Name: Andesine (Feldspar) (NaSi,CaAl)AlSi_2O_8
Type: Mineral
Class: Silicate
Subclass: Tectosilicate
Particle Size: Medium
Sample No.: TS-4A
Owner: JPL
Wavelength Range: VSWIR
Origin: 
Collection Date: N/A
Description: Particle size was 45-125um.Collected by JPL Original ASTER Spectral Library name was jpl.beckman.mineral.silicate.tectosilicate.medium.ts04a.spectrum.txt
Measurement: Hemispherical reflectance
First Column: X
Second Column: Y
X Units: Wavelength (micrometers)
Y Units:Reflectance (percent)
First X Value:  0.4000
Last X Value:  2.5000
Number of X Values: 826
Additional Information: mineral.silicate.tectosilicate.medium.vswir.ts-4a.jpl.beckman.ancillary.txt

 0.4000	63.6100
 0.4010	63.6300
 0.4020	63.9300
 0.4030	64.2100
 0.4040	64.1900
 0.4050	64.2300
 0.4060	64.5100
 0.4070	64.7000
 0.4080	64.7000
 0.4090	64.9400
 0.4100	65.0600
 0.4110	65.2200
 0.4120	65.2600
 0.4130	65.2200
 0.4140	65.4800
 0.4150	65.8000
 0.4160	65.9500
 0.4170	65.7800
 0.4180	65.8500
 0.4190	66.0200
 0.4200	66.2400
 0.4210	66.3100
 0.4220	66.4600
 0.4230	66.6900
 0.4240	66.9100
 0.4250	66.9800
 0.4260	66.9900
 0.4270	67.2200
 0.4280	67.4800
 0.4290	67.6600
 0.4300	67.5700
 0.4310	67.7600
 0.4320	67.9400
 0.4330	68.2500
 0.4340	68.3800
 0.4350	68.3300
 0.4360	68.7400
 0.4370	68.8000
 0.4380	68.8200
 0.4390	68.9500
 0.4400	69.1800
 0.4410	69.3900
 0.4420	69.4100
 0.4430	69.4300
 0.4440	69.5500
 0.4450	69.7500
 0.4460	69.8200
 0.4470	70.0200
 0.4480	70.1200
 0.4490	70.3200
 0.4500	70.2900
 0.4510	70.2800
 0.4520	70.3800
 0.4530	70.5400
 0.4540	70.7800
 0.4550	70.7200
 0.4560	70.6600
 0.4570	70.7800
 0.4580	71.0000
 0.4590	70.9400
 0.4600	71.0300
 0.4610	71.2900
 0.4620	71.2600
 0.4630	71.3600
 0.4640	71.4500
 0.4650	71.6500
 0.4660	71.6300
 0.4670	71.6200
 0.4680	71.6800
 0.4690	71.6200
 0.4700	71.7900
 0.4710	71.8800
 0.4720	71.8100
 0.4730	71.9600
 0.4740	72.1200
 0.4750	72.1600
 0.4760	72.0900
 0.4770	72.1300
 0.4780	72.3700
 0.4790	72.4700
 0.4800	72.4700
 0.4810	72.5500
 0.4820	72.5700
 0.4830	72.6200
 0.4840	72.8300
 0.4850	72.7500
 0.4860	72.7500
 0.4870	72.9700
 0.4880	73.0700
 0.4890	72.9500
 0.4900	73.0700
 0.4910	73.3000
 0.4920	73.3800
 0.4930	73.3800
 0.4940	73.4800
 0.4950	73.4600
 0.4960	73.7100
 0.4970	73.8200
 0.4980	73.8000
 0.4990	73.9400
 0.5000	74.0700
 0.5010	74.1500
 0.5020	74.1100
 0.5030	74.1900
 0.5040	74.3600
 0.5050	74.4500
 0.5060	74.4700
 0.5070	74.6200
 0.5080	74.6700
 0.5090	74.8400
 0.5100	74.8700
 0.5110	74.7600
 0.5120	75.0500
 0.5130	75.1300
 0.5140	75.1600
 0.5150	75.1700
 0.5160	75.3800
 0.5170	75.4200
 0.5180	75.4900
 0.5190	75.5900
 0.5200	75.6100
 0.5210	75.5800
 0.5220	75.9300
 0.5230	75.9200
 0.5240	75.8900
 0.5250	76.0300
 0.5260	76.1800
 0.5270	76.1400
 0.5280	76.1200
 0.5290	76.2600
 0.5300	76.3600
 0.5310	76.3900
 0.5320	76.5100
 0.5330	76.4400
 0.5340	76.5000
 0.5350	76.5600
 0.5360	76.5200
 0.5370	76.5800
 0.5380	76.8100
 0.5390	76.7500
 0.5400	76.7100
 0.5410	76.8200
 0.5420	76.9500
 0.5430	76.9600
 0.5440	77.0900
 0.5450	77.0300
 0.5460	77.2900
 0.5470	77.2500
 0.5480	77.2300
 0.5490	77.4400
 0.5500	77.4600
 0.5510	77.5400
 0.5520	77.4400
 0.5530	77.5700
 0.5540	77.7500
 0.5550	77.6600
 0.5560	77.7600
 0.5570	77.7700
 0.5580	77.9900
 0.5590	77.8600
 0.5600	78.1700
 0.5610	78.2700
 0.5620	78.4400
 0.5630	78.3100
 0.5640	78.2800
 0.5650	78.3200
 0.5660	78.3700
 0.5670	78.2900
 0.5680	78.2300
 0.5690	78.2900
 0.5700	78.3800
 0.5710	78.3600
 0.5720	78.2300
 0.5730	78.2700
 0.5740	78.2200
 0.5750	78.1800
 0.5760	78.0700
 0.5770	78.1000
 0.5780	78.3800
 0.5790	78.2500
 0.5800	78.1600
 0.5810	78.1500
 0.5820	78.2700
 0.5830	78.2700
 0.5840	78.2700
 0.5850	78.4300
 0.5860	78.4700
 0.5870	78.5000
 0.5880	78.3900
 0.5890	78.3600
 0.5900	78.5300
 0.5910	78.5700
 0.5920	78.4600
 0.5930	78.4400
 0.5940	78.6300
 0.5950	78.6700
 0.5960	78.5000
 0.5970	78.5100
 0.5980	78.6600
 0.5990	78.7100
 0.6000	78.6000
 0.6010	78.6800
 0.6020	78.7800
 0.6030	78.8900
 0.6040	78.7100
 0.6050	78.6900
 0.6060	78.7500
 0.6070	78.9700
 0.6080	78.8700
 0.6090	78.7700
 0.6100	78.7500
 0.6110	78.8400
 0.6120	78.7800
 0.6130	78.7500
 0.6140	78.8900
 0.6150	78.7800
 0.6160	78.7200
 0.6170	78.6600
 0.6180	78.7200
 0.6190	78.8400
 0.6200	78.8300
 0.6210	78.6900
 0.6220	78.8100
 0.6230	78.9100
 0.6240	78.7600
 0.6250	78.7400
 0.6260	78.8600
 0.6270	78.8200
 0.6280	78.7400
 0.6290	78.7400
 0.6300	78.7300
 0.6310	78.8800
 0.6320	78.9000
 0.6330	78.7800
 0.6340	78.9500
 0.6350	79.0000
 0.6360	78.8500
 0.6370	78.8900
 0.6380	78.9100
 0.6390	79.0900
 0.6400	78.8900
 0.6410	78.9000
 0.6420	78.8900
 0.6430	79.0500
 0.6440	79.0200
 0.6450	78.8800
 0.6460	78.9200
 0.6470	79.0300
 0.6480	79.0500
 0.6490	78.9800
 0.6500	78.9600
 0.6510	79.1300
 0.6520	79.1400
 0.6530	78.9900
 0.6540	79.0100
 0.6550	79.1100
 0.6560	79.0900
 0.6570	78.9400
 0.6580	79.1200
 0.6590	79.0200
 0.6600	79.0600
 0.6610	78.9900
 0.6620	79.0200
 0.6630	79.1800
 0.6640	79.1900
 0.6650	79.1000
 0.6660	79.2400
 0.6670	79.1900
 0.6680	79.2400
 0.6690	79.1200
 0.6700	79.1300
 0.6710	79.1300
 0.6720	79.3000
 0.6730	79.1100
 0.6740	79.1000
 0.6750	79.1900
 0.6760	79.2900
 0.6770	79.2000
 0.6780	79.1100
 0.6790	79.2100
 0.6800	79.3200
 0.6810	79.3400
 0.6820	79.2500
 0.6830	79.3200
 0.6840	79.3300
 0.6850	79.3900
 0.6860	79.2400
 0.6870	79.2300
 0.6880	79.3400
 0.6890	79.4500
 0.6900	79.3000
 0.6910	79.2800
 0.6920	79.3100
 0.6930	79.4100
 0.6940	79.4400
 0.6950	79.3700
 0.6960	79.3800
 0.6970	79.5100
 0.6980	79.3800
 0.6990	79.2700
 0.7000	79.3700
 0.7010	79.3800
 0.7020	79.2200
 0.7030	79.5100
 0.7040	79.2400
 0.7050	79.5100
 0.7060	79.4300
 0.7070	79.3400
 0.7080	79.4100
 0.7090	79.5400
 0.7100	79.2800
 0.7110	79.2900
 0.7120	79.4500
 0.7130	79.4900
 0.7140	79.4400
 0.7150	79.4500
 0.7160	79.3900
 0.7170	79.4800
 0.7180	79.5100
 0.7190	79.5200
 0.7200	79.5700
 0.7210	79.6800
 0.7220	79.5000
 0.7230	79.4500
 0.7240	79.5700
 0.7250	79.6800
 0.7260	79.5900
 0.7270	79.6400
 0.7280	79.5400
 0.7290	79.6300
 0.7300	79.6400
 0.7310	79.5600
 0.7320	79.7000
 0.7330	79.7200
 0.7340	79.7300
 0.7350	79.6200
 0.7360	79.6800
 0.7370	79.7900
 0.7380	79.7600
 0.7390	79.7400
 0.7400	79.6500
 0.7410	79.7800
 0.7420	79.7300
 0.7430	79.6100
 0.7440	79.6800
 0.7450	79.6400
 0.7460	79.7500
 0.7470	79.6300
 0.7480	79.7700
 0.7490	79.8300
 0.7500	79.6800
 0.7510	79.7100
 0.7520	79.6900
 0.7530	79.8000
 0.7540	79.7400
 0.7550	79.5800
 0.7560	79.6900
 0.7570	79.7800
 0.7580	79.7900
 0.7590	79.7000
 0.7600	79.8200
 0.7610	79.7600
 0.7620	79.7400
 0.7630	79.7000
 0.7640	79.8400
 0.7650	79.7800
 0.7660	79.8100
 0.7670	79.8000
 0.7680	79.7600
 0.7690	79.8600
 0.7700	79.9000
 0.7710	79.8300
 0.7720	79.7300
 0.7730	79.8000
 0.7740	79.9600
 0.7750	79.8500
 0.7760	79.7800
 0.7770	79.8800
 0.7780	79.7900
 0.7790	79.9500
 0.7800	80.0100
 0.7810	79.7900
 0.7820	79.8600
 0.7830	79.9600
 0.7840	79.9300
 0.7850	79.9000
 0.7860	79.9200
 0.7870	80.0300
 0.7880	80.0800
 0.7890	80.0000
 0.7900	79.9300
 0.7910	80.0300
 0.7920	80.0100
 0.7930	79.8700
 0.7940	80.0500
 0.7950	80.1600
 0.7960	80.0100
 0.7970	79.9800
 0.7980	80.0100
 0.7990	80.1700
 0.8000	79.7800
 0.8040	79.8200
 0.8080	79.7800
 0.8120	79.7700
 0.8160	79.6900
 0.8200	79.7200
 0.8240	79.6600
 0.8280	79.8200
 0.8320	79.7600
 0.8360	79.7900
 0.8400	79.8200
 0.8440	79.8300
 0.8480	79.7800
 0.8520	79.8500
 0.8560	79.8000
 0.8600	79.7500
 0.8640	79.7600
 0.8680	79.7200
 0.8720	79.7300
 0.8760	79.7100
 0.8800	79.5800
 0.8840	79.5700
 0.8880	79.5800
 0.8920	79.6400
 0.8960	79.6900
 0.9000	79.6900
 0.9040	79.6800
 0.9080	79.6600
 0.9120	79.6000
 0.9160	79.5700
 0.9200	79.5100
 0.9240	79.4900
 0.9280	79.4500
 0.9320	79.4600
 0.9360	79.3300
 0.9400	79.3300
 0.9440	79.3500
 0.9480	79.3600
 0.9520	79.2600
 0.9560	79.2600
 0.9600	79.3100
 0.9640	79.2200
 0.9680	79.1200
 0.9720	78.9600
 0.9760	78.9200
 0.9800	78.9100
 0.9840	78.8100
 0.9880	78.6300
 0.9920	78.5500
 0.9960	78.5100
 1.0000	78.5000
 1.0040	78.3500
 1.0080	78.2800
 1.0120	78.2500
 1.0160	78.1500
 1.0200	77.9700
 1.0240	77.7800
 1.0280	77.6200
 1.0320	77.5200
 1.0360	77.4400
 1.0400	77.2400
 1.0440	77.0900
 1.0480	76.9100
 1.0520	76.7100
 1.0560	76.7300
 1.0600	76.5300
 1.0640	76.4500
 1.0680	76.3800
 1.0720	76.2200
 1.0760	76.0600
 1.0800	75.9900
 1.0840	75.7900
 1.0880	75.5700
 1.0920	75.4800
 1.0960	75.2800
 1.1000	75.1500
 1.1040	75.0200
 1.1080	74.7900
 1.1120	74.7300
 1.1160	74.7100
 1.1200	74.6000
 1.1240	74.3900
 1.1280	74.3800
 1.1320	74.1800
 1.1360	73.9900
 1.1400	73.9300
 1.1440	73.7900
 1.1480	73.7400
 1.1520	73.5800
 1.1560	73.3900
 1.1600	73.1900
 1.1640	73.0700
 1.1680	72.9600
 1.1720	72.7600
 1.1760	72.7600
 1.1800	72.6700
 1.1840	72.5800
 1.1880	72.4500
 1.1920	72.4400
 1.1960	72.3800
 1.2000	72.2800
 1.2040	72.2000
 1.2080	72.1700
 1.2120	72.0100
 1.2160	72.0000
 1.2200	71.8700
 1.2240	71.8800
 1.2280	71.8100
 1.2320	71.7900
 1.2360	71.7100
 1.2400	71.6600
 1.2440	71.5700
 1.2480	71.5900
 1.2520	71.5600
 1.2560	71.5100
 1.2600	71.4800
 1.2640	71.4500
 1.2680	71.4100
 1.2720	71.4000
 1.2760	71.4000
 1.2800	71.4000
 1.2840	71.3800
 1.2880	71.4000
 1.2920	71.4600
 1.2960	71.4300
 1.3000	71.4100
 1.3040	71.5100
 1.3080	71.4700
 1.3120	71.4900
 1.3160	71.4900
 1.3200	71.5100
 1.3240	71.6700
 1.3280	71.7100
 1.3320	71.6200
 1.3360	71.5900
 1.3400	71.6800
 1.3440	71.7100
 1.3480	71.7100
 1.3520	71.7600
 1.3560	71.9200
 1.3600	71.9900
 1.3640	72.0100
 1.3680	72.0300
 1.3720	72.0600
 1.3760	72.1300
 1.3800	72.1200
 1.3840	72.1200
 1.3880	71.9600
 1.3920	71.8300
 1.3960	71.5700
 1.4000	71.2400
 1.4040	71.1500
 1.4080	71.1500
 1.4120	71.3800
 1.4160	71.8100
 1.4200	72.1300
 1.4240	72.4600
 1.4280	72.7200
 1.4320	72.8900
 1.4360	73.0100
 1.4400	73.1600
 1.4440	73.3000
 1.4480	73.4700
 1.4520	73.5800
 1.4560	73.7900
 1.4600	73.8600
 1.4640	74.0000
 1.4680	74.0600
 1.4720	74.2900
 1.4760	74.4100
 1.4800	74.5600
 1.4840	74.7100
 1.4880	74.8400
 1.4920	74.9700
 1.4960	75.0900
 1.5000	75.1500
 1.5040	75.1900
 1.5080	75.3100
 1.5120	75.4400
 1.5160	75.6000
 1.5200	75.7500
 1.5240	75.8800
 1.5280	75.9200
 1.5320	76.0500
 1.5360	76.1000
 1.5400	76.3100
 1.5440	76.4000
 1.5480	76.4400
 1.5520	76.5700
 1.5560	76.6000
 1.5600	76.6900
 1.5640	76.8200
 1.5680	76.8500
 1.5720	76.9000
 1.5760	76.9700
 1.5800	77.0800
 1.5840	77.1300
 1.5880	77.2500
 1.5920	77.3400
 1.5960	77.4400
 1.6000	77.6400
 1.6040	77.6800
 1.6080	77.7400
 1.6120	77.7300
 1.6160	77.6800
 1.6200	77.8400
 1.6240	77.8700
 1.6280	77.8600
 1.6320	77.9100
 1.6360	78.0200
 1.6400	77.9700
 1.6440	78.0500
 1.6480	78.1000
 1.6520	78.2400
 1.6560	78.3500
 1.6600	78.2900
 1.6640	78.3500
 1.6680	78.4400
 1.6720	78.3500
 1.6760	78.4900
 1.6800	78.4700
 1.6840	78.5000
 1.6880	78.4700
 1.6920	78.5500
 1.6960	78.5200
 1.7000	78.6200
 1.7040	78.6300
 1.7080	78.7200
 1.7120	78.7300
 1.7160	78.7800
 1.7200	78.8000
 1.7240	78.6500
 1.7280	78.7100
 1.7320	78.8100
 1.7360	78.7600
 1.7400	78.7100
 1.7440	78.6500
 1.7480	78.7600
 1.7520	78.7600
 1.7560	78.7700
 1.7600	78.7700
 1.7640	78.8600
 1.7680	78.9100
 1.7720	78.9000
 1.7760	78.8800
 1.7800	78.9100
 1.7840	78.8600
 1.7880	78.9400
 1.7920	78.9100
 1.7960	79.0000
 1.8000	79.0900
 1.8040	79.0600
 1.8080	79.1000
 1.8120	79.1600
 1.8160	79.1500
 1.8200	79.0900
 1.8240	79.1700
 1.8280	79.1400
 1.8320	79.1700
 1.8360	79.1400
 1.8400	79.1500
 1.8440	79.1200
 1.8480	79.1700
 1.8520	79.0600
 1.8560	79.0300
 1.8600	79.0200
 1.8640	79.0100
 1.8680	78.9800
 1.8720	78.8300
 1.8760	78.6100
 1.8800	78.4100
 1.8840	78.1200
 1.8880	77.7500
 1.8920	77.2900
 1.8960	76.8700
 1.9000	76.4500
 1.9040	76.1600
 1.9080	76.0800
 1.9120	76.0000
 1.9160	76.0600
 1.9200	76.1800
 1.9240	76.3700
 1.9280	76.5000
 1.9320	76.6800
 1.9360	76.8600
 1.9400	76.8800
 1.9440	77.0200
 1.9480	77.1000
 1.9520	77.2300
 1.9560	77.2600
 1.9600	77.4500
 1.9640	77.6000
 1.9680	77.7100
 1.9720	77.7900
 1.9760	77.8600
 1.9800	78.0300
 1.9840	78.3000
 1.9880	78.4500
 1.9920	78.5000
 1.9960	78.6300
 2.0000	78.7400
 2.0040	78.8300
 2.0080	78.9800
 2.0120	79.1200
 2.0160	79.1800
 2.0200	79.3100
 2.0240	79.4000
 2.0280	79.5300
 2.0320	79.5800
 2.0360	79.6200
 2.0400	79.7800
 2.0440	79.8500
 2.0480	79.7900
 2.0520	79.8900
 2.0560	79.8900
 2.0600	79.9600
 2.0640	80.0500
 2.0680	80.0600
 2.0720	80.0200
 2.0760	80.1000
 2.0800	80.1400
 2.0840	80.2100
 2.0880	80.3000
 2.0920	80.3300
 2.0960	80.3700
 2.1000	80.3600
 2.1040	80.4300
 2.1080	80.4400
 2.1120	80.3700
 2.1160	80.5100
 2.1200	80.5900
 2.1240	80.5500
 2.1280	80.5400
 2.1320	80.6100
 2.1360	80.5400
 2.1400	80.4800
 2.1440	80.4200
 2.1480	80.2000
 2.1520	80.0100
 2.1560	79.8500
 2.1600	79.6100
 2.1640	79.3400
 2.1680	79.0700
 2.1720	78.7200
 2.1760	78.4200
 2.1800	78.0400
 2.1840	77.7200
 2.1880	77.3000
 2.1920	77.1500
 2.1960	77.1200
 2.2000	77.1400
 2.2040	77.2700
 2.2080	77.4500
 2.2120	77.6900
 2.2160	78.0600
 2.2200	78.3800
 2.2240	78.5300
 2.2280	78.7500
 2.2320	78.8900
 2.2360	78.9900
 2.2400	79.0200
 2.2440	79.1900
 2.2480	79.1000
 2.2520	79.1700
 2.2560	79.2700
 2.2600	79.3000
 2.2640	79.3500
 2.2680	79.3900
 2.2720	79.3300
 2.2760	79.3400
 2.2800	79.3300
 2.2840	79.2700
 2.2880	79.1200
 2.2920	79.1000
 2.2960	79.0400
 2.3000	78.8900
 2.3040	78.8900
 2.3080	78.7000
 2.3120	78.5500
 2.3160	78.4400
 2.3200	78.3500
 2.3240	78.1100
 2.3280	78.0000
 2.3320	77.9600
 2.3360	77.8100
 2.3400	77.7600
 2.3440	77.6500
 2.3480	77.6800
 2.3520	77.6100
 2.3560	77.6200
 2.3600	77.6000
 2.3640	77.6100
 2.3680	77.5300
 2.3720	77.5400
 2.3760	77.5100
 2.3800	77.4300
 2.3840	77.3500
 2.3880	77.2700
 2.3920	77.1400
 2.3960	77.1600
 2.4000	77.0300
 2.4040	76.9200
 2.4080	76.8300
 2.4120	76.6400
 2.4160	76.5500
 2.4200	76.3900
 2.4240	76.2100
 2.4280	76.1300
 2.4320	76.0000
 2.4360	75.9100
 2.4400	75.8200
 2.4440	75.7000
 2.4480	75.5500
 2.4520	75.4900
 2.4560	75.3700
 2.4600	75.3600
 2.4640	75.3200
 2.4680	75.2500
 2.4720	75.3400
 2.4760	75.2700
 2.4800	75.4300
 2.4840	75.4100
 2.4880	75.4200
 2.4920	75.4400
 2.4960	75.5500
 2.5000	75.4800
