Name: Borax Na_2B_4O_5(OH)_4.8H_2O
Type: Mineral
Class: Borate
Subclass: None
Particle Size: Medium
Sample No.: B-6A
Owner: JPL
Wavelength Range: VSWIR
Origin: USA, California, Kern County, Boron
Collection Date: N/A
Description: Particle size was 45-125um.Collected by Burminco Original ASTER Spectral Library name was jpl.beckman.mineral.borate.none.medium.b06.spectrum.txt
Measurement: Hemispherical reflectance
First Column: X
Second Column: Y
X Units: Wavelength (micrometers)
Y Units:Reflectance (percent)
First X Value:  0.4000
Last X Value:  2.5000
Number of X Values: 826
Additional Information: mineral.borate.none.medium.vswir.b-6a.jpl.beckman.ancillary.txt

 0.4000	89.2600
 0.4010	89.1300
 0.4020	89.2500
 0.4030	89.2600
 0.4040	89.2600
 0.4050	89.2000
 0.4060	89.0900
 0.4070	89.3900
 0.4080	89.3200
 0.4090	89.3200
 0.4100	89.3300
 0.4110	89.3900
 0.4120	89.2700
 0.4130	89.2700
 0.4140	89.3300
 0.4150	89.4500
 0.4160	89.2700
 0.4170	89.2600
 0.4180	89.2700
 0.4190	89.3900
 0.4200	89.3900
 0.4210	89.3900
 0.4220	89.3900
 0.4230	89.5100
 0.4240	89.2800
 0.4250	89.3500
 0.4260	89.4100
 0.4270	89.3400
 0.4280	89.3400
 0.4290	89.2100
 0.4300	89.5100
 0.4310	89.5100
 0.4320	89.4000
 0.4330	89.5200
 0.4340	89.4000
 0.4350	89.5900
 0.4360	89.4000
 0.4370	89.4600
 0.4380	89.5800
 0.4390	89.3900
 0.4400	89.5100
 0.4410	89.5800
 0.4420	89.6500
 0.4430	89.5300
 0.4440	89.4200
 0.4450	89.6600
 0.4460	89.7100
 0.4470	89.7700
 0.4480	89.6500
 0.4490	89.4700
 0.4500	89.7100
 0.4510	89.6400
 0.4520	89.7600
 0.4530	89.8400
 0.4540	89.6700
 0.4550	89.7300
 0.4560	89.8700
 0.4570	89.8800
 0.4580	89.8900
 0.4590	89.7300
 0.4600	89.9400
 0.4610	89.8500
 0.4620	89.8400
 0.4630	89.8600
 0.4640	89.8600
 0.4650	89.9100
 0.4660	89.9700
 0.4670	89.9100
 0.4680	90.0400
 0.4690	89.9800
 0.4700	89.9200
 0.4710	89.9700
 0.4720	90.1500
 0.4730	90.1100
 0.4740	89.9300
 0.4750	90.1000
 0.4760	90.0500
 0.4770	90.1800
 0.4780	90.1200
 0.4790	90.0000
 0.4800	90.1900
 0.4810	90.1900
 0.4820	90.2500
 0.4830	90.2700
 0.4840	90.1500
 0.4850	90.1400
 0.4860	90.1500
 0.4870	90.2100
 0.4880	90.2800
 0.4890	90.1100
 0.4900	90.1700
 0.4910	90.0600
 0.4920	90.1700
 0.4930	90.3100
 0.4940	90.1400
 0.4950	90.0900
 0.4960	90.0900
 0.4970	90.2700
 0.4980	90.3400
 0.4990	90.0600
 0.5000	90.1800
 0.5010	90.0700
 0.5020	90.2900
 0.5030	90.3500
 0.5040	90.2500
 0.5050	90.3000
 0.5060	90.3100
 0.5070	90.3700
 0.5080	90.3100
 0.5090	90.3100
 0.5100	90.3000
 0.5110	90.3000
 0.5120	90.4800
 0.5130	90.5500
 0.5140	90.3700
 0.5150	90.4300
 0.5160	90.3700
 0.5170	90.5500
 0.5180	90.5000
 0.5190	90.3800
 0.5200	90.3200
 0.5210	90.2800
 0.5220	90.4500
 0.5230	90.5000
 0.5240	90.5000
 0.5250	90.4500
 0.5260	90.3900
 0.5270	90.5600
 0.5280	90.6200
 0.5290	90.4300
 0.5300	90.4200
 0.5310	90.4300
 0.5320	90.5500
 0.5330	90.5300
 0.5340	90.2800
 0.5350	90.4200
 0.5360	90.4200
 0.5370	90.4800
 0.5380	90.4800
 0.5390	90.4200
 0.5400	90.5900
 0.5410	90.5300
 0.5420	90.4200
 0.5430	90.4900
 0.5440	90.3700
 0.5450	90.4900
 0.5460	90.3900
 0.5470	90.3900
 0.5480	90.4000
 0.5490	90.4000
 0.5500	90.5300
 0.5510	90.3600
 0.5520	90.4100
 0.5530	90.4800
 0.5540	90.4800
 0.5550	90.6000
 0.5560	90.4400
 0.5570	90.3700
 0.5580	90.5200
 0.5590	90.5000
 0.5600	90.4900
 0.5610	90.8000
 0.5620	90.7400
 0.5630	90.6800
 0.5640	90.7900
 0.5650	90.7300
 0.5660	90.9000
 0.5670	90.8400
 0.5680	90.6700
 0.5690	90.7300
 0.5700	90.6200
 0.5710	90.7300
 0.5720	90.6200
 0.5730	90.4300
 0.5740	90.5300
 0.5750	90.4400
 0.5760	90.5400
 0.5770	90.4700
 0.5780	90.4500
 0.5790	90.5700
 0.5800	90.5100
 0.5810	90.5600
 0.5820	90.6200
 0.5830	90.3800
 0.5840	90.5000
 0.5850	90.3300
 0.5860	90.5700
 0.5870	90.5700
 0.5880	90.3200
 0.5890	90.5000
 0.5900	90.3800
 0.5910	90.5100
 0.5920	90.5700
 0.5930	90.5000
 0.5940	90.5000
 0.5950	90.3800
 0.5960	90.4500
 0.5970	90.4500
 0.5980	90.4000
 0.5990	90.6600
 0.6000	90.5000
 0.6010	90.5800
 0.6020	90.5400
 0.6030	90.4300
 0.6040	90.7200
 0.6050	90.5600
 0.6060	90.5700
 0.6070	90.6300
 0.6080	90.5700
 0.6090	90.6900
 0.6100	90.5700
 0.6110	90.5800
 0.6120	90.5100
 0.6130	90.4600
 0.6140	90.6300
 0.6150	90.5200
 0.6160	90.5800
 0.6170	90.5700
 0.6180	90.4500
 0.6190	90.4500
 0.6200	90.3900
 0.6210	90.4000
 0.6220	90.4600
 0.6230	90.4000
 0.6240	90.5200
 0.6250	90.3500
 0.6260	90.4000
 0.6270	90.4600
 0.6280	90.3400
 0.6290	90.3300
 0.6300	90.3900
 0.6310	90.5600
 0.6320	90.5100
 0.6330	90.5200
 0.6340	90.5700
 0.6350	90.4000
 0.6360	90.4600
 0.6370	90.4500
 0.6380	90.4600
 0.6390	90.5700
 0.6400	90.4500
 0.6410	90.4400
 0.6420	90.5000
 0.6430	90.5000
 0.6440	90.4500
 0.6450	90.4100
 0.6460	90.5200
 0.6470	90.4600
 0.6480	90.4000
 0.6490	90.5700
 0.6500	90.5200
 0.6510	90.5700
 0.6520	90.5200
 0.6530	90.4500
 0.6540	90.5000
 0.6550	90.5000
 0.6560	90.5000
 0.6570	90.5100
 0.6580	90.3400
 0.6590	90.4500
 0.6600	90.4000
 0.6610	90.5100
 0.6620	90.5700
 0.6630	90.4000
 0.6640	90.5800
 0.6650	90.4000
 0.6660	90.3900
 0.6670	90.5000
 0.6680	90.3900
 0.6690	90.5100
 0.6700	90.4600
 0.6710	90.5800
 0.6720	90.6300
 0.6730	90.4600
 0.6740	90.5800
 0.6750	90.5200
 0.6760	90.5200
 0.6770	90.4600
 0.6780	90.4000
 0.6790	90.5000
 0.6800	90.3900
 0.6810	90.4500
 0.6820	90.4500
 0.6830	90.4000
 0.6840	90.6400
 0.6850	90.5200
 0.6860	90.5100
 0.6870	90.3500
 0.6880	90.2900
 0.6890	90.4600
 0.6900	90.4000
 0.6910	90.5100
 0.6920	90.4500
 0.6930	90.3300
 0.6940	90.5100
 0.6950	90.4600
 0.6960	90.4000
 0.6970	90.4500
 0.6980	90.3800
 0.6990	90.5300
 0.7000	90.3900
 0.7010	90.4600
 0.7020	90.4600
 0.7030	90.5200
 0.7040	90.5200
 0.7050	90.5200
 0.7060	90.5800
 0.7070	90.4100
 0.7080	90.5300
 0.7090	90.4100
 0.7100	90.3500
 0.7110	90.5700
 0.7120	90.4600
 0.7130	90.5200
 0.7140	90.4100
 0.7150	90.4100
 0.7160	90.5800
 0.7170	90.5200
 0.7180	90.4700
 0.7190	90.3500
 0.7200	90.2900
 0.7210	90.4000
 0.7220	90.4000
 0.7230	90.5200
 0.7240	90.4700
 0.7250	90.3000
 0.7260	90.4100
 0.7270	90.4100
 0.7280	90.4700
 0.7290	90.4100
 0.7300	90.2900
 0.7310	90.4600
 0.7320	90.4000
 0.7330	90.4600
 0.7340	90.2900
 0.7350	90.3000
 0.7360	90.2900
 0.7370	90.1800
 0.7380	90.2900
 0.7390	90.1800
 0.7400	90.1900
 0.7410	90.3500
 0.7420	90.1800
 0.7430	90.0700
 0.7440	90.1900
 0.7450	90.1900
 0.7460	90.2500
 0.7470	90.1300
 0.7480	90.0300
 0.7490	90.1400
 0.7500	90.0800
 0.7510	90.2400
 0.7520	90.1200
 0.7530	89.9600
 0.7540	90.0200
 0.7550	90.0800
 0.7560	90.0200
 0.7570	90.0700
 0.7580	90.1300
 0.7590	90.2500
 0.7600	90.2400
 0.7610	90.1800
 0.7620	90.0700
 0.7630	90.0300
 0.7640	90.2000
 0.7650	90.2500
 0.7660	90.2500
 0.7670	90.0800
 0.7680	90.0800
 0.7690	90.1900
 0.7700	90.2500
 0.7710	90.3000
 0.7720	90.0900
 0.7730	90.0300
 0.7740	90.0800
 0.7750	90.1900
 0.7760	90.0800
 0.7770	89.9700
 0.7780	90.0700
 0.7790	90.1300
 0.7800	90.1900
 0.7810	90.2000
 0.7820	90.1500
 0.7830	90.2600
 0.7840	90.2100
 0.7850	90.2000
 0.7860	90.1400
 0.7870	90.0800
 0.7880	90.1300
 0.7890	90.0800
 0.7900	90.2000
 0.7910	90.1400
 0.7920	90.0800
 0.7930	90.3000
 0.7940	90.2000
 0.7950	90.2600
 0.7960	90.2500
 0.7970	90.1900
 0.7980	90.3100
 0.7990	90.1900
 0.8000	90.3100
 0.8040	90.3100
 0.8080	90.3100
 0.8120	90.2900
 0.8160	90.2500
 0.8200	90.2500
 0.8240	90.1900
 0.8280	90.3000
 0.8320	90.1900
 0.8360	90.1200
 0.8400	90.0100
 0.8440	90.0600
 0.8480	90.0600
 0.8520	90.1100
 0.8560	90.1200
 0.8600	90.1700
 0.8640	90.1100
 0.8680	90.1700
 0.8720	90.1600
 0.8760	90.1100
 0.8800	90.1100
 0.8840	90.0400
 0.8880	90.0500
 0.8920	90.0400
 0.8960	89.9900
 0.9000	90.0400
 0.9040	89.8600
 0.9080	89.8700
 0.9120	89.8000
 0.9160	89.7400
 0.9200	89.6200
 0.9240	89.6900
 0.9280	89.5700
 0.9320	89.3800
 0.9360	89.2100
 0.9400	89.1400
 0.9440	88.9700
 0.9480	88.7300
 0.9520	88.3600
 0.9560	87.9000
 0.9600	87.4100
 0.9640	87.0500
 0.9680	86.7700
 0.9720	86.6500
 0.9760	86.5800
 0.9800	86.4600
 0.9840	86.5500
 0.9880	86.7300
 0.9920	86.7200
 0.9960	86.9700
 1.0000	87.1100
 1.0040	87.2900
 1.0080	87.4300
 1.0120	87.6200
 1.0160	87.8500
 1.0200	88.0200
 1.0240	88.1300
 1.0280	88.3000
 1.0320	88.4800
 1.0360	88.6700
 1.0400	88.8500
 1.0440	88.8000
 1.0480	88.7900
 1.0520	88.9100
 1.0560	88.9100
 1.0600	88.9200
 1.0640	89.0000
 1.0680	89.0000
 1.0720	89.0200
 1.0760	88.9300
 1.0800	88.9500
 1.0840	88.8500
 1.0880	88.8600
 1.0920	88.7500
 1.0960	88.5900
 1.1000	88.4700
 1.1040	88.3600
 1.1080	88.3100
 1.1120	88.1800
 1.1160	88.2100
 1.1200	88.0200
 1.1240	87.9600
 1.1280	87.7100
 1.1320	87.4000
 1.1360	86.8800
 1.1400	86.1100
 1.1440	85.0200
 1.1480	83.9300
 1.1520	82.9200
 1.1560	82.2700
 1.1600	81.9700
 1.1640	81.6600
 1.1680	81.4900
 1.1720	81.3900
 1.1760	81.5200
 1.1800	81.6200
 1.1840	81.6400
 1.1880	81.5400
 1.1920	81.5200
 1.1960	81.5100
 1.2000	81.5800
 1.2040	81.6600
 1.2080	81.5700
 1.2120	81.6200
 1.2160	81.6200
 1.2200	81.6500
 1.2240	81.5300
 1.2280	81.5200
 1.2320	81.4700
 1.2360	81.4400
 1.2400	81.4100
 1.2440	81.4400
 1.2480	81.5200
 1.2520	81.4500
 1.2560	81.4700
 1.2600	81.6400
 1.2640	81.6700
 1.2680	81.6900
 1.2720	81.7500
 1.2760	81.6900
 1.2800	81.7000
 1.2840	81.6500
 1.2880	81.7300
 1.2920	81.5000
 1.2960	81.3600
 1.3000	81.0900
 1.3040	80.7200
 1.3080	80.2400
 1.3120	79.6100
 1.3160	78.9600
 1.3200	78.2700
 1.3240	77.5800
 1.3280	76.8300
 1.3320	76.2300
 1.3360	75.7300
 1.3400	75.3100
 1.3440	74.9200
 1.3480	74.5500
 1.3520	74.3000
 1.3560	74.0600
 1.3600	73.8200
 1.3640	73.4500
 1.3680	73.1400
 1.3720	72.5400
 1.3760	71.6900
 1.3800	70.6100
 1.3840	69.1100
 1.3880	67.2600
 1.3920	64.9500
 1.3960	62.3800
 1.4000	59.4900
 1.4040	56.2500
 1.4080	53.0700
 1.4120	50.3000
 1.4160	48.6400
 1.4200	47.7900
 1.4240	47.5900
 1.4280	47.5100
 1.4320	47.5100
 1.4360	47.3400
 1.4400	47.1400
 1.4440	47.0700
 1.4480	47.0900
 1.4520	46.9800
 1.4560	47.0100
 1.4600	46.9500
 1.4640	46.8000
 1.4680	46.6600
 1.4720	46.5400
 1.4760	46.8300
 1.4800	47.3800
 1.4840	48.1800
 1.4880	49.0800
 1.4920	50.0700
 1.4960	51.0200
 1.5000	51.5500
 1.5040	52.4900
 1.5080	53.0100
 1.5120	53.4000
 1.5160	53.7900
 1.5200	54.0200
 1.5240	54.3000
 1.5280	54.3700
 1.5320	54.4200
 1.5360	54.4500
 1.5400	54.5500
 1.5440	54.6400
 1.5480	54.6900
 1.5520	54.7100
 1.5560	54.8100
 1.5600	54.9300
 1.5640	55.0900
 1.5680	54.9600
 1.5720	55.1300
 1.5760	55.1700
 1.5800	55.1700
 1.5840	55.1200
 1.5880	55.0800
 1.5920	55.1100
 1.5960	54.9700
 1.6000	54.9200
 1.6040	54.9400
 1.6080	54.9100
 1.6120	54.7600
 1.6160	54.5800
 1.6200	54.5300
 1.6240	54.4000
 1.6280	54.2300
 1.6320	54.0900
 1.6360	53.9600
 1.6400	53.7800
 1.6440	53.5900
 1.6480	53.4200
 1.6520	53.3900
 1.6560	53.1900
 1.6600	53.1900
 1.6640	53.1200
 1.6680	52.9800
 1.6720	52.9000
 1.6760	52.7400
 1.6800	52.6200
 1.6840	52.5600
 1.6880	52.4100
 1.6920	52.3700
 1.6960	52.2900
 1.7000	52.1500
 1.7040	52.0100
 1.7080	51.8800
 1.7120	51.7200
 1.7160	51.7100
 1.7200	51.5300
 1.7240	51.4800
 1.7280	51.3600
 1.7320	51.1900
 1.7360	51.1300
 1.7400	50.9500
 1.7440	50.7400
 1.7480	50.4200
 1.7520	50.2100
 1.7560	49.9800
 1.7600	49.6300
 1.7640	49.4400
 1.7680	49.1400
 1.7720	48.9500
 1.7760	48.9200
 1.7800	48.9000
 1.7840	48.9300
 1.7880	48.9800
 1.7920	49.0300
 1.7960	49.0600
 1.8000	49.0800
 1.8040	49.0800
 1.8080	49.0600
 1.8120	48.9900
 1.8160	48.9900
 1.8200	48.9800
 1.8240	48.9400
 1.8280	48.8700
 1.8320	48.8200
 1.8360	48.6300
 1.8400	48.3900
 1.8440	48.0400
 1.8480	47.6100
 1.8520	46.9800
 1.8560	46.4700
 1.8600	45.4900
 1.8640	44.4100
 1.8680	42.9600
 1.8720	41.3700
 1.8760	39.6000
 1.8800	37.5300
 1.8840	35.2900
 1.8880	32.7000
 1.8920	29.9900
 1.8960	27.1100
 1.9000	24.4600
 1.9040	22.0800
 1.9080	20.1000
 1.9120	18.7000
 1.9160	17.8100
 1.9200	17.3300
 1.9240	17.1600
 1.9280	17.3400
 1.9320	17.6700
 1.9360	18.2400
 1.9400	18.7900
 1.9440	19.4600
 1.9480	20.0700
 1.9520	20.5800
 1.9560	21.1000
 1.9600	21.5800
 1.9640	22.0700
 1.9680	22.4700
 1.9720	23.1100
 1.9760	23.6900
 1.9800	24.3600
 1.9840	24.9600
 1.9880	25.5600
 1.9920	26.1600
 1.9960	26.6000
 2.0000	27.1100
 2.0040	27.4800
 2.0080	27.9300
 2.0120	28.3400
 2.0160	28.6600
 2.0200	29.0700
 2.0240	29.4200
 2.0280	29.6700
 2.0320	29.9000
 2.0360	30.0600
 2.0400	30.2700
 2.0440	30.4100
 2.0480	30.5600
 2.0520	30.7700
 2.0560	30.8800
 2.0600	30.9500
 2.0640	31.0500
 2.0680	31.1500
 2.0720	31.1900
 2.0760	31.1600
 2.0800	31.2900
 2.0840	31.1900
 2.0880	31.2000
 2.0920	31.1900
 2.0960	31.1700
 2.1000	31.0200
 2.1040	30.9100
 2.1080	30.8100
 2.1120	30.5600
 2.1160	30.3400
 2.1200	30.0800
 2.1240	29.6700
 2.1280	29.3600
 2.1320	29.1500
 2.1360	28.9300
 2.1400	28.8900
 2.1440	28.9500
 2.1480	29.1800
 2.1520	29.5800
 2.1560	30.0100
 2.1600	30.6200
 2.1640	31.0700
 2.1680	31.4800
 2.1720	31.9300
 2.1760	32.2300
 2.1800	32.5200
 2.1840	32.7200
 2.1880	32.8900
 2.1920	32.9100
 2.1960	33.0300
 2.2000	33.0200
 2.2040	32.8800
 2.2080	32.8600
 2.2120	32.7700
 2.2160	32.6300
 2.2200	32.5300
 2.2240	32.3600
 2.2280	32.2700
 2.2320	32.1900
 2.2360	32.0600
 2.2400	31.8600
 2.2440	31.7800
 2.2480	31.6600
 2.2520	31.5300
 2.2560	31.4400
 2.2600	31.5400
 2.2640	31.4900
 2.2680	31.6000
 2.2720	31.6300
 2.2760	31.6700
 2.2800	31.7600
 2.2840	31.7400
 2.2880	31.9500
 2.2920	31.9500
 2.2960	32.0300
 2.3000	32.1100
 2.3040	32.0000
 2.3080	32.0900
 2.3120	32.0600
 2.3160	32.1200
 2.3200	32.1100
 2.3240	31.9300
 2.3280	31.8000
 2.3320	31.6000
 2.3360	31.4100
 2.3400	31.1700
 2.3440	30.8900
 2.3480	30.6200
 2.3520	30.2000
 2.3560	29.8500
 2.3600	29.3200
 2.3640	28.8400
 2.3680	28.3100
 2.3720	27.6900
 2.3760	27.0700
 2.3800	26.4800
 2.3840	25.8400
 2.3880	25.0700
 2.3920	24.4300
 2.3960	23.8200
 2.4000	23.1300
 2.4040	22.4000
 2.4080	21.7400
 2.4120	21.0400
 2.4160	20.4500
 2.4200	19.9200
 2.4240	19.4500
 2.4280	19.1600
 2.4320	18.8000
 2.4360	18.4400
 2.4400	18.2100
 2.4440	17.9100
 2.4480	17.7100
 2.4520	17.4500
 2.4560	17.2100
 2.4600	17.0200
 2.4640	16.8600
 2.4680	16.5800
 2.4720	16.4200
 2.4760	16.0500
 2.4800	15.8900
 2.4840	15.6300
 2.4880	15.4400
 2.4920	15.2700
 2.4960	15.0700
 2.5000	15.0500
