Name: Sodalite Na_8Al_6Si_6O_24Cl_2
Type: Mineral
Class: Silicate
Subclass: Tectosilicate
Particle Size: Coarse
Sample No.: TS-10A
Owner: JPL
Wavelength Range: VSWIR
Origin: Canada, Ontario, Hastings County, Bancroft
Collection Date: N/A
Description: Particle size was 125-500um.Collected by JPL Original ASTER Spectral Library name was jpl.beckman.mineral.silicate.tectosilicate.coarse.ts10a.spectrum.txt
Measurement: Hemispherical reflectance
First Column: X
Second Column: Y
X Units: Wavelength (micrometers)
Y Units:Reflectance (percent)
First X Value:  0.4000
Last X Value:  2.5000
Number of X Values: 826
Additional Information: mineral.silicate.tectosilicate.coarse.vswir.ts-10a.jpl.beckman.ancillary.txt

 0.4000	38.1700
 0.4010	38.3700
 0.4020	38.3500
 0.4030	38.4600
 0.4040	38.7800
 0.4050	38.7800
 0.4060	38.8300
 0.4070	38.7700
 0.4080	38.9000
 0.4090	39.0400
 0.4100	39.0900
 0.4110	39.0700
 0.4120	39.0800
 0.4130	39.0800
 0.4140	39.1900
 0.4150	39.1400
 0.4160	39.1600
 0.4170	39.1300
 0.4180	39.3100
 0.4190	39.2400
 0.4200	39.2400
 0.4210	39.0900
 0.4220	39.0700
 0.4230	39.2700
 0.4240	39.1900
 0.4250	39.1700
 0.4260	39.1000
 0.4270	39.1000
 0.4280	39.1400
 0.4290	39.0200
 0.4300	38.9800
 0.4310	38.8800
 0.4320	39.0100
 0.4330	38.9600
 0.4340	38.9000
 0.4350	38.7000
 0.4360	38.7900
 0.4370	38.8400
 0.4380	38.7200
 0.4390	38.6300
 0.4400	38.5000
 0.4410	38.5400
 0.4420	38.4900
 0.4430	38.3200
 0.4440	38.2200
 0.4450	38.0700
 0.4460	38.1900
 0.4470	38.0500
 0.4480	37.9300
 0.4490	37.7700
 0.4500	37.7900
 0.4510	37.7900
 0.4520	37.6600
 0.4530	37.5700
 0.4540	37.3100
 0.4550	37.2900
 0.4560	37.2700
 0.4570	37.0000
 0.4580	36.9100
 0.4590	36.8700
 0.4600	36.9100
 0.4610	36.4300
 0.4620	36.4000
 0.4630	36.2800
 0.4640	36.2200
 0.4650	36.1500
 0.4660	35.9200
 0.4670	35.7900
 0.4680	35.6700
 0.4690	35.6600
 0.4700	35.5500
 0.4710	35.3600
 0.4720	35.1600
 0.4730	35.1300
 0.4740	35.0200
 0.4750	34.7700
 0.4760	34.5900
 0.4770	34.4600
 0.4780	34.4500
 0.4790	34.3800
 0.4800	34.1000
 0.4810	34.0700
 0.4820	33.9500
 0.4830	33.9000
 0.4840	33.7400
 0.4850	33.4100
 0.4860	33.4100
 0.4870	33.3100
 0.4880	33.1900
 0.4890	33.0700
 0.4900	32.8400
 0.4910	32.8500
 0.4920	32.7300
 0.4930	32.5500
 0.4940	32.4000
 0.4950	32.2600
 0.4960	32.2900
 0.4970	32.1200
 0.4980	32.0300
 0.4990	31.8200
 0.5000	31.8000
 0.5010	31.7000
 0.5020	31.3900
 0.5030	31.3100
 0.5040	31.2500
 0.5050	31.1900
 0.5060	31.1000
 0.5070	30.8200
 0.5080	30.7100
 0.5090	30.5600
 0.5100	30.6500
 0.5110	30.6000
 0.5120	30.2500
 0.5130	30.2700
 0.5140	30.1200
 0.5150	30.0600
 0.5160	29.9200
 0.5170	29.7300
 0.5180	29.7600
 0.5190	29.7400
 0.5200	29.5900
 0.5210	29.3900
 0.5220	29.3500
 0.5230	29.3300
 0.5240	29.2200
 0.5250	29.1200
 0.5260	28.8400
 0.5270	28.8800
 0.5280	28.7400
 0.5290	28.6500
 0.5300	28.5200
 0.5310	28.3200
 0.5320	28.3300
 0.5330	28.2400
 0.5340	28.1200
 0.5350	27.9000
 0.5360	27.9000
 0.5370	27.9500
 0.5380	27.7900
 0.5390	27.7600
 0.5400	27.6000
 0.5410	27.5700
 0.5420	27.5400
 0.5430	27.3600
 0.5440	27.3200
 0.5450	27.2700
 0.5460	27.2600
 0.5470	27.2100
 0.5480	27.0000
 0.5490	26.9100
 0.5500	26.9100
 0.5510	26.9300
 0.5520	26.8500
 0.5530	26.7300
 0.5540	26.6600
 0.5550	26.6100
 0.5560	26.5800
 0.5570	26.4300
 0.5580	26.3800
 0.5590	26.2900
 0.5600	26.4200
 0.5610	26.4600
 0.5620	26.2500
 0.5630	26.1600
 0.5640	26.1500
 0.5650	26.2100
 0.5660	26.1400
 0.5670	25.9200
 0.5680	25.9300
 0.5690	25.8400
 0.5700	25.7900
 0.5710	25.7200
 0.5720	25.4800
 0.5730	25.4600
 0.5740	25.5000
 0.5750	25.3500
 0.5760	25.1700
 0.5770	25.1400
 0.5780	25.2100
 0.5790	25.2000
 0.5800	25.0900
 0.5810	25.0000
 0.5820	24.9300
 0.5830	25.0300
 0.5840	24.9000
 0.5850	24.8900
 0.5860	24.8400
 0.5870	24.9300
 0.5880	24.8400
 0.5890	24.7500
 0.5900	24.6900
 0.5910	24.7500
 0.5920	24.8400
 0.5930	24.7700
 0.5940	24.6300
 0.5950	24.6300
 0.5960	24.6300
 0.5970	24.7500
 0.5980	24.6500
 0.5990	24.6500
 0.6000	24.7400
 0.6010	24.8800
 0.6020	24.9500
 0.6030	24.7800
 0.6040	24.9200
 0.6050	24.9600
 0.6060	25.0900
 0.6070	25.1600
 0.6080	25.0300
 0.6090	25.1400
 0.6100	25.1700
 0.6110	25.3200
 0.6120	25.3200
 0.6130	25.2700
 0.6140	25.4500
 0.6150	25.5500
 0.6160	25.4600
 0.6170	25.3800
 0.6180	25.4800
 0.6190	25.5800
 0.6200	25.6800
 0.6210	25.6600
 0.6220	25.6200
 0.6230	25.6800
 0.6240	25.8800
 0.6250	25.8100
 0.6260	25.8300
 0.6270	25.8200
 0.6280	25.9600
 0.6290	26.0000
 0.6300	25.9500
 0.6310	25.9500
 0.6320	26.0000
 0.6330	26.1500
 0.6340	26.1500
 0.6350	26.0300
 0.6360	26.0800
 0.6370	26.1300
 0.6380	26.1800
 0.6390	26.1800
 0.6400	26.1400
 0.6410	26.2500
 0.6420	26.3400
 0.6430	26.2800
 0.6440	26.2400
 0.6450	26.3300
 0.6460	26.5200
 0.6470	26.5800
 0.6480	26.5200
 0.6490	26.5200
 0.6500	26.6300
 0.6510	26.8500
 0.6520	26.7200
 0.6530	26.8500
 0.6540	26.9300
 0.6550	27.1000
 0.6560	27.1600
 0.6570	27.1300
 0.6580	27.2200
 0.6590	27.3200
 0.6600	27.4800
 0.6610	27.6100
 0.6620	27.6900
 0.6630	27.6700
 0.6640	27.7500
 0.6650	28.0200
 0.6660	28.0700
 0.6670	28.2300
 0.6680	28.2500
 0.6690	28.5200
 0.6700	28.6700
 0.6710	28.7600
 0.6720	28.8300
 0.6730	29.0000
 0.6740	29.2400
 0.6750	29.3900
 0.6760	29.5800
 0.6770	29.7200
 0.6780	29.9300
 0.6790	30.2800
 0.6800	30.3000
 0.6810	30.6100
 0.6820	30.7300
 0.6830	31.0600
 0.6840	31.2900
 0.6850	31.5400
 0.6860	31.6700
 0.6870	32.0200
 0.6880	32.4700
 0.6890	32.7200
 0.6900	32.9200
 0.6910	33.1900
 0.6920	33.4900
 0.6930	33.8600
 0.6940	34.1600
 0.6950	34.5000
 0.6960	34.8300
 0.6970	35.2300
 0.6980	35.6200
 0.6990	35.8500
 0.7000	35.9200
 0.7010	36.0800
 0.7020	37.2300
 0.7030	37.5800
 0.7040	37.9500
 0.7050	38.5700
 0.7060	38.8900
 0.7070	39.1900
 0.7080	39.7700
 0.7090	40.2500
 0.7100	40.8100
 0.7110	41.2200
 0.7120	41.5800
 0.7130	42.0600
 0.7140	42.6500
 0.7150	42.9900
 0.7160	43.3400
 0.7170	43.7600
 0.7180	44.1800
 0.7190	44.6400
 0.7200	45.0200
 0.7210	45.3900
 0.7220	45.9000
 0.7230	46.3700
 0.7240	46.7700
 0.7250	47.0600
 0.7260	47.3900
 0.7270	47.9100
 0.7280	48.2900
 0.7290	48.6000
 0.7300	48.8600
 0.7310	49.2000
 0.7320	49.5500
 0.7330	49.9200
 0.7340	50.2400
 0.7350	50.3600
 0.7360	50.8500
 0.7370	51.0800
 0.7380	51.3000
 0.7390	51.5300
 0.7400	51.7900
 0.7410	52.1600
 0.7420	52.4600
 0.7430	52.6300
 0.7440	52.7800
 0.7450	53.0200
 0.7460	53.3800
 0.7470	53.4600
 0.7480	53.6400
 0.7490	53.9200
 0.7500	54.2100
 0.7510	54.4500
 0.7520	54.5900
 0.7530	54.6900
 0.7540	54.8500
 0.7550	55.0900
 0.7560	55.2300
 0.7570	55.2700
 0.7580	55.4400
 0.7590	55.5800
 0.7600	55.7500
 0.7610	55.9000
 0.7620	55.9100
 0.7630	56.2000
 0.7640	56.3600
 0.7650	56.5000
 0.7660	56.4900
 0.7670	56.6000
 0.7680	56.8600
 0.7690	56.9300
 0.7700	57.0500
 0.7710	57.0000
 0.7720	57.1600
 0.7730	57.3000
 0.7740	57.3000
 0.7750	57.3600
 0.7760	57.4600
 0.7770	57.6700
 0.7780	57.7100
 0.7790	57.7500
 0.7800	57.7200
 0.7810	57.7900
 0.7820	58.0700
 0.7830	58.0500
 0.7840	58.1400
 0.7850	58.1100
 0.7860	58.1600
 0.7870	58.3300
 0.7880	58.2100
 0.7890	58.2600
 0.7900	58.3800
 0.7910	58.4800
 0.7920	58.5000
 0.7930	58.5600
 0.7940	58.5800
 0.7950	58.7100
 0.7960	58.7900
 0.7970	58.7900
 0.7980	58.6900
 0.7990	58.7400
 0.8000	59.1900
 0.8040	59.3800
 0.8080	59.5600
 0.8120	59.5600
 0.8160	59.7800
 0.8200	59.8300
 0.8240	59.8700
 0.8280	59.9700
 0.8320	60.0300
 0.8360	60.1100
 0.8400	60.1400
 0.8440	60.1300
 0.8480	60.1800
 0.8520	60.1300
 0.8560	60.2000
 0.8600	60.2000
 0.8640	60.2400
 0.8680	60.2000
 0.8720	60.2000
 0.8760	60.2200
 0.8800	60.0800
 0.8840	60.1400
 0.8880	60.0600
 0.8920	60.0000
 0.8960	60.0000
 0.9000	59.9800
 0.9040	59.9100
 0.9080	59.8700
 0.9120	59.8800
 0.9160	59.8600
 0.9200	59.7800
 0.9240	59.7200
 0.9280	59.7000
 0.9320	59.7500
 0.9360	59.6400
 0.9400	59.5800
 0.9440	59.5900
 0.9480	59.5400
 0.9520	59.4000
 0.9560	59.4000
 0.9600	59.3600
 0.9640	59.3000
 0.9680	59.3100
 0.9720	59.1600
 0.9760	59.0600
 0.9800	59.0100
 0.9840	58.8900
 0.9880	58.8700
 0.9920	58.7500
 0.9960	58.7100
 1.0000	58.6900
 1.0040	58.5500
 1.0080	58.4500
 1.0120	58.5400
 1.0160	58.4100
 1.0200	58.3400
 1.0240	58.3400
 1.0280	58.3400
 1.0320	58.2700
 1.0360	58.2800
 1.0400	58.2300
 1.0440	58.1900
 1.0480	58.1100
 1.0520	58.1000
 1.0560	58.0200
 1.0600	58.0000
 1.0640	57.9800
 1.0680	58.0000
 1.0720	58.0700
 1.0760	58.1100
 1.0800	58.1400
 1.0840	58.1100
 1.0880	58.1600
 1.0920	58.2800
 1.0960	58.2500
 1.1000	58.3400
 1.1040	58.3800
 1.1080	58.3900
 1.1120	58.4800
 1.1160	58.5500
 1.1200	58.5500
 1.1240	58.8000
 1.1280	58.8100
 1.1320	58.8900
 1.1360	58.9800
 1.1400	59.1800
 1.1440	59.2200
 1.1480	59.3400
 1.1520	59.3700
 1.1560	59.4600
 1.1600	59.5300
 1.1640	59.6000
 1.1680	59.7400
 1.1720	59.7900
 1.1760	59.9000
 1.1800	60.0300
 1.1840	60.1000
 1.1880	60.2000
 1.1920	60.4000
 1.1960	60.5200
 1.2000	60.6300
 1.2040	60.6800
 1.2080	60.7600
 1.2120	60.8100
 1.2160	60.8700
 1.2200	60.9500
 1.2240	61.0500
 1.2280	61.1300
 1.2320	61.2500
 1.2360	61.3400
 1.2400	61.4400
 1.2440	61.5200
 1.2480	61.6000
 1.2520	61.7000
 1.2560	61.8100
 1.2600	61.8900
 1.2640	61.8500
 1.2680	62.0400
 1.2720	62.0400
 1.2760	62.1100
 1.2800	62.1200
 1.2840	62.1500
 1.2880	62.2000
 1.2920	62.1800
 1.2960	62.1600
 1.3000	62.2500
 1.3040	62.2800
 1.3080	62.3700
 1.3120	62.3900
 1.3160	62.4600
 1.3200	62.4500
 1.3240	62.4600
 1.3280	62.5600
 1.3320	62.4800
 1.3360	62.4100
 1.3400	62.4700
 1.3440	62.4800
 1.3480	62.5300
 1.3520	62.6100
 1.3560	62.6900
 1.3600	62.6500
 1.3640	62.6700
 1.3680	62.6100
 1.3720	62.6900
 1.3760	62.6900
 1.3800	62.6300
 1.3840	62.6100
 1.3880	62.5100
 1.3920	62.4500
 1.3960	62.3800
 1.4000	62.1500
 1.4040	62.0800
 1.4080	62.0300
 1.4120	61.9500
 1.4160	62.0200
 1.4200	62.0000
 1.4240	61.9900
 1.4280	62.0900
 1.4320	62.0900
 1.4360	62.1400
 1.4400	62.1700
 1.4440	62.2000
 1.4480	62.4300
 1.4520	62.5400
 1.4560	62.6900
 1.4600	62.7800
 1.4640	62.8800
 1.4680	62.9200
 1.4720	63.0500
 1.4760	63.1500
 1.4800	63.3300
 1.4840	63.4000
 1.4880	63.5200
 1.4920	63.6900
 1.4960	63.7300
 1.5000	63.7100
 1.5040	63.9200
 1.5080	63.9200
 1.5120	64.0100
 1.5160	64.0100
 1.5200	64.1500
 1.5240	64.2100
 1.5280	64.2600
 1.5320	64.4000
 1.5360	64.4100
 1.5400	64.4500
 1.5440	64.6000
 1.5480	64.7300
 1.5520	64.7000
 1.5560	64.8700
 1.5600	64.9200
 1.5640	65.0400
 1.5680	65.1000
 1.5720	65.1800
 1.5760	65.3300
 1.5800	65.2900
 1.5840	65.4400
 1.5880	65.5000
 1.5920	65.6200
 1.5960	65.7000
 1.6000	65.7000
 1.6040	65.7500
 1.6080	65.8700
 1.6120	65.9300
 1.6160	65.9300
 1.6200	66.0400
 1.6240	66.1900
 1.6280	66.2400
 1.6320	66.3100
 1.6360	66.3900
 1.6400	66.5200
 1.6440	66.5000
 1.6480	66.6300
 1.6520	66.7100
 1.6560	66.8600
 1.6600	66.9200
 1.6640	66.9700
 1.6680	67.0000
 1.6720	67.0900
 1.6760	67.1300
 1.6800	67.1900
 1.6840	67.2300
 1.6880	67.2700
 1.6920	67.3700
 1.6960	67.4100
 1.7000	67.5000
 1.7040	67.5500
 1.7080	67.6500
 1.7120	67.6700
 1.7160	67.8000
 1.7200	67.8200
 1.7240	67.8600
 1.7280	67.8500
 1.7320	67.8900
 1.7360	67.9700
 1.7400	67.9800
 1.7440	68.0000
 1.7480	68.0300
 1.7520	68.0000
 1.7560	68.0600
 1.7600	68.0500
 1.7640	68.1200
 1.7680	68.0800
 1.7720	68.1500
 1.7760	68.2400
 1.7800	68.2000
 1.7840	68.3300
 1.7880	68.3600
 1.7920	68.3700
 1.7960	68.3800
 1.8000	68.4000
 1.8040	68.4700
 1.8080	68.4600
 1.8120	68.4500
 1.8160	68.5400
 1.8200	68.4500
 1.8240	68.4800
 1.8280	68.5700
 1.8320	68.5300
 1.8360	68.5100
 1.8400	68.4000
 1.8440	68.4700
 1.8480	68.4700
 1.8520	68.3500
 1.8560	68.4700
 1.8600	68.3400
 1.8640	68.2500
 1.8680	68.1500
 1.8720	68.0400
 1.8760	67.8400
 1.8800	67.7200
 1.8840	67.3500
 1.8880	67.0300
 1.8920	66.5400
 1.8960	66.1200
 1.9000	65.5100
 1.9040	65.0800
 1.9080	64.7100
 1.9120	64.5300
 1.9160	64.4400
 1.9200	64.4400
 1.9240	64.6000
 1.9280	64.6900
 1.9320	64.8500
 1.9360	64.9800
 1.9400	65.1600
 1.9440	65.3500
 1.9480	65.4400
 1.9520	65.5900
 1.9560	65.7300
 1.9600	65.7700
 1.9640	65.9100
 1.9680	65.9700
 1.9720	66.1900
 1.9760	66.3400
 1.9800	66.3800
 1.9840	66.5500
 1.9880	66.6000
 1.9920	66.7400
 1.9960	66.9200
 2.0000	67.1000
 2.0040	67.1700
 2.0080	67.2500
 2.0120	67.3700
 2.0160	67.5000
 2.0200	67.6100
 2.0240	67.8000
 2.0280	67.7700
 2.0320	67.8200
 2.0360	67.9300
 2.0400	67.9300
 2.0440	67.9700
 2.0480	68.0200
 2.0520	68.0400
 2.0560	68.1500
 2.0600	68.2000
 2.0640	68.2400
 2.0680	68.2900
 2.0720	68.3200
 2.0760	68.4100
 2.0800	68.4000
 2.0840	68.4100
 2.0880	68.3500
 2.0920	68.2900
 2.0960	68.2700
 2.1000	68.1500
 2.1040	68.1200
 2.1080	68.0900
 2.1120	68.0000
 2.1160	67.9400
 2.1200	67.7600
 2.1240	67.6700
 2.1280	67.6000
 2.1320	67.6100
 2.1360	67.6500
 2.1400	67.5100
 2.1440	67.5800
 2.1480	67.5000
 2.1520	67.5000
 2.1560	67.5600
 2.1600	67.4100
 2.1640	67.4600
 2.1680	67.4200
 2.1720	67.3900
 2.1760	67.3300
 2.1800	67.3400
 2.1840	67.2300
 2.1880	67.1200
 2.1920	67.0800
 2.1960	67.0200
 2.2000	66.9200
 2.2040	66.8700
 2.2080	66.8500
 2.2120	66.6900
 2.2160	66.6600
 2.2200	66.5800
 2.2240	66.4100
 2.2280	66.2900
 2.2320	66.2200
 2.2360	66.1000
 2.2400	65.9300
 2.2440	65.6700
 2.2480	65.5600
 2.2520	65.3500
 2.2560	65.0300
 2.2600	64.9500
 2.2640	64.8300
 2.2680	64.6600
 2.2720	64.4800
 2.2760	64.2200
 2.2800	63.9600
 2.2840	63.7000
 2.2880	63.4800
 2.2920	63.2100
 2.2960	62.9600
 2.3000	62.6900
 2.3040	62.4400
 2.3080	62.3000
 2.3120	62.0100
 2.3160	61.8900
 2.3200	61.6900
 2.3240	61.5200
 2.3280	61.4000
 2.3320	61.3100
 2.3360	61.3100
 2.3400	61.3900
 2.3440	61.6900
 2.3480	61.9800
 2.3520	62.1900
 2.3560	62.4700
 2.3600	62.8700
 2.3640	63.1100
 2.3680	63.3900
 2.3720	63.5300
 2.3760	63.6600
 2.3800	63.7500
 2.3840	63.7100
 2.3880	63.7100
 2.3920	63.6700
 2.3960	63.6500
 2.4000	63.5900
 2.4040	63.4800
 2.4080	63.3900
 2.4120	63.2400
 2.4160	63.0900
 2.4200	62.8800
 2.4240	62.6100
 2.4280	62.3900
 2.4320	62.1200
 2.4360	61.8500
 2.4400	61.5500
 2.4440	61.1900
 2.4480	60.7800
 2.4520	60.4000
 2.4560	59.9500
 2.4600	59.6000
 2.4640	59.1900
 2.4680	58.8500
 2.4720	58.4100
 2.4760	57.9900
 2.4800	57.7500
 2.4840	57.5300
 2.4880	57.2400
 2.4920	56.9900
 2.4960	56.6600
 2.5000	56.3900
