Name: Celestite SrSO_4
Type: Mineral
Class: Sulfate
Subclass: None
Particle Size: Coarse
Sample No.: SO-5A
Owner: JPL
Wavelength Range: VSWIR
Origin: USA, Utah, Emery County.
Collection Date: N/A
Description: Particle size was 125-500um.Collected by:  Grieger's Inc. Original ASTER Spectral Library name was jpl.perkin.mineral.sulfate.none.coarse.so05a.spectrum.txt
Measurement: Hemispherical reflectance
First Column: X
Second Column: Y
X Units: Wavelength (micrometers)
Y Units:Reflectance (percent)
First X Value:  2.5000
Last X Value:  0.4000
Number of X Values: 2101
Additional Information: mineral.sulfate.none.coarse.vswir.so-5a.jpl.perkin.ancillary.txt

 2.5000	82.0043
 2.4990	81.7022
 2.4980	81.5943
 2.4970	81.5766
 2.4960	81.4997
 2.4950	81.6240
 2.4940	81.5510
 2.4930	81.5136
 2.4920	81.4822
 2.4910	81.6266
 2.4900	81.5806
 2.4890	81.3999
 2.4880	81.2230
 2.4870	81.3305
 2.4860	81.3925
 2.4850	81.3754
 2.4840	81.3233
 2.4830	81.1403
 2.4820	81.3080
 2.4810	81.2738
 2.4800	81.5495
 2.4790	81.3704
 2.4780	81.5007
 2.4770	81.4771
 2.4760	81.3193
 2.4750	81.4570
 2.4740	81.4784
 2.4730	81.3728
 2.4720	81.3601
 2.4710	81.4036
 2.4700	81.6068
 2.4690	81.5651
 2.4680	81.6040
 2.4670	81.5859
 2.4660	81.6067
 2.4650	81.5417
 2.4640	81.5142
 2.4630	81.6091
 2.4620	81.6243
 2.4610	81.7198
 2.4600	81.7746
 2.4590	81.5932
 2.4580	81.7758
 2.4570	81.8512
 2.4560	81.8488
 2.4550	81.8025
 2.4540	81.8457
 2.4530	82.0179
 2.4520	81.7974
 2.4510	81.8673
 2.4500	81.8937
 2.4490	81.8631
 2.4480	81.8482
 2.4470	81.9734
 2.4460	82.0236
 2.4450	81.9035
 2.4440	81.8605
 2.4430	81.9414
 2.4420	82.0262
 2.4410	82.0158
 2.4400	82.0903
 2.4390	82.0027
 2.4380	82.1701
 2.4370	82.1011
 2.4360	82.1732
 2.4350	82.1377
 2.4340	82.0696
 2.4330	82.0154
 2.4320	82.1077
 2.4310	82.1097
 2.4300	82.1088
 2.4290	82.0727
 2.4280	82.1310
 2.4270	82.1295
 2.4260	82.0843
 2.4250	82.0613
 2.4240	82.0929
 2.4230	82.1554
 2.4220	82.1278
 2.4210	82.1402
 2.4200	82.1663
 2.4190	82.2112
 2.4180	82.1566
 2.4170	82.2115
 2.4160	82.2395
 2.4150	82.1636
 2.4140	82.2566
 2.4130	82.1916
 2.4120	82.2045
 2.4110	82.2824
 2.4100	82.2908
 2.4090	82.3133
 2.4080	82.3697
 2.4070	82.2831
 2.4060	82.2342
 2.4050	82.3209
 2.4040	82.3422
 2.4030	82.3294
 2.4020	82.3566
 2.4010	82.2375
 2.4000	82.2272
 2.3990	82.2228
 2.3980	82.3807
 2.3970	82.4995
 2.3960	82.4894
 2.3950	82.3761
 2.3940	82.4276
 2.3930	82.4564
 2.3920	82.5338
 2.3910	82.6434
 2.3900	82.6016
 2.3890	82.5579
 2.3880	82.4989
 2.3870	82.5364
 2.3860	82.6060
 2.3850	82.6327
 2.3840	82.6439
 2.3830	82.6097
 2.3820	82.6232
 2.3810	82.7357
 2.3800	82.6869
 2.3790	82.7128
 2.3780	82.6705
 2.3770	82.6943
 2.3760	82.7637
 2.3750	82.7781
 2.3740	82.7461
 2.3730	82.7895
 2.3720	82.8531
 2.3710	82.8818
 2.3700	82.9221
 2.3690	82.8959
 2.3680	82.8454
 2.3670	82.8889
 2.3660	82.9350
 2.3650	82.9237
 2.3640	82.9282
 2.3630	82.9166
 2.3620	82.9462
 2.3610	82.9905
 2.3600	83.0183
 2.3590	83.0151
 2.3580	82.9939
 2.3570	83.0826
 2.3560	83.0967
 2.3550	83.0710
 2.3540	83.0594
 2.3530	83.0712
 2.3520	83.0928
 2.3510	83.1079
 2.3500	83.1346
 2.3490	83.1234
 2.3480	83.0774
 2.3470	83.1113
 2.3460	83.1908
 2.3450	83.2045
 2.3440	83.2014
 2.3430	83.2152
 2.3420	83.2806
 2.3410	83.3061
 2.3400	83.2844
 2.3390	83.2027
 2.3380	83.1427
 2.3370	83.2006
 2.3360	83.2166
 2.3350	83.2040
 2.3340	83.2283
 2.3330	83.2494
 2.3320	83.2395
 2.3310	83.2054
 2.3300	83.2417
 2.3290	83.2704
 2.3280	83.1902
 2.3270	83.1175
 2.3260	83.0575
 2.3250	83.1209
 2.3240	83.1613
 2.3230	83.1449
 2.3220	83.2168
 2.3210	83.1883
 2.3200	83.1244
 2.3190	83.1190
 2.3180	83.2165
 2.3170	83.1758
 2.3160	83.1929
 2.3150	83.1931
 2.3140	83.1559
 2.3130	83.0602
 2.3120	83.1737
 2.3110	83.1614
 2.3100	83.1292
 2.3090	83.1257
 2.3080	83.2152
 2.3070	83.2052
 2.3060	83.2210
 2.3050	83.1936
 2.3040	83.0964
 2.3030	83.1348
 2.3020	83.1745
 2.3010	83.1950
 2.3000	83.1708
 2.2990	83.2640
 2.2980	83.2282
 2.2970	83.1993
 2.2960	83.1897
 2.2950	83.1845
 2.2940	83.2068
 2.2930	83.2074
 2.2920	83.2751
 2.2910	83.2408
 2.2900	83.1746
 2.2890	83.1769
 2.2880	83.1559
 2.2870	83.1852
 2.2860	83.1903
 2.2850	83.2503
 2.2840	83.2060
 2.2830	83.2733
 2.2820	83.2471
 2.2810	83.1968
 2.2800	83.2463
 2.2790	83.2808
 2.2780	83.2441
 2.2770	83.2855
 2.2760	83.2106
 2.2750	83.3112
 2.2740	83.2768
 2.2730	83.2830
 2.2720	83.2129
 2.2710	83.2901
 2.2700	83.2542
 2.2690	83.2707
 2.2680	83.3776
 2.2670	83.2631
 2.2660	83.3163
 2.2650	83.3437
 2.2640	83.2473
 2.2630	83.2847
 2.2620	83.2001
 2.2610	83.2550
 2.2600	83.2308
 2.2590	83.3245
 2.2580	83.3345
 2.2570	83.3127
 2.2560	83.2649
 2.2550	83.3553
 2.2540	83.2931
 2.2530	83.2457
 2.2520	83.3388
 2.2510	83.3639
 2.2500	83.3473
 2.2490	83.4125
 2.2480	83.4102
 2.2470	83.3423
 2.2460	83.4040
 2.2450	83.3074
 2.2440	83.3509
 2.2430	83.2617
 2.2420	83.3504
 2.2410	83.4136
 2.2400	83.3378
 2.2390	83.4406
 2.2380	83.4040
 2.2370	83.4809
 2.2360	83.3705
 2.2350	83.4296
 2.2340	83.4260
 2.2330	83.5067
 2.2320	83.4684
 2.2310	83.4464
 2.2300	83.4127
 2.2290	83.4757
 2.2280	83.5610
 2.2270	83.5962
 2.2260	83.6014
 2.2250	83.6184
 2.2240	83.5332
 2.2230	83.5532
 2.2220	83.5053
 2.2210	83.5283
 2.2200	83.6783
 2.2190	83.6471
 2.2180	83.6832
 2.2170	83.6357
 2.2160	83.6868
 2.2150	83.6770
 2.2140	83.6740
 2.2130	83.7145
 2.2120	83.7186
 2.2110	83.8078
 2.2100	83.8933
 2.2090	83.7042
 2.2080	83.8195
 2.2070	83.8729
 2.2060	83.8779
 2.2050	83.8765
 2.2040	84.0401
 2.2030	84.0135
 2.2020	84.0127
 2.2010	83.9359
 2.2000	83.9902
 2.1990	84.0286
 2.1980	84.0479
 2.1970	84.0989
 2.1960	84.0281
 2.1950	83.9410
 2.1940	84.0731
 2.1930	84.1637
 2.1920	83.9870
 2.1910	84.0255
 2.1900	84.0957
 2.1890	84.1509
 2.1880	84.1701
 2.1870	84.2453
 2.1860	84.1686
 2.1850	84.1551
 2.1840	84.1431
 2.1830	84.2107
 2.1820	84.1461
 2.1810	84.2109
 2.1800	84.2606
 2.1790	84.2826
 2.1780	84.2483
 2.1770	84.3112
 2.1760	84.2789
 2.1750	84.3435
 2.1740	84.4163
 2.1730	84.3865
 2.1720	84.4623
 2.1710	84.5360
 2.1700	84.5108
 2.1690	84.5611
 2.1680	84.4912
 2.1670	84.5955
 2.1660	84.5671
 2.1650	84.6390
 2.1640	84.6874
 2.1630	84.7071
 2.1620	84.7607
 2.1610	84.6583
 2.1600	84.7002
 2.1590	84.8066
 2.1580	84.7901
 2.1570	84.7895
 2.1560	84.8729
 2.1550	84.9108
 2.1540	84.8217
 2.1530	84.8182
 2.1520	84.8589
 2.1510	84.9374
 2.1500	84.8984
 2.1490	84.8807
 2.1480	84.9314
 2.1470	84.9842
 2.1460	84.9512
 2.1450	84.8929
 2.1440	84.8793
 2.1430	84.8339
 2.1420	84.8977
 2.1410	84.9144
 2.1400	84.8905
 2.1390	84.8113
 2.1380	84.8116
 2.1370	84.9213
 2.1360	84.9236
 2.1350	84.8692
 2.1340	84.8539
 2.1330	84.7957
 2.1320	84.7359
 2.1310	84.7811
 2.1300	84.7612
 2.1290	84.7161
 2.1280	84.6630
 2.1270	84.5648
 2.1260	84.6410
 2.1250	84.6325
 2.1240	84.6243
 2.1230	84.4903
 2.1220	84.4422
 2.1210	84.4912
 2.1200	84.4197
 2.1190	84.3136
 2.1180	84.2637
 2.1170	84.2522
 2.1160	84.1923
 2.1150	84.1354
 2.1140	84.0585
 2.1130	84.0232
 2.1120	84.0244
 2.1110	84.0263
 2.1100	84.0248
 2.1090	83.9459
 2.1080	83.8483
 2.1070	83.8114
 2.1060	83.7510
 2.1050	83.6714
 2.1040	83.6333
 2.1030	83.6470
 2.1020	83.6662
 2.1010	83.6413
 2.1000	83.5455
 2.0990	83.5341
 2.0980	83.5344
 2.0970	83.5922
 2.0960	83.6489
 2.0950	83.6654
 2.0940	83.6076
 2.0930	83.6475
 2.0920	83.6703
 2.0910	83.6757
 2.0900	83.6722
 2.0890	83.6745
 2.0880	83.6619
 2.0870	83.6639
 2.0860	83.7112
 2.0850	83.7402
 2.0840	83.7774
 2.0830	83.7408
 2.0820	83.7189
 2.0810	83.7614
 2.0800	83.7961
 2.0790	83.7939
 2.0780	83.8185
 2.0770	83.7998
 2.0760	83.7804
 2.0750	83.8210
 2.0740	83.8388
 2.0730	83.8394
 2.0720	83.9081
 2.0710	83.8986
 2.0700	83.8779
 2.0690	83.9427
 2.0680	83.9814
 2.0670	83.9595
 2.0660	83.9619
 2.0650	83.9438
 2.0640	83.9417
 2.0630	83.9866
 2.0620	84.0298
 2.0610	84.0387
 2.0600	84.0653
 2.0590	84.0478
 2.0580	84.0563
 2.0570	84.1006
 2.0560	84.1081
 2.0550	84.0806
 2.0540	84.0609
 2.0530	84.1456
 2.0520	84.1973
 2.0510	84.1754
 2.0500	84.1959
 2.0490	84.2097
 2.0480	84.2348
 2.0470	84.1761
 2.0460	84.2040
 2.0450	84.2199
 2.0440	84.2336
 2.0430	84.2397
 2.0420	84.2541
 2.0410	84.3101
 2.0400	84.3168
 2.0390	84.2461
 2.0380	84.2764
 2.0370	84.3544
 2.0360	84.3283
 2.0350	84.2716
 2.0340	84.3128
 2.0330	84.3257
 2.0320	84.3081
 2.0310	84.3682
 2.0300	84.3608
 2.0290	84.3615
 2.0280	84.3610
 2.0270	84.3142
 2.0260	84.3498
 2.0250	84.3229
 2.0240	84.3259
 2.0230	84.3415
 2.0220	84.2810
 2.0210	84.2953
 2.0200	84.3144
 2.0190	84.3183
 2.0180	84.2804
 2.0170	84.3053
 2.0160	84.3211
 2.0150	84.3115
 2.0140	84.2947
 2.0130	84.2798
 2.0120	84.2788
 2.0110	84.3559
 2.0100	84.3164
 2.0090	84.3245
 2.0080	84.3682
 2.0070	84.3155
 2.0060	84.3562
 2.0050	84.3556
 2.0040	84.2556
 2.0030	84.3408
 2.0020	84.3243
 2.0010	84.3240
 2.0000	84.2984
 1.9990	84.2911
 1.9980	84.3158
 1.9970	84.3175
 1.9960	84.2395
 1.9950	84.2151
 1.9940	84.1829
 1.9930	84.2437
 1.9920	84.2192
 1.9910	84.1823
 1.9900	84.1752
 1.9890	84.1671
 1.9880	84.1996
 1.9870	84.1987
 1.9860	84.0895
 1.9850	84.1206
 1.9840	84.1151
 1.9830	84.1053
 1.9820	84.1234
 1.9810	84.0258
 1.9800	84.0875
 1.9790	84.0450
 1.9780	84.1094
 1.9770	84.0103
 1.9760	84.0591
 1.9750	83.9951
 1.9740	83.9506
 1.9730	83.9893
 1.9720	84.0625
 1.9710	83.9444
 1.9700	83.9654
 1.9690	84.0236
 1.9680	83.9246
 1.9670	83.9509
 1.9660	83.9303
 1.9650	83.9565
 1.9640	83.9803
 1.9630	83.9215
 1.9620	83.9700
 1.9610	83.9115
 1.9600	83.9385
 1.9590	83.9083
 1.9580	83.9097
 1.9570	83.8443
 1.9560	83.9237
 1.9550	83.9708
 1.9540	83.8969
 1.9530	83.8935
 1.9520	83.8941
 1.9510	83.8735
 1.9500	84.0074
 1.9490	84.0222
 1.9480	83.9669
 1.9470	83.9290
 1.9460	83.8348
 1.9450	83.8805
 1.9440	83.8706
 1.9430	83.9098
 1.9420	83.8989
 1.9410	83.9809
 1.9400	83.9488
 1.9390	83.9049
 1.9380	83.8741
 1.9370	83.9922
 1.9360	83.8993
 1.9350	83.8998
 1.9340	83.8333
 1.9330	83.9532
 1.9320	83.9638
 1.9310	83.8730
 1.9300	84.0066
 1.9290	83.9841
 1.9280	84.0514
 1.9270	84.0270
 1.9260	83.9332
 1.9250	84.0696
 1.9240	83.9503
 1.9230	84.0381
 1.9220	84.0680
 1.9210	84.1001
 1.9200	84.1305
 1.9190	84.0195
 1.9180	84.0122
 1.9170	84.1734
 1.9160	84.0103
 1.9150	84.2635
 1.9140	84.2720
 1.9130	84.1855
 1.9120	84.1271
 1.9110	84.2218
 1.9100	84.2119
 1.9090	84.2630
 1.9080	84.2403
 1.9070	84.2829
 1.9060	84.3081
 1.9050	84.3326
 1.9040	84.3389
 1.9030	84.4047
 1.9020	84.3692
 1.9010	84.4373
 1.9000	84.3570
 1.8990	84.3994
 1.8980	84.3292
 1.8970	84.4172
 1.8960	84.4427
 1.8950	84.4480
 1.8940	84.4724
 1.8930	84.5156
 1.8920	84.5936
 1.8910	84.5503
 1.8900	84.5192
 1.8890	84.6461
 1.8880	84.5758
 1.8870	84.6768
 1.8860	84.7239
 1.8850	84.7235
 1.8840	84.7242
 1.8830	84.6698
 1.8820	84.6385
 1.8810	84.6050
 1.8800	84.6886
 1.8790	84.7644
 1.8780	84.7814
 1.8770	84.6986
 1.8760	84.7593
 1.8750	84.7495
 1.8740	84.7554
 1.8730	84.7418
 1.8720	84.7208
 1.8710	84.8109
 1.8700	84.7915
 1.8690	84.7728
 1.8680	84.6931
 1.8670	84.8400
 1.8660	84.8369
 1.8650	84.7926
 1.8640	84.8765
 1.8630	84.8412
 1.8620	84.7591
 1.8610	84.8486
 1.8600	84.8770
 1.8590	84.9029
 1.8580	84.8770
 1.8570	84.8894
 1.8560	84.8906
 1.8550	84.8245
 1.8540	84.8716
 1.8530	84.9227
 1.8520	84.9587
 1.8510	84.8358
 1.8500	84.8829
 1.8490	84.9150
 1.8480	84.8828
 1.8470	84.9216
 1.8460	84.9928
 1.8450	84.9766
 1.8440	84.9170
 1.8430	84.8675
 1.8420	84.9295
 1.8410	84.9323
 1.8400	84.9515
 1.8390	84.9020
 1.8380	84.8857
 1.8370	84.8701
 1.8360	84.8526
 1.8350	84.8818
 1.8340	84.8791
 1.8330	84.9254
 1.8320	84.9199
 1.8310	84.9190
 1.8300	84.9362
 1.8290	84.9293
 1.8280	84.9087
 1.8270	84.9294
 1.8260	84.8707
 1.8250	84.8912
 1.8240	84.9268
 1.8230	84.9725
 1.8220	84.9795
 1.8210	84.9215
 1.8200	84.9693
 1.8190	84.9723
 1.8180	84.9333
 1.8170	84.9233
 1.8160	84.9296
 1.8150	84.9411
 1.8140	85.0218
 1.8130	84.9827
 1.8120	84.9262
 1.8110	84.9538
 1.8100	84.9322
 1.8090	84.9287
 1.8080	84.9508
 1.8070	84.9208
 1.8060	84.9352
 1.8050	84.9443
 1.8040	85.0208
 1.8030	85.0739
 1.8020	85.0167
 1.8010	84.9999
 1.8000	85.0001
 1.7990	84.9878
 1.7980	85.0045
 1.7970	84.9545
 1.7960	84.9492
 1.7950	84.9941
 1.7940	85.0484
 1.7930	85.0242
 1.7920	84.9438
 1.7910	84.9253
 1.7900	84.9633
 1.7890	84.9722
 1.7880	84.9184
 1.7870	84.9286
 1.7860	84.9665
 1.7850	84.9119
 1.7840	84.9142
 1.7830	84.9590
 1.7820	84.9465
 1.7810	84.9247
 1.7800	84.9338
 1.7790	84.9402
 1.7780	84.9100
 1.7770	84.9318
 1.7760	84.9432
 1.7750	84.9080
 1.7740	84.9788
 1.7730	84.9707
 1.7720	84.9405
 1.7710	84.9856
 1.7700	84.9355
 1.7690	84.9070
 1.7680	84.9255
 1.7670	84.8627
 1.7660	84.8969
 1.7650	84.9253
 1.7640	84.8141
 1.7630	84.8583
 1.7620	84.8933
 1.7610	84.8589
 1.7600	84.8527
 1.7590	84.9210
 1.7580	84.8920
 1.7570	84.9023
 1.7560	84.8863
 1.7550	84.8462
 1.7540	84.9117
 1.7530	84.9346
 1.7520	84.9062
 1.7510	85.0043
 1.7500	84.9869
 1.7490	84.9715
 1.7480	84.9244
 1.7470	84.9045
 1.7460	84.9377
 1.7450	84.9451
 1.7440	84.9123
 1.7430	84.9533
 1.7420	85.0039
 1.7410	85.0156
 1.7400	84.9954
 1.7390	85.0289
 1.7380	85.0080
 1.7370	84.9987
 1.7360	85.0127
 1.7350	84.9878
 1.7340	84.9705
 1.7330	85.0147
 1.7320	84.9904
 1.7310	85.0218
 1.7300	85.0579
 1.7290	85.0566
 1.7280	85.0673
 1.7270	85.0645
 1.7260	85.0372
 1.7250	85.0409
 1.7240	85.0145
 1.7230	84.9986
 1.7220	84.9923
 1.7210	84.9460
 1.7200	84.9925
 1.7190	85.0619
 1.7180	85.0534
 1.7170	85.0109
 1.7160	85.0104
 1.7150	85.0317
 1.7140	85.0022
 1.7130	84.9305
 1.7120	84.9817
 1.7110	85.0195
 1.7100	85.0328
 1.7090	85.0047
 1.7080	85.0879
 1.7070	85.0184
 1.7060	84.9416
 1.7050	84.9895
 1.7040	84.9178
 1.7030	84.9431
 1.7020	84.9628
 1.7010	84.9771
 1.7000	85.0164
 1.6990	85.0011
 1.6980	84.9255
 1.6970	84.9882
 1.6960	84.9560
 1.6950	84.9116
 1.6940	84.9130
 1.6930	84.9345
 1.6920	84.9528
 1.6910	84.9355
 1.6900	84.9883
 1.6890	84.9594
 1.6880	85.0138
 1.6870	84.9417
 1.6860	84.9465
 1.6850	85.0013
 1.6840	84.9627
 1.6830	84.9551
 1.6820	84.9856
 1.6810	84.9422
 1.6800	85.0733
 1.6790	84.9542
 1.6780	85.0322
 1.6770	84.9389
 1.6760	84.8835
 1.6750	84.9130
 1.6740	84.9729
 1.6730	84.9504
 1.6720	84.9282
 1.6710	84.9706
 1.6700	84.8273
 1.6690	84.9609
 1.6680	84.8811
 1.6670	85.0332
 1.6660	84.9764
 1.6650	84.9634
 1.6640	84.9529
 1.6630	85.0105
 1.6620	84.9124
 1.6610	84.9470
 1.6600	84.9041
 1.6590	84.8775
 1.6580	84.9194
 1.6570	84.9129
 1.6560	84.8730
 1.6550	84.9127
 1.6540	84.9611
 1.6530	84.9457
 1.6520	84.9681
 1.6510	84.9135
 1.6500	84.9294
 1.6490	84.9741
 1.6480	84.8484
 1.6470	84.9997
 1.6460	84.9056
 1.6450	84.9999
 1.6440	84.9903
 1.6430	84.9450
 1.6420	84.9945
 1.6410	84.9243
 1.6400	84.9447
 1.6390	85.0298
 1.6380	84.9975
 1.6370	85.0395
 1.6360	84.9422
 1.6350	84.8688
 1.6340	84.9115
 1.6330	85.0025
 1.6320	84.8882
 1.6310	85.0519
 1.6300	84.9384
 1.6290	84.9578
 1.6280	85.0105
 1.6270	84.9627
 1.6260	84.9638
 1.6250	84.9197
 1.6240	85.0160
 1.6230	85.0084
 1.6220	85.0060
 1.6210	84.9059
 1.6200	84.9779
 1.6190	84.9096
 1.6180	84.9134
 1.6170	84.9550
 1.6160	84.9994
 1.6150	84.9994
 1.6140	85.0333
 1.6130	85.0442
 1.6120	84.9943
 1.6110	85.0757
 1.6100	84.9089
 1.6090	85.0269
 1.6080	85.0395
 1.6070	85.0438
 1.6060	85.0078
 1.6050	85.0084
 1.6040	85.0132
 1.6030	84.9620
 1.6020	84.9300
 1.6010	84.9957
 1.6000	84.9404
 1.5990	84.9390
 1.5980	85.0139
 1.5970	85.0030
 1.5960	85.0260
 1.5950	85.0062
 1.5940	84.9482
 1.5930	85.0304
 1.5920	85.0379
 1.5910	84.9383
 1.5900	84.9338
 1.5890	84.9265
 1.5880	84.9834
 1.5870	85.0499
 1.5860	84.9698
 1.5850	84.8856
 1.5840	84.9892
 1.5830	84.9927
 1.5820	84.9346
 1.5810	84.9361
 1.5800	84.8908
 1.5790	84.9332
 1.5780	84.9310
 1.5770	84.9368
 1.5760	84.9265
 1.5750	84.9459
 1.5740	84.9088
 1.5730	84.8852
 1.5720	84.9500
 1.5710	84.9555
 1.5700	84.9845
 1.5690	84.9570
 1.5680	84.9569
 1.5670	84.9253
 1.5660	84.7956
 1.5650	84.9344
 1.5640	84.9776
 1.5630	84.8530
 1.5620	84.8605
 1.5610	84.8642
 1.5600	84.9011
 1.5590	84.9647
 1.5580	84.9322
 1.5570	84.8923
 1.5560	84.8825
 1.5550	84.9602
 1.5540	84.8862
 1.5530	84.8813
 1.5520	84.9699
 1.5510	84.9589
 1.5500	84.9747
 1.5490	84.9235
 1.5480	84.9402
 1.5470	84.9352
 1.5460	84.8878
 1.5450	84.9267
 1.5440	84.8883
 1.5430	84.9134
 1.5420	84.9364
 1.5410	84.8835
 1.5400	84.8730
 1.5390	84.8297
 1.5380	84.8735
 1.5370	84.9192
 1.5360	84.9086
 1.5350	84.8616
 1.5340	84.8632
 1.5330	84.8459
 1.5320	84.8409
 1.5310	84.8580
 1.5300	84.8710
 1.5290	84.8655
 1.5280	84.8819
 1.5270	84.8228
 1.5260	84.8716
 1.5250	84.9077
 1.5240	84.8460
 1.5230	84.8311
 1.5220	84.8412
 1.5210	84.8508
 1.5200	84.8434
 1.5190	84.8712
 1.5180	84.9151
 1.5170	84.8673
 1.5160	84.8998
 1.5150	84.9045
 1.5140	84.8580
 1.5130	84.8409
 1.5120	84.8474
 1.5110	84.8780
 1.5100	84.8290
 1.5090	84.8360
 1.5080	84.8324
 1.5070	84.8221
 1.5060	84.8219
 1.5050	84.8345
 1.5040	84.9094
 1.5030	84.9015
 1.5020	84.8915
 1.5010	84.8382
 1.5000	84.8083
 1.4990	84.8083
 1.4980	84.8243
 1.4970	84.8755
 1.4960	84.8167
 1.4950	84.7532
 1.4940	84.7669
 1.4930	84.7768
 1.4920	84.7882
 1.4910	84.7799
 1.4900	84.7893
 1.4890	84.8288
 1.4880	84.8463
 1.4870	84.8206
 1.4860	84.8194
 1.4850	84.7935
 1.4840	84.7739
 1.4830	84.7644
 1.4820	84.7789
 1.4810	84.7589
 1.4800	84.7799
 1.4790	84.7890
 1.4780	84.7117
 1.4770	84.7037
 1.4760	84.7830
 1.4750	84.7742
 1.4740	84.8348
 1.4730	84.8313
 1.4720	84.8221
 1.4710	84.8229
 1.4700	84.8110
 1.4690	84.8177
 1.4680	84.8224
 1.4670	84.7745
 1.4660	84.7473
 1.4650	84.7520
 1.4640	84.7453
 1.4630	84.7151
 1.4620	84.6810
 1.4610	84.7192
 1.4600	84.7793
 1.4590	84.7445
 1.4580	84.7310
 1.4570	84.7428
 1.4560	84.7798
 1.4550	84.8249
 1.4540	84.8770
 1.4530	84.8116
 1.4520	84.7746
 1.4510	84.7635
 1.4500	84.7715
 1.4490	84.7462
 1.4480	84.6971
 1.4470	84.7229
 1.4460	84.7855
 1.4450	84.7365
 1.4440	84.6970
 1.4430	84.6724
 1.4420	84.7538
 1.4410	84.7386
 1.4400	84.7430
 1.4390	84.6640
 1.4380	84.7707
 1.4370	84.7084
 1.4360	84.7259
 1.4350	84.7150
 1.4340	84.7654
 1.4330	84.7523
 1.4320	84.6984
 1.4310	84.7198
 1.4300	84.7153
 1.4290	84.7253
 1.4280	84.7428
 1.4270	84.6544
 1.4260	84.7633
 1.4250	84.6442
 1.4240	84.6959
 1.4230	84.7590
 1.4220	84.7028
 1.4210	84.6498
 1.4200	84.7723
 1.4190	84.6869
 1.4180	84.7444
 1.4170	84.7308
 1.4160	84.7843
 1.4150	84.7105
 1.4140	84.7516
 1.4130	84.7240
 1.4120	84.7127
 1.4110	84.7078
 1.4100	84.7654
 1.4090	84.6903
 1.4080	84.7915
 1.4070	84.7597
 1.4060	84.7330
 1.4050	84.7224
 1.4040	84.8299
 1.4030	84.7437
 1.4020	84.8088
 1.4010	84.7820
 1.4000	84.7796
 1.3990	84.7596
 1.3980	84.8108
 1.3970	84.7490
 1.3960	84.8294
 1.3950	84.8850
 1.3940	84.9276
 1.3930	84.8024
 1.3920	84.7858
 1.3910	84.8241
 1.3900	84.8175
 1.3890	84.7992
 1.3880	84.8545
 1.3870	84.7674
 1.3860	84.7896
 1.3850	84.6971
 1.3840	84.8317
 1.3830	84.7785
 1.3820	84.8370
 1.3810	84.8067
 1.3800	84.7420
 1.3790	84.7610
 1.3780	84.8415
 1.3770	84.8888
 1.3760	84.8632
 1.3750	84.7666
 1.3740	84.8391
 1.3730	84.7793
 1.3720	84.7715
 1.3710	84.8233
 1.3700	84.8351
 1.3690	84.9000
 1.3680	84.6952
 1.3670	84.7635
 1.3660	84.7654
 1.3650	84.7777
 1.3640	84.7437
 1.3630	84.8476
 1.3620	84.8148
 1.3610	84.6927
 1.3600	84.8499
 1.3590	84.7666
 1.3580	84.7360
 1.3570	84.8092
 1.3560	84.8378
 1.3550	84.6715
 1.3540	84.7703
 1.3530	84.7808
 1.3520	84.7596
 1.3510	84.7446
 1.3500	84.7266
 1.3490	84.8146
 1.3480	84.7664
 1.3470	84.7656
 1.3460	84.8000
 1.3450	84.6980
 1.3440	84.7694
 1.3430	84.8900
 1.3420	84.8241
 1.3410	84.7145
 1.3400	84.7784
 1.3390	84.7443
 1.3380	84.7318
 1.3370	84.7759
 1.3360	84.7929
 1.3350	84.6624
 1.3340	84.7977
 1.3330	84.7430
 1.3320	84.7961
 1.3310	84.7284
 1.3300	84.7806
 1.3290	84.8830
 1.3280	84.7656
 1.3270	84.6983
 1.3260	84.7577
 1.3250	84.6747
 1.3240	84.8180
 1.3230	84.7290
 1.3220	84.8011
 1.3210	84.7320
 1.3200	84.7850
 1.3190	84.8110
 1.3180	84.7113
 1.3170	84.7579
 1.3160	84.7076
 1.3150	84.7088
 1.3140	84.7985
 1.3130	84.7014
 1.3120	84.7047
 1.3110	84.7312
 1.3100	84.7222
 1.3090	84.7634
 1.3080	84.7535
 1.3070	84.6384
 1.3060	84.7454
 1.3050	84.7751
 1.3040	84.7326
 1.3030	84.7419
 1.3020	84.7061
 1.3010	84.7046
 1.3000	84.6463
 1.2990	84.7319
 1.2980	84.6753
 1.2970	84.7273
 1.2960	84.7515
 1.2950	84.7394
 1.2940	84.7304
 1.2930	84.7124
 1.2920	84.7654
 1.2910	84.7113
 1.2900	84.7508
 1.2890	84.7290
 1.2880	84.7316
 1.2870	84.6783
 1.2860	84.6920
 1.2850	84.6836
 1.2840	84.7031
 1.2830	84.6935
 1.2820	84.7636
 1.2810	84.7023
 1.2800	84.6769
 1.2790	84.7278
 1.2780	84.7473
 1.2770	84.7653
 1.2760	84.7243
 1.2750	84.6992
 1.2740	84.7631
 1.2730	84.7306
 1.2720	84.6489
 1.2710	84.6137
 1.2700	84.5985
 1.2690	84.6532
 1.2680	84.7170
 1.2670	84.6767
 1.2660	84.6875
 1.2650	84.7215
 1.2640	84.6712
 1.2630	84.6742
 1.2620	84.6850
 1.2610	84.6540
 1.2600	84.6153
 1.2590	84.5660
 1.2580	84.6423
 1.2570	84.6521
 1.2560	84.5995
 1.2550	84.7011
 1.2540	84.7257
 1.2530	84.6670
 1.2520	84.6547
 1.2510	84.7071
 1.2500	84.7049
 1.2490	84.6822
 1.2480	84.6625
 1.2470	84.6336
 1.2460	84.5963
 1.2450	84.6777
 1.2440	84.7260
 1.2430	84.7155
 1.2420	84.6866
 1.2410	84.6985
 1.2400	84.6491
 1.2390	84.6223
 1.2380	84.6556
 1.2370	84.6434
 1.2360	84.6127
 1.2350	84.6090
 1.2340	84.6096
 1.2330	84.5766
 1.2320	84.6409
 1.2310	84.6489
 1.2300	84.6047
 1.2290	84.6500
 1.2280	84.6914
 1.2270	84.6702
 1.2260	84.6031
 1.2250	84.5820
 1.2240	84.6301
 1.2230	84.6367
 1.2220	84.5985
 1.2210	84.5776
 1.2200	84.5669
 1.2190	84.5759
 1.2180	84.6139
 1.2170	84.6016
 1.2160	84.5679
 1.2150	84.6014
 1.2140	84.6329
 1.2130	84.5717
 1.2120	84.5809
 1.2110	84.6429
 1.2100	84.6185
 1.2090	84.5904
 1.2080	84.5803
 1.2070	84.5847
 1.2060	84.6165
 1.2050	84.5661
 1.2040	84.5679
 1.2030	84.5875
 1.2020	84.5311
 1.2010	84.5271
 1.2000	84.5862
 1.1990	84.6011
 1.1980	84.6145
 1.1970	84.5541
 1.1960	84.5293
 1.1950	84.5483
 1.1940	84.5998
 1.1930	84.6496
 1.1920	84.5982
 1.1910	84.5889
 1.1900	84.6211
 1.1890	84.6170
 1.1880	84.5512
 1.1870	84.6299
 1.1860	84.5960
 1.1850	84.6117
 1.1840	84.6411
 1.1830	84.6236
 1.1820	84.5760
 1.1810	84.5770
 1.1800	84.5979
 1.1790	84.5771
 1.1780	84.5454
 1.1770	84.6054
 1.1760	84.5824
 1.1750	84.5491
 1.1740	84.6260
 1.1730	84.6573
 1.1720	84.6285
 1.1710	84.5757
 1.1700	84.4987
 1.1690	84.5193
 1.1680	84.5375
 1.1670	84.5370
 1.1660	84.5063
 1.1650	84.5089
 1.1640	84.5157
 1.1630	84.5732
 1.1620	84.5978
 1.1610	84.5577
 1.1600	84.5717
 1.1590	84.5710
 1.1580	84.5548
 1.1570	84.5418
 1.1560	84.5780
 1.1550	84.5693
 1.1540	84.5338
 1.1530	84.6239
 1.1520	84.5996
 1.1510	84.6172
 1.1500	84.6043
 1.1490	84.5687
 1.1480	84.5458
 1.1470	84.6175
 1.1460	84.5806
 1.1450	84.5522
 1.1440	84.5600
 1.1430	84.5293
 1.1420	84.5453
 1.1410	84.5746
 1.1400	84.5667
 1.1390	84.5780
 1.1380	84.4963
 1.1370	84.5878
 1.1360	84.5240
 1.1350	84.5961
 1.1340	84.6146
 1.1330	84.5767
 1.1320	84.5117
 1.1310	84.6443
 1.1300	84.5890
 1.1290	84.6589
 1.1280	84.6092
 1.1270	84.5964
 1.1260	84.6214
 1.1250	84.5770
 1.1240	84.5730
 1.1230	84.5968
 1.1220	84.4990
 1.1210	84.5464
 1.1200	84.5638
 1.1190	84.5434
 1.1180	84.5775
 1.1170	84.5871
 1.1160	84.5846
 1.1150	84.5032
 1.1140	84.5607
 1.1130	84.6366
 1.1120	84.5154
 1.1110	84.4702
 1.1100	84.6063
 1.1090	84.6284
 1.1080	84.6421
 1.1070	84.5557
 1.1060	84.6349
 1.1050	84.5513
 1.1040	84.5579
 1.1030	84.5904
 1.1020	84.5500
 1.1010	84.6207
 1.1000	84.5890
 1.0990	84.5393
 1.0980	84.5953
 1.0970	84.6052
 1.0960	84.5965
 1.0950	84.5225
 1.0940	84.5583
 1.0930	84.5948
 1.0920	84.4905
 1.0910	84.5221
 1.0900	84.5381
 1.0890	84.5202
 1.0880	84.5051
 1.0870	84.5148
 1.0860	84.6400
 1.0850	84.5931
 1.0840	84.5097
 1.0830	84.5348
 1.0820	84.5500
 1.0810	84.5973
 1.0800	84.5840
 1.0790	84.6600
 1.0780	84.5218
 1.0770	84.5575
 1.0760	84.4749
 1.0750	84.5541
 1.0740	84.6021
 1.0730	84.6478
 1.0720	84.5739
 1.0710	84.5420
 1.0700	84.5109
 1.0690	84.4662
 1.0680	84.5199
 1.0670	84.5881
 1.0660	84.5159
 1.0650	84.5921
 1.0640	84.5620
 1.0630	84.5434
 1.0620	84.5163
 1.0610	84.5627
 1.0600	84.4798
 1.0590	84.5229
 1.0580	84.4602
 1.0570	84.4669
 1.0560	84.4425
 1.0550	84.5301
 1.0540	84.4327
 1.0530	84.5188
 1.0520	84.4994
 1.0510	84.5180
 1.0500	84.5971
 1.0490	84.5721
 1.0480	84.4412
 1.0470	84.5197
 1.0460	84.5732
 1.0450	84.5368
 1.0440	84.5261
 1.0430	84.5108
 1.0420	84.5349
 1.0410	84.5287
 1.0400	84.5602
 1.0390	84.5502
 1.0380	84.5351
 1.0370	84.5495
 1.0360	84.4830
 1.0350	84.4442
 1.0340	84.5672
 1.0330	84.4924
 1.0320	84.4663
 1.0310	84.4977
 1.0300	84.4805
 1.0290	84.5325
 1.0280	84.5348
 1.0270	84.4849
 1.0260	84.4300
 1.0250	84.4985
 1.0240	84.5309
 1.0230	84.5672
 1.0220	84.6129
 1.0210	84.5058
 1.0200	84.5032
 1.0190	84.4428
 1.0180	84.5101
 1.0170	84.5377
 1.0160	84.4892
 1.0150	84.5019
 1.0140	84.5039
 1.0130	84.5186
 1.0120	84.4635
 1.0110	84.5041
 1.0100	84.5949
 1.0090	84.4412
 1.0080	84.5652
 1.0070	84.5228
 1.0060	84.4577
 1.0050	84.5216
 1.0040	84.4952
 1.0030	84.5405
 1.0020	84.5395
 1.0010	84.5334
 1.0000	84.5116
 0.9990	84.5595
 0.9980	84.5235
 0.9970	84.5077
 0.9960	84.4905
 0.9950	84.5348
 0.9940	84.5095
 0.9930	84.5132
 0.9920	84.5326
 0.9910	84.4865
 0.9900	84.4346
 0.9890	84.4733
 0.9880	84.4748
 0.9870	84.5174
 0.9860	84.4167
 0.9850	84.5046
 0.9840	84.4856
 0.9830	84.4511
 0.9820	84.4652
 0.9810	84.5220
 0.9800	84.5198
 0.9790	84.5023
 0.9780	84.5316
 0.9770	84.5229
 0.9760	84.4166
 0.9750	84.4592
 0.9740	84.4430
 0.9730	84.4226
 0.9720	84.4152
 0.9710	84.4513
 0.9700	84.4810
 0.9690	84.5401
 0.9680	84.5378
 0.9670	84.5431
 0.9660	84.5104
 0.9650	84.4680
 0.9640	84.4191
 0.9630	84.4591
 0.9620	84.4553
 0.9610	84.4313
 0.9600	84.4608
 0.9590	84.4540
 0.9580	84.4226
 0.9570	84.4296
 0.9560	84.4573
 0.9550	84.4682
 0.9540	84.4639
 0.9530	84.4871
 0.9520	84.4779
 0.9510	84.4426
 0.9500	84.4270
 0.9490	84.4321
 0.9480	84.4806
 0.9470	84.4269
 0.9460	84.4085
 0.9450	84.4096
 0.9440	84.4228
 0.9430	84.5010
 0.9420	84.4960
 0.9410	84.4370
 0.9400	84.4361
 0.9390	84.4799
 0.9380	84.4929
 0.9370	84.4648
 0.9360	84.4306
 0.9350	84.3867
 0.9340	84.4003
 0.9330	84.4351
 0.9320	84.4870
 0.9310	84.4770
 0.9300	84.4502
 0.9290	84.4476
 0.9280	84.4581
 0.9270	84.4837
 0.9260	84.4462
 0.9250	84.4148
 0.9240	84.4766
 0.9230	84.4741
 0.9220	84.3971
 0.9210	84.4188
 0.9200	84.4228
 0.9190	84.3571
 0.9180	84.3574
 0.9170	84.4079
 0.9160	84.4204
 0.9150	84.3969
 0.9140	84.3438
 0.9130	84.3212
 0.9120	84.3851
 0.9110	84.4046
 0.9100	84.4349
 0.9090	84.4126
 0.9080	84.3432
 0.9070	84.3221
 0.9060	84.3581
 0.9050	84.3702
 0.9040	84.3072
 0.9030	84.3897
 0.9020	84.4293
 0.9010	84.3556
 0.9000	84.3596
 0.8990	84.3305
 0.8980	84.2989
 0.8970	84.3729
 0.8960	84.3436
 0.8950	84.2585
 0.8940	84.3030
 0.8930	84.2746
 0.8920	84.3187
 0.8910	84.2835
 0.8900	84.2791
 0.8890	84.2586
 0.8880	84.2975
 0.8870	84.2577
 0.8860	84.3332
 0.8850	84.2954
 0.8840	84.3088
 0.8830	84.3056
 0.8820	84.2690
 0.8810	84.2841
 0.8800	84.2528
 0.8790	84.2623
 0.8780	84.2258
 0.8770	84.2607
 0.8760	84.2363
 0.8750	84.2098
 0.8740	84.2640
 0.8730	84.2056
 0.8720	84.2298
 0.8710	84.2018
 0.8700	84.2449
 0.8690	84.2783
 0.8680	84.2057
 0.8670	84.1303
 0.8660	84.1665
 0.8650	84.2178
 0.8640	84.1808
 0.8630	84.1481
 0.8620	84.1914
 0.8610	84.1806
 0.8600	84.1242
 0.8590	84.1332
 0.8580	84.1463
 0.8570	84.0405
 0.8560	84.0443
 0.8550	84.1540
 0.8540	84.1190
 0.8530	84.1523
 0.8520	84.1190
 0.8510	84.0898
 0.8500	84.0630
 0.8490	84.0060
 0.8480	84.0193
 0.8470	84.0877
 0.8460	84.0739
 0.8450	84.0363
 0.8440	84.0861
 0.8430	84.0597
 0.8420	84.0409
 0.8410	84.0279
 0.8400	84.0271
 0.8390	84.0713
 0.8380	84.0304
 0.8370	84.0429
 0.8360	84.0181
 0.8350	84.0425
 0.8340	84.0494
 0.8330	83.9886
 0.8320	83.9111
 0.8310	84.0101
 0.8300	83.9640
 0.8290	83.9794
 0.8280	83.9729
 0.8270	83.9063
 0.8260	83.9021
 0.8250	83.8878
 0.8240	83.9376
 0.8230	83.9033
 0.8220	83.8923
 0.8210	83.8687
 0.8200	83.8626
 0.8190	83.8594
 0.8180	83.7915
 0.8170	83.8312
 0.8160	83.8122
 0.8150	83.8059
 0.8140	83.7666
 0.8130	83.7752
 0.8120	83.7485
 0.8110	83.7266
 0.8100	83.7654
 0.8090	83.7070
 0.8080	83.6835
 0.8070	83.6445
 0.8060	83.6164
 0.8050	83.5679
 0.8040	83.5710
 0.8030	83.6095
 0.8020	83.5404
 0.8010	83.5563
 0.8000	83.5264
 0.7990	83.5145
 0.7980	83.4365
 0.7970	83.3724
 0.7960	83.3395
 0.7950	83.3704
 0.7940	83.3522
 0.7930	83.3058
 0.7920	83.2712
 0.7910	83.2357
 0.7900	83.1771
 0.7890	83.2185
 0.7880	83.2230
 0.7870	83.2170
 0.7860	83.1231
 0.7850	83.1087
 0.7840	83.0544
 0.7830	83.0146
 0.7820	82.9785
 0.7810	82.9593
 0.7800	82.9725
 0.7790	82.9270
 0.7780	82.8949
 0.7770	82.8887
 0.7760	82.8609
 0.7750	82.8105
 0.7740	82.7925
 0.7730	82.7212
 0.7720	82.7431
 0.7710	82.6961
 0.7700	82.6368
 0.7690	82.6593
 0.7680	82.6290
 0.7670	82.5834
 0.7660	82.5320
 0.7650	82.5364
 0.7640	82.4596
 0.7630	82.4479
 0.7620	82.4467
 0.7610	82.4284
 0.7600	82.4077
 0.7590	82.3869
 0.7580	82.3550
 0.7570	82.2955
 0.7560	82.2856
 0.7550	82.2811
 0.7540	82.2674
 0.7530	82.1905
 0.7520	82.1380
 0.7510	82.1363
 0.7500	82.0992
 0.7490	82.0673
 0.7480	82.0695
 0.7470	82.0204
 0.7460	81.9933
 0.7450	81.9605
 0.7440	81.9520
 0.7430	81.9078
 0.7420	81.8985
 0.7410	81.8974
 0.7400	81.8085
 0.7390	81.7988
 0.7380	81.7804
 0.7370	81.7291
 0.7360	81.7006
 0.7350	81.6582
 0.7340	81.6853
 0.7330	81.6681
 0.7320	81.5969
 0.7310	81.6164
 0.7300	81.5595
 0.7290	81.5344
 0.7280	81.5034
 0.7270	81.4522
 0.7260	81.4341
 0.7250	81.4086
 0.7240	81.3857
 0.7230	81.3362
 0.7220	81.2997
 0.7210	81.2627
 0.7200	81.2478
 0.7190	81.2075
 0.7180	81.1782
 0.7170	81.1646
 0.7160	81.1225
 0.7150	81.0966
 0.7140	81.0664
 0.7130	81.0290
 0.7120	80.9824
 0.7110	80.9647
 0.7100	80.9393
 0.7090	80.9012
 0.7080	80.8801
 0.7070	80.8201
 0.7060	80.7895
 0.7050	80.7631
 0.7040	80.7428
 0.7030	80.7011
 0.7020	80.6834
 0.7010	80.6472
 0.7000	80.6133
 0.6990	80.5568
 0.6980	80.5333
 0.6970	80.4836
 0.6960	80.4647
 0.6950	80.4229
 0.6940	80.3986
 0.6930	80.3581
 0.6920	80.3201
 0.6910	80.2905
 0.6900	80.2541
 0.6890	80.2144
 0.6880	80.1723
 0.6870	80.1349
 0.6860	80.0819
 0.6850	80.0281
 0.6840	80.0210
 0.6830	79.9768
 0.6820	79.9263
 0.6810	79.8827
 0.6800	79.8450
 0.6790	79.8186
 0.6780	79.7908
 0.6770	79.7274
 0.6760	79.6876
 0.6750	79.6473
 0.6740	79.6132
 0.6730	79.5671
 0.6720	79.5097
 0.6710	79.4646
 0.6700	79.4118
 0.6690	79.3598
 0.6680	79.3178
 0.6670	79.2712
 0.6660	79.2164
 0.6650	79.1809
 0.6640	79.1207
 0.6630	79.0748
 0.6620	79.0445
 0.6610	78.9758
 0.6600	78.9297
 0.6590	78.8924
 0.6580	78.8525
 0.6570	78.8087
 0.6560	78.7609
 0.6550	78.7129
 0.6540	78.6671
 0.6530	78.6131
 0.6520	78.5546
 0.6510	78.5038
 0.6500	78.4631
 0.6490	78.4277
 0.6480	78.3710
 0.6470	78.3182
 0.6460	78.2846
 0.6450	78.2459
 0.6440	78.2066
 0.6430	78.1690
 0.6420	78.1339
 0.6410	78.0943
 0.6400	78.0508
 0.6390	78.0215
 0.6380	77.9806
 0.6370	77.9367
 0.6360	77.8954
 0.6350	77.8706
 0.6340	77.8456
 0.6330	77.8075
 0.6320	77.7762
 0.6310	77.7454
 0.6300	77.7162
 0.6290	77.6992
 0.6280	77.6758
 0.6270	77.6503
 0.6260	77.6273
 0.6250	77.6137
 0.6240	77.5957
 0.6230	77.5748
 0.6220	77.5484
 0.6210	77.5281
 0.6200	77.5165
 0.6190	77.5051
 0.6180	77.4974
 0.6170	77.4920
 0.6160	77.4797
 0.6150	77.4736
 0.6140	77.4706
 0.6130	77.4640
 0.6120	77.4667
 0.6110	77.4595
 0.6100	77.4484
 0.6090	77.4544
 0.6080	77.4665
 0.6070	77.4791
 0.6060	77.4654
 0.6050	77.4677
 0.6040	77.4636
 0.6030	77.4731
 0.6020	77.4918
 0.6010	77.5017
 0.6000	77.5156
 0.5990	77.5382
 0.5980	77.5588
 0.5970	77.5822
 0.5960	77.6071
 0.5950	77.6587
 0.5940	77.6819
 0.5930	77.6845
 0.5920	77.6943
 0.5910	77.6923
 0.5900	77.7018
 0.5890	77.7188
 0.5880	77.7398
 0.5870	77.7597
 0.5860	77.7601
 0.5850	77.7806
 0.5840	77.8143
 0.5830	77.8435
 0.5820	77.8504
 0.5810	77.8647
 0.5800	77.8845
 0.5790	77.8945
 0.5780	77.9230
 0.5770	77.9310
 0.5760	77.9590
 0.5750	77.9554
 0.5740	77.9822
 0.5730	78.0110
 0.5720	78.0239
 0.5710	78.0575
 0.5700	78.0889
 0.5690	78.1169
 0.5680	78.1223
 0.5670	78.1509
 0.5660	78.1864
 0.5650	78.2202
 0.5640	78.2420
 0.5630	78.2486
 0.5620	78.2782
 0.5610	78.2931
 0.5600	78.2893
 0.5590	78.3156
 0.5580	78.3372
 0.5570	78.3672
 0.5560	78.3849
 0.5550	78.4159
 0.5540	78.4442
 0.5530	78.4443
 0.5520	78.4773
 0.5510	78.4842
 0.5500	78.5047
 0.5490	78.5395
 0.5480	78.5630
 0.5470	78.5812
 0.5460	78.6095
 0.5450	78.6271
 0.5440	78.6283
 0.5430	78.6736
 0.5420	78.6975
 0.5410	78.7221
 0.5400	78.7367
 0.5390	78.7530
 0.5380	78.7706
 0.5370	78.7897
 0.5360	78.7880
 0.5350	78.8010
 0.5340	78.8491
 0.5330	78.8661
 0.5320	78.8758
 0.5310	78.8823
 0.5300	78.9084
 0.5290	78.9132
 0.5280	78.9356
 0.5270	78.9555
 0.5260	78.9693
 0.5250	78.9875
 0.5240	78.9867
 0.5230	79.0122
 0.5220	79.0184
 0.5210	79.0407
 0.5200	79.0514
 0.5190	79.0541
 0.5180	79.0670
 0.5170	79.1020
 0.5160	79.0850
 0.5150	79.1096
 0.5140	79.1178
 0.5130	79.1284
 0.5120	79.1279
 0.5110	79.1339
 0.5100	79.1349
 0.5090	79.1234
 0.5080	79.1525
 0.5070	79.1404
 0.5060	79.1379
 0.5050	79.1335
 0.5040	79.1196
 0.5030	79.1351
 0.5020	79.1205
 0.5010	79.1184
 0.5000	79.1069
 0.4990	79.1227
 0.4980	79.0970
 0.4970	79.1067
 0.4960	79.0709
 0.4950	79.0937
 0.4940	79.0454
 0.4930	79.0488
 0.4920	79.0674
 0.4910	79.0387
 0.4900	79.0221
 0.4890	78.9700
 0.4880	78.9898
 0.4870	78.9828
 0.4860	78.9501
 0.4850	78.9223
 0.4840	78.8900
 0.4830	78.8910
 0.4820	78.8981
 0.4810	78.8954
 0.4800	78.8915
 0.4790	78.8922
 0.4780	78.8801
 0.4770	78.8931
 0.4760	78.8881
 0.4750	78.8586
 0.4740	78.8637
 0.4730	78.8487
 0.4720	78.8474
 0.4710	78.8267
 0.4700	78.8107
 0.4690	78.7859
 0.4680	78.7775
 0.4670	78.7316
 0.4660	78.7196
 0.4650	78.7309
 0.4640	78.6994
 0.4630	78.7037
 0.4620	78.6560
 0.4610	78.6145
 0.4600	78.5860
 0.4590	78.5710
 0.4580	78.5597
 0.4570	78.5473
 0.4560	78.5187
 0.4550	78.4848
 0.4540	78.4815
 0.4530	78.4274
 0.4520	78.4110
 0.4510	78.3551
 0.4500	78.3384
 0.4490	78.3213
 0.4480	78.2515
 0.4470	78.2301
 0.4460	78.1851
 0.4450	78.1550
 0.4440	78.1140
 0.4430	78.0902
 0.4420	78.0369
 0.4410	77.9966
 0.4400	77.9776
 0.4390	77.9414
 0.4380	77.9091
 0.4370	77.9076
 0.4360	77.8471
 0.4350	77.8101
 0.4340	77.7689
 0.4330	77.7243
 0.4320	77.6955
 0.4310	77.6539
 0.4300	77.6256
 0.4290	77.5796
 0.4280	77.5276
 0.4270	77.4908
 0.4260	77.4524
 0.4250	77.4227
 0.4240	77.3839
 0.4230	77.3426
 0.4220	77.3307
 0.4210	77.3237
 0.4200	77.2797
 0.4190	77.2495
 0.4180	77.1924
 0.4170	77.1748
 0.4160	77.1269
 0.4150	77.0999
 0.4140	77.0625
 0.4130	77.0181
 0.4120	76.9841
 0.4110	76.9626
 0.4100	76.9322
 0.4090	76.9045
 0.4080	76.8669
 0.4070	76.8442
 0.4060	76.8211
 0.4050	76.8080
 0.4040	76.7723
 0.4030	76.7376
 0.4020	76.7134
 0.4010	76.6674
 0.4000	76.6406
