Name: Actinolite Ca_2(Mg,Fe^2+)_5Si_8O_22(OH)_2
Type: Mineral
Class: Silicate
Subclass: Inosilicate
Particle Size: Fine
Sample No.: IN-4A
Owner: JPL
Wavelength Range: VSWIR
Origin: USA, California, San Bernadino County, Wrightwood
Collection Date: N/A
Description: Particle size was 0-45um.Collected by Burminco Original ASTER Spectral Library name was jpl.beckman.mineral.silicate.inosilicate.fine.in04a.spectrum.txt
Measurement: Hemispherical reflectance
First Column: X
Second Column: Y
X Units: Wavelength (micrometers)
Y Units:Reflectance (percent)
First X Value:  0.4000
Last X Value:  2.5000
Number of X Values: 826
Additional Information: mineral.silicate.inosilicate.fine.vswir.in-4a.jpl.beckman.ancillary.txt

 0.4000	48.0700
 0.4010	48.1600
 0.4020	48.3100
 0.4030	48.5200
 0.4040	48.5800
 0.4050	48.7900
 0.4060	48.9600
 0.4070	49.0500
 0.4080	49.2200
 0.4090	49.3800
 0.4100	49.5000
 0.4110	49.5900
 0.4120	49.6800
 0.4130	49.7700
 0.4140	49.8000
 0.4150	50.0100
 0.4160	50.1300
 0.4170	50.3900
 0.4180	50.5700
 0.4190	50.6100
 0.4200	50.7500
 0.4210	50.9900
 0.4220	51.1100
 0.4230	51.2900
 0.4240	51.4200
 0.4250	51.6000
 0.4260	51.6800
 0.4270	51.7600
 0.4280	51.9300
 0.4290	51.9300
 0.4300	52.0800
 0.4310	52.1200
 0.4320	52.2400
 0.4330	52.4000
 0.4340	52.4900
 0.4350	52.4300
 0.4360	52.4800
 0.4370	52.5100
 0.4380	52.5700
 0.4390	52.5800
 0.4400	52.6800
 0.4410	52.7500
 0.4420	52.8200
 0.4430	52.9300
 0.4440	53.0600
 0.4450	53.1800
 0.4460	53.2200
 0.4470	53.2500
 0.4480	53.2100
 0.4490	53.2600
 0.4500	53.4600
 0.4510	53.6700
 0.4520	53.7600
 0.4530	53.7100
 0.4540	53.9200
 0.4550	54.0800
 0.4560	54.2100
 0.4570	54.3100
 0.4580	54.4600
 0.4590	54.5300
 0.4600	54.5600
 0.4610	54.7200
 0.4620	54.7400
 0.4630	54.8800
 0.4640	55.1000
 0.4650	55.0400
 0.4660	55.2800
 0.4670	55.4200
 0.4680	55.5300
 0.4690	55.6600
 0.4700	55.8900
 0.4710	55.9200
 0.4720	56.1300
 0.4730	56.2400
 0.4740	56.4700
 0.4750	56.5700
 0.4760	56.7500
 0.4770	56.8700
 0.4780	57.0900
 0.4790	57.1100
 0.4800	57.2700
 0.4810	57.3900
 0.4820	57.3900
 0.4830	57.5400
 0.4840	57.5300
 0.4850	57.6700
 0.4860	57.7100
 0.4870	57.7700
 0.4880	57.9800
 0.4890	58.1200
 0.4900	58.1800
 0.4910	58.3700
 0.4920	58.5200
 0.4930	58.6800
 0.4940	58.7100
 0.4950	58.9100
 0.4960	58.9700
 0.4970	59.0700
 0.4980	59.2100
 0.4990	59.2600
 0.5000	59.3200
 0.5010	59.3900
 0.5020	59.5000
 0.5030	59.4700
 0.5040	59.5800
 0.5050	59.7900
 0.5060	59.7700
 0.5070	59.7500
 0.5080	59.8700
 0.5090	60.1200
 0.5100	60.2500
 0.5110	60.4300
 0.5120	60.5000
 0.5130	60.5400
 0.5140	60.7700
 0.5150	60.8600
 0.5160	60.8600
 0.5170	60.8600
 0.5180	60.9800
 0.5190	60.9000
 0.5200	60.9000
 0.5210	61.1100
 0.5220	61.0700
 0.5230	61.1100
 0.5240	61.1900
 0.5250	61.3500
 0.5260	61.3100
 0.5270	61.3200
 0.5280	61.3600
 0.5290	61.4000
 0.5300	61.4300
 0.5310	61.3800
 0.5320	61.3400
 0.5330	61.3400
 0.5340	61.1700
 0.5350	61.2600
 0.5360	61.2800
 0.5370	61.2800
 0.5380	61.3800
 0.5390	61.3800
 0.5400	61.3400
 0.5410	61.2400
 0.5420	61.2000
 0.5430	61.3400
 0.5440	61.2800
 0.5450	61.3800
 0.5460	61.2900
 0.5470	61.2900
 0.5480	61.3500
 0.5490	61.3600
 0.5500	61.4200
 0.5510	61.3800
 0.5520	61.3400
 0.5530	61.2400
 0.5540	61.1900
 0.5550	61.3400
 0.5560	61.2100
 0.5570	61.2400
 0.5580	61.2600
 0.5590	61.2200
 0.5600	61.5400
 0.5610	61.5000
 0.5620	61.5400
 0.5630	61.4200
 0.5640	61.3600
 0.5650	61.3100
 0.5660	61.1300
 0.5670	61.0900
 0.5680	61.0800
 0.5690	60.9400
 0.5700	60.7900
 0.5710	60.6700
 0.5720	60.6300
 0.5730	60.4000
 0.5740	60.4200
 0.5750	60.4500
 0.5760	60.3800
 0.5770	60.3400
 0.5780	60.1500
 0.5790	60.2000
 0.5800	60.1400
 0.5810	60.1400
 0.5820	60.0400
 0.5830	59.9300
 0.5840	59.8900
 0.5850	59.7200
 0.5860	59.8200
 0.5870	59.7300
 0.5880	59.5900
 0.5890	59.6500
 0.5900	59.5400
 0.5910	59.4300
 0.5920	59.3500
 0.5930	59.2600
 0.5940	59.1500
 0.5950	59.0100
 0.5960	58.9200
 0.5970	58.9500
 0.5980	58.9300
 0.5990	58.9700
 0.6000	58.9700
 0.6010	58.9900
 0.6020	58.9500
 0.6030	58.8400
 0.6040	58.7700
 0.6050	58.5900
 0.6060	58.4500
 0.6070	58.4000
 0.6080	58.3900
 0.6090	58.2600
 0.6100	58.1500
 0.6110	58.0700
 0.6120	58.0200
 0.6130	58.0000
 0.6140	57.9200
 0.6150	57.7800
 0.6160	57.7900
 0.6170	57.6700
 0.6180	57.7000
 0.6190	57.4700
 0.6200	57.5200
 0.6210	57.4600
 0.6220	57.5000
 0.6230	57.3900
 0.6240	57.3500
 0.6250	57.3100
 0.6260	57.1600
 0.6270	57.0700
 0.6280	56.9500
 0.6290	56.7700
 0.6300	56.7400
 0.6310	56.6700
 0.6320	56.7400
 0.6330	56.7300
 0.6340	56.7200
 0.6350	56.7800
 0.6360	56.7900
 0.6370	56.7300
 0.6380	56.6600
 0.6390	56.5600
 0.6400	56.5800
 0.6410	56.5200
 0.6420	56.4200
 0.6430	56.4900
 0.6440	56.4100
 0.6450	56.4300
 0.6460	56.3400
 0.6470	56.4500
 0.6480	56.4800
 0.6490	56.3700
 0.6500	56.3400
 0.6510	56.3300
 0.6520	56.3100
 0.6530	56.4100
 0.6540	56.3900
 0.6550	56.4200
 0.6560	56.4800
 0.6570	56.4100
 0.6580	56.4300
 0.6590	56.4400
 0.6600	56.4800
 0.6610	56.4300
 0.6620	56.4100
 0.6630	56.3300
 0.6640	56.2900
 0.6650	56.3600
 0.6660	56.5700
 0.6670	56.5600
 0.6680	56.6300
 0.6690	56.7300
 0.6700	56.7600
 0.6710	56.6500
 0.6720	56.6700
 0.6730	56.7600
 0.6740	56.7900
 0.6750	56.8800
 0.6760	56.8300
 0.6770	56.7300
 0.6780	56.8800
 0.6790	56.8300
 0.6800	56.9600
 0.6810	56.9900
 0.6820	57.0300
 0.6830	57.0100
 0.6840	57.1000
 0.6850	57.0100
 0.6860	57.0900
 0.6870	57.0400
 0.6880	57.1100
 0.6890	56.9500
 0.6900	57.0000
 0.6910	57.0900
 0.6920	57.0400
 0.6930	57.0300
 0.6940	57.1600
 0.6950	57.1500
 0.6960	57.1400
 0.6970	57.0400
 0.6980	57.0600
 0.6990	57.0000
 0.7000	57.2300
 0.7010	57.4100
 0.7020	57.4100
 0.7030	57.5300
 0.7040	57.4800
 0.7050	57.5500
 0.7060	57.5200
 0.7070	57.4800
 0.7080	57.5900
 0.7090	57.5500
 0.7100	57.6700
 0.7110	57.7500
 0.7120	57.8200
 0.7130	57.8200
 0.7140	57.9700
 0.7150	57.9900
 0.7160	58.0500
 0.7170	58.1600
 0.7180	58.1300
 0.7190	58.1200
 0.7200	58.1900
 0.7210	58.2100
 0.7220	58.3400
 0.7230	58.3400
 0.7240	58.3600
 0.7250	58.3000
 0.7260	58.2500
 0.7270	58.3000
 0.7280	58.4600
 0.7290	58.4400
 0.7300	58.4900
 0.7310	58.5800
 0.7320	58.6800
 0.7330	58.7000
 0.7340	58.7000
 0.7350	58.8400
 0.7360	58.8200
 0.7370	58.9000
 0.7380	58.9100
 0.7390	58.9100
 0.7400	58.8800
 0.7410	58.9200
 0.7420	58.8000
 0.7430	58.8900
 0.7440	58.9500
 0.7450	59.0000
 0.7460	58.9700
 0.7470	59.0900
 0.7480	59.1000
 0.7490	59.1500
 0.7500	59.1500
 0.7510	59.1700
 0.7520	59.2900
 0.7530	59.2800
 0.7540	59.3100
 0.7550	59.2500
 0.7560	59.3700
 0.7570	59.4900
 0.7580	59.3700
 0.7590	59.3300
 0.7600	59.3900
 0.7610	59.4000
 0.7620	59.4000
 0.7630	59.4300
 0.7640	59.4100
 0.7650	59.4000
 0.7660	59.5300
 0.7670	59.5100
 0.7680	59.5300
 0.7690	59.4900
 0.7700	59.5500
 0.7710	59.5500
 0.7720	59.5500
 0.7730	59.5700
 0.7740	59.4800
 0.7750	59.3200
 0.7760	59.4700
 0.7770	59.5400
 0.7780	59.5800
 0.7790	59.6100
 0.7800	59.6700
 0.7810	59.7100
 0.7820	59.7500
 0.7830	59.7500
 0.7840	59.8000
 0.7850	59.8400
 0.7860	59.7600
 0.7870	59.6500
 0.7880	59.8500
 0.7890	59.8700
 0.7900	59.8800
 0.7910	59.8300
 0.7920	59.8500
 0.7930	59.7100
 0.7940	59.8200
 0.7950	59.8200
 0.7960	59.8600
 0.7970	59.8400
 0.7980	59.8600
 0.7990	59.8200
 0.8000	59.8300
 0.8040	59.8900
 0.8080	59.7500
 0.8120	59.6900
 0.8160	59.5300
 0.8200	59.4000
 0.8240	59.1800
 0.8280	59.1400
 0.8320	58.9400
 0.8360	58.8100
 0.8400	58.6800
 0.8440	58.5200
 0.8480	58.2900
 0.8520	58.1700
 0.8560	57.9700
 0.8600	57.8200
 0.8640	57.6900
 0.8680	57.4300
 0.8720	57.3200
 0.8760	57.1000
 0.8800	56.9000
 0.8840	56.7100
 0.8880	56.6700
 0.8920	56.4200
 0.8960	56.3300
 0.9000	56.1000
 0.9040	55.9400
 0.9080	55.6800
 0.9120	55.5400
 0.9160	55.3100
 0.9200	55.1400
 0.9240	54.9100
 0.9280	54.7500
 0.9320	54.4000
 0.9360	54.3000
 0.9400	53.9000
 0.9440	53.6700
 0.9480	53.3300
 0.9520	53.0300
 0.9560	52.7500
 0.9600	52.6200
 0.9640	52.2000
 0.9680	51.8800
 0.9720	51.5100
 0.9760	51.2200
 0.9800	50.7700
 0.9840	50.4900
 0.9880	50.0600
 0.9920	49.8500
 0.9960	49.6000
 1.0000	49.3200
 1.0040	49.0800
 1.0080	48.8700
 1.0120	48.7300
 1.0160	48.6400
 1.0200	48.4900
 1.0240	48.5200
 1.0280	48.5300
 1.0320	48.5900
 1.0360	48.7100
 1.0400	48.8600
 1.0440	49.1700
 1.0480	49.4700
 1.0520	49.8600
 1.0560	50.4000
 1.0600	50.9300
 1.0640	51.5800
 1.0680	52.2400
 1.0720	52.8700
 1.0760	53.5100
 1.0800	54.0700
 1.0840	54.7300
 1.0880	55.3800
 1.0920	55.8100
 1.0960	56.4000
 1.1000	56.9300
 1.1040	57.5300
 1.1080	57.8400
 1.1120	58.3300
 1.1160	58.7400
 1.1200	59.2200
 1.1240	59.6200
 1.1280	59.9700
 1.1320	60.2500
 1.1360	60.5800
 1.1400	60.8500
 1.1440	61.1600
 1.1480	61.5100
 1.1520	61.7900
 1.1560	62.0200
 1.1600	62.1900
 1.1640	62.5400
 1.1680	62.7900
 1.1720	63.1000
 1.1760	63.3400
 1.1800	63.5300
 1.1840	63.7800
 1.1880	64.0800
 1.1920	64.3200
 1.1960	64.6400
 1.2000	64.9100
 1.2040	65.1400
 1.2080	65.4000
 1.2120	65.6600
 1.2160	65.9400
 1.2200	66.2200
 1.2240	66.4900
 1.2280	66.6900
 1.2320	67.0200
 1.2360	67.3000
 1.2400	67.6000
 1.2440	67.8000
 1.2480	68.0400
 1.2520	68.4100
 1.2560	68.6000
 1.2600	68.8700
 1.2640	69.1200
 1.2680	69.3800
 1.2720	69.5900
 1.2760	69.9700
 1.2800	70.1500
 1.2840	70.4700
 1.2880	70.6700
 1.2920	70.8400
 1.2960	71.1500
 1.3000	71.4000
 1.3040	71.6000
 1.3080	71.8100
 1.3120	72.0600
 1.3160	72.2500
 1.3200	72.4700
 1.3240	72.6700
 1.3280	72.8000
 1.3320	73.0300
 1.3360	73.2100
 1.3400	73.4100
 1.3440	73.6300
 1.3480	73.7500
 1.3520	73.9300
 1.3560	74.1000
 1.3600	74.3500
 1.3640	74.2800
 1.3680	74.3900
 1.3720	74.4400
 1.3760	74.4600
 1.3800	73.7000
 1.3840	71.0000
 1.3880	67.3400
 1.3920	66.1200
 1.3960	67.8300
 1.4000	70.6800
 1.4040	73.0300
 1.4080	74.3700
 1.4120	75.2000
 1.4160	75.7600
 1.4200	76.1300
 1.4240	76.3800
 1.4280	76.5900
 1.4320	76.6900
 1.4360	76.9400
 1.4400	77.0500
 1.4440	77.1000
 1.4480	77.2300
 1.4520	77.3100
 1.4560	77.3700
 1.4600	77.4300
 1.4640	77.5900
 1.4680	77.6000
 1.4720	77.7900
 1.4760	77.7900
 1.4800	77.8600
 1.4840	77.9200
 1.4880	78.0500
 1.4920	78.1500
 1.4960	78.2900
 1.5000	78.2600
 1.5040	78.3200
 1.5080	78.4700
 1.5120	78.4600
 1.5160	78.5600
 1.5200	78.6600
 1.5240	78.6300
 1.5280	78.7700
 1.5320	78.8000
 1.5360	78.8200
 1.5400	78.9300
 1.5440	79.0000
 1.5480	79.0100
 1.5520	79.1400
 1.5560	79.1900
 1.5600	79.2600
 1.5640	79.3200
 1.5680	79.3000
 1.5720	79.4200
 1.5760	79.4800
 1.5800	79.4400
 1.5840	79.5400
 1.5880	79.6800
 1.5920	79.6300
 1.5960	79.6900
 1.6000	79.7200
 1.6040	79.6700
 1.6080	79.8700
 1.6120	79.7900
 1.6160	79.8400
 1.6200	79.8800
 1.6240	79.9200
 1.6280	80.0100
 1.6320	79.9900
 1.6360	79.9900
 1.6400	80.0900
 1.6440	80.0600
 1.6480	80.0900
 1.6520	80.2200
 1.6560	80.1700
 1.6600	80.2600
 1.6640	80.1500
 1.6680	80.2600
 1.6720	80.3500
 1.6760	80.4000
 1.6800	80.3900
 1.6840	80.3900
 1.6880	80.3900
 1.6920	80.4900
 1.6960	80.4200
 1.7000	80.4300
 1.7040	80.5900
 1.7080	80.5100
 1.7120	80.4900
 1.7160	80.5000
 1.7200	80.5000
 1.7240	80.4800
 1.7280	80.5000
 1.7320	80.3400
 1.7360	80.4100
 1.7400	80.3800
 1.7440	80.3500
 1.7480	80.3700
 1.7520	80.2800
 1.7560	80.3900
 1.7600	80.3600
 1.7640	80.2700
 1.7680	80.2700
 1.7720	80.3300
 1.7760	80.3100
 1.7800	80.3200
 1.7840	80.2600
 1.7880	80.2700
 1.7920	80.2700
 1.7960	80.2500
 1.8000	80.2400
 1.8040	80.2100
 1.8080	80.2500
 1.8120	80.2300
 1.8160	80.1400
 1.8200	80.0600
 1.8240	80.0800
 1.8280	79.9000
 1.8320	79.9700
 1.8360	79.9500
 1.8400	79.8500
 1.8440	79.7900
 1.8480	79.7300
 1.8520	79.6900
 1.8560	79.6900
 1.8600	79.5800
 1.8640	79.4500
 1.8680	79.4500
 1.8720	79.3900
 1.8760	79.2600
 1.8800	79.3000
 1.8840	79.2100
 1.8880	79.0700
 1.8920	78.9500
 1.8960	78.8500
 1.9000	78.7600
 1.9040	78.6300
 1.9080	78.5900
 1.9120	78.4900
 1.9160	78.2900
 1.9200	78.2300
 1.9240	78.1500
 1.9280	78.0300
 1.9320	77.8500
 1.9360	77.7600
 1.9400	77.7200
 1.9440	77.5500
 1.9480	77.5400
 1.9520	77.4500
 1.9560	77.3800
 1.9600	77.3300
 1.9640	77.3200
 1.9680	77.2200
 1.9720	77.2000
 1.9760	77.1500
 1.9800	76.9800
 1.9840	76.9800
 1.9880	76.9600
 1.9920	76.8800
 1.9960	76.9200
 2.0000	76.8800
 2.0040	76.7700
 2.0080	76.7800
 2.0120	76.8000
 2.0160	76.8700
 2.0200	76.8300
 2.0240	76.8400
 2.0280	76.7900
 2.0320	76.7700
 2.0360	76.6900
 2.0400	76.6400
 2.0440	76.4900
 2.0480	76.5200
 2.0520	76.3200
 2.0560	76.2900
 2.0600	76.1700
 2.0640	76.1100
 2.0680	76.0400
 2.0720	75.9200
 2.0760	75.9200
 2.0800	75.7300
 2.0840	75.5600
 2.0880	75.4900
 2.0920	75.4100
 2.0960	75.1900
 2.1000	74.9800
 2.1040	74.7900
 2.1080	74.6900
 2.1120	74.5700
 2.1160	74.4500
 2.1200	74.4000
 2.1240	74.4100
 2.1280	74.3600
 2.1320	74.3100
 2.1360	74.3100
 2.1400	74.3200
 2.1440	74.2600
 2.1480	74.2500
 2.1520	74.1700
 2.1560	74.1700
 2.1600	74.1200
 2.1640	74.0800
 2.1680	74.0200
 2.1720	73.9200
 2.1760	73.9200
 2.1800	73.8000
 2.1840	73.6800
 2.1880	73.6000
 2.1920	73.5000
 2.1960	73.4000
 2.2000	73.3500
 2.2040	73.2300
 2.2080	73.1400
 2.2120	72.9900
 2.2160	72.8300
 2.2200	72.7400
 2.2240	72.4600
 2.2280	72.1100
 2.2320	71.8200
 2.2360	71.5300
 2.2400	71.1400
 2.2440	70.8000
 2.2480	70.4900
 2.2520	70.0900
 2.2560	69.5500
 2.2600	69.0000
 2.2640	68.3800
 2.2680	67.5700
 2.2720	66.6400
 2.2760	65.6700
 2.2800	64.6500
 2.2840	63.4900
 2.2880	62.3000
 2.2920	61.3000
 2.2960	60.3900
 2.3000	59.7800
 2.3040	59.5600
 2.3080	59.8400
 2.3120	60.1500
 2.3160	60.7900
 2.3200	61.6400
 2.3240	62.7800
 2.3280	63.7800
 2.3320	64.8900
 2.3360	65.8000
 2.3400	66.5800
 2.3440	66.9600
 2.3480	67.2300
 2.3520	67.1100
 2.3560	66.7900
 2.3600	66.2600
 2.3640	65.5600
 2.3680	64.8200
 2.3720	64.0700
 2.3760	63.4600
 2.3800	63.1400
 2.3840	62.9100
 2.3880	62.9000
 2.3920	63.1600
 2.3960	63.5500
 2.4000	64.0600
 2.4040	64.5300
 2.4080	65.0600
 2.4120	65.4500
 2.4160	65.8400
 2.4200	66.0900
 2.4240	66.2800
 2.4280	66.3200
 2.4320	66.3400
 2.4360	66.3100
 2.4400	66.1500
 2.4440	66.0900
 2.4480	65.9900
 2.4520	65.8700
 2.4560	65.7900
 2.4600	65.6700
 2.4640	65.6700
 2.4680	65.5400
 2.4720	65.6600
 2.4760	65.6000
 2.4800	65.7800
 2.4840	65.9100
 2.4880	66.0300
 2.4920	66.0800
 2.4960	66.2400
 2.5000	66.3300
