Name: Prehnite Ca_2Al_2Si_3O_10(OH)_2
Type: Mineral
Class: Silicate
Subclass: Phyllosilicate
Particle Size: Fine
Sample No.: PS-21A
Owner: JPL
Wavelength Range: VSWIR
Origin: USA, Virginia, Centerville
Collection Date: N/A
Description: Particle size was 0-45um.Collected by Burminco Original ASTER Spectral Library name was jpl.beckman.mineral.silicate.phyllosilicate.fine.ps21a.spectrum.txt
Measurement: Hemispherical reflectance
First Column: X
Second Column: Y
X Units: Wavelength (micrometers)
Y Units:Reflectance (percent)
First X Value:  0.4000
Last X Value:  2.5000
Number of X Values: 826
Additional Information: mineral.silicate.phyllosilicate.fine.vswir.ps-21a.jpl.beckman.ancillary.txt

 0.4000	74.7800
 0.4010	74.7600
 0.4020	74.9300
 0.4030	74.9700
 0.4040	74.9100
 0.4050	75.1100
 0.4060	75.0500
 0.4070	75.1600
 0.4080	75.2400
 0.4090	75.2100
 0.4100	75.3000
 0.4110	75.2800
 0.4120	75.3400
 0.4130	75.3600
 0.4140	75.1700
 0.4150	75.3200
 0.4160	75.2200
 0.4170	75.3600
 0.4180	75.4000
 0.4190	75.5000
 0.4200	75.3600
 0.4210	75.2600
 0.4220	75.2800
 0.4230	75.2600
 0.4240	75.4100
 0.4250	75.5100
 0.4260	75.4400
 0.4270	75.4400
 0.4280	75.6500
 0.4290	75.6000
 0.4300	75.6400
 0.4310	75.8000
 0.4320	75.7700
 0.4330	75.9800
 0.4340	76.1500
 0.4350	76.2000
 0.4360	76.2600
 0.4370	76.4000
 0.4380	76.4100
 0.4390	76.4500
 0.4400	76.6300
 0.4410	76.5800
 0.4420	76.5800
 0.4430	76.7500
 0.4440	76.8400
 0.4450	77.0300
 0.4460	76.9800
 0.4470	76.9000
 0.4480	77.0300
 0.4490	77.0400
 0.4500	77.2200
 0.4510	77.1800
 0.4520	77.2000
 0.4530	77.2500
 0.4540	77.2800
 0.4550	77.4600
 0.4560	77.4100
 0.4570	77.3600
 0.4580	77.5200
 0.4590	77.5400
 0.4600	77.5500
 0.4610	77.6400
 0.4620	77.6900
 0.4630	77.5900
 0.4640	77.6100
 0.4650	77.7300
 0.4660	77.8500
 0.4670	77.8600
 0.4680	77.8200
 0.4690	77.9100
 0.4700	77.9000
 0.4710	77.9600
 0.4720	78.0300
 0.4730	77.9600
 0.4740	78.0400
 0.4750	78.1500
 0.4760	78.1200
 0.4770	78.2000
 0.4780	78.2000
 0.4790	78.1200
 0.4800	78.3700
 0.4810	78.3700
 0.4820	78.3900
 0.4830	78.2600
 0.4840	78.2900
 0.4850	78.4200
 0.4860	78.4300
 0.4870	78.4400
 0.4880	78.4000
 0.4890	78.3800
 0.4900	78.3700
 0.4910	78.6300
 0.4920	78.6600
 0.4930	78.5300
 0.4940	78.5600
 0.4950	78.6500
 0.4960	78.7200
 0.4970	78.6900
 0.4980	78.5600
 0.4990	78.7200
 0.5000	78.7400
 0.5010	78.8000
 0.5020	78.7700
 0.5030	78.6800
 0.5040	78.6800
 0.5050	78.7900
 0.5060	78.9000
 0.5070	78.9500
 0.5080	78.7700
 0.5090	78.8700
 0.5100	78.9300
 0.5110	79.0700
 0.5120	79.1200
 0.5130	79.0100
 0.5140	78.9800
 0.5150	79.0400
 0.5160	79.1400
 0.5170	79.2800
 0.5180	79.0300
 0.5190	79.1700
 0.5200	79.2200
 0.5210	79.2000
 0.5220	79.1800
 0.5230	79.1100
 0.5240	79.1500
 0.5250	79.1500
 0.5260	79.3100
 0.5270	79.2900
 0.5280	79.2100
 0.5290	79.1600
 0.5300	79.1700
 0.5310	79.3700
 0.5320	79.3700
 0.5330	79.1800
 0.5340	79.2100
 0.5350	79.2800
 0.5360	79.2400
 0.5370	79.3000
 0.5380	79.2400
 0.5390	79.3000
 0.5400	79.3000
 0.5410	79.4200
 0.5420	79.3600
 0.5430	79.2800
 0.5440	79.3100
 0.5450	79.4000
 0.5460	79.3700
 0.5470	79.4000
 0.5480	79.3100
 0.5490	79.3300
 0.5500	79.4700
 0.5510	79.4400
 0.5520	79.5800
 0.5530	79.4400
 0.5540	79.4500
 0.5550	79.3900
 0.5560	79.3500
 0.5570	79.4300
 0.5580	79.4200
 0.5590	79.2700
 0.5600	79.4800
 0.5610	79.8000
 0.5620	79.8500
 0.5630	79.7200
 0.5640	79.9100
 0.5650	79.8800
 0.5660	79.8400
 0.5670	79.8700
 0.5680	79.7300
 0.5690	79.7500
 0.5700	79.6900
 0.5710	79.5600
 0.5720	79.6200
 0.5730	79.5100
 0.5740	79.6000
 0.5750	79.5600
 0.5760	79.5500
 0.5770	79.6800
 0.5780	79.5400
 0.5790	79.6300
 0.5800	79.4200
 0.5810	79.5500
 0.5820	79.5600
 0.5830	79.3000
 0.5840	79.6300
 0.5850	79.4900
 0.5860	79.5400
 0.5870	79.6900
 0.5880	79.5300
 0.5890	79.5400
 0.5900	79.4800
 0.5910	79.6400
 0.5920	79.6400
 0.5930	79.5400
 0.5940	79.6300
 0.5950	79.5700
 0.5960	79.6900
 0.5970	79.8000
 0.5980	79.5100
 0.5990	79.6400
 0.6000	79.5800
 0.6010	79.7400
 0.6020	79.9700
 0.6030	79.7200
 0.6040	79.6800
 0.6050	79.7100
 0.6060	79.7600
 0.6070	79.9300
 0.6080	79.7400
 0.6090	79.6800
 0.6100	79.7600
 0.6110	79.7400
 0.6120	79.8500
 0.6130	79.7200
 0.6140	79.7000
 0.6150	79.8000
 0.6160	79.7100
 0.6170	79.8500
 0.6180	79.7100
 0.6190	79.5900
 0.6200	79.7400
 0.6210	79.6400
 0.6220	79.8600
 0.6230	79.8200
 0.6240	79.7700
 0.6250	79.7900
 0.6260	79.6100
 0.6270	79.8400
 0.6280	79.8500
 0.6290	79.7700
 0.6300	79.8900
 0.6310	79.6900
 0.6320	79.9200
 0.6330	79.9100
 0.6340	79.7800
 0.6350	79.9200
 0.6360	79.8000
 0.6370	79.8800
 0.6380	79.8600
 0.6390	79.6500
 0.6400	79.8800
 0.6410	79.7600
 0.6420	79.8900
 0.6430	79.8800
 0.6440	79.8300
 0.6450	79.9400
 0.6460	79.7200
 0.6470	79.8900
 0.6480	79.9300
 0.6490	79.9200
 0.6500	79.8900
 0.6510	79.7700
 0.6520	79.9400
 0.6530	80.0200
 0.6540	79.8900
 0.6550	80.0000
 0.6560	79.7300
 0.6570	79.9800
 0.6580	79.9300
 0.6590	79.8800
 0.6600	79.8900
 0.6610	79.7700
 0.6620	80.0200
 0.6630	80.0100
 0.6640	79.9000
 0.6650	80.1300
 0.6660	79.9300
 0.6670	80.1300
 0.6680	80.0600
 0.6690	80.0100
 0.6700	80.0900
 0.6710	79.8900
 0.6720	80.0600
 0.6730	80.0500
 0.6740	80.0000
 0.6750	80.0700
 0.6760	79.8200
 0.6770	80.0500
 0.6780	80.0600
 0.6790	79.9800
 0.6800	79.9900
 0.6810	79.8700
 0.6820	80.0400
 0.6830	80.2200
 0.6840	80.1300
 0.6850	80.1900
 0.6860	80.0100
 0.6870	80.1100
 0.6880	80.1300
 0.6890	80.0700
 0.6900	80.0700
 0.6910	79.9300
 0.6920	80.1200
 0.6930	80.2200
 0.6940	80.0400
 0.6950	80.2700
 0.6960	80.1400
 0.6970	80.2000
 0.6980	80.1600
 0.6990	80.0800
 0.7000	80.0900
 0.7010	80.0300
 0.7020	80.2100
 0.7030	80.2200
 0.7040	80.2400
 0.7050	80.1200
 0.7060	80.0600
 0.7070	80.2600
 0.7080	80.0800
 0.7090	80.1000
 0.7100	80.0800
 0.7110	80.0900
 0.7120	80.1800
 0.7130	80.1600
 0.7140	80.3300
 0.7150	80.2200
 0.7160	80.1300
 0.7170	80.2300
 0.7180	80.1400
 0.7190	80.1900
 0.7200	80.2600
 0.7210	80.2200
 0.7220	80.3100
 0.7230	80.1800
 0.7240	80.2800
 0.7250	80.1900
 0.7260	80.2100
 0.7270	80.3100
 0.7280	80.2800
 0.7290	80.3100
 0.7300	80.1500
 0.7310	80.1100
 0.7320	80.3600
 0.7330	80.1800
 0.7340	80.2300
 0.7350	80.1800
 0.7360	80.2500
 0.7370	80.3900
 0.7380	80.2700
 0.7390	80.3500
 0.7400	80.1800
 0.7410	80.1400
 0.7420	80.3200
 0.7430	80.2400
 0.7440	80.3500
 0.7450	80.3200
 0.7460	80.3200
 0.7470	80.4100
 0.7480	80.3400
 0.7490	80.3400
 0.7500	80.2500
 0.7510	80.3600
 0.7520	80.3600
 0.7530	80.2900
 0.7540	80.3100
 0.7550	80.2300
 0.7560	80.2800
 0.7570	80.3500
 0.7580	80.2900
 0.7590	80.3200
 0.7600	80.2600
 0.7610	80.3300
 0.7620	80.4200
 0.7630	80.3900
 0.7640	80.2300
 0.7650	80.1100
 0.7660	80.2000
 0.7670	80.3000
 0.7680	80.2800
 0.7690	80.3700
 0.7700	80.1900
 0.7710	80.1800
 0.7720	80.3400
 0.7730	80.2800
 0.7740	80.3800
 0.7750	80.2600
 0.7760	80.2200
 0.7770	80.4400
 0.7780	80.3500
 0.7790	80.2800
 0.7800	80.2100
 0.7810	80.2300
 0.7820	80.3000
 0.7830	80.3100
 0.7840	80.3700
 0.7850	80.2700
 0.7860	80.3500
 0.7870	80.5000
 0.7880	80.3400
 0.7890	80.3400
 0.7900	80.3600
 0.7910	80.3700
 0.7920	80.4700
 0.7930	80.3700
 0.7940	80.5300
 0.7950	80.3200
 0.7960	80.3100
 0.7970	80.4100
 0.7980	80.3900
 0.7990	80.4100
 0.8000	80.5500
 0.8040	80.5300
 0.8080	80.5500
 0.8120	80.5900
 0.8160	80.6100
 0.8200	80.6200
 0.8240	80.5800
 0.8280	80.6800
 0.8320	80.5500
 0.8360	80.6000
 0.8400	80.5900
 0.8440	80.5500
 0.8480	80.5800
 0.8520	80.5300
 0.8560	80.6000
 0.8600	80.5700
 0.8640	80.5800
 0.8680	80.5600
 0.8720	80.6400
 0.8760	80.6200
 0.8800	80.6700
 0.8840	80.6400
 0.8880	80.7200
 0.8920	80.6000
 0.8960	80.5800
 0.9000	80.5400
 0.9040	80.5100
 0.9080	80.5100
 0.9120	80.5100
 0.9160	80.5000
 0.9200	80.5100
 0.9240	80.6300
 0.9280	80.5900
 0.9320	80.6100
 0.9360	80.6200
 0.9400	80.7300
 0.9440	80.6600
 0.9480	80.5700
 0.9520	80.5800
 0.9560	80.6500
 0.9600	80.5500
 0.9640	80.6600
 0.9680	80.6200
 0.9720	80.6400
 0.9760	80.6100
 0.9800	80.5900
 0.9840	80.6800
 0.9880	80.6900
 0.9920	80.5900
 0.9960	80.5200
 1.0000	80.5600
 1.0040	80.4100
 1.0080	80.4900
 1.0120	80.5200
 1.0160	80.5700
 1.0200	80.6600
 1.0240	80.6600
 1.0280	80.6900
 1.0320	80.8200
 1.0360	80.8300
 1.0400	80.9000
 1.0440	80.9600
 1.0480	80.7900
 1.0520	80.8300
 1.0560	80.8900
 1.0600	80.7300
 1.0640	80.8200
 1.0680	80.8100
 1.0720	80.8600
 1.0760	80.7900
 1.0800	80.8300
 1.0840	80.9400
 1.0880	80.8700
 1.0920	81.0000
 1.0960	81.0200
 1.1000	81.1200
 1.1040	81.0600
 1.1080	81.0800
 1.1120	81.0900
 1.1160	81.1600
 1.1200	81.1000
 1.1240	81.0900
 1.1280	81.1300
 1.1320	81.0200
 1.1360	81.0100
 1.1400	81.0000
 1.1440	81.0900
 1.1480	81.0700
 1.1520	81.1000
 1.1560	81.0100
 1.1600	81.0600
 1.1640	81.0700
 1.1680	81.1200
 1.1720	81.1300
 1.1760	81.1300
 1.1800	81.1600
 1.1840	81.0500
 1.1880	81.0800
 1.1920	81.1300
 1.1960	81.2200
 1.2000	81.1600
 1.2040	81.1800
 1.2080	81.1200
 1.2120	81.0800
 1.2160	81.1300
 1.2200	81.0600
 1.2240	81.2200
 1.2280	81.2800
 1.2320	81.2200
 1.2360	81.2100
 1.2400	81.1900
 1.2440	81.1600
 1.2480	81.2400
 1.2520	81.0800
 1.2560	81.1500
 1.2600	81.1400
 1.2640	81.1100
 1.2680	81.1500
 1.2720	81.1200
 1.2760	81.0600
 1.2800	80.9000
 1.2840	80.8400
 1.2880	80.8900
 1.2920	80.9200
 1.2960	80.9000
 1.3000	80.8800
 1.3040	80.9100
 1.3080	80.9900
 1.3120	80.9800
 1.3160	80.9400
 1.3200	80.9000
 1.3240	80.9400
 1.3280	81.0400
 1.3320	81.1000
 1.3360	81.1000
 1.3400	81.1200
 1.3440	81.2400
 1.3480	81.2700
 1.3520	81.1200
 1.3560	81.2100
 1.3600	81.2100
 1.3640	81.1400
 1.3680	81.0900
 1.3720	81.0600
 1.3760	81.0200
 1.3800	80.9500
 1.3840	80.9600
 1.3880	80.9300
 1.3920	80.9900
 1.3960	80.9300
 1.4000	80.9200
 1.4040	80.8200
 1.4080	80.7800
 1.4120	80.7600
 1.4160	80.6900
 1.4200	80.4400
 1.4240	80.2200
 1.4280	79.8800
 1.4320	79.6500
 1.4360	79.7100
 1.4400	79.6400
 1.4440	79.4800
 1.4480	79.3000
 1.4520	78.9600
 1.4560	78.4300
 1.4600	77.2700
 1.4640	74.6700
 1.4680	71.1900
 1.4720	69.1900
 1.4760	70.2000
 1.4800	72.8800
 1.4840	74.9900
 1.4880	76.2600
 1.4920	77.4200
 1.4960	78.4700
 1.5000	79.2900
 1.5040	79.8400
 1.5080	80.2100
 1.5120	80.4200
 1.5160	80.6200
 1.5200	80.6900
 1.5240	80.6700
 1.5280	80.8500
 1.5320	80.7800
 1.5360	80.8300
 1.5400	80.8600
 1.5440	81.0100
 1.5480	80.9400
 1.5520	81.0300
 1.5560	81.0500
 1.5600	81.1100
 1.5640	81.1700
 1.5680	81.2100
 1.5720	81.2100
 1.5760	81.1400
 1.5800	81.1500
 1.5840	81.1500
 1.5880	81.2000
 1.5920	81.1100
 1.5960	81.2200
 1.6000	81.0900
 1.6040	81.1900
 1.6080	81.1100
 1.6120	81.1100
 1.6160	81.1900
 1.6200	81.1600
 1.6240	81.2500
 1.6280	81.3000
 1.6320	81.2700
 1.6360	81.2600
 1.6400	81.1600
 1.6440	81.1400
 1.6480	81.1800
 1.6520	81.2400
 1.6560	81.2800
 1.6600	81.2100
 1.6640	81.2300
 1.6680	81.2700
 1.6720	81.3700
 1.6760	81.3900
 1.6800	81.3300
 1.6840	81.3100
 1.6880	81.3500
 1.6920	81.2400
 1.6960	81.3000
 1.7000	81.2400
 1.7040	81.1700
 1.7080	81.0700
 1.7120	81.0300
 1.7160	81.0500
 1.7200	80.9500
 1.7240	80.8700
 1.7280	80.9400
 1.7320	80.8700
 1.7360	80.7600
 1.7400	80.7900
 1.7440	80.8700
 1.7480	80.9100
 1.7520	80.8600
 1.7560	80.8600
 1.7600	80.8900
 1.7640	80.8300
 1.7680	80.8000
 1.7720	80.7800
 1.7760	80.7900
 1.7800	80.8600
 1.7840	80.8400
 1.7880	80.9300
 1.7920	80.8700
 1.7960	80.9200
 1.8000	80.8800
 1.8040	80.8100
 1.8080	80.7500
 1.8120	80.6000
 1.8160	80.5700
 1.8200	80.4200
 1.8240	80.3500
 1.8280	80.2300
 1.8320	80.2000
 1.8360	80.0800
 1.8400	80.0600
 1.8440	79.9900
 1.8480	79.8700
 1.8520	79.8700
 1.8560	79.8000
 1.8600	79.6400
 1.8640	79.5300
 1.8680	79.2900
 1.8720	79.1200
 1.8760	79.0300
 1.8800	78.9200
 1.8840	78.7900
 1.8880	78.7300
 1.8920	78.5600
 1.8960	78.4000
 1.9000	78.3700
 1.9040	78.2700
 1.9080	78.3100
 1.9120	78.3700
 1.9160	78.3700
 1.9200	78.4100
 1.9240	78.4400
 1.9280	78.3700
 1.9320	78.3000
 1.9360	78.4100
 1.9400	78.5200
 1.9440	78.7000
 1.9480	78.8000
 1.9520	78.9100
 1.9560	78.9300
 1.9600	78.9700
 1.9640	79.0600
 1.9680	79.1400
 1.9720	79.1700
 1.9760	79.0600
 1.9800	79.2800
 1.9840	79.2200
 1.9880	79.3100
 1.9920	79.3200
 1.9960	79.3500
 2.0000	79.3700
 2.0040	79.4100
 2.0080	79.3400
 2.0120	79.4500
 2.0160	79.3800
 2.0200	79.5100
 2.0240	79.4800
 2.0280	79.5600
 2.0320	79.6400
 2.0360	79.7800
 2.0400	79.7900
 2.0440	79.7900
 2.0480	79.6800
 2.0520	79.6400
 2.0560	79.6800
 2.0600	79.7700
 2.0640	79.7600
 2.0680	79.7700
 2.0720	79.7400
 2.0760	79.8200
 2.0800	79.7200
 2.0840	79.5800
 2.0880	79.5200
 2.0920	79.6500
 2.0960	79.5500
 2.1000	79.5800
 2.1040	79.5900
 2.1080	79.5700
 2.1120	79.5500
 2.1160	79.6100
 2.1200	79.4700
 2.1240	79.3600
 2.1280	79.2600
 2.1320	79.2300
 2.1360	79.2000
 2.1400	79.1400
 2.1440	79.0400
 2.1480	78.8900
 2.1520	78.7000
 2.1560	78.5000
 2.1600	78.3400
 2.1640	78.2100
 2.1680	78.1100
 2.1720	77.9200
 2.1760	77.7200
 2.1800	77.5300
 2.1840	77.2200
 2.1880	76.8900
 2.1920	76.3300
 2.1960	75.6200
 2.2000	74.7000
 2.2040	73.7200
 2.2080	72.4400
 2.2120	71.2100
 2.2160	69.9800
 2.2200	68.7700
 2.2240	67.9400
 2.2280	67.3700
 2.2320	67.2500
 2.2360	67.5000
 2.2400	67.9300
 2.2440	68.4300
 2.2480	69.0100
 2.2520	69.2700
 2.2560	69.3400
 2.2600	69.0800
 2.2640	68.5700
 2.2680	68.1000
 2.2720	67.5100
 2.2760	67.2100
 2.2800	67.0700
 2.2840	67.2600
 2.2880	67.3700
 2.2920	67.4200
 2.2960	67.0900
 2.3000	66.3500
 2.3040	64.3800
 2.3080	62.5000
 2.3120	60.1800
 2.3160	57.6600
 2.3200	55.1400
 2.3240	52.8700
 2.3280	51.1400
 2.3320	49.9900
 2.3360	48.9400
 2.3400	48.0300
 2.3440	47.0600
 2.3480	46.1600
 2.3520	45.5200
 2.3560	45.1700
 2.3600	45.3200
 2.3640	45.8500
 2.3680	46.5200
 2.3720	47.2400
 2.3760	48.0300
 2.3800	48.7400
 2.3840	49.3600
 2.3880	50.0200
 2.3920	50.8200
 2.3960	51.6400
 2.4000	52.7700
 2.4040	53.8600
 2.4080	55.0300
 2.4120	56.3600
 2.4160	57.6300
 2.4200	58.9500
 2.4240	60.1000
 2.4280	61.0900
 2.4320	61.9500
 2.4360	62.5400
 2.4400	62.9500
 2.4440	63.2200
 2.4480	63.3000
 2.4520	63.2000
 2.4560	62.8600
 2.4600	62.6500
 2.4640	62.2400
 2.4680	61.9400
 2.4720	61.7200
 2.4760	61.5900
 2.4800	61.4700
 2.4840	61.3900
 2.4880	61.2300
 2.4920	61.0100
 2.4960	60.7800
 2.5000	60.5600
