Name: Cryolite Na_3AlF_6
Type: Mineral
Class: Halide
Subclass: None
Particle Size: Medium
Sample No.: H-1A
Owner: JPL
Wavelength Range: VSWIR
Origin: Denmark, Greenland, Ivigtut
Collection Date: N/A
Description: Particle size was 45-125um.Collected by Ward's Original ASTER Spectral Library name was jpl.beckman.mineral.halide.none.medium.h01a.spectrum.txt
Measurement: Hemispherical reflectance
First Column: X
Second Column: Y
X Units: Wavelength (micrometers)
Y Units:Reflectance (percent)
First X Value:  0.4000
Last X Value:  2.5000
Number of X Values: 826
Additional Information: mineral.halide.none.medium.vswir.h-1a.jpl.beckman.ancillary.txt

 0.4000	89.2400
 0.4010	89.3600
 0.4020	89.3700
 0.4030	89.2600
 0.4040	89.2500
 0.4050	89.3800
 0.4060	89.3800
 0.4070	89.3700
 0.4080	89.2600
 0.4090	89.3300
 0.4100	89.4500
 0.4110	89.5000
 0.4120	89.3800
 0.4130	89.3300
 0.4140	89.3300
 0.4150	89.3800
 0.4160	89.3200
 0.4170	89.5000
 0.4180	89.3900
 0.4190	89.5100
 0.4200	89.6200
 0.4210	89.5000
 0.4220	89.5600
 0.4230	89.3900
 0.4240	89.4600
 0.4250	89.5700
 0.4260	89.5100
 0.4270	89.5700
 0.4280	89.4500
 0.4290	89.5100
 0.4300	89.6400
 0.4310	89.5800
 0.4320	89.5800
 0.4330	89.5700
 0.4340	89.6300
 0.4350	89.7500
 0.4360	89.6900
 0.4370	89.7400
 0.4380	89.7500
 0.4390	89.8000
 0.4400	89.8200
 0.4410	89.7600
 0.4420	89.7600
 0.4430	89.7600
 0.4440	89.8200
 0.4450	89.9300
 0.4460	89.8700
 0.4470	89.8800
 0.4480	89.8100
 0.4490	89.9300
 0.4500	89.9300
 0.4510	89.9400
 0.4520	89.9500
 0.4530	89.8400
 0.4540	90.0700
 0.4550	90.1400
 0.4560	89.9800
 0.4570	89.9400
 0.4580	89.9500
 0.4590	90.0200
 0.4600	90.0600
 0.4610	90.0100
 0.4620	90.1300
 0.4630	90.0700
 0.4640	90.2500
 0.4650	90.2000
 0.4660	90.0800
 0.4670	90.0900
 0.4680	90.1600
 0.4690	90.3400
 0.4700	90.2900
 0.4710	90.1700
 0.4720	90.3400
 0.4730	90.3000
 0.4740	90.3500
 0.4750	90.4700
 0.4760	90.3500
 0.4770	90.4100
 0.4780	90.3600
 0.4790	90.5300
 0.4800	90.5400
 0.4810	90.2900
 0.4820	90.4000
 0.4830	90.3600
 0.4840	90.4300
 0.4850	90.5000
 0.4860	90.4400
 0.4870	90.5600
 0.4880	90.4500
 0.4890	90.4500
 0.4900	90.6300
 0.4910	90.5300
 0.4920	90.5800
 0.4930	90.4800
 0.4940	90.3800
 0.4950	90.5000
 0.4960	90.4400
 0.4970	90.6200
 0.4980	90.5200
 0.4990	90.5800
 0.5000	90.7000
 0.5010	90.5900
 0.5020	90.7000
 0.5030	90.5300
 0.5040	90.4200
 0.5050	90.5300
 0.5060	90.5300
 0.5070	90.6500
 0.5080	90.6500
 0.5090	90.5300
 0.5100	90.7000
 0.5110	90.7500
 0.5120	90.7500
 0.5130	90.8100
 0.5140	90.6500
 0.5150	90.7200
 0.5160	90.6500
 0.5170	90.7600
 0.5180	90.8200
 0.5190	90.6600
 0.5200	90.7200
 0.5210	90.7700
 0.5220	90.8300
 0.5230	90.9500
 0.5240	90.8300
 0.5250	90.8900
 0.5260	90.8400
 0.5270	90.9500
 0.5280	90.9000
 0.5290	90.7800
 0.5300	90.8300
 0.5310	90.7700
 0.5320	90.8900
 0.5330	90.8700
 0.5340	90.8000
 0.5350	90.7200
 0.5360	90.8300
 0.5370	90.8300
 0.5380	90.8900
 0.5390	90.8900
 0.5400	90.8900
 0.5410	90.8300
 0.5420	90.8300
 0.5430	90.9000
 0.5440	90.8400
 0.5450	90.8500
 0.5460	90.8500
 0.5470	90.8600
 0.5480	91.0400
 0.5490	90.9900
 0.5500	91.0500
 0.5510	90.9300
 0.5520	90.8800
 0.5530	90.9400
 0.5540	90.8800
 0.5550	91.0500
 0.5560	90.8700
 0.5570	90.7400
 0.5580	90.9100
 0.5590	90.8900
 0.5600	90.9500
 0.5610	91.2900
 0.5620	91.2900
 0.5630	91.3600
 0.5640	91.3600
 0.5650	91.4200
 0.5660	91.3000
 0.5670	91.1800
 0.5680	91.3000
 0.5690	91.1800
 0.5700	91.3000
 0.5710	91.1800
 0.5720	90.9500
 0.5730	91.0500
 0.5740	90.9600
 0.5750	91.1200
 0.5760	91.0500
 0.5770	90.9200
 0.5780	91.0400
 0.5790	91.0400
 0.5800	91.0900
 0.5810	90.9100
 0.5820	90.8600
 0.5830	90.9800
 0.5840	90.8600
 0.5850	90.9800
 0.5860	90.9100
 0.5870	90.9100
 0.5880	91.0300
 0.5890	90.9700
 0.5900	90.9700
 0.5910	90.9700
 0.5920	90.9100
 0.5930	91.0300
 0.5940	90.9200
 0.5950	90.9200
 0.5960	90.9800
 0.5970	90.9100
 0.5980	91.1700
 0.5990	90.9500
 0.6000	91.0400
 0.6010	91.0500
 0.6020	91.0100
 0.6030	91.1900
 0.6040	91.0700
 0.6050	91.1200
 0.6060	91.1800
 0.6070	91.1900
 0.6080	91.2500
 0.6090	91.0700
 0.6100	91.0300
 0.6110	91.0800
 0.6120	91.0800
 0.6130	91.1900
 0.6140	91.0700
 0.6150	90.9600
 0.6160	91.0200
 0.6170	91.0800
 0.6180	91.0200
 0.6190	90.9600
 0.6200	90.9600
 0.6210	91.0300
 0.6220	91.0800
 0.6230	91.0800
 0.6240	90.9700
 0.6250	91.0200
 0.6260	91.0700
 0.6270	91.1300
 0.6280	91.1400
 0.6290	91.0200
 0.6300	91.0300
 0.6310	91.0800
 0.6320	91.1400
 0.6330	91.0800
 0.6340	90.9700
 0.6350	91.0200
 0.6360	90.9600
 0.6370	91.0700
 0.6380	91.0700
 0.6390	90.9000
 0.6400	91.0800
 0.6410	91.0800
 0.6420	91.0200
 0.6430	91.1400
 0.6440	91.0200
 0.6450	91.0800
 0.6460	91.0200
 0.6470	91.1400
 0.6480	91.0800
 0.6490	90.9600
 0.6500	91.0100
 0.6510	91.1300
 0.6520	91.1300
 0.6530	91.1900
 0.6540	91.0200
 0.6550	91.0800
 0.6560	91.0200
 0.6570	91.1300
 0.6580	91.1900
 0.6590	90.9600
 0.6600	91.0800
 0.6610	91.1400
 0.6620	91.1300
 0.6630	91.2400
 0.6640	91.0700
 0.6650	91.0700
 0.6660	91.0800
 0.6670	91.0800
 0.6680	91.1400
 0.6690	91.0800
 0.6700	91.0800
 0.6710	91.0800
 0.6720	91.1400
 0.6730	91.2000
 0.6740	91.1300
 0.6750	91.0700
 0.6760	91.0700
 0.6770	91.1300
 0.6780	91.1300
 0.6790	91.0300
 0.6800	91.1400
 0.6810	91.0800
 0.6820	91.1400
 0.6830	91.1400
 0.6840	91.0800
 0.6850	91.1400
 0.6860	91.1400
 0.6870	91.1300
 0.6880	91.2500
 0.6890	91.0700
 0.6900	91.0800
 0.6910	91.1400
 0.6920	91.1400
 0.6930	91.2000
 0.6940	91.0800
 0.6950	91.1400
 0.6960	91.1400
 0.6970	91.1900
 0.6980	91.1800
 0.6990	91.1000
 0.7000	91.1400
 0.7010	91.0900
 0.7020	91.0800
 0.7030	91.1400
 0.7040	91.1500
 0.7050	91.0300
 0.7060	91.0800
 0.7070	91.0800
 0.7080	91.1400
 0.7090	91.3100
 0.7100	91.0800
 0.7110	91.2000
 0.7120	91.0900
 0.7130	91.1400
 0.7140	91.3200
 0.7150	91.0900
 0.7160	91.2000
 0.7170	91.1400
 0.7180	91.0700
 0.7190	91.2500
 0.7200	91.1400
 0.7210	91.0900
 0.7220	91.0900
 0.7230	91.1400
 0.7240	91.1400
 0.7250	90.9700
 0.7260	91.0900
 0.7270	91.0300
 0.7280	91.0800
 0.7290	91.2500
 0.7300	91.0300
 0.7310	91.1400
 0.7320	90.9700
 0.7330	90.9700
 0.7340	91.0300
 0.7350	91.1400
 0.7360	91.0300
 0.7370	90.9100
 0.7380	90.9600
 0.7390	91.0200
 0.7400	91.1400
 0.7410	91.1400
 0.7420	91.0300
 0.7430	91.0300
 0.7440	91.0900
 0.7450	91.1500
 0.7460	91.0300
 0.7470	90.9700
 0.7480	90.9700
 0.7490	90.9700
 0.7500	90.9700
 0.7510	91.0900
 0.7520	91.0900
 0.7530	90.9700
 0.7540	91.0300
 0.7550	91.0300
 0.7560	91.0800
 0.7570	91.0800
 0.7580	91.0300
 0.7590	91.0900
 0.7600	90.9800
 0.7610	91.0900
 0.7620	91.0300
 0.7630	91.0300
 0.7640	90.9800
 0.7650	90.9800
 0.7660	91.0800
 0.7670	91.0300
 0.7680	90.9800
 0.7690	90.9200
 0.7700	90.9200
 0.7710	91.0300
 0.7720	91.0300
 0.7730	90.9200
 0.7740	90.9800
 0.7750	91.0300
 0.7760	91.0300
 0.7770	91.0900
 0.7780	90.9800
 0.7790	90.9800
 0.7800	90.9800
 0.7810	91.1500
 0.7820	91.0400
 0.7830	91.0400
 0.7840	91.0300
 0.7850	90.9700
 0.7860	91.0900
 0.7870	91.1000
 0.7880	90.9800
 0.7890	90.9800
 0.7900	90.9800
 0.7910	91.0400
 0.7920	91.0300
 0.7930	91.0900
 0.7940	90.9700
 0.7950	90.9800
 0.7960	91.0900
 0.7970	91.0300
 0.7980	91.0200
 0.7990	90.9500
 0.8000	91.1200
 0.8040	91.1200
 0.8080	91.1800
 0.8120	91.1300
 0.8160	91.0700
 0.8200	91.1200
 0.8240	91.2300
 0.8280	91.2400
 0.8320	91.2400
 0.8360	91.2400
 0.8400	91.2300
 0.8440	91.2300
 0.8480	91.2900
 0.8520	91.3500
 0.8560	91.3400
 0.8600	91.3500
 0.8640	91.3500
 0.8680	91.3400
 0.8720	91.4000
 0.8760	91.4000
 0.8800	91.4000
 0.8840	91.2900
 0.8880	91.3400
 0.8920	91.4700
 0.8960	91.3400
 0.9000	91.3400
 0.9040	91.2900
 0.9080	91.3400
 0.9120	91.3400
 0.9160	91.2800
 0.9200	91.2900
 0.9240	91.2800
 0.9280	91.2900
 0.9320	91.3400
 0.9360	91.2800
 0.9400	91.3400
 0.9440	91.3400
 0.9480	91.2800
 0.9520	91.3400
 0.9560	91.4000
 0.9600	91.4100
 0.9640	91.4000
 0.9680	91.4000
 0.9720	91.3400
 0.9760	91.3400
 0.9800	91.3400
 0.9840	91.3400
 0.9880	91.4100
 0.9920	91.3500
 0.9960	91.4200
 1.0000	91.4300
 1.0040	91.4600
 1.0080	91.4600
 1.0120	91.5800
 1.0160	91.4600
 1.0200	91.4600
 1.0240	91.5200
 1.0280	91.4600
 1.0320	91.5200
 1.0360	91.5200
 1.0400	91.5200
 1.0440	91.5900
 1.0480	91.4100
 1.0520	91.4100
 1.0560	91.4700
 1.0600	91.4700
 1.0640	91.4600
 1.0680	91.5300
 1.0720	91.4800
 1.0760	91.4400
 1.0800	91.5700
 1.0840	91.5200
 1.0880	91.5300
 1.0920	91.4800
 1.0960	91.4800
 1.1000	91.5300
 1.1040	91.5300
 1.1080	91.5300
 1.1120	91.4700
 1.1160	91.5200
 1.1200	91.5800
 1.1240	91.6900
 1.1280	91.6300
 1.1320	91.6100
 1.1360	91.6200
 1.1400	91.6100
 1.1440	91.6600
 1.1480	91.5900
 1.1520	91.5900
 1.1560	91.6500
 1.1600	91.6400
 1.1640	91.5700
 1.1680	91.5000
 1.1720	91.5000
 1.1760	91.4900
 1.1800	91.4800
 1.1840	91.5100
 1.1880	91.5000
 1.1920	91.4400
 1.1960	91.5000
 1.2000	91.4900
 1.2040	91.4300
 1.2080	91.4400
 1.2120	91.3300
 1.2160	91.4400
 1.2200	91.4500
 1.2240	91.3300
 1.2280	91.3400
 1.2320	91.4100
 1.2360	91.4200
 1.2400	91.4200
 1.2440	91.4900
 1.2480	91.4300
 1.2520	91.4900
 1.2560	91.4800
 1.2600	91.5300
 1.2640	91.5900
 1.2680	91.5300
 1.2720	91.5200
 1.2760	91.5600
 1.2800	91.4900
 1.2840	91.4800
 1.2880	91.5500
 1.2920	91.4800
 1.2960	91.4100
 1.3000	91.4600
 1.3040	91.4500
 1.3080	91.4400
 1.3120	91.4400
 1.3160	91.3900
 1.3200	91.3700
 1.3240	91.3100
 1.3280	91.2300
 1.3320	91.2300
 1.3360	91.2200
 1.3400	91.2200
 1.3440	91.2200
 1.3480	91.2000
 1.3520	91.2000
 1.3560	91.2400
 1.3600	91.2600
 1.3640	91.3100
 1.3680	91.1500
 1.3720	91.2500
 1.3760	91.1300
 1.3800	91.1300
 1.3840	91.1000
 1.3880	91.0900
 1.3920	91.0900
 1.3960	91.0200
 1.4000	90.9200
 1.4040	90.9200
 1.4080	90.8200
 1.4120	90.7500
 1.4160	90.7600
 1.4200	90.7000
 1.4240	90.6000
 1.4280	90.6200
 1.4320	90.6800
 1.4360	90.6400
 1.4400	90.6500
 1.4440	90.5900
 1.4480	90.5500
 1.4520	90.4200
 1.4560	90.4900
 1.4600	90.6100
 1.4640	90.7200
 1.4680	90.7800
 1.4720	90.8900
 1.4760	90.8400
 1.4800	90.9500
 1.4840	90.8900
 1.4880	90.9400
 1.4920	90.9500
 1.4960	91.0000
 1.5000	90.9400
 1.5040	91.1000
 1.5080	91.2200
 1.5120	91.1700
 1.5160	91.1700
 1.5200	91.1800
 1.5240	91.1800
 1.5280	91.2900
 1.5320	91.3000
 1.5360	91.3000
 1.5400	91.2300
 1.5440	91.2900
 1.5480	91.2900
 1.5520	91.4100
 1.5560	91.4000
 1.5600	91.4100
 1.5640	91.4100
 1.5680	91.3500
 1.5720	91.3600
 1.5760	91.3500
 1.5800	91.3500
 1.5840	91.2900
 1.5880	91.2300
 1.5920	91.2900
 1.5960	91.3500
 1.6000	91.3500
 1.6040	91.4000
 1.6080	91.4500
 1.6120	91.4500
 1.6160	91.4000
 1.6200	91.3800
 1.6240	91.3800
 1.6280	91.4700
 1.6320	91.3700
 1.6360	91.4000
 1.6400	91.5100
 1.6440	91.4500
 1.6480	91.4900
 1.6520	91.5600
 1.6560	91.5500
 1.6600	91.6000
 1.6640	91.6400
 1.6680	91.5700
 1.6720	91.6800
 1.6760	91.6700
 1.6800	91.6700
 1.6840	91.6600
 1.6880	91.6500
 1.6920	91.6500
 1.6960	91.7000
 1.7000	91.6900
 1.7040	91.6900
 1.7080	91.6200
 1.7120	91.6800
 1.7160	91.6200
 1.7200	91.6800
 1.7240	91.6300
 1.7280	91.6300
 1.7320	91.6300
 1.7360	91.5800
 1.7400	91.5200
 1.7440	91.5800
 1.7480	91.5200
 1.7520	91.5200
 1.7560	91.4600
 1.7600	91.5200
 1.7640	91.5200
 1.7680	91.4600
 1.7720	91.3400
 1.7760	91.4600
 1.7800	91.4000
 1.7840	91.4600
 1.7880	91.4100
 1.7920	91.3500
 1.7960	91.4100
 1.8000	91.4100
 1.8040	91.3800
 1.8080	91.4100
 1.8120	91.3700
 1.8160	91.3500
 1.8200	91.2600
 1.8240	91.2800
 1.8280	91.3100
 1.8320	91.2900
 1.8360	91.3100
 1.8400	91.2700
 1.8440	91.1800
 1.8480	91.2800
 1.8520	91.2100
 1.8560	91.2500
 1.8600	91.2600
 1.8640	91.1900
 1.8680	91.0400
 1.8720	90.9700
 1.8760	90.8600
 1.8800	90.6900
 1.8840	90.6300
 1.8880	90.4600
 1.8920	90.2300
 1.8960	89.8800
 1.9000	89.6500
 1.9040	89.3500
 1.9080	89.1600
 1.9120	88.6900
 1.9160	88.4700
 1.9200	88.2000
 1.9240	88.0500
 1.9280	87.9400
 1.9320	88.1200
 1.9360	88.3300
 1.9400	88.5500
 1.9440	88.7300
 1.9480	88.9500
 1.9520	89.1200
 1.9560	89.4000
 1.9600	89.5600
 1.9640	89.8300
 1.9680	90.0300
 1.9720	90.1400
 1.9760	90.2900
 1.9800	90.3900
 1.9840	90.6000
 1.9880	90.6900
 1.9920	90.6700
 1.9960	90.7600
 2.0000	90.8600
 2.0040	90.8400
 2.0080	90.8800
 2.0120	90.9400
 2.0160	90.9600
 2.0200	91.0300
 2.0240	90.9600
 2.0280	91.0000
 2.0320	91.1100
 2.0360	91.0700
 2.0400	91.1500
 2.0440	91.1400
 2.0480	91.2300
 2.0520	91.2800
 2.0560	91.2400
 2.0600	91.2600
 2.0640	91.2800
 2.0680	91.3500
 2.0720	91.4300
 2.0760	91.4500
 2.0800	91.5800
 2.0840	91.5400
 2.0880	91.6200
 2.0920	91.6300
 2.0960	91.7100
 2.1000	91.7900
 2.1040	91.8000
 2.1080	91.8700
 2.1120	91.8900
 2.1160	91.9700
 2.1200	91.9900
 2.1240	91.9700
 2.1280	91.8500
 2.1320	91.8100
 2.1360	91.9300
 2.1400	91.8100
 2.1440	91.6800
 2.1480	91.6000
 2.1520	91.5400
 2.1560	91.4400
 2.1600	91.4100
 2.1640	91.3000
 2.1680	91.2400
 2.1720	91.2500
 2.1760	91.1800
 2.1800	91.1900
 2.1840	91.1500
 2.1880	91.1200
 2.1920	91.1300
 2.1960	91.1000
 2.2000	91.1600
 2.2040	91.1100
 2.2080	91.0000
 2.2120	90.9600
 2.2160	91.0000
 2.2200	91.0400
 2.2240	90.9800
 2.2280	91.0300
 2.2320	90.9600
 2.2360	91.0400
 2.2400	91.0000
 2.2440	91.1200
 2.2480	91.0600
 2.2520	91.2600
 2.2560	91.2300
 2.2600	91.1900
 2.2640	91.3000
 2.2680	91.1400
 2.2720	91.1700
 2.2760	91.1300
 2.2800	91.0400
 2.2840	91.1200
 2.2880	91.0200
 2.2920	90.9500
 2.2960	90.9900
 2.3000	90.9700
 2.3040	90.8700
 2.3080	90.8800
 2.3120	90.8400
 2.3160	90.8600
 2.3200	90.7600
 2.3240	90.6900
 2.3280	90.5600
 2.3320	90.3200
 2.3360	90.1900
 2.3400	90.0100
 2.3440	89.9400
 2.3480	89.7900
 2.3520	89.8100
 2.3560	89.7800
 2.3600	89.5700
 2.3640	89.4700
 2.3680	89.3800
 2.3720	89.3100
 2.3760	89.2000
 2.3800	89.2000
 2.3840	89.1100
 2.3880	89.0100
 2.3920	88.9400
 2.3960	88.9400
 2.4000	88.9500
 2.4040	88.9400
 2.4080	88.9300
 2.4120	88.9800
 2.4160	88.9800
 2.4200	88.9600
 2.4240	89.0100
 2.4280	89.0100
 2.4320	89.0500
 2.4360	89.0000
 2.4400	88.8700
 2.4440	88.8100
 2.4480	88.7400
 2.4520	88.6900
 2.4560	88.6800
 2.4600	88.6700
 2.4640	88.6600
 2.4680	88.6000
 2.4720	88.5400
 2.4760	88.6400
 2.4800	88.9100
 2.4840	89.1200
 2.4880	89.3400
 2.4920	89.4400
 2.4960	89.7000
 2.5000	89.8700
