Name: Anorthite (Feldspar) (NaSi,CaAl)AlSi_2O_8
Type: Mineral
Class: Silicate
Subclass: Tectosilicate
Particle Size: Coarse
Sample No.: TS-5A
Owner: JPL
Wavelength Range: VSWIR
Origin: 
Collection Date: N/A
Description: Particle size was 125-500um.Collected by JPL Original ASTER Spectral Library name was jpl.beckman.mineral.silicate.tectosilicate.coarse.ts05a.spectrum.txt
Measurement: Hemispherical reflectance
First Column: X
Second Column: Y
X Units: Wavelength (micrometers)
Y Units:Reflectance (percent)
First X Value:  0.4000
Last X Value:  2.5000
Number of X Values: 826
Additional Information: mineral.silicate.tectosilicate.coarse.vswir.ts-5a.jpl.beckman.ancillary.txt

 0.4000	33.4000
 0.4010	33.6400
 0.4020	33.9300
 0.4030	34.1500
 0.4040	34.2300
 0.4050	34.3000
 0.4060	34.6400
 0.4070	34.7400
 0.4080	34.8000
 0.4090	34.8400
 0.4100	35.0900
 0.4110	35.4100
 0.4120	35.4000
 0.4130	35.3500
 0.4140	35.5900
 0.4150	35.7100
 0.4160	35.7800
 0.4170	35.8000
 0.4180	35.8700
 0.4190	36.1800
 0.4200	36.2400
 0.4210	36.2600
 0.4220	36.5000
 0.4230	36.8600
 0.4240	36.7500
 0.4250	36.9500
 0.4260	37.1700
 0.4270	37.3200
 0.4280	37.5100
 0.4290	37.5600
 0.4300	37.6600
 0.4310	37.9700
 0.4320	38.1000
 0.4330	38.2100
 0.4340	38.2100
 0.4350	38.4100
 0.4360	38.7000
 0.4370	38.6000
 0.4380	38.7600
 0.4390	38.9000
 0.4400	39.0100
 0.4410	39.1200
 0.4420	39.1000
 0.4430	39.1100
 0.4440	39.4200
 0.4450	39.4400
 0.4460	39.5000
 0.4470	39.5600
 0.4480	39.6400
 0.4490	39.7300
 0.4500	39.8400
 0.4510	39.8700
 0.4520	40.0400
 0.4530	40.2800
 0.4540	40.3000
 0.4550	40.3800
 0.4560	40.4200
 0.4570	40.7900
 0.4580	40.7700
 0.4590	40.7800
 0.4600	40.9700
 0.4610	41.2600
 0.4620	41.4000
 0.4630	41.3200
 0.4640	41.4700
 0.4650	41.5900
 0.4660	41.7000
 0.4670	41.9100
 0.4680	41.8500
 0.4690	41.9900
 0.4700	42.1700
 0.4710	42.1100
 0.4720	42.2800
 0.4730	42.2600
 0.4740	42.4400
 0.4750	42.5300
 0.4760	42.4200
 0.4770	42.6700
 0.4780	42.6800
 0.4790	42.9100
 0.4800	42.9400
 0.4810	42.8700
 0.4820	43.0000
 0.4830	43.2200
 0.4840	43.2100
 0.4850	43.3300
 0.4860	43.3400
 0.4870	43.5200
 0.4880	43.6200
 0.4890	43.4700
 0.4900	43.7100
 0.4910	43.8000
 0.4920	43.8900
 0.4930	43.9000
 0.4940	43.9600
 0.4950	44.0300
 0.4960	44.3500
 0.4970	44.2700
 0.4980	44.3900
 0.4990	44.4200
 0.5000	44.7100
 0.5010	44.6600
 0.5020	44.6300
 0.5030	44.7800
 0.5040	45.0200
 0.5050	45.1100
 0.5060	45.1400
 0.5070	45.0800
 0.5080	45.2200
 0.5090	45.4500
 0.5100	45.4300
 0.5110	45.4600
 0.5120	45.5700
 0.5130	45.7700
 0.5140	45.8000
 0.5150	45.6800
 0.5160	45.8900
 0.5170	46.0300
 0.5180	46.1200
 0.5190	46.1500
 0.5200	46.0900
 0.5210	46.1800
 0.5220	46.3200
 0.5230	46.2900
 0.5240	46.3200
 0.5250	46.3500
 0.5260	46.5800
 0.5270	46.5600
 0.5280	46.5000
 0.5290	46.6400
 0.5300	46.7000
 0.5310	46.6700
 0.5320	46.7600
 0.5330	46.7600
 0.5340	46.8400
 0.5350	46.8400
 0.5360	46.8100
 0.5370	46.8100
 0.5380	46.9600
 0.5390	47.0500
 0.5400	46.9900
 0.5410	46.9000
 0.5420	47.0500
 0.5430	47.0200
 0.5440	47.1700
 0.5450	47.0800
 0.5460	47.1400
 0.5470	47.2700
 0.5480	47.3600
 0.5490	47.2400
 0.5500	47.3000
 0.5510	47.4500
 0.5520	47.4800
 0.5530	47.5100
 0.5540	47.3900
 0.5550	47.5300
 0.5560	47.5600
 0.5570	47.5900
 0.5580	47.4500
 0.5590	47.6000
 0.5600	47.9100
 0.5610	47.9100
 0.5620	47.9400
 0.5630	47.9100
 0.5640	47.8800
 0.5650	47.9900
 0.5660	47.7300
 0.5670	47.8500
 0.5680	47.8500
 0.5690	47.9100
 0.5700	47.9100
 0.5710	47.6800
 0.5720	47.8200
 0.5730	47.6500
 0.5740	47.6900
 0.5750	47.7500
 0.5760	47.6400
 0.5770	47.7300
 0.5780	47.8800
 0.5790	47.6100
 0.5800	47.5500
 0.5810	47.5800
 0.5820	47.7000
 0.5830	47.6400
 0.5840	47.5200
 0.5850	47.6400
 0.5860	47.7600
 0.5870	47.7600
 0.5880	47.8000
 0.5890	47.7000
 0.5900	47.7600
 0.5910	47.9100
 0.5920	47.7300
 0.5930	47.7000
 0.5940	47.7300
 0.5950	47.9100
 0.5960	47.7600
 0.5970	47.6700
 0.5980	47.7300
 0.5990	47.9300
 0.6000	47.9600
 0.6010	47.9500
 0.6020	47.8600
 0.6030	48.0300
 0.6040	48.0000
 0.6050	47.9100
 0.6060	47.8200
 0.6070	47.9100
 0.6080	48.0200
 0.6090	47.9600
 0.6100	47.8500
 0.6110	47.9600
 0.6120	47.9300
 0.6130	47.9900
 0.6140	47.9000
 0.6150	47.8700
 0.6160	47.9000
 0.6170	47.9900
 0.6180	47.8800
 0.6190	47.8200
 0.6200	47.8200
 0.6210	47.9600
 0.6220	47.9000
 0.6230	47.8200
 0.6240	47.8500
 0.6250	47.9300
 0.6260	48.0200
 0.6270	47.8700
 0.6280	47.9600
 0.6290	47.9600
 0.6300	48.0200
 0.6310	48.0200
 0.6320	47.9100
 0.6330	47.8200
 0.6340	47.8700
 0.6350	47.9900
 0.6360	47.9300
 0.6370	47.7900
 0.6380	47.8700
 0.6390	47.9900
 0.6400	47.9300
 0.6410	47.9300
 0.6420	47.8800
 0.6430	48.0500
 0.6440	48.1100
 0.6450	47.9600
 0.6460	47.8400
 0.6470	47.9300
 0.6480	47.9600
 0.6490	47.9600
 0.6500	47.8200
 0.6510	47.8100
 0.6520	47.9900
 0.6530	48.0200
 0.6540	47.8800
 0.6550	47.9100
 0.6560	48.0200
 0.6570	47.9900
 0.6580	47.9600
 0.6590	47.7900
 0.6600	47.9900
 0.6610	47.9300
 0.6620	47.8700
 0.6630	47.9300
 0.6640	47.9300
 0.6650	48.0500
 0.6660	48.0800
 0.6670	47.9600
 0.6680	48.1400
 0.6690	48.0500
 0.6700	48.0200
 0.6710	47.9600
 0.6720	47.8700
 0.6730	47.9600
 0.6740	48.0500
 0.6750	47.9900
 0.6760	47.9600
 0.6770	48.0400
 0.6780	48.0700
 0.6790	48.1400
 0.6800	47.9300
 0.6810	48.0500
 0.6820	48.1100
 0.6830	48.1000
 0.6840	48.0200
 0.6850	47.9600
 0.6860	47.9000
 0.6870	48.0400
 0.6880	47.9900
 0.6890	47.9000
 0.6900	47.9900
 0.6910	47.9600
 0.6920	48.0200
 0.6930	47.9600
 0.6940	47.9600
 0.6950	48.0200
 0.6960	48.1300
 0.6970	47.9300
 0.6980	47.8800
 0.6990	47.8900
 0.7000	47.9500
 0.7010	47.7000
 0.7020	47.8400
 0.7030	47.8100
 0.7040	47.6700
 0.7050	47.6100
 0.7060	47.7600
 0.7070	47.7600
 0.7080	47.7900
 0.7090	47.7000
 0.7100	47.7300
 0.7110	47.7300
 0.7120	47.6200
 0.7130	47.6100
 0.7140	47.6700
 0.7150	47.7300
 0.7160	47.6400
 0.7170	47.5600
 0.7180	47.5000
 0.7190	47.7300
 0.7200	47.6100
 0.7210	47.5800
 0.7220	47.5600
 0.7230	47.5600
 0.7240	47.5800
 0.7250	47.5300
 0.7260	47.4400
 0.7270	47.5300
 0.7280	47.6400
 0.7290	47.5000
 0.7300	47.3800
 0.7310	47.4100
 0.7320	47.5300
 0.7330	47.3000
 0.7340	47.4100
 0.7350	47.3200
 0.7360	47.4400
 0.7370	47.3500
 0.7380	47.2400
 0.7390	47.2200
 0.7400	47.3800
 0.7410	47.3800
 0.7420	47.2400
 0.7430	47.1300
 0.7440	47.1300
 0.7450	47.2900
 0.7460	47.1600
 0.7470	47.1300
 0.7480	47.1000
 0.7490	47.1000
 0.7500	47.1900
 0.7510	47.0200
 0.7520	47.0500
 0.7530	47.0200
 0.7540	47.1600
 0.7550	47.0500
 0.7560	46.9000
 0.7570	46.9300
 0.7580	47.0200
 0.7590	46.8200
 0.7600	46.7900
 0.7610	46.7600
 0.7620	46.8200
 0.7630	46.7600
 0.7640	46.6400
 0.7650	46.6200
 0.7660	46.6400
 0.7670	46.7600
 0.7680	46.6400
 0.7690	46.5600
 0.7700	46.4400
 0.7710	46.4400
 0.7720	46.6400
 0.7730	46.6200
 0.7740	46.4700
 0.7750	46.5600
 0.7760	46.4700
 0.7770	46.5000
 0.7780	46.3000
 0.7790	46.2700
 0.7800	46.4400
 0.7810	46.4400
 0.7820	46.2400
 0.7830	46.2400
 0.7840	46.1900
 0.7850	46.2700
 0.7860	46.2200
 0.7870	46.1600
 0.7880	46.2100
 0.7890	46.2100
 0.7900	45.9900
 0.7910	46.1300
 0.7920	46.1000
 0.7930	46.1300
 0.7940	46.1300
 0.7950	45.9000
 0.7960	45.9000
 0.7970	46.1600
 0.7980	46.1500
 0.7990	45.8900
 0.8000	46.3100
 0.8040	46.1600
 0.8080	45.9900
 0.8120	45.9000
 0.8160	45.7800
 0.8200	45.6600
 0.8240	45.6000
 0.8280	45.4400
 0.8320	45.3700
 0.8360	45.2500
 0.8400	45.2800
 0.8440	45.1900
 0.8480	45.1900
 0.8520	45.0700
 0.8560	45.0700
 0.8600	44.9800
 0.8640	44.9500
 0.8680	44.9100
 0.8720	44.9200
 0.8760	44.8600
 0.8800	44.8900
 0.8840	44.8900
 0.8880	45.0300
 0.8920	45.0600
 0.8960	44.9400
 0.9000	45.0300
 0.9040	45.0700
 0.9080	45.1200
 0.9120	45.1200
 0.9160	45.1500
 0.9200	45.1500
 0.9240	45.0600
 0.9280	45.1500
 0.9320	45.1500
 0.9360	45.2800
 0.9400	45.2700
 0.9440	45.3000
 0.9480	45.2400
 0.9520	45.1800
 0.9560	45.1500
 0.9600	45.1800
 0.9640	45.2100
 0.9680	45.1800
 0.9720	45.0600
 0.9760	44.9700
 0.9800	44.9200
 0.9840	44.8900
 0.9880	44.7700
 0.9920	44.6800
 0.9960	44.5200
 1.0000	44.4600
 1.0040	44.2800
 1.0080	44.2000
 1.0120	44.0600
 1.0160	43.9900
 1.0200	43.9000
 1.0240	43.7300
 1.0280	43.5800
 1.0320	43.4700
 1.0360	43.4400
 1.0400	43.3200
 1.0440	43.2600
 1.0480	43.1000
 1.0520	43.0100
 1.0560	42.9200
 1.0600	42.8200
 1.0640	42.7300
 1.0680	42.6700
 1.0720	42.6300
 1.0760	42.5200
 1.0800	42.4800
 1.0840	42.3300
 1.0880	42.2400
 1.0920	42.1400
 1.0960	42.0800
 1.1000	42.0800
 1.1040	41.9100
 1.1080	41.9800
 1.1120	41.8700
 1.1160	41.8100
 1.1200	41.7900
 1.1240	41.8300
 1.1280	41.7800
 1.1320	41.7800
 1.1360	41.6400
 1.1400	41.6600
 1.1440	41.5600
 1.1480	41.5500
 1.1520	41.5600
 1.1560	41.5500
 1.1600	41.5300
 1.1640	41.5100
 1.1680	41.5100
 1.1720	41.5400
 1.1760	41.5800
 1.1800	41.5400
 1.1840	41.5600
 1.1880	41.6400
 1.1920	41.6300
 1.1960	41.6300
 1.2000	41.7300
 1.2040	41.8200
 1.2080	41.8000
 1.2120	41.9300
 1.2160	42.0000
 1.2200	42.0100
 1.2240	42.0800
 1.2280	42.0800
 1.2320	42.1800
 1.2360	42.1400
 1.2400	42.1800
 1.2440	42.2300
 1.2480	42.3300
 1.2520	42.3900
 1.2560	42.4800
 1.2600	42.5300
 1.2640	42.5400
 1.2680	42.6300
 1.2720	42.7500
 1.2760	42.8300
 1.2800	42.8500
 1.2840	42.9400
 1.2880	43.0400
 1.2920	43.0700
 1.2960	43.2200
 1.3000	43.3100
 1.3040	43.4700
 1.3080	43.4500
 1.3120	43.5600
 1.3160	43.6600
 1.3200	43.7200
 1.3240	43.8000
 1.3280	43.8800
 1.3320	44.0000
 1.3360	44.0800
 1.3400	44.0500
 1.3440	44.2400
 1.3480	44.3300
 1.3520	44.4200
 1.3560	44.4600
 1.3600	44.6000
 1.3640	44.6300
 1.3680	44.6800
 1.3720	44.8000
 1.3760	44.6900
 1.3800	44.5700
 1.3840	44.1700
 1.3880	43.6900
 1.3920	43.1300
 1.3960	42.5700
 1.4000	42.2000
 1.4040	42.0100
 1.4080	42.3600
 1.4120	42.9600
 1.4160	43.6000
 1.4200	44.0900
 1.4240	44.4000
 1.4280	44.6300
 1.4320	44.8300
 1.4360	45.0400
 1.4400	45.1900
 1.4440	45.4200
 1.4480	45.6000
 1.4520	45.7100
 1.4560	45.8000
 1.4600	45.9800
 1.4640	45.9800
 1.4680	45.9500
 1.4720	45.8900
 1.4760	46.0300
 1.4800	46.3200
 1.4840	46.6900
 1.4880	46.9800
 1.4920	47.2400
 1.4960	47.4700
 1.5000	47.6200
 1.5040	47.6700
 1.5080	47.8100
 1.5120	47.9500
 1.5160	48.0100
 1.5200	48.1800
 1.5240	48.2700
 1.5280	48.3900
 1.5320	48.3900
 1.5360	48.4400
 1.5400	48.4700
 1.5440	48.5300
 1.5480	48.5800
 1.5520	48.6700
 1.5560	48.6700
 1.5600	48.6600
 1.5640	48.7500
 1.5680	48.8200
 1.5720	48.7900
 1.5760	48.8100
 1.5800	48.9700
 1.5840	48.9800
 1.5880	48.9800
 1.5920	49.0300
 1.5960	49.0300
 1.6000	49.1800
 1.6040	49.2400
 1.6080	49.3100
 1.6120	49.2900
 1.6160	49.2900
 1.6200	49.3700
 1.6240	49.3700
 1.6280	49.3300
 1.6320	49.3600
 1.6360	49.3500
 1.6400	49.3400
 1.6440	49.3400
 1.6480	49.4100
 1.6520	49.3800
 1.6560	49.4100
 1.6600	49.4600
 1.6640	49.5700
 1.6680	49.6200
 1.6720	49.6200
 1.6760	49.7000
 1.6800	49.7000
 1.6840	49.7600
 1.6880	49.7900
 1.6920	49.8100
 1.6960	49.8100
 1.7000	49.9300
 1.7040	49.8700
 1.7080	49.9000
 1.7120	50.0700
 1.7160	49.9600
 1.7200	50.0500
 1.7240	50.1300
 1.7280	50.1100
 1.7320	50.1200
 1.7360	50.0800
 1.7400	50.1900
 1.7440	50.2400
 1.7480	50.2100
 1.7520	50.2100
 1.7560	50.2900
 1.7600	50.3400
 1.7640	50.3900
 1.7680	50.4200
 1.7720	50.3600
 1.7760	50.3300
 1.7800	50.3900
 1.7840	50.3600
 1.7880	50.4400
 1.7920	50.4300
 1.7960	50.4100
 1.8000	50.3900
 1.8040	50.3800
 1.8080	50.3700
 1.8120	50.4100
 1.8160	50.3700
 1.8200	50.3200
 1.8240	50.3300
 1.8280	50.2500
 1.8320	50.2300
 1.8360	50.2000
 1.8400	50.1700
 1.8440	50.0700
 1.8480	50.0600
 1.8520	50.0900
 1.8560	49.9100
 1.8600	49.7900
 1.8640	49.7300
 1.8680	49.5600
 1.8720	49.3000
 1.8760	48.9300
 1.8800	48.5300
 1.8840	47.9900
 1.8880	47.3600
 1.8920	46.7100
 1.8960	45.9700
 1.9000	45.2600
 1.9040	44.7700
 1.9080	44.2900
 1.9120	44.0200
 1.9160	43.9600
 1.9200	44.1100
 1.9240	44.2800
 1.9280	44.5000
 1.9320	44.7100
 1.9360	44.9600
 1.9400	45.1300
 1.9440	45.3000
 1.9480	45.4400
 1.9520	45.6700
 1.9560	45.7500
 1.9600	45.8600
 1.9640	46.0100
 1.9680	46.1200
 1.9720	46.3600
 1.9760	46.5800
 1.9800	46.7100
 1.9840	46.8100
 1.9880	46.9700
 1.9920	47.1800
 1.9960	47.3000
 2.0000	47.4700
 2.0040	47.5700
 2.0080	47.7900
 2.0120	47.9800
 2.0160	48.1600
 2.0200	48.3000
 2.0240	48.5000
 2.0280	48.6400
 2.0320	48.8300
 2.0360	48.9600
 2.0400	49.1200
 2.0440	49.2000
 2.0480	49.3300
 2.0520	49.3900
 2.0560	49.4900
 2.0600	49.6100
 2.0640	49.6700
 2.0680	49.7300
 2.0720	49.8200
 2.0760	49.9200
 2.0800	50.0300
 2.0840	50.0900
 2.0880	50.0600
 2.0920	50.0800
 2.0960	50.0500
 2.1000	50.0600
 2.1040	50.0500
 2.1080	50.0800
 2.1120	50.0900
 2.1160	50.1000
 2.1200	50.1000
 2.1240	49.9900
 2.1280	49.9300
 2.1320	49.9100
 2.1360	49.8800
 2.1400	49.7600
 2.1440	49.6300
 2.1480	49.4300
 2.1520	49.2100
 2.1560	48.8100
 2.1600	48.5400
 2.1640	48.1800
 2.1680	47.8000
 2.1720	47.4400
 2.1760	47.0000
 2.1800	46.6700
 2.1840	46.3300
 2.1880	46.1800
 2.1920	45.9700
 2.1960	45.9800
 2.2000	46.0700
 2.2040	45.9900
 2.2080	45.9900
 2.2120	45.9400
 2.2160	45.7900
 2.2200	45.6400
 2.2240	45.2400
 2.2280	44.9400
 2.2320	44.5100
 2.2360	44.1000
 2.2400	43.7200
 2.2440	43.3600
 2.2480	43.0800
 2.2520	42.8400
 2.2560	42.7500
 2.2600	42.5600
 2.2640	42.5000
 2.2680	42.3900
 2.2720	42.2500
 2.2760	42.1700
 2.2800	41.8400
 2.2840	41.6300
 2.2880	41.3800
 2.2920	41.0800
 2.2960	40.6900
 2.3000	40.3000
 2.3040	39.6600
 2.3080	39.1100
 2.3120	38.5800
 2.3160	37.9600
 2.3200	37.3900
 2.3240	36.7700
 2.3280	36.1200
 2.3320	35.6300
 2.3360	35.2000
 2.3400	34.8900
 2.3440	34.6900
 2.3480	34.5900
 2.3520	34.6400
 2.3560	34.7500
 2.3600	35.0400
 2.3640	35.4200
 2.3680	35.8200
 2.3720	36.3100
 2.3760	36.7800
 2.3800	37.1700
 2.3840	37.5600
 2.3880	37.8600
 2.3920	38.1100
 2.3960	38.3600
 2.4000	38.4900
 2.4040	38.5600
 2.4080	38.5800
 2.4120	38.6500
 2.4160	38.5600
 2.4200	38.4400
 2.4240	38.3600
 2.4280	38.1500
 2.4320	37.9600
 2.4360	37.7200
 2.4400	37.5300
 2.4440	37.3200
 2.4480	37.0700
 2.4520	36.9200
 2.4560	36.7200
 2.4600	36.5300
 2.4640	36.4300
 2.4680	36.3100
 2.4720	36.2700
 2.4760	36.1500
 2.4800	36.2300
 2.4840	36.2200
 2.4880	36.2300
 2.4920	36.2700
 2.4960	36.2500
 2.5000	36.2700
