Name: Triphylite Li(Mn,Fe)PO_4
Type: Mineral
Class: Phosphate
Subclass: None
Particle Size: Medium
Sample No.: P-4A
Owner: JPL
Wavelength Range: VSWIR
Origin: USA, New Hampshire, North Graton, Palermo Mine
Collection Date: N/A
Description: Particle size was 45-125um.Collected by Burminco Original ASTER Spectral Library name was jpl.beckman.mineral.phosphate.none.medium.p04a.spectrum.txt
Measurement: Hemispherical reflectance
First Column: X
Second Column: Y
X Units: Wavelength (micrometers)
Y Units:Reflectance (percent)
First X Value:  0.4000
Last X Value:  2.5000
Number of X Values: 826
Additional Information: mineral.phosphate.none.medium.vswir.p-4a.jpl.beckman.ancillary.txt

 0.4000	38.6300
 0.4010	38.1300
 0.4020	37.7000
 0.4030	37.5200
 0.4040	36.9200
 0.4050	35.7500
 0.4060	35.0300
 0.4070	36.4200
 0.4080	37.8800
 0.4090	39.1100
 0.4100	40.4700
 0.4110	41.8100
 0.4120	42.8100
 0.4130	43.4700
 0.4140	44.0000
 0.4150	44.3300
 0.4160	44.6300
 0.4170	44.9800
 0.4180	45.0100
 0.4190	45.2200
 0.4200	45.1600
 0.4210	45.2500
 0.4220	45.2800
 0.4230	45.3100
 0.4240	45.4600
 0.4250	45.6400
 0.4260	45.7600
 0.4270	45.8500
 0.4280	45.8800
 0.4290	45.9700
 0.4300	46.0900
 0.4310	46.0300
 0.4320	46.0300
 0.4330	46.0200
 0.4340	45.7900
 0.4350	45.6400
 0.4360	45.3100
 0.4370	45.1600
 0.4380	44.9500
 0.4390	44.5700
 0.4400	44.3700
 0.4410	44.1600
 0.4420	43.9800
 0.4430	43.7200
 0.4440	43.5900
 0.4450	43.5700
 0.4460	43.3800
 0.4470	43.0400
 0.4480	42.7700
 0.4490	42.5300
 0.4500	42.2600
 0.4510	42.0200
 0.4520	41.9100
 0.4530	41.8100
 0.4540	41.8300
 0.4550	41.6100
 0.4560	41.5700
 0.4570	41.5500
 0.4580	41.7100
 0.4590	41.8000
 0.4600	41.9300
 0.4610	42.2800
 0.4620	42.2400
 0.4630	42.0500
 0.4640	41.8200
 0.4650	41.5000
 0.4660	40.7500
 0.4670	40.0200
 0.4680	39.1600
 0.4690	38.5500
 0.4700	38.9900
 0.4710	40.4100
 0.4720	42.3900
 0.4730	44.5200
 0.4740	46.1100
 0.4750	47.4900
 0.4760	48.4300
 0.4770	49.3600
 0.4780	50.0100
 0.4790	50.1800
 0.4800	50.5400
 0.4810	50.6200
 0.4820	50.5200
 0.4830	50.2300
 0.4840	50.0200
 0.4850	49.6900
 0.4860	49.4000
 0.4870	48.8400
 0.4880	48.4400
 0.4890	47.8200
 0.4900	47.1200
 0.4910	46.6800
 0.4920	46.4200
 0.4930	46.2600
 0.4940	46.1100
 0.4950	45.6500
 0.4960	45.2100
 0.4970	45.3600
 0.4980	46.1100
 0.4990	47.1900
 0.5000	48.1000
 0.5010	49.0400
 0.5020	49.8800
 0.5030	50.5300
 0.5040	51.0500
 0.5050	51.5100
 0.5060	51.8300
 0.5070	52.1500
 0.5080	52.1900
 0.5090	52.3400
 0.5100	52.4300
 0.5110	52.5200
 0.5120	52.6500
 0.5130	52.6500
 0.5140	52.8000
 0.5150	52.9200
 0.5160	52.8900
 0.5170	53.0400
 0.5180	53.1000
 0.5190	53.2500
 0.5200	53.3600
 0.5210	53.2500
 0.5220	53.4700
 0.5230	53.6500
 0.5240	53.5200
 0.5250	53.5500
 0.5260	53.7500
 0.5270	53.7800
 0.5280	53.9200
 0.5290	53.7600
 0.5300	53.8500
 0.5310	53.9100
 0.5320	53.8700
 0.5330	53.7800
 0.5340	53.8200
 0.5350	53.6600
 0.5360	53.6400
 0.5370	53.4900
 0.5380	53.4600
 0.5390	53.4100
 0.5400	53.2700
 0.5410	53.0700
 0.5420	52.8300
 0.5430	52.8000
 0.5440	52.7100
 0.5450	52.4500
 0.5460	52.3300
 0.5470	52.0700
 0.5480	51.9400
 0.5490	51.9300
 0.5500	51.7200
 0.5510	51.6300
 0.5520	51.4700
 0.5530	51.3100
 0.5540	51.0700
 0.5550	50.9600
 0.5560	50.9300
 0.5570	50.9500
 0.5580	50.7000
 0.5590	50.6900
 0.5600	50.7000
 0.5610	50.7700
 0.5620	50.5800
 0.5630	50.6600
 0.5640	50.6700
 0.5650	50.7000
 0.5660	50.6900
 0.5670	50.6200
 0.5680	50.7300
 0.5690	50.5800
 0.5700	50.5800
 0.5710	50.6200
 0.5720	50.6500
 0.5730	50.5300
 0.5740	50.5100
 0.5750	50.4100
 0.5760	50.5700
 0.5770	50.5000
 0.5780	50.4400
 0.5790	50.5100
 0.5800	50.4300
 0.5810	50.2800
 0.5820	50.2200
 0.5830	49.9800
 0.5840	50.0100
 0.5850	49.8000
 0.5860	49.5600
 0.5870	49.5900
 0.5880	49.4800
 0.5890	49.3300
 0.5900	49.1500
 0.5910	48.9400
 0.5920	49.0000
 0.5930	48.7400
 0.5940	48.4700
 0.5950	48.4700
 0.5960	48.4100
 0.5970	48.2300
 0.5980	48.0500
 0.5990	48.0100
 0.6000	48.1200
 0.6010	48.0800
 0.6020	47.9600
 0.6030	48.0200
 0.6040	48.0400
 0.6050	48.3900
 0.6060	48.3200
 0.6070	48.4400
 0.6080	48.6900
 0.6090	49.0000
 0.6100	49.2300
 0.6110	49.5000
 0.6120	49.7900
 0.6130	50.3400
 0.6140	50.5300
 0.6150	50.9500
 0.6160	51.4900
 0.6170	52.0100
 0.6180	52.5200
 0.6190	52.9800
 0.6200	53.4900
 0.6210	54.1400
 0.6220	54.6300
 0.6230	55.1200
 0.6240	55.7100
 0.6250	56.2800
 0.6260	56.7500
 0.6270	57.2400
 0.6280	57.6700
 0.6290	58.2000
 0.6300	58.6100
 0.6310	58.9600
 0.6320	59.4000
 0.6330	59.7700
 0.6340	60.2100
 0.6350	60.3200
 0.6360	60.5900
 0.6370	60.8600
 0.6380	61.1500
 0.6390	61.3100
 0.6400	61.4000
 0.6410	61.3800
 0.6420	61.6700
 0.6430	61.6900
 0.6440	61.6300
 0.6450	61.8000
 0.6460	61.8800
 0.6470	61.8400
 0.6480	61.9200
 0.6490	61.8600
 0.6500	61.8200
 0.6510	61.6900
 0.6520	61.5800
 0.6530	61.5700
 0.6540	61.5200
 0.6550	61.4000
 0.6560	61.3300
 0.6570	61.2300
 0.6580	61.1300
 0.6590	60.8700
 0.6600	60.7100
 0.6610	60.7600
 0.6620	60.7100
 0.6630	60.5900
 0.6640	60.4600
 0.6650	60.1700
 0.6660	60.2300
 0.6670	59.9800
 0.6680	59.7500
 0.6690	59.8000
 0.6700	59.7100
 0.6710	59.5700
 0.6720	59.4400
 0.6730	59.2600
 0.6740	59.3100
 0.6750	59.0900
 0.6760	58.9600
 0.6770	58.8800
 0.6780	58.7800
 0.6790	58.6600
 0.6800	58.4600
 0.6810	58.3800
 0.6820	58.3800
 0.6830	58.2100
 0.6840	58.1300
 0.6850	58.0500
 0.6860	57.9400
 0.6870	57.9700
 0.6880	57.7800
 0.6890	57.6600
 0.6900	57.5800
 0.6910	57.6200
 0.6920	57.3900
 0.6930	57.4100
 0.6940	57.3700
 0.6950	57.3400
 0.6960	57.1800
 0.6970	56.9900
 0.6980	57.0500
 0.6990	56.9500
 0.7000	56.8900
 0.7010	56.9300
 0.7020	56.9000
 0.7030	56.7900
 0.7040	56.7500
 0.7050	56.7700
 0.7060	56.7000
 0.7070	56.6500
 0.7080	56.5900
 0.7090	56.5500
 0.7100	56.5600
 0.7110	56.4800
 0.7120	56.6500
 0.7130	56.6700
 0.7140	56.5700
 0.7150	56.5200
 0.7160	56.4800
 0.7170	56.5400
 0.7180	56.6400
 0.7190	56.5000
 0.7200	56.6300
 0.7210	56.6900
 0.7220	56.6300
 0.7230	56.6500
 0.7240	56.6600
 0.7250	56.7000
 0.7260	56.8400
 0.7270	56.7400
 0.7280	56.8800
 0.7290	57.0000
 0.7300	57.1300
 0.7310	57.1700
 0.7320	57.1500
 0.7330	57.2200
 0.7340	57.3200
 0.7350	57.2900
 0.7360	57.4400
 0.7370	57.6400
 0.7380	57.6200
 0.7390	57.6500
 0.7400	57.7500
 0.7410	57.9300
 0.7420	58.0300
 0.7430	58.0300
 0.7440	58.1800
 0.7450	58.3500
 0.7460	58.3300
 0.7470	58.4800
 0.7480	58.4900
 0.7490	58.7600
 0.7500	58.8200
 0.7510	58.8900
 0.7520	58.9100
 0.7530	59.0100
 0.7540	59.2200
 0.7550	59.2100
 0.7560	59.2100
 0.7570	59.3000
 0.7580	59.4500
 0.7590	59.4100
 0.7600	59.4300
 0.7610	59.4900
 0.7620	59.6300
 0.7630	59.7000
 0.7640	59.6600
 0.7650	59.7500
 0.7660	59.7900
 0.7670	59.7600
 0.7680	59.9100
 0.7690	59.8700
 0.7700	59.8700
 0.7710	59.9700
 0.7720	59.8000
 0.7730	59.8300
 0.7740	59.8500
 0.7750	59.6700
 0.7760	59.6800
 0.7770	59.5900
 0.7780	59.5100
 0.7790	59.5500
 0.7800	59.4200
 0.7810	59.4000
 0.7820	59.2200
 0.7830	59.1900
 0.7840	59.2100
 0.7850	58.9500
 0.7860	58.8800
 0.7870	58.8200
 0.7880	58.7800
 0.7890	58.6300
 0.7900	58.4000
 0.7910	58.1500
 0.7920	58.1800
 0.7930	57.9300
 0.7940	57.7600
 0.7950	57.6900
 0.7960	57.5100
 0.7970	57.3200
 0.7980	57.0200
 0.7990	56.9300
 0.8000	56.2800
 0.8040	55.3700
 0.8080	54.4100
 0.8120	53.1500
 0.8160	51.9400
 0.8200	50.6600
 0.8240	49.3600
 0.8280	47.9300
 0.8320	46.4500
 0.8360	45.0000
 0.8400	43.6200
 0.8440	42.1300
 0.8480	40.5400
 0.8520	39.0800
 0.8560	37.4600
 0.8600	36.0500
 0.8640	34.6000
 0.8680	33.1200
 0.8720	31.7800
 0.8760	30.4700
 0.8800	29.1800
 0.8840	27.9500
 0.8880	26.6200
 0.8920	25.4500
 0.8960	24.3600
 0.9000	23.3400
 0.9040	22.3200
 0.9080	21.3200
 0.9120	20.4000
 0.9160	19.6400
 0.9200	18.8500
 0.9240	17.9300
 0.9280	17.2400
 0.9320	16.5200
 0.9360	15.9000
 0.9400	15.3400
 0.9440	14.6700
 0.9480	14.2100
 0.9520	13.7000
 0.9560	13.2000
 0.9600	12.7400
 0.9640	12.3900
 0.9680	12.0500
 0.9720	11.6200
 0.9760	11.3000
 0.9800	10.9600
 0.9840	10.6600
 0.9880	10.3700
 0.9920	10.2100
 0.9960	 9.9500
 1.0000	 9.8800
 1.0040	 9.5800
 1.0080	 9.3900
 1.0120	 9.2000
 1.0160	 9.0400
 1.0200	 8.9900
 1.0240	 8.8800
 1.0280	 8.7500
 1.0320	 8.6700
 1.0360	 8.5300
 1.0400	 8.4900
 1.0440	 8.4900
 1.0480	 8.4400
 1.0520	 8.3200
 1.0560	 8.2700
 1.0600	 8.3300
 1.0640	 8.4000
 1.0680	 8.3600
 1.0720	 8.3600
 1.0760	 8.3500
 1.0800	 8.3900
 1.0840	 8.4700
 1.0880	 8.4400
 1.0920	 8.5500
 1.0960	 8.6000
 1.1000	 8.6300
 1.1040	 8.7700
 1.1080	 8.9100
 1.1120	 8.9900
 1.1160	 9.1100
 1.1200	 9.2500
 1.1240	 9.3000
 1.1280	 9.4600
 1.1320	 9.6300
 1.1360	 9.8200
 1.1400	10.0200
 1.1440	10.1500
 1.1480	10.3400
 1.1520	10.4400
 1.1560	10.7000
 1.1600	10.8800
 1.1640	11.0600
 1.1680	11.1700
 1.1720	11.3500
 1.1760	11.4900
 1.1800	11.6400
 1.1840	11.7400
 1.1880	11.9100
 1.1920	12.1000
 1.1960	12.2400
 1.2000	12.2700
 1.2040	12.3500
 1.2080	12.5000
 1.2120	12.6700
 1.2160	12.7200
 1.2200	12.7000
 1.2240	12.6800
 1.2280	12.7500
 1.2320	12.8300
 1.2360	12.7200
 1.2400	12.8100
 1.2440	12.7700
 1.2480	12.8100
 1.2520	12.7900
 1.2560	12.8500
 1.2600	12.6800
 1.2640	12.7000
 1.2680	12.6800
 1.2720	12.6800
 1.2760	12.5700
 1.2800	12.5700
 1.2840	12.5700
 1.2880	12.5300
 1.2920	12.4000
 1.2960	12.3600
 1.3000	12.4100
 1.3040	12.3300
 1.3080	12.3000
 1.3120	12.1900
 1.3160	12.1300
 1.3200	12.1900
 1.3240	12.1800
 1.3280	12.1800
 1.3320	12.0800
 1.3360	12.1200
 1.3400	12.0900
 1.3440	12.0800
 1.3480	12.0800
 1.3520	11.9800
 1.3560	12.0500
 1.3600	12.0400
 1.3640	12.1200
 1.3680	12.1200
 1.3720	12.0600
 1.3760	12.0600
 1.3800	12.1200
 1.3840	12.1900
 1.3880	12.1300
 1.3920	12.1500
 1.3960	12.2300
 1.4000	12.3500
 1.4040	12.3500
 1.4080	12.4000
 1.4120	12.4500
 1.4160	12.5200
 1.4200	12.6500
 1.4240	12.7300
 1.4280	12.6800
 1.4320	12.8500
 1.4360	12.9100
 1.4400	13.0500
 1.4440	13.1500
 1.4480	13.2000
 1.4520	13.3200
 1.4560	13.4300
 1.4600	13.5500
 1.4640	13.6800
 1.4680	13.8300
 1.4720	13.9500
 1.4760	14.0800
 1.4800	14.2400
 1.4840	14.3200
 1.4880	14.5200
 1.4920	14.6800
 1.4960	14.9600
 1.5000	15.0000
 1.5040	15.1700
 1.5080	15.3400
 1.5120	15.5500
 1.5160	15.7800
 1.5200	15.9800
 1.5240	16.1100
 1.5280	16.3700
 1.5320	16.6100
 1.5360	16.8200
 1.5400	17.0100
 1.5440	17.2300
 1.5480	17.5400
 1.5520	17.8000
 1.5560	18.0100
 1.5600	18.2100
 1.5640	18.5000
 1.5680	18.8100
 1.5720	19.0800
 1.5760	19.3800
 1.5800	19.6000
 1.5840	19.8900
 1.5880	20.2800
 1.5920	20.6300
 1.5960	20.8400
 1.6000	21.1800
 1.6040	21.4700
 1.6080	21.9100
 1.6120	22.3100
 1.6160	22.5200
 1.6200	22.8900
 1.6240	23.3300
 1.6280	23.6500
 1.6320	24.0700
 1.6360	24.4200
 1.6400	24.7200
 1.6440	25.2000
 1.6480	25.5800
 1.6520	26.0200
 1.6560	26.4200
 1.6600	26.8100
 1.6640	27.2400
 1.6680	27.7700
 1.6720	28.1100
 1.6760	28.5600
 1.6800	29.0200
 1.6840	29.4900
 1.6880	29.9100
 1.6920	30.3600
 1.6960	30.9100
 1.7000	31.4600
 1.7040	31.9200
 1.7080	32.4100
 1.7120	32.9100
 1.7160	33.4000
 1.7200	33.9500
 1.7240	34.4200
 1.7280	34.9600
 1.7320	35.4300
 1.7360	36.0100
 1.7400	36.5500
 1.7440	36.9400
 1.7480	37.4600
 1.7520	38.0500
 1.7560	38.6300
 1.7600	39.1100
 1.7640	39.5900
 1.7680	40.1700
 1.7720	40.7900
 1.7760	41.2900
 1.7800	41.8100
 1.7840	42.4300
 1.7880	43.0200
 1.7920	43.4700
 1.7960	44.0400
 1.8000	44.6400
 1.8040	45.2300
 1.8080	45.6800
 1.8120	46.1500
 1.8160	46.8100
 1.8200	47.3700
 1.8240	47.8600
 1.8280	48.4000
 1.8320	48.9500
 1.8360	49.5300
 1.8400	50.0800
 1.8440	50.6200
 1.8480	51.1300
 1.8520	51.6300
 1.8560	52.2200
 1.8600	52.6800
 1.8640	53.1900
 1.8680	53.7400
 1.8720	54.2900
 1.8760	54.7700
 1.8800	55.0900
 1.8840	55.4900
 1.8880	55.9200
 1.8920	56.3500
 1.8960	56.7300
 1.9000	57.2000
 1.9040	57.6400
 1.9080	58.0500
 1.9120	58.4600
 1.9160	58.9100
 1.9200	59.4200
 1.9240	59.8100
 1.9280	60.2300
 1.9320	60.6600
 1.9360	61.0400
 1.9400	61.4800
 1.9440	62.0000
 1.9480	62.4200
 1.9520	62.7200
 1.9560	63.1500
 1.9600	63.6200
 1.9640	64.1300
 1.9680	64.5200
 1.9720	64.9400
 1.9760	65.3300
 1.9800	65.8200
 1.9840	66.2400
 1.9880	66.6300
 1.9920	67.0000
 1.9960	67.5200
 2.0000	67.9600
 2.0040	68.2600
 2.0080	68.4900
 2.0120	68.9700
 2.0160	69.2800
 2.0200	69.7700
 2.0240	69.9700
 2.0280	70.2400
 2.0320	70.5800
 2.0360	71.0100
 2.0400	71.3100
 2.0440	71.6300
 2.0480	71.8400
 2.0520	72.0800
 2.0560	72.4300
 2.0600	72.6800
 2.0640	72.8700
 2.0680	73.2000
 2.0720	73.4400
 2.0760	73.6600
 2.0800	73.8800
 2.0840	74.2400
 2.0880	74.4600
 2.0920	74.6200
 2.0960	74.8900
 2.1000	75.1300
 2.1040	75.4200
 2.1080	75.5500
 2.1120	75.7600
 2.1160	75.9800
 2.1200	76.2100
 2.1240	76.3700
 2.1280	76.4500
 2.1320	76.6100
 2.1360	76.8500
 2.1400	76.9100
 2.1440	77.0700
 2.1480	77.1100
 2.1520	77.2500
 2.1560	77.3400
 2.1600	77.3900
 2.1640	77.4300
 2.1680	77.5000
 2.1720	77.5700
 2.1760	77.7000
 2.1800	77.7100
 2.1840	77.7900
 2.1880	77.8500
 2.1920	77.9800
 2.1960	78.0200
 2.2000	78.0500
 2.2040	78.0500
 2.2080	78.1100
 2.2120	78.1300
 2.2160	78.1400
 2.2200	78.2600
 2.2240	78.3900
 2.2280	78.4300
 2.2320	78.4300
 2.2360	78.4000
 2.2400	78.5000
 2.2440	78.6000
 2.2480	78.5500
 2.2520	78.6200
 2.2560	78.6900
 2.2600	78.6100
 2.2640	78.6800
 2.2680	78.7200
 2.2720	78.7400
 2.2760	78.7500
 2.2800	78.8500
 2.2840	78.7200
 2.2880	78.7300
 2.2920	78.7800
 2.2960	78.7100
 2.3000	78.7100
 2.3040	78.6800
 2.3080	78.7700
 2.3120	78.7900
 2.3160	78.8500
 2.3200	78.8400
 2.3240	78.8300
 2.3280	78.7200
 2.3320	78.7100
 2.3360	78.7500
 2.3400	78.6100
 2.3440	78.5300
 2.3480	78.6600
 2.3520	78.5800
 2.3560	78.4100
 2.3600	78.3100
 2.3640	78.2300
 2.3680	78.1200
 2.3720	78.0500
 2.3760	77.9200
 2.3800	77.8800
 2.3840	77.7500
 2.3880	77.6900
 2.3920	77.5600
 2.3960	77.5100
 2.4000	77.4300
 2.4040	77.2900
 2.4080	77.2400
 2.4120	77.1200
 2.4160	77.0300
 2.4200	76.9300
 2.4240	76.7300
 2.4280	76.7100
 2.4320	76.6400
 2.4360	76.4900
 2.4400	76.2700
 2.4440	76.1300
 2.4480	76.0200
 2.4520	75.8800
 2.4560	75.7800
 2.4600	75.6500
 2.4640	75.6100
 2.4680	75.4000
 2.4720	75.2600
 2.4760	75.1700
 2.4800	75.0900
 2.4840	75.1000
 2.4880	75.0600
 2.4920	75.0300
 2.4960	75.0100
 2.5000	74.9700
