Name: Calcite CaCO_3
Type: Mineral
Class: Carbonate
Subclass: None
Particle Size: Coarse
Sample No.: C-3E
Owner: JPL
Wavelength Range: VSWIR
Origin: 
Collection Date: N/A
Description: Particle size was 125-500um.Collected by JPL Original ASTER Spectral Library name was jpl.beckman.mineral.carbonate.none.coarse.c03e.spectrum.txt
Measurement: Hemispherical reflectance
First Column: X
Second Column: Y
X Units: Wavelength (micrometers)
Y Units:Reflectance (percent)
First X Value:  0.4000
Last X Value:  2.5000
Number of X Values: 826
Additional Information: mineral.carbonate.none.coarse.vswir.c-3e.jpl.beckman.ancillary.txt

 0.4000	63.8900
 0.4010	64.7400
 0.4020	65.1500
 0.4030	65.3800
 0.4040	65.5500
 0.4050	66.0600
 0.4060	66.6300
 0.4070	66.9200
 0.4080	67.2100
 0.4090	67.0900
 0.4100	67.6600
 0.4110	68.1200
 0.4120	68.5200
 0.4130	68.6400
 0.4140	68.8000
 0.4150	69.1500
 0.4160	69.4400
 0.4170	69.9000
 0.4180	70.2900
 0.4190	70.2900
 0.4200	70.4600
 0.4210	70.6900
 0.4220	71.1000
 0.4230	71.5000
 0.4240	71.6600
 0.4250	71.6600
 0.4260	71.8900
 0.4270	72.1800
 0.4280	72.6400
 0.4290	72.9300
 0.4300	73.0400
 0.4310	72.9300
 0.4320	73.3200
 0.4330	73.7300
 0.4340	73.9600
 0.4350	74.2400
 0.4360	74.1900
 0.4370	74.3600
 0.4380	74.5800
 0.4390	74.8100
 0.4400	75.1600
 0.4410	75.2100
 0.4420	75.2700
 0.4430	75.4400
 0.4440	75.6700
 0.4450	76.0100
 0.4460	76.1800
 0.4470	76.2400
 0.4480	76.1300
 0.4490	76.4700
 0.4500	76.7600
 0.4510	76.9300
 0.4520	76.9900
 0.4530	76.7100
 0.4540	76.9400
 0.4550	77.2800
 0.4560	77.5100
 0.4570	77.6200
 0.4580	77.4600
 0.4590	77.6900
 0.4600	77.8100
 0.4610	77.9200
 0.4620	78.1400
 0.4630	77.9800
 0.4640	78.2700
 0.4650	78.4400
 0.4660	78.7900
 0.4670	78.5000
 0.4680	78.3300
 0.4690	78.5600
 0.4700	78.8500
 0.4710	79.2500
 0.4720	79.1900
 0.4730	78.9100
 0.4740	78.9100
 0.4750	79.2000
 0.4760	79.4900
 0.4770	79.4900
 0.4780	79.3800
 0.4790	79.2100
 0.4800	79.5000
 0.4810	79.7300
 0.4820	79.8400
 0.4830	79.9000
 0.4840	79.7300
 0.4850	79.6700
 0.4860	79.9000
 0.4870	80.0700
 0.4880	80.2600
 0.4890	80.0800
 0.4900	79.9700
 0.4910	80.0800
 0.4920	80.3100
 0.4930	80.5000
 0.4940	80.5000
 0.4950	80.3200
 0.4960	80.2100
 0.4970	80.5000
 0.4980	80.6700
 0.4990	80.6700
 0.5000	80.6700
 0.5010	80.5500
 0.5020	80.6700
 0.5030	80.9000
 0.5040	80.9000
 0.5050	80.9000
 0.5060	80.8400
 0.5070	80.7300
 0.5080	80.9000
 0.5090	80.9600
 0.5100	81.2400
 0.5110	81.0100
 0.5120	80.9000
 0.5130	80.9600
 0.5140	81.1900
 0.5150	81.4200
 0.5160	81.3000
 0.5170	81.0100
 0.5180	81.0700
 0.5190	81.4200
 0.5200	81.5900
 0.5210	81.5300
 0.5220	81.4200
 0.5230	81.1300
 0.5240	81.2400
 0.5250	81.5900
 0.5260	81.5300
 0.5270	81.5300
 0.5280	81.4200
 0.5290	81.4200
 0.5300	81.5900
 0.5310	81.6500
 0.5320	81.8200
 0.5330	81.7600
 0.5340	81.5300
 0.5350	81.5900
 0.5360	81.7600
 0.5370	82.0400
 0.5380	81.9900
 0.5390	81.9400
 0.5400	81.7600
 0.5410	82.0400
 0.5420	82.1600
 0.5430	82.1000
 0.5440	81.9400
 0.5450	81.7600
 0.5460	81.9400
 0.5470	82.2700
 0.5480	82.2700
 0.5490	82.2700
 0.5500	82.2100
 0.5510	82.2700
 0.5520	82.4400
 0.5530	82.5600
 0.5540	82.8500
 0.5550	82.5600
 0.5560	82.3300
 0.5570	82.3900
 0.5580	82.5600
 0.5590	82.5000
 0.5600	83.1400
 0.5610	83.1400
 0.5620	82.9600
 0.5630	82.7900
 0.5640	82.6700
 0.5650	82.9100
 0.5660	83.0800
 0.5670	82.8500
 0.5680	82.7900
 0.5690	82.5600
 0.5700	82.5600
 0.5710	82.7300
 0.5720	82.7300
 0.5730	82.9600
 0.5740	82.5000
 0.5750	82.3900
 0.5760	82.5000
 0.5770	82.7900
 0.5780	82.9600
 0.5790	82.7300
 0.5800	82.4400
 0.5810	82.3900
 0.5820	82.5000
 0.5830	82.7300
 0.5840	82.6700
 0.5850	82.5600
 0.5860	82.5600
 0.5870	82.7900
 0.5880	83.0800
 0.5890	83.0200
 0.5900	82.9600
 0.5910	82.7300
 0.5920	82.7900
 0.5930	83.0800
 0.5940	83.1400
 0.5950	83.0800
 0.5960	82.6700
 0.5970	82.8500
 0.5980	83.0200
 0.5990	83.1900
 0.6000	83.4200
 0.6010	83.1900
 0.6020	83.0200
 0.6030	83.2500
 0.6040	83.4200
 0.6050	83.7600
 0.6060	83.5400
 0.6070	83.3100
 0.6080	83.3100
 0.6090	83.4200
 0.6100	83.6500
 0.6110	83.6000
 0.6120	83.4800
 0.6130	83.2500
 0.6140	83.4200
 0.6150	83.7000
 0.6160	83.6500
 0.6170	83.5400
 0.6180	83.3700
 0.6190	83.3100
 0.6200	83.6000
 0.6210	83.6500
 0.6220	83.7600
 0.6230	83.4800
 0.6240	83.4800
 0.6250	83.6000
 0.6260	83.7600
 0.6270	83.8700
 0.6280	83.7000
 0.6290	83.5400
 0.6300	83.6000
 0.6310	83.7000
 0.6320	83.9900
 0.6330	83.9300
 0.6340	83.8200
 0.6350	83.6000
 0.6360	83.8700
 0.6370	84.1600
 0.6380	84.0500
 0.6390	83.9300
 0.6400	83.8200
 0.6410	83.8200
 0.6420	83.9300
 0.6430	84.0500
 0.6440	84.2200
 0.6450	84.0500
 0.6460	83.8700
 0.6470	84.1000
 0.6480	84.2800
 0.6490	84.3900
 0.6500	84.2200
 0.6510	84.1000
 0.6520	84.2200
 0.6530	84.3400
 0.6540	84.6200
 0.6550	84.3900
 0.6560	84.2200
 0.6570	84.1000
 0.6580	84.3400
 0.6590	84.5700
 0.6600	84.5100
 0.6610	84.2800
 0.6620	84.1600
 0.6630	84.3900
 0.6640	84.6800
 0.6650	84.5700
 0.6660	84.6200
 0.6670	84.4500
 0.6680	84.3900
 0.6690	84.6800
 0.6700	84.6800
 0.6710	84.8000
 0.6720	84.5700
 0.6730	84.4500
 0.6740	84.6200
 0.6750	84.6800
 0.6760	84.8500
 0.6770	84.6800
 0.6780	84.5700
 0.6790	84.5100
 0.6800	84.6800
 0.6810	84.9100
 0.6820	84.9700
 0.6830	84.7400
 0.6840	84.5700
 0.6850	84.8000
 0.6860	85.1400
 0.6870	84.9700
 0.6880	85.0300
 0.6890	84.8000
 0.6900	84.9100
 0.6910	84.9700
 0.6920	85.0800
 0.6930	85.0300
 0.6940	84.9700
 0.6950	84.8500
 0.6960	84.9100
 0.6970	85.1400
 0.6980	85.3100
 0.6990	85.2000
 0.7000	84.9100
 0.7010	84.7400
 0.7020	84.9700
 0.7030	85.0800
 0.7040	85.0300
 0.7050	84.9700
 0.7060	84.9700
 0.7070	84.7400
 0.7080	85.0300
 0.7090	85.3100
 0.7100	85.2600
 0.7110	85.1400
 0.7120	84.9100
 0.7130	85.0800
 0.7140	85.4200
 0.7150	85.4200
 0.7160	85.2000
 0.7170	85.1400
 0.7180	85.2000
 0.7190	85.4200
 0.7200	85.5300
 0.7210	85.4800
 0.7220	85.3100
 0.7230	85.3100
 0.7240	85.2000
 0.7250	85.4200
 0.7260	85.5300
 0.7270	85.3600
 0.7280	85.2000
 0.7290	85.0300
 0.7300	85.3100
 0.7310	85.5300
 0.7320	85.3600
 0.7330	85.2600
 0.7340	84.8500
 0.7350	84.9700
 0.7360	85.2600
 0.7370	85.3600
 0.7380	85.3100
 0.7390	85.0300
 0.7400	85.1400
 0.7410	85.2600
 0.7420	85.3600
 0.7430	85.3600
 0.7440	85.3100
 0.7450	85.2600
 0.7460	85.1400
 0.7470	85.3600
 0.7480	85.5900
 0.7490	85.5300
 0.7500	85.4800
 0.7510	85.2000
 0.7520	85.3600
 0.7530	85.8200
 0.7540	85.6500
 0.7550	85.4200
 0.7560	85.2000
 0.7570	85.4200
 0.7580	85.7100
 0.7590	85.7700
 0.7600	85.5900
 0.7610	85.3600
 0.7620	85.4200
 0.7630	85.5300
 0.7640	85.7700
 0.7650	85.7700
 0.7660	85.4200
 0.7670	85.3100
 0.7680	85.5900
 0.7690	85.5900
 0.7700	85.7100
 0.7710	85.6500
 0.7720	85.5900
 0.7730	85.4800
 0.7740	85.6500
 0.7750	85.8200
 0.7760	85.6500
 0.7770	85.6500
 0.7780	85.3100
 0.7790	85.5300
 0.7800	85.7700
 0.7810	85.6500
 0.7820	85.5900
 0.7830	85.3600
 0.7840	85.5900
 0.7850	85.8200
 0.7860	85.8800
 0.7870	85.7700
 0.7880	85.4200
 0.7890	85.5300
 0.7900	85.6500
 0.7910	85.7100
 0.7920	85.7100
 0.7930	85.4800
 0.7940	85.3100
 0.7950	85.5900
 0.7960	85.6500
 0.7970	85.6500
 0.7980	85.4200
 0.7990	85.5900
 0.8000	85.5700
 0.8040	85.4800
 0.8080	85.7100
 0.8120	85.6500
 0.8160	85.5900
 0.8200	85.6500
 0.8240	85.5900
 0.8280	85.7100
 0.8320	85.4200
 0.8360	85.6500
 0.8400	85.6500
 0.8440	85.5900
 0.8480	85.5300
 0.8520	85.4800
 0.8560	85.4800
 0.8600	85.4200
 0.8640	85.2600
 0.8680	85.2600
 0.8720	84.9700
 0.8760	85.0800
 0.8800	85.0300
 0.8840	84.9100
 0.8880	84.9100
 0.8920	84.8500
 0.8960	84.6800
 0.9000	84.5100
 0.9040	84.5100
 0.9080	84.4500
 0.9120	84.3900
 0.9160	84.2800
 0.9200	84.0500
 0.9240	84.1600
 0.9280	83.8700
 0.9320	83.8700
 0.9360	83.7000
 0.9400	83.6500
 0.9440	83.5400
 0.9480	83.4200
 0.9520	83.3700
 0.9560	83.0800
 0.9600	83.0200
 0.9640	82.8500
 0.9680	82.7300
 0.9720	82.6200
 0.9760	82.5600
 0.9800	82.3300
 0.9840	82.1000
 0.9880	81.9400
 0.9920	81.9400
 0.9960	81.7600
 1.0000	81.5900
 1.0040	81.5300
 1.0080	81.1900
 1.0120	81.1900
 1.0160	80.9000
 1.0200	80.7800
 1.0240	80.6100
 1.0280	80.6100
 1.0320	80.4400
 1.0360	80.3800
 1.0400	80.2200
 1.0440	80.2200
 1.0480	80.1000
 1.0520	79.8100
 1.0560	79.7600
 1.0600	79.7600
 1.0640	79.4100
 1.0680	79.4700
 1.0720	79.3000
 1.0760	79.1200
 1.0800	79.0700
 1.0840	79.1800
 1.0880	79.1800
 1.0920	79.0100
 1.0960	79.1200
 1.1000	78.9500
 1.1040	78.9500
 1.1080	78.7200
 1.1120	78.8900
 1.1160	78.8400
 1.1200	78.7200
 1.1240	78.9500
 1.1280	79.0100
 1.1320	78.8400
 1.1360	78.8400
 1.1400	78.7800
 1.1440	78.8900
 1.1480	78.8900
 1.1520	79.0100
 1.1560	79.0100
 1.1600	79.0000
 1.1640	79.1000
 1.1680	79.2100
 1.1720	79.1500
 1.1760	79.2000
 1.1800	79.4800
 1.1840	79.3500
 1.1880	79.2400
 1.1920	79.3500
 1.1960	79.5100
 1.2000	79.6200
 1.2040	79.5600
 1.2080	79.6800
 1.2120	79.5600
 1.2160	79.6800
 1.2200	79.7300
 1.2240	79.7900
 1.2280	79.8500
 1.2320	79.7900
 1.2360	80.0200
 1.2400	80.0200
 1.2440	80.0200
 1.2480	80.0800
 1.2520	80.1900
 1.2560	80.1900
 1.2600	80.1200
 1.2640	80.1700
 1.2680	80.1600
 1.2720	80.2100
 1.2760	80.1500
 1.2800	80.1500
 1.2840	80.2500
 1.2880	80.1800
 1.2920	80.3000
 1.2960	80.2900
 1.3000	80.1100
 1.3040	80.2700
 1.3080	80.2700
 1.3120	80.3300
 1.3160	80.1400
 1.3200	80.3100
 1.3240	80.3000
 1.3280	80.2300
 1.3320	80.3400
 1.3360	80.2900
 1.3400	80.2200
 1.3440	80.0900
 1.3480	80.0300
 1.3520	80.0800
 1.3560	80.0800
 1.3600	80.0800
 1.3640	80.0800
 1.3680	79.9700
 1.3720	80.0800
 1.3760	80.1400
 1.3800	80.0800
 1.3840	79.9700
 1.3880	80.1400
 1.3920	80.0800
 1.3960	79.9100
 1.4000	79.8500
 1.4040	80.0400
 1.4080	79.9300
 1.4120	79.8700
 1.4160	79.9400
 1.4200	79.8900
 1.4240	80.0100
 1.4280	79.9000
 1.4320	80.0800
 1.4360	80.0900
 1.4400	80.0400
 1.4440	80.1600
 1.4480	80.1600
 1.4520	80.0500
 1.4560	80.0500
 1.4600	80.0500
 1.4640	80.2200
 1.4680	80.1600
 1.4720	80.3900
 1.4760	80.3400
 1.4800	80.2800
 1.4840	80.4500
 1.4880	80.5100
 1.4920	80.6200
 1.4960	80.6200
 1.5000	80.6800
 1.5040	80.8000
 1.5080	80.8500
 1.5120	80.8000
 1.5160	80.9700
 1.5200	81.0300
 1.5240	80.9100
 1.5280	80.9700
 1.5320	80.9700
 1.5360	81.2000
 1.5400	81.2500
 1.5440	81.3100
 1.5480	81.3100
 1.5520	81.2000
 1.5560	81.3100
 1.5600	81.2500
 1.5640	81.4200
 1.5680	81.4800
 1.5720	81.6500
 1.5760	81.7700
 1.5800	81.8200
 1.5840	82.0000
 1.5880	82.1100
 1.5920	82.2800
 1.5960	82.2300
 1.6000	82.3400
 1.6040	82.4500
 1.6080	82.4900
 1.6120	82.4900
 1.6160	82.5400
 1.6200	82.6500
 1.6240	82.4600
 1.6280	82.5100
 1.6320	82.5700
 1.6360	82.5100
 1.6400	82.6200
 1.6440	82.6700
 1.6480	82.7100
 1.6520	82.6000
 1.6560	82.8800
 1.6600	82.8700
 1.6640	82.9100
 1.6680	83.0200
 1.6720	83.0800
 1.6760	83.3000
 1.6800	83.2900
 1.6840	83.1700
 1.6880	83.1600
 1.6920	83.1000
 1.6960	83.0900
 1.7000	82.9700
 1.7040	82.9700
 1.7080	82.9100
 1.7120	82.7400
 1.7160	82.5800
 1.7200	82.6800
 1.7240	82.5200
 1.7280	82.6300
 1.7320	82.6300
 1.7360	82.5200
 1.7400	82.5200
 1.7440	82.5800
 1.7480	82.7400
 1.7520	82.6300
 1.7560	82.8000
 1.7600	83.0300
 1.7640	83.2000
 1.7680	83.5400
 1.7720	83.8200
 1.7760	84.1100
 1.7800	84.1100
 1.7840	84.2800
 1.7880	84.2800
 1.7920	84.1700
 1.7960	84.1700
 1.8000	84.0000
 1.8040	83.9800
 1.8080	83.7100
 1.8120	83.5700
 1.8160	83.2000
 1.8200	82.7800
 1.8240	82.5300
 1.8280	82.1100
 1.8320	81.6200
 1.8360	81.1400
 1.8400	80.7100
 1.8440	80.1700
 1.8480	79.8100
 1.8520	79.1700
 1.8560	78.5400
 1.8600	77.9100
 1.8640	76.8700
 1.8680	76.4700
 1.8720	76.2500
 1.8760	76.5700
 1.8800	77.3000
 1.8840	78.2600
 1.8880	79.4500
 1.8920	80.2900
 1.8960	81.2000
 1.9000	81.8700
 1.9040	82.2600
 1.9080	82.4800
 1.9120	82.6000
 1.9160	82.6400
 1.9200	82.6900
 1.9240	82.6200
 1.9280	82.6100
 1.9320	82.2800
 1.9360	82.1000
 1.9400	81.7500
 1.9440	81.1700
 1.9480	80.8800
 1.9520	80.4700
 1.9560	79.9400
 1.9600	79.5300
 1.9640	79.1200
 1.9680	78.6900
 1.9720	78.0000
 1.9760	77.4600
 1.9800	76.9900
 1.9840	76.1900
 1.9880	76.0500
 1.9920	75.9800
 1.9960	76.1800
 2.0000	76.8500
 2.0040	77.6900
 2.0080	78.6400
 2.0120	79.6600
 2.0160	80.8700
 2.0200	81.8000
 2.0240	82.2900
 2.0280	82.9500
 2.0320	83.5200
 2.0360	83.9300
 2.0400	84.0200
 2.0440	84.3400
 2.0480	84.4400
 2.0520	84.4400
 2.0560	84.5200
 2.0600	84.4300
 2.0640	84.6200
 2.0680	84.3600
 2.0720	84.4900
 2.0760	84.2300
 2.0800	84.0900
 2.0840	83.8900
 2.0880	83.6800
 2.0920	83.4200
 2.0960	82.9400
 2.1000	82.7400
 2.1040	82.3700
 2.1080	82.0100
 2.1120	81.4700
 2.1160	81.1000
 2.1200	80.7400
 2.1240	79.9500
 2.1280	79.2200
 2.1320	78.5200
 2.1360	77.6800
 2.1400	76.7900
 2.1440	75.9900
 2.1480	75.6300
 2.1520	75.1900
 2.1560	75.0700
 2.1600	75.1400
 2.1640	75.5100
 2.1680	75.8300
 2.1720	76.2600
 2.1760	76.8500
 2.1800	77.0600
 2.1840	77.1800
 2.1880	77.2500
 2.1920	77.0900
 2.1960	76.9200
 2.2000	76.5400
 2.2040	76.2000
 2.2080	75.3600
 2.2120	74.8000
 2.2160	74.1000
 2.2200	73.2300
 2.2240	72.3900
 2.2280	71.4800
 2.2320	70.2800
 2.2360	69.1300
 2.2400	68.1000
 2.2440	66.8600
 2.2480	65.6200
 2.2520	64.2000
 2.2560	62.8800
 2.2600	61.2700
 2.2640	59.7000
 2.2680	58.1800
 2.2720	56.7100
 2.2760	55.1100
 2.2800	53.5800
 2.2840	52.2600
 2.2880	50.7900
 2.2920	49.5800
 2.2960	48.2400
 2.3000	46.7400
 2.3040	45.5000
 2.3080	44.0200
 2.3120	42.8900
 2.3160	41.8600
 2.3200	40.9500
 2.3240	40.1300
 2.3280	39.6600
 2.3320	39.4600
 2.3360	39.8100
 2.3400	40.7300
 2.3440	42.2200
 2.3480	44.3600
 2.3520	46.8400
 2.3560	49.7700
 2.3600	52.8100
 2.3640	55.7200
 2.3680	58.7000
 2.3720	61.0700
 2.3760	63.4000
 2.3800	65.0100
 2.3840	66.3100
 2.3880	67.0100
 2.3920	67.4400
 2.3960	67.8200
 2.4000	67.6600
 2.4040	67.3700
 2.4080	67.0400
 2.4120	66.4200
 2.4160	65.6500
 2.4200	64.7400
 2.4240	63.5700
 2.4280	62.3000
 2.4320	60.9700
 2.4360	59.5200
 2.4400	57.9100
 2.4440	56.1400
 2.4480	54.3500
 2.4520	52.4700
 2.4560	50.4200
 2.4600	48.5900
 2.4640	46.5900
 2.4680	44.6500
 2.4720	43.0400
 2.4760	41.3200
 2.4800	39.7700
 2.4840	38.3300
 2.4880	36.9400
 2.4920	35.6700
 2.4960	34.4500
 2.5000	33.6200
