Name: Gahnite ZnAl_2O_4
Type: Mineral
Class: Oxide
Subclass: None
Particle Size: Medium
Sample No.: O-11A
Owner: JPL
Wavelength Range: VSWIR
Origin: Nigeria, Kaduna, Jemaa, Godogodo Mine.
Collection Date: N/A
Description: Particle size was 45-125um.Collected by:  New, David Original ASTER Spectral Library name was jpl.perkin.mineral.oxide.none.medium.o11a.spectrum.txt
Measurement: Hemispherical reflectance
First Column: X
Second Column: Y
X Units: Wavelength (micrometers)
Y Units:Reflectance (percent)
First X Value:  2.5000
Last X Value:  0.4000
Number of X Values: 2101
Additional Information: mineral.oxide.none.medium.vswir.o-11a.jpl.perkin.ancillary.txt

 2.5000	 3.7363
 2.4990	 4.1724
 2.4980	 4.1104
 2.4970	 4.2763
 2.4960	 3.8247
 2.4950	 4.3181
 2.4940	 4.0659
 2.4930	 4.0688
 2.4920	 3.7482
 2.4910	 4.2577
 2.4900	 3.8460
 2.4890	 3.9856
 2.4880	 3.9528
 2.4870	 4.1200
 2.4860	 3.9465
 2.4850	 4.1115
 2.4840	 4.0644
 2.4830	 4.1255
 2.4820	 4.0000
 2.4810	 4.0066
 2.4800	 3.9448
 2.4790	 4.0752
 2.4780	 3.9255
 2.4770	 4.1030
 2.4760	 4.0244
 2.4750	 4.0320
 2.4740	 4.1169
 2.4730	 4.1243
 2.4720	 4.0420
 2.4710	 4.0176
 2.4700	 4.0234
 2.4690	 4.1984
 2.4680	 4.0769
 2.4670	 4.0996
 2.4660	 4.1926
 2.4650	 4.1341
 2.4640	 3.9381
 2.4630	 4.2344
 2.4620	 3.9399
 2.4610	 4.1169
 2.4600	 4.0650
 2.4590	 4.1534
 2.4580	 3.9843
 2.4570	 4.1594
 2.4560	 4.0557
 2.4550	 3.9973
 2.4540	 4.0554
 2.4530	 4.2647
 2.4520	 4.0503
 2.4510	 4.0766
 2.4500	 4.0549
 2.4490	 4.1441
 2.4480	 4.0067
 2.4470	 4.1196
 2.4460	 4.0762
 2.4450	 4.2249
 2.4440	 4.0146
 2.4430	 4.0401
 2.4420	 4.0246
 2.4410	 4.1147
 2.4400	 3.9981
 2.4390	 4.0877
 2.4380	 4.0926
 2.4370	 4.0627
 2.4360	 4.0962
 2.4350	 4.1523
 2.4340	 4.0898
 2.4330	 4.1336
 2.4320	 4.0806
 2.4310	 4.0874
 2.4300	 4.0582
 2.4290	 4.1392
 2.4280	 4.0794
 2.4270	 4.1595
 2.4260	 4.0826
 2.4250	 4.1683
 2.4240	 4.0762
 2.4230	 4.1813
 2.4220	 4.1475
 2.4210	 4.1403
 2.4200	 4.1380
 2.4190	 4.1818
 2.4180	 4.0229
 2.4170	 4.1349
 2.4160	 4.0474
 2.4150	 4.1171
 2.4140	 4.1487
 2.4130	 4.1631
 2.4120	 4.1216
 2.4110	 4.2590
 2.4100	 4.0996
 2.4090	 4.1790
 2.4080	 4.1738
 2.4070	 4.2627
 2.4060	 4.0952
 2.4050	 4.0945
 2.4040	 4.0780
 2.4030	 4.0948
 2.4020	 4.1302
 2.4010	 4.2118
 2.4000	 4.1535
 2.3990	 4.1829
 2.3980	 4.2038
 2.3970	 4.1391
 2.3960	 4.0714
 2.3950	 4.1242
 2.3940	 4.1657
 2.3930	 4.1742
 2.3920	 4.1209
 2.3910	 4.1665
 2.3900	 4.1502
 2.3890	 4.1406
 2.3880	 4.1806
 2.3870	 4.2090
 2.3860	 4.0843
 2.3850	 4.1746
 2.3840	 4.1201
 2.3830	 4.1208
 2.3820	 4.1305
 2.3810	 4.1803
 2.3800	 4.2235
 2.3790	 4.1840
 2.3780	 4.1778
 2.3770	 4.1717
 2.3760	 4.1399
 2.3750	 4.1753
 2.3740	 4.1761
 2.3730	 4.2377
 2.3720	 4.1997
 2.3710	 4.2078
 2.3700	 4.1467
 2.3690	 4.1631
 2.3680	 4.1928
 2.3670	 4.2234
 2.3660	 4.1805
 2.3650	 4.1819
 2.3640	 4.1548
 2.3630	 4.1102
 2.3620	 4.1644
 2.3610	 4.2279
 2.3600	 4.1969
 2.3590	 4.1623
 2.3580	 4.1449
 2.3570	 4.1817
 2.3560	 4.1865
 2.3550	 4.1961
 2.3540	 4.2226
 2.3530	 4.1728
 2.3520	 4.1425
 2.3510	 4.1631
 2.3500	 4.1874
 2.3490	 4.1749
 2.3480	 4.1810
 2.3470	 4.1974
 2.3460	 4.1942
 2.3450	 4.1396
 2.3440	 4.1655
 2.3430	 4.1785
 2.3420	 4.1815
 2.3410	 4.2297
 2.3400	 4.1787
 2.3390	 4.1111
 2.3380	 4.1448
 2.3370	 4.1388
 2.3360	 4.1399
 2.3350	 4.1417
 2.3340	 4.1905
 2.3330	 4.1017
 2.3320	 4.1464
 2.3310	 4.1556
 2.3300	 4.1557
 2.3290	 4.1534
 2.3280	 4.1539
 2.3270	 4.1391
 2.3260	 4.1126
 2.3250	 4.0842
 2.3240	 4.1896
 2.3230	 4.1507
 2.3220	 4.1557
 2.3210	 4.0826
 2.3200	 4.1149
 2.3190	 4.1232
 2.3180	 4.1691
 2.3170	 4.1756
 2.3160	 4.1829
 2.3150	 4.0986
 2.3140	 4.1668
 2.3130	 4.1041
 2.3120	 4.2048
 2.3110	 4.1384
 2.3100	 4.1046
 2.3090	 4.0856
 2.3080	 4.1598
 2.3070	 4.0961
 2.3060	 4.1504
 2.3050	 4.1076
 2.3040	 4.2118
 2.3030	 4.1227
 2.3020	 4.1077
 2.3010	 4.0824
 2.3000	 4.1021
 2.2990	 4.0633
 2.2980	 4.0992
 2.2970	 4.0990
 2.2960	 4.1968
 2.2950	 4.1043
 2.2940	 4.0731
 2.2930	 4.1044
 2.2920	 4.0903
 2.2910	 4.0486
 2.2900	 4.1223
 2.2890	 4.0343
 2.2880	 4.0294
 2.2870	 4.0279
 2.2860	 4.1024
 2.2850	 4.0187
 2.2840	 4.0830
 2.2830	 4.0583
 2.2820	 4.1127
 2.2810	 4.1052
 2.2800	 4.1294
 2.2790	 4.0184
 2.2780	 4.0440
 2.2770	 4.0886
 2.2760	 4.1258
 2.2750	 3.9937
 2.2740	 4.0293
 2.2730	 3.9974
 2.2720	 4.0662
 2.2710	 3.9845
 2.2700	 4.1275
 2.2690	 4.0097
 2.2680	 4.0311
 2.2670	 4.0498
 2.2660	 4.1178
 2.2650	 3.9849
 2.2640	 4.1012
 2.2630	 4.0480
 2.2620	 4.0342
 2.2610	 3.9254
 2.2600	 4.0644
 2.2590	 3.9836
 2.2580	 4.0720
 2.2570	 3.9696
 2.2560	 4.0160
 2.2550	 3.9800
 2.2540	 4.0122
 2.2530	 3.9622
 2.2520	 4.0122
 2.2510	 3.8835
 2.2500	 3.9451
 2.2490	 3.9585
 2.2480	 3.9950
 2.2470	 3.9726
 2.2460	 4.0027
 2.2450	 3.8974
 2.2440	 4.0296
 2.2430	 3.9655
 2.2420	 4.0824
 2.2410	 3.9199
 2.2400	 3.9460
 2.2390	 3.9057
 2.2380	 3.9973
 2.2370	 3.9179
 2.2360	 4.0482
 2.2350	 3.8272
 2.2340	 3.8856
 2.2330	 3.9479
 2.2320	 3.9355
 2.2310	 3.8969
 2.2300	 4.0043
 2.2290	 3.9211
 2.2280	 3.9189
 2.2270	 3.8292
 2.2260	 3.9093
 2.2250	 3.8342
 2.2240	 3.9391
 2.2230	 3.8150
 2.2220	 3.9298
 2.2210	 3.7860
 2.2200	 3.9774
 2.2190	 3.9012
 2.2180	 3.9412
 2.2170	 3.7745
 2.2160	 3.8795
 2.2150	 3.7458
 2.2140	 3.8672
 2.2130	 3.8147
 2.2120	 3.9972
 2.2110	 3.5733
 2.2100	 3.9416
 2.2090	 3.7636
 2.2080	 3.9459
 2.2070	 3.8314
 2.2060	 3.9423
 2.2050	 3.7822
 2.2040	 3.8566
 2.2030	 3.8291
 2.2020	 3.9028
 2.2010	 3.8085
 2.2000	 3.8973
 2.1990	 3.7776
 2.1980	 3.8545
 2.1970	 3.8042
 2.1960	 3.8293
 2.1950	 3.8282
 2.1940	 3.8814
 2.1930	 3.7760
 2.1920	 3.8753
 2.1910	 3.8571
 2.1900	 3.8857
 2.1890	 3.7535
 2.1880	 3.8705
 2.1870	 3.8344
 2.1860	 3.7781
 2.1850	 3.7099
 2.1840	 3.7898
 2.1830	 3.7686
 2.1820	 3.8364
 2.1810	 3.7221
 2.1800	 3.8438
 2.1790	 3.7393
 2.1780	 3.8562
 2.1770	 3.6954
 2.1760	 3.8672
 2.1750	 3.7583
 2.1740	 3.8584
 2.1730	 3.7565
 2.1720	 3.8114
 2.1710	 3.7906
 2.1700	 3.8949
 2.1690	 3.7194
 2.1680	 3.8074
 2.1670	 3.7090
 2.1660	 3.8173
 2.1650	 3.8087
 2.1640	 3.8103
 2.1630	 3.7785
 2.1620	 3.8030
 2.1610	 3.7498
 2.1600	 3.7226
 2.1590	 3.7256
 2.1580	 3.7702
 2.1570	 3.7400
 2.1560	 3.7594
 2.1550	 3.7905
 2.1540	 3.7978
 2.1530	 3.7549
 2.1520	 3.8216
 2.1510	 3.7640
 2.1500	 3.7886
 2.1490	 3.7430
 2.1480	 3.7613
 2.1470	 3.7251
 2.1460	 3.8136
 2.1450	 3.6700
 2.1440	 3.7680
 2.1430	 3.7345
 2.1420	 3.7634
 2.1410	 3.6733
 2.1400	 3.8311
 2.1390	 3.7280
 2.1380	 3.7617
 2.1370	 3.7176
 2.1360	 3.7242
 2.1350	 3.7018
 2.1340	 3.7229
 2.1330	 3.6859
 2.1320	 3.7516
 2.1310	 3.6451
 2.1300	 3.7807
 2.1290	 3.7391
 2.1280	 3.7175
 2.1270	 3.7607
 2.1260	 3.6837
 2.1250	 3.5985
 2.1240	 3.6839
 2.1230	 3.6522
 2.1220	 3.6695
 2.1210	 3.6641
 2.1200	 3.7004
 2.1190	 3.6278
 2.1180	 3.7176
 2.1170	 3.6513
 2.1160	 3.6571
 2.1150	 3.6742
 2.1140	 3.6890
 2.1130	 3.6114
 2.1120	 3.6501
 2.1110	 3.6645
 2.1100	 3.6869
 2.1090	 3.6819
 2.1080	 3.6375
 2.1070	 3.5860
 2.1060	 3.6623
 2.1050	 3.6004
 2.1040	 3.6214
 2.1030	 3.5960
 2.1020	 3.5819
 2.1010	 3.5924
 2.1000	 3.6993
 2.0990	 3.6129
 2.0980	 3.6135
 2.0970	 3.6148
 2.0960	 3.6431
 2.0950	 3.5878
 2.0940	 3.5846
 2.0930	 3.6128
 2.0920	 3.6178
 2.0910	 3.6238
 2.0900	 3.5900
 2.0890	 3.6082
 2.0880	 3.6651
 2.0870	 3.5968
 2.0860	 3.5896
 2.0850	 3.6081
 2.0840	 3.6269
 2.0830	 3.6426
 2.0820	 3.5741
 2.0810	 3.5315
 2.0800	 3.5960
 2.0790	 3.5835
 2.0780	 3.6136
 2.0770	 3.6239
 2.0760	 3.6103
 2.0750	 3.6515
 2.0740	 3.6952
 2.0730	 3.6198
 2.0720	 3.6314
 2.0710	 3.6299
 2.0700	 3.6255
 2.0690	 3.6239
 2.0680	 3.6367
 2.0670	 3.6126
 2.0660	 3.5977
 2.0650	 3.6276
 2.0640	 3.6617
 2.0630	 3.6503
 2.0620	 3.5991
 2.0610	 3.6669
 2.0600	 3.6202
 2.0590	 3.6526
 2.0580	 3.6948
 2.0570	 3.6968
 2.0560	 3.6749
 2.0550	 3.6110
 2.0540	 3.6102
 2.0530	 3.6739
 2.0520	 3.6337
 2.0510	 3.6760
 2.0500	 3.6855
 2.0490	 3.6323
 2.0480	 3.6438
 2.0470	 3.6955
 2.0460	 3.6478
 2.0450	 3.6851
 2.0440	 3.6372
 2.0430	 3.6721
 2.0420	 3.6434
 2.0410	 3.7097
 2.0400	 3.6357
 2.0390	 3.6320
 2.0380	 3.6135
 2.0370	 3.6599
 2.0360	 3.6654
 2.0350	 3.7338
 2.0340	 3.6511
 2.0330	 3.6317
 2.0320	 3.6310
 2.0310	 3.7247
 2.0300	 3.7258
 2.0290	 3.6696
 2.0280	 3.6519
 2.0270	 3.7014
 2.0260	 3.6258
 2.0250	 3.6636
 2.0240	 3.6917
 2.0230	 3.7250
 2.0220	 3.6366
 2.0210	 3.7524
 2.0200	 3.7276
 2.0190	 3.6924
 2.0180	 3.6720
 2.0170	 3.6950
 2.0160	 3.6707
 2.0150	 3.7085
 2.0140	 3.6141
 2.0130	 3.7248
 2.0120	 3.7206
 2.0110	 3.7294
 2.0100	 3.6535
 2.0090	 3.6787
 2.0080	 3.6456
 2.0070	 3.7878
 2.0060	 3.6556
 2.0050	 3.7216
 2.0040	 3.6951
 2.0030	 3.7504
 2.0020	 3.7424
 2.0010	 3.7385
 2.0000	 3.6767
 1.9990	 3.6888
 1.9980	 3.6402
 1.9970	 3.7372
 1.9960	 3.6788
 1.9950	 3.7212
 1.9940	 3.7825
 1.9930	 3.7888
 1.9920	 3.7374
 1.9910	 3.7932
 1.9900	 3.6963
 1.9890	 3.7107
 1.9880	 3.6825
 1.9870	 3.7551
 1.9860	 3.6590
 1.9850	 3.7552
 1.9840	 3.7546
 1.9830	 3.7267
 1.9820	 3.6727
 1.9810	 3.6979
 1.9800	 3.7188
 1.9790	 3.7432
 1.9780	 3.6847
 1.9770	 3.7793
 1.9760	 3.6840
 1.9750	 3.7443
 1.9740	 3.7384
 1.9730	 3.8247
 1.9720	 3.7185
 1.9710	 3.7840
 1.9700	 3.7961
 1.9690	 3.8532
 1.9680	 3.6890
 1.9670	 3.7962
 1.9660	 3.6910
 1.9650	 3.8701
 1.9640	 3.7175
 1.9630	 3.7062
 1.9620	 3.7136
 1.9610	 3.8846
 1.9600	 3.7350
 1.9590	 3.8793
 1.9580	 3.6910
 1.9570	 3.7952
 1.9560	 3.7284
 1.9550	 3.8520
 1.9540	 3.7342
 1.9530	 3.8552
 1.9520	 3.7239
 1.9510	 3.7990
 1.9500	 3.7597
 1.9490	 3.9237
 1.9480	 3.6989
 1.9470	 3.8978
 1.9460	 3.7843
 1.9450	 3.8727
 1.9440	 3.7350
 1.9430	 3.8113
 1.9420	 3.8024
 1.9410	 3.8477
 1.9400	 3.7697
 1.9390	 3.8648
 1.9380	 3.6920
 1.9370	 3.8587
 1.9360	 3.8015
 1.9350	 3.9628
 1.9340	 3.6936
 1.9330	 3.8902
 1.9320	 3.8011
 1.9310	 3.8444
 1.9300	 3.7307
 1.9290	 3.9133
 1.9280	 3.7873
 1.9270	 4.0311
 1.9260	 3.6229
 1.9250	 3.9151
 1.9240	 3.7424
 1.9230	 3.9102
 1.9220	 3.7615
 1.9210	 3.9073
 1.9200	 3.8419
 1.9190	 3.9654
 1.9180	 3.7798
 1.9170	 3.9012
 1.9160	 3.8451
 1.9150	 4.0090
 1.9140	 3.8251
 1.9130	 3.9168
 1.9120	 3.9332
 1.9110	 3.9529
 1.9100	 3.9456
 1.9090	 3.9384
 1.9080	 3.8892
 1.9070	 3.9624
 1.9060	 3.8734
 1.9050	 3.9425
 1.9040	 3.9101
 1.9030	 3.9439
 1.9020	 3.8825
 1.9010	 4.0100
 1.9000	 3.9342
 1.8990	 4.0013
 1.8980	 3.9470
 1.8970	 4.0861
 1.8960	 3.9755
 1.8950	 3.9915
 1.8940	 4.0067
 1.8930	 4.0358
 1.8920	 3.9443
 1.8910	 3.9950
 1.8900	 3.9864
 1.8890	 4.0328
 1.8880	 4.0320
 1.8870	 4.0911
 1.8860	 3.9670
 1.8850	 4.0309
 1.8840	 4.0114
 1.8830	 4.1508
 1.8820	 4.0043
 1.8810	 4.0735
 1.8800	 4.0662
 1.8790	 4.1140
 1.8780	 4.0309
 1.8770	 4.1346
 1.8760	 4.0493
 1.8750	 4.1101
 1.8740	 3.9727
 1.8730	 4.0627
 1.8720	 4.1268
 1.8710	 4.0754
 1.8700	 4.0090
 1.8690	 4.1364
 1.8680	 4.0501
 1.8670	 4.1074
 1.8660	 4.0839
 1.8650	 4.1360
 1.8640	 4.1307
 1.8630	 4.2569
 1.8620	 4.1767
 1.8610	 4.1868
 1.8600	 4.1317
 1.8590	 4.3175
 1.8580	 4.2005
 1.8570	 4.2162
 1.8560	 4.1600
 1.8550	 4.2382
 1.8540	 4.2298
 1.8530	 4.1878
 1.8520	 4.2207
 1.8510	 4.2380
 1.8500	 4.2067
 1.8490	 4.3218
 1.8480	 4.2603
 1.8470	 4.2563
 1.8460	 4.3298
 1.8450	 4.3660
 1.8440	 4.3299
 1.8430	 4.2807
 1.8420	 4.2603
 1.8410	 4.3764
 1.8400	 4.3194
 1.8390	 4.3052
 1.8380	 4.3418
 1.8370	 4.3731
 1.8360	 4.3754
 1.8350	 4.4005
 1.8340	 4.3722
 1.8330	 4.4250
 1.8320	 4.3970
 1.8310	 4.4130
 1.8300	 4.4389
 1.8290	 4.4708
 1.8280	 4.4230
 1.8270	 4.4614
 1.8260	 4.4662
 1.8250	 4.4853
 1.8240	 4.4740
 1.8230	 4.4817
 1.8220	 4.4509
 1.8210	 4.5166
 1.8200	 4.5244
 1.8190	 4.5543
 1.8180	 4.5179
 1.8170	 4.5503
 1.8160	 4.5303
 1.8150	 4.6104
 1.8140	 4.5719
 1.8130	 4.5892
 1.8120	 4.5960
 1.8110	 4.6214
 1.8100	 4.6296
 1.8090	 4.7014
 1.8080	 4.6884
 1.8070	 4.7340
 1.8060	 4.6870
 1.8050	 4.7421
 1.8040	 4.7620
 1.8030	 4.7745
 1.8020	 4.7668
 1.8010	 4.7520
 1.8000	 4.7776
 1.7990	 4.8244
 1.7980	 4.7836
 1.7970	 4.8735
 1.7960	 4.9012
 1.7950	 4.8548
 1.7940	 4.9154
 1.7930	 4.9707
 1.7920	 4.9009
 1.7910	 4.8870
 1.7900	 4.9305
 1.7890	 4.9421
 1.7880	 4.9596
 1.7870	 4.9955
 1.7860	 5.0241
 1.7850	 5.0246
 1.7840	 5.0083
 1.7830	 5.0837
 1.7820	 5.1710
 1.7810	 5.1255
 1.7800	 5.1165
 1.7790	 5.1367
 1.7780	 5.1187
 1.7770	 5.1277
 1.7760	 5.1613
 1.7750	 5.2265
 1.7740	 5.2280
 1.7730	 5.1820
 1.7720	 5.2118
 1.7710	 5.2751
 1.7700	 5.3275
 1.7690	 5.3230
 1.7680	 5.3565
 1.7670	 5.3038
 1.7660	 5.3686
 1.7650	 5.3761
 1.7640	 5.4157
 1.7630	 5.4545
 1.7620	 5.4717
 1.7610	 5.4492
 1.7600	 5.4986
 1.7590	 5.4965
 1.7580	 5.5780
 1.7570	 5.5659
 1.7560	 5.5929
 1.7550	 5.6511
 1.7540	 5.7057
 1.7530	 5.7184
 1.7520	 5.6819
 1.7510	 5.6837
 1.7500	 5.7499
 1.7490	 5.7652
 1.7480	 5.8296
 1.7470	 5.8193
 1.7460	 5.8263
 1.7450	 5.8037
 1.7440	 5.8798
 1.7430	 5.8758
 1.7420	 5.9031
 1.7410	 5.8887
 1.7400	 5.9768
 1.7390	 5.9631
 1.7380	 6.0346
 1.7370	 6.0696
 1.7360	 6.1118
 1.7350	 6.1119
 1.7340	 6.1619
 1.7330	 6.1879
 1.7320	 6.2595
 1.7310	 6.2154
 1.7300	 6.3222
 1.7290	 6.2795
 1.7280	 6.4100
 1.7270	 6.3594
 1.7260	 6.4388
 1.7250	 6.4232
 1.7240	 6.5536
 1.7230	 6.5040
 1.7220	 6.5278
 1.7210	 6.4941
 1.7200	 6.6204
 1.7190	 6.6272
 1.7180	 6.6588
 1.7170	 6.6810
 1.7160	 6.7588
 1.7150	 6.7419
 1.7140	 6.8233
 1.7130	 6.7873
 1.7120	 6.8779
 1.7110	 6.8836
 1.7100	 6.9741
 1.7090	 6.9989
 1.7080	 7.0257
 1.7070	 7.0326
 1.7060	 7.0999
 1.7050	 7.1567
 1.7040	 7.1850
 1.7030	 7.1477
 1.7020	 7.2877
 1.7010	 7.2318
 1.7000	 7.3293
 1.6990	 7.3273
 1.6980	 7.5043
 1.6970	 7.4990
 1.6960	 7.5008
 1.6950	 7.5128
 1.6940	 7.7029
 1.6930	 7.6367
 1.6920	 7.7513
 1.6910	 7.7551
 1.6900	 7.7915
 1.6890	 7.7298
 1.6880	 7.9142
 1.6870	 7.8798
 1.6860	 7.9956
 1.6850	 7.9789
 1.6840	 8.0965
 1.6830	 8.0218
 1.6820	 8.2211
 1.6810	 8.1252
 1.6800	 8.2409
 1.6790	 8.1531
 1.6780	 8.3437
 1.6770	 8.3763
 1.6760	 8.4961
 1.6750	 8.4485
 1.6740	 8.6266
 1.6730	 8.5199
 1.6720	 8.6553
 1.6710	 8.6080
 1.6700	 8.7503
 1.6690	 8.9890
 1.6680	 8.6969
 1.6670	 8.9533
 1.6660	 9.1072
 1.6650	 8.9140
 1.6640	 9.2318
 1.6630	 9.1392
 1.6620	 9.2422
 1.6610	 9.1638
 1.6600	 9.4345
 1.6590	 9.3309
 1.6580	 9.5172
 1.6570	 9.4513
 1.6560	 9.6627
 1.6550	 9.5897
 1.6540	 9.7936
 1.6530	 9.6658
 1.6520	 9.9062
 1.6510	 9.8678
 1.6500	10.1019
 1.6490	 9.9708
 1.6480	10.0852
 1.6470	10.1059
 1.6460	10.3024
 1.6450	10.2472
 1.6440	10.3829
 1.6430	10.3542
 1.6420	10.6181
 1.6410	10.3740
 1.6400	10.7403
 1.6390	10.6487
 1.6380	10.9263
 1.6370	10.8011
 1.6360	10.9909
 1.6350	10.9412
 1.6340	11.1721
 1.6330	11.0023
 1.6320	11.3038
 1.6310	11.2602
 1.6300	11.4240
 1.6290	11.4574
 1.6280	11.5767
 1.6270	11.5980
 1.6260	11.6974
 1.6250	11.7701
 1.6240	11.8849
 1.6230	11.8828
 1.6220	12.0674
 1.6210	12.0552
 1.6200	12.2718
 1.6190	12.2553
 1.6180	12.4223
 1.6170	12.4454
 1.6160	12.6094
 1.6150	12.5618
 1.6140	12.7125
 1.6130	12.8011
 1.6120	12.9525
 1.6110	12.8552
 1.6100	13.1458
 1.6090	13.0962
 1.6080	13.3906
 1.6070	13.2440
 1.6060	13.4422
 1.6050	13.4361
 1.6040	13.6638
 1.6030	13.6676
 1.6020	13.8151
 1.6010	13.8953
 1.6000	14.1347
 1.5990	14.0734
 1.5980	14.2772
 1.5970	14.2242
 1.5960	14.3907
 1.5950	14.3688
 1.5940	14.6123
 1.5930	14.6025
 1.5920	14.7680
 1.5910	14.8965
 1.5900	15.1154
 1.5890	15.1083
 1.5880	15.3371
 1.5870	15.2853
 1.5860	15.5504
 1.5850	15.5525
 1.5840	15.7491
 1.5830	15.7455
 1.5820	15.9257
 1.5810	15.9981
 1.5800	16.1568
 1.5790	16.3000
 1.5780	16.4624
 1.5770	16.4886
 1.5760	16.6064
 1.5750	16.7334
 1.5740	16.8248
 1.5730	16.9420
 1.5720	17.1337
 1.5710	17.1727
 1.5700	17.4068
 1.5690	17.4629
 1.5680	17.5933
 1.5670	17.6660
 1.5660	17.8522
 1.5650	17.9670
 1.5640	18.1048
 1.5630	18.2132
 1.5620	18.3274
 1.5610	18.4743
 1.5600	18.6119
 1.5590	18.6843
 1.5580	18.7844
 1.5570	18.9266
 1.5560	19.0991
 1.5550	19.2438
 1.5540	19.4139
 1.5530	19.4426
 1.5520	19.5780
 1.5510	19.7299
 1.5500	19.9087
 1.5490	20.0361
 1.5480	20.1933
 1.5470	20.2823
 1.5460	20.4589
 1.5450	20.6081
 1.5440	20.7437
 1.5430	20.8363
 1.5420	20.9867
 1.5410	21.1751
 1.5400	21.3165
 1.5390	21.3764
 1.5380	21.5719
 1.5370	21.7202
 1.5360	21.8346
 1.5350	21.9503
 1.5340	22.1108
 1.5330	22.2460
 1.5320	22.4316
 1.5310	22.5240
 1.5300	22.7241
 1.5290	22.7845
 1.5280	22.9719
 1.5270	23.0853
 1.5260	23.2182
 1.5250	23.3486
 1.5240	23.5263
 1.5230	23.6745
 1.5220	23.8358
 1.5210	23.9665
 1.5200	24.0775
 1.5190	24.1581
 1.5180	24.3542
 1.5170	24.4794
 1.5160	24.5924
 1.5150	24.7369
 1.5140	24.9285
 1.5130	25.0272
 1.5120	25.1612
 1.5110	25.3228
 1.5100	25.4225
 1.5090	25.5597
 1.5080	25.7675
 1.5070	25.9054
 1.5060	26.0507
 1.5050	26.1736
 1.5040	26.3394
 1.5030	26.5255
 1.5020	26.6769
 1.5010	26.8239
 1.5000	26.9997
 1.4990	27.1665
 1.4980	27.3092
 1.4970	27.4832
 1.4960	27.7084
 1.4950	27.9183
 1.4940	28.0774
 1.4930	28.2787
 1.4920	28.4904
 1.4910	28.7296
 1.4900	28.9254
 1.4890	29.1102
 1.4880	29.3266
 1.4870	29.5138
 1.4860	29.6544
 1.4850	29.8630
 1.4840	30.0474
 1.4830	30.2679
 1.4820	30.4300
 1.4810	30.6029
 1.4800	30.7701
 1.4790	31.0069
 1.4780	31.1900
 1.4770	31.3652
 1.4760	31.5602
 1.4750	31.7690
 1.4740	31.9230
 1.4730	32.0803
 1.4720	32.2672
 1.4710	32.4757
 1.4700	32.6560
 1.4690	32.8623
 1.4680	33.0408
 1.4670	33.2562
 1.4660	33.4291
 1.4650	33.5861
 1.4640	33.7083
 1.4630	33.9581
 1.4620	34.1139
 1.4610	34.2750
 1.4600	34.4888
 1.4590	34.6644
 1.4580	34.8796
 1.4570	35.0622
 1.4560	35.2032
 1.4550	35.4509
 1.4540	35.5718
 1.4530	35.8045
 1.4520	35.8991
 1.4510	36.1204
 1.4500	36.2577
 1.4490	36.4981
 1.4480	36.6621
 1.4470	36.8887
 1.4460	37.0553
 1.4450	37.1960
 1.4440	37.3193
 1.4430	37.5452
 1.4420	37.6758
 1.4410	37.9659
 1.4400	38.0472
 1.4390	38.2866
 1.4380	38.4082
 1.4370	38.5937
 1.4360	38.7454
 1.4350	38.8995
 1.4340	39.0696
 1.4330	39.3151
 1.4320	39.4063
 1.4310	39.6543
 1.4300	39.7873
 1.4290	39.9729
 1.4280	40.1806
 1.4270	40.3878
 1.4260	40.5540
 1.4250	40.6996
 1.4240	40.9537
 1.4230	41.1801
 1.4220	41.3452
 1.4210	41.5650
 1.4200	41.7214
 1.4190	41.9656
 1.4180	42.1078
 1.4170	42.3471
 1.4160	42.5229
 1.4150	42.7488
 1.4140	42.9200
 1.4130	43.1636
 1.4120	43.2516
 1.4110	43.4796
 1.4100	43.6977
 1.4090	43.9525
 1.4080	44.0777
 1.4070	44.2569
 1.4060	44.3631
 1.4050	44.5745
 1.4040	44.7644
 1.4030	44.9701
 1.4020	45.1154
 1.4010	45.3606
 1.4000	45.4540
 1.3990	45.7534
 1.3980	45.8705
 1.3970	46.1436
 1.3960	46.2921
 1.3950	46.4599
 1.3940	46.6596
 1.3930	46.8258
 1.3920	46.9997
 1.3910	47.2313
 1.3900	47.3686
 1.3890	47.7356
 1.3880	47.7386
 1.3870	48.0088
 1.3860	48.1974
 1.3850	48.3992
 1.3840	48.5292
 1.3830	48.7069
 1.3820	48.8098
 1.3810	49.0372
 1.3800	49.2943
 1.3790	49.4570
 1.3780	49.5832
 1.3770	49.8256
 1.3760	49.9824
 1.3750	50.2022
 1.3740	50.3293
 1.3730	50.4787
 1.3720	50.5915
 1.3710	50.8288
 1.3700	51.0276
 1.3690	51.3175
 1.3680	51.3634
 1.3670	51.5634
 1.3660	51.5520
 1.3650	51.7971
 1.3640	51.8888
 1.3630	52.1786
 1.3620	52.3269
 1.3610	52.3616
 1.3600	52.5421
 1.3590	52.7511
 1.3580	52.9015
 1.3570	53.0671
 1.3560	53.3343
 1.3550	53.2644
 1.3540	53.4760
 1.3530	53.6208
 1.3520	53.8025
 1.3510	54.0585
 1.3500	54.0554
 1.3490	54.2595
 1.3480	54.3701
 1.3470	54.5462
 1.3460	54.5953
 1.3450	54.8068
 1.3440	54.9036
 1.3430	55.1640
 1.3420	55.2388
 1.3410	55.3715
 1.3400	55.4539
 1.3390	55.5951
 1.3380	55.7129
 1.3370	55.9270
 1.3360	55.8486
 1.3350	56.1346
 1.3340	56.1952
 1.3330	56.3542
 1.3320	56.3260
 1.3310	56.5434
 1.3300	56.5816
 1.3290	56.7492
 1.3280	56.7057
 1.3270	56.9086
 1.3260	56.9184
 1.3250	57.1318
 1.3240	57.1300
 1.3230	57.3115
 1.3220	57.2741
 1.3210	57.3475
 1.3200	57.4116
 1.3190	57.5287
 1.3180	57.5527
 1.3170	57.6668
 1.3160	57.6997
 1.3150	57.7052
 1.3140	57.7313
 1.3130	57.7803
 1.3120	57.9805
 1.3110	57.9923
 1.3100	57.8939
 1.3090	58.0823
 1.3080	58.1222
 1.3070	58.2796
 1.3060	58.1883
 1.3050	58.3388
 1.3040	58.2907
 1.3030	58.4091
 1.3020	58.4751
 1.3010	58.5474
 1.3000	58.5309
 1.2990	58.6534
 1.2980	58.6974
 1.2970	58.8327
 1.2960	58.8789
 1.2950	58.9087
 1.2940	58.9898
 1.2930	59.1028
 1.2920	59.1702
 1.2910	59.2364
 1.2900	59.2760
 1.2890	59.3867
 1.2880	59.4484
 1.2870	59.5641
 1.2860	59.5989
 1.2850	59.6829
 1.2840	59.8202
 1.2830	59.9230
 1.2820	59.9798
 1.2810	60.1973
 1.2800	60.3388
 1.2790	60.3403
 1.2780	60.4530
 1.2770	60.5617
 1.2760	60.6822
 1.2750	60.7922
 1.2740	60.8734
 1.2730	61.0033
 1.2720	61.1067
 1.2710	61.1841
 1.2700	61.2347
 1.2690	61.3854
 1.2680	61.4210
 1.2670	61.5064
 1.2660	61.5826
 1.2650	61.6254
 1.2640	61.6620
 1.2630	61.7660
 1.2620	61.8225
 1.2610	61.8975
 1.2600	61.8934
 1.2590	61.9227
 1.2580	61.9225
 1.2570	62.0257
 1.2560	62.0192
 1.2550	62.0792
 1.2540	62.1243
 1.2530	62.2136
 1.2520	62.1743
 1.2510	62.2095
 1.2500	62.2981
 1.2490	62.3202
 1.2480	62.3393
 1.2470	62.4481
 1.2460	62.4956
 1.2450	62.5980
 1.2440	62.6533
 1.2430	62.7127
 1.2420	62.7525
 1.2410	62.8047
 1.2400	62.9003
 1.2390	62.9566
 1.2380	62.9497
 1.2370	63.0428
 1.2360	63.0780
 1.2350	63.1998
 1.2340	63.2637
 1.2330	63.2547
 1.2320	63.3436
 1.2310	63.4145
 1.2300	63.4541
 1.2290	63.5655
 1.2280	63.5837
 1.2270	63.6366
 1.2260	63.7198
 1.2250	63.7436
 1.2240	63.7876
 1.2230	63.8945
 1.2220	63.9588
 1.2210	63.9937
 1.2200	64.0858
 1.2190	64.1523
 1.2180	64.2535
 1.2170	64.3395
 1.2160	64.3805
 1.2150	64.4939
 1.2140	64.5920
 1.2130	64.6863
 1.2120	64.8113
 1.2110	64.8733
 1.2100	65.0179
 1.2090	65.1291
 1.2080	65.1970
 1.2070	65.2842
 1.2060	65.3605
 1.2050	65.4330
 1.2040	65.5670
 1.2030	65.6140
 1.2020	65.7016
 1.2010	65.8695
 1.2000	65.9536
 1.1990	66.0679
 1.1980	66.1551
 1.1970	66.2000
 1.1960	66.2451
 1.1950	66.3272
 1.1940	66.4520
 1.1930	66.5383
 1.1920	66.6743
 1.1910	66.7598
 1.1900	66.8472
 1.1890	66.9983
 1.1880	67.0631
 1.1870	67.1804
 1.1860	67.2434
 1.1850	67.2940
 1.1840	67.3987
 1.1830	67.4252
 1.1820	67.5596
 1.1810	67.6330
 1.1800	67.6798
 1.1790	67.8149
 1.1780	67.8652
 1.1770	67.8581
 1.1760	67.9575
 1.1750	68.0818
 1.1740	68.1097
 1.1730	68.0941
 1.1720	68.2508
 1.1710	68.3194
 1.1700	68.3816
 1.1690	68.4200
 1.1680	68.4960
 1.1670	68.5396
 1.1660	68.6155
 1.1650	68.6429
 1.1640	68.7337
 1.1630	68.7822
 1.1620	68.7966
 1.1610	68.8701
 1.1600	68.9542
 1.1590	68.9906
 1.1580	69.0264
 1.1570	69.0741
 1.1560	69.1260
 1.1550	69.1586
 1.1540	69.2329
 1.1530	69.2067
 1.1520	69.2423
 1.1510	69.3876
 1.1500	69.4263
 1.1490	69.4089
 1.1480	69.5630
 1.1470	69.4721
 1.1460	69.5263
 1.1450	69.5538
 1.1440	69.5754
 1.1430	69.6154
 1.1420	69.6370
 1.1410	69.6582
 1.1400	69.6997
 1.1390	69.6984
 1.1380	69.7284
 1.1370	69.7224
 1.1360	69.7971
 1.1350	69.7528
 1.1340	69.8585
 1.1330	69.9055
 1.1320	69.8898
 1.1310	69.9569
 1.1300	69.9322
 1.1290	69.8484
 1.1280	69.9286
 1.1270	69.9003
 1.1260	69.9577
 1.1250	69.9669
 1.1240	70.0101
 1.1230	69.9535
 1.1220	69.9725
 1.1210	69.8955
 1.1200	70.0599
 1.1190	70.0373
 1.1180	70.0904
 1.1170	70.0577
 1.1160	70.0966
 1.1150	70.0657
 1.1140	70.0038
 1.1130	70.0243
 1.1120	70.0309
 1.1110	70.0752
 1.1100	70.0952
 1.1090	69.9862
 1.1080	70.0815
 1.1070	70.0700
 1.1060	70.1056
 1.1050	70.0649
 1.1040	70.0252
 1.1030	70.0813
 1.1020	69.9628
 1.1010	69.9309
 1.1000	69.9765
 1.0990	69.9524
 1.0980	70.0366
 1.0970	69.9227
 1.0960	69.9818
 1.0950	69.8456
 1.0940	69.9546
 1.0930	69.8379
 1.0920	69.7896
 1.0910	69.8228
 1.0900	69.7595
 1.0890	69.7594
 1.0880	69.7921
 1.0870	69.7310
 1.0860	69.7140
 1.0850	69.6675
 1.0840	69.6124
 1.0830	69.5176
 1.0820	69.5631
 1.0810	69.3865
 1.0800	69.4732
 1.0790	69.3973
 1.0780	69.3610
 1.0770	69.3009
 1.0760	69.2049
 1.0750	69.2265
 1.0740	69.1617
 1.0730	69.1366
 1.0720	69.1082
 1.0710	69.0974
 1.0700	68.8308
 1.0690	68.9330
 1.0680	68.8874
 1.0670	68.7180
 1.0660	68.7177
 1.0650	68.6030
 1.0640	68.6179
 1.0630	68.5246
 1.0620	68.4697
 1.0610	68.3748
 1.0600	68.3339
 1.0590	68.1523
 1.0580	68.2168
 1.0570	68.0507
 1.0560	67.9944
 1.0550	68.0053
 1.0540	67.8467
 1.0530	67.7454
 1.0520	67.7222
 1.0510	67.6148
 1.0500	67.5928
 1.0490	67.4294
 1.0480	67.3647
 1.0470	67.3112
 1.0460	67.1960
 1.0450	67.1361
 1.0440	66.9964
 1.0430	66.8966
 1.0420	66.8424
 1.0410	66.7309
 1.0400	66.6796
 1.0390	66.5231
 1.0380	66.4492
 1.0370	66.3543
 1.0360	66.3149
 1.0350	66.1380
 1.0340	66.0875
 1.0330	65.8984
 1.0320	65.8252
 1.0310	65.6834
 1.0300	65.6444
 1.0290	65.4432
 1.0280	65.4004
 1.0270	65.3728
 1.0260	65.1560
 1.0250	65.0813
 1.0240	64.9674
 1.0230	64.8675
 1.0220	64.8233
 1.0210	64.6425
 1.0200	64.4999
 1.0190	64.3230
 1.0180	64.2604
 1.0170	64.1446
 1.0160	64.0718
 1.0150	63.8758
 1.0140	63.7861
 1.0130	63.6337
 1.0120	63.5332
 1.0110	63.3921
 1.0100	63.3003
 1.0090	63.1636
 1.0080	63.0720
 1.0070	62.8435
 1.0060	62.7776
 1.0050	62.5934
 1.0040	62.4609
 1.0030	62.4093
 1.0020	62.2706
 1.0010	62.1271
 1.0000	62.0706
 0.9990	61.8981
 0.9980	61.8929
 0.9970	61.6207
 0.9960	61.4886
 0.9950	61.3889
 0.9940	61.2529
 0.9930	61.1165
 0.9920	61.0149
 0.9910	60.8122
 0.9900	60.6918
 0.9890	60.5528
 0.9880	60.4601
 0.9870	60.3255
 0.9860	60.2132
 0.9850	60.1322
 0.9840	59.9720
 0.9830	59.8812
 0.9820	59.8269
 0.9810	59.6146
 0.9800	59.4883
 0.9790	59.3670
 0.9780	59.3136
 0.9770	59.2056
 0.9760	59.0410
 0.9750	58.9346
 0.9740	58.7997
 0.9730	58.6714
 0.9720	58.5967
 0.9710	58.4791
 0.9700	58.3137
 0.9690	58.2601
 0.9680	58.1720
 0.9670	58.0335
 0.9660	57.9578
 0.9650	57.8483
 0.9640	57.8000
 0.9630	57.6845
 0.9620	57.6093
 0.9610	57.5562
 0.9600	57.4518
 0.9590	57.3052
 0.9580	57.2496
 0.9570	57.2035
 0.9560	57.1217
 0.9550	57.0227
 0.9540	56.9833
 0.9530	56.9560
 0.9520	56.9269
 0.9510	56.7991
 0.9500	56.7493
 0.9490	56.6853
 0.9480	56.6330
 0.9470	56.5802
 0.9460	56.5359
 0.9450	56.5061
 0.9440	56.4330
 0.9430	56.3904
 0.9420	56.3566
 0.9410	56.3435
 0.9400	56.3136
 0.9390	56.2582
 0.9380	56.2808
 0.9370	56.2399
 0.9360	56.1677
 0.9350	56.1395
 0.9340	56.0890
 0.9330	56.0542
 0.9320	56.0175
 0.9310	56.0343
 0.9300	56.1185
 0.9290	56.1140
 0.9280	56.0265
 0.9270	56.0107
 0.9260	56.0212
 0.9250	55.9666
 0.9240	55.9497
 0.9230	55.9688
 0.9220	55.9609
 0.9210	55.9971
 0.9200	55.9755
 0.9190	55.9184
 0.9180	55.9055
 0.9170	55.8958
 0.9160	55.8931
 0.9150	55.9197
 0.9140	55.8856
 0.9130	55.8857
 0.9120	55.8965
 0.9110	55.9129
 0.9100	55.9520
 0.9090	55.9149
 0.9080	55.8593
 0.9070	55.9101
 0.9060	55.9480
 0.9050	55.9450
 0.9040	55.9347
 0.9030	55.9216
 0.9020	55.9118
 0.9010	55.9401
 0.9000	55.9566
 0.8990	55.9869
 0.8980	55.9796
 0.8970	55.9963
 0.8960	55.9549
 0.8950	55.9849
 0.8940	55.9588
 0.8930	56.0127
 0.8920	55.9860
 0.8910	56.0000
 0.8900	55.9823
 0.8890	55.9738
 0.8880	55.9912
 0.8870	56.0468
 0.8860	55.9774
 0.8850	56.0113
 0.8840	56.0192
 0.8830	56.0007
 0.8820	55.9973
 0.8810	56.0740
 0.8800	56.0463
 0.8790	56.0446
 0.8780	55.9901
 0.8770	56.0042
 0.8760	55.9749
 0.8750	56.0354
 0.8740	56.0311
 0.8730	56.0239
 0.8720	55.9648
 0.8710	56.0547
 0.8700	55.9927
 0.8690	56.0053
 0.8680	55.9894
 0.8670	56.0721
 0.8660	55.9465
 0.8650	55.9329
 0.8640	55.9009
 0.8630	56.0339
 0.8620	55.9254
 0.8610	55.9402
 0.8600	56.2133
 0.8590	56.2232
 0.8580	56.2309
 0.8570	56.2455
 0.8560	56.1773
 0.8550	56.1396
 0.8540	56.1422
 0.8530	56.1148
 0.8520	56.1213
 0.8510	56.0483
 0.8500	56.0657
 0.8490	56.0858
 0.8480	56.0956
 0.8470	56.0338
 0.8460	55.9974
 0.8450	56.0146
 0.8440	56.0006
 0.8430	55.9783
 0.8420	55.9687
 0.8410	55.9262
 0.8400	55.9220
 0.8390	55.9031
 0.8380	55.9172
 0.8370	55.8487
 0.8360	55.8332
 0.8350	55.8502
 0.8340	55.7841
 0.8330	55.7522
 0.8320	55.7371
 0.8310	55.6922
 0.8300	55.6792
 0.8290	55.6581
 0.8280	55.6133
 0.8270	55.6152
 0.8260	55.5700
 0.8250	55.5227
 0.8240	55.4712
 0.8230	55.4580
 0.8220	55.4204
 0.8210	55.3744
 0.8200	55.3578
 0.8190	55.2912
 0.8180	55.2987
 0.8170	55.2357
 0.8160	55.2349
 0.8150	55.1997
 0.8140	55.1681
 0.8130	55.1193
 0.8120	55.0391
 0.8110	55.0445
 0.8100	55.0204
 0.8090	54.9664
 0.8080	54.9173
 0.8070	54.8952
 0.8060	54.8398
 0.8050	54.8482
 0.8040	54.8146
 0.8030	54.7443
 0.8020	54.7269
 0.8010	54.6728
 0.8000	54.6743
 0.7990	54.6027
 0.7980	54.5719
 0.7970	54.5310
 0.7960	54.4590
 0.7950	54.3596
 0.7940	54.3606
 0.7930	54.3144
 0.7920	54.2849
 0.7910	54.2042
 0.7900	54.1813
 0.7890	54.1727
 0.7880	54.1283
 0.7870	54.0717
 0.7860	54.0661
 0.7850	53.9952
 0.7840	53.9603
 0.7830	53.9110
 0.7820	53.8766
 0.7810	53.8365
 0.7800	53.7823
 0.7790	53.7296
 0.7780	53.6610
 0.7770	53.6679
 0.7760	53.6103
 0.7750	53.5746
 0.7740	53.5261
 0.7730	53.4858
 0.7720	53.4332
 0.7710	53.3859
 0.7700	53.3447
 0.7690	53.3032
 0.7680	53.2758
 0.7670	53.1907
 0.7660	53.1553
 0.7650	53.1176
 0.7640	53.0481
 0.7630	52.9869
 0.7620	52.9404
 0.7610	52.8758
 0.7600	52.8495
 0.7590	52.7768
 0.7580	52.7201
 0.7570	52.6556
 0.7560	52.6221
 0.7550	52.5706
 0.7540	52.4979
 0.7530	52.4122
 0.7520	52.3476
 0.7510	52.2909
 0.7500	52.2366
 0.7490	52.1614
 0.7480	52.0839
 0.7470	52.0031
 0.7460	51.9156
 0.7450	51.8495
 0.7440	51.8090
 0.7430	51.7069
 0.7420	51.6259
 0.7410	51.5383
 0.7400	51.4414
 0.7390	51.3470
 0.7380	51.2644
 0.7370	51.1614
 0.7360	51.0721
 0.7350	50.9715
 0.7340	50.8637
 0.7330	50.7514
 0.7320	50.6553
 0.7310	50.5567
 0.7300	50.4526
 0.7290	50.3876
 0.7280	50.3184
 0.7270	50.2220
 0.7260	50.1506
 0.7250	50.0930
 0.7240	49.9924
 0.7230	49.9163
 0.7220	49.8361
 0.7210	49.7582
 0.7200	49.6964
 0.7190	49.6388
 0.7180	49.5462
 0.7170	49.4556
 0.7160	49.3937
 0.7150	49.3208
 0.7140	49.2401
 0.7130	49.1571
 0.7120	49.0697
 0.7110	48.9905
 0.7100	48.8980
 0.7090	48.8316
 0.7080	48.7507
 0.7070	48.6544
 0.7060	48.5744
 0.7050	48.4957
 0.7040	48.4194
 0.7030	48.3430
 0.7020	48.2494
 0.7010	48.1658
 0.7000	48.0776
 0.6990	47.9855
 0.6980	47.9075
 0.6970	47.8267
 0.6960	47.7483
 0.6950	47.6527
 0.6940	47.5645
 0.6930	47.4846
 0.6920	47.4093
 0.6910	47.3306
 0.6900	47.2488
 0.6890	47.1792
 0.6880	47.0975
 0.6870	47.0179
 0.6860	46.9396
 0.6850	46.8648
 0.6840	46.8006
 0.6830	46.7382
 0.6820	46.6692
 0.6810	46.5951
 0.6800	46.5503
 0.6790	46.4861
 0.6780	46.4249
 0.6770	46.3812
 0.6760	46.3413
 0.6750	46.2926
 0.6740	46.2487
 0.6730	46.2172
 0.6720	46.1902
 0.6710	46.1481
 0.6700	46.1150
 0.6690	46.0876
 0.6680	46.0622
 0.6670	46.0330
 0.6660	46.0099
 0.6650	45.9937
 0.6640	45.9698
 0.6630	45.9423
 0.6620	45.9270
 0.6610	45.9065
 0.6600	45.8706
 0.6590	45.8413
 0.6580	45.8118
 0.6570	45.7809
 0.6560	45.7298
 0.6550	45.6873
 0.6540	45.6312
 0.6530	45.5563
 0.6520	45.4814
 0.6510	45.3821
 0.6500	45.2742
 0.6490	45.1650
 0.6480	45.0347
 0.6470	44.8859
 0.6460	44.7195
 0.6450	44.5269
 0.6440	44.3151
 0.6430	44.0933
 0.6420	43.8536
 0.6410	43.5986
 0.6400	43.3375
 0.6390	43.0719
 0.6380	42.8218
 0.6370	42.5882
 0.6360	42.3617
 0.6350	42.1405
 0.6340	41.9314
 0.6330	41.7273
 0.6320	41.5358
 0.6310	41.3712
 0.6300	41.2169
 0.6290	41.0704
 0.6280	40.9453
 0.6270	40.8311
 0.6260	40.7268
 0.6250	40.6306
 0.6240	40.5531
 0.6230	40.5000
 0.6220	40.4684
 0.6210	40.4618
 0.6200	40.4822
 0.6190	40.5300
 0.6180	40.6028
 0.6170	40.6891
 0.6160	40.7839
 0.6150	40.8991
 0.6140	41.0121
 0.6130	41.1283
 0.6120	41.2347
 0.6110	41.3205
 0.6100	41.3745
 0.6090	41.3866
 0.6080	41.3747
 0.6070	41.3360
 0.6060	41.2676
 0.6050	41.1676
 0.6040	41.0525
 0.6030	40.9381
 0.6020	40.8111
 0.6010	40.6827
 0.6000	40.5630
 0.5990	40.4511
 0.5980	40.3254
 0.5970	40.2137
 0.5960	40.0887
 0.5950	39.9491
 0.5940	39.8144
 0.5930	39.6673
 0.5920	39.5329
 0.5910	39.4086
 0.5900	39.3043
 0.5890	39.2145
 0.5880	39.1498
 0.5870	39.1161
 0.5860	39.1016
 0.5850	39.1025
 0.5840	39.1217
 0.5830	39.1416
 0.5820	39.1581
 0.5810	39.1768
 0.5800	39.1916
 0.5790	39.2040
 0.5780	39.2175
 0.5770	39.2257
 0.5760	39.2314
 0.5750	39.2436
 0.5740	39.2579
 0.5730	39.2798
 0.5720	39.3215
 0.5710	39.3652
 0.5700	39.4180
 0.5690	39.4821
 0.5680	39.5671
 0.5670	39.6487
 0.5660	39.7196
 0.5650	39.8007
 0.5640	39.8810
 0.5630	39.9539
 0.5620	40.0153
 0.5610	40.0523
 0.5600	40.0795
 0.5590	40.1127
 0.5580	40.1355
 0.5570	40.1785
 0.5560	40.2254
 0.5550	40.3065
 0.5540	40.4135
 0.5530	40.5507
 0.5520	40.6784
 0.5510	40.7995
 0.5500	40.8877
 0.5490	40.9820
 0.5480	41.0663
 0.5470	41.1913
 0.5460	41.3467
 0.5450	41.5247
 0.5440	41.7107
 0.5430	41.9044
 0.5420	42.0982
 0.5410	42.2985
 0.5400	42.5223
 0.5390	42.7593
 0.5380	43.0136
 0.5370	43.2970
 0.5360	43.5810
 0.5350	43.8813
 0.5340	44.1949
 0.5330	44.5070
 0.5320	44.8115
 0.5310	45.1152
 0.5300	45.4268
 0.5290	45.7432
 0.5280	46.0592
 0.5270	46.3718
 0.5260	46.7034
 0.5250	47.0273
 0.5240	47.3399
 0.5230	47.6620
 0.5220	47.9855
 0.5210	48.3063
 0.5200	48.6085
 0.5190	48.9233
 0.5180	49.2119
 0.5170	49.4914
 0.5160	49.7618
 0.5150	49.9886
 0.5140	50.2332
 0.5130	50.4239
 0.5120	50.6051
 0.5110	50.7458
 0.5100	50.8857
 0.5090	51.0321
 0.5080	51.1451
 0.5070	51.3039
 0.5060	51.4741
 0.5050	51.6527
 0.5040	51.8416
 0.5030	52.0002
 0.5020	52.1729
 0.5010	52.2902
 0.5000	52.3741
 0.4990	52.4516
 0.4980	52.4870
 0.4970	52.4980
 0.4960	52.4879
 0.4950	52.4667
 0.4940	52.4153
 0.4930	52.3601
 0.4920	52.2831
 0.4910	52.2199
 0.4900	52.1475
 0.4890	52.0541
 0.4880	51.9365
 0.4870	51.7758
 0.4860	51.6225
 0.4850	51.4192
 0.4840	51.1935
 0.4830	50.9348
 0.4820	50.6298
 0.4810	50.2940
 0.4800	49.9322
 0.4790	49.5284
 0.4780	49.1365
 0.4770	48.7599
 0.4760	48.4461
 0.4750	48.1942
 0.4740	47.9887
 0.4730	47.8358
 0.4720	47.6606
 0.4710	47.4892
 0.4700	47.3203
 0.4690	47.1035
 0.4680	46.8661
 0.4670	46.6276
 0.4660	46.3555
 0.4650	46.0656
 0.4640	45.7923
 0.4630	45.5628
 0.4620	45.3375
 0.4610	45.1963
 0.4600	45.0983
 0.4590	45.0649
 0.4580	45.1248
 0.4570	45.2736
 0.4560	45.5299
 0.4550	45.8353
 0.4540	46.1977
 0.4530	46.5288
 0.4520	46.8284
 0.4510	47.0404
 0.4500	47.1680
 0.4490	47.2463
 0.4480	47.2753
 0.4470	47.2812
 0.4460	47.2508
 0.4450	47.2101
 0.4440	47.1474
 0.4430	47.0557
 0.4420	46.9611
 0.4410	46.8542
 0.4400	46.6789
 0.4390	46.5025
 0.4380	46.2523
 0.4370	45.9848
 0.4360	45.6674
 0.4350	45.3085
 0.4340	44.9434
 0.4330	44.5978
 0.4320	44.2473
 0.4310	43.9549
 0.4300	43.6529
 0.4290	43.3469
 0.4280	43.0112
 0.4270	42.6366
 0.4260	42.2617
 0.4250	41.8716
 0.4240	41.4811
 0.4230	41.0912
 0.4220	40.6539
 0.4210	40.1721
 0.4200	39.6466
 0.4190	39.1483
 0.4180	38.6309
 0.4170	38.1293
 0.4160	37.6349
 0.4150	37.1573
 0.4140	36.6852
 0.4130	36.2240
 0.4120	35.7830
 0.4110	35.3710
 0.4100	34.9804
 0.4090	34.6158
 0.4080	34.2565
 0.4070	33.8991
 0.4060	33.5521
 0.4050	33.2183
 0.4040	32.9155
 0.4030	32.6246
 0.4020	32.3523
 0.4010	32.0678
 0.4000	31.8006
