Name: Aphthitalite (K,Na)_3Na(SO_4)_2
Type: Mineral
Class: Sulfate
Subclass: None
Particle Size: Fine
Sample No.: SO-9A
Owner: JPL
Wavelength Range: VSWIR
Origin: USA, California, San Bernadino County, Searles Lake
Collection Date: N/A
Description: Particle size was 0-45um.Collected by Burminco Original ASTER Spectral Library name was jpl.beckman.mineral.sulfate.none.fine.so09a.spectrum.txt
Measurement: Hemispherical reflectance
First Column: X
Second Column: Y
X Units: Wavelength (micrometers)
Y Units:Reflectance (percent)
First X Value:  0.4000
Last X Value:  2.5000
Number of X Values: 826
Additional Information: mineral.sulfate.none.fine.vswir.so-9a.jpl.beckman.ancillary.txt

 0.4000	83.1800
 0.4010	83.4800
 0.4020	83.4700
 0.4030	83.4800
 0.4040	83.7400
 0.4050	83.7300
 0.4060	83.7400
 0.4070	83.7600
 0.4080	83.7600
 0.4090	83.9200
 0.4100	83.8600
 0.4110	84.0500
 0.4120	84.0400
 0.4130	84.0400
 0.4140	84.1600
 0.4150	84.1800
 0.4160	84.3000
 0.4170	84.4600
 0.4180	84.4000
 0.4190	84.4600
 0.4200	84.5300
 0.4210	84.6600
 0.4220	84.7200
 0.4230	84.6500
 0.4240	84.7700
 0.4250	84.8500
 0.4260	84.8600
 0.4270	85.0400
 0.4280	85.1000
 0.4290	85.2100
 0.4300	85.1500
 0.4310	85.3100
 0.4320	85.3700
 0.4330	85.3700
 0.4340	85.5700
 0.4350	85.5100
 0.4360	85.5600
 0.4370	85.6900
 0.4380	85.7500
 0.4390	85.8000
 0.4400	85.7500
 0.4410	85.8500
 0.4420	86.0400
 0.4430	85.9800
 0.4440	86.1700
 0.4450	86.1200
 0.4460	86.1400
 0.4470	86.3100
 0.4480	86.4200
 0.4490	86.6000
 0.4500	86.5500
 0.4510	86.5400
 0.4520	86.6500
 0.4530	86.6600
 0.4540	86.7900
 0.4550	86.8200
 0.4560	86.7300
 0.4570	86.8200
 0.4580	86.9000
 0.4590	87.1300
 0.4600	87.1100
 0.4610	87.2200
 0.4620	87.2700
 0.4630	87.2200
 0.4640	87.3500
 0.4650	87.4100
 0.4660	87.5200
 0.4670	87.5200
 0.4680	87.4800
 0.4690	87.6500
 0.4700	87.7000
 0.4710	87.8100
 0.4720	87.9400
 0.4730	87.9300
 0.4740	87.9400
 0.4750	88.0100
 0.4760	87.9900
 0.4770	88.1800
 0.4780	88.2100
 0.4790	88.2100
 0.4800	88.2100
 0.4810	88.3400
 0.4820	88.3400
 0.4830	88.4000
 0.4840	88.4700
 0.4850	88.5900
 0.4860	88.5900
 0.4870	88.5900
 0.4880	88.5600
 0.4890	88.7400
 0.4900	88.7400
 0.4910	88.6800
 0.4920	88.7500
 0.4930	88.7800
 0.4940	88.8900
 0.4950	88.9000
 0.4960	88.8500
 0.4970	88.9800
 0.4980	88.9400
 0.4990	89.1700
 0.5000	89.2900
 0.5010	89.1800
 0.5020	89.2400
 0.5030	89.2400
 0.5040	89.3600
 0.5050	89.4200
 0.5060	89.3700
 0.5070	89.4200
 0.5080	89.3700
 0.5090	89.5400
 0.5100	89.7300
 0.5110	89.6700
 0.5120	89.7900
 0.5130	89.7900
 0.5140	89.8500
 0.5150	89.8600
 0.5160	89.9300
 0.5170	89.9800
 0.5180	89.9700
 0.5190	90.0900
 0.5200	90.1600
 0.5210	90.1600
 0.5220	90.2100
 0.5230	90.1600
 0.5240	90.2200
 0.5250	90.3200
 0.5260	90.3200
 0.5270	90.2700
 0.5280	90.2600
 0.5290	90.3000
 0.5300	90.4700
 0.5310	90.3100
 0.5320	90.3600
 0.5330	90.2900
 0.5340	90.3300
 0.5350	90.4900
 0.5360	90.4200
 0.5370	90.4800
 0.5380	90.5400
 0.5390	90.6500
 0.5400	90.6500
 0.5410	90.4700
 0.5420	90.5300
 0.5430	90.5900
 0.5440	90.6600
 0.5450	90.7800
 0.5460	90.6700
 0.5470	90.6700
 0.5480	90.6200
 0.5490	90.8000
 0.5500	90.8600
 0.5510	90.8100
 0.5520	90.9300
 0.5530	90.7500
 0.5540	90.7600
 0.5550	90.9500
 0.5560	90.9500
 0.5570	90.9300
 0.5580	90.9700
 0.5590	90.9600
 0.5600	91.0100
 0.5610	91.3600
 0.5620	91.3600
 0.5630	91.3000
 0.5640	91.4200
 0.5650	91.3600
 0.5660	91.3600
 0.5670	91.5300
 0.5680	91.4800
 0.5690	91.5400
 0.5700	91.3700
 0.5710	91.3700
 0.5720	91.4200
 0.5730	91.3500
 0.5740	91.3800
 0.5750	91.1800
 0.5760	91.1100
 0.5770	91.2800
 0.5780	91.2800
 0.5790	91.3400
 0.5800	91.3400
 0.5810	91.2200
 0.5820	91.2800
 0.5830	91.2700
 0.5840	91.2700
 0.5850	91.3300
 0.5860	91.2700
 0.5870	91.2800
 0.5880	91.3900
 0.5890	91.3900
 0.5900	91.3900
 0.5910	91.3900
 0.5920	91.5800
 0.5930	91.5100
 0.5940	91.5700
 0.5950	91.5700
 0.5960	91.5100
 0.5970	91.5100
 0.5980	91.4700
 0.5990	91.6600
 0.6000	91.7300
 0.6010	91.5700
 0.6020	91.7000
 0.6030	91.7600
 0.6040	91.8200
 0.6050	91.7700
 0.6060	91.7800
 0.6070	91.8400
 0.6080	91.7800
 0.6090	91.8900
 0.6100	91.9000
 0.6110	91.7800
 0.6120	91.9000
 0.6130	91.9000
 0.6140	91.9000
 0.6150	91.9000
 0.6160	91.8400
 0.6170	91.8900
 0.6180	91.8300
 0.6190	91.7800
 0.6200	91.9000
 0.6210	91.9000
 0.6220	91.9000
 0.6230	91.7800
 0.6240	91.9000
 0.6250	91.9500
 0.6260	91.9000
 0.6270	91.9000
 0.6280	91.9400
 0.6290	91.8900
 0.6300	91.9400
 0.6310	91.8900
 0.6320	91.9000
 0.6330	91.9000
 0.6340	91.8900
 0.6350	91.9400
 0.6360	92.0000
 0.6370	92.0000
 0.6380	91.9400
 0.6390	91.9000
 0.6400	92.0000
 0.6410	91.9900
 0.6420	92.0500
 0.6430	92.0500
 0.6440	91.9400
 0.6450	92.1200
 0.6460	92.1200
 0.6470	92.1200
 0.6480	92.1700
 0.6490	92.0000
 0.6500	92.1200
 0.6510	92.1800
 0.6520	92.1800
 0.6530	92.2900
 0.6540	92.1700
 0.6550	92.2300
 0.6560	92.2900
 0.6570	92.1700
 0.6580	92.1700
 0.6590	92.1800
 0.6600	92.2300
 0.6610	92.1800
 0.6620	92.2300
 0.6630	92.2900
 0.6640	92.1800
 0.6650	92.2300
 0.6660	92.1100
 0.6670	92.2300
 0.6680	92.2900
 0.6690	92.2300
 0.6700	92.3500
 0.6710	92.2300
 0.6720	92.2400
 0.6730	92.3500
 0.6740	92.2900
 0.6750	92.2900
 0.6760	92.2300
 0.6770	92.2300
 0.6780	92.2900
 0.6790	92.2300
 0.6800	92.3500
 0.6810	92.2900
 0.6820	92.3500
 0.6830	92.4100
 0.6840	92.2900
 0.6850	92.4100
 0.6860	92.2900
 0.6870	92.2900
 0.6880	92.4100
 0.6890	92.4100
 0.6900	92.4100
 0.6910	92.3500
 0.6920	92.3500
 0.6930	92.5200
 0.6940	92.4600
 0.6950	92.5200
 0.6960	92.5200
 0.6970	92.4000
 0.6980	92.4600
 0.6990	92.3900
 0.7000	92.4400
 0.7010	92.4400
 0.7020	92.5200
 0.7030	92.4700
 0.7040	92.4700
 0.7050	92.5800
 0.7060	92.4100
 0.7070	92.5300
 0.7080	92.5800
 0.7090	92.6400
 0.7100	92.5200
 0.7110	92.4600
 0.7120	92.5800
 0.7130	92.5300
 0.7140	92.5800
 0.7150	92.5300
 0.7160	92.5800
 0.7170	92.6400
 0.7180	92.5300
 0.7190	92.5800
 0.7200	92.6400
 0.7210	92.5800
 0.7220	92.5200
 0.7230	92.6400
 0.7240	92.5300
 0.7250	92.5300
 0.7260	92.5300
 0.7270	92.5800
 0.7280	92.5900
 0.7290	92.5900
 0.7300	92.6400
 0.7310	92.5800
 0.7320	92.6400
 0.7330	92.7000
 0.7340	92.4700
 0.7350	92.5300
 0.7360	92.4700
 0.7370	92.4700
 0.7380	92.5900
 0.7390	92.7000
 0.7400	92.5900
 0.7410	92.5800
 0.7420	92.6400
 0.7430	92.7600
 0.7440	92.7000
 0.7450	92.6500
 0.7460	92.6400
 0.7470	92.5900
 0.7480	92.6400
 0.7490	92.5900
 0.7500	92.6400
 0.7510	92.6400
 0.7520	92.5800
 0.7530	92.5900
 0.7540	92.5300
 0.7550	92.7000
 0.7560	92.7600
 0.7570	92.7000
 0.7580	92.7000
 0.7590	92.5800
 0.7600	92.7000
 0.7610	92.7600
 0.7620	92.6400
 0.7630	92.7000
 0.7640	92.6400
 0.7650	92.6400
 0.7660	92.5900
 0.7670	92.7000
 0.7680	92.6400
 0.7690	92.5800
 0.7700	92.5800
 0.7710	92.7600
 0.7720	92.7600
 0.7730	92.6400
 0.7740	92.7000
 0.7750	92.7000
 0.7760	92.6400
 0.7770	92.5300
 0.7780	92.6400
 0.7790	92.6400
 0.7800	92.5900
 0.7810	92.5900
 0.7820	92.7600
 0.7830	92.8200
 0.7840	92.8200
 0.7850	92.7600
 0.7860	92.7000
 0.7870	92.7000
 0.7880	92.7600
 0.7890	92.8200
 0.7900	92.7600
 0.7910	92.8200
 0.7920	92.8200
 0.7930	92.7600
 0.7940	92.8800
 0.7950	92.8200
 0.7960	92.8100
 0.7970	92.7600
 0.7980	92.7600
 0.7990	92.8100
 0.8000	92.8400
 0.8040	92.9000
 0.8080	92.8900
 0.8120	92.9000
 0.8160	92.9500
 0.8200	92.8900
 0.8240	93.0100
 0.8280	93.0200
 0.8320	92.9600
 0.8360	92.9500
 0.8400	93.0100
 0.8440	93.0700
 0.8480	93.1900
 0.8520	93.1900
 0.8560	93.1900
 0.8600	93.1900
 0.8640	93.2500
 0.8680	93.2500
 0.8720	93.3100
 0.8760	93.2500
 0.8800	93.1300
 0.8840	93.1300
 0.8880	93.1900
 0.8920	93.1900
 0.8960	93.1900
 0.9000	93.1900
 0.9040	93.1900
 0.9080	93.1900
 0.9120	93.1300
 0.9160	93.1300
 0.9200	93.1900
 0.9240	93.1900
 0.9280	93.1900
 0.9320	93.1900
 0.9360	93.1900
 0.9400	93.2500
 0.9440	93.1900
 0.9480	93.1900
 0.9520	93.1900
 0.9560	93.1900
 0.9600	93.2500
 0.9640	93.3100
 0.9680	93.2500
 0.9720	93.1900
 0.9760	93.2500
 0.9800	93.1900
 0.9840	93.1900
 0.9880	93.3100
 0.9920	93.1900
 0.9960	93.2000
 1.0000	93.2600
 1.0040	93.1900
 1.0080	93.3700
 1.0120	93.2500
 1.0160	93.1300
 1.0200	93.3100
 1.0240	93.3100
 1.0280	93.3100
 1.0320	93.2500
 1.0360	93.3100
 1.0400	93.3700
 1.0440	93.3700
 1.0480	93.3100
 1.0520	93.3100
 1.0560	93.3100
 1.0600	93.3100
 1.0640	93.2500
 1.0680	93.2500
 1.0720	93.3800
 1.0760	93.3800
 1.0800	93.3300
 1.0840	93.3900
 1.0880	93.2700
 1.0920	93.3300
 1.0960	93.4500
 1.1000	93.3900
 1.1040	93.3300
 1.1080	93.3900
 1.1120	93.4500
 1.1160	93.4400
 1.1200	93.4400
 1.1240	93.4400
 1.1280	93.5000
 1.1320	93.4400
 1.1360	93.4400
 1.1400	93.3200
 1.1440	93.3700
 1.1480	93.2500
 1.1520	93.2500
 1.1560	93.3000
 1.1600	93.2900
 1.1640	93.2800
 1.1680	93.2100
 1.1720	93.2700
 1.1760	93.1400
 1.1800	93.1300
 1.1840	93.1800
 1.1880	93.2300
 1.1920	93.1700
 1.1960	93.1600
 1.2000	93.2100
 1.2040	93.3300
 1.2080	93.1500
 1.2120	93.1500
 1.2160	93.1000
 1.2200	93.1000
 1.2240	93.1600
 1.2280	93.1000
 1.2320	93.1000
 1.2360	93.1700
 1.2400	93.1700
 1.2440	93.1700
 1.2480	93.1700
 1.2520	93.1100
 1.2560	93.2200
 1.2600	93.2100
 1.2640	93.2000
 1.2680	93.2000
 1.2720	93.2500
 1.2760	93.2500
 1.2800	93.2400
 1.2840	93.2900
 1.2880	93.3300
 1.2920	93.2200
 1.2960	93.2100
 1.3000	93.2600
 1.3040	93.1900
 1.3080	93.2400
 1.3120	93.2400
 1.3160	93.2300
 1.3200	93.1000
 1.3240	93.0900
 1.3280	93.0800
 1.3320	93.0200
 1.3360	93.0100
 1.3400	93.0000
 1.3440	93.1100
 1.3480	93.0000
 1.3520	93.0400
 1.3560	93.0400
 1.3600	93.0300
 1.3640	92.9700
 1.3680	92.9800
 1.3720	92.9900
 1.3760	92.9300
 1.3800	92.9100
 1.3840	92.9300
 1.3880	92.8800
 1.3920	92.8800
 1.3960	92.8800
 1.4000	92.8200
 1.4040	92.6600
 1.4080	92.6100
 1.4120	92.4300
 1.4160	92.3800
 1.4200	92.3300
 1.4240	92.2900
 1.4280	92.1800
 1.4320	92.1800
 1.4360	92.1400
 1.4400	92.1500
 1.4440	92.1000
 1.4480	91.9900
 1.4520	91.8800
 1.4560	91.8800
 1.4600	91.8200
 1.4640	91.7600
 1.4680	91.7000
 1.4720	91.5900
 1.4760	91.5800
 1.4800	91.5300
 1.4840	91.6500
 1.4880	91.6500
 1.4920	91.6400
 1.4960	91.7000
 1.5000	91.7500
 1.5040	91.6900
 1.5080	91.6900
 1.5120	91.6900
 1.5160	91.6900
 1.5200	91.7600
 1.5240	91.7100
 1.5280	91.6500
 1.5320	91.7000
 1.5360	91.7600
 1.5400	91.8200
 1.5440	91.8200
 1.5480	91.8800
 1.5520	91.8700
 1.5560	91.9900
 1.5600	91.9900
 1.5640	92.0500
 1.5680	91.9400
 1.5720	91.9900
 1.5760	92.0500
 1.5800	92.0500
 1.5840	91.9900
 1.5880	91.9800
 1.5920	91.9800
 1.5960	91.8700
 1.6000	91.8700
 1.6040	91.9200
 1.6080	91.9700
 1.6120	91.8600
 1.6160	91.8400
 1.6200	91.9000
 1.6240	91.8300
 1.6280	91.8200
 1.6320	91.8100
 1.6360	91.7500
 1.6400	91.8600
 1.6440	91.7900
 1.6480	91.7300
 1.6520	91.7300
 1.6560	91.7800
 1.6600	91.5900
 1.6640	91.6400
 1.6680	91.6300
 1.6720	91.6200
 1.6760	91.5000
 1.6800	91.5500
 1.6840	91.4300
 1.6880	91.3100
 1.6920	91.4200
 1.6960	91.4200
 1.7000	91.4200
 1.7040	91.3000
 1.7080	91.2900
 1.7120	91.2300
 1.7160	91.1700
 1.7200	91.1700
 1.7240	91.0600
 1.7280	91.0600
 1.7320	91.0100
 1.7360	91.0100
 1.7400	90.9400
 1.7440	91.0600
 1.7480	90.8800
 1.7520	90.8300
 1.7560	90.8800
 1.7600	90.8900
 1.7640	90.9400
 1.7680	90.7800
 1.7720	90.8300
 1.7760	90.8200
 1.7800	90.7700
 1.7840	90.8200
 1.7880	90.7600
 1.7920	90.8800
 1.7960	90.8300
 1.8000	90.8400
 1.8040	90.8600
 1.8080	90.8300
 1.8120	90.8000
 1.8160	90.7700
 1.8200	90.7500
 1.8240	90.7200
 1.8280	90.6300
 1.8320	90.6600
 1.8360	90.6800
 1.8400	90.5800
 1.8440	90.4800
 1.8480	90.5300
 1.8520	90.4200
 1.8560	90.3400
 1.8600	90.2800
 1.8640	90.2200
 1.8680	90.0700
 1.8720	89.9000
 1.8760	89.6800
 1.8800	89.4400
 1.8840	89.1000
 1.8880	88.8200
 1.8920	88.4300
 1.8960	88.0100
 1.9000	87.5100
 1.9040	87.1300
 1.9080	86.6800
 1.9120	86.3500
 1.9160	85.9900
 1.9200	85.6000
 1.9240	85.2700
 1.9280	85.0300
 1.9320	84.8800
 1.9360	84.7800
 1.9400	84.7100
 1.9440	84.7900
 1.9480	84.8900
 1.9520	85.0400
 1.9560	85.2500
 1.9600	85.3500
 1.9640	85.5900
 1.9680	85.7500
 1.9720	85.8700
 1.9760	85.9700
 1.9800	86.1300
 1.9840	86.2800
 1.9880	86.3700
 1.9920	86.4700
 1.9960	86.5100
 2.0000	86.6200
 2.0040	86.6000
 2.0080	86.6400
 2.0120	86.6000
 2.0160	86.6200
 2.0200	86.6800
 2.0240	86.6200
 2.0280	86.7000
 2.0320	86.7000
 2.0360	86.6800
 2.0400	86.7200
 2.0440	86.7600
 2.0480	86.7600
 2.0520	86.8600
 2.0560	86.8700
 2.0600	86.9500
 2.0640	86.9600
 2.0680	87.0900
 2.0720	87.2200
 2.0760	87.2400
 2.0800	87.3800
 2.0840	87.4500
 2.0880	87.5300
 2.0920	87.5400
 2.0960	87.7300
 2.1000	87.8000
 2.1040	87.9200
 2.1080	87.9900
 2.1120	88.0600
 2.1160	88.1300
 2.1200	88.3000
 2.1240	88.2100
 2.1280	88.1800
 2.1320	88.2000
 2.1360	88.2100
 2.1400	88.1500
 2.1440	88.1400
 2.1480	87.9900
 2.1520	88.0300
 2.1560	88.0700
 2.1600	88.0800
 2.1640	88.0600
 2.1680	88.0600
 2.1720	88.1100
 2.1760	88.0100
 2.1800	88.0000
 2.1840	87.9500
 2.1880	87.9100
 2.1920	87.9300
 2.1960	87.8400
 2.2000	87.8500
 2.2040	87.7200
 2.2080	87.7800
 2.2120	87.6900
 2.2160	87.7400
 2.2200	87.7900
 2.2240	87.7200
 2.2280	87.7700
 2.2320	87.7500
 2.2360	87.8300
 2.2400	87.7500
 2.2440	87.7500
 2.2480	87.6900
 2.2520	87.6600
 2.2560	87.6300
 2.2600	87.5500
 2.2640	87.5500
 2.2680	87.5500
 2.2720	87.6000
 2.2760	87.4900
 2.2800	87.3900
 2.2840	87.4800
 2.2880	87.4400
 2.2920	87.3300
 2.2960	87.2700
 2.3000	87.2600
 2.3040	87.2800
 2.3080	87.1700
 2.3120	87.2000
 2.3160	87.2800
 2.3200	87.3600
 2.3240	87.3400
 2.3280	87.3400
 2.3320	87.3300
 2.3360	87.3400
 2.3400	87.3100
 2.3440	87.3200
 2.3480	87.3000
 2.3520	87.2000
 2.3560	87.1200
 2.3600	87.0200
 2.3640	86.9200
 2.3680	86.7200
 2.3720	86.6000
 2.3760	86.4300
 2.3800	86.3200
 2.3840	86.0800
 2.3880	85.9800
 2.3920	85.7300
 2.3960	85.7200
 2.4000	85.6900
 2.4040	85.5800
 2.4080	85.5000
 2.4120	85.5000
 2.4160	85.5000
 2.4200	85.4800
 2.4240	85.4800
 2.4280	85.3700
 2.4320	85.3600
 2.4360	85.3600
 2.4400	85.2500
 2.4440	85.2800
 2.4480	85.1100
 2.4520	85.0000
 2.4560	84.9200
 2.4600	84.9900
 2.4640	84.8800
 2.4680	84.8400
 2.4720	84.8400
 2.4760	84.7900
 2.4800	84.8900
 2.4840	84.9400
 2.4880	84.9400
 2.4920	85.1500
 2.4960	85.2400
 2.5000	85.2900
