Name: Beryl Be_3Al_2Si_6O_18
Type: Mineral
Class: Silicate
Subclass: Cyclosilicate
Particle Size: Medium
Sample No.: CS-2A
Owner: JPL
Wavelength Range: VSWIR
Origin: Brazil, Minas Gerais.
Collection Date: N/A
Description: Particle size was 45-125um.Collected by:  Ward's Original ASTER Spectral Library name was jpl.perkin.mineral.silicate.cyclosilicate.medium.cs02a.spectrum.txt
Measurement: Hemispherical reflectance
First Column: X
Second Column: Y
X Units: Wavelength (micrometers)
Y Units:Reflectance (percent)
First X Value:  2.5000
Last X Value:  0.4000
Number of X Values: 2101
Additional Information: mineral.silicate.cyclosilicate.medium.vswir.cs-2a.jpl.perkin.ancillary.txt

 2.5000	44.2971
 2.4990	44.7165
 2.4980	44.9566
 2.4970	45.2990
 2.4960	45.3621
 2.4950	45.9025
 2.4940	46.0785
 2.4930	46.4599
 2.4920	46.8091
 2.4910	47.1601
 2.4900	47.1911
 2.4890	47.6106
 2.4880	47.8423
 2.4870	48.1468
 2.4860	48.4781
 2.4850	48.6793
 2.4840	48.7933
 2.4830	48.9377
 2.4820	49.2749
 2.4810	49.5176
 2.4800	49.6897
 2.4790	50.0557
 2.4780	49.9417
 2.4770	50.4464
 2.4760	50.5378
 2.4750	50.7784
 2.4740	50.9168
 2.4730	51.2258
 2.4720	51.3809
 2.4710	51.5876
 2.4700	51.7733
 2.4690	51.9761
 2.4680	52.2289
 2.4670	52.4647
 2.4660	52.6617
 2.4650	52.8969
 2.4640	53.0361
 2.4630	53.3159
 2.4620	53.4502
 2.4610	53.6774
 2.4600	53.7641
 2.4590	53.9411
 2.4580	54.1055
 2.4570	54.4637
 2.4560	54.5716
 2.4550	54.7604
 2.4540	54.9812
 2.4530	55.1686
 2.4520	55.2430
 2.4510	55.4943
 2.4500	55.6478
 2.4490	55.8581
 2.4480	55.9220
 2.4470	56.2285
 2.4460	56.3533
 2.4450	56.4757
 2.4440	56.6313
 2.4430	56.8163
 2.4420	56.9440
 2.4410	57.1188
 2.4400	57.2032
 2.4390	57.4524
 2.4380	57.5573
 2.4370	57.7961
 2.4360	57.9348
 2.4350	58.0215
 2.4340	58.1013
 2.4330	58.2683
 2.4320	58.3179
 2.4310	58.4985
 2.4300	58.5773
 2.4290	58.6638
 2.4280	58.8081
 2.4270	58.9664
 2.4260	59.0612
 2.4250	59.2518
 2.4240	59.3249
 2.4230	59.3610
 2.4220	59.4055
 2.4210	59.5816
 2.4200	59.6036
 2.4190	59.7918
 2.4180	59.7696
 2.4170	59.9622
 2.4160	60.0578
 2.4150	60.1492
 2.4140	60.2916
 2.4130	60.3375
 2.4120	60.4053
 2.4110	60.5183
 2.4100	60.5371
 2.4090	60.6078
 2.4080	60.7329
 2.4070	60.8755
 2.4060	60.9479
 2.4050	61.0937
 2.4040	61.0255
 2.4030	61.0491
 2.4020	61.1198
 2.4010	61.2069
 2.4000	61.2450
 2.3990	61.3658
 2.3980	61.4278
 2.3970	61.5271
 2.3960	61.5218
 2.3950	61.5918
 2.3940	61.6254
 2.3930	61.6353
 2.3920	61.6984
 2.3910	61.7191
 2.3900	61.7708
 2.3890	61.8340
 2.3880	61.8283
 2.3870	61.8895
 2.3860	61.8707
 2.3850	61.9844
 2.3840	61.9536
 2.3830	61.8867
 2.3820	61.9280
 2.3810	61.9732
 2.3800	61.9257
 2.3790	62.0141
 2.3780	61.9901
 2.3770	62.0378
 2.3760	62.1006
 2.3750	62.1084
 2.3740	62.1147
 2.3730	62.1623
 2.3720	62.2158
 2.3710	62.3177
 2.3700	62.3609
 2.3690	62.3866
 2.3680	62.4404
 2.3670	62.4504
 2.3660	62.5124
 2.3650	62.6051
 2.3640	62.6382
 2.3630	62.7519
 2.3620	62.7689
 2.3610	62.7637
 2.3600	62.8544
 2.3590	62.9594
 2.3580	62.9971
 2.3570	63.0514
 2.3560	63.1026
 2.3550	63.0809
 2.3540	63.1054
 2.3530	63.2575
 2.3520	63.3212
 2.3510	63.3013
 2.3500	63.3957
 2.3490	63.5052
 2.3480	63.5606
 2.3470	63.5759
 2.3460	63.6115
 2.3450	63.6494
 2.3440	63.7093
 2.3430	63.7378
 2.3420	63.8015
 2.3410	63.8442
 2.3400	63.8703
 2.3390	63.9064
 2.3380	63.9584
 2.3370	63.9719
 2.3360	64.0036
 2.3350	64.0611
 2.3340	64.1419
 2.3330	64.2036
 2.3320	64.2050
 2.3310	64.2429
 2.3300	64.3310
 2.3290	64.3833
 2.3280	64.3946
 2.3270	64.4735
 2.3260	64.5797
 2.3250	64.6423
 2.3240	64.6900
 2.3230	64.7218
 2.3220	64.7911
 2.3210	64.8704
 2.3200	65.0039
 2.3190	65.0044
 2.3180	65.1007
 2.3170	65.1910
 2.3160	65.2433
 2.3150	65.3058
 2.3140	65.3395
 2.3130	65.3530
 2.3120	65.3985
 2.3110	65.4723
 2.3100	65.5406
 2.3090	65.5726
 2.3080	65.6001
 2.3070	65.6057
 2.3060	65.6508
 2.3050	65.7400
 2.3040	65.7854
 2.3030	65.8325
 2.3020	65.8887
 2.3010	65.8867
 2.3000	65.8771
 2.2990	65.9409
 2.2980	65.9571
 2.2970	65.9317
 2.2960	66.0202
 2.2950	66.0453
 2.2940	66.0694
 2.2930	66.0903
 2.2920	66.1570
 2.2910	66.1104
 2.2900	66.1457
 2.2890	66.1050
 2.2880	66.1169
 2.2870	66.2146
 2.2860	66.2859
 2.2850	66.2554
 2.2840	66.2701
 2.2830	66.2412
 2.2820	66.3067
 2.2810	66.3175
 2.2800	66.3048
 2.2790	66.2861
 2.2780	66.3932
 2.2770	66.4454
 2.2760	66.4346
 2.2750	66.4327
 2.2740	66.4623
 2.2730	66.4822
 2.2720	66.5628
 2.2710	66.5305
 2.2700	66.5294
 2.2690	66.5533
 2.2680	66.6363
 2.2670	66.6400
 2.2660	66.7005
 2.2650	66.5992
 2.2640	66.6863
 2.2630	66.7135
 2.2620	66.7444
 2.2610	66.7738
 2.2600	66.7662
 2.2590	66.8164
 2.2580	66.7970
 2.2570	66.7672
 2.2560	66.7923
 2.2550	66.8545
 2.2540	66.8108
 2.2530	66.7960
 2.2520	66.9024
 2.2510	66.8812
 2.2500	66.8956
 2.2490	66.8468
 2.2480	66.9267
 2.2470	66.9517
 2.2460	66.9415
 2.2450	66.9230
 2.2440	66.9467
 2.2430	66.9709
 2.2420	67.0706
 2.2410	66.9816
 2.2400	67.0553
 2.2390	66.9867
 2.2380	67.0578
 2.2370	67.0722
 2.2360	67.0867
 2.2350	67.1705
 2.2340	67.0852
 2.2330	67.0859
 2.2320	67.1587
 2.2310	67.0213
 2.2300	67.1605
 2.2290	67.0694
 2.2280	67.1557
 2.2270	67.1286
 2.2260	67.0697
 2.2250	67.1610
 2.2240	67.1228
 2.2230	67.1487
 2.2220	67.1296
 2.2210	67.1312
 2.2200	67.1306
 2.2190	67.1833
 2.2180	67.1158
 2.2170	67.0975
 2.2160	67.0716
 2.2150	67.0785
 2.2140	67.0014
 2.2130	67.0496
 2.2120	67.1489
 2.2110	66.9419
 2.2100	67.0785
 2.2090	66.8657
 2.2080	66.9411
 2.2070	66.8955
 2.2060	66.8968
 2.2050	66.8456
 2.2040	66.7456
 2.2030	66.7229
 2.2020	66.7090
 2.2010	66.6843
 2.2000	66.6584
 2.1990	66.6982
 2.1980	66.7096
 2.1970	66.6459
 2.1960	66.7195
 2.1950	66.6143
 2.1940	66.7504
 2.1930	66.7691
 2.1920	66.8331
 2.1910	66.8208
 2.1900	66.8801
 2.1890	66.9933
 2.1880	67.1155
 2.1870	67.0193
 2.1860	67.1303
 2.1850	67.1022
 2.1840	67.1196
 2.1830	67.1464
 2.1820	67.1339
 2.1810	67.1313
 2.1800	67.2051
 2.1790	67.1697
 2.1780	67.2081
 2.1770	67.2207
 2.1760	67.2537
 2.1750	67.3041
 2.1740	67.3765
 2.1730	67.3184
 2.1720	67.3756
 2.1710	67.3154
 2.1700	67.3487
 2.1690	67.4042
 2.1680	67.3133
 2.1670	67.3618
 2.1660	67.3427
 2.1650	67.2816
 2.1640	67.2970
 2.1630	67.2168
 2.1620	67.1852
 2.1610	67.0957
 2.1600	67.0899
 2.1590	67.0418
 2.1580	66.8990
 2.1570	66.9142
 2.1560	66.8380
 2.1550	66.7949
 2.1540	66.7018
 2.1530	66.5732
 2.1520	66.5643
 2.1510	66.5869
 2.1500	66.5559
 2.1490	66.5826
 2.1480	66.6667
 2.1470	66.7628
 2.1460	66.8753
 2.1450	66.9406
 2.1440	67.0187
 2.1430	67.1669
 2.1420	67.2756
 2.1410	67.3872
 2.1400	67.4868
 2.1390	67.5804
 2.1380	67.6769
 2.1370	67.7575
 2.1360	67.8613
 2.1350	67.9379
 2.1340	67.9557
 2.1330	67.9820
 2.1320	67.9604
 2.1310	67.9803
 2.1300	68.0232
 2.1290	67.9975
 2.1280	68.0135
 2.1270	67.9591
 2.1260	67.9129
 2.1250	67.8885
 2.1240	67.8767
 2.1230	67.9064
 2.1220	67.8429
 2.1210	67.7880
 2.1200	67.7586
 2.1190	67.7157
 2.1180	67.6883
 2.1170	67.6950
 2.1160	67.6715
 2.1150	67.5249
 2.1140	67.4987
 2.1130	67.4920
 2.1120	67.5383
 2.1110	67.5115
 2.1100	67.4793
 2.1090	67.4251
 2.1080	67.3835
 2.1070	67.3502
 2.1060	67.3192
 2.1050	67.2296
 2.1040	67.2025
 2.1030	67.2197
 2.1020	67.1898
 2.1010	67.0988
 2.1000	67.0306
 2.0990	67.0607
 2.0980	67.0884
 2.0970	67.0280
 2.0960	67.0096
 2.0950	67.0352
 2.0940	66.9736
 2.0930	66.9171
 2.0920	66.9367
 2.0910	66.8475
 2.0900	66.7901
 2.0890	66.7782
 2.0880	66.7299
 2.0870	66.6850
 2.0860	66.5946
 2.0850	66.4475
 2.0840	66.3874
 2.0830	66.3528
 2.0820	66.3131
 2.0810	66.2841
 2.0800	66.3471
 2.0790	66.3889
 2.0780	66.3922
 2.0770	66.4323
 2.0760	66.4642
 2.0750	66.5083
 2.0740	66.5749
 2.0730	66.5977
 2.0720	66.6194
 2.0710	66.6307
 2.0700	66.6062
 2.0690	66.6219
 2.0680	66.6900
 2.0670	66.6932
 2.0660	66.6627
 2.0650	66.6303
 2.0640	66.5891
 2.0630	66.5951
 2.0620	66.5531
 2.0610	66.5414
 2.0600	66.5344
 2.0590	66.4987
 2.0580	66.5152
 2.0570	66.4622
 2.0560	66.3810
 2.0550	66.3064
 2.0540	66.2395
 2.0530	66.1939
 2.0520	66.2432
 2.0510	66.2450
 2.0500	66.2434
 2.0490	66.3276
 2.0480	66.3695
 2.0470	66.4190
 2.0460	66.5598
 2.0450	66.6999
 2.0440	66.8313
 2.0430	66.9502
 2.0420	67.1161
 2.0410	67.2566
 2.0400	67.3147
 2.0390	67.3518
 2.0380	67.3683
 2.0370	67.4183
 2.0360	67.4448
 2.0350	67.4768
 2.0340	67.5039
 2.0330	67.5991
 2.0320	67.5516
 2.0310	67.5658
 2.0300	67.5781
 2.0290	67.6398
 2.0280	67.5818
 2.0270	67.5474
 2.0260	67.5311
 2.0250	67.5645
 2.0240	67.5146
 2.0230	67.5256
 2.0220	67.5701
 2.0210	67.5237
 2.0200	67.5290
 2.0190	67.5194
 2.0180	67.4534
 2.0170	67.5093
 2.0160	67.4179
 2.0150	67.4355
 2.0140	67.3867
 2.0130	67.4194
 2.0120	67.4344
 2.0110	67.3382
 2.0100	67.2690
 2.0090	67.2530
 2.0080	67.2962
 2.0070	67.2792
 2.0060	67.2486
 2.0050	67.1996
 2.0040	67.1644
 2.0030	67.1377
 2.0020	67.0384
 2.0010	67.0715
 2.0000	67.0230
 1.9990	66.9678
 1.9980	66.8215
 1.9970	66.7859
 1.9960	66.6511
 1.9950	66.6359
 1.9940	66.5566
 1.9930	66.4601
 1.9920	66.2269
 1.9910	66.1645
 1.9900	65.9874
 1.9890	65.7905
 1.9880	65.5974
 1.9870	65.4560
 1.9860	65.1115
 1.9850	64.8464
 1.9840	64.6619
 1.9830	64.3402
 1.9820	64.1165
 1.9810	63.7888
 1.9800	63.4731
 1.9790	63.1127
 1.9780	62.7408
 1.9770	62.4621
 1.9760	62.2086
 1.9750	61.8906
 1.9740	61.5231
 1.9730	61.3786
 1.9720	61.1210
 1.9710	60.8929
 1.9700	60.6163
 1.9690	60.5151
 1.9680	60.2619
 1.9670	60.1283
 1.9660	59.8787
 1.9650	59.7959
 1.9640	59.6497
 1.9630	59.5177
 1.9620	59.4491
 1.9610	59.3203
 1.9600	59.2567
 1.9590	59.2571
 1.9580	59.1547
 1.9570	59.1680
 1.9560	59.1111
 1.9550	59.0818
 1.9540	59.1065
 1.9530	59.1898
 1.9520	59.2306
 1.9510	59.2176
 1.9500	59.2510
 1.9490	59.4362
 1.9480	59.4407
 1.9470	59.6827
 1.9460	59.6995
 1.9450	59.8357
 1.9440	60.0166
 1.9430	60.1414
 1.9420	60.2573
 1.9410	60.3810
 1.9400	60.4696
 1.9390	60.6313
 1.9380	60.6304
 1.9370	60.8353
 1.9360	60.7778
 1.9350	60.8362
 1.9340	60.8190
 1.9330	61.0039
 1.9320	60.9004
 1.9310	60.8750
 1.9300	60.7897
 1.9290	60.7963
 1.9280	60.6375
 1.9270	60.7664
 1.9260	60.4009
 1.9250	60.4957
 1.9240	60.3777
 1.9230	60.2091
 1.9220	60.0620
 1.9210	59.9959
 1.9200	59.7719
 1.9190	59.6169
 1.9180	59.3243
 1.9170	59.1703
 1.9160	58.8083
 1.9150	58.5203
 1.9140	58.1625
 1.9130	57.8228
 1.9120	57.0613
 1.9110	56.6095
 1.9100	55.7307
 1.9090	54.9185
 1.9080	53.7036
 1.9070	52.5197
 1.9060	50.7021
 1.9050	48.8331
 1.9040	46.4114
 1.9030	43.6181
 1.9020	40.6299
 1.9010	37.5649
 1.9000	34.4538
 1.8990	31.7848
 1.8980	29.4673
 1.8970	27.8411
 1.8960	27.0648
 1.8950	27.3235
 1.8940	28.5656
 1.8930	30.7154
 1.8920	33.4275
 1.8910	36.5880
 1.8900	39.7770
 1.8890	43.0461
 1.8880	45.7685
 1.8870	48.2638
 1.8860	50.2055
 1.8850	51.8008
 1.8840	53.0655
 1.8830	54.2613
 1.8820	55.1718
 1.8810	55.8770
 1.8800	56.4833
 1.8790	57.0361
 1.8780	57.4627
 1.8770	57.8328
 1.8760	58.1220
 1.8750	58.4050
 1.8740	58.6302
 1.8730	58.9009
 1.8720	59.0540
 1.8710	59.2311
 1.8700	59.3369
 1.8690	59.4298
 1.8680	59.5548
 1.8670	59.5879
 1.8660	59.5622
 1.8650	59.6102
 1.8640	59.6143
 1.8630	59.6250
 1.8620	59.5351
 1.8610	59.3945
 1.8600	59.3242
 1.8590	59.0996
 1.8580	58.8695
 1.8570	58.7014
 1.8560	58.3693
 1.8550	58.1005
 1.8540	57.7739
 1.8530	57.5205
 1.8520	57.1956
 1.8510	56.8454
 1.8500	56.4609
 1.8490	56.1507
 1.8480	55.7313
 1.8470	55.4768
 1.8460	55.1364
 1.8450	54.8242
 1.8440	54.6501
 1.8430	54.4623
 1.8420	54.2745
 1.8410	54.1307
 1.8400	54.0440
 1.8390	53.9609
 1.8380	53.8902
 1.8370	53.8879
 1.8360	53.8766
 1.8350	54.0147
 1.8340	54.0835
 1.8330	54.2242
 1.8320	54.2795
 1.8310	54.4671
 1.8300	54.6396
 1.8290	54.8556
 1.8280	55.1284
 1.8270	55.4190
 1.8260	55.7335
 1.8250	56.1185
 1.8240	56.5646
 1.8230	57.1351
 1.8220	57.7789
 1.8210	58.4136
 1.8200	59.1163
 1.8190	59.8525
 1.8180	60.4836
 1.8170	61.2102
 1.8160	61.8586
 1.8150	62.4278
 1.8140	62.9362
 1.8130	63.4209
 1.8120	63.8363
 1.8110	64.2158
 1.8100	64.5216
 1.8090	64.8360
 1.8080	65.1577
 1.8070	65.4366
 1.8060	65.6709
 1.8050	65.9135
 1.8040	66.1383
 1.8030	66.2951
 1.8020	66.4151
 1.8010	66.5794
 1.8000	66.7085
 1.7990	66.8845
 1.7980	66.9611
 1.7970	67.0195
 1.7960	67.1355
 1.7950	67.2280
 1.7940	67.2864
 1.7930	67.3367
 1.7920	67.3841
 1.7910	67.5294
 1.7900	67.6657
 1.7890	67.6884
 1.7880	67.7245
 1.7870	67.8160
 1.7860	67.8843
 1.7850	68.0044
 1.7840	68.0525
 1.7830	68.0908
 1.7820	68.1855
 1.7810	68.2597
 1.7800	68.3220
 1.7790	68.3839
 1.7780	68.4319
 1.7770	68.4746
 1.7760	68.5228
 1.7750	68.5563
 1.7740	68.6236
 1.7730	68.6410
 1.7720	68.7152
 1.7710	68.7924
 1.7700	68.8052
 1.7690	68.8800
 1.7680	68.9290
 1.7670	68.9211
 1.7660	68.9512
 1.7650	69.0433
 1.7640	69.1236
 1.7630	69.1208
 1.7620	69.1307
 1.7610	69.1919
 1.7600	69.2509
 1.7590	69.1998
 1.7580	69.1895
 1.7570	69.2180
 1.7560	69.2972
 1.7550	69.3032
 1.7540	69.3110
 1.7530	69.3520
 1.7520	69.4269
 1.7510	69.4192
 1.7500	69.3939
 1.7490	69.4305
 1.7480	69.4799
 1.7470	69.4201
 1.7460	69.4667
 1.7450	69.5003
 1.7440	69.5424
 1.7430	69.5621
 1.7420	69.4831
 1.7410	69.5338
 1.7400	69.5525
 1.7390	69.5810
 1.7380	69.6364
 1.7370	69.6278
 1.7360	69.6329
 1.7350	69.5826
 1.7340	69.6387
 1.7330	69.6671
 1.7320	69.5856
 1.7310	69.6236
 1.7300	69.7037
 1.7290	69.6960
 1.7280	69.7557
 1.7270	69.7327
 1.7260	69.7255
 1.7250	69.7246
 1.7240	69.7590
 1.7230	69.7565
 1.7220	69.8239
 1.7210	69.7530
 1.7200	69.7169
 1.7190	69.7712
 1.7180	69.7917
 1.7170	69.8066
 1.7160	69.8420
 1.7150	69.8492
 1.7140	69.8178
 1.7130	69.7605
 1.7120	69.8233
 1.7110	69.8031
 1.7100	69.8156
 1.7090	69.8409
 1.7080	69.7809
 1.7070	69.7966
 1.7060	69.8386
 1.7050	69.7358
 1.7040	69.8432
 1.7030	69.8370
 1.7020	69.9120
 1.7010	69.8793
 1.7000	69.8264
 1.6990	69.8153
 1.6980	69.8064
 1.6970	69.8166
 1.6960	69.8382
 1.6950	69.8510
 1.6940	69.7920
 1.6930	69.8992
 1.6920	69.9060
 1.6910	69.8360
 1.6900	69.8520
 1.6890	69.7874
 1.6880	69.9201
 1.6870	69.7695
 1.6860	69.8610
 1.6850	69.8674
 1.6840	69.8660
 1.6830	69.8770
 1.6820	69.9046
 1.6810	69.8796
 1.6800	69.8956
 1.6790	69.8187
 1.6780	69.8344
 1.6770	69.9076
 1.6760	69.9469
 1.6750	69.9715
 1.6740	69.9501
 1.6730	69.8845
 1.6720	69.8980
 1.6710	69.8953
 1.6700	69.9217
 1.6690	69.9589
 1.6680	69.8725
 1.6670	69.8929
 1.6660	69.9135
 1.6650	69.8601
 1.6640	69.8743
 1.6630	69.8808
 1.6620	69.9130
 1.6610	69.9384
 1.6600	69.9412
 1.6590	69.9521
 1.6580	69.9499
 1.6570	69.9207
 1.6560	69.9666
 1.6550	69.9054
 1.6540	69.9690
 1.6530	69.8950
 1.6520	69.8773
 1.6510	69.8564
 1.6500	70.0233
 1.6490	69.8441
 1.6480	69.9409
 1.6470	69.8739
 1.6460	69.9668
 1.6450	69.9296
 1.6440	69.9454
 1.6430	69.8671
 1.6420	70.0202
 1.6410	69.8740
 1.6400	69.9808
 1.6390	69.8952
 1.6380	69.9117
 1.6370	69.9144
 1.6360	69.9367
 1.6350	69.9543
 1.6340	69.9324
 1.6330	69.8772
 1.6320	69.9704
 1.6310	69.9898
 1.6300	69.9593
 1.6290	69.9576
 1.6280	69.9277
 1.6270	69.9230
 1.6260	69.9671
 1.6250	69.9553
 1.6240	69.9684
 1.6230	69.9834
 1.6220	69.9712
 1.6210	70.0222
 1.6200	69.8791
 1.6190	69.8730
 1.6180	69.9907
 1.6170	69.9369
 1.6160	69.9881
 1.6150	70.0303
 1.6140	70.0217
 1.6130	69.9757
 1.6120	70.0195
 1.6110	69.9672
 1.6100	69.9831
 1.6090	69.9706
 1.6080	69.9612
 1.6070	69.9526
 1.6060	70.0258
 1.6050	69.9466
 1.6040	69.9636
 1.6030	69.9582
 1.6020	69.9700
 1.6010	70.0034
 1.6000	70.0074
 1.5990	69.9491
 1.5980	69.9652
 1.5970	69.9729
 1.5960	70.0178
 1.5950	70.0004
 1.5940	70.0010
 1.5930	69.9781
 1.5920	70.0488
 1.5910	70.0112
 1.5900	69.9987
 1.5890	69.9115
 1.5880	69.9439
 1.5870	69.9322
 1.5860	69.9263
 1.5850	69.9567
 1.5840	69.9456
 1.5830	69.9511
 1.5820	70.0026
 1.5810	69.9032
 1.5800	69.9631
 1.5790	69.9211
 1.5780	69.9623
 1.5770	69.9210
 1.5760	69.9366
 1.5750	69.9125
 1.5740	69.9227
 1.5730	69.9589
 1.5720	69.9553
 1.5710	69.8789
 1.5700	69.9309
 1.5690	69.9197
 1.5680	69.9308
 1.5670	69.9184
 1.5660	69.9091
 1.5650	69.9633
 1.5640	69.9421
 1.5630	69.9334
 1.5620	69.9427
 1.5610	69.9357
 1.5600	69.9484
 1.5590	69.9431
 1.5580	69.9734
 1.5570	69.9291
 1.5560	69.9169
 1.5550	69.8839
 1.5540	69.8363
 1.5530	69.7949
 1.5520	69.9313
 1.5510	69.8676
 1.5500	69.9142
 1.5490	69.9382
 1.5480	69.9089
 1.5470	69.8390
 1.5460	69.8689
 1.5450	69.8468
 1.5440	69.8547
 1.5430	69.8291
 1.5420	69.8516
 1.5410	69.8314
 1.5400	69.8117
 1.5390	69.7968
 1.5380	69.7971
 1.5370	69.7644
 1.5360	69.8304
 1.5350	69.8126
 1.5340	69.7696
 1.5330	69.7975
 1.5320	69.8426
 1.5310	69.7807
 1.5300	69.7919
 1.5290	69.7797
 1.5280	69.7795
 1.5270	69.7841
 1.5260	69.7278
 1.5250	69.7214
 1.5240	69.6882
 1.5230	69.6916
 1.5220	69.6935
 1.5210	69.6705
 1.5200	69.6338
 1.5190	69.5699
 1.5180	69.5988
 1.5170	69.5886
 1.5160	69.5508
 1.5150	69.5331
 1.5140	69.5162
 1.5130	69.4745
 1.5120	69.4490
 1.5110	69.4215
 1.5100	69.3965
 1.5090	69.3666
 1.5080	69.3282
 1.5070	69.3251
 1.5060	69.3170
 1.5050	69.2945
 1.5040	69.3205
 1.5030	69.3141
 1.5020	69.2779
 1.5010	69.2507
 1.5000	69.2183
 1.4990	69.2294
 1.4980	69.2659
 1.4970	69.2737
 1.4960	69.2662
 1.4950	69.2732
 1.4940	69.2777
 1.4930	69.2556
 1.4920	69.2257
 1.4910	69.2630
 1.4900	69.2720
 1.4890	69.2709
 1.4880	69.2524
 1.4870	69.2110
 1.4860	69.1818
 1.4850	69.1628
 1.4840	69.1552
 1.4830	69.1549
 1.4820	69.0875
 1.4810	69.0193
 1.4800	68.9243
 1.4790	68.8790
 1.4780	68.8238
 1.4770	68.7155
 1.4760	68.5700
 1.4750	68.4157
 1.4740	68.1613
 1.4730	67.7584
 1.4720	67.1557
 1.4710	66.2593
 1.4700	65.0923
 1.4690	63.9785
 1.4680	63.2280
 1.4670	63.0406
 1.4660	63.5279
 1.4650	64.4813
 1.4640	65.4900
 1.4630	66.3218
 1.4620	66.9636
 1.4610	67.3712
 1.4600	67.6182
 1.4590	67.7858
 1.4580	67.8850
 1.4570	68.0248
 1.4560	68.0296
 1.4550	68.0759
 1.4540	68.0460
 1.4530	68.0086
 1.4520	67.9652
 1.4510	67.9340
 1.4500	67.8089
 1.4490	67.6757
 1.4480	67.4674
 1.4470	67.3175
 1.4460	67.1159
 1.4450	66.8826
 1.4440	66.7009
 1.4430	66.5144
 1.4420	66.3219
 1.4410	66.0770
 1.4400	65.8959
 1.4390	65.7728
 1.4380	65.6406
 1.4370	65.5127
 1.4360	65.3711
 1.4350	65.2538
 1.4340	65.1118
 1.4330	65.0072
 1.4320	64.9012
 1.4310	64.8351
 1.4300	64.7591
 1.4290	64.8728
 1.4280	64.8150
 1.4270	64.8393
 1.4260	64.7818
 1.4250	64.6659
 1.4240	64.4055
 1.4230	64.0696
 1.4220	63.5285
 1.4210	63.1796
 1.4200	62.8451
 1.4190	62.7209
 1.4180	62.6079
 1.4170	62.4622
 1.4160	62.2735
 1.4150	62.0631
 1.4140	61.7945
 1.4130	61.5734
 1.4120	61.1254
 1.4110	60.6560
 1.4100	60.1985
 1.4090	59.8615
 1.4080	59.5980
 1.4070	59.0382
 1.4060	57.8427
 1.4050	55.6299
 1.4040	52.0500
 1.4030	47.3062
 1.4020	42.3466
 1.4010	39.0258
 1.4000	38.9076
 1.3990	42.1794
 1.3980	47.2015
 1.3970	52.5554
 1.3960	56.9925
 1.3950	59.9651
 1.3940	61.7858
 1.3930	62.8574
 1.3920	63.6061
 1.3910	64.1823
 1.3900	64.4849
 1.3890	64.8109
 1.3880	65.0095
 1.3870	65.2180
 1.3860	65.2315
 1.3850	65.2103
 1.3840	65.2055
 1.3830	65.1590
 1.3820	65.0099
 1.3810	64.8977
 1.3800	64.7269
 1.3790	64.5814
 1.3780	64.1944
 1.3770	64.0102
 1.3760	63.5869
 1.3750	63.4706
 1.3740	63.2441
 1.3730	63.0918
 1.3720	62.9027
 1.3710	62.9493
 1.3700	62.8765
 1.3690	62.9644
 1.3680	62.9184
 1.3670	63.0761
 1.3660	63.0346
 1.3650	63.2401
 1.3640	63.3586
 1.3630	63.6682
 1.3620	63.8499
 1.3610	64.3150
 1.3600	64.7493
 1.3590	65.1931
 1.3580	65.5692
 1.3570	66.1189
 1.3560	66.4716
 1.3550	66.7225
 1.3540	67.0862
 1.3530	67.4241
 1.3520	67.6194
 1.3510	67.9050
 1.3500	68.0506
 1.3490	68.2370
 1.3480	68.1476
 1.3470	68.2690
 1.3460	68.3189
 1.3450	68.3515
 1.3440	68.4520
 1.3430	68.4318
 1.3420	68.4702
 1.3410	68.4726
 1.3400	68.5131
 1.3390	68.5145
 1.3380	68.6051
 1.3370	68.6529
 1.3360	68.6752
 1.3350	68.7099
 1.3340	68.6962
 1.3330	68.8320
 1.3320	68.8768
 1.3310	68.8514
 1.3300	68.8335
 1.3290	68.9550
 1.3280	68.8969
 1.3270	68.9991
 1.3260	69.0340
 1.3250	69.0910
 1.3240	69.0521
 1.3230	69.0953
 1.3220	69.0676
 1.3210	69.1668
 1.3200	69.1678
 1.3190	69.1664
 1.3180	69.1490
 1.3170	69.1960
 1.3160	69.1547
 1.3150	69.2049
 1.3140	69.1702
 1.3130	69.2677
 1.3120	69.2242
 1.3110	69.1782
 1.3100	69.0705
 1.3090	69.2039
 1.3080	69.1963
 1.3070	69.2035
 1.3060	69.2638
 1.3050	69.2047
 1.3040	69.2284
 1.3030	69.2764
 1.3020	69.2615
 1.3010	69.2739
 1.3000	69.2298
 1.2990	69.2498
 1.2980	69.2400
 1.2970	69.2212
 1.2960	69.2330
 1.2950	69.2644
 1.2940	69.2342
 1.2930	69.2563
 1.2920	69.2319
 1.2910	69.2360
 1.2900	69.2147
 1.2890	69.2074
 1.2880	69.2097
 1.2870	69.2394
 1.2860	69.2673
 1.2850	69.2268
 1.2840	69.1799
 1.2830	69.2096
 1.2820	69.2064
 1.2810	69.2042
 1.2800	69.2355
 1.2790	69.2489
 1.2780	69.1909
 1.2770	69.1684
 1.2760	69.1306
 1.2750	69.1912
 1.2740	69.1829
 1.2730	69.1656
 1.2720	69.1944
 1.2710	69.2312
 1.2700	69.1842
 1.2690	69.1997
 1.2680	69.1790
 1.2670	69.1438
 1.2660	69.1801
 1.2650	69.2087
 1.2640	69.1108
 1.2630	69.1153
 1.2620	69.1324
 1.2610	69.1839
 1.2600	69.1158
 1.2590	69.1532
 1.2580	69.1463
 1.2570	69.1040
 1.2560	69.1248
 1.2550	69.1281
 1.2540	69.1762
 1.2530	69.1553
 1.2520	69.0887
 1.2510	69.1231
 1.2500	69.1047
 1.2490	69.0925
 1.2480	69.0682
 1.2470	69.1283
 1.2460	69.0866
 1.2450	69.0392
 1.2440	69.1054
 1.2430	69.0553
 1.2420	69.0575
 1.2410	69.0840
 1.2400	69.0706
 1.2390	69.1021
 1.2380	69.0629
 1.2370	69.0352
 1.2360	69.0024
 1.2350	69.0092
 1.2340	69.0268
 1.2330	68.9909
 1.2320	69.0418
 1.2310	69.0524
 1.2300	69.0036
 1.2290	69.0921
 1.2280	69.0846
 1.2270	68.9822
 1.2260	68.9611
 1.2250	68.9357
 1.2240	68.8986
 1.2230	68.9377
 1.2220	68.9177
 1.2210	68.9205
 1.2200	68.9479
 1.2190	68.9516
 1.2180	68.9188
 1.2170	68.8947
 1.2160	68.9079
 1.2150	68.9350
 1.2140	68.9241
 1.2130	68.8447
 1.2120	68.8166
 1.2110	68.8492
 1.2100	68.9403
 1.2090	68.9110
 1.2080	68.8834
 1.2070	68.9006
 1.2060	68.8423
 1.2050	68.7829
 1.2040	68.7397
 1.2030	68.6863
 1.2020	68.7309
 1.2010	68.6948
 1.2000	68.6972
 1.1990	68.7543
 1.1980	68.7697
 1.1970	68.7538
 1.1960	68.7250
 1.1950	68.7162
 1.1940	68.6934
 1.1930	68.6838
 1.1920	68.6578
 1.1910	68.6780
 1.1900	68.6931
 1.1890	68.7244
 1.1880	68.6559
 1.1870	68.6490
 1.1860	68.6501
 1.1850	68.6743
 1.1840	68.6571
 1.1830	68.5863
 1.1820	68.5541
 1.1810	68.5600
 1.1800	68.5312
 1.1790	68.4390
 1.1780	68.4553
 1.1770	68.4167
 1.1760	68.4088
 1.1750	68.3961
 1.1740	68.3540
 1.1730	68.3164
 1.1720	68.2819
 1.1710	68.2438
 1.1700	68.2568
 1.1690	68.2505
 1.1680	68.3320
 1.1670	68.3114
 1.1660	68.2702
 1.1650	68.2474
 1.1640	68.2418
 1.1630	68.2398
 1.1620	68.2096
 1.1610	68.1849
 1.1600	68.1723
 1.1590	68.0862
 1.1580	68.0207
 1.1570	67.9502
 1.1560	67.8659
 1.1550	67.6412
 1.1540	67.2536
 1.1530	66.5185
 1.1520	65.1981
 1.1510	63.8087
 1.1500	63.2186
 1.1490	63.7821
 1.1480	65.1491
 1.1470	66.3855
 1.1460	67.2077
 1.1450	67.5680
 1.1440	67.7210
 1.1430	67.7353
 1.1420	67.8823
 1.1410	67.8840
 1.1400	67.8985
 1.1390	67.9198
 1.1380	67.8987
 1.1370	67.8534
 1.1360	67.7876
 1.1350	67.6950
 1.1340	67.6578
 1.1330	67.5845
 1.1320	67.5759
 1.1310	67.5622
 1.1300	67.4783
 1.1290	67.4174
 1.1280	67.4502
 1.1270	67.4131
 1.1260	67.4206
 1.1250	67.4821
 1.1240	67.5340
 1.1230	67.5643
 1.1220	67.6124
 1.1210	67.6486
 1.1200	67.7282
 1.1190	67.7171
 1.1180	67.7841
 1.1170	67.7689
 1.1160	67.8280
 1.1150	67.9176
 1.1140	67.8499
 1.1130	67.8202
 1.1120	67.7916
 1.1110	67.6954
 1.1100	67.8110
 1.1090	67.8047
 1.1080	67.8059
 1.1070	67.6587
 1.1060	67.6940
 1.1050	67.7157
 1.1040	67.7526
 1.1030	67.6847
 1.1020	67.6444
 1.1010	67.5937
 1.1000	67.6396
 1.0990	67.6266
 1.0980	67.6146
 1.0970	67.5848
 1.0960	67.5996
 1.0950	67.4982
 1.0940	67.5282
 1.0930	67.4667
 1.0920	67.4854
 1.0910	67.4413
 1.0900	67.4431
 1.0890	67.4573
 1.0880	67.4129
 1.0870	67.3651
 1.0860	67.3671
 1.0850	67.3771
 1.0840	67.3404
 1.0830	67.2360
 1.0820	67.2513
 1.0810	67.1903
 1.0800	67.3018
 1.0790	67.2168
 1.0780	67.3063
 1.0770	67.1529
 1.0760	67.2154
 1.0750	67.0345
 1.0740	67.1486
 1.0730	67.0791
 1.0720	67.2101
 1.0710	67.0771
 1.0700	67.0584
 1.0690	67.0504
 1.0680	66.9788
 1.0670	66.9601
 1.0660	66.9812
 1.0650	66.9465
 1.0640	66.9452
 1.0630	66.8806
 1.0620	66.8253
 1.0610	66.8047
 1.0600	66.7470
 1.0590	66.8205
 1.0580	66.8065
 1.0570	66.7188
 1.0560	66.7081
 1.0550	66.5733
 1.0540	66.6535
 1.0530	66.6240
 1.0520	66.7512
 1.0510	66.6251
 1.0500	66.5359
 1.0490	66.5440
 1.0480	66.4923
 1.0470	66.4505
 1.0460	66.4906
 1.0450	66.4071
 1.0440	66.4077
 1.0430	66.3610
 1.0420	66.4418
 1.0410	66.2658
 1.0400	66.3421
 1.0390	66.3222
 1.0380	66.2803
 1.0370	66.2384
 1.0360	66.2583
 1.0350	66.1694
 1.0340	66.1745
 1.0330	66.1063
 1.0320	66.0999
 1.0310	66.0551
 1.0300	66.0734
 1.0290	66.0476
 1.0280	65.9874
 1.0270	65.9926
 1.0260	66.0323
 1.0250	65.9695
 1.0240	65.9855
 1.0230	65.8914
 1.0220	65.8233
 1.0210	65.8178
 1.0200	65.8840
 1.0190	65.8220
 1.0180	65.7754
 1.0170	65.7321
 1.0160	65.7416
 1.0150	65.6891
 1.0140	65.6619
 1.0130	65.6587
 1.0120	65.6784
 1.0110	65.6799
 1.0100	65.6156
 1.0090	65.5442
 1.0080	65.5347
 1.0070	65.4728
 1.0060	65.4656
 1.0050	65.3796
 1.0040	65.4160
 1.0030	65.3332
 1.0020	65.3694
 1.0010	65.3204
 1.0000	65.3059
 0.9990	65.3276
 0.9980	65.2316
 0.9970	65.1999
 0.9960	65.1863
 0.9950	65.1625
 0.9940	65.1571
 0.9930	65.1574
 0.9920	65.0950
 0.9910	65.0768
 0.9900	65.0436
 0.9890	65.0710
 0.9880	65.0665
 0.9870	64.9935
 0.9860	64.9392
 0.9850	64.8479
 0.9840	64.8669
 0.9830	64.8277
 0.9820	64.7400
 0.9810	64.6753
 0.9800	64.6518
 0.9790	64.5538
 0.9780	64.5361
 0.9770	64.4889
 0.9760	64.5126
 0.9750	64.4567
 0.9740	64.4842
 0.9730	64.4508
 0.9720	64.3992
 0.9710	64.3532
 0.9700	64.3691
 0.9690	64.2976
 0.9680	64.2643
 0.9670	64.2166
 0.9660	64.1955
 0.9650	64.1529
 0.9640	64.0801
 0.9630	64.0148
 0.9620	63.8560
 0.9610	63.6011
 0.9600	63.3791
 0.9590	63.0909
 0.9580	62.8790
 0.9570	62.7393
 0.9560	62.7334
 0.9550	62.9033
 0.9540	63.0943
 0.9530	63.3343
 0.9520	63.4860
 0.9510	63.5558
 0.9500	63.5455
 0.9490	63.5381
 0.9480	63.5043
 0.9470	63.4061
 0.9460	63.3940
 0.9450	63.3209
 0.9440	63.2608
 0.9430	63.2069
 0.9420	63.1619
 0.9410	63.0840
 0.9400	63.0001
 0.9390	62.9885
 0.9380	63.0113
 0.9370	62.9550
 0.9360	62.8755
 0.9350	62.8763
 0.9340	62.8409
 0.9330	62.7344
 0.9320	62.6794
 0.9310	62.6348
 0.9300	62.5839
 0.9290	62.4773
 0.9280	62.3812
 0.9270	62.3764
 0.9260	62.3278
 0.9250	62.2448
 0.9240	62.1547
 0.9230	62.0832
 0.9220	61.9940
 0.9210	61.9172
 0.9200	61.8613
 0.9190	61.7546
 0.9180	61.6720
 0.9170	61.6022
 0.9160	61.5247
 0.9150	61.5039
 0.9140	61.4335
 0.9130	61.3455
 0.9120	61.2514
 0.9110	61.1757
 0.9100	61.1035
 0.9090	61.0106
 0.9080	60.9039
 0.9070	60.8183
 0.9060	60.6807
 0.9050	60.6105
 0.9040	60.5590
 0.9030	60.5299
 0.9020	60.4040
 0.9010	60.3071
 0.9000	60.1827
 0.8990	60.1082
 0.8980	60.0255
 0.8970	59.9609
 0.8960	59.8289
 0.8950	59.7565
 0.8940	59.6348
 0.8930	59.5544
 0.8920	59.4380
 0.8910	59.3868
 0.8900	59.2709
 0.8890	59.1860
 0.8880	59.1204
 0.8870	59.0014
 0.8860	58.8715
 0.8850	58.8069
 0.8840	58.6930
 0.8830	58.5886
 0.8820	58.5107
 0.8810	58.3945
 0.8800	58.2678
 0.8790	58.1802
 0.8780	58.0901
 0.8770	58.0396
 0.8760	57.9110
 0.8750	57.8905
 0.8740	57.7586
 0.8730	57.6709
 0.8720	57.5752
 0.8710	57.5065
 0.8700	57.3599
 0.8690	57.3406
 0.8680	57.2608
 0.8670	57.1859
 0.8660	57.0613
 0.8650	56.9774
 0.8640	56.8655
 0.8630	56.8041
 0.8620	56.6586
 0.8610	56.6456
 0.8600	56.5810
 0.8590	56.5324
 0.8580	56.3918
 0.8570	56.3703
 0.8560	56.3205
 0.8550	56.1817
 0.8540	56.1299
 0.8530	56.0783
 0.8520	55.9821
 0.8510	55.9341
 0.8500	55.8680
 0.8490	55.8102
 0.8480	55.7342
 0.8470	55.6350
 0.8460	55.6403
 0.8450	55.5986
 0.8440	55.5565
 0.8430	55.5070
 0.8420	55.5012
 0.8410	55.3746
 0.8400	55.3885
 0.8390	55.3489
 0.8380	55.3037
 0.8370	55.2517
 0.8360	55.2003
 0.8350	55.1286
 0.8340	55.0981
 0.8330	55.0618
 0.8320	55.1005
 0.8310	55.0628
 0.8300	55.0563
 0.8290	55.0657
 0.8280	55.0438
 0.8270	55.0419
 0.8260	55.0280
 0.8250	55.0056
 0.8240	54.9806
 0.8230	54.9869
 0.8220	54.9681
 0.8210	54.9783
 0.8200	54.9147
 0.8190	54.6980
 0.8180	54.6307
 0.8170	54.6835
 0.8160	54.7417
 0.8150	54.7492
 0.8140	54.7910
 0.8130	54.8260
 0.8120	54.8022
 0.8110	54.8081
 0.8100	54.8406
 0.8090	55.1206
 0.8080	55.1642
 0.8070	55.2418
 0.8060	55.2528
 0.8050	55.3031
 0.8040	55.3584
 0.8030	55.3870
 0.8020	55.4117
 0.8010	55.4631
 0.8000	55.5064
 0.7990	55.5497
 0.7980	55.5876
 0.7970	55.6431
 0.7960	55.6444
 0.7950	55.7171
 0.7940	55.7955
 0.7930	55.7867
 0.7920	55.8680
 0.7910	55.9378
 0.7900	56.0180
 0.7890	56.0880
 0.7880	56.1195
 0.7870	56.1768
 0.7860	56.2900
 0.7850	56.3474
 0.7840	56.4058
 0.7830	56.5171
 0.7820	56.5551
 0.7810	56.6223
 0.7800	56.7292
 0.7790	56.7730
 0.7780	56.8684
 0.7770	56.9539
 0.7760	57.0703
 0.7750	57.0912
 0.7740	57.1960
 0.7730	57.2772
 0.7720	57.3347
 0.7710	57.4015
 0.7700	57.5379
 0.7690	57.6210
 0.7680	57.7138
 0.7670	57.7859
 0.7660	57.8788
 0.7650	57.9918
 0.7640	58.1034
 0.7630	58.1845
 0.7620	58.2706
 0.7610	58.3674
 0.7600	58.4826
 0.7590	58.5961
 0.7580	58.6809
 0.7570	58.7766
 0.7560	58.8699
 0.7550	58.9721
 0.7540	59.0915
 0.7530	59.1866
 0.7520	59.2806
 0.7510	59.3934
 0.7500	59.4898
 0.7490	59.6206
 0.7480	59.7297
 0.7470	59.8212
 0.7460	59.9177
 0.7450	60.0357
 0.7440	60.1392
 0.7430	60.2333
 0.7420	60.3311
 0.7410	60.4603
 0.7400	60.5504
 0.7390	60.6623
 0.7380	60.7534
 0.7370	60.8631
 0.7360	60.9237
 0.7350	61.0149
 0.7340	61.1367
 0.7330	61.2236
 0.7320	61.3398
 0.7310	61.4855
 0.7300	61.5738
 0.7290	61.6949
 0.7280	61.7886
 0.7270	61.8918
 0.7260	62.0174
 0.7250	62.0942
 0.7240	62.1835
 0.7230	62.2799
 0.7220	62.3843
 0.7210	62.4898
 0.7200	62.5800
 0.7190	62.6698
 0.7180	62.7653
 0.7170	62.8329
 0.7160	62.9541
 0.7150	63.0296
 0.7140	63.1069
 0.7130	63.2332
 0.7120	63.3151
 0.7110	63.3737
 0.7100	63.4629
 0.7090	63.5562
 0.7080	63.6425
 0.7070	63.7068
 0.7060	63.7842
 0.7050	63.8620
 0.7040	63.9490
 0.7030	64.0240
 0.7020	64.0985
 0.7010	64.1881
 0.7000	64.2645
 0.6990	64.3249
 0.6980	64.3921
 0.6970	64.4688
 0.6960	64.5240
 0.6950	64.5933
 0.6940	64.6461
 0.6930	64.7173
 0.6920	64.7986
 0.6910	64.8502
 0.6900	64.8938
 0.6890	64.9611
 0.6880	65.0096
 0.6870	65.0674
 0.6860	65.1206
 0.6850	65.1772
 0.6840	65.2136
 0.6830	65.2672
 0.6820	65.3129
 0.6810	65.3570
 0.6800	65.4067
 0.6790	65.4611
 0.6780	65.4965
 0.6770	65.5257
 0.6760	65.5763
 0.6750	65.6117
 0.6740	65.6517
 0.6730	65.6946
 0.6720	65.7280
 0.6710	65.7648
 0.6700	65.8216
 0.6690	65.8547
 0.6680	65.8722
 0.6670	65.9034
 0.6660	65.9299
 0.6650	65.9645
 0.6640	66.0024
 0.6630	66.0474
 0.6620	66.0838
 0.6610	66.1067
 0.6600	66.1378
 0.6590	66.1818
 0.6580	66.2048
 0.6570	66.2178
 0.6560	66.2587
 0.6550	66.2837
 0.6540	66.2922
 0.6530	66.3387
 0.6520	66.3774
 0.6510	66.3899
 0.6500	66.3943
 0.6490	66.4192
 0.6480	66.4515
 0.6470	66.4701
 0.6460	66.4901
 0.6450	66.5287
 0.6440	66.5563
 0.6430	66.5754
 0.6420	66.5965
 0.6410	66.6136
 0.6400	66.6465
 0.6390	66.6634
 0.6380	66.6724
 0.6370	66.6908
 0.6360	66.7188
 0.6350	66.7436
 0.6340	66.7571
 0.6330	66.7730
 0.6320	66.7938
 0.6310	66.8093
 0.6300	66.8262
 0.6290	66.8518
 0.6280	66.8689
 0.6270	66.8833
 0.6260	66.8992
 0.6250	66.9225
 0.6240	66.9435
 0.6230	66.9541
 0.6220	66.9761
 0.6210	66.9920
 0.6200	66.9974
 0.6190	67.0170
 0.6180	67.0348
 0.6170	67.0417
 0.6160	67.0546
 0.6150	67.0792
 0.6140	67.0917
 0.6130	67.1028
 0.6120	67.1246
 0.6110	67.1429
 0.6100	67.1518
 0.6090	67.1664
 0.6080	67.1831
 0.6070	67.1942
 0.6060	67.2064
 0.6050	67.2154
 0.6040	67.2315
 0.6030	67.2538
 0.6020	67.2765
 0.6010	67.2915
 0.6000	67.2967
 0.5990	67.3046
 0.5980	67.3294
 0.5970	67.3690
 0.5960	67.3971
 0.5950	67.4289
 0.5940	67.4428
 0.5930	67.4473
 0.5920	67.4579
 0.5910	67.4738
 0.5900	67.4832
 0.5890	67.4843
 0.5880	67.4971
 0.5870	67.5096
 0.5860	67.5224
 0.5850	67.5388
 0.5840	67.5526
 0.5830	67.5496
 0.5820	67.5577
 0.5810	67.5690
 0.5800	67.5850
 0.5790	67.5940
 0.5780	67.6243
 0.5770	67.6334
 0.5760	67.6318
 0.5750	67.6374
 0.5740	67.6478
 0.5730	67.6677
 0.5720	67.6799
 0.5710	67.6807
 0.5700	67.6962
 0.5690	67.7101
 0.5680	67.7225
 0.5670	67.7430
 0.5660	67.7370
 0.5650	67.7493
 0.5640	67.7737
 0.5630	67.7891
 0.5620	67.7932
 0.5610	67.8016
 0.5600	67.8037
 0.5590	67.8206
 0.5580	67.8341
 0.5570	67.8321
 0.5560	67.8376
 0.5550	67.8514
 0.5540	67.8685
 0.5530	67.8712
 0.5520	67.8902
 0.5510	67.8924
 0.5500	67.9171
 0.5490	67.9143
 0.5480	67.9239
 0.5470	67.9474
 0.5460	67.9598
 0.5450	67.9558
 0.5440	67.9709
 0.5430	67.9613
 0.5420	67.9801
 0.5410	67.9591
 0.5400	67.9759
 0.5390	67.9838
 0.5380	67.9849
 0.5370	67.9799
 0.5360	68.0004
 0.5350	68.0104
 0.5340	68.0189
 0.5330	68.0353
 0.5320	68.0387
 0.5310	68.0476
 0.5300	68.0482
 0.5290	68.0491
 0.5280	68.0625
 0.5270	68.0732
 0.5260	68.0730
 0.5250	68.0817
 0.5240	68.0758
 0.5230	68.0930
 0.5220	68.1061
 0.5210	68.0964
 0.5200	68.1068
 0.5190	68.1109
 0.5180	68.1069
 0.5170	68.1015
 0.5160	68.1021
 0.5150	68.1113
 0.5140	68.1226
 0.5130	68.1252
 0.5120	68.1238
 0.5110	68.1276
 0.5100	68.1143
 0.5090	68.1286
 0.5080	68.1186
 0.5070	68.1202
 0.5060	68.1225
 0.5050	68.1107
 0.5040	68.1209
 0.5030	68.1244
 0.5020	68.0965
 0.5010	68.1039
 0.5000	68.1011
 0.4990	68.1029
 0.4980	68.0917
 0.4970	68.0744
 0.4960	68.0516
 0.4950	68.0512
 0.4940	68.0468
 0.4930	68.0143
 0.4920	68.0281
 0.4910	68.0075
 0.4900	67.9963
 0.4890	67.9833
 0.4880	67.9919
 0.4870	67.9827
 0.4860	67.9619
 0.4850	67.9618
 0.4840	67.9379
 0.4830	67.9317
 0.4820	67.9195
 0.4810	67.9181
 0.4800	67.9234
 0.4790	67.9119
 0.4780	67.9224
 0.4770	67.9194
 0.4760	67.9230
 0.4750	67.9142
 0.4740	67.8914
 0.4730	67.8970
 0.4720	67.8947
 0.4710	67.8616
 0.4700	67.8388
 0.4690	67.8485
 0.4680	67.8356
 0.4670	67.8126
 0.4660	67.7924
 0.4650	67.7738
 0.4640	67.7610
 0.4630	67.7532
 0.4620	67.7282
 0.4610	67.6961
 0.4600	67.6824
 0.4590	67.6614
 0.4580	67.6442
 0.4570	67.6370
 0.4560	67.6225
 0.4550	67.5941
 0.4540	67.5568
 0.4530	67.5395
 0.4520	67.5165
 0.4510	67.4951
 0.4500	67.4531
 0.4490	67.4490
 0.4480	67.4225
 0.4470	67.3714
 0.4460	67.3298
 0.4450	67.3100
 0.4440	67.2655
 0.4430	67.2392
 0.4420	67.1963
 0.4410	67.1619
 0.4400	67.1327
 0.4390	67.0817
 0.4380	67.0443
 0.4370	66.9830
 0.4360	66.9464
 0.4350	66.8941
 0.4340	66.8003
 0.4330	66.7104
 0.4320	66.6213
 0.4310	66.5135
 0.4300	66.4299
 0.4290	66.3449
 0.4280	66.2619
 0.4270	66.2130
 0.4260	66.1608
 0.4250	66.1470
 0.4240	66.1451
 0.4230	66.1519
 0.4220	66.1829
 0.4210	66.1853
 0.4200	66.1953
 0.4190	66.2352
 0.4180	66.2394
 0.4170	66.2266
 0.4160	66.2098
 0.4150	66.2007
 0.4140	66.1911
 0.4130	66.1635
 0.4120	66.1237
 0.4110	66.1223
 0.4100	66.0845
 0.4090	66.0730
 0.4080	66.0384
 0.4070	66.0056
 0.4060	65.9599
 0.4050	65.9456
 0.4040	65.9011
 0.4030	65.8645
 0.4020	65.8479
 0.4010	65.8022
 0.4000	65.7545
