Name: Biotite K(Mg,Fe^2+)_3(Al,Fe^3+)Si_3O_10(OH,F)_2
Type: Mineral
Class: Silicate
Subclass: Phyllosilicate
Particle Size: Coarse
Sample No.: PS-23A
Owner: JPL
Wavelength Range: VSWIR
Origin: 
Collection Date: N/A
Description: Particle size was 125-500um.Collected by JPL Original ASTER Spectral Library name was jpl.beckman.mineral.silicate.phyllosilicate.coarse.ps23a.spectrum.txt
Measurement: Hemispherical reflectance
First Column: X
Second Column: Y
X Units: Wavelength (micrometers)
Y Units:Reflectance (percent)
First X Value:  0.4000
Last X Value:  2.5000
Number of X Values: 826
Additional Information: mineral.silicate.phyllosilicate.coarse.vswir.ps-23a.jpl.beckman.ancillary.txt

 0.4000	 9.0500
 0.4010	 8.9800
 0.4020	 8.9900
 0.4030	 8.9900
 0.4040	 8.9800
 0.4050	 9.1000
 0.4060	 9.0900
 0.4070	 9.0100
 0.4080	 9.1300
 0.4090	 9.1400
 0.4100	 9.2000
 0.4110	 9.1900
 0.4120	 9.1900
 0.4130	 9.2000
 0.4140	 9.2500
 0.4150	 9.1800
 0.4160	 9.2300
 0.4170	 9.3700
 0.4180	 9.2100
 0.4190	 9.3100
 0.4200	 9.3000
 0.4210	 9.4000
 0.4220	 9.4700
 0.4230	 9.3600
 0.4240	 9.4200
 0.4250	 9.5400
 0.4260	 9.4600
 0.4270	 9.4500
 0.4280	 9.4500
 0.4290	 9.5200
 0.4300	 9.5900
 0.4310	 9.4100
 0.4320	 9.6100
 0.4330	 9.7300
 0.4340	 9.5900
 0.4350	 9.6400
 0.4360	 9.7000
 0.4370	 9.7100
 0.4380	 9.7100
 0.4390	 9.6300
 0.4400	 9.7600
 0.4410	 9.9000
 0.4420	 9.8300
 0.4430	 9.7100
 0.4440	 9.8300
 0.4450	 9.8200
 0.4460	 9.9900
 0.4470	 9.8000
 0.4480	 9.9100
 0.4490	10.0700
 0.4500	 9.9700
 0.4510	 9.9700
 0.4520	10.0200
 0.4530	10.0400
 0.4540	10.1500
 0.4550	 9.9900
 0.4560	10.1600
 0.4570	10.2500
 0.4580	10.1700
 0.4590	10.2000
 0.4600	10.2100
 0.4610	10.4000
 0.4620	10.2100
 0.4630	10.3100
 0.4640	10.4200
 0.4650	10.4200
 0.4660	10.4200
 0.4670	10.3700
 0.4680	10.4900
 0.4690	10.5400
 0.4700	10.4900
 0.4710	10.5600
 0.4720	10.6900
 0.4730	10.6900
 0.4740	10.6900
 0.4750	10.5900
 0.4760	10.6900
 0.4770	10.7600
 0.4780	10.7100
 0.4790	10.8800
 0.4800	11.0000
 0.4810	10.9500
 0.4820	10.9700
 0.4830	11.0000
 0.4840	11.2000
 0.4850	11.1100
 0.4860	11.1000
 0.4870	11.1800
 0.4880	11.2100
 0.4890	11.2500
 0.4900	11.2900
 0.4910	11.2600
 0.4920	11.3500
 0.4930	11.3300
 0.4940	11.3600
 0.4950	11.4100
 0.4960	11.5700
 0.4970	11.5000
 0.4980	11.5500
 0.4990	11.6000
 0.5000	11.6500
 0.5010	11.6400
 0.5020	11.6300
 0.5030	11.6900
 0.5040	11.7400
 0.5050	11.7300
 0.5060	11.8100
 0.5070	11.8800
 0.5080	11.9400
 0.5090	11.8700
 0.5100	11.8300
 0.5110	11.9600
 0.5120	12.0100
 0.5130	11.9000
 0.5140	12.1000
 0.5150	12.1800
 0.5160	12.1800
 0.5170	12.2100
 0.5180	12.1200
 0.5190	12.3300
 0.5200	12.1800
 0.5210	12.2500
 0.5220	12.3100
 0.5230	12.4500
 0.5240	12.4400
 0.5250	12.4300
 0.5260	12.4300
 0.5270	12.5800
 0.5280	12.5200
 0.5290	12.4900
 0.5300	12.5900
 0.5310	12.7400
 0.5320	12.6300
 0.5330	12.6400
 0.5340	12.7500
 0.5350	12.8400
 0.5360	12.7400
 0.5370	12.7400
 0.5380	12.8100
 0.5390	12.8700
 0.5400	12.8000
 0.5410	12.8400
 0.5420	12.8900
 0.5430	12.9300
 0.5440	12.9100
 0.5450	12.8900
 0.5460	12.8700
 0.5470	12.9700
 0.5480	12.8900
 0.5490	13.0000
 0.5500	12.9800
 0.5510	13.0300
 0.5520	13.0300
 0.5530	12.9700
 0.5540	13.1100
 0.5550	12.9900
 0.5560	12.9700
 0.5570	13.0900
 0.5580	13.1300
 0.5590	13.0800
 0.5600	13.1200
 0.5610	13.1600
 0.5620	13.1900
 0.5630	13.2800
 0.5640	13.3300
 0.5650	13.1900
 0.5660	13.3600
 0.5670	13.3900
 0.5680	13.4600
 0.5690	13.4400
 0.5700	13.4000
 0.5710	13.5100
 0.5720	13.4600
 0.5730	13.3700
 0.5740	13.5000
 0.5750	13.5000
 0.5760	13.5000
 0.5770	13.5400
 0.5780	13.5000
 0.5790	13.5100
 0.5800	13.6000
 0.5810	13.4000
 0.5820	13.5700
 0.5830	13.6600
 0.5840	13.6700
 0.5850	13.6300
 0.5860	13.5800
 0.5870	13.7300
 0.5880	13.5800
 0.5890	13.5600
 0.5900	13.6900
 0.5910	13.7700
 0.5920	13.7100
 0.5930	13.6900
 0.5940	13.6700
 0.5950	13.8100
 0.5960	13.6900
 0.5970	13.6400
 0.5980	13.7900
 0.5990	13.8900
 0.6000	13.8100
 0.6010	13.8700
 0.6020	13.8000
 0.6030	13.9200
 0.6040	13.8200
 0.6050	13.7700
 0.6060	13.8600
 0.6070	14.0200
 0.6080	13.8900
 0.6090	13.8900
 0.6100	13.8900
 0.6110	13.9900
 0.6120	13.9400
 0.6130	13.8100
 0.6140	13.9100
 0.6150	14.0100
 0.6160	13.9400
 0.6170	13.9200
 0.6180	13.9100
 0.6190	13.9500
 0.6200	13.9200
 0.6210	13.8200
 0.6220	13.9100
 0.6230	13.9800
 0.6240	13.8100
 0.6250	13.8900
 0.6260	13.8600
 0.6270	13.9500
 0.6280	13.8900
 0.6290	13.8500
 0.6300	13.8100
 0.6310	13.9100
 0.6320	13.8200
 0.6330	13.8700
 0.6340	13.8300
 0.6350	13.8300
 0.6360	13.8300
 0.6370	13.7400
 0.6380	13.8600
 0.6390	13.8600
 0.6400	13.8300
 0.6410	13.8100
 0.6420	13.8100
 0.6430	13.9200
 0.6440	13.8300
 0.6450	13.7600
 0.6460	13.8800
 0.6470	13.8100
 0.6480	13.7600
 0.6490	13.8300
 0.6500	13.8100
 0.6510	13.8100
 0.6520	13.8500
 0.6530	13.7700
 0.6540	13.8800
 0.6550	13.7800
 0.6560	13.6500
 0.6570	13.7800
 0.6580	13.8100
 0.6590	13.8000
 0.6600	13.8000
 0.6610	13.6800
 0.6620	13.7800
 0.6630	13.6800
 0.6640	13.6300
 0.6650	13.7300
 0.6660	13.7800
 0.6670	13.7500
 0.6680	13.7500
 0.6690	13.6300
 0.6700	13.7200
 0.6710	13.6200
 0.6720	13.5600
 0.6730	13.6500
 0.6740	13.6500
 0.6750	13.7500
 0.6760	13.5900
 0.6770	13.5200
 0.6780	13.5400
 0.6790	13.6400
 0.6800	13.5200
 0.6810	13.5800
 0.6820	13.5600
 0.6830	13.5900
 0.6840	13.5700
 0.6850	13.4600
 0.6860	13.5100
 0.6870	13.5400
 0.6880	13.4900
 0.6890	13.5300
 0.6900	13.5300
 0.6910	13.5600
 0.6920	13.5800
 0.6930	13.4600
 0.6940	13.4900
 0.6950	13.5300
 0.6960	13.4400
 0.6970	13.4800
 0.6980	13.5200
 0.6990	13.5000
 0.7000	13.4900
 0.7010	13.5000
 0.7020	13.4900
 0.7030	13.5500
 0.7040	13.5100
 0.7050	13.4400
 0.7060	13.5300
 0.7070	13.6700
 0.7080	13.5400
 0.7090	13.5800
 0.7100	13.5600
 0.7110	13.6800
 0.7120	13.6200
 0.7130	13.5700
 0.7140	13.6300
 0.7150	13.6900
 0.7160	13.6500
 0.7170	13.7200
 0.7180	13.6200
 0.7190	13.7200
 0.7200	13.6800
 0.7210	13.6000
 0.7220	13.6800
 0.7230	13.8200
 0.7240	13.8100
 0.7250	13.7400
 0.7260	13.7300
 0.7270	13.8000
 0.7280	13.8100
 0.7290	13.7400
 0.7300	13.8000
 0.7310	13.9000
 0.7320	13.8500
 0.7330	13.8600
 0.7340	13.7800
 0.7350	13.9000
 0.7360	13.8300
 0.7370	13.8000
 0.7380	13.8900
 0.7390	13.9900
 0.7400	13.9100
 0.7410	13.9600
 0.7420	13.8900
 0.7430	14.0700
 0.7440	13.9300
 0.7450	13.9800
 0.7460	14.0000
 0.7470	14.1400
 0.7480	14.1400
 0.7490	14.1100
 0.7500	14.1400
 0.7510	14.2200
 0.7520	14.1600
 0.7530	14.1000
 0.7540	14.2100
 0.7550	14.3500
 0.7560	14.3000
 0.7570	14.2900
 0.7580	14.2700
 0.7590	14.3600
 0.7600	14.3200
 0.7610	14.3300
 0.7620	14.3800
 0.7630	14.5500
 0.7640	14.5800
 0.7650	14.5000
 0.7660	14.5100
 0.7670	14.6800
 0.7680	14.5900
 0.7690	14.5800
 0.7700	14.7300
 0.7710	14.8900
 0.7720	14.8000
 0.7730	14.7600
 0.7740	14.7400
 0.7750	14.9400
 0.7760	14.9200
 0.7770	14.9500
 0.7780	14.9500
 0.7790	15.1200
 0.7800	14.9900
 0.7810	15.0400
 0.7820	15.0500
 0.7830	15.1400
 0.7840	15.1800
 0.7850	15.1500
 0.7860	15.3000
 0.7870	15.3300
 0.7880	15.2800
 0.7890	15.3700
 0.7900	15.4300
 0.7910	15.5000
 0.7920	15.5300
 0.7930	15.4700
 0.7940	15.5800
 0.7950	15.7000
 0.7960	15.6600
 0.7970	15.8300
 0.7980	15.8900
 0.7990	15.8200
 0.8000	16.1600
 0.8040	16.2800
 0.8080	16.4100
 0.8120	16.5600
 0.8160	16.5600
 0.8200	16.6300
 0.8240	16.7400
 0.8280	16.8200
 0.8320	16.8100
 0.8360	16.7900
 0.8400	16.8700
 0.8440	16.8300
 0.8480	16.8700
 0.8520	16.8200
 0.8560	16.8000
 0.8600	16.8800
 0.8640	16.9000
 0.8680	16.8300
 0.8720	16.8900
 0.8760	16.9600
 0.8800	16.9000
 0.8840	16.8300
 0.8880	16.8500
 0.8920	16.9600
 0.8960	16.9400
 0.9000	16.9300
 0.9040	16.9400
 0.9080	16.9900
 0.9120	17.0800
 0.9160	17.0900
 0.9200	17.1300
 0.9240	17.1700
 0.9280	17.2900
 0.9320	17.3600
 0.9360	17.3200
 0.9400	17.5000
 0.9440	17.5500
 0.9480	17.6400
 0.9520	17.6200
 0.9560	17.7000
 0.9600	17.7900
 0.9640	17.9200
 0.9680	17.8700
 0.9720	17.9300
 0.9760	17.9800
 0.9800	18.1000
 0.9840	18.1800
 0.9880	18.2900
 0.9920	18.3500
 0.9960	18.4800
 1.0000	18.4800
 1.0040	18.6100
 1.0080	18.6700
 1.0120	18.8200
 1.0160	18.7600
 1.0200	18.8800
 1.0240	18.8900
 1.0280	18.9800
 1.0320	19.0200
 1.0360	19.0900
 1.0400	19.0800
 1.0440	19.1900
 1.0480	19.2100
 1.0520	19.3300
 1.0560	19.3000
 1.0600	19.3400
 1.0640	19.4200
 1.0680	19.3900
 1.0720	19.4500
 1.0760	19.4400
 1.0800	19.5100
 1.0840	19.5400
 1.0880	19.5500
 1.0920	19.5700
 1.0960	19.6200
 1.1000	19.5900
 1.1040	19.5900
 1.1080	19.5800
 1.1120	19.6100
 1.1160	19.6300
 1.1200	19.7100
 1.1240	19.8400
 1.1280	19.8400
 1.1320	19.8800
 1.1360	19.9100
 1.1400	19.8800
 1.1440	19.9000
 1.1480	19.9800
 1.1520	20.0200
 1.1560	20.0900
 1.1600	20.1400
 1.1640	20.1900
 1.1680	20.3500
 1.1720	20.4000
 1.1760	20.4400
 1.1800	20.5800
 1.1840	20.6200
 1.1880	20.7200
 1.1920	20.7400
 1.1960	20.8500
 1.2000	21.0300
 1.2040	21.0800
 1.2080	21.1500
 1.2120	21.2200
 1.2160	21.3400
 1.2200	21.4700
 1.2240	21.5200
 1.2280	21.6300
 1.2320	21.7900
 1.2360	21.9000
 1.2400	22.0100
 1.2440	22.1300
 1.2480	22.2700
 1.2520	22.3400
 1.2560	22.4900
 1.2600	22.7300
 1.2640	22.7900
 1.2680	22.8900
 1.2720	23.0900
 1.2760	23.2200
 1.2800	23.3500
 1.2840	23.4900
 1.2880	23.6600
 1.2920	23.7600
 1.2960	23.9800
 1.3000	24.0500
 1.3040	24.2100
 1.3080	24.3700
 1.3120	24.5100
 1.3160	24.6500
 1.3200	24.8200
 1.3240	24.9700
 1.3280	25.1000
 1.3320	25.2300
 1.3360	25.3900
 1.3400	25.5600
 1.3440	25.7400
 1.3480	25.8400
 1.3520	25.9800
 1.3560	26.1200
 1.3600	26.2800
 1.3640	26.4200
 1.3680	26.5700
 1.3720	26.7200
 1.3760	26.8800
 1.3800	27.0200
 1.3840	27.1900
 1.3880	27.3300
 1.3920	27.4800
 1.3960	27.5900
 1.4000	27.7700
 1.4040	28.0100
 1.4080	28.1800
 1.4120	28.3500
 1.4160	28.4800
 1.4200	28.6800
 1.4240	28.8500
 1.4280	28.9700
 1.4320	29.1000
 1.4360	29.3600
 1.4400	29.5100
 1.4440	29.6600
 1.4480	29.8500
 1.4520	29.9900
 1.4560	30.1700
 1.4600	30.3000
 1.4640	30.4100
 1.4680	30.6000
 1.4720	30.7900
 1.4760	30.9700
 1.4800	31.1200
 1.4840	31.3100
 1.4880	31.3700
 1.4920	31.6200
 1.4960	31.7700
 1.5000	31.9000
 1.5040	32.0400
 1.5080	32.2700
 1.5120	32.4400
 1.5160	32.6600
 1.5200	32.7200
 1.5240	32.8800
 1.5280	33.0200
 1.5320	33.2700
 1.5360	33.3900
 1.5400	33.4800
 1.5440	33.7200
 1.5480	33.9300
 1.5520	34.0000
 1.5560	34.1500
 1.5600	34.3600
 1.5640	34.4900
 1.5680	34.6100
 1.5720	34.7700
 1.5760	34.9200
 1.5800	35.1300
 1.5840	35.3400
 1.5880	35.3600
 1.5920	35.5800
 1.5960	35.7500
 1.6000	35.9200
 1.6040	36.0500
 1.6080	36.2800
 1.6120	36.4000
 1.6160	36.5600
 1.6200	36.7100
 1.6240	36.9700
 1.6280	37.0500
 1.6320	37.2100
 1.6360	37.4000
 1.6400	37.5400
 1.6440	37.6800
 1.6480	37.8800
 1.6520	37.9900
 1.6560	38.2500
 1.6600	38.3300
 1.6640	38.4900
 1.6680	38.7000
 1.6720	38.8700
 1.6760	39.0300
 1.6800	39.1200
 1.6840	39.3000
 1.6880	39.4500
 1.6920	39.5900
 1.6960	39.7000
 1.7000	39.8800
 1.7040	40.1400
 1.7080	40.2700
 1.7120	40.3300
 1.7160	40.5400
 1.7200	40.7400
 1.7240	40.8500
 1.7280	40.9900
 1.7320	41.1300
 1.7360	41.2100
 1.7400	41.3700
 1.7440	41.5500
 1.7480	41.6200
 1.7520	41.8700
 1.7560	41.9800
 1.7600	42.0900
 1.7640	42.2800
 1.7680	42.3800
 1.7720	42.5400
 1.7760	42.6900
 1.7800	42.7600
 1.7840	42.9300
 1.7880	43.1200
 1.7920	43.2700
 1.7960	43.3500
 1.8000	43.4900
 1.8040	43.6900
 1.8080	43.7600
 1.8120	43.9100
 1.8160	43.9900
 1.8200	44.2000
 1.8240	44.3300
 1.8280	44.4200
 1.8320	44.5900
 1.8360	44.6200
 1.8400	44.7700
 1.8440	44.9000
 1.8480	45.0700
 1.8520	45.0600
 1.8560	45.2500
 1.8600	45.4300
 1.8640	45.5600
 1.8680	45.5700
 1.8720	45.7500
 1.8760	45.8900
 1.8800	46.0000
 1.8840	46.0800
 1.8880	46.2000
 1.8920	46.3300
 1.8960	46.4500
 1.9000	46.4900
 1.9040	46.6100
 1.9080	46.8000
 1.9120	46.8900
 1.9160	46.8800
 1.9200	47.0800
 1.9240	47.2300
 1.9280	47.3200
 1.9320	47.4300
 1.9360	47.5700
 1.9400	47.6500
 1.9440	47.8300
 1.9480	48.0000
 1.9520	48.1000
 1.9560	48.2600
 1.9600	48.3200
 1.9640	48.4400
 1.9680	48.6200
 1.9720	48.7800
 1.9760	48.9200
 1.9800	49.0800
 1.9840	49.2400
 1.9880	49.4500
 1.9920	49.4400
 1.9960	49.6600
 2.0000	49.8500
 2.0040	49.9900
 2.0080	50.0700
 2.0120	50.2400
 2.0160	50.3300
 2.0200	50.5100
 2.0240	50.6300
 2.0280	50.7600
 2.0320	50.7800
 2.0360	50.9800
 2.0400	51.1000
 2.0440	51.1600
 2.0480	51.2700
 2.0520	51.4700
 2.0560	51.4600
 2.0600	51.6900
 2.0640	51.8000
 2.0680	51.8100
 2.0720	51.9800
 2.0760	52.1200
 2.0800	52.2800
 2.0840	52.2300
 2.0880	52.4300
 2.0920	52.5600
 2.0960	52.7200
 2.1000	52.7800
 2.1040	52.8800
 2.1080	53.0000
 2.1120	53.1900
 2.1160	53.3200
 2.1200	53.3500
 2.1240	53.4900
 2.1280	53.6300
 2.1320	53.7100
 2.1360	53.7700
 2.1400	53.7900
 2.1440	53.9600
 2.1480	54.0300
 2.1520	54.0200
 2.1560	54.0900
 2.1600	54.2500
 2.1640	54.2700
 2.1680	54.3700
 2.1720	54.4000
 2.1760	54.4700
 2.1800	54.5700
 2.1840	54.6500
 2.1880	54.7000
 2.1920	54.7700
 2.1960	54.8300
 2.2000	54.9700
 2.2040	55.0700
 2.2080	55.1100
 2.2120	55.1800
 2.2160	55.2500
 2.2200	55.2700
 2.2240	55.3600
 2.2280	55.3800
 2.2320	55.3200
 2.2360	55.2000
 2.2400	55.1500
 2.2440	55.1900
 2.2480	55.2500
 2.2520	55.3000
 2.2560	55.3300
 2.2600	55.4600
 2.2640	55.5900
 2.2680	55.7000
 2.2720	55.8400
 2.2760	55.9500
 2.2800	55.9300
 2.2840	55.9000
 2.2880	55.9000
 2.2920	55.9000
 2.2960	55.6500
 2.3000	55.4800
 2.3040	55.3900
 2.3080	55.0800
 2.3120	55.0200
 2.3160	54.8000
 2.3200	54.7500
 2.3240	54.5700
 2.3280	54.5300
 2.3320	54.5200
 2.3360	54.6400
 2.3400	54.7600
 2.3440	54.8800
 2.3480	55.0200
 2.3520	55.2000
 2.3560	55.4200
 2.3600	55.5700
 2.3640	55.5800
 2.3680	55.6800
 2.3720	55.6400
 2.3760	55.7600
 2.3800	55.7400
 2.3840	55.6700
 2.3880	55.8100
 2.3920	55.8100
 2.3960	55.8900
 2.4000	56.0800
 2.4040	56.1400
 2.4080	56.3000
 2.4120	56.5500
 2.4160	56.6500
 2.4200	56.7700
 2.4240	56.8800
 2.4280	57.1300
 2.4320	57.2100
 2.4360	57.3300
 2.4400	57.5100
 2.4440	57.5300
 2.4480	57.6400
 2.4520	57.7400
 2.4560	57.7600
 2.4600	57.9200
 2.4640	58.0300
 2.4680	58.0700
 2.4720	58.1100
 2.4760	58.2200
 2.4800	58.3700
 2.4840	58.5300
 2.4880	58.6900
 2.4920	58.8200
 2.4960	59.0000
 2.5000	59.1200
