Name: Graphite C
Type: Mineral
Class: Element
Subclass: None
Particle Size: Fine
Sample No.: E-1A
Owner: JPL
Wavelength Range: VSWIR
Origin: Mexico, Sonora, Morelos, San Jose Mine.
Collection Date: N/A
Description: Particle size was 0-45um.Collected by:  Burminco Original ASTER Spectral Library name was jpl.perkin.mineral.element.none.fine.e01a.spectrum.txt
Measurement: Hemispherical reflectance
First Column: X
Second Column: Y
X Units: Wavelength (micrometers)
Y Units:Reflectance (percent)
First X Value:  2.5000
Last X Value:  0.4000
Number of X Values: 2101
Additional Information: mineral.element.none.fine.vswir.e-1a.jpl.perkin.ancillary.txt

 2.5000	 5.9261
 2.4990	 5.9466
 2.4980	 6.1934
 2.4970	 6.2913
 2.4960	 5.8234
 2.4950	 6.3587
 2.4940	 5.9921
 2.4930	 6.1944
 2.4920	 6.0572
 2.4910	 6.3229
 2.4900	 5.9736
 2.4890	 6.1386
 2.4880	 6.0789
 2.4870	 6.2649
 2.4860	 6.0970
 2.4850	 6.1980
 2.4840	 6.0996
 2.4830	 6.2856
 2.4820	 5.9437
 2.4810	 6.2171
 2.4800	 6.1277
 2.4790	 6.2907
 2.4780	 6.0345
 2.4770	 6.2057
 2.4760	 5.9963
 2.4750	 6.3243
 2.4740	 6.0977
 2.4730	 6.1688
 2.4720	 6.0759
 2.4710	 6.1725
 2.4700	 6.1261
 2.4690	 6.2330
 2.4680	 6.0854
 2.4670	 6.1813
 2.4660	 5.9477
 2.4650	 6.1487
 2.4640	 5.9985
 2.4630	 6.1772
 2.4620	 6.0421
 2.4610	 6.2294
 2.4600	 6.0315
 2.4590	 6.1051
 2.4580	 6.0244
 2.4570	 6.1905
 2.4560	 6.1191
 2.4550	 6.1777
 2.4540	 6.0777
 2.4530	 6.2022
 2.4520	 6.0580
 2.4510	 6.2030
 2.4500	 6.0055
 2.4490	 6.1052
 2.4480	 6.1484
 2.4470	 6.1116
 2.4460	 6.0087
 2.4450	 6.1608
 2.4440	 6.0099
 2.4430	 6.1018
 2.4420	 6.1288
 2.4410	 6.1646
 2.4400	 6.1073
 2.4390	 6.1339
 2.4380	 6.1273
 2.4370	 6.1541
 2.4360	 6.0925
 2.4350	 6.1230
 2.4340	 6.0769
 2.4330	 6.1944
 2.4320	 6.0945
 2.4310	 6.1421
 2.4300	 6.0712
 2.4290	 6.2308
 2.4280	 6.0716
 2.4270	 6.1730
 2.4260	 6.0984
 2.4250	 6.1615
 2.4240	 6.1167
 2.4230	 6.2180
 2.4220	 6.1452
 2.4210	 6.1809
 2.4200	 6.1511
 2.4190	 6.1672
 2.4180	 6.1124
 2.4170	 6.2052
 2.4160	 6.1769
 2.4150	 6.1835
 2.4140	 6.1171
 2.4130	 6.1204
 2.4120	 6.0913
 2.4110	 6.0999
 2.4100	 6.1175
 2.4090	 6.2202
 2.4080	 6.1149
 2.4070	 6.1333
 2.4060	 6.1335
 2.4050	 6.1616
 2.4040	 6.0836
 2.4030	 6.1926
 2.4020	 6.0876
 2.4010	 6.1313
 2.4000	 6.1256
 2.3990	 6.1857
 2.3980	 6.0682
 2.3970	 6.0842
 2.3960	 6.1143
 2.3950	 6.1379
 2.3940	 6.0821
 2.3930	 6.0887
 2.3920	 6.1359
 2.3910	 6.1674
 2.3900	 6.0954
 2.3890	 6.1813
 2.3880	 6.1958
 2.3870	 6.1291
 2.3860	 6.1099
 2.3850	 6.1702
 2.3840	 6.1202
 2.3830	 6.0878
 2.3820	 6.0604
 2.3810	 6.0861
 2.3800	 6.1053
 2.3790	 6.1676
 2.3780	 6.0950
 2.3770	 6.0613
 2.3760	 6.0621
 2.3750	 6.0882
 2.3740	 6.1350
 2.3730	 6.1940
 2.3720	 6.0744
 2.3710	 6.1151
 2.3700	 6.1475
 2.3690	 6.1243
 2.3680	 6.1289
 2.3670	 6.1620
 2.3660	 6.0816
 2.3650	 6.0377
 2.3640	 6.1266
 2.3630	 6.1310
 2.3620	 6.1041
 2.3610	 6.1755
 2.3600	 6.1752
 2.3590	 6.1359
 2.3580	 6.1584
 2.3570	 6.1620
 2.3560	 6.0980
 2.3550	 6.1006
 2.3540	 6.1033
 2.3530	 6.1378
 2.3520	 6.1671
 2.3510	 6.1297
 2.3500	 6.1021
 2.3490	 6.1206
 2.3480	 6.1838
 2.3470	 6.1596
 2.3460	 6.1045
 2.3450	 6.1129
 2.3440	 6.1250
 2.3430	 6.0632
 2.3420	 6.1191
 2.3410	 6.1479
 2.3400	 6.1263
 2.3390	 6.1088
 2.3380	 6.1316
 2.3370	 6.0898
 2.3360	 6.0919
 2.3350	 6.1131
 2.3340	 6.1712
 2.3330	 6.1229
 2.3320	 6.1419
 2.3310	 6.1038
 2.3300	 6.0798
 2.3290	 6.0893
 2.3280	 6.0392
 2.3270	 6.0267
 2.3260	 6.1123
 2.3250	 6.0970
 2.3240	 6.1282
 2.3230	 6.0405
 2.3220	 6.1082
 2.3210	 6.0962
 2.3200	 6.1469
 2.3190	 6.1219
 2.3180	 6.0937
 2.3170	 6.0794
 2.3160	 6.0989
 2.3150	 6.0654
 2.3140	 6.1497
 2.3130	 6.0861
 2.3120	 6.1430
 2.3110	 6.0446
 2.3100	 6.1201
 2.3090	 6.0245
 2.3080	 6.1112
 2.3070	 6.0793
 2.3060	 6.0876
 2.3050	 6.0686
 2.3040	 6.1308
 2.3030	 6.0199
 2.3020	 6.0829
 2.3010	 6.0491
 2.3000	 6.0933
 2.2990	 6.0397
 2.2980	 6.0972
 2.2970	 6.0497
 2.2960	 6.0999
 2.2950	 6.0340
 2.2940	 6.1011
 2.2930	 6.0347
 2.2920	 6.0818
 2.2910	 6.0104
 2.2900	 6.0698
 2.2890	 6.0525
 2.2880	 6.0819
 2.2870	 6.0855
 2.2860	 6.0458
 2.2850	 6.0466
 2.2840	 6.1240
 2.2830	 6.0352
 2.2820	 6.1028
 2.2810	 6.0537
 2.2800	 6.0631
 2.2790	 6.0360
 2.2780	 6.1307
 2.2770	 6.0006
 2.2760	 6.0623
 2.2750	 5.9692
 2.2740	 6.1216
 2.2730	 6.0136
 2.2720	 6.0877
 2.2710	 5.9475
 2.2700	 6.0958
 2.2690	 5.9566
 2.2680	 6.1056
 2.2670	 6.0490
 2.2660	 6.0583
 2.2650	 5.9528
 2.2640	 6.0858
 2.2630	 6.0142
 2.2620	 6.0754
 2.2610	 6.0139
 2.2600	 6.0909
 2.2590	 5.9540
 2.2580	 6.0498
 2.2570	 6.0575
 2.2560	 6.0584
 2.2550	 5.9755
 2.2540	 6.0202
 2.2530	 6.0271
 2.2520	 6.1006
 2.2510	 5.9750
 2.2500	 6.0704
 2.2490	 5.9621
 2.2480	 6.0566
 2.2470	 6.0515
 2.2460	 6.0497
 2.2450	 5.9986
 2.2440	 6.0110
 2.2430	 5.9786
 2.2420	 6.1046
 2.2410	 5.9499
 2.2400	 6.0533
 2.2390	 5.9066
 2.2380	 6.0479
 2.2370	 5.9164
 2.2360	 6.1206
 2.2350	 5.9800
 2.2340	 6.0556
 2.2330	 5.9890
 2.2320	 6.0523
 2.2310	 5.9286
 2.2300	 6.0870
 2.2290	 5.9115
 2.2280	 6.0899
 2.2270	 5.9514
 2.2260	 6.0827
 2.2250	 5.9394
 2.2240	 6.0747
 2.2230	 5.9178
 2.2220	 6.0551
 2.2210	 5.9367
 2.2200	 6.0846
 2.2190	 5.9297
 2.2180	 6.0674
 2.2170	 5.9624
 2.2160	 6.1240
 2.2150	 5.9573
 2.2140	 6.1118
 2.2130	 5.9160
 2.2120	 6.0801
 2.2110	 5.8594
 2.2100	 6.0576
 2.2090	 5.9823
 2.2080	 6.0247
 2.2070	 5.8598
 2.2060	 6.0622
 2.2050	 5.9867
 2.2040	 6.0135
 2.2030	 6.0007
 2.2020	 6.0802
 2.2010	 5.9781
 2.2000	 6.0464
 2.1990	 5.9835
 2.1980	 6.0611
 2.1970	 5.9173
 2.1960	 6.1244
 2.1950	 6.0140
 2.1940	 6.0618
 2.1930	 6.0155
 2.1920	 6.0638
 2.1910	 5.9938
 2.1900	 6.0820
 2.1890	 5.9545
 2.1880	 6.0688
 2.1870	 5.9781
 2.1860	 6.0444
 2.1850	 5.9699
 2.1840	 6.1012
 2.1830	 5.9501
 2.1820	 6.1315
 2.1810	 5.9937
 2.1800	 6.0985
 2.1790	 6.0293
 2.1780	 6.0677
 2.1770	 5.9857
 2.1760	 6.0640
 2.1750	 5.9791
 2.1740	 6.0664
 2.1730	 6.0400
 2.1720	 6.1023
 2.1710	 5.9285
 2.1700	 6.0686
 2.1690	 6.0326
 2.1680	 6.0703
 2.1670	 6.0224
 2.1660	 6.0883
 2.1650	 5.9668
 2.1640	 6.0877
 2.1630	 6.0972
 2.1620	 6.1211
 2.1610	 5.9985
 2.1600	 6.0686
 2.1590	 6.0036
 2.1580	 6.0685
 2.1570	 6.0387
 2.1560	 6.1353
 2.1550	 6.0552
 2.1540	 6.1362
 2.1530	 5.9862
 2.1520	 6.0629
 2.1510	 6.0010
 2.1500	 6.0743
 2.1490	 6.0245
 2.1480	 6.0913
 2.1470	 6.0526
 2.1460	 6.0576
 2.1450	 6.0202
 2.1440	 6.0959
 2.1430	 6.0272
 2.1420	 6.1325
 2.1410	 6.0134
 2.1400	 6.0272
 2.1390	 6.0152
 2.1380	 6.1393
 2.1370	 6.0501
 2.1360	 6.0527
 2.1350	 5.9761
 2.1340	 6.0917
 2.1330	 6.0582
 2.1320	 6.0892
 2.1310	 6.0330
 2.1300	 6.0082
 2.1290	 5.9924
 2.1280	 6.0613
 2.1270	 5.9434
 2.1260	 6.0084
 2.1250	 5.9551
 2.1240	 6.0400
 2.1230	 5.9608
 2.1220	 5.9901
 2.1210	 5.9329
 2.1200	 5.9519
 2.1190	 5.9600
 2.1180	 5.9836
 2.1170	 5.9914
 2.1160	 6.0046
 2.1150	 5.9242
 2.1140	 5.9741
 2.1130	 5.8873
 2.1120	 5.9504
 2.1110	 5.9329
 2.1100	 5.9460
 2.1090	 5.9251
 2.1080	 5.9915
 2.1070	 5.9161
 2.1060	 5.9382
 2.1050	 5.9217
 2.1040	 5.9623
 2.1030	 5.9657
 2.1020	 5.9649
 2.1010	 5.8984
 2.1000	 5.8899
 2.0990	 5.9135
 2.0980	 5.9412
 2.0970	 5.9389
 2.0960	 5.9160
 2.0950	 5.8238
 2.0940	 5.8723
 2.0930	 5.8944
 2.0920	 5.9121
 2.0910	 5.8416
 2.0900	 5.8640
 2.0890	 5.9007
 2.0880	 5.9164
 2.0870	 5.9146
 2.0860	 5.9075
 2.0850	 5.9004
 2.0840	 5.9132
 2.0830	 5.9151
 2.0820	 5.8924
 2.0810	 5.8822
 2.0800	 5.9112
 2.0790	 5.8705
 2.0780	 5.9144
 2.0770	 5.9128
 2.0760	 5.8952
 2.0750	 5.8711
 2.0740	 5.8474
 2.0730	 5.8589
 2.0720	 5.8971
 2.0710	 5.8691
 2.0700	 5.8671
 2.0690	 5.8638
 2.0680	 5.9030
 2.0670	 5.9075
 2.0660	 5.8772
 2.0650	 5.8927
 2.0640	 5.8703
 2.0630	 5.8874
 2.0620	 5.8942
 2.0610	 5.9110
 2.0600	 5.8917
 2.0590	 5.8491
 2.0580	 5.8370
 2.0570	 5.8965
 2.0560	 5.8774
 2.0550	 5.9202
 2.0540	 5.8903
 2.0530	 5.8907
 2.0520	 5.8502
 2.0510	 5.8630
 2.0500	 5.9160
 2.0490	 5.9028
 2.0480	 5.8804
 2.0470	 5.9511
 2.0460	 5.8884
 2.0450	 5.9062
 2.0440	 5.8970
 2.0430	 5.9349
 2.0420	 5.8545
 2.0410	 5.8718
 2.0400	 5.8973
 2.0390	 5.8863
 2.0380	 5.8645
 2.0370	 5.8968
 2.0360	 5.8546
 2.0350	 5.8639
 2.0340	 5.8762
 2.0330	 5.9362
 2.0320	 5.8760
 2.0310	 5.8793
 2.0300	 5.8625
 2.0290	 5.9044
 2.0280	 5.8714
 2.0270	 5.8491
 2.0260	 5.8628
 2.0250	 5.9649
 2.0240	 5.8740
 2.0230	 5.8741
 2.0220	 5.8629
 2.0210	 5.9487
 2.0200	 5.8911
 2.0190	 5.8859
 2.0180	 5.9009
 2.0170	 5.9201
 2.0160	 5.8650
 2.0150	 5.8297
 2.0140	 5.8854
 2.0130	 5.9148
 2.0120	 5.8367
 2.0110	 5.9275
 2.0100	 5.8560
 2.0090	 5.9276
 2.0080	 5.7734
 2.0070	 5.8651
 2.0060	 5.8173
 2.0050	 5.8333
 2.0040	 5.8225
 2.0030	 5.8939
 2.0020	 5.8315
 2.0010	 5.9172
 2.0000	 5.7970
 1.9990	 5.8475
 1.9980	 5.7933
 1.9970	 5.9811
 1.9960	 5.7472
 1.9950	 5.8553
 1.9940	 5.7763
 1.9930	 5.8684
 1.9920	 5.7550
 1.9910	 5.8588
 1.9900	 5.7469
 1.9890	 5.8241
 1.9880	 5.7561
 1.9870	 5.8743
 1.9860	 5.8212
 1.9850	 5.8436
 1.9840	 5.8027
 1.9830	 5.8665
 1.9820	 5.7627
 1.9810	 5.8688
 1.9800	 5.8030
 1.9790	 5.9270
 1.9780	 5.8230
 1.9770	 5.8400
 1.9760	 5.8573
 1.9750	 5.8400
 1.9740	 5.8476
 1.9730	 5.8744
 1.9720	 5.8234
 1.9710	 5.9063
 1.9700	 5.7947
 1.9690	 5.8140
 1.9680	 5.6871
 1.9670	 5.8232
 1.9660	 5.7027
 1.9650	 5.8681
 1.9640	 5.7581
 1.9630	 5.8521
 1.9620	 5.7779
 1.9610	 5.8672
 1.9600	 5.7305
 1.9590	 5.8580
 1.9580	 5.7910
 1.9570	 5.8652
 1.9560	 5.7021
 1.9550	 5.8443
 1.9540	 5.8361
 1.9530	 5.8548
 1.9520	 5.7890
 1.9510	 5.8393
 1.9500	 5.7693
 1.9490	 5.8268
 1.9480	 5.7811
 1.9470	 5.8395
 1.9460	 5.7690
 1.9450	 5.8505
 1.9440	 5.7656
 1.9430	 5.8322
 1.9420	 5.8187
 1.9410	 5.8828
 1.9400	 5.7258
 1.9390	 5.8604
 1.9380	 5.7650
 1.9370	 5.8820
 1.9360	 5.7532
 1.9350	 5.8561
 1.9340	 5.8051
 1.9330	 5.8716
 1.9320	 5.7506
 1.9310	 5.7800
 1.9300	 5.7577
 1.9290	 5.7983
 1.9280	 5.7859
 1.9270	 5.9586
 1.9260	 5.5855
 1.9250	 5.9016
 1.9240	 5.7166
 1.9230	 5.8606
 1.9220	 5.6977
 1.9210	 5.8664
 1.9200	 5.6957
 1.9190	 5.7940
 1.9180	 5.7692
 1.9170	 5.8664
 1.9160	 5.6439
 1.9150	 5.7964
 1.9140	 5.7641
 1.9130	 5.9331
 1.9120	 5.7388
 1.9110	 5.8162
 1.9100	 5.7793
 1.9090	 5.7741
 1.9080	 5.7124
 1.9070	 5.7982
 1.9060	 5.7377
 1.9050	 5.7747
 1.9040	 5.7639
 1.9030	 5.8000
 1.9020	 5.6702
 1.9010	 5.8299
 1.9000	 5.7510
 1.8990	 5.8305
 1.8980	 5.6969
 1.8970	 5.8249
 1.8960	 5.7361
 1.8950	 5.8502
 1.8940	 5.7309
 1.8930	 5.8166
 1.8920	 5.7396
 1.8910	 5.8138
 1.8900	 5.7526
 1.8890	 5.8208
 1.8880	 5.7614
 1.8870	 5.7522
 1.8860	 5.7442
 1.8850	 5.8027
 1.8840	 5.7125
 1.8830	 5.7618
 1.8820	 5.7277
 1.8810	 5.8251
 1.8800	 5.6690
 1.8790	 5.8302
 1.8780	 5.7158
 1.8770	 5.8208
 1.8760	 5.8165
 1.8750	 5.7359
 1.8740	 5.6643
 1.8730	 5.8280
 1.8720	 5.7024
 1.8710	 5.7916
 1.8700	 5.6862
 1.8690	 5.7600
 1.8680	 5.7388
 1.8670	 5.7500
 1.8660	 5.7239
 1.8650	 5.7903
 1.8640	 5.7383
 1.8630	 5.8224
 1.8620	 5.7161
 1.8610	 5.8203
 1.8600	 5.7242
 1.8590	 5.8064
 1.8580	 5.6832
 1.8570	 5.8272
 1.8560	 5.7525
 1.8550	 5.7712
 1.8540	 5.7699
 1.8530	 5.8528
 1.8520	 5.7728
 1.8510	 5.7863
 1.8500	 5.7577
 1.8490	 5.7686
 1.8480	 5.7160
 1.8470	 5.7347
 1.8460	 5.7270
 1.8450	 5.7746
 1.8440	 5.7649
 1.8430	 5.7494
 1.8420	 5.6635
 1.8410	 5.7741
 1.8400	 5.6938
 1.8390	 5.7323
 1.8380	 5.6973
 1.8370	 5.7072
 1.8360	 5.7049
 1.8350	 5.7394
 1.8340	 5.7047
 1.8330	 5.7801
 1.8320	 5.7778
 1.8310	 5.7732
 1.8300	 5.6786
 1.8290	 5.7403
 1.8280	 5.6805
 1.8270	 5.7379
 1.8260	 5.7025
 1.8250	 5.7065
 1.8240	 5.7182
 1.8230	 5.7550
 1.8220	 5.7270
 1.8210	 5.7024
 1.8200	 5.6487
 1.8190	 5.6998
 1.8180	 5.7499
 1.8170	 5.7645
 1.8160	 5.6758
 1.8150	 5.6950
 1.8140	 5.7194
 1.8130	 5.7330
 1.8120	 5.6835
 1.8110	 5.7329
 1.8100	 5.6930
 1.8090	 5.6971
 1.8080	 5.6835
 1.8070	 5.6978
 1.8060	 5.6819
 1.8050	 5.6833
 1.8040	 5.7092
 1.8030	 5.7658
 1.8020	 5.7216
 1.8010	 5.7294
 1.8000	 5.7207
 1.7990	 5.7080
 1.7980	 5.6823
 1.7970	 5.6629
 1.7960	 5.6880
 1.7950	 5.7160
 1.7940	 5.7133
 1.7930	 5.7088
 1.7920	 5.6634
 1.7910	 5.6839
 1.7900	 5.6974
 1.7890	 5.6732
 1.7880	 5.6866
 1.7870	 5.7069
 1.7860	 5.7243
 1.7850	 5.6754
 1.7840	 5.6031
 1.7830	 5.6912
 1.7820	 5.7027
 1.7810	 5.6149
 1.7800	 5.6153
 1.7790	 5.6297
 1.7780	 5.6732
 1.7770	 5.6584
 1.7760	 5.6563
 1.7750	 5.6855
 1.7740	 5.6908
 1.7730	 5.6307
 1.7720	 5.6485
 1.7710	 5.6885
 1.7700	 5.6950
 1.7690	 5.6664
 1.7680	 5.6765
 1.7670	 5.6255
 1.7660	 5.6742
 1.7650	 5.6879
 1.7640	 5.6637
 1.7630	 5.6386
 1.7620	 5.6958
 1.7610	 5.6877
 1.7600	 5.6509
 1.7590	 5.6263
 1.7580	 5.6733
 1.7570	 5.6335
 1.7560	 5.5918
 1.7550	 5.6000
 1.7540	 5.6271
 1.7530	 5.5728
 1.7520	 5.6820
 1.7510	 5.6186
 1.7500	 5.6139
 1.7490	 5.6693
 1.7480	 5.6947
 1.7470	 5.6571
 1.7460	 5.6627
 1.7450	 5.6398
 1.7440	 5.5928
 1.7430	 5.6235
 1.7420	 5.6611
 1.7410	 5.6113
 1.7400	 5.6501
 1.7390	 5.5857
 1.7380	 5.6175
 1.7370	 5.6197
 1.7360	 5.6230
 1.7350	 5.6132
 1.7340	 5.6479
 1.7330	 5.6076
 1.7320	 5.6244
 1.7310	 5.6166
 1.7300	 5.6812
 1.7290	 5.6427
 1.7280	 5.6230
 1.7270	 5.5857
 1.7260	 5.6646
 1.7250	 5.5835
 1.7240	 5.7055
 1.7230	 5.6188
 1.7220	 5.6493
 1.7210	 5.5873
 1.7200	 5.6600
 1.7190	 5.6091
 1.7180	 5.6797
 1.7170	 5.5780
 1.7160	 5.6454
 1.7150	 5.6178
 1.7140	 5.6642
 1.7130	 5.6501
 1.7120	 5.6272
 1.7110	 5.5397
 1.7100	 5.5931
 1.7090	 5.5873
 1.7080	 5.6946
 1.7070	 5.6142
 1.7060	 5.6726
 1.7050	 5.5635
 1.7040	 5.6810
 1.7030	 5.5366
 1.7020	 5.6436
 1.7010	 5.5918
 1.7000	 5.6193
 1.6990	 5.6107
 1.6980	 5.6633
 1.6970	 5.5772
 1.6960	 5.6018
 1.6950	 5.5083
 1.6940	 5.6403
 1.6930	 5.5471
 1.6920	 5.6387
 1.6910	 5.5762
 1.6900	 5.6052
 1.6890	 5.5174
 1.6880	 5.6325
 1.6870	 5.5322
 1.6860	 5.6357
 1.6850	 5.5891
 1.6840	 5.6795
 1.6830	 5.5307
 1.6820	 5.6120
 1.6810	 5.5066
 1.6800	 5.6272
 1.6790	 5.5133
 1.6780	 5.6530
 1.6770	 5.4919
 1.6760	 5.6348
 1.6750	 5.5723
 1.6740	 5.6173
 1.6730	 5.4773
 1.6720	 5.5599
 1.6710	 5.4381
 1.6700	 5.6501
 1.6690	 5.6647
 1.6680	 5.3950
 1.6670	 5.6190
 1.6660	 5.6521
 1.6650	 5.5203
 1.6640	 5.5822
 1.6630	 5.4600
 1.6620	 5.5639
 1.6610	 5.5332
 1.6600	 5.5486
 1.6590	 5.5559
 1.6580	 5.6105
 1.6570	 5.4263
 1.6560	 5.6270
 1.6550	 5.5003
 1.6540	 5.5474
 1.6530	 5.4855
 1.6520	 5.5720
 1.6510	 5.4727
 1.6500	 5.5530
 1.6490	 5.5134
 1.6480	 5.5887
 1.6470	 5.5208
 1.6460	 5.5862
 1.6450	 5.4508
 1.6440	 5.5552
 1.6430	 5.5140
 1.6420	 5.6455
 1.6410	 5.2998
 1.6400	 5.7479
 1.6390	 5.4296
 1.6380	 5.5028
 1.6370	 5.4718
 1.6360	 5.6216
 1.6350	 5.4460
 1.6340	 5.5593
 1.6330	 5.4362
 1.6320	 5.4748
 1.6310	 5.5000
 1.6300	 5.5780
 1.6290	 5.4720
 1.6280	 5.6008
 1.6270	 5.4861
 1.6260	 5.5679
 1.6250	 5.4093
 1.6240	 5.5156
 1.6230	 5.4544
 1.6220	 5.5169
 1.6210	 5.5207
 1.6200	 5.5524
 1.6190	 5.4429
 1.6180	 5.5350
 1.6170	 5.4895
 1.6160	 5.5286
 1.6150	 5.4631
 1.6140	 5.4898
 1.6130	 5.4668
 1.6120	 5.5424
 1.6110	 5.4600
 1.6100	 5.5212
 1.6090	 5.4648
 1.6080	 5.5137
 1.6070	 5.4607
 1.6060	 5.5768
 1.6050	 5.4413
 1.6040	 5.5272
 1.6030	 5.4179
 1.6020	 5.5552
 1.6010	 5.4352
 1.6000	 5.5018
 1.5990	 5.5159
 1.5980	 5.5001
 1.5970	 5.4157
 1.5960	 5.4872
 1.5950	 5.3645
 1.5940	 5.5022
 1.5930	 5.4889
 1.5920	 5.5042
 1.5910	 5.3998
 1.5900	 5.5084
 1.5890	 5.4562
 1.5880	 5.5365
 1.5870	 5.4747
 1.5860	 5.5180
 1.5850	 5.5121
 1.5840	 5.4859
 1.5830	 5.4756
 1.5820	 5.4868
 1.5810	 5.4109
 1.5800	 5.5002
 1.5790	 5.4308
 1.5780	 5.5024
 1.5770	 5.4730
 1.5760	 5.4950
 1.5750	 5.3921
 1.5740	 5.4565
 1.5730	 5.3967
 1.5720	 5.4585
 1.5710	 5.4132
 1.5700	 5.4547
 1.5690	 5.3919
 1.5680	 5.4773
 1.5670	 5.3874
 1.5660	 5.4314
 1.5650	 5.4021
 1.5640	 5.3908
 1.5630	 5.4081
 1.5620	 5.4680
 1.5610	 5.3909
 1.5600	 5.4366
 1.5590	 5.4620
 1.5580	 5.3865
 1.5570	 5.3628
 1.5560	 5.4991
 1.5550	 5.3752
 1.5540	 5.4231
 1.5530	 5.4014
 1.5520	 5.4535
 1.5510	 5.3704
 1.5500	 5.4310
 1.5490	 5.3634
 1.5480	 5.3984
 1.5470	 5.4139
 1.5460	 5.4708
 1.5450	 5.4016
 1.5440	 5.4230
 1.5430	 5.3918
 1.5420	 5.3579
 1.5410	 5.3851
 1.5400	 5.4198
 1.5390	 5.3781
 1.5380	 5.4601
 1.5370	 5.4105
 1.5360	 5.4591
 1.5350	 5.4000
 1.5340	 5.3761
 1.5330	 5.3915
 1.5320	 5.3964
 1.5310	 5.3930
 1.5300	 5.4297
 1.5290	 5.4024
 1.5280	 5.4294
 1.5270	 5.3604
 1.5260	 5.3866
 1.5250	 5.3515
 1.5240	 5.3296
 1.5230	 5.3863
 1.5220	 5.3985
 1.5210	 5.4109
 1.5200	 5.4805
 1.5190	 5.3504
 1.5180	 5.3512
 1.5170	 5.3789
 1.5160	 5.3901
 1.5150	 5.3819
 1.5140	 5.3724
 1.5130	 5.3338
 1.5120	 5.3548
 1.5110	 5.3906
 1.5100	 5.3581
 1.5090	 5.3815
 1.5080	 5.4062
 1.5070	 5.3435
 1.5060	 5.3395
 1.5050	 5.3580
 1.5040	 5.3680
 1.5030	 5.3733
 1.5020	 5.3871
 1.5010	 5.4571
 1.5000	 5.4092
 1.4990	 5.3201
 1.4980	 5.3488
 1.4970	 5.3619
 1.4960	 5.3577
 1.4950	 5.3359
 1.4940	 5.3426
 1.4930	 5.3735
 1.4920	 5.3599
 1.4910	 5.3045
 1.4900	 5.2904
 1.4890	 5.3512
 1.4880	 5.3501
 1.4870	 5.3392
 1.4860	 5.3204
 1.4850	 5.3365
 1.4840	 5.3061
 1.4830	 5.3461
 1.4820	 5.3206
 1.4810	 5.3225
 1.4800	 5.3345
 1.4790	 5.3772
 1.4780	 5.3269
 1.4770	 5.3436
 1.4760	 5.2907
 1.4750	 5.3079
 1.4740	 5.3022
 1.4730	 5.3766
 1.4720	 5.3741
 1.4710	 5.3815
 1.4700	 5.3261
 1.4690	 5.2999
 1.4680	 5.3107
 1.4670	 5.3027
 1.4660	 5.2522
 1.4650	 5.3316
 1.4640	 5.2662
 1.4630	 5.2860
 1.4620	 5.2639
 1.4610	 5.3029
 1.4600	 5.3095
 1.4590	 5.3484
 1.4580	 5.2874
 1.4570	 5.3154
 1.4560	 5.2990
 1.4550	 5.2937
 1.4540	 5.2607
 1.4530	 5.3189
 1.4520	 5.2587
 1.4510	 5.3258
 1.4500	 5.2757
 1.4490	 5.2550
 1.4480	 5.2130
 1.4470	 5.3489
 1.4460	 5.2683
 1.4450	 5.3391
 1.4440	 5.2832
 1.4430	 5.2791
 1.4420	 5.2936
 1.4410	 5.2771
 1.4400	 5.2230
 1.4390	 5.2926
 1.4380	 5.2440
 1.4370	 5.2814
 1.4360	 5.1886
 1.4350	 5.2556
 1.4340	 5.2623
 1.4330	 5.3420
 1.4320	 5.3300
 1.4310	 5.3110
 1.4300	 5.2302
 1.4290	 5.2872
 1.4280	 5.1689
 1.4270	 5.2715
 1.4260	 5.1828
 1.4250	 5.2859
 1.4240	 5.2880
 1.4230	 5.3450
 1.4220	 5.2290
 1.4210	 5.3086
 1.4200	 5.2198
 1.4190	 5.3168
 1.4180	 5.1966
 1.4170	 5.3012
 1.4160	 5.2459
 1.4150	 5.3098
 1.4140	 5.1878
 1.4130	 5.2770
 1.4120	 5.1598
 1.4110	 5.2948
 1.4100	 5.2854
 1.4090	 5.2263
 1.4080	 5.1819
 1.4070	 5.2678
 1.4060	 5.1455
 1.4050	 5.2748
 1.4040	 5.1955
 1.4030	 5.3181
 1.4020	 5.1989
 1.4010	 5.2559
 1.4000	 5.1768
 1.3990	 5.2263
 1.3980	 5.2421
 1.3970	 5.2845
 1.3960	 5.2638
 1.3950	 5.2285
 1.3940	 5.1144
 1.3930	 5.2821
 1.3920	 5.1746
 1.3910	 5.3181
 1.3900	 5.1925
 1.3890	 5.2500
 1.3880	 5.2114
 1.3870	 5.3006
 1.3860	 5.1893
 1.3850	 5.2364
 1.3840	 5.1742
 1.3830	 5.2471
 1.3820	 5.2043
 1.3810	 5.2781
 1.3800	 5.1991
 1.3790	 5.2379
 1.3780	 5.2756
 1.3770	 5.3182
 1.3760	 5.1634
 1.3750	 5.2565
 1.3740	 5.2437
 1.3730	 5.2794
 1.3720	 5.1913
 1.3710	 5.2918
 1.3700	 5.0448
 1.3690	 5.2754
 1.3680	 5.1848
 1.3670	 5.2626
 1.3660	 5.1726
 1.3650	 5.3511
 1.3640	 5.1134
 1.3630	 5.2937
 1.3620	 5.0863
 1.3610	 5.1898
 1.3600	 5.1528
 1.3590	 5.2282
 1.3580	 5.1753
 1.3570	 5.2752
 1.3560	 5.1925
 1.3550	 4.9829
 1.3540	 5.2529
 1.3530	 5.1723
 1.3520	 5.0864
 1.3510	 5.3217
 1.3500	 5.0528
 1.3490	 5.2717
 1.3480	 5.1182
 1.3470	 5.1800
 1.3460	 5.0903
 1.3450	 5.3123
 1.3440	 5.1306
 1.3430	 5.2481
 1.3420	 5.0801
 1.3410	 5.1425
 1.3400	 5.1305
 1.3390	 5.1425
 1.3380	 5.1448
 1.3370	 5.1101
 1.3360	 5.1498
 1.3350	 5.2771
 1.3340	 5.1351
 1.3330	 5.1841
 1.3320	 5.1089
 1.3310	 5.1158
 1.3300	 5.0373
 1.3290	 5.2211
 1.3280	 5.1356
 1.3270	 5.1523
 1.3260	 5.1061
 1.3250	 5.1658
 1.3240	 5.0479
 1.3230	 5.1137
 1.3220	 5.0589
 1.3210	 5.2349
 1.3200	 5.0641
 1.3190	 5.1440
 1.3180	 5.0320
 1.3170	 5.1962
 1.3160	 5.0636
 1.3150	 5.1617
 1.3140	 5.1022
 1.3130	 5.1590
 1.3120	 5.0505
 1.3110	 5.2333
 1.3100	 5.0706
 1.3090	 5.1274
 1.3080	 5.0636
 1.3070	 5.1201
 1.3060	 5.0359
 1.3050	 5.1551
 1.3040	 5.1010
 1.3030	 5.2076
 1.3020	 5.1076
 1.3010	 5.1093
 1.3000	 5.0589
 1.2990	 5.1165
 1.2980	 5.0259
 1.2970	 5.1601
 1.2960	 5.0630
 1.2950	 5.2067
 1.2940	 5.1052
 1.2930	 5.1557
 1.2920	 5.1471
 1.2910	 5.1153
 1.2900	 5.0441
 1.2890	 5.1228
 1.2880	 5.0696
 1.2870	 5.1416
 1.2860	 5.0135
 1.2850	 5.1659
 1.2840	 5.0757
 1.2830	 5.1194
 1.2820	 5.0653
 1.2810	 5.1118
 1.2800	 5.0674
 1.2790	 5.1384
 1.2780	 5.1030
 1.2770	 5.1282
 1.2760	 5.0388
 1.2750	 5.0525
 1.2740	 5.0364
 1.2730	 5.1156
 1.2720	 5.0457
 1.2710	 5.1330
 1.2700	 5.0235
 1.2690	 5.0354
 1.2680	 4.9886
 1.2670	 5.0049
 1.2660	 5.0488
 1.2650	 5.0968
 1.2640	 5.0013
 1.2630	 5.0481
 1.2620	 5.0460
 1.2610	 5.0724
 1.2600	 5.0358
 1.2590	 5.0578
 1.2580	 5.0316
 1.2570	 5.0677
 1.2560	 5.0510
 1.2550	 5.0866
 1.2540	 5.0439
 1.2530	 5.0842
 1.2520	 5.0953
 1.2510	 5.0527
 1.2500	 5.0418
 1.2490	 5.0554
 1.2480	 5.0409
 1.2470	 5.0632
 1.2460	 5.0499
 1.2450	 5.0845
 1.2440	 5.0310
 1.2430	 5.0523
 1.2420	 5.0063
 1.2410	 5.0175
 1.2400	 4.9966
 1.2390	 5.0425
 1.2380	 4.9894
 1.2370	 4.9576
 1.2360	 4.9722
 1.2350	 4.9939
 1.2340	 4.9536
 1.2330	 4.9547
 1.2320	 4.9761
 1.2310	 4.9923
 1.2300	 4.9980
 1.2290	 5.0163
 1.2280	 5.0429
 1.2270	 5.0494
 1.2260	 4.9806
 1.2250	 4.9723
 1.2240	 5.0046
 1.2230	 5.0270
 1.2220	 4.9610
 1.2210	 4.9573
 1.2200	 4.9893
 1.2190	 4.9857
 1.2180	 4.9886
 1.2170	 4.9975
 1.2160	 4.9980
 1.2150	 5.0026
 1.2140	 5.0072
 1.2130	 4.9613
 1.2120	 4.9690
 1.2110	 5.0403
 1.2100	 5.0142
 1.2090	 4.9843
 1.2080	 4.9920
 1.2070	 4.9498
 1.2060	 4.9290
 1.2050	 4.9657
 1.2040	 5.0318
 1.2030	 4.9680
 1.2020	 4.9481
 1.2010	 4.9509
 1.2000	 4.9829
 1.1990	 4.9176
 1.1980	 4.9188
 1.1970	 4.9477
 1.1960	 4.9503
 1.1950	 4.9738
 1.1940	 4.9670
 1.1930	 4.9724
 1.1920	 4.9722
 1.1910	 4.9437
 1.1900	 5.0031
 1.1890	 5.0567
 1.1880	 4.8435
 1.1870	 4.8424
 1.1860	 4.9625
 1.1850	 4.9279
 1.1840	 4.9595
 1.1830	 4.9485
 1.1820	 4.9218
 1.1810	 4.9459
 1.1800	 4.9872
 1.1790	 4.8803
 1.1780	 5.0121
 1.1770	 4.9826
 1.1760	 5.0388
 1.1750	 4.9905
 1.1740	 4.9758
 1.1730	 4.8976
 1.1720	 4.9220
 1.1710	 4.9577
 1.1700	 4.9269
 1.1690	 4.8830
 1.1680	 4.9779
 1.1670	 4.9491
 1.1660	 4.9141
 1.1650	 4.9548
 1.1640	 4.9406
 1.1630	 4.8393
 1.1620	 4.9488
 1.1610	 4.9636
 1.1600	 4.9812
 1.1590	 4.9060
 1.1580	 4.9483
 1.1570	 4.9080
 1.1560	 4.9238
 1.1550	 4.8837
 1.1540	 4.9646
 1.1530	 4.8960
 1.1520	 4.9553
 1.1510	 4.8573
 1.1500	 4.9341
 1.1490	 4.8541
 1.1480	 4.9376
 1.1470	 4.8895
 1.1460	 4.8886
 1.1450	 4.8530
 1.1440	 4.8955
 1.1430	 4.9178
 1.1420	 4.8834
 1.1410	 4.8740
 1.1400	 4.9324
 1.1390	 4.9196
 1.1380	 4.9501
 1.1370	 4.9385
 1.1360	 4.9433
 1.1350	 4.8126
 1.1340	 4.8599
 1.1330	 4.8799
 1.1320	 4.9341
 1.1310	 4.8893
 1.1300	 4.9160
 1.1290	 4.8756
 1.1280	 4.9102
 1.1270	 4.7983
 1.1260	 4.8761
 1.1250	 4.8359
 1.1240	 4.9375
 1.1230	 4.8334
 1.1220	 4.8754
 1.1210	 4.8100
 1.1200	 4.9273
 1.1190	 4.8912
 1.1180	 4.9324
 1.1170	 4.8070
 1.1160	 4.8739
 1.1150	 4.8064
 1.1140	 4.8819
 1.1130	 4.7911
 1.1120	 4.8573
 1.1110	 4.8210
 1.1100	 4.9090
 1.1090	 4.7872
 1.1080	 4.8929
 1.1070	 4.8579
 1.1060	 4.8662
 1.1050	 4.8020
 1.1040	 4.8857
 1.1030	 4.8527
 1.1020	 4.8154
 1.1010	 4.8262
 1.1000	 4.8772
 1.0990	 4.7986
 1.0980	 4.9010
 1.0970	 4.7968
 1.0960	 4.8493
 1.0950	 4.7503
 1.0940	 4.9202
 1.0930	 4.6950
 1.0920	 4.8493
 1.0910	 4.7975
 1.0900	 4.8460
 1.0890	 4.6945
 1.0880	 4.8831
 1.0870	 4.7443
 1.0860	 4.8828
 1.0850	 4.8022
 1.0840	 4.8647
 1.0830	 4.7155
 1.0820	 4.8615
 1.0810	 4.7554
 1.0800	 4.8408
 1.0790	 4.7512
 1.0780	 4.8093
 1.0770	 4.7195
 1.0760	 4.9381
 1.0750	 4.7168
 1.0740	 4.8921
 1.0730	 4.6660
 1.0720	 4.8696
 1.0710	 4.8876
 1.0700	 4.7331
 1.0690	 4.8217
 1.0680	 4.7944
 1.0670	 4.7465
 1.0660	 4.7763
 1.0650	 4.7203
 1.0640	 4.8217
 1.0630	 4.7549
 1.0620	 4.7900
 1.0610	 4.6854
 1.0600	 4.7581
 1.0590	 4.7153
 1.0580	 4.8213
 1.0570	 4.7447
 1.0560	 4.8196
 1.0550	 4.7695
 1.0540	 4.8143
 1.0530	 4.6414
 1.0520	 4.9198
 1.0510	 4.7309
 1.0500	 4.7802
 1.0490	 4.6706
 1.0480	 4.8182
 1.0470	 4.7219
 1.0460	 4.7510
 1.0450	 4.6320
 1.0440	 4.7911
 1.0430	 4.7076
 1.0420	 4.7764
 1.0410	 4.7075
 1.0400	 4.8288
 1.0390	 4.7748
 1.0380	 4.8113
 1.0370	 4.6850
 1.0360	 4.8148
 1.0350	 4.7588
 1.0340	 4.8374
 1.0330	 4.6841
 1.0320	 4.8432
 1.0310	 4.7453
 1.0300	 4.6658
 1.0290	 4.7467
 1.0280	 4.7589
 1.0270	 4.5888
 1.0260	 4.7241
 1.0250	 4.7097
 1.0240	 4.7915
 1.0230	 4.6927
 1.0220	 4.7693
 1.0210	 4.6852
 1.0200	 4.8142
 1.0190	 4.7082
 1.0180	 4.7211
 1.0170	 4.6189
 1.0160	 4.7529
 1.0150	 4.7265
 1.0140	 4.7638
 1.0130	 4.7132
 1.0120	 4.7642
 1.0110	 4.6934
 1.0100	 4.7462
 1.0090	 4.6754
 1.0080	 4.8012
 1.0070	 4.6698
 1.0060	 4.7194
 1.0050	 4.6179
 1.0040	 4.7314
 1.0030	 4.7037
 1.0020	 4.7441
 1.0010	 4.6888
 1.0000	 4.6843
 0.9990	 4.6800
 0.9980	 4.7019
 0.9970	 4.6380
 0.9960	 4.7959
 0.9950	 4.6935
 0.9940	 4.7464
 0.9930	 4.6150
 0.9920	 4.7313
 0.9910	 4.7246
 0.9900	 4.7039
 0.9890	 4.6330
 0.9880	 4.6655
 0.9870	 4.5932
 0.9860	 4.6886
 0.9850	 4.6206
 0.9840	 4.6621
 0.9830	 4.5429
 0.9820	 4.6458
 0.9810	 4.6522
 0.9800	 4.6815
 0.9790	 4.6741
 0.9780	 4.6561
 0.9770	 4.6274
 0.9760	 4.6916
 0.9750	 4.6495
 0.9740	 4.7264
 0.9730	 4.6770
 0.9720	 4.7041
 0.9710	 4.6514
 0.9700	 4.7153
 0.9690	 4.6571
 0.9680	 4.6961
 0.9670	 4.6751
 0.9660	 4.6655
 0.9650	 4.6269
 0.9640	 4.6427
 0.9630	 4.6054
 0.9620	 4.6137
 0.9610	 4.6154
 0.9600	 4.6683
 0.9590	 4.6136
 0.9580	 4.6187
 0.9570	 4.6258
 0.9560	 4.6770
 0.9550	 4.6201
 0.9540	 4.6363
 0.9530	 4.6604
 0.9520	 4.6484
 0.9510	 4.6158
 0.9500	 4.6012
 0.9490	 4.5605
 0.9480	 4.6399
 0.9470	 4.6380
 0.9460	 4.6532
 0.9450	 4.6393
 0.9440	 4.5768
 0.9430	 4.5699
 0.9420	 4.6642
 0.9410	 4.6934
 0.9400	 4.6307
 0.9390	 4.6207
 0.9380	 4.6427
 0.9370	 4.6383
 0.9360	 4.6172
 0.9350	 4.5958
 0.9340	 4.6206
 0.9330	 4.5943
 0.9320	 4.5773
 0.9310	 4.5734
 0.9300	 4.5786
 0.9290	 4.6332
 0.9280	 4.6334
 0.9270	 4.5840
 0.9260	 4.5765
 0.9250	 4.5855
 0.9240	 4.5800
 0.9230	 4.6111
 0.9220	 4.6104
 0.9210	 4.5904
 0.9200	 4.5877
 0.9190	 4.5912
 0.9180	 4.5573
 0.9170	 4.5604
 0.9160	 4.5333
 0.9150	 4.6320
 0.9140	 4.6102
 0.9130	 4.5900
 0.9120	 4.5338
 0.9110	 4.5535
 0.9100	 4.5991
 0.9090	 4.6216
 0.9080	 4.5754
 0.9070	 4.6098
 0.9060	 4.5870
 0.9050	 4.6138
 0.9040	 4.5618
 0.9030	 4.5851
 0.9020	 4.5848
 0.9010	 4.5760
 0.9000	 4.5269
 0.8990	 4.5641
 0.8980	 4.5045
 0.8970	 4.5436
 0.8960	 4.5888
 0.8950	 4.5938
 0.8940	 4.5762
 0.8930	 4.6513
 0.8920	 4.5814
 0.8910	 4.6134
 0.8900	 4.5080
 0.8890	 4.5175
 0.8880	 4.5677
 0.8870	 4.5978
 0.8860	 4.5550
 0.8850	 4.5996
 0.8840	 4.4919
 0.8830	 4.5080
 0.8820	 4.4747
 0.8810	 4.5114
 0.8800	 4.5133
 0.8790	 4.5836
 0.8780	 4.5337
 0.8770	 4.6038
 0.8760	 4.5458
 0.8750	 4.5826
 0.8740	 4.4828
 0.8730	 4.5377
 0.8720	 4.5582
 0.8710	 4.6042
 0.8700	 4.5014
 0.8690	 4.5527
 0.8680	 4.5237
 0.8670	 4.5370
 0.8660	 4.4942
 0.8650	 4.6250
 0.8640	 4.5228
 0.8630	 4.6025
 0.8620	 4.5411
 0.8610	 4.5556
 0.8600	 4.7505
 0.8590	 4.8106
 0.8580	 4.8158
 0.8570	 4.8133
 0.8560	 4.8066
 0.8550	 4.8001
 0.8540	 4.7999
 0.8530	 4.8099
 0.8520	 4.7931
 0.8510	 4.7854
 0.8500	 4.8031
 0.8490	 4.7960
 0.8480	 4.7914
 0.8470	 4.7868
 0.8460	 4.7851
 0.8450	 4.7910
 0.8440	 4.7849
 0.8430	 4.7860
 0.8420	 4.7803
 0.8410	 4.7715
 0.8400	 4.7756
 0.8390	 4.7829
 0.8380	 4.7794
 0.8370	 4.7676
 0.8360	 4.7661
 0.8350	 4.7668
 0.8340	 4.7670
 0.8330	 4.7591
 0.8320	 4.7586
 0.8310	 4.7580
 0.8300	 4.7603
 0.8290	 4.7628
 0.8280	 4.7577
 0.8270	 4.7521
 0.8260	 4.7578
 0.8250	 4.7472
 0.8240	 4.7533
 0.8230	 4.7429
 0.8220	 4.7475
 0.8210	 4.7413
 0.8200	 4.7405
 0.8190	 4.7379
 0.8180	 4.7337
 0.8170	 4.7403
 0.8160	 4.7352
 0.8150	 4.7319
 0.8140	 4.7377
 0.8130	 4.7308
 0.8120	 4.7299
 0.8110	 4.7259
 0.8100	 4.7208
 0.8090	 4.7197
 0.8080	 4.7223
 0.8070	 4.7201
 0.8060	 4.7210
 0.8050	 4.7187
 0.8040	 4.7184
 0.8030	 4.7120
 0.8020	 4.7078
 0.8010	 4.7124
 0.8000	 4.7104
 0.7990	 4.7107
 0.7980	 4.7025
 0.7970	 4.7052
 0.7960	 4.6989
 0.7950	 4.7030
 0.7940	 4.6962
 0.7930	 4.7031
 0.7920	 4.6958
 0.7910	 4.6951
 0.7900	 4.6908
 0.7890	 4.6848
 0.7880	 4.6852
 0.7870	 4.6877
 0.7860	 4.6865
 0.7850	 4.6822
 0.7840	 4.6783
 0.7830	 4.6772
 0.7820	 4.6807
 0.7810	 4.6720
 0.7800	 4.6782
 0.7790	 4.6776
 0.7780	 4.6715
 0.7770	 4.6675
 0.7760	 4.6652
 0.7750	 4.6653
 0.7740	 4.6585
 0.7730	 4.6631
 0.7720	 4.6630
 0.7710	 4.6577
 0.7700	 4.6543
 0.7690	 4.6558
 0.7680	 4.6553
 0.7670	 4.6520
 0.7660	 4.6525
 0.7650	 4.6519
 0.7640	 4.6482
 0.7630	 4.6449
 0.7620	 4.6449
 0.7610	 4.6504
 0.7600	 4.6473
 0.7590	 4.6416
 0.7580	 4.6420
 0.7570	 4.6382
 0.7560	 4.6372
 0.7550	 4.6409
 0.7540	 4.6352
 0.7530	 4.6349
 0.7520	 4.6306
 0.7510	 4.6256
 0.7500	 4.6261
 0.7490	 4.6223
 0.7480	 4.6212
 0.7470	 4.6194
 0.7460	 4.6186
 0.7450	 4.6172
 0.7440	 4.6140
 0.7430	 4.6096
 0.7420	 4.6160
 0.7410	 4.6095
 0.7400	 4.6074
 0.7390	 4.6070
 0.7380	 4.6093
 0.7370	 4.6062
 0.7360	 4.6069
 0.7350	 4.5989
 0.7340	 4.6081
 0.7330	 4.6052
 0.7320	 4.5987
 0.7310	 4.5995
 0.7300	 4.5959
 0.7290	 4.5980
 0.7280	 4.5954
 0.7270	 4.5954
 0.7260	 4.5942
 0.7250	 4.5934
 0.7240	 4.5909
 0.7230	 4.5917
 0.7220	 4.5898
 0.7210	 4.5897
 0.7200	 4.5869
 0.7190	 4.5848
 0.7180	 4.5854
 0.7170	 4.5836
 0.7160	 4.5855
 0.7150	 4.5862
 0.7140	 4.5814
 0.7130	 4.5797
 0.7120	 4.5813
 0.7110	 4.5803
 0.7100	 4.5780
 0.7090	 4.5770
 0.7080	 4.5747
 0.7070	 4.5752
 0.7060	 4.5769
 0.7050	 4.5729
 0.7040	 4.5705
 0.7030	 4.5740
 0.7020	 4.5724
 0.7010	 4.5728
 0.7000	 4.5703
 0.6990	 4.5732
 0.6980	 4.5690
 0.6970	 4.5640
 0.6960	 4.5655
 0.6950	 4.5679
 0.6940	 4.5689
 0.6930	 4.5690
 0.6920	 4.5652
 0.6910	 4.5651
 0.6900	 4.5629
 0.6890	 4.5623
 0.6880	 4.5630
 0.6870	 4.5645
 0.6860	 4.5618
 0.6850	 4.5597
 0.6840	 4.5607
 0.6830	 4.5593
 0.6820	 4.5588
 0.6810	 4.5589
 0.6800	 4.5578
 0.6790	 4.5586
 0.6780	 4.5597
 0.6770	 4.5589
 0.6760	 4.5606
 0.6750	 4.5592
 0.6740	 4.5561
 0.6730	 4.5558
 0.6720	 4.5563
 0.6710	 4.5541
 0.6700	 4.5543
 0.6690	 4.5564
 0.6680	 4.5551
 0.6670	 4.5548
 0.6660	 4.5540
 0.6650	 4.5541
 0.6640	 4.5520
 0.6630	 4.5536
 0.6620	 4.5535
 0.6610	 4.5520
 0.6600	 4.5515
 0.6590	 4.5526
 0.6580	 4.5538
 0.6570	 4.5528
 0.6560	 4.5516
 0.6550	 4.5498
 0.6540	 4.5498
 0.6530	 4.5519
 0.6520	 4.5518
 0.6510	 4.5508
 0.6500	 4.5507
 0.6490	 4.5507
 0.6480	 4.5501
 0.6470	 4.5510
 0.6460	 4.5515
 0.6450	 4.5491
 0.6440	 4.5481
 0.6430	 4.5483
 0.6420	 4.5476
 0.6410	 4.5475
 0.6400	 4.5495
 0.6390	 4.5509
 0.6380	 4.5506
 0.6370	 4.5480
 0.6360	 4.5478
 0.6350	 4.5502
 0.6340	 4.5504
 0.6330	 4.5500
 0.6320	 4.5484
 0.6310	 4.5493
 0.6300	 4.5509
 0.6290	 4.5505
 0.6280	 4.5504
 0.6270	 4.5512
 0.6260	 4.5504
 0.6250	 4.5500
 0.6240	 4.5506
 0.6230	 4.5512
 0.6220	 4.5518
 0.6210	 4.5526
 0.6200	 4.5525
 0.6190	 4.5530
 0.6180	 4.5536
 0.6170	 4.5534
 0.6160	 4.5539
 0.6150	 4.5559
 0.6140	 4.5556
 0.6130	 4.5548
 0.6120	 4.5561
 0.6110	 4.5561
 0.6100	 4.5565
 0.6090	 4.5559
 0.6080	 4.5568
 0.6070	 4.5572
 0.6060	 4.5579
 0.6050	 4.5591
 0.6040	 4.5595
 0.6030	 4.5601
 0.6020	 4.5611
 0.6010	 4.5608
 0.6000	 4.5617
 0.5990	 4.5634
 0.5980	 4.5646
 0.5970	 4.5665
 0.5960	 4.5679
 0.5950	 4.5683
 0.5940	 4.5685
 0.5930	 4.5696
 0.5920	 4.5698
 0.5910	 4.5715
 0.5900	 4.5736
 0.5890	 4.5741
 0.5880	 4.5748
 0.5870	 4.5743
 0.5860	 4.5737
 0.5850	 4.5750
 0.5840	 4.5770
 0.5830	 4.5778
 0.5820	 4.5789
 0.5810	 4.5787
 0.5800	 4.5789
 0.5790	 4.5808
 0.5780	 4.5816
 0.5770	 4.5839
 0.5760	 4.5845
 0.5750	 4.5846
 0.5740	 4.5852
 0.5730	 4.5854
 0.5720	 4.5864
 0.5710	 4.5879
 0.5700	 4.5895
 0.5690	 4.5913
 0.5680	 4.5927
 0.5670	 4.5936
 0.5660	 4.5940
 0.5650	 4.5917
 0.5640	 4.5951
 0.5630	 4.5979
 0.5620	 4.5982
 0.5610	 4.6002
 0.5600	 4.6036
 0.5590	 4.6046
 0.5580	 4.6063
 0.5570	 4.6081
 0.5560	 4.6091
 0.5550	 4.6111
 0.5540	 4.6126
 0.5530	 4.6136
 0.5520	 4.6131
 0.5510	 4.6147
 0.5500	 4.6179
 0.5490	 4.6194
 0.5480	 4.6201
 0.5470	 4.6202
 0.5460	 4.6232
 0.5450	 4.6264
 0.5440	 4.6276
 0.5430	 4.6277
 0.5420	 4.6310
 0.5410	 4.6317
 0.5400	 4.6331
 0.5390	 4.6337
 0.5380	 4.6384
 0.5370	 4.6394
 0.5360	 4.6396
 0.5350	 4.6425
 0.5340	 4.6443
 0.5330	 4.6491
 0.5320	 4.6464
 0.5310	 4.6434
 0.5300	 4.6512
 0.5290	 4.6535
 0.5280	 4.6555
 0.5270	 4.6564
 0.5260	 4.6574
 0.5250	 4.6611
 0.5240	 4.6635
 0.5230	 4.6644
 0.5220	 4.6684
 0.5210	 4.6699
 0.5200	 4.6723
 0.5190	 4.6755
 0.5180	 4.6775
 0.5170	 4.6794
 0.5160	 4.6825
 0.5150	 4.6842
 0.5140	 4.6866
 0.5130	 4.6898
 0.5120	 4.6933
 0.5110	 4.6974
 0.5100	 4.7008
 0.5090	 4.7016
 0.5080	 4.7066
 0.5070	 4.7107
 0.5060	 4.7136
 0.5050	 4.7154
 0.5040	 4.7192
 0.5030	 4.7215
 0.5020	 4.7281
 0.5010	 4.7308
 0.5000	 4.7311
 0.4990	 4.7380
 0.4980	 4.7426
 0.4970	 4.7466
 0.4960	 4.7460
 0.4950	 4.7486
 0.4940	 4.7567
 0.4930	 4.7626
 0.4920	 4.7656
 0.4910	 4.7711
 0.4900	 4.7730
 0.4890	 4.7780
 0.4880	 4.7811
 0.4870	 4.7905
 0.4860	 4.7932
 0.4850	 4.7985
 0.4840	 4.8047
 0.4830	 4.8032
 0.4820	 4.8106
 0.4810	 4.8114
 0.4800	 4.8111
 0.4790	 4.8138
 0.4780	 4.8167
 0.4770	 4.8228
 0.4760	 4.8239
 0.4750	 4.8271
 0.4740	 4.8318
 0.4730	 4.8399
 0.4720	 4.8411
 0.4710	 4.8461
 0.4700	 4.8524
 0.4690	 4.8538
 0.4680	 4.8591
 0.4670	 4.8642
 0.4660	 4.8714
 0.4650	 4.8744
 0.4640	 4.8798
 0.4630	 4.8855
 0.4620	 4.8912
 0.4610	 4.8963
 0.4600	 4.8997
 0.4590	 4.9088
 0.4580	 4.9110
 0.4570	 4.9186
 0.4560	 4.9231
 0.4550	 4.9327
 0.4540	 4.9363
 0.4530	 4.9430
 0.4520	 4.9489
 0.4510	 4.9547
 0.4500	 4.9630
 0.4490	 4.9674
 0.4480	 4.9686
 0.4470	 4.9809
 0.4460	 4.9849
 0.4450	 4.9945
 0.4440	 5.0034
 0.4430	 5.0082
 0.4420	 5.0144
 0.4410	 5.0215
 0.4400	 5.0293
 0.4390	 5.0362
 0.4380	 5.0412
 0.4370	 5.0491
 0.4360	 5.0530
 0.4350	 5.0611
 0.4340	 5.0706
 0.4330	 5.0779
 0.4320	 5.0861
 0.4310	 5.0930
 0.4300	 5.1023
 0.4290	 5.1109
 0.4280	 5.1179
 0.4270	 5.1271
 0.4260	 5.1337
 0.4250	 5.1417
 0.4240	 5.1536
 0.4230	 5.1634
 0.4220	 5.1724
 0.4210	 5.1796
 0.4200	 5.1889
 0.4190	 5.1980
 0.4180	 5.2094
 0.4170	 5.2195
 0.4160	 5.2251
 0.4150	 5.2377
 0.4140	 5.2510
 0.4130	 5.2613
 0.4120	 5.2700
 0.4110	 5.2844
 0.4100	 5.2926
 0.4090	 5.3050
 0.4080	 5.3136
 0.4070	 5.3245
 0.4060	 5.3355
 0.4050	 5.3483
 0.4040	 5.3629
 0.4030	 5.3756
 0.4020	 5.3852
 0.4010	 5.4024
 0.4000	 5.4155
