Name: Halite NaCl
Type: Mineral
Class: Halide
Subclass: None
Particle Size: Medium
Sample No.: H-3A
Owner: JPL
Wavelength Range: VSWIR
Origin: USA, Michigan, Wayne County, Detroit
Collection Date: N/A
Description: Particle size was 45-125um.Collected by Ward's Original ASTER Spectral Library name was jpl.beckman.mineral.halide.none.medium.h03a.spectrum.txt
Measurement: Hemispherical reflectance
First Column: X
Second Column: Y
X Units: Wavelength (micrometers)
Y Units:Reflectance (percent)
First X Value:  0.4000
Last X Value:  2.5000
Number of X Values: 826
Additional Information: mineral.halide.none.medium.vswir.h-3a.jpl.beckman.ancillary.txt

 0.4000	85.7000
 0.4010	85.7700
 0.4020	85.7200
 0.4030	85.8400
 0.4040	85.9000
 0.4050	85.8300
 0.4060	85.9100
 0.4070	85.9100
 0.4080	85.9600
 0.4090	85.9700
 0.4100	86.0400
 0.4110	86.0300
 0.4120	85.8500
 0.4130	86.0200
 0.4140	86.0400
 0.4150	86.2000
 0.4160	86.2000
 0.4170	86.0800
 0.4180	86.2100
 0.4190	86.2900
 0.4200	86.3400
 0.4210	86.3300
 0.4220	86.2600
 0.4230	86.3300
 0.4240	86.4700
 0.4250	86.5300
 0.4260	86.5300
 0.4270	86.5800
 0.4280	86.5200
 0.4290	86.7000
 0.4300	86.5900
 0.4310	86.7100
 0.4320	86.7200
 0.4330	86.8300
 0.4340	86.7100
 0.4350	86.7500
 0.4360	86.8800
 0.4370	86.9300
 0.4380	87.0500
 0.4390	87.1100
 0.4400	87.0500
 0.4410	87.1200
 0.4420	87.1300
 0.4430	87.2400
 0.4440	87.1900
 0.4450	87.0800
 0.4460	87.2000
 0.4470	87.2400
 0.4480	87.3000
 0.4490	87.3600
 0.4500	87.3000
 0.4510	87.3600
 0.4520	87.3600
 0.4530	87.4400
 0.4540	87.3900
 0.4550	87.4200
 0.4560	87.3300
 0.4570	87.4100
 0.4580	87.5500
 0.4590	87.6200
 0.4600	87.5700
 0.4610	87.5700
 0.4620	87.7400
 0.4630	87.6200
 0.4640	87.6900
 0.4650	87.8100
 0.4660	87.8100
 0.4670	87.9300
 0.4680	87.8900
 0.4690	87.8900
 0.4700	87.9600
 0.4710	88.0200
 0.4720	88.0700
 0.4730	88.0300
 0.4740	88.0900
 0.4750	88.2600
 0.4760	88.0900
 0.4770	88.2100
 0.4780	88.1500
 0.4790	88.1600
 0.4800	88.2900
 0.4810	88.1600
 0.4820	88.2100
 0.4830	88.2300
 0.4840	88.2400
 0.4850	88.4100
 0.4860	88.2900
 0.4870	88.3000
 0.4880	88.3100
 0.4890	88.1900
 0.4900	88.4900
 0.4910	88.3700
 0.4920	88.4400
 0.4930	88.4600
 0.4940	88.4700
 0.4950	88.4800
 0.4960	88.5500
 0.4970	88.4900
 0.4980	88.5700
 0.4990	88.5200
 0.5000	88.5800
 0.5010	88.4700
 0.5020	88.6000
 0.5030	88.7300
 0.5040	88.6400
 0.5050	88.7100
 0.5060	88.6500
 0.5070	88.6500
 0.5080	88.8800
 0.5090	88.7600
 0.5100	88.9900
 0.5110	88.8700
 0.5120	88.8100
 0.5130	88.8700
 0.5140	88.9100
 0.5150	89.0200
 0.5160	89.0300
 0.5170	88.9300
 0.5180	89.0500
 0.5190	88.9200
 0.5200	89.0400
 0.5210	89.1600
 0.5220	88.9900
 0.5230	89.1600
 0.5240	89.2100
 0.5250	89.1700
 0.5260	89.3400
 0.5270	89.2200
 0.5280	89.3400
 0.5290	89.3400
 0.5300	89.2200
 0.5310	89.3300
 0.5320	89.3200
 0.5330	89.4200
 0.5340	89.2700
 0.5350	89.2400
 0.5360	89.4100
 0.5370	89.2900
 0.5380	89.4700
 0.5390	89.5200
 0.5400	89.5300
 0.5410	89.5300
 0.5420	89.4200
 0.5430	89.4300
 0.5440	89.5500
 0.5450	89.5600
 0.5460	89.7400
 0.5470	89.5800
 0.5480	89.5900
 0.5490	89.7700
 0.5500	89.6000
 0.5510	89.7800
 0.5520	89.7200
 0.5530	89.7800
 0.5540	89.8900
 0.5550	89.7100
 0.5560	89.8900
 0.5570	89.8900
 0.5580	89.8600
 0.5590	90.0700
 0.5600	90.0000
 0.5610	90.4300
 0.5620	90.4300
 0.5630	90.4400
 0.5640	90.5100
 0.5650	90.5000
 0.5660	90.4400
 0.5670	90.3900
 0.5680	90.5500
 0.5690	90.5600
 0.5700	90.5000
 0.5710	90.3800
 0.5720	90.3800
 0.5730	90.4800
 0.5740	90.3900
 0.5750	90.3100
 0.5760	90.2500
 0.5770	90.4000
 0.5780	90.5100
 0.5790	90.5500
 0.5800	90.4900
 0.5810	90.4300
 0.5820	90.4900
 0.5830	90.4400
 0.5840	90.5000
 0.5850	90.4400
 0.5860	90.5600
 0.5870	90.5500
 0.5880	90.4900
 0.5890	90.6700
 0.5900	90.6200
 0.5910	90.6700
 0.5920	90.6100
 0.5930	90.7300
 0.5940	90.6800
 0.5950	90.6800
 0.5960	90.7400
 0.5970	90.7400
 0.5980	90.6900
 0.5990	90.5900
 0.6000	90.6200
 0.6010	90.7600
 0.6020	90.8300
 0.6030	90.7200
 0.6040	90.7300
 0.6050	90.8500
 0.6060	90.8600
 0.6070	90.9700
 0.6080	90.9100
 0.6090	90.8000
 0.6100	90.9100
 0.6110	90.8600
 0.6120	90.8500
 0.6130	90.8500
 0.6140	90.9600
 0.6150	90.7900
 0.6160	90.8000
 0.6170	90.8600
 0.6180	90.8600
 0.6190	90.8000
 0.6200	90.8600
 0.6210	90.7500
 0.6220	90.8000
 0.6230	90.8000
 0.6240	90.8500
 0.6250	90.9600
 0.6260	90.9100
 0.6270	90.8000
 0.6280	90.8700
 0.6290	90.9200
 0.6300	90.9800
 0.6310	90.9200
 0.6320	90.9200
 0.6330	90.9200
 0.6340	90.9200
 0.6350	90.8600
 0.6360	90.8600
 0.6370	90.6800
 0.6380	90.8000
 0.6390	90.8000
 0.6400	90.8600
 0.6410	90.8600
 0.6420	91.0400
 0.6430	90.9700
 0.6440	90.9200
 0.6450	90.9200
 0.6460	90.9200
 0.6470	90.9800
 0.6480	91.0300
 0.6490	90.9700
 0.6500	90.9700
 0.6510	90.9100
 0.6520	91.0900
 0.6530	91.1000
 0.6540	90.9200
 0.6550	91.0400
 0.6560	91.0900
 0.6570	90.9800
 0.6580	90.9200
 0.6590	90.9200
 0.6600	90.9200
 0.6610	91.0900
 0.6620	90.9700
 0.6630	91.0200
 0.6640	90.9700
 0.6650	90.9800
 0.6660	91.0400
 0.6670	90.9800
 0.6680	91.0400
 0.6690	91.0400
 0.6700	90.9200
 0.6710	90.9800
 0.6720	91.0400
 0.6730	91.0400
 0.6740	91.0300
 0.6750	91.0800
 0.6760	90.9700
 0.6770	91.0300
 0.6780	91.1000
 0.6790	91.1000
 0.6800	91.1000
 0.6810	91.1500
 0.6820	91.0400
 0.6830	91.1000
 0.6840	91.0400
 0.6850	91.1500
 0.6860	91.1500
 0.6870	91.0900
 0.6880	90.9700
 0.6890	91.0900
 0.6900	91.1000
 0.6910	91.1500
 0.6920	91.0400
 0.6930	91.0300
 0.6940	91.0900
 0.6950	91.0400
 0.6960	91.0900
 0.6970	91.0300
 0.6980	90.9000
 0.6990	91.0000
 0.7000	90.9800
 0.7010	91.1000
 0.7020	91.1000
 0.7030	91.1000
 0.7040	91.1500
 0.7050	91.0900
 0.7060	91.0900
 0.7070	91.0900
 0.7080	91.1500
 0.7090	91.2100
 0.7100	91.1600
 0.7110	91.2700
 0.7120	91.2700
 0.7130	91.1500
 0.7140	91.2700
 0.7150	91.1500
 0.7160	91.1500
 0.7170	91.1400
 0.7180	91.1500
 0.7190	91.2100
 0.7200	91.1000
 0.7210	91.2100
 0.7220	91.3300
 0.7230	91.2100
 0.7240	91.2700
 0.7250	91.0400
 0.7260	91.1500
 0.7270	91.0900
 0.7280	91.0900
 0.7290	91.2600
 0.7300	91.0900
 0.7310	91.1500
 0.7320	91.0900
 0.7330	91.0900
 0.7340	91.1500
 0.7350	91.1000
 0.7360	91.0400
 0.7370	91.0900
 0.7380	91.0300
 0.7390	91.1500
 0.7400	91.1000
 0.7410	91.1600
 0.7420	91.2100
 0.7430	91.2200
 0.7440	91.2700
 0.7450	91.1600
 0.7460	91.1000
 0.7470	91.1500
 0.7480	91.0400
 0.7490	91.1600
 0.7500	91.1100
 0.7510	91.0500
 0.7520	91.1500
 0.7530	91.0400
 0.7540	91.1600
 0.7550	91.1000
 0.7560	90.9300
 0.7570	91.1500
 0.7580	91.0400
 0.7590	91.0400
 0.7600	91.0400
 0.7610	91.1500
 0.7620	91.1000
 0.7630	91.0500
 0.7640	90.9900
 0.7650	91.1600
 0.7660	91.2100
 0.7670	91.1600
 0.7680	91.1600
 0.7690	91.0500
 0.7700	91.1700
 0.7710	91.0500
 0.7720	91.1700
 0.7730	91.1600
 0.7740	91.0400
 0.7750	91.1500
 0.7760	91.0500
 0.7770	91.2300
 0.7780	91.2200
 0.7790	91.1100
 0.7800	91.2800
 0.7810	91.1100
 0.7820	91.0500
 0.7830	91.1600
 0.7840	91.1700
 0.7850	91.2300
 0.7860	91.1100
 0.7870	91.1700
 0.7880	91.2200
 0.7890	91.2200
 0.7900	91.3400
 0.7910	91.2300
 0.7920	91.1600
 0.7930	91.2700
 0.7940	91.1600
 0.7950	91.2200
 0.7960	91.2200
 0.7970	91.1600
 0.7980	91.2200
 0.7990	91.2200
 0.8000	91.2700
 0.8040	91.2600
 0.8080	91.2000
 0.8120	91.3200
 0.8160	91.1900
 0.8200	91.3100
 0.8240	91.2400
 0.8280	91.3000
 0.8320	91.3000
 0.8360	91.3000
 0.8400	91.3000
 0.8440	91.3700
 0.8480	91.4100
 0.8520	91.3600
 0.8560	91.4100
 0.8600	91.5300
 0.8640	91.5900
 0.8680	91.5300
 0.8720	91.5900
 0.8760	91.5300
 0.8800	91.4700
 0.8840	91.5300
 0.8880	91.5900
 0.8920	91.5900
 0.8960	91.5900
 0.9000	91.5300
 0.9040	91.5900
 0.9080	91.5900
 0.9120	91.6500
 0.9160	91.6500
 0.9200	91.5900
 0.9240	91.6500
 0.9280	91.6600
 0.9320	91.7100
 0.9360	91.7000
 0.9400	91.7100
 0.9440	91.6400
 0.9480	91.6500
 0.9520	91.7100
 0.9560	91.7000
 0.9600	91.6500
 0.9640	91.7100
 0.9680	91.7600
 0.9720	91.5900
 0.9760	91.6500
 0.9800	91.6500
 0.9840	91.5900
 0.9880	91.6500
 0.9920	91.6600
 0.9960	91.6700
 1.0000	91.7300
 1.0040	91.7000
 1.0080	91.7600
 1.0120	91.7700
 1.0160	91.6500
 1.0200	91.7100
 1.0240	91.7100
 1.0280	91.7100
 1.0320	91.7000
 1.0360	91.7600
 1.0400	91.7600
 1.0440	91.8900
 1.0480	91.7700
 1.0520	91.7100
 1.0560	91.7700
 1.0600	91.7100
 1.0640	91.7100
 1.0680	91.7800
 1.0720	91.8500
 1.0760	91.9200
 1.0800	91.9300
 1.0840	91.9900
 1.0880	91.9400
 1.0920	91.9400
 1.0960	91.9400
 1.1000	91.9400
 1.1040	91.9400
 1.1080	91.9400
 1.1120	91.8800
 1.1160	91.9400
 1.1200	91.9800
 1.1240	91.9800
 1.1280	92.0300
 1.1320	91.9600
 1.1360	91.9700
 1.1400	91.8500
 1.1440	91.8400
 1.1480	91.9000
 1.1520	91.8300
 1.1560	91.8800
 1.1600	91.8100
 1.1640	91.7400
 1.1680	91.8500
 1.1720	91.8600
 1.1760	91.7300
 1.1800	91.7800
 1.1840	91.7700
 1.1880	91.7500
 1.1920	91.7500
 1.1960	91.8000
 1.2000	91.7900
 1.2040	91.9100
 1.2080	91.8500
 1.2120	91.9200
 1.2160	91.9300
 1.2200	91.8700
 1.2240	91.8700
 1.2280	91.8800
 1.2320	91.8300
 1.2360	91.7800
 1.2400	91.7900
 1.2440	91.7900
 1.2480	91.8500
 1.2520	91.7400
 1.2560	91.7900
 1.2600	91.7800
 1.2640	91.8200
 1.2680	91.8700
 1.2720	91.7600
 1.2760	91.8200
 1.2800	91.6900
 1.2840	91.7400
 1.2880	91.8400
 1.2920	91.7900
 1.2960	91.7700
 1.3000	91.7000
 1.3040	91.8100
 1.3080	91.7400
 1.3120	91.8000
 1.3160	91.8000
 1.3200	91.8500
 1.3240	91.7200
 1.3280	91.7700
 1.3320	91.7600
 1.3360	91.8700
 1.3400	91.7000
 1.3440	91.6300
 1.3480	91.8000
 1.3520	91.6800
 1.3560	91.7900
 1.3600	91.7500
 1.3640	91.6800
 1.3680	91.5800
 1.3720	91.6200
 1.3760	91.5500
 1.3800	91.5000
 1.3840	91.5300
 1.3880	91.5600
 1.3920	91.4400
 1.3960	91.5000
 1.4000	91.4500
 1.4040	91.4000
 1.4080	91.3500
 1.4120	91.3500
 1.4160	91.2400
 1.4200	91.1900
 1.4240	91.2700
 1.4280	91.2200
 1.4320	91.2700
 1.4360	91.2300
 1.4400	91.2300
 1.4440	91.2300
 1.4480	91.3500
 1.4520	91.2900
 1.4560	91.2400
 1.4600	91.2400
 1.4640	91.3700
 1.4680	91.3100
 1.4720	91.3600
 1.4760	91.4300
 1.4800	91.4300
 1.4840	91.4200
 1.4880	91.4800
 1.4920	91.5400
 1.4960	91.6400
 1.5000	91.5700
 1.5040	91.6000
 1.5080	91.5900
 1.5120	91.6500
 1.5160	91.6500
 1.5200	91.6500
 1.5240	91.5900
 1.5280	91.6500
 1.5320	91.6600
 1.5360	91.6500
 1.5400	91.6500
 1.5440	91.6400
 1.5480	91.7000
 1.5520	91.7100
 1.5560	91.7100
 1.5600	91.7100
 1.5640	91.6600
 1.5680	91.7100
 1.5720	91.6600
 1.5760	91.7700
 1.5800	91.7200
 1.5840	91.8200
 1.5880	91.7700
 1.5920	91.7700
 1.5960	91.7600
 1.6000	91.7700
 1.6040	91.8200
 1.6080	91.8700
 1.6120	91.8100
 1.6160	91.8600
 1.6200	91.9000
 1.6240	91.9000
 1.6280	91.8300
 1.6320	91.8300
 1.6360	91.8700
 1.6400	91.9200
 1.6440	91.9700
 1.6480	91.9600
 1.6520	91.9600
 1.6560	91.9600
 1.6600	91.9600
 1.6640	91.9400
 1.6680	91.9900
 1.6720	92.0500
 1.6760	92.0300
 1.6800	92.0300
 1.6840	92.0800
 1.6880	91.9500
 1.6920	92.0600
 1.6960	91.9900
 1.7000	91.9900
 1.7040	92.1100
 1.7080	92.0500
 1.7120	92.0400
 1.7160	92.1000
 1.7200	92.1100
 1.7240	92.0500
 1.7280	92.0500
 1.7320	91.9300
 1.7360	92.0400
 1.7400	92.0400
 1.7440	92.0400
 1.7480	91.9800
 1.7520	91.9900
 1.7560	91.9900
 1.7600	91.9900
 1.7640	91.9300
 1.7680	91.9400
 1.7720	91.8700
 1.7760	91.8700
 1.7800	91.8700
 1.7840	91.9300
 1.7880	91.9300
 1.7920	91.9300
 1.7960	91.8800
 1.8000	91.8800
 1.8040	91.9600
 1.8080	91.9400
 1.8120	91.9000
 1.8160	91.8800
 1.8200	91.8400
 1.8240	91.8100
 1.8280	91.7900
 1.8320	91.7500
 1.8360	91.7600
 1.8400	91.8400
 1.8440	91.7000
 1.8480	91.6900
 1.8520	91.6700
 1.8560	91.6700
 1.8600	91.7200
 1.8640	91.6500
 1.8680	91.6100
 1.8720	91.5500
 1.8760	91.4400
 1.8800	91.3400
 1.8840	91.1600
 1.8880	91.0400
 1.8920	90.8700
 1.8960	90.7000
 1.9000	90.3900
 1.9040	90.3400
 1.9080	90.0900
 1.9120	89.8400
 1.9160	89.7900
 1.9200	89.6600
 1.9240	89.5700
 1.9280	89.4200
 1.9320	89.3700
 1.9360	89.3200
 1.9400	89.3700
 1.9440	89.3700
 1.9480	89.3600
 1.9520	89.4700
 1.9560	89.5700
 1.9600	89.5700
 1.9640	89.6800
 1.9680	89.7800
 1.9720	89.8800
 1.9760	89.8600
 1.9800	90.0700
 1.9840	90.1700
 1.9880	90.2600
 1.9920	90.4100
 1.9960	90.5500
 2.0000	90.7100
 2.0040	90.7500
 2.0080	90.8400
 2.0120	91.0200
 2.0160	91.0900
 2.0200	91.2300
 2.0240	91.2000
 2.0280	91.4100
 2.0320	91.4600
 2.0360	91.6000
 2.0400	91.6200
 2.0440	91.5900
 2.0480	91.6400
 2.0520	91.6400
 2.0560	91.6500
 2.0600	91.6700
 2.0640	91.7500
 2.0680	91.7600
 2.0720	91.9500
 2.0760	91.9600
 2.0800	91.9900
 2.0840	92.0100
 2.0880	92.1300
 2.0920	92.1500
 2.0960	92.2300
 2.1000	92.2500
 2.1040	92.3800
 2.1080	92.4000
 2.1120	92.5300
 2.1160	92.6100
 2.1200	92.5700
 2.1240	92.5600
 2.1280	92.5400
 2.1320	92.4600
 2.1360	92.5200
 2.1400	92.4600
 2.1440	92.5500
 2.1480	92.5300
 2.1520	92.4800
 2.1560	92.3700
 2.1600	92.3300
 2.1640	92.2700
 2.1680	92.2100
 2.1720	92.2700
 2.1760	92.2100
 2.1800	92.2100
 2.1840	92.0600
 2.1880	92.2000
 2.1920	92.1100
 2.1960	92.1200
 2.2000	92.0800
 2.2040	92.0300
 2.2080	92.0800
 2.2120	91.9900
 2.2160	92.0300
 2.2200	92.0100
 2.2240	92.0100
 2.2280	92.0700
 2.2320	91.9900
 2.2360	91.9500
 2.2400	91.9700
 2.2440	92.0300
 2.2480	91.9700
 2.2520	92.0700
 2.2560	91.9800
 2.2600	92.0000
 2.2640	92.0500
 2.2680	92.0500
 2.2720	92.0900
 2.2760	92.1100
 2.2800	92.0100
 2.2840	92.0300
 2.2880	91.9900
 2.2920	92.1000
 2.2960	92.0300
 2.3000	92.0700
 2.3040	92.0300
 2.3080	92.1100
 2.3120	92.2400
 2.3160	92.2100
 2.3200	92.1700
 2.3240	92.2000
 2.3280	92.1800
 2.3320	92.3400
 2.3360	92.2500
 2.3400	92.2800
 2.3440	92.3500
 2.3480	92.3700
 2.3520	92.2700
 2.3560	92.2300
 2.3600	92.1900
 2.3640	92.2100
 2.3680	92.2300
 2.3720	92.2100
 2.3760	92.1500
 2.3800	92.1000
 2.3840	92.0600
 2.3880	92.0700
 2.3920	92.0500
 2.3960	92.0100
 2.4000	92.0000
 2.4040	91.9400
 2.4080	91.9300
 2.4120	91.9300
 2.4160	91.9700
 2.4200	91.9700
 2.4240	91.8400
 2.4280	91.8900
 2.4320	91.8300
 2.4360	91.7100
 2.4400	91.7600
 2.4440	91.6400
 2.4480	91.5700
 2.4520	91.5700
 2.4560	91.5100
 2.4600	91.5000
 2.4640	91.4300
 2.4680	91.4300
 2.4720	91.4300
 2.4760	91.4700
 2.4800	91.5700
 2.4840	91.5600
 2.4880	91.6000
 2.4920	91.6600
 2.4960	91.9900
 2.5000	92.0300
