Name: Montebrasite LiAlPO_4(OH)
Type: Mineral
Class: Phosphate
Subclass: None
Particle Size: Coarse
Sample No.: P-2A
Owner: JPL
Wavelength Range: VSWIR
Origin: USA, Couth Dakota, Custer County, Custer
Collection Date: N/A
Description: Particle size was 125-500um.Collected by Burminco Original ASTER Spectral Library name was jpl.beckman.mineral.phosphate.none.coarse.p02a.spectrum.txt
Measurement: Hemispherical reflectance
First Column: X
Second Column: Y
X Units: Wavelength (micrometers)
Y Units:Reflectance (percent)
First X Value:  0.4000
Last X Value:  2.5000
Number of X Values: 826
Additional Information: mineral.phosphate.none.coarse.vswir.p-2a.jpl.beckman.ancillary.txt

 0.4000	63.7800
 0.4010	63.8800
 0.4020	64.1000
 0.4030	64.1800
 0.4040	64.2400
 0.4050	64.3000
 0.4060	64.3000
 0.4070	64.4600
 0.4080	64.5900
 0.4090	64.6900
 0.4100	64.8300
 0.4110	64.8000
 0.4120	64.8800
 0.4130	65.0300
 0.4140	65.0800
 0.4150	65.1600
 0.4160	65.2200
 0.4170	65.2900
 0.4180	65.3900
 0.4190	65.5300
 0.4200	65.4500
 0.4210	65.6000
 0.4220	65.6400
 0.4230	65.7100
 0.4240	65.7700
 0.4250	65.8900
 0.4260	65.9700
 0.4270	66.0000
 0.4280	66.0600
 0.4290	66.1600
 0.4300	66.2100
 0.4310	66.3100
 0.4320	66.3200
 0.4330	66.3200
 0.4340	66.4000
 0.4350	66.4900
 0.4360	66.5300
 0.4370	66.6500
 0.4380	66.7500
 0.4390	66.7100
 0.4400	66.8300
 0.4410	66.9200
 0.4420	66.8700
 0.4430	67.0400
 0.4440	66.8500
 0.4450	66.8900
 0.4460	66.9600
 0.4470	67.0200
 0.4480	67.1600
 0.4490	67.0800
 0.4500	67.1400
 0.4510	67.2200
 0.4520	67.2100
 0.4530	67.3600
 0.4540	67.3600
 0.4550	67.3800
 0.4560	67.5500
 0.4570	67.4600
 0.4580	67.5600
 0.4590	67.5200
 0.4600	67.5200
 0.4610	67.5200
 0.4620	67.5900
 0.4630	67.6000
 0.4640	67.5300
 0.4650	67.7200
 0.4660	67.6900
 0.4670	67.7800
 0.4680	67.7300
 0.4690	67.6700
 0.4700	67.7800
 0.4710	67.7800
 0.4720	67.8600
 0.4730	67.8800
 0.4740	67.9200
 0.4750	68.0400
 0.4760	67.9800
 0.4770	68.0300
 0.4780	67.9900
 0.4790	68.0100
 0.4800	68.1200
 0.4810	68.0900
 0.4820	68.0800
 0.4830	68.1400
 0.4840	68.1600
 0.4850	68.2500
 0.4860	68.1600
 0.4870	68.2400
 0.4880	68.1300
 0.4890	68.1300
 0.4900	68.2400
 0.4910	68.2400
 0.4920	68.3100
 0.4930	68.2500
 0.4940	68.3200
 0.4950	68.3600
 0.4960	68.3300
 0.4970	68.3200
 0.4980	68.5000
 0.4990	68.4200
 0.5000	68.5500
 0.5010	68.5100
 0.5020	68.4200
 0.5030	68.5400
 0.5040	68.5000
 0.5050	68.6000
 0.5060	68.4800
 0.5070	68.5700
 0.5080	68.6700
 0.5090	68.6500
 0.5100	68.7800
 0.5110	68.7200
 0.5120	68.6500
 0.5130	68.7700
 0.5140	68.7000
 0.5150	68.8200
 0.5160	68.7800
 0.5170	68.7600
 0.5180	68.8400
 0.5190	68.8200
 0.5200	68.9800
 0.5210	68.9600
 0.5220	68.8200
 0.5230	68.9200
 0.5240	68.8800
 0.5250	69.0100
 0.5260	68.9200
 0.5270	68.8800
 0.5280	68.9900
 0.5290	69.0200
 0.5300	69.1200
 0.5310	68.9700
 0.5320	68.8900
 0.5330	68.9700
 0.5340	68.9700
 0.5350	69.0900
 0.5360	68.9900
 0.5370	69.0300
 0.5380	69.0300
 0.5390	68.9900
 0.5400	69.1200
 0.5410	69.0000
 0.5420	68.9800
 0.5430	69.1300
 0.5440	69.1100
 0.5450	69.2500
 0.5460	69.1300
 0.5470	69.0600
 0.5480	69.0500
 0.5490	69.1000
 0.5500	69.2300
 0.5510	69.1400
 0.5520	69.2300
 0.5530	69.2100
 0.5540	69.2600
 0.5550	69.2600
 0.5560	69.1400
 0.5570	69.2200
 0.5580	69.2000
 0.5590	69.2600
 0.5600	69.5600
 0.5610	69.5500
 0.5620	69.6300
 0.5630	69.6100
 0.5640	69.5800
 0.5650	69.6200
 0.5660	69.5900
 0.5670	69.5900
 0.5680	69.5200
 0.5690	69.5800
 0.5700	69.6500
 0.5710	69.6600
 0.5720	69.5000
 0.5730	69.3400
 0.5740	69.3700
 0.5750	69.4600
 0.5760	69.5500
 0.5770	69.5300
 0.5780	69.3700
 0.5790	69.4400
 0.5800	69.5600
 0.5810	69.4500
 0.5820	69.4300
 0.5830	69.3400
 0.5840	69.4400
 0.5850	69.4400
 0.5860	69.4100
 0.5870	69.4400
 0.5880	69.3600
 0.5890	69.5600
 0.5900	69.5300
 0.5910	69.5400
 0.5920	69.5900
 0.5930	69.5600
 0.5940	69.6100
 0.5950	69.5200
 0.5960	69.4100
 0.5970	69.5300
 0.5980	69.5800
 0.5990	69.6600
 0.6000	69.6400
 0.6010	69.6400
 0.6020	69.7000
 0.6030	69.7900
 0.6040	69.7200
 0.6050	69.6800
 0.6060	69.7100
 0.6070	69.8700
 0.6080	69.8800
 0.6090	69.9300
 0.6100	69.8100
 0.6110	69.8500
 0.6120	69.8900
 0.6130	69.7200
 0.6140	69.8100
 0.6150	69.6800
 0.6160	69.7800
 0.6170	69.9100
 0.6180	69.7900
 0.6190	69.8500
 0.6200	69.6900
 0.6210	69.8400
 0.6220	69.8200
 0.6230	69.7500
 0.6240	69.8800
 0.6250	69.7600
 0.6260	69.9000
 0.6270	69.9000
 0.6280	69.7800
 0.6290	69.8200
 0.6300	69.7600
 0.6310	69.7900
 0.6320	69.8400
 0.6330	69.8200
 0.6340	69.8700
 0.6350	69.8200
 0.6360	69.8800
 0.6370	69.8800
 0.6380	69.7500
 0.6390	69.8500
 0.6400	69.8200
 0.6410	69.9500
 0.6420	69.8700
 0.6430	69.8500
 0.6440	69.9700
 0.6450	69.9300
 0.6460	69.9700
 0.6470	69.9100
 0.6480	69.8800
 0.6490	70.0100
 0.6500	69.9800
 0.6510	70.0100
 0.6520	69.9100
 0.6530	69.9700
 0.6540	69.9700
 0.6550	70.0300
 0.6560	70.0600
 0.6570	70.0400
 0.6580	69.9400
 0.6590	69.9700
 0.6600	69.9500
 0.6610	69.9800
 0.6620	69.9200
 0.6630	69.9700
 0.6640	70.0600
 0.6650	70.0000
 0.6660	70.0100
 0.6670	70.0100
 0.6680	69.9400
 0.6690	70.0600
 0.6700	70.0100
 0.6710	70.0700
 0.6720	70.0900
 0.6730	70.0600
 0.6740	70.1000
 0.6750	70.1000
 0.6760	70.1300
 0.6770	70.0600
 0.6780	70.0300
 0.6790	70.0700
 0.6800	70.1000
 0.6810	70.0700
 0.6820	70.0400
 0.6830	70.0300
 0.6840	70.1300
 0.6850	70.1400
 0.6860	70.0600
 0.6870	70.0700
 0.6880	70.1000
 0.6890	70.1400
 0.6900	70.1700
 0.6910	70.2000
 0.6920	70.0900
 0.6930	70.1000
 0.6940	70.1600
 0.6950	70.0900
 0.6960	70.1100
 0.6970	70.0800
 0.6980	70.0700
 0.6990	70.1100
 0.7000	70.1500
 0.7010	70.1600
 0.7020	70.2200
 0.7030	70.1600
 0.7040	70.1600
 0.7050	70.2400
 0.7060	70.1700
 0.7070	70.2400
 0.7080	70.1600
 0.7090	70.2400
 0.7100	70.2200
 0.7110	70.1600
 0.7120	70.2700
 0.7130	70.0900
 0.7140	70.2000
 0.7150	70.2400
 0.7160	70.2300
 0.7170	70.1400
 0.7180	70.2000
 0.7190	70.1100
 0.7200	70.2000
 0.7210	70.1300
 0.7220	70.1300
 0.7230	70.2600
 0.7240	70.2000
 0.7250	70.2300
 0.7260	70.1000
 0.7270	70.0600
 0.7280	70.2000
 0.7290	70.0600
 0.7300	70.2200
 0.7310	70.2000
 0.7320	70.1700
 0.7330	70.2400
 0.7340	70.2200
 0.7350	70.2600
 0.7360	70.1900
 0.7370	70.3000
 0.7380	70.1900
 0.7390	70.2300
 0.7400	70.2200
 0.7410	70.1300
 0.7420	70.3200
 0.7430	70.1700
 0.7440	70.2200
 0.7450	70.2400
 0.7460	70.2200
 0.7470	70.2400
 0.7480	70.0900
 0.7490	70.1100
 0.7500	70.2300
 0.7510	70.1300
 0.7520	70.2300
 0.7530	70.0400
 0.7540	70.1300
 0.7550	70.1100
 0.7560	70.1300
 0.7570	70.2300
 0.7580	70.1000
 0.7590	70.1700
 0.7600	70.2400
 0.7610	70.1900
 0.7620	70.2600
 0.7630	70.0400
 0.7640	70.0900
 0.7650	70.1400
 0.7660	70.1000
 0.7670	70.2000
 0.7680	70.1300
 0.7690	70.1000
 0.7700	70.1400
 0.7710	70.1200
 0.7720	70.3200
 0.7730	70.1400
 0.7740	70.2200
 0.7750	70.1900
 0.7760	70.1700
 0.7770	70.1700
 0.7780	70.1300
 0.7790	70.1900
 0.7800	70.1600
 0.7810	70.1400
 0.7820	70.2000
 0.7830	70.2200
 0.7840	70.1900
 0.7850	70.2300
 0.7860	70.1400
 0.7870	70.1000
 0.7880	70.1000
 0.7890	70.1900
 0.7900	70.2600
 0.7910	70.1700
 0.7920	70.1200
 0.7930	70.1200
 0.7940	70.1600
 0.7950	70.2500
 0.7960	70.2300
 0.7970	70.2300
 0.7980	70.2200
 0.7990	70.2600
 0.8000	70.5300
 0.8040	70.4000
 0.8080	70.3700
 0.8120	70.4200
 0.8160	70.4100
 0.8200	70.4100
 0.8240	70.4700
 0.8280	70.4400
 0.8320	70.4800
 0.8360	70.5000
 0.8400	70.6000
 0.8440	70.6300
 0.8480	70.6600
 0.8520	70.6300
 0.8560	70.7200
 0.8600	70.7500
 0.8640	70.7200
 0.8680	70.7400
 0.8720	70.7200
 0.8760	70.7700
 0.8800	70.6600
 0.8840	70.6800
 0.8880	70.6600
 0.8920	70.5400
 0.8960	70.5600
 0.9000	70.5900
 0.9040	70.5700
 0.9080	70.5000
 0.9120	70.5100
 0.9160	70.4700
 0.9200	70.4700
 0.9240	70.5600
 0.9280	70.5600
 0.9320	70.5900
 0.9360	70.5600
 0.9400	70.6000
 0.9440	70.5400
 0.9480	70.4700
 0.9520	70.5900
 0.9560	70.5300
 0.9600	70.5900
 0.9640	70.5600
 0.9680	70.5100
 0.9720	70.5400
 0.9760	70.5100
 0.9800	70.4700
 0.9840	70.3900
 0.9880	70.5000
 0.9920	70.4700
 0.9960	70.4700
 1.0000	70.3700
 1.0040	70.3400
 1.0080	70.3900
 1.0120	70.4200
 1.0160	70.3000
 1.0200	70.3100
 1.0240	70.3600
 1.0280	70.4100
 1.0320	70.4500
 1.0360	70.5000
 1.0400	70.5900
 1.0440	70.5700
 1.0480	70.5000
 1.0520	70.5100
 1.0560	70.5100
 1.0600	70.5100
 1.0640	70.5700
 1.0680	70.5600
 1.0720	70.5500
 1.0760	70.5400
 1.0800	70.5200
 1.0840	70.5500
 1.0880	70.5700
 1.0920	70.5200
 1.0960	70.5500
 1.1000	70.5200
 1.1040	70.5200
 1.1080	70.5200
 1.1120	70.5500
 1.1160	70.5100
 1.1200	70.5000
 1.1240	70.5000
 1.1280	70.5100
 1.1320	70.4800
 1.1360	70.4700
 1.1400	70.5000
 1.1440	70.5300
 1.1480	70.4700
 1.1520	70.5300
 1.1560	70.4800
 1.1600	70.4300
 1.1640	70.4800
 1.1680	70.4300
 1.1720	70.5700
 1.1760	70.5300
 1.1800	70.4700
 1.1840	70.4900
 1.1880	70.5400
 1.1920	70.5400
 1.1960	70.4700
 1.2000	70.5000
 1.2040	70.5000
 1.2080	70.4400
 1.2120	70.3800
 1.2160	70.3100
 1.2200	70.3500
 1.2240	70.4000
 1.2280	70.2900
 1.2320	70.2800
 1.2360	70.2300
 1.2400	70.2300
 1.2440	70.1300
 1.2480	70.0400
 1.2520	69.9400
 1.2560	69.8800
 1.2600	69.8000
 1.2640	69.7900
 1.2680	69.7800
 1.2720	69.5900
 1.2760	69.3400
 1.2800	69.0800
 1.2840	68.8500
 1.2880	68.9600
 1.2920	69.0800
 1.2960	69.3100
 1.3000	69.4200
 1.3040	69.4900
 1.3080	69.5300
 1.3120	69.4400
 1.3160	69.4000
 1.3200	69.3500
 1.3240	69.2300
 1.3280	69.0800
 1.3320	68.9900
 1.3360	68.7400
 1.3400	68.3800
 1.3440	68.1200
 1.3480	67.9400
 1.3520	67.9000
 1.3560	68.1800
 1.3600	68.5700
 1.3640	68.7600
 1.3680	68.8800
 1.3720	68.9200
 1.3760	68.8000
 1.3800	68.6700
 1.3840	68.4600
 1.3880	68.2600
 1.3920	67.9400
 1.3960	67.6400
 1.4000	67.2200
 1.4040	66.5000
 1.4080	65.5300
 1.4120	64.9000
 1.4160	65.1200
 1.4200	65.4600
 1.4240	65.3000
 1.4280	64.9600
 1.4320	64.4600
 1.4360	63.4800
 1.4400	62.4900
 1.4440	62.4200
 1.4480	62.9000
 1.4520	62.9400
 1.4560	62.6300
 1.4600	62.2100
 1.4640	61.6500
 1.4680	61.0500
 1.4720	60.5200
 1.4760	60.3900
 1.4800	60.4300
 1.4840	60.3100
 1.4880	59.9600
 1.4920	59.3600
 1.4960	58.6000
 1.5000	57.9600
 1.5040	56.6500
 1.5080	55.5400
 1.5120	54.5600
 1.5160	53.6000
 1.5200	52.4800
 1.5240	51.2700
 1.5280	50.1100
 1.5320	49.5200
 1.5360	49.8000
 1.5400	50.9000
 1.5440	52.3700
 1.5480	53.7900
 1.5520	55.1100
 1.5560	56.2200
 1.5600	56.9800
 1.5640	57.7100
 1.5680	58.2600
 1.5720	58.6300
 1.5760	59.1000
 1.5800	59.5400
 1.5840	59.8400
 1.5880	60.2300
 1.5920	60.4000
 1.5960	60.4600
 1.6000	60.5600
 1.6040	60.7100
 1.6080	60.8900
 1.6120	61.1600
 1.6160	61.3700
 1.6200	61.6300
 1.6240	61.9000
 1.6280	62.0000
 1.6320	62.0600
 1.6360	62.2000
 1.6400	62.3200
 1.6440	62.3500
 1.6480	62.4700
 1.6520	62.6300
 1.6560	62.7300
 1.6600	62.8700
 1.6640	63.0100
 1.6680	62.9800
 1.6720	63.0800
 1.6760	63.1100
 1.6800	63.1300
 1.6840	63.1600
 1.6880	63.1400
 1.6920	63.1500
 1.6960	63.0500
 1.7000	62.9400
 1.7040	62.7200
 1.7080	62.3200
 1.7120	61.8600
 1.7160	61.3000
 1.7200	60.6500
 1.7240	60.0300
 1.7280	59.6200
 1.7320	59.4900
 1.7360	59.5700
 1.7400	59.7500
 1.7440	59.7200
 1.7480	59.5900
 1.7520	59.4400
 1.7560	59.2700
 1.7600	59.2000
 1.7640	59.1200
 1.7680	59.2600
 1.7720	59.4400
 1.7760	59.7400
 1.7800	60.0700
 1.7840	60.5400
 1.7880	60.8300
 1.7920	61.2800
 1.7960	61.4600
 1.8000	61.5900
 1.8040	61.6700
 1.8080	61.6300
 1.8120	61.5100
 1.8160	61.1300
 1.8200	60.4500
 1.8240	59.1700
 1.8280	57.2900
 1.8320	54.9300
 1.8360	52.6600
 1.8400	50.9500
 1.8440	50.2200
 1.8480	50.3700
 1.8520	51.0600
 1.8560	52.0200
 1.8600	52.9300
 1.8640	53.7900
 1.8680	54.2300
 1.8720	54.4800
 1.8760	54.3900
 1.8800	54.2300
 1.8840	53.9800
 1.8880	53.8100
 1.8920	53.4700
 1.8960	53.2000
 1.9000	52.8600
 1.9040	52.6400
 1.9080	52.6000
 1.9120	52.5400
 1.9160	52.6900
 1.9200	52.8000
 1.9240	52.8700
 1.9280	52.9200
 1.9320	52.9300
 1.9360	53.0200
 1.9400	52.9900
 1.9440	52.9200
 1.9480	52.6800
 1.9520	52.4800
 1.9560	51.9300
 1.9600	51.1400
 1.9640	49.8000
 1.9680	47.9600
 1.9720	45.5600
 1.9760	42.5300
 1.9800	39.2900
 1.9840	36.6300
 1.9880	35.1100
 1.9920	35.1500
 1.9960	36.6200
 2.0000	39.0900
 2.0040	42.0100
 2.0080	44.8100
 2.0120	46.9200
 2.0160	48.3200
 2.0200	49.1400
 2.0240	49.3900
 2.0280	49.2300
 2.0320	48.9000
 2.0360	48.3800
 2.0400	47.8800
 2.0440	47.3900
 2.0480	46.9600
 2.0520	46.6400
 2.0560	46.3400
 2.0600	46.3300
 2.0640	46.4100
 2.0680	46.6300
 2.0720	46.8600
 2.0760	47.0400
 2.0800	47.2100
 2.0840	47.2800
 2.0880	47.1700
 2.0920	46.9300
 2.0960	46.5400
 2.1000	46.0500
 2.1040	45.6400
 2.1080	45.2800
 2.1120	44.8100
 2.1160	44.3800
 2.1200	43.8200
 2.1240	43.2000
 2.1280	42.1200
 2.1320	40.6500
 2.1360	38.5600
 2.1400	35.4900
 2.1440	31.6800
 2.1480	27.3300
 2.1520	22.7900
 2.1560	18.4300
 2.1600	14.8700
 2.1640	12.3000
 2.1680	10.7100
 2.1720	10.2900
 2.1760	10.4600
 2.1800	11.0800
 2.1840	12.0700
 2.1880	13.1400
 2.1920	14.4100
 2.1960	15.8000
 2.2000	17.2700
 2.2040	18.8200
 2.2080	20.2300
 2.2120	21.5600
 2.2160	22.7600
 2.2200	23.9200
 2.2240	25.0900
 2.2280	26.2100
 2.2320	27.2100
 2.2360	28.2400
 2.2400	29.3100
 2.2440	30.3700
 2.2480	31.3900
 2.2520	32.2300
 2.2560	33.0100
 2.2600	33.6700
 2.2640	34.2800
 2.2680	34.9700
 2.2720	35.6800
 2.2760	36.5700
 2.2800	37.5200
 2.2840	38.6300
 2.2880	39.8600
 2.2920	41.1100
 2.2960	42.2900
 2.3000	43.2600
 2.3040	44.2900
 2.3080	44.9400
 2.3120	45.4400
 2.3160	45.6800
 2.3200	45.5700
 2.3240	45.2200
 2.3280	44.3500
 2.3320	42.9100
 2.3360	40.8500
 2.3400	37.9000
 2.3440	34.3300
 2.3480	30.1200
 2.3520	25.8400
 2.3560	21.7600
 2.3600	18.3800
 2.3640	15.8400
 2.3680	14.6000
 2.3720	14.7600
 2.3760	16.0600
 2.3800	18.2400
 2.3840	20.9600
 2.3880	23.9500
 2.3920	26.7800
 2.3960	29.4000
 2.4000	31.6900
 2.4040	33.5400
 2.4080	34.9100
 2.4120	35.8900
 2.4160	36.5300
 2.4200	36.7700
 2.4240	36.6900
 2.4280	36.3900
 2.4320	35.7400
 2.4360	34.9900
 2.4400	33.9500
 2.4440	32.8600
 2.4480	31.6600
 2.4520	30.4200
 2.4560	29.1300
 2.4600	27.8500
 2.4640	26.6900
 2.4680	25.6200
 2.4720	24.5900
 2.4760	23.6300
 2.4800	22.9600
 2.4840	22.3200
 2.4880	21.7400
 2.4920	21.2600
 2.4960	20.8900
 2.5000	20.5800
