Name: Chabazite CaAl_2Si_4O_12.6H_2O
Type: Mineral
Class: Silicate
Subclass: Tectosilicate
Particle Size: Fine
Sample No.: TS-15A
Owner: JPL
Wavelength Range: VSWIR
Origin: USA, Oregon, Grant County, Ritter Hot Springs
Collection Date: N/A
Description: Particle size was 0-45um.Collected by Burminco Original ASTER Spectral Library name was jpl.beckman.mineral.silicate.tectosilicate.fine.ts15a.spectrum.txt
Measurement: Hemispherical reflectance
First Column: X
Second Column: Y
X Units: Wavelength (micrometers)
Y Units:Reflectance (percent)
First X Value:  0.4000
Last X Value:  2.5000
Number of X Values: 826
Additional Information: mineral.silicate.tectosilicate.fine.vswir.ts-15a.jpl.beckman.ancillary.txt

 0.4000	77.6200
 0.4010	77.9600
 0.4020	78.0500
 0.4030	78.1200
 0.4040	78.0500
 0.4050	78.3500
 0.4060	78.2600
 0.4070	78.3100
 0.4080	78.5400
 0.4090	78.5100
 0.4100	78.5700
 0.4110	78.5600
 0.4120	78.6100
 0.4130	78.7300
 0.4140	78.9700
 0.4150	78.9700
 0.4160	78.8800
 0.4170	78.8400
 0.4180	79.0800
 0.4190	79.0500
 0.4200	79.2100
 0.4210	79.3100
 0.4220	79.2600
 0.4230	79.4400
 0.4240	79.2900
 0.4250	79.3400
 0.4260	79.5900
 0.4270	79.5700
 0.4280	79.5700
 0.4290	79.7400
 0.4300	79.5900
 0.4310	79.8400
 0.4320	80.0400
 0.4330	80.0300
 0.4340	80.0700
 0.4350	80.1000
 0.4360	80.4000
 0.4370	80.4300
 0.4380	80.2600
 0.4390	80.5500
 0.4400	80.4900
 0.4410	80.6300
 0.4420	80.6600
 0.4430	80.6500
 0.4440	80.8200
 0.4450	80.7600
 0.4460	80.9100
 0.4470	80.8900
 0.4480	80.9500
 0.4490	81.1100
 0.4500	81.0000
 0.4510	81.1100
 0.4520	81.2300
 0.4530	81.3000
 0.4540	81.3200
 0.4550	81.3900
 0.4560	81.4200
 0.4570	81.5500
 0.4580	81.5300
 0.4590	81.6100
 0.4600	81.6400
 0.4610	81.6700
 0.4620	81.6900
 0.4630	81.8200
 0.4640	81.7900
 0.4650	81.7500
 0.4660	81.9300
 0.4670	82.0300
 0.4680	81.9700
 0.4690	81.9900
 0.4700	81.9500
 0.4710	82.0400
 0.4720	82.0000
 0.4730	82.1900
 0.4740	82.2400
 0.4750	82.1900
 0.4760	82.2200
 0.4770	82.1200
 0.4780	82.2300
 0.4790	82.3900
 0.4800	82.4200
 0.4810	82.4700
 0.4820	82.3400
 0.4830	82.2600
 0.4840	82.4000
 0.4850	82.5700
 0.4860	82.6300
 0.4870	82.6400
 0.4880	82.5800
 0.4890	82.7100
 0.4900	82.5600
 0.4910	82.7600
 0.4920	82.7200
 0.4930	82.7600
 0.4940	82.8200
 0.4950	82.8400
 0.4960	82.9000
 0.4970	83.0900
 0.4980	82.9400
 0.4990	83.2200
 0.5000	83.1300
 0.5010	83.0200
 0.5020	83.2400
 0.5030	83.2500
 0.5040	83.2500
 0.5050	83.2500
 0.5060	83.3100
 0.5070	83.4700
 0.5080	83.5200
 0.5090	83.6400
 0.5100	83.6400
 0.5110	83.5400
 0.5120	83.5700
 0.5130	83.6000
 0.5140	83.8000
 0.5150	83.7200
 0.5160	83.7200
 0.5170	83.9900
 0.5180	83.8200
 0.5190	83.9100
 0.5200	84.0700
 0.5210	84.1200
 0.5220	84.2400
 0.5230	84.0400
 0.5240	83.9800
 0.5250	84.1900
 0.5260	84.2900
 0.5270	84.2900
 0.5280	84.2900
 0.5290	84.1700
 0.5300	84.3900
 0.5310	84.3300
 0.5320	84.5000
 0.5330	84.4800
 0.5340	84.4200
 0.5350	84.5400
 0.5360	84.4600
 0.5370	84.4600
 0.5380	84.7500
 0.5390	84.7500
 0.5400	84.9200
 0.5410	84.7600
 0.5420	84.6100
 0.5430	84.7300
 0.5440	84.7500
 0.5450	84.8200
 0.5460	84.7700
 0.5470	84.8500
 0.5480	84.9100
 0.5490	84.9800
 0.5500	85.0500
 0.5510	84.9500
 0.5520	85.0100
 0.5530	85.0600
 0.5540	85.0600
 0.5550	85.1200
 0.5560	85.2000
 0.5570	85.1100
 0.5580	85.2200
 0.5590	85.1800
 0.5600	85.2400
 0.5610	85.6400
 0.5620	85.7100
 0.5630	85.8100
 0.5640	85.8700
 0.5650	85.7900
 0.5660	85.9600
 0.5670	85.8100
 0.5680	85.9700
 0.5690	85.8800
 0.5700	85.7500
 0.5710	85.8700
 0.5720	85.8500
 0.5730	85.9400
 0.5740	85.7900
 0.5750	85.7400
 0.5760	85.9300
 0.5770	85.9100
 0.5780	85.9400
 0.5790	85.9400
 0.5800	85.8800
 0.5810	86.0900
 0.5820	86.0300
 0.5830	86.0200
 0.5840	86.0800
 0.5850	86.0300
 0.5860	86.1600
 0.5870	86.0500
 0.5880	86.1000
 0.5890	86.1400
 0.5900	86.1900
 0.5910	86.3800
 0.5920	86.2700
 0.5930	86.2700
 0.5940	86.3800
 0.5950	86.4400
 0.5960	86.2700
 0.5970	86.4700
 0.5980	86.4200
 0.5990	86.5600
 0.6000	86.4800
 0.6010	86.4600
 0.6020	86.5500
 0.6030	86.5800
 0.6040	86.6600
 0.6050	86.5700
 0.6060	86.6200
 0.6070	86.7300
 0.6080	86.6800
 0.6090	86.6800
 0.6100	86.7300
 0.6110	86.6100
 0.6120	86.6600
 0.6130	86.6700
 0.6140	86.6800
 0.6150	86.7500
 0.6160	86.6300
 0.6170	86.8500
 0.6180	86.6200
 0.6190	86.5200
 0.6200	86.6300
 0.6210	86.7500
 0.6220	86.7400
 0.6230	86.7300
 0.6240	86.7300
 0.6250	86.7400
 0.6260	86.8200
 0.6270	86.8100
 0.6280	86.9200
 0.6290	86.7300
 0.6300	86.8100
 0.6310	86.8200
 0.6320	86.8100
 0.6330	86.8600
 0.6340	86.7900
 0.6350	86.9500
 0.6360	86.8400
 0.6370	86.7900
 0.6380	86.9700
 0.6390	87.0200
 0.6400	86.9700
 0.6410	87.0300
 0.6420	86.9200
 0.6430	87.1500
 0.6440	87.0900
 0.6450	87.0200
 0.6460	87.0700
 0.6470	87.1800
 0.6480	87.2400
 0.6490	87.0300
 0.6500	87.0900
 0.6510	87.3100
 0.6520	87.3100
 0.6530	87.1900
 0.6540	87.3100
 0.6550	87.2500
 0.6560	87.2500
 0.6570	87.4200
 0.6580	87.1900
 0.6590	87.2400
 0.6600	87.1800
 0.6610	87.4700
 0.6620	87.3700
 0.6630	87.2700
 0.6640	87.4300
 0.6650	87.4900
 0.6660	87.4200
 0.6670	87.4800
 0.6680	87.3200
 0.6690	87.5400
 0.6700	87.4300
 0.6710	87.4200
 0.6720	87.3500
 0.6730	87.4600
 0.6740	87.5800
 0.6750	87.4800
 0.6760	87.3700
 0.6770	87.5400
 0.6780	87.6500
 0.6790	87.6500
 0.6800	87.6600
 0.6810	87.4900
 0.6820	87.7800
 0.6830	87.5400
 0.6840	87.5300
 0.6850	87.5900
 0.6860	87.5900
 0.6870	87.7200
 0.6880	87.6000
 0.6890	87.6100
 0.6900	87.8200
 0.6910	87.8300
 0.6920	87.8300
 0.6930	87.8300
 0.6940	87.7100
 0.6950	87.9300
 0.6960	87.6900
 0.6970	87.7500
 0.6980	87.8000
 0.6990	87.7700
 0.7000	88.0200
 0.7010	87.8100
 0.7020	87.8800
 0.7030	87.8700
 0.7040	87.9900
 0.7050	87.9400
 0.7060	87.9500
 0.7070	88.0600
 0.7080	88.0000
 0.7090	88.0000
 0.7100	87.8800
 0.7110	87.8900
 0.7120	87.8900
 0.7130	87.9400
 0.7140	87.9300
 0.7150	88.0900
 0.7160	87.9400
 0.7170	88.0500
 0.7180	88.0600
 0.7190	88.1600
 0.7200	88.0500
 0.7210	88.1200
 0.7220	88.1200
 0.7230	87.9500
 0.7240	88.0500
 0.7250	87.9900
 0.7260	88.0500
 0.7270	88.1800
 0.7280	88.0800
 0.7290	88.0600
 0.7300	88.1800
 0.7310	88.1200
 0.7320	88.1700
 0.7330	88.1200
 0.7340	88.1100
 0.7350	88.1100
 0.7360	88.1100
 0.7370	88.0700
 0.7380	88.0700
 0.7390	88.1800
 0.7400	88.2300
 0.7410	88.1200
 0.7420	87.9600
 0.7430	88.0700
 0.7440	88.0700
 0.7450	88.1200
 0.7460	88.1200
 0.7470	88.0700
 0.7480	88.1300
 0.7490	88.1300
 0.7500	88.1800
 0.7510	88.2500
 0.7520	88.1900
 0.7530	88.3500
 0.7540	88.2300
 0.7550	88.1200
 0.7560	88.1300
 0.7570	88.1300
 0.7580	88.3000
 0.7590	88.1900
 0.7600	88.0800
 0.7610	88.0800
 0.7620	88.1800
 0.7630	88.2400
 0.7640	88.3000
 0.7650	88.2000
 0.7660	88.4300
 0.7670	88.2000
 0.7680	88.1400
 0.7690	88.2500
 0.7700	88.3100
 0.7710	88.4700
 0.7720	88.3600
 0.7730	88.3600
 0.7740	88.4200
 0.7750	88.3700
 0.7760	88.5300
 0.7770	88.5900
 0.7780	88.3700
 0.7790	88.4800
 0.7800	88.5900
 0.7810	88.6300
 0.7820	88.5500
 0.7830	88.4900
 0.7840	88.6000
 0.7850	88.5900
 0.7860	88.5500
 0.7870	88.6500
 0.7880	88.4900
 0.7890	88.5900
 0.7900	88.5900
 0.7910	88.3700
 0.7920	88.5400
 0.7930	88.4900
 0.7940	88.6400
 0.7950	88.6000
 0.7960	88.4300
 0.7970	88.4700
 0.7980	88.5700
 0.7990	88.7100
 0.8000	89.2300
 0.8040	89.1100
 0.8080	89.1600
 0.8120	89.0800
 0.8160	89.1600
 0.8200	89.1300
 0.8240	89.1200
 0.8280	89.0100
 0.8320	89.1400
 0.8360	89.0200
 0.8400	89.0700
 0.8440	89.1400
 0.8480	89.1200
 0.8520	89.1200
 0.8560	89.0000
 0.8600	89.0700
 0.8640	89.0500
 0.8680	89.1100
 0.8720	89.0600
 0.8760	89.0500
 0.8800	88.9400
 0.8840	88.9400
 0.8880	88.8700
 0.8920	88.8800
 0.8960	88.9400
 0.9000	88.9300
 0.9040	88.9400
 0.9080	88.8700
 0.9120	88.8200
 0.9160	88.6300
 0.9200	88.5900
 0.9240	88.7500
 0.9280	88.6000
 0.9320	88.4700
 0.9360	88.4500
 0.9400	88.3400
 0.9440	88.1500
 0.9480	87.9900
 0.9520	87.6900
 0.9560	87.5500
 0.9600	87.4500
 0.9640	87.2000
 0.9680	87.2500
 0.9720	87.1000
 0.9760	87.1500
 0.9800	87.0800
 0.9840	87.0800
 0.9880	87.2900
 0.9920	87.4600
 0.9960	87.5100
 1.0000	87.5700
 1.0040	87.8000
 1.0080	87.9200
 1.0120	87.9300
 1.0160	88.0000
 1.0200	88.0000
 1.0240	88.0600
 1.0280	88.1600
 1.0320	88.1500
 1.0360	88.2800
 1.0400	88.3400
 1.0440	88.4200
 1.0480	88.2300
 1.0520	88.3500
 1.0560	88.4100
 1.0600	88.4100
 1.0640	88.4700
 1.0680	88.4300
 1.0720	88.3300
 1.0760	88.4200
 1.0800	88.3900
 1.0840	88.4100
 1.0880	88.4800
 1.0920	88.4400
 1.0960	88.3200
 1.1000	88.2600
 1.1040	88.2500
 1.1080	88.2600
 1.1120	88.2400
 1.1160	88.2300
 1.1200	88.1500
 1.1240	88.0900
 1.1280	88.0200
 1.1320	87.7000
 1.1360	87.3200
 1.1400	86.9300
 1.1440	86.3500
 1.1480	85.8600
 1.1520	85.2900
 1.1560	84.9900
 1.1600	84.7500
 1.1640	84.7900
 1.1680	84.7700
 1.1720	84.9900
 1.1760	85.1600
 1.1800	85.2900
 1.1840	85.3500
 1.1880	85.4400
 1.1920	85.3000
 1.1960	85.4800
 1.2000	85.5400
 1.2040	85.7200
 1.2080	85.7200
 1.2120	85.8500
 1.2160	85.8200
 1.2200	85.8200
 1.2240	85.9400
 1.2280	85.9100
 1.2320	86.0600
 1.2360	86.0900
 1.2400	86.1100
 1.2440	86.1300
 1.2480	86.1400
 1.2520	86.2000
 1.2560	86.2600
 1.2600	86.3000
 1.2640	86.2900
 1.2680	86.2100
 1.2720	86.1400
 1.2760	86.1800
 1.2800	86.1500
 1.2840	86.0800
 1.2880	86.0900
 1.2920	85.8500
 1.2960	85.7900
 1.3000	85.5400
 1.3040	85.2900
 1.3080	84.9400
 1.3120	84.7100
 1.3160	84.5000
 1.3200	84.1000
 1.3240	83.5800
 1.3280	83.2200
 1.3320	82.7700
 1.3360	82.3500
 1.3400	81.9500
 1.3440	81.6400
 1.3480	81.2000
 1.3520	80.9100
 1.3560	80.4700
 1.3600	80.1000
 1.3640	79.6500
 1.3680	79.0800
 1.3720	78.6300
 1.3760	77.9400
 1.3800	76.8200
 1.3840	75.5500
 1.3880	74.0800
 1.3920	72.3200
 1.3960	70.4200
 1.4000	68.2800
 1.4040	66.2200
 1.4080	64.3600
 1.4120	62.7400
 1.4160	61.4900
 1.4200	60.7200
 1.4240	60.3100
 1.4280	60.3800
 1.4320	60.4700
 1.4360	60.9300
 1.4400	61.4200
 1.4440	61.8400
 1.4480	62.3600
 1.4520	62.7600
 1.4560	63.0700
 1.4600	63.3000
 1.4640	63.5200
 1.4680	63.9100
 1.4720	64.4500
 1.4760	65.2000
 1.4800	65.8900
 1.4840	66.7200
 1.4880	67.3600
 1.4920	67.9600
 1.4960	68.6000
 1.5000	69.1300
 1.5040	69.6700
 1.5080	70.2000
 1.5120	70.5900
 1.5160	71.1300
 1.5200	71.4200
 1.5240	71.8400
 1.5280	72.0300
 1.5320	72.3300
 1.5360	72.6700
 1.5400	73.0300
 1.5440	73.2700
 1.5480	73.4900
 1.5520	73.6000
 1.5560	73.8400
 1.5600	74.0800
 1.5640	74.2400
 1.5680	74.4800
 1.5720	74.6000
 1.5760	74.7300
 1.5800	74.7900
 1.5840	75.0700
 1.5880	75.0900
 1.5920	75.3100
 1.5960	75.4600
 1.6000	75.5900
 1.6040	75.7200
 1.6080	75.7400
 1.6120	75.8300
 1.6160	75.9300
 1.6200	76.0800
 1.6240	76.2100
 1.6280	76.3000
 1.6320	76.3900
 1.6360	76.3700
 1.6400	76.4600
 1.6440	76.4300
 1.6480	76.5400
 1.6520	76.6100
 1.6560	76.7500
 1.6600	76.8600
 1.6640	76.8200
 1.6680	76.8900
 1.6720	76.8400
 1.6760	76.8500
 1.6800	76.8400
 1.6840	76.7300
 1.6880	76.7500
 1.6920	76.7000
 1.6960	76.5100
 1.7000	76.3600
 1.7040	76.2000
 1.7080	75.9500
 1.7120	75.8000
 1.7160	75.6800
 1.7200	75.4000
 1.7240	75.0500
 1.7280	74.8000
 1.7320	74.5700
 1.7360	74.3000
 1.7400	74.1500
 1.7440	73.8900
 1.7480	73.6800
 1.7520	73.5000
 1.7560	73.1500
 1.7600	73.0600
 1.7640	72.9000
 1.7680	72.7700
 1.7720	72.7100
 1.7760	72.4600
 1.7800	72.2700
 1.7840	72.2500
 1.7880	72.1800
 1.7920	72.1200
 1.7960	72.0500
 1.8000	72.0200
 1.8040	71.9500
 1.8080	71.8200
 1.8120	71.8300
 1.8160	71.8100
 1.8200	71.8100
 1.8240	71.7100
 1.8280	71.6500
 1.8320	71.3800
 1.8360	71.1700
 1.8400	70.8400
 1.8440	70.4600
 1.8480	69.9200
 1.8520	69.2800
 1.8560	68.5800
 1.8600	67.4600
 1.8640	65.9900
 1.8680	64.2300
 1.8720	62.1800
 1.8760	59.9000
 1.8800	57.3300
 1.8840	54.4000
 1.8880	51.1100
 1.8920	47.6000
 1.8960	44.0400
 1.9000	40.7400
 1.9040	37.9500
 1.9080	35.9900
 1.9120	34.7100
 1.9160	34.1000
 1.9200	34.0200
 1.9240	34.2300
 1.9280	34.7900
 1.9320	35.6000
 1.9360	36.5200
 1.9400	37.4300
 1.9440	38.4100
 1.9480	39.2500
 1.9520	39.9600
 1.9560	40.6600
 1.9600	41.3700
 1.9640	42.1300
 1.9680	42.8200
 1.9720	43.5500
 1.9760	44.3500
 1.9800	45.0600
 1.9840	45.9100
 1.9880	46.6900
 1.9920	47.6400
 1.9960	48.5900
 2.0000	49.4000
 2.0040	50.1300
 2.0080	50.9500
 2.0120	51.6500
 2.0160	52.3500
 2.0200	53.1600
 2.0240	53.7200
 2.0280	54.3400
 2.0320	54.8700
 2.0360	55.2700
 2.0400	55.7800
 2.0440	56.1500
 2.0480	56.5500
 2.0520	56.9500
 2.0560	57.3100
 2.0600	57.6800
 2.0640	57.9000
 2.0680	58.1900
 2.0720	58.4900
 2.0760	58.7800
 2.0800	59.1200
 2.0840	59.4400
 2.0880	59.7100
 2.0920	60.0000
 2.0960	60.1700
 2.1000	60.4300
 2.1040	60.6500
 2.1080	60.9400
 2.1120	61.1900
 2.1160	61.4100
 2.1200	61.6500
 2.1240	61.7700
 2.1280	61.8700
 2.1320	62.0300
 2.1360	62.0700
 2.1400	62.1800
 2.1440	62.3000
 2.1480	62.4200
 2.1520	62.4400
 2.1560	62.6000
 2.1600	62.5600
 2.1640	62.5900
 2.1680	62.6500
 2.1720	62.7300
 2.1760	62.7100
 2.1800	62.8700
 2.1840	62.8700
 2.1880	62.9900
 2.1920	62.9600
 2.1960	62.9400
 2.2000	63.0300
 2.2040	63.0700
 2.2080	62.9900
 2.2120	63.0400
 2.2160	63.0300
 2.2200	63.0300
 2.2240	62.9800
 2.2280	62.9600
 2.2320	62.9700
 2.2360	62.9600
 2.2400	62.8200
 2.2440	62.7800
 2.2480	62.6600
 2.2520	62.4700
 2.2560	62.2600
 2.2600	62.1300
 2.2640	61.8400
 2.2680	61.7000
 2.2720	61.4900
 2.2760	61.1900
 2.2800	60.8000
 2.2840	60.4900
 2.2880	60.1400
 2.2920	59.6900
 2.2960	59.2100
 2.3000	58.7700
 2.3040	58.0900
 2.3080	57.5200
 2.3120	56.9300
 2.3160	56.5600
 2.3200	56.0200
 2.3240	55.5000
 2.3280	54.9000
 2.3320	54.3100
 2.3360	53.6000
 2.3400	52.9900
 2.3440	52.2600
 2.3480	51.5000
 2.3520	50.7500
 2.3560	50.0200
 2.3600	49.2800
 2.3640	48.4100
 2.3680	47.5300
 2.3720	46.6600
 2.3760	45.8600
 2.3800	45.0800
 2.3840	44.3700
 2.3880	43.4300
 2.3920	42.6600
 2.3960	41.9000
 2.4000	41.1100
 2.4040	40.3700
 2.4080	39.8000
 2.4120	39.1500
 2.4160	38.5400
 2.4200	37.9400
 2.4240	37.3700
 2.4280	36.8300
 2.4320	36.2200
 2.4360	35.8500
 2.4400	35.4500
 2.4440	35.0600
 2.4480	34.5700
 2.4520	34.1900
 2.4560	33.7900
 2.4600	33.4600
 2.4640	33.1500
 2.4680	32.8200
 2.4720	32.4600
 2.4760	32.1500
 2.4800	31.8400
 2.4840	31.4800
 2.4880	31.2400
 2.4920	31.0100
 2.4960	30.8500
 2.5000	30.5700
