Name: Barite BaSO_4
Type: Mineral
Class: Sulfate
Subclass: None
Particle Size: Fine
Sample No.: SO-3A
Owner: JPL
Wavelength Range: VSWIR
Origin: USA, South Carolina, Cherokee County, Kings Creek.
Collection Date: N/A
Description: Particle size was 0-45um. Collected by:  Ward's Original ASTER Spectral Library name was jpl.perkin.mineral.sulfate.none.fine.so03a.spectrum.txt
Measurement: Hemispherical reflectance
First Column: X
Second Column: Y
X Units: Wavelength (micrometers)
Y Units:Reflectance (percent)
First X Value:  2.5000
Last X Value:  0.4000
Number of X Values: 2101
Additional Information: mineral.sulfate.none.fine.vswir.so-3a.jpl.perkin.ancillary.txt

 2.5000	89.2809
 2.4990	89.2434
 2.4980	89.0318
 2.4970	88.7883
 2.4960	88.9485
 2.4950	88.7514
 2.4940	89.1232
 2.4930	88.9135
 2.4920	89.0892
 2.4910	88.8329
 2.4900	88.8778
 2.4890	88.9737
 2.4880	88.8846
 2.4870	89.1362
 2.4860	88.8384
 2.4850	88.7601
 2.4840	89.0741
 2.4830	89.0185
 2.4820	89.0315
 2.4810	89.1287
 2.4800	89.0283
 2.4790	89.0334
 2.4780	88.9546
 2.4770	89.0307
 2.4760	88.8050
 2.4750	88.9478
 2.4740	89.0516
 2.4730	89.1323
 2.4720	89.0306
 2.4710	89.1178
 2.4700	89.1212
 2.4690	89.2106
 2.4680	89.4458
 2.4670	89.2925
 2.4660	89.1540
 2.4650	89.1407
 2.4640	89.3597
 2.4630	89.4737
 2.4620	89.4054
 2.4610	89.4123
 2.4600	89.3463
 2.4590	89.3334
 2.4580	89.2884
 2.4570	89.3923
 2.4560	89.4905
 2.4550	89.5501
 2.4540	89.5158
 2.4530	89.5262
 2.4520	89.5325
 2.4510	89.4353
 2.4500	89.4685
 2.4490	89.5410
 2.4480	89.5750
 2.4470	89.6476
 2.4460	89.7138
 2.4450	89.7367
 2.4440	89.5483
 2.4430	89.6661
 2.4420	89.6814
 2.4410	89.7318
 2.4400	89.7182
 2.4390	89.8026
 2.4380	89.8223
 2.4370	89.8643
 2.4360	89.9465
 2.4350	89.7987
 2.4340	89.6762
 2.4330	89.8661
 2.4320	89.8708
 2.4310	89.8259
 2.4300	89.9591
 2.4290	89.9101
 2.4280	89.8422
 2.4270	89.8557
 2.4260	90.0312
 2.4250	89.8977
 2.4240	90.0451
 2.4230	90.1137
 2.4220	90.0016
 2.4210	90.0289
 2.4200	90.0328
 2.4190	90.0482
 2.4180	90.1121
 2.4170	90.2254
 2.4160	90.2850
 2.4150	90.1766
 2.4140	90.1859
 2.4130	90.2080
 2.4120	90.1693
 2.4110	90.1810
 2.4100	90.1941
 2.4090	90.2477
 2.4080	90.2509
 2.4070	90.3058
 2.4060	90.2679
 2.4050	90.2931
 2.4040	90.3984
 2.4030	90.3767
 2.4020	90.3273
 2.4010	90.4204
 2.4000	90.3992
 2.3990	90.5259
 2.3980	90.6081
 2.3970	90.5802
 2.3960	90.6676
 2.3950	90.6242
 2.3940	90.5748
 2.3930	90.5797
 2.3920	90.6597
 2.3910	90.6939
 2.3900	90.7034
 2.3890	90.7089
 2.3880	90.7422
 2.3870	90.7541
 2.3860	90.6857
 2.3850	90.7649
 2.3840	90.7659
 2.3830	90.8311
 2.3820	90.9340
 2.3810	90.8141
 2.3800	90.8612
 2.3790	90.8974
 2.3780	90.8955
 2.3770	90.8823
 2.3760	90.8934
 2.3750	90.9483
 2.3740	91.0261
 2.3730	91.0686
 2.3720	91.1357
 2.3710	91.1511
 2.3700	91.0945
 2.3690	91.1329
 2.3680	91.2468
 2.3670	91.2370
 2.3660	91.2571
 2.3650	91.2098
 2.3640	91.1478
 2.3630	91.1843
 2.3620	91.2093
 2.3610	91.2199
 2.3600	91.2059
 2.3590	91.2601
 2.3580	91.3209
 2.3570	91.3859
 2.3560	91.4011
 2.3550	91.4380
 2.3540	91.4879
 2.3530	91.5015
 2.3520	91.4854
 2.3510	91.5023
 2.3500	91.4597
 2.3490	91.3943
 2.3480	91.4867
 2.3470	91.4957
 2.3460	91.4693
 2.3450	91.5353
 2.3440	91.5398
 2.3430	91.5476
 2.3420	91.5993
 2.3410	91.5481
 2.3400	91.4796
 2.3390	91.4998
 2.3380	91.4803
 2.3370	91.4534
 2.3360	91.5658
 2.3350	91.6062
 2.3340	91.5697
 2.3330	91.5166
 2.3320	91.5473
 2.3310	91.5883
 2.3300	91.5641
 2.3290	91.5018
 2.3280	91.5047
 2.3270	91.4927
 2.3260	91.4522
 2.3250	91.4450
 2.3240	91.4148
 2.3230	91.4631
 2.3220	91.5591
 2.3210	91.5365
 2.3200	91.4686
 2.3190	91.5929
 2.3180	91.5429
 2.3170	91.4567
 2.3160	91.4998
 2.3150	91.4290
 2.3140	91.4156
 2.3130	91.3924
 2.3120	91.4333
 2.3110	91.5086
 2.3100	91.5336
 2.3090	91.5314
 2.3080	91.4968
 2.3070	91.5302
 2.3060	91.5026
 2.3050	91.5155
 2.3040	91.5532
 2.3030	91.5566
 2.3020	91.5300
 2.3010	91.5576
 2.3000	91.4932
 2.2990	91.4648
 2.2980	91.4725
 2.2970	91.3866
 2.2960	91.5163
 2.2950	91.5035
 2.2940	91.5771
 2.2930	91.5515
 2.2920	91.5549
 2.2910	91.4667
 2.2900	91.5036
 2.2890	91.4882
 2.2880	91.4263
 2.2870	91.4688
 2.2860	91.3815
 2.2850	91.4314
 2.2840	91.4272
 2.2830	91.4046
 2.2820	91.5260
 2.2810	91.5012
 2.2800	91.5555
 2.2790	91.4981
 2.2780	91.4951
 2.2770	91.4090
 2.2760	91.5171
 2.2750	91.4854
 2.2740	91.4209
 2.2730	91.4461
 2.2720	91.4763
 2.2710	91.4019
 2.2700	91.5316
 2.2690	91.5087
 2.2680	91.4453
 2.2670	91.5068
 2.2660	91.5033
 2.2650	91.5715
 2.2640	91.4965
 2.2630	91.3943
 2.2620	91.4249
 2.2610	91.4546
 2.2600	91.5021
 2.2590	91.5035
 2.2580	91.4083
 2.2570	91.4230
 2.2560	91.5044
 2.2550	91.5042
 2.2540	91.4988
 2.2530	91.5220
 2.2520	91.4251
 2.2510	91.4303
 2.2500	91.4427
 2.2490	91.5196
 2.2480	91.5696
 2.2470	91.5268
 2.2460	91.5082
 2.2450	91.5623
 2.2440	91.4864
 2.2430	91.4799
 2.2420	91.5210
 2.2410	91.5849
 2.2400	91.5274
 2.2390	91.5598
 2.2380	91.5268
 2.2370	91.6138
 2.2360	91.6091
 2.2350	91.6430
 2.2340	91.5917
 2.2330	91.6399
 2.2320	91.5593
 2.2310	91.6855
 2.2300	91.6713
 2.2290	91.5820
 2.2280	91.5662
 2.2270	91.6239
 2.2260	91.7406
 2.2250	91.7135
 2.2240	91.7002
 2.2230	91.6390
 2.2220	91.6970
 2.2210	91.7544
 2.2200	91.6367
 2.2190	91.7244
 2.2180	91.6799
 2.2170	91.7276
 2.2160	91.8024
 2.2150	91.7749
 2.2140	91.7580
 2.2130	91.8846
 2.2120	91.8922
 2.2110	91.8801
 2.2100	91.9282
 2.2090	91.9755
 2.2080	91.9420
 2.2070	92.0100
 2.2060	92.0584
 2.2050	92.0813
 2.2040	91.9821
 2.2030	91.9956
 2.2020	92.1942
 2.2010	92.2445
 2.2000	92.0603
 2.1990	92.1519
 2.1980	92.1351
 2.1970	92.2026
 2.1960	92.0608
 2.1950	92.1548
 2.1940	92.1822
 2.1930	92.2413
 2.1920	92.1802
 2.1910	92.1676
 2.1900	92.2888
 2.1890	92.1606
 2.1880	92.3248
 2.1870	92.2000
 2.1860	92.2609
 2.1850	92.2928
 2.1840	92.3308
 2.1830	92.4025
 2.1820	92.3463
 2.1810	92.3930
 2.1800	92.4573
 2.1790	92.4788
 2.1780	92.4600
 2.1770	92.4721
 2.1760	92.4687
 2.1750	92.5345
 2.1740	92.5717
 2.1730	92.4667
 2.1720	92.5591
 2.1710	92.6462
 2.1700	92.6046
 2.1690	92.6997
 2.1680	92.8154
 2.1670	92.7053
 2.1660	92.7561
 2.1650	92.7011
 2.1640	92.8834
 2.1630	92.9496
 2.1620	92.9343
 2.1610	92.9277
 2.1600	92.9604
 2.1590	92.9786
 2.1580	92.9777
 2.1570	93.0228
 2.1560	93.1016
 2.1550	93.1131
 2.1540	93.1276
 2.1530	93.0305
 2.1520	93.0400
 2.1510	93.0743
 2.1500	93.1362
 2.1490	93.1154
 2.1480	93.0842
 2.1470	93.0990
 2.1460	93.2343
 2.1450	93.1536
 2.1440	93.2077
 2.1430	93.1204
 2.1420	93.0613
 2.1410	93.1277
 2.1400	93.1078
 2.1390	93.0981
 2.1380	93.0881
 2.1370	93.0494
 2.1360	93.0338
 2.1350	93.0767
 2.1340	93.0692
 2.1330	93.0953
 2.1320	93.0281
 2.1310	92.9506
 2.1300	92.9302
 2.1290	92.8953
 2.1280	92.8673
 2.1270	92.8519
 2.1260	92.7696
 2.1250	92.6512
 2.1240	92.7168
 2.1230	92.5950
 2.1220	92.5958
 2.1210	92.6700
 2.1200	92.5897
 2.1190	92.5448
 2.1180	92.4645
 2.1170	92.3329
 2.1160	92.3129
 2.1150	92.2569
 2.1140	92.1719
 2.1130	92.1042
 2.1120	92.0994
 2.1110	92.0712
 2.1100	92.0481
 2.1090	91.9849
 2.1080	91.9154
 2.1070	91.7962
 2.1060	91.8781
 2.1050	91.8510
 2.1040	91.7716
 2.1030	91.7124
 2.1020	91.6057
 2.1010	91.6419
 2.1000	91.5737
 2.0990	91.4941
 2.0980	91.5319
 2.0970	91.5619
 2.0960	91.5425
 2.0950	91.4899
 2.0940	91.5289
 2.0930	91.5958
 2.0920	91.6087
 2.0910	91.6243
 2.0900	91.6069
 2.0890	91.6507
 2.0880	91.6453
 2.0870	91.6176
 2.0860	91.5945
 2.0850	91.6014
 2.0840	91.6240
 2.0830	91.6668
 2.0820	91.7383
 2.0810	91.7017
 2.0800	91.7778
 2.0790	91.7808
 2.0780	91.7298
 2.0770	91.7427
 2.0760	91.8071
 2.0750	91.8577
 2.0740	91.8439
 2.0730	91.8557
 2.0720	91.8991
 2.0710	91.8767
 2.0700	91.8545
 2.0690	91.8895
 2.0680	91.8815
 2.0670	91.9065
 2.0660	91.9238
 2.0650	91.8881
 2.0640	91.8997
 2.0630	91.9284
 2.0620	91.9556
 2.0610	91.9343
 2.0600	92.0057
 2.0590	92.0320
 2.0580	91.9603
 2.0570	91.9676
 2.0560	92.0211
 2.0550	92.0573
 2.0540	92.1135
 2.0530	92.1146
 2.0520	91.9796
 2.0510	92.0211
 2.0500	92.0901
 2.0490	92.0584
 2.0480	92.0760
 2.0470	92.0947
 2.0460	92.1239
 2.0450	92.1555
 2.0440	92.1442
 2.0430	92.1189
 2.0420	92.1412
 2.0410	92.0905
 2.0400	92.1117
 2.0390	92.0983
 2.0380	92.1391
 2.0370	92.2282
 2.0360	92.1639
 2.0350	92.1292
 2.0340	92.0799
 2.0330	92.1345
 2.0320	92.1554
 2.0310	92.1228
 2.0300	92.1050
 2.0290	92.1251
 2.0280	92.1183
 2.0270	92.1362
 2.0260	92.1219
 2.0250	92.0998
 2.0240	92.1358
 2.0230	92.0899
 2.0220	92.0730
 2.0210	92.0919
 2.0200	92.1200
 2.0190	92.0989
 2.0180	92.0930
 2.0170	92.0348
 2.0160	92.0655
 2.0150	92.1078
 2.0140	92.1204
 2.0130	92.1133
 2.0120	92.1054
 2.0110	92.0632
 2.0100	92.0198
 2.0090	91.9333
 2.0080	92.0469
 2.0070	92.0518
 2.0060	92.0555
 2.0050	91.9495
 2.0040	92.0011
 2.0030	92.0320
 2.0020	91.9756
 2.0010	92.0667
 2.0000	92.0251
 1.9990	91.9730
 1.9980	92.0514
 1.9970	92.0272
 1.9960	91.9562
 1.9950	91.9262
 1.9940	92.0140
 1.9930	91.8887
 1.9920	91.8294
 1.9910	91.8288
 1.9900	91.7752
 1.9890	91.7829
 1.9880	91.7366
 1.9870	91.7145
 1.9860	91.7042
 1.9850	91.7030
 1.9840	91.6683
 1.9830	91.6509
 1.9820	91.6815
 1.9810	91.5930
 1.9800	91.5956
 1.9790	91.5845
 1.9780	91.6031
 1.9770	91.5802
 1.9760	91.5493
 1.9750	91.5197
 1.9740	91.5067
 1.9730	91.5755
 1.9720	91.4420
 1.9710	91.4937
 1.9700	91.5386
 1.9690	91.4331
 1.9680	91.4242
 1.9670	91.3553
 1.9660	91.3285
 1.9650	91.2941
 1.9640	91.3309
 1.9630	91.3083
 1.9620	91.3845
 1.9610	91.4052
 1.9600	91.3114
 1.9590	91.4185
 1.9580	91.2381
 1.9570	91.2202
 1.9560	91.2211
 1.9550	91.2015
 1.9540	91.2772
 1.9530	91.0678
 1.9520	91.2341
 1.9510	91.1931
 1.9500	91.1538
 1.9490	91.3645
 1.9480	91.2034
 1.9470	91.1988
 1.9460	91.2353
 1.9450	91.1372
 1.9440	91.1636
 1.9430	91.2457
 1.9420	91.1777
 1.9410	91.0822
 1.9400	91.1185
 1.9390	91.2917
 1.9380	91.1208
 1.9370	91.1845
 1.9360	91.3018
 1.9350	91.1559
 1.9340	91.2079
 1.9330	91.2092
 1.9320	91.1761
 1.9310	91.2152
 1.9300	91.1911
 1.9290	91.2465
 1.9280	91.2752
 1.9270	91.3656
 1.9260	91.3498
 1.9250	91.3880
 1.9240	91.3887
 1.9230	91.3747
 1.9220	91.4466
 1.9210	91.4612
 1.9200	91.5831
 1.9190	91.4806
 1.9180	91.4831
 1.9170	91.6098
 1.9160	91.5729
 1.9150	91.5889
 1.9140	91.6899
 1.9130	91.7391
 1.9120	91.7382
 1.9110	91.7244
 1.9100	91.8822
 1.9090	91.8390
 1.9080	91.8374
 1.9070	91.9318
 1.9060	91.9910
 1.9050	91.9031
 1.9040	92.0241
 1.9030	92.0889
 1.9020	92.0901
 1.9010	92.1658
 1.9000	92.1955
 1.8990	92.1658
 1.8980	92.3400
 1.8970	92.2512
 1.8960	92.3097
 1.8950	92.3718
 1.8940	92.3684
 1.8930	92.4471
 1.8920	92.5230
 1.8910	92.4977
 1.8900	92.4287
 1.8890	92.5811
 1.8880	92.6269
 1.8870	92.7029
 1.8860	92.6748
 1.8850	92.5964
 1.8840	92.6949
 1.8830	92.7691
 1.8820	92.7535
 1.8810	92.7114
 1.8800	92.8075
 1.8790	92.8078
 1.8780	92.9283
 1.8770	92.9155
 1.8760	92.8928
 1.8750	92.9392
 1.8740	93.0061
 1.8730	92.9692
 1.8720	92.9913
 1.8710	92.9780
 1.8700	93.0577
 1.8690	93.0634
 1.8680	93.1197
 1.8670	93.1049
 1.8660	93.0887
 1.8650	93.1341
 1.8640	93.1361
 1.8630	93.1549
 1.8620	93.1098
 1.8610	93.0807
 1.8600	93.1707
 1.8590	93.1852
 1.8580	93.1181
 1.8570	93.0999
 1.8560	93.1417
 1.8550	93.2638
 1.8540	93.1218
 1.8530	93.1587
 1.8520	93.1654
 1.8510	93.1894
 1.8500	93.2642
 1.8490	93.2588
 1.8480	93.2407
 1.8470	93.2251
 1.8460	93.1899
 1.8450	93.1849
 1.8440	93.1944
 1.8430	93.2936
 1.8420	93.2412
 1.8410	93.2490
 1.8400	93.2519
 1.8390	93.2222
 1.8380	93.2459
 1.8370	93.2238
 1.8360	93.2237
 1.8350	93.2090
 1.8340	93.2188
 1.8330	93.3065
 1.8320	93.3002
 1.8310	93.2376
 1.8300	93.2308
 1.8290	93.3536
 1.8280	93.3360
 1.8270	93.3214
 1.8260	93.3029
 1.8250	93.2355
 1.8240	93.3781
 1.8230	93.3805
 1.8220	93.2721
 1.8210	93.3095
 1.8200	93.3222
 1.8190	93.3249
 1.8180	93.3134
 1.8170	93.3066
 1.8160	93.3203
 1.8150	93.3185
 1.8140	93.3121
 1.8130	93.3445
 1.8120	93.3483
 1.8110	93.3189
 1.8100	93.3241
 1.8090	93.2955
 1.8080	93.3057
 1.8070	93.3011
 1.8060	93.3210
 1.8050	93.3040
 1.8040	93.2990
 1.8030	93.3264
 1.8020	93.4013
 1.8010	93.4459
 1.8000	93.3931
 1.7990	93.3762
 1.7980	93.4203
 1.7970	93.4365
 1.7960	93.4053
 1.7950	93.3824
 1.7940	93.4054
 1.7930	93.3801
 1.7920	93.3835
 1.7910	93.3731
 1.7900	93.2971
 1.7890	93.3432
 1.7880	93.3909
 1.7870	93.3718
 1.7860	93.3214
 1.7850	93.3292
 1.7840	93.3653
 1.7830	93.3196
 1.7820	93.2981
 1.7810	93.2899
 1.7800	93.3244
 1.7790	93.3094
 1.7780	93.3059
 1.7770	93.3442
 1.7760	93.3017
 1.7750	93.2852
 1.7740	93.2593
 1.7730	93.2563
 1.7720	93.3416
 1.7710	93.3332
 1.7700	93.3622
 1.7690	93.3267
 1.7680	93.2676
 1.7670	93.3102
 1.7660	93.3101
 1.7650	93.3480
 1.7640	93.3254
 1.7630	93.3101
 1.7620	93.3544
 1.7610	93.3291
 1.7600	93.3350
 1.7590	93.3392
 1.7580	93.2990
 1.7570	93.2861
 1.7560	93.3780
 1.7550	93.3297
 1.7540	93.3060
 1.7530	93.3763
 1.7520	93.3445
 1.7510	93.2997
 1.7500	93.3554
 1.7490	93.3756
 1.7480	93.3733
 1.7470	93.4189
 1.7460	93.4539
 1.7450	93.3553
 1.7440	93.4149
 1.7430	93.4280
 1.7420	93.4162
 1.7410	93.4277
 1.7400	93.4100
 1.7390	93.4308
 1.7380	93.4455
 1.7370	93.4950
 1.7360	93.5767
 1.7350	93.4614
 1.7340	93.4526
 1.7330	93.4716
 1.7320	93.4413
 1.7310	93.4603
 1.7300	93.4493
 1.7290	93.5079
 1.7280	93.5602
 1.7270	93.5100
 1.7260	93.5056
 1.7250	93.4155
 1.7240	93.4734
 1.7230	93.5386
 1.7220	93.4921
 1.7210	93.4903
 1.7200	93.4740
 1.7190	93.4408
 1.7180	93.4407
 1.7170	93.4922
 1.7160	93.4700
 1.7150	93.5515
 1.7140	93.5112
 1.7130	93.5450
 1.7120	93.6875
 1.7110	93.6211
 1.7100	93.5904
 1.7090	93.5850
 1.7080	93.5341
 1.7070	93.4768
 1.7060	93.3894
 1.7050	93.4856
 1.7040	93.4700
 1.7030	93.4828
 1.7020	93.4438
 1.7010	93.4830
 1.7000	93.4634
 1.6990	93.4203
 1.6980	93.5357
 1.6970	93.5085
 1.6960	93.4896
 1.6950	93.4550
 1.6940	93.5415
 1.6930	93.5152
 1.6920	93.4652
 1.6910	93.4335
 1.6900	93.4236
 1.6890	93.4639
 1.6880	93.4805
 1.6870	93.4344
 1.6860	93.3952
 1.6850	93.4935
 1.6840	93.4851
 1.6830	93.4054
 1.6820	93.3646
 1.6810	93.4781
 1.6800	93.4244
 1.6790	93.4746
 1.6780	93.3845
 1.6770	93.4866
 1.6760	93.3907
 1.6750	93.4322
 1.6740	93.4772
 1.6730	93.4694
 1.6720	93.4577
 1.6710	93.4954
 1.6700	93.4578
 1.6690	93.5030
 1.6680	93.4969
 1.6670	93.4842
 1.6660	93.5182
 1.6650	93.5156
 1.6640	93.4296
 1.6630	93.4560
 1.6620	93.4457
 1.6610	93.4454
 1.6600	93.6124
 1.6590	93.4626
 1.6580	93.3736
 1.6570	93.4602
 1.6560	93.4753
 1.6550	93.4581
 1.6540	93.5024
 1.6530	93.4388
 1.6520	93.5487
 1.6510	93.4689
 1.6500	93.4775
 1.6490	93.4353
 1.6480	93.5624
 1.6470	93.4697
 1.6460	93.5058
 1.6450	93.3905
 1.6440	93.5331
 1.6430	93.4852
 1.6420	93.4897
 1.6410	93.4327
 1.6400	93.4857
 1.6390	93.3515
 1.6380	93.3700
 1.6370	93.5387
 1.6360	93.5783
 1.6350	93.5232
 1.6340	93.5249
 1.6330	93.4294
 1.6320	93.4298
 1.6310	93.5524
 1.6300	93.5707
 1.6290	93.5634
 1.6280	93.4388
 1.6270	93.5594
 1.6260	93.5103
 1.6250	93.5566
 1.6240	93.5183
 1.6230	93.4289
 1.6220	93.5896
 1.6210	93.5509
 1.6200	93.5340
 1.6190	93.5161
 1.6180	93.5576
 1.6170	93.4616
 1.6160	93.4769
 1.6150	93.5562
 1.6140	93.5322
 1.6130	93.5517
 1.6120	93.5277
 1.6110	93.5751
 1.6100	93.5581
 1.6090	93.5965
 1.6080	93.5525
 1.6070	93.4841
 1.6060	93.5101
 1.6050	93.5668
 1.6040	93.4598
 1.6030	93.4880
 1.6020	93.4776
 1.6010	93.4975
 1.6000	93.5239
 1.5990	93.4598
 1.5980	93.4353
 1.5970	93.5516
 1.5960	93.5933
 1.5950	93.5456
 1.5940	93.5778
 1.5930	93.5678
 1.5920	93.5838
 1.5910	93.5038
 1.5900	93.5432
 1.5890	93.5954
 1.5880	93.5495
 1.5870	93.5114
 1.5860	93.4722
 1.5850	93.4393
 1.5840	93.4704
 1.5830	93.5815
 1.5820	93.5357
 1.5810	93.5716
 1.5800	93.6087
 1.5790	93.5478
 1.5780	93.5375
 1.5770	93.4637
 1.5760	93.3638
 1.5750	93.4870
 1.5740	93.5319
 1.5730	93.4960
 1.5720	93.4698
 1.5710	93.4794
 1.5700	93.5039
 1.5690	93.4895
 1.5680	93.6188
 1.5670	93.5420
 1.5660	93.5112
 1.5650	93.4661
 1.5640	93.4764
 1.5630	93.4390
 1.5620	93.4445
 1.5610	93.5363
 1.5600	93.5215
 1.5590	93.4535
 1.5580	93.5105
 1.5570	93.4543
 1.5560	93.4479
 1.5550	93.4660
 1.5540	93.4320
 1.5530	93.4871
 1.5520	93.4854
 1.5510	93.4995
 1.5500	93.5361
 1.5490	93.4873
 1.5480	93.4987
 1.5470	93.5055
 1.5460	93.4331
 1.5450	93.3819
 1.5440	93.3651
 1.5430	93.4438
 1.5420	93.4164
 1.5410	93.3687
 1.5400	93.4342
 1.5390	93.4259
 1.5380	93.3781
 1.5370	93.4087
 1.5360	93.4960
 1.5350	93.4593
 1.5340	93.4177
 1.5330	93.3613
 1.5320	93.3570
 1.5310	93.4042
 1.5300	93.4192
 1.5290	93.4921
 1.5280	93.4495
 1.5270	93.3447
 1.5260	93.4407
 1.5250	93.4248
 1.5240	93.3814
 1.5230	93.3989
 1.5220	93.4185
 1.5210	93.3584
 1.5200	93.3390
 1.5190	93.3708
 1.5180	93.4087
 1.5170	93.4084
 1.5160	93.3822
 1.5150	93.3407
 1.5140	93.3756
 1.5130	93.4209
 1.5120	93.3749
 1.5110	93.3148
 1.5100	93.3096
 1.5090	93.3551
 1.5080	93.3054
 1.5070	93.3246
 1.5060	93.3383
 1.5050	93.3416
 1.5040	93.3732
 1.5030	93.3375
 1.5020	93.2801
 1.5010	93.3683
 1.5000	93.4381
 1.4990	93.3689
 1.4980	93.3192
 1.4970	93.3030
 1.4960	93.3123
 1.4950	93.3091
 1.4940	93.2855
 1.4930	93.3257
 1.4920	93.4028
 1.4910	93.3406
 1.4900	93.2925
 1.4890	93.3067
 1.4880	93.2848
 1.4870	93.2574
 1.4860	93.2680
 1.4850	93.2809
 1.4840	93.2141
 1.4830	93.2111
 1.4820	93.2918
 1.4810	93.2348
 1.4800	93.2182
 1.4790	93.2658
 1.4780	93.2394
 1.4770	93.2077
 1.4760	93.1419
 1.4750	93.1612
 1.4740	93.1851
 1.4730	93.1903
 1.4720	93.2035
 1.4710	93.2110
 1.4700	93.2392
 1.4690	93.1766
 1.4680	93.2107
 1.4670	93.1592
 1.4660	93.1722
 1.4650	93.2109
 1.4640	93.2602
 1.4630	93.2318
 1.4620	93.2349
 1.4610	93.1768
 1.4600	93.2279
 1.4590	93.2730
 1.4580	93.1969
 1.4570	93.1868
 1.4560	93.1887
 1.4550	93.1473
 1.4540	93.1581
 1.4530	93.1857
 1.4520	93.2774
 1.4510	93.2049
 1.4500	93.1789
 1.4490	93.1709
 1.4480	93.1992
 1.4470	93.3050
 1.4460	93.2442
 1.4450	93.2316
 1.4440	93.2447
 1.4430	93.2061
 1.4420	93.1644
 1.4410	93.2658
 1.4400	93.1611
 1.4390	93.1855
 1.4380	93.2150
 1.4370	93.2357
 1.4360	93.2215
 1.4350	93.2018
 1.4340	93.2277
 1.4330	93.2082
 1.4320	93.2324
 1.4310	93.2414
 1.4300	93.2099
 1.4290	93.1855
 1.4280	93.1659
 1.4270	93.2078
 1.4260	93.1834
 1.4250	93.1826
 1.4240	93.1777
 1.4230	93.1957
 1.4220	93.2243
 1.4210	93.2234
 1.4200	93.2275
 1.4190	93.3056
 1.4180	93.2151
 1.4170	93.2626
 1.4160	93.2367
 1.4150	93.2538
 1.4140	93.2102
 1.4130	93.2148
 1.4120	93.2401
 1.4110	93.1971
 1.4100	93.2263
 1.4090	93.1349
 1.4080	93.1677
 1.4070	93.2969
 1.4060	93.2417
 1.4050	93.3111
 1.4040	93.2562
 1.4030	93.3618
 1.4020	93.3005
 1.4010	93.2541
 1.4000	93.2429
 1.3990	93.3332
 1.3980	93.4024
 1.3970	93.3993
 1.3960	93.3874
 1.3950	93.3568
 1.3940	93.3802
 1.3930	93.4029
 1.3920	93.4113
 1.3910	93.4297
 1.3900	93.4964
 1.3890	93.3921
 1.3880	93.4542
 1.3870	93.5093
 1.3860	93.4808
 1.3850	93.4855
 1.3840	93.4745
 1.3830	93.4516
 1.3820	93.4153
 1.3810	93.4654
 1.3800	93.4703
 1.3790	93.4205
 1.3780	93.4851
 1.3770	93.4835
 1.3760	93.5296
 1.3750	93.4769
 1.3740	93.5453
 1.3730	93.5059
 1.3720	93.5562
 1.3710	93.4673
 1.3700	93.5033
 1.3690	93.5168
 1.3680	93.4661
 1.3670	93.5036
 1.3660	93.4817
 1.3650	93.5499
 1.3640	93.4922
 1.3630	93.4125
 1.3620	93.4442
 1.3610	93.4369
 1.3600	93.5230
 1.3590	93.4451
 1.3580	93.5631
 1.3570	93.4577
 1.3560	93.5570
 1.3550	93.4907
 1.3540	93.4319
 1.3530	93.4484
 1.3520	93.4606
 1.3510	93.4610
 1.3500	93.3247
 1.3490	93.4094
 1.3480	93.3372
 1.3470	93.4740
 1.3460	93.4281
 1.3450	93.4929
 1.3440	93.5143
 1.3430	93.4738
 1.3420	93.4183
 1.3410	93.4995
 1.3400	93.4793
 1.3390	93.5297
 1.3380	93.4629
 1.3370	93.5273
 1.3360	93.3959
 1.3350	93.3826
 1.3340	93.5558
 1.3330	93.4549
 1.3320	93.4468
 1.3310	93.5334
 1.3300	93.4868
 1.3290	93.4672
 1.3280	93.3484
 1.3270	93.3719
 1.3260	93.4331
 1.3250	93.5111
 1.3240	93.4521
 1.3230	93.5318
 1.3220	93.4696
 1.3210	93.4858
 1.3200	93.3625
 1.3190	93.4614
 1.3180	93.4425
 1.3170	93.3275
 1.3160	93.4514
 1.3150	93.5034
 1.3140	93.4250
 1.3130	93.3781
 1.3120	93.3260
 1.3110	93.4280
 1.3100	93.3658
 1.3090	93.4263
 1.3080	93.4188
 1.3070	93.3603
 1.3060	93.3273
 1.3050	93.3886
 1.3040	93.4043
 1.3030	93.4033
 1.3020	93.3432
 1.3010	93.3828
 1.3000	93.4726
 1.2990	93.4888
 1.2980	93.4682
 1.2970	93.2509
 1.2960	92.7214
 1.2950	93.3447
 1.2940	93.4457
 1.2930	93.4152
 1.2920	93.3775
 1.2910	93.3730
 1.2900	93.4367
 1.2890	93.4317
 1.2880	93.4177
 1.2870	93.4213
 1.2860	93.4670
 1.2850	93.4701
 1.2840	93.4191
 1.2830	93.4019
 1.2820	93.3907
 1.2810	93.4308
 1.2800	93.4187
 1.2790	93.3942
 1.2780	93.3863
 1.2770	93.4587
 1.2760	93.4180
 1.2750	93.3354
 1.2740	93.3563
 1.2730	93.3379
 1.2720	93.3927
 1.2710	93.3801
 1.2700	93.3708
 1.2690	93.3727
 1.2680	93.3711
 1.2670	93.3503
 1.2660	93.3979
 1.2650	93.4125
 1.2640	93.3471
 1.2630	93.4673
 1.2620	93.4334
 1.2610	93.4626
 1.2600	93.4661
 1.2590	93.3764
 1.2580	93.3538
 1.2570	93.3674
 1.2560	93.3717
 1.2550	93.4193
 1.2540	93.4351
 1.2530	93.3611
 1.2520	93.2794
 1.2510	93.3490
 1.2500	93.3248
 1.2490	93.3000
 1.2480	93.3765
 1.2470	93.4001
 1.2460	93.3709
 1.2450	93.2799
 1.2440	93.3322
 1.2430	93.3295
 1.2420	93.3051
 1.2410	93.3838
 1.2400	93.4283
 1.2390	93.4051
 1.2380	93.3332
 1.2370	93.3186
 1.2360	93.4516
 1.2350	93.4343
 1.2340	93.3550
 1.2330	93.3702
 1.2320	93.3809
 1.2310	93.3376
 1.2300	93.3837
 1.2290	93.4092
 1.2280	93.3645
 1.2270	93.3405
 1.2260	93.3811
 1.2250	93.3777
 1.2240	93.3740
 1.2230	93.3317
 1.2220	93.3479
 1.2210	93.3889
 1.2200	93.3205
 1.2190	93.2804
 1.2180	93.2870
 1.2170	93.2548
 1.2160	93.3213
 1.2150	93.3422
 1.2140	93.3190
 1.2130	93.3757
 1.2120	93.4019
 1.2110	93.3970
 1.2100	93.3064
 1.2090	93.3158
 1.2080	93.3136
 1.2070	93.2671
 1.2060	93.2911
 1.2050	93.2768
 1.2040	93.3412
 1.2030	93.3938
 1.2020	93.3454
 1.2010	93.2624
 1.2000	93.2619
 1.1990	93.2934
 1.1980	93.2613
 1.1970	93.2475
 1.1960	93.2827
 1.1950	93.3254
 1.1940	93.2744
 1.1930	93.2773
 1.1920	93.3465
 1.1910	93.3339
 1.1900	93.2800
 1.1890	93.3513
 1.1880	93.3356
 1.1870	93.3221
 1.1860	93.3213
 1.1850	93.3103
 1.1840	93.3540
 1.1830	93.2968
 1.1820	93.2874
 1.1810	93.3772
 1.1800	93.3381
 1.1790	93.2731
 1.1780	93.2906
 1.1770	93.3450
 1.1760	93.3307
 1.1750	93.3580
 1.1740	93.2691
 1.1730	93.2800
 1.1720	93.2932
 1.1710	93.3094
 1.1700	93.3568
 1.1690	93.3208
 1.1680	93.2554
 1.1670	93.2926
 1.1660	93.2699
 1.1650	93.3268
 1.1640	93.3849
 1.1630	93.3135
 1.1620	93.4184
 1.1610	93.4140
 1.1600	93.3114
 1.1590	93.2632
 1.1580	93.2811
 1.1570	93.3125
 1.1560	93.2987
 1.1550	93.2913
 1.1540	93.3456
 1.1530	93.2878
 1.1520	93.3064
 1.1510	93.3753
 1.1500	93.2784
 1.1490	93.3014
 1.1480	93.2881
 1.1470	93.3985
 1.1460	93.3785
 1.1450	93.3083
 1.1440	93.3047
 1.1430	93.2523
 1.1420	93.3798
 1.1410	93.3538
 1.1400	93.3644
 1.1390	93.3165
 1.1380	93.3594
 1.1370	93.2825
 1.1360	93.3043
 1.1350	93.3524
 1.1340	93.3387
 1.1330	93.3467
 1.1320	93.3112
 1.1310	93.3597
 1.1300	93.3415
 1.1290	93.3657
 1.1280	93.3969
 1.1270	93.3666
 1.1260	93.3854
 1.1250	93.3429
 1.1240	93.2976
 1.1230	93.3197
 1.1220	93.3471
 1.1210	93.2820
 1.1200	93.2845
 1.1190	93.3420
 1.1180	93.2514
 1.1170	93.3287
 1.1160	93.3591
 1.1150	93.2490
 1.1140	93.3272
 1.1130	93.3416
 1.1120	93.3791
 1.1110	93.4158
 1.1100	93.3501
 1.1090	93.4189
 1.1080	93.3291
 1.1070	93.3705
 1.1060	93.3061
 1.1050	93.2421
 1.1040	93.4449
 1.1030	93.3822
 1.1020	93.3784
 1.1010	93.3839
 1.1000	93.3669
 1.0990	93.2510
 1.0980	93.3534
 1.0970	93.3642
 1.0960	93.3520
 1.0950	93.3342
 1.0940	93.3205
 1.0930	93.3537
 1.0920	93.3325
 1.0910	93.2525
 1.0900	93.3311
 1.0890	93.3132
 1.0880	93.3308
 1.0870	93.4291
 1.0860	93.2298
 1.0850	93.3503
 1.0840	93.4104
 1.0830	93.4360
 1.0820	93.3669
 1.0810	93.2973
 1.0800	93.3768
 1.0790	93.4598
 1.0780	93.2729
 1.0770	93.4229
 1.0760	93.2989
 1.0750	93.2796
 1.0740	93.3287
 1.0730	93.2852
 1.0720	93.3083
 1.0710	93.4008
 1.0700	93.3582
 1.0690	93.3312
 1.0680	93.4137
 1.0670	93.2897
 1.0660	93.3473
 1.0650	93.4457
 1.0640	93.2600
 1.0630	93.3705
 1.0620	93.4054
 1.0610	93.3604
 1.0600	93.3616
 1.0590	93.4359
 1.0580	93.3637
 1.0570	93.3702
 1.0560	93.3582
 1.0550	93.2549
 1.0540	93.3300
 1.0530	93.2405
 1.0520	93.3294
 1.0510	93.3046
 1.0500	93.3996
 1.0490	93.2524
 1.0480	93.2930
 1.0470	93.3288
 1.0460	93.3827
 1.0450	93.4125
 1.0440	93.3201
 1.0430	93.4125
 1.0420	93.3608
 1.0410	93.3486
 1.0400	93.3411
 1.0390	93.3332
 1.0380	93.4665
 1.0370	93.4052
 1.0360	93.5120
 1.0350	93.3774
 1.0340	93.3884
 1.0330	93.3774
 1.0320	93.3312
 1.0310	93.3272
 1.0300	93.3057
 1.0290	93.3390
 1.0280	93.3540
 1.0270	93.4431
 1.0260	93.3627
 1.0250	93.2400
 1.0240	93.4552
 1.0230	93.3616
 1.0220	93.3404
 1.0210	93.4188
 1.0200	93.4048
 1.0190	93.4249
 1.0180	93.3916
 1.0170	93.3456
 1.0160	93.3294
 1.0150	93.4153
 1.0140	93.3935
 1.0130	93.3588
 1.0120	93.2493
 1.0110	93.2757
 1.0100	93.3022
 1.0090	93.2919
 1.0080	93.3959
 1.0070	93.3173
 1.0060	93.3587
 1.0050	93.3698
 1.0040	93.3509
 1.0030	93.4068
 1.0020	93.2827
 1.0010	93.2989
 1.0000	93.2628
 0.9990	93.3751
 0.9980	93.3128
 0.9970	93.3374
 0.9960	93.3411
 0.9950	93.2626
 0.9940	93.2653
 0.9930	93.3375
 0.9920	93.3876
 0.9910	93.3919
 0.9900	93.4226
 0.9890	93.3890
 0.9880	93.3704
 0.9870	93.3138
 0.9860	93.3325
 0.9850	93.3479
 0.9840	93.3185
 0.9830	93.3569
 0.9820	93.3634
 0.9810	93.3953
 0.9800	93.3281
 0.9790	93.2873
 0.9780	93.3889
 0.9770	93.3968
 0.9760	93.3249
 0.9750	93.3297
 0.9740	93.3443
 0.9730	93.3691
 0.9720	93.3380
 0.9710	93.3570
 0.9700	93.3932
 0.9690	93.3806
 0.9680	93.4588
 0.9670	93.4464
 0.9660	93.3886
 0.9650	93.3702
 0.9640	93.4115
 0.9630	93.4016
 0.9620	93.2957
 0.9610	93.3442
 0.9600	93.4612
 0.9590	93.4265
 0.9580	93.3715
 0.9570	93.4272
 0.9560	93.3855
 0.9550	93.3358
 0.9540	93.3617
 0.9530	93.3829
 0.9520	93.4016
 0.9510	93.3595
 0.9500	93.3161
 0.9490	93.3717
 0.9480	93.3974
 0.9470	93.3693
 0.9460	93.3714
 0.9450	93.3465
 0.9440	93.3335
 0.9430	93.3624
 0.9420	93.3649
 0.9410	93.3602
 0.9400	93.3979
 0.9390	93.4036
 0.9380	93.4779
 0.9370	93.4520
 0.9360	93.3762
 0.9350	93.3326
 0.9340	93.3426
 0.9330	93.4066
 0.9320	93.3953
 0.9310	93.4036
 0.9300	93.4398
 0.9290	93.3980
 0.9280	93.3609
 0.9270	93.4250
 0.9260	93.4228
 0.9250	93.3804
 0.9240	93.3895
 0.9230	93.4192
 0.9220	93.4080
 0.9210	93.3725
 0.9200	93.3504
 0.9190	93.3493
 0.9180	93.3992
 0.9170	93.4487
 0.9160	93.3920
 0.9150	93.3330
 0.9140	93.3499
 0.9130	93.3808
 0.9120	93.3574
 0.9110	93.4050
 0.9100	93.4202
 0.9090	93.4062
 0.9080	93.3816
 0.9070	93.4079
 0.9060	93.4634
 0.9050	93.4263
 0.9040	93.4140
 0.9030	93.4057
 0.9020	93.4122
 0.9010	93.4289
 0.9000	93.3476
 0.8990	93.3469
 0.8980	93.4206
 0.8970	93.3819
 0.8960	93.3349
 0.8950	93.3421
 0.8940	93.3974
 0.8930	93.4596
 0.8920	93.4394
 0.8910	93.4031
 0.8900	93.3674
 0.8890	93.3880
 0.8880	93.3995
 0.8870	93.3765
 0.8860	93.3392
 0.8850	93.3083
 0.8840	93.3398
 0.8830	93.3725
 0.8820	93.4168
 0.8810	93.3878
 0.8800	93.3629
 0.8790	93.3829
 0.8780	93.4489
 0.8770	93.4751
 0.8760	93.5005
 0.8750	93.4876
 0.8740	93.3407
 0.8730	93.4197
 0.8720	93.4781
 0.8710	93.3855
 0.8700	93.3604
 0.8690	93.3920
 0.8680	93.3640
 0.8670	93.3554
 0.8660	93.3723
 0.8650	93.3969
 0.8640	93.3986
 0.8630	93.4463
 0.8620	93.3200
 0.8610	93.3795
 0.8600	93.4311
 0.8590	93.2916
 0.8580	93.4874
 0.8570	93.5088
 0.8560	93.2685
 0.8550	93.3174
 0.8540	93.4615
 0.8530	93.5000
 0.8520	93.5653
 0.8510	93.5628
 0.8500	93.4243
 0.8490	93.4111
 0.8480	93.4136
 0.8470	93.3585
 0.8460	93.4767
 0.8450	93.5209
 0.8440	93.4377
 0.8430	93.4376
 0.8420	93.4487
 0.8410	93.4428
 0.8400	93.4424
 0.8390	93.4281
 0.8380	93.4297
 0.8370	93.4199
 0.8360	93.4573
 0.8350	93.4367
 0.8340	93.4222
 0.8330	93.4522
 0.8320	93.4281
 0.8310	93.4224
 0.8300	93.4285
 0.8290	93.4133
 0.8280	93.4528
 0.8270	93.4769
 0.8260	93.4143
 0.8250	93.4449
 0.8240	93.3955
 0.8230	93.4559
 0.8220	93.4973
 0.8210	93.4649
 0.8200	93.4828
 0.8190	93.4843
 0.8180	93.4635
 0.8170	93.3999
 0.8160	93.4233
 0.8150	93.4449
 0.8140	93.4645
 0.8130	93.4672
 0.8120	93.5100
 0.8110	93.4684
 0.8100	93.5017
 0.8090	93.4745
 0.8080	93.4675
 0.8070	93.4264
 0.8060	93.4754
 0.8050	93.4667
 0.8040	93.4778
 0.8030	93.4406
 0.8020	93.4369
 0.8010	93.4394
 0.8000	93.5236
 0.7990	93.3797
 0.7980	93.3780
 0.7970	93.3983
 0.7960	93.3968
 0.7950	93.3031
 0.7940	93.3523
 0.7930	93.3677
 0.7920	93.3261
 0.7910	93.3326
 0.7900	93.3831
 0.7890	93.3388
 0.7880	93.3130
 0.7870	93.3763
 0.7860	93.2977
 0.7850	93.3414
 0.7840	93.3416
 0.7830	93.3260
 0.7820	93.3136
 0.7810	93.3378
 0.7800	93.3076
 0.7790	93.2408
 0.7780	93.3440
 0.7770	93.2871
 0.7760	93.2480
 0.7750	93.2993
 0.7740	93.2673
 0.7730	93.2966
 0.7720	93.2534
 0.7710	93.2502
 0.7700	93.2053
 0.7690	93.2091
 0.7680	93.2441
 0.7670	93.1909
 0.7660	93.1760
 0.7650	93.2236
 0.7640	93.2341
 0.7630	93.1556
 0.7620	93.1642
 0.7610	93.1972
 0.7600	93.1515
 0.7590	93.1442
 0.7580	93.1823
 0.7570	93.1658
 0.7560	93.1539
 0.7550	93.1392
 0.7540	93.0962
 0.7530	93.0960
 0.7520	93.1404
 0.7510	93.0779
 0.7500	93.0685
 0.7490	93.0852
 0.7480	93.0518
 0.7470	93.0596
 0.7460	93.0482
 0.7450	93.0429
 0.7440	93.0541
 0.7430	93.0313
 0.7420	93.0650
 0.7410	93.0123
 0.7400	93.0679
 0.7390	93.0322
 0.7380	93.0126
 0.7370	93.0094
 0.7360	93.0141
 0.7350	93.0093
 0.7340	92.9990
 0.7330	92.9936
 0.7320	92.9405
 0.7310	92.9633
 0.7300	92.9553
 0.7290	92.9580
 0.7280	92.9373
 0.7270	92.9308
 0.7260	92.9407
 0.7250	92.9007
 0.7240	92.9290
 0.7230	92.8888
 0.7220	92.8950
 0.7210	92.8749
 0.7200	92.8702
 0.7190	92.8815
 0.7180	92.8790
 0.7170	92.8534
 0.7160	92.8346
 0.7150	92.8437
 0.7140	92.8297
 0.7130	92.8268
 0.7120	92.8154
 0.7110	92.8313
 0.7100	92.7711
 0.7090	92.7961
 0.7080	92.8029
 0.7070	92.7893
 0.7060	92.7741
 0.7050	92.7516
 0.7040	92.7597
 0.7030	92.7376
 0.7020	92.7556
 0.7010	92.7419
 0.7000	92.7336
 0.6990	92.7482
 0.6980	92.7420
 0.6970	92.7101
 0.6960	92.7059
 0.6950	92.6879
 0.6940	92.7194
 0.6930	92.7548
 0.6920	92.7266
 0.6910	92.7059
 0.6900	92.6887
 0.6890	92.7073
 0.6880	92.6786
 0.6870	92.7227
 0.6860	92.7646
 0.6850	92.7664
 0.6840	92.7329
 0.6830	92.7148
 0.6820	92.7031
 0.6810	92.7032
 0.6800	92.7092
 0.6790	92.7053
 0.6780	92.6883
 0.6770	92.6755
 0.6760	92.6705
 0.6750	92.6670
 0.6740	92.6763
 0.6730	92.6744
 0.6720	92.6827
 0.6710	92.6859
 0.6700	92.6643
 0.6690	92.6525
 0.6680	92.6366
 0.6670	92.6163
 0.6660	92.6334
 0.6650	92.6309
 0.6640	92.6055
 0.6630	92.6111
 0.6620	92.6105
 0.6610	92.6044
 0.6600	92.5832
 0.6590	92.5830
 0.6580	92.5827
 0.6570	92.5798
 0.6560	92.5693
 0.6550	92.5603
 0.6540	92.5597
 0.6530	92.5798
 0.6520	92.5751
 0.6510	92.5395
 0.6500	92.5416
 0.6490	92.5337
 0.6480	92.5259
 0.6470	92.5303
 0.6460	92.5159
 0.6450	92.5090
 0.6440	92.5256
 0.6430	92.5048
 0.6420	92.4869
 0.6410	92.4882
 0.6400	92.4757
 0.6390	92.4641
 0.6380	92.4602
 0.6370	92.4597
 0.6360	92.4656
 0.6350	92.4648
 0.6340	92.4473
 0.6330	92.4390
 0.6320	92.4491
 0.6310	92.4426
 0.6300	92.4342
 0.6290	92.4354
 0.6280	92.4354
 0.6270	92.4252
 0.6260	92.3951
 0.6250	92.3944
 0.6240	92.3934
 0.6230	92.3884
 0.6220	92.3782
 0.6210	92.3656
 0.6200	92.3468
 0.6190	92.3492
 0.6180	92.3609
 0.6170	92.3539
 0.6160	92.3390
 0.6150	92.3254
 0.6140	92.3225
 0.6130	92.3357
 0.6120	92.3311
 0.6110	92.3230
 0.6100	92.3127
 0.6090	92.3095
 0.6080	92.3032
 0.6070	92.2975
 0.6060	92.2862
 0.6050	92.2789
 0.6040	92.2775
 0.6030	92.2881
 0.6020	92.2764
 0.6010	92.2587
 0.6000	92.2649
 0.5990	92.2883
 0.5980	92.2984
 0.5970	92.2972
 0.5960	92.3088
 0.5950	92.3271
 0.5940	92.3321
 0.5930	92.3303
 0.5920	92.3028
 0.5910	92.2864
 0.5900	92.2840
 0.5890	92.2930
 0.5880	92.2781
 0.5870	92.2822
 0.5860	92.2514
 0.5850	92.2546
 0.5840	92.2512
 0.5830	92.2514
 0.5820	92.2452
 0.5810	92.2439
 0.5800	92.2427
 0.5790	92.2274
 0.5780	92.2033
 0.5770	92.1862
 0.5760	92.1869
 0.5750	92.1733
 0.5740	92.1732
 0.5730	92.1674
 0.5720	92.1548
 0.5710	92.1440
 0.5700	92.1270
 0.5690	92.1158
 0.5680	92.1036
 0.5670	92.1031
 0.5660	92.0933
 0.5650	92.0937
 0.5640	92.0923
 0.5630	92.0747
 0.5620	92.0484
 0.5610	92.0361
 0.5600	92.0028
 0.5590	91.9918
 0.5580	91.9914
 0.5570	91.9756
 0.5560	91.9688
 0.5550	91.9551
 0.5540	91.9469
 0.5530	91.9284
 0.5520	91.9024
 0.5510	91.8972
 0.5500	91.8727
 0.5490	91.8849
 0.5480	91.8497
 0.5470	91.8383
 0.5460	91.8068
 0.5450	91.8128
 0.5440	91.7788
 0.5430	91.7511
 0.5420	91.7411
 0.5410	91.7316
 0.5400	91.7251
 0.5390	91.6973
 0.5380	91.6642
 0.5370	91.6464
 0.5360	91.6214
 0.5350	91.6146
 0.5340	91.6007
 0.5330	91.5609
 0.5320	91.5448
 0.5310	91.5339
 0.5300	91.5248
 0.5290	91.5090
 0.5280	91.4814
 0.5270	91.4494
 0.5260	91.4336
 0.5250	91.4198
 0.5240	91.4008
 0.5230	91.3693
 0.5220	91.3455
 0.5210	91.3309
 0.5200	91.3005
 0.5190	91.2787
 0.5180	91.2850
 0.5170	91.2494
 0.5160	91.1990
 0.5150	91.1952
 0.5140	91.1719
 0.5130	91.1615
 0.5120	91.1658
 0.5110	91.1113
 0.5100	91.0960
 0.5090	91.0768
 0.5080	91.0310
 0.5070	91.0231
 0.5060	91.0146
 0.5050	90.9585
 0.5040	90.9327
 0.5030	90.9155
 0.5020	90.9032
 0.5010	90.8525
 0.5000	90.8536
 0.4990	90.8295
 0.4980	90.7612
 0.4970	90.7685
 0.4960	90.7371
 0.4950	90.7099
 0.4940	90.6893
 0.4930	90.6800
 0.4920	90.6488
 0.4910	90.6225
 0.4900	90.5894
 0.4890	90.5746
 0.4880	90.5506
 0.4870	90.5146
 0.4860	90.5063
 0.4850	90.4469
 0.4840	90.4545
 0.4830	90.4601
 0.4820	90.4146
 0.4810	90.3735
 0.4800	90.3914
 0.4790	90.3517
 0.4780	90.3249
 0.4770	90.3006
 0.4760	90.2820
 0.4750	90.2510
 0.4740	90.2255
 0.4730	90.2059
 0.4720	90.2193
 0.4710	90.1858
 0.4700	90.1303
 0.4690	90.1227
 0.4680	90.1148
 0.4670	90.0963
 0.4660	90.0914
 0.4650	90.0661
 0.4640	90.0713
 0.4630	90.0228
 0.4620	89.9851
 0.4610	89.9745
 0.4600	89.9495
 0.4590	89.9301
 0.4580	89.9225
 0.4570	89.9071
 0.4560	89.8727
 0.4550	89.8697
 0.4540	89.8451
 0.4530	89.8108
 0.4520	89.7812
 0.4510	89.7616
 0.4500	89.7367
 0.4490	89.7055
 0.4480	89.6884
 0.4470	89.6816
 0.4460	89.6417
 0.4450	89.5990
 0.4440	89.5704
 0.4430	89.5459
 0.4420	89.5148
 0.4410	89.4857
 0.4400	89.4479
 0.4390	89.4142
 0.4380	89.3867
 0.4370	89.3465
 0.4360	89.3052
 0.4350	89.2837
 0.4340	89.2183
 0.4330	89.1755
 0.4320	89.1301
 0.4310	89.0966
 0.4300	89.0637
 0.4290	89.0261
 0.4280	88.9762
 0.4270	88.9553
 0.4260	88.9038
 0.4250	88.8717
 0.4240	88.8302
 0.4230	88.7798
 0.4220	88.7461
 0.4210	88.7144
 0.4200	88.6653
 0.4190	88.6187
 0.4180	88.6099
 0.4170	88.5680
 0.4160	88.5146
 0.4150	88.4749
 0.4140	88.4557
 0.4130	88.4070
 0.4120	88.3960
 0.4110	88.3644
 0.4100	88.3009
 0.4090	88.2741
 0.4080	88.2363
 0.4070	88.1769
 0.4060	88.1686
 0.4050	88.1090
 0.4040	88.0649
 0.4030	88.0275
 0.4020	87.9797
 0.4010	87.9266
 0.4000	87.8850
