Name: Quartz SiO_2
Type: Mineral
Class: Silicate
Subclass: Tectosilicate
Particle Size: Fine
Sample No.: TS-1B
Owner: JPL
Wavelength Range: VSWIR
Origin: Brazil, Minas Gerais
Collection Date: N/A
Description: Smoky quartz. Particle size was 0-45um.Collected by Burminco Original ASTER Spectral Library name was jpl.beckman.mineral.silicate.tectosilicate.fine.ts01b.spectrum.txt
Measurement: Hemispherical reflectance
First Column: X
Second Column: Y
X Units: Wavelength (micrometers)
Y Units:Reflectance (percent)
First X Value:  0.4000
Last X Value:  2.5000
Number of X Values: 826
Additional Information: mineral.silicate.tectosilicate.fine.vswir.ts-1b.jpl.beckman.ancillary.txt

 0.4000	71.9300
 0.4010	72.1200
 0.4020	71.8900
 0.4030	72.0100
 0.4040	72.1300
 0.4050	72.2100
 0.4060	72.1200
 0.4070	72.0600
 0.4080	72.1300
 0.4090	72.0300
 0.4100	72.0400
 0.4110	72.1900
 0.4120	72.3700
 0.4130	72.2800
 0.4140	72.2400
 0.4150	72.0700
 0.4160	72.3100
 0.4170	72.2400
 0.4180	72.1600
 0.4190	72.1000
 0.4200	72.1900
 0.4210	72.2800
 0.4220	72.2400
 0.4230	72.2200
 0.4240	72.2000
 0.4250	72.2500
 0.4260	72.3400
 0.4270	72.1900
 0.4280	72.2900
 0.4290	72.3800
 0.4300	72.3200
 0.4310	72.1900
 0.4320	72.3700
 0.4330	72.2800
 0.4340	72.4200
 0.4350	72.3100
 0.4360	72.2800
 0.4370	72.4400
 0.4380	72.5200
 0.4390	72.5000
 0.4400	72.3800
 0.4410	72.5100
 0.4420	72.5300
 0.4430	72.4400
 0.4440	72.4400
 0.4450	72.4400
 0.4460	72.5600
 0.4470	72.3400
 0.4480	72.3800
 0.4490	72.3500
 0.4500	72.4700
 0.4510	72.5600
 0.4520	72.4500
 0.4530	72.4900
 0.4540	72.6000
 0.4550	72.6100
 0.4560	72.5100
 0.4570	72.5200
 0.4580	72.7100
 0.4590	72.7200
 0.4600	72.5700
 0.4610	72.7100
 0.4620	72.6500
 0.4630	72.6900
 0.4640	72.5800
 0.4650	72.7600
 0.4660	72.7000
 0.4670	72.7100
 0.4680	72.6800
 0.4690	72.8500
 0.4700	72.7500
 0.4710	72.7500
 0.4720	72.6700
 0.4730	72.7800
 0.4740	72.8700
 0.4750	72.9900
 0.4760	72.8100
 0.4770	72.8700
 0.4780	72.8200
 0.4790	72.8700
 0.4800	72.8500
 0.4810	72.7600
 0.4820	72.9400
 0.4830	73.0300
 0.4840	72.8900
 0.4850	72.7900
 0.4860	72.8100
 0.4870	72.9600
 0.4880	72.9900
 0.4890	72.9800
 0.4900	72.9200
 0.4910	72.9800
 0.4920	73.0000
 0.4930	73.0300
 0.4940	72.9600
 0.4950	72.9400
 0.4960	73.1200
 0.4970	73.0800
 0.4980	72.9300
 0.4990	73.1300
 0.5000	73.1100
 0.5010	73.1100
 0.5020	73.1800
 0.5030	73.1500
 0.5040	73.2200
 0.5050	73.2400
 0.5060	73.2600
 0.5070	73.1500
 0.5080	73.2000
 0.5090	73.3100
 0.5100	73.4000
 0.5110	73.1500
 0.5120	73.3100
 0.5130	73.4000
 0.5140	73.5400
 0.5150	73.4900
 0.5160	73.3700
 0.5170	73.4000
 0.5180	73.4200
 0.5190	73.3300
 0.5200	73.3700
 0.5210	73.4600
 0.5220	73.4800
 0.5230	73.5500
 0.5240	73.4400
 0.5250	73.4400
 0.5260	73.5400
 0.5270	73.6600
 0.5280	73.5700
 0.5290	73.4800
 0.5300	73.4400
 0.5310	73.6700
 0.5320	73.5600
 0.5330	73.6300
 0.5340	73.5300
 0.5350	73.5300
 0.5360	73.6500
 0.5370	73.7000
 0.5380	73.5200
 0.5390	73.6700
 0.5400	73.7000
 0.5410	73.8300
 0.5420	73.6800
 0.5430	73.6500
 0.5440	73.8500
 0.5450	73.8000
 0.5460	73.8800
 0.5470	73.8200
 0.5480	73.8000
 0.5490	73.9500
 0.5500	74.0200
 0.5510	73.8100
 0.5520	73.9200
 0.5530	73.9800
 0.5540	74.1700
 0.5550	74.1400
 0.5560	74.0300
 0.5570	74.1600
 0.5580	74.1000
 0.5590	74.1000
 0.5600	74.5800
 0.5610	74.6000
 0.5620	74.2800
 0.5630	74.4300
 0.5640	74.4300
 0.5650	74.5000
 0.5660	74.2700
 0.5670	74.2600
 0.5680	74.3700
 0.5690	74.4200
 0.5700	74.2100
 0.5710	74.0900
 0.5720	74.2300
 0.5730	74.2200
 0.5740	74.1800
 0.5750	73.9700
 0.5760	74.1000
 0.5770	74.2500
 0.5780	74.1300
 0.5790	74.0700
 0.5800	74.0300
 0.5810	74.1600
 0.5820	74.0400
 0.5830	74.0500
 0.5840	74.1200
 0.5850	74.2400
 0.5860	74.3000
 0.5870	74.1700
 0.5880	74.1500
 0.5890	74.2300
 0.5900	74.3300
 0.5910	74.2900
 0.5920	74.2600
 0.5930	74.1800
 0.5940	74.3400
 0.5950	74.2400
 0.5960	74.2300
 0.5970	74.2100
 0.5980	74.3800
 0.5990	74.5000
 0.6000	74.4600
 0.6010	74.3700
 0.6020	74.3100
 0.6030	74.5600
 0.6040	74.5100
 0.6050	74.5000
 0.6060	74.4500
 0.6070	74.6700
 0.6080	74.5200
 0.6090	74.3900
 0.6100	74.4100
 0.6110	74.5000
 0.6120	74.5100
 0.6130	74.4400
 0.6140	74.3900
 0.6150	74.4400
 0.6160	74.4700
 0.6170	74.3000
 0.6180	74.2600
 0.6190	74.2700
 0.6200	74.5200
 0.6210	74.4900
 0.6220	74.3700
 0.6230	74.3600
 0.6240	74.4700
 0.6250	74.5000
 0.6260	74.5000
 0.6270	74.3600
 0.6280	74.3900
 0.6290	74.4600
 0.6300	74.4900
 0.6310	74.4200
 0.6320	74.6200
 0.6330	74.5800
 0.6340	74.5300
 0.6350	74.4000
 0.6360	74.3700
 0.6370	74.5900
 0.6380	74.5200
 0.6390	74.5400
 0.6400	74.5400
 0.6410	74.4600
 0.6420	74.6800
 0.6430	74.5900
 0.6440	74.4900
 0.6450	74.4200
 0.6460	74.6400
 0.6470	74.5500
 0.6480	74.4200
 0.6490	74.5300
 0.6500	74.6200
 0.6510	74.6900
 0.6520	74.5900
 0.6530	74.5400
 0.6540	74.5500
 0.6550	74.5700
 0.6560	74.5600
 0.6570	74.4100
 0.6580	74.5900
 0.6590	74.6400
 0.6600	74.6700
 0.6610	74.6100
 0.6620	74.6000
 0.6630	74.7900
 0.6640	74.7700
 0.6650	74.6100
 0.6660	74.6200
 0.6670	74.7300
 0.6680	74.7700
 0.6690	74.6600
 0.6700	74.6400
 0.6710	74.7200
 0.6720	74.8500
 0.6730	74.8000
 0.6740	74.7400
 0.6750	74.8400
 0.6760	74.9400
 0.6770	74.9500
 0.6780	74.6100
 0.6790	74.7600
 0.6800	74.8600
 0.6810	74.9100
 0.6820	74.8100
 0.6830	74.8500
 0.6840	74.9300
 0.6850	74.9500
 0.6860	74.8800
 0.6870	74.8800
 0.6880	74.9400
 0.6890	75.0800
 0.6900	75.0300
 0.6910	74.8300
 0.6920	74.8300
 0.6930	75.0300
 0.6940	74.9200
 0.6950	74.9100
 0.6960	74.9600
 0.6970	75.0900
 0.6980	75.0300
 0.6990	74.7400
 0.7000	74.9500
 0.7010	74.9500
 0.7020	74.8300
 0.7030	74.9400
 0.7040	75.0700
 0.7050	75.0300
 0.7060	74.7800
 0.7070	74.9000
 0.7080	74.9200
 0.7090	75.0100
 0.7100	74.9900
 0.7110	75.0000
 0.7120	75.0500
 0.7130	75.1300
 0.7140	75.0200
 0.7150	75.0000
 0.7160	75.1300
 0.7170	75.2100
 0.7180	75.1700
 0.7190	75.0200
 0.7200	74.9900
 0.7210	75.2500
 0.7220	75.1800
 0.7230	75.1100
 0.7240	75.0200
 0.7250	75.2800
 0.7260	75.1800
 0.7270	75.0500
 0.7280	75.2400
 0.7290	75.2900
 0.7300	75.3800
 0.7310	75.3500
 0.7320	75.2400
 0.7330	75.3000
 0.7340	75.3600
 0.7350	75.3300
 0.7360	75.2500
 0.7370	75.2400
 0.7380	75.2500
 0.7390	75.2500
 0.7400	75.3500
 0.7410	75.2900
 0.7420	75.3200
 0.7430	75.4600
 0.7440	75.4300
 0.7450	75.3800
 0.7460	75.3600
 0.7470	75.2900
 0.7480	75.4200
 0.7490	75.3500
 0.7500	75.3700
 0.7510	75.3300
 0.7520	75.5400
 0.7530	75.4500
 0.7540	75.3700
 0.7550	75.3600
 0.7560	75.4200
 0.7570	75.4800
 0.7580	75.5300
 0.7590	75.2900
 0.7600	75.3700
 0.7610	75.3900
 0.7620	75.5200
 0.7630	75.5500
 0.7640	75.4300
 0.7650	75.6300
 0.7660	75.5300
 0.7670	75.4500
 0.7680	75.5000
 0.7690	75.5100
 0.7700	75.6700
 0.7710	75.6900
 0.7720	75.5900
 0.7730	75.5500
 0.7740	75.5300
 0.7750	75.7500
 0.7760	75.5400
 0.7770	75.5500
 0.7780	75.5800
 0.7790	75.7000
 0.7800	75.6800
 0.7810	75.5600
 0.7820	75.5500
 0.7830	75.8500
 0.7840	75.9300
 0.7850	75.7500
 0.7860	75.7800
 0.7870	75.8500
 0.7880	75.9000
 0.7890	75.9000
 0.7900	75.8300
 0.7910	75.9200
 0.7920	75.8700
 0.7930	75.9900
 0.7940	75.8600
 0.7950	75.9900
 0.7960	76.1400
 0.7970	76.0600
 0.7980	75.9500
 0.7990	75.8700
 0.8000	76.0400
 0.8040	76.1300
 0.8080	76.1500
 0.8120	76.1700
 0.8160	76.1700
 0.8200	76.3700
 0.8240	76.2600
 0.8280	76.2900
 0.8320	76.3700
 0.8360	76.3700
 0.8400	76.4900
 0.8440	76.5700
 0.8480	76.5400
 0.8520	76.5400
 0.8560	76.5400
 0.8600	76.6700
 0.8640	76.6500
 0.8680	76.7500
 0.8720	76.7500
 0.8760	76.6700
 0.8800	76.6200
 0.8840	76.7000
 0.8880	76.6700
 0.8920	76.7300
 0.8960	76.7100
 0.9000	76.7900
 0.9040	76.7700
 0.9080	76.8600
 0.9120	76.8200
 0.9160	76.8400
 0.9200	76.8500
 0.9240	76.9400
 0.9280	76.9300
 0.9320	77.0200
 0.9360	76.9500
 0.9400	77.0100
 0.9440	77.0200
 0.9480	76.9900
 0.9520	77.0700
 0.9560	77.0700
 0.9600	77.0600
 0.9640	77.1500
 0.9680	77.1100
 0.9720	77.0000
 0.9760	77.1200
 0.9800	77.0900
 0.9840	77.1700
 0.9880	77.1500
 0.9920	77.1200
 0.9960	77.1500
 1.0000	77.2000
 1.0040	77.1900
 1.0080	77.1700
 1.0120	77.1300
 1.0160	77.1800
 1.0200	77.1000
 1.0240	77.1800
 1.0280	77.2200
 1.0320	77.2900
 1.0360	77.3200
 1.0400	77.3700
 1.0440	77.2900
 1.0480	77.2900
 1.0520	77.3200
 1.0560	77.3300
 1.0600	77.4000
 1.0640	77.4100
 1.0680	77.3300
 1.0720	77.4000
 1.0760	77.3300
 1.0800	77.3600
 1.0840	77.3200
 1.0880	77.3900
 1.0920	77.3600
 1.0960	77.3600
 1.1000	77.3900
 1.1040	77.3300
 1.1080	77.4200
 1.1120	77.4600
 1.1160	77.3800
 1.1200	77.4100
 1.1240	77.5500
 1.1280	77.5600
 1.1320	77.4100
 1.1360	77.4000
 1.1400	77.4400
 1.1440	77.3900
 1.1480	77.4500
 1.1520	77.3700
 1.1560	77.4300
 1.1600	77.3300
 1.1640	77.3800
 1.1680	77.4000
 1.1720	77.3400
 1.1760	77.3500
 1.1800	77.3800
 1.1840	77.3400
 1.1880	77.4300
 1.1920	77.3600
 1.1960	77.4000
 1.2000	77.4400
 1.2040	77.3500
 1.2080	77.3200
 1.2120	77.3100
 1.2160	77.3100
 1.2200	77.2600
 1.2240	77.3200
 1.2280	77.2600
 1.2320	77.2800
 1.2360	77.3200
 1.2400	77.2600
 1.2440	77.3400
 1.2480	77.2700
 1.2520	77.2800
 1.2560	77.3100
 1.2600	77.2400
 1.2640	77.3500
 1.2680	77.2800
 1.2720	77.3400
 1.2760	77.3600
 1.2800	77.3300
 1.2840	77.4200
 1.2880	77.4500
 1.2920	77.3900
 1.2960	77.3800
 1.3000	77.4100
 1.3040	77.4200
 1.3080	77.2600
 1.3120	77.3200
 1.3160	77.3400
 1.3200	77.2500
 1.3240	77.3100
 1.3280	77.1700
 1.3320	77.2200
 1.3360	77.1800
 1.3400	77.1500
 1.3440	77.2200
 1.3480	77.2000
 1.3520	77.2400
 1.3560	77.2300
 1.3600	77.2200
 1.3640	77.1800
 1.3680	77.2100
 1.3720	77.2000
 1.3760	77.2400
 1.3800	77.1700
 1.3840	77.2000
 1.3880	77.2500
 1.3920	77.2300
 1.3960	77.2000
 1.4000	77.2200
 1.4040	77.2500
 1.4080	77.3500
 1.4120	77.2800
 1.4160	77.3100
 1.4200	77.3300
 1.4240	77.2900
 1.4280	77.3200
 1.4320	77.3000
 1.4360	77.3100
 1.4400	77.3700
 1.4440	77.4600
 1.4480	77.3000
 1.4520	77.3000
 1.4560	77.2000
 1.4600	77.2800
 1.4640	77.2000
 1.4680	77.3000
 1.4720	77.2700
 1.4760	77.2600
 1.4800	77.3100
 1.4840	77.2900
 1.4880	77.2900
 1.4920	77.2900
 1.4960	77.3600
 1.5000	77.3900
 1.5040	77.2800
 1.5080	77.2600
 1.5120	77.3000
 1.5160	77.3600
 1.5200	77.3400
 1.5240	77.2900
 1.5280	77.3400
 1.5320	77.2600
 1.5360	77.3300
 1.5400	77.3200
 1.5440	77.2900
 1.5480	77.3500
 1.5520	77.3600
 1.5560	77.3400
 1.5600	77.3400
 1.5640	77.3000
 1.5680	77.2800
 1.5720	77.3200
 1.5760	77.3100
 1.5800	77.3300
 1.5840	77.2700
 1.5880	77.3300
 1.5920	77.2600
 1.5960	77.3000
 1.6000	77.3500
 1.6040	77.3800
 1.6080	77.3800
 1.6120	77.4000
 1.6160	77.3300
 1.6200	77.3200
 1.6240	77.2900
 1.6280	77.3100
 1.6320	77.3500
 1.6360	77.1900
 1.6400	77.4100
 1.6440	77.3300
 1.6480	77.3800
 1.6520	77.3700
 1.6560	77.3400
 1.6600	77.4000
 1.6640	77.4200
 1.6680	77.4600
 1.6720	77.4300
 1.6760	77.4600
 1.6800	77.4800
 1.6840	77.4000
 1.6880	77.4300
 1.6920	77.4500
 1.6960	77.4600
 1.7000	77.4100
 1.7040	77.5100
 1.7080	77.4200
 1.7120	77.4900
 1.7160	77.3800
 1.7200	77.4300
 1.7240	77.5000
 1.7280	77.4100
 1.7320	77.4700
 1.7360	77.4400
 1.7400	77.3200
 1.7440	77.4500
 1.7480	77.3600
 1.7520	77.3100
 1.7560	77.3100
 1.7600	77.3900
 1.7640	77.3700
 1.7680	77.3700
 1.7720	77.4300
 1.7760	77.4200
 1.7800	77.4200
 1.7840	77.4000
 1.7880	77.3500
 1.7920	77.3200
 1.7960	77.4100
 1.8000	77.3500
 1.8040	77.3900
 1.8080	77.4000
 1.8120	77.4300
 1.8160	77.4200
 1.8200	77.4100
 1.8240	77.4500
 1.8280	77.3800
 1.8320	77.4200
 1.8360	77.3900
 1.8400	77.4000
 1.8440	77.4100
 1.8480	77.3300
 1.8520	77.3400
 1.8560	77.3600
 1.8600	77.3900
 1.8640	77.4100
 1.8680	77.3900
 1.8720	77.4000
 1.8760	77.3500
 1.8800	77.3300
 1.8840	77.3600
 1.8880	77.3600
 1.8920	77.3400
 1.8960	77.3200
 1.9000	77.3000
 1.9040	77.3300
 1.9080	77.3000
 1.9120	77.2800
 1.9160	77.2700
 1.9200	77.2800
 1.9240	77.3300
 1.9280	77.3100
 1.9320	77.3200
 1.9360	77.2400
 1.9400	77.2800
 1.9440	77.2900
 1.9480	77.3900
 1.9520	77.2400
 1.9560	77.4400
 1.9600	77.3400
 1.9640	77.3200
 1.9680	77.3500
 1.9720	77.3800
 1.9760	77.3500
 1.9800	77.4100
 1.9840	77.5100
 1.9880	77.5500
 1.9920	77.6400
 1.9960	77.6500
 2.0000	77.6200
 2.0040	77.6800
 2.0080	77.5900
 2.0120	77.7400
 2.0160	77.7100
 2.0200	77.7400
 2.0240	77.8500
 2.0280	77.8300
 2.0320	77.7400
 2.0360	77.8200
 2.0400	77.8500
 2.0440	77.8300
 2.0480	77.8700
 2.0520	77.8700
 2.0560	77.9100
 2.0600	77.9200
 2.0640	77.8400
 2.0680	77.9600
 2.0720	77.9500
 2.0760	77.9500
 2.0800	78.0300
 2.0840	78.0200
 2.0880	78.0300
 2.0920	78.0900
 2.0960	78.0500
 2.1000	78.1800
 2.1040	78.1700
 2.1080	78.2900
 2.1120	78.2100
 2.1160	78.3400
 2.1200	78.3700
 2.1240	78.3500
 2.1280	78.3600
 2.1320	78.2000
 2.1360	78.2400
 2.1400	78.1800
 2.1440	78.1400
 2.1480	78.0500
 2.1520	78.0300
 2.1560	77.9800
 2.1600	77.8700
 2.1640	77.8300
 2.1680	77.7700
 2.1720	77.8300
 2.1760	77.8500
 2.1800	77.8000
 2.1840	77.7100
 2.1880	77.7500
 2.1920	77.6700
 2.1960	77.6600
 2.2000	77.6800
 2.2040	77.6300
 2.2080	77.6500
 2.2120	77.7700
 2.2160	77.7600
 2.2200	77.8000
 2.2240	77.6700
 2.2280	77.7500
 2.2320	77.6800
 2.2360	77.7400
 2.2400	77.7300
 2.2440	77.6900
 2.2480	77.7300
 2.2520	77.7600
 2.2560	77.8300
 2.2600	77.8500
 2.2640	77.8200
 2.2680	77.8700
 2.2720	77.8600
 2.2760	77.8800
 2.2800	77.9000
 2.2840	77.8600
 2.2880	77.8900
 2.2920	77.9100
 2.2960	77.8900
 2.3000	77.9000
 2.3040	77.8200
 2.3080	77.9400
 2.3120	78.1000
 2.3160	78.1700
 2.3200	78.0900
 2.3240	78.1400
 2.3280	78.2500
 2.3320	78.2000
 2.3360	78.2700
 2.3400	78.2400
 2.3440	78.2600
 2.3480	78.2600
 2.3520	78.2400
 2.3560	78.2900
 2.3600	78.3000
 2.3640	78.2800
 2.3680	78.2800
 2.3720	78.2800
 2.3760	78.3800
 2.3800	78.2900
 2.3840	78.3300
 2.3880	78.2600
 2.3920	78.2400
 2.3960	78.1700
 2.4000	78.2700
 2.4040	78.2400
 2.4080	78.2200
 2.4120	78.2600
 2.4160	78.2700
 2.4200	78.2900
 2.4240	78.2600
 2.4280	78.3300
 2.4320	78.3000
 2.4360	78.2900
 2.4400	78.2900
 2.4440	78.2700
 2.4480	78.2700
 2.4520	78.1900
 2.4560	78.1900
 2.4600	78.2400
 2.4640	78.2600
 2.4680	78.2700
 2.4720	78.2400
 2.4760	78.3100
 2.4800	78.5200
 2.4840	78.6400
 2.4880	78.7700
 2.4920	78.9200
 2.4960	79.0500
 2.5000	79.1900
