Name: Realgar AsS
Type: Mineral
Class: Sulfide
Subclass: None
Particle Size: Coarse
Sample No.: S-3A
Owner: JPL
Wavelength Range: VSWIR
Origin: Unknown.
Collection Date: N/A
Description: Particle size was 125-500um. Collected by:  JPL Original ASTER Spectral Library name was jpl.perkin.mineral.sulfide.none.coarse.s03a.spectrum.txt
Measurement: Hemispherical reflectance
First Column: X
Second Column: Y
X Units: Wavelength (micrometers)
Y Units:Reflectance (percent)
First X Value:  2.5000
Last X Value:  0.4000
Number of X Values: 2101
Additional Information: mineral.sulfide.none.coarse.vswir.s-3a.jpl.perkin.ancillary.txt

 2.5000	72.2922
 2.4990	72.1456
 2.4980	72.1695
 2.4970	72.6378
 2.4960	72.2972
 2.4950	72.4285
 2.4940	72.3926
 2.4930	72.5866
 2.4920	72.5291
 2.4910	72.6021
 2.4900	72.6105
 2.4890	72.6830
 2.4880	72.6853
 2.4870	72.6985
 2.4860	72.8401
 2.4850	72.7686
 2.4840	72.9025
 2.4830	72.9834
 2.4820	72.8363
 2.4810	73.0231
 2.4800	73.0605
 2.4790	72.9280
 2.4780	73.1316
 2.4770	73.2300
 2.4760	73.3121
 2.4750	73.2972
 2.4740	73.2836
 2.4730	73.3930
 2.4720	73.4287
 2.4710	73.4729
 2.4700	73.5035
 2.4690	73.5364
 2.4680	73.6218
 2.4670	73.6740
 2.4660	73.6133
 2.4650	73.7446
 2.4640	73.8031
 2.4630	73.8136
 2.4620	73.8263
 2.4610	73.8398
 2.4600	73.9799
 2.4590	74.0068
 2.4580	74.1237
 2.4570	74.2564
 2.4560	74.1897
 2.4550	74.2934
 2.4540	74.3504
 2.4530	74.3048
 2.4520	74.4346
 2.4510	74.4594
 2.4500	74.4995
 2.4490	74.3758
 2.4480	74.3934
 2.4470	74.4549
 2.4460	74.6074
 2.4450	74.7281
 2.4440	74.7029
 2.4430	74.6584
 2.4420	74.6768
 2.4410	74.8519
 2.4400	74.7845
 2.4390	74.9422
 2.4380	74.9306
 2.4370	74.9247
 2.4360	74.8739
 2.4350	74.9365
 2.4340	74.9652
 2.4330	75.1043
 2.4320	75.1396
 2.4310	75.2155
 2.4300	75.2888
 2.4290	75.3861
 2.4280	75.4199
 2.4270	75.3558
 2.4260	75.4364
 2.4250	75.5621
 2.4240	75.5382
 2.4230	75.5829
 2.4220	75.5913
 2.4210	75.6691
 2.4200	75.7588
 2.4190	75.7001
 2.4180	75.6719
 2.4170	75.7121
 2.4160	75.8125
 2.4150	75.8819
 2.4140	75.9170
 2.4130	75.9435
 2.4120	75.9814
 2.4110	76.0146
 2.4100	76.0057
 2.4090	76.0962
 2.4080	76.2506
 2.4070	76.2316
 2.4060	76.1866
 2.4050	76.2922
 2.4040	76.2565
 2.4030	76.2770
 2.4020	76.2128
 2.4010	76.3223
 2.4000	76.3785
 2.3990	76.3731
 2.3980	76.4570
 2.3970	76.5476
 2.3960	76.5505
 2.3950	76.6273
 2.3940	76.6822
 2.3930	76.6906
 2.3920	76.8170
 2.3910	76.8742
 2.3900	76.8996
 2.3890	76.9638
 2.3880	76.8903
 2.3870	76.9098
 2.3860	76.9326
 2.3850	77.0132
 2.3840	77.0643
 2.3830	77.1617
 2.3820	77.2408
 2.3810	77.2510
 2.3800	77.2208
 2.3790	77.2455
 2.3780	77.2801
 2.3770	77.2986
 2.3760	77.3698
 2.3750	77.4727
 2.3740	77.5144
 2.3730	77.5060
 2.3720	77.5580
 2.3710	77.5856
 2.3700	77.6708
 2.3690	77.7434
 2.3680	77.6884
 2.3670	77.6720
 2.3660	77.7283
 2.3650	77.7705
 2.3640	77.8003
 2.3630	77.8810
 2.3620	77.9361
 2.3610	77.9449
 2.3600	77.9478
 2.3590	77.9900
 2.3580	78.0365
 2.3570	78.0447
 2.3560	78.0653
 2.3550	78.0656
 2.3540	78.0553
 2.3530	78.0967
 2.3520	78.1551
 2.3510	78.1654
 2.3500	78.2066
 2.3490	78.2747
 2.3480	78.2981
 2.3470	78.3001
 2.3460	78.3166
 2.3450	78.3501
 2.3440	78.4107
 2.3430	78.4125
 2.3420	78.4534
 2.3410	78.4467
 2.3400	78.4647
 2.3390	78.5166
 2.3380	78.4792
 2.3370	78.4653
 2.3360	78.5360
 2.3350	78.5673
 2.3340	78.5630
 2.3330	78.5116
 2.3320	78.4824
 2.3310	78.4987
 2.3300	78.5457
 2.3290	78.5696
 2.3280	78.5836
 2.3270	78.5927
 2.3260	78.6101
 2.3250	78.6017
 2.3240	78.6146
 2.3230	78.6249
 2.3220	78.6446
 2.3210	78.6270
 2.3200	78.6486
 2.3190	78.6758
 2.3180	78.7283
 2.3170	78.6886
 2.3160	78.7153
 2.3150	78.7192
 2.3140	78.7121
 2.3130	78.7224
 2.3120	78.7457
 2.3110	78.7460
 2.3100	78.7770
 2.3090	78.7063
 2.3080	78.7357
 2.3070	78.7505
 2.3060	78.7847
 2.3050	78.7766
 2.3040	78.8535
 2.3030	78.8684
 2.3020	78.8334
 2.3010	78.8176
 2.3000	78.8267
 2.2990	78.8953
 2.2980	78.9108
 2.2970	78.8912
 2.2960	78.9483
 2.2950	78.9380
 2.2940	78.9073
 2.2930	78.8629
 2.2920	78.9149
 2.2910	78.9498
 2.2900	78.9194
 2.2890	78.8854
 2.2880	78.9227
 2.2870	78.9148
 2.2860	78.9157
 2.2850	79.0237
 2.2840	79.0245
 2.2830	78.9755
 2.2820	79.0095
 2.2810	79.0040
 2.2800	78.9654
 2.2790	78.9842
 2.2780	78.9470
 2.2770	78.9174
 2.2760	78.9203
 2.2750	78.9553
 2.2740	79.0040
 2.2730	78.9729
 2.2720	78.9483
 2.2710	78.9123
 2.2700	78.9885
 2.2690	78.9957
 2.2680	79.0306
 2.2670	78.9526
 2.2660	79.0639
 2.2650	78.9691
 2.2640	79.0492
 2.2630	79.0018
 2.2620	79.0106
 2.2610	78.9955
 2.2600	78.9855
 2.2590	78.9471
 2.2580	79.0458
 2.2570	79.0492
 2.2560	79.1045
 2.2550	79.1121
 2.2540	79.0678
 2.2530	79.0846
 2.2520	79.1151
 2.2510	79.0827
 2.2500	79.1592
 2.2490	79.0794
 2.2480	79.0778
 2.2470	79.1334
 2.2460	79.1290
 2.2450	79.1615
 2.2440	79.0422
 2.2430	79.0849
 2.2420	79.1147
 2.2410	79.1218
 2.2400	79.1209
 2.2390	79.1705
 2.2380	79.1637
 2.2370	79.1236
 2.2360	79.2136
 2.2350	79.1677
 2.2340	79.2309
 2.2330	79.2039
 2.2320	79.1510
 2.2310	79.2421
 2.2300	79.2309
 2.2290	79.3334
 2.2280	79.2129
 2.2270	79.2814
 2.2260	79.2365
 2.2250	79.2737
 2.2240	79.3158
 2.2230	79.3293
 2.2220	79.3309
 2.2210	79.3037
 2.2200	79.3162
 2.2190	79.2789
 2.2180	79.3687
 2.2170	79.3306
 2.2160	79.4333
 2.2150	79.4435
 2.2140	79.4282
 2.2130	79.4162
 2.2120	79.4907
 2.2110	79.3958
 2.2100	79.5379
 2.2090	79.4964
 2.2080	79.5452
 2.2070	79.5256
 2.2060	79.5892
 2.2050	79.5518
 2.2040	79.6339
 2.2030	79.6317
 2.2020	79.7485
 2.2010	79.6837
 2.2000	79.7695
 2.1990	79.7245
 2.1980	79.6954
 2.1970	79.7030
 2.1960	79.7774
 2.1950	79.7142
 2.1940	79.7525
 2.1930	79.7523
 2.1920	79.7654
 2.1910	79.7913
 2.1900	79.6953
 2.1890	79.7098
 2.1880	79.7256
 2.1870	79.7633
 2.1860	79.8837
 2.1850	79.7866
 2.1840	79.8870
 2.1830	79.8039
 2.1820	79.8981
 2.1810	79.8860
 2.1800	79.8934
 2.1790	79.8641
 2.1780	79.9153
 2.1770	79.8967
 2.1760	79.9935
 2.1750	79.9147
 2.1740	79.9870
 2.1730	79.9955
 2.1720	80.0269
 2.1710	80.0210
 2.1700	80.0372
 2.1690	80.0257
 2.1680	80.1087
 2.1670	80.0997
 2.1660	80.1277
 2.1650	80.0680
 2.1640	80.1007
 2.1630	80.1659
 2.1620	80.2332
 2.1610	80.2412
 2.1600	80.1916
 2.1590	80.1594
 2.1580	80.2774
 2.1570	80.2903
 2.1560	80.2363
 2.1550	80.2385
 2.1540	80.2609
 2.1530	80.3016
 2.1520	80.2740
 2.1510	80.1916
 2.1500	80.2790
 2.1490	80.2891
 2.1480	80.2424
 2.1470	80.2399
 2.1460	80.2213
 2.1450	80.2805
 2.1440	80.2156
 2.1430	80.2090
 2.1420	80.2187
 2.1410	80.1443
 2.1400	80.1406
 2.1390	80.1595
 2.1380	80.1316
 2.1370	80.0466
 2.1360	80.0282
 2.1350	79.9790
 2.1340	80.0375
 2.1330	79.9863
 2.1320	79.9870
 2.1310	79.9284
 2.1300	79.8906
 2.1290	79.8396
 2.1280	79.7341
 2.1270	79.7646
 2.1260	79.7231
 2.1250	79.6472
 2.1240	79.5800
 2.1230	79.4918
 2.1220	79.5308
 2.1210	79.3637
 2.1200	79.3119
 2.1190	79.2938
 2.1180	79.3137
 2.1170	79.2110
 2.1160	79.1240
 2.1150	79.0036
 2.1140	78.9716
 2.1130	78.9495
 2.1120	78.9147
 2.1110	78.8017
 2.1100	78.6654
 2.1090	78.6333
 2.1080	78.6377
 2.1070	78.6089
 2.1060	78.5618
 2.1050	78.4491
 2.1040	78.3770
 2.1030	78.2971
 2.1020	78.2491
 2.1010	78.2382
 2.1000	78.2116
 2.0990	78.1775
 2.0980	78.1147
 2.0970	78.1203
 2.0960	78.1439
 2.0950	78.1557
 2.0940	78.1160
 2.0930	78.1216
 2.0920	78.0964
 2.0910	78.0446
 2.0900	78.0349
 2.0890	78.0533
 2.0880	78.0327
 2.0870	78.0460
 2.0860	78.0531
 2.0850	78.0377
 2.0840	78.0516
 2.0830	78.0101
 2.0820	77.9292
 2.0810	77.9052
 2.0800	77.9665
 2.0790	77.9473
 2.0780	77.8805
 2.0770	77.8967
 2.0760	77.8718
 2.0750	77.8643
 2.0740	77.8677
 2.0730	77.8658
 2.0720	77.8761
 2.0710	77.8422
 2.0700	77.8015
 2.0690	77.7966
 2.0680	77.8078
 2.0670	77.7802
 2.0660	77.7438
 2.0650	77.7107
 2.0640	77.6797
 2.0630	77.6695
 2.0620	77.6600
 2.0610	77.6313
 2.0600	77.6085
 2.0590	77.5986
 2.0580	77.6311
 2.0570	77.6227
 2.0560	77.5578
 2.0550	77.5321
 2.0540	77.5230
 2.0530	77.5060
 2.0520	77.4499
 2.0510	77.4280
 2.0500	77.4564
 2.0490	77.4209
 2.0480	77.4233
 2.0470	77.4148
 2.0460	77.3443
 2.0450	77.3378
 2.0440	77.3047
 2.0430	77.2767
 2.0420	77.2149
 2.0410	77.1972
 2.0400	77.2258
 2.0390	77.1959
 2.0380	77.1686
 2.0370	77.1344
 2.0360	77.1035
 2.0350	77.0790
 2.0340	77.0346
 2.0330	77.0272
 2.0320	76.9476
 2.0310	76.9247
 2.0300	76.9133
 2.0290	76.8503
 2.0280	76.7795
 2.0270	76.7501
 2.0260	76.7309
 2.0250	76.6418
 2.0240	76.6491
 2.0230	76.6644
 2.0220	76.5761
 2.0210	76.5208
 2.0200	76.4780
 2.0190	76.3996
 2.0180	76.3832
 2.0170	76.3686
 2.0160	76.2747
 2.0150	76.2383
 2.0140	76.2342
 2.0130	76.2816
 2.0120	76.2350
 2.0110	76.1470
 2.0100	75.9982
 2.0090	76.0005
 2.0080	75.9831
 2.0070	75.9512
 2.0060	75.9215
 2.0050	75.8823
 2.0040	75.7042
 2.0030	75.7196
 2.0020	75.6597
 2.0010	75.5846
 2.0000	75.6506
 1.9990	75.5464
 1.9980	75.5402
 1.9970	75.4548
 1.9960	75.3409
 1.9950	75.2519
 1.9940	75.1934
 1.9930	75.1206
 1.9920	75.0389
 1.9910	75.0878
 1.9900	74.9559
 1.9890	74.9374
 1.9880	74.8729
 1.9870	74.8532
 1.9860	74.7156
 1.9850	74.7083
 1.9840	74.6395
 1.9830	74.5269
 1.9820	74.4524
 1.9810	74.3817
 1.9800	74.2698
 1.9790	74.2754
 1.9780	74.2108
 1.9770	74.1533
 1.9760	74.0109
 1.9750	74.0091
 1.9740	73.8809
 1.9730	73.8120
 1.9720	73.8051
 1.9710	73.7851
 1.9700	73.7618
 1.9690	73.6532
 1.9680	73.5965
 1.9670	73.5443
 1.9660	73.4488
 1.9650	73.4377
 1.9640	73.3413
 1.9630	73.2803
 1.9620	73.2667
 1.9610	73.1699
 1.9600	73.1150
 1.9590	73.0840
 1.9580	72.8946
 1.9570	72.9793
 1.9560	72.9431
 1.9550	72.8052
 1.9540	72.7755
 1.9530	72.7607
 1.9520	72.7077
 1.9510	72.6885
 1.9500	72.5161
 1.9490	72.5206
 1.9480	72.5852
 1.9470	72.5776
 1.9460	72.4146
 1.9450	72.4193
 1.9440	72.4398
 1.9430	72.3276
 1.9420	72.3537
 1.9410	72.4200
 1.9400	72.3458
 1.9390	72.3583
 1.9380	72.3706
 1.9370	72.4035
 1.9360	72.1930
 1.9350	72.3211
 1.9340	72.3287
 1.9330	72.3594
 1.9320	72.3735
 1.9310	72.3350
 1.9300	72.3707
 1.9290	72.5185
 1.9280	72.4937
 1.9270	72.5866
 1.9260	72.4873
 1.9250	72.6657
 1.9240	72.5629
 1.9230	72.7650
 1.9220	72.7575
 1.9210	72.8227
 1.9200	72.8677
 1.9190	72.9884
 1.9180	73.1003
 1.9170	73.0818
 1.9160	73.1750
 1.9150	73.3432
 1.9140	73.4002
 1.9130	73.5486
 1.9120	73.5661
 1.9110	73.7377
 1.9100	73.8406
 1.9090	73.9492
 1.9080	74.0532
 1.9070	74.2212
 1.9060	74.2991
 1.9050	74.5133
 1.9040	74.6322
 1.9030	74.8263
 1.9020	75.0508
 1.9010	75.2002
 1.9000	75.3163
 1.8990	75.5834
 1.8980	75.6916
 1.8970	75.9307
 1.8960	76.1278
 1.8950	76.2799
 1.8940	76.5393
 1.8930	76.6685
 1.8920	76.8775
 1.8910	77.1386
 1.8900	77.3261
 1.8890	77.5532
 1.8880	77.6369
 1.8870	77.8777
 1.8860	78.0602
 1.8850	78.3041
 1.8840	78.4326
 1.8830	78.5773
 1.8820	78.6930
 1.8810	78.8090
 1.8800	78.9229
 1.8790	79.1211
 1.8780	79.1907
 1.8770	79.3071
 1.8760	79.4341
 1.8750	79.5680
 1.8740	79.6245
 1.8730	79.7381
 1.8720	79.7905
 1.8710	79.8737
 1.8700	79.9351
 1.8690	80.0399
 1.8680	80.0970
 1.8670	80.1625
 1.8660	80.1329
 1.8650	80.1784
 1.8640	80.1851
 1.8630	80.2828
 1.8620	80.3249
 1.8610	80.3278
 1.8600	80.3821
 1.8590	80.4040
 1.8580	80.4199
 1.8570	80.4329
 1.8560	80.4479
 1.8550	80.5057
 1.8540	80.4357
 1.8530	80.4986
 1.8520	80.4098
 1.8510	80.4641
 1.8500	80.5248
 1.8490	80.5449
 1.8480	80.4844
 1.8470	80.5252
 1.8460	80.5614
 1.8450	80.5291
 1.8440	80.5291
 1.8430	80.5760
 1.8420	80.5144
 1.8410	80.5273
 1.8400	80.5301
 1.8390	80.5439
 1.8380	80.5598
 1.8370	80.6197
 1.8360	80.5231
 1.8350	80.5470
 1.8340	80.5466
 1.8330	80.5200
 1.8320	80.5637
 1.8310	80.5729
 1.8300	80.5553
 1.8290	80.5486
 1.8280	80.5467
 1.8270	80.5098
 1.8260	80.5472
 1.8250	80.5286
 1.8240	80.5132
 1.8230	80.4975
 1.8220	80.4619
 1.8210	80.5280
 1.8200	80.5126
 1.8190	80.5053
 1.8180	80.4687
 1.8170	80.4921
 1.8160	80.4815
 1.8150	80.4747
 1.8140	80.5041
 1.8130	80.5380
 1.8120	80.5469
 1.8110	80.4951
 1.8100	80.4799
 1.8090	80.4861
 1.8080	80.4592
 1.8070	80.4521
 1.8060	80.4661
 1.8050	80.4660
 1.8040	80.4705
 1.8030	80.4173
 1.8020	80.4028
 1.8010	80.4450
 1.8000	80.4723
 1.7990	80.4793
 1.7980	80.4065
 1.7970	80.4083
 1.7960	80.4443
 1.7950	80.3401
 1.7940	80.3274
 1.7930	80.4218
 1.7920	80.3786
 1.7910	80.2936
 1.7900	80.2923
 1.7890	80.3330
 1.7880	80.3600
 1.7870	80.3412
 1.7860	80.3139
 1.7850	80.2985
 1.7840	80.2871
 1.7830	80.2612
 1.7820	80.2826
 1.7810	80.3527
 1.7800	80.3139
 1.7790	80.2763
 1.7780	80.3140
 1.7770	80.3502
 1.7760	80.3196
 1.7750	80.2911
 1.7740	80.3008
 1.7730	80.2868
 1.7720	80.2651
 1.7710	80.2448
 1.7700	80.2410
 1.7690	80.2459
 1.7680	80.2330
 1.7670	80.2322
 1.7660	80.2829
 1.7650	80.2831
 1.7640	80.2865
 1.7630	80.2363
 1.7620	80.2307
 1.7610	80.2646
 1.7600	80.2520
 1.7590	80.2457
 1.7580	80.2135
 1.7570	80.2130
 1.7560	80.2333
 1.7550	80.2498
 1.7540	80.2204
 1.7530	80.1919
 1.7520	80.1402
 1.7510	80.1774
 1.7500	80.2232
 1.7490	80.2141
 1.7480	80.2443
 1.7470	80.2871
 1.7460	80.2631
 1.7450	80.2976
 1.7440	80.2627
 1.7430	80.2488
 1.7420	80.2963
 1.7410	80.2570
 1.7400	80.2318
 1.7390	80.2816
 1.7380	80.2534
 1.7370	80.2051
 1.7360	80.2009
 1.7350	80.2185
 1.7340	80.2072
 1.7330	80.2436
 1.7320	80.1998
 1.7310	80.1857
 1.7300	80.2114
 1.7290	80.2268
 1.7280	80.2161
 1.7270	80.1999
 1.7260	80.1893
 1.7250	80.1642
 1.7240	80.1946
 1.7230	80.2002
 1.7220	80.1169
 1.7210	80.1524
 1.7200	80.2308
 1.7190	80.1865
 1.7180	80.2014
 1.7170	80.1598
 1.7160	80.1973
 1.7150	80.1371
 1.7140	80.1482
 1.7130	80.1316
 1.7120	80.0677
 1.7110	80.1187
 1.7100	80.1360
 1.7090	80.0812
 1.7080	80.1300
 1.7070	80.0590
 1.7060	80.0801
 1.7050	80.0816
 1.7040	80.0331
 1.7030	79.9868
 1.7020	80.0149
 1.7010	79.9384
 1.7000	79.9396
 1.6990	79.9528
 1.6980	79.9416
 1.6970	79.9151
 1.6960	79.9338
 1.6950	79.8907
 1.6940	79.8863
 1.6930	79.8814
 1.6920	79.8398
 1.6910	79.8598
 1.6900	79.8632
 1.6890	79.8214
 1.6880	79.8083
 1.6870	79.8362
 1.6860	79.8042
 1.6850	79.7418
 1.6840	79.7619
 1.6830	79.8071
 1.6820	79.7628
 1.6810	79.7544
 1.6800	79.7595
 1.6790	79.6928
 1.6780	79.7014
 1.6770	79.7083
 1.6760	79.6106
 1.6750	79.6571
 1.6740	79.6587
 1.6730	79.5533
 1.6720	79.7517
 1.6710	79.6031
 1.6700	79.6290
 1.6690	79.6160
 1.6680	79.5081
 1.6670	79.5980
 1.6660	79.5110
 1.6650	79.5266
 1.6640	79.6157
 1.6630	79.5068
 1.6620	79.5412
 1.6610	79.4022
 1.6600	79.4476
 1.6590	79.4314
 1.6580	79.4260
 1.6570	79.4250
 1.6560	79.3720
 1.6550	79.3239
 1.6540	79.3232
 1.6530	79.3236
 1.6520	79.4018
 1.6510	79.2820
 1.6500	79.3187
 1.6490	79.3190
 1.6480	79.2544
 1.6470	79.2904
 1.6460	79.2842
 1.6450	79.1911
 1.6440	79.2403
 1.6430	79.1235
 1.6420	79.2676
 1.6410	79.0825
 1.6400	79.1562
 1.6390	79.1473
 1.6380	79.1767
 1.6370	79.1432
 1.6360	79.1142
 1.6350	79.0922
 1.6340	79.0180
 1.6330	78.9837
 1.6320	79.0228
 1.6310	79.0602
 1.6300	79.0419
 1.6290	78.9830
 1.6280	78.9651
 1.6270	78.9561
 1.6260	79.0050
 1.6250	78.8975
 1.6240	78.9460
 1.6230	78.8721
 1.6220	78.8438
 1.6210	78.8785
 1.6200	78.8696
 1.6190	78.8589
 1.6180	78.8707
 1.6170	78.7765
 1.6160	78.7850
 1.6150	78.7399
 1.6140	78.7796
 1.6130	78.7772
 1.6120	78.6978
 1.6110	78.7242
 1.6100	78.7063
 1.6090	78.6763
 1.6080	78.6342
 1.6070	78.5968
 1.6060	78.5336
 1.6050	78.6097
 1.6040	78.5748
 1.6030	78.4582
 1.6020	78.5033
 1.6010	78.4796
 1.6000	78.5327
 1.5990	78.5480
 1.5980	78.5426
 1.5970	78.4840
 1.5960	78.4533
 1.5950	78.3634
 1.5940	78.4043
 1.5930	78.3457
 1.5920	78.2908
 1.5910	78.3378
 1.5900	78.3327
 1.5890	78.2396
 1.5880	78.1705
 1.5870	78.1779
 1.5860	78.1983
 1.5850	78.1495
 1.5840	78.1191
 1.5830	78.1539
 1.5820	78.1295
 1.5810	78.0445
 1.5800	78.0449
 1.5790	77.9859
 1.5780	78.0755
 1.5770	78.0026
 1.5760	77.9682
 1.5750	77.9637
 1.5740	77.9195
 1.5730	77.9049
 1.5720	77.8986
 1.5710	77.8817
 1.5700	77.8120
 1.5690	77.7525
 1.5680	77.7897
 1.5670	77.7538
 1.5660	77.7038
 1.5650	77.6944
 1.5640	77.6617
 1.5630	77.6592
 1.5620	77.6259
 1.5610	77.5500
 1.5600	77.5737
 1.5590	77.5525
 1.5580	77.4494
 1.5570	77.4653
 1.5560	77.4572
 1.5550	77.4702
 1.5540	77.4442
 1.5530	77.4018
 1.5520	77.3161
 1.5510	77.3104
 1.5500	77.3179
 1.5490	77.3011
 1.5480	77.2643
 1.5470	77.2222
 1.5460	77.2051
 1.5450	77.1293
 1.5440	77.1200
 1.5430	77.0448
 1.5420	77.1158
 1.5410	77.0999
 1.5400	77.0219
 1.5390	76.9911
 1.5380	76.9840
 1.5370	76.9524
 1.5360	76.9125
 1.5350	76.8849
 1.5340	76.8661
 1.5330	76.8064
 1.5320	76.7657
 1.5310	76.6631
 1.5300	76.6963
 1.5290	76.7202
 1.5280	76.6791
 1.5270	76.6375
 1.5260	76.5557
 1.5250	76.5530
 1.5240	76.5352
 1.5230	76.4662
 1.5220	76.4579
 1.5210	76.4140
 1.5200	76.4055
 1.5190	76.3407
 1.5180	76.2639
 1.5170	76.2621
 1.5160	76.3094
 1.5150	76.3258
 1.5140	76.2767
 1.5130	76.1621
 1.5120	76.1427
 1.5110	76.1219
 1.5100	76.0275
 1.5090	75.9930
 1.5080	75.9578
 1.5070	75.9272
 1.5060	75.8972
 1.5050	75.9262
 1.5040	75.8669
 1.5030	75.7985
 1.5020	75.7884
 1.5010	75.7809
 1.5000	75.7447
 1.4990	75.6664
 1.4980	75.6063
 1.4970	75.5760
 1.4960	75.5227
 1.4950	75.5139
 1.4940	75.4690
 1.4930	75.4105
 1.4920	75.4030
 1.4910	75.3454
 1.4900	75.2923
 1.4890	75.2845
 1.4880	75.2324
 1.4870	75.1788
 1.4860	75.1692
 1.4850	75.1047
 1.4840	75.0650
 1.4830	75.0388
 1.4820	75.0105
 1.4810	75.0244
 1.4800	74.9515
 1.4790	74.9103
 1.4780	74.8936
 1.4770	74.9045
 1.4760	74.8364
 1.4750	74.7873
 1.4740	74.7656
 1.4730	74.7439
 1.4720	74.6785
 1.4710	74.5729
 1.4700	74.5606
 1.4690	74.6203
 1.4680	74.5441
 1.4670	74.4776
 1.4660	74.4582
 1.4650	74.4857
 1.4640	74.4704
 1.4630	74.3458
 1.4620	74.3521
 1.4610	74.3705
 1.4600	74.3208
 1.4590	74.3116
 1.4580	74.2667
 1.4570	74.2002
 1.4560	74.2279
 1.4550	74.1693
 1.4540	74.1107
 1.4530	74.1121
 1.4520	74.1466
 1.4510	74.1123
 1.4500	74.0613
 1.4490	74.0878
 1.4480	74.0276
 1.4470	74.0519
 1.4460	74.0173
 1.4450	74.0250
 1.4440	73.9817
 1.4430	73.9517
 1.4420	73.9379
 1.4410	73.8974
 1.4400	73.9017
 1.4390	73.9609
 1.4380	73.9252
 1.4370	73.8569
 1.4360	73.8039
 1.4350	73.8280
 1.4340	73.8205
 1.4330	73.8504
 1.4320	73.8314
 1.4310	73.8523
 1.4300	73.8656
 1.4290	73.8702
 1.4280	73.8125
 1.4270	73.8302
 1.4260	73.8253
 1.4250	73.7865
 1.4240	73.7580
 1.4230	73.7378
 1.4220	73.7255
 1.4210	73.7114
 1.4200	73.6889
 1.4190	73.7676
 1.4180	73.7034
 1.4170	73.8444
 1.4160	73.8034
 1.4150	73.7636
 1.4140	73.7762
 1.4130	73.7254
 1.4120	73.7899
 1.4110	73.7800
 1.4100	73.7942
 1.4090	73.7943
 1.4080	73.8013
 1.4070	73.7959
 1.4060	73.8687
 1.4050	73.9471
 1.4040	73.8416
 1.4030	73.8796
 1.4020	73.8909
 1.4010	73.8759
 1.4000	73.8378
 1.3990	73.9626
 1.3980	73.9296
 1.3970	74.0038
 1.3960	74.0299
 1.3950	74.0987
 1.3940	74.0893
 1.3930	73.9992
 1.3920	74.0720
 1.3910	74.1487
 1.3900	74.0569
 1.3890	73.9946
 1.3880	74.1045
 1.3870	74.1296
 1.3860	74.0693
 1.3850	74.0427
 1.3840	74.0701
 1.3830	74.1273
 1.3820	74.0418
 1.3810	74.0740
 1.3800	73.9991
 1.3790	74.1017
 1.3780	74.0064
 1.3770	74.0764
 1.3760	73.9125
 1.3750	74.0666
 1.3740	73.9272
 1.3730	73.9381
 1.3720	73.9037
 1.3710	73.9623
 1.3700	73.8437
 1.3690	73.8870
 1.3680	73.8336
 1.3670	73.8965
 1.3660	73.7779
 1.3650	73.8807
 1.3640	73.7757
 1.3630	73.7502
 1.3620	73.8000
 1.3610	73.7782
 1.3600	73.7477
 1.3590	73.7404
 1.3580	73.6720
 1.3570	73.6931
 1.3560	73.5588
 1.3550	73.5238
 1.3540	73.5033
 1.3530	73.5173
 1.3520	73.4790
 1.3510	73.4927
 1.3500	73.4113
 1.3490	73.5320
 1.3480	73.4252
 1.3470	73.4533
 1.3460	73.3533
 1.3450	73.3708
 1.3440	73.3690
 1.3430	73.3551
 1.3420	73.3529
 1.3410	73.3035
 1.3400	73.2765
 1.3390	73.2845
 1.3380	73.2545
 1.3370	73.2065
 1.3360	73.2342
 1.3350	73.2016
 1.3340	73.1930
 1.3330	73.2281
 1.3320	73.1376
 1.3310	73.1148
 1.3300	73.1548
 1.3290	73.1212
 1.3280	73.0679
 1.3270	73.1077
 1.3260	73.1336
 1.3250	73.1210
 1.3240	72.9617
 1.3230	73.0150
 1.3220	72.9918
 1.3210	72.9478
 1.3200	72.9175
 1.3190	72.9805
 1.3180	72.9112
 1.3170	72.9349
 1.3160	72.8855
 1.3150	72.8353
 1.3140	72.7999
 1.3130	72.8554
 1.3120	72.8357
 1.3110	72.8261
 1.3100	72.7460
 1.3090	72.8160
 1.3080	72.7171
 1.3070	72.6824
 1.3060	72.6958
 1.3050	72.6812
 1.3040	72.6645
 1.3030	72.6225
 1.3020	72.6228
 1.3010	72.6619
 1.3000	72.6350
 1.2990	72.5599
 1.2980	72.5552
 1.2970	72.5355
 1.2960	72.5867
 1.2950	72.4704
 1.2940	72.4937
 1.2930	72.4969
 1.2920	72.4359
 1.2910	72.4391
 1.2900	72.3826
 1.2890	72.4011
 1.2880	72.3652
 1.2870	72.4004
 1.2860	72.3235
 1.2850	72.3563
 1.2840	72.3519
 1.2830	72.3548
 1.2820	72.2846
 1.2810	72.2833
 1.2800	72.2765
 1.2790	72.2524
 1.2780	72.2339
 1.2770	72.1814
 1.2760	72.2182
 1.2750	72.2019
 1.2740	72.1817
 1.2730	72.1764
 1.2720	72.1756
 1.2710	72.1229
 1.2700	72.0953
 1.2690	72.0473
 1.2680	72.0364
 1.2670	72.0161
 1.2660	72.0162
 1.2650	72.0299
 1.2640	72.0393
 1.2630	72.0216
 1.2620	71.9444
 1.2610	71.9517
 1.2600	72.0034
 1.2590	71.9974
 1.2580	71.9628
 1.2570	71.9717
 1.2560	71.9107
 1.2550	71.8840
 1.2540	71.8749
 1.2530	71.9056
 1.2520	71.8219
 1.2510	71.8023
 1.2500	71.7597
 1.2490	71.7780
 1.2480	71.8023
 1.2470	71.7921
 1.2460	71.7370
 1.2450	71.7281
 1.2440	71.7177
 1.2430	71.6770
 1.2420	71.6853
 1.2410	71.7122
 1.2400	71.6891
 1.2390	71.6000
 1.2380	71.5712
 1.2370	71.6246
 1.2360	71.6072
 1.2350	71.6212
 1.2340	71.6276
 1.2330	71.6328
 1.2320	71.6225
 1.2310	71.5970
 1.2300	71.5624
 1.2290	71.5489
 1.2280	71.5373
 1.2270	71.5081
 1.2260	71.4581
 1.2250	71.4395
 1.2240	71.4421
 1.2230	71.4595
 1.2220	71.4383
 1.2210	71.3698
 1.2200	71.4129
 1.2190	71.4399
 1.2180	71.3572
 1.2170	71.3440
 1.2160	71.3242
 1.2150	71.3218
 1.2140	71.3249
 1.2130	71.2835
 1.2120	71.2473
 1.2110	71.2613
 1.2100	71.2969
 1.2090	71.2651
 1.2080	71.2863
 1.2070	71.2510
 1.2060	71.2014
 1.2050	71.2326
 1.2040	71.2423
 1.2030	71.1896
 1.2020	71.1702
 1.2010	71.1460
 1.2000	71.1790
 1.1990	71.1897
 1.1980	71.1276
 1.1970	71.1085
 1.1960	71.1316
 1.1950	71.1269
 1.1940	71.0829
 1.1930	71.0866
 1.1920	71.1354
 1.1910	71.1269
 1.1900	71.1297
 1.1890	71.1043
 1.1880	71.0300
 1.1870	71.0801
 1.1860	71.0635
 1.1850	71.0195
 1.1840	71.0316
 1.1830	70.9991
 1.1820	70.9891
 1.1810	71.0112
 1.1800	71.0217
 1.1790	71.0085
 1.1780	70.9853
 1.1770	70.9733
 1.1760	70.9604
 1.1750	70.9367
 1.1740	70.9603
 1.1730	70.9557
 1.1720	70.9374
 1.1710	70.8618
 1.1700	70.8799
 1.1690	70.8659
 1.1680	70.8598
 1.1670	70.8393
 1.1660	70.8395
 1.1650	70.8386
 1.1640	70.8483
 1.1630	70.8774
 1.1620	70.8134
 1.1610	70.7724
 1.1600	70.8334
 1.1590	70.7328
 1.1580	70.8371
 1.1570	70.8299
 1.1560	70.8060
 1.1550	70.7592
 1.1540	70.7514
 1.1530	70.7565
 1.1520	70.7244
 1.1510	70.7630
 1.1500	70.7794
 1.1490	70.7417
 1.1480	70.6880
 1.1470	70.7126
 1.1460	70.6981
 1.1450	70.7255
 1.1440	70.6798
 1.1430	70.6696
 1.1420	70.6894
 1.1410	70.6519
 1.1400	70.7081
 1.1390	70.6627
 1.1380	70.6666
 1.1370	70.6217
 1.1360	70.7064
 1.1350	70.5958
 1.1340	70.6429
 1.1330	70.6173
 1.1320	70.5920
 1.1310	70.6528
 1.1300	70.6091
 1.1290	70.6177
 1.1280	70.5785
 1.1270	70.5516
 1.1260	70.6760
 1.1250	70.6268
 1.1240	70.6383
 1.1230	70.5293
 1.1220	70.5398
 1.1210	70.5606
 1.1200	70.5511
 1.1190	70.5133
 1.1180	70.5178
 1.1170	70.5300
 1.1160	70.5052
 1.1150	70.4797
 1.1140	70.5445
 1.1130	70.5446
 1.1120	70.4791
 1.1110	70.5005
 1.1100	70.5451
 1.1090	70.5203
 1.1080	70.5152
 1.1070	70.5224
 1.1060	70.5178
 1.1050	70.4670
 1.1040	70.4934
 1.1030	70.4902
 1.1020	70.4663
 1.1010	70.4069
 1.1000	70.4128
 1.0990	70.3841
 1.0980	70.4230
 1.0970	70.3670
 1.0960	70.3873
 1.0950	70.3984
 1.0940	70.3967
 1.0930	70.4536
 1.0920	70.3068
 1.0910	70.4678
 1.0900	70.3858
 1.0890	70.3945
 1.0880	70.3737
 1.0870	70.3230
 1.0860	70.4138
 1.0850	70.4334
 1.0840	70.4458
 1.0830	70.3672
 1.0820	70.2962
 1.0810	70.2711
 1.0800	70.3774
 1.0790	70.2621
 1.0780	70.3223
 1.0770	70.2773
 1.0760	70.3556
 1.0750	70.2813
 1.0740	70.2597
 1.0730	70.2101
 1.0720	70.2679
 1.0710	70.3347
 1.0700	70.2095
 1.0690	70.1841
 1.0680	70.2530
 1.0670	70.2717
 1.0660	70.2270
 1.0650	70.2177
 1.0640	70.2378
 1.0630	70.1707
 1.0620	70.2366
 1.0610	70.2068
 1.0600	70.2128
 1.0590	70.2312
 1.0580	70.2254
 1.0570	70.2047
 1.0560	70.2220
 1.0550	70.2333
 1.0540	70.3046
 1.0530	70.1933
 1.0520	70.1208
 1.0510	70.1575
 1.0500	70.1819
 1.0490	70.2126
 1.0480	70.1204
 1.0470	70.1778
 1.0460	70.2250
 1.0450	70.1135
 1.0440	70.1688
 1.0430	70.0940
 1.0420	70.1437
 1.0410	70.0505
 1.0400	70.1063
 1.0390	70.0710
 1.0380	70.0716
 1.0370	70.0710
 1.0360	70.0743
 1.0350	70.0912
 1.0340	70.1287
 1.0330	70.0512
 1.0320	70.0992
 1.0310	70.0867
 1.0300	70.1009
 1.0290	70.0465
 1.0280	70.0948
 1.0270	70.0009
 1.0260	70.0679
 1.0250	69.9786
 1.0240	70.1093
 1.0230	70.0404
 1.0220	70.0028
 1.0210	69.9909
 1.0200	70.0445
 1.0190	70.0060
 1.0180	70.0732
 1.0170	70.0168
 1.0160	70.0261
 1.0150	69.9743
 1.0140	69.9717
 1.0130	69.9837
 1.0120	69.9623
 1.0110	70.0047
 1.0100	70.0122
 1.0090	70.0198
 1.0080	70.0053
 1.0070	69.9723
 1.0060	69.9896
 1.0050	70.0042
 1.0040	69.9252
 1.0030	69.8701
 1.0020	69.9409
 1.0010	69.8859
 1.0000	69.9420
 0.9990	69.9148
 0.9980	69.9214
 0.9970	69.9020
 0.9960	70.0033
 0.9950	69.9201
 0.9940	69.9203
 0.9930	69.9043
 0.9920	69.9127
 0.9910	69.8964
 0.9900	69.9097
 0.9890	69.8920
 0.9880	69.8786
 0.9870	69.8246
 0.9860	69.9015
 0.9850	69.8698
 0.9840	69.8713
 0.9830	69.8262
 0.9820	69.8783
 0.9810	69.8340
 0.9800	69.8019
 0.9790	69.7927
 0.9780	69.8014
 0.9770	69.8520
 0.9760	69.8237
 0.9750	69.8329
 0.9740	69.8636
 0.9730	69.8292
 0.9720	69.8587
 0.9710	69.8457
 0.9700	69.8649
 0.9690	69.8506
 0.9680	69.8489
 0.9670	69.7925
 0.9660	69.8198
 0.9650	69.7923
 0.9640	69.7584
 0.9630	69.7911
 0.9620	69.8018
 0.9610	69.7926
 0.9600	69.7778
 0.9590	69.7808
 0.9580	69.7773
 0.9570	69.7688
 0.9560	69.7605
 0.9550	69.7830
 0.9540	69.7905
 0.9530	69.7738
 0.9520	69.7262
 0.9510	69.7342
 0.9500	69.7737
 0.9490	69.7411
 0.9480	69.7492
 0.9470	69.7723
 0.9460	69.7614
 0.9450	69.7771
 0.9440	69.7772
 0.9430	69.7687
 0.9420	69.7691
 0.9410	69.7299
 0.9400	69.7210
 0.9390	69.7517
 0.9380	69.7183
 0.9370	69.6696
 0.9360	69.6694
 0.9350	69.6936
 0.9340	69.7285
 0.9330	69.7170
 0.9320	69.7166
 0.9310	69.6791
 0.9300	69.6773
 0.9290	69.7308
 0.9280	69.6816
 0.9270	69.6507
 0.9260	69.6566
 0.9250	69.6503
 0.9240	69.6438
 0.9230	69.6456
 0.9220	69.6650
 0.9210	69.6734
 0.9200	69.6621
 0.9190	69.6697
 0.9180	69.6567
 0.9170	69.6259
 0.9160	69.6701
 0.9150	69.7078
 0.9140	69.6521
 0.9130	69.6496
 0.9120	69.6567
 0.9110	69.6322
 0.9100	69.6466
 0.9090	69.6382
 0.9080	69.5923
 0.9070	69.6052
 0.9060	69.6281
 0.9050	69.5950
 0.9040	69.5204
 0.9030	69.5543
 0.9020	69.5847
 0.9010	69.6177
 0.9000	69.6061
 0.8990	69.5543
 0.8980	69.5713
 0.8970	69.5979
 0.8960	69.6050
 0.8950	69.5925
 0.8940	69.5573
 0.8930	69.5715
 0.8920	69.5986
 0.8910	69.5628
 0.8900	69.5587
 0.8890	69.6343
 0.8880	69.5779
 0.8870	69.5815
 0.8860	69.6009
 0.8850	69.5868
 0.8840	69.5992
 0.8830	69.6436
 0.8820	69.5847
 0.8810	69.5849
 0.8800	69.6760
 0.8790	69.6132
 0.8780	69.6319
 0.8770	69.6476
 0.8760	69.6133
 0.8750	69.6535
 0.8740	69.6476
 0.8730	69.6566
 0.8720	69.6283
 0.8710	69.6527
 0.8700	69.6341
 0.8690	69.6360
 0.8680	69.6548
 0.8670	69.6897
 0.8660	69.6306
 0.8650	69.6079
 0.8640	69.6252
 0.8630	69.6421
 0.8620	69.6175
 0.8610	69.6513
 0.8600	69.9893
 0.8590	70.0667
 0.8580	70.0178
 0.8570	70.0296
 0.8560	69.9593
 0.8550	69.8415
 0.8540	69.9638
 0.8530	69.9494
 0.8520	69.8368
 0.8510	69.9173
 0.8500	69.9130
 0.8490	69.8235
 0.8480	69.8944
 0.8470	69.8460
 0.8460	69.8045
 0.8450	69.8134
 0.8440	69.8167
 0.8430	69.7885
 0.8420	69.7736
 0.8410	69.8163
 0.8400	69.7854
 0.8390	69.7044
 0.8380	69.7107
 0.8370	69.6910
 0.8360	69.6883
 0.8350	69.7349
 0.8340	69.6691
 0.8330	69.6530
 0.8320	69.6307
 0.8310	69.6366
 0.8300	69.5791
 0.8290	69.6094
 0.8280	69.6161
 0.8270	69.5274
 0.8260	69.5340
 0.8250	69.4976
 0.8240	69.4873
 0.8230	69.4950
 0.8220	69.4712
 0.8210	69.4438
 0.8200	69.4043
 0.8190	69.4020
 0.8180	69.3965
 0.8170	69.3501
 0.8160	69.3722
 0.8150	69.3100
 0.8140	69.3024
 0.8130	69.2896
 0.8120	69.2591
 0.8110	69.2271
 0.8100	69.2355
 0.8090	69.2428
 0.8080	69.1644
 0.8070	69.1641
 0.8060	69.1029
 0.8050	69.1012
 0.8040	69.1095
 0.8030	69.0015
 0.8020	69.0172
 0.8010	68.9988
 0.8000	68.9609
 0.7990	68.9159
 0.7980	68.8568
 0.7970	68.8678
 0.7960	68.7708
 0.7950	68.7906
 0.7940	68.7361
 0.7930	68.6736
 0.7920	68.6812
 0.7910	68.6050
 0.7900	68.5255
 0.7890	68.5272
 0.7880	68.4829
 0.7870	68.3791
 0.7860	68.3886
 0.7850	68.3127
 0.7840	68.2790
 0.7830	68.2197
 0.7820	68.1835
 0.7810	68.1460
 0.7800	68.0692
 0.7790	68.0107
 0.7780	67.9309
 0.7770	67.9105
 0.7760	67.8011
 0.7750	67.7574
 0.7740	67.6833
 0.7730	67.6098
 0.7720	67.5531
 0.7710	67.4870
 0.7700	67.4127
 0.7690	67.3705
 0.7680	67.2845
 0.7670	67.1857
 0.7660	67.1381
 0.7650	67.0636
 0.7640	67.0157
 0.7630	66.9287
 0.7620	66.8333
 0.7610	66.7779
 0.7600	66.7186
 0.7590	66.5832
 0.7580	66.5250
 0.7570	66.4627
 0.7560	66.3601
 0.7550	66.2619
 0.7540	66.2095
 0.7530	66.1408
 0.7520	66.0622
 0.7510	65.9810
 0.7500	65.9145
 0.7490	65.8208
 0.7480	65.7560
 0.7470	65.6780
 0.7460	65.5989
 0.7450	65.5142
 0.7440	65.4486
 0.7430	65.3865
 0.7420	65.3451
 0.7410	65.2759
 0.7400	65.2024
 0.7390	65.1117
 0.7380	65.0402
 0.7370	65.0086
 0.7360	64.9302
 0.7350	64.8654
 0.7340	64.8150
 0.7330	64.7710
 0.7320	64.6917
 0.7310	64.6315
 0.7300	64.5742
 0.7290	64.5375
 0.7280	64.4618
 0.7270	64.4176
 0.7260	64.3732
 0.7250	64.3064
 0.7240	64.2578
 0.7230	64.2079
 0.7220	64.1651
 0.7210	64.1340
 0.7200	64.0817
 0.7190	64.0123
 0.7180	63.9741
 0.7170	63.9183
 0.7160	63.8772
 0.7150	63.8350
 0.7140	63.7898
 0.7130	63.7450
 0.7120	63.7162
 0.7110	63.6625
 0.7100	63.6456
 0.7090	63.5814
 0.7080	63.5328
 0.7070	63.5054
 0.7060	63.4539
 0.7050	63.4209
 0.7040	63.3767
 0.7030	63.3172
 0.7020	63.2915
 0.7010	63.2558
 0.7000	63.1969
 0.6990	63.1498
 0.6980	63.1090
 0.6970	63.0675
 0.6960	63.0254
 0.6950	62.9996
 0.6940	62.9597
 0.6930	62.9109
 0.6920	62.8573
 0.6910	62.8201
 0.6900	62.7728
 0.6890	62.7277
 0.6880	62.6837
 0.6870	62.6510
 0.6860	62.6085
 0.6850	62.5648
 0.6840	62.5247
 0.6830	62.4707
 0.6820	62.4246
 0.6810	62.3713
 0.6800	62.3147
 0.6790	62.2778
 0.6780	62.2308
 0.6770	62.1734
 0.6760	62.1254
 0.6750	62.0770
 0.6740	62.0098
 0.6730	61.9536
 0.6720	61.8990
 0.6710	61.8494
 0.6700	61.7993
 0.6690	61.7420
 0.6680	61.6816
 0.6670	61.6248
 0.6660	61.5661
 0.6650	61.4812
 0.6640	61.4087
 0.6630	61.3466
 0.6620	61.2626
 0.6610	61.1982
 0.6600	61.1261
 0.6590	61.0594
 0.6580	60.9766
 0.6570	60.8978
 0.6560	60.8105
 0.6550	60.7234
 0.6540	60.6435
 0.6530	60.5535
 0.6520	60.4581
 0.6510	60.3580
 0.6500	60.2629
 0.6490	60.1573
 0.6480	60.0299
 0.6470	59.9073
 0.6460	59.7890
 0.6450	59.6655
 0.6440	59.5411
 0.6430	59.4116
 0.6420	59.2570
 0.6410	59.0976
 0.6400	58.9581
 0.6390	58.8024
 0.6380	58.6208
 0.6370	58.4528
 0.6360	58.2706
 0.6350	58.0737
 0.6340	57.8658
 0.6330	57.6399
 0.6320	57.4128
 0.6310	57.1781
 0.6300	56.9269
 0.6290	56.6552
 0.6280	56.3718
 0.6270	56.0761
 0.6260	55.7630
 0.6250	55.4470
 0.6240	55.1169
 0.6230	54.7505
 0.6220	54.3625
 0.6210	53.9576
 0.6200	53.5356
 0.6190	53.0913
 0.6180	52.6090
 0.6170	52.1110
 0.6160	51.6087
 0.6150	51.0722
 0.6140	50.4971
 0.6130	49.9083
 0.6120	49.2890
 0.6110	48.6401
 0.6100	47.9641
 0.6090	47.2587
 0.6080	46.5177
 0.6070	45.7531
 0.6060	44.9676
 0.6050	44.1443
 0.6040	43.2895
 0.6030	42.4256
 0.6020	41.5245
 0.6010	40.6056
 0.6000	39.6683
 0.5990	38.7213
 0.5980	37.7539
 0.5970	36.7726
 0.5960	35.7858
 0.5950	34.8026
 0.5940	33.7905
 0.5930	32.7627
 0.5920	31.7680
 0.5910	30.7750
 0.5900	29.7592
 0.5890	28.7499
 0.5880	27.7569
 0.5870	26.7768
 0.5860	25.8279
 0.5850	24.8890
 0.5840	23.9634
 0.5830	23.0669
 0.5820	22.2028
 0.5810	21.3642
 0.5800	20.5605
 0.5790	19.7865
 0.5780	19.0439
 0.5770	18.3381
 0.5760	17.6672
 0.5750	17.0506
 0.5740	16.4467
 0.5730	15.8690
 0.5720	15.3240
 0.5710	14.8081
 0.5700	14.3354
 0.5690	13.8865
 0.5680	13.4656
 0.5670	13.0739
 0.5660	12.7073
 0.5650	12.3661
 0.5640	12.0471
 0.5630	11.7508
 0.5620	11.4779
 0.5610	11.2079
 0.5600	10.9676
 0.5590	10.7507
 0.5580	10.5500
 0.5570	10.3642
 0.5560	10.1935
 0.5550	10.0283
 0.5540	 9.8776
 0.5530	 9.7352
 0.5520	 9.6058
 0.5510	 9.4862
 0.5500	 9.3759
 0.5490	 9.2647
 0.5480	 9.1657
 0.5470	 9.0724
 0.5460	 8.9839
 0.5450	 8.8979
 0.5440	 8.8191
 0.5430	 8.7457
 0.5420	 8.6719
 0.5410	 8.6108
 0.5400	 8.5588
 0.5390	 8.4990
 0.5380	 8.4409
 0.5370	 8.3856
 0.5360	 8.3325
 0.5350	 8.2819
 0.5340	 8.2348
 0.5330	 8.1887
 0.5320	 8.1443
 0.5310	 8.1020
 0.5300	 8.0601
 0.5290	 8.0214
 0.5280	 7.9859
 0.5270	 7.9528
 0.5260	 7.9204
 0.5250	 7.8910
 0.5240	 7.8593
 0.5230	 7.8307
 0.5220	 7.8046
 0.5210	 7.7801
 0.5200	 7.7586
 0.5190	 7.7376
 0.5180	 7.7158
 0.5170	 7.6984
 0.5160	 7.6802
 0.5150	 7.6639
 0.5140	 7.6440
 0.5130	 7.6296
 0.5120	 7.6185
 0.5110	 7.6074
 0.5100	 7.5964
 0.5090	 7.5800
 0.5080	 7.5735
 0.5070	 7.5618
 0.5060	 7.5516
 0.5050	 7.5446
 0.5040	 7.5358
 0.5030	 7.5293
 0.5020	 7.5261
 0.5010	 7.5167
 0.5000	 7.5058
 0.4990	 7.5063
 0.4980	 7.4973
 0.4970	 7.4904
 0.4960	 7.4853
 0.4950	 7.4810
 0.4940	 7.4727
 0.4930	 7.4691
 0.4920	 7.4679
 0.4910	 7.4537
 0.4900	 7.4561
 0.4890	 7.4478
 0.4880	 7.4388
 0.4870	 7.4353
 0.4860	 7.4269
 0.4850	 7.4229
 0.4840	 7.4180
 0.4830	 7.4119
 0.4820	 7.4083
 0.4810	 7.4006
 0.4800	 7.3933
 0.4790	 7.3920
 0.4780	 7.3880
 0.4770	 7.3859
 0.4760	 7.3837
 0.4750	 7.3796
 0.4740	 7.3807
 0.4730	 7.3770
 0.4720	 7.3728
 0.4710	 7.3771
 0.4700	 7.3796
 0.4690	 7.3745
 0.4680	 7.3797
 0.4670	 7.3799
 0.4660	 7.3834
 0.4650	 7.3847
 0.4640	 7.3932
 0.4630	 7.3933
 0.4620	 7.4034
 0.4610	 7.4064
 0.4600	 7.4110
 0.4590	 7.4164
 0.4580	 7.4218
 0.4570	 7.4280
 0.4560	 7.4356
 0.4550	 7.4414
 0.4540	 7.4487
 0.4530	 7.4559
 0.4520	 7.4616
 0.4510	 7.4695
 0.4500	 7.4733
 0.4490	 7.4775
 0.4480	 7.4897
 0.4470	 7.4961
 0.4460	 7.5014
 0.4450	 7.5106
 0.4440	 7.5190
 0.4430	 7.5229
 0.4420	 7.5332
 0.4410	 7.5349
 0.4400	 7.5392
 0.4390	 7.5451
 0.4380	 7.5506
 0.4370	 7.5534
 0.4360	 7.5588
 0.4350	 7.5611
 0.4340	 7.5691
 0.4330	 7.5719
 0.4320	 7.5734
 0.4310	 7.5790
 0.4300	 7.5812
 0.4290	 7.5851
 0.4280	 7.5867
 0.4270	 7.5893
 0.4260	 7.5898
 0.4250	 7.5931
 0.4240	 7.5933
 0.4230	 7.5961
 0.4220	 7.6022
 0.4210	 7.6003
 0.4200	 7.6018
 0.4190	 7.6080
 0.4180	 7.6127
 0.4170	 7.6157
 0.4160	 7.6199
 0.4150	 7.6207
 0.4140	 7.6284
 0.4130	 7.6326
 0.4120	 7.6389
 0.4110	 7.6436
 0.4100	 7.6496
 0.4090	 7.6541
 0.4080	 7.6635
 0.4070	 7.6722
 0.4060	 7.6793
 0.4050	 7.6868
 0.4040	 7.6945
 0.4030	 7.7030
 0.4020	 7.7124
 0.4010	 7.7249
 0.4000	 7.7319
