Name: Glaucophane Na_2(Mg,Fe^2+)_3Al_2Si_8O_22(OH)_2
Type: Mineral
Class: Silicate
Subclass: Inosilicate
Particle Size: Coarse
Sample No.: IN-3A
Owner: JPL
Wavelength Range: VSWIR
Origin: USA, California.
Collection Date: N/A
Description: Particle size was 125-500um. Collected by:  Ward's Original ASTER Spectral Library name was jpl.perkin.mineral.silicate.inosilicate.coarse.in03a.spectrum.txt
Measurement: Hemispherical reflectance
First Column: X
Second Column: Y
X Units: Wavelength (micrometers)
Y Units:Reflectance (percent)
First X Value:  2.5000
Last X Value:  0.4000
Number of X Values: 2101
Additional Information: mineral.silicate.inosilicate.coarse.vswir.in-3a.jpl.perkin.ancillary.txt

 2.5000	20.6098
 2.4990	20.3464
 2.4980	20.4734
 2.4970	20.6092
 2.4960	20.2344
 2.4950	20.6379
 2.4940	20.4343
 2.4930	20.4511
 2.4920	20.7975
 2.4910	20.4889
 2.4900	20.7806
 2.4890	20.5598
 2.4880	20.9003
 2.4870	20.5930
 2.4860	20.7832
 2.4850	20.7267
 2.4840	21.0997
 2.4830	20.6877
 2.4820	21.1677
 2.4810	20.8692
 2.4800	20.9624
 2.4790	20.9408
 2.4780	21.1272
 2.4770	21.0267
 2.4760	21.2656
 2.4750	21.0962
 2.4740	21.1765
 2.4730	21.1297
 2.4720	21.3314
 2.4710	21.2840
 2.4700	21.4231
 2.4690	21.4663
 2.4680	21.6139
 2.4670	21.5352
 2.4660	21.7816
 2.4650	21.7206
 2.4640	21.8344
 2.4630	21.8811
 2.4620	22.0653
 2.4610	22.0593
 2.4600	22.1224
 2.4590	22.1142
 2.4580	22.3658
 2.4570	22.1958
 2.4560	22.4201
 2.4550	22.4473
 2.4540	22.5067
 2.4530	22.5630
 2.4520	22.7753
 2.4510	22.7547
 2.4500	22.9968
 2.4490	22.9226
 2.4480	23.2041
 2.4470	23.0349
 2.4460	23.1638
 2.4450	23.2583
 2.4440	23.4503
 2.4430	23.3585
 2.4420	23.4608
 2.4410	23.4916
 2.4400	23.6251
 2.4390	23.5570
 2.4380	23.6494
 2.4370	23.6266
 2.4360	23.6206
 2.4350	23.6476
 2.4340	23.8041
 2.4330	23.6704
 2.4320	23.7559
 2.4310	23.7097
 2.4300	23.7294
 2.4290	23.7069
 2.4280	23.7598
 2.4270	23.6949
 2.4260	23.7871
 2.4250	23.6146
 2.4240	23.6597
 2.4230	23.6124
 2.4220	23.6238
 2.4210	23.4804
 2.4200	23.5056
 2.4190	23.3284
 2.4180	23.4216
 2.4170	23.3153
 2.4160	23.2687
 2.4150	23.0814
 2.4140	23.0885
 2.4130	22.9258
 2.4120	22.8933
 2.4110	22.7142
 2.4100	22.6940
 2.4090	22.5811
 2.4080	22.4890
 2.4070	22.3371
 2.4060	22.2903
 2.4050	22.1459
 2.4040	22.0642
 2.4030	21.8642
 2.4020	21.9067
 2.4010	21.7815
 2.4000	21.6813
 2.3990	21.5996
 2.3980	21.5973
 2.3970	21.4297
 2.3960	21.2942
 2.3950	21.1489
 2.3940	21.1176
 2.3930	21.0845
 2.3920	21.0175
 2.3910	20.8808
 2.3900	20.8727
 2.3890	20.7729
 2.3880	20.7023
 2.3870	20.6703
 2.3860	20.6589
 2.3850	20.6435
 2.3840	20.6466
 2.3830	20.6189
 2.3820	20.6492
 2.3810	20.6295
 2.3800	20.6270
 2.3790	20.5683
 2.3780	20.5983
 2.3770	20.5864
 2.3760	20.5965
 2.3750	20.6467
 2.3740	20.5935
 2.3730	20.5465
 2.3720	20.6302
 2.3710	20.6135
 2.3700	20.6320
 2.3690	20.6150
 2.3680	20.5285
 2.3670	20.4949
 2.3660	20.4839
 2.3650	20.4183
 2.3640	20.3251
 2.3630	20.2455
 2.3620	20.1774
 2.3610	20.1167
 2.3600	20.0422
 2.3590	19.9351
 2.3580	19.8094
 2.3570	19.6894
 2.3560	19.5691
 2.3550	19.4707
 2.3540	19.3444
 2.3530	19.1394
 2.3520	18.9948
 2.3510	18.8709
 2.3500	18.6606
 2.3490	18.4880
 2.3480	18.2893
 2.3470	18.1262
 2.3460	17.9577
 2.3450	17.7396
 2.3440	17.5304
 2.3430	17.3671
 2.3420	17.2031
 2.3410	17.0054
 2.3400	16.7718
 2.3390	16.5817
 2.3380	16.4798
 2.3370	16.3101
 2.3360	16.0709
 2.3350	15.8973
 2.3340	15.7270
 2.3330	15.5847
 2.3320	15.4411
 2.3310	15.3360
 2.3300	15.1792
 2.3290	15.0988
 2.3280	14.9727
 2.3270	14.8989
 2.3260	14.8227
 2.3250	14.7061
 2.3240	14.6074
 2.3230	14.6285
 2.3220	14.5360
 2.3210	14.5140
 2.3200	14.4686
 2.3190	14.4451
 2.3180	14.4051
 2.3170	14.4932
 2.3160	14.4618
 2.3150	14.4864
 2.3140	14.5484
 2.3130	14.5438
 2.3120	14.6273
 2.3110	14.7654
 2.3100	14.7310
 2.3090	14.9376
 2.3080	15.0069
 2.3070	15.1626
 2.3060	15.2795
 2.3050	15.4381
 2.3040	15.6056
 2.3030	15.8355
 2.3020	16.0462
 2.3010	16.3095
 2.3000	16.5114
 2.2990	16.8174
 2.2980	16.9766
 2.2970	17.2818
 2.2960	17.5460
 2.2950	17.7873
 2.2940	18.0616
 2.2930	18.3714
 2.2920	18.5355
 2.2910	18.8589
 2.2900	19.0958
 2.2890	19.3925
 2.2880	19.6299
 2.2870	19.9534
 2.2860	20.1041
 2.2850	20.3614
 2.2840	20.5597
 2.2830	20.7942
 2.2820	20.9266
 2.2810	21.2049
 2.2800	21.3789
 2.2790	21.5690
 2.2780	21.7273
 2.2770	21.9564
 2.2760	22.0687
 2.2750	22.2380
 2.2740	22.3896
 2.2730	22.5911
 2.2720	22.6599
 2.2710	22.8357
 2.2700	22.9654
 2.2690	23.1292
 2.2680	23.1723
 2.2670	23.2513
 2.2660	23.3768
 2.2650	23.4501
 2.2640	23.5218
 2.2630	23.6435
 2.2620	23.6827
 2.2610	23.7722
 2.2600	23.7634
 2.2590	23.9096
 2.2580	23.9349
 2.2570	24.0753
 2.2560	24.1365
 2.2550	24.3289
 2.2540	24.3355
 2.2530	24.5305
 2.2520	24.5861
 2.2510	24.8115
 2.2500	24.9512
 2.2490	25.1274
 2.2480	25.3315
 2.2470	25.5260
 2.2460	25.6748
 2.2450	25.9347
 2.2440	26.1027
 2.2430	26.4015
 2.2420	26.5823
 2.2410	26.8696
 2.2400	27.0339
 2.2390	27.2936
 2.2380	27.5097
 2.2370	27.8371
 2.2360	28.0034
 2.2350	28.3400
 2.2340	28.4649
 2.2330	28.6734
 2.2320	28.9014
 2.2310	29.0939
 2.2300	29.3250
 2.2290	29.5278
 2.2280	29.6280
 2.2270	29.9427
 2.2260	30.0184
 2.2250	30.2425
 2.2240	30.3468
 2.2230	30.5683
 2.2220	30.5620
 2.2210	30.9485
 2.2200	30.8859
 2.2190	31.1608
 2.2180	31.1873
 2.2170	31.4556
 2.2160	31.4076
 2.2150	31.5360
 2.2140	31.6989
 2.2130	31.7502
 2.2120	31.8917
 2.2110	31.8297
 2.2100	31.9729
 2.2090	32.0339
 2.2080	32.1026
 2.2070	32.1947
 2.2060	32.1842
 2.2050	32.3112
 2.2040	32.2328
 2.2030	32.4010
 2.2020	32.4321
 2.2010	32.5393
 2.2000	32.4995
 2.1990	32.6144
 2.1980	32.6955
 2.1970	32.7882
 2.1960	32.7451
 2.1950	32.9087
 2.1940	32.8611
 2.1930	33.0333
 2.1920	32.9921
 2.1910	33.1074
 2.1900	33.1485
 2.1890	33.1977
 2.1880	33.2378
 2.1870	33.3358
 2.1860	33.3083
 2.1850	33.5501
 2.1840	33.4742
 2.1830	33.5689
 2.1820	33.5309
 2.1810	33.6883
 2.1800	33.6125
 2.1790	33.7577
 2.1780	33.7756
 2.1770	33.9009
 2.1760	33.8007
 2.1750	33.9248
 2.1740	33.9519
 2.1730	34.0670
 2.1720	34.0304
 2.1710	34.2474
 2.1700	34.2318
 2.1690	34.3223
 2.1680	34.3397
 2.1670	34.4223
 2.1660	34.4483
 2.1650	34.6557
 2.1640	34.6682
 2.1630	34.7944
 2.1620	34.8896
 2.1610	34.9643
 2.1600	34.9583
 2.1590	35.1082
 2.1580	35.1751
 2.1570	35.3351
 2.1560	35.4081
 2.1550	35.5392
 2.1540	35.4893
 2.1530	35.6814
 2.1520	35.7428
 2.1510	35.9035
 2.1500	35.9032
 2.1490	36.0318
 2.1480	36.0594
 2.1470	36.0766
 2.1460	36.1652
 2.1450	36.3120
 2.1440	36.2907
 2.1430	36.4203
 2.1420	36.3592
 2.1410	36.4004
 2.1400	36.4612
 2.1390	36.5173
 2.1380	36.5192
 2.1370	36.5335
 2.1360	36.5478
 2.1350	36.6164
 2.1340	36.5869
 2.1330	36.5733
 2.1320	36.5566
 2.1310	36.6100
 2.1300	36.5927
 2.1290	36.6378
 2.1280	36.6119
 2.1270	36.6081
 2.1260	36.6189
 2.1250	36.6646
 2.1240	36.6474
 2.1230	36.6317
 2.1220	36.6276
 2.1210	36.7292
 2.1200	36.6914
 2.1190	36.6940
 2.1180	36.6938
 2.1170	36.7128
 2.1160	36.7364
 2.1150	36.7752
 2.1140	36.7683
 2.1130	36.8003
 2.1120	36.7968
 2.1110	36.8386
 2.1100	36.8321
 2.1090	36.8903
 2.1080	36.8664
 2.1070	36.8755
 2.1060	36.8946
 2.1050	36.9308
 2.1040	36.9375
 2.1030	36.9688
 2.1020	36.9697
 2.1010	37.0288
 2.1000	37.0091
 2.0990	37.0280
 2.0980	37.0658
 2.0970	37.0958
 2.0960	37.1102
 2.0950	37.1352
 2.0940	37.1271
 2.0930	37.1751
 2.0920	37.2031
 2.0910	37.2459
 2.0900	37.2481
 2.0890	37.2536
 2.0880	37.2248
 2.0870	37.2388
 2.0860	37.3217
 2.0850	37.3107
 2.0840	37.2327
 2.0830	37.2705
 2.0820	37.2896
 2.0810	37.2670
 2.0800	37.2572
 2.0790	37.2621
 2.0780	37.2798
 2.0770	37.2628
 2.0760	37.2434
 2.0750	37.2610
 2.0740	37.2661
 2.0730	37.2453
 2.0720	37.1935
 2.0710	37.2510
 2.0700	37.2591
 2.0690	37.2040
 2.0680	37.1812
 2.0670	37.1668
 2.0660	37.1362
 2.0650	37.1141
 2.0640	37.1014
 2.0630	37.0911
 2.0620	37.1193
 2.0610	37.0787
 2.0600	37.0298
 2.0590	36.9992
 2.0580	37.0308
 2.0570	36.9995
 2.0560	36.9501
 2.0550	36.9553
 2.0540	36.9900
 2.0530	36.9523
 2.0520	36.9152
 2.0510	36.8385
 2.0500	36.8216
 2.0490	36.8576
 2.0480	36.7861
 2.0470	36.7472
 2.0460	36.7599
 2.0450	36.7502
 2.0440	36.7343
 2.0430	36.7260
 2.0420	36.7038
 2.0410	36.6554
 2.0400	36.5881
 2.0390	36.5522
 2.0380	36.6128
 2.0370	36.5462
 2.0360	36.5179
 2.0350	36.4516
 2.0340	36.4457
 2.0330	36.4180
 2.0320	36.4108
 2.0310	36.3773
 2.0300	36.3717
 2.0290	36.2653
 2.0280	36.2786
 2.0270	36.2091
 2.0260	36.2008
 2.0250	36.1485
 2.0240	36.1080
 2.0230	35.9771
 2.0220	35.9496
 2.0210	35.9195
 2.0200	35.9325
 2.0190	35.8352
 2.0180	35.8714
 2.0170	35.8528
 2.0160	35.7768
 2.0150	35.7389
 2.0140	35.6987
 2.0130	35.6765
 2.0120	35.7065
 2.0110	35.6648
 2.0100	35.6262
 2.0090	35.5986
 2.0080	35.5832
 2.0070	35.5816
 2.0060	35.5355
 2.0050	35.5223
 2.0040	35.5486
 2.0030	35.4843
 2.0020	35.4605
 2.0010	35.4088
 2.0000	35.4840
 1.9990	35.3742
 1.9980	35.3689
 1.9970	35.3629
 1.9960	35.4149
 1.9950	35.3126
 1.9940	35.3076
 1.9930	35.3230
 1.9920	35.3292
 1.9910	35.2778
 1.9900	35.3136
 1.9890	35.1980
 1.9880	35.2761
 1.9870	35.1647
 1.9860	35.2314
 1.9850	35.2099
 1.9840	35.2402
 1.9830	35.1271
 1.9820	35.1719
 1.9810	35.1329
 1.9800	35.0810
 1.9790	34.9956
 1.9780	35.0365
 1.9770	35.0130
 1.9760	35.0243
 1.9750	34.8912
 1.9740	34.9866
 1.9730	34.8954
 1.9720	34.8106
 1.9710	34.7740
 1.9700	34.7482
 1.9690	34.6893
 1.9680	34.7045
 1.9670	34.5766
 1.9660	34.6389
 1.9650	34.5324
 1.9640	34.5736
 1.9630	34.4442
 1.9620	34.4916
 1.9610	34.3266
 1.9600	34.4315
 1.9590	34.2487
 1.9580	34.3097
 1.9570	34.1778
 1.9560	34.1683
 1.9550	34.1154
 1.9540	34.1281
 1.9530	34.0653
 1.9520	34.0507
 1.9510	33.9298
 1.9500	33.9746
 1.9490	33.9619
 1.9480	33.9363
 1.9470	33.9755
 1.9460	33.9068
 1.9450	33.8332
 1.9440	33.8743
 1.9430	33.8056
 1.9420	33.8654
 1.9410	33.7416
 1.9400	33.8595
 1.9390	33.8016
 1.9380	33.9327
 1.9370	33.8504
 1.9360	33.8750
 1.9350	33.7692
 1.9340	33.9423
 1.9330	33.9029
 1.9320	33.9420
 1.9310	33.9086
 1.9300	34.0633
 1.9290	33.8984
 1.9280	34.0436
 1.9270	34.0781
 1.9260	34.0296
 1.9250	34.1421
 1.9240	34.2236
 1.9230	34.1552
 1.9220	34.3350
 1.9210	34.2151
 1.9200	34.4118
 1.9190	34.4128
 1.9180	34.5388
 1.9170	34.3859
 1.9160	34.5204
 1.9150	34.5659
 1.9140	34.7653
 1.9130	34.7111
 1.9120	34.8324
 1.9110	34.8049
 1.9100	34.9396
 1.9090	34.9134
 1.9080	35.0675
 1.9070	35.0215
 1.9060	35.1963
 1.9050	35.1102
 1.9040	35.2229
 1.9030	35.2471
 1.9020	35.3017
 1.9010	35.3520
 1.9000	35.4626
 1.8990	35.4740
 1.8980	35.5237
 1.8970	35.5572
 1.8960	35.6284
 1.8950	35.6094
 1.8940	35.6923
 1.8930	35.6867
 1.8920	35.7713
 1.8910	35.8128
 1.8900	35.8650
 1.8890	35.8017
 1.8880	35.9551
 1.8870	35.9594
 1.8860	36.0839
 1.8850	36.1339
 1.8840	36.2031
 1.8830	36.2183
 1.8820	36.2485
 1.8810	36.2353
 1.8800	36.3303
 1.8790	36.3502
 1.8780	36.3777
 1.8770	36.3320
 1.8760	36.4246
 1.8750	36.3715
 1.8740	36.4197
 1.8730	36.3240
 1.8720	36.4194
 1.8710	36.4134
 1.8700	36.4471
 1.8690	36.3201
 1.8680	36.4221
 1.8670	36.4777
 1.8660	36.6076
 1.8650	36.5525
 1.8640	36.5737
 1.8630	36.6137
 1.8620	36.6951
 1.8610	36.5982
 1.8600	36.6607
 1.8590	36.6062
 1.8580	36.5815
 1.8570	36.5676
 1.8560	36.6332
 1.8550	36.6252
 1.8540	36.5896
 1.8530	36.5845
 1.8520	36.6245
 1.8510	36.5528
 1.8500	36.5474
 1.8490	36.4986
 1.8480	36.5432
 1.8470	36.4906
 1.8460	36.5057
 1.8450	36.4863
 1.8440	36.5246
 1.8430	36.4845
 1.8420	36.5243
 1.8410	36.4692
 1.8400	36.4474
 1.8390	36.3638
 1.8380	36.3447
 1.8370	36.3099
 1.8360	36.3094
 1.8350	36.3391
 1.8340	36.3120
 1.8330	36.2935
 1.8320	36.3264
 1.8310	36.2946
 1.8300	36.2760
 1.8290	36.3063
 1.8280	36.3015
 1.8270	36.2173
 1.8260	36.2148
 1.8250	36.1992
 1.8240	36.2999
 1.8230	36.2398
 1.8220	36.2292
 1.8210	36.2213
 1.8200	36.1852
 1.8190	36.1496
 1.8180	36.1820
 1.8170	36.2081
 1.8160	36.2060
 1.8150	36.1876
 1.8140	36.1927
 1.8130	36.1411
 1.8120	36.1393
 1.8110	36.1183
 1.8100	36.1430
 1.8090	36.1119
 1.8080	36.1031
 1.8070	36.0406
 1.8060	36.0220
 1.8050	35.9875
 1.8040	36.0318
 1.8030	36.0337
 1.8020	36.0018
 1.8010	35.9964
 1.8000	35.9983
 1.7990	35.9166
 1.7980	35.9095
 1.7970	35.8710
 1.7960	35.8503
 1.7950	35.8718
 1.7940	35.8471
 1.7930	35.8099
 1.7920	35.7734
 1.7910	35.7290
 1.7900	35.7034
 1.7890	35.7088
 1.7880	35.6700
 1.7870	35.6524
 1.7860	35.6493
 1.7850	35.5970
 1.7840	35.5621
 1.7830	35.5204
 1.7820	35.4521
 1.7810	35.4294
 1.7800	35.4353
 1.7790	35.4471
 1.7780	35.4096
 1.7770	35.3468
 1.7760	35.3230
 1.7750	35.3458
 1.7740	35.3117
 1.7730	35.2673
 1.7720	35.2283
 1.7710	35.2703
 1.7700	35.2425
 1.7690	35.1767
 1.7680	35.1916
 1.7670	35.1808
 1.7660	35.0949
 1.7650	35.1266
 1.7640	35.0918
 1.7630	35.0510
 1.7620	35.0504
 1.7610	35.0570
 1.7600	34.9864
 1.7590	34.9761
 1.7580	34.9747
 1.7570	34.9038
 1.7560	34.8794
 1.7550	34.8506
 1.7540	34.8199
 1.7530	34.8213
 1.7520	34.7950
 1.7510	34.7917
 1.7500	34.7532
 1.7490	34.7434
 1.7480	34.7261
 1.7470	34.7268
 1.7460	34.6238
 1.7450	34.6306
 1.7440	34.6145
 1.7430	34.6346
 1.7420	34.5953
 1.7410	34.5961
 1.7400	34.5338
 1.7390	34.5377
 1.7380	34.4898
 1.7370	34.4877
 1.7360	34.3906
 1.7350	34.3847
 1.7340	34.3914
 1.7330	34.3928
 1.7320	34.2962
 1.7310	34.3516
 1.7300	34.3310
 1.7290	34.2614
 1.7280	34.2416
 1.7270	34.2500
 1.7260	34.1885
 1.7250	34.2137
 1.7240	34.1298
 1.7230	34.1447
 1.7220	34.0664
 1.7210	34.0583
 1.7200	34.0324
 1.7190	34.0521
 1.7180	33.9621
 1.7170	33.9022
 1.7160	33.8802
 1.7150	33.9588
 1.7140	33.8730
 1.7130	33.8618
 1.7120	33.8117
 1.7110	33.8127
 1.7100	33.8094
 1.7090	33.7229
 1.7080	33.6427
 1.7070	33.7363
 1.7060	33.6621
 1.7050	33.6607
 1.7040	33.5078
 1.7030	33.5842
 1.7020	33.5015
 1.7010	33.5595
 1.7000	33.4486
 1.6990	33.4929
 1.6980	33.4244
 1.6970	33.3645
 1.6960	33.3666
 1.6950	33.3971
 1.6940	33.2703
 1.6930	33.3081
 1.6920	33.2598
 1.6910	33.2730
 1.6900	33.1983
 1.6890	33.2477
 1.6880	33.1684
 1.6870	33.1480
 1.6860	33.2096
 1.6850	33.1967
 1.6840	33.0430
 1.6830	33.1245
 1.6820	33.0896
 1.6810	33.0571
 1.6800	33.0403
 1.6790	33.0532
 1.6780	32.9532
 1.6770	32.9777
 1.6760	32.8223
 1.6750	32.8618
 1.6740	32.8432
 1.6730	32.9167
 1.6720	32.8134
 1.6710	32.8891
 1.6700	32.7792
 1.6690	32.8203
 1.6680	32.7242
 1.6670	32.9064
 1.6660	32.7461
 1.6650	32.7238
 1.6640	32.6940
 1.6630	32.7441
 1.6620	32.6300
 1.6610	32.6824
 1.6600	32.5077
 1.6590	32.6368
 1.6580	32.5194
 1.6570	32.4841
 1.6560	32.5386
 1.6550	32.4910
 1.6540	32.4680
 1.6530	32.4961
 1.6520	32.3662
 1.6510	32.3994
 1.6500	32.3332
 1.6490	32.4803
 1.6480	32.2525
 1.6470	32.3806
 1.6460	32.2549
 1.6450	32.3644
 1.6440	32.2225
 1.6430	32.2954
 1.6420	32.2647
 1.6410	32.1009
 1.6400	32.2098
 1.6390	32.1707
 1.6380	32.1048
 1.6370	32.0845
 1.6360	32.0303
 1.6350	32.0260
 1.6340	31.9514
 1.6330	32.0208
 1.6320	31.9312
 1.6310	31.9471
 1.6300	31.9095
 1.6290	31.9820
 1.6280	31.7834
 1.6270	31.8593
 1.6260	31.8233
 1.6250	31.7963
 1.6240	31.7407
 1.6230	31.7395
 1.6220	31.6897
 1.6210	31.7685
 1.6200	31.6050
 1.6190	31.6279
 1.6180	31.5667
 1.6170	31.5819
 1.6160	31.5335
 1.6150	31.5760
 1.6140	31.4468
 1.6130	31.5049
 1.6120	31.4445
 1.6110	31.3835
 1.6100	31.4009
 1.6090	31.4344
 1.6080	31.3440
 1.6070	31.3099
 1.6060	31.1770
 1.6050	31.2783
 1.6040	31.2069
 1.6030	31.2536
 1.6020	31.1846
 1.6010	31.1416
 1.6000	31.1331
 1.5990	31.1454
 1.5980	31.0124
 1.5970	31.0481
 1.5960	30.9633
 1.5950	30.9382
 1.5940	30.8935
 1.5930	30.8934
 1.5920	30.8414
 1.5910	30.8002
 1.5900	30.7239
 1.5890	30.7848
 1.5880	30.7200
 1.5870	30.7042
 1.5860	30.6443
 1.5850	30.6602
 1.5840	30.5611
 1.5830	30.5337
 1.5820	30.4991
 1.5810	30.4757
 1.5800	30.4402
 1.5790	30.4414
 1.5780	30.3394
 1.5770	30.4055
 1.5760	30.2619
 1.5750	30.3171
 1.5740	30.2021
 1.5730	30.2102
 1.5720	30.1471
 1.5710	30.1471
 1.5700	30.0155
 1.5690	30.0498
 1.5680	30.0162
 1.5670	29.9786
 1.5660	29.8754
 1.5650	29.8831
 1.5640	29.7831
 1.5630	29.7869
 1.5620	29.7517
 1.5610	29.6985
 1.5600	29.6217
 1.5590	29.6153
 1.5580	29.5518
 1.5570	29.5757
 1.5560	29.5170
 1.5550	29.4720
 1.5540	29.4276
 1.5530	29.4137
 1.5520	29.3603
 1.5510	29.3361
 1.5500	29.2845
 1.5490	29.2678
 1.5480	29.2379
 1.5470	29.2469
 1.5460	29.1416
 1.5450	29.1495
 1.5440	29.0913
 1.5430	29.0468
 1.5420	28.9625
 1.5410	28.9789
 1.5400	28.9532
 1.5390	28.9546
 1.5380	28.8794
 1.5370	28.8885
 1.5360	28.8117
 1.5350	28.8479
 1.5340	28.7987
 1.5330	28.7535
 1.5320	28.7222
 1.5310	28.6714
 1.5300	28.6424
 1.5290	28.6881
 1.5280	28.6286
 1.5270	28.5936
 1.5260	28.5756
 1.5250	28.5558
 1.5240	28.5212
 1.5230	28.4734
 1.5220	28.4189
 1.5210	28.3987
 1.5200	28.3347
 1.5190	28.3070
 1.5180	28.2344
 1.5170	28.2244
 1.5160	28.2189
 1.5150	28.2214
 1.5140	28.2038
 1.5130	28.1476
 1.5120	28.1000
 1.5110	28.1164
 1.5100	28.0969
 1.5090	28.0483
 1.5080	27.9889
 1.5070	27.9771
 1.5060	27.9628
 1.5050	27.9091
 1.5040	27.8701
 1.5030	27.8653
 1.5020	27.8761
 1.5010	27.8600
 1.5000	27.8075
 1.4990	27.7611
 1.4980	27.7841
 1.4970	27.7682
 1.4960	27.6699
 1.4950	27.5865
 1.4940	27.5846
 1.4930	27.5815
 1.4920	27.5538
 1.4910	27.5099
 1.4900	27.4950
 1.4890	27.4516
 1.4880	27.3837
 1.4870	27.3462
 1.4860	27.3421
 1.4850	27.3123
 1.4840	27.2519
 1.4830	27.2100
 1.4820	27.2077
 1.4810	27.1602
 1.4800	27.1106
 1.4790	27.0351
 1.4780	26.9863
 1.4770	26.9674
 1.4760	26.9410
 1.4750	26.8545
 1.4740	26.8412
 1.4730	26.8305
 1.4720	26.7569
 1.4710	26.7307
 1.4700	26.6891
 1.4690	26.5838
 1.4680	26.5713
 1.4670	26.5550
 1.4660	26.5412
 1.4650	26.5015
 1.4640	26.5163
 1.4630	26.4118
 1.4620	26.3882
 1.4610	26.4159
 1.4600	26.4336
 1.4590	26.3362
 1.4580	26.3314
 1.4570	26.2718
 1.4560	26.3163
 1.4550	26.1940
 1.4540	26.2218
 1.4530	26.1970
 1.4520	26.2274
 1.4510	26.1534
 1.4500	26.1439
 1.4490	26.0829
 1.4480	26.1267
 1.4470	26.0621
 1.4460	26.0924
 1.4450	26.0549
 1.4440	25.9998
 1.4430	25.9697
 1.4420	26.0435
 1.4410	26.0076
 1.4400	26.0286
 1.4390	25.9407
 1.4380	25.9823
 1.4370	25.9541
 1.4360	25.9820
 1.4350	25.9409
 1.4340	25.8973
 1.4330	25.8714
 1.4320	25.8971
 1.4310	25.8187
 1.4300	25.8193
 1.4290	25.7770
 1.4280	25.8029
 1.4270	25.7451
 1.4260	25.7165
 1.4250	25.6940
 1.4240	25.7350
 1.4230	25.5909
 1.4220	25.5985
 1.4210	25.4586
 1.4200	25.2387
 1.4190	24.7464
 1.4180	24.2295
 1.4170	23.5994
 1.4160	23.3633
 1.4150	23.3230
 1.4140	23.4196
 1.4130	23.2857
 1.4120	22.7203
 1.4110	21.6399
 1.4100	20.7257
 1.4090	20.1672
 1.4080	20.2521
 1.4070	20.4383
 1.4060	20.5963
 1.4050	20.2942
 1.4040	19.9745
 1.4030	19.6309
 1.4020	20.1191
 1.4010	20.6997
 1.4000	21.3046
 1.3990	21.6897
 1.3980	21.9826
 1.3970	22.0375
 1.3960	22.5718
 1.3950	23.0036
 1.3940	23.7259
 1.3930	24.0193
 1.3920	24.3980
 1.3910	24.5266
 1.3900	24.7816
 1.3890	24.8233
 1.3880	24.7967
 1.3870	24.8464
 1.3860	24.8008
 1.3850	24.8715
 1.3840	24.9108
 1.3830	24.7915
 1.3820	24.8565
 1.3810	24.7771
 1.3800	24.8087
 1.3790	24.8249
 1.3780	24.8986
 1.3770	24.7907
 1.3760	24.8845
 1.3750	24.6867
 1.3740	24.8359
 1.3730	24.6682
 1.3720	24.8146
 1.3710	24.5896
 1.3700	24.6867
 1.3690	24.6264
 1.3680	24.6415
 1.3670	24.4485
 1.3660	24.5366
 1.3650	24.5103
 1.3640	24.5182
 1.3630	24.3070
 1.3620	24.3673
 1.3610	24.2606
 1.3600	24.3504
 1.3590	24.2309
 1.3580	24.3489
 1.3570	24.1686
 1.3560	24.2387
 1.3550	23.9042
 1.3540	24.1451
 1.3530	23.9987
 1.3520	24.0572
 1.3510	23.9701
 1.3500	24.0488
 1.3490	23.9322
 1.3480	23.8397
 1.3470	23.8190
 1.3460	23.8437
 1.3450	23.7095
 1.3440	23.8115
 1.3430	23.6718
 1.3420	23.6897
 1.3410	23.6017
 1.3400	23.6142
 1.3390	23.6034
 1.3380	23.5000
 1.3370	23.3925
 1.3360	23.4326
 1.3350	23.3228
 1.3340	23.3775
 1.3330	23.1981
 1.3320	23.2863
 1.3310	23.2160
 1.3300	23.2049
 1.3290	23.1201
 1.3280	23.1255
 1.3270	23.0699
 1.3260	23.0836
 1.3250	23.0557
 1.3240	23.0251
 1.3230	22.9359
 1.3220	22.8831
 1.3210	22.7852
 1.3200	22.8422
 1.3190	22.7438
 1.3180	22.7736
 1.3170	22.6368
 1.3160	22.6596
 1.3150	22.5984
 1.3140	22.5735
 1.3130	22.4428
 1.3120	22.5725
 1.3110	22.4092
 1.3100	22.4538
 1.3090	22.2940
 1.3080	22.3540
 1.3070	22.2570
 1.3060	22.2636
 1.3050	22.1948
 1.3040	22.1979
 1.3030	22.0618
 1.3020	22.0682
 1.3010	21.9977
 1.3000	22.0091
 1.2990	21.9453
 1.2980	21.8833
 1.2970	21.8152
 1.2960	21.8279
 1.2950	21.7872
 1.2940	21.7505
 1.2930	21.6649
 1.2920	21.6538
 1.2910	21.5311
 1.2900	21.6028
 1.2890	21.4844
 1.2880	21.4954
 1.2870	21.4241
 1.2860	21.4561
 1.2850	21.3355
 1.2840	21.3287
 1.2830	21.2744
 1.2820	21.2042
 1.2810	21.1837
 1.2800	21.1527
 1.2790	21.0234
 1.2780	21.0542
 1.2770	21.0481
 1.2760	21.0399
 1.2750	20.9203
 1.2740	20.9229
 1.2730	20.8632
 1.2720	20.9122
 1.2710	20.7962
 1.2700	20.7889
 1.2690	20.7023
 1.2680	20.6626
 1.2670	20.6177
 1.2660	20.5903
 1.2650	20.5731
 1.2640	20.4860
 1.2630	20.3867
 1.2620	20.4012
 1.2610	20.3264
 1.2600	20.2997
 1.2590	20.2287
 1.2580	20.1843
 1.2570	20.1658
 1.2560	20.1328
 1.2550	20.0820
 1.2540	20.0811
 1.2530	19.9949
 1.2520	19.9325
 1.2510	19.8770
 1.2500	19.8454
 1.2490	19.7656
 1.2480	19.7592
 1.2470	19.7200
 1.2460	19.6741
 1.2450	19.6026
 1.2440	19.6142
 1.2430	19.4812
 1.2420	19.5065
 1.2410	19.4637
 1.2400	19.3836
 1.2390	19.2951
 1.2380	19.2617
 1.2370	19.2085
 1.2360	19.1730
 1.2350	19.1000
 1.2340	19.1027
 1.2330	19.0620
 1.2320	19.0378
 1.2310	18.9738
 1.2300	18.8999
 1.2290	18.8141
 1.2280	18.7700
 1.2270	18.7248
 1.2260	18.6878
 1.2250	18.6434
 1.2240	18.5828
 1.2230	18.5407
 1.2220	18.5147
 1.2210	18.4740
 1.2200	18.4045
 1.2190	18.3356
 1.2180	18.3063
 1.2170	18.2846
 1.2160	18.2401
 1.2150	18.1546
 1.2140	18.0886
 1.2130	18.0726
 1.2120	18.0583
 1.2110	17.9876
 1.2100	17.9032
 1.2090	17.8457
 1.2080	17.7216
 1.2070	17.7179
 1.2060	17.7475
 1.2050	17.7190
 1.2040	17.6357
 1.2030	17.5489
 1.2020	17.4922
 1.2010	17.4827
 1.2000	17.4167
 1.1990	17.4066
 1.1980	17.3081
 1.1970	17.2447
 1.1960	17.2025
 1.1950	17.1460
 1.1940	17.1103
 1.1930	17.0894
 1.1920	17.0034
 1.1910	16.9789
 1.1900	16.9489
 1.1890	16.8727
 1.1880	16.7058
 1.1870	16.7963
 1.1860	16.7729
 1.1850	16.6643
 1.1840	16.5959
 1.1830	16.6044
 1.1820	16.4650
 1.1810	16.4735
 1.1800	16.4622
 1.1790	16.3524
 1.1780	16.2582
 1.1770	16.2601
 1.1760	16.2123
 1.1750	16.1937
 1.1740	16.1177
 1.1730	16.1100
 1.1720	16.0235
 1.1710	15.9628
 1.1700	15.9273
 1.1690	15.8873
 1.1680	15.7898
 1.1670	15.7497
 1.1660	15.6804
 1.1650	15.6917
 1.1640	15.6132
 1.1630	15.6027
 1.1620	15.5636
 1.1610	15.6037
 1.1600	15.4429
 1.1590	15.4521
 1.1580	15.3255
 1.1570	15.3404
 1.1560	15.2976
 1.1550	15.2315
 1.1540	15.1567
 1.1530	15.1351
 1.1520	15.0406
 1.1510	15.0565
 1.1500	14.9850
 1.1490	14.9616
 1.1480	14.8782
 1.1470	14.8834
 1.1460	14.7639
 1.1450	14.7527
 1.1440	14.6777
 1.1430	14.6367
 1.1420	14.5617
 1.1410	14.5640
 1.1400	14.5357
 1.1390	14.4882
 1.1380	14.3382
 1.1370	14.4383
 1.1360	14.3036
 1.1350	14.3667
 1.1340	14.2964
 1.1330	14.2842
 1.1320	14.1286
 1.1310	14.1894
 1.1300	14.1261
 1.1290	14.0992
 1.1280	13.9994
 1.1270	14.0006
 1.1260	13.9181
 1.1250	13.9347
 1.1240	13.8120
 1.1230	13.8684
 1.1220	13.7064
 1.1210	13.7672
 1.1200	13.6411
 1.1190	13.6208
 1.1180	13.5923
 1.1170	13.6417
 1.1160	13.5470
 1.1150	13.5267
 1.1140	13.3834
 1.1130	13.4634
 1.1120	13.3388
 1.1110	13.3169
 1.1100	13.2557
 1.1090	13.3558
 1.1080	13.1529
 1.1070	13.1982
 1.1060	13.1251
 1.1050	13.1992
 1.1040	13.0624
 1.1030	13.1560
 1.1020	12.9372
 1.1010	12.9898
 1.1000	12.9157
 1.0990	12.9457
 1.0980	12.7918
 1.0970	12.8486
 1.0960	12.7464
 1.0950	12.8412
 1.0940	12.6934
 1.0930	12.6744
 1.0920	12.6079
 1.0910	12.6443
 1.0900	12.5979
 1.0890	12.6144
 1.0880	12.4962
 1.0870	12.5704
 1.0860	12.4236
 1.0850	12.5686
 1.0840	12.4185
 1.0830	12.4411
 1.0820	12.3552
 1.0810	12.4131
 1.0800	12.3086
 1.0790	12.2900
 1.0780	12.2850
 1.0770	12.2349
 1.0760	12.2743
 1.0750	12.2391
 1.0740	12.0868
 1.0730	12.1261
 1.0720	12.1192
 1.0710	12.2081
 1.0700	11.8879
 1.0690	12.1692
 1.0680	11.8933
 1.0670	12.0205
 1.0660	11.8326
 1.0650	12.0046
 1.0640	11.9176
 1.0630	11.9183
 1.0620	11.7989
 1.0610	11.8499
 1.0600	11.7044
 1.0590	11.8394
 1.0580	11.7324
 1.0570	11.8015
 1.0560	11.7311
 1.0550	11.7219
 1.0540	11.5749
 1.0530	11.6672
 1.0520	11.6255
 1.0510	11.6484
 1.0500	11.4786
 1.0490	11.6620
 1.0480	11.4874
 1.0470	11.5448
 1.0460	11.4235
 1.0450	11.4859
 1.0440	11.4410
 1.0430	11.4672
 1.0420	11.3833
 1.0410	11.3450
 1.0400	11.3768
 1.0390	11.4518
 1.0380	11.3586
 1.0370	11.3737
 1.0360	11.3275
 1.0350	11.3880
 1.0340	11.2844
 1.0330	11.3232
 1.0320	11.1847
 1.0310	11.2308
 1.0300	11.1931
 1.0290	11.2138
 1.0280	11.1371
 1.0270	11.1707
 1.0260	11.0933
 1.0250	11.2326
 1.0240	11.0924
 1.0230	11.1674
 1.0220	11.0851
 1.0210	11.1587
 1.0200	11.0534
 1.0190	11.1210
 1.0180	10.9847
 1.0170	11.1145
 1.0160	11.0404
 1.0150	11.0668
 1.0140	10.9787
 1.0130	11.0683
 1.0120	10.9705
 1.0110	11.0247
 1.0100	10.9037
 1.0090	11.0136
 1.0080	10.9078
 1.0070	10.9444
 1.0060	10.8781
 1.0050	11.0025
 1.0040	10.8978
 1.0030	10.9297
 1.0020	10.8442
 1.0010	10.8557
 1.0000	10.8150
 0.9990	10.8811
 0.9980	10.8342
 0.9970	10.8609
 0.9960	10.8006
 0.9950	10.8591
 0.9940	10.8106
 0.9930	10.8050
 0.9920	10.7651
 0.9910	10.7885
 0.9900	10.6553
 0.9890	10.7387
 0.9880	10.7768
 0.9870	10.7724
 0.9860	10.6663
 0.9850	10.7428
 0.9840	10.7354
 0.9830	10.7431
 0.9820	10.6955
 0.9810	10.7335
 0.9800	10.6834
 0.9790	10.6719
 0.9780	10.6621
 0.9770	10.6921
 0.9760	10.6419
 0.9750	10.7098
 0.9740	10.6398
 0.9730	10.6337
 0.9720	10.5824
 0.9710	10.6337
 0.9700	10.5804
 0.9690	10.6013
 0.9680	10.5157
 0.9670	10.5368
 0.9660	10.5228
 0.9650	10.5744
 0.9640	10.5525
 0.9630	10.5114
 0.9620	10.4855
 0.9610	10.5819
 0.9600	10.5002
 0.9590	10.5255
 0.9580	10.4663
 0.9570	10.4659
 0.9560	10.4524
 0.9550	10.4612
 0.9540	10.4362
 0.9530	10.4174
 0.9520	10.3919
 0.9510	10.4342
 0.9500	10.4250
 0.9490	10.4026
 0.9480	10.3448
 0.9470	10.3652
 0.9460	10.3277
 0.9450	10.2838
 0.9440	10.2696
 0.9430	10.2771
 0.9420	10.2733
 0.9410	10.3335
 0.9400	10.2705
 0.9390	10.2800
 0.9380	10.2610
 0.9370	10.2318
 0.9360	10.2004
 0.9350	10.1842
 0.9340	10.2034
 0.9330	10.1921
 0.9320	10.1270
 0.9310	10.1278
 0.9300	10.1705
 0.9290	10.0983
 0.9280	10.0770
 0.9270	10.1022
 0.9260	10.0813
 0.9250	10.0567
 0.9240	10.0613
 0.9230	10.0212
 0.9220	 9.9289
 0.9210	 9.9612
 0.9200	 9.9468
 0.9190	 9.8907
 0.9180	 9.9692
 0.9170	 9.9447
 0.9160	 9.9264
 0.9150	 9.9028
 0.9140	 9.8834
 0.9130	 9.8449
 0.9120	 9.8543
 0.9110	 9.8544
 0.9100	 9.7992
 0.9090	 9.7362
 0.9080	 9.7897
 0.9070	 9.7880
 0.9060	 9.7387
 0.9050	 9.7186
 0.9040	 9.7814
 0.9030	 9.6874
 0.9020	 9.6996
 0.9010	 9.6291
 0.9000	 9.6065
 0.8990	 9.6256
 0.8980	 9.6061
 0.8970	 9.5819
 0.8960	 9.5575
 0.8950	 9.5556
 0.8940	 9.5809
 0.8930	 9.5006
 0.8920	 9.4759
 0.8910	 9.4424
 0.8900	 9.4806
 0.8890	 9.4447
 0.8880	 9.4508
 0.8870	 9.3955
 0.8860	 9.4134
 0.8850	 9.3385
 0.8840	 9.3989
 0.8830	 9.3609
 0.8820	 9.3595
 0.8810	 9.2555
 0.8800	 9.3025
 0.8790	 9.2323
 0.8780	 9.2645
 0.8770	 9.2328
 0.8760	 9.3276
 0.8750	 9.2798
 0.8740	 9.2769
 0.8730	 9.1555
 0.8720	 9.1840
 0.8710	 9.1127
 0.8700	 9.1819
 0.8690	 9.1097
 0.8680	 9.1413
 0.8670	 9.0381
 0.8660	 9.1010
 0.8650	 9.0588
 0.8640	 9.1338
 0.8630	 9.0037
 0.8620	 9.1080
 0.8610	 9.0180
 0.8600	 9.2478
 0.8590	 9.2818
 0.8580	 9.2590
 0.8570	 9.2634
 0.8560	 9.2605
 0.8550	 9.2787
 0.8540	 9.2558
 0.8530	 9.2553
 0.8520	 9.2438
 0.8510	 9.2283
 0.8500	 9.2366
 0.8490	 9.2302
 0.8480	 9.2341
 0.8470	 9.2047
 0.8460	 9.2182
 0.8450	 9.2336
 0.8440	 9.2269
 0.8430	 9.2230
 0.8420	 9.2128
 0.8410	 9.1964
 0.8400	 9.1983
 0.8390	 9.2019
 0.8380	 9.1999
 0.8370	 9.1949
 0.8360	 9.2041
 0.8350	 9.2034
 0.8340	 9.1977
 0.8330	 9.1978
 0.8320	 9.1897
 0.8310	 9.1946
 0.8300	 9.1949
 0.8290	 9.1882
 0.8280	 9.2009
 0.8270	 9.1931
 0.8260	 9.1770
 0.8250	 9.1751
 0.8240	 9.1932
 0.8230	 9.1811
 0.8220	 9.1838
 0.8210	 9.1952
 0.8200	 9.1818
 0.8190	 9.1797
 0.8180	 9.1923
 0.8170	 9.1855
 0.8160	 9.1774
 0.8150	 9.1826
 0.8140	 9.1834
 0.8130	 9.1820
 0.8120	 9.1905
 0.8110	 9.1871
 0.8100	 9.1823
 0.8090	 9.1927
 0.8080	 9.1756
 0.8070	 9.1859
 0.8060	 9.1905
 0.8050	 9.1849
 0.8040	 9.1905
 0.8030	 9.1837
 0.8020	 9.1969
 0.8010	 9.1842
 0.8000	 9.1807
 0.7990	 9.1838
 0.7980	 9.1760
 0.7970	 9.1713
 0.7960	 9.1768
 0.7950	 9.1577
 0.7940	 9.1642
 0.7930	 9.1704
 0.7920	 9.1663
 0.7910	 9.1526
 0.7900	 9.1659
 0.7890	 9.1567
 0.7880	 9.1559
 0.7870	 9.1586
 0.7860	 9.1469
 0.7850	 9.1508
 0.7840	 9.1371
 0.7830	 9.1302
 0.7820	 9.1350
 0.7810	 9.1251
 0.7800	 9.1307
 0.7790	 9.1298
 0.7780	 9.1264
 0.7770	 9.1184
 0.7760	 9.1041
 0.7750	 9.1013
 0.7740	 9.0918
 0.7730	 9.0867
 0.7720	 9.0868
 0.7710	 9.0821
 0.7700	 9.0643
 0.7690	 9.0558
 0.7680	 9.0554
 0.7670	 9.0381
 0.7660	 9.0332
 0.7650	 9.0239
 0.7640	 9.0213
 0.7630	 9.0103
 0.7620	 9.0033
 0.7610	 8.9927
 0.7600	 8.9879
 0.7590	 8.9690
 0.7580	 8.9612
 0.7570	 8.9486
 0.7560	 8.9429
 0.7550	 8.9329
 0.7540	 8.9129
 0.7530	 8.8970
 0.7520	 8.8981
 0.7510	 8.8845
 0.7500	 8.8718
 0.7490	 8.8542
 0.7480	 8.8409
 0.7470	 8.8321
 0.7460	 8.8180
 0.7450	 8.8076
 0.7440	 8.7916
 0.7430	 8.7825
 0.7420	 8.7629
 0.7410	 8.7487
 0.7400	 8.7372
 0.7390	 8.7224
 0.7380	 8.7106
 0.7370	 8.6989
 0.7360	 8.6848
 0.7350	 8.6754
 0.7340	 8.6610
 0.7330	 8.6434
 0.7320	 8.6240
 0.7310	 8.6137
 0.7300	 8.6026
 0.7290	 8.5850
 0.7280	 8.5728
 0.7270	 8.5620
 0.7260	 8.5416
 0.7250	 8.5245
 0.7240	 8.5236
 0.7230	 8.4988
 0.7220	 8.4860
 0.7210	 8.4741
 0.7200	 8.4590
 0.7190	 8.4496
 0.7180	 8.4367
 0.7170	 8.4219
 0.7160	 8.4094
 0.7150	 8.3945
 0.7140	 8.3866
 0.7130	 8.3755
 0.7120	 8.3594
 0.7110	 8.3516
 0.7100	 8.3413
 0.7090	 8.3293
 0.7080	 8.3153
 0.7070	 8.3036
 0.7060	 8.2929
 0.7050	 8.2848
 0.7040	 8.2749
 0.7030	 8.2631
 0.7020	 8.2541
 0.7010	 8.2488
 0.7000	 8.2394
 0.6990	 8.2314
 0.6980	 8.2233
 0.6970	 8.2115
 0.6960	 8.2026
 0.6950	 8.1949
 0.6940	 8.1891
 0.6930	 8.1814
 0.6920	 8.1727
 0.6910	 8.1707
 0.6900	 8.1621
 0.6890	 8.1549
 0.6880	 8.1471
 0.6870	 8.1467
 0.6860	 8.1416
 0.6850	 8.1372
 0.6840	 8.1325
 0.6830	 8.1274
 0.6820	 8.1241
 0.6810	 8.1179
 0.6800	 8.1109
 0.6790	 8.1088
 0.6780	 8.1069
 0.6770	 8.1041
 0.6760	 8.0986
 0.6750	 8.0930
 0.6740	 8.0918
 0.6730	 8.0904
 0.6720	 8.0882
 0.6710	 8.0817
 0.6700	 8.0790
 0.6690	 8.0791
 0.6680	 8.0783
 0.6670	 8.0796
 0.6660	 8.0737
 0.6650	 8.0719
 0.6640	 8.0739
 0.6630	 8.0731
 0.6620	 8.0743
 0.6610	 8.0756
 0.6600	 8.0756
 0.6590	 8.0728
 0.6580	 8.0748
 0.6570	 8.0766
 0.6560	 8.0779
 0.6550	 8.0788
 0.6540	 8.0806
 0.6530	 8.0810
 0.6520	 8.0841
 0.6510	 8.0893
 0.6500	 8.0916
 0.6490	 8.0963
 0.6480	 8.0978
 0.6470	 8.1024
 0.6460	 8.1062
 0.6450	 8.1076
 0.6440	 8.1118
 0.6430	 8.1143
 0.6420	 8.1200
 0.6410	 8.1265
 0.6400	 8.1305
 0.6390	 8.1377
 0.6380	 8.1432
 0.6370	 8.1472
 0.6360	 8.1522
 0.6350	 8.1587
 0.6340	 8.1658
 0.6330	 8.1735
 0.6320	 8.1798
 0.6310	 8.1853
 0.6300	 8.1927
 0.6290	 8.1994
 0.6280	 8.2078
 0.6270	 8.2166
 0.6260	 8.2235
 0.6250	 8.2310
 0.6240	 8.2396
 0.6230	 8.2483
 0.6220	 8.2574
 0.6210	 8.2658
 0.6200	 8.2756
 0.6190	 8.2858
 0.6180	 8.2947
 0.6170	 8.3046
 0.6160	 8.3134
 0.6150	 8.3221
 0.6140	 8.3316
 0.6130	 8.3410
 0.6120	 8.3487
 0.6110	 8.3576
 0.6100	 8.3689
 0.6090	 8.3780
 0.6080	 8.3852
 0.6070	 8.3971
 0.6060	 8.4076
 0.6050	 8.4155
 0.6040	 8.4255
 0.6030	 8.4367
 0.6020	 8.4464
 0.6010	 8.4572
 0.6000	 8.4653
 0.5990	 8.4733
 0.5980	 8.4869
 0.5970	 8.4979
 0.5960	 8.5098
 0.5950	 8.5222
 0.5940	 8.5326
 0.5930	 8.5445
 0.5920	 8.5540
 0.5910	 8.5595
 0.5900	 8.5672
 0.5890	 8.5787
 0.5880	 8.5892
 0.5870	 8.5980
 0.5860	 8.6076
 0.5850	 8.6159
 0.5840	 8.6236
 0.5830	 8.6238
 0.5820	 8.6257
 0.5810	 8.6326
 0.5800	 8.6434
 0.5790	 8.6506
 0.5780	 8.6577
 0.5770	 8.6648
 0.5760	 8.6721
 0.5750	 8.6781
 0.5740	 8.6883
 0.5730	 8.6967
 0.5720	 8.7036
 0.5710	 8.7095
 0.5700	 8.7163
 0.5690	 8.7274
 0.5680	 8.7338
 0.5670	 8.7372
 0.5660	 8.7440
 0.5650	 8.7540
 0.5640	 8.7611
 0.5630	 8.7663
 0.5620	 8.7750
 0.5610	 8.7747
 0.5600	 8.7787
 0.5590	 8.7828
 0.5580	 8.7883
 0.5570	 8.7916
 0.5560	 8.7974
 0.5550	 8.8040
 0.5540	 8.8092
 0.5530	 8.8119
 0.5520	 8.8188
 0.5510	 8.8226
 0.5500	 8.8282
 0.5490	 8.8359
 0.5480	 8.8403
 0.5470	 8.8455
 0.5460	 8.8504
 0.5450	 8.8555
 0.5440	 8.8592
 0.5430	 8.8623
 0.5420	 8.8689
 0.5410	 8.8729
 0.5400	 8.8773
 0.5390	 8.8802
 0.5380	 8.8828
 0.5370	 8.8911
 0.5360	 8.8925
 0.5350	 8.8999
 0.5340	 8.9038
 0.5330	 8.9061
 0.5320	 8.9087
 0.5310	 8.9134
 0.5300	 8.9210
 0.5290	 8.9251
 0.5280	 8.9269
 0.5270	 8.9288
 0.5260	 8.9332
 0.5250	 8.9370
 0.5240	 8.9440
 0.5230	 8.9482
 0.5220	 8.9545
 0.5210	 8.9583
 0.5200	 8.9595
 0.5190	 8.9674
 0.5180	 8.9722
 0.5170	 8.9770
 0.5160	 8.9813
 0.5150	 8.9823
 0.5140	 8.9914
 0.5130	 8.9920
 0.5120	 8.9928
 0.5110	 8.9963
 0.5100	 8.9957
 0.5090	 8.9990
 0.5080	 9.0006
 0.5070	 9.0025
 0.5060	 9.0033
 0.5050	 9.0029
 0.5040	 9.0021
 0.5030	 9.0018
 0.5020	 9.0021
 0.5010	 8.9899
 0.5000	 8.9884
 0.4990	 8.9854
 0.4980	 8.9764
 0.4970	 8.9691
 0.4960	 8.9624
 0.4950	 8.9508
 0.4940	 8.9460
 0.4930	 8.9375
 0.4920	 8.9329
 0.4910	 8.9305
 0.4900	 8.9255
 0.4890	 8.9255
 0.4880	 8.9214
 0.4870	 8.9199
 0.4860	 8.9074
 0.4850	 8.8961
 0.4840	 8.8854
 0.4830	 8.8751
 0.4820	 8.8681
 0.4810	 8.8583
 0.4800	 8.8538
 0.4790	 8.8464
 0.4780	 8.8402
 0.4770	 8.8309
 0.4760	 8.8271
 0.4750	 8.8208
 0.4740	 8.8121
 0.4730	 8.8093
 0.4720	 8.8052
 0.4710	 8.8039
 0.4700	 8.8032
 0.4690	 8.8044
 0.4680	 8.8036
 0.4670	 8.8091
 0.4660	 8.8102
 0.4650	 8.8147
 0.4640	 8.8193
 0.4630	 8.8208
 0.4620	 8.8132
 0.4610	 8.8032
 0.4600	 8.7876
 0.4590	 8.7727
 0.4580	 8.7471
 0.4570	 8.7233
 0.4560	 8.6932
 0.4550	 8.6753
 0.4540	 8.6551
 0.4530	 8.6394
 0.4520	 8.6335
 0.4510	 8.6302
 0.4500	 8.6246
 0.4490	 8.6154
 0.4480	 8.6112
 0.4470	 8.5869
 0.4460	 8.5626
 0.4450	 8.5352
 0.4440	 8.5009
 0.4430	 8.4625
 0.4420	 8.4176
 0.4410	 8.3706
 0.4400	 8.3275
 0.4390	 8.2831
 0.4380	 8.2486
 0.4370	 8.2382
 0.4360	 8.2325
 0.4350	 8.2316
 0.4340	 8.2369
 0.4330	 8.2313
 0.4320	 8.2120
 0.4310	 8.1903
 0.4300	 8.1594
 0.4290	 8.1289
 0.4280	 8.0949
 0.4270	 8.0605
 0.4260	 8.0235
 0.4250	 7.9814
 0.4240	 7.9454
 0.4230	 7.8961
 0.4220	 7.8623
 0.4210	 7.8247
 0.4200	 7.7832
 0.4190	 7.7481
 0.4180	 7.7109
 0.4170	 7.6704
 0.4160	 7.6298
 0.4150	 7.5889
 0.4140	 7.5455
 0.4130	 7.5012
 0.4120	 7.4588
 0.4110	 7.4138
 0.4100	 7.3716
 0.4090	 7.3261
 0.4080	 7.2804
 0.4070	 7.2413
 0.4060	 7.2010
 0.4050	 7.1673
 0.4040	 7.1278
 0.4030	 7.0944
 0.4020	 7.0612
 0.4010	 7.0307
 0.4000	 7.0006
