Name: Serpentine (Mg,Fe^2+,Ni)Si_2O_5(OH)_4
Type: Mineral
Class: Silicate
Subclass: Phyllosilicate
Particle Size: Medium
Sample No.: PS-20A
Owner: JPL
Wavelength Range: VSWIR
Origin: USA, New York
Collection Date: N/A
Description: Particle size was 45-125um.Collected by Ward's Original ASTER Spectral Library name was jpl.beckman.mineral.silicate.phyllosilicate.medium.ps20a.spectrum.txt
Measurement: Hemispherical reflectance
First Column: X
Second Column: Y
X Units: Wavelength (micrometers)
Y Units:Reflectance (percent)
First X Value:  0.4000
Last X Value:  2.5000
Number of X Values: 826
Additional Information: mineral.silicate.phyllosilicate.medium.vswir.ps-20a.jpl.beckman.ancillary.txt

 0.4000	50.1700
 0.4010	50.2100
 0.4020	50.1800
 0.4030	50.3100
 0.4040	50.2400
 0.4050	50.2300
 0.4060	50.0600
 0.4070	50.1200
 0.4080	50.1400
 0.4090	50.0200
 0.4100	49.8500
 0.4110	49.8100
 0.4120	49.8000
 0.4130	49.7800
 0.4140	49.7500
 0.4150	49.7300
 0.4160	49.7200
 0.4170	49.7500
 0.4180	49.7500
 0.4190	49.8100
 0.4200	49.6600
 0.4210	49.7800
 0.4220	49.6800
 0.4230	49.5300
 0.4240	49.6300
 0.4250	49.6000
 0.4260	49.5700
 0.4270	49.3900
 0.4280	49.3200
 0.4290	49.4700
 0.4300	49.4100
 0.4310	49.3200
 0.4320	49.2000
 0.4330	49.2000
 0.4340	49.2400
 0.4350	49.3000
 0.4360	49.2600
 0.4370	49.2600
 0.4380	49.3200
 0.4390	49.5300
 0.4400	49.6800
 0.4410	49.8600
 0.4420	50.0200
 0.4430	50.0100
 0.4440	50.1700
 0.4450	50.2200
 0.4460	50.4300
 0.4470	50.5800
 0.4480	50.5800
 0.4490	50.6900
 0.4500	50.8100
 0.4510	50.9700
 0.4520	51.0700
 0.4530	51.1000
 0.4540	51.2500
 0.4550	51.3300
 0.4560	51.4400
 0.4570	51.5500
 0.4580	51.6100
 0.4590	51.8100
 0.4600	51.8800
 0.4610	52.2900
 0.4620	52.6500
 0.4630	52.9500
 0.4640	53.4100
 0.4650	53.6000
 0.4660	54.1800
 0.4670	54.6300
 0.4680	55.0500
 0.4690	55.5000
 0.4700	55.7600
 0.4710	56.3900
 0.4720	56.7400
 0.4730	57.0100
 0.4740	57.3500
 0.4750	57.6700
 0.4760	58.0000
 0.4770	58.3400
 0.4780	58.3600
 0.4790	58.5500
 0.4800	58.8800
 0.4810	58.9800
 0.4820	59.3000
 0.4830	59.3100
 0.4840	59.3300
 0.4850	59.5400
 0.4860	59.7000
 0.4870	59.9000
 0.4880	59.8200
 0.4890	60.1100
 0.4900	60.2100
 0.4910	60.2000
 0.4920	60.3600
 0.4930	60.3300
 0.4940	60.6100
 0.4950	60.8100
 0.4960	60.7400
 0.4970	61.0500
 0.4980	61.1900
 0.4990	61.3800
 0.5000	61.4800
 0.5010	61.4900
 0.5020	61.6600
 0.5030	61.7800
 0.5040	61.9800
 0.5050	62.0500
 0.5060	61.9800
 0.5070	62.2400
 0.5080	62.3900
 0.5090	62.4900
 0.5100	62.5900
 0.5110	62.6800
 0.5120	62.7800
 0.5130	63.0300
 0.5140	63.1700
 0.5150	63.1300
 0.5160	63.3500
 0.5170	63.4000
 0.5180	63.6000
 0.5190	63.5200
 0.5200	63.8000
 0.5210	63.8600
 0.5220	63.8400
 0.5230	63.9400
 0.5240	63.9600
 0.5250	64.1000
 0.5260	64.2500
 0.5270	64.3100
 0.5280	64.2700
 0.5290	64.3500
 0.5300	64.4400
 0.5310	64.7100
 0.5320	64.6200
 0.5330	64.7400
 0.5340	64.8800
 0.5350	64.9500
 0.5360	64.9800
 0.5370	64.9300
 0.5380	65.1500
 0.5390	65.2700
 0.5400	65.3500
 0.5410	65.3300
 0.5420	65.4200
 0.5430	65.4400
 0.5440	65.6300
 0.5450	65.6300
 0.5460	65.6700
 0.5470	65.7400
 0.5480	65.7900
 0.5490	65.9900
 0.5500	65.7800
 0.5510	66.0900
 0.5520	66.1900
 0.5530	66.1000
 0.5540	66.2400
 0.5550	66.2500
 0.5560	66.4100
 0.5570	66.3800
 0.5580	66.3600
 0.5590	66.3200
 0.5600	66.4700
 0.5610	66.9600
 0.5620	66.9600
 0.5630	66.9000
 0.5640	67.0500
 0.5650	67.1600
 0.5660	67.0500
 0.5670	67.1100
 0.5680	67.1800
 0.5690	67.1100
 0.5700	67.1600
 0.5710	67.0900
 0.5720	67.1300
 0.5730	67.2700
 0.5740	67.1600
 0.5750	67.1600
 0.5760	67.0700
 0.5770	67.2200
 0.5780	67.4400
 0.5790	67.3400
 0.5800	67.3800
 0.5810	67.1400
 0.5820	67.2700
 0.5830	67.4200
 0.5840	67.2300
 0.5850	67.3100
 0.5860	67.3100
 0.5870	67.3000
 0.5880	67.4200
 0.5890	67.3000
 0.5900	67.5500
 0.5910	67.4600
 0.5920	67.4800
 0.5930	67.5900
 0.5940	67.4100
 0.5950	67.4900
 0.5960	67.5900
 0.5970	67.5200
 0.5980	67.5100
 0.5990	67.4900
 0.6000	67.6100
 0.6010	67.7200
 0.6020	67.4800
 0.6030	67.7100
 0.6040	67.5700
 0.6050	67.5500
 0.6060	67.6500
 0.6070	67.5900
 0.6080	67.6900
 0.6090	67.7200
 0.6100	67.6200
 0.6110	67.7100
 0.6120	67.5500
 0.6130	67.6300
 0.6140	67.7700
 0.6150	67.6600
 0.6160	67.5900
 0.6170	67.5200
 0.6180	67.5200
 0.6190	67.6000
 0.6200	67.4800
 0.6210	67.4500
 0.6220	67.4200
 0.6230	67.3300
 0.6240	67.4800
 0.6250	67.3000
 0.6260	67.4600
 0.6270	67.2700
 0.6280	67.2500
 0.6290	67.3200
 0.6300	67.2400
 0.6310	67.3800
 0.6320	67.4300
 0.6330	67.3000
 0.6340	67.3400
 0.6350	67.2000
 0.6360	67.3100
 0.6370	67.3800
 0.6380	67.2500
 0.6390	67.1800
 0.6400	67.0500
 0.6410	67.0300
 0.6420	67.1700
 0.6430	67.1000
 0.6440	67.0900
 0.6450	66.9800
 0.6460	67.0000
 0.6470	67.0800
 0.6480	66.9100
 0.6490	67.0000
 0.6500	67.0900
 0.6510	66.8900
 0.6520	67.0100
 0.6530	66.9700
 0.6540	67.0300
 0.6550	67.1400
 0.6560	67.0000
 0.6570	67.0000
 0.6580	66.8900
 0.6590	66.9100
 0.6600	66.9500
 0.6610	66.8000
 0.6620	66.9100
 0.6630	66.8600
 0.6640	66.7600
 0.6650	66.8000
 0.6660	66.7000
 0.6670	66.8300
 0.6680	66.8700
 0.6690	66.6600
 0.6700	66.7600
 0.6710	66.6000
 0.6720	66.6400
 0.6730	66.7700
 0.6740	66.6900
 0.6750	66.7000
 0.6760	66.5500
 0.6770	66.6100
 0.6780	66.6300
 0.6790	66.6200
 0.6800	66.7000
 0.6810	66.6100
 0.6820	66.5700
 0.6830	66.5600
 0.6840	66.4800
 0.6850	66.6100
 0.6860	66.6100
 0.6870	66.4000
 0.6880	66.5200
 0.6890	66.3700
 0.6900	66.4500
 0.6910	66.6200
 0.6920	66.4400
 0.6930	66.4700
 0.6940	66.3300
 0.6950	66.5000
 0.6960	66.5800
 0.6970	66.4200
 0.6980	66.4900
 0.6990	66.2600
 0.7000	66.3700
 0.7010	66.3400
 0.7020	66.2600
 0.7030	66.1800
 0.7040	66.3000
 0.7050	66.2800
 0.7060	66.4300
 0.7070	66.2300
 0.7080	66.1700
 0.7090	66.2900
 0.7100	66.1900
 0.7110	66.2800
 0.7120	66.2300
 0.7130	66.0800
 0.7140	66.1800
 0.7150	66.0900
 0.7160	66.1800
 0.7170	66.0800
 0.7180	66.1700
 0.7190	66.1400
 0.7200	65.9600
 0.7210	65.8600
 0.7220	65.9800
 0.7230	65.9600
 0.7240	66.1000
 0.7250	66.0100
 0.7260	65.9900
 0.7270	65.9800
 0.7280	65.9000
 0.7290	65.9800
 0.7300	65.8300
 0.7310	65.7300
 0.7320	65.7800
 0.7330	65.9100
 0.7340	66.0000
 0.7350	66.0100
 0.7360	65.8500
 0.7370	65.9500
 0.7380	65.9200
 0.7390	65.9600
 0.7400	65.9800
 0.7410	66.0600
 0.7420	66.0100
 0.7430	65.9200
 0.7440	65.9200
 0.7450	65.8500
 0.7460	65.9600
 0.7470	65.9000
 0.7480	65.9200
 0.7490	65.8000
 0.7500	65.9200
 0.7510	65.9500
 0.7520	66.0900
 0.7530	66.0000
 0.7540	65.8300
 0.7550	66.0200
 0.7560	66.0100
 0.7570	66.0300
 0.7580	66.0100
 0.7590	65.8200
 0.7600	66.0100
 0.7610	65.9200
 0.7620	66.0100
 0.7630	65.9400
 0.7640	66.0300
 0.7650	66.0800
 0.7660	65.9700
 0.7670	65.9900
 0.7680	66.0700
 0.7690	66.0500
 0.7700	66.2000
 0.7710	66.1100
 0.7720	66.0000
 0.7730	66.0700
 0.7740	66.1100
 0.7750	66.2600
 0.7760	66.3400
 0.7770	66.1300
 0.7780	66.2200
 0.7790	66.2000
 0.7800	66.3400
 0.7810	66.1300
 0.7820	66.3400
 0.7830	66.4400
 0.7840	66.3000
 0.7850	66.3700
 0.7860	66.4300
 0.7870	66.4900
 0.7880	66.5600
 0.7890	66.4500
 0.7900	66.4200
 0.7910	66.5100
 0.7920	66.6200
 0.7930	66.6900
 0.7940	66.6400
 0.7950	66.4100
 0.7960	66.6500
 0.7970	66.5900
 0.7980	66.8500
 0.7990	66.7200
 0.8000	66.9800
 0.8040	67.0100
 0.8080	67.1000
 0.8120	67.0600
 0.8160	67.0800
 0.8200	67.1000
 0.8240	67.0900
 0.8280	67.0800
 0.8320	67.1200
 0.8360	67.0900
 0.8400	67.1300
 0.8440	67.0400
 0.8480	67.0000
 0.8520	66.9100
 0.8560	66.9100
 0.8600	66.9000
 0.8640	66.9200
 0.8680	66.8000
 0.8720	66.8200
 0.8760	66.6600
 0.8800	66.6000
 0.8840	66.6200
 0.8880	66.6600
 0.8920	66.5600
 0.8960	66.6300
 0.9000	66.5800
 0.9040	66.5300
 0.9080	66.5600
 0.9120	66.5200
 0.9160	66.5800
 0.9200	66.6700
 0.9240	66.7200
 0.9280	66.7100
 0.9320	66.2100
 0.9360	65.6000
 0.9400	65.0500
 0.9440	64.9300
 0.9480	65.1800
 0.9520	65.8200
 0.9560	66.5800
 0.9600	67.0300
 0.9640	67.2300
 0.9680	67.3500
 0.9720	67.4200
 0.9760	67.5400
 0.9800	67.6800
 0.9840	67.8400
 0.9880	67.7800
 0.9920	67.8000
 0.9960	67.8900
 1.0000	67.9600
 1.0040	68.0200
 1.0080	67.9500
 1.0120	68.0800
 1.0160	68.1200
 1.0200	68.2300
 1.0240	68.2800
 1.0280	68.2200
 1.0320	68.2800
 1.0360	68.2700
 1.0400	68.4300
 1.0440	68.4000
 1.0480	68.3600
 1.0520	68.3100
 1.0560	68.3200
 1.0600	68.3900
 1.0640	68.4000
 1.0680	68.4500
 1.0720	68.5100
 1.0760	68.4700
 1.0800	68.3700
 1.0840	68.4000
 1.0880	68.4700
 1.0920	68.5200
 1.0960	68.6500
 1.1000	68.6400
 1.1040	68.5400
 1.1080	68.6100
 1.1120	68.6300
 1.1160	68.7400
 1.1200	68.7900
 1.1240	68.8800
 1.1280	68.8400
 1.1320	68.7700
 1.1360	68.8400
 1.1400	68.8200
 1.1440	68.8400
 1.1480	68.9500
 1.1520	69.0200
 1.1560	68.8900
 1.1600	68.9000
 1.1640	68.9500
 1.1680	69.0500
 1.1720	69.1600
 1.1760	69.2500
 1.1800	69.2900
 1.1840	69.3300
 1.1880	69.3600
 1.1920	69.4200
 1.1960	69.5900
 1.2000	69.6900
 1.2040	69.7700
 1.2080	69.8000
 1.2120	69.9000
 1.2160	69.9100
 1.2200	70.0300
 1.2240	70.0900
 1.2280	70.1300
 1.2320	70.2300
 1.2360	70.2600
 1.2400	70.2700
 1.2440	70.2700
 1.2480	70.2000
 1.2520	69.9800
 1.2560	69.6600
 1.2600	69.4300
 1.2640	69.2700
 1.2680	69.0800
 1.2720	68.5400
 1.2760	68.0900
 1.2800	67.4800
 1.2840	68.1100
 1.2880	69.3700
 1.2920	70.0900
 1.2960	70.3400
 1.3000	70.3800
 1.3040	70.3800
 1.3080	70.6600
 1.3120	70.8800
 1.3160	70.8500
 1.3200	70.9700
 1.3240	70.9300
 1.3280	70.8500
 1.3320	70.8000
 1.3360	70.6300
 1.3400	70.1800
 1.3440	68.8900
 1.3480	65.6600
 1.3520	62.8600
 1.3560	62.6100
 1.3600	64.5200
 1.3640	66.0000
 1.3680	65.2500
 1.3720	59.1800
 1.3760	46.9000
 1.3800	38.4400
 1.3840	36.4200
 1.3880	35.7300
 1.3920	40.1800
 1.3960	48.2500
 1.4000	54.7500
 1.4040	59.0700
 1.4080	62.5100
 1.4120	64.4700
 1.4160	65.3000
 1.4200	65.8800
 1.4240	66.4200
 1.4280	66.8900
 1.4320	67.4500
 1.4360	67.7800
 1.4400	68.1300
 1.4440	68.2800
 1.4480	68.4300
 1.4520	68.6600
 1.4560	68.9100
 1.4600	69.0400
 1.4640	69.2400
 1.4680	69.4200
 1.4720	69.5900
 1.4760	69.8000
 1.4800	69.9700
 1.4840	70.2200
 1.4880	70.4800
 1.4920	70.7100
 1.4960	70.8000
 1.5000	70.8800
 1.5040	70.9000
 1.5080	71.2100
 1.5120	71.4000
 1.5160	71.4700
 1.5200	71.5700
 1.5240	71.6000
 1.5280	71.7900
 1.5320	71.9100
 1.5360	72.0400
 1.5400	72.2600
 1.5440	72.3000
 1.5480	72.4000
 1.5520	72.4600
 1.5560	72.5400
 1.5600	72.6200
 1.5640	72.8200
 1.5680	72.8500
 1.5720	72.9900
 1.5760	73.0000
 1.5800	73.0400
 1.5840	73.0700
 1.5880	73.1300
 1.5920	73.1900
 1.5960	73.2600
 1.6000	73.4400
 1.6040	73.5000
 1.6080	73.4700
 1.6120	73.4600
 1.6160	73.4900
 1.6200	73.4400
 1.6240	73.5000
 1.6280	73.5500
 1.6320	73.5800
 1.6360	73.5900
 1.6400	73.6400
 1.6440	73.6400
 1.6480	73.6100
 1.6520	73.6300
 1.6560	73.6600
 1.6600	73.6600
 1.6640	73.6800
 1.6680	73.6000
 1.6720	73.4500
 1.6760	73.5300
 1.6800	73.4400
 1.6840	73.4800
 1.6880	73.5100
 1.6920	73.3900
 1.6960	73.3500
 1.7000	73.2000
 1.7040	73.1200
 1.7080	73.0400
 1.7120	72.9600
 1.7160	72.8900
 1.7200	72.7100
 1.7240	72.5100
 1.7280	72.4100
 1.7320	72.3800
 1.7360	72.2300
 1.7400	72.1500
 1.7440	71.9500
 1.7480	71.7500
 1.7520	71.5900
 1.7560	71.4600
 1.7600	71.3000
 1.7640	71.1300
 1.7680	70.9500
 1.7720	70.8200
 1.7760	70.8500
 1.7800	70.7300
 1.7840	70.7300
 1.7880	70.5900
 1.7920	70.4600
 1.7960	70.3100
 1.8000	70.0800
 1.8040	69.7500
 1.8080	69.5500
 1.8120	69.4100
 1.8160	69.3900
 1.8200	69.4400
 1.8240	69.6200
 1.8280	69.6400
 1.8320	69.6100
 1.8360	69.4000
 1.8400	69.1400
 1.8440	68.8900
 1.8480	68.5800
 1.8520	68.3600
 1.8560	68.1200
 1.8600	67.7500
 1.8640	67.2600
 1.8680	66.5200
 1.8720	65.7600
 1.8760	64.7300
 1.8800	63.6500
 1.8840	62.4400
 1.8880	61.0700
 1.8920	59.6300
 1.8960	58.0300
 1.9000	56.4400
 1.9040	55.1200
 1.9080	54.0300
 1.9120	53.3300
 1.9160	53.0400
 1.9200	52.7800
 1.9240	52.7200
 1.9280	52.7400
 1.9320	52.8700
 1.9360	52.8300
 1.9400	52.7900
 1.9440	52.7500
 1.9480	52.5000
 1.9520	52.2800
 1.9560	52.1300
 1.9600	51.9200
 1.9640	51.6400
 1.9680	51.5200
 1.9720	51.3900
 1.9760	51.3300
 1.9800	51.4300
 1.9840	51.6700
 1.9880	52.0500
 1.9920	52.4400
 1.9960	52.9800
 2.0000	53.5600
 2.0040	54.1000
 2.0080	54.6500
 2.0120	55.0700
 2.0160	55.4100
 2.0200	55.5100
 2.0240	55.7600
 2.0280	56.0600
 2.0320	56.4600
 2.0360	57.0200
 2.0400	57.6000
 2.0440	58.3000
 2.0480	59.0900
 2.0520	59.7500
 2.0560	60.4600
 2.0600	60.8500
 2.0640	60.7500
 2.0680	60.4100
 2.0720	59.7800
 2.0760	59.0000
 2.0800	58.2700
 2.0840	57.3400
 2.0880	56.4500
 2.0920	55.6700
 2.0960	55.2800
 2.1000	54.9000
 2.1040	54.7200
 2.1080	54.5100
 2.1120	54.3400
 2.1160	54.2000
 2.1200	54.1500
 2.1240	54.1500
 2.1280	54.4600
 2.1320	55.1600
 2.1360	55.9900
 2.1400	57.1600
 2.1440	58.1800
 2.1480	59.1600
 2.1520	59.9000
 2.1560	60.4400
 2.1600	60.8500
 2.1640	61.1900
 2.1680	61.3600
 2.1720	61.4200
 2.1760	61.4400
 2.1800	61.4500
 2.1840	61.4200
 2.1880	61.2300
 2.1920	61.0500
 2.1960	60.8700
 2.2000	60.5400
 2.2040	60.0400
 2.2080	59.4000
 2.2120	58.4800
 2.2160	57.2400
 2.2200	55.6500
 2.2240	53.7200
 2.2280	51.7900
 2.2320	49.8500
 2.2360	48.2700
 2.2400	46.9600
 2.2440	45.7300
 2.2480	44.4600
 2.2520	43.3100
 2.2560	42.0200
 2.2600	40.7100
 2.2640	39.4700
 2.2680	38.5100
 2.2720	37.7700
 2.2760	37.2300
 2.2800	36.7100
 2.2840	36.0800
 2.2880	35.3300
 2.2920	34.2000
 2.2960	32.7600
 2.3000	31.2600
 2.3040	29.1200
 2.3080	27.4200
 2.3120	25.9300
 2.3160	24.7900
 2.3200	24.1300
 2.3240	24.0300
 2.3280	24.4000
 2.3320	25.5400
 2.3360	27.3800
 2.3400	29.6200
 2.3440	31.8600
 2.3480	33.7400
 2.3520	35.1700
 2.3560	35.8100
 2.3600	35.9400
 2.3640	35.4600
 2.3680	34.8200
 2.3720	34.2800
 2.3760	33.6100
 2.3800	32.9600
 2.3840	32.3200
 2.3880	31.8900
 2.3920	31.4600
 2.3960	31.2000
 2.4000	30.9000
 2.4040	30.6500
 2.4080	30.3300
 2.4120	30.1000
 2.4160	29.9000
 2.4200	29.6600
 2.4240	29.4900
 2.4280	29.4300
 2.4320	29.5200
 2.4360	29.7000
 2.4400	29.9200
 2.4440	30.1200
 2.4480	30.2000
 2.4520	30.1800
 2.4560	30.0000
 2.4600	29.6700
 2.4640	29.2400
 2.4680	28.5800
 2.4720	27.8900
 2.4760	27.0900
 2.4800	26.3900
 2.4840	25.7400
 2.4880	25.1200
 2.4920	24.6900
 2.4960	24.3200
 2.5000	24.1200
