Name: Galena PbS
Type: Mineral
Class: Sulfide
Subclass: None
Particle Size: Fine
Sample No.: S-7A
Owner: JPL
Wavelength Range: VSWIR
Origin: USA, Kansas, Cherokee County, Galena.
Collection Date: N/A
Description: Particle size was 0-45um. Collected by:  Grieger's Inc. Original ASTER Spectral Library name was jpl.perkin.mineral.sulfide.none.fine.s07a.spectrum.txt
Measurement: Hemispherical reflectance
First Column: X
Second Column: Y
X Units: Wavelength (micrometers)
Y Units:Reflectance (percent)
First X Value:  2.5000
Last X Value:  0.4000
Number of X Values: 2101
Additional Information: mineral.sulfide.none.fine.vswir.s-7a.jpl.perkin.ancillary.txt

 2.5000	 7.6053
 2.4990	 7.1431
 2.4980	 7.7014
 2.4970	 7.4939
 2.4960	 7.2156
 2.4950	 7.4037
 2.4940	 7.6215
 2.4930	 7.3703
 2.4920	 7.4254
 2.4910	 7.2604
 2.4900	 7.4813
 2.4890	 7.3537
 2.4880	 7.6518
 2.4870	 7.4554
 2.4860	 7.5061
 2.4850	 7.2225
 2.4840	 7.5177
 2.4830	 7.3552
 2.4820	 7.4934
 2.4810	 7.3792
 2.4800	 7.5156
 2.4790	 7.3504
 2.4780	 7.5271
 2.4770	 7.2871
 2.4760	 7.4212
 2.4750	 7.2946
 2.4740	 7.4449
 2.4730	 7.4497
 2.4720	 7.4442
 2.4710	 7.4530
 2.4700	 7.4850
 2.4690	 7.4458
 2.4680	 7.5295
 2.4670	 7.4718
 2.4660	 7.4092
 2.4650	 7.4346
 2.4640	 7.5192
 2.4630	 7.4122
 2.4620	 7.4616
 2.4610	 7.3060
 2.4600	 7.5522
 2.4590	 7.3775
 2.4580	 7.4775
 2.4570	 7.4413
 2.4560	 7.5543
 2.4550	 7.4739
 2.4540	 7.4556
 2.4530	 7.3721
 2.4520	 7.3931
 2.4510	 7.4315
 2.4500	 7.5220
 2.4490	 7.3683
 2.4480	 7.4858
 2.4470	 7.3997
 2.4460	 7.5446
 2.4450	 7.4663
 2.4440	 7.4377
 2.4430	 7.3860
 2.4420	 7.4918
 2.4410	 7.4136
 2.4400	 7.4538
 2.4390	 7.4997
 2.4380	 7.5112
 2.4370	 7.4830
 2.4360	 7.5671
 2.4350	 7.3821
 2.4340	 7.5458
 2.4330	 7.4372
 2.4320	 7.5279
 2.4310	 7.5392
 2.4300	 7.5763
 2.4290	 7.4943
 2.4280	 7.4746
 2.4270	 7.4745
 2.4260	 7.5113
 2.4250	 7.4681
 2.4240	 7.4197
 2.4230	 7.4425
 2.4220	 7.4908
 2.4210	 7.3809
 2.4200	 7.5212
 2.4190	 7.5032
 2.4180	 7.5189
 2.4170	 7.4237
 2.4160	 7.5151
 2.4150	 7.5068
 2.4140	 7.4591
 2.4130	 7.4285
 2.4120	 7.5257
 2.4110	 7.5094
 2.4100	 7.4493
 2.4090	 7.4402
 2.4080	 7.4424
 2.4070	 7.4123
 2.4060	 7.5804
 2.4050	 7.4533
 2.4040	 7.4810
 2.4030	 7.4372
 2.4020	 7.5118
 2.4010	 7.4264
 2.4000	 7.4849
 2.3990	 7.4671
 2.3980	 7.4827
 2.3970	 7.5091
 2.3960	 7.4784
 2.3950	 7.5054
 2.3940	 7.5540
 2.3930	 7.4382
 2.3920	 7.4471
 2.3910	 7.4515
 2.3900	 7.4824
 2.3890	 7.4265
 2.3880	 7.5030
 2.3870	 7.4684
 2.3860	 7.5010
 2.3850	 7.4988
 2.3840	 7.5189
 2.3830	 7.4969
 2.3820	 7.5203
 2.3810	 7.5144
 2.3800	 7.4927
 2.3790	 7.4889
 2.3780	 7.5205
 2.3770	 7.5222
 2.3760	 7.5480
 2.3750	 7.5019
 2.3740	 7.4896
 2.3730	 7.4605
 2.3720	 7.5290
 2.3710	 7.4643
 2.3700	 7.4257
 2.3690	 7.4889
 2.3680	 7.5180
 2.3670	 7.5431
 2.3660	 7.5179
 2.3650	 7.4910
 2.3640	 7.5247
 2.3630	 7.5251
 2.3620	 7.5129
 2.3610	 7.5000
 2.3600	 7.5705
 2.3590	 7.5857
 2.3580	 7.5534
 2.3570	 7.4960
 2.3560	 7.4977
 2.3550	 7.5261
 2.3540	 7.5361
 2.3530	 7.5325
 2.3520	 7.5022
 2.3510	 7.4892
 2.3500	 7.5310
 2.3490	 7.5638
 2.3480	 7.5296
 2.3470	 7.5017
 2.3460	 7.5219
 2.3450	 7.5461
 2.3440	 7.4833
 2.3430	 7.5018
 2.3420	 7.4882
 2.3410	 7.4612
 2.3400	 7.5463
 2.3390	 7.5561
 2.3380	 7.4260
 2.3370	 7.4700
 2.3360	 7.5033
 2.3350	 7.5303
 2.3340	 7.5072
 2.3330	 7.4668
 2.3320	 7.5072
 2.3310	 7.5620
 2.3300	 7.5488
 2.3290	 7.4974
 2.3280	 7.5218
 2.3270	 7.5495
 2.3260	 7.4596
 2.3250	 7.5021
 2.3240	 7.5158
 2.3230	 7.4671
 2.3220	 7.4353
 2.3210	 7.4829
 2.3200	 7.4898
 2.3190	 7.5094
 2.3180	 7.5308
 2.3170	 7.5616
 2.3160	 7.4343
 2.3150	 7.4629
 2.3140	 7.4960
 2.3130	 7.4555
 2.3120	 7.5165
 2.3110	 7.5231
 2.3100	 7.4427
 2.3090	 7.4886
 2.3080	 7.4240
 2.3070	 7.4587
 2.3060	 7.4361
 2.3050	 7.5437
 2.3040	 7.4754
 2.3030	 7.5353
 2.3020	 7.4830
 2.3010	 7.4783
 2.3000	 7.4453
 2.2990	 7.4889
 2.2980	 7.4968
 2.2970	 7.4807
 2.2960	 7.4537
 2.2950	 7.5397
 2.2940	 7.4686
 2.2930	 7.4272
 2.2920	 7.4835
 2.2910	 7.4767
 2.2900	 7.5093
 2.2890	 7.4764
 2.2880	 7.4256
 2.2870	 7.4526
 2.2860	 7.4669
 2.2850	 7.5035
 2.2840	 7.4140
 2.2830	 7.4686
 2.2820	 7.4892
 2.2810	 7.4938
 2.2800	 7.4079
 2.2790	 7.4846
 2.2780	 7.4963
 2.2770	 7.4703
 2.2760	 7.4864
 2.2750	 7.4262
 2.2740	 7.3935
 2.2730	 7.4710
 2.2720	 7.4902
 2.2710	 7.4849
 2.2700	 7.4027
 2.2690	 7.4635
 2.2680	 7.4012
 2.2670	 7.4868
 2.2660	 7.4878
 2.2650	 7.4470
 2.2640	 7.4902
 2.2630	 7.5181
 2.2620	 7.4258
 2.2610	 7.4469
 2.2600	 7.4592
 2.2590	 7.4599
 2.2580	 7.3736
 2.2570	 7.5215
 2.2560	 7.4031
 2.2550	 7.5012
 2.2540	 7.4051
 2.2530	 7.4650
 2.2520	 7.4224
 2.2510	 7.5332
 2.2500	 7.3664
 2.2490	 7.5117
 2.2480	 7.4066
 2.2470	 7.4867
 2.2460	 7.4048
 2.2450	 7.4549
 2.2440	 7.4468
 2.2430	 7.5144
 2.2420	 7.4433
 2.2410	 7.5038
 2.2400	 7.4091
 2.2390	 7.4870
 2.2380	 7.4132
 2.2370	 7.5300
 2.2360	 7.4410
 2.2350	 7.4800
 2.2340	 7.4424
 2.2330	 7.4892
 2.2320	 7.4187
 2.2310	 7.4993
 2.2300	 7.4160
 2.2290	 7.5026
 2.2280	 7.4057
 2.2270	 7.4955
 2.2260	 7.4159
 2.2250	 7.5236
 2.2240	 7.4600
 2.2230	 7.5717
 2.2220	 7.4106
 2.2210	 7.5633
 2.2200	 7.4415
 2.2190	 7.5128
 2.2180	 7.4388
 2.2170	 7.5038
 2.2160	 7.4547
 2.2150	 7.5427
 2.2140	 7.5161
 2.2130	 7.5669
 2.2120	 7.5690
 2.2110	 7.4092
 2.2100	 7.4893
 2.2090	 7.6015
 2.2080	 7.5130
 2.2070	 7.5419
 2.2060	 7.5504
 2.2050	 7.5405
 2.2040	 7.4770
 2.2030	 7.6095
 2.2020	 7.4483
 2.2010	 7.5612
 2.2000	 7.4823
 2.1990	 7.5956
 2.1980	 7.5817
 2.1970	 7.5371
 2.1960	 7.4887
 2.1950	 7.6118
 2.1940	 7.4593
 2.1930	 7.5657
 2.1920	 7.5680
 2.1910	 7.5546
 2.1900	 7.5009
 2.1890	 7.6085
 2.1880	 7.6059
 2.1870	 7.6348
 2.1860	 7.5190
 2.1850	 7.6000
 2.1840	 7.5270
 2.1830	 7.5566
 2.1820	 7.5420
 2.1810	 7.5927
 2.1800	 7.5100
 2.1790	 7.6067
 2.1780	 7.6101
 2.1770	 7.6785
 2.1760	 7.5435
 2.1750	 7.5819
 2.1740	 7.5697
 2.1730	 7.5749
 2.1720	 7.5904
 2.1710	 7.6225
 2.1700	 7.5944
 2.1690	 7.6114
 2.1680	 7.4843
 2.1670	 7.6265
 2.1660	 7.5296
 2.1650	 7.5608
 2.1640	 7.5891
 2.1630	 7.6078
 2.1620	 7.5208
 2.1610	 7.6471
 2.1600	 7.5889
 2.1590	 7.6559
 2.1580	 7.6296
 2.1570	 7.5940
 2.1560	 7.5721
 2.1550	 7.6052
 2.1540	 7.5735
 2.1530	 7.6907
 2.1520	 7.5955
 2.1510	 7.6566
 2.1500	 7.5623
 2.1490	 7.6629
 2.1480	 7.6707
 2.1470	 7.6902
 2.1460	 7.6053
 2.1450	 7.6729
 2.1440	 7.6211
 2.1430	 7.6419
 2.1420	 7.6438
 2.1410	 7.6916
 2.1400	 7.6726
 2.1390	 7.6566
 2.1380	 7.6453
 2.1370	 7.7110
 2.1360	 7.6204
 2.1350	 7.6367
 2.1340	 7.6221
 2.1330	 7.6721
 2.1320	 7.6072
 2.1310	 7.6238
 2.1300	 7.5679
 2.1290	 7.6240
 2.1280	 7.6376
 2.1270	 7.6060
 2.1260	 7.6000
 2.1250	 7.6267
 2.1240	 7.6028
 2.1230	 7.6173
 2.1220	 7.5450
 2.1210	 7.5827
 2.1200	 7.6077
 2.1190	 7.6569
 2.1180	 7.6362
 2.1170	 7.6596
 2.1160	 7.5993
 2.1150	 7.6200
 2.1140	 7.5707
 2.1130	 7.6044
 2.1120	 7.5306
 2.1110	 7.5730
 2.1100	 7.5211
 2.1090	 7.6044
 2.1080	 7.5523
 2.1070	 7.5445
 2.1060	 7.5187
 2.1050	 7.5448
 2.1040	 7.5301
 2.1030	 7.5541
 2.1020	 7.5554
 2.1010	 7.5402
 2.1000	 7.5019
 2.0990	 7.5274
 2.0980	 7.4954
 2.0970	 7.5003
 2.0960	 7.5809
 2.0950	 7.5481
 2.0940	 7.5315
 2.0930	 7.5563
 2.0920	 7.5764
 2.0910	 7.6131
 2.0900	 7.5546
 2.0890	 7.5483
 2.0880	 7.5443
 2.0870	 7.5452
 2.0860	 7.5309
 2.0850	 7.5880
 2.0840	 7.5777
 2.0830	 7.5718
 2.0820	 7.5892
 2.0810	 7.5889
 2.0800	 7.6136
 2.0790	 7.5941
 2.0780	 7.5813
 2.0770	 7.5746
 2.0760	 7.5768
 2.0750	 7.5908
 2.0740	 7.5652
 2.0730	 7.5861
 2.0720	 7.6017
 2.0710	 7.5421
 2.0700	 7.5266
 2.0690	 7.5699
 2.0680	 7.6015
 2.0670	 7.6034
 2.0660	 7.6228
 2.0650	 7.6331
 2.0640	 7.6505
 2.0630	 7.6106
 2.0620	 7.5767
 2.0610	 7.5739
 2.0600	 7.5682
 2.0590	 7.6393
 2.0580	 7.6284
 2.0570	 7.5673
 2.0560	 7.6038
 2.0550	 7.6044
 2.0540	 7.6384
 2.0530	 7.6252
 2.0520	 7.6610
 2.0510	 7.6706
 2.0500	 7.6018
 2.0490	 7.5975
 2.0480	 7.6630
 2.0470	 7.6197
 2.0460	 7.6082
 2.0450	 7.5748
 2.0440	 7.6161
 2.0430	 7.6083
 2.0420	 7.6433
 2.0410	 7.6413
 2.0400	 7.6745
 2.0390	 7.6371
 2.0380	 7.6211
 2.0370	 7.6189
 2.0360	 7.6818
 2.0350	 7.6437
 2.0340	 7.6731
 2.0330	 7.6264
 2.0320	 7.6870
 2.0310	 7.6586
 2.0300	 7.6816
 2.0290	 7.6139
 2.0280	 7.6041
 2.0270	 7.6013
 2.0260	 7.6790
 2.0250	 7.6221
 2.0240	 7.6652
 2.0230	 7.6311
 2.0220	 7.6505
 2.0210	 7.6354
 2.0200	 7.6766
 2.0190	 7.6364
 2.0180	 7.6009
 2.0170	 7.6112
 2.0160	 7.6368
 2.0150	 7.5905
 2.0140	 7.6438
 2.0130	 7.6461
 2.0120	 7.6046
 2.0110	 7.6243
 2.0100	 7.6442
 2.0090	 7.5948
 2.0080	 7.6417
 2.0070	 7.6102
 2.0060	 7.6475
 2.0050	 7.6027
 2.0040	 7.6470
 2.0030	 7.6317
 2.0020	 7.6478
 2.0010	 7.6584
 2.0000	 7.6155
 1.9990	 7.6471
 1.9980	 7.6265
 1.9970	 7.6197
 1.9960	 7.6852
 1.9950	 7.6226
 1.9940	 7.6349
 1.9930	 7.5757
 1.9920	 7.6684
 1.9910	 7.6396
 1.9900	 7.6790
 1.9890	 7.6328
 1.9880	 7.6468
 1.9870	 7.5924
 1.9860	 7.6842
 1.9850	 7.5526
 1.9840	 7.6789
 1.9830	 7.6052
 1.9820	 7.6075
 1.9810	 7.5826
 1.9800	 7.6268
 1.9790	 7.6531
 1.9780	 7.5868
 1.9770	 7.6179
 1.9760	 7.6177
 1.9750	 7.5501
 1.9740	 7.6422
 1.9730	 7.5466
 1.9720	 7.6765
 1.9710	 7.5657
 1.9700	 7.5776
 1.9690	 7.6025
 1.9680	 7.6215
 1.9670	 7.6016
 1.9660	 7.6117
 1.9650	 7.5886
 1.9640	 7.7310
 1.9630	 7.5835
 1.9620	 7.6870
 1.9610	 7.5619
 1.9600	 7.6391
 1.9590	 7.5923
 1.9580	 7.6666
 1.9570	 7.5323
 1.9560	 7.6197
 1.9550	 7.5461
 1.9540	 7.6094
 1.9530	 7.5613
 1.9520	 7.6165
 1.9510	 7.5031
 1.9500	 7.6394
 1.9490	 7.4593
 1.9480	 7.6192
 1.9470	 7.6029
 1.9460	 7.6570
 1.9450	 7.5886
 1.9440	 7.6370
 1.9430	 7.5774
 1.9420	 7.6221
 1.9410	 7.5761
 1.9400	 7.5984
 1.9390	 7.5653
 1.9380	 7.7170
 1.9370	 7.6143
 1.9360	 7.6384
 1.9350	 7.5230
 1.9340	 7.6321
 1.9330	 7.5062
 1.9320	 7.5215
 1.9310	 7.5752
 1.9300	 7.7142
 1.9290	 7.5786
 1.9280	 7.6199
 1.9270	 7.6539
 1.9260	 7.5216
 1.9250	 7.5716
 1.9240	 7.6303
 1.9230	 7.4909
 1.9220	 7.6816
 1.9210	 7.5607
 1.9200	 7.5869
 1.9190	 7.5368
 1.9180	 7.6203
 1.9170	 7.5072
 1.9160	 7.7170
 1.9150	 7.5947
 1.9140	 7.6675
 1.9130	 7.5984
 1.9120	 7.7119
 1.9110	 7.5016
 1.9100	 7.7130
 1.9090	 7.6526
 1.9080	 7.6390
 1.9070	 7.6540
 1.9060	 7.6776
 1.9050	 7.5409
 1.9040	 7.6577
 1.9030	 7.6575
 1.9020	 7.6596
 1.9010	 7.6831
 1.9000	 7.6556
 1.8990	 7.5707
 1.8980	 7.6097
 1.8970	 7.5983
 1.8960	 7.6652
 1.8950	 7.5881
 1.8940	 7.7694
 1.8930	 7.6262
 1.8920	 7.7109
 1.8910	 7.6334
 1.8900	 7.6411
 1.8890	 7.6088
 1.8880	 7.7229
 1.8870	 7.6424
 1.8860	 7.6856
 1.8850	 7.6690
 1.8840	 7.6565
 1.8830	 7.7312
 1.8820	 7.7535
 1.8810	 7.6347
 1.8800	 7.6939
 1.8790	 7.7340
 1.8780	 7.6962
 1.8770	 7.6469
 1.8760	 7.6558
 1.8750	 7.6593
 1.8740	 7.7056
 1.8730	 7.6254
 1.8720	 7.7006
 1.8710	 7.6022
 1.8700	 7.6419
 1.8690	 7.6385
 1.8680	 7.6752
 1.8670	 7.6769
 1.8660	 7.7284
 1.8650	 7.7562
 1.8640	 7.7238
 1.8630	 7.8019
 1.8620	 7.7284
 1.8610	 7.7350
 1.8600	 7.7173
 1.8590	 7.6795
 1.8580	 7.7620
 1.8570	 7.6663
 1.8560	 7.6546
 1.8550	 7.6523
 1.8540	 7.7246
 1.8530	 7.7100
 1.8520	 7.7236
 1.8510	 7.7080
 1.8500	 7.6671
 1.8490	 7.6861
 1.8480	 7.7063
 1.8470	 7.6409
 1.8460	 7.7276
 1.8450	 7.6863
 1.8440	 7.7354
 1.8430	 7.6667
 1.8420	 7.7261
 1.8410	 7.7577
 1.8400	 7.7442
 1.8390	 7.7028
 1.8380	 7.7094
 1.8370	 7.6710
 1.8360	 7.7367
 1.8350	 7.6962
 1.8340	 7.7318
 1.8330	 7.7430
 1.8320	 7.7342
 1.8310	 7.7187
 1.8300	 7.7625
 1.8290	 7.6860
 1.8280	 7.7394
 1.8270	 7.7299
 1.8260	 7.7267
 1.8250	 7.6988
 1.8240	 7.7564
 1.8230	 7.7464
 1.8220	 7.8216
 1.8210	 7.6894
 1.8200	 7.7183
 1.8190	 7.7346
 1.8180	 7.7349
 1.8170	 7.7199
 1.8160	 7.7477
 1.8150	 7.7037
 1.8140	 7.6852
 1.8130	 7.6997
 1.8120	 7.7804
 1.8110	 7.7267
 1.8100	 7.7534
 1.8090	 7.8033
 1.8080	 7.7944
 1.8070	 7.7707
 1.8060	 7.7323
 1.8050	 7.7203
 1.8040	 7.7477
 1.8030	 7.7461
 1.8020	 7.7624
 1.8010	 7.7429
 1.8000	 7.7599
 1.7990	 7.7231
 1.7980	 7.7326
 1.7970	 7.8050
 1.7960	 7.7743
 1.7950	 7.7972
 1.7940	 7.8284
 1.7930	 7.7565
 1.7920	 7.7673
 1.7910	 7.7995
 1.7900	 7.7572
 1.7890	 7.7282
 1.7880	 7.7656
 1.7870	 7.7420
 1.7860	 7.7433
 1.7850	 7.7992
 1.7840	 7.7510
 1.7830	 7.7446
 1.7820	 7.7419
 1.7810	 7.7387
 1.7800	 7.7566
 1.7790	 7.7825
 1.7780	 7.7729
 1.7770	 7.7667
 1.7760	 7.7746
 1.7750	 7.7498
 1.7740	 7.7248
 1.7730	 7.7306
 1.7720	 7.7198
 1.7710	 7.7530
 1.7700	 7.7498
 1.7690	 7.7284
 1.7680	 7.7621
 1.7670	 7.7640
 1.7660	 7.7635
 1.7650	 7.7858
 1.7640	 7.8009
 1.7630	 7.8014
 1.7620	 7.7040
 1.7610	 7.7618
 1.7600	 7.7716
 1.7590	 7.7598
 1.7580	 7.7703
 1.7570	 7.7829
 1.7560	 7.7504
 1.7550	 7.7935
 1.7540	 7.7981
 1.7530	 7.7878
 1.7520	 7.7630
 1.7510	 7.7424
 1.7500	 7.7074
 1.7490	 7.7885
 1.7480	 7.7967
 1.7470	 7.8143
 1.7460	 7.7673
 1.7450	 7.7918
 1.7440	 7.7340
 1.7430	 7.7867
 1.7420	 7.8055
 1.7410	 7.7943
 1.7400	 7.7670
 1.7390	 7.8499
 1.7380	 7.8750
 1.7370	 7.8040
 1.7360	 7.7418
 1.7350	 7.8057
 1.7340	 7.8148
 1.7330	 7.8189
 1.7320	 7.7578
 1.7310	 7.7784
 1.7300	 7.7666
 1.7290	 7.7872
 1.7280	 7.7710
 1.7270	 7.7979
 1.7260	 7.7717
 1.7250	 7.8200
 1.7240	 7.7130
 1.7230	 7.8052
 1.7220	 7.7570
 1.7210	 7.8335
 1.7200	 7.7809
 1.7190	 7.7687
 1.7180	 7.7701
 1.7170	 7.8450
 1.7160	 7.7764
 1.7150	 7.8215
 1.7140	 7.7817
 1.7130	 7.8068
 1.7120	 7.7613
 1.7110	 7.7759
 1.7100	 7.7193
 1.7090	 7.8535
 1.7080	 7.7661
 1.7070	 7.7919
 1.7060	 7.7923
 1.7050	 7.7818
 1.7040	 7.7947
 1.7030	 7.7683
 1.7020	 7.7293
 1.7010	 7.8196
 1.7000	 7.8200
 1.6990	 7.7877
 1.6980	 7.7617
 1.6970	 7.8415
 1.6960	 7.7507
 1.6950	 7.8112
 1.6940	 7.7830
 1.6930	 7.8096
 1.6920	 7.8326
 1.6910	 7.7947
 1.6900	 7.7158
 1.6890	 7.8928
 1.6880	 7.7551
 1.6870	 7.7974
 1.6860	 7.8079
 1.6850	 7.8229
 1.6840	 7.7894
 1.6830	 7.7962
 1.6820	 7.8573
 1.6810	 7.8473
 1.6800	 7.7171
 1.6790	 7.8410
 1.6780	 7.7997
 1.6770	 7.8227
 1.6760	 7.7865
 1.6750	 7.8390
 1.6740	 7.7823
 1.6730	 7.8670
 1.6720	 7.7846
 1.6710	 7.8174
 1.6700	 7.8277
 1.6690	 7.9249
 1.6680	 7.6344
 1.6670	 7.9821
 1.6660	 7.7686
 1.6650	 7.7824
 1.6640	 7.7150
 1.6630	 7.7710
 1.6620	 7.7276
 1.6610	 7.8862
 1.6600	 7.7688
 1.6590	 7.9268
 1.6580	 7.7796
 1.6570	 7.8320
 1.6560	 7.7930
 1.6550	 7.9576
 1.6540	 7.8328
 1.6530	 7.8580
 1.6520	 7.7075
 1.6510	 7.8727
 1.6500	 7.7711
 1.6490	 7.7913
 1.6480	 7.7491
 1.6470	 7.9067
 1.6460	 7.7602
 1.6450	 7.8417
 1.6440	 7.8115
 1.6430	 7.8790
 1.6420	 7.8634
 1.6410	 7.7221
 1.6400	 7.7899
 1.6390	 7.8660
 1.6380	 7.8382
 1.6370	 7.8511
 1.6360	 7.9201
 1.6350	 7.8460
 1.6340	 7.8086
 1.6330	 7.8683
 1.6320	 7.8171
 1.6310	 7.8750
 1.6300	 7.8424
 1.6290	 7.8227
 1.6280	 7.8021
 1.6270	 7.9451
 1.6260	 7.7763
 1.6250	 7.9465
 1.6240	 7.8502
 1.6230	 7.8879
 1.6220	 7.8315
 1.6210	 7.8999
 1.6200	 7.8444
 1.6190	 7.8039
 1.6180	 7.8237
 1.6170	 7.8687
 1.6160	 7.7997
 1.6150	 7.8346
 1.6140	 7.8362
 1.6130	 7.9426
 1.6120	 7.8317
 1.6110	 7.8728
 1.6100	 7.7825
 1.6090	 7.8723
 1.6080	 7.8427
 1.6070	 7.9167
 1.6060	 7.8769
 1.6050	 7.8973
 1.6040	 7.8481
 1.6030	 7.9158
 1.6020	 7.8386
 1.6010	 7.9466
 1.6000	 7.9378
 1.5990	 7.8873
 1.5980	 7.8017
 1.5970	 7.9773
 1.5960	 7.8409
 1.5950	 7.9285
 1.5940	 7.7581
 1.5930	 7.9314
 1.5920	 7.9081
 1.5910	 7.9407
 1.5900	 7.8831
 1.5890	 7.8992
 1.5880	 7.8317
 1.5870	 7.8738
 1.5860	 7.8366
 1.5850	 7.9672
 1.5840	 7.8513
 1.5830	 7.8916
 1.5820	 7.8651
 1.5810	 7.9121
 1.5800	 7.8394
 1.5790	 7.8844
 1.5780	 7.8464
 1.5770	 7.9429
 1.5760	 7.8620
 1.5750	 7.9197
 1.5740	 7.8929
 1.5730	 7.8755
 1.5720	 7.8179
 1.5710	 7.8742
 1.5700	 7.9211
 1.5690	 7.8931
 1.5680	 7.8278
 1.5670	 7.8931
 1.5660	 7.8769
 1.5650	 7.8665
 1.5640	 7.8930
 1.5630	 7.9162
 1.5620	 7.9102
 1.5610	 7.9700
 1.5600	 7.8723
 1.5590	 7.8992
 1.5580	 7.9227
 1.5570	 7.9248
 1.5560	 7.8907
 1.5550	 7.9645
 1.5540	 7.8919
 1.5530	 7.8960
 1.5520	 7.8890
 1.5510	 7.8983
 1.5500	 7.9392
 1.5490	 7.9194
 1.5480	 7.8908
 1.5470	 7.9288
 1.5460	 7.8495
 1.5450	 7.9235
 1.5440	 7.9193
 1.5430	 7.9410
 1.5420	 7.8911
 1.5410	 7.9376
 1.5400	 7.9325
 1.5390	 7.9216
 1.5380	 7.9080
 1.5370	 7.9402
 1.5360	 7.8918
 1.5350	 7.9754
 1.5340	 7.9254
 1.5330	 7.9158
 1.5320	 7.9175
 1.5310	 7.9066
 1.5300	 7.9116
 1.5290	 7.9262
 1.5280	 7.8726
 1.5270	 7.9068
 1.5260	 7.9321
 1.5250	 7.9537
 1.5240	 7.8781
 1.5230	 7.9325
 1.5220	 7.9643
 1.5210	 7.9008
 1.5200	 7.8762
 1.5190	 7.9126
 1.5180	 7.9307
 1.5170	 7.9348
 1.5160	 7.9280
 1.5150	 7.9692
 1.5140	 7.9151
 1.5130	 7.8977
 1.5120	 7.9095
 1.5110	 7.9178
 1.5100	 7.9193
 1.5090	 7.9713
 1.5080	 7.9525
 1.5070	 7.8937
 1.5060	 7.8918
 1.5050	 7.9156
 1.5040	 7.9305
 1.5030	 7.9262
 1.5020	 7.9032
 1.5010	 7.9151
 1.5000	 7.9213
 1.4990	 7.9244
 1.4980	 7.9464
 1.4970	 7.9612
 1.4960	 7.9479
 1.4950	 7.9190
 1.4940	 7.9419
 1.4930	 7.9439
 1.4920	 7.9396
 1.4910	 7.9561
 1.4900	 7.9243
 1.4890	 7.9305
 1.4880	 7.9916
 1.4870	 7.9655
 1.4860	 7.9770
 1.4850	 7.9666
 1.4840	 7.9277
 1.4830	 7.8799
 1.4820	 7.9669
 1.4810	 7.9744
 1.4800	 7.9393
 1.4790	 7.9369
 1.4780	 7.9157
 1.4770	 7.9446
 1.4760	 7.9874
 1.4750	 7.9479
 1.4740	 7.9309
 1.4730	 7.9216
 1.4720	 8.0196
 1.4710	 7.9013
 1.4700	 7.9343
 1.4690	 7.9733
 1.4680	 7.9547
 1.4670	 7.9749
 1.4660	 7.9963
 1.4650	 7.9558
 1.4640	 7.9701
 1.4630	 7.9484
 1.4620	 7.9819
 1.4610	 7.9533
 1.4600	 7.9566
 1.4590	 7.9493
 1.4580	 7.9717
 1.4570	 7.9932
 1.4560	 7.9878
 1.4550	 7.9510
 1.4540	 8.0030
 1.4530	 7.9686
 1.4520	 7.9839
 1.4510	 7.9638
 1.4500	 7.9356
 1.4490	 7.9144
 1.4480	 7.9449
 1.4470	 7.9778
 1.4460	 7.9780
 1.4450	 7.9330
 1.4440	 7.9797
 1.4430	 7.9496
 1.4420	 7.9609
 1.4410	 7.9857
 1.4400	 8.0156
 1.4390	 7.9551
 1.4380	 7.9625
 1.4370	 7.9400
 1.4360	 8.1067
 1.4350	 8.0328
 1.4340	 8.0621
 1.4330	 7.9761
 1.4320	 7.9846
 1.4310	 7.9783
 1.4300	 8.0161
 1.4290	 8.0640
 1.4280	 8.0130
 1.4270	 7.9297
 1.4260	 8.0504
 1.4250	 7.9497
 1.4240	 8.0300
 1.4230	 7.9590
 1.4220	 8.0370
 1.4210	 8.0503
 1.4200	 8.0487
 1.4190	 7.9695
 1.4180	 8.0016
 1.4170	 7.9412
 1.4160	 8.0102
 1.4150	 7.9082
 1.4140	 7.9510
 1.4130	 7.9811
 1.4120	 8.0147
 1.4110	 8.0147
 1.4100	 8.0967
 1.4090	 7.9528
 1.4080	 8.0375
 1.4070	 7.9387
 1.4060	 7.9881
 1.4050	 7.9768
 1.4040	 8.0388
 1.4030	 8.0073
 1.4020	 8.0516
 1.4010	 7.9998
 1.4000	 8.0254
 1.3990	 8.0234
 1.3980	 8.0168
 1.3970	 7.9705
 1.3960	 8.0868
 1.3950	 7.9843
 1.3940	 8.0558
 1.3930	 7.9922
 1.3920	 8.0944
 1.3910	 7.9569
 1.3900	 8.1825
 1.3890	 8.0565
 1.3880	 8.0602
 1.3870	 7.9721
 1.3860	 8.1002
 1.3850	 7.9901
 1.3840	 8.1175
 1.3830	 7.9571
 1.3820	 8.0076
 1.3810	 8.0750
 1.3800	 8.0375
 1.3790	 8.0781
 1.3780	 8.1261
 1.3770	 8.0078
 1.3760	 8.1960
 1.3750	 7.9597
 1.3740	 8.0608
 1.3730	 8.0273
 1.3720	 8.1425
 1.3710	 8.0217
 1.3700	 8.0429
 1.3690	 8.0654
 1.3680	 8.0520
 1.3670	 8.0486
 1.3660	 8.1113
 1.3650	 8.0332
 1.3640	 8.1518
 1.3630	 7.9913
 1.3620	 8.1424
 1.3610	 7.9820
 1.3600	 8.1656
 1.3590	 7.9933
 1.3580	 8.2010
 1.3570	 8.0247
 1.3560	 8.2324
 1.3550	 7.8657
 1.3540	 8.1152
 1.3530	 7.9970
 1.3520	 8.1363
 1.3510	 8.0304
 1.3500	 8.1504
 1.3490	 8.0280
 1.3480	 8.1534
 1.3470	 8.0147
 1.3460	 8.1300
 1.3450	 8.1121
 1.3440	 8.0704
 1.3430	 8.0704
 1.3420	 8.1427
 1.3410	 8.0485
 1.3400	 8.1115
 1.3390	 8.1588
 1.3380	 8.1167
 1.3370	 8.0806
 1.3360	 8.0841
 1.3350	 8.0612
 1.3340	 8.0940
 1.3330	 8.0455
 1.3320	 8.0468
 1.3310	 8.0379
 1.3300	 8.1596
 1.3290	 8.0478
 1.3280	 8.1096
 1.3270	 8.0422
 1.3260	 8.1439
 1.3250	 8.1000
 1.3240	 8.0846
 1.3230	 8.0844
 1.3220	 8.0513
 1.3210	 8.1089
 1.3200	 8.1528
 1.3190	 8.1010
 1.3180	 8.1993
 1.3170	 8.1223
 1.3160	 8.1310
 1.3150	 8.0083
 1.3140	 8.1435
 1.3130	 8.0922
 1.3120	 8.1354
 1.3110	 8.1398
 1.3100	 8.1898
 1.3090	 8.0999
 1.3080	 8.1464
 1.3070	 8.0634
 1.3060	 8.1192
 1.3050	 8.0647
 1.3040	 8.1231
 1.3030	 8.1213
 1.3020	 8.1144
 1.3010	 8.1239
 1.3000	 8.1664
 1.2990	 8.1263
 1.2980	 8.1229
 1.2970	 8.0539
 1.2960	 8.1191
 1.2950	 8.1104
 1.2940	 8.1654
 1.2930	 8.1373
 1.2920	 8.1461
 1.2910	 8.1781
 1.2900	 8.1150
 1.2890	 8.1021
 1.2880	 8.1409
 1.2870	 8.1279
 1.2860	 8.1364
 1.2850	 8.0588
 1.2840	 8.1529
 1.2830	 8.1437
 1.2820	 8.1919
 1.2810	 8.1796
 1.2800	 8.1778
 1.2790	 8.1411
 1.2780	 8.1823
 1.2770	 8.1447
 1.2760	 8.1698
 1.2750	 8.1085
 1.2740	 8.1813
 1.2730	 8.1384
 1.2720	 8.0959
 1.2710	 8.1168
 1.2700	 8.2133
 1.2690	 8.1036
 1.2680	 8.1303
 1.2670	 8.1061
 1.2660	 8.1734
 1.2650	 8.1657
 1.2640	 8.1545
 1.2630	 8.1676
 1.2620	 8.1563
 1.2610	 8.0843
 1.2600	 8.1223
 1.2590	 8.1707
 1.2580	 8.2217
 1.2570	 8.1505
 1.2560	 8.1617
 1.2550	 8.1840
 1.2540	 8.1390
 1.2530	 8.1483
 1.2520	 8.1567
 1.2510	 8.1847
 1.2500	 8.1522
 1.2490	 8.1407
 1.2480	 8.1830
 1.2470	 8.1479
 1.2460	 8.2232
 1.2450	 8.1716
 1.2440	 8.1817
 1.2430	 8.2027
 1.2420	 8.1933
 1.2410	 8.1622
 1.2400	 8.1554
 1.2390	 8.1501
 1.2380	 8.1532
 1.2370	 8.1959
 1.2360	 8.2462
 1.2350	 8.2242
 1.2340	 8.2090
 1.2330	 8.1745
 1.2320	 8.1826
 1.2310	 8.1821
 1.2300	 8.1741
 1.2290	 8.1738
 1.2280	 8.2266
 1.2270	 8.2058
 1.2260	 8.1830
 1.2250	 8.2104
 1.2240	 8.1995
 1.2230	 8.1917
 1.2220	 8.2238
 1.2210	 8.2011
 1.2200	 8.1755
 1.2190	 8.1907
 1.2180	 8.2152
 1.2170	 8.2372
 1.2160	 8.2666
 1.2150	 8.2659
 1.2140	 8.2167
 1.2130	 8.1857
 1.2120	 8.1969
 1.2110	 8.2224
 1.2100	 8.2407
 1.2090	 8.2372
 1.2080	 8.1856
 1.2070	 8.2174
 1.2060	 8.2671
 1.2050	 8.2740
 1.2040	 8.2685
 1.2030	 8.2985
 1.2020	 8.2382
 1.2010	 8.2271
 1.2000	 8.2344
 1.1990	 8.2241
 1.1980	 8.2629
 1.1970	 8.2672
 1.1960	 8.2921
 1.1950	 8.3129
 1.1940	 8.2861
 1.1930	 8.2912
 1.1920	 8.2441
 1.1910	 8.2377
 1.1900	 8.1904
 1.1890	 8.2627
 1.1880	 8.1784
 1.1870	 8.2597
 1.1860	 8.2987
 1.1850	 8.2708
 1.1840	 8.1779
 1.1830	 8.2916
 1.1820	 8.2764
 1.1810	 8.2533
 1.1800	 8.2792
 1.1790	 8.3314
 1.1780	 8.2551
 1.1770	 8.2420
 1.1760	 8.3009
 1.1750	 8.3469
 1.1740	 8.2808
 1.1730	 8.2718
 1.1720	 8.2514
 1.1710	 8.2831
 1.1700	 8.2815
 1.1690	 8.3386
 1.1680	 8.2939
 1.1670	 8.3312
 1.1660	 8.2782
 1.1650	 8.3044
 1.1640	 8.2803
 1.1630	 8.3399
 1.1620	 8.3449
 1.1610	 8.3578
 1.1600	 8.3052
 1.1590	 8.3225
 1.1580	 8.3326
 1.1570	 8.3616
 1.1560	 8.3080
 1.1550	 8.3546
 1.1540	 8.3287
 1.1530	 8.3368
 1.1520	 8.2972
 1.1510	 8.4066
 1.1500	 8.2765
 1.1490	 8.3747
 1.1480	 8.3432
 1.1470	 8.3290
 1.1460	 8.3140
 1.1450	 8.3625
 1.1440	 8.3624
 1.1430	 8.3930
 1.1420	 8.3813
 1.1410	 8.4069
 1.1400	 8.3280
 1.1390	 8.3767
 1.1380	 8.3471
 1.1370	 8.3868
 1.1360	 8.3310
 1.1350	 8.4047
 1.1340	 8.2878
 1.1330	 8.3459
 1.1320	 8.3961
 1.1310	 8.4428
 1.1300	 8.3694
 1.1290	 8.4058
 1.1280	 8.2829
 1.1270	 8.4365
 1.1260	 8.3839
 1.1250	 8.4032
 1.1240	 8.4078
 1.1230	 8.4687
 1.1220	 8.3645
 1.1210	 8.4414
 1.1200	 8.4448
 1.1190	 8.3960
 1.1180	 8.3654
 1.1170	 8.4561
 1.1160	 8.4166
 1.1150	 8.4667
 1.1140	 8.3570
 1.1130	 8.4317
 1.1120	 8.4066
 1.1110	 8.4901
 1.1100	 8.3755
 1.1090	 8.5112
 1.1080	 8.4119
 1.1070	 8.5373
 1.1060	 8.4160
 1.1050	 8.4299
 1.1040	 8.4086
 1.1030	 8.4643
 1.1020	 8.3373
 1.1010	 8.4598
 1.1000	 8.3822
 1.0990	 8.4986
 1.0980	 8.3467
 1.0970	 8.5041
 1.0960	 8.3676
 1.0950	 8.5350
 1.0940	 8.4064
 1.0930	 8.4230
 1.0920	 8.5163
 1.0910	 8.4802
 1.0900	 8.3869
 1.0890	 8.4929
 1.0880	 8.4865
 1.0870	 8.5005
 1.0860	 8.4902
 1.0850	 8.5106
 1.0840	 8.4406
 1.0830	 8.4979
 1.0820	 8.3967
 1.0810	 8.5771
 1.0800	 8.4203
 1.0790	 8.4376
 1.0780	 8.4452
 1.0770	 8.5434
 1.0760	 8.3591
 1.0750	 8.6087
 1.0740	 8.4391
 1.0730	 8.5253
 1.0720	 8.4112
 1.0710	 8.6306
 1.0700	 8.2996
 1.0690	 8.5213
 1.0680	 8.4669
 1.0670	 8.5749
 1.0660	 8.4408
 1.0650	 8.4565
 1.0640	 8.5458
 1.0630	 8.4863
 1.0620	 8.5014
 1.0610	 8.5674
 1.0600	 8.5217
 1.0590	 8.5798
 1.0580	 8.4393
 1.0570	 8.6124
 1.0560	 8.5418
 1.0550	 8.5964
 1.0540	 8.4082
 1.0530	 8.6381
 1.0520	 8.4586
 1.0510	 8.5385
 1.0500	 8.4925
 1.0490	 8.5601
 1.0480	 8.5403
 1.0470	 8.6168
 1.0460	 8.4563
 1.0450	 8.6112
 1.0440	 8.5218
 1.0430	 8.6020
 1.0420	 8.4881
 1.0410	 8.6389
 1.0400	 8.4893
 1.0390	 8.5601
 1.0380	 8.4741
 1.0370	 8.6108
 1.0360	 8.5458
 1.0350	 8.5500
 1.0340	 8.5394
 1.0330	 8.6655
 1.0320	 8.4575
 1.0310	 8.4899
 1.0300	 8.5774
 1.0290	 8.5394
 1.0280	 8.4996
 1.0270	 8.5776
 1.0260	 8.6293
 1.0250	 8.6010
 1.0240	 8.5257
 1.0230	 8.5321
 1.0220	 8.5680
 1.0210	 8.6367
 1.0200	 8.6034
 1.0190	 8.5683
 1.0180	 8.5062
 1.0170	 8.6346
 1.0160	 8.5577
 1.0150	 8.6462
 1.0140	 8.6401
 1.0130	 8.6913
 1.0120	 8.5810
 1.0110	 8.6402
 1.0100	 8.5356
 1.0090	 8.6451
 1.0080	 8.6202
 1.0070	 8.6325
 1.0060	 8.5796
 1.0050	 8.6316
 1.0040	 8.6448
 1.0030	 8.6830
 1.0020	 8.5490
 1.0010	 8.5877
 1.0000	 8.6264
 0.9990	 8.5907
 0.9980	 8.5831
 0.9970	 8.6477
 0.9960	 8.6076
 0.9950	 8.6660
 0.9940	 8.6035
 0.9930	 8.6346
 0.9920	 8.6307
 0.9910	 8.6350
 0.9900	 8.6310
 0.9890	 8.7571
 0.9880	 8.6213
 0.9870	 8.6370
 0.9860	 8.6602
 0.9850	 8.7155
 0.9840	 8.6278
 0.9830	 8.6648
 0.9820	 8.6301
 0.9810	 8.7094
 0.9800	 8.6482
 0.9790	 8.6986
 0.9780	 8.7047
 0.9770	 8.6823
 0.9760	 8.6322
 0.9750	 8.7241
 0.9740	 8.6981
 0.9730	 8.7159
 0.9720	 8.6867
 0.9710	 8.6763
 0.9700	 8.6594
 0.9690	 8.6806
 0.9680	 8.6462
 0.9670	 8.6912
 0.9660	 8.6593
 0.9650	 8.6807
 0.9640	 8.6670
 0.9630	 8.7186
 0.9620	 8.7349
 0.9610	 8.7000
 0.9600	 8.7024
 0.9590	 8.7075
 0.9580	 8.7179
 0.9570	 8.7095
 0.9560	 8.7366
 0.9550	 8.7780
 0.9540	 8.7392
 0.9530	 8.7680
 0.9520	 8.7442
 0.9510	 8.7654
 0.9500	 8.7195
 0.9490	 8.7165
 0.9480	 8.7568
 0.9470	 8.7884
 0.9460	 8.7990
 0.9450	 8.7968
 0.9440	 8.7439
 0.9430	 8.7333
 0.9420	 8.6884
 0.9410	 8.7424
 0.9400	 8.7741
 0.9390	 8.7078
 0.9380	 8.7028
 0.9370	 8.7664
 0.9360	 8.7558
 0.9350	 8.7660
 0.9340	 8.7326
 0.9330	 8.7078
 0.9320	 8.7773
 0.9310	 8.7851
 0.9300	 8.7438
 0.9290	 8.7608
 0.9280	 8.7744
 0.9270	 8.7282
 0.9260	 8.7336
 0.9250	 8.7572
 0.9240	 8.8096
 0.9230	 8.8231
 0.9220	 8.7877
 0.9210	 8.7691
 0.9200	 8.7845
 0.9190	 8.8129
 0.9180	 8.8369
 0.9170	 8.8243
 0.9160	 8.7981
 0.9150	 8.7585
 0.9140	 8.8307
 0.9130	 8.8207
 0.9120	 8.8412
 0.9110	 8.8102
 0.9100	 8.7526
 0.9090	 8.7543
 0.9080	 8.8489
 0.9070	 8.8441
 0.9060	 8.8097
 0.9050	 8.7725
 0.9040	 8.8115
 0.9030	 8.7738
 0.9020	 8.8393
 0.9010	 8.7916
 0.9000	 8.8159
 0.8990	 8.7691
 0.8980	 8.8118
 0.8970	 8.8462
 0.8960	 8.7726
 0.8950	 8.7428
 0.8940	 8.8268
 0.8930	 8.7944
 0.8920	 8.8086
 0.8910	 8.8044
 0.8900	 8.8093
 0.8890	 8.8030
 0.8880	 8.8267
 0.8870	 8.8052
 0.8860	 8.8546
 0.8850	 8.8162
 0.8840	 8.7916
 0.8830	 8.7959
 0.8820	 8.8116
 0.8810	 8.7880
 0.8800	 8.8267
 0.8790	 8.8198
 0.8780	 8.8151
 0.8770	 8.7817
 0.8760	 8.8173
 0.8750	 8.8189
 0.8740	 8.8459
 0.8730	 8.7664
 0.8720	 8.8400
 0.8710	 8.7619
 0.8700	 8.8223
 0.8690	 8.7906
 0.8680	 8.8519
 0.8670	 8.8066
 0.8660	 8.7994
 0.8650	 8.8048
 0.8640	 8.8404
 0.8630	 8.8133
 0.8620	 8.8722
 0.8610	 8.7920
 0.8600	 8.9871
 0.8590	 9.0537
 0.8580	 9.0449
 0.8570	 9.0302
 0.8560	 9.0584
 0.8550	 9.0563
 0.8540	 9.0522
 0.8530	 9.0709
 0.8520	 9.0587
 0.8510	 9.0690
 0.8500	 9.0833
 0.8490	 9.1064
 0.8480	 9.0943
 0.8470	 9.0916
 0.8460	 9.1116
 0.8450	 9.0913
 0.8440	 9.1098
 0.8430	 9.1391
 0.8420	 9.1073
 0.8410	 9.1209
 0.8400	 9.1238
 0.8390	 9.1098
 0.8380	 9.1249
 0.8370	 9.1341
 0.8360	 9.1308
 0.8350	 9.1338
 0.8340	 9.1387
 0.8330	 9.1295
 0.8320	 9.1385
 0.8310	 9.1539
 0.8300	 9.1525
 0.8290	 9.1472
 0.8280	 9.1551
 0.8270	 9.1659
 0.8260	 9.1568
 0.8250	 9.1670
 0.8240	 9.1748
 0.8230	 9.1611
 0.8220	 9.1680
 0.8210	 9.1911
 0.8200	 9.1703
 0.8190	 9.1816
 0.8180	 9.1978
 0.8170	 9.1879
 0.8160	 9.1975
 0.8150	 9.1931
 0.8140	 9.2136
 0.8130	 9.2073
 0.8120	 9.2093
 0.8110	 9.2050
 0.8100	 9.2042
 0.8090	 9.2203
 0.8080	 9.2203
 0.8070	 9.2141
 0.8060	 9.2323
 0.8050	 9.2330
 0.8040	 9.2251
 0.8030	 9.2408
 0.8020	 9.2412
 0.8010	 9.2471
 0.8000	 9.2542
 0.7990	 9.2654
 0.7980	 9.2467
 0.7970	 9.2597
 0.7960	 9.2487
 0.7950	 9.2543
 0.7940	 9.2646
 0.7930	 9.2650
 0.7920	 9.2661
 0.7910	 9.2720
 0.7900	 9.2778
 0.7890	 9.2726
 0.7880	 9.2733
 0.7870	 9.2908
 0.7860	 9.2924
 0.7850	 9.2898
 0.7840	 9.2908
 0.7830	 9.2985
 0.7820	 9.3036
 0.7810	 9.3008
 0.7800	 9.3061
 0.7790	 9.3067
 0.7780	 9.3129
 0.7770	 9.3198
 0.7760	 9.3146
 0.7750	 9.3214
 0.7740	 9.3321
 0.7730	 9.3249
 0.7720	 9.3242
 0.7710	 9.3362
 0.7700	 9.3412
 0.7690	 9.3384
 0.7680	 9.3442
 0.7670	 9.3476
 0.7660	 9.3437
 0.7650	 9.3561
 0.7640	 9.3629
 0.7630	 9.3641
 0.7620	 9.3716
 0.7610	 9.3776
 0.7600	 9.3781
 0.7590	 9.3786
 0.7580	 9.3835
 0.7570	 9.3757
 0.7560	 9.3933
 0.7550	 9.3916
 0.7540	 9.3908
 0.7530	 9.4081
 0.7520	 9.4071
 0.7510	 9.4106
 0.7500	 9.4082
 0.7490	 9.4113
 0.7480	 9.4118
 0.7470	 9.4188
 0.7460	 9.4170
 0.7450	 9.4169
 0.7440	 9.4197
 0.7430	 9.4183
 0.7420	 9.4182
 0.7410	 9.4240
 0.7400	 9.4265
 0.7390	 9.4355
 0.7380	 9.4414
 0.7370	 9.4417
 0.7360	 9.4426
 0.7350	 9.4508
 0.7340	 9.4492
 0.7330	 9.4604
 0.7320	 9.4630
 0.7310	 9.4656
 0.7300	 9.4708
 0.7290	 9.4743
 0.7280	 9.4778
 0.7270	 9.4822
 0.7260	 9.4939
 0.7250	 9.4906
 0.7240	 9.4977
 0.7230	 9.5017
 0.7220	 9.5033
 0.7210	 9.5060
 0.7200	 9.5117
 0.7190	 9.5206
 0.7180	 9.5197
 0.7170	 9.5277
 0.7160	 9.5327
 0.7150	 9.5351
 0.7140	 9.5363
 0.7130	 9.5392
 0.7120	 9.5449
 0.7110	 9.5529
 0.7100	 9.5539
 0.7090	 9.5592
 0.7080	 9.5675
 0.7070	 9.5706
 0.7060	 9.5696
 0.7050	 9.5754
 0.7040	 9.5811
 0.7030	 9.5839
 0.7020	 9.5879
 0.7010	 9.5945
 0.7000	 9.5998
 0.6990	 9.6002
 0.6980	 9.6029
 0.6970	 9.6077
 0.6960	 9.6100
 0.6950	 9.6151
 0.6940	 9.6207
 0.6930	 9.6245
 0.6920	 9.6299
 0.6910	 9.6340
 0.6900	 9.6347
 0.6890	 9.6353
 0.6880	 9.6407
 0.6870	 9.6447
 0.6860	 9.6503
 0.6850	 9.6521
 0.6840	 9.6514
 0.6830	 9.6539
 0.6820	 9.6611
 0.6810	 9.6655
 0.6800	 9.6641
 0.6790	 9.6680
 0.6780	 9.6683
 0.6770	 9.6704
 0.6760	 9.6769
 0.6750	 9.6738
 0.6740	 9.6727
 0.6730	 9.6784
 0.6720	 9.6805
 0.6710	 9.6798
 0.6700	 9.6878
 0.6690	 9.6850
 0.6680	 9.6837
 0.6670	 9.6851
 0.6660	 9.6875
 0.6650	 9.6856
 0.6640	 9.6821
 0.6630	 9.6831
 0.6620	 9.6818
 0.6610	 9.6827
 0.6600	 9.6844
 0.6590	 9.6822
 0.6580	 9.6812
 0.6570	 9.6823
 0.6560	 9.6791
 0.6550	 9.6751
 0.6540	 9.6747
 0.6530	 9.6712
 0.6520	 9.6708
 0.6510	 9.6688
 0.6500	 9.6649
 0.6490	 9.6610
 0.6480	 9.6609
 0.6470	 9.6598
 0.6460	 9.6564
 0.6450	 9.6547
 0.6440	 9.6498
 0.6430	 9.6431
 0.6420	 9.6389
 0.6410	 9.6390
 0.6400	 9.6369
 0.6390	 9.6339
 0.6380	 9.6287
 0.6370	 9.6239
 0.6360	 9.6231
 0.6350	 9.6201
 0.6340	 9.6153
 0.6330	 9.6127
 0.6320	 9.6072
 0.6310	 9.6022
 0.6300	 9.6009
 0.6290	 9.5990
 0.6280	 9.5948
 0.6270	 9.5898
 0.6260	 9.5878
 0.6250	 9.5841
 0.6240	 9.5797
 0.6230	 9.5764
 0.6220	 9.5748
 0.6210	 9.5743
 0.6200	 9.5707
 0.6190	 9.5651
 0.6180	 9.5645
 0.6170	 9.5630
 0.6160	 9.5593
 0.6150	 9.5562
 0.6140	 9.5538
 0.6130	 9.5537
 0.6120	 9.5530
 0.6110	 9.5493
 0.6100	 9.5466
 0.6090	 9.5451
 0.6080	 9.5438
 0.6070	 9.5429
 0.6060	 9.5445
 0.6050	 9.5428
 0.6040	 9.5406
 0.6030	 9.5392
 0.6020	 9.5380
 0.6010	 9.5377
 0.6000	 9.5378
 0.5990	 9.5405
 0.5980	 9.5451
 0.5970	 9.5475
 0.5960	 9.5454
 0.5950	 9.5483
 0.5940	 9.5494
 0.5930	 9.5512
 0.5920	 9.5531
 0.5910	 9.5534
 0.5900	 9.5541
 0.5890	 9.5551
 0.5880	 9.5572
 0.5870	 9.5616
 0.5860	 9.5648
 0.5850	 9.5671
 0.5840	 9.5675
 0.5830	 9.5686
 0.5820	 9.5718
 0.5810	 9.5753
 0.5800	 9.5784
 0.5790	 9.5788
 0.5780	 9.5847
 0.5770	 9.5849
 0.5760	 9.5922
 0.5750	 9.5973
 0.5740	 9.5990
 0.5730	 9.6036
 0.5720	 9.6057
 0.5710	 9.6111
 0.5700	 9.6179
 0.5690	 9.6227
 0.5680	 9.6245
 0.5670	 9.6301
 0.5660	 9.6362
 0.5650	 9.6409
 0.5640	 9.6449
 0.5630	 9.6520
 0.5620	 9.6578
 0.5610	 9.6669
 0.5600	 9.6761
 0.5590	 9.6826
 0.5580	 9.6882
 0.5570	 9.6961
 0.5560	 9.7026
 0.5550	 9.7092
 0.5540	 9.7143
 0.5530	 9.7229
 0.5520	 9.7290
 0.5510	 9.7355
 0.5500	 9.7408
 0.5490	 9.7547
 0.5480	 9.7614
 0.5470	 9.7681
 0.5460	 9.7749
 0.5450	 9.7860
 0.5440	 9.7936
 0.5430	 9.7990
 0.5420	 9.8081
 0.5410	 9.8170
 0.5400	 9.8278
 0.5390	 9.8381
 0.5380	 9.8479
 0.5370	 9.8573
 0.5360	 9.8641
 0.5350	 9.8743
 0.5340	 9.8872
 0.5330	 9.8947
 0.5320	 9.9052
 0.5310	 9.9177
 0.5300	 9.9262
 0.5290	 9.9397
 0.5280	 9.9507
 0.5270	 9.9646
 0.5260	 9.9763
 0.5250	 9.9872
 0.5240	 9.9984
 0.5230	10.0096
 0.5220	10.0254
 0.5210	10.0377
 0.5200	10.0517
 0.5190	10.0628
 0.5180	10.0783
 0.5170	10.0945
 0.5160	10.1091
 0.5150	10.1216
 0.5140	10.1430
 0.5130	10.1577
 0.5120	10.1751
 0.5110	10.1880
 0.5100	10.2068
 0.5090	10.2206
 0.5080	10.2412
 0.5070	10.2553
 0.5060	10.2755
 0.5050	10.2904
 0.5040	10.3059
 0.5030	10.3312
 0.5020	10.3533
 0.5010	10.3654
 0.5000	10.3827
 0.4990	10.4079
 0.4980	10.4242
 0.4970	10.4459
 0.4960	10.4674
 0.4950	10.4845
 0.4940	10.5094
 0.4930	10.5243
 0.4920	10.5416
 0.4910	10.5639
 0.4900	10.5785
 0.4890	10.5981
 0.4880	10.6205
 0.4870	10.6392
 0.4860	10.6586
 0.4850	10.6865
 0.4840	10.7030
 0.4830	10.7260
 0.4820	10.7437
 0.4810	10.7586
 0.4800	10.7695
 0.4790	10.7843
 0.4780	10.7938
 0.4770	10.8122
 0.4760	10.8254
 0.4750	10.8481
 0.4740	10.8663
 0.4730	10.8836
 0.4720	10.9023
 0.4710	10.9226
 0.4700	10.9436
 0.4690	10.9606
 0.4680	10.9795
 0.4670	10.9993
 0.4660	11.0177
 0.4650	11.0423
 0.4640	11.0580
 0.4630	11.0803
 0.4620	11.0969
 0.4610	11.1197
 0.4600	11.1386
 0.4590	11.1590
 0.4580	11.1796
 0.4570	11.2062
 0.4560	11.2330
 0.4550	11.2556
 0.4540	11.2726
 0.4530	11.2949
 0.4520	11.3183
 0.4510	11.3431
 0.4500	11.3625
 0.4490	11.3846
 0.4480	11.4090
 0.4470	11.4312
 0.4460	11.4561
 0.4450	11.4822
 0.4440	11.5040
 0.4430	11.5301
 0.4420	11.5511
 0.4410	11.5747
 0.4400	11.6028
 0.4390	11.6247
 0.4380	11.6470
 0.4370	11.6756
 0.4360	11.6934
 0.4350	11.7193
 0.4340	11.7454
 0.4330	11.7672
 0.4320	11.7944
 0.4310	11.8195
 0.4300	11.8442
 0.4290	11.8700
 0.4280	11.8980
 0.4270	11.9259
 0.4260	11.9498
 0.4250	11.9806
 0.4240	12.0032
 0.4230	12.0321
 0.4220	12.0662
 0.4210	12.0905
 0.4200	12.1147
 0.4190	12.1496
 0.4180	12.1717
 0.4170	12.2038
 0.4160	12.2295
 0.4150	12.2578
 0.4140	12.2887
 0.4130	12.3200
 0.4120	12.3486
 0.4110	12.3774
 0.4100	12.4131
 0.4090	12.4415
 0.4080	12.4710
 0.4070	12.5021
 0.4060	12.5310
 0.4050	12.5637
 0.4040	12.6029
 0.4030	12.6376
 0.4020	12.6643
 0.4010	12.6963
 0.4000	12.7317
