Name: Galena PbS
Type: Mineral
Class: Sulfide
Subclass: None
Particle Size: Medium
Sample No.: S-7A
Owner: JPL
Wavelength Range: VSWIR
Origin: USA, Kansas, Cherokee County, Galena.
Collection Date: N/A
Description: Particle size was 45-125um. Collected by:  Grieger's Inc. Original ASTER Spectral Library name was jpl.perkin.mineral.sulfide.none.medium.s07a.spectrum.txt
Measurement: Hemispherical reflectance
First Column: X
Second Column: Y
X Units: Wavelength (micrometers)
Y Units:Reflectance (percent)
First X Value:  2.5000
Last X Value:  0.4000
Number of X Values: 2101
Additional Information: mineral.sulfide.none.medium.vswir.s-7a.jpl.perkin.ancillary.txt

 2.5000	12.2946
 2.4990	12.1222
 2.4980	12.4021
 2.4970	12.3676
 2.4960	12.0332
 2.4950	12.4867
 2.4940	12.2381
 2.4930	12.2068
 2.4920	12.4579
 2.4910	12.1164
 2.4900	12.3670
 2.4890	12.2015
 2.4880	12.3309
 2.4870	12.2637
 2.4860	12.3349
 2.4850	12.2045
 2.4840	12.3180
 2.4830	12.2183
 2.4820	12.3006
 2.4810	12.2294
 2.4800	12.4146
 2.4790	12.1011
 2.4780	12.2486
 2.4770	12.2383
 2.4760	12.3755
 2.4750	12.3977
 2.4740	12.2870
 2.4730	12.2285
 2.4720	12.4150
 2.4710	12.2648
 2.4700	12.3404
 2.4690	12.2718
 2.4680	12.3539
 2.4670	12.3273
 2.4660	12.4001
 2.4650	12.2485
 2.4640	12.4072
 2.4630	12.1740
 2.4620	12.3293
 2.4610	12.2456
 2.4600	12.3264
 2.4590	12.1697
 2.4580	12.3488
 2.4570	12.2761
 2.4560	12.3109
 2.4550	12.2263
 2.4540	12.4202
 2.4530	12.2728
 2.4520	12.3571
 2.4510	12.2660
 2.4500	12.2617
 2.4490	12.1623
 2.4480	12.3295
 2.4470	12.2415
 2.4460	12.3943
 2.4450	12.2314
 2.4440	12.3575
 2.4430	12.3674
 2.4420	12.3170
 2.4410	12.2703
 2.4400	12.3745
 2.4390	12.3122
 2.4380	12.3795
 2.4370	12.3192
 2.4360	12.4569
 2.4350	12.3098
 2.4340	12.3372
 2.4330	12.2540
 2.4320	12.3449
 2.4310	12.2567
 2.4300	12.3155
 2.4290	12.2851
 2.4280	12.3860
 2.4270	12.3654
 2.4260	12.4429
 2.4250	12.3221
 2.4240	12.4097
 2.4230	12.2649
 2.4220	12.2777
 2.4210	12.2857
 2.4200	12.2844
 2.4190	12.3035
 2.4180	12.3657
 2.4170	12.3716
 2.4160	12.3939
 2.4150	12.3150
 2.4140	12.4125
 2.4130	12.3133
 2.4120	12.3660
 2.4110	12.2841
 2.4100	12.3102
 2.4090	12.3900
 2.4080	12.3416
 2.4070	12.2789
 2.4060	12.3767
 2.4050	12.3329
 2.4040	12.3821
 2.4030	12.3421
 2.4020	12.3886
 2.4010	12.2954
 2.4000	12.3691
 2.3990	12.3082
 2.3980	12.2869
 2.3970	12.3416
 2.3960	12.4471
 2.3950	12.3878
 2.3940	12.3260
 2.3930	12.3186
 2.3920	12.3429
 2.3910	12.3598
 2.3900	12.3405
 2.3890	12.2991
 2.3880	12.3826
 2.3870	12.3612
 2.3860	12.3448
 2.3850	12.3230
 2.3840	12.3540
 2.3830	12.3621
 2.3820	12.3873
 2.3810	12.3398
 2.3800	12.3499
 2.3790	12.2876
 2.3780	12.3256
 2.3770	12.3940
 2.3760	12.3541
 2.3750	12.3536
 2.3740	12.3812
 2.3730	12.3221
 2.3720	12.3161
 2.3710	12.3533
 2.3700	12.3547
 2.3690	12.3563
 2.3680	12.3745
 2.3670	12.3812
 2.3660	12.3819
 2.3650	12.3340
 2.3640	12.3550
 2.3630	12.3469
 2.3620	12.3257
 2.3610	12.3633
 2.3600	12.4172
 2.3590	12.4018
 2.3580	12.3856
 2.3570	12.4028
 2.3560	12.4000
 2.3550	12.3820
 2.3540	12.3625
 2.3530	12.3768
 2.3520	12.3840
 2.3510	12.3913
 2.3500	12.3985
 2.3490	12.3490
 2.3480	12.3686
 2.3470	12.4103
 2.3460	12.3830
 2.3450	12.3806
 2.3440	12.3653
 2.3430	12.3916
 2.3420	12.4082
 2.3410	12.3919
 2.3400	12.3355
 2.3390	12.3290
 2.3380	12.3564
 2.3370	12.3360
 2.3360	12.3538
 2.3350	12.4078
 2.3340	12.3265
 2.3330	12.3211
 2.3320	12.3977
 2.3310	12.3936
 2.3300	12.4390
 2.3290	12.4350
 2.3280	12.3602
 2.3270	12.3525
 2.3260	12.3309
 2.3250	12.3212
 2.3240	12.3341
 2.3230	12.3542
 2.3220	12.3539
 2.3210	12.3547
 2.3200	12.3203
 2.3190	12.3839
 2.3180	12.3534
 2.3170	12.3720
 2.3160	12.3136
 2.3150	12.3337
 2.3140	12.2948
 2.3130	12.3226
 2.3120	12.2879
 2.3110	12.3378
 2.3100	12.3517
 2.3090	12.3400
 2.3080	12.3091
 2.3070	12.3870
 2.3060	12.3262
 2.3050	12.3267
 2.3040	12.3452
 2.3030	12.3469
 2.3020	12.3271
 2.3010	12.2818
 2.3000	12.2495
 2.2990	12.3216
 2.2980	12.2980
 2.2970	12.2931
 2.2960	12.2788
 2.2950	12.3621
 2.2940	12.3052
 2.2930	12.3154
 2.2920	12.3341
 2.2910	12.3375
 2.2900	12.3235
 2.2890	12.2817
 2.2880	12.2755
 2.2870	12.3054
 2.2860	12.2614
 2.2850	12.3080
 2.2840	12.2608
 2.2830	12.2926
 2.2820	12.2484
 2.2810	12.3313
 2.2800	12.2639
 2.2790	12.2728
 2.2780	12.2346
 2.2770	12.3423
 2.2760	12.2381
 2.2750	12.3104
 2.2740	12.2759
 2.2730	12.2752
 2.2720	12.2916
 2.2710	12.2769
 2.2700	12.2591
 2.2690	12.2616
 2.2680	12.1325
 2.2670	12.2923
 2.2660	12.2525
 2.2650	12.3231
 2.2640	12.2198
 2.2630	12.2962
 2.2620	12.2203
 2.2610	12.2202
 2.2600	12.1669
 2.2590	12.2660
 2.2580	12.2159
 2.2570	12.2504
 2.2560	12.2047
 2.2550	12.2699
 2.2540	12.2395
 2.2530	12.3131
 2.2520	12.2746
 2.2510	12.2657
 2.2500	12.1587
 2.2490	12.2778
 2.2480	12.2407
 2.2470	12.2469
 2.2460	12.2414
 2.2450	12.2886
 2.2440	12.1986
 2.2430	12.2220
 2.2420	12.2146
 2.2410	12.2204
 2.2400	12.1596
 2.2390	12.1840
 2.2380	12.1349
 2.2370	12.1928
 2.2360	12.1664
 2.2350	12.2847
 2.2340	12.1973
 2.2330	12.1983
 2.2320	12.1899
 2.2310	12.3953
 2.2300	12.1389
 2.2290	12.2404
 2.2280	12.1586
 2.2270	12.1397
 2.2260	12.1708
 2.2250	12.1806
 2.2240	12.1563
 2.2230	12.2005
 2.2220	12.1571
 2.2210	12.2232
 2.2200	12.1197
 2.2190	12.2642
 2.2180	12.2183
 2.2170	12.2523
 2.2160	12.1424
 2.2150	12.2304
 2.2140	12.2300
 2.2130	12.2317
 2.2120	12.3410
 2.2110	12.0653
 2.2100	12.3226
 2.2090	12.2503
 2.2080	12.1587
 2.2070	12.2503
 2.2060	12.1472
 2.2050	12.2442
 2.2040	12.2189
 2.2030	12.3238
 2.2020	12.1567
 2.2010	12.2363
 2.2000	12.1690
 2.1990	12.2840
 2.1980	12.2012
 2.1970	12.2600
 2.1960	12.1753
 2.1950	12.3234
 2.1940	12.2137
 2.1930	12.2833
 2.1920	12.1901
 2.1910	12.3002
 2.1900	12.2266
 2.1890	12.2468
 2.1880	12.1993
 2.1870	12.3056
 2.1860	12.1788
 2.1850	12.2218
 2.1840	12.2399
 2.1830	12.2698
 2.1820	12.2530
 2.1810	12.2461
 2.1800	12.2074
 2.1790	12.2733
 2.1780	12.2910
 2.1770	12.3065
 2.1760	12.2263
 2.1750	12.2941
 2.1740	12.1890
 2.1730	12.2729
 2.1720	12.2498
 2.1710	12.3120
 2.1700	12.2086
 2.1690	12.2873
 2.1680	12.2840
 2.1670	12.3381
 2.1660	12.2618
 2.1650	12.3136
 2.1640	12.2871
 2.1630	12.3332
 2.1620	12.2598
 2.1610	12.3370
 2.1600	12.2700
 2.1590	12.2812
 2.1580	12.3069
 2.1570	12.3620
 2.1560	12.2865
 2.1550	12.3099
 2.1540	12.2622
 2.1530	12.3074
 2.1520	12.3207
 2.1510	12.3688
 2.1500	12.3392
 2.1490	12.3309
 2.1480	12.2561
 2.1470	12.2804
 2.1460	12.3394
 2.1450	12.3618
 2.1440	12.3121
 2.1430	12.3659
 2.1420	12.2681
 2.1410	12.3056
 2.1400	12.3278
 2.1390	12.3785
 2.1380	12.2751
 2.1370	12.3557
 2.1360	12.3089
 2.1350	12.3187
 2.1340	12.3075
 2.1330	12.2834
 2.1320	12.2132
 2.1310	12.2774
 2.1300	12.2175
 2.1290	12.2675
 2.1280	12.3037
 2.1270	12.2975
 2.1260	12.2863
 2.1250	12.2067
 2.1240	12.2181
 2.1230	12.2107
 2.1220	12.1993
 2.1210	12.2110
 2.1200	12.2104
 2.1190	12.2041
 2.1180	12.2310
 2.1170	12.2366
 2.1160	12.1242
 2.1150	12.1672
 2.1140	12.0948
 2.1130	12.0942
 2.1120	12.1151
 2.1110	12.1179
 2.1100	12.1200
 2.1090	12.1734
 2.1080	12.1330
 2.1070	12.0804
 2.1060	12.0958
 2.1050	12.1070
 2.1040	11.9998
 2.1030	12.0346
 2.1020	12.0570
 2.1010	12.0461
 2.1000	12.0499
 2.0990	12.0668
 2.0980	11.9897
 2.0970	11.9885
 2.0960	12.0121
 2.0950	12.0712
 2.0940	12.0418
 2.0930	12.0135
 2.0920	12.0220
 2.0910	12.0248
 2.0900	12.0325
 2.0890	12.0604
 2.0880	12.0448
 2.0870	12.0365
 2.0860	12.0309
 2.0850	12.0194
 2.0840	12.0240
 2.0830	12.0733
 2.0820	12.0673
 2.0810	12.0772
 2.0800	12.0685
 2.0790	12.0494
 2.0780	12.0291
 2.0770	12.0129
 2.0760	12.0892
 2.0750	12.0798
 2.0740	12.0514
 2.0730	12.1060
 2.0720	12.1019
 2.0710	12.0359
 2.0700	12.0215
 2.0690	12.0860
 2.0680	12.0789
 2.0670	12.0274
 2.0660	12.0552
 2.0650	12.1048
 2.0640	12.0927
 2.0630	12.0499
 2.0620	12.0676
 2.0610	12.1311
 2.0600	12.1517
 2.0590	12.1409
 2.0580	12.1069
 2.0570	12.0598
 2.0560	12.0661
 2.0550	12.0461
 2.0540	12.0884
 2.0530	12.0572
 2.0520	12.0582
 2.0510	12.1061
 2.0500	12.0767
 2.0490	12.0702
 2.0480	12.1632
 2.0470	12.1380
 2.0460	12.0896
 2.0450	12.0743
 2.0440	12.0940
 2.0430	12.0715
 2.0420	12.0979
 2.0410	12.1082
 2.0400	12.1228
 2.0390	12.0874
 2.0380	12.1012
 2.0370	12.0755
 2.0360	12.0975
 2.0350	12.0860
 2.0340	12.1266
 2.0330	12.1032
 2.0320	12.0918
 2.0310	12.0533
 2.0300	12.0987
 2.0290	12.0756
 2.0280	12.1234
 2.0270	12.1155
 2.0260	12.1467
 2.0250	12.0903
 2.0240	12.0994
 2.0230	12.0684
 2.0220	12.0984
 2.0210	12.1308
 2.0200	12.1474
 2.0190	12.0837
 2.0180	12.1262
 2.0170	12.0829
 2.0160	12.1047
 2.0150	12.0513
 2.0140	12.0678
 2.0130	12.0586
 2.0120	12.1144
 2.0110	12.0999
 2.0100	12.1266
 2.0090	12.1013
 2.0080	12.1163
 2.0070	12.0637
 2.0060	12.0841
 2.0050	12.0780
 2.0040	12.1217
 2.0030	12.1081
 2.0020	12.1571
 2.0010	12.0509
 2.0000	12.1604
 1.9990	12.0431
 1.9980	12.1482
 1.9970	12.1322
 1.9960	12.2164
 1.9950	12.1002
 1.9940	12.1461
 1.9930	12.0198
 1.9920	12.0868
 1.9910	12.0854
 1.9900	12.0863
 1.9890	12.0616
 1.9880	12.0606
 1.9870	11.9789
 1.9860	12.0654
 1.9850	12.0566
 1.9840	12.1019
 1.9830	12.0715
 1.9820	12.0327
 1.9810	12.0411
 1.9800	12.1140
 1.9790	12.0505
 1.9780	12.0945
 1.9770	12.0154
 1.9760	12.1461
 1.9750	12.0034
 1.9740	12.0634
 1.9730	12.0675
 1.9720	12.1092
 1.9710	12.0532
 1.9700	12.0591
 1.9690	11.9837
 1.9680	12.1140
 1.9670	12.0076
 1.9660	12.0397
 1.9650	12.0590
 1.9640	12.1518
 1.9630	12.0319
 1.9620	12.0293
 1.9610	11.9995
 1.9600	12.0932
 1.9590	12.0572
 1.9580	12.1087
 1.9570	12.0793
 1.9560	12.0788
 1.9550	12.0333
 1.9540	12.0678
 1.9530	12.0347
 1.9520	12.0892
 1.9510	12.0500
 1.9500	12.1257
 1.9490	12.0934
 1.9480	12.0882
 1.9470	11.9664
 1.9460	12.1601
 1.9450	11.9961
 1.9440	12.1048
 1.9430	12.0386
 1.9420	12.1010
 1.9410	12.0630
 1.9400	12.1089
 1.9390	12.0655
 1.9380	12.1266
 1.9370	12.0850
 1.9360	12.1047
 1.9350	12.0754
 1.9340	12.0888
 1.9330	12.1197
 1.9320	12.1320
 1.9310	12.0538
 1.9300	12.0697
 1.9290	12.0190
 1.9280	12.1906
 1.9270	12.1086
 1.9260	12.0217
 1.9250	12.1683
 1.9240	12.1174
 1.9230	12.0331
 1.9220	12.1485
 1.9210	12.0322
 1.9200	12.1119
 1.9190	12.0658
 1.9180	12.1339
 1.9170	12.0527
 1.9160	12.1143
 1.9150	12.1441
 1.9140	12.0997
 1.9130	12.0746
 1.9120	12.1303
 1.9110	12.0427
 1.9100	12.1441
 1.9090	12.0825
 1.9080	12.1507
 1.9070	12.1234
 1.9060	12.2162
 1.9050	12.1206
 1.9040	12.1400
 1.9030	12.0903
 1.9020	12.1559
 1.9010	12.0890
 1.9000	12.1283
 1.8990	12.0495
 1.8980	12.0886
 1.8970	12.0483
 1.8960	12.1173
 1.8950	12.0644
 1.8940	12.1521
 1.8930	11.9849
 1.8920	12.1315
 1.8910	12.0932
 1.8900	12.1199
 1.8890	12.0746
 1.8880	12.1042
 1.8870	12.1117
 1.8860	12.1338
 1.8850	12.1509
 1.8840	12.1830
 1.8830	12.0679
 1.8820	12.1349
 1.8810	12.0488
 1.8800	12.1548
 1.8790	12.1241
 1.8780	12.2141
 1.8770	12.0251
 1.8760	12.1328
 1.8750	12.0526
 1.8740	12.0840
 1.8730	12.0532
 1.8720	12.0932
 1.8710	12.1323
 1.8700	12.1808
 1.8690	12.0540
 1.8680	12.1123
 1.8670	12.0800
 1.8660	12.1603
 1.8650	12.0696
 1.8640	12.1667
 1.8630	12.1489
 1.8620	12.2259
 1.8610	12.1524
 1.8600	12.1531
 1.8590	12.1235
 1.8580	12.1161
 1.8570	12.1308
 1.8560	12.1330
 1.8550	12.1299
 1.8540	12.1742
 1.8530	12.1257
 1.8520	12.1826
 1.8510	12.1677
 1.8500	12.1816
 1.8490	12.1244
 1.8480	12.1541
 1.8470	12.1006
 1.8460	12.1752
 1.8450	12.1052
 1.8440	12.0961
 1.8430	12.1450
 1.8420	12.1451
 1.8410	12.0773
 1.8400	12.1477
 1.8390	12.0879
 1.8380	12.1633
 1.8370	12.0620
 1.8360	12.0700
 1.8350	12.1047
 1.8340	12.1494
 1.8330	12.1284
 1.8320	12.1310
 1.8310	12.1148
 1.8300	12.1401
 1.8290	12.0557
 1.8280	12.1006
 1.8270	12.1195
 1.8260	12.1173
 1.8250	12.0915
 1.8240	12.1189
 1.8230	12.1011
 1.8220	12.1864
 1.8210	12.1823
 1.8200	12.1416
 1.8190	12.1081
 1.8180	12.1154
 1.8170	12.1053
 1.8160	12.1674
 1.8150	12.1414
 1.8140	12.1479
 1.8130	12.1327
 1.8120	12.1205
 1.8110	12.0948
 1.8100	12.1016
 1.8090	12.1377
 1.8080	12.1918
 1.8070	12.1462
 1.8060	12.1123
 1.8050	12.1113
 1.8040	12.1213
 1.8030	12.0659
 1.8020	12.1176
 1.8010	12.1645
 1.8000	12.1606
 1.7990	12.1321
 1.7980	12.1231
 1.7970	12.1275
 1.7960	12.1489
 1.7950	12.1442
 1.7940	12.1134
 1.7930	12.1314
 1.7920	12.1228
 1.7910	12.1041
 1.7900	12.1415
 1.7890	12.1114
 1.7880	12.0815
 1.7870	12.1055
 1.7860	12.1534
 1.7850	12.1753
 1.7840	12.1126
 1.7830	12.1042
 1.7820	12.1448
 1.7810	12.1255
 1.7800	12.1008
 1.7790	12.1372
 1.7780	12.1211
 1.7770	12.1248
 1.7760	12.1143
 1.7750	12.1012
 1.7740	12.0932
 1.7730	12.0265
 1.7720	12.0498
 1.7710	12.0732
 1.7700	12.1014
 1.7690	12.1584
 1.7680	12.1425
 1.7670	12.1514
 1.7660	12.1551
 1.7650	12.1071
 1.7640	12.0321
 1.7630	12.1052
 1.7620	12.1045
 1.7610	12.1212
 1.7600	12.0814
 1.7590	12.1328
 1.7580	12.1812
 1.7570	12.1578
 1.7560	12.0921
 1.7550	12.0574
 1.7540	12.0870
 1.7530	12.1721
 1.7520	12.1203
 1.7510	12.1247
 1.7500	12.0761
 1.7490	12.1267
 1.7480	12.1200
 1.7470	12.1344
 1.7460	12.1494
 1.7450	12.1702
 1.7440	12.1112
 1.7430	12.1326
 1.7420	12.1149
 1.7410	12.1808
 1.7400	12.0969
 1.7390	12.1151
 1.7380	12.1453
 1.7370	12.1379
 1.7360	12.1168
 1.7350	12.1013
 1.7340	12.1253
 1.7330	12.1767
 1.7320	12.1009
 1.7310	12.1354
 1.7300	12.0671
 1.7290	12.1039
 1.7280	12.1082
 1.7270	12.2251
 1.7260	12.1144
 1.7250	12.1816
 1.7240	12.1152
 1.7230	12.1316
 1.7220	12.1069
 1.7210	12.1293
 1.7200	12.1145
 1.7190	12.1252
 1.7180	12.1603
 1.7170	12.1389
 1.7160	12.1111
 1.7150	12.1731
 1.7140	12.1531
 1.7130	12.1471
 1.7120	12.1185
 1.7110	12.1938
 1.7100	12.0860
 1.7090	12.1524
 1.7080	12.0493
 1.7070	12.1856
 1.7060	12.1414
 1.7050	12.2128
 1.7040	12.0656
 1.7030	12.1183
 1.7020	12.0961
 1.7010	12.1404
 1.7000	12.1144
 1.6990	12.2831
 1.6980	12.0994
 1.6970	12.1189
 1.6960	12.1141
 1.6950	12.1390
 1.6940	12.0976
 1.6930	12.1029
 1.6920	12.0473
 1.6910	12.1352
 1.6900	12.1159
 1.6890	12.0976
 1.6880	12.1156
 1.6870	12.0855
 1.6860	12.0662
 1.6850	12.2009
 1.6840	12.1364
 1.6830	12.1409
 1.6820	12.0739
 1.6810	12.1394
 1.6800	12.1446
 1.6790	12.1462
 1.6780	12.1113
 1.6770	12.1573
 1.6760	12.0925
 1.6750	12.1379
 1.6740	12.1431
 1.6730	12.1518
 1.6720	12.0836
 1.6710	12.1298
 1.6700	12.1257
 1.6690	12.2472
 1.6680	11.9468
 1.6670	12.1146
 1.6660	12.0827
 1.6650	12.1527
 1.6640	12.0893
 1.6630	12.1942
 1.6620	12.0835
 1.6610	12.2115
 1.6600	12.1545
 1.6590	12.2167
 1.6580	12.0869
 1.6570	12.1018
 1.6560	12.0747
 1.6550	12.1191
 1.6540	12.1877
 1.6530	12.2007
 1.6520	12.1253
 1.6510	12.1542
 1.6500	12.1197
 1.6490	12.1710
 1.6480	12.1125
 1.6470	12.2269
 1.6460	12.0569
 1.6450	12.2035
 1.6440	12.0402
 1.6430	12.1153
 1.6420	12.1414
 1.6410	12.0393
 1.6400	12.1341
 1.6390	12.1237
 1.6380	12.0685
 1.6370	12.2219
 1.6360	12.1536
 1.6350	12.1748
 1.6340	12.0696
 1.6330	12.1873
 1.6320	12.0748
 1.6310	12.1526
 1.6300	12.0907
 1.6290	12.2042
 1.6280	12.1413
 1.6270	12.1500
 1.6260	12.0844
 1.6250	12.1878
 1.6240	12.0851
 1.6230	12.1937
 1.6220	12.0979
 1.6210	12.1926
 1.6200	12.0771
 1.6190	12.0945
 1.6180	12.1359
 1.6170	12.1751
 1.6160	12.0655
 1.6150	12.1806
 1.6140	12.1836
 1.6130	12.2255
 1.6120	12.0871
 1.6110	12.1034
 1.6100	12.1541
 1.6090	12.1395
 1.6080	12.1512
 1.6070	12.1549
 1.6060	12.1570
 1.6050	12.2186
 1.6040	12.1407
 1.6030	12.1626
 1.6020	12.0971
 1.6010	12.1966
 1.6000	12.1979
 1.5990	12.1618
 1.5980	12.0928
 1.5970	12.1581
 1.5960	12.1651
 1.5950	12.1535
 1.5940	12.1711
 1.5930	12.1178
 1.5920	12.1066
 1.5910	12.1833
 1.5900	12.1485
 1.5890	12.2235
 1.5880	12.1292
 1.5870	12.2228
 1.5860	12.1822
 1.5850	12.2182
 1.5840	12.1387
 1.5830	12.1363
 1.5820	12.1961
 1.5810	12.1954
 1.5800	12.1835
 1.5790	12.1849
 1.5780	12.1266
 1.5770	12.1975
 1.5760	12.1445
 1.5750	12.1981
 1.5740	12.1664
 1.5730	12.1854
 1.5720	12.1867
 1.5710	12.2099
 1.5700	12.1305
 1.5690	12.1189
 1.5680	12.0836
 1.5670	12.2399
 1.5660	12.2266
 1.5650	12.2115
 1.5640	12.1781
 1.5630	12.1779
 1.5620	12.1261
 1.5610	12.2059
 1.5600	12.1142
 1.5590	12.1644
 1.5580	12.1659
 1.5570	12.2013
 1.5560	12.1812
 1.5550	12.1897
 1.5540	12.1024
 1.5530	12.1802
 1.5520	12.1761
 1.5510	12.2408
 1.5500	12.1796
 1.5490	12.1654
 1.5480	12.1658
 1.5470	12.1806
 1.5460	12.1395
 1.5450	12.1988
 1.5440	12.1540
 1.5430	12.1659
 1.5420	12.1598
 1.5410	12.1661
 1.5400	12.1774
 1.5390	12.1609
 1.5380	12.1590
 1.5370	12.1922
 1.5360	12.1519
 1.5350	12.1455
 1.5340	12.1769
 1.5330	12.1670
 1.5320	12.1711
 1.5310	12.2467
 1.5300	12.1643
 1.5290	12.2153
 1.5280	12.1897
 1.5270	12.1759
 1.5260	12.1899
 1.5250	12.1967
 1.5240	12.1549
 1.5230	12.1553
 1.5220	12.1543
 1.5210	12.1375
 1.5200	12.1616
 1.5190	12.2243
 1.5180	12.1971
 1.5170	12.1510
 1.5160	12.1545
 1.5150	12.2097
 1.5140	12.1902
 1.5130	12.1862
 1.5120	12.1813
 1.5110	12.2399
 1.5100	12.2079
 1.5090	12.1852
 1.5080	12.1501
 1.5070	12.1608
 1.5060	12.1884
 1.5050	12.1878
 1.5040	12.1996
 1.5030	12.1802
 1.5020	12.1733
 1.5010	12.1471
 1.5000	12.1616
 1.4990	12.2085
 1.4980	12.2501
 1.4970	12.2052
 1.4960	12.1864
 1.4950	12.2223
 1.4940	12.2384
 1.4930	12.2147
 1.4920	12.1804
 1.4910	12.2062
 1.4900	12.2181
 1.4890	12.2213
 1.4880	12.1658
 1.4870	12.1835
 1.4860	12.2509
 1.4850	12.2073
 1.4840	12.2095
 1.4830	12.1822
 1.4820	12.1575
 1.4810	12.1429
 1.4800	12.1860
 1.4790	12.1778
 1.4780	12.2315
 1.4770	12.2260
 1.4760	12.1842
 1.4750	12.1912
 1.4740	12.2332
 1.4730	12.2392
 1.4720	12.2129
 1.4710	12.2072
 1.4700	12.1933
 1.4690	12.1793
 1.4680	12.1978
 1.4670	12.1828
 1.4660	12.1800
 1.4650	12.1753
 1.4640	12.1970
 1.4630	12.2013
 1.4620	12.1866
 1.4610	12.1060
 1.4600	12.1653
 1.4590	12.1914
 1.4580	12.2133
 1.4570	12.1799
 1.4560	12.2160
 1.4550	12.2878
 1.4540	12.2565
 1.4530	12.2563
 1.4520	12.2540
 1.4510	12.1971
 1.4500	12.2703
 1.4490	12.2027
 1.4480	12.2086
 1.4470	12.2271
 1.4460	12.2590
 1.4450	12.1712
 1.4440	12.1666
 1.4430	12.1998
 1.4420	12.1592
 1.4410	12.1902
 1.4400	12.2801
 1.4390	12.1868
 1.4380	12.2889
 1.4370	12.2098
 1.4360	12.2850
 1.4350	12.1588
 1.4340	12.2234
 1.4330	12.1645
 1.4320	12.1846
 1.4310	12.1826
 1.4300	12.2402
 1.4290	12.2001
 1.4280	12.1746
 1.4270	12.1078
 1.4260	12.2532
 1.4250	12.2319
 1.4240	12.2966
 1.4230	12.1783
 1.4220	12.1783
 1.4210	12.2433
 1.4200	12.2229
 1.4190	12.1983
 1.4180	12.2109
 1.4170	12.1651
 1.4160	12.3065
 1.4150	12.2464
 1.4140	12.2478
 1.4130	12.1553
 1.4120	12.2178
 1.4110	12.2219
 1.4100	12.2891
 1.4090	12.2052
 1.4080	12.2553
 1.4070	12.2083
 1.4060	12.2409
 1.4050	12.2114
 1.4040	12.2426
 1.4030	12.2064
 1.4020	12.2883
 1.4010	12.2003
 1.4000	12.1811
 1.3990	12.1665
 1.3980	12.3460
 1.3970	12.1952
 1.3960	12.2946
 1.3950	12.1942
 1.3940	12.2828
 1.3930	12.2126
 1.3920	12.2308
 1.3910	12.2326
 1.3900	12.2912
 1.3890	12.2739
 1.3880	12.2685
 1.3870	12.2272
 1.3860	12.3154
 1.3850	12.2399
 1.3840	12.2294
 1.3830	12.1430
 1.3820	12.2273
 1.3810	12.1052
 1.3800	12.2846
 1.3790	12.1940
 1.3780	12.3815
 1.3770	12.2455
 1.3760	12.3361
 1.3750	12.2321
 1.3740	12.2936
 1.3730	12.2689
 1.3720	12.2987
 1.3710	12.2191
 1.3700	12.3111
 1.3690	12.2310
 1.3680	12.2959
 1.3670	12.1658
 1.3660	12.3739
 1.3650	12.2648
 1.3640	12.2291
 1.3630	12.2850
 1.3620	12.2278
 1.3610	12.2819
 1.3600	12.3026
 1.3590	12.2706
 1.3580	12.3662
 1.3570	12.3236
 1.3560	12.4296
 1.3550	12.0694
 1.3540	12.3634
 1.3530	12.2163
 1.3520	12.2930
 1.3510	12.2718
 1.3500	12.3267
 1.3490	12.2387
 1.3480	12.2869
 1.3470	12.1903
 1.3460	12.3316
 1.3450	12.3077
 1.3440	12.3334
 1.3430	12.2485
 1.3420	12.2995
 1.3410	12.2379
 1.3400	12.2966
 1.3390	12.2691
 1.3380	12.3333
 1.3370	12.2837
 1.3360	12.3411
 1.3350	12.2461
 1.3340	12.3220
 1.3330	12.2772
 1.3320	12.2551
 1.3310	12.2769
 1.3300	12.3052
 1.3290	12.2673
 1.3280	12.3027
 1.3270	12.2336
 1.3260	12.3278
 1.3250	12.2474
 1.3240	12.2923
 1.3230	12.3019
 1.3220	12.3706
 1.3210	12.2743
 1.3200	12.3043
 1.3190	12.3003
 1.3180	12.3956
 1.3170	12.2272
 1.3160	12.3028
 1.3150	12.2642
 1.3140	12.3143
 1.3130	12.2493
 1.3120	12.3124
 1.3110	12.2637
 1.3100	12.3469
 1.3090	12.2796
 1.3080	12.3671
 1.3070	12.2831
 1.3060	12.3701
 1.3050	12.3231
 1.3040	12.3121
 1.3030	12.3313
 1.3020	12.3403
 1.3010	12.3053
 1.3000	12.3172
 1.2990	12.3292
 1.2980	12.2827
 1.2970	12.2280
 1.2960	12.3269
 1.2950	12.3376
 1.2940	12.3665
 1.2930	12.3494
 1.2920	12.3766
 1.2910	12.3671
 1.2900	12.3908
 1.2890	12.3056
 1.2880	12.3284
 1.2870	12.3006
 1.2860	12.3122
 1.2850	12.2834
 1.2840	12.3721
 1.2830	12.2936
 1.2820	12.3604
 1.2810	12.2676
 1.2800	12.2994
 1.2790	12.3260
 1.2780	12.3358
 1.2770	12.2557
 1.2760	12.3861
 1.2750	12.3323
 1.2740	12.4127
 1.2730	12.3529
 1.2720	12.3507
 1.2710	12.3681
 1.2700	12.4023
 1.2690	12.3954
 1.2680	12.3757
 1.2670	12.3718
 1.2660	12.4098
 1.2650	12.3361
 1.2640	12.4083
 1.2630	12.3727
 1.2620	12.3605
 1.2610	12.3249
 1.2600	12.3686
 1.2590	12.3463
 1.2580	12.3253
 1.2570	12.3583
 1.2560	12.3725
 1.2550	12.3273
 1.2540	12.3696
 1.2530	12.3681
 1.2520	12.3657
 1.2510	12.3356
 1.2500	12.3596
 1.2490	12.3466
 1.2480	12.3614
 1.2470	12.3566
 1.2460	12.3623
 1.2450	12.3566
 1.2440	12.3802
 1.2430	12.4106
 1.2420	12.3994
 1.2410	12.3711
 1.2400	12.3704
 1.2390	12.3839
 1.2380	12.4044
 1.2370	12.3730
 1.2360	12.4134
 1.2350	12.3956
 1.2340	12.3808
 1.2330	12.3733
 1.2320	12.4023
 1.2310	12.3565
 1.2300	12.3626
 1.2290	12.3785
 1.2280	12.4133
 1.2270	12.3809
 1.2260	12.3897
 1.2250	12.3798
 1.2240	12.3607
 1.2230	12.3934
 1.2220	12.4106
 1.2210	12.3637
 1.2200	12.3863
 1.2190	12.3683
 1.2180	12.3426
 1.2170	12.3835
 1.2160	12.3967
 1.2150	12.4117
 1.2140	12.3831
 1.2130	12.3821
 1.2120	12.4147
 1.2110	12.3840
 1.2100	12.3703
 1.2090	12.3615
 1.2080	12.3516
 1.2070	12.3936
 1.2060	12.4001
 1.2050	12.4061
 1.2040	12.4064
 1.2030	12.4264
 1.2020	12.3950
 1.2010	12.3582
 1.2000	12.4037
 1.1990	12.4381
 1.1980	12.3978
 1.1970	12.4274
 1.1960	12.4397
 1.1950	12.3968
 1.1940	12.3761
 1.1930	12.3762
 1.1920	12.3790
 1.1910	12.4229
 1.1900	12.4076
 1.1890	12.3882
 1.1880	12.2857
 1.1870	12.4423
 1.1860	12.4600
 1.1850	12.4281
 1.1840	12.4074
 1.1830	12.4205
 1.1820	12.4153
 1.1810	12.4443
 1.1800	12.4422
 1.1790	12.4600
 1.1780	12.3912
 1.1770	12.4151
 1.1760	12.4122
 1.1750	12.4783
 1.1740	12.4626
 1.1730	12.4387
 1.1720	12.4562
 1.1710	12.4435
 1.1700	12.4135
 1.1690	12.4197
 1.1680	12.4271
 1.1670	12.4494
 1.1660	12.3964
 1.1650	12.4732
 1.1640	12.5083
 1.1630	12.5127
 1.1620	12.4235
 1.1610	12.3942
 1.1600	12.4467
 1.1590	12.4385
 1.1580	12.4335
 1.1570	12.4848
 1.1560	12.4419
 1.1550	12.4848
 1.1540	12.4831
 1.1530	12.5346
 1.1520	12.4755
 1.1510	12.5023
 1.1500	12.4398
 1.1490	12.5267
 1.1480	12.4973
 1.1470	12.5293
 1.1460	12.5155
 1.1450	12.4836
 1.1440	12.4203
 1.1430	12.4782
 1.1420	12.4470
 1.1410	12.4584
 1.1400	12.4729
 1.1390	12.5579
 1.1380	12.4710
 1.1370	12.5474
 1.1360	12.4750
 1.1350	12.5049
 1.1340	12.5005
 1.1330	12.5017
 1.1320	12.4937
 1.1310	12.5864
 1.1300	12.5362
 1.1290	12.5365
 1.1280	12.4517
 1.1270	12.4685
 1.1260	12.4567
 1.1250	12.5554
 1.1240	12.5071
 1.1230	12.4995
 1.1220	12.4054
 1.1210	12.5570
 1.1200	12.4687
 1.1190	12.5343
 1.1180	12.5077
 1.1170	12.4988
 1.1160	12.4706
 1.1150	12.5151
 1.1140	12.5293
 1.1130	12.5510
 1.1120	12.5220
 1.1110	12.5915
 1.1100	12.5947
 1.1090	12.5366
 1.1080	12.4959
 1.1070	12.6465
 1.1060	12.4711
 1.1050	12.5713
 1.1040	12.4630
 1.1030	12.5517
 1.1020	12.5084
 1.1010	12.5151
 1.1000	12.4690
 1.0990	12.5895
 1.0980	12.5152
 1.0970	12.4668
 1.0960	12.4991
 1.0950	12.6310
 1.0940	12.4879
 1.0930	12.5733
 1.0920	12.5565
 1.0910	12.5483
 1.0900	12.5325
 1.0890	12.6373
 1.0880	12.5066
 1.0870	12.5827
 1.0860	12.5418
 1.0850	12.6590
 1.0840	12.4559
 1.0830	12.6285
 1.0820	12.5154
 1.0810	12.5931
 1.0800	12.5394
 1.0790	12.6589
 1.0780	12.6030
 1.0770	12.5775
 1.0760	12.5485
 1.0750	12.5874
 1.0740	12.5336
 1.0730	12.5813
 1.0720	12.5846
 1.0710	12.7781
 1.0700	12.4022
 1.0690	12.6785
 1.0680	12.4777
 1.0670	12.6250
 1.0660	12.5935
 1.0650	12.6298
 1.0640	12.5876
 1.0630	12.5615
 1.0620	12.5000
 1.0610	12.6342
 1.0600	12.5437
 1.0590	12.6573
 1.0580	12.6189
 1.0570	12.5676
 1.0560	12.5649
 1.0550	12.6838
 1.0540	12.5972
 1.0530	12.5901
 1.0520	12.5959
 1.0510	12.6954
 1.0500	12.5385
 1.0490	12.6329
 1.0480	12.5459
 1.0470	12.7529
 1.0460	12.5615
 1.0450	12.6908
 1.0440	12.6034
 1.0430	12.6588
 1.0420	12.6019
 1.0410	12.6789
 1.0400	12.6502
 1.0390	12.7299
 1.0380	12.5752
 1.0370	12.6967
 1.0360	12.5674
 1.0350	12.7000
 1.0340	12.5954
 1.0330	12.7170
 1.0320	12.6286
 1.0310	12.6712
 1.0300	12.6460
 1.0290	12.7197
 1.0280	12.6127
 1.0270	12.6655
 1.0260	12.6285
 1.0250	12.7047
 1.0240	12.6527
 1.0230	12.7707
 1.0220	12.6292
 1.0210	12.6208
 1.0200	12.6111
 1.0190	12.7380
 1.0180	12.6424
 1.0170	12.6733
 1.0160	12.6669
 1.0150	12.7208
 1.0140	12.6471
 1.0130	12.7013
 1.0120	12.6498
 1.0110	12.7072
 1.0100	12.6070
 1.0090	12.7250
 1.0080	12.7420
 1.0070	12.6727
 1.0060	12.6908
 1.0050	12.6712
 1.0040	12.6760
 1.0030	12.7785
 1.0020	12.6867
 1.0010	12.8015
 1.0000	12.6883
 0.9990	12.7203
 0.9980	12.6955
 0.9970	12.7300
 0.9960	12.6415
 0.9950	12.7555
 0.9940	12.7256
 0.9930	12.7599
 0.9920	12.7229
 0.9910	12.7474
 0.9900	12.6895
 0.9890	12.6990
 0.9880	12.6564
 0.9870	12.7027
 0.9860	12.7037
 0.9850	12.7792
 0.9840	12.7364
 0.9830	12.7598
 0.9820	12.7390
 0.9810	12.7463
 0.9800	12.7857
 0.9790	12.8126
 0.9780	12.7156
 0.9770	12.7610
 0.9760	12.7229
 0.9750	12.7642
 0.9740	12.7796
 0.9730	12.8429
 0.9720	12.7554
 0.9710	12.7681
 0.9700	12.7186
 0.9690	12.7831
 0.9680	12.7533
 0.9670	12.7857
 0.9660	12.7755
 0.9650	12.7508
 0.9640	12.7204
 0.9630	12.8341
 0.9620	12.8229
 0.9610	12.7896
 0.9600	12.7722
 0.9590	12.7942
 0.9580	12.7362
 0.9570	12.7368
 0.9560	12.7645
 0.9550	12.7890
 0.9540	12.7580
 0.9530	12.7912
 0.9520	12.7608
 0.9510	12.7601
 0.9500	12.7804
 0.9490	12.7668
 0.9480	12.7595
 0.9470	12.8218
 0.9460	12.8746
 0.9450	12.8428
 0.9440	12.7893
 0.9430	12.7986
 0.9420	12.8123
 0.9410	12.8248
 0.9400	12.8480
 0.9390	12.7957
 0.9380	12.7851
 0.9370	12.8570
 0.9360	12.8222
 0.9350	12.7807
 0.9340	12.8055
 0.9330	12.8581
 0.9320	12.8499
 0.9310	12.8378
 0.9300	12.8133
 0.9290	12.8316
 0.9280	12.8697
 0.9270	12.8412
 0.9260	12.8235
 0.9250	12.8721
 0.9240	12.8736
 0.9230	12.8568
 0.9220	12.8995
 0.9210	12.8687
 0.9200	12.8537
 0.9190	12.8707
 0.9180	12.9049
 0.9170	12.9267
 0.9160	12.9054
 0.9150	12.8698
 0.9140	12.9119
 0.9130	12.8744
 0.9120	12.9009
 0.9110	12.9262
 0.9100	12.9069
 0.9090	12.8921
 0.9080	12.9046
 0.9070	12.8736
 0.9060	12.8855
 0.9050	12.8676
 0.9040	12.8847
 0.9030	12.8574
 0.9020	12.8891
 0.9010	12.9427
 0.9000	12.8959
 0.8990	12.8465
 0.8980	12.8682
 0.8970	12.8575
 0.8960	12.9081
 0.8950	12.9127
 0.8940	12.9122
 0.8930	12.9363
 0.8920	12.9426
 0.8910	12.9354
 0.8900	12.9466
 0.8890	12.8800
 0.8880	12.9025
 0.8870	12.9186
 0.8860	12.9292
 0.8850	12.9394
 0.8840	13.0060
 0.8830	12.9264
 0.8820	12.9639
 0.8810	12.9776
 0.8800	12.9745
 0.8790	12.9531
 0.8780	13.0359
 0.8770	12.9610
 0.8760	13.0073
 0.8750	12.9910
 0.8740	13.0160
 0.8730	13.0158
 0.8720	13.0676
 0.8710	13.0316
 0.8700	13.0148
 0.8690	13.0464
 0.8680	13.0719
 0.8670	13.0387
 0.8660	13.0223
 0.8650	13.0376
 0.8640	13.0585
 0.8630	13.0531
 0.8620	13.1267
 0.8610	13.0839
 0.8600	13.3365
 0.8590	13.4208
 0.8580	13.4316
 0.8570	13.4331
 0.8560	13.4423
 0.8550	13.4569
 0.8540	13.4434
 0.8530	13.4494
 0.8520	13.4481
 0.8510	13.4682
 0.8500	13.4592
 0.8490	13.4698
 0.8480	13.4694
 0.8470	13.4641
 0.8460	13.4679
 0.8450	13.4544
 0.8440	13.4754
 0.8430	13.4826
 0.8420	13.4673
 0.8410	13.4747
 0.8400	13.5003
 0.8390	13.5044
 0.8380	13.4851
 0.8370	13.4914
 0.8360	13.4939
 0.8350	13.4875
 0.8340	13.5098
 0.8330	13.5122
 0.8320	13.5215
 0.8310	13.5229
 0.8300	13.5167
 0.8290	13.5186
 0.8280	13.5192
 0.8270	13.5285
 0.8260	13.5291
 0.8250	13.5300
 0.8240	13.5461
 0.8230	13.5433
 0.8220	13.5355
 0.8210	13.5545
 0.8200	13.5448
 0.8190	13.5449
 0.8180	13.5599
 0.8170	13.5565
 0.8160	13.5563
 0.8150	13.5643
 0.8140	13.5601
 0.8130	13.5677
 0.8120	13.5721
 0.8110	13.5809
 0.8100	13.5775
 0.8090	13.5729
 0.8080	13.5776
 0.8070	13.5858
 0.8060	13.6093
 0.8050	13.5999
 0.8040	13.6012
 0.8030	13.6155
 0.8020	13.6082
 0.8010	13.6193
 0.8000	13.6220
 0.7990	13.6172
 0.7980	13.6201
 0.7970	13.6249
 0.7960	13.6243
 0.7950	13.6208
 0.7940	13.6199
 0.7930	13.6311
 0.7920	13.6283
 0.7910	13.6299
 0.7900	13.6421
 0.7890	13.6378
 0.7880	13.6443
 0.7870	13.6485
 0.7860	13.6538
 0.7850	13.6621
 0.7840	13.6634
 0.7830	13.6655
 0.7820	13.6750
 0.7810	13.6737
 0.7800	13.6722
 0.7790	13.6722
 0.7780	13.6903
 0.7770	13.6894
 0.7760	13.6719
 0.7750	13.6833
 0.7740	13.6877
 0.7730	13.6786
 0.7720	13.6978
 0.7710	13.7021
 0.7700	13.7121
 0.7690	13.7055
 0.7680	13.7083
 0.7670	13.7207
 0.7660	13.7210
 0.7650	13.7227
 0.7640	13.7244
 0.7630	13.7400
 0.7620	13.7369
 0.7610	13.7359
 0.7600	13.7380
 0.7590	13.7494
 0.7580	13.7482
 0.7570	13.7480
 0.7560	13.7607
 0.7550	13.7568
 0.7540	13.7672
 0.7530	13.7765
 0.7520	13.7687
 0.7510	13.7774
 0.7500	13.7880
 0.7490	13.7855
 0.7480	13.7937
 0.7470	13.8008
 0.7460	13.7973
 0.7450	13.7986
 0.7440	13.8029
 0.7430	13.8129
 0.7420	13.8226
 0.7410	13.8174
 0.7400	13.8144
 0.7390	13.8249
 0.7380	13.8271
 0.7370	13.8324
 0.7360	13.8348
 0.7350	13.8483
 0.7340	13.8507
 0.7330	13.8540
 0.7320	13.8606
 0.7310	13.8624
 0.7300	13.8616
 0.7290	13.8728
 0.7280	13.8714
 0.7270	13.8779
 0.7260	13.8898
 0.7250	13.8837
 0.7240	13.8898
 0.7230	13.9020
 0.7220	13.8997
 0.7210	13.8998
 0.7200	13.9082
 0.7190	13.9165
 0.7180	13.9141
 0.7170	13.9271
 0.7160	13.9255
 0.7150	13.9269
 0.7140	13.9355
 0.7130	13.9354
 0.7120	13.9448
 0.7110	13.9554
 0.7100	13.9530
 0.7090	13.9598
 0.7080	13.9641
 0.7070	13.9724
 0.7060	13.9692
 0.7050	13.9760
 0.7040	13.9784
 0.7030	13.9744
 0.7020	13.9827
 0.7010	13.9883
 0.7000	13.9928
 0.6990	14.0028
 0.6980	14.0062
 0.6970	14.0054
 0.6960	14.0071
 0.6950	14.0093
 0.6940	14.0144
 0.6930	14.0210
 0.6920	14.0257
 0.6910	14.0309
 0.6900	14.0262
 0.6890	14.0306
 0.6880	14.0326
 0.6870	14.0365
 0.6860	14.0423
 0.6850	14.0436
 0.6840	14.0374
 0.6830	14.0373
 0.6820	14.0463
 0.6810	14.0491
 0.6800	14.0500
 0.6790	14.0538
 0.6780	14.0536
 0.6770	14.0532
 0.6760	14.0559
 0.6750	14.0514
 0.6740	14.0519
 0.6730	14.0605
 0.6720	14.0566
 0.6710	14.0507
 0.6700	14.0527
 0.6690	14.0523
 0.6680	14.0510
 0.6670	14.0486
 0.6660	14.0463
 0.6650	14.0444
 0.6640	14.0408
 0.6630	14.0380
 0.6620	14.0318
 0.6610	14.0293
 0.6600	14.0314
 0.6590	14.0268
 0.6580	14.0204
 0.6570	14.0170
 0.6560	14.0120
 0.6550	14.0053
 0.6540	14.0012
 0.6530	13.9940
 0.6520	13.9876
 0.6510	13.9836
 0.6500	13.9768
 0.6490	13.9697
 0.6480	13.9671
 0.6470	13.9605
 0.6460	13.9549
 0.6450	13.9504
 0.6440	13.9380
 0.6430	13.9312
 0.6420	13.9232
 0.6410	13.9123
 0.6400	13.9087
 0.6390	13.9048
 0.6380	13.8938
 0.6370	13.8851
 0.6360	13.8789
 0.6350	13.8684
 0.6340	13.8609
 0.6330	13.8525
 0.6320	13.8448
 0.6310	13.8397
 0.6300	13.8303
 0.6290	13.8206
 0.6280	13.8151
 0.6270	13.8095
 0.6260	13.8019
 0.6250	13.7933
 0.6240	13.7854
 0.6230	13.7822
 0.6220	13.7754
 0.6210	13.7677
 0.6200	13.7643
 0.6190	13.7559
 0.6180	13.7473
 0.6170	13.7429
 0.6160	13.7385
 0.6150	13.7323
 0.6140	13.7248
 0.6130	13.7186
 0.6120	13.7119
 0.6110	13.7061
 0.6100	13.7024
 0.6090	13.7000
 0.6080	13.6939
 0.6070	13.6912
 0.6060	13.6877
 0.6050	13.6830
 0.6040	13.6815
 0.6030	13.6747
 0.6020	13.6704
 0.6010	13.6697
 0.6000	13.6651
 0.5990	13.6670
 0.5980	13.6697
 0.5970	13.6696
 0.5960	13.6695
 0.5950	13.6701
 0.5940	13.6694
 0.5930	13.6676
 0.5920	13.6667
 0.5910	13.6649
 0.5900	13.6649
 0.5890	13.6655
 0.5880	13.6658
 0.5870	13.6647
 0.5860	13.6664
 0.5850	13.6685
 0.5840	13.6668
 0.5830	13.6691
 0.5820	13.6708
 0.5810	13.6733
 0.5800	13.6732
 0.5790	13.6731
 0.5780	13.6794
 0.5770	13.6832
 0.5760	13.6887
 0.5750	13.6887
 0.5740	13.6902
 0.5730	13.6960
 0.5720	13.6983
 0.5710	13.7046
 0.5700	13.7104
 0.5690	13.7145
 0.5680	13.7137
 0.5670	13.7203
 0.5660	13.7286
 0.5650	13.7354
 0.5640	13.7396
 0.5630	13.7442
 0.5620	13.7504
 0.5610	13.7527
 0.5600	13.7629
 0.5590	13.7692
 0.5580	13.7739
 0.5570	13.7818
 0.5560	13.7865
 0.5550	13.7956
 0.5540	13.8025
 0.5530	13.8131
 0.5520	13.8164
 0.5510	13.8243
 0.5500	13.8343
 0.5490	13.8422
 0.5480	13.8496
 0.5470	13.8589
 0.5460	13.8652
 0.5450	13.8744
 0.5440	13.8834
 0.5430	13.8935
 0.5420	13.9043
 0.5410	13.9116
 0.5400	13.9250
 0.5390	13.9345
 0.5380	13.9444
 0.5370	13.9556
 0.5360	13.9682
 0.5350	13.9743
 0.5340	13.9876
 0.5330	13.9998
 0.5320	14.0139
 0.5310	14.0264
 0.5300	14.0414
 0.5290	14.0535
 0.5280	14.0669
 0.5270	14.0818
 0.5260	14.0957
 0.5250	14.1062
 0.5240	14.1238
 0.5230	14.1353
 0.5220	14.1523
 0.5210	14.1666
 0.5200	14.1865
 0.5190	14.2017
 0.5180	14.2169
 0.5170	14.2369
 0.5160	14.2527
 0.5150	14.2717
 0.5140	14.2898
 0.5130	14.3116
 0.5120	14.3287
 0.5110	14.3435
 0.5100	14.3656
 0.5090	14.3867
 0.5080	14.4030
 0.5070	14.4245
 0.5060	14.4484
 0.5050	14.4663
 0.5040	14.4846
 0.5030	14.5116
 0.5020	14.5300
 0.5010	14.5483
 0.5000	14.5712
 0.4990	14.5954
 0.4980	14.6170
 0.4970	14.6346
 0.4960	14.6561
 0.4950	14.6827
 0.4940	14.7011
 0.4930	14.7212
 0.4920	14.7430
 0.4910	14.7624
 0.4900	14.7865
 0.4890	14.8079
 0.4880	14.8266
 0.4870	14.8484
 0.4860	14.8717
 0.4850	14.8908
 0.4840	14.9186
 0.4830	14.9365
 0.4820	14.9521
 0.4810	14.9783
 0.4800	14.9955
 0.4790	15.0144
 0.4780	15.0420
 0.4770	15.0614
 0.4760	15.0848
 0.4750	15.1108
 0.4740	15.1370
 0.4730	15.1579
 0.4720	15.1740
 0.4710	15.2077
 0.4700	15.2292
 0.4690	15.2549
 0.4680	15.2756
 0.4670	15.2971
 0.4660	15.3197
 0.4650	15.3533
 0.4640	15.3698
 0.4630	15.3978
 0.4620	15.4232
 0.4610	15.4480
 0.4600	15.4664
 0.4590	15.4927
 0.4580	15.5202
 0.4570	15.5510
 0.4560	15.5708
 0.4550	15.5998
 0.4540	15.6278
 0.4530	15.6558
 0.4520	15.6804
 0.4510	15.7114
 0.4500	15.7314
 0.4490	15.7591
 0.4480	15.7896
 0.4470	15.8067
 0.4460	15.8389
 0.4450	15.8684
 0.4440	15.8939
 0.4430	15.9208
 0.4420	15.9491
 0.4410	15.9789
 0.4400	16.0067
 0.4390	16.0407
 0.4380	16.0712
 0.4370	16.0985
 0.4360	16.1330
 0.4350	16.1579
 0.4340	16.1906
 0.4330	16.2208
 0.4320	16.2540
 0.4310	16.2821
 0.4300	16.3082
 0.4290	16.3359
 0.4280	16.3738
 0.4270	16.4098
 0.4260	16.4427
 0.4250	16.4698
 0.4240	16.5061
 0.4230	16.5450
 0.4220	16.5737
 0.4210	16.6084
 0.4200	16.6440
 0.4190	16.6773
 0.4180	16.7124
 0.4170	16.7488
 0.4160	16.7840
 0.4150	16.8207
 0.4140	16.8565
 0.4130	16.8943
 0.4120	16.9234
 0.4110	16.9620
 0.4100	17.0051
 0.4090	17.0413
 0.4080	17.0793
 0.4070	17.1204
 0.4060	17.1552
 0.4050	17.1944
 0.4040	17.2439
 0.4030	17.2937
 0.4020	17.3289
 0.4010	17.3676
 0.4000	17.4090
