Name: Malachite Cu_2(CO_3)(OH)_2
Type: Mineral
Class: Carbonate
Subclass: None
Particle Size: Coarse
Sample No.: C-7A
Owner: JPL
Wavelength Range: VSWIR
Origin: USA, California, San Bernadino County, Near Valley Wells.
Collection Date: N/A
Description: Particle size was 125-500um.Collected by:  Burminco Original ASTER Spectral Library name was jpl.perkin.mineral.carbonate.none.coarse.c07a.spectrum.txt
Measurement: Hemispherical reflectance
First Column: X
Second Column: Y
X Units: Wavelength (micrometers)
Y Units:Reflectance (percent)
First X Value:  2.5000
Last X Value:  0.4000
Number of X Values: 2101
Additional Information: mineral.carbonate.none.coarse.vswir.c-7a.jpl.perkin.ancillary.txt

 2.5000	12.7458
 2.4990	12.2290
 2.4980	12.7525
 2.4970	12.8516
 2.4960	12.3485
 2.4950	12.8031
 2.4940	12.7082
 2.4930	12.5963
 2.4920	12.9143
 2.4910	12.7260
 2.4900	12.8581
 2.4890	12.6444
 2.4880	12.9238
 2.4870	12.6685
 2.4860	13.0348
 2.4850	12.7676
 2.4840	13.0121
 2.4830	12.7779
 2.4820	13.0835
 2.4810	12.7549
 2.4800	13.1852
 2.4790	12.9160
 2.4780	13.1977
 2.4770	12.9473
 2.4760	13.1378
 2.4750	13.1164
 2.4740	13.2029
 2.4730	13.0101
 2.4720	13.2430
 2.4710	13.0855
 2.4700	13.3155
 2.4690	13.2632
 2.4680	13.3843
 2.4670	13.1659
 2.4660	13.4026
 2.4650	13.3772
 2.4640	13.4801
 2.4630	13.4044
 2.4620	13.4561
 2.4610	13.2859
 2.4600	13.4681
 2.4590	13.4218
 2.4580	13.5518
 2.4570	13.4259
 2.4560	13.5931
 2.4550	13.4200
 2.4540	13.5086
 2.4530	13.4536
 2.4520	13.5150
 2.4510	13.4616
 2.4500	13.5297
 2.4490	13.4484
 2.4480	13.6632
 2.4470	13.4284
 2.4460	13.5425
 2.4450	13.4883
 2.4440	13.6265
 2.4430	13.4449
 2.4420	13.6144
 2.4410	13.5339
 2.4400	13.5984
 2.4390	13.4519
 2.4380	13.5799
 2.4370	13.5412
 2.4360	13.6120
 2.4350	13.5485
 2.4340	13.5343
 2.4330	13.5455
 2.4320	13.6663
 2.4310	13.5488
 2.4300	13.7215
 2.4290	13.5382
 2.4280	13.6492
 2.4270	13.6027
 2.4260	13.6860
 2.4250	13.6449
 2.4240	13.7374
 2.4230	13.5948
 2.4220	13.7036
 2.4210	13.7918
 2.4200	13.7586
 2.4190	13.6676
 2.4180	13.8159
 2.4170	13.7279
 2.4160	13.8613
 2.4150	13.7546
 2.4140	13.8803
 2.4130	13.8258
 2.4120	13.9186
 2.4110	13.8778
 2.4100	13.9133
 2.4090	13.8945
 2.4080	13.9698
 2.4070	13.9634
 2.4060	14.0023
 2.4050	13.9890
 2.4040	14.1347
 2.4030	14.0871
 2.4020	14.0876
 2.4010	14.1052
 2.4000	14.2188
 2.3990	14.1969
 2.3980	14.2455
 2.3970	14.2958
 2.3960	14.3911
 2.3950	14.4983
 2.3940	14.5319
 2.3930	14.5469
 2.3920	14.6441
 2.3910	14.6564
 2.3900	14.7468
 2.3890	14.7825
 2.3880	14.8729
 2.3870	14.8304
 2.3860	14.9240
 2.3850	14.9716
 2.3840	15.0795
 2.3830	15.0724
 2.3820	15.0849
 2.3810	15.1475
 2.3800	15.2868
 2.3790	15.3570
 2.3780	15.4334
 2.3770	15.4351
 2.3760	15.4959
 2.3750	15.5703
 2.3740	15.6373
 2.3730	15.6316
 2.3720	15.6997
 2.3710	15.7081
 2.3700	15.7291
 2.3690	15.7830
 2.3680	15.8162
 2.3670	15.8577
 2.3660	15.9101
 2.3650	15.9380
 2.3640	15.9783
 2.3630	16.0253
 2.3620	16.0507
 2.3610	16.0651
 2.3600	16.1058
 2.3590	16.0885
 2.3580	16.1064
 2.3570	16.1636
 2.3560	16.2246
 2.3550	16.2924
 2.3540	16.4091
 2.3530	16.5131
 2.3520	16.5654
 2.3510	16.6871
 2.3500	16.8019
 2.3490	16.9772
 2.3480	17.0840
 2.3470	17.1579
 2.3460	17.3149
 2.3450	17.4301
 2.3440	17.5744
 2.3430	17.7228
 2.3420	17.9378
 2.3410	18.1226
 2.3400	18.2624
 2.3390	18.4388
 2.3380	18.5703
 2.3370	18.7797
 2.3360	18.8759
 2.3350	19.0817
 2.3340	19.1948
 2.3330	19.3219
 2.3320	19.5074
 2.3310	19.6541
 2.3300	19.7461
 2.3290	19.8837
 2.3280	20.0339
 2.3270	20.1411
 2.3260	20.1602
 2.3250	20.2703
 2.3240	20.3651
 2.3230	20.4144
 2.3220	20.4118
 2.3210	20.5097
 2.3200	20.5548
 2.3190	20.5675
 2.3180	20.6149
 2.3170	20.6684
 2.3160	20.5994
 2.3150	20.6752
 2.3140	20.6109
 2.3130	20.6293
 2.3120	20.5842
 2.3110	20.5345
 2.3100	20.4852
 2.3090	20.4968
 2.3080	20.4142
 2.3070	20.4123
 2.3060	20.2644
 2.3050	20.2309
 2.3040	20.1564
 2.3030	20.0801
 2.3020	19.9120
 2.3010	19.8755
 2.3000	19.7365
 2.2990	19.6607
 2.2980	19.5168
 2.2970	19.4028
 2.2960	19.2760
 2.2950	19.2272
 2.2940	19.0606
 2.2930	18.9969
 2.2920	18.7880
 2.2910	18.6616
 2.2900	18.5172
 2.2890	18.5006
 2.2880	18.2956
 2.2870	18.2069
 2.2860	18.0299
 2.2850	17.9344
 2.2840	17.7442
 2.2830	17.6816
 2.2820	17.5023
 2.2810	17.4730
 2.2800	17.2240
 2.2790	17.2246
 2.2780	17.0938
 2.2770	16.9562
 2.2760	16.8957
 2.2750	16.8552
 2.2740	16.7121
 2.2730	16.7249
 2.2720	16.6147
 2.2710	16.5904
 2.2700	16.5138
 2.2690	16.6372
 2.2680	16.5543
 2.2670	16.5672
 2.2660	16.5640
 2.2650	16.7318
 2.2640	16.7439
 2.2630	16.9034
 2.2620	16.9225
 2.2610	17.0623
 2.2600	17.1247
 2.2590	17.3305
 2.2580	17.3718
 2.2570	17.6073
 2.2560	17.7968
 2.2550	18.0233
 2.2540	18.1416
 2.2530	18.3708
 2.2520	18.4474
 2.2510	18.7244
 2.2500	18.8800
 2.2490	19.1584
 2.2480	19.2481
 2.2470	19.5209
 2.2460	19.6812
 2.2450	19.8651
 2.2440	20.0291
 2.2430	20.2411
 2.2420	20.4218
 2.2410	20.6759
 2.2400	20.7838
 2.2390	21.0050
 2.2380	21.1598
 2.2370	21.3762
 2.2360	21.4172
 2.2350	21.6382
 2.2340	21.7729
 2.2330	21.9650
 2.2320	21.9653
 2.2310	22.1911
 2.2300	22.1783
 2.2290	22.3843
 2.2280	22.4705
 2.2270	22.7056
 2.2260	22.6357
 2.2250	22.7342
 2.2240	22.7734
 2.2230	22.8923
 2.2220	22.8059
 2.2210	22.9683
 2.2200	23.0005
 2.2190	23.1071
 2.2180	23.0976
 2.2170	23.3475
 2.2160	23.1933
 2.2150	23.3678
 2.2140	23.3868
 2.2130	23.6588
 2.2120	23.6916
 2.2110	23.7502
 2.2100	24.0428
 2.2090	24.1549
 2.2080	24.3002
 2.2070	24.4847
 2.2060	24.6924
 2.2050	24.9436
 2.2040	25.0236
 2.2030	25.2990
 2.2020	25.5203
 2.2010	25.7920
 2.2000	25.8716
 2.1990	26.0967
 2.1980	26.2003
 2.1970	26.6154
 2.1960	26.6075
 2.1950	26.9291
 2.1940	27.0234
 2.1930	27.3117
 2.1920	27.4265
 2.1910	27.5867
 2.1900	27.8181
 2.1890	27.9391
 2.1880	28.0112
 2.1870	28.1971
 2.1860	28.3245
 2.1850	28.5418
 2.1840	28.6045
 2.1830	28.7752
 2.1820	28.8912
 2.1810	28.9981
 2.1800	29.0491
 2.1790	29.1908
 2.1780	29.2786
 2.1770	29.4216
 2.1760	29.4516
 2.1750	29.5966
 2.1740	29.6388
 2.1730	29.7179
 2.1720	29.7414
 2.1710	29.8592
 2.1700	29.9372
 2.1690	30.0738
 2.1680	30.1287
 2.1670	30.2020
 2.1660	30.1837
 2.1650	30.3444
 2.1640	30.3125
 2.1630	30.4662
 2.1620	30.5239
 2.1610	30.5934
 2.1600	30.6594
 2.1590	30.7242
 2.1580	30.7163
 2.1570	30.8576
 2.1560	30.8285
 2.1550	30.9554
 2.1540	30.9463
 2.1530	31.0222
 2.1520	31.0202
 2.1510	31.0975
 2.1500	31.1105
 2.1490	31.1744
 2.1480	31.1707
 2.1470	31.2007
 2.1460	31.1399
 2.1450	31.1967
 2.1440	31.2046
 2.1430	31.2703
 2.1420	31.2017
 2.1410	31.2388
 2.1400	31.2253
 2.1390	31.2141
 2.1380	31.2289
 2.1370	31.2009
 2.1360	31.1580
 2.1350	31.1692
 2.1340	31.1020
 2.1330	31.0954
 2.1320	31.0521
 2.1310	31.0227
 2.1300	30.9299
 2.1290	30.8883
 2.1280	30.8841
 2.1270	30.8430
 2.1260	30.7629
 2.1250	30.7360
 2.1240	30.6431
 2.1230	30.5950
 2.1220	30.4747
 2.1210	30.4138
 2.1200	30.3035
 2.1190	30.3293
 2.1180	30.2412
 2.1170	30.1623
 2.1160	30.0255
 2.1150	30.0216
 2.1140	29.9162
 2.1130	29.8633
 2.1120	29.8152
 2.1110	29.7509
 2.1100	29.6342
 2.1090	29.5612
 2.1080	29.4681
 2.1070	29.4355
 2.1060	29.3654
 2.1050	29.3707
 2.1040	29.2790
 2.1030	29.1858
 2.1020	29.1277
 2.1010	29.1281
 2.1000	29.0473
 2.0990	29.0374
 2.0980	28.9726
 2.0970	28.9312
 2.0960	28.9074
 2.0950	28.8713
 2.0940	28.8464
 2.0930	28.8116
 2.0920	28.7489
 2.0910	28.7066
 2.0900	28.6317
 2.0890	28.5852
 2.0880	28.5677
 2.0870	28.5358
 2.0860	28.4652
 2.0850	28.4020
 2.0840	28.3343
 2.0830	28.3336
 2.0820	28.2854
 2.0810	28.2069
 2.0800	28.1126
 2.0790	28.0364
 2.0780	27.9751
 2.0770	27.9069
 2.0760	27.7971
 2.0750	27.7300
 2.0740	27.7085
 2.0730	27.6832
 2.0720	27.6119
 2.0710	27.5003
 2.0700	27.4351
 2.0690	27.3766
 2.0680	27.2882
 2.0670	27.2431
 2.0660	27.1596
 2.0650	27.0700
 2.0640	27.0158
 2.0630	26.9800
 2.0620	26.9271
 2.0610	26.8073
 2.0600	26.7476
 2.0590	26.6501
 2.0580	26.6075
 2.0570	26.5454
 2.0560	26.4291
 2.0550	26.3846
 2.0540	26.3304
 2.0530	26.2044
 2.0520	26.1399
 2.0510	26.0650
 2.0500	26.0209
 2.0490	25.9114
 2.0480	25.8840
 2.0470	25.7924
 2.0460	25.6875
 2.0450	25.6158
 2.0440	25.5466
 2.0430	25.3899
 2.0420	25.2835
 2.0410	25.2154
 2.0400	25.1466
 2.0390	25.0201
 2.0380	24.9263
 2.0370	24.8212
 2.0360	24.7180
 2.0350	24.6295
 2.0340	24.5769
 2.0330	24.4307
 2.0320	24.3013
 2.0310	24.1737
 2.0300	24.0999
 2.0290	23.9434
 2.0280	23.8737
 2.0270	23.8067
 2.0260	23.7126
 2.0250	23.6246
 2.0240	23.5653
 2.0230	23.4175
 2.0220	23.3154
 2.0210	23.1748
 2.0200	23.1010
 2.0190	22.9830
 2.0180	22.9296
 2.0170	22.8681
 2.0160	22.7648
 2.0150	22.6365
 2.0140	22.5422
 2.0130	22.4676
 2.0120	22.4233
 2.0110	22.3158
 2.0100	22.2106
 2.0090	22.0579
 2.0080	22.0214
 2.0070	21.9063
 2.0060	21.8088
 2.0050	21.6687
 2.0040	21.5994
 2.0030	21.4369
 2.0020	21.4193
 2.0010	21.3213
 2.0000	21.2051
 1.9990	21.0295
 1.9980	20.9915
 1.9970	20.8099
 1.9960	20.7150
 1.9950	20.6240
 1.9940	20.5402
 1.9930	20.3236
 1.9920	20.3164
 1.9910	20.1572
 1.9900	20.0858
 1.9890	19.9020
 1.9880	19.9288
 1.9870	19.7034
 1.9860	19.6907
 1.9850	19.5312
 1.9840	19.4459
 1.9830	19.3463
 1.9820	19.2691
 1.9810	19.0740
 1.9800	18.9976
 1.9790	18.9182
 1.9780	18.8436
 1.9770	18.6179
 1.9760	18.6056
 1.9750	18.4338
 1.9740	18.3708
 1.9730	18.2682
 1.9720	18.2389
 1.9710	18.0626
 1.9700	18.0510
 1.9690	17.9089
 1.9680	17.7944
 1.9670	17.6948
 1.9660	17.6833
 1.9650	17.4397
 1.9640	17.4513
 1.9630	17.2850
 1.9620	17.3529
 1.9610	17.1030
 1.9600	17.1468
 1.9590	16.9953
 1.9580	16.9830
 1.9570	16.8035
 1.9560	16.8424
 1.9550	16.6282
 1.9540	16.6607
 1.9530	16.4522
 1.9520	16.5566
 1.9510	16.3825
 1.9500	16.3153
 1.9490	16.1346
 1.9480	16.1285
 1.9470	16.0318
 1.9460	16.0395
 1.9450	15.9421
 1.9440	15.8997
 1.9430	15.7872
 1.9420	15.8609
 1.9410	15.6626
 1.9400	15.6615
 1.9390	15.5405
 1.9380	15.5980
 1.9370	15.3451
 1.9360	15.3920
 1.9350	15.2861
 1.9340	15.2592
 1.9330	15.1256
 1.9320	15.1518
 1.9310	15.0062
 1.9300	15.0916
 1.9290	14.9384
 1.9280	14.9367
 1.9270	14.8480
 1.9260	14.7639
 1.9250	14.7217
 1.9240	14.6697
 1.9230	14.5702
 1.9220	14.5724
 1.9210	14.4135
 1.9200	14.5216
 1.9190	14.3985
 1.9180	14.4162
 1.9170	14.3303
 1.9160	14.3745
 1.9150	14.2723
 1.9140	14.3931
 1.9130	14.2817
 1.9120	14.4216
 1.9110	14.3682
 1.9100	14.5327
 1.9090	14.4792
 1.9080	14.7047
 1.9070	14.7294
 1.9060	14.9094
 1.9050	15.0107
 1.9040	15.3389
 1.9030	15.5640
 1.9020	15.9314
 1.9010	16.1330
 1.9000	16.5476
 1.8990	16.8434
 1.8980	17.3160
 1.8970	17.5468
 1.8960	18.0905
 1.8950	18.4704
 1.8940	18.9882
 1.8930	19.3807
 1.8920	19.8983
 1.8910	20.3440
 1.8900	20.9029
 1.8890	21.3650
 1.8880	21.9193
 1.8870	22.2878
 1.8860	22.8337
 1.8850	23.2635
 1.8840	23.7406
 1.8830	24.0762
 1.8820	24.6022
 1.8810	24.9752
 1.8800	25.3612
 1.8790	25.7911
 1.8780	26.2671
 1.8770	26.5983
 1.8760	26.9732
 1.8750	27.2274
 1.8740	27.6828
 1.8730	28.0751
 1.8720	28.4806
 1.8710	28.7808
 1.8700	29.1454
 1.8690	29.4497
 1.8680	29.7085
 1.8670	29.9200
 1.8660	30.1477
 1.8650	30.3492
 1.8640	30.5485
 1.8630	30.5544
 1.8620	30.7767
 1.8610	30.8330
 1.8600	30.9918
 1.8590	31.0049
 1.8580	31.0926
 1.8570	31.0974
 1.8560	31.1634
 1.8550	31.2832
 1.8540	31.3396
 1.8530	31.2570
 1.8520	31.3211
 1.8510	31.2974
 1.8500	31.3705
 1.8490	31.3239
 1.8480	31.3786
 1.8470	31.3380
 1.8460	31.3977
 1.8450	31.4251
 1.8440	31.4765
 1.8430	31.4136
 1.8420	31.4563
 1.8410	31.4475
 1.8400	31.3842
 1.8390	31.3513
 1.8380	31.4315
 1.8370	31.4030
 1.8360	31.3834
 1.8350	31.3243
 1.8340	31.3863
 1.8330	31.3705
 1.8320	31.3484
 1.8310	31.3043
 1.8300	31.3846
 1.8290	31.3328
 1.8280	31.2983
 1.8270	31.1829
 1.8260	31.2285
 1.8250	31.2036
 1.8240	31.1740
 1.8230	31.1449
 1.8220	31.1818
 1.8210	31.1002
 1.8200	31.0261
 1.8190	30.9490
 1.8180	30.9657
 1.8170	30.9087
 1.8160	30.8500
 1.8150	30.8153
 1.8140	30.8637
 1.8130	30.7690
 1.8120	30.6948
 1.8110	30.6317
 1.8100	30.6324
 1.8090	30.6121
 1.8080	30.5879
 1.8070	30.5369
 1.8060	30.5487
 1.8050	30.4572
 1.8040	30.3844
 1.8030	30.3535
 1.8020	30.3012
 1.8010	30.2442
 1.8000	30.2184
 1.7990	30.1345
 1.7980	30.0981
 1.7970	30.0434
 1.7960	30.0256
 1.7950	30.0233
 1.7940	29.9575
 1.7930	29.8701
 1.7920	29.8353
 1.7910	29.8231
 1.7900	29.7359
 1.7890	29.7161
 1.7880	29.7258
 1.7870	29.6128
 1.7860	29.5263
 1.7850	29.4742
 1.7840	29.4741
 1.7830	29.4239
 1.7820	29.3818
 1.7810	29.3604
 1.7800	29.3077
 1.7790	29.2984
 1.7780	29.2668
 1.7770	29.2142
 1.7760	29.1549
 1.7750	29.1513
 1.7740	29.1502
 1.7730	29.0744
 1.7720	29.0060
 1.7710	28.9698
 1.7700	28.9286
 1.7690	28.9720
 1.7680	28.8691
 1.7670	28.7812
 1.7660	28.7577
 1.7650	28.7926
 1.7640	28.7795
 1.7630	28.7547
 1.7620	28.6834
 1.7610	28.6645
 1.7600	28.6313
 1.7590	28.5944
 1.7580	28.5235
 1.7570	28.4825
 1.7560	28.4558
 1.7550	28.4075
 1.7540	28.3661
 1.7530	28.3321
 1.7520	28.2924
 1.7510	28.2883
 1.7500	28.2085
 1.7490	28.2213
 1.7480	28.1556
 1.7470	28.1078
 1.7460	28.1080
 1.7450	28.0663
 1.7440	27.9860
 1.7430	28.0101
 1.7420	27.9312
 1.7410	27.9202
 1.7400	27.8380
 1.7390	27.8030
 1.7380	27.7284
 1.7370	27.7607
 1.7360	27.6958
 1.7350	27.5863
 1.7340	27.4849
 1.7330	27.6031
 1.7320	27.5117
 1.7310	27.4855
 1.7300	27.4161
 1.7290	27.3802
 1.7280	27.3116
 1.7270	27.2766
 1.7260	27.2282
 1.7250	27.2322
 1.7240	27.1080
 1.7230	27.0966
 1.7220	27.0058
 1.7210	27.0291
 1.7200	26.9359
 1.7190	26.9655
 1.7180	26.8588
 1.7170	26.7742
 1.7160	26.7272
 1.7150	26.7425
 1.7140	26.6317
 1.7130	26.5452
 1.7120	26.5263
 1.7110	26.5170
 1.7100	26.4677
 1.7090	26.4132
 1.7080	26.3823
 1.7070	26.3099
 1.7060	26.2295
 1.7050	26.2883
 1.7040	26.1519
 1.7030	26.1782
 1.7020	26.0619
 1.7010	26.0659
 1.7000	25.9722
 1.6990	25.9964
 1.6980	25.8469
 1.6970	25.8205
 1.6960	25.7094
 1.6950	25.7456
 1.6940	25.6646
 1.6930	25.6757
 1.6920	25.6321
 1.6910	25.6162
 1.6900	25.4624
 1.6890	25.4925
 1.6880	25.3571
 1.6870	25.3014
 1.6860	25.2614
 1.6850	25.2266
 1.6840	25.1345
 1.6830	25.1400
 1.6820	25.0776
 1.6810	25.0112
 1.6800	24.9266
 1.6790	25.0080
 1.6780	24.8225
 1.6770	24.8770
 1.6760	24.7805
 1.6750	24.7553
 1.6740	24.6222
 1.6730	24.6129
 1.6720	24.5587
 1.6710	24.6072
 1.6700	24.4448
 1.6690	24.5288
 1.6680	24.2439
 1.6670	24.4201
 1.6660	24.2410
 1.6650	24.2132
 1.6640	24.1775
 1.6630	24.1046
 1.6620	23.9865
 1.6610	24.0239
 1.6600	23.8378
 1.6590	23.8944
 1.6580	23.6926
 1.6570	23.8208
 1.6560	23.6498
 1.6550	23.7129
 1.6540	23.5388
 1.6530	23.5794
 1.6520	23.4350
 1.6510	23.4989
 1.6500	23.2817
 1.6490	23.3902
 1.6480	23.2896
 1.6470	23.2045
 1.6460	23.0870
 1.6450	23.1204
 1.6440	22.9379
 1.6430	23.0472
 1.6420	22.9696
 1.6410	22.7685
 1.6400	22.8038
 1.6390	22.8463
 1.6380	22.6818
 1.6370	22.6619
 1.6360	22.6160
 1.6350	22.5503
 1.6340	22.4103
 1.6330	22.5233
 1.6320	22.3468
 1.6310	22.3895
 1.6300	22.2925
 1.6290	22.2418
 1.6280	22.0996
 1.6270	22.1325
 1.6260	21.9846
 1.6250	22.0321
 1.6240	21.9302
 1.6230	21.9568
 1.6220	21.7867
 1.6210	21.8522
 1.6200	21.7108
 1.6190	21.7777
 1.6180	21.5972
 1.6170	21.6012
 1.6160	21.4897
 1.6150	21.4593
 1.6140	21.3559
 1.6130	21.3445
 1.6120	21.2655
 1.6110	21.2618
 1.6100	21.0519
 1.6090	21.1460
 1.6080	21.0567
 1.6070	21.0461
 1.6060	20.9350
 1.6050	20.9302
 1.6040	20.8777
 1.6030	20.8860
 1.6020	20.7607
 1.6010	20.7016
 1.6000	20.6432
 1.5990	20.5928
 1.5980	20.4646
 1.5970	20.5540
 1.5960	20.3938
 1.5950	20.4145
 1.5940	20.3161
 1.5930	20.2951
 1.5920	20.2081
 1.5910	20.1937
 1.5900	20.1215
 1.5890	20.1407
 1.5880	20.0232
 1.5870	19.9695
 1.5860	19.8580
 1.5850	19.9193
 1.5840	19.7735
 1.5830	19.7891
 1.5820	19.7130
 1.5810	19.7164
 1.5800	19.5641
 1.5790	19.5839
 1.5780	19.5502
 1.5770	19.4954
 1.5760	19.3983
 1.5750	19.3622
 1.5740	19.3299
 1.5730	19.2842
 1.5720	19.1890
 1.5710	19.2443
 1.5700	19.1014
 1.5690	19.1013
 1.5680	19.0333
 1.5670	19.0674
 1.5660	18.9877
 1.5650	18.9237
 1.5640	18.8567
 1.5630	18.8866
 1.5620	18.7032
 1.5610	18.6479
 1.5600	18.6185
 1.5590	18.5964
 1.5580	18.5099
 1.5570	18.4472
 1.5560	18.3287
 1.5550	18.3285
 1.5540	18.2855
 1.5530	18.3091
 1.5520	18.1637
 1.5510	18.1687
 1.5500	18.0681
 1.5490	18.0684
 1.5480	18.0111
 1.5470	17.9195
 1.5460	17.8551
 1.5450	17.8637
 1.5440	17.7712
 1.5430	17.7710
 1.5420	17.6345
 1.5410	17.6552
 1.5400	17.5872
 1.5390	17.5809
 1.5380	17.4915
 1.5370	17.5142
 1.5360	17.4000
 1.5350	17.3568
 1.5340	17.3089
 1.5330	17.3096
 1.5320	17.2349
 1.5310	17.1993
 1.5300	17.0900
 1.5290	17.0787
 1.5280	16.9998
 1.5270	16.9577
 1.5260	16.9433
 1.5250	16.8887
 1.5240	16.8053
 1.5230	16.8523
 1.5220	16.7923
 1.5210	16.7179
 1.5200	16.6377
 1.5190	16.6045
 1.5180	16.5673
 1.5170	16.5355
 1.5160	16.4614
 1.5150	16.3871
 1.5140	16.3519
 1.5130	16.3499
 1.5120	16.2922
 1.5110	16.2149
 1.5100	16.1589
 1.5090	16.1362
 1.5080	16.0583
 1.5070	15.9850
 1.5060	15.9408
 1.5050	15.8653
 1.5040	15.8222
 1.5030	15.8360
 1.5020	15.7980
 1.5010	15.7064
 1.5000	15.6261
 1.4990	15.5948
 1.4980	15.5660
 1.4970	15.5172
 1.4960	15.5068
 1.4950	15.4297
 1.4940	15.3601
 1.4930	15.3601
 1.4920	15.3068
 1.4910	15.2172
 1.4900	15.1736
 1.4890	15.0680
 1.4880	15.0491
 1.4870	15.0206
 1.4860	14.9612
 1.4850	14.9051
 1.4840	14.8812
 1.4830	14.8092
 1.4820	14.7924
 1.4810	14.7321
 1.4800	14.6792
 1.4790	14.6130
 1.4780	14.5656
 1.4770	14.4911
 1.4760	14.4322
 1.4750	14.3950
 1.4740	14.3511
 1.4730	14.3027
 1.4720	14.2582
 1.4710	14.2008
 1.4700	14.1365
 1.4690	13.9975
 1.4680	14.0320
 1.4670	14.0197
 1.4660	13.9775
 1.4650	13.9279
 1.4640	13.8891
 1.4630	13.8185
 1.4620	13.8736
 1.4610	13.7616
 1.4600	13.7664
 1.4590	13.7421
 1.4580	13.7089
 1.4570	13.6634
 1.4560	13.6958
 1.4550	13.6000
 1.4540	13.6572
 1.4530	13.5623
 1.4520	13.5931
 1.4510	13.4137
 1.4500	13.4400
 1.4490	13.3575
 1.4480	13.4527
 1.4470	13.3792
 1.4460	13.3917
 1.4450	13.2948
 1.4440	13.3061
 1.4430	13.2276
 1.4420	13.2194
 1.4410	13.1379
 1.4400	13.1587
 1.4390	13.0956
 1.4380	13.1579
 1.4370	13.0201
 1.4360	12.9513
 1.4350	12.9308
 1.4340	12.9689
 1.4330	12.9326
 1.4320	12.9288
 1.4310	12.8189
 1.4300	12.7976
 1.4290	12.7076
 1.4280	12.7624
 1.4270	12.6648
 1.4260	12.6612
 1.4250	12.5675
 1.4240	12.5614
 1.4230	12.5223
 1.4220	12.5469
 1.4210	12.4291
 1.4200	12.3906
 1.4190	12.2385
 1.4180	12.2088
 1.4170	12.1023
 1.4160	12.1990
 1.4150	12.1097
 1.4140	12.0780
 1.4130	12.0448
 1.4120	12.1031
 1.4110	12.0829
 1.4100	12.2372
 1.4090	12.1843
 1.4080	12.3367
 1.4070	12.2749
 1.4060	12.4254
 1.4050	12.4878
 1.4040	12.6607
 1.4030	12.6240
 1.4020	12.8108
 1.4010	12.7290
 1.4000	12.8792
 1.3990	12.9271
 1.3980	12.9524
 1.3970	13.0692
 1.3960	13.1028
 1.3950	13.1496
 1.3940	13.2694
 1.3930	13.1647
 1.3920	13.3336
 1.3910	13.2753
 1.3900	13.3597
 1.3890	13.3298
 1.3880	13.4396
 1.3870	13.3369
 1.3860	13.4350
 1.3850	13.4128
 1.3840	13.4761
 1.3830	13.4118
 1.3820	13.4097
 1.3810	13.3679
 1.3800	13.4870
 1.3790	13.3879
 1.3780	13.5300
 1.3770	13.4354
 1.3760	13.5957
 1.3750	13.4197
 1.3740	13.5083
 1.3730	13.4106
 1.3720	13.5107
 1.3710	13.4053
 1.3700	13.5153
 1.3690	13.3697
 1.3680	13.5253
 1.3670	13.3866
 1.3660	13.5116
 1.3650	13.3076
 1.3640	13.5079
 1.3630	13.3073
 1.3620	13.3874
 1.3610	13.2751
 1.3600	13.3452
 1.3590	13.1847
 1.3580	13.4342
 1.3570	13.2366
 1.3560	13.3668
 1.3550	12.9856
 1.3540	13.3162
 1.3530	13.0964
 1.3520	13.3226
 1.3510	13.0900
 1.3500	13.2282
 1.3490	13.0994
 1.3480	13.0930
 1.3470	13.0092
 1.3460	13.1049
 1.3450	13.1024
 1.3440	13.1556
 1.3430	12.9454
 1.3420	13.0657
 1.3410	12.8557
 1.3400	13.0317
 1.3390	12.8392
 1.3380	13.0099
 1.3370	12.8625
 1.3360	12.9935
 1.3350	12.8732
 1.3340	12.9242
 1.3330	12.8292
 1.3320	12.9212
 1.3310	12.7706
 1.3300	12.8639
 1.3290	12.7254
 1.3280	12.8631
 1.3270	12.7168
 1.3260	12.7929
 1.3250	12.6775
 1.3240	12.7836
 1.3230	12.7327
 1.3220	12.7543
 1.3210	12.6830
 1.3200	12.7009
 1.3190	12.5940
 1.3180	12.7160
 1.3170	12.6218
 1.3160	12.6431
 1.3150	12.5275
 1.3140	12.6514
 1.3130	12.5346
 1.3120	12.5869
 1.3110	12.4609
 1.3100	12.5582
 1.3090	12.4740
 1.3080	12.5291
 1.3070	12.4513
 1.3060	12.5116
 1.3050	12.4484
 1.3040	12.4131
 1.3030	12.3738
 1.3020	12.3926
 1.3010	12.2835
 1.3000	12.4193
 1.2990	12.3758
 1.2980	12.3721
 1.2970	12.3079
 1.2960	12.3150
 1.2950	12.3091
 1.2940	12.3217
 1.2930	12.1719
 1.2920	12.2822
 1.2910	12.2306
 1.2900	12.2343
 1.2890	12.1150
 1.2880	12.2096
 1.2870	12.1838
 1.2860	12.0957
 1.2850	12.0906
 1.2840	12.1553
 1.2830	12.0895
 1.2820	12.1236
 1.2810	12.0397
 1.2800	12.0678
 1.2790	12.0250
 1.2780	12.0851
 1.2770	12.0180
 1.2760	12.0404
 1.2750	11.9765
 1.2740	12.0356
 1.2730	11.9829
 1.2720	11.9652
 1.2710	11.8934
 1.2700	11.9531
 1.2690	11.9347
 1.2680	11.9058
 1.2670	11.8745
 1.2660	11.9104
 1.2650	11.8557
 1.2640	11.8994
 1.2630	11.8463
 1.2620	11.8530
 1.2610	11.8557
 1.2600	11.8169
 1.2590	11.7410
 1.2580	11.7631
 1.2570	11.7516
 1.2560	11.7726
 1.2550	11.7437
 1.2540	11.7646
 1.2530	11.7087
 1.2520	11.7161
 1.2510	11.6591
 1.2500	11.6918
 1.2490	11.6177
 1.2480	11.6410
 1.2470	11.6105
 1.2460	11.7022
 1.2450	11.6422
 1.2440	11.6322
 1.2430	11.6199
 1.2420	11.6080
 1.2410	11.5571
 1.2400	11.5561
 1.2390	11.5483
 1.2380	11.5894
 1.2370	11.5095
 1.2360	11.4653
 1.2350	11.4569
 1.2340	11.5283
 1.2330	11.5330
 1.2320	11.5351
 1.2310	11.4947
 1.2300	11.4521
 1.2290	11.4317
 1.2280	11.4497
 1.2270	11.4147
 1.2260	11.4115
 1.2250	11.4014
 1.2240	11.4049
 1.2230	11.4170
 1.2220	11.4184
 1.2210	11.3853
 1.2200	11.3750
 1.2190	11.3705
 1.2180	11.4081
 1.2170	11.3719
 1.2160	11.2967
 1.2150	11.3172
 1.2140	11.2981
 1.2130	11.2775
 1.2120	11.2629
 1.2110	11.2376
 1.2100	11.2687
 1.2090	11.2823
 1.2080	11.2275
 1.2070	11.2168
 1.2060	11.1799
 1.2050	11.1598
 1.2040	11.1408
 1.2030	11.1487
 1.2020	11.1801
 1.2010	11.2075
 1.2000	11.1593
 1.1990	11.1729
 1.1980	11.1916
 1.1970	11.2122
 1.1960	11.1893
 1.1950	11.1935
 1.1940	11.2028
 1.1930	11.2015
 1.1920	11.1033
 1.1910	11.0936
 1.1900	11.1174
 1.1890	11.1023
 1.1880	10.9887
 1.1870	11.0956
 1.1860	11.0687
 1.1850	11.0741
 1.1840	11.0626
 1.1830	11.0747
 1.1820	11.0240
 1.1810	11.0622
 1.1800	11.0191
 1.1790	11.0403
 1.1780	10.9908
 1.1770	11.0175
 1.1760	10.9932
 1.1750	11.0050
 1.1740	10.9816
 1.1730	11.0716
 1.1720	11.0057
 1.1710	11.0150
 1.1700	10.9610
 1.1690	11.0142
 1.1680	10.9803
 1.1670	10.9655
 1.1660	10.9405
 1.1650	10.9694
 1.1640	10.8904
 1.1630	10.9739
 1.1620	10.9521
 1.1610	10.9362
 1.1600	10.8981
 1.1590	10.9478
 1.1580	10.9035
 1.1570	10.9976
 1.1560	10.8894
 1.1550	10.9417
 1.1540	10.8803
 1.1530	10.9580
 1.1520	10.8233
 1.1510	10.8712
 1.1500	10.8880
 1.1490	10.8921
 1.1480	10.8529
 1.1470	10.8842
 1.1460	10.8633
 1.1450	10.9208
 1.1440	10.7836
 1.1430	10.8511
 1.1420	10.8408
 1.1410	10.8929
 1.1400	10.8694
 1.1390	10.9078
 1.1380	10.8757
 1.1370	10.8857
 1.1360	10.8058
 1.1350	10.9344
 1.1340	10.7807
 1.1330	10.8328
 1.1320	10.7336
 1.1310	10.8702
 1.1300	10.8010
 1.1290	10.8631
 1.1280	10.8168
 1.1270	10.8380
 1.1260	10.6991
 1.1250	10.8330
 1.1240	10.8283
 1.1230	10.8152
 1.1220	10.7232
 1.1210	10.8611
 1.1200	10.7285
 1.1190	10.7416
 1.1180	10.7111
 1.1170	10.7717
 1.1160	10.7492
 1.1150	10.7985
 1.1140	10.6864
 1.1130	10.8248
 1.1120	10.7136
 1.1110	10.8234
 1.1100	10.6606
 1.1090	10.7043
 1.1080	10.7122
 1.1070	10.6192
 1.1060	10.6734
 1.1050	10.6960
 1.1040	10.6252
 1.1030	10.6773
 1.1020	10.5670
 1.1010	10.7018
 1.1000	10.5704
 1.0990	10.5949
 1.0980	10.6293
 1.0970	10.6531
 1.0960	10.5141
 1.0950	10.6667
 1.0940	10.5357
 1.0930	10.6088
 1.0920	10.4917
 1.0910	10.6167
 1.0900	10.4726
 1.0890	10.5928
 1.0880	10.4969
 1.0870	10.5056
 1.0860	10.3905
 1.0850	10.5112
 1.0840	10.3967
 1.0830	10.5724
 1.0820	10.4106
 1.0810	10.5104
 1.0800	10.3961
 1.0790	10.4313
 1.0780	10.3089
 1.0770	10.4458
 1.0760	10.2824
 1.0750	10.4092
 1.0740	10.2459
 1.0730	10.3868
 1.0720	10.2144
 1.0710	10.4932
 1.0700	10.0141
 1.0690	10.4194
 1.0680	10.1427
 1.0670	10.2440
 1.0660	10.1157
 1.0650	10.1557
 1.0640	10.1504
 1.0630	10.1610
 1.0620	10.0608
 1.0610	10.2194
 1.0600	10.0025
 1.0590	10.0539
 1.0580	10.0204
 1.0570	10.0232
 1.0560	 9.8892
 1.0550	10.0276
 1.0540	 9.8937
 1.0530	 9.9336
 1.0520	 9.8718
 1.0510	 9.8697
 1.0500	 9.7807
 1.0490	 9.8062
 1.0480	 9.8072
 1.0470	 9.8362
 1.0460	 9.6776
 1.0450	 9.8449
 1.0440	 9.6209
 1.0430	 9.6901
 1.0420	 9.6372
 1.0410	 9.6565
 1.0400	 9.6082
 1.0390	 9.5973
 1.0380	 9.4755
 1.0370	 9.5733
 1.0360	 9.4664
 1.0350	 9.4531
 1.0340	 9.3569
 1.0330	 9.4812
 1.0320	 9.3879
 1.0310	 9.3461
 1.0300	 9.2303
 1.0290	 9.3002
 1.0280	 9.2196
 1.0270	 9.2780
 1.0260	 9.1230
 1.0250	 9.2033
 1.0240	 9.0741
 1.0230	 9.0957
 1.0220	 8.9730
 1.0210	 8.9986
 1.0200	 8.9367
 1.0190	 8.9899
 1.0180	 8.9262
 1.0170	 8.9840
 1.0160	 8.8116
 1.0150	 8.8212
 1.0140	 8.7827
 1.0130	 8.8242
 1.0120	 8.6910
 1.0110	 8.7378
 1.0100	 8.5549
 1.0090	 8.6778
 1.0080	 8.5685
 1.0070	 8.5787
 1.0060	 8.4599
 1.0050	 8.5208
 1.0040	 8.4239
 1.0030	 8.4057
 1.0020	 8.3500
 1.0010	 8.3779
 1.0000	 8.2593
 0.9990	 8.2257
 0.9980	 8.1821
 0.9970	 8.1936
 0.9960	 8.1012
 0.9950	 8.1773
 0.9940	 8.0795
 0.9930	 8.0107
 0.9920	 7.9899
 0.9910	 8.0019
 0.9900	 7.9512
 0.9890	 7.9432
 0.9880	 7.8607
 0.9870	 7.8835
 0.9860	 7.7316
 0.9850	 7.8216
 0.9840	 7.6951
 0.9830	 7.6822
 0.9820	 7.6632
 0.9810	 7.6470
 0.9800	 7.5022
 0.9790	 7.5687
 0.9780	 7.5308
 0.9770	 7.4566
 0.9760	 7.3886
 0.9750	 7.4483
 0.9740	 7.3764
 0.9730	 7.3512
 0.9720	 7.2599
 0.9710	 7.2794
 0.9700	 7.2675
 0.9690	 7.2366
 0.9680	 7.1041
 0.9670	 7.1430
 0.9660	 7.0345
 0.9650	 7.0457
 0.9640	 6.9924
 0.9630	 7.0035
 0.9620	 6.9556
 0.9610	 6.9204
 0.9600	 6.8325
 0.9590	 6.8174
 0.9580	 6.8230
 0.9570	 6.8350
 0.9560	 6.7519
 0.9550	 6.6621
 0.9540	 6.6156
 0.9530	 6.6187
 0.9520	 6.6193
 0.9510	 6.5690
 0.9500	 6.4729
 0.9490	 6.5150
 0.9480	 6.5066
 0.9470	 6.5516
 0.9460	 6.4848
 0.9450	 6.4429
 0.9440	 6.4007
 0.9430	 6.3767
 0.9420	 6.3155
 0.9410	 6.2886
 0.9400	 6.2654
 0.9390	 6.1964
 0.9380	 6.1547
 0.9370	 6.1617
 0.9360	 6.1333
 0.9350	 6.0869
 0.9340	 6.0776
 0.9330	 6.0795
 0.9320	 6.0009
 0.9310	 5.9404
 0.9300	 5.9177
 0.9290	 5.8966
 0.9280	 5.9058
 0.9270	 5.8821
 0.9260	 5.8606
 0.9250	 5.8278
 0.9240	 5.7940
 0.9230	 5.7892
 0.9220	 5.7517
 0.9210	 5.7082
 0.9200	 5.7364
 0.9190	 5.6868
 0.9180	 5.6044
 0.9170	 5.5631
 0.9160	 5.5943
 0.9150	 5.5538
 0.9140	 5.5230
 0.9130	 5.5020
 0.9120	 5.5209
 0.9110	 5.4601
 0.9100	 5.4277
 0.9090	 5.3877
 0.9080	 5.4080
 0.9070	 5.3580
 0.9060	 5.3508
 0.9050	 5.3434
 0.9040	 5.3103
 0.9030	 5.2589
 0.9020	 5.2816
 0.9010	 5.2095
 0.9000	 5.2050
 0.8990	 5.1597
 0.8980	 5.1802
 0.8970	 5.1233
 0.8960	 5.2104
 0.8950	 5.1744
 0.8940	 5.1524
 0.8930	 5.0749
 0.8920	 5.0901
 0.8910	 5.0568
 0.8900	 5.0249
 0.8890	 4.9922
 0.8880	 5.0094
 0.8870	 4.9826
 0.8860	 5.0459
 0.8850	 4.9644
 0.8840	 4.9687
 0.8830	 4.9008
 0.8820	 4.9633
 0.8810	 4.8808
 0.8800	 4.8822
 0.8790	 4.8562
 0.8780	 4.8893
 0.8770	 4.8074
 0.8760	 4.8702
 0.8750	 4.8601
 0.8740	 4.8933
 0.8730	 4.8268
 0.8720	 4.8259
 0.8710	 4.6941
 0.8700	 4.7598
 0.8690	 4.7328
 0.8680	 4.7990
 0.8670	 4.6943
 0.8660	 4.7569
 0.8650	 4.6990
 0.8640	 4.6887
 0.8630	 4.6833
 0.8620	 4.6986
 0.8610	 4.6522
 0.8600	 4.8428
 0.8590	 4.8798
 0.8580	 4.8725
 0.8570	 4.8570
 0.8560	 4.8606
 0.8550	 4.8450
 0.8540	 4.8375
 0.8530	 4.8354
 0.8520	 4.8417
 0.8510	 4.8299
 0.8500	 4.8127
 0.8490	 4.8073
 0.8480	 4.8045
 0.8470	 4.7997
 0.8460	 4.7955
 0.8450	 4.7876
 0.8440	 4.7907
 0.8430	 4.7727
 0.8420	 4.7761
 0.8410	 4.7665
 0.8400	 4.7604
 0.8390	 4.7604
 0.8380	 4.7482
 0.8370	 4.7466
 0.8360	 4.7431
 0.8350	 4.7339
 0.8340	 4.7284
 0.8330	 4.7330
 0.8320	 4.7211
 0.8310	 4.7207
 0.8300	 4.7178
 0.8290	 4.7169
 0.8280	 4.7114
 0.8270	 4.7063
 0.8260	 4.6975
 0.8250	 4.6940
 0.8240	 4.6962
 0.8230	 4.6864
 0.8220	 4.6789
 0.8210	 4.6901
 0.8200	 4.6798
 0.8190	 4.6748
 0.8180	 4.6784
 0.8170	 4.6789
 0.8160	 4.6757
 0.8150	 4.6770
 0.8140	 4.6719
 0.8130	 4.6660
 0.8120	 4.6605
 0.8110	 4.6621
 0.8100	 4.6617
 0.8090	 4.6621
 0.8080	 4.6521
 0.8070	 4.6559
 0.8060	 4.6587
 0.8050	 4.6556
 0.8040	 4.6535
 0.8030	 4.6523
 0.8020	 4.6520
 0.8010	 4.6457
 0.8000	 4.6497
 0.7990	 4.6487
 0.7980	 4.6467
 0.7970	 4.6438
 0.7960	 4.6408
 0.7950	 4.6422
 0.7940	 4.6416
 0.7930	 4.6411
 0.7920	 4.6409
 0.7910	 4.6369
 0.7900	 4.6428
 0.7890	 4.6376
 0.7880	 4.6434
 0.7870	 4.6385
 0.7860	 4.6352
 0.7850	 4.6457
 0.7840	 4.6490
 0.7830	 4.6501
 0.7820	 4.6465
 0.7810	 4.6471
 0.7800	 4.6506
 0.7790	 4.6589
 0.7780	 4.6565
 0.7770	 4.6598
 0.7760	 4.6546
 0.7750	 4.6667
 0.7740	 4.6672
 0.7730	 4.6670
 0.7720	 4.6752
 0.7710	 4.6781
 0.7700	 4.6737
 0.7690	 4.6739
 0.7680	 4.6815
 0.7670	 4.6865
 0.7660	 4.6886
 0.7650	 4.6947
 0.7640	 4.6910
 0.7630	 4.7004
 0.7620	 4.7044
 0.7610	 4.7062
 0.7600	 4.7138
 0.7590	 4.7177
 0.7580	 4.7247
 0.7570	 4.7304
 0.7560	 4.7359
 0.7550	 4.7426
 0.7540	 4.7498
 0.7530	 4.7555
 0.7520	 4.7585
 0.7510	 4.7690
 0.7500	 4.7788
 0.7490	 4.7852
 0.7480	 4.7902
 0.7470	 4.8071
 0.7460	 4.8143
 0.7450	 4.8235
 0.7440	 4.8338
 0.7430	 4.8422
 0.7420	 4.8503
 0.7410	 4.8589
 0.7400	 4.8679
 0.7390	 4.8831
 0.7380	 4.8968
 0.7370	 4.9078
 0.7360	 4.9223
 0.7350	 4.9350
 0.7340	 4.9408
 0.7330	 4.9496
 0.7320	 4.9658
 0.7310	 4.9833
 0.7300	 4.9959
 0.7290	 5.0102
 0.7280	 5.0215
 0.7270	 5.0388
 0.7260	 5.0550
 0.7250	 5.0639
 0.7240	 5.0809
 0.7230	 5.0949
 0.7220	 5.1151
 0.7210	 5.1315
 0.7200	 5.1483
 0.7190	 5.1671
 0.7180	 5.1906
 0.7170	 5.2046
 0.7160	 5.2224
 0.7150	 5.2437
 0.7140	 5.2617
 0.7130	 5.2848
 0.7120	 5.3055
 0.7110	 5.3243
 0.7100	 5.3439
 0.7090	 5.3668
 0.7080	 5.3892
 0.7070	 5.4148
 0.7060	 5.4368
 0.7050	 5.4610
 0.7040	 5.4855
 0.7030	 5.5125
 0.7020	 5.5368
 0.7010	 5.5618
 0.7000	 5.5910
 0.6990	 5.6162
 0.6980	 5.6443
 0.6970	 5.6735
 0.6960	 5.7003
 0.6950	 5.7314
 0.6940	 5.7624
 0.6930	 5.7927
 0.6920	 5.8205
 0.6910	 5.8557
 0.6900	 5.8872
 0.6890	 5.9194
 0.6880	 5.9543
 0.6870	 5.9876
 0.6860	 6.0252
 0.6850	 6.0607
 0.6840	 6.1003
 0.6830	 6.1375
 0.6820	 6.1744
 0.6810	 6.2177
 0.6800	 6.2603
 0.6790	 6.2997
 0.6780	 6.3431
 0.6770	 6.3893
 0.6760	 6.4306
 0.6750	 6.4748
 0.6740	 6.5230
 0.6730	 6.5717
 0.6720	 6.6221
 0.6710	 6.6719
 0.6700	 6.7207
 0.6690	 6.7733
 0.6680	 6.8264
 0.6670	 6.8800
 0.6660	 6.9404
 0.6650	 7.0001
 0.6640	 7.0576
 0.6630	 7.1193
 0.6620	 7.1794
 0.6610	 7.2419
 0.6600	 7.3085
 0.6590	 7.3761
 0.6580	 7.4454
 0.6570	 7.5134
 0.6560	 7.5860
 0.6550	 7.6599
 0.6540	 7.7352
 0.6530	 7.8143
 0.6520	 7.8941
 0.6510	 7.9733
 0.6500	 8.0568
 0.6490	 8.1418
 0.6480	 8.2295
 0.6470	 8.3224
 0.6460	 8.4128
 0.6450	 8.5072
 0.6440	 8.6044
 0.6430	 8.7033
 0.6420	 8.7959
 0.6410	 8.8865
 0.6400	 8.9917
 0.6390	 9.1027
 0.6380	 9.2128
 0.6370	 9.3276
 0.6360	 9.4463
 0.6350	 9.5640
 0.6340	 9.6848
 0.6330	 9.8128
 0.6320	 9.9422
 0.6310	10.0736
 0.6300	10.2085
 0.6290	10.3484
 0.6280	10.4896
 0.6270	10.6347
 0.6260	10.7851
 0.6250	10.9382
 0.6240	11.0948
 0.6230	11.2550
 0.6220	11.4156
 0.6210	11.5830
 0.6200	11.7548
 0.6190	11.9301
 0.6180	12.1062
 0.6170	12.2885
 0.6160	12.4778
 0.6150	12.6692
 0.6140	12.8658
 0.6130	13.0674
 0.6120	13.2747
 0.6110	13.4815
 0.6100	13.6911
 0.6090	13.9063
 0.6080	14.1286
 0.6070	14.3575
 0.6060	14.5866
 0.6050	14.8228
 0.6040	15.0665
 0.6030	15.3139
 0.6020	15.5671
 0.6010	15.8223
 0.6000	16.0810
 0.5990	16.3496
 0.5980	16.6267
 0.5970	16.9094
 0.5960	17.1929
 0.5950	17.4568
 0.5940	17.7347
 0.5930	18.0321
 0.5920	18.3323
 0.5910	18.6360
 0.5900	18.9519
 0.5890	19.2705
 0.5880	19.5867
 0.5870	19.9093
 0.5860	20.2407
 0.5850	20.5726
 0.5840	20.9110
 0.5830	21.2631
 0.5820	21.6129
 0.5810	21.9638
 0.5800	22.3209
 0.5790	22.6885
 0.5780	23.0531
 0.5770	23.4211
 0.5760	23.7952
 0.5750	24.1644
 0.5740	24.5442
 0.5730	24.9296
 0.5720	25.3111
 0.5710	25.6943
 0.5700	26.0827
 0.5690	26.4738
 0.5680	26.8638
 0.5670	27.2542
 0.5660	27.6495
 0.5650	28.0437
 0.5640	28.4361
 0.5630	28.8225
 0.5620	29.2129
 0.5610	29.6286
 0.5600	30.0209
 0.5590	30.4046
 0.5580	30.7831
 0.5570	31.1632
 0.5560	31.5378
 0.5550	31.9014
 0.5540	32.2387
 0.5530	32.5879
 0.5520	32.9346
 0.5510	33.2786
 0.5500	33.6255
 0.5490	33.9462
 0.5480	34.2634
 0.5470	34.5745
 0.5460	34.8772
 0.5450	35.1478
 0.5440	35.4197
 0.5430	35.6919
 0.5420	35.9548
 0.5410	36.2012
 0.5400	36.4479
 0.5390	36.6753
 0.5380	36.8916
 0.5370	37.0997
 0.5360	37.2851
 0.5350	37.4664
 0.5340	37.6245
 0.5330	37.7774
 0.5320	37.9291
 0.5310	38.0596
 0.5300	38.1878
 0.5290	38.2854
 0.5280	38.3719
 0.5270	38.4587
 0.5260	38.5292
 0.5250	38.5842
 0.5240	38.6338
 0.5230	38.6733
 0.5220	38.6960
 0.5210	38.7135
 0.5200	38.7169
 0.5190	38.7092
 0.5180	38.6962
 0.5170	38.6696
 0.5160	38.6176
 0.5150	38.5881
 0.5140	38.5382
 0.5130	38.4593
 0.5120	38.3836
 0.5110	38.3159
 0.5100	38.2297
 0.5090	38.1256
 0.5080	38.0248
 0.5070	37.9036
 0.5060	37.7667
 0.5050	37.6465
 0.5040	37.5064
 0.5030	37.3674
 0.5020	37.1952
 0.5010	37.0471
 0.5000	36.8721
 0.4990	36.7038
 0.4980	36.5095
 0.4970	36.3373
 0.4960	36.1384
 0.4950	35.9485
 0.4940	35.7234
 0.4930	35.5478
 0.4920	35.3195
 0.4910	35.0925
 0.4900	34.8670
 0.4890	34.6319
 0.4880	34.3726
 0.4870	34.1222
 0.4860	33.8753
 0.4850	33.6183
 0.4840	33.3444
 0.4830	33.0940
 0.4820	32.8413
 0.4810	32.5851
 0.4800	32.3751
 0.4790	32.1387
 0.4780	31.8823
 0.4770	31.6240
 0.4760	31.3668
 0.4750	31.0998
 0.4740	30.8283
 0.4730	30.5589
 0.4720	30.2758
 0.4710	30.0058
 0.4700	29.7346
 0.4690	29.4699
 0.4680	29.1981
 0.4670	28.9283
 0.4660	28.6725
 0.4650	28.4015
 0.4640	28.1428
 0.4630	27.8733
 0.4620	27.6197
 0.4610	27.3612
 0.4600	27.1167
 0.4590	26.8668
 0.4580	26.6294
 0.4570	26.3829
 0.4560	26.1436
 0.4550	25.9235
 0.4540	25.6914
 0.4530	25.4700
 0.4520	25.2501
 0.4510	25.0337
 0.4500	24.8201
 0.4490	24.6185
 0.4480	24.4065
 0.4470	24.2075
 0.4460	24.0078
 0.4450	23.7991
 0.4440	23.6087
 0.4430	23.4199
 0.4420	23.2301
 0.4410	23.0484
 0.4400	22.8683
 0.4390	22.6937
 0.4380	22.5063
 0.4370	22.3279
 0.4360	22.1518
 0.4350	21.9679
 0.4340	21.7897
 0.4330	21.6131
 0.4320	21.4306
 0.4310	21.2510
 0.4300	21.0730
 0.4290	20.8853
 0.4280	20.6931
 0.4270	20.5018
 0.4260	20.3150
 0.4250	20.1076
 0.4240	19.8986
 0.4230	19.6944
 0.4220	19.4841
 0.4210	19.2664
 0.4200	19.0493
 0.4190	18.8174
 0.4180	18.5887
 0.4170	18.3721
 0.4160	18.1217
 0.4150	17.8751
 0.4140	17.6057
 0.4130	17.3448
 0.4120	17.0761
 0.4110	16.7964
 0.4100	16.5211
 0.4090	16.2371
 0.4080	15.9524
 0.4070	15.6601
 0.4060	15.3642
 0.4050	15.0622
 0.4040	14.7625
 0.4030	14.4635
 0.4020	14.1622
 0.4010	13.8610
 0.4000	13.5661
