Name: Talc Mg_3Si_4O_10(OH)_2
Type: Mineral
Class: Silicate
Subclass: Phyllosilicate
Particle Size: Coarse
Sample No.: PS-14A
Owner: JPL
Wavelength Range: VSWIR
Origin: USA, Georgia, Cherokee County, Holly Springs
Collection Date: N/A
Description: Particle size was 125-500um.Collected by Burminco Original ASTER Spectral Library name was jpl.beckman.mineral.silicate.phyllosilicate.coarse.ps14a.spectrum.txt
Measurement: Hemispherical reflectance
First Column: X
Second Column: Y
X Units: Wavelength (micrometers)
Y Units:Reflectance (percent)
First X Value:  0.4000
Last X Value:  2.5000
Number of X Values: 826
Additional Information: mineral.silicate.phyllosilicate.coarse.vswir.ps-14a.jpl.beckman.ancillary.txt

 0.4000	82.1300
 0.4010	81.9500
 0.4020	82.0700
 0.4030	82.3600
 0.4040	82.6400
 0.4050	82.5300
 0.4060	82.4100
 0.4070	82.4700
 0.4080	82.7600
 0.4090	83.0900
 0.4100	83.0900
 0.4110	83.0400
 0.4120	83.1500
 0.4130	83.3200
 0.4140	83.8400
 0.4150	83.7200
 0.4160	83.6700
 0.4170	83.7800
 0.4180	84.1300
 0.4190	84.4000
 0.4200	84.3600
 0.4210	84.1800
 0.4220	84.3600
 0.4230	84.6900
 0.4240	85.0400
 0.4250	84.9200
 0.4260	84.7500
 0.4270	84.7500
 0.4280	85.0400
 0.4290	85.4900
 0.4300	85.4900
 0.4310	85.3800
 0.4320	85.3800
 0.4330	85.7200
 0.4340	85.9400
 0.4350	85.8300
 0.4360	85.6100
 0.4370	85.7200
 0.4380	85.8900
 0.4390	86.1700
 0.4400	85.8900
 0.4410	85.7800
 0.4420	85.8300
 0.4430	86.0000
 0.4440	86.2900
 0.4450	86.1700
 0.4460	85.8900
 0.4470	85.8900
 0.4480	86.0600
 0.4490	86.2900
 0.4500	86.0600
 0.4510	85.9400
 0.4520	86.0600
 0.4530	86.1300
 0.4540	86.3600
 0.4550	86.0700
 0.4560	86.0100
 0.4570	86.0700
 0.4580	86.1900
 0.4590	86.4200
 0.4600	86.1900
 0.4610	86.1900
 0.4620	86.6500
 0.4630	86.6100
 0.4640	86.3200
 0.4650	86.2600
 0.4660	86.4900
 0.4670	86.8800
 0.4680	86.7200
 0.4690	86.4400
 0.4700	86.5500
 0.4710	86.8400
 0.4720	87.0100
 0.4730	86.9000
 0.4740	86.6700
 0.4750	86.6200
 0.4760	86.8500
 0.4770	87.0200
 0.4780	87.0300
 0.4790	86.9700
 0.4800	86.9700
 0.4810	87.1400
 0.4820	87.4900
 0.4830	87.3800
 0.4840	87.1500
 0.4850	87.1000
 0.4860	87.3800
 0.4870	87.7200
 0.4880	87.6100
 0.4890	87.3800
 0.4900	87.3800
 0.4910	87.4400
 0.4920	87.7900
 0.4930	87.8000
 0.4940	87.5100
 0.4950	87.5100
 0.4960	87.6200
 0.4970	87.9100
 0.4980	87.7500
 0.4990	87.6300
 0.5000	87.6300
 0.5010	87.8100
 0.5020	88.0900
 0.5030	88.0900
 0.5040	87.9800
 0.5050	87.8100
 0.5060	88.0300
 0.5070	88.3800
 0.5080	88.3200
 0.5090	88.1500
 0.5100	87.9800
 0.5110	88.0900
 0.5120	88.3800
 0.5130	88.4900
 0.5140	88.2600
 0.5150	88.1500
 0.5160	88.3800
 0.5170	88.4900
 0.5180	88.7100
 0.5190	88.5500
 0.5200	88.3200
 0.5210	88.3200
 0.5220	88.4900
 0.5230	88.7100
 0.5240	88.5500
 0.5250	88.4400
 0.5260	88.4400
 0.5270	88.4900
 0.5280	89.0000
 0.5290	88.6100
 0.5300	88.4900
 0.5310	88.4900
 0.5320	88.6600
 0.5330	88.8900
 0.5340	88.7700
 0.5350	88.4400
 0.5360	88.4900
 0.5370	88.6100
 0.5380	88.7700
 0.5390	88.8300
 0.5400	88.6600
 0.5410	88.5500
 0.5420	88.6100
 0.5430	88.8300
 0.5440	88.9400
 0.5450	88.7100
 0.5460	88.4400
 0.5470	88.6100
 0.5480	88.8900
 0.5490	89.0000
 0.5500	88.8900
 0.5510	88.6600
 0.5520	88.8300
 0.5530	89.0000
 0.5540	89.2300
 0.5550	89.0000
 0.5560	88.6600
 0.5570	88.7100
 0.5580	89.0000
 0.5590	89.0600
 0.5600	88.8900
 0.5610	88.8900
 0.5620	89.1700
 0.5630	88.8900
 0.5640	88.8900
 0.5650	88.6100
 0.5660	88.6100
 0.5670	89.0000
 0.5680	88.7700
 0.5690	88.5500
 0.5700	88.4400
 0.5710	88.5500
 0.5720	88.7700
 0.5730	88.4900
 0.5740	88.2100
 0.5750	87.9800
 0.5760	88.1500
 0.5770	88.4900
 0.5780	88.2600
 0.5790	88.0300
 0.5800	87.8100
 0.5810	87.9800
 0.5820	88.0900
 0.5830	87.9800
 0.5840	87.6300
 0.5850	87.5200
 0.5860	87.6900
 0.5870	87.9800
 0.5880	87.6900
 0.5890	87.2900
 0.5900	87.4000
 0.5910	87.4600
 0.5920	87.6900
 0.5930	87.2900
 0.5940	87.0600
 0.5950	87.0000
 0.5960	87.0600
 0.5970	87.1700
 0.5980	86.9500
 0.5990	86.7800
 0.6000	86.7200
 0.6010	86.7800
 0.6020	86.9500
 0.6030	86.7200
 0.6040	86.4400
 0.6050	86.3800
 0.6060	86.5500
 0.6070	86.7200
 0.6080	86.3200
 0.6090	86.0900
 0.6100	86.0900
 0.6110	86.1500
 0.6120	86.2600
 0.6130	85.9800
 0.6140	85.6300
 0.6150	85.5700
 0.6160	85.5200
 0.6170	85.5700
 0.6180	85.5200
 0.6190	85.1300
 0.6200	85.0700
 0.6210	85.1300
 0.6220	85.4600
 0.6230	85.0700
 0.6240	84.8400
 0.6250	84.6700
 0.6260	84.7200
 0.6270	84.8400
 0.6280	84.7200
 0.6290	84.5500
 0.6300	84.3800
 0.6310	84.4900
 0.6320	84.7200
 0.6330	84.4400
 0.6340	84.2100
 0.6350	84.1500
 0.6360	84.1500
 0.6370	84.3200
 0.6380	84.1500
 0.6390	83.9800
 0.6400	83.6900
 0.6410	83.8600
 0.6420	84.0300
 0.6430	83.9800
 0.6440	83.6900
 0.6450	83.5800
 0.6460	83.8000
 0.6470	83.9800
 0.6480	83.9200
 0.6490	83.6900
 0.6500	83.5300
 0.6510	83.6400
 0.6520	83.9800
 0.6530	83.8000
 0.6540	83.8000
 0.6550	83.5300
 0.6560	83.5800
 0.6570	83.9200
 0.6580	83.7500
 0.6590	83.6400
 0.6600	83.4100
 0.6610	83.4100
 0.6620	83.6900
 0.6630	83.6400
 0.6640	83.6400
 0.6650	83.4100
 0.6660	83.5300
 0.6670	83.6900
 0.6680	83.6900
 0.6690	83.6400
 0.6700	83.4700
 0.6710	83.3500
 0.6720	83.6900
 0.6730	83.6900
 0.6740	83.6400
 0.6750	83.5300
 0.6760	83.4100
 0.6770	83.6400
 0.6780	83.7500
 0.6790	83.6900
 0.6800	83.4700
 0.6810	83.4100
 0.6820	83.6400
 0.6830	83.8600
 0.6840	83.6900
 0.6850	83.4700
 0.6860	83.3000
 0.6870	83.5800
 0.6880	83.6900
 0.6890	83.6900
 0.6900	83.4100
 0.6910	83.3000
 0.6920	83.4700
 0.6930	83.6400
 0.6940	83.5800
 0.6950	83.3000
 0.6960	83.3000
 0.6970	83.5300
 0.6980	83.5800
 0.6990	83.4700
 0.7000	83.4100
 0.7010	83.0700
 0.7020	82.8400
 0.7030	82.9000
 0.7040	83.4100
 0.7050	83.1300
 0.7060	83.1300
 0.7070	82.8400
 0.7080	82.9500
 0.7090	83.3000
 0.7100	83.0700
 0.7110	83.0100
 0.7120	82.8400
 0.7130	82.8400
 0.7140	82.9500
 0.7150	83.0700
 0.7160	82.9000
 0.7170	82.6700
 0.7180	82.5500
 0.7190	82.7200
 0.7200	82.9000
 0.7210	82.7800
 0.7220	82.4900
 0.7230	82.3200
 0.7240	82.4900
 0.7250	82.6700
 0.7260	82.4400
 0.7270	82.0300
 0.7280	81.8700
 0.7290	82.1500
 0.7300	82.2600
 0.7310	82.2100
 0.7320	82.1500
 0.7330	81.9900
 0.7340	82.0300
 0.7350	82.0900
 0.7360	82.1500
 0.7370	81.8700
 0.7380	81.7000
 0.7390	81.8100
 0.7400	81.9900
 0.7410	81.9900
 0.7420	81.7600
 0.7430	81.5300
 0.7440	81.4700
 0.7450	81.5800
 0.7460	81.6400
 0.7470	81.4700
 0.7480	81.1800
 0.7490	81.2400
 0.7500	81.3500
 0.7510	81.5300
 0.7520	81.1800
 0.7530	81.0100
 0.7540	80.9000
 0.7550	81.0100
 0.7560	81.1200
 0.7570	80.9500
 0.7580	80.7200
 0.7590	80.6700
 0.7600	80.7200
 0.7610	80.8900
 0.7620	80.6100
 0.7630	80.3300
 0.7640	80.3300
 0.7650	80.4900
 0.7660	80.6100
 0.7670	80.3300
 0.7680	80.1600
 0.7690	80.1600
 0.7700	80.2700
 0.7710	80.1600
 0.7720	79.8700
 0.7730	79.5800
 0.7740	79.5800
 0.7750	79.6400
 0.7760	79.8100
 0.7770	79.4700
 0.7780	79.3000
 0.7790	79.1800
 0.7800	79.4100
 0.7810	79.3500
 0.7820	79.0700
 0.7830	78.7800
 0.7840	78.8400
 0.7850	79.0100
 0.7860	78.8900
 0.7870	78.6200
 0.7880	78.3300
 0.7890	78.4500
 0.7900	78.5000
 0.7910	78.5600
 0.7920	78.3300
 0.7930	78.0400
 0.7940	78.1000
 0.7950	78.2200
 0.7960	78.2700
 0.7970	78.0400
 0.7980	77.8700
 0.7990	77.9900
 0.8000	77.9300
 0.8040	77.7000
 0.8080	77.5300
 0.8120	77.0200
 0.8160	76.6700
 0.8200	76.3300
 0.8240	76.2700
 0.8280	75.9300
 0.8320	75.8700
 0.8360	75.5800
 0.8400	75.5300
 0.8440	75.3100
 0.8480	75.2500
 0.8520	75.2500
 0.8560	75.1900
 0.8600	75.0800
 0.8640	75.0200
 0.8680	75.0800
 0.8720	75.1300
 0.8760	75.0200
 0.8800	75.0200
 0.8840	75.0800
 0.8880	75.1300
 0.8920	75.1900
 0.8960	75.1300
 0.9000	75.3600
 0.9040	75.3600
 0.9080	75.5300
 0.9120	75.5300
 0.9160	75.5300
 0.9200	75.4700
 0.9240	75.5800
 0.9280	75.6400
 0.9320	75.6400
 0.9360	75.5300
 0.9400	75.2500
 0.9440	74.6700
 0.9480	74.4400
 0.9520	74.4400
 0.9560	74.9000
 0.9600	75.3100
 0.9640	75.4100
 0.9680	75.1300
 0.9720	75.1900
 0.9760	75.1300
 0.9800	75.1900
 0.9840	75.0200
 0.9880	74.9600
 0.9920	74.9000
 0.9960	74.9000
 1.0000	74.8500
 1.0040	74.7900
 1.0080	74.9000
 1.0120	74.7900
 1.0160	74.7900
 1.0200	74.9000
 1.0240	75.0800
 1.0280	75.0200
 1.0320	74.9600
 1.0360	75.1300
 1.0400	75.3100
 1.0440	75.4100
 1.0480	75.6400
 1.0520	75.6400
 1.0560	75.7600
 1.0600	75.7000
 1.0640	76.0400
 1.0680	76.3300
 1.0720	76.3900
 1.0760	76.5600
 1.0800	76.6700
 1.0840	77.0700
 1.0880	77.2400
 1.0920	77.5300
 1.0960	77.7600
 1.1000	78.0400
 1.1040	78.2200
 1.1080	78.5600
 1.1120	78.8400
 1.1160	79.0700
 1.1200	79.3000
 1.1240	79.7600
 1.1280	80.0400
 1.1320	80.2200
 1.1360	80.5500
 1.1400	80.7200
 1.1440	81.1800
 1.1480	81.3000
 1.1520	81.5800
 1.1560	81.8600
 1.1600	82.1400
 1.1640	82.4700
 1.1680	82.6900
 1.1720	83.0400
 1.1760	83.2600
 1.1800	83.4200
 1.1840	83.6400
 1.1880	84.0200
 1.1920	84.2500
 1.1960	84.4100
 1.2000	84.6900
 1.2040	85.0400
 1.2080	85.0400
 1.2120	85.2100
 1.2160	85.4400
 1.2200	85.6700
 1.2240	85.7200
 1.2280	85.9400
 1.2320	86.1200
 1.2360	86.4600
 1.2400	86.5800
 1.2440	86.6900
 1.2480	86.8100
 1.2520	87.0900
 1.2560	87.0300
 1.2600	87.1300
 1.2640	87.0100
 1.2680	86.6500
 1.2720	86.0900
 1.2760	85.6700
 1.2800	86.3000
 1.2840	87.3700
 1.2880	87.7600
 1.2920	87.5900
 1.2960	87.2400
 1.3000	87.5100
 1.3040	87.9600
 1.3080	88.4100
 1.3120	88.3500
 1.3160	88.3400
 1.3200	88.1000
 1.3240	88.3800
 1.3280	88.4800
 1.3320	88.6600
 1.3360	88.7000
 1.3400	88.8700
 1.3440	89.0300
 1.3480	89.1300
 1.3520	89.1900
 1.3560	89.0200
 1.3600	89.0200
 1.3640	89.1900
 1.3680	89.3600
 1.3720	89.2500
 1.3760	88.9000
 1.3800	87.0300
 1.3840	80.3100
 1.3880	70.8700
 1.3920	65.7900
 1.3960	69.1500
 1.4000	77.4700
 1.4040	84.1900
 1.4080	88.1900
 1.4120	89.5000
 1.4160	89.8400
 1.4200	89.9700
 1.4240	89.9200
 1.4280	89.9300
 1.4320	89.9900
 1.4360	90.1700
 1.4400	90.2800
 1.4440	90.4100
 1.4480	90.4800
 1.4520	90.6500
 1.4560	90.7600
 1.4600	90.8200
 1.4640	90.7600
 1.4680	90.8200
 1.4720	90.7100
 1.4760	90.8200
 1.4800	90.7600
 1.4840	91.0500
 1.4880	90.8800
 1.4920	90.9900
 1.4960	90.9900
 1.5000	90.8800
 1.5040	91.0500
 1.5080	91.1600
 1.5120	91.3900
 1.5160	91.2700
 1.5200	91.2700
 1.5240	90.9400
 1.5280	90.8200
 1.5320	90.4800
 1.5360	90.7100
 1.5400	90.8800
 1.5440	90.9900
 1.5480	91.1600
 1.5520	91.3900
 1.5560	91.5000
 1.5600	91.5000
 1.5640	91.6700
 1.5680	91.5000
 1.5720	91.6200
 1.5760	91.5000
 1.5800	91.6700
 1.5840	91.5600
 1.5880	91.6200
 1.5920	91.5600
 1.5960	91.6700
 1.6000	91.6700
 1.6040	91.6600
 1.6080	91.5400
 1.6120	91.7100
 1.6160	91.5900
 1.6200	91.5800
 1.6240	91.5200
 1.6280	91.4500
 1.6320	91.4500
 1.6360	91.4400
 1.6400	91.6000
 1.6440	91.4800
 1.6480	91.6400
 1.6520	91.6400
 1.6560	91.6900
 1.6600	91.6200
 1.6640	91.6100
 1.6680	91.6600
 1.6720	91.6600
 1.6760	91.5900
 1.6800	91.6400
 1.6840	91.5700
 1.6880	91.6800
 1.6920	91.6200
 1.6960	91.5000
 1.7000	91.5500
 1.7040	91.7100
 1.7080	91.6600
 1.7120	91.5500
 1.7160	91.6000
 1.7200	91.4900
 1.7240	91.6000
 1.7280	91.6000
 1.7320	91.5500
 1.7360	91.5500
 1.7400	91.7100
 1.7440	91.4900
 1.7480	91.5500
 1.7520	91.4900
 1.7560	91.6600
 1.7600	91.4900
 1.7640	91.3800
 1.7680	91.4400
 1.7720	91.4400
 1.7760	91.2600
 1.7800	91.3800
 1.7840	91.2600
 1.7880	91.3800
 1.7920	91.0900
 1.7960	91.0900
 1.8000	90.9800
 1.8040	90.7300
 1.8080	90.4100
 1.8120	90.2100
 1.8160	89.7700
 1.8200	89.7000
 1.8240	89.3800
 1.8280	89.2500
 1.8320	89.0900
 1.8360	89.1800
 1.8400	89.2700
 1.8440	89.2400
 1.8480	89.2100
 1.8520	89.3100
 1.8560	89.1300
 1.8600	89.0100
 1.8640	88.7100
 1.8680	88.8200
 1.8720	88.5400
 1.8760	88.5300
 1.8800	88.3500
 1.8840	88.3900
 1.8880	88.2100
 1.8920	88.2700
 1.8960	88.2100
 1.9000	88.2600
 1.9040	88.1900
 1.9080	88.2400
 1.9120	88.1800
 1.9160	88.2900
 1.9200	88.2800
 1.9240	88.1500
 1.9280	88.2000
 1.9320	87.9800
 1.9360	88.1300
 1.9400	87.9600
 1.9440	88.1200
 1.9480	88.0000
 1.9520	88.1000
 1.9560	88.0100
 1.9600	87.9900
 1.9640	87.8100
 1.9680	87.7200
 1.9720	87.4300
 1.9760	87.4000
 1.9800	87.2100
 1.9840	86.7500
 1.9880	86.3200
 1.9920	85.9700
 1.9960	85.3700
 2.0000	85.1300
 2.0040	84.6700
 2.0080	84.4300
 2.0120	84.2200
 2.0160	84.2900
 2.0200	84.5400
 2.0240	84.9200
 2.0280	85.0700
 2.0320	85.0800
 2.0360	85.0900
 2.0400	84.9500
 2.0440	84.5400
 2.0480	83.9800
 2.0520	83.3600
 2.0560	82.4900
 2.0600	81.5000
 2.0640	80.5300
 2.0680	79.3200
 2.0720	78.5700
 2.0760	77.7500
 2.0800	77.3900
 2.0840	77.3500
 2.0880	77.4900
 2.0920	77.5100
 2.0960	77.9800
 2.1000	78.1200
 2.1040	78.2500
 2.1080	78.0000
 2.1120	77.7400
 2.1160	77.2600
 2.1200	77.0700
 2.1240	76.6100
 2.1280	76.3200
 2.1320	76.3500
 2.1360	76.4100
 2.1400	76.7300
 2.1440	76.9900
 2.1480	77.3600
 2.1520	77.4600
 2.1560	77.6300
 2.1600	77.6400
 2.1640	77.7400
 2.1680	77.6100
 2.1720	77.7100
 2.1760	77.9200
 2.1800	78.4600
 2.1840	79.0300
 2.1880	79.6500
 2.1920	80.0000
 2.1960	80.5700
 2.2000	80.6300
 2.2040	80.5800
 2.2080	80.1300
 2.2120	79.5800
 2.2160	78.7800
 2.2200	77.9100
 2.2240	76.9600
 2.2280	76.3300
 2.2320	75.6400
 2.2360	75.3400
 2.2400	74.9200
 2.2440	74.2900
 2.2480	73.3900
 2.2520	71.9200
 2.2560	70.1500
 2.2600	67.7100
 2.2640	64.6900
 2.2680	61.4400
 2.2720	58.1200
 2.2760	54.6700
 2.2800	51.2900
 2.2840	48.0800
 2.2880	45.1500
 2.2920	42.5600
 2.2960	40.5100
 2.3000	39.3000
 2.3040	38.8900
 2.3080	38.9800
 2.3120	41.3700
 2.3160	43.5800
 2.3200	46.5200
 2.3240	49.4300
 2.3280	52.8400
 2.3320	55.7900
 2.3360	58.6400
 2.3400	60.6900
 2.3440	61.7800
 2.3480	62.0300
 2.3520	61.4500
 2.3560	60.4300
 2.3600	58.7900
 2.3640	56.7800
 2.3680	54.5500
 2.3720	52.5400
 2.3760	50.8800
 2.3800	49.8400
 2.3840	49.1500
 2.3880	49.2400
 2.3920	49.8300
 2.3960	50.9400
 2.4000	52.3200
 2.4040	53.8100
 2.4080	54.8500
 2.4120	56.1200
 2.4160	56.8400
 2.4200	57.3300
 2.4240	57.5900
 2.4280	57.3700
 2.4320	57.2600
 2.4360	56.7600
 2.4400	56.3600
 2.4440	55.8600
 2.4480	55.6300
 2.4520	55.3100
 2.4560	55.2400
 2.4600	55.1800
 2.4640	55.3500
 2.4680	55.5600
 2.4720	55.8900
 2.4760	56.2100
 2.4800	56.6000
 2.4840	56.8100
 2.4880	57.0700
 2.4920	57.1300
 2.4960	57.2900
 2.5000	57.4000
