Name: Grossular Garnet Ca_3Al_2(SiO_4)_3
Type: Mineral
Class: Silicate
Subclass: Nesosilicate
Particle Size: Medium
Sample No.: NS-3B
Owner: JPL
Wavelength Range: VSWIR
Origin: Mexico, Lake Jaco.
Collection Date: N/A
Description: Particle size was 45-125um.Collected by:  David New Original ASTER Spectral Library name was jpl.perkin.mineral.silicate.nesosilicate.medium.ns03b.spectrum.txt
Measurement: Hemispherical reflectance
First Column: X
Second Column: Y
X Units: Wavelength (micrometers)
Y Units:Reflectance (percent)
First X Value:  2.5000
Last X Value:  0.4000
Number of X Values: 2101
Additional Information: mineral.silicate.nesosilicate.medium.vswir.ns-3b.jpl.perkin.ancillary.txt

 2.5000	73.0514
 2.4990	73.0267
 2.4980	72.9816
 2.4970	73.4432
 2.4960	73.1031
 2.4950	73.1527
 2.4940	73.2348
 2.4930	73.3322
 2.4920	73.4324
 2.4910	73.1696
 2.4900	73.2032
 2.4890	73.2203
 2.4880	73.4105
 2.4870	73.2493
 2.4860	73.4489
 2.4850	73.4694
 2.4840	73.4455
 2.4830	73.4818
 2.4820	73.5273
 2.4810	73.4392
 2.4800	73.6835
 2.4790	73.5859
 2.4780	73.5465
 2.4770	73.7018
 2.4760	73.5815
 2.4750	73.6704
 2.4740	73.7527
 2.4730	73.7176
 2.4720	73.6955
 2.4710	73.7514
 2.4700	73.8807
 2.4690	73.9442
 2.4680	73.9464
 2.4670	73.8991
 2.4660	73.9446
 2.4650	74.0239
 2.4640	74.0864
 2.4630	74.1833
 2.4620	74.1557
 2.4610	74.1019
 2.4600	74.2278
 2.4590	74.1383
 2.4580	74.2343
 2.4570	74.2817
 2.4560	74.3663
 2.4550	74.3361
 2.4540	74.4099
 2.4530	74.3978
 2.4520	74.3743
 2.4510	74.3623
 2.4500	74.4583
 2.4490	74.3696
 2.4480	74.3680
 2.4470	74.4024
 2.4460	74.5526
 2.4450	74.5447
 2.4440	74.7391
 2.4430	74.6915
 2.4420	74.6560
 2.4410	74.5905
 2.4400	74.6086
 2.4390	74.6060
 2.4380	74.7282
 2.4370	74.7373
 2.4360	74.7208
 2.4350	74.6987
 2.4340	74.8583
 2.4330	74.7782
 2.4320	74.7533
 2.4310	74.8030
 2.4300	74.8131
 2.4290	74.8161
 2.4280	74.8799
 2.4270	74.8965
 2.4260	74.9563
 2.4250	74.8818
 2.4240	74.9924
 2.4230	75.0907
 2.4220	75.0863
 2.4210	75.0823
 2.4200	75.1121
 2.4190	75.1002
 2.4180	75.0857
 2.4170	75.1674
 2.4160	75.2384
 2.4150	75.1629
 2.4140	75.2135
 2.4130	75.2750
 2.4120	75.2436
 2.4110	75.1886
 2.4100	75.2556
 2.4090	75.3036
 2.4080	75.3436
 2.4070	75.4284
 2.4060	75.5237
 2.4050	75.4434
 2.4040	75.4069
 2.4030	75.4575
 2.4020	75.4497
 2.4010	75.4850
 2.4000	75.4795
 2.3990	75.4858
 2.3980	75.4851
 2.3970	75.5391
 2.3960	75.6203
 2.3950	75.6412
 2.3940	75.6812
 2.3930	75.7040
 2.3920	75.7338
 2.3910	75.7080
 2.3900	75.7655
 2.3890	75.8097
 2.3880	75.8429
 2.3870	75.8625
 2.3860	75.7753
 2.3850	75.7665
 2.3840	75.8656
 2.3830	75.9145
 2.3820	75.9439
 2.3810	76.0131
 2.3800	76.0499
 2.3790	76.0018
 2.3780	75.9286
 2.3770	75.9858
 2.3760	76.0523
 2.3750	76.0371
 2.3740	76.0959
 2.3730	76.1402
 2.3720	76.1447
 2.3710	76.1026
 2.3700	76.0749
 2.3690	76.1301
 2.3680	76.1948
 2.3670	76.1953
 2.3660	76.2513
 2.3650	76.2430
 2.3640	76.2517
 2.3630	76.3144
 2.3620	76.2911
 2.3610	76.2929
 2.3600	76.3113
 2.3590	76.3507
 2.3580	76.3761
 2.3570	76.3777
 2.3560	76.4378
 2.3550	76.5046
 2.3540	76.4851
 2.3530	76.4674
 2.3520	76.4630
 2.3510	76.5408
 2.3500	76.5804
 2.3490	76.5875
 2.3480	76.5898
 2.3470	76.6645
 2.3460	76.7606
 2.3450	76.7449
 2.3440	76.7477
 2.3430	76.8116
 2.3420	76.8325
 2.3410	76.8338
 2.3400	76.8194
 2.3390	76.8102
 2.3380	76.8567
 2.3370	76.9082
 2.3360	76.9442
 2.3350	76.9391
 2.3340	76.9316
 2.3330	76.9681
 2.3320	77.0014
 2.3310	77.0263
 2.3300	77.0374
 2.3290	77.0701
 2.3280	77.0770
 2.3270	77.1213
 2.3260	77.0749
 2.3250	77.0831
 2.3240	77.1506
 2.3230	77.1871
 2.3220	77.1481
 2.3210	77.1408
 2.3200	77.1872
 2.3190	77.2374
 2.3180	77.2548
 2.3170	77.2406
 2.3160	77.3321
 2.3150	77.3368
 2.3140	77.2773
 2.3130	77.2975
 2.3120	77.2964
 2.3110	77.3542
 2.3100	77.3867
 2.3090	77.3951
 2.3080	77.4089
 2.3070	77.4157
 2.3060	77.4390
 2.3050	77.4216
 2.3040	77.4191
 2.3030	77.5218
 2.3020	77.5377
 2.3010	77.4855
 2.3000	77.5302
 2.2990	77.6445
 2.2980	77.5575
 2.2970	77.5236
 2.2960	77.5696
 2.2950	77.6270
 2.2940	77.5824
 2.2930	77.6475
 2.2920	77.7171
 2.2910	77.6963
 2.2900	77.6157
 2.2890	77.6879
 2.2880	77.6684
 2.2870	77.6988
 2.2860	77.6916
 2.2850	77.7176
 2.2840	77.6948
 2.2830	77.7602
 2.2820	77.6976
 2.2810	77.6947
 2.2800	77.7190
 2.2790	77.7709
 2.2780	77.7362
 2.2770	77.7836
 2.2760	77.8015
 2.2750	77.8317
 2.2740	77.8229
 2.2730	77.8055
 2.2720	77.8107
 2.2710	77.8532
 2.2700	77.9553
 2.2690	77.8194
 2.2680	77.8721
 2.2670	77.8992
 2.2660	77.9207
 2.2650	77.9216
 2.2640	77.9394
 2.2630	77.9652
 2.2620	77.9323
 2.2610	77.9718
 2.2600	78.0404
 2.2590	78.0446
 2.2580	78.0393
 2.2570	78.0638
 2.2560	78.0379
 2.2550	78.0526
 2.2540	78.1215
 2.2530	78.1396
 2.2520	78.1773
 2.2510	78.1806
 2.2500	78.1570
 2.2490	78.1919
 2.2480	78.2394
 2.2470	78.2354
 2.2460	78.3227
 2.2450	78.2744
 2.2440	78.2630
 2.2430	78.3034
 2.2420	78.2893
 2.2410	78.3373
 2.2400	78.3704
 2.2390	78.4943
 2.2380	78.4727
 2.2370	78.4702
 2.2360	78.4640
 2.2350	78.4623
 2.2340	78.4709
 2.2330	78.5302
 2.2320	78.4502
 2.2310	78.4991
 2.2300	78.5848
 2.2290	78.5695
 2.2280	78.5494
 2.2270	78.6406
 2.2260	78.7621
 2.2250	78.7436
 2.2240	78.6663
 2.2230	78.7944
 2.2220	78.8529
 2.2210	78.8678
 2.2200	78.7792
 2.2190	78.7943
 2.2180	78.8453
 2.2170	78.9833
 2.2160	78.9677
 2.2150	79.0548
 2.2140	78.9942
 2.2130	79.0659
 2.2120	78.9879
 2.2110	79.0888
 2.2100	79.1404
 2.2090	79.0985
 2.2080	79.1587
 2.2070	79.2087
 2.2060	79.3012
 2.2050	79.1958
 2.2040	79.3887
 2.2030	79.3714
 2.2020	79.3909
 2.2010	79.4754
 2.2000	79.5194
 2.1990	79.5593
 2.1980	79.5322
 2.1970	79.6203
 2.1960	79.5251
 2.1950	79.6297
 2.1940	79.6087
 2.1930	79.5930
 2.1920	79.6485
 2.1910	79.6998
 2.1900	79.7412
 2.1890	79.7607
 2.1880	79.8141
 2.1870	79.8502
 2.1860	79.8918
 2.1850	79.9138
 2.1840	79.9295
 2.1830	80.0366
 2.1820	80.0635
 2.1810	80.1320
 2.1800	80.1084
 2.1790	80.1818
 2.1780	80.2105
 2.1770	80.2666
 2.1760	80.3152
 2.1750	80.4052
 2.1740	80.3604
 2.1730	80.3772
 2.1720	80.4701
 2.1710	80.5625
 2.1700	80.5883
 2.1690	80.6524
 2.1680	80.6790
 2.1670	80.7079
 2.1660	80.8068
 2.1650	80.8633
 2.1640	80.8994
 2.1630	81.0066
 2.1620	81.0268
 2.1610	81.0450
 2.1600	81.1196
 2.1590	81.1950
 2.1580	81.2005
 2.1570	81.2877
 2.1560	81.2963
 2.1550	81.3254
 2.1540	81.3627
 2.1530	81.4209
 2.1520	81.4526
 2.1510	81.5026
 2.1500	81.5363
 2.1490	81.5963
 2.1480	81.5499
 2.1470	81.6064
 2.1460	81.6192
 2.1450	81.6604
 2.1440	81.6168
 2.1430	81.6467
 2.1420	81.6797
 2.1410	81.6329
 2.1400	81.7493
 2.1390	81.7260
 2.1380	81.7460
 2.1370	81.7772
 2.1360	81.7098
 2.1350	81.7123
 2.1340	81.7969
 2.1330	81.7875
 2.1320	81.7426
 2.1310	81.7150
 2.1300	81.7779
 2.1290	81.7059
 2.1280	81.6970
 2.1270	81.6829
 2.1260	81.6818
 2.1250	81.6599
 2.1240	81.6564
 2.1230	81.6334
 2.1220	81.6106
 2.1210	81.6192
 2.1200	81.5688
 2.1190	81.5578
 2.1180	81.4969
 2.1170	81.4629
 2.1160	81.4534
 2.1150	81.4401
 2.1140	81.4076
 2.1130	81.3979
 2.1120	81.3804
 2.1110	81.2820
 2.1100	81.2454
 2.1090	81.2401
 2.1080	81.2114
 2.1070	81.1749
 2.1060	81.0781
 2.1050	81.0796
 2.1040	81.1172
 2.1030	81.1212
 2.1020	81.0432
 2.1010	81.0230
 2.1000	80.9891
 2.0990	80.9991
 2.0980	81.0351
 2.0970	81.1077
 2.0960	81.1257
 2.0950	81.1254
 2.0940	81.1569
 2.0930	81.1571
 2.0920	81.1840
 2.0910	81.2198
 2.0900	81.2035
 2.0890	81.2491
 2.0880	81.3216
 2.0870	81.3215
 2.0860	81.3730
 2.0850	81.4067
 2.0840	81.4475
 2.0830	81.4059
 2.0820	81.4190
 2.0810	81.5048
 2.0800	81.5413
 2.0790	81.5762
 2.0780	81.5870
 2.0770	81.5619
 2.0760	81.5381
 2.0750	81.5110
 2.0740	81.5569
 2.0730	81.6200
 2.0720	81.6564
 2.0710	81.6974
 2.0700	81.7060
 2.0690	81.7580
 2.0680	81.8255
 2.0670	81.8366
 2.0660	81.8265
 2.0650	81.8222
 2.0640	81.8704
 2.0630	81.9334
 2.0620	81.9358
 2.0610	81.9087
 2.0600	81.9200
 2.0590	81.9616
 2.0580	81.9712
 2.0570	82.0110
 2.0560	82.0674
 2.0550	82.1209
 2.0540	82.1427
 2.0530	82.0990
 2.0520	82.0571
 2.0510	82.0664
 2.0500	82.1618
 2.0490	82.2452
 2.0480	82.2218
 2.0470	82.2215
 2.0460	82.2634
 2.0450	82.2791
 2.0440	82.2646
 2.0430	82.2788
 2.0420	82.2392
 2.0410	82.2516
 2.0400	82.3613
 2.0390	82.3258
 2.0380	82.3413
 2.0370	82.4028
 2.0360	82.4345
 2.0350	82.4810
 2.0340	82.4523
 2.0330	82.4142
 2.0320	82.4182
 2.0310	82.4091
 2.0300	82.4436
 2.0290	82.4866
 2.0280	82.5447
 2.0270	82.5712
 2.0260	82.5700
 2.0250	82.5780
 2.0240	82.5611
 2.0230	82.5270
 2.0220	82.5426
 2.0210	82.5690
 2.0200	82.5291
 2.0190	82.5036
 2.0180	82.5468
 2.0170	82.5205
 2.0160	82.6058
 2.0150	82.6247
 2.0140	82.5775
 2.0130	82.6397
 2.0120	82.6728
 2.0110	82.6232
 2.0100	82.5963
 2.0090	82.5557
 2.0080	82.6531
 2.0070	82.6464
 2.0060	82.5728
 2.0050	82.5823
 2.0040	82.7000
 2.0030	82.7265
 2.0020	82.7341
 2.0010	82.6403
 2.0000	82.6881
 1.9990	82.7324
 1.9980	82.6555
 1.9970	82.7015
 1.9960	82.6275
 1.9950	82.6516
 1.9940	82.6780
 1.9930	82.6547
 1.9920	82.6087
 1.9910	82.6089
 1.9900	82.6569
 1.9890	82.5979
 1.9880	82.6776
 1.9870	82.5120
 1.9860	82.5800
 1.9850	82.6027
 1.9840	82.6327
 1.9830	82.5727
 1.9820	82.4999
 1.9810	82.5475
 1.9800	82.4859
 1.9790	82.5118
 1.9780	82.4109
 1.9770	82.5447
 1.9760	82.6695
 1.9750	82.5966
 1.9740	82.5336
 1.9730	82.5057
 1.9720	82.6119
 1.9710	82.6086
 1.9700	82.5676
 1.9690	82.5589
 1.9680	82.5185
 1.9670	82.5422
 1.9660	82.5751
 1.9650	82.4894
 1.9640	82.5592
 1.9630	82.5409
 1.9620	82.5501
 1.9610	82.4579
 1.9600	82.5235
 1.9590	82.5431
 1.9580	82.5631
 1.9570	82.5789
 1.9560	82.5763
 1.9550	82.5206
 1.9540	82.6155
 1.9530	82.5027
 1.9520	82.5861
 1.9510	82.6366
 1.9500	82.6102
 1.9490	82.6244
 1.9480	82.7290
 1.9470	82.7379
 1.9460	82.5892
 1.9450	82.6676
 1.9440	82.6584
 1.9430	82.6577
 1.9420	82.7274
 1.9410	82.6214
 1.9400	82.6880
 1.9390	82.6236
 1.9380	82.6539
 1.9370	82.6673
 1.9360	82.7157
 1.9350	82.6251
 1.9340	82.7355
 1.9330	82.7198
 1.9320	82.7664
 1.9310	82.7905
 1.9300	82.8389
 1.9290	82.7090
 1.9280	82.6932
 1.9270	82.8249
 1.9260	82.7644
 1.9250	82.7702
 1.9240	82.8061
 1.9230	82.7452
 1.9220	82.8876
 1.9210	82.8213
 1.9200	82.8445
 1.9190	82.8299
 1.9180	82.9197
 1.9170	82.9807
 1.9160	82.9169
 1.9150	82.9691
 1.9140	82.9084
 1.9130	82.9508
 1.9120	83.0110
 1.9110	83.0408
 1.9100	83.0106
 1.9090	83.1085
 1.9080	83.0906
 1.9070	83.1624
 1.9060	83.1417
 1.9050	83.2656
 1.9040	83.3007
 1.9030	83.3705
 1.9020	83.4579
 1.9010	83.4265
 1.9000	83.4887
 1.8990	83.6141
 1.8980	83.6910
 1.8970	83.7004
 1.8960	83.7930
 1.8950	83.8387
 1.8940	83.8896
 1.8930	83.9331
 1.8920	83.9342
 1.8910	83.9590
 1.8900	84.0879
 1.8890	84.1412
 1.8880	84.2457
 1.8870	84.2411
 1.8860	84.3134
 1.8850	84.3170
 1.8840	84.2495
 1.8830	84.3020
 1.8820	84.3543
 1.8810	84.3518
 1.8800	84.4845
 1.8790	84.4612
 1.8780	84.4909
 1.8770	84.4719
 1.8760	84.5196
 1.8750	84.5440
 1.8740	84.6628
 1.8730	84.6521
 1.8720	84.5858
 1.8710	84.6630
 1.8700	84.6376
 1.8690	84.6886
 1.8680	84.6934
 1.8670	84.6934
 1.8660	84.7413
 1.8650	84.8004
 1.8640	84.7520
 1.8630	84.7581
 1.8620	84.8743
 1.8610	84.7719
 1.8600	84.7857
 1.8590	84.8455
 1.8580	84.8522
 1.8570	84.8748
 1.8560	84.9282
 1.8550	84.8854
 1.8540	84.9710
 1.8530	84.8601
 1.8520	84.8911
 1.8510	84.9506
 1.8500	85.0185
 1.8490	85.0580
 1.8480	85.0686
 1.8470	85.0459
 1.8460	85.0571
 1.8450	85.0583
 1.8440	85.0166
 1.8430	85.0791
 1.8420	85.1250
 1.8410	85.1111
 1.8400	85.1398
 1.8390	85.1559
 1.8380	85.1819
 1.8370	85.1509
 1.8360	85.1403
 1.8350	85.1667
 1.8340	85.1599
 1.8330	85.2083
 1.8320	85.2758
 1.8310	85.2245
 1.8300	85.2128
 1.8290	85.2296
 1.8280	85.2337
 1.8270	85.2805
 1.8260	85.3364
 1.8250	85.2867
 1.8240	85.2776
 1.8230	85.3054
 1.8220	85.3588
 1.8210	85.2697
 1.8200	85.3417
 1.8190	85.3577
 1.8180	85.3654
 1.8170	85.4021
 1.8160	85.4279
 1.8150	85.4487
 1.8140	85.4597
 1.8130	85.4020
 1.8120	85.3646
 1.8110	85.3860
 1.8100	85.4373
 1.8090	85.4681
 1.8080	85.4846
 1.8070	85.5065
 1.8060	85.5115
 1.8050	85.5043
 1.8040	85.5491
 1.8030	85.6268
 1.8020	85.6532
 1.8010	85.5974
 1.8000	85.5775
 1.7990	85.5869
 1.7980	85.6225
 1.7970	85.6322
 1.7960	85.6136
 1.7950	85.5869
 1.7940	85.6088
 1.7930	85.6206
 1.7920	85.6007
 1.7910	85.6279
 1.7900	85.6210
 1.7890	85.6045
 1.7880	85.6206
 1.7870	85.6763
 1.7860	85.6558
 1.7850	85.6327
 1.7840	85.6239
 1.7830	85.6104
 1.7820	85.6374
 1.7810	85.6337
 1.7800	85.6660
 1.7790	85.7133
 1.7780	85.7055
 1.7770	85.6754
 1.7760	85.6459
 1.7750	85.6389
 1.7740	85.6598
 1.7730	85.7020
 1.7720	85.7198
 1.7710	85.7403
 1.7700	85.7373
 1.7690	85.6958
 1.7680	85.6743
 1.7670	85.7516
 1.7660	85.7708
 1.7650	85.7478
 1.7640	85.7571
 1.7630	85.7563
 1.7620	85.7374
 1.7610	85.7503
 1.7600	85.7634
 1.7590	85.7615
 1.7580	85.7911
 1.7570	85.8422
 1.7560	85.8718
 1.7550	85.8940
 1.7540	85.8516
 1.7530	85.8169
 1.7520	85.7955
 1.7510	85.8182
 1.7500	85.8337
 1.7490	85.9011
 1.7480	85.8926
 1.7470	85.8475
 1.7460	85.8716
 1.7450	85.9385
 1.7440	85.9548
 1.7430	85.9585
 1.7420	85.8833
 1.7410	85.9765
 1.7400	86.0598
 1.7390	86.0784
 1.7380	86.0529
 1.7370	85.9797
 1.7360	85.9765
 1.7350	86.0879
 1.7340	86.0630
 1.7330	86.0279
 1.7320	86.0512
 1.7310	86.1397
 1.7300	86.1450
 1.7290	86.1090
 1.7280	86.1075
 1.7270	86.1531
 1.7260	86.1445
 1.7250	86.1564
 1.7240	86.1340
 1.7230	86.1586
 1.7220	86.1037
 1.7210	86.1437
 1.7200	86.2135
 1.7190	86.2510
 1.7180	86.1951
 1.7170	86.2286
 1.7160	86.2110
 1.7150	86.2043
 1.7140	86.2215
 1.7130	86.2754
 1.7120	86.2504
 1.7110	86.2462
 1.7100	86.2485
 1.7090	86.3297
 1.7080	86.3092
 1.7070	86.3223
 1.7060	86.3057
 1.7050	86.2887
 1.7040	86.2622
 1.7030	86.2792
 1.7020	86.3026
 1.7010	86.2444
 1.7000	86.2935
 1.6990	86.2864
 1.6980	86.2729
 1.6970	86.3530
 1.6960	86.3097
 1.6950	86.2773
 1.6940	86.2968
 1.6930	86.2985
 1.6920	86.3398
 1.6910	86.3246
 1.6900	86.3302
 1.6890	86.3451
 1.6880	86.3116
 1.6870	86.2734
 1.6860	86.4263
 1.6850	86.3113
 1.6840	86.3279
 1.6830	86.3996
 1.6820	86.4466
 1.6810	86.4191
 1.6800	86.4115
 1.6790	86.4659
 1.6780	86.3971
 1.6770	86.4296
 1.6760	86.3613
 1.6750	86.4675
 1.6740	86.4175
 1.6730	86.3892
 1.6720	86.3613
 1.6710	86.4724
 1.6700	86.4110
 1.6690	86.4118
 1.6680	86.4863
 1.6670	86.4276
 1.6660	86.4385
 1.6650	86.4020
 1.6640	86.4269
 1.6630	86.4950
 1.6620	86.5065
 1.6610	86.5187
 1.6600	86.5062
 1.6590	86.4497
 1.6580	86.4750
 1.6570	86.5712
 1.6560	86.5387
 1.6550	86.5278
 1.6540	86.4701
 1.6530	86.5903
 1.6520	86.4918
 1.6510	86.5183
 1.6500	86.5236
 1.6490	86.5900
 1.6480	86.4679
 1.6470	86.5573
 1.6460	86.5458
 1.6450	86.5873
 1.6440	86.5538
 1.6430	86.5809
 1.6420	86.5450
 1.6410	86.5610
 1.6400	86.5288
 1.6390	86.6374
 1.6380	86.6067
 1.6370	86.5343
 1.6360	86.6501
 1.6350	86.6544
 1.6340	86.6936
 1.6330	86.6204
 1.6320	86.6078
 1.6310	86.7056
 1.6300	86.6373
 1.6290	86.5918
 1.6280	86.6008
 1.6270	86.6728
 1.6260	86.6318
 1.6250	86.7037
 1.6240	86.7251
 1.6230	86.6465
 1.6220	86.7128
 1.6210	86.7259
 1.6200	86.6578
 1.6190	86.6484
 1.6180	86.7214
 1.6170	86.6084
 1.6160	86.6659
 1.6150	86.6850
 1.6140	86.7106
 1.6130	86.7744
 1.6120	86.6875
 1.6110	86.7449
 1.6100	86.7208
 1.6090	86.8175
 1.6080	86.8339
 1.6070	86.7745
 1.6060	86.7776
 1.6050	86.7329
 1.6040	86.7604
 1.6030	86.7685
 1.6020	86.7403
 1.6010	86.7747
 1.6000	86.7887
 1.5990	86.8091
 1.5980	86.7092
 1.5970	86.7454
 1.5960	86.7393
 1.5950	86.7603
 1.5940	86.7708
 1.5930	86.7307
 1.5920	86.8347
 1.5910	86.8136
 1.5900	86.8386
 1.5890	86.7969
 1.5880	86.7788
 1.5870	86.7953
 1.5860	86.7457
 1.5850	86.8178
 1.5840	86.7935
 1.5830	86.7293
 1.5820	86.7373
 1.5810	86.7722
 1.5800	86.7549
 1.5790	86.7263
 1.5780	86.7804
 1.5770	86.7794
 1.5760	86.8085
 1.5750	86.7792
 1.5740	86.7783
 1.5730	86.8189
 1.5720	86.7765
 1.5710	86.7913
 1.5700	86.8130
 1.5690	86.8229
 1.5680	86.7943
 1.5670	86.7928
 1.5660	86.7962
 1.5650	86.8308
 1.5640	86.8129
 1.5630	86.8455
 1.5620	86.8071
 1.5610	86.8100
 1.5600	86.7561
 1.5590	86.7655
 1.5580	86.7864
 1.5570	86.7181
 1.5560	86.7345
 1.5550	86.7880
 1.5540	86.8039
 1.5530	86.7786
 1.5520	86.8293
 1.5510	86.7838
 1.5500	86.7642
 1.5490	86.7542
 1.5480	86.7711
 1.5470	86.7144
 1.5460	86.7934
 1.5450	86.8204
 1.5440	86.7823
 1.5430	86.7684
 1.5420	86.7473
 1.5410	86.8256
 1.5400	86.8026
 1.5390	86.7783
 1.5380	86.8187
 1.5370	86.7798
 1.5360	86.7682
 1.5350	86.7853
 1.5340	86.7653
 1.5330	86.7298
 1.5320	86.7339
 1.5310	86.7409
 1.5300	86.7518
 1.5290	86.8171
 1.5280	86.8213
 1.5270	86.8106
 1.5260	86.7888
 1.5250	86.8013
 1.5240	86.8075
 1.5230	86.8086
 1.5220	86.7919
 1.5210	86.8179
 1.5200	86.8285
 1.5190	86.7778
 1.5180	86.7744
 1.5170	86.8178
 1.5160	86.8057
 1.5150	86.7865
 1.5140	86.7480
 1.5130	86.7727
 1.5120	86.7999
 1.5110	86.8139
 1.5100	86.7529
 1.5090	86.7376
 1.5080	87.1487
 1.5070	87.1785
 1.5060	86.7555
 1.5050	86.7432
 1.5040	86.7078
 1.5030	86.7284
 1.5020	86.7866
 1.5010	86.7972
 1.5000	86.7757
 1.4990	86.8327
 1.4980	86.8122
 1.4970	86.7371
 1.4960	86.7291
 1.4950	86.7271
 1.4940	86.7413
 1.4930	86.7526
 1.4920	86.7967
 1.4910	86.7990
 1.4900	86.7706
 1.4890	86.7913
 1.4880	86.8050
 1.4870	86.7517
 1.4860	86.6708
 1.4850	86.7104
 1.4840	86.7308
 1.4830	86.7537
 1.4820	86.7666
 1.4810	86.7392
 1.4800	86.7451
 1.4790	86.7017
 1.4780	86.7519
 1.4770	86.8096
 1.4760	86.7399
 1.4750	86.7488
 1.4740	86.7621
 1.4730	86.7475
 1.4720	86.7070
 1.4710	86.6863
 1.4700	86.6376
 1.4690	86.6317
 1.4680	86.7041
 1.4670	86.7861
 1.4660	86.7445
 1.4650	86.6871
 1.4640	86.7003
 1.4630	86.7032
 1.4620	86.6921
 1.4610	86.7016
 1.4600	86.7037
 1.4590	86.6665
 1.4580	86.6941
 1.4570	86.6896
 1.4560	86.7348
 1.4550	86.7805
 1.4540	86.7065
 1.4530	86.7028
 1.4520	86.6865
 1.4510	86.7343
 1.4500	86.7079
 1.4490	86.6967
 1.4480	86.7010
 1.4470	86.6766
 1.4460	86.7115
 1.4450	86.7066
 1.4440	86.6847
 1.4430	86.6328
 1.4420	86.6839
 1.4410	86.6671
 1.4400	86.6711
 1.4390	86.6769
 1.4380	86.6645
 1.4370	86.7046
 1.4360	86.6461
 1.4350	86.6704
 1.4340	86.6270
 1.4330	86.6007
 1.4320	86.6175
 1.4310	86.6177
 1.4300	86.6117
 1.4290	86.6032
 1.4280	86.6136
 1.4270	86.6011
 1.4260	86.6144
 1.4250	86.5414
 1.4240	86.5220
 1.4230	86.5421
 1.4220	86.4610
 1.4210	86.4893
 1.4200	86.5254
 1.4190	86.4575
 1.4180	86.4870
 1.4170	86.3597
 1.4160	86.4089
 1.4150	86.3951
 1.4140	86.4427
 1.4130	86.4277
 1.4120	86.5035
 1.4110	86.5046
 1.4100	86.5752
 1.4090	86.4909
 1.4080	86.4627
 1.4070	86.4405
 1.4060	86.4383
 1.4050	86.4583
 1.4040	86.5833
 1.4030	86.4506
 1.4020	86.5929
 1.4010	86.4612
 1.4000	86.6312
 1.3990	86.5362
 1.3980	86.6599
 1.3970	86.6920
 1.3960	86.7077
 1.3950	86.7875
 1.3940	86.7586
 1.3930	86.7707
 1.3920	86.7186
 1.3910	86.7898
 1.3900	86.8708
 1.3890	86.8314
 1.3880	86.8789
 1.3870	86.8636
 1.3860	86.8393
 1.3850	86.8578
 1.3840	86.9645
 1.3830	86.9936
 1.3820	86.9940
 1.3810	86.9149
 1.3800	86.9265
 1.3790	87.0091
 1.3780	87.0348
 1.3770	87.0132
 1.3760	87.0006
 1.3750	86.9785
 1.3740	86.9825
 1.3730	87.0406
 1.3720	86.9604
 1.3710	87.0359
 1.3700	87.0144
 1.3690	87.0121
 1.3680	87.0792
 1.3670	87.1567
 1.3660	87.0199
 1.3650	87.0398
 1.3640	87.1413
 1.3630	87.1300
 1.3620	87.0792
 1.3610	87.1355
 1.3600	87.0045
 1.3590	87.0462
 1.3580	87.1406
 1.3570	86.9849
 1.3560	87.0862
 1.3550	87.0453
 1.3540	87.0365
 1.3530	86.9837
 1.3520	87.0374
 1.3510	87.0343
 1.3500	87.1042
 1.3490	87.1064
 1.3480	87.0472
 1.3470	87.0624
 1.3460	87.0660
 1.3450	86.9890
 1.3440	86.9644
 1.3430	87.0654
 1.3420	87.0272
 1.3410	87.0798
 1.3400	87.0804
 1.3390	87.0432
 1.3380	87.1152
 1.3370	87.0974
 1.3360	87.1044
 1.3350	87.0408
 1.3340	87.0972
 1.3330	87.0492
 1.3320	87.0362
 1.3310	87.0639
 1.3300	86.9969
 1.3290	86.9898
 1.3280	87.0046
 1.3270	87.0335
 1.3260	87.0021
 1.3250	87.0374
 1.3240	87.0164
 1.3230	87.0829
 1.3220	87.0796
 1.3210	87.0325
 1.3200	87.0666
 1.3190	87.0571
 1.3180	87.0675
 1.3170	87.0106
 1.3160	87.0680
 1.3150	87.0531
 1.3140	87.1051
 1.3130	87.0347
 1.3120	87.0958
 1.3110	87.0710
 1.3100	87.0921
 1.3090	87.0388
 1.3080	87.0427
 1.3070	87.0468
 1.3060	87.0285
 1.3050	87.0450
 1.3040	87.0881
 1.3030	87.0458
 1.3020	87.1356
 1.3010	87.1001
 1.3000	87.0658
 1.2990	87.0939
 1.2980	87.1938
 1.2970	87.1841
 1.2960	87.0818
 1.2950	87.0982
 1.2940	87.2045
 1.2930	87.1340
 1.2920	87.0895
 1.2910	87.0660
 1.2900	87.0885
 1.2890	87.0352
 1.2880	87.0913
 1.2870	87.0849
 1.2860	87.1239
 1.2850	87.1001
 1.2840	87.0692
 1.2830	87.1190
 1.2820	87.1094
 1.2810	87.0284
 1.2800	87.0808
 1.2790	87.0726
 1.2780	87.0825
 1.2770	87.1017
 1.2760	87.0563
 1.2750	87.0704
 1.2740	87.1108
 1.2730	87.0400
 1.2720	87.0357
 1.2710	87.0331
 1.2700	87.0752
 1.2690	87.1378
 1.2680	87.0636
 1.2670	87.0844
 1.2660	87.0934
 1.2650	87.0706
 1.2640	87.1556
 1.2630	87.0924
 1.2620	87.1061
 1.2610	87.1221
 1.2600	87.0732
 1.2590	87.1274
 1.2580	87.1259
 1.2570	87.0922
 1.2560	87.1447
 1.2550	87.0849
 1.2540	87.0698
 1.2530	87.1386
 1.2520	87.1501
 1.2510	87.0983
 1.2500	87.0710
 1.2490	87.0494
 1.2480	87.0547
 1.2470	87.1306
 1.2460	87.1370
 1.2450	87.1154
 1.2440	87.1446
 1.2430	87.0855
 1.2420	87.1102
 1.2410	87.1280
 1.2400	87.1180
 1.2390	87.1130
 1.2380	87.1040
 1.2370	87.1438
 1.2360	87.1256
 1.2350	87.1040
 1.2340	87.1131
 1.2330	87.0553
 1.2320	87.0656
 1.2310	87.0817
 1.2300	87.0402
 1.2290	87.0485
 1.2280	87.1191
 1.2270	87.1627
 1.2260	87.1156
 1.2250	87.1155
 1.2240	87.0781
 1.2230	87.0447
 1.2220	87.1196
 1.2210	87.1023
 1.2200	87.1596
 1.2190	87.1842
 1.2180	87.0944
 1.2170	87.0927
 1.2160	87.1000
 1.2150	87.0840
 1.2140	87.0429
 1.2130	87.0656
 1.2120	87.1018
 1.2110	87.0671
 1.2100	87.0638
 1.2090	87.1148
 1.2080	87.0858
 1.2070	87.0809
 1.2060	87.0842
 1.2050	87.0722
 1.2040	87.1254
 1.2030	87.1039
 1.2020	87.1215
 1.2010	87.1121
 1.2000	87.0581
 1.1990	87.0338
 1.1980	87.0683
 1.1970	87.0586
 1.1960	87.0476
 1.1950	87.0485
 1.1940	87.0079
 1.1930	87.0549
 1.1920	87.0517
 1.1910	87.0647
 1.1900	87.0994
 1.1890	87.1157
 1.1880	87.1163
 1.1870	87.1116
 1.1860	87.0845
 1.1850	87.1114
 1.1840	87.1137
 1.1830	87.1115
 1.1820	87.1964
 1.1810	87.1920
 1.1800	87.1478
 1.1790	87.1173
 1.1780	87.1327
 1.1770	87.0799
 1.1760	87.1219
 1.1750	87.1956
 1.1740	87.1887
 1.1730	87.1802
 1.1720	87.1291
 1.1710	87.1488
 1.1700	87.1259
 1.1690	87.1330
 1.1680	87.1613
 1.1670	87.1807
 1.1660	87.2062
 1.1650	87.2202
 1.1640	87.1633
 1.1630	87.1933
 1.1620	87.1794
 1.1610	87.1839
 1.1600	87.1197
 1.1590	87.1559
 1.1580	87.1436
 1.1570	87.1938
 1.1560	87.1852
 1.1550	87.1488
 1.1540	87.1655
 1.1530	87.1812
 1.1520	87.1258
 1.1510	87.1304
 1.1500	87.2331
 1.1490	87.2273
 1.1480	87.2226
 1.1470	87.2942
 1.1460	87.2598
 1.1450	87.1894
 1.1440	87.1044
 1.1430	87.1208
 1.1420	87.1610
 1.1410	87.2061
 1.1400	87.1721
 1.1390	87.1796
 1.1380	87.2503
 1.1370	87.2014
 1.1360	87.2417
 1.1350	87.1891
 1.1340	87.2079
 1.1330	87.2949
 1.1320	87.1905
 1.1310	87.1800
 1.1300	87.2305
 1.1290	87.1847
 1.1280	87.1850
 1.1270	87.1843
 1.1260	87.2368
 1.1250	87.2032
 1.1240	87.2112
 1.1230	87.2026
 1.1220	87.1853
 1.1210	87.2191
 1.1200	87.1837
 1.1190	87.1730
 1.1180	87.2258
 1.1170	87.3183
 1.1160	87.1664
 1.1150	87.2029
 1.1140	87.2054
 1.1130	87.1657
 1.1120	87.1936
 1.1110	87.2029
 1.1100	87.1796
 1.1090	87.1886
 1.1080	87.1605
 1.1070	87.1616
 1.1060	87.2100
 1.1050	87.1894
 1.1040	87.2340
 1.1030	87.1712
 1.1020	87.1799
 1.1010	87.1774
 1.1000	87.1621
 1.0990	87.1535
 1.0980	87.1824
 1.0970	87.2546
 1.0960	87.2182
 1.0950	87.2147
 1.0940	87.2016
 1.0930	87.1649
 1.0920	87.1116
 1.0910	87.1380
 1.0900	87.1724
 1.0890	87.1983
 1.0880	87.0628
 1.0870	87.1581
 1.0860	87.1025
 1.0850	87.1741
 1.0840	87.0794
 1.0830	87.1642
 1.0820	87.1265
 1.0810	87.2494
 1.0800	87.0986
 1.0790	87.1975
 1.0780	86.9882
 1.0770	87.1286
 1.0760	87.0762
 1.0750	87.1419
 1.0740	87.1020
 1.0730	87.1357
 1.0720	87.1528
 1.0710	87.1485
 1.0700	87.0632
 1.0690	87.0764
 1.0680	87.1331
 1.0670	87.1662
 1.0660	87.0441
 1.0650	86.9951
 1.0640	87.0895
 1.0630	86.9976
 1.0620	87.0291
 1.0610	87.0239
 1.0600	87.0213
 1.0590	86.9774
 1.0580	86.9603
 1.0570	86.9687
 1.0560	86.9729
 1.0550	86.8614
 1.0540	86.9638
 1.0530	86.9649
 1.0520	86.9442
 1.0510	86.9215
 1.0500	86.8882
 1.0490	86.7442
 1.0480	86.8957
 1.0470	86.9337
 1.0460	86.7651
 1.0450	86.8335
 1.0440	86.8215
 1.0430	86.9109
 1.0420	86.7785
 1.0410	86.8091
 1.0400	86.7432
 1.0390	86.7658
 1.0380	86.7520
 1.0370	86.7685
 1.0360	86.7387
 1.0350	86.6813
 1.0340	86.6389
 1.0330	86.7128
 1.0320	86.6033
 1.0310	86.6811
 1.0300	86.6141
 1.0290	86.5874
 1.0280	86.6282
 1.0270	86.6410
 1.0260	86.5640
 1.0250	86.5182
 1.0240	86.5014
 1.0230	86.4661
 1.0220	86.4198
 1.0210	86.5032
 1.0200	86.4615
 1.0190	86.4145
 1.0180	86.4194
 1.0170	86.3745
 1.0160	86.3806
 1.0150	86.3200
 1.0140	86.2689
 1.0130	86.2552
 1.0120	86.2381
 1.0110	86.2269
 1.0100	86.1697
 1.0090	86.1955
 1.0080	86.1550
 1.0070	86.1596
 1.0060	86.0882
 1.0050	86.0825
 1.0040	85.9801
 1.0030	85.9390
 1.0020	85.9133
 1.0010	85.8956
 1.0000	85.9075
 0.9990	85.8435
 0.9980	85.8209
 0.9970	85.8101
 0.9960	85.7477
 0.9950	85.6818
 0.9940	85.6787
 0.9930	85.5513
 0.9920	85.5600
 0.9910	85.5282
 0.9900	85.5059
 0.9890	85.5402
 0.9880	85.4408
 0.9870	85.3512
 0.9860	85.3748
 0.9850	85.3539
 0.9840	85.2342
 0.9830	85.2137
 0.9820	85.1679
 0.9810	85.1444
 0.9800	85.0971
 0.9790	85.0736
 0.9780	85.0219
 0.9770	85.0356
 0.9760	84.9528
 0.9750	84.8601
 0.9740	84.8287
 0.9730	84.7867
 0.9720	84.7348
 0.9710	84.7165
 0.9700	84.6254
 0.9690	84.6140
 0.9680	84.5775
 0.9670	84.5710
 0.9660	84.5233
 0.9650	84.4209
 0.9640	84.3811
 0.9630	84.3327
 0.9620	84.3263
 0.9610	84.3020
 0.9600	84.2077
 0.9590	84.1389
 0.9580	84.1219
 0.9570	84.0673
 0.9560	84.0187
 0.9550	83.9926
 0.9540	83.9179
 0.9530	83.9103
 0.9520	83.8551
 0.9510	83.8287
 0.9500	83.7594
 0.9490	83.7589
 0.9480	83.7214
 0.9470	83.6215
 0.9460	83.5566
 0.9450	83.5160
 0.9440	83.5141
 0.9430	83.5227
 0.9420	83.4146
 0.9410	83.3006
 0.9400	83.2866
 0.9390	83.3216
 0.9380	83.2761
 0.9370	83.1795
 0.9360	83.1282
 0.9350	83.1379
 0.9340	83.1296
 0.9330	83.0795
 0.9320	83.0410
 0.9310	83.0206
 0.9300	82.9323
 0.9290	82.9204
 0.9280	82.9494
 0.9270	82.8922
 0.9260	82.8236
 0.9250	82.8198
 0.9240	82.7707
 0.9230	82.7507
 0.9220	82.7454
 0.9210	82.6854
 0.9200	82.6812
 0.9190	82.6330
 0.9180	82.5602
 0.9170	82.5135
 0.9160	82.4792
 0.9150	82.4471
 0.9140	82.4681
 0.9130	82.4707
 0.9120	82.4379
 0.9110	82.3821
 0.9100	82.3376
 0.9090	82.3315
 0.9080	82.3094
 0.9070	82.3001
 0.9060	82.2941
 0.9050	82.2491
 0.9040	82.2231
 0.9030	82.1979
 0.9020	82.1985
 0.9010	82.1653
 0.9000	82.1405
 0.8990	82.1230
 0.8980	82.1788
 0.8970	82.0963
 0.8960	82.0504
 0.8950	82.0587
 0.8940	82.0586
 0.8930	81.9876
 0.8920	81.9897
 0.8910	82.0185
 0.8900	82.0403
 0.8890	82.0026
 0.8880	82.0107
 0.8870	81.9240
 0.8860	81.9353
 0.8850	81.9570
 0.8840	81.9703
 0.8830	82.0011
 0.8820	81.9563
 0.8810	81.9403
 0.8800	81.9458
 0.8790	81.9039
 0.8780	81.9559
 0.8770	81.9061
 0.8760	81.9597
 0.8750	81.9807
 0.8740	81.9528
 0.8730	81.9856
 0.8720	81.9898
 0.8710	82.0364
 0.8700	82.0708
 0.8690	82.0289
 0.8680	82.0735
 0.8670	82.0576
 0.8660	82.0915
 0.8650	82.0687
 0.8640	82.1378
 0.8630	82.0708
 0.8620	82.1537
 0.8610	82.1570
 0.8600	82.4715
 0.8590	82.4713
 0.8580	82.6056
 0.8570	82.7127
 0.8560	82.7114
 0.8550	82.8514
 0.8540	82.8032
 0.8530	82.8122
 0.8520	82.8975
 0.8510	82.8886
 0.8500	82.9351
 0.8490	82.9285
 0.8480	82.9697
 0.8470	83.0139
 0.8460	83.0587
 0.8450	83.2473
 0.8440	83.2167
 0.8430	83.2450
 0.8420	83.3531
 0.8410	83.3733
 0.8400	83.3777
 0.8390	83.4171
 0.8380	83.4677
 0.8370	83.5028
 0.8360	83.5821
 0.8350	83.6335
 0.8340	83.6867
 0.8330	83.7304
 0.8320	83.7782
 0.8310	83.8031
 0.8300	83.8842
 0.8290	83.8968
 0.8280	83.9415
 0.8270	83.9777
 0.8260	84.0547
 0.8250	84.0836
 0.8240	84.1079
 0.8230	84.1928
 0.8220	84.1735
 0.8210	84.2865
 0.8200	84.3101
 0.8190	84.2992
 0.8180	84.3698
 0.8170	84.4582
 0.8160	84.4721
 0.8150	84.5699
 0.8140	84.6400
 0.8130	84.6042
 0.8120	84.6846
 0.8110	84.7097
 0.8100	84.7045
 0.8090	84.7165
 0.8080	84.7384
 0.8070	84.7749
 0.8060	84.8460
 0.8050	84.8715
 0.8040	84.9532
 0.8030	85.0489
 0.8020	85.0605
 0.8010	85.0855
 0.8000	85.1483
 0.7990	85.1446
 0.7980	85.1668
 0.7970	85.2392
 0.7960	85.2116
 0.7950	85.2990
 0.7940	85.3446
 0.7930	85.2962
 0.7920	85.3449
 0.7910	85.3527
 0.7900	85.3792
 0.7890	85.3922
 0.7880	85.3723
 0.7870	85.4332
 0.7860	85.5288
 0.7850	85.5932
 0.7840	85.5880
 0.7830	85.6083
 0.7820	85.6229
 0.7810	85.7005
 0.7800	85.6757
 0.7790	85.7004
 0.7780	85.7184
 0.7770	85.7495
 0.7760	85.7329
 0.7750	85.7500
 0.7740	85.7619
 0.7730	85.7750
 0.7720	85.7778
 0.7710	85.7976
 0.7700	85.8167
 0.7690	85.8262
 0.7680	85.8087
 0.7670	85.8148
 0.7660	85.8201
 0.7650	85.8233
 0.7640	85.8813
 0.7630	85.8684
 0.7620	85.9008
 0.7610	85.8267
 0.7600	85.8825
 0.7590	85.8556
 0.7580	85.8506
 0.7570	85.8259
 0.7560	85.8792
 0.7550	85.8642
 0.7540	85.8789
 0.7530	85.9173
 0.7520	85.8957
 0.7510	85.8537
 0.7500	85.8283
 0.7490	85.8139
 0.7480	85.7900
 0.7470	85.8194
 0.7460	85.8517
 0.7450	85.8873
 0.7440	85.8829
 0.7430	85.8882
 0.7420	85.8694
 0.7410	85.8734
 0.7400	85.8810
 0.7390	85.8405
 0.7380	85.8421
 0.7370	85.8577
 0.7360	85.8658
 0.7350	85.8070
 0.7340	85.8004
 0.7330	85.7520
 0.7320	85.6962
 0.7310	85.6846
 0.7300	85.6978
 0.7290	85.7158
 0.7280	85.7323
 0.7270	85.7533
 0.7260	85.7804
 0.7250	85.7677
 0.7240	85.7553
 0.7230	85.7310
 0.7220	85.7595
 0.7210	85.7043
 0.7200	85.7037
 0.7190	85.6742
 0.7180	85.6694
 0.7170	85.6677
 0.7160	85.6494
 0.7150	85.6042
 0.7140	85.5957
 0.7130	85.5678
 0.7120	85.5739
 0.7110	85.5515
 0.7100	85.4912
 0.7090	85.5003
 0.7080	85.4937
 0.7070	85.4689
 0.7060	85.4265
 0.7050	85.3838
 0.7040	85.3528
 0.7030	85.3478
 0.7020	85.3269
 0.7010	85.2942
 0.7000	85.2649
 0.6990	85.2197
 0.6980	85.2110
 0.6970	85.1749
 0.6960	85.1189
 0.6950	85.1059
 0.6940	85.0757
 0.6930	85.0110
 0.6920	84.9758
 0.6910	84.9567
 0.6900	84.9025
 0.6890	84.8578
 0.6880	84.8125
 0.6870	84.7661
 0.6860	84.7363
 0.6850	84.7081
 0.6840	84.6565
 0.6830	84.6116
 0.6820	84.5756
 0.6810	84.4989
 0.6800	84.4496
 0.6790	84.4208
 0.6780	84.3774
 0.6770	84.3213
 0.6760	84.2756
 0.6750	84.2291
 0.6740	84.1682
 0.6730	84.1243
 0.6720	84.0848
 0.6710	84.0293
 0.6700	83.9840
 0.6690	83.9356
 0.6680	83.8759
 0.6670	83.8381
 0.6660	83.7928
 0.6650	83.7301
 0.6640	83.6782
 0.6630	83.6225
 0.6620	83.5642
 0.6610	83.5259
 0.6600	83.4687
 0.6590	83.4181
 0.6580	83.3688
 0.6570	83.3318
 0.6560	83.2702
 0.6550	83.2121
 0.6540	83.1738
 0.6530	83.1179
 0.6520	83.0586
 0.6510	83.0045
 0.6500	82.9522
 0.6490	82.9144
 0.6480	82.8669
 0.6470	82.8113
 0.6460	82.7588
 0.6450	82.7038
 0.6440	82.6613
 0.6430	82.6073
 0.6420	82.5657
 0.6410	82.5308
 0.6400	82.4856
 0.6390	82.4367
 0.6380	82.3818
 0.6370	82.3362
 0.6360	82.2706
 0.6350	82.2196
 0.6340	82.1783
 0.6330	82.1300
 0.6320	82.0788
 0.6310	82.0343
 0.6300	81.9876
 0.6290	81.9240
 0.6280	81.8725
 0.6270	81.8321
 0.6260	81.7944
 0.6250	81.7435
 0.6240	81.6808
 0.6230	81.6179
 0.6220	81.5738
 0.6210	81.5410
 0.6200	81.4709
 0.6190	81.3999
 0.6180	81.3443
 0.6170	81.2785
 0.6160	81.2189
 0.6150	81.1641
 0.6140	81.0982
 0.6130	81.0449
 0.6120	80.9781
 0.6110	80.9114
 0.6100	80.8564
 0.6090	80.8016
 0.6080	80.7369
 0.6070	80.6669
 0.6060	80.6056
 0.6050	80.5526
 0.6040	80.4925
 0.6030	80.4140
 0.6020	80.3537
 0.6010	80.2990
 0.6000	80.2416
 0.5990	80.1887
 0.5980	80.1437
 0.5970	80.1006
 0.5960	80.0588
 0.5950	80.0182
 0.5940	79.9624
 0.5930	79.9041
 0.5920	79.8485
 0.5910	79.8058
 0.5900	79.7437
 0.5890	79.6794
 0.5880	79.6197
 0.5870	79.5645
 0.5860	79.5033
 0.5850	79.4467
 0.5840	79.4150
 0.5830	79.3756
 0.5820	79.3572
 0.5810	79.3361
 0.5800	79.3208
 0.5790	79.2883
 0.5780	79.2615
 0.5770	79.2268
 0.5760	79.2016
 0.5750	79.1730
 0.5740	79.1217
 0.5730	79.0982
 0.5720	79.0801
 0.5710	79.0695
 0.5700	79.0389
 0.5690	79.0028
 0.5680	78.9773
 0.5670	78.9704
 0.5660	78.9402
 0.5650	78.9123
 0.5640	78.8876
 0.5630	78.8875
 0.5620	78.8809
 0.5610	78.8429
 0.5600	78.8229
 0.5590	78.8115
 0.5580	78.7997
 0.5570	78.7780
 0.5560	78.7672
 0.5550	78.7406
 0.5540	78.7176
 0.5530	78.7055
 0.5520	78.6736
 0.5510	78.6605
 0.5500	78.6304
 0.5490	78.5957
 0.5480	78.5798
 0.5470	78.5506
 0.5460	78.5392
 0.5450	78.5055
 0.5440	78.4753
 0.5430	78.4344
 0.5420	78.4216
 0.5410	78.3916
 0.5400	78.3565
 0.5390	78.3322
 0.5380	78.3032
 0.5370	78.2747
 0.5360	78.2227
 0.5350	78.1768
 0.5340	78.1463
 0.5330	78.1297
 0.5320	78.0937
 0.5310	78.0338
 0.5300	78.0059
 0.5290	77.9526
 0.5280	77.9229
 0.5270	77.8943
 0.5260	77.8747
 0.5250	77.8356
 0.5240	77.8003
 0.5230	77.7574
 0.5220	77.7360
 0.5210	77.6873
 0.5200	77.6506
 0.5190	77.5946
 0.5180	77.5705
 0.5170	77.5319
 0.5160	77.5127
 0.5150	77.4734
 0.5140	77.4427
 0.5130	77.4080
 0.5120	77.3667
 0.5110	77.3392
 0.5100	77.3209
 0.5090	77.2739
 0.5080	77.2640
 0.5070	77.2147
 0.5060	77.1672
 0.5050	77.1425
 0.5040	77.0913
 0.5030	77.0464
 0.5020	77.0109
 0.5010	76.9614
 0.5000	76.9228
 0.4990	76.8658
 0.4980	76.8583
 0.4970	76.8146
 0.4960	76.7759
 0.4950	76.7414
 0.4940	76.7028
 0.4930	76.6699
 0.4920	76.6288
 0.4910	76.6004
 0.4900	76.5690
 0.4890	76.5424
 0.4880	76.5130
 0.4870	76.4627
 0.4860	76.4433
 0.4850	76.3420
 0.4840	76.3305
 0.4830	76.2432
 0.4820	76.1989
 0.4810	76.1559
 0.4800	76.1016
 0.4790	76.0191
 0.4780	75.9446
 0.4770	75.8786
 0.4760	75.8033
 0.4750	75.7083
 0.4740	75.6134
 0.4730	75.5217
 0.4720	75.4293
 0.4710	75.3237
 0.4700	75.1836
 0.4690	75.0601
 0.4680	74.9572
 0.4670	74.8284
 0.4660	74.6888
 0.4650	74.5621
 0.4640	74.4393
 0.4630	74.2726
 0.4620	74.1367
 0.4610	73.9858
 0.4600	73.8302
 0.4590	73.6818
 0.4580	73.5031
 0.4570	73.3475
 0.4560	73.1802
 0.4550	73.0187
 0.4540	72.8370
 0.4530	72.6190
 0.4520	72.4308
 0.4510	72.2068
 0.4500	71.9463
 0.4490	71.6933
 0.4480	71.3632
 0.4470	71.0250
 0.4460	70.6423
 0.4450	70.1699
 0.4440	69.6444
 0.4430	69.0597
 0.4420	68.4258
 0.4410	67.7123
 0.4400	67.0403
 0.4390	66.4328
 0.4380	65.9531
 0.4370	65.5945
 0.4360	65.3199
 0.4350	65.1200
 0.4340	64.9621
 0.4330	64.8493
 0.4320	64.7484
 0.4310	64.7375
 0.4300	64.7629
 0.4290	64.8291
 0.4280	64.9931
 0.4270	65.2003
 0.4260	65.4615
 0.4250	65.7364
 0.4240	66.0263
 0.4230	66.2658
 0.4220	66.4906
 0.4210	66.6377
 0.4200	66.7672
 0.4190	66.8281
 0.4180	66.8560
 0.4170	66.8833
 0.4160	66.8860
 0.4150	66.8397
 0.4140	66.7767
 0.4130	66.6533
 0.4120	66.4852
 0.4110	66.2720
 0.4100	66.0803
 0.4090	65.8882
 0.4080	65.7396
 0.4070	65.6412
 0.4060	65.5824
 0.4050	65.4685
 0.4040	65.2940
 0.4030	65.0247
 0.4020	64.7066
 0.4010	64.3427
 0.4000	63.9592
