Name: Glauconite (K,Na)(Fe^3+,Al,Mg)_2(Si,Al)_4O_10(OH)_2
Type: Mineral
Class: Silicate
Subclass: Phyllosilicate
Particle Size: Coarse
Sample No.: PS-19A
Owner: JPL
Wavelength Range: VSWIR
Origin: USA, New Jersey
Collection Date: N/A
Description: Particle size was 125-500um.Collected by Ward's Original ASTER Spectral Library name was jpl.beckman.mineral.silicate.phyllosilicate.coarse.ps19a.spectrum.txt
Measurement: Hemispherical reflectance
First Column: X
Second Column: Y
X Units: Wavelength (micrometers)
Y Units:Reflectance (percent)
First X Value:  0.4000
Last X Value:  2.5000
Number of X Values: 826
Additional Information: mineral.silicate.phyllosilicate.coarse.vswir.ps-19a.jpl.beckman.ancillary.txt

 0.4000	 6.4900
 0.4010	 6.4400
 0.4020	 6.4200
 0.4030	 6.4900
 0.4040	 6.4900
 0.4050	 6.4800
 0.4060	 6.4800
 0.4070	 6.4800
 0.4080	 6.4800
 0.4090	 6.4700
 0.4100	 6.4700
 0.4110	 6.5400
 0.4120	 6.5500
 0.4130	 6.6600
 0.4140	 6.5400
 0.4150	 6.5500
 0.4160	 6.6100
 0.4170	 6.6000
 0.4180	 6.7100
 0.4190	 6.6500
 0.4200	 6.6000
 0.4210	 6.6000
 0.4220	 6.6000
 0.4230	 6.7200
 0.4240	 6.5900
 0.4250	 6.7600
 0.4260	 6.7200
 0.4270	 6.7100
 0.4280	 6.7800
 0.4290	 6.7700
 0.4300	 6.7000
 0.4310	 6.7600
 0.4320	 6.7000
 0.4330	 6.8800
 0.4340	 6.7200
 0.4350	 6.7700
 0.4360	 6.7800
 0.4370	 6.7800
 0.4380	 6.9000
 0.4390	 6.8400
 0.4400	 6.8900
 0.4410	 6.8200
 0.4420	 6.8200
 0.4430	 6.8800
 0.4440	 6.7600
 0.4450	 6.8600
 0.4460	 6.8700
 0.4470	 6.7600
 0.4480	 6.8200
 0.4490	 6.8200
 0.4500	 6.8900
 0.4510	 6.8900
 0.4520	 6.8800
 0.4530	 7.0000
 0.4540	 6.8600
 0.4550	 6.9500
 0.4560	 6.9400
 0.4570	 6.9200
 0.4580	 7.0300
 0.4590	 6.9000
 0.4600	 6.9500
 0.4610	 7.0600
 0.4620	 7.1300
 0.4630	 7.0600
 0.4640	 7.0500
 0.4650	 7.1200
 0.4660	 7.1800
 0.4670	 7.2400
 0.4680	 7.1800
 0.4690	 7.2200
 0.4700	 7.2000
 0.4710	 7.4000
 0.4720	 7.3900
 0.4730	 7.2500
 0.4740	 7.3800
 0.4750	 7.3200
 0.4760	 7.3800
 0.4770	 7.3900
 0.4780	 7.4000
 0.4790	 7.5000
 0.4800	 7.5000
 0.4810	 7.3800
 0.4820	 7.4500
 0.4830	 7.5100
 0.4840	 7.4600
 0.4850	 7.5700
 0.4860	 7.4400
 0.4870	 7.5000
 0.4880	 7.5700
 0.4890	 7.6300
 0.4900	 7.5700
 0.4910	 7.4300
 0.4920	 7.5300
 0.4930	 7.5700
 0.4940	 7.6100
 0.4950	 7.6000
 0.4960	 7.6500
 0.4970	 7.6400
 0.4980	 7.6300
 0.4990	 7.6200
 0.5000	 7.6200
 0.5010	 7.7300
 0.5020	 7.7300
 0.5030	 7.7300
 0.5040	 7.6600
 0.5050	 7.6600
 0.5060	 7.7700
 0.5070	 7.7500
 0.5080	 7.5900
 0.5090	 7.5800
 0.5100	 7.6400
 0.5110	 7.7000
 0.5120	 7.7800
 0.5130	 7.6600
 0.5140	 7.6100
 0.5150	 7.7400
 0.5160	 7.6900
 0.5170	 7.6400
 0.5180	 7.6900
 0.5190	 7.6100
 0.5200	 7.6700
 0.5210	 7.7100
 0.5220	 7.7000
 0.5230	 7.7100
 0.5240	 7.6600
 0.5250	 7.7700
 0.5260	 7.7000
 0.5270	 7.7200
 0.5280	 7.8200
 0.5290	 7.7000
 0.5300	 7.6700
 0.5310	 7.7400
 0.5320	 7.7600
 0.5330	 7.7400
 0.5340	 7.7400
 0.5350	 7.7400
 0.5360	 7.6800
 0.5370	 7.6800
 0.5380	 7.6800
 0.5390	 7.6700
 0.5400	 7.7400
 0.5410	 7.6600
 0.5420	 7.6000
 0.5430	 7.6600
 0.5440	 7.6600
 0.5450	 7.5900
 0.5460	 7.6900
 0.5470	 7.5500
 0.5480	 7.5900
 0.5490	 7.5700
 0.5500	 7.6200
 0.5510	 7.4900
 0.5520	 7.4400
 0.5530	 7.5500
 0.5540	 7.4300
 0.5550	 7.5400
 0.5560	 7.4900
 0.5570	 7.4100
 0.5580	 7.3900
 0.5590	 7.3600
 0.5600	 7.4400
 0.5610	 7.3900
 0.5620	 7.4500
 0.5630	 7.3200
 0.5640	 7.3100
 0.5650	 7.2500
 0.5660	 7.2000
 0.5670	 7.2500
 0.5680	 7.0800
 0.5690	 7.1300
 0.5700	 7.1300
 0.5710	 7.0800
 0.5720	 7.0800
 0.5730	 7.0000
 0.5740	 6.9900
 0.5750	 6.9100
 0.5760	 6.8900
 0.5770	 6.9700
 0.5780	 6.8600
 0.5790	 6.8100
 0.5800	 6.7900
 0.5810	 6.7900
 0.5820	 6.6600
 0.5830	 6.7100
 0.5840	 6.6400
 0.5850	 6.5800
 0.5860	 6.5900
 0.5870	 6.5400
 0.5880	 6.5500
 0.5890	 6.4300
 0.5900	 6.3600
 0.5910	 6.3700
 0.5920	 6.3700
 0.5930	 6.3700
 0.5940	 6.2300
 0.5950	 6.3500
 0.5960	 6.1700
 0.5970	 6.2400
 0.5980	 6.2900
 0.5990	 6.1300
 0.6000	 6.2100
 0.6010	 6.1000
 0.6020	 6.1300
 0.6030	 6.1200
 0.6040	 6.0000
 0.6050	 6.0600
 0.6060	 5.9500
 0.6070	 5.9300
 0.6080	 5.8600
 0.6090	 5.8600
 0.6100	 5.9600
 0.6110	 5.8000
 0.6120	 5.7900
 0.6130	 5.8000
 0.6140	 5.7000
 0.6150	 5.8100
 0.6160	 5.6400
 0.6170	 5.6300
 0.6180	 5.5700
 0.6190	 5.5700
 0.6200	 5.6300
 0.6210	 5.4400
 0.6220	 5.4900
 0.6230	 5.5000
 0.6240	 5.4500
 0.6250	 5.4600
 0.6260	 5.4100
 0.6270	 5.4000
 0.6280	 5.3400
 0.6290	 5.2700
 0.6300	 5.3300
 0.6310	 5.1600
 0.6320	 5.2100
 0.6330	 5.2200
 0.6340	 5.2200
 0.6350	 5.1700
 0.6360	 5.1200
 0.6370	 5.1200
 0.6380	 5.1200
 0.6390	 5.1100
 0.6400	 5.1000
 0.6410	 5.1500
 0.6420	 5.0400
 0.6430	 4.9900
 0.6440	 4.9900
 0.6450	 4.9900
 0.6460	 4.9900
 0.6470	 4.8800
 0.6480	 4.9300
 0.6490	 4.8800
 0.6500	 4.9400
 0.6510	 4.8900
 0.6520	 4.8200
 0.6530	 4.9300
 0.6540	 4.7600
 0.6550	 4.8100
 0.6560	 4.7700
 0.6570	 4.7600
 0.6580	 4.8800
 0.6590	 4.7500
 0.6600	 4.5800
 0.6610	 4.6400
 0.6620	 4.6500
 0.6630	 4.6500
 0.6640	 4.5300
 0.6650	 4.5300
 0.6660	 4.6300
 0.6670	 4.5800
 0.6680	 4.5700
 0.6690	 4.4600
 0.6700	 4.5200
 0.6710	 4.5700
 0.6720	 4.4100
 0.6730	 4.4600
 0.6740	 4.4200
 0.6750	 4.3700
 0.6760	 4.4200
 0.6770	 4.3600
 0.6780	 4.4100
 0.6790	 4.2900
 0.6800	 4.3400
 0.6810	 4.2900
 0.6820	 4.2300
 0.6830	 4.2900
 0.6840	 4.2300
 0.6850	 4.1700
 0.6860	 4.3000
 0.6870	 4.2400
 0.6880	 4.1800
 0.6890	 4.1300
 0.6900	 4.1700
 0.6910	 4.2300
 0.6920	 4.1800
 0.6930	 4.1400
 0.6940	 4.1400
 0.6950	 4.0800
 0.6960	 4.1400
 0.6970	 4.0800
 0.6980	 3.9800
 0.6990	 3.9600
 0.7000	 3.9300
 0.7010	 3.9700
 0.7020	 4.0100
 0.7030	 3.9500
 0.7040	 3.9500
 0.7050	 3.9600
 0.7060	 3.9100
 0.7070	 3.8500
 0.7080	 3.9600
 0.7090	 3.9000
 0.7100	 3.9000
 0.7110	 3.8400
 0.7120	 3.8400
 0.7130	 3.8400
 0.7140	 3.8300
 0.7150	 3.8400
 0.7160	 3.7900
 0.7170	 3.8500
 0.7180	 3.8000
 0.7190	 3.7800
 0.7200	 3.8300
 0.7210	 3.7800
 0.7220	 3.7200
 0.7230	 3.8400
 0.7240	 3.7200
 0.7250	 3.7200
 0.7260	 3.6600
 0.7270	 3.7300
 0.7280	 3.7900
 0.7290	 3.7200
 0.7300	 3.7200
 0.7310	 3.6000
 0.7320	 3.6100
 0.7330	 3.6700
 0.7340	 3.5500
 0.7350	 3.6100
 0.7360	 3.5500
 0.7370	 3.5500
 0.7380	 3.5600
 0.7390	 3.5600
 0.7400	 3.5500
 0.7410	 3.5400
 0.7420	 3.6100
 0.7430	 3.4900
 0.7440	 3.5400
 0.7450	 3.4900
 0.7460	 3.4900
 0.7470	 3.5000
 0.7480	 3.5000
 0.7490	 3.4900
 0.7500	 3.4900
 0.7510	 3.4900
 0.7520	 3.4900
 0.7530	 3.4800
 0.7540	 3.4900
 0.7550	 3.4300
 0.7560	 3.4400
 0.7570	 3.4300
 0.7580	 3.5400
 0.7590	 3.4300
 0.7600	 3.4300
 0.7610	 3.3700
 0.7620	 3.3700
 0.7630	 3.4900
 0.7640	 3.4800
 0.7650	 3.4300
 0.7660	 3.3700
 0.7670	 3.3700
 0.7680	 3.4200
 0.7690	 3.4200
 0.7700	 3.3700
 0.7710	 3.3700
 0.7720	 3.3600
 0.7730	 3.4200
 0.7740	 3.3700
 0.7750	 3.3700
 0.7760	 3.3200
 0.7770	 3.3700
 0.7780	 3.3700
 0.7790	 3.4200
 0.7800	 3.3100
 0.7810	 3.3000
 0.7820	 3.3600
 0.7830	 3.4300
 0.7840	 3.3700
 0.7850	 3.4200
 0.7860	 3.2900
 0.7870	 3.3000
 0.7880	 3.3600
 0.7890	 3.3600
 0.7900	 3.3600
 0.7910	 3.3000
 0.7920	 3.3700
 0.7930	 3.4300
 0.7940	 3.3600
 0.7950	 3.3600
 0.7960	 3.3600
 0.7970	 3.4900
 0.7980	 3.5500
 0.7990	 3.3900
 0.8000	 3.7200
 0.8040	 3.7200
 0.8080	 3.6700
 0.8120	 3.6700
 0.8160	 3.6600
 0.8200	 3.6600
 0.8240	 3.6600
 0.8280	 3.7300
 0.8320	 3.6200
 0.8360	 3.6100
 0.8400	 3.6200
 0.8440	 3.6200
 0.8480	 3.6100
 0.8520	 3.5700
 0.8560	 3.5600
 0.8600	 3.5000
 0.8640	 3.4500
 0.8680	 3.3900
 0.8720	 3.3300
 0.8760	 3.3300
 0.8800	 3.3300
 0.8840	 3.2700
 0.8880	 3.3300
 0.8920	 3.2700
 0.8960	 3.2700
 0.9000	 3.2100
 0.9040	 3.2700
 0.9080	 3.2100
 0.9120	 3.2100
 0.9160	 3.1500
 0.9200	 3.1500
 0.9240	 3.1500
 0.9280	 3.1500
 0.9320	 3.1500
 0.9360	 3.0400
 0.9400	 3.0400
 0.9440	 2.9800
 0.9480	 2.9800
 0.9520	 2.9100
 0.9560	 2.9200
 0.9600	 2.9700
 0.9640	 2.9100
 0.9680	 2.8600
 0.9720	 2.7900
 0.9760	 2.8400
 0.9800	 2.7900
 0.9840	 2.8000
 0.9880	 2.7300
 0.9920	 2.7200
 0.9960	 2.7600
 1.0000	 2.7600
 1.0040	 2.7900
 1.0080	 2.7400
 1.0120	 2.7300
 1.0160	 2.7200
 1.0200	 2.6100
 1.0240	 2.6700
 1.0280	 2.6800
 1.0320	 2.7400
 1.0360	 2.6200
 1.0400	 2.6100
 1.0440	 2.6100
 1.0480	 2.6100
 1.0520	 2.5500
 1.0560	 2.5500
 1.0600	 2.5500
 1.0640	 2.5400
 1.0680	 2.5400
 1.0720	 2.5300
 1.0760	 2.5300
 1.0800	 2.5100
 1.0840	 2.5000
 1.0880	 2.4500
 1.0920	 2.4900
 1.0960	 2.4400
 1.1000	 2.4400
 1.1040	 2.4900
 1.1080	 2.4300
 1.1120	 2.3800
 1.1160	 2.4400
 1.1200	 2.4000
 1.1240	 2.4000
 1.1280	 2.4000
 1.1320	 2.3000
 1.1360	 2.3400
 1.1400	 2.3500
 1.1440	 2.3000
 1.1480	 2.3200
 1.1520	 2.3200
 1.1560	 2.3200
 1.1600	 2.3200
 1.1640	 2.3100
 1.1680	 2.3100
 1.1720	 2.3600
 1.1760	 2.3500
 1.1800	 2.2900
 1.1840	 2.3000
 1.1880	 2.3200
 1.1920	 2.3700
 1.1960	 2.3700
 1.2000	 2.3700
 1.2040	 2.4200
 1.2080	 2.3600
 1.2120	 2.3600
 1.2160	 2.3600
 1.2200	 2.4100
 1.2240	 2.4100
 1.2280	 2.3500
 1.2320	 2.3400
 1.2360	 2.2700
 1.2400	 2.3200
 1.2440	 2.3200
 1.2480	 2.3100
 1.2520	 2.3100
 1.2560	 2.3700
 1.2600	 2.3100
 1.2640	 2.3100
 1.2680	 2.4300
 1.2720	 2.3700
 1.2760	 2.4200
 1.2800	 2.3700
 1.2840	 2.3600
 1.2880	 2.3700
 1.2920	 2.3700
 1.2960	 2.4200
 1.3000	 2.3600
 1.3040	 2.3600
 1.3080	 2.3600
 1.3120	 2.3700
 1.3160	 2.3700
 1.3200	 2.3600
 1.3240	 2.4200
 1.3280	 2.3600
 1.3320	 2.3500
 1.3360	 2.3600
 1.3400	 2.3600
 1.3440	 2.4100
 1.3480	 2.3500
 1.3520	 2.3500
 1.3560	 2.3700
 1.3600	 2.4100
 1.3640	 2.4200
 1.3680	 2.4100
 1.3720	 2.4800
 1.3760	 2.4300
 1.3800	 2.3700
 1.3840	 2.4500
 1.3880	 2.4200
 1.3920	 2.4200
 1.3960	 2.3700
 1.4000	 2.4200
 1.4040	 2.4800
 1.4080	 2.4800
 1.4120	 2.4200
 1.4160	 2.4800
 1.4200	 2.4700
 1.4240	 2.4800
 1.4280	 2.5300
 1.4320	 2.4800
 1.4360	 2.4700
 1.4400	 2.4800
 1.4440	 2.4800
 1.4480	 2.4800
 1.4520	 2.5300
 1.4560	 2.5400
 1.4600	 2.5400
 1.4640	 2.5400
 1.4680	 2.6000
 1.4720	 2.6500
 1.4760	 2.7200
 1.4800	 2.6600
 1.4840	 2.7200
 1.4880	 2.7700
 1.4920	 2.7600
 1.4960	 2.7700
 1.5000	 2.7300
 1.5040	 2.7000
 1.5080	 2.7600
 1.5120	 2.7700
 1.5160	 2.7700
 1.5200	 2.7700
 1.5240	 2.7700
 1.5280	 2.7700
 1.5320	 2.8300
 1.5360	 2.8200
 1.5400	 2.8300
 1.5440	 2.8800
 1.5480	 2.8800
 1.5520	 2.8700
 1.5560	 2.8800
 1.5600	 2.9400
 1.5640	 2.9500
 1.5680	 2.9600
 1.5720	 3.0000
 1.5760	 3.0700
 1.5800	 3.1100
 1.5840	 3.0500
 1.5880	 3.1500
 1.5920	 3.2100
 1.5960	 3.2100
 1.6000	 3.2200
 1.6040	 3.2200
 1.6080	 3.2300
 1.6120	 3.2200
 1.6160	 3.2800
 1.6200	 3.2700
 1.6240	 3.2800
 1.6280	 3.3400
 1.6320	 3.3300
 1.6360	 3.3400
 1.6400	 3.3900
 1.6440	 3.4400
 1.6480	 3.4500
 1.6520	 3.5100
 1.6560	 3.5100
 1.6600	 3.5800
 1.6640	 3.6300
 1.6680	 3.6200
 1.6720	 3.6300
 1.6760	 3.7200
 1.6800	 3.7200
 1.6840	 3.8400
 1.6880	 3.7900
 1.6920	 3.8300
 1.6960	 3.8400
 1.7000	 3.9600
 1.7040	 3.9600
 1.7080	 4.0600
 1.7120	 4.0600
 1.7160	 4.1300
 1.7200	 4.1800
 1.7240	 4.2500
 1.7280	 4.3100
 1.7320	 4.3100
 1.7360	 4.3700
 1.7400	 4.4700
 1.7440	 4.4200
 1.7480	 4.4600
 1.7520	 4.4900
 1.7560	 4.6500
 1.7600	 4.7200
 1.7640	 4.7800
 1.7680	 4.7900
 1.7720	 4.8900
 1.7760	 4.8900
 1.7800	 4.9400
 1.7840	 5.0400
 1.7880	 5.0300
 1.7920	 5.0800
 1.7960	 5.1600
 1.8000	 5.2800
 1.8040	 5.2800
 1.8080	 5.4200
 1.8120	 5.4400
 1.8160	 5.5100
 1.8200	 5.5400
 1.8240	 5.6000
 1.8280	 5.7200
 1.8320	 5.7600
 1.8360	 5.8100
 1.8400	 5.9400
 1.8440	 5.8900
 1.8480	 6.0100
 1.8520	 6.0500
 1.8560	 6.1000
 1.8600	 6.1000
 1.8640	 6.1800
 1.8680	 6.1800
 1.8720	 6.1700
 1.8760	 6.1600
 1.8800	 6.1100
 1.8840	 5.9100
 1.8880	 5.7800
 1.8920	 5.6300
 1.8960	 5.5000
 1.9000	 5.4000
 1.9040	 5.3000
 1.9080	 5.3300
 1.9120	 5.4400
 1.9160	 5.5400
 1.9200	 5.7300
 1.9240	 5.8500
 1.9280	 5.9700
 1.9320	 6.0800
 1.9360	 6.2100
 1.9400	 6.3200
 1.9440	 6.3700
 1.9480	 6.4700
 1.9520	 6.5700
 1.9560	 6.6700
 1.9600	 6.7600
 1.9640	 6.9100
 1.9680	 7.1400
 1.9720	 7.2800
 1.9760	 7.3200
 1.9800	 7.5300
 1.9840	 7.7000
 1.9880	 7.8600
 1.9920	 7.9400
 1.9960	 8.0700
 2.0000	 8.2400
 2.0040	 8.4300
 2.0080	 8.5100
 2.0120	 8.6000
 2.0160	 8.7900
 2.0200	 8.9500
 2.0240	 9.0200
 2.0280	 9.2200
 2.0320	 9.3300
 2.0360	 9.4600
 2.0400	 9.5600
 2.0440	 9.7200
 2.0480	 9.8900
 2.0520	10.0100
 2.0560	10.2000
 2.0600	10.2900
 2.0640	10.3700
 2.0680	10.5300
 2.0720	10.6800
 2.0760	10.8300
 2.0800	10.9800
 2.0840	11.0900
 2.0880	11.1800
 2.0920	11.2900
 2.0960	11.4600
 2.1000	11.6100
 2.1040	11.6000
 2.1080	11.8000
 2.1120	11.9100
 2.1160	12.0200
 2.1200	12.1100
 2.1240	12.1600
 2.1280	12.2500
 2.1320	12.2600
 2.1360	12.3400
 2.1400	12.4900
 2.1440	12.5100
 2.1480	12.5300
 2.1520	12.5200
 2.1560	12.5500
 2.1600	12.7000
 2.1640	12.7100
 2.1680	12.6500
 2.1720	12.7100
 2.1760	12.7100
 2.1800	12.7000
 2.1840	12.7300
 2.1880	12.6800
 2.1920	12.6000
 2.1960	12.6000
 2.2000	12.6700
 2.2040	12.5900
 2.2080	12.6100
 2.2120	12.5000
 2.2160	12.4400
 2.2200	12.2800
 2.2240	12.1300
 2.2280	11.9700
 2.2320	11.6900
 2.2360	11.4700
 2.2400	11.3200
 2.2440	11.1500
 2.2480	11.1000
 2.2520	11.0100
 2.2560	11.0600
 2.2600	11.0300
 2.2640	11.0700
 2.2680	11.0300
 2.2720	10.9600
 2.2760	10.7300
 2.2800	10.4100
 2.2840	10.0400
 2.2880	 9.6100
 2.2920	 9.0600
 2.2960	 8.7000
 2.3000	 8.3400
 2.3040	 8.2000
 2.3080	 8.1700
 2.3120	 8.2800
 2.3160	 8.5500
 2.3200	 8.7400
 2.3240	 9.0000
 2.3280	 9.1500
 2.3320	 9.2600
 2.3360	 9.2300
 2.3400	 9.2000
 2.3440	 9.0100
 2.3480	 8.9200
 2.3520	 8.7500
 2.3560	 8.6300
 2.3600	 8.6100
 2.3640	 8.7100
 2.3680	 8.8900
 2.3720	 9.0800
 2.3760	 9.2900
 2.3800	 9.5900
 2.3840	 9.8700
 2.3880	10.0500
 2.3920	10.2500
 2.3960	10.4300
 2.4000	10.5600
 2.4040	10.5300
 2.4080	10.6200
 2.4120	10.5300
 2.4160	10.4200
 2.4200	10.3900
 2.4240	10.2400
 2.4280	10.1100
 2.4320	 9.8800
 2.4360	 9.8000
 2.4400	 9.6000
 2.4440	 9.4800
 2.4480	 9.2900
 2.4520	 9.1900
 2.4560	 9.0400
 2.4600	 8.9400
 2.4640	 8.8400
 2.4680	 8.7000
 2.4720	 8.6800
 2.4760	 8.5900
 2.4800	 8.4900
 2.4840	 8.4300
 2.4880	 8.3200
 2.4920	 8.3200
 2.4960	 8.2900
 2.5000	 8.1900
