Name: Quartz SiO_2
Type: Mineral
Class: Silicate
Subclass: Tectosilicate
Particle Size: Medium
Sample No.: TS-1A
Owner: JPL
Wavelength Range: VSWIR
Origin: USA, Arkansas, Montgomery County, Mount Ida
Collection Date: N/A
Description: Rock crystal. Particle size was 45-125um.Collected by Burminco Original ASTER Spectral Library name was jpl.beckman.mineral.silicate.tectosilicate.medium.ts01a.spectrum.txt
Measurement: Hemispherical reflectance
First Column: X
Second Column: Y
X Units: Wavelength (micrometers)
Y Units:Reflectance (percent)
First X Value:  0.4000
Last X Value:  2.5000
Number of X Values: 826
Additional Information: mineral.silicate.tectosilicate.medium.vswir.ts-1a.jpl.beckman.ancillary.txt

 0.4000	82.0000
 0.4010	81.9800
 0.4020	82.1700
 0.4030	82.1600
 0.4040	82.0500
 0.4050	82.1300
 0.4060	82.1200
 0.4070	82.1800
 0.4080	82.1400
 0.4090	82.2600
 0.4100	82.2500
 0.4110	82.3600
 0.4120	82.1300
 0.4130	82.2600
 0.4140	82.2500
 0.4150	82.4200
 0.4160	82.3800
 0.4170	82.3800
 0.4180	82.3900
 0.4190	82.3800
 0.4200	82.3100
 0.4210	82.2600
 0.4220	82.3300
 0.4230	82.3400
 0.4240	82.5000
 0.4250	82.3200
 0.4260	82.3900
 0.4270	82.4600
 0.4280	82.5800
 0.4290	82.5300
 0.4300	82.4100
 0.4310	82.4700
 0.4320	82.5100
 0.4330	82.4400
 0.4340	82.4400
 0.4350	82.3800
 0.4360	82.4500
 0.4370	82.5700
 0.4380	82.4400
 0.4390	82.4700
 0.4400	82.5300
 0.4410	82.6400
 0.4420	82.5900
 0.4430	82.5300
 0.4440	82.5900
 0.4450	82.5900
 0.4460	82.5800
 0.4470	82.4700
 0.4480	82.4300
 0.4490	82.6500
 0.4500	82.5500
 0.4510	82.4300
 0.4520	82.5200
 0.4530	82.7100
 0.4540	82.6900
 0.4550	82.6500
 0.4560	82.6200
 0.4570	82.6400
 0.4580	82.7200
 0.4590	82.7200
 0.4600	82.6700
 0.4610	82.7700
 0.4620	82.8400
 0.4630	82.8500
 0.4640	82.7500
 0.4650	82.8300
 0.4660	82.9500
 0.4670	82.7700
 0.4680	82.7800
 0.4690	82.7200
 0.4700	82.7700
 0.4710	82.8400
 0.4720	82.7100
 0.4730	82.7600
 0.4740	82.8900
 0.4750	83.0700
 0.4760	82.9500
 0.4770	82.9500
 0.4780	83.0200
 0.4790	83.1300
 0.4800	82.9000
 0.4810	82.8900
 0.4820	83.0400
 0.4830	82.9500
 0.4840	82.9600
 0.4850	82.9000
 0.4860	82.9700
 0.4870	82.9800
 0.4880	83.1200
 0.4890	83.0900
 0.4900	83.0500
 0.4910	83.0900
 0.4920	83.1100
 0.4930	83.0700
 0.4940	83.0300
 0.4950	83.0500
 0.4960	83.1800
 0.4970	83.1900
 0.4980	83.0300
 0.4990	83.0500
 0.5000	83.0600
 0.5010	83.1800
 0.5020	83.2400
 0.5030	83.1900
 0.5040	83.2500
 0.5050	83.0800
 0.5060	83.2500
 0.5070	83.1800
 0.5080	83.1200
 0.5090	83.2400
 0.5100	83.2900
 0.5110	83.2500
 0.5120	83.1500
 0.5130	83.2000
 0.5140	83.3100
 0.5150	83.4500
 0.5160	83.4500
 0.5170	83.3800
 0.5180	83.3400
 0.5190	83.4700
 0.5200	83.2400
 0.5210	83.2300
 0.5220	83.2900
 0.5230	83.3000
 0.5240	83.3600
 0.5250	83.2800
 0.5260	83.1600
 0.5270	83.1700
 0.5280	83.3500
 0.5290	83.3600
 0.5300	83.2900
 0.5310	83.2900
 0.5320	83.3200
 0.5330	83.3000
 0.5340	83.2400
 0.5350	83.2400
 0.5360	83.2300
 0.5370	83.3900
 0.5380	83.3300
 0.5390	83.2800
 0.5400	83.3000
 0.5410	83.3200
 0.5420	83.4300
 0.5430	83.3900
 0.5440	83.3400
 0.5450	83.3600
 0.5460	83.5400
 0.5470	83.4400
 0.5480	83.3600
 0.5490	83.4400
 0.5500	83.5700
 0.5510	83.5200
 0.5520	83.4000
 0.5530	83.5700
 0.5540	83.5600
 0.5550	83.7000
 0.5560	83.6200
 0.5570	83.5900
 0.5580	83.5600
 0.5590	83.6800
 0.5600	83.6200
 0.5610	84.0200
 0.5620	83.9600
 0.5630	83.9200
 0.5640	84.0500
 0.5650	83.8900
 0.5660	83.8400
 0.5670	83.7200
 0.5680	83.6600
 0.5690	83.6000
 0.5700	83.6400
 0.5710	83.5600
 0.5720	83.4900
 0.5730	83.4500
 0.5740	83.5400
 0.5750	83.5300
 0.5760	83.4300
 0.5770	83.4800
 0.5780	83.6900
 0.5790	83.3300
 0.5800	83.3900
 0.5810	83.3500
 0.5820	83.2900
 0.5830	83.2700
 0.5840	83.2600
 0.5850	83.3100
 0.5860	83.3700
 0.5870	83.5500
 0.5880	83.5500
 0.5890	83.3800
 0.5900	83.4900
 0.5910	83.5500
 0.5920	83.4500
 0.5930	83.4500
 0.5940	83.4600
 0.5950	83.4700
 0.5960	83.5900
 0.5970	83.6100
 0.5980	83.4400
 0.5990	83.5600
 0.6000	83.6700
 0.6010	83.7700
 0.6020	83.6400
 0.6030	83.5400
 0.6040	83.6600
 0.6050	83.6200
 0.6060	83.5600
 0.6070	83.5200
 0.6080	83.5200
 0.6090	83.6200
 0.6100	83.5800
 0.6110	83.5200
 0.6120	83.3600
 0.6130	83.4700
 0.6140	83.5200
 0.6150	83.4500
 0.6160	83.3800
 0.6170	83.4500
 0.6180	83.4200
 0.6190	83.3100
 0.6200	83.3100
 0.6210	83.4200
 0.6220	83.4200
 0.6230	83.3600
 0.6240	83.3600
 0.6250	83.4200
 0.6260	83.5700
 0.6270	83.4500
 0.6280	83.3400
 0.6290	83.4200
 0.6300	83.5400
 0.6310	83.4100
 0.6320	83.4100
 0.6330	83.4500
 0.6340	83.5800
 0.6350	83.5900
 0.6360	83.4000
 0.6370	83.4000
 0.6380	83.4500
 0.6390	83.4900
 0.6400	83.4500
 0.6410	83.4000
 0.6420	83.4200
 0.6430	83.5300
 0.6440	83.4700
 0.6450	83.3600
 0.6460	83.3600
 0.6470	83.4300
 0.6480	83.4700
 0.6490	83.3500
 0.6500	83.4000
 0.6510	83.3800
 0.6520	83.5000
 0.6530	83.5100
 0.6540	83.4000
 0.6550	83.4900
 0.6560	83.4800
 0.6570	83.4200
 0.6580	83.4100
 0.6590	83.4200
 0.6600	83.4200
 0.6610	83.5300
 0.6620	83.4700
 0.6630	83.4600
 0.6640	83.4500
 0.6650	83.4500
 0.6660	83.5800
 0.6670	83.5400
 0.6680	83.4900
 0.6690	83.4900
 0.6700	83.6500
 0.6710	83.4200
 0.6720	83.4200
 0.6730	83.4200
 0.6740	83.5900
 0.6750	83.6400
 0.6760	83.5100
 0.6770	83.4600
 0.6780	83.3500
 0.6790	83.5300
 0.6800	83.5400
 0.6810	83.4300
 0.6820	83.5500
 0.6830	83.6000
 0.6840	83.4400
 0.6850	83.5600
 0.6860	83.4500
 0.6870	83.5000
 0.6880	83.5900
 0.6890	83.4700
 0.6900	83.4700
 0.6910	83.4800
 0.6920	83.4900
 0.6930	83.6500
 0.6940	83.6600
 0.6950	83.5200
 0.6960	83.5800
 0.6970	83.6700
 0.6980	83.4700
 0.6990	83.4700
 0.7000	83.5300
 0.7010	83.4700
 0.7020	83.4300
 0.7030	83.3700
 0.7040	83.4900
 0.7050	83.4900
 0.7060	83.5000
 0.7070	83.4300
 0.7080	83.4900
 0.7090	83.4900
 0.7100	83.4900
 0.7110	83.5000
 0.7120	83.4900
 0.7130	83.5400
 0.7140	83.6500
 0.7150	83.5400
 0.7160	83.4900
 0.7170	83.5000
 0.7180	83.5500
 0.7190	83.5900
 0.7200	83.5300
 0.7210	83.4900
 0.7220	83.5000
 0.7230	83.5700
 0.7240	83.5500
 0.7250	83.5000
 0.7260	83.5100
 0.7270	83.5100
 0.7280	83.6100
 0.7290	83.4800
 0.7300	83.4200
 0.7310	83.4900
 0.7320	83.5000
 0.7330	83.6100
 0.7340	83.6200
 0.7350	83.5500
 0.7360	83.5600
 0.7370	83.6600
 0.7380	83.6500
 0.7390	83.5400
 0.7400	83.5400
 0.7410	83.6100
 0.7420	83.6200
 0.7430	83.5100
 0.7440	83.5100
 0.7450	83.4500
 0.7460	83.6200
 0.7470	83.6200
 0.7480	83.5100
 0.7490	83.6100
 0.7500	83.5600
 0.7510	83.5200
 0.7520	83.6700
 0.7530	83.5100
 0.7540	83.5100
 0.7550	83.5100
 0.7560	83.5200
 0.7570	83.4000
 0.7580	83.4500
 0.7590	83.4000
 0.7600	83.5700
 0.7610	83.5900
 0.7620	83.5900
 0.7630	83.6000
 0.7640	83.5400
 0.7650	83.5400
 0.7660	83.5800
 0.7670	83.5700
 0.7680	83.5800
 0.7690	83.6900
 0.7700	83.6000
 0.7710	83.4800
 0.7720	83.4800
 0.7730	83.4800
 0.7740	83.5900
 0.7750	83.6800
 0.7760	83.5700
 0.7770	83.5800
 0.7780	83.6000
 0.7790	83.5400
 0.7800	83.5400
 0.7810	83.4800
 0.7820	83.4900
 0.7830	83.6100
 0.7840	83.6600
 0.7850	83.5400
 0.7860	83.6600
 0.7870	83.6600
 0.7880	83.7700
 0.7890	83.7700
 0.7900	83.6500
 0.7910	83.6600
 0.7920	83.6600
 0.7930	83.7000
 0.7940	83.7900
 0.7950	83.6700
 0.7960	83.7400
 0.7970	83.7800
 0.7980	83.7700
 0.7990	83.6600
 0.8000	83.4900
 0.8040	83.4700
 0.8080	83.4900
 0.8120	83.4800
 0.8160	83.4500
 0.8200	83.4900
 0.8240	83.3900
 0.8280	83.5000
 0.8320	83.4900
 0.8360	83.5300
 0.8400	83.6600
 0.8440	83.7100
 0.8480	83.7500
 0.8520	83.7400
 0.8560	83.7500
 0.8600	83.7900
 0.8640	83.7300
 0.8680	83.7900
 0.8720	83.7800
 0.8760	83.7800
 0.8800	83.7700
 0.8840	83.6600
 0.8880	83.7100
 0.8920	83.7700
 0.8960	83.7300
 0.9000	83.7700
 0.9040	83.7800
 0.9080	83.7900
 0.9120	83.8300
 0.9160	83.8900
 0.9200	83.8900
 0.9240	83.9600
 0.9280	83.9700
 0.9320	83.8900
 0.9360	83.8400
 0.9400	83.8900
 0.9440	83.8400
 0.9480	83.9500
 0.9520	83.9300
 0.9560	84.0100
 0.9600	84.0700
 0.9640	84.0700
 0.9680	84.0900
 0.9720	84.0200
 0.9760	84.0100
 0.9800	83.9600
 0.9840	83.9200
 0.9880	83.9700
 0.9920	83.9800
 0.9960	84.0400
 1.0000	84.0200
 1.0040	83.9700
 1.0080	84.0500
 1.0120	84.1000
 1.0160	84.0900
 1.0200	84.0900
 1.0240	84.1100
 1.0280	84.1800
 1.0320	84.1400
 1.0360	84.0700
 1.0400	84.1500
 1.0440	84.1300
 1.0480	84.0700
 1.0520	84.0100
 1.0560	84.0300
 1.0600	84.0600
 1.0640	84.0600
 1.0680	84.0600
 1.0720	84.0300
 1.0760	84.1000
 1.0800	84.1800
 1.0840	84.1500
 1.0880	84.1800
 1.0920	84.2100
 1.0960	84.1700
 1.1000	84.2000
 1.1040	84.1700
 1.1080	84.1100
 1.1120	84.1200
 1.1160	84.1500
 1.1200	84.1900
 1.1240	84.2500
 1.1280	84.2300
 1.1320	84.2600
 1.1360	84.2100
 1.1400	84.2300
 1.1440	84.2300
 1.1480	84.2200
 1.1520	84.2700
 1.1560	84.2600
 1.1600	84.2500
 1.1640	84.1300
 1.1680	84.1800
 1.1720	84.1300
 1.1760	84.1400
 1.1800	84.0900
 1.1840	84.1500
 1.1880	84.0800
 1.1920	84.1500
 1.1960	84.0500
 1.2000	84.1300
 1.2040	84.1000
 1.2080	84.1300
 1.2120	84.2000
 1.2160	84.2300
 1.2200	84.1900
 1.2240	84.2200
 1.2280	84.1300
 1.2320	84.1700
 1.2360	84.2000
 1.2400	84.1200
 1.2440	84.0800
 1.2480	84.1000
 1.2520	84.1100
 1.2560	84.1500
 1.2600	84.1400
 1.2640	84.0600
 1.2680	84.0900
 1.2720	84.1900
 1.2760	84.2800
 1.2800	84.2800
 1.2840	84.2700
 1.2880	84.3100
 1.2920	84.2400
 1.2960	84.2200
 1.3000	84.1400
 1.3040	84.0900
 1.3080	84.0800
 1.3120	84.0600
 1.3160	84.1600
 1.3200	84.0800
 1.3240	84.0900
 1.3280	84.1400
 1.3320	84.1600
 1.3360	84.1900
 1.3400	84.1900
 1.3440	84.1500
 1.3480	84.1900
 1.3520	84.2000
 1.3560	84.1100
 1.3600	84.0000
 1.3640	84.0000
 1.3680	84.0900
 1.3720	84.0600
 1.3760	84.1100
 1.3800	84.0700
 1.3840	84.1100
 1.3880	84.1700
 1.3920	84.1600
 1.3960	84.2100
 1.4000	84.2300
 1.4040	84.2000
 1.4080	84.2100
 1.4120	84.2000
 1.4160	84.2100
 1.4200	84.1600
 1.4240	84.0700
 1.4280	84.1200
 1.4320	84.1100
 1.4360	84.1400
 1.4400	84.1200
 1.4440	84.1900
 1.4480	84.2100
 1.4520	84.2100
 1.4560	84.2000
 1.4600	84.1900
 1.4640	84.1800
 1.4680	84.1900
 1.4720	84.1900
 1.4760	84.2200
 1.4800	84.2800
 1.4840	84.2900
 1.4880	84.2900
 1.4920	84.3200
 1.4960	84.3000
 1.5000	84.2500
 1.5040	84.2000
 1.5080	84.2000
 1.5120	84.2100
 1.5160	84.2500
 1.5200	84.3100
 1.5240	84.2000
 1.5280	84.2400
 1.5320	84.3100
 1.5360	84.3900
 1.5400	84.3300
 1.5440	84.3300
 1.5480	84.3500
 1.5520	84.3900
 1.5560	84.3800
 1.5600	84.4200
 1.5640	84.5300
 1.5680	84.4000
 1.5720	84.4200
 1.5760	84.4200
 1.5800	84.3800
 1.5840	84.3800
 1.5880	84.3400
 1.5920	84.3500
 1.5960	84.3800
 1.6000	84.4000
 1.6040	84.4100
 1.6080	84.3700
 1.6120	84.3600
 1.6160	84.4200
 1.6200	84.4400
 1.6240	84.4600
 1.6280	84.4200
 1.6320	84.4600
 1.6360	84.5100
 1.6400	84.5600
 1.6440	84.6600
 1.6480	84.5800
 1.6520	84.6200
 1.6560	84.6000
 1.6600	84.6600
 1.6640	84.6800
 1.6680	84.6900
 1.6720	84.7100
 1.6760	84.7400
 1.6800	84.6700
 1.6840	84.7100
 1.6880	84.6500
 1.6920	84.7100
 1.6960	84.6900
 1.7000	84.6700
 1.7040	84.7000
 1.7080	84.7100
 1.7120	84.7600
 1.7160	84.7000
 1.7200	84.6400
 1.7240	84.6300
 1.7280	84.5800
 1.7320	84.5800
 1.7360	84.5900
 1.7400	84.5300
 1.7440	84.5400
 1.7480	84.5800
 1.7520	84.5600
 1.7560	84.6100
 1.7600	84.6200
 1.7640	84.5100
 1.7680	84.5000
 1.7720	84.5800
 1.7760	84.5500
 1.7800	84.6500
 1.7840	84.6100
 1.7880	84.6100
 1.7920	84.7000
 1.7960	84.7700
 1.8000	84.7700
 1.8040	84.7600
 1.8080	84.7200
 1.8120	84.5600
 1.8160	84.5400
 1.8200	84.6000
 1.8240	84.6700
 1.8280	84.6400
 1.8320	84.6700
 1.8360	84.6800
 1.8400	84.6700
 1.8440	84.6800
 1.8480	84.6800
 1.8520	84.7000
 1.8560	84.5200
 1.8600	84.5800
 1.8640	84.6000
 1.8680	84.5200
 1.8720	84.5300
 1.8760	84.4900
 1.8800	84.4500
 1.8840	84.3900
 1.8880	84.3900
 1.8920	84.3400
 1.8960	84.3400
 1.9000	84.3800
 1.9040	84.3500
 1.9080	84.3200
 1.9120	84.3700
 1.9160	84.3900
 1.9200	84.3900
 1.9240	84.4000
 1.9280	84.4100
 1.9320	84.3800
 1.9360	84.4100
 1.9400	84.4300
 1.9440	84.3900
 1.9480	84.3900
 1.9520	84.4500
 1.9560	84.3800
 1.9600	84.4200
 1.9640	84.5000
 1.9680	84.5000
 1.9720	84.5700
 1.9760	84.6200
 1.9800	84.6200
 1.9840	84.6100
 1.9880	84.7000
 1.9920	84.7300
 1.9960	84.8100
 2.0000	84.8800
 2.0040	84.9300
 2.0080	84.9700
 2.0120	84.9400
 2.0160	84.9500
 2.0200	85.0500
 2.0240	85.0600
 2.0280	85.0400
 2.0320	85.1000
 2.0360	85.1100
 2.0400	85.1400
 2.0440	85.2200
 2.0480	85.1600
 2.0520	85.2200
 2.0560	85.2500
 2.0600	85.2500
 2.0640	85.3400
 2.0680	85.3500
 2.0720	85.3600
 2.0760	85.4100
 2.0800	85.3800
 2.0840	85.3400
 2.0880	85.3100
 2.0920	85.3900
 2.0960	85.5200
 2.1000	85.6000
 2.1040	85.7300
 2.1080	85.6800
 2.1120	85.6500
 2.1160	85.7500
 2.1200	85.7500
 2.1240	85.7200
 2.1280	85.7000
 2.1320	85.7000
 2.1360	85.6200
 2.1400	85.5600
 2.1440	85.5300
 2.1480	85.5200
 2.1520	85.4700
 2.1560	85.4300
 2.1600	85.4200
 2.1640	85.4100
 2.1680	85.3300
 2.1720	85.3000
 2.1760	85.2900
 2.1800	85.2400
 2.1840	85.1500
 2.1880	85.1000
 2.1920	84.9900
 2.1960	85.0600
 2.2000	85.0200
 2.2040	84.9200
 2.2080	84.8600
 2.2120	84.8900
 2.2160	84.9600
 2.2200	84.9600
 2.2240	85.0100
 2.2280	84.9600
 2.2320	85.0000
 2.2360	84.9100
 2.2400	85.0200
 2.2440	85.1300
 2.2480	85.0800
 2.2520	85.0800
 2.2560	85.1000
 2.2600	85.1100
 2.2640	85.1200
 2.2680	85.1900
 2.2720	85.2200
 2.2760	85.2300
 2.2800	85.2500
 2.2840	85.2700
 2.2880	85.3200
 2.2920	85.3300
 2.2960	85.3200
 2.3000	85.3100
 2.3040	85.3300
 2.3080	85.4500
 2.3120	85.4600
 2.3160	85.4800
 2.3200	85.5200
 2.3240	85.6200
 2.3280	85.6100
 2.3320	85.6600
 2.3360	85.6600
 2.3400	85.6400
 2.3440	85.6500
 2.3480	85.6300
 2.3520	85.6600
 2.3560	85.6900
 2.3600	85.6100
 2.3640	85.5300
 2.3680	85.4500
 2.3720	85.4800
 2.3760	85.5300
 2.3800	85.5400
 2.3840	85.6100
 2.3880	85.5700
 2.3920	85.4900
 2.3960	85.5600
 2.4000	85.5600
 2.4040	85.6000
 2.4080	85.5500
 2.4120	85.5500
 2.4160	85.5200
 2.4200	85.4200
 2.4240	85.4200
 2.4280	85.4600
 2.4320	85.4200
 2.4360	85.4000
 2.4400	85.4300
 2.4440	85.4300
 2.4480	85.4400
 2.4520	85.4200
 2.4560	85.3700
 2.4600	85.4100
 2.4640	85.3900
 2.4680	85.3300
 2.4720	85.3400
 2.4760	85.2600
 2.4800	85.5300
 2.4840	85.5800
 2.4880	85.6800
 2.4920	85.7400
 2.4960	85.8400
 2.5000	85.8800
