Name: Scorodite Fe^3+AsO_4.2H_2O
Type: Mineral
Class: Arsenate
Subclass: None
Particle Size: Coarse
Sample No.: A-2A
Owner: JPL
Wavelength Range: VSWIR
Origin: USA, Utah, Tooele County, Gold Hill.
Collection Date: N/A
Description: Particle size was 125-500um.Collected by:  Ward's Original ASTER Spectral Library name was jpl.perkin.mineral.arsenate.none.coarse.a02a.spectrum.txt
Measurement: Hemispherical reflectance
First Column: X
Second Column: Y
X Units: Wavelength (micrometers)
Y Units:Reflectance (percent)
First X Value:  2.5000
Last X Value:  0.4000
Number of X Values: 2101
Additional Information: mineral.arsenate.none.coarse.vswir.a-2a.jpl.perkin.ancillary.txt

 2.5000	 2.9517
 2.4990	 3.3712
 2.4980	 3.3378
 2.4970	 3.7255
 2.4960	 3.3195
 2.4950	 3.6640
 2.4940	 3.3905
 2.4930	 3.8388
 2.4920	 3.6167
 2.4910	 3.9511
 2.4900	 3.7087
 2.4890	 3.9867
 2.4880	 3.8276
 2.4870	 4.0376
 2.4860	 3.7810
 2.4850	 4.0130
 2.4840	 3.9207
 2.4830	 4.2829
 2.4820	 4.0198
 2.4810	 4.1382
 2.4800	 4.0439
 2.4790	 4.3334
 2.4780	 4.2986
 2.4770	 4.3969
 2.4760	 4.2974
 2.4750	 4.5716
 2.4740	 4.3427
 2.4730	 4.5275
 2.4720	 4.5277
 2.4710	 4.6089
 2.4700	 4.6629
 2.4690	 4.8011
 2.4680	 4.7114
 2.4670	 4.8817
 2.4660	 4.8345
 2.4650	 4.9083
 2.4640	 4.9270
 2.4630	 5.0592
 2.4620	 4.9713
 2.4610	 5.0698
 2.4600	 5.0963
 2.4590	 5.2428
 2.4580	 5.1868
 2.4570	 5.2746
 2.4560	 5.3185
 2.4550	 5.3012
 2.4540	 5.3776
 2.4530	 5.4295
 2.4520	 5.3648
 2.4510	 5.4656
 2.4500	 5.4168
 2.4490	 5.5466
 2.4480	 5.5100
 2.4470	 5.6358
 2.4460	 5.4782
 2.4450	 5.7800
 2.4440	 5.5739
 2.4430	 5.7675
 2.4420	 5.6736
 2.4410	 5.8272
 2.4400	 5.8694
 2.4390	 5.9535
 2.4380	 5.8502
 2.4370	 5.9431
 2.4360	 5.8881
 2.4350	 5.9762
 2.4340	 5.9044
 2.4330	 5.9472
 2.4320	 5.9285
 2.4310	 6.0410
 2.4300	 6.0072
 2.4290	 6.2114
 2.4280	 6.1395
 2.4270	 6.2601
 2.4260	 6.2645
 2.4250	 6.2778
 2.4240	 6.3396
 2.4230	 6.3971
 2.4220	 6.3389
 2.4210	 6.4531
 2.4200	 6.3963
 2.4190	 6.5353
 2.4180	 6.4586
 2.4170	 6.5638
 2.4160	 6.6062
 2.4150	 6.7515
 2.4140	 6.6618
 2.4130	 6.7283
 2.4120	 6.7552
 2.4110	 6.7977
 2.4100	 6.7303
 2.4090	 6.8669
 2.4080	 6.9141
 2.4070	 6.9289
 2.4060	 6.9028
 2.4050	 7.0245
 2.4040	 6.9698
 2.4030	 7.0980
 2.4020	 7.0795
 2.4010	 7.1170
 2.4000	 7.1064
 2.3990	 7.1895
 2.3980	 7.1945
 2.3970	 7.3004
 2.3960	 7.2920
 2.3950	 7.3182
 2.3940	 7.3800
 2.3930	 7.4011
 2.3920	 7.3982
 2.3910	 7.4791
 2.3900	 7.4475
 2.3890	 7.5576
 2.3880	 7.5604
 2.3870	 7.5998
 2.3860	 7.5474
 2.3850	 7.6235
 2.3840	 7.6502
 2.3830	 7.6868
 2.3820	 7.7434
 2.3810	 7.7943
 2.3800	 7.7809
 2.3790	 7.8342
 2.3780	 7.8471
 2.3770	 7.8562
 2.3760	 7.9089
 2.3750	 7.9568
 2.3740	 7.9189
 2.3730	 8.0097
 2.3720	 7.9829
 2.3710	 8.0102
 2.3700	 8.0425
 2.3690	 8.0913
 2.3680	 8.0910
 2.3670	 8.1460
 2.3660	 8.1065
 2.3650	 8.1308
 2.3640	 8.1724
 2.3630	 8.1577
 2.3620	 8.1530
 2.3610	 8.1839
 2.3600	 8.2169
 2.3590	 8.2095
 2.3580	 8.1960
 2.3570	 8.2085
 2.3560	 8.1615
 2.3550	 8.1641
 2.3540	 8.2008
 2.3530	 8.2128
 2.3520	 8.2098
 2.3510	 8.1649
 2.3500	 8.1715
 2.3490	 8.1375
 2.3480	 8.1065
 2.3470	 8.1797
 2.3460	 8.1649
 2.3450	 8.1167
 2.3440	 8.1303
 2.3430	 8.0977
 2.3420	 8.0666
 2.3410	 7.9992
 2.3400	 8.0335
 2.3390	 8.0743
 2.3380	 8.0566
 2.3370	 8.0170
 2.3360	 7.9554
 2.3350	 7.9694
 2.3340	 8.0035
 2.3330	 7.9881
 2.3320	 8.0149
 2.3310	 7.9836
 2.3300	 8.0000
 2.3290	 7.9914
 2.3280	 8.0402
 2.3270	 8.0480
 2.3260	 8.0260
 2.3250	 8.0360
 2.3240	 8.1377
 2.3230	 8.1328
 2.3220	 8.1428
 2.3210	 8.1727
 2.3200	 8.2551
 2.3190	 8.2307
 2.3180	 8.3300
 2.3170	 8.3682
 2.3160	 8.4437
 2.3150	 8.4552
 2.3140	 8.4802
 2.3130	 8.4966
 2.3120	 8.6044
 2.3110	 8.6003
 2.3100	 8.6996
 2.3090	 8.7436
 2.3080	 8.8292
 2.3070	 8.8803
 2.3060	 8.9597
 2.3050	 9.0279
 2.3040	 9.0861
 2.3030	 9.1099
 2.3020	 9.2408
 2.3010	 9.2451
 2.3000	 9.2935
 2.2990	 9.2669
 2.2980	 9.4348
 2.2970	 9.4304
 2.2960	 9.5428
 2.2950	 9.5628
 2.2940	 9.6305
 2.2930	 9.6509
 2.2920	 9.7579
 2.2910	 9.7237
 2.2900	 9.8361
 2.2890	 9.8516
 2.2880	 9.9237
 2.2870	 9.9119
 2.2860	 9.9622
 2.2850	 9.8954
 2.2840	10.0234
 2.2830	 9.9704
 2.2820	10.0856
 2.2810	10.0942
 2.2800	10.1266
 2.2790	10.0138
 2.2780	10.1534
 2.2770	10.0697
 2.2760	10.1009
 2.2750	10.0889
 2.2740	10.1641
 2.2730	10.1529
 2.2720	10.2056
 2.2710	10.1458
 2.2700	10.2556
 2.2690	10.1383
 2.2680	10.1898
 2.2670	10.2149
 2.2660	10.1630
 2.2650	10.1997
 2.2640	10.2923
 2.2630	10.1501
 2.2620	10.2402
 2.2610	10.1321
 2.2600	10.1935
 2.2590	10.1817
 2.2580	10.3009
 2.2570	10.2242
 2.2560	10.2720
 2.2550	10.1872
 2.2540	10.2508
 2.2530	10.2556
 2.2520	10.2521
 2.2510	10.1732
 2.2500	10.2828
 2.2490	10.1786
 2.2480	10.1981
 2.2470	10.1228
 2.2460	10.2479
 2.2450	10.1352
 2.2440	10.1498
 2.2430	10.1351
 2.2420	10.1895
 2.2410	10.0504
 2.2400	10.1647
 2.2390	10.0294
 2.2380	10.1252
 2.2370	 9.9432
 2.2360	10.0842
 2.2350	 9.9702
 2.2340	10.0216
 2.2330	 9.9550
 2.2320	 9.9606
 2.2310	 9.8733
 2.2300	 9.8781
 2.2290	 9.7740
 2.2280	 9.9330
 2.2270	 9.7886
 2.2260	 9.8178
 2.2250	 9.6562
 2.2240	 9.7166
 2.2230	 9.6188
 2.2220	 9.6255
 2.2210	 9.5947
 2.2200	 9.6044
 2.2190	 9.5297
 2.2180	 9.5772
 2.2170	 9.4782
 2.2160	 9.5323
 2.2150	 9.3918
 2.2140	 9.4376
 2.2130	 9.3195
 2.2120	 9.4407
 2.2110	 9.1851
 2.2100	 9.3969
 2.2090	 9.2586
 2.2080	 9.3190
 2.2070	 9.1938
 2.2060	 9.2426
 2.2050	 9.1857
 2.2040	 9.1943
 2.2030	 9.1095
 2.2020	 9.1169
 2.2010	 9.0666
 2.2000	 9.1397
 2.1990	 9.0205
 2.1980	 9.1347
 2.1970	 9.0012
 2.1960	 9.0258
 2.1950	 8.9698
 2.1940	 8.9784
 2.1930	 8.8674
 2.1920	 8.8994
 2.1910	 8.8358
 2.1900	 8.8885
 2.1890	 8.7955
 2.1880	 8.7975
 2.1870	 8.7632
 2.1860	 8.7999
 2.1850	 8.7196
 2.1840	 8.7731
 2.1830	 8.6930
 2.1820	 8.7356
 2.1810	 8.5621
 2.1800	 8.6602
 2.1790	 8.5537
 2.1780	 8.6551
 2.1770	 8.4553
 2.1760	 8.5492
 2.1750	 8.5288
 2.1740	 8.5389
 2.1730	 8.5244
 2.1720	 8.5160
 2.1710	 8.2874
 2.1700	 8.4238
 2.1690	 8.4455
 2.1680	 8.4130
 2.1670	 8.3144
 2.1660	 8.3242
 2.1650	 8.3113
 2.1640	 8.3992
 2.1630	 8.2663
 2.1620	 8.3644
 2.1610	 8.2012
 2.1600	 8.2542
 2.1590	 8.2396
 2.1580	 8.2460
 2.1570	 8.1849
 2.1560	 8.2032
 2.1550	 8.1631
 2.1540	 8.1896
 2.1530	 8.1149
 2.1520	 8.1279
 2.1510	 8.0639
 2.1500	 8.0961
 2.1490	 8.0007
 2.1480	 8.0907
 2.1470	 8.0182
 2.1460	 8.0618
 2.1450	 7.9703
 2.1440	 8.0170
 2.1430	 7.9398
 2.1420	 7.9174
 2.1410	 7.9904
 2.1400	 7.9854
 2.1390	 7.8446
 2.1380	 7.9572
 2.1370	 7.8316
 2.1360	 7.8174
 2.1350	 7.8274
 2.1340	 7.8642
 2.1330	 7.7313
 2.1320	 7.7818
 2.1310	 7.7461
 2.1300	 7.7529
 2.1290	 7.7048
 2.1280	 7.6970
 2.1270	 7.6749
 2.1260	 7.7546
 2.1250	 7.6215
 2.1240	 7.6577
 2.1230	 7.5680
 2.1220	 7.5651
 2.1210	 7.5330
 2.1200	 7.6314
 2.1190	 7.5412
 2.1180	 7.5641
 2.1170	 7.5575
 2.1160	 7.5548
 2.1150	 7.5112
 2.1140	 7.4923
 2.1130	 7.4385
 2.1120	 7.4799
 2.1110	 7.4183
 2.1100	 7.3662
 2.1090	 7.3822
 2.1080	 7.4142
 2.1070	 7.3319
 2.1060	 7.3686
 2.1050	 7.3555
 2.1040	 7.3856
 2.1030	 7.3304
 2.1020	 7.3407
 2.1010	 7.3646
 2.1000	 7.3619
 2.0990	 7.3125
 2.0980	 7.3246
 2.0970	 7.3173
 2.0960	 7.3271
 2.0950	 7.3651
 2.0940	 7.3893
 2.0930	 7.3483
 2.0920	 7.3514
 2.0910	 7.3414
 2.0900	 7.3790
 2.0890	 7.3294
 2.0880	 7.3301
 2.0870	 7.3015
 2.0860	 7.3762
 2.0850	 7.3931
 2.0840	 7.3740
 2.0830	 7.3155
 2.0820	 7.3209
 2.0810	 7.3784
 2.0800	 7.3863
 2.0790	 7.3031
 2.0780	 7.3786
 2.0770	 7.4601
 2.0760	 7.4116
 2.0750	 7.3801
 2.0740	 7.3975
 2.0730	 7.3723
 2.0720	 7.3646
 2.0710	 7.3967
 2.0700	 7.4333
 2.0690	 7.4483
 2.0680	 7.4170
 2.0670	 7.4127
 2.0660	 7.3892
 2.0650	 7.4155
 2.0640	 7.4821
 2.0630	 7.4779
 2.0620	 7.4557
 2.0610	 7.5074
 2.0600	 7.5082
 2.0590	 7.4999
 2.0580	 7.4863
 2.0570	 7.5236
 2.0560	 7.5159
 2.0550	 7.5624
 2.0540	 7.5828
 2.0530	 7.5314
 2.0520	 7.5097
 2.0510	 7.5636
 2.0500	 7.5068
 2.0490	 7.5452
 2.0480	 7.5524
 2.0470	 7.5329
 2.0460	 7.5564
 2.0450	 7.6693
 2.0440	 7.6664
 2.0430	 7.6087
 2.0420	 7.5712
 2.0410	 7.5870
 2.0400	 7.6191
 2.0390	 7.6772
 2.0380	 7.6106
 2.0370	 7.6902
 2.0360	 7.6700
 2.0350	 7.6485
 2.0340	 7.5953
 2.0330	 7.6645
 2.0320	 7.5994
 2.0310	 7.6227
 2.0300	 7.6079
 2.0290	 7.6326
 2.0280	 7.5609
 2.0270	 7.6125
 2.0260	 7.5855
 2.0250	 7.5811
 2.0240	 7.5128
 2.0230	 7.5631
 2.0220	 7.4674
 2.0210	 7.4710
 2.0200	 7.4259
 2.0190	 7.4166
 2.0180	 7.3569
 2.0170	 7.3049
 2.0160	 7.2626
 2.0150	 7.2540
 2.0140	 7.1926
 2.0130	 7.1520
 2.0120	 7.0320
 2.0110	 7.0912
 2.0100	 7.0001
 2.0090	 6.9593
 2.0080	 6.8734
 2.0070	 6.8668
 2.0060	 6.7598
 2.0050	 6.7392
 2.0040	 6.6129
 2.0030	 6.5884
 2.0020	 6.5364
 2.0010	 6.6035
 2.0000	 6.4827
 1.9990	 6.5433
 1.9980	 6.4486
 1.9970	 6.5046
 1.9960	 6.3841
 1.9950	 6.5153
 1.9940	 6.4577
 1.9930	 6.4314
 1.9920	 6.3912
 1.9910	 6.3819
 1.9900	 6.4170
 1.9890	 6.4605
 1.9880	 6.3508
 1.9870	 6.4589
 1.9860	 6.4538
 1.9850	 6.4840
 1.9840	 6.4505
 1.9830	 6.5032
 1.9820	 6.4261
 1.9810	 6.4806
 1.9800	 6.3214
 1.9790	 6.4080
 1.9780	 6.3190
 1.9770	 6.3443
 1.9760	 6.2418
 1.9750	 6.3742
 1.9740	 6.1970
 1.9730	 6.2847
 1.9720	 6.1541
 1.9710	 6.1789
 1.9700	 6.1170
 1.9690	 6.1105
 1.9680	 5.9638
 1.9670	 6.0731
 1.9660	 5.9558
 1.9650	 6.0445
 1.9640	 5.9905
 1.9630	 6.0561
 1.9620	 5.9188
 1.9610	 6.1007
 1.9600	 6.0203
 1.9590	 6.2219
 1.9580	 6.0799
 1.9570	 6.2704
 1.9560	 6.2090
 1.9550	 6.3662
 1.9540	 6.2976
 1.9530	 6.5329
 1.9520	 6.5038
 1.9510	 6.7259
 1.9500	 6.7003
 1.9490	 6.9812
 1.9480	 6.9139
 1.9470	 7.1688
 1.9460	 7.1658
 1.9450	 7.4204
 1.9440	 7.4112
 1.9430	 7.6334
 1.9420	 7.7331
 1.9410	 7.8302
 1.9400	 7.8831
 1.9390	 8.2067
 1.9380	 8.1711
 1.9370	 8.4361
 1.9360	 8.3978
 1.9350	 8.5915
 1.9340	 8.6304
 1.9330	 8.8914
 1.9320	 8.9763
 1.9310	 9.0647
 1.9300	 9.0650
 1.9290	 9.3683
 1.9280	 9.3679
 1.9270	 9.5938
 1.9260	 9.3529
 1.9250	 9.8635
 1.9240	 9.7950
 1.9230	 9.9592
 1.9220	 9.9930
 1.9210	10.1783
 1.9200	10.1267
 1.9190	10.3657
 1.9180	10.3769
 1.9170	10.5042
 1.9160	10.5426
 1.9150	10.7914
 1.9140	10.8231
 1.9130	10.8960
 1.9120	10.9201
 1.9110	11.0330
 1.9100	11.1130
 1.9090	11.2473
 1.9080	11.1825
 1.9070	11.3855
 1.9060	11.4317
 1.9050	11.4181
 1.9040	11.4164
 1.9030	11.7339
 1.9020	11.5894
 1.9010	11.7271
 1.9000	11.7233
 1.8990	11.8252
 1.8980	11.8709
 1.8970	11.9241
 1.8960	11.9678
 1.8950	12.0804
 1.8940	12.1164
 1.8930	12.2056
 1.8920	12.0614
 1.8910	12.2169
 1.8900	12.2566
 1.8890	12.2852
 1.8880	12.2957
 1.8870	12.3217
 1.8860	12.3515
 1.8850	12.4246
 1.8840	12.4213
 1.8830	12.4920
 1.8820	12.4492
 1.8810	12.4655
 1.8800	12.4965
 1.8790	12.5995
 1.8780	12.5545
 1.8770	12.5901
 1.8760	12.5558
 1.8750	12.6506
 1.8740	12.5418
 1.8730	12.6141
 1.8720	12.5794
 1.8710	12.7121
 1.8700	12.6310
 1.8690	12.7025
 1.8680	12.7137
 1.8670	12.7386
 1.8660	12.6461
 1.8650	12.7666
 1.8640	12.7439
 1.8630	12.7990
 1.8620	12.7873
 1.8610	12.8656
 1.8600	12.8286
 1.8590	12.8431
 1.8580	12.8077
 1.8570	12.9088
 1.8560	12.7825
 1.8550	12.8382
 1.8540	12.8344
 1.8530	12.8946
 1.8520	12.8252
 1.8510	12.9095
 1.8500	12.8531
 1.8490	12.8999
 1.8480	12.8520
 1.8470	12.8619
 1.8460	12.8178
 1.8450	12.9082
 1.8440	12.8564
 1.8430	12.8952
 1.8420	12.9026
 1.8410	12.9200
 1.8400	12.8890
 1.8390	12.8735
 1.8380	12.8113
 1.8370	12.8626
 1.8360	12.8762
 1.8350	12.9467
 1.8340	12.8660
 1.8330	12.9168
 1.8320	12.8891
 1.8310	12.9891
 1.8300	12.9000
 1.8290	12.9100
 1.8280	12.8923
 1.8270	13.0052
 1.8260	12.9957
 1.8250	12.9813
 1.8240	13.0001
 1.8230	13.0073
 1.8220	12.9696
 1.8210	12.9739
 1.8200	12.9404
 1.8190	12.9738
 1.8180	12.9774
 1.8170	13.0506
 1.8160	13.0761
 1.8150	13.0732
 1.8140	13.0495
 1.8130	13.0472
 1.8120	13.0371
 1.8110	13.1114
 1.8100	13.1552
 1.8090	13.1769
 1.8080	13.1403
 1.8070	13.1341
 1.8060	13.1738
 1.8050	13.1852
 1.8040	13.1842
 1.8030	13.2067
 1.8020	13.1833
 1.8010	13.1989
 1.8000	13.2356
 1.7990	13.2457
 1.7980	13.2622
 1.7970	13.2915
 1.7960	13.2858
 1.7950	13.3495
 1.7940	13.3285
 1.7930	13.3500
 1.7920	13.3875
 1.7910	13.3771
 1.7900	13.3830
 1.7890	13.4257
 1.7880	13.4191
 1.7870	13.4158
 1.7860	13.4826
 1.7850	13.4524
 1.7840	13.4329
 1.7830	13.4849
 1.7820	13.5089
 1.7810	13.5168
 1.7800	13.5243
 1.7790	13.5693
 1.7780	13.5888
 1.7770	13.6079
 1.7760	13.6752
 1.7750	13.6498
 1.7740	13.6394
 1.7730	13.6275
 1.7720	13.6603
 1.7710	13.7177
 1.7700	13.7941
 1.7690	13.7043
 1.7680	13.7296
 1.7670	13.8054
 1.7660	13.8139
 1.7650	13.8424
 1.7640	13.8723
 1.7630	13.8539
 1.7620	13.9124
 1.7610	13.9518
 1.7600	13.9960
 1.7590	13.9654
 1.7580	14.0508
 1.7570	13.9708
 1.7560	14.0007
 1.7550	14.0383
 1.7540	14.1237
 1.7530	14.0815
 1.7520	14.1204
 1.7510	14.1362
 1.7500	14.1916
 1.7490	14.2507
 1.7480	14.2860
 1.7470	14.2371
 1.7460	14.2795
 1.7450	14.2746
 1.7440	14.4240
 1.7430	14.4077
 1.7420	14.3823
 1.7410	14.3794
 1.7400	14.5005
 1.7390	14.4922
 1.7380	14.5011
 1.7370	14.4123
 1.7360	14.4998
 1.7350	14.5079
 1.7340	14.5631
 1.7330	14.6140
 1.7320	14.6693
 1.7310	14.5548
 1.7300	14.6960
 1.7290	14.6746
 1.7280	14.7555
 1.7270	14.7343
 1.7260	14.8071
 1.7250	14.8195
 1.7240	14.8605
 1.7230	14.8798
 1.7220	14.9165
 1.7210	14.9373
 1.7200	14.9973
 1.7190	15.0190
 1.7180	15.0041
 1.7170	15.0015
 1.7160	15.0836
 1.7150	15.1057
 1.7140	15.2029
 1.7130	15.1536
 1.7120	15.3002
 1.7110	15.2182
 1.7100	15.3295
 1.7090	15.3761
 1.7080	15.4268
 1.7070	15.4509
 1.7060	15.4542
 1.7050	15.4700
 1.7040	15.5711
 1.7030	15.5853
 1.7020	15.7162
 1.7010	15.6684
 1.7000	15.8028
 1.6990	15.8011
 1.6980	15.9041
 1.6970	15.9270
 1.6960	16.0438
 1.6950	16.0249
 1.6940	16.1039
 1.6930	16.1719
 1.6920	16.3315
 1.6910	16.2894
 1.6900	16.4640
 1.6890	16.4561
 1.6880	16.5076
 1.6870	16.4851
 1.6860	16.6124
 1.6850	16.7158
 1.6840	16.8382
 1.6830	16.8422
 1.6820	16.9187
 1.6810	16.9277
 1.6800	17.1169
 1.6790	17.1075
 1.6780	17.1929
 1.6770	17.1841
 1.6760	17.3988
 1.6750	17.3996
 1.6740	17.5368
 1.6730	17.5708
 1.6720	17.7252
 1.6710	17.6970
 1.6700	17.8565
 1.6690	18.0699
 1.6680	17.9340
 1.6670	18.1551
 1.6660	18.2137
 1.6650	18.1897
 1.6640	18.4592
 1.6630	18.4254
 1.6620	18.5649
 1.6610	18.6052
 1.6600	18.7418
 1.6590	18.7742
 1.6580	18.9718
 1.6570	19.0058
 1.6560	19.1759
 1.6550	19.1632
 1.6540	19.3545
 1.6530	19.3793
 1.6520	19.5449
 1.6510	19.5723
 1.6500	19.6751
 1.6490	19.6916
 1.6480	20.0371
 1.6470	19.9830
 1.6460	20.0849
 1.6450	20.0708
 1.6440	20.3470
 1.6430	20.3358
 1.6420	20.5875
 1.6410	20.4607
 1.6400	20.7462
 1.6390	20.8399
 1.6380	20.9959
 1.6370	20.9754
 1.6360	21.1611
 1.6350	21.2175
 1.6340	21.3349
 1.6330	21.3733
 1.6320	21.6404
 1.6310	21.5882
 1.6300	21.8189
 1.6290	21.8111
 1.6280	21.9665
 1.6270	22.0790
 1.6260	22.2191
 1.6250	22.3056
 1.6240	22.4883
 1.6230	22.5610
 1.6220	22.7933
 1.6210	22.6809
 1.6200	23.0095
 1.6190	22.9447
 1.6180	23.1317
 1.6170	23.2113
 1.6160	23.4440
 1.6150	23.4314
 1.6140	23.6558
 1.6130	23.6551
 1.6120	23.9327
 1.6110	23.8757
 1.6100	24.1726
 1.6090	24.2480
 1.6080	24.3899
 1.6070	24.4385
 1.6060	24.5605
 1.6050	24.6551
 1.6040	24.8831
 1.6030	24.9462
 1.6020	25.0902
 1.6010	25.1737
 1.6000	25.3396
 1.5990	25.3593
 1.5980	25.5077
 1.5970	25.6709
 1.5960	25.8279
 1.5950	25.8511
 1.5940	26.0202
 1.5930	26.2024
 1.5920	26.4059
 1.5910	26.4285
 1.5900	26.5833
 1.5890	26.6593
 1.5880	26.7940
 1.5870	26.8782
 1.5860	27.0203
 1.5850	27.1501
 1.5840	27.3844
 1.5830	27.4356
 1.5820	27.6249
 1.5810	27.6721
 1.5800	27.8608
 1.5790	27.9768
 1.5780	28.0972
 1.5770	28.1648
 1.5760	28.3502
 1.5750	28.4462
 1.5740	28.6342
 1.5730	28.6850
 1.5720	28.8649
 1.5710	28.9794
 1.5700	29.1423
 1.5690	29.2261
 1.5680	29.3194
 1.5670	29.4464
 1.5660	29.6566
 1.5650	29.6591
 1.5640	29.8284
 1.5630	29.8630
 1.5620	29.9860
 1.5610	30.1123
 1.5600	30.1577
 1.5590	30.2643
 1.5580	30.3801
 1.5570	30.4352
 1.5560	30.4982
 1.5550	30.5105
 1.5540	30.5916
 1.5530	30.6323
 1.5520	30.7215
 1.5510	30.6824
 1.5500	30.7160
 1.5490	30.6882
 1.5480	30.6825
 1.5470	30.5951
 1.5460	30.5263
 1.5450	30.4539
 1.5440	30.4111
 1.5430	30.3174
 1.5420	30.2385
 1.5410	30.0716
 1.5400	30.0119
 1.5390	29.9385
 1.5380	29.8176
 1.5370	29.7040
 1.5360	29.6430
 1.5350	29.5237
 1.5340	29.5149
 1.5330	29.5070
 1.5320	29.5200
 1.5310	29.5725
 1.5300	29.6678
 1.5290	29.6822
 1.5280	29.7932
 1.5270	29.9330
 1.5260	30.0425
 1.5250	30.1495
 1.5240	30.3302
 1.5230	30.4646
 1.5220	30.5777
 1.5210	30.7423
 1.5200	30.8821
 1.5190	31.0024
 1.5180	31.1427
 1.5170	31.2838
 1.5160	31.4286
 1.5150	31.4680
 1.5140	31.5800
 1.5130	31.7179
 1.5120	31.8144
 1.5110	31.8634
 1.5100	31.9219
 1.5090	31.9776
 1.5080	32.0289
 1.5070	32.0894
 1.5060	32.1701
 1.5050	32.1856
 1.5040	32.1546
 1.5030	32.1814
 1.5020	32.2393
 1.5010	32.2278
 1.5000	32.2321
 1.4990	32.2265
 1.4980	32.2040
 1.4970	32.1776
 1.4960	32.1642
 1.4950	32.1254
 1.4940	32.0654
 1.4930	32.0121
 1.4920	31.9094
 1.4910	31.8420
 1.4900	31.7692
 1.4890	31.6493
 1.4880	31.5189
 1.4870	31.4483
 1.4860	31.3037
 1.4850	31.1194
 1.4840	31.0049
 1.4830	30.9031
 1.4820	30.7374
 1.4810	30.5615
 1.4800	30.3883
 1.4790	30.2224
 1.4780	29.9940
 1.4770	29.8158
 1.4760	29.5609
 1.4750	29.3286
 1.4740	29.0341
 1.4730	28.7508
 1.4720	28.4319
 1.4710	28.0576
 1.4700	27.5574
 1.4690	27.0996
 1.4680	26.6975
 1.4670	26.3195
 1.4660	25.7830
 1.4650	25.3091
 1.4640	24.8524
 1.4630	24.5258
 1.4620	24.2023
 1.4610	23.9851
 1.4600	23.7214
 1.4590	23.5953
 1.4580	23.5091
 1.4570	23.5282
 1.4560	23.5673
 1.4550	23.7258
 1.4540	23.8941
 1.4530	24.2015
 1.4520	24.4906
 1.4510	24.8265
 1.4500	25.2205
 1.4490	25.6368
 1.4480	26.0745
 1.4470	26.6221
 1.4460	27.1246
 1.4450	27.7126
 1.4440	28.3126
 1.4430	28.9717
 1.4420	29.5080
 1.4410	30.1572
 1.4400	30.8086
 1.4390	31.4047
 1.4380	32.0482
 1.4370	32.6826
 1.4360	33.2610
 1.4350	33.8962
 1.4340	34.3557
 1.4330	34.9486
 1.4320	35.4678
 1.4310	35.9055
 1.4300	36.3337
 1.4290	36.8667
 1.4280	37.2242
 1.4270	37.6288
 1.4260	38.0179
 1.4250	38.4126
 1.4240	38.7409
 1.4230	39.1640
 1.4220	39.5119
 1.4210	39.9210
 1.4200	40.2757
 1.4190	40.7210
 1.4180	41.0620
 1.4170	41.4044
 1.4160	41.6667
 1.4150	42.1000
 1.4140	42.2839
 1.4130	42.6444
 1.4120	42.8918
 1.4110	43.2688
 1.4100	43.4761
 1.4090	43.7220
 1.4080	43.9639
 1.4070	44.2274
 1.4060	44.4278
 1.4050	44.6809
 1.4040	44.8337
 1.4030	45.1804
 1.4020	45.3232
 1.4010	45.4479
 1.4000	45.6033
 1.3990	45.8731
 1.3980	45.9107
 1.3970	46.2659
 1.3960	46.3123
 1.3950	46.4940
 1.3940	46.5625
 1.3930	46.7146
 1.3920	46.8157
 1.3910	47.0242
 1.3900	47.0271
 1.3890	47.1139
 1.3880	47.0884
 1.3870	47.2637
 1.3860	47.2462
 1.3850	47.3152
 1.3840	47.3002
 1.3830	47.4610
 1.3820	47.3797
 1.3810	47.4751
 1.3800	47.4727
 1.3790	47.5122
 1.3780	47.4547
 1.3770	47.6292
 1.3760	47.5638
 1.3750	47.6110
 1.3740	47.5991
 1.3730	47.6772
 1.3720	47.6193
 1.3710	47.6769
 1.3700	47.6793
 1.3690	47.8357
 1.3680	47.7770
 1.3670	47.8888
 1.3660	47.9894
 1.3650	48.1539
 1.3640	48.0863
 1.3630	48.3550
 1.3620	48.3140
 1.3610	48.4459
 1.3600	48.5747
 1.3590	48.7535
 1.3580	48.7069
 1.3570	48.9341
 1.3560	48.9855
 1.3550	48.9865
 1.3540	49.0243
 1.3530	49.1614
 1.3520	49.1063
 1.3510	49.2415
 1.3500	49.2866
 1.3490	49.4081
 1.3480	49.2620
 1.3470	49.3585
 1.3460	49.3117
 1.3450	49.4260
 1.3440	49.3791
 1.3430	49.4531
 1.3420	49.4132
 1.3410	49.5661
 1.3400	49.4880
 1.3390	49.5184
 1.3380	49.5363
 1.3370	49.5182
 1.3360	49.4846
 1.3350	49.6054
 1.3340	49.5166
 1.3330	49.6113
 1.3320	49.5709
 1.3310	49.6146
 1.3300	49.5182
 1.3290	49.5581
 1.3280	49.5186
 1.3270	49.5855
 1.3260	49.5966
 1.3250	49.6016
 1.3240	49.5601
 1.3230	49.6270
 1.3220	49.5315
 1.3210	49.5550
 1.3200	49.5588
 1.3190	49.5216
 1.3180	49.5038
 1.3170	49.5534
 1.3160	49.5018
 1.3150	49.5742
 1.3140	49.4949
 1.3130	49.4871
 1.3120	49.4938
 1.3110	49.5397
 1.3100	49.5199
 1.3090	49.5133
 1.3080	49.4480
 1.3070	49.5564
 1.3060	49.4841
 1.3050	49.5193
 1.3040	49.5739
 1.3030	49.6198
 1.3020	49.5733
 1.3010	49.6621
 1.3000	49.6470
 1.2990	49.6771
 1.2980	49.6884
 1.2970	49.7134
 1.2960	49.6645
 1.2950	49.7587
 1.2940	49.7793
 1.2930	49.7748
 1.2920	49.7709
 1.2910	49.7894
 1.2900	49.7833
 1.2890	49.8517
 1.2880	49.8372
 1.2870	49.9212
 1.2860	49.9050
 1.2850	49.9111
 1.2840	49.8327
 1.2830	49.8592
 1.2820	49.7881
 1.2810	49.8759
 1.2800	49.8903
 1.2790	49.8772
 1.2780	49.8143
 1.2770	49.8189
 1.2760	49.8076
 1.2750	49.9038
 1.2740	49.8419
 1.2730	49.8337
 1.2720	49.7722
 1.2710	49.8154
 1.2700	49.7665
 1.2690	49.8130
 1.2680	49.7679
 1.2670	49.7755
 1.2660	49.7690
 1.2650	49.7354
 1.2640	49.7050
 1.2630	49.7055
 1.2620	49.6703
 1.2610	49.5900
 1.2600	49.5785
 1.2590	49.5926
 1.2580	49.5631
 1.2570	49.5437
 1.2560	49.5263
 1.2550	49.5370
 1.2540	49.4427
 1.2530	49.4509
 1.2520	49.4113
 1.2510	49.3866
 1.2500	49.3269
 1.2490	49.3068
 1.2480	49.3039
 1.2470	49.2812
 1.2460	49.2360
 1.2450	49.2475
 1.2440	49.2170
 1.2430	49.2238
 1.2420	49.1962
 1.2410	49.1148
 1.2400	49.0477
 1.2390	49.0448
 1.2380	49.0345
 1.2370	48.9740
 1.2360	48.9734
 1.2350	49.0024
 1.2340	48.9426
 1.2330	48.8791
 1.2320	48.8439
 1.2310	48.7967
 1.2300	48.7473
 1.2290	48.7747
 1.2280	48.7083
 1.2270	48.6278
 1.2260	48.6100
 1.2250	48.5834
 1.2240	48.5817
 1.2230	48.5458
 1.2220	48.4234
 1.2210	48.3546
 1.2200	48.3147
 1.2190	48.2748
 1.2180	48.2557
 1.2170	48.2089
 1.2160	48.1672
 1.2150	48.1301
 1.2140	48.0544
 1.2130	48.0004
 1.2120	47.9274
 1.2110	47.8150
 1.2100	47.7375
 1.2090	47.7193
 1.2080	47.6685
 1.2070	47.5618
 1.2060	47.5123
 1.2050	47.4835
 1.2040	47.3874
 1.2030	47.3126
 1.2020	47.2836
 1.2010	47.2181
 1.2000	47.1392
 1.1990	47.0690
 1.1980	46.9817
 1.1970	46.9061
 1.1960	46.9036
 1.1950	46.8840
 1.1940	46.8767
 1.1930	46.8132
 1.1920	46.7485
 1.1910	46.7038
 1.1900	46.7425
 1.1890	46.8151
 1.1880	46.6926
 1.1870	46.7018
 1.1860	46.7745
 1.1850	46.7113
 1.1840	46.7374
 1.1830	46.7339
 1.1820	46.7870
 1.1810	46.8228
 1.1800	46.8645
 1.1790	46.8530
 1.1780	46.8907
 1.1770	46.8861
 1.1760	46.9111
 1.1750	46.8719
 1.1740	46.9684
 1.1730	46.9640
 1.1720	46.9934
 1.1710	47.0166
 1.1700	47.0249
 1.1690	46.9847
 1.1680	47.0135
 1.1670	46.9909
 1.1660	47.0286
 1.1650	47.0155
 1.1640	47.0360
 1.1630	46.9464
 1.1620	46.9363
 1.1610	46.9435
 1.1600	46.9943
 1.1590	46.8828
 1.1580	46.9288
 1.1570	46.8917
 1.1560	46.8450
 1.1550	46.7992
 1.1540	46.8432
 1.1530	46.8211
 1.1520	46.8522
 1.1510	46.7796
 1.1500	46.7904
 1.1490	46.7327
 1.1480	46.7029
 1.1470	46.6599
 1.1460	46.6583
 1.1450	46.6102
 1.1440	46.5345
 1.1430	46.5031
 1.1420	46.5974
 1.1410	46.5121
 1.1400	46.5052
 1.1390	46.4150
 1.1380	46.3901
 1.1370	46.3229
 1.1360	46.3633
 1.1350	46.2769
 1.1340	46.3277
 1.1330	46.2409
 1.1320	46.3229
 1.1310	46.2082
 1.1300	46.2727
 1.1290	46.1115
 1.1280	46.1205
 1.1270	46.1424
 1.1260	46.0115
 1.1250	46.0829
 1.1240	46.0961
 1.1230	45.9647
 1.1220	45.9638
 1.1210	45.9202
 1.1200	45.9257
 1.1190	45.8340
 1.1180	45.9072
 1.1170	45.7191
 1.1160	45.9009
 1.1150	45.7351
 1.1140	45.7265
 1.1130	45.7680
 1.1120	45.7109
 1.1110	45.5860
 1.1100	45.6390
 1.1090	45.6271
 1.1080	45.5360
 1.1070	45.5473
 1.1060	45.5445
 1.1050	45.4245
 1.1040	45.4513
 1.1030	45.5061
 1.1020	45.4710
 1.1010	45.3427
 1.1000	45.3639
 1.0990	45.2797
 1.0980	45.3133
 1.0970	45.2661
 1.0960	45.2848
 1.0950	45.2065
 1.0940	45.1960
 1.0930	45.1905
 1.0920	45.1234
 1.0910	45.0039
 1.0900	45.0580
 1.0890	45.0734
 1.0880	45.0637
 1.0870	44.9950
 1.0860	45.0699
 1.0850	44.9741
 1.0840	44.8694
 1.0830	44.8224
 1.0820	44.8551
 1.0810	44.8295
 1.0800	44.8755
 1.0790	44.7086
 1.0780	44.8318
 1.0770	44.6997
 1.0760	44.6735
 1.0750	44.6787
 1.0740	44.6502
 1.0730	44.6304
 1.0720	44.6475
 1.0710	44.5849
 1.0700	44.4672
 1.0690	44.4918
 1.0680	44.4900
 1.0670	44.4629
 1.0660	44.4558
 1.0650	44.4109
 1.0640	44.3857
 1.0630	44.3425
 1.0620	44.3609
 1.0610	44.2599
 1.0600	44.2411
 1.0590	44.2222
 1.0580	44.2450
 1.0570	44.1720
 1.0560	44.1745
 1.0550	44.0287
 1.0540	44.0642
 1.0530	44.0288
 1.0520	44.0363
 1.0510	43.8978
 1.0500	43.9868
 1.0490	43.8172
 1.0480	43.9052
 1.0470	43.8141
 1.0460	43.8252
 1.0450	43.7586
 1.0440	43.7412
 1.0430	43.6429
 1.0420	43.6386
 1.0410	43.6172
 1.0400	43.5245
 1.0390	43.4636
 1.0380	43.5018
 1.0370	43.4556
 1.0360	43.4141
 1.0350	43.2761
 1.0340	43.2966
 1.0330	43.2524
 1.0320	43.2658
 1.0310	43.1627
 1.0300	43.0846
 1.0290	43.0371
 1.0280	43.0449
 1.0270	42.9362
 1.0260	43.0010
 1.0250	42.8755
 1.0240	42.8601
 1.0230	42.7560
 1.0220	42.7916
 1.0210	42.6113
 1.0200	42.5545
 1.0190	42.4984
 1.0180	42.5414
 1.0170	42.3733
 1.0160	42.3104
 1.0150	42.2585
 1.0140	42.2371
 1.0130	42.1664
 1.0120	42.1462
 1.0110	42.0083
 1.0100	41.9933
 1.0090	41.9466
 1.0080	41.8937
 1.0070	41.7667
 1.0060	41.7239
 1.0050	41.6196
 1.0040	41.5981
 1.0030	41.5045
 1.0020	41.4665
 1.0010	41.3577
 1.0000	41.3004
 0.9990	41.1692
 0.9980	41.1274
 0.9970	41.0382
 0.9960	41.0421
 0.9950	40.9398
 0.9940	40.8696
 0.9930	40.8732
 0.9920	40.8511
 0.9910	40.7640
 0.9900	40.7681
 0.9890	40.6906
 0.9880	40.8040
 0.9870	40.7295
 0.9860	40.6912
 0.9850	40.6853
 0.9840	40.6940
 0.9830	40.6957
 0.9820	40.7505
 0.9810	40.6720
 0.9800	40.6895
 0.9790	40.6452
 0.9780	40.5853
 0.9770	40.5772
 0.9760	40.5713
 0.9750	40.5165
 0.9740	40.5151
 0.9730	40.4550
 0.9720	40.3971
 0.9710	40.3706
 0.9700	40.3979
 0.9690	40.2952
 0.9680	40.3322
 0.9670	40.2673
 0.9660	40.2082
 0.9650	40.1276
 0.9640	40.0975
 0.9630	40.0279
 0.9620	39.9832
 0.9610	39.9355
 0.9600	39.8790
 0.9590	39.7949
 0.9580	39.8037
 0.9570	39.7526
 0.9560	39.6870
 0.9550	39.6171
 0.9540	39.5709
 0.9530	39.4659
 0.9520	39.4370
 0.9510	39.3416
 0.9500	39.1869
 0.9490	39.1698
 0.9480	39.1656
 0.9470	39.0948
 0.9460	39.0554
 0.9450	38.9644
 0.9440	38.8822
 0.9430	38.8032
 0.9420	38.7604
 0.9410	38.7116
 0.9400	38.6381
 0.9390	38.5696
 0.9380	38.4869
 0.9370	38.4442
 0.9360	38.3786
 0.9350	38.2607
 0.9340	38.2174
 0.9330	38.1892
 0.9320	38.0982
 0.9310	37.9855
 0.9300	37.9553
 0.9290	37.9395
 0.9280	37.8438
 0.9270	37.7466
 0.9260	37.6559
 0.9250	37.6133
 0.9240	37.5664
 0.9230	37.4508
 0.9220	37.3732
 0.9210	37.3622
 0.9200	37.3039
 0.9190	37.2242
 0.9180	37.1526
 0.9170	37.1002
 0.9160	37.0091
 0.9150	36.9657
 0.9140	36.8996
 0.9130	36.8443
 0.9120	36.7156
 0.9110	36.6305
 0.9100	36.5607
 0.9090	36.5228
 0.9080	36.4394
 0.9070	36.3442
 0.9060	36.2508
 0.9050	36.2693
 0.9040	36.1565
 0.9030	36.1335
 0.9020	36.0603
 0.9010	35.9935
 0.9000	35.9020
 0.8990	35.8743
 0.8980	35.8103
 0.8970	35.7523
 0.8960	35.7150
 0.8950	35.5664
 0.8940	35.5142
 0.8930	35.4743
 0.8920	35.3947
 0.8910	35.3478
 0.8900	35.2481
 0.8890	35.2120
 0.8880	35.1342
 0.8870	35.0850
 0.8860	35.0142
 0.8850	34.9620
 0.8840	34.8817
 0.8830	34.8558
 0.8820	34.7789
 0.8810	34.7768
 0.8800	34.6952
 0.8790	34.6058
 0.8780	34.5377
 0.8770	34.5279
 0.8760	34.4620
 0.8750	34.4614
 0.8740	34.3470
 0.8730	34.3630
 0.8720	34.2568
 0.8710	34.1737
 0.8700	34.1140
 0.8690	34.0805
 0.8680	34.0428
 0.8670	33.9819
 0.8660	33.9007
 0.8650	33.9203
 0.8640	33.8233
 0.8630	33.8328
 0.8620	33.7295
 0.8610	33.7157
 0.8600	33.9308
 0.8590	33.9034
 0.8580	33.7248
 0.8570	33.6878
 0.8560	33.7345
 0.8550	33.6692
 0.8540	33.5104
 0.8530	33.6468
 0.8520	33.5600
 0.8510	33.4478
 0.8500	33.4832
 0.8490	33.4127
 0.8480	33.3347
 0.8470	33.2974
 0.8460	33.2846
 0.8450	33.2444
 0.8440	33.1640
 0.8430	33.2208
 0.8420	33.1559
 0.8410	33.0739
 0.8400	33.1034
 0.8390	33.0647
 0.8380	33.0170
 0.8370	32.9740
 0.8360	32.9742
 0.8350	32.9443
 0.8340	32.8659
 0.8330	32.9082
 0.8320	32.8839
 0.8310	32.8116
 0.8300	32.8143
 0.8290	32.8049
 0.8280	32.7555
 0.8270	32.7253
 0.8260	32.7659
 0.8250	32.7075
 0.8240	32.6700
 0.8230	32.7298
 0.8220	32.6740
 0.8210	32.6387
 0.8200	32.6665
 0.8190	32.6299
 0.8180	32.5781
 0.8170	32.6213
 0.8160	32.6172
 0.8150	32.5814
 0.8140	32.5714
 0.8130	32.6381
 0.8120	32.5702
 0.8110	32.5452
 0.8100	32.6122
 0.8090	32.5941
 0.8080	32.5621
 0.8070	32.6231
 0.8060	32.6006
 0.8050	32.5680
 0.8040	32.6258
 0.8030	32.6174
 0.8020	32.6032
 0.8010	32.6375
 0.8000	32.6537
 0.7990	32.6396
 0.7980	32.6500
 0.7970	32.6826
 0.7960	32.6899
 0.7950	32.6807
 0.7940	32.7216
 0.7930	32.7136
 0.7920	32.7224
 0.7910	32.7723
 0.7900	32.7833
 0.7890	32.8057
 0.7880	32.8276
 0.7870	32.8680
 0.7860	32.8712
 0.7850	32.9197
 0.7840	32.9752
 0.7830	32.9539
 0.7820	32.9911
 0.7810	33.0559
 0.7800	33.0615
 0.7790	33.0994
 0.7780	33.1314
 0.7770	33.1909
 0.7760	33.2194
 0.7750	33.2439
 0.7740	33.2632
 0.7730	33.3104
 0.7720	33.3419
 0.7710	33.3677
 0.7700	33.4301
 0.7690	33.4936
 0.7680	33.4971
 0.7670	33.5282
 0.7660	33.6271
 0.7650	33.6437
 0.7640	33.6777
 0.7630	33.7472
 0.7620	33.7846
 0.7610	33.8238
 0.7600	33.8794
 0.7590	33.9172
 0.7580	33.9739
 0.7570	34.0108
 0.7560	34.0696
 0.7550	34.0950
 0.7540	34.1379
 0.7530	34.2230
 0.7520	34.2594
 0.7510	34.2979
 0.7500	34.3536
 0.7490	34.3997
 0.7480	34.4399
 0.7470	34.4827
 0.7460	34.5368
 0.7450	34.5677
 0.7440	34.6198
 0.7430	34.6642
 0.7420	34.6956
 0.7410	34.7518
 0.7400	34.7944
 0.7390	34.8162
 0.7380	34.8371
 0.7370	34.8891
 0.7360	34.9119
 0.7350	34.9204
 0.7340	34.9491
 0.7330	34.9936
 0.7320	34.9993
 0.7310	35.0399
 0.7300	35.0672
 0.7290	35.0874
 0.7280	35.1101
 0.7270	35.1244
 0.7260	35.1389
 0.7250	35.1494
 0.7240	35.1863
 0.7230	35.1873
 0.7220	35.1789
 0.7210	35.2079
 0.7200	35.2268
 0.7190	35.2139
 0.7180	35.2249
 0.7170	35.2272
 0.7160	35.2069
 0.7150	35.2130
 0.7140	35.2087
 0.7130	35.1834
 0.7120	35.1632
 0.7110	35.1596
 0.7100	35.1422
 0.7090	35.1270
 0.7080	35.0921
 0.7070	35.0658
 0.7060	35.0290
 0.7050	34.9857
 0.7040	34.9629
 0.7030	34.9126
 0.7020	34.8671
 0.7010	34.8299
 0.7000	34.7807
 0.6990	34.7313
 0.6980	34.6758
 0.6970	34.6051
 0.6960	34.5388
 0.6950	34.4751
 0.6940	34.4204
 0.6930	34.3413
 0.6920	34.2555
 0.6910	34.1895
 0.6900	34.0945
 0.6890	33.9975
 0.6880	33.9146
 0.6870	33.8320
 0.6860	33.7245
 0.6850	33.6324
 0.6840	33.5530
 0.6830	33.4499
 0.6820	33.3451
 0.6810	33.2292
 0.6800	33.1063
 0.6790	32.9905
 0.6780	32.8773
 0.6770	32.7473
 0.6760	32.6108
 0.6750	32.4757
 0.6740	32.3429
 0.6730	32.2027
 0.6720	32.0615
 0.6710	31.9196
 0.6700	31.7736
 0.6690	31.6269
 0.6680	31.4788
 0.6670	31.3213
 0.6660	31.1710
 0.6650	31.0239
 0.6640	30.8672
 0.6630	30.7128
 0.6620	30.5555
 0.6610	30.3964
 0.6600	30.2297
 0.6590	30.0750
 0.6580	29.9127
 0.6570	29.7387
 0.6560	29.5821
 0.6550	29.4218
 0.6540	29.2591
 0.6530	29.0970
 0.6520	28.9308
 0.6510	28.7659
 0.6500	28.5972
 0.6490	28.4307
 0.6480	28.2763
 0.6470	28.1098
 0.6460	27.9497
 0.6450	27.7915
 0.6440	27.6214
 0.6430	27.4696
 0.6420	27.3135
 0.6410	27.1526
 0.6400	26.9945
 0.6390	26.8369
 0.6380	26.6883
 0.6370	26.5393
 0.6360	26.3869
 0.6350	26.2333
 0.6340	26.0865
 0.6330	25.9431
 0.6320	25.7980
 0.6310	25.6566
 0.6300	25.5428
 0.6290	25.4094
 0.6280	25.2486
 0.6270	25.1058
 0.6260	24.9682
 0.6250	24.8371
 0.6240	24.7123
 0.6230	24.5817
 0.6220	24.4520
 0.6210	24.3367
 0.6200	24.2235
 0.6190	24.1040
 0.6180	23.9856
 0.6170	23.8736
 0.6160	23.7706
 0.6150	23.6651
 0.6140	23.5545
 0.6130	23.4454
 0.6120	23.3493
 0.6110	23.2617
 0.6100	23.1595
 0.6090	23.0628
 0.6080	22.9808
 0.6070	22.8899
 0.6060	22.8007
 0.6050	22.7194
 0.6040	22.6376
 0.6030	22.5543
 0.6020	22.4856
 0.6010	22.4118
 0.6000	22.3301
 0.5990	22.2731
 0.5980	22.2107
 0.5970	22.1441
 0.5960	22.0821
 0.5950	22.0198
 0.5940	21.9582
 0.5930	21.8989
 0.5920	21.8409
 0.5910	21.7844
 0.5900	21.7284
 0.5890	21.6758
 0.5880	21.6243
 0.5870	21.5771
 0.5860	21.5277
 0.5850	21.4815
 0.5840	21.4369
 0.5830	21.3935
 0.5820	21.3551
 0.5810	21.3217
 0.5800	21.2857
 0.5790	21.2451
 0.5780	21.2028
 0.5770	21.1708
 0.5760	21.1389
 0.5750	21.1062
 0.5740	21.0757
 0.5730	21.0435
 0.5720	21.0168
 0.5710	20.9867
 0.5700	20.9650
 0.5690	20.9414
 0.5680	20.9096
 0.5670	20.8913
 0.5660	20.8725
 0.5650	20.8503
 0.5640	20.8354
 0.5630	20.8185
 0.5620	20.8012
 0.5610	20.7718
 0.5600	20.7582
 0.5590	20.7419
 0.5580	20.7268
 0.5570	20.7201
 0.5560	20.7117
 0.5550	20.7067
 0.5540	20.6937
 0.5530	20.6873
 0.5520	20.6809
 0.5510	20.6781
 0.5500	20.6832
 0.5490	20.6747
 0.5480	20.6723
 0.5470	20.6573
 0.5460	20.6463
 0.5450	20.6423
 0.5440	20.6363
 0.5430	20.6333
 0.5420	20.6259
 0.5410	20.6165
 0.5400	20.6084
 0.5390	20.5988
 0.5380	20.5907
 0.5370	20.5810
 0.5360	20.5682
 0.5350	20.5491
 0.5340	20.5356
 0.5330	20.5153
 0.5320	20.4979
 0.5310	20.4806
 0.5300	20.4597
 0.5290	20.4341
 0.5280	20.4011
 0.5270	20.3688
 0.5260	20.3364
 0.5250	20.2989
 0.5240	20.2662
 0.5230	20.2168
 0.5220	20.1658
 0.5210	20.1154
 0.5200	20.0587
 0.5190	20.0042
 0.5180	19.9392
 0.5170	19.8761
 0.5160	19.8013
 0.5150	19.7189
 0.5140	19.6439
 0.5130	19.5573
 0.5120	19.4602
 0.5110	19.3655
 0.5100	19.2626
 0.5090	19.1426
 0.5080	19.0322
 0.5070	18.9135
 0.5060	18.7826
 0.5050	18.6481
 0.5040	18.5094
 0.5030	18.3585
 0.5020	18.2132
 0.5010	18.0531
 0.5000	17.8939
 0.4990	17.7449
 0.4980	17.5759
 0.4970	17.3958
 0.4960	17.2115
 0.4950	17.0312
 0.4940	16.8396
 0.4930	16.6453
 0.4920	16.4517
 0.4910	16.2565
 0.4900	16.0622
 0.4890	15.8630
 0.4880	15.6692
 0.4870	15.4804
 0.4860	15.2912
 0.4850	15.1117
 0.4840	14.9325
 0.4830	14.7556
 0.4820	14.5935
 0.4810	14.4478
 0.4800	14.3023
 0.4790	14.1642
 0.4780	14.0318
 0.4770	13.8997
 0.4760	13.7889
 0.4750	13.6764
 0.4740	13.5663
 0.4730	13.4621
 0.4720	13.3683
 0.4710	13.2825
 0.4700	13.1942
 0.4690	13.1149
 0.4680	13.0336
 0.4670	12.9658
 0.4660	12.8908
 0.4650	12.8263
 0.4640	12.7627
 0.4630	12.7013
 0.4620	12.6400
 0.4610	12.5807
 0.4600	12.5257
 0.4590	12.4760
 0.4580	12.4185
 0.4570	12.3636
 0.4560	12.3042
 0.4550	12.2421
 0.4540	12.1704
 0.4530	12.0874
 0.4520	12.0107
 0.4510	11.9113
 0.4500	11.8031
 0.4490	11.6933
 0.4480	11.5558
 0.4470	11.4080
 0.4460	11.2487
 0.4450	11.0664
 0.4440	10.8534
 0.4430	10.6313
 0.4420	10.3671
 0.4410	10.0640
 0.4400	 9.7126
 0.4390	 9.3255
 0.4380	 8.9664
 0.4370	 8.6618
 0.4360	 8.4661
 0.4350	 8.3919
 0.4340	 8.4065
 0.4330	 8.4619
 0.4320	 8.5173
 0.4310	 8.5528
 0.4300	 8.5491
 0.4290	 8.5488
 0.4280	 8.5601
 0.4270	 8.5984
 0.4260	 8.6434
 0.4250	 8.7045
 0.4240	 8.7660
 0.4230	 8.8218
 0.4220	 8.8677
 0.4210	 8.9083
 0.4200	 8.9395
 0.4190	 8.9710
 0.4180	 9.0022
 0.4170	 9.0213
 0.4160	 9.0280
 0.4150	 9.0324
 0.4140	 9.0347
 0.4130	 9.0298
 0.4120	 9.0200
 0.4110	 9.0052
 0.4100	 8.9984
 0.4090	 8.9841
 0.4080	 8.9586
 0.4070	 8.9353
 0.4060	 8.9087
 0.4050	 8.8809
 0.4040	 8.8445
 0.4030	 8.7991
 0.4020	 8.7532
 0.4010	 8.7028
 0.4000	 8.6500
