Name: Malachite Cu_2(CO_3)(OH)_2
Type: Mineral
Class: Carbonate
Subclass: None
Particle Size: Medium
Sample No.: C-7A
Owner: JPL
Wavelength Range: VSWIR
Origin: USA, California, San Bernadino County, Near Valley Wells
Collection Date: N/A
Description: Particle size was 45-125um.Collected by Burminco Original ASTER Spectral Library name was jpl.beckman.mineral.carbonate.none.medium.c07a.spectrum.txt
Measurement: Hemispherical reflectance
First Column: X
Second Column: Y
X Units: Wavelength (micrometers)
Y Units:Reflectance (percent)
First X Value:  0.4000
Last X Value:  2.5000
Number of X Values: 826
Additional Information: mineral.carbonate.none.medium.vswir.c-7a.jpl.beckman.ancillary.txt

 0.4000	15.6500
 0.4010	16.7400
 0.4020	17.1400
 0.4030	17.5500
 0.4040	18.0200
 0.4050	18.4100
 0.4060	18.8200
 0.4070	19.2600
 0.4080	19.6400
 0.4090	20.0900
 0.4100	20.4500
 0.4110	20.8100
 0.4120	21.2200
 0.4130	21.6100
 0.4140	22.0400
 0.4150	22.2600
 0.4160	22.6800
 0.4170	23.0800
 0.4180	23.4100
 0.4190	23.6800
 0.4200	23.8900
 0.4210	24.2600
 0.4220	24.6000
 0.4230	24.9000
 0.4240	25.1300
 0.4250	25.3200
 0.4260	25.7000
 0.4270	25.9900
 0.4280	26.2300
 0.4290	26.5700
 0.4300	26.8400
 0.4310	27.0100
 0.4320	27.2500
 0.4330	27.5500
 0.4340	27.8800
 0.4350	28.0200
 0.4360	28.1800
 0.4370	28.5400
 0.4380	28.8500
 0.4390	29.1200
 0.4400	29.3000
 0.4410	29.5400
 0.4420	29.8200
 0.4430	30.1200
 0.4440	30.4600
 0.4450	30.6500
 0.4460	30.8300
 0.4470	31.1500
 0.4480	31.3900
 0.4490	31.7900
 0.4500	32.0400
 0.4510	32.2200
 0.4520	32.5700
 0.4530	32.8500
 0.4540	33.1900
 0.4550	33.5200
 0.4560	33.7000
 0.4570	34.1000
 0.4580	34.3700
 0.4590	34.7000
 0.4600	34.8500
 0.4610	35.3900
 0.4620	35.8000
 0.4630	36.0300
 0.4640	36.3900
 0.4650	36.8100
 0.4660	37.1400
 0.4670	37.4400
 0.4680	37.7700
 0.4690	38.0800
 0.4700	38.5000
 0.4710	38.8400
 0.4720	39.2800
 0.4730	39.6100
 0.4740	39.9300
 0.4750	40.3800
 0.4760	40.6600
 0.4770	41.0000
 0.4780	41.2700
 0.4790	41.6000
 0.4800	41.9600
 0.4810	42.3300
 0.4820	42.6200
 0.4830	42.9200
 0.4840	43.2000
 0.4850	43.5500
 0.4860	43.8300
 0.4870	44.1500
 0.4880	44.4300
 0.4890	44.5800
 0.4900	44.8700
 0.4910	45.1700
 0.4920	45.4700
 0.4930	45.7400
 0.4940	46.0100
 0.4950	46.2200
 0.4960	46.4200
 0.4970	46.6500
 0.4980	46.8600
 0.4990	47.1000
 0.5000	47.2900
 0.5010	47.4400
 0.5020	47.6400
 0.5030	47.9600
 0.5040	48.0200
 0.5050	48.2000
 0.5060	48.4000
 0.5070	48.5700
 0.5080	48.6600
 0.5090	48.7200
 0.5100	48.9200
 0.5110	48.9200
 0.5120	48.9800
 0.5130	49.0600
 0.5140	49.1800
 0.5150	49.2900
 0.5160	49.2900
 0.5170	49.3200
 0.5180	49.3900
 0.5190	49.3900
 0.5200	49.2700
 0.5210	49.3000
 0.5220	49.3000
 0.5230	49.3000
 0.5240	49.1800
 0.5250	49.1500
 0.5260	49.0600
 0.5270	48.8900
 0.5280	48.8100
 0.5290	48.6600
 0.5300	48.5700
 0.5310	48.3700
 0.5320	48.1400
 0.5330	48.0200
 0.5340	47.7600
 0.5350	47.5300
 0.5360	47.3600
 0.5370	47.1600
 0.5380	46.8000
 0.5390	46.5700
 0.5400	46.3300
 0.5410	46.0700
 0.5420	45.6900
 0.5430	45.4300
 0.5440	45.0800
 0.5450	44.7100
 0.5460	44.3000
 0.5470	43.8800
 0.5480	43.5900
 0.5490	43.1900
 0.5500	42.7800
 0.5510	42.3800
 0.5520	41.9800
 0.5530	41.5700
 0.5540	41.0300
 0.5550	40.5400
 0.5560	40.1600
 0.5570	39.7700
 0.5580	39.4200
 0.5590	39.0700
 0.5600	38.9700
 0.5610	38.0100
 0.5620	37.4600
 0.5630	37.0300
 0.5640	36.5400
 0.5650	36.0200
 0.5660	35.5000
 0.5670	34.8900
 0.5680	34.5200
 0.5690	34.0300
 0.5700	33.5400
 0.5710	33.0200
 0.5720	32.3900
 0.5730	31.9000
 0.5740	31.4300
 0.5750	31.0000
 0.5760	30.5900
 0.5770	29.9500
 0.5780	29.5300
 0.5790	29.1200
 0.5800	28.6900
 0.5810	28.1900
 0.5820	27.5900
 0.5830	27.2600
 0.5840	26.8600
 0.5850	26.3900
 0.5860	25.9600
 0.5870	25.3900
 0.5880	25.0400
 0.5890	24.6500
 0.5900	24.3300
 0.5910	23.8800
 0.5920	23.4100
 0.5930	23.0200
 0.5940	22.5900
 0.5950	22.2500
 0.5960	21.9200
 0.5970	21.4900
 0.5980	21.1700
 0.5990	20.8300
 0.6000	20.6100
 0.6010	20.2300
 0.6020	19.7800
 0.6030	19.5100
 0.6040	19.1100
 0.6050	18.9300
 0.6060	18.5200
 0.6070	18.1800
 0.6080	17.9200
 0.6090	17.6000
 0.6100	17.3600
 0.6110	17.0100
 0.6120	16.7200
 0.6130	16.5300
 0.6140	16.1100
 0.6150	15.8900
 0.6160	15.6200
 0.6170	15.3400
 0.6180	15.1900
 0.6190	14.8800
 0.6200	14.6500
 0.6210	14.4000
 0.6220	14.1400
 0.6230	13.9700
 0.6240	13.6300
 0.6250	13.4600
 0.6260	13.2700
 0.6270	13.0200
 0.6280	12.8700
 0.6290	12.6500
 0.6300	12.5600
 0.6310	12.3500
 0.6320	12.0500
 0.6330	11.9400
 0.6340	11.7300
 0.6350	11.5600
 0.6360	11.3900
 0.6370	11.2300
 0.6380	11.1000
 0.6390	10.8600
 0.6400	10.7700
 0.6410	10.7100
 0.6420	10.4300
 0.6430	10.2700
 0.6440	10.1600
 0.6450	10.0200
 0.6460	10.0000
 0.6470	 9.7600
 0.6480	 9.6500
 0.6490	 9.4900
 0.6500	 9.3700
 0.6510	 9.2700
 0.6520	 9.1300
 0.6530	 9.0900
 0.6540	 8.9200
 0.6550	 8.7700
 0.6560	 8.7200
 0.6570	 8.5900
 0.6580	 8.5300
 0.6590	 8.3900
 0.6600	 8.2200
 0.6610	 8.2200
 0.6620	 8.0600
 0.6630	 8.0500
 0.6640	 7.8700
 0.6650	 7.7500
 0.6660	 7.7500
 0.6670	 7.5900
 0.6680	 7.5500
 0.6690	 7.4800
 0.6700	 7.3700
 0.6710	 7.3100
 0.6720	 7.3000
 0.6730	 7.2500
 0.6740	 7.1300
 0.6750	 7.0800
 0.6760	 7.0800
 0.6770	 6.9000
 0.6780	 6.8400
 0.6790	 6.8400
 0.6800	 6.7900
 0.6810	 6.6900
 0.6820	 6.5800
 0.6830	 6.5700
 0.6840	 6.6700
 0.6850	 6.4800
 0.6860	 6.4200
 0.6870	 6.3800
 0.6880	 6.4300
 0.6890	 6.4300
 0.6900	 6.2000
 0.6910	 6.2100
 0.6920	 6.1000
 0.6930	 6.1100
 0.6940	 6.1600
 0.6950	 6.0300
 0.6960	 5.9700
 0.6970	 5.9200
 0.6980	 5.9400
 0.6990	 5.9800
 0.7000	 5.8000
 0.7010	 5.8400
 0.7020	 5.7000
 0.7030	 5.6200
 0.7040	 5.6800
 0.7050	 5.5600
 0.7060	 5.5800
 0.7070	 5.5100
 0.7080	 5.5600
 0.7090	 5.4400
 0.7100	 5.4400
 0.7110	 5.4500
 0.7120	 5.4000
 0.7130	 5.4100
 0.7140	 5.3500
 0.7150	 5.2800
 0.7160	 5.3300
 0.7170	 5.2800
 0.7180	 5.2200
 0.7190	 5.2200
 0.7200	 5.2200
 0.7210	 5.1600
 0.7220	 5.1200
 0.7230	 5.1200
 0.7240	 5.1100
 0.7250	 5.0400
 0.7260	 5.0400
 0.7270	 5.0400
 0.7280	 5.0500
 0.7290	 4.9900
 0.7300	 4.9300
 0.7310	 4.9400
 0.7320	 5.0000
 0.7330	 4.8300
 0.7340	 4.9400
 0.7350	 4.9300
 0.7360	 4.9300
 0.7370	 4.8800
 0.7380	 4.8200
 0.7390	 4.9300
 0.7400	 4.9300
 0.7410	 4.8100
 0.7420	 4.8200
 0.7430	 4.8200
 0.7440	 4.8700
 0.7450	 4.8700
 0.7460	 4.8000
 0.7470	 4.8200
 0.7480	 4.7500
 0.7490	 4.8000
 0.7500	 4.8100
 0.7510	 4.8100
 0.7520	 4.7700
 0.7530	 4.7600
 0.7540	 4.8200
 0.7550	 4.7600
 0.7560	 4.8200
 0.7570	 4.7600
 0.7580	 4.6900
 0.7590	 4.7500
 0.7600	 4.7600
 0.7610	 4.7700
 0.7620	 4.7600
 0.7630	 4.7500
 0.7640	 4.7400
 0.7650	 4.6900
 0.7660	 4.7400
 0.7670	 4.7500
 0.7680	 4.6900
 0.7690	 4.7500
 0.7700	 4.8100
 0.7710	 4.8100
 0.7720	 4.8000
 0.7730	 4.7400
 0.7740	 4.8700
 0.7750	 4.8600
 0.7760	 4.7500
 0.7770	 4.7500
 0.7780	 4.8600
 0.7790	 4.8100
 0.7800	 4.7500
 0.7810	 4.8000
 0.7820	 4.9200
 0.7830	 4.9100
 0.7840	 4.8100
 0.7850	 4.8600
 0.7860	 4.9100
 0.7870	 4.9700
 0.7880	 4.8700
 0.7890	 4.8600
 0.7900	 4.8500
 0.7910	 4.9000
 0.7920	 4.9100
 0.7930	 4.9600
 0.7940	 4.9700
 0.7950	 5.1400
 0.7960	 5.1500
 0.7970	 5.2200
 0.7980	 5.1600
 0.7990	 5.1100
 0.8000	 5.4100
 0.8040	 5.4800
 0.8080	 5.4900
 0.8120	 5.5600
 0.8160	 5.6100
 0.8200	 5.5600
 0.8240	 5.6100
 0.8280	 5.6100
 0.8320	 5.7400
 0.8360	 5.7500
 0.8400	 5.8000
 0.8440	 5.8700
 0.8480	 5.9200
 0.8520	 6.0400
 0.8560	 6.1100
 0.8600	 6.1200
 0.8640	 6.2800
 0.8680	 6.3100
 0.8720	 6.4200
 0.8760	 6.4700
 0.8800	 6.5400
 0.8840	 6.7100
 0.8880	 6.7800
 0.8920	 6.8400
 0.8960	 7.0200
 0.9000	 7.1900
 0.9040	 7.3600
 0.9080	 7.4400
 0.9120	 7.6600
 0.9160	 7.7700
 0.9200	 7.9600
 0.9240	 8.0300
 0.9280	 8.3000
 0.9320	 8.4400
 0.9360	 8.6000
 0.9400	 8.8200
 0.9440	 9.0000
 0.9480	 9.2100
 0.9520	 9.4100
 0.9560	 9.5600
 0.9600	 9.6900
 0.9640	 9.9600
 0.9680	10.1700
 0.9720	10.4000
 0.9760	10.6700
 0.9800	10.8100
 0.9840	11.0300
 0.9880	11.2200
 0.9920	11.4600
 0.9960	11.7300
 1.0000	11.7600
 1.0040	12.1200
 1.0080	12.2700
 1.0120	12.5000
 1.0160	12.7400
 1.0200	12.8600
 1.0240	13.0600
 1.0280	13.2200
 1.0320	13.4400
 1.0360	13.6400
 1.0400	13.7300
 1.0440	13.8900
 1.0480	14.0900
 1.0520	14.2300
 1.0560	14.3300
 1.0600	14.4000
 1.0640	14.5900
 1.0680	14.6600
 1.0720	14.7900
 1.0760	14.9400
 1.0800	14.9700
 1.0840	15.0800
 1.0880	15.2100
 1.0920	15.2400
 1.0960	15.3500
 1.1000	15.3600
 1.1040	15.4700
 1.1080	15.5200
 1.1120	15.5300
 1.1160	15.5500
 1.1200	15.6700
 1.1240	15.7200
 1.1280	15.7500
 1.1320	15.8000
 1.1360	15.7700
 1.1400	15.8000
 1.1440	15.8500
 1.1480	15.8800
 1.1520	15.9300
 1.1560	15.9200
 1.1600	15.9700
 1.1640	16.0800
 1.1680	16.1500
 1.1720	16.1400
 1.1760	16.1800
 1.1800	16.2600
 1.1840	16.3500
 1.1880	16.3600
 1.1920	16.3900
 1.1960	16.4700
 1.2000	16.4900
 1.2040	16.5100
 1.2080	16.5500
 1.2120	16.5800
 1.2160	16.7000
 1.2200	16.7700
 1.2240	16.8200
 1.2280	16.8700
 1.2320	16.9300
 1.2360	16.9800
 1.2400	17.1100
 1.2440	17.1800
 1.2480	17.2800
 1.2520	17.3600
 1.2560	17.4200
 1.2600	17.4800
 1.2640	17.6000
 1.2680	17.6900
 1.2720	17.7600
 1.2760	17.8900
 1.2800	17.9400
 1.2840	18.0100
 1.2880	18.1700
 1.2920	18.3400
 1.2960	18.3900
 1.3000	18.4700
 1.3040	18.5500
 1.3080	18.7100
 1.3120	18.7600
 1.3160	18.8000
 1.3200	18.9200
 1.3240	19.0400
 1.3280	19.1500
 1.3320	19.2200
 1.3360	19.3000
 1.3400	19.3700
 1.3440	19.4700
 1.3480	19.5100
 1.3520	19.6800
 1.3560	19.7800
 1.3600	19.8800
 1.3640	19.9600
 1.3680	20.0400
 1.3720	20.0700
 1.3760	20.0900
 1.3800	20.1000
 1.3840	20.1200
 1.3880	20.0200
 1.3920	19.8400
 1.3960	19.7000
 1.4000	19.4100
 1.4040	19.0200
 1.4080	18.8200
 1.4120	18.8800
 1.4160	19.1700
 1.4200	19.5100
 1.4240	19.8300
 1.4280	20.0600
 1.4320	20.3000
 1.4360	20.5400
 1.4400	20.7600
 1.4440	20.9500
 1.4480	21.1500
 1.4520	21.3300
 1.4560	21.5100
 1.4600	21.6500
 1.4640	21.9300
 1.4680	22.1300
 1.4720	22.3600
 1.4760	22.6400
 1.4800	22.9300
 1.4840	23.1600
 1.4880	23.3900
 1.4920	23.6300
 1.4960	23.9000
 1.5000	24.1500
 1.5040	24.3200
 1.5080	24.6300
 1.5120	24.8600
 1.5160	25.0400
 1.5200	25.3400
 1.5240	25.4200
 1.5280	25.7400
 1.5320	25.9500
 1.5360	26.1200
 1.5400	26.4000
 1.5440	26.6600
 1.5480	26.8600
 1.5520	27.1200
 1.5560	27.3400
 1.5600	27.6400
 1.5640	27.8300
 1.5680	28.0300
 1.5720	28.2600
 1.5760	28.5300
 1.5800	28.7300
 1.5840	28.9600
 1.5880	29.2000
 1.5920	29.4900
 1.5960	29.7400
 1.6000	30.0300
 1.6040	30.3100
 1.6080	30.5600
 1.6120	30.8400
 1.6160	31.1300
 1.6200	31.3900
 1.6240	31.6100
 1.6280	31.9200
 1.6320	32.2000
 1.6360	32.4300
 1.6400	32.6600
 1.6440	32.8500
 1.6480	33.0900
 1.6520	33.3700
 1.6560	33.6900
 1.6600	33.8800
 1.6640	34.1800
 1.6680	34.4200
 1.6720	34.5900
 1.6760	34.6900
 1.6800	34.8600
 1.6840	35.1000
 1.6880	35.3600
 1.6920	35.5100
 1.6960	35.8400
 1.7000	36.1400
 1.7040	36.4400
 1.7080	36.6300
 1.7120	36.8800
 1.7160	37.0300
 1.7200	37.2200
 1.7240	37.4100
 1.7280	37.6500
 1.7320	37.9100
 1.7360	38.1600
 1.7400	38.3800
 1.7440	38.5700
 1.7480	38.7600
 1.7520	38.9100
 1.7560	39.1100
 1.7600	39.2500
 1.7640	39.5100
 1.7680	39.7400
 1.7720	39.9900
 1.7760	40.2700
 1.7800	40.3300
 1.7840	40.5800
 1.7880	40.7300
 1.7920	40.9600
 1.7960	41.0800
 1.8000	41.3600
 1.8040	41.5500
 1.8080	41.7200
 1.8120	41.8200
 1.8160	42.0400
 1.8200	42.1800
 1.8240	42.3400
 1.8280	42.4700
 1.8320	42.4900
 1.8360	42.5700
 1.8400	42.6100
 1.8440	42.5800
 1.8480	42.5100
 1.8520	42.3700
 1.8560	42.1800
 1.8600	41.7100
 1.8640	40.9900
 1.8680	39.9100
 1.8720	38.4800
 1.8760	36.9400
 1.8800	35.2000
 1.8840	33.3900
 1.8880	31.3100
 1.8920	29.2700
 1.8960	27.3200
 1.9000	25.8000
 1.9040	24.6300
 1.9080	23.9800
 1.9120	23.7200
 1.9160	23.8500
 1.9200	24.1100
 1.9240	24.5300
 1.9280	25.0300
 1.9320	25.5000
 1.9360	25.9100
 1.9400	26.4200
 1.9440	26.8400
 1.9480	27.3500
 1.9520	27.7100
 1.9560	28.2000
 1.9600	28.6700
 1.9640	29.1900
 1.9680	29.6200
 1.9720	30.1800
 1.9760	30.7400
 1.9800	31.2300
 1.9840	31.8500
 1.9880	32.3800
 1.9920	32.9300
 1.9960	33.4700
 2.0000	33.9400
 2.0040	34.3800
 2.0080	34.8900
 2.0120	35.3000
 2.0160	35.7500
 2.0200	36.1700
 2.0240	36.6200
 2.0280	37.0200
 2.0320	37.3300
 2.0360	37.7700
 2.0400	38.1300
 2.0440	38.4600
 2.0480	38.7300
 2.0520	38.9700
 2.0560	39.3000
 2.0600	39.5300
 2.0640	39.7900
 2.0680	39.9600
 2.0720	40.2300
 2.0760	40.5400
 2.0800	40.6700
 2.0840	40.9700
 2.0880	41.1400
 2.0920	41.3600
 2.0960	41.5200
 2.1000	41.7100
 2.1040	41.9100
 2.1080	42.0900
 2.1120	42.3000
 2.1160	42.4800
 2.1200	42.7400
 2.1240	42.8300
 2.1280	42.9300
 2.1320	42.9700
 2.1360	42.9800
 2.1400	42.9200
 2.1440	42.8600
 2.1480	42.7100
 2.1520	42.4400
 2.1560	42.2900
 2.1600	41.9700
 2.1640	41.7200
 2.1680	41.4100
 2.1720	41.0100
 2.1760	40.4900
 2.1800	40.0600
 2.1840	39.5200
 2.1880	38.7300
 2.1920	38.0700
 2.1960	37.2900
 2.2000	36.5300
 2.2040	35.7300
 2.2080	35.0800
 2.2120	34.5300
 2.2160	34.0500
 2.2200	33.6500
 2.2240	33.1400
 2.2280	32.5500
 2.2320	31.8000
 2.2360	31.0000
 2.2400	30.1100
 2.2440	29.1000
 2.2480	28.1400
 2.2520	27.2700
 2.2560	26.5600
 2.2600	26.0500
 2.2640	25.7500
 2.2680	25.8000
 2.2720	25.8900
 2.2760	26.1900
 2.2800	26.5800
 2.2840	26.9900
 2.2880	27.3900
 2.2920	27.9400
 2.2960	28.4800
 2.3000	28.9000
 2.3040	29.0900
 2.3080	29.6000
 2.3120	29.8300
 2.3160	29.8800
 2.3200	29.8100
 2.3240	29.6200
 2.3280	29.2300
 2.3320	28.7800
 2.3360	28.1700
 2.3400	27.6800
 2.3440	27.1600
 2.3480	26.6400
 2.3520	26.2900
 2.3560	26.0000
 2.3600	25.7300
 2.3640	25.5700
 2.3680	25.3900
 2.3720	25.2000
 2.3760	24.9600
 2.3800	24.7100
 2.3840	24.4100
 2.3880	24.1000
 2.3920	23.7500
 2.3960	23.5200
 2.4000	23.2800
 2.4040	23.0800
 2.4080	22.8900
 2.4120	22.7400
 2.4160	22.6700
 2.4200	22.5600
 2.4240	22.4600
 2.4280	22.3800
 2.4320	22.3300
 2.4360	22.2600
 2.4400	22.2100
 2.4440	22.1400
 2.4480	22.1300
 2.4520	22.1000
 2.4560	22.0000
 2.4600	21.9800
 2.4640	21.9400
 2.4680	21.7900
 2.4720	21.8100
 2.4760	21.7200
 2.4800	21.6000
 2.4840	21.6200
 2.4880	21.5800
 2.4920	21.5300
 2.4960	21.4300
 2.5000	21.3500
