Name: Natrolite Na_2Al_2Si_3O_10.2H_2O
Type: Mineral
Class: Silicate
Subclass: Tectosilicate
Particle Size: Fine
Sample No.: TS-8A
Owner: JPL
Wavelength Range: VSWIR
Origin: India, Maharashtra, Poona
Collection Date: N/A
Description: Particle size was 0-45um.Collected by Ward's Original ASTER Spectral Library name was jpl.beckman.mineral.silicate.tectosilicate.fine.ts08a.spectrum.txt
Measurement: Hemispherical reflectance
First Column: X
Second Column: Y
X Units: Wavelength (micrometers)
Y Units:Reflectance (percent)
First X Value:  0.4000
Last X Value:  2.5000
Number of X Values: 826
Additional Information: mineral.silicate.tectosilicate.fine.vswir.ts-8a.jpl.beckman.ancillary.txt

 0.4000	76.9400
 0.4010	77.0200
 0.4020	76.9800
 0.4030	77.1600
 0.4040	77.1900
 0.4050	77.1800
 0.4060	77.2300
 0.4070	77.2100
 0.4080	77.2700
 0.4090	77.3600
 0.4100	77.5300
 0.4110	77.3800
 0.4120	77.5000
 0.4130	77.4200
 0.4140	77.5900
 0.4150	77.5600
 0.4160	77.5000
 0.4170	77.5000
 0.4180	77.5900
 0.4190	77.6500
 0.4200	77.6300
 0.4210	77.5200
 0.4220	77.7500
 0.4230	77.7900
 0.4240	77.8500
 0.4250	77.7600
 0.4260	77.8000
 0.4270	77.9200
 0.4280	78.0300
 0.4290	77.9900
 0.4300	77.9900
 0.4310	77.9600
 0.4320	78.0600
 0.4330	78.1500
 0.4340	78.1900
 0.4350	78.1800
 0.4360	78.1600
 0.4370	78.3800
 0.4380	78.4200
 0.4390	78.4000
 0.4400	78.3500
 0.4410	78.5300
 0.4420	78.4700
 0.4430	78.6100
 0.4440	78.6800
 0.4450	78.5200
 0.4460	78.6900
 0.4470	78.6900
 0.4480	78.7700
 0.4490	78.8000
 0.4500	78.7700
 0.4510	78.8700
 0.4520	78.9900
 0.4530	79.0100
 0.4540	79.1000
 0.4550	79.0000
 0.4560	79.1800
 0.4570	79.3300
 0.4580	79.4300
 0.4590	79.3000
 0.4600	79.3600
 0.4610	79.3300
 0.4620	79.5600
 0.4630	79.5500
 0.4640	79.5500
 0.4650	79.4600
 0.4660	79.5100
 0.4670	79.5800
 0.4680	79.7400
 0.4690	79.7900
 0.4700	79.7500
 0.4710	79.9100
 0.4720	79.8800
 0.4730	79.9600
 0.4740	80.0500
 0.4750	80.1400
 0.4760	80.1600
 0.4770	80.2600
 0.4780	80.2000
 0.4790	80.2200
 0.4800	80.2000
 0.4810	80.2600
 0.4820	80.5000
 0.4830	80.5500
 0.4840	80.5500
 0.4850	80.5800
 0.4860	80.5100
 0.4870	80.6000
 0.4880	80.6800
 0.4890	80.5700
 0.4900	80.6000
 0.4910	80.7800
 0.4920	80.8000
 0.4930	80.8300
 0.4940	80.7300
 0.4950	80.8900
 0.4960	80.9500
 0.4970	81.1400
 0.4980	81.1000
 0.4990	81.0500
 0.5000	81.1900
 0.5010	81.2000
 0.5020	81.2700
 0.5030	81.3300
 0.5040	81.2300
 0.5050	81.3900
 0.5060	81.5100
 0.5070	81.5000
 0.5080	81.4400
 0.5090	81.5300
 0.5100	81.6400
 0.5110	81.8400
 0.5120	81.9400
 0.5130	81.9300
 0.5140	81.8000
 0.5150	81.8500
 0.5160	81.9500
 0.5170	82.0100
 0.5180	81.9300
 0.5190	81.9500
 0.5200	82.1500
 0.5210	82.1200
 0.5220	82.1200
 0.5230	82.0600
 0.5240	82.1000
 0.5250	82.1100
 0.5260	82.2400
 0.5270	82.2600
 0.5280	82.1500
 0.5290	82.2400
 0.5300	82.2700
 0.5310	82.2400
 0.5320	82.2800
 0.5330	82.1800
 0.5340	82.2300
 0.5350	82.3300
 0.5360	82.3700
 0.5370	82.3700
 0.5380	82.3100
 0.5390	82.4900
 0.5400	82.6500
 0.5410	82.6400
 0.5420	82.7100
 0.5430	82.5400
 0.5440	82.6600
 0.5450	82.6800
 0.5460	82.7000
 0.5470	82.7200
 0.5480	82.6900
 0.5490	82.7800
 0.5500	82.9100
 0.5510	82.9300
 0.5520	82.7700
 0.5530	82.8700
 0.5540	82.9100
 0.5550	83.0100
 0.5560	82.9700
 0.5570	82.9700
 0.5580	82.9400
 0.5590	82.9900
 0.5600	83.0100
 0.5610	83.6000
 0.5620	83.5600
 0.5630	83.4400
 0.5640	83.3800
 0.5650	83.5400
 0.5660	83.4700
 0.5670	83.4700
 0.5680	83.3100
 0.5690	83.3700
 0.5700	83.3300
 0.5710	83.3800
 0.5720	83.3000
 0.5730	83.1600
 0.5740	83.2000
 0.5750	83.1100
 0.5760	83.1700
 0.5770	83.1500
 0.5780	83.1200
 0.5790	83.2200
 0.5800	83.3300
 0.5810	83.2500
 0.5820	83.2400
 0.5830	83.2500
 0.5840	83.2200
 0.5850	83.3800
 0.5860	83.3900
 0.5870	83.2600
 0.5880	83.3200
 0.5890	83.3200
 0.5900	83.4000
 0.5910	83.3900
 0.5920	83.3300
 0.5930	83.3800
 0.5940	83.5000
 0.5950	83.4600
 0.5960	83.4600
 0.5970	83.4600
 0.5980	83.5000
 0.5990	83.5000
 0.6000	83.6600
 0.6010	83.6700
 0.6020	83.6000
 0.6030	83.6200
 0.6040	83.6300
 0.6050	83.7400
 0.6060	83.6000
 0.6070	83.5000
 0.6080	83.6200
 0.6090	83.7500
 0.6100	83.7700
 0.6110	83.7000
 0.6120	83.6500
 0.6130	83.5800
 0.6140	83.5800
 0.6150	83.6200
 0.6160	83.6800
 0.6170	83.5800
 0.6180	83.5100
 0.6190	83.5100
 0.6200	83.5700
 0.6210	83.6300
 0.6220	83.6000
 0.6230	83.6500
 0.6240	83.6500
 0.6250	83.7000
 0.6260	83.7000
 0.6270	83.5500
 0.6280	83.6100
 0.6290	83.6400
 0.6300	83.7900
 0.6310	83.7300
 0.6320	83.7300
 0.6330	83.6400
 0.6340	83.7000
 0.6350	83.6800
 0.6360	83.7500
 0.6370	83.7000
 0.6380	83.5400
 0.6390	83.5900
 0.6400	83.7000
 0.6410	83.6600
 0.6420	83.7200
 0.6430	83.5500
 0.6440	83.5800
 0.6450	83.6000
 0.6460	83.6700
 0.6470	83.6900
 0.6480	83.5300
 0.6490	83.5200
 0.6500	83.6000
 0.6510	83.6000
 0.6520	83.6500
 0.6530	83.6200
 0.6540	83.6100
 0.6550	83.7700
 0.6560	83.7800
 0.6570	83.7300
 0.6580	83.6500
 0.6590	83.6500
 0.6600	83.6500
 0.6610	83.7500
 0.6620	83.8100
 0.6630	83.7500
 0.6640	83.7000
 0.6650	83.7000
 0.6660	83.7500
 0.6670	83.7300
 0.6680	83.7300
 0.6690	83.6400
 0.6700	83.7700
 0.6710	83.8200
 0.6720	83.7700
 0.6730	83.7900
 0.6740	83.7500
 0.6750	83.6800
 0.6760	83.8900
 0.6770	83.9300
 0.6780	83.7100
 0.6790	83.8000
 0.6800	83.6800
 0.6810	83.7300
 0.6820	83.7300
 0.6830	83.7100
 0.6840	83.8400
 0.6850	83.8800
 0.6860	83.8200
 0.6870	83.8400
 0.6880	83.7200
 0.6890	83.7800
 0.6900	83.8900
 0.6910	83.8700
 0.6920	83.7900
 0.6930	83.8400
 0.6940	83.9100
 0.6950	83.9900
 0.6960	83.9400
 0.6970	83.8100
 0.6980	83.8400
 0.6990	83.9800
 0.7000	83.8500
 0.7010	83.8200
 0.7020	83.7500
 0.7030	83.7800
 0.7040	83.6200
 0.7050	83.6700
 0.7060	83.6500
 0.7070	83.7700
 0.7080	83.7800
 0.7090	83.7300
 0.7100	83.6700
 0.7110	83.7700
 0.7120	83.8000
 0.7130	83.7500
 0.7140	83.7700
 0.7150	83.8400
 0.7160	83.8200
 0.7170	83.7000
 0.7180	83.7100
 0.7190	83.6700
 0.7200	83.7300
 0.7210	83.7800
 0.7220	83.8700
 0.7230	83.9800
 0.7240	83.8300
 0.7250	83.8500
 0.7260	83.7900
 0.7270	83.8500
 0.7280	83.7800
 0.7290	83.8100
 0.7300	83.9100
 0.7310	84.0100
 0.7320	83.9300
 0.7330	83.9800
 0.7340	83.8900
 0.7350	83.9600
 0.7360	84.0100
 0.7370	83.9500
 0.7380	83.9500
 0.7390	83.8500
 0.7400	83.9700
 0.7410	83.9100
 0.7420	84.0100
 0.7430	83.8400
 0.7440	83.8000
 0.7450	83.9200
 0.7460	83.9100
 0.7470	83.8900
 0.7480	83.7800
 0.7490	83.9200
 0.7500	83.8600
 0.7510	83.9600
 0.7520	83.9400
 0.7530	83.9500
 0.7540	83.8500
 0.7550	83.9300
 0.7560	84.0200
 0.7570	83.9800
 0.7580	83.8100
 0.7590	83.8100
 0.7600	83.9600
 0.7610	83.8300
 0.7620	83.9100
 0.7630	83.7600
 0.7640	83.9400
 0.7650	83.8700
 0.7660	84.0900
 0.7670	84.0400
 0.7680	83.9900
 0.7690	84.0300
 0.7700	84.0200
 0.7710	83.9900
 0.7720	83.9500
 0.7730	83.9400
 0.7740	84.0300
 0.7750	84.1500
 0.7760	84.0500
 0.7770	84.0400
 0.7780	83.9800
 0.7790	84.0300
 0.7800	84.1000
 0.7810	84.0500
 0.7820	84.1100
 0.7830	84.0400
 0.7840	84.0000
 0.7850	84.0200
 0.7860	83.9000
 0.7870	83.8800
 0.7880	83.9300
 0.7890	84.1200
 0.7900	84.0700
 0.7910	84.1300
 0.7920	84.0600
 0.7930	84.0600
 0.7940	84.1200
 0.7950	84.1700
 0.7960	84.1900
 0.7970	84.0700
 0.7980	84.1400
 0.7990	84.2100
 0.8000	84.1600
 0.8040	84.1500
 0.8080	84.1100
 0.8120	84.2300
 0.8160	84.2100
 0.8200	84.1900
 0.8240	84.1300
 0.8280	84.1600
 0.8320	84.1600
 0.8360	84.2500
 0.8400	84.2700
 0.8440	84.3000
 0.8480	84.3500
 0.8520	84.3500
 0.8560	84.3500
 0.8600	84.4000
 0.8640	84.3300
 0.8680	84.2700
 0.8720	84.2200
 0.8760	84.2600
 0.8800	84.2700
 0.8840	84.1500
 0.8880	84.2600
 0.8920	84.2600
 0.8960	84.2100
 0.9000	84.2000
 0.9040	84.2000
 0.9080	84.2100
 0.9120	84.1400
 0.9160	84.1400
 0.9200	84.2500
 0.9240	84.2800
 0.9280	84.2100
 0.9320	84.1800
 0.9360	84.1400
 0.9400	84.1900
 0.9440	84.1400
 0.9480	84.0700
 0.9520	84.1800
 0.9560	84.0800
 0.9600	84.0200
 0.9640	84.0700
 0.9680	83.9900
 0.9720	83.9100
 0.9760	83.8800
 0.9800	83.7800
 0.9840	83.8600
 0.9880	83.9200
 0.9920	83.9200
 0.9960	84.0200
 1.0000	84.0100
 1.0040	84.0200
 1.0080	84.1700
 1.0120	84.1600
 1.0160	84.2100
 1.0200	84.2600
 1.0240	84.1700
 1.0280	84.1800
 1.0320	84.1800
 1.0360	84.2100
 1.0400	84.2000
 1.0440	84.3800
 1.0480	84.2700
 1.0520	84.3800
 1.0560	84.3300
 1.0600	84.3500
 1.0640	84.3900
 1.0680	84.3600
 1.0720	84.2700
 1.0760	84.2500
 1.0800	84.2800
 1.0840	84.2700
 1.0880	84.3500
 1.0920	84.3700
 1.0960	84.3700
 1.1000	84.3400
 1.1040	84.4100
 1.1080	84.3400
 1.1120	84.3600
 1.1160	84.3700
 1.1200	84.3200
 1.1240	84.3800
 1.1280	84.4200
 1.1320	84.3400
 1.1360	84.2800
 1.1400	84.1600
 1.1440	84.1200
 1.1480	83.9400
 1.1520	83.7600
 1.1560	83.6500
 1.1600	83.5900
 1.1640	83.5800
 1.1680	83.4400
 1.1720	83.4200
 1.1760	83.3000
 1.1800	83.3100
 1.1840	83.3800
 1.1880	83.5200
 1.1920	83.5000
 1.1960	83.5700
 1.2000	83.6200
 1.2040	83.5900
 1.2080	83.5000
 1.2120	83.5800
 1.2160	83.4900
 1.2200	83.5200
 1.2240	83.5400
 1.2280	83.4900
 1.2320	83.5200
 1.2360	83.5500
 1.2400	83.5300
 1.2440	83.6100
 1.2480	83.5200
 1.2520	83.5900
 1.2560	83.5800
 1.2600	83.5100
 1.2640	83.5300
 1.2680	83.5700
 1.2720	83.7200
 1.2760	83.6200
 1.2800	83.7000
 1.2840	83.6500
 1.2880	83.6700
 1.2920	83.6400
 1.2960	83.5600
 1.3000	83.5700
 1.3040	83.5300
 1.3080	83.3600
 1.3120	83.2500
 1.3160	83.1000
 1.3200	82.7600
 1.3240	82.4500
 1.3280	82.0800
 1.3320	81.8600
 1.3360	81.8000
 1.3400	81.7700
 1.3440	81.8000
 1.3480	81.7100
 1.3520	81.6200
 1.3560	81.7900
 1.3600	81.9600
 1.3640	81.9900
 1.3680	81.9400
 1.3720	81.9000
 1.3760	81.7600
 1.3800	81.5000
 1.3840	81.2700
 1.3880	80.9800
 1.3920	80.5400
 1.3960	79.9900
 1.4000	79.3300
 1.4040	78.5500
 1.4080	77.5500
 1.4120	76.6400
 1.4160	75.5800
 1.4200	74.6600
 1.4240	74.0300
 1.4280	73.5600
 1.4320	73.2500
 1.4360	72.9100
 1.4400	72.2900
 1.4440	71.2000
 1.4480	69.8500
 1.4520	69.1300
 1.4560	69.7800
 1.4600	71.5800
 1.4640	73.2500
 1.4680	74.4700
 1.4720	74.8800
 1.4760	74.6900
 1.4800	74.3100
 1.4840	74.2400
 1.4880	74.6600
 1.4920	75.5400
 1.4960	76.3500
 1.5000	76.8900
 1.5040	77.3400
 1.5080	77.5700
 1.5120	77.6800
 1.5160	77.8700
 1.5200	78.0200
 1.5240	78.0200
 1.5280	78.0500
 1.5320	78.0700
 1.5360	77.9000
 1.5400	77.8300
 1.5440	77.6300
 1.5480	77.4900
 1.5520	77.3600
 1.5560	77.2600
 1.5600	77.3200
 1.5640	77.5000
 1.5680	77.5000
 1.5720	77.6000
 1.5760	77.6500
 1.5800	77.5000
 1.5840	77.5100
 1.5880	77.4300
 1.5920	77.4300
 1.5960	77.3800
 1.6000	77.4100
 1.6040	77.5600
 1.6080	77.6600
 1.6120	77.6800
 1.6160	77.8500
 1.6200	77.8900
 1.6240	77.9400
 1.6280	78.0700
 1.6320	78.2500
 1.6360	78.3500
 1.6400	78.5400
 1.6440	78.7800
 1.6480	78.8100
 1.6520	78.9700
 1.6560	79.1500
 1.6600	79.2700
 1.6640	79.3600
 1.6680	79.5000
 1.6720	79.6600
 1.6760	79.7300
 1.6800	79.9100
 1.6840	79.9400
 1.6880	80.0900
 1.6920	80.0800
 1.6960	80.1600
 1.7000	80.3300
 1.7040	80.2400
 1.7080	80.2700
 1.7120	80.2500
 1.7160	80.2900
 1.7200	80.2100
 1.7240	80.1800
 1.7280	80.1200
 1.7320	80.0800
 1.7360	80.0700
 1.7400	80.1000
 1.7440	79.9500
 1.7480	79.8100
 1.7520	79.5000
 1.7560	79.0500
 1.7600	78.7200
 1.7640	78.6400
 1.7680	78.7200
 1.7720	78.9800
 1.7760	79.2000
 1.7800	79.4100
 1.7840	79.4300
 1.7880	79.4200
 1.7920	79.1900
 1.7960	79.0200
 1.8000	78.8400
 1.8040	78.6100
 1.8080	78.3400
 1.8120	78.3100
 1.8160	78.3000
 1.8200	78.4000
 1.8240	78.5700
 1.8280	78.7800
 1.8320	78.8700
 1.8360	78.9500
 1.8400	78.9100
 1.8440	78.8500
 1.8480	78.6800
 1.8520	78.4900
 1.8560	78.0400
 1.8600	77.5400
 1.8640	76.9200
 1.8680	75.8700
 1.8720	74.4600
 1.8760	72.7800
 1.8800	70.6700
 1.8840	68.3500
 1.8880	65.9600
 1.8920	63.5300
 1.8960	60.9900
 1.9000	58.6300
 1.9040	56.3000
 1.9080	53.9000
 1.9120	51.3900
 1.9160	48.5200
 1.9200	45.1600
 1.9240	41.7500
 1.9280	38.6200
 1.9320	36.4000
 1.9360	35.5200
 1.9400	36.5500
 1.9440	39.1900
 1.9480	42.8700
 1.9520	46.6400
 1.9560	50.1400
 1.9600	52.7400
 1.9640	54.5000
 1.9680	55.3700
 1.9720	55.5900
 1.9760	55.3900
 1.9800	54.9000
 1.9840	54.2800
 1.9880	53.6500
 1.9920	53.0700
 1.9960	52.5800
 2.0000	52.3400
 2.0040	52.3100
 2.0080	52.5600
 2.0120	53.2100
 2.0160	54.1000
 2.0200	55.2400
 2.0240	56.4500
 2.0280	57.7900
 2.0320	58.9900
 2.0360	60.1800
 2.0400	61.1100
 2.0440	61.8800
 2.0480	62.3800
 2.0520	62.7500
 2.0560	62.9400
 2.0600	63.0300
 2.0640	63.0300
 2.0680	62.9600
 2.0720	62.8700
 2.0760	62.9200
 2.0800	63.0400
 2.0840	63.3500
 2.0880	63.8300
 2.0920	64.6400
 2.0960	65.4400
 2.1000	66.2400
 2.1040	67.1700
 2.1080	67.9400
 2.1120	68.5800
 2.1160	69.1400
 2.1200	69.4300
 2.1240	69.7600
 2.1280	69.9300
 2.1320	69.9700
 2.1360	70.0700
 2.1400	69.9700
 2.1440	69.8100
 2.1480	69.6100
 2.1520	69.3800
 2.1560	69.2400
 2.1600	69.0300
 2.1640	68.8700
 2.1680	68.6100
 2.1720	68.3500
 2.1760	67.9600
 2.1800	67.6000
 2.1840	67.1900
 2.1880	66.9100
 2.1920	66.8000
 2.1960	66.8700
 2.2000	67.2900
 2.2040	67.8000
 2.2080	68.5200
 2.2120	69.2700
 2.2160	70.0300
 2.2200	70.7400
 2.2240	71.3300
 2.2280	71.8300
 2.2320	72.3400
 2.2360	72.6200
 2.2400	72.7400
 2.2440	72.8800
 2.2480	72.8600
 2.2520	72.8900
 2.2560	72.9000
 2.2600	72.7200
 2.2640	72.6800
 2.2680	72.7800
 2.2720	72.7700
 2.2760	72.8300
 2.2800	72.8500
 2.2840	72.9600
 2.2880	73.0700
 2.2920	73.0800
 2.2960	73.0400
 2.3000	73.0500
 2.3040	72.8500
 2.3080	72.6600
 2.3120	72.3800
 2.3160	72.1700
 2.3200	71.8500
 2.3240	71.4600
 2.3280	71.0500
 2.3320	70.6300
 2.3360	70.1700
 2.3400	69.6700
 2.3440	69.3000
 2.3480	68.9200
 2.3520	68.5100
 2.3560	68.0200
 2.3600	67.4200
 2.3640	66.9600
 2.3680	66.3900
 2.3720	65.7900
 2.3760	65.2600
 2.3800	64.6700
 2.3840	63.9400
 2.3880	63.0900
 2.3920	62.0900
 2.3960	60.9600
 2.4000	59.5800
 2.4040	58.1600
 2.4080	56.6500
 2.4120	55.1900
 2.4160	53.9000
 2.4200	52.9000
 2.4240	52.3100
 2.4280	51.8100
 2.4320	51.6700
 2.4360	51.8400
 2.4400	52.0200
 2.4440	52.4800
 2.4480	52.8800
 2.4520	53.4500
 2.4560	54.0700
 2.4600	54.7800
 2.4640	55.6200
 2.4680	56.3700
 2.4720	57.1300
 2.4760	57.9600
 2.4800	58.8900
 2.4840	59.6100
 2.4880	60.3700
 2.4920	60.9900
 2.4960	61.5100
 2.5000	61.9300
