Name: Borax Na_2B_4O_5(OH)_4.8H_2O
Type: Mineral
Class: Borate
Subclass: None
Particle Size: Coarse
Sample No.: B-6A
Owner: JPL
Wavelength Range: VSWIR
Origin: USA, California, Kern County, Boron
Collection Date: N/A
Description: Particle size was 125-500um.Collected by Burminco Original ASTER Spectral Library name was jpl.beckman.mineral.borate.none.coarse.b06.spectrum.txt
Measurement: Hemispherical reflectance
First Column: X
Second Column: Y
X Units: Wavelength (micrometers)
Y Units:Reflectance (percent)
First X Value:  0.4000
Last X Value:  2.5000
Number of X Values: 826
Additional Information: mineral.borate.none.coarse.vswir.b-6a.jpl.beckman.ancillary.txt

 0.4000	90.6700
 0.4010	90.5200
 0.4020	90.8200
 0.4030	90.8800
 0.4040	90.9400
 0.4050	90.9400
 0.4060	90.7100
 0.4070	90.8300
 0.4080	90.9400
 0.4090	90.8200
 0.4100	90.8300
 0.4110	90.7700
 0.4120	90.9500
 0.4130	90.7700
 0.4140	90.9500
 0.4150	90.8300
 0.4160	90.7100
 0.4170	90.9400
 0.4180	90.9400
 0.4190	90.7700
 0.4200	90.9500
 0.4210	90.8900
 0.4220	90.9500
 0.4230	90.8300
 0.4240	90.9500
 0.4250	91.0200
 0.4260	91.0200
 0.4270	91.1400
 0.4280	91.0700
 0.4290	90.8900
 0.4300	91.0700
 0.4310	91.1300
 0.4320	91.3200
 0.4330	91.1400
 0.4340	91.0200
 0.4350	91.2000
 0.4360	91.3200
 0.4370	91.3700
 0.4380	91.3100
 0.4390	91.2500
 0.4400	91.3700
 0.4410	91.3100
 0.4420	91.3800
 0.4430	91.3200
 0.4440	91.2100
 0.4450	91.4400
 0.4460	91.5000
 0.4470	91.5000
 0.4480	91.4400
 0.4490	91.3800
 0.4500	91.4400
 0.4510	91.4400
 0.4520	91.4400
 0.4530	91.5600
 0.4540	91.3900
 0.4550	91.5200
 0.4560	91.5300
 0.4570	91.4800
 0.4580	91.7300
 0.4590	91.6100
 0.4600	91.6600
 0.4610	91.7600
 0.4620	91.5700
 0.4630	91.7700
 0.4640	91.7100
 0.4650	91.6400
 0.4660	91.8800
 0.4670	91.6400
 0.4680	91.6500
 0.4690	91.8300
 0.4700	91.7700
 0.4710	92.0100
 0.4720	91.8900
 0.4730	91.7200
 0.4740	91.8400
 0.4750	91.8400
 0.4760	92.0200
 0.4770	91.8500
 0.4780	91.8600
 0.4790	91.8600
 0.4800	91.9200
 0.4810	91.9700
 0.4820	91.9800
 0.4830	92.0500
 0.4840	92.1100
 0.4850	91.8700
 0.4860	91.9900
 0.4870	92.1100
 0.4880	91.9500
 0.4890	92.1300
 0.4900	91.9500
 0.4910	91.9500
 0.4920	91.9500
 0.4930	91.9700
 0.4940	92.2000
 0.4950	92.0300
 0.4960	91.9800
 0.4970	91.9800
 0.4980	91.9300
 0.4990	92.1600
 0.5000	91.9900
 0.5010	92.0500
 0.5020	91.9900
 0.5030	92.0500
 0.5040	92.1700
 0.5050	92.1700
 0.5060	92.1700
 0.5070	92.1700
 0.5080	92.0500
 0.5090	92.0500
 0.5100	92.2900
 0.5110	92.2300
 0.5120	92.3400
 0.5130	92.1100
 0.5140	92.4100
 0.5150	92.3500
 0.5160	92.2900
 0.5170	92.4100
 0.5180	92.2900
 0.5190	92.3600
 0.5200	92.4700
 0.5210	92.4100
 0.5220	92.4700
 0.5230	92.4100
 0.5240	92.3500
 0.5250	92.4700
 0.5260	92.2900
 0.5270	92.5300
 0.5280	92.4200
 0.5290	92.3500
 0.5300	92.2900
 0.5310	92.2300
 0.5320	92.4100
 0.5330	92.2900
 0.5340	92.2700
 0.5350	92.3800
 0.5360	92.4400
 0.5370	92.4400
 0.5380	92.4400
 0.5390	92.3800
 0.5400	92.3100
 0.5410	92.3100
 0.5420	92.2600
 0.5430	92.3200
 0.5440	92.3800
 0.5450	92.3900
 0.5460	92.2700
 0.5470	92.3900
 0.5480	92.4000
 0.5490	92.3400
 0.5500	92.4600
 0.5510	92.2900
 0.5520	92.4600
 0.5530	92.4600
 0.5540	92.4100
 0.5550	92.5800
 0.5560	92.4000
 0.5570	92.4000
 0.5580	92.3900
 0.5590	92.2700
 0.5600	92.3800
 0.5610	92.8200
 0.5620	92.7100
 0.5630	92.7600
 0.5640	92.7600
 0.5650	92.7000
 0.5660	92.8800
 0.5670	92.7600
 0.5680	92.7000
 0.5690	92.5300
 0.5700	92.6500
 0.5710	92.5900
 0.5720	92.5300
 0.5730	92.5800
 0.5740	92.4000
 0.5750	92.3900
 0.5760	92.3800
 0.5770	92.3700
 0.5780	92.6100
 0.5790	92.3600
 0.5800	92.4200
 0.5810	92.2400
 0.5820	92.3600
 0.5830	92.4200
 0.5840	92.2400
 0.5850	92.3600
 0.5860	92.3000
 0.5870	92.3600
 0.5880	92.4200
 0.5890	92.3600
 0.5900	92.3600
 0.5910	92.2400
 0.5920	92.3000
 0.5930	92.4200
 0.5940	92.3600
 0.5950	92.3000
 0.5960	92.1800
 0.5970	92.2500
 0.5980	92.5500
 0.5990	92.3200
 0.6000	92.2700
 0.6010	92.2800
 0.6020	92.4600
 0.6030	92.5800
 0.6040	92.3500
 0.6050	92.4100
 0.6060	92.5300
 0.6070	92.4200
 0.6080	92.5300
 0.6090	92.4200
 0.6100	92.3000
 0.6110	92.2500
 0.6120	92.2400
 0.6130	92.3000
 0.6140	92.4200
 0.6150	92.3600
 0.6160	92.3600
 0.6170	92.3600
 0.6180	92.3600
 0.6190	92.3000
 0.6200	92.3000
 0.6210	92.3000
 0.6220	92.1900
 0.6230	92.2500
 0.6240	92.4200
 0.6250	92.3100
 0.6260	92.3600
 0.6270	92.1900
 0.6280	92.3000
 0.6290	92.3000
 0.6300	92.3000
 0.6310	92.4100
 0.6320	92.2400
 0.6330	92.1900
 0.6340	92.1900
 0.6350	92.2400
 0.6360	92.3600
 0.6370	92.2400
 0.6380	92.2500
 0.6390	92.1900
 0.6400	92.1900
 0.6410	92.3000
 0.6420	92.1800
 0.6430	92.1300
 0.6440	92.1300
 0.6450	92.2500
 0.6460	92.3600
 0.6470	92.3100
 0.6480	92.1900
 0.6490	92.2500
 0.6500	92.3600
 0.6510	92.5300
 0.6520	92.3600
 0.6530	92.3000
 0.6540	92.2400
 0.6550	92.3000
 0.6560	92.3600
 0.6570	92.2400
 0.6580	92.3000
 0.6590	92.3600
 0.6600	92.3000
 0.6610	92.4200
 0.6620	92.3000
 0.6630	92.3600
 0.6640	92.1300
 0.6650	92.1900
 0.6660	92.3000
 0.6670	92.3600
 0.6680	92.3000
 0.6690	92.4200
 0.6700	92.3600
 0.6710	92.3100
 0.6720	92.4200
 0.6730	92.4800
 0.6740	92.4200
 0.6750	92.2500
 0.6760	92.2500
 0.6770	92.3000
 0.6780	92.3600
 0.6790	92.3000
 0.6800	92.1800
 0.6810	92.2400
 0.6820	92.3000
 0.6830	92.2500
 0.6840	92.2500
 0.6850	92.1400
 0.6860	92.3000
 0.6870	92.4200
 0.6880	92.3100
 0.6890	92.1900
 0.6900	92.1900
 0.6910	92.3600
 0.6920	92.3600
 0.6930	92.1900
 0.6940	92.4200
 0.6950	92.3100
 0.6960	92.2500
 0.6970	92.1800
 0.6980	92.1200
 0.6990	92.3300
 0.7000	92.0900
 0.7010	92.1600
 0.7020	92.3000
 0.7030	92.1900
 0.7040	92.0200
 0.7050	92.1900
 0.7060	92.0700
 0.7070	92.1900
 0.7080	92.1900
 0.7090	92.0800
 0.7100	92.0700
 0.7110	92.0700
 0.7120	92.1900
 0.7130	92.0100
 0.7140	91.9100
 0.7150	92.1300
 0.7160	92.0800
 0.7170	92.2500
 0.7180	92.1900
 0.7190	91.9600
 0.7200	91.9600
 0.7210	92.0100
 0.7220	92.0700
 0.7230	91.9500
 0.7240	91.9100
 0.7250	91.9600
 0.7260	91.8600
 0.7270	91.9600
 0.7280	91.8500
 0.7290	91.6800
 0.7300	91.7400
 0.7310	91.5600
 0.7320	91.6200
 0.7330	91.6700
 0.7340	91.5600
 0.7350	91.6200
 0.7360	91.4500
 0.7370	91.5600
 0.7380	91.5600
 0.7390	91.3300
 0.7400	91.3400
 0.7410	91.2200
 0.7420	91.3300
 0.7430	91.3300
 0.7440	91.1000
 0.7450	91.1100
 0.7460	90.9900
 0.7470	91.0400
 0.7480	91.0500
 0.7490	90.8800
 0.7500	90.9900
 0.7510	90.9300
 0.7520	90.9800
 0.7530	90.9800
 0.7540	91.0400
 0.7550	91.1000
 0.7560	90.9800
 0.7570	90.9300
 0.7580	90.9900
 0.7590	90.9900
 0.7600	91.1000
 0.7610	90.9800
 0.7620	90.7600
 0.7630	90.9400
 0.7640	90.9900
 0.7650	91.0500
 0.7660	90.9300
 0.7670	90.8800
 0.7680	90.9900
 0.7690	90.9900
 0.7700	91.1000
 0.7710	91.0500
 0.7720	90.9900
 0.7730	91.0500
 0.7740	91.0400
 0.7750	91.1600
 0.7760	91.1100
 0.7770	90.9400
 0.7780	91.0500
 0.7790	90.9900
 0.7800	91.2200
 0.7810	91.2800
 0.7820	91.2900
 0.7830	91.4000
 0.7840	91.2300
 0.7850	91.2900
 0.7860	91.4000
 0.7870	91.2800
 0.7880	91.3400
 0.7890	91.2800
 0.7900	91.3400
 0.7910	91.4000
 0.7920	91.3400
 0.7930	91.5100
 0.7940	91.3400
 0.7950	91.4500
 0.7960	91.5600
 0.7970	91.4400
 0.7980	91.4300
 0.7990	91.3000
 0.8000	91.2700
 0.8040	91.2600
 0.8080	91.2700
 0.8120	91.3300
 0.8160	91.3200
 0.8200	91.3300
 0.8240	91.2000
 0.8280	91.1900
 0.8320	91.0600
 0.8360	90.7700
 0.8400	90.7200
 0.8440	90.5900
 0.8480	90.5300
 0.8520	90.5300
 0.8560	90.4700
 0.8600	90.4600
 0.8640	90.3500
 0.8680	90.4600
 0.8720	90.3900
 0.8760	90.3400
 0.8800	90.2300
 0.8840	90.0500
 0.8880	89.9300
 0.8920	89.8600
 0.8960	89.7500
 0.9000	89.6900
 0.9040	89.5600
 0.9080	89.4500
 0.9120	89.3200
 0.9160	89.1500
 0.9200	88.9600
 0.9240	88.7300
 0.9280	88.3700
 0.9320	88.0200
 0.9360	87.5400
 0.9400	86.9300
 0.9440	86.2200
 0.9480	85.3700
 0.9520	84.2500
 0.9560	82.9500
 0.9600	81.6800
 0.9640	80.5500
 0.9680	79.7900
 0.9720	79.2400
 0.9760	79.1800
 0.9800	79.1100
 0.9840	79.1200
 0.9880	79.4100
 0.9920	79.6700
 0.9960	80.0700
 1.0000	80.4100
 1.0040	81.2200
 1.0080	81.8200
 1.0120	82.3100
 1.0160	82.8300
 1.0200	83.3600
 1.0240	83.7100
 1.0280	84.2200
 1.0320	84.6000
 1.0360	85.0600
 1.0400	85.4600
 1.0440	85.8200
 1.0480	85.9500
 1.0520	86.1600
 1.0560	86.3500
 1.0600	86.5600
 1.0640	86.5800
 1.0680	86.6800
 1.0720	86.7000
 1.0760	86.5500
 1.0800	86.4700
 1.0840	86.2600
 1.0880	85.9900
 1.0920	85.7700
 1.0960	85.4100
 1.1000	85.1800
 1.1040	85.0200
 1.1080	84.8100
 1.1120	84.6000
 1.1160	84.3600
 1.1200	84.0500
 1.1240	83.7500
 1.1280	83.2700
 1.1320	82.3900
 1.1360	81.2400
 1.1400	79.6000
 1.1440	77.4200
 1.1480	75.2300
 1.1520	73.0900
 1.1560	71.4700
 1.1600	70.2700
 1.1640	69.4200
 1.1680	68.8300
 1.1720	68.6900
 1.1760	68.8900
 1.1800	69.1700
 1.1840	69.2800
 1.1880	69.1600
 1.1920	69.0600
 1.1960	68.8700
 1.2000	68.8300
 1.2040	68.9200
 1.2080	69.2000
 1.2120	69.2400
 1.2160	69.3000
 1.2200	69.3600
 1.2240	69.2900
 1.2280	69.3400
 1.2320	69.3400
 1.2360	69.4100
 1.2400	69.4700
 1.2440	69.5400
 1.2480	69.6700
 1.2520	69.6600
 1.2560	69.7400
 1.2600	69.8300
 1.2640	70.1800
 1.2680	70.4400
 1.2720	70.4900
 1.2760	70.5700
 1.2800	70.5400
 1.2840	70.3400
 1.2880	70.2100
 1.2920	69.8600
 1.2960	69.3800
 1.3000	68.8200
 1.3040	68.0000
 1.3080	66.9900
 1.3120	65.8400
 1.3160	64.5400
 1.3200	63.1900
 1.3240	61.8000
 1.3280	60.5400
 1.3320	59.4100
 1.3360	58.4300
 1.3400	57.7400
 1.3440	57.2200
 1.3480	56.9500
 1.3520	56.5600
 1.3560	56.3000
 1.3600	56.1000
 1.3640	55.7600
 1.3680	55.1400
 1.3720	54.4300
 1.3760	53.4900
 1.3800	51.8100
 1.3840	49.6300
 1.3880	47.0100
 1.3920	43.7600
 1.3960	40.0800
 1.4000	36.2500
 1.4040	32.4800
 1.4080	28.7600
 1.4120	25.9400
 1.4160	24.0200
 1.4200	23.0000
 1.4240	22.6000
 1.4280	22.4800
 1.4320	22.3500
 1.4360	22.2500
 1.4400	22.0300
 1.4440	22.0300
 1.4480	22.0900
 1.4520	22.2200
 1.4560	22.3500
 1.4600	22.5200
 1.4640	22.5700
 1.4680	22.5300
 1.4720	22.4400
 1.4760	22.5500
 1.4800	22.9600
 1.4840	23.7200
 1.4880	24.5700
 1.4920	25.5600
 1.4960	26.6200
 1.5000	27.4600
 1.5040	28.2400
 1.5080	29.0400
 1.5120	29.6200
 1.5160	30.1200
 1.5200	30.7200
 1.5240	31.2400
 1.5280	31.6600
 1.5320	32.0800
 1.5360	32.4100
 1.5400	32.6600
 1.5440	32.8200
 1.5480	33.0400
 1.5520	33.1600
 1.5560	33.3100
 1.5600	33.3900
 1.5640	33.4700
 1.5680	33.6300
 1.5720	33.6100
 1.5760	33.6100
 1.5800	33.6400
 1.5840	33.7000
 1.5880	33.7000
 1.5920	33.6100
 1.5960	33.6600
 1.6000	33.5800
 1.6040	33.5900
 1.6080	33.6000
 1.6120	33.5600
 1.6160	33.5200
 1.6200	33.4300
 1.6240	33.2900
 1.6280	33.2500
 1.6320	33.1700
 1.6360	33.0800
 1.6400	32.9600
 1.6440	32.7900
 1.6480	32.7000
 1.6520	32.7000
 1.6560	32.6300
 1.6600	32.5800
 1.6640	32.5700
 1.6680	32.5500
 1.6720	32.5600
 1.6760	32.5800
 1.6800	32.4600
 1.6840	32.3700
 1.6880	32.2900
 1.6920	32.0800
 1.6960	31.9500
 1.7000	31.7900
 1.7040	31.5800
 1.7080	31.4200
 1.7120	31.1800
 1.7160	30.9700
 1.7200	30.7600
 1.7240	30.5600
 1.7280	30.4300
 1.7320	30.2200
 1.7360	29.9800
 1.7400	29.7600
 1.7440	29.5300
 1.7480	29.2000
 1.7520	28.9000
 1.7560	28.5900
 1.7600	28.3700
 1.7640	27.9800
 1.7680	27.7000
 1.7720	27.5200
 1.7760	27.5100
 1.7800	27.6600
 1.7840	27.7700
 1.7880	27.9800
 1.7920	28.2200
 1.7960	28.3800
 1.8000	28.6000
 1.8040	28.6700
 1.8080	28.9100
 1.8120	29.0300
 1.8160	29.2200
 1.8200	29.3800
 1.8240	29.3700
 1.8280	29.4100
 1.8320	29.3300
 1.8360	29.1500
 1.8400	28.8600
 1.8440	28.5200
 1.8480	28.0000
 1.8520	27.4500
 1.8560	26.7000
 1.8600	25.6700
 1.8640	24.4400
 1.8680	22.9000
 1.8720	21.3100
 1.8760	19.5300
 1.8800	17.8000
 1.8840	16.0000
 1.8880	14.1200
 1.8920	12.3400
 1.8960	10.6300
 1.9000	 9.1300
 1.9040	 7.9000
 1.9080	 6.9300
 1.9120	 6.2300
 1.9160	 5.8200
 1.9200	 5.5500
 1.9240	 5.4700
 1.9280	 5.4800
 1.9320	 5.6400
 1.9360	 5.8200
 1.9400	 6.0200
 1.9440	 6.2300
 1.9480	 6.4000
 1.9520	 6.6100
 1.9560	 6.7900
 1.9600	 6.9500
 1.9640	 7.1600
 1.9680	 7.3600
 1.9720	 7.6400
 1.9760	 7.9600
 1.9800	 8.1700
 1.9840	 8.5600
 1.9880	 8.7900
 1.9920	 9.1500
 1.9960	 9.4000
 2.0000	 9.7000
 2.0040	10.0600
 2.0080	10.2700
 2.0120	10.5800
 2.0160	10.8500
 2.0200	11.1300
 2.0240	11.2700
 2.0280	11.5600
 2.0320	11.6700
 2.0360	11.8600
 2.0400	11.9300
 2.0440	12.0700
 2.0480	12.1600
 2.0520	12.1700
 2.0560	12.2100
 2.0600	12.2800
 2.0640	12.2800
 2.0680	12.3600
 2.0720	12.3600
 2.0760	12.3700
 2.0800	12.4100
 2.0840	12.4100
 2.0880	12.3400
 2.0920	12.3500
 2.0960	12.3300
 2.1000	12.2300
 2.1040	12.1000
 2.1080	12.0100
 2.1120	11.8600
 2.1160	11.6700
 2.1200	11.5000
 2.1240	11.2000
 2.1280	10.9400
 2.1320	10.8100
 2.1360	10.6700
 2.1400	10.6900
 2.1440	10.7700
 2.1480	11.0400
 2.1520	11.2400
 2.1560	11.6100
 2.1600	12.0000
 2.1640	12.3200
 2.1680	12.6100
 2.1720	13.0000
 2.1760	13.2300
 2.1800	13.3900
 2.1840	13.4600
 2.1880	13.6100
 2.1920	13.6300
 2.1960	13.7900
 2.2000	13.8000
 2.2040	13.8600
 2.2080	13.7800
 2.2120	13.7900
 2.2160	13.7700
 2.2200	13.7000
 2.2240	13.6200
 2.2280	13.5100
 2.2320	13.3500
 2.2360	13.2000
 2.2400	13.0900
 2.2440	13.0000
 2.2480	12.8200
 2.2520	12.7700
 2.2560	12.8000
 2.2600	12.8000
 2.2640	12.7600
 2.2680	12.8600
 2.2720	12.9100
 2.2760	12.9400
 2.2800	12.9700
 2.2840	13.0100
 2.2880	13.0700
 2.2920	13.0600
 2.2960	13.1200
 2.3000	13.2100
 2.3040	13.2100
 2.3080	13.1800
 2.3120	13.2400
 2.3160	13.2400
 2.3200	13.1400
 2.3240	13.1500
 2.3280	13.0200
 2.3320	12.8500
 2.3360	12.8300
 2.3400	12.5500
 2.3440	12.3900
 2.3480	12.1000
 2.3520	11.8900
 2.3560	11.5100
 2.3600	11.2100
 2.3640	10.8100
 2.3680	10.5600
 2.3720	10.1100
 2.3760	 9.7600
 2.3800	 9.3500
 2.3840	 9.0400
 2.3880	 8.7000
 2.3920	 8.2900
 2.3960	 7.9700
 2.4000	 7.6100
 2.4040	 7.3200
 2.4080	 7.0000
 2.4120	 6.6800
 2.4160	 6.4000
 2.4200	 6.1900
 2.4240	 5.9800
 2.4280	 5.8000
 2.4320	 5.6100
 2.4360	 5.5200
 2.4400	 5.4000
 2.4440	 5.2900
 2.4480	 5.2500
 2.4520	 5.1900
 2.4560	 5.0600
 2.4600	 5.0200
 2.4640	 5.0200
 2.4680	 4.8500
 2.4720	 4.8000
 2.4760	 4.7000
 2.4800	 4.6300
 2.4840	 4.6300
 2.4880	 4.5200
 2.4920	 4.4600
 2.4960	 4.4000
 2.5000	 4.3700
