Name: Pyrolusite MnO_2
Type: Mineral
Class: Oxide
Subclass: None
Particle Size: Medium
Sample No.: O-6A
Owner: JPL
Wavelength Range: VSWIR
Origin: Mexico, Chihuahua.
Collection Date: N/A
Description: Particle size was 45-125um. Collected by:  Grieger's Inc. Original ASTER Spectral Library name was jpl.perkin.mineral.oxide.none.medium.o06a.spectrum.txt
Measurement: Hemispherical reflectance
First Column: X
Second Column: Y
X Units: Wavelength (micrometers)
Y Units:Reflectance (percent)
First X Value:  2.5000
Last X Value:  0.4000
Number of X Values: 2101
Additional Information: mineral.oxide.none.medium.vswir.o-6a.jpl.perkin.ancillary.txt

 2.5000	13.0317
 2.4990	12.9505
 2.4980	13.4413
 2.4970	12.9870
 2.4960	13.0460
 2.4950	12.8674
 2.4940	13.1959
 2.4930	12.8253
 2.4920	13.0905
 2.4910	12.9810
 2.4900	13.2600
 2.4890	12.8828
 2.4880	13.0884
 2.4870	13.0373
 2.4860	13.1345
 2.4850	12.9339
 2.4840	13.2949
 2.4830	12.9689
 2.4820	13.0521
 2.4810	12.9510
 2.4800	13.1356
 2.4790	12.9606
 2.4780	13.1552
 2.4770	12.9486
 2.4760	13.1660
 2.4750	13.0524
 2.4740	13.2567
 2.4730	12.8816
 2.4720	13.2183
 2.4710	12.9611
 2.4700	13.2439
 2.4690	12.8731
 2.4680	13.2110
 2.4670	13.0099
 2.4660	13.3435
 2.4650	13.1083
 2.4640	13.1977
 2.4630	13.0843
 2.4620	13.1357
 2.4610	13.0635
 2.4600	13.1198
 2.4590	13.0383
 2.4580	13.1029
 2.4570	13.0585
 2.4560	13.2505
 2.4550	13.1241
 2.4540	13.1279
 2.4530	13.0877
 2.4520	13.2714
 2.4510	13.1808
 2.4500	13.3349
 2.4490	13.1634
 2.4480	13.2654
 2.4470	12.9741
 2.4460	13.0718
 2.4450	13.0473
 2.4440	13.2738
 2.4430	13.1554
 2.4420	13.3326
 2.4410	13.1567
 2.4400	13.2191
 2.4390	13.1071
 2.4380	13.1628
 2.4370	13.0852
 2.4360	13.1948
 2.4350	13.0499
 2.4340	13.2269
 2.4330	13.0842
 2.4320	13.2636
 2.4310	13.1633
 2.4300	13.2015
 2.4290	13.2027
 2.4280	13.2670
 2.4270	13.2040
 2.4260	13.2162
 2.4250	13.1109
 2.4240	13.1793
 2.4230	13.0983
 2.4220	13.2445
 2.4210	13.0864
 2.4200	13.1666
 2.4190	13.1661
 2.4180	13.1956
 2.4170	13.2012
 2.4160	13.1845
 2.4150	13.2411
 2.4140	13.3105
 2.4130	13.1152
 2.4120	13.2368
 2.4110	13.1700
 2.4100	13.2213
 2.4090	13.1456
 2.4080	13.1651
 2.4070	13.2217
 2.4060	13.2753
 2.4050	13.1168
 2.4040	13.1938
 2.4030	13.2313
 2.4020	13.2776
 2.4010	13.1747
 2.4000	13.2302
 2.3990	13.2455
 2.3980	13.3403
 2.3970	13.2137
 2.3960	13.2877
 2.3950	13.2095
 2.3940	13.2770
 2.3930	13.2230
 2.3920	13.2002
 2.3910	13.2615
 2.3900	13.2885
 2.3890	13.2742
 2.3880	13.2840
 2.3870	13.2713
 2.3860	13.2904
 2.3850	13.2958
 2.3840	13.3189
 2.3830	13.2544
 2.3820	13.2626
 2.3810	13.2557
 2.3800	13.3471
 2.3790	13.2940
 2.3780	13.3341
 2.3770	13.3064
 2.3760	13.3258
 2.3750	13.3438
 2.3740	13.3218
 2.3730	13.3016
 2.3720	13.3155
 2.3710	13.2471
 2.3700	13.2816
 2.3690	13.3104
 2.3680	13.3242
 2.3670	13.3420
 2.3660	13.3501
 2.3650	13.3303
 2.3640	13.2838
 2.3630	13.3032
 2.3620	13.3544
 2.3610	13.3544
 2.3600	13.3283
 2.3590	13.3115
 2.3580	13.3177
 2.3570	13.3479
 2.3560	13.3206
 2.3550	13.3172
 2.3540	13.3482
 2.3530	13.3643
 2.3520	13.3569
 2.3510	13.3738
 2.3500	13.3544
 2.3490	13.3717
 2.3480	13.3540
 2.3470	13.3811
 2.3460	13.3585
 2.3450	13.3457
 2.3440	13.3862
 2.3430	13.3865
 2.3420	13.3017
 2.3410	13.3062
 2.3400	13.3229
 2.3390	13.3467
 2.3380	13.3292
 2.3370	13.3777
 2.3360	13.3415
 2.3350	13.3893
 2.3340	13.3323
 2.3330	13.3165
 2.3320	13.3264
 2.3310	13.3306
 2.3300	13.2651
 2.3290	13.2997
 2.3280	13.2831
 2.3270	13.3143
 2.3260	13.2838
 2.3250	13.3042
 2.3240	13.2938
 2.3230	13.3316
 2.3220	13.3048
 2.3210	13.2986
 2.3200	13.2704
 2.3190	13.3594
 2.3180	13.3357
 2.3170	13.3440
 2.3160	13.3087
 2.3150	13.3680
 2.3140	13.3381
 2.3130	13.3246
 2.3120	13.2521
 2.3110	13.3461
 2.3100	13.3166
 2.3090	13.3095
 2.3080	13.2517
 2.3070	13.3282
 2.3060	13.2840
 2.3050	13.3960
 2.3040	13.2784
 2.3030	13.2818
 2.3020	13.3092
 2.3010	13.3767
 2.3000	13.3142
 2.2990	13.4101
 2.2980	13.2995
 2.2970	13.3480
 2.2960	13.2966
 2.2950	13.3502
 2.2940	13.3040
 2.2930	13.3529
 2.2920	13.2996
 2.2910	13.3440
 2.2900	13.3042
 2.2890	13.3406
 2.2880	13.2559
 2.2870	13.3582
 2.2860	13.3119
 2.2850	13.3152
 2.2840	13.2457
 2.2830	13.3924
 2.2820	13.2958
 2.2810	13.3370
 2.2800	13.2727
 2.2790	13.3824
 2.2780	13.2755
 2.2770	13.3660
 2.2760	13.3688
 2.2750	13.3859
 2.2740	13.2815
 2.2730	13.3948
 2.2720	13.3033
 2.2710	13.3486
 2.2700	13.2761
 2.2690	13.3492
 2.2680	13.3189
 2.2670	13.2987
 2.2660	13.3190
 2.2650	13.3851
 2.2640	13.3241
 2.2630	13.3990
 2.2620	13.2691
 2.2610	13.2183
 2.2600	13.1742
 2.2590	13.3108
 2.2580	13.2494
 2.2570	13.2674
 2.2560	13.3002
 2.2550	13.4474
 2.2540	13.3017
 2.2530	13.3110
 2.2520	13.2642
 2.2510	13.3077
 2.2500	13.2924
 2.2490	13.3715
 2.2480	13.2699
 2.2470	13.3740
 2.2460	13.3050
 2.2450	13.3569
 2.2440	13.2763
 2.2430	13.3812
 2.2420	13.2152
 2.2410	13.4523
 2.2400	13.2826
 2.2390	13.3847
 2.2380	13.2455
 2.2370	13.3647
 2.2360	13.2872
 2.2350	13.3586
 2.2340	13.1829
 2.2330	13.4161
 2.2320	13.2902
 2.2310	13.3361
 2.2300	13.3519
 2.2290	13.3722
 2.2280	13.2478
 2.2270	13.4381
 2.2260	13.2935
 2.2250	13.3696
 2.2240	13.1989
 2.2230	13.4160
 2.2220	13.2969
 2.2210	13.3440
 2.2200	13.3350
 2.2190	13.3233
 2.2180	13.2663
 2.2170	13.3389
 2.2160	13.3856
 2.2150	13.4808
 2.2140	13.2008
 2.2130	13.5098
 2.2120	13.3775
 2.2110	13.3333
 2.2100	13.3718
 2.2090	13.4146
 2.2080	13.2151
 2.2070	13.4229
 2.2060	13.2083
 2.2050	13.4393
 2.2040	13.3799
 2.2030	13.4569
 2.2020	13.4019
 2.2010	13.4120
 2.2000	13.2899
 2.1990	13.5012
 2.1980	13.3055
 2.1970	13.4785
 2.1960	13.3920
 2.1950	13.4554
 2.1940	13.3329
 2.1930	13.4999
 2.1920	13.2746
 2.1910	13.3928
 2.1900	13.3854
 2.1890	13.5077
 2.1880	13.3938
 2.1870	13.5082
 2.1860	13.3851
 2.1850	13.3980
 2.1840	13.4520
 2.1830	13.3751
 2.1820	13.3273
 2.1810	13.5192
 2.1800	13.3227
 2.1790	13.4792
 2.1780	13.4444
 2.1770	13.4941
 2.1760	13.4197
 2.1750	13.5279
 2.1740	13.4340
 2.1730	13.4651
 2.1720	13.3812
 2.1710	13.5204
 2.1700	13.3950
 2.1690	13.4489
 2.1680	13.4895
 2.1670	13.5279
 2.1660	13.4847
 2.1650	13.5616
 2.1640	13.4790
 2.1630	13.5560
 2.1620	13.4507
 2.1610	13.5471
 2.1600	13.5072
 2.1590	13.5745
 2.1580	13.5482
 2.1570	13.5727
 2.1560	13.5100
 2.1550	13.5283
 2.1540	13.5167
 2.1530	13.4965
 2.1520	13.5244
 2.1510	13.5620
 2.1500	13.4990
 2.1490	13.5668
 2.1480	13.4787
 2.1470	13.5652
 2.1460	13.5086
 2.1450	13.6068
 2.1440	13.5181
 2.1430	13.5827
 2.1420	13.4533
 2.1410	13.5700
 2.1400	13.5063
 2.1390	13.6022
 2.1380	13.5376
 2.1370	13.5889
 2.1360	13.5232
 2.1350	13.5789
 2.1340	13.5359
 2.1330	13.5081
 2.1320	13.4667
 2.1310	13.4764
 2.1300	13.4346
 2.1290	13.5445
 2.1280	13.4448
 2.1270	13.4871
 2.1260	13.4476
 2.1250	13.5285
 2.1240	13.4336
 2.1230	13.5660
 2.1220	13.4473
 2.1210	13.4826
 2.1200	13.4403
 2.1190	13.4182
 2.1180	13.4103
 2.1170	13.5232
 2.1160	13.4446
 2.1150	13.4150
 2.1140	13.3591
 2.1130	13.3778
 2.1120	13.3594
 2.1110	13.3591
 2.1100	13.3542
 2.1090	13.3489
 2.1080	13.3191
 2.1070	13.3999
 2.1060	13.3430
 2.1050	13.2747
 2.1040	13.3003
 2.1030	13.3570
 2.1020	13.3009
 2.1010	13.3248
 2.1000	13.3008
 2.0990	13.3207
 2.0980	13.2991
 2.0970	13.2938
 2.0960	13.2791
 2.0950	13.3627
 2.0940	13.3161
 2.0930	13.3194
 2.0920	13.2790
 2.0910	13.3166
 2.0900	13.2786
 2.0890	13.2316
 2.0880	13.3128
 2.0870	13.3667
 2.0860	13.3124
 2.0850	13.2356
 2.0840	13.2342
 2.0830	13.2925
 2.0820	13.3043
 2.0810	13.3479
 2.0800	13.3415
 2.0790	13.3064
 2.0780	13.3117
 2.0770	13.3252
 2.0760	13.3016
 2.0750	13.3080
 2.0740	13.3687
 2.0730	13.3890
 2.0720	13.3333
 2.0710	13.3139
 2.0700	13.3314
 2.0690	13.3866
 2.0680	13.4120
 2.0670	13.4034
 2.0660	13.3725
 2.0650	13.3174
 2.0640	13.3183
 2.0630	13.3665
 2.0620	13.3887
 2.0610	13.4072
 2.0600	13.3630
 2.0590	13.3117
 2.0580	13.3413
 2.0570	13.3404
 2.0560	13.3601
 2.0550	13.3166
 2.0540	13.3326
 2.0530	13.3300
 2.0520	13.3634
 2.0510	13.3181
 2.0500	13.3730
 2.0490	13.3398
 2.0480	13.3642
 2.0470	13.3462
 2.0460	13.3869
 2.0450	13.3865
 2.0440	13.4084
 2.0430	13.3296
 2.0420	13.4146
 2.0410	13.4036
 2.0400	13.3822
 2.0390	13.4017
 2.0380	13.4414
 2.0370	13.4062
 2.0360	13.4050
 2.0350	13.3542
 2.0340	13.4022
 2.0330	13.3527
 2.0320	13.3823
 2.0310	13.2999
 2.0300	13.3949
 2.0290	13.3626
 2.0280	13.3917
 2.0270	13.3575
 2.0260	13.4025
 2.0250	13.3464
 2.0240	13.3908
 2.0230	13.3428
 2.0220	13.4337
 2.0210	13.3751
 2.0200	13.3693
 2.0190	13.3511
 2.0180	13.3693
 2.0170	13.2909
 2.0160	13.3987
 2.0150	13.3768
 2.0140	13.4688
 2.0130	13.3418
 2.0120	13.4202
 2.0110	13.3203
 2.0100	13.3689
 2.0090	13.3198
 2.0080	13.4039
 2.0070	13.3767
 2.0060	13.3573
 2.0050	13.3224
 2.0040	13.4208
 2.0030	13.2873
 2.0020	13.3429
 2.0010	13.3534
 2.0000	13.4821
 1.9990	13.3116
 1.9980	13.4545
 1.9970	13.2771
 1.9960	13.3680
 1.9950	13.3266
 1.9940	13.4108
 1.9930	13.3172
 1.9920	13.3663
 1.9910	13.2969
 1.9900	13.4020
 1.9890	13.3576
 1.9880	13.4391
 1.9870	13.3917
 1.9860	13.3317
 1.9850	13.2447
 1.9840	13.3663
 1.9830	13.2650
 1.9820	13.4325
 1.9810	13.3473
 1.9800	13.3597
 1.9790	13.2988
 1.9780	13.3788
 1.9770	13.2696
 1.9760	13.3229
 1.9750	13.2810
 1.9740	13.3963
 1.9730	13.2804
 1.9720	13.3248
 1.9710	13.3711
 1.9700	13.3148
 1.9690	13.2717
 1.9680	13.3356
 1.9670	13.2914
 1.9660	13.3388
 1.9650	13.2601
 1.9640	13.3906
 1.9630	13.2917
 1.9620	13.3283
 1.9610	13.2994
 1.9600	13.3054
 1.9590	13.2627
 1.9580	13.3329
 1.9570	13.2383
 1.9560	13.4018
 1.9550	13.3076
 1.9540	13.2849
 1.9530	13.1817
 1.9520	13.2841
 1.9510	13.2258
 1.9500	13.2942
 1.9490	13.2706
 1.9480	13.4204
 1.9470	13.2635
 1.9460	13.3228
 1.9450	13.2933
 1.9440	13.4239
 1.9430	13.2493
 1.9420	13.3043
 1.9410	13.2035
 1.9400	13.4261
 1.9390	13.2481
 1.9380	13.4589
 1.9370	13.2171
 1.9360	13.3163
 1.9350	13.2067
 1.9340	13.3604
 1.9330	13.2193
 1.9320	13.2976
 1.9310	13.1978
 1.9300	13.3461
 1.9290	13.2206
 1.9280	13.3266
 1.9270	13.3501
 1.9260	13.1671
 1.9250	13.3374
 1.9240	13.3733
 1.9230	13.1911
 1.9220	13.3875
 1.9210	13.2772
 1.9200	13.3360
 1.9190	13.2087
 1.9180	13.3718
 1.9170	13.1738
 1.9160	13.3957
 1.9150	13.2767
 1.9140	13.4160
 1.9130	13.2355
 1.9120	13.3239
 1.9110	13.2613
 1.9100	13.3912
 1.9090	13.2923
 1.9080	13.4408
 1.9070	13.2528
 1.9060	13.3715
 1.9050	13.2023
 1.9040	13.3051
 1.9030	13.2853
 1.9020	13.4101
 1.9010	13.2546
 1.9000	13.3481
 1.8990	13.2308
 1.8980	13.4343
 1.8970	13.2406
 1.8960	13.3497
 1.8950	13.2573
 1.8940	13.3674
 1.8930	13.2473
 1.8920	13.4325
 1.8910	13.2365
 1.8900	13.3358
 1.8890	13.2937
 1.8880	13.3945
 1.8870	13.2581
 1.8860	13.3298
 1.8850	13.3043
 1.8840	13.3089
 1.8830	13.2250
 1.8820	13.3240
 1.8810	13.2952
 1.8800	13.3576
 1.8790	13.3191
 1.8780	13.3880
 1.8770	13.3163
 1.8760	13.3187
 1.8750	13.2285
 1.8740	13.3836
 1.8730	13.2828
 1.8720	13.3757
 1.8710	13.2377
 1.8700	13.3158
 1.8690	13.3118
 1.8680	13.3222
 1.8670	13.3476
 1.8660	13.3898
 1.8650	13.2738
 1.8640	13.3779
 1.8630	13.3452
 1.8620	13.4235
 1.8610	13.3206
 1.8600	13.3566
 1.8590	13.3543
 1.8580	13.4039
 1.8570	13.3893
 1.8560	13.3837
 1.8550	13.3526
 1.8540	13.3962
 1.8530	13.3029
 1.8520	13.4069
 1.8510	13.3882
 1.8500	13.4404
 1.8490	13.3667
 1.8480	13.3454
 1.8470	13.3061
 1.8460	13.3990
 1.8450	13.3759
 1.8440	13.3743
 1.8430	13.3384
 1.8420	13.3745
 1.8410	13.2934
 1.8400	13.3442
 1.8390	13.2960
 1.8380	13.3116
 1.8370	13.2702
 1.8360	13.3326
 1.8350	13.2814
 1.8340	13.3739
 1.8330	13.3613
 1.8320	13.3879
 1.8310	13.3533
 1.8300	13.3920
 1.8290	13.3258
 1.8280	13.3341
 1.8270	13.2950
 1.8260	13.3641
 1.8250	13.2953
 1.8240	13.4077
 1.8230	13.3514
 1.8220	13.3011
 1.8210	13.2804
 1.8200	13.2703
 1.8190	13.2860
 1.8180	13.3730
 1.8170	13.3077
 1.8160	13.2992
 1.8150	13.2722
 1.8140	13.3271
 1.8130	13.3294
 1.8120	13.3644
 1.8110	13.3391
 1.8100	13.3586
 1.8090	13.3067
 1.8080	13.2852
 1.8070	13.2661
 1.8060	13.3324
 1.8050	13.3837
 1.8040	13.3724
 1.8030	13.3447
 1.8020	13.3570
 1.8010	13.2913
 1.8000	13.2684
 1.7990	13.3273
 1.7980	13.3742
 1.7970	13.3544
 1.7960	13.3028
 1.7950	13.3262
 1.7940	13.3721
 1.7930	13.3376
 1.7920	13.3757
 1.7910	13.3630
 1.7900	13.3325
 1.7890	13.3218
 1.7880	13.3323
 1.7870	13.2998
 1.7860	13.3070
 1.7850	13.3230
 1.7840	13.3028
 1.7830	13.3486
 1.7820	13.3335
 1.7810	13.3018
 1.7800	13.3142
 1.7790	13.3104
 1.7780	13.3121
 1.7770	13.3513
 1.7760	13.3320
 1.7750	13.3256
 1.7740	13.3291
 1.7730	13.3241
 1.7720	13.2918
 1.7710	13.3091
 1.7700	13.2696
 1.7690	13.2553
 1.7680	13.2831
 1.7670	13.2637
 1.7660	13.2087
 1.7650	13.2663
 1.7640	13.3164
 1.7630	13.3028
 1.7620	13.3467
 1.7610	13.4049
 1.7600	13.2600
 1.7590	13.2693
 1.7580	13.2969
 1.7570	13.2790
 1.7560	13.2325
 1.7550	13.3160
 1.7540	13.2945
 1.7530	13.2849
 1.7520	13.2830
 1.7510	13.3094
 1.7500	13.2525
 1.7490	13.3172
 1.7480	13.2757
 1.7470	13.2345
 1.7460	13.2016
 1.7450	13.3108
 1.7440	13.2547
 1.7430	13.2958
 1.7420	13.2292
 1.7410	13.3291
 1.7400	13.2697
 1.7390	13.2570
 1.7380	13.2671
 1.7370	13.3006
 1.7360	13.2064
 1.7350	13.2935
 1.7340	13.2612
 1.7330	13.3192
 1.7320	13.2131
 1.7310	13.3121
 1.7300	13.2413
 1.7290	13.2304
 1.7280	13.2584
 1.7270	13.2804
 1.7260	13.1941
 1.7250	13.3186
 1.7240	13.2313
 1.7230	13.3014
 1.7220	13.2473
 1.7210	13.2246
 1.7200	13.2061
 1.7190	13.2777
 1.7180	13.2576
 1.7170	13.2758
 1.7160	13.1848
 1.7150	13.2627
 1.7140	13.1916
 1.7130	13.2750
 1.7120	13.1359
 1.7110	13.2801
 1.7100	13.2156
 1.7090	13.2929
 1.7080	13.1886
 1.7070	13.2559
 1.7060	13.2838
 1.7050	13.2644
 1.7040	13.1767
 1.7030	13.3335
 1.7020	13.2140
 1.7010	13.2570
 1.7000	13.1554
 1.6990	13.2716
 1.6980	13.2158
 1.6970	13.2909
 1.6960	13.1316
 1.6950	13.2758
 1.6940	13.2200
 1.6930	13.2149
 1.6920	13.1747
 1.6910	13.2548
 1.6900	13.2211
 1.6890	13.2633
 1.6880	13.2000
 1.6870	13.2477
 1.6860	13.1828
 1.6850	13.2805
 1.6840	13.2456
 1.6830	13.2341
 1.6820	13.1853
 1.6810	13.2766
 1.6800	13.1504
 1.6790	13.2702
 1.6780	13.1273
 1.6770	13.2389
 1.6760	13.1367
 1.6750	13.3109
 1.6740	13.2035
 1.6730	13.2575
 1.6720	13.1215
 1.6710	13.1857
 1.6700	13.1404
 1.6690	13.2059
 1.6680	13.0560
 1.6670	13.2709
 1.6660	13.2631
 1.6650	13.2010
 1.6640	13.1318
 1.6630	13.2995
 1.6620	13.0781
 1.6610	13.2830
 1.6600	13.1021
 1.6590	13.2873
 1.6580	13.1890
 1.6570	13.2181
 1.6560	13.1883
 1.6550	13.2068
 1.6540	13.1221
 1.6530	13.3292
 1.6520	13.0535
 1.6510	13.2688
 1.6500	13.0771
 1.6490	13.1750
 1.6480	13.1032
 1.6470	13.2190
 1.6460	13.0717
 1.6450	13.2846
 1.6440	13.0746
 1.6430	13.2583
 1.6420	13.2262
 1.6410	13.0629
 1.6400	13.1693
 1.6390	13.1667
 1.6380	13.0665
 1.6370	13.2468
 1.6360	13.1177
 1.6350	13.1718
 1.6340	13.1620
 1.6330	13.2447
 1.6320	13.1722
 1.6310	13.1624
 1.6300	13.1204
 1.6290	13.2020
 1.6280	13.1158
 1.6270	13.2425
 1.6260	13.1420
 1.6250	13.2017
 1.6240	13.1155
 1.6230	13.1576
 1.6220	13.0899
 1.6210	13.1591
 1.6200	13.0766
 1.6190	13.1480
 1.6180	13.0342
 1.6170	13.2444
 1.6160	13.0707
 1.6150	13.1848
 1.6140	13.0742
 1.6130	13.1952
 1.6120	13.0999
 1.6110	13.2250
 1.6100	13.0337
 1.6090	13.1725
 1.6080	13.0934
 1.6070	13.1700
 1.6060	13.0200
 1.6050	13.1561
 1.6040	13.0432
 1.6030	13.1897
 1.6020	13.0247
 1.6010	13.2535
 1.6000	13.0964
 1.5990	13.1968
 1.5980	13.0628
 1.5970	13.1665
 1.5960	13.0759
 1.5950	13.2016
 1.5940	13.1428
 1.5930	13.1720
 1.5920	13.0922
 1.5910	13.1108
 1.5900	13.0810
 1.5890	13.1432
 1.5880	13.0436
 1.5870	13.1806
 1.5860	13.0936
 1.5850	13.1420
 1.5840	13.1660
 1.5830	13.0692
 1.5820	13.0561
 1.5810	13.1590
 1.5800	13.0328
 1.5790	13.1697
 1.5780	13.0641
 1.5770	13.1408
 1.5760	12.9677
 1.5750	13.0950
 1.5740	13.1080
 1.5730	13.1382
 1.5720	13.0331
 1.5710	13.0352
 1.5700	13.0414
 1.5690	13.0932
 1.5680	13.0481
 1.5670	13.1685
 1.5660	13.0395
 1.5650	13.1624
 1.5640	13.0749
 1.5630	13.1489
 1.5620	13.0354
 1.5610	13.0976
 1.5600	13.0038
 1.5590	13.1346
 1.5580	13.0184
 1.5570	13.0491
 1.5560	13.0411
 1.5550	13.0560
 1.5540	12.9828
 1.5530	13.1111
 1.5520	13.0291
 1.5510	13.0817
 1.5500	12.9939
 1.5490	13.0519
 1.5480	12.9954
 1.5470	13.1216
 1.5460	13.0702
 1.5450	13.0761
 1.5440	12.9883
 1.5430	13.0218
 1.5420	13.0228
 1.5410	13.0717
 1.5400	12.9816
 1.5390	13.0206
 1.5380	12.9726
 1.5370	12.9922
 1.5360	13.0473
 1.5350	13.0938
 1.5340	13.0092
 1.5330	13.0368
 1.5320	13.0289
 1.5310	13.0371
 1.5300	12.9843
 1.5290	13.0047
 1.5280	13.0129
 1.5270	13.0090
 1.5260	13.0064
 1.5250	13.0394
 1.5240	12.9628
 1.5230	12.9506
 1.5220	12.9585
 1.5210	13.0611
 1.5200	13.0159
 1.5190	13.0442
 1.5180	13.0276
 1.5170	12.9815
 1.5160	12.9535
 1.5150	12.9812
 1.5140	12.9610
 1.5130	12.9990
 1.5120	12.9886
 1.5110	13.0004
 1.5100	13.0194
 1.5090	13.0076
 1.5080	12.9734
 1.5070	12.9507
 1.5060	12.9439
 1.5050	12.9609
 1.5040	12.9199
 1.5030	12.8986
 1.5020	12.9595
 1.5010	12.9209
 1.5000	12.9226
 1.4990	12.9977
 1.4980	12.9563
 1.4970	12.9017
 1.4960	12.9351
 1.4950	12.9316
 1.4940	12.9251
 1.4930	12.9309
 1.4920	12.9316
 1.4910	12.9554
 1.4900	12.9866
 1.4890	12.9881
 1.4880	12.9010
 1.4870	12.9017
 1.4860	12.9251
 1.4850	12.8825
 1.4840	12.9644
 1.4830	12.9120
 1.4820	12.8869
 1.4810	12.8174
 1.4800	12.8566
 1.4790	12.8481
 1.4780	12.9268
 1.4770	12.9055
 1.4760	12.9010
 1.4750	12.8993
 1.4740	12.9333
 1.4730	12.8890
 1.4720	12.8953
 1.4710	12.9319
 1.4700	12.9558
 1.4690	12.8011
 1.4680	12.7938
 1.4670	12.8081
 1.4660	12.8664
 1.4650	12.8333
 1.4640	12.8891
 1.4630	12.8347
 1.4620	12.8747
 1.4610	12.8460
 1.4600	12.8836
 1.4590	12.8404
 1.4580	12.8079
 1.4570	12.7710
 1.4560	12.8392
 1.4550	12.8099
 1.4540	12.8799
 1.4530	12.7680
 1.4520	12.7847
 1.4510	12.7178
 1.4500	12.7926
 1.4490	12.7256
 1.4480	12.8379
 1.4470	12.8684
 1.4460	12.7724
 1.4450	12.7253
 1.4440	12.7964
 1.4430	12.7265
 1.4420	12.7843
 1.4410	12.7143
 1.4400	12.7911
 1.4390	12.6665
 1.4380	12.7865
 1.4370	12.7352
 1.4360	12.7498
 1.4350	12.6879
 1.4340	12.6853
 1.4330	12.6696
 1.4320	12.6814
 1.4310	12.6219
 1.4300	12.6818
 1.4290	12.6601
 1.4280	12.7782
 1.4270	12.6512
 1.4260	12.6250
 1.4250	12.5937
 1.4240	12.6503
 1.4230	12.5926
 1.4220	12.6769
 1.4210	12.6482
 1.4200	12.6152
 1.4190	12.5493
 1.4180	12.6248
 1.4170	12.5626
 1.4160	12.6723
 1.4150	12.5688
 1.4140	12.6638
 1.4130	12.6088
 1.4120	12.5937
 1.4110	12.5552
 1.4100	12.5427
 1.4090	12.4779
 1.4080	12.5863
 1.4070	12.5310
 1.4060	12.5630
 1.4050	12.4302
 1.4040	12.4913
 1.4030	12.5233
 1.4020	12.5395
 1.4010	12.5016
 1.4000	12.4360
 1.3990	12.4201
 1.3980	12.5011
 1.3970	12.3490
 1.3960	12.5442
 1.3950	12.4280
 1.3940	12.3111
 1.3930	12.2940
 1.3920	12.4221
 1.3910	12.3741
 1.3900	12.4434
 1.3890	12.3017
 1.3880	12.3133
 1.3870	12.2401
 1.3860	12.3924
 1.3850	12.2756
 1.3840	12.3594
 1.3830	12.2990
 1.3820	12.2732
 1.3810	12.1720
 1.3800	12.2510
 1.3790	12.1770
 1.3780	12.2519
 1.3770	12.1761
 1.3760	12.2748
 1.3750	12.0831
 1.3740	12.2775
 1.3730	12.1079
 1.3720	12.2144
 1.3710	12.0280
 1.3700	11.9990
 1.3690	12.0616
 1.3680	12.1683
 1.3670	11.9726
 1.3660	12.1908
 1.3650	11.9278
 1.3640	11.9306
 1.3630	11.9300
 1.3620	12.0248
 1.3610	11.8593
 1.3600	11.9882
 1.3590	11.8273
 1.3580	12.0888
 1.3570	11.8784
 1.3560	11.9742
 1.3550	11.6342
 1.3540	11.9112
 1.3530	11.7378
 1.3520	11.9133
 1.3510	11.7137
 1.3500	11.8760
 1.3490	11.6361
 1.3480	11.7570
 1.3470	11.6575
 1.3460	11.6969
 1.3450	11.6557
 1.3440	11.6990
 1.3430	11.6158
 1.3420	11.6972
 1.3410	11.5620
 1.3400	11.6238
 1.3390	11.5365
 1.3380	11.5775
 1.3370	11.4913
 1.3360	11.5316
 1.3350	11.4421
 1.3340	11.5238
 1.3330	11.3848
 1.3320	11.4753
 1.3310	11.2947
 1.3300	11.4729
 1.3290	11.3785
 1.3280	11.2954
 1.3270	11.2820
 1.3260	11.4323
 1.3250	11.2909
 1.3240	11.2614
 1.3230	11.2650
 1.3220	11.2467
 1.3210	11.1973
 1.3200	11.2707
 1.3190	11.1529
 1.3180	11.1719
 1.3170	11.1126
 1.3160	11.1822
 1.3150	11.0800
 1.3140	11.1199
 1.3130	10.9785
 1.3120	11.0630
 1.3110	10.9656
 1.3100	11.1071
 1.3090	10.9108
 1.3080	11.0395
 1.3070	11.0307
 1.3060	10.9675
 1.3050	10.8316
 1.3040	10.9680
 1.3030	10.8455
 1.3020	10.9431
 1.3010	10.8365
 1.3000	10.8534
 1.2990	10.8187
 1.2980	10.8327
 1.2970	10.7507
 1.2960	10.8517
 1.2950	10.7170
 1.2940	10.7344
 1.2930	10.6295
 1.2920	10.7070
 1.2910	10.6060
 1.2900	10.6839
 1.2890	10.6142
 1.2880	10.6452
 1.2870	10.5922
 1.2860	10.5830
 1.2850	10.5796
 1.2840	10.6235
 1.2830	10.5168
 1.2820	10.5802
 1.2810	10.4525
 1.2800	10.5089
 1.2790	10.4619
 1.2780	10.4451
 1.2770	10.3892
 1.2760	10.4696
 1.2750	10.3765
 1.2740	10.4040
 1.2730	10.3157
 1.2720	10.4018
 1.2710	10.2623
 1.2700	10.3462
 1.2690	10.2559
 1.2680	10.2888
 1.2670	10.2861
 1.2660	10.2955
 1.2650	10.1651
 1.2640	10.1543
 1.2630	10.1527
 1.2620	10.2331
 1.2610	10.1389
 1.2600	10.1716
 1.2590	10.1115
 1.2580	10.1493
 1.2570	10.0847
 1.2560	10.1164
 1.2550	10.0765
 1.2540	10.0894
 1.2530	10.0115
 1.2520	10.0551
 1.2510	 9.9803
 1.2500	 9.9865
 1.2490	 9.9635
 1.2480	 9.9772
 1.2470	 9.9256
 1.2460	 9.9375
 1.2450	 9.8921
 1.2440	 9.9376
 1.2430	 9.8680
 1.2420	 9.8968
 1.2410	 9.8590
 1.2400	 9.8758
 1.2390	 9.8932
 1.2380	 9.8430
 1.2370	 9.7690
 1.2360	 9.8273
 1.2350	 9.8455
 1.2340	 9.7846
 1.2330	 9.7563
 1.2320	 9.8045
 1.2310	 9.7391
 1.2300	 9.7226
 1.2290	 9.7497
 1.2280	 9.7446
 1.2270	 9.6990
 1.2260	 9.6943
 1.2250	 9.6814
 1.2240	 9.6668
 1.2230	 9.6441
 1.2220	 9.6391
 1.2210	 9.5788
 1.2200	 9.6347
 1.2190	 9.6651
 1.2180	 9.6151
 1.2170	 9.5916
 1.2160	 9.5807
 1.2150	 9.5289
 1.2140	 9.5187
 1.2130	 9.5281
 1.2120	 9.5706
 1.2110	 9.5153
 1.2100	 9.4612
 1.2090	 9.5385
 1.2080	 9.5386
 1.2070	 9.5437
 1.2060	 9.4771
 1.2050	 9.4615
 1.2040	 9.4641
 1.2030	 9.4511
 1.2020	 9.4178
 1.2010	 9.4925
 1.2000	 9.4371
 1.1990	 9.4119
 1.1980	 9.4103
 1.1970	 9.3287
 1.1960	 9.3181
 1.1950	 9.3872
 1.1940	 9.3503
 1.1930	 9.3889
 1.1920	 9.3404
 1.1910	 9.3088
 1.1900	 9.2394
 1.1890	 9.2176
 1.1880	 9.1190
 1.1870	 9.2489
 1.1860	 9.2915
 1.1850	 9.3123
 1.1840	 9.2796
 1.1830	 9.2878
 1.1820	 9.2413
 1.1810	 9.2577
 1.1800	 9.2088
 1.1790	 9.2235
 1.1780	 9.1852
 1.1770	 9.2081
 1.1760	 9.1902
 1.1750	 9.1739
 1.1740	 9.2030
 1.1730	 9.2869
 1.1720	 9.2526
 1.1710	 9.2741
 1.1700	 9.1434
 1.1690	 9.1695
 1.1680	 9.1529
 1.1670	 9.2135
 1.1660	 9.0623
 1.1650	 9.0904
 1.1640	 9.0522
 1.1630	 9.0670
 1.1620	 9.0457
 1.1610	 9.1037
 1.1600	 9.0431
 1.1590	 9.0303
 1.1580	 9.0118
 1.1570	 9.0632
 1.1560	 9.0025
 1.1550	 9.0695
 1.1540	 9.0535
 1.1530	 9.0811
 1.1520	 8.9991
 1.1510	 9.0572
 1.1500	 8.9128
 1.1490	 9.0542
 1.1480	 9.0176
 1.1470	 9.0212
 1.1460	 8.8929
 1.1450	 8.9962
 1.1440	 8.9801
 1.1430	 9.0642
 1.1420	 8.9205
 1.1410	 8.9233
 1.1400	 8.9488
 1.1390	 8.9336
 1.1380	 8.8822
 1.1370	 8.9715
 1.1360	 8.9468
 1.1350	 8.9248
 1.1340	 8.7788
 1.1330	 8.9388
 1.1320	 8.9326
 1.1310	 8.9921
 1.1300	 8.8950
 1.1290	 8.9057
 1.1280	 8.8775
 1.1270	 8.9125
 1.1260	 8.7284
 1.1250	 8.8738
 1.1240	 8.8756
 1.1230	 8.8853
 1.1220	 8.8123
 1.1210	 8.8813
 1.1200	 8.8290
 1.1190	 8.8873
 1.1180	 8.7954
 1.1170	 8.7966
 1.1160	 8.7682
 1.1150	 8.8048
 1.1140	 8.8006
 1.1130	 8.9210
 1.1120	 8.7418
 1.1110	 8.9188
 1.1100	 8.8061
 1.1090	 8.8651
 1.1080	 8.7019
 1.1070	 8.8065
 1.1060	 8.7367
 1.1050	 8.8881
 1.1040	 8.7472
 1.1030	 8.8662
 1.1020	 8.7240
 1.1010	 8.7869
 1.1000	 8.7332
 1.0990	 8.7996
 1.0980	 8.6790
 1.0970	 8.7820
 1.0960	 8.7407
 1.0950	 8.7363
 1.0940	 8.8291
 1.0930	 8.8154
 1.0920	 8.6829
 1.0910	 8.7242
 1.0900	 8.7214
 1.0890	 8.7356
 1.0880	 8.6282
 1.0870	 8.7808
 1.0860	 8.6880
 1.0850	 8.7953
 1.0840	 8.6848
 1.0830	 8.7563
 1.0820	 8.7224
 1.0810	 8.8130
 1.0800	 8.6217
 1.0790	 8.8041
 1.0780	 8.6666
 1.0770	 8.7851
 1.0760	 8.5911
 1.0750	 8.7730
 1.0740	 8.6413
 1.0730	 8.7087
 1.0720	 8.6645
 1.0710	 8.8795
 1.0700	 8.3931
 1.0690	 8.7790
 1.0680	 8.6925
 1.0670	 8.7581
 1.0660	 8.7094
 1.0650	 8.6886
 1.0640	 8.6823
 1.0630	 8.7346
 1.0620	 8.6231
 1.0610	 8.6910
 1.0600	 8.6390
 1.0590	 8.7666
 1.0580	 8.5770
 1.0570	 8.7410
 1.0560	 8.5666
 1.0550	 8.7290
 1.0540	 8.6127
 1.0530	 8.6918
 1.0520	 8.5177
 1.0510	 8.6983
 1.0500	 8.6328
 1.0490	 8.6855
 1.0480	 8.6402
 1.0470	 8.7242
 1.0460	 8.5986
 1.0450	 8.7059
 1.0440	 8.6989
 1.0430	 8.5997
 1.0420	 8.5842
 1.0410	 8.6799
 1.0400	 8.6340
 1.0390	 8.6535
 1.0380	 8.5939
 1.0370	 8.7350
 1.0360	 8.4800
 1.0350	 8.6642
 1.0340	 8.5376
 1.0330	 8.6505
 1.0320	 8.6100
 1.0310	 8.6109
 1.0300	 8.5305
 1.0290	 8.6416
 1.0280	 8.5807
 1.0270	 8.7365
 1.0260	 8.6050
 1.0250	 8.6598
 1.0240	 8.5584
 1.0230	 8.6109
 1.0220	 8.5971
 1.0210	 8.7261
 1.0200	 8.5395
 1.0190	 8.6021
 1.0180	 8.6500
 1.0170	 8.6359
 1.0160	 8.6255
 1.0150	 8.6659
 1.0140	 8.5702
 1.0130	 8.6096
 1.0120	 8.5362
 1.0110	 8.6742
 1.0100	 8.5640
 1.0090	 8.6072
 1.0080	 8.6095
 1.0070	 8.6300
 1.0060	 8.5871
 1.0050	 8.5898
 1.0040	 8.5459
 1.0030	 8.7203
 1.0020	 8.5603
 1.0010	 8.6461
 1.0000	 8.6097
 0.9990	 8.5989
 0.9980	 8.5664
 0.9970	 8.6260
 0.9960	 8.6265
 0.9950	 8.7099
 0.9940	 8.5374
 0.9930	 8.6605
 0.9920	 8.5505
 0.9910	 8.6611
 0.9900	 8.6430
 0.9890	 8.6897
 0.9880	 8.5834
 0.9870	 8.6415
 0.9860	 8.6572
 0.9850	 8.6903
 0.9840	 8.5692
 0.9830	 8.5871
 0.9820	 8.5902
 0.9810	 8.6332
 0.9800	 8.6248
 0.9790	 8.6491
 0.9780	 8.5909
 0.9770	 8.5222
 0.9760	 8.5083
 0.9750	 8.6730
 0.9740	 8.6363
 0.9730	 8.6010
 0.9720	 8.5789
 0.9710	 8.6440
 0.9700	 8.5822
 0.9690	 8.6297
 0.9680	 8.6284
 0.9670	 8.6222
 0.9660	 8.5335
 0.9650	 8.6177
 0.9640	 8.6521
 0.9630	 8.6930
 0.9620	 8.6392
 0.9610	 8.6610
 0.9600	 8.6347
 0.9590	 8.6392
 0.9580	 8.6330
 0.9570	 8.6131
 0.9560	 8.5992
 0.9550	 8.6338
 0.9540	 8.5963
 0.9530	 8.6431
 0.9520	 8.6214
 0.9510	 8.6457
 0.9500	 8.6107
 0.9490	 8.6503
 0.9480	 8.6475
 0.9470	 8.6398
 0.9460	 8.6075
 0.9450	 8.6282
 0.9440	 8.5907
 0.9430	 8.6283
 0.9420	 8.6560
 0.9410	 8.6457
 0.9400	 8.5874
 0.9390	 8.6472
 0.9380	 8.6346
 0.9370	 8.6152
 0.9360	 8.6831
 0.9350	 8.6472
 0.9340	 8.6337
 0.9330	 8.6762
 0.9320	 8.6286
 0.9310	 8.6273
 0.9300	 8.6205
 0.9290	 8.5822
 0.9280	 8.6281
 0.9270	 8.6263
 0.9260	 8.6277
 0.9250	 8.6679
 0.9240	 8.6853
 0.9230	 8.6687
 0.9220	 8.6789
 0.9210	 8.6716
 0.9200	 8.6440
 0.9190	 8.6380
 0.9180	 8.6951
 0.9170	 8.6476
 0.9160	 8.6655
 0.9150	 8.6839
 0.9140	 8.6961
 0.9130	 8.6642
 0.9120	 8.6315
 0.9110	 8.5960
 0.9100	 8.6816
 0.9090	 8.7009
 0.9080	 8.7237
 0.9070	 8.7389
 0.9060	 8.6763
 0.9050	 8.5777
 0.9040	 8.6569
 0.9030	 8.6339
 0.9020	 8.6895
 0.9010	 8.6629
 0.9000	 8.6394
 0.8990	 8.6392
 0.8980	 8.6575
 0.8970	 8.6231
 0.8960	 8.6898
 0.8950	 8.6727
 0.8940	 8.7176
 0.8930	 8.6453
 0.8920	 8.6554
 0.8910	 8.6706
 0.8900	 8.7082
 0.8890	 8.6198
 0.8880	 8.6643
 0.8870	 8.6972
 0.8860	 8.6735
 0.8850	 8.6400
 0.8840	 8.6418
 0.8830	 8.6255
 0.8820	 8.7001
 0.8810	 8.6211
 0.8800	 8.6828
 0.8790	 8.6584
 0.8780	 8.6481
 0.8770	 8.6081
 0.8760	 8.6912
 0.8750	 8.6236
 0.8740	 8.6815
 0.8730	 8.6910
 0.8720	 8.7097
 0.8710	 8.7122
 0.8700	 8.7253
 0.8690	 8.6043
 0.8680	 8.6729
 0.8670	 8.6332
 0.8660	 8.6878
 0.8650	 8.6307
 0.8640	 8.6803
 0.8630	 8.6348
 0.8620	 8.7291
 0.8610	 8.6170
 0.8600	 8.7856
 0.8590	 8.8546
 0.8580	 8.8476
 0.8570	 8.8607
 0.8560	 8.8602
 0.8550	 8.8608
 0.8540	 8.8683
 0.8530	 8.8613
 0.8520	 8.8647
 0.8510	 8.8756
 0.8500	 8.8702
 0.8490	 8.8858
 0.8480	 8.8805
 0.8470	 8.8817
 0.8460	 8.8888
 0.8450	 8.8821
 0.8440	 8.8883
 0.8430	 8.8787
 0.8420	 8.8767
 0.8410	 8.8928
 0.8400	 8.8899
 0.8390	 8.8910
 0.8380	 8.8913
 0.8370	 8.8955
 0.8360	 8.8949
 0.8350	 8.9039
 0.8340	 8.8977
 0.8330	 8.9041
 0.8320	 8.9073
 0.8310	 8.9061
 0.8300	 8.9103
 0.8290	 8.9079
 0.8280	 8.9120
 0.8270	 8.9102
 0.8260	 8.9302
 0.8250	 8.9324
 0.8240	 8.9216
 0.8230	 8.9084
 0.8220	 8.9270
 0.8210	 8.9294
 0.8200	 8.9266
 0.8190	 8.9329
 0.8180	 8.9390
 0.8170	 8.9415
 0.8160	 8.9298
 0.8150	 8.9443
 0.8140	 8.9354
 0.8130	 8.9521
 0.8120	 8.9447
 0.8110	 8.9491
 0.8100	 8.9479
 0.8090	 8.9432
 0.8080	 8.9410
 0.8070	 8.9502
 0.8060	 8.9620
 0.8050	 8.9491
 0.8040	 8.9585
 0.8030	 8.9625
 0.8020	 8.9592
 0.8010	 8.9665
 0.8000	 8.9630
 0.7990	 8.9670
 0.7980	 8.9717
 0.7970	 8.9635
 0.7960	 8.9580
 0.7950	 8.9639
 0.7940	 8.9684
 0.7930	 8.9690
 0.7920	 8.9728
 0.7910	 8.9816
 0.7900	 8.9709
 0.7890	 8.9703
 0.7880	 8.9707
 0.7870	 8.9671
 0.7860	 8.9731
 0.7850	 8.9888
 0.7840	 8.9868
 0.7830	 8.9806
 0.7820	 8.9755
 0.7810	 8.9867
 0.7800	 8.9811
 0.7790	 8.9843
 0.7780	 8.9842
 0.7770	 8.9846
 0.7760	 8.9881
 0.7750	 8.9841
 0.7740	 8.9766
 0.7730	 8.9895
 0.7720	 8.9896
 0.7710	 8.9897
 0.7700	 8.9887
 0.7690	 8.9986
 0.7680	 8.9859
 0.7670	 8.9853
 0.7660	 8.9968
 0.7650	 8.9893
 0.7640	 9.0050
 0.7630	 9.0023
 0.7620	 9.0024
 0.7610	 9.0107
 0.7600	 9.0122
 0.7590	 9.0065
 0.7580	 9.0149
 0.7570	 9.0168
 0.7560	 9.0142
 0.7550	 9.0214
 0.7540	 9.0127
 0.7530	 9.0190
 0.7520	 9.0202
 0.7510	 9.0204
 0.7500	 9.0237
 0.7490	 9.0253
 0.7480	 9.0236
 0.7470	 9.0299
 0.7460	 9.0223
 0.7450	 9.0320
 0.7440	 9.0345
 0.7430	 9.0389
 0.7420	 9.0397
 0.7410	 9.0379
 0.7400	 9.0446
 0.7390	 9.0480
 0.7380	 9.0445
 0.7370	 9.0480
 0.7360	 9.0492
 0.7350	 9.0510
 0.7340	 9.0547
 0.7330	 9.0601
 0.7320	 9.0641
 0.7310	 9.0638
 0.7300	 9.0747
 0.7290	 9.0692
 0.7280	 9.0725
 0.7270	 9.0723
 0.7260	 9.0780
 0.7250	 9.0819
 0.7240	 9.0831
 0.7230	 9.0879
 0.7220	 9.0915
 0.7210	 9.0954
 0.7200	 9.0957
 0.7190	 9.0984
 0.7180	 9.1020
 0.7170	 9.1105
 0.7160	 9.1146
 0.7150	 9.1098
 0.7140	 9.1106
 0.7130	 9.1182
 0.7120	 9.1222
 0.7110	 9.1183
 0.7100	 9.1267
 0.7090	 9.1319
 0.7080	 9.1345
 0.7070	 9.1303
 0.7060	 9.1255
 0.7050	 9.1285
 0.7040	 9.1320
 0.7030	 9.1356
 0.7020	 9.1411
 0.7010	 9.1417
 0.7000	 9.1452
 0.6990	 9.1517
 0.6980	 9.1550
 0.6970	 9.1549
 0.6960	 9.1599
 0.6950	 9.1655
 0.6940	 9.1739
 0.6930	 9.1760
 0.6920	 9.1823
 0.6910	 9.1852
 0.6900	 9.1864
 0.6890	 9.1929
 0.6880	 9.1980
 0.6870	 9.1982
 0.6860	 9.2033
 0.6850	 9.2094
 0.6840	 9.2129
 0.6830	 9.2179
 0.6820	 9.2238
 0.6810	 9.2258
 0.6800	 9.2336
 0.6790	 9.2373
 0.6780	 9.2428
 0.6770	 9.2461
 0.6760	 9.2494
 0.6750	 9.2529
 0.6740	 9.2639
 0.6730	 9.2687
 0.6720	 9.2749
 0.6710	 9.2776
 0.6700	 9.2809
 0.6690	 9.2879
 0.6680	 9.2888
 0.6670	 9.2953
 0.6660	 9.2978
 0.6650	 9.3026
 0.6640	 9.3121
 0.6630	 9.3194
 0.6620	 9.3187
 0.6610	 9.3242
 0.6600	 9.3305
 0.6590	 9.3350
 0.6580	 9.3408
 0.6570	 9.3438
 0.6560	 9.3540
 0.6550	 9.3609
 0.6540	 9.3623
 0.6530	 9.3673
 0.6520	 9.3743
 0.6510	 9.3776
 0.6500	 9.3840
 0.6490	 9.3904
 0.6480	 9.3936
 0.6470	 9.4000
 0.6460	 9.4067
 0.6450	 9.4132
 0.6440	 9.4190
 0.6430	 9.4243
 0.6420	 9.4279
 0.6410	 9.4339
 0.6400	 9.4412
 0.6390	 9.4469
 0.6380	 9.4527
 0.6370	 9.4562
 0.6360	 9.4613
 0.6350	 9.4699
 0.6340	 9.4755
 0.6330	 9.4803
 0.6320	 9.4844
 0.6310	 9.4882
 0.6300	 9.4949
 0.6290	 9.5026
 0.6280	 9.5089
 0.6270	 9.5145
 0.6260	 9.5209
 0.6250	 9.5299
 0.6240	 9.5365
 0.6230	 9.5425
 0.6220	 9.5462
 0.6210	 9.5516
 0.6200	 9.5623
 0.6190	 9.5665
 0.6180	 9.5685
 0.6170	 9.5759
 0.6160	 9.5807
 0.6150	 9.5864
 0.6140	 9.5932
 0.6130	 9.5987
 0.6120	 9.6074
 0.6110	 9.6127
 0.6100	 9.6178
 0.6090	 9.6275
 0.6080	 9.6334
 0.6070	 9.6366
 0.6060	 9.6438
 0.6050	 9.6504
 0.6040	 9.6567
 0.6030	 9.6649
 0.6020	 9.6690
 0.6010	 9.6725
 0.6000	 9.6795
 0.5990	 9.6862
 0.5980	 9.6964
 0.5970	 9.7044
 0.5960	 9.7101
 0.5950	 9.7192
 0.5940	 9.7284
 0.5930	 9.7367
 0.5920	 9.7424
 0.5910	 9.7469
 0.5900	 9.7526
 0.5890	 9.7605
 0.5880	 9.7695
 0.5870	 9.7728
 0.5860	 9.7751
 0.5850	 9.7784
 0.5840	 9.7866
 0.5830	 9.7921
 0.5820	 9.7977
 0.5810	 9.8075
 0.5800	 9.8141
 0.5790	 9.8210
 0.5780	 9.8262
 0.5770	 9.8325
 0.5760	 9.8394
 0.5750	 9.8452
 0.5740	 9.8500
 0.5730	 9.8543
 0.5720	 9.8639
 0.5710	 9.8699
 0.5700	 9.8705
 0.5690	 9.8774
 0.5680	 9.8874
 0.5670	 9.8928
 0.5660	 9.8973
 0.5650	 9.9047
 0.5640	 9.9093
 0.5630	 9.9183
 0.5620	 9.9233
 0.5610	 9.9282
 0.5600	 9.9357
 0.5590	 9.9385
 0.5580	 9.9448
 0.5570	 9.9501
 0.5560	 9.9570
 0.5550	 9.9642
 0.5540	 9.9706
 0.5530	 9.9745
 0.5520	 9.9797
 0.5510	 9.9877
 0.5500	 9.9937
 0.5490	 9.9978
 0.5480	10.0043
 0.5470	10.0116
 0.5460	10.0190
 0.5450	10.0230
 0.5440	10.0262
 0.5430	10.0369
 0.5420	10.0400
 0.5410	10.0452
 0.5400	10.0520
 0.5390	10.0579
 0.5380	10.0644
 0.5370	10.0711
 0.5360	10.0765
 0.5350	10.0797
 0.5340	10.0865
 0.5330	10.0912
 0.5320	10.0971
 0.5310	10.1029
 0.5300	10.1091
 0.5290	10.1155
 0.5280	10.1221
 0.5270	10.1280
 0.5260	10.1351
 0.5250	10.1386
 0.5240	10.1426
 0.5230	10.1509
 0.5220	10.1577
 0.5210	10.1618
 0.5200	10.1667
 0.5190	10.1759
 0.5180	10.1810
 0.5170	10.1876
 0.5160	10.1888
 0.5150	10.1973
 0.5140	10.2014
 0.5130	10.2097
 0.5120	10.2148
 0.5110	10.2207
 0.5100	10.2256
 0.5090	10.2320
 0.5080	10.2385
 0.5070	10.2463
 0.5060	10.2567
 0.5050	10.2580
 0.5040	10.2662
 0.5030	10.2648
 0.5020	10.2712
 0.5010	10.2796
 0.5000	10.2870
 0.4990	10.2862
 0.4980	10.2959
 0.4970	10.2946
 0.4960	10.3029
 0.4950	10.3106
 0.4940	10.3143
 0.4930	10.3153
 0.4920	10.3181
 0.4910	10.3234
 0.4900	10.3303
 0.4890	10.3350
 0.4880	10.3328
 0.4870	10.3357
 0.4860	10.3443
 0.4850	10.3406
 0.4840	10.3494
 0.4830	10.3495
 0.4820	10.3520
 0.4810	10.3510
 0.4800	10.3560
 0.4790	10.3564
 0.4780	10.3601
 0.4770	10.3655
 0.4760	10.3632
 0.4750	10.3670
 0.4740	10.3732
 0.4730	10.3768
 0.4720	10.3758
 0.4710	10.3801
 0.4700	10.3822
 0.4690	10.3842
 0.4680	10.3870
 0.4670	10.3901
 0.4660	10.3880
 0.4650	10.3949
 0.4640	10.3954
 0.4630	10.4037
 0.4620	10.4003
 0.4610	10.3997
 0.4600	10.4027
 0.4590	10.4062
 0.4580	10.4088
 0.4570	10.4103
 0.4560	10.4152
 0.4550	10.4181
 0.4540	10.4230
 0.4530	10.4211
 0.4520	10.4220
 0.4510	10.4187
 0.4500	10.4158
 0.4490	10.4172
 0.4480	10.4196
 0.4470	10.4235
 0.4460	10.4218
 0.4450	10.4216
 0.4440	10.4258
 0.4430	10.4217
 0.4420	10.4184
 0.4410	10.4215
 0.4400	10.4179
 0.4390	10.4243
 0.4380	10.4192
 0.4370	10.4177
 0.4360	10.4192
 0.4350	10.4176
 0.4340	10.4173
 0.4330	10.4169
 0.4320	10.4170
 0.4310	10.4140
 0.4300	10.4090
 0.4290	10.4073
 0.4280	10.4054
 0.4270	10.4028
 0.4260	10.4028
 0.4250	10.4029
 0.4240	10.4004
 0.4230	10.4007
 0.4220	10.3986
 0.4210	10.3945
 0.4200	10.3920
 0.4190	10.3900
 0.4180	10.3856
 0.4170	10.3856
 0.4160	10.3841
 0.4150	10.3802
 0.4140	10.3805
 0.4130	10.3775
 0.4120	10.3727
 0.4110	10.3708
 0.4100	10.3665
 0.4090	10.3643
 0.4080	10.3634
 0.4070	10.3584
 0.4060	10.3577
 0.4050	10.3527
 0.4040	10.3512
 0.4030	10.3470
 0.4020	10.3419
 0.4010	10.3416
 0.4000	10.3405
