Name: Vermiculite (Mg,Fe^2+,Al)_3(Al,Si)_4O_10(OH)_2.4H_2O
Type: Mineral
Class: Silicate
Subclass: Phyllosilicate
Particle Size: Coarse
Sample No.: PS-18A
Owner: JPL
Wavelength Range: VSWIR
Origin: USA, Texas, Llano County, Llano
Collection Date: N/A
Description: Particle size was 125-500um.Collected by Clay Mineral Society Original ASTER Spectral Library name was jpl.beckman.mineral.silicate.phyllosilicate.coarse.ps18a.spectrum.txt
Measurement: Hemispherical reflectance
First Column: X
Second Column: Y
X Units: Wavelength (micrometers)
Y Units:Reflectance (percent)
First X Value:  0.4000
Last X Value:  2.5000
Number of X Values: 826
Additional Information: mineral.silicate.phyllosilicate.coarse.vswir.ps-18a.jpl.beckman.ancillary.txt

 0.4000	49.1600
 0.4010	49.2100
 0.4020	49.3900
 0.4030	49.6700
 0.4040	50.0800
 0.4050	50.1300
 0.4060	50.1300
 0.4070	50.1900
 0.4080	50.4100
 0.4090	50.8100
 0.4100	50.9800
 0.4110	50.9800
 0.4120	51.0400
 0.4130	51.2700
 0.4140	51.6200
 0.4150	51.6200
 0.4160	51.7800
 0.4170	51.7300
 0.4180	51.8400
 0.4190	52.2400
 0.4200	52.3000
 0.4210	52.4100
 0.4220	52.4700
 0.4230	52.4700
 0.4240	52.7600
 0.4250	52.9900
 0.4260	53.1000
 0.4270	53.2600
 0.4280	53.1600
 0.4290	53.3800
 0.4300	53.6600
 0.4310	53.9500
 0.4320	53.8900
 0.4330	53.9500
 0.4340	54.0700
 0.4350	54.4100
 0.4360	54.8000
 0.4370	54.8000
 0.4380	54.8000
 0.4390	54.8000
 0.4400	55.2100
 0.4410	55.4300
 0.4420	55.4900
 0.4430	55.4900
 0.4440	55.6100
 0.4450	55.7800
 0.4460	56.2900
 0.4470	56.3400
 0.4480	56.3400
 0.4490	56.2900
 0.4500	56.4600
 0.4510	56.7500
 0.4520	56.9200
 0.4530	56.9200
 0.4540	56.8600
 0.4550	56.9200
 0.4560	57.2100
 0.4570	57.4400
 0.4580	57.5600
 0.4590	57.6200
 0.4600	57.5000
 0.4610	57.5600
 0.4620	57.7800
 0.4630	57.7300
 0.4640	57.9000
 0.4650	58.1300
 0.4660	58.4200
 0.4670	58.5400
 0.4680	58.3600
 0.4690	58.4800
 0.4700	58.5900
 0.4710	59.0500
 0.4720	59.1100
 0.4730	58.9400
 0.4740	59.0500
 0.4750	59.1700
 0.4760	59.5100
 0.4770	59.6900
 0.4780	59.5800
 0.4790	59.5800
 0.4800	59.6400
 0.4810	59.9700
 0.4820	60.2600
 0.4830	60.2100
 0.4840	60.2100
 0.4850	60.2700
 0.4860	60.5600
 0.4870	60.7300
 0.4880	60.8400
 0.4890	60.7900
 0.4900	60.7900
 0.4910	60.9000
 0.4920	61.1300
 0.4930	61.4800
 0.4940	61.4200
 0.4950	61.4200
 0.4960	61.5900
 0.4970	61.7100
 0.4980	62.1200
 0.4990	62.2200
 0.5000	62.1200
 0.5010	62.1700
 0.5020	62.2800
 0.5030	62.6800
 0.5040	62.8500
 0.5050	62.8500
 0.5060	62.8000
 0.5070	62.9100
 0.5080	63.2000
 0.5090	63.4900
 0.5100	63.5400
 0.5110	63.4900
 0.5120	63.5400
 0.5130	63.7700
 0.5140	63.9900
 0.5150	63.9900
 0.5160	64.0500
 0.5170	64.1700
 0.5180	64.2800
 0.5190	64.5700
 0.5200	64.6300
 0.5210	64.6300
 0.5220	64.6300
 0.5230	64.7400
 0.5240	65.0800
 0.5250	65.1400
 0.5260	65.2000
 0.5270	65.2600
 0.5280	65.4300
 0.5290	65.5300
 0.5300	65.5900
 0.5310	65.5900
 0.5320	65.4800
 0.5330	65.5900
 0.5340	65.8200
 0.5350	65.9900
 0.5360	65.9400
 0.5370	65.9400
 0.5380	66.0500
 0.5390	66.3400
 0.5400	66.6800
 0.5410	66.5100
 0.5420	66.3400
 0.5430	66.4500
 0.5440	66.6300
 0.5450	66.9100
 0.5460	66.9100
 0.5470	66.8000
 0.5480	66.8600
 0.5490	67.0300
 0.5500	67.3600
 0.5510	67.2500
 0.5520	67.2500
 0.5530	67.4200
 0.5540	67.5300
 0.5550	67.7600
 0.5560	67.7100
 0.5570	67.6500
 0.5580	67.6500
 0.5590	67.8200
 0.5600	67.9400
 0.5610	68.2800
 0.5620	68.1700
 0.5630	68.0500
 0.5640	68.1700
 0.5650	68.4500
 0.5660	68.5700
 0.5670	68.4500
 0.5680	68.2800
 0.5690	68.4500
 0.5700	68.6800
 0.5710	68.8500
 0.5720	68.7900
 0.5730	68.5100
 0.5740	68.4000
 0.5750	68.6800
 0.5760	68.8500
 0.5770	68.7400
 0.5780	68.6300
 0.5790	68.6300
 0.5800	68.8500
 0.5810	69.1300
 0.5820	69.0200
 0.5830	68.8500
 0.5840	68.7900
 0.5850	68.8500
 0.5860	69.1900
 0.5870	69.2500
 0.5880	69.1900
 0.5890	69.1300
 0.5900	69.3100
 0.5910	69.4800
 0.5920	69.5300
 0.5930	69.3600
 0.5940	69.2500
 0.5950	69.4800
 0.5960	69.7600
 0.5970	69.7600
 0.5980	69.7100
 0.5990	69.6500
 0.6000	69.7600
 0.6010	70.0500
 0.6020	69.9900
 0.6030	69.8200
 0.6040	69.7100
 0.6050	69.9400
 0.6060	70.2800
 0.6070	70.2200
 0.6080	70.0500
 0.6090	69.9400
 0.6100	70.1700
 0.6110	70.4000
 0.6120	70.2800
 0.6130	70.2200
 0.6140	70.1700
 0.6150	70.4000
 0.6160	70.5600
 0.6170	70.5000
 0.6180	70.4400
 0.6190	70.3400
 0.6200	70.4400
 0.6210	70.5000
 0.6220	70.6200
 0.6230	70.5600
 0.6240	70.4400
 0.6250	70.6200
 0.6260	70.7900
 0.6270	70.9600
 0.6280	70.7900
 0.6290	70.6700
 0.6300	70.7900
 0.6310	70.9600
 0.6320	71.0800
 0.6330	70.9600
 0.6340	70.9000
 0.6350	70.9000
 0.6360	71.0200
 0.6370	71.1300
 0.6380	71.1300
 0.6390	71.0800
 0.6400	71.1300
 0.6410	71.2500
 0.6420	71.4200
 0.6430	71.4800
 0.6440	71.2500
 0.6450	71.1300
 0.6460	71.3100
 0.6470	71.6500
 0.6480	71.4800
 0.6490	71.4200
 0.6500	71.3600
 0.6510	71.5900
 0.6520	71.8200
 0.6530	71.7100
 0.6540	71.5900
 0.6550	71.5900
 0.6560	71.6500
 0.6570	71.9400
 0.6580	71.9400
 0.6590	71.8200
 0.6600	71.6500
 0.6610	71.8200
 0.6620	72.1000
 0.6630	72.2100
 0.6640	72.0500
 0.6650	71.8200
 0.6660	71.9900
 0.6670	72.1600
 0.6680	72.4400
 0.6690	72.2700
 0.6700	72.0500
 0.6710	72.1600
 0.6720	72.2700
 0.6730	72.5600
 0.6740	72.3300
 0.6750	72.1000
 0.6760	72.2700
 0.6770	72.4400
 0.6780	72.6200
 0.6790	72.5600
 0.6800	72.3300
 0.6810	72.3900
 0.6820	72.6200
 0.6830	72.7900
 0.6840	72.6700
 0.6850	72.4400
 0.6860	72.3900
 0.6870	72.5600
 0.6880	72.7900
 0.6890	72.6700
 0.6900	72.6200
 0.6910	72.5600
 0.6920	72.7300
 0.6930	72.9000
 0.6940	72.9000
 0.6950	72.8500
 0.6960	72.7300
 0.6970	72.9000
 0.6980	72.9600
 0.6990	72.9000
 0.7000	72.7900
 0.7010	72.6200
 0.7020	72.8500
 0.7030	72.9600
 0.7040	73.1900
 0.7050	73.1900
 0.7060	72.9600
 0.7070	72.9600
 0.7080	73.0800
 0.7090	73.3100
 0.7100	73.3100
 0.7110	72.9600
 0.7120	73.0800
 0.7130	73.1300
 0.7140	73.3100
 0.7150	73.5400
 0.7160	73.3600
 0.7170	73.3600
 0.7180	73.3600
 0.7190	73.5900
 0.7200	73.5400
 0.7210	73.4200
 0.7220	73.4800
 0.7230	73.3600
 0.7240	73.5400
 0.7250	73.5900
 0.7260	73.4800
 0.7270	73.4200
 0.7280	73.4200
 0.7290	73.5900
 0.7300	73.7100
 0.7310	73.6500
 0.7320	73.5900
 0.7330	73.4800
 0.7340	73.7100
 0.7350	73.7600
 0.7360	73.7600
 0.7370	73.6500
 0.7380	73.3600
 0.7390	73.6500
 0.7400	73.9300
 0.7410	73.8700
 0.7420	73.7600
 0.7430	73.5900
 0.7440	73.8100
 0.7450	73.9800
 0.7460	73.9300
 0.7470	73.8100
 0.7480	73.7100
 0.7490	73.9300
 0.7500	74.1000
 0.7510	73.9800
 0.7520	73.9300
 0.7530	73.7600
 0.7540	74.0400
 0.7550	74.2700
 0.7560	74.1000
 0.7570	73.8700
 0.7580	73.7100
 0.7590	73.9300
 0.7600	74.1600
 0.7610	74.1000
 0.7620	74.0400
 0.7630	73.7600
 0.7640	74.0400
 0.7650	74.2100
 0.7660	74.0400
 0.7670	73.9800
 0.7680	73.7600
 0.7690	74.1600
 0.7700	74.3900
 0.7710	74.2100
 0.7720	74.1000
 0.7730	73.8100
 0.7740	74.1000
 0.7750	74.3900
 0.7760	74.2100
 0.7770	74.1600
 0.7780	73.9800
 0.7790	74.1000
 0.7800	74.3300
 0.7810	74.3900
 0.7820	74.2100
 0.7830	74.0400
 0.7840	73.9800
 0.7850	74.2100
 0.7860	74.5000
 0.7870	74.3900
 0.7880	74.0400
 0.7890	74.1600
 0.7900	74.2700
 0.7910	74.4400
 0.7920	74.4400
 0.7930	74.1600
 0.7940	74.2700
 0.7950	74.2700
 0.7960	74.5000
 0.7970	74.5600
 0.7980	74.3900
 0.7990	74.7300
 0.8000	74.7100
 0.8040	74.6200
 0.8080	74.7300
 0.8120	74.8500
 0.8160	74.5600
 0.8200	74.6700
 0.8240	74.7300
 0.8280	74.6700
 0.8320	74.5600
 0.8360	74.6200
 0.8400	74.6700
 0.8440	74.5000
 0.8480	74.6200
 0.8520	74.5000
 0.8560	74.5600
 0.8600	74.2700
 0.8640	74.3900
 0.8680	74.2700
 0.8720	74.3300
 0.8760	74.1000
 0.8800	74.2100
 0.8840	74.1000
 0.8880	73.9300
 0.8920	74.0400
 0.8960	73.9800
 0.9000	73.8700
 0.9040	73.7100
 0.9080	73.6500
 0.9120	73.7100
 0.9160	73.7600
 0.9200	73.5400
 0.9240	73.4200
 0.9280	73.3600
 0.9320	73.2500
 0.9360	73.0200
 0.9400	72.6700
 0.9440	72.3300
 0.9480	71.8800
 0.9520	72.0500
 0.9560	72.2100
 0.9600	72.3300
 0.9640	72.3300
 0.9680	72.4400
 0.9720	72.5000
 0.9760	72.5000
 0.9800	72.3300
 0.9840	72.3900
 0.9880	72.3300
 0.9920	72.4400
 0.9960	72.3300
 1.0000	72.3900
 1.0040	72.2700
 1.0080	72.3900
 1.0120	72.3900
 1.0160	72.5000
 1.0200	72.2100
 1.0240	72.3900
 1.0280	72.2700
 1.0320	72.3900
 1.0360	72.3300
 1.0400	72.2700
 1.0440	72.4400
 1.0480	72.3900
 1.0520	72.5000
 1.0560	72.5000
 1.0600	72.6200
 1.0640	72.6200
 1.0680	72.5600
 1.0720	72.6200
 1.0760	72.6700
 1.0800	72.6700
 1.0840	72.7300
 1.0880	72.7900
 1.0920	72.7900
 1.0960	72.8500
 1.1000	73.0200
 1.1040	72.8500
 1.1080	73.0200
 1.1120	73.0200
 1.1160	73.0200
 1.1200	72.9600
 1.1240	73.0200
 1.1280	73.1300
 1.1320	73.0800
 1.1360	72.9600
 1.1400	72.9000
 1.1440	72.8500
 1.1480	72.7300
 1.1520	72.6700
 1.1560	72.7200
 1.1600	72.6600
 1.1640	72.5400
 1.1680	72.5300
 1.1720	72.5900
 1.1760	72.5900
 1.1800	72.6900
 1.1840	72.7400
 1.1880	72.7900
 1.1920	72.7900
 1.1960	72.8300
 1.2000	72.9500
 1.2040	73.0600
 1.2080	73.0100
 1.2120	73.0100
 1.2160	73.2300
 1.2200	73.0600
 1.2240	73.2300
 1.2280	73.2300
 1.2320	73.2800
 1.2360	73.2300
 1.2400	73.3400
 1.2440	73.4600
 1.2480	73.4600
 1.2520	73.3400
 1.2560	73.4000
 1.2600	73.4500
 1.2640	73.3200
 1.2680	73.2500
 1.2720	73.2000
 1.2760	72.8500
 1.2800	72.9000
 1.2840	72.7800
 1.2880	73.0000
 1.2920	73.4000
 1.2960	73.5000
 1.3000	73.7800
 1.3040	73.8300
 1.3080	74.0500
 1.3120	73.8800
 1.3160	73.9300
 1.3200	73.9200
 1.3240	73.8600
 1.3280	73.7400
 1.3320	73.5700
 1.3360	73.6700
 1.3400	73.3300
 1.3440	73.2000
 1.3480	72.7400
 1.3520	72.0000
 1.3560	71.1400
 1.3600	70.8100
 1.3640	70.6400
 1.3680	70.5200
 1.3720	69.6100
 1.3760	66.7600
 1.3800	61.4700
 1.3840	55.7200
 1.3880	52.7000
 1.3920	52.7000
 1.3960	54.4700
 1.4000	56.4600
 1.4040	58.2300
 1.4080	59.8300
 1.4120	60.9700
 1.4160	61.3200
 1.4200	61.4400
 1.4240	61.3300
 1.4280	61.5100
 1.4320	61.3900
 1.4360	61.5200
 1.4400	61.8100
 1.4440	61.9800
 1.4480	62.2800
 1.4520	62.4500
 1.4560	62.5600
 1.4600	62.7200
 1.4640	63.0100
 1.4680	63.0700
 1.4720	63.2400
 1.4760	63.4100
 1.4800	63.6400
 1.4840	63.9800
 1.4880	63.9800
 1.4920	64.3800
 1.4960	64.6700
 1.5000	65.0100
 1.5040	65.2300
 1.5080	65.3500
 1.5120	65.6300
 1.5160	65.8600
 1.5200	66.0900
 1.5240	66.2100
 1.5280	66.3700
 1.5320	66.6600
 1.5360	66.9400
 1.5400	66.9400
 1.5440	67.1200
 1.5480	67.2900
 1.5520	67.5200
 1.5560	67.5200
 1.5600	67.8000
 1.5640	67.9100
 1.5680	67.9100
 1.5720	68.0800
 1.5760	67.9700
 1.5800	68.2000
 1.5840	68.0800
 1.5880	68.2000
 1.5920	68.3100
 1.5960	68.2600
 1.6000	68.1400
 1.6040	68.2500
 1.6080	68.3000
 1.6120	68.0700
 1.6160	68.0100
 1.6200	67.8300
 1.6240	68.0500
 1.6280	67.6400
 1.6320	67.7600
 1.6360	67.6400
 1.6400	67.4600
 1.6440	67.3400
 1.6480	67.3900
 1.6520	67.3300
 1.6560	67.3200
 1.6600	67.0900
 1.6640	66.9100
 1.6680	66.9600
 1.6720	66.7400
 1.6760	66.7900
 1.6800	66.7200
 1.6840	66.6100
 1.6880	66.4200
 1.6920	66.3100
 1.6960	66.3100
 1.7000	66.0700
 1.7040	66.1800
 1.7080	66.1300
 1.7120	66.1300
 1.7160	65.8400
 1.7200	65.8400
 1.7240	65.9500
 1.7280	65.7900
 1.7320	65.7300
 1.7360	65.7900
 1.7400	65.7300
 1.7440	65.7300
 1.7480	65.5600
 1.7520	65.6200
 1.7560	65.5000
 1.7600	65.5600
 1.7640	65.4500
 1.7680	65.4500
 1.7720	65.2200
 1.7760	65.2700
 1.7800	65.3300
 1.7840	65.2200
 1.7880	65.2200
 1.7920	65.1600
 1.7960	65.1000
 1.8000	64.9900
 1.8040	64.9100
 1.8080	65.0000
 1.8120	64.8100
 1.8160	64.8500
 1.8200	64.7100
 1.8240	64.6900
 1.8280	64.6200
 1.8320	64.3700
 1.8360	64.2300
 1.8400	64.0400
 1.8440	63.7400
 1.8480	63.4900
 1.8520	63.4800
 1.8560	62.9700
 1.8600	62.6200
 1.8640	62.1000
 1.8680	61.4700
 1.8720	60.6800
 1.8760	59.6500
 1.8800	58.4600
 1.8840	57.1000
 1.8880	55.5100
 1.8920	53.8700
 1.8960	52.1100
 1.9000	50.2900
 1.9040	48.5900
 1.9080	47.1700
 1.9120	46.1000
 1.9160	45.0700
 1.9200	44.5600
 1.9240	44.2100
 1.9280	44.1000
 1.9320	44.1500
 1.9360	44.3200
 1.9400	44.4300
 1.9440	44.5900
 1.9480	44.7600
 1.9520	44.8700
 1.9560	45.0800
 1.9600	45.1900
 1.9640	45.2900
 1.9680	45.4400
 1.9720	45.6600
 1.9760	45.7600
 1.9800	46.1400
 1.9840	46.4200
 1.9880	46.7400
 1.9920	47.1200
 1.9960	47.6200
 2.0000	48.1200
 2.0040	48.2500
 2.0080	48.6000
 2.0120	48.9600
 2.0160	49.3400
 2.0200	49.5900
 2.0240	50.0600
 2.0280	50.2500
 2.0320	50.6600
 2.0360	50.8100
 2.0400	51.2400
 2.0440	51.4800
 2.0480	51.6000
 2.0520	51.9600
 2.0560	52.1600
 2.0600	52.4200
 2.0640	52.6200
 2.0680	52.7100
 2.0720	52.7400
 2.0760	52.6600
 2.0800	52.7000
 2.0840	52.6800
 2.0880	52.6600
 2.0920	52.6900
 2.0960	52.6100
 2.1000	52.5900
 2.1040	52.6900
 2.1080	52.8300
 2.1120	52.9700
 2.1160	53.0100
 2.1200	53.2100
 2.1240	53.4400
 2.1280	53.5000
 2.1320	53.6000
 2.1360	53.9300
 2.1400	54.3100
 2.1440	54.6100
 2.1480	55.0200
 2.1520	55.3400
 2.1560	55.5500
 2.1600	55.6500
 2.1640	55.9400
 2.1680	56.0700
 2.1720	56.0800
 2.1760	56.0900
 2.1800	56.2800
 2.1840	56.2100
 2.1880	56.0300
 2.1920	55.7400
 2.1960	55.5100
 2.2000	55.4300
 2.2040	54.9900
 2.2080	54.4300
 2.2120	53.9300
 2.2160	53.4600
 2.2200	52.6800
 2.2240	51.8400
 2.2280	50.7800
 2.2320	49.8100
 2.2360	48.7200
 2.2400	47.7500
 2.2440	46.7400
 2.2480	45.8400
 2.2520	44.9900
 2.2560	44.3600
 2.2600	43.5500
 2.2640	42.8300
 2.2680	42.0400
 2.2720	41.3500
 2.2760	40.4500
 2.2800	39.7000
 2.2840	38.9000
 2.2880	38.1000
 2.2920	37.1200
 2.2960	36.3100
 2.3000	35.4500
 2.3040	34.7600
 2.3080	34.3600
 2.3120	33.6200
 2.3160	33.5500
 2.3200	33.8100
 2.3240	33.9500
 2.3280	34.5900
 2.3320	35.2900
 2.3360	36.0900
 2.3400	37.0100
 2.3440	38.1000
 2.3480	39.0800
 2.3520	39.8900
 2.3560	40.2600
 2.3600	40.5300
 2.3640	40.5700
 2.3680	40.4400
 2.3720	39.9800
 2.3760	39.6000
 2.3800	39.2100
 2.3840	38.7000
 2.3880	38.1800
 2.3920	37.6200
 2.3960	37.3000
 2.4000	36.9000
 2.4040	36.4600
 2.4080	36.0700
 2.4120	35.6800
 2.4160	35.2400
 2.4200	34.6800
 2.4240	34.0700
 2.4280	33.5100
 2.4320	32.9700
 2.4360	32.3500
 2.4400	32.0200
 2.4440	31.6300
 2.4480	30.9100
 2.4520	30.5800
 2.4560	30.0200
 2.4600	29.6300
 2.4640	29.0700
 2.4680	28.5800
 2.4720	28.1400
 2.4760	27.8000
 2.4800	27.3000
 2.4840	26.8000
 2.4880	26.4700
 2.4920	26.1900
 2.4960	26.0300
 2.5000	25.8500
