Name: Rhodonite (Mn,Ca)SiO_3
Type: Mineral
Class: Silicate
Subclass: Inosilicate
Particle Size: Medium
Sample No.: IN-1A
Owner: JPL
Wavelength Range: VSWIR
Origin: USA, California, Fresno County
Collection Date: N/A
Description: Particle size was 45-125um.Collected by Burminco Original ASTER Spectral Library name was jpl.beckman.mineral.silicate.inosilicate.medium.in01a.spectrum.txt
Measurement: Hemispherical reflectance
First Column: X
Second Column: Y
X Units: Wavelength (micrometers)
Y Units:Reflectance (percent)
First X Value:  0.4000
Last X Value:  2.5000
Number of X Values: 826
Additional Information: None

 0.4000	30.5000
 0.4010	29.8400
 0.4020	29.4600
 0.4030	28.8400
 0.4040	27.9200
 0.4050	26.9900
 0.4060	25.8100
 0.4070	24.7500
 0.4080	24.2000
 0.4090	24.4900
 0.4100	25.0100
 0.4110	25.2800
 0.4120	25.1500
 0.4130	25.2200
 0.4140	25.4300
 0.4150	25.9600
 0.4160	26.7500
 0.4170	27.3800
 0.4180	27.8500
 0.4190	28.1400
 0.4200	28.2400
 0.4210	28.3800
 0.4220	28.7300
 0.4230	28.9900
 0.4240	29.1400
 0.4250	29.2400
 0.4260	29.5200
 0.4270	29.8000
 0.4280	29.7400
 0.4290	29.8700
 0.4300	30.1700
 0.4310	30.5000
 0.4320	30.9200
 0.4330	31.0600
 0.4340	31.3000
 0.4350	31.7000
 0.4360	31.9200
 0.4370	32.0300
 0.4380	32.2700
 0.4390	32.6700
 0.4400	32.9100
 0.4410	33.0700
 0.4420	33.2500
 0.4430	33.5000
 0.4440	33.8600
 0.4450	33.8000
 0.4460	34.0100
 0.4470	34.1400
 0.4480	34.3200
 0.4490	34.4600
 0.4500	34.3800
 0.4510	34.5500
 0.4520	34.7500
 0.4530	34.7900
 0.4540	34.7100
 0.4550	34.9100
 0.4560	35.1000
 0.4570	35.0700
 0.4580	35.1400
 0.4590	35.2700
 0.4600	35.4800
 0.4610	35.6200
 0.4620	35.7800
 0.4630	36.0100
 0.4640	36.1300
 0.4650	36.1800
 0.4660	36.3200
 0.4670	36.5400
 0.4680	36.6000
 0.4690	36.6600
 0.4700	36.8200
 0.4710	37.0000
 0.4720	37.0900
 0.4730	36.9300
 0.4740	37.1900
 0.4750	37.3100
 0.4760	37.3200
 0.4770	37.4300
 0.4780	37.4600
 0.4790	37.5600
 0.4800	37.7500
 0.4810	37.6900
 0.4820	37.8100
 0.4830	37.9300
 0.4840	38.1000
 0.4850	38.0600
 0.4860	38.1000
 0.4870	38.3000
 0.4880	38.4400
 0.4890	38.5400
 0.4900	38.4200
 0.4910	38.5600
 0.4920	38.6000
 0.4930	38.5700
 0.4940	38.6100
 0.4950	38.6200
 0.4960	38.7800
 0.4970	38.7800
 0.4980	38.6300
 0.4990	38.5800
 0.5000	38.6200
 0.5010	38.6500
 0.5020	38.6300
 0.5030	38.4600
 0.5040	38.5000
 0.5050	38.6400
 0.5060	38.5400
 0.5070	38.4900
 0.5080	38.3700
 0.5090	38.4800
 0.5100	38.3800
 0.5110	38.1700
 0.5120	38.1700
 0.5130	38.2400
 0.5140	38.0800
 0.5150	38.0400
 0.5160	37.9500
 0.5170	37.8900
 0.5180	37.8500
 0.5190	37.6900
 0.5200	37.6200
 0.5210	37.6400
 0.5220	37.5200
 0.5230	37.3900
 0.5240	37.3000
 0.5250	37.3100
 0.5260	37.2600
 0.5270	37.1800
 0.5280	37.0000
 0.5290	37.0800
 0.5300	37.1300
 0.5310	36.9400
 0.5320	36.9000
 0.5330	37.0200
 0.5340	36.9900
 0.5350	36.9200
 0.5360	36.8900
 0.5370	37.0100
 0.5380	37.1300
 0.5390	37.1500
 0.5400	37.0700
 0.5410	37.3200
 0.5420	37.3100
 0.5430	37.2800
 0.5440	37.3300
 0.5450	37.5600
 0.5460	37.7200
 0.5470	37.8900
 0.5480	37.9600
 0.5490	38.1600
 0.5500	38.5200
 0.5510	38.6200
 0.5520	38.6800
 0.5530	38.9300
 0.5540	39.3000
 0.5550	39.4000
 0.5560	39.6200
 0.5570	39.9200
 0.5580	40.1200
 0.5590	40.1700
 0.5600	40.3500
 0.5610	41.3100
 0.5620	41.4600
 0.5630	41.6800
 0.5640	42.0200
 0.5650	42.3000
 0.5660	42.4800
 0.5670	42.8000
 0.5680	43.1600
 0.5690	43.4700
 0.5700	43.6800
 0.5710	44.0100
 0.5720	44.3000
 0.5730	44.6200
 0.5740	44.8900
 0.5750	45.2300
 0.5760	45.6300
 0.5770	45.8600
 0.5780	46.0700
 0.5790	46.3400
 0.5800	46.8800
 0.5810	47.0600
 0.5820	47.2300
 0.5830	47.6200
 0.5840	48.0400
 0.5850	48.2300
 0.5860	48.5000
 0.5870	48.8300
 0.5880	49.2000
 0.5890	49.4700
 0.5900	49.5400
 0.5910	49.9300
 0.5920	50.2300
 0.5930	50.4600
 0.5940	50.6300
 0.5950	50.9300
 0.5960	51.2400
 0.5970	51.4100
 0.5980	51.5700
 0.5990	51.8500
 0.6000	52.2000
 0.6010	52.4300
 0.6020	52.4300
 0.6030	52.7000
 0.6040	53.1200
 0.6050	53.1800
 0.6060	53.1900
 0.6070	53.4800
 0.6080	53.6800
 0.6090	53.8000
 0.6100	53.9400
 0.6110	54.0400
 0.6120	54.2800
 0.6130	54.3600
 0.6140	54.4500
 0.6150	54.7100
 0.6160	54.9100
 0.6170	54.9400
 0.6180	54.9300
 0.6190	55.1200
 0.6200	55.3700
 0.6210	55.4300
 0.6220	55.4700
 0.6230	55.7400
 0.6240	55.8500
 0.6250	55.7600
 0.6260	55.9300
 0.6270	56.1300
 0.6280	56.2300
 0.6290	56.1000
 0.6300	56.3500
 0.6310	56.5300
 0.6320	56.5800
 0.6330	56.6600
 0.6340	56.7900
 0.6350	56.8900
 0.6360	56.9700
 0.6370	57.0400
 0.6380	57.2200
 0.6390	57.3000
 0.6400	57.2800
 0.6410	57.2300
 0.6420	57.3400
 0.6430	57.6600
 0.6440	57.6000
 0.6450	57.7200
 0.6460	57.8800
 0.6470	57.9000
 0.6480	57.9200
 0.6490	57.8900
 0.6500	58.0200
 0.6510	58.2600
 0.6520	58.2900
 0.6530	58.1400
 0.6540	58.3000
 0.6550	58.4600
 0.6560	58.4500
 0.6570	58.5400
 0.6580	58.6000
 0.6590	58.7400
 0.6600	58.7600
 0.6610	58.7300
 0.6620	58.8600
 0.6630	59.0100
 0.6640	59.0900
 0.6650	59.0700
 0.6660	59.1400
 0.6670	59.2000
 0.6680	59.3400
 0.6690	59.3700
 0.6700	59.3200
 0.6710	59.5800
 0.6720	59.5700
 0.6730	59.5000
 0.6740	59.5400
 0.6750	59.6800
 0.6760	59.8700
 0.6770	59.8800
 0.6780	59.7400
 0.6790	59.8800
 0.6800	60.0100
 0.6810	59.9600
 0.6820	60.0800
 0.6830	60.1000
 0.6840	60.2000
 0.6850	60.2800
 0.6860	60.1000
 0.6870	60.2400
 0.6880	60.3700
 0.6890	60.4900
 0.6900	60.3600
 0.6910	60.4400
 0.6920	60.4400
 0.6930	60.6700
 0.6940	60.5700
 0.6950	60.5900
 0.6960	60.7000
 0.6970	60.8000
 0.6980	60.7900
 0.6990	60.6700
 0.7000	60.7500
 0.7010	60.8300
 0.7020	60.9000
 0.7030	61.0000
 0.7040	61.0100
 0.7050	60.9200
 0.7060	61.0000
 0.7070	61.0900
 0.7080	61.0200
 0.7090	61.1700
 0.7100	61.1500
 0.7110	61.2000
 0.7120	61.3400
 0.7130	61.3600
 0.7140	61.3400
 0.7150	61.3800
 0.7160	61.5100
 0.7170	61.4400
 0.7180	61.4600
 0.7190	61.5100
 0.7200	61.5900
 0.7210	61.5100
 0.7220	61.5900
 0.7230	61.5300
 0.7240	61.6100
 0.7250	61.8000
 0.7260	61.7600
 0.7270	61.8000
 0.7280	61.7700
 0.7290	61.8800
 0.7300	61.8600
 0.7310	61.8000
 0.7320	61.8400
 0.7330	62.1100
 0.7340	61.9000
 0.7350	62.0300
 0.7360	61.9900
 0.7370	62.0700
 0.7380	62.1800
 0.7390	62.0000
 0.7400	62.0500
 0.7410	62.2200
 0.7420	62.2700
 0.7430	62.2000
 0.7440	62.1300
 0.7450	62.2000
 0.7460	62.2400
 0.7470	62.3300
 0.7480	62.2600
 0.7490	62.2200
 0.7500	62.3500
 0.7510	62.3300
 0.7520	62.3700
 0.7530	62.3900
 0.7540	62.4700
 0.7550	62.4700
 0.7560	62.3700
 0.7570	62.3500
 0.7580	62.5200
 0.7590	62.4100
 0.7600	62.5400
 0.7610	62.4500
 0.7620	62.4900
 0.7630	62.4900
 0.7640	62.5600
 0.7650	62.5100
 0.7660	62.4100
 0.7670	62.5800
 0.7680	62.6000
 0.7690	62.4500
 0.7700	62.4100
 0.7710	62.4900
 0.7720	62.6800
 0.7730	62.4500
 0.7740	62.4900
 0.7750	62.4500
 0.7760	62.4900
 0.7770	62.5200
 0.7780	62.4700
 0.7790	62.3700
 0.7800	62.4700
 0.7810	62.5100
 0.7820	62.3500
 0.7830	62.2600
 0.7840	62.3200
 0.7850	62.3900
 0.7860	62.1800
 0.7870	62.2400
 0.7880	62.1300
 0.7890	62.1400
 0.7900	62.2400
 0.7910	62.1600
 0.7920	62.0600
 0.7930	62.0900
 0.7940	62.1100
 0.7950	62.0200
 0.7960	61.9400
 0.7970	61.8200
 0.7980	61.8500
 0.7990	61.9600
 0.8000	61.6100
 0.8040	61.3300
 0.8080	61.0500
 0.8120	60.5600
 0.8160	60.1500
 0.8200	59.7400
 0.8240	59.2200
 0.8280	58.7400
 0.8320	58.1700
 0.8360	57.5500
 0.8400	56.8700
 0.8440	56.0900
 0.8480	55.4100
 0.8520	54.5700
 0.8560	53.6500
 0.8600	52.7200
 0.8640	51.8700
 0.8680	50.8800
 0.8720	49.9700
 0.8760	49.0100
 0.8800	48.0400
 0.8840	47.0900
 0.8880	46.1600
 0.8920	45.2100
 0.8960	44.2600
 0.9000	43.3200
 0.9040	42.2400
 0.9080	41.2900
 0.9120	40.4400
 0.9160	39.4300
 0.9200	38.6000
 0.9240	37.7000
 0.9280	36.8200
 0.9320	35.9900
 0.9360	35.1700
 0.9400	34.3600
 0.9440	33.6100
 0.9480	32.8000
 0.9520	32.1100
 0.9560	31.3500
 0.9600	30.7900
 0.9640	30.1400
 0.9680	29.5100
 0.9720	28.9900
 0.9760	28.4600
 0.9800	27.8900
 0.9840	27.5900
 0.9880	27.1100
 0.9920	26.6500
 0.9960	26.3100
 1.0000	26.1000
 1.0040	25.6600
 1.0080	25.3500
 1.0120	25.1500
 1.0160	24.9100
 1.0200	24.7300
 1.0240	24.6400
 1.0280	24.5300
 1.0320	24.4300
 1.0360	24.3400
 1.0400	24.3500
 1.0440	24.2700
 1.0480	24.2900
 1.0520	24.3400
 1.0560	24.4100
 1.0600	24.4900
 1.0640	24.6800
 1.0680	24.8900
 1.0720	25.1500
 1.0760	25.3300
 1.0800	25.6100
 1.0840	25.8300
 1.0880	26.1300
 1.0920	26.4300
 1.0960	26.6900
 1.1000	27.0000
 1.1040	27.3400
 1.1080	27.7500
 1.1120	28.1000
 1.1160	28.5200
 1.1200	28.8900
 1.1240	29.3300
 1.1280	29.8400
 1.1320	30.2000
 1.1360	30.6100
 1.1400	31.1100
 1.1440	31.5000
 1.1480	31.8400
 1.1520	32.3800
 1.1560	32.8200
 1.1600	33.2600
 1.1640	33.7600
 1.1680	34.2100
 1.1720	34.7400
 1.1760	35.2800
 1.1800	35.7700
 1.1840	36.2900
 1.1880	36.7700
 1.1920	37.3200
 1.1960	37.9800
 1.2000	38.3800
 1.2040	38.9000
 1.2080	39.3700
 1.2120	39.8400
 1.2160	40.3900
 1.2200	40.8800
 1.2240	41.3400
 1.2280	41.8500
 1.2320	42.3200
 1.2360	42.8100
 1.2400	43.2700
 1.2440	43.8000
 1.2480	44.3400
 1.2520	44.7400
 1.2560	45.1500
 1.2600	45.6900
 1.2640	46.1500
 1.2680	46.5800
 1.2720	47.0700
 1.2760	47.4400
 1.2800	47.9000
 1.2840	48.2200
 1.2880	48.5600
 1.2920	48.9400
 1.2960	49.1600
 1.3000	49.5300
 1.3040	49.8600
 1.3080	50.1500
 1.3120	50.5100
 1.3160	50.7700
 1.3200	51.0200
 1.3240	51.3600
 1.3280	51.5900
 1.3320	51.8800
 1.3360	51.9900
 1.3400	52.2600
 1.3440	52.4400
 1.3480	52.5900
 1.3520	52.6600
 1.3560	52.8800
 1.3600	52.9800
 1.3640	53.1000
 1.3680	53.2900
 1.3720	53.4000
 1.3760	53.5400
 1.3800	53.6500
 1.3840	53.7400
 1.3880	53.7200
 1.3920	53.7900
 1.3960	53.6900
 1.4000	53.6800
 1.4040	53.6300
 1.4080	53.6400
 1.4120	53.7900
 1.4160	53.8500
 1.4200	53.9600
 1.4240	54.0400
 1.4280	54.0500
 1.4320	54.1500
 1.4360	54.1100
 1.4400	54.1800
 1.4440	54.2800
 1.4480	54.2500
 1.4520	54.2400
 1.4560	54.3300
 1.4600	54.3900
 1.4640	54.3500
 1.4680	54.4600
 1.4720	54.5000
 1.4760	54.5200
 1.4800	54.6200
 1.4840	54.6100
 1.4880	54.5500
 1.4920	54.6000
 1.4960	54.6000
 1.5000	54.5900
 1.5040	54.7500
 1.5080	54.7700
 1.5120	54.9300
 1.5160	54.8800
 1.5200	54.9300
 1.5240	54.9600
 1.5280	55.0200
 1.5320	54.9800
 1.5360	54.9800
 1.5400	55.0000
 1.5440	54.9900
 1.5480	55.1100
 1.5520	55.1600
 1.5560	55.2400
 1.5600	55.4200
 1.5640	55.3800
 1.5680	55.5000
 1.5720	55.5800
 1.5760	55.5700
 1.5800	55.6200
 1.5840	55.6200
 1.5880	55.7500
 1.5920	55.7700
 1.5960	55.9000
 1.6000	56.0100
 1.6040	56.0500
 1.6080	56.1500
 1.6120	56.2300
 1.6160	56.4200
 1.6200	56.4900
 1.6240	56.5300
 1.6280	56.6400
 1.6320	56.7000
 1.6360	56.7900
 1.6400	56.8600
 1.6440	56.9300
 1.6480	56.9500
 1.6520	57.1400
 1.6560	57.1600
 1.6600	57.2700
 1.6640	57.3900
 1.6680	57.5600
 1.6720	57.6800
 1.6760	57.7200
 1.6800	57.8500
 1.6840	57.9200
 1.6880	57.9300
 1.6920	58.0200
 1.6960	58.1400
 1.7000	58.2300
 1.7040	58.2300
 1.7080	58.2700
 1.7120	58.3200
 1.7160	58.4100
 1.7200	58.4600
 1.7240	58.5500
 1.7280	58.6000
 1.7320	58.6700
 1.7360	58.7200
 1.7400	58.7900
 1.7440	58.8100
 1.7480	58.8200
 1.7520	58.9100
 1.7560	58.8700
 1.7600	58.9000
 1.7640	58.9000
 1.7680	58.8700
 1.7720	58.9600
 1.7760	58.9900
 1.7800	58.9600
 1.7840	58.9500
 1.7880	58.9300
 1.7920	59.0000
 1.7960	59.0000
 1.8000	59.0300
 1.8040	59.0500
 1.8080	59.0300
 1.8120	59.0700
 1.8160	59.0200
 1.8200	58.9800
 1.8240	58.9300
 1.8280	58.8900
 1.8320	58.8800
 1.8360	58.7700
 1.8400	58.7400
 1.8440	58.6700
 1.8480	58.5600
 1.8520	58.4900
 1.8560	58.4300
 1.8600	58.3500
 1.8640	58.2400
 1.8680	58.1300
 1.8720	58.0100
 1.8760	57.9000
 1.8800	57.6600
 1.8840	57.4800
 1.8880	57.2700
 1.8920	57.0100
 1.8960	56.7000
 1.9000	56.4800
 1.9040	56.1700
 1.9080	55.9700
 1.9120	55.8200
 1.9160	55.6400
 1.9200	55.5100
 1.9240	55.4700
 1.9280	55.3900
 1.9320	55.3900
 1.9360	55.3200
 1.9400	55.3800
 1.9440	55.3900
 1.9480	55.2700
 1.9520	55.2700
 1.9560	55.2100
 1.9600	55.1900
 1.9640	55.1400
 1.9680	55.1300
 1.9720	55.0600
 1.9760	55.0800
 1.9800	55.0600
 1.9840	54.9200
 1.9880	54.9100
 1.9920	54.8500
 1.9960	54.8400
 2.0000	54.8000
 2.0040	54.7000
 2.0080	54.7200
 2.0120	54.6100
 2.0160	54.6000
 2.0200	54.6200
 2.0240	54.6100
 2.0280	54.5200
 2.0320	54.5000
 2.0360	54.4600
 2.0400	54.3400
 2.0440	54.3500
 2.0480	54.2700
 2.0520	54.1800
 2.0560	54.1300
 2.0600	53.9700
 2.0640	53.8500
 2.0680	53.8600
 2.0720	53.7600
 2.0760	53.7400
 2.0800	53.6800
 2.0840	53.5800
 2.0880	53.6300
 2.0920	53.5800
 2.0960	53.5200
 2.1000	53.5700
 2.1040	53.5000
 2.1080	53.5200
 2.1120	53.5400
 2.1160	53.4100
 2.1200	53.5200
 2.1240	53.3900
 2.1280	53.3200
 2.1320	53.1500
 2.1360	53.0700
 2.1400	53.0500
 2.1440	52.9600
 2.1480	52.9600
 2.1520	52.8600
 2.1560	52.7700
 2.1600	52.8100
 2.1640	52.8200
 2.1680	52.7300
 2.1720	52.6600
 2.1760	52.6200
 2.1800	52.5700
 2.1840	52.5300
 2.1880	52.4800
 2.1920	52.4300
 2.1960	52.3900
 2.2000	52.3300
 2.2040	52.2200
 2.2080	52.1100
 2.2120	52.0800
 2.2160	52.1500
 2.2200	52.1100
 2.2240	52.1200
 2.2280	52.1600
 2.2320	52.1800
 2.2360	52.1500
 2.2400	52.1100
 2.2440	52.1800
 2.2480	52.1600
 2.2520	52.1900
 2.2560	52.1400
 2.2600	52.2000
 2.2640	52.1800
 2.2680	52.1500
 2.2720	52.1300
 2.2760	52.1600
 2.2800	52.0900
 2.2840	52.0600
 2.2880	52.0600
 2.2920	52.0800
 2.2960	52.1600
 2.3000	52.0800
 2.3040	52.1300
 2.3080	52.1400
 2.3120	52.2300
 2.3160	52.2900
 2.3200	52.3400
 2.3240	52.3600
 2.3280	52.3400
 2.3320	52.4400
 2.3360	52.4900
 2.3400	52.4800
 2.3440	52.4700
 2.3480	52.4800
 2.3520	52.4600
 2.3560	52.5800
 2.3600	52.6200
 2.3640	52.6700
 2.3680	52.7400
 2.3720	52.8500
 2.3760	52.9800
 2.3800	52.9800
 2.3840	53.1200
 2.3880	53.0700
 2.3920	53.1000
 2.3960	53.1700
 2.4000	53.2100
 2.4040	53.2400
 2.4080	53.3700
 2.4120	53.4500
 2.4160	53.5200
 2.4200	53.5500
 2.4240	53.6400
 2.4280	53.7000
 2.4320	53.6700
 2.4360	53.7400
 2.4400	53.7500
 2.4440	53.7500
 2.4480	53.7900
 2.4520	53.7400
 2.4560	53.7600
 2.4600	53.7200
 2.4640	53.8100
 2.4680	53.8100
 2.4720	53.8200
 2.4760	53.8800
 2.4800	53.9500
 2.4840	54.1200
 2.4880	54.1600
 2.4920	54.2600
 2.4960	54.3100
 2.5000	54.4200
