Name: Epidote Ca_2(Al,Fe^3+)_3O.SiO_4.Si_2O_7.OH
Type: Mineral
Class: Silicate
Subclass: Sorosilicate
Particle Size: Coarse
Sample No.: SS-1A
Owner: JPL
Wavelength Range: VSWIR
Origin: Mexico, Baja California Norte, Valle De La Trinidad.
Collection Date: N/A
Description: Particle size was 125-500um. Collected b:  Burminco Original ASTER Spectral Library name was jpl.perkin.mineral.silicate.sorosilicate.coarse.ss01a.spectrum.txt
Measurement: Hemispherical reflectance
First Column: X
Second Column: Y
X Units: Wavelength (micrometers)
Y Units:Reflectance (percent)
First X Value:  2.5000
Last X Value:  0.4000
Number of X Values: 2101
Additional Information: mineral.silicate.sorosilicate.coarse.vswir.ss-1a.jpl.perkin.ancillary.txt

 2.5000	40.0761
 2.4990	39.8488
 2.4980	40.3537
 2.4970	40.2770
 2.4960	40.2567
 2.4950	40.5448
 2.4940	40.6554
 2.4930	40.4034
 2.4920	40.8189
 2.4910	40.8065
 2.4900	41.2264
 2.4890	41.1777
 2.4880	41.4199
 2.4870	41.4817
 2.4860	41.6657
 2.4850	41.8417
 2.4840	42.0407
 2.4830	42.0218
 2.4820	42.2476
 2.4810	42.2492
 2.4800	42.5095
 2.4790	42.4523
 2.4780	42.8542
 2.4770	42.7776
 2.4760	42.8717
 2.4750	43.0469
 2.4740	43.0694
 2.4730	43.1021
 2.4720	43.4149
 2.4710	43.2902
 2.4700	43.5938
 2.4690	43.5360
 2.4680	43.9181
 2.4670	43.8004
 2.4660	43.9929
 2.4650	44.0613
 2.4640	44.1728
 2.4630	44.1719
 2.4620	44.2537
 2.4610	44.4207
 2.4600	44.6075
 2.4590	44.5424
 2.4580	44.6968
 2.4570	44.6734
 2.4560	44.9065
 2.4550	44.8979
 2.4540	45.1788
 2.4530	45.1018
 2.4520	45.2592
 2.4510	45.3729
 2.4500	45.5115
 2.4490	45.4904
 2.4480	45.6237
 2.4470	45.6866
 2.4460	45.8389
 2.4450	45.7863
 2.4440	45.9178
 2.4430	45.9379
 2.4420	45.9999
 2.4410	45.9604
 2.4400	46.1606
 2.4390	46.0996
 2.4380	46.2336
 2.4370	46.2469
 2.4360	46.3334
 2.4350	46.3313
 2.4340	46.4508
 2.4330	46.3497
 2.4320	46.4352
 2.4310	46.4571
 2.4300	46.4421
 2.4290	46.3805
 2.4280	46.4575
 2.4270	46.3897
 2.4260	46.3949
 2.4250	46.3245
 2.4240	46.3627
 2.4230	46.2151
 2.4220	46.2194
 2.4210	46.1913
 2.4200	46.1392
 2.4190	46.0772
 2.4180	46.0538
 2.4170	45.9579
 2.4160	45.9005
 2.4150	45.6952
 2.4140	45.6254
 2.4130	45.4684
 2.4120	45.3928
 2.4110	45.2325
 2.4100	45.1713
 2.4090	44.9420
 2.4080	44.8370
 2.4070	44.6756
 2.4060	44.5390
 2.4050	44.3136
 2.4040	44.2150
 2.4030	43.9396
 2.4020	43.7615
 2.4010	43.5643
 2.4000	43.4202
 2.3990	43.0857
 2.3980	42.8845
 2.3970	42.6771
 2.3960	42.3691
 2.3950	42.0620
 2.3940	41.7940
 2.3930	41.4610
 2.3920	41.2345
 2.3910	40.8226
 2.3900	40.5186
 2.3890	40.1464
 2.3880	39.7486
 2.3870	39.3862
 2.3860	39.0226
 2.3850	38.5353
 2.3840	38.0304
 2.3830	37.6073
 2.3820	37.1606
 2.3810	36.5790
 2.3800	36.1025
 2.3790	35.5873
 2.3780	35.0366
 2.3770	34.4490
 2.3760	33.8473
 2.3750	33.1580
 2.3740	32.4541
 2.3730	31.7321
 2.3720	31.0694
 2.3710	30.3328
 2.3700	29.5498
 2.3690	28.7161
 2.3680	27.9078
 2.3670	27.0509
 2.3660	26.2596
 2.3650	25.4539
 2.3640	24.5352
 2.3630	23.6179
 2.3620	22.7625
 2.3610	21.8586
 2.3600	21.0341
 2.3590	20.2175
 2.3580	19.3404
 2.3570	18.5622
 2.3560	17.7809
 2.3550	16.9911
 2.3540	16.3057
 2.3530	15.6480
 2.3520	15.0458
 2.3510	14.4846
 2.3500	13.8904
 2.3490	13.3594
 2.3480	12.8797
 2.3470	12.4935
 2.3460	12.1314
 2.3450	11.8092
 2.3440	11.5305
 2.3430	11.3087
 2.3420	11.0759
 2.3410	10.9592
 2.3400	10.8245
 2.3390	10.7227
 2.3380	10.6579
 2.3370	10.6389
 2.3360	10.6146
 2.3350	10.6960
 2.3340	10.7314
 2.3330	10.8297
 2.3320	10.9252
 2.3310	11.0700
 2.3300	11.2676
 2.3290	11.5081
 2.3280	11.6592
 2.3270	11.8638
 2.3260	12.1097
 2.3250	12.3747
 2.3240	12.6631
 2.3230	13.0124
 2.3220	13.2807
 2.3210	13.6449
 2.3200	13.9568
 2.3190	14.3488
 2.3180	14.7246
 2.3170	15.1694
 2.3160	15.6251
 2.3150	16.0599
 2.3140	16.4646
 2.3130	16.9968
 2.3120	17.4170
 2.3110	17.9718
 2.3100	18.4320
 2.3090	18.9727
 2.3080	19.3945
 2.3070	19.8940
 2.3060	20.3773
 2.3050	20.9299
 2.3040	21.3289
 2.3030	21.8355
 2.3020	22.3349
 2.3010	22.8086
 2.3000	23.2425
 2.2990	23.8023
 2.2980	24.2004
 2.2970	24.7121
 2.2960	25.0640
 2.2950	25.5304
 2.2940	25.9247
 2.2930	26.3253
 2.2920	26.7022
 2.2910	27.2832
 2.2900	27.6457
 2.2890	28.0340
 2.2880	28.3669
 2.2870	28.7565
 2.2860	29.0770
 2.2850	29.4505
 2.2840	29.8129
 2.2830	30.1261
 2.2820	30.3169
 2.2810	30.6570
 2.2800	30.8295
 2.2790	31.0959
 2.2780	31.1944
 2.2770	31.3379
 2.2760	31.4373
 2.2750	31.5458
 2.2740	31.4561
 2.2730	31.4818
 2.2720	31.4146
 2.2710	31.3792
 2.2700	31.2005
 2.2690	31.1169
 2.2680	30.8141
 2.2670	30.6113
 2.2660	30.2886
 2.2650	29.9751
 2.2640	29.6429
 2.2630	29.3831
 2.2620	28.9559
 2.2610	28.6391
 2.2600	28.2567
 2.2590	27.9408
 2.2580	27.6241
 2.2570	27.5061
 2.2560	27.2700
 2.2550	27.2269
 2.2540	27.1464
 2.2530	27.2301
 2.2520	27.2841
 2.2510	27.5656
 2.2500	27.7951
 2.2490	28.2010
 2.2480	28.6086
 2.2470	29.2420
 2.2460	29.8771
 2.2450	30.5624
 2.2440	31.2422
 2.2430	32.0895
 2.2420	32.8137
 2.2410	33.8016
 2.2400	34.5542
 2.2390	35.5675
 2.2380	36.3266
 2.2370	37.3072
 2.2360	38.0532
 2.2350	38.9748
 2.2340	39.6996
 2.2330	40.5653
 2.2320	41.2209
 2.2310	41.8886
 2.2300	42.4924
 2.2290	43.2398
 2.2280	43.6980
 2.2270	44.2683
 2.2260	44.7265
 2.2250	45.1692
 2.2240	45.5918
 2.2230	46.0534
 2.2220	46.2837
 2.2210	46.7925
 2.2200	46.9354
 2.2190	47.3121
 2.2180	47.5149
 2.2170	47.8043
 2.2160	48.0816
 2.2150	48.3121
 2.2140	48.4645
 2.2130	48.7649
 2.2120	48.9504
 2.2110	49.0383
 2.2100	49.2985
 2.2090	49.5104
 2.2080	49.5664
 2.2070	49.7702
 2.2060	49.9383
 2.2050	50.0492
 2.2040	50.1939
 2.2030	50.3634
 2.2020	50.3785
 2.2010	50.5967
 2.2000	50.6489
 2.1990	50.7949
 2.1980	50.8361
 2.1970	51.0271
 2.1960	51.0039
 2.1950	51.2053
 2.1940	51.2550
 2.1930	51.3404
 2.1920	51.3618
 2.1910	51.4551
 2.1900	51.5586
 2.1890	51.7071
 2.1880	51.7837
 2.1870	51.8674
 2.1860	51.8826
 2.1850	52.0237
 2.1840	52.0775
 2.1830	52.2229
 2.1820	52.3232
 2.1810	52.4253
 2.1800	52.4964
 2.1790	52.5717
 2.1780	52.6372
 2.1770	52.7967
 2.1760	52.8751
 2.1750	53.0095
 2.1740	52.9994
 2.1730	53.1433
 2.1720	53.1635
 2.1710	53.3197
 2.1700	53.3555
 2.1690	53.4623
 2.1680	53.5349
 2.1670	53.6278
 2.1660	53.6699
 2.1650	53.8218
 2.1640	53.8344
 2.1630	53.9976
 2.1620	53.9551
 2.1610	54.0596
 2.1600	54.1604
 2.1590	54.2195
 2.1580	54.1968
 2.1570	54.2606
 2.1560	54.2363
 2.1550	54.2801
 2.1540	54.4083
 2.1530	54.4091
 2.1520	54.4566
 2.1510	54.4794
 2.1500	54.4676
 2.1490	54.5355
 2.1480	54.5151
 2.1470	54.5691
 2.1460	54.5514
 2.1450	54.5382
 2.1440	54.5783
 2.1430	54.6061
 2.1420	54.5397
 2.1410	54.5639
 2.1400	54.5459
 2.1390	54.5880
 2.1380	54.6107
 2.1370	54.5657
 2.1360	54.5450
 2.1350	54.5430
 2.1340	54.5325
 2.1330	54.5646
 2.1320	54.5278
 2.1310	54.4890
 2.1300	54.4952
 2.1290	54.4979
 2.1280	54.4180
 2.1270	54.4320
 2.1260	54.4000
 2.1250	54.3684
 2.1240	54.3406
 2.1230	54.3723
 2.1220	54.2695
 2.1210	54.2492
 2.1200	54.2800
 2.1190	54.3477
 2.1180	54.2720
 2.1170	54.2454
 2.1160	54.2029
 2.1150	54.1725
 2.1140	54.1034
 2.1130	54.1224
 2.1120	54.1191
 2.1110	54.0663
 2.1100	54.0345
 2.1090	54.0230
 2.1080	53.9934
 2.1070	54.0212
 2.1060	54.0314
 2.1050	54.0188
 2.1040	53.9704
 2.1030	53.9130
 2.1020	53.8539
 2.1010	53.8912
 2.1000	53.8987
 2.0990	53.9127
 2.0980	53.9325
 2.0970	53.8807
 2.0960	53.8684
 2.0950	53.9008
 2.0940	53.8466
 2.0930	53.8744
 2.0920	53.8734
 2.0910	53.8620
 2.0900	53.8571
 2.0890	53.9035
 2.0880	53.9102
 2.0870	53.8824
 2.0860	53.8661
 2.0850	53.8402
 2.0840	53.8444
 2.0830	53.8934
 2.0820	53.8662
 2.0810	53.8509
 2.0800	53.8525
 2.0790	53.8409
 2.0780	53.8335
 2.0770	53.8281
 2.0760	53.7639
 2.0750	53.7605
 2.0740	53.8271
 2.0730	53.7834
 2.0720	53.7384
 2.0710	53.6876
 2.0700	53.6921
 2.0690	53.7157
 2.0680	53.7023
 2.0670	53.6886
 2.0660	53.7029
 2.0650	53.6672
 2.0640	53.5934
 2.0630	53.5827
 2.0620	53.6050
 2.0610	53.5771
 2.0600	53.5709
 2.0590	53.5799
 2.0580	53.5829
 2.0570	53.5296
 2.0560	53.5085
 2.0550	53.5143
 2.0540	53.5167
 2.0530	53.4730
 2.0520	53.4499
 2.0510	53.4387
 2.0500	53.3968
 2.0490	53.3841
 2.0480	53.3908
 2.0470	53.4049
 2.0460	53.4354
 2.0450	53.3651
 2.0440	53.3357
 2.0430	53.2951
 2.0420	53.2597
 2.0410	53.2166
 2.0400	53.1930
 2.0390	53.1241
 2.0380	53.0841
 2.0370	53.0072
 2.0360	52.9555
 2.0350	52.9345
 2.0340	52.9645
 2.0330	52.8810
 2.0320	52.8371
 2.0310	52.7739
 2.0300	52.7480
 2.0290	52.6765
 2.0280	52.6474
 2.0270	52.5570
 2.0260	52.6007
 2.0250	52.5557
 2.0240	52.5208
 2.0230	52.4841
 2.0220	52.4906
 2.0210	52.4534
 2.0200	52.4725
 2.0190	52.4445
 2.0180	52.4165
 2.0170	52.4182
 2.0160	52.3691
 2.0150	52.3469
 2.0140	52.3661
 2.0130	52.3677
 2.0120	52.3386
 2.0110	52.2587
 2.0100	52.2624
 2.0090	52.2532
 2.0080	52.2704
 2.0070	52.1919
 2.0060	52.1886
 2.0050	52.1256
 2.0040	52.1052
 2.0030	52.0440
 2.0020	52.0227
 2.0010	51.9575
 2.0000	51.9800
 1.9990	51.9453
 1.9980	51.8892
 1.9970	51.8213
 1.9960	51.8118
 1.9950	51.7844
 1.9940	51.7629
 1.9930	51.7126
 1.9920	51.7044
 1.9910	51.6010
 1.9900	51.5610
 1.9890	51.4981
 1.9880	51.5040
 1.9870	51.4722
 1.9860	51.4495
 1.9850	51.4396
 1.9840	51.3716
 1.9830	51.2331
 1.9820	51.2981
 1.9810	51.1340
 1.9800	51.0945
 1.9790	50.9827
 1.9780	50.9904
 1.9770	50.8696
 1.9760	50.7737
 1.9750	50.7577
 1.9740	50.5851
 1.9730	50.4592
 1.9720	50.4039
 1.9710	50.2656
 1.9700	50.1543
 1.9690	50.0159
 1.9680	49.9555
 1.9670	49.8124
 1.9660	49.7120
 1.9650	49.6025
 1.9640	49.4860
 1.9630	49.3587
 1.9620	49.2026
 1.9610	49.1014
 1.9600	49.0670
 1.9590	48.7800
 1.9580	48.7682
 1.9570	48.5342
 1.9560	48.5345
 1.9550	48.3619
 1.9540	48.2310
 1.9530	48.0955
 1.9520	48.1133
 1.9510	47.9793
 1.9500	48.0318
 1.9490	47.8351
 1.9480	47.8984
 1.9470	47.8322
 1.9460	47.9802
 1.9450	47.9355
 1.9440	48.0173
 1.9430	48.0348
 1.9420	48.1855
 1.9410	48.2395
 1.9400	48.3660
 1.9390	48.3764
 1.9380	48.5034
 1.9370	48.5554
 1.9360	48.7251
 1.9350	48.6750
 1.9340	48.7625
 1.9330	48.8194
 1.9320	48.9462
 1.9310	48.8225
 1.9300	48.9250
 1.9290	48.8460
 1.9280	48.9490
 1.9270	48.9133
 1.9260	48.9333
 1.9250	48.9936
 1.9240	48.9583
 1.9230	48.9476
 1.9220	48.9489
 1.9210	48.9653
 1.9200	48.9723
 1.9190	48.9076
 1.9180	48.8734
 1.9170	48.7939
 1.9160	48.8872
 1.9150	48.7952
 1.9140	48.8703
 1.9130	48.7694
 1.9120	48.7362
 1.9110	48.6783
 1.9100	48.6298
 1.9090	48.6479
 1.9080	48.6112
 1.9070	48.5760
 1.9060	48.6218
 1.9050	48.4730
 1.9040	48.4420
 1.9030	48.2910
 1.9020	48.3147
 1.9010	48.2369
 1.9000	48.2988
 1.8990	48.1680
 1.8980	48.0856
 1.8970	48.0616
 1.8960	47.9679
 1.8950	47.9287
 1.8940	47.8242
 1.8930	47.7128
 1.8920	47.7010
 1.8910	47.5428
 1.8900	47.4746
 1.8890	47.3493
 1.8880	47.3274
 1.8870	47.1953
 1.8860	47.1693
 1.8850	47.1218
 1.8840	47.0161
 1.8830	46.9885
 1.8820	46.9042
 1.8810	46.8438
 1.8800	46.8930
 1.8790	46.8584
 1.8780	46.8615
 1.8770	46.8049
 1.8760	46.9199
 1.8750	46.8798
 1.8740	46.9002
 1.8730	46.8396
 1.8720	46.9442
 1.8710	46.8958
 1.8700	46.9812
 1.8690	46.9526
 1.8680	46.9652
 1.8670	46.8672
 1.8660	46.9546
 1.8650	46.9712
 1.8640	46.9812
 1.8630	46.9344
 1.8620	46.9137
 1.8610	46.7906
 1.8600	46.8420
 1.8590	46.7331
 1.8580	46.7156
 1.8570	46.6793
 1.8560	46.6530
 1.8550	46.4808
 1.8540	46.4865
 1.8530	46.3715
 1.8520	46.2532
 1.8510	46.1629
 1.8500	46.0452
 1.8490	45.8318
 1.8480	45.7630
 1.8470	45.6301
 1.8460	45.4851
 1.8450	45.3434
 1.8440	45.2498
 1.8430	45.0386
 1.8420	44.9514
 1.8410	44.7702
 1.8400	44.6474
 1.8390	44.5073
 1.8380	44.3467
 1.8370	44.1178
 1.8360	44.0185
 1.8350	43.8855
 1.8340	43.8529
 1.8330	43.6879
 1.8320	43.6137
 1.8310	43.5521
 1.8300	43.5292
 1.8290	43.5819
 1.8280	43.6511
 1.8270	43.6705
 1.8260	43.7620
 1.8250	43.8691
 1.8240	44.0428
 1.8230	44.1460
 1.8220	44.3232
 1.8210	44.4314
 1.8200	44.5243
 1.8190	44.7198
 1.8180	44.8800
 1.8170	44.9625
 1.8160	45.1253
 1.8150	45.1509
 1.8140	45.2280
 1.8130	45.2941
 1.8120	45.3340
 1.8110	45.2781
 1.8100	45.3109
 1.8090	45.3733
 1.8080	45.4474
 1.8070	45.4478
 1.8060	45.4241
 1.8050	45.3690
 1.8040	45.3522
 1.8030	45.3186
 1.8020	45.3367
 1.8010	45.3131
 1.8000	45.3171
 1.7990	45.3320
 1.7980	45.3025
 1.7970	45.2422
 1.7960	45.1997
 1.7950	45.1720
 1.7940	45.1514
 1.7930	45.1692
 1.7920	45.1811
 1.7910	45.0912
 1.7900	45.0797
 1.7890	45.0342
 1.7880	45.0020
 1.7870	45.0037
 1.7860	44.9341
 1.7850	44.8250
 1.7840	44.7849
 1.7830	44.7702
 1.7820	44.7719
 1.7810	44.7708
 1.7800	44.6904
 1.7790	44.6555
 1.7780	44.6070
 1.7770	44.6039
 1.7760	44.5723
 1.7750	44.5211
 1.7740	44.5086
 1.7730	44.4749
 1.7720	44.4034
 1.7710	44.3997
 1.7700	44.3973
 1.7690	44.3556
 1.7680	44.2682
 1.7670	44.2256
 1.7660	44.1910
 1.7650	44.1763
 1.7640	44.1431
 1.7630	44.0765
 1.7620	44.0414
 1.7610	44.0757
 1.7600	43.9776
 1.7590	43.9461
 1.7580	43.9373
 1.7570	43.9838
 1.7560	43.9489
 1.7550	43.9153
 1.7540	43.8541
 1.7530	43.8264
 1.7520	43.7582
 1.7510	43.7961
 1.7500	43.7258
 1.7490	43.7119
 1.7480	43.6623
 1.7470	43.6441
 1.7460	43.5605
 1.7450	43.5857
 1.7440	43.5837
 1.7430	43.5139
 1.7420	43.4898
 1.7410	43.5020
 1.7400	43.4497
 1.7390	43.4633
 1.7380	43.4213
 1.7370	43.3932
 1.7360	43.3319
 1.7350	43.2892
 1.7340	43.2698
 1.7330	43.3082
 1.7320	43.2455
 1.7310	43.1610
 1.7300	43.2045
 1.7290	43.2084
 1.7280	43.1514
 1.7270	43.1570
 1.7260	43.1558
 1.7250	43.0644
 1.7240	42.9780
 1.7230	43.0114
 1.7220	43.0141
 1.7210	43.0284
 1.7200	42.9347
 1.7190	42.9100
 1.7180	42.8811
 1.7170	42.8765
 1.7160	42.8388
 1.7150	42.8257
 1.7140	42.7434
 1.7130	42.7532
 1.7120	42.7298
 1.7110	42.6962
 1.7100	42.6232
 1.7090	42.6071
 1.7080	42.5491
 1.7070	42.5793
 1.7060	42.5268
 1.7050	42.5404
 1.7040	42.4504
 1.7030	42.4836
 1.7020	42.4004
 1.7010	42.4205
 1.7000	42.3564
 1.6990	42.3853
 1.6980	42.3388
 1.6970	42.3159
 1.6960	42.1694
 1.6950	42.2140
 1.6940	42.2057
 1.6930	42.2252
 1.6920	42.1776
 1.6910	42.1570
 1.6900	42.0810
 1.6890	42.1451
 1.6880	42.0720
 1.6870	41.9887
 1.6860	41.9117
 1.6850	41.9822
 1.6840	41.8827
 1.6830	41.9340
 1.6820	41.8725
 1.6810	41.9172
 1.6800	41.8460
 1.6790	41.8473
 1.6780	41.7890
 1.6770	41.8415
 1.6760	41.7735
 1.6750	41.8790
 1.6740	41.7706
 1.6730	41.8246
 1.6720	41.6565
 1.6710	41.7676
 1.6700	41.6510
 1.6690	41.7735
 1.6680	41.6898
 1.6670	41.7743
 1.6660	41.6444
 1.6650	41.7434
 1.6640	41.6500
 1.6630	41.6828
 1.6620	41.6056
 1.6610	41.7290
 1.6600	41.6634
 1.6590	41.6690
 1.6580	41.5357
 1.6570	41.5753
 1.6560	41.4542
 1.6550	41.5474
 1.6540	41.5409
 1.6530	41.5873
 1.6520	41.4678
 1.6510	41.4545
 1.6500	41.3885
 1.6490	41.4871
 1.6480	41.3724
 1.6470	41.4287
 1.6460	41.3326
 1.6450	41.3629
 1.6440	41.3395
 1.6430	41.3066
 1.6420	41.3611
 1.6410	41.2160
 1.6400	41.1922
 1.6390	41.2747
 1.6380	41.1748
 1.6370	41.2195
 1.6360	41.1119
 1.6350	41.1339
 1.6340	41.0390
 1.6330	41.1099
 1.6320	41.0147
 1.6310	41.1020
 1.6300	40.8914
 1.6290	41.0339
 1.6280	40.9463
 1.6270	40.9425
 1.6260	40.8121
 1.6250	40.8717
 1.6240	40.7854
 1.6230	40.8382
 1.6220	40.7536
 1.6210	40.8145
 1.6200	40.7883
 1.6190	40.7119
 1.6180	40.7180
 1.6170	40.8028
 1.6160	40.6649
 1.6150	40.6853
 1.6140	40.6495
 1.6130	40.6372
 1.6120	40.5803
 1.6110	40.6036
 1.6100	40.5652
 1.6090	40.6091
 1.6080	40.4742
 1.6070	40.5047
 1.6060	40.3595
 1.6050	40.4091
 1.6040	40.3266
 1.6030	40.3664
 1.6020	40.2048
 1.6010	40.1736
 1.6000	40.1402
 1.5990	40.1715
 1.5980	40.0830
 1.5970	40.0479
 1.5960	39.9377
 1.5950	39.9861
 1.5940	39.7805
 1.5930	39.8424
 1.5920	39.6870
 1.5910	39.6783
 1.5900	39.5514
 1.5890	39.4761
 1.5880	39.4412
 1.5870	39.4383
 1.5860	39.3313
 1.5850	39.2371
 1.5840	39.1539
 1.5830	39.1765
 1.5820	39.0165
 1.5810	38.9856
 1.5800	38.9037
 1.5790	38.9072
 1.5780	38.8179
 1.5770	38.7431
 1.5760	38.6440
 1.5750	38.6206
 1.5740	38.5017
 1.5730	38.4908
 1.5720	38.4168
 1.5710	38.3460
 1.5700	38.2631
 1.5690	38.2169
 1.5680	38.0467
 1.5670	38.0114
 1.5660	37.7875
 1.5650	37.7552
 1.5640	37.5886
 1.5630	37.4838
 1.5620	37.3225
 1.5610	37.2191
 1.5600	37.0727
 1.5590	36.9723
 1.5580	36.7854
 1.5570	36.7281
 1.5560	36.5241
 1.5550	36.5116
 1.5540	36.4377
 1.5530	36.3850
 1.5520	36.2576
 1.5510	36.2911
 1.5500	36.2365
 1.5490	36.2684
 1.5480	36.2627
 1.5470	36.2831
 1.5460	36.2778
 1.5450	36.3286
 1.5440	36.4390
 1.5430	36.5740
 1.5420	36.5751
 1.5410	36.6804
 1.5400	36.7445
 1.5390	36.8227
 1.5380	36.8792
 1.5370	36.9539
 1.5360	37.0957
 1.5350	37.2261
 1.5340	37.2012
 1.5330	37.3352
 1.5320	37.4430
 1.5310	37.5465
 1.5300	37.6320
 1.5290	37.8016
 1.5280	37.8826
 1.5270	37.9518
 1.5260	38.0256
 1.5250	38.1577
 1.5240	38.2516
 1.5230	38.3687
 1.5220	38.4653
 1.5210	38.5928
 1.5200	38.7245
 1.5190	38.8787
 1.5180	38.9684
 1.5170	39.0919
 1.5160	39.1771
 1.5150	39.3159
 1.5140	39.4310
 1.5130	39.5817
 1.5120	39.6676
 1.5110	39.7393
 1.5100	39.8531
 1.5090	39.9635
 1.5080	40.0439
 1.5070	40.1455
 1.5060	40.2216
 1.5050	40.3097
 1.5040	40.4407
 1.5030	40.5275
 1.5020	40.6007
 1.5010	40.6680
 1.5000	40.7673
 1.4990	40.8544
 1.4980	40.8929
 1.4970	41.0010
 1.4960	41.0685
 1.4950	41.1175
 1.4940	41.2014
 1.4930	41.2226
 1.4920	41.2943
 1.4910	41.3302
 1.4900	41.3798
 1.4890	41.4350
 1.4880	41.4744
 1.4870	41.5255
 1.4860	41.6206
 1.4850	41.6181
 1.4840	41.6665
 1.4830	41.7389
 1.4820	41.8052
 1.4810	41.8146
 1.4800	41.8388
 1.4790	41.8943
 1.4780	41.9757
 1.4770	41.9784
 1.4760	42.0650
 1.4750	42.0866
 1.4740	42.1007
 1.4730	42.1110
 1.4720	42.1702
 1.4710	42.1752
 1.4700	42.2196
 1.4690	42.2462
 1.4680	42.3221
 1.4670	42.2837
 1.4660	42.3281
 1.4650	42.3344
 1.4640	42.4111
 1.4630	42.3823
 1.4620	42.4244
 1.4610	42.4029
 1.4600	42.4159
 1.4590	42.4230
 1.4580	42.4818
 1.4570	42.4872
 1.4560	42.5018
 1.4550	42.4933
 1.4540	42.5152
 1.4530	42.5397
 1.4520	42.5537
 1.4510	42.5132
 1.4500	42.5411
 1.4490	42.5907
 1.4480	42.5849
 1.4470	42.5220
 1.4460	42.5621
 1.4450	42.5385
 1.4440	42.5971
 1.4430	42.5177
 1.4420	42.5289
 1.4410	42.5119
 1.4400	42.5741
 1.4390	42.5405
 1.4380	42.5968
 1.4370	42.5625
 1.4360	42.5616
 1.4350	42.5701
 1.4340	42.5765
 1.4330	42.5408
 1.4320	42.5747
 1.4310	42.5408
 1.4300	42.5466
 1.4290	42.5562
 1.4280	42.5108
 1.4270	42.5158
 1.4260	42.5556
 1.4250	42.4900
 1.4240	42.5131
 1.4230	42.4869
 1.4220	42.5317
 1.4210	42.4677
 1.4200	42.4988
 1.4190	42.3499
 1.4180	42.4312
 1.4170	42.3256
 1.4160	42.3523
 1.4150	42.2969
 1.4140	42.2741
 1.4130	42.2503
 1.4120	42.3457
 1.4110	42.2623
 1.4100	42.2998
 1.4090	42.1303
 1.4080	42.1869
 1.4070	42.1914
 1.4060	42.2316
 1.4050	42.0838
 1.4040	42.2026
 1.4030	42.1268
 1.4020	42.1444
 1.4010	42.1074
 1.4000	42.1662
 1.3990	42.1117
 1.3980	42.1748
 1.3970	42.1903
 1.3960	42.2246
 1.3950	42.1201
 1.3940	42.2174
 1.3930	42.2264
 1.3920	42.2420
 1.3910	42.2356
 1.3900	42.2751
 1.3890	42.1772
 1.3880	42.1957
 1.3870	42.0715
 1.3860	42.1890
 1.3850	42.1524
 1.3840	42.1639
 1.3830	42.0884
 1.3820	42.0973
 1.3810	42.0465
 1.3800	42.0194
 1.3790	42.0455
 1.3780	42.0200
 1.3770	41.9857
 1.3760	42.0425
 1.3750	41.8678
 1.3740	41.9559
 1.3730	41.8416
 1.3720	41.8535
 1.3710	41.8336
 1.3700	41.8617
 1.3690	41.8014
 1.3680	41.8277
 1.3670	41.6858
 1.3660	41.7504
 1.3650	41.6688
 1.3640	41.6885
 1.3630	41.6552
 1.3620	41.5536
 1.3610	41.5318
 1.3600	41.6056
 1.3590	41.4457
 1.3580	41.5886
 1.3570	41.3961
 1.3560	41.4994
 1.3550	41.1936
 1.3540	41.2915
 1.3530	41.3273
 1.3520	41.3202
 1.3510	41.2716
 1.3500	41.2392
 1.3490	41.0318
 1.3480	41.1486
 1.3470	41.0247
 1.3460	41.0593
 1.3450	40.9616
 1.3440	40.9419
 1.3430	40.9036
 1.3420	40.9732
 1.3410	40.8324
 1.3400	40.8802
 1.3390	40.7462
 1.3380	40.8477
 1.3370	40.7949
 1.3360	40.8068
 1.3350	40.7241
 1.3340	40.7293
 1.3330	40.6578
 1.3320	40.6941
 1.3310	40.6333
 1.3300	40.6817
 1.3290	40.5244
 1.3280	40.5274
 1.3270	40.4109
 1.3260	40.4707
 1.3250	40.3380
 1.3240	40.4176
 1.3230	40.3225
 1.3220	40.3079
 1.3210	40.2528
 1.3200	40.2993
 1.3190	40.2638
 1.3180	40.2601
 1.3170	40.0943
 1.3160	40.1394
 1.3150	40.0412
 1.3140	40.1411
 1.3130	40.0530
 1.3120	40.1285
 1.3110	40.0646
 1.3100	40.0759
 1.3090	39.9582
 1.3080	40.0615
 1.3070	39.9563
 1.3060	40.0092
 1.3050	39.9914
 1.3040	39.9686
 1.3030	39.8093
 1.3020	39.8095
 1.3010	39.7614
 1.3000	39.7727
 1.2990	39.7111
 1.2980	39.7827
 1.2970	39.6862
 1.2960	39.6536
 1.2950	39.6065
 1.2940	39.6639
 1.2930	39.5945
 1.2920	39.5946
 1.2910	39.4944
 1.2900	39.5362
 1.2890	39.4412
 1.2880	39.4352
 1.2870	39.3116
 1.2860	39.3315
 1.2850	39.3012
 1.2840	39.2850
 1.2830	39.2628
 1.2820	39.2905
 1.2810	39.1394
 1.2800	39.1103
 1.2790	39.0577
 1.2780	39.0515
 1.2770	38.9307
 1.2760	38.9366
 1.2750	38.8800
 1.2740	38.8886
 1.2730	38.7929
 1.2720	38.8012
 1.2710	38.7160
 1.2700	38.6986
 1.2690	38.5772
 1.2680	38.6037
 1.2670	38.5486
 1.2660	38.5144
 1.2650	38.4367
 1.2640	38.3356
 1.2630	38.2533
 1.2620	38.2447
 1.2610	38.1731
 1.2600	38.1100
 1.2590	38.0848
 1.2580	38.0966
 1.2570	37.9549
 1.2560	37.9293
 1.2550	37.8832
 1.2540	37.8182
 1.2530	37.7023
 1.2520	37.6841
 1.2510	37.6127
 1.2500	37.5668
 1.2490	37.4992
 1.2480	37.4373
 1.2470	37.3913
 1.2460	37.2625
 1.2450	37.1431
 1.2440	37.1170
 1.2430	37.0265
 1.2420	36.9505
 1.2410	36.8791
 1.2400	36.8702
 1.2390	36.7747
 1.2380	36.6960
 1.2370	36.6050
 1.2360	36.4775
 1.2350	36.4347
 1.2340	36.4044
 1.2330	36.2342
 1.2320	36.1629
 1.2310	36.0817
 1.2300	36.0152
 1.2290	35.9100
 1.2280	35.8002
 1.2270	35.7155
 1.2260	35.6556
 1.2250	35.5803
 1.2240	35.4790
 1.2230	35.3765
 1.2220	35.2377
 1.2210	35.1324
 1.2200	35.0527
 1.2190	34.9047
 1.2180	34.8382
 1.2170	34.7170
 1.2160	34.5907
 1.2150	34.5758
 1.2140	34.4717
 1.2130	34.3294
 1.2120	34.2254
 1.2110	34.1181
 1.2100	34.0032
 1.2090	33.8919
 1.2080	33.7877
 1.2070	33.6653
 1.2060	33.5377
 1.2050	33.4423
 1.2040	33.3448
 1.2030	33.2540
 1.2020	33.1110
 1.2010	33.0148
 1.2000	32.9225
 1.1990	32.8216
 1.1980	32.6847
 1.1970	32.5895
 1.1960	32.4573
 1.1950	32.3254
 1.1940	32.1986
 1.1930	32.1357
 1.1920	31.9918
 1.1910	31.8927
 1.1900	31.7661
 1.1890	31.6893
 1.1880	31.5074
 1.1870	31.4764
 1.1860	31.3545
 1.1850	31.2675
 1.1840	31.1637
 1.1830	31.0568
 1.1820	30.8874
 1.1810	30.8240
 1.1800	30.7030
 1.1790	30.6501
 1.1780	30.5400
 1.1770	30.4453
 1.1760	30.3474
 1.1750	30.2958
 1.1740	30.1100
 1.1730	30.0309
 1.1720	29.9109
 1.1710	29.8382
 1.1700	29.7263
 1.1690	29.6606
 1.1680	29.5512
 1.1670	29.4580
 1.1660	29.3233
 1.1650	29.3373
 1.1640	29.2193
 1.1630	29.1330
 1.1620	28.9576
 1.1610	28.9364
 1.1600	28.8733
 1.1590	28.8168
 1.1580	28.6395
 1.1570	28.5451
 1.1560	28.4682
 1.1550	28.4478
 1.1540	28.2747
 1.1530	28.2068
 1.1520	28.1470
 1.1510	28.0409
 1.1500	27.8986
 1.1490	27.8768
 1.1480	27.7384
 1.1470	27.7261
 1.1460	27.5851
 1.1450	27.5889
 1.1440	27.4773
 1.1430	27.4687
 1.1420	27.2416
 1.1410	27.2326
 1.1400	27.1319
 1.1390	27.1027
 1.1380	27.0000
 1.1370	26.9519
 1.1360	26.8432
 1.1350	26.7583
 1.1340	26.6094
 1.1330	26.6018
 1.1320	26.5374
 1.1310	26.5140
 1.1300	26.4213
 1.1290	26.3680
 1.1280	26.1583
 1.1270	26.0960
 1.1260	26.1120
 1.1250	26.0500
 1.1240	25.9284
 1.1230	25.9503
 1.1220	25.7631
 1.1210	25.7591
 1.1200	25.6666
 1.1190	25.5778
 1.1180	25.5864
 1.1170	25.5637
 1.1160	25.4064
 1.1150	25.3454
 1.1140	25.2394
 1.1130	25.2243
 1.1120	25.1206
 1.1110	25.1566
 1.1100	25.0005
 1.1090	25.0497
 1.1080	24.8194
 1.1070	24.8659
 1.1060	24.7635
 1.1050	24.7902
 1.1040	24.6451
 1.1030	24.6422
 1.1020	24.5339
 1.1010	24.5586
 1.1000	24.3726
 1.0990	24.4406
 1.0980	24.3201
 1.0970	24.3482
 1.0960	24.2723
 1.0950	24.2716
 1.0940	24.1538
 1.0930	24.1755
 1.0920	24.0882
 1.0910	24.1106
 1.0900	23.9798
 1.0890	24.0160
 1.0880	23.9073
 1.0870	23.9812
 1.0860	23.8028
 1.0850	23.8716
 1.0840	23.7850
 1.0830	23.8187
 1.0820	23.7243
 1.0810	23.8058
 1.0800	23.6042
 1.0790	23.7891
 1.0780	23.5565
 1.0770	23.5794
 1.0760	23.5281
 1.0750	23.5594
 1.0740	23.4901
 1.0730	23.6167
 1.0720	23.3575
 1.0710	23.5116
 1.0700	23.2721
 1.0690	23.4471
 1.0680	23.3584
 1.0670	23.4634
 1.0660	23.3128
 1.0650	23.3304
 1.0640	23.1864
 1.0630	23.3806
 1.0620	23.2409
 1.0610	23.3680
 1.0600	23.2315
 1.0590	23.2863
 1.0580	23.1825
 1.0570	23.2240
 1.0560	23.0569
 1.0550	23.2298
 1.0540	23.1469
 1.0530	23.2080
 1.0520	23.1323
 1.0510	23.2071
 1.0500	23.0862
 1.0490	23.1242
 1.0480	23.1022
 1.0470	23.1941
 1.0460	23.0963
 1.0450	23.1004
 1.0440	23.0427
 1.0430	23.1564
 1.0420	23.1398
 1.0410	23.1185
 1.0400	23.0044
 1.0390	23.0858
 1.0380	23.0900
 1.0370	23.1652
 1.0360	23.1001
 1.0350	23.0950
 1.0340	22.9771
 1.0330	23.1092
 1.0320	23.0739
 1.0310	23.1591
 1.0300	23.0696
 1.0290	23.1942
 1.0280	23.1300
 1.0270	23.2571
 1.0260	23.1278
 1.0250	23.2535
 1.0240	23.1347
 1.0230	23.2649
 1.0220	23.2432
 1.0210	23.2219
 1.0200	23.2272
 1.0190	23.3370
 1.0180	23.2752
 1.0170	23.3468
 1.0160	23.2789
 1.0150	23.4057
 1.0140	23.3794
 1.0130	23.3701
 1.0120	23.3683
 1.0110	23.4907
 1.0100	23.3767
 1.0090	23.4663
 1.0080	23.4078
 1.0070	23.4966
 1.0060	23.4150
 1.0050	23.4921
 1.0040	23.4852
 1.0030	23.5727
 1.0020	23.5422
 1.0010	23.6320
 1.0000	23.5490
 0.9990	23.6463
 0.9980	23.6543
 0.9970	23.7218
 0.9960	23.6986
 0.9950	23.7629
 0.9940	23.7214
 0.9930	23.7771
 0.9920	23.7408
 0.9910	23.7912
 0.9900	23.8136
 0.9890	23.8751
 0.9880	23.7706
 0.9870	23.8911
 0.9860	23.8728
 0.9850	23.8994
 0.9840	23.9778
 0.9830	24.0399
 0.9820	23.9809
 0.9810	23.9902
 0.9800	23.9431
 0.9790	24.1109
 0.9780	24.0906
 0.9770	24.1299
 0.9760	24.0487
 0.9750	24.1231
 0.9740	24.1442
 0.9730	24.1712
 0.9720	24.2145
 0.9710	24.2350
 0.9700	24.1668
 0.9690	24.2173
 0.9680	24.2948
 0.9670	24.2824
 0.9660	24.2776
 0.9650	24.3378
 0.9640	24.3152
 0.9630	24.3398
 0.9620	24.3594
 0.9610	24.4207
 0.9600	24.3727
 0.9590	24.4431
 0.9580	24.4422
 0.9570	24.4769
 0.9560	24.4991
 0.9550	24.4643
 0.9540	24.4889
 0.9530	24.5616
 0.9520	24.5497
 0.9510	24.5201
 0.9500	24.4532
 0.9490	24.5519
 0.9480	24.5808
 0.9470	24.5768
 0.9460	24.5528
 0.9450	24.5557
 0.9440	24.6063
 0.9430	24.5879
 0.9420	24.5481
 0.9410	24.5876
 0.9400	24.6113
 0.9390	24.6390
 0.9380	24.6078
 0.9370	24.6116
 0.9360	24.6505
 0.9350	24.6257
 0.9340	24.6192
 0.9330	24.6482
 0.9320	24.5959
 0.9310	24.5784
 0.9300	24.6085
 0.9290	24.6338
 0.9280	24.6099
 0.9270	24.5431
 0.9260	24.5435
 0.9250	24.5413
 0.9240	24.5394
 0.9230	24.5389
 0.9220	24.5149
 0.9210	24.4684
 0.9200	24.4539
 0.9190	24.4248
 0.9180	24.4062
 0.9170	24.3486
 0.9160	24.3226
 0.9150	24.3531
 0.9140	24.3304
 0.9130	24.2547
 0.9120	24.3104
 0.9110	24.2920
 0.9100	24.2136
 0.9090	24.1679
 0.9080	24.1387
 0.9070	24.0626
 0.9060	24.0502
 0.9050	24.0047
 0.9040	23.9866
 0.9030	23.8899
 0.9020	23.8923
 0.9010	23.8165
 0.9000	23.7679
 0.8990	23.7135
 0.8980	23.6931
 0.8970	23.6685
 0.8960	23.6307
 0.8950	23.5066
 0.8940	23.4787
 0.8930	23.3869
 0.8920	23.3286
 0.8910	23.2675
 0.8900	23.2661
 0.8890	23.1802
 0.8880	23.1251
 0.8870	23.0008
 0.8860	23.0265
 0.8850	22.9240
 0.8840	22.8780
 0.8830	22.7952
 0.8820	22.7090
 0.8810	22.5470
 0.8800	22.6076
 0.8790	22.5303
 0.8780	22.4461
 0.8770	22.3322
 0.8760	22.3072
 0.8750	22.1850
 0.8740	22.2104
 0.8730	22.0509
 0.8720	22.0304
 0.8710	21.9361
 0.8700	21.9050
 0.8690	21.7569
 0.8680	21.7712
 0.8670	21.6396
 0.8660	21.6291
 0.8650	21.5266
 0.8640	21.5343
 0.8630	21.3519
 0.8620	21.3251
 0.8610	21.2267
 0.8600	21.3268
 0.8590	21.3226
 0.8580	21.2937
 0.8570	21.2216
 0.8560	21.1487
 0.8550	21.1214
 0.8540	21.0767
 0.8530	20.9875
 0.8520	20.9378
 0.8510	20.8821
 0.8500	20.8274
 0.8490	20.7923
 0.8480	20.7299
 0.8470	20.6775
 0.8460	20.6290
 0.8450	20.5864
 0.8440	20.5404
 0.8430	20.5121
 0.8420	20.4825
 0.8410	20.4349
 0.8400	20.3932
 0.8390	20.3625
 0.8380	20.3479
 0.8370	20.3173
 0.8360	20.2758
 0.8350	20.2263
 0.8340	20.2152
 0.8330	20.1664
 0.8320	20.1501
 0.8310	20.1079
 0.8300	20.0864
 0.8290	20.0725
 0.8280	20.0441
 0.8270	20.0306
 0.8260	20.0025
 0.8250	19.9843
 0.8240	19.9790
 0.8230	19.9558
 0.8220	19.9261
 0.8210	19.9078
 0.8200	19.8892
 0.8190	19.8648
 0.8180	19.8502
 0.8170	19.8434
 0.8160	19.8335
 0.8150	19.8088
 0.8140	19.8149
 0.8130	19.7944
 0.8120	19.8080
 0.8110	19.7820
 0.8100	19.7671
 0.8090	19.7659
 0.8080	19.7591
 0.8070	19.7601
 0.8060	19.7260
 0.8050	19.7146
 0.8040	19.7167
 0.8030	19.7186
 0.8020	19.7150
 0.8010	19.6908
 0.8000	19.6942
 0.7990	19.6681
 0.7980	19.6695
 0.7970	19.6729
 0.7960	19.6631
 0.7950	19.6445
 0.7940	19.6316
 0.7930	19.6438
 0.7920	19.6306
 0.7910	19.6120
 0.7900	19.6239
 0.7890	19.6200
 0.7880	19.6127
 0.7870	19.6017
 0.7860	19.6041
 0.7850	19.5867
 0.7840	19.5901
 0.7830	19.5876
 0.7820	19.5646
 0.7810	19.5636
 0.7800	19.5525
 0.7790	19.5434
 0.7780	19.5364
 0.7770	19.5288
 0.7760	19.5161
 0.7750	19.4989
 0.7740	19.5037
 0.7730	19.4855
 0.7720	19.4748
 0.7710	19.4611
 0.7700	19.4398
 0.7690	19.4459
 0.7680	19.4170
 0.7670	19.4024
 0.7660	19.3954
 0.7650	19.3772
 0.7640	19.3614
 0.7630	19.3362
 0.7620	19.3244
 0.7610	19.3059
 0.7600	19.2889
 0.7590	19.2717
 0.7580	19.2614
 0.7570	19.2453
 0.7560	19.2181
 0.7550	19.1907
 0.7540	19.1694
 0.7530	19.1557
 0.7520	19.1288
 0.7510	19.1046
 0.7500	19.0795
 0.7490	19.0578
 0.7480	19.0292
 0.7470	19.0047
 0.7460	18.9818
 0.7450	18.9351
 0.7440	18.9138
 0.7430	18.8879
 0.7420	18.8510
 0.7410	18.8195
 0.7400	18.7877
 0.7390	18.7554
 0.7380	18.7126
 0.7370	18.6845
 0.7360	18.6500
 0.7350	18.6004
 0.7340	18.5718
 0.7330	18.5323
 0.7320	18.4975
 0.7310	18.4544
 0.7300	18.4122
 0.7290	18.3693
 0.7280	18.3313
 0.7270	18.2855
 0.7260	18.2441
 0.7250	18.1984
 0.7240	18.1494
 0.7230	18.1044
 0.7220	18.0551
 0.7210	18.0102
 0.7200	17.9625
 0.7190	17.9139
 0.7180	17.8602
 0.7170	17.8044
 0.7160	17.7603
 0.7150	17.7112
 0.7140	17.6543
 0.7130	17.5980
 0.7120	17.5413
 0.7110	17.4885
 0.7100	17.4339
 0.7090	17.3842
 0.7080	17.3229
 0.7070	17.2590
 0.7060	17.2015
 0.7050	17.1438
 0.7040	17.0872
 0.7030	17.0225
 0.7020	16.9629
 0.7010	16.8959
 0.7000	16.8354
 0.6990	16.7729
 0.6980	16.7124
 0.6970	16.6447
 0.6960	16.5819
 0.6950	16.5184
 0.6940	16.4492
 0.6930	16.3805
 0.6920	16.3200
 0.6910	16.2549
 0.6900	16.1927
 0.6890	16.1260
 0.6880	16.0516
 0.6870	15.9860
 0.6860	15.9207
 0.6850	15.8537
 0.6840	15.7839
 0.6830	15.7060
 0.6820	15.6410
 0.6810	15.5734
 0.6800	15.4972
 0.6790	15.4233
 0.6780	15.3573
 0.6770	15.2927
 0.6760	15.2165
 0.6750	15.1494
 0.6740	15.0798
 0.6730	15.0133
 0.6720	14.9468
 0.6710	14.8720
 0.6700	14.8004
 0.6690	14.7355
 0.6680	14.6680
 0.6670	14.5979
 0.6660	14.5278
 0.6650	14.4591
 0.6640	14.3908
 0.6630	14.3241
 0.6620	14.2599
 0.6610	14.1950
 0.6600	14.1271
 0.6590	14.0621
 0.6580	14.0018
 0.6570	13.9413
 0.6560	13.8747
 0.6550	13.8092
 0.6540	13.7467
 0.6530	13.6882
 0.6520	13.6303
 0.6510	13.5717
 0.6500	13.5136
 0.6490	13.4545
 0.6480	13.3983
 0.6470	13.3425
 0.6460	13.2874
 0.6450	13.2379
 0.6440	13.1852
 0.6430	13.1304
 0.6420	13.0817
 0.6410	13.0351
 0.6400	12.9859
 0.6390	12.9370
 0.6380	12.8913
 0.6370	12.8465
 0.6360	12.8034
 0.6350	12.7597
 0.6340	12.7187
 0.6330	12.6807
 0.6320	12.6415
 0.6310	12.6041
 0.6300	12.5704
 0.6290	12.5361
 0.6280	12.5016
 0.6270	12.4681
 0.6260	12.4348
 0.6250	12.4046
 0.6240	12.3743
 0.6230	12.3470
 0.6220	12.3220
 0.6210	12.2949
 0.6200	12.2709
 0.6190	12.2509
 0.6180	12.2303
 0.6170	12.2076
 0.6160	12.1902
 0.6150	12.1708
 0.6140	12.1495
 0.6130	12.1354
 0.6120	12.1210
 0.6110	12.1088
 0.6100	12.0953
 0.6090	12.0814
 0.6080	12.0689
 0.6070	12.0590
 0.6060	12.0498
 0.6050	12.0430
 0.6040	12.0355
 0.6030	12.0302
 0.6020	12.0247
 0.6010	12.0180
 0.6000	12.0147
 0.5990	12.0144
 0.5980	12.0173
 0.5970	12.0209
 0.5960	12.0204
 0.5950	12.0212
 0.5940	12.0201
 0.5930	12.0192
 0.5920	12.0228
 0.5910	12.0278
 0.5900	12.0297
 0.5890	12.0330
 0.5880	12.0350
 0.5870	12.0389
 0.5860	12.0441
 0.5850	12.0504
 0.5840	12.0536
 0.5830	12.0565
 0.5820	12.0604
 0.5810	12.0645
 0.5800	12.0701
 0.5790	12.0771
 0.5780	12.0809
 0.5770	12.0887
 0.5760	12.0920
 0.5750	12.0982
 0.5740	12.1039
 0.5730	12.1103
 0.5720	12.1152
 0.5710	12.1198
 0.5700	12.1225
 0.5690	12.1296
 0.5680	12.1358
 0.5670	12.1387
 0.5660	12.1442
 0.5650	12.1469
 0.5640	12.1501
 0.5630	12.1522
 0.5620	12.1574
 0.5610	12.1733
 0.5600	12.1845
 0.5590	12.1928
 0.5580	12.1991
 0.5570	12.2062
 0.5560	12.2166
 0.5550	12.2268
 0.5540	12.2401
 0.5530	12.2496
 0.5520	12.2650
 0.5510	12.2747
 0.5500	12.2852
 0.5490	12.2974
 0.5480	12.2996
 0.5470	12.2978
 0.5460	12.2993
 0.5450	12.2942
 0.5440	12.2873
 0.5430	12.2744
 0.5420	12.2603
 0.5410	12.2465
 0.5400	12.2243
 0.5390	12.2067
 0.5380	12.1784
 0.5370	12.1529
 0.5360	12.1274
 0.5350	12.0939
 0.5340	12.0623
 0.5330	12.0260
 0.5320	11.9889
 0.5310	11.9539
 0.5300	11.9182
 0.5290	11.8772
 0.5280	11.8322
 0.5270	11.7896
 0.5260	11.7415
 0.5250	11.6908
 0.5240	11.6394
 0.5230	11.5824
 0.5220	11.5275
 0.5210	11.4712
 0.5200	11.4115
 0.5190	11.3480
 0.5180	11.2837
 0.5170	11.2138
 0.5160	11.1418
 0.5150	11.0689
 0.5140	10.9866
 0.5130	10.9018
 0.5120	10.8143
 0.5110	10.7265
 0.5100	10.6313
 0.5090	10.5282
 0.5080	10.4333
 0.5070	10.3294
 0.5060	10.2295
 0.5050	10.1304
 0.5040	10.0176
 0.5030	 9.9096
 0.5020	 9.7935
 0.5010	 9.6751
 0.5000	 9.5504
 0.4990	 9.4204
 0.4980	 9.2837
 0.4970	 9.1381
 0.4960	 8.9909
 0.4950	 8.8388
 0.4940	 8.7028
 0.4930	 8.5383
 0.4920	 8.3744
 0.4910	 8.2060
 0.4900	 8.0361
 0.4890	 7.8626
 0.4880	 7.6910
 0.4870	 7.5184
 0.4860	 7.3432
 0.4850	 7.1704
 0.4840	 7.0014
 0.4830	 6.8379
 0.4820	 6.6829
 0.4810	 6.5394
 0.4800	 6.4082
 0.4790	 6.2871
 0.4780	 6.1736
 0.4770	 6.0781
 0.4760	 5.9931
 0.4750	 5.9304
 0.4740	 5.8798
 0.4730	 5.8477
 0.4720	 5.8306
 0.4710	 5.8301
 0.4700	 5.8487
 0.4690	 5.8742
 0.4680	 5.9224
 0.4670	 5.9745
 0.4660	 6.0307
 0.4650	 6.0844
 0.4640	 6.1298
 0.4630	 6.1512
 0.4620	 6.1488
 0.4610	 6.1148
 0.4600	 6.0542
 0.4590	 5.9738
 0.4580	 5.8840
 0.4570	 5.8010
 0.4560	 5.7376
 0.4550	 5.7083
 0.4540	 5.7223
 0.4530	 5.7811
 0.4520	 5.8857
 0.4510	 6.0070
 0.4500	 6.1397
 0.4490	 6.2558
 0.4480	 6.3490
 0.4470	 6.4175
 0.4460	 6.4617
 0.4450	 6.4863
 0.4440	 6.5006
 0.4430	 6.5049
 0.4420	 6.4928
 0.4410	 6.4750
 0.4400	 6.4436
 0.4390	 6.3902
 0.4380	 6.3224
 0.4370	 6.2410
 0.4360	 6.1522
 0.4350	 6.0575
 0.4340	 5.9591
 0.4330	 5.8621
 0.4320	 5.7697
 0.4310	 5.6819
 0.4300	 5.5998
 0.4290	 5.5187
 0.4280	 5.4447
 0.4270	 5.3718
 0.4260	 5.3016
 0.4250	 5.2327
 0.4240	 5.1722
 0.4230	 5.1137
 0.4220	 5.0591
 0.4210	 5.0031
 0.4200	 4.9509
 0.4190	 4.8978
 0.4180	 4.8511
 0.4170	 4.8053
 0.4160	 4.7608
 0.4150	 4.7233
 0.4140	 4.6839
 0.4130	 4.6492
 0.4120	 4.6202
 0.4110	 4.5917
 0.4100	 4.5728
 0.4090	 4.5553
 0.4080	 4.5397
 0.4070	 4.5270
 0.4060	 4.5169
 0.4050	 4.5103
 0.4040	 4.5079
 0.4030	 4.5044
 0.4020	 4.5074
 0.4010	 4.5117
 0.4000	 4.5171
