Name: Pyrite FeS_2
Type: Mineral
Class: Sulfide
Subclass: None
Particle Size: Medium
Sample No.: S-2A
Owner: JPL
Wavelength Range: VSWIR
Origin: Italy, Tuscany, Elba, Rio Marina Isle.
Collection Date: N/A
Description: Particle size was 45-125um. Collected by:  Ward's Original ASTER Spectral Library name was jpl.perkin.mineral.sulfide.none.medium.s02a.spectrum.txt
Measurement: Hemispherical reflectance
First Column: X
Second Column: Y
X Units: Wavelength (micrometers)
Y Units:Reflectance (percent)
First X Value:  2.5000
Last X Value:  0.4000
Number of X Values: 2101
Additional Information: mineral.sulfide.none.medium.vswir.s-2a.jpl.perkin.ancillary.txt

 2.5000	 7.5611
 2.4990	 7.2242
 2.4980	 7.7316
 2.4970	 7.5840
 2.4960	 7.3372
 2.4950	 7.6345
 2.4940	 7.4303
 2.4930	 7.4217
 2.4920	 7.7070
 2.4910	 7.3697
 2.4900	 7.7339
 2.4890	 7.4085
 2.4880	 7.7884
 2.4870	 7.4880
 2.4860	 7.5539
 2.4850	 7.6165
 2.4840	 7.7758
 2.4830	 7.5476
 2.4820	 7.5562
 2.4810	 7.4179
 2.4800	 7.5156
 2.4790	 7.5091
 2.4780	 7.5789
 2.4770	 7.4129
 2.4760	 7.8058
 2.4750	 7.6097
 2.4740	 7.6440
 2.4730	 7.5562
 2.4720	 7.6781
 2.4710	 7.5870
 2.4700	 7.6338
 2.4690	 7.6607
 2.4680	 7.6878
 2.4670	 7.5556
 2.4660	 7.7790
 2.4650	 7.6399
 2.4640	 7.7044
 2.4630	 7.6885
 2.4620	 7.8789
 2.4610	 7.5799
 2.4600	 7.8079
 2.4590	 7.7297
 2.4580	 7.6522
 2.4570	 7.7548
 2.4560	 7.6772
 2.4550	 7.6724
 2.4540	 7.7876
 2.4530	 7.7652
 2.4520	 7.6801
 2.4510	 7.5929
 2.4500	 7.7476
 2.4490	 7.7499
 2.4480	 7.7891
 2.4470	 7.7735
 2.4460	 7.8069
 2.4450	 7.7730
 2.4440	 7.7986
 2.4430	 7.7019
 2.4420	 7.8360
 2.4410	 7.7976
 2.4400	 7.8550
 2.4390	 7.7753
 2.4380	 7.8133
 2.4370	 7.7266
 2.4360	 7.8100
 2.4350	 7.8488
 2.4340	 7.8325
 2.4330	 7.7982
 2.4320	 7.8245
 2.4310	 7.7730
 2.4300	 7.7783
 2.4290	 7.7247
 2.4280	 7.8609
 2.4270	 7.8765
 2.4260	 7.8951
 2.4250	 7.8823
 2.4240	 7.8143
 2.4230	 7.7818
 2.4220	 7.8236
 2.4210	 7.7425
 2.4200	 7.9097
 2.4190	 7.7998
 2.4180	 7.7696
 2.4170	 7.7291
 2.4160	 7.7967
 2.4150	 7.8316
 2.4140	 7.8785
 2.4130	 7.9180
 2.4120	 7.9693
 2.4110	 7.8532
 2.4100	 7.8350
 2.4090	 7.8152
 2.4080	 7.8604
 2.4070	 7.8186
 2.4060	 7.8953
 2.4050	 7.8743
 2.4040	 7.8761
 2.4030	 7.8519
 2.4020	 7.8694
 2.4010	 7.8473
 2.4000	 7.8425
 2.3990	 7.8583
 2.3980	 7.9382
 2.3970	 7.9040
 2.3960	 7.8683
 2.3950	 7.8171
 2.3940	 7.9161
 2.3930	 7.8973
 2.3920	 7.9133
 2.3910	 7.9358
 2.3900	 7.9839
 2.3890	 7.9155
 2.3880	 8.0152
 2.3870	 7.9970
 2.3860	 7.9506
 2.3850	 7.9835
 2.3840	 8.0002
 2.3830	 7.9481
 2.3820	 8.0042
 2.3810	 8.0233
 2.3800	 7.9441
 2.3790	 7.9528
 2.3780	 8.0148
 2.3770	 7.9979
 2.3760	 8.0766
 2.3750	 8.0621
 2.3740	 8.0889
 2.3730	 8.1180
 2.3720	 8.0834
 2.3710	 8.0156
 2.3700	 8.0693
 2.3690	 8.0642
 2.3680	 8.0530
 2.3670	 8.0419
 2.3660	 8.0400
 2.3650	 8.0546
 2.3640	 8.0883
 2.3630	 8.0828
 2.3620	 8.0935
 2.3610	 8.0866
 2.3600	 8.1188
 2.3590	 8.0872
 2.3580	 8.1123
 2.3570	 8.1353
 2.3560	 8.1070
 2.3550	 8.1415
 2.3540	 8.1585
 2.3530	 8.1011
 2.3520	 8.1063
 2.3510	 8.1620
 2.3500	 8.1467
 2.3490	 8.1325
 2.3480	 8.1518
 2.3470	 8.1809
 2.3460	 8.2190
 2.3450	 8.2433
 2.3440	 8.2274
 2.3430	 8.2221
 2.3420	 8.2469
 2.3410	 8.1906
 2.3400	 8.1712
 2.3390	 8.2261
 2.3380	 8.2169
 2.3370	 8.1908
 2.3360	 8.1771
 2.3350	 8.2214
 2.3340	 8.2378
 2.3330	 8.2652
 2.3320	 8.2367
 2.3310	 8.2503
 2.3300	 8.2483
 2.3290	 8.2496
 2.3280	 8.2420
 2.3270	 8.2877
 2.3260	 8.2236
 2.3250	 8.2539
 2.3240	 8.2477
 2.3230	 8.2286
 2.3220	 8.2255
 2.3210	 8.2409
 2.3200	 8.2061
 2.3190	 8.2434
 2.3180	 8.2136
 2.3170	 8.1975
 2.3160	 8.2362
 2.3150	 8.3324
 2.3140	 8.3018
 2.3130	 8.2543
 2.3120	 8.2424
 2.3110	 8.2800
 2.3100	 8.2566
 2.3090	 8.2679
 2.3080	 8.2571
 2.3070	 8.1970
 2.3060	 8.1878
 2.3050	 8.2739
 2.3040	 8.2247
 2.3030	 8.3235
 2.3020	 8.2685
 2.3010	 8.3019
 2.3000	 8.2752
 2.2990	 8.3367
 2.2980	 8.2787
 2.2970	 8.2991
 2.2960	 8.3011
 2.2950	 8.2566
 2.2940	 8.2317
 2.2930	 8.2977
 2.2920	 8.2673
 2.2910	 8.3177
 2.2900	 8.2466
 2.2890	 8.3125
 2.2880	 8.2794
 2.2870	 8.3201
 2.2860	 8.3487
 2.2850	 8.3410
 2.2840	 8.2886
 2.2830	 8.3417
 2.2820	 8.3044
 2.2810	 8.2462
 2.2800	 8.2516
 2.2790	 8.2806
 2.2780	 8.2735
 2.2770	 8.3346
 2.2760	 8.2831
 2.2750	 8.3075
 2.2740	 8.2951
 2.2730	 8.2715
 2.2720	 8.3458
 2.2710	 8.2870
 2.2700	 8.2976
 2.2690	 8.3484
 2.2680	 8.3270
 2.2670	 8.3858
 2.2660	 8.2970
 2.2650	 8.2615
 2.2640	 8.2232
 2.2630	 8.2985
 2.2620	 8.2194
 2.2610	 8.3884
 2.2600	 8.2595
 2.2590	 8.3304
 2.2580	 8.2181
 2.2570	 8.3289
 2.2560	 8.3380
 2.2550	 8.3340
 2.2540	 8.2515
 2.2530	 8.2905
 2.2520	 8.2839
 2.2510	 8.3341
 2.2500	 8.2935
 2.2490	 8.3724
 2.2480	 8.2817
 2.2470	 8.3836
 2.2460	 8.2249
 2.2450	 8.3397
 2.2440	 8.2354
 2.2430	 8.3422
 2.2420	 8.2331
 2.2410	 8.3566
 2.2400	 8.2812
 2.2390	 8.3274
 2.2380	 8.2439
 2.2370	 8.3199
 2.2360	 8.2266
 2.2350	 8.3368
 2.2340	 8.2135
 2.2330	 8.3404
 2.2320	 8.3174
 2.2310	 8.3035
 2.2300	 8.3104
 2.2290	 8.2708
 2.2280	 8.2877
 2.2270	 8.3566
 2.2260	 8.2562
 2.2250	 8.3101
 2.2240	 8.2975
 2.2230	 8.2952
 2.2220	 8.2884
 2.2210	 8.2412
 2.2200	 8.2467
 2.2190	 8.3324
 2.2180	 8.1947
 2.2170	 8.3249
 2.2160	 8.2974
 2.2150	 8.3366
 2.2140	 8.3275
 2.2130	 8.3475
 2.2120	 8.2807
 2.2110	 8.0883
 2.2100	 8.3193
 2.2090	 8.3512
 2.2080	 8.1997
 2.2070	 8.2735
 2.2060	 8.2228
 2.2050	 8.3161
 2.2040	 8.2964
 2.2030	 8.3989
 2.2020	 8.2583
 2.2010	 8.3202
 2.2000	 8.2215
 2.1990	 8.3504
 2.1980	 8.3136
 2.1970	 8.2216
 2.1960	 8.3119
 2.1950	 8.4093
 2.1940	 8.2328
 2.1930	 8.3725
 2.1920	 8.2511
 2.1910	 8.3405
 2.1900	 8.3097
 2.1890	 8.2927
 2.1880	 8.2948
 2.1870	 8.3863
 2.1860	 8.2658
 2.1850	 8.2968
 2.1840	 8.2653
 2.1830	 8.3707
 2.1820	 8.2766
 2.1810	 8.2893
 2.1800	 8.2301
 2.1790	 8.3046
 2.1780	 8.2349
 2.1770	 8.3085
 2.1760	 8.2129
 2.1750	 8.3109
 2.1740	 8.2351
 2.1730	 8.3030
 2.1720	 8.2697
 2.1710	 8.4081
 2.1700	 8.2500
 2.1690	 8.3010
 2.1680	 8.2885
 2.1670	 8.3420
 2.1660	 8.3167
 2.1650	 8.3120
 2.1640	 8.3303
 2.1630	 8.3402
 2.1620	 8.2663
 2.1610	 8.3123
 2.1600	 8.2561
 2.1590	 8.3086
 2.1580	 8.2967
 2.1570	 8.3114
 2.1560	 8.3557
 2.1550	 8.3069
 2.1540	 8.2566
 2.1530	 8.3201
 2.1520	 8.3082
 2.1510	 8.3448
 2.1500	 8.2465
 2.1490	 8.3138
 2.1480	 8.2678
 2.1470	 8.3321
 2.1460	 8.3088
 2.1450	 8.3342
 2.1440	 8.2448
 2.1430	 8.3735
 2.1420	 8.2692
 2.1410	 8.2683
 2.1400	 8.2631
 2.1390	 8.2769
 2.1380	 8.2771
 2.1370	 8.2870
 2.1360	 8.1948
 2.1350	 8.2146
 2.1340	 8.2498
 2.1330	 8.2602
 2.1320	 8.2442
 2.1310	 8.2259
 2.1300	 8.1802
 2.1290	 8.2284
 2.1280	 8.1911
 2.1270	 8.1981
 2.1260	 8.1616
 2.1250	 8.2112
 2.1240	 8.2048
 2.1230	 8.1702
 2.1220	 8.1212
 2.1210	 8.1186
 2.1200	 8.1306
 2.1190	 8.1694
 2.1180	 8.1858
 2.1170	 8.1237
 2.1160	 8.0701
 2.1150	 8.0394
 2.1140	 8.0307
 2.1130	 8.0676
 2.1120	 8.0654
 2.1110	 8.0452
 2.1100	 8.0405
 2.1090	 8.1061
 2.1080	 8.1155
 2.1070	 8.1260
 2.1060	 8.0374
 2.1050	 8.0398
 2.1040	 8.0444
 2.1030	 7.9937
 2.1020	 7.9841
 2.1010	 8.0225
 2.1000	 8.0258
 2.0990	 8.0439
 2.0980	 8.0556
 2.0970	 8.0816
 2.0960	 8.0187
 2.0950	 7.9939
 2.0940	 8.0080
 2.0930	 8.0247
 2.0920	 7.9708
 2.0910	 7.9529
 2.0900	 7.9692
 2.0890	 7.9966
 2.0880	 8.0596
 2.0870	 8.0824
 2.0860	 8.0110
 2.0850	 7.9829
 2.0840	 8.0166
 2.0830	 8.0692
 2.0820	 8.0370
 2.0810	 8.0245
 2.0800	 8.0024
 2.0790	 7.9973
 2.0780	 8.0239
 2.0770	 8.0638
 2.0760	 8.0613
 2.0750	 8.0172
 2.0740	 7.9959
 2.0730	 8.0156
 2.0720	 8.0109
 2.0710	 7.9958
 2.0700	 8.0048
 2.0690	 8.0090
 2.0680	 8.0271
 2.0670	 8.0855
 2.0660	 8.0713
 2.0650	 8.0260
 2.0640	 8.0318
 2.0630	 8.0278
 2.0620	 8.0310
 2.0610	 8.0542
 2.0600	 8.0468
 2.0590	 8.0472
 2.0580	 8.0705
 2.0570	 8.0503
 2.0560	 8.0433
 2.0550	 7.9934
 2.0540	 7.9986
 2.0530	 8.0053
 2.0520	 8.0563
 2.0510	 8.0528
 2.0500	 8.0514
 2.0490	 8.0243
 2.0480	 8.0784
 2.0470	 8.0993
 2.0460	 8.0829
 2.0450	 8.0824
 2.0440	 8.0938
 2.0430	 8.0534
 2.0420	 8.0487
 2.0410	 8.0332
 2.0400	 8.0827
 2.0390	 8.0082
 2.0380	 8.0326
 2.0370	 8.1022
 2.0360	 8.0800
 2.0350	 8.0597
 2.0340	 8.1161
 2.0330	 8.0460
 2.0320	 8.0207
 2.0310	 8.0668
 2.0300	 8.0811
 2.0290	 8.0444
 2.0280	 8.0932
 2.0270	 8.0698
 2.0260	 8.0383
 2.0250	 7.9827
 2.0240	 8.0260
 2.0230	 8.0058
 2.0220	 8.0378
 2.0210	 8.0381
 2.0200	 8.0959
 2.0190	 8.0459
 2.0180	 8.0721
 2.0170	 8.0322
 2.0160	 7.9741
 2.0150	 7.9993
 2.0140	 8.0375
 2.0130	 8.0676
 2.0120	 8.0483
 2.0110	 8.0274
 2.0100	 8.0437
 2.0090	 7.9704
 2.0080	 8.0252
 2.0070	 7.9822
 2.0060	 8.0409
 2.0050	 7.9960
 2.0040	 8.0477
 2.0030	 8.0256
 2.0020	 8.0989
 2.0010	 8.0688
 2.0000	 8.0262
 1.9990	 8.0505
 1.9980	 8.0601
 1.9970	 8.0699
 1.9960	 8.0508
 1.9950	 8.0269
 1.9940	 8.0839
 1.9930	 8.0574
 1.9920	 8.0379
 1.9910	 7.9832
 1.9900	 7.9916
 1.9890	 8.0303
 1.9880	 8.0719
 1.9870	 7.9918
 1.9860	 7.9631
 1.9850	 8.0188
 1.9840	 8.0621
 1.9830	 8.0046
 1.9820	 8.0122
 1.9810	 8.0851
 1.9800	 8.0582
 1.9790	 8.0403
 1.9780	 8.0302
 1.9770	 8.0070
 1.9760	 8.0789
 1.9750	 8.0215
 1.9740	 8.0255
 1.9730	 7.9652
 1.9720	 8.1322
 1.9710	 8.0308
 1.9700	 8.0319
 1.9690	 7.9834
 1.9680	 8.0951
 1.9670	 8.0065
 1.9660	 8.1078
 1.9650	 8.0207
 1.9640	 7.9903
 1.9630	 8.1056
 1.9620	 8.0298
 1.9610	 8.0254
 1.9600	 8.1085
 1.9590	 7.9491
 1.9580	 8.1143
 1.9570	 8.0130
 1.9560	 8.0188
 1.9550	 8.0181
 1.9540	 8.0244
 1.9530	 8.0078
 1.9520	 8.0569
 1.9510	 7.9442
 1.9500	 8.0854
 1.9490	 8.0482
 1.9480	 8.0765
 1.9470	 7.9599
 1.9460	 8.1708
 1.9450	 8.0767
 1.9440	 8.0828
 1.9430	 7.9647
 1.9420	 8.1751
 1.9410	 7.9420
 1.9400	 8.1263
 1.9390	 8.0076
 1.9380	 8.0538
 1.9370	 8.0309
 1.9360	 8.0689
 1.9350	 8.0049
 1.9340	 8.0814
 1.9330	 8.0291
 1.9320	 8.0808
 1.9310	 8.0372
 1.9300	 8.1193
 1.9290	 7.9856
 1.9280	 8.1523
 1.9270	 8.1240
 1.9260	 7.9827
 1.9250	 8.2075
 1.9240	 8.1988
 1.9230	 8.0578
 1.9220	 8.1450
 1.9210	 8.1933
 1.9200	 8.2356
 1.9190	 8.1668
 1.9180	 8.2692
 1.9170	 8.1571
 1.9160	 8.2560
 1.9150	 8.2512
 1.9140	 8.2634
 1.9130	 8.2401
 1.9120	 8.3460
 1.9110	 8.2760
 1.9100	 8.3849
 1.9090	 8.3408
 1.9080	 8.4333
 1.9070	 8.3204
 1.9060	 8.4232
 1.9050	 8.3571
 1.9040	 8.4850
 1.9030	 8.3672
 1.9020	 8.4618
 1.9010	 8.3992
 1.9000	 8.5062
 1.8990	 8.4220
 1.8980	 8.4862
 1.8970	 8.4097
 1.8960	 8.6259
 1.8950	 8.5225
 1.8940	 8.6332
 1.8930	 8.5331
 1.8920	 8.6388
 1.8910	 8.5734
 1.8900	 8.6629
 1.8890	 8.6022
 1.8880	 8.5837
 1.8870	 8.5685
 1.8860	 8.6536
 1.8850	 8.6860
 1.8840	 8.6879
 1.8830	 8.6446
 1.8820	 8.7132
 1.8810	 8.6211
 1.8800	 8.6822
 1.8790	 8.6984
 1.8780	 8.7366
 1.8770	 8.6593
 1.8760	 8.7176
 1.8750	 8.6821
 1.8740	 8.7527
 1.8730	 8.6502
 1.8720	 8.7020
 1.8710	 8.6649
 1.8700	 8.6770
 1.8690	 8.7069
 1.8680	 8.8043
 1.8670	 8.6662
 1.8660	 8.7583
 1.8650	 8.7159
 1.8640	 8.7934
 1.8630	 8.7779
 1.8620	 8.7744
 1.8610	 8.7785
 1.8600	 8.7794
 1.8590	 8.7290
 1.8580	 8.7955
 1.8570	 8.7656
 1.8560	 8.8072
 1.8550	 8.7231
 1.8540	 8.7465
 1.8530	 8.7711
 1.8520	 8.8281
 1.8510	 8.7967
 1.8500	 8.8515
 1.8490	 8.7868
 1.8480	 8.7964
 1.8470	 8.8209
 1.8460	 8.8038
 1.8450	 8.8310
 1.8440	 8.9339
 1.8430	 8.8784
 1.8420	 8.8130
 1.8410	 8.8213
 1.8400	 8.8531
 1.8390	 8.8233
 1.8380	 8.7990
 1.8370	 8.8257
 1.8360	 8.7693
 1.8350	 8.7281
 1.8340	 8.8104
 1.8330	 8.9163
 1.8320	 8.8942
 1.8310	 8.8352
 1.8300	 8.8813
 1.8290	 8.8190
 1.8280	 8.8494
 1.8270	 8.8446
 1.8260	 8.8695
 1.8250	 8.8461
 1.8240	 8.8790
 1.8230	 8.9161
 1.8220	 8.9383
 1.8210	 8.9369
 1.8200	 8.8990
 1.8190	 8.8289
 1.8180	 8.8548
 1.8170	 8.9131
 1.8160	 8.9058
 1.8150	 8.9036
 1.8140	 8.9157
 1.8130	 8.9014
 1.8120	 8.8970
 1.8110	 8.8705
 1.8100	 8.9521
 1.8090	 8.9784
 1.8080	 8.9649
 1.8070	 8.9613
 1.8060	 8.8710
 1.8050	 8.8286
 1.8040	 8.9165
 1.8030	 8.9118
 1.8020	 8.9085
 1.8010	 8.9037
 1.8000	 8.9341
 1.7990	 8.9499
 1.7980	 8.9791
 1.7970	 8.9492
 1.7960	 8.9137
 1.7950	 8.9193
 1.7940	 8.9521
 1.7930	 8.9725
 1.7920	 8.9857
 1.7910	 8.9666
 1.7900	 8.9232
 1.7890	 8.9811
 1.7880	 8.9720
 1.7870	 8.9214
 1.7860	 8.9772
 1.7850	 9.0112
 1.7840	 8.9982
 1.7830	 9.0018
 1.7820	 9.0024
 1.7810	 8.9845
 1.7800	 8.9789
 1.7790	 8.9568
 1.7780	 8.9527
 1.7770	 9.0049
 1.7760	 9.0046
 1.7750	 9.0051
 1.7740	 9.0421
 1.7730	 9.0451
 1.7720	 9.0458
 1.7710	 9.0317
 1.7700	 8.9509
 1.7690	 9.0086
 1.7680	 9.0249
 1.7670	 8.9939
 1.7660	 8.9940
 1.7650	 9.0752
 1.7640	 9.0888
 1.7630	 9.0803
 1.7620	 9.0781
 1.7610	 9.0915
 1.7600	 9.0295
 1.7590	 9.0882
 1.7580	 9.0673
 1.7570	 9.0983
 1.7560	 9.0729
 1.7550	 9.1046
 1.7540	 9.0766
 1.7530	 9.0828
 1.7520	 9.0525
 1.7510	 9.1119
 1.7500	 9.1461
 1.7490	 9.1405
 1.7480	 9.0533
 1.7470	 9.0839
 1.7460	 9.0684
 1.7450	 9.0933
 1.7440	 9.0703
 1.7430	 9.0867
 1.7420	 9.0810
 1.7410	 9.1532
 1.7400	 9.0788
 1.7390	 9.1593
 1.7380	 9.1521
 1.7370	 9.1408
 1.7360	 9.1244
 1.7350	 9.1294
 1.7340	 9.1063
 1.7330	 9.1608
 1.7320	 9.1780
 1.7310	 9.1622
 1.7300	 9.2171
 1.7290	 9.2378
 1.7280	 9.1690
 1.7270	 9.1175
 1.7260	 9.1809
 1.7250	 9.2499
 1.7240	 9.1957
 1.7230	 9.2060
 1.7220	 9.2018
 1.7210	 9.2697
 1.7200	 9.1852
 1.7190	 9.1763
 1.7180	 9.1617
 1.7170	 9.2063
 1.7160	 9.1966
 1.7150	 9.2654
 1.7140	 9.1691
 1.7130	 9.2083
 1.7120	 9.2413
 1.7110	 9.2865
 1.7100	 9.2460
 1.7090	 9.2567
 1.7080	 9.2103
 1.7070	 9.2697
 1.7060	 9.2446
 1.7050	 9.2497
 1.7040	 9.2144
 1.7030	 9.3335
 1.7020	 9.2246
 1.7010	 9.2241
 1.7000	 9.3136
 1.6990	 9.3642
 1.6980	 9.2879
 1.6970	 9.2640
 1.6960	 9.2637
 1.6950	 9.2823
 1.6940	 9.3026
 1.6930	 9.3356
 1.6920	 9.3003
 1.6910	 9.3341
 1.6900	 9.2697
 1.6890	 9.2919
 1.6880	 9.3436
 1.6870	 9.3271
 1.6860	 9.3537
 1.6850	 9.4198
 1.6840	 9.2577
 1.6830	 9.3530
 1.6820	 9.3219
 1.6810	 9.3475
 1.6800	 9.2988
 1.6790	 9.3194
 1.6780	 9.3334
 1.6770	 9.3756
 1.6760	 9.3726
 1.6750	 9.3767
 1.6740	 9.3985
 1.6730	 9.3995
 1.6720	 9.3970
 1.6710	 9.3567
 1.6700	 9.3899
 1.6690	 9.4670
 1.6680	 9.2260
 1.6670	 9.5003
 1.6660	 9.3800
 1.6650	 9.4583
 1.6640	 9.3900
 1.6630	 9.3714
 1.6620	 9.3918
 1.6610	 9.4607
 1.6600	 9.3872
 1.6590	 9.5094
 1.6580	 9.3387
 1.6570	 9.4009
 1.6560	 9.4095
 1.6550	 9.4811
 1.6540	 9.4354
 1.6530	 9.4997
 1.6520	 9.5032
 1.6510	 9.4824
 1.6500	 9.4035
 1.6490	 9.5319
 1.6480	 9.3616
 1.6470	 9.5027
 1.6460	 9.4432
 1.6450	 9.5478
 1.6440	 9.3502
 1.6430	 9.4428
 1.6420	 9.4684
 1.6410	 9.4258
 1.6400	 9.4007
 1.6390	 9.4513
 1.6380	 9.4334
 1.6370	 9.5410
 1.6360	 9.5174
 1.6350	 9.5223
 1.6340	 9.3988
 1.6330	 9.5028
 1.6320	 9.3407
 1.6310	 9.5211
 1.6300	 9.4208
 1.6290	 9.5032
 1.6280	 9.4276
 1.6270	 9.5441
 1.6260	 9.5111
 1.6250	 9.5451
 1.6240	 9.4006
 1.6230	 9.5045
 1.6220	 9.4656
 1.6210	 9.5371
 1.6200	 9.4596
 1.6190	 9.4898
 1.6180	 9.5938
 1.6170	 9.5486
 1.6160	 9.5200
 1.6150	 9.5483
 1.6140	 9.4685
 1.6130	 9.5224
 1.6120	 9.5068
 1.6110	 9.5758
 1.6100	 9.4594
 1.6090	 9.5323
 1.6080	 9.5230
 1.6070	 9.6105
 1.6060	 9.4928
 1.6050	 9.5148
 1.6040	 9.5120
 1.6030	 9.5368
 1.6020	 9.4756
 1.6010	 9.6052
 1.6000	 9.4972
 1.5990	 9.5910
 1.5980	 9.4890
 1.5970	 9.5819
 1.5960	 9.5452
 1.5950	 9.6061
 1.5940	 9.5023
 1.5930	 9.5861
 1.5920	 9.5130
 1.5910	 9.5055
 1.5900	 9.5036
 1.5890	 9.5018
 1.5880	 9.4667
 1.5870	 9.5267
 1.5860	 9.5750
 1.5850	 9.6027
 1.5840	 9.5518
 1.5830	 9.4709
 1.5820	 9.5343
 1.5810	 9.5970
 1.5800	 9.5164
 1.5790	 9.5743
 1.5780	 9.5568
 1.5770	 9.5678
 1.5760	 9.4750
 1.5750	 9.5471
 1.5740	 9.5515
 1.5730	 9.5908
 1.5720	 9.5327
 1.5710	 9.5569
 1.5700	 9.5546
 1.5690	 9.5732
 1.5680	 9.4896
 1.5670	 9.5694
 1.5660	 9.5261
 1.5650	 9.6106
 1.5640	 9.5078
 1.5630	 9.5752
 1.5620	 9.5529
 1.5610	 9.5439
 1.5600	 9.5069
 1.5590	 9.5563
 1.5580	 9.5563
 1.5570	 9.5606
 1.5560	 9.5285
 1.5550	 9.6026
 1.5540	 9.5217
 1.5530	 9.5715
 1.5520	 9.5177
 1.5510	 9.5739
 1.5500	 9.5034
 1.5490	 9.5614
 1.5480	 9.5578
 1.5470	 9.5377
 1.5460	 9.5489
 1.5450	 9.5419
 1.5440	 9.5201
 1.5430	 9.5392
 1.5420	 9.5420
 1.5410	 9.5272
 1.5400	 9.5244
 1.5390	 9.5260
 1.5380	 9.4509
 1.5370	 9.4771
 1.5360	 9.5297
 1.5350	 9.5827
 1.5340	 9.4755
 1.5330	 9.4882
 1.5320	 9.4828
 1.5310	 9.5424
 1.5300	 9.5378
 1.5290	 9.5041
 1.5280	 9.4416
 1.5270	 9.5025
 1.5260	 9.4929
 1.5250	 9.4586
 1.5240	 9.4648
 1.5230	 9.4945
 1.5220	 9.4736
 1.5210	 9.4735
 1.5200	 9.4713
 1.5190	 9.4333
 1.5180	 9.3696
 1.5170	 9.3937
 1.5160	 9.4027
 1.5150	 9.4300
 1.5140	 9.4383
 1.5130	 9.4151
 1.5120	 9.3696
 1.5110	 9.4665
 1.5100	 9.5101
 1.5090	 9.4214
 1.5080	 9.3989
 1.5070	 9.4541
 1.5060	 9.4730
 1.5050	 9.4564
 1.5040	 9.4269
 1.5030	 9.4342
 1.5020	 9.4338
 1.5010	 9.3940
 1.5000	 9.4058
 1.4990	 9.3840
 1.4980	 9.3950
 1.4970	 9.4310
 1.4960	 9.4107
 1.4950	 9.3920
 1.4940	 9.3682
 1.4930	 9.3711
 1.4920	 9.3728
 1.4910	 9.3703
 1.4900	 9.4219
 1.4890	 9.4098
 1.4880	 9.3660
 1.4870	 9.3871
 1.4860	 9.3842
 1.4850	 9.3556
 1.4840	 9.3917
 1.4830	 9.3639
 1.4820	 9.3575
 1.4810	 9.3214
 1.4800	 9.3369
 1.4790	 9.3561
 1.4780	 9.3461
 1.4770	 9.3536
 1.4760	 9.3147
 1.4750	 9.2817
 1.4740	 9.3033
 1.4730	 9.2653
 1.4720	 9.2579
 1.4710	 9.2362
 1.4700	 9.3071
 1.4690	 9.2971
 1.4680	 9.2925
 1.4670	 9.2610
 1.4660	 9.2816
 1.4650	 9.2586
 1.4640	 9.2870
 1.4630	 9.2772
 1.4620	 9.2643
 1.4610	 9.2362
 1.4600	 9.2829
 1.4590	 9.2634
 1.4580	 9.2703
 1.4570	 9.1883
 1.4560	 9.2238
 1.4550	 9.2685
 1.4540	 9.2093
 1.4530	 9.2204
 1.4520	 9.2071
 1.4510	 9.1756
 1.4500	 9.2368
 1.4490	 9.1983
 1.4480	 9.1966
 1.4470	 9.0829
 1.4460	 9.1535
 1.4450	 9.1664
 1.4440	 9.1869
 1.4430	 9.1390
 1.4420	 9.1222
 1.4410	 9.1236
 1.4400	 9.1780
 1.4390	 9.1087
 1.4380	 9.2025
 1.4370	 9.1281
 1.4360	 9.1548
 1.4350	 9.1048
 1.4340	 9.1858
 1.4330	 9.0657
 1.4320	 9.1167
 1.4310	 9.1713
 1.4300	 9.1408
 1.4290	 9.0786
 1.4280	 9.0723
 1.4270	 9.0785
 1.4260	 9.1751
 1.4250	 9.0632
 1.4240	 9.1128
 1.4230	 9.0312
 1.4220	 9.1817
 1.4210	 9.0848
 1.4200	 9.0891
 1.4190	 9.0586
 1.4180	 9.0818
 1.4170	 9.0069
 1.4160	 9.0247
 1.4150	 9.0825
 1.4140	 9.0713
 1.4130	 9.0197
 1.4120	 9.0435
 1.4110	 9.0162
 1.4100	 9.0768
 1.4090	 8.9830
 1.4080	 9.0920
 1.4070	 9.0001
 1.4060	 9.0554
 1.4050	 9.0066
 1.4040	 9.0645
 1.4030	 9.0665
 1.4020	 9.0655
 1.4010	 9.0174
 1.4000	 9.0346
 1.3990	 9.0034
 1.3980	 9.1099
 1.3970	 9.0217
 1.3960	 9.0772
 1.3950	 8.9939
 1.3940	 9.0604
 1.3930	 8.9700
 1.3920	 8.9701
 1.3910	 8.9949
 1.3900	 9.0112
 1.3890	 8.9874
 1.3880	 8.9571
 1.3870	 8.8818
 1.3860	 9.1313
 1.3850	 8.9373
 1.3840	 9.0314
 1.3830	 8.9115
 1.3820	 8.9030
 1.3810	 8.9355
 1.3800	 8.8792
 1.3790	 9.0198
 1.3780	 9.0180
 1.3770	 8.9923
 1.3760	 9.0474
 1.3750	 8.9475
 1.3740	 9.0509
 1.3730	 8.8668
 1.3720	 8.9781
 1.3710	 8.8953
 1.3700	 8.9532
 1.3690	 8.9909
 1.3680	 8.9024
 1.3670	 8.8618
 1.3660	 8.9607
 1.3650	 8.9232
 1.3640	 8.9863
 1.3630	 8.8718
 1.3620	 9.0183
 1.3610	 8.8539
 1.3600	 8.9310
 1.3590	 8.9147
 1.3580	 8.9654
 1.3570	 8.8496
 1.3560	 9.0625
 1.3550	 8.6649
 1.3540	 8.9174
 1.3530	 8.9021
 1.3520	 8.9295
 1.3510	 8.8935
 1.3500	 8.9333
 1.3490	 8.9176
 1.3480	 8.8406
 1.3470	 8.7776
 1.3460	 8.9360
 1.3450	 8.8659
 1.3440	 9.0142
 1.3430	 8.8439
 1.3420	 8.9489
 1.3410	 8.8786
 1.3400	 8.9082
 1.3390	 8.8944
 1.3380	 8.9388
 1.3370	 8.7895
 1.3360	 8.9287
 1.3350	 8.8172
 1.3340	 8.9096
 1.3330	 8.7999
 1.3320	 8.9081
 1.3310	 8.8781
 1.3300	 8.8931
 1.3290	 8.8323
 1.3280	 8.9226
 1.3270	 8.8134
 1.3260	 8.9085
 1.3250	 8.8257
 1.3240	 8.9433
 1.3230	 8.8090
 1.3220	 8.8840
 1.3210	 8.8427
 1.3200	 8.9480
 1.3190	 8.7940
 1.3180	 8.9122
 1.3170	 8.8225
 1.3160	 8.8894
 1.3150	 8.7676
 1.3140	 8.8686
 1.3130	 8.8438
 1.3120	 8.9227
 1.3110	 8.8156
 1.3100	 8.8712
 1.3090	 8.8119
 1.3080	 8.8811
 1.3070	 8.7978
 1.3060	 8.9205
 1.3050	 8.7841
 1.3040	 8.9034
 1.3030	 8.8064
 1.3020	 8.9188
 1.3010	 8.8384
 1.3000	 8.8187
 1.2990	 8.8322
 1.2980	 8.9264
 1.2970	 8.8541
 1.2960	 8.8774
 1.2950	 8.8220
 1.2940	 8.8680
 1.2930	 8.7960
 1.2920	 8.8201
 1.2910	 8.8026
 1.2900	 8.8396
 1.2890	 8.8298
 1.2880	 8.8438
 1.2870	 8.8835
 1.2860	 8.8817
 1.2850	 8.8738
 1.2840	 8.8707
 1.2830	 8.8478
 1.2820	 8.9028
 1.2810	 8.8638
 1.2800	 8.8841
 1.2790	 8.8455
 1.2780	 8.8930
 1.2770	 8.8210
 1.2760	 8.8185
 1.2750	 8.7658
 1.2740	 8.8414
 1.2730	 8.8243
 1.2720	 8.8349
 1.2710	 8.8517
 1.2700	 8.8921
 1.2690	 8.8524
 1.2680	 8.8301
 1.2670	 8.8454
 1.2660	 8.8684
 1.2650	 8.8455
 1.2640	 8.8710
 1.2630	 8.8336
 1.2620	 8.7836
 1.2610	 8.7979
 1.2600	 8.8228
 1.2590	 8.8356
 1.2580	 8.8901
 1.2570	 8.8528
 1.2560	 8.8474
 1.2550	 8.8256
 1.2540	 8.8747
 1.2530	 8.9027
 1.2520	 8.8648
 1.2510	 8.8623
 1.2500	 8.8717
 1.2490	 8.8817
 1.2480	 8.8983
 1.2470	 8.8991
 1.2460	 8.9209
 1.2450	 8.8385
 1.2440	 8.8874
 1.2430	 8.9122
 1.2420	 8.9175
 1.2410	 8.8479
 1.2400	 8.8413
 1.2390	 8.8809
 1.2380	 8.8832
 1.2370	 8.8563
 1.2360	 8.8543
 1.2350	 8.8437
 1.2340	 8.8699
 1.2330	 8.8849
 1.2320	 8.9216
 1.2310	 8.8885
 1.2300	 8.9222
 1.2290	 8.9164
 1.2280	 8.8734
 1.2270	 8.8661
 1.2260	 8.9091
 1.2250	 8.9093
 1.2240	 8.9093
 1.2230	 8.8619
 1.2220	 8.8978
 1.2210	 8.9320
 1.2200	 8.9442
 1.2190	 8.9404
 1.2180	 8.8788
 1.2170	 8.8834
 1.2160	 8.8980
 1.2150	 8.9378
 1.2140	 8.9214
 1.2130	 8.8880
 1.2120	 8.8980
 1.2110	 8.9006
 1.2100	 8.9175
 1.2090	 8.9090
 1.2080	 8.8727
 1.2070	 8.9060
 1.2060	 8.9098
 1.2050	 8.8828
 1.2040	 8.8888
 1.2030	 8.9356
 1.2020	 8.9389
 1.2010	 8.9305
 1.2000	 8.9185
 1.1990	 8.9244
 1.1980	 8.9212
 1.1970	 8.9209
 1.1960	 8.9282
 1.1950	 8.9324
 1.1940	 8.8955
 1.1930	 8.9738
 1.1920	 8.9676
 1.1910	 8.9423
 1.1900	 8.9439
 1.1890	 8.9837
 1.1880	 8.8792
 1.1870	 8.9339
 1.1860	 8.9809
 1.1850	 8.9544
 1.1840	 8.9932
 1.1830	 9.0313
 1.1820	 8.9525
 1.1810	 8.9427
 1.1800	 8.9651
 1.1790	 8.9693
 1.1780	 8.9756
 1.1770	 9.0134
 1.1760	 8.9732
 1.1750	 8.9692
 1.1740	 8.9987
 1.1730	 8.9990
 1.1720	 9.0070
 1.1710	 9.0365
 1.1700	 9.0051
 1.1690	 9.0054
 1.1680	 8.9682
 1.1670	 9.0440
 1.1660	 9.0044
 1.1650	 8.9119
 1.1640	 8.9532
 1.1630	 9.0248
 1.1620	 9.0460
 1.1610	 9.0483
 1.1600	 8.9750
 1.1590	 9.0060
 1.1580	 8.9252
 1.1570	 8.9864
 1.1560	 9.0323
 1.1550	 9.0441
 1.1540	 9.0214
 1.1530	 9.0504
 1.1520	 9.0381
 1.1510	 9.0227
 1.1500	 9.0760
 1.1490	 9.0926
 1.1480	 9.0569
 1.1470	 9.0988
 1.1460	 9.0444
 1.1450	 9.0786
 1.1440	 9.0231
 1.1430	 9.0761
 1.1420	 9.1034
 1.1410	 9.1207
 1.1400	 8.9686
 1.1390	 9.0726
 1.1380	 9.0692
 1.1370	 9.0476
 1.1360	 9.0587
 1.1350	 9.0526
 1.1340	 9.0352
 1.1330	 9.0902
 1.1320	 9.0564
 1.1310	 9.1631
 1.1300	 9.0533
 1.1290	 9.1299
 1.1280	 9.0807
 1.1270	 9.1596
 1.1260	 9.0428
 1.1250	 9.2136
 1.1240	 9.1448
 1.1230	 9.1193
 1.1220	 9.0825
 1.1210	 9.1201
 1.1200	 9.0946
 1.1190	 9.1175
 1.1180	 9.1354
 1.1170	 9.1192
 1.1160	 9.1416
 1.1150	 9.1209
 1.1140	 9.0708
 1.1130	 9.1079
 1.1120	 9.1903
 1.1110	 9.1540
 1.1100	 9.1779
 1.1090	 9.2130
 1.1080	 9.0947
 1.1070	 9.1734
 1.1060	 9.1414
 1.1050	 9.1933
 1.1040	 9.1946
 1.1030	 9.1864
 1.1020	 9.1497
 1.1010	 9.2685
 1.1000	 9.2025
 1.0990	 9.2395
 1.0980	 9.1406
 1.0970	 9.2666
 1.0960	 9.0383
 1.0950	 9.2110
 1.0940	 9.1654
 1.0930	 9.2729
 1.0920	 9.1939
 1.0910	 9.3309
 1.0900	 9.1341
 1.0890	 9.1959
 1.0880	 9.1893
 1.0870	 9.2322
 1.0860	 9.1507
 1.0850	 9.2561
 1.0840	 9.2094
 1.0830	 9.3330
 1.0820	 9.2369
 1.0810	 9.2545
 1.0800	 9.2664
 1.0790	 9.2807
 1.0780	 9.1198
 1.0770	 9.3095
 1.0760	 9.2581
 1.0750	 9.3269
 1.0740	 9.1804
 1.0730	 9.2811
 1.0720	 9.2067
 1.0710	 9.3990
 1.0700	 9.1246
 1.0690	 9.3730
 1.0680	 9.3437
 1.0670	 9.3173
 1.0660	 9.2672
 1.0650	 9.2401
 1.0640	 9.2673
 1.0630	 9.3754
 1.0620	 9.2829
 1.0610	 9.3224
 1.0600	 9.2743
 1.0590	 9.3649
 1.0580	 9.3129
 1.0570	 9.3317
 1.0560	 9.1953
 1.0550	 9.3407
 1.0540	 9.3075
 1.0530	 9.3137
 1.0520	 9.2857
 1.0510	 9.3784
 1.0500	 9.3013
 1.0490	 9.3667
 1.0480	 9.3952
 1.0470	 9.3603
 1.0460	 9.3350
 1.0450	 9.4191
 1.0440	 9.2488
 1.0430	 9.4169
 1.0420	 9.3320
 1.0410	 9.4186
 1.0400	 9.3317
 1.0390	 9.3706
 1.0380	 9.3363
 1.0370	 9.4058
 1.0360	 9.4451
 1.0350	 9.3686
 1.0340	 9.3231
 1.0330	 9.4003
 1.0320	 9.3995
 1.0310	 9.4601
 1.0300	 9.4127
 1.0290	 9.4247
 1.0280	 9.3769
 1.0270	 9.4389
 1.0260	 9.4197
 1.0250	 9.4153
 1.0240	 9.4292
 1.0230	 9.4260
 1.0220	 9.3840
 1.0210	 9.4634
 1.0200	 9.3833
 1.0190	 9.4354
 1.0180	 9.3991
 1.0170	 9.4598
 1.0160	 9.4293
 1.0150	 9.4852
 1.0140	 9.4519
 1.0130	 9.4729
 1.0120	 9.3835
 1.0110	 9.4835
 1.0100	 9.3915
 1.0090	 9.4941
 1.0080	 9.4625
 1.0070	 9.5558
 1.0060	 9.4734
 1.0050	 9.5751
 1.0040	 9.4613
 1.0030	 9.4841
 1.0020	 9.5184
 1.0010	 9.5465
 1.0000	 9.5417
 0.9990	 9.5247
 0.9980	 9.4997
 0.9970	 9.5095
 0.9960	 9.5435
 0.9950	 9.5776
 0.9940	 9.4973
 0.9930	 9.4984
 0.9920	 9.4760
 0.9910	 9.5667
 0.9900	 9.5222
 0.9890	 9.5720
 0.9880	 9.5270
 0.9870	 9.5099
 0.9860	 9.5711
 0.9850	 9.6154
 0.9840	 9.5772
 0.9830	 9.6013
 0.9820	 9.5499
 0.9810	 9.5480
 0.9800	 9.5192
 0.9790	 9.5786
 0.9780	 9.5982
 0.9770	 9.5845
 0.9760	 9.5720
 0.9750	 9.5877
 0.9740	 9.5939
 0.9730	 9.6261
 0.9720	 9.6467
 0.9710	 9.6520
 0.9700	 9.6064
 0.9690	 9.6297
 0.9680	 9.6394
 0.9670	 9.6936
 0.9660	 9.6316
 0.9650	 9.6591
 0.9640	 9.6928
 0.9630	 9.7174
 0.9620	 9.6330
 0.9610	 9.6867
 0.9600	 9.7111
 0.9590	 9.6894
 0.9580	 9.6661
 0.9570	 9.7034
 0.9560	 9.6635
 0.9550	 9.6835
 0.9540	 9.6760
 0.9530	 9.6763
 0.9520	 9.6502
 0.9510	 9.7097
 0.9500	 9.7412
 0.9490	 9.6967
 0.9480	 9.6877
 0.9470	 9.7170
 0.9460	 9.6820
 0.9450	 9.7081
 0.9440	 9.7389
 0.9430	 9.7242
 0.9420	 9.8019
 0.9410	 9.8070
 0.9400	 9.7594
 0.9390	 9.7608
 0.9380	 9.7754
 0.9370	 9.7737
 0.9360	 9.7417
 0.9350	 9.7982
 0.9340	 9.8567
 0.9330	 9.8082
 0.9320	 9.7999
 0.9310	 9.8302
 0.9300	 9.7914
 0.9290	 9.7883
 0.9280	 9.8430
 0.9270	 9.8814
 0.9260	 9.8667
 0.9250	 9.8147
 0.9240	 9.8649
 0.9230	 9.8436
 0.9220	 9.8229
 0.9210	 9.8170
 0.9200	 9.8370
 0.9190	 9.8936
 0.9180	 9.8847
 0.9170	 9.8931
 0.9160	 9.9407
 0.9150	 9.9095
 0.9140	 9.9290
 0.9130	 9.9604
 0.9120	 9.9539
 0.9110	 9.8968
 0.9100	 9.8906
 0.9090	 9.8749
 0.9080	 9.9301
 0.9070	 9.9207
 0.9060	 9.9363
 0.9050	 9.9299
 0.9040	 9.9536
 0.9030	 9.9687
 0.9020	10.0075
 0.9010	 9.9027
 0.9000	 9.8649
 0.8990	 9.9315
 0.8980	 9.9784
 0.8970	 9.9560
 0.8960	 9.9897
 0.8950	 9.9769
 0.8940	 9.9993
 0.8930	10.0317
 0.8920	10.0621
 0.8910	 9.9835
 0.8900	10.0380
 0.8890	 9.9892
 0.8880	10.0474
 0.8870	10.0251
 0.8860	10.0757
 0.8850	10.0577
 0.8840	10.0943
 0.8830	10.1058
 0.8820	10.0944
 0.8810	10.0632
 0.8800	10.1534
 0.8790	10.1336
 0.8780	10.1295
 0.8770	10.1035
 0.8760	10.1273
 0.8750	10.1259
 0.8740	10.1907
 0.8730	10.0997
 0.8720	10.1081
 0.8710	10.1598
 0.8700	10.1881
 0.8690	10.1273
 0.8680	10.2200
 0.8670	10.1695
 0.8660	10.1519
 0.8650	10.1486
 0.8640	10.1783
 0.8630	10.2034
 0.8620	10.2065
 0.8610	10.1640
 0.8600	10.3696
 0.8590	10.3365
 0.8580	10.3281
 0.8570	10.3581
 0.8560	10.3823
 0.8550	10.3651
 0.8540	10.3940
 0.8530	10.4204
 0.8520	10.4185
 0.8510	10.4328
 0.8500	10.4614
 0.8490	10.4659
 0.8480	10.4783
 0.8470	10.4861
 0.8460	10.4958
 0.8450	10.5109
 0.8440	10.5201
 0.8430	10.5550
 0.8420	10.5380
 0.8410	10.5672
 0.8400	10.5936
 0.8390	10.5884
 0.8380	10.6000
 0.8370	10.6386
 0.8360	10.6327
 0.8350	10.6438
 0.8340	10.6617
 0.8330	10.6540
 0.8320	10.6627
 0.8310	10.6811
 0.8300	10.6899
 0.8290	10.6960
 0.8280	10.7214
 0.8270	10.7247
 0.8260	10.7405
 0.8250	10.7604
 0.8240	10.7891
 0.8230	10.7677
 0.8220	10.7778
 0.8210	10.7918
 0.8200	10.8022
 0.8190	10.8131
 0.8180	10.8407
 0.8170	10.8425
 0.8160	10.8610
 0.8150	10.8888
 0.8140	10.8749
 0.8130	10.9011
 0.8120	10.9188
 0.8110	10.9226
 0.8100	10.9210
 0.8090	10.9508
 0.8080	10.9685
 0.8070	10.9603
 0.8060	10.9883
 0.8050	10.9823
 0.8040	10.9926
 0.8030	11.0188
 0.8020	11.0378
 0.8010	11.0235
 0.8000	11.0474
 0.7990	11.0705
 0.7980	11.0561
 0.7970	11.0837
 0.7960	11.0985
 0.7950	11.0827
 0.7940	11.1145
 0.7930	11.1396
 0.7920	11.1189
 0.7910	11.1344
 0.7900	11.1512
 0.7890	11.1523
 0.7880	11.1637
 0.7870	11.1888
 0.7860	11.1890
 0.7850	11.2010
 0.7840	11.2207
 0.7830	11.2234
 0.7820	11.2381
 0.7810	11.2465
 0.7800	11.2543
 0.7790	11.2584
 0.7780	11.2782
 0.7770	11.2951
 0.7760	11.2866
 0.7750	11.3053
 0.7740	11.3220
 0.7730	11.3193
 0.7720	11.3345
 0.7710	11.3512
 0.7700	11.3457
 0.7690	11.3568
 0.7680	11.3754
 0.7670	11.3828
 0.7660	11.3991
 0.7650	11.4071
 0.7640	11.4136
 0.7630	11.4265
 0.7620	11.4292
 0.7610	11.4355
 0.7600	11.4632
 0.7590	11.4649
 0.7580	11.4724
 0.7570	11.4938
 0.7560	11.4813
 0.7550	11.5041
 0.7540	11.5040
 0.7530	11.5187
 0.7520	11.5321
 0.7510	11.5350
 0.7500	11.5519
 0.7490	11.5542
 0.7480	11.5590
 0.7470	11.5786
 0.7460	11.5866
 0.7450	11.5954
 0.7440	11.6017
 0.7430	11.6141
 0.7420	11.6238
 0.7410	11.6433
 0.7400	11.6548
 0.7390	11.6500
 0.7380	11.6645
 0.7370	11.6762
 0.7360	11.6775
 0.7350	11.6891
 0.7340	11.7014
 0.7330	11.7029
 0.7320	11.7130
 0.7310	11.7278
 0.7300	11.7282
 0.7290	11.7439
 0.7280	11.7483
 0.7270	11.7508
 0.7260	11.7589
 0.7250	11.7674
 0.7240	11.7773
 0.7230	11.7808
 0.7220	11.7902
 0.7210	11.7884
 0.7200	11.7939
 0.7190	11.8022
 0.7180	11.8095
 0.7170	11.8051
 0.7160	11.8119
 0.7150	11.8200
 0.7140	11.8209
 0.7130	11.8196
 0.7120	11.8289
 0.7110	11.8237
 0.7100	11.8335
 0.7090	11.8340
 0.7080	11.8268
 0.7070	11.8364
 0.7060	11.8382
 0.7050	11.8291
 0.7040	11.8336
 0.7030	11.8397
 0.7020	11.8379
 0.7010	11.8375
 0.7000	11.8362
 0.6990	11.8360
 0.6980	11.8403
 0.6970	11.8386
 0.6960	11.8363
 0.6950	11.8311
 0.6940	11.8295
 0.6930	11.8260
 0.6920	11.8249
 0.6910	11.8264
 0.6900	11.8180
 0.6890	11.8138
 0.6880	11.8168
 0.6870	11.8139
 0.6860	11.8009
 0.6850	11.7990
 0.6840	11.7944
 0.6830	11.7856
 0.6820	11.7850
 0.6810	11.7780
 0.6800	11.7742
 0.6790	11.7714
 0.6780	11.7678
 0.6770	11.7616
 0.6760	11.7543
 0.6750	11.7514
 0.6740	11.7435
 0.6730	11.7357
 0.6720	11.7320
 0.6710	11.7229
 0.6700	11.7171
 0.6690	11.7122
 0.6680	11.7039
 0.6670	11.6979
 0.6660	11.6915
 0.6650	11.6766
 0.6640	11.6640
 0.6630	11.6628
 0.6620	11.6546
 0.6610	11.6446
 0.6600	11.6379
 0.6590	11.6330
 0.6580	11.6265
 0.6570	11.6182
 0.6560	11.6080
 0.6550	11.5994
 0.6540	11.5904
 0.6530	11.5827
 0.6520	11.5771
 0.6510	11.5714
 0.6500	11.5628
 0.6490	11.5554
 0.6480	11.5460
 0.6470	11.5397
 0.6460	11.5334
 0.6450	11.5252
 0.6440	11.5168
 0.6430	11.5074
 0.6420	11.5018
 0.6410	11.4978
 0.6400	11.4903
 0.6390	11.4847
 0.6380	11.4824
 0.6370	11.4720
 0.6360	11.4633
 0.6350	11.4595
 0.6340	11.4543
 0.6330	11.4506
 0.6320	11.4447
 0.6310	11.4371
 0.6300	11.4359
 0.6290	11.4308
 0.6280	11.4226
 0.6270	11.4202
 0.6260	11.4176
 0.6250	11.4153
 0.6240	11.4128
 0.6230	11.4057
 0.6220	11.4034
 0.6210	11.4005
 0.6200	11.3950
 0.6190	11.3912
 0.6180	11.3896
 0.6170	11.3899
 0.6160	11.3846
 0.6150	11.3829
 0.6140	11.3814
 0.6130	11.3786
 0.6120	11.3781
 0.6110	11.3740
 0.6100	11.3728
 0.6090	11.3713
 0.6080	11.3699
 0.6070	11.3659
 0.6060	11.3626
 0.6050	11.3612
 0.6040	11.3595
 0.6030	11.3597
 0.6020	11.3571
 0.6010	11.3538
 0.6000	11.3561
 0.5990	11.3556
 0.5980	11.3536
 0.5970	11.3536
 0.5960	11.3519
 0.5950	11.3523
 0.5940	11.3515
 0.5930	11.3479
 0.5920	11.3442
 0.5910	11.3430
 0.5900	11.3377
 0.5890	11.3312
 0.5880	11.3269
 0.5870	11.3221
 0.5860	11.3181
 0.5850	11.3171
 0.5840	11.3113
 0.5830	11.3052
 0.5820	11.2965
 0.5810	11.2909
 0.5800	11.2857
 0.5790	11.2800
 0.5780	11.2743
 0.5770	11.2677
 0.5760	11.2619
 0.5750	11.2527
 0.5740	11.2456
 0.5730	11.2393
 0.5720	11.2332
 0.5710	11.2230
 0.5700	11.2123
 0.5690	11.2039
 0.5680	11.1949
 0.5670	11.1883
 0.5660	11.1801
 0.5650	11.1714
 0.5640	11.1602
 0.5630	11.1501
 0.5620	11.1429
 0.5610	11.1240
 0.5600	11.1088
 0.5590	11.1004
 0.5580	11.0934
 0.5570	11.0775
 0.5560	11.0659
 0.5550	11.0570
 0.5540	11.0449
 0.5530	11.0346
 0.5520	11.0243
 0.5510	11.0113
 0.5500	11.0049
 0.5490	10.9912
 0.5480	10.9763
 0.5470	10.9672
 0.5460	10.9564
 0.5450	10.9392
 0.5440	10.9302
 0.5430	10.9203
 0.5420	10.9045
 0.5410	10.8935
 0.5400	10.8838
 0.5390	10.8716
 0.5380	10.8583
 0.5370	10.8518
 0.5360	10.8357
 0.5350	10.8240
 0.5340	10.8140
 0.5330	10.8002
 0.5320	10.7901
 0.5310	10.7797
 0.5300	10.7632
 0.5290	10.7557
 0.5280	10.7429
 0.5270	10.7283
 0.5260	10.7148
 0.5250	10.7075
 0.5240	10.6927
 0.5230	10.6847
 0.5220	10.6716
 0.5210	10.6564
 0.5200	10.6440
 0.5190	10.6299
 0.5180	10.6150
 0.5170	10.6007
 0.5160	10.5860
 0.5150	10.5707
 0.5140	10.5638
 0.5130	10.5421
 0.5120	10.5256
 0.5110	10.5105
 0.5100	10.4952
 0.5090	10.4825
 0.5080	10.4637
 0.5070	10.4428
 0.5060	10.4260
 0.5050	10.4074
 0.5040	10.3834
 0.5030	10.3670
 0.5020	10.3383
 0.5010	10.3153
 0.5000	10.2993
 0.4990	10.2757
 0.4980	10.2488
 0.4970	10.2272
 0.4960	10.2055
 0.4950	10.1739
 0.4940	10.1449
 0.4930	10.1196
 0.4920	10.0938
 0.4910	10.0631
 0.4900	10.0266
 0.4890	10.0034
 0.4880	 9.9673
 0.4870	 9.9379
 0.4860	 9.9085
 0.4850	 9.8682
 0.4840	 9.8369
 0.4830	 9.8055
 0.4820	 9.7687
 0.4810	 9.7490
 0.4800	 9.7187
 0.4790	 9.6878
 0.4780	 9.6608
 0.4770	 9.6367
 0.4760	 9.6002
 0.4750	 9.5696
 0.4740	 9.5365
 0.4730	 9.5033
 0.4720	 9.4703
 0.4710	 9.4413
 0.4700	 9.4103
 0.4690	 9.3729
 0.4680	 9.3431
 0.4670	 9.3076
 0.4660	 9.2762
 0.4650	 9.2448
 0.4640	 9.2087
 0.4630	 9.1722
 0.4620	 9.1416
 0.4610	 9.1122
 0.4600	 9.0789
 0.4590	 9.0466
 0.4580	 9.0160
 0.4570	 8.9831
 0.4560	 8.9497
 0.4550	 8.9289
 0.4540	 8.9016
 0.4530	 8.8736
 0.4520	 8.8424
 0.4510	 8.8109
 0.4500	 8.7839
 0.4490	 8.7555
 0.4480	 8.7254
 0.4470	 8.6981
 0.4460	 8.6634
 0.4450	 8.6357
 0.4440	 8.6095
 0.4430	 8.5795
 0.4420	 8.5532
 0.4410	 8.5284
 0.4400	 8.5028
 0.4390	 8.4725
 0.4380	 8.4454
 0.4370	 8.4154
 0.4360	 8.3861
 0.4350	 8.3517
 0.4340	 8.3268
 0.4330	 8.2949
 0.4320	 8.2568
 0.4310	 8.2264
 0.4300	 8.1993
 0.4290	 8.1622
 0.4280	 8.1293
 0.4270	 8.0948
 0.4260	 8.0582
 0.4250	 8.0233
 0.4240	 7.9924
 0.4230	 7.9570
 0.4220	 7.9266
 0.4210	 7.8962
 0.4200	 7.8651
 0.4190	 7.8349
 0.4180	 7.8058
 0.4170	 7.7740
 0.4160	 7.7468
 0.4150	 7.7164
 0.4140	 7.6852
 0.4130	 7.6522
 0.4120	 7.6240
 0.4110	 7.5911
 0.4100	 7.5583
 0.4090	 7.5253
 0.4080	 7.4864
 0.4070	 7.4450
 0.4060	 7.4030
 0.4050	 7.3599
 0.4040	 7.3111
 0.4030	 7.2642
 0.4020	 7.2151
 0.4010	 7.1625
 0.4000	 7.1131
