Name: Calcite CaCO_3
Type: Mineral
Class: Carbonate
Subclass: None
Particle Size: Fine
Sample No.: C-3A
Owner: JPL
Wavelength Range: VSWIR
Origin: Italy
Collection Date: N/A
Description: Travertine. Particle size was 0-45um.Collected by Ward's Original ASTER Spectral Library name was jpl.beckman.mineral.carbonate.none.fine.c03a.spectrum.txt
Measurement: Hemispherical reflectance
First Column: X
Second Column: Y
X Units: Wavelength (micrometers)
Y Units:Reflectance (percent)
First X Value:  0.4000
Last X Value:  2.5000
Number of X Values: 826
Additional Information: mineral.carbonate.none.fine.vswir.c-3a.jpl.beckman.ancillary.txt

 0.4000	67.9500
 0.4010	68.1800
 0.4020	68.5800
 0.4030	68.5800
 0.4040	68.6400
 0.4050	68.6400
 0.4060	68.9200
 0.4070	69.2600
 0.4080	69.2600
 0.4090	69.2600
 0.4100	69.2100
 0.4110	69.4400
 0.4120	69.7200
 0.4130	69.8400
 0.4140	69.9000
 0.4150	69.7800
 0.4160	70.0100
 0.4170	70.2900
 0.4180	70.4600
 0.4190	70.4100
 0.4200	70.1800
 0.4210	70.3500
 0.4220	70.7500
 0.4230	70.9800
 0.4240	70.8700
 0.4250	70.9200
 0.4260	71.1000
 0.4270	71.3300
 0.4280	71.5600
 0.4290	71.5600
 0.4300	71.3800
 0.4310	71.5000
 0.4320	71.5600
 0.4330	71.8400
 0.4340	72.0700
 0.4350	71.9500
 0.4360	72.0700
 0.4370	72.2400
 0.4380	72.4100
 0.4390	72.5800
 0.4400	72.5300
 0.4410	72.5300
 0.4420	72.4100
 0.4430	72.7000
 0.4440	73.0900
 0.4450	73.0400
 0.4460	72.9300
 0.4470	72.7600
 0.4480	72.9300
 0.4490	73.2700
 0.4500	73.3200
 0.4510	73.2700
 0.4520	72.9900
 0.4530	73.2800
 0.4540	73.5600
 0.4550	73.7900
 0.4560	73.9700
 0.4570	73.7400
 0.4580	73.7900
 0.4590	73.9700
 0.4600	74.1400
 0.4610	73.9100
 0.4620	74.1400
 0.4630	74.2600
 0.4640	74.3200
 0.4650	74.6100
 0.4660	74.5500
 0.4670	74.4400
 0.4680	74.5000
 0.4690	74.6100
 0.4700	74.9000
 0.4710	74.9600
 0.4720	74.8400
 0.4730	74.6800
 0.4740	74.8500
 0.4750	75.1400
 0.4760	75.2000
 0.4770	75.2500
 0.4780	74.9800
 0.4790	75.1500
 0.4800	75.4800
 0.4810	75.4800
 0.4820	75.4300
 0.4830	75.3200
 0.4840	75.3200
 0.4850	75.4400
 0.4860	75.7200
 0.4870	75.9600
 0.4880	75.7300
 0.4890	75.6800
 0.4900	75.8500
 0.4910	76.1400
 0.4920	76.3000
 0.4930	76.3100
 0.4940	76.1400
 0.4950	76.1400
 0.4960	76.3100
 0.4970	76.6000
 0.4980	76.6100
 0.4990	76.4900
 0.5000	76.3800
 0.5010	76.6100
 0.5020	76.7200
 0.5030	77.0100
 0.5040	77.0100
 0.5050	76.6700
 0.5060	76.8400
 0.5070	77.1200
 0.5080	77.2900
 0.5090	77.1700
 0.5100	77.0600
 0.5110	77.1700
 0.5120	77.4100
 0.5130	77.5200
 0.5140	77.6900
 0.5150	77.5800
 0.5160	77.5200
 0.5170	77.6900
 0.5180	77.8700
 0.5190	78.0400
 0.5200	78.0400
 0.5210	77.8700
 0.5220	77.9200
 0.5230	78.0400
 0.5240	78.2100
 0.5250	78.3800
 0.5260	78.2100
 0.5270	77.9800
 0.5280	78.2100
 0.5290	78.4400
 0.5300	78.5600
 0.5310	78.3800
 0.5320	78.1500
 0.5330	78.3800
 0.5340	78.6700
 0.5350	78.6700
 0.5360	78.6100
 0.5370	78.3300
 0.5380	78.3800
 0.5390	78.7200
 0.5400	79.0100
 0.5410	78.8900
 0.5420	78.6100
 0.5430	78.6700
 0.5440	78.8400
 0.5450	78.9500
 0.5460	79.1800
 0.5470	79.1800
 0.5480	79.1200
 0.5490	79.1200
 0.5500	79.2400
 0.5510	79.5300
 0.5520	79.5300
 0.5530	79.5300
 0.5540	79.3500
 0.5550	79.5300
 0.5560	79.8100
 0.5570	79.8700
 0.5580	79.7600
 0.5590	79.4700
 0.5600	79.7000
 0.5610	79.8100
 0.5620	79.9900
 0.5630	80.1000
 0.5640	80.3300
 0.5650	80.1000
 0.5660	79.9900
 0.5670	79.9900
 0.5680	80.2200
 0.5690	80.4400
 0.5700	80.2200
 0.5710	79.9900
 0.5720	80.1000
 0.5730	80.1000
 0.5740	80.3300
 0.5750	80.2200
 0.5760	80.0400
 0.5770	80.1600
 0.5780	80.3800
 0.5790	80.6100
 0.5800	80.5000
 0.5810	80.2200
 0.5820	80.1000
 0.5830	80.3800
 0.5840	80.6100
 0.5850	80.5500
 0.5860	80.3300
 0.5870	80.3800
 0.5880	80.6700
 0.5890	80.8400
 0.5900	80.7300
 0.5910	80.6100
 0.5920	80.5000
 0.5930	80.7800
 0.5940	81.1300
 0.5950	81.0700
 0.5960	81.0100
 0.5970	80.7800
 0.5980	80.9000
 0.5990	81.1900
 0.6000	81.1300
 0.6010	81.1900
 0.6020	80.9600
 0.6030	80.9600
 0.6040	81.3600
 0.6050	81.3000
 0.6060	81.3600
 0.6070	81.1900
 0.6080	81.1300
 0.6090	81.2400
 0.6100	81.3600
 0.6110	81.3600
 0.6120	81.2400
 0.6130	81.2400
 0.6140	81.3600
 0.6150	81.4200
 0.6160	81.5300
 0.6170	81.4200
 0.6180	81.3000
 0.6190	81.3600
 0.6200	81.4200
 0.6210	81.5300
 0.6220	81.3600
 0.6230	81.4200
 0.6240	81.4200
 0.6250	81.6500
 0.6260	81.9400
 0.6270	81.7100
 0.6280	81.5300
 0.6290	81.6500
 0.6300	81.6500
 0.6310	81.8800
 0.6320	81.7600
 0.6330	81.4800
 0.6340	81.5900
 0.6350	81.7600
 0.6360	82.0400
 0.6370	81.8800
 0.6380	81.5300
 0.6390	81.5900
 0.6400	81.8200
 0.6410	82.1600
 0.6420	81.9400
 0.6430	81.8200
 0.6440	81.8200
 0.6450	81.9900
 0.6460	82.1600
 0.6470	81.9400
 0.6480	81.9900
 0.6490	81.8200
 0.6500	81.9900
 0.6510	82.1600
 0.6520	82.2700
 0.6530	82.2100
 0.6540	82.1000
 0.6550	82.1000
 0.6560	82.2700
 0.6570	82.2700
 0.6580	82.3300
 0.6590	82.1600
 0.6600	82.1000
 0.6610	82.2100
 0.6620	82.3900
 0.6630	82.5000
 0.6640	82.3300
 0.6650	82.2100
 0.6660	82.3900
 0.6670	82.5000
 0.6680	82.6200
 0.6690	82.5600
 0.6700	82.3900
 0.6710	82.4400
 0.6720	82.7300
 0.6730	82.9100
 0.6740	82.7300
 0.6750	82.5000
 0.6760	82.5000
 0.6770	82.5600
 0.6780	82.8500
 0.6790	82.7900
 0.6800	82.5000
 0.6810	82.6200
 0.6820	82.6700
 0.6830	83.0200
 0.6840	82.9100
 0.6850	82.6200
 0.6860	82.7300
 0.6870	82.9600
 0.6880	83.1400
 0.6890	82.9600
 0.6900	82.6700
 0.6910	82.8500
 0.6920	82.9100
 0.6930	83.1400
 0.6940	83.0200
 0.6950	82.8500
 0.6960	82.7900
 0.6970	83.0800
 0.6980	83.2500
 0.6990	83.1400
 0.7000	83.0200
 0.7010	82.9100
 0.7020	83.0800
 0.7030	82.9100
 0.7040	82.7900
 0.7050	82.8500
 0.7060	83.0800
 0.7070	83.2500
 0.7080	83.0800
 0.7090	83.0200
 0.7100	83.0800
 0.7110	83.1900
 0.7120	83.3700
 0.7130	83.3100
 0.7140	83.1900
 0.7150	82.9600
 0.7160	83.1400
 0.7170	83.5400
 0.7180	83.4800
 0.7190	83.3700
 0.7200	83.2500
 0.7210	83.3700
 0.7220	83.5400
 0.7230	83.6000
 0.7240	83.4200
 0.7250	83.3100
 0.7260	83.3100
 0.7270	83.7000
 0.7280	83.8200
 0.7290	83.7000
 0.7300	83.3100
 0.7310	83.4200
 0.7320	83.7600
 0.7330	83.7600
 0.7340	83.7000
 0.7350	83.3700
 0.7360	83.3700
 0.7370	83.7000
 0.7380	83.7600
 0.7390	83.7600
 0.7400	83.4800
 0.7410	83.4200
 0.7420	83.8700
 0.7430	83.9300
 0.7440	83.7600
 0.7450	83.6000
 0.7460	83.4200
 0.7470	83.7000
 0.7480	83.9300
 0.7490	83.7600
 0.7500	83.6500
 0.7510	83.6500
 0.7520	83.9300
 0.7530	83.9900
 0.7540	83.8200
 0.7550	83.7000
 0.7560	83.7000
 0.7570	83.9300
 0.7580	84.1600
 0.7590	84.0500
 0.7600	83.8700
 0.7610	83.8200
 0.7620	83.8700
 0.7630	84.1000
 0.7640	84.2200
 0.7650	84.1000
 0.7660	83.8200
 0.7670	83.9300
 0.7680	83.9300
 0.7690	84.1600
 0.7700	84.0500
 0.7710	83.9900
 0.7720	83.8700
 0.7730	83.9300
 0.7740	84.2200
 0.7750	84.1600
 0.7760	84.1000
 0.7770	83.9300
 0.7780	83.8700
 0.7790	84.2800
 0.7800	84.3400
 0.7810	84.2200
 0.7820	83.8700
 0.7830	83.9900
 0.7840	84.2800
 0.7850	84.3400
 0.7860	84.1600
 0.7870	84.0500
 0.7880	83.9900
 0.7890	84.1600
 0.7900	84.3900
 0.7910	84.3900
 0.7920	84.2800
 0.7930	84.2200
 0.7940	84.3400
 0.7950	84.5100
 0.7960	84.6800
 0.7970	84.5100
 0.7980	84.3900
 0.7990	84.2800
 0.8000	84.3200
 0.8040	84.5100
 0.8080	84.4500
 0.8120	84.5100
 0.8160	84.4500
 0.8200	84.5100
 0.8240	84.3900
 0.8280	84.4500
 0.8320	84.6800
 0.8360	84.3900
 0.8400	84.4500
 0.8440	84.6200
 0.8480	84.7400
 0.8520	84.5700
 0.8560	84.7400
 0.8600	84.7400
 0.8640	84.5100
 0.8680	84.5700
 0.8720	84.4500
 0.8760	84.7400
 0.8800	84.5700
 0.8840	84.5100
 0.8880	84.7400
 0.8920	84.5100
 0.8960	84.5100
 0.9000	84.5700
 0.9040	84.6200
 0.9080	84.5100
 0.9120	84.6200
 0.9160	84.6200
 0.9200	84.6200
 0.9240	84.6800
 0.9280	84.5700
 0.9320	84.6200
 0.9360	84.5700
 0.9400	84.6200
 0.9440	84.6800
 0.9480	84.6200
 0.9520	84.6200
 0.9560	84.5700
 0.9600	84.8000
 0.9640	84.6200
 0.9680	84.6200
 0.9720	84.7400
 0.9760	84.5700
 0.9800	84.5700
 0.9840	84.5700
 0.9880	84.7400
 0.9920	84.5100
 0.9960	84.5700
 1.0000	84.6800
 1.0040	84.5700
 1.0080	84.6200
 1.0120	84.7400
 1.0160	84.6800
 1.0200	84.6800
 1.0240	84.6200
 1.0280	84.6800
 1.0320	84.5100
 1.0360	84.6800
 1.0400	84.6800
 1.0440	84.7400
 1.0480	84.7400
 1.0520	84.6800
 1.0560	84.6800
 1.0600	84.5100
 1.0640	84.8000
 1.0680	84.6800
 1.0720	84.6800
 1.0760	84.6800
 1.0800	84.5700
 1.0840	84.6800
 1.0880	84.7400
 1.0920	84.6800
 1.0960	84.6800
 1.1000	84.5700
 1.1040	84.5700
 1.1080	84.6200
 1.1120	84.7400
 1.1160	84.6200
 1.1200	84.6800
 1.1240	84.7400
 1.1280	84.8000
 1.1320	84.8000
 1.1360	84.7400
 1.1400	84.6800
 1.1440	84.5700
 1.1480	84.8500
 1.1520	84.6800
 1.1560	84.7300
 1.1600	84.6600
 1.1640	84.5900
 1.1680	84.6400
 1.1720	84.5400
 1.1760	84.6400
 1.1800	84.7500
 1.1840	84.6800
 1.1880	84.6700
 1.1920	84.6100
 1.1960	84.5400
 1.2000	84.7100
 1.2040	84.7600
 1.2080	84.8200
 1.2120	84.5900
 1.2160	84.7600
 1.2200	84.6500
 1.2240	84.5300
 1.2280	84.4800
 1.2320	84.7600
 1.2360	84.5900
 1.2400	84.5900
 1.2440	84.5900
 1.2480	84.5900
 1.2520	84.5900
 1.2560	84.5900
 1.2600	84.6400
 1.2640	84.6900
 1.2680	84.6200
 1.2720	84.6200
 1.2760	84.6100
 1.2800	84.6600
 1.2840	84.5300
 1.2880	84.8100
 1.2920	84.6900
 1.2960	84.7500
 1.3000	84.6800
 1.3040	84.6200
 1.3080	84.5500
 1.3120	84.6600
 1.3160	84.6500
 1.3200	84.5300
 1.3240	84.5800
 1.3280	84.5800
 1.3320	84.6300
 1.3360	84.6200
 1.3400	84.4400
 1.3440	84.5500
 1.3480	84.4800
 1.3520	84.5900
 1.3560	84.4800
 1.3600	84.5400
 1.3640	84.5900
 1.3680	84.4800
 1.3720	84.4800
 1.3760	84.5900
 1.3800	84.5900
 1.3840	84.4800
 1.3880	84.5900
 1.3920	84.4200
 1.3960	84.3600
 1.4000	84.3600
 1.4040	84.4900
 1.4080	84.3300
 1.4120	84.2700
 1.4160	84.3400
 1.4200	84.1700
 1.4240	84.1800
 1.4280	84.0800
 1.4320	84.1400
 1.4360	84.0900
 1.4400	84.0900
 1.4440	84.2700
 1.4480	84.1700
 1.4520	84.1700
 1.4560	84.0500
 1.4600	84.3400
 1.4640	84.2800
 1.4680	84.1700
 1.4720	84.2200
 1.4760	84.3400
 1.4800	84.2200
 1.4840	84.1700
 1.4880	84.4000
 1.4920	84.4500
 1.4960	84.4000
 1.5000	84.4000
 1.5040	84.4000
 1.5080	84.3400
 1.5120	84.5700
 1.5160	84.5100
 1.5200	84.6800
 1.5240	84.6300
 1.5280	84.5700
 1.5320	84.6800
 1.5360	84.6800
 1.5400	84.5700
 1.5440	84.5700
 1.5480	84.6300
 1.5520	84.5700
 1.5560	84.6300
 1.5600	84.5700
 1.5640	84.6300
 1.5680	84.5700
 1.5720	84.5700
 1.5760	84.6300
 1.5800	84.6300
 1.5840	84.6300
 1.5880	84.6300
 1.5920	84.6300
 1.5960	84.6800
 1.6000	84.6800
 1.6040	84.6700
 1.6080	84.6100
 1.6120	84.6600
 1.6160	84.6000
 1.6200	84.5900
 1.6240	84.5300
 1.6280	84.6300
 1.6320	84.6900
 1.6360	84.5700
 1.6400	84.6700
 1.6440	84.5500
 1.6480	84.5900
 1.6520	84.5400
 1.6560	84.5300
 1.6600	84.5700
 1.6640	84.4600
 1.6680	84.5600
 1.6720	84.5600
 1.6760	84.5500
 1.6800	84.4900
 1.6840	84.4800
 1.6880	84.4700
 1.6920	84.4100
 1.6960	84.4700
 1.7000	84.4600
 1.7040	84.6300
 1.7080	84.4000
 1.7120	84.3400
 1.7160	84.4600
 1.7200	84.4600
 1.7240	84.3400
 1.7280	84.3400
 1.7320	84.2800
 1.7360	84.1700
 1.7400	84.2800
 1.7440	84.3400
 1.7480	84.2300
 1.7520	84.1700
 1.7560	84.2300
 1.7600	84.1100
 1.7640	84.2800
 1.7680	84.2800
 1.7720	84.4000
 1.7760	84.2300
 1.7800	84.4000
 1.7840	84.4600
 1.7880	84.3400
 1.7920	84.3400
 1.7960	84.2300
 1.8000	84.4000
 1.8040	84.3700
 1.8080	84.2300
 1.8120	84.2500
 1.8160	84.2300
 1.8200	84.0900
 1.8240	84.1200
 1.8280	84.0400
 1.8320	83.8300
 1.8360	83.9800
 1.8400	83.8400
 1.8440	83.8700
 1.8480	83.6800
 1.8520	83.5400
 1.8560	83.5900
 1.8600	83.4100
 1.8640	83.2300
 1.8680	82.9400
 1.8720	82.9400
 1.8760	82.7600
 1.8800	82.7500
 1.8840	82.7500
 1.8880	82.7400
 1.8920	82.5700
 1.8960	82.4400
 1.9000	82.3300
 1.9040	82.3800
 1.9080	82.1400
 1.9120	82.0200
 1.9160	81.9000
 1.9200	81.7200
 1.9240	81.5500
 1.9280	81.4800
 1.9320	81.6000
 1.9360	81.4700
 1.9400	81.4600
 1.9440	81.5100
 1.9480	81.4500
 1.9520	81.3300
 1.9560	81.3500
 1.9600	81.2900
 1.9640	81.5000
 1.9680	81.5200
 1.9720	81.5600
 1.9760	81.6600
 1.9800	81.4100
 1.9840	81.5600
 1.9880	81.7100
 1.9920	81.6900
 1.9960	81.8400
 2.0000	81.9900
 2.0040	82.2100
 2.0080	82.0200
 2.0120	82.3200
 2.0160	82.5600
 2.0200	82.5200
 2.0240	82.9200
 2.0280	82.9000
 2.0320	82.9600
 2.0360	82.9900
 2.0400	83.0600
 2.0440	82.9900
 2.0480	83.2100
 2.0520	83.1500
 2.0560	83.2300
 2.0600	83.3700
 2.0640	83.2200
 2.0680	83.2400
 2.0720	83.4300
 2.0760	83.2800
 2.0800	83.3000
 2.0840	83.3900
 2.0880	83.4600
 2.0920	83.4200
 2.0960	83.4500
 2.1000	83.6400
 2.1040	83.4900
 2.1080	83.5100
 2.1120	83.5300
 2.1160	83.5000
 2.1200	83.5800
 2.1240	83.4500
 2.1280	83.4900
 2.1320	83.2900
 2.1360	83.1800
 2.1400	83.2300
 2.1440	83.1600
 2.1480	83.0800
 2.1520	82.9700
 2.1560	82.9200
 2.1600	82.8800
 2.1640	82.8200
 2.1680	82.9700
 2.1720	82.8500
 2.1760	83.0100
 2.1800	83.0100
 2.1840	83.1200
 2.1880	82.9200
 2.1920	82.9300
 2.1960	82.8800
 2.2000	82.8400
 2.2040	82.7800
 2.2080	82.5000
 2.2120	82.5100
 2.2160	82.3800
 2.2200	82.2500
 2.2240	82.1900
 2.2280	81.8500
 2.2320	81.7800
 2.2360	81.5200
 2.2400	81.4900
 2.2440	81.0900
 2.2480	80.8100
 2.2520	80.5200
 2.2560	80.1400
 2.2600	79.9400
 2.2640	79.5400
 2.2680	79.1000
 2.2720	78.6900
 2.2760	78.3100
 2.2800	77.8300
 2.2840	77.4100
 2.2880	76.9900
 2.2920	76.5400
 2.2960	76.2600
 2.3000	75.7000
 2.3040	75.3900
 2.3080	75.2400
 2.3120	74.8200
 2.3160	74.5700
 2.3200	73.9700
 2.3240	73.6300
 2.3280	73.4600
 2.3320	73.0600
 2.3360	73.1200
 2.3400	73.2800
 2.3440	73.7500
 2.3480	74.0500
 2.3520	74.9100
 2.3560	75.7700
 2.3600	76.7900
 2.3640	77.4800
 2.3680	78.3400
 2.3720	78.9900
 2.3760	79.6000
 2.3800	80.0900
 2.3840	80.4000
 2.3880	80.5800
 2.3920	80.4600
 2.3960	80.7300
 2.4000	80.6300
 2.4040	80.5600
 2.4080	80.5500
 2.4120	80.3300
 2.4160	80.1000
 2.4200	79.8700
 2.4240	79.7500
 2.4280	79.3500
 2.4320	78.9700
 2.4360	78.5700
 2.4400	78.1200
 2.4440	77.6700
 2.4480	77.0500
 2.4520	76.5000
 2.4560	75.8200
 2.4600	75.2100
 2.4640	74.4300
 2.4680	73.7000
 2.4720	73.1500
 2.4760	72.3100
 2.4800	71.6900
 2.4840	71.0800
 2.4880	70.5200
 2.4920	69.8000
 2.4960	69.1800
 2.5000	68.7400
