Name: Wollastonite CaSiO_3
Type: Mineral
Class: Silicate
Subclass: Inosilicate
Particle Size: Coarse
Sample No.: IN-2A
Owner: JPL
Wavelength Range: VSWIR
Origin: USA, California, Inyo County, Panamint Mountains.
Collection Date: N/A
Description: Particle size was 125-500um.Collected by:  Burminco Original ASTER Spectral Library name was jpl.perkin.mineral.silicate.inosilicate.coarse.in02a.spectrum.txt
Measurement: Hemispherical reflectance
First Column: X
Second Column: Y
X Units: Wavelength (micrometers)
Y Units:Reflectance (percent)
First X Value:  2.5000
Last X Value:  0.4000
Number of X Values: 2101
Additional Information: mineral.silicate.inosilicate.coarse.vswir.in-2a.jpl.perkin.ancillary.txt

 2.5000	61.2938
 2.4990	61.5245
 2.4980	61.4444
 2.4970	61.5815
 2.4960	61.4086
 2.4950	61.7638
 2.4940	61.4896
 2.4930	61.6799
 2.4920	61.6383
 2.4910	61.7706
 2.4900	61.6751
 2.4890	61.9854
 2.4880	61.8041
 2.4870	61.9493
 2.4860	61.8007
 2.4850	61.9787
 2.4840	61.9721
 2.4830	61.9883
 2.4820	61.9509
 2.4810	61.9356
 2.4800	61.8278
 2.4790	62.0258
 2.4780	61.9559
 2.4770	62.1730
 2.4760	61.9357
 2.4750	62.0027
 2.4740	62.1146
 2.4730	62.0576
 2.4720	62.1094
 2.4710	62.2747
 2.4700	62.2288
 2.4690	62.3650
 2.4680	62.3334
 2.4670	62.4410
 2.4660	62.5595
 2.4650	62.5270
 2.4640	62.5942
 2.4630	62.7529
 2.4620	62.7796
 2.4610	62.9779
 2.4600	62.8155
 2.4590	62.9451
 2.4580	62.9465
 2.4570	62.9914
 2.4560	63.1847
 2.4550	63.1664
 2.4540	63.3153
 2.4530	63.4431
 2.4520	63.3100
 2.4510	63.3680
 2.4500	63.5161
 2.4490	63.4857
 2.4480	63.6122
 2.4470	63.7306
 2.4460	63.7287
 2.4450	63.8269
 2.4440	63.7489
 2.4430	63.7869
 2.4420	63.8609
 2.4410	63.9098
 2.4400	63.9410
 2.4390	64.0291
 2.4380	63.9718
 2.4370	64.0442
 2.4360	63.9919
 2.4350	64.0207
 2.4340	64.0279
 2.4330	63.9979
 2.4320	64.0571
 2.4310	64.0393
 2.4300	63.9756
 2.4290	63.9910
 2.4280	63.9756
 2.4270	64.0496
 2.4260	63.9899
 2.4250	63.9728
 2.4240	63.9127
 2.4230	63.8963
 2.4220	63.8996
 2.4210	63.8870
 2.4200	63.8495
 2.4190	63.8468
 2.4180	63.7454
 2.4170	63.6767
 2.4160	63.5802
 2.4150	63.6397
 2.4140	63.6208
 2.4130	63.5856
 2.4120	63.5101
 2.4110	63.4821
 2.4100	63.4737
 2.4090	63.5053
 2.4080	63.4659
 2.4070	63.3747
 2.4060	63.3422
 2.4050	63.3184
 2.4040	63.2981
 2.4030	63.2796
 2.4020	63.2190
 2.4010	63.0906
 2.4000	63.0424
 2.3990	63.0336
 2.3980	62.9568
 2.3970	62.9742
 2.3960	62.8863
 2.3950	62.8787
 2.3940	62.8412
 2.3930	62.8460
 2.3920	62.8874
 2.3910	62.8518
 2.3900	62.7769
 2.3890	62.8043
 2.3880	62.7584
 2.3870	62.7127
 2.3860	62.6686
 2.3850	62.6841
 2.3840	62.6584
 2.3830	62.6726
 2.3820	62.6821
 2.3810	62.6690
 2.3800	62.6681
 2.3790	62.6807
 2.3780	62.6393
 2.3770	62.6620
 2.3760	62.6709
 2.3750	62.6818
 2.3740	62.6474
 2.3730	62.6594
 2.3720	62.6235
 2.3710	62.5650
 2.3700	62.5673
 2.3690	62.5340
 2.3680	62.4475
 2.3670	62.4277
 2.3660	62.3291
 2.3650	62.2240
 2.3640	62.1872
 2.3630	62.1684
 2.3620	62.1094
 2.3610	62.0418
 2.3600	62.0317
 2.3590	61.9911
 2.3580	61.9519
 2.3570	61.9458
 2.3560	61.8956
 2.3550	61.8565
 2.3540	61.8320
 2.3530	61.9094
 2.3520	61.9462
 2.3510	61.9979
 2.3500	62.0207
 2.3490	62.0422
 2.3480	62.0975
 2.3470	62.0913
 2.3460	62.1330
 2.3450	62.2042
 2.3440	62.2587
 2.3430	62.3237
 2.3420	62.4167
 2.3410	62.4222
 2.3400	62.4643
 2.3390	62.5362
 2.3380	62.5844
 2.3370	62.6620
 2.3360	62.7074
 2.3350	62.8059
 2.3340	62.9048
 2.3330	62.9774
 2.3320	63.0880
 2.3310	63.1762
 2.3300	63.3111
 2.3290	63.4666
 2.3280	63.6211
 2.3270	63.7928
 2.3260	63.9559
 2.3250	64.1190
 2.3240	64.3043
 2.3230	64.4762
 2.3220	64.7524
 2.3210	64.9347
 2.3200	65.1462
 2.3190	65.3011
 2.3180	65.4862
 2.3170	65.7082
 2.3160	65.9024
 2.3150	66.0918
 2.3140	66.2770
 2.3130	66.3839
 2.3120	66.5281
 2.3110	66.6334
 2.3100	66.7572
 2.3090	66.7908
 2.3080	66.8826
 2.3070	66.8962
 2.3060	66.9390
 2.3050	66.9211
 2.3040	66.9477
 2.3030	66.9487
 2.3020	66.8886
 2.3010	66.8661
 2.3000	66.8633
 2.2990	66.8071
 2.2980	66.7723
 2.2970	66.7487
 2.2960	66.7256
 2.2950	66.6780
 2.2940	66.6415
 2.2930	66.5441
 2.2920	66.5101
 2.2910	66.4763
 2.2900	66.4549
 2.2890	66.4901
 2.2880	66.4828
 2.2870	66.4367
 2.2860	66.4514
 2.2850	66.3819
 2.2840	66.4412
 2.2830	66.5079
 2.2820	66.5179
 2.2810	66.4642
 2.2800	66.5623
 2.2790	66.5195
 2.2780	66.5865
 2.2770	66.6015
 2.2760	66.6897
 2.2750	66.8086
 2.2740	66.8468
 2.2730	66.8970
 2.2720	66.9623
 2.2710	66.9727
 2.2700	67.0417
 2.2690	67.1187
 2.2680	67.1323
 2.2670	67.1369
 2.2660	67.1710
 2.2650	67.2237
 2.2640	67.2603
 2.2630	67.3026
 2.2620	67.3639
 2.2610	67.3512
 2.2600	67.3644
 2.2590	67.3650
 2.2580	67.4139
 2.2570	67.3333
 2.2560	67.3867
 2.2550	67.3564
 2.2540	67.2881
 2.2530	67.2715
 2.2520	67.3559
 2.2510	67.3149
 2.2500	67.2189
 2.2490	67.1789
 2.2480	67.1990
 2.2470	67.0462
 2.2460	67.1002
 2.2450	66.9635
 2.2440	67.0311
 2.2430	66.8948
 2.2420	66.8653
 2.2410	66.8406
 2.2400	66.7580
 2.2390	66.7169
 2.2380	66.6962
 2.2370	66.6143
 2.2360	66.6713
 2.2350	66.6538
 2.2340	66.6176
 2.2330	66.5473
 2.2320	66.6424
 2.2310	66.6633
 2.2300	66.6676
 2.2290	66.6504
 2.2280	66.7565
 2.2270	66.8148
 2.2260	66.8892
 2.2250	66.9629
 2.2240	67.0403
 2.2230	67.1262
 2.2220	67.1859
 2.2210	67.2470
 2.2200	67.3984
 2.2190	67.3827
 2.2180	67.4677
 2.2170	67.5527
 2.2160	67.7218
 2.2150	67.7469
 2.2140	67.8828
 2.2130	67.8773
 2.2120	68.0461
 2.2110	68.0150
 2.2100	68.1630
 2.2090	68.2054
 2.2080	68.3306
 2.2070	68.4012
 2.2060	68.4958
 2.2050	68.5724
 2.2040	68.6543
 2.2030	68.7522
 2.2020	68.8431
 2.2010	68.7877
 2.2000	68.9329
 2.1990	68.9351
 2.1980	68.9111
 2.1970	68.9650
 2.1960	69.0730
 2.1950	69.0395
 2.1940	69.0661
 2.1930	69.1172
 2.1920	69.1627
 2.1910	69.0315
 2.1900	69.0815
 2.1890	69.2165
 2.1880	69.1926
 2.1870	69.1880
 2.1860	69.2937
 2.1850	69.2382
 2.1840	69.3335
 2.1830	69.3198
 2.1820	69.3133
 2.1810	69.3231
 2.1800	69.3699
 2.1790	69.3748
 2.1780	69.4832
 2.1770	69.3973
 2.1760	69.4751
 2.1750	69.4913
 2.1740	69.4945
 2.1730	69.5572
 2.1720	69.5691
 2.1710	69.5388
 2.1700	69.5665
 2.1690	69.6010
 2.1680	69.6596
 2.1670	69.6544
 2.1660	69.6292
 2.1650	69.6934
 2.1640	69.7721
 2.1630	69.7361
 2.1620	69.7863
 2.1610	69.8710
 2.1600	69.9253
 2.1590	69.9118
 2.1580	69.8828
 2.1570	69.9069
 2.1560	69.9299
 2.1550	69.9608
 2.1540	69.9874
 2.1530	70.0090
 2.1520	70.0073
 2.1510	69.9725
 2.1500	70.0037
 2.1490	70.0344
 2.1480	70.0542
 2.1470	70.0560
 2.1460	70.0450
 2.1450	70.0446
 2.1440	69.9958
 2.1430	70.0263
 2.1420	70.0746
 2.1410	70.0496
 2.1400	70.0665
 2.1390	70.0104
 2.1380	70.0172
 2.1370	70.0256
 2.1360	70.0107
 2.1350	69.9613
 2.1340	69.9169
 2.1330	69.9040
 2.1320	69.9048
 2.1310	69.8879
 2.1300	69.9190
 2.1290	69.8665
 2.1280	69.8740
 2.1270	69.8110
 2.1260	69.8373
 2.1250	69.7897
 2.1240	69.7623
 2.1230	69.6654
 2.1220	69.6822
 2.1210	69.6961
 2.1200	69.6470
 2.1190	69.5271
 2.1180	69.4856
 2.1170	69.4339
 2.1160	69.4355
 2.1150	69.3583
 2.1140	69.3523
 2.1130	69.3069
 2.1120	69.2866
 2.1110	69.2203
 2.1100	69.1888
 2.1090	69.1478
 2.1080	69.1676
 2.1070	69.1142
 2.1060	69.0374
 2.1050	68.9880
 2.1040	69.0110
 2.1030	68.9295
 2.1020	68.8758
 2.1010	68.8654
 2.1000	68.8621
 2.0990	68.8462
 2.0980	68.8286
 2.0970	68.8697
 2.0960	68.9438
 2.0950	68.9332
 2.0940	68.9385
 2.0930	68.9249
 2.0920	68.9172
 2.0910	68.9025
 2.0900	68.9218
 2.0890	68.9738
 2.0880	68.9636
 2.0870	69.0118
 2.0860	69.0124
 2.0850	68.9461
 2.0840	68.9677
 2.0830	68.9774
 2.0820	69.0220
 2.0810	69.0560
 2.0800	69.0001
 2.0790	68.9780
 2.0780	69.0503
 2.0770	69.0590
 2.0760	69.0396
 2.0750	69.0653
 2.0740	69.0820
 2.0730	69.0623
 2.0720	69.0455
 2.0710	69.0694
 2.0700	69.0772
 2.0690	69.0325
 2.0680	69.0564
 2.0670	69.0732
 2.0660	69.0796
 2.0650	69.0582
 2.0640	69.0657
 2.0630	69.1249
 2.0620	69.0797
 2.0610	69.0999
 2.0600	69.0982
 2.0590	69.0478
 2.0580	69.0665
 2.0570	69.1010
 2.0560	69.1066
 2.0550	69.1315
 2.0540	69.0989
 2.0530	69.0830
 2.0520	69.1283
 2.0510	69.1472
 2.0500	69.1584
 2.0490	69.1023
 2.0480	69.0620
 2.0470	69.1227
 2.0460	69.1266
 2.0450	69.1653
 2.0440	69.1394
 2.0430	69.1403
 2.0420	69.1246
 2.0410	69.1313
 2.0400	69.1259
 2.0390	69.0617
 2.0380	69.0607
 2.0370	69.0604
 2.0360	69.0301
 2.0350	69.0704
 2.0340	69.0384
 2.0330	69.0627
 2.0320	69.0265
 2.0310	69.0042
 2.0300	68.9910
 2.0290	68.9565
 2.0280	68.9741
 2.0270	68.9597
 2.0260	68.8987
 2.0250	68.8947
 2.0240	68.8669
 2.0230	68.8704
 2.0220	68.8749
 2.0210	68.8636
 2.0200	68.8087
 2.0190	68.8037
 2.0180	68.8189
 2.0170	68.7535
 2.0160	68.7314
 2.0150	68.7766
 2.0140	68.7400
 2.0130	68.6833
 2.0120	68.6634
 2.0110	68.6618
 2.0100	68.6415
 2.0090	68.6270
 2.0080	68.5741
 2.0070	68.5986
 2.0060	68.5646
 2.0050	68.5314
 2.0040	68.4767
 2.0030	68.5504
 2.0020	68.4093
 2.0010	68.4987
 2.0000	68.4671
 1.9990	68.3981
 1.9980	68.2931
 1.9970	68.2783
 1.9960	68.2950
 1.9950	68.3243
 1.9940	68.2240
 1.9930	68.1547
 1.9920	68.2031
 1.9910	68.1242
 1.9900	68.1172
 1.9890	68.1576
 1.9880	68.0662
 1.9870	68.0636
 1.9860	67.9464
 1.9850	68.0057
 1.9840	67.9275
 1.9830	67.9416
 1.9820	67.8504
 1.9810	67.8436
 1.9800	67.7803
 1.9790	67.7745
 1.9780	67.7420
 1.9770	67.6682
 1.9760	67.6653
 1.9750	67.7148
 1.9740	67.5525
 1.9730	67.6206
 1.9720	67.5247
 1.9710	67.5823
 1.9700	67.5397
 1.9690	67.4261
 1.9680	67.5211
 1.9670	67.3605
 1.9660	67.3058
 1.9650	67.3332
 1.9640	67.2825
 1.9630	67.2539
 1.9620	67.1974
 1.9610	67.2809
 1.9600	67.1636
 1.9590	67.2360
 1.9580	67.1567
 1.9570	67.1582
 1.9560	67.0215
 1.9550	67.0839
 1.9540	66.9487
 1.9530	67.0423
 1.9520	66.8914
 1.9510	66.9183
 1.9500	66.9507
 1.9490	66.8981
 1.9480	66.8899
 1.9470	66.8920
 1.9460	66.8428
 1.9450	66.8174
 1.9440	66.7808
 1.9430	66.6896
 1.9420	66.7807
 1.9410	66.7683
 1.9400	66.6854
 1.9390	66.7103
 1.9380	66.5646
 1.9370	66.6580
 1.9360	66.6505
 1.9350	66.5970
 1.9340	66.4743
 1.9330	66.4966
 1.9320	66.4918
 1.9310	66.5412
 1.9300	66.3917
 1.9290	66.4299
 1.9280	66.3445
 1.9270	66.4333
 1.9260	66.2796
 1.9250	66.3486
 1.9240	66.2723
 1.9230	66.3196
 1.9220	66.2922
 1.9210	66.3937
 1.9200	66.2988
 1.9190	66.2877
 1.9180	66.3348
 1.9170	66.4015
 1.9160	66.3769
 1.9150	66.4544
 1.9140	66.4089
 1.9130	66.5126
 1.9120	66.6014
 1.9110	66.6280
 1.9100	66.7460
 1.9090	66.8086
 1.9080	66.8546
 1.9070	67.0487
 1.9060	67.0265
 1.9050	67.1960
 1.9040	67.3881
 1.9030	67.5254
 1.9020	67.6016
 1.9010	67.7912
 1.9000	67.9003
 1.8990	68.0658
 1.8980	68.0986
 1.8970	68.2990
 1.8960	68.4766
 1.8950	68.5345
 1.8940	68.6471
 1.8930	68.7909
 1.8920	68.8970
 1.8910	68.9960
 1.8900	69.0983
 1.8890	69.2450
 1.8880	69.3907
 1.8870	69.4179
 1.8860	69.4764
 1.8850	69.4646
 1.8840	69.5974
 1.8830	69.6725
 1.8820	69.7052
 1.8810	69.7632
 1.8800	69.7772
 1.8790	69.8334
 1.8780	69.9134
 1.8770	69.9634
 1.8760	69.8861
 1.8750	70.0308
 1.8740	70.0583
 1.8730	70.0991
 1.8720	70.1645
 1.8710	70.1983
 1.8700	70.2272
 1.8690	70.3101
 1.8680	70.2985
 1.8670	70.3847
 1.8660	70.3691
 1.8650	70.4030
 1.8640	70.4295
 1.8630	70.4847
 1.8620	70.5280
 1.8610	70.5553
 1.8600	70.5230
 1.8590	70.5573
 1.8580	70.5211
 1.8570	70.5293
 1.8560	70.5418
 1.8550	70.6143
 1.8540	70.5807
 1.8530	70.6077
 1.8520	70.6317
 1.8510	70.6518
 1.8500	70.6546
 1.8490	70.6363
 1.8480	70.6542
 1.8470	70.7177
 1.8460	70.6581
 1.8450	70.6997
 1.8440	70.6808
 1.8430	70.7019
 1.8420	70.6606
 1.8410	70.6815
 1.8400	70.6664
 1.8390	70.6629
 1.8380	70.6330
 1.8370	70.6763
 1.8360	70.6555
 1.8350	70.7023
 1.8340	70.6684
 1.8330	70.6716
 1.8320	70.6845
 1.8310	70.7092
 1.8300	70.6284
 1.8290	70.7052
 1.8280	70.7135
 1.8270	70.7536
 1.8260	70.7073
 1.8250	70.7028
 1.8240	70.7500
 1.8230	70.7752
 1.8220	70.7159
 1.8210	70.7717
 1.8200	70.7809
 1.8190	70.7674
 1.8180	70.7203
 1.8170	70.7473
 1.8160	70.7747
 1.8150	70.7620
 1.8140	70.8265
 1.8130	70.8234
 1.8120	70.7671
 1.8110	70.7783
 1.8100	70.7951
 1.8090	70.8210
 1.8080	70.7935
 1.8070	70.8196
 1.8060	70.8372
 1.8050	70.8295
 1.8040	70.8160
 1.8030	70.8179
 1.8020	70.7739
 1.8010	70.8257
 1.8000	70.8713
 1.7990	70.7828
 1.7980	70.7516
 1.7970	70.7843
 1.7960	70.7823
 1.7950	70.7389
 1.7940	70.7377
 1.7930	70.7752
 1.7920	70.7633
 1.7910	70.7239
 1.7900	70.7026
 1.7890	70.7305
 1.7880	70.7780
 1.7870	70.7648
 1.7860	70.7342
 1.7850	70.7558
 1.7840	70.7256
 1.7830	70.7270
 1.7820	70.7368
 1.7810	70.7057
 1.7800	70.6723
 1.7790	70.6331
 1.7780	70.6837
 1.7770	70.6477
 1.7760	70.6590
 1.7750	70.6744
 1.7740	70.6652
 1.7730	70.6667
 1.7720	70.6377
 1.7710	70.6369
 1.7700	70.6151
 1.7690	70.5889
 1.7680	70.5901
 1.7670	70.5903
 1.7660	70.6048
 1.7650	70.5324
 1.7640	70.5680
 1.7630	70.6128
 1.7620	70.5867
 1.7610	70.5615
 1.7600	70.5811
 1.7590	70.5632
 1.7580	70.5517
 1.7570	70.5175
 1.7560	70.5101
 1.7550	70.5728
 1.7540	70.5381
 1.7530	70.5208
 1.7520	70.5734
 1.7510	70.5419
 1.7500	70.5178
 1.7490	70.4956
 1.7480	70.5235
 1.7470	70.5001
 1.7460	70.5662
 1.7450	70.5190
 1.7440	70.5300
 1.7430	70.4733
 1.7420	70.4770
 1.7410	70.4760
 1.7400	70.5130
 1.7390	70.5067
 1.7380	70.5097
 1.7370	70.4886
 1.7360	70.4895
 1.7350	70.4641
 1.7340	70.4931
 1.7330	70.4775
 1.7320	70.4752
 1.7310	70.4939
 1.7300	70.5055
 1.7290	70.4987
 1.7280	70.4952
 1.7270	70.4745
 1.7260	70.5168
 1.7250	70.5013
 1.7240	70.4695
 1.7230	70.5029
 1.7220	70.4658
 1.7210	70.4734
 1.7200	70.5363
 1.7190	70.4225
 1.7180	70.4827
 1.7170	70.4204
 1.7160	70.4089
 1.7150	70.3663
 1.7140	70.4311
 1.7130	70.3822
 1.7120	70.4058
 1.7110	70.3748
 1.7100	70.4461
 1.7090	70.3435
 1.7080	70.3640
 1.7070	70.3448
 1.7060	70.3369
 1.7050	70.3279
 1.7040	70.3356
 1.7030	70.2523
 1.7020	70.3100
 1.7010	70.3004
 1.7000	70.2583
 1.6990	70.2436
 1.6980	70.2823
 1.6970	70.2588
 1.6960	70.3277
 1.6950	70.2468
 1.6940	70.3195
 1.6930	70.2411
 1.6920	70.2053
 1.6910	70.1492
 1.6900	70.2352
 1.6890	70.2051
 1.6880	70.1918
 1.6870	70.1827
 1.6860	70.1877
 1.6850	70.1681
 1.6840	70.1834
 1.6830	70.1480
 1.6820	70.1940
 1.6810	70.1118
 1.6800	70.1419
 1.6790	70.1661
 1.6780	70.1704
 1.6770	70.1512
 1.6760	70.1369
 1.6750	70.1507
 1.6740	70.1145
 1.6730	70.0953
 1.6720	70.0568
 1.6710	70.0772
 1.6700	70.0908
 1.6690	70.1559
 1.6680	70.0664
 1.6670	70.0831
 1.6660	70.0174
 1.6650	70.0133
 1.6640	70.0582
 1.6630	69.9731
 1.6620	70.0833
 1.6610	70.0268
 1.6600	69.9635
 1.6590	69.9817
 1.6580	69.9724
 1.6570	69.9261
 1.6560	69.9487
 1.6550	69.8855
 1.6540	69.9263
 1.6530	69.9126
 1.6520	69.9404
 1.6510	69.9046
 1.6500	69.8848
 1.6490	69.8877
 1.6480	69.9484
 1.6470	69.8338
 1.6460	69.8898
 1.6450	69.7989
 1.6440	69.9180
 1.6430	69.8974
 1.6420	69.9531
 1.6410	69.7558
 1.6400	69.8426
 1.6390	69.8381
 1.6380	69.8123
 1.6370	69.7432
 1.6360	69.7748
 1.6350	69.7165
 1.6340	69.7759
 1.6330	69.7174
 1.6320	69.7753
 1.6310	69.6980
 1.6300	69.7959
 1.6290	69.6600
 1.6280	69.7071
 1.6270	69.7366
 1.6260	69.7071
 1.6250	69.6941
 1.6240	69.7989
 1.6230	69.6840
 1.6220	69.6915
 1.6210	69.6573
 1.6200	69.7230
 1.6190	69.6408
 1.6180	69.5928
 1.6170	69.5992
 1.6160	69.6168
 1.6150	69.5776
 1.6140	69.5676
 1.6130	69.6041
 1.6120	69.6076
 1.6110	69.5324
 1.6100	69.6850
 1.6090	69.5512
 1.6080	69.6379
 1.6070	69.6134
 1.6060	69.5671
 1.6050	69.4995
 1.6040	69.6044
 1.6030	69.5206
 1.6020	69.5453
 1.6010	69.5624
 1.6000	69.5882
 1.5990	69.4818
 1.5980	69.5488
 1.5970	69.5205
 1.5960	69.5505
 1.5950	69.5167
 1.5940	69.5426
 1.5930	69.4913
 1.5920	69.4998
 1.5910	69.4679
 1.5900	69.5061
 1.5890	69.4173
 1.5880	69.4792
 1.5870	69.4306
 1.5860	69.4589
 1.5850	69.4121
 1.5840	69.4514
 1.5830	69.3888
 1.5820	69.4142
 1.5810	69.3841
 1.5800	69.4507
 1.5790	69.3927
 1.5780	69.4346
 1.5770	69.4046
 1.5760	69.3770
 1.5750	69.3790
 1.5740	69.4353
 1.5730	69.3651
 1.5720	69.3803
 1.5710	69.3351
 1.5700	69.3290
 1.5690	69.3196
 1.5680	69.4111
 1.5670	69.3525
 1.5660	69.2900
 1.5650	69.2630
 1.5640	69.3246
 1.5630	69.3008
 1.5620	69.2835
 1.5610	69.2681
 1.5600	69.2863
 1.5590	69.2654
 1.5580	69.2813
 1.5570	69.2283
 1.5560	69.2356
 1.5550	69.2174
 1.5540	69.2511
 1.5530	69.2587
 1.5520	69.2139
 1.5510	69.2051
 1.5500	69.2209
 1.5490	69.1830
 1.5480	69.1970
 1.5470	69.1622
 1.5460	69.1666
 1.5450	69.1725
 1.5440	69.1525
 1.5430	69.1802
 1.5420	69.2091
 1.5410	69.1588
 1.5400	69.1668
 1.5390	69.1822
 1.5380	69.1625
 1.5370	69.1201
 1.5360	69.0859
 1.5350	69.0607
 1.5340	69.1007
 1.5330	69.0755
 1.5320	69.0960
 1.5310	69.0991
 1.5300	69.1065
 1.5290	69.0999
 1.5280	69.0752
 1.5270	69.0819
 1.5260	69.0626
 1.5250	69.0471
 1.5240	69.0578
 1.5230	69.0154
 1.5220	69.0227
 1.5210	69.0323
 1.5200	69.0411
 1.5190	69.0017
 1.5180	69.0068
 1.5170	69.0186
 1.5160	69.0230
 1.5150	68.9729
 1.5140	68.9069
 1.5130	68.8845
 1.5120	68.9576
 1.5110	68.9570
 1.5100	68.9256
 1.5090	68.9165
 1.5080	68.9334
 1.5070	68.9508
 1.5060	68.8907
 1.5050	68.8097
 1.5040	68.8087
 1.5030	68.8098
 1.5020	68.7770
 1.5010	68.8282
 1.5000	68.8231
 1.4990	68.7418
 1.4980	68.7345
 1.4970	68.7117
 1.4960	68.6926
 1.4950	68.7022
 1.4940	68.6679
 1.4930	68.6046
 1.4920	68.5204
 1.4910	68.4574
 1.4900	68.3740
 1.4890	68.2398
 1.4880	68.0749
 1.4870	67.9451
 1.4860	67.8342
 1.4850	67.6177
 1.4840	67.4617
 1.4830	67.3533
 1.4820	67.1999
 1.4810	67.1372
 1.4800	67.0530
 1.4790	66.9902
 1.4780	67.0028
 1.4770	67.0197
 1.4760	67.1379
 1.4750	67.2598
 1.4740	67.2986
 1.4730	67.4438
 1.4720	67.6079
 1.4710	67.8173
 1.4700	67.9736
 1.4690	68.0635
 1.4680	68.1018
 1.4670	68.2067
 1.4660	68.2688
 1.4650	68.3049
 1.4640	68.3625
 1.4630	68.4525
 1.4620	68.4345
 1.4610	68.4278
 1.4600	68.4301
 1.4590	68.4362
 1.4580	68.4717
 1.4570	68.5468
 1.4560	68.5092
 1.4550	68.5295
 1.4540	68.5453
 1.4530	68.6060
 1.4520	68.5611
 1.4510	68.5541
 1.4500	68.5694
 1.4490	68.6024
 1.4480	68.5724
 1.4470	68.5624
 1.4460	68.5857
 1.4450	68.6030
 1.4440	68.6148
 1.4430	68.6226
 1.4420	68.6389
 1.4410	68.6582
 1.4400	68.6037
 1.4390	68.6251
 1.4380	68.6284
 1.4370	68.6225
 1.4360	68.6003
 1.4350	68.5756
 1.4340	68.5247
 1.4330	68.5677
 1.4320	68.6098
 1.4310	68.6337
 1.4300	68.5802
 1.4290	68.6651
 1.4280	68.6566
 1.4270	68.7583
 1.4260	68.7144
 1.4250	68.7325
 1.4240	68.7144
 1.4230	68.7328
 1.4220	68.7085
 1.4210	68.7128
 1.4200	68.7360
 1.4190	68.7592
 1.4180	68.7757
 1.4170	68.8706
 1.4160	68.8069
 1.4150	68.8908
 1.4140	68.8892
 1.4130	68.9205
 1.4120	68.8865
 1.4110	68.9390
 1.4100	68.9222
 1.4090	68.9922
 1.4080	69.0052
 1.4070	68.9785
 1.4060	69.0308
 1.4050	69.0040
 1.4040	69.1141
 1.4030	69.0816
 1.4020	69.0875
 1.4010	69.1421
 1.4000	69.1576
 1.3990	69.2280
 1.3980	69.1401
 1.3970	69.2397
 1.3960	69.2607
 1.3950	69.3605
 1.3940	69.2938
 1.3930	69.3584
 1.3920	69.3196
 1.3910	69.4213
 1.3900	69.4513
 1.3890	69.4567
 1.3880	69.4129
 1.3870	69.4738
 1.3860	69.3999
 1.3850	69.5717
 1.3840	69.4208
 1.3830	69.4137
 1.3820	69.3947
 1.3810	69.4569
 1.3800	69.4462
 1.3790	69.5324
 1.3780	69.5033
 1.3770	69.4930
 1.3760	69.4800
 1.3750	69.5503
 1.3740	69.4716
 1.3730	69.5298
 1.3720	69.5323
 1.3710	69.4867
 1.3700	69.4427
 1.3690	69.6176
 1.3680	69.5414
 1.3670	69.5904
 1.3660	69.5208
 1.3650	69.4807
 1.3640	69.4278
 1.3630	69.5484
 1.3620	69.4633
 1.3610	69.4600
 1.3600	69.3693
 1.3590	69.5140
 1.3580	69.4531
 1.3570	69.5687
 1.3560	69.4478
 1.3550	69.4595
 1.3540	69.4166
 1.3530	69.4983
 1.3520	69.4916
 1.3510	69.4758
 1.3500	69.4003
 1.3490	69.3824
 1.3480	69.4220
 1.3470	69.4622
 1.3460	69.4813
 1.3450	69.4426
 1.3440	69.4404
 1.3430	69.5025
 1.3420	69.3935
 1.3410	69.5635
 1.3400	69.3904
 1.3390	69.4554
 1.3380	69.4154
 1.3370	69.4780
 1.3360	69.4271
 1.3350	69.4901
 1.3340	69.3854
 1.3330	69.4258
 1.3320	69.3296
 1.3310	69.3855
 1.3300	69.3269
 1.3290	69.3880
 1.3280	69.3654
 1.3270	69.3647
 1.3260	69.3315
 1.3250	69.3331
 1.3240	69.3461
 1.3230	69.4050
 1.3220	69.2664
 1.3210	69.3438
 1.3200	69.3073
 1.3190	69.3347
 1.3180	69.2706
 1.3170	69.3403
 1.3160	69.3416
 1.3150	69.3505
 1.3140	69.2702
 1.3130	69.2896
 1.3120	69.2554
 1.3110	69.2763
 1.3100	69.1865
 1.3090	69.2115
 1.3080	69.1732
 1.3070	69.2095
 1.3060	69.1645
 1.3050	69.1129
 1.3040	69.1719
 1.3030	69.2128
 1.3020	69.1182
 1.3010	69.1266
 1.3000	69.1047
 1.2990	69.1641
 1.2980	69.0847
 1.2970	69.0944
 1.2960	69.0979
 1.2950	69.0310
 1.2940	69.0593
 1.2930	69.0162
 1.2920	69.0329
 1.2910	69.0505
 1.2900	68.9525
 1.2890	69.0015
 1.2880	69.0469
 1.2870	68.9550
 1.2860	68.9743
 1.2850	68.9595
 1.2840	68.9373
 1.2830	68.9715
 1.2820	68.9452
 1.2810	68.9761
 1.2800	68.9310
 1.2790	68.9395
 1.2780	68.9200
 1.2770	68.9226
 1.2760	68.8650
 1.2750	68.9011
 1.2740	68.9027
 1.2730	68.8687
 1.2720	68.7955
 1.2710	68.8103
 1.2700	68.8350
 1.2690	68.8502
 1.2680	68.8179
 1.2670	68.8008
 1.2660	68.7934
 1.2650	68.7660
 1.2640	68.7282
 1.2630	68.7284
 1.2620	68.7380
 1.2610	68.7218
 1.2600	68.7540
 1.2590	68.7512
 1.2580	68.6244
 1.2570	68.6303
 1.2560	68.6599
 1.2550	68.6161
 1.2540	68.6142
 1.2530	68.6429
 1.2520	68.6593
 1.2510	68.6830
 1.2500	68.6448
 1.2490	68.5833
 1.2480	68.5579
 1.2470	68.5302
 1.2460	68.5118
 1.2450	68.5326
 1.2440	68.4813
 1.2430	68.4123
 1.2420	68.4135
 1.2410	68.4733
 1.2400	68.4596
 1.2390	68.4760
 1.2380	68.4456
 1.2370	68.3857
 1.2360	68.3860
 1.2350	68.4139
 1.2340	68.3922
 1.2330	68.3943
 1.2320	68.3694
 1.2310	68.3523
 1.2300	68.3138
 1.2290	68.3106
 1.2280	68.3341
 1.2270	68.2669
 1.2260	68.1751
 1.2250	68.1663
 1.2240	68.1970
 1.2230	68.2162
 1.2220	68.1902
 1.2210	68.1646
 1.2200	68.1890
 1.2190	68.1757
 1.2180	68.1262
 1.2170	68.1476
 1.2160	68.1680
 1.2150	68.1385
 1.2140	68.1119
 1.2130	68.1179
 1.2120	68.1199
 1.2110	68.0749
 1.2100	68.0190
 1.2090	67.9955
 1.2080	68.0125
 1.2070	68.0124
 1.2060	67.9738
 1.2050	67.9856
 1.2040	67.9943
 1.2030	67.9736
 1.2020	67.9963
 1.2010	67.9898
 1.2000	67.9515
 1.1990	67.9377
 1.1980	67.9162
 1.1970	67.8926
 1.1960	67.9553
 1.1950	67.9291
 1.1940	67.8508
 1.1930	67.9059
 1.1920	67.9628
 1.1910	67.8625
 1.1900	67.8631
 1.1890	67.8582
 1.1880	67.8114
 1.1870	67.8034
 1.1860	67.8297
 1.1850	67.8178
 1.1840	67.8235
 1.1830	67.8025
 1.1820	67.8316
 1.1810	67.7706
 1.1800	67.7707
 1.1790	67.7750
 1.1780	67.7201
 1.1770	67.7635
 1.1760	67.7786
 1.1750	67.7319
 1.1740	67.7158
 1.1730	67.7140
 1.1720	67.7035
 1.1710	67.7302
 1.1700	67.7570
 1.1690	67.6871
 1.1680	67.6639
 1.1670	67.6338
 1.1660	67.6985
 1.1650	67.6908
 1.1640	67.7256
 1.1630	67.6943
 1.1620	67.6263
 1.1610	67.6608
 1.1600	67.6974
 1.1590	67.6784
 1.1580	67.6749
 1.1570	67.6950
 1.1560	67.7168
 1.1550	67.7091
 1.1540	67.6815
 1.1530	67.6592
 1.1520	67.6642
 1.1510	67.6153
 1.1500	67.6774
 1.1490	67.6195
 1.1480	67.6398
 1.1470	67.6384
 1.1460	67.6757
 1.1450	67.6092
 1.1440	67.7028
 1.1430	67.6775
 1.1420	67.6777
 1.1410	67.6937
 1.1400	67.7183
 1.1390	67.6933
 1.1380	67.6628
 1.1370	67.6491
 1.1360	67.7014
 1.1350	67.6443
 1.1340	67.6456
 1.1330	67.6713
 1.1320	67.6880
 1.1310	67.6482
 1.1300	67.7545
 1.1290	67.6923
 1.1280	67.6889
 1.1270	67.6674
 1.1260	67.6569
 1.1250	67.6708
 1.1240	67.7468
 1.1230	67.7043
 1.1220	67.7698
 1.1210	67.7053
 1.1200	67.7382
 1.1190	67.6467
 1.1180	67.6704
 1.1170	67.7222
 1.1160	67.7664
 1.1150	67.6789
 1.1140	67.6756
 1.1130	67.7208
 1.1120	67.7010
 1.1110	67.7240
 1.1100	67.7007
 1.1090	67.7223
 1.1080	67.7911
 1.1070	67.7121
 1.1060	67.7422
 1.1050	67.7287
 1.1040	67.7749
 1.1030	67.7229
 1.1020	67.8065
 1.1010	67.8365
 1.1000	67.7619
 1.0990	67.8078
 1.0980	67.7664
 1.0970	67.7925
 1.0960	67.8830
 1.0950	67.8499
 1.0940	67.8805
 1.0930	67.8244
 1.0920	67.8204
 1.0910	67.7898
 1.0900	67.9386
 1.0890	67.8775
 1.0880	67.8842
 1.0870	67.8161
 1.0860	67.9425
 1.0850	67.9102
 1.0840	67.9023
 1.0830	67.8635
 1.0820	67.9048
 1.0810	67.8923
 1.0800	67.9045
 1.0790	67.8573
 1.0780	67.8421
 1.0770	67.8644
 1.0760	68.0367
 1.0750	67.8561
 1.0740	67.9793
 1.0730	68.0022
 1.0720	68.0013
 1.0710	68.0008
 1.0700	67.9210
 1.0690	67.9698
 1.0680	68.0076
 1.0670	67.8891
 1.0660	68.0272
 1.0650	67.9649
 1.0640	68.0988
 1.0630	68.0347
 1.0620	68.0459
 1.0610	68.0871
 1.0600	68.1392
 1.0590	68.0605
 1.0580	68.0369
 1.0570	68.0716
 1.0560	68.0829
 1.0550	68.0752
 1.0540	68.1223
 1.0530	68.0470
 1.0520	68.1134
 1.0510	68.1325
 1.0500	68.1320
 1.0490	68.0744
 1.0480	68.1331
 1.0470	68.1109
 1.0460	68.1507
 1.0450	68.1901
 1.0440	68.2292
 1.0430	68.1336
 1.0420	68.2282
 1.0410	68.1347
 1.0400	68.3034
 1.0390	68.1765
 1.0380	68.3318
 1.0370	68.1757
 1.0360	68.2713
 1.0350	68.2516
 1.0340	68.2721
 1.0330	68.2539
 1.0320	68.2823
 1.0310	68.2392
 1.0300	68.2626
 1.0290	68.2438
 1.0280	68.2984
 1.0270	68.3059
 1.0260	68.3464
 1.0250	68.2761
 1.0240	68.3487
 1.0230	68.3585
 1.0220	68.4029
 1.0210	68.3820
 1.0200	68.3125
 1.0190	68.3474
 1.0180	68.4372
 1.0170	68.3226
 1.0160	68.3709
 1.0150	68.3713
 1.0140	68.4061
 1.0130	68.3736
 1.0120	68.4132
 1.0110	68.4078
 1.0100	68.4751
 1.0090	68.4208
 1.0080	68.4263
 1.0070	68.4395
 1.0060	68.4878
 1.0050	68.4118
 1.0040	68.4946
 1.0030	68.5201
 1.0020	68.4530
 1.0010	68.4315
 1.0000	68.4729
 0.9990	68.4475
 0.9980	68.4859
 0.9970	68.4716
 0.9960	68.5302
 0.9950	68.5649
 0.9940	68.5690
 0.9930	68.5137
 0.9920	68.5728
 0.9910	68.5785
 0.9900	68.5654
 0.9890	68.5693
 0.9880	68.6123
 0.9870	68.6231
 0.9860	68.5877
 0.9850	68.5468
 0.9840	68.6325
 0.9830	68.6670
 0.9820	68.6843
 0.9810	68.6452
 0.9800	68.6641
 0.9790	68.7143
 0.9780	68.7548
 0.9770	68.6512
 0.9760	68.6448
 0.9750	68.6557
 0.9740	68.6980
 0.9730	68.7819
 0.9720	68.7999
 0.9710	68.7907
 0.9700	68.7711
 0.9690	68.7952
 0.9680	68.8448
 0.9670	68.8421
 0.9660	68.8869
 0.9650	68.8771
 0.9640	68.9370
 0.9630	68.9383
 0.9620	68.9268
 0.9610	68.8880
 0.9600	68.9277
 0.9590	68.9933
 0.9580	68.9922
 0.9570	68.9834
 0.9560	68.9786
 0.9550	68.9848
 0.9540	69.0367
 0.9530	69.0902
 0.9520	69.0889
 0.9510	69.0729
 0.9500	69.1661
 0.9490	69.1404
 0.9480	69.1443
 0.9470	69.2051
 0.9460	69.2444
 0.9450	69.2754
 0.9440	69.2942
 0.9430	69.3045
 0.9420	69.2946
 0.9410	69.3173
 0.9400	69.3766
 0.9390	69.4111
 0.9380	69.4187
 0.9370	69.4191
 0.9360	69.4346
 0.9350	69.4398
 0.9340	69.4750
 0.9330	69.5580
 0.9320	69.6080
 0.9310	69.6001
 0.9300	69.5889
 0.9290	69.6182
 0.9280	69.6827
 0.9270	69.7321
 0.9260	69.7565
 0.9250	69.7523
 0.9240	69.7704
 0.9230	69.7930
 0.9220	69.8039
 0.9210	69.8679
 0.9200	69.9193
 0.9190	69.9069
 0.9180	69.9460
 0.9170	70.0237
 0.9160	70.0123
 0.9150	70.0717
 0.9140	70.1420
 0.9130	70.1401
 0.9120	70.1517
 0.9110	70.2170
 0.9100	70.2351
 0.9090	70.2755
 0.9080	70.3241
 0.9070	70.3726
 0.9060	70.3857
 0.9050	70.4051
 0.9040	70.4991
 0.9030	70.5671
 0.9020	70.5055
 0.9010	70.5002
 0.9000	70.5789
 0.8990	70.5991
 0.8980	70.6358
 0.8970	70.6725
 0.8960	70.7274
 0.8950	70.7682
 0.8940	70.8213
 0.8930	70.8522
 0.8920	70.8343
 0.8910	70.8893
 0.8900	70.9781
 0.8890	70.9766
 0.8880	70.9728
 0.8870	71.0482
 0.8860	71.1254
 0.8850	71.2129
 0.8840	71.1865
 0.8830	71.2369
 0.8820	71.2673
 0.8810	71.2946
 0.8800	71.2761
 0.8790	71.3384
 0.8780	71.4155
 0.8770	71.4958
 0.8760	71.4979
 0.8750	71.4693
 0.8740	71.5609
 0.8730	71.6060
 0.8720	71.6355
 0.8710	71.6498
 0.8700	71.7166
 0.8690	71.7594
 0.8680	71.7913
 0.8670	71.8505
 0.8660	71.9243
 0.8650	71.9371
 0.8640	71.9757
 0.8630	72.0759
 0.8620	72.0690
 0.8610	72.0261
 0.8600	72.4269
 0.8590	72.6048
 0.8580	72.6533
 0.8570	72.7401
 0.8560	72.7277
 0.8550	72.6998
 0.8540	72.7659
 0.8530	72.8787
 0.8520	72.8728
 0.8510	72.8971
 0.8500	72.9310
 0.8490	72.9341
 0.8480	72.9810
 0.8470	73.0643
 0.8460	73.0912
 0.8450	73.0807
 0.8440	73.1463
 0.8430	73.1341
 0.8420	73.1734
 0.8410	73.2367
 0.8400	73.2704
 0.8390	73.3009
 0.8380	73.3215
 0.8370	73.3584
 0.8360	73.3716
 0.8350	73.4251
 0.8340	73.4579
 0.8330	73.4514
 0.8320	73.4992
 0.8310	73.5580
 0.8300	73.5558
 0.8290	73.6034
 0.8280	73.6647
 0.8270	73.6768
 0.8260	73.6465
 0.8250	73.6928
 0.8240	73.7346
 0.8230	73.7847
 0.8220	73.7899
 0.8210	73.8608
 0.8200	73.8647
 0.8190	73.9279
 0.8180	73.9059
 0.8170	73.9489
 0.8160	74.0639
 0.8150	73.9941
 0.8140	74.0205
 0.8130	74.0322
 0.8120	74.0333
 0.8110	74.1261
 0.8100	74.1289
 0.8090	74.1329
 0.8080	74.1304
 0.8070	74.1542
 0.8060	74.2273
 0.8050	74.1964
 0.8040	74.2618
 0.8030	74.2517
 0.8020	74.2916
 0.8010	74.3071
 0.8000	74.3730
 0.7990	74.3256
 0.7980	74.3386
 0.7970	74.3655
 0.7960	74.3837
 0.7950	74.3388
 0.7940	74.3859
 0.7930	74.3774
 0.7920	74.3953
 0.7910	74.4472
 0.7900	74.4352
 0.7890	74.4319
 0.7880	74.4748
 0.7870	74.4720
 0.7860	74.4944
 0.7850	74.5270
 0.7840	74.5048
 0.7830	74.5287
 0.7820	74.5623
 0.7810	74.6168
 0.7800	74.5773
 0.7790	74.5839
 0.7780	74.5763
 0.7770	74.5395
 0.7760	74.5732
 0.7750	74.6260
 0.7740	74.5889
 0.7730	74.6170
 0.7720	74.6516
 0.7710	74.6191
 0.7700	74.6410
 0.7690	74.6679
 0.7680	74.6571
 0.7670	74.6223
 0.7660	74.6350
 0.7650	74.6807
 0.7640	74.6965
 0.7630	74.6926
 0.7620	74.6732
 0.7610	74.6763
 0.7600	74.6964
 0.7590	74.6906
 0.7580	74.7038
 0.7570	74.7072
 0.7560	74.7038
 0.7550	74.6976
 0.7540	74.7295
 0.7530	74.7732
 0.7520	74.7636
 0.7510	74.7547
 0.7500	74.7456
 0.7490	74.7485
 0.7480	74.7386
 0.7470	74.7505
 0.7460	74.7354
 0.7450	74.7352
 0.7440	74.7100
 0.7430	74.7350
 0.7420	74.7444
 0.7410	74.7343
 0.7400	74.7308
 0.7390	74.7214
 0.7380	74.7287
 0.7370	74.6949
 0.7360	74.7114
 0.7350	74.7402
 0.7340	74.7321
 0.7330	74.7287
 0.7320	74.7119
 0.7310	74.7170
 0.7300	74.6885
 0.7290	74.6883
 0.7280	74.7101
 0.7270	74.6912
 0.7260	74.6939
 0.7250	74.6814
 0.7240	74.6564
 0.7230	74.6573
 0.7220	74.6636
 0.7210	74.6516
 0.7200	74.6272
 0.7190	74.6108
 0.7180	74.5956
 0.7170	74.5876
 0.7160	74.5952
 0.7150	74.5755
 0.7140	74.5757
 0.7130	74.5630
 0.7120	74.5180
 0.7110	74.5000
 0.7100	74.5084
 0.7090	74.4953
 0.7080	74.5042
 0.7070	74.4983
 0.7060	74.4527
 0.7050	74.4379
 0.7040	74.4512
 0.7030	74.4460
 0.7020	74.4344
 0.7010	74.4107
 0.7000	74.4092
 0.6990	74.3746
 0.6980	74.3821
 0.6970	74.3509
 0.6960	74.3481
 0.6950	74.3293
 0.6940	74.3185
 0.6930	74.2865
 0.6920	74.2873
 0.6910	74.2477
 0.6900	74.2401
 0.6890	74.2336
 0.6880	74.2223
 0.6870	74.2217
 0.6860	74.2348
 0.6850	74.2471
 0.6840	74.2725
 0.6830	74.2951
 0.6820	74.2931
 0.6810	74.2846
 0.6800	74.2904
 0.6790	74.2952
 0.6780	74.2626
 0.6770	74.2577
 0.6760	74.2500
 0.6750	74.2381
 0.6740	74.2014
 0.6730	74.1879
 0.6720	74.1773
 0.6710	74.1457
 0.6700	74.1429
 0.6690	74.1479
 0.6680	74.1327
 0.6670	74.0984
 0.6660	74.0907
 0.6650	74.1038
 0.6640	74.0847
 0.6630	74.0627
 0.6620	74.0456
 0.6610	74.0354
 0.6600	74.0322
 0.6590	74.0239
 0.6580	74.0184
 0.6570	74.0266
 0.6560	74.0278
 0.6550	74.0106
 0.6540	74.0063
 0.6530	74.0123
 0.6520	74.0053
 0.6510	74.0228
 0.6500	74.0234
 0.6490	74.0275
 0.6480	74.0474
 0.6470	74.0450
 0.6460	74.0336
 0.6450	74.0471
 0.6440	74.0495
 0.6430	74.0245
 0.6420	74.0262
 0.6410	74.0098
 0.6400	73.9975
 0.6390	73.9987
 0.6380	74.0004
 0.6370	74.0055
 0.6360	74.0145
 0.6350	74.0142
 0.6340	74.0059
 0.6330	74.0054
 0.6320	74.0110
 0.6310	74.0263
 0.6300	74.0443
 0.6290	74.0361
 0.6280	74.0271
 0.6270	74.0461
 0.6260	74.0547
 0.6250	74.0569
 0.6240	74.0596
 0.6230	74.0824
 0.6220	74.1071
 0.6210	74.1093
 0.6200	74.1113
 0.6190	74.1177
 0.6180	74.1285
 0.6170	74.1348
 0.6160	74.1407
 0.6150	74.1392
 0.6140	74.1421
 0.6130	74.1603
 0.6120	74.1734
 0.6110	74.1867
 0.6100	74.1975
 0.6090	74.2118
 0.6080	74.2226
 0.6070	74.2246
 0.6060	74.2275
 0.6050	74.2384
 0.6040	74.2475
 0.6030	74.2712
 0.6020	74.2691
 0.6010	74.2740
 0.6000	74.2847
 0.5990	74.3058
 0.5980	74.3216
 0.5970	74.3350
 0.5960	74.3530
 0.5950	74.3739
 0.5940	74.3965
 0.5930	74.4187
 0.5920	74.4163
 0.5910	74.4095
 0.5900	74.4076
 0.5890	74.4118
 0.5880	74.4132
 0.5870	74.4304
 0.5860	74.4263
 0.5850	74.4298
 0.5840	74.4178
 0.5830	74.4177
 0.5820	74.4258
 0.5810	74.4361
 0.5800	74.4349
 0.5790	74.4306
 0.5780	74.4372
 0.5770	74.4434
 0.5760	74.4454
 0.5750	74.4402
 0.5740	74.4253
 0.5730	74.4351
 0.5720	74.4328
 0.5710	74.4026
 0.5700	74.3878
 0.5690	74.4122
 0.5680	74.4102
 0.5670	74.3988
 0.5660	74.3927
 0.5650	74.4060
 0.5640	74.3910
 0.5630	74.4013
 0.5620	74.3987
 0.5610	74.3635
 0.5600	74.3461
 0.5590	74.3358
 0.5580	74.3160
 0.5570	74.2957
 0.5560	74.2880
 0.5550	74.2729
 0.5540	74.2672
 0.5530	74.2488
 0.5520	74.2336
 0.5510	74.2177
 0.5500	74.1975
 0.5490	74.1858
 0.5480	74.1624
 0.5470	74.1460
 0.5460	74.1242
 0.5450	74.1033
 0.5440	74.0840
 0.5430	74.0566
 0.5420	74.0310
 0.5410	74.0194
 0.5400	73.9965
 0.5390	73.9699
 0.5380	73.9361
 0.5370	73.9178
 0.5360	73.8961
 0.5350	73.8568
 0.5340	73.8483
 0.5330	73.8098
 0.5320	73.7765
 0.5310	73.7405
 0.5300	73.7179
 0.5290	73.6781
 0.5280	73.6451
 0.5270	73.6161
 0.5260	73.6047
 0.5250	73.5626
 0.5240	73.5070
 0.5230	73.4698
 0.5220	73.4417
 0.5210	73.3990
 0.5200	73.3800
 0.5190	73.3261
 0.5180	73.3044
 0.5170	73.2738
 0.5160	73.2139
 0.5150	73.1808
 0.5140	73.1577
 0.5130	73.1257
 0.5120	73.0873
 0.5110	73.0506
 0.5100	73.0038
 0.5090	72.9621
 0.5080	72.9145
 0.5070	72.8832
 0.5060	72.8292
 0.5050	72.7960
 0.5040	72.7423
 0.5030	72.6957
 0.5020	72.6669
 0.5010	72.6074
 0.5000	72.5852
 0.4990	72.5080
 0.4980	72.4472
 0.4970	72.4058
 0.4960	72.3616
 0.4950	72.3253
 0.4940	72.2243
 0.4930	72.1908
 0.4920	72.1337
 0.4910	72.0635
 0.4900	72.0245
 0.4890	71.9716
 0.4880	71.9167
 0.4870	71.8430
 0.4860	71.7991
 0.4850	71.7398
 0.4840	71.6724
 0.4830	71.6355
 0.4820	71.5713
 0.4810	71.5032
 0.4800	71.4619
 0.4790	71.4009
 0.4780	71.3608
 0.4770	71.3105
 0.4760	71.2580
 0.4750	71.2054
 0.4740	71.1473
 0.4730	71.1052
 0.4720	71.0285
 0.4710	70.9905
 0.4700	70.9256
 0.4690	70.8745
 0.4680	70.7942
 0.4670	70.7510
 0.4660	70.7012
 0.4650	70.6377
 0.4640	70.5738
 0.4630	70.5277
 0.4620	70.4579
 0.4610	70.4024
 0.4600	70.3498
 0.4590	70.2833
 0.4580	70.2397
 0.4570	70.1899
 0.4560	70.1448
 0.4550	70.0738
 0.4540	70.0040
 0.4530	69.9546
 0.4520	69.9032
 0.4510	69.8283
 0.4500	69.7934
 0.4490	69.7363
 0.4480	69.6744
 0.4470	69.6316
 0.4460	69.6014
 0.4450	69.5301
 0.4440	69.4749
 0.4430	69.4396
 0.4420	69.3738
 0.4410	69.3320
 0.4400	69.3001
 0.4390	69.2300
 0.4380	69.1933
 0.4370	69.1494
 0.4360	69.0742
 0.4350	69.0372
 0.4340	68.9797
 0.4330	68.9204
 0.4320	68.8934
 0.4310	68.8427
 0.4300	68.7884
 0.4290	68.7245
 0.4280	68.6707
 0.4270	68.6590
 0.4260	68.6113
 0.4250	68.5639
 0.4240	68.5015
 0.4230	68.4544
 0.4220	68.4088
 0.4210	68.3516
 0.4200	68.3260
 0.4190	68.2721
 0.4180	68.2177
 0.4170	68.1702
 0.4160	68.1152
 0.4150	68.0610
 0.4140	67.9999
 0.4130	67.9607
 0.4120	67.9255
 0.4110	67.8643
 0.4100	67.8214
 0.4090	67.7723
 0.4080	67.7179
 0.4070	67.6585
 0.4060	67.5966
 0.4050	67.5499
 0.4040	67.5006
 0.4030	67.4454
 0.4020	67.3791
 0.4010	67.3337
 0.4000	67.2682
