Name: Atacamite Cu_2Cl(OH)_3
Type: Mineral
Class: Halide
Subclass: None
Particle Size: Coarse
Sample No.: H-4A
Owner: JPL
Wavelength Range: VSWIR
Origin: Chile, Atacama, Copiapo
Collection Date: N/A
Description: Particle size was 125-500um.Collected by Grieger's Inc. Original ASTER Spectral Library name was jpl.beckman.mineral.halide.none.coarse.h04a.spectrum.txt
Measurement: Hemispherical reflectance
First Column: X
Second Column: Y
X Units: Wavelength (micrometers)
Y Units:Reflectance (percent)
First X Value:  0.4000
Last X Value:  2.5000
Number of X Values: 826
Additional Information: mineral.halide.none.coarse.vswir.h-4a.jpl.beckman.ancillary.txt

 0.4000	 7.1600
 0.4010	 7.3800
 0.4020	 7.4300
 0.4030	 7.5600
 0.4040	 7.6600
 0.4050	 7.7200
 0.4060	 7.9000
 0.4070	 7.9000
 0.4080	 8.0100
 0.4090	 8.0700
 0.4100	 8.1300
 0.4110	 8.2500
 0.4120	 8.3600
 0.4130	 8.3700
 0.4140	 8.5000
 0.4150	 8.5500
 0.4160	 8.6600
 0.4170	 8.7800
 0.4180	 8.7900
 0.4190	 8.9800
 0.4200	 9.0200
 0.4210	 9.1300
 0.4220	 9.2300
 0.4230	 9.2900
 0.4240	 9.3100
 0.4250	 9.3800
 0.4260	 9.4300
 0.4270	 9.6100
 0.4280	 9.7100
 0.4290	 9.8400
 0.4300	 9.9400
 0.4310	 9.9500
 0.4320	10.0200
 0.4330	10.1400
 0.4340	10.2000
 0.4350	10.3000
 0.4360	10.3600
 0.4370	10.4500
 0.4380	10.5100
 0.4390	10.5800
 0.4400	10.6900
 0.4410	10.8200
 0.4420	10.8900
 0.4430	11.0000
 0.4440	10.9600
 0.4450	11.1900
 0.4460	11.1900
 0.4470	11.2300
 0.4480	11.3700
 0.4490	11.5300
 0.4500	11.6200
 0.4510	11.7500
 0.4520	11.7500
 0.4530	11.8600
 0.4540	11.8500
 0.4550	11.8200
 0.4560	11.9600
 0.4570	12.0500
 0.4580	12.1500
 0.4590	12.1900
 0.4600	12.1700
 0.4610	12.4300
 0.4620	12.4200
 0.4630	12.4300
 0.4640	12.6700
 0.4650	12.6300
 0.4660	12.6700
 0.4670	12.8400
 0.4680	12.8100
 0.4690	12.9900
 0.4700	13.0100
 0.4710	13.0600
 0.4720	13.1500
 0.4730	13.2400
 0.4740	13.4000
 0.4750	13.4600
 0.4760	13.4800
 0.4770	13.6400
 0.4780	13.7000
 0.4790	13.8400
 0.4800	14.0000
 0.4810	13.9700
 0.4820	14.2000
 0.4830	14.2100
 0.4840	14.2400
 0.4850	14.3300
 0.4860	14.5100
 0.4870	14.6600
 0.4880	14.6900
 0.4890	14.7100
 0.4900	14.8200
 0.4910	14.8000
 0.4920	14.9100
 0.4930	15.0000
 0.4940	14.9700
 0.4950	15.1100
 0.4960	15.1100
 0.4970	15.0900
 0.4980	15.1900
 0.4990	15.2400
 0.5000	15.3600
 0.5010	15.3400
 0.5020	15.3800
 0.5030	15.5500
 0.5040	15.4800
 0.5050	15.5200
 0.5060	15.5700
 0.5070	15.6000
 0.5080	15.6600
 0.5090	15.6100
 0.5100	15.5400
 0.5110	15.7400
 0.5120	15.6400
 0.5130	15.6600
 0.5140	15.7400
 0.5150	15.6800
 0.5160	15.8200
 0.5170	15.7500
 0.5180	15.5800
 0.5190	15.7400
 0.5200	15.7100
 0.5210	15.7500
 0.5220	15.6700
 0.5230	15.5600
 0.5240	15.5100
 0.5250	15.4200
 0.5260	15.2900
 0.5270	15.3000
 0.5280	15.2500
 0.5290	15.2700
 0.5300	15.1400
 0.5310	14.9700
 0.5320	15.0100
 0.5330	14.9400
 0.5340	14.8900
 0.5350	14.8100
 0.5360	14.7100
 0.5370	14.6600
 0.5380	14.4800
 0.5390	14.4200
 0.5400	14.3000
 0.5410	14.2300
 0.5420	14.2000
 0.5430	14.0100
 0.5440	13.8800
 0.5450	13.8600
 0.5460	13.7200
 0.5470	13.6400
 0.5480	13.4600
 0.5490	13.3200
 0.5500	13.2400
 0.5510	13.0600
 0.5520	12.9500
 0.5530	12.7300
 0.5540	12.5800
 0.5550	12.4900
 0.5560	12.2700
 0.5570	12.0000
 0.5580	11.9800
 0.5590	11.8100
 0.5600	11.8200
 0.5610	11.4900
 0.5620	11.3500
 0.5630	11.2000
 0.5640	10.9000
 0.5650	10.8800
 0.5660	10.7300
 0.5670	10.4900
 0.5680	10.4300
 0.5690	10.1700
 0.5700	10.0100
 0.5710	 9.9500
 0.5720	 9.7000
 0.5730	 9.6600
 0.5740	 9.5200
 0.5750	 9.3000
 0.5760	 9.1700
 0.5770	 9.0300
 0.5780	 8.8600
 0.5790	 8.7600
 0.5800	 8.4800
 0.5810	 8.4600
 0.5820	 8.4000
 0.5830	 8.3500
 0.5840	 8.1600
 0.5850	 7.9400
 0.5860	 7.8200
 0.5870	 7.7100
 0.5880	 7.3500
 0.5890	 7.3400
 0.5900	 7.2900
 0.5910	 7.0600
 0.5920	 6.9500
 0.5930	 6.7600
 0.5940	 6.6900
 0.5950	 6.6300
 0.5960	 6.3900
 0.5970	 6.3300
 0.5980	 6.3100
 0.5990	 6.1500
 0.6000	 6.1300
 0.6010	 5.9700
 0.6020	 6.0000
 0.6030	 5.8700
 0.6040	 5.7500
 0.6050	 5.7500
 0.6060	 5.7400
 0.6070	 5.6800
 0.6080	 5.5100
 0.6090	 5.2700
 0.6100	 5.1600
 0.6110	 5.1500
 0.6120	 5.0200
 0.6130	 5.0800
 0.6140	 5.0800
 0.6150	 4.8600
 0.6160	 4.7400
 0.6170	 4.6800
 0.6180	 4.6800
 0.6190	 4.6800
 0.6200	 4.4600
 0.6210	 4.5200
 0.6220	 4.4000
 0.6230	 4.3900
 0.6240	 4.2100
 0.6250	 4.1600
 0.6260	 4.2700
 0.6270	 4.2200
 0.6280	 4.1100
 0.6290	 4.1600
 0.6300	 4.1100
 0.6310	 4.0600
 0.6320	 4.0100
 0.6330	 3.9500
 0.6340	 3.8900
 0.6350	 3.8900
 0.6360	 3.8300
 0.6370	 3.8300
 0.6380	 3.7800
 0.6390	 3.6600
 0.6400	 3.6500
 0.6410	 3.5900
 0.6420	 3.6500
 0.6430	 3.5400
 0.6440	 3.4900
 0.6450	 3.4900
 0.6460	 3.5500
 0.6470	 3.4800
 0.6480	 3.4800
 0.6490	 3.3000
 0.6500	 3.4200
 0.6510	 3.3700
 0.6520	 3.3100
 0.6530	 3.3100
 0.6540	 3.2500
 0.6550	 3.2500
 0.6560	 3.2600
 0.6570	 3.0900
 0.6580	 3.1500
 0.6590	 3.1400
 0.6600	 3.0800
 0.6610	 3.0700
 0.6620	 3.1300
 0.6630	 3.0200
 0.6640	 3.0800
 0.6650	 3.0800
 0.6660	 3.0800
 0.6670	 3.0200
 0.6680	 3.0200
 0.6690	 2.9700
 0.6700	 2.8000
 0.6710	 2.8500
 0.6720	 2.7900
 0.6730	 2.7900
 0.6740	 2.7300
 0.6750	 2.7300
 0.6760	 2.7400
 0.6770	 2.7400
 0.6780	 2.6700
 0.6790	 2.7300
 0.6800	 2.6700
 0.6810	 2.6800
 0.6820	 2.7400
 0.6830	 2.6200
 0.6840	 2.7300
 0.6850	 2.7900
 0.6860	 2.7900
 0.6870	 2.7800
 0.6880	 2.7300
 0.6890	 2.7300
 0.6900	 2.7300
 0.6910	 2.7300
 0.6920	 2.7900
 0.6930	 2.7300
 0.6940	 2.7400
 0.6950	 2.6800
 0.6960	 2.6200
 0.6970	 2.7900
 0.6980	 2.6800
 0.6990	 2.7000
 0.7000	 2.6600
 0.7010	 2.7100
 0.7020	 2.6200
 0.7030	 2.7300
 0.7040	 2.7300
 0.7050	 2.6700
 0.7060	 2.6100
 0.7070	 2.6700
 0.7080	 2.6200
 0.7090	 2.5000
 0.7100	 2.5600
 0.7110	 2.5500
 0.7120	 2.5600
 0.7130	 2.6800
 0.7140	 2.6200
 0.7150	 2.6800
 0.7160	 2.6200
 0.7170	 2.6200
 0.7180	 2.6700
 0.7190	 2.5600
 0.7200	 2.5600
 0.7210	 2.5500
 0.7220	 2.6700
 0.7230	 2.6800
 0.7240	 2.6800
 0.7250	 2.6200
 0.7260	 2.6800
 0.7270	 2.5600
 0.7280	 2.5000
 0.7290	 2.5600
 0.7300	 2.5600
 0.7310	 2.6700
 0.7320	 2.6100
 0.7330	 2.5600
 0.7340	 2.6200
 0.7350	 2.6200
 0.7360	 2.5600
 0.7370	 2.5500
 0.7380	 2.6100
 0.7390	 2.6200
 0.7400	 2.6700
 0.7410	 2.7300
 0.7420	 2.6700
 0.7430	 2.5600
 0.7440	 2.5600
 0.7450	 2.5000
 0.7460	 2.5000
 0.7470	 2.3900
 0.7480	 2.4000
 0.7490	 2.4000
 0.7500	 2.2800
 0.7510	 2.3300
 0.7520	 2.3900
 0.7530	 2.3400
 0.7540	 2.3400
 0.7550	 2.3900
 0.7560	 2.3900
 0.7570	 2.4500
 0.7580	 2.3900
 0.7590	 2.3900
 0.7600	 2.3900
 0.7610	 2.3400
 0.7620	 2.4000
 0.7630	 2.3400
 0.7640	 2.3900
 0.7650	 2.4400
 0.7660	 2.4500
 0.7670	 2.3900
 0.7680	 2.4400
 0.7690	 2.4500
 0.7700	 2.4500
 0.7710	 2.3900
 0.7720	 2.3900
 0.7730	 2.3900
 0.7740	 2.3900
 0.7750	 2.4500
 0.7760	 2.3900
 0.7770	 2.3900
 0.7780	 2.4500
 0.7790	 2.4500
 0.7800	 2.4500
 0.7810	 2.4500
 0.7820	 2.4900
 0.7830	 2.4400
 0.7840	 2.4900
 0.7850	 2.4900
 0.7860	 2.4400
 0.7870	 2.4400
 0.7880	 2.4900
 0.7890	 2.4900
 0.7900	 2.4900
 0.7910	 2.4900
 0.7920	 2.4900
 0.7930	 2.4900
 0.7940	 2.4400
 0.7950	 2.6000
 0.7960	 2.7100
 0.7970	 2.8300
 0.7980	 2.8400
 0.7990	 2.8000
 0.8000	 2.8300
 0.8040	 2.8300
 0.8080	 2.7600
 0.8120	 2.7600
 0.8160	 2.8900
 0.8200	 2.8900
 0.8240	 2.9000
 0.8280	 2.8900
 0.8320	 2.9400
 0.8360	 2.9400
 0.8400	 3.0200
 0.8440	 3.0200
 0.8480	 3.0200
 0.8520	 3.0100
 0.8560	 3.0200
 0.8600	 3.0800
 0.8640	 3.1500
 0.8680	 3.1500
 0.8720	 3.1500
 0.8760	 3.2100
 0.8800	 3.2000
 0.8840	 3.3300
 0.8880	 3.2700
 0.8920	 3.3800
 0.8960	 3.3900
 0.9000	 3.3900
 0.9040	 3.5000
 0.9080	 3.5700
 0.9120	 3.6200
 0.9160	 3.6900
 0.9200	 3.8000
 0.9240	 3.8000
 0.9280	 3.8000
 0.9320	 3.9200
 0.9360	 4.0500
 0.9400	 4.0900
 0.9440	 4.1100
 0.9480	 4.1600
 0.9520	 4.3400
 0.9560	 4.4000
 0.9600	 4.5100
 0.9640	 4.5700
 0.9680	 4.6400
 0.9720	 4.7000
 0.9760	 4.8100
 0.9800	 4.9900
 0.9840	 5.0600
 0.9880	 5.1600
 0.9920	 5.3300
 0.9960	 5.4000
 1.0000	 5.4600
 1.0040	 5.6500
 1.0080	 5.7800
 1.0120	 5.8300
 1.0160	 5.9400
 1.0200	 6.1200
 1.0240	 6.2900
 1.0280	 6.3700
 1.0320	 6.5500
 1.0360	 6.6700
 1.0400	 6.7200
 1.0440	 6.9400
 1.0480	 7.1200
 1.0520	 7.2900
 1.0560	 7.3700
 1.0600	 7.5400
 1.0640	 7.6100
 1.0680	 7.7700
 1.0720	 7.9300
 1.0760	 8.1000
 1.0800	 8.2200
 1.0840	 8.4200
 1.0880	 8.5100
 1.0920	 8.7300
 1.0960	 8.8400
 1.1000	 9.0500
 1.1040	 9.1100
 1.1080	 9.3200
 1.1120	 9.4200
 1.1160	 9.5200
 1.1200	 9.7100
 1.1240	 9.8500
 1.1280	10.1000
 1.1320	10.2200
 1.1360	10.3400
 1.1400	10.4600
 1.1440	10.5900
 1.1480	10.7700
 1.1520	10.9100
 1.1560	11.0400
 1.1600	11.2100
 1.1640	11.3200
 1.1680	11.5400
 1.1720	11.7100
 1.1760	11.8200
 1.1800	12.0500
 1.1840	12.1900
 1.1880	12.2800
 1.1920	12.4400
 1.1960	12.7500
 1.2000	12.8500
 1.2040	13.0400
 1.2080	13.1400
 1.2120	13.3800
 1.2160	13.5300
 1.2200	13.7400
 1.2240	13.9300
 1.2280	14.0400
 1.2320	14.2300
 1.2360	14.4000
 1.2400	14.6600
 1.2440	14.8000
 1.2480	14.9900
 1.2520	15.1500
 1.2560	15.3100
 1.2600	15.5300
 1.2640	15.6800
 1.2680	15.9400
 1.2720	16.0500
 1.2760	16.2000
 1.2800	16.4200
 1.2840	16.6400
 1.2880	16.7800
 1.2920	16.9300
 1.2960	17.1300
 1.3000	17.3500
 1.3040	17.4400
 1.3080	17.5800
 1.3120	17.7400
 1.3160	17.9700
 1.3200	18.1200
 1.3240	18.2600
 1.3280	18.3100
 1.3320	18.5100
 1.3360	18.6900
 1.3400	18.7800
 1.3440	18.9300
 1.3480	19.1400
 1.3520	19.1700
 1.3560	19.2700
 1.3600	19.3900
 1.3640	19.5000
 1.3680	19.5500
 1.3720	19.6100
 1.3760	19.6000
 1.3800	19.5000
 1.3840	19.3100
 1.3880	19.0900
 1.3920	18.5900
 1.3960	17.9800
 1.4000	17.0700
 1.4040	15.9100
 1.4080	14.9100
 1.4120	14.8800
 1.4160	15.7400
 1.4200	16.5100
 1.4240	17.0300
 1.4280	17.4400
 1.4320	17.7900
 1.4360	18.1000
 1.4400	18.3900
 1.4440	18.5000
 1.4480	18.5900
 1.4520	18.7400
 1.4560	18.7000
 1.4600	18.3000
 1.4640	18.1200
 1.4680	18.5200
 1.4720	19.3700
 1.4760	20.0400
 1.4800	20.4000
 1.4840	20.4300
 1.4880	20.5200
 1.4920	20.9700
 1.4960	21.4800
 1.5000	21.9300
 1.5040	22.2100
 1.5080	22.5400
 1.5120	23.0000
 1.5160	23.3200
 1.5200	23.5000
 1.5240	23.7300
 1.5280	24.0200
 1.5320	24.4000
 1.5360	24.6900
 1.5400	24.8400
 1.5440	24.9200
 1.5480	24.7500
 1.5520	24.6200
 1.5560	24.7900
 1.5600	25.4100
 1.5640	26.1100
 1.5680	26.5600
 1.5720	26.9400
 1.5760	27.1700
 1.5800	27.3400
 1.5840	27.4100
 1.5880	27.6400
 1.5920	27.8200
 1.5960	28.1300
 1.6000	28.3700
 1.6040	28.6800
 1.6080	29.0800
 1.6120	29.2900
 1.6160	29.5800
 1.6200	29.7500
 1.6240	29.9200
 1.6280	30.1900
 1.6320	30.3600
 1.6360	30.5800
 1.6400	30.8100
 1.6440	31.0500
 1.6480	31.2700
 1.6520	31.3800
 1.6560	31.6200
 1.6600	31.7000
 1.6640	31.7900
 1.6680	31.7100
 1.6720	31.5400
 1.6760	31.3300
 1.6800	31.0700
 1.6840	31.0200
 1.6880	31.1400
 1.6920	31.3100
 1.6960	31.7100
 1.7000	32.0900
 1.7040	32.3900
 1.7080	32.5300
 1.7120	32.5400
 1.7160	32.7300
 1.7200	32.6900
 1.7240	32.7100
 1.7280	32.8200
 1.7320	32.9500
 1.7360	33.1600
 1.7400	33.4800
 1.7440	33.6400
 1.7480	33.7000
 1.7520	33.6200
 1.7560	33.6600
 1.7600	33.7200
 1.7640	33.8400
 1.7680	34.0300
 1.7720	34.2900
 1.7760	34.4600
 1.7800	34.5200
 1.7840	34.5600
 1.7880	34.5800
 1.7920	34.6000
 1.7960	34.7200
 1.8000	34.7700
 1.8040	34.7400
 1.8080	34.8400
 1.8120	34.9500
 1.8160	35.0100
 1.8200	35.1800
 1.8240	35.2500
 1.8280	35.2000
 1.8320	34.9000
 1.8360	34.3800
 1.8400	33.5900
 1.8440	32.5200
 1.8480	31.7800
 1.8520	31.3700
 1.8560	31.2900
 1.8600	31.2700
 1.8640	30.9600
 1.8680	30.1500
 1.8720	28.8900
 1.8760	27.2100
 1.8800	25.3400
 1.8840	23.2200
 1.8880	21.0700
 1.8920	18.9700
 1.8960	17.1500
 1.9000	15.6400
 1.9040	14.5200
 1.9080	13.9300
 1.9120	13.6900
 1.9160	13.6500
 1.9200	13.6900
 1.9240	13.8000
 1.9280	13.9900
 1.9320	14.1100
 1.9360	14.2200
 1.9400	14.4100
 1.9440	14.4200
 1.9480	14.6700
 1.9520	14.9100
 1.9560	15.1600
 1.9600	15.2500
 1.9640	15.4800
 1.9680	15.5200
 1.9720	15.4200
 1.9760	15.5600
 1.9800	15.6400
 1.9840	15.9000
 1.9880	16.3400
 1.9920	17.1400
 1.9960	18.0000
 2.0000	18.9100
 2.0040	19.9600
 2.0080	20.8800
 2.0120	21.7200
 2.0160	22.3900
 2.0200	22.9200
 2.0240	23.5000
 2.0280	24.0200
 2.0320	24.4400
 2.0360	24.9100
 2.0400	25.3000
 2.0440	25.6900
 2.0480	25.8700
 2.0520	26.0400
 2.0560	26.2900
 2.0600	26.4800
 2.0640	26.6300
 2.0680	26.7700
 2.0720	26.9200
 2.0760	26.9800
 2.0800	27.0300
 2.0840	27.0800
 2.0880	27.1600
 2.0920	27.1900
 2.0960	27.2500
 2.1000	27.3000
 2.1040	27.3700
 2.1080	27.4100
 2.1120	27.4900
 2.1160	27.5200
 2.1200	27.4100
 2.1240	27.1600
 2.1280	26.6900
 2.1320	26.0900
 2.1360	25.3000
 2.1400	24.4100
 2.1440	23.4200
 2.1480	22.6800
 2.1520	22.1100
 2.1560	21.9700
 2.1600	22.1700
 2.1640	22.6200
 2.1680	23.0300
 2.1720	23.4700
 2.1760	23.7000
 2.1800	23.8200
 2.1840	23.7100
 2.1880	23.4800
 2.1920	23.3700
 2.1960	23.2000
 2.2000	22.9900
 2.2040	22.8200
 2.2080	22.6500
 2.2120	22.4600
 2.2160	22.2400
 2.2200	21.8600
 2.2240	21.2800
 2.2280	20.5800
 2.2320	19.6400
 2.2360	18.7700
 2.2400	17.7800
 2.2440	16.9600
 2.2480	16.2900
 2.2520	15.7500
 2.2560	15.3800
 2.2600	15.2000
 2.2640	15.1400
 2.2680	15.1900
 2.2720	15.1900
 2.2760	15.2300
 2.2800	15.2000
 2.2840	15.1700
 2.2880	15.1100
 2.2920	15.0400
 2.2960	14.9000
 2.3000	14.7500
 2.3040	14.5500
 2.3080	14.3300
 2.3120	14.2000
 2.3160	14.1100
 2.3200	14.0000
 2.3240	13.9300
 2.3280	13.8000
 2.3320	13.6800
 2.3360	13.6000
 2.3400	13.6600
 2.3440	13.7200
 2.3480	13.7900
 2.3520	13.8400
 2.3560	13.9100
 2.3600	13.8400
 2.3640	13.7300
 2.3680	13.6600
 2.3720	13.5500
 2.3760	13.4600
 2.3800	13.4500
 2.3840	13.3900
 2.3880	13.2800
 2.3920	13.1600
 2.3960	13.1100
 2.4000	13.1500
 2.4040	13.1000
 2.4080	13.1300
 2.4120	13.1200
 2.4160	13.1000
 2.4200	12.9600
 2.4240	12.8300
 2.4280	12.6400
 2.4320	12.3000
 2.4360	11.8800
 2.4400	11.4800
 2.4440	10.8900
 2.4480	10.4400
 2.4520	 9.9500
 2.4560	 9.5900
 2.4600	 9.2700
 2.4640	 9.1500
 2.4680	 9.0300
 2.4720	 9.1500
 2.4760	 9.2200
 2.4800	 9.4800
 2.4840	 9.6700
 2.4880	 9.8000
 2.4920	 9.9200
 2.4960	10.0300
 2.5000	10.0100
