Name: Jarosite KFe_3^3+(SO_4)_2(OH)_6
Type: Mineral
Class: Sulfate
Subclass: None
Particle Size: Fine
Sample No.: SO-7A
Owner: JPL
Wavelength Range: VSWIR
Origin: Mexico, Chihuahua
Collection Date: N/A
Description: Particle size was 0-45um.Collected by Ward's Original ASTER Spectral Library name was jpl.beckman.mineral.sulfate.none.fine.so07a.spectrum.txt
Measurement: Hemispherical reflectance
First Column: X
Second Column: Y
X Units: Wavelength (micrometers)
Y Units:Reflectance (percent)
First X Value:  0.4000
Last X Value:  2.5000
Number of X Values: 826
Additional Information: mineral.sulfate.none.fine.vswir.so-7a.jpl.beckman.ancillary.txt

 0.4000	 5.0200
 0.4010	 5.2700
 0.4020	 5.2700
 0.4030	 5.4000
 0.4040	 5.5700
 0.4050	 5.6900
 0.4060	 5.8700
 0.4070	 5.9800
 0.4080	 6.1000
 0.4090	 6.2300
 0.4100	 6.4000
 0.4110	 6.5800
 0.4120	 6.6400
 0.4130	 6.8300
 0.4140	 6.8900
 0.4150	 7.1200
 0.4160	 7.2900
 0.4170	 7.3600
 0.4180	 7.6100
 0.4190	 7.6100
 0.4200	 7.7300
 0.4210	 7.8200
 0.4220	 7.9400
 0.4230	 8.1300
 0.4240	 8.1400
 0.4250	 8.1900
 0.4260	 8.3000
 0.4270	 8.4100
 0.4280	 8.4600
 0.4290	 8.4100
 0.4300	 8.4700
 0.4310	 8.4800
 0.4320	 8.5500
 0.4330	 8.6200
 0.4340	 8.5500
 0.4350	 8.6100
 0.4360	 8.5900
 0.4370	 8.7100
 0.4380	 8.8500
 0.4390	 8.9000
 0.4400	 9.0200
 0.4410	 9.1500
 0.4420	 9.3700
 0.4430	 9.5000
 0.4440	 9.7300
 0.4450	 9.9700
 0.4460	10.1300
 0.4470	10.3200
 0.4480	10.6000
 0.4490	10.8200
 0.4500	11.1800
 0.4510	11.3600
 0.4520	11.6000
 0.4530	11.8900
 0.4540	12.2000
 0.4550	12.4600
 0.4560	12.6500
 0.4570	12.9100
 0.4580	13.1700
 0.4590	13.3900
 0.4600	13.4400
 0.4610	14.1200
 0.4620	14.3600
 0.4630	14.6200
 0.4640	14.8600
 0.4650	15.0500
 0.4660	15.2900
 0.4670	15.6300
 0.4680	15.8700
 0.4690	16.1300
 0.4700	16.4300
 0.4710	16.6200
 0.4720	16.9700
 0.4730	17.2900
 0.4740	17.5900
 0.4750	17.8000
 0.4760	18.2200
 0.4770	18.5600
 0.4780	18.9000
 0.4790	19.2100
 0.4800	19.5000
 0.4810	19.8400
 0.4820	20.1500
 0.4830	20.6100
 0.4840	20.8500
 0.4850	21.2600
 0.4860	21.5600
 0.4870	21.8500
 0.4880	22.1300
 0.4890	22.4500
 0.4900	22.8200
 0.4910	23.1200
 0.4920	23.4200
 0.4930	23.6600
 0.4940	23.9900
 0.4950	24.3100
 0.4960	24.5800
 0.4970	24.8600
 0.4980	25.1000
 0.4990	25.3800
 0.5000	25.6400
 0.5010	25.8900
 0.5020	26.1500
 0.5030	26.4400
 0.5040	26.7300
 0.5050	26.9600
 0.5060	27.1000
 0.5070	27.2800
 0.5080	27.5900
 0.5090	27.7100
 0.5100	28.0300
 0.5110	28.1700
 0.5120	28.4200
 0.5130	28.7300
 0.5140	28.8500
 0.5150	29.0000
 0.5160	29.1800
 0.5170	29.3500
 0.5180	29.5600
 0.5190	29.7500
 0.5200	29.9900
 0.5210	30.0900
 0.5220	30.2200
 0.5230	30.3800
 0.5240	30.5500
 0.5250	30.7400
 0.5260	30.9300
 0.5270	31.0800
 0.5280	31.1800
 0.5290	31.3600
 0.5300	31.5100
 0.5310	31.7200
 0.5320	31.8400
 0.5330	32.0000
 0.5340	32.1200
 0.5350	32.2100
 0.5360	32.4200
 0.5370	32.5400
 0.5380	32.7200
 0.5390	32.8500
 0.5400	32.9300
 0.5410	33.1300
 0.5420	33.2500
 0.5430	33.4100
 0.5440	33.6000
 0.5450	33.7200
 0.5460	33.8700
 0.5470	33.9900
 0.5480	34.1700
 0.5490	34.2800
 0.5500	34.5100
 0.5510	34.6000
 0.5520	34.8400
 0.5530	34.9600
 0.5540	35.1000
 0.5550	35.3600
 0.5560	35.4800
 0.5570	35.6200
 0.5580	35.6700
 0.5590	35.7300
 0.5600	35.8800
 0.5610	36.3900
 0.5620	36.5500
 0.5630	36.6500
 0.5640	36.9200
 0.5650	37.1000
 0.5660	37.2500
 0.5670	37.4500
 0.5680	37.4600
 0.5690	37.6700
 0.5700	37.8300
 0.5710	38.0400
 0.5720	38.2700
 0.5730	38.3700
 0.5740	38.5400
 0.5750	38.7300
 0.5760	39.0000
 0.5770	39.2100
 0.5780	39.4300
 0.5790	39.6400
 0.5800	39.7500
 0.5810	40.0300
 0.5820	40.2600
 0.5830	40.5900
 0.5840	40.7400
 0.5850	40.9600
 0.5860	41.1600
 0.5870	41.4800
 0.5880	41.7200
 0.5890	41.9300
 0.5900	42.1900
 0.5910	42.4600
 0.5920	42.7400
 0.5930	43.0300
 0.5940	43.2700
 0.5950	43.5000
 0.5960	43.8700
 0.5970	44.0800
 0.5980	44.5100
 0.5990	44.6700
 0.6000	44.9500
 0.6010	45.3800
 0.6020	45.5300
 0.6030	45.8700
 0.6040	46.1700
 0.6050	46.4600
 0.6060	46.8700
 0.6070	47.1000
 0.6080	47.3200
 0.6090	47.6700
 0.6100	47.8700
 0.6110	48.2500
 0.6120	48.5700
 0.6130	48.8300
 0.6140	49.1600
 0.6150	49.4000
 0.6160	49.7700
 0.6170	49.9800
 0.6180	50.2200
 0.6190	50.5300
 0.6200	50.8400
 0.6210	51.0000
 0.6220	51.3900
 0.6230	51.8200
 0.6240	52.0800
 0.6250	52.4400
 0.6260	52.7000
 0.6270	52.9300
 0.6280	53.2100
 0.6290	53.5400
 0.6300	53.6900
 0.6310	54.0200
 0.6320	54.1700
 0.6330	54.4900
 0.6340	54.7500
 0.6350	55.1100
 0.6360	55.3700
 0.6370	55.6000
 0.6380	55.7700
 0.6390	56.0100
 0.6400	56.2600
 0.6410	56.4500
 0.6420	56.8100
 0.6430	57.0300
 0.6440	57.2400
 0.6450	57.5200
 0.6460	57.5400
 0.6470	57.9100
 0.6480	58.0700
 0.6490	58.3100
 0.6500	58.5600
 0.6510	58.7500
 0.6520	58.9700
 0.6530	59.1800
 0.6540	59.3700
 0.6550	59.5800
 0.6560	59.7600
 0.6570	59.8900
 0.6580	60.0600
 0.6590	60.3400
 0.6600	60.5100
 0.6610	60.6600
 0.6620	60.9300
 0.6630	60.9900
 0.6640	61.3000
 0.6650	61.4300
 0.6660	61.4900
 0.6670	61.8400
 0.6680	62.0500
 0.6690	62.0900
 0.6700	62.3300
 0.6710	62.4100
 0.6720	62.6000
 0.6730	62.7700
 0.6740	62.9700
 0.6750	63.1200
 0.6760	63.3500
 0.6770	63.4700
 0.6780	63.6000
 0.6790	63.8100
 0.6800	63.9600
 0.6810	64.1600
 0.6820	64.3300
 0.6830	64.5200
 0.6840	64.6300
 0.6850	64.6900
 0.6860	64.9200
 0.6870	65.0200
 0.6880	65.1100
 0.6890	65.3600
 0.6900	65.4900
 0.6910	65.6900
 0.6920	65.8900
 0.6930	66.0000
 0.6940	66.0800
 0.6950	66.2000
 0.6960	66.3500
 0.6970	66.4800
 0.6980	66.6500
 0.6990	66.7200
 0.7000	66.7300
 0.7010	66.9100
 0.7020	67.2300
 0.7030	67.5100
 0.7040	67.6100
 0.7050	67.7900
 0.7060	67.8700
 0.7070	68.0200
 0.7080	68.2600
 0.7090	68.2500
 0.7100	68.3500
 0.7110	68.3600
 0.7120	68.4700
 0.7130	68.6600
 0.7140	68.7300
 0.7150	68.8700
 0.7160	68.8000
 0.7170	69.0200
 0.7180	69.1400
 0.7190	69.1000
 0.7200	69.3100
 0.7210	69.2500
 0.7220	69.3000
 0.7230	69.4000
 0.7240	69.5100
 0.7250	69.6200
 0.7260	69.6400
 0.7270	69.5800
 0.7280	69.7300
 0.7290	69.7500
 0.7300	69.7800
 0.7310	69.8400
 0.7320	69.7800
 0.7330	69.9700
 0.7340	69.8800
 0.7350	69.9000
 0.7360	69.9400
 0.7370	69.8700
 0.7380	69.8800
 0.7390	69.8100
 0.7400	69.8400
 0.7410	69.8400
 0.7420	69.8100
 0.7430	69.8000
 0.7440	69.7100
 0.7450	69.7300
 0.7460	69.6800
 0.7470	69.5400
 0.7480	69.5400
 0.7490	69.4100
 0.7500	69.4100
 0.7510	69.3200
 0.7520	69.1700
 0.7530	69.2300
 0.7540	69.0900
 0.7550	69.0200
 0.7560	68.8600
 0.7570	68.6800
 0.7580	68.7000
 0.7590	68.5700
 0.7600	68.5100
 0.7610	68.3000
 0.7620	68.1200
 0.7630	68.1200
 0.7640	68.0100
 0.7650	67.8900
 0.7660	67.7600
 0.7670	67.4500
 0.7680	67.4300
 0.7690	67.2500
 0.7700	67.1300
 0.7710	67.0000
 0.7720	66.8100
 0.7730	66.6800
 0.7740	66.5300
 0.7750	66.4300
 0.7760	66.2900
 0.7770	66.1200
 0.7780	66.0400
 0.7790	65.9300
 0.7800	65.8100
 0.7810	65.6300
 0.7820	65.4100
 0.7830	65.3200
 0.7840	65.1600
 0.7850	65.0600
 0.7860	64.8300
 0.7870	64.6400
 0.7880	64.5500
 0.7890	64.3000
 0.7900	64.2800
 0.7910	64.1400
 0.7920	63.9100
 0.7930	63.8600
 0.7940	63.7500
 0.7950	63.6200
 0.7960	63.4700
 0.7970	63.2000
 0.7980	63.1800
 0.7990	63.0400
 0.8000	62.9900
 0.8040	62.5000
 0.8080	61.8500
 0.8120	61.3200
 0.8160	60.8200
 0.8200	60.2200
 0.8240	59.6800
 0.8280	59.1300
 0.8320	58.7000
 0.8360	58.3200
 0.8400	57.8600
 0.8440	57.5600
 0.8480	57.1600
 0.8520	56.8400
 0.8560	56.5500
 0.8600	56.2600
 0.8640	55.9800
 0.8680	55.7000
 0.8720	55.4600
 0.8760	55.2200
 0.8800	55.0800
 0.8840	54.8700
 0.8880	54.7800
 0.8920	54.6800
 0.8960	54.5100
 0.9000	54.4300
 0.9040	54.3500
 0.9080	54.3100
 0.9120	54.2400
 0.9160	54.3100
 0.9200	54.3200
 0.9240	54.4000
 0.9280	54.4500
 0.9320	54.6100
 0.9360	54.7200
 0.9400	54.8700
 0.9440	54.9500
 0.9480	55.1200
 0.9520	55.3400
 0.9560	55.5300
 0.9600	55.6600
 0.9640	55.8900
 0.9680	56.1500
 0.9720	56.3200
 0.9760	56.5100
 0.9800	56.8500
 0.9840	57.1300
 0.9880	57.3200
 0.9920	57.7000
 0.9960	57.9700
 1.0000	58.1700
 1.0040	58.6200
 1.0080	58.9400
 1.0120	59.2600
 1.0160	59.5800
 1.0200	59.9400
 1.0240	60.2100
 1.0280	60.5600
 1.0320	60.8900
 1.0360	61.2500
 1.0400	61.5900
 1.0440	61.9700
 1.0480	62.2600
 1.0520	62.6000
 1.0560	62.9400
 1.0600	63.3000
 1.0640	63.6600
 1.0680	63.9800
 1.0720	64.2900
 1.0760	64.6500
 1.0800	64.9000
 1.0840	65.3200
 1.0880	65.6100
 1.0920	65.9400
 1.0960	66.2700
 1.1000	66.6500
 1.1040	66.9700
 1.1080	67.2800
 1.1120	67.6400
 1.1160	68.0500
 1.1200	68.3300
 1.1240	68.6400
 1.1280	69.0600
 1.1320	69.4000
 1.1360	69.6400
 1.1400	69.9300
 1.1440	70.2400
 1.1480	70.6400
 1.1520	70.9000
 1.1560	71.2000
 1.1600	71.5800
 1.1640	71.8100
 1.1680	72.1700
 1.1720	72.4700
 1.1760	72.8300
 1.1800	73.1200
 1.1840	73.4900
 1.1880	73.7100
 1.1920	74.0700
 1.1960	74.4500
 1.2000	74.7700
 1.2040	75.1200
 1.2080	75.3800
 1.2120	75.6700
 1.2160	75.9500
 1.2200	76.2700
 1.2240	76.5800
 1.2280	76.9100
 1.2320	77.2600
 1.2360	77.5000
 1.2400	77.7800
 1.2440	78.1200
 1.2480	78.4300
 1.2520	78.6800
 1.2560	79.0200
 1.2600	79.3000
 1.2640	79.5700
 1.2680	79.8300
 1.2720	80.1400
 1.2760	80.4100
 1.2800	80.6800
 1.2840	80.9500
 1.2880	81.2300
 1.2920	81.4500
 1.2960	81.6900
 1.3000	82.0000
 1.3040	82.2200
 1.3080	82.4800
 1.3120	82.7500
 1.3160	82.9800
 1.3200	83.2500
 1.3240	83.4300
 1.3280	83.7000
 1.3320	83.9400
 1.3360	84.2100
 1.3400	84.4700
 1.3440	84.7200
 1.3480	84.9700
 1.3520	85.2000
 1.3560	85.4400
 1.3600	85.6800
 1.3640	85.8100
 1.3680	86.0200
 1.3720	86.3100
 1.3760	86.4200
 1.3800	86.6500
 1.3840	86.8800
 1.3880	87.0100
 1.3920	87.0800
 1.3960	87.1800
 1.4000	87.2700
 1.4040	87.4600
 1.4080	87.5400
 1.4120	87.6100
 1.4160	87.6800
 1.4200	87.8500
 1.4240	87.8500
 1.4280	87.9600
 1.4320	88.0800
 1.4360	88.0900
 1.4400	87.9900
 1.4440	87.8900
 1.4480	87.7700
 1.4520	87.5100
 1.4560	87.1600
 1.4600	86.9100
 1.4640	86.5800
 1.4680	86.2600
 1.4720	86.0000
 1.4760	85.9300
 1.4800	86.0100
 1.4840	86.1800
 1.4880	86.4500
 1.4920	86.7500
 1.4960	87.0400
 1.5000	87.2000
 1.5040	87.1800
 1.5080	87.3700
 1.5120	87.3200
 1.5160	87.4200
 1.5200	87.4100
 1.5240	87.3600
 1.5280	87.4200
 1.5320	87.4200
 1.5360	87.4400
 1.5400	87.5500
 1.5440	87.5700
 1.5480	87.6400
 1.5520	87.6800
 1.5560	87.7300
 1.5600	87.7300
 1.5640	87.7800
 1.5680	87.8400
 1.5720	87.8500
 1.5760	87.8500
 1.5800	87.8900
 1.5840	87.9500
 1.5880	87.9700
 1.5920	87.9500
 1.5960	87.9500
 1.6000	87.9400
 1.6040	87.9900
 1.6080	87.9100
 1.6120	87.8600
 1.6160	87.7600
 1.6200	87.6900
 1.6240	87.6800
 1.6280	87.5800
 1.6320	87.5600
 1.6360	87.5200
 1.6400	87.4600
 1.6440	87.4300
 1.6480	87.3700
 1.6520	87.4200
 1.6560	87.4100
 1.6600	87.3400
 1.6640	87.2800
 1.6680	87.3200
 1.6720	87.2700
 1.6760	87.1900
 1.6800	87.1800
 1.6840	87.1200
 1.6880	87.1300
 1.6920	87.0200
 1.6960	86.9400
 1.7000	86.8800
 1.7040	86.8400
 1.7080	86.7200
 1.7120	86.6400
 1.7160	86.5800
 1.7200	86.5000
 1.7240	86.2900
 1.7280	86.1700
 1.7320	86.1300
 1.7360	85.9100
 1.7400	85.8600
 1.7440	85.6800
 1.7480	85.5700
 1.7520	85.4000
 1.7560	85.2700
 1.7600	85.1500
 1.7640	85.0300
 1.7680	84.8900
 1.7720	84.7000
 1.7760	84.6500
 1.7800	84.5000
 1.7840	84.3700
 1.7880	84.3000
 1.7920	84.1600
 1.7960	83.9900
 1.8000	83.9400
 1.8040	83.7800
 1.8080	83.6000
 1.8120	83.4400
 1.8160	83.1900
 1.8200	83.0500
 1.8240	82.7400
 1.8280	82.5000
 1.8320	82.2000
 1.8360	81.8900
 1.8400	81.5500
 1.8440	81.1900
 1.8480	80.9300
 1.8520	80.7500
 1.8560	80.6400
 1.8600	80.6200
 1.8640	80.6700
 1.8680	80.7200
 1.8720	80.9600
 1.8760	81.1600
 1.8800	81.4500
 1.8840	81.6500
 1.8880	81.9000
 1.8920	82.2400
 1.8960	82.4100
 1.9000	82.4800
 1.9040	82.6100
 1.9080	82.7000
 1.9120	82.8000
 1.9160	82.8100
 1.9200	82.7400
 1.9240	82.7900
 1.9280	82.7800
 1.9320	82.7100
 1.9360	82.6100
 1.9400	82.5600
 1.9440	82.6800
 1.9480	82.6900
 1.9520	82.6000
 1.9560	82.6100
 1.9600	82.5800
 1.9640	82.5300
 1.9680	82.5800
 1.9720	82.6000
 1.9760	82.6400
 1.9800	82.6400
 1.9840	82.6900
 1.9880	82.6700
 1.9920	82.6900
 1.9960	82.7600
 2.0000	82.7900
 2.0040	82.6600
 2.0080	82.5800
 2.0120	82.5900
 2.0160	82.6300
 2.0200	82.5800
 2.0240	82.5100
 2.0280	82.5300
 2.0320	82.4000
 2.0360	82.4000
 2.0400	82.3600
 2.0440	82.2900
 2.0480	82.2300
 2.0520	82.1600
 2.0560	82.0800
 2.0600	82.0000
 2.0640	82.0400
 2.0680	81.9800
 2.0720	81.9500
 2.0760	81.9200
 2.0800	81.8700
 2.0840	81.7800
 2.0880	81.7800
 2.0920	81.7000
 2.0960	81.5900
 2.1000	81.5800
 2.1040	81.5500
 2.1080	81.4100
 2.1120	81.3900
 2.1160	81.3400
 2.1200	81.2700
 2.1240	81.1100
 2.1280	80.9500
 2.1320	80.9000
 2.1360	80.6900
 2.1400	80.5000
 2.1440	80.4000
 2.1480	80.1700
 2.1520	79.9900
 2.1560	79.8900
 2.1600	79.6300
 2.1640	79.5200
 2.1680	79.4300
 2.1720	79.1200
 2.1760	78.9200
 2.1800	78.7900
 2.1840	78.5000
 2.1880	78.2500
 2.1920	77.9200
 2.1960	77.7200
 2.2000	77.5100
 2.2040	77.2300
 2.2080	76.9800
 2.2120	76.6300
 2.2160	76.5100
 2.2200	76.2800
 2.2240	75.9000
 2.2280	75.6600
 2.2320	75.3200
 2.2360	74.9300
 2.2400	74.5900
 2.2440	74.2100
 2.2480	73.7300
 2.2520	73.3400
 2.2560	72.9900
 2.2600	72.5100
 2.2640	72.1600
 2.2680	71.8700
 2.2720	71.6000
 2.2760	71.4500
 2.2800	71.4200
 2.2840	71.5000
 2.2880	71.6300
 2.2920	71.9200
 2.2960	72.1800
 2.3000	72.5300
 2.3040	72.6200
 2.3080	73.3400
 2.3120	73.8100
 2.3160	74.2300
 2.3200	74.5900
 2.3240	74.9700
 2.3280	75.2800
 2.3320	75.5700
 2.3360	75.7900
 2.3400	75.7800
 2.3440	75.8800
 2.3480	75.8800
 2.3520	75.8400
 2.3560	75.7100
 2.3600	75.5700
 2.3640	75.3000
 2.3680	75.0600
 2.3720	74.8700
 2.3760	74.6800
 2.3800	74.3700
 2.3840	74.1400
 2.3880	73.8700
 2.3920	73.5400
 2.3960	73.2900
 2.4000	73.0800
 2.4040	72.8500
 2.4080	72.6500
 2.4120	72.4000
 2.4160	72.1700
 2.4200	72.0200
 2.4240	71.7100
 2.4280	71.5600
 2.4320	71.3400
 2.4360	71.1100
 2.4400	70.8600
 2.4440	70.7100
 2.4480	70.4600
 2.4520	70.3800
 2.4560	70.1900
 2.4600	70.0800
 2.4640	70.0100
 2.4680	69.9200
 2.4720	69.7900
 2.4760	69.6600
 2.4800	69.6600
 2.4840	69.7500
 2.4880	69.6700
 2.4920	69.7100
 2.4960	69.6600
 2.5000	69.6800
