Name: Biotite K(Mg,Fe^2+)_3(Al,Fe^3+)Si_3O_10(OH,F)_2
Type: Mineral
Class: Silicate
Subclass: Phyllosilicate
Particle Size: Medium
Sample No.: PS-23A
Owner: JPL
Wavelength Range: VSWIR
Origin: Unknown.
Collection Date: N/A
Description: Particle size was 45-125um.Collected by:  JPL Original ASTER Spectral Library name was jpl.perkin.mineral.silicate.phyllosilicate.medium.ps23a.spectrum.txt
Measurement: Hemispherical reflectance
First Column: X
Second Column: Y
X Units: Wavelength (micrometers)
Y Units:Reflectance (percent)
First X Value:  2.5000
Last X Value:  0.4000
Number of X Values: 2101
Additional Information: mineral.silicate.phyllosilicate.medium.vswir.ps-23a.jpl.perkin.ancillary.txt

 2.5000	51.5897
 2.4990	51.1533
 2.4980	51.3411
 2.4970	51.4960
 2.4960	51.3337
 2.4950	51.2776
 2.4940	51.3169
 2.4930	51.2412
 2.4920	51.2454
 2.4910	51.2170
 2.4900	51.3809
 2.4890	51.1064
 2.4880	51.2581
 2.4870	50.9374
 2.4860	51.1994
 2.4850	51.2262
 2.4840	51.0545
 2.4830	51.1475
 2.4820	51.1864
 2.4810	50.9816
 2.4800	51.0859
 2.4790	50.9241
 2.4780	50.8686
 2.4770	50.8662
 2.4760	51.0591
 2.4750	50.8406
 2.4740	51.0553
 2.4730	50.8703
 2.4720	51.0569
 2.4710	50.7329
 2.4700	51.0189
 2.4690	50.7964
 2.4680	50.9764
 2.4670	50.7450
 2.4660	50.8190
 2.4650	50.8066
 2.4640	50.8635
 2.4630	50.6282
 2.4620	50.6769
 2.4610	50.7103
 2.4600	50.8101
 2.4590	50.8036
 2.4580	50.8432
 2.4570	50.6172
 2.4560	50.5602
 2.4550	50.6230
 2.4540	50.6464
 2.4530	50.6261
 2.4520	50.6263
 2.4510	50.5447
 2.4500	50.6062
 2.4490	50.4081
 2.4480	50.5328
 2.4470	50.4545
 2.4460	50.5681
 2.4450	50.4931
 2.4440	50.4970
 2.4430	50.1456
 2.4420	50.2496
 2.4410	50.1867
 2.4400	50.3836
 2.4390	50.3161
 2.4380	50.2971
 2.4370	50.1599
 2.4360	50.2180
 2.4350	50.1849
 2.4340	50.2475
 2.4330	50.1659
 2.4320	50.1630
 2.4310	50.1509
 2.4300	50.0965
 2.4290	49.9363
 2.4280	50.0292
 2.4270	49.9244
 2.4260	49.9448
 2.4250	49.9025
 2.4240	49.8041
 2.4230	49.7871
 2.4220	49.7734
 2.4210	49.6263
 2.4200	49.5906
 2.4190	49.5926
 2.4180	49.6256
 2.4170	49.4822
 2.4160	49.4909
 2.4150	49.3800
 2.4140	49.3978
 2.4130	49.3153
 2.4120	49.3188
 2.4110	49.2365
 2.4100	49.1950
 2.4090	49.1281
 2.4080	49.1840
 2.4070	49.0883
 2.4060	49.0723
 2.4050	49.0385
 2.4040	49.0045
 2.4030	48.8914
 2.4020	48.8832
 2.4010	48.8396
 2.4000	48.8495
 2.3990	48.7071
 2.3980	48.7601
 2.3970	48.7679
 2.3960	48.7796
 2.3950	48.7519
 2.3940	48.7788
 2.3930	48.6872
 2.3920	48.6644
 2.3910	48.6888
 2.3900	48.7217
 2.3890	48.7006
 2.3880	48.6965
 2.3870	48.6585
 2.3860	48.6929
 2.3850	48.7004
 2.3840	48.7893
 2.3830	48.7759
 2.3820	48.7724
 2.3810	48.7502
 2.3800	48.7978
 2.3790	48.8354
 2.3780	48.8828
 2.3770	48.9050
 2.3760	48.9173
 2.3750	48.9213
 2.3740	48.9118
 2.3730	48.8281
 2.3720	48.8304
 2.3710	48.8690
 2.3700	48.8969
 2.3690	48.8823
 2.3680	48.8688
 2.3670	48.8918
 2.3660	48.9023
 2.3650	48.8555
 2.3640	48.7671
 2.3630	48.7140
 2.3620	48.7434
 2.3610	48.6748
 2.3600	48.6244
 2.3590	48.5641
 2.3580	48.4875
 2.3570	48.4708
 2.3560	48.4864
 2.3550	48.3941
 2.3540	48.3371
 2.3530	48.2661
 2.3520	48.2513
 2.3510	48.2263
 2.3500	48.1685
 2.3490	48.1249
 2.3480	47.9613
 2.3470	47.9154
 2.3460	47.9561
 2.3450	47.8946
 2.3440	47.8427
 2.3430	47.8143
 2.3420	47.7540
 2.3410	47.7143
 2.3400	47.6762
 2.3390	47.6704
 2.3380	47.6161
 2.3370	47.5691
 2.3360	47.5938
 2.3350	47.6590
 2.3340	47.5744
 2.3330	47.5410
 2.3320	47.5677
 2.3310	47.6113
 2.3300	47.6597
 2.3290	47.5790
 2.3280	47.5517
 2.3270	47.6076
 2.3260	47.6208
 2.3250	47.6550
 2.3240	47.6832
 2.3230	47.7589
 2.3220	47.7779
 2.3210	47.8899
 2.3200	47.8815
 2.3190	47.8792
 2.3180	47.9819
 2.3170	48.0865
 2.3160	48.0440
 2.3150	48.1064
 2.3140	48.2189
 2.3130	48.2842
 2.3120	48.2872
 2.3110	48.2931
 2.3100	48.3836
 2.3090	48.5007
 2.3080	48.5179
 2.3070	48.5642
 2.3060	48.5516
 2.3050	48.6049
 2.3040	48.6133
 2.3030	48.7304
 2.3020	48.7449
 2.3010	48.8162
 2.3000	48.7638
 2.2990	48.8305
 2.2980	48.8601
 2.2970	48.9843
 2.2960	48.9990
 2.2950	49.0505
 2.2940	48.9644
 2.2930	48.9565
 2.2920	49.0727
 2.2910	49.1167
 2.2900	49.0211
 2.2890	49.0298
 2.2880	49.0211
 2.2870	49.0780
 2.2860	48.9909
 2.2850	48.9581
 2.2840	49.0208
 2.2830	49.0711
 2.2820	49.1044
 2.2810	48.9723
 2.2800	48.8878
 2.2790	48.9447
 2.2780	48.9549
 2.2770	49.0025
 2.2760	48.8688
 2.2750	48.8334
 2.2740	48.8355
 2.2730	48.8290
 2.2720	48.7926
 2.2710	48.7780
 2.2700	48.7303
 2.2690	48.7243
 2.2680	48.6854
 2.2670	48.6330
 2.2660	48.5121
 2.2650	48.5405
 2.2640	48.4335
 2.2630	48.3819
 2.2620	48.2375
 2.2610	48.3069
 2.2600	48.1530
 2.2590	48.1436
 2.2580	48.0852
 2.2570	48.0988
 2.2560	48.0497
 2.2550	47.9648
 2.2540	47.8435
 2.2530	47.9413
 2.2520	47.8320
 2.2510	47.9029
 2.2500	47.9469
 2.2490	47.9136
 2.2480	47.8242
 2.2470	47.9086
 2.2460	47.9233
 2.2450	48.0305
 2.2440	47.9278
 2.2430	48.0857
 2.2420	48.1546
 2.2410	48.1356
 2.2400	48.0888
 2.2390	48.1431
 2.2380	48.1345
 2.2370	48.1469
 2.2360	48.1201
 2.2350	48.2414
 2.2340	48.2269
 2.2330	48.3347
 2.2320	48.2400
 2.2310	48.3758
 2.2300	48.2422
 2.2290	48.2420
 2.2280	48.2420
 2.2270	48.3225
 2.2260	48.1993
 2.2250	48.2872
 2.2240	48.2089
 2.2230	48.2383
 2.2220	48.2446
 2.2210	48.2215
 2.2200	48.2513
 2.2190	48.2225
 2.2180	48.1655
 2.2170	48.1880
 2.2160	48.1731
 2.2150	48.1656
 2.2140	48.1468
 2.2130	48.1261
 2.2120	48.0561
 2.2110	48.1369
 2.2100	48.1154
 2.2090	48.1106
 2.2080	47.9759
 2.2070	48.1249
 2.2060	47.9895
 2.2050	48.0474
 2.2040	47.9758
 2.2030	48.0457
 2.2020	47.9161
 2.2010	47.9180
 2.2000	47.8624
 2.1990	47.9674
 2.1980	47.8669
 2.1970	47.9448
 2.1960	47.8263
 2.1950	47.8677
 2.1940	47.8317
 2.1930	47.8516
 2.1920	47.7761
 2.1910	47.7460
 2.1900	47.6285
 2.1890	47.6543
 2.1880	47.5553
 2.1870	47.6850
 2.1860	47.7547
 2.1850	47.7877
 2.1840	47.6051
 2.1830	47.5775
 2.1820	47.5814
 2.1810	47.5636
 2.1800	47.5246
 2.1790	47.5430
 2.1780	47.4005
 2.1770	47.5332
 2.1760	47.4912
 2.1750	47.4730
 2.1740	47.4338
 2.1730	47.4963
 2.1720	47.4451
 2.1710	47.3790
 2.1700	47.4029
 2.1690	47.4367
 2.1680	47.3038
 2.1670	47.3620
 2.1660	47.3801
 2.1650	47.3042
 2.1640	47.3068
 2.1630	47.3149
 2.1620	47.3132
 2.1610	47.3015
 2.1600	47.3130
 2.1590	47.2987
 2.1580	47.2111
 2.1570	47.2185
 2.1560	47.1735
 2.1550	47.1707
 2.1540	47.1426
 2.1530	47.1958
 2.1520	47.1073
 2.1510	47.1377
 2.1500	47.0412
 2.1490	47.0497
 2.1480	46.9614
 2.1470	46.9497
 2.1460	46.9060
 2.1450	46.9311
 2.1440	46.8876
 2.1430	46.8822
 2.1420	46.7652
 2.1410	46.7399
 2.1400	46.7783
 2.1390	46.7195
 2.1380	46.6447
 2.1370	46.6107
 2.1360	46.5717
 2.1350	46.4871
 2.1340	46.4398
 2.1330	46.4596
 2.1320	46.4196
 2.1310	46.3516
 2.1300	46.1874
 2.1290	46.2529
 2.1280	46.1731
 2.1270	46.0869
 2.1260	45.9811
 2.1250	46.0081
 2.1240	45.8895
 2.1230	45.8824
 2.1220	45.8007
 2.1210	45.7665
 2.1200	45.7434
 2.1190	45.6540
 2.1180	45.5516
 2.1170	45.4248
 2.1160	45.3493
 2.1150	45.3384
 2.1140	45.3217
 2.1130	45.2146
 2.1120	45.0996
 2.1110	45.0743
 2.1100	45.0067
 2.1090	44.9834
 2.1080	44.9031
 2.1070	44.8690
 2.1060	44.7981
 2.1050	44.8010
 2.1040	44.6648
 2.1030	44.6002
 2.1020	44.5916
 2.1010	44.6006
 2.1000	44.4537
 2.0990	44.4523
 2.0980	44.4290
 2.0970	44.3922
 2.0960	44.4298
 2.0950	44.4211
 2.0940	44.3232
 2.0930	44.2853
 2.0920	44.2307
 2.0910	44.2361
 2.0900	44.2032
 2.0890	44.2196
 2.0880	44.2157
 2.0870	44.1778
 2.0860	44.1487
 2.0850	44.1407
 2.0840	44.0473
 2.0830	44.0579
 2.0820	44.0577
 2.0810	44.0588
 2.0800	43.9665
 2.0790	43.9291
 2.0780	43.9177
 2.0770	43.8499
 2.0760	43.8178
 2.0750	43.7930
 2.0740	43.7586
 2.0730	43.7758
 2.0720	43.7872
 2.0710	43.7320
 2.0700	43.6476
 2.0690	43.6482
 2.0680	43.6233
 2.0670	43.5970
 2.0660	43.5771
 2.0650	43.5062
 2.0640	43.5001
 2.0630	43.4771
 2.0620	43.4564
 2.0610	43.4495
 2.0600	43.3716
 2.0590	43.3017
 2.0580	43.3154
 2.0570	43.3113
 2.0560	43.3237
 2.0550	43.2274
 2.0540	43.1937
 2.0530	43.1731
 2.0520	43.2043
 2.0510	43.1420
 2.0500	43.0742
 2.0490	43.0444
 2.0480	43.0584
 2.0470	43.0108
 2.0460	42.9475
 2.0450	42.9100
 2.0440	42.9256
 2.0430	42.8627
 2.0420	42.8541
 2.0410	42.8279
 2.0400	42.8052
 2.0390	42.8009
 2.0380	42.7435
 2.0370	42.6805
 2.0360	42.6201
 2.0350	42.5773
 2.0340	42.5871
 2.0330	42.5520
 2.0320	42.5658
 2.0310	42.5144
 2.0300	42.4909
 2.0290	42.4210
 2.0280	42.4104
 2.0270	42.3609
 2.0260	42.3239
 2.0250	42.3345
 2.0240	42.2833
 2.0230	42.2407
 2.0220	42.2410
 2.0210	42.2097
 2.0200	42.1408
 2.0190	42.0522
 2.0180	42.0470
 2.0170	41.9827
 2.0160	42.0028
 2.0150	41.9669
 2.0140	41.9622
 2.0130	41.8865
 2.0120	41.8922
 2.0110	41.8019
 2.0100	41.8191
 2.0090	41.7058
 2.0080	41.7498
 2.0070	41.7616
 2.0060	41.7419
 2.0050	41.6661
 2.0040	41.6105
 2.0030	41.5978
 2.0020	41.5502
 2.0010	41.4797
 2.0000	41.5528
 1.9990	41.4994
 1.9980	41.4302
 1.9970	41.3984
 1.9960	41.4254
 1.9950	41.3368
 1.9940	41.3143
 1.9930	41.2315
 1.9920	41.2624
 1.9910	41.1891
 1.9900	41.1598
 1.9890	41.0730
 1.9880	41.0970
 1.9870	41.0264
 1.9860	41.0754
 1.9850	41.0135
 1.9840	40.9681
 1.9830	40.9228
 1.9820	40.9160
 1.9810	40.8471
 1.9800	40.9762
 1.9790	40.7227
 1.9780	40.8101
 1.9770	40.7357
 1.9760	40.6796
 1.9750	40.6752
 1.9740	40.6795
 1.9730	40.6486
 1.9720	40.6466
 1.9710	40.5866
 1.9700	40.5792
 1.9690	40.5092
 1.9680	40.4728
 1.9670	40.4477
 1.9660	40.4850
 1.9650	40.3624
 1.9640	40.4421
 1.9630	40.2792
 1.9620	40.3236
 1.9610	40.2872
 1.9600	40.4091
 1.9590	40.1901
 1.9580	40.2754
 1.9570	40.1039
 1.9560	40.2349
 1.9550	40.0655
 1.9540	40.0888
 1.9530	40.0655
 1.9520	40.0431
 1.9510	39.9831
 1.9500	40.0089
 1.9490	39.9578
 1.9480	40.0104
 1.9470	39.9059
 1.9460	40.0116
 1.9450	39.8020
 1.9440	39.8704
 1.9430	39.8324
 1.9420	39.8479
 1.9410	39.7367
 1.9400	39.8032
 1.9390	39.7650
 1.9380	39.8567
 1.9370	39.5935
 1.9360	39.7687
 1.9350	39.6570
 1.9340	39.7163
 1.9330	39.6178
 1.9320	39.6022
 1.9310	39.5024
 1.9300	39.5836
 1.9290	39.4374
 1.9280	39.4943
 1.9270	39.4503
 1.9260	39.3863
 1.9250	39.4347
 1.9240	39.4636
 1.9230	39.2768
 1.9220	39.4223
 1.9210	39.2150
 1.9200	39.1306
 1.9190	39.1133
 1.9180	39.2367
 1.9170	39.0919
 1.9160	38.9892
 1.9150	38.9544
 1.9140	38.9736
 1.9130	38.8075
 1.9120	39.0295
 1.9110	38.8021
 1.9100	38.8396
 1.9090	38.7639
 1.9080	38.7928
 1.9070	38.6764
 1.9060	38.6915
 1.9050	38.5604
 1.9040	38.6983
 1.9030	38.5605
 1.9020	38.4996
 1.9010	38.4237
 1.9000	38.5000
 1.8990	38.3896
 1.8980	38.3244
 1.8970	38.2191
 1.8960	38.2651
 1.8950	38.1765
 1.8940	38.2019
 1.8930	38.0541
 1.8920	38.1093
 1.8910	38.0264
 1.8900	38.0283
 1.8890	37.9363
 1.8880	37.9536
 1.8870	37.8628
 1.8860	37.8912
 1.8850	37.7468
 1.8840	37.7288
 1.8830	37.7180
 1.8820	37.7457
 1.8810	37.6106
 1.8800	37.6530
 1.8790	37.5599
 1.8780	37.5956
 1.8770	37.4528
 1.8760	37.5967
 1.8750	37.5093
 1.8740	37.6137
 1.8730	37.5509
 1.8720	37.5036
 1.8710	37.4096
 1.8700	37.4066
 1.8690	37.3776
 1.8680	37.3443
 1.8670	37.1376
 1.8660	37.1144
 1.8650	37.0778
 1.8640	37.1018
 1.8630	36.9577
 1.8620	36.9529
 1.8610	36.8373
 1.8600	36.8444
 1.8590	36.8198
 1.8580	36.9132
 1.8570	36.7402
 1.8560	36.7741
 1.8550	36.7515
 1.8540	36.7312
 1.8530	36.6339
 1.8520	36.5933
 1.8510	36.5456
 1.8500	36.6063
 1.8490	36.4809
 1.8480	36.5249
 1.8470	36.4425
 1.8460	36.3962
 1.8450	36.3559
 1.8440	36.2926
 1.8430	36.2325
 1.8420	36.2341
 1.8410	36.2108
 1.8400	36.1867
 1.8390	36.1735
 1.8380	36.1681
 1.8370	36.0788
 1.8360	36.0578
 1.8350	36.0056
 1.8340	35.9956
 1.8330	35.9647
 1.8320	35.9055
 1.8310	35.7819
 1.8300	35.8225
 1.8290	35.8090
 1.8280	35.7647
 1.8270	35.6987
 1.8260	35.6345
 1.8250	35.5696
 1.8240	35.5512
 1.8230	35.5246
 1.8220	35.5213
 1.8210	35.4251
 1.8200	35.4844
 1.8190	35.3952
 1.8180	35.3677
 1.8170	35.2876
 1.8160	35.2826
 1.8150	35.2441
 1.8140	35.2403
 1.8130	35.2011
 1.8120	35.1706
 1.8110	35.0749
 1.8100	35.0019
 1.8090	34.9941
 1.8080	35.0010
 1.8070	34.9358
 1.8060	34.9092
 1.8050	34.8758
 1.8040	34.8729
 1.8030	34.8329
 1.8020	34.8623
 1.8010	34.7625
 1.8000	34.6948
 1.7990	34.7148
 1.7980	34.7344
 1.7970	34.6237
 1.7960	34.5490
 1.7950	34.5053
 1.7940	34.4671
 1.7930	34.4565
 1.7920	34.4405
 1.7910	34.4382
 1.7900	34.4164
 1.7890	34.3855
 1.7880	34.3166
 1.7870	34.2847
 1.7860	34.2773
 1.7850	34.1792
 1.7840	34.1727
 1.7830	34.1643
 1.7820	34.0893
 1.7810	34.0646
 1.7800	34.0346
 1.7790	33.9733
 1.7780	33.9946
 1.7770	33.9413
 1.7760	33.8874
 1.7750	33.9000
 1.7740	33.8556
 1.7730	33.8325
 1.7720	33.8159
 1.7710	33.7999
 1.7700	33.7743
 1.7690	33.7236
 1.7680	33.6639
 1.7670	33.6188
 1.7660	33.5690
 1.7650	33.5921
 1.7640	33.5662
 1.7630	33.5170
 1.7620	33.4722
 1.7610	33.4343
 1.7600	33.3213
 1.7590	33.3460
 1.7580	33.3412
 1.7570	33.3215
 1.7560	33.2863
 1.7550	33.2659
 1.7540	33.2213
 1.7530	33.1770
 1.7520	33.1264
 1.7510	33.1449
 1.7500	33.1121
 1.7490	33.0739
 1.7480	32.9855
 1.7470	32.9641
 1.7460	32.9353
 1.7450	32.9537
 1.7440	32.8955
 1.7430	32.8705
 1.7420	32.7494
 1.7410	32.7978
 1.7400	32.7939
 1.7390	32.7703
 1.7380	32.6965
 1.7370	32.6914
 1.7360	32.6059
 1.7350	32.6100
 1.7340	32.5091
 1.7330	32.5488
 1.7320	32.5414
 1.7310	32.5857
 1.7300	32.4265
 1.7290	32.3830
 1.7280	32.3433
 1.7270	32.3587
 1.7260	32.2463
 1.7250	32.2901
 1.7240	32.2650
 1.7230	32.2593
 1.7220	32.2260
 1.7210	32.1480
 1.7200	32.0711
 1.7190	32.0738
 1.7180	31.9984
 1.7170	32.0589
 1.7160	32.0015
 1.7150	31.9622
 1.7140	31.8349
 1.7130	31.8713
 1.7120	31.7922
 1.7110	31.8424
 1.7100	31.6909
 1.7090	31.7226
 1.7080	31.6041
 1.7070	31.6724
 1.7060	31.5419
 1.7050	31.5566
 1.7040	31.4670
 1.7030	31.4351
 1.7020	31.3808
 1.7010	31.4314
 1.7000	31.2941
 1.6990	31.3426
 1.6980	31.2171
 1.6970	31.2407
 1.6960	31.1675
 1.6950	31.1932
 1.6940	31.0727
 1.6930	31.0812
 1.6920	30.9538
 1.6910	31.0045
 1.6900	30.9217
 1.6890	30.9487
 1.6880	30.9016
 1.6870	30.9310
 1.6860	30.7431
 1.6850	30.8068
 1.6840	30.7354
 1.6830	30.8171
 1.6820	30.6903
 1.6810	30.6344
 1.6800	30.5288
 1.6790	30.5903
 1.6780	30.5638
 1.6770	30.5619
 1.6760	30.4858
 1.6750	30.4472
 1.6740	30.3861
 1.6730	30.3724
 1.6720	30.2122
 1.6710	30.3257
 1.6700	30.2503
 1.6690	30.2208
 1.6680	29.9807
 1.6670	30.2128
 1.6660	29.9896
 1.6650	30.1061
 1.6640	29.9112
 1.6630	29.9567
 1.6620	29.9753
 1.6610	29.8721
 1.6600	29.7857
 1.6590	29.8585
 1.6580	29.8017
 1.6570	29.8307
 1.6560	29.6218
 1.6550	29.7535
 1.6540	29.5443
 1.6530	29.7037
 1.6520	29.5115
 1.6510	29.6090
 1.6500	29.4803
 1.6490	29.5009
 1.6480	29.4329
 1.6470	29.3888
 1.6460	29.3222
 1.6450	29.3081
 1.6440	29.2894
 1.6430	29.3104
 1.6420	29.2017
 1.6410	29.2395
 1.6400	29.1724
 1.6390	29.2189
 1.6380	29.0432
 1.6370	29.0589
 1.6360	28.9645
 1.6350	29.0796
 1.6340	28.9436
 1.6330	28.9624
 1.6320	28.8050
 1.6310	28.8529
 1.6300	28.7957
 1.6290	28.8249
 1.6280	28.6660
 1.6270	28.7948
 1.6260	28.6659
 1.6250	28.7111
 1.6240	28.6737
 1.6230	28.6340
 1.6220	28.5031
 1.6210	28.5673
 1.6200	28.4882
 1.6190	28.5399
 1.6180	28.3618
 1.6170	28.4929
 1.6160	28.3299
 1.6150	28.4509
 1.6140	28.3025
 1.6130	28.3099
 1.6120	28.1668
 1.6110	28.2816
 1.6100	28.1073
 1.6090	28.1880
 1.6080	28.0804
 1.6070	28.1064
 1.6060	28.0379
 1.6050	28.0670
 1.6040	27.9718
 1.6030	27.9620
 1.6020	27.8873
 1.6010	27.9307
 1.6000	27.8033
 1.5990	27.8059
 1.5980	27.7591
 1.5970	27.7975
 1.5960	27.6312
 1.5950	27.6681
 1.5940	27.6190
 1.5930	27.6265
 1.5920	27.5894
 1.5910	27.6035
 1.5900	27.5208
 1.5890	27.4516
 1.5880	27.3980
 1.5870	27.4023
 1.5860	27.3679
 1.5850	27.3700
 1.5840	27.3189
 1.5830	27.3814
 1.5820	27.2800
 1.5810	27.2798
 1.5800	27.1618
 1.5790	27.2248
 1.5780	27.0546
 1.5770	27.1080
 1.5760	27.0553
 1.5750	27.0177
 1.5740	26.9255
 1.5730	26.9302
 1.5720	26.8774
 1.5710	26.9140
 1.5700	26.8260
 1.5690	26.8345
 1.5680	26.8097
 1.5670	26.8162
 1.5660	26.7563
 1.5650	26.7682
 1.5640	26.6086
 1.5630	26.6635
 1.5620	26.6274
 1.5610	26.5992
 1.5600	26.5068
 1.5590	26.5314
 1.5580	26.4992
 1.5570	26.5106
 1.5560	26.3805
 1.5550	26.3562
 1.5540	26.3118
 1.5530	26.3321
 1.5520	26.2324
 1.5510	26.2872
 1.5500	26.1807
 1.5490	26.1975
 1.5480	26.1378
 1.5470	26.1932
 1.5460	26.1142
 1.5450	26.0961
 1.5440	26.0073
 1.5430	26.0064
 1.5420	25.9650
 1.5410	25.9363
 1.5400	25.8816
 1.5390	25.9053
 1.5380	25.8800
 1.5370	25.8509
 1.5360	25.7960
 1.5350	25.7373
 1.5340	25.6891
 1.5330	25.7076
 1.5320	25.6461
 1.5310	25.6641
 1.5300	25.6510
 1.5290	25.6076
 1.5280	25.5423
 1.5270	25.5183
 1.5260	25.4754
 1.5250	25.4639
 1.5240	25.4192
 1.5230	25.3856
 1.5220	25.3281
 1.5210	25.3053
 1.5200	25.2595
 1.5190	25.2295
 1.5180	25.2149
 1.5170	25.1523
 1.5160	25.0600
 1.5150	25.1308
 1.5140	25.1251
 1.5130	25.1206
 1.5120	25.0914
 1.5110	25.0114
 1.5100	24.9430
 1.5090	24.9219
 1.5080	24.9007
 1.5070	24.8998
 1.5060	24.8897
 1.5050	24.8368
 1.5040	24.7576
 1.5030	24.7949
 1.5020	24.7783
 1.5010	24.7065
 1.5000	24.7004
 1.4990	24.6362
 1.4980	24.5848
 1.4970	24.5601
 1.4960	24.5430
 1.4950	24.5101
 1.4940	24.4855
 1.4930	24.4618
 1.4920	24.4365
 1.4910	24.3641
 1.4900	24.3564
 1.4890	24.4129
 1.4880	24.3535
 1.4870	24.2582
 1.4860	24.2868
 1.4850	24.2680
 1.4840	24.1916
 1.4830	24.1086
 1.4820	24.1078
 1.4810	24.0705
 1.4800	24.1050
 1.4790	24.0507
 1.4780	23.9649
 1.4770	23.9552
 1.4760	23.9040
 1.4750	23.8484
 1.4740	23.8806
 1.4730	23.8803
 1.4720	23.8803
 1.4710	23.7893
 1.4700	23.7369
 1.4690	23.6585
 1.4680	23.6719
 1.4670	23.6712
 1.4660	23.6371
 1.4650	23.5825
 1.4640	23.5961
 1.4630	23.5253
 1.4620	23.5033
 1.4610	23.4542
 1.4600	23.4965
 1.4590	23.3758
 1.4580	23.4056
 1.4570	23.3248
 1.4560	23.2780
 1.4550	23.2374
 1.4540	23.2885
 1.4530	23.1927
 1.4520	23.1575
 1.4510	23.0888
 1.4500	23.1327
 1.4490	23.0816
 1.4480	23.0516
 1.4470	23.0109
 1.4460	23.0068
 1.4450	22.9847
 1.4440	22.9726
 1.4430	22.8913
 1.4420	22.8958
 1.4410	22.7894
 1.4400	22.8056
 1.4390	22.7674
 1.4380	22.7847
 1.4370	22.7432
 1.4360	22.7666
 1.4350	22.6616
 1.4340	22.6817
 1.4330	22.5771
 1.4320	22.5812
 1.4310	22.4480
 1.4300	22.5347
 1.4290	22.4175
 1.4280	22.5077
 1.4270	22.4304
 1.4260	22.4586
 1.4250	22.3350
 1.4240	22.3608
 1.4230	22.2852
 1.4220	22.2859
 1.4210	22.1964
 1.4200	22.2566
 1.4190	22.1391
 1.4180	22.1591
 1.4170	22.1229
 1.4160	22.1463
 1.4150	22.0632
 1.4140	22.0333
 1.4130	21.9658
 1.4120	21.9617
 1.4110	21.9084
 1.4100	21.9009
 1.4090	21.7426
 1.4080	21.8033
 1.4070	21.6529
 1.4060	21.7590
 1.4050	21.6014
 1.4040	21.7255
 1.4030	21.6484
 1.4020	21.5956
 1.4010	21.5066
 1.4000	21.4979
 1.3990	21.4500
 1.3980	21.5001
 1.3970	21.4711
 1.3960	21.4425
 1.3950	21.3227
 1.3940	21.3216
 1.3930	21.2283
 1.3920	21.3110
 1.3910	21.1094
 1.3900	21.2381
 1.3890	21.1407
 1.3880	21.2002
 1.3870	21.0692
 1.3860	21.0654
 1.3850	21.1486
 1.3840	21.1159
 1.3830	21.0364
 1.3820	21.0808
 1.3810	20.9587
 1.3800	21.0032
 1.3790	20.8452
 1.3780	20.9975
 1.3770	20.8512
 1.3760	20.9054
 1.3750	20.7534
 1.3740	20.8217
 1.3730	20.7710
 1.3720	20.7993
 1.3710	20.6484
 1.3700	20.7617
 1.3690	20.5553
 1.3680	20.6731
 1.3670	20.5417
 1.3660	20.6067
 1.3650	20.4833
 1.3640	20.5398
 1.3630	20.4324
 1.3620	20.4298
 1.3610	20.3692
 1.3600	20.3851
 1.3590	20.3303
 1.3580	20.4470
 1.3570	20.2784
 1.3560	20.4077
 1.3550	20.0823
 1.3540	20.2798
 1.3530	20.0655
 1.3520	20.1630
 1.3510	20.0641
 1.3500	20.1640
 1.3490	19.9882
 1.3480	20.0408
 1.3470	19.9726
 1.3460	19.9730
 1.3450	19.8104
 1.3440	19.9430
 1.3430	19.7918
 1.3420	19.8613
 1.3410	19.7750
 1.3400	19.8190
 1.3390	19.6455
 1.3380	19.7867
 1.3370	19.6309
 1.3360	19.7031
 1.3350	19.5957
 1.3340	19.6191
 1.3330	19.5869
 1.3320	19.5412
 1.3310	19.4666
 1.3300	19.4858
 1.3290	19.3824
 1.3280	19.4555
 1.3270	19.3377
 1.3260	19.4224
 1.3250	19.3320
 1.3240	19.3890
 1.3230	19.2140
 1.3220	19.2658
 1.3210	19.1278
 1.3200	19.2053
 1.3190	19.1032
 1.3180	19.1608
 1.3170	19.0122
 1.3160	19.1443
 1.3150	19.0782
 1.3140	19.0705
 1.3130	18.9439
 1.3120	18.9721
 1.3110	18.8845
 1.3100	18.9578
 1.3090	18.8923
 1.3080	18.8682
 1.3070	18.7801
 1.3060	18.8497
 1.3050	18.8030
 1.3040	18.7993
 1.3030	18.6637
 1.3020	18.7330
 1.3010	18.6650
 1.3000	18.7131
 1.2990	18.6604
 1.2980	18.5961
 1.2970	18.5585
 1.2960	18.5377
 1.2950	18.5085
 1.2940	18.5127
 1.2930	18.4364
 1.2920	18.4438
 1.2910	18.4027
 1.2900	18.4024
 1.2890	18.3051
 1.2880	18.3111
 1.2870	18.2413
 1.2860	18.2960
 1.2850	18.2366
 1.2840	18.2445
 1.2830	18.1549
 1.2820	18.2136
 1.2810	18.1529
 1.2800	18.1864
 1.2790	18.1016
 1.2780	18.1163
 1.2770	18.0662
 1.2760	18.0339
 1.2750	18.0106
 1.2740	18.0359
 1.2730	17.9520
 1.2720	17.9313
 1.2710	17.9391
 1.2700	17.9305
 1.2690	17.8128
 1.2680	17.8575
 1.2670	17.8162
 1.2660	17.7669
 1.2650	17.7398
 1.2640	17.8215
 1.2630	17.7696
 1.2620	17.7692
 1.2610	17.6913
 1.2600	17.6975
 1.2590	17.5845
 1.2580	17.6192
 1.2570	17.5611
 1.2560	17.5608
 1.2550	17.4930
 1.2540	17.5416
 1.2530	17.5157
 1.2520	17.5271
 1.2510	17.4356
 1.2500	17.5086
 1.2490	17.4308
 1.2480	17.3962
 1.2470	17.3898
 1.2460	17.3361
 1.2450	17.2563
 1.2440	17.3294
 1.2430	17.2877
 1.2420	17.3212
 1.2410	17.2467
 1.2400	17.2185
 1.2390	17.1828
 1.2380	17.2089
 1.2370	17.1970
 1.2360	17.2180
 1.2350	17.1652
 1.2340	17.1732
 1.2330	17.1372
 1.2320	17.1052
 1.2310	17.0271
 1.2300	16.9956
 1.2290	17.0121
 1.2280	17.0057
 1.2270	17.0322
 1.2260	17.0468
 1.2250	16.9550
 1.2240	16.9140
 1.2230	16.8791
 1.2220	16.8705
 1.2210	16.9048
 1.2200	16.9243
 1.2190	16.8411
 1.2180	16.8183
 1.2170	16.8072
 1.2160	16.8071
 1.2150	16.7437
 1.2140	16.7208
 1.2130	16.7485
 1.2120	16.7121
 1.2110	16.7251
 1.2100	16.7190
 1.2090	16.6528
 1.2080	16.5916
 1.2070	16.6210
 1.2060	16.6165
 1.2050	16.5749
 1.2040	16.5656
 1.2030	16.5506
 1.2020	16.5022
 1.2010	16.4780
 1.2000	16.5064
 1.1990	16.5535
 1.1980	16.4793
 1.1970	16.4784
 1.1960	16.4736
 1.1950	16.3887
 1.1940	16.3790
 1.1930	16.4000
 1.1920	16.4182
 1.1910	16.3527
 1.1900	16.3415
 1.1890	16.3458
 1.1880	16.2289
 1.1870	16.3008
 1.1860	16.3028
 1.1850	16.3306
 1.1840	16.2613
 1.1830	16.2682
 1.1820	16.2178
 1.1810	16.2435
 1.1800	16.2334
 1.1790	16.2030
 1.1780	16.1945
 1.1770	16.1734
 1.1760	16.1720
 1.1750	16.1638
 1.1740	16.1189
 1.1730	16.1110
 1.1720	16.0312
 1.1710	16.1022
 1.1700	16.0615
 1.1690	16.1113
 1.1680	16.0353
 1.1670	16.0233
 1.1660	15.9663
 1.1650	16.0417
 1.1640	16.0011
 1.1630	15.9741
 1.1620	15.9707
 1.1610	16.0378
 1.1600	15.9449
 1.1590	15.9757
 1.1580	15.9032
 1.1570	15.8800
 1.1560	15.8140
 1.1550	15.8460
 1.1540	15.9092
 1.1530	15.9252
 1.1520	15.8131
 1.1510	15.8430
 1.1500	15.8733
 1.1490	15.8997
 1.1480	15.8250
 1.1470	15.8241
 1.1460	15.8204
 1.1450	15.8635
 1.1440	15.8102
 1.1430	15.8481
 1.1420	15.7580
 1.1410	15.8279
 1.1400	15.8035
 1.1390	15.8176
 1.1380	15.6977
 1.1370	15.8396
 1.1360	15.6604
 1.1350	15.7316
 1.1340	15.7227
 1.1330	15.7237
 1.1320	15.5968
 1.1310	15.7319
 1.1300	15.6924
 1.1290	15.6660
 1.1280	15.5745
 1.1270	15.7025
 1.1260	15.6434
 1.1250	15.6930
 1.1240	15.6641
 1.1230	15.7401
 1.1220	15.5898
 1.1210	15.6907
 1.1200	15.6254
 1.1190	15.6653
 1.1180	15.6019
 1.1170	15.6660
 1.1160	15.5654
 1.1150	15.6540
 1.1140	15.5380
 1.1130	15.6018
 1.1120	15.5019
 1.1110	15.6048
 1.1100	15.5838
 1.1090	15.6044
 1.1080	15.4693
 1.1070	15.5518
 1.1060	15.4816
 1.1050	15.5574
 1.1040	15.4648
 1.1030	15.6747
 1.1020	15.5267
 1.1010	15.4629
 1.1000	15.5103
 1.0990	15.5837
 1.0980	15.4822
 1.0970	15.5579
 1.0960	15.5307
 1.0950	15.5241
 1.0940	15.4071
 1.0930	15.5500
 1.0920	15.4448
 1.0910	15.5453
 1.0900	15.4746
 1.0890	15.4514
 1.0880	15.4063
 1.0870	15.4939
 1.0860	15.4392
 1.0850	15.4870
 1.0840	15.2735
 1.0830	15.5309
 1.0820	15.3220
 1.0810	15.4859
 1.0800	15.3229
 1.0790	15.3762
 1.0780	15.4100
 1.0770	15.5822
 1.0760	15.3769
 1.0750	15.4497
 1.0740	15.3769
 1.0730	15.4305
 1.0720	15.3019
 1.0710	15.5259
 1.0700	15.2572
 1.0690	15.4017
 1.0680	15.3703
 1.0670	15.4666
 1.0660	15.3003
 1.0650	15.3912
 1.0640	15.3844
 1.0630	15.4035
 1.0620	15.3140
 1.0610	15.4883
 1.0600	15.2970
 1.0590	15.3230
 1.0580	15.1947
 1.0570	15.3720
 1.0560	15.2176
 1.0550	15.3467
 1.0540	15.1613
 1.0530	15.3756
 1.0520	15.2729
 1.0510	15.2837
 1.0500	15.2235
 1.0490	15.3040
 1.0480	15.1954
 1.0470	15.2445
 1.0460	15.1247
 1.0450	15.2790
 1.0440	15.1756
 1.0430	15.2650
 1.0420	15.1910
 1.0410	15.2820
 1.0400	15.1365
 1.0390	15.2075
 1.0380	15.1274
 1.0370	15.2058
 1.0360	15.1320
 1.0350	15.1393
 1.0340	15.1365
 1.0330	15.1938
 1.0320	15.1289
 1.0310	15.1366
 1.0300	15.0423
 1.0290	15.1388
 1.0280	15.0835
 1.0270	15.1202
 1.0260	15.0366
 1.0250	15.0719
 1.0240	15.0094
 1.0230	15.0558
 1.0220	15.0505
 1.0210	15.1014
 1.0200	14.9624
 1.0190	15.0396
 1.0180	14.9926
 1.0170	15.0426
 1.0160	14.9088
 1.0150	14.9631
 1.0140	14.8972
 1.0130	14.9510
 1.0120	14.7911
 1.0110	14.9249
 1.0100	14.8850
 1.0090	14.9017
 1.0080	14.8048
 1.0070	14.8368
 1.0060	14.8391
 1.0050	14.8760
 1.0040	14.7662
 1.0030	14.8176
 1.0020	14.7493
 1.0010	14.8459
 1.0000	14.7213
 0.9990	14.7182
 0.9980	14.6730
 0.9970	14.7572
 0.9960	14.6726
 0.9950	14.7581
 0.9940	14.6628
 0.9930	14.6668
 0.9920	14.6329
 0.9910	14.6049
 0.9900	14.5007
 0.9890	14.5859
 0.9880	14.5837
 0.9870	14.5946
 0.9860	14.4686
 0.9850	14.5881
 0.9840	14.5075
 0.9830	14.4938
 0.9820	14.5086
 0.9810	14.5030
 0.9800	14.4560
 0.9790	14.4411
 0.9780	14.4066
 0.9770	14.3809
 0.9760	14.3287
 0.9750	14.4610
 0.9740	14.4031
 0.9730	14.3781
 0.9720	14.2959
 0.9710	14.3915
 0.9700	14.2933
 0.9690	14.3098
 0.9680	14.2609
 0.9670	14.3029
 0.9660	14.2812
 0.9650	14.2794
 0.9640	14.2153
 0.9630	14.2224
 0.9620	14.1853
 0.9610	14.2145
 0.9600	14.2015
 0.9590	14.2565
 0.9580	14.1848
 0.9570	14.1585
 0.9560	14.1292
 0.9550	14.1707
 0.9540	14.1763
 0.9530	14.1756
 0.9520	14.1042
 0.9510	14.0962
 0.9500	14.0703
 0.9490	14.0485
 0.9480	14.0581
 0.9470	14.0991
 0.9460	14.0055
 0.9450	14.0078
 0.9440	14.0478
 0.9430	14.0364
 0.9420	13.9716
 0.9410	13.9491
 0.9400	13.9571
 0.9390	13.9556
 0.9380	13.9164
 0.9370	14.0126
 0.9360	14.0023
 0.9350	13.9521
 0.9340	13.9560
 0.9330	13.9441
 0.9320	13.8865
 0.9310	13.9091
 0.9300	13.9378
 0.9290	13.9010
 0.9280	13.8994
 0.9270	13.9535
 0.9260	13.9214
 0.9250	13.9022
 0.9240	13.9446
 0.9230	13.8922
 0.9220	13.9267
 0.9210	13.9514
 0.9200	13.9229
 0.9190	13.9042
 0.9180	13.8820
 0.9170	13.8432
 0.9160	13.9175
 0.9150	13.9042
 0.9140	13.8534
 0.9130	13.8286
 0.9120	13.8758
 0.9110	13.9107
 0.9100	13.9592
 0.9090	13.9148
 0.9080	13.8666
 0.9070	13.8558
 0.9060	13.8927
 0.9050	13.9102
 0.9040	13.9338
 0.9030	13.9518
 0.9020	13.9802
 0.9010	13.9482
 0.9000	13.9898
 0.8990	13.9769
 0.8980	13.9776
 0.8970	13.9357
 0.8960	14.0472
 0.8950	13.9568
 0.8940	14.0167
 0.8930	13.9735
 0.8920	14.0055
 0.8910	13.9980
 0.8900	13.9940
 0.8890	13.9857
 0.8880	13.9944
 0.8870	14.0455
 0.8860	14.0691
 0.8850	14.0071
 0.8840	14.0941
 0.8830	14.0618
 0.8820	14.1293
 0.8810	14.0513
 0.8800	14.0931
 0.8790	14.0788
 0.8780	14.1133
 0.8770	14.0675
 0.8760	14.1521
 0.8750	14.0574
 0.8740	14.1107
 0.8730	14.1388
 0.8720	14.1784
 0.8710	14.1510
 0.8700	14.1801
 0.8690	14.1398
 0.8680	14.2102
 0.8670	14.1676
 0.8660	14.2739
 0.8650	14.2155
 0.8640	14.2561
 0.8630	14.1778
 0.8620	14.3186
 0.8610	14.1979
 0.8600	14.7206
 0.8590	14.9007
 0.8580	14.9021
 0.8570	14.8774
 0.8560	14.8860
 0.8550	14.8972
 0.8540	14.8950
 0.8530	14.8891
 0.8520	14.8836
 0.8510	14.8944
 0.8500	14.8926
 0.8490	14.8819
 0.8480	14.8626
 0.8470	14.8495
 0.8460	14.8381
 0.8450	14.8495
 0.8440	14.8317
 0.8430	14.8216
 0.8420	14.8242
 0.8410	14.8259
 0.8400	14.8322
 0.8390	14.8219
 0.8380	14.8055
 0.8370	14.8029
 0.8360	14.7902
 0.8350	14.7781
 0.8340	14.7790
 0.8330	14.7543
 0.8320	14.7511
 0.8310	14.7432
 0.8300	14.7337
 0.8290	14.7098
 0.8280	14.7032
 0.8270	14.6974
 0.8260	14.6702
 0.8250	14.6687
 0.8240	14.6574
 0.8230	14.6392
 0.8220	14.6265
 0.8210	14.6126
 0.8200	14.5985
 0.8190	14.5719
 0.8180	14.5600
 0.8170	14.5455
 0.8160	14.5226
 0.8150	14.5129
 0.8140	14.4996
 0.8130	14.4686
 0.8120	14.4496
 0.8110	14.4371
 0.8100	14.4060
 0.8090	14.3822
 0.8080	14.3634
 0.8070	14.3473
 0.8060	14.3155
 0.8050	14.2886
 0.8040	14.2754
 0.8030	14.2290
 0.8020	14.2250
 0.8010	14.1961
 0.8000	14.1646
 0.7990	14.1411
 0.7980	14.1117
 0.7970	14.0838
 0.7960	14.0518
 0.7950	14.0349
 0.7940	13.9839
 0.7930	13.9712
 0.7920	13.9423
 0.7910	13.9163
 0.7900	13.8844
 0.7890	13.8529
 0.7880	13.8335
 0.7870	13.7930
 0.7860	13.7691
 0.7850	13.7383
 0.7840	13.7209
 0.7830	13.6830
 0.7820	13.6518
 0.7810	13.6411
 0.7800	13.6018
 0.7790	13.5735
 0.7780	13.5536
 0.7770	13.4974
 0.7760	13.4870
 0.7750	13.4463
 0.7740	13.4202
 0.7730	13.3845
 0.7720	13.3568
 0.7710	13.3442
 0.7700	13.3204
 0.7690	13.2922
 0.7680	13.2609
 0.7670	13.2334
 0.7660	13.2095
 0.7650	13.1826
 0.7640	13.1607
 0.7630	13.1300
 0.7620	13.1063
 0.7610	13.0759
 0.7600	13.0518
 0.7590	13.0277
 0.7580	13.0101
 0.7570	12.9836
 0.7560	12.9707
 0.7550	12.9489
 0.7540	12.9300
 0.7530	12.9114
 0.7520	12.8822
 0.7510	12.8523
 0.7500	12.8382
 0.7490	12.8207
 0.7480	12.7995
 0.7470	12.7869
 0.7460	12.7681
 0.7450	12.7532
 0.7440	12.7380
 0.7430	12.7149
 0.7420	12.7013
 0.7410	12.6875
 0.7400	12.6709
 0.7390	12.6537
 0.7380	12.6393
 0.7370	12.6288
 0.7360	12.6100
 0.7350	12.5995
 0.7340	12.5893
 0.7330	12.5790
 0.7320	12.5638
 0.7310	12.5508
 0.7300	12.5429
 0.7290	12.5265
 0.7280	12.5261
 0.7270	12.5136
 0.7260	12.5053
 0.7250	12.4928
 0.7240	12.4900
 0.7230	12.4775
 0.7220	12.4691
 0.7210	12.4655
 0.7200	12.4543
 0.7190	12.4515
 0.7180	12.4469
 0.7170	12.4397
 0.7160	12.4349
 0.7150	12.4254
 0.7140	12.4311
 0.7130	12.4182
 0.7120	12.4153
 0.7110	12.4183
 0.7100	12.4159
 0.7090	12.4085
 0.7080	12.4071
 0.7070	12.4100
 0.7060	12.4100
 0.7050	12.4058
 0.7040	12.3997
 0.7030	12.4035
 0.7020	12.3966
 0.7010	12.3976
 0.7000	12.4043
 0.6990	12.4028
 0.6980	12.4027
 0.6970	12.4022
 0.6960	12.4098
 0.6950	12.4113
 0.6940	12.4085
 0.6930	12.4107
 0.6920	12.4147
 0.6910	12.4155
 0.6900	12.4138
 0.6890	12.4157
 0.6880	12.4191
 0.6870	12.4228
 0.6860	12.4261
 0.6850	12.4306
 0.6840	12.4369
 0.6830	12.4400
 0.6820	12.4426
 0.6810	12.4444
 0.6800	12.4511
 0.6790	12.4575
 0.6780	12.4607
 0.6770	12.4650
 0.6760	12.4677
 0.6750	12.4735
 0.6740	12.4798
 0.6730	12.4863
 0.6720	12.4910
 0.6710	12.4979
 0.6700	12.5062
 0.6690	12.5131
 0.6680	12.5158
 0.6670	12.5233
 0.6660	12.5328
 0.6650	12.5390
 0.6640	12.5437
 0.6630	12.5510
 0.6620	12.5573
 0.6610	12.5629
 0.6600	12.5694
 0.6590	12.5746
 0.6580	12.5777
 0.6570	12.5871
 0.6560	12.5931
 0.6550	12.5969
 0.6540	12.6045
 0.6530	12.6110
 0.6520	12.6174
 0.6510	12.6230
 0.6500	12.6265
 0.6490	12.6294
 0.6480	12.6374
 0.6470	12.6441
 0.6460	12.6485
 0.6450	12.6515
 0.6440	12.6556
 0.6430	12.6612
 0.6420	12.6654
 0.6410	12.6710
 0.6400	12.6756
 0.6390	12.6790
 0.6380	12.6823
 0.6370	12.6845
 0.6360	12.6921
 0.6350	12.6944
 0.6340	12.6959
 0.6330	12.6995
 0.6320	12.7010
 0.6310	12.7056
 0.6300	12.7074
 0.6290	12.7077
 0.6280	12.7138
 0.6270	12.7211
 0.6260	12.7227
 0.6250	12.7237
 0.6240	12.7248
 0.6230	12.7292
 0.6220	12.7315
 0.6210	12.7289
 0.6200	12.7320
 0.6190	12.7348
 0.6180	12.7341
 0.6170	12.7348
 0.6160	12.7355
 0.6150	12.7378
 0.6140	12.7375
 0.6130	12.7375
 0.6120	12.7340
 0.6110	12.7306
 0.6100	12.7288
 0.6090	12.7261
 0.6080	12.7233
 0.6070	12.7218
 0.6060	12.7175
 0.6050	12.7118
 0.6040	12.7090
 0.6030	12.7043
 0.6020	12.6981
 0.6010	12.6897
 0.6000	12.6851
 0.5990	12.6803
 0.5980	12.6737
 0.5970	12.6717
 0.5960	12.6679
 0.5950	12.6583
 0.5940	12.6493
 0.5930	12.6432
 0.5920	12.6369
 0.5910	12.6249
 0.5900	12.6120
 0.5890	12.5994
 0.5880	12.5900
 0.5870	12.5809
 0.5860	12.5712
 0.5850	12.5604
 0.5840	12.5485
 0.5830	12.5361
 0.5820	12.5241
 0.5810	12.5142
 0.5800	12.5013
 0.5790	12.4899
 0.5780	12.4775
 0.5770	12.4605
 0.5760	12.4466
 0.5750	12.4361
 0.5740	12.4230
 0.5730	12.4107
 0.5720	12.3958
 0.5710	12.3817
 0.5700	12.3683
 0.5690	12.3528
 0.5680	12.3367
 0.5670	12.3197
 0.5660	12.3013
 0.5650	12.2864
 0.5640	12.2738
 0.5630	12.2605
 0.5620	12.2439
 0.5610	12.2026
 0.5600	12.1761
 0.5590	12.1592
 0.5580	12.1443
 0.5570	12.1211
 0.5560	12.1032
 0.5550	12.0878
 0.5540	12.0689
 0.5530	12.0483
 0.5520	12.0354
 0.5510	12.0167
 0.5500	11.9977
 0.5490	11.9744
 0.5480	11.9608
 0.5470	11.9400
 0.5460	11.9214
 0.5450	11.9042
 0.5440	11.8884
 0.5430	11.8711
 0.5420	11.8471
 0.5410	11.8261
 0.5400	11.8119
 0.5390	11.7887
 0.5380	11.7688
 0.5370	11.7477
 0.5360	11.7259
 0.5350	11.7068
 0.5340	11.6837
 0.5330	11.6666
 0.5320	11.6423
 0.5310	11.6192
 0.5300	11.5951
 0.5290	11.5715
 0.5280	11.5445
 0.5270	11.5250
 0.5260	11.4933
 0.5250	11.4730
 0.5240	11.4460
 0.5230	11.4177
 0.5220	11.3914
 0.5210	11.3613
 0.5200	11.3300
 0.5190	11.3044
 0.5180	11.2697
 0.5170	11.2448
 0.5160	11.2145
 0.5150	11.1815
 0.5140	11.1504
 0.5130	11.1206
 0.5120	11.0848
 0.5110	11.0557
 0.5100	11.0306
 0.5090	10.9956
 0.5080	10.9616
 0.5070	10.9315
 0.5060	10.8991
 0.5050	10.8696
 0.5040	10.8375
 0.5030	10.8039
 0.5020	10.7677
 0.5010	10.7323
 0.5000	10.6913
 0.4990	10.6561
 0.4980	10.6177
 0.4970	10.5822
 0.4960	10.5362
 0.4950	10.5056
 0.4940	10.4634
 0.4930	10.4289
 0.4920	10.3900
 0.4910	10.3523
 0.4900	10.3132
 0.4890	10.2738
 0.4880	10.2335
 0.4870	10.1982
 0.4860	10.1559
 0.4850	10.1164
 0.4840	10.0711
 0.4830	10.0375
 0.4820	10.0050
 0.4810	 9.9825
 0.4800	 9.9635
 0.4790	 9.9513
 0.4780	 9.9388
 0.4770	 9.9271
 0.4760	 9.9077
 0.4750	 9.8826
 0.4740	 9.8653
 0.4730	 9.8449
 0.4720	 9.8250
 0.4710	 9.8008
 0.4700	 9.7786
 0.4690	 9.7621
 0.4680	 9.7372
 0.4670	 9.7167
 0.4660	 9.7016
 0.4650	 9.6739
 0.4640	 9.6541
 0.4630	 9.6310
 0.4620	 9.6111
 0.4610	 9.5851
 0.4600	 9.5619
 0.4590	 9.5339
 0.4580	 9.5121
 0.4570	 9.4818
 0.4560	 9.4547
 0.4550	 9.4275
 0.4540	 9.3978
 0.4530	 9.3740
 0.4520	 9.3470
 0.4510	 9.3263
 0.4500	 9.2998
 0.4490	 9.2763
 0.4480	 9.2509
 0.4470	 9.2278
 0.4460	 9.2045
 0.4450	 9.1792
 0.4440	 9.1561
 0.4430	 9.1330
 0.4420	 9.1125
 0.4410	 9.0936
 0.4400	 9.0689
 0.4390	 9.0491
 0.4380	 9.0276
 0.4370	 9.0165
 0.4360	 9.0038
 0.4350	 8.9729
 0.4340	 8.9504
 0.4330	 8.9254
 0.4320	 8.9017
 0.4310	 8.8773
 0.4300	 8.8548
 0.4290	 8.8304
 0.4280	 8.8072
 0.4270	 8.7883
 0.4260	 8.7644
 0.4250	 8.7508
 0.4240	 8.7338
 0.4230	 8.7135
 0.4220	 8.7011
 0.4210	 8.6851
 0.4200	 8.6735
 0.4190	 8.6600
 0.4180	 8.6464
 0.4170	 8.6400
 0.4160	 8.6260
 0.4150	 8.6148
 0.4140	 8.6059
 0.4130	 8.5969
 0.4120	 8.5900
 0.4110	 8.5802
 0.4100	 8.5717
 0.4090	 8.5665
 0.4080	 8.5567
 0.4070	 8.5496
 0.4060	 8.5488
 0.4050	 8.5404
 0.4040	 8.5393
 0.4030	 8.5362
 0.4020	 8.5324
 0.4010	 8.5274
 0.4000	 8.5254
