Name: AtacamiteCu_2Cl(OH)_3
Type: Mineral
Class: Halide
Subclass: None
Particle Size: Fine
Sample No.: H-4A
Owner: JPL
Wavelength Range: VSWIR
Origin: Chile, Atacama, Copiapo
Collection Date: N/A
Description: Particle size was 0-45um.Collected by Grieger's Inc. Original ASTER Spectral Library name was jpl.beckman.mineral.halide.none.fine.h04a.spectrum.txt
Measurement: Hemispherical reflectance
First Column: X
Second Column: Y
X Units: Wavelength (micrometers)
Y Units:Reflectance (percent)
First X Value:  0.4000
Last X Value:  2.5000
Number of X Values: 826
Additional Information: mineral.halide.none.fine.vswir.h-4a.jpl.beckman.ancillary.txt

 0.4000	16.6700
 0.4010	17.1200
 0.4020	17.4100
 0.4030	17.5400
 0.4040	17.8600
 0.4050	18.0900
 0.4060	18.4100
 0.4070	18.5300
 0.4080	18.7200
 0.4090	19.1100
 0.4100	19.3600
 0.4110	19.6200
 0.4120	19.8300
 0.4130	20.0900
 0.4140	20.3700
 0.4150	20.6100
 0.4160	20.8100
 0.4170	21.1700
 0.4180	21.3700
 0.4190	21.6800
 0.4200	21.9500
 0.4210	22.1200
 0.4220	22.4500
 0.4230	22.7900
 0.4240	23.0600
 0.4250	23.3300
 0.4260	23.5100
 0.4270	23.8100
 0.4280	24.1200
 0.4290	24.3800
 0.4300	24.6400
 0.4310	24.8600
 0.4320	25.2200
 0.4330	25.4000
 0.4340	25.6200
 0.4350	25.9700
 0.4360	26.2500
 0.4370	26.4700
 0.4380	26.7200
 0.4390	26.9400
 0.4400	27.1600
 0.4410	27.5100
 0.4420	27.6600
 0.4430	27.9000
 0.4440	28.0800
 0.4450	28.3700
 0.4460	28.5600
 0.4470	28.7100
 0.4480	28.9800
 0.4490	29.2300
 0.4500	29.4500
 0.4510	29.5800
 0.4520	29.7600
 0.4530	29.8800
 0.4540	30.1200
 0.4550	30.3200
 0.4560	30.6000
 0.4570	30.6200
 0.4580	30.9100
 0.4590	30.9700
 0.4600	31.0300
 0.4610	31.4600
 0.4620	31.5200
 0.4630	31.6800
 0.4640	31.8600
 0.4650	32.0900
 0.4660	32.2900
 0.4670	32.3800
 0.4680	32.5600
 0.4690	32.7700
 0.4700	32.9200
 0.4710	33.0200
 0.4720	33.2000
 0.4730	33.2400
 0.4740	33.5600
 0.4750	33.5400
 0.4760	33.6900
 0.4770	33.8400
 0.4780	33.9700
 0.4790	34.1300
 0.4800	34.2600
 0.4810	34.3200
 0.4820	34.4800
 0.4830	34.5300
 0.4840	34.5900
 0.4850	34.7500
 0.4860	34.8200
 0.4870	35.0100
 0.4880	34.9900
 0.4890	35.0600
 0.4900	35.1600
 0.4910	35.2400
 0.4920	35.2900
 0.4930	35.4300
 0.4940	35.4800
 0.4950	35.6600
 0.4960	35.7100
 0.4970	35.8000
 0.4980	35.9300
 0.4990	35.8900
 0.5000	36.0400
 0.5010	36.0700
 0.5020	36.0100
 0.5030	36.0400
 0.5040	36.1000
 0.5050	36.1400
 0.5060	36.2900
 0.5070	36.2600
 0.5080	36.3600
 0.5090	36.3600
 0.5100	36.3600
 0.5110	36.4400
 0.5120	36.5700
 0.5130	36.6100
 0.5140	36.5800
 0.5150	36.5500
 0.5160	36.5900
 0.5170	36.5200
 0.5180	36.7100
 0.5190	36.6600
 0.5200	36.6100
 0.5210	36.7100
 0.5220	36.6900
 0.5230	36.5900
 0.5240	36.6600
 0.5250	36.6400
 0.5260	36.6500
 0.5270	36.6400
 0.5280	36.5600
 0.5290	36.6200
 0.5300	36.5500
 0.5310	36.5800
 0.5320	36.4800
 0.5330	36.4000
 0.5340	36.4700
 0.5350	36.2500
 0.5360	36.2400
 0.5370	36.1400
 0.5380	36.2300
 0.5390	36.1200
 0.5400	36.0100
 0.5410	35.9300
 0.5420	35.8800
 0.5430	35.7800
 0.5440	35.6700
 0.5450	35.6300
 0.5460	35.5100
 0.5470	35.5900
 0.5480	35.4400
 0.5490	35.2700
 0.5500	35.1800
 0.5510	35.0800
 0.5520	35.0000
 0.5530	34.8200
 0.5540	34.7100
 0.5550	34.7000
 0.5560	34.4500
 0.5570	34.4400
 0.5580	34.3700
 0.5590	34.1300
 0.5600	34.1900
 0.5610	33.9200
 0.5620	33.8400
 0.5630	33.6000
 0.5640	33.4600
 0.5650	33.3700
 0.5660	33.1300
 0.5670	33.0000
 0.5680	32.7900
 0.5690	32.6700
 0.5700	32.5200
 0.5710	32.2100
 0.5720	31.9600
 0.5730	31.8600
 0.5740	31.6700
 0.5750	31.5400
 0.5760	31.2700
 0.5770	31.1900
 0.5780	30.9100
 0.5790	30.6500
 0.5800	30.4900
 0.5810	30.1900
 0.5820	30.0900
 0.5830	29.8700
 0.5840	29.6100
 0.5850	29.3700
 0.5860	29.1900
 0.5870	29.0700
 0.5880	28.8500
 0.5890	28.6500
 0.5900	28.3900
 0.5910	28.2000
 0.5920	27.9500
 0.5930	27.7900
 0.5940	27.4700
 0.5950	27.3900
 0.5960	27.2500
 0.5970	26.9100
 0.5980	26.7000
 0.5990	26.4400
 0.6000	26.3300
 0.6010	26.1700
 0.6020	25.9600
 0.6030	25.6900
 0.6040	25.5300
 0.6050	25.3400
 0.6060	25.1200
 0.6070	24.7800
 0.6080	24.7400
 0.6090	24.5200
 0.6100	24.2900
 0.6110	24.0900
 0.6120	23.8900
 0.6130	23.7200
 0.6140	23.5900
 0.6150	23.2800
 0.6160	23.0800
 0.6170	22.8200
 0.6180	22.6200
 0.6190	22.5200
 0.6200	22.3200
 0.6210	22.1800
 0.6220	22.0800
 0.6230	21.8600
 0.6240	21.7100
 0.6250	21.3700
 0.6260	21.3100
 0.6270	21.2300
 0.6280	20.9900
 0.6290	20.7500
 0.6300	20.6700
 0.6310	20.5000
 0.6320	20.4300
 0.6330	20.2000
 0.6340	20.1400
 0.6350	19.9000
 0.6360	19.7400
 0.6370	19.6600
 0.6380	19.4700
 0.6390	19.3400
 0.6400	19.2600
 0.6410	19.0700
 0.6420	18.9600
 0.6430	18.7900
 0.6440	18.6900
 0.6450	18.6100
 0.6460	18.4300
 0.6470	18.3200
 0.6480	18.1600
 0.6490	18.0700
 0.6500	18.0500
 0.6510	17.7500
 0.6520	17.7800
 0.6530	17.6900
 0.6540	17.5600
 0.6550	17.3600
 0.6560	17.3800
 0.6570	17.2500
 0.6580	17.1500
 0.6590	17.0300
 0.6600	17.0100
 0.6610	16.9300
 0.6620	16.8000
 0.6630	16.7300
 0.6640	16.6400
 0.6650	16.5600
 0.6660	16.5600
 0.6670	16.4300
 0.6680	16.2800
 0.6690	16.3000
 0.6700	16.1000
 0.6710	16.1300
 0.6720	15.9800
 0.6730	16.0200
 0.6740	15.9800
 0.6750	15.8200
 0.6760	15.8200
 0.6770	15.7400
 0.6780	15.6500
 0.6790	15.7100
 0.6800	15.6100
 0.6810	15.5900
 0.6820	15.6200
 0.6830	15.4500
 0.6840	15.5100
 0.6850	15.5000
 0.6860	15.6400
 0.6870	15.6300
 0.6880	15.6300
 0.6890	15.6000
 0.6900	15.5300
 0.6910	15.5300
 0.6920	15.5100
 0.6930	15.3600
 0.6940	15.1000
 0.6950	15.1300
 0.6960	15.0000
 0.6970	15.0000
 0.6980	14.8900
 0.6990	14.9300
 0.7000	15.0400
 0.7010	14.8800
 0.7020	14.8700
 0.7030	14.7600
 0.7040	14.8000
 0.7050	14.8300
 0.7060	14.7500
 0.7070	14.7400
 0.7080	14.6600
 0.7090	14.7200
 0.7100	14.7600
 0.7110	14.7200
 0.7120	14.7200
 0.7130	14.7000
 0.7140	14.5900
 0.7150	14.6900
 0.7160	14.6700
 0.7170	14.7200
 0.7180	14.7300
 0.7190	14.6900
 0.7200	14.6800
 0.7210	14.6600
 0.7220	14.7700
 0.7230	14.8300
 0.7240	14.7400
 0.7250	14.7300
 0.7260	14.7200
 0.7270	14.7100
 0.7280	14.8200
 0.7290	14.7500
 0.7300	14.8500
 0.7310	14.9400
 0.7320	14.8500
 0.7330	14.9200
 0.7340	14.8400
 0.7350	14.8600
 0.7360	14.9700
 0.7370	14.9500
 0.7380	14.9300
 0.7390	14.8800
 0.7400	15.0400
 0.7410	15.0300
 0.7420	15.0800
 0.7430	15.0900
 0.7440	15.1300
 0.7450	15.1200
 0.7460	15.2100
 0.7470	15.1700
 0.7480	15.1800
 0.7490	15.3300
 0.7500	15.3200
 0.7510	15.3700
 0.7520	15.3000
 0.7530	15.4000
 0.7540	15.4500
 0.7550	15.4300
 0.7560	15.4100
 0.7570	15.4800
 0.7580	15.5100
 0.7590	15.6100
 0.7600	15.5500
 0.7610	15.6400
 0.7620	15.7700
 0.7630	15.7400
 0.7640	15.6500
 0.7650	15.7400
 0.7660	15.7900
 0.7670	15.9300
 0.7680	15.9200
 0.7690	15.9500
 0.7700	15.9500
 0.7710	15.9900
 0.7720	16.1300
 0.7730	16.0700
 0.7740	16.1800
 0.7750	16.2300
 0.7760	16.2200
 0.7770	16.2200
 0.7780	16.2500
 0.7790	16.2600
 0.7800	16.4400
 0.7810	16.4600
 0.7820	16.5000
 0.7830	16.5900
 0.7840	16.5800
 0.7850	16.6400
 0.7860	16.7100
 0.7870	16.7000
 0.7880	16.8700
 0.7890	16.8600
 0.7900	16.8800
 0.7910	16.9900
 0.7920	17.0200
 0.7930	17.1500
 0.7940	17.1100
 0.7950	17.2600
 0.7960	17.4100
 0.7970	17.2900
 0.7980	17.4100
 0.7990	17.4200
 0.8000	18.0000
 0.8040	18.1800
 0.8080	18.4500
 0.8120	18.5500
 0.8160	18.6900
 0.8200	18.9400
 0.8240	19.0700
 0.8280	19.3000
 0.8320	19.5100
 0.8360	19.6400
 0.8400	19.8700
 0.8440	20.0000
 0.8480	20.2600
 0.8520	20.5200
 0.8560	20.7200
 0.8600	20.9000
 0.8640	21.1000
 0.8680	21.3200
 0.8720	21.6200
 0.8760	21.9100
 0.8800	22.0800
 0.8840	22.3400
 0.8880	22.5800
 0.8920	22.7600
 0.8960	23.1400
 0.9000	23.4500
 0.9040	23.7200
 0.9080	24.0200
 0.9120	24.2600
 0.9160	24.6300
 0.9200	24.9600
 0.9240	25.3300
 0.9280	25.7300
 0.9320	26.0500
 0.9360	26.4800
 0.9400	26.8300
 0.9440	27.2800
 0.9480	27.5900
 0.9520	28.0700
 0.9560	28.4500
 0.9600	28.9500
 0.9640	29.2800
 0.9680	29.7600
 0.9720	30.1200
 0.9760	30.5800
 0.9800	30.9600
 0.9840	31.3400
 0.9880	31.8600
 0.9920	32.2800
 0.9960	32.6800
 1.0000	32.9100
 1.0040	33.5400
 1.0080	33.9300
 1.0120	34.3400
 1.0160	34.8000
 1.0200	35.2700
 1.0240	35.5700
 1.0280	36.0000
 1.0320	36.3900
 1.0360	36.7700
 1.0400	37.1700
 1.0440	37.5600
 1.0480	37.9300
 1.0520	38.2300
 1.0560	38.6000
 1.0600	39.0000
 1.0640	39.3400
 1.0680	39.6200
 1.0720	39.9000
 1.0760	40.2800
 1.0800	40.5700
 1.0840	40.9400
 1.0880	41.3600
 1.0920	41.5500
 1.0960	41.8200
 1.1000	42.1700
 1.1040	42.4900
 1.1080	42.8200
 1.1120	43.0600
 1.1160	43.3700
 1.1200	43.7100
 1.1240	43.9300
 1.1280	44.2200
 1.1320	44.5000
 1.1360	44.7500
 1.1400	44.9100
 1.1440	45.1900
 1.1480	45.4900
 1.1520	45.7700
 1.1560	46.0100
 1.1600	46.2100
 1.1640	46.4800
 1.1680	46.7300
 1.1720	47.0600
 1.1760	47.3500
 1.1800	47.5400
 1.1840	47.7600
 1.1880	48.0700
 1.1920	48.3700
 1.1960	48.5700
 1.2000	48.8300
 1.2040	49.0300
 1.2080	49.3500
 1.2120	49.5200
 1.2160	49.8100
 1.2200	50.0800
 1.2240	50.2700
 1.2280	50.5700
 1.2320	50.8100
 1.2360	50.9700
 1.2400	51.2200
 1.2440	51.5300
 1.2480	51.7000
 1.2520	51.9700
 1.2560	52.2000
 1.2600	52.4000
 1.2640	52.6300
 1.2680	52.9300
 1.2720	53.0800
 1.2760	53.4000
 1.2800	53.6500
 1.2840	53.8100
 1.2880	54.1000
 1.2920	54.2300
 1.2960	54.4500
 1.3000	54.6400
 1.3040	54.8600
 1.3080	55.1000
 1.3120	55.2700
 1.3160	55.4600
 1.3200	55.7500
 1.3240	55.9200
 1.3280	56.0700
 1.3320	56.2000
 1.3360	56.4300
 1.3400	56.5200
 1.3440	56.7800
 1.3480	56.9100
 1.3520	57.1400
 1.3560	57.3100
 1.3600	57.4200
 1.3640	57.5300
 1.3680	57.5100
 1.3720	57.5200
 1.3760	57.4600
 1.3800	57.3500
 1.3840	57.2200
 1.3880	57.1100
 1.3920	56.7200
 1.3960	56.0900
 1.4000	55.2900
 1.4040	54.3200
 1.4080	53.6800
 1.4120	53.8600
 1.4160	54.6300
 1.4200	55.2800
 1.4240	55.8800
 1.4280	56.2600
 1.4320	56.6000
 1.4360	56.8700
 1.4400	57.1600
 1.4440	57.1700
 1.4480	57.2200
 1.4520	57.3700
 1.4560	57.3300
 1.4600	56.6100
 1.4640	56.3200
 1.4680	56.9200
 1.4720	58.0800
 1.4760	58.9500
 1.4800	59.3200
 1.4840	59.2100
 1.4880	59.3100
 1.4920	59.8500
 1.4960	60.5000
 1.5000	60.8200
 1.5040	61.2400
 1.5080	61.6200
 1.5120	62.1800
 1.5160	62.4700
 1.5200	62.7300
 1.5240	63.0000
 1.5280	63.2500
 1.5320	63.6000
 1.5360	63.8600
 1.5400	64.1500
 1.5440	64.1700
 1.5480	64.0500
 1.5520	63.9000
 1.5560	64.0500
 1.5600	64.7300
 1.5640	65.3600
 1.5680	65.8300
 1.5720	66.0200
 1.5760	66.3200
 1.5800	66.4000
 1.5840	66.4600
 1.5880	66.7100
 1.5920	66.8300
 1.5960	67.1000
 1.6000	67.3400
 1.6040	67.6400
 1.6080	67.8300
 1.6120	68.0600
 1.6160	68.2500
 1.6200	68.3700
 1.6240	68.4600
 1.6280	68.7300
 1.6320	68.7700
 1.6360	68.9900
 1.6400	69.2200
 1.6440	69.2900
 1.6480	69.3600
 1.6520	69.5700
 1.6560	69.6900
 1.6600	69.9100
 1.6640	70.0000
 1.6680	70.0600
 1.6720	70.2500
 1.6760	70.3400
 1.6800	70.5000
 1.6840	70.4800
 1.6880	70.6000
 1.6920	70.7000
 1.6960	70.7900
 1.7000	70.9800
 1.7040	71.0700
 1.7080	71.0200
 1.7120	71.2100
 1.7160	71.1900
 1.7200	71.3000
 1.7240	71.3100
 1.7280	71.4300
 1.7320	71.4400
 1.7360	71.4600
 1.7400	71.5500
 1.7440	71.5500
 1.7480	71.6500
 1.7520	71.5500
 1.7560	71.6100
 1.7600	71.5400
 1.7640	71.5500
 1.7680	71.5800
 1.7720	71.5100
 1.7760	71.5200
 1.7800	71.5200
 1.7840	71.6400
 1.7880	71.6800
 1.7920	71.6500
 1.7960	71.6800
 1.8000	71.7100
 1.8040	71.7900
 1.8080	71.8400
 1.8120	71.8800
 1.8160	71.9300
 1.8200	71.9300
 1.8240	71.8200
 1.8280	71.7200
 1.8320	71.5500
 1.8360	71.1000
 1.8400	70.4700
 1.8440	69.6800
 1.8480	69.0000
 1.8520	68.5700
 1.8560	68.4800
 1.8600	68.1500
 1.8640	67.4100
 1.8680	66.1800
 1.8720	64.5700
 1.8760	62.7700
 1.8800	60.7600
 1.8840	58.6600
 1.8880	56.4900
 1.8920	54.2900
 1.8960	52.3900
 1.9000	50.8400
 1.9040	49.8300
 1.9080	49.2800
 1.9120	49.1900
 1.9160	49.3900
 1.9200	49.7400
 1.9240	49.9700
 1.9280	50.3500
 1.9320	50.6200
 1.9360	50.8800
 1.9400	51.2900
 1.9440	51.6400
 1.9480	51.9300
 1.9520	52.2500
 1.9560	52.5700
 1.9600	52.9700
 1.9640	53.1800
 1.9680	53.3400
 1.9720	53.4600
 1.9760	53.4200
 1.9800	53.5400
 1.9840	53.9500
 1.9880	54.5200
 1.9920	55.4100
 1.9960	56.5000
 2.0000	57.7300
 2.0040	58.7700
 2.0080	59.7700
 2.0120	60.5600
 2.0160	61.3700
 2.0200	61.8700
 2.0240	62.3900
 2.0280	62.9100
 2.0320	63.4500
 2.0360	63.8800
 2.0400	64.3600
 2.0440	64.6300
 2.0480	65.0300
 2.0520	65.3100
 2.0560	65.6100
 2.0600	65.8200
 2.0640	65.9900
 2.0680	66.2600
 2.0720	66.4400
 2.0760	66.5500
 2.0800	66.6800
 2.0840	66.7800
 2.0880	66.8000
 2.0920	66.8300
 2.0960	66.9300
 2.1000	66.9700
 2.1040	67.1500
 2.1080	67.2000
 2.1120	67.3000
 2.1160	67.2800
 2.1200	67.1500
 2.1240	66.8800
 2.1280	66.5700
 2.1320	66.0000
 2.1360	65.0900
 2.1400	64.1100
 2.1440	63.0300
 2.1480	62.2200
 2.1520	61.6500
 2.1560	61.4300
 2.1600	61.7100
 2.1640	62.2200
 2.1680	62.8500
 2.1720	63.2600
 2.1760	63.5500
 2.1800	63.6100
 2.1840	63.4800
 2.1880	63.3100
 2.1920	63.1200
 2.1960	62.8800
 2.2000	62.7400
 2.2040	62.4600
 2.2080	62.3400
 2.2120	62.1900
 2.2160	61.9700
 2.2200	61.7100
 2.2240	61.1500
 2.2280	60.4900
 2.2320	59.7500
 2.2360	58.7700
 2.2400	58.0300
 2.2440	57.3300
 2.2480	56.8000
 2.2520	56.5000
 2.2560	56.2100
 2.2600	56.1800
 2.2640	56.3100
 2.2680	56.3800
 2.2720	56.4800
 2.2760	56.6100
 2.2800	56.7900
 2.2840	56.8600
 2.2880	56.9900
 2.2920	57.0400
 2.2960	56.9600
 2.3000	56.8900
 2.3040	56.7700
 2.3080	56.2700
 2.3120	55.9600
 2.3160	55.5700
 2.3200	55.0900
 2.3240	54.5300
 2.3280	54.0700
 2.3320	53.8000
 2.3360	53.5900
 2.3400	53.5400
 2.3440	53.5600
 2.3480	53.6500
 2.3520	53.6600
 2.3560	53.4800
 2.3600	53.4200
 2.3640	53.1800
 2.3680	52.9700
 2.3720	52.8300
 2.3760	52.6600
 2.3800	52.5400
 2.3840	52.3600
 2.3880	52.2700
 2.3920	52.1300
 2.3960	52.0300
 2.4000	52.1400
 2.4040	52.0200
 2.4080	51.9000
 2.4120	51.9200
 2.4160	51.7600
 2.4200	51.6700
 2.4240	51.4800
 2.4280	50.9900
 2.4320	50.4400
 2.4360	49.8000
 2.4400	48.9300
 2.4440	47.9100
 2.4480	47.0800
 2.4520	46.1400
 2.4560	45.2800
 2.4600	44.6500
 2.4640	44.2500
 2.4680	44.1100
 2.4720	44.2200
 2.4760	44.3800
 2.4800	44.6200
 2.4840	44.9200
 2.4880	45.2300
 2.4920	45.4700
 2.4960	45.6300
 2.5000	45.5100
