Name: Montmorillonite (Na,Ca)_0.33(Al,Mg)_2Si_4O_10(OH)_2.H_2O
Type: Mineral
Class: Silicate
Subclass: Phyllosilicate
Particle Size: Fine
Sample No.: PS-2B
Owner: JPL
Wavelength Range: VSWIR
Origin: USA, Texas, Gonzales County
Collection Date: N/A
Description: Particle size was 0-45um.Collected by Clay Mineral Society Original ASTER Spectral Library name was jpl.beckman.mineral.silicate.phyllosilicate.fine.ps02b.spectrum.txt
Measurement: Hemispherical reflectance
First Column: X
Second Column: Y
X Units: Wavelength (micrometers)
Y Units:Reflectance (percent)
First X Value:  0.4000
Last X Value:  2.5000
Number of X Values: 826
Additional Information: mineral.silicate.phyllosilicate.fine.vswir.ps-2b.jpl.beckman.ancillary.txt

 0.4000	74.4500
 0.4010	74.9000
 0.4020	74.9600
 0.4030	75.2100
 0.4040	75.2800
 0.4050	75.4300
 0.4060	75.6500
 0.4070	75.7100
 0.4080	76.0200
 0.4090	76.0800
 0.4100	76.1200
 0.4110	76.3400
 0.4120	76.4000
 0.4130	76.6500
 0.4140	76.7200
 0.4150	76.8800
 0.4160	77.0400
 0.4170	77.1600
 0.4180	77.3400
 0.4190	77.4300
 0.4200	77.5600
 0.4210	77.7800
 0.4220	77.8400
 0.4230	78.0400
 0.4240	78.3000
 0.4250	78.3200
 0.4260	78.4700
 0.4270	78.6600
 0.4280	78.7300
 0.4290	78.9800
 0.4300	79.1100
 0.4310	79.2500
 0.4320	79.3200
 0.4330	79.4700
 0.4340	79.6200
 0.4350	79.5200
 0.4360	79.8300
 0.4370	79.9500
 0.4380	80.0700
 0.4390	80.3200
 0.4400	80.3900
 0.4410	80.5800
 0.4420	80.6700
 0.4430	80.8500
 0.4440	80.8900
 0.4450	81.0300
 0.4460	81.2000
 0.4470	81.3700
 0.4480	81.3600
 0.4490	81.5300
 0.4500	81.6300
 0.4510	81.7600
 0.4520	81.8000
 0.4530	81.8400
 0.4540	81.8700
 0.4550	82.0300
 0.4560	81.9500
 0.4570	82.0400
 0.4580	82.1400
 0.4590	82.2800
 0.4600	82.2300
 0.4610	82.1600
 0.4620	82.2700
 0.4630	82.2800
 0.4640	82.3900
 0.4650	82.4600
 0.4660	82.5700
 0.4670	82.5100
 0.4680	82.6000
 0.4690	82.7100
 0.4700	82.8400
 0.4710	82.7900
 0.4720	82.7900
 0.4730	82.8200
 0.4740	82.9900
 0.4750	83.0200
 0.4760	83.0200
 0.4770	83.1000
 0.4780	83.1800
 0.4790	83.2300
 0.4800	83.2200
 0.4810	83.2600
 0.4820	83.3400
 0.4830	83.3100
 0.4840	83.3700
 0.4850	83.4300
 0.4860	83.4500
 0.4870	83.4600
 0.4880	83.4900
 0.4890	83.4900
 0.4900	83.6600
 0.4910	83.6300
 0.4920	83.7100
 0.4930	83.7500
 0.4940	83.8200
 0.4950	83.9500
 0.4960	83.9700
 0.4970	84.0300
 0.4980	84.0500
 0.4990	84.2400
 0.5000	84.2500
 0.5010	84.2600
 0.5020	84.4400
 0.5030	84.4600
 0.5040	84.5100
 0.5050	84.4600
 0.5060	84.5700
 0.5070	84.6900
 0.5080	84.6800
 0.5090	84.7300
 0.5100	85.0200
 0.5110	85.0200
 0.5120	85.0200
 0.5130	85.0800
 0.5140	85.1500
 0.5150	85.3300
 0.5160	85.4000
 0.5170	85.4400
 0.5180	85.3300
 0.5190	85.4000
 0.5200	85.6700
 0.5210	85.6800
 0.5220	85.8100
 0.5230	85.7600
 0.5240	85.8300
 0.5250	85.9500
 0.5260	85.9600
 0.5270	85.9600
 0.5280	86.0300
 0.5290	86.2300
 0.5300	86.2800
 0.5310	86.1700
 0.5320	86.2900
 0.5330	86.3700
 0.5340	86.3700
 0.5350	86.4900
 0.5360	86.4700
 0.5370	86.4200
 0.5380	86.6500
 0.5390	86.7000
 0.5400	86.8100
 0.5410	86.7500
 0.5420	86.7100
 0.5430	86.8300
 0.5440	86.9000
 0.5450	87.0300
 0.5460	86.9800
 0.5470	87.0600
 0.5480	87.1300
 0.5490	87.2000
 0.5500	87.2700
 0.5510	87.3900
 0.5520	87.4000
 0.5530	87.5900
 0.5540	87.6700
 0.5550	87.6700
 0.5560	87.6500
 0.5570	87.5300
 0.5580	87.6700
 0.5590	87.7000
 0.5600	87.7400
 0.5610	88.3300
 0.5620	88.2100
 0.5630	88.2800
 0.5640	88.4600
 0.5650	88.4000
 0.5660	88.4500
 0.5670	88.3900
 0.5680	88.4400
 0.5690	88.6100
 0.5700	88.4900
 0.5710	88.5000
 0.5720	88.3900
 0.5730	88.4900
 0.5740	88.5600
 0.5750	88.5200
 0.5760	88.5500
 0.5770	88.4700
 0.5780	88.4600
 0.5790	88.6600
 0.5800	88.6100
 0.5810	88.6600
 0.5820	88.6000
 0.5830	88.5500
 0.5840	88.7300
 0.5850	88.7300
 0.5860	88.7900
 0.5870	88.7800
 0.5880	88.6600
 0.5890	88.9600
 0.5900	88.8400
 0.5910	88.9600
 0.5920	88.9600
 0.5930	88.8900
 0.5940	88.9500
 0.5950	89.0200
 0.5960	89.1400
 0.5970	89.0900
 0.5980	89.0400
 0.5990	89.3000
 0.6000	89.2100
 0.6010	89.3100
 0.6020	89.3900
 0.6030	89.3500
 0.6040	89.4700
 0.6050	89.4200
 0.6060	89.4900
 0.6070	89.6100
 0.6080	89.4900
 0.6090	89.5000
 0.6100	89.4500
 0.6110	89.5100
 0.6120	89.5600
 0.6130	89.5000
 0.6140	89.6800
 0.6150	89.5600
 0.6160	89.5700
 0.6170	89.5000
 0.6180	89.4500
 0.6190	89.5600
 0.6200	89.5500
 0.6210	89.5600
 0.6220	89.6300
 0.6230	89.5600
 0.6240	89.6800
 0.6250	89.7400
 0.6260	89.6200
 0.6270	89.6900
 0.6280	89.6800
 0.6290	89.6800
 0.6300	89.8400
 0.6310	89.7200
 0.6320	89.7300
 0.6330	89.7300
 0.6340	89.7300
 0.6350	89.9100
 0.6360	89.8000
 0.6370	89.8400
 0.6380	89.8000
 0.6390	89.8000
 0.6400	89.8500
 0.6410	89.8500
 0.6420	89.9600
 0.6430	89.9500
 0.6440	89.9000
 0.6450	90.0800
 0.6460	90.0300
 0.6470	90.0400
 0.6480	90.2000
 0.6490	90.0300
 0.6500	90.0800
 0.6510	90.0900
 0.6520	90.1500
 0.6530	90.2000
 0.6540	90.2000
 0.6550	90.3000
 0.6560	90.1900
 0.6570	90.2900
 0.6580	90.3000
 0.6590	90.2600
 0.6600	90.2000
 0.6610	90.2000
 0.6620	90.2600
 0.6630	90.4700
 0.6640	90.4800
 0.6650	90.4300
 0.6660	90.4800
 0.6670	90.3100
 0.6680	90.3500
 0.6690	90.3500
 0.6700	90.4700
 0.6710	90.5300
 0.6720	90.4800
 0.6730	90.4800
 0.6740	90.4700
 0.6750	90.5900
 0.6760	90.7100
 0.6770	90.6600
 0.6780	90.6600
 0.6790	90.7100
 0.6800	90.7600
 0.6810	90.8200
 0.6820	90.7600
 0.6830	90.8200
 0.6840	90.7700
 0.6850	90.7800
 0.6860	90.8900
 0.6870	90.8900
 0.6880	91.0000
 0.6890	90.8300
 0.6900	90.8900
 0.6910	91.0600
 0.6920	91.0000
 0.6930	91.0500
 0.6940	91.0500
 0.6950	91.0500
 0.6960	91.1200
 0.6970	91.1100
 0.6980	91.2200
 0.6990	91.2000
 0.7000	91.0000
 0.7010	91.0100
 0.7020	91.1700
 0.7030	91.2400
 0.7040	91.1300
 0.7050	91.3000
 0.7060	91.2900
 0.7070	91.2400
 0.7080	91.2400
 0.7090	91.3000
 0.7100	91.4200
 0.7110	91.3500
 0.7120	91.2900
 0.7130	91.4000
 0.7140	91.4600
 0.7150	91.3500
 0.7160	91.4700
 0.7170	91.3600
 0.7180	91.5300
 0.7190	91.4700
 0.7200	91.4200
 0.7210	91.5300
 0.7220	91.4700
 0.7230	91.5200
 0.7240	91.4700
 0.7250	91.5300
 0.7260	91.6500
 0.7270	91.4800
 0.7280	91.5900
 0.7290	91.5900
 0.7300	91.5300
 0.7310	91.5300
 0.7320	91.4100
 0.7330	91.5800
 0.7340	91.5200
 0.7350	91.5300
 0.7360	91.4700
 0.7370	91.3500
 0.7380	91.4700
 0.7390	91.5800
 0.7400	91.4700
 0.7410	91.4700
 0.7420	91.4700
 0.7430	91.5300
 0.7440	91.5900
 0.7450	91.5900
 0.7460	91.5900
 0.7470	91.6500
 0.7480	91.5900
 0.7490	91.6500
 0.7500	91.5900
 0.7510	91.5900
 0.7520	91.5800
 0.7530	91.5200
 0.7540	91.5900
 0.7550	91.5300
 0.7560	91.7000
 0.7570	91.7000
 0.7580	91.5300
 0.7590	91.7100
 0.7600	91.6400
 0.7610	91.7600
 0.7620	91.7600
 0.7630	91.7600
 0.7640	91.7700
 0.7650	91.6500
 0.7660	91.7600
 0.7670	91.6500
 0.7680	91.5300
 0.7690	91.5900
 0.7700	91.5300
 0.7710	91.7600
 0.7720	91.8200
 0.7730	91.6500
 0.7740	91.6500
 0.7750	91.5300
 0.7760	91.7000
 0.7770	91.6500
 0.7780	91.5900
 0.7790	91.6400
 0.7800	91.5900
 0.7810	91.7100
 0.7820	91.7700
 0.7830	91.5400
 0.7840	91.5900
 0.7850	91.6000
 0.7860	91.7100
 0.7870	91.7100
 0.7880	91.5900
 0.7890	91.6400
 0.7900	91.5900
 0.7910	91.6000
 0.7920	91.6000
 0.7930	91.5900
 0.7940	91.6500
 0.7950	91.5900
 0.7960	91.5900
 0.7970	91.5800
 0.7980	91.5200
 0.7990	91.5100
 0.8000	91.6200
 0.8040	91.6200
 0.8080	91.6200
 0.8120	91.5700
 0.8160	91.5600
 0.8200	91.4400
 0.8240	91.4500
 0.8280	91.3900
 0.8320	91.3800
 0.8360	91.3200
 0.8400	91.3300
 0.8440	91.3200
 0.8480	91.3200
 0.8520	91.3200
 0.8560	91.2600
 0.8600	91.3100
 0.8640	91.3800
 0.8680	91.3700
 0.8720	91.3700
 0.8760	91.2500
 0.8800	91.2500
 0.8840	91.2500
 0.8880	91.2500
 0.8920	91.1900
 0.8960	91.2000
 0.9000	91.1300
 0.9040	91.1300
 0.9080	91.0800
 0.9120	91.0100
 0.9160	91.0100
 0.9200	90.8900
 0.9240	90.9000
 0.9280	90.9000
 0.9320	90.8300
 0.9360	90.7100
 0.9400	90.5900
 0.9440	90.3500
 0.9480	90.0600
 0.9520	89.9400
 0.9560	89.7000
 0.9600	89.6500
 0.9640	89.7000
 0.9680	89.9500
 0.9720	90.1300
 0.9760	90.3500
 0.9800	90.4100
 0.9840	90.6000
 0.9880	90.6500
 0.9920	90.8400
 0.9960	90.9200
 1.0000	90.8600
 1.0040	91.0600
 1.0080	91.0700
 1.0120	91.1400
 1.0160	91.2000
 1.0200	91.1900
 1.0240	91.1900
 1.0280	91.3000
 1.0320	91.3100
 1.0360	91.4300
 1.0400	91.4300
 1.0440	91.4300
 1.0480	91.4900
 1.0520	91.3700
 1.0560	91.3700
 1.0600	91.4300
 1.0640	91.4400
 1.0680	91.5100
 1.0720	91.5800
 1.0760	91.5300
 1.0800	91.5400
 1.0840	91.5000
 1.0880	91.5000
 1.0920	91.5100
 1.0960	91.5100
 1.1000	91.5000
 1.1040	91.5700
 1.1080	91.5700
 1.1120	91.5100
 1.1160	91.5000
 1.1200	91.4800
 1.1240	91.4200
 1.1280	91.3000
 1.1320	91.0500
 1.1360	90.6500
 1.1400	90.1700
 1.1440	89.6700
 1.1480	89.2400
 1.1520	89.1200
 1.1560	89.2700
 1.1600	89.5000
 1.1640	89.7400
 1.1680	89.9100
 1.1720	90.0900
 1.1760	90.0800
 1.1800	90.1200
 1.1840	90.1200
 1.1880	90.0500
 1.1920	90.1000
 1.1960	90.2800
 1.2000	90.3300
 1.2040	90.3900
 1.2080	90.3000
 1.2120	90.4000
 1.2160	90.3400
 1.2200	90.4200
 1.2240	90.4800
 1.2280	90.5400
 1.2320	90.4900
 1.2360	90.4400
 1.2400	90.3900
 1.2440	90.3400
 1.2480	90.3500
 1.2520	90.4100
 1.2560	90.4600
 1.2600	90.5200
 1.2640	90.5300
 1.2680	90.4700
 1.2720	90.4000
 1.2760	90.3300
 1.2800	90.1400
 1.2840	89.9600
 1.2880	89.9000
 1.2920	89.6200
 1.2960	89.5000
 1.3000	89.2600
 1.3040	89.0600
 1.3080	88.7100
 1.3120	88.5300
 1.3160	88.3500
 1.3200	87.9500
 1.3240	87.6100
 1.3280	87.3100
 1.3320	87.0300
 1.3360	86.5900
 1.3400	86.3100
 1.3440	85.9800
 1.3480	85.6600
 1.3520	85.3400
 1.3560	84.9900
 1.3600	84.4100
 1.3640	83.7600
 1.3680	82.8300
 1.3720	81.7800
 1.3760	80.2300
 1.3800	78.2200
 1.3840	75.7700
 1.3880	73.0800
 1.3920	70.2200
 1.3960	67.7600
 1.4000	65.6200
 1.4040	63.7600
 1.4080	62.4500
 1.4120	62.3000
 1.4160	63.5900
 1.4200	65.6100
 1.4240	67.5000
 1.4280	68.9800
 1.4320	69.9400
 1.4360	70.7700
 1.4400	71.2700
 1.4440	71.7700
 1.4480	71.9400
 1.4520	71.9400
 1.4560	71.9400
 1.4600	72.0400
 1.4640	72.5600
 1.4680	73.2400
 1.4720	73.9600
 1.4760	74.6900
 1.4800	75.3800
 1.4840	76.0400
 1.4880	76.6000
 1.4920	77.0400
 1.4960	77.5300
 1.5000	77.9200
 1.5040	78.3600
 1.5080	78.7100
 1.5120	79.1300
 1.5160	79.4900
 1.5200	79.8400
 1.5240	80.0600
 1.5280	80.3200
 1.5320	80.6300
 1.5360	80.9300
 1.5400	81.2200
 1.5440	81.4100
 1.5480	81.5800
 1.5520	81.8100
 1.5560	82.0100
 1.5600	82.1600
 1.5640	82.3700
 1.5680	82.5000
 1.5720	82.6400
 1.5760	82.8300
 1.5800	82.8900
 1.5840	82.9900
 1.5880	83.1200
 1.5920	83.2600
 1.5960	83.3800
 1.6000	83.5900
 1.6040	83.5900
 1.6080	83.7100
 1.6120	83.7600
 1.6160	83.8500
 1.6200	83.9300
 1.6240	84.0000
 1.6280	84.1400
 1.6320	84.1700
 1.6360	84.1900
 1.6400	84.3500
 1.6440	84.3800
 1.6480	84.3500
 1.6520	84.4800
 1.6560	84.4700
 1.6600	84.4500
 1.6640	84.5100
 1.6680	84.3900
 1.6720	84.5300
 1.6760	84.5200
 1.6800	84.4600
 1.6840	84.4700
 1.6880	84.3500
 1.6920	84.2200
 1.6960	84.2500
 1.7000	84.1000
 1.7040	84.0100
 1.7080	83.8800
 1.7120	83.6800
 1.7160	83.5300
 1.7200	83.3800
 1.7240	83.3400
 1.7280	83.0600
 1.7320	82.8300
 1.7360	82.6300
 1.7400	82.3700
 1.7440	82.1700
 1.7480	81.8600
 1.7520	81.7100
 1.7560	81.4500
 1.7600	81.1700
 1.7640	80.9500
 1.7680	80.7300
 1.7720	80.5000
 1.7760	80.2000
 1.7800	80.1000
 1.7840	79.9800
 1.7880	79.8500
 1.7920	79.7600
 1.7960	79.6500
 1.8000	79.5500
 1.8040	79.5400
 1.8080	79.4300
 1.8120	79.3800
 1.8160	79.2000
 1.8200	79.0900
 1.8240	79.0000
 1.8280	78.7900
 1.8320	78.5600
 1.8360	78.1200
 1.8400	77.8700
 1.8440	77.4400
 1.8480	76.8200
 1.8520	76.1000
 1.8560	75.0300
 1.8600	73.8600
 1.8640	72.0000
 1.8680	69.5100
 1.8720	66.6600
 1.8760	63.4800
 1.8800	59.8900
 1.8840	55.9800
 1.8880	51.7200
 1.8920	47.5500
 1.8960	44.0200
 1.9000	41.5600
 1.9040	40.4500
 1.9080	40.5500
 1.9120	41.5000
 1.9160	42.9800
 1.9200	44.6500
 1.9240	46.2200
 1.9280	47.5400
 1.9320	48.5800
 1.9360	49.4600
 1.9400	50.2300
 1.9440	50.7600
 1.9480	51.2500
 1.9520	51.7300
 1.9560	52.2000
 1.9600	52.6800
 1.9640	53.1400
 1.9680	53.6900
 1.9720	54.2300
 1.9760	54.9100
 1.9800	55.6200
 1.9840	56.3200
 1.9880	57.0900
 1.9920	57.8400
 1.9960	58.6200
 2.0000	59.4000
 2.0040	60.0900
 2.0080	60.8200
 2.0120	61.5400
 2.0160	62.2300
 2.0200	62.9000
 2.0240	63.4700
 2.0280	64.0300
 2.0320	64.6200
 2.0360	65.0000
 2.0400	65.4600
 2.0440	65.8100
 2.0480	66.1700
 2.0520	66.4800
 2.0560	66.7100
 2.0600	67.0300
 2.0640	67.2200
 2.0680	67.3500
 2.0720	67.5400
 2.0760	67.6600
 2.0800	67.7800
 2.0840	67.8800
 2.0880	68.0500
 2.0920	68.1600
 2.0960	68.3600
 2.1000	68.5500
 2.1040	68.8100
 2.1080	69.0000
 2.1120	69.3600
 2.1160	69.4800
 2.1200	69.7100
 2.1240	69.8200
 2.1280	69.9000
 2.1320	69.9000
 2.1360	69.9400
 2.1400	69.9100
 2.1440	69.8800
 2.1480	69.6900
 2.1520	69.4700
 2.1560	69.2800
 2.1600	68.8300
 2.1640	68.3300
 2.1680	67.6500
 2.1720	66.8000
 2.1760	65.8000
 2.1800	64.5000
 2.1840	63.0200
 2.1880	61.3100
 2.1920	59.6000
 2.1960	58.1100
 2.2000	57.0000
 2.2040	56.4100
 2.2080	56.3900
 2.2120	57.0800
 2.2160	58.0700
 2.2200	59.2900
 2.2240	60.5500
 2.2280	61.6900
 2.2320	62.5300
 2.2360	63.2200
 2.2400	63.7200
 2.2440	64.1800
 2.2480	64.4400
 2.2520	64.6400
 2.2560	64.7100
 2.2600	64.7100
 2.2640	64.5200
 2.2680	64.3600
 2.2720	64.0800
 2.2760	63.7700
 2.2800	63.3600
 2.2840	62.9200
 2.2880	62.4500
 2.2920	61.9800
 2.2960	61.5200
 2.3000	61.0600
 2.3040	60.5100
 2.3080	60.0900
 2.3120	59.7700
 2.3160	59.3600
 2.3200	59.0100
 2.3240	58.4500
 2.3280	58.0300
 2.3320	57.4700
 2.3360	56.8800
 2.3400	56.3200
 2.3440	55.7600
 2.3480	55.1600
 2.3520	54.6500
 2.3560	54.1000
 2.3600	53.6100
 2.3640	53.0100
 2.3680	52.4800
 2.3720	52.0100
 2.3760	51.4800
 2.3800	51.0000
 2.3840	50.4500
 2.3880	49.9500
 2.3920	49.4100
 2.3960	48.9800
 2.4000	48.4200
 2.4040	47.9600
 2.4080	47.4200
 2.4120	46.9500
 2.4160	46.5200
 2.4200	46.0400
 2.4240	45.5200
 2.4280	45.0100
 2.4320	44.6000
 2.4360	44.0700
 2.4400	43.6300
 2.4440	43.1500
 2.4480	42.7100
 2.4520	42.2900
 2.4560	41.9000
 2.4600	41.4000
 2.4640	41.0200
 2.4680	40.6900
 2.4720	40.3400
 2.4760	39.9900
 2.4800	39.7000
 2.4840	39.3300
 2.4880	38.9400
 2.4920	38.6900
 2.4960	38.3700
 2.5000	38.0700
