Name: Nontronite Na_0.33Fe_2^3+(Si,Al)_4O_10(OH)_2.H_2O
Type: Mineral
Class: Silicate
Subclass: Phyllosilicate
Particle Size: Fine
Sample No.: PS-6B
Owner: JPL
Wavelength Range: VSWIR
Origin: Germany, Westphalia, Hohen Hagen
Collection Date: N/A
Description: Particle size was 0-45um.Collected by Clay Mineral Society Original ASTER Spectral Library name was jpl.beckman.mineral.silicate.phyllosilicate.fine.ps06b.spectrum.txt
Measurement: Hemispherical reflectance
First Column: X
Second Column: Y
X Units: Wavelength (micrometers)
Y Units:Reflectance (percent)
First X Value:  0.4000
Last X Value:  2.5000
Number of X Values: 826
Additional Information: mineral.silicate.phyllosilicate.fine.vswir.ps-6b.jpl.beckman.ancillary.txt

 0.4000	 7.3900
 0.4010	 7.5800
 0.4020	 7.6500
 0.4030	 7.6300
 0.4040	 7.8700
 0.4050	 7.8100
 0.4060	 7.9100
 0.4070	 7.9800
 0.4080	 8.0400
 0.4090	 8.1000
 0.4100	 7.9600
 0.4110	 8.0800
 0.4120	 8.2200
 0.4130	 8.2300
 0.4140	 8.4000
 0.4150	 8.2200
 0.4160	 8.2800
 0.4170	 8.4100
 0.4180	 8.3900
 0.4190	 8.5600
 0.4200	 8.4300
 0.4210	 8.5000
 0.4220	 8.5800
 0.4230	 8.5900
 0.4240	 8.7000
 0.4250	 8.6800
 0.4260	 8.7200
 0.4270	 8.8000
 0.4280	 8.8700
 0.4290	 8.9200
 0.4300	 8.9800
 0.4310	 8.9700
 0.4320	 9.1500
 0.4330	 9.0800
 0.4340	 9.2500
 0.4350	 9.2000
 0.4360	 9.2100
 0.4370	 9.4000
 0.4380	 9.3800
 0.4390	 9.5100
 0.4400	 9.4700
 0.4410	 9.5100
 0.4420	 9.5100
 0.4430	 9.6400
 0.4440	 9.7800
 0.4450	 9.7700
 0.4460	 9.8300
 0.4470	 9.9200
 0.4480	 9.9600
 0.4490	10.0200
 0.4500	10.0200
 0.4510	10.2200
 0.4520	10.2200
 0.4530	10.2100
 0.4540	10.4500
 0.4550	10.5300
 0.4560	10.7000
 0.4570	10.8100
 0.4580	10.8500
 0.4590	11.0000
 0.4600	11.0300
 0.4610	11.4700
 0.4620	11.6300
 0.4630	11.7500
 0.4640	11.9300
 0.4650	12.2800
 0.4660	12.5600
 0.4670	12.7700
 0.4680	12.9500
 0.4690	13.2400
 0.4700	13.6000
 0.4710	13.9000
 0.4720	14.1500
 0.4730	14.3000
 0.4740	14.5400
 0.4750	14.9000
 0.4760	15.2200
 0.4770	15.4000
 0.4780	15.5300
 0.4790	15.8600
 0.4800	16.1200
 0.4810	16.3100
 0.4820	16.5300
 0.4830	16.6600
 0.4840	16.8800
 0.4850	17.0900
 0.4860	17.3000
 0.4870	17.4700
 0.4880	17.5600
 0.4890	17.6600
 0.4900	17.8500
 0.4910	18.1000
 0.4920	18.3100
 0.4930	18.4300
 0.4940	18.5800
 0.4950	18.7800
 0.4960	18.9900
 0.4970	19.2300
 0.4980	19.3100
 0.4990	19.4600
 0.5000	19.6800
 0.5010	19.8700
 0.5020	20.1500
 0.5030	20.1800
 0.5040	20.4700
 0.5050	20.5900
 0.5060	20.8700
 0.5070	21.0500
 0.5080	21.1700
 0.5090	21.5400
 0.5100	21.6600
 0.5110	21.8300
 0.5120	22.2200
 0.5130	22.4000
 0.5140	22.6600
 0.5150	22.8500
 0.5160	23.1600
 0.5170	23.3700
 0.5180	23.6900
 0.5190	24.0100
 0.5200	24.2100
 0.5210	24.5100
 0.5220	24.8000
 0.5230	25.1700
 0.5240	25.5400
 0.5250	25.7700
 0.5260	26.0000
 0.5270	26.3000
 0.5280	26.6700
 0.5290	27.1000
 0.5300	27.4300
 0.5310	27.7400
 0.5320	28.1600
 0.5330	28.4400
 0.5340	28.7700
 0.5350	29.1800
 0.5360	29.5900
 0.5370	30.0700
 0.5380	30.3100
 0.5390	30.6800
 0.5400	31.0200
 0.5410	31.4300
 0.5420	31.7900
 0.5430	32.1700
 0.5440	32.5500
 0.5450	32.9600
 0.5460	33.2200
 0.5470	33.5900
 0.5480	34.0100
 0.5490	34.3700
 0.5500	34.6600
 0.5510	35.0700
 0.5520	35.3500
 0.5530	35.7700
 0.5540	35.9900
 0.5550	36.2800
 0.5560	36.5800
 0.5570	36.9700
 0.5580	37.1700
 0.5590	37.2500
 0.5600	37.2900
 0.5610	38.1700
 0.5620	38.3600
 0.5630	38.6700
 0.5640	38.8200
 0.5650	39.2300
 0.5660	39.3400
 0.5670	39.5000
 0.5680	39.7800
 0.5690	39.9400
 0.5700	40.2000
 0.5710	40.3100
 0.5720	40.3000
 0.5730	40.6300
 0.5740	40.6900
 0.5750	40.9400
 0.5760	41.0200
 0.5770	41.0800
 0.5780	41.3900
 0.5790	41.3900
 0.5800	41.5300
 0.5810	41.5600
 0.5820	41.6500
 0.5830	41.8300
 0.5840	41.8700
 0.5850	42.0500
 0.5860	42.1400
 0.5870	42.1300
 0.5880	42.3200
 0.5890	42.2600
 0.5900	42.4100
 0.5910	42.5000
 0.5920	42.5600
 0.5930	42.6500
 0.5940	42.5400
 0.5950	42.7500
 0.5960	42.7200
 0.5970	42.6600
 0.5980	42.7800
 0.5990	42.7700
 0.6000	42.8800
 0.6010	42.8800
 0.6020	42.8700
 0.6030	42.8900
 0.6040	42.7500
 0.6050	42.8900
 0.6060	42.9000
 0.6070	42.7900
 0.6080	42.8100
 0.6090	42.8000
 0.6100	42.7100
 0.6110	42.7400
 0.6120	42.6500
 0.6130	42.7800
 0.6140	42.5500
 0.6150	42.5500
 0.6160	42.6600
 0.6170	42.5300
 0.6180	42.6800
 0.6190	42.5300
 0.6200	42.4800
 0.6210	42.6000
 0.6220	42.4600
 0.6230	42.5400
 0.6240	42.4400
 0.6250	42.3800
 0.6260	42.4700
 0.6270	42.3900
 0.6280	42.5100
 0.6290	42.4000
 0.6300	42.4200
 0.6310	42.5000
 0.6320	42.4200
 0.6330	42.5300
 0.6340	42.4100
 0.6350	42.3900
 0.6360	42.5500
 0.6370	42.4000
 0.6380	42.5500
 0.6390	42.5000
 0.6400	42.3900
 0.6410	42.5400
 0.6420	42.5100
 0.6430	42.7000
 0.6440	42.6500
 0.6450	42.5700
 0.6460	42.7400
 0.6470	42.7100
 0.6480	42.9300
 0.6490	42.9000
 0.6500	42.8700
 0.6510	43.0100
 0.6520	42.9900
 0.6530	43.2300
 0.6540	43.2500
 0.6550	43.2300
 0.6560	43.3900
 0.6570	43.3400
 0.6580	43.5500
 0.6590	43.6300
 0.6600	43.6600
 0.6610	43.7700
 0.6620	43.7600
 0.6630	44.1000
 0.6640	44.1000
 0.6650	44.1400
 0.6660	44.4300
 0.6670	44.4900
 0.6680	44.6300
 0.6690	44.7700
 0.6700	44.8600
 0.6710	45.0100
 0.6720	45.0600
 0.6730	45.3800
 0.6740	45.4300
 0.6750	45.5900
 0.6760	45.7700
 0.6770	45.8600
 0.6780	46.0900
 0.6790	46.1200
 0.6800	46.2100
 0.6810	46.4900
 0.6820	46.6100
 0.6830	46.9300
 0.6840	46.9000
 0.6850	47.0100
 0.6860	47.2600
 0.6870	47.4100
 0.6880	47.7300
 0.6890	47.8100
 0.6900	47.8700
 0.6910	48.1600
 0.6920	48.3000
 0.6930	48.5300
 0.6940	48.5900
 0.6950	48.7600
 0.6960	48.9800
 0.6970	49.0400
 0.6980	49.2900
 0.6990	49.3400
 0.7000	49.3500
 0.7010	49.4900
 0.7020	50.0100
 0.7030	50.0700
 0.7040	50.2500
 0.7050	50.3600
 0.7060	50.6200
 0.7070	50.8000
 0.7080	50.8500
 0.7090	51.0500
 0.7100	51.0600
 0.7110	51.3900
 0.7120	51.5300
 0.7130	51.6200
 0.7140	51.6500
 0.7150	51.7700
 0.7160	51.9400
 0.7170	52.2700
 0.7180	52.2700
 0.7190	52.3200
 0.7200	52.3300
 0.7210	52.5200
 0.7220	52.7900
 0.7230	52.8800
 0.7240	52.9700
 0.7250	52.9800
 0.7260	53.2000
 0.7270	53.3100
 0.7280	53.3500
 0.7290	53.4400
 0.7300	53.5200
 0.7310	53.6200
 0.7320	53.8200
 0.7330	53.8500
 0.7340	53.8500
 0.7350	53.8600
 0.7360	54.0100
 0.7370	54.2200
 0.7380	54.1200
 0.7390	54.1500
 0.7400	54.1900
 0.7410	54.3300
 0.7420	54.5500
 0.7430	54.5800
 0.7440	54.5500
 0.7450	54.5100
 0.7460	54.6100
 0.7470	54.6500
 0.7480	54.6600
 0.7490	54.7700
 0.7500	54.9500
 0.7510	54.8700
 0.7520	54.8500
 0.7530	54.8700
 0.7540	54.8800
 0.7550	55.0400
 0.7560	54.8800
 0.7570	54.8600
 0.7580	54.8700
 0.7590	54.8900
 0.7600	55.0200
 0.7610	54.9600
 0.7620	54.9700
 0.7630	54.8100
 0.7640	54.9200
 0.7650	55.0700
 0.7660	54.8800
 0.7670	54.8800
 0.7680	54.7200
 0.7690	54.8400
 0.7700	54.6700
 0.7710	54.7500
 0.7720	54.6600
 0.7730	54.6200
 0.7740	54.5500
 0.7750	54.7400
 0.7760	54.5100
 0.7770	54.5000
 0.7780	54.4400
 0.7790	54.4100
 0.7800	54.3200
 0.7810	54.2500
 0.7820	54.3100
 0.7830	54.1700
 0.7840	54.1600
 0.7850	53.9900
 0.7860	54.0600
 0.7870	54.0600
 0.7880	53.8800
 0.7890	53.8300
 0.7900	53.6900
 0.7910	53.6200
 0.7920	53.6700
 0.7930	53.5800
 0.7940	53.5600
 0.7950	53.3200
 0.7960	53.2700
 0.7970	53.2200
 0.7980	53.2300
 0.7990	53.1300
 0.8000	52.9000
 0.8040	52.5900
 0.8080	52.2900
 0.8120	51.8900
 0.8160	51.4400
 0.8200	51.1200
 0.8240	50.7600
 0.8280	50.4700
 0.8320	50.1100
 0.8360	49.7600
 0.8400	49.3700
 0.8440	49.0400
 0.8480	48.7900
 0.8520	48.4600
 0.8560	48.1900
 0.8600	47.8700
 0.8640	47.6900
 0.8680	47.4200
 0.8720	47.3000
 0.8760	47.0400
 0.8800	46.8900
 0.8840	46.7100
 0.8880	46.5300
 0.8920	46.3500
 0.8960	46.2300
 0.9000	46.1400
 0.9040	46.0200
 0.9080	45.9900
 0.9120	45.9600
 0.9160	45.8400
 0.9200	45.7800
 0.9240	45.8400
 0.9280	45.8100
 0.9320	45.8700
 0.9360	45.8700
 0.9400	45.9000
 0.9440	45.9900
 0.9480	46.0200
 0.9520	46.1400
 0.9560	46.2000
 0.9600	46.2900
 0.9640	46.4700
 0.9680	46.5900
 0.9720	46.6500
 0.9760	46.8900
 0.9800	47.0100
 0.9840	47.2400
 0.9880	47.5100
 0.9920	47.7200
 0.9960	47.9500
 1.0000	48.0400
 1.0040	48.3400
 1.0080	48.6100
 1.0120	48.8700
 1.0160	49.0900
 1.0200	49.3600
 1.0240	49.7200
 1.0280	50.0500
 1.0320	50.2900
 1.0360	50.6600
 1.0400	50.9700
 1.0440	51.3900
 1.0480	51.6900
 1.0520	52.0100
 1.0560	52.4100
 1.0600	52.7800
 1.0640	53.1800
 1.0680	53.5400
 1.0720	53.8900
 1.0760	54.3200
 1.0800	54.7300
 1.0840	55.0100
 1.0880	55.4800
 1.0920	55.8000
 1.0960	56.1700
 1.1000	56.7100
 1.1040	57.1100
 1.1080	57.3600
 1.1120	57.7900
 1.1160	58.1100
 1.1200	58.5100
 1.1240	58.8800
 1.1280	59.1500
 1.1320	59.5400
 1.1360	59.7300
 1.1400	60.0000
 1.1440	60.2000
 1.1480	60.3700
 1.1520	60.6100
 1.1560	60.8500
 1.1600	61.1000
 1.1640	61.3700
 1.1680	61.6000
 1.1720	61.8000
 1.1760	61.9600
 1.1800	62.2400
 1.1840	62.3300
 1.1880	62.5000
 1.1920	62.6400
 1.1960	62.8300
 1.2000	62.9500
 1.2040	63.0900
 1.2080	63.2000
 1.2120	63.2200
 1.2160	63.3600
 1.2200	63.4000
 1.2240	63.4900
 1.2280	63.5800
 1.2320	63.7400
 1.2360	63.7300
 1.2400	63.8400
 1.2440	63.8600
 1.2480	63.9200
 1.2520	64.0100
 1.2560	64.0200
 1.2600	64.1200
 1.2640	64.1700
 1.2680	64.1200
 1.2720	64.1600
 1.2760	64.1800
 1.2800	64.2200
 1.2840	64.2500
 1.2880	64.2400
 1.2920	64.1200
 1.2960	64.1900
 1.3000	64.1400
 1.3040	64.0800
 1.3080	64.0900
 1.3120	63.9900
 1.3160	63.9400
 1.3200	63.7900
 1.3240	63.7400
 1.3280	63.6900
 1.3320	63.6100
 1.3360	63.5800
 1.3400	63.4000
 1.3440	63.4300
 1.3480	63.3100
 1.3520	63.3200
 1.3560	63.2600
 1.3600	63.1400
 1.3640	62.9400
 1.3680	62.7400
 1.3720	62.5400
 1.3760	62.2100
 1.3800	61.6400
 1.3840	60.8500
 1.3880	59.9200
 1.3920	58.7000
 1.3960	57.3800
 1.4000	55.8400
 1.4040	54.6000
 1.4080	53.6900
 1.4120	53.1300
 1.4160	52.7900
 1.4200	52.5100
 1.4240	52.1100
 1.4280	51.6800
 1.4320	51.9500
 1.4360	52.8600
 1.4400	54.0600
 1.4440	55.2800
 1.4480	56.1100
 1.4520	56.5100
 1.4560	56.7000
 1.4600	56.8300
 1.4640	57.0500
 1.4680	57.4500
 1.4720	57.7800
 1.4760	58.1500
 1.4800	58.4900
 1.4840	58.8700
 1.4880	59.1100
 1.4920	59.3900
 1.4960	59.6900
 1.5000	59.9600
 1.5040	60.0600
 1.5080	60.2900
 1.5120	60.5100
 1.5160	60.6500
 1.5200	60.8200
 1.5240	60.8800
 1.5280	61.0500
 1.5320	61.3200
 1.5360	61.3900
 1.5400	61.4800
 1.5440	61.6000
 1.5480	61.6600
 1.5520	61.7600
 1.5560	61.8400
 1.5600	61.9900
 1.5640	62.0100
 1.5680	62.0300
 1.5720	62.1600
 1.5760	62.1800
 1.5800	62.2800
 1.5840	62.3400
 1.5880	62.3600
 1.5920	62.4000
 1.5960	62.5300
 1.6000	62.5700
 1.6040	62.5600
 1.6080	62.5900
 1.6120	62.6700
 1.6160	62.7700
 1.6200	62.6800
 1.6240	62.7800
 1.6280	62.8200
 1.6320	62.8300
 1.6360	62.7700
 1.6400	62.8000
 1.6440	62.8600
 1.6480	62.8100
 1.6520	62.8900
 1.6560	62.8600
 1.6600	62.8800
 1.6640	62.8700
 1.6680	62.8600
 1.6720	62.8000
 1.6760	62.7800
 1.6800	62.7900
 1.6840	62.7900
 1.6880	62.8000
 1.6920	62.8400
 1.6960	62.8100
 1.7000	62.7700
 1.7040	62.7900
 1.7080	62.7500
 1.7120	62.7900
 1.7160	62.7700
 1.7200	62.6500
 1.7240	62.6900
 1.7280	62.6100
 1.7320	62.4800
 1.7360	62.4000
 1.7400	62.3600
 1.7440	62.2500
 1.7480	62.2700
 1.7520	62.1300
 1.7560	62.1100
 1.7600	62.0300
 1.7640	62.0200
 1.7680	61.9600
 1.7720	61.8800
 1.7760	61.8500
 1.7800	61.7200
 1.7840	61.7300
 1.7880	61.6800
 1.7920	61.6400
 1.7960	61.7000
 1.8000	61.7200
 1.8040	61.6000
 1.8080	61.5400
 1.8120	61.6100
 1.8160	61.5200
 1.8200	61.4600
 1.8240	61.4800
 1.8280	61.3900
 1.8320	61.4000
 1.8360	61.2100
 1.8400	61.0900
 1.8440	60.8800
 1.8480	60.6400
 1.8520	60.2500
 1.8560	59.9200
 1.8600	59.3800
 1.8640	58.5700
 1.8680	57.3700
 1.8720	55.9400
 1.8760	54.1600
 1.8800	52.1100
 1.8840	49.6000
 1.8880	46.7900
 1.8920	43.7500
 1.8960	40.9500
 1.9000	38.8600
 1.9040	37.7100
 1.9080	37.4000
 1.9120	37.8200
 1.9160	38.4900
 1.9200	39.3100
 1.9240	40.1700
 1.9280	41.0100
 1.9320	41.6400
 1.9360	42.1900
 1.9400	42.6900
 1.9440	43.1500
 1.9480	43.5600
 1.9520	43.9100
 1.9560	44.2500
 1.9600	44.6800
 1.9640	45.0800
 1.9680	45.5000
 1.9720	45.9200
 1.9760	46.4600
 1.9800	46.8700
 1.9840	47.4600
 1.9880	47.9600
 1.9920	48.4600
 1.9960	48.9600
 2.0000	49.5900
 2.0040	50.0700
 2.0080	50.5100
 2.0120	51.0200
 2.0160	51.4800
 2.0200	51.9600
 2.0240	52.2700
 2.0280	52.5800
 2.0320	52.9900
 2.0360	53.3400
 2.0400	53.7200
 2.0440	54.0100
 2.0480	54.1700
 2.0520	54.4300
 2.0560	54.7700
 2.0600	55.0300
 2.0640	55.2400
 2.0680	55.4000
 2.0720	55.6200
 2.0760	55.8700
 2.0800	55.9900
 2.0840	56.2000
 2.0880	56.2900
 2.0920	56.4500
 2.0960	56.6200
 2.1000	56.8300
 2.1040	56.9600
 2.1080	57.1500
 2.1120	57.1900
 2.1160	57.3800
 2.1200	57.4300
 2.1240	57.4600
 2.1280	57.5400
 2.1320	57.6100
 2.1360	57.6600
 2.1400	57.7000
 2.1440	57.6900
 2.1480	57.7000
 2.1520	57.8100
 2.1560	57.7000
 2.1600	57.5800
 2.1640	57.5600
 2.1680	57.4000
 2.1720	57.2800
 2.1760	57.2300
 2.1800	57.0900
 2.1840	56.9500
 2.1880	56.7700
 2.1920	56.7400
 2.1960	56.6800
 2.2000	56.5800
 2.2040	56.5200
 2.2080	56.4300
 2.2120	56.4100
 2.2160	56.3500
 2.2200	56.2300
 2.2240	56.1400
 2.2280	56.0400
 2.2320	55.9500
 2.2360	55.6400
 2.2400	55.2400
 2.2440	54.7700
 2.2480	54.1000
 2.2520	53.2300
 2.2560	52.2600
 2.2600	51.0000
 2.2640	49.7400
 2.2680	48.4500
 2.2720	47.2100
 2.2760	46.2600
 2.2800	45.6900
 2.2840	45.4500
 2.2880	45.5600
 2.2920	46.1800
 2.2960	46.9800
 2.3000	47.9700
 2.3040	48.3200
 2.3080	49.7400
 2.3120	50.4800
 2.3160	50.9100
 2.3200	51.0200
 2.3240	51.0300
 2.3280	51.0000
 2.3320	50.8000
 2.3360	50.5300
 2.3400	50.2700
 2.3440	49.9300
 2.3480	49.4900
 2.3520	49.1200
 2.3560	48.6500
 2.3600	48.1600
 2.3640	47.5600
 2.3680	47.0100
 2.3720	46.3200
 2.3760	45.6200
 2.3800	44.8200
 2.3840	44.1900
 2.3880	43.4800
 2.3920	42.9700
 2.3960	42.6500
 2.4000	42.3600
 2.4040	42.2200
 2.4080	42.1200
 2.4120	42.0800
 2.4160	42.0500
 2.4200	41.8600
 2.4240	41.7700
 2.4280	41.5900
 2.4320	41.4900
 2.4360	41.2600
 2.4400	40.9900
 2.4440	40.6800
 2.4480	40.3900
 2.4520	40.1500
 2.4560	39.7800
 2.4600	39.4100
 2.4640	39.0000
 2.4680	38.5400
 2.4720	38.1800
 2.4760	37.7900
 2.4800	37.4400
 2.4840	37.0900
 2.4880	36.7600
 2.4920	36.4900
 2.4960	36.2400
 2.5000	36.0000
