Name: Labradorite (Feldspar) (NaSi,CaAl)AlSi_2O_8
Type: Mineral
Class: Silicate
Subclass: Tectosilicate
Particle Size: Fine
Sample No.: TS-2B
Owner: JPL
Wavelength Range: VSWIR
Origin: Canada, Quebec, Lake St. John.
Collection Date: N/A
Description: Particle size was 0-45um. Collected by:  Ward's Original ASTER Spectral Library name was jpl.perkin.mineral.silicate.tectosilicate.fine.ts02b.spectrum.txt
Measurement: Hemispherical reflectance
First Column: X
Second Column: Y
X Units: Wavelength (micrometers)
Y Units:Reflectance (percent)
First X Value:  2.5000
Last X Value:  0.4000
Number of X Values: 2101
Additional Information: mineral.silicate.tectosilicate.fine.vswir.ts-2b.jpl.perkin.ancillary.txt

 2.5000	48.2097
 2.4990	48.1948
 2.4980	48.3479
 2.4970	48.4356
 2.4960	48.1844
 2.4950	48.3266
 2.4940	48.4461
 2.4930	48.3354
 2.4920	48.4527
 2.4910	48.3147
 2.4900	48.4108
 2.4890	48.2922
 2.4880	48.4063
 2.4870	48.2671
 2.4860	48.3734
 2.4850	48.1701
 2.4840	48.5078
 2.4830	48.2336
 2.4820	48.3714
 2.4810	48.3214
 2.4800	48.3808
 2.4790	48.2293
 2.4780	48.4688
 2.4770	48.3286
 2.4760	48.2710
 2.4750	48.1782
 2.4740	48.3523
 2.4730	48.2791
 2.4720	48.2601
 2.4710	48.3096
 2.4700	48.4823
 2.4690	48.3524
 2.4680	48.3164
 2.4670	48.3760
 2.4660	48.4505
 2.4650	48.3340
 2.4640	48.3863
 2.4630	48.3910
 2.4620	48.4829
 2.4610	48.4184
 2.4600	48.4853
 2.4590	48.4705
 2.4580	48.4028
 2.4570	48.3799
 2.4560	48.4921
 2.4550	48.4440
 2.4540	48.4853
 2.4530	48.3661
 2.4520	48.4443
 2.4510	48.3935
 2.4500	48.4711
 2.4490	48.3743
 2.4480	48.5820
 2.4470	48.5162
 2.4460	48.5095
 2.4450	48.4706
 2.4440	48.5007
 2.4430	48.5108
 2.4420	48.5329
 2.4410	48.5323
 2.4400	48.4426
 2.4390	48.5724
 2.4380	48.5089
 2.4370	48.4820
 2.4360	48.4390
 2.4350	48.5937
 2.4340	48.5946
 2.4330	48.5091
 2.4320	48.5328
 2.4310	48.5361
 2.4300	48.6430
 2.4290	48.5958
 2.4280	48.6716
 2.4270	48.6370
 2.4260	48.6505
 2.4250	48.6253
 2.4240	48.6239
 2.4230	48.6868
 2.4220	48.6693
 2.4210	48.6509
 2.4200	48.6435
 2.4190	48.6528
 2.4180	48.6746
 2.4170	48.6697
 2.4160	48.6671
 2.4150	48.6977
 2.4140	48.6945
 2.4130	48.6617
 2.4120	48.7180
 2.4110	48.6463
 2.4100	48.6749
 2.4090	48.6603
 2.4080	48.6786
 2.4070	48.7348
 2.4060	48.6732
 2.4050	48.7838
 2.4040	48.8231
 2.4030	48.7702
 2.4020	48.7976
 2.4010	48.7791
 2.4000	48.7960
 2.3990	48.7821
 2.3980	48.7893
 2.3970	48.7639
 2.3960	48.8321
 2.3950	48.8056
 2.3940	48.8345
 2.3930	48.7510
 2.3920	48.8005
 2.3910	48.7713
 2.3900	48.8354
 2.3890	48.8572
 2.3880	48.7891
 2.3870	48.7476
 2.3860	48.8059
 2.3850	48.8047
 2.3840	48.8591
 2.3830	48.8876
 2.3820	48.8572
 2.3810	48.8912
 2.3800	48.9667
 2.3790	48.9272
 2.3780	48.9407
 2.3770	48.9495
 2.3760	48.9475
 2.3750	48.9249
 2.3740	48.9581
 2.3730	48.9835
 2.3720	48.9698
 2.3710	48.9402
 2.3700	49.0083
 2.3690	49.0275
 2.3680	48.9861
 2.3670	48.9682
 2.3660	48.9947
 2.3650	48.9825
 2.3640	48.9613
 2.3630	48.9875
 2.3620	49.0273
 2.3610	49.0134
 2.3600	49.0430
 2.3590	49.0150
 2.3580	48.9734
 2.3570	48.9644
 2.3560	49.0093
 2.3550	49.0530
 2.3540	49.0320
 2.3530	48.9982
 2.3520	48.9498
 2.3510	48.9587
 2.3500	49.0227
 2.3490	49.0846
 2.3480	49.0684
 2.3470	49.0139
 2.3460	48.9835
 2.3450	49.0144
 2.3440	48.9914
 2.3430	49.0057
 2.3420	49.0883
 2.3410	49.0643
 2.3400	48.9907
 2.3390	48.9820
 2.3380	48.9896
 2.3370	48.9832
 2.3360	48.9399
 2.3350	48.9333
 2.3340	48.9575
 2.3330	48.9557
 2.3320	48.9061
 2.3310	48.9027
 2.3300	48.8980
 2.3290	48.9671
 2.3280	48.9430
 2.3270	48.9415
 2.3260	48.9629
 2.3250	48.9366
 2.3240	48.8664
 2.3230	48.8939
 2.3220	48.8499
 2.3210	48.8495
 2.3200	48.8998
 2.3190	48.8960
 2.3180	48.9012
 2.3170	48.8711
 2.3160	48.8797
 2.3150	48.9022
 2.3140	48.8622
 2.3130	48.8733
 2.3120	48.8848
 2.3110	48.9021
 2.3100	48.9115
 2.3090	48.9189
 2.3080	48.9433
 2.3070	48.9480
 2.3060	48.8678
 2.3050	48.8749
 2.3040	48.8776
 2.3030	48.9352
 2.3020	48.9403
 2.3010	48.9385
 2.3000	48.9029
 2.2990	48.9292
 2.2980	48.9241
 2.2970	48.9099
 2.2960	48.8637
 2.2950	48.8727
 2.2940	48.8510
 2.2930	48.9076
 2.2920	48.8148
 2.2910	48.8576
 2.2900	48.8715
 2.2890	48.8447
 2.2880	48.8520
 2.2870	48.8995
 2.2860	48.8439
 2.2850	48.8232
 2.2840	48.8622
 2.2830	48.9281
 2.2820	48.9412
 2.2810	48.8605
 2.2800	48.7965
 2.2790	48.8898
 2.2780	48.8426
 2.2770	48.8698
 2.2760	48.8471
 2.2750	48.8216
 2.2740	48.7879
 2.2730	48.8476
 2.2720	48.8106
 2.2710	48.8239
 2.2700	48.7849
 2.2690	48.8415
 2.2680	48.8149
 2.2670	48.8693
 2.2660	48.8031
 2.2650	48.8090
 2.2640	48.7605
 2.2630	48.8497
 2.2620	48.8221
 2.2610	48.8081
 2.2600	48.8024
 2.2590	48.7705
 2.2580	48.7514
 2.2570	48.7747
 2.2560	48.7378
 2.2550	48.7997
 2.2540	48.6966
 2.2530	48.7806
 2.2520	48.6704
 2.2510	48.8186
 2.2500	48.7151
 2.2490	48.8032
 2.2480	48.7106
 2.2470	48.7417
 2.2460	48.8032
 2.2450	48.7604
 2.2440	48.7348
 2.2430	48.8140
 2.2420	48.7052
 2.2410	48.7958
 2.2400	48.7801
 2.2390	48.8189
 2.2380	48.7594
 2.2370	48.7684
 2.2360	48.7419
 2.2350	48.8108
 2.2340	48.7363
 2.2330	48.7187
 2.2320	48.8169
 2.2310	48.8247
 2.2300	48.8145
 2.2290	48.7432
 2.2280	48.8097
 2.2270	48.8117
 2.2260	48.7478
 2.2250	48.8240
 2.2240	48.7036
 2.2230	48.8614
 2.2220	48.7710
 2.2210	48.8159
 2.2200	48.8301
 2.2190	48.7664
 2.2180	48.7462
 2.2170	48.8218
 2.2160	48.7108
 2.2150	48.8044
 2.2140	48.8376
 2.2130	48.8447
 2.2120	48.8874
 2.2110	48.7435
 2.2100	48.8917
 2.2090	48.9664
 2.2080	48.7599
 2.2070	48.9289
 2.2060	48.8901
 2.2050	48.9233
 2.2040	48.8412
 2.2030	48.9157
 2.2020	48.9862
 2.2010	48.9480
 2.2000	48.9342
 2.1990	49.0123
 2.1980	48.9429
 2.1970	48.9702
 2.1960	48.9581
 2.1950	49.0412
 2.1940	48.9769
 2.1930	49.0139
 2.1920	49.0111
 2.1910	48.9544
 2.1900	48.9533
 2.1890	49.0604
 2.1880	49.0765
 2.1870	49.0869
 2.1860	49.0634
 2.1850	49.0952
 2.1840	49.0924
 2.1830	49.1689
 2.1820	49.0894
 2.1810	49.0840
 2.1800	49.0984
 2.1790	49.2019
 2.1780	49.1474
 2.1770	49.2002
 2.1760	49.1839
 2.1750	49.2177
 2.1740	49.1517
 2.1730	49.1971
 2.1720	49.1944
 2.1710	49.2695
 2.1700	49.3090
 2.1690	49.2834
 2.1680	49.2867
 2.1670	49.2888
 2.1660	49.2767
 2.1650	49.3847
 2.1640	49.3238
 2.1630	49.4355
 2.1620	49.2977
 2.1610	49.4152
 2.1600	49.4205
 2.1590	49.4475
 2.1580	49.3896
 2.1570	49.4699
 2.1560	49.4664
 2.1550	49.5004
 2.1540	49.4562
 2.1530	49.4782
 2.1520	49.4354
 2.1510	49.5383
 2.1500	49.5541
 2.1490	49.5727
 2.1480	49.5012
 2.1470	49.5202
 2.1460	49.4868
 2.1450	49.5012
 2.1440	49.4474
 2.1430	49.5188
 2.1420	49.5441
 2.1410	49.5500
 2.1400	49.5123
 2.1390	49.5089
 2.1380	49.4659
 2.1370	49.5016
 2.1360	49.4445
 2.1350	49.4866
 2.1340	49.4115
 2.1330	49.3926
 2.1320	49.3765
 2.1310	49.3750
 2.1300	49.3361
 2.1290	49.3475
 2.1280	49.3386
 2.1270	49.3257
 2.1260	49.2916
 2.1250	49.2988
 2.1240	49.2454
 2.1230	49.1923
 2.1220	49.2068
 2.1210	49.1302
 2.1200	49.1437
 2.1190	49.1373
 2.1180	49.1264
 2.1170	49.0947
 2.1160	49.0048
 2.1150	48.9649
 2.1140	48.9477
 2.1130	48.9508
 2.1120	48.9486
 2.1110	48.9680
 2.1100	48.9010
 2.1090	48.8616
 2.1080	48.8011
 2.1070	48.8079
 2.1060	48.7912
 2.1050	48.6819
 2.1040	48.7017
 2.1030	48.7252
 2.1020	48.6608
 2.1010	48.6882
 2.1000	48.6907
 2.0990	48.6577
 2.0980	48.6328
 2.0970	48.6425
 2.0960	48.6920
 2.0950	48.7142
 2.0940	48.6058
 2.0930	48.6318
 2.0920	48.7028
 2.0910	48.6697
 2.0900	48.6316
 2.0890	48.6510
 2.0880	48.6865
 2.0870	48.7078
 2.0860	48.7214
 2.0850	48.7165
 2.0840	48.7226
 2.0830	48.7407
 2.0820	48.6857
 2.0810	48.6831
 2.0800	48.7212
 2.0790	48.7181
 2.0780	48.7445
 2.0770	48.8018
 2.0760	48.7827
 2.0750	48.7104
 2.0740	48.7232
 2.0730	48.7894
 2.0720	48.7806
 2.0710	48.7460
 2.0700	48.7225
 2.0690	48.7570
 2.0680	48.7738
 2.0670	48.7400
 2.0660	48.7339
 2.0650	48.7839
 2.0640	48.7848
 2.0630	48.7423
 2.0620	48.7749
 2.0610	48.8056
 2.0600	48.8355
 2.0590	48.8235
 2.0580	48.8081
 2.0570	48.8492
 2.0560	48.8794
 2.0550	48.8957
 2.0540	48.8956
 2.0530	48.8787
 2.0520	48.8697
 2.0510	48.8732
 2.0500	48.8527
 2.0490	48.8085
 2.0480	48.8381
 2.0470	48.8466
 2.0460	48.8663
 2.0450	48.8870
 2.0440	48.9014
 2.0430	48.8873
 2.0420	48.9360
 2.0410	48.9108
 2.0400	48.9089
 2.0390	48.8931
 2.0380	48.9015
 2.0370	48.9541
 2.0360	48.9154
 2.0350	48.8661
 2.0340	48.8777
 2.0330	48.8590
 2.0320	48.8935
 2.0310	48.8868
 2.0300	48.8764
 2.0290	48.8782
 2.0280	48.9306
 2.0270	48.8661
 2.0260	48.8662
 2.0250	48.9700
 2.0240	48.9170
 2.0230	48.8440
 2.0220	48.8541
 2.0210	48.8470
 2.0200	48.8776
 2.0190	48.8703
 2.0180	48.8760
 2.0170	48.8678
 2.0160	48.8714
 2.0150	48.8799
 2.0140	48.9096
 2.0130	48.8178
 2.0120	48.8632
 2.0110	48.8857
 2.0100	48.8597
 2.0090	48.8780
 2.0080	48.8777
 2.0070	48.9214
 2.0060	48.9066
 2.0050	48.8608
 2.0040	48.8769
 2.0030	48.8239
 2.0020	48.8353
 2.0010	48.8515
 2.0000	48.8276
 1.9990	48.7934
 1.9980	48.8740
 1.9970	48.8943
 1.9960	48.7970
 1.9950	48.7602
 1.9940	48.7712
 1.9930	48.8018
 1.9920	48.8329
 1.9910	48.8234
 1.9900	48.8158
 1.9890	48.7273
 1.9880	48.7425
 1.9870	48.6580
 1.9860	48.7431
 1.9850	48.6769
 1.9840	48.7011
 1.9830	48.7477
 1.9820	48.7243
 1.9810	48.6995
 1.9800	48.6238
 1.9790	48.6455
 1.9780	48.7276
 1.9770	48.5953
 1.9760	48.6591
 1.9750	48.6545
 1.9740	48.6133
 1.9730	48.6582
 1.9720	48.6819
 1.9710	48.6308
 1.9700	48.6429
 1.9690	48.5741
 1.9680	48.6067
 1.9670	48.6817
 1.9660	48.6344
 1.9650	48.6300
 1.9640	48.5942
 1.9630	48.5579
 1.9620	48.6470
 1.9610	48.5326
 1.9600	48.5401
 1.9590	48.6069
 1.9580	48.5711
 1.9570	48.5949
 1.9560	48.6515
 1.9550	48.5858
 1.9540	48.6824
 1.9530	48.5596
 1.9520	48.5457
 1.9510	48.5026
 1.9500	48.5411
 1.9490	48.5494
 1.9480	48.6174
 1.9470	48.5465
 1.9460	48.5863
 1.9450	48.6013
 1.9440	48.6064
 1.9430	48.5528
 1.9420	48.5591
 1.9410	48.5109
 1.9400	48.6288
 1.9390	48.5891
 1.9380	48.5599
 1.9370	48.5938
 1.9360	48.5763
 1.9350	48.5422
 1.9340	48.6066
 1.9330	48.5111
 1.9320	48.6659
 1.9310	48.6112
 1.9300	48.5624
 1.9290	48.6154
 1.9280	48.5559
 1.9270	48.5340
 1.9260	48.5252
 1.9250	48.5739
 1.9240	48.5734
 1.9230	48.5382
 1.9220	48.5645
 1.9210	48.4770
 1.9200	48.5873
 1.9190	48.5090
 1.9180	48.4758
 1.9170	48.6188
 1.9160	48.6213
 1.9150	48.5829
 1.9140	48.6020
 1.9130	48.5481
 1.9120	48.5182
 1.9110	48.5529
 1.9100	48.5367
 1.9090	48.5507
 1.9080	48.7095
 1.9070	48.6476
 1.9060	48.6890
 1.9050	48.5443
 1.9040	48.6703
 1.9030	48.6053
 1.9020	48.6965
 1.9010	48.6478
 1.9000	48.6601
 1.8990	48.6080
 1.8980	48.7136
 1.8970	48.6904
 1.8960	48.7456
 1.8950	48.7320
 1.8940	48.7479
 1.8930	48.7085
 1.8920	48.8022
 1.8910	48.7372
 1.8900	48.7805
 1.8890	48.7785
 1.8880	48.7399
 1.8870	48.7808
 1.8860	48.8180
 1.8850	48.7326
 1.8840	48.8517
 1.8830	48.7761
 1.8820	48.7792
 1.8810	48.8111
 1.8800	48.8713
 1.8790	48.8542
 1.8780	48.8897
 1.8770	48.8788
 1.8760	48.9377
 1.8750	48.8197
 1.8740	48.8435
 1.8730	48.8383
 1.8720	48.8409
 1.8710	48.7954
 1.8700	48.8381
 1.8690	48.7594
 1.8680	48.8060
 1.8670	48.8698
 1.8660	48.8276
 1.8650	48.8419
 1.8640	48.9261
 1.8630	48.9071
 1.8620	48.9186
 1.8610	48.9006
 1.8600	48.8769
 1.8590	48.8538
 1.8580	48.9215
 1.8570	48.9422
 1.8560	48.9085
 1.8550	48.9315
 1.8540	48.9550
 1.8530	48.9018
 1.8520	48.9207
 1.8510	48.8642
 1.8500	48.9026
 1.8490	48.8233
 1.8480	48.9436
 1.8470	48.9024
 1.8460	48.8862
 1.8450	48.9267
 1.8440	48.9130
 1.8430	48.9516
 1.8420	48.9718
 1.8410	48.8714
 1.8400	48.8596
 1.8390	48.8939
 1.8380	48.9531
 1.8370	48.8993
 1.8360	48.8363
 1.8350	48.8595
 1.8340	48.8874
 1.8330	48.8405
 1.8320	48.8865
 1.8310	48.8587
 1.8300	48.8746
 1.8290	48.8784
 1.8280	48.9185
 1.8270	48.9168
 1.8260	48.8927
 1.8250	48.8251
 1.8240	48.8797
 1.8230	48.9157
 1.8220	48.9334
 1.8210	48.9107
 1.8200	48.8790
 1.8190	48.8408
 1.8180	48.8151
 1.8170	48.8358
 1.8160	48.9121
 1.8150	48.9007
 1.8140	48.8740
 1.8130	48.8772
 1.8120	48.8741
 1.8110	48.8834
 1.8100	48.9134
 1.8090	48.8857
 1.8080	48.8835
 1.8070	48.8687
 1.8060	48.8878
 1.8050	48.9070
 1.8040	48.9134
 1.8030	48.8609
 1.8020	48.9031
 1.8010	48.9039
 1.8000	48.9020
 1.7990	48.8867
 1.7980	48.8759
 1.7970	48.8861
 1.7960	48.8715
 1.7950	48.9012
 1.7940	48.9243
 1.7930	48.9384
 1.7920	48.9518
 1.7910	48.8562
 1.7900	48.8340
 1.7890	48.8599
 1.7880	48.8344
 1.7870	48.8605
 1.7860	48.8603
 1.7850	48.8425
 1.7840	48.8738
 1.7830	48.8793
 1.7820	48.9133
 1.7810	48.8826
 1.7800	48.8267
 1.7790	48.8364
 1.7780	48.8349
 1.7770	48.8140
 1.7760	48.8437
 1.7750	48.8308
 1.7740	48.7772
 1.7730	48.7808
 1.7720	48.8065
 1.7710	48.8095
 1.7700	48.8096
 1.7690	48.8907
 1.7680	48.8168
 1.7670	48.7891
 1.7660	48.8280
 1.7650	48.8605
 1.7640	48.8461
 1.7630	48.8611
 1.7620	48.8452
 1.7610	48.8203
 1.7600	48.7904
 1.7590	48.8007
 1.7580	48.8323
 1.7570	48.8273
 1.7560	48.8096
 1.7550	48.8646
 1.7540	48.8227
 1.7530	48.8105
 1.7520	48.8096
 1.7510	48.7302
 1.7500	48.7566
 1.7490	48.8315
 1.7480	48.8126
 1.7470	48.8045
 1.7460	48.8122
 1.7450	48.8091
 1.7440	48.7767
 1.7430	48.8383
 1.7420	48.8312
 1.7410	48.8191
 1.7400	48.8400
 1.7390	48.8392
 1.7380	48.8182
 1.7370	48.8149
 1.7360	48.7864
 1.7350	48.8443
 1.7340	48.8204
 1.7330	48.8301
 1.7320	48.8053
 1.7310	48.8169
 1.7300	48.7914
 1.7290	48.8793
 1.7280	48.8482
 1.7270	48.8641
 1.7260	48.8578
 1.7250	48.8578
 1.7240	48.7810
 1.7230	48.8804
 1.7220	48.8232
 1.7210	48.7799
 1.7200	48.7761
 1.7190	48.8224
 1.7180	48.8553
 1.7170	48.8558
 1.7160	48.8496
 1.7150	48.8615
 1.7140	48.7735
 1.7130	48.7926
 1.7120	48.8400
 1.7110	48.8083
 1.7100	48.7985
 1.7090	48.8014
 1.7080	48.8357
 1.7070	48.8253
 1.7060	48.7697
 1.7050	48.8085
 1.7040	48.7624
 1.7030	48.7929
 1.7020	48.7812
 1.7010	48.8232
 1.7000	48.7694
 1.6990	48.7645
 1.6980	48.6952
 1.6970	48.7949
 1.6960	48.8266
 1.6950	48.7559
 1.6940	48.7075
 1.6930	48.7530
 1.6920	48.7335
 1.6910	48.7783
 1.6900	48.7405
 1.6890	48.7432
 1.6880	48.7337
 1.6870	48.7992
 1.6860	48.7724
 1.6850	48.7863
 1.6840	48.8248
 1.6830	48.7638
 1.6820	48.7111
 1.6810	48.7859
 1.6800	48.7516
 1.6790	48.7590
 1.6780	48.7034
 1.6770	48.7610
 1.6760	48.7043
 1.6750	48.6763
 1.6740	48.7060
 1.6730	48.7534
 1.6720	48.7693
 1.6710	48.7666
 1.6700	48.7098
 1.6690	48.8790
 1.6680	48.6694
 1.6670	48.7731
 1.6660	48.7008
 1.6650	48.7263
 1.6640	48.6965
 1.6630	48.7889
 1.6620	48.7332
 1.6610	48.7823
 1.6600	48.7681
 1.6590	48.7456
 1.6580	48.6806
 1.6570	48.8307
 1.6560	48.7284
 1.6550	48.7817
 1.6540	48.6945
 1.6530	48.8332
 1.6520	48.6981
 1.6510	48.7736
 1.6500	48.7284
 1.6490	48.8229
 1.6480	48.7845
 1.6470	48.8334
 1.6460	48.7369
 1.6450	48.7808
 1.6440	48.6908
 1.6430	48.8157
 1.6420	48.7901
 1.6410	48.6400
 1.6400	48.7411
 1.6390	48.6923
 1.6380	48.7622
 1.6370	48.7198
 1.6360	48.7039
 1.6350	48.7985
 1.6340	48.6911
 1.6330	48.7358
 1.6320	48.5948
 1.6310	48.7112
 1.6300	48.7424
 1.6290	48.8056
 1.6280	48.6806
 1.6270	48.7656
 1.6260	48.7620
 1.6250	48.7334
 1.6240	48.7458
 1.6230	48.7463
 1.6220	48.6771
 1.6210	48.7745
 1.6200	48.7339
 1.6190	48.6967
 1.6180	48.6983
 1.6170	48.8261
 1.6160	48.7738
 1.6150	48.8116
 1.6140	48.7607
 1.6130	48.7949
 1.6120	48.7078
 1.6110	48.7301
 1.6100	48.7470
 1.6090	48.7791
 1.6080	48.7294
 1.6070	48.7570
 1.6060	48.7344
 1.6050	48.7848
 1.6040	48.7313
 1.6030	48.7422
 1.6020	48.6476
 1.6010	48.7607
 1.6000	48.8655
 1.5990	48.6956
 1.5980	48.7650
 1.5970	48.7336
 1.5960	48.7625
 1.5950	48.8339
 1.5940	48.7712
 1.5930	48.7788
 1.5920	48.7430
 1.5910	48.7356
 1.5900	48.7242
 1.5890	48.8249
 1.5880	48.7785
 1.5870	48.7754
 1.5860	48.7379
 1.5850	48.7569
 1.5840	48.7297
 1.5830	48.7869
 1.5820	48.7234
 1.5810	48.7571
 1.5800	48.7469
 1.5790	48.7354
 1.5780	48.7185
 1.5770	48.8073
 1.5760	48.7419
 1.5750	48.7184
 1.5740	48.7206
 1.5730	48.7503
 1.5720	48.7402
 1.5710	48.7200
 1.5700	48.7387
 1.5690	48.7452
 1.5680	48.6578
 1.5670	48.7721
 1.5660	48.7454
 1.5650	48.7195
 1.5640	48.6689
 1.5630	48.7397
 1.5620	48.7327
 1.5610	48.7446
 1.5600	48.7522
 1.5590	48.7866
 1.5580	48.7538
 1.5570	48.7995
 1.5560	48.7137
 1.5550	48.7133
 1.5540	48.7072
 1.5530	48.7683
 1.5520	48.7205
 1.5510	48.7071
 1.5500	48.7100
 1.5490	48.7342
 1.5480	48.7516
 1.5470	48.7683
 1.5460	48.7068
 1.5450	48.7165
 1.5440	48.7386
 1.5430	48.7146
 1.5420	48.7140
 1.5410	48.7343
 1.5400	48.7145
 1.5390	48.7361
 1.5380	48.7294
 1.5370	48.7677
 1.5360	48.7426
 1.5350	48.7503
 1.5340	48.7210
 1.5330	48.7500
 1.5320	48.7227
 1.5310	48.7249
 1.5300	48.7261
 1.5290	48.7456
 1.5280	48.7391
 1.5270	48.7463
 1.5260	48.6984
 1.5250	48.7125
 1.5240	48.7192
 1.5230	48.6893
 1.5220	48.6892
 1.5210	48.7166
 1.5200	48.7463
 1.5190	48.7908
 1.5180	48.7502
 1.5170	48.6988
 1.5160	48.7014
 1.5150	48.7084
 1.5140	48.6729
 1.5130	48.6672
 1.5120	48.7170
 1.5110	48.8102
 1.5100	48.7806
 1.5090	48.7290
 1.5080	48.6996
 1.5070	48.7323
 1.5060	48.7296
 1.5050	48.7098
 1.5040	48.7031
 1.5030	48.6997
 1.5020	48.7005
 1.5010	48.7001
 1.5000	48.6962
 1.4990	48.6747
 1.4980	48.7274
 1.4970	48.7768
 1.4960	48.7652
 1.4950	48.7539
 1.4940	48.7103
 1.4930	48.7148
 1.4920	48.7221
 1.4910	48.7066
 1.4900	48.7747
 1.4890	48.7407
 1.4880	48.6765
 1.4870	48.7371
 1.4860	48.7696
 1.4850	48.7303
 1.4840	48.7455
 1.4830	48.7620
 1.4820	48.7036
 1.4810	48.6601
 1.4800	48.7246
 1.4790	48.7527
 1.4780	48.7607
 1.4770	48.7693
 1.4760	48.6983
 1.4750	48.6592
 1.4740	48.7083
 1.4730	48.7507
 1.4720	48.7830
 1.4710	48.7519
 1.4700	48.6996
 1.4690	48.6657
 1.4680	48.6899
 1.4670	48.7171
 1.4660	48.7030
 1.4650	48.6832
 1.4640	48.6757
 1.4630	48.7160
 1.4620	48.7055
 1.4610	48.7588
 1.4600	48.7632
 1.4590	48.6977
 1.4580	48.7661
 1.4570	48.7463
 1.4560	48.7625
 1.4550	48.7606
 1.4540	48.7276
 1.4530	48.7169
 1.4520	48.7209
 1.4510	48.6828
 1.4500	48.7767
 1.4490	48.7318
 1.4480	48.7551
 1.4470	48.7201
 1.4460	48.7095
 1.4450	48.6921
 1.4440	48.7331
 1.4430	48.6778
 1.4420	48.7347
 1.4410	48.7572
 1.4400	48.8160
 1.4390	48.7817
 1.4380	48.7953
 1.4370	48.7238
 1.4360	48.7612
 1.4350	48.7049
 1.4340	48.7228
 1.4330	48.7450
 1.4320	48.7175
 1.4310	48.6843
 1.4300	48.7688
 1.4290	48.7566
 1.4280	48.7270
 1.4270	48.7703
 1.4260	48.7476
 1.4250	48.6899
 1.4240	48.7262
 1.4230	48.7173
 1.4220	48.7543
 1.4210	48.7353
 1.4200	48.7725
 1.4190	48.6724
 1.4180	48.7249
 1.4170	48.7102
 1.4160	48.6991
 1.4150	48.7339
 1.4140	48.6381
 1.4130	48.6330
 1.4120	48.6605
 1.4110	48.7169
 1.4100	48.8056
 1.4090	48.7651
 1.4080	48.7696
 1.4070	48.7101
 1.4060	48.6835
 1.4050	48.6113
 1.4040	48.6882
 1.4030	48.7139
 1.4020	48.8496
 1.4010	48.8234
 1.4000	48.6940
 1.3990	48.6957
 1.3980	48.8418
 1.3970	48.7810
 1.3960	48.8295
 1.3950	48.9090
 1.3940	48.8125
 1.3930	48.7335
 1.3920	48.7735
 1.3910	48.8422
 1.3900	48.9383
 1.3890	48.9079
 1.3880	48.9581
 1.3870	48.8955
 1.3860	48.9645
 1.3850	48.8816
 1.3840	48.9301
 1.3830	48.9602
 1.3820	48.8491
 1.3810	48.8113
 1.3800	48.9193
 1.3790	48.8496
 1.3780	48.9587
 1.3770	48.9564
 1.3760	48.9947
 1.3750	48.9517
 1.3740	48.9631
 1.3730	49.0246
 1.3720	49.0576
 1.3710	48.9287
 1.3700	48.9451
 1.3690	48.9836
 1.3680	48.9352
 1.3670	48.8642
 1.3660	48.8604
 1.3650	48.9203
 1.3640	48.9872
 1.3630	49.0601
 1.3620	48.9244
 1.3610	48.8916
 1.3600	48.9290
 1.3590	48.8303
 1.3580	48.9724
 1.3570	48.9055
 1.3560	49.0494
 1.3550	48.8733
 1.3540	49.0068
 1.3530	48.8812
 1.3520	48.8716
 1.3510	48.9492
 1.3500	48.9170
 1.3490	49.0023
 1.3480	49.0376
 1.3470	48.8879
 1.3460	48.9087
 1.3450	48.9507
 1.3440	49.0057
 1.3430	48.9498
 1.3420	49.0050
 1.3410	48.9272
 1.3400	49.0412
 1.3390	48.9764
 1.3380	48.9807
 1.3370	48.9395
 1.3360	48.9748
 1.3350	48.9028
 1.3340	48.9797
 1.3330	48.9341
 1.3320	48.9680
 1.3310	48.9949
 1.3300	48.9937
 1.3290	48.9839
 1.3280	48.9777
 1.3270	48.8959
 1.3260	48.9710
 1.3250	48.9787
 1.3240	49.0071
 1.3230	49.0371
 1.3220	49.0235
 1.3210	49.0166
 1.3200	48.9610
 1.3190	49.0291
 1.3180	49.0326
 1.3170	48.9458
 1.3160	49.0755
 1.3150	49.0316
 1.3140	49.0214
 1.3130	49.0112
 1.3120	49.0307
 1.3110	49.0574
 1.3100	49.0497
 1.3090	49.0376
 1.3080	49.0390
 1.3070	48.9693
 1.3060	49.0570
 1.3050	48.9621
 1.3040	49.0440
 1.3030	49.0299
 1.3020	49.0232
 1.3010	49.0008
 1.3000	49.1326
 1.2990	49.0203
 1.2980	49.0940
 1.2970	49.1211
 1.2960	49.0795
 1.2950	49.0552
 1.2940	49.0577
 1.2930	49.0739
 1.2920	49.0426
 1.2910	49.0299
 1.2900	49.0563
 1.2890	49.0698
 1.2880	49.1105
 1.2870	49.1138
 1.2860	49.0906
 1.2850	49.0749
 1.2840	49.0993
 1.2830	49.1059
 1.2820	49.1466
 1.2810	49.0912
 1.2800	49.1079
 1.2790	49.0694
 1.2780	49.0931
 1.2770	49.1151
 1.2760	49.0999
 1.2750	49.1331
 1.2740	49.1226
 1.2730	49.0827
 1.2720	49.1381
 1.2710	49.0758
 1.2700	49.0668
 1.2690	49.0682
 1.2680	49.0668
 1.2670	49.1075
 1.2660	49.1741
 1.2650	49.1462
 1.2640	49.1230
 1.2630	49.1293
 1.2620	49.1644
 1.2610	49.1506
 1.2600	49.1369
 1.2590	49.1761
 1.2580	49.1806
 1.2570	49.1244
 1.2560	49.1379
 1.2550	49.1746
 1.2540	49.1591
 1.2530	49.1460
 1.2520	49.2293
 1.2510	49.2110
 1.2500	49.2344
 1.2490	49.2032
 1.2480	49.1744
 1.2470	49.1911
 1.2460	49.2082
 1.2450	49.1736
 1.2440	49.2328
 1.2430	49.2188
 1.2420	49.2082
 1.2410	49.1573
 1.2400	49.1903
 1.2390	49.2614
 1.2380	49.2482
 1.2370	49.2451
 1.2360	49.2582
 1.2350	49.2527
 1.2340	49.2524
 1.2330	49.2118
 1.2320	49.2515
 1.2310	49.2447
 1.2300	49.2585
 1.2290	49.2700
 1.2280	49.2687
 1.2270	49.2752
 1.2260	49.3151
 1.2250	49.3379
 1.2240	49.3112
 1.2230	49.2995
 1.2220	49.3189
 1.2210	49.2870
 1.2200	49.2338
 1.2190	49.2780
 1.2180	49.2986
 1.2170	49.3186
 1.2160	49.3489
 1.2150	49.3642
 1.2140	49.3724
 1.2130	49.3364
 1.2120	49.2887
 1.2110	49.3186
 1.2100	49.3342
 1.2090	49.3524
 1.2080	49.3300
 1.2070	49.3540
 1.2060	49.3836
 1.2050	49.3983
 1.2040	49.3914
 1.2030	49.3197
 1.2020	49.3037
 1.2010	49.3727
 1.2000	49.3600
 1.1990	49.3923
 1.1980	49.4216
 1.1970	49.4000
 1.1960	49.3775
 1.1950	49.4145
 1.1940	49.4145
 1.1930	49.4384
 1.1920	49.4108
 1.1910	49.4421
 1.1900	49.4974
 1.1890	49.4965
 1.1880	49.3443
 1.1870	49.4079
 1.1860	49.4385
 1.1850	49.4429
 1.1840	49.5087
 1.1830	49.5382
 1.1820	49.5536
 1.1810	49.5638
 1.1800	49.5370
 1.1790	49.4872
 1.1780	49.4640
 1.1770	49.5262
 1.1760	49.5086
 1.1750	49.5462
 1.1740	49.5595
 1.1730	49.5767
 1.1720	49.5473
 1.1710	49.5343
 1.1700	49.5209
 1.1690	49.6416
 1.1680	49.6162
 1.1670	49.5503
 1.1660	49.5520
 1.1650	49.6364
 1.1640	49.6215
 1.1630	49.6563
 1.1620	49.6484
 1.1610	49.6118
 1.1600	49.6057
 1.1590	49.6266
 1.1580	49.6033
 1.1570	49.5855
 1.1560	49.6071
 1.1550	49.6500
 1.1540	49.6477
 1.1530	49.7138
 1.1520	49.6754
 1.1510	49.6667
 1.1500	49.6502
 1.1490	49.6890
 1.1480	49.7779
 1.1470	49.7541
 1.1460	49.6197
 1.1450	49.6292
 1.1440	49.6394
 1.1430	49.6821
 1.1420	49.7235
 1.1410	49.7387
 1.1400	49.7169
 1.1390	49.7656
 1.1380	49.8083
 1.1370	49.8595
 1.1360	49.7775
 1.1350	49.7677
 1.1340	49.7673
 1.1330	49.7827
 1.1320	49.7533
 1.1310	49.8326
 1.1300	49.8658
 1.1290	49.8335
 1.1280	49.7685
 1.1270	49.8236
 1.1260	49.7822
 1.1250	49.8374
 1.1240	49.7485
 1.1230	49.8214
 1.1220	49.8450
 1.1210	49.8573
 1.1200	49.8619
 1.1190	49.8581
 1.1180	49.8283
 1.1170	49.9045
 1.1160	49.8611
 1.1150	49.9573
 1.1140	49.8599
 1.1130	49.8163
 1.1120	49.8655
 1.1110	49.9103
 1.1100	49.9295
 1.1090	49.9961
 1.1080	49.9815
 1.1070	49.9903
 1.1060	49.9026
 1.1050	49.8922
 1.1040	49.9250
 1.1030	49.9328
 1.1020	49.9540
 1.1010	49.9885
 1.1000	49.9093
 1.0990	50.0329
 1.0980	50.0187
 1.0970	50.0654
 1.0960	49.9762
 1.0950	50.0660
 1.0940	49.9668
 1.0930	50.0276
 1.0920	50.0245
 1.0910	50.0732
 1.0900	50.1065
 1.0890	50.0779
 1.0880	50.0094
 1.0870	50.1126
 1.0860	50.0426
 1.0850	50.0735
 1.0840	50.1566
 1.0830	50.0658
 1.0820	50.0673
 1.0810	50.1233
 1.0800	50.1691
 1.0790	50.1581
 1.0780	50.1224
 1.0770	50.0971
 1.0760	50.0940
 1.0750	50.1778
 1.0740	50.1844
 1.0730	50.2569
 1.0720	50.1637
 1.0710	50.2988
 1.0700	50.0781
 1.0690	50.2575
 1.0680	50.2050
 1.0670	50.2595
 1.0660	50.1775
 1.0650	50.3028
 1.0640	50.2178
 1.0630	50.2165
 1.0620	50.2433
 1.0610	50.2885
 1.0600	50.2532
 1.0590	50.3138
 1.0580	50.3170
 1.0570	50.2872
 1.0560	50.2914
 1.0550	50.3352
 1.0540	50.3157
 1.0530	50.2883
 1.0520	50.3416
 1.0510	50.3579
 1.0500	50.3460
 1.0490	50.3039
 1.0480	50.3327
 1.0470	50.3785
 1.0460	50.3554
 1.0450	50.3780
 1.0440	50.4387
 1.0430	50.4473
 1.0420	50.3658
 1.0410	50.4257
 1.0400	50.3709
 1.0390	50.4487
 1.0380	50.3417
 1.0370	50.4720
 1.0360	50.4396
 1.0350	50.5033
 1.0340	50.4500
 1.0330	50.3830
 1.0320	50.4088
 1.0310	50.5197
 1.0300	50.5212
 1.0290	50.4754
 1.0280	50.4740
 1.0270	50.5005
 1.0260	50.5314
 1.0250	50.6170
 1.0240	50.5500
 1.0230	50.5221
 1.0220	50.5228
 1.0210	50.5052
 1.0200	50.5716
 1.0190	50.6029
 1.0180	50.5025
 1.0170	50.5786
 1.0160	50.5796
 1.0150	50.6027
 1.0140	50.5791
 1.0130	50.6174
 1.0120	50.6508
 1.0110	50.6142
 1.0100	50.5653
 1.0090	50.6612
 1.0080	50.5696
 1.0070	50.6063
 1.0060	50.5857
 1.0050	50.6320
 1.0040	50.6778
 1.0030	50.6524
 1.0020	50.6084
 1.0010	50.6445
 1.0000	50.6044
 0.9990	50.6478
 0.9980	50.5752
 0.9970	50.6917
 0.9960	50.6393
 0.9950	50.6835
 0.9940	50.6474
 0.9930	50.6992
 0.9920	50.7386
 0.9910	50.7086
 0.9900	50.6279
 0.9890	50.6851
 0.9880	50.6890
 0.9870	50.7202
 0.9860	50.7898
 0.9850	50.7524
 0.9840	50.6876
 0.9830	50.7407
 0.9820	50.6856
 0.9810	50.7596
 0.9800	50.7693
 0.9790	50.7421
 0.9780	50.7846
 0.9770	50.8013
 0.9760	50.6558
 0.9750	50.6785
 0.9740	50.7545
 0.9730	50.8018
 0.9720	50.7942
 0.9710	50.7519
 0.9700	50.7774
 0.9690	50.7971
 0.9680	50.7972
 0.9670	50.7614
 0.9660	50.6794
 0.9650	50.7411
 0.9640	50.8012
 0.9630	50.8050
 0.9620	50.8227
 0.9610	50.7833
 0.9600	50.7681
 0.9590	50.8108
 0.9580	50.8032
 0.9570	50.7688
 0.9560	50.7843
 0.9550	50.7939
 0.9540	50.7892
 0.9530	50.8598
 0.9520	50.8290
 0.9510	50.7556
 0.9500	50.7657
 0.9490	50.7840
 0.9480	50.7623
 0.9470	50.7622
 0.9460	50.7262
 0.9450	50.7780
 0.9440	50.8044
 0.9430	50.7844
 0.9420	50.7468
 0.9410	50.7898
 0.9400	50.8190
 0.9390	50.7800
 0.9380	50.7600
 0.9370	50.7805
 0.9360	50.7518
 0.9350	50.7817
 0.9340	50.8005
 0.9330	50.8073
 0.9320	50.8229
 0.9310	50.8192
 0.9300	50.7862
 0.9290	50.7461
 0.9280	50.7914
 0.9270	50.8207
 0.9260	50.8074
 0.9250	50.7805
 0.9240	50.7747
 0.9230	50.7600
 0.9220	50.7575
 0.9210	50.8291
 0.9200	50.8315
 0.9190	50.7115
 0.9180	50.7460
 0.9170	50.7798
 0.9160	50.7425
 0.9150	50.7288
 0.9140	50.7397
 0.9130	50.6813
 0.9120	50.7263
 0.9110	50.7537
 0.9100	50.7459
 0.9090	50.6757
 0.9080	50.6979
 0.9070	50.6749
 0.9060	50.6603
 0.9050	50.6918
 0.9040	50.7294
 0.9030	50.6974
 0.9020	50.6615
 0.9010	50.6441
 0.9000	50.6882
 0.8990	50.6352
 0.8980	50.6220
 0.8970	50.6461
 0.8960	50.6323
 0.8950	50.6978
 0.8940	50.7402
 0.8930	50.6887
 0.8920	50.6297
 0.8910	50.5869
 0.8900	50.6137
 0.8890	50.6251
 0.8880	50.6279
 0.8870	50.6129
 0.8860	50.6217
 0.8850	50.5709
 0.8840	50.5599
 0.8830	50.5324
 0.8820	50.5403
 0.8810	50.5996
 0.8800	50.5937
 0.8790	50.5663
 0.8780	50.5736
 0.8770	50.5605
 0.8760	50.5922
 0.8750	50.6165
 0.8740	50.5520
 0.8730	50.5451
 0.8720	50.4953
 0.8710	50.5027
 0.8700	50.5339
 0.8690	50.4788
 0.8680	50.5175
 0.8670	50.5381
 0.8660	50.5333
 0.8650	50.4797
 0.8640	50.5073
 0.8630	50.5193
 0.8620	50.5138
 0.8610	50.4906
 0.8600	50.4270
 0.8590	50.4438
 0.8580	50.4220
 0.8570	50.4088
 0.8560	50.4202
 0.8550	50.3921
 0.8540	50.3992
 0.8530	50.4245
 0.8520	50.4385
 0.8510	50.3404
 0.8500	50.3835
 0.8490	50.3855
 0.8480	50.3704
 0.8470	50.3570
 0.8460	50.4134
 0.8450	50.3652
 0.8440	50.3918
 0.8430	50.4033
 0.8420	50.3338
 0.8410	50.3325
 0.8400	50.3678
 0.8390	50.3244
 0.8380	50.3218
 0.8370	50.3572
 0.8360	50.3283
 0.8350	50.3381
 0.8340	50.3055
 0.8330	50.3077
 0.8320	50.2422
 0.8310	50.2974
 0.8300	50.3298
 0.8290	50.3095
 0.8280	50.2776
 0.8270	50.2758
 0.8260	50.2734
 0.8250	50.2488
 0.8240	50.2502
 0.8230	50.2368
 0.8220	50.2240
 0.8210	50.2466
 0.8200	50.2156
 0.8190	50.1995
 0.8180	50.2344
 0.8170	50.2202
 0.8160	50.1826
 0.8150	50.1993
 0.8140	50.2047
 0.8130	50.1702
 0.8120	50.1579
 0.8110	50.1832
 0.8100	50.1544
 0.8090	50.1532
 0.8080	50.1480
 0.8070	50.1249
 0.8060	50.1315
 0.8050	50.1849
 0.8040	50.1367
 0.8030	50.1137
 0.8020	50.1508
 0.8010	50.1098
 0.8000	50.0799
 0.7990	50.0612
 0.7980	50.0243
 0.7970	50.0388
 0.7960	50.0000
 0.7950	49.9857
 0.7940	49.9794
 0.7930	49.9715
 0.7920	49.9934
 0.7910	49.9322
 0.7900	49.9240
 0.7890	49.9400
 0.7880	49.9184
 0.7870	49.8926
 0.7860	49.9189
 0.7850	49.8705
 0.7840	49.8671
 0.7830	49.8516
 0.7820	49.8275
 0.7810	49.8379
 0.7800	49.7908
 0.7790	49.8037
 0.7780	49.7542
 0.7770	49.7604
 0.7760	49.7410
 0.7750	49.7164
 0.7740	49.7002
 0.7730	49.6629
 0.7720	49.6801
 0.7710	49.6519
 0.7700	49.6513
 0.7690	49.6186
 0.7680	49.6155
 0.7670	49.6080
 0.7660	49.5645
 0.7650	49.5441
 0.7640	49.5243
 0.7630	49.5201
 0.7620	49.4941
 0.7610	49.4852
 0.7600	49.4692
 0.7590	49.4562
 0.7580	49.4357
 0.7570	49.4119
 0.7560	49.3729
 0.7550	49.3793
 0.7540	49.3598
 0.7530	49.3255
 0.7520	49.3036
 0.7510	49.2818
 0.7500	49.2528
 0.7490	49.2435
 0.7480	49.2355
 0.7470	49.1963
 0.7460	49.1969
 0.7450	49.1804
 0.7440	49.1583
 0.7430	49.1151
 0.7420	49.1124
 0.7410	49.0752
 0.7400	49.0691
 0.7390	49.0468
 0.7380	49.0059
 0.7370	48.9878
 0.7360	48.9772
 0.7350	48.9435
 0.7340	48.9281
 0.7330	48.8998
 0.7320	48.8694
 0.7310	48.8599
 0.7300	48.8438
 0.7290	48.8004
 0.7280	48.7712
 0.7270	48.7783
 0.7260	48.7393
 0.7250	48.7309
 0.7240	48.7074
 0.7230	48.6856
 0.7220	48.6456
 0.7210	48.6366
 0.7200	48.5977
 0.7190	48.5719
 0.7180	48.5617
 0.7170	48.5356
 0.7160	48.5045
 0.7150	48.4895
 0.7140	48.4667
 0.7130	48.4316
 0.7120	48.4082
 0.7110	48.3889
 0.7100	48.3806
 0.7090	48.3412
 0.7080	48.3124
 0.7070	48.2966
 0.7060	48.2749
 0.7050	48.2424
 0.7040	48.2206
 0.7030	48.2090
 0.7020	48.1763
 0.7010	48.1641
 0.7000	48.1416
 0.6990	48.0957
 0.6980	48.0812
 0.6970	48.0631
 0.6960	48.0534
 0.6950	48.0295
 0.6940	48.0023
 0.6930	47.9796
 0.6920	47.9408
 0.6910	47.9282
 0.6900	47.9095
 0.6890	47.8891
 0.6880	47.8712
 0.6870	47.8456
 0.6860	47.8148
 0.6850	47.7980
 0.6840	47.7791
 0.6830	47.7675
 0.6820	47.7343
 0.6810	47.7126
 0.6800	47.6970
 0.6790	47.6733
 0.6780	47.6512
 0.6770	47.6267
 0.6760	47.6011
 0.6750	47.5817
 0.6740	47.5654
 0.6730	47.5500
 0.6720	47.5295
 0.6710	47.5092
 0.6700	47.4902
 0.6690	47.4764
 0.6680	47.4601
 0.6670	47.4394
 0.6660	47.4219
 0.6650	47.4048
 0.6640	47.3800
 0.6630	47.3520
 0.6620	47.3291
 0.6610	47.3118
 0.6600	47.3057
 0.6590	47.2886
 0.6580	47.2675
 0.6570	47.2509
 0.6560	47.2329
 0.6550	47.2119
 0.6540	47.2011
 0.6530	47.1839
 0.6520	47.1582
 0.6510	47.1419
 0.6500	47.1310
 0.6490	47.1128
 0.6480	47.1011
 0.6470	47.0911
 0.6460	47.0694
 0.6450	47.0501
 0.6440	47.0268
 0.6430	47.0074
 0.6420	46.9989
 0.6410	46.9869
 0.6400	46.9730
 0.6390	46.9461
 0.6380	46.9197
 0.6370	46.9140
 0.6360	46.8995
 0.6350	46.8862
 0.6340	46.8699
 0.6330	46.8503
 0.6320	46.8318
 0.6310	46.8132
 0.6300	46.8020
 0.6290	46.7891
 0.6280	46.7674
 0.6270	46.7533
 0.6260	46.7414
 0.6250	46.7230
 0.6240	46.7087
 0.6230	46.6980
 0.6220	46.6802
 0.6210	46.6589
 0.6200	46.6485
 0.6190	46.6301
 0.6180	46.6090
 0.6170	46.5944
 0.6160	46.5770
 0.6150	46.5648
 0.6140	46.5571
 0.6130	46.5443
 0.6120	46.5193
 0.6110	46.5047
 0.6100	46.4925
 0.6090	46.4794
 0.6080	46.4565
 0.6070	46.4338
 0.6060	46.4249
 0.6050	46.4145
 0.6040	46.3955
 0.6030	46.3796
 0.6020	46.3579
 0.6010	46.3394
 0.6000	46.3156
 0.5990	46.3035
 0.5980	46.3000
 0.5970	46.2967
 0.5960	46.2854
 0.5950	46.2753
 0.5940	46.2499
 0.5930	46.2365
 0.5920	46.2246
 0.5910	46.2048
 0.5900	46.1781
 0.5890	46.1564
 0.5880	46.1326
 0.5870	46.1073
 0.5860	46.0920
 0.5850	46.0740
 0.5840	46.0524
 0.5830	46.0343
 0.5820	46.0045
 0.5810	45.9850
 0.5800	45.9713
 0.5790	45.9505
 0.5780	45.9287
 0.5770	45.9028
 0.5760	45.8756
 0.5750	45.8617
 0.5740	45.8384
 0.5730	45.8088
 0.5720	45.7858
 0.5710	45.7640
 0.5700	45.7384
 0.5690	45.7168
 0.5680	45.6912
 0.5670	45.6783
 0.5660	45.6544
 0.5650	45.6363
 0.5640	45.6083
 0.5630	45.5848
 0.5620	45.5633
 0.5610	45.5299
 0.5600	45.5067
 0.5590	45.4880
 0.5580	45.4726
 0.5570	45.4445
 0.5560	45.4221
 0.5550	45.4002
 0.5540	45.3780
 0.5530	45.3623
 0.5520	45.3518
 0.5510	45.3268
 0.5500	45.3204
 0.5490	45.3012
 0.5480	45.2800
 0.5470	45.2628
 0.5460	45.2534
 0.5450	45.2411
 0.5440	45.2200
 0.5430	45.2019
 0.5420	45.1942
 0.5410	45.1820
 0.5400	45.1722
 0.5390	45.1565
 0.5380	45.1448
 0.5370	45.1381
 0.5360	45.1312
 0.5350	45.1250
 0.5340	45.1102
 0.5330	45.1046
 0.5320	45.0913
 0.5310	45.0821
 0.5300	45.0686
 0.5290	45.0648
 0.5280	45.0640
 0.5270	45.0530
 0.5260	45.0446
 0.5250	45.0404
 0.5240	45.0298
 0.5230	45.0300
 0.5220	45.0177
 0.5210	45.0144
 0.5200	45.0063
 0.5190	44.9953
 0.5180	44.9845
 0.5170	44.9761
 0.5160	44.9796
 0.5150	44.9722
 0.5140	44.9588
 0.5130	44.9578
 0.5120	44.9419
 0.5110	44.9363
 0.5100	44.9313
 0.5090	44.9186
 0.5080	44.9096
 0.5070	44.8946
 0.5060	44.8995
 0.5050	44.8931
 0.5040	44.8781
 0.5030	44.8734
 0.5020	44.8493
 0.5010	44.8562
 0.5000	44.8381
 0.4990	44.8187
 0.4980	44.8169
 0.4970	44.8054
 0.4960	44.8022
 0.4950	44.7860
 0.4940	44.7855
 0.4930	44.7625
 0.4920	44.7612
 0.4910	44.7495
 0.4900	44.7404
 0.4890	44.7316
 0.4880	44.7295
 0.4870	44.7105
 0.4860	44.6827
 0.4850	44.6814
 0.4840	44.6544
 0.4830	44.6516
 0.4820	44.6481
 0.4810	44.6300
 0.4800	44.6493
 0.4790	44.6361
 0.4780	44.6500
 0.4770	44.6519
 0.4760	44.6371
 0.4750	44.6324
 0.4740	44.6448
 0.4730	44.6266
 0.4720	44.6249
 0.4710	44.6309
 0.4700	44.6105
 0.4690	44.6185
 0.4680	44.6161
 0.4670	44.6117
 0.4660	44.6138
 0.4650	44.6073
 0.4640	44.5859
 0.4630	44.5885
 0.4620	44.5911
 0.4610	44.5746
 0.4600	44.5742
 0.4590	44.5656
 0.4580	44.5656
 0.4570	44.5484
 0.4560	44.5332
 0.4550	44.5300
 0.4540	44.5011
 0.4530	44.5033
 0.4520	44.4982
 0.4510	44.4770
 0.4500	44.4637
 0.4490	44.4632
 0.4480	44.4394
 0.4470	44.4369
 0.4460	44.4127
 0.4450	44.3806
 0.4440	44.3676
 0.4430	44.3622
 0.4420	44.3390
 0.4410	44.3209
 0.4400	44.3121
 0.4390	44.3022
 0.4380	44.2862
 0.4370	44.2723
 0.4360	44.2450
 0.4350	44.2214
 0.4340	44.2040
 0.4330	44.1852
 0.4320	44.1670
 0.4310	44.1465
 0.4300	44.1255
 0.4290	44.0890
 0.4280	44.0730
 0.4270	44.0473
 0.4260	44.0315
 0.4250	43.9933
 0.4240	43.9723
 0.4230	43.9629
 0.4220	43.9519
 0.4210	43.9171
 0.4200	43.9128
 0.4190	43.8962
 0.4180	43.8624
 0.4170	43.8330
 0.4160	43.8224
 0.4150	43.8136
 0.4140	43.7836
 0.4130	43.7831
 0.4120	43.7643
 0.4110	43.7490
 0.4100	43.7295
 0.4090	43.6990
 0.4080	43.7064
 0.4070	43.6850
 0.4060	43.6633
 0.4050	43.6426
 0.4040	43.6248
 0.4030	43.5965
 0.4020	43.5713
 0.4010	43.5584
 0.4000	43.5280
