Name: Gahnite ZnAl_2O_4
Type: Mineral
Class: Oxide
Subclass: None
Particle Size: Coarse
Sample No.: O-11A
Owner: JPL
Wavelength Range: VSWIR
Origin: Nigeria, Kaduna, Jemaa, Godogodo Mine.
Collection Date: N/A
Description: Particle size was 125-500um.Collected by:  New, David Original ASTER Spectral Library name was jpl.perkin.mineral.oxide.none.coarse.o11a.spectrum.txt
Measurement: Hemispherical reflectance
First Column: X
Second Column: Y
X Units: Wavelength (micrometers)
Y Units:Reflectance (percent)
First X Value:  2.5000
Last X Value:  0.4000
Number of X Values: 2101
Additional Information: mineral.oxide.none.coarse.vswir.o-11a.jpl.perkin.ancillary.txt

 2.5000	 2.9484
 2.4990	 3.1512
 2.4980	 3.1147
 2.4970	 3.5107
 2.4960	 3.0524
 2.4950	 3.3251
 2.4940	 3.1328
 2.4930	 3.2163
 2.4920	 3.0629
 2.4910	 3.3432
 2.4900	 3.2453
 2.4890	 3.1232
 2.4880	 3.0940
 2.4870	 3.2082
 2.4860	 3.2399
 2.4850	 3.3145
 2.4840	 3.1474
 2.4830	 3.1605
 2.4820	 3.1765
 2.4810	 3.1917
 2.4800	 3.1832
 2.4790	 3.1952
 2.4780	 3.1340
 2.4770	 3.1911
 2.4760	 3.0607
 2.4750	 3.2633
 2.4740	 3.1343
 2.4730	 3.1431
 2.4720	 3.1276
 2.4710	 3.2093
 2.4700	 3.1133
 2.4690	 3.2176
 2.4680	 3.2280
 2.4670	 3.2181
 2.4660	 3.2205
 2.4650	 3.2791
 2.4640	 3.1453
 2.4630	 3.2427
 2.4620	 3.2161
 2.4610	 3.1839
 2.4600	 3.1358
 2.4590	 3.2171
 2.4580	 3.1161
 2.4570	 3.2652
 2.4560	 3.1636
 2.4550	 3.2608
 2.4540	 3.2636
 2.4530	 3.4600
 2.4520	 3.2827
 2.4510	 3.1903
 2.4500	 3.2039
 2.4490	 3.2974
 2.4480	 3.1685
 2.4470	 3.2923
 2.4460	 3.3064
 2.4450	 3.2911
 2.4440	 3.2595
 2.4430	 3.3369
 2.4420	 3.1713
 2.4410	 3.3065
 2.4400	 3.2455
 2.4390	 3.3560
 2.4380	 3.2416
 2.4370	 3.2466
 2.4360	 3.1746
 2.4350	 3.2732
 2.4340	 3.2365
 2.4330	 3.2428
 2.4320	 3.2310
 2.4310	 3.2908
 2.4300	 3.1452
 2.4290	 3.3430
 2.4280	 3.1917
 2.4270	 3.2497
 2.4260	 3.1480
 2.4250	 3.2932
 2.4240	 3.2256
 2.4230	 3.2718
 2.4220	 3.1864
 2.4210	 3.3194
 2.4200	 3.3641
 2.4190	 3.3880
 2.4180	 3.2774
 2.4170	 3.2372
 2.4160	 3.2428
 2.4150	 3.3137
 2.4140	 3.1695
 2.4130	 3.2986
 2.4120	 3.2674
 2.4110	 3.2918
 2.4100	 3.2728
 2.4090	 3.2837
 2.4080	 3.2004
 2.4070	 3.2956
 2.4060	 3.2028
 2.4050	 3.2937
 2.4040	 3.1970
 2.4030	 3.2703
 2.4020	 3.2018
 2.4010	 3.2604
 2.4000	 3.2073
 2.3990	 3.2331
 2.3980	 3.1941
 2.3970	 3.2391
 2.3960	 3.2447
 2.3950	 3.3245
 2.3940	 3.2358
 2.3930	 3.2721
 2.3920	 3.2159
 2.3910	 3.3117
 2.3900	 3.2628
 2.3890	 3.2554
 2.3880	 3.2842
 2.3870	 3.3227
 2.3860	 3.2664
 2.3850	 3.3452
 2.3840	 3.2735
 2.3830	 3.2597
 2.3820	 3.3034
 2.3810	 3.3705
 2.3800	 3.3498
 2.3790	 3.3072
 2.3780	 3.2625
 2.3770	 3.2999
 2.3760	 3.2766
 2.3750	 3.2621
 2.3740	 3.2378
 2.3730	 3.3056
 2.3720	 3.3141
 2.3710	 3.2791
 2.3700	 3.2664
 2.3690	 3.3065
 2.3680	 3.2990
 2.3670	 3.2944
 2.3660	 3.2672
 2.3650	 3.2260
 2.3640	 3.2355
 2.3630	 3.2666
 2.3620	 3.2639
 2.3610	 3.2209
 2.3600	 3.2552
 2.3590	 3.3322
 2.3580	 3.2917
 2.3570	 3.3180
 2.3560	 3.2823
 2.3550	 3.2757
 2.3540	 3.2931
 2.3530	 3.2660
 2.3520	 3.3140
 2.3510	 3.3313
 2.3500	 3.2681
 2.3490	 3.2630
 2.3480	 3.2936
 2.3470	 3.2916
 2.3460	 3.3329
 2.3450	 3.2943
 2.3440	 3.2892
 2.3430	 3.3117
 2.3420	 3.2912
 2.3410	 3.2612
 2.3400	 3.2783
 2.3390	 3.2842
 2.3380	 3.3143
 2.3370	 3.2849
 2.3360	 3.3215
 2.3350	 3.3108
 2.3340	 3.2767
 2.3330	 3.2722
 2.3320	 3.3544
 2.3310	 3.3230
 2.3300	 3.2917
 2.3290	 3.2665
 2.3280	 3.2899
 2.3270	 3.3266
 2.3260	 3.3698
 2.3250	 3.2353
 2.3240	 3.2871
 2.3230	 3.2578
 2.3220	 3.3200
 2.3210	 3.2552
 2.3200	 3.2725
 2.3190	 3.2890
 2.3180	 3.3016
 2.3170	 3.3115
 2.3160	 3.3274
 2.3150	 3.2406
 2.3140	 3.2538
 2.3130	 3.2551
 2.3120	 3.3058
 2.3110	 3.2545
 2.3100	 3.2792
 2.3090	 3.2444
 2.3080	 3.3110
 2.3070	 3.3417
 2.3060	 3.3942
 2.3050	 3.2724
 2.3040	 3.3302
 2.3030	 3.2951
 2.3020	 3.2796
 2.3010	 3.2534
 2.3000	 3.3089
 2.2990	 3.2454
 2.2980	 3.2816
 2.2970	 3.3182
 2.2960	 3.3662
 2.2950	 3.2800
 2.2940	 3.3402
 2.2930	 3.2191
 2.2920	 3.2614
 2.2910	 3.2229
 2.2900	 3.2639
 2.2890	 3.3207
 2.2880	 3.3131
 2.2870	 3.2558
 2.2860	 3.3331
 2.2850	 3.2958
 2.2840	 3.3905
 2.2830	 3.2869
 2.2820	 3.3885
 2.2810	 3.1970
 2.2800	 3.3635
 2.2790	 3.2210
 2.2780	 3.2751
 2.2770	 3.3005
 2.2760	 3.3072
 2.2750	 3.2429
 2.2740	 3.3691
 2.2730	 3.2659
 2.2720	 3.2732
 2.2710	 3.2194
 2.2700	 3.3858
 2.2690	 3.2637
 2.2680	 3.3599
 2.2670	 3.2777
 2.2660	 3.3491
 2.2650	 3.2385
 2.2640	 3.2942
 2.2630	 3.2462
 2.2620	 3.3507
 2.2610	 3.2381
 2.2600	 3.2838
 2.2590	 3.2081
 2.2580	 3.2359
 2.2570	 3.1679
 2.2560	 3.2972
 2.2550	 3.3159
 2.2540	 3.3065
 2.2530	 3.2135
 2.2520	 3.3145
 2.2510	 3.1427
 2.2500	 3.3663
 2.2490	 3.3450
 2.2480	 3.3136
 2.2470	 3.1795
 2.2460	 3.2699
 2.2450	 3.2293
 2.2440	 3.3596
 2.2430	 3.2454
 2.2420	 3.2530
 2.2410	 3.2631
 2.2400	 3.3629
 2.2390	 3.2718
 2.2380	 3.2819
 2.2370	 3.2390
 2.2360	 3.3481
 2.2350	 3.1196
 2.2340	 3.3721
 2.2330	 3.2775
 2.2320	 3.2650
 2.2310	 3.2078
 2.2300	 3.2720
 2.2290	 3.2418
 2.2280	 3.2993
 2.2270	 3.2530
 2.2260	 3.3790
 2.2250	 3.2033
 2.2240	 3.3038
 2.2230	 3.1999
 2.2220	 3.3193
 2.2210	 3.2339
 2.2200	 3.3545
 2.2190	 3.1418
 2.2180	 3.4039
 2.2170	 3.2158
 2.2160	 3.2865
 2.2150	 3.2271
 2.2140	 3.3490
 2.2130	 3.1459
 2.2120	 3.4268
 2.2110	 2.9919
 2.2100	 3.3573
 2.2090	 3.2885
 2.2080	 3.3571
 2.2070	 3.2284
 2.2060	 3.2882
 2.2050	 3.1681
 2.2040	 3.2926
 2.2030	 3.1884
 2.2020	 3.3110
 2.2010	 3.2182
 2.2000	 3.3000
 2.1990	 3.2154
 2.1980	 3.3245
 2.1970	 3.2072
 2.1960	 3.2832
 2.1950	 3.2082
 2.1940	 3.3243
 2.1930	 3.1703
 2.1920	 3.1975
 2.1910	 3.2118
 2.1900	 3.2950
 2.1890	 3.2498
 2.1880	 3.2857
 2.1870	 3.2371
 2.1860	 3.2534
 2.1850	 3.2596
 2.1840	 3.3576
 2.1830	 3.1739
 2.1820	 3.3343
 2.1810	 3.2347
 2.1800	 3.3243
 2.1790	 3.2295
 2.1780	 3.3633
 2.1770	 3.2440
 2.1760	 3.3134
 2.1750	 3.1801
 2.1740	 3.2698
 2.1730	 3.2410
 2.1720	 3.3292
 2.1710	 3.1486
 2.1700	 3.3419
 2.1690	 3.2790
 2.1680	 3.2877
 2.1670	 3.2656
 2.1660	 3.3121
 2.1650	 3.2618
 2.1640	 3.3705
 2.1630	 3.2860
 2.1620	 3.4045
 2.1610	 3.1970
 2.1600	 3.2895
 2.1590	 3.2766
 2.1580	 3.2978
 2.1570	 3.2256
 2.1560	 3.3123
 2.1550	 3.2314
 2.1540	 3.3797
 2.1530	 3.3179
 2.1520	 3.2989
 2.1510	 3.2068
 2.1500	 3.3544
 2.1490	 3.2816
 2.1480	 3.3073
 2.1470	 3.2116
 2.1460	 3.2850
 2.1450	 3.2681
 2.1440	 3.3151
 2.1430	 3.2643
 2.1420	 3.2722
 2.1410	 3.2552
 2.1400	 3.3436
 2.1390	 3.3521
 2.1380	 3.3869
 2.1370	 3.2879
 2.1360	 3.3012
 2.1350	 3.2838
 2.1340	 3.2845
 2.1330	 3.2901
 2.1320	 3.2950
 2.1310	 3.2656
 2.1300	 3.2840
 2.1290	 3.3371
 2.1280	 3.3876
 2.1270	 3.2440
 2.1260	 3.3232
 2.1250	 3.2426
 2.1240	 3.3135
 2.1230	 3.2609
 2.1220	 3.3431
 2.1210	 3.3175
 2.1200	 3.3010
 2.1190	 3.2011
 2.1180	 3.2864
 2.1170	 3.2278
 2.1160	 3.3020
 2.1150	 3.3043
 2.1140	 3.3129
 2.1130	 3.2270
 2.1120	 3.2798
 2.1110	 3.2487
 2.1100	 3.2630
 2.1090	 3.2224
 2.1080	 3.2414
 2.1070	 3.2250
 2.1060	 3.3611
 2.1050	 3.3007
 2.1040	 3.2284
 2.1030	 3.2462
 2.1020	 3.2595
 2.1010	 3.2819
 2.1000	 3.3108
 2.0990	 3.3010
 2.0980	 3.3042
 2.0970	 3.2849
 2.0960	 3.2897
 2.0950	 3.2645
 2.0940	 3.2653
 2.0930	 3.2415
 2.0920	 3.2309
 2.0910	 3.1974
 2.0900	 3.3088
 2.0890	 3.3054
 2.0880	 3.3090
 2.0870	 3.3172
 2.0860	 3.2804
 2.0850	 3.2446
 2.0840	 3.2693
 2.0830	 3.2639
 2.0820	 3.2883
 2.0810	 3.3149
 2.0800	 3.2889
 2.0790	 3.3415
 2.0780	 3.3016
 2.0770	 3.2533
 2.0760	 3.3641
 2.0750	 3.3613
 2.0740	 3.2542
 2.0730	 3.2143
 2.0720	 3.3062
 2.0710	 3.3004
 2.0700	 3.2768
 2.0690	 3.3010
 2.0680	 3.2887
 2.0670	 3.2805
 2.0660	 3.2930
 2.0650	 3.2849
 2.0640	 3.2461
 2.0630	 3.3118
 2.0620	 3.3465
 2.0610	 3.3082
 2.0600	 3.3401
 2.0590	 3.3170
 2.0580	 3.2584
 2.0570	 3.2915
 2.0560	 3.2703
 2.0550	 3.2879
 2.0540	 3.3679
 2.0530	 3.4055
 2.0520	 3.3237
 2.0510	 3.2783
 2.0500	 3.3194
 2.0490	 3.3550
 2.0480	 3.2915
 2.0470	 3.3554
 2.0460	 3.3417
 2.0450	 3.2685
 2.0440	 3.2352
 2.0430	 3.3841
 2.0420	 3.3779
 2.0410	 3.3066
 2.0400	 3.2873
 2.0390	 3.3200
 2.0380	 3.3083
 2.0370	 3.3854
 2.0360	 3.2932
 2.0350	 3.3763
 2.0340	 3.3284
 2.0330	 3.3166
 2.0320	 3.3042
 2.0310	 3.3913
 2.0300	 3.2802
 2.0290	 3.3412
 2.0280	 3.3698
 2.0270	 3.3863
 2.0260	 3.2786
 2.0250	 3.3121
 2.0240	 3.2730
 2.0230	 3.3854
 2.0220	 3.3975
 2.0210	 3.3881
 2.0200	 3.3793
 2.0190	 3.3933
 2.0180	 3.3347
 2.0170	 3.4089
 2.0160	 3.3179
 2.0150	 3.3387
 2.0140	 3.3168
 2.0130	 3.3544
 2.0120	 3.2902
 2.0110	 3.3645
 2.0100	 3.3388
 2.0090	 3.3241
 2.0080	 3.2671
 2.0070	 3.3707
 2.0060	 3.3022
 2.0050	 3.3777
 2.0040	 3.2764
 2.0030	 3.4032
 2.0020	 3.3249
 2.0010	 3.3628
 2.0000	 3.2858
 1.9990	 3.3765
 1.9980	 3.3122
 1.9970	 3.3686
 1.9960	 3.2770
 1.9950	 3.4288
 1.9940	 3.3722
 1.9930	 3.4308
 1.9920	 3.3011
 1.9910	 3.3579
 1.9900	 3.3108
 1.9890	 3.3922
 1.9880	 3.2764
 1.9870	 3.3284
 1.9860	 3.3526
 1.9850	 3.4348
 1.9840	 3.2992
 1.9830	 3.4336
 1.9820	 3.3354
 1.9810	 3.3010
 1.9800	 3.3353
 1.9790	 3.2791
 1.9780	 3.3738
 1.9770	 3.3968
 1.9760	 3.3198
 1.9750	 3.3521
 1.9740	 3.2976
 1.9730	 3.3648
 1.9720	 3.2913
 1.9710	 3.4272
 1.9700	 3.3378
 1.9690	 3.3788
 1.9680	 3.3264
 1.9670	 3.4887
 1.9660	 3.2590
 1.9650	 3.3695
 1.9640	 3.2485
 1.9630	 3.3740
 1.9620	 3.3198
 1.9610	 3.3254
 1.9600	 3.3283
 1.9590	 3.4373
 1.9580	 3.2557
 1.9570	 3.3659
 1.9560	 3.2428
 1.9550	 3.3582
 1.9540	 3.3098
 1.9530	 3.3745
 1.9520	 3.2362
 1.9510	 3.3952
 1.9500	 3.3117
 1.9490	 3.3610
 1.9480	 3.3443
 1.9470	 3.3712
 1.9460	 3.2534
 1.9450	 3.3678
 1.9440	 3.2063
 1.9430	 3.3971
 1.9420	 3.2294
 1.9410	 3.4366
 1.9400	 3.2834
 1.9390	 3.3148
 1.9380	 3.2222
 1.9370	 3.3931
 1.9360	 3.2935
 1.9350	 3.3329
 1.9340	 3.2014
 1.9330	 3.3546
 1.9320	 3.2227
 1.9310	 3.2466
 1.9300	 3.2562
 1.9290	 3.3285
 1.9280	 3.2874
 1.9270	 3.4647
 1.9260	 3.1466
 1.9250	 3.3961
 1.9240	 3.3006
 1.9230	 3.4729
 1.9220	 3.3116
 1.9210	 3.3023
 1.9200	 3.3476
 1.9190	 3.4003
 1.9180	 3.3154
 1.9170	 3.4119
 1.9160	 3.3112
 1.9150	 3.4033
 1.9140	 3.3042
 1.9130	 3.3931
 1.9120	 3.3376
 1.9110	 3.4286
 1.9100	 3.2690
 1.9090	 3.4029
 1.9080	 3.3572
 1.9070	 3.4565
 1.9060	 3.2969
 1.9050	 3.3915
 1.9040	 3.2544
 1.9030	 3.4354
 1.9020	 3.4086
 1.9010	 3.4454
 1.9000	 3.3045
 1.8990	 3.4523
 1.8980	 3.3779
 1.8970	 3.4407
 1.8960	 3.3645
 1.8950	 3.4096
 1.8940	 3.4044
 1.8930	 3.4887
 1.8920	 3.3994
 1.8910	 3.3851
 1.8900	 3.3323
 1.8890	 3.4125
 1.8880	 3.3226
 1.8870	 3.4646
 1.8860	 3.3912
 1.8850	 3.4784
 1.8840	 3.3890
 1.8830	 3.4911
 1.8820	 3.3466
 1.8810	 3.5297
 1.8800	 3.2982
 1.8790	 3.4153
 1.8780	 3.4735
 1.8770	 3.4698
 1.8760	 3.4187
 1.8750	 3.5106
 1.8740	 3.3784
 1.8730	 3.4043
 1.8720	 3.3825
 1.8710	 3.4624
 1.8700	 3.3889
 1.8690	 3.4291
 1.8680	 3.3898
 1.8670	 3.4293
 1.8660	 3.4080
 1.8650	 3.5207
 1.8640	 3.4628
 1.8630	 3.5672
 1.8620	 3.4766
 1.8610	 3.5469
 1.8600	 3.3510
 1.8590	 3.5196
 1.8580	 3.4491
 1.8570	 3.4986
 1.8560	 3.4361
 1.8550	 3.4616
 1.8540	 3.4529
 1.8530	 3.5846
 1.8520	 3.5198
 1.8510	 3.5253
 1.8500	 3.4779
 1.8490	 3.5055
 1.8480	 3.5099
 1.8470	 3.5047
 1.8460	 3.4261
 1.8450	 3.4888
 1.8440	 3.4970
 1.8430	 3.5438
 1.8420	 3.4875
 1.8410	 3.5555
 1.8400	 3.4948
 1.8390	 3.4946
 1.8380	 3.4081
 1.8370	 3.5023
 1.8360	 3.4913
 1.8350	 3.5198
 1.8340	 3.5038
 1.8330	 3.4902
 1.8320	 3.4696
 1.8310	 3.5470
 1.8300	 3.5102
 1.8290	 3.5806
 1.8280	 3.4882
 1.8270	 3.5326
 1.8260	 3.5407
 1.8250	 3.5160
 1.8240	 3.5502
 1.8230	 3.5943
 1.8220	 3.5681
 1.8210	 3.5595
 1.8200	 3.4982
 1.8190	 3.5101
 1.8180	 3.5730
 1.8170	 3.6077
 1.8160	 3.5344
 1.8150	 3.5672
 1.8140	 3.6305
 1.8130	 3.5706
 1.8120	 3.5316
 1.8110	 3.6446
 1.8100	 3.6030
 1.8090	 3.6375
 1.8080	 3.5810
 1.8070	 3.5282
 1.8060	 3.5697
 1.8050	 3.5904
 1.8040	 3.5807
 1.8030	 3.5223
 1.8020	 3.5790
 1.8010	 3.6459
 1.8000	 3.5327
 1.7990	 3.5565
 1.7980	 3.6287
 1.7970	 3.6728
 1.7960	 3.6810
 1.7950	 3.6826
 1.7940	 3.6549
 1.7930	 3.6678
 1.7920	 3.7006
 1.7910	 3.6770
 1.7900	 3.6310
 1.7890	 3.6857
 1.7880	 3.6317
 1.7870	 3.5802
 1.7860	 3.6221
 1.7850	 3.5993
 1.7840	 3.5717
 1.7830	 3.6532
 1.7820	 3.6997
 1.7810	 3.6833
 1.7800	 3.7060
 1.7790	 3.7013
 1.7780	 3.7058
 1.7770	 3.7095
 1.7760	 3.7235
 1.7750	 3.6647
 1.7740	 3.7193
 1.7730	 3.6951
 1.7720	 3.6899
 1.7710	 3.7223
 1.7700	 3.7378
 1.7690	 3.7190
 1.7680	 3.7261
 1.7670	 3.6887
 1.7660	 3.7275
 1.7650	 3.7624
 1.7640	 3.7186
 1.7630	 3.6591
 1.7620	 3.6825
 1.7610	 3.7331
 1.7600	 3.7738
 1.7590	 3.6770
 1.7580	 3.7574
 1.7570	 3.7837
 1.7560	 3.8205
 1.7550	 3.7908
 1.7540	 3.7837
 1.7530	 3.7864
 1.7520	 3.8222
 1.7510	 3.7655
 1.7500	 3.8051
 1.7490	 3.8175
 1.7480	 3.8339
 1.7470	 3.7865
 1.7460	 3.8203
 1.7450	 3.8622
 1.7440	 3.8611
 1.7430	 3.8248
 1.7420	 3.8425
 1.7410	 3.8172
 1.7400	 3.8863
 1.7390	 3.8798
 1.7380	 3.8850
 1.7370	 3.8543
 1.7360	 3.9237
 1.7350	 3.8587
 1.7340	 3.9021
 1.7330	 3.8568
 1.7320	 3.8848
 1.7310	 3.8471
 1.7300	 3.8881
 1.7290	 3.9030
 1.7280	 3.9833
 1.7270	 3.9716
 1.7260	 3.9823
 1.7250	 3.9284
 1.7240	 3.9387
 1.7230	 3.9226
 1.7220	 4.0071
 1.7210	 3.9638
 1.7200	 4.0075
 1.7190	 3.8964
 1.7180	 4.0137
 1.7170	 4.0059
 1.7160	 4.0222
 1.7150	 3.9984
 1.7140	 4.1165
 1.7130	 4.0570
 1.7120	 4.1774
 1.7110	 4.0949
 1.7100	 4.1369
 1.7090	 4.0768
 1.7080	 4.1238
 1.7070	 4.0545
 1.7060	 4.1721
 1.7050	 4.1246
 1.7040	 4.2209
 1.7030	 4.2059
 1.7020	 4.2344
 1.7010	 4.1620
 1.7000	 4.2445
 1.6990	 4.1495
 1.6980	 4.2930
 1.6970	 4.1700
 1.6960	 4.2623
 1.6950	 4.1585
 1.6940	 4.3091
 1.6930	 4.2912
 1.6920	 4.2866
 1.6910	 4.2821
 1.6900	 4.3669
 1.6890	 4.2319
 1.6880	 4.4192
 1.6870	 4.3041
 1.6860	 4.4592
 1.6850	 4.3457
 1.6840	 4.4733
 1.6830	 4.3314
 1.6820	 4.4879
 1.6810	 4.3289
 1.6800	 4.5291
 1.6790	 4.4176
 1.6780	 4.4566
 1.6770	 4.3681
 1.6760	 4.5702
 1.6750	 4.5199
 1.6740	 4.5520
 1.6730	 4.4923
 1.6720	 4.6286
 1.6710	 4.5632
 1.6700	 4.5607
 1.6690	 4.6700
 1.6680	 4.4992
 1.6670	 4.6582
 1.6660	 4.7115
 1.6650	 4.5757
 1.6640	 4.7188
 1.6630	 4.6686
 1.6620	 4.8122
 1.6610	 4.6808
 1.6600	 4.7155
 1.6590	 4.7757
 1.6580	 4.8284
 1.6570	 4.8776
 1.6560	 4.9338
 1.6550	 4.8289
 1.6540	 4.9486
 1.6530	 4.7722
 1.6520	 4.9324
 1.6510	 4.8369
 1.6500	 4.9949
 1.6490	 4.9332
 1.6480	 5.1692
 1.6470	 4.9398
 1.6460	 5.0542
 1.6450	 4.9618
 1.6440	 5.1553
 1.6430	 5.0781
 1.6420	 5.2854
 1.6410	 4.9565
 1.6400	 5.3499
 1.6390	 5.1072
 1.6380	 5.3805
 1.6370	 5.2093
 1.6360	 5.3425
 1.6350	 5.2034
 1.6340	 5.4433
 1.6330	 5.3096
 1.6320	 5.5061
 1.6310	 5.4003
 1.6300	 5.5324
 1.6290	 5.4209
 1.6280	 5.6110
 1.6270	 5.5654
 1.6260	 5.6849
 1.6250	 5.6146
 1.6240	 5.6662
 1.6230	 5.6677
 1.6220	 5.7199
 1.6210	 5.6358
 1.6200	 5.7999
 1.6190	 5.7078
 1.6180	 5.8605
 1.6170	 5.8157
 1.6160	 5.9815
 1.6150	 5.8886
 1.6140	 5.9496
 1.6130	 5.9494
 1.6120	 6.0607
 1.6110	 5.9910
 1.6100	 6.1417
 1.6090	 6.0822
 1.6080	 6.2136
 1.6070	 6.0981
 1.6060	 6.2826
 1.6050	 6.2409
 1.6040	 6.4522
 1.6030	 6.3350
 1.6020	 6.4690
 1.6010	 6.3701
 1.6000	 6.5588
 1.5990	 6.4879
 1.5980	 6.6047
 1.5970	 6.5351
 1.5960	 6.6745
 1.5950	 6.6336
 1.5940	 6.8246
 1.5930	 6.7872
 1.5920	 6.8483
 1.5910	 6.8719
 1.5900	 6.9690
 1.5890	 6.9128
 1.5880	 7.0213
 1.5870	 7.0717
 1.5860	 7.1758
 1.5850	 7.1378
 1.5840	 7.2573
 1.5830	 7.1794
 1.5820	 7.3252
 1.5810	 7.3059
 1.5800	 7.4815
 1.5790	 7.4392
 1.5780	 7.5521
 1.5770	 7.5389
 1.5760	 7.6019
 1.5750	 7.6522
 1.5740	 7.7651
 1.5730	 7.8345
 1.5720	 7.8128
 1.5710	 7.8866
 1.5700	 7.9663
 1.5690	 8.0039
 1.5680	 8.1000
 1.5670	 8.0719
 1.5660	 8.2579
 1.5650	 8.2670
 1.5640	 8.3179
 1.5630	 8.3884
 1.5620	 8.5183
 1.5610	 8.5208
 1.5600	 8.7030
 1.5590	 8.6792
 1.5580	 8.7733
 1.5570	 8.8148
 1.5560	 8.8597
 1.5550	 8.9265
 1.5540	 8.9956
 1.5530	 9.0354
 1.5520	 9.1477
 1.5510	 9.2009
 1.5500	 9.3126
 1.5490	 9.3609
 1.5480	 9.4431
 1.5470	 9.5335
 1.5460	 9.5663
 1.5450	 9.5953
 1.5440	 9.7258
 1.5430	 9.7803
 1.5420	 9.9051
 1.5410	 9.9492
 1.5400	10.0841
 1.5390	10.1396
 1.5380	10.1968
 1.5370	10.2932
 1.5360	10.3755
 1.5350	10.3954
 1.5340	10.4786
 1.5330	10.5035
 1.5320	10.6283
 1.5310	10.6617
 1.5300	10.8497
 1.5290	10.8999
 1.5280	11.0029
 1.5270	11.0910
 1.5260	11.1582
 1.5250	11.1254
 1.5240	11.2658
 1.5230	11.3858
 1.5220	11.5136
 1.5210	11.5769
 1.5200	11.6284
 1.5190	11.6729
 1.5180	11.7894
 1.5170	11.8694
 1.5160	11.9707
 1.5150	12.0576
 1.5140	12.1783
 1.5130	12.1993
 1.5120	12.2798
 1.5110	12.3737
 1.5100	12.5012
 1.5090	12.6088
 1.5080	12.6791
 1.5070	12.7383
 1.5060	12.8692
 1.5050	12.9662
 1.5040	13.0770
 1.5030	13.1904
 1.5020	13.2303
 1.5010	13.3631
 1.5000	13.4948
 1.4990	13.5580
 1.4980	13.6891
 1.4970	13.8213
 1.4960	13.9723
 1.4950	14.0818
 1.4940	14.1435
 1.4930	14.3096
 1.4920	14.4689
 1.4910	14.5997
 1.4900	14.6931
 1.4890	14.8706
 1.4880	14.9980
 1.4870	15.1077
 1.4860	15.2736
 1.4850	15.3839
 1.4840	15.5599
 1.4830	15.6908
 1.4820	15.7792
 1.4810	15.9484
 1.4800	16.0273
 1.4790	16.2215
 1.4780	16.3352
 1.4770	16.4583
 1.4760	16.5803
 1.4750	16.7379
 1.4740	16.8235
 1.4730	17.0033
 1.4720	17.1392
 1.4710	17.3125
 1.4700	17.4160
 1.4690	17.5251
 1.4680	17.6941
 1.4670	17.8468
 1.4660	17.9605
 1.4650	18.0975
 1.4640	18.2156
 1.4630	18.3636
 1.4620	18.4492
 1.4610	18.7025
 1.4600	18.7844
 1.4590	18.9381
 1.4580	19.0728
 1.4570	19.2255
 1.4560	19.3019
 1.4550	19.5733
 1.4540	19.6484
 1.4530	19.7846
 1.4520	19.8306
 1.4510	20.0266
 1.4500	20.1930
 1.4490	20.3321
 1.4480	20.4729
 1.4470	20.6700
 1.4460	20.7505
 1.4450	20.9218
 1.4440	21.0253
 1.4430	21.2062
 1.4420	21.3365
 1.4410	21.4955
 1.4400	21.6195
 1.4390	21.7439
 1.4380	21.9036
 1.4370	22.1453
 1.4360	22.1846
 1.4350	22.3265
 1.4340	22.4355
 1.4330	22.6734
 1.4320	22.7446
 1.4310	22.9412
 1.4300	23.0245
 1.4290	23.2165
 1.4280	23.4054
 1.4270	23.5482
 1.4260	23.6599
 1.4250	23.9004
 1.4240	24.0403
 1.4230	24.2685
 1.4220	24.3220
 1.4210	24.6266
 1.4200	24.7248
 1.4190	24.9923
 1.4180	25.0820
 1.4170	25.2433
 1.4160	25.4238
 1.4150	25.6564
 1.4140	25.7914
 1.4130	26.0158
 1.4120	26.0758
 1.4110	26.3381
 1.4100	26.5229
 1.4090	26.6627
 1.4080	26.7467
 1.4070	26.8833
 1.4060	27.0924
 1.4050	27.2513
 1.4040	27.3951
 1.4030	27.6493
 1.4020	27.7820
 1.4010	27.9869
 1.4000	27.9850
 1.3990	28.2790
 1.3980	28.3965
 1.3970	28.7211
 1.3960	28.7920
 1.3950	29.0084
 1.3940	29.1254
 1.3930	29.3755
 1.3920	29.4998
 1.3910	29.8200
 1.3900	29.9074
 1.3890	30.2069
 1.3880	30.2160
 1.3870	30.4378
 1.3860	30.6373
 1.3850	30.8767
 1.3840	30.9828
 1.3830	31.3098
 1.3820	31.2723
 1.3810	31.5747
 1.3800	31.7567
 1.3790	32.0665
 1.3780	32.1636
 1.3770	32.4447
 1.3760	32.5011
 1.3750	32.6805
 1.3740	32.8378
 1.3730	33.0609
 1.3720	33.1711
 1.3710	33.3483
 1.3700	33.4676
 1.3690	33.7770
 1.3680	33.8689
 1.3670	34.1326
 1.3660	34.2148
 1.3650	34.4651
 1.3640	34.4821
 1.3630	34.8394
 1.3620	34.8581
 1.3610	35.0728
 1.3600	35.2572
 1.3590	35.4693
 1.3580	35.4918
 1.3570	35.7984
 1.3560	36.0677
 1.3550	35.9403
 1.3540	36.2534
 1.3530	36.4494
 1.3520	36.4873
 1.3510	36.8638
 1.3500	36.9059
 1.3490	37.0771
 1.3480	37.2445
 1.3470	37.4569
 1.3460	37.5312
 1.3450	37.7306
 1.3440	37.7738
 1.3430	38.1388
 1.3420	38.1257
 1.3410	38.3407
 1.3400	38.4492
 1.3390	38.7020
 1.3380	38.6549
 1.3370	38.9802
 1.3360	38.9168
 1.3350	39.2136
 1.3340	39.2248
 1.3330	39.4516
 1.3320	39.4357
 1.3310	39.5999
 1.3300	39.6502
 1.3290	39.8820
 1.3280	39.8689
 1.3270	40.0560
 1.3260	40.1078
 1.3250	40.2696
 1.3240	40.2616
 1.3230	40.4459
 1.3220	40.4592
 1.3210	40.5177
 1.3200	40.5864
 1.3190	40.7233
 1.3180	40.6953
 1.3170	40.8038
 1.3160	40.8711
 1.3150	40.9868
 1.3140	41.0581
 1.3130	41.2014
 1.3120	41.1465
 1.3110	41.2888
 1.3100	41.2474
 1.3090	41.3852
 1.3080	41.4347
 1.3070	41.5175
 1.3060	41.5635
 1.3050	41.6221
 1.3040	41.6370
 1.3030	41.7846
 1.3020	41.8808
 1.3010	41.9412
 1.3000	41.9407
 1.2990	42.0821
 1.2980	42.0954
 1.2970	42.2172
 1.2960	42.3029
 1.2950	42.3344
 1.2940	42.4373
 1.2930	42.6034
 1.2920	42.6682
 1.2910	42.7806
 1.2900	42.7779
 1.2890	42.9353
 1.2880	42.9909
 1.2870	43.1039
 1.2860	43.2203
 1.2850	43.2968
 1.2840	43.4272
 1.2830	43.5731
 1.2820	43.7195
 1.2810	43.8649
 1.2800	43.8951
 1.2790	44.0894
 1.2780	44.2704
 1.2770	44.3656
 1.2760	44.4519
 1.2750	44.6317
 1.2740	44.7183
 1.2730	44.8744
 1.2720	44.9929
 1.2710	45.1506
 1.2700	45.2390
 1.2690	45.3663
 1.2680	45.4110
 1.2670	45.5247
 1.2660	45.6619
 1.2650	45.7453
 1.2640	45.7450
 1.2630	45.8348
 1.2620	45.8268
 1.2610	45.9151
 1.2600	45.9591
 1.2590	46.0582
 1.2580	46.0878
 1.2570	46.1693
 1.2560	46.1732
 1.2550	46.2162
 1.2540	46.2859
 1.2530	46.3457
 1.2520	46.2957
 1.2510	46.3875
 1.2500	46.4483
 1.2490	46.5242
 1.2480	46.5381
 1.2470	46.6615
 1.2460	46.6884
 1.2450	46.7998
 1.2440	46.9141
 1.2430	46.9977
 1.2420	47.0512
 1.2410	47.1941
 1.2400	47.2353
 1.2390	47.3120
 1.2380	47.3716
 1.2370	47.4769
 1.2360	47.5259
 1.2350	47.6366
 1.2340	47.7801
 1.2330	47.7874
 1.2320	47.8724
 1.2310	47.9735
 1.2300	48.0241
 1.2290	48.1288
 1.2280	48.1722
 1.2270	48.1983
 1.2260	48.2438
 1.2250	48.3328
 1.2240	48.3777
 1.2230	48.5069
 1.2220	48.6036
 1.2210	48.6898
 1.2200	48.7796
 1.2190	48.9066
 1.2180	49.0012
 1.2170	49.1267
 1.2160	49.2014
 1.2150	49.2948
 1.2140	49.4248
 1.2130	49.5490
 1.2120	49.7297
 1.2110	49.8647
 1.2100	49.9854
 1.2090	50.0892
 1.2080	50.2359
 1.2070	50.3432
 1.2060	50.4549
 1.2050	50.5525
 1.2040	50.7048
 1.2030	50.8289
 1.2020	50.9596
 1.2010	51.1242
 1.2000	51.2482
 1.1990	51.3788
 1.1980	51.5023
 1.1970	51.5826
 1.1960	51.7116
 1.1950	51.8216
 1.1940	51.9606
 1.1930	52.0635
 1.1920	52.2230
 1.1910	52.3353
 1.1900	52.4408
 1.1890	52.6504
 1.1880	52.7058
 1.1870	52.8595
 1.1860	53.0004
 1.1850	53.0716
 1.1840	53.2198
 1.1830	53.3037
 1.1820	53.4360
 1.1810	53.5047
 1.1800	53.5677
 1.1790	53.6866
 1.1780	53.7767
 1.1770	53.8252
 1.1760	53.9543
 1.1750	54.0581
 1.1740	54.1919
 1.1730	54.2309
 1.1720	54.3402
 1.1710	54.4759
 1.1700	54.5316
 1.1690	54.5873
 1.1680	54.7001
 1.1670	54.8010
 1.1660	54.9128
 1.1650	54.9979
 1.1640	55.1106
 1.1630	55.1563
 1.1620	55.1779
 1.1610	55.2876
 1.1600	55.4171
 1.1590	55.4882
 1.1580	55.5568
 1.1570	55.5902
 1.1560	55.6759
 1.1550	55.6543
 1.1540	55.8029
 1.1530	55.8062
 1.1520	55.8837
 1.1510	55.9445
 1.1500	56.0289
 1.1490	56.0069
 1.1480	56.1596
 1.1470	56.1488
 1.1460	56.2122
 1.1450	56.2775
 1.1440	56.3956
 1.1430	56.3971
 1.1420	56.4416
 1.1410	56.4408
 1.1400	56.4996
 1.1390	56.4807
 1.1380	56.5577
 1.1370	56.5730
 1.1360	56.6649
 1.1350	56.6754
 1.1340	56.7297
 1.1330	56.7213
 1.1320	56.7756
 1.1310	56.8113
 1.1300	56.8794
 1.1290	56.8276
 1.1280	56.8917
 1.1270	56.8801
 1.1260	56.9576
 1.1250	56.9855
 1.1240	57.0553
 1.1230	56.9763
 1.1220	56.9665
 1.1210	56.9315
 1.1200	57.0022
 1.1190	57.0147
 1.1180	57.0998
 1.1170	57.0421
 1.1160	57.0839
 1.1150	57.1224
 1.1140	57.0933
 1.1130	57.0616
 1.1120	57.0951
 1.1110	57.1635
 1.1100	57.1404
 1.1090	57.1469
 1.1080	57.1268
 1.1070	57.1653
 1.1060	57.1907
 1.1050	57.0365
 1.1040	57.1083
 1.1030	57.0722
 1.1020	57.0671
 1.1010	57.0901
 1.1000	57.0156
 1.0990	57.0432
 1.0980	57.0373
 1.0970	56.9063
 1.0960	57.0000
 1.0950	56.9931
 1.0940	56.9408
 1.0930	56.8283
 1.0920	56.7719
 1.0910	56.8224
 1.0900	56.7766
 1.0890	56.7167
 1.0880	56.7517
 1.0870	56.7081
 1.0860	56.6361
 1.0850	56.5171
 1.0840	56.4564
 1.0830	56.3579
 1.0820	56.4853
 1.0810	56.2997
 1.0800	56.3043
 1.0790	56.1940
 1.0780	56.1993
 1.0770	56.1224
 1.0760	56.0334
 1.0750	55.9370
 1.0740	55.9152
 1.0730	55.9159
 1.0720	55.8154
 1.0710	55.7579
 1.0700	55.5818
 1.0690	55.5691
 1.0680	55.5083
 1.0670	55.3669
 1.0660	55.3806
 1.0650	55.2882
 1.0640	55.1770
 1.0630	55.0835
 1.0620	55.0563
 1.0610	54.8884
 1.0600	54.8396
 1.0590	54.5590
 1.0580	54.6508
 1.0570	54.4596
 1.0560	54.4366
 1.0550	54.3453
 1.0540	54.2788
 1.0530	54.0535
 1.0520	54.0363
 1.0510	53.9077
 1.0500	53.8080
 1.0490	53.5830
 1.0480	53.5353
 1.0470	53.4254
 1.0460	53.3495
 1.0450	53.2106
 1.0440	53.0790
 1.0430	52.9393
 1.0420	52.7379
 1.0410	52.6691
 1.0400	52.6829
 1.0390	52.3951
 1.0380	52.3277
 1.0370	52.2415
 1.0360	52.1520
 1.0350	51.9561
 1.0340	51.7527
 1.0330	51.6505
 1.0320	51.5430
 1.0310	51.3537
 1.0300	51.3151
 1.0290	51.0874
 1.0280	50.9888
 1.0270	50.7491
 1.0260	50.6715
 1.0250	50.5038
 1.0240	50.4025
 1.0230	50.1548
 1.0220	50.1704
 1.0210	49.9885
 1.0200	49.7924
 1.0190	49.5999
 1.0180	49.5701
 1.0170	49.3615
 1.0160	49.2782
 1.0150	49.0674
 1.0140	48.8517
 1.0130	48.7559
 1.0120	48.6204
 1.0110	48.4217
 1.0100	48.3936
 1.0090	48.1711
 1.0080	47.9555
 1.0070	47.6556
 1.0060	47.6331
 1.0050	47.4679
 1.0040	47.3348
 1.0030	47.1619
 1.0020	46.9969
 1.0010	46.7988
 1.0000	46.7664
 0.9990	46.5723
 0.9980	46.4546
 0.9970	46.2455
 0.9960	46.1462
 0.9950	46.0173
 0.9940	45.8178
 0.9930	45.6416
 0.9920	45.4846
 0.9910	45.2839
 0.9900	45.1663
 0.9890	45.0178
 0.9880	44.8590
 0.9870	44.6974
 0.9860	44.6073
 0.9850	44.4054
 0.9840	44.3345
 0.9830	44.1324
 0.9820	43.9749
 0.9810	43.8211
 0.9800	43.7463
 0.9790	43.5610
 0.9780	43.5033
 0.9770	43.3052
 0.9760	43.2065
 0.9750	43.0382
 0.9740	42.8905
 0.9730	42.7273
 0.9720	42.6462
 0.9710	42.4494
 0.9700	42.3936
 0.9690	42.3471
 0.9680	42.2004
 0.9670	41.9997
 0.9660	41.9037
 0.9650	41.7968
 0.9640	41.7567
 0.9630	41.5324
 0.9620	41.4839
 0.9610	41.4283
 0.9600	41.3314
 0.9590	41.2113
 0.9580	41.1453
 0.9570	41.0133
 0.9560	40.9201
 0.9550	40.8969
 0.9540	40.8516
 0.9530	40.7399
 0.9520	40.6662
 0.9510	40.5951
 0.9500	40.5739
 0.9490	40.5039
 0.9480	40.4321
 0.9470	40.3631
 0.9460	40.3593
 0.9450	40.2848
 0.9440	40.2164
 0.9430	40.1023
 0.9420	40.0605
 0.9410	40.0659
 0.9400	40.0400
 0.9390	39.9439
 0.9380	39.9373
 0.9370	39.9545
 0.9360	39.9327
 0.9350	39.9151
 0.9340	39.8617
 0.9330	39.7664
 0.9320	39.7239
 0.9310	39.7518
 0.9300	39.7849
 0.9290	39.7577
 0.9280	39.7504
 0.9270	39.7259
 0.9260	39.7299
 0.9250	39.7028
 0.9240	39.6165
 0.9230	39.6500
 0.9220	39.6671
 0.9210	39.6711
 0.9200	39.6388
 0.9190	39.5924
 0.9180	39.5687
 0.9170	39.6126
 0.9160	39.6286
 0.9150	39.5991
 0.9140	39.5915
 0.9130	39.6356
 0.9120	39.5913
 0.9110	39.5717
 0.9100	39.5752
 0.9090	39.5721
 0.9080	39.5866
 0.9070	39.6434
 0.9060	39.6095
 0.9050	39.6228
 0.9040	39.5914
 0.9030	39.5395
 0.9020	39.5393
 0.9010	39.5761
 0.9000	39.5742
 0.8990	39.6303
 0.8980	39.6398
 0.8970	39.6674
 0.8960	39.6273
 0.8950	39.6582
 0.8940	39.6426
 0.8930	39.6222
 0.8920	39.5208
 0.8910	39.6302
 0.8900	39.6370
 0.8890	39.6832
 0.8880	39.5763
 0.8870	39.5454
 0.8860	39.5414
 0.8850	39.6084
 0.8840	39.5439
 0.8830	39.5227
 0.8820	39.5275
 0.8810	39.6412
 0.8800	39.5784
 0.8790	39.6201
 0.8780	39.5152
 0.8770	39.5239
 0.8760	39.5101
 0.8750	39.4876
 0.8740	39.5363
 0.8730	39.5290
 0.8720	39.4722
 0.8710	39.5051
 0.8700	39.4581
 0.8690	39.4029
 0.8680	39.3405
 0.8670	39.4330
 0.8660	39.3626
 0.8650	39.3872
 0.8640	39.3655
 0.8630	39.4583
 0.8620	39.3377
 0.8610	39.3923
 0.8600	39.4523
 0.8590	39.4868
 0.8580	39.4475
 0.8570	39.4894
 0.8560	39.4652
 0.8550	39.4586
 0.8540	39.4050
 0.8530	39.3908
 0.8520	39.3601
 0.8510	39.3255
 0.8500	39.3492
 0.8490	39.3355
 0.8480	39.2954
 0.8470	39.2855
 0.8460	39.2633
 0.8450	39.2872
 0.8440	39.2587
 0.8430	39.2343
 0.8420	39.2173
 0.8410	39.1479
 0.8400	39.1367
 0.8390	39.1152
 0.8380	39.1080
 0.8370	39.0573
 0.8360	39.0289
 0.8350	39.0275
 0.8340	38.9889
 0.8330	38.9543
 0.8320	38.9399
 0.8310	38.9202
 0.8300	38.8924
 0.8290	38.8179
 0.8280	38.7945
 0.8270	38.8064
 0.8260	38.7431
 0.8250	38.7173
 0.8240	38.6730
 0.8230	38.6281
 0.8220	38.5818
 0.8210	38.5503
 0.8200	38.5169
 0.8190	38.5028
 0.8180	38.4613
 0.8170	38.4050
 0.8160	38.3806
 0.8150	38.3223
 0.8140	38.3046
 0.8130	38.2794
 0.8120	38.2145
 0.8110	38.1712
 0.8100	38.1435
 0.8090	38.0952
 0.8080	38.0481
 0.8070	38.0216
 0.8060	37.9825
 0.8050	37.9609
 0.8040	37.8973
 0.8030	37.8585
 0.8020	37.8265
 0.8010	37.7930
 0.8000	37.7441
 0.7990	37.6957
 0.7980	37.6469
 0.7970	37.5921
 0.7960	37.5291
 0.7950	37.4878
 0.7940	37.4704
 0.7930	37.4036
 0.7920	37.3913
 0.7910	37.3216
 0.7900	37.3019
 0.7890	37.2686
 0.7880	37.1912
 0.7870	37.1886
 0.7860	37.1065
 0.7850	37.0885
 0.7840	37.0159
 0.7830	36.9808
 0.7820	36.9576
 0.7810	36.9048
 0.7800	36.8592
 0.7790	36.8010
 0.7780	36.7600
 0.7770	36.7304
 0.7760	36.6901
 0.7750	36.6340
 0.7740	36.5911
 0.7730	36.5490
 0.7720	36.4947
 0.7710	36.4616
 0.7700	36.4096
 0.7690	36.3630
 0.7680	36.3147
 0.7670	36.2701
 0.7660	36.2092
 0.7650	36.1700
 0.7640	36.1043
 0.7630	36.0501
 0.7620	35.9985
 0.7610	35.9415
 0.7600	35.8858
 0.7590	35.8239
 0.7580	35.7798
 0.7570	35.7208
 0.7560	35.6603
 0.7550	35.5952
 0.7540	35.5238
 0.7530	35.4603
 0.7520	35.3978
 0.7510	35.3155
 0.7500	35.2487
 0.7490	35.1872
 0.7480	35.1318
 0.7470	35.0624
 0.7460	34.9982
 0.7450	34.9110
 0.7440	34.8419
 0.7430	34.7791
 0.7420	34.6731
 0.7410	34.5799
 0.7400	34.4829
 0.7390	34.4019
 0.7380	34.3059
 0.7370	34.2077
 0.7360	34.1070
 0.7350	33.9963
 0.7340	33.9022
 0.7330	33.7778
 0.7320	33.6857
 0.7310	33.5870
 0.7300	33.5036
 0.7290	33.4079
 0.7280	33.3345
 0.7270	33.2502
 0.7260	33.1792
 0.7250	33.1027
 0.7240	33.0277
 0.7230	32.9608
 0.7220	32.8809
 0.7210	32.8021
 0.7200	32.7388
 0.7190	32.6718
 0.7180	32.5890
 0.7170	32.5131
 0.7160	32.4446
 0.7150	32.3706
 0.7140	32.2759
 0.7130	32.2046
 0.7120	32.1252
 0.7110	32.0536
 0.7100	31.9777
 0.7090	31.8967
 0.7080	31.8093
 0.7070	31.7369
 0.7060	31.6584
 0.7050	31.5737
 0.7040	31.4934
 0.7030	31.4154
 0.7020	31.3263
 0.7010	31.2493
 0.7000	31.1693
 0.6990	31.0791
 0.6980	31.0002
 0.6970	30.9259
 0.6960	30.8512
 0.6950	30.7665
 0.6940	30.6774
 0.6930	30.5964
 0.6920	30.5230
 0.6910	30.4523
 0.6900	30.3742
 0.6890	30.2975
 0.6880	30.2225
 0.6870	30.1580
 0.6860	30.0854
 0.6850	30.0224
 0.6840	29.9491
 0.6830	29.8852
 0.6820	29.8211
 0.6810	29.7611
 0.6800	29.7111
 0.6790	29.6561
 0.6780	29.6046
 0.6770	29.5617
 0.6760	29.5196
 0.6750	29.4738
 0.6740	29.4324
 0.6730	29.3984
 0.6720	29.3732
 0.6710	29.3407
 0.6700	29.3038
 0.6690	29.2802
 0.6680	29.2545
 0.6670	29.2316
 0.6660	29.2115
 0.6650	29.1909
 0.6640	29.1681
 0.6630	29.1431
 0.6620	29.1287
 0.6610	29.1023
 0.6600	29.0727
 0.6590	29.0453
 0.6580	29.0132
 0.6570	28.9782
 0.6560	28.9309
 0.6550	28.8838
 0.6540	28.8253
 0.6530	28.7491
 0.6520	28.6687
 0.6510	28.5737
 0.6500	28.4727
 0.6490	28.3572
 0.6480	28.2203
 0.6470	28.0697
 0.6460	27.9087
 0.6450	27.7233
 0.6440	27.5143
 0.6430	27.2955
 0.6420	27.0550
 0.6410	26.8037
 0.6400	26.5497
 0.6390	26.3026
 0.6380	26.0629
 0.6370	25.8337
 0.6360	25.6186
 0.6350	25.4094
 0.6340	25.2143
 0.6330	25.0236
 0.6320	24.8508
 0.6310	24.6993
 0.6300	24.5579
 0.6290	24.4248
 0.6280	24.3032
 0.6270	24.1911
 0.6260	24.0927
 0.6250	24.0108
 0.6240	23.9400
 0.6230	23.8866
 0.6220	23.8618
 0.6210	23.8586
 0.6200	23.8697
 0.6190	23.9079
 0.6180	23.9763
 0.6170	24.0552
 0.6160	24.1392
 0.6150	24.2396
 0.6140	24.3409
 0.6130	24.4389
 0.6120	24.5290
 0.6110	24.6053
 0.6100	24.6511
 0.6090	24.6647
 0.6080	24.6539
 0.6070	24.6158
 0.6060	24.5538
 0.6050	24.4664
 0.6040	24.3650
 0.6030	24.2641
 0.6020	24.1484
 0.6010	24.0353
 0.6000	23.9345
 0.5990	23.8311
 0.5980	23.7177
 0.5970	23.6130
 0.5960	23.5034
 0.5950	23.3877
 0.5940	23.2674
 0.5930	23.1496
 0.5920	23.0284
 0.5910	22.9232
 0.5900	22.8370
 0.5890	22.7605
 0.5880	22.7070
 0.5870	22.6741
 0.5860	22.6652
 0.5850	22.6664
 0.5840	22.6804
 0.5830	22.6990
 0.5820	22.7170
 0.5810	22.7313
 0.5800	22.7447
 0.5790	22.7583
 0.5780	22.7679
 0.5770	22.7755
 0.5760	22.7836
 0.5750	22.8001
 0.5740	22.8150
 0.5730	22.8338
 0.5720	22.8683
 0.5710	22.9033
 0.5700	22.9576
 0.5690	23.0144
 0.5680	23.0792
 0.5670	23.1514
 0.5660	23.2189
 0.5650	23.2946
 0.5640	23.3642
 0.5630	23.4272
 0.5620	23.4803
 0.5610	23.5279
 0.5600	23.5600
 0.5590	23.5931
 0.5580	23.6214
 0.5570	23.6581
 0.5560	23.7082
 0.5550	23.7821
 0.5540	23.8777
 0.5530	23.9986
 0.5520	24.1205
 0.5510	24.2232
 0.5500	24.3042
 0.5490	24.3897
 0.5480	24.4739
 0.5470	24.5852
 0.5460	24.7263
 0.5450	24.8934
 0.5440	25.0637
 0.5430	25.2453
 0.5420	25.4213
 0.5410	25.6063
 0.5400	25.8134
 0.5390	26.0394
 0.5380	26.2903
 0.5370	26.5543
 0.5360	26.8343
 0.5350	27.1202
 0.5340	27.4258
 0.5330	27.7339
 0.5320	28.0411
 0.5310	28.3410
 0.5300	28.6540
 0.5290	28.9713
 0.5280	29.2983
 0.5270	29.6281
 0.5260	29.9554
 0.5250	30.2917
 0.5240	30.6322
 0.5230	30.9659
 0.5220	31.3168
 0.5210	31.6557
 0.5200	32.0047
 0.5190	32.3121
 0.5180	32.6240
 0.5170	32.9378
 0.5160	33.2527
 0.5150	33.5242
 0.5140	33.7980
 0.5130	34.0410
 0.5120	34.2609
 0.5110	34.4486
 0.5100	34.6129
 0.5090	34.7868
 0.5080	34.9623
 0.5070	35.1541
 0.5060	35.3621
 0.5050	35.5610
 0.5040	35.7914
 0.5030	36.0056
 0.5020	36.2090
 0.5010	36.3770
 0.5000	36.5167
 0.4990	36.6232
 0.4980	36.7001
 0.4970	36.7347
 0.4960	36.7581
 0.4950	36.7653
 0.4940	36.7119
 0.4930	36.6899
 0.4920	36.6415
 0.4910	36.5955
 0.4900	36.5271
 0.4890	36.4375
 0.4880	36.3339
 0.4870	36.1971
 0.4860	36.0394
 0.4850	35.8460
 0.4840	35.6055
 0.4830	35.3736
 0.4820	35.0605
 0.4810	34.7022
 0.4800	34.3150
 0.4790	33.8887
 0.4780	33.4765
 0.4770	33.0730
 0.4760	32.7374
 0.4750	32.5199
 0.4740	32.3249
 0.4730	32.1758
 0.4720	32.0212
 0.4710	31.8606
 0.4700	31.6888
 0.4690	31.4870
 0.4680	31.2574
 0.4670	31.0053
 0.4660	30.7362
 0.4650	30.4581
 0.4640	30.1854
 0.4630	29.9468
 0.4620	29.7400
 0.4610	29.5884
 0.4600	29.4984
 0.4590	29.4617
 0.4580	29.5271
 0.4570	29.6801
 0.4560	29.9416
 0.4550	30.2635
 0.4540	30.6359
 0.4530	30.9821
 0.4520	31.2858
 0.4510	31.5233
 0.4500	31.6699
 0.4490	31.7788
 0.4480	31.8406
 0.4470	31.8654
 0.4460	31.8654
 0.4450	31.8468
 0.4440	31.8111
 0.4430	31.7521
 0.4420	31.6871
 0.4410	31.5917
 0.4400	31.4575
 0.4390	31.2928
 0.4380	31.0747
 0.4370	30.8281
 0.4360	30.5429
 0.4350	30.2169
 0.4340	29.8851
 0.4330	29.5567
 0.4320	29.2516
 0.4310	28.9765
 0.4300	28.7002
 0.4290	28.4093
 0.4280	28.1091
 0.4270	27.7822
 0.4260	27.4350
 0.4250	27.0889
 0.4240	26.7411
 0.4230	26.3903
 0.4220	25.9994
 0.4210	25.5772
 0.4200	25.1177
 0.4190	24.6705
 0.4180	24.2209
 0.4170	23.7797
 0.4160	23.3539
 0.4150	22.9329
 0.4140	22.5405
 0.4130	22.1542
 0.4120	21.8040
 0.4110	21.4800
 0.4100	21.1593
 0.4090	20.8551
 0.4080	20.5632
 0.4070	20.2831
 0.4060	20.0257
 0.4050	19.7752
 0.4040	19.5422
 0.4030	19.3163
 0.4020	19.1296
 0.4010	18.9666
 0.4000	18.7656
