Name: Hydroxyapophyllite KCa_4Si_8O_20(OH,F).8H_2O
Type: Mineral
Class: Silicate
Subclass: Phyllosilicate
Particle Size: Fine
Sample No.: PS-22A
Owner: JPL
Wavelength Range: VSWIR
Origin: India, Maharashtra, Poona
Collection Date: N/A
Description: Particle size was 0-45um.Collected by Burminco Original ASTER Spectral Library name was jpl.beckman.mineral.silicate.phyllosilicate.fine.ps22a.spectrum.txt
Measurement: Hemispherical reflectance
First Column: X
Second Column: Y
X Units: Wavelength (micrometers)
Y Units:Reflectance (percent)
First X Value:  0.4000
Last X Value:  2.5000
Number of X Values: 826
Additional Information: mineral.silicate.phyllosilicate.fine.vswir.ps-22a.jpl.beckman.ancillary.txt

 0.4000	85.1600
 0.4010	85.2400
 0.4020	85.1200
 0.4030	85.3500
 0.4040	85.2900
 0.4050	85.3500
 0.4060	85.3000
 0.4070	85.1900
 0.4080	85.3800
 0.4090	85.4100
 0.4100	85.3500
 0.4110	85.4800
 0.4120	85.2500
 0.4130	85.3600
 0.4140	85.5300
 0.4150	85.4900
 0.4160	85.5000
 0.4170	85.2500
 0.4180	85.4100
 0.4190	85.5900
 0.4200	85.5500
 0.4210	85.5600
 0.4220	85.4400
 0.4230	85.5500
 0.4240	85.6000
 0.4250	85.5600
 0.4260	85.6300
 0.4270	85.5300
 0.4280	85.5800
 0.4290	85.7400
 0.4300	85.5600
 0.4310	85.7300
 0.4320	85.6700
 0.4330	85.8500
 0.4340	85.8000
 0.4350	85.8600
 0.4360	85.9200
 0.4370	85.9100
 0.4380	85.9800
 0.4390	85.9300
 0.4400	85.9100
 0.4410	86.1400
 0.4420	86.0900
 0.4430	86.1500
 0.4440	85.9800
 0.4450	85.9200
 0.4460	86.1200
 0.4470	86.1700
 0.4480	86.0800
 0.4490	86.1300
 0.4500	85.9500
 0.4510	86.1800
 0.4520	86.1900
 0.4530	86.2600
 0.4540	86.2600
 0.4550	86.1000
 0.4560	86.2400
 0.4570	86.2600
 0.4580	86.3500
 0.4590	86.3000
 0.4600	86.3400
 0.4610	86.3800
 0.4620	86.3200
 0.4630	86.3600
 0.4640	86.4800
 0.4650	86.4100
 0.4660	86.4100
 0.4670	86.4600
 0.4680	86.4900
 0.4690	86.5400
 0.4700	86.5800
 0.4710	86.6400
 0.4720	86.5700
 0.4730	86.5800
 0.4740	86.5700
 0.4750	86.7500
 0.4760	86.6300
 0.4770	86.6900
 0.4780	86.5300
 0.4790	86.8300
 0.4800	86.7700
 0.4810	86.7700
 0.4820	86.7900
 0.4830	86.6000
 0.4840	86.8400
 0.4850	86.7300
 0.4860	86.7200
 0.4870	86.8400
 0.4880	86.8100
 0.4890	86.9400
 0.4900	86.7300
 0.4910	86.7500
 0.4920	86.8800
 0.4930	86.7900
 0.4940	86.9200
 0.4950	86.8600
 0.4960	86.8800
 0.4970	86.9400
 0.4980	86.9000
 0.4990	87.0700
 0.5000	86.8000
 0.5010	86.9200
 0.5020	86.9700
 0.5030	86.9300
 0.5040	87.0400
 0.5050	86.9300
 0.5060	86.9400
 0.5070	87.0900
 0.5080	87.0300
 0.5090	87.1400
 0.5100	87.0800
 0.5110	87.1300
 0.5120	87.3000
 0.5130	87.1800
 0.5140	87.3100
 0.5150	87.1100
 0.5160	87.2700
 0.5170	87.3100
 0.5180	87.2500
 0.5190	87.3000
 0.5200	87.2600
 0.5210	87.2100
 0.5220	87.3700
 0.5230	87.2400
 0.5240	87.4200
 0.5250	87.2000
 0.5260	87.2500
 0.5270	87.3100
 0.5280	87.4200
 0.5290	87.4600
 0.5300	87.4100
 0.5310	87.2000
 0.5320	87.4200
 0.5330	87.3300
 0.5340	87.4100
 0.5350	87.2500
 0.5360	87.3100
 0.5370	87.4800
 0.5380	87.4200
 0.5390	87.5300
 0.5400	87.4000
 0.5410	87.3500
 0.5420	87.3600
 0.5430	87.4300
 0.5440	87.4400
 0.5450	87.2700
 0.5460	87.4000
 0.5470	87.4700
 0.5480	87.4200
 0.5490	87.4900
 0.5500	87.3300
 0.5510	87.4100
 0.5520	87.5400
 0.5530	87.4900
 0.5540	87.6500
 0.5550	87.4100
 0.5560	87.4200
 0.5570	87.5500
 0.5580	87.4600
 0.5590	87.4900
 0.5600	87.8700
 0.5610	87.8800
 0.5620	87.7700
 0.5630	87.7600
 0.5640	87.8300
 0.5650	87.9500
 0.5660	87.8900
 0.5670	87.7900
 0.5680	87.8000
 0.5690	87.7300
 0.5700	87.8400
 0.5710	87.7100
 0.5720	87.6000
 0.5730	87.5700
 0.5740	87.5800
 0.5750	87.4800
 0.5760	87.5700
 0.5770	87.5000
 0.5780	87.6700
 0.5790	87.7800
 0.5800	87.6400
 0.5810	87.5200
 0.5820	87.4600
 0.5830	87.6300
 0.5840	87.5600
 0.5850	87.5000
 0.5860	87.5000
 0.5870	87.5100
 0.5880	87.6300
 0.5890	87.6800
 0.5900	87.6200
 0.5910	87.5600
 0.5920	87.5100
 0.5930	87.6300
 0.5940	87.6300
 0.5950	87.5600
 0.5960	87.6300
 0.5970	87.5400
 0.5980	87.7500
 0.5990	87.6200
 0.6000	87.6100
 0.6010	87.6500
 0.6020	87.6800
 0.6030	87.7400
 0.6040	87.7400
 0.6050	87.7500
 0.6060	87.7100
 0.6070	87.7600
 0.6080	87.6900
 0.6090	87.7400
 0.6100	87.7500
 0.6110	87.6300
 0.6120	87.5900
 0.6130	87.8000
 0.6140	87.6900
 0.6150	87.6200
 0.6160	87.6200
 0.6170	87.5600
 0.6180	87.8000
 0.6190	87.6400
 0.6200	87.5800
 0.6210	87.6400
 0.6220	87.6900
 0.6230	87.8100
 0.6240	87.7600
 0.6250	87.5900
 0.6260	87.4600
 0.6270	87.5000
 0.6280	87.6800
 0.6290	87.5700
 0.6300	87.6400
 0.6310	87.5900
 0.6320	87.5200
 0.6330	87.6900
 0.6340	87.5900
 0.6350	87.7000
 0.6360	87.5800
 0.6370	87.5200
 0.6380	87.6800
 0.6390	87.6100
 0.6400	87.6700
 0.6410	87.5600
 0.6420	87.5200
 0.6430	87.6600
 0.6440	87.7100
 0.6450	87.7000
 0.6460	87.5900
 0.6470	87.5900
 0.6480	87.6500
 0.6490	87.5800
 0.6500	87.6900
 0.6510	87.6200
 0.6520	87.6200
 0.6530	87.7900
 0.6540	87.5800
 0.6550	87.7600
 0.6560	87.6500
 0.6570	87.7000
 0.6580	87.7400
 0.6590	87.5700
 0.6600	87.7500
 0.6610	87.7100
 0.6620	87.7000
 0.6630	87.6400
 0.6640	87.6300
 0.6650	87.6800
 0.6660	87.6900
 0.6670	87.6900
 0.6680	87.7600
 0.6690	87.5900
 0.6700	87.7000
 0.6710	87.6400
 0.6720	87.6400
 0.6730	87.7600
 0.6740	87.7100
 0.6750	87.7600
 0.6760	87.5300
 0.6770	87.6300
 0.6780	87.7400
 0.6790	87.6900
 0.6800	87.8100
 0.6810	87.6000
 0.6820	87.6000
 0.6830	87.7100
 0.6840	87.7700
 0.6850	87.7200
 0.6860	87.7200
 0.6870	87.7100
 0.6880	87.8200
 0.6890	87.8000
 0.6900	87.7900
 0.6910	87.6900
 0.6920	87.7000
 0.6930	87.7700
 0.6940	87.9400
 0.6950	87.8200
 0.6960	87.8100
 0.6970	87.6900
 0.6980	87.8400
 0.6990	87.8600
 0.7000	87.7300
 0.7010	87.8300
 0.7020	87.7700
 0.7030	87.5900
 0.7040	87.7100
 0.7050	87.7800
 0.7060	87.9400
 0.7070	87.8300
 0.7080	87.7600
 0.7090	87.7600
 0.7100	87.7600
 0.7110	87.8200
 0.7120	87.8300
 0.7130	87.7200
 0.7140	87.8800
 0.7150	87.7600
 0.7160	87.8900
 0.7170	87.7100
 0.7180	87.7100
 0.7190	87.8100
 0.7200	87.7400
 0.7210	87.8600
 0.7220	87.8200
 0.7230	87.7200
 0.7240	87.7700
 0.7250	87.7100
 0.7260	87.8200
 0.7270	87.8300
 0.7280	87.6600
 0.7290	87.8200
 0.7300	87.7400
 0.7310	87.8600
 0.7320	87.7700
 0.7330	87.6000
 0.7340	87.7100
 0.7350	87.5200
 0.7360	87.6400
 0.7370	87.7000
 0.7380	87.5400
 0.7390	87.7000
 0.7400	87.7000
 0.7410	87.8200
 0.7420	87.8300
 0.7430	87.6000
 0.7440	87.8200
 0.7450	87.6500
 0.7460	87.7100
 0.7470	87.6100
 0.7480	87.7700
 0.7490	87.7000
 0.7500	87.5900
 0.7510	87.5900
 0.7520	87.6100
 0.7530	87.6000
 0.7540	87.7100
 0.7550	87.6000
 0.7560	87.5500
 0.7570	87.5400
 0.7580	87.5900
 0.7590	87.7500
 0.7600	87.6600
 0.7610	87.6100
 0.7620	87.5600
 0.7630	87.6000
 0.7640	87.7200
 0.7650	87.6100
 0.7660	87.5500
 0.7670	87.6600
 0.7680	87.6600
 0.7690	87.7800
 0.7700	87.6700
 0.7710	87.5600
 0.7720	87.6100
 0.7730	87.5500
 0.7740	87.6100
 0.7750	87.6700
 0.7760	87.5400
 0.7770	87.6000
 0.7780	87.5600
 0.7790	87.6700
 0.7800	87.7300
 0.7810	87.6100
 0.7820	87.7400
 0.7830	87.6400
 0.7840	87.7900
 0.7850	87.6700
 0.7860	87.6100
 0.7870	87.7900
 0.7880	87.7400
 0.7890	87.7400
 0.7900	87.6300
 0.7910	87.8000
 0.7920	87.8600
 0.7930	87.8000
 0.7940	87.7800
 0.7950	87.7300
 0.7960	87.9100
 0.7970	87.8000
 0.7980	87.7400
 0.7990	87.7000
 0.8000	87.8500
 0.8040	87.8200
 0.8080	87.7700
 0.8120	87.7900
 0.8160	87.7200
 0.8200	87.8800
 0.8240	87.8700
 0.8280	87.9000
 0.8320	87.9800
 0.8360	87.9800
 0.8400	87.9700
 0.8440	87.9800
 0.8480	87.9600
 0.8520	87.9100
 0.8560	87.9000
 0.8600	87.9100
 0.8640	88.0100
 0.8680	87.9500
 0.8720	87.9600
 0.8760	87.9500
 0.8800	88.0100
 0.8840	87.9000
 0.8880	88.0700
 0.8920	88.0100
 0.8960	87.9500
 0.9000	87.7800
 0.9040	87.7700
 0.9080	87.7600
 0.9120	87.7200
 0.9160	87.7600
 0.9200	87.7700
 0.9240	87.7200
 0.9280	87.7600
 0.9320	87.7800
 0.9360	87.8200
 0.9400	87.8200
 0.9440	87.8200
 0.9480	87.7600
 0.9520	87.7200
 0.9560	87.6500
 0.9600	87.5800
 0.9640	87.2300
 0.9680	86.9400
 0.9720	86.5700
 0.9760	86.2300
 0.9800	86.0600
 0.9840	86.2800
 0.9880	86.5900
 0.9920	86.9700
 0.9960	87.1300
 1.0000	87.4700
 1.0040	87.4600
 1.0080	87.4800
 1.0120	87.5200
 1.0160	87.5100
 1.0200	87.5200
 1.0240	87.5300
 1.0280	87.4800
 1.0320	87.5400
 1.0360	87.6000
 1.0400	87.6500
 1.0440	87.6900
 1.0480	87.5200
 1.0520	87.5800
 1.0560	87.6100
 1.0600	87.5400
 1.0640	87.6100
 1.0680	87.6100
 1.0720	87.5900
 1.0760	87.5500
 1.0800	87.5600
 1.0840	87.5300
 1.0880	87.4300
 1.0920	87.5100
 1.0960	87.4700
 1.1000	87.4700
 1.1040	87.4700
 1.1080	87.4800
 1.1120	87.4900
 1.1160	87.4700
 1.1200	87.3900
 1.1240	87.5000
 1.1280	87.5300
 1.1320	87.4200
 1.1360	87.3000
 1.1400	87.1800
 1.1440	86.8600
 1.1480	86.3200
 1.1520	85.6100
 1.1560	84.6100
 1.1600	84.1300
 1.1640	84.7700
 1.1680	85.5500
 1.1720	86.1200
 1.1760	86.3000
 1.1800	86.4300
 1.1840	86.6200
 1.1880	86.6700
 1.1920	86.7400
 1.1960	86.7600
 1.2000	86.7000
 1.2040	86.6200
 1.2080	86.7300
 1.2120	86.6300
 1.2160	86.6600
 1.2200	86.7200
 1.2240	86.6400
 1.2280	86.7100
 1.2320	86.6100
 1.2360	86.5800
 1.2400	86.4800
 1.2440	86.4900
 1.2480	86.4500
 1.2520	86.4500
 1.2560	86.3500
 1.2600	86.3400
 1.2640	86.3200
 1.2680	86.2900
 1.2720	86.1800
 1.2760	86.2100
 1.2800	86.1300
 1.2840	86.1100
 1.2880	85.9200
 1.2920	85.8300
 1.2960	85.7600
 1.3000	85.7800
 1.3040	85.6300
 1.3080	85.5100
 1.3120	85.2200
 1.3160	84.7700
 1.3200	84.6600
 1.3240	84.6500
 1.3280	84.6100
 1.3320	84.3600
 1.3360	84.0800
 1.3400	83.9800
 1.3440	84.1400
 1.3480	84.3500
 1.3520	84.3800
 1.3560	84.5500
 1.3600	84.5400
 1.3640	84.4900
 1.3680	84.4900
 1.3720	84.4300
 1.3760	84.4100
 1.3800	84.2400
 1.3840	84.1600
 1.3880	83.8200
 1.3920	83.4100
 1.3960	82.4900
 1.4000	81.4500
 1.4040	80.7000
 1.4080	79.8700
 1.4120	78.3600
 1.4160	76.6300
 1.4200	74.6900
 1.4240	72.4800
 1.4280	69.9500
 1.4320	66.5800
 1.4360	63.6000
 1.4400	63.8700
 1.4440	67.3100
 1.4480	70.8300
 1.4520	73.2100
 1.4560	74.6700
 1.4600	75.6800
 1.4640	76.1500
 1.4680	76.4500
 1.4720	76.6200
 1.4760	76.7200
 1.4800	76.6400
 1.4840	76.6200
 1.4880	76.5000
 1.4920	76.4100
 1.4960	76.2300
 1.5000	76.2200
 1.5040	75.9600
 1.5080	75.7500
 1.5120	75.7700
 1.5160	75.8300
 1.5200	76.3600
 1.5240	76.9300
 1.5280	77.5800
 1.5320	77.9900
 1.5360	78.3300
 1.5400	78.6600
 1.5440	78.8400
 1.5480	78.9700
 1.5520	79.0000
 1.5560	79.0100
 1.5600	78.9800
 1.5640	78.9600
 1.5680	78.7900
 1.5720	78.6600
 1.5760	78.5500
 1.5800	78.3300
 1.5840	78.1200
 1.5880	77.8500
 1.5920	77.6500
 1.5960	77.4700
 1.6000	77.2400
 1.6040	76.9700
 1.6080	76.6300
 1.6120	76.3300
 1.6160	76.1300
 1.6200	75.6300
 1.6240	75.2200
 1.6280	74.9200
 1.6320	74.5700
 1.6360	74.1600
 1.6400	73.8000
 1.6440	73.4600
 1.6480	73.1300
 1.6520	72.7800
 1.6560	72.5400
 1.6600	72.2400
 1.6640	71.8800
 1.6680	71.6700
 1.6720	71.1900
 1.6760	70.9100
 1.6800	70.4000
 1.6840	69.9200
 1.6880	69.4300
 1.6920	68.9400
 1.6960	68.5500
 1.7000	68.0000
 1.7040	67.5700
 1.7080	67.3100
 1.7120	66.9400
 1.7160	66.8500
 1.7200	66.7300
 1.7240	66.5800
 1.7280	66.4200
 1.7320	66.2300
 1.7360	66.0800
 1.7400	65.9000
 1.7440	65.7200
 1.7480	65.6000
 1.7520	65.5900
 1.7560	65.4900
 1.7600	65.3800
 1.7640	65.2900
 1.7680	65.0900
 1.7720	65.1000
 1.7760	64.9700
 1.7800	65.0100
 1.7840	64.9900
 1.7880	64.8500
 1.7920	64.8100
 1.7960	64.7700
 1.8000	64.8100
 1.8040	64.7800
 1.8080	64.8300
 1.8120	64.8300
 1.8160	64.9300
 1.8200	64.9400
 1.8240	64.9100
 1.8280	64.9900
 1.8320	64.9500
 1.8360	64.9600
 1.8400	64.8700
 1.8440	64.6900
 1.8480	64.5800
 1.8520	64.2500
 1.8560	63.9100
 1.8600	63.5200
 1.8640	62.9400
 1.8680	62.3700
 1.8720	61.5700
 1.8760	60.6900
 1.8800	59.3800
 1.8840	57.4300
 1.8880	54.3900
 1.8920	50.2500
 1.8960	45.4800
 1.9000	41.0900
 1.9040	38.0400
 1.9080	36.9200
 1.9120	37.9800
 1.9160	40.6500
 1.9200	44.1500
 1.9240	47.8200
 1.9280	50.9200
 1.9320	53.2000
 1.9360	54.7700
 1.9400	55.8300
 1.9440	56.5200
 1.9480	56.8400
 1.9520	57.0700
 1.9560	57.2300
 1.9600	57.2500
 1.9640	57.2900
 1.9680	57.2100
 1.9720	57.2700
 1.9760	57.1100
 1.9800	57.0700
 1.9840	57.0500
 1.9880	57.0700
 1.9920	57.1000
 1.9960	57.2100
 2.0000	57.4100
 2.0040	57.4700
 2.0080	57.5200
 2.0120	57.5300
 2.0160	57.7200
 2.0200	57.8300
 2.0240	57.8400
 2.0280	57.9000
 2.0320	57.9800
 2.0360	58.0100
 2.0400	58.0800
 2.0440	58.0300
 2.0480	58.0700
 2.0520	58.0100
 2.0560	58.0600
 2.0600	58.0600
 2.0640	58.1000
 2.0680	58.1900
 2.0720	58.3600
 2.0760	58.4500
 2.0800	58.6200
 2.0840	58.5600
 2.0880	58.5900
 2.0920	58.4000
 2.0960	58.2400
 2.1000	58.0100
 2.1040	57.7300
 2.1080	57.4000
 2.1120	57.1000
 2.1160	56.8000
 2.1200	56.5700
 2.1240	56.2100
 2.1280	56.0600
 2.1320	55.9900
 2.1360	55.9900
 2.1400	56.1000
 2.1440	56.3300
 2.1480	56.6500
 2.1520	56.8700
 2.1560	57.1700
 2.1600	57.5100
 2.1640	57.7600
 2.1680	57.9700
 2.1720	58.1900
 2.1760	58.3100
 2.1800	58.5200
 2.1840	58.6700
 2.1880	58.8700
 2.1920	59.1200
 2.1960	59.4100
 2.2000	59.7400
 2.2040	60.0300
 2.2080	60.4000
 2.2120	60.6500
 2.2160	60.9700
 2.2200	61.1800
 2.2240	61.4700
 2.2280	61.6200
 2.2320	61.7800
 2.2360	61.9200
 2.2400	61.9100
 2.2440	62.0700
 2.2480	62.0800
 2.2520	62.1800
 2.2560	62.1200
 2.2600	62.1300
 2.2640	62.1900
 2.2680	62.1100
 2.2720	62.0400
 2.2760	61.7700
 2.2800	61.6000
 2.2840	61.2200
 2.2880	60.8600
 2.2920	60.5100
 2.2960	60.3000
 2.3000	60.2400
 2.3040	60.0700
 2.3080	60.0500
 2.3120	60.0800
 2.3160	60.2300
 2.3200	60.2700
 2.3240	60.1400
 2.3280	59.7500
 2.3320	59.3000
 2.3360	58.5300
 2.3400	57.4700
 2.3440	56.0800
 2.3480	54.2700
 2.3520	52.0800
 2.3560	49.7300
 2.3600	47.1500
 2.3640	44.5300
 2.3680	42.0600
 2.3720	39.8900
 2.3760	38.1300
 2.3800	36.6300
 2.3840	35.6300
 2.3880	35.0700
 2.3920	34.6100
 2.3960	34.5700
 2.4000	34.7900
 2.4040	35.2300
 2.4080	35.8800
 2.4120	36.7100
 2.4160	37.5000
 2.4200	38.2000
 2.4240	38.8000
 2.4280	39.0000
 2.4320	39.0800
 2.4360	38.8700
 2.4400	38.5200
 2.4440	38.2100
 2.4480	37.9200
 2.4520	37.6600
 2.4560	37.5400
 2.4600	37.5600
 2.4640	37.8000
 2.4680	38.1500
 2.4720	38.6600
 2.4760	39.2300
 2.4800	39.9200
 2.4840	40.6000
 2.4880	41.2700
 2.4920	41.9000
 2.4960	42.5400
 2.5000	43.0600
