Name: Kaolinite Al_2Si_2O_5(OH)_4
Type: Mineral
Class: Silicate
Subclass: Phyllosilicate
Particle Size: Fine
Sample No.: PS-1A
Owner: JPL
Wavelength Range: VSWIR
Origin: USA, Georgia, Washington County
Collection Date: N/A
Description: Well-ordered Kaolinite. Particle size was 0-45um.Collected by Clay Mineral Society Original ASTER Spectral Library name was jpl.beckman.mineral.silicate.phyllosilicate.fine.ps01a.spectrum.txt
Measurement: Hemispherical reflectance
First Column: X
Second Column: Y
X Units: Wavelength (micrometers)
Y Units:Reflectance (percent)
First X Value:  0.4000
Last X Value:  2.5000
Number of X Values: 826
Additional Information: mineral.silicate.phyllosilicate.fine.vswir.ps-1a.jpl.beckman.ancillary.txt

 0.4000	74.2400
 0.4010	74.4700
 0.4020	74.7000
 0.4030	74.9100
 0.4040	75.1000
 0.4050	75.3200
 0.4060	75.6600
 0.4070	75.7800
 0.4080	75.8100
 0.4090	76.0000
 0.4100	76.2300
 0.4110	76.3700
 0.4120	76.6400
 0.4130	76.7600
 0.4140	76.8700
 0.4150	77.1000
 0.4160	77.2400
 0.4170	77.5000
 0.4180	77.5100
 0.4190	77.6000
 0.4200	77.8700
 0.4210	78.0000
 0.4220	78.2000
 0.4230	78.3100
 0.4240	78.5500
 0.4250	78.6500
 0.4260	78.7100
 0.4270	79.0100
 0.4280	79.0900
 0.4290	79.2800
 0.4300	79.3500
 0.4310	79.4600
 0.4320	79.5500
 0.4330	79.9000
 0.4340	80.0700
 0.4350	80.1300
 0.4360	80.2400
 0.4370	80.3100
 0.4380	80.5000
 0.4390	80.6500
 0.4400	80.8200
 0.4410	80.8700
 0.4420	80.9500
 0.4430	81.0500
 0.4440	81.1100
 0.4450	81.3000
 0.4460	81.2500
 0.4470	81.2900
 0.4480	81.5800
 0.4490	81.5400
 0.4500	81.6800
 0.4510	81.7400
 0.4520	81.8100
 0.4530	81.9700
 0.4540	82.0900
 0.4550	82.2900
 0.4560	82.2200
 0.4570	82.3700
 0.4580	82.4700
 0.4590	82.4200
 0.4600	82.5300
 0.4610	82.7400
 0.4620	82.8500
 0.4630	82.8200
 0.4640	83.0000
 0.4650	83.0200
 0.4660	83.1400
 0.4670	83.1700
 0.4680	83.2000
 0.4690	83.5300
 0.4700	83.5400
 0.4710	83.6400
 0.4720	83.6900
 0.4730	83.7300
 0.4740	83.7800
 0.4750	83.9700
 0.4760	84.0400
 0.4770	84.1700
 0.4780	84.0600
 0.4790	84.0200
 0.4800	84.2500
 0.4810	84.2900
 0.4820	84.5200
 0.4830	84.3900
 0.4840	84.4700
 0.4850	84.5600
 0.4860	84.5800
 0.4870	84.7200
 0.4880	84.6300
 0.4890	84.7500
 0.4900	84.7900
 0.4910	84.7800
 0.4920	84.9200
 0.4930	84.9600
 0.4940	84.9700
 0.4950	85.1000
 0.4960	85.0000
 0.4970	85.1900
 0.4980	85.2700
 0.4990	85.3200
 0.5000	85.3300
 0.5010	85.5200
 0.5020	85.6500
 0.5030	85.6600
 0.5040	85.6200
 0.5050	85.6600
 0.5060	85.8600
 0.5070	86.0300
 0.5080	85.9700
 0.5090	86.0200
 0.5100	86.0800
 0.5110	86.1300
 0.5120	86.2900
 0.5130	86.3400
 0.5140	86.3300
 0.5150	86.3200
 0.5160	86.4400
 0.5170	86.5800
 0.5180	86.6500
 0.5190	86.6900
 0.5200	86.6900
 0.5210	86.7600
 0.5220	86.9400
 0.5230	87.0300
 0.5240	86.9700
 0.5250	86.9200
 0.5260	86.9300
 0.5270	87.1100
 0.5280	87.1700
 0.5290	87.1600
 0.5300	87.2200
 0.5310	87.2100
 0.5320	87.2700
 0.5330	87.3500
 0.5340	87.3600
 0.5350	87.3800
 0.5360	87.3700
 0.5370	87.6000
 0.5380	87.6700
 0.5390	87.6100
 0.5400	87.7900
 0.5410	87.6800
 0.5420	87.6900
 0.5430	87.7600
 0.5440	87.7100
 0.5450	87.7900
 0.5460	87.8000
 0.5470	87.9800
 0.5480	88.0500
 0.5490	88.0600
 0.5500	88.1200
 0.5510	88.0700
 0.5520	88.0700
 0.5530	88.3000
 0.5540	88.1800
 0.5550	88.2400
 0.5560	88.1700
 0.5570	88.2600
 0.5580	88.2900
 0.5590	88.3200
 0.5600	88.3800
 0.5610	88.7700
 0.5620	89.0000
 0.5630	88.8900
 0.5640	88.9000
 0.5650	88.8400
 0.5660	88.9100
 0.5670	89.0200
 0.5680	88.9700
 0.5690	88.9100
 0.5700	88.9700
 0.5710	88.9600
 0.5720	88.9600
 0.5730	88.9300
 0.5740	88.8800
 0.5750	89.0800
 0.5760	89.0500
 0.5770	89.0900
 0.5780	89.0300
 0.5790	89.0300
 0.5800	89.1500
 0.5810	89.0900
 0.5820	89.2100
 0.5830	89.1600
 0.5840	89.1600
 0.5850	89.2100
 0.5860	89.2600
 0.5870	89.3800
 0.5880	89.3200
 0.5890	89.2100
 0.5900	89.4400
 0.5910	89.5000
 0.5920	89.5600
 0.5930	89.5700
 0.5940	89.5200
 0.5950	89.6300
 0.5960	89.6300
 0.5970	89.7500
 0.5980	89.8200
 0.5990	89.8500
 0.6000	89.9300
 0.6010	89.8400
 0.6020	89.8600
 0.6030	90.0000
 0.6040	89.9700
 0.6050	90.0200
 0.6060	90.0100
 0.6070	90.0100
 0.6080	90.1400
 0.6090	90.0200
 0.6100	90.1300
 0.6110	90.1400
 0.6120	90.1400
 0.6130	90.2500
 0.6140	90.1900
 0.6150	90.1800
 0.6160	90.1300
 0.6170	90.0700
 0.6180	90.2000
 0.6190	90.1400
 0.6200	90.3000
 0.6210	90.2500
 0.6220	90.2600
 0.6230	90.4200
 0.6240	90.3600
 0.6250	90.4700
 0.6260	90.3500
 0.6270	90.4100
 0.6280	90.4200
 0.6290	90.4300
 0.6300	90.5400
 0.6310	90.6600
 0.6320	90.4700
 0.6330	90.5400
 0.6340	90.7700
 0.6350	90.7100
 0.6360	90.6500
 0.6370	90.7000
 0.6380	90.8700
 0.6390	90.7500
 0.6400	90.8200
 0.6410	90.8800
 0.6420	90.8300
 0.6430	90.9400
 0.6440	90.7600
 0.6450	90.8800
 0.6460	91.0000
 0.6470	91.0000
 0.6480	91.0000
 0.6490	90.9400
 0.6500	90.9300
 0.6510	91.0500
 0.6520	91.2200
 0.6530	91.1700
 0.6540	91.1800
 0.6550	91.1800
 0.6560	91.1700
 0.6570	91.1700
 0.6580	91.2900
 0.6590	91.2300
 0.6600	91.0000
 0.6610	91.2900
 0.6620	91.2900
 0.6630	91.3400
 0.6640	91.2800
 0.6650	91.2200
 0.6660	91.2900
 0.6670	91.4100
 0.6680	91.5800
 0.6690	91.4700
 0.6700	91.3500
 0.6710	91.4100
 0.6720	91.4100
 0.6730	91.4700
 0.6740	91.4600
 0.6750	91.4600
 0.6760	91.6300
 0.6770	91.6300
 0.6780	91.6900
 0.6790	91.6900
 0.6800	91.7600
 0.6810	91.7000
 0.6820	91.6400
 0.6830	91.7000
 0.6840	91.8700
 0.6850	91.8700
 0.6860	91.9300
 0.6870	91.8700
 0.6880	91.8100
 0.6890	91.9200
 0.6900	91.8700
 0.6910	91.9800
 0.6920	91.9800
 0.6930	91.9800
 0.6940	92.0300
 0.6950	91.9700
 0.6960	92.0900
 0.6970	92.0300
 0.6980	91.9200
 0.6990	92.0000
 0.7000	92.0500
 0.7010	91.9800
 0.7020	92.1500
 0.7030	92.2700
 0.7040	92.2100
 0.7050	92.3300
 0.7060	92.2100
 0.7070	92.2700
 0.7080	92.4400
 0.7090	92.4400
 0.7100	92.3800
 0.7110	92.4400
 0.7120	92.5000
 0.7130	92.5600
 0.7140	92.5000
 0.7150	92.5600
 0.7160	92.5000
 0.7170	92.4400
 0.7180	92.6100
 0.7190	92.5500
 0.7200	92.5000
 0.7210	92.5000
 0.7220	92.6200
 0.7230	92.5600
 0.7240	92.5000
 0.7250	92.7300
 0.7260	92.7900
 0.7270	92.7300
 0.7280	92.7300
 0.7290	92.7900
 0.7300	92.7900
 0.7310	92.8500
 0.7320	92.6700
 0.7330	92.7300
 0.7340	92.6700
 0.7350	92.7300
 0.7360	92.9000
 0.7370	92.8500
 0.7380	92.9000
 0.7390	92.7300
 0.7400	92.7900
 0.7410	92.9000
 0.7420	92.7900
 0.7430	92.7900
 0.7440	92.8500
 0.7450	92.8500
 0.7460	92.9600
 0.7470	92.9600
 0.7480	93.0200
 0.7490	92.8400
 0.7500	92.9000
 0.7510	92.9100
 0.7520	92.9100
 0.7530	92.9600
 0.7540	93.0200
 0.7550	92.9600
 0.7560	93.0200
 0.7570	92.9600
 0.7580	93.0200
 0.7590	93.0200
 0.7600	92.9600
 0.7610	93.0200
 0.7620	93.0200
 0.7630	92.9600
 0.7640	93.0800
 0.7650	93.0800
 0.7660	93.0200
 0.7670	93.0200
 0.7680	93.0800
 0.7690	93.2000
 0.7700	93.1400
 0.7710	93.1400
 0.7720	93.1400
 0.7730	93.1400
 0.7740	93.2000
 0.7750	93.1400
 0.7760	93.1900
 0.7770	93.1900
 0.7780	93.1400
 0.7790	93.2600
 0.7800	93.2000
 0.7810	93.2500
 0.7820	93.1400
 0.7830	93.1400
 0.7840	93.3100
 0.7850	93.2500
 0.7860	93.2500
 0.7870	93.2600
 0.7880	93.2600
 0.7890	93.2600
 0.7900	93.2000
 0.7910	93.3100
 0.7920	93.3700
 0.7930	93.2600
 0.7940	93.3100
 0.7950	93.2500
 0.7960	93.3100
 0.7970	93.3700
 0.7980	93.3700
 0.7990	93.3600
 0.8000	93.3500
 0.8040	93.4700
 0.8080	93.4600
 0.8120	93.4600
 0.8160	93.4600
 0.8200	93.4600
 0.8240	93.5200
 0.8280	93.5200
 0.8320	93.5800
 0.8360	93.5800
 0.8400	93.5800
 0.8440	93.6300
 0.8480	93.6900
 0.8520	93.6900
 0.8560	93.7500
 0.8600	93.7500
 0.8640	93.9300
 0.8680	93.8700
 0.8720	93.8700
 0.8760	93.9300
 0.8800	93.8700
 0.8840	93.9300
 0.8880	93.9300
 0.8920	93.9900
 0.8960	93.9900
 0.9000	93.9300
 0.9040	93.8700
 0.9080	93.9300
 0.9120	93.8700
 0.9160	93.9300
 0.9200	93.9300
 0.9240	93.8700
 0.9280	93.8700
 0.9320	93.8700
 0.9360	93.6900
 0.9400	93.5800
 0.9440	93.4000
 0.9480	93.2200
 0.9520	93.1600
 0.9560	93.1000
 0.9600	92.9800
 0.9640	93.0400
 0.9680	93.7500
 0.9720	94.0500
 0.9760	94.1700
 0.9800	94.1700
 0.9840	94.2300
 0.9880	94.2300
 0.9920	94.2300
 0.9960	94.2900
 1.0000	94.2900
 1.0040	94.1700
 1.0080	94.2900
 1.0120	94.3500
 1.0160	94.2900
 1.0200	94.1700
 1.0240	94.3500
 1.0280	94.2900
 1.0320	94.3500
 1.0360	94.4100
 1.0400	94.4100
 1.0440	94.4100
 1.0480	94.3500
 1.0520	94.3500
 1.0560	94.3500
 1.0600	94.4100
 1.0640	94.4100
 1.0680	94.4100
 1.0720	94.4700
 1.0760	94.3500
 1.0800	94.4600
 1.0840	94.4600
 1.0880	94.4600
 1.0920	94.5200
 1.0960	94.4600
 1.1000	94.4600
 1.1040	94.4000
 1.1080	94.4000
 1.1120	94.3400
 1.1160	94.4000
 1.1200	94.4600
 1.1240	94.5800
 1.1280	94.5800
 1.1320	94.5200
 1.1360	94.4600
 1.1400	94.4100
 1.1440	94.3500
 1.1480	94.2300
 1.1520	94.3500
 1.1560	94.2800
 1.1600	94.2700
 1.1640	94.3200
 1.1680	94.3100
 1.1720	94.3100
 1.1760	94.3000
 1.1800	94.2900
 1.1840	94.2800
 1.1880	94.1600
 1.1920	94.1000
 1.1960	94.1500
 1.2000	94.0800
 1.2040	94.0200
 1.2080	93.9000
 1.2120	93.9000
 1.2160	93.7200
 1.2200	93.4800
 1.2240	93.1900
 1.2280	92.9500
 1.2320	92.9000
 1.2360	92.7300
 1.2400	92.9100
 1.2440	93.0800
 1.2480	93.2000
 1.2520	93.2000
 1.2560	93.1900
 1.2600	93.3600
 1.2640	93.2400
 1.2680	93.1800
 1.2720	93.1700
 1.2760	92.9300
 1.2800	92.5200
 1.2840	92.0600
 1.2880	91.6300
 1.2920	91.3400
 1.2960	90.9400
 1.3000	90.5800
 1.3040	90.2200
 1.3080	90.1100
 1.3120	89.9800
 1.3160	89.7000
 1.3200	89.5700
 1.3240	89.3300
 1.3280	89.1500
 1.3320	89.0800
 1.3360	89.0600
 1.3400	88.7800
 1.3440	87.8100
 1.3480	86.5900
 1.3520	85.8600
 1.3560	85.8300
 1.3600	86.0800
 1.3640	85.9000
 1.3680	85.3300
 1.3720	84.0800
 1.3760	82.3200
 1.3800	80.0600
 1.3840	77.3000
 1.3880	74.9200
 1.3920	74.7000
 1.3960	75.4800
 1.4000	76.4000
 1.4040	76.0800
 1.4080	73.5400
 1.4120	75.7400
 1.4160	83.0500
 1.4200	87.5000
 1.4240	89.0900
 1.4280	90.0900
 1.4320	90.6600
 1.4360	91.0800
 1.4400	91.3200
 1.4440	91.5500
 1.4480	91.7900
 1.4520	92.0200
 1.4560	92.0800
 1.4600	92.2500
 1.4640	92.4200
 1.4680	92.4800
 1.4720	92.5300
 1.4760	92.7100
 1.4800	92.7700
 1.4840	92.7700
 1.4880	92.7100
 1.4920	92.6500
 1.4960	92.8200
 1.5000	92.9400
 1.5040	93.1700
 1.5080	93.2900
 1.5120	93.4000
 1.5160	93.4600
 1.5200	93.4000
 1.5240	93.5200
 1.5280	93.4700
 1.5320	93.4100
 1.5360	93.5200
 1.5400	93.4700
 1.5440	93.4700
 1.5480	93.4600
 1.5520	93.4100
 1.5560	93.4100
 1.5600	93.4100
 1.5640	93.4700
 1.5680	93.4700
 1.5720	93.4100
 1.5760	93.4100
 1.5800	93.5200
 1.5840	93.4700
 1.5880	93.5200
 1.5920	93.5800
 1.5960	93.5200
 1.6000	93.6300
 1.6040	93.5700
 1.6080	93.6200
 1.6120	93.5600
 1.6160	93.5500
 1.6200	93.6000
 1.6240	93.6500
 1.6280	93.5800
 1.6320	93.5800
 1.6360	93.5700
 1.6400	93.5000
 1.6440	93.4900
 1.6480	93.4800
 1.6520	93.4200
 1.6560	93.3600
 1.6600	93.4000
 1.6640	93.2200
 1.6680	93.3800
 1.6720	93.3200
 1.6760	93.2100
 1.6800	93.2000
 1.6840	93.1300
 1.6880	93.0700
 1.6920	93.0100
 1.6960	93.0000
 1.7000	92.9300
 1.7040	92.8700
 1.7080	92.8700
 1.7120	92.7500
 1.7160	92.6400
 1.7200	92.5300
 1.7240	92.4700
 1.7280	92.3600
 1.7320	92.2500
 1.7360	92.1900
 1.7400	92.0700
 1.7440	92.1300
 1.7480	91.9500
 1.7520	91.7800
 1.7560	91.6700
 1.7600	91.5600
 1.7640	91.5000
 1.7680	91.1500
 1.7720	90.9900
 1.7760	90.7500
 1.7800	90.4700
 1.7840	90.2200
 1.7880	89.9900
 1.7920	89.8800
 1.7960	89.8200
 1.8000	89.7200
 1.8040	89.4700
 1.8080	89.4300
 1.8120	89.3500
 1.8160	89.2700
 1.8200	89.2400
 1.8240	89.3600
 1.8280	89.4100
 1.8320	89.3900
 1.8360	89.3200
 1.8400	89.4000
 1.8440	89.6500
 1.8480	89.9600
 1.8520	90.1700
 1.8560	90.3200
 1.8600	90.2100
 1.8640	90.0200
 1.8680	89.7000
 1.8720	89.3500
 1.8760	89.0200
 1.8800	88.6200
 1.8840	88.2800
 1.8880	87.9500
 1.8920	87.6000
 1.8960	87.0700
 1.9000	86.6800
 1.9040	86.2600
 1.9080	86.0700
 1.9120	85.9500
 1.9160	85.8700
 1.9200	85.8200
 1.9240	85.8500
 1.9280	85.8000
 1.9320	85.7800
 1.9360	85.7100
 1.9400	85.7700
 1.9440	85.8400
 1.9480	85.7800
 1.9520	85.8900
 1.9560	85.9300
 1.9600	85.9900
 1.9640	86.0500
 1.9680	86.0400
 1.9720	86.0500
 1.9760	86.0900
 1.9800	86.0200
 1.9840	86.1200
 1.9880	86.0600
 1.9920	86.0300
 1.9960	86.0000
 2.0000	86.0200
 2.0040	85.8900
 2.0080	85.7900
 2.0120	85.6600
 2.0160	85.5900
 2.0200	85.4900
 2.0240	85.4100
 2.0280	85.2200
 2.0320	85.0500
 2.0360	84.9000
 2.0400	84.7500
 2.0440	84.5900
 2.0480	84.3600
 2.0520	84.0500
 2.0560	83.7800
 2.0600	83.4500
 2.0640	83.0100
 2.0680	82.6300
 2.0720	82.2700
 2.0760	81.8500
 2.0800	81.5200
 2.0840	81.2000
 2.0880	80.8200
 2.0920	80.4200
 2.0960	80.0400
 2.1000	79.6700
 2.1040	79.1300
 2.1080	78.6100
 2.1120	78.1600
 2.1160	77.6700
 2.1200	77.2100
 2.1240	76.3500
 2.1280	75.2100
 2.1320	73.6700
 2.1360	71.7100
 2.1400	69.4300
 2.1440	67.1300
 2.1480	65.1100
 2.1520	63.4100
 2.1560	62.4300
 2.1600	61.9600
 2.1640	61.8200
 2.1680	61.9000
 2.1720	61.9700
 2.1760	61.9300
 2.1800	61.5800
 2.1840	60.8500
 2.1880	59.7000
 2.1920	58.3700
 2.1960	57.3100
 2.2000	56.7900
 2.2040	57.3200
 2.2080	59.0700
 2.2120	61.7400
 2.2160	64.6100
 2.2200	67.1900
 2.2240	69.2900
 2.2280	70.5400
 2.2320	71.1500
 2.2360	71.2800
 2.2400	71.2300
 2.2440	71.0900
 2.2480	70.8800
 2.2520	70.6700
 2.2560	70.3200
 2.2600	69.9200
 2.2640	69.4600
 2.2680	68.9900
 2.2720	68.5600
 2.2760	67.9500
 2.2800	67.5200
 2.2840	66.9400
 2.2880	66.3900
 2.2920	65.7500
 2.2960	65.1300
 2.3000	64.4700
 2.3040	63.8100
 2.3080	63.4000
 2.3120	63.1200
 2.3160	62.9500
 2.3200	62.9000
 2.3240	62.7800
 2.3280	62.7300
 2.3320	62.6600
 2.3360	62.4600
 2.3400	62.0800
 2.3440	61.6500
 2.3480	61.2400
 2.3520	60.9000
 2.3560	60.4900
 2.3600	60.1100
 2.3640	59.6600
 2.3680	59.2300
 2.3720	58.8100
 2.3760	58.5300
 2.3800	58.4500
 2.3840	58.4500
 2.3880	58.6900
 2.3920	59.0200
 2.3960	59.2400
 2.4000	59.4600
 2.4040	59.5100
 2.4080	59.4400
 2.4120	59.1600
 2.4160	58.7100
 2.4200	58.2200
 2.4240	57.5600
 2.4280	56.8900
 2.4320	56.1900
 2.4360	55.5200
 2.4400	54.8500
 2.4440	54.3100
 2.4480	53.8800
 2.4520	53.3200
 2.4560	52.9400
 2.4600	52.4000
 2.4640	52.0900
 2.4680	51.6900
 2.4720	51.2100
 2.4760	50.9200
 2.4800	50.6200
 2.4840	50.2500
 2.4880	49.9900
 2.4920	49.7000
 2.4960	49.4500
 2.5000	49.2200
