Name: Scorodite Fe^3+AsO_4.2H_2O
Type: Mineral
Class: Arsenate
Subclass: None
Particle Size: Fine
Sample No.: A-2A
Owner: JPL
Wavelength Range: VSWIR
Origin: USA, Utah, Tooele County, Gold Hill.
Collection Date: N/A
Description: Particle size was 0-45um.Collected by:  Ward's Original ASTER Spectral Library name was jpl.perkin.mineral.arsenate.none.fine.a02a.spectrum.txt
Measurement: Hemispherical reflectance
First Column: X
Second Column: Y
X Units: Wavelength (micrometers)
Y Units:Reflectance (percent)
First X Value:  2.5000
Last X Value:  0.4000
Number of X Values: 2101
Additional Information: mineral.arsenate.none.fine.vswir.a-2a.jpl.perkin.ancillary.txt

 2.5000	32.6313
 2.4990	32.4321
 2.4980	32.8975
 2.4970	33.0769
 2.4960	33.2742
 2.4950	33.5944
 2.4940	33.7408
 2.4930	34.0384
 2.4920	34.2922
 2.4910	34.4288
 2.4900	34.8461
 2.4890	34.9353
 2.4880	35.3598
 2.4870	35.2774
 2.4860	35.8011
 2.4850	35.9056
 2.4840	36.1861
 2.4830	36.2037
 2.4820	36.5731
 2.4810	36.7268
 2.4800	36.8893
 2.4790	37.0987
 2.4780	37.4218
 2.4770	37.4392
 2.4760	37.8054
 2.4750	37.7843
 2.4740	38.1176
 2.4730	38.2919
 2.4720	38.5005
 2.4710	38.5688
 2.4700	38.7931
 2.4690	39.1372
 2.4680	39.2582
 2.4670	39.2519
 2.4660	39.5999
 2.4650	39.6962
 2.4640	39.9665
 2.4630	39.9827
 2.4620	40.1206
 2.4610	40.2345
 2.4600	40.5111
 2.4590	40.6031
 2.4580	40.7634
 2.4570	40.8829
 2.4560	40.9551
 2.4550	41.0769
 2.4540	41.1432
 2.4530	41.2310
 2.4520	41.3672
 2.4510	41.4440
 2.4500	41.5499
 2.4490	41.7359
 2.4480	41.8157
 2.4470	41.9048
 2.4460	42.1701
 2.4450	42.1702
 2.4440	42.3081
 2.4430	42.3161
 2.4420	42.4877
 2.4410	42.5651
 2.4400	42.6071
 2.4390	42.6977
 2.4380	42.8467
 2.4370	42.9487
 2.4360	43.0648
 2.4350	43.0038
 2.4340	43.1540
 2.4330	43.1916
 2.4320	43.3770
 2.4310	43.4548
 2.4300	43.5168
 2.4290	43.5981
 2.4280	43.7706
 2.4270	43.8037
 2.4260	43.8938
 2.4250	43.9375
 2.4240	44.0401
 2.4230	44.1159
 2.4220	44.2513
 2.4210	44.2762
 2.4200	44.4230
 2.4190	44.5056
 2.4180	44.5748
 2.4170	44.6224
 2.4160	44.7496
 2.4150	44.7837
 2.4140	44.9692
 2.4130	45.0096
 2.4120	45.1376
 2.4110	45.2091
 2.4100	45.3674
 2.4090	45.3835
 2.4080	45.4679
 2.4070	45.4821
 2.4060	45.6114
 2.4050	45.6752
 2.4040	45.7366
 2.4030	45.8339
 2.4020	45.8972
 2.4010	45.9622
 2.4000	46.0711
 2.3990	46.1369
 2.3980	46.2138
 2.3970	46.3232
 2.3960	46.4447
 2.3950	46.5108
 2.3940	46.5808
 2.3930	46.5875
 2.3920	46.6592
 2.3910	46.7361
 2.3900	46.8844
 2.3890	46.9069
 2.3880	46.9686
 2.3870	47.0714
 2.3860	47.1457
 2.3850	47.1557
 2.3840	47.1933
 2.3830	47.3182
 2.3820	47.4122
 2.3810	47.4559
 2.3800	47.5134
 2.3790	47.5431
 2.3780	47.6048
 2.3770	47.6382
 2.3760	47.6741
 2.3750	47.6932
 2.3740	47.8373
 2.3730	47.9199
 2.3720	47.9477
 2.3710	48.0040
 2.3700	48.0506
 2.3690	48.0647
 2.3680	48.0970
 2.3670	48.1232
 2.3660	48.1490
 2.3650	48.2039
 2.3640	48.2780
 2.3630	48.2608
 2.3620	48.2859
 2.3610	48.3317
 2.3600	48.3376
 2.3590	48.3439
 2.3580	48.3487
 2.3570	48.3876
 2.3560	48.4146
 2.3550	48.4238
 2.3540	48.3992
 2.3530	48.3830
 2.3520	48.4099
 2.3510	48.4135
 2.3500	48.3482
 2.3490	48.3598
 2.3480	48.3874
 2.3470	48.3647
 2.3460	48.3379
 2.3450	48.3060
 2.3440	48.2995
 2.3430	48.2894
 2.3420	48.2933
 2.3410	48.2860
 2.3400	48.1993
 2.3390	48.1545
 2.3380	48.1537
 2.3370	48.1004
 2.3360	48.0278
 2.3350	48.0940
 2.3340	48.0608
 2.3330	48.0359
 2.3320	48.0485
 2.3310	48.0586
 2.3300	48.0459
 2.3290	48.0056
 2.3280	48.0009
 2.3270	48.0311
 2.3260	48.0546
 2.3250	48.0927
 2.3240	48.1257
 2.3230	48.1782
 2.3220	48.2194
 2.3210	48.2907
 2.3200	48.3622
 2.3190	48.4665
 2.3180	48.4907
 2.3170	48.5433
 2.3160	48.6337
 2.3150	48.7222
 2.3140	48.8343
 2.3130	48.9814
 2.3120	49.0384
 2.3110	49.1287
 2.3100	49.2282
 2.3090	49.3857
 2.3080	49.4853
 2.3070	49.5238
 2.3060	49.6372
 2.3050	49.7478
 2.3040	49.9016
 2.3030	50.0611
 2.3020	50.0831
 2.3010	50.1830
 2.3000	50.2659
 2.2990	50.3818
 2.2980	50.4660
 2.2970	50.6035
 2.2960	50.6846
 2.2950	50.6942
 2.2940	50.8093
 2.2930	50.9289
 2.2920	50.9248
 2.2910	51.0675
 2.2900	51.1485
 2.2890	51.2214
 2.2880	51.2232
 2.2870	51.2481
 2.2860	51.2278
 2.2850	51.3182
 2.2840	51.3888
 2.2830	51.4559
 2.2820	51.3915
 2.2810	51.4707
 2.2800	51.4606
 2.2790	51.4800
 2.2780	51.4684
 2.2770	51.5346
 2.2760	51.5663
 2.2750	51.5131
 2.2740	51.5180
 2.2730	51.5949
 2.2720	51.6350
 2.2710	51.6640
 2.2700	51.6544
 2.2690	51.6332
 2.2680	51.6104
 2.2670	51.6491
 2.2660	51.6008
 2.2650	51.6193
 2.2640	51.5978
 2.2630	51.6728
 2.2620	51.5969
 2.2610	51.6651
 2.2600	51.5868
 2.2590	51.5901
 2.2580	51.6536
 2.2570	51.6829
 2.2560	51.6630
 2.2550	51.6595
 2.2540	51.6467
 2.2530	51.6095
 2.2520	51.6969
 2.2510	51.6835
 2.2500	51.6387
 2.2490	51.6638
 2.2480	51.6390
 2.2470	51.6624
 2.2460	51.6482
 2.2450	51.6393
 2.2440	51.5071
 2.2430	51.5964
 2.2420	51.5668
 2.2410	51.4741
 2.2400	51.5585
 2.2390	51.5226
 2.2380	51.4497
 2.2370	51.3781
 2.2360	51.4299
 2.2350	51.4145
 2.2340	51.3074
 2.2330	51.1994
 2.2320	51.2902
 2.2310	51.3346
 2.2300	51.1722
 2.2290	51.1604
 2.2280	51.0548
 2.2270	51.0583
 2.2260	50.9661
 2.2250	51.0134
 2.2240	50.9715
 2.2230	50.9118
 2.2220	50.8090
 2.2210	50.8316
 2.2200	50.7299
 2.2190	50.7824
 2.2180	50.7366
 2.2170	50.6878
 2.2160	50.6245
 2.2150	50.5793
 2.2140	50.6150
 2.2130	50.5845
 2.2120	50.5372
 2.2110	50.4159
 2.2100	50.4297
 2.2090	50.3965
 2.2080	50.3367
 2.2070	50.3506
 2.2060	50.2031
 2.2050	50.2348
 2.2040	50.2731
 2.2030	50.2841
 2.2020	50.1057
 2.2010	50.1416
 2.2000	50.1021
 2.1990	50.1214
 2.1980	49.9701
 2.1970	50.0368
 2.1960	49.9793
 2.1950	49.9131
 2.1940	49.7977
 2.1930	49.8282
 2.1920	49.6750
 2.1910	49.7179
 2.1900	49.6856
 2.1890	49.6944
 2.1880	49.6545
 2.1870	49.6095
 2.1860	49.4678
 2.1850	49.5058
 2.1840	49.4762
 2.1830	49.4249
 2.1820	49.3832
 2.1810	49.3981
 2.1800	49.2431
 2.1790	49.2834
 2.1780	49.2083
 2.1770	49.1586
 2.1760	49.1391
 2.1750	49.1927
 2.1740	49.0920
 2.1730	49.1433
 2.1720	49.0501
 2.1710	49.0153
 2.1700	48.9516
 2.1690	48.9148
 2.1680	48.8697
 2.1670	48.9144
 2.1660	48.8383
 2.1650	48.8689
 2.1640	48.8158
 2.1630	48.7497
 2.1620	48.7948
 2.1610	48.7406
 2.1600	48.6889
 2.1590	48.6553
 2.1580	48.6472
 2.1570	48.6543
 2.1560	48.5940
 2.1550	48.6203
 2.1540	48.6050
 2.1530	48.5886
 2.1520	48.5077
 2.1510	48.4841
 2.1500	48.4466
 2.1490	48.4114
 2.1480	48.4675
 2.1470	48.4345
 2.1460	48.3030
 2.1450	48.3425
 2.1440	48.2598
 2.1430	48.2077
 2.1420	48.1510
 2.1410	48.1464
 2.1400	48.1336
 2.1390	48.0228
 2.1380	47.9481
 2.1370	47.9232
 2.1360	47.9080
 2.1350	47.8788
 2.1340	47.8337
 2.1330	47.8058
 2.1320	47.6799
 2.1310	47.5929
 2.1300	47.5935
 2.1290	47.5476
 2.1280	47.5402
 2.1270	47.4834
 2.1260	47.4029
 2.1250	47.3680
 2.1240	47.2591
 2.1230	47.1500
 2.1220	47.0710
 2.1210	47.1210
 2.1200	47.1252
 2.1190	47.0645
 2.1180	46.9544
 2.1170	46.9069
 2.1160	46.8595
 2.1150	46.8403
 2.1140	46.7696
 2.1130	46.7136
 2.1120	46.6835
 2.1110	46.6586
 2.1100	46.6409
 2.1090	46.5561
 2.1080	46.5289
 2.1070	46.5329
 2.1060	46.4446
 2.1050	46.3786
 2.1040	46.3549
 2.1030	46.3263
 2.1020	46.2865
 2.1010	46.2619
 2.1000	46.2232
 2.0990	46.1920
 2.0980	46.1413
 2.0970	46.1857
 2.0960	46.2198
 2.0950	46.2123
 2.0940	46.1681
 2.0930	46.1906
 2.0920	46.1806
 2.0910	46.2370
 2.0900	46.2752
 2.0890	46.2159
 2.0880	46.2298
 2.0870	46.2926
 2.0860	46.2623
 2.0850	46.2225
 2.0840	46.2586
 2.0830	46.2821
 2.0820	46.2454
 2.0810	46.2656
 2.0800	46.3367
 2.0790	46.3749
 2.0780	46.3535
 2.0770	46.3382
 2.0760	46.3785
 2.0750	46.3874
 2.0740	46.3488
 2.0730	46.3673
 2.0720	46.4227
 2.0710	46.4288
 2.0700	46.4040
 2.0690	46.4356
 2.0680	46.4938
 2.0670	46.5247
 2.0660	46.5446
 2.0650	46.5513
 2.0640	46.5744
 2.0630	46.5164
 2.0620	46.5086
 2.0610	46.5571
 2.0600	46.6438
 2.0590	46.6338
 2.0580	46.6437
 2.0570	46.7178
 2.0560	46.7251
 2.0550	46.7406
 2.0540	46.7305
 2.0530	46.7476
 2.0520	46.7767
 2.0510	46.7710
 2.0500	46.8256
 2.0490	46.8853
 2.0480	46.9170
 2.0470	46.8763
 2.0460	46.9338
 2.0450	46.9037
 2.0440	46.9322
 2.0430	46.9853
 2.0420	46.9620
 2.0410	46.9673
 2.0400	46.9533
 2.0390	46.9774
 2.0380	47.0137
 2.0370	46.9922
 2.0360	47.0275
 2.0350	46.9917
 2.0340	47.0237
 2.0330	47.0085
 2.0320	47.0376
 2.0310	47.0117
 2.0300	47.0399
 2.0290	46.9571
 2.0280	46.9643
 2.0270	46.9243
 2.0260	46.8667
 2.0250	46.8277
 2.0240	46.8477
 2.0230	46.7440
 2.0220	46.6636
 2.0210	46.5681
 2.0200	46.5108
 2.0190	46.4044
 2.0180	46.3601
 2.0170	46.2748
 2.0160	46.1944
 2.0150	46.0108
 2.0140	45.8505
 2.0130	45.7510
 2.0120	45.6773
 2.0110	45.4908
 2.0100	45.3527
 2.0090	45.2065
 2.0080	45.0292
 2.0070	44.8477
 2.0060	44.7043
 2.0050	44.5641
 2.0040	44.4777
 2.0030	44.3371
 2.0020	44.2680
 2.0010	44.1247
 2.0000	44.0407
 1.9990	43.9458
 1.9980	43.9095
 1.9970	43.7385
 1.9960	43.7934
 1.9950	43.7570
 1.9940	43.7338
 1.9930	43.7265
 1.9920	43.7211
 1.9910	43.6557
 1.9900	43.7347
 1.9890	43.7239
 1.9880	43.6996
 1.9870	43.7677
 1.9860	43.7475
 1.9850	43.7131
 1.9840	43.7425
 1.9830	43.7351
 1.9820	43.7171
 1.9810	43.6699
 1.9800	43.7263
 1.9790	43.5177
 1.9780	43.4628
 1.9770	43.3271
 1.9760	43.3194
 1.9750	43.1661
 1.9740	43.1124
 1.9730	43.0256
 1.9720	42.9093
 1.9710	42.7872
 1.9700	42.7047
 1.9690	42.6071
 1.9680	42.4613
 1.9670	42.3281
 1.9660	42.3987
 1.9650	42.3192
 1.9640	42.2886
 1.9630	42.1843
 1.9620	42.2684
 1.9610	42.3386
 1.9600	42.4303
 1.9590	42.4620
 1.9580	42.6859
 1.9570	42.8195
 1.9560	43.0407
 1.9550	43.2961
 1.9540	43.4247
 1.9530	43.7350
 1.9520	43.9109
 1.9510	44.2598
 1.9500	44.5703
 1.9490	44.7732
 1.9480	45.1249
 1.9470	45.3823
 1.9460	45.6989
 1.9450	46.0533
 1.9440	46.3252
 1.9430	46.5635
 1.9420	46.8935
 1.9410	47.1981
 1.9400	47.5422
 1.9390	47.7632
 1.9380	48.0111
 1.9370	48.3867
 1.9360	48.5712
 1.9350	48.8320
 1.9340	49.0623
 1.9330	49.2845
 1.9320	49.5624
 1.9310	49.7517
 1.9300	49.9511
 1.9290	50.1192
 1.9280	50.4016
 1.9270	50.6283
 1.9260	50.7539
 1.9250	50.9698
 1.9240	51.1852
 1.9230	51.4401
 1.9220	51.5945
 1.9210	51.6538
 1.9200	51.9096
 1.9190	52.0242
 1.9180	52.3055
 1.9170	52.4363
 1.9160	52.5623
 1.9150	52.6352
 1.9140	52.7737
 1.9130	52.9172
 1.9120	52.9749
 1.9110	53.1014
 1.9100	53.1602
 1.9090	53.3480
 1.9080	53.5110
 1.9070	53.5795
 1.9060	53.7062
 1.9050	53.6963
 1.9040	53.8441
 1.9030	53.9846
 1.9020	54.1324
 1.9010	54.1450
 1.9000	54.2462
 1.8990	54.2936
 1.8980	54.3993
 1.8970	54.4212
 1.8960	54.5150
 1.8950	54.5884
 1.8940	54.6809
 1.8930	54.7550
 1.8920	54.7455
 1.8910	54.8152
 1.8900	54.8649
 1.8890	54.8562
 1.8880	54.9091
 1.8870	54.9148
 1.8860	55.0586
 1.8850	55.0763
 1.8840	55.0633
 1.8830	55.1785
 1.8820	55.1463
 1.8810	55.2110
 1.8800	55.2127
 1.8790	55.2172
 1.8780	55.2688
 1.8770	55.2434
 1.8760	55.2709
 1.8750	55.3440
 1.8740	55.3812
 1.8730	55.3253
 1.8720	55.4592
 1.8710	55.4494
 1.8700	55.5354
 1.8690	55.5577
 1.8680	55.6294
 1.8670	55.5654
 1.8660	55.6430
 1.8650	55.6090
 1.8640	55.6656
 1.8630	55.6633
 1.8620	55.5927
 1.8610	55.6164
 1.8600	55.6978
 1.8590	55.6187
 1.8580	55.6663
 1.8570	55.6681
 1.8560	55.7065
 1.8550	55.7249
 1.8540	55.6963
 1.8530	55.6715
 1.8520	55.7306
 1.8510	55.6966
 1.8500	55.7550
 1.8490	55.6512
 1.8480	55.7672
 1.8470	55.7161
 1.8460	55.7043
 1.8450	55.6997
 1.8440	55.7000
 1.8430	55.6860
 1.8420	55.7702
 1.8410	55.7698
 1.8400	55.8086
 1.8390	55.7887
 1.8380	55.7746
 1.8370	55.7417
 1.8360	55.7979
 1.8350	55.7824
 1.8340	55.8532
 1.8330	55.8465
 1.8320	55.8815
 1.8310	55.8135
 1.8300	55.8010
 1.8290	55.7575
 1.8280	55.7739
 1.8270	55.8105
 1.8260	55.8314
 1.8250	55.8292
 1.8240	55.8815
 1.8230	55.8791
 1.8220	55.8759
 1.8210	55.8183
 1.8200	55.8528
 1.8190	55.9052
 1.8180	55.9070
 1.8170	55.9042
 1.8160	55.9025
 1.8150	55.8887
 1.8140	55.9777
 1.8130	55.9817
 1.8120	55.9869
 1.8110	56.0373
 1.8100	56.0279
 1.8090	56.0129
 1.8080	56.0648
 1.8070	56.0668
 1.8060	56.0783
 1.8050	56.0400
 1.8040	56.1111
 1.8030	56.0881
 1.8020	56.0848
 1.8010	56.1542
 1.8000	56.1741
 1.7990	56.1705
 1.7980	56.2524
 1.7970	56.2313
 1.7960	56.1783
 1.7950	56.2303
 1.7940	56.3097
 1.7930	56.3108
 1.7920	56.3466
 1.7910	56.3708
 1.7900	56.3332
 1.7890	56.3372
 1.7880	56.3607
 1.7870	56.3652
 1.7860	56.3365
 1.7850	56.3780
 1.7840	56.4384
 1.7830	56.4189
 1.7820	56.4275
 1.7810	56.4690
 1.7800	56.5235
 1.7790	56.5634
 1.7780	56.5402
 1.7770	56.5740
 1.7760	56.6435
 1.7750	56.6708
 1.7740	56.6592
 1.7730	56.6664
 1.7720	56.6907
 1.7710	56.7220
 1.7700	56.7164
 1.7690	56.7423
 1.7680	56.8184
 1.7670	56.8434
 1.7660	56.8422
 1.7650	56.8724
 1.7640	56.8726
 1.7630	56.9488
 1.7620	56.9696
 1.7610	56.9425
 1.7600	56.9595
 1.7590	57.0514
 1.7580	57.0434
 1.7570	57.0592
 1.7560	57.1051
 1.7550	57.1097
 1.7540	57.1436
 1.7530	57.2325
 1.7520	57.2421
 1.7510	57.2416
 1.7500	57.2763
 1.7490	57.2853
 1.7480	57.2916
 1.7470	57.3340
 1.7460	57.3828
 1.7450	57.4024
 1.7440	57.4788
 1.7430	57.5373
 1.7420	57.5062
 1.7410	57.5418
 1.7400	57.6117
 1.7390	57.6032
 1.7380	57.6532
 1.7370	57.6324
 1.7360	57.7133
 1.7350	57.7958
 1.7340	57.7437
 1.7330	57.8408
 1.7320	57.8700
 1.7310	57.8727
 1.7300	57.8730
 1.7290	57.9370
 1.7280	57.9511
 1.7270	57.9731
 1.7260	58.0339
 1.7250	58.0343
 1.7240	58.0300
 1.7230	58.1007
 1.7220	58.1766
 1.7210	58.2118
 1.7200	58.2556
 1.7190	58.2863
 1.7180	58.2144
 1.7170	58.3107
 1.7160	58.3393
 1.7150	58.3716
 1.7140	58.4009
 1.7130	58.4757
 1.7120	58.4711
 1.7110	58.5397
 1.7100	58.5579
 1.7090	58.6355
 1.7080	58.6238
 1.7070	58.7329
 1.7060	58.7578
 1.7050	58.7785
 1.7040	58.8728
 1.7030	58.9012
 1.7020	58.9345
 1.7010	58.9458
 1.7000	59.0759
 1.6990	59.0876
 1.6980	59.1498
 1.6970	59.2408
 1.6960	59.3212
 1.6950	59.3974
 1.6940	59.3391
 1.6930	59.4837
 1.6920	59.4538
 1.6910	59.5530
 1.6900	59.6040
 1.6890	59.7126
 1.6880	59.7696
 1.6870	59.8237
 1.6860	59.8233
 1.6850	59.9072
 1.6840	59.9850
 1.6830	60.0427
 1.6820	60.1288
 1.6810	60.2911
 1.6800	60.2398
 1.6790	60.3669
 1.6780	60.4236
 1.6770	60.4583
 1.6760	60.5997
 1.6750	60.6398
 1.6740	60.6894
 1.6730	60.8571
 1.6720	60.8141
 1.6710	60.9019
 1.6700	60.9853
 1.6690	61.1462
 1.6680	61.0864
 1.6670	61.2284
 1.6660	61.3664
 1.6650	61.3972
 1.6640	61.3881
 1.6630	61.6051
 1.6620	61.6149
 1.6610	61.6918
 1.6600	61.6960
 1.6590	61.8249
 1.6580	61.8385
 1.6570	61.9935
 1.6560	62.0384
 1.6550	62.2334
 1.6540	62.2261
 1.6530	62.3549
 1.6520	62.4302
 1.6510	62.5056
 1.6500	62.5792
 1.6490	62.6388
 1.6480	62.7702
 1.6470	62.7961
 1.6460	62.8210
 1.6450	62.9891
 1.6440	63.0722
 1.6430	63.1424
 1.6420	63.1752
 1.6410	63.3160
 1.6400	63.4166
 1.6390	63.4360
 1.6380	63.4956
 1.6370	63.5969
 1.6360	63.6542
 1.6350	63.7778
 1.6340	63.8506
 1.6330	63.9620
 1.6320	64.0124
 1.6310	64.1075
 1.6300	64.2029
 1.6290	64.2909
 1.6280	64.3589
 1.6270	64.4368
 1.6260	64.5315
 1.6250	64.6469
 1.6240	64.6922
 1.6230	64.8390
 1.6220	64.9067
 1.6210	65.0197
 1.6200	64.9865
 1.6190	65.1938
 1.6180	65.2027
 1.6170	65.3461
 1.6160	65.3240
 1.6150	65.4673
 1.6140	65.5441
 1.6130	65.5870
 1.6120	65.6173
 1.6110	65.7311
 1.6100	65.8492
 1.6090	65.9540
 1.6080	65.9565
 1.6070	66.0991
 1.6060	66.1296
 1.6050	66.1930
 1.6040	66.3453
 1.6030	66.4493
 1.6020	66.4159
 1.6010	66.6138
 1.6000	66.5321
 1.5990	66.7463
 1.5980	66.8281
 1.5970	66.9325
 1.5960	66.9270
 1.5950	67.1024
 1.5940	67.1326
 1.5930	67.1435
 1.5920	67.1545
 1.5910	67.2858
 1.5900	67.3622
 1.5890	67.5770
 1.5880	67.5713
 1.5870	67.6343
 1.5860	67.6175
 1.5850	67.7740
 1.5840	67.8075
 1.5830	67.9239
 1.5820	68.0508
 1.5810	68.1519
 1.5800	68.1934
 1.5790	68.1410
 1.5780	68.2192
 1.5770	68.3903
 1.5760	68.4240
 1.5750	68.4902
 1.5740	68.5546
 1.5730	68.6782
 1.5720	68.7119
 1.5710	68.7958
 1.5700	68.8023
 1.5690	68.8953
 1.5680	68.9610
 1.5670	69.0821
 1.5660	69.1260
 1.5650	69.1672
 1.5640	69.1690
 1.5630	69.2461
 1.5620	69.3195
 1.5610	69.3348
 1.5600	69.3901
 1.5590	69.4375
 1.5580	69.4980
 1.5570	69.5516
 1.5560	69.5519
 1.5550	69.6368
 1.5540	69.6485
 1.5530	69.6539
 1.5520	69.6110
 1.5510	69.6464
 1.5500	69.6144
 1.5490	69.5977
 1.5480	69.6311
 1.5470	69.6354
 1.5460	69.5581
 1.5450	69.5131
 1.5440	69.5111
 1.5430	69.4455
 1.5420	69.4305
 1.5410	69.3562
 1.5400	69.3213
 1.5390	69.2268
 1.5380	69.1495
 1.5370	69.1529
 1.5360	69.1109
 1.5350	69.0887
 1.5340	69.0879
 1.5330	69.0165
 1.5320	68.9990
 1.5310	69.0723
 1.5300	69.0630
 1.5290	69.1388
 1.5280	69.1817
 1.5270	69.2060
 1.5260	69.2559
 1.5250	69.3666
 1.5240	69.4053
 1.5230	69.5166
 1.5220	69.6073
 1.5210	69.6678
 1.5200	69.7530
 1.5190	69.7882
 1.5180	69.7801
 1.5170	69.8745
 1.5160	69.9611
 1.5150	70.0573
 1.5140	70.0929
 1.5130	70.0768
 1.5120	70.0943
 1.5110	70.1557
 1.5100	70.1703
 1.5090	70.1650
 1.5080	70.2308
 1.5070	70.2690
 1.5060	70.2829
 1.5050	70.3367
 1.5040	70.3242
 1.5030	70.2948
 1.5020	70.3149
 1.5010	70.3626
 1.5000	70.3850
 1.4990	70.3398
 1.4980	70.3139
 1.4970	70.3369
 1.4960	70.2887
 1.4950	70.2409
 1.4940	70.2197
 1.4930	70.2586
 1.4920	70.2338
 1.4910	70.1204
 1.4900	70.0700
 1.4890	70.0695
 1.4880	70.0245
 1.4870	69.9252
 1.4860	69.8876
 1.4850	69.8456
 1.4840	69.7478
 1.4830	69.6487
 1.4820	69.5788
 1.4810	69.5085
 1.4800	69.4640
 1.4790	69.3691
 1.4780	69.2434
 1.4770	69.1553
 1.4760	69.0236
 1.4750	68.9247
 1.4740	68.7544
 1.4730	68.6138
 1.4720	68.4215
 1.4710	68.1798
 1.4700	67.9730
 1.4690	67.6834
 1.4680	67.3799
 1.4670	67.0609
 1.4660	66.8382
 1.4650	66.5233
 1.4640	66.2564
 1.4630	65.9833
 1.4620	65.7448
 1.4610	65.5505
 1.4600	65.4269
 1.4590	65.3335
 1.4580	65.3455
 1.4570	65.3157
 1.4560	65.3725
 1.4550	65.4111
 1.4540	65.5372
 1.4530	65.6732
 1.4520	65.8903
 1.4510	66.1379
 1.4500	66.3986
 1.4490	66.6872
 1.4480	67.0243
 1.4470	67.2727
 1.4460	67.6439
 1.4450	67.9846
 1.4440	68.2993
 1.4430	68.5822
 1.4420	68.9770
 1.4410	69.2390
 1.4400	69.5347
 1.4390	69.8770
 1.4380	70.1775
 1.4370	70.4579
 1.4360	70.7710
 1.4350	71.0001
 1.4340	71.2989
 1.4330	71.5996
 1.4320	71.7937
 1.4310	71.9207
 1.4300	72.1375
 1.4290	72.3103
 1.4280	72.4127
 1.4270	72.6628
 1.4260	72.8076
 1.4250	72.8804
 1.4240	73.0627
 1.4230	73.1812
 1.4220	73.3825
 1.4210	73.5001
 1.4200	73.6451
 1.4190	73.6853
 1.4180	73.8935
 1.4170	73.9904
 1.4160	74.1082
 1.4150	74.1505
 1.4140	74.3176
 1.4130	74.3908
 1.4120	74.4956
 1.4110	74.4814
 1.4100	74.6375
 1.4090	74.7414
 1.4080	74.8121
 1.4070	74.8753
 1.4060	74.9376
 1.4050	75.0258
 1.4040	75.0882
 1.4030	75.2032
 1.4020	75.2503
 1.4010	75.2581
 1.4000	75.3864
 1.3990	75.3971
 1.3980	75.4916
 1.3970	75.5058
 1.3960	75.6001
 1.3950	75.6376
 1.3940	75.5975
 1.3930	75.6856
 1.3920	75.8148
 1.3910	75.7747
 1.3900	75.8203
 1.3890	75.7563
 1.3880	75.8679
 1.3870	75.8264
 1.3860	75.8284
 1.3850	75.8814
 1.3840	75.9565
 1.3830	75.8956
 1.3820	75.8638
 1.3810	75.9416
 1.3800	75.9373
 1.3790	75.9124
 1.3780	75.9603
 1.3770	75.9984
 1.3760	75.9325
 1.3750	75.8855
 1.3740	76.0498
 1.3730	75.8678
 1.3720	75.9364
 1.3710	76.0009
 1.3700	75.9272
 1.3690	75.9301
 1.3680	75.9871
 1.3670	76.0467
 1.3660	76.0734
 1.3650	75.9846
 1.3640	76.1670
 1.3630	76.1347
 1.3620	76.1591
 1.3610	76.1085
 1.3600	76.2073
 1.3590	76.1888
 1.3580	76.3313
 1.3570	76.2315
 1.3560	76.2795
 1.3550	76.3079
 1.3540	76.3400
 1.3530	76.3934
 1.3520	76.3354
 1.3510	76.3823
 1.3500	76.3237
 1.3490	76.3828
 1.3480	76.2387
 1.3470	76.3705
 1.3460	76.3721
 1.3450	76.3990
 1.3440	76.3546
 1.3430	76.4338
 1.3420	76.4899
 1.3410	76.3819
 1.3400	76.3520
 1.3390	76.4142
 1.3380	76.4354
 1.3370	76.3774
 1.3360	76.4399
 1.3350	76.4563
 1.3340	76.3487
 1.3330	76.3520
 1.3320	76.4319
 1.3310	76.3870
 1.3300	76.3906
 1.3290	76.3958
 1.3280	76.4224
 1.3270	76.3204
 1.3260	76.3844
 1.3250	76.3428
 1.3240	76.3643
 1.3230	76.3591
 1.3220	76.4135
 1.3210	76.4021
 1.3200	76.2943
 1.3190	76.3725
 1.3180	76.4039
 1.3170	76.3741
 1.3160	76.3199
 1.3150	76.3286
 1.3140	76.3224
 1.3130	76.3624
 1.3120	76.3226
 1.3110	76.2660
 1.3100	76.3332
 1.3090	76.3315
 1.3080	76.3291
 1.3070	76.3030
 1.3060	76.3973
 1.3050	76.3413
 1.3040	76.3443
 1.3030	76.3279
 1.3020	76.3663
 1.3010	76.3527
 1.3000	76.3640
 1.2990	76.2381
 1.2980	76.2768
 1.2970	76.3596
 1.2960	76.3597
 1.2950	76.3882
 1.2940	76.3264
 1.2930	76.2670
 1.2920	76.3187
 1.2910	76.3707
 1.2900	76.3592
 1.2890	76.3344
 1.2880	76.3001
 1.2870	76.3017
 1.2860	76.3657
 1.2850	76.3179
 1.2840	76.2874
 1.2830	76.4162
 1.2820	76.3839
 1.2810	76.4062
 1.2800	76.3099
 1.2790	76.2768
 1.2780	76.3040
 1.2770	76.3119
 1.2760	76.2636
 1.2750	76.2708
 1.2740	76.3040
 1.2730	76.2957
 1.2720	76.2895
 1.2710	76.2723
 1.2700	76.2666
 1.2690	76.2368
 1.2680	76.2071
 1.2670	76.2113
 1.2660	76.2065
 1.2650	76.1774
 1.2640	76.2063
 1.2630	76.1581
 1.2620	76.1811
 1.2610	76.1290
 1.2600	76.1756
 1.2590	76.1235
 1.2580	76.0868
 1.2570	76.1218
 1.2560	76.1164
 1.2550	76.0843
 1.2540	76.0562
 1.2530	76.0966
 1.2520	76.0928
 1.2510	76.0328
 1.2500	76.0074
 1.2490	76.0202
 1.2480	76.0596
 1.2470	76.0237
 1.2460	76.0220
 1.2450	75.9752
 1.2440	75.9661
 1.2430	75.9098
 1.2420	75.9103
 1.2410	75.9347
 1.2400	75.9143
 1.2390	75.8705
 1.2380	75.8230
 1.2370	75.8589
 1.2360	75.8355
 1.2350	75.7807
 1.2340	75.8214
 1.2330	75.8173
 1.2320	75.8006
 1.2310	75.7864
 1.2300	75.7330
 1.2290	75.6959
 1.2280	75.7007
 1.2270	75.7120
 1.2260	75.7474
 1.2250	75.7079
 1.2240	75.6976
 1.2230	75.6857
 1.2220	75.6358
 1.2210	75.6468
 1.2200	75.6073
 1.2190	75.5910
 1.2180	75.5968
 1.2170	75.5453
 1.2160	75.5023
 1.2150	75.4679
 1.2140	75.4508
 1.2130	75.4385
 1.2120	75.4533
 1.2110	75.4405
 1.2100	75.4306
 1.2090	75.3485
 1.2080	75.3044
 1.2070	75.3194
 1.2060	75.2500
 1.2050	75.2272
 1.2040	75.2342
 1.2030	75.2673
 1.2020	75.2299
 1.2010	75.1516
 1.2000	75.0768
 1.1990	75.0550
 1.1980	75.0784
 1.1970	75.0794
 1.1960	75.0619
 1.1950	75.0294
 1.1940	74.9826
 1.1930	75.0144
 1.1920	74.9879
 1.1910	74.9523
 1.1900	74.9352
 1.1890	74.9655
 1.1880	74.9528
 1.1870	74.9533
 1.1860	74.9761
 1.1850	74.9362
 1.1840	74.9028
 1.1830	74.9422
 1.1820	74.9426
 1.1810	74.9382
 1.1800	74.9477
 1.1790	74.9519
 1.1780	74.8855
 1.1770	74.9327
 1.1760	74.9697
 1.1750	74.9284
 1.1740	74.9916
 1.1730	74.9884
 1.1720	74.9678
 1.1710	74.9992
 1.1700	74.9545
 1.1690	74.9687
 1.1680	74.9086
 1.1670	74.8804
 1.1660	74.8996
 1.1650	74.9118
 1.1640	74.8927
 1.1630	74.8548
 1.1620	74.8507
 1.1610	74.8817
 1.1600	74.8459
 1.1590	74.8452
 1.1580	74.8504
 1.1570	74.7606
 1.1560	74.7929
 1.1550	74.7996
 1.1540	74.7804
 1.1530	74.7668
 1.1520	74.7408
 1.1510	74.7353
 1.1500	74.7501
 1.1490	74.7880
 1.1480	74.7151
 1.1470	74.6774
 1.1460	74.7098
 1.1450	74.7261
 1.1440	74.7069
 1.1430	74.7145
 1.1420	74.6151
 1.1410	74.6628
 1.1400	74.6141
 1.1390	74.6017
 1.1380	74.6206
 1.1370	74.6015
 1.1360	74.6159
 1.1350	74.5522
 1.1340	74.5384
 1.1330	74.5516
 1.1320	74.5064
 1.1310	74.5429
 1.1300	74.4482
 1.1290	74.5030
 1.1280	74.4785
 1.1270	74.4800
 1.1260	74.4601
 1.1250	74.4216
 1.1240	74.4355
 1.1230	74.4311
 1.1220	74.4230
 1.1210	74.4116
 1.1200	74.3848
 1.1190	74.3602
 1.1180	74.3032
 1.1170	74.2362
 1.1160	74.3046
 1.1150	74.3397
 1.1140	74.2963
 1.1130	74.3042
 1.1120	74.2793
 1.1110	74.2706
 1.1100	74.2664
 1.1090	74.2888
 1.1080	74.3037
 1.1070	74.1589
 1.1060	74.2581
 1.1050	74.2335
 1.1040	74.2012
 1.1030	74.2369
 1.1020	74.1641
 1.1010	74.1184
 1.1000	74.1395
 1.0990	74.1249
 1.0980	74.1075
 1.0970	74.1550
 1.0960	74.1558
 1.0950	74.0955
 1.0940	74.0265
 1.0930	74.0518
 1.0920	74.0645
 1.0910	74.0622
 1.0900	74.1725
 1.0890	74.0446
 1.0880	73.9915
 1.0870	74.0453
 1.0860	74.0236
 1.0850	73.9804
 1.0840	73.9361
 1.0830	73.9853
 1.0820	74.0254
 1.0810	73.9037
 1.0800	73.8817
 1.0790	74.0399
 1.0780	73.9574
 1.0770	74.0189
 1.0760	73.8808
 1.0750	73.8238
 1.0740	73.8495
 1.0730	73.8695
 1.0720	73.9126
 1.0710	73.8954
 1.0700	73.7949
 1.0690	73.8130
 1.0680	73.8310
 1.0670	73.7253
 1.0660	73.7601
 1.0650	73.7338
 1.0640	73.7418
 1.0630	73.7433
 1.0620	73.6720
 1.0610	73.6757
 1.0600	73.7619
 1.0590	73.6877
 1.0580	73.6729
 1.0570	73.7411
 1.0560	73.6768
 1.0550	73.7069
 1.0540	73.6985
 1.0530	73.6294
 1.0520	73.5818
 1.0510	73.5926
 1.0500	73.5538
 1.0490	73.5592
 1.0480	73.6538
 1.0470	73.5466
 1.0460	73.6490
 1.0450	73.6271
 1.0440	73.5304
 1.0430	73.4395
 1.0420	73.4956
 1.0410	73.4898
 1.0400	73.4581
 1.0390	73.4799
 1.0380	73.4355
 1.0370	73.4467
 1.0360	73.3859
 1.0350	73.4095
 1.0340	73.4018
 1.0330	73.3433
 1.0320	73.3354
 1.0310	73.3263
 1.0300	73.2911
 1.0290	73.2641
 1.0280	73.2977
 1.0270	73.2937
 1.0260	73.2216
 1.0250	73.1792
 1.0240	73.2499
 1.0230	73.2437
 1.0220	73.1709
 1.0210	73.1276
 1.0200	73.1226
 1.0190	73.0692
 1.0180	73.1505
 1.0170	73.0535
 1.0160	72.9407
 1.0150	72.9116
 1.0140	72.9983
 1.0130	73.0071
 1.0120	72.9642
 1.0110	72.9175
 1.0100	72.8606
 1.0090	72.8830
 1.0080	72.8520
 1.0070	72.8502
 1.0060	72.8784
 1.0050	72.8049
 1.0040	72.7617
 1.0030	72.6170
 1.0020	72.6487
 1.0010	72.6867
 1.0000	72.6497
 0.9990	72.6136
 0.9980	72.5624
 0.9970	72.5236
 0.9960	72.4725
 0.9950	72.5329
 0.9940	72.5395
 0.9930	72.4896
 0.9920	72.4279
 0.9910	72.4566
 0.9900	72.4538
 0.9890	72.4567
 0.9880	72.4234
 0.9870	72.3467
 0.9860	72.4078
 0.9850	72.4030
 0.9840	72.3647
 0.9830	72.3792
 0.9820	72.3961
 0.9810	72.3701
 0.9800	72.3133
 0.9790	72.3174
 0.9780	72.3435
 0.9770	72.3670
 0.9760	72.2616
 0.9750	72.2347
 0.9740	72.2430
 0.9730	72.2525
 0.9720	72.2337
 0.9710	72.2783
 0.9700	72.2529
 0.9690	72.1684
 0.9680	72.1684
 0.9670	72.1365
 0.9660	72.0776
 0.9650	72.0949
 0.9640	72.1000
 0.9630	72.0939
 0.9620	72.0542
 0.9610	72.0704
 0.9600	72.0680
 0.9590	72.0042
 0.9580	71.9393
 0.9570	71.9601
 0.9560	71.9507
 0.9550	71.8764
 0.9540	71.8474
 0.9530	71.8766
 0.9520	71.8548
 0.9510	71.8439
 0.9500	71.8149
 0.9490	71.7090
 0.9480	71.6862
 0.9470	71.7170
 0.9460	71.7083
 0.9450	71.6899
 0.9440	71.6088
 0.9430	71.5497
 0.9420	71.5686
 0.9410	71.5399
 0.9400	71.5199
 0.9390	71.4940
 0.9380	71.4414
 0.9370	71.4326
 0.9360	71.4044
 0.9350	71.3998
 0.9340	71.3464
 0.9330	71.2891
 0.9320	71.2754
 0.9310	71.2611
 0.9300	71.2676
 0.9290	71.1702
 0.9280	71.1707
 0.9270	71.2255
 0.9260	71.1719
 0.9250	71.1402
 0.9240	71.0941
 0.9230	71.0157
 0.9220	71.0181
 0.9210	70.9919
 0.9200	71.0065
 0.9190	70.9989
 0.9180	70.9354
 0.9170	70.8908
 0.9160	70.8506
 0.9150	70.8564
 0.9140	70.8430
 0.9130	70.7903
 0.9120	70.7814
 0.9110	70.6700
 0.9100	70.6514
 0.9090	70.6268
 0.9080	70.6120
 0.9070	70.6054
 0.9060	70.5670
 0.9050	70.4964
 0.9040	70.4858
 0.9030	70.4769
 0.9020	70.4449
 0.9010	70.4142
 0.9000	70.4047
 0.8990	70.3517
 0.8980	70.3056
 0.8970	70.3329
 0.8960	70.3117
 0.8950	70.2134
 0.8940	70.1852
 0.8930	70.1124
 0.8920	70.0971
 0.8910	70.0608
 0.8900	70.0600
 0.8890	70.0348
 0.8880	70.0144
 0.8870	70.0093
 0.8860	69.9374
 0.8850	69.8987
 0.8840	69.8813
 0.8830	69.8924
 0.8820	69.8643
 0.8810	69.7706
 0.8800	69.8158
 0.8790	69.7648
 0.8780	69.7857
 0.8770	69.7508
 0.8760	69.7695
 0.8750	69.6575
 0.8740	69.6714
 0.8730	69.5950
 0.8720	69.6539
 0.8710	69.5874
 0.8700	69.5499
 0.8690	69.4795
 0.8680	69.4796
 0.8670	69.4760
 0.8660	69.4369
 0.8650	69.3333
 0.8640	69.3562
 0.8630	69.3239
 0.8620	69.3514
 0.8610	69.2751
 0.8600	69.1790
 0.8590	69.2281
 0.8580	69.3654
 0.8570	69.0986
 0.8560	69.1777
 0.8550	69.3054
 0.8540	69.0949
 0.8530	69.1730
 0.8520	69.2637
 0.8510	69.0232
 0.8500	69.1105
 0.8490	69.2255
 0.8480	69.0352
 0.8470	69.0920
 0.8460	69.1885
 0.8450	69.0040
 0.8440	69.0341
 0.8430	69.0734
 0.8420	68.9462
 0.8410	68.9701
 0.8400	69.0197
 0.8390	68.9363
 0.8380	68.9424
 0.8370	69.0036
 0.8360	68.9122
 0.8350	68.8645
 0.8340	68.9367
 0.8330	68.9057
 0.8320	68.8716
 0.8310	68.8566
 0.8300	68.8892
 0.8290	68.8140
 0.8280	68.8480
 0.8270	68.8391
 0.8260	68.7892
 0.8250	68.8354
 0.8240	68.8242
 0.8230	68.7011
 0.8220	68.7693
 0.8210	68.8023
 0.8200	68.7121
 0.8190	68.8342
 0.8180	68.8028
 0.8170	68.7080
 0.8160	68.7655
 0.8150	68.7345
 0.8140	68.6814
 0.8130	68.7447
 0.8120	68.7487
 0.8110	68.6262
 0.8100	68.7448
 0.8090	68.7816
 0.8080	68.7168
 0.8070	68.7267
 0.8060	68.7450
 0.8050	68.6594
 0.8040	68.7729
 0.8030	68.7887
 0.8020	68.6970
 0.8010	68.8070
 0.8000	68.7863
 0.7990	68.7295
 0.7980	68.7749
 0.7970	68.7321
 0.7960	68.6937
 0.7950	68.6960
 0.7940	68.7364
 0.7930	68.7142
 0.7920	68.7128
 0.7910	68.7411
 0.7900	68.7242
 0.7890	68.7252
 0.7880	68.7416
 0.7870	68.7829
 0.7860	68.7553
 0.7850	68.8297
 0.7840	68.7992
 0.7830	68.8020
 0.7820	68.8617
 0.7810	68.8534
 0.7800	68.8072
 0.7790	68.8807
 0.7780	68.8950
 0.7770	68.8467
 0.7760	68.9000
 0.7750	68.8816
 0.7740	68.8751
 0.7730	68.9444
 0.7720	68.9075
 0.7710	68.8985
 0.7700	68.9562
 0.7690	68.9619
 0.7680	68.9009
 0.7670	69.0142
 0.7660	68.9747
 0.7650	69.0071
 0.7640	69.0501
 0.7630	69.0192
 0.7620	69.0564
 0.7610	69.0999
 0.7600	69.0864
 0.7590	69.1155
 0.7580	69.1471
 0.7570	69.0991
 0.7560	69.1358
 0.7550	69.1645
 0.7540	69.1894
 0.7530	69.1950
 0.7520	69.1967
 0.7510	69.2007
 0.7500	69.2514
 0.7490	69.2465
 0.7480	69.2478
 0.7470	69.2692
 0.7460	69.3048
 0.7450	69.2725
 0.7440	69.3105
 0.7430	69.3284
 0.7420	69.3197
 0.7410	69.3302
 0.7400	69.3692
 0.7390	69.3518
 0.7380	69.3814
 0.7370	69.3900
 0.7360	69.3835
 0.7350	69.3812
 0.7340	69.3965
 0.7330	69.3887
 0.7320	69.4082
 0.7310	69.4172
 0.7300	69.4058
 0.7290	69.4224
 0.7280	69.4049
 0.7270	69.3893
 0.7260	69.3902
 0.7250	69.3725
 0.7240	69.4080
 0.7230	69.3903
 0.7220	69.3587
 0.7210	69.3781
 0.7200	69.3630
 0.7190	69.3545
 0.7180	69.3278
 0.7170	69.3300
 0.7160	69.3114
 0.7150	69.3048
 0.7140	69.2807
 0.7130	69.2549
 0.7120	69.2451
 0.7110	69.2470
 0.7100	69.1988
 0.7090	69.1877
 0.7080	69.1743
 0.7070	69.1465
 0.7060	69.1114
 0.7050	69.0791
 0.7040	69.0435
 0.7030	69.0014
 0.7020	68.9809
 0.7010	68.9530
 0.7000	68.9237
 0.6990	68.8880
 0.6980	68.8455
 0.6970	68.7858
 0.6960	68.7604
 0.6950	68.7083
 0.6940	68.6482
 0.6930	68.6205
 0.6920	68.5683
 0.6910	68.5016
 0.6900	68.4755
 0.6890	68.4055
 0.6880	68.3543
 0.6870	68.2825
 0.6860	68.2376
 0.6850	68.1812
 0.6840	68.1344
 0.6830	68.0578
 0.6820	67.9893
 0.6810	67.9130
 0.6800	67.8377
 0.6790	67.7753
 0.6780	67.6984
 0.6770	67.6361
 0.6760	67.5543
 0.6750	67.4597
 0.6740	67.3848
 0.6730	67.2922
 0.6720	67.2017
 0.6710	67.1253
 0.6700	67.0289
 0.6690	66.9314
 0.6680	66.8502
 0.6670	66.7454
 0.6660	66.6566
 0.6650	66.5743
 0.6640	66.4571
 0.6630	66.3548
 0.6620	66.2615
 0.6610	66.1458
 0.6600	66.0334
 0.6590	65.9140
 0.6580	65.8001
 0.6570	65.7041
 0.6560	65.5859
 0.6550	65.4653
 0.6540	65.3600
 0.6530	65.2369
 0.6520	65.1201
 0.6510	65.0089
 0.6500	64.8833
 0.6490	64.7583
 0.6480	64.6348
 0.6470	64.5095
 0.6460	64.3819
 0.6450	64.2587
 0.6440	64.1359
 0.6430	63.9956
 0.6420	63.8617
 0.6410	63.7344
 0.6400	63.6140
 0.6390	63.4830
 0.6380	63.3391
 0.6370	63.2030
 0.6360	63.0688
 0.6350	62.9294
 0.6340	62.8013
 0.6330	62.6605
 0.6320	62.5148
 0.6310	62.3902
 0.6300	62.2470
 0.6290	62.0977
 0.6280	61.9729
 0.6270	61.8454
 0.6260	61.7070
 0.6250	61.5609
 0.6240	61.4177
 0.6230	61.2854
 0.6220	61.1540
 0.6210	61.0147
 0.6200	60.8864
 0.6190	60.7586
 0.6180	60.6202
 0.6170	60.4910
 0.6160	60.3633
 0.6150	60.2197
 0.6140	60.0941
 0.6130	59.9697
 0.6120	59.8305
 0.6110	59.7074
 0.6100	59.5940
 0.6090	59.4736
 0.6080	59.3551
 0.6070	59.2329
 0.6060	59.1108
 0.6050	58.9878
 0.6040	58.8743
 0.6030	58.7608
 0.6020	58.6434
 0.6010	58.5274
 0.6000	58.4041
 0.5990	58.3066
 0.5980	58.2171
 0.5970	58.1253
 0.5960	58.0300
 0.5950	57.9482
 0.5940	57.8428
 0.5930	57.7463
 0.5920	57.6435
 0.5910	57.5425
 0.5900	57.4586
 0.5890	57.3697
 0.5880	57.2716
 0.5870	57.1847
 0.5860	57.1022
 0.5850	57.0220
 0.5840	56.9362
 0.5830	56.8542
 0.5820	56.7801
 0.5810	56.7011
 0.5800	56.6163
 0.5790	56.5539
 0.5780	56.4823
 0.5770	56.4023
 0.5760	56.3402
 0.5750	56.2706
 0.5740	56.2032
 0.5730	56.1439
 0.5720	56.0752
 0.5710	56.0034
 0.5700	55.9460
 0.5690	55.8872
 0.5680	55.8356
 0.5670	55.7926
 0.5660	55.7316
 0.5650	55.6728
 0.5640	55.6245
 0.5630	55.5731
 0.5620	55.5201
 0.5610	55.5262
 0.5600	55.4905
 0.5590	55.4525
 0.5580	55.4184
 0.5570	55.3711
 0.5560	55.3505
 0.5550	55.3141
 0.5540	55.2681
 0.5530	55.2441
 0.5520	55.2174
 0.5510	55.1811
 0.5500	55.1561
 0.5490	55.1255
 0.5480	55.0950
 0.5470	55.0739
 0.5460	55.0389
 0.5450	55.0113
 0.5440	54.9862
 0.5430	54.9489
 0.5420	54.9185
 0.5410	54.8974
 0.5400	54.8661
 0.5390	54.8310
 0.5380	54.8243
 0.5370	54.7703
 0.5360	54.7334
 0.5350	54.6968
 0.5340	54.6601
 0.5330	54.6161
 0.5320	54.5760
 0.5310	54.5165
 0.5300	54.4621
 0.5290	54.4163
 0.5280	54.3668
 0.5270	54.3062
 0.5260	54.2412
 0.5250	54.1690
 0.5240	54.0961
 0.5230	54.0331
 0.5220	53.9394
 0.5210	53.8551
 0.5200	53.7614
 0.5190	53.6577
 0.5180	53.5482
 0.5170	53.4503
 0.5160	53.3310
 0.5150	53.2062
 0.5140	53.0834
 0.5130	52.9306
 0.5120	52.7847
 0.5110	52.6324
 0.5100	52.4251
 0.5090	52.2751
 0.5080	52.0748
 0.5070	51.8783
 0.5060	51.6617
 0.5050	51.4422
 0.5040	51.1976
 0.5030	50.9546
 0.5020	50.6915
 0.5010	50.4054
 0.5000	50.1203
 0.4990	49.8274
 0.4980	49.4844
 0.4970	49.1534
 0.4960	48.8269
 0.4950	48.4383
 0.4940	48.0886
 0.4930	47.7106
 0.4920	47.3073
 0.4910	46.9098
 0.4900	46.4921
 0.4890	46.0916
 0.4880	45.6769
 0.4870	45.2406
 0.4860	44.8285
 0.4850	44.4228
 0.4840	44.0232
 0.4830	43.6075
 0.4820	43.2318
 0.4810	42.8320
 0.4800	42.4427
 0.4790	42.0859
 0.4780	41.7307
 0.4770	41.3855
 0.4760	41.0745
 0.4750	40.7854
 0.4740	40.5013
 0.4730	40.2321
 0.4720	39.9947
 0.4710	39.7483
 0.4700	39.5246
 0.4690	39.3157
 0.4680	39.1128
 0.4670	38.9256
 0.4660	38.7545
 0.4650	38.5712
 0.4640	38.4028
 0.4630	38.2491
 0.4620	38.1084
 0.4610	37.9558
 0.4600	37.8272
 0.4590	37.6799
 0.4580	37.5714
 0.4570	37.4292
 0.4560	37.2986
 0.4550	37.1346
 0.4540	36.9848
 0.4530	36.7803
 0.4520	36.5677
 0.4510	36.3656
 0.4500	36.0761
 0.4490	35.7528
 0.4480	35.4113
 0.4470	34.9991
 0.4460	34.5736
 0.4450	34.0930
 0.4440	33.5562
 0.4430	32.9648
 0.4420	32.2702
 0.4410	31.4152
 0.4400	30.4064
 0.4390	29.2596
 0.4380	28.0988
 0.4370	27.0980
 0.4360	26.4257
 0.4350	26.0787
 0.4340	26.0302
 0.4330	26.1013
 0.4320	26.1468
 0.4310	26.0792
 0.4300	25.9504
 0.4290	25.8180
 0.4280	25.7182
 0.4270	25.6874
 0.4260	25.6875
 0.4250	25.7215
 0.4240	25.7654
 0.4230	25.7914
 0.4220	25.7907
 0.4210	25.7792
 0.4200	25.7495
 0.4190	25.7109
 0.4180	25.6648
 0.4170	25.6005
 0.4160	25.5154
 0.4150	25.4241
 0.4140	25.3132
 0.4130	25.1944
 0.4120	25.0780
 0.4110	24.9483
 0.4100	24.8036
 0.4090	24.6634
 0.4080	24.5140
 0.4070	24.3347
 0.4060	24.1622
 0.4050	23.9657
 0.4040	23.7483
 0.4030	23.5340
 0.4020	23.2890
 0.4010	23.0311
 0.4000	22.7655
