Name: Amblygonite (Li,Na)Al(PO_4)(F,OH)
Type: Mineral
Class: Phosphate
Subclass: None
Particle Size: Medium
Sample No.: P-3A
Owner: JPL
Wavelength Range: VSWIR
Origin: USA, California, San Diego County, Pala
Collection Date: N/A
Description: Particle size was 45-125um.Collected by Burminco Original ASTER Spectral Library name was jpl.beckman.mineral.phosphate.none.medium.p03a.spectrum.txt
Measurement: Hemispherical reflectance
First Column: X
Second Column: Y
X Units: Wavelength (micrometers)
Y Units:Reflectance (percent)
First X Value:  0.4000
Last X Value:  2.5000
Number of X Values: 826
Additional Information: mineral.phosphate.none.medium.vswir.p-3a.jpl.beckman.ancillary.txt

 0.4000	78.1200
 0.4010	78.1500
 0.4020	78.2700
 0.4030	78.2700
 0.4040	78.4200
 0.4050	78.4800
 0.4060	78.5300
 0.4070	78.7600
 0.4080	78.8400
 0.4090	78.7700
 0.4100	78.9400
 0.4110	79.0200
 0.4120	79.0400
 0.4130	79.1900
 0.4140	79.1200
 0.4150	79.3500
 0.4160	79.3100
 0.4170	79.3200
 0.4180	79.4900
 0.4190	79.5500
 0.4200	79.6800
 0.4210	79.6600
 0.4220	79.6700
 0.4230	79.8900
 0.4240	79.8600
 0.4250	80.0700
 0.4260	80.1000
 0.4270	80.1000
 0.4280	80.1700
 0.4290	80.1100
 0.4300	80.3000
 0.4310	80.4600
 0.4320	80.4000
 0.4330	80.5100
 0.4340	80.5200
 0.4350	80.6000
 0.4360	80.8400
 0.4370	80.8100
 0.4380	80.8100
 0.4390	80.8600
 0.4400	80.9300
 0.4410	81.0700
 0.4420	80.9600
 0.4430	81.1500
 0.4440	81.1300
 0.4450	81.1400
 0.4460	81.3100
 0.4470	81.2000
 0.4480	81.4200
 0.4490	81.4500
 0.4500	81.3100
 0.4510	81.4700
 0.4520	81.4300
 0.4530	81.6500
 0.4540	81.6100
 0.4550	81.7400
 0.4560	81.6800
 0.4570	81.7700
 0.4580	81.9200
 0.4590	81.9900
 0.4600	81.8900
 0.4610	81.9900
 0.4620	81.9400
 0.4630	82.1600
 0.4640	82.0400
 0.4650	82.1300
 0.4660	82.3200
 0.4670	82.2100
 0.4680	82.3300
 0.4690	82.3600
 0.4700	82.2300
 0.4710	82.4500
 0.4720	82.4400
 0.4730	82.6300
 0.4740	82.7000
 0.4750	82.6400
 0.4760	82.6400
 0.4770	82.6700
 0.4780	82.7700
 0.4790	82.7900
 0.4800	82.7200
 0.4810	82.8300
 0.4820	82.7900
 0.4830	82.9100
 0.4840	83.0500
 0.4850	82.8400
 0.4860	82.9800
 0.4870	82.9300
 0.4880	83.0100
 0.4890	83.0900
 0.4900	83.0300
 0.4910	83.1400
 0.4920	83.0400
 0.4930	83.0700
 0.4940	83.1500
 0.4950	83.0500
 0.4960	83.1800
 0.4970	83.1900
 0.4980	83.1600
 0.4990	83.3300
 0.5000	83.2800
 0.5010	83.4600
 0.5020	83.5300
 0.5030	83.4800
 0.5040	83.5000
 0.5050	83.4100
 0.5060	83.4400
 0.5070	83.6100
 0.5080	83.5500
 0.5090	83.6000
 0.5100	83.5900
 0.5110	83.6400
 0.5120	83.7400
 0.5130	83.7300
 0.5140	83.7400
 0.5150	83.7400
 0.5160	83.6700
 0.5170	83.8900
 0.5180	83.7800
 0.5190	83.9100
 0.5200	83.7900
 0.5210	83.7800
 0.5220	83.7600
 0.5230	83.7600
 0.5240	83.9500
 0.5250	83.9300
 0.5260	83.8200
 0.5270	84.0000
 0.5280	83.9600
 0.5290	84.1200
 0.5300	84.0800
 0.5310	83.9900
 0.5320	84.0200
 0.5330	84.0300
 0.5340	84.0200
 0.5350	84.2600
 0.5360	84.1400
 0.5370	84.1400
 0.5380	84.2000
 0.5390	84.1900
 0.5400	84.2300
 0.5410	84.0900
 0.5420	84.1500
 0.5430	84.1100
 0.5440	84.0100
 0.5450	84.2000
 0.5460	84.1600
 0.5470	84.1900
 0.5480	84.2000
 0.5490	84.1700
 0.5500	84.3100
 0.5510	84.2300
 0.5520	84.3900
 0.5530	84.3900
 0.5540	84.2600
 0.5550	84.3800
 0.5560	84.3600
 0.5570	84.3400
 0.5580	84.3300
 0.5590	84.2300
 0.5600	84.5800
 0.5610	84.7600
 0.5620	84.6800
 0.5630	84.7600
 0.5640	84.8600
 0.5650	84.7500
 0.5660	84.8300
 0.5670	84.6400
 0.5680	84.7100
 0.5690	84.8600
 0.5700	84.6800
 0.5710	84.6700
 0.5720	84.5100
 0.5730	84.5300
 0.5740	84.6500
 0.5750	84.6000
 0.5760	84.6900
 0.5770	84.6100
 0.5780	84.6100
 0.5790	84.6700
 0.5800	84.6000
 0.5810	84.6400
 0.5820	84.5900
 0.5830	84.6300
 0.5840	84.7400
 0.5850	84.6100
 0.5860	84.7500
 0.5870	84.6400
 0.5880	84.5900
 0.5890	84.8100
 0.5900	84.8000
 0.5910	84.9200
 0.5920	84.8700
 0.5930	84.7000
 0.5940	84.9300
 0.5950	84.9200
 0.5960	84.9900
 0.5970	85.0200
 0.5980	84.9000
 0.5990	85.0500
 0.6000	85.0400
 0.6010	85.2100
 0.6020	85.3000
 0.6030	85.1400
 0.6040	85.2200
 0.6050	85.1900
 0.6060	85.3400
 0.6070	85.3300
 0.6080	85.2900
 0.6090	85.3800
 0.6100	85.2800
 0.6110	85.2800
 0.6120	85.3900
 0.6130	85.3100
 0.6140	85.4200
 0.6150	85.3600
 0.6160	85.4100
 0.6170	85.5200
 0.6180	85.4200
 0.6190	85.4100
 0.6200	85.3000
 0.6210	85.2900
 0.6220	85.5600
 0.6230	85.5200
 0.6240	85.5900
 0.6250	85.4300
 0.6260	85.3700
 0.6270	85.5800
 0.6280	85.5300
 0.6290	85.7100
 0.6300	85.7000
 0.6310	85.5900
 0.6320	85.6800
 0.6330	85.6700
 0.6340	85.7400
 0.6350	85.6900
 0.6360	85.5900
 0.6370	85.7500
 0.6380	85.8100
 0.6390	85.8600
 0.6400	85.8100
 0.6410	85.6900
 0.6420	85.9400
 0.6430	85.8800
 0.6440	85.8600
 0.6450	86.0200
 0.6460	85.8500
 0.6470	85.8600
 0.6480	85.8600
 0.6490	85.9400
 0.6500	86.0500
 0.6510	85.9900
 0.6520	86.1100
 0.6530	85.9400
 0.6540	85.9400
 0.6550	86.1600
 0.6560	86.0500
 0.6570	86.0300
 0.6580	85.9000
 0.6590	85.9600
 0.6600	86.2000
 0.6610	86.1100
 0.6620	86.0700
 0.6630	86.0100
 0.6640	86.1100
 0.6650	86.2200
 0.6660	86.1100
 0.6670	86.2900
 0.6680	86.1700
 0.6690	86.1700
 0.6700	86.3200
 0.6710	86.1400
 0.6720	86.2700
 0.6730	86.2700
 0.6740	86.1200
 0.6750	86.2200
 0.6760	86.2200
 0.6770	86.2700
 0.6780	86.1700
 0.6790	86.1000
 0.6800	86.2200
 0.6810	86.1700
 0.6820	86.2200
 0.6830	86.2700
 0.6840	86.1600
 0.6850	86.3400
 0.6860	86.2900
 0.6870	86.3500
 0.6880	86.2900
 0.6890	86.1600
 0.6900	86.3900
 0.6910	86.3500
 0.6920	86.3500
 0.6930	86.4100
 0.6940	86.2200
 0.6950	86.3100
 0.6960	86.3100
 0.6970	86.3100
 0.6980	86.4100
 0.6990	86.1700
 0.7000	86.2400
 0.7010	86.4000
 0.7020	86.4600
 0.7030	86.4400
 0.7040	86.3400
 0.7050	86.3000
 0.7060	86.4300
 0.7070	86.3700
 0.7080	86.5300
 0.7090	86.3600
 0.7100	86.3500
 0.7110	86.3000
 0.7120	86.3500
 0.7130	86.4500
 0.7140	86.3300
 0.7150	86.3400
 0.7160	86.3500
 0.7170	86.3500
 0.7180	86.4600
 0.7190	86.3500
 0.7200	86.3500
 0.7210	86.4100
 0.7220	86.4200
 0.7230	86.4200
 0.7240	86.4000
 0.7250	86.3400
 0.7260	86.5100
 0.7270	86.4100
 0.7280	86.5200
 0.7290	86.4100
 0.7300	86.2900
 0.7310	86.4200
 0.7320	86.3100
 0.7330	86.3000
 0.7340	86.2800
 0.7350	86.3800
 0.7360	86.4400
 0.7370	86.2900
 0.7380	86.3500
 0.7390	86.3000
 0.7400	86.3000
 0.7410	86.3100
 0.7420	86.2000
 0.7430	86.4200
 0.7440	86.4000
 0.7450	86.3500
 0.7460	86.3600
 0.7470	86.2700
 0.7480	86.4300
 0.7490	86.4200
 0.7500	86.4800
 0.7510	86.3700
 0.7520	86.3700
 0.7530	86.3600
 0.7540	86.3000
 0.7550	86.3600
 0.7560	86.4800
 0.7570	86.4300
 0.7580	86.3500
 0.7590	86.4700
 0.7600	86.3100
 0.7610	86.4800
 0.7620	86.2500
 0.7630	86.3000
 0.7640	86.3500
 0.7650	86.3200
 0.7660	86.4900
 0.7670	86.3800
 0.7680	86.3300
 0.7690	86.5000
 0.7700	86.4400
 0.7710	86.5900
 0.7720	86.4700
 0.7730	86.3700
 0.7740	86.5600
 0.7750	86.3300
 0.7760	86.5400
 0.7770	86.4300
 0.7780	86.4400
 0.7790	86.3800
 0.7800	86.3600
 0.7810	86.6000
 0.7820	86.5000
 0.7830	86.4500
 0.7840	86.5100
 0.7850	86.3800
 0.7860	86.5600
 0.7870	86.5600
 0.7880	86.5100
 0.7890	86.5600
 0.7900	86.5000
 0.7910	86.5600
 0.7920	86.5600
 0.7930	86.5100
 0.7940	86.6700
 0.7950	86.6100
 0.7960	86.6300
 0.7970	86.6200
 0.7980	86.5400
 0.7990	86.5700
 0.8000	86.6200
 0.8040	86.6800
 0.8080	86.7000
 0.8120	86.7400
 0.8160	86.7200
 0.8200	86.7700
 0.8240	86.7200
 0.8280	86.8400
 0.8320	86.8900
 0.8360	86.9500
 0.8400	87.0200
 0.8440	87.1600
 0.8480	87.1700
 0.8520	87.2200
 0.8560	87.2300
 0.8600	87.2100
 0.8640	87.3300
 0.8680	87.3400
 0.8720	87.3800
 0.8760	87.2700
 0.8800	87.2800
 0.8840	87.3200
 0.8880	87.3400
 0.8920	87.4500
 0.8960	87.3900
 0.9000	87.3900
 0.9040	87.3900
 0.9080	87.4000
 0.9120	87.3200
 0.9160	87.4000
 0.9200	87.3900
 0.9240	87.3000
 0.9280	87.4000
 0.9320	87.3200
 0.9360	87.4000
 0.9400	87.3900
 0.9440	87.4600
 0.9480	87.3400
 0.9520	87.3800
 0.9560	87.4500
 0.9600	87.3300
 0.9640	87.3900
 0.9680	87.4700
 0.9720	87.5200
 0.9760	87.4500
 0.9800	87.4600
 0.9840	87.4600
 0.9880	87.5300
 0.9920	87.4700
 0.9960	87.5700
 1.0000	87.5700
 1.0040	87.5200
 1.0080	87.6000
 1.0120	87.5900
 1.0160	87.5800
 1.0200	87.6300
 1.0240	87.6100
 1.0280	87.7400
 1.0320	87.7400
 1.0360	87.8200
 1.0400	87.8200
 1.0440	87.8300
 1.0480	87.7500
 1.0520	87.7500
 1.0560	87.7700
 1.0600	87.8400
 1.0640	87.8700
 1.0680	87.8500
 1.0720	87.9300
 1.0760	87.9000
 1.0800	87.9200
 1.0840	87.8900
 1.0880	87.9600
 1.0920	87.8500
 1.0960	87.9000
 1.1000	87.8700
 1.1040	87.8600
 1.1080	87.8600
 1.1120	87.8600
 1.1160	87.9000
 1.1200	87.8900
 1.1240	87.9400
 1.1280	87.9500
 1.1320	87.8400
 1.1360	87.9000
 1.1400	87.8600
 1.1440	87.9500
 1.1480	87.8200
 1.1520	87.9400
 1.1560	87.8700
 1.1600	87.9200
 1.1640	87.8500
 1.1680	87.8500
 1.1720	87.8500
 1.1760	87.9600
 1.1800	87.8300
 1.1840	87.8900
 1.1880	87.8100
 1.1920	87.8200
 1.1960	87.8900
 1.2000	87.8200
 1.2040	87.7500
 1.2080	87.7100
 1.2120	87.6900
 1.2160	87.5300
 1.2200	87.5300
 1.2240	87.4900
 1.2280	87.5200
 1.2320	87.4300
 1.2360	87.4500
 1.2400	87.3500
 1.2440	87.3600
 1.2480	87.3100
 1.2520	87.3700
 1.2560	87.2000
 1.2600	87.2400
 1.2640	87.1600
 1.2680	87.0200
 1.2720	86.9400
 1.2760	86.7600
 1.2800	86.5200
 1.2840	86.3300
 1.2880	86.3000
 1.2920	86.2700
 1.2960	86.4200
 1.3000	86.4900
 1.3040	86.5200
 1.3080	86.5600
 1.3120	86.4500
 1.3160	86.4500
 1.3200	86.2600
 1.3240	86.2200
 1.3280	86.1600
 1.3320	85.9900
 1.3360	85.7300
 1.3400	85.4500
 1.3440	85.2200
 1.3480	84.9200
 1.3520	85.0200
 1.3560	85.0600
 1.3600	85.1500
 1.3640	85.1600
 1.3680	85.0900
 1.3720	84.9200
 1.3760	84.5100
 1.3800	84.0100
 1.3840	83.5800
 1.3880	83.1400
 1.3920	82.8800
 1.3960	82.6700
 1.4000	82.0500
 1.4040	80.6700
 1.4080	78.8700
 1.4120	78.5600
 1.4160	79.5300
 1.4200	80.0400
 1.4240	80.2200
 1.4280	80.6700
 1.4320	80.8700
 1.4360	80.6400
 1.4400	80.2400
 1.4440	80.4400
 1.4480	80.7100
 1.4520	80.7100
 1.4560	80.4400
 1.4600	80.1500
 1.4640	79.7700
 1.4680	79.3400
 1.4720	78.9600
 1.4760	78.6400
 1.4800	78.4500
 1.4840	78.2100
 1.4880	77.9400
 1.4920	77.5400
 1.4960	77.0300
 1.5000	76.4900
 1.5040	75.4900
 1.5080	74.7000
 1.5120	73.8200
 1.5160	73.1400
 1.5200	72.2700
 1.5240	71.5100
 1.5280	70.9500
 1.5320	70.5100
 1.5360	70.3800
 1.5400	70.5400
 1.5440	70.8400
 1.5480	71.3200
 1.5520	71.9900
 1.5560	72.6200
 1.5600	73.3200
 1.5640	73.8300
 1.5680	74.5700
 1.5720	75.0500
 1.5760	75.4800
 1.5800	75.8800
 1.5840	76.1100
 1.5880	76.3700
 1.5920	76.5700
 1.5960	76.6700
 1.6000	76.8900
 1.6040	77.0000
 1.6080	77.1200
 1.6120	77.2500
 1.6160	77.5700
 1.6200	77.6900
 1.6240	77.7700
 1.6280	77.8600
 1.6320	77.8500
 1.6360	77.9100
 1.6400	77.9600
 1.6440	78.0400
 1.6480	78.0700
 1.6520	78.1500
 1.6560	78.1400
 1.6600	78.2900
 1.6640	78.3500
 1.6680	78.3600
 1.6720	78.4400
 1.6760	78.3300
 1.6800	78.3500
 1.6840	78.3300
 1.6880	78.3200
 1.6920	78.2300
 1.6960	78.1900
 1.7000	78.1400
 1.7040	77.8900
 1.7080	77.5600
 1.7120	77.2900
 1.7160	76.9400
 1.7200	76.4800
 1.7240	76.1600
 1.7280	75.9200
 1.7320	75.8100
 1.7360	75.7800
 1.7400	75.7300
 1.7440	75.6500
 1.7480	75.5600
 1.7520	75.4400
 1.7560	75.3700
 1.7600	75.3200
 1.7640	75.2400
 1.7680	75.2800
 1.7720	75.4600
 1.7760	75.6400
 1.7800	75.7800
 1.7840	76.0400
 1.7880	76.1800
 1.7920	76.4800
 1.7960	76.6300
 1.8000	76.7200
 1.8040	76.7100
 1.8080	76.6500
 1.8120	76.4400
 1.8160	76.2600
 1.8200	75.5800
 1.8240	74.5400
 1.8280	73.2000
 1.8320	71.5200
 1.8360	70.0300
 1.8400	68.9900
 1.8440	68.6300
 1.8480	68.9200
 1.8520	69.4600
 1.8560	70.1900
 1.8600	70.8600
 1.8640	71.2400
 1.8680	71.5100
 1.8720	71.6300
 1.8760	71.5100
 1.8800	71.4500
 1.8840	71.3500
 1.8880	71.1200
 1.8920	70.8900
 1.8960	70.6300
 1.9000	70.3200
 1.9040	69.9700
 1.9080	69.9200
 1.9120	69.7900
 1.9160	69.8900
 1.9200	69.9100
 1.9240	70.0000
 1.9280	70.0400
 1.9320	70.0700
 1.9360	69.9400
 1.9400	69.9700
 1.9440	69.8700
 1.9480	69.7500
 1.9520	69.4800
 1.9560	68.9000
 1.9600	68.0900
 1.9640	66.9400
 1.9680	65.3000
 1.9720	63.1000
 1.9760	60.5500
 1.9800	58.1400
 1.9840	56.4200
 1.9880	55.7800
 1.9920	56.3300
 1.9960	57.9300
 2.0000	60.0800
 2.0040	62.3200
 2.0080	64.1200
 2.0120	65.5100
 2.0160	66.3500
 2.0200	66.7600
 2.0240	66.7400
 2.0280	66.5600
 2.0320	66.2400
 2.0360	65.8400
 2.0400	65.4000
 2.0440	64.9600
 2.0480	64.6200
 2.0520	64.4400
 2.0560	64.4200
 2.0600	64.3300
 2.0640	64.4100
 2.0680	64.5200
 2.0720	64.7300
 2.0760	64.9100
 2.0800	65.0400
 2.0840	65.0400
 2.0880	64.9700
 2.0920	64.5700
 2.0960	64.2600
 2.1000	63.7200
 2.1040	63.2200
 2.1080	62.6300
 2.1120	62.1200
 2.1160	61.4900
 2.1200	60.9400
 2.1240	60.3300
 2.1280	59.5000
 2.1320	58.3800
 2.1360	56.6900
 2.1400	54.3300
 2.1440	51.0500
 2.1480	47.0500
 2.1520	42.3600
 2.1560	37.5200
 2.1600	33.0600
 2.1640	29.4500
 2.1680	27.0700
 2.1720	25.9900
 2.1760	26.0700
 2.1800	26.8500
 2.1840	28.1700
 2.1880	29.7400
 2.1920	31.4600
 2.1960	33.3400
 2.2000	35.2200
 2.2040	37.0900
 2.2080	38.9200
 2.2120	40.6200
 2.2160	42.1900
 2.2200	43.5900
 2.2240	44.9500
 2.2280	46.1500
 2.2320	47.2500
 2.2360	48.3000
 2.2400	49.3300
 2.2440	50.2200
 2.2480	51.0000
 2.2520	51.8300
 2.2560	52.4900
 2.2600	53.0600
 2.2640	53.6500
 2.2680	54.2900
 2.2720	54.8000
 2.2760	55.4000
 2.2800	55.9400
 2.2840	56.5800
 2.2880	57.2900
 2.2920	58.0500
 2.2960	58.7500
 2.3000	59.1600
 2.3040	59.8500
 2.3080	60.2500
 2.3120	60.4500
 2.3160	60.6200
 2.3200	60.5200
 2.3240	60.2600
 2.3280	59.6700
 2.3320	58.5700
 2.3360	56.8700
 2.3400	54.3800
 2.3440	51.1800
 2.3480	47.4800
 2.3520	43.4200
 2.3560	39.3800
 2.3600	35.8400
 2.3640	33.2600
 2.3680	31.7700
 2.3720	31.7600
 2.3760	32.9200
 2.3800	35.1300
 2.3840	37.8700
 2.3880	40.8400
 2.3920	43.6800
 2.3960	46.2900
 2.4000	48.4300
 2.4040	50.0200
 2.4080	51.2400
 2.4120	51.9800
 2.4160	52.4200
 2.4200	52.6800
 2.4240	52.6200
 2.4280	52.3800
 2.4320	51.9200
 2.4360	51.3700
 2.4400	50.8000
 2.4440	50.0500
 2.4480	49.1400
 2.4520	48.1400
 2.4560	47.1700
 2.4600	46.1800
 2.4640	45.2000
 2.4680	44.3100
 2.4720	43.4100
 2.4760	42.6000
 2.4800	41.8300
 2.4840	41.1500
 2.4880	40.5500
 2.4920	40.0000
 2.4960	39.5000
 2.5000	39.0100
