Name: Molybdenite MoS_2
Type: Mineral
Class: Sulfide
Subclass: None
Particle Size: Coarse
Sample No.: S-11A
Owner: JPL
Wavelength Range: VSWIR
Origin: Norway, Arendal, Froland
Collection Date: N/A
Description: Particle size was 125-500um.Collected by JPL Original ASTER Spectral Library name was jpl.beckman.mineral.sulfide.none.coarse.s11a.spectrum.txt
Measurement: Hemispherical reflectance
First Column: X
Second Column: Y
X Units: Wavelength (micrometers)
Y Units:Reflectance (percent)
First X Value:  0.4000
Last X Value:  2.5000
Number of X Values: 826
Additional Information: mineral.sulfide.none.coarse.vswir.s-11a.jpl.beckman.ancillary.txt

 0.4000	25.1300
 0.4010	25.1000
 0.4020	24.9800
 0.4030	25.0100
 0.4040	24.9600
 0.4050	24.9900
 0.4060	25.1100
 0.4070	24.9000
 0.4080	24.8800
 0.4090	24.8700
 0.4100	24.9400
 0.4110	24.9700
 0.4120	24.8500
 0.4130	24.8500
 0.4140	24.8200
 0.4150	24.8400
 0.4160	24.9300
 0.4170	24.7700
 0.4180	24.8800
 0.4190	24.7900
 0.4200	24.8200
 0.4210	24.8800
 0.4220	24.7700
 0.4230	24.7900
 0.4240	24.7600
 0.4250	24.8200
 0.4260	24.8400
 0.4270	24.8000
 0.4280	24.8600
 0.4290	24.8400
 0.4300	24.9100
 0.4310	24.9900
 0.4320	24.8800
 0.4330	24.9400
 0.4340	24.9400
 0.4350	25.0400
 0.4360	25.2100
 0.4370	25.1300
 0.4380	25.2100
 0.4390	25.2400
 0.4400	25.2700
 0.4410	25.4800
 0.4420	25.4100
 0.4430	25.4300
 0.4440	25.5100
 0.4450	25.5400
 0.4460	25.6700
 0.4470	25.5000
 0.4480	25.6800
 0.4490	25.5900
 0.4500	25.5800
 0.4510	25.6800
 0.4520	25.5600
 0.4530	25.6700
 0.4540	25.6500
 0.4550	25.6100
 0.4560	25.6200
 0.4570	25.6000
 0.4580	25.6700
 0.4590	25.5800
 0.4600	25.5700
 0.4610	25.5600
 0.4620	25.5100
 0.4630	25.4800
 0.4640	25.5300
 0.4650	25.3800
 0.4660	25.3300
 0.4670	25.2600
 0.4680	25.2600
 0.4690	25.2200
 0.4700	25.1600
 0.4710	25.1800
 0.4720	25.0800
 0.4730	24.9900
 0.4740	24.9400
 0.4750	24.7800
 0.4760	24.9000
 0.4770	24.7000
 0.4780	24.7500
 0.4790	24.7800
 0.4800	24.6300
 0.4810	24.6300
 0.4820	24.5200
 0.4830	24.4600
 0.4840	24.5000
 0.4850	24.3100
 0.4860	24.3500
 0.4870	24.2600
 0.4880	24.2100
 0.4890	24.1100
 0.4900	23.9900
 0.4910	23.9900
 0.4920	23.8900
 0.4930	23.8000
 0.4940	23.7400
 0.4950	23.5300
 0.4960	23.6300
 0.4970	23.5600
 0.4980	23.5300
 0.4990	23.4600
 0.5000	23.2500
 0.5010	23.2400
 0.5020	23.1100
 0.5030	23.1400
 0.5040	23.1200
 0.5050	22.9000
 0.5060	22.9100
 0.5070	22.8200
 0.5080	22.8200
 0.5090	22.7200
 0.5100	22.4900
 0.5110	22.5100
 0.5120	22.4300
 0.5130	22.5600
 0.5140	22.4300
 0.5150	22.3400
 0.5160	22.3500
 0.5170	22.2100
 0.5180	22.2100
 0.5190	22.1000
 0.5200	22.0000
 0.5210	22.0300
 0.5220	21.9100
 0.5230	21.9600
 0.5240	21.8600
 0.5250	21.7700
 0.5260	21.7800
 0.5270	21.7700
 0.5280	21.7500
 0.5290	21.5600
 0.5300	21.4600
 0.5310	21.5900
 0.5320	21.5000
 0.5330	21.5000
 0.5340	21.3100
 0.5350	21.2400
 0.5360	21.3800
 0.5370	21.2600
 0.5380	21.3500
 0.5390	21.2000
 0.5400	21.1700
 0.5410	21.2000
 0.5420	21.1100
 0.5430	21.1600
 0.5440	20.9800
 0.5450	20.9400
 0.5460	21.0800
 0.5470	20.9200
 0.5480	20.9300
 0.5490	20.8200
 0.5500	20.7800
 0.5510	20.9400
 0.5520	20.8100
 0.5530	20.8400
 0.5540	20.7500
 0.5550	20.7100
 0.5560	20.7700
 0.5570	20.7100
 0.5580	20.7100
 0.5590	20.7100
 0.5600	20.6600
 0.5610	20.6900
 0.5620	20.6300
 0.5630	20.5600
 0.5640	20.6000
 0.5650	20.5300
 0.5660	20.5500
 0.5670	20.5600
 0.5680	20.3400
 0.5690	20.5100
 0.5700	20.3600
 0.5710	20.4500
 0.5720	20.3400
 0.5730	20.2200
 0.5740	20.3000
 0.5750	20.2500
 0.5760	20.2500
 0.5770	20.2600
 0.5780	20.1500
 0.5790	20.2100
 0.5800	20.1600
 0.5810	20.1500
 0.5820	20.2100
 0.5830	19.9900
 0.5840	20.1200
 0.5850	20.0300
 0.5860	20.0500
 0.5870	20.1100
 0.5880	20.0200
 0.5890	20.0500
 0.5900	20.0300
 0.5910	20.1000
 0.5920	20.1900
 0.5930	20.1100
 0.5940	20.2700
 0.5950	20.2500
 0.5960	20.3900
 0.5970	20.4600
 0.5980	20.4400
 0.5990	20.6400
 0.6000	20.6000
 0.6010	20.7500
 0.6020	20.8300
 0.6030	20.8900
 0.6040	21.0300
 0.6050	21.0600
 0.6060	21.2300
 0.6070	21.2500
 0.6080	21.1600
 0.6090	21.4100
 0.6100	21.3800
 0.6110	21.4400
 0.6120	21.4600
 0.6130	21.4300
 0.6140	21.5900
 0.6150	21.5000
 0.6160	21.5500
 0.6170	21.4700
 0.6180	21.4500
 0.6190	21.5500
 0.6200	21.5500
 0.6210	21.5900
 0.6220	21.5300
 0.6230	21.4100
 0.6240	21.5200
 0.6250	21.4800
 0.6260	21.4400
 0.6270	21.4100
 0.6280	21.3300
 0.6290	21.3800
 0.6300	21.2200
 0.6310	21.2500
 0.6320	21.1900
 0.6330	21.2000
 0.6340	21.1600
 0.6350	21.0400
 0.6360	21.0200
 0.6370	20.9400
 0.6380	20.9000
 0.6390	20.9800
 0.6400	20.8200
 0.6410	20.7400
 0.6420	20.7400
 0.6430	20.7200
 0.6440	20.7400
 0.6450	20.6000
 0.6460	20.5800
 0.6470	20.5400
 0.6480	20.5600
 0.6490	20.5700
 0.6500	20.5200
 0.6510	20.5500
 0.6520	20.5100
 0.6530	20.5800
 0.6540	20.6900
 0.6550	20.5700
 0.6560	20.7100
 0.6570	20.7100
 0.6580	20.8400
 0.6590	20.9200
 0.6600	20.8500
 0.6610	21.0100
 0.6620	21.0900
 0.6630	21.2800
 0.6640	21.4800
 0.6650	21.4300
 0.6660	21.6500
 0.6670	21.7200
 0.6680	21.9000
 0.6690	22.2100
 0.6700	22.2300
 0.6710	22.4300
 0.6720	22.5300
 0.6730	22.6800
 0.6740	22.7800
 0.6750	22.7500
 0.6760	22.9200
 0.6770	22.8800
 0.6780	22.8800
 0.6790	22.9100
 0.6800	22.7500
 0.6810	22.8800
 0.6820	22.7800
 0.6830	22.7500
 0.6840	22.7800
 0.6850	22.6600
 0.6860	22.7100
 0.6870	22.5900
 0.6880	22.6200
 0.6890	22.6800
 0.6900	22.5500
 0.6910	22.5400
 0.6920	22.5500
 0.6930	22.6100
 0.6940	22.6800
 0.6950	22.5600
 0.6960	22.7200
 0.6970	22.6000
 0.6980	22.6600
 0.6990	22.6900
 0.7000	22.5600
 0.7010	22.6400
 0.7020	22.7800
 0.7030	22.7900
 0.7040	22.8100
 0.7050	22.7800
 0.7060	22.8100
 0.7070	22.9100
 0.7080	22.8900
 0.7090	22.8900
 0.7100	23.0000
 0.7110	23.0400
 0.7120	23.0200
 0.7130	23.0700
 0.7140	23.0700
 0.7150	23.1100
 0.7160	23.1500
 0.7170	23.2100
 0.7180	23.2100
 0.7190	23.2300
 0.7200	23.2300
 0.7210	23.2700
 0.7220	23.2700
 0.7230	23.3600
 0.7240	23.2800
 0.7250	23.2700
 0.7260	23.3300
 0.7270	23.3600
 0.7280	23.4400
 0.7290	23.4300
 0.7300	23.3700
 0.7310	23.5000
 0.7320	23.4100
 0.7330	23.5000
 0.7340	23.5100
 0.7350	23.6100
 0.7360	23.5400
 0.7370	23.5900
 0.7380	23.6300
 0.7390	23.5900
 0.7400	23.6600
 0.7410	23.6100
 0.7420	23.6700
 0.7430	23.7000
 0.7440	23.7100
 0.7450	23.7000
 0.7460	23.8200
 0.7470	23.7100
 0.7480	23.7900
 0.7490	23.7600
 0.7500	23.7600
 0.7510	23.8700
 0.7520	23.8300
 0.7530	23.8200
 0.7540	23.9500
 0.7550	23.9600
 0.7560	23.9300
 0.7570	23.9700
 0.7580	24.0200
 0.7590	24.0200
 0.7600	24.0500
 0.7610	23.9900
 0.7620	24.0500
 0.7630	24.1400
 0.7640	24.0800
 0.7650	24.0800
 0.7660	24.1600
 0.7670	24.2400
 0.7680	24.2200
 0.7690	24.2600
 0.7700	24.2900
 0.7710	24.2900
 0.7720	24.2800
 0.7730	24.3400
 0.7740	24.3500
 0.7750	24.4100
 0.7760	24.4100
 0.7770	24.4200
 0.7780	24.4900
 0.7790	24.4500
 0.7800	24.5100
 0.7810	24.5500
 0.7820	24.5700
 0.7830	24.6400
 0.7840	24.6200
 0.7850	24.6400
 0.7860	24.6600
 0.7870	24.6900
 0.7880	24.8100
 0.7890	24.7800
 0.7900	24.8400
 0.7910	24.8200
 0.7920	24.8900
 0.7930	24.7500
 0.7940	24.9900
 0.7950	24.9800
 0.7960	25.0700
 0.7970	25.1400
 0.7980	25.2400
 0.7990	24.9900
 0.8000	25.3400
 0.8040	25.4700
 0.8080	25.5600
 0.8120	25.6400
 0.8160	25.8000
 0.8200	25.8900
 0.8240	26.0100
 0.8280	26.1800
 0.8320	26.4000
 0.8360	26.5400
 0.8400	26.6400
 0.8440	26.8100
 0.8480	27.0500
 0.8520	27.1700
 0.8560	27.4000
 0.8600	27.6000
 0.8640	27.8600
 0.8680	28.0600
 0.8720	28.3000
 0.8760	28.6200
 0.8800	28.8300
 0.8840	29.0500
 0.8880	29.3300
 0.8920	29.5900
 0.8960	29.9300
 0.9000	30.1800
 0.9040	30.3900
 0.9080	30.7300
 0.9120	30.9500
 0.9160	31.2900
 0.9200	31.6500
 0.9240	31.9700
 0.9280	32.3400
 0.9320	32.7400
 0.9360	33.1600
 0.9400	33.5200
 0.9440	33.8900
 0.9480	34.1900
 0.9520	34.5800
 0.9560	34.9500
 0.9600	35.2700
 0.9640	35.4600
 0.9680	35.7000
 0.9720	36.0000
 0.9760	36.2000
 0.9800	36.4600
 0.9840	36.6800
 0.9880	36.8600
 0.9920	36.9900
 0.9960	37.1300
 1.0000	37.2600
 1.0040	37.5000
 1.0080	37.6000
 1.0120	37.7700
 1.0160	37.7800
 1.0200	37.8500
 1.0240	37.9000
 1.0280	37.9900
 1.0320	38.0400
 1.0360	38.0900
 1.0400	38.1500
 1.0440	38.2500
 1.0480	38.2100
 1.0520	38.2300
 1.0560	38.3800
 1.0600	38.4400
 1.0640	38.4100
 1.0680	38.5000
 1.0720	38.5900
 1.0760	38.6800
 1.0800	38.6900
 1.0840	38.7300
 1.0880	38.8100
 1.0920	38.8300
 1.0960	38.9400
 1.1000	39.0100
 1.1040	39.0900
 1.1080	39.0900
 1.1120	39.2400
 1.1160	39.1900
 1.1200	39.2600
 1.1240	39.3300
 1.1280	39.4400
 1.1320	39.4200
 1.1360	39.4700
 1.1400	39.4900
 1.1440	39.5900
 1.1480	39.5600
 1.1520	39.6000
 1.1560	39.7200
 1.1600	39.7500
 1.1640	39.8400
 1.1680	39.8100
 1.1720	39.8800
 1.1760	39.9500
 1.1800	39.9400
 1.1840	39.9400
 1.1880	40.0500
 1.1920	40.1300
 1.1960	40.1500
 1.2000	40.2700
 1.2040	40.3400
 1.2080	40.4000
 1.2120	40.4000
 1.2160	40.4000
 1.2200	40.5000
 1.2240	40.5500
 1.2280	40.5700
 1.2320	40.5700
 1.2360	40.6500
 1.2400	40.7000
 1.2440	40.7500
 1.2480	40.8200
 1.2520	40.8200
 1.2560	40.8600
 1.2600	40.9000
 1.2640	40.9200
 1.2680	40.9900
 1.2720	41.0100
 1.2760	41.1700
 1.2800	41.2600
 1.2840	41.3000
 1.2880	41.3200
 1.2920	41.3800
 1.2960	41.3800
 1.3000	41.4000
 1.3040	41.4800
 1.3080	41.5700
 1.3120	41.6100
 1.3160	41.5900
 1.3200	41.5600
 1.3240	41.6100
 1.3280	41.6700
 1.3320	41.7000
 1.3360	41.6900
 1.3400	41.7100
 1.3440	41.7500
 1.3480	41.8100
 1.3520	41.8200
 1.3560	41.8300
 1.3600	41.9400
 1.3640	41.9100
 1.3680	41.9800
 1.3720	42.0800
 1.3760	42.1200
 1.3800	42.1200
 1.3840	42.0800
 1.3880	42.0700
 1.3920	42.1200
 1.3960	42.0900
 1.4000	42.1100
 1.4040	42.1600
 1.4080	42.1300
 1.4120	42.2000
 1.4160	42.2200
 1.4200	42.3000
 1.4240	42.3900
 1.4280	42.4100
 1.4320	42.4300
 1.4360	42.5600
 1.4400	42.5400
 1.4440	42.5700
 1.4480	42.6800
 1.4520	42.7000
 1.4560	42.7700
 1.4600	42.7700
 1.4640	42.8100
 1.4680	42.9000
 1.4720	42.9400
 1.4760	42.9900
 1.4800	43.0100
 1.4840	43.1300
 1.4880	43.0900
 1.4920	43.0900
 1.4960	43.1500
 1.5000	43.1300
 1.5040	43.2300
 1.5080	43.3300
 1.5120	43.3400
 1.5160	43.3600
 1.5200	43.3900
 1.5240	43.4400
 1.5280	43.4400
 1.5320	43.5200
 1.5360	43.5600
 1.5400	43.6100
 1.5440	43.7000
 1.5480	43.7400
 1.5520	43.7700
 1.5560	43.7200
 1.5600	43.7800
 1.5640	43.8100
 1.5680	43.8300
 1.5720	43.8900
 1.5760	43.9500
 1.5800	44.0200
 1.5840	43.9700
 1.5880	44.1100
 1.5920	44.1700
 1.5960	44.2000
 1.6000	44.2900
 1.6040	44.2900
 1.6080	44.3300
 1.6120	44.3600
 1.6160	44.4700
 1.6200	44.4300
 1.6240	44.4900
 1.6280	44.3700
 1.6320	44.4200
 1.6360	44.5700
 1.6400	44.5900
 1.6440	44.6600
 1.6480	44.7900
 1.6520	44.7900
 1.6560	44.9100
 1.6600	44.9500
 1.6640	44.9800
 1.6680	45.0200
 1.6720	45.1400
 1.6760	45.1400
 1.6800	45.2200
 1.6840	45.2200
 1.6880	45.3200
 1.6920	45.3300
 1.6960	45.3300
 1.7000	45.4400
 1.7040	45.4900
 1.7080	45.4600
 1.7120	45.4900
 1.7160	45.6100
 1.7200	45.6100
 1.7240	45.6700
 1.7280	45.7200
 1.7320	45.7500
 1.7360	45.7800
 1.7400	45.8900
 1.7440	45.9300
 1.7480	45.9300
 1.7520	45.9900
 1.7560	45.9900
 1.7600	46.1200
 1.7640	46.1500
 1.7680	46.2000
 1.7720	46.2900
 1.7760	46.2600
 1.7800	46.3800
 1.7840	46.3800
 1.7880	46.3800
 1.7920	46.4100
 1.7960	46.4700
 1.8000	46.5500
 1.8040	46.5700
 1.8080	46.6400
 1.8120	46.6800
 1.8160	46.6700
 1.8200	46.6800
 1.8240	46.7800
 1.8280	46.7900
 1.8320	46.8900
 1.8360	46.9400
 1.8400	46.9500
 1.8440	47.0000
 1.8480	46.9700
 1.8520	46.9900
 1.8560	47.0200
 1.8600	47.1000
 1.8640	47.0700
 1.8680	47.0400
 1.8720	47.0700
 1.8760	47.1800
 1.8800	47.1700
 1.8840	47.2200
 1.8880	47.2100
 1.8920	47.2400
 1.8960	47.2700
 1.9000	47.2600
 1.9040	47.2000
 1.9080	47.2200
 1.9120	47.1700
 1.9160	47.1200
 1.9200	47.1700
 1.9240	47.1400
 1.9280	47.1900
 1.9320	47.2200
 1.9360	47.3100
 1.9400	47.3300
 1.9440	47.4400
 1.9480	47.4400
 1.9520	47.5400
 1.9560	47.4900
 1.9600	47.5500
 1.9640	47.6500
 1.9680	47.6000
 1.9720	47.7000
 1.9760	47.7400
 1.9800	47.7800
 1.9840	47.8300
 1.9880	47.9100
 1.9920	48.0100
 1.9960	48.1200
 2.0000	48.1700
 2.0040	48.2200
 2.0080	48.2200
 2.0120	48.2800
 2.0160	48.4100
 2.0200	48.4200
 2.0240	48.4700
 2.0280	48.4800
 2.0320	48.5600
 2.0360	48.5400
 2.0400	48.6600
 2.0440	48.5600
 2.0480	48.7200
 2.0520	48.6400
 2.0560	48.6300
 2.0600	48.6700
 2.0640	48.6200
 2.0680	48.7200
 2.0720	48.6600
 2.0760	48.7700
 2.0800	48.7800
 2.0840	48.8700
 2.0880	48.8500
 2.0920	48.9600
 2.0960	49.0100
 2.1000	49.0300
 2.1040	49.0900
 2.1080	49.1000
 2.1120	49.2000
 2.1160	49.2000
 2.1200	49.2200
 2.1240	49.2300
 2.1280	49.1900
 2.1320	49.1900
 2.1360	49.1800
 2.1400	49.1700
 2.1440	49.1800
 2.1480	49.1900
 2.1520	49.1600
 2.1560	49.1200
 2.1600	49.1500
 2.1640	49.1800
 2.1680	49.1800
 2.1720	49.1100
 2.1760	49.0900
 2.1800	49.0700
 2.1840	48.9400
 2.1880	48.9500
 2.1920	48.9700
 2.1960	48.9800
 2.2000	48.9800
 2.2040	48.9300
 2.2080	49.0200
 2.2120	49.1100
 2.2160	49.1500
 2.2200	49.1500
 2.2240	49.2600
 2.2280	49.2400
 2.2320	49.2300
 2.2360	49.2700
 2.2400	49.2600
 2.2440	49.2600
 2.2480	49.2600
 2.2520	49.2600
 2.2560	49.3500
 2.2600	49.3000
 2.2640	49.2900
 2.2680	49.3000
 2.2720	49.4500
 2.2760	49.4200
 2.2800	49.4400
 2.2840	49.4700
 2.2880	49.4900
 2.2920	49.5000
 2.2960	49.4300
 2.3000	49.4700
 2.3040	49.2600
 2.3080	49.3100
 2.3120	49.3000
 2.3160	49.3800
 2.3200	49.4000
 2.3240	49.4400
 2.3280	49.5400
 2.3320	49.5600
 2.3360	49.5600
 2.3400	49.5800
 2.3440	49.5900
 2.3480	49.6200
 2.3520	49.6100
 2.3560	49.5500
 2.3600	49.5700
 2.3640	49.5800
 2.3680	49.5700
 2.3720	49.6100
 2.3760	49.6600
 2.3800	49.6600
 2.3840	49.6500
 2.3880	49.6300
 2.3920	49.6700
 2.3960	49.7000
 2.4000	49.7000
 2.4040	49.6500
 2.4080	49.7300
 2.4120	49.6000
 2.4160	49.5700
 2.4200	49.6100
 2.4240	49.5700
 2.4280	49.5900
 2.4320	49.5400
 2.4360	49.6600
 2.4400	49.5900
 2.4440	49.6600
 2.4480	49.6600
 2.4520	49.6500
 2.4560	49.6300
 2.4600	49.5200
 2.4640	49.5600
 2.4680	49.5900
 2.4720	49.5700
 2.4760	49.5200
 2.4800	49.6400
 2.4840	49.7300
 2.4880	49.8400
 2.4920	49.8800
 2.4960	49.9900
 2.5000	50.1200
