Name: Tincalconite Na_2B_4O_5(OH)_4.3H_2O
Type: Mineral
Class: Borate
Subclass: None
Particle Size: Coarse
Sample No.: B-4A
Owner: JPL
Wavelength Range: VSWIR
Origin: USA, California, Kern County, Boron
Collection Date: N/A
Description: Particle size was 125-500um.Collected by Burminco Original ASTER Spectral Library name was jpl.beckman.mineral.borate.none.coarse.b04.spectrum.txt
Measurement: Hemispherical reflectance
First Column: X
Second Column: Y
X Units: Wavelength (micrometers)
Y Units:Reflectance (percent)
First X Value:  0.4000
Last X Value:  2.5000
Number of X Values: 826
Additional Information: mineral.borate.none.coarse.vswir.b-4a.jpl.beckman.ancillary.txt

 0.4000	83.0300
 0.4010	83.3800
 0.4020	83.2100
 0.4030	83.1500
 0.4040	83.3800
 0.4050	83.6800
 0.4060	83.6200
 0.4070	83.7900
 0.4080	83.9100
 0.4090	84.0900
 0.4100	84.3200
 0.4110	84.2100
 0.4120	84.2100
 0.4130	84.2600
 0.4140	84.5500
 0.4150	84.6600
 0.4160	84.6100
 0.4170	84.5500
 0.4180	84.9600
 0.4190	85.4300
 0.4200	85.4300
 0.4210	85.1300
 0.4220	85.2500
 0.4230	85.2500
 0.4240	85.3700
 0.4250	85.5500
 0.4260	85.3100
 0.4270	85.5500
 0.4280	85.6600
 0.4290	86.0000
 0.4300	85.7800
 0.4310	85.7800
 0.4320	85.9500
 0.4330	86.0000
 0.4340	86.0000
 0.4350	86.1800
 0.4360	85.8900
 0.4370	85.8900
 0.4380	86.1800
 0.4390	86.7100
 0.4400	86.5900
 0.4410	86.4200
 0.4420	86.3600
 0.4430	86.3600
 0.4440	86.6500
 0.4450	87.0000
 0.4460	86.7100
 0.4470	86.8900
 0.4480	87.0000
 0.4490	87.2400
 0.4500	87.2400
 0.4510	87.0600
 0.4520	87.1800
 0.4530	87.4100
 0.4540	87.5900
 0.4550	87.5900
 0.4560	87.3500
 0.4570	87.5900
 0.4580	87.6000
 0.4590	87.8900
 0.4600	87.7200
 0.4610	87.8300
 0.4620	87.6000
 0.4630	87.7300
 0.4640	87.7900
 0.4650	88.2400
 0.4660	87.9000
 0.4670	87.7900
 0.4680	87.9700
 0.4690	88.0800
 0.4700	88.2500
 0.4710	88.1400
 0.4720	87.8000
 0.4730	87.9700
 0.4740	88.2100
 0.4750	88.2600
 0.4760	88.0900
 0.4770	87.9700
 0.4780	88.2700
 0.4790	88.5100
 0.4800	88.6900
 0.4810	88.5100
 0.4820	88.3900
 0.4830	88.5200
 0.4840	88.7000
 0.4850	88.8700
 0.4860	88.7500
 0.4870	88.6400
 0.4880	88.6500
 0.4890	88.7100
 0.4900	89.2200
 0.4910	89.0500
 0.4920	88.7100
 0.4930	89.0000
 0.4940	89.2300
 0.4950	89.5300
 0.4960	89.4700
 0.4970	89.2900
 0.4980	89.4800
 0.4990	89.4800
 0.5000	89.6500
 0.5010	89.6500
 0.5020	89.3000
 0.5030	89.4800
 0.5040	89.5400
 0.5050	89.6500
 0.5060	89.6000
 0.5070	89.4800
 0.5080	89.6500
 0.5090	90.0100
 0.5100	90.0700
 0.5110	89.9500
 0.5120	89.7700
 0.5130	89.8900
 0.5140	90.0700
 0.5150	90.1200
 0.5160	89.8300
 0.5170	89.7100
 0.5180	90.0100
 0.5190	90.1800
 0.5200	90.1800
 0.5210	89.9500
 0.5220	89.8300
 0.5230	89.9500
 0.5240	90.2900
 0.5250	90.3500
 0.5260	90.1200
 0.5270	89.9500
 0.5280	90.2900
 0.5290	90.6400
 0.5300	90.4700
 0.5310	90.1200
 0.5320	89.9500
 0.5330	90.1800
 0.5340	90.4700
 0.5350	90.7600
 0.5360	90.6400
 0.5370	90.7600
 0.5380	90.7600
 0.5390	90.9400
 0.5400	90.9400
 0.5410	90.6400
 0.5420	90.5200
 0.5430	90.7600
 0.5440	90.9400
 0.5450	90.8800
 0.5460	90.6400
 0.5470	90.6400
 0.5480	90.8200
 0.5490	90.7600
 0.5500	90.8800
 0.5510	90.7000
 0.5520	90.6400
 0.5530	90.8800
 0.5540	90.9900
 0.5550	91.0500
 0.5560	90.6400
 0.5570	90.4100
 0.5580	90.6400
 0.5590	90.7600
 0.5600	91.1100
 0.5610	91.2900
 0.5620	91.1100
 0.5630	91.0500
 0.5640	91.1100
 0.5650	91.4600
 0.5660	91.8200
 0.5670	91.4600
 0.5680	91.1700
 0.5690	91.2900
 0.5700	91.7600
 0.5710	91.7600
 0.5720	91.4100
 0.5730	90.9900
 0.5740	91.1700
 0.5750	91.3500
 0.5760	91.1700
 0.5770	91.1100
 0.5780	90.9400
 0.5790	91.3500
 0.5800	91.4600
 0.5810	91.4100
 0.5820	91.2900
 0.5830	91.2300
 0.5840	91.3500
 0.5850	91.5200
 0.5860	91.3500
 0.5870	91.1700
 0.5880	91.1100
 0.5890	91.2300
 0.5900	91.5200
 0.5910	91.4600
 0.5920	91.1700
 0.5930	91.2300
 0.5940	91.4600
 0.5950	91.5800
 0.5960	91.4600
 0.5970	91.3500
 0.5980	91.3500
 0.5990	91.4100
 0.6000	91.5800
 0.6010	91.4100
 0.6020	91.4600
 0.6030	91.7000
 0.6040	91.9300
 0.6050	91.8700
 0.6060	91.7600
 0.6070	91.8200
 0.6080	91.9800
 0.6090	92.2200
 0.6100	92.3900
 0.6110	92.0400
 0.6120	91.8700
 0.6130	92.0400
 0.6140	92.1600
 0.6150	92.3300
 0.6160	92.4500
 0.6170	92.3900
 0.6180	92.0400
 0.6190	92.1000
 0.6200	92.2800
 0.6210	92.3300
 0.6220	92.2200
 0.6230	92.1600
 0.6240	92.3300
 0.6250	92.4500
 0.6260	92.4500
 0.6270	92.2200
 0.6280	92.1000
 0.6290	92.2800
 0.6300	92.2200
 0.6310	92.1000
 0.6320	92.1000
 0.6330	91.8700
 0.6340	92.0400
 0.6350	92.2200
 0.6360	92.2800
 0.6370	92.2200
 0.6380	92.1600
 0.6390	92.2800
 0.6400	92.4500
 0.6410	92.4500
 0.6420	92.1000
 0.6430	91.9800
 0.6440	92.2800
 0.6450	92.4500
 0.6460	92.4500
 0.6470	92.5100
 0.6480	92.2800
 0.6490	92.5100
 0.6500	92.5700
 0.6510	92.2800
 0.6520	92.2800
 0.6530	92.3900
 0.6540	92.5700
 0.6550	92.5100
 0.6560	92.5700
 0.6570	92.5100
 0.6580	92.4500
 0.6590	92.6900
 0.6600	92.6900
 0.6610	92.5100
 0.6620	92.3900
 0.6630	92.3900
 0.6640	92.6300
 0.6650	92.7400
 0.6660	92.6900
 0.6670	92.3300
 0.6680	92.3300
 0.6690	92.3300
 0.6700	92.6300
 0.6710	92.6900
 0.6720	92.4500
 0.6730	92.3900
 0.6740	92.3900
 0.6750	92.5100
 0.6760	92.6300
 0.6770	92.3300
 0.6780	92.2800
 0.6790	92.3300
 0.6800	92.4500
 0.6810	92.6300
 0.6820	92.5700
 0.6830	92.6900
 0.6840	92.6900
 0.6850	92.7400
 0.6860	92.8000
 0.6870	92.4500
 0.6880	92.2800
 0.6890	92.3300
 0.6900	92.3300
 0.6910	92.7400
 0.6920	92.9200
 0.6930	92.5100
 0.6940	92.5100
 0.6950	92.6300
 0.6960	92.9200
 0.6970	92.9200
 0.6980	92.8000
 0.6990	92.5700
 0.7000	92.5700
 0.7010	92.7400
 0.7020	92.9200
 0.7030	92.9200
 0.7040	92.6900
 0.7050	92.5100
 0.7060	92.4500
 0.7070	92.6300
 0.7080	92.7400
 0.7090	92.5100
 0.7100	92.3900
 0.7110	92.5100
 0.7120	92.7400
 0.7130	92.8600
 0.7140	92.4500
 0.7150	92.2800
 0.7160	92.4500
 0.7170	92.4500
 0.7180	92.5100
 0.7190	92.5100
 0.7200	92.4500
 0.7210	92.2800
 0.7220	92.2800
 0.7230	92.3900
 0.7240	92.3300
 0.7250	92.3300
 0.7260	92.2200
 0.7270	92.2800
 0.7280	92.5100
 0.7290	92.4500
 0.7300	92.2200
 0.7310	92.1600
 0.7320	92.2200
 0.7330	92.3300
 0.7340	92.3300
 0.7350	92.2200
 0.7360	91.9300
 0.7370	91.8700
 0.7380	91.9800
 0.7390	92.1600
 0.7400	92.2800
 0.7410	91.9300
 0.7420	91.9300
 0.7430	91.9300
 0.7440	92.2200
 0.7450	92.2200
 0.7460	91.7000
 0.7470	91.5800
 0.7480	91.8200
 0.7490	91.8700
 0.7500	91.9800
 0.7510	91.9300
 0.7520	91.8700
 0.7530	91.8700
 0.7540	91.8700
 0.7550	91.9300
 0.7560	91.7000
 0.7570	91.5800
 0.7580	91.8200
 0.7590	91.9300
 0.7600	92.1600
 0.7610	91.9800
 0.7620	91.7000
 0.7630	91.7600
 0.7640	91.9300
 0.7650	92.0400
 0.7660	91.8200
 0.7670	91.5200
 0.7680	91.5800
 0.7690	91.8700
 0.7700	92.0400
 0.7710	92.0400
 0.7720	91.9800
 0.7730	92.0400
 0.7740	92.1600
 0.7750	92.2200
 0.7760	92.1000
 0.7770	91.8700
 0.7780	91.8200
 0.7790	92.0400
 0.7800	92.3300
 0.7810	92.3300
 0.7820	92.1000
 0.7830	91.9300
 0.7840	91.9800
 0.7850	92.1000
 0.7860	92.1600
 0.7870	91.9800
 0.7880	91.7600
 0.7890	91.8700
 0.7900	92.0400
 0.7910	91.9300
 0.7920	91.9800
 0.7930	91.8700
 0.7940	91.8700
 0.7950	92.1600
 0.7960	92.2200
 0.7970	92.0400
 0.7980	91.8700
 0.7990	91.3500
 0.8000	91.3500
 0.8040	91.3500
 0.8080	91.3500
 0.8120	91.1700
 0.8160	91.2300
 0.8200	91.2300
 0.8240	91.1700
 0.8280	90.9900
 0.8320	91.1100
 0.8360	90.9900
 0.8400	91.0500
 0.8440	90.8800
 0.8480	90.8800
 0.8520	90.9400
 0.8560	90.9400
 0.8600	90.8800
 0.8640	90.8800
 0.8680	90.8200
 0.8720	90.8800
 0.8760	90.8800
 0.8800	90.8800
 0.8840	90.8200
 0.8880	90.7600
 0.8920	90.7600
 0.8960	90.5800
 0.9000	90.5800
 0.9040	90.6400
 0.9080	90.6400
 0.9120	90.4100
 0.9160	90.5200
 0.9200	90.4100
 0.9240	90.3500
 0.9280	90.1200
 0.9320	90.0700
 0.9360	89.8300
 0.9400	89.7100
 0.9440	89.3600
 0.9480	89.0700
 0.9520	88.6600
 0.9560	88.2600
 0.9600	87.5500
 0.9640	86.9700
 0.9680	86.2100
 0.9720	85.8600
 0.9760	85.5100
 0.9800	85.5700
 0.9840	85.5100
 0.9880	85.6800
 0.9920	85.6800
 0.9960	85.9800
 1.0000	86.0400
 1.0040	86.2700
 1.0080	86.6200
 1.0120	86.8000
 1.0160	87.2000
 1.0200	87.3200
 1.0240	87.6100
 1.0280	87.7900
 1.0320	88.1400
 1.0360	88.2000
 1.0400	88.4300
 1.0440	88.6100
 1.0480	88.8900
 1.0520	88.7700
 1.0560	88.8300
 1.0600	89.0100
 1.0640	89.1900
 1.0680	89.0700
 1.0720	89.0700
 1.0760	89.1300
 1.0800	89.0700
 1.0840	88.9500
 1.0880	88.8300
 1.0920	88.7700
 1.0960	88.7200
 1.1000	88.4900
 1.1040	88.2600
 1.1080	88.0800
 1.1120	88.0800
 1.1160	87.8500
 1.1200	87.7900
 1.1240	87.6100
 1.1280	87.4900
 1.1320	87.1400
 1.1360	86.5600
 1.1400	85.8600
 1.1440	85.0500
 1.1480	83.6500
 1.1520	82.1200
 1.1560	80.6600
 1.1600	79.7800
 1.1640	79.1300
 1.1680	78.9500
 1.1720	78.7700
 1.1760	78.7100
 1.1800	78.7000
 1.1840	78.8100
 1.1880	78.8600
 1.1920	78.8000
 1.1960	78.6700
 1.2000	78.5500
 1.2040	78.6100
 1.2080	78.6700
 1.2120	78.6700
 1.2160	78.6100
 1.2200	78.7300
 1.2240	78.6700
 1.2280	78.5500
 1.2320	78.4900
 1.2360	78.4400
 1.2400	78.4900
 1.2440	78.3800
 1.2480	78.3200
 1.2520	78.3200
 1.2560	78.3700
 1.2600	78.4200
 1.2640	78.3500
 1.2680	78.4100
 1.2720	78.5100
 1.2760	78.4000
 1.2800	78.3300
 1.2840	78.3200
 1.2880	78.3700
 1.2920	78.3700
 1.2960	78.2500
 1.3000	78.3000
 1.3040	77.9900
 1.3080	77.6400
 1.3120	77.0500
 1.3160	76.5300
 1.3200	75.8200
 1.3240	75.0000
 1.3280	74.0600
 1.3320	73.3000
 1.3360	72.4800
 1.3400	71.6600
 1.3440	70.9500
 1.3480	70.4200
 1.3520	69.9500
 1.3560	69.4400
 1.3600	68.9700
 1.3640	68.5700
 1.3680	68.1000
 1.3720	67.5800
 1.3760	66.9300
 1.3800	66.1800
 1.3840	64.9000
 1.3880	63.3200
 1.3920	61.3500
 1.3960	59.2000
 1.4000	56.4700
 1.4040	53.4500
 1.4080	50.3100
 1.4120	47.1100
 1.4160	44.1500
 1.4200	41.8300
 1.4240	40.5500
 1.4280	40.3200
 1.4320	40.3200
 1.4360	40.3200
 1.4400	40.2200
 1.4440	40.0400
 1.4480	39.7000
 1.4520	39.4600
 1.4560	39.1100
 1.4600	38.9500
 1.4640	38.6500
 1.4680	38.3600
 1.4720	38.0700
 1.4760	38.0700
 1.4800	38.0100
 1.4840	38.3000
 1.4880	38.8900
 1.4920	39.7600
 1.4960	40.6300
 1.5000	40.8000
 1.5040	42.3800
 1.5080	42.9500
 1.5120	43.3700
 1.5160	43.7200
 1.5200	44.0600
 1.5240	44.0600
 1.5280	44.1800
 1.5320	44.2900
 1.5360	44.2400
 1.5400	44.1200
 1.5440	44.0600
 1.5480	44.1200
 1.5520	44.0100
 1.5560	44.0600
 1.5600	44.0600
 1.5640	44.1200
 1.5680	44.2400
 1.5720	44.2900
 1.5760	44.2900
 1.5800	44.4100
 1.5840	44.4700
 1.5880	44.4100
 1.5920	44.4100
 1.5960	44.4100
 1.6000	44.2900
 1.6040	44.1800
 1.6080	44.1200
 1.6120	44.0600
 1.6160	43.8700
 1.6200	43.7000
 1.6240	43.5200
 1.6280	43.4500
 1.6320	43.1700
 1.6360	42.9800
 1.6400	42.6900
 1.6440	42.5700
 1.6480	42.3400
 1.6520	42.2200
 1.6560	41.9200
 1.6600	41.8000
 1.6640	41.6200
 1.6680	41.4500
 1.6720	41.3300
 1.6760	41.2600
 1.6800	41.1400
 1.6840	41.0300
 1.6880	40.7900
 1.6920	40.7300
 1.6960	40.6100
 1.7000	40.4900
 1.7040	40.3100
 1.7080	40.3100
 1.7120	40.2000
 1.7160	40.2000
 1.7200	40.0300
 1.7240	39.9700
 1.7280	39.8500
 1.7320	39.7900
 1.7360	39.6800
 1.7400	39.5000
 1.7440	39.5000
 1.7480	39.3300
 1.7520	39.1000
 1.7560	38.8700
 1.7600	38.6900
 1.7640	38.4000
 1.7680	38.0500
 1.7720	37.7600
 1.7760	37.6400
 1.7800	37.4700
 1.7840	37.2900
 1.7880	37.1700
 1.7920	37.2300
 1.7960	37.1700
 1.8000	37.0700
 1.8040	36.9900
 1.8080	36.9800
 1.8120	36.8500
 1.8160	36.8400
 1.8200	36.7700
 1.8240	36.7600
 1.8280	36.6300
 1.8320	36.5000
 1.8360	36.2600
 1.8400	36.2500
 1.8440	36.0700
 1.8480	35.7000
 1.8520	35.2300
 1.8560	34.8800
 1.8600	34.3100
 1.8640	33.6000
 1.8680	32.6100
 1.8720	31.5200
 1.8760	30.3500
 1.8800	28.9700
 1.8840	27.2800
 1.8880	25.5500
 1.8920	23.7000
 1.8960	21.8500
 1.9000	20.0000
 1.9040	18.3200
 1.9080	16.9300
 1.9120	15.8800
 1.9160	15.0800
 1.9200	14.6100
 1.9240	14.4400
 1.9280	14.3800
 1.9320	14.3800
 1.9360	14.5000
 1.9400	14.8400
 1.9440	15.1300
 1.9480	15.4100
 1.9520	15.6400
 1.9560	16.0400
 1.9600	16.3200
 1.9640	16.5600
 1.9680	16.6700
 1.9720	17.0100
 1.9760	17.2900
 1.9800	17.4000
 1.9840	17.6900
 1.9880	17.9200
 1.9920	18.2000
 1.9960	18.3700
 2.0000	18.5900
 2.0040	18.9200
 2.0080	19.0800
 2.0120	19.2300
 2.0160	19.5200
 2.0200	19.7400
 2.0240	19.9500
 2.0280	20.1000
 2.0320	20.2700
 2.0360	20.3800
 2.0400	20.5900
 2.0440	20.5800
 2.0480	20.7300
 2.0520	20.8900
 2.0560	20.9900
 2.0600	21.0400
 2.0640	21.1500
 2.0680	21.2000
 2.0720	21.2400
 2.0760	21.2900
 2.0800	21.3400
 2.0840	21.3300
 2.0880	21.3800
 2.0920	21.3100
 2.0960	21.3000
 2.1000	21.3500
 2.1040	21.4000
 2.1080	21.3900
 2.1120	21.2700
 2.1160	21.2600
 2.1200	21.0900
 2.1240	20.9500
 2.1280	20.7100
 2.1320	20.5300
 2.1360	20.3000
 2.1400	20.2000
 2.1440	19.9700
 2.1480	19.8700
 2.1520	19.9900
 2.1560	20.1300
 2.1600	20.2600
 2.1640	20.6200
 2.1680	20.9900
 2.1720	21.2900
 2.1760	21.5500
 2.1800	21.8600
 2.1840	22.0600
 2.1880	22.2400
 2.1920	22.1500
 2.1960	22.2800
 2.2000	22.3500
 2.2040	22.2400
 2.2080	22.0700
 2.2120	22.0700
 2.2160	21.9700
 2.2200	21.9200
 2.2240	21.7500
 2.2280	21.6300
 2.2320	21.5700
 2.2360	21.5000
 2.2400	21.2700
 2.2440	21.2700
 2.2480	21.1500
 2.2520	21.2100
 2.2560	21.0800
 2.2600	21.0100
 2.2640	21.0100
 2.2680	21.0700
 2.2720	20.9500
 2.2760	21.0600
 2.2800	21.1100
 2.2840	21.1600
 2.2880	21.1500
 2.2920	21.1400
 2.2960	21.2400
 2.3000	21.2700
 2.3040	21.2600
 2.3080	21.1400
 2.3120	21.2400
 2.3160	21.2900
 2.3200	21.2800
 2.3240	21.2600
 2.3280	21.1400
 2.3320	21.0600
 2.3360	20.9900
 2.3400	20.8000
 2.3440	20.6300
 2.3480	20.4400
 2.3520	20.2600
 2.3560	19.9700
 2.3600	19.7400
 2.3640	19.4500
 2.3680	19.1600
 2.3720	18.7600
 2.3760	18.3600
 2.3800	17.9100
 2.3840	17.5700
 2.3880	17.0500
 2.3920	16.5900
 2.3960	16.2000
 2.4000	15.8100
 2.4040	15.3500
 2.4080	14.9600
 2.4120	14.4500
 2.4160	14.1700
 2.4200	13.8200
 2.4240	13.6000
 2.4280	13.2600
 2.4320	13.0800
 2.4360	12.8000
 2.4400	12.6300
 2.4440	12.5700
 2.4480	12.3500
 2.4520	12.1200
 2.4560	11.9500
 2.4600	11.8900
 2.4640	11.7800
 2.4680	11.5000
 2.4720	11.3300
 2.4760	11.0500
 2.4800	10.9300
 2.4840	10.7100
 2.4880	10.4800
 2.4920	10.2500
 2.4960	10.0800
 2.5000	 9.9100
