Name: Vesuvianite Ca_10(Mg,Fe^2+)_2Al_4(Si_2O_7)_2(SiO_4)_5(OH,F)_4
Type: Mineral
Class: Silicate
Subclass: Sorosilicate
Particle Size: Coarse
Sample No.: SS-3A
Owner: JPL
Wavelength Range: VSWIR
Origin: USA, California, Riverside County, Crestmore Quarry
Collection Date: N/A
Description: Particle size was 125-500um.Collected by Burminco Original ASTER Spectral Library name was jpl.beckman.mineral.silicate.sorosilicate.coarse.ss03a.spectrum.txt
Measurement: Hemispherical reflectance
First Column: X
Second Column: Y
X Units: Wavelength (micrometers)
Y Units:Reflectance (percent)
First X Value:  0.4000
Last X Value:  2.5000
Number of X Values: 826
Additional Information: mineral.silicate.sorosilicate.coarse.vswir.ss-3a.jpl.beckman.ancillary.txt

 0.4000	18.3600
 0.4010	18.6600
 0.4020	18.9800
 0.4030	19.2900
 0.4040	19.6100
 0.4050	19.7900
 0.4060	19.9600
 0.4070	20.3500
 0.4080	20.5000
 0.4090	20.7300
 0.4100	20.9400
 0.4110	21.0600
 0.4120	21.2100
 0.4130	21.4500
 0.4140	21.7100
 0.4150	21.9000
 0.4160	22.0900
 0.4170	22.2400
 0.4180	22.6100
 0.4190	22.8700
 0.4200	23.1700
 0.4210	23.4300
 0.4220	23.6900
 0.4230	24.0300
 0.4240	24.2200
 0.4250	24.6900
 0.4260	24.8900
 0.4270	25.1600
 0.4280	25.3700
 0.4290	25.5400
 0.4300	25.9200
 0.4310	26.1200
 0.4320	26.3700
 0.4330	26.5300
 0.4340	26.7800
 0.4350	27.0400
 0.4360	27.3000
 0.4370	27.6400
 0.4380	27.7200
 0.4390	27.8700
 0.4400	28.2800
 0.4410	28.7100
 0.4420	29.0500
 0.4430	29.4600
 0.4440	29.7700
 0.4450	30.2200
 0.4460	30.6300
 0.4470	31.0100
 0.4480	31.4900
 0.4490	31.7300
 0.4500	32.2800
 0.4510	32.7200
 0.4520	33.1100
 0.4530	33.4900
 0.4540	33.8600
 0.4550	34.0900
 0.4560	34.4000
 0.4570	34.3900
 0.4580	34.4600
 0.4590	34.3800
 0.4600	34.3700
 0.4610	35.1200
 0.4620	36.0600
 0.4630	37.1200
 0.4640	38.2100
 0.4650	39.1800
 0.4660	39.7200
 0.4670	40.3700
 0.4680	41.0000
 0.4690	41.5700
 0.4700	42.2100
 0.4710	42.7500
 0.4720	43.1400
 0.4730	43.6100
 0.4740	44.0700
 0.4750	44.5200
 0.4760	44.8200
 0.4770	45.0400
 0.4780	45.4200
 0.4790	45.6900
 0.4800	45.8900
 0.4810	46.1000
 0.4820	46.5200
 0.4830	46.7600
 0.4840	46.9000
 0.4850	47.1700
 0.4860	47.3500
 0.4870	47.5900
 0.4880	47.8600
 0.4890	48.0300
 0.4900	48.1500
 0.4910	48.3900
 0.4920	48.6800
 0.4930	49.0600
 0.4940	49.2000
 0.4950	49.2500
 0.4960	49.5200
 0.4970	49.6000
 0.4980	49.8100
 0.4990	50.0400
 0.5000	50.0900
 0.5010	50.1800
 0.5020	50.2900
 0.5030	50.3500
 0.5040	50.4100
 0.5050	50.5200
 0.5060	50.5500
 0.5070	50.5000
 0.5080	50.6400
 0.5090	50.5000
 0.5100	50.5000
 0.5110	50.5800
 0.5120	50.5300
 0.5130	50.5200
 0.5140	50.5800
 0.5150	50.5800
 0.5160	50.5700
 0.5170	50.5500
 0.5180	50.4300
 0.5190	50.4900
 0.5200	50.4300
 0.5210	50.4500
 0.5220	50.3600
 0.5230	50.3700
 0.5240	50.3600
 0.5250	50.2700
 0.5260	50.2100
 0.5270	50.2100
 0.5280	50.2800
 0.5290	50.4400
 0.5300	50.5400
 0.5310	50.5900
 0.5320	50.7200
 0.5330	50.7500
 0.5340	50.9300
 0.5350	50.9800
 0.5360	51.1500
 0.5370	51.3400
 0.5380	51.2800
 0.5390	51.5300
 0.5400	51.6400
 0.5410	51.5400
 0.5420	51.7800
 0.5430	51.8000
 0.5440	51.9700
 0.5450	52.0500
 0.5460	52.1900
 0.5470	52.2900
 0.5480	52.3900
 0.5490	52.4700
 0.5500	52.4600
 0.5510	52.5900
 0.5520	52.7200
 0.5530	52.8200
 0.5540	52.8900
 0.5550	52.9000
 0.5560	52.9400
 0.5570	53.1800
 0.5580	53.1600
 0.5590	53.1500
 0.5600	53.5100
 0.5610	53.6000
 0.5620	53.6700
 0.5630	53.6400
 0.5640	53.7100
 0.5650	53.7100
 0.5660	53.9200
 0.5670	53.8900
 0.5680	53.9400
 0.5690	54.1300
 0.5700	54.0300
 0.5710	54.1200
 0.5720	54.1300
 0.5730	54.0800
 0.5740	54.1600
 0.5750	54.2100
 0.5760	54.3200
 0.5770	54.2400
 0.5780	54.3600
 0.5790	54.4600
 0.5800	54.3700
 0.5810	54.3000
 0.5820	54.2700
 0.5830	54.3800
 0.5840	54.4800
 0.5850	54.5500
 0.5860	54.4900
 0.5870	54.6600
 0.5880	54.6000
 0.5890	54.6900
 0.5900	54.8300
 0.5910	54.7000
 0.5920	54.8400
 0.5930	54.8500
 0.5940	54.8400
 0.5950	54.8300
 0.5960	54.9400
 0.5970	55.0000
 0.5980	55.0700
 0.5990	55.0800
 0.6000	55.1400
 0.6010	55.2400
 0.6020	55.2400
 0.6030	55.3200
 0.6040	55.4000
 0.6050	55.4200
 0.6060	55.3600
 0.6070	55.3500
 0.6080	55.4100
 0.6090	55.3700
 0.6100	55.3900
 0.6110	55.3500
 0.6120	55.4800
 0.6130	55.5000
 0.6140	55.4000
 0.6150	55.4300
 0.6160	55.3200
 0.6170	55.3900
 0.6180	55.3800
 0.6190	55.3400
 0.6200	55.4600
 0.6210	55.3500
 0.6220	55.4900
 0.6230	55.4900
 0.6240	55.6300
 0.6250	55.7800
 0.6260	55.7600
 0.6270	55.7600
 0.6280	55.8000
 0.6290	56.0500
 0.6300	55.9800
 0.6310	56.0900
 0.6320	56.1600
 0.6330	56.1900
 0.6340	56.2600
 0.6350	56.3900
 0.6360	56.5200
 0.6370	56.4800
 0.6380	56.5600
 0.6390	56.6600
 0.6400	56.7500
 0.6410	56.8200
 0.6420	56.8200
 0.6430	56.9600
 0.6440	57.0000
 0.6450	57.1300
 0.6460	57.0900
 0.6470	57.2700
 0.6480	57.3200
 0.6490	57.3100
 0.6500	57.4000
 0.6510	57.4100
 0.6520	57.5600
 0.6530	57.7100
 0.6540	57.7400
 0.6550	57.7500
 0.6560	57.8700
 0.6570	57.9700
 0.6580	58.0700
 0.6590	57.9900
 0.6600	58.1200
 0.6610	58.1700
 0.6620	58.2000
 0.6630	58.4600
 0.6640	58.4700
 0.6650	58.5100
 0.6660	58.5800
 0.6670	58.6300
 0.6680	58.9000
 0.6690	58.9200
 0.6700	58.8500
 0.6710	59.0000
 0.6720	59.1300
 0.6730	59.2300
 0.6740	59.2400
 0.6750	59.2900
 0.6760	59.3800
 0.6770	59.4600
 0.6780	59.6100
 0.6790	59.6800
 0.6800	59.8000
 0.6810	59.8900
 0.6820	59.9000
 0.6830	59.9200
 0.6840	59.9400
 0.6850	60.0900
 0.6860	60.2300
 0.6870	60.1200
 0.6880	60.2700
 0.6890	60.3100
 0.6900	60.3500
 0.6910	60.5100
 0.6920	60.4900
 0.6930	60.5200
 0.6940	60.5800
 0.6950	60.6400
 0.6960	60.8000
 0.6970	60.8700
 0.6980	60.8000
 0.6990	60.8000
 0.7000	60.9000
 0.7010	60.9300
 0.7020	61.1600
 0.7030	61.3800
 0.7040	61.3200
 0.7050	61.3600
 0.7060	61.3200
 0.7070	61.4000
 0.7080	61.5700
 0.7090	61.5000
 0.7100	61.5100
 0.7110	61.6100
 0.7120	61.6300
 0.7130	61.8400
 0.7140	61.8200
 0.7150	61.7800
 0.7160	61.6700
 0.7170	61.7400
 0.7180	61.8600
 0.7190	61.8400
 0.7200	61.9600
 0.7210	61.9400
 0.7220	61.9400
 0.7230	61.9500
 0.7240	61.9200
 0.7250	62.0000
 0.7260	62.0200
 0.7270	61.9600
 0.7280	61.9900
 0.7290	62.0100
 0.7300	62.0500
 0.7310	62.0900
 0.7320	62.0300
 0.7330	61.9700
 0.7340	62.0700
 0.7350	62.0000
 0.7360	62.1800
 0.7370	62.1600
 0.7380	62.1800
 0.7390	62.0900
 0.7400	62.0700
 0.7410	62.1300
 0.7420	62.0500
 0.7430	62.1800
 0.7440	62.1300
 0.7450	62.1100
 0.7460	62.1400
 0.7470	62.1600
 0.7480	62.2600
 0.7490	62.2400
 0.7500	62.2700
 0.7510	62.1100
 0.7520	62.2000
 0.7530	62.2200
 0.7540	62.2900
 0.7550	62.3300
 0.7560	62.2700
 0.7570	62.2700
 0.7580	62.3100
 0.7590	62.3700
 0.7600	62.3500
 0.7610	62.3300
 0.7620	62.4500
 0.7630	62.3700
 0.7640	62.3500
 0.7650	62.4300
 0.7660	62.4300
 0.7670	62.6200
 0.7680	62.5600
 0.7690	62.5400
 0.7700	62.5200
 0.7710	62.4300
 0.7720	62.5200
 0.7730	62.5100
 0.7740	62.6000
 0.7750	62.5600
 0.7760	62.5400
 0.7770	62.6000
 0.7780	62.4700
 0.7790	62.6000
 0.7800	62.7200
 0.7810	62.7000
 0.7820	62.5400
 0.7830	62.6000
 0.7840	62.6000
 0.7850	62.6800
 0.7860	62.6200
 0.7870	62.5400
 0.7880	62.6000
 0.7890	62.6600
 0.7900	62.7500
 0.7910	62.6800
 0.7920	62.7900
 0.7930	62.7000
 0.7940	62.6800
 0.7950	62.7400
 0.7960	62.6400
 0.7970	62.7900
 0.7980	62.7400
 0.7990	62.7000
 0.8000	63.1000
 0.8040	63.0200
 0.8080	62.9800
 0.8120	62.9200
 0.8160	62.9800
 0.8200	62.9400
 0.8240	62.8800
 0.8280	62.8400
 0.8320	62.6600
 0.8360	62.6200
 0.8400	62.4600
 0.8440	62.2800
 0.8480	62.0600
 0.8520	61.8500
 0.8560	61.6400
 0.8600	61.4000
 0.8640	61.1600
 0.8680	60.8800
 0.8720	60.6100
 0.8760	60.2700
 0.8800	59.8900
 0.8840	59.3500
 0.8880	58.9200
 0.8920	58.3700
 0.8960	57.8000
 0.9000	57.2900
 0.9040	56.6900
 0.9080	56.0300
 0.9120	55.4400
 0.9160	54.8600
 0.9200	54.3500
 0.9240	53.9800
 0.9280	53.6800
 0.9320	53.6800
 0.9360	54.0000
 0.9400	54.7800
 0.9440	55.7700
 0.9480	56.9700
 0.9520	58.0600
 0.9560	59.1700
 0.9600	60.3200
 0.9640	61.2800
 0.9680	61.9700
 0.9720	62.6000
 0.9760	63.1400
 0.9800	63.6800
 0.9840	64.1200
 0.9880	64.4800
 0.9920	64.7600
 0.9960	65.0000
 1.0000	65.3200
 1.0040	65.3900
 1.0080	65.5600
 1.0120	65.6700
 1.0160	65.8600
 1.0200	66.1000
 1.0240	66.1800
 1.0280	66.2300
 1.0320	66.2900
 1.0360	66.3600
 1.0400	66.5300
 1.0440	66.6700
 1.0480	66.6900
 1.0520	66.8000
 1.0560	66.9000
 1.0600	67.0700
 1.0640	66.9900
 1.0680	67.1000
 1.0720	67.1100
 1.0760	67.3400
 1.0800	67.4600
 1.0840	67.5900
 1.0880	67.6600
 1.0920	67.7800
 1.0960	67.9000
 1.1000	67.9800
 1.1040	68.1200
 1.1080	68.2200
 1.1120	68.4100
 1.1160	68.5700
 1.1200	68.6400
 1.1240	68.8000
 1.1280	68.9300
 1.1320	68.9500
 1.1360	69.1500
 1.1400	69.3300
 1.1440	69.4900
 1.1480	69.6500
 1.1520	69.7400
 1.1560	69.9400
 1.1600	70.0300
 1.1640	70.1500
 1.1680	70.3200
 1.1720	70.4600
 1.1760	70.6500
 1.1800	70.8200
 1.1840	71.0300
 1.1880	71.0700
 1.1920	71.2400
 1.1960	71.3500
 1.2000	71.5000
 1.2040	71.7300
 1.2080	71.9100
 1.2120	71.9900
 1.2160	72.0900
 1.2200	72.2000
 1.2240	72.2800
 1.2280	72.3400
 1.2320	72.3600
 1.2360	72.5000
 1.2400	72.6200
 1.2440	72.7100
 1.2480	72.7000
 1.2520	72.6000
 1.2560	72.5400
 1.2600	72.5200
 1.2640	72.6200
 1.2680	72.8400
 1.2720	72.9700
 1.2760	73.1200
 1.2800	73.2300
 1.2840	73.3300
 1.2880	73.3800
 1.2920	73.3100
 1.2960	73.3400
 1.3000	73.2500
 1.3040	73.2900
 1.3080	73.2800
 1.3120	73.2700
 1.3160	73.3700
 1.3200	73.2100
 1.3240	73.1100
 1.3280	73.0900
 1.3320	73.1300
 1.3360	73.1500
 1.3400	73.0900
 1.3440	73.0000
 1.3480	72.7900
 1.3520	72.6500
 1.3560	72.2600
 1.3600	71.8900
 1.3640	71.3200
 1.3680	70.7300
 1.3720	70.0300
 1.3760	68.5200
 1.3800	65.6600
 1.3840	61.7400
 1.3880	58.4900
 1.3920	56.7900
 1.3960	56.4800
 1.4000	56.7000
 1.4040	57.3400
 1.4080	58.9700
 1.4120	61.0900
 1.4160	62.5900
 1.4200	62.4800
 1.4240	61.2100
 1.4280	59.8400
 1.4320	59.7000
 1.4360	60.7800
 1.4400	62.2000
 1.4440	63.2900
 1.4480	63.9400
 1.4520	64.2800
 1.4560	64.4900
 1.4600	64.8600
 1.4640	65.1800
 1.4680	65.5300
 1.4720	65.7900
 1.4760	66.2900
 1.4800	66.6100
 1.4840	66.9200
 1.4880	67.1900
 1.4920	67.4300
 1.4960	67.6600
 1.5000	67.9100
 1.5040	68.1200
 1.5080	68.3400
 1.5120	68.4500
 1.5160	68.6400
 1.5200	68.6700
 1.5240	68.8000
 1.5280	68.8100
 1.5320	68.8200
 1.5360	68.9800
 1.5400	68.9200
 1.5440	69.0800
 1.5480	69.0200
 1.5520	68.9500
 1.5560	68.9400
 1.5600	68.8700
 1.5640	68.9200
 1.5680	69.0100
 1.5720	68.9100
 1.5760	68.8600
 1.5800	68.7800
 1.5840	68.6600
 1.5880	68.6300
 1.5920	68.5100
 1.5960	68.4400
 1.6000	68.3300
 1.6040	68.2500
 1.6080	68.1100
 1.6120	68.0600
 1.6160	67.9500
 1.6200	67.7000
 1.6240	67.6000
 1.6280	67.3700
 1.6320	67.2300
 1.6360	67.0700
 1.6400	67.0100
 1.6440	66.8500
 1.6480	66.7300
 1.6520	66.6300
 1.6560	66.4600
 1.6600	66.3800
 1.6640	66.2100
 1.6680	66.0800
 1.6720	65.9200
 1.6760	65.7400
 1.6800	65.7200
 1.6840	65.5700
 1.6880	65.4600
 1.6920	65.3800
 1.6960	65.3000
 1.7000	65.2600
 1.7040	65.2700
 1.7080	65.1900
 1.7120	65.0700
 1.7160	65.0000
 1.7200	64.8800
 1.7240	64.8300
 1.7280	64.7500
 1.7320	64.7100
 1.7360	64.6800
 1.7400	64.7000
 1.7440	64.6000
 1.7480	64.4700
 1.7520	64.4300
 1.7560	64.3200
 1.7600	64.1900
 1.7640	64.1900
 1.7680	64.0900
 1.7720	64.0000
 1.7760	64.0100
 1.7800	64.0300
 1.7840	63.9300
 1.7880	63.9100
 1.7920	63.7800
 1.7960	63.6700
 1.8000	63.5300
 1.8040	63.4600
 1.8080	63.4200
 1.8120	63.2600
 1.8160	63.1300
 1.8200	62.9300
 1.8240	62.7600
 1.8280	62.6400
 1.8320	62.5500
 1.8360	62.3600
 1.8400	62.1700
 1.8440	62.0500
 1.8480	61.8400
 1.8520	61.6400
 1.8560	61.5400
 1.8600	61.3900
 1.8640	61.1700
 1.8680	60.7900
 1.8720	60.5800
 1.8760	60.3500
 1.8800	60.2300
 1.8840	59.9400
 1.8880	59.6100
 1.8920	59.2700
 1.8960	58.8700
 1.9000	58.6300
 1.9040	58.3300
 1.9080	58.0400
 1.9120	57.8300
 1.9160	57.7300
 1.9200	57.5300
 1.9240	57.3500
 1.9280	57.0600
 1.9320	56.9100
 1.9360	56.6200
 1.9400	56.2800
 1.9440	55.9600
 1.9480	55.5000
 1.9520	55.1400
 1.9560	54.6600
 1.9600	54.1600
 1.9640	53.7800
 1.9680	53.3400
 1.9720	52.9200
 1.9760	52.5800
 1.9800	52.3000
 1.9840	52.3100
 1.9880	52.5800
 1.9920	52.9200
 1.9960	53.2900
 2.0000	53.6600
 2.0040	53.8400
 2.0080	54.0500
 2.0120	54.2100
 2.0160	54.3000
 2.0200	54.4800
 2.0240	54.6000
 2.0280	54.6000
 2.0320	54.5200
 2.0360	54.5900
 2.0400	54.4900
 2.0440	54.3800
 2.0480	54.2500
 2.0520	54.1100
 2.0560	54.0700
 2.0600	53.9800
 2.0640	53.7600
 2.0680	53.5700
 2.0720	53.3500
 2.0760	53.0500
 2.0800	52.7000
 2.0840	52.3500
 2.0880	51.8700
 2.0920	51.3200
 2.0960	50.6500
 2.1000	49.8700
 2.1040	49.1000
 2.1080	48.4100
 2.1120	47.5800
 2.1160	46.7700
 2.1200	45.9100
 2.1240	45.1300
 2.1280	44.2400
 2.1320	43.3600
 2.1360	42.6500
 2.1400	42.0400
 2.1440	41.7200
 2.1480	41.5200
 2.1520	41.5000
 2.1560	41.3900
 2.1600	41.3500
 2.1640	41.2400
 2.1680	41.0400
 2.1720	40.6700
 2.1760	40.3400
 2.1800	39.9400
 2.1840	39.4400
 2.1880	38.8300
 2.1920	38.1700
 2.1960	37.3400
 2.2000	36.5700
 2.2040	35.8400
 2.2080	35.1500
 2.2120	34.6400
 2.2160	34.2600
 2.2200	34.0100
 2.2240	33.7600
 2.2280	33.5200
 2.2320	33.1400
 2.2360	32.7600
 2.2400	32.3800
 2.2440	31.8100
 2.2480	31.2200
 2.2520	30.6600
 2.2560	30.0700
 2.2600	29.5300
 2.2640	28.9600
 2.2680	28.5300
 2.2720	28.0500
 2.2760	27.6000
 2.2800	27.1000
 2.2840	26.5800
 2.2880	26.0400
 2.2920	25.5200
 2.2960	24.9000
 2.3000	24.3900
 2.3040	23.7800
 2.3080	23.4500
 2.3120	23.1000
 2.3160	22.7600
 2.3200	22.3000
 2.3240	21.9000
 2.3280	21.4300
 2.3320	20.9400
 2.3360	20.4700
 2.3400	20.1000
 2.3440	19.7900
 2.3480	19.7200
 2.3520	19.7400
 2.3560	19.9000
 2.3600	20.0200
 2.3640	20.2800
 2.3680	20.4800
 2.3720	20.6900
 2.3760	20.7900
 2.3800	20.8800
 2.3840	20.8800
 2.3880	20.7400
 2.3920	20.6900
 2.3960	20.6400
 2.4000	20.5100
 2.4040	20.3800
 2.4080	20.3300
 2.4120	20.3800
 2.4160	20.3100
 2.4200	20.3300
 2.4240	20.3400
 2.4280	20.3600
 2.4320	20.3000
 2.4360	20.3400
 2.4400	20.4400
 2.4440	20.4500
 2.4480	20.5200
 2.4520	20.5200
 2.4560	20.5700
 2.4600	20.6300
 2.4640	20.6800
 2.4680	20.7500
 2.4720	20.7500
 2.4760	20.7700
 2.4800	20.7800
 2.4840	20.8000
 2.4880	20.8500
 2.4920	20.8600
 2.4960	20.8700
 2.5000	20.9400
