Name: Fluorite CaF_2
Type: Mineral
Class: Halide
Subclass: None
Particle Size: Medium
Sample No.: H-2B
Owner: JPL
Wavelength Range: VSWIR
Origin: United Kingdom, England, Durham County, Weardal
Collection Date: N/A
Description: Particle size was 45-125um.Collected by Ward's Original ASTER Spectral Library name was jpl.beckman.mineral.halide.none.medium.h02b.spectrum.txt
Measurement: Hemispherical reflectance
First Column: X
Second Column: Y
X Units: Wavelength (micrometers)
Y Units:Reflectance (percent)
First X Value:  0.4000
Last X Value:  2.5000
Number of X Values: 826
Additional Information: mineral.halide.none.medium.vswir.h-2b.jpl.beckman.ancillary.txt

 0.4000	64.4700
 0.4010	64.4400
 0.4020	64.5400
 0.4030	64.5800
 0.4040	64.7400
 0.4050	64.6800
 0.4060	64.6800
 0.4070	64.7600
 0.4080	64.7900
 0.4090	64.9200
 0.4100	64.8400
 0.4110	64.8200
 0.4120	64.9500
 0.4130	64.7600
 0.4140	64.9000
 0.4150	65.0000
 0.4160	64.9900
 0.4170	64.9700
 0.4180	65.0200
 0.4190	65.1000
 0.4200	65.0600
 0.4210	65.0300
 0.4220	65.0300
 0.4230	65.0300
 0.4240	65.1500
 0.4250	65.2000
 0.4260	65.1900
 0.4270	65.2900
 0.4280	65.3700
 0.4290	65.4300
 0.4300	65.4700
 0.4310	65.4500
 0.4320	65.5600
 0.4330	65.5000
 0.4340	65.6800
 0.4350	65.7700
 0.4360	65.6900
 0.4370	65.7500
 0.4380	65.7700
 0.4390	65.8900
 0.4400	65.8700
 0.4410	65.8400
 0.4420	65.9100
 0.4430	65.9100
 0.4440	66.0200
 0.4450	66.0100
 0.4460	65.9800
 0.4470	66.0400
 0.4480	66.0700
 0.4490	66.1100
 0.4500	66.1700
 0.4510	66.1400
 0.4520	66.1600
 0.4530	66.1700
 0.4540	66.2600
 0.4550	66.3100
 0.4560	66.2400
 0.4570	66.2500
 0.4580	66.2500
 0.4590	66.3500
 0.4600	66.3800
 0.4610	66.3400
 0.4620	66.4300
 0.4630	66.3700
 0.4640	66.6300
 0.4650	66.5500
 0.4660	66.5300
 0.4670	66.5600
 0.4680	66.5400
 0.4690	66.6900
 0.4700	66.7000
 0.4710	66.6600
 0.4720	66.6700
 0.4730	66.5700
 0.4740	66.7300
 0.4750	66.7400
 0.4760	66.6500
 0.4770	66.7300
 0.4780	66.7100
 0.4790	66.8800
 0.4800	66.8600
 0.4810	66.8500
 0.4820	66.8600
 0.4830	66.6400
 0.4840	66.8700
 0.4850	66.8200
 0.4860	66.7100
 0.4870	66.6900
 0.4880	66.6700
 0.4890	66.7800
 0.4900	66.8000
 0.4910	66.7500
 0.4920	66.8000
 0.4930	66.7600
 0.4940	66.8100
 0.4950	66.7900
 0.4960	66.7400
 0.4970	66.8100
 0.4980	66.7400
 0.4990	66.8800
 0.5000	66.8900
 0.5010	66.8700
 0.5020	66.9900
 0.5030	66.8800
 0.5040	66.9600
 0.5050	66.9000
 0.5060	66.9600
 0.5070	67.0200
 0.5080	66.9600
 0.5090	67.0500
 0.5100	67.0800
 0.5110	67.0800
 0.5120	67.1000
 0.5130	67.0900
 0.5140	67.0500
 0.5150	67.1100
 0.5160	67.1100
 0.5170	67.1300
 0.5180	67.1000
 0.5190	67.1300
 0.5200	67.2000
 0.5210	67.1700
 0.5220	67.1800
 0.5230	67.1900
 0.5240	67.1300
 0.5250	67.2700
 0.5260	67.2800
 0.5270	67.3000
 0.5280	67.2600
 0.5290	67.2600
 0.5300	67.3300
 0.5310	67.3800
 0.5320	67.3100
 0.5330	67.3300
 0.5340	67.3300
 0.5350	67.3600
 0.5360	67.3900
 0.5370	67.3700
 0.5380	67.3300
 0.5390	67.2900
 0.5400	67.4500
 0.5410	67.4200
 0.5420	67.4800
 0.5430	67.3000
 0.5440	67.3800
 0.5450	67.4700
 0.5460	67.3600
 0.5470	67.4100
 0.5480	67.3400
 0.5490	67.3400
 0.5500	67.5300
 0.5510	67.5000
 0.5520	67.6200
 0.5530	67.5200
 0.5540	67.4900
 0.5550	67.6400
 0.5560	67.6100
 0.5570	67.6600
 0.5580	67.5600
 0.5590	67.4900
 0.5600	67.6300
 0.5610	67.8200
 0.5620	67.8900
 0.5630	67.8000
 0.5640	67.8800
 0.5650	67.8700
 0.5660	67.8100
 0.5670	67.8000
 0.5680	67.8200
 0.5690	67.8500
 0.5700	67.8400
 0.5710	67.7400
 0.5720	67.6900
 0.5730	67.6300
 0.5740	67.6900
 0.5750	67.7400
 0.5760	67.7700
 0.5770	67.7000
 0.5780	67.7900
 0.5790	67.8000
 0.5800	67.8400
 0.5810	67.7300
 0.5820	67.7000
 0.5830	67.7000
 0.5840	67.8300
 0.5850	67.8000
 0.5860	67.7800
 0.5870	67.8100
 0.5880	67.8000
 0.5890	67.8100
 0.5900	67.9600
 0.5910	67.9000
 0.5920	67.8900
 0.5930	67.8800
 0.5940	67.9100
 0.5950	67.9900
 0.5960	67.9300
 0.5970	67.8900
 0.5980	67.8700
 0.5990	68.0600
 0.6000	67.9700
 0.6010	68.0300
 0.6020	68.0900
 0.6030	68.0700
 0.6040	68.0800
 0.6050	68.1600
 0.6060	68.1400
 0.6070	68.1900
 0.6080	68.1000
 0.6090	68.1700
 0.6100	68.1200
 0.6110	68.2000
 0.6120	68.2900
 0.6130	68.2200
 0.6140	68.2900
 0.6150	68.2600
 0.6160	68.2200
 0.6170	68.2500
 0.6180	68.2400
 0.6190	68.2900
 0.6200	68.2200
 0.6210	68.2500
 0.6220	68.3500
 0.6230	68.3200
 0.6240	68.3800
 0.6250	68.3000
 0.6260	68.3000
 0.6270	68.4300
 0.6280	68.4600
 0.6290	68.4300
 0.6300	68.4600
 0.6310	68.4700
 0.6320	68.5800
 0.6330	68.5800
 0.6340	68.6100
 0.6350	68.6200
 0.6360	68.6500
 0.6370	68.6200
 0.6380	68.6600
 0.6390	68.6700
 0.6400	68.6600
 0.6410	68.6300
 0.6420	68.7100
 0.6430	68.8600
 0.6440	68.8300
 0.6450	68.8900
 0.6460	68.9200
 0.6470	68.8900
 0.6480	68.9700
 0.6490	68.8900
 0.6500	68.9700
 0.6510	68.9400
 0.6520	69.0000
 0.6530	69.1400
 0.6540	69.0100
 0.6550	69.1000
 0.6560	69.0600
 0.6570	69.1100
 0.6580	69.2100
 0.6590	69.1600
 0.6600	69.0900
 0.6610	69.1200
 0.6620	69.3200
 0.6630	69.3700
 0.6640	69.3400
 0.6650	69.3100
 0.6660	69.3200
 0.6670	69.4200
 0.6680	69.4900
 0.6690	69.4900
 0.6700	69.4300
 0.6710	69.3800
 0.6720	69.4400
 0.6730	69.5300
 0.6740	69.3800
 0.6750	69.3800
 0.6760	69.4400
 0.6770	69.5000
 0.6780	69.4800
 0.6790	69.4400
 0.6800	69.4100
 0.6810	69.4100
 0.6820	69.5300
 0.6830	69.5100
 0.6840	69.4200
 0.6850	69.5300
 0.6860	69.5000
 0.6870	69.5600
 0.6880	69.6400
 0.6890	69.5400
 0.6900	69.6100
 0.6910	69.5000
 0.6920	69.5300
 0.6930	69.6100
 0.6940	69.6400
 0.6950	69.6400
 0.6960	69.6000
 0.6970	69.7700
 0.6980	69.8300
 0.6990	69.7500
 0.7000	69.6700
 0.7010	69.7000
 0.7020	69.7700
 0.7030	69.8200
 0.7040	69.8000
 0.7050	69.7900
 0.7060	69.9100
 0.7070	69.7700
 0.7080	69.8600
 0.7090	69.9500
 0.7100	69.7400
 0.7110	69.8800
 0.7120	69.9600
 0.7130	69.9600
 0.7140	69.9500
 0.7150	69.8500
 0.7160	69.9900
 0.7170	69.9100
 0.7180	70.0500
 0.7190	70.0400
 0.7200	69.9500
 0.7210	70.0100
 0.7220	70.0400
 0.7230	70.1200
 0.7240	70.0400
 0.7250	69.9300
 0.7260	70.0600
 0.7270	70.0700
 0.7280	70.1500
 0.7290	70.1200
 0.7300	70.0200
 0.7310	70.0600
 0.7320	70.0200
 0.7330	70.1100
 0.7340	70.1800
 0.7350	70.0800
 0.7360	70.2400
 0.7370	70.0200
 0.7380	70.1200
 0.7390	70.0500
 0.7400	70.0100
 0.7410	70.1400
 0.7420	70.1400
 0.7430	70.1700
 0.7440	70.2000
 0.7450	70.1400
 0.7460	70.2700
 0.7470	70.1700
 0.7480	70.2100
 0.7490	70.3000
 0.7500	70.1800
 0.7510	70.2800
 0.7520	70.2800
 0.7530	70.2700
 0.7540	70.2500
 0.7550	70.2400
 0.7560	70.3700
 0.7570	70.3300
 0.7580	70.3500
 0.7590	70.3300
 0.7600	70.2400
 0.7610	70.3000
 0.7620	70.3700
 0.7630	70.3300
 0.7640	70.3400
 0.7650	70.3100
 0.7660	70.3700
 0.7670	70.3500
 0.7680	70.3400
 0.7690	70.3700
 0.7700	70.3100
 0.7710	70.3400
 0.7720	70.3100
 0.7730	70.4600
 0.7740	70.4100
 0.7750	70.2400
 0.7760	70.3100
 0.7770	70.3700
 0.7780	70.4200
 0.7790	70.4100
 0.7800	70.4000
 0.7810	70.4600
 0.7820	70.4300
 0.7830	70.4900
 0.7840	70.4500
 0.7850	70.3800
 0.7860	70.4800
 0.7870	70.3600
 0.7880	70.4200
 0.7890	70.5200
 0.7900	70.4300
 0.7910	70.5200
 0.7920	70.5500
 0.7930	70.5300
 0.7940	70.6300
 0.7950	70.5000
 0.7960	70.5300
 0.7970	70.4900
 0.7980	70.5800
 0.7990	70.5600
 0.8000	70.9600
 0.8040	71.0100
 0.8080	70.9500
 0.8120	70.9200
 0.8160	71.0200
 0.8200	71.0700
 0.8240	70.9500
 0.8280	71.0500
 0.8320	70.9500
 0.8360	71.0000
 0.8400	71.0400
 0.8440	71.0700
 0.8480	71.0100
 0.8520	71.0900
 0.8560	71.0900
 0.8600	71.1600
 0.8640	71.1800
 0.8680	71.1900
 0.8720	71.1600
 0.8760	71.1500
 0.8800	71.0700
 0.8840	71.1000
 0.8880	71.1300
 0.8920	71.1300
 0.8960	71.1200
 0.9000	71.1500
 0.9040	71.0700
 0.9080	71.1000
 0.9120	71.1300
 0.9160	71.1200
 0.9200	71.1000
 0.9240	71.0600
 0.9280	71.1200
 0.9320	71.0900
 0.9360	71.0900
 0.9400	71.0600
 0.9440	70.9800
 0.9480	71.1300
 0.9520	71.1300
 0.9560	71.1500
 0.9600	71.1200
 0.9640	71.2200
 0.9680	71.1800
 0.9720	71.1900
 0.9760	71.2500
 0.9800	71.1600
 0.9840	71.1600
 0.9880	71.2200
 0.9920	71.1000
 0.9960	71.0800
 1.0000	71.1200
 1.0040	71.1900
 1.0080	71.1200
 1.0120	71.0400
 1.0160	71.1100
 1.0200	71.1200
 1.0240	71.1500
 1.0280	71.1300
 1.0320	71.1300
 1.0360	71.1600
 1.0400	71.2400
 1.0440	71.3000
 1.0480	71.2300
 1.0520	71.2600
 1.0560	71.2800
 1.0600	71.1600
 1.0640	71.1200
 1.0680	71.1900
 1.0720	71.1600
 1.0760	71.1300
 1.0800	71.1200
 1.0840	71.1500
 1.0880	71.1900
 1.0920	71.1500
 1.0960	71.1500
 1.1000	71.1000
 1.1040	71.1800
 1.1080	71.2800
 1.1120	71.1800
 1.1160	71.2400
 1.1200	71.3100
 1.1240	71.3100
 1.1280	71.3200
 1.1320	71.3000
 1.1360	71.2000
 1.1400	71.2700
 1.1440	71.1300
 1.1480	71.1800
 1.1520	71.1200
 1.1560	71.1200
 1.1600	71.1400
 1.1640	71.1300
 1.1680	71.0200
 1.1720	71.0500
 1.1760	71.1200
 1.1800	71.1900
 1.1840	71.1500
 1.1880	71.1600
 1.1920	71.1100
 1.1960	71.1300
 1.2000	71.1500
 1.2040	71.1100
 1.2080	71.0800
 1.2120	71.0000
 1.2160	71.0600
 1.2200	70.9700
 1.2240	70.9800
 1.2280	71.0400
 1.2320	71.0400
 1.2360	71.0700
 1.2400	71.0200
 1.2440	71.0500
 1.2480	71.1400
 1.2520	71.0900
 1.2560	71.0800
 1.2600	70.9800
 1.2640	71.1100
 1.2680	71.0600
 1.2720	71.0200
 1.2760	71.0300
 1.2800	71.0200
 1.2840	71.1100
 1.2880	71.0000
 1.2920	70.9700
 1.2960	70.9500
 1.3000	70.8800
 1.3040	70.9700
 1.3080	70.9300
 1.3120	70.8500
 1.3160	70.9400
 1.3200	70.8600
 1.3240	70.8500
 1.3280	70.8000
 1.3320	70.8200
 1.3360	70.7700
 1.3400	70.7800
 1.3440	70.8500
 1.3480	70.8000
 1.3520	70.8500
 1.3560	70.8300
 1.3600	70.8400
 1.3640	70.7400
 1.3680	70.7900
 1.3720	70.8000
 1.3760	70.7200
 1.3800	70.6200
 1.3840	70.6900
 1.3880	70.6900
 1.3920	70.4700
 1.3960	70.4200
 1.4000	70.3400
 1.4040	70.2900
 1.4080	70.2100
 1.4120	70.1400
 1.4160	70.0800
 1.4200	70.0500
 1.4240	70.0900
 1.4280	70.0500
 1.4320	70.0200
 1.4360	70.0500
 1.4400	70.0600
 1.4440	70.1200
 1.4480	70.0700
 1.4520	70.1000
 1.4560	70.0500
 1.4600	70.1300
 1.4640	70.1200
 1.4680	70.2600
 1.4720	70.1800
 1.4760	70.2600
 1.4800	70.2500
 1.4840	70.3300
 1.4880	70.3600
 1.4920	70.4100
 1.4960	70.4700
 1.5000	70.5400
 1.5040	70.5400
 1.5080	70.5800
 1.5120	70.5800
 1.5160	70.6300
 1.5200	70.6400
 1.5240	70.7000
 1.5280	70.8000
 1.5320	70.7900
 1.5360	70.8200
 1.5400	70.8000
 1.5440	70.8200
 1.5480	70.8500
 1.5520	70.8700
 1.5560	70.9000
 1.5600	70.9000
 1.5640	70.9200
 1.5680	70.9300
 1.5720	70.8900
 1.5760	70.9200
 1.5800	70.9200
 1.5840	70.9300
 1.5880	70.8900
 1.5920	70.9000
 1.5960	70.9500
 1.6000	70.9500
 1.6040	70.9100
 1.6080	70.9100
 1.6120	70.9600
 1.6160	70.9500
 1.6200	71.0000
 1.6240	70.9800
 1.6280	70.9400
 1.6320	71.0600
 1.6360	71.0400
 1.6400	71.0500
 1.6440	71.0500
 1.6480	71.0800
 1.6520	71.0800
 1.6560	71.0500
 1.6600	71.1300
 1.6640	71.1800
 1.6680	71.1200
 1.6720	71.1700
 1.6760	71.1700
 1.6800	71.2600
 1.6840	71.1900
 1.6880	71.1500
 1.6920	71.2100
 1.6960	71.2700
 1.7000	71.2100
 1.7040	71.2100
 1.7080	71.3000
 1.7120	71.2000
 1.7160	71.2300
 1.7200	71.2000
 1.7240	71.2100
 1.7280	71.1100
 1.7320	71.1400
 1.7360	71.1200
 1.7400	71.1700
 1.7440	71.0400
 1.7480	71.0100
 1.7520	71.0700
 1.7560	71.0800
 1.7600	71.0700
 1.7640	71.0100
 1.7680	71.0700
 1.7720	71.0300
 1.7760	71.0400
 1.7800	71.0600
 1.7840	71.0400
 1.7880	70.9100
 1.7920	71.0500
 1.7960	71.0000
 1.8000	71.0300
 1.8040	70.9800
 1.8080	70.9600
 1.8120	70.9100
 1.8160	70.9300
 1.8200	70.9300
 1.8240	70.9400
 1.8280	70.9800
 1.8320	70.8800
 1.8360	70.7900
 1.8400	70.8200
 1.8440	70.8500
 1.8480	70.8600
 1.8520	70.8100
 1.8560	70.6800
 1.8600	70.6800
 1.8640	70.5600
 1.8680	70.5200
 1.8720	70.3400
 1.8760	70.2400
 1.8800	69.9100
 1.8840	69.6500
 1.8880	69.3900
 1.8920	69.0000
 1.8960	68.6700
 1.9000	68.3200
 1.9040	67.9900
 1.9080	67.7600
 1.9120	67.5500
 1.9160	67.3900
 1.9200	67.2500
 1.9240	67.1700
 1.9280	67.1600
 1.9320	67.2000
 1.9360	67.1400
 1.9400	67.2300
 1.9440	67.3300
 1.9480	67.3800
 1.9520	67.5300
 1.9560	67.5500
 1.9600	67.7400
 1.9640	67.8600
 1.9680	67.9900
 1.9720	68.1300
 1.9760	68.3300
 1.9800	68.4600
 1.9840	68.6100
 1.9880	68.8100
 1.9920	68.9500
 1.9960	69.1200
 2.0000	69.3300
 2.0040	69.4200
 2.0080	69.5900
 2.0120	69.7300
 2.0160	69.8800
 2.0200	70.0300
 2.0240	70.0700
 2.0280	70.1700
 2.0320	70.2500
 2.0360	70.3400
 2.0400	70.3900
 2.0440	70.4500
 2.0480	70.4600
 2.0520	70.5100
 2.0560	70.5400
 2.0600	70.6200
 2.0640	70.6500
 2.0680	70.6400
 2.0720	70.7700
 2.0760	70.7500
 2.0800	70.8600
 2.0840	70.8400
 2.0880	70.8600
 2.0920	70.9600
 2.0960	70.9700
 2.1000	71.0600
 2.1040	71.1200
 2.1080	71.2400
 2.1120	71.2400
 2.1160	71.4000
 2.1200	71.3900
 2.1240	71.4200
 2.1280	71.4400
 2.1320	71.4300
 2.1360	71.3100
 2.1400	71.3400
 2.1440	71.3700
 2.1480	71.3500
 2.1520	71.1900
 2.1560	71.2400
 2.1600	71.1800
 2.1640	71.1300
 2.1680	71.1300
 2.1720	71.0700
 2.1760	71.0200
 2.1800	71.0500
 2.1840	71.0200
 2.1880	71.0500
 2.1920	70.9800
 2.1960	70.8900
 2.2000	70.9900
 2.2040	70.9000
 2.2080	70.9100
 2.2120	70.8600
 2.2160	70.8700
 2.2200	70.9400
 2.2240	70.9500
 2.2280	71.0400
 2.2320	71.0300
 2.2360	71.0700
 2.2400	71.0400
 2.2440	71.0100
 2.2480	71.0700
 2.2520	71.1300
 2.2560	71.1600
 2.2600	71.0600
 2.2640	71.0900
 2.2680	71.1200
 2.2720	71.0700
 2.2760	71.0600
 2.2800	71.0500
 2.2840	71.0900
 2.2880	71.0700
 2.2920	71.0500
 2.2960	71.0800
 2.3000	71.0600
 2.3040	71.0400
 2.3080	71.0700
 2.3120	71.1400
 2.3160	71.1300
 2.3200	71.1000
 2.3240	71.1300
 2.3280	71.1300
 2.3320	71.1900
 2.3360	71.1600
 2.3400	71.0900
 2.3440	71.0200
 2.3480	71.1200
 2.3520	70.9800
 2.3560	70.8800
 2.3600	70.8300
 2.3640	70.8900
 2.3680	70.8700
 2.3720	70.7900
 2.3760	70.6700
 2.3800	70.7200
 2.3840	70.6000
 2.3880	70.5300
 2.3920	70.5100
 2.3960	70.4600
 2.4000	70.4600
 2.4040	70.4400
 2.4080	70.4700
 2.4120	70.4300
 2.4160	70.3700
 2.4200	70.4100
 2.4240	70.2400
 2.4280	70.1900
 2.4320	70.1400
 2.4360	70.1100
 2.4400	69.9400
 2.4440	69.8600
 2.4480	69.8400
 2.4520	69.7300
 2.4560	69.7400
 2.4600	69.5900
 2.4640	69.5500
 2.4680	69.5400
 2.4720	69.3600
 2.4760	69.3800
 2.4800	69.5200
 2.4840	69.5400
 2.4880	69.6100
 2.4920	69.6100
 2.4960	69.7300
 2.5000	69.8400
