Name: Sodalite Na_8Al_6Si_6O_24Cl_2
Type: Mineral
Class: Silicate
Subclass: Tectosilicate
Particle Size: Medium
Sample No.: TS-10A
Owner: JPL
Wavelength Range: VSWIR
Origin: Canada, Ontario, Hastings County, Bancroft
Collection Date: N/A
Description: Particle size was 45-125um.Collected by JPL Original ASTER Spectral Library name was jpl.beckman.mineral.silicate.tectosilicate.medium.ts10a.spectrum.txt
Measurement: Hemispherical reflectance
First Column: X
Second Column: Y
X Units: Wavelength (micrometers)
Y Units:Reflectance (percent)
First X Value:  0.4000
Last X Value:  2.5000
Number of X Values: 826
Additional Information: mineral.silicate.tectosilicate.medium.vswir.ts-10a.jpl.beckman.ancillary.txt

 0.4000	48.6600
 0.4010	48.8600
 0.4020	49.0300
 0.4030	49.0900
 0.4040	49.2100
 0.4050	49.2100
 0.4060	49.3000
 0.4070	49.3900
 0.4080	49.5400
 0.4090	49.6600
 0.4100	49.6000
 0.4110	49.7200
 0.4120	49.8100
 0.4130	49.7900
 0.4140	49.7500
 0.4150	49.9300
 0.4160	49.9900
 0.4170	49.9900
 0.4180	50.0200
 0.4190	50.0900
 0.4200	50.0900
 0.4210	50.1100
 0.4220	50.0500
 0.4230	50.1100
 0.4240	50.1700
 0.4250	50.2300
 0.4260	50.1300
 0.4270	50.2200
 0.4280	50.2500
 0.4290	50.1300
 0.4300	50.1000
 0.4310	50.2000
 0.4320	50.3300
 0.4330	50.2000
 0.4340	50.1700
 0.4350	50.3000
 0.4360	50.2500
 0.4370	50.1700
 0.4380	50.0500
 0.4390	50.1000
 0.4400	50.1000
 0.4410	49.9600
 0.4420	49.9900
 0.4430	49.9600
 0.4440	50.0200
 0.4450	49.9600
 0.4460	49.7700
 0.4470	49.8600
 0.4480	49.8000
 0.4490	49.8200
 0.4500	49.6400
 0.4510	49.6200
 0.4520	49.5000
 0.4530	49.4100
 0.4540	49.3000
 0.4550	49.2600
 0.4560	49.3100
 0.4570	49.1900
 0.4580	48.9500
 0.4590	49.1500
 0.4600	49.0900
 0.4610	48.7400
 0.4620	48.8300
 0.4630	48.7400
 0.4640	48.5300
 0.4650	48.4700
 0.4660	48.4400
 0.4670	48.2600
 0.4680	48.2100
 0.4690	48.0900
 0.4700	48.0900
 0.4710	47.8800
 0.4720	47.7000
 0.4730	47.6800
 0.4740	47.6200
 0.4750	47.5000
 0.4760	47.3200
 0.4770	47.3500
 0.4780	47.2700
 0.4790	47.0600
 0.4800	46.9700
 0.4810	46.9100
 0.4820	46.8200
 0.4830	46.7000
 0.4840	46.5900
 0.4850	46.4500
 0.4860	46.4500
 0.4870	46.3300
 0.4880	46.1500
 0.4890	46.1500
 0.4900	46.0100
 0.4910	45.8600
 0.4920	45.6400
 0.4930	45.7300
 0.4940	45.6700
 0.4950	45.4100
 0.4960	45.3800
 0.4970	45.3300
 0.4980	45.2500
 0.4990	45.0800
 0.5000	45.0800
 0.5010	44.9900
 0.5020	44.8800
 0.5030	44.7600
 0.5040	44.7100
 0.5050	44.5900
 0.5060	44.4100
 0.5070	44.2700
 0.5080	44.1500
 0.5090	44.1800
 0.5100	44.0900
 0.5110	43.8900
 0.5120	43.9400
 0.5130	43.8400
 0.5140	43.6700
 0.5150	43.5900
 0.5160	43.5800
 0.5170	43.4300
 0.5180	43.2500
 0.5190	43.2200
 0.5200	43.2900
 0.5210	43.1100
 0.5220	42.9600
 0.5230	42.9000
 0.5240	42.7800
 0.5250	42.7000
 0.5260	42.5900
 0.5270	42.5100
 0.5280	42.4300
 0.5290	42.3100
 0.5300	42.0900
 0.5310	42.0500
 0.5320	42.0700
 0.5330	42.0000
 0.5340	41.7400
 0.5350	41.8300
 0.5360	41.6700
 0.5370	41.5700
 0.5380	41.4500
 0.5390	41.5000
 0.5400	41.3800
 0.5410	41.2400
 0.5420	41.1600
 0.5430	41.0500
 0.5440	41.0900
 0.5450	41.1000
 0.5460	40.9600
 0.5470	40.7700
 0.5480	40.8400
 0.5490	40.7900
 0.5500	40.7200
 0.5510	40.6700
 0.5520	40.6400
 0.5530	40.4400
 0.5540	40.3900
 0.5550	40.4400
 0.5560	40.4100
 0.5570	40.3000
 0.5580	40.3500
 0.5590	40.2600
 0.5600	40.2700
 0.5610	40.3000
 0.5620	40.3900
 0.5630	40.2300
 0.5640	40.1200
 0.5650	40.1200
 0.5660	40.0900
 0.5670	39.9500
 0.5680	39.8200
 0.5690	39.8400
 0.5700	39.7400
 0.5710	39.6500
 0.5720	39.4100
 0.5730	39.3200
 0.5740	39.4400
 0.5750	39.2400
 0.5760	39.1400
 0.5770	39.1700
 0.5780	39.1400
 0.5790	39.1800
 0.5800	38.9300
 0.5810	38.8900
 0.5820	38.9700
 0.5830	38.8500
 0.5840	38.8000
 0.5850	38.7700
 0.5860	38.7400
 0.5870	38.8400
 0.5880	38.7200
 0.5890	38.6800
 0.5900	38.7700
 0.5910	38.7400
 0.5920	38.7500
 0.5930	38.6400
 0.5940	38.6300
 0.5950	38.7100
 0.5960	38.6800
 0.5970	38.5800
 0.5980	38.6400
 0.5990	38.6900
 0.6000	38.6300
 0.6010	38.7000
 0.6020	38.8200
 0.6030	38.8500
 0.6040	38.9600
 0.6050	38.9100
 0.6060	38.9300
 0.6070	39.1800
 0.6080	39.0700
 0.6090	39.0600
 0.6100	39.1400
 0.6110	39.1500
 0.6120	39.2300
 0.6130	39.3300
 0.6140	39.3500
 0.6150	39.5000
 0.6160	39.5600
 0.6170	39.5800
 0.6180	39.4700
 0.6190	39.6600
 0.6200	39.6100
 0.6210	39.7100
 0.6220	39.7400
 0.6230	39.7100
 0.6240	39.8200
 0.6250	39.7600
 0.6260	39.7900
 0.6270	39.9000
 0.6280	39.9900
 0.6290	39.9900
 0.6300	39.9500
 0.6310	40.0900
 0.6320	40.0600
 0.6330	40.1600
 0.6340	40.1000
 0.6350	40.1100
 0.6360	40.2500
 0.6370	40.1600
 0.6380	40.1600
 0.6390	40.3300
 0.6400	40.3400
 0.6410	40.3400
 0.6420	40.3000
 0.6430	40.4900
 0.6440	40.4700
 0.6450	40.4900
 0.6460	40.5700
 0.6470	40.6100
 0.6480	40.6200
 0.6490	40.7200
 0.6500	40.6600
 0.6510	40.8500
 0.6520	40.9900
 0.6530	40.9000
 0.6540	41.0100
 0.6550	41.1900
 0.6560	41.2500
 0.6570	41.2300
 0.6580	41.3200
 0.6590	41.4900
 0.6600	41.5200
 0.6610	41.6400
 0.6620	41.7600
 0.6630	41.9600
 0.6640	42.0800
 0.6650	42.0600
 0.6660	42.1200
 0.6670	42.3400
 0.6680	42.4300
 0.6690	42.5600
 0.6700	42.7300
 0.6710	42.8200
 0.6720	42.9500
 0.6730	43.1100
 0.6740	43.3600
 0.6750	43.5400
 0.6760	43.7400
 0.6770	43.8500
 0.6780	44.0700
 0.6790	44.4200
 0.6800	44.4800
 0.6810	44.6000
 0.6820	44.9200
 0.6830	45.0600
 0.6840	45.3200
 0.6850	45.6000
 0.6860	45.7800
 0.6870	46.1200
 0.6880	46.4700
 0.6890	46.5900
 0.6900	46.8500
 0.6910	47.2700
 0.6920	47.4400
 0.6930	47.7300
 0.6940	48.0200
 0.6950	48.3400
 0.6960	48.7500
 0.6970	49.0300
 0.6980	49.2700
 0.6990	49.5100
 0.7000	49.8200
 0.7010	49.8200
 0.7020	50.6400
 0.7030	51.1800
 0.7040	51.5600
 0.7050	51.8500
 0.7060	52.2700
 0.7070	52.7500
 0.7080	53.0500
 0.7090	53.3500
 0.7100	53.8000
 0.7110	54.1100
 0.7120	54.5400
 0.7130	54.9500
 0.7140	55.2600
 0.7150	55.6900
 0.7160	56.1100
 0.7170	56.2500
 0.7180	56.5800
 0.7190	57.0400
 0.7200	57.3900
 0.7210	57.5800
 0.7220	57.9900
 0.7230	58.4000
 0.7240	58.6700
 0.7250	58.9900
 0.7260	59.2200
 0.7270	59.5700
 0.7280	59.8000
 0.7290	60.0100
 0.7300	60.3200
 0.7310	60.6300
 0.7320	60.8800
 0.7330	61.0200
 0.7340	61.3100
 0.7350	61.5400
 0.7360	61.7300
 0.7370	62.0200
 0.7380	62.2200
 0.7390	62.4400
 0.7400	62.6300
 0.7410	62.7300
 0.7420	62.8800
 0.7430	63.1100
 0.7440	63.3400
 0.7450	63.3800
 0.7460	63.6500
 0.7470	63.8700
 0.7480	63.9300
 0.7490	64.1600
 0.7500	64.1800
 0.7510	64.4100
 0.7520	64.6000
 0.7530	64.5400
 0.7540	64.6900
 0.7550	64.8900
 0.7560	64.9700
 0.7570	64.8900
 0.7580	65.1000
 0.7590	65.2000
 0.7600	65.3900
 0.7610	65.3500
 0.7620	65.4900
 0.7630	65.7400
 0.7640	65.7700
 0.7650	65.7600
 0.7660	65.8700
 0.7670	65.9600
 0.7680	66.0400
 0.7690	66.0100
 0.7700	66.1300
 0.7710	66.2600
 0.7720	66.4600
 0.7730	66.4200
 0.7740	66.4600
 0.7750	66.6500
 0.7760	66.6500
 0.7770	66.6000
 0.7780	66.7300
 0.7790	66.8200
 0.7800	66.9700
 0.7810	66.8400
 0.7820	66.9000
 0.7830	66.9400
 0.7840	67.0000
 0.7850	67.0300
 0.7860	67.1000
 0.7870	67.1900
 0.7880	67.2200
 0.7890	67.1800
 0.7900	67.1900
 0.7910	67.3700
 0.7920	67.4000
 0.7930	67.2600
 0.7940	67.3500
 0.7950	67.4700
 0.7960	67.3700
 0.7970	67.4500
 0.7980	67.4700
 0.7990	67.5400
 0.8000	67.8400
 0.8040	67.9300
 0.8080	68.0600
 0.8120	68.1800
 0.8160	68.1700
 0.8200	68.2200
 0.8240	68.2600
 0.8280	68.3500
 0.8320	68.3100
 0.8360	68.3900
 0.8400	68.3600
 0.8440	68.3600
 0.8480	68.3700
 0.8520	68.3800
 0.8560	68.4800
 0.8600	68.4700
 0.8640	68.5000
 0.8680	68.4600
 0.8720	68.4700
 0.8760	68.5000
 0.8800	68.4700
 0.8840	68.3900
 0.8880	68.4000
 0.8920	68.4000
 0.8960	68.4100
 0.9000	68.4400
 0.9040	68.3300
 0.9080	68.2800
 0.9120	68.3100
 0.9160	68.2900
 0.9200	68.2600
 0.9240	68.2200
 0.9280	68.1800
 0.9320	68.2900
 0.9360	68.1900
 0.9400	68.1600
 0.9440	68.1700
 0.9480	68.0000
 0.9520	68.0500
 0.9560	67.9900
 0.9600	67.9900
 0.9640	67.8700
 0.9680	67.8400
 0.9720	67.7300
 0.9760	67.7100
 0.9800	67.7000
 0.9840	67.5300
 0.9880	67.5700
 0.9920	67.4500
 0.9960	67.4800
 1.0000	67.4700
 1.0040	67.3700
 1.0080	67.3000
 1.0120	67.2200
 1.0160	67.1200
 1.0200	67.0800
 1.0240	67.0700
 1.0280	67.0100
 1.0320	67.0200
 1.0360	66.9600
 1.0400	66.9600
 1.0440	67.0000
 1.0480	66.9600
 1.0520	66.9700
 1.0560	66.8900
 1.0600	66.8900
 1.0640	66.9500
 1.0680	66.8900
 1.0720	66.8600
 1.0760	66.9800
 1.0800	66.9700
 1.0840	66.9900
 1.0880	67.0300
 1.0920	67.0200
 1.0960	67.0600
 1.1000	67.1300
 1.1040	67.1400
 1.1080	67.1900
 1.1120	67.2400
 1.1160	67.2900
 1.1200	67.3100
 1.1240	67.5200
 1.1280	67.5000
 1.1320	67.6300
 1.1360	67.5400
 1.1400	67.6500
 1.1440	67.7300
 1.1480	67.8000
 1.1520	67.9000
 1.1560	67.8200
 1.1600	67.9100
 1.1640	68.0800
 1.1680	68.1500
 1.1720	68.2700
 1.1760	68.3000
 1.1800	68.4900
 1.1840	68.5300
 1.1880	68.5200
 1.1920	68.6800
 1.1960	68.6900
 1.2000	68.8200
 1.2040	69.0200
 1.2080	68.9700
 1.2120	69.0400
 1.2160	69.1100
 1.2200	69.2100
 1.2240	69.2500
 1.2280	69.4100
 1.2320	69.4200
 1.2360	69.4100
 1.2400	69.5800
 1.2440	69.6000
 1.2480	69.7000
 1.2520	69.7300
 1.2560	69.7000
 1.2600	69.6700
 1.2640	69.8600
 1.2680	69.8300
 1.2720	69.9000
 1.2760	69.9100
 1.2800	70.0600
 1.2840	70.1100
 1.2880	70.1300
 1.2920	70.2100
 1.2960	70.2200
 1.3000	70.1600
 1.3040	70.2700
 1.3080	70.3000
 1.3120	70.3700
 1.3160	70.4300
 1.3200	70.4100
 1.3240	70.4800
 1.3280	70.4100
 1.3320	70.3900
 1.3360	70.4800
 1.3400	70.4200
 1.3440	70.5200
 1.3480	70.5900
 1.3520	70.5700
 1.3560	70.5400
 1.3600	70.5500
 1.3640	70.6300
 1.3680	70.5800
 1.3720	70.6200
 1.3760	70.5300
 1.3800	70.4800
 1.3840	70.4200
 1.3880	70.5100
 1.3920	70.3700
 1.3960	70.3400
 1.4000	70.3100
 1.4040	70.2300
 1.4080	70.2400
 1.4120	70.1900
 1.4160	70.1700
 1.4200	70.2300
 1.4240	70.3100
 1.4280	70.3500
 1.4320	70.4200
 1.4360	70.4100
 1.4400	70.4700
 1.4440	70.5900
 1.4480	70.6300
 1.4520	70.7000
 1.4560	70.7700
 1.4600	70.9200
 1.4640	71.0500
 1.4680	71.0600
 1.4720	71.1500
 1.4760	71.1500
 1.4800	71.3100
 1.4840	71.3200
 1.4880	71.3000
 1.4920	71.4200
 1.4960	71.4900
 1.5000	71.5200
 1.5040	71.7100
 1.5080	71.7700
 1.5120	71.8000
 1.5160	71.8100
 1.5200	71.9500
 1.5240	71.9900
 1.5280	72.0700
 1.5320	72.1100
 1.5360	72.1900
 1.5400	72.2300
 1.5440	72.4000
 1.5480	72.4800
 1.5520	72.4700
 1.5560	72.5300
 1.5600	72.6600
 1.5640	72.7500
 1.5680	72.7200
 1.5720	72.8300
 1.5760	72.8700
 1.5800	72.8900
 1.5840	72.9600
 1.5880	73.0100
 1.5920	73.0700
 1.5960	73.1800
 1.6000	73.1800
 1.6040	73.2700
 1.6080	73.3200
 1.6120	73.3900
 1.6160	73.4700
 1.6200	73.5600
 1.6240	73.6200
 1.6280	73.7600
 1.6320	73.8100
 1.6360	73.8800
 1.6400	73.9400
 1.6440	74.0000
 1.6480	74.1100
 1.6520	74.1900
 1.6560	74.2300
 1.6600	74.2700
 1.6640	74.3100
 1.6680	74.3800
 1.6720	74.4700
 1.6760	74.5100
 1.6800	74.5700
 1.6840	74.6300
 1.6880	74.7200
 1.6920	74.7200
 1.6960	74.7500
 1.7000	74.7800
 1.7040	74.9100
 1.7080	74.9100
 1.7120	74.9600
 1.7160	74.9900
 1.7200	75.0100
 1.7240	74.9800
 1.7280	75.0300
 1.7320	74.9800
 1.7360	75.0300
 1.7400	75.0800
 1.7440	75.1000
 1.7480	75.1800
 1.7520	75.2200
 1.7560	75.2300
 1.7600	75.3000
 1.7640	75.2900
 1.7680	75.3400
 1.7720	75.2400
 1.7760	75.4000
 1.7800	75.4300
 1.7840	75.4900
 1.7880	75.5200
 1.7920	75.5500
 1.7960	75.5100
 1.8000	75.6800
 1.8040	75.5800
 1.8080	75.6000
 1.8120	75.6400
 1.8160	75.6600
 1.8200	75.6900
 1.8240	75.6400
 1.8280	75.6700
 1.8320	75.6200
 1.8360	75.6700
 1.8400	75.6500
 1.8440	75.5400
 1.8480	75.5900
 1.8520	75.5300
 1.8560	75.4900
 1.8600	75.4900
 1.8640	75.4800
 1.8680	75.3600
 1.8720	75.2600
 1.8760	75.1200
 1.8800	75.1400
 1.8840	74.9500
 1.8880	74.7900
 1.8920	74.4700
 1.8960	74.2000
 1.9000	73.9300
 1.9040	73.5900
 1.9080	73.2900
 1.9120	73.2700
 1.9160	73.2000
 1.9200	73.2200
 1.9240	73.2900
 1.9280	73.3700
 1.9320	73.3800
 1.9360	73.5300
 1.9400	73.6300
 1.9440	73.7600
 1.9480	73.8000
 1.9520	73.8900
 1.9560	73.9800
 1.9600	74.0400
 1.9640	74.1900
 1.9680	74.2900
 1.9720	74.3300
 1.9760	74.4000
 1.9800	74.4200
 1.9840	74.5900
 1.9880	74.7400
 1.9920	74.7200
 1.9960	74.9400
 2.0000	75.0200
 2.0040	75.0400
 2.0080	75.1700
 2.0120	75.1700
 2.0160	75.3400
 2.0200	75.4800
 2.0240	75.5400
 2.0280	75.5300
 2.0320	75.6300
 2.0360	75.6800
 2.0400	75.8000
 2.0440	75.7100
 2.0480	75.8000
 2.0520	75.8600
 2.0560	75.8400
 2.0600	75.9000
 2.0640	75.9500
 2.0680	75.9600
 2.0720	75.9700
 2.0760	76.0700
 2.0800	76.0100
 2.0840	76.0400
 2.0880	76.0500
 2.0920	76.1500
 2.0960	76.0900
 2.1000	76.0400
 2.1040	76.1300
 2.1080	76.0900
 2.1120	75.9800
 2.1160	75.9700
 2.1200	76.0400
 2.1240	75.9500
 2.1280	75.9200
 2.1320	75.8800
 2.1360	75.8200
 2.1400	75.7400
 2.1440	75.6800
 2.1480	75.7100
 2.1520	75.6100
 2.1560	75.5300
 2.1600	75.4200
 2.1640	75.4500
 2.1680	75.3500
 2.1720	75.4000
 2.1760	75.3400
 2.1800	75.3800
 2.1840	75.2700
 2.1880	75.2700
 2.1920	75.1600
 2.1960	75.1800
 2.2000	75.1300
 2.2040	74.9900
 2.2080	75.0100
 2.2120	74.9300
 2.2160	74.9400
 2.2200	74.9100
 2.2240	74.8100
 2.2280	74.7200
 2.2320	74.6100
 2.2360	74.4500
 2.2400	74.3900
 2.2440	74.2800
 2.2480	74.0200
 2.2520	73.9700
 2.2560	73.7100
 2.2600	73.5700
 2.2640	73.4100
 2.2680	73.4000
 2.2720	73.1800
 2.2760	73.1000
 2.2800	72.8500
 2.2840	72.7300
 2.2880	72.5200
 2.2920	72.3000
 2.2960	72.1300
 2.3000	71.8900
 2.3040	71.7200
 2.3080	71.4400
 2.3120	71.2400
 2.3160	71.0600
 2.3200	71.0600
 2.3240	70.9600
 2.3280	70.8200
 2.3320	70.8400
 2.3360	70.9100
 2.3400	70.9000
 2.3440	71.0900
 2.3480	71.3400
 2.3520	71.6900
 2.3560	71.8600
 2.3600	72.0700
 2.3640	72.2700
 2.3680	72.5000
 2.3720	72.6800
 2.3760	72.7700
 2.3800	72.9200
 2.3840	72.9700
 2.3880	73.0800
 2.3920	73.0700
 2.3960	73.0500
 2.4000	73.0100
 2.4040	72.8800
 2.4080	72.8700
 2.4120	72.7400
 2.4160	72.6600
 2.4200	72.5500
 2.4240	72.3800
 2.4280	72.1000
 2.4320	71.9500
 2.4360	71.7300
 2.4400	71.4400
 2.4440	71.2500
 2.4480	70.9700
 2.4520	70.5500
 2.4560	70.1600
 2.4600	69.8900
 2.4640	69.5300
 2.4680	69.1200
 2.4720	68.8200
 2.4760	68.4000
 2.4800	68.2900
 2.4840	68.0700
 2.4880	67.9100
 2.4920	67.6800
 2.4960	67.4600
 2.5000	67.1400
