Name: Fluorite CaF_2
Type: Mineral
Class: Halide
Subclass: None
Particle Size: Fine
Sample No.: H-2B
Owner: JPL
Wavelength Range: VSWIR
Origin: United Kingdom, England, Durham County, Weardal.
Collection Date: N/A
Description: Particle size was 0-45um.Collected by:  Ward's Original ASTER Spectral Library name was jpl.perkin.mineral.halide.none.fine.h02b.spectrum.txt
Measurement: Hemispherical reflectance
First Column: X
Second Column: Y
X Units: Wavelength (micrometers)
Y Units:Reflectance (percent)
First X Value:  2.5000
Last X Value:  0.4000
Number of X Values: 2101
Additional Information: mineral.halide.none.fine.vswir.h-2b.jpl.perkin.ancillary.txt

 2.5000	53.1699
 2.4990	52.9745
 2.4980	53.0493
 2.4970	53.0383
 2.4960	52.7374
 2.4950	53.1219
 2.4940	52.8331
 2.4930	53.0039
 2.4920	52.9098
 2.4910	52.9559
 2.4900	52.8679
 2.4890	53.1983
 2.4880	52.9871
 2.4870	53.0029
 2.4860	53.0935
 2.4850	53.1048
 2.4840	52.9902
 2.4830	53.1114
 2.4820	53.1041
 2.4810	53.0648
 2.4800	53.0530
 2.4790	53.1878
 2.4780	53.1303
 2.4770	53.1222
 2.4760	53.0496
 2.4750	53.2695
 2.4740	53.1105
 2.4730	53.2069
 2.4720	53.2389
 2.4710	53.2926
 2.4700	53.1882
 2.4690	53.2630
 2.4680	53.1291
 2.4670	53.2809
 2.4660	53.1680
 2.4650	53.2927
 2.4640	53.2584
 2.4630	53.3801
 2.4620	53.2332
 2.4610	53.2955
 2.4600	53.2376
 2.4590	53.2905
 2.4580	53.2613
 2.4570	53.3492
 2.4560	53.3467
 2.4550	53.3506
 2.4540	53.2717
 2.4530	53.3784
 2.4520	53.3007
 2.4510	53.3893
 2.4500	53.3408
 2.4490	53.4087
 2.4480	53.3874
 2.4470	53.4530
 2.4460	53.3821
 2.4450	53.4158
 2.4440	53.3478
 2.4430	53.4969
 2.4420	53.4442
 2.4410	53.5210
 2.4400	53.4665
 2.4390	53.4973
 2.4380	53.4372
 2.4370	53.4871
 2.4360	53.4899
 2.4350	53.5486
 2.4340	53.5408
 2.4330	53.5645
 2.4320	53.5375
 2.4310	53.5898
 2.4300	53.5390
 2.4290	53.4986
 2.4280	53.5863
 2.4270	53.6213
 2.4260	53.5530
 2.4250	53.6007
 2.4240	53.5860
 2.4230	53.5938
 2.4220	53.6108
 2.4210	53.6757
 2.4200	53.6684
 2.4190	53.6763
 2.4180	53.6400
 2.4170	53.6613
 2.4160	53.6725
 2.4150	53.7140
 2.4140	53.7395
 2.4130	53.7537
 2.4120	53.6909
 2.4110	53.6970
 2.4100	53.6714
 2.4090	53.7561
 2.4080	53.7571
 2.4070	53.7176
 2.4060	53.7513
 2.4050	53.7684
 2.4040	53.7351
 2.4030	53.7521
 2.4020	53.7525
 2.4010	53.7905
 2.4000	53.7618
 2.3990	53.8086
 2.3980	53.8456
 2.3970	53.8020
 2.3960	53.8069
 2.3950	53.8122
 2.3940	53.8082
 2.3930	53.9145
 2.3920	53.8950
 2.3910	53.8747
 2.3900	53.8887
 2.3890	53.9230
 2.3880	53.8915
 2.3870	53.8644
 2.3860	53.8497
 2.3850	53.9112
 2.3840	53.9658
 2.3830	53.9765
 2.3820	53.9411
 2.3810	53.9458
 2.3800	53.9511
 2.3790	54.0092
 2.3780	54.0154
 2.3770	54.0246
 2.3760	54.0602
 2.3750	54.0492
 2.3740	53.9762
 2.3730	54.0135
 2.3720	54.0353
 2.3710	54.0738
 2.3700	54.0524
 2.3690	54.1091
 2.3680	54.1381
 2.3670	54.1105
 2.3660	54.1009
 2.3650	54.0899
 2.3640	54.1295
 2.3630	54.1469
 2.3620	54.1160
 2.3610	54.1208
 2.3600	54.1459
 2.3590	54.1501
 2.3580	54.1282
 2.3570	54.1563
 2.3560	54.1568
 2.3550	54.1631
 2.3540	54.1640
 2.3530	54.1782
 2.3520	54.1586
 2.3510	54.1376
 2.3500	54.1796
 2.3490	54.1494
 2.3480	54.1604
 2.3470	54.1928
 2.3460	54.1946
 2.3450	54.1843
 2.3440	54.2387
 2.3430	54.2819
 2.3420	54.2571
 2.3410	54.2195
 2.3400	54.2251
 2.3390	54.2157
 2.3380	54.2067
 2.3370	54.1890
 2.3360	54.2081
 2.3350	54.1734
 2.3340	54.1767
 2.3330	54.1597
 2.3320	54.2020
 2.3310	54.1798
 2.3300	54.2114
 2.3290	54.1892
 2.3280	54.1736
 2.3270	54.1267
 2.3260	54.1080
 2.3250	54.1363
 2.3240	54.1496
 2.3230	54.1546
 2.3220	54.1414
 2.3210	54.0831
 2.3200	54.1051
 2.3190	54.1251
 2.3180	54.1172
 2.3170	54.0947
 2.3160	54.1704
 2.3150	54.1559
 2.3140	54.1138
 2.3130	54.1770
 2.3120	54.1614
 2.3110	54.0911
 2.3100	54.1415
 2.3090	54.1273
 2.3080	54.1349
 2.3070	54.1207
 2.3060	54.1465
 2.3050	54.1449
 2.3040	54.1363
 2.3030	54.1212
 2.3020	54.1596
 2.3010	54.1049
 2.3000	54.1256
 2.2990	54.1333
 2.2980	54.2018
 2.2970	54.1532
 2.2960	54.1712
 2.2950	54.1252
 2.2940	54.1163
 2.2930	54.1125
 2.2920	54.1331
 2.2910	54.0896
 2.2900	54.0977
 2.2890	54.0833
 2.2880	54.1290
 2.2870	54.0952
 2.2860	54.1114
 2.2850	54.0909
 2.2840	54.1305
 2.2830	54.1206
 2.2820	54.1212
 2.2810	54.1232
 2.2800	54.1863
 2.2790	54.1192
 2.2780	54.1407
 2.2770	54.1585
 2.2760	54.1064
 2.2750	54.0735
 2.2740	54.1424
 2.2730	54.1066
 2.2720	54.1021
 2.2710	54.0513
 2.2700	54.1190
 2.2690	54.1020
 2.2680	54.0762
 2.2670	54.0959
 2.2660	54.1483
 2.2650	54.0881
 2.2640	54.1540
 2.2630	54.1019
 2.2620	54.1315
 2.2610	54.1056
 2.2600	54.1442
 2.2590	54.0906
 2.2580	54.1552
 2.2570	54.0729
 2.2560	54.1230
 2.2550	54.0560
 2.2540	54.1125
 2.2530	54.1054
 2.2520	54.1362
 2.2510	54.0518
 2.2500	54.1542
 2.2490	54.0700
 2.2480	54.0773
 2.2470	54.0749
 2.2460	54.1085
 2.2450	54.0895
 2.2440	54.1152
 2.2430	54.1100
 2.2420	54.1499
 2.2410	54.1379
 2.2400	54.1080
 2.2390	54.1530
 2.2380	54.0996
 2.2370	54.1114
 2.2360	54.1580
 2.2350	54.1821
 2.2340	54.1968
 2.2330	54.1315
 2.2320	54.1275
 2.2310	54.1838
 2.2300	54.1974
 2.2290	54.1529
 2.2280	54.2624
 2.2270	54.1833
 2.2260	54.1973
 2.2250	54.1927
 2.2240	54.2237
 2.2230	54.2782
 2.2220	54.2187
 2.2210	54.2211
 2.2200	54.2945
 2.2190	54.1961
 2.2180	54.2616
 2.2170	54.2745
 2.2160	54.3129
 2.2150	54.2709
 2.2140	54.3989
 2.2130	54.2827
 2.2120	54.3735
 2.2110	54.2271
 2.2100	54.3673
 2.2090	54.3667
 2.2080	54.3510
 2.2070	54.3281
 2.2060	54.4193
 2.2050	54.3318
 2.2040	54.4533
 2.2030	54.4499
 2.2020	54.4776
 2.2010	54.4363
 2.2000	54.4569
 2.1990	54.5002
 2.1980	54.5260
 2.1970	54.4894
 2.1960	54.5264
 2.1950	54.4664
 2.1940	54.5278
 2.1930	54.5144
 2.1920	54.5847
 2.1910	54.5829
 2.1900	54.5802
 2.1890	54.5492
 2.1880	54.5682
 2.1870	54.4846
 2.1860	54.5943
 2.1850	54.6115
 2.1840	54.6605
 2.1830	54.6079
 2.1820	54.5953
 2.1810	54.6715
 2.1800	54.7158
 2.1790	54.7020
 2.1780	54.7015
 2.1770	54.6230
 2.1760	54.7069
 2.1750	54.7017
 2.1740	54.7536
 2.1730	54.7425
 2.1720	54.7876
 2.1710	54.7790
 2.1700	54.8591
 2.1690	54.8065
 2.1680	54.9093
 2.1670	54.9038
 2.1660	54.9180
 2.1650	54.8586
 2.1640	54.9059
 2.1630	54.9495
 2.1620	54.9775
 2.1610	54.9504
 2.1600	54.9820
 2.1590	55.0055
 2.1580	55.0412
 2.1570	55.0011
 2.1560	55.0254
 2.1550	55.0602
 2.1540	55.1011
 2.1530	55.0841
 2.1520	55.1723
 2.1510	55.1020
 2.1500	55.0913
 2.1490	55.0790
 2.1480	55.1064
 2.1470	55.0658
 2.1460	55.1284
 2.1450	55.1306
 2.1440	55.1770
 2.1430	55.1041
 2.1420	55.0960
 2.1410	55.1020
 2.1400	55.1476
 2.1390	55.0841
 2.1380	55.0894
 2.1370	55.0777
 2.1360	55.0241
 2.1350	55.0104
 2.1340	55.0839
 2.1330	55.0000
 2.1320	55.0203
 2.1310	54.9944
 2.1300	55.0164
 2.1290	54.9042
 2.1280	54.9349
 2.1270	54.8859
 2.1260	54.8704
 2.1250	54.8429
 2.1240	54.8576
 2.1230	54.8181
 2.1220	54.8472
 2.1210	54.7802
 2.1200	54.7674
 2.1190	54.7309
 2.1180	54.6338
 2.1170	54.6050
 2.1160	54.6164
 2.1150	54.5780
 2.1140	54.5661
 2.1130	54.5062
 2.1120	54.4980
 2.1110	54.4220
 2.1100	54.4794
 2.1090	54.4226
 2.1080	54.3587
 2.1070	54.3454
 2.1060	54.2916
 2.1050	54.2128
 2.1040	54.2344
 2.1030	54.2171
 2.1020	54.2144
 2.1010	54.1573
 2.1000	54.1104
 2.0990	54.1764
 2.0980	54.1489
 2.0970	54.1243
 2.0960	54.1324
 2.0950	54.1362
 2.0940	54.1689
 2.0930	54.1679
 2.0920	54.1604
 2.0910	54.1443
 2.0900	54.1891
 2.0890	54.2207
 2.0880	54.2263
 2.0870	54.2000
 2.0860	54.2215
 2.0850	54.2260
 2.0840	54.1762
 2.0830	54.1656
 2.0820	54.2106
 2.0810	54.2337
 2.0800	54.2617
 2.0790	54.2387
 2.0780	54.2444
 2.0770	54.2895
 2.0760	54.2895
 2.0750	54.2838
 2.0740	54.3272
 2.0730	54.3570
 2.0720	54.3688
 2.0710	54.3323
 2.0700	54.2869
 2.0690	54.3043
 2.0680	54.3712
 2.0670	54.3651
 2.0660	54.3328
 2.0650	54.3898
 2.0640	54.3938
 2.0630	54.3595
 2.0620	54.3660
 2.0610	54.3903
 2.0600	54.4062
 2.0590	54.4482
 2.0580	54.4848
 2.0570	54.4720
 2.0560	54.4538
 2.0550	54.3993
 2.0540	54.4185
 2.0530	54.4818
 2.0520	54.4785
 2.0510	54.4691
 2.0500	54.4615
 2.0490	54.5107
 2.0480	54.5051
 2.0470	54.4690
 2.0460	54.4722
 2.0450	54.5361
 2.0440	54.5316
 2.0430	54.4984
 2.0420	54.4973
 2.0410	54.5286
 2.0400	54.5244
 2.0390	54.5650
 2.0380	54.5703
 2.0370	54.5502
 2.0360	54.5286
 2.0350	54.5695
 2.0340	54.5434
 2.0330	54.5715
 2.0320	54.5889
 2.0310	54.5943
 2.0300	54.5274
 2.0290	54.5465
 2.0280	54.6080
 2.0270	54.5791
 2.0260	54.5620
 2.0250	54.5622
 2.0240	54.5177
 2.0230	54.5530
 2.0220	54.5292
 2.0210	54.5763
 2.0200	54.5936
 2.0190	54.6155
 2.0180	54.5699
 2.0170	54.5777
 2.0160	54.5402
 2.0150	54.5786
 2.0140	54.5739
 2.0130	54.6067
 2.0120	54.5459
 2.0110	54.6115
 2.0100	54.6008
 2.0090	54.6461
 2.0080	54.5898
 2.0070	54.6039
 2.0060	54.5624
 2.0050	54.5845
 2.0040	54.5873
 2.0030	54.5880
 2.0020	54.5363
 2.0010	54.5807
 2.0000	54.5857
 1.9990	54.5588
 1.9980	54.5402
 1.9970	54.5866
 1.9960	54.5381
 1.9950	54.5231
 1.9940	54.5055
 1.9930	54.5077
 1.9920	54.4853
 1.9910	54.4901
 1.9900	54.5391
 1.9890	54.4968
 1.9880	54.4893
 1.9870	54.4947
 1.9860	54.4996
 1.9850	54.5064
 1.9840	54.4542
 1.9830	54.4885
 1.9820	54.4601
 1.9810	54.5013
 1.9800	54.4532
 1.9790	54.4371
 1.9780	54.4433
 1.9770	54.4953
 1.9760	54.4302
 1.9750	54.4516
 1.9740	54.3920
 1.9730	54.4325
 1.9720	54.3971
 1.9710	54.5010
 1.9700	54.4066
 1.9690	54.4554
 1.9680	54.4235
 1.9670	54.3998
 1.9660	54.4511
 1.9650	54.4466
 1.9640	54.4323
 1.9630	54.4883
 1.9620	54.3868
 1.9610	54.4436
 1.9600	54.3838
 1.9590	54.5183
 1.9580	54.4257
 1.9570	54.4768
 1.9560	54.4098
 1.9550	54.4436
 1.9540	54.4205
 1.9530	54.4004
 1.9520	54.3900
 1.9510	54.4747
 1.9500	54.4452
 1.9490	54.4709
 1.9480	54.4176
 1.9470	54.5229
 1.9460	54.4599
 1.9450	54.4318
 1.9440	54.3917
 1.9430	54.5247
 1.9420	54.4983
 1.9410	54.5340
 1.9400	54.4864
 1.9390	54.6043
 1.9380	54.5664
 1.9370	54.5903
 1.9360	54.5178
 1.9350	54.5634
 1.9340	54.5070
 1.9330	54.5612
 1.9320	54.4779
 1.9310	54.5524
 1.9300	54.5487
 1.9290	54.5831
 1.9280	54.5535
 1.9270	54.7252
 1.9260	54.5274
 1.9250	54.6819
 1.9240	54.5469
 1.9230	54.5997
 1.9220	54.6290
 1.9210	54.7086
 1.9200	54.5791
 1.9190	54.6584
 1.9180	54.6251
 1.9170	54.7905
 1.9160	54.6250
 1.9150	54.7444
 1.9140	54.6859
 1.9130	54.7526
 1.9120	54.7240
 1.9110	54.6996
 1.9100	54.7420
 1.9090	54.7816
 1.9080	54.7518
 1.9070	54.8026
 1.9060	54.7171
 1.9050	54.7500
 1.9040	54.8054
 1.9030	54.8598
 1.9020	54.7499
 1.9010	54.8632
 1.9000	54.7914
 1.8990	54.8396
 1.8980	54.7724
 1.8970	54.8287
 1.8960	54.8661
 1.8950	54.8684
 1.8940	54.8800
 1.8930	54.9086
 1.8920	54.8154
 1.8910	54.8699
 1.8900	54.7969
 1.8890	54.8548
 1.8880	54.9042
 1.8870	54.9203
 1.8860	54.9201
 1.8850	54.9138
 1.8840	54.8804
 1.8830	54.9613
 1.8820	54.9443
 1.8810	54.9668
 1.8800	54.9109
 1.8790	54.9951
 1.8780	54.9780
 1.8770	54.9938
 1.8760	54.9419
 1.8750	55.0593
 1.8740	55.0404
 1.8730	55.0440
 1.8720	55.0606
 1.8710	55.0350
 1.8700	55.0311
 1.8690	55.0485
 1.8680	54.9846
 1.8670	55.1362
 1.8660	55.0663
 1.8650	55.0491
 1.8640	55.0081
 1.8630	55.0517
 1.8620	55.0360
 1.8610	55.0418
 1.8600	55.0414
 1.8590	55.0489
 1.8580	55.0906
 1.8570	55.1091
 1.8560	55.0187
 1.8550	55.0712
 1.8540	55.0444
 1.8530	55.1411
 1.8520	55.1165
 1.8510	55.1047
 1.8500	55.0620
 1.8490	55.0534
 1.8480	55.0470
 1.8470	55.1077
 1.8460	55.0682
 1.8450	55.1311
 1.8440	55.0856
 1.8430	55.1266
 1.8420	55.1152
 1.8410	55.1209
 1.8400	55.0787
 1.8390	55.1506
 1.8380	55.1421
 1.8370	55.0969
 1.8360	55.1002
 1.8350	55.1411
 1.8340	55.1500
 1.8330	55.1498
 1.8320	55.1306
 1.8310	55.1776
 1.8300	55.1195
 1.8290	55.0721
 1.8280	55.0709
 1.8270	55.0903
 1.8260	55.0890
 1.8250	55.1238
 1.8240	55.0876
 1.8230	55.1384
 1.8220	55.1535
 1.8210	55.1483
 1.8200	55.1480
 1.8190	55.1563
 1.8180	55.1004
 1.8170	55.1133
 1.8160	55.0829
 1.8150	55.1419
 1.8140	55.1527
 1.8130	55.1962
 1.8120	55.1916
 1.8110	55.1428
 1.8100	55.1400
 1.8090	55.2041
 1.8080	55.1881
 1.8070	55.2128
 1.8060	55.1781
 1.8050	55.1700
 1.8040	55.1500
 1.8030	55.1586
 1.8020	55.1635
 1.8010	55.2059
 1.8000	55.2253
 1.7990	55.1991
 1.7980	55.1698
 1.7970	55.1682
 1.7960	55.1995
 1.7950	55.2074
 1.7940	55.1865
 1.7930	55.2101
 1.7920	55.1874
 1.7910	55.1815
 1.7900	55.1795
 1.7890	55.1666
 1.7880	55.1791
 1.7870	55.1889
 1.7860	55.1576
 1.7850	55.1876
 1.7840	55.2177
 1.7830	55.1957
 1.7820	55.1929
 1.7810	55.1864
 1.7800	55.1574
 1.7790	55.1324
 1.7780	55.1327
 1.7770	55.1666
 1.7760	55.1767
 1.7750	55.1928
 1.7740	55.2206
 1.7730	55.1464
 1.7720	55.1643
 1.7710	55.1608
 1.7700	55.1204
 1.7690	55.1507
 1.7680	55.1980
 1.7670	55.1766
 1.7660	55.2170
 1.7650	55.2189
 1.7640	55.2004
 1.7630	55.1585
 1.7620	55.2342
 1.7610	55.2403
 1.7600	55.2399
 1.7590	55.1986
 1.7580	55.2047
 1.7570	55.1882
 1.7560	55.2153
 1.7550	55.2109
 1.7540	55.1814
 1.7530	55.1931
 1.7520	55.2076
 1.7510	55.1753
 1.7500	55.1853
 1.7490	55.1914
 1.7480	55.2093
 1.7470	55.1973
 1.7460	55.2319
 1.7450	55.2336
 1.7440	55.2809
 1.7430	55.2428
 1.7420	55.2256
 1.7410	55.2464
 1.7400	55.2478
 1.7390	55.2803
 1.7380	55.2988
 1.7370	55.2896
 1.7360	55.2679
 1.7350	55.2470
 1.7340	55.2572
 1.7330	55.2746
 1.7320	55.3058
 1.7310	55.2435
 1.7300	55.2838
 1.7290	55.3268
 1.7280	55.3272
 1.7270	55.3018
 1.7260	55.3443
 1.7250	55.3247
 1.7240	55.2795
 1.7230	55.2562
 1.7220	55.3055
 1.7210	55.2625
 1.7200	55.3682
 1.7190	55.2792
 1.7180	55.3042
 1.7170	55.3476
 1.7160	55.3428
 1.7150	55.2853
 1.7140	55.3338
 1.7130	55.3248
 1.7120	55.2826
 1.7110	55.2944
 1.7100	55.3853
 1.7090	55.3062
 1.7080	55.3104
 1.7070	55.2956
 1.7060	55.3149
 1.7050	55.3200
 1.7040	55.3782
 1.7030	55.3282
 1.7020	55.3744
 1.7010	55.2424
 1.7000	55.3026
 1.6990	55.3026
 1.6980	55.3325
 1.6970	55.3004
 1.6960	55.3183
 1.6950	55.2370
 1.6940	55.3858
 1.6930	55.3138
 1.6920	55.2813
 1.6910	55.2975
 1.6900	55.3041
 1.6890	55.3230
 1.6880	55.3152
 1.6870	55.2441
 1.6860	55.2947
 1.6850	55.3401
 1.6840	55.3220
 1.6830	55.2542
 1.6820	55.2988
 1.6810	55.3225
 1.6800	55.3065
 1.6790	55.2485
 1.6780	55.3309
 1.6770	55.3601
 1.6760	55.3140
 1.6750	55.3670
 1.6740	55.3540
 1.6730	55.1940
 1.6720	55.3552
 1.6710	55.3031
 1.6700	55.3832
 1.6690	55.3789
 1.6680	55.2397
 1.6670	55.2677
 1.6660	55.3058
 1.6650	55.2924
 1.6640	55.3469
 1.6630	55.3270
 1.6620	55.2918
 1.6610	55.3155
 1.6600	55.3033
 1.6590	55.2385
 1.6580	55.3071
 1.6570	55.2768
 1.6560	55.2961
 1.6550	55.2734
 1.6540	55.3670
 1.6530	55.3173
 1.6520	55.3643
 1.6510	55.2671
 1.6500	55.3729
 1.6490	55.2424
 1.6480	55.3078
 1.6470	55.3191
 1.6460	55.3089
 1.6450	55.3359
 1.6440	55.3879
 1.6430	55.2927
 1.6420	55.3745
 1.6410	55.1777
 1.6400	55.3756
 1.6390	55.3342
 1.6380	55.3731
 1.6370	55.2372
 1.6360	55.3656
 1.6350	55.3732
 1.6340	55.3566
 1.6330	55.3358
 1.6320	55.3575
 1.6310	55.3202
 1.6300	55.3096
 1.6290	55.2580
 1.6280	55.2742
 1.6270	55.2605
 1.6260	55.4278
 1.6250	55.3199
 1.6240	55.3917
 1.6230	55.3669
 1.6220	55.3766
 1.6210	55.3111
 1.6200	55.4155
 1.6190	55.2875
 1.6180	55.4000
 1.6170	55.3830
 1.6160	55.3942
 1.6150	55.2920
 1.6140	55.4123
 1.6130	55.3951
 1.6120	55.3939
 1.6110	55.3585
 1.6100	55.4285
 1.6090	55.2905
 1.6080	55.4383
 1.6070	55.3630
 1.6060	55.4243
 1.6050	55.3639
 1.6040	55.3559
 1.6030	55.3975
 1.6020	55.4015
 1.6010	55.3979
 1.6000	55.4574
 1.5990	55.3965
 1.5980	55.4578
 1.5970	55.3491
 1.5960	55.3840
 1.5950	55.3517
 1.5940	55.4003
 1.5930	55.3527
 1.5920	55.4123
 1.5910	55.3856
 1.5900	55.4191
 1.5890	55.3618
 1.5880	55.4102
 1.5870	55.3963
 1.5860	55.4587
 1.5850	55.3717
 1.5840	55.4419
 1.5830	55.4065
 1.5820	55.4291
 1.5810	55.3655
 1.5800	55.3910
 1.5790	55.3955
 1.5780	55.4345
 1.5770	55.3776
 1.5760	55.3633
 1.5750	55.3533
 1.5740	55.3718
 1.5730	55.4057
 1.5720	55.4219
 1.5710	55.3974
 1.5700	55.4988
 1.5690	55.4588
 1.5680	55.3705
 1.5670	55.3646
 1.5660	55.3920
 1.5650	55.4148
 1.5640	55.4237
 1.5630	55.4035
 1.5620	55.4281
 1.5610	55.3997
 1.5600	55.4409
 1.5590	55.3986
 1.5580	55.4107
 1.5570	55.4357
 1.5560	55.4493
 1.5550	55.3883
 1.5540	55.3855
 1.5530	55.3829
 1.5520	55.3493
 1.5510	55.3227
 1.5500	55.4086
 1.5490	55.4352
 1.5480	55.4085
 1.5470	55.3809
 1.5460	55.4054
 1.5450	55.4417
 1.5440	55.4094
 1.5430	55.4074
 1.5420	55.4349
 1.5410	55.3848
 1.5400	55.4387
 1.5390	55.4770
 1.5380	55.4344
 1.5370	55.3674
 1.5360	55.3793
 1.5350	55.3942
 1.5340	55.4211
 1.5330	55.3904
 1.5320	55.4112
 1.5310	55.4225
 1.5300	55.3578
 1.5290	55.3641
 1.5280	55.4096
 1.5270	55.3898
 1.5260	55.3963
 1.5250	55.4403
 1.5240	55.4302
 1.5230	55.4201
 1.5220	55.4640
 1.5210	55.4443
 1.5200	55.4298
 1.5190	55.4264
 1.5180	55.4093
 1.5170	55.4064
 1.5160	55.4546
 1.5150	55.4629
 1.5140	55.4695
 1.5130	55.4344
 1.5120	55.4215
 1.5110	55.3654
 1.5100	55.3872
 1.5090	55.4614
 1.5080	55.4357
 1.5070	55.4179
 1.5060	55.4669
 1.5050	55.4286
 1.5040	55.3733
 1.5030	55.3854
 1.5020	55.4176
 1.5010	55.3900
 1.5000	55.3812
 1.4990	55.4224
 1.4980	55.4281
 1.4970	55.4291
 1.4960	55.4328
 1.4950	55.4897
 1.4940	55.4434
 1.4930	55.4355
 1.4920	55.4446
 1.4910	55.4358
 1.4900	55.4406
 1.4890	55.4422
 1.4880	55.4366
 1.4870	55.4490
 1.4860	55.4506
 1.4850	55.4386
 1.4840	55.4526
 1.4830	55.4723
 1.4820	55.4434
 1.4810	55.4039
 1.4800	55.4165
 1.4790	55.4067
 1.4780	55.3972
 1.4770	55.4429
 1.4760	55.4129
 1.4750	55.4304
 1.4740	55.4179
 1.4730	55.4618
 1.4720	55.4433
 1.4710	55.4192
 1.4700	55.4272
 1.4690	55.4229
 1.4680	55.4097
 1.4670	55.4662
 1.4660	55.3933
 1.4650	55.4240
 1.4640	55.4292
 1.4630	55.3824
 1.4620	55.3921
 1.4610	55.4624
 1.4600	55.4097
 1.4590	55.4458
 1.4580	55.4711
 1.4570	55.4584
 1.4560	55.4602
 1.4550	55.4544
 1.4540	55.4269
 1.4530	55.4605
 1.4520	55.4626
 1.4510	55.4295
 1.4500	55.4245
 1.4490	55.4596
 1.4480	55.4130
 1.4470	55.4242
 1.4460	55.4231
 1.4450	55.4657
 1.4440	55.4742
 1.4430	55.4686
 1.4420	55.3997
 1.4410	55.4497
 1.4400	55.4192
 1.4390	55.4555
 1.4380	55.4539
 1.4370	55.4461
 1.4360	55.4460
 1.4350	55.4694
 1.4340	55.4482
 1.4330	55.4351
 1.4320	55.4334
 1.4310	55.4426
 1.4300	55.4105
 1.4290	55.4575
 1.4280	55.4856
 1.4270	55.3881
 1.4260	55.4574
 1.4250	55.5138
 1.4240	55.4340
 1.4230	55.4542
 1.4220	55.4550
 1.4210	55.5545
 1.4200	55.4032
 1.4190	55.4332
 1.4180	55.4349
 1.4170	55.4868
 1.4160	55.5114
 1.4150	55.5426
 1.4140	55.4773
 1.4130	55.5144
 1.4120	55.5081
 1.4110	55.5350
 1.4100	55.5287
 1.4090	55.5306
 1.4080	55.5009
 1.4070	55.5703
 1.4060	55.4968
 1.4050	55.5249
 1.4040	55.4806
 1.4030	55.5646
 1.4020	55.5487
 1.4010	55.5308
 1.4000	55.4401
 1.3990	55.5309
 1.3980	55.5419
 1.3970	55.6245
 1.3960	55.6409
 1.3950	55.6337
 1.3940	55.6124
 1.3930	55.6377
 1.3920	55.4741
 1.3910	55.6325
 1.3900	55.5703
 1.3890	55.6212
 1.3880	55.5381
 1.3870	55.5947
 1.3860	55.5206
 1.3850	55.5835
 1.3840	55.5906
 1.3830	55.5358
 1.3820	55.5192
 1.3810	55.6281
 1.3800	55.5756
 1.3790	55.6605
 1.3780	55.6072
 1.3770	55.6758
 1.3760	55.7070
 1.3750	55.6407
 1.3740	55.5779
 1.3730	55.6222
 1.3720	55.6000
 1.3710	55.6662
 1.3700	55.5698
 1.3690	55.6544
 1.3680	55.5891
 1.3670	55.6256
 1.3660	55.6190
 1.3650	55.6707
 1.3640	55.5385
 1.3630	55.6406
 1.3620	55.5634
 1.3610	55.6215
 1.3600	55.5844
 1.3590	55.6606
 1.3580	55.6163
 1.3570	55.6762
 1.3560	55.6037
 1.3550	55.4687
 1.3540	55.5443
 1.3530	55.5596
 1.3520	55.5374
 1.3510	55.6682
 1.3500	55.6820
 1.3490	55.6319
 1.3480	55.5579
 1.3470	55.6393
 1.3460	55.5404
 1.3450	55.6802
 1.3440	55.5724
 1.3430	55.5697
 1.3420	55.5667
 1.3410	55.6170
 1.3400	55.6254
 1.3390	55.5962
 1.3380	55.5910
 1.3370	55.6578
 1.3360	55.5750
 1.3350	55.6140
 1.3340	55.6337
 1.3330	55.6027
 1.3320	55.6470
 1.3310	55.6569
 1.3300	55.6417
 1.3290	55.6189
 1.3280	55.5832
 1.3270	55.6927
 1.3260	55.6046
 1.3250	55.6356
 1.3240	55.6227
 1.3230	55.6678
 1.3220	55.6404
 1.3210	55.6518
 1.3200	55.6380
 1.3190	55.6308
 1.3180	55.5916
 1.3170	55.7180
 1.3160	55.6424
 1.3150	55.7145
 1.3140	55.6182
 1.3130	55.6687
 1.3120	55.6506
 1.3110	55.6254
 1.3100	55.5991
 1.3090	55.6288
 1.3080	55.5978
 1.3070	55.7089
 1.3060	55.6673
 1.3050	55.6368
 1.3040	55.5868
 1.3030	55.5998
 1.3020	55.5943
 1.3010	55.7122
 1.3000	55.6776
 1.2990	55.6771
 1.2980	55.6417
 1.2970	55.7121
 1.2960	55.7009
 1.2950	55.6681
 1.2940	55.6519
 1.2930	55.6379
 1.2920	55.5943
 1.2910	55.6678
 1.2900	55.6273
 1.2890	55.7293
 1.2880	55.7197
 1.2870	55.6983
 1.2860	55.6635
 1.2850	55.6852
 1.2840	55.7281
 1.2830	55.7267
 1.2820	55.6437
 1.2810	55.6790
 1.2800	55.6518
 1.2790	55.6440
 1.2780	55.6871
 1.2770	55.7413
 1.2760	55.6160
 1.2750	55.6846
 1.2740	55.6917
 1.2730	55.7602
 1.2720	55.7065
 1.2710	55.6624
 1.2700	55.6555
 1.2690	55.6830
 1.2680	55.6790
 1.2670	55.7219
 1.2660	55.7314
 1.2650	55.7601
 1.2640	55.7096
 1.2630	55.7227
 1.2620	55.7204
 1.2610	55.7073
 1.2600	55.6708
 1.2590	55.7236
 1.2580	55.7238
 1.2570	55.7590
 1.2560	55.7384
 1.2550	55.7136
 1.2540	55.6994
 1.2530	55.7596
 1.2520	55.7575
 1.2510	55.7407
 1.2500	55.7046
 1.2490	55.7155
 1.2480	55.7197
 1.2470	55.7174
 1.2460	55.7082
 1.2450	55.6794
 1.2440	55.6582
 1.2430	55.7090
 1.2420	55.7131
 1.2410	55.7130
 1.2400	55.7573
 1.2390	55.7457
 1.2380	55.7225
 1.2370	55.7446
 1.2360	55.7096
 1.2350	55.7248
 1.2340	55.7396
 1.2330	55.7507
 1.2320	55.7165
 1.2310	55.7145
 1.2300	55.7249
 1.2290	55.7585
 1.2280	55.7203
 1.2270	55.7167
 1.2260	55.7188
 1.2250	55.7032
 1.2240	55.6721
 1.2230	55.6991
 1.2220	55.7201
 1.2210	55.6980
 1.2200	55.7178
 1.2190	55.7350
 1.2180	55.7327
 1.2170	55.7514
 1.2160	55.7571
 1.2150	55.7500
 1.2140	55.7581
 1.2130	55.7269
 1.2120	55.7023
 1.2110	55.7460
 1.2100	55.7508
 1.2090	55.6858
 1.2080	55.7556
 1.2070	55.7638
 1.2060	55.7158
 1.2050	55.7136
 1.2040	55.7540
 1.2030	55.7615
 1.2020	55.7694
 1.2010	55.8090
 1.2000	55.8039
 1.1990	55.7544
 1.1980	55.7341
 1.1970	55.7322
 1.1960	55.7943
 1.1950	55.8016
 1.1940	55.8012
 1.1930	55.7809
 1.1920	55.7966
 1.1910	55.8092
 1.1900	55.8341
 1.1890	55.8598
 1.1880	55.7779
 1.1870	55.7754
 1.1860	55.7719
 1.1850	55.7880
 1.1840	55.8232
 1.1830	55.7969
 1.1820	55.7975
 1.1810	55.7614
 1.1800	55.7971
 1.1790	55.8398
 1.1780	55.8353
 1.1770	55.7684
 1.1760	55.8060
 1.1750	55.8142
 1.1740	55.8086
 1.1730	55.8697
 1.1720	55.8340
 1.1710	55.8285
 1.1700	55.8615
 1.1690	55.8296
 1.1680	55.8663
 1.1670	55.8158
 1.1660	55.8673
 1.1650	55.8901
 1.1640	55.8806
 1.1630	55.8883
 1.1620	55.8692
 1.1610	55.8670
 1.1600	55.9168
 1.1590	55.8638
 1.1580	55.8663
 1.1570	55.8561
 1.1560	55.8608
 1.1550	55.8318
 1.1540	55.8952
 1.1530	55.8869
 1.1520	55.9031
 1.1510	55.8822
 1.1500	55.8727
 1.1490	55.8651
 1.1480	55.8697
 1.1470	55.9115
 1.1460	55.8944
 1.1450	55.8854
 1.1440	55.8846
 1.1430	55.8468
 1.1420	55.8910
 1.1410	55.9260
 1.1400	55.8741
 1.1390	55.8957
 1.1380	55.9187
 1.1370	55.9670
 1.1360	55.9828
 1.1350	55.9197
 1.1340	55.9836
 1.1330	55.8789
 1.1320	55.9323
 1.1310	55.9174
 1.1300	55.9488
 1.1290	55.9206
 1.1280	55.9335
 1.1270	55.9331
 1.1260	55.9896
 1.1250	55.9739
 1.1240	56.0002
 1.1230	55.9195
 1.1220	55.9182
 1.1210	55.8739
 1.1200	55.9817
 1.1190	55.9479
 1.1180	55.9535
 1.1170	55.9588
 1.1160	55.9514
 1.1150	55.9409
 1.1140	55.9934
 1.1130	55.9340
 1.1120	56.0406
 1.1110	55.9281
 1.1100	56.0119
 1.1090	56.0103
 1.1080	56.0512
 1.1070	56.0100
 1.1060	56.0562
 1.1050	55.9911
 1.1040	56.0179
 1.1030	55.9705
 1.1020	56.0259
 1.1010	56.0104
 1.1000	56.0270
 1.0990	55.9570
 1.0980	56.0939
 1.0970	55.9980
 1.0960	56.1076
 1.0950	55.9776
 1.0940	55.9956
 1.0930	55.9992
 1.0920	56.0185
 1.0910	55.9885
 1.0900	56.0618
 1.0890	56.0512
 1.0880	56.0861
 1.0870	55.9417
 1.0860	56.0757
 1.0850	56.0136
 1.0840	56.0509
 1.0830	56.0063
 1.0820	56.1123
 1.0810	55.9495
 1.0800	56.1235
 1.0790	56.0636
 1.0780	56.1092
 1.0770	56.0074
 1.0760	56.1044
 1.0750	56.0324
 1.0740	55.9998
 1.0730	56.0230
 1.0720	56.1335
 1.0710	56.1484
 1.0700	55.9859
 1.0690	56.1248
 1.0680	56.0936
 1.0670	56.0674
 1.0660	56.1303
 1.0650	56.0589
 1.0640	56.1616
 1.0630	56.0286
 1.0620	56.0792
 1.0610	56.0583
 1.0600	56.0757
 1.0590	56.0848
 1.0580	56.1113
 1.0570	56.1232
 1.0560	56.1762
 1.0550	56.0774
 1.0540	56.1150
 1.0530	56.0859
 1.0520	56.1356
 1.0510	56.1552
 1.0500	56.1397
 1.0490	56.0961
 1.0480	56.1725
 1.0470	56.1230
 1.0460	56.2010
 1.0450	56.1748
 1.0440	56.1971
 1.0430	56.1119
 1.0420	56.1947
 1.0410	56.1163
 1.0400	56.1938
 1.0390	56.1601
 1.0380	56.1905
 1.0370	56.1811
 1.0360	56.2178
 1.0350	56.1139
 1.0340	56.1697
 1.0330	56.1333
 1.0320	56.2110
 1.0310	56.2138
 1.0300	56.1855
 1.0290	56.1449
 1.0280	56.2068
 1.0270	56.0772
 1.0260	56.2205
 1.0250	56.1928
 1.0240	56.2401
 1.0230	56.1853
 1.0220	56.2708
 1.0210	56.2036
 1.0200	56.1904
 1.0190	56.1477
 1.0180	56.1703
 1.0170	56.1651
 1.0160	56.2569
 1.0150	56.1914
 1.0140	56.2566
 1.0130	56.1462
 1.0120	56.2308
 1.0110	56.2411
 1.0100	56.2492
 1.0090	56.2132
 1.0080	56.2490
 1.0070	56.2530
 1.0060	56.3133
 1.0050	56.2433
 1.0040	56.2922
 1.0030	56.2507
 1.0020	56.3061
 1.0010	56.2833
 1.0000	56.2307
 0.9990	56.2391
 0.9980	56.3376
 0.9970	56.3297
 0.9960	56.2962
 0.9950	56.3102
 0.9940	56.3020
 0.9930	56.2858
 0.9920	56.2968
 0.9910	56.2841
 0.9900	56.2639
 0.9890	56.2695
 0.9880	56.3044
 0.9870	56.2656
 0.9860	56.3120
 0.9850	56.3280
 0.9840	56.3669
 0.9830	56.3001
 0.9820	56.3499
 0.9810	56.3079
 0.9800	56.3170
 0.9790	56.2977
 0.9780	56.3540
 0.9770	56.3281
 0.9760	56.3380
 0.9750	56.3328
 0.9740	56.3473
 0.9730	56.3581
 0.9720	56.3871
 0.9710	56.3108
 0.9700	56.3076
 0.9690	56.3399
 0.9680	56.3746
 0.9670	56.3946
 0.9660	56.3379
 0.9650	56.3242
 0.9640	56.3720
 0.9630	56.3766
 0.9620	56.3958
 0.9610	56.3922
 0.9600	56.3979
 0.9590	56.3815
 0.9580	56.3450
 0.9570	56.3435
 0.9560	56.3821
 0.9550	56.4036
 0.9540	56.3956
 0.9530	56.4207
 0.9520	56.4545
 0.9510	56.3939
 0.9500	56.4118
 0.9490	56.4449
 0.9480	56.4236
 0.9470	56.4525
 0.9460	56.4896
 0.9450	56.4307
 0.9440	56.4260
 0.9430	56.3968
 0.9420	56.4483
 0.9410	56.5169
 0.9400	56.5026
 0.9390	56.4660
 0.9380	56.5126
 0.9370	56.5077
 0.9360	56.4459
 0.9350	56.4573
 0.9340	56.5134
 0.9330	56.5398
 0.9320	56.5174
 0.9310	56.4973
 0.9300	56.5164
 0.9290	56.4978
 0.9280	56.5344
 0.9270	56.5294
 0.9260	56.5082
 0.9250	56.5789
 0.9240	56.5676
 0.9230	56.5155
 0.9220	56.4938
 0.9210	56.5094
 0.9200	56.5311
 0.9190	56.5772
 0.9180	56.5552
 0.9170	56.5222
 0.9160	56.5380
 0.9150	56.5959
 0.9140	56.5923
 0.9130	56.5377
 0.9120	56.5522
 0.9110	56.5697
 0.9100	56.5888
 0.9090	56.6113
 0.9080	56.5901
 0.9070	56.5869
 0.9060	56.6008
 0.9050	56.5974
 0.9040	56.5786
 0.9030	56.6176
 0.9020	56.6277
 0.9010	56.6835
 0.9000	56.6459
 0.8990	56.5924
 0.8980	56.5653
 0.8970	56.5777
 0.8960	56.6590
 0.8950	56.6978
 0.8940	56.6442
 0.8930	56.6534
 0.8920	56.6442
 0.8910	56.7172
 0.8900	56.7060
 0.8890	56.7426
 0.8880	56.7182
 0.8870	56.7787
 0.8860	56.7809
 0.8850	56.7355
 0.8840	56.7799
 0.8830	56.7495
 0.8820	56.7528
 0.8810	56.7711
 0.8800	56.7315
 0.8790	56.7591
 0.8780	56.7674
 0.8770	56.7777
 0.8760	56.7757
 0.8750	56.7705
 0.8740	56.7893
 0.8730	56.8610
 0.8720	56.8293
 0.8710	56.8782
 0.8700	56.8481
 0.8690	56.8470
 0.8680	56.8025
 0.8670	56.8488
 0.8660	56.8590
 0.8650	56.8802
 0.8640	56.8668
 0.8630	56.8819
 0.8620	56.8368
 0.8610	56.8434
 0.8600	57.0112
 0.8590	57.0489
 0.8580	57.1038
 0.8570	57.1071
 0.8560	57.0918
 0.8550	57.0712
 0.8540	57.0754
 0.8530	57.0844
 0.8520	57.1134
 0.8510	57.1179
 0.8500	57.1458
 0.8490	57.1758
 0.8480	57.1353
 0.8470	57.0959
 0.8460	57.1236
 0.8450	57.1211
 0.8440	57.1416
 0.8430	57.1300
 0.8420	57.1358
 0.8410	57.1401
 0.8400	57.1743
 0.8390	57.1334
 0.8380	57.1370
 0.8370	57.1503
 0.8360	57.1545
 0.8350	57.1574
 0.8340	57.1494
 0.8330	57.1333
 0.8320	57.1621
 0.8310	57.1593
 0.8300	57.1426
 0.8290	57.1352
 0.8280	57.1533
 0.8270	57.1830
 0.8260	57.1700
 0.8250	57.1490
 0.8240	57.1929
 0.8230	57.1725
 0.8220	57.1771
 0.8210	57.1834
 0.8200	57.1626
 0.8190	57.1641
 0.8180	57.1989
 0.8170	57.2067
 0.8160	57.1864
 0.8150	57.2051
 0.8140	57.2024
 0.8130	57.2053
 0.8120	57.1971
 0.8110	57.2135
 0.8100	57.2252
 0.8090	57.1929
 0.8080	57.2517
 0.8070	57.2083
 0.8060	57.2212
 0.8050	57.2552
 0.8040	57.1920
 0.8030	57.1916
 0.8020	57.2077
 0.8010	57.2252
 0.8000	57.2521
 0.7990	57.1909
 0.7980	57.1893
 0.7970	57.2080
 0.7960	57.2119
 0.7950	57.1871
 0.7940	57.1756
 0.7930	57.1712
 0.7920	57.1654
 0.7910	57.1661
 0.7900	57.1917
 0.7890	57.1832
 0.7880	57.1632
 0.7870	57.2238
 0.7860	57.2049
 0.7850	57.1774
 0.7840	57.2135
 0.7830	57.2189
 0.7820	57.2065
 0.7810	57.1889
 0.7800	57.2003
 0.7790	57.2293
 0.7780	57.2346
 0.7770	57.1989
 0.7760	57.1851
 0.7750	57.1760
 0.7740	57.1900
 0.7730	57.2063
 0.7720	57.1786
 0.7710	57.1873
 0.7700	57.1450
 0.7690	57.1520
 0.7680	57.1894
 0.7670	57.1724
 0.7660	57.1662
 0.7650	57.1753
 0.7640	57.1868
 0.7630	57.2170
 0.7620	57.1868
 0.7610	57.1955
 0.7600	57.1854
 0.7590	57.1895
 0.7580	57.2001
 0.7570	57.1788
 0.7560	57.2117
 0.7550	57.1964
 0.7540	57.1936
 0.7530	57.2007
 0.7520	57.1886
 0.7510	57.1741
 0.7500	57.2034
 0.7490	57.1822
 0.7480	57.1735
 0.7470	57.2084
 0.7460	57.1945
 0.7450	57.2064
 0.7440	57.1984
 0.7430	57.1966
 0.7420	57.1965
 0.7410	57.2005
 0.7400	57.2001
 0.7390	57.2132
 0.7380	57.2150
 0.7370	57.2061
 0.7360	57.2115
 0.7350	57.2022
 0.7340	57.1870
 0.7330	57.2193
 0.7320	57.2026
 0.7310	57.1944
 0.7300	57.1956
 0.7290	57.2101
 0.7280	57.2317
 0.7270	57.2049
 0.7260	57.2034
 0.7250	57.2129
 0.7240	57.1976
 0.7230	57.2171
 0.7220	57.2189
 0.7210	57.2159
 0.7200	57.2139
 0.7190	57.2090
 0.7180	57.2104
 0.7170	57.2164
 0.7160	57.2038
 0.7150	57.2018
 0.7140	57.2105
 0.7130	57.2034
 0.7120	57.2026
 0.7110	57.2263
 0.7100	57.2187
 0.7090	57.2127
 0.7080	57.2077
 0.7070	57.2218
 0.7060	57.2298
 0.7050	57.2050
 0.7040	57.2187
 0.7030	57.2397
 0.7020	57.2322
 0.7010	57.2251
 0.7000	57.2005
 0.6990	57.2084
 0.6980	57.2225
 0.6970	57.2089
 0.6960	57.2121
 0.6950	57.2141
 0.6940	57.2176
 0.6930	57.2128
 0.6920	57.2041
 0.6910	57.2100
 0.6900	57.2227
 0.6890	57.2237
 0.6880	57.2188
 0.6870	57.2183
 0.6860	57.2281
 0.6850	57.2206
 0.6840	57.2222
 0.6830	57.2160
 0.6820	57.2207
 0.6810	57.2251
 0.6800	57.2342
 0.6790	57.2427
 0.6780	57.2273
 0.6770	57.2234
 0.6760	57.2403
 0.6750	57.2426
 0.6740	57.2301
 0.6730	57.2301
 0.6720	57.2303
 0.6710	57.2296
 0.6700	57.2260
 0.6690	57.2339
 0.6680	57.2260
 0.6670	57.2227
 0.6660	57.2175
 0.6650	57.2193
 0.6640	57.2284
 0.6630	57.2211
 0.6620	57.2214
 0.6610	57.2153
 0.6600	57.2184
 0.6590	57.2265
 0.6580	57.2318
 0.6570	57.2341
 0.6560	57.2267
 0.6550	57.2192
 0.6540	57.2182
 0.6530	57.2182
 0.6520	57.2114
 0.6510	57.2167
 0.6500	57.2256
 0.6490	57.2205
 0.6480	57.2086
 0.6470	57.2046
 0.6460	57.2105
 0.6450	57.2121
 0.6440	57.2038
 0.6430	57.2040
 0.6420	57.2089
 0.6410	57.2137
 0.6400	57.2019
 0.6390	57.1963
 0.6380	57.2003
 0.6370	57.1962
 0.6360	57.1962
 0.6350	57.1949
 0.6340	57.1928
 0.6330	57.1875
 0.6320	57.1857
 0.6310	57.1949
 0.6300	57.1867
 0.6290	57.1857
 0.6280	57.1910
 0.6270	57.1775
 0.6260	57.1791
 0.6250	57.1799
 0.6240	57.1755
 0.6230	57.1753
 0.6220	57.1749
 0.6210	57.1819
 0.6200	57.1835
 0.6190	57.1748
 0.6180	57.1747
 0.6170	57.1783
 0.6160	57.1622
 0.6150	57.1579
 0.6140	57.1585
 0.6130	57.1550
 0.6120	57.1506
 0.6110	57.1561
 0.6100	57.1582
 0.6090	57.1508
 0.6080	57.1455
 0.6070	57.1438
 0.6060	57.1539
 0.6050	57.1600
 0.6040	57.1546
 0.6030	57.1451
 0.6020	57.1416
 0.6010	57.1332
 0.6000	57.1346
 0.5990	57.1558
 0.5980	57.1677
 0.5970	57.1717
 0.5960	57.1701
 0.5950	57.1742
 0.5940	57.1835
 0.5930	57.1858
 0.5920	57.1786
 0.5910	57.1796
 0.5900	57.1738
 0.5890	57.1729
 0.5880	57.1817
 0.5870	57.1816
 0.5860	57.1638
 0.5850	57.1528
 0.5840	57.1598
 0.5830	57.1525
 0.5820	57.1420
 0.5810	57.1386
 0.5800	57.1285
 0.5790	57.1249
 0.5780	57.1285
 0.5770	57.1284
 0.5760	57.1347
 0.5750	57.1297
 0.5740	57.1265
 0.5730	57.1257
 0.5720	57.1192
 0.5710	57.1107
 0.5700	57.1109
 0.5690	57.1119
 0.5680	57.1010
 0.5670	57.0942
 0.5660	57.0920
 0.5650	57.0870
 0.5640	57.0739
 0.5630	57.0755
 0.5620	57.0776
 0.5610	57.0752
 0.5600	57.0630
 0.5590	57.0563
 0.5580	57.0482
 0.5570	57.0455
 0.5560	57.0391
 0.5550	57.0260
 0.5540	57.0229
 0.5530	57.0260
 0.5520	57.0142
 0.5510	56.9990
 0.5500	56.9928
 0.5490	56.9913
 0.5480	56.9807
 0.5470	56.9903
 0.5460	56.9781
 0.5450	56.9771
 0.5440	56.9594
 0.5430	56.9567
 0.5420	56.9617
 0.5410	56.9412
 0.5400	56.9251
 0.5390	56.9258
 0.5380	56.9168
 0.5370	56.9059
 0.5360	56.8914
 0.5350	56.8935
 0.5340	56.8814
 0.5330	56.8665
 0.5320	56.8669
 0.5310	56.8549
 0.5300	56.8589
 0.5290	56.8359
 0.5280	56.8325
 0.5270	56.8142
 0.5260	56.7975
 0.5250	56.8064
 0.5240	56.7904
 0.5230	56.7835
 0.5220	56.7751
 0.5210	56.7612
 0.5200	56.7593
 0.5190	56.7486
 0.5180	56.7347
 0.5170	56.7226
 0.5160	56.7252
 0.5150	56.7140
 0.5140	56.7094
 0.5130	56.6863
 0.5120	56.6650
 0.5110	56.6666
 0.5100	56.6509
 0.5090	56.6386
 0.5080	56.6324
 0.5070	56.6124
 0.5060	56.6098
 0.5050	56.5852
 0.5040	56.5706
 0.5030	56.5712
 0.5020	56.5529
 0.5010	56.5415
 0.5000	56.5236
 0.4990	56.5039
 0.4980	56.5119
 0.4970	56.4838
 0.4960	56.4854
 0.4950	56.4619
 0.4940	56.4532
 0.4930	56.4249
 0.4920	56.4374
 0.4910	56.4045
 0.4900	56.4078
 0.4890	56.3902
 0.4880	56.3648
 0.4870	56.3683
 0.4860	56.3462
 0.4850	56.3405
 0.4840	56.3329
 0.4830	56.3148
 0.4820	56.2827
 0.4810	56.2910
 0.4800	56.2789
 0.4790	56.2630
 0.4780	56.2606
 0.4770	56.2442
 0.4760	56.2291
 0.4750	56.2238
 0.4740	56.2223
 0.4730	56.2034
 0.4720	56.1993
 0.4710	56.1788
 0.4700	56.1798
 0.4690	56.1723
 0.4680	56.1556
 0.4670	56.1485
 0.4660	56.1297
 0.4650	56.1290
 0.4640	56.1243
 0.4630	56.1067
 0.4620	56.1075
 0.4610	56.0784
 0.4600	56.0627
 0.4590	56.0477
 0.4580	56.0326
 0.4570	56.0200
 0.4560	55.9950
 0.4550	55.9960
 0.4540	55.9800
 0.4530	55.9551
 0.4520	55.9494
 0.4510	55.9172
 0.4500	55.9131
 0.4490	55.8915
 0.4480	55.8582
 0.4470	55.8486
 0.4460	55.8231
 0.4450	55.7817
 0.4440	55.7483
 0.4430	55.7321
 0.4420	55.7088
 0.4410	55.6838
 0.4400	55.6533
 0.4390	55.6233
 0.4380	55.5893
 0.4370	55.5844
 0.4360	55.5581
 0.4350	55.5458
 0.4340	55.4912
 0.4330	55.4702
 0.4320	55.4219
 0.4310	55.4071
 0.4300	55.3825
 0.4290	55.3282
 0.4280	55.3059
 0.4270	55.2685
 0.4260	55.2392
 0.4250	55.2149
 0.4240	55.1745
 0.4230	55.1580
 0.4220	55.1190
 0.4210	55.0829
 0.4200	55.0540
 0.4190	55.0331
 0.4180	55.0029
 0.4170	54.9626
 0.4160	54.9383
 0.4150	54.8951
 0.4140	54.8560
 0.4130	54.8238
 0.4120	54.8113
 0.4110	54.7761
 0.4100	54.7277
 0.4090	54.6921
 0.4080	54.6561
 0.4070	54.6122
 0.4060	54.5873
 0.4050	54.5501
 0.4040	54.5132
 0.4030	54.4651
 0.4020	54.4265
 0.4010	54.3902
 0.4000	54.3645
