Name: Clinochlore (Chlorite) (Mg,Al)_6(Si,Al)_4O_10(OH)_8
Type: Mineral
Class: Silicate
Subclass: Phyllosilicate
Particle Size: Fine
Sample No.: PS-12A
Owner: JPL
Wavelength Range: VSWIR
Origin: USA, California, El Dorado County, Flagstaff Hill.
Collection Date: N/A
Description: Particle size was 0-45um.Collected by:  Clay Mineral Society Original ASTER Spectral Library name was jpl.perkin.mineral.silicate.phyllosilicate.fine.ps12a.spectrum.txt
Measurement: Hemispherical reflectance
First Column: X
Second Column: Y
X Units: Wavelength (micrometers)
Y Units:Reflectance (percent)
First X Value:  2.5000
Last X Value:  0.4000
Number of X Values: 2101
Additional Information: mineral.silicate.phyllosilicate.fine.vswir.ps-12a.jpl.perkin.ancillary.txt

 2.5000	50.3362
 2.4990	50.1445
 2.4980	49.9755
 2.4970	50.2016
 2.4960	50.1534
 2.4950	50.4129
 2.4940	50.3156
 2.4930	50.4861
 2.4920	50.3045
 2.4910	50.4710
 2.4900	50.4828
 2.4890	50.4510
 2.4880	50.3909
 2.4870	50.6697
 2.4860	50.4681
 2.4850	50.5231
 2.4840	50.5479
 2.4830	50.5043
 2.4820	50.7805
 2.4810	50.8533
 2.4800	50.8591
 2.4790	50.9674
 2.4780	50.9493
 2.4770	51.0555
 2.4760	51.0744
 2.4750	51.3251
 2.4740	51.2848
 2.4730	51.4858
 2.4720	51.4611
 2.4710	51.5317
 2.4700	51.5259
 2.4690	51.6942
 2.4680	51.8947
 2.4670	52.0904
 2.4660	51.9565
 2.4650	52.1518
 2.4640	52.1288
 2.4630	52.3656
 2.4620	52.4046
 2.4610	52.5486
 2.4600	52.5495
 2.4590	52.7539
 2.4580	52.6610
 2.4570	52.9085
 2.4560	52.7611
 2.4550	52.9193
 2.4540	52.9369
 2.4530	53.1104
 2.4520	53.1914
 2.4510	53.2622
 2.4500	53.3204
 2.4490	53.4509
 2.4480	53.3706
 2.4470	53.5291
 2.4460	53.5780
 2.4450	53.5809
 2.4440	53.6793
 2.4430	53.8895
 2.4420	53.7781
 2.4410	53.8644
 2.4400	53.7558
 2.4390	53.8680
 2.4380	53.9946
 2.4370	54.0476
 2.4360	53.9453
 2.4350	54.0612
 2.4340	53.9857
 2.4330	54.0680
 2.4320	54.1655
 2.4310	54.1946
 2.4300	54.1141
 2.4290	54.1216
 2.4280	54.2565
 2.4270	54.2552
 2.4260	54.2383
 2.4250	54.2201
 2.4240	54.2782
 2.4230	54.2382
 2.4220	54.1873
 2.4210	54.2739
 2.4200	54.2412
 2.4190	54.1700
 2.4180	54.1652
 2.4170	54.1632
 2.4160	54.0750
 2.4150	54.1693
 2.4140	54.1442
 2.4130	54.1350
 2.4120	54.0441
 2.4110	54.1016
 2.4100	54.0230
 2.4090	53.9219
 2.4080	53.8799
 2.4070	53.9142
 2.4060	53.8578
 2.4050	53.9121
 2.4040	53.8041
 2.4030	53.6986
 2.4020	53.6669
 2.4010	53.7450
 2.4000	53.7491
 2.3990	53.6999
 2.3980	53.6326
 2.3970	53.6509
 2.3960	53.5400
 2.3950	53.5440
 2.3940	53.5255
 2.3930	53.4838
 2.3920	53.4191
 2.3910	53.4146
 2.3900	53.3534
 2.3890	53.2954
 2.3880	53.1781
 2.3870	53.0552
 2.3860	52.9836
 2.3850	52.9735
 2.3840	52.8325
 2.3830	52.7437
 2.3820	52.6787
 2.3810	52.6017
 2.3800	52.4844
 2.3790	52.3270
 2.3780	52.1573
 2.3770	52.0248
 2.3760	51.9073
 2.3750	51.7935
 2.3740	51.6138
 2.3730	51.4637
 2.3720	51.2777
 2.3710	51.0832
 2.3700	50.9114
 2.3690	50.6826
 2.3680	50.4449
 2.3670	50.3028
 2.3660	50.1890
 2.3650	50.0177
 2.3640	49.8526
 2.3630	49.6927
 2.3620	49.4780
 2.3610	49.2910
 2.3600	49.1848
 2.3590	49.0616
 2.3580	48.8599
 2.3570	48.7051
 2.3560	48.5329
 2.3550	48.4206
 2.3540	48.2834
 2.3530	48.1153
 2.3520	48.0307
 2.3510	48.0023
 2.3500	47.8990
 2.3490	47.8623
 2.3480	47.8610
 2.3470	47.7679
 2.3460	47.7567
 2.3450	47.6930
 2.3440	47.6536
 2.3430	47.6437
 2.3420	47.7053
 2.3410	47.7784
 2.3400	47.7609
 2.3390	47.7711
 2.3380	47.8458
 2.3370	47.9239
 2.3360	47.9819
 2.3350	48.0382
 2.3340	48.1375
 2.3330	48.1929
 2.3320	48.2854
 2.3310	48.3541
 2.3300	48.5058
 2.3290	48.6235
 2.3280	48.6405
 2.3270	48.7249
 2.3260	48.9016
 2.3250	49.0284
 2.3240	49.0934
 2.3230	49.1923
 2.3220	49.3634
 2.3210	49.4844
 2.3200	49.5523
 2.3190	49.5873
 2.3180	49.7137
 2.3170	49.7569
 2.3160	49.8107
 2.3150	49.9155
 2.3140	50.0399
 2.3130	50.0803
 2.3120	50.1533
 2.3110	50.2132
 2.3100	50.3771
 2.3090	50.4481
 2.3080	50.4835
 2.3070	50.5504
 2.3060	50.6926
 2.3050	50.8001
 2.3040	50.8923
 2.3030	50.9113
 2.3020	50.9984
 2.3010	51.0832
 2.3000	51.2638
 2.2990	51.3473
 2.2980	51.4053
 2.2970	51.5312
 2.2960	51.6440
 2.2950	51.7267
 2.2940	51.7780
 2.2930	51.9222
 2.2920	52.1275
 2.2910	52.2381
 2.2900	52.2481
 2.2890	52.2992
 2.2880	52.4999
 2.2870	52.6523
 2.2860	52.7254
 2.2850	52.7738
 2.2840	52.8525
 2.2830	52.8367
 2.2820	52.9422
 2.2810	53.0091
 2.2800	53.0684
 2.2790	53.0535
 2.2780	53.0949
 2.2770	53.0453
 2.2760	53.0566
 2.2750	53.0706
 2.2740	53.0338
 2.2730	53.0167
 2.2720	52.9786
 2.2710	52.8275
 2.2700	52.7516
 2.2690	52.6009
 2.2680	52.5104
 2.2670	52.3597
 2.2660	52.2996
 2.2650	52.1432
 2.2640	51.9625
 2.2630	51.8804
 2.2620	51.7861
 2.2610	51.6738
 2.2600	51.6666
 2.2590	51.4783
 2.2580	51.4176
 2.2570	51.3571
 2.2560	51.3510
 2.2550	51.2933
 2.2540	51.2899
 2.2530	51.3031
 2.2520	51.3848
 2.2510	51.5250
 2.2500	51.6883
 2.2490	51.7555
 2.2480	52.1310
 2.2470	52.3538
 2.2460	52.6265
 2.2450	52.8891
 2.2440	53.3133
 2.2430	53.6262
 2.2420	53.9928
 2.2410	54.4083
 2.2400	54.7963
 2.2390	55.1912
 2.2380	55.5455
 2.2370	55.9235
 2.2360	56.3083
 2.2350	56.6711
 2.2340	56.9610
 2.2330	57.1760
 2.2320	57.5915
 2.2310	57.8662
 2.2300	58.1370
 2.2290	58.1865
 2.2280	58.5649
 2.2270	58.6477
 2.2260	58.8809
 2.2250	59.0297
 2.2240	59.1693
 2.2230	59.3017
 2.2220	59.5050
 2.2210	59.6651
 2.2200	59.7331
 2.2190	59.8491
 2.2180	59.9785
 2.2170	59.9569
 2.2160	60.1171
 2.2150	60.1278
 2.2140	60.1974
 2.2130	60.2821
 2.2120	60.4855
 2.2110	60.4037
 2.2100	60.6311
 2.2090	60.6669
 2.2080	60.7014
 2.2070	60.6983
 2.2060	60.7794
 2.2050	60.8140
 2.2040	60.9828
 2.2030	61.0328
 2.2020	61.1051
 2.2010	61.0203
 2.2000	61.1938
 2.1990	61.1943
 2.1980	61.3708
 2.1970	61.3342
 2.1960	61.3667
 2.1950	61.4439
 2.1940	61.4171
 2.1930	61.4822
 2.1920	61.5216
 2.1910	61.5846
 2.1900	61.6029
 2.1890	61.7408
 2.1880	61.7213
 2.1870	61.7246
 2.1860	61.8151
 2.1850	61.7301
 2.1840	61.8988
 2.1830	61.8812
 2.1820	61.9279
 2.1810	61.9195
 2.1800	62.0281
 2.1790	62.0000
 2.1780	62.0610
 2.1770	62.1140
 2.1760	62.1444
 2.1750	62.1048
 2.1740	62.1761
 2.1730	62.2051
 2.1720	62.2092
 2.1710	62.1705
 2.1700	62.2921
 2.1690	62.2634
 2.1680	62.2939
 2.1670	62.2823
 2.1660	62.3971
 2.1650	62.3798
 2.1640	62.4191
 2.1630	62.4468
 2.1620	62.3875
 2.1610	62.4004
 2.1600	62.5031
 2.1590	62.5306
 2.1580	62.5432
 2.1570	62.5683
 2.1560	62.5888
 2.1550	62.5841
 2.1540	62.6124
 2.1530	62.6447
 2.1520	62.6173
 2.1510	62.6424
 2.1500	62.6796
 2.1490	62.6508
 2.1480	62.6772
 2.1470	62.6400
 2.1460	62.6674
 2.1450	62.5274
 2.1440	62.5696
 2.1430	62.6053
 2.1420	62.6170
 2.1410	62.5689
 2.1400	62.5979
 2.1390	62.5169
 2.1380	62.5139
 2.1370	62.5081
 2.1360	62.5642
 2.1350	62.5914
 2.1340	62.5202
 2.1330	62.3897
 2.1320	62.3973
 2.1310	62.3955
 2.1300	62.4126
 2.1290	62.3041
 2.1280	62.2622
 2.1270	62.2177
 2.1260	62.1899
 2.1250	62.1274
 2.1240	62.0678
 2.1230	62.0189
 2.1220	62.0053
 2.1210	61.9916
 2.1200	61.9658
 2.1190	61.9163
 2.1180	61.9068
 2.1170	61.9082
 2.1160	61.8084
 2.1150	61.7800
 2.1140	61.7853
 2.1130	61.6995
 2.1120	61.5998
 2.1110	61.5554
 2.1100	61.5575
 2.1090	61.5275
 2.1080	61.5561
 2.1070	61.5388
 2.1060	61.4871
 2.1050	61.4678
 2.1040	61.4340
 2.1030	61.3682
 2.1020	61.3611
 2.1010	61.3490
 2.1000	61.3381
 2.0990	61.3561
 2.0980	61.3325
 2.0970	61.2753
 2.0960	61.3024
 2.0950	61.2519
 2.0940	61.2509
 2.0930	61.2671
 2.0920	61.2739
 2.0910	61.2900
 2.0900	61.2862
 2.0890	61.2930
 2.0880	61.2364
 2.0870	61.1902
 2.0860	61.1719
 2.0850	61.1600
 2.0840	61.1804
 2.0830	61.1716
 2.0820	61.1558
 2.0810	61.1284
 2.0800	61.0697
 2.0790	61.0401
 2.0780	61.0643
 2.0770	61.0120
 2.0760	60.9361
 2.0750	60.9350
 2.0740	60.9556
 2.0730	60.9152
 2.0720	60.8796
 2.0710	60.9165
 2.0700	60.9274
 2.0690	60.8647
 2.0680	60.8033
 2.0670	60.8011
 2.0660	60.7730
 2.0650	60.7625
 2.0640	60.7379
 2.0630	60.7360
 2.0620	60.7387
 2.0610	60.7272
 2.0600	60.7304
 2.0590	60.6765
 2.0580	60.5686
 2.0570	60.5530
 2.0560	60.4957
 2.0550	60.4403
 2.0540	60.4208
 2.0530	60.3905
 2.0520	60.3958
 2.0510	60.3590
 2.0500	60.2876
 2.0490	60.2701
 2.0480	60.2164
 2.0470	60.1948
 2.0460	60.1678
 2.0450	60.1224
 2.0440	60.0286
 2.0430	59.9977
 2.0420	59.9466
 2.0410	59.9307
 2.0400	59.8379
 2.0390	59.7601
 2.0380	59.7661
 2.0370	59.6873
 2.0360	59.5608
 2.0350	59.4977
 2.0340	59.4635
 2.0330	59.3951
 2.0320	59.2995
 2.0310	59.2619
 2.0300	59.1889
 2.0290	59.1722
 2.0280	59.0211
 2.0270	58.9644
 2.0260	58.9058
 2.0250	58.8223
 2.0240	58.7123
 2.0230	58.6619
 2.0220	58.5950
 2.0210	58.5879
 2.0200	58.4353
 2.0190	58.3572
 2.0180	58.3016
 2.0170	58.2687
 2.0160	58.2170
 2.0150	58.2121
 2.0140	58.0342
 2.0130	57.9957
 2.0120	57.9793
 2.0110	57.9239
 2.0100	57.8851
 2.0090	57.8577
 2.0080	57.7580
 2.0070	57.7722
 2.0060	57.7497
 2.0050	57.7743
 2.0040	57.6979
 2.0030	57.6240
 2.0020	57.5693
 2.0010	57.6004
 2.0000	57.5588
 1.9990	57.6078
 1.9980	57.5219
 1.9970	57.5114
 1.9960	57.4853
 1.9950	57.4611
 1.9940	57.4400
 1.9930	57.4042
 1.9920	57.3798
 1.9910	57.4290
 1.9900	57.3334
 1.9890	57.3853
 1.9880	57.3326
 1.9870	57.3775
 1.9860	57.3946
 1.9850	57.3814
 1.9840	57.3612
 1.9830	57.3963
 1.9820	57.3286
 1.9810	57.4295
 1.9800	57.4120
 1.9790	57.4368
 1.9780	57.4125
 1.9770	57.4230
 1.9760	57.3651
 1.9750	57.4636
 1.9740	57.3926
 1.9730	57.4689
 1.9720	57.4461
 1.9710	57.5314
 1.9700	57.4641
 1.9690	57.5151
 1.9680	57.4613
 1.9670	57.4860
 1.9660	57.4166
 1.9650	57.4492
 1.9640	57.4020
 1.9630	57.3546
 1.9620	57.2788
 1.9610	57.2806
 1.9600	57.2599
 1.9590	57.3652
 1.9580	57.2796
 1.9570	57.2902
 1.9560	57.1873
 1.9550	57.2744
 1.9540	57.2389
 1.9530	57.2407
 1.9520	57.1906
 1.9510	57.1911
 1.9500	57.1759
 1.9490	57.1986
 1.9480	57.1921
 1.9470	57.2031
 1.9460	57.1303
 1.9450	57.2484
 1.9440	57.1786
 1.9430	57.3139
 1.9420	57.3185
 1.9410	57.2077
 1.9400	57.2378
 1.9390	57.2397
 1.9380	57.2303
 1.9370	57.3129
 1.9360	57.2199
 1.9350	57.2133
 1.9340	57.1908
 1.9330	57.2532
 1.9320	57.1446
 1.9310	57.1900
 1.9300	57.1537
 1.9290	57.1677
 1.9280	57.0971
 1.9270	57.2263
 1.9260	57.0412
 1.9250	57.1769
 1.9240	57.0464
 1.9230	57.0763
 1.9220	56.9788
 1.9210	57.1442
 1.9200	56.9254
 1.9190	57.0988
 1.9180	56.9831
 1.9170	57.0442
 1.9160	56.9040
 1.9150	57.0133
 1.9140	56.9637
 1.9130	57.0161
 1.9120	56.8598
 1.9110	56.9410
 1.9100	56.8873
 1.9090	56.9802
 1.9080	56.8171
 1.9070	57.0017
 1.9060	56.8827
 1.9050	56.8766
 1.9040	56.8281
 1.9030	56.8298
 1.9020	56.8322
 1.9010	56.8018
 1.9000	56.7562
 1.8990	56.7233
 1.8980	56.7195
 1.8970	56.8043
 1.8960	56.7312
 1.8950	56.7675
 1.8940	56.7611
 1.8930	56.7918
 1.8920	56.6999
 1.8910	56.7916
 1.8900	56.6934
 1.8890	56.6944
 1.8880	56.7485
 1.8870	56.6899
 1.8860	56.6470
 1.8850	56.6522
 1.8840	56.6034
 1.8830	56.6048
 1.8820	56.6371
 1.8810	56.5829
 1.8800	56.4770
 1.8790	56.6422
 1.8780	56.6140
 1.8770	56.6533
 1.8760	56.5873
 1.8750	56.5805
 1.8740	56.5097
 1.8730	56.5637
 1.8720	56.5238
 1.8710	56.6120
 1.8700	56.5241
 1.8690	56.4720
 1.8680	56.4502
 1.8670	56.5397
 1.8660	56.5083
 1.8650	56.5228
 1.8640	56.5542
 1.8630	56.5868
 1.8620	56.5637
 1.8610	56.6140
 1.8600	56.5555
 1.8590	56.5056
 1.8580	56.4888
 1.8570	56.5388
 1.8560	56.4176
 1.8550	56.4948
 1.8540	56.4986
 1.8530	56.5166
 1.8520	56.4868
 1.8510	56.4235
 1.8500	56.4625
 1.8490	56.3715
 1.8480	56.3453
 1.8470	56.4302
 1.8460	56.2966
 1.8450	56.3412
 1.8440	56.3354
 1.8430	56.3446
 1.8420	56.3035
 1.8410	56.2777
 1.8400	56.2268
 1.8390	56.2558
 1.8380	56.1424
 1.8370	56.1421
 1.8360	56.0771
 1.8350	56.0469
 1.8340	56.0889
 1.8330	56.1470
 1.8320	56.0639
 1.8310	55.9941
 1.8300	55.9622
 1.8290	55.9687
 1.8280	55.9219
 1.8270	55.9170
 1.8260	55.9276
 1.8250	55.9496
 1.8240	55.8767
 1.8230	55.8591
 1.8220	55.8000
 1.8210	55.6986
 1.8200	55.6956
 1.8190	55.6927
 1.8180	55.6907
 1.8170	55.7000
 1.8160	55.5945
 1.8150	55.6044
 1.8140	55.6306
 1.8130	55.6371
 1.8120	55.5477
 1.8110	55.5365
 1.8100	55.5525
 1.8090	55.5457
 1.8080	55.4276
 1.8070	55.4084
 1.8060	55.3998
 1.8050	55.3352
 1.8040	55.3157
 1.8030	55.3011
 1.8020	55.2307
 1.8010	55.2089
 1.8000	55.1838
 1.7990	55.1524
 1.7980	55.1257
 1.7970	55.1177
 1.7960	55.1031
 1.7950	55.0858
 1.7940	55.0208
 1.7930	54.9796
 1.7920	54.9274
 1.7910	54.9093
 1.7900	54.8914
 1.7890	54.8536
 1.7880	54.7622
 1.7870	54.7193
 1.7860	54.7538
 1.7850	54.6861
 1.7840	54.6545
 1.7830	54.6655
 1.7820	54.5865
 1.7810	54.5459
 1.7800	54.5255
 1.7790	54.4508
 1.7780	54.4155
 1.7770	54.3785
 1.7760	54.3952
 1.7750	54.3252
 1.7740	54.2593
 1.7730	54.1802
 1.7720	54.1137
 1.7710	54.1419
 1.7700	54.1353
 1.7690	54.1132
 1.7680	54.1091
 1.7670	54.0532
 1.7660	54.0119
 1.7650	54.0057
 1.7640	53.9589
 1.7630	53.8887
 1.7620	53.8583
 1.7610	53.8141
 1.7600	53.7721
 1.7590	53.7291
 1.7580	53.7465
 1.7570	53.6604
 1.7560	53.5998
 1.7550	53.5668
 1.7540	53.5493
 1.7530	53.5038
 1.7520	53.4953
 1.7510	53.4594
 1.7500	53.4224
 1.7490	53.3830
 1.7480	53.3937
 1.7470	53.3059
 1.7460	53.2887
 1.7450	53.2746
 1.7440	53.2056
 1.7430	53.1728
 1.7420	53.1396
 1.7410	53.0651
 1.7400	53.0645
 1.7390	53.0337
 1.7380	53.0411
 1.7370	52.9660
 1.7360	52.9472
 1.7350	52.8652
 1.7340	52.8921
 1.7330	52.8731
 1.7320	52.8121
 1.7310	52.7497
 1.7300	52.7528
 1.7290	52.6526
 1.7280	52.6504
 1.7270	52.5988
 1.7260	52.5271
 1.7250	52.4749
 1.7240	52.4711
 1.7230	52.3324
 1.7220	52.3243
 1.7210	52.3386
 1.7200	52.2920
 1.7190	52.2636
 1.7180	52.2623
 1.7170	52.1686
 1.7160	52.1713
 1.7150	52.1047
 1.7140	52.0974
 1.7130	51.9841
 1.7120	52.0084
 1.7110	51.9458
 1.7100	51.9339
 1.7090	51.8158
 1.7080	51.7855
 1.7070	51.8379
 1.7060	51.7921
 1.7050	51.7165
 1.7040	51.6339
 1.7030	51.5509
 1.7020	51.6266
 1.7010	51.5315
 1.7000	51.5069
 1.6990	51.3915
 1.6980	51.4156
 1.6970	51.3257
 1.6960	51.3222
 1.6950	51.1602
 1.6940	51.2303
 1.6930	51.1497
 1.6920	51.1256
 1.6910	50.9826
 1.6900	51.0522
 1.6890	50.9604
 1.6880	50.8790
 1.6870	50.8861
 1.6860	50.8628
 1.6850	50.7637
 1.6840	50.7864
 1.6830	50.6920
 1.6820	50.6945
 1.6810	50.6180
 1.6800	50.6165
 1.6790	50.4602
 1.6780	50.4708
 1.6770	50.4193
 1.6760	50.4695
 1.6750	50.4355
 1.6740	50.2997
 1.6730	50.1861
 1.6720	50.2183
 1.6710	50.1950
 1.6700	50.0501
 1.6690	50.1226
 1.6680	49.9487
 1.6670	50.0701
 1.6660	50.0000
 1.6650	49.8211
 1.6640	49.8694
 1.6630	49.8085
 1.6620	49.7504
 1.6610	49.7558
 1.6600	49.6234
 1.6590	49.6476
 1.6580	49.5029
 1.6570	49.4352
 1.6560	49.4979
 1.6550	49.4037
 1.6540	49.3460
 1.6530	49.2597
 1.6520	49.2555
 1.6510	49.0961
 1.6500	49.1878
 1.6490	49.1314
 1.6480	49.1155
 1.6470	49.0240
 1.6460	49.0380
 1.6450	49.0388
 1.6440	48.9697
 1.6430	48.7606
 1.6420	48.8349
 1.6410	48.6054
 1.6400	48.7354
 1.6390	48.5573
 1.6380	48.6074
 1.6370	48.5420
 1.6360	48.4889
 1.6350	48.4639
 1.6340	48.4335
 1.6330	48.3457
 1.6320	48.2733
 1.6310	48.2200
 1.6300	48.2766
 1.6290	48.1043
 1.6280	48.1412
 1.6270	48.1379
 1.6260	48.0888
 1.6250	47.9151
 1.6240	48.0037
 1.6230	47.8392
 1.6220	47.7983
 1.6210	47.7271
 1.6200	47.7130
 1.6190	47.5611
 1.6180	47.5832
 1.6170	47.5554
 1.6160	47.5735
 1.6150	47.4036
 1.6140	47.3920
 1.6130	47.2952
 1.6120	47.3249
 1.6110	47.2077
 1.6100	47.2251
 1.6090	47.1037
 1.6080	47.1091
 1.6070	47.0333
 1.6060	47.0379
 1.6050	46.9284
 1.6040	46.8194
 1.6030	46.8235
 1.6020	46.7589
 1.6010	46.6986
 1.6000	46.6706
 1.5990	46.6219
 1.5980	46.5631
 1.5970	46.5030
 1.5960	46.4977
 1.5950	46.4303
 1.5940	46.3657
 1.5930	46.2594
 1.5920	46.2558
 1.5910	46.1252
 1.5900	46.1533
 1.5890	46.0317
 1.5880	46.0357
 1.5870	45.9315
 1.5860	45.9824
 1.5850	45.8150
 1.5840	45.8489
 1.5830	45.7746
 1.5820	45.7412
 1.5810	45.6108
 1.5800	45.6448
 1.5790	45.5568
 1.5780	45.4733
 1.5770	45.3842
 1.5760	45.3472
 1.5750	45.2885
 1.5740	45.2816
 1.5730	45.2368
 1.5720	45.1818
 1.5710	45.0854
 1.5700	45.0990
 1.5690	45.0077
 1.5680	45.0070
 1.5670	44.9129
 1.5660	44.8595
 1.5650	44.7888
 1.5640	44.7733
 1.5630	44.6986
 1.5620	44.6479
 1.5610	44.6155
 1.5600	44.5472
 1.5590	44.4547
 1.5580	44.3748
 1.5570	44.3713
 1.5560	44.3357
 1.5550	44.2539
 1.5540	44.2833
 1.5530	44.2152
 1.5520	44.2031
 1.5510	44.0699
 1.5500	44.0374
 1.5490	43.9970
 1.5480	43.9741
 1.5470	43.9066
 1.5460	43.9204
 1.5450	43.8284
 1.5440	43.7483
 1.5430	43.6895
 1.5420	43.6660
 1.5410	43.6410
 1.5400	43.6132
 1.5390	43.4956
 1.5380	43.4769
 1.5370	43.4566
 1.5360	43.4112
 1.5350	43.3159
 1.5340	43.2990
 1.5330	43.2548
 1.5320	43.2421
 1.5310	43.1182
 1.5300	43.0883
 1.5290	43.0371
 1.5280	43.0289
 1.5270	42.9917
 1.5260	42.9801
 1.5250	42.9256
 1.5240	42.8411
 1.5230	42.7815
 1.5220	42.7466
 1.5210	42.6906
 1.5200	42.6747
 1.5190	42.6491
 1.5180	42.6124
 1.5170	42.5667
 1.5160	42.5325
 1.5150	42.4499
 1.5140	42.3964
 1.5130	42.3852
 1.5120	42.3185
 1.5110	42.2779
 1.5100	42.2837
 1.5090	42.2012
 1.5080	42.1879
 1.5070	42.1152
 1.5060	42.0183
 1.5050	41.9858
 1.5040	42.0047
 1.5030	41.9802
 1.5020	41.9005
 1.5010	41.8449
 1.5000	41.7768
 1.4990	41.6723
 1.4980	41.6448
 1.4970	41.6436
 1.4960	41.6154
 1.4950	41.5600
 1.4940	41.5040
 1.4930	41.4587
 1.4920	41.4094
 1.4910	41.3913
 1.4900	41.3227
 1.4890	41.2695
 1.4880	41.1644
 1.4870	41.1021
 1.4860	41.0790
 1.4850	41.0276
 1.4840	40.9555
 1.4830	40.9910
 1.4820	40.8723
 1.4810	40.8378
 1.4800	40.7706
 1.4790	40.6996
 1.4780	40.6598
 1.4770	40.6241
 1.4760	40.5389
 1.4750	40.4830
 1.4740	40.4053
 1.4730	40.3921
 1.4720	40.3246
 1.4710	40.2494
 1.4700	40.1611
 1.4690	40.0799
 1.4680	40.0101
 1.4670	40.0046
 1.4660	39.9213
 1.4650	39.8538
 1.4640	39.8337
 1.4630	39.7789
 1.4620	39.6715
 1.4610	39.6705
 1.4600	39.5149
 1.4590	39.5187
 1.4580	39.3971
 1.4570	39.3782
 1.4560	39.3437
 1.4550	39.2438
 1.4540	39.1962
 1.4530	39.1430
 1.4520	39.0593
 1.4510	39.0768
 1.4500	38.9456
 1.4490	38.9621
 1.4480	38.9081
 1.4470	38.9111
 1.4460	38.7639
 1.4450	38.7907
 1.4440	38.7063
 1.4430	38.6487
 1.4420	38.5465
 1.4410	38.5301
 1.4400	38.5183
 1.4390	38.5387
 1.4380	38.4813
 1.4370	38.4070
 1.4360	38.3331
 1.4350	38.3694
 1.4340	38.2974
 1.4330	38.3494
 1.4320	38.1981
 1.4310	38.1885
 1.4300	38.1335
 1.4290	38.0695
 1.4280	37.9940
 1.4270	37.9705
 1.4260	37.9295
 1.4250	37.8566
 1.4240	37.7121
 1.4230	37.6542
 1.4220	37.5079
 1.4210	37.4724
 1.4200	37.3037
 1.4190	37.1437
 1.4180	36.9813
 1.4170	36.8554
 1.4160	36.6837
 1.4150	36.5809
 1.4140	36.3899
 1.4130	36.3798
 1.4120	36.1786
 1.4110	36.1951
 1.4100	36.0128
 1.4090	35.8745
 1.4080	35.8029
 1.4070	35.6989
 1.4060	35.5447
 1.4050	35.6391
 1.4040	35.5692
 1.4030	35.5534
 1.4020	35.5203
 1.4010	35.5449
 1.4000	35.4640
 1.3990	35.5467
 1.3980	35.4614
 1.3970	35.7090
 1.3960	35.6381
 1.3950	35.7148
 1.3940	35.7208
 1.3930	35.8526
 1.3920	35.8818
 1.3910	36.0561
 1.3900	36.0227
 1.3890	36.0625
 1.3880	36.0407
 1.3870	36.1282
 1.3860	36.0146
 1.3850	36.0844
 1.3840	35.9968
 1.3830	35.9698
 1.3820	35.8576
 1.3810	35.7983
 1.3800	35.7500
 1.3790	35.8093
 1.3780	35.7795
 1.3770	35.6613
 1.3760	35.5959
 1.3750	35.6053
 1.3740	35.4918
 1.3730	35.5002
 1.3720	35.2786
 1.3710	35.3530
 1.3700	35.1138
 1.3690	35.2634
 1.3680	35.0805
 1.3670	35.0064
 1.3660	35.0787
 1.3650	35.0394
 1.3640	34.8787
 1.3630	34.8935
 1.3620	34.5835
 1.3610	34.7267
 1.3600	34.6049
 1.3590	34.5859
 1.3580	34.4765
 1.3570	34.4941
 1.3560	34.4492
 1.3550	34.1604
 1.3540	34.1660
 1.3530	34.1790
 1.3520	34.0960
 1.3510	34.2190
 1.3500	33.9595
 1.3490	34.0479
 1.3480	33.8125
 1.3470	33.9364
 1.3460	33.6766
 1.3450	33.7418
 1.3440	33.6612
 1.3430	33.6641
 1.3420	33.5268
 1.3410	33.5199
 1.3400	33.3650
 1.3390	33.4694
 1.3380	33.2788
 1.3370	33.3318
 1.3360	33.1963
 1.3350	33.1389
 1.3340	33.0624
 1.3330	33.0038
 1.3320	32.8769
 1.3310	32.9630
 1.3300	32.7667
 1.3290	32.8073
 1.3280	32.5965
 1.3270	32.6846
 1.3260	32.5563
 1.3250	32.4783
 1.3240	32.4552
 1.3230	32.4141
 1.3220	32.3214
 1.3210	32.3514
 1.3200	32.1905
 1.3190	32.1574
 1.3180	32.0713
 1.3170	32.1571
 1.3160	31.8774
 1.3150	31.9436
 1.3140	31.7643
 1.3130	31.8372
 1.3120	31.7043
 1.3110	31.6643
 1.3100	31.5229
 1.3090	31.5375
 1.3080	31.4251
 1.3070	31.3987
 1.3060	31.2697
 1.3050	31.3417
 1.3040	31.1810
 1.3030	31.1678
 1.3020	31.1092
 1.3010	31.1084
 1.3000	30.9342
 1.2990	30.9049
 1.2980	30.8754
 1.2970	30.8616
 1.2960	30.6749
 1.2950	30.7041
 1.2940	30.5449
 1.2930	30.5666
 1.2920	30.4639
 1.2910	30.5136
 1.2900	30.3815
 1.2890	30.2915
 1.2880	30.2182
 1.2870	30.2836
 1.2860	30.0951
 1.2850	30.0413
 1.2840	29.9738
 1.2830	29.9466
 1.2820	29.8525
 1.2810	29.8619
 1.2800	29.8031
 1.2790	29.7574
 1.2780	29.6443
 1.2770	29.6155
 1.2760	29.4985
 1.2750	29.4477
 1.2740	29.3528
 1.2730	29.3682
 1.2720	29.2743
 1.2710	29.2557
 1.2700	29.1171
 1.2690	29.1034
 1.2680	29.0828
 1.2670	29.0718
 1.2660	28.9692
 1.2650	28.9066
 1.2640	28.8433
 1.2630	28.7926
 1.2620	28.7120
 1.2610	28.6287
 1.2600	28.5668
 1.2590	28.5600
 1.2580	28.4662
 1.2570	28.3797
 1.2560	28.3002
 1.2550	28.2838
 1.2540	28.2155
 1.2530	28.1399
 1.2520	28.0511
 1.2510	28.0303
 1.2500	27.9294
 1.2490	27.9317
 1.2480	27.8314
 1.2470	27.8374
 1.2460	27.7696
 1.2450	27.7102
 1.2440	27.5977
 1.2430	27.5607
 1.2420	27.5470
 1.2410	27.5000
 1.2400	27.4396
 1.2390	27.3905
 1.2380	27.3100
 1.2370	27.2763
 1.2360	27.1904
 1.2350	27.1458
 1.2340	27.0508
 1.2330	27.0284
 1.2320	26.9889
 1.2310	26.9624
 1.2300	26.8850
 1.2290	26.7987
 1.2280	26.7549
 1.2270	26.6974
 1.2260	26.6532
 1.2250	26.5781
 1.2240	26.5106
 1.2230	26.4708
 1.2220	26.4331
 1.2210	26.4105
 1.2200	26.3485
 1.2190	26.3124
 1.2180	26.2481
 1.2170	26.1619
 1.2160	26.1090
 1.2150	26.1190
 1.2140	26.0585
 1.2130	25.9814
 1.2120	25.9850
 1.2110	25.9105
 1.2100	25.8265
 1.2090	25.7742
 1.2080	25.7407
 1.2070	25.7177
 1.2060	25.6889
 1.2050	25.6285
 1.2040	25.5770
 1.2030	25.5161
 1.2020	25.4260
 1.2010	25.3750
 1.2000	25.3756
 1.1990	25.2977
 1.1980	25.2567
 1.1970	25.2584
 1.1960	25.2068
 1.1950	25.1335
 1.1940	25.0693
 1.1930	25.0424
 1.1920	25.0177
 1.1910	24.9240
 1.1900	24.9190
 1.1890	25.0017
 1.1880	24.8247
 1.1870	24.7130
 1.1860	24.7352
 1.1850	24.6779
 1.1840	24.6795
 1.1830	24.6113
 1.1820	24.5356
 1.1810	24.5193
 1.1800	24.4832
 1.1790	24.4147
 1.1780	24.4105
 1.1770	24.3892
 1.1760	24.3844
 1.1750	24.2610
 1.1740	24.2618
 1.1730	24.1889
 1.1720	24.1744
 1.1710	24.1129
 1.1700	24.1084
 1.1690	24.0114
 1.1680	24.0566
 1.1670	23.9726
 1.1660	23.9676
 1.1650	23.8794
 1.1640	23.8614
 1.1630	23.8325
 1.1620	23.8017
 1.1610	23.7235
 1.1600	23.7284
 1.1590	23.6858
 1.1580	23.7270
 1.1570	23.6186
 1.1560	23.6245
 1.1550	23.6343
 1.1540	23.5496
 1.1530	23.4643
 1.1520	23.4923
 1.1510	23.4266
 1.1500	23.4434
 1.1490	23.3062
 1.1480	23.3311
 1.1470	23.2829
 1.1460	23.3284
 1.1450	23.1822
 1.1440	23.2447
 1.1430	23.2359
 1.1420	23.2082
 1.1410	23.1504
 1.1400	23.1814
 1.1390	23.0761
 1.1380	23.1042
 1.1370	23.0888
 1.1360	23.0329
 1.1350	22.9036
 1.1340	22.9385
 1.1330	22.8817
 1.1320	22.9534
 1.1310	22.9565
 1.1300	22.9457
 1.1290	22.8052
 1.1280	22.8172
 1.1270	22.7271
 1.1260	22.9206
 1.1250	22.7292
 1.1240	22.8048
 1.1230	22.7270
 1.1220	22.7524
 1.1210	22.6625
 1.1200	22.6844
 1.1190	22.7058
 1.1180	22.6711
 1.1170	22.6037
 1.1160	22.6349
 1.1150	22.6077
 1.1140	22.6081
 1.1130	22.5426
 1.1120	22.6216
 1.1110	22.4923
 1.1100	22.5331
 1.1090	22.4821
 1.1080	22.5126
 1.1070	22.4838
 1.1060	22.4954
 1.1050	22.3998
 1.1040	22.5272
 1.1030	22.4589
 1.1020	22.3736
 1.1010	22.3171
 1.1000	22.4016
 1.0990	22.2965
 1.0980	22.3478
 1.0970	22.3346
 1.0960	22.4021
 1.0950	22.2558
 1.0940	22.3397
 1.0930	22.2804
 1.0920	22.3074
 1.0910	22.2621
 1.0900	22.2484
 1.0890	22.2003
 1.0880	22.2941
 1.0870	22.1931
 1.0860	22.2529
 1.0850	22.1830
 1.0840	22.2524
 1.0830	22.2250
 1.0820	22.2016
 1.0810	22.1928
 1.0800	22.2124
 1.0790	22.1557
 1.0780	22.2405
 1.0770	22.1564
 1.0760	22.1691
 1.0750	22.0968
 1.0740	22.1275
 1.0730	22.1094
 1.0720	22.1498
 1.0710	22.1882
 1.0700	22.1158
 1.0690	22.1238
 1.0680	22.1356
 1.0670	22.0281
 1.0660	22.0856
 1.0650	22.0807
 1.0640	22.0861
 1.0630	22.0116
 1.0620	22.1180
 1.0610	22.0253
 1.0600	22.0602
 1.0590	21.9924
 1.0580	22.0912
 1.0570	21.9466
 1.0560	22.1155
 1.0550	21.9182
 1.0540	22.0101
 1.0530	22.0426
 1.0520	22.0374
 1.0510	21.9299
 1.0500	22.0859
 1.0490	21.9647
 1.0480	22.0327
 1.0470	21.9072
 1.0460	22.0421
 1.0450	21.9398
 1.0440	22.0673
 1.0430	21.8940
 1.0420	21.9976
 1.0410	21.8626
 1.0400	22.0124
 1.0390	21.9189
 1.0380	21.9857
 1.0370	21.9046
 1.0360	21.9031
 1.0350	21.8103
 1.0340	21.9312
 1.0330	21.8886
 1.0320	21.9017
 1.0310	21.7529
 1.0300	21.8905
 1.0290	21.8583
 1.0280	21.8956
 1.0270	21.8453
 1.0260	21.8239
 1.0250	21.7814
 1.0240	21.7775
 1.0230	21.7981
 1.0220	21.7736
 1.0210	21.7316
 1.0200	21.8906
 1.0190	21.7419
 1.0180	21.7803
 1.0170	21.6828
 1.0160	21.7215
 1.0150	21.5803
 1.0140	21.7085
 1.0130	21.7244
 1.0120	21.6834
 1.0110	21.6378
 1.0100	21.7361
 1.0090	21.5748
 1.0080	21.6300
 1.0070	21.5199
 1.0060	21.6585
 1.0050	21.5033
 1.0040	21.5785
 1.0030	21.5248
 1.0020	21.5025
 1.0010	21.4194
 1.0000	21.4518
 0.9990	21.4190
 0.9980	21.4214
 0.9970	21.3836
 0.9960	21.4218
 0.9950	21.3501
 0.9940	21.3527
 0.9930	21.2510
 0.9920	21.2886
 0.9910	21.2305
 0.9900	21.2676
 0.9890	21.1395
 0.9880	21.2029
 0.9870	21.1295
 0.9860	21.1574
 0.9850	21.1123
 0.9840	21.1029
 0.9830	21.0180
 0.9820	20.9935
 0.9810	20.9792
 0.9800	20.9896
 0.9790	20.8585
 0.9780	20.8992
 0.9770	20.9092
 0.9760	20.8621
 0.9750	20.7753
 0.9740	20.7635
 0.9730	20.7113
 0.9720	20.7975
 0.9710	20.7152
 0.9700	20.6905
 0.9690	20.6029
 0.9680	20.5931
 0.9670	20.5085
 0.9660	20.5324
 0.9650	20.5138
 0.9640	20.4448
 0.9630	20.2932
 0.9620	20.3693
 0.9610	20.3775
 0.9600	20.3696
 0.9590	20.2959
 0.9580	20.2849
 0.9570	20.2051
 0.9560	20.1671
 0.9550	20.0802
 0.9540	20.1112
 0.9530	20.1043
 0.9520	20.0644
 0.9510	19.9801
 0.9500	19.9823
 0.9490	19.9458
 0.9480	19.9118
 0.9470	19.8684
 0.9460	19.8475
 0.9450	19.7937
 0.9440	19.8154
 0.9430	19.7779
 0.9420	19.6693
 0.9410	19.6872
 0.9400	19.6602
 0.9390	19.5826
 0.9380	19.6117
 0.9370	19.5689
 0.9360	19.5258
 0.9350	19.5277
 0.9340	19.5253
 0.9330	19.4108
 0.9320	19.3638
 0.9310	19.3920
 0.9300	19.3953
 0.9290	19.3465
 0.9280	19.3157
 0.9270	19.3121
 0.9260	19.2977
 0.9250	19.3023
 0.9240	19.2665
 0.9230	19.2525
 0.9220	19.2234
 0.9210	19.1728
 0.9200	19.1341
 0.9190	19.1406
 0.9180	19.1347
 0.9170	19.1565
 0.9160	19.1106
 0.9150	19.1109
 0.9140	19.0675
 0.9130	19.0174
 0.9120	18.9905
 0.9110	19.0188
 0.9100	18.9890
 0.9090	18.9872
 0.9080	18.9621
 0.9070	18.9146
 0.9060	18.8878
 0.9050	18.9790
 0.9040	18.9349
 0.9030	18.8915
 0.9020	18.9468
 0.9010	18.9704
 0.9000	18.9148
 0.8990	18.9271
 0.8980	18.9289
 0.8970	18.9430
 0.8960	18.9141
 0.8950	18.9629
 0.8940	18.9034
 0.8930	18.9408
 0.8920	18.9496
 0.8910	18.9407
 0.8900	18.8500
 0.8890	18.9044
 0.8880	18.8880
 0.8870	18.9600
 0.8860	18.9465
 0.8850	19.0142
 0.8840	18.9461
 0.8830	19.0240
 0.8820	18.9376
 0.8810	18.9788
 0.8800	18.9544
 0.8790	18.9852
 0.8780	18.9889
 0.8770	19.0263
 0.8760	18.9835
 0.8750	19.0515
 0.8740	19.0285
 0.8730	19.0364
 0.8720	19.0374
 0.8710	19.0490
 0.8700	19.1368
 0.8690	19.1473
 0.8680	19.0531
 0.8670	19.1681
 0.8660	19.1145
 0.8650	19.2529
 0.8640	19.1605
 0.8630	19.2363
 0.8620	19.1518
 0.8610	19.2271
 0.8600	19.4910
 0.8590	19.5911
 0.8580	19.6179
 0.8570	19.6512
 0.8560	19.6488
 0.8550	19.6812
 0.8540	19.6936
 0.8530	19.7370
 0.8520	19.7398
 0.8510	19.7772
 0.8500	19.7817
 0.8490	19.8041
 0.8480	19.8302
 0.8470	19.8695
 0.8460	19.8694
 0.8450	19.8976
 0.8440	19.9225
 0.8430	19.9484
 0.8420	19.9655
 0.8410	19.9766
 0.8400	19.9838
 0.8390	20.0267
 0.8380	20.0436
 0.8370	20.0493
 0.8360	20.0910
 0.8350	20.1188
 0.8340	20.1243
 0.8330	20.1334
 0.8320	20.1512
 0.8310	20.1712
 0.8300	20.2020
 0.8290	20.1906
 0.8280	20.1971
 0.8270	20.1920
 0.8260	20.1994
 0.8250	20.2096
 0.8240	20.2145
 0.8230	20.2465
 0.8220	20.2394
 0.8210	20.2530
 0.8200	20.2552
 0.8190	20.2696
 0.8180	20.2805
 0.8170	20.2766
 0.8160	20.2874
 0.8150	20.3062
 0.8140	20.2821
 0.8130	20.2848
 0.8120	20.2892
 0.8110	20.2974
 0.8100	20.2884
 0.8090	20.2800
 0.8080	20.2624
 0.8070	20.2497
 0.8060	20.2559
 0.8050	20.2357
 0.8040	20.2364
 0.8030	20.2231
 0.8020	20.1967
 0.8010	20.1905
 0.8000	20.1638
 0.7990	20.1368
 0.7980	20.1214
 0.7970	20.0856
 0.7960	20.0722
 0.7950	20.0403
 0.7940	20.0028
 0.7930	19.9873
 0.7920	19.9636
 0.7910	19.9258
 0.7900	19.8896
 0.7890	19.8623
 0.7880	19.8459
 0.7870	19.7975
 0.7860	19.7758
 0.7850	19.7345
 0.7840	19.7061
 0.7830	19.6726
 0.7820	19.6208
 0.7810	19.5811
 0.7800	19.5476
 0.7790	19.5216
 0.7780	19.5081
 0.7770	19.4798
 0.7760	19.4391
 0.7750	19.3954
 0.7740	19.3478
 0.7730	19.3068
 0.7720	19.2704
 0.7710	19.2175
 0.7700	19.1938
 0.7690	19.1505
 0.7680	19.1066
 0.7670	19.0694
 0.7660	19.0130
 0.7650	18.9856
 0.7640	18.9476
 0.7630	18.9034
 0.7620	18.8675
 0.7610	18.8217
 0.7600	18.7750
 0.7590	18.7528
 0.7580	18.7044
 0.7570	18.6729
 0.7560	18.6373
 0.7550	18.5990
 0.7540	18.5591
 0.7530	18.5327
 0.7520	18.4937
 0.7510	18.4561
 0.7500	18.4280
 0.7490	18.3982
 0.7480	18.3568
 0.7470	18.3325
 0.7460	18.3006
 0.7450	18.2772
 0.7440	18.2359
 0.7430	18.2212
 0.7420	18.1918
 0.7410	18.1610
 0.7400	18.1374
 0.7390	18.1122
 0.7380	18.0924
 0.7370	18.0653
 0.7360	18.0399
 0.7350	18.0278
 0.7340	18.0090
 0.7330	17.9935
 0.7320	17.9699
 0.7310	17.9544
 0.7300	17.9451
 0.7290	17.9264
 0.7280	17.9151
 0.7270	17.9034
 0.7260	17.8916
 0.7250	17.8781
 0.7240	17.8730
 0.7230	17.8601
 0.7220	17.8507
 0.7210	17.8493
 0.7200	17.8409
 0.7190	17.8369
 0.7180	17.8383
 0.7170	17.8347
 0.7160	17.8372
 0.7150	17.8322
 0.7140	17.8345
 0.7130	17.8497
 0.7120	17.8490
 0.7110	17.8548
 0.7100	17.8643
 0.7090	17.8743
 0.7080	17.8770
 0.7070	17.8857
 0.7060	17.8960
 0.7050	17.9062
 0.7040	17.9167
 0.7030	17.9282
 0.7020	17.9486
 0.7010	17.9658
 0.7000	17.9790
 0.6990	17.9961
 0.6980	18.0208
 0.6970	18.0408
 0.6960	18.0568
 0.6950	18.0836
 0.6940	18.1074
 0.6930	18.1282
 0.6920	18.1485
 0.6910	18.1743
 0.6900	18.1865
 0.6890	18.1933
 0.6880	18.2084
 0.6870	18.2360
 0.6860	18.2688
 0.6850	18.3046
 0.6840	18.3380
 0.6830	18.3668
 0.6820	18.3972
 0.6810	18.4383
 0.6800	18.4765
 0.6790	18.5069
 0.6780	18.5425
 0.6770	18.5804
 0.6760	18.6148
 0.6750	18.6496
 0.6740	18.6951
 0.6730	18.7338
 0.6720	18.7702
 0.6710	18.8152
 0.6700	18.8608
 0.6690	18.8988
 0.6680	18.9395
 0.6670	18.9899
 0.6660	19.0341
 0.6650	19.0823
 0.6640	19.1301
 0.6630	19.1740
 0.6620	19.2189
 0.6610	19.2644
 0.6600	19.3085
 0.6590	19.3578
 0.6580	19.4122
 0.6570	19.4590
 0.6560	19.5046
 0.6550	19.5521
 0.6540	19.6013
 0.6530	19.6545
 0.6520	19.7109
 0.6510	19.7603
 0.6500	19.8089
 0.6490	19.8646
 0.6480	19.9187
 0.6470	19.9726
 0.6460	20.0282
 0.6450	20.0821
 0.6440	20.1358
 0.6430	20.1894
 0.6420	20.2443
 0.6410	20.3045
 0.6400	20.3571
 0.6390	20.4093
 0.6380	20.4676
 0.6370	20.5256
 0.6360	20.5809
 0.6350	20.6389
 0.6340	20.6989
 0.6330	20.7590
 0.6320	20.8170
 0.6310	20.8691
 0.6300	20.9261
 0.6290	20.9857
 0.6280	21.0465
 0.6270	21.1051
 0.6260	21.1635
 0.6250	21.2263
 0.6240	21.2852
 0.6230	21.3448
 0.6220	21.4030
 0.6210	21.4642
 0.6200	21.5255
 0.6190	21.5803
 0.6180	21.6385
 0.6170	21.7019
 0.6160	21.7608
 0.6150	21.8186
 0.6140	21.8759
 0.6130	21.9332
 0.6120	21.9928
 0.6110	22.0589
 0.6100	22.1182
 0.6090	22.1749
 0.6080	22.2369
 0.6070	22.2981
 0.6060	22.3597
 0.6050	22.4174
 0.6040	22.4776
 0.6030	22.5322
 0.6020	22.5873
 0.6010	22.6478
 0.6000	22.7132
 0.5990	22.7715
 0.5980	22.8305
 0.5970	22.8953
 0.5960	22.9577
 0.5950	23.0179
 0.5940	23.0787
 0.5930	23.1372
 0.5920	23.1878
 0.5910	23.2412
 0.5900	23.2980
 0.5890	23.3511
 0.5880	23.4031
 0.5870	23.4577
 0.5860	23.5095
 0.5850	23.5604
 0.5840	23.6085
 0.5830	23.6596
 0.5820	23.7128
 0.5810	23.7620
 0.5800	23.8066
 0.5790	23.8499
 0.5780	23.8930
 0.5770	23.9369
 0.5760	23.9843
 0.5750	24.0260
 0.5740	24.0662
 0.5730	24.1117
 0.5720	24.1509
 0.5710	24.1835
 0.5700	24.2172
 0.5690	24.2564
 0.5680	24.2825
 0.5670	24.3119
 0.5660	24.3427
 0.5650	24.3701
 0.5640	24.3968
 0.5630	24.4190
 0.5620	24.4401
 0.5610	24.4638
 0.5600	24.4826
 0.5590	24.4994
 0.5580	24.5164
 0.5570	24.5297
 0.5560	24.5390
 0.5550	24.5475
 0.5540	24.5515
 0.5530	24.5531
 0.5520	24.5554
 0.5510	24.5571
 0.5500	24.5580
 0.5490	24.5565
 0.5480	24.5529
 0.5470	24.5477
 0.5460	24.5383
 0.5450	24.5313
 0.5440	24.5169
 0.5430	24.5029
 0.5420	24.4896
 0.5410	24.4716
 0.5400	24.4535
 0.5390	24.4331
 0.5380	24.4153
 0.5370	24.3976
 0.5360	24.3816
 0.5350	24.3652
 0.5340	24.3458
 0.5330	24.3297
 0.5320	24.3148
 0.5310	24.2973
 0.5300	24.2856
 0.5290	24.2727
 0.5280	24.2645
 0.5270	24.2477
 0.5260	24.2324
 0.5250	24.2127
 0.5240	24.1969
 0.5230	24.1740
 0.5220	24.1464
 0.5210	24.1193
 0.5200	24.0949
 0.5190	24.0506
 0.5180	24.0184
 0.5170	23.9694
 0.5160	23.9218
 0.5150	23.8749
 0.5140	23.8145
 0.5130	23.7546
 0.5120	23.6969
 0.5110	23.6297
 0.5100	23.5541
 0.5090	23.4924
 0.5080	23.4103
 0.5070	23.3297
 0.5060	23.2423
 0.5050	23.1535
 0.5040	23.0558
 0.5030	22.9587
 0.5020	22.8453
 0.5010	22.7263
 0.5000	22.6126
 0.4990	22.4889
 0.4980	22.3617
 0.4970	22.2469
 0.4960	22.1514
 0.4950	22.0760
 0.4940	22.0246
 0.4930	21.9804
 0.4920	21.9690
 0.4910	21.9480
 0.4900	21.9080
 0.4890	21.8627
 0.4880	21.7976
 0.4870	21.7092
 0.4860	21.6113
 0.4850	21.4975
 0.4840	21.3844
 0.4830	21.2739
 0.4820	21.1585
 0.4810	21.0441
 0.4800	20.9356
 0.4790	20.8295
 0.4780	20.7094
 0.4770	20.5893
 0.4760	20.4707
 0.4750	20.3535
 0.4740	20.2316
 0.4730	20.1212
 0.4720	20.0074
 0.4710	19.8892
 0.4700	19.7839
 0.4690	19.6835
 0.4680	19.5729
 0.4670	19.4708
 0.4660	19.3808
 0.4650	19.2941
 0.4640	19.2075
 0.4630	19.1262
 0.4620	19.0467
 0.4610	18.9763
 0.4600	18.8962
 0.4590	18.8199
 0.4580	18.7563
 0.4570	18.6871
 0.4560	18.6255
 0.4550	18.5565
 0.4540	18.5049
 0.4530	18.4487
 0.4520	18.3951
 0.4510	18.3554
 0.4500	18.3043
 0.4490	18.2687
 0.4480	18.2220
 0.4470	18.1698
 0.4460	18.1261
 0.4450	18.0934
 0.4440	18.0141
 0.4430	17.9332
 0.4420	17.8457
 0.4410	17.7336
 0.4400	17.6299
 0.4390	17.5178
 0.4380	17.4080
 0.4370	17.2908
 0.4360	17.1688
 0.4350	17.0517
 0.4340	16.9310
 0.4330	16.8173
 0.4320	16.6980
 0.4310	16.5872
 0.4300	16.4666
 0.4290	16.3449
 0.4280	16.2271
 0.4270	16.1083
 0.4260	15.9842
 0.4250	15.8569
 0.4240	15.7333
 0.4230	15.6156
 0.4220	15.4903
 0.4210	15.3694
 0.4200	15.2474
 0.4190	15.1385
 0.4180	15.0188
 0.4170	14.9045
 0.4160	14.8029
 0.4150	14.6951
 0.4140	14.5938
 0.4130	14.5002
 0.4120	14.4181
 0.4110	14.3339
 0.4100	14.2468
 0.4090	14.1683
 0.4080	14.1001
 0.4070	14.0291
 0.4060	13.9624
 0.4050	13.8976
 0.4040	13.8382
 0.4030	13.7833
 0.4020	13.7376
 0.4010	13.6883
 0.4000	13.6382
