Name: Quartz SiO_2
Type: Mineral
Class: Silicate
Subclass: Tectosilicate
Particle Size: Medium
Sample No.: TS-1D
Owner: JPL
Wavelength Range: VSWIR
Origin: USA, Coloradi, Buffalo.
Collection Date: N/A
Description: Milky quartzParticle size was 45-125um.Collected by:  Ward's Original ASTER Spectral Library name was jpl.perkin.mineral.silicate.tectosilicate.medium.ts01d.spectrum.txt
Measurement: Hemispherical reflectance
First Column: X
Second Column: Y
X Units: Wavelength (micrometers)
Y Units:Reflectance (percent)
First X Value:  2.5000
Last X Value:  0.4000
Number of X Values: 2101
Additional Information: mineral.silicate.tectosilicate.medium.vswir.ts-1d.jpl.perkin.ancillary.txt

 2.5000	82.2017
 2.4990	82.2165
 2.4980	82.1557
 2.4970	82.0284
 2.4960	82.0287
 2.4950	82.1132
 2.4940	81.9552
 2.4930	82.0530
 2.4920	81.9587
 2.4910	82.0898
 2.4900	81.9015
 2.4890	82.0691
 2.4880	82.0059
 2.4870	81.8264
 2.4860	81.8887
 2.4850	82.0218
 2.4840	81.9279
 2.4830	82.0706
 2.4820	82.0697
 2.4810	82.1312
 2.4800	82.1851
 2.4790	82.2777
 2.4780	82.3423
 2.4770	82.0760
 2.4760	82.2206
 2.4750	82.2315
 2.4740	82.0465
 2.4730	82.2439
 2.4720	82.0261
 2.4710	82.1113
 2.4700	82.3625
 2.4690	82.3074
 2.4680	82.2781
 2.4670	82.1786
 2.4660	82.1820
 2.4650	82.2867
 2.4640	82.3241
 2.4630	82.4384
 2.4620	82.3472
 2.4610	82.3100
 2.4600	82.5107
 2.4590	82.4790
 2.4580	82.3049
 2.4570	82.4139
 2.4560	82.4434
 2.4550	82.5180
 2.4540	82.4277
 2.4530	82.3673
 2.4520	82.5733
 2.4510	82.3959
 2.4500	82.4223
 2.4490	82.3701
 2.4480	82.4534
 2.4470	82.5948
 2.4460	82.5194
 2.4450	82.4563
 2.4440	82.4656
 2.4430	82.6262
 2.4420	82.5163
 2.4410	82.4998
 2.4400	82.6079
 2.4390	82.5554
 2.4380	82.6287
 2.4370	82.7124
 2.4360	82.6163
 2.4350	82.6821
 2.4340	82.6887
 2.4330	82.6900
 2.4320	82.7059
 2.4310	82.7811
 2.4300	82.7254
 2.4290	82.7054
 2.4280	82.6831
 2.4270	82.6913
 2.4260	82.8038
 2.4250	82.7677
 2.4240	82.7850
 2.4230	82.8001
 2.4220	82.8416
 2.4210	82.8396
 2.4200	82.8515
 2.4190	82.8741
 2.4180	82.8926
 2.4170	82.8634
 2.4160	82.9439
 2.4150	83.0154
 2.4140	82.9461
 2.4130	83.0527
 2.4120	83.1030
 2.4110	83.0126
 2.4100	82.9767
 2.4090	83.0375
 2.4080	82.9799
 2.4070	83.1007
 2.4060	83.1422
 2.4050	83.1169
 2.4040	83.0582
 2.4030	83.0299
 2.4020	83.0076
 2.4010	83.1437
 2.4000	83.1653
 2.3990	83.1809
 2.3980	83.1514
 2.3970	83.1245
 2.3960	83.1951
 2.3950	83.1574
 2.3940	83.1465
 2.3930	83.2602
 2.3920	83.2186
 2.3910	83.2682
 2.3900	83.2585
 2.3890	83.2827
 2.3880	83.3190
 2.3870	83.2732
 2.3860	83.2998
 2.3850	83.4072
 2.3840	83.4104
 2.3830	83.4077
 2.3820	83.4807
 2.3810	83.5464
 2.3800	83.5186
 2.3790	83.4839
 2.3780	83.5421
 2.3770	83.4997
 2.3760	83.4381
 2.3750	83.5301
 2.3740	83.5807
 2.3730	83.5677
 2.3720	83.6527
 2.3710	83.7090
 2.3700	83.6678
 2.3690	83.6754
 2.3680	83.6617
 2.3670	83.7070
 2.3660	83.8068
 2.3650	83.7409
 2.3640	83.6437
 2.3630	83.6940
 2.3620	83.6764
 2.3610	83.7038
 2.3600	83.8069
 2.3590	83.8405
 2.3580	83.7976
 2.3570	83.8098
 2.3560	83.8749
 2.3550	83.9314
 2.3540	83.9433
 2.3530	83.8078
 2.3520	83.7883
 2.3510	83.8533
 2.3500	83.8349
 2.3490	83.8575
 2.3480	83.9196
 2.3470	83.9202
 2.3460	83.9153
 2.3450	83.9640
 2.3440	83.9363
 2.3430	83.8980
 2.3420	83.8810
 2.3410	83.9271
 2.3400	83.9365
 2.3390	83.9106
 2.3380	83.8953
 2.3370	83.9497
 2.3360	83.9877
 2.3350	83.9077
 2.3340	83.8525
 2.3330	83.8621
 2.3320	83.8263
 2.3310	83.8813
 2.3300	83.9393
 2.3290	83.9136
 2.3280	83.9113
 2.3270	83.8923
 2.3260	83.9025
 2.3250	83.9371
 2.3240	83.9315
 2.3230	83.9035
 2.3220	83.9268
 2.3210	83.8868
 2.3200	83.8511
 2.3190	83.8789
 2.3180	83.8987
 2.3170	83.9222
 2.3160	83.8829
 2.3150	83.8148
 2.3140	83.7905
 2.3130	83.8338
 2.3120	83.8507
 2.3110	83.8324
 2.3100	83.9071
 2.3090	83.8995
 2.3080	83.8632
 2.3070	83.9016
 2.3060	83.8359
 2.3050	83.8741
 2.3040	83.9098
 2.3030	83.9121
 2.3020	83.8520
 2.3010	83.8579
 2.3000	83.8993
 2.2990	83.8781
 2.2980	83.8497
 2.2970	83.9207
 2.2960	83.9342
 2.2950	83.9367
 2.2940	83.8767
 2.2930	83.8382
 2.2920	83.8354
 2.2910	83.8801
 2.2900	83.8188
 2.2890	83.8453
 2.2880	83.8445
 2.2870	83.8519
 2.2860	83.8569
 2.2850	83.8331
 2.2840	83.8258
 2.2830	83.7690
 2.2820	83.7650
 2.2810	83.8581
 2.2800	83.8192
 2.2790	83.8059
 2.2780	83.8258
 2.2770	83.8248
 2.2760	83.8432
 2.2750	83.8442
 2.2740	83.8293
 2.2730	83.7949
 2.2720	83.7575
 2.2710	83.8463
 2.2700	83.8038
 2.2690	83.8151
 2.2680	83.8493
 2.2670	83.7952
 2.2660	83.8281
 2.2650	83.8008
 2.2640	83.8087
 2.2630	83.8619
 2.2620	83.8566
 2.2610	83.8331
 2.2600	83.8541
 2.2590	83.7421
 2.2580	83.8172
 2.2570	83.8814
 2.2560	83.8445
 2.2550	83.8554
 2.2540	83.7985
 2.2530	83.8121
 2.2520	83.8222
 2.2510	83.8515
 2.2500	83.8694
 2.2490	83.9131
 2.2480	83.7936
 2.2470	83.8590
 2.2460	83.8168
 2.2450	83.8400
 2.2440	83.8209
 2.2430	83.8956
 2.2420	83.8685
 2.2410	83.7996
 2.2400	83.8502
 2.2390	83.8807
 2.2380	83.8938
 2.2370	83.8941
 2.2360	83.8565
 2.2350	83.9715
 2.2340	83.8700
 2.2330	83.8787
 2.2320	83.9180
 2.2310	83.9824
 2.2300	83.9287
 2.2290	83.9568
 2.2280	83.9421
 2.2270	83.9308
 2.2260	83.9560
 2.2250	83.9496
 2.2240	83.9945
 2.2230	84.0268
 2.2220	83.9558
 2.2210	83.9421
 2.2200	83.9348
 2.2190	84.0304
 2.2180	84.0509
 2.2170	83.9997
 2.2160	83.9726
 2.2150	84.0791
 2.2140	84.0275
 2.2130	84.1478
 2.2120	84.1162
 2.2110	84.0594
 2.2100	84.2302
 2.2090	84.0065
 2.2080	84.0834
 2.2070	84.1677
 2.2060	84.2160
 2.2050	84.1353
 2.2040	84.2526
 2.2030	84.2432
 2.2020	84.3337
 2.2010	84.2475
 2.2000	84.3491
 2.1990	84.3994
 2.1980	84.4216
 2.1970	84.2791
 2.1960	84.4008
 2.1950	84.3193
 2.1940	84.3674
 2.1930	84.3742
 2.1920	84.4252
 2.1910	84.3899
 2.1900	84.3916
 2.1890	84.4524
 2.1880	84.4869
 2.1870	84.5262
 2.1860	84.4720
 2.1850	84.4298
 2.1840	84.5336
 2.1830	84.5383
 2.1820	84.5775
 2.1810	84.7076
 2.1800	84.6655
 2.1790	84.7703
 2.1780	84.6589
 2.1770	84.6679
 2.1760	84.6556
 2.1750	84.7025
 2.1740	84.7909
 2.1730	84.7041
 2.1720	84.7942
 2.1710	84.8627
 2.1700	84.8710
 2.1690	84.9138
 2.1680	85.0075
 2.1670	85.0221
 2.1660	85.0006
 2.1650	85.0412
 2.1640	84.9891
 2.1630	85.0472
 2.1620	85.1125
 2.1610	85.1526
 2.1600	85.1742
 2.1590	85.0735
 2.1580	85.1136
 2.1570	85.1951
 2.1560	85.2967
 2.1550	85.2740
 2.1540	85.3865
 2.1530	85.2696
 2.1520	85.2953
 2.1510	85.2207
 2.1500	85.3249
 2.1490	85.3556
 2.1480	85.4349
 2.1470	85.3589
 2.1460	85.3998
 2.1450	85.4090
 2.1440	85.4266
 2.1430	85.3872
 2.1420	85.3168
 2.1410	85.2862
 2.1400	85.3397
 2.1390	85.3271
 2.1380	85.2773
 2.1370	85.3187
 2.1360	85.2938
 2.1350	85.2839
 2.1340	85.2597
 2.1330	85.1733
 2.1320	85.2568
 2.1310	85.2965
 2.1300	85.1966
 2.1290	85.0527
 2.1280	85.0755
 2.1270	85.0134
 2.1260	85.0315
 2.1250	85.0819
 2.1240	85.0167
 2.1230	84.8732
 2.1220	84.8522
 2.1210	84.8447
 2.1200	84.7953
 2.1190	84.7218
 2.1180	84.6528
 2.1170	84.6425
 2.1160	84.6116
 2.1150	84.5303
 2.1140	84.4882
 2.1130	84.5083
 2.1120	84.4560
 2.1110	84.3835
 2.1100	84.3593
 2.1090	84.3136
 2.1080	84.2315
 2.1070	84.2305
 2.1060	84.1495
 2.1050	84.0660
 2.1040	84.0871
 2.1030	84.1283
 2.1020	84.0216
 2.1010	83.9469
 2.1000	83.9365
 2.0990	83.8829
 2.0980	83.8643
 2.0970	83.9305
 2.0960	83.9261
 2.0950	83.9310
 2.0940	83.9143
 2.0930	83.9397
 2.0920	83.9940
 2.0910	83.9953
 2.0900	84.0798
 2.0890	84.1192
 2.0880	84.0580
 2.0870	84.0320
 2.0860	84.0818
 2.0850	84.0244
 2.0840	84.0070
 2.0830	84.0994
 2.0820	84.0717
 2.0810	84.0581
 2.0800	84.1138
 2.0790	84.1290
 2.0780	84.1231
 2.0770	84.1973
 2.0760	84.2127
 2.0750	84.2349
 2.0740	84.2191
 2.0730	84.1301
 2.0720	84.2077
 2.0710	84.2861
 2.0700	84.2512
 2.0690	84.2725
 2.0680	84.2791
 2.0670	84.2989
 2.0660	84.3635
 2.0650	84.3371
 2.0640	84.3048
 2.0630	84.3113
 2.0620	84.2873
 2.0610	84.3182
 2.0600	84.3356
 2.0590	84.2759
 2.0580	84.2865
 2.0570	84.3784
 2.0560	84.3641
 2.0550	84.3970
 2.0540	84.4352
 2.0530	84.4468
 2.0520	84.4684
 2.0510	84.4397
 2.0500	84.4799
 2.0490	84.5264
 2.0480	84.5006
 2.0470	84.4509
 2.0460	84.4259
 2.0450	84.4922
 2.0440	84.4728
 2.0430	84.4650
 2.0420	84.5173
 2.0410	84.5241
 2.0400	84.5675
 2.0390	84.5833
 2.0380	84.6056
 2.0370	84.5150
 2.0360	84.5412
 2.0350	84.5297
 2.0340	84.5776
 2.0330	84.5867
 2.0320	84.5507
 2.0310	84.5719
 2.0300	84.6109
 2.0290	84.5986
 2.0280	84.5601
 2.0270	84.5541
 2.0260	84.5894
 2.0250	84.4955
 2.0240	84.4940
 2.0230	84.5174
 2.0220	84.4725
 2.0210	84.5748
 2.0200	84.5999
 2.0190	84.5597
 2.0180	84.6152
 2.0170	84.5315
 2.0160	84.5123
 2.0150	84.6002
 2.0140	84.5186
 2.0130	84.5062
 2.0120	84.5558
 2.0110	84.5408
 2.0100	84.4623
 2.0090	84.5259
 2.0080	84.5315
 2.0070	84.5423
 2.0060	84.4812
 2.0050	84.5202
 2.0040	84.5940
 2.0030	84.4812
 2.0020	84.5348
 2.0010	84.5439
 2.0000	84.5679
 1.9990	84.5384
 1.9980	84.5238
 1.9970	84.4854
 1.9960	84.4673
 1.9950	84.4708
 1.9940	84.4144
 1.9930	84.3340
 1.9920	84.4643
 1.9910	84.4560
 1.9900	84.3950
 1.9890	84.2833
 1.9880	84.3422
 1.9870	84.3322
 1.9860	84.3281
 1.9850	84.3286
 1.9840	84.2786
 1.9830	84.3154
 1.9820	84.2835
 1.9810	84.2712
 1.9800	84.3128
 1.9790	84.3049
 1.9780	84.2285
 1.9770	84.2650
 1.9760	84.1721
 1.9750	84.1556
 1.9740	84.1415
 1.9730	84.1061
 1.9720	84.2044
 1.9710	84.1129
 1.9700	84.0733
 1.9690	84.1300
 1.9680	84.1951
 1.9670	84.0961
 1.9660	84.0666
 1.9650	84.0808
 1.9640	84.0928
 1.9630	84.1003
 1.9620	84.0305
 1.9610	84.0142
 1.9600	84.0608
 1.9590	84.1526
 1.9580	84.0841
 1.9570	84.1272
 1.9560	84.0989
 1.9550	84.0635
 1.9540	84.0813
 1.9530	83.9891
 1.9520	84.0631
 1.9510	83.9687
 1.9500	84.1071
 1.9490	84.0487
 1.9480	84.0339
 1.9470	84.0878
 1.9460	84.0067
 1.9450	84.0242
 1.9440	84.0131
 1.9430	84.1115
 1.9420	83.9910
 1.9410	84.0650
 1.9400	83.9509
 1.9390	84.0707
 1.9380	84.0948
 1.9370	83.9979
 1.9360	84.0391
 1.9350	84.0631
 1.9340	84.1023
 1.9330	84.1542
 1.9320	84.0601
 1.9310	84.0429
 1.9300	84.1436
 1.9290	84.1271
 1.9280	84.0313
 1.9270	84.1338
 1.9260	84.1597
 1.9250	84.1681
 1.9240	84.0541
 1.9230	84.2349
 1.9220	84.1741
 1.9210	84.0659
 1.9200	84.2561
 1.9190	84.2005
 1.9180	84.1800
 1.9170	84.2949
 1.9160	84.3358
 1.9150	84.2538
 1.9140	84.3495
 1.9130	84.3304
 1.9120	84.3547
 1.9110	84.2842
 1.9100	84.3346
 1.9090	84.4830
 1.9080	84.3902
 1.9070	84.3435
 1.9060	84.5173
 1.9050	84.5128
 1.9040	84.4176
 1.9030	84.3982
 1.9020	84.4569
 1.9010	84.5111
 1.9000	84.5258
 1.8990	84.5393
 1.8980	84.5306
 1.8970	84.6383
 1.8960	84.7120
 1.8950	84.6708
 1.8940	84.7057
 1.8930	84.6745
 1.8920	84.6685
 1.8910	84.7168
 1.8900	84.6975
 1.8890	84.7353
 1.8880	84.7360
 1.8870	84.7494
 1.8860	84.8590
 1.8850	84.8514
 1.8840	84.9037
 1.8830	84.9010
 1.8820	84.9210
 1.8810	84.9364
 1.8800	84.9892
 1.8790	84.9535
 1.8780	84.9483
 1.8770	84.9202
 1.8760	85.0406
 1.8750	84.9728
 1.8740	85.0620
 1.8730	85.0109
 1.8720	85.0198
 1.8710	85.0993
 1.8700	85.0148
 1.8690	85.0583
 1.8680	85.0828
 1.8670	85.0183
 1.8660	85.0919
 1.8650	85.0758
 1.8640	85.1034
 1.8630	85.0954
 1.8620	85.1285
 1.8610	85.1102
 1.8600	85.1869
 1.8590	85.1579
 1.8580	85.1258
 1.8570	85.0946
 1.8560	85.1522
 1.8550	85.1569
 1.8540	85.1428
 1.8530	85.1939
 1.8520	85.0890
 1.8510	85.0783
 1.8500	85.1986
 1.8490	85.1924
 1.8480	85.2066
 1.8470	85.1431
 1.8460	85.1436
 1.8450	85.1723
 1.8440	85.1196
 1.8430	85.0969
 1.8420	85.1689
 1.8410	85.1987
 1.8400	85.1780
 1.8390	85.1522
 1.8380	85.1726
 1.8370	85.1536
 1.8360	85.1667
 1.8350	85.1509
 1.8340	85.1908
 1.8330	85.1017
 1.8320	85.1456
 1.8310	85.1679
 1.8300	85.2006
 1.8290	85.2267
 1.8280	85.1539
 1.8270	85.1609
 1.8260	85.2117
 1.8250	85.2329
 1.8240	85.2141
 1.8230	85.2213
 1.8220	85.2413
 1.8210	85.2463
 1.8200	85.2434
 1.8190	85.1773
 1.8180	85.1937
 1.8170	85.2095
 1.8160	85.2153
 1.8150	85.2015
 1.8140	85.2185
 1.8130	85.2481
 1.8120	85.2681
 1.8110	85.2505
 1.8100	85.2794
 1.8090	85.2516
 1.8080	85.2199
 1.8070	85.2745
 1.8060	85.2470
 1.8050	85.2502
 1.8040	85.2573
 1.8030	85.2106
 1.8020	85.2023
 1.8010	85.2623
 1.8000	85.2972
 1.7990	85.2405
 1.7980	85.2493
 1.7970	85.2543
 1.7960	85.2769
 1.7950	85.2733
 1.7940	85.2367
 1.7930	85.2244
 1.7920	85.2543
 1.7910	85.2769
 1.7900	85.2448
 1.7890	85.2332
 1.7880	85.2219
 1.7870	85.2426
 1.7860	85.2723
 1.7850	85.2561
 1.7840	85.1723
 1.7830	85.1320
 1.7820	85.1768
 1.7810	85.2469
 1.7800	85.2690
 1.7790	85.2466
 1.7780	85.2228
 1.7770	85.2253
 1.7760	85.2025
 1.7750	85.1289
 1.7740	85.1375
 1.7730	85.1132
 1.7720	85.1614
 1.7710	85.2028
 1.7700	85.1237
 1.7690	85.1603
 1.7680	85.1857
 1.7670	85.1404
 1.7660	85.0988
 1.7650	85.1311
 1.7640	85.1499
 1.7630	85.1612
 1.7620	85.1899
 1.7610	85.1798
 1.7600	85.1688
 1.7590	85.2335
 1.7580	85.2342
 1.7570	85.1893
 1.7560	85.1848
 1.7550	85.2334
 1.7540	85.2571
 1.7530	85.2539
 1.7520	85.1702
 1.7510	85.1351
 1.7500	85.1527
 1.7490	85.2432
 1.7480	85.2673
 1.7470	85.2198
 1.7460	85.2280
 1.7450	85.2559
 1.7440	85.3124
 1.7430	85.2259
 1.7420	85.1922
 1.7410	85.2695
 1.7400	85.2657
 1.7390	85.2741
 1.7380	85.3008
 1.7370	85.2597
 1.7360	85.2919
 1.7350	85.2624
 1.7340	85.2545
 1.7330	85.2870
 1.7320	85.2897
 1.7310	85.3154
 1.7300	85.2597
 1.7290	85.3230
 1.7280	85.2956
 1.7270	85.2773
 1.7260	85.2502
 1.7250	85.3335
 1.7240	85.3652
 1.7230	85.3460
 1.7220	85.2460
 1.7210	85.2829
 1.7200	85.3088
 1.7190	85.2974
 1.7180	85.2861
 1.7170	85.3494
 1.7160	85.3753
 1.7150	85.4200
 1.7140	85.3295
 1.7130	85.2196
 1.7120	85.3245
 1.7110	85.3135
 1.7100	85.3115
 1.7090	85.3274
 1.7080	85.2895
 1.7070	85.3171
 1.7060	85.2644
 1.7050	85.2588
 1.7040	85.2656
 1.7030	85.2720
 1.7020	85.2036
 1.7010	85.2442
 1.7000	85.2659
 1.6990	85.2678
 1.6980	85.2454
 1.6970	85.2267
 1.6960	85.2068
 1.6950	85.2769
 1.6940	85.1934
 1.6930	85.2064
 1.6920	85.2396
 1.6910	85.1932
 1.6900	85.1856
 1.6890	85.2747
 1.6880	85.1701
 1.6870	85.2659
 1.6860	85.2302
 1.6850	85.2868
 1.6840	85.2853
 1.6830	85.2240
 1.6820	85.2325
 1.6810	85.2255
 1.6800	85.1671
 1.6790	85.1815
 1.6780	85.1504
 1.6770	85.2727
 1.6760	85.1410
 1.6750	85.1752
 1.6740	85.1748
 1.6730	85.2670
 1.6720	85.2874
 1.6710	85.2164
 1.6700	85.1343
 1.6690	85.1793
 1.6680	85.2397
 1.6670	85.2473
 1.6660	85.2314
 1.6650	85.2438
 1.6640	85.1774
 1.6630	85.1674
 1.6620	85.2395
 1.6610	85.1924
 1.6600	85.2273
 1.6590	85.2695
 1.6580	85.2201
 1.6570	85.1416
 1.6560	85.1600
 1.6550	85.2698
 1.6540	85.2008
 1.6530	85.1515
 1.6520	85.3026
 1.6510	85.1955
 1.6500	85.1268
 1.6490	85.2304
 1.6480	85.1650
 1.6470	85.0997
 1.6460	85.2214
 1.6450	85.2535
 1.6440	85.2325
 1.6430	85.1966
 1.6420	85.2351
 1.6410	85.1660
 1.6400	85.1661
 1.6390	85.2301
 1.6380	85.2439
 1.6370	85.3328
 1.6360	85.1620
 1.6350	85.2032
 1.6340	85.1983
 1.6330	85.2483
 1.6320	85.1930
 1.6310	85.2095
 1.6300	85.2438
 1.6290	85.1987
 1.6280	85.1759
 1.6270	85.1738
 1.6260	85.2243
 1.6250	85.1713
 1.6240	85.1978
 1.6230	85.2309
 1.6220	85.2167
 1.6210	85.0564
 1.6200	85.2571
 1.6190	85.1731
 1.6180	85.2166
 1.6170	85.3269
 1.6160	85.2534
 1.6150	85.3097
 1.6140	85.2134
 1.6130	85.2222
 1.6120	85.1786
 1.6110	85.2211
 1.6100	85.2689
 1.6090	85.2054
 1.6080	85.2170
 1.6070	85.1880
 1.6060	85.1469
 1.6050	85.2393
 1.6040	85.2961
 1.6030	85.1972
 1.6020	85.2317
 1.6010	85.2430
 1.6000	85.1947
 1.5990	85.3121
 1.5980	85.2705
 1.5970	85.1498
 1.5960	85.2207
 1.5950	85.2086
 1.5940	85.1900
 1.5930	85.2521
 1.5920	85.2037
 1.5910	85.1875
 1.5900	85.1898
 1.5890	85.2629
 1.5880	85.2077
 1.5870	85.2434
 1.5860	85.1695
 1.5850	85.2071
 1.5840	85.1801
 1.5830	85.1724
 1.5820	85.1007
 1.5810	85.1229
 1.5800	85.1294
 1.5790	85.1603
 1.5780	85.1442
 1.5770	85.1774
 1.5760	85.1773
 1.5750	85.2311
 1.5740	85.1894
 1.5730	85.1665
 1.5720	85.1882
 1.5710	85.1907
 1.5700	85.1697
 1.5690	85.1726
 1.5680	85.1478
 1.5670	85.1455
 1.5660	85.1288
 1.5650	85.1079
 1.5640	85.1880
 1.5630	85.1610
 1.5620	85.1857
 1.5610	85.1773
 1.5600	85.1758
 1.5590	85.2662
 1.5580	85.2239
 1.5570	85.1300
 1.5560	85.1568
 1.5550	85.1249
 1.5540	85.1114
 1.5530	85.1914
 1.5520	85.2156
 1.5510	85.1656
 1.5500	85.1582
 1.5490	85.1545
 1.5480	85.0769
 1.5470	85.0635
 1.5460	85.1571
 1.5450	85.1592
 1.5440	85.1983
 1.5430	85.2254
 1.5420	85.1431
 1.5410	85.1343
 1.5400	85.0890
 1.5390	85.0809
 1.5380	85.1155
 1.5370	85.1175
 1.5360	85.0564
 1.5350	85.0819
 1.5340	85.1047
 1.5330	85.1355
 1.5320	85.1108
 1.5310	85.1221
 1.5300	85.0955
 1.5290	85.0651
 1.5280	85.0699
 1.5270	85.0800
 1.5260	85.0590
 1.5250	85.0635
 1.5240	85.0700
 1.5230	85.0524
 1.5220	85.0522
 1.5210	85.0691
 1.5200	85.0624
 1.5190	85.0645
 1.5180	85.0627
 1.5170	85.0717
 1.5160	85.0736
 1.5150	85.1339
 1.5140	85.1450
 1.5130	85.1273
 1.5120	85.0675
 1.5110	85.0085
 1.5100	85.0537
 1.5090	85.0229
 1.5080	85.0080
 1.5070	85.0381
 1.5060	85.0434
 1.5050	85.0436
 1.5040	85.0304
 1.5030	85.0491
 1.5020	85.0070
 1.5010	84.9915
 1.5000	85.0299
 1.4990	85.0134
 1.4980	85.0111
 1.4970	84.9983
 1.4960	84.9486
 1.4950	85.0108
 1.4940	85.0706
 1.4930	85.0247
 1.4920	85.0685
 1.4910	85.0552
 1.4900	84.9709
 1.4890	84.9798
 1.4880	85.0151
 1.4870	85.0214
 1.4860	84.9870
 1.4850	84.9376
 1.4840	85.0069
 1.4830	85.0618
 1.4820	85.0054
 1.4810	85.0333
 1.4800	84.9875
 1.4790	84.9442
 1.4780	85.0319
 1.4770	84.9821
 1.4760	84.9458
 1.4750	84.9736
 1.4740	84.9921
 1.4730	84.9925
 1.4720	84.9830
 1.4710	84.9946
 1.4700	85.0506
 1.4690	84.9919
 1.4680	84.9201
 1.4670	84.9172
 1.4660	84.9999
 1.4650	84.9761
 1.4640	84.9613
 1.4630	84.9944
 1.4620	84.9332
 1.4610	84.9564
 1.4600	84.9089
 1.4590	84.8919
 1.4580	84.9141
 1.4570	84.9923
 1.4560	85.0008
 1.4550	84.9620
 1.4540	84.9704
 1.4530	85.0306
 1.4520	84.9753
 1.4510	84.9571
 1.4500	84.9816
 1.4490	84.9576
 1.4480	84.9363
 1.4470	84.9223
 1.4460	84.9283
 1.4450	84.9162
 1.4440	84.9689
 1.4430	84.9512
 1.4420	84.8997
 1.4410	84.9502
 1.4400	84.9353
 1.4390	84.9457
 1.4380	84.9237
 1.4370	84.9340
 1.4360	84.9104
 1.4350	84.8898
 1.4340	84.9178
 1.4330	84.9940
 1.4320	84.9322
 1.4310	84.9696
 1.4300	84.9934
 1.4290	84.9342
 1.4280	85.0338
 1.4270	84.9924
 1.4260	84.8723
 1.4250	84.8489
 1.4240	84.9563
 1.4230	84.8536
 1.4220	84.9370
 1.4210	84.9195
 1.4200	84.9217
 1.4190	84.9954
 1.4180	84.9518
 1.4170	84.9245
 1.4160	84.9531
 1.4150	84.8812
 1.4140	84.8831
 1.4130	84.8604
 1.4120	84.9018
 1.4110	84.8646
 1.4100	84.8945
 1.4090	84.9369
 1.4080	84.9383
 1.4070	85.0223
 1.4060	84.9200
 1.4050	84.8950
 1.4040	84.9889
 1.4030	84.9366
 1.4020	85.0077
 1.4010	84.9362
 1.4000	84.9672
 1.3990	85.0100
 1.3980	84.9547
 1.3970	85.0006
 1.3960	84.9777
 1.3950	85.0684
 1.3940	85.1042
 1.3930	84.9939
 1.3920	85.0889
 1.3910	85.1281
 1.3900	85.0826
 1.3890	85.0580
 1.3880	85.0557
 1.3870	85.1803
 1.3860	85.1957
 1.3850	85.1286
 1.3840	85.0694
 1.3830	85.1216
 1.3820	85.0417
 1.3810	84.9936
 1.3800	85.0463
 1.3790	85.1005
 1.3780	85.0982
 1.3770	85.0194
 1.3760	85.0383
 1.3750	85.1530
 1.3740	85.0943
 1.3730	85.0772
 1.3720	85.0217
 1.3710	85.0329
 1.3700	85.0957
 1.3690	85.0813
 1.3680	85.1399
 1.3670	85.0392
 1.3660	85.1115
 1.3650	85.1429
 1.3640	85.1025
 1.3630	85.1770
 1.3620	85.0741
 1.3610	85.0994
 1.3600	85.0530
 1.3590	84.9867
 1.3580	85.0455
 1.3570	85.0353
 1.3560	85.1197
 1.3550	85.0428
 1.3540	85.0714
 1.3530	84.9886
 1.3520	85.0065
 1.3510	85.0343
 1.3500	85.0977
 1.3490	84.9807
 1.3480	84.9898
 1.3470	85.0565
 1.3460	85.0380
 1.3450	85.0379
 1.3440	85.1000
 1.3430	84.9697
 1.3420	85.0523
 1.3410	85.0428
 1.3400	84.9864
 1.3390	85.0329
 1.3380	85.0023
 1.3370	85.0578
 1.3360	85.0601
 1.3350	84.9858
 1.3340	84.9788
 1.3330	85.0993
 1.3320	85.0072
 1.3310	84.9937
 1.3300	85.0143
 1.3290	84.9887
 1.3280	84.9109
 1.3270	84.9736
 1.3260	84.9998
 1.3250	85.0049
 1.3240	84.9836
 1.3230	84.9869
 1.3220	84.9831
 1.3210	84.9845
 1.3200	85.0578
 1.3190	84.9512
 1.3180	84.9480
 1.3170	84.9739
 1.3160	84.9308
 1.3150	85.0084
 1.3140	85.0344
 1.3130	84.9954
 1.3120	85.0360
 1.3110	84.9703
 1.3100	84.9814
 1.3090	84.9602
 1.3080	85.0292
 1.3070	85.0061
 1.3060	84.9863
 1.3050	84.9790
 1.3040	84.9462
 1.3030	84.9471
 1.3020	84.9748
 1.3010	84.9677
 1.3000	85.0601
 1.2990	85.0134
 1.2980	85.0158
 1.2970	84.9483
 1.2960	84.9095
 1.2950	84.9595
 1.2940	84.9322
 1.2930	84.9619
 1.2920	84.9560
 1.2910	84.9793
 1.2900	84.9684
 1.2890	84.9736
 1.2880	84.9769
 1.2870	84.9530
 1.2860	84.9445
 1.2850	84.9274
 1.2840	84.9916
 1.2830	85.0049
 1.2820	84.9606
 1.2810	85.0343
 1.2800	84.9735
 1.2790	84.8669
 1.2780	84.9572
 1.2770	84.9168
 1.2760	84.9299
 1.2750	84.9808
 1.2740	84.9546
 1.2730	84.9519
 1.2720	84.9507
 1.2710	84.9225
 1.2700	84.9725
 1.2690	84.9266
 1.2680	84.8993
 1.2670	84.9317
 1.2660	84.9586
 1.2650	84.9400
 1.2640	84.8644
 1.2630	84.9207
 1.2620	84.9816
 1.2610	84.9456
 1.2600	84.9677
 1.2590	84.9383
 1.2580	84.9236
 1.2570	84.9567
 1.2560	84.9431
 1.2550	84.9024
 1.2540	84.8924
 1.2530	84.9189
 1.2520	84.9774
 1.2510	84.9428
 1.2500	84.9220
 1.2490	84.9129
 1.2480	84.9154
 1.2470	84.9326
 1.2460	84.9047
 1.2450	84.9303
 1.2440	84.9402
 1.2430	84.9825
 1.2420	84.9549
 1.2410	84.8748
 1.2400	84.9277
 1.2390	84.9614
 1.2380	84.9707
 1.2370	84.9652
 1.2360	84.9474
 1.2350	84.9290
 1.2340	84.9234
 1.2330	84.9153
 1.2320	84.9419
 1.2310	84.9116
 1.2300	84.8833
 1.2290	84.8774
 1.2280	84.9015
 1.2270	84.9356
 1.2260	84.9074
 1.2250	84.8561
 1.2240	84.8737
 1.2230	84.8882
 1.2220	84.8690
 1.2210	84.9009
 1.2200	84.9649
 1.2190	84.9430
 1.2180	84.9411
 1.2170	84.9509
 1.2160	84.9096
 1.2150	84.8825
 1.2140	84.8960
 1.2130	84.8785
 1.2120	84.8801
 1.2110	84.9010
 1.2100	84.9254
 1.2090	84.9099
 1.2080	84.9009
 1.2070	84.9197
 1.2060	84.9120
 1.2050	84.9492
 1.2040	84.9015
 1.2030	84.8327
 1.2020	84.8714
 1.2010	84.8481
 1.2000	84.8160
 1.1990	84.9059
 1.1980	84.8867
 1.1970	84.8335
 1.1960	84.8799
 1.1950	84.8800
 1.1940	84.8402
 1.1930	84.8268
 1.1920	84.8386
 1.1910	84.8600
 1.1900	84.9231
 1.1890	84.9369
 1.1880	84.8656
 1.1870	84.9072
 1.1860	84.8833
 1.1850	84.9027
 1.1840	84.9909
 1.1830	84.9924
 1.1820	84.8853
 1.1810	84.8950
 1.1800	84.9009
 1.1790	84.8773
 1.1780	84.8919
 1.1770	84.8748
 1.1760	84.7610
 1.1750	84.7844
 1.1740	84.8931
 1.1730	84.9602
 1.1720	84.9665
 1.1710	84.9779
 1.1700	84.9611
 1.1690	84.8770
 1.1680	84.8740
 1.1670	84.9064
 1.1660	84.8841
 1.1650	84.8883
 1.1640	84.8981
 1.1630	84.9420
 1.1620	84.9524
 1.1610	84.9732
 1.1600	84.9550
 1.1590	84.9419
 1.1580	84.9293
 1.1570	84.9449
 1.1560	84.9330
 1.1550	84.9291
 1.1540	84.9250
 1.1530	84.9467
 1.1520	84.8880
 1.1510	84.9456
 1.1500	84.9112
 1.1490	84.9208
 1.1480	84.9912
 1.1470	84.9464
 1.1460	84.9485
 1.1450	84.8911
 1.1440	84.9247
 1.1430	84.9718
 1.1420	84.9583
 1.1410	84.9666
 1.1400	84.8904
 1.1390	84.9680
 1.1380	84.9131
 1.1370	84.9861
 1.1360	84.9403
 1.1350	84.8726
 1.1340	84.9605
 1.1330	84.8900
 1.1320	84.9423
 1.1310	84.8608
 1.1300	84.9530
 1.1290	85.0175
 1.1280	84.9112
 1.1270	84.9505
 1.1260	84.9518
 1.1250	84.9017
 1.1240	84.9024
 1.1230	84.9642
 1.1220	84.8749
 1.1210	84.8968
 1.1200	84.9269
 1.1190	84.9225
 1.1180	84.8903
 1.1170	84.8922
 1.1160	84.8716
 1.1150	84.8840
 1.1140	84.9081
 1.1130	84.8820
 1.1120	84.8864
 1.1110	84.9310
 1.1100	84.8921
 1.1090	85.0097
 1.1080	84.8766
 1.1070	84.9502
 1.1060	84.8315
 1.1050	84.9489
 1.1040	84.8762
 1.1030	84.9713
 1.1020	84.9111
 1.1010	84.9089
 1.1000	84.9061
 1.0990	84.9113
 1.0980	85.0443
 1.0970	84.9314
 1.0960	84.8621
 1.0950	84.9432
 1.0940	84.9436
 1.0930	84.9094
 1.0920	84.8628
 1.0910	84.8795
 1.0900	84.9680
 1.0890	85.0003
 1.0880	84.9520
 1.0870	84.9534
 1.0860	84.8515
 1.0850	85.0150
 1.0840	84.9433
 1.0830	84.9532
 1.0820	84.9451
 1.0810	84.8428
 1.0800	84.9832
 1.0790	84.9741
 1.0780	84.9267
 1.0770	85.0174
 1.0760	85.0435
 1.0750	84.9477
 1.0740	84.9815
 1.0730	84.9480
 1.0720	84.9622
 1.0710	84.9347
 1.0700	84.9108
 1.0690	84.8579
 1.0680	84.9101
 1.0670	84.8870
 1.0660	84.8425
 1.0650	84.9895
 1.0640	84.9797
 1.0630	84.9730
 1.0620	84.9169
 1.0610	84.9668
 1.0600	84.9169
 1.0590	84.8564
 1.0580	84.9684
 1.0570	84.9845
 1.0560	85.0307
 1.0550	84.9879
 1.0540	84.9396
 1.0530	84.9831
 1.0520	84.9774
 1.0510	84.8722
 1.0500	84.9981
 1.0490	84.9147
 1.0480	84.8675
 1.0470	84.9727
 1.0460	84.9234
 1.0450	84.9558
 1.0440	84.9895
 1.0430	84.9954
 1.0420	84.9115
 1.0410	84.9804
 1.0400	84.9315
 1.0390	84.9390
 1.0380	84.9694
 1.0370	84.9745
 1.0360	84.9834
 1.0350	85.0048
 1.0340	84.9578
 1.0330	84.9310
 1.0320	85.0509
 1.0310	85.0278
 1.0300	84.9709
 1.0290	85.0185
 1.0280	84.8913
 1.0270	84.9310
 1.0260	85.0229
 1.0250	84.9924
 1.0240	84.9328
 1.0230	84.9928
 1.0220	84.9531
 1.0210	84.9635
 1.0200	84.9686
 1.0190	84.9703
 1.0180	84.9690
 1.0170	85.0827
 1.0160	85.0217
 1.0150	84.9239
 1.0140	84.9011
 1.0130	84.9073
 1.0120	84.9524
 1.0110	84.9144
 1.0100	84.9317
 1.0090	84.9274
 1.0080	84.8865
 1.0070	84.8754
 1.0060	84.9234
 1.0050	84.9590
 1.0040	84.9187
 1.0030	84.9961
 1.0020	85.0471
 1.0010	85.0759
 1.0000	85.0432
 0.9990	84.9754
 0.9980	84.9782
 0.9970	84.9046
 0.9960	84.9164
 0.9950	84.9373
 0.9940	84.9825
 0.9930	85.0080
 0.9920	84.9705
 0.9910	84.9816
 0.9900	84.9943
 0.9890	85.0256
 0.9880	85.0233
 0.9870	84.9724
 0.9860	84.9870
 0.9850	84.9897
 0.9840	85.0090
 0.9830	85.0185
 0.9820	84.9834
 0.9810	84.9200
 0.9800	84.9271
 0.9790	84.9932
 0.9780	84.9915
 0.9770	84.9543
 0.9760	84.8781
 0.9750	84.8920
 0.9740	84.9350
 0.9730	84.9897
 0.9720	85.0699
 0.9710	85.0418
 0.9700	84.9996
 0.9690	85.0108
 0.9680	84.9480
 0.9670	84.9611
 0.9660	84.9350
 0.9650	84.9772
 0.9640	84.9414
 0.9630	84.9404
 0.9620	85.0043
 0.9610	84.9771
 0.9600	85.0271
 0.9590	85.0360
 0.9580	84.9500
 0.9570	84.9752
 0.9560	85.0322
 0.9550	85.0618
 0.9540	84.9741
 0.9530	84.9646
 0.9520	84.9613
 0.9510	84.9569
 0.9500	84.9711
 0.9490	84.9851
 0.9480	84.9649
 0.9470	84.9296
 0.9460	84.9272
 0.9450	84.9311
 0.9440	84.9468
 0.9430	84.9787
 0.9420	84.9927
 0.9410	85.0029
 0.9400	85.0023
 0.9390	85.0916
 0.9380	85.0389
 0.9370	84.9592
 0.9360	84.9593
 0.9350	84.9819
 0.9340	84.9952
 0.9330	84.9578
 0.9320	84.9204
 0.9310	84.9730
 0.9300	85.0228
 0.9290	85.0711
 0.9280	85.0810
 0.9270	85.0086
 0.9260	84.9503
 0.9250	84.9370
 0.9240	84.9328
 0.9230	84.9520
 0.9220	84.9940
 0.9210	85.0405
 0.9200	85.0265
 0.9190	84.9823
 0.9180	84.9741
 0.9170	84.9748
 0.9160	84.9953
 0.9150	84.9482
 0.9140	84.9458
 0.9130	84.9841
 0.9120	84.9595
 0.9110	84.9368
 0.9100	84.9816
 0.9090	84.9971
 0.9080	85.0341
 0.9070	85.0261
 0.9060	84.9876
 0.9050	85.0334
 0.9040	85.0002
 0.9030	84.9776
 0.9020	84.9537
 0.9010	84.9807
 0.9000	84.9962
 0.8990	84.9951
 0.8980	84.9667
 0.8970	84.9810
 0.8960	84.9543
 0.8950	84.9590
 0.8940	84.9284
 0.8930	84.9421
 0.8920	85.0224
 0.8910	85.0395
 0.8900	84.9938
 0.8890	84.9403
 0.8880	84.9128
 0.8870	84.9383
 0.8860	84.9598
 0.8850	84.9421
 0.8840	84.9889
 0.8830	84.9826
 0.8820	84.9103
 0.8810	84.9014
 0.8800	84.9267
 0.8790	85.0178
 0.8780	85.0433
 0.8770	84.9919
 0.8760	84.9741
 0.8750	85.0022
 0.8740	85.0439
 0.8730	84.9855
 0.8720	84.9960
 0.8710	84.9995
 0.8700	84.9232
 0.8690	84.9135
 0.8680	85.0464
 0.8670	85.0371
 0.8660	85.0171
 0.8650	85.0012
 0.8640	84.9304
 0.8630	84.9624
 0.8620	84.9977
 0.8610	84.9866
 0.8600	84.9883
 0.8590	85.0137
 0.8580	84.9383
 0.8570	84.9002
 0.8560	84.9542
 0.8550	84.8990
 0.8540	84.8576
 0.8530	84.8674
 0.8520	84.9200
 0.8510	84.9309
 0.8500	84.8781
 0.8490	84.8814
 0.8480	84.9165
 0.8470	84.9688
 0.8460	84.9485
 0.8450	84.8830
 0.8440	84.9177
 0.8430	84.9661
 0.8420	84.9744
 0.8410	84.9448
 0.8400	84.9392
 0.8390	84.8891
 0.8380	84.8862
 0.8370	84.8882
 0.8360	84.9280
 0.8350	84.9114
 0.8340	84.8966
 0.8330	84.9111
 0.8320	84.9114
 0.8310	84.8731
 0.8300	84.9261
 0.8290	84.8674
 0.8280	84.9197
 0.8270	84.9194
 0.8260	84.9500
 0.8250	84.9437
 0.8240	84.9274
 0.8230	84.9287
 0.8220	84.9137
 0.8210	84.9292
 0.8200	84.9529
 0.8190	84.8791
 0.8180	84.9270
 0.8170	84.9318
 0.8160	84.9144
 0.8150	84.9727
 0.8140	84.9758
 0.8130	84.9291
 0.8120	84.8989
 0.8110	84.9198
 0.8100	84.9431
 0.8090	84.8985
 0.8080	84.9548
 0.8070	84.9293
 0.8060	84.9423
 0.8050	84.9803
 0.8040	84.9508
 0.8030	84.9365
 0.8020	84.9354
 0.8010	84.9511
 0.8000	84.9653
 0.7990	84.9697
 0.7980	84.9264
 0.7970	84.8935
 0.7960	84.9167
 0.7950	84.8618
 0.7940	84.8618
 0.7930	84.8772
 0.7920	84.8802
 0.7910	84.8847
 0.7900	84.8474
 0.7890	84.8764
 0.7880	84.8045
 0.7870	84.9409
 0.7860	84.8973
 0.7850	84.8900
 0.7840	84.8650
 0.7830	84.8618
 0.7820	84.8808
 0.7810	84.8756
 0.7800	84.8993
 0.7790	84.8611
 0.7780	84.9016
 0.7770	84.8276
 0.7760	84.8114
 0.7750	84.8080
 0.7740	84.8410
 0.7730	84.8437
 0.7720	84.8344
 0.7710	84.8488
 0.7700	84.8422
 0.7690	84.8145
 0.7680	84.8131
 0.7670	84.8276
 0.7660	84.8366
 0.7650	84.8005
 0.7640	84.8342
 0.7630	84.8135
 0.7620	84.8564
 0.7610	84.8307
 0.7600	84.8128
 0.7590	84.8360
 0.7580	84.8306
 0.7570	84.8148
 0.7560	84.8413
 0.7550	84.8370
 0.7540	84.8147
 0.7530	84.8099
 0.7520	84.8279
 0.7510	84.8336
 0.7500	84.8459
 0.7490	84.8531
 0.7480	84.8294
 0.7470	84.8056
 0.7460	84.8432
 0.7450	84.8345
 0.7440	84.8000
 0.7430	84.8152
 0.7420	84.8186
 0.7410	84.7819
 0.7400	84.8072
 0.7390	84.7794
 0.7380	84.8058
 0.7370	84.8227
 0.7360	84.8212
 0.7350	84.8066
 0.7340	84.8065
 0.7330	84.8093
 0.7320	84.8177
 0.7310	84.8073
 0.7300	84.7862
 0.7290	84.8032
 0.7280	84.8091
 0.7270	84.7818
 0.7260	84.7499
 0.7250	84.7964
 0.7240	84.7964
 0.7230	84.8177
 0.7220	84.7978
 0.7210	84.8069
 0.7200	84.8328
 0.7190	84.8132
 0.7180	84.7984
 0.7170	84.7889
 0.7160	84.8186
 0.7150	84.7906
 0.7140	84.7919
 0.7130	84.7950
 0.7120	84.7848
 0.7110	84.7640
 0.7100	84.7593
 0.7090	84.7877
 0.7080	84.8108
 0.7070	84.7620
 0.7060	84.7625
 0.7050	84.7710
 0.7040	84.7628
 0.7030	84.7746
 0.7020	84.7682
 0.7010	84.7692
 0.7000	84.7809
 0.6990	84.7572
 0.6980	84.7668
 0.6970	84.7776
 0.6960	84.7663
 0.6950	84.7761
 0.6940	84.7786
 0.6930	84.7869
 0.6920	84.7888
 0.6910	84.7754
 0.6900	84.7754
 0.6890	84.7744
 0.6880	84.7641
 0.6870	84.7544
 0.6860	84.7832
 0.6850	84.7827
 0.6840	84.7622
 0.6830	84.7621
 0.6820	84.7627
 0.6810	84.7551
 0.6800	84.7526
 0.6790	84.7498
 0.6780	84.7499
 0.6770	84.7326
 0.6760	84.7452
 0.6750	84.7521
 0.6740	84.7505
 0.6730	84.7444
 0.6720	84.7451
 0.6710	84.7489
 0.6700	84.7460
 0.6690	84.7404
 0.6680	84.7380
 0.6670	84.7396
 0.6660	84.7336
 0.6650	84.7379
 0.6640	84.7457
 0.6630	84.7410
 0.6620	84.7410
 0.6610	84.7272
 0.6600	84.7286
 0.6590	84.7297
 0.6580	84.7392
 0.6570	84.7373
 0.6560	84.7193
 0.6550	84.7105
 0.6540	84.7250
 0.6530	84.7343
 0.6520	84.7252
 0.6510	84.7242
 0.6500	84.7193
 0.6490	84.7158
 0.6480	84.7100
 0.6470	84.7063
 0.6460	84.7056
 0.6450	84.7051
 0.6440	84.7152
 0.6430	84.7078
 0.6420	84.7000
 0.6410	84.6913
 0.6400	84.6936
 0.6390	84.7098
 0.6380	84.7109
 0.6370	84.7086
 0.6360	84.7020
 0.6350	84.7080
 0.6340	84.7098
 0.6330	84.7008
 0.6320	84.6952
 0.6310	84.7016
 0.6300	84.7089
 0.6290	84.7017
 0.6280	84.6837
 0.6270	84.6799
 0.6260	84.6959
 0.6250	84.7032
 0.6240	84.6716
 0.6230	84.6670
 0.6220	84.6785
 0.6210	84.6888
 0.6200	84.6895
 0.6190	84.6753
 0.6180	84.6708
 0.6170	84.6617
 0.6160	84.6629
 0.6150	84.6672
 0.6140	84.6596
 0.6130	84.6621
 0.6120	84.6723
 0.6110	84.6718
 0.6100	84.6694
 0.6090	84.6525
 0.6080	84.6561
 0.6070	84.6689
 0.6060	84.6549
 0.6050	84.6524
 0.6040	84.6502
 0.6030	84.6462
 0.6020	84.6480
 0.6010	84.6562
 0.6000	84.6441
 0.5990	84.6386
 0.5980	84.6577
 0.5970	84.6826
 0.5960	84.7121
 0.5950	84.7281
 0.5940	84.7169
 0.5930	84.7174
 0.5920	84.7078
 0.5910	84.6997
 0.5900	84.6830
 0.5890	84.6876
 0.5880	84.6753
 0.5870	84.6817
 0.5860	84.6755
 0.5850	84.6854
 0.5840	84.6759
 0.5830	84.6727
 0.5820	84.6677
 0.5810	84.6552
 0.5800	84.6755
 0.5790	84.6677
 0.5780	84.6614
 0.5770	84.6718
 0.5760	84.6521
 0.5750	84.6462
 0.5740	84.6299
 0.5730	84.6356
 0.5720	84.6312
 0.5710	84.6218
 0.5700	84.6167
 0.5690	84.6136
 0.5680	84.6059
 0.5670	84.5995
 0.5660	84.5940
 0.5650	84.6057
 0.5640	84.5805
 0.5630	84.5797
 0.5620	84.5920
 0.5610	84.5773
 0.5600	84.5549
 0.5590	84.5405
 0.5580	84.5316
 0.5570	84.5436
 0.5560	84.5438
 0.5550	84.5249
 0.5540	84.5258
 0.5530	84.5232
 0.5520	84.5142
 0.5510	84.5104
 0.5500	84.5056
 0.5490	84.4807
 0.5480	84.4718
 0.5470	84.4571
 0.5460	84.4487
 0.5450	84.4421
 0.5440	84.4285
 0.5430	84.4356
 0.5420	84.4354
 0.5410	84.4361
 0.5400	84.4133
 0.5390	84.4215
 0.5380	84.4127
 0.5370	84.3953
 0.5360	84.3964
 0.5350	84.3775
 0.5340	84.3553
 0.5330	84.3551
 0.5320	84.3380
 0.5310	84.3305
 0.5300	84.3286
 0.5290	84.3092
 0.5280	84.3242
 0.5270	84.3159
 0.5260	84.2906
 0.5250	84.2899
 0.5240	84.2867
 0.5230	84.2640
 0.5220	84.2659
 0.5210	84.2346
 0.5200	84.2233
 0.5190	84.2201
 0.5180	84.1954
 0.5170	84.1788
 0.5160	84.1454
 0.5150	84.1507
 0.5140	84.1454
 0.5130	84.1160
 0.5120	84.1125
 0.5110	84.0943
 0.5100	84.0998
 0.5090	84.0873
 0.5080	84.0577
 0.5070	84.0537
 0.5060	84.0058
 0.5050	83.9992
 0.5040	83.9753
 0.5030	83.9775
 0.5020	83.9725
 0.5010	83.9333
 0.5000	83.8836
 0.4990	83.8829
 0.4980	83.8827
 0.4970	83.8565
 0.4960	83.8241
 0.4950	83.7969
 0.4940	83.7970
 0.4930	83.7646
 0.4920	83.7446
 0.4910	83.7065
 0.4900	83.6771
 0.4890	83.6739
 0.4880	83.6437
 0.4870	83.6054
 0.4860	83.5782
 0.4850	83.5752
 0.4840	83.5157
 0.4830	83.5035
 0.4820	83.4763
 0.4810	83.4735
 0.4800	83.4296
 0.4790	83.4027
 0.4780	83.3918
 0.4770	83.3783
 0.4760	83.3520
 0.4750	83.3245
 0.4740	83.2937
 0.4730	83.2651
 0.4720	83.2555
 0.4710	83.2139
 0.4700	83.1974
 0.4690	83.1644
 0.4680	83.1285
 0.4670	83.1219
 0.4660	83.0984
 0.4650	83.0891
 0.4640	83.0427
 0.4630	83.0231
 0.4620	83.0209
 0.4610	82.9794
 0.4600	82.9388
 0.4590	82.8977
 0.4580	82.8885
 0.4570	82.8679
 0.4560	82.8206
 0.4550	82.8072
 0.4540	82.7773
 0.4530	82.7519
 0.4520	82.7063
 0.4510	82.6670
 0.4500	82.6697
 0.4490	82.6412
 0.4480	82.5933
 0.4470	82.5581
 0.4460	82.5367
 0.4450	82.4867
 0.4440	82.4534
 0.4430	82.4356
 0.4420	82.4081
 0.4410	82.3782
 0.4400	82.3347
 0.4390	82.3322
 0.4380	82.3174
 0.4370	82.2684
 0.4360	82.2423
 0.4350	82.2002
 0.4340	82.1921
 0.4330	82.1510
 0.4320	82.1279
 0.4310	82.0968
 0.4300	82.0571
 0.4290	82.0364
 0.4280	82.0001
 0.4270	81.9806
 0.4260	81.9614
 0.4250	81.9243
 0.4240	81.9196
 0.4230	81.8893
 0.4220	81.8783
 0.4210	81.8596
 0.4200	81.8360
 0.4190	81.8320
 0.4180	81.8104
 0.4170	81.7879
 0.4160	81.7660
 0.4150	81.7707
 0.4140	81.7427
 0.4130	81.7148
 0.4120	81.7081
 0.4110	81.7157
 0.4100	81.7259
 0.4090	81.7058
 0.4080	81.7099
 0.4070	81.6817
 0.4060	81.6609
 0.4050	81.6594
 0.4040	81.6516
 0.4030	81.6341
 0.4020	81.6005
 0.4010	81.5942
 0.4000	81.5618
