Name: Fluorite CaF_2
Type: Mineral
Class: Halide
Subclass: None
Particle Size: Medium
Sample No.: H-2A
Owner: JPL
Wavelength Range: VSWIR
Origin: USA, Illinois, Hardin County, Rosiclare
Collection Date: N/A
Description: Purple fluorite. Particle size was 45-125um.Collected by Ward's Original ASTER Spectral Library name was jpl.beckman.mineral.halide.none.medium.h02a.spectrum.txt
Measurement: Hemispherical reflectance
First Column: X
Second Column: Y
X Units: Wavelength (micrometers)
Y Units:Reflectance (percent)
First X Value:  0.4000
Last X Value:  2.5000
Number of X Values: 826
Additional Information: mineral.halide.none.medium.vswir.h-2a.jpl.beckman.ancillary.txt

 0.4000	77.6400
 0.4010	77.5300
 0.4020	77.4700
 0.4030	77.5200
 0.4040	77.4800
 0.4050	77.5100
 0.4060	77.5000
 0.4070	77.4800
 0.4080	77.4400
 0.4090	77.4500
 0.4100	77.4900
 0.4110	77.4400
 0.4120	77.3500
 0.4130	77.4500
 0.4140	77.3700
 0.4150	77.4200
 0.4160	77.3200
 0.4170	77.2800
 0.4180	77.3300
 0.4190	77.3200
 0.4200	77.3800
 0.4210	77.3300
 0.4220	77.2600
 0.4230	77.3100
 0.4240	77.3100
 0.4250	77.2900
 0.4260	77.2700
 0.4270	77.1600
 0.4280	77.1800
 0.4290	77.2600
 0.4300	77.2900
 0.4310	77.2100
 0.4320	77.1600
 0.4330	77.2200
 0.4340	77.2100
 0.4350	77.3000
 0.4360	77.3500
 0.4370	77.2400
 0.4380	77.3300
 0.4390	77.3700
 0.4400	77.3700
 0.4410	77.3100
 0.4420	77.1700
 0.4430	77.3600
 0.4440	77.1900
 0.4450	77.2800
 0.4460	77.0700
 0.4470	77.1700
 0.4480	77.2400
 0.4490	77.0600
 0.4500	77.1500
 0.4510	77.0600
 0.4520	77.0700
 0.4530	77.1700
 0.4540	77.0300
 0.4550	77.0800
 0.4560	76.9800
 0.4570	76.9700
 0.4580	77.2300
 0.4590	77.1300
 0.4600	77.0200
 0.4610	76.8800
 0.4620	76.9000
 0.4630	76.8400
 0.4640	76.8400
 0.4650	76.7200
 0.4660	76.7700
 0.4670	76.6800
 0.4680	76.5800
 0.4690	76.6300
 0.4700	76.6900
 0.4710	76.7500
 0.4720	76.7100
 0.4730	76.6500
 0.4740	76.5700
 0.4750	76.5300
 0.4760	76.6400
 0.4770	76.4800
 0.4780	76.4800
 0.4790	76.5200
 0.4800	76.4300
 0.4810	76.4000
 0.4820	76.3200
 0.4830	76.1200
 0.4840	76.0900
 0.4850	76.0900
 0.4860	76.0500
 0.4870	75.9700
 0.4880	75.8500
 0.4890	75.8700
 0.4900	75.8200
 0.4910	75.8500
 0.4920	75.6500
 0.4930	75.6300
 0.4940	75.5500
 0.4950	75.5700
 0.4960	75.6100
 0.4970	75.5700
 0.4980	75.4600
 0.4990	75.4800
 0.5000	75.4300
 0.5010	75.3400
 0.5020	75.2500
 0.5030	75.1100
 0.5040	75.0900
 0.5050	75.1000
 0.5060	75.0900
 0.5070	74.9300
 0.5080	74.8600
 0.5090	74.7300
 0.5100	74.6600
 0.5110	74.7000
 0.5120	74.6200
 0.5130	74.4800
 0.5140	74.4700
 0.5150	74.4800
 0.5160	74.3900
 0.5170	74.2800
 0.5180	74.1600
 0.5190	74.2200
 0.5200	74.1900
 0.5210	74.1900
 0.5220	74.1200
 0.5230	74.0600
 0.5240	74.0800
 0.5250	73.9900
 0.5260	73.9600
 0.5270	73.9000
 0.5280	73.8200
 0.5290	73.8300
 0.5300	73.8100
 0.5310	73.7900
 0.5320	73.7400
 0.5330	73.6200
 0.5340	73.6200
 0.5350	73.5500
 0.5360	73.6500
 0.5370	73.6500
 0.5380	73.6500
 0.5390	73.7600
 0.5400	73.7200
 0.5410	73.7600
 0.5420	73.6900
 0.5430	73.6600
 0.5440	73.7900
 0.5450	73.7700
 0.5460	73.8700
 0.5470	74.0100
 0.5480	73.9400
 0.5490	74.0400
 0.5500	74.1100
 0.5510	74.2400
 0.5520	74.2900
 0.5530	74.2900
 0.5540	74.3800
 0.5550	74.3400
 0.5560	74.3700
 0.5570	74.4900
 0.5580	74.6600
 0.5590	74.6800
 0.5600	74.6200
 0.5610	75.1700
 0.5620	75.3400
 0.5630	75.2600
 0.5640	75.3400
 0.5650	75.4000
 0.5660	75.5400
 0.5670	75.7400
 0.5680	75.7200
 0.5690	75.7500
 0.5700	75.8200
 0.5710	75.9900
 0.5720	76.0700
 0.5730	76.0200
 0.5740	76.0900
 0.5750	76.1300
 0.5760	76.3300
 0.5770	76.5400
 0.5780	76.4700
 0.5790	76.6700
 0.5800	76.7400
 0.5810	76.7900
 0.5820	77.0100
 0.5830	77.0100
 0.5840	77.1400
 0.5850	77.3500
 0.5860	77.4000
 0.5870	77.5400
 0.5880	77.6100
 0.5890	77.6800
 0.5900	77.8200
 0.5910	77.8700
 0.5920	78.1200
 0.5930	78.2600
 0.5940	78.3300
 0.5950	78.4500
 0.5960	78.4600
 0.5970	78.6500
 0.5980	78.6800
 0.5990	78.8300
 0.6000	78.9900
 0.6010	78.9600
 0.6020	79.0800
 0.6030	79.2900
 0.6040	79.3200
 0.6050	79.3600
 0.6060	79.3600
 0.6070	79.5900
 0.6080	79.7400
 0.6090	79.7000
 0.6100	79.8800
 0.6110	79.9000
 0.6120	80.0900
 0.6130	80.2200
 0.6140	80.2000
 0.6150	80.2900
 0.6160	80.3000
 0.6170	80.5500
 0.6180	80.5600
 0.6190	80.5000
 0.6200	80.5900
 0.6210	80.5800
 0.6220	80.8100
 0.6230	80.9400
 0.6240	80.9200
 0.6250	81.0800
 0.6260	81.0800
 0.6270	81.2900
 0.6280	81.3700
 0.6290	81.3200
 0.6300	81.4200
 0.6310	81.4600
 0.6320	81.6100
 0.6330	81.7700
 0.6340	81.6700
 0.6350	81.8000
 0.6360	81.7700
 0.6370	82.0000
 0.6380	82.0400
 0.6390	81.9300
 0.6400	82.0200
 0.6410	82.0300
 0.6420	82.2100
 0.6430	82.2600
 0.6440	82.2500
 0.6450	82.4100
 0.6460	82.3600
 0.6470	82.4300
 0.6480	82.6200
 0.6490	82.6200
 0.6500	82.6700
 0.6510	82.6700
 0.6520	82.8500
 0.6530	82.9500
 0.6540	82.8000
 0.6550	82.8900
 0.6560	82.9000
 0.6570	83.0500
 0.6580	83.0900
 0.6590	82.9900
 0.6600	83.1100
 0.6610	83.0900
 0.6620	83.3200
 0.6630	83.3100
 0.6640	83.3600
 0.6650	83.4400
 0.6660	83.4400
 0.6670	83.3900
 0.6680	83.6000
 0.6690	83.4800
 0.6700	83.6300
 0.6710	83.5600
 0.6720	83.5700
 0.6730	83.7400
 0.6740	83.6600
 0.6750	83.7600
 0.6760	83.7100
 0.6770	83.8700
 0.6780	83.9300
 0.6790	83.8300
 0.6800	83.8700
 0.6810	83.8200
 0.6820	83.9700
 0.6830	84.0700
 0.6840	84.0300
 0.6850	84.1000
 0.6860	83.9000
 0.6870	84.0700
 0.6880	84.1700
 0.6890	84.1600
 0.6900	84.2300
 0.6910	84.1200
 0.6920	84.2800
 0.6930	84.2800
 0.6940	84.3300
 0.6950	84.3600
 0.6960	84.3100
 0.6970	84.4200
 0.6980	84.2900
 0.6990	84.2300
 0.7000	84.3900
 0.7010	84.4200
 0.7020	84.5500
 0.7030	84.5600
 0.7040	84.5600
 0.7050	84.5200
 0.7060	84.6500
 0.7070	84.6400
 0.7080	84.7000
 0.7090	84.8200
 0.7100	84.7700
 0.7110	84.8700
 0.7120	84.7000
 0.7130	84.7400
 0.7140	84.8900
 0.7150	84.8500
 0.7160	84.8600
 0.7170	84.7800
 0.7180	84.8800
 0.7190	84.8600
 0.7200	84.8600
 0.7210	85.0500
 0.7220	84.8800
 0.7230	84.9300
 0.7240	84.9700
 0.7250	84.9700
 0.7260	85.0500
 0.7270	84.9400
 0.7280	85.0700
 0.7290	85.1100
 0.7300	85.0400
 0.7310	85.1000
 0.7320	85.0500
 0.7330	85.2300
 0.7340	85.2600
 0.7350	85.1500
 0.7360	85.2700
 0.7370	85.1100
 0.7380	85.0500
 0.7390	85.1100
 0.7400	85.1600
 0.7410	85.2400
 0.7420	85.2000
 0.7430	85.1900
 0.7440	85.3300
 0.7450	85.2900
 0.7460	85.4100
 0.7470	85.2400
 0.7480	85.3100
 0.7490	85.4000
 0.7500	85.4200
 0.7510	85.5300
 0.7520	85.4000
 0.7530	85.3900
 0.7540	85.5000
 0.7550	85.4100
 0.7560	85.5300
 0.7570	85.4700
 0.7580	85.4600
 0.7590	85.5200
 0.7600	85.4700
 0.7610	85.5700
 0.7620	85.4500
 0.7630	85.5200
 0.7640	85.5900
 0.7650	85.5500
 0.7660	85.6400
 0.7670	85.4700
 0.7680	85.5900
 0.7690	85.5900
 0.7700	85.6000
 0.7710	85.5700
 0.7720	85.5200
 0.7730	85.6400
 0.7740	85.8200
 0.7750	85.7600
 0.7760	85.8000
 0.7770	85.6500
 0.7780	85.7100
 0.7790	85.7600
 0.7800	85.6300
 0.7810	85.8000
 0.7820	85.7100
 0.7830	85.8400
 0.7840	85.8300
 0.7850	85.7700
 0.7860	85.8300
 0.7870	85.7700
 0.7880	85.8300
 0.7890	85.8600
 0.7900	85.8600
 0.7910	85.9400
 0.7920	85.8900
 0.7930	85.9900
 0.7940	86.0400
 0.7950	85.9800
 0.7960	85.9700
 0.7970	85.8600
 0.7980	86.0100
 0.7990	86.0900
 0.8000	86.1100
 0.8040	86.1100
 0.8080	86.2300
 0.8120	86.1700
 0.8160	86.1600
 0.8200	86.2700
 0.8240	86.3300
 0.8280	86.2900
 0.8320	86.3900
 0.8360	86.4300
 0.8400	86.4500
 0.8440	86.4400
 0.8480	86.5500
 0.8520	86.4900
 0.8560	86.5400
 0.8600	86.4800
 0.8640	86.6100
 0.8680	86.6400
 0.8720	86.6500
 0.8760	86.6600
 0.8800	86.7000
 0.8840	86.6500
 0.8880	86.7100
 0.8920	86.7600
 0.8960	86.8300
 0.9000	86.8800
 0.9040	86.7700
 0.9080	86.8100
 0.9120	86.8200
 0.9160	86.8300
 0.9200	86.8200
 0.9240	86.8800
 0.9280	86.9400
 0.9320	86.9300
 0.9360	86.8800
 0.9400	86.9800
 0.9440	87.0400
 0.9480	87.1100
 0.9520	87.1000
 0.9560	87.0500
 0.9600	87.1100
 0.9640	87.1000
 0.9680	87.1100
 0.9720	87.0000
 0.9760	86.9400
 0.9800	86.9400
 0.9840	87.0100
 0.9880	87.0800
 0.9920	87.1300
 0.9960	87.1100
 1.0000	87.1100
 1.0040	87.1000
 1.0080	87.1200
 1.0120	87.2500
 1.0160	87.1800
 1.0200	87.2400
 1.0240	87.2300
 1.0280	87.2800
 1.0320	87.2900
 1.0360	87.2500
 1.0400	87.3700
 1.0440	87.3800
 1.0480	87.3100
 1.0520	87.2600
 1.0560	87.3000
 1.0600	87.2400
 1.0640	87.2600
 1.0680	87.2600
 1.0720	87.2800
 1.0760	87.1800
 1.0800	87.3200
 1.0840	87.3500
 1.0880	87.2600
 1.0920	87.2100
 1.0960	87.2700
 1.1000	87.3400
 1.1040	87.3200
 1.1080	87.3000
 1.1120	87.3100
 1.1160	87.4200
 1.1200	87.4900
 1.1240	87.4800
 1.1280	87.5800
 1.1320	87.4900
 1.1360	87.5400
 1.1400	87.5000
 1.1440	87.4100
 1.1480	87.4300
 1.1520	87.4200
 1.1560	87.4200
 1.1600	87.4700
 1.1640	87.4700
 1.1680	87.4000
 1.1720	87.4100
 1.1760	87.4000
 1.1800	87.2900
 1.1840	87.3300
 1.1880	87.4000
 1.1920	87.3500
 1.1960	87.3700
 1.2000	87.4400
 1.2040	87.4500
 1.2080	87.2900
 1.2120	87.3400
 1.2160	87.2500
 1.2200	87.3000
 1.2240	87.3200
 1.2280	87.3800
 1.2320	87.3400
 1.2360	87.2500
 1.2400	87.2600
 1.2440	87.3900
 1.2480	87.3500
 1.2520	87.3000
 1.2560	87.3000
 1.2600	87.3600
 1.2640	87.2500
 1.2680	87.2800
 1.2720	87.2400
 1.2760	87.2000
 1.2800	87.2300
 1.2840	87.3900
 1.2880	87.3200
 1.2920	87.3100
 1.2960	87.2800
 1.3000	87.2800
 1.3040	87.2000
 1.3080	87.1700
 1.3120	87.1800
 1.3160	87.2300
 1.3200	87.1700
 1.3240	87.2100
 1.3280	87.2100
 1.3320	87.1400
 1.3360	87.2400
 1.3400	87.2900
 1.3440	87.2500
 1.3480	87.2500
 1.3520	87.2400
 1.3560	87.3400
 1.3600	87.3500
 1.3640	87.2300
 1.3680	87.2200
 1.3720	87.2700
 1.3760	87.2500
 1.3800	87.1700
 1.3840	87.2100
 1.3880	87.1800
 1.3920	87.2200
 1.3960	87.1500
 1.4000	87.0000
 1.4040	87.0100
 1.4080	86.9600
 1.4120	86.9100
 1.4160	86.9000
 1.4200	86.9700
 1.4240	86.9600
 1.4280	86.9800
 1.4320	86.9300
 1.4360	87.0100
 1.4400	87.0800
 1.4440	87.0900
 1.4480	87.0800
 1.4520	87.1000
 1.4560	87.1400
 1.4600	87.0900
 1.4640	87.2000
 1.4680	87.1800
 1.4720	87.2100
 1.4760	87.3100
 1.4800	87.2600
 1.4840	87.2600
 1.4880	87.2600
 1.4920	87.2200
 1.4960	87.2700
 1.5000	87.4000
 1.5040	87.4000
 1.5080	87.4100
 1.5120	87.4100
 1.5160	87.5300
 1.5200	87.4700
 1.5240	87.4200
 1.5280	87.4900
 1.5320	87.4900
 1.5360	87.4900
 1.5400	87.5700
 1.5440	87.4900
 1.5480	87.4900
 1.5520	87.5400
 1.5560	87.5400
 1.5600	87.4900
 1.5640	87.5400
 1.5680	87.5600
 1.5720	87.6100
 1.5760	87.5600
 1.5800	87.5600
 1.5840	87.5400
 1.5880	87.4900
 1.5920	87.5200
 1.5960	87.5900
 1.6000	87.5700
 1.6040	87.6900
 1.6080	87.5700
 1.6120	87.5200
 1.6160	87.5200
 1.6200	87.5900
 1.6240	87.5700
 1.6280	87.6300
 1.6320	87.5300
 1.6360	87.5000
 1.6400	87.5600
 1.6440	87.6400
 1.6480	87.6400
 1.6520	87.6900
 1.6560	87.6900
 1.6600	87.6800
 1.6640	87.6700
 1.6680	87.7800
 1.6720	87.8200
 1.6760	87.8100
 1.6800	87.8100
 1.6840	87.8700
 1.6880	87.8200
 1.6920	87.8700
 1.6960	87.8500
 1.7000	87.9100
 1.7040	87.8500
 1.7080	87.8400
 1.7120	87.8200
 1.7160	87.8300
 1.7200	87.8800
 1.7240	87.8800
 1.7280	87.8500
 1.7320	87.8600
 1.7360	87.8500
 1.7400	87.8500
 1.7440	87.9000
 1.7480	87.8400
 1.7520	87.7200
 1.7560	87.7700
 1.7600	87.7300
 1.7640	87.7200
 1.7680	87.6700
 1.7720	87.6100
 1.7760	87.5800
 1.7800	87.7300
 1.7840	87.7300
 1.7880	87.6600
 1.7920	87.7700
 1.7960	87.7800
 1.8000	87.7900
 1.8040	87.7100
 1.8080	87.7000
 1.8120	87.6500
 1.8160	87.6900
 1.8200	87.6600
 1.8240	87.6300
 1.8280	87.6500
 1.8320	87.6300
 1.8360	87.6900
 1.8400	87.6100
 1.8440	87.6700
 1.8480	87.5300
 1.8520	87.5200
 1.8560	87.4600
 1.8600	87.4400
 1.8640	87.5500
 1.8680	87.4200
 1.8720	87.4800
 1.8760	87.4500
 1.8800	87.4000
 1.8840	87.2700
 1.8880	87.1800
 1.8920	87.1700
 1.8960	87.0900
 1.9000	86.9800
 1.9040	86.9000
 1.9080	86.7200
 1.9120	86.6300
 1.9160	86.6400
 1.9200	86.7000
 1.9240	86.7500
 1.9280	86.6400
 1.9320	86.7100
 1.9360	86.7100
 1.9400	86.8000
 1.9440	86.7300
 1.9480	86.7500
 1.9520	86.8000
 1.9560	86.8900
 1.9600	86.8900
 1.9640	86.9400
 1.9680	86.9900
 1.9720	87.1000
 1.9760	87.0200
 1.9800	87.1300
 1.9840	87.2300
 1.9880	87.3300
 1.9920	87.4400
 1.9960	87.5200
 2.0000	87.6000
 2.0040	87.6600
 2.0080	87.7200
 2.0120	87.7100
 2.0160	87.8000
 2.0200	87.8800
 2.0240	87.8100
 2.0280	87.9500
 2.0320	87.9500
 2.0360	87.9600
 2.0400	88.0400
 2.0440	88.0300
 2.0480	88.0200
 2.0520	88.0200
 2.0560	88.0000
 2.0600	88.0000
 2.0640	88.0800
 2.0680	88.1500
 2.0720	88.0000
 2.0760	88.1900
 2.0800	88.2100
 2.0840	88.2300
 2.0880	88.1900
 2.0920	88.2700
 2.0960	88.2300
 2.1000	88.3100
 2.1040	88.3200
 2.1080	88.4500
 2.1120	88.5100
 2.1160	88.6300
 2.1200	88.5800
 2.1240	88.6600
 2.1280	88.5300
 2.1320	88.4400
 2.1360	88.5000
 2.1400	88.5000
 2.1440	88.4200
 2.1480	88.3900
 2.1520	88.3900
 2.1560	88.3100
 2.1600	88.2500
 2.1640	88.2700
 2.1680	88.1700
 2.1720	88.1000
 2.1760	88.0500
 2.1800	88.0000
 2.1840	87.9500
 2.1880	87.9700
 2.1920	87.9200
 2.1960	87.9000
 2.2000	87.9600
 2.2040	87.8400
 2.2080	87.8300
 2.2120	87.8500
 2.2160	87.8900
 2.2200	87.9400
 2.2240	87.9400
 2.2280	88.0000
 2.2320	87.9700
 2.2360	88.0000
 2.2400	87.9500
 2.2440	87.9600
 2.2480	88.0200
 2.2520	87.8800
 2.2560	87.9500
 2.2600	87.9300
 2.2640	87.8800
 2.2680	88.0400
 2.2720	87.9700
 2.2760	87.9400
 2.2800	87.9500
 2.2840	87.9200
 2.2880	87.9400
 2.2920	87.9400
 2.2960	87.8700
 2.3000	87.8700
 2.3040	87.8500
 2.3080	87.8700
 2.3120	87.9500
 2.3160	88.1500
 2.3200	88.1600
 2.3240	88.1600
 2.3280	88.1400
 2.3320	88.2000
 2.3360	88.1900
 2.3400	88.2200
 2.3440	88.2600
 2.3480	88.2700
 2.3520	88.2500
 2.3560	88.2700
 2.3600	88.1800
 2.3640	88.2600
 2.3680	88.1500
 2.3720	88.1900
 2.3760	88.2000
 2.3800	88.1400
 2.3840	88.1500
 2.3880	88.0700
 2.3920	88.1700
 2.3960	88.0500
 2.4000	88.1100
 2.4040	88.0500
 2.4080	88.0400
 2.4120	88.0400
 2.4160	87.9900
 2.4200	88.0800
 2.4240	88.0100
 2.4280	88.0100
 2.4320	88.0600
 2.4360	87.8900
 2.4400	87.9300
 2.4440	87.9200
 2.4480	87.8500
 2.4520	87.8500
 2.4560	87.8000
 2.4600	87.7800
 2.4640	87.7800
 2.4680	87.7700
 2.4720	87.7000
 2.4760	87.7600
 2.4800	87.8100
 2.4840	87.9100
 2.4880	88.0100
 2.4920	88.1800
 2.4960	88.3400
 2.5000	88.5400
