Name: Natrojarosite NaFe_3^3+(SO_4)_2(OH)_6
Type: Mineral
Class: Sulfate
Subclass: None
Particle Size: Medium
Sample No.: SO-7C
Owner: JPL
Wavelength Range: VSWIR
Origin: USA, Utah, Tooele County, Gold Hill.
Collection Date: N/A
Description: Particle size was 45-125um. Collected by:  Ward's Original ASTER Spectral Library name was jpl.perkin.mineral.sulfate.none.medium.so07c.spectrum.txt
Measurement: Hemispherical reflectance
First Column: X
Second Column: Y
X Units: Wavelength (micrometers)
Y Units:Reflectance (percent)
First X Value:  2.5000
Last X Value:  0.4000
Number of X Values: 2101
Additional Information: mineral.sulfate.none.medium.vswir.so-7c.jpl.perkin.ancillary.txt

 2.5000	41.0722
 2.4990	41.2017
 2.4980	41.5516
 2.4970	41.8148
 2.4960	41.8474
 2.4950	42.1711
 2.4940	42.3595
 2.4930	42.5886
 2.4920	42.9388
 2.4910	42.9294
 2.4900	43.1107
 2.4890	43.1799
 2.4880	43.5371
 2.4870	43.2890
 2.4860	43.4859
 2.4850	43.6097
 2.4840	43.6290
 2.4830	43.7171
 2.4820	43.8303
 2.4810	43.7899
 2.4800	43.7493
 2.4790	43.7397
 2.4780	43.8384
 2.4770	43.6675
 2.4760	43.8727
 2.4750	43.6567
 2.4740	43.6365
 2.4730	43.5710
 2.4720	43.6557
 2.4710	43.5187
 2.4700	43.5325
 2.4690	43.5025
 2.4680	43.3460
 2.4670	43.3950
 2.4660	43.4477
 2.4650	43.3545
 2.4640	43.2911
 2.4630	43.4199
 2.4620	43.4035
 2.4610	43.3668
 2.4600	43.4200
 2.4590	43.4307
 2.4580	43.4496
 2.4570	43.6325
 2.4560	43.7513
 2.4550	43.8342
 2.4540	43.9390
 2.4530	44.0164
 2.4520	44.2056
 2.4510	44.3566
 2.4500	44.6058
 2.4490	44.7333
 2.4480	44.9483
 2.4470	45.1975
 2.4460	45.3258
 2.4450	45.4602
 2.4440	45.7519
 2.4430	45.8478
 2.4420	46.0359
 2.4410	46.1889
 2.4400	46.4013
 2.4390	46.4243
 2.4380	46.6649
 2.4370	46.7999
 2.4360	46.8372
 2.4350	46.9960
 2.4340	47.0500
 2.4330	47.1094
 2.4320	47.3028
 2.4310	47.2444
 2.4300	47.2612
 2.4290	47.3773
 2.4280	47.4884
 2.4270	47.4852
 2.4260	47.4640
 2.4250	47.4394
 2.4240	47.4280
 2.4230	47.4164
 2.4220	47.4567
 2.4210	47.4114
 2.4200	47.4274
 2.4190	47.5426
 2.4180	47.6006
 2.4170	47.5136
 2.4160	47.5801
 2.4150	47.6071
 2.4140	47.6847
 2.4130	47.6839
 2.4120	47.7638
 2.4110	47.8743
 2.4100	47.9321
 2.4090	47.9821
 2.4080	48.1582
 2.4070	48.2940
 2.4060	48.4217
 2.4050	48.5447
 2.4040	48.6510
 2.4030	48.7543
 2.4020	48.9946
 2.4010	49.1642
 2.4000	49.4108
 2.3990	49.6248
 2.3980	49.8873
 2.3970	50.1250
 2.3960	50.3779
 2.3950	50.6513
 2.3940	50.9781
 2.3930	51.1751
 2.3920	51.4522
 2.3910	51.7781
 2.3900	52.0713
 2.3890	52.3292
 2.3880	52.6746
 2.3870	52.9750
 2.3860	53.2322
 2.3850	53.5474
 2.3840	53.8549
 2.3830	54.1507
 2.3820	54.4759
 2.3810	54.7920
 2.3800	55.0678
 2.3790	55.3154
 2.3780	55.5575
 2.3770	55.7789
 2.3760	56.0063
 2.3750	56.2199
 2.3740	56.3906
 2.3730	56.6436
 2.3720	56.9595
 2.3710	57.2424
 2.3700	57.3982
 2.3690	57.6104
 2.3680	57.8243
 2.3670	57.9891
 2.3660	58.2068
 2.3650	58.3855
 2.3640	58.5528
 2.3630	58.6865
 2.3620	58.8464
 2.3610	59.1002
 2.3600	59.2713
 2.3590	59.3385
 2.3580	59.4557
 2.3570	59.6278
 2.3560	59.8254
 2.3550	59.9189
 2.3540	59.9595
 2.3530	60.1033
 2.3520	60.2289
 2.3510	60.3336
 2.3500	60.4160
 2.3490	60.5598
 2.3480	60.6534
 2.3470	60.6994
 2.3460	60.7472
 2.3450	60.8428
 2.3440	60.8853
 2.3430	60.9458
 2.3420	61.0225
 2.3410	61.0463
 2.3400	61.0224
 2.3390	61.0286
 2.3380	61.0932
 2.3370	61.1227
 2.3360	61.0780
 2.3350	61.0608
 2.3340	61.0703
 2.3330	61.0384
 2.3320	61.0385
 2.3310	61.0215
 2.3300	60.9259
 2.3290	60.8552
 2.3280	60.7865
 2.3270	60.6885
 2.3260	60.6110
 2.3250	60.4905
 2.3240	60.3437
 2.3230	60.2838
 2.3220	60.1286
 2.3210	59.9424
 2.3200	59.7552
 2.3190	59.6007
 2.3180	59.4319
 2.3170	59.2693
 2.3160	58.9489
 2.3150	58.7520
 2.3140	58.5166
 2.3130	58.2232
 2.3120	57.9881
 2.3110	57.7865
 2.3100	57.5375
 2.3090	57.2366
 2.3080	56.9829
 2.3070	56.7688
 2.3060	56.5379
 2.3050	56.3155
 2.3040	56.0978
 2.3030	55.8792
 2.3020	55.6945
 2.3010	55.5155
 2.3000	55.2894
 2.2990	55.1610
 2.2980	55.0153
 2.2970	54.8396
 2.2960	54.6764
 2.2950	54.4642
 2.2940	54.2571
 2.2930	54.1065
 2.2920	53.8272
 2.2910	53.5814
 2.2900	53.2746
 2.2890	53.0045
 2.2880	52.6327
 2.2870	52.3032
 2.2860	51.9533
 2.2850	51.5983
 2.2840	51.2556
 2.2830	50.8660
 2.2820	50.4515
 2.2810	50.0642
 2.2800	49.6384
 2.2790	49.3849
 2.2780	48.9653
 2.2770	48.6244
 2.2760	48.3136
 2.2750	47.9433
 2.2740	47.6610
 2.2730	47.4439
 2.2720	47.2564
 2.2710	47.1292
 2.2700	46.8656
 2.2690	46.8066
 2.2680	46.7174
 2.2670	46.6336
 2.2660	46.6180
 2.2650	46.7368
 2.2640	46.8155
 2.2630	46.9224
 2.2620	46.9666
 2.2610	47.1633
 2.2600	47.3974
 2.2590	47.7511
 2.2580	47.9490
 2.2570	48.3236
 2.2560	48.6116
 2.2550	49.0524
 2.2540	49.4901
 2.2530	49.8515
 2.2520	50.2261
 2.2510	50.6813
 2.2500	51.0736
 2.2490	51.4004
 2.2480	51.7275
 2.2470	52.1193
 2.2460	52.3503
 2.2450	52.6707
 2.2440	52.9428
 2.2430	53.1926
 2.2420	53.3653
 2.2410	53.5484
 2.2400	53.6967
 2.2390	53.8881
 2.2380	53.9115
 2.2370	54.1091
 2.2360	54.1773
 2.2350	54.3161
 2.2340	54.3591
 2.2330	54.4832
 2.2320	54.4842
 2.2310	54.5445
 2.2300	54.7348
 2.2290	54.7799
 2.2280	54.8186
 2.2270	54.9608
 2.2260	54.9940
 2.2250	55.1450
 2.2240	55.1548
 2.2230	55.4128
 2.2220	55.4666
 2.2210	55.6047
 2.2200	55.8021
 2.2190	55.9222
 2.2180	56.1056
 2.2170	56.2283
 2.2160	56.3458
 2.2150	56.4810
 2.2140	56.6713
 2.2130	56.8930
 2.2120	57.1197
 2.2110	57.1155
 2.2100	57.3906
 2.2090	57.5679
 2.2080	57.6388
 2.2070	57.9278
 2.2060	57.9522
 2.2050	58.2276
 2.2040	58.3080
 2.2030	58.4514
 2.2020	58.7152
 2.2010	58.8482
 2.2000	59.0419
 2.1990	59.1995
 2.1980	59.2763
 2.1970	59.3994
 2.1960	59.5541
 2.1950	59.6417
 2.1940	59.8861
 2.1930	59.9641
 2.1920	60.1499
 2.1910	60.3472
 2.1900	60.3258
 2.1890	60.4886
 2.1880	60.6397
 2.1870	60.8101
 2.1860	60.9373
 2.1850	61.0961
 2.1840	61.2778
 2.1830	61.3222
 2.1820	61.3972
 2.1810	61.5929
 2.1800	61.6241
 2.1790	61.7651
 2.1780	61.8527
 2.1770	61.9683
 2.1760	62.0048
 2.1750	62.1184
 2.1740	62.2292
 2.1730	62.3253
 2.1720	62.4230
 2.1710	62.4484
 2.1700	62.5861
 2.1690	62.6475
 2.1680	62.7434
 2.1670	62.7957
 2.1660	62.8365
 2.1650	62.8613
 2.1640	62.9860
 2.1630	63.0655
 2.1620	63.1277
 2.1610	63.1932
 2.1600	63.1940
 2.1590	63.2787
 2.1580	63.3427
 2.1570	63.4723
 2.1560	63.5183
 2.1550	63.5914
 2.1540	63.6552
 2.1530	63.7114
 2.1520	63.7763
 2.1510	63.8860
 2.1500	63.9200
 2.1490	64.0380
 2.1480	64.0650
 2.1470	64.1964
 2.1460	64.2270
 2.1450	64.2747
 2.1440	64.2652
 2.1430	64.3803
 2.1420	64.4356
 2.1410	64.5097
 2.1400	64.5367
 2.1390	64.5986
 2.1380	64.5797
 2.1370	64.6504
 2.1360	64.7842
 2.1350	64.7708
 2.1340	64.7620
 2.1330	64.8188
 2.1320	64.8799
 2.1310	64.8876
 2.1300	64.9943
 2.1290	65.0173
 2.1280	65.0447
 2.1270	65.0661
 2.1260	65.0300
 2.1250	65.0388
 2.1240	65.0926
 2.1230	65.1216
 2.1220	65.0922
 2.1210	65.1503
 2.1200	65.1147
 2.1190	65.1307
 2.1180	65.1803
 2.1170	65.2357
 2.1160	65.2491
 2.1150	65.2264
 2.1140	65.2187
 2.1130	65.2349
 2.1120	65.2329
 2.1110	65.2445
 2.1100	65.2531
 2.1090	65.2989
 2.1080	65.2040
 2.1070	65.2465
 2.1060	65.3206
 2.1050	65.3009
 2.1040	65.3072
 2.1030	65.3662
 2.1020	65.4502
 2.1010	65.4450
 2.1000	65.3560
 2.0990	65.4099
 2.0980	65.4485
 2.0970	65.5061
 2.0960	65.6008
 2.0950	65.6906
 2.0940	65.6404
 2.0930	65.6695
 2.0920	65.6956
 2.0910	65.7236
 2.0900	65.8412
 2.0890	65.8862
 2.0880	65.8294
 2.0870	65.9067
 2.0860	65.9868
 2.0850	66.0219
 2.0840	66.0430
 2.0830	66.0575
 2.0820	66.0894
 2.0810	66.1577
 2.0800	66.2193
 2.0790	66.2340
 2.0780	66.2321
 2.0770	66.2833
 2.0760	66.3810
 2.0750	66.4354
 2.0740	66.4261
 2.0730	66.4856
 2.0720	66.5956
 2.0710	66.6251
 2.0700	66.6547
 2.0690	66.7444
 2.0680	66.7629
 2.0670	66.7941
 2.0660	66.8448
 2.0650	66.8832
 2.0640	66.9419
 2.0630	66.9667
 2.0620	67.0434
 2.0610	67.1011
 2.0600	67.1479
 2.0590	67.2140
 2.0580	67.2471
 2.0570	67.2879
 2.0560	67.3496
 2.0550	67.4120
 2.0540	67.4720
 2.0530	67.4807
 2.0520	67.5154
 2.0510	67.5691
 2.0500	67.6487
 2.0490	67.6865
 2.0480	67.7310
 2.0470	67.8246
 2.0460	67.8643
 2.0450	67.9047
 2.0440	67.9344
 2.0430	67.9598
 2.0420	67.9905
 2.0410	68.0299
 2.0400	68.1483
 2.0390	68.2193
 2.0380	68.2194
 2.0370	68.2795
 2.0360	68.3500
 2.0350	68.4464
 2.0340	68.4705
 2.0330	68.5454
 2.0320	68.6567
 2.0310	68.7208
 2.0300	68.7796
 2.0290	68.8001
 2.0280	68.8626
 2.0270	68.9051
 2.0260	68.9549
 2.0250	69.0154
 2.0240	68.9877
 2.0230	68.9612
 2.0220	69.0608
 2.0210	69.0838
 2.0200	69.0362
 2.0190	69.0704
 2.0180	69.1426
 2.0170	69.1412
 2.0160	69.1580
 2.0150	69.1830
 2.0140	69.1647
 2.0130	69.1345
 2.0120	69.1350
 2.0110	69.2418
 2.0100	69.1881
 2.0090	69.2629
 2.0080	69.2921
 2.0070	69.2406
 2.0060	69.2662
 2.0050	69.2958
 2.0040	69.3806
 2.0030	69.2973
 2.0020	69.3273
 2.0010	69.3047
 2.0000	69.3583
 1.9990	69.4304
 1.9980	69.4212
 1.9970	69.3785
 1.9960	69.4498
 1.9950	69.4624
 1.9940	69.5847
 1.9930	69.5685
 1.9920	69.5643
 1.9910	69.6318
 1.9900	69.7407
 1.9890	69.7468
 1.9880	69.7578
 1.9870	69.7386
 1.9860	69.8068
 1.9850	69.8468
 1.9840	69.7983
 1.9830	69.7968
 1.9820	69.8388
 1.9810	69.9406
 1.9800	69.9255
 1.9790	69.9477
 1.9780	69.9528
 1.9770	69.9309
 1.9760	69.9709
 1.9750	69.8483
 1.9740	70.0271
 1.9730	69.9251
 1.9720	69.9270
 1.9710	69.9776
 1.9700	70.0725
 1.9690	70.0764
 1.9680	70.0754
 1.9670	70.0467
 1.9660	70.0338
 1.9650	69.9433
 1.9640	70.0870
 1.9630	70.0712
 1.9620	70.1041
 1.9610	70.1383
 1.9600	70.1394
 1.9590	70.1568
 1.9580	70.2348
 1.9570	70.1984
 1.9560	70.2587
 1.9550	70.2584
 1.9540	70.2479
 1.9530	70.2637
 1.9520	70.3231
 1.9510	70.2760
 1.9500	70.3465
 1.9490	70.3277
 1.9480	70.4868
 1.9470	70.3576
 1.9460	70.4612
 1.9450	70.4387
 1.9440	70.5731
 1.9430	70.4589
 1.9420	70.5078
 1.9410	70.5089
 1.9400	70.6625
 1.9390	70.5821
 1.9380	70.6890
 1.9370	70.7353
 1.9360	70.8218
 1.9350	70.7226
 1.9340	70.8924
 1.9330	70.8486
 1.9320	70.9074
 1.9310	71.0584
 1.9300	71.1203
 1.9290	71.1786
 1.9280	71.2331
 1.9270	71.3308
 1.9260	71.3687
 1.9250	71.5359
 1.9240	71.5149
 1.9230	71.6890
 1.9220	71.7973
 1.9210	71.8763
 1.9200	71.9833
 1.9190	72.0792
 1.9180	72.1930
 1.9170	72.2175
 1.9160	72.3031
 1.9150	72.4673
 1.9140	72.6161
 1.9130	72.6620
 1.9120	72.7127
 1.9110	72.7860
 1.9100	72.9249
 1.9090	73.0043
 1.9080	73.0299
 1.9070	73.1135
 1.9060	73.2507
 1.9050	73.3283
 1.9040	73.4576
 1.9030	73.5220
 1.9020	73.5743
 1.9010	73.7094
 1.9000	73.8162
 1.8990	73.8794
 1.8980	73.9092
 1.8970	73.9265
 1.8960	74.0352
 1.8950	74.0926
 1.8940	74.1055
 1.8930	74.0496
 1.8920	74.0772
 1.8910	74.0914
 1.8900	74.1382
 1.8890	74.0548
 1.8880	74.1407
 1.8870	74.0695
 1.8860	74.0778
 1.8850	73.9839
 1.8840	73.8774
 1.8830	73.7913
 1.8820	73.7271
 1.8810	73.5949
 1.8800	73.5282
 1.8790	73.4061
 1.8780	73.2072
 1.8770	73.0457
 1.8760	72.8230
 1.8750	72.5676
 1.8740	72.3113
 1.8730	71.9323
 1.8720	71.4858
 1.8710	71.0350
 1.8700	70.6161
 1.8690	70.1837
 1.8680	69.7044
 1.8670	69.2672
 1.8660	68.9362
 1.8650	68.6008
 1.8640	68.3004
 1.8630	68.0486
 1.8620	67.8997
 1.8610	67.7115
 1.8600	67.5378
 1.8590	67.3641
 1.8580	67.2977
 1.8570	67.2677
 1.8560	67.1561
 1.8550	66.9520
 1.8540	66.8823
 1.8530	66.7307
 1.8520	66.4718
 1.8510	66.2592
 1.8500	66.0803
 1.8490	65.9147
 1.8480	65.7830
 1.8470	65.6889
 1.8460	65.7721
 1.8450	65.8052
 1.8440	65.9620
 1.8430	66.1926
 1.8420	66.5344
 1.8410	66.9281
 1.8400	67.3818
 1.8390	67.8117
 1.8380	68.3552
 1.8370	68.9047
 1.8360	69.3707
 1.8350	69.8908
 1.8340	70.3683
 1.8330	70.8336
 1.8320	71.2475
 1.8310	71.6402
 1.8300	71.9852
 1.8290	72.3244
 1.8280	72.7076
 1.8270	72.9160
 1.8260	73.1207
 1.8250	73.3605
 1.8240	73.5686
 1.8230	73.7407
 1.8220	73.8975
 1.8210	73.9466
 1.8200	74.0554
 1.8190	74.1500
 1.8180	74.3128
 1.8170	74.3858
 1.8160	74.5157
 1.8150	74.6020
 1.8140	74.7069
 1.8130	74.8004
 1.8120	74.9364
 1.8110	75.0578
 1.8100	75.1693
 1.8090	75.2556
 1.8080	75.2968
 1.8070	75.4031
 1.8060	75.5721
 1.8050	75.6332
 1.8040	75.6231
 1.8030	75.7703
 1.8020	75.9478
 1.8010	75.9918
 1.8000	75.9889
 1.7990	75.9996
 1.7980	76.0722
 1.7970	76.1221
 1.7960	76.1731
 1.7950	76.1798
 1.7940	76.1860
 1.7930	76.2509
 1.7920	76.2926
 1.7910	76.3238
 1.7900	76.3191
 1.7890	76.3408
 1.7880	76.4168
 1.7870	76.4184
 1.7860	76.4599
 1.7850	76.5047
 1.7840	76.4875
 1.7830	76.5012
 1.7820	76.5767
 1.7810	76.6151
 1.7800	76.6107
 1.7790	76.6050
 1.7780	76.5903
 1.7770	76.6172
 1.7760	76.6833
 1.7750	76.7565
 1.7740	76.7418
 1.7730	76.7275
 1.7720	76.7344
 1.7710	76.7929
 1.7700	76.8087
 1.7690	76.8102
 1.7680	76.8629
 1.7670	76.9072
 1.7660	76.9059
 1.7650	76.9086
 1.7640	76.8960
 1.7630	76.9850
 1.7620	77.0453
 1.7610	77.0636
 1.7600	77.0546
 1.7590	77.1106
 1.7580	77.1657
 1.7570	77.2316
 1.7560	77.2256
 1.7550	77.2305
 1.7540	77.3011
 1.7530	77.3438
 1.7520	77.4034
 1.7510	77.3786
 1.7500	77.3713
 1.7490	77.4378
 1.7480	77.4649
 1.7470	77.5145
 1.7460	77.5034
 1.7450	77.5585
 1.7440	77.6000
 1.7430	77.5903
 1.7420	77.6759
 1.7410	77.6827
 1.7400	77.6499
 1.7390	77.7149
 1.7380	77.8362
 1.7370	77.7809
 1.7360	77.7624
 1.7350	77.8805
 1.7340	77.8464
 1.7330	77.8873
 1.7320	77.9555
 1.7310	77.9188
 1.7300	77.9200
 1.7290	77.9593
 1.7280	78.0034
 1.7270	77.9950
 1.7260	78.0151
 1.7250	77.9711
 1.7240	78.0172
 1.7230	78.0125
 1.7220	77.9634
 1.7210	78.0632
 1.7200	78.0708
 1.7190	78.1218
 1.7180	78.1279
 1.7170	78.0999
 1.7160	78.0468
 1.7150	78.0810
 1.7140	78.0123
 1.7130	78.1244
 1.7120	78.0959
 1.7110	78.1623
 1.7100	78.1492
 1.7090	78.1090
 1.7080	78.0419
 1.7070	78.0832
 1.7060	78.0613
 1.7050	78.0981
 1.7040	78.0386
 1.7030	78.0185
 1.7020	78.0606
 1.7010	78.0710
 1.7000	78.0837
 1.6990	78.1011
 1.6980	78.0046
 1.6970	78.0022
 1.6960	78.0049
 1.6950	78.0576
 1.6940	78.0650
 1.6930	78.0255
 1.6920	77.9648
 1.6910	77.9783
 1.6900	77.9654
 1.6890	78.0194
 1.6880	77.8958
 1.6870	77.9098
 1.6860	77.8506
 1.6850	77.8618
 1.6840	77.8623
 1.6830	77.9010
 1.6820	77.8847
 1.6810	77.9155
 1.6800	77.8609
 1.6790	77.8547
 1.6780	77.8063
 1.6770	77.8897
 1.6760	77.8585
 1.6750	77.7812
 1.6740	77.7118
 1.6730	77.6929
 1.6720	77.7401
 1.6710	77.6841
 1.6700	77.7815
 1.6690	77.7870
 1.6680	77.6527
 1.6670	77.7411
 1.6660	77.7115
 1.6650	77.7450
 1.6640	77.7203
 1.6630	77.7415
 1.6620	77.7105
 1.6610	77.6626
 1.6600	77.6968
 1.6590	77.7549
 1.6580	77.6430
 1.6570	77.7743
 1.6560	77.6632
 1.6550	77.7097
 1.6540	77.6729
 1.6530	77.6343
 1.6520	77.5628
 1.6510	77.5763
 1.6500	77.5227
 1.6490	77.6749
 1.6480	77.5143
 1.6470	77.5936
 1.6460	77.6386
 1.6450	77.5819
 1.6440	77.4667
 1.6430	77.6346
 1.6420	77.6324
 1.6410	77.4738
 1.6400	77.5336
 1.6390	77.6095
 1.6380	77.4644
 1.6370	77.4354
 1.6360	77.4655
 1.6350	77.6106
 1.6340	77.4504
 1.6330	77.3857
 1.6320	77.5252
 1.6310	77.4312
 1.6300	77.3876
 1.6290	77.3888
 1.6280	77.3763
 1.6270	77.4009
 1.6260	77.3682
 1.6250	77.2947
 1.6240	77.3242
 1.6230	77.3225
 1.6220	77.2341
 1.6210	77.2779
 1.6200	77.2289
 1.6190	77.2434
 1.6180	77.1696
 1.6170	77.1473
 1.6160	77.1527
 1.6150	77.1949
 1.6140	77.0956
 1.6130	77.0951
 1.6120	77.0686
 1.6110	77.1203
 1.6100	77.0487
 1.6090	76.9819
 1.6080	77.0202
 1.6070	76.9990
 1.6060	77.0289
 1.6050	77.0001
 1.6040	76.9293
 1.6030	76.8935
 1.6020	76.8507
 1.6010	76.7829
 1.6000	76.7740
 1.5990	76.7913
 1.5980	76.7704
 1.5970	76.7199
 1.5960	76.6433
 1.5950	76.6002
 1.5940	76.6504
 1.5930	76.5651
 1.5920	76.5103
 1.5910	76.5009
 1.5900	76.4517
 1.5890	76.4119
 1.5880	76.3126
 1.5870	76.2560
 1.5860	76.2779
 1.5850	76.2154
 1.5840	76.0720
 1.5830	76.0670
 1.5820	75.9762
 1.5810	75.9762
 1.5800	75.8799
 1.5790	75.8663
 1.5780	75.7255
 1.5770	75.6808
 1.5760	75.6635
 1.5750	75.5287
 1.5740	75.5209
 1.5730	75.4493
 1.5720	75.4015
 1.5710	75.3154
 1.5700	75.2116
 1.5690	75.1591
 1.5680	75.1390
 1.5670	75.1197
 1.5660	75.0232
 1.5650	74.9629
 1.5640	74.9510
 1.5630	74.9371
 1.5620	74.8422
 1.5610	74.6752
 1.5600	74.6638
 1.5590	74.6498
 1.5580	74.5122
 1.5570	74.4056
 1.5560	74.3567
 1.5550	74.3144
 1.5540	74.2688
 1.5530	74.2333
 1.5520	74.1375
 1.5510	74.0864
 1.5500	74.0692
 1.5490	74.0179
 1.5480	74.0064
 1.5470	73.9838
 1.5460	73.9462
 1.5450	73.9417
 1.5440	73.9275
 1.5430	73.9186
 1.5420	73.8903
 1.5410	73.8538
 1.5400	73.8460
 1.5390	73.8280
 1.5380	73.8652
 1.5370	73.8184
 1.5360	73.8570
 1.5350	73.8697
 1.5340	73.7934
 1.5330	73.8036
 1.5320	73.8290
 1.5310	73.8961
 1.5300	73.8676
 1.5290	73.9012
 1.5280	73.9289
 1.5270	73.9739
 1.5260	73.9556
 1.5250	73.9217
 1.5240	73.9569
 1.5230	73.9955
 1.5220	74.0572
 1.5210	74.1246
 1.5200	74.1071
 1.5190	74.1036
 1.5180	74.1175
 1.5170	74.1772
 1.5160	74.1589
 1.5150	74.1639
 1.5140	74.2105
 1.5130	74.2357
 1.5120	74.2744
 1.5110	74.2785
 1.5100	74.2832
 1.5090	74.3383
 1.5080	74.3775
 1.5070	74.3768
 1.5060	74.3424
 1.5050	74.3186
 1.5040	74.2721
 1.5030	74.2016
 1.5020	74.2072
 1.5010	74.1866
 1.5000	74.1013
 1.4990	74.0741
 1.4980	73.9727
 1.4970	73.8218
 1.4960	73.8012
 1.4950	73.7195
 1.4940	73.5859
 1.4930	73.3933
 1.4920	73.1936
 1.4910	72.9893
 1.4900	72.6304
 1.4890	72.2293
 1.4880	71.7760
 1.4870	71.2473
 1.4860	70.6434
 1.4850	69.9925
 1.4840	69.3579
 1.4830	68.7517
 1.4820	68.2233
 1.4810	67.7866
 1.4800	67.5498
 1.4790	67.4243
 1.4780	67.2971
 1.4770	67.2211
 1.4760	67.2613
 1.4750	67.4566
 1.4740	67.8115
 1.4730	68.1190
 1.4720	68.5300
 1.4710	68.9044
 1.4700	69.2202
 1.4690	69.6183
 1.4680	69.9868
 1.4670	70.4008
 1.4660	70.8259
 1.4650	71.1534
 1.4640	71.5588
 1.4630	72.0153
 1.4620	72.3533
 1.4610	72.7619
 1.4600	73.1522
 1.4590	73.4614
 1.4580	73.7641
 1.4570	74.0876
 1.4560	74.3434
 1.4550	74.5382
 1.4540	74.7232
 1.4530	74.8444
 1.4520	74.9717
 1.4510	75.1062
 1.4500	75.2591
 1.4490	75.4042
 1.4480	75.4375
 1.4470	75.5138
 1.4460	75.5831
 1.4450	75.7078
 1.4440	75.7069
 1.4430	75.7205
 1.4420	75.8595
 1.4410	75.9053
 1.4400	75.9480
 1.4390	75.9524
 1.4380	76.0021
 1.4370	75.9537
 1.4360	76.0205
 1.4350	76.0182
 1.4340	76.0194
 1.4330	75.9871
 1.4320	76.0738
 1.4310	76.0676
 1.4300	76.1089
 1.4290	76.0686
 1.4280	76.0965
 1.4270	76.0998
 1.4260	76.0934
 1.4250	76.0782
 1.4240	76.0684
 1.4230	76.0740
 1.4220	76.1392
 1.4210	76.0844
 1.4200	76.1187
 1.4190	76.0246
 1.4180	76.0483
 1.4170	75.9988
 1.4160	76.0188
 1.4150	75.9321
 1.4140	75.9016
 1.4130	75.9506
 1.4120	75.9242
 1.4110	75.8926
 1.4100	75.9573
 1.4090	75.7951
 1.4080	75.7851
 1.4070	75.7783
 1.4060	75.7600
 1.4050	75.6570
 1.4040	75.6731
 1.4030	75.5313
 1.4020	75.4416
 1.4010	75.4428
 1.4000	75.2590
 1.3990	75.2054
 1.3980	75.1862
 1.3970	75.1763
 1.3960	75.1560
 1.3950	75.1891
 1.3940	75.1401
 1.3930	75.0839
 1.3920	75.1451
 1.3910	74.9809
 1.3900	74.8807
 1.3890	74.8608
 1.3880	74.8346
 1.3870	74.7321
 1.3860	74.6534
 1.3850	74.4733
 1.3840	74.5099
 1.3830	74.4167
 1.3820	74.3956
 1.3810	74.2280
 1.3800	74.2090
 1.3790	74.1636
 1.3780	74.1275
 1.3770	74.0554
 1.3760	73.9918
 1.3750	73.8867
 1.3740	73.8640
 1.3730	73.7947
 1.3720	73.7585
 1.3710	73.7006
 1.3700	73.6159
 1.3690	73.4948
 1.3680	73.4896
 1.3670	73.3890
 1.3660	73.3136
 1.3650	73.2363
 1.3640	73.1943
 1.3630	73.1233
 1.3620	73.0345
 1.3610	72.8916
 1.3600	72.8405
 1.3590	72.8602
 1.3580	72.7178
 1.3570	72.6890
 1.3560	72.6394
 1.3550	72.4754
 1.3540	72.4246
 1.3530	72.3043
 1.3520	72.2777
 1.3510	72.1672
 1.3500	72.1091
 1.3490	72.0520
 1.3480	72.0106
 1.3470	71.9488
 1.3460	71.7604
 1.3450	71.7088
 1.3440	71.6660
 1.3430	71.5008
 1.3420	71.5012
 1.3410	71.3993
 1.3400	71.2245
 1.3390	71.1529
 1.3380	71.0753
 1.3370	71.0107
 1.3360	70.8943
 1.3350	70.7616
 1.3340	70.6560
 1.3330	70.5816
 1.3320	70.4969
 1.3310	70.3825
 1.3300	70.3437
 1.3290	70.2592
 1.3280	70.0951
 1.3270	70.0822
 1.3260	69.9946
 1.3250	69.8939
 1.3240	69.8911
 1.3230	69.6630
 1.3220	69.5561
 1.3210	69.5011
 1.3200	69.5120
 1.3190	69.3628
 1.3180	69.2779
 1.3170	69.1263
 1.3160	69.0582
 1.3150	68.9531
 1.3140	68.9176
 1.3130	68.7752
 1.3120	68.7029
 1.3110	68.6103
 1.3100	68.5113
 1.3090	68.4472
 1.3080	68.3569
 1.3070	68.1468
 1.3060	68.1150
 1.3050	68.0178
 1.3040	67.9821
 1.3030	67.8364
 1.3020	67.7730
 1.3010	67.6470
 1.3000	67.5902
 1.2990	67.5413
 1.2980	67.3665
 1.2970	67.2879
 1.2960	67.2512
 1.2950	67.1241
 1.2940	67.0516
 1.2930	66.9993
 1.2920	66.8236
 1.2910	66.6605
 1.2900	66.6568
 1.2890	66.4957
 1.2880	66.3516
 1.2870	66.2941
 1.2860	66.2613
 1.2850	66.1253
 1.2840	66.0124
 1.2830	65.9466
 1.2820	65.8212
 1.2810	65.6746
 1.2800	65.6344
 1.2790	65.5913
 1.2780	65.4578
 1.2770	65.3248
 1.2760	65.1691
 1.2750	65.1197
 1.2740	65.0409
 1.2730	64.9426
 1.2720	64.8599
 1.2710	64.7481
 1.2700	64.6990
 1.2690	64.5124
 1.2680	64.4573
 1.2670	64.4008
 1.2660	64.2624
 1.2650	64.1608
 1.2640	64.0138
 1.2630	63.9313
 1.2620	63.8146
 1.2610	63.7399
 1.2600	63.5786
 1.2590	63.5139
 1.2580	63.4582
 1.2570	63.3766
 1.2560	63.2977
 1.2550	63.1515
 1.2540	63.0075
 1.2530	62.9538
 1.2520	62.8488
 1.2510	62.7141
 1.2500	62.6178
 1.2490	62.5424
 1.2480	62.4470
 1.2470	62.3370
 1.2460	62.2889
 1.2450	62.1665
 1.2440	62.1026
 1.2430	61.9790
 1.2420	61.8291
 1.2410	61.7100
 1.2400	61.6162
 1.2390	61.5119
 1.2380	61.3698
 1.2370	61.3189
 1.2360	61.2626
 1.2350	61.1163
 1.2340	61.0316
 1.2330	60.9080
 1.2320	60.7781
 1.2310	60.6783
 1.2300	60.6063
 1.2290	60.4791
 1.2280	60.3439
 1.2270	60.2450
 1.2260	60.1637
 1.2250	60.1194
 1.2240	60.0162
 1.2230	59.8510
 1.2220	59.7365
 1.2210	59.6559
 1.2200	59.5663
 1.2190	59.4567
 1.2180	59.3365
 1.2170	59.2370
 1.2160	59.1530
 1.2150	59.0130
 1.2140	58.8509
 1.2130	58.7865
 1.2120	58.7045
 1.2110	58.5956
 1.2100	58.5063
 1.2090	58.3983
 1.2080	58.2429
 1.2070	58.1767
 1.2060	58.1299
 1.2050	58.0178
 1.2040	57.9097
 1.2030	57.7677
 1.2020	57.6372
 1.2010	57.5629
 1.2000	57.4980
 1.1990	57.4121
 1.1980	57.2644
 1.1970	57.1574
 1.1960	57.0456
 1.1950	56.9873
 1.1940	56.8575
 1.1930	56.7415
 1.1920	56.6208
 1.1910	56.5544
 1.1900	56.4931
 1.1890	56.3813
 1.1880	56.1435
 1.1870	56.0416
 1.1860	55.9786
 1.1850	55.9104
 1.1840	55.8322
 1.1830	55.7213
 1.1820	55.5483
 1.1810	55.4510
 1.1800	55.3095
 1.1790	55.2448
 1.1780	55.1423
 1.1770	55.0522
 1.1760	54.9885
 1.1750	54.9062
 1.1740	54.7991
 1.1730	54.6734
 1.1720	54.5299
 1.1710	54.4886
 1.1700	54.3683
 1.1690	54.2039
 1.1680	54.0819
 1.1670	54.0054
 1.1660	53.9441
 1.1650	53.8211
 1.1640	53.7349
 1.1630	53.6672
 1.1620	53.5446
 1.1610	53.4791
 1.1600	53.3401
 1.1590	53.2269
 1.1580	53.1394
 1.1570	53.0489
 1.1560	52.9280
 1.1550	52.8646
 1.1540	52.7342
 1.1530	52.5965
 1.1520	52.4689
 1.1510	52.3380
 1.1500	52.2106
 1.1490	52.1763
 1.1480	52.0615
 1.1470	51.9582
 1.1460	51.8804
 1.1450	51.7603
 1.1440	51.6437
 1.1430	51.5813
 1.1420	51.4186
 1.1410	51.3830
 1.1400	51.2120
 1.1390	51.1187
 1.1380	50.9696
 1.1370	50.9124
 1.1360	50.7962
 1.1350	50.6714
 1.1340	50.5706
 1.1330	50.4868
 1.1320	50.4065
 1.1310	50.2902
 1.1300	50.1698
 1.1290	50.0833
 1.1280	50.0186
 1.1270	49.8641
 1.1260	49.7433
 1.1250	49.6406
 1.1240	49.5132
 1.1230	49.4344
 1.1220	49.3879
 1.1210	49.3058
 1.1200	49.0810
 1.1190	49.0137
 1.1180	48.9024
 1.1170	48.8847
 1.1160	48.7379
 1.1150	48.6814
 1.1140	48.5271
 1.1130	48.4535
 1.1120	48.2904
 1.1110	48.2738
 1.1100	48.1425
 1.1090	48.0049
 1.1080	47.9291
 1.1070	47.8076
 1.1060	47.6817
 1.1050	47.6273
 1.1040	47.4443
 1.1030	47.3469
 1.1020	47.2056
 1.1010	47.1545
 1.1000	47.0789
 1.0990	46.9382
 1.0980	46.7966
 1.0970	46.7250
 1.0960	46.5328
 1.0950	46.5398
 1.0940	46.3541
 1.0930	46.3353
 1.0920	46.1344
 1.0910	46.0178
 1.0900	46.0122
 1.0890	45.8622
 1.0880	45.7780
 1.0870	45.7106
 1.0860	45.5056
 1.0850	45.4869
 1.0840	45.3680
 1.0830	45.2563
 1.0820	45.1542
 1.0810	45.0440
 1.0800	44.8927
 1.0790	44.8495
 1.0780	44.6914
 1.0770	44.5853
 1.0760	44.4517
 1.0750	44.3537
 1.0740	44.2887
 1.0730	44.1476
 1.0720	44.0740
 1.0710	44.0102
 1.0700	43.6932
 1.0690	43.7918
 1.0680	43.5423
 1.0670	43.5885
 1.0660	43.3332
 1.0650	43.3188
 1.0640	43.1671
 1.0630	43.0991
 1.0620	42.9401
 1.0610	42.7859
 1.0600	42.6939
 1.0590	42.6254
 1.0580	42.5003
 1.0570	42.4529
 1.0560	42.2880
 1.0550	42.2640
 1.0540	42.0790
 1.0530	42.0329
 1.0520	41.8926
 1.0510	41.7506
 1.0500	41.7017
 1.0490	41.5417
 1.0480	41.4654
 1.0470	41.3696
 1.0460	41.2778
 1.0450	41.1128
 1.0440	41.0317
 1.0430	40.9488
 1.0420	40.7944
 1.0410	40.7186
 1.0400	40.5630
 1.0390	40.5073
 1.0380	40.3637
 1.0370	40.3466
 1.0360	40.2447
 1.0350	40.0860
 1.0340	40.0065
 1.0330	39.9375
 1.0320	39.7903
 1.0310	39.7195
 1.0300	39.5697
 1.0290	39.4625
 1.0280	39.3719
 1.0270	39.3039
 1.0260	39.1928
 1.0250	39.1151
 1.0240	38.9585
 1.0230	38.8400
 1.0220	38.7263
 1.0210	38.7460
 1.0200	38.5830
 1.0190	38.5178
 1.0180	38.4067
 1.0170	38.3209
 1.0160	38.2516
 1.0150	38.1688
 1.0140	38.0412
 1.0130	37.8611
 1.0120	37.8480
 1.0110	37.8005
 1.0100	37.6396
 1.0090	37.5843
 1.0080	37.4833
 1.0070	37.4686
 1.0060	37.2912
 1.0050	37.2454
 1.0040	37.0382
 1.0030	37.0647
 1.0020	37.0075
 1.0010	36.9309
 1.0000	36.8700
 0.9990	36.7664
 0.9980	36.6861
 0.9970	36.6267
 0.9960	36.5593
 0.9950	36.5474
 0.9940	36.3648
 0.9930	36.3309
 0.9920	36.2615
 0.9910	36.2176
 0.9900	36.1328
 0.9890	36.0201
 0.9880	35.9353
 0.9870	35.9140
 0.9860	35.8235
 0.9850	35.7682
 0.9840	35.6628
 0.9830	35.5605
 0.9820	35.5080
 0.9810	35.5344
 0.9800	35.4037
 0.9790	35.3685
 0.9780	35.3072
 0.9770	35.2637
 0.9760	35.2230
 0.9750	35.1649
 0.9740	35.0815
 0.9730	35.1225
 0.9720	35.0066
 0.9710	34.9115
 0.9700	34.8922
 0.9690	34.8522
 0.9680	34.7346
 0.9670	34.6938
 0.9660	34.7064
 0.9650	34.6600
 0.9640	34.5658
 0.9630	34.5489
 0.9620	34.4812
 0.9610	34.4269
 0.9600	34.3903
 0.9590	34.4357
 0.9580	34.3742
 0.9570	34.2971
 0.9560	34.3026
 0.9550	34.2629
 0.9540	34.2179
 0.9530	34.2334
 0.9520	34.1745
 0.9510	34.1104
 0.9500	34.1005
 0.9490	34.0339
 0.9480	33.9383
 0.9470	33.9684
 0.9460	33.9260
 0.9450	33.9607
 0.9440	33.9705
 0.9430	33.9047
 0.9420	33.8526
 0.9410	33.8450
 0.9400	33.8081
 0.9390	33.8117
 0.9380	33.8232
 0.9370	33.8257
 0.9360	33.7850
 0.9350	33.7418
 0.9340	33.7494
 0.9330	33.7169
 0.9320	33.6638
 0.9310	33.6576
 0.9300	33.6480
 0.9290	33.6334
 0.9280	33.6137
 0.9270	33.6040
 0.9260	33.5711
 0.9250	33.5919
 0.9240	33.6217
 0.9230	33.6183
 0.9220	33.6600
 0.9210	33.6332
 0.9200	33.6057
 0.9190	33.6331
 0.9180	33.6090
 0.9170	33.5684
 0.9160	33.5794
 0.9150	33.6091
 0.9140	33.6283
 0.9130	33.6110
 0.9120	33.6318
 0.9110	33.6061
 0.9100	33.6423
 0.9090	33.6320
 0.9080	33.6458
 0.9070	33.6804
 0.9060	33.6930
 0.9050	33.6520
 0.9040	33.6773
 0.9030	33.6945
 0.9020	33.7393
 0.9010	33.7753
 0.9000	33.8082
 0.8990	33.7733
 0.8980	33.8080
 0.8970	33.8442
 0.8960	33.8934
 0.8950	33.8767
 0.8940	33.9020
 0.8930	33.9463
 0.8920	34.0035
 0.8910	34.0010
 0.8900	34.0429
 0.8890	34.0426
 0.8880	34.0635
 0.8870	34.1180
 0.8860	34.1369
 0.8850	34.1303
 0.8840	34.2145
 0.8830	34.2573
 0.8820	34.3146
 0.8810	34.3422
 0.8800	34.3842
 0.8790	34.4690
 0.8780	34.4993
 0.8770	34.4464
 0.8760	34.5387
 0.8750	34.6360
 0.8740	34.6777
 0.8730	34.6923
 0.8720	34.7829
 0.8710	34.7691
 0.8700	34.8517
 0.8690	34.9005
 0.8680	34.9678
 0.8670	35.0052
 0.8660	35.1401
 0.8650	35.1710
 0.8640	35.1993
 0.8630	35.2407
 0.8620	35.3779
 0.8610	35.4522
 0.8600	35.6738
 0.8590	35.7710
 0.8580	35.8337
 0.8570	35.9246
 0.8560	36.0112
 0.8550	36.0977
 0.8540	36.1717
 0.8530	36.2683
 0.8520	36.3541
 0.8510	36.4587
 0.8500	36.5295
 0.8490	36.5883
 0.8480	36.6823
 0.8470	36.8302
 0.8460	36.9089
 0.8450	36.9777
 0.8440	37.0699
 0.8430	37.1673
 0.8420	37.2342
 0.8410	37.3524
 0.8400	37.4411
 0.8390	37.5313
 0.8380	37.6139
 0.8370	37.7507
 0.8360	37.8639
 0.8350	37.9436
 0.8340	38.0541
 0.8330	38.1397
 0.8320	38.2630
 0.8310	38.4035
 0.8300	38.4834
 0.8290	38.6196
 0.8280	38.7657
 0.8270	38.8934
 0.8260	39.0005
 0.8250	39.1261
 0.8240	39.2521
 0.8230	39.3800
 0.8220	39.4974
 0.8210	39.6134
 0.8200	39.7762
 0.8190	39.9061
 0.8180	40.0549
 0.8170	40.1732
 0.8160	40.3100
 0.8150	40.4599
 0.8140	40.5752
 0.8130	40.6815
 0.8120	40.8390
 0.8110	40.9749
 0.8100	41.0980
 0.8090	41.2346
 0.8080	41.3943
 0.8070	41.5455
 0.8060	41.7035
 0.8050	41.8404
 0.8040	41.9845
 0.8030	42.1145
 0.8020	42.2829
 0.8010	42.4559
 0.8000	42.6136
 0.7990	42.7652
 0.7980	42.8787
 0.7970	43.0472
 0.7960	43.1658
 0.7950	43.3241
 0.7940	43.4819
 0.7930	43.6519
 0.7920	43.7812
 0.7910	43.9655
 0.7900	44.1031
 0.7890	44.2679
 0.7880	44.4099
 0.7870	44.5578
 0.7860	44.7230
 0.7850	44.8839
 0.7840	45.0429
 0.7830	45.1597
 0.7820	45.3507
 0.7810	45.4630
 0.7800	45.6037
 0.7790	45.7823
 0.7780	45.9221
 0.7770	46.0714
 0.7760	46.2120
 0.7750	46.2992
 0.7740	46.4564
 0.7730	46.5878
 0.7720	46.7401
 0.7710	46.8587
 0.7700	46.9865
 0.7690	47.1260
 0.7680	47.2381
 0.7670	47.3472
 0.7660	47.4774
 0.7650	47.5951
 0.7640	47.7221
 0.7630	47.8280
 0.7620	47.9219
 0.7610	48.0078
 0.7600	48.1196
 0.7590	48.2233
 0.7580	48.2936
 0.7570	48.3723
 0.7560	48.4432
 0.7550	48.5419
 0.7540	48.5944
 0.7530	48.6807
 0.7520	48.7485
 0.7510	48.8184
 0.7500	48.8341
 0.7490	48.9316
 0.7480	48.9703
 0.7470	49.0084
 0.7460	49.0507
 0.7450	49.0697
 0.7440	49.1074
 0.7430	49.1125
 0.7420	49.1166
 0.7410	49.1538
 0.7400	49.1421
 0.7390	49.1456
 0.7380	49.1464
 0.7370	49.1400
 0.7360	49.1254
 0.7350	49.1062
 0.7340	49.0934
 0.7330	49.0782
 0.7320	49.0445
 0.7310	49.0022
 0.7300	48.9824
 0.7290	48.9433
 0.7280	48.8887
 0.7270	48.8272
 0.7260	48.7791
 0.7250	48.6989
 0.7240	48.6401
 0.7230	48.5862
 0.7220	48.5101
 0.7210	48.4467
 0.7200	48.3734
 0.7190	48.2892
 0.7180	48.1930
 0.7170	48.1164
 0.7160	48.0284
 0.7150	47.9308
 0.7140	47.8285
 0.7130	47.7462
 0.7120	47.6339
 0.7110	47.5269
 0.7100	47.4358
 0.7090	47.3327
 0.7080	47.2115
 0.7070	47.1142
 0.7060	47.0036
 0.7050	46.8776
 0.7040	46.7676
 0.7030	46.6489
 0.7020	46.5398
 0.7010	46.4172
 0.7000	46.3108
 0.6990	46.1906
 0.6980	46.0844
 0.6970	45.9613
 0.6960	45.8344
 0.6950	45.7084
 0.6940	45.5915
 0.6930	45.4781
 0.6920	45.3676
 0.6910	45.2441
 0.6900	45.1125
 0.6890	45.0019
 0.6880	44.8825
 0.6870	44.7560
 0.6860	44.6374
 0.6850	44.5151
 0.6840	44.3920
 0.6830	44.2837
 0.6820	44.1601
 0.6810	44.0472
 0.6800	43.9286
 0.6790	43.8104
 0.6780	43.6880
 0.6770	43.5803
 0.6760	43.4802
 0.6750	43.3610
 0.6740	43.2508
 0.6730	43.1351
 0.6720	43.0302
 0.6710	42.9262
 0.6700	42.8228
 0.6690	42.7249
 0.6680	42.6261
 0.6670	42.5258
 0.6660	42.4180
 0.6650	42.3365
 0.6640	42.2401
 0.6630	42.1391
 0.6620	42.0502
 0.6610	41.9592
 0.6600	41.8654
 0.6590	41.7791
 0.6580	41.7081
 0.6570	41.6139
 0.6560	41.5267
 0.6550	41.4561
 0.6540	41.3790
 0.6530	41.2965
 0.6520	41.2265
 0.6510	41.1578
 0.6500	41.0810
 0.6490	41.0178
 0.6480	40.9573
 0.6470	40.8808
 0.6460	40.8111
 0.6450	40.7470
 0.6440	40.6841
 0.6430	40.6186
 0.6420	40.5586
 0.6410	40.5019
 0.6400	40.4482
 0.6390	40.3944
 0.6380	40.3397
 0.6370	40.2824
 0.6360	40.2288
 0.6350	40.1809
 0.6340	40.1316
 0.6330	40.0715
 0.6320	40.0137
 0.6310	39.9630
 0.6300	39.9101
 0.6290	39.8659
 0.6280	39.8144
 0.6270	39.7576
 0.6260	39.7083
 0.6250	39.6591
 0.6240	39.6034
 0.6230	39.5577
 0.6220	39.5114
 0.6210	39.4600
 0.6200	39.4084
 0.6190	39.3499
 0.6180	39.2993
 0.6170	39.2477
 0.6160	39.1912
 0.6150	39.1385
 0.6140	39.0854
 0.6130	39.0318
 0.6120	38.9644
 0.6110	38.9123
 0.6100	38.8597
 0.6090	38.7958
 0.6080	38.7386
 0.6070	38.6846
 0.6060	38.6160
 0.6050	38.5595
 0.6040	38.4969
 0.6030	38.4242
 0.6020	38.3554
 0.6010	38.2924
 0.6000	38.2190
 0.5990	38.1454
 0.5980	38.0737
 0.5970	38.0065
 0.5960	37.9323
 0.5950	37.8485
 0.5940	37.7604
 0.5930	37.6723
 0.5920	37.5720
 0.5910	37.4619
 0.5900	37.3601
 0.5890	37.2496
 0.5880	37.1302
 0.5870	37.0055
 0.5860	36.8803
 0.5850	36.7424
 0.5840	36.6039
 0.5830	36.4482
 0.5820	36.2965
 0.5810	36.1337
 0.5800	35.9547
 0.5790	35.7804
 0.5780	35.5904
 0.5770	35.4030
 0.5760	35.2275
 0.5750	35.0300
 0.5740	34.8069
 0.5730	34.5776
 0.5720	34.3453
 0.5710	34.0983
 0.5700	33.8509
 0.5690	33.5933
 0.5680	33.3308
 0.5670	33.0538
 0.5660	32.7703
 0.5650	32.4765
 0.5640	32.2111
 0.5630	31.9312
 0.5620	31.6286
 0.5610	31.2806
 0.5600	30.9458
 0.5590	30.6238
 0.5580	30.2960
 0.5570	29.9628
 0.5560	29.6262
 0.5550	29.2803
 0.5540	28.9339
 0.5530	28.5877
 0.5520	28.2412
 0.5510	27.8837
 0.5500	27.5304
 0.5490	27.1804
 0.5480	26.8303
 0.5470	26.4796
 0.5460	26.1247
 0.5450	25.7752
 0.5440	25.4233
 0.5430	25.0702
 0.5420	24.7261
 0.5410	24.3800
 0.5400	24.0350
 0.5390	23.6934
 0.5380	23.3610
 0.5370	23.0406
 0.5360	22.7148
 0.5350	22.3906
 0.5340	22.0750
 0.5330	21.7652
 0.5320	21.4662
 0.5310	21.1655
 0.5300	20.8723
 0.5290	20.5841
 0.5280	20.2987
 0.5270	20.0295
 0.5260	19.7660
 0.5250	19.5013
 0.5240	19.2404
 0.5230	18.9938
 0.5220	18.7503
 0.5210	18.5106
 0.5200	18.2795
 0.5190	18.0498
 0.5180	17.8335
 0.5170	17.6274
 0.5160	17.4450
 0.5150	17.2463
 0.5140	17.0462
 0.5130	16.8515
 0.5120	16.6634
 0.5110	16.4713
 0.5100	16.2883
 0.5090	16.1137
 0.5080	15.9434
 0.5070	15.7786
 0.5060	15.6101
 0.5050	15.4461
 0.5040	15.2864
 0.5030	15.1282
 0.5020	14.9779
 0.5010	14.8297
 0.5000	14.6801
 0.4990	14.5366
 0.4980	14.3944
 0.4970	14.2628
 0.4960	14.1295
 0.4950	13.9957
 0.4940	13.8645
 0.4930	13.7399
 0.4920	13.6125
 0.4910	13.4949
 0.4900	13.3756
 0.4890	13.2605
 0.4880	13.1438
 0.4870	13.0284
 0.4860	12.9213
 0.4850	12.8157
 0.4840	12.7048
 0.4830	12.6042
 0.4820	12.5045
 0.4810	12.4065
 0.4800	12.3183
 0.4790	12.2246
 0.4780	12.1358
 0.4770	12.0436
 0.4760	11.9527
 0.4750	11.8663
 0.4740	11.7704
 0.4730	11.6823
 0.4720	11.5896
 0.4710	11.5039
 0.4700	11.4088
 0.4690	11.3214
 0.4680	11.2297
 0.4670	11.1335
 0.4660	11.0405
 0.4650	10.9444
 0.4640	10.8468
 0.4630	10.7455
 0.4620	10.6377
 0.4610	10.5293
 0.4600	10.4161
 0.4590	10.2985
 0.4580	10.1656
 0.4570	10.0253
 0.4560	 9.8788
 0.4550	 9.7341
 0.4540	 9.5667
 0.4530	 9.3981
 0.4520	 9.2242
 0.4510	 9.0440
 0.4500	 8.8708
 0.4490	 8.6793
 0.4480	 8.4753
 0.4470	 8.2822
 0.4460	 8.0822
 0.4450	 7.8807
 0.4440	 7.6809
 0.4430	 7.4866
 0.4420	 7.2997
 0.4410	 7.1247
 0.4400	 6.9556
 0.4390	 6.7960
 0.4380	 6.6542
 0.4370	 6.5277
 0.4360	 6.4320
 0.4350	 6.3630
 0.4340	 6.3272
 0.4330	 6.3276
 0.4320	 6.3670
 0.4310	 6.4362
 0.4300	 6.5240
 0.4290	 6.6277
 0.4280	 6.7312
 0.4270	 6.8308
 0.4260	 6.9207
 0.4250	 6.9924
 0.4240	 7.0512
 0.4230	 7.0970
 0.4220	 7.1287
 0.4210	 7.1537
 0.4200	 7.1659
 0.4190	 7.1689
 0.4180	 7.1633
 0.4170	 7.1430
 0.4160	 7.1135
 0.4150	 7.0717
 0.4140	 7.0141
 0.4130	 6.9445
 0.4120	 6.8608
 0.4110	 6.7665
 0.4100	 6.6599
 0.4090	 6.5336
 0.4080	 6.3951
 0.4070	 6.2515
 0.4060	 6.0960
 0.4050	 5.9311
 0.4040	 5.7641
 0.4030	 5.5858
 0.4020	 5.4086
 0.4010	 5.2341
 0.4000	 5.0572
