Name: Hemimorphite Zn_4Si_2O_7(OH)_2.H_2O
Type: Mineral
Class: Silicate
Subclass: Sorosilicate
Particle Size: Fine
Sample No.: SS-2A
Owner: JPL
Wavelength Range: VSWIR
Origin: Mexico, Durango, Ojuela Mine
Collection Date: N/A
Description: Particle size was 0-45um.Collected by Burminco Original ASTER Spectral Library name was jpl.beckman.mineral.silicate.sorosilicate.fine.ss02a.spectrum.txt
Measurement: Hemispherical reflectance
First Column: X
Second Column: Y
X Units: Wavelength (micrometers)
Y Units:Reflectance (percent)
First X Value:  0.4000
Last X Value:  2.5000
Number of X Values: 826
Additional Information: mineral.silicate.sorosilicate.fine.vswir.ss-2a.jpl.beckman.ancillary.txt

 0.4000	86.9400
 0.4010	86.8600
 0.4020	87.0500
 0.4030	87.0600
 0.4040	87.0000
 0.4050	87.1800
 0.4060	87.2400
 0.4070	87.2400
 0.4080	87.2900
 0.4090	87.1300
 0.4100	87.2400
 0.4110	87.3500
 0.4120	87.1800
 0.4130	87.3600
 0.4140	87.2400
 0.4150	87.2400
 0.4160	87.4000
 0.4170	87.2400
 0.4180	87.3600
 0.4190	87.4200
 0.4200	87.4700
 0.4210	87.4700
 0.4220	87.3600
 0.4230	87.5500
 0.4240	87.6800
 0.4250	87.7400
 0.4260	87.7800
 0.4270	87.5400
 0.4280	87.8300
 0.4290	87.9000
 0.4300	87.8900
 0.4310	87.9700
 0.4320	87.7800
 0.4330	87.9100
 0.4340	88.0800
 0.4350	88.0200
 0.4360	88.1400
 0.4370	88.1400
 0.4380	88.2600
 0.4390	88.2600
 0.4400	88.1600
 0.4410	88.2200
 0.4420	88.0600
 0.4430	88.2300
 0.4440	88.3400
 0.4450	88.2900
 0.4460	88.3900
 0.4470	88.3400
 0.4480	88.3500
 0.4490	88.5000
 0.4500	88.3900
 0.4510	88.5700
 0.4520	88.5100
 0.4530	88.4700
 0.4540	88.6600
 0.4550	88.5100
 0.4560	88.6300
 0.4570	88.5300
 0.4580	88.7300
 0.4590	88.6700
 0.4600	88.6600
 0.4610	88.7200
 0.4620	88.7200
 0.4630	88.7900
 0.4640	88.6700
 0.4650	88.7200
 0.4660	88.6600
 0.4670	88.8400
 0.4680	88.9100
 0.4690	88.8400
 0.4700	88.8500
 0.4710	88.8500
 0.4720	88.9700
 0.4730	88.8700
 0.4740	89.0500
 0.4750	89.1100
 0.4760	89.0000
 0.4770	89.1000
 0.4780	89.0500
 0.4790	89.1800
 0.4800	89.3000
 0.4810	89.2000
 0.4820	89.0800
 0.4830	89.0700
 0.4840	89.1200
 0.4850	89.3100
 0.4860	89.1400
 0.4870	89.2000
 0.4880	89.2700
 0.4890	89.2700
 0.4900	89.2200
 0.4910	89.2200
 0.4920	89.1700
 0.4930	89.3700
 0.4940	89.2600
 0.4950	89.3800
 0.4960	89.2700
 0.4970	89.3900
 0.4980	89.3500
 0.4990	89.4100
 0.5000	89.5900
 0.5010	89.6500
 0.5020	89.4200
 0.5030	89.5400
 0.5040	89.4900
 0.5050	89.6700
 0.5060	89.6800
 0.5070	89.6200
 0.5080	89.7900
 0.5090	89.7300
 0.5100	89.8400
 0.5110	89.7900
 0.5120	89.8500
 0.5130	89.8000
 0.5140	89.8000
 0.5150	90.0200
 0.5160	89.9000
 0.5170	90.0200
 0.5180	90.1400
 0.5190	89.9700
 0.5200	90.1500
 0.5210	90.0900
 0.5220	90.1600
 0.5230	90.1600
 0.5240	90.0300
 0.5250	90.1500
 0.5260	90.0900
 0.5270	90.2200
 0.5280	90.3800
 0.5290	90.2100
 0.5300	90.2700
 0.5310	90.3700
 0.5320	90.4800
 0.5330	90.4600
 0.5340	90.2700
 0.5350	90.3000
 0.5360	90.3000
 0.5370	90.3500
 0.5380	90.5900
 0.5390	90.4700
 0.5400	90.5200
 0.5410	90.4100
 0.5420	90.5300
 0.5430	90.6000
 0.5440	90.5400
 0.5450	90.4300
 0.5460	90.5600
 0.5470	90.6800
 0.5480	90.8000
 0.5490	90.7500
 0.5500	90.7600
 0.5510	90.7600
 0.5520	90.8200
 0.5530	90.8900
 0.5540	91.0100
 0.5550	90.9500
 0.5560	91.1200
 0.5570	90.9400
 0.5580	91.0900
 0.5590	91.0800
 0.5600	91.4900
 0.5610	91.7200
 0.5620	91.5400
 0.5630	91.5400
 0.5640	91.5500
 0.5650	91.6600
 0.5660	91.8300
 0.5670	91.6600
 0.5680	91.8300
 0.5690	91.8900
 0.5700	91.7100
 0.5710	91.8300
 0.5720	91.6600
 0.5730	91.6500
 0.5740	91.6300
 0.5750	91.7300
 0.5760	91.9500
 0.5770	91.9000
 0.5780	91.8300
 0.5790	91.8800
 0.5800	91.8800
 0.5810	91.9900
 0.5820	91.9400
 0.5830	91.8800
 0.5840	91.9400
 0.5850	91.9400
 0.5860	92.0600
 0.5870	92.0500
 0.5880	91.9900
 0.5890	92.1700
 0.5900	92.1200
 0.5910	92.2900
 0.5920	92.2300
 0.5930	92.2300
 0.5940	92.3500
 0.5950	92.2900
 0.5960	92.4100
 0.5970	92.3600
 0.5980	92.3600
 0.5990	92.4300
 0.6000	92.3200
 0.6010	92.6200
 0.6020	92.6300
 0.6030	92.6300
 0.6040	92.6300
 0.6050	92.5200
 0.6060	92.6300
 0.6070	92.6900
 0.6080	92.5200
 0.6090	92.6400
 0.6100	92.6400
 0.6110	92.7000
 0.6120	92.7600
 0.6130	92.6400
 0.6140	92.8100
 0.6150	92.7000
 0.6160	92.5800
 0.6170	92.6400
 0.6180	92.5800
 0.6190	92.7500
 0.6200	92.5800
 0.6210	92.6400
 0.6220	92.7000
 0.6230	92.6400
 0.6240	92.8100
 0.6250	92.7000
 0.6260	92.7000
 0.6270	92.7600
 0.6280	92.7000
 0.6290	92.9300
 0.6300	92.6400
 0.6310	92.7000
 0.6320	92.7500
 0.6330	92.7000
 0.6340	92.8700
 0.6350	92.8100
 0.6360	92.7600
 0.6370	92.8700
 0.6380	92.7600
 0.6390	92.9300
 0.6400	92.7600
 0.6410	92.7600
 0.6420	92.8700
 0.6430	92.7500
 0.6440	92.9800
 0.6450	92.9900
 0.6460	92.9900
 0.6470	92.9300
 0.6480	92.8700
 0.6490	93.0500
 0.6500	92.9900
 0.6510	92.9300
 0.6520	92.9900
 0.6530	92.8700
 0.6540	93.0400
 0.6550	93.1000
 0.6560	92.9300
 0.6570	93.0400
 0.6580	92.9900
 0.6590	92.9300
 0.6600	93.0500
 0.6610	92.9900
 0.6620	93.1000
 0.6630	93.0500
 0.6640	93.1000
 0.6650	93.1000
 0.6660	93.0500
 0.6670	93.2200
 0.6680	93.0500
 0.6690	93.0400
 0.6700	93.0500
 0.6710	93.1000
 0.6720	93.1600
 0.6730	92.9900
 0.6740	93.0500
 0.6750	93.0500
 0.6760	93.1000
 0.6770	93.2200
 0.6780	93.1600
 0.6790	93.0500
 0.6800	93.1600
 0.6810	93.1000
 0.6820	93.2800
 0.6830	93.1600
 0.6840	93.2200
 0.6850	93.3400
 0.6860	93.1100
 0.6870	93.2800
 0.6880	93.1600
 0.6890	93.0500
 0.6900	93.3400
 0.6910	93.2200
 0.6920	93.2800
 0.6930	93.3300
 0.6940	93.2200
 0.6950	93.3400
 0.6960	93.2800
 0.6970	93.2800
 0.6980	93.3300
 0.6990	93.1500
 0.7000	93.2100
 0.7010	93.1600
 0.7020	93.2800
 0.7030	93.3400
 0.7040	93.2800
 0.7050	93.2200
 0.7060	93.2200
 0.7070	93.3900
 0.7080	93.3900
 0.7090	93.3400
 0.7100	93.3400
 0.7110	93.2200
 0.7120	93.2800
 0.7130	93.3400
 0.7140	93.2800
 0.7150	93.3400
 0.7160	93.3900
 0.7170	93.3400
 0.7180	93.5100
 0.7190	93.3900
 0.7200	93.4000
 0.7210	93.3400
 0.7220	93.3400
 0.7230	93.3900
 0.7240	93.3900
 0.7250	93.3400
 0.7260	93.2200
 0.7270	93.3900
 0.7280	93.5100
 0.7290	93.3400
 0.7300	93.2800
 0.7310	93.2200
 0.7320	93.1600
 0.7330	93.2800
 0.7340	93.3400
 0.7350	93.3400
 0.7360	93.2200
 0.7370	93.2200
 0.7380	93.2200
 0.7390	93.2200
 0.7400	93.2200
 0.7410	93.2800
 0.7420	93.3400
 0.7430	93.1000
 0.7440	93.1600
 0.7450	93.2200
 0.7460	93.1600
 0.7470	93.2200
 0.7480	93.2200
 0.7490	93.2200
 0.7500	93.2200
 0.7510	93.2200
 0.7520	93.2800
 0.7530	93.2200
 0.7540	93.2200
 0.7550	93.2800
 0.7560	93.3400
 0.7570	93.4000
 0.7580	93.2200
 0.7590	93.2800
 0.7600	93.3400
 0.7610	93.3900
 0.7620	93.2800
 0.7630	93.2200
 0.7640	93.2200
 0.7650	93.3400
 0.7660	93.4500
 0.7670	93.4000
 0.7680	93.2800
 0.7690	93.2800
 0.7700	93.3400
 0.7710	93.3400
 0.7720	93.4000
 0.7730	93.4000
 0.7740	93.3400
 0.7750	93.4500
 0.7760	93.4000
 0.7770	93.3400
 0.7780	93.3400
 0.7790	93.2800
 0.7800	93.4000
 0.7810	93.4000
 0.7820	93.4500
 0.7830	93.4000
 0.7840	93.4500
 0.7850	93.3400
 0.7860	93.5100
 0.7870	93.3400
 0.7880	93.4500
 0.7890	93.4000
 0.7900	93.4500
 0.7910	93.4600
 0.7920	93.4500
 0.7930	93.5100
 0.7940	93.4000
 0.7950	93.4000
 0.7960	93.3400
 0.7970	93.4500
 0.7980	93.4500
 0.7990	93.4500
 0.8000	93.5000
 0.8040	93.4400
 0.8080	93.4400
 0.8120	93.3800
 0.8160	93.3800
 0.8200	93.3200
 0.8240	93.3200
 0.8280	93.4400
 0.8320	93.3800
 0.8360	93.5000
 0.8400	93.5600
 0.8440	93.6100
 0.8480	93.6100
 0.8520	93.6100
 0.8560	93.6100
 0.8600	93.6100
 0.8640	93.6700
 0.8680	93.6100
 0.8720	93.6100
 0.8760	93.6100
 0.8800	93.5600
 0.8840	93.5000
 0.8880	93.5600
 0.8920	93.5000
 0.8960	93.6100
 0.9000	93.6100
 0.9040	93.6100
 0.9080	93.6100
 0.9120	93.6700
 0.9160	93.6100
 0.9200	93.5600
 0.9240	93.5600
 0.9280	93.5000
 0.9320	93.4400
 0.9360	93.3200
 0.9400	93.1400
 0.9440	93.0800
 0.9480	92.9000
 0.9520	92.7200
 0.9560	92.4800
 0.9600	92.3600
 0.9640	92.2400
 0.9680	92.1800
 0.9720	92.1300
 0.9760	92.3000
 0.9800	92.4200
 0.9840	92.5400
 0.9880	92.7200
 0.9920	92.8400
 0.9960	93.0900
 1.0000	93.2600
 1.0040	93.3800
 1.0080	93.3800
 1.0120	93.5000
 1.0160	93.5600
 1.0200	93.6700
 1.0240	93.8400
 1.0280	93.7800
 1.0320	93.8400
 1.0360	93.9000
 1.0400	94.0200
 1.0440	93.9600
 1.0480	93.8400
 1.0520	93.7900
 1.0560	93.9000
 1.0600	93.9000
 1.0640	93.9000
 1.0680	94.0200
 1.0720	93.9600
 1.0760	93.9000
 1.0800	93.9600
 1.0840	93.8500
 1.0880	93.8500
 1.0920	93.9000
 1.0960	93.7900
 1.1000	93.8500
 1.1040	93.7900
 1.1080	93.7900
 1.1120	93.7300
 1.1160	93.7900
 1.1200	93.6700
 1.1240	93.6700
 1.1280	93.5000
 1.1320	93.2600
 1.1360	92.9700
 1.1400	92.5500
 1.1440	92.2400
 1.1480	91.7700
 1.1520	91.4200
 1.1560	91.2900
 1.1600	91.2800
 1.1640	91.5000
 1.1680	91.7900
 1.1720	92.1500
 1.1760	92.0800
 1.1800	92.1300
 1.1840	92.2500
 1.1880	92.2900
 1.1920	92.3600
 1.1960	92.4600
 1.2000	92.5700
 1.2040	92.5700
 1.2080	92.6400
 1.2120	92.6900
 1.2160	92.8100
 1.2200	92.8200
 1.2240	92.8200
 1.2280	92.8800
 1.2320	92.8800
 1.2360	92.8300
 1.2400	92.7700
 1.2440	92.8300
 1.2480	92.7200
 1.2520	92.7200
 1.2560	92.6500
 1.2600	92.6400
 1.2640	92.6300
 1.2680	92.5700
 1.2720	92.4500
 1.2760	92.4400
 1.2800	92.3700
 1.2840	92.3000
 1.2880	92.3500
 1.2920	92.2300
 1.2960	92.1700
 1.3000	92.0500
 1.3040	91.9200
 1.3080	91.6800
 1.3120	91.6200
 1.3160	91.2800
 1.3200	91.0400
 1.3240	90.6900
 1.3280	90.4500
 1.3320	90.1600
 1.3360	89.8500
 1.3400	89.6200
 1.3440	89.2100
 1.3480	88.8700
 1.3520	88.5200
 1.3560	87.9900
 1.3600	87.4500
 1.3640	86.9700
 1.3680	86.4400
 1.3720	85.7700
 1.3760	84.9600
 1.3800	83.8000
 1.3840	82.4900
 1.3880	80.9600
 1.3920	79.1700
 1.3960	77.2000
 1.4000	75.1000
 1.4040	73.1100
 1.4080	71.4300
 1.4120	70.2900
 1.4160	69.7100
 1.4200	69.9400
 1.4240	70.8800
 1.4280	72.1200
 1.4320	73.4800
 1.4360	74.8100
 1.4400	76.0100
 1.4440	77.1100
 1.4480	77.9000
 1.4520	78.5100
 1.4560	78.8200
 1.4600	79.1900
 1.4640	79.4400
 1.4680	80.0100
 1.4720	80.7700
 1.4760	81.5300
 1.4800	82.3700
 1.4840	83.1100
 1.4880	83.7800
 1.4920	84.4300
 1.4960	84.9700
 1.5000	85.2300
 1.5040	85.8100
 1.5080	86.1100
 1.5120	86.4700
 1.5160	86.7700
 1.5200	87.1200
 1.5240	87.4600
 1.5280	87.6400
 1.5320	87.9700
 1.5360	88.1400
 1.5400	88.4800
 1.5440	88.6500
 1.5480	88.7500
 1.5520	88.8800
 1.5560	88.9900
 1.5600	89.2400
 1.5640	89.3600
 1.5680	89.5400
 1.5720	89.6600
 1.5760	89.8200
 1.5800	89.8700
 1.5840	90.0400
 1.5880	90.0900
 1.5920	90.1400
 1.5960	90.2100
 1.6000	90.4400
 1.6040	90.4400
 1.6080	90.5400
 1.6120	90.5400
 1.6160	90.6500
 1.6200	90.7600
 1.6240	90.8000
 1.6280	90.9000
 1.6320	91.0200
 1.6360	91.0600
 1.6400	91.0500
 1.6440	91.1100
 1.6480	91.1500
 1.6520	91.1000
 1.6560	91.2100
 1.6600	91.3200
 1.6640	91.3600
 1.6680	91.2300
 1.6720	91.3500
 1.6760	91.2300
 1.6800	91.1100
 1.6840	91.2200
 1.6880	91.0300
 1.6920	91.1400
 1.6960	91.0800
 1.7000	91.0100
 1.7040	90.9500
 1.7080	90.7800
 1.7120	90.6000
 1.7160	90.3900
 1.7200	90.2100
 1.7240	90.1600
 1.7280	89.9900
 1.7320	89.6900
 1.7360	89.4000
 1.7400	89.1000
 1.7440	88.8200
 1.7480	88.4200
 1.7520	88.0900
 1.7560	87.7400
 1.7600	87.4600
 1.7640	87.0200
 1.7680	86.3700
 1.7720	85.8700
 1.7760	85.4400
 1.7800	84.8700
 1.7840	84.3800
 1.7880	83.9000
 1.7920	83.3700
 1.7960	82.9500
 1.8000	82.6700
 1.8040	82.3300
 1.8080	82.0100
 1.8120	81.6800
 1.8160	81.4500
 1.8200	81.1100
 1.8240	80.9200
 1.8280	80.7800
 1.8320	80.6600
 1.8360	80.5400
 1.8400	80.4800
 1.8440	80.5000
 1.8480	80.4500
 1.8520	80.1900
 1.8560	79.9400
 1.8600	79.3900
 1.8640	78.7100
 1.8680	77.6900
 1.8720	76.4800
 1.8760	75.1400
 1.8800	73.5400
 1.8840	71.6700
 1.8880	69.3400
 1.8920	66.6000
 1.8960	63.6900
 1.9000	60.8400
 1.9040	58.5900
 1.9080	57.2500
 1.9120	57.1100
 1.9160	57.8700
 1.9200	59.4500
 1.9240	61.4200
 1.9280	63.5300
 1.9320	65.4700
 1.9360	67.1300
 1.9400	68.3900
 1.9440	69.2800
 1.9480	69.8500
 1.9520	70.2300
 1.9560	70.4900
 1.9600	70.8200
 1.9640	71.1100
 1.9680	71.4500
 1.9720	72.0000
 1.9760	72.6100
 1.9800	73.3000
 1.9840	74.1600
 1.9880	74.9200
 1.9920	75.6100
 1.9960	76.5000
 2.0000	77.1400
 2.0040	77.7300
 2.0080	78.3600
 2.0120	78.8200
 2.0160	79.3400
 2.0200	79.7100
 2.0240	80.0000
 2.0280	80.3900
 2.0320	80.7700
 2.0360	81.0800
 2.0400	81.3200
 2.0440	81.4900
 2.0480	81.6000
 2.0520	81.7400
 2.0560	81.7500
 2.0600	81.9200
 2.0640	82.0200
 2.0680	82.0500
 2.0720	82.2100
 2.0760	82.2200
 2.0800	82.3000
 2.0840	82.3500
 2.0880	82.3800
 2.0920	82.3200
 2.0960	82.3100
 2.1000	82.2400
 2.1040	82.1700
 2.1080	82.1200
 2.1120	81.9900
 2.1160	81.9100
 2.1200	81.8300
 2.1240	81.6100
 2.1280	81.3500
 2.1320	81.0900
 2.1360	80.8800
 2.1400	80.4900
 2.1440	80.1700
 2.1480	79.8400
 2.1520	79.4600
 2.1560	79.0600
 2.1600	78.6500
 2.1640	78.3900
 2.1680	78.0000
 2.1720	77.5600
 2.1760	77.1200
 2.1800	76.8000
 2.1840	76.3800
 2.1880	76.1500
 2.1920	75.7500
 2.1960	75.4700
 2.2000	75.2700
 2.2040	74.9200
 2.2080	74.7800
 2.2120	74.6800
 2.2160	74.6500
 2.2200	74.7500
 2.2240	74.7700
 2.2280	74.9100
 2.2320	75.0800
 2.2360	75.3000
 2.2400	75.5200
 2.2440	75.6500
 2.2480	75.8600
 2.2520	75.9900
 2.2560	76.2100
 2.2600	76.2700
 2.2640	76.3200
 2.2680	76.3500
 2.2720	76.3400
 2.2760	76.3000
 2.2800	76.2300
 2.2840	76.1900
 2.2880	75.9900
 2.2920	75.8500
 2.2960	75.6600
 2.3000	75.5300
 2.3040	75.2500
 2.3080	75.0000
 2.3120	74.7000
 2.3160	74.2600
 2.3200	73.9300
 2.3240	73.4900
 2.3280	73.0800
 2.3320	72.4800
 2.3360	71.9600
 2.3400	71.3000
 2.3440	70.5100
 2.3480	69.8200
 2.3520	68.9900
 2.3560	68.1500
 2.3600	67.4000
 2.3640	66.6100
 2.3680	65.9500
 2.3720	65.3800
 2.3760	64.7600
 2.3800	64.3700
 2.3840	63.9600
 2.3880	63.4700
 2.3920	63.1000
 2.3960	62.7400
 2.4000	62.3900
 2.4040	62.0500
 2.4080	61.7200
 2.4120	61.3200
 2.4160	60.9300
 2.4200	60.6800
 2.4240	60.2900
 2.4280	60.0200
 2.4320	59.6600
 2.4360	59.4100
 2.4400	59.1600
 2.4440	58.9300
 2.4480	58.4900
 2.4520	58.2200
 2.4560	57.8400
 2.4600	57.4100
 2.4640	57.0400
 2.4680	56.5300
 2.4720	56.1200
 2.4760	55.5800
 2.4800	55.1700
 2.4840	54.7300
 2.4880	54.2500
 2.4920	53.9000
 2.4960	53.4300
 2.5000	52.9700
