Name: Alunite KAl_3(SO_4)_2(OH)_6
Type: Mineral
Class: Sulfate
Subclass: None
Particle Size: Coarse
Sample No.: SO-4A
Owner: JPL
Wavelength Range: VSWIR
Origin: USA, Utah.
Collection Date: N/A
Description: Particle size was 125-500um.Collected by:  Ward's Original ASTER Spectral Library name was jpl.perkin.mineral.sulfate.none.coarse.so04a.spectrum.txt
Measurement: Hemispherical reflectance
First Column: X
Second Column: Y
X Units: Wavelength (micrometers)
Y Units:Reflectance (percent)
First X Value:  2.5000
Last X Value:  0.4000
Number of X Values: 2101
Additional Information: mineral.sulfate.none.coarse.vswir.so-4a.jpl.perkin.ancillary.txt

 2.5000	 4.7186
 2.4990	 4.6590
 2.4980	 5.1649
 2.4970	 5.3928
 2.4960	 5.0658
 2.4950	 5.7388
 2.4940	 5.6944
 2.4930	 5.8505
 2.4920	 6.1752
 2.4910	 6.0860
 2.4900	 6.5365
 2.4890	 6.3296
 2.4880	 6.7681
 2.4870	 6.7922
 2.4860	 6.8458
 2.4850	 6.8185
 2.4840	 7.0054
 2.4830	 7.0647
 2.4820	 7.2050
 2.4810	 7.1827
 2.4800	 7.2301
 2.4790	 7.1665
 2.4780	 7.2985
 2.4770	 7.1079
 2.4760	 7.2557
 2.4750	 7.1248
 2.4740	 7.0244
 2.4730	 6.9345
 2.4720	 7.0052
 2.4710	 6.8315
 2.4700	 6.8767
 2.4690	 6.7261
 2.4680	 6.8207
 2.4670	 6.7489
 2.4660	 6.8182
 2.4650	 6.6542
 2.4640	 6.8493
 2.4630	 6.7119
 2.4620	 6.7612
 2.4610	 6.6826
 2.4600	 6.8365
 2.4590	 6.8557
 2.4580	 7.1104
 2.4570	 7.0700
 2.4560	 7.1617
 2.4550	 7.1476
 2.4540	 7.2350
 2.4530	 7.2489
 2.4520	 7.3927
 2.4510	 7.5083
 2.4500	 7.4750
 2.4490	 7.4261
 2.4480	 7.6129
 2.4470	 7.5864
 2.4460	 7.6304
 2.4450	 7.5346
 2.4440	 7.5584
 2.4430	 7.3456
 2.4420	 7.4177
 2.4410	 7.3080
 2.4400	 7.3668
 2.4390	 7.2513
 2.4380	 7.3071
 2.4370	 7.1570
 2.4360	 7.2024
 2.4350	 7.0426
 2.4340	 7.0612
 2.4330	 6.9833
 2.4320	 7.0128
 2.4310	 6.9294
 2.4300	 7.1017
 2.4290	 7.0552
 2.4280	 7.0427
 2.4270	 7.0932
 2.4260	 7.1483
 2.4250	 7.1867
 2.4240	 7.3037
 2.4230	 7.3293
 2.4220	 7.5402
 2.4210	 7.6079
 2.4200	 7.7355
 2.4190	 7.8546
 2.4180	 7.9918
 2.4170	 8.1175
 2.4160	 8.2423
 2.4150	 8.4293
 2.4140	 8.5947
 2.4130	 8.6635
 2.4120	 8.7680
 2.4110	 8.9148
 2.4100	 9.0761
 2.4090	 9.2114
 2.4080	 9.4530
 2.4070	 9.4255
 2.4060	 9.5140
 2.4050	 9.5986
 2.4040	 9.7886
 2.4030	 9.8498
 2.4020	 9.9870
 2.4010	10.0483
 2.4000	10.1920
 2.3990	10.2310
 2.3980	10.3536
 2.3970	10.5017
 2.3960	10.7265
 2.3950	10.7900
 2.3940	10.9434
 2.3930	11.0153
 2.3920	11.2888
 2.3910	11.5676
 2.3900	11.7118
 2.3890	11.9108
 2.3880	12.2191
 2.3870	12.4470
 2.3860	12.7942
 2.3850	13.0952
 2.3840	13.4966
 2.3830	13.8797
 2.3820	14.2939
 2.3810	14.6440
 2.3800	15.0561
 2.3790	15.5128
 2.3780	15.8987
 2.3770	16.3164
 2.3760	16.7759
 2.3750	17.2058
 2.3740	17.6273
 2.3730	18.0285
 2.3720	18.4354
 2.3710	18.8469
 2.3700	19.1989
 2.3690	19.5378
 2.3680	19.8682
 2.3670	20.1749
 2.3660	20.5241
 2.3650	20.7939
 2.3640	21.0071
 2.3630	21.2626
 2.3620	21.5021
 2.3610	21.6876
 2.3600	21.8357
 2.3590	21.9559
 2.3580	22.0588
 2.3570	22.2525
 2.3560	22.3897
 2.3550	22.4363
 2.3540	22.4617
 2.3530	22.4839
 2.3520	22.5177
 2.3510	22.5258
 2.3500	22.5271
 2.3490	22.4626
 2.3480	22.3825
 2.3470	22.3423
 2.3460	22.1987
 2.3450	22.0624
 2.3440	21.8741
 2.3430	21.6665
 2.3420	21.4897
 2.3410	21.2708
 2.3400	21.0309
 2.3390	20.7787
 2.3380	20.5111
 2.3370	20.2283
 2.3360	19.8844
 2.3350	19.5748
 2.3340	19.2616
 2.3330	19.0079
 2.3320	18.6896
 2.3310	18.3172
 2.3300	17.9803
 2.3290	17.6850
 2.3280	17.4129
 2.3270	17.1261
 2.3260	16.8470
 2.3250	16.6763
 2.3240	16.4839
 2.3230	16.3783
 2.3220	16.2097
 2.3210	16.1279
 2.3200	16.1220
 2.3190	16.1206
 2.3180	16.1822
 2.3170	16.3702
 2.3160	16.4457
 2.3150	16.6609
 2.3140	16.9012
 2.3130	17.2099
 2.3120	17.5990
 2.3110	17.9738
 2.3100	18.4254
 2.3090	18.9422
 2.3080	19.4466
 2.3070	19.9845
 2.3060	20.5210
 2.3050	21.0098
 2.3040	21.5869
 2.3030	22.1431
 2.3020	22.6777
 2.3010	23.2361
 2.3000	23.6973
 2.2990	24.2391
 2.2980	24.5653
 2.2970	24.9773
 2.2960	25.3413
 2.2950	25.7462
 2.2940	26.0109
 2.2930	26.3394
 2.2920	26.5436
 2.2910	26.8513
 2.2900	27.0032
 2.2890	27.1633
 2.2880	27.2933
 2.2870	27.5934
 2.2860	27.6890
 2.2850	27.8614
 2.2840	27.9729
 2.2830	28.1503
 2.2820	28.2093
 2.2810	28.2965
 2.2800	28.4115
 2.2790	28.4742
 2.2780	28.4938
 2.2770	28.6298
 2.2760	28.7698
 2.2750	28.7964
 2.2740	28.8275
 2.2730	28.9581
 2.2720	28.9248
 2.2710	29.0645
 2.2700	29.0362
 2.2690	29.1395
 2.2680	29.1158
 2.2670	29.1618
 2.2660	29.1537
 2.2650	29.2275
 2.2640	29.2142
 2.2630	29.3270
 2.2620	29.2365
 2.2610	29.3573
 2.2600	29.3326
 2.2590	29.4023
 2.2580	29.3565
 2.2570	29.3458
 2.2560	29.3538
 2.2550	29.4632
 2.2540	29.3271
 2.2530	29.3676
 2.2520	29.4184
 2.2510	29.4010
 2.2500	29.3178
 2.2490	29.3503
 2.2480	29.2731
 2.2470	29.2865
 2.2460	29.2174
 2.2450	29.2114
 2.2440	29.0276
 2.2430	28.9668
 2.2420	28.8232
 2.2410	28.7192
 2.2400	28.5724
 2.2390	28.4177
 2.2380	28.2439
 2.2370	28.0691
 2.2360	27.8589
 2.2350	27.6536
 2.2340	27.3426
 2.2330	27.1136
 2.2320	26.8215
 2.2310	26.5342
 2.2300	26.0603
 2.2290	25.6576
 2.2280	25.1219
 2.2270	24.6021
 2.2260	24.0589
 2.2250	23.4351
 2.2240	22.6248
 2.2230	21.9407
 2.2220	21.0086
 2.2210	20.2086
 2.2200	19.2240
 2.2190	18.5063
 2.2180	17.4687
 2.2170	16.6494
 2.2160	15.7583
 2.2150	15.0511
 2.2140	14.2926
 2.2130	13.5290
 2.2120	13.0364
 2.2110	12.5231
 2.2100	12.2469
 2.2090	11.9444
 2.2080	11.8538
 2.2070	11.8563
 2.2060	11.8025
 2.2050	11.9714
 2.2040	12.0475
 2.2030	12.3470
 2.2020	12.3907
 2.2010	12.6734
 2.2000	12.6795
 2.1990	12.6969
 2.1980	12.6761
 2.1970	12.6906
 2.1960	12.4601
 2.1950	12.3917
 2.1940	12.0286
 2.1930	11.8677
 2.1920	11.3917
 2.1910	11.1494
 2.1900	10.6992
 2.1890	10.3516
 2.1880	 9.9752
 2.1870	 9.7737
 2.1860	 9.4833
 2.1850	 9.3009
 2.1840	 9.0214
 2.1830	 8.8599
 2.1820	 8.7216
 2.1810	 8.5858
 2.1800	 8.3949
 2.1790	 8.4394
 2.1780	 8.2404
 2.1770	 8.2395
 2.1760	 8.1015
 2.1750	 8.1635
 2.1740	 8.1059
 2.1730	 8.1428
 2.1720	 8.1273
 2.1710	 8.1196
 2.1700	 7.9666
 2.1690	 8.0162
 2.1680	 7.9324
 2.1670	 7.8746
 2.1660	 7.8878
 2.1650	 7.8766
 2.1640	 7.8682
 2.1630	 7.8714
 2.1620	 7.7355
 2.1610	 7.7895
 2.1600	 7.7677
 2.1590	 7.8803
 2.1580	 7.8352
 2.1570	 7.8887
 2.1560	 7.9114
 2.1550	 8.0519
 2.1540	 8.1175
 2.1530	 8.2616
 2.1520	 8.3275
 2.1510	 8.5007
 2.1500	 8.6337
 2.1490	 8.8227
 2.1480	 8.9218
 2.1470	 9.1797
 2.1460	 9.2362
 2.1450	 9.4013
 2.1440	 9.5466
 2.1430	 9.7684
 2.1420	 9.8513
 2.1410	 9.9981
 2.1400	10.0824
 2.1390	10.2862
 2.1380	10.3662
 2.1370	10.5583
 2.1360	10.6721
 2.1350	10.8564
 2.1340	11.0578
 2.1330	11.2135
 2.1320	11.3994
 2.1310	11.6426
 2.1300	11.7776
 2.1290	12.0292
 2.1280	12.2060
 2.1270	12.4332
 2.1260	12.6755
 2.1250	13.0117
 2.1240	13.2929
 2.1230	13.6526
 2.1220	13.9488
 2.1210	14.3737
 2.1200	14.7202
 2.1190	15.1058
 2.1180	15.5237
 2.1170	15.8878
 2.1160	16.2609
 2.1150	16.6616
 2.1140	17.0222
 2.1130	17.3991
 2.1120	17.7569
 2.1110	18.0641
 2.1100	18.4118
 2.1090	18.7834
 2.1080	19.0814
 2.1070	19.4290
 2.1060	19.7110
 2.1050	19.9601
 2.1040	20.2662
 2.1030	20.5733
 2.1020	20.7999
 2.1010	21.0207
 2.1000	21.1745
 2.0990	21.3710
 2.0980	21.5701
 2.0970	21.7718
 2.0960	21.9320
 2.0950	22.1187
 2.0940	22.2864
 2.0930	22.4720
 2.0920	22.5751
 2.0910	22.6986
 2.0900	22.8042
 2.0890	22.8929
 2.0880	23.0076
 2.0870	23.1441
 2.0860	23.1666
 2.0850	23.2264
 2.0840	23.3329
 2.0830	23.3471
 2.0820	23.3903
 2.0810	23.4409
 2.0800	23.4551
 2.0790	23.4984
 2.0780	23.4841
 2.0770	23.4595
 2.0760	23.4692
 2.0750	23.4528
 2.0740	23.4143
 2.0730	23.3853
 2.0720	23.4083
 2.0710	23.3940
 2.0700	23.3524
 2.0690	23.3634
 2.0680	23.3232
 2.0670	23.2742
 2.0660	23.3186
 2.0650	23.2921
 2.0640	23.2968
 2.0630	23.3321
 2.0620	23.3654
 2.0610	23.4203
 2.0600	23.4482
 2.0590	23.4449
 2.0580	23.5113
 2.0570	23.5642
 2.0560	23.6392
 2.0550	23.7538
 2.0540	23.7866
 2.0530	23.8707
 2.0520	24.0287
 2.0510	24.0910
 2.0500	24.1579
 2.0490	24.2721
 2.0480	24.3276
 2.0470	24.3819
 2.0460	24.5331
 2.0450	24.6032
 2.0440	24.7033
 2.0430	24.7951
 2.0420	24.8867
 2.0410	24.9213
 2.0400	24.9730
 2.0390	25.0707
 2.0380	25.1249
 2.0370	25.1904
 2.0360	25.3085
 2.0350	25.3386
 2.0340	25.3908
 2.0330	25.4345
 2.0320	25.5782
 2.0310	25.6561
 2.0300	25.7369
 2.0290	25.7610
 2.0280	25.8383
 2.0270	25.8442
 2.0260	25.8898
 2.0250	25.9153
 2.0240	25.9817
 2.0230	25.9844
 2.0220	25.9836
 2.0210	25.9764
 2.0200	25.9388
 2.0190	25.8700
 2.0180	25.8279
 2.0170	25.8341
 2.0160	25.8925
 2.0150	25.7972
 2.0140	25.7253
 2.0130	25.7238
 2.0120	25.7490
 2.0110	25.7940
 2.0100	25.8681
 2.0090	25.8109
 2.0080	25.9108
 2.0070	25.9844
 2.0060	26.0781
 2.0050	26.2202
 2.0040	26.3715
 2.0030	26.4767
 2.0020	26.6279
 2.0010	26.7341
 2.0000	26.9887
 1.9990	27.0880
 1.9980	27.3000
 1.9970	27.4377
 1.9960	27.6674
 1.9950	27.8293
 1.9940	28.0750
 1.9930	28.1494
 1.9920	28.4107
 1.9910	28.5780
 1.9900	28.7170
 1.9890	28.8569
 1.9880	28.9768
 1.9870	29.0998
 1.9860	29.2984
 1.9850	29.3635
 1.9840	29.4837
 1.9830	29.5361
 1.9820	29.6132
 1.9810	29.6898
 1.9800	29.7256
 1.9790	29.7696
 1.9780	29.7848
 1.9770	29.7063
 1.9760	29.7402
 1.9750	29.6444
 1.9740	29.6996
 1.9730	29.6999
 1.9720	29.6717
 1.9710	29.5457
 1.9700	29.6024
 1.9690	29.4483
 1.9680	29.4975
 1.9670	29.4364
 1.9660	29.4722
 1.9650	29.3394
 1.9640	29.4795
 1.9630	29.4660
 1.9620	29.4641
 1.9610	29.4396
 1.9600	29.5968
 1.9590	29.5585
 1.9580	29.6217
 1.9570	29.7384
 1.9560	29.8688
 1.9550	29.9049
 1.9540	29.9966
 1.9530	30.0969
 1.9520	30.1921
 1.9510	30.2721
 1.9500	30.4479
 1.9490	30.4735
 1.9480	30.6137
 1.9470	30.6993
 1.9460	30.8513
 1.9450	30.8766
 1.9440	31.0530
 1.9430	31.0291
 1.9420	31.2066
 1.9410	31.2929
 1.9400	31.3792
 1.9390	31.4708
 1.9380	31.4557
 1.9370	31.5411
 1.9360	31.6961
 1.9350	31.6836
 1.9340	31.8749
 1.9330	31.7799
 1.9320	32.0353
 1.9310	32.0511
 1.9300	32.0780
 1.9290	32.2350
 1.9280	32.4128
 1.9270	32.3823
 1.9260	32.5576
 1.9250	32.7894
 1.9240	32.8015
 1.9230	32.9801
 1.9220	33.0647
 1.9210	33.3502
 1.9200	33.5194
 1.9190	33.6402
 1.9180	33.8214
 1.9170	34.0258
 1.9160	34.3293
 1.9150	34.4168
 1.9140	34.7320
 1.9130	34.9087
 1.9120	35.1765
 1.9110	35.4360
 1.9100	35.6721
 1.9090	35.9055
 1.9080	36.2594
 1.9070	36.4215
 1.9060	36.6571
 1.9050	36.9374
 1.9040	37.3632
 1.9030	37.5396
 1.9020	37.8212
 1.9010	38.0902
 1.9000	38.4160
 1.8990	38.5978
 1.8980	38.9052
 1.8970	39.1210
 1.8960	39.4257
 1.8950	39.5789
 1.8940	39.9500
 1.8930	40.1065
 1.8920	40.3746
 1.8910	40.6048
 1.8900	40.8330
 1.8890	40.9644
 1.8880	41.2997
 1.8870	41.4744
 1.8860	41.7467
 1.8850	41.8669
 1.8840	42.1405
 1.8830	42.3064
 1.8820	42.6124
 1.8810	42.7831
 1.8800	43.0086
 1.8790	43.1925
 1.8780	43.3552
 1.8770	43.5200
 1.8760	43.7409
 1.8750	43.8650
 1.8740	44.0514
 1.8730	44.2437
 1.8720	44.4062
 1.8710	44.5320
 1.8700	44.7630
 1.8690	44.8788
 1.8680	45.0577
 1.8670	45.1856
 1.8660	45.3210
 1.8650	45.4306
 1.8640	45.5994
 1.8630	45.6906
 1.8620	45.8424
 1.8610	45.8566
 1.8600	45.9756
 1.8590	46.0473
 1.8580	46.2213
 1.8570	46.2862
 1.8560	46.3512
 1.8550	46.4535
 1.8540	46.4985
 1.8530	46.5222
 1.8520	46.6451
 1.8510	46.6844
 1.8500	46.7886
 1.8490	46.8538
 1.8480	46.9619
 1.8470	46.9582
 1.8460	47.0280
 1.8450	47.1040
 1.8440	47.2219
 1.8430	47.2017
 1.8420	47.2879
 1.8410	47.3471
 1.8400	47.3701
 1.8390	47.3327
 1.8380	47.4538
 1.8370	47.5006
 1.8360	47.5440
 1.8350	47.5485
 1.8340	47.6645
 1.8330	47.7690
 1.8320	47.8614
 1.8310	47.8881
 1.8300	47.9139
 1.8290	47.9052
 1.8280	47.9481
 1.8270	48.0199
 1.8260	48.0737
 1.8250	48.1160
 1.8240	48.1192
 1.8230	48.1158
 1.8220	48.1484
 1.8210	48.1455
 1.8200	48.1459
 1.8190	48.1210
 1.8180	48.0826
 1.8170	48.0791
 1.8160	48.1335
 1.8150	48.0955
 1.8140	48.0860
 1.8130	48.0091
 1.8120	47.9677
 1.8110	47.9373
 1.8100	47.9410
 1.8090	47.8800
 1.8080	47.8301
 1.8070	47.8359
 1.8060	47.7955
 1.8050	47.6386
 1.8040	47.5185
 1.8030	47.3779
 1.8020	47.2365
 1.8010	47.0594
 1.8000	46.8701
 1.7990	46.7006
 1.7980	46.4926
 1.7970	46.2076
 1.7960	45.8281
 1.7950	45.4407
 1.7940	44.9777
 1.7930	44.4451
 1.7920	43.7848
 1.7910	43.0250
 1.7900	42.3632
 1.7890	41.6466
 1.7880	40.9493
 1.7870	40.2808
 1.7860	39.5501
 1.7850	38.8730
 1.7840	38.2702
 1.7830	37.6726
 1.7820	37.1304
 1.7810	36.6518
 1.7800	36.1785
 1.7790	35.7565
 1.7780	35.4045
 1.7770	35.0832
 1.7760	34.7298
 1.7750	34.4198
 1.7740	34.0557
 1.7730	33.7080
 1.7720	33.3692
 1.7710	32.9664
 1.7700	32.6332
 1.7690	32.4655
 1.7680	32.3642
 1.7670	32.3445
 1.7660	32.3445
 1.7650	32.4144
 1.7640	32.5635
 1.7630	32.7174
 1.7620	32.8840
 1.7610	33.0938
 1.7600	33.2562
 1.7590	33.4568
 1.7580	33.6713
 1.7570	33.8396
 1.7560	34.0403
 1.7550	34.2983
 1.7540	34.4810
 1.7530	34.7406
 1.7520	35.0388
 1.7510	35.2740
 1.7500	35.5636
 1.7490	35.9181
 1.7480	36.2774
 1.7470	36.7031
 1.7460	37.1380
 1.7450	37.5520
 1.7440	37.9651
 1.7430	38.4862
 1.7420	38.9187
 1.7410	39.4114
 1.7400	39.8481
 1.7390	40.3318
 1.7380	40.6928
 1.7370	41.0674
 1.7360	41.4688
 1.7350	41.8792
 1.7340	42.2355
 1.7330	42.6371
 1.7320	43.0560
 1.7310	43.4526
 1.7300	43.8247
 1.7290	44.2171
 1.7280	44.6030
 1.7270	45.0417
 1.7260	45.4378
 1.7250	45.7759
 1.7240	46.0796
 1.7230	46.4537
 1.7220	46.7541
 1.7210	47.0767
 1.7200	47.3170
 1.7190	47.6352
 1.7180	47.8915
 1.7170	48.0797
 1.7160	48.2606
 1.7150	48.4662
 1.7140	48.6019
 1.7130	48.8541
 1.7120	48.9363
 1.7110	49.0850
 1.7100	49.2375
 1.7090	49.4121
 1.7080	49.4844
 1.7070	49.6162
 1.7060	49.6836
 1.7050	49.8969
 1.7040	49.9512
 1.7030	50.1354
 1.7020	50.2212
 1.7010	50.2644
 1.7000	50.3058
 1.6990	50.4579
 1.6980	50.4759
 1.6970	50.6583
 1.6960	50.7084
 1.6950	50.7992
 1.6940	50.8874
 1.6930	51.0626
 1.6920	51.0567
 1.6910	51.2338
 1.6900	51.2582
 1.6890	51.3842
 1.6880	51.4631
 1.6870	51.6171
 1.6860	51.6886
 1.6850	51.8090
 1.6840	51.9051
 1.6830	51.9854
 1.6820	52.1024
 1.6810	52.2291
 1.6800	52.2489
 1.6790	52.4590
 1.6780	52.4847
 1.6770	52.5842
 1.6760	52.6443
 1.6750	52.7740
 1.6740	52.8779
 1.6730	52.9835
 1.6720	53.0507
 1.6710	53.2016
 1.6700	53.2882
 1.6690	53.4476
 1.6680	53.4297
 1.6670	53.6083
 1.6660	53.6744
 1.6650	53.7898
 1.6640	53.9079
 1.6630	54.0189
 1.6620	54.0666
 1.6610	54.1359
 1.6600	54.2016
 1.6590	54.3431
 1.6580	54.3297
 1.6570	54.5689
 1.6560	54.4943
 1.6550	54.6787
 1.6540	54.7493
 1.6530	54.7094
 1.6520	54.8495
 1.6510	54.8909
 1.6500	54.9218
 1.6490	55.0879
 1.6480	55.0057
 1.6470	55.1121
 1.6460	55.1803
 1.6450	55.2578
 1.6440	55.2203
 1.6430	55.2994
 1.6420	55.3737
 1.6410	55.3884
 1.6400	55.5735
 1.6390	55.6195
 1.6380	55.4531
 1.6370	55.5735
 1.6360	55.6302
 1.6350	55.7356
 1.6340	55.7397
 1.6330	55.8271
 1.6320	55.8865
 1.6310	55.9187
 1.6300	55.9579
 1.6290	55.9462
 1.6280	55.9755
 1.6270	56.0732
 1.6260	56.0817
 1.6250	56.1212
 1.6240	56.0612
 1.6230	56.1413
 1.6220	56.1881
 1.6210	56.2297
 1.6200	56.2027
 1.6190	56.2241
 1.6180	56.1951
 1.6170	56.2251
 1.6160	56.1899
 1.6150	56.2080
 1.6140	56.2620
 1.6130	56.2458
 1.6120	56.1879
 1.6110	56.2031
 1.6100	56.2528
 1.6090	56.3249
 1.6080	56.2659
 1.6070	56.2928
 1.6060	56.3699
 1.6050	56.3719
 1.6040	56.4280
 1.6030	56.4332
 1.6020	56.4814
 1.6010	56.5027
 1.6000	56.4363
 1.5990	56.4772
 1.5980	56.5030
 1.5970	56.5194
 1.5960	56.4399
 1.5950	56.4791
 1.5940	56.4853
 1.5930	56.4930
 1.5920	56.5276
 1.5910	56.5647
 1.5900	56.5541
 1.5890	56.5886
 1.5880	56.6127
 1.5870	56.6852
 1.5860	56.6884
 1.5850	56.7348
 1.5840	56.7235
 1.5830	56.7909
 1.5820	56.8992
 1.5810	56.9533
 1.5800	56.9267
 1.5790	57.0304
 1.5780	57.0035
 1.5770	57.0278
 1.5760	57.0940
 1.5750	57.1015
 1.5740	57.0374
 1.5730	57.1637
 1.5720	57.1408
 1.5710	57.1904
 1.5700	57.2114
 1.5690	57.2783
 1.5680	57.2542
 1.5670	57.3027
 1.5660	57.3360
 1.5650	57.3951
 1.5640	57.3352
 1.5630	57.3800
 1.5620	57.4160
 1.5610	57.4712
 1.5600	57.4222
 1.5590	57.4330
 1.5580	57.4360
 1.5570	57.4327
 1.5560	57.4368
 1.5550	57.4107
 1.5540	57.4200
 1.5530	57.3598
 1.5520	57.3342
 1.5510	57.3708
 1.5500	57.3895
 1.5490	57.4255
 1.5480	57.3701
 1.5470	57.2982
 1.5460	57.2584
 1.5450	57.2466
 1.5440	57.1838
 1.5430	57.1393
 1.5420	57.1391
 1.5410	57.0876
 1.5400	57.0052
 1.5390	56.9239
 1.5380	56.7730
 1.5370	56.6731
 1.5360	56.5547
 1.5350	56.4593
 1.5340	56.3629
 1.5330	56.2817
 1.5320	56.2838
 1.5310	56.3491
 1.5300	56.3321
 1.5290	56.3052
 1.5280	56.2732
 1.5270	56.2661
 1.5260	56.2244
 1.5250	56.1669
 1.5240	56.0444
 1.5230	55.9209
 1.5220	55.7615
 1.5210	55.5909
 1.5200	55.3686
 1.5190	55.1497
 1.5180	54.9030
 1.5170	54.6540
 1.5160	54.4029
 1.5150	54.1541
 1.5140	53.9291
 1.5130	53.6164
 1.5120	53.2191
 1.5110	52.8593
 1.5100	52.3817
 1.5090	51.7384
 1.5080	50.9655
 1.5070	50.2661
 1.5060	49.6070
 1.5050	48.9163
 1.5040	48.3845
 1.5030	47.9044
 1.5020	47.3913
 1.5010	46.9298
 1.5000	46.5982
 1.4990	46.3590
 1.4980	46.0941
 1.4970	45.8544
 1.4960	45.5991
 1.4950	45.2594
 1.4940	44.9250
 1.4930	44.5767
 1.4920	44.1405
 1.4910	43.5093
 1.4900	42.6024
 1.4890	41.4642
 1.4880	40.0822
 1.4870	38.3097
 1.4860	36.2615
 1.4850	33.8934
 1.4840	31.2547
 1.4830	28.3816
 1.4820	25.4064
 1.4810	22.5633
 1.4800	20.3407
 1.4790	19.0472
 1.4780	18.8748
 1.4770	19.7258
 1.4760	21.5399
 1.4750	23.8718
 1.4740	26.2851
 1.4730	28.5995
 1.4720	30.7517
 1.4710	32.5787
 1.4700	34.0339
 1.4690	35.1896
 1.4680	36.1597
 1.4670	36.8345
 1.4660	37.3175
 1.4650	37.5821
 1.4640	37.6678
 1.4630	37.6971
 1.4620	37.6936
 1.4610	37.6145
 1.4600	37.6928
 1.4590	37.8353
 1.4580	38.1042
 1.4570	38.5199
 1.4560	39.0249
 1.4550	39.5311
 1.4540	40.1263
 1.4530	40.7309
 1.4520	41.4693
 1.4510	42.1610
 1.4500	42.9341
 1.4490	43.6501
 1.4480	44.2991
 1.4470	44.8434
 1.4460	45.2438
 1.4450	45.5450
 1.4440	45.7018
 1.4430	45.8557
 1.4420	45.9644
 1.4410	45.8570
 1.4400	45.5252
 1.4390	44.8457
 1.4380	43.7652
 1.4370	42.1972
 1.4360	40.2768
 1.4350	38.2189
 1.4340	36.2210
 1.4330	34.5129
 1.4320	33.4354
 1.4310	32.6209
 1.4300	31.8823
 1.4290	30.9262
 1.4280	29.9410
 1.4270	29.3338
 1.4260	29.8253
 1.4250	31.4954
 1.4240	34.4173
 1.4230	37.8906
 1.4220	41.7178
 1.4210	45.2646
 1.4200	48.4785
 1.4190	51.0082
 1.4180	53.0450
 1.4170	54.4906
 1.4160	55.7226
 1.4150	56.6747
 1.4140	57.5562
 1.4130	58.2686
 1.4120	58.9503
 1.4110	59.5811
 1.4100	60.2060
 1.4090	60.8482
 1.4080	61.5088
 1.4070	62.1382
 1.4060	62.7373
 1.4050	63.4247
 1.4040	64.0047
 1.4030	64.6848
 1.4020	65.3141
 1.4010	65.8385
 1.4000	66.3198
 1.3990	66.7495
 1.3980	67.1407
 1.3970	67.5429
 1.3960	67.9180
 1.3950	68.2411
 1.3940	68.5916
 1.3930	68.8624
 1.3920	69.3020
 1.3910	69.5610
 1.3900	69.8897
 1.3890	70.0955
 1.3880	70.1852
 1.3870	70.3699
 1.3860	70.4805
 1.3850	70.5631
 1.3840	70.7465
 1.3830	70.6700
 1.3820	70.7599
 1.3810	70.6423
 1.3800	70.7467
 1.3790	70.8951
 1.3780	70.9904
 1.3770	71.1826
 1.3760	71.4905
 1.3750	71.7522
 1.3740	71.8490
 1.3730	72.0231
 1.3720	72.0841
 1.3710	72.1302
 1.3700	72.2853
 1.3690	72.1412
 1.3680	72.0095
 1.3670	71.7658
 1.3660	71.5832
 1.3650	71.1543
 1.3640	70.9608
 1.3630	70.5794
 1.3620	70.4144
 1.3610	70.1786
 1.3600	70.0583
 1.3590	70.0374
 1.3580	70.0121
 1.3570	69.9830
 1.3560	70.0877
 1.3550	70.0316
 1.3540	70.1663
 1.3530	70.1611
 1.3520	70.2447
 1.3510	70.2641
 1.3500	70.3018
 1.3490	70.3729
 1.3480	70.3816
 1.3470	70.4033
 1.3460	70.2969
 1.3450	70.2265
 1.3440	70.2606
 1.3430	70.0477
 1.3420	69.9941
 1.3410	69.8570
 1.3400	69.6520
 1.3390	69.5273
 1.3380	69.6222
 1.3370	69.7933
 1.3360	70.1003
 1.3350	70.6105
 1.3340	71.2057
 1.3330	71.7957
 1.3320	72.3963
 1.3310	72.8210
 1.3300	73.2315
 1.3290	73.4613
 1.3280	73.6348
 1.3270	73.7491
 1.3260	73.7659
 1.3250	73.7734
 1.3240	73.7603
 1.3230	73.6793
 1.3220	73.6758
 1.3210	73.8688
 1.3200	73.9559
 1.3190	74.1620
 1.3180	74.5655
 1.3170	75.0490
 1.3160	75.3265
 1.3150	75.6501
 1.3140	75.8995
 1.3130	76.0253
 1.3120	76.2245
 1.3110	76.3401
 1.3100	76.4055
 1.3090	76.4946
 1.3080	76.5470
 1.3070	76.5437
 1.3060	76.6266
 1.3050	76.5509
 1.3040	76.5654
 1.3030	76.5324
 1.3020	76.5752
 1.3010	76.5690
 1.3000	76.4887
 1.2990	76.4553
 1.2980	76.5769
 1.2970	76.4979
 1.2960	76.5091
 1.2950	76.5229
 1.2940	76.3854
 1.2930	76.2705
 1.2920	76.1744
 1.2910	76.0688
 1.2900	75.9003
 1.2890	75.6141
 1.2880	75.3788
 1.2870	74.9314
 1.2860	74.4396
 1.2850	73.8670
 1.2840	73.2986
 1.2830	72.6647
 1.2820	72.1937
 1.2810	71.9191
 1.2800	71.7704
 1.2790	71.5245
 1.2780	71.1652
 1.2770	70.5655
 1.2760	69.8452
 1.2750	69.1013
 1.2740	68.4825
 1.2730	67.8807
 1.2720	67.5377
 1.2710	67.3761
 1.2700	67.3653
 1.2690	67.3537
 1.2680	67.4185
 1.2670	67.3613
 1.2660	67.3962
 1.2650	67.5506
 1.2640	67.8094
 1.2630	68.2351
 1.2620	68.8947
 1.2610	69.6287
 1.2600	70.3027
 1.2590	70.8790
 1.2580	71.4269
 1.2570	71.8614
 1.2560	72.2154
 1.2550	72.5297
 1.2540	72.8856
 1.2530	73.0701
 1.2520	73.2397
 1.2510	73.4182
 1.2500	73.5533
 1.2490	73.6780
 1.2480	73.7643
 1.2470	73.7878
 1.2460	73.8624
 1.2450	73.9676
 1.2440	74.0316
 1.2430	74.1312
 1.2420	74.2323
 1.2410	74.3758
 1.2400	74.5019
 1.2390	74.6253
 1.2380	74.7836
 1.2370	74.9041
 1.2360	74.9470
 1.2350	74.9978
 1.2340	75.1842
 1.2330	75.3229
 1.2320	75.4034
 1.2310	75.5360
 1.2300	75.7017
 1.2290	75.8871
 1.2280	76.0199
 1.2270	76.1553
 1.2260	76.3397
 1.2250	76.5174
 1.2240	76.6802
 1.2230	76.8823
 1.2220	77.0077
 1.2210	77.1623
 1.2200	77.3198
 1.2190	77.4564
 1.2180	77.5898
 1.2170	77.6883
 1.2160	77.8169
 1.2150	77.9019
 1.2140	77.9400
 1.2130	78.0559
 1.2120	78.1428
 1.2110	78.0906
 1.2100	78.0981
 1.2090	78.1793
 1.2080	78.2438
 1.2070	78.3737
 1.2060	78.4910
 1.2050	78.5291
 1.2040	78.5920
 1.2030	78.7146
 1.2020	78.8221
 1.2010	78.8719
 1.2000	78.8702
 1.1990	78.9340
 1.1980	79.0049
 1.1970	79.0709
 1.1960	79.0556
 1.1950	79.0784
 1.1940	79.0576
 1.1930	79.0707
 1.1920	79.1870
 1.1910	79.1805
 1.1900	79.1947
 1.1890	79.2571
 1.1880	79.2367
 1.1870	79.3123
 1.1860	79.3629
 1.1850	79.3857
 1.1840	79.3745
 1.1830	79.3931
 1.1820	79.4028
 1.1810	79.4543
 1.1800	79.4582
 1.1790	79.4572
 1.1780	79.5367
 1.1770	79.5293
 1.1760	79.5120
 1.1750	79.5365
 1.1740	79.5565
 1.1730	79.5306
 1.1720	79.5490
 1.1710	79.6689
 1.1700	79.5796
 1.1690	79.6020
 1.1680	79.6051
 1.1670	79.6052
 1.1660	79.6899
 1.1650	79.6711
 1.1640	79.6746
 1.1630	79.7354
 1.1620	79.7401
 1.1610	79.7379
 1.1600	79.7470
 1.1590	79.8403
 1.1580	79.8012
 1.1570	79.8217
 1.1560	79.8388
 1.1550	79.8550
 1.1540	79.8873
 1.1530	79.9029
 1.1520	79.9133
 1.1510	80.0069
 1.1500	79.9858
 1.1490	79.9568
 1.1480	79.9188
 1.1470	79.9866
 1.1460	79.9645
 1.1450	79.9831
 1.1440	80.0016
 1.1430	80.0604
 1.1420	80.0498
 1.1410	80.0228
 1.1400	80.0511
 1.1390	80.0013
 1.1380	80.0066
 1.1370	80.0100
 1.1360	80.0501
 1.1350	80.0336
 1.1340	80.0055
 1.1330	79.9302
 1.1320	79.9428
 1.1310	79.9591
 1.1300	79.8550
 1.1290	79.9213
 1.1280	79.8212
 1.1270	79.8603
 1.1260	79.7726
 1.1250	79.8153
 1.1240	79.6757
 1.1230	79.5332
 1.1220	79.5450
 1.1210	79.7193
 1.1200	79.5173
 1.1190	79.5197
 1.1180	79.4288
 1.1170	79.3878
 1.1160	79.4158
 1.1150	79.4771
 1.1140	79.4356
 1.1130	79.3377
 1.1120	79.4116
 1.1110	79.4352
 1.1100	79.4137
 1.1090	79.4355
 1.1080	79.5010
 1.1070	79.5244
 1.1060	79.4141
 1.1050	79.4213
 1.1040	79.4472
 1.1030	79.4725
 1.1020	79.3490
 1.1010	79.4110
 1.1000	79.5221
 1.0990	79.4406
 1.0980	79.4160
 1.0970	79.5525
 1.0960	79.5451
 1.0950	79.5092
 1.0940	79.4593
 1.0930	79.4796
 1.0920	79.4829
 1.0910	79.4876
 1.0900	79.4820
 1.0890	79.4789
 1.0880	79.5269
 1.0870	79.5311
 1.0860	79.4481
 1.0850	79.4389
 1.0840	79.5139
 1.0830	79.5751
 1.0820	79.4794
 1.0810	79.5281
 1.0800	79.4973
 1.0790	79.5158
 1.0780	79.4731
 1.0770	79.4743
 1.0760	79.4592
 1.0750	79.4878
 1.0740	79.5231
 1.0730	79.5184
 1.0720	79.5188
 1.0710	79.4810
 1.0700	79.4439
 1.0690	79.4216
 1.0680	79.4225
 1.0670	79.3680
 1.0660	79.4326
 1.0650	79.4217
 1.0640	79.4756
 1.0630	79.3818
 1.0620	79.3164
 1.0610	79.3633
 1.0600	79.3157
 1.0590	79.2665
 1.0580	79.3070
 1.0570	79.3085
 1.0560	79.3265
 1.0550	79.3489
 1.0540	79.2641
 1.0530	79.2762
 1.0520	79.2992
 1.0510	79.2247
 1.0500	79.2325
 1.0490	79.2172
 1.0480	79.1576
 1.0470	79.1700
 1.0460	79.1303
 1.0450	79.1048
 1.0440	79.1107
 1.0430	79.0627
 1.0420	79.0780
 1.0410	79.0522
 1.0400	79.0467
 1.0390	79.0343
 1.0380	78.9825
 1.0370	78.8948
 1.0360	78.9143
 1.0350	78.9072
 1.0340	78.7402
 1.0330	78.7090
 1.0320	78.6593
 1.0310	78.5271
 1.0300	78.5223
 1.0290	78.3188
 1.0280	78.2304
 1.0270	78.1632
 1.0260	77.9534
 1.0250	77.8161
 1.0240	77.5531
 1.0230	77.2887
 1.0220	77.0672
 1.0210	76.8891
 1.0200	76.5854
 1.0190	76.4793
 1.0180	76.3288
 1.0170	76.2078
 1.0160	76.0045
 1.0150	75.7912
 1.0140	75.6077
 1.0130	75.4193
 1.0120	75.2850
 1.0110	75.0968
 1.0100	74.9359
 1.0090	74.9510
 1.0080	74.7944
 1.0070	74.7574
 1.0060	74.7307
 1.0050	74.6967
 1.0040	74.6575
 1.0030	74.5835
 1.0020	74.4999
 1.0010	74.5570
 1.0000	74.5600
 0.9990	74.5784
 0.9980	74.7069
 0.9970	74.7553
 0.9960	74.7663
 0.9950	74.8190
 0.9940	74.9307
 0.9930	75.0297
 0.9920	75.1061
 0.9910	75.2143
 0.9900	75.3476
 0.9890	75.4774
 0.9880	75.5740
 0.9870	75.7123
 0.9860	75.9040
 0.9850	75.9474
 0.9840	76.0748
 0.9830	76.2714
 0.9820	76.3705
 0.9810	76.5232
 0.9800	76.5840
 0.9790	76.7078
 0.9780	76.8014
 0.9770	76.9012
 0.9760	76.9980
 0.9750	77.0556
 0.9740	77.1430
 0.9730	77.2443
 0.9720	77.3170
 0.9710	77.3498
 0.9700	77.4360
 0.9690	77.5562
 0.9680	77.6184
 0.9670	77.6921
 0.9660	77.7052
 0.9650	77.7347
 0.9640	77.8208
 0.9630	77.9336
 0.9620	77.9358
 0.9610	77.9194
 0.9600	77.9519
 0.9590	78.0229
 0.9580	77.9955
 0.9570	77.9574
 0.9560	78.0299
 0.9550	78.0685
 0.9540	77.9935
 0.9530	77.9655
 0.9520	78.0367
 0.9510	78.0586
 0.9500	78.0662
 0.9490	78.0812
 0.9480	78.0851
 0.9470	78.0921
 0.9460	78.0704
 0.9450	78.1184
 0.9440	78.0782
 0.9430	78.0153
 0.9420	78.0103
 0.9410	78.0504
 0.9400	78.1113
 0.9390	78.0972
 0.9380	78.0791
 0.9370	78.0744
 0.9360	78.1621
 0.9350	78.1633
 0.9340	78.1401
 0.9330	78.1429
 0.9320	78.1591
 0.9310	78.2066
 0.9300	78.1610
 0.9290	78.1695
 0.9280	78.2062
 0.9270	78.1432
 0.9260	78.1325
 0.9250	78.1495
 0.9240	78.1312
 0.9230	78.1064
 0.9220	78.0589
 0.9210	78.0101
 0.9200	77.9969
 0.9190	78.0474
 0.9180	77.9911
 0.9170	77.8835
 0.9160	77.8222
 0.9150	77.8523
 0.9140	77.9272
 0.9130	77.8746
 0.9120	77.7982
 0.9110	77.8550
 0.9100	77.8402
 0.9090	77.8242
 0.9080	77.8359
 0.9070	77.8583
 0.9060	77.8328
 0.9050	77.7808
 0.9040	77.7926
 0.9030	77.8188
 0.9020	77.8705
 0.9010	77.8664
 0.9000	77.8533
 0.8990	77.8962
 0.8980	77.8959
 0.8970	77.9209
 0.8960	77.9926
 0.8950	77.9552
 0.8940	77.8955
 0.8930	77.8957
 0.8920	77.9231
 0.8910	77.9651
 0.8900	78.0038
 0.8890	77.9774
 0.8880	77.9963
 0.8870	77.9999
 0.8860	78.0409
 0.8850	78.0115
 0.8840	78.0449
 0.8830	78.0391
 0.8820	78.0374
 0.8810	78.1114
 0.8800	78.1463
 0.8790	78.0748
 0.8780	78.1281
 0.8770	78.1596
 0.8760	78.2070
 0.8750	78.2001
 0.8740	78.1186
 0.8730	78.1465
 0.8720	78.1480
 0.8710	78.1714
 0.8700	78.2121
 0.8690	78.1896
 0.8680	78.2414
 0.8670	78.1729
 0.8660	78.2357
 0.8650	78.2491
 0.8640	78.2488
 0.8630	78.2345
 0.8620	78.2547
 0.8610	78.3110
 0.8600	78.4655
 0.8590	78.4265
 0.8580	78.3257
 0.8570	78.3341
 0.8560	78.3342
 0.8550	78.4908
 0.8540	78.4680
 0.8530	78.4276
 0.8520	78.4316
 0.8510	78.5091
 0.8500	78.4236
 0.8490	78.4500
 0.8480	78.4492
 0.8470	78.4203
 0.8460	78.4380
 0.8450	78.4400
 0.8440	78.5072
 0.8430	78.4854
 0.8420	78.4825
 0.8410	78.4621
 0.8400	78.4408
 0.8390	78.4963
 0.8380	78.4620
 0.8370	78.4807
 0.8360	78.4602
 0.8350	78.4907
 0.8340	78.4702
 0.8330	78.4778
 0.8320	78.4370
 0.8310	78.3831
 0.8300	78.4281
 0.8290	78.4581
 0.8280	78.4678
 0.8270	78.4200
 0.8260	78.5037
 0.8250	78.4777
 0.8240	78.5045
 0.8230	78.5445
 0.8220	78.5260
 0.8210	78.5191
 0.8200	78.5612
 0.8190	78.5615
 0.8180	78.5475
 0.8170	78.5874
 0.8160	78.5599
 0.8150	78.5859
 0.8140	78.6056
 0.8130	78.6281
 0.8120	78.5655
 0.8110	78.5252
 0.8100	78.5823
 0.8090	78.5978
 0.8080	78.5597
 0.8070	78.5387
 0.8060	78.5505
 0.8050	78.5290
 0.8040	78.5267
 0.8030	78.5087
 0.8020	78.4966
 0.8010	78.4411
 0.8000	78.4422
 0.7990	78.4382
 0.7980	78.4011
 0.7970	78.3894
 0.7960	78.3024
 0.7950	78.2819
 0.7940	78.2850
 0.7930	78.3254
 0.7920	78.2528
 0.7910	78.3195
 0.7900	78.3380
 0.7890	78.2647
 0.7880	78.2727
 0.7870	78.2554
 0.7860	78.2423
 0.7850	78.2418
 0.7840	78.2275
 0.7830	78.1540
 0.7820	78.1978
 0.7810	78.1823
 0.7800	78.2093
 0.7790	78.1509
 0.7780	78.1681
 0.7770	78.1354
 0.7760	78.1372
 0.7750	78.1359
 0.7740	78.1156
 0.7730	78.1152
 0.7720	78.1269
 0.7710	78.1196
 0.7700	78.1496
 0.7690	78.1307
 0.7680	78.1687
 0.7670	78.1953
 0.7660	78.1899
 0.7650	78.1773
 0.7640	78.2029
 0.7630	78.2473
 0.7620	78.2391
 0.7610	78.2446
 0.7600	78.2372
 0.7590	78.2198
 0.7580	78.2254
 0.7570	78.2533
 0.7560	78.2293
 0.7550	78.2487
 0.7540	78.2363
 0.7530	78.2236
 0.7520	78.2076
 0.7510	78.2021
 0.7500	78.1585
 0.7490	78.1668
 0.7480	78.1604
 0.7470	78.1285
 0.7460	78.1014
 0.7450	78.1017
 0.7440	78.0733
 0.7430	78.0480
 0.7420	78.0081
 0.7410	78.0378
 0.7400	78.0257
 0.7390	78.0124
 0.7380	78.0107
 0.7370	77.9816
 0.7360	77.9420
 0.7350	77.9481
 0.7340	77.9064
 0.7330	77.9000
 0.7320	77.8952
 0.7310	77.8538
 0.7300	77.8623
 0.7290	77.8226
 0.7280	77.8024
 0.7270	77.7794
 0.7260	77.7587
 0.7250	77.7379
 0.7240	77.7031
 0.7230	77.6691
 0.7220	77.6501
 0.7210	77.6062
 0.7200	77.5945
 0.7190	77.5575
 0.7180	77.5232
 0.7170	77.4843
 0.7160	77.4411
 0.7150	77.4188
 0.7140	77.3622
 0.7130	77.3522
 0.7120	77.2991
 0.7110	77.2535
 0.7100	77.2229
 0.7090	77.1740
 0.7080	77.1327
 0.7070	77.0828
 0.7060	77.0540
 0.7050	76.9942
 0.7040	76.9433
 0.7030	76.9184
 0.7020	76.8714
 0.7010	76.8394
 0.7000	76.7828
 0.6990	76.7454
 0.6980	76.7066
 0.6970	76.6343
 0.6960	76.6107
 0.6950	76.5621
 0.6940	76.4936
 0.6930	76.4550
 0.6920	76.4050
 0.6910	76.3413
 0.6900	76.3071
 0.6890	76.2545
 0.6880	76.2126
 0.6870	76.1542
 0.6860	76.0850
 0.6850	76.0008
 0.6840	75.9728
 0.6830	75.9196
 0.6820	75.8622
 0.6810	75.7880
 0.6800	75.7331
 0.6790	75.6740
 0.6780	75.6137
 0.6770	75.5744
 0.6760	75.5152
 0.6750	75.4408
 0.6740	75.3815
 0.6730	75.3109
 0.6720	75.2448
 0.6710	75.1786
 0.6700	75.1129
 0.6690	75.0488
 0.6680	74.9833
 0.6670	74.9132
 0.6660	74.8383
 0.6650	74.7787
 0.6640	74.7117
 0.6630	74.6215
 0.6620	74.5546
 0.6610	74.4995
 0.6600	74.4277
 0.6590	74.3506
 0.6580	74.2701
 0.6570	74.2036
 0.6560	74.1310
 0.6550	74.0601
 0.6540	73.9762
 0.6530	73.8950
 0.6520	73.8306
 0.6510	73.7571
 0.6500	73.6760
 0.6490	73.5930
 0.6480	73.5081
 0.6470	73.4245
 0.6460	73.3631
 0.6450	73.3057
 0.6440	73.2143
 0.6430	73.1258
 0.6420	73.0344
 0.6410	72.9531
 0.6400	72.8738
 0.6390	72.7855
 0.6380	72.7007
 0.6370	72.6137
 0.6360	72.5270
 0.6350	72.4426
 0.6340	72.3564
 0.6330	72.2703
 0.6320	72.1824
 0.6310	72.0810
 0.6300	71.9868
 0.6290	71.8901
 0.6280	71.7993
 0.6270	71.7071
 0.6260	71.5971
 0.6250	71.4992
 0.6240	71.3993
 0.6230	71.2906
 0.6220	71.1881
 0.6210	71.0830
 0.6200	70.9802
 0.6190	70.8694
 0.6180	70.7565
 0.6170	70.6321
 0.6160	70.5071
 0.6150	70.3950
 0.6140	70.2889
 0.6130	70.1768
 0.6120	70.0509
 0.6110	69.9189
 0.6100	69.7937
 0.6090	69.6762
 0.6080	69.5519
 0.6070	69.4124
 0.6060	69.2800
 0.6050	69.1536
 0.6040	69.0180
 0.6030	68.8736
 0.6020	68.7329
 0.6010	68.5915
 0.6000	68.4405
 0.5990	68.3119
 0.5980	68.1890
 0.5970	68.0544
 0.5960	67.9074
 0.5950	67.7669
 0.5940	67.6127
 0.5930	67.4471
 0.5920	67.2866
 0.5910	67.1292
 0.5900	66.9681
 0.5890	66.8150
 0.5880	66.6410
 0.5870	66.4655
 0.5860	66.2964
 0.5850	66.1287
 0.5840	65.9517
 0.5830	65.7785
 0.5820	65.5987
 0.5810	65.4135
 0.5800	65.2464
 0.5790	65.0739
 0.5780	64.8961
 0.5770	64.7252
 0.5760	64.5420
 0.5750	64.3674
 0.5740	64.2040
 0.5730	64.0311
 0.5720	63.8511
 0.5710	63.6789
 0.5700	63.4982
 0.5690	63.3194
 0.5680	63.1415
 0.5670	62.9565
 0.5660	62.7744
 0.5650	62.6051
 0.5640	62.4250
 0.5630	62.2335
 0.5620	62.0446
 0.5610	61.8373
 0.5600	61.6293
 0.5590	61.4484
 0.5580	61.2649
 0.5570	61.0773
 0.5560	60.9039
 0.5550	60.7135
 0.5540	60.5305
 0.5530	60.3500
 0.5520	60.1690
 0.5510	59.9802
 0.5500	59.8105
 0.5490	59.6198
 0.5480	59.4394
 0.5470	59.2783
 0.5460	59.0926
 0.5450	58.9078
 0.5440	58.7333
 0.5430	58.5573
 0.5420	58.3736
 0.5410	58.2022
 0.5400	58.0306
 0.5390	57.8553
 0.5380	57.6919
 0.5370	57.5234
 0.5360	57.3477
 0.5350	57.1786
 0.5340	57.0249
 0.5330	56.8583
 0.5320	56.6932
 0.5310	56.5355
 0.5300	56.3638
 0.5290	56.1971
 0.5280	56.0437
 0.5270	55.8799
 0.5260	55.7266
 0.5250	55.5594
 0.5240	55.4036
 0.5230	55.2588
 0.5220	55.1028
 0.5210	54.9434
 0.5200	54.7971
 0.5190	54.6627
 0.5180	54.5042
 0.5170	54.3625
 0.5160	54.2059
 0.5150	54.0568
 0.5140	53.9081
 0.5130	53.7527
 0.5120	53.6092
 0.5110	53.4738
 0.5100	53.3256
 0.5090	53.1770
 0.5080	53.0317
 0.5070	52.9081
 0.5060	52.7519
 0.5050	52.6184
 0.5040	52.4437
 0.5030	52.3241
 0.5020	52.1824
 0.5010	52.0359
 0.5000	51.9038
 0.4990	51.7635
 0.4980	51.6236
 0.4970	51.4837
 0.4960	51.3386
 0.4950	51.2103
 0.4940	51.0661
 0.4930	50.9377
 0.4920	50.8127
 0.4910	50.6674
 0.4900	50.5365
 0.4890	50.4278
 0.4880	50.2979
 0.4870	50.1697
 0.4860	50.0410
 0.4850	49.9371
 0.4840	49.7837
 0.4830	49.6670
 0.4820	49.5569
 0.4810	49.4695
 0.4800	49.3895
 0.4790	49.3073
 0.4780	49.2115
 0.4770	49.1481
 0.4760	49.0606
 0.4750	48.9679
 0.4740	48.8816
 0.4730	48.7847
 0.4720	48.6982
 0.4710	48.6140
 0.4700	48.5306
 0.4690	48.4462
 0.4680	48.3518
 0.4670	48.2711
 0.4660	48.1925
 0.4650	48.1248
 0.4640	48.0409
 0.4630	47.9666
 0.4620	47.8807
 0.4610	47.7995
 0.4600	47.7246
 0.4590	47.6438
 0.4580	47.5653
 0.4570	47.4721
 0.4560	47.3787
 0.4550	47.2972
 0.4540	47.2217
 0.4530	47.1262
 0.4520	47.0302
 0.4510	46.9350
 0.4500	46.8515
 0.4490	46.7468
 0.4480	46.6353
 0.4470	46.5392
 0.4460	46.4202
 0.4450	46.3028
 0.4440	46.1632
 0.4430	46.0811
 0.4420	45.9513
 0.4410	45.8488
 0.4400	45.7157
 0.4390	45.5804
 0.4380	45.4286
 0.4370	45.2864
 0.4360	45.1264
 0.4350	44.9247
 0.4340	44.7512
 0.4330	44.5592
 0.4320	44.3725
 0.4310	44.2189
 0.4300	44.0840
 0.4290	43.9844
 0.4280	43.9186
 0.4270	43.8343
 0.4260	43.7615
 0.4250	43.6775
 0.4240	43.5519
 0.4230	43.4484
 0.4220	43.3235
 0.4210	43.2022
 0.4200	43.0686
 0.4190	42.9427
 0.4180	42.8127
 0.4170	42.6954
 0.4160	42.5585
 0.4150	42.4167
 0.4140	42.2684
 0.4130	42.1184
 0.4120	41.9540
 0.4110	41.7991
 0.4100	41.6459
 0.4090	41.4830
 0.4080	41.3100
 0.4070	41.1383
 0.4060	40.9618
 0.4050	40.7694
 0.4040	40.5725
 0.4030	40.3680
 0.4020	40.1592
 0.4010	39.9468
 0.4000	39.7287
