Name: Plumbojarosite PbFe_3^3+(SO_4)_4(OH)_12
Type: Mineral
Class: Sulfate
Subclass: None
Particle Size: Fine
Sample No.: SO-7B
Owner: JPL
Wavelength Range: VSWIR
Origin: Mexico, Hidalgo, Zimapan, Lomo De Toro Mine
Collection Date: N/A
Description: Particle size was 0-45um.Collected by Burminco Original ASTER Spectral Library name was jpl.beckman.mineral.sulfate.none.fine.so07b.spectrum.txt
Measurement: Hemispherical reflectance
First Column: X
Second Column: Y
X Units: Wavelength (micrometers)
Y Units:Reflectance (percent)
First X Value:  0.4000
Last X Value:  2.5000
Number of X Values: 826
Additional Information: mineral.sulfate.none.fine.vswir.so-7b.jpl.beckman.ancillary.txt

 0.4000	 4.2500
 0.4010	 4.5600
 0.4020	 4.6800
 0.4030	 4.8600
 0.4040	 4.9200
 0.4050	 5.1400
 0.4060	 5.2600
 0.4070	 5.4400
 0.4080	 5.6300
 0.4090	 5.8000
 0.4100	 5.9200
 0.4110	 5.9900
 0.4120	 6.1700
 0.4130	 6.4000
 0.4140	 6.5200
 0.4150	 6.7000
 0.4160	 6.7000
 0.4170	 6.8800
 0.4180	 7.1100
 0.4190	 7.2300
 0.4200	 7.3000
 0.4210	 7.3700
 0.4220	 7.4900
 0.4230	 7.6100
 0.4240	 7.7200
 0.4250	 7.8800
 0.4260	 7.9400
 0.4270	 7.9400
 0.4280	 8.0600
 0.4290	 8.1200
 0.4300	 8.2900
 0.4310	 8.2800
 0.4320	 8.2900
 0.4330	 8.4000
 0.4340	 8.4300
 0.4350	 8.6100
 0.4360	 8.6200
 0.4370	 8.6800
 0.4380	 8.8600
 0.4390	 9.0400
 0.4400	 9.2800
 0.4410	 9.4100
 0.4420	 9.5900
 0.4430	 9.8400
 0.4440	10.0700
 0.4450	10.4300
 0.4460	10.6200
 0.4470	10.8700
 0.4480	11.1500
 0.4490	11.4700
 0.4500	11.7800
 0.4510	12.0600
 0.4520	12.2200
 0.4530	12.5500
 0.4540	12.8100
 0.4550	13.1000
 0.4560	13.2900
 0.4570	13.4200
 0.4580	13.6300
 0.4590	13.7900
 0.4600	13.7800
 0.4610	14.2000
 0.4620	14.2900
 0.4630	14.5000
 0.4640	14.7400
 0.4650	14.8900
 0.4660	15.0400
 0.4670	15.0800
 0.4680	15.2900
 0.4690	15.4900
 0.4700	15.6700
 0.4710	15.8400
 0.4720	15.9100
 0.4730	16.2000
 0.4740	16.4100
 0.4750	16.5800
 0.4760	16.7100
 0.4770	16.8400
 0.4780	17.1700
 0.4790	17.3700
 0.4800	17.5800
 0.4810	17.7900
 0.4820	17.9300
 0.4830	18.1900
 0.4840	18.4200
 0.4850	18.6000
 0.4860	18.8900
 0.4870	19.1200
 0.4880	19.2800
 0.4890	19.5400
 0.4900	19.7900
 0.4910	20.0800
 0.4920	20.1400
 0.4930	20.4600
 0.4940	20.7500
 0.4950	21.0200
 0.4960	21.2800
 0.4970	21.4900
 0.4980	21.8000
 0.4990	22.0800
 0.5000	22.3600
 0.5010	22.7200
 0.5020	22.8800
 0.5030	23.1000
 0.5040	23.4500
 0.5050	23.7800
 0.5060	24.1000
 0.5070	24.2900
 0.5080	24.5400
 0.5090	24.9800
 0.5100	25.3300
 0.5110	25.6500
 0.5120	25.8500
 0.5130	26.1600
 0.5140	26.5100
 0.5150	26.8900
 0.5160	27.2400
 0.5170	27.5000
 0.5180	27.7800
 0.5190	28.1900
 0.5200	28.5500
 0.5210	28.9500
 0.5220	29.2300
 0.5230	29.5200
 0.5240	29.9500
 0.5250	30.3200
 0.5260	30.6800
 0.5270	31.0100
 0.5280	31.4100
 0.5290	31.7400
 0.5300	32.0700
 0.5310	32.4300
 0.5320	32.8200
 0.5330	33.2200
 0.5340	33.5800
 0.5350	33.9000
 0.5360	34.3500
 0.5370	34.7800
 0.5380	35.0800
 0.5390	35.4700
 0.5400	35.8200
 0.5410	36.2000
 0.5420	36.5300
 0.5430	36.9600
 0.5440	37.3200
 0.5450	37.6000
 0.5460	38.0600
 0.5470	38.4000
 0.5480	38.7700
 0.5490	39.1000
 0.5500	39.3700
 0.5510	39.7300
 0.5520	40.0900
 0.5530	40.5400
 0.5540	40.9700
 0.5550	41.1400
 0.5560	41.4500
 0.5570	41.8200
 0.5580	42.0800
 0.5590	42.2500
 0.5600	42.3000
 0.5610	43.2000
 0.5620	43.5900
 0.5630	43.9700
 0.5640	44.1100
 0.5650	44.3800
 0.5660	44.6500
 0.5670	44.9900
 0.5680	45.3100
 0.5690	45.4500
 0.5700	45.7300
 0.5710	45.8800
 0.5720	46.1400
 0.5730	46.3700
 0.5740	46.5700
 0.5750	46.8000
 0.5760	46.9800
 0.5770	47.2400
 0.5780	47.5100
 0.5790	47.7500
 0.5800	47.9100
 0.5810	48.0500
 0.5820	48.2300
 0.5830	48.4700
 0.5840	48.7200
 0.5850	49.0000
 0.5860	49.2500
 0.5870	49.4000
 0.5880	49.6100
 0.5890	49.8200
 0.5900	50.0300
 0.5910	50.2200
 0.5920	50.3400
 0.5930	50.6200
 0.5940	50.8000
 0.5950	50.9500
 0.5960	51.1900
 0.5970	51.3400
 0.5980	51.5500
 0.5990	51.7600
 0.6000	51.9500
 0.6010	52.1200
 0.6020	52.3200
 0.6030	52.6000
 0.6040	52.9200
 0.6050	53.0100
 0.6060	53.1100
 0.6070	53.2300
 0.6080	53.5200
 0.6090	53.7500
 0.6100	53.8800
 0.6110	54.0500
 0.6120	54.2000
 0.6130	54.4300
 0.6140	54.6000
 0.6150	54.8400
 0.6160	55.0700
 0.6170	55.1400
 0.6180	55.3200
 0.6190	55.4100
 0.6200	55.6400
 0.6210	55.8700
 0.6220	55.9800
 0.6230	56.2000
 0.6240	56.3500
 0.6250	56.5200
 0.6260	56.7400
 0.6270	56.8500
 0.6280	57.0900
 0.6290	57.1600
 0.6300	57.2600
 0.6310	57.5600
 0.6320	57.7400
 0.6330	57.9400
 0.6340	58.0700
 0.6350	58.2500
 0.6360	58.4600
 0.6370	58.5700
 0.6380	58.7200
 0.6390	58.9000
 0.6400	58.9100
 0.6410	59.1800
 0.6420	59.4200
 0.6430	59.4900
 0.6440	59.7000
 0.6450	59.8000
 0.6460	59.9800
 0.6470	60.0000
 0.6480	60.2700
 0.6490	60.4600
 0.6500	60.5400
 0.6510	60.6800
 0.6520	60.7500
 0.6530	60.9900
 0.6540	61.2800
 0.6550	61.3200
 0.6560	61.4900
 0.6570	61.5900
 0.6580	61.7400
 0.6590	61.9200
 0.6600	62.0100
 0.6610	62.2000
 0.6620	62.3500
 0.6630	62.4500
 0.6640	62.6800
 0.6650	62.7000
 0.6660	62.9100
 0.6670	62.9900
 0.6680	63.1400
 0.6690	63.3300
 0.6700	63.4500
 0.6710	63.5600
 0.6720	63.7200
 0.6730	63.7600
 0.6740	64.0400
 0.6750	64.0900
 0.6760	64.2100
 0.6770	64.4100
 0.6780	64.4600
 0.6790	64.6000
 0.6800	64.7900
 0.6810	64.9600
 0.6820	65.0000
 0.6830	65.0600
 0.6840	65.2700
 0.6850	65.4500
 0.6860	65.4700
 0.6870	65.5800
 0.6880	65.6500
 0.6890	65.8900
 0.6900	65.8700
 0.6910	66.0800
 0.6920	66.2300
 0.6930	66.2800
 0.6940	66.3800
 0.6950	66.3800
 0.6960	66.5600
 0.6970	66.7000
 0.6980	66.8000
 0.6990	66.8600
 0.7000	66.7700
 0.7010	66.8800
 0.7020	67.2800
 0.7030	67.4100
 0.7040	67.3800
 0.7050	67.5100
 0.7060	67.7100
 0.7070	67.7500
 0.7080	67.8600
 0.7090	67.8500
 0.7100	68.0000
 0.7110	68.0600
 0.7120	68.1600
 0.7130	68.2200
 0.7140	68.2000
 0.7150	68.4200
 0.7160	68.4600
 0.7170	68.5100
 0.7180	68.5600
 0.7190	68.5700
 0.7200	68.6800
 0.7210	68.8100
 0.7220	68.7600
 0.7230	68.8400
 0.7240	68.9000
 0.7250	68.9100
 0.7260	69.0200
 0.7270	68.9500
 0.7280	68.9700
 0.7290	69.0400
 0.7300	69.1700
 0.7310	69.1300
 0.7320	69.1600
 0.7330	69.1000
 0.7340	69.1000
 0.7350	69.1600
 0.7360	69.1900
 0.7370	69.1600
 0.7380	69.1500
 0.7390	69.1200
 0.7400	69.0700
 0.7410	69.2200
 0.7420	69.1600
 0.7430	69.0400
 0.7440	69.0900
 0.7450	69.1200
 0.7460	69.0900
 0.7470	69.0000
 0.7480	69.0900
 0.7490	68.9900
 0.7500	68.8700
 0.7510	68.8200
 0.7520	68.8200
 0.7530	68.8700
 0.7540	68.8000
 0.7550	68.7000
 0.7560	68.6500
 0.7570	68.5100
 0.7580	68.5600
 0.7590	68.5500
 0.7600	68.3800
 0.7610	68.2800
 0.7620	68.2400
 0.7630	68.1800
 0.7640	68.1200
 0.7650	68.1000
 0.7660	67.9700
 0.7670	67.8600
 0.7680	67.7900
 0.7690	67.7600
 0.7700	67.6000
 0.7710	67.4600
 0.7720	67.3900
 0.7730	67.3900
 0.7740	67.3300
 0.7750	67.2000
 0.7760	67.0900
 0.7770	66.9700
 0.7780	66.9200
 0.7790	66.9000
 0.7800	66.6800
 0.7810	66.5900
 0.7820	66.5000
 0.7830	66.4500
 0.7840	66.3800
 0.7850	66.2300
 0.7860	66.0300
 0.7870	65.9500
 0.7880	65.8300
 0.7890	65.8600
 0.7900	65.5900
 0.7910	65.5200
 0.7920	65.4800
 0.7930	65.3500
 0.7940	65.3200
 0.7950	65.0900
 0.7960	65.0100
 0.7970	64.8200
 0.7980	64.8000
 0.7990	64.8600
 0.8000	64.7700
 0.8040	64.3200
 0.8080	63.7800
 0.8120	63.3900
 0.8160	62.9300
 0.8200	62.5200
 0.8240	62.0700
 0.8280	61.6700
 0.8320	61.3300
 0.8360	60.9800
 0.8400	60.6800
 0.8440	60.3600
 0.8480	60.0500
 0.8520	59.7400
 0.8560	59.5900
 0.8600	59.2400
 0.8640	59.0800
 0.8680	58.8300
 0.8720	58.6800
 0.8760	58.4700
 0.8800	58.2600
 0.8840	58.1400
 0.8880	58.0200
 0.8920	57.8700
 0.8960	57.6900
 0.9000	57.6300
 0.9040	57.5500
 0.9080	57.5200
 0.9120	57.5700
 0.9160	57.4600
 0.9200	57.4300
 0.9240	57.4300
 0.9280	57.4600
 0.9320	57.5200
 0.9360	57.5200
 0.9400	57.5900
 0.9440	57.7400
 0.9480	57.7600
 0.9520	57.8700
 0.9560	57.9700
 0.9600	58.1100
 0.9640	58.2700
 0.9680	58.4400
 0.9720	58.5300
 0.9760	58.6700
 0.9800	58.8500
 0.9840	59.0300
 0.9880	59.2400
 0.9920	59.3800
 0.9960	59.5500
 1.0000	59.7500
 1.0040	59.9700
 1.0080	60.2400
 1.0120	60.5300
 1.0160	60.7700
 1.0200	61.0200
 1.0240	61.2500
 1.0280	61.4700
 1.0320	61.7500
 1.0360	62.1300
 1.0400	62.4400
 1.0440	62.7400
 1.0480	62.9600
 1.0520	63.2800
 1.0560	63.6100
 1.0600	63.9000
 1.0640	64.2400
 1.0680	64.5100
 1.0720	64.8500
 1.0760	65.1300
 1.0800	65.4600
 1.0840	65.8400
 1.0880	66.1200
 1.0920	66.5200
 1.0960	66.8300
 1.1000	67.1900
 1.1040	67.5500
 1.1080	67.8800
 1.1120	68.2200
 1.1160	68.6300
 1.1200	68.9900
 1.1240	69.3600
 1.1280	69.6500
 1.1320	70.0300
 1.1360	70.3300
 1.1400	70.5700
 1.1440	71.0000
 1.1480	71.3100
 1.1520	71.5700
 1.1560	71.9700
 1.1600	72.2800
 1.1640	72.6800
 1.1680	72.9200
 1.1720	73.3100
 1.1760	73.5800
 1.1800	73.7900
 1.1840	74.1400
 1.1880	74.4400
 1.1920	74.8000
 1.1960	75.1000
 1.2000	75.4300
 1.2040	75.6900
 1.2080	75.9000
 1.2120	76.1600
 1.2160	76.4900
 1.2200	76.6700
 1.2240	76.9600
 1.2280	77.2300
 1.2320	77.5300
 1.2360	77.8200
 1.2400	78.0500
 1.2440	78.2100
 1.2480	78.4800
 1.2520	78.7700
 1.2560	79.0000
 1.2600	79.1600
 1.2640	79.3700
 1.2680	79.6700
 1.2720	79.8100
 1.2760	80.0100
 1.2800	80.2700
 1.2840	80.4900
 1.2880	80.6400
 1.2920	80.7800
 1.2960	81.0500
 1.3000	81.1900
 1.3040	81.2800
 1.3080	81.4600
 1.3120	81.6400
 1.3160	81.7700
 1.3200	81.8900
 1.3240	82.0300
 1.3280	82.1800
 1.3320	82.3100
 1.3360	82.4200
 1.3400	82.5700
 1.3440	82.6800
 1.3480	82.8600
 1.3520	82.9300
 1.3560	83.0900
 1.3600	83.1400
 1.3640	83.2700
 1.3680	83.3400
 1.3720	83.4600
 1.3760	83.6700
 1.3800	83.5900
 1.3840	83.6700
 1.3880	83.8600
 1.3920	83.8100
 1.3960	83.8100
 1.4000	83.7900
 1.4040	83.8500
 1.4080	83.7700
 1.4120	83.7900
 1.4160	83.8000
 1.4200	83.7700
 1.4240	83.8300
 1.4280	83.8800
 1.4320	83.7900
 1.4360	83.7300
 1.4400	83.6200
 1.4440	83.3300
 1.4480	83.2500
 1.4520	82.9900
 1.4560	82.8000
 1.4600	82.6300
 1.4640	82.4600
 1.4680	82.3700
 1.4720	82.3100
 1.4760	82.2300
 1.4800	82.4000
 1.4840	82.4000
 1.4880	82.6800
 1.4920	82.8800
 1.4960	83.1000
 1.5000	83.2100
 1.5040	83.4300
 1.5080	83.4300
 1.5120	83.4800
 1.5160	83.5500
 1.5200	83.5600
 1.5240	83.5300
 1.5280	83.6000
 1.5320	83.5300
 1.5360	83.6900
 1.5400	83.6700
 1.5440	83.7300
 1.5480	83.8200
 1.5520	83.9100
 1.5560	83.9500
 1.5600	84.0500
 1.5640	84.1300
 1.5680	84.2200
 1.5720	84.2700
 1.5760	84.3600
 1.5800	84.4000
 1.5840	84.5400
 1.5880	84.5800
 1.5920	84.5400
 1.5960	84.6200
 1.6000	84.7900
 1.6040	84.8100
 1.6080	84.8600
 1.6120	84.8600
 1.6160	84.9500
 1.6200	85.0100
 1.6240	85.0300
 1.6280	85.0300
 1.6320	85.1600
 1.6360	85.0200
 1.6400	85.1300
 1.6440	85.2000
 1.6480	85.2400
 1.6520	85.3000
 1.6560	85.4000
 1.6600	85.3800
 1.6640	85.4100
 1.6680	85.4500
 1.6720	85.5300
 1.6760	85.6100
 1.6800	85.6700
 1.6840	85.5900
 1.6880	85.6100
 1.6920	85.6800
 1.6960	85.6900
 1.7000	85.5700
 1.7040	85.7700
 1.7080	85.7700
 1.7120	85.7400
 1.7160	85.8000
 1.7200	85.7000
 1.7240	85.7300
 1.7280	85.7300
 1.7320	85.6100
 1.7360	85.6600
 1.7400	85.5500
 1.7440	85.5700
 1.7480	85.5200
 1.7520	85.5200
 1.7560	85.4400
 1.7600	85.4400
 1.7640	85.4800
 1.7680	85.4200
 1.7720	85.3500
 1.7760	85.3700
 1.7800	85.2600
 1.7840	85.1900
 1.7880	85.1700
 1.7920	85.2300
 1.7960	85.1300
 1.8000	85.1800
 1.8040	85.0200
 1.8080	84.9500
 1.8120	84.7700
 1.8160	84.5600
 1.8200	84.3200
 1.8240	84.0100
 1.8280	83.6900
 1.8320	83.3600
 1.8360	83.2100
 1.8400	83.1600
 1.8440	83.1400
 1.8480	83.1700
 1.8520	83.1600
 1.8560	83.2400
 1.8600	83.1300
 1.8640	83.2000
 1.8680	83.2600
 1.8720	83.1800
 1.8760	83.3200
 1.8800	83.3500
 1.8840	83.5500
 1.8880	83.6600
 1.8920	83.9000
 1.8960	83.9400
 1.9000	83.8700
 1.9040	83.7700
 1.9080	83.6900
 1.9120	83.5300
 1.9160	83.4400
 1.9200	83.3700
 1.9240	83.2000
 1.9280	83.0400
 1.9320	83.0400
 1.9360	82.9700
 1.9400	82.9700
 1.9440	82.8800
 1.9480	82.8600
 1.9520	82.8900
 1.9560	82.9700
 1.9600	82.9200
 1.9640	82.9900
 1.9680	83.0500
 1.9720	83.0600
 1.9760	83.0400
 1.9800	83.0900
 1.9840	83.1500
 1.9880	83.1700
 1.9920	83.1400
 1.9960	83.1100
 2.0000	83.2300
 2.0040	83.2000
 2.0080	83.0300
 2.0120	83.0800
 2.0160	82.9300
 2.0200	82.9900
 2.0240	82.9000
 2.0280	82.8200
 2.0320	82.8500
 2.0360	82.7700
 2.0400	82.7600
 2.0440	82.7300
 2.0480	82.6600
 2.0520	82.6100
 2.0560	82.6200
 2.0600	82.6900
 2.0640	82.7200
 2.0680	82.8500
 2.0720	82.8800
 2.0760	82.8900
 2.0800	82.9500
 2.0840	83.0200
 2.0880	83.0300
 2.0920	82.9900
 2.0960	83.1000
 2.1000	83.0800
 2.1040	83.1300
 2.1080	83.1300
 2.1120	83.1400
 2.1160	83.0700
 2.1200	83.0600
 2.1240	82.9400
 2.1280	82.8500
 2.1320	82.7700
 2.1360	82.7000
 2.1400	82.4600
 2.1440	82.3400
 2.1480	82.0400
 2.1520	81.8500
 2.1560	81.7100
 2.1600	81.5100
 2.1640	81.2000
 2.1680	80.9400
 2.1720	80.7800
 2.1760	80.5000
 2.1800	80.2600
 2.1840	79.9000
 2.1880	79.5900
 2.1920	79.3500
 2.1960	78.9900
 2.2000	78.7000
 2.2040	78.2700
 2.2080	77.9500
 2.2120	77.5700
 2.2160	77.0900
 2.2200	76.6800
 2.2240	76.0800
 2.2280	75.5600
 2.2320	74.9300
 2.2360	74.2900
 2.2400	73.7200
 2.2440	73.2500
 2.2480	72.7500
 2.2520	72.5100
 2.2560	72.2400
 2.2600	72.0800
 2.2640	71.8900
 2.2680	71.6900
 2.2720	71.6000
 2.2760	71.4400
 2.2800	71.4500
 2.2840	71.5600
 2.2880	71.6600
 2.2920	71.9000
 2.2960	72.1300
 2.3000	72.5800
 2.3040	72.6700
 2.3080	73.3300
 2.3120	73.7900
 2.3160	74.3200
 2.3200	74.7300
 2.3240	75.0500
 2.3280	75.3600
 2.3320	75.6400
 2.3360	75.9200
 2.3400	75.9900
 2.3440	76.0200
 2.3480	75.9800
 2.3520	75.9000
 2.3560	75.7500
 2.3600	75.5800
 2.3640	75.2300
 2.3680	74.9700
 2.3720	74.6000
 2.3760	74.3000
 2.3800	73.8200
 2.3840	73.3800
 2.3880	72.8700
 2.3920	72.4400
 2.3960	72.1000
 2.4000	71.7900
 2.4040	71.5600
 2.4080	71.3800
 2.4120	71.3000
 2.4160	71.2600
 2.4200	71.2300
 2.4240	71.3300
 2.4280	71.4100
 2.4320	71.5500
 2.4360	71.6600
 2.4400	71.8600
 2.4440	71.9400
 2.4480	72.0800
 2.4520	72.2000
 2.4560	72.3200
 2.4600	72.3900
 2.4640	72.3800
 2.4680	72.2800
 2.4720	72.2600
 2.4760	72.0700
 2.4800	72.1000
 2.4840	71.8900
 2.4880	71.6900
 2.4920	71.5700
 2.4960	71.3200
 2.5000	71.1200
