Name: Sepiolite Mg_4Si_6O_15(OH)_2.6H_2O
Type: Mineral
Class: Silicate
Subclass: Phyllosilicate
Particle Size: Fine
Sample No.: PS-5A
Owner: JPL
Wavelength Range: VSWIR
Origin: USA, Nevada, Two Crows.
Collection Date: N/A
Description: Particle size was 0-45um. Collected by:  Clay Mineral Society Original ASTER Spectral Library name was jpl.perkin.mineral.silicate.phyllosilicate.fine.ps05a.spectrum.txt
Measurement: Hemispherical reflectance
First Column: X
Second Column: Y
X Units: Wavelength (micrometers)
Y Units:Reflectance (percent)
First X Value:  2.5000
Last X Value:  0.4000
Number of X Values: 2101
Additional Information: mineral.silicate.phyllosilicate.fine.vswir.ps-5a.jpl.perkin.ancillary.txt

 2.5000	24.3825
 2.4990	24.1653
 2.4980	24.7334
 2.4970	24.6123
 2.4960	24.5972
 2.4950	24.9456
 2.4940	25.1380
 2.4930	25.0192
 2.4920	25.3706
 2.4910	25.2508
 2.4900	25.6268
 2.4890	25.3472
 2.4880	25.9612
 2.4870	25.7360
 2.4860	26.0053
 2.4850	26.0113
 2.4840	26.2701
 2.4830	26.1987
 2.4820	26.6546
 2.4810	26.5445
 2.4800	26.7986
 2.4790	26.8865
 2.4780	27.0909
 2.4770	27.2016
 2.4760	27.2983
 2.4750	27.2666
 2.4740	27.7346
 2.4730	27.6087
 2.4720	27.9243
 2.4710	27.8817
 2.4700	27.9965
 2.4690	28.0850
 2.4680	28.3445
 2.4670	28.2529
 2.4660	28.5811
 2.4650	28.6449
 2.4640	28.8316
 2.4630	28.7978
 2.4620	28.8903
 2.4610	28.9690
 2.4600	29.1903
 2.4590	29.0557
 2.4580	29.4244
 2.4570	29.2808
 2.4560	29.4835
 2.4550	29.4795
 2.4540	29.6548
 2.4530	29.7080
 2.4520	29.8274
 2.4510	29.8262
 2.4500	29.9206
 2.4490	30.0086
 2.4480	30.1169
 2.4470	30.0711
 2.4460	30.2258
 2.4450	30.1806
 2.4440	30.3561
 2.4430	30.4348
 2.4420	30.5383
 2.4410	30.5374
 2.4400	30.6814
 2.4390	30.6032
 2.4380	30.7172
 2.4370	30.6552
 2.4360	30.8199
 2.4350	30.7815
 2.4340	30.9063
 2.4330	30.9161
 2.4320	31.0333
 2.4310	31.0268
 2.4300	31.1174
 2.4290	31.1490
 2.4280	31.2890
 2.4270	31.2334
 2.4260	31.3679
 2.4250	31.3393
 2.4240	31.4255
 2.4230	31.4727
 2.4220	31.6494
 2.4210	31.5458
 2.4200	31.7385
 2.4190	31.7486
 2.4180	31.7876
 2.4170	31.8307
 2.4160	31.9525
 2.4150	32.0094
 2.4140	32.1393
 2.4130	32.1048
 2.4120	32.2050
 2.4110	32.2186
 2.4100	32.3192
 2.4090	32.3984
 2.4080	32.4767
 2.4070	32.4832
 2.4060	32.6014
 2.4050	32.5574
 2.4040	32.5848
 2.4030	32.6271
 2.4020	32.7473
 2.4010	32.7791
 2.4000	32.7680
 2.3990	32.7238
 2.3980	32.7800
 2.3970	32.7788
 2.3960	32.8050
 2.3950	32.8103
 2.3940	32.8632
 2.3930	32.8097
 2.3920	32.9025
 2.3910	32.8964
 2.3900	32.9569
 2.3890	33.0347
 2.3880	33.1299
 2.3870	33.2025
 2.3860	33.2777
 2.3850	33.3989
 2.3840	33.5928
 2.3830	33.7624
 2.3820	33.9886
 2.3810	34.2263
 2.3800	34.4912
 2.3790	34.7380
 2.3780	34.9790
 2.3770	35.2042
 2.3760	35.5345
 2.3750	35.9015
 2.3740	36.1933
 2.3730	36.4240
 2.3720	36.7128
 2.3710	37.0133
 2.3700	37.3483
 2.3690	37.5833
 2.3680	37.8685
 2.3670	38.1315
 2.3660	38.3920
 2.3650	38.6318
 2.3640	38.8579
 2.3630	39.1322
 2.3620	39.3892
 2.3610	39.5989
 2.3600	39.8305
 2.3590	40.0214
 2.3580	40.2236
 2.3570	40.4212
 2.3560	40.6610
 2.3550	40.8559
 2.3540	41.0513
 2.3530	41.2960
 2.3520	41.4729
 2.3510	41.6534
 2.3500	41.8666
 2.3490	42.1125
 2.3480	42.2595
 2.3470	42.4095
 2.3460	42.6009
 2.3450	42.7923
 2.3440	42.9421
 2.3430	43.1185
 2.3420	43.2624
 2.3410	43.3869
 2.3400	43.4893
 2.3390	43.5736
 2.3380	43.6194
 2.3370	43.7201
 2.3360	43.7534
 2.3350	43.6763
 2.3340	43.6196
 2.3330	43.5724
 2.3320	43.4573
 2.3310	43.3006
 2.3300	43.1409
 2.3290	43.0106
 2.3280	42.7311
 2.3270	42.4786
 2.3260	42.2092
 2.3250	41.9423
 2.3240	41.5757
 2.3230	41.2903
 2.3220	40.9852
 2.3210	40.6801
 2.3200	40.2976
 2.3190	39.9991
 2.3180	39.6946
 2.3170	39.4949
 2.3160	39.2815
 2.3150	39.1916
 2.3140	39.0407
 2.3130	39.0027
 2.3120	38.9993
 2.3110	39.0850
 2.3100	39.1594
 2.3090	39.3402
 2.3080	39.4933
 2.3070	39.7483
 2.3060	39.9329
 2.3050	40.2759
 2.3040	40.5896
 2.3030	40.9260
 2.3020	41.2276
 2.3010	41.5986
 2.3000	41.9234
 2.2990	42.2569
 2.2980	42.5518
 2.2970	42.8555
 2.2960	43.1436
 2.2950	43.4253
 2.2940	43.6358
 2.2930	43.9212
 2.2920	44.0978
 2.2910	44.4445
 2.2900	44.7229
 2.2890	45.0077
 2.2880	45.2547
 2.2870	45.6084
 2.2860	45.9250
 2.2850	46.2339
 2.2840	46.6215
 2.2830	47.0101
 2.2820	47.3284
 2.2810	47.7376
 2.2800	48.0868
 2.2790	48.5278
 2.2780	48.9739
 2.2770	49.3416
 2.2760	49.6208
 2.2750	50.0130
 2.2740	50.3045
 2.2730	50.6311
 2.2720	50.8911
 2.2710	51.1224
 2.2700	51.4256
 2.2690	51.6359
 2.2680	51.8316
 2.2670	52.0238
 2.2660	52.1589
 2.2650	52.3653
 2.2640	52.4928
 2.2630	52.6131
 2.2620	52.7569
 2.2610	52.9341
 2.2600	53.0507
 2.2590	53.1910
 2.2580	53.2773
 2.2570	53.4550
 2.2560	53.5940
 2.2550	53.6649
 2.2540	53.7193
 2.2530	53.8801
 2.2520	53.9272
 2.2510	54.1697
 2.2500	54.1851
 2.2490	54.3023
 2.2480	54.2665
 2.2470	54.3897
 2.2460	54.4567
 2.2450	54.6014
 2.2440	54.6299
 2.2430	54.7057
 2.2420	54.6240
 2.2410	54.7249
 2.2400	54.7066
 2.2390	54.8196
 2.2380	54.8556
 2.2370	54.9115
 2.2360	54.8827
 2.2350	54.9377
 2.2340	54.9233
 2.2330	55.0483
 2.2320	55.0136
 2.2310	55.1690
 2.2300	55.0951
 2.2290	55.1904
 2.2280	55.1508
 2.2270	55.3100
 2.2260	55.2961
 2.2250	55.4238
 2.2240	55.4824
 2.2230	55.5170
 2.2220	55.5716
 2.2210	55.6981
 2.2200	55.7152
 2.2190	55.8998
 2.2180	55.8188
 2.2170	56.0004
 2.2160	55.9837
 2.2150	56.0871
 2.2140	56.1581
 2.2130	56.3731
 2.2120	56.3341
 2.2110	56.3325
 2.2100	56.4368
 2.2090	56.6236
 2.2080	56.5543
 2.2070	56.7334
 2.2060	56.7868
 2.2050	56.9222
 2.2040	56.9310
 2.2030	57.1313
 2.2020	56.9941
 2.2010	57.2208
 2.2000	57.2013
 2.1990	57.2868
 2.1980	57.2291
 2.1970	57.3247
 2.1960	57.2442
 2.1950	57.4378
 2.1940	57.3687
 2.1930	57.3214
 2.1920	57.3063
 2.1910	57.4088
 2.1900	57.3093
 2.1890	57.5177
 2.1880	57.4222
 2.1870	57.4715
 2.1860	57.5147
 2.1850	57.5436
 2.1840	57.5195
 2.1830	57.6379
 2.1820	57.5331
 2.1810	57.7113
 2.1800	57.7393
 2.1790	57.8605
 2.1780	57.8312
 2.1770	57.9376
 2.1760	57.9503
 2.1750	57.9619
 2.1740	58.0005
 2.1730	58.0758
 2.1720	58.1259
 2.1710	58.2738
 2.1700	58.2109
 2.1690	58.2220
 2.1680	58.2550
 2.1670	58.3380
 2.1660	58.3262
 2.1650	58.4347
 2.1640	58.3782
 2.1630	58.3776
 2.1620	58.3694
 2.1610	58.4183
 2.1600	58.4700
 2.1590	58.4993
 2.1580	58.3852
 2.1570	58.4271
 2.1560	58.4255
 2.1550	58.5166
 2.1540	58.3461
 2.1530	58.4661
 2.1520	58.4626
 2.1510	58.4896
 2.1500	58.4761
 2.1490	58.4857
 2.1480	58.4277
 2.1470	58.4612
 2.1460	58.4216
 2.1450	58.5218
 2.1440	58.5126
 2.1430	58.5211
 2.1420	58.5007
 2.1410	58.5002
 2.1400	58.4966
 2.1390	58.5067
 2.1380	58.4311
 2.1370	58.5006
 2.1360	58.4998
 2.1350	58.4738
 2.1340	58.3821
 2.1330	58.3768
 2.1320	58.3970
 2.1310	58.3774
 2.1300	58.3027
 2.1290	58.2130
 2.1280	58.1512
 2.1270	58.1495
 2.1260	58.0333
 2.1250	57.9105
 2.1240	57.7791
 2.1230	57.7627
 2.1220	57.6941
 2.1210	57.6431
 2.1200	57.5090
 2.1190	57.4364
 2.1180	57.3470
 2.1170	57.2620
 2.1160	57.1324
 2.1150	57.0446
 2.1140	56.9839
 2.1130	56.8891
 2.1120	56.8073
 2.1110	56.7737
 2.1100	56.6651
 2.1090	56.5736
 2.1080	56.4395
 2.1070	56.4175
 2.1060	56.2866
 2.1050	56.1766
 2.1040	56.0406
 2.1030	55.9323
 2.1020	55.8357
 2.1010	55.7273
 2.1000	55.5834
 2.0990	55.5292
 2.0980	55.4492
 2.0970	55.3771
 2.0960	55.2717
 2.0950	55.2267
 2.0940	55.2034
 2.0930	55.1241
 2.0920	55.0259
 2.0910	55.0122
 2.0900	54.9458
 2.0890	54.8937
 2.0880	54.8269
 2.0870	54.7819
 2.0860	54.7078
 2.0850	54.6633
 2.0840	54.6418
 2.0830	54.5572
 2.0820	54.4467
 2.0810	54.4515
 2.0800	54.4062
 2.0790	54.2926
 2.0780	54.2755
 2.0770	54.2604
 2.0760	54.1663
 2.0750	54.1502
 2.0740	54.1409
 2.0730	54.0660
 2.0720	54.0123
 2.0710	53.9945
 2.0700	53.9013
 2.0690	53.8753
 2.0680	53.8504
 2.0670	53.7507
 2.0660	53.7156
 2.0650	53.6836
 2.0640	53.6071
 2.0630	53.5590
 2.0620	53.5408
 2.0610	53.4747
 2.0600	53.4724
 2.0590	53.4465
 2.0580	53.3735
 2.0570	53.3030
 2.0560	53.2255
 2.0550	53.2184
 2.0540	53.2217
 2.0530	53.1403
 2.0520	53.0542
 2.0510	53.0048
 2.0500	52.9470
 2.0490	52.8636
 2.0480	52.8447
 2.0470	52.7713
 2.0460	52.6991
 2.0450	52.5884
 2.0440	52.5588
 2.0430	52.4871
 2.0420	52.4292
 2.0410	52.3723
 2.0400	52.2775
 2.0390	52.1112
 2.0380	51.9973
 2.0370	51.8479
 2.0360	51.7457
 2.0350	51.6321
 2.0340	51.4738
 2.0330	51.2967
 2.0320	51.1898
 2.0310	51.0429
 2.0300	50.8730
 2.0290	50.6845
 2.0280	50.5658
 2.0270	50.3325
 2.0260	50.1662
 2.0250	49.9983
 2.0240	49.8459
 2.0230	49.6149
 2.0220	49.4568
 2.0210	49.2561
 2.0200	49.0279
 2.0190	48.8327
 2.0180	48.6402
 2.0170	48.4537
 2.0160	48.2503
 2.0150	48.0344
 2.0140	47.8698
 2.0130	47.6251
 2.0120	47.5222
 2.0110	47.2429
 2.0100	47.0833
 2.0090	46.8200
 2.0080	46.6173
 2.0070	46.3321
 2.0060	46.1727
 2.0050	45.9423
 2.0040	45.7729
 2.0030	45.5486
 2.0020	45.3366
 2.0010	45.1181
 2.0000	44.9385
 1.9990	44.6705
 1.9980	44.4393
 1.9970	44.2576
 1.9960	44.0669
 1.9950	43.8362
 1.9940	43.7026
 1.9930	43.4976
 1.9920	43.3163
 1.9910	43.1188
 1.9900	42.9296
 1.9890	42.7687
 1.9880	42.6675
 1.9870	42.4401
 1.9860	42.3022
 1.9850	42.1430
 1.9840	42.0245
 1.9830	41.8807
 1.9820	41.7580
 1.9810	41.6475
 1.9800	41.5679
 1.9790	41.4100
 1.9780	41.3962
 1.9770	41.2095
 1.9760	41.1659
 1.9750	41.0084
 1.9740	41.0622
 1.9730	40.9446
 1.9720	40.8658
 1.9710	40.7950
 1.9700	40.7795
 1.9690	40.7706
 1.9680	40.7420
 1.9670	40.5986
 1.9660	40.5896
 1.9650	40.5550
 1.9640	40.6068
 1.9630	40.5561
 1.9620	40.5285
 1.9610	40.4658
 1.9600	40.5266
 1.9590	40.4575
 1.9580	40.4386
 1.9570	40.3620
 1.9560	40.3927
 1.9550	40.3177
 1.9540	40.3359
 1.9530	40.2257
 1.9520	40.2277
 1.9510	40.0677
 1.9500	40.0491
 1.9490	39.9710
 1.9480	39.8442
 1.9470	39.7143
 1.9460	39.6479
 1.9450	39.3920
 1.9440	39.2914
 1.9430	39.0037
 1.9420	38.8317
 1.9410	38.5007
 1.9400	38.2197
 1.9390	37.8305
 1.9380	37.4909
 1.9370	36.8834
 1.9360	36.5438
 1.9350	35.8974
 1.9340	35.3766
 1.9330	34.6266
 1.9320	33.9647
 1.9310	33.2025
 1.9300	32.4603
 1.9290	31.5223
 1.9280	30.8550
 1.9270	29.8989
 1.9260	29.0014
 1.9250	28.2518
 1.9240	27.6030
 1.9230	26.7513
 1.9220	26.2006
 1.9210	25.5638
 1.9200	25.2165
 1.9190	24.6907
 1.9180	24.4643
 1.9170	24.1298
 1.9160	24.0088
 1.9150	23.8386
 1.9140	23.8140
 1.9130	23.7280
 1.9120	23.9229
 1.9110	23.8562
 1.9100	23.9807
 1.9090	24.0597
 1.9080	24.3064
 1.9070	24.4449
 1.9060	24.7305
 1.9050	25.1178
 1.9040	25.6635
 1.9030	26.1545
 1.9020	26.8919
 1.9010	27.5411
 1.9000	28.5444
 1.8990	29.4952
 1.8980	30.5387
 1.8970	31.6228
 1.8960	32.8185
 1.8950	33.9560
 1.8940	35.3226
 1.8930	36.5927
 1.8920	37.9224
 1.8910	39.1342
 1.8900	40.5101
 1.8890	41.7309
 1.8880	42.9851
 1.8870	44.1490
 1.8860	45.2203
 1.8850	46.2499
 1.8840	47.2858
 1.8830	48.2321
 1.8820	49.4051
 1.8810	50.3448
 1.8800	51.3629
 1.8790	52.2927
 1.8780	53.2447
 1.8770	54.1482
 1.8760	55.1081
 1.8750	56.0714
 1.8740	57.0772
 1.8730	57.9516
 1.8720	58.8865
 1.8710	59.7722
 1.8700	60.5751
 1.8690	61.2661
 1.8680	61.9769
 1.8670	62.5076
 1.8660	62.9527
 1.8650	63.4080
 1.8640	63.8038
 1.8630	64.1637
 1.8620	64.5412
 1.8610	64.8551
 1.8600	65.2426
 1.8590	65.5125
 1.8580	65.7815
 1.8570	66.0394
 1.8560	66.2374
 1.8550	66.5143
 1.8540	66.6656
 1.8530	66.7938
 1.8520	67.0465
 1.8510	67.2070
 1.8500	67.4183
 1.8490	67.5350
 1.8480	67.7250
 1.8470	67.8077
 1.8460	67.9755
 1.8450	68.0926
 1.8440	68.2068
 1.8430	68.2363
 1.8420	68.3925
 1.8410	68.4138
 1.8400	68.5543
 1.8390	68.6408
 1.8380	68.7464
 1.8370	68.8066
 1.8360	68.8911
 1.8350	68.9292
 1.8340	69.0122
 1.8330	69.0719
 1.8320	69.1578
 1.8310	69.1909
 1.8300	69.2190
 1.8290	69.2855
 1.8280	69.3684
 1.8270	69.4095
 1.8260	69.4011
 1.8250	69.4236
 1.8240	69.5089
 1.8230	69.5043
 1.8220	69.5035
 1.8210	69.4872
 1.8200	69.5257
 1.8190	69.5264
 1.8180	69.6144
 1.8170	69.6684
 1.8160	69.6654
 1.8150	69.6173
 1.8140	69.6054
 1.8130	69.6354
 1.8120	69.6232
 1.8110	69.6036
 1.8100	69.6478
 1.8090	69.6204
 1.8080	69.5769
 1.8070	69.5840
 1.8060	69.6226
 1.8050	69.6299
 1.8040	69.6248
 1.8030	69.5840
 1.8020	69.5294
 1.8010	69.5225
 1.8000	69.5605
 1.7990	69.5276
 1.7980	69.5257
 1.7970	69.5292
 1.7960	69.4799
 1.7950	69.4817
 1.7940	69.5249
 1.7930	69.5317
 1.7920	69.6033
 1.7910	69.6454
 1.7900	69.6663
 1.7890	69.6878
 1.7880	69.7578
 1.7870	69.7709
 1.7860	69.7834
 1.7850	69.8595
 1.7840	69.9334
 1.7830	70.0077
 1.7820	70.0758
 1.7810	70.1713
 1.7800	70.2340
 1.7790	70.2398
 1.7780	70.3178
 1.7770	70.3785
 1.7760	70.4277
 1.7750	70.5382
 1.7740	70.7226
 1.7730	70.8182
 1.7720	70.8698
 1.7710	70.9315
 1.7700	70.9560
 1.7690	71.0426
 1.7680	71.1142
 1.7670	71.1537
 1.7660	71.2088
 1.7650	71.2917
 1.7640	71.3950
 1.7630	71.4827
 1.7620	71.5727
 1.7610	71.6617
 1.7600	71.6943
 1.7590	71.7650
 1.7580	71.8154
 1.7570	71.9087
 1.7560	72.0079
 1.7550	72.1054
 1.7540	72.1692
 1.7530	72.2456
 1.7520	72.3025
 1.7510	72.4181
 1.7500	72.4818
 1.7490	72.5564
 1.7480	72.6158
 1.7470	72.6335
 1.7460	72.6968
 1.7450	72.7854
 1.7440	72.7869
 1.7430	72.8108
 1.7420	72.8278
 1.7410	72.8701
 1.7400	72.8832
 1.7390	72.9168
 1.7380	72.9604
 1.7370	72.9854
 1.7360	73.0113
 1.7350	73.0426
 1.7340	73.0730
 1.7330	73.0694
 1.7320	73.0894
 1.7310	73.1772
 1.7300	73.1477
 1.7290	73.2010
 1.7280	73.2652
 1.7270	73.2576
 1.7260	73.2701
 1.7250	73.3835
 1.7240	73.3532
 1.7230	73.3735
 1.7220	73.3929
 1.7210	73.4917
 1.7200	73.4750
 1.7190	73.5612
 1.7180	73.5666
 1.7170	73.6813
 1.7160	73.6602
 1.7150	73.7273
 1.7140	73.7940
 1.7130	73.8458
 1.7120	73.8302
 1.7110	73.8851
 1.7100	73.9979
 1.7090	74.0404
 1.7080	74.0117
 1.7070	74.0314
 1.7060	74.0948
 1.7050	74.1628
 1.7040	74.1740
 1.7030	74.1704
 1.7020	74.1835
 1.7010	74.2346
 1.7000	74.2066
 1.6990	74.3096
 1.6980	74.3342
 1.6970	74.3465
 1.6960	74.3138
 1.6950	74.3925
 1.6940	74.3393
 1.6930	74.4138
 1.6920	74.4088
 1.6910	74.4005
 1.6900	74.4258
 1.6890	74.4725
 1.6880	74.4215
 1.6870	74.4818
 1.6860	74.4409
 1.6850	74.4944
 1.6840	74.4762
 1.6830	74.5048
 1.6820	74.4783
 1.6810	74.5264
 1.6800	74.4682
 1.6790	74.5859
 1.6780	74.4710
 1.6770	74.5436
 1.6760	74.4853
 1.6750	74.4742
 1.6740	74.4474
 1.6730	74.4795
 1.6720	74.4629
 1.6710	74.5321
 1.6700	74.5006
 1.6690	74.5374
 1.6680	74.4847
 1.6670	74.5160
 1.6660	74.5780
 1.6650	74.4964
 1.6640	74.4486
 1.6630	74.5342
 1.6620	74.4963
 1.6610	74.5036
 1.6600	74.4575
 1.6590	74.5101
 1.6580	74.3929
 1.6570	74.4627
 1.6560	74.5332
 1.6550	74.4714
 1.6540	74.3471
 1.6530	74.3761
 1.6520	74.4691
 1.6510	74.3968
 1.6500	74.3977
 1.6490	74.3458
 1.6480	74.3785
 1.6470	74.3905
 1.6460	74.3264
 1.6450	74.3668
 1.6440	74.3555
 1.6430	74.3703
 1.6420	74.4047
 1.6410	74.3423
 1.6400	74.3414
 1.6390	74.2545
 1.6380	74.1743
 1.6370	74.2655
 1.6360	74.2690
 1.6350	74.2870
 1.6340	74.1696
 1.6330	74.2128
 1.6320	74.0844
 1.6310	74.1665
 1.6300	74.1849
 1.6290	74.0777
 1.6280	73.9995
 1.6270	74.0594
 1.6260	74.0257
 1.6250	74.1279
 1.6240	73.9877
 1.6230	74.0082
 1.6220	74.0527
 1.6210	73.8952
 1.6200	73.8796
 1.6190	73.9254
 1.6180	73.8953
 1.6170	73.8637
 1.6160	73.8021
 1.6150	73.9124
 1.6140	73.8071
 1.6130	73.7785
 1.6120	73.7628
 1.6110	73.7858
 1.6100	73.7971
 1.6090	73.7388
 1.6080	73.6771
 1.6070	73.7603
 1.6060	73.7168
 1.6050	73.6634
 1.6040	73.6812
 1.6030	73.6010
 1.6020	73.6136
 1.6010	73.5774
 1.6000	73.5121
 1.5990	73.4774
 1.5980	73.4802
 1.5970	73.4058
 1.5960	73.4594
 1.5950	73.4184
 1.5940	73.3289
 1.5930	73.2986
 1.5920	73.2851
 1.5910	73.2370
 1.5900	73.2217
 1.5890	73.1676
 1.5880	73.1351
 1.5870	73.0181
 1.5860	73.0473
 1.5850	73.1119
 1.5840	73.0569
 1.5830	73.0190
 1.5820	72.9467
 1.5810	72.9029
 1.5800	72.8906
 1.5790	72.8415
 1.5780	72.7508
 1.5770	72.7028
 1.5760	72.7546
 1.5750	72.6319
 1.5740	72.5661
 1.5730	72.5633
 1.5720	72.4314
 1.5710	72.4453
 1.5700	72.4642
 1.5690	72.3783
 1.5680	72.2876
 1.5670	72.2434
 1.5660	72.2044
 1.5650	72.1619
 1.5640	72.0612
 1.5630	72.0220
 1.5620	71.9894
 1.5610	71.9426
 1.5600	71.8575
 1.5590	71.8226
 1.5580	71.7235
 1.5570	71.6935
 1.5560	71.6667
 1.5550	71.5945
 1.5540	71.4618
 1.5530	71.4547
 1.5520	71.2955
 1.5510	71.2168
 1.5500	71.1725
 1.5490	71.1271
 1.5480	71.0307
 1.5470	70.9685
 1.5460	70.9491
 1.5450	70.8611
 1.5440	70.7616
 1.5430	70.6747
 1.5420	70.5832
 1.5410	70.5262
 1.5400	70.4561
 1.5390	70.4117
 1.5380	70.3296
 1.5370	70.2496
 1.5360	70.1050
 1.5350	70.0387
 1.5340	69.9693
 1.5330	69.8917
 1.5320	69.7407
 1.5310	69.6772
 1.5300	69.6402
 1.5290	69.5832
 1.5280	69.4227
 1.5270	69.3084
 1.5260	69.2285
 1.5250	69.1368
 1.5240	69.0575
 1.5230	68.9861
 1.5220	68.8958
 1.5210	68.8009
 1.5200	68.7043
 1.5190	68.6060
 1.5180	68.4735
 1.5170	68.3865
 1.5160	68.2809
 1.5150	68.1437
 1.5140	68.0384
 1.5130	67.9390
 1.5120	67.8004
 1.5110	67.7201
 1.5100	67.5934
 1.5090	67.4862
 1.5080	67.3630
 1.5070	67.1989
 1.5060	67.0987
 1.5050	67.0169
 1.5040	66.8273
 1.5030	66.6172
 1.5020	66.4606
 1.5010	66.3780
 1.5000	66.2230
 1.4990	66.0488
 1.4980	65.8908
 1.4970	65.7453
 1.4960	65.5531
 1.4950	65.3926
 1.4940	65.2257
 1.4930	65.0272
 1.4920	64.8481
 1.4910	64.6084
 1.4900	64.4633
 1.4890	64.2445
 1.4880	63.9776
 1.4870	63.7875
 1.4860	63.5256
 1.4850	63.2267
 1.4840	63.0294
 1.4830	62.7261
 1.4820	62.4276
 1.4810	62.1840
 1.4800	61.9523
 1.4790	61.6821
 1.4780	61.3814
 1.4770	61.0625
 1.4760	60.8299
 1.4750	60.5909
 1.4740	60.3278
 1.4730	60.0397
 1.4720	59.8256
 1.4710	59.7388
 1.4700	59.6407
 1.4690	59.5000
 1.4680	59.4270
 1.4670	59.3750
 1.4660	59.3351
 1.4650	59.2261
 1.4640	59.1811
 1.4630	59.1567
 1.4620	59.1636
 1.4610	59.0638
 1.4600	59.0704
 1.4590	59.0486
 1.4580	58.9983
 1.4570	58.8947
 1.4560	58.8661
 1.4550	58.7088
 1.4540	58.5608
 1.4530	58.4092
 1.4520	58.2407
 1.4510	58.0235
 1.4500	57.7832
 1.4490	57.5546
 1.4480	57.3653
 1.4470	57.1159
 1.4460	56.9761
 1.4450	56.8382
 1.4440	56.7372
 1.4430	56.6777
 1.4420	56.6224
 1.4410	56.5728
 1.4400	56.6004
 1.4390	56.6027
 1.4380	56.6782
 1.4370	56.6635
 1.4360	56.6896
 1.4350	56.6615
 1.4340	56.6347
 1.4330	56.6419
 1.4320	56.5562
 1.4310	56.3941
 1.4300	56.3686
 1.4290	56.2272
 1.4280	56.1125
 1.4270	55.9116
 1.4260	55.7142
 1.4250	55.5268
 1.4240	55.3784
 1.4230	55.0787
 1.4220	54.8549
 1.4210	54.6266
 1.4200	54.5024
 1.4190	54.2287
 1.4180	54.1323
 1.4170	54.0126
 1.4160	53.9766
 1.4150	53.9632
 1.4140	54.0500
 1.4130	54.1619
 1.4120	54.4552
 1.4110	54.7254
 1.4100	55.1271
 1.4090	55.4959
 1.4080	55.9649
 1.4070	56.5553
 1.4060	57.1748
 1.4050	58.0305
 1.4040	58.7520
 1.4030	59.3961
 1.4020	60.2705
 1.4010	61.0353
 1.4000	61.9073
 1.3990	62.5717
 1.3980	63.2419
 1.3970	63.9918
 1.3960	64.5152
 1.3950	64.7858
 1.3940	64.8934
 1.3930	64.8073
 1.3920	64.4699
 1.3910	63.4131
 1.3900	61.5886
 1.3890	58.9746
 1.3880	56.8874
 1.3870	56.3111
 1.3860	57.9885
 1.3850	61.2896
 1.3840	64.9475
 1.3830	67.8051
 1.3820	69.7868
 1.3810	70.8131
 1.3800	71.5687
 1.3790	72.1219
 1.3780	72.5323
 1.3770	73.0675
 1.3760	73.5649
 1.3750	74.0381
 1.3740	74.7179
 1.3730	75.2797
 1.3720	75.6927
 1.3710	75.9535
 1.3700	76.2876
 1.3690	76.6490
 1.3680	76.8070
 1.3670	76.9367
 1.3660	77.1129
 1.3650	77.1910
 1.3640	77.3862
 1.3630	77.4643
 1.3620	77.5724
 1.3610	77.6984
 1.3600	77.7994
 1.3590	77.8848
 1.3580	78.0165
 1.3570	78.0526
 1.3560	78.1314
 1.3550	78.0967
 1.3540	78.2100
 1.3530	78.2769
 1.3520	78.3266
 1.3510	78.4660
 1.3500	78.6264
 1.3490	78.6848
 1.3480	78.8064
 1.3470	78.8310
 1.3460	79.0562
 1.3450	79.0562
 1.3440	79.1940
 1.3430	79.2668
 1.3420	79.3947
 1.3410	79.4811
 1.3400	79.5959
 1.3390	79.6893
 1.3380	79.8283
 1.3370	79.9729
 1.3360	80.1286
 1.3350	80.2607
 1.3340	80.3974
 1.3330	80.3452
 1.3320	80.6309
 1.3310	80.7471
 1.3300	80.8444
 1.3290	80.9267
 1.3280	81.0461
 1.3270	81.0852
 1.3260	81.2391
 1.3250	81.2996
 1.3240	81.5024
 1.3230	81.4475
 1.3220	81.5360
 1.3210	81.7065
 1.3200	81.8234
 1.3190	81.8764
 1.3180	81.9737
 1.3170	82.0098
 1.3160	82.1943
 1.3150	82.1189
 1.3140	82.1942
 1.3130	82.2259
 1.3120	82.3684
 1.3110	82.3369
 1.3100	82.4961
 1.3090	82.5419
 1.3080	82.6670
 1.3070	82.6632
 1.3060	82.7081
 1.3050	82.7569
 1.3040	82.8614
 1.3030	82.8547
 1.3020	82.8858
 1.3010	82.9038
 1.3000	82.9151
 1.2990	82.8629
 1.2980	82.8856
 1.2970	82.8852
 1.2960	82.8605
 1.2950	82.9441
 1.2940	83.0588
 1.2930	83.0712
 1.2920	83.1536
 1.2910	83.1550
 1.2900	83.2361
 1.2890	83.2694
 1.2880	83.2816
 1.2870	83.2656
 1.2860	83.3105
 1.2850	83.3216
 1.2840	83.3769
 1.2830	83.3988
 1.2820	83.3910
 1.2810	83.3469
 1.2800	83.3448
 1.2790	83.3690
 1.2780	83.2607
 1.2770	83.2174
 1.2760	83.2947
 1.2750	83.2160
 1.2740	83.3102
 1.2730	83.3576
 1.2720	83.2617
 1.2710	83.3091
 1.2700	83.3563
 1.2690	83.3726
 1.2680	83.4015
 1.2670	83.4448
 1.2660	83.4540
 1.2650	83.5288
 1.2640	83.5258
 1.2630	83.5144
 1.2620	83.5417
 1.2610	83.5643
 1.2600	83.5682
 1.2590	83.5744
 1.2580	83.5638
 1.2570	83.6020
 1.2560	83.6700
 1.2550	83.6611
 1.2540	83.6484
 1.2530	83.5946
 1.2520	83.6049
 1.2510	83.5688
 1.2500	83.5630
 1.2490	83.5353
 1.2480	83.5088
 1.2470	83.5808
 1.2460	83.6339
 1.2450	83.5792
 1.2440	83.5979
 1.2430	83.6285
 1.2420	83.6031
 1.2410	83.5595
 1.2400	83.5993
 1.2390	83.6109
 1.2380	83.5274
 1.2370	83.5684
 1.2360	83.5484
 1.2350	83.5234
 1.2340	83.5484
 1.2330	83.5113
 1.2320	83.4966
 1.2310	83.4935
 1.2300	83.5131
 1.2290	83.4908
 1.2280	83.5020
 1.2270	83.5572
 1.2260	83.6102
 1.2250	83.6356
 1.2240	83.6410
 1.2230	83.6093
 1.2220	83.5863
 1.2210	83.5738
 1.2200	83.5947
 1.2190	83.5752
 1.2180	83.5558
 1.2170	83.5573
 1.2160	83.5238
 1.2150	83.5624
 1.2140	83.5987
 1.2130	83.5256
 1.2120	83.5399
 1.2110	83.5673
 1.2100	83.5037
 1.2090	83.5062
 1.2080	83.5343
 1.2070	83.4924
 1.2060	83.4722
 1.2050	83.4090
 1.2040	83.3570
 1.2030	83.3807
 1.2020	83.3486
 1.2010	83.2900
 1.2000	83.2876
 1.1990	83.3230
 1.1980	83.3092
 1.1970	83.2641
 1.1960	83.2053
 1.1950	83.2089
 1.1940	83.1837
 1.1930	83.1850
 1.1920	83.1970
 1.1910	83.1770
 1.1900	83.1896
 1.1890	83.2411
 1.1880	83.2926
 1.1870	83.3484
 1.1860	83.2749
 1.1850	83.2318
 1.1840	83.2183
 1.1830	83.2633
 1.1820	83.2429
 1.1810	83.1866
 1.1800	83.1758
 1.1790	83.2086
 1.1780	83.1147
 1.1770	83.0003
 1.1760	82.9619
 1.1750	82.9028
 1.1740	82.7679
 1.1730	82.6640
 1.1720	82.5339
 1.1710	82.4560
 1.1700	82.4303
 1.1690	82.3901
 1.1680	82.3225
 1.1670	82.2679
 1.1660	82.2568
 1.1650	82.2328
 1.1640	82.2315
 1.1630	82.2468
 1.1620	82.2486
 1.1610	82.2409
 1.1600	82.1779
 1.1590	82.2040
 1.1580	82.1981
 1.1570	82.2231
 1.1560	82.1951
 1.1550	82.1982
 1.1540	82.1719
 1.1530	82.2254
 1.1520	82.3132
 1.1510	82.4567
 1.1500	82.5435
 1.1490	82.6888
 1.1480	82.7534
 1.1470	83.0098
 1.1460	83.1927
 1.1450	83.3218
 1.1440	83.4843
 1.1430	83.5952
 1.1420	83.7841
 1.1410	83.9692
 1.1400	84.0156
 1.1390	84.1190
 1.1380	84.2348
 1.1370	84.2899
 1.1360	84.3485
 1.1350	84.4038
 1.1340	84.4284
 1.1330	84.5478
 1.1320	84.5291
 1.1310	84.5884
 1.1300	84.5941
 1.1290	84.6914
 1.1280	84.7701
 1.1270	84.8257
 1.1260	84.8066
 1.1250	84.8430
 1.1240	84.8777
 1.1230	84.9209
 1.1220	84.8985
 1.1210	84.8756
 1.1200	84.8707
 1.1190	84.8884
 1.1180	84.9337
 1.1170	84.9679
 1.1160	84.9374
 1.1150	84.9923
 1.1140	84.9256
 1.1130	85.0447
 1.1120	84.8900
 1.1110	84.9613
 1.1100	85.0428
 1.1090	85.0170
 1.1080	84.9655
 1.1070	85.0213
 1.1060	85.1056
 1.1050	85.0496
 1.1040	85.0421
 1.1030	85.0123
 1.1020	85.1391
 1.1010	85.0900
 1.1000	85.0691
 1.0990	85.1151
 1.0980	85.0895
 1.0970	85.0955
 1.0960	85.1407
 1.0950	85.1707
 1.0940	85.1018
 1.0930	85.1338
 1.0920	85.1893
 1.0910	85.1439
 1.0900	85.1304
 1.0890	85.1651
 1.0880	85.1432
 1.0870	85.1938
 1.0860	85.1237
 1.0850	85.1703
 1.0840	85.1631
 1.0830	85.1122
 1.0820	85.1478
 1.0810	85.1996
 1.0800	85.1536
 1.0790	85.1651
 1.0780	85.1479
 1.0770	85.2277
 1.0760	85.2363
 1.0750	85.1586
 1.0740	85.1956
 1.0730	85.2335
 1.0720	85.0661
 1.0710	85.1305
 1.0700	85.2424
 1.0690	85.2414
 1.0680	85.0913
 1.0670	85.1973
 1.0660	85.1680
 1.0650	85.2064
 1.0640	85.1106
 1.0630	85.1496
 1.0620	85.2207
 1.0610	85.1921
 1.0600	85.1239
 1.0590	85.2375
 1.0580	85.1791
 1.0570	85.1744
 1.0560	85.1415
 1.0550	85.1892
 1.0540	85.2397
 1.0530	85.2966
 1.0520	85.1754
 1.0510	85.2122
 1.0500	85.1735
 1.0490	85.1671
 1.0480	85.1882
 1.0470	85.2223
 1.0460	85.1581
 1.0450	85.1022
 1.0440	85.1472
 1.0430	85.1572
 1.0420	85.1301
 1.0410	85.1182
 1.0400	85.1015
 1.0390	84.9432
 1.0380	84.4031
 1.0370	85.0743
 1.0360	85.0274
 1.0350	85.1241
 1.0340	84.9864
 1.0330	85.1795
 1.0320	85.0903
 1.0310	85.0453
 1.0300	85.0173
 1.0290	85.0609
 1.0280	84.9061
 1.0270	84.9652
 1.0260	85.0176
 1.0250	85.0579
 1.0240	84.9846
 1.0230	85.0272
 1.0220	85.0102
 1.0210	85.0419
 1.0200	84.9347
 1.0190	84.9860
 1.0180	84.9858
 1.0170	84.9023
 1.0160	84.9155
 1.0150	84.8707
 1.0140	84.8899
 1.0130	84.8852
 1.0120	84.8076
 1.0110	84.7893
 1.0100	84.7881
 1.0090	84.8520
 1.0080	84.8371
 1.0070	84.8044
 1.0060	84.7200
 1.0050	84.7247
 1.0040	84.6859
 1.0030	84.6672
 1.0020	84.6511
 1.0010	84.6135
 1.0000	84.5950
 0.9990	84.6588
 0.9980	84.5740
 0.9970	84.5673
 0.9960	84.5030
 0.9950	84.4575
 0.9940	84.3960
 0.9930	84.3525
 0.9920	84.3322
 0.9910	84.3591
 0.9900	84.3357
 0.9890	84.3313
 0.9880	84.2454
 0.9870	84.2764
 0.9860	84.3148
 0.9850	84.2382
 0.9840	84.2516
 0.9830	84.2092
 0.9820	84.2144
 0.9810	84.2280
 0.9800	84.1688
 0.9790	84.1516
 0.9780	84.0937
 0.9770	84.0491
 0.9760	84.0083
 0.9750	83.9767
 0.9740	83.9788
 0.9730	84.0231
 0.9720	84.0021
 0.9710	84.0087
 0.9700	83.9950
 0.9690	83.9790
 0.9680	83.9934
 0.9670	83.9873
 0.9660	83.9985
 0.9650	83.9376
 0.9640	83.9384
 0.9630	83.9753
 0.9620	83.9999
 0.9610	84.0316
 0.9600	84.0495
 0.9590	84.0962
 0.9580	84.1842
 0.9570	84.2864
 0.9560	84.3548
 0.9550	84.4155
 0.9540	84.3811
 0.9530	84.3684
 0.9520	84.3946
 0.9510	84.3820
 0.9500	84.2902
 0.9490	84.1905
 0.9480	84.0488
 0.9470	83.9740
 0.9460	84.0230
 0.9450	84.1213
 0.9440	84.1846
 0.9430	84.3388
 0.9420	84.5634
 0.9410	84.6804
 0.9400	84.7564
 0.9390	84.8293
 0.9380	84.8932
 0.9370	84.9048
 0.9360	84.8634
 0.9350	84.9133
 0.9340	84.9525
 0.9330	84.9341
 0.9320	84.9838
 0.9310	84.9982
 0.9300	84.9725
 0.9290	85.0476
 0.9280	85.0496
 0.9270	85.0728
 0.9260	85.0771
 0.9250	85.0733
 0.9240	85.1228
 0.9230	85.1190
 0.9220	85.1226
 0.9210	85.1594
 0.9200	85.1685
 0.9190	85.1463
 0.9180	85.1509
 0.9170	85.1040
 0.9160	85.1587
 0.9150	85.1903
 0.9140	85.1638
 0.9130	85.1204
 0.9120	85.1027
 0.9110	85.1258
 0.9100	85.1716
 0.9090	85.2131
 0.9080	85.2007
 0.9070	85.1795
 0.9060	85.1749
 0.9050	85.1724
 0.9040	85.2268
 0.9030	85.2599
 0.9020	85.2250
 0.9010	85.2538
 0.9000	85.2470
 0.8990	85.1978
 0.8980	85.1770
 0.8970	85.1961
 0.8960	85.1930
 0.8950	85.2006
 0.8940	85.1694
 0.8930	85.1683
 0.8920	85.2086
 0.8910	85.1946
 0.8900	85.2255
 0.8890	85.2227
 0.8880	85.2151
 0.8870	85.1410
 0.8860	85.1984
 0.8850	85.2093
 0.8840	85.2190
 0.8830	85.2055
 0.8820	85.2540
 0.8810	85.2307
 0.8800	85.2299
 0.8790	85.1901
 0.8780	85.2176
 0.8770	85.2327
 0.8760	85.2216
 0.8750	85.2132
 0.8740	85.1805
 0.8730	85.2212
 0.8720	85.2173
 0.8710	85.2282
 0.8700	85.2179
 0.8690	85.2139
 0.8680	85.1971
 0.8670	85.2271
 0.8660	85.1790
 0.8650	85.1657
 0.8640	85.2840
 0.8630	85.2078
 0.8620	85.1759
 0.8610	85.1910
 0.8600	85.4437
 0.8590	85.4225
 0.8580	85.5260
 0.8570	85.4660
 0.8560	85.4845
 0.8550	85.4143
 0.8540	85.4665
 0.8530	85.4275
 0.8520	85.4533
 0.8510	85.4325
 0.8500	85.4710
 0.8490	85.4766
 0.8480	85.4814
 0.8470	85.4126
 0.8460	85.4685
 0.8450	85.4160
 0.8440	85.3696
 0.8430	85.4217
 0.8420	85.4257
 0.8410	85.4504
 0.8400	85.4806
 0.8390	85.4403
 0.8380	85.4693
 0.8370	85.4340
 0.8360	85.4386
 0.8350	85.4674
 0.8340	85.4639
 0.8330	85.4304
 0.8320	85.5066
 0.8310	85.5334
 0.8300	85.4833
 0.8290	85.4736
 0.8280	85.5097
 0.8270	85.5605
 0.8260	85.5041
 0.8250	85.5376
 0.8240	85.4982
 0.8230	85.5053
 0.8220	85.5063
 0.8210	85.5260
 0.8200	85.5614
 0.8190	85.5679
 0.8180	85.5664
 0.8170	85.5869
 0.8160	85.5494
 0.8150	85.5297
 0.8140	85.5322
 0.8130	85.5026
 0.8120	85.5789
 0.8110	85.4987
 0.8100	85.5620
 0.8090	85.5201
 0.8080	85.5602
 0.8070	85.5717
 0.8060	85.5847
 0.8050	85.5851
 0.8040	85.5362
 0.8030	85.5522
 0.8020	85.5654
 0.8010	85.5689
 0.8000	85.4921
 0.7990	85.5151
 0.7980	85.5492
 0.7970	85.5273
 0.7960	85.4498
 0.7950	85.4718
 0.7940	85.4605
 0.7930	85.4417
 0.7920	85.4061
 0.7910	85.5021
 0.7900	85.5070
 0.7890	85.4575
 0.7880	85.4457
 0.7870	85.4174
 0.7860	85.4605
 0.7850	85.4278
 0.7840	85.4939
 0.7830	85.4048
 0.7820	85.3860
 0.7810	85.3831
 0.7800	85.4150
 0.7790	85.3967
 0.7780	85.4362
 0.7770	85.3362
 0.7760	85.3928
 0.7750	85.3692
 0.7740	85.3486
 0.7730	85.3534
 0.7720	85.3068
 0.7710	85.3373
 0.7700	85.3378
 0.7690	85.2696
 0.7680	85.2922
 0.7670	85.3130
 0.7660	85.2924
 0.7650	85.2974
 0.7640	85.2738
 0.7630	85.2925
 0.7620	85.3217
 0.7610	85.3104
 0.7600	85.2654
 0.7590	85.3034
 0.7580	85.2917
 0.7570	85.2752
 0.7560	85.2445
 0.7550	85.2720
 0.7540	85.2831
 0.7530	85.2697
 0.7520	85.2220
 0.7510	85.2078
 0.7500	85.2444
 0.7490	85.2208
 0.7480	85.2325
 0.7470	85.1972
 0.7460	85.2128
 0.7450	85.2194
 0.7440	85.1995
 0.7430	85.1826
 0.7420	85.1451
 0.7410	85.1607
 0.7400	85.1291
 0.7390	85.1187
 0.7380	85.1481
 0.7370	85.1466
 0.7360	85.1161
 0.7350	85.1405
 0.7340	85.1527
 0.7330	85.1566
 0.7320	85.1713
 0.7310	85.1205
 0.7300	85.1293
 0.7290	85.1110
 0.7280	85.0903
 0.7270	85.1039
 0.7260	85.0601
 0.7250	85.0418
 0.7240	85.0758
 0.7230	85.0949
 0.7220	85.0745
 0.7210	85.0870
 0.7200	85.0793
 0.7190	85.0690
 0.7180	85.0487
 0.7170	85.0651
 0.7160	85.0523
 0.7150	85.0418
 0.7140	85.0328
 0.7130	85.0320
 0.7120	85.0089
 0.7110	85.0194
 0.7100	85.0006
 0.7090	85.0062
 0.7080	84.9718
 0.7070	84.9767
 0.7060	84.9735
 0.7050	84.9693
 0.7040	84.9721
 0.7030	84.9709
 0.7020	84.9385
 0.7010	84.9229
 0.7000	84.9335
 0.6990	84.9095
 0.6980	84.9063
 0.6970	84.8923
 0.6960	84.8862
 0.6950	84.8877
 0.6940	84.8645
 0.6930	84.8526
 0.6920	84.8598
 0.6910	84.8464
 0.6900	84.8438
 0.6890	84.8274
 0.6880	84.7941
 0.6870	84.7981
 0.6860	84.7814
 0.6850	84.7705
 0.6840	84.7692
 0.6830	84.7675
 0.6820	84.7464
 0.6810	84.7110
 0.6800	84.6771
 0.6790	84.6803
 0.6780	84.6761
 0.6770	84.6581
 0.6760	84.6456
 0.6750	84.6196
 0.6740	84.6048
 0.6730	84.6103
 0.6720	84.5892
 0.6710	84.5759
 0.6700	84.5663
 0.6690	84.5499
 0.6680	84.5153
 0.6670	84.4965
 0.6660	84.4880
 0.6650	84.4769
 0.6640	84.4537
 0.6630	84.4314
 0.6620	84.4211
 0.6610	84.4067
 0.6600	84.3889
 0.6590	84.3768
 0.6580	84.3460
 0.6570	84.3104
 0.6560	84.2837
 0.6550	84.2769
 0.6540	84.2786
 0.6530	84.2688
 0.6520	84.2605
 0.6510	84.2335
 0.6500	84.2054
 0.6490	84.1897
 0.6480	84.1521
 0.6470	84.1394
 0.6460	84.1295
 0.6450	84.1007
 0.6440	84.0932
 0.6430	84.0747
 0.6420	84.0549
 0.6410	84.0389
 0.6400	84.0217
 0.6390	83.9987
 0.6380	83.9666
 0.6370	83.9514
 0.6360	83.9387
 0.6350	83.9240
 0.6340	83.9017
 0.6330	83.8671
 0.6320	83.8573
 0.6310	83.8585
 0.6300	83.8343
 0.6290	83.8140
 0.6280	83.7880
 0.6270	83.7653
 0.6260	83.7640
 0.6250	83.7504
 0.6240	83.7209
 0.6230	83.7102
 0.6220	83.6919
 0.6210	83.6562
 0.6200	83.6371
 0.6190	83.6208
 0.6180	83.5957
 0.6170	83.5808
 0.6160	83.5675
 0.6150	83.5369
 0.6140	83.5021
 0.6130	83.4852
 0.6120	83.4711
 0.6110	83.4488
 0.6100	83.4307
 0.6090	83.4005
 0.6080	83.3607
 0.6070	83.3477
 0.6060	83.3381
 0.6050	83.3119
 0.6040	83.2811
 0.6030	83.2430
 0.6020	83.2001
 0.6010	83.1742
 0.6000	83.1640
 0.5990	83.1730
 0.5980	83.1635
 0.5970	83.1331
 0.5960	83.1115
 0.5950	83.0971
 0.5940	83.0713
 0.5930	83.0450
 0.5920	83.0141
 0.5910	82.9829
 0.5900	82.9550
 0.5890	82.9205
 0.5880	82.8705
 0.5870	82.8440
 0.5860	82.8105
 0.5850	82.7744
 0.5840	82.7534
 0.5830	82.7164
 0.5820	82.6905
 0.5810	82.6462
 0.5800	82.6022
 0.5790	82.5607
 0.5780	82.5341
 0.5770	82.4975
 0.5760	82.4468
 0.5750	82.4208
 0.5740	82.3887
 0.5730	82.3373
 0.5720	82.2958
 0.5710	82.2759
 0.5700	82.2322
 0.5690	82.1816
 0.5680	82.1476
 0.5670	82.1115
 0.5660	82.0562
 0.5650	82.0192
 0.5640	81.9722
 0.5630	81.9356
 0.5620	81.8928
 0.5610	81.8469
 0.5600	81.8007
 0.5590	81.7663
 0.5580	81.7200
 0.5570	81.6881
 0.5560	81.6531
 0.5550	81.5848
 0.5540	81.5489
 0.5530	81.5237
 0.5520	81.4711
 0.5510	81.4167
 0.5500	81.3758
 0.5490	81.3506
 0.5480	81.3093
 0.5470	81.2452
 0.5460	81.2176
 0.5450	81.1805
 0.5440	81.1167
 0.5430	81.0768
 0.5420	81.0495
 0.5410	80.9865
 0.5400	80.9534
 0.5390	80.9142
 0.5380	80.8714
 0.5370	80.8039
 0.5360	80.7580
 0.5350	80.7192
 0.5340	80.6740
 0.5330	80.6291
 0.5320	80.5813
 0.5310	80.5335
 0.5300	80.4978
 0.5290	80.4367
 0.5280	80.4189
 0.5270	80.3644
 0.5260	80.2872
 0.5250	80.2525
 0.5240	80.2121
 0.5230	80.1527
 0.5220	80.0994
 0.5210	80.0619
 0.5200	79.9794
 0.5190	79.9292
 0.5180	79.9025
 0.5170	79.8590
 0.5160	79.7978
 0.5150	79.7423
 0.5140	79.6719
 0.5130	79.6229
 0.5120	79.5795
 0.5110	79.5294
 0.5100	79.4729
 0.5090	79.4047
 0.5080	79.3582
 0.5070	79.2971
 0.5060	79.2493
 0.5050	79.1773
 0.5040	79.1189
 0.5030	79.0926
 0.5020	79.0191
 0.5010	78.9765
 0.5000	78.9167
 0.4990	78.8335
 0.4980	78.7882
 0.4970	78.7527
 0.4960	78.6713
 0.4950	78.6032
 0.4940	78.5458
 0.4930	78.4652
 0.4920	78.4156
 0.4910	78.3570
 0.4900	78.3096
 0.4890	78.2204
 0.4880	78.1435
 0.4870	78.0725
 0.4860	78.0236
 0.4850	77.9287
 0.4840	77.8769
 0.4830	77.8164
 0.4820	77.7405
 0.4810	77.6875
 0.4800	77.6292
 0.4790	77.5649
 0.4780	77.4909
 0.4770	77.4131
 0.4760	77.3363
 0.4750	77.2820
 0.4740	77.2235
 0.4730	77.1518
 0.4720	77.0758
 0.4710	77.0274
 0.4700	76.9412
 0.4690	76.8918
 0.4680	76.8291
 0.4670	76.7597
 0.4660	76.6862
 0.4650	76.6239
 0.4640	76.5518
 0.4630	76.4801
 0.4620	76.4019
 0.4610	76.3096
 0.4600	76.2420
 0.4590	76.1846
 0.4580	76.0943
 0.4570	76.0378
 0.4560	75.9226
 0.4550	75.8794
 0.4540	75.8196
 0.4530	75.7383
 0.4520	75.6615
 0.4510	75.5701
 0.4500	75.5139
 0.4490	75.4221
 0.4480	75.3381
 0.4470	75.2611
 0.4460	75.1714
 0.4450	75.0945
 0.4440	74.9933
 0.4430	74.9249
 0.4420	74.8362
 0.4410	74.7572
 0.4400	74.6803
 0.4390	74.5971
 0.4380	74.5370
 0.4370	74.4536
 0.4360	74.3782
 0.4350	74.2795
 0.4340	74.2283
 0.4330	74.1348
 0.4320	74.0619
 0.4310	73.9896
 0.4300	73.8983
 0.4290	73.8265
 0.4280	73.7450
 0.4270	73.6595
 0.4260	73.6090
 0.4250	73.5579
 0.4240	73.4788
 0.4230	73.3957
 0.4220	73.3602
 0.4210	73.2924
 0.4200	73.2329
 0.4190	73.1823
 0.4180	73.1309
 0.4170	73.0408
 0.4160	72.9993
 0.4150	72.9284
 0.4140	72.8698
 0.4130	72.8143
 0.4120	72.7477
 0.4110	72.7097
 0.4100	72.6603
 0.4090	72.5898
 0.4080	72.5276
 0.4070	72.4865
 0.4060	72.4141
 0.4050	72.3765
 0.4040	72.3348
 0.4030	72.2575
 0.4020	72.2222
 0.4010	72.1471
 0.4000	72.0877
