Name: Dolomite CaMg(CO_3)_2
Type: Mineral
Class: Carbonate
Subclass: None
Particle Size: Medium
Sample No.: C-5C
Owner: JPL
Wavelength Range: VSWIR
Origin: USA, California, Los Angeles County, Palos Verdes.
Collection Date: N/A
Description: Particle size was 45-125um.Collected by:  Burminco Original ASTER Spectral Library name was jpl.perkin.mineral.carbonate.none.medium.c05c.spectrum.txt
Measurement: Hemispherical reflectance
First Column: X
Second Column: Y
X Units: Wavelength (micrometers)
Y Units:Reflectance (percent)
First X Value:  2.5000
Last X Value:  0.4000
Number of X Values: 2101
Additional Information: mineral.carbonate.none.medium.vswir.c-5c.jpl.perkin.ancillary.txt

 2.5000	44.6301
 2.4990	44.8334
 2.4980	44.9927
 2.4970	45.2793
 2.4960	45.1833
 2.4950	45.8566
 2.4940	45.9526
 2.4930	46.1403
 2.4920	46.4169
 2.4910	46.8235
 2.4900	47.0782
 2.4890	47.4077
 2.4880	47.6355
 2.4870	48.0542
 2.4860	48.3117
 2.4850	48.5563
 2.4840	48.7733
 2.4830	49.1858
 2.4820	49.3636
 2.4810	49.5395
 2.4800	49.8752
 2.4790	50.1306
 2.4780	50.3226
 2.4770	50.5092
 2.4760	50.5787
 2.4750	50.8334
 2.4740	51.0807
 2.4730	51.1805
 2.4720	51.2095
 2.4710	51.5295
 2.4700	51.6157
 2.4690	51.8720
 2.4680	52.0402
 2.4670	52.1345
 2.4660	52.2522
 2.4650	52.3732
 2.4640	52.5667
 2.4630	52.6295
 2.4620	52.8268
 2.4610	52.9342
 2.4600	53.1599
 2.4590	53.3135
 2.4580	53.5297
 2.4570	53.8190
 2.4560	53.9349
 2.4550	54.0966
 2.4540	54.3834
 2.4530	54.6997
 2.4520	55.0700
 2.4510	55.3391
 2.4500	55.7343
 2.4490	56.0335
 2.4480	56.3304
 2.4470	56.7092
 2.4460	57.1740
 2.4450	57.4538
 2.4440	57.8934
 2.4430	58.3092
 2.4420	58.6679
 2.4410	59.1007
 2.4400	59.5605
 2.4390	59.9542
 2.4380	60.3154
 2.4370	60.8131
 2.4360	61.1730
 2.4350	61.7140
 2.4340	61.9816
 2.4330	62.4926
 2.4320	62.8638
 2.4310	63.3668
 2.4300	63.7425
 2.4290	64.1634
 2.4280	64.5837
 2.4270	64.9689
 2.4260	65.3002
 2.4250	65.6921
 2.4240	66.1571
 2.4230	66.5176
 2.4220	66.8966
 2.4210	67.1721
 2.4200	67.5377
 2.4190	67.9374
 2.4180	68.2213
 2.4170	68.5137
 2.4160	68.9615
 2.4150	69.2343
 2.4140	69.4963
 2.4130	69.7669
 2.4120	70.0640
 2.4110	70.2970
 2.4100	70.5117
 2.4090	70.7389
 2.4080	70.9506
 2.4070	71.1211
 2.4060	71.3405
 2.4050	71.6162
 2.4040	71.7973
 2.4030	71.9108
 2.4020	72.0626
 2.4010	72.2857
 2.4000	72.4820
 2.3990	72.6370
 2.3980	72.7687
 2.3970	73.0011
 2.3960	73.0949
 2.3950	73.2636
 2.3940	73.4190
 2.3930	73.6001
 2.3920	73.7948
 2.3910	73.9655
 2.3900	74.0636
 2.3890	74.2179
 2.3880	74.4293
 2.3870	74.6023
 2.3860	74.7823
 2.3850	74.9049
 2.3840	75.0638
 2.3830	75.2080
 2.3820	75.3306
 2.3810	75.4533
 2.3800	75.6047
 2.3790	75.7461
 2.3780	75.8682
 2.3770	75.9610
 2.3760	76.1848
 2.3750	76.3178
 2.3740	76.3837
 2.3730	76.5813
 2.3720	76.6857
 2.3710	76.6619
 2.3700	76.6547
 2.3690	76.6801
 2.3680	76.7331
 2.3670	76.8340
 2.3660	76.8117
 2.3650	76.7957
 2.3640	76.7550
 2.3630	76.6036
 2.3620	76.4307
 2.3610	76.2943
 2.3600	76.1553
 2.3590	75.9228
 2.3580	75.7066
 2.3570	75.4258
 2.3560	75.0410
 2.3550	74.6755
 2.3540	74.2995
 2.3530	73.8487
 2.3520	73.3876
 2.3510	72.8447
 2.3500	72.3206
 2.3490	71.7738
 2.3480	71.1763
 2.3470	70.5469
 2.3460	69.8574
 2.3450	69.1020
 2.3440	68.3632
 2.3430	67.6770
 2.3420	66.9872
 2.3410	66.2866
 2.3400	65.5500
 2.3390	64.7848
 2.3380	64.1140
 2.3370	63.3943
 2.3360	62.7001
 2.3350	62.0801
 2.3340	61.4324
 2.3330	60.8223
 2.3320	60.3032
 2.3310	59.7496
 2.3300	59.2729
 2.3290	58.8355
 2.3280	58.4201
 2.3270	58.0260
 2.3260	57.7045
 2.3250	57.3866
 2.3240	57.1302
 2.3230	56.9213
 2.3220	56.7671
 2.3210	56.5833
 2.3200	56.4894
 2.3190	56.3919
 2.3180	56.3842
 2.3170	56.3688
 2.3160	56.3530
 2.3150	56.4155
 2.3140	56.5008
 2.3130	56.5982
 2.3120	56.6899
 2.3110	56.7630
 2.3100	56.9153
 2.3090	57.0831
 2.3080	57.1892
 2.3070	57.3761
 2.3060	57.5533
 2.3050	57.6985
 2.3040	57.8244
 2.3030	58.0650
 2.3020	58.2557
 2.3010	58.4335
 2.3000	58.6460
 2.2990	58.8492
 2.2980	59.0662
 2.2970	59.1834
 2.2960	59.3854
 2.2950	59.6433
 2.2940	59.7479
 2.2930	59.9511
 2.2920	60.1772
 2.2910	60.3516
 2.2900	60.5977
 2.2890	60.7345
 2.2880	60.8595
 2.2870	60.9963
 2.2860	61.1891
 2.2850	61.4219
 2.2840	61.5209
 2.2830	61.6123
 2.2820	61.7837
 2.2810	61.9259
 2.2800	62.0485
 2.2790	62.2234
 2.2780	62.2774
 2.2770	62.3873
 2.2760	62.5348
 2.2750	62.7035
 2.2740	62.7778
 2.2730	62.8655
 2.2720	63.0355
 2.2710	63.1042
 2.2700	63.3307
 2.2690	63.4840
 2.2680	63.6647
 2.2670	63.8803
 2.2660	64.0069
 2.2650	64.2976
 2.2640	64.5537
 2.2630	64.7650
 2.2620	65.0379
 2.2610	65.3306
 2.2600	65.6544
 2.2590	65.9731
 2.2580	66.2848
 2.2570	66.6014
 2.2560	66.9762
 2.2550	67.4114
 2.2540	67.6982
 2.2530	68.0159
 2.2520	68.4046
 2.2510	68.7479
 2.2500	69.1169
 2.2490	69.5314
 2.2480	69.8720
 2.2470	70.1891
 2.2460	70.5230
 2.2450	70.9132
 2.2440	71.2984
 2.2430	71.5580
 2.2420	71.8894
 2.2410	72.1013
 2.2400	72.4961
 2.2390	72.7430
 2.2380	73.0707
 2.2370	73.2817
 2.2360	73.6242
 2.2350	73.8239
 2.2340	74.1545
 2.2330	74.2754
 2.2320	74.6063
 2.2310	74.7457
 2.2300	74.9595
 2.2290	75.1766
 2.2280	75.3311
 2.2270	75.5531
 2.2260	75.6903
 2.2250	75.9615
 2.2240	76.1021
 2.2230	76.2575
 2.2220	76.4589
 2.2210	76.5487
 2.2200	76.7533
 2.2190	76.9856
 2.2180	77.1642
 2.2170	77.2784
 2.2160	77.5119
 2.2150	77.6277
 2.2140	77.8237
 2.2130	77.9729
 2.2120	78.2140
 2.2110	78.3353
 2.2100	78.6372
 2.2090	78.7379
 2.2080	78.9876
 2.2070	79.0941
 2.2060	79.3199
 2.2050	79.4565
 2.2040	79.6786
 2.2030	79.9059
 2.2020	80.0724
 2.2010	80.1971
 2.2000	80.3703
 2.1990	80.4862
 2.1980	80.7347
 2.1970	80.8747
 2.1960	81.0221
 2.1950	81.2359
 2.1940	81.2333
 2.1930	81.3873
 2.1920	81.6121
 2.1910	81.6632
 2.1900	81.8606
 2.1890	81.9461
 2.1880	82.0849
 2.1870	82.1715
 2.1860	82.2130
 2.1850	82.4053
 2.1840	82.5211
 2.1830	82.5993
 2.1820	82.6805
 2.1810	82.7480
 2.1800	82.7753
 2.1790	82.8873
 2.1780	82.9264
 2.1770	83.1119
 2.1760	83.0274
 2.1750	83.0718
 2.1740	83.1147
 2.1730	83.2583
 2.1720	83.2866
 2.1710	83.3108
 2.1700	83.3688
 2.1690	83.3762
 2.1680	83.3320
 2.1670	83.3534
 2.1660	83.3400
 2.1650	83.3845
 2.1640	83.4411
 2.1630	83.4442
 2.1620	83.4011
 2.1610	83.3945
 2.1600	83.3653
 2.1590	83.3546
 2.1580	83.2802
 2.1570	83.2942
 2.1560	83.1903
 2.1550	83.1546
 2.1540	83.0515
 2.1530	83.0776
 2.1520	83.0782
 2.1510	82.9440
 2.1500	82.8608
 2.1490	82.7789
 2.1480	82.6367
 2.1470	82.6581
 2.1460	82.5437
 2.1450	82.4954
 2.1440	82.4900
 2.1430	82.4008
 2.1420	82.4453
 2.1410	82.3811
 2.1400	82.3424
 2.1390	82.4274
 2.1380	82.4503
 2.1370	82.4317
 2.1360	82.4180
 2.1350	82.3970
 2.1340	82.4658
 2.1330	82.4981
 2.1320	82.5341
 2.1310	82.5725
 2.1300	82.5965
 2.1290	82.6700
 2.1280	82.7070
 2.1270	82.8083
 2.1260	82.8709
 2.1250	82.9331
 2.1240	82.9751
 2.1230	82.9975
 2.1220	83.1142
 2.1210	83.1424
 2.1200	83.2122
 2.1190	83.3159
 2.1180	83.3803
 2.1170	83.3761
 2.1160	83.4151
 2.1150	83.5103
 2.1140	83.5297
 2.1130	83.5305
 2.1120	83.5351
 2.1110	83.5448
 2.1100	83.5544
 2.1090	83.5420
 2.1080	83.5968
 2.1070	83.6469
 2.1060	83.6469
 2.1050	83.6815
 2.1040	83.7199
 2.1030	83.6795
 2.1020	83.7069
 2.1010	83.7176
 2.1000	83.7208
 2.0990	83.7685
 2.0980	83.7910
 2.0970	83.8022
 2.0960	83.8633
 2.0950	83.8880
 2.0940	83.9689
 2.0930	84.0251
 2.0920	84.0196
 2.0910	84.0842
 2.0900	84.1516
 2.0890	84.1780
 2.0880	84.2404
 2.0870	84.3265
 2.0860	84.3928
 2.0850	84.4424
 2.0840	84.4842
 2.0830	84.5656
 2.0820	84.5988
 2.0810	84.6126
 2.0800	84.6692
 2.0790	84.7335
 2.0780	84.7706
 2.0770	84.7807
 2.0760	84.7961
 2.0750	84.8544
 2.0740	84.9458
 2.0730	85.0253
 2.0720	85.0738
 2.0710	85.1156
 2.0700	85.1901
 2.0690	85.2138
 2.0680	85.2209
 2.0670	85.2626
 2.0660	85.2975
 2.0650	85.3207
 2.0640	85.3505
 2.0630	85.4071
 2.0620	85.4565
 2.0610	85.4777
 2.0600	85.5259
 2.0590	85.6060
 2.0580	85.6177
 2.0570	85.5893
 2.0560	85.6348
 2.0550	85.6541
 2.0540	85.6739
 2.0530	85.7099
 2.0520	85.7199
 2.0510	85.7318
 2.0500	85.7578
 2.0490	85.7883
 2.0480	85.8411
 2.0470	85.8174
 2.0460	85.8379
 2.0450	85.7873
 2.0440	85.7838
 2.0430	85.8622
 2.0420	85.8286
 2.0410	85.8636
 2.0400	85.8479
 2.0390	85.8376
 2.0380	85.8769
 2.0370	85.8233
 2.0360	85.7813
 2.0350	85.8120
 2.0340	85.8899
 2.0330	85.8534
 2.0320	85.8660
 2.0310	85.8536
 2.0300	85.8575
 2.0290	85.8470
 2.0280	85.7926
 2.0270	85.8022
 2.0260	85.7712
 2.0250	85.6831
 2.0240	85.6709
 2.0230	85.7433
 2.0220	85.6950
 2.0210	85.6622
 2.0200	85.6184
 2.0190	85.6123
 2.0180	85.6242
 2.0170	85.5320
 2.0160	85.4620
 2.0150	85.4543
 2.0140	85.4830
 2.0130	85.3915
 2.0120	85.4107
 2.0110	85.3763
 2.0100	85.2536
 2.0090	85.1751
 2.0080	85.1801
 2.0070	85.1166
 2.0060	85.0102
 2.0050	84.9205
 2.0040	84.8140
 2.0030	84.7349
 2.0020	84.5885
 2.0010	84.4708
 2.0000	84.3769
 1.9990	84.2190
 1.9980	84.0412
 1.9970	83.8856
 1.9960	83.7198
 1.9950	83.6586
 1.9940	83.4018
 1.9930	83.2248
 1.9920	83.0893
 1.9910	82.8986
 1.9900	82.6972
 1.9890	82.4619
 1.9880	82.3328
 1.9870	82.2210
 1.9860	82.1538
 1.9850	82.0799
 1.9840	81.9259
 1.9830	81.9269
 1.9820	81.9056
 1.9810	81.8100
 1.9800	81.8066
 1.9790	81.8335
 1.9780	81.9095
 1.9770	81.9782
 1.9760	81.9031
 1.9750	82.0450
 1.9740	82.0541
 1.9730	82.1561
 1.9720	82.3090
 1.9710	82.3684
 1.9700	82.4101
 1.9690	82.4713
 1.9680	82.5646
 1.9670	82.6447
 1.9660	82.7670
 1.9650	82.8367
 1.9640	82.8945
 1.9630	82.9713
 1.9620	83.0455
 1.9610	83.1040
 1.9600	83.2491
 1.9590	83.2775
 1.9580	83.3481
 1.9570	83.4335
 1.9560	83.5157
 1.9550	83.5194
 1.9540	83.6065
 1.9530	83.6782
 1.9520	83.6758
 1.9510	83.7175
 1.9500	83.7490
 1.9490	83.7908
 1.9480	83.7908
 1.9470	83.8594
 1.9460	83.8504
 1.9450	83.9343
 1.9440	83.9484
 1.9430	83.9560
 1.9420	84.0565
 1.9410	84.0698
 1.9400	84.1149
 1.9390	84.2959
 1.9380	84.2942
 1.9370	84.4451
 1.9360	84.4071
 1.9350	84.5286
 1.9340	84.6356
 1.9330	84.6965
 1.9320	84.8278
 1.9310	84.8331
 1.9300	85.0175
 1.9290	85.1292
 1.9280	85.1239
 1.9270	85.2465
 1.9260	85.2890
 1.9250	85.4681
 1.9240	85.4684
 1.9230	85.6154
 1.9220	85.6821
 1.9210	85.8107
 1.9200	85.8457
 1.9190	85.9160
 1.9180	86.0345
 1.9170	86.0689
 1.9160	86.2250
 1.9150	86.2621
 1.9140	86.4624
 1.9130	86.4554
 1.9120	86.5418
 1.9110	86.5695
 1.9100	86.6760
 1.9090	86.7857
 1.9080	86.8672
 1.9070	86.9428
 1.9060	87.0292
 1.9050	87.1264
 1.9040	87.1047
 1.9030	87.2182
 1.9020	87.3644
 1.9010	87.3875
 1.9000	87.4745
 1.8990	87.3865
 1.8980	87.6465
 1.8970	87.6826
 1.8960	87.7726
 1.8950	87.7989
 1.8940	87.7543
 1.8930	87.9113
 1.8920	87.9495
 1.8910	88.0035
 1.8900	88.0014
 1.8890	88.0602
 1.8880	88.1019
 1.8870	88.1879
 1.8860	88.1601
 1.8850	88.0440
 1.8840	88.1252
 1.8830	88.0358
 1.8820	88.0831
 1.8810	88.0481
 1.8800	87.9456
 1.8790	87.8661
 1.8780	87.7749
 1.8770	87.6582
 1.8760	87.4386
 1.8750	87.2980
 1.8740	87.1050
 1.8730	86.8558
 1.8720	86.6168
 1.8710	86.3247
 1.8700	86.0369
 1.8690	85.7687
 1.8680	85.4431
 1.8670	85.2297
 1.8660	85.0410
 1.8650	84.9320
 1.8640	84.7500
 1.8630	84.6874
 1.8620	84.6433
 1.8610	84.6407
 1.8600	84.6418
 1.8590	84.6411
 1.8580	84.7593
 1.8570	84.9016
 1.8560	84.9852
 1.8550	85.0452
 1.8540	85.1175
 1.8530	85.2953
 1.8520	85.4599
 1.8510	85.5734
 1.8500	85.6747
 1.8490	85.8157
 1.8480	85.9384
 1.8470	86.0682
 1.8460	86.1965
 1.8450	86.3179
 1.8440	86.4567
 1.8430	86.5505
 1.8420	86.5999
 1.8410	86.7361
 1.8400	86.8206
 1.8390	86.9497
 1.8380	87.0626
 1.8370	87.1324
 1.8360	87.2174
 1.8350	87.2896
 1.8340	87.3464
 1.8330	87.3799
 1.8320	87.4379
 1.8310	87.5380
 1.8300	87.5974
 1.8290	87.6537
 1.8280	87.6514
 1.8270	87.6435
 1.8260	87.7394
 1.8250	87.8350
 1.8240	87.8680
 1.8230	87.9191
 1.8220	87.9915
 1.8210	88.0664
 1.8200	88.0522
 1.8190	88.1560
 1.8180	88.2954
 1.8170	88.3652
 1.8160	88.4197
 1.8150	88.4369
 1.8140	88.5236
 1.8130	88.6264
 1.8120	88.6919
 1.8110	88.7715
 1.8100	88.7743
 1.8090	88.8274
 1.8080	88.9102
 1.8070	89.0226
 1.8060	89.1090
 1.8050	89.1151
 1.8040	89.1594
 1.8030	89.2160
 1.8020	89.3198
 1.8010	89.4078
 1.8000	89.5012
 1.7990	89.5774
 1.7980	89.5301
 1.7970	89.5099
 1.7960	89.5804
 1.7950	89.6303
 1.7940	89.6338
 1.7930	89.6589
 1.7920	89.6871
 1.7910	89.7074
 1.7900	89.7649
 1.7890	89.7921
 1.7880	89.8445
 1.7870	89.8547
 1.7860	89.8527
 1.7850	89.8941
 1.7840	89.9561
 1.7830	89.9193
 1.7820	89.9092
 1.7810	89.9557
 1.7800	89.9452
 1.7790	90.0074
 1.7780	90.0407
 1.7770	90.0106
 1.7760	90.0461
 1.7750	90.1078
 1.7740	90.1384
 1.7730	90.1013
 1.7720	90.1234
 1.7710	90.2349
 1.7700	90.1748
 1.7690	90.1227
 1.7680	90.1698
 1.7670	90.1182
 1.7660	90.1311
 1.7650	90.1769
 1.7640	90.1426
 1.7630	90.1514
 1.7620	90.1941
 1.7610	90.1725
 1.7600	90.1042
 1.7590	90.0429
 1.7580	90.0133
 1.7570	89.9770
 1.7560	89.9761
 1.7550	89.9378
 1.7540	89.9024
 1.7530	89.8478
 1.7520	89.7758
 1.7510	89.8105
 1.7500	89.8175
 1.7490	89.7590
 1.7480	89.7060
 1.7470	89.6446
 1.7460	89.5985
 1.7450	89.5224
 1.7440	89.5602
 1.7430	89.5872
 1.7420	89.5510
 1.7410	89.5556
 1.7400	89.6123
 1.7390	89.6368
 1.7380	89.5844
 1.7370	89.5949
 1.7360	89.6254
 1.7350	89.6851
 1.7340	89.7005
 1.7330	89.6753
 1.7320	89.6121
 1.7310	89.6699
 1.7300	89.6899
 1.7290	89.6828
 1.7280	89.6862
 1.7270	89.7448
 1.7260	89.7604
 1.7250	89.7487
 1.7240	89.7336
 1.7230	89.8282
 1.7220	89.7386
 1.7210	89.6751
 1.7200	89.7813
 1.7190	89.7871
 1.7180	89.8017
 1.7170	89.7967
 1.7160	89.7926
 1.7150	89.8325
 1.7140	89.8436
 1.7130	89.8437
 1.7120	89.8921
 1.7110	89.8752
 1.7100	89.8707
 1.7090	89.8782
 1.7080	89.8994
 1.7070	89.9505
 1.7060	89.8744
 1.7050	89.8879
 1.7040	89.9074
 1.7030	89.9170
 1.7020	89.9321
 1.7010	90.0167
 1.7000	90.0274
 1.6990	89.9823
 1.6980	90.0221
 1.6970	90.0849
 1.6960	90.0950
 1.6950	90.1218
 1.6940	90.1892
 1.6930	90.2073
 1.6920	90.2801
 1.6910	90.2319
 1.6900	90.2439
 1.6890	90.2002
 1.6880	90.2894
 1.6870	90.2789
 1.6860	90.3015
 1.6850	90.3257
 1.6840	90.3298
 1.6830	90.3647
 1.6820	90.4253
 1.6810	90.4554
 1.6800	90.3678
 1.6790	90.3730
 1.6780	90.4701
 1.6770	90.4153
 1.6760	90.4947
 1.6750	90.5348
 1.6740	90.5455
 1.6730	90.5566
 1.6720	90.5924
 1.6710	90.6088
 1.6700	90.6327
 1.6690	90.6241
 1.6680	90.6153
 1.6670	90.6176
 1.6660	90.6937
 1.6650	90.6619
 1.6640	90.7298
 1.6630	90.7071
 1.6620	90.7701
 1.6610	90.7453
 1.6600	90.7861
 1.6590	90.6185
 1.6580	90.7250
 1.6570	90.6806
 1.6560	90.7292
 1.6550	90.7477
 1.6540	90.8243
 1.6530	90.7428
 1.6520	90.7702
 1.6510	90.7465
 1.6500	90.7382
 1.6490	90.7594
 1.6480	90.6924
 1.6470	90.7870
 1.6460	90.6810
 1.6450	90.7509
 1.6440	90.7206
 1.6430	90.7689
 1.6420	90.7422
 1.6410	90.7393
 1.6400	90.6871
 1.6390	90.7163
 1.6380	90.7285
 1.6370	90.6957
 1.6360	90.7468
 1.6350	90.7610
 1.6340	90.7787
 1.6330	90.7955
 1.6320	90.7690
 1.6310	90.7817
 1.6300	90.7879
 1.6290	90.8119
 1.6280	90.7667
 1.6270	90.8303
 1.6260	90.8838
 1.6250	90.8472
 1.6240	90.8232
 1.6230	90.8125
 1.6220	90.9390
 1.6210	91.0138
 1.6200	90.9785
 1.6190	90.9055
 1.6180	90.9557
 1.6170	90.9437
 1.6160	90.9454
 1.6150	90.9250
 1.6140	90.9572
 1.6130	90.9183
 1.6120	90.9358
 1.6110	91.0713
 1.6100	91.0737
 1.6090	91.0188
 1.6080	90.9782
 1.6070	91.0089
 1.6060	90.9851
 1.6050	90.9911
 1.6040	91.0611
 1.6030	91.0143
 1.6020	91.0436
 1.6010	91.0445
 1.6000	91.0254
 1.5990	91.0835
 1.5980	91.0953
 1.5970	90.9826
 1.5960	90.9185
 1.5950	91.0088
 1.5940	91.0947
 1.5930	91.0102
 1.5920	91.0289
 1.5910	91.1119
 1.5900	90.9624
 1.5890	91.0372
 1.5880	90.9773
 1.5870	91.1441
 1.5860	91.0846
 1.5850	91.1269
 1.5840	91.0867
 1.5830	91.0389
 1.5820	91.0167
 1.5810	91.0332
 1.5800	91.0553
 1.5790	91.0300
 1.5780	91.0350
 1.5770	91.0546
 1.5760	91.0141
 1.5750	91.0512
 1.5740	91.0684
 1.5730	91.0429
 1.5720	90.9512
 1.5710	90.9531
 1.5700	91.0075
 1.5690	90.9619
 1.5680	91.0110
 1.5670	90.9154
 1.5660	90.9335
 1.5650	90.9502
 1.5640	90.9273
 1.5630	90.8760
 1.5620	90.9147
 1.5610	90.8398
 1.5600	90.8049
 1.5590	90.8176
 1.5580	90.8138
 1.5570	90.7622
 1.5560	90.7872
 1.5550	90.7544
 1.5540	90.8240
 1.5530	90.7909
 1.5520	90.7177
 1.5510	90.7977
 1.5500	90.8180
 1.5490	90.7730
 1.5480	90.8035
 1.5470	90.8054
 1.5460	90.7944
 1.5450	90.7992
 1.5440	90.8121
 1.5430	90.8668
 1.5420	90.9127
 1.5410	90.8603
 1.5400	90.8225
 1.5390	90.8088
 1.5380	90.8281
 1.5370	90.8591
 1.5360	90.8163
 1.5350	90.8245
 1.5340	90.8860
 1.5330	90.8298
 1.5320	90.8376
 1.5310	90.8387
 1.5300	90.8528
 1.5290	90.8187
 1.5280	90.8169
 1.5270	90.8141
 1.5260	90.7926
 1.5250	90.8027
 1.5240	90.8401
 1.5230	90.7791
 1.5220	90.8322
 1.5210	90.8613
 1.5200	90.8390
 1.5190	90.8085
 1.5180	90.8101
 1.5170	90.7979
 1.5160	90.7707
 1.5150	90.8135
 1.5140	90.8384
 1.5130	90.8134
 1.5120	90.8156
 1.5110	90.8323
 1.5100	90.8169
 1.5090	90.8025
 1.5080	90.7965
 1.5070	90.7760
 1.5060	90.7925
 1.5050	90.8048
 1.5040	90.7894
 1.5030	90.8009
 1.5020	90.8278
 1.5010	90.8372
 1.5000	90.7955
 1.4990	90.8225
 1.4980	90.8296
 1.4970	90.7759
 1.4960	90.7596
 1.4950	90.7973
 1.4940	90.8360
 1.4930	90.8195
 1.4920	90.7823
 1.4910	90.7210
 1.4900	90.7095
 1.4890	90.7497
 1.4880	90.6974
 1.4870	90.6801
 1.4860	90.7273
 1.4850	90.7371
 1.4840	90.7456
 1.4830	90.7144
 1.4820	90.7567
 1.4810	90.7675
 1.4800	90.7199
 1.4790	90.7115
 1.4780	90.7385
 1.4770	90.7699
 1.4760	90.7235
 1.4750	90.7351
 1.4740	90.7465
 1.4730	90.7154
 1.4720	90.6775
 1.4710	90.6814
 1.4700	90.6946
 1.4690	90.7587
 1.4680	90.7780
 1.4670	90.6912
 1.4660	90.6913
 1.4650	90.6958
 1.4640	90.6950
 1.4630	90.6845
 1.4620	90.6952
 1.4610	90.7221
 1.4600	90.6799
 1.4590	90.6937
 1.4580	90.6872
 1.4570	90.7465
 1.4560	90.7198
 1.4550	90.7147
 1.4540	90.7512
 1.4530	90.7853
 1.4520	90.7683
 1.4510	90.7133
 1.4500	90.7781
 1.4490	90.7776
 1.4480	90.7583
 1.4470	90.7783
 1.4460	90.7872
 1.4450	90.7578
 1.4440	90.7035
 1.4430	90.7031
 1.4420	90.7566
 1.4410	90.8153
 1.4400	90.8490
 1.4390	90.7903
 1.4380	90.7519
 1.4370	90.7989
 1.4360	90.8814
 1.4350	90.8055
 1.4340	90.8081
 1.4330	90.8375
 1.4320	90.8699
 1.4310	90.8463
 1.4300	90.8350
 1.4290	90.9345
 1.4280	90.8572
 1.4270	90.9105
 1.4260	90.9277
 1.4250	90.8787
 1.4240	90.9221
 1.4230	90.9008
 1.4220	90.9148
 1.4210	90.9674
 1.4200	91.0190
 1.4190	91.0283
 1.4180	91.0120
 1.4170	90.9989
 1.4160	91.0007
 1.4150	91.1124
 1.4140	91.0972
 1.4130	91.0126
 1.4120	91.0967
 1.4110	91.0660
 1.4100	91.1100
 1.4090	91.0884
 1.4080	91.0698
 1.4070	91.1016
 1.4060	91.1489
 1.4050	91.2405
 1.4040	91.2126
 1.4030	91.2023
 1.4020	91.2473
 1.4010	91.1873
 1.4000	91.2852
 1.3990	91.2589
 1.3980	91.2840
 1.3970	91.4017
 1.3960	91.3446
 1.3950	91.3491
 1.3940	91.3302
 1.3930	91.3741
 1.3920	91.4653
 1.3910	91.4473
 1.3900	91.3640
 1.3890	91.4296
 1.3880	91.4388
 1.3870	91.4142
 1.3860	91.5471
 1.3850	91.5953
 1.3840	91.5336
 1.3830	91.5029
 1.3820	91.5297
 1.3810	91.4257
 1.3800	91.5888
 1.3790	91.5295
 1.3780	91.5581
 1.3770	91.5315
 1.3760	91.5385
 1.3750	91.4587
 1.3740	91.4574
 1.3730	91.5752
 1.3720	91.5889
 1.3710	91.5519
 1.3700	91.5793
 1.3690	91.5686
 1.3680	91.5205
 1.3670	91.5662
 1.3660	91.6320
 1.3650	91.5034
 1.3640	91.4834
 1.3630	91.7005
 1.3620	91.5347
 1.3610	91.5906
 1.3600	91.5487
 1.3590	91.5414
 1.3580	91.5460
 1.3570	91.5086
 1.3560	91.5657
 1.3550	91.5792
 1.3540	91.5567
 1.3530	91.5416
 1.3520	91.5886
 1.3510	91.5690
 1.3500	91.5000
 1.3490	91.4596
 1.3480	91.5404
 1.3470	91.5220
 1.3460	91.5075
 1.3450	91.4749
 1.3440	91.5719
 1.3430	91.5108
 1.3420	91.5930
 1.3410	91.5275
 1.3400	91.5900
 1.3390	91.5072
 1.3380	91.4980
 1.3370	91.4613
 1.3360	91.5114
 1.3350	91.5853
 1.3340	91.4884
 1.3330	91.5500
 1.3320	91.5941
 1.3310	91.4700
 1.3300	91.5860
 1.3290	91.4986
 1.3280	91.5519
 1.3270	91.4954
 1.3260	91.5010
 1.3250	91.5203
 1.3240	91.4924
 1.3230	91.4198
 1.3220	91.5895
 1.3210	91.4899
 1.3200	91.5607
 1.3190	91.4883
 1.3180	91.5767
 1.3170	91.6330
 1.3160	91.4907
 1.3150	91.4829
 1.3140	91.5251
 1.3130	91.4967
 1.3120	91.4711
 1.3110	91.5597
 1.3100	91.5426
 1.3090	91.5772
 1.3080	91.5788
 1.3070	91.5217
 1.3060	91.4903
 1.3050	91.5630
 1.3040	91.5575
 1.3030	91.4814
 1.3020	91.5253
 1.3010	91.5096
 1.3000	91.4436
 1.2990	91.5026
 1.2980	91.5003
 1.2970	91.5201
 1.2960	91.5587
 1.2950	91.4750
 1.2940	91.4792
 1.2930	91.4937
 1.2920	91.4647
 1.2910	91.6014
 1.2900	91.4688
 1.2890	91.4715
 1.2880	91.5022
 1.2870	91.5489
 1.2860	91.6022
 1.2850	91.5275
 1.2840	91.5374
 1.2830	91.5483
 1.2820	91.4815
 1.2810	91.5571
 1.2800	91.5644
 1.2790	91.5325
 1.2780	91.5359
 1.2770	91.4834
 1.2760	91.5415
 1.2750	91.5704
 1.2740	91.5564
 1.2730	91.5339
 1.2720	91.4522
 1.2710	91.4680
 1.2700	91.4782
 1.2690	91.5145
 1.2680	91.5833
 1.2670	91.5038
 1.2660	91.4916
 1.2650	91.5298
 1.2640	91.4766
 1.2630	91.5192
 1.2620	91.5174
 1.2610	91.4690
 1.2600	91.4915
 1.2590	91.5273
 1.2580	91.5128
 1.2570	91.5082
 1.2560	91.4815
 1.2550	91.4440
 1.2540	91.4483
 1.2530	91.5056
 1.2520	91.5067
 1.2510	91.4832
 1.2500	91.5004
 1.2490	91.5135
 1.2480	91.4768
 1.2470	91.5149
 1.2460	91.4936
 1.2450	91.4455
 1.2440	91.4843
 1.2430	91.4968
 1.2420	91.4889
 1.2410	91.5101
 1.2400	91.4578
 1.2390	91.4593
 1.2380	91.4613
 1.2370	91.4406
 1.2360	91.4335
 1.2350	91.4565
 1.2340	91.4345
 1.2330	91.4148
 1.2320	91.3933
 1.2310	91.4608
 1.2300	91.4158
 1.2290	91.3607
 1.2280	91.4540
 1.2270	91.4566
 1.2260	91.4211
 1.2250	91.3878
 1.2240	91.3978
 1.2230	91.4106
 1.2220	91.3977
 1.2210	91.3988
 1.2200	91.4501
 1.2190	91.4804
 1.2180	91.4688
 1.2170	91.4494
 1.2160	91.4014
 1.2150	91.3996
 1.2140	91.4037
 1.2130	91.3875
 1.2120	91.4218
 1.2110	91.4372
 1.2100	91.3706
 1.2090	91.3939
 1.2080	91.4365
 1.2070	91.3826
 1.2060	91.3971
 1.2050	91.4123
 1.2040	91.3987
 1.2030	91.4220
 1.2020	91.3970
 1.2010	91.3819
 1.2000	91.3737
 1.1990	91.3606
 1.1980	91.3439
 1.1970	91.3078
 1.1960	91.3529
 1.1950	91.3974
 1.1940	91.3726
 1.1930	91.3571
 1.1920	91.4014
 1.1910	91.4480
 1.1900	91.3791
 1.1890	91.3604
 1.1880	91.3456
 1.1870	91.3384
 1.1860	91.3915
 1.1850	91.4214
 1.1840	91.3990
 1.1830	91.3692
 1.1820	91.3430
 1.1810	91.3904
 1.1800	91.3695
 1.1790	91.3773
 1.1780	91.4036
 1.1770	91.4116
 1.1760	91.3530
 1.1750	91.3287
 1.1740	91.4096
 1.1730	91.3819
 1.1720	91.3648
 1.1710	91.3894
 1.1700	91.4102
 1.1690	91.3940
 1.1680	91.3974
 1.1670	91.3876
 1.1660	91.3482
 1.1650	91.3328
 1.1640	91.3707
 1.1630	91.4165
 1.1620	91.4373
 1.1610	91.4008
 1.1600	91.3374
 1.1590	91.3812
 1.1580	91.3532
 1.1570	91.3179
 1.1560	91.2994
 1.1550	91.3540
 1.1540	91.3736
 1.1530	91.3779
 1.1520	91.4048
 1.1510	91.3779
 1.1500	91.3394
 1.1490	91.3616
 1.1480	91.3246
 1.1470	91.3866
 1.1460	91.3872
 1.1450	91.3680
 1.1440	91.3825
 1.1430	91.3799
 1.1420	91.2828
 1.1410	91.3462
 1.1400	91.3625
 1.1390	91.3453
 1.1380	91.3598
 1.1370	91.3289
 1.1360	91.3353
 1.1350	91.3515
 1.1340	91.3659
 1.1330	91.4228
 1.1320	91.3821
 1.1310	91.4223
 1.1300	91.4421
 1.1290	91.4160
 1.1280	91.3748
 1.1270	91.3421
 1.1260	91.3361
 1.1250	91.3027
 1.1240	91.3987
 1.1230	91.3861
 1.1220	91.3992
 1.1210	91.3519
 1.1200	91.3152
 1.1190	91.2999
 1.1180	91.2302
 1.1170	91.3312
 1.1160	91.3475
 1.1150	91.3205
 1.1140	91.2851
 1.1130	91.2944
 1.1120	91.2899
 1.1110	91.2951
 1.1100	91.2765
 1.1090	91.3320
 1.1080	91.2752
 1.1070	91.3581
 1.1060	91.3330
 1.1050	91.3703
 1.1040	91.2719
 1.1030	91.3201
 1.1020	91.2826
 1.1010	91.2966
 1.1000	91.3126
 1.0990	91.2581
 1.0980	91.2620
 1.0970	91.2318
 1.0960	91.2958
 1.0950	91.2678
 1.0940	91.3724
 1.0930	91.2654
 1.0920	91.4022
 1.0910	91.3261
 1.0900	91.2519
 1.0890	91.3389
 1.0880	91.3545
 1.0870	91.2826
 1.0860	91.2717
 1.0850	91.2989
 1.0840	91.3315
 1.0830	91.2973
 1.0820	91.3158
 1.0810	91.3306
 1.0800	91.2282
 1.0790	91.3281
 1.0780	91.2896
 1.0770	91.2576
 1.0760	91.3306
 1.0750	91.3240
 1.0740	91.3346
 1.0730	91.3041
 1.0720	91.3384
 1.0710	91.3129
 1.0700	91.2132
 1.0690	91.3784
 1.0680	91.2455
 1.0670	91.2296
 1.0660	91.2504
 1.0650	91.2763
 1.0640	91.1768
 1.0630	91.2555
 1.0620	91.3227
 1.0610	91.3529
 1.0600	91.2449
 1.0590	91.2762
 1.0580	91.2222
 1.0570	91.2682
 1.0560	91.1814
 1.0550	91.2777
 1.0540	91.2498
 1.0530	91.2123
 1.0520	91.3088
 1.0510	91.2415
 1.0500	91.2732
 1.0490	91.2627
 1.0480	91.3740
 1.0470	91.2974
 1.0460	91.3192
 1.0450	91.2626
 1.0440	91.2035
 1.0430	91.1800
 1.0420	91.3297
 1.0410	91.3012
 1.0400	91.2845
 1.0390	91.2132
 1.0380	91.2765
 1.0370	91.2738
 1.0360	91.2615
 1.0350	91.2512
 1.0340	91.2471
 1.0330	91.2303
 1.0320	91.2400
 1.0310	91.2433
 1.0300	91.2409
 1.0290	91.2787
 1.0280	91.2707
 1.0270	91.2739
 1.0260	91.2699
 1.0250	91.2948
 1.0240	91.3110
 1.0230	91.3170
 1.0220	91.2647
 1.0210	91.2288
 1.0200	91.1840
 1.0190	91.2040
 1.0180	91.2440
 1.0170	91.2846
 1.0160	91.2813
 1.0150	91.2044
 1.0140	91.2035
 1.0130	91.2162
 1.0120	91.2769
 1.0110	91.2412
 1.0100	91.2468
 1.0090	91.2440
 1.0080	91.2491
 1.0070	91.2459
 1.0060	91.2343
 1.0050	91.1976
 1.0040	91.2091
 1.0030	91.2345
 1.0020	91.2464
 1.0010	91.2297
 1.0000	91.1783
 0.9990	91.2052
 0.9980	91.2823
 0.9970	91.2654
 0.9960	91.2302
 0.9950	91.2353
 0.9940	91.2176
 0.9930	91.2735
 0.9920	91.2702
 0.9910	91.2688
 0.9900	91.3216
 0.9890	91.2057
 0.9880	91.1960
 0.9870	91.2633
 0.9860	91.2289
 0.9850	91.2274
 0.9840	91.2847
 0.9830	91.2891
 0.9820	91.2009
 0.9810	91.2071
 0.9800	91.1943
 0.9790	91.1722
 0.9780	91.2058
 0.9770	91.3200
 0.9760	91.3250
 0.9750	91.2437
 0.9740	91.2351
 0.9730	91.2663
 0.9720	91.2932
 0.9710	91.2395
 0.9700	91.2269
 0.9690	91.3127
 0.9680	91.3116
 0.9670	91.2351
 0.9660	91.2419
 0.9650	91.2213
 0.9640	91.2350
 0.9630	91.2917
 0.9620	91.2653
 0.9610	91.2142
 0.9600	91.2334
 0.9590	91.2207
 0.9580	91.1752
 0.9570	91.2750
 0.9560	91.2750
 0.9550	91.2593
 0.9540	91.2397
 0.9530	91.2593
 0.9520	91.2678
 0.9510	91.2589
 0.9500	91.2153
 0.9490	91.2745
 0.9480	91.2855
 0.9470	91.2415
 0.9460	91.1780
 0.9450	91.1845
 0.9440	91.2677
 0.9430	91.2734
 0.9420	91.2238
 0.9410	91.1923
 0.9400	91.2120
 0.9390	91.2528
 0.9380	91.2652
 0.9370	91.3063
 0.9360	91.2812
 0.9350	91.2383
 0.9340	91.2327
 0.9330	91.2646
 0.9320	91.2327
 0.9310	91.2218
 0.9300	91.2681
 0.9290	91.2632
 0.9280	91.2074
 0.9270	91.2176
 0.9260	91.2702
 0.9250	91.2242
 0.9240	91.1900
 0.9230	91.2161
 0.9220	91.2439
 0.9210	91.2198
 0.9200	91.2433
 0.9190	91.2961
 0.9180	91.2723
 0.9170	91.1919
 0.9160	91.1820
 0.9150	91.2057
 0.9140	91.1670
 0.9130	91.2136
 0.9120	91.2288
 0.9110	91.2121
 0.9100	91.2257
 0.9090	91.1912
 0.9080	91.2132
 0.9070	91.2619
 0.9060	91.2408
 0.9050	91.2169
 0.9040	91.2118
 0.9030	91.1803
 0.9020	91.1933
 0.9010	91.2316
 0.9000	91.1872
 0.8990	91.2262
 0.8980	91.2906
 0.8970	91.2385
 0.8960	91.2490
 0.8950	91.2877
 0.8940	91.2427
 0.8930	91.2024
 0.8920	91.1793
 0.8910	91.2348
 0.8900	91.2446
 0.8890	91.2173
 0.8880	91.2505
 0.8870	91.2118
 0.8860	91.2054
 0.8850	91.2195
 0.8840	91.2079
 0.8830	91.1525
 0.8820	91.1678
 0.8810	91.2049
 0.8800	91.1814
 0.8790	91.1839
 0.8780	91.2362
 0.8770	91.2792
 0.8760	91.2649
 0.8750	91.1902
 0.8740	91.2564
 0.8730	91.2624
 0.8720	91.2449
 0.8710	91.1841
 0.8700	91.2255
 0.8690	91.2050
 0.8680	91.1889
 0.8670	91.1394
 0.8660	91.2265
 0.8650	91.2040
 0.8640	91.1347
 0.8630	91.1909
 0.8620	91.1593
 0.8610	91.1727
 0.8600	91.2741
 0.8590	91.2925
 0.8580	91.2993
 0.8570	91.3014
 0.8560	91.2786
 0.8550	91.2912
 0.8540	91.4348
 0.8530	91.2843
 0.8520	91.2992
 0.8510	91.3302
 0.8500	91.3693
 0.8490	91.2744
 0.8480	91.3586
 0.8470	91.3330
 0.8460	91.2519
 0.8450	91.2751
 0.8440	91.2416
 0.8430	91.2278
 0.8420	91.3201
 0.8410	91.3108
 0.8400	91.2713
 0.8390	91.3157
 0.8380	91.2456
 0.8370	91.1775
 0.8360	91.2599
 0.8350	91.2531
 0.8340	91.2325
 0.8330	91.2967
 0.8320	91.3321
 0.8310	91.2725
 0.8300	91.2797
 0.8290	91.2645
 0.8280	91.2342
 0.8270	91.2360
 0.8260	91.1720
 0.8250	91.2266
 0.8240	91.2547
 0.8230	91.2782
 0.8220	91.2144
 0.8210	91.2794
 0.8200	91.1875
 0.8190	91.2400
 0.8180	91.2068
 0.8170	91.1915
 0.8160	91.2384
 0.8150	91.2755
 0.8140	91.1925
 0.8130	91.1907
 0.8120	91.2197
 0.8110	91.1560
 0.8100	91.1638
 0.8090	91.2077
 0.8080	91.1675
 0.8070	91.1860
 0.8060	91.2124
 0.8050	91.1567
 0.8040	91.1188
 0.8030	91.1399
 0.8020	91.1673
 0.8010	91.1831
 0.8000	91.1593
 0.7990	91.1364
 0.7980	91.1057
 0.7970	91.1120
 0.7960	91.0515
 0.7950	91.0234
 0.7940	91.0259
 0.7930	91.0436
 0.7920	91.0277
 0.7910	91.0604
 0.7900	91.0038
 0.7890	90.9842
 0.7880	90.9705
 0.7870	91.0185
 0.7860	90.9569
 0.7850	90.9585
 0.7840	90.9862
 0.7830	91.0506
 0.7820	90.9809
 0.7810	90.9428
 0.7800	90.9533
 0.7790	90.9289
 0.7780	90.9181
 0.7770	90.8635
 0.7760	90.9052
 0.7750	90.9071
 0.7740	90.8740
 0.7730	90.8941
 0.7720	90.8952
 0.7710	90.8732
 0.7700	90.8482
 0.7690	90.8628
 0.7680	90.8522
 0.7670	90.8089
 0.7660	90.8396
 0.7650	90.8441
 0.7640	90.8214
 0.7630	90.7871
 0.7620	90.7892
 0.7610	90.7431
 0.7600	90.7697
 0.7590	90.7777
 0.7580	90.7415
 0.7570	90.7228
 0.7560	90.7234
 0.7550	90.7477
 0.7540	90.7359
 0.7530	90.6920
 0.7520	90.7075
 0.7510	90.6952
 0.7500	90.6614
 0.7490	90.6625
 0.7480	90.6624
 0.7470	90.6814
 0.7460	90.6700
 0.7450	90.6339
 0.7440	90.6262
 0.7430	90.5857
 0.7420	90.5873
 0.7410	90.6089
 0.7400	90.6201
 0.7390	90.6125
 0.7380	90.6175
 0.7370	90.5843
 0.7360	90.5375
 0.7350	90.5557
 0.7340	90.5202
 0.7330	90.5167
 0.7320	90.5074
 0.7310	90.5083
 0.7300	90.5113
 0.7290	90.4959
 0.7280	90.5029
 0.7270	90.4717
 0.7260	90.4566
 0.7250	90.4828
 0.7240	90.4551
 0.7230	90.4237
 0.7220	90.4459
 0.7210	90.4282
 0.7200	90.4155
 0.7190	90.4000
 0.7180	90.4031
 0.7170	90.3764
 0.7160	90.3763
 0.7150	90.3819
 0.7140	90.3552
 0.7130	90.3477
 0.7120	90.3320
 0.7110	90.3082
 0.7100	90.2932
 0.7090	90.3193
 0.7080	90.2819
 0.7070	90.2654
 0.7060	90.2432
 0.7050	90.2447
 0.7040	90.2346
 0.7030	90.2050
 0.7020	90.1854
 0.7010	90.2147
 0.7000	90.1675
 0.6990	90.1233
 0.6980	90.1180
 0.6970	90.1257
 0.6960	90.1151
 0.6950	90.1087
 0.6940	90.1114
 0.6930	90.0737
 0.6920	90.0487
 0.6910	90.0658
 0.6900	90.0600
 0.6890	90.0470
 0.6880	90.0146
 0.6870	90.0136
 0.6860	90.0042
 0.6850	89.9656
 0.6840	89.9666
 0.6830	89.9483
 0.6820	89.9143
 0.6810	89.8906
 0.6800	89.8805
 0.6790	89.8795
 0.6780	89.8693
 0.6770	89.8575
 0.6760	89.8600
 0.6750	89.8503
 0.6740	89.8315
 0.6730	89.8001
 0.6720	89.7897
 0.6710	89.7716
 0.6700	89.7541
 0.6690	89.7389
 0.6680	89.7102
 0.6670	89.6783
 0.6660	89.6670
 0.6650	89.6646
 0.6640	89.6556
 0.6630	89.6393
 0.6620	89.6243
 0.6610	89.6076
 0.6600	89.5871
 0.6590	89.5603
 0.6580	89.5407
 0.6570	89.5239
 0.6560	89.4991
 0.6550	89.4824
 0.6540	89.4639
 0.6530	89.4332
 0.6520	89.4265
 0.6510	89.4036
 0.6500	89.3704
 0.6490	89.3594
 0.6480	89.3467
 0.6470	89.3148
 0.6460	89.2856
 0.6450	89.2699
 0.6440	89.2490
 0.6430	89.2139
 0.6420	89.1863
 0.6410	89.1868
 0.6400	89.1571
 0.6390	89.1209
 0.6380	89.0944
 0.6370	89.0750
 0.6360	89.0666
 0.6350	89.0305
 0.6340	89.0089
 0.6330	88.9821
 0.6320	88.9412
 0.6310	88.9202
 0.6300	88.9074
 0.6290	88.8798
 0.6280	88.8381
 0.6270	88.8244
 0.6260	88.7846
 0.6250	88.7601
 0.6240	88.7471
 0.6230	88.7044
 0.6220	88.6800
 0.6210	88.6567
 0.6200	88.6284
 0.6190	88.5991
 0.6180	88.5765
 0.6170	88.5359
 0.6160	88.5126
 0.6150	88.4997
 0.6140	88.4694
 0.6130	88.4213
 0.6120	88.3915
 0.6110	88.3730
 0.6100	88.3425
 0.6090	88.3124
 0.6080	88.2817
 0.6070	88.2516
 0.6060	88.2043
 0.6050	88.1902
 0.6040	88.1674
 0.6030	88.1393
 0.6020	88.1107
 0.6010	88.0767
 0.6000	88.0520
 0.5990	88.0236
 0.5980	88.0198
 0.5970	88.0100
 0.5960	87.9686
 0.5950	87.9784
 0.5940	87.9508
 0.5930	87.9118
 0.5920	87.8915
 0.5910	87.8717
 0.5900	87.8383
 0.5890	87.8083
 0.5880	87.7871
 0.5870	87.7602
 0.5860	87.7224
 0.5850	87.7070
 0.5840	87.6762
 0.5830	87.6452
 0.5820	87.6185
 0.5810	87.5852
 0.5800	87.5539
 0.5790	87.5282
 0.5780	87.4794
 0.5770	87.4687
 0.5760	87.4563
 0.5750	87.4136
 0.5740	87.3767
 0.5730	87.3519
 0.5720	87.3242
 0.5710	87.3000
 0.5700	87.2634
 0.5690	87.2335
 0.5680	87.2057
 0.5670	87.1516
 0.5660	87.1199
 0.5650	87.1041
 0.5640	87.0764
 0.5630	87.0313
 0.5620	86.9844
 0.5610	86.9514
 0.5600	86.9171
 0.5590	86.8769
 0.5580	86.8503
 0.5570	86.8055
 0.5560	86.7785
 0.5550	86.7430
 0.5540	86.7004
 0.5530	86.6681
 0.5520	86.6412
 0.5510	86.6008
 0.5500	86.5560
 0.5490	86.5221
 0.5480	86.4854
 0.5470	86.4586
 0.5460	86.4038
 0.5450	86.3842
 0.5440	86.3344
 0.5430	86.2950
 0.5420	86.2483
 0.5410	86.2191
 0.5400	86.1919
 0.5390	86.1308
 0.5380	86.0993
 0.5370	86.0516
 0.5360	86.0262
 0.5350	85.9895
 0.5340	85.9436
 0.5330	85.8992
 0.5320	85.8566
 0.5310	85.7900
 0.5300	85.7540
 0.5290	85.7235
 0.5280	85.6924
 0.5270	85.6368
 0.5260	85.6019
 0.5250	85.5636
 0.5240	85.4842
 0.5230	85.4723
 0.5220	85.4134
 0.5210	85.3483
 0.5200	85.3141
 0.5190	85.2605
 0.5180	85.2161
 0.5170	85.1612
 0.5160	85.1311
 0.5150	85.0845
 0.5140	85.0145
 0.5130	84.9624
 0.5120	84.9201
 0.5110	84.8658
 0.5100	84.8299
 0.5090	84.7676
 0.5080	84.7208
 0.5070	84.6580
 0.5060	84.6338
 0.5050	84.5862
 0.5040	84.5008
 0.5030	84.4443
 0.5020	84.4044
 0.5010	84.3206
 0.5000	84.2902
 0.4990	84.2338
 0.4980	84.1585
 0.4970	84.1228
 0.4960	84.0604
 0.4950	84.0046
 0.4940	83.9151
 0.4930	83.8655
 0.4920	83.7932
 0.4910	83.7731
 0.4900	83.7019
 0.4890	83.6402
 0.4880	83.5616
 0.4870	83.4950
 0.4860	83.4612
 0.4850	83.3927
 0.4840	83.3295
 0.4830	83.2692
 0.4820	83.2112
 0.4810	83.1235
 0.4800	83.0762
 0.4790	83.0183
 0.4780	82.9555
 0.4770	82.9004
 0.4760	82.8291
 0.4750	82.8032
 0.4740	82.7179
 0.4730	82.6372
 0.4720	82.5693
 0.4710	82.5285
 0.4700	82.4519
 0.4690	82.3982
 0.4680	82.3308
 0.4670	82.2802
 0.4660	82.2144
 0.4650	82.1275
 0.4640	82.0579
 0.4630	82.0136
 0.4620	81.9268
 0.4610	81.8430
 0.4600	81.7969
 0.4590	81.7229
 0.4580	81.6436
 0.4570	81.5597
 0.4560	81.5074
 0.4550	81.3931
 0.4540	81.3430
 0.4530	81.2497
 0.4520	81.1597
 0.4510	81.0916
 0.4500	81.0108
 0.4490	80.9408
 0.4480	80.8533
 0.4470	80.7692
 0.4460	80.6607
 0.4450	80.5820
 0.4440	80.4773
 0.4430	80.3687
 0.4420	80.2920
 0.4410	80.2054
 0.4400	80.0858
 0.4390	80.0114
 0.4380	79.9401
 0.4370	79.8393
 0.4360	79.7317
 0.4350	79.6199
 0.4340	79.5264
 0.4330	79.4293
 0.4320	79.3041
 0.4310	79.2192
 0.4300	79.1055
 0.4290	78.9795
 0.4280	78.8666
 0.4270	78.7739
 0.4260	78.6537
 0.4250	78.5231
 0.4240	78.4385
 0.4230	78.3146
 0.4220	78.1749
 0.4210	78.0597
 0.4200	77.9401
 0.4190	77.8100
 0.4180	77.6927
 0.4170	77.5576
 0.4160	77.4104
 0.4150	77.2632
 0.4140	77.1299
 0.4130	76.9935
 0.4120	76.8551
 0.4110	76.7096
 0.4100	76.5627
 0.4090	76.3996
 0.4080	76.2681
 0.4070	76.1177
 0.4060	75.9566
 0.4050	75.7900
 0.4040	75.6284
 0.4030	75.4712
 0.4020	75.3052
 0.4010	75.1477
 0.4000	74.9870
