Name: Magnesite MgCO_3
Type: Mineral
Class: Carbonate
Subclass: None
Particle Size: Coarse
Sample No.: C-6A
Owner: JPL
Wavelength Range: VSWIR
Origin: USA, California, Riverside County
Collection Date: N/A
Description: Particle size was 125-500um.Collected by Ward's Original ASTER Spectral Library name was jpl.beckman.mineral.carbonate.none.coarse.c06a.spectrum.txt
Measurement: Hemispherical reflectance
First Column: X
Second Column: Y
X Units: Wavelength (micrometers)
Y Units:Reflectance (percent)
First X Value:  0.4000
Last X Value:  2.5000
Number of X Values: 826
Additional Information: mineral.carbonate.none.coarse.vswir.c-6a.jpl.beckman.ancillary.txt

 0.4000	63.9500
 0.4010	63.9500
 0.4020	64.1200
 0.4030	64.3500
 0.4040	64.6800
 0.4050	64.6800
 0.4060	64.6300
 0.4070	64.6800
 0.4080	64.9200
 0.4090	65.2000
 0.4100	65.3800
 0.4110	65.2600
 0.4120	65.2600
 0.4130	65.4900
 0.4140	65.8400
 0.4150	65.9500
 0.4160	65.8900
 0.4170	65.7200
 0.4180	66.0000
 0.4190	66.2900
 0.4200	66.3500
 0.4210	66.4000
 0.4220	66.3500
 0.4230	66.5800
 0.4240	66.8600
 0.4250	67.0400
 0.4260	67.0400
 0.4270	66.9200
 0.4280	67.2100
 0.4290	67.3800
 0.4300	67.6600
 0.4310	67.7800
 0.4320	67.6600
 0.4330	67.8300
 0.4340	68.0600
 0.4350	68.4700
 0.4360	68.4100
 0.4370	68.3500
 0.4380	68.6400
 0.4390	68.8000
 0.4400	69.2100
 0.4410	69.2100
 0.4420	69.0900
 0.4430	69.3200
 0.4440	69.6700
 0.4450	69.7800
 0.4460	69.8400
 0.4470	69.6700
 0.4480	69.9000
 0.4490	70.2900
 0.4500	70.2900
 0.4510	70.4100
 0.4520	70.4100
 0.4530	70.5900
 0.4540	70.9900
 0.4550	71.1600
 0.4560	71.1600
 0.4570	70.9300
 0.4580	71.2800
 0.4590	71.6200
 0.4600	71.3900
 0.4610	71.7400
 0.4620	72.0300
 0.4630	72.0900
 0.4640	71.9700
 0.4650	72.2000
 0.4660	72.3700
 0.4670	72.5500
 0.4680	72.7900
 0.4690	72.6700
 0.4700	72.7300
 0.4710	72.9600
 0.4720	73.2400
 0.4730	73.4200
 0.4740	73.2500
 0.4750	73.4200
 0.4760	73.4800
 0.4770	73.7700
 0.4780	74.0000
 0.4790	74.0000
 0.4800	74.0000
 0.4810	74.0500
 0.4820	74.2800
 0.4830	74.4700
 0.4840	74.4700
 0.4850	74.5800
 0.4860	74.6400
 0.4870	74.8700
 0.4880	75.0400
 0.4890	75.1000
 0.4900	75.1600
 0.4910	75.2700
 0.4920	75.5000
 0.4930	75.7400
 0.4940	75.6900
 0.4950	75.6900
 0.4960	75.7900
 0.4970	76.0800
 0.4980	76.3800
 0.4990	76.3200
 0.5000	76.4400
 0.5010	76.6100
 0.5020	76.8400
 0.5030	77.1200
 0.5040	77.0100
 0.5050	77.0100
 0.5060	77.2300
 0.5070	77.5800
 0.5080	77.8100
 0.5090	77.7500
 0.5100	77.7500
 0.5110	77.9200
 0.5120	78.2100
 0.5130	78.4400
 0.5140	78.3800
 0.5150	78.3300
 0.5160	78.5000
 0.5170	78.8400
 0.5180	79.0700
 0.5190	78.9500
 0.5200	78.8900
 0.5210	79.0700
 0.5220	79.3000
 0.5230	79.5300
 0.5240	79.3500
 0.5250	79.3000
 0.5260	79.4700
 0.5270	79.6400
 0.5280	79.8100
 0.5290	79.7600
 0.5300	79.8700
 0.5310	79.8700
 0.5320	80.0400
 0.5330	80.3300
 0.5340	80.2800
 0.5350	80.2200
 0.5360	80.1000
 0.5370	80.3300
 0.5380	80.7300
 0.5390	80.8400
 0.5400	80.7800
 0.5410	80.4400
 0.5420	80.7300
 0.5430	80.9000
 0.5440	81.0100
 0.5450	81.0100
 0.5460	80.9000
 0.5470	81.0100
 0.5480	81.2400
 0.5490	81.5300
 0.5500	81.5300
 0.5510	81.3000
 0.5520	81.4200
 0.5530	81.5900
 0.5540	81.8800
 0.5550	81.9900
 0.5560	81.8800
 0.5570	81.8200
 0.5580	81.9900
 0.5590	81.9400
 0.5600	82.2100
 0.5610	82.5000
 0.5620	82.5000
 0.5630	82.4400
 0.5640	82.1600
 0.5650	82.2700
 0.5660	82.5000
 0.5670	82.6200
 0.5680	82.6200
 0.5690	82.3900
 0.5700	82.3900
 0.5710	82.6200
 0.5720	82.7300
 0.5730	82.6200
 0.5740	82.4400
 0.5750	82.4400
 0.5760	82.6700
 0.5770	82.7900
 0.5780	82.9100
 0.5790	82.7300
 0.5800	82.7300
 0.5810	82.8500
 0.5820	83.0800
 0.5830	83.2500
 0.5840	82.9600
 0.5850	82.8500
 0.5860	82.9600
 0.5870	83.1900
 0.5880	83.3700
 0.5890	83.2500
 0.5900	83.0800
 0.5910	83.1400
 0.5920	83.4200
 0.5930	83.7000
 0.5940	83.5400
 0.5950	83.3100
 0.5960	83.2500
 0.5970	83.3700
 0.5980	83.6500
 0.5990	83.6500
 0.6000	83.6000
 0.6010	83.4200
 0.6020	83.6000
 0.6030	83.8700
 0.6040	83.7600
 0.6050	83.7600
 0.6060	83.6500
 0.6070	83.5400
 0.6080	83.8200
 0.6090	83.9300
 0.6100	83.9300
 0.6110	83.7600
 0.6120	83.7600
 0.6130	83.8200
 0.6140	83.8700
 0.6150	84.1000
 0.6160	83.8700
 0.6170	83.7000
 0.6180	83.7000
 0.6190	83.7000
 0.6200	84.0500
 0.6210	83.8700
 0.6220	83.7000
 0.6230	83.7600
 0.6240	83.9300
 0.6250	84.1600
 0.6260	84.0500
 0.6270	83.8700
 0.6280	83.8200
 0.6290	83.8700
 0.6300	84.1000
 0.6310	84.1000
 0.6320	83.8700
 0.6330	83.7600
 0.6340	83.9300
 0.6350	84.2200
 0.6360	84.0500
 0.6370	84.0500
 0.6380	83.9300
 0.6390	83.9300
 0.6400	84.1600
 0.6410	84.1000
 0.6420	84.0500
 0.6430	83.8700
 0.6440	83.8700
 0.6450	84.2200
 0.6460	84.1600
 0.6470	84.0500
 0.6480	83.9300
 0.6490	83.8200
 0.6500	84.0500
 0.6510	84.1000
 0.6520	84.1000
 0.6530	83.9300
 0.6540	83.8700
 0.6550	83.9900
 0.6560	84.1000
 0.6570	84.2200
 0.6580	83.9900
 0.6590	83.8700
 0.6600	83.9900
 0.6610	84.2800
 0.6620	84.2200
 0.6630	83.9300
 0.6640	83.8700
 0.6650	83.9900
 0.6660	84.1600
 0.6670	84.1000
 0.6680	83.9900
 0.6690	83.9300
 0.6700	83.9900
 0.6710	84.1600
 0.6720	84.3400
 0.6730	84.1000
 0.6740	83.9300
 0.6750	84.0500
 0.6760	84.1600
 0.6770	84.3900
 0.6780	84.1000
 0.6790	84.0500
 0.6800	84.1000
 0.6810	84.1600
 0.6820	84.4500
 0.6830	84.3400
 0.6840	84.2200
 0.6850	84.2200
 0.6860	84.3400
 0.6870	84.5100
 0.6880	84.4500
 0.6890	84.3900
 0.6900	84.2800
 0.6910	84.5700
 0.6920	84.6200
 0.6930	84.5700
 0.6940	84.3900
 0.6950	84.0500
 0.6960	84.2200
 0.6970	84.5100
 0.6980	84.5700
 0.6990	84.3400
 0.7000	84.2200
 0.7010	84.2200
 0.7020	84.0500
 0.7030	84.2200
 0.7040	84.3900
 0.7050	84.3900
 0.7060	84.4500
 0.7070	84.2200
 0.7080	84.3400
 0.7090	84.5700
 0.7100	84.5100
 0.7110	84.5700
 0.7120	84.4500
 0.7130	84.3400
 0.7140	84.6800
 0.7150	84.6800
 0.7160	84.5700
 0.7170	84.5100
 0.7180	84.4500
 0.7190	84.6800
 0.7200	84.6200
 0.7210	84.5700
 0.7220	84.3900
 0.7230	84.2800
 0.7240	84.5700
 0.7250	84.5700
 0.7260	84.6200
 0.7270	84.4500
 0.7280	84.2800
 0.7290	84.5700
 0.7300	84.5700
 0.7310	84.6800
 0.7320	84.5100
 0.7330	84.3400
 0.7340	84.5100
 0.7350	84.5700
 0.7360	84.5700
 0.7370	84.5100
 0.7380	84.2800
 0.7390	84.4500
 0.7400	84.6200
 0.7410	84.6800
 0.7420	84.5700
 0.7430	84.3900
 0.7440	84.5100
 0.7450	84.5700
 0.7460	84.7400
 0.7470	84.5700
 0.7480	84.4500
 0.7490	84.5100
 0.7500	84.6200
 0.7510	84.7400
 0.7520	84.6800
 0.7530	84.4500
 0.7540	84.5700
 0.7550	84.6800
 0.7560	84.7400
 0.7570	84.6200
 0.7580	84.4500
 0.7590	84.5700
 0.7600	84.7400
 0.7610	84.9100
 0.7620	84.7400
 0.7630	84.6200
 0.7640	84.6800
 0.7650	84.8500
 0.7660	85.0300
 0.7670	84.8000
 0.7680	84.7400
 0.7690	84.8000
 0.7700	84.8500
 0.7710	85.0800
 0.7720	85.0300
 0.7730	84.8500
 0.7740	84.8500
 0.7750	85.0300
 0.7760	85.2000
 0.7770	85.0800
 0.7780	84.9100
 0.7790	85.0300
 0.7800	85.0800
 0.7810	85.3100
 0.7820	85.2600
 0.7830	85.0800
 0.7840	85.0800
 0.7850	85.2000
 0.7860	85.4800
 0.7870	85.3100
 0.7880	85.2000
 0.7890	85.2000
 0.7900	85.3600
 0.7910	85.6500
 0.7920	85.4800
 0.7930	85.3600
 0.7940	85.3100
 0.7950	85.5900
 0.7960	85.8200
 0.7970	85.7700
 0.7980	85.6500
 0.7990	85.7700
 0.8000	85.8000
 0.8040	85.9400
 0.8080	86.0500
 0.8120	85.9400
 0.8160	86.1100
 0.8200	86.1100
 0.8240	86.3400
 0.8280	86.2800
 0.8320	86.5100
 0.8360	86.5700
 0.8400	86.5700
 0.8440	86.6300
 0.8480	86.7400
 0.8520	86.8000
 0.8560	86.8000
 0.8600	86.9700
 0.8640	86.9200
 0.8680	87.0200
 0.8720	86.9200
 0.8760	87.0200
 0.8800	86.9700
 0.8840	87.0200
 0.8880	87.0200
 0.8920	87.1400
 0.8960	87.0200
 0.9000	86.8600
 0.9040	87.0200
 0.9080	87.0200
 0.9120	87.0200
 0.9160	86.8600
 0.9200	87.0200
 0.9240	86.9200
 0.9280	86.9200
 0.9320	86.8600
 0.9360	86.9200
 0.9400	86.7400
 0.9440	86.5700
 0.9480	86.5100
 0.9520	86.5700
 0.9560	86.5700
 0.9600	86.5100
 0.9640	86.3400
 0.9680	86.4000
 0.9720	86.3400
 0.9760	86.1700
 0.9800	86.1100
 0.9840	86.1100
 0.9880	86.2300
 0.9920	86.1100
 0.9960	86.2300
 1.0000	86.2800
 1.0040	86.0500
 1.0080	86.2300
 1.0120	86.0500
 1.0160	86.1100
 1.0200	86.1100
 1.0240	86.1700
 1.0280	86.0500
 1.0320	86.0000
 1.0360	86.0000
 1.0400	86.1700
 1.0440	86.1100
 1.0480	86.0000
 1.0520	85.8200
 1.0560	85.9400
 1.0600	85.8200
 1.0640	85.8200
 1.0680	85.7700
 1.0720	85.8800
 1.0760	85.7100
 1.0800	85.7700
 1.0840	85.8200
 1.0880	85.5900
 1.0920	85.5900
 1.0960	85.6500
 1.1000	85.5300
 1.1040	85.4200
 1.1080	85.4200
 1.1120	85.4200
 1.1160	85.3600
 1.1200	85.2600
 1.1240	85.2600
 1.1280	85.3100
 1.1320	85.2000
 1.1360	85.0300
 1.1400	84.8500
 1.1440	84.6800
 1.1480	84.4500
 1.1520	84.3400
 1.1560	84.3300
 1.1600	84.3200
 1.1640	84.2000
 1.1680	84.1300
 1.1720	84.0700
 1.1760	84.0100
 1.1800	84.0500
 1.1840	83.9300
 1.1880	83.9300
 1.1920	83.8700
 1.1960	83.8000
 1.2000	83.7900
 1.2040	83.8500
 1.2080	83.6200
 1.2120	83.5600
 1.2160	83.5600
 1.2200	83.6200
 1.2240	83.4500
 1.2280	83.4500
 1.2320	83.5100
 1.2360	83.4500
 1.2400	83.3900
 1.2440	83.2800
 1.2480	83.5100
 1.2520	83.3900
 1.2560	83.3800
 1.2600	83.2700
 1.2640	83.3100
 1.2680	83.1300
 1.2720	83.1900
 1.2760	83.2900
 1.2800	83.1700
 1.2840	83.2200
 1.2880	83.2200
 1.2920	83.2200
 1.2960	83.0900
 1.3000	83.0200
 1.3040	82.9000
 1.3080	83.0000
 1.3120	82.8400
 1.3160	82.7200
 1.3200	82.7100
 1.3240	82.5200
 1.3280	82.2900
 1.3320	82.1200
 1.3360	82.1100
 1.3400	81.8100
 1.3440	81.7000
 1.3480	81.5100
 1.3520	81.6300
 1.3560	81.2300
 1.3600	81.0500
 1.3640	80.9900
 1.3680	80.7700
 1.3720	80.4300
 1.3760	79.7500
 1.3800	78.4300
 1.3840	76.4400
 1.3880	75.5100
 1.3920	75.6300
 1.3960	75.8600
 1.4000	75.4600
 1.4040	74.5600
 1.4080	73.8200
 1.4120	73.0200
 1.4160	72.5100
 1.4200	72.0100
 1.4240	71.8400
 1.4280	71.5000
 1.4320	71.4000
 1.4360	71.1700
 1.4400	71.3500
 1.4440	71.2500
 1.4480	71.3600
 1.4520	71.2600
 1.4560	71.1400
 1.4600	71.0300
 1.4640	70.9700
 1.4680	70.9100
 1.4720	70.8000
 1.4760	70.8000
 1.4800	70.6800
 1.4840	70.8000
 1.4880	70.6800
 1.4920	70.6800
 1.4960	70.6200
 1.5000	70.5100
 1.5040	70.5100
 1.5080	70.3400
 1.5120	70.2800
 1.5160	70.4500
 1.5200	70.2800
 1.5240	70.2200
 1.5280	70.2800
 1.5320	70.3900
 1.5360	70.2800
 1.5400	70.2800
 1.5440	70.3400
 1.5480	70.4500
 1.5520	70.3900
 1.5560	70.4500
 1.5600	70.5700
 1.5640	70.6800
 1.5680	70.5700
 1.5720	70.7400
 1.5760	70.9100
 1.5800	70.7400
 1.5840	70.7400
 1.5880	70.8500
 1.5920	71.0300
 1.5960	70.9700
 1.6000	70.9100
 1.6040	71.0700
 1.6080	70.8900
 1.6120	70.8900
 1.6160	70.8900
 1.6200	71.0000
 1.6240	70.7600
 1.6280	70.8100
 1.6320	70.8700
 1.6360	70.7500
 1.6400	70.7400
 1.6440	70.7300
 1.6480	70.9600
 1.6520	70.7800
 1.6560	70.9500
 1.6600	70.8800
 1.6640	70.8200
 1.6680	70.7000
 1.6720	70.6400
 1.6760	70.7400
 1.6800	70.6800
 1.6840	70.5600
 1.6880	70.4900
 1.6920	70.6100
 1.6960	70.4400
 1.7000	70.4800
 1.7040	70.6000
 1.7080	70.4300
 1.7120	70.4300
 1.7160	70.2500
 1.7200	70.3700
 1.7240	70.2500
 1.7280	70.2500
 1.7320	70.2000
 1.7360	70.3100
 1.7400	70.2000
 1.7440	70.0800
 1.7480	70.2000
 1.7520	70.0200
 1.7560	70.0800
 1.7600	70.0200
 1.7640	70.0800
 1.7680	69.7900
 1.7720	70.0200
 1.7760	69.8500
 1.7800	69.9100
 1.7840	69.7400
 1.7880	69.6300
 1.7920	69.7400
 1.7960	69.5700
 1.8000	69.5700
 1.8040	69.4400
 1.8080	69.4200
 1.8120	69.2100
 1.8160	69.1900
 1.8200	69.0000
 1.8240	68.8100
 1.8280	68.7900
 1.8320	68.5400
 1.8360	68.4600
 1.8400	68.2100
 1.8440	68.0700
 1.8480	67.9400
 1.8520	67.8100
 1.8560	67.6300
 1.8600	67.4000
 1.8640	67.0000
 1.8680	66.3600
 1.8720	65.6200
 1.8760	64.7700
 1.8800	63.6900
 1.8840	62.1400
 1.8880	60.6600
 1.8920	59.2400
 1.8960	57.5900
 1.9000	55.8800
 1.9040	54.6300
 1.9080	53.4900
 1.9120	52.5800
 1.9160	52.0700
 1.9200	51.8900
 1.9240	51.7200
 1.9280	51.5900
 1.9320	51.6500
 1.9360	51.7600
 1.9400	51.7000
 1.9440	51.6900
 1.9480	51.6900
 1.9520	51.5700
 1.9560	51.3800
 1.9600	51.1500
 1.9640	51.2500
 1.9680	51.0100
 1.9720	50.9400
 1.9760	50.8100
 1.9800	50.8000
 1.9840	50.7900
 1.9880	50.7700
 1.9920	50.8800
 1.9960	50.8700
 2.0000	50.9600
 2.0040	50.9800
 2.0080	51.0000
 2.0120	50.9100
 2.0160	51.0500
 2.0200	51.2600
 2.0240	51.3900
 2.0280	51.4000
 2.0320	51.4800
 2.0360	51.5200
 2.0400	51.7200
 2.0440	51.7900
 2.0480	51.9700
 2.0520	52.0000
 2.0560	52.1400
 2.0600	52.2400
 2.0640	52.5000
 2.0680	52.7600
 2.0720	52.7800
 2.0760	52.9400
 2.0800	53.1900
 2.0840	53.5000
 2.0880	53.6500
 2.0920	53.8500
 2.0960	54.0500
 2.1000	54.3000
 2.1040	54.5000
 2.1080	54.8200
 2.1120	55.0200
 2.1160	55.3300
 2.1200	55.4800
 2.1240	55.7600
 2.1280	56.0500
 2.1320	56.2500
 2.1360	56.4700
 2.1400	56.7500
 2.1440	57.2200
 2.1480	57.2900
 2.1520	57.7200
 2.1560	57.8300
 2.1600	58.0400
 2.1640	58.2800
 2.1680	58.3500
 2.1720	58.4200
 2.1760	58.5500
 2.1800	58.6200
 2.1840	58.4500
 2.1880	58.5000
 2.1920	58.4800
 2.1960	58.1900
 2.2000	58.0700
 2.2040	57.9700
 2.2080	57.6200
 2.2120	57.3500
 2.2160	57.0400
 2.2200	56.7200
 2.2240	56.1100
 2.2280	55.5400
 2.2320	55.0800
 2.2360	54.3800
 2.2400	53.7900
 2.2440	53.1800
 2.2480	52.7300
 2.2520	52.0400
 2.2560	51.5100
 2.2600	50.9900
 2.2640	50.5400
 2.2680	50.0300
 2.2720	49.7400
 2.2760	49.2200
 2.2800	48.8000
 2.2840	48.3300
 2.2880	47.9800
 2.2920	47.7300
 2.2960	47.6300
 2.3000	47.4200
 2.3040	47.6800
 2.3080	47.6100
 2.3120	48.3100
 2.3160	48.6300
 2.3200	49.1100
 2.3240	49.6200
 2.3280	50.2000
 2.3320	50.6100
 2.3360	50.9500
 2.3400	51.1300
 2.3440	51.3900
 2.3480	51.4300
 2.3520	51.0700
 2.3560	50.8200
 2.3600	50.4200
 2.3640	49.9500
 2.3680	49.3700
 2.3720	48.8600
 2.3760	48.2600
 2.3800	47.7000
 2.3840	47.0700
 2.3880	46.5500
 2.3920	45.9900
 2.3960	45.4400
 2.4000	44.8300
 2.4040	44.4300
 2.4080	43.8800
 2.4120	43.2100
 2.4160	42.7100
 2.4200	42.0400
 2.4240	41.4200
 2.4280	40.7500
 2.4320	40.2100
 2.4360	39.5300
 2.4400	38.8100
 2.4440	38.1900
 2.4480	37.6900
 2.4520	37.0800
 2.4560	36.5800
 2.4600	36.0800
 2.4640	35.5300
 2.4680	35.0800
 2.4720	34.5800
 2.4760	34.3600
 2.4800	34.0200
 2.4840	33.7400
 2.4880	33.6800
 2.4920	33.4600
 2.4960	33.5100
 2.5000	33.4600
