Name: Natrojarosite NaFe_3^3+(SO_4)_2(OH)_6
Type: Mineral
Class: Sulfate
Subclass: None
Particle Size: Fine
Sample No.: SO-7C
Owner: JPL
Wavelength Range: VSWIR
Origin: USA, Utah, Tooele County, Gold Hill.
Collection Date: N/A
Description: Particle size was 0-45um.Collected by:  Ward's Original ASTER Spectral Library name was jpl.perkin.mineral.sulfate.none.fine.so07c.spectrum.txt
Measurement: Hemispherical reflectance
First Column: X
Second Column: Y
X Units: Wavelength (micrometers)
Y Units:Reflectance (percent)
First X Value:  2.5000
Last X Value:  0.4000
Number of X Values: 2101
Additional Information: mineral.sulfate.none.fine.vswir.so-7c.jpl.perkin.ancillary.txt

 2.5000	61.9359
 2.4990	62.1291
 2.4980	62.4970
 2.4970	62.8113
 2.4960	62.8791
 2.4950	63.1646
 2.4940	63.3310
 2.4930	63.6557
 2.4920	63.7649
 2.4910	63.9537
 2.4900	64.0453
 2.4890	64.1641
 2.4880	64.4147
 2.4870	64.3571
 2.4860	64.5801
 2.4850	64.5218
 2.4840	64.6334
 2.4830	64.6188
 2.4820	64.7136
 2.4810	64.7180
 2.4800	64.7435
 2.4790	64.6345
 2.4780	64.7812
 2.4770	64.5969
 2.4760	64.8540
 2.4750	64.6533
 2.4740	64.5445
 2.4730	64.4329
 2.4720	64.5017
 2.4710	64.4802
 2.4700	64.5404
 2.4690	64.4659
 2.4680	64.4202
 2.4670	64.4225
 2.4660	64.5055
 2.4650	64.4190
 2.4640	64.3075
 2.4630	64.3797
 2.4620	64.4457
 2.4610	64.3833
 2.4600	64.4927
 2.4590	64.4836
 2.4580	64.5523
 2.4570	64.5848
 2.4560	64.7560
 2.4550	64.8371
 2.4540	65.0499
 2.4530	65.0351
 2.4520	65.2236
 2.4510	65.3964
 2.4500	65.5729
 2.4490	65.7040
 2.4480	65.9384
 2.4470	66.1976
 2.4460	66.3118
 2.4450	66.3482
 2.4440	66.7048
 2.4430	66.7685
 2.4420	66.9439
 2.4410	67.0561
 2.4400	67.2462
 2.4390	67.3377
 2.4380	67.4930
 2.4370	67.5456
 2.4360	67.5284
 2.4350	67.8020
 2.4340	67.7769
 2.4330	67.7671
 2.4320	67.9182
 2.4310	68.0138
 2.4300	67.9903
 2.4290	68.1305
 2.4280	68.1411
 2.4270	68.0506
 2.4260	68.0833
 2.4250	67.9953
 2.4240	68.1060
 2.4230	68.0726
 2.4220	68.0766
 2.4210	68.0981
 2.4200	68.1128
 2.4190	68.0852
 2.4180	68.1396
 2.4170	68.1768
 2.4160	68.1694
 2.4150	68.1725
 2.4140	68.1826
 2.4130	68.2457
 2.4120	68.3137
 2.4110	68.3355
 2.4100	68.4307
 2.4090	68.4212
 2.4080	68.5249
 2.4070	68.6234
 2.4060	68.8016
 2.4050	68.8769
 2.4040	68.9523
 2.4030	69.1395
 2.4020	69.3816
 2.4010	69.4981
 2.4000	69.7120
 2.3990	69.8728
 2.3980	70.1018
 2.3970	70.2827
 2.3960	70.5380
 2.3950	70.8172
 2.3940	71.1053
 2.3930	71.3250
 2.3920	71.5182
 2.3910	71.8198
 2.3900	72.0783
 2.3890	72.2449
 2.3880	72.5636
 2.3870	72.8709
 2.3860	73.0407
 2.3850	73.2389
 2.3840	73.5064
 2.3830	73.7644
 2.3820	74.0557
 2.3810	74.2971
 2.3800	74.5451
 2.3790	74.8159
 2.3780	74.9888
 2.3770	75.2365
 2.3760	75.4580
 2.3750	75.5964
 2.3740	75.7325
 2.3730	76.0169
 2.3720	76.2976
 2.3710	76.4578
 2.3700	76.5119
 2.3690	76.6699
 2.3680	76.8937
 2.3670	77.0280
 2.3660	77.1722
 2.3650	77.3727
 2.3640	77.5529
 2.3630	77.6157
 2.3620	77.6927
 2.3610	77.8965
 2.3600	78.0378
 2.3590	78.1517
 2.3580	78.2338
 2.3570	78.3381
 2.3560	78.5086
 2.3550	78.5482
 2.3540	78.6136
 2.3530	78.7191
 2.3520	78.8010
 2.3510	78.9024
 2.3500	78.9548
 2.3490	79.0396
 2.3480	79.0840
 2.3470	79.1403
 2.3460	79.2140
 2.3450	79.2347
 2.3440	79.2644
 2.3430	79.3178
 2.3420	79.3641
 2.3410	79.3702
 2.3400	79.3431
 2.3390	79.3118
 2.3380	79.3005
 2.3370	79.3524
 2.3360	79.3457
 2.3350	79.2874
 2.3340	79.2623
 2.3330	79.1839
 2.3320	79.2537
 2.3310	79.2100
 2.3300	79.1138
 2.3290	79.0062
 2.3280	78.8806
 2.3270	78.8475
 2.3260	78.7570
 2.3250	78.6560
 2.3240	78.5406
 2.3230	78.4611
 2.3220	78.2844
 2.3210	78.0941
 2.3200	77.9488
 2.3190	77.7797
 2.3180	77.6002
 2.3170	77.4323
 2.3160	77.1979
 2.3150	77.0390
 2.3140	76.8271
 2.3130	76.5494
 2.3120	76.3137
 2.3110	76.1349
 2.3100	75.9535
 2.3090	75.6671
 2.3080	75.4408
 2.3070	75.2654
 2.3060	75.0320
 2.3050	74.8549
 2.3040	74.6941
 2.3030	74.5053
 2.3020	74.2847
 2.3010	74.1100
 2.3000	73.9763
 2.2990	73.8206
 2.2980	73.6709
 2.2970	73.4547
 2.2960	73.3717
 2.2950	73.2038
 2.2940	73.0061
 2.2930	72.8370
 2.2920	72.5843
 2.2910	72.3127
 2.2900	72.1119
 2.2890	71.7959
 2.2880	71.4881
 2.2870	71.2683
 2.2860	70.9674
 2.2850	70.5920
 2.2840	70.2809
 2.2830	69.9170
 2.2820	69.4659
 2.2810	69.1745
 2.2800	68.8600
 2.2790	68.5026
 2.2780	68.1228
 2.2770	67.8575
 2.2760	67.5790
 2.2750	67.2270
 2.2740	66.9346
 2.2730	66.7543
 2.2720	66.5127
 2.2710	66.4015
 2.2700	66.1459
 2.2690	66.1231
 2.2680	65.9796
 2.2670	65.9673
 2.2660	65.9243
 2.2650	66.0235
 2.2640	66.1016
 2.2630	66.1862
 2.2620	66.2581
 2.2610	66.3790
 2.2600	66.6311
 2.2590	66.8633
 2.2580	67.1250
 2.2570	67.4321
 2.2560	67.7202
 2.2550	68.0544
 2.2540	68.4593
 2.2530	68.7686
 2.2520	69.0865
 2.2510	69.4333
 2.2500	69.8031
 2.2490	70.0841
 2.2480	70.4956
 2.2470	70.8027
 2.2460	70.9655
 2.2450	71.2688
 2.2440	71.4248
 2.2430	71.6518
 2.2420	71.8113
 2.2410	71.9926
 2.2400	72.0873
 2.2390	72.2095
 2.2380	72.2948
 2.2370	72.4269
 2.2360	72.4651
 2.2350	72.5577
 2.2340	72.5383
 2.2330	72.6280
 2.2320	72.7074
 2.2310	72.7747
 2.2300	72.8185
 2.2290	72.8334
 2.2280	72.8592
 2.2270	73.0228
 2.2260	73.0927
 2.2250	73.1926
 2.2240	73.2970
 2.2230	73.4360
 2.2220	73.4476
 2.2210	73.5018
 2.2200	73.7070
 2.2190	73.8585
 2.2180	73.9292
 2.2170	74.0749
 2.2160	74.1664
 2.2150	74.3207
 2.2140	74.5031
 2.2130	74.7351
 2.2120	74.8049
 2.2110	74.8030
 2.2100	75.1102
 2.2090	75.2410
 2.2080	75.2775
 2.2070	75.4849
 2.2060	75.5091
 2.2050	75.7926
 2.2040	75.8598
 2.2030	75.9948
 2.2020	76.0673
 2.2010	76.2840
 2.2000	76.4199
 2.1990	76.5160
 2.1980	76.6349
 2.1970	76.7476
 2.1960	76.8341
 2.1950	76.9118
 2.1940	77.0640
 2.1930	77.2032
 2.1920	77.2458
 2.1910	77.4299
 2.1900	77.4799
 2.1890	77.5971
 2.1880	77.6890
 2.1870	77.8008
 2.1860	77.8956
 2.1850	78.0749
 2.1840	78.2312
 2.1830	78.2154
 2.1820	78.2545
 2.1810	78.4267
 2.1800	78.5265
 2.1790	78.5261
 2.1780	78.6174
 2.1770	78.7425
 2.1760	78.8205
 2.1750	78.8457
 2.1740	78.9542
 2.1730	79.0148
 2.1720	79.1610
 2.1710	79.1613
 2.1700	79.3226
 2.1690	79.3155
 2.1680	79.3970
 2.1670	79.4613
 2.1660	79.4817
 2.1650	79.5616
 2.1640	79.6336
 2.1630	79.7548
 2.1620	79.7544
 2.1610	79.7641
 2.1600	79.8785
 2.1590	79.9243
 2.1580	79.8984
 2.1570	80.1269
 2.1560	80.0951
 2.1550	80.1759
 2.1540	80.2572
 2.1530	80.3269
 2.1520	80.3147
 2.1510	80.4588
 2.1500	80.4720
 2.1490	80.4902
 2.1480	80.4915
 2.1470	80.6442
 2.1460	80.6403
 2.1450	80.6474
 2.1440	80.6385
 2.1430	80.7235
 2.1420	80.7992
 2.1410	80.8901
 2.1400	80.8618
 2.1390	80.8601
 2.1380	80.8500
 2.1370	80.9557
 2.1360	81.0393
 2.1350	81.0602
 2.1340	81.0543
 2.1330	81.0679
 2.1320	81.0836
 2.1310	81.1233
 2.1300	81.1909
 2.1290	81.2137
 2.1280	81.1248
 2.1270	81.1480
 2.1260	81.1246
 2.1250	81.1182
 2.1240	81.1367
 2.1230	81.1034
 2.1220	81.0813
 2.1210	81.1510
 2.1200	81.1583
 2.1190	81.1509
 2.1180	81.1303
 2.1170	81.1339
 2.1160	81.1494
 2.1150	81.1573
 2.1140	81.0805
 2.1130	81.0509
 2.1120	81.0577
 2.1110	81.0767
 2.1100	81.0347
 2.1090	81.0929
 2.1080	81.0084
 2.1070	81.0403
 2.1060	81.0549
 2.1050	81.0350
 2.1040	81.0534
 2.1030	81.0675
 2.1020	81.0624
 2.1010	81.0271
 2.1000	81.0173
 2.0990	81.0516
 2.0980	81.0832
 2.0970	81.1470
 2.0960	81.1886
 2.0950	81.2028
 2.0940	81.2320
 2.0930	81.3173
 2.0920	81.3085
 2.0910	81.2582
 2.0900	81.3571
 2.0890	81.4286
 2.0880	81.4022
 2.0870	81.4507
 2.0860	81.5492
 2.0850	81.6209
 2.0840	81.6114
 2.0830	81.5835
 2.0820	81.5993
 2.0810	81.6718
 2.0800	81.7311
 2.0790	81.7834
 2.0780	81.7582
 2.0770	81.7716
 2.0760	81.9110
 2.0750	81.9880
 2.0740	82.0202
 2.0730	82.0326
 2.0720	82.0627
 2.0710	82.0981
 2.0700	82.1566
 2.0690	82.2231
 2.0680	82.2445
 2.0670	82.2669
 2.0660	82.2992
 2.0650	82.3182
 2.0640	82.4203
 2.0630	82.4684
 2.0620	82.5031
 2.0610	82.5444
 2.0600	82.5689
 2.0590	82.6498
 2.0580	82.7117
 2.0570	82.7480
 2.0560	82.7688
 2.0550	82.8434
 2.0540	82.9150
 2.0530	82.9346
 2.0520	82.9708
 2.0510	83.0062
 2.0500	83.0763
 2.0490	83.1226
 2.0480	83.1447
 2.0470	83.2831
 2.0460	83.3547
 2.0450	83.3813
 2.0440	83.3794
 2.0430	83.4010
 2.0420	83.4674
 2.0410	83.5080
 2.0400	83.5809
 2.0390	83.6343
 2.0380	83.6541
 2.0370	83.7399
 2.0360	83.7510
 2.0350	83.8029
 2.0340	83.8989
 2.0330	83.9713
 2.0320	84.0394
 2.0310	84.0792
 2.0300	84.1331
 2.0290	84.1752
 2.0280	84.1766
 2.0270	84.2764
 2.0260	84.3885
 2.0250	84.4022
 2.0240	84.3280
 2.0230	84.3687
 2.0220	84.4540
 2.0210	84.5025
 2.0200	84.5087
 2.0190	84.5160
 2.0180	84.5972
 2.0170	84.5909
 2.0160	84.5688
 2.0150	84.6199
 2.0140	84.6957
 2.0130	84.6440
 2.0120	84.6056
 2.0110	84.6208
 2.0100	84.6455
 2.0090	84.6590
 2.0080	84.6944
 2.0070	84.7288
 2.0060	84.7632
 2.0050	84.8064
 2.0040	84.8351
 2.0030	84.7678
 2.0020	84.8463
 2.0010	84.7954
 2.0000	84.9006
 1.9990	84.8961
 1.9980	84.8430
 1.9970	84.9179
 1.9960	84.8971
 1.9950	84.9338
 1.9940	85.0627
 1.9930	85.0954
 1.9920	85.0205
 1.9910	85.1067
 1.9900	85.1259
 1.9890	85.1419
 1.9880	85.1963
 1.9870	85.1069
 1.9860	85.1827
 1.9850	85.2493
 1.9840	85.1919
 1.9830	85.2427
 1.9820	85.2440
 1.9810	85.2912
 1.9800	85.4354
 1.9790	85.4293
 1.9780	85.3371
 1.9770	85.3243
 1.9760	85.4360
 1.9750	85.2972
 1.9740	85.3681
 1.9730	85.4164
 1.9720	85.3470
 1.9710	85.3861
 1.9700	85.5273
 1.9690	85.5303
 1.9680	85.4253
 1.9670	85.4777
 1.9660	85.4299
 1.9650	85.4547
 1.9640	85.4890
 1.9630	85.4431
 1.9620	85.5021
 1.9610	85.5121
 1.9600	85.5377
 1.9590	85.6458
 1.9580	85.6208
 1.9570	85.5982
 1.9560	85.6364
 1.9550	85.7141
 1.9540	85.7242
 1.9530	85.6964
 1.9520	85.7211
 1.9510	85.6673
 1.9500	85.8056
 1.9490	85.8079
 1.9480	85.8784
 1.9470	85.8144
 1.9460	85.8067
 1.9450	85.7421
 1.9440	85.8491
 1.9430	85.8144
 1.9420	85.8653
 1.9410	85.8736
 1.9400	85.9645
 1.9390	85.9236
 1.9380	86.0041
 1.9370	85.9970
 1.9360	86.0624
 1.9350	85.9911
 1.9340	86.1739
 1.9330	86.0992
 1.9320	86.1604
 1.9310	86.2130
 1.9300	86.2839
 1.9290	86.4050
 1.9280	86.4216
 1.9270	86.3653
 1.9260	86.4653
 1.9250	86.5502
 1.9240	86.5440
 1.9230	86.6433
 1.9220	86.7584
 1.9210	86.7687
 1.9200	86.8819
 1.9190	86.9021
 1.9180	86.9977
 1.9170	86.9760
 1.9160	87.0884
 1.9150	87.1388
 1.9140	87.2061
 1.9130	87.2982
 1.9120	87.2607
 1.9110	87.2740
 1.9100	87.4019
 1.9090	87.4536
 1.9080	87.4794
 1.9070	87.4732
 1.9060	87.5399
 1.9050	87.5966
 1.9040	87.6524
 1.9030	87.6787
 1.9020	87.7883
 1.9010	87.7466
 1.9000	87.7936
 1.8990	87.8432
 1.8980	87.7951
 1.8970	87.8736
 1.8960	87.8632
 1.8950	87.8941
 1.8940	87.9048
 1.8930	87.9221
 1.8920	87.8233
 1.8910	87.8625
 1.8900	87.8263
 1.8890	87.8044
 1.8880	87.7950
 1.8870	87.7341
 1.8860	87.6542
 1.8850	87.6755
 1.8840	87.5265
 1.8830	87.4662
 1.8820	87.4609
 1.8810	87.3236
 1.8800	87.2176
 1.8790	87.1460
 1.8780	86.9997
 1.8770	86.8360
 1.8760	86.5644
 1.8750	86.3951
 1.8740	86.1986
 1.8730	85.8593
 1.8720	85.4677
 1.8710	85.2118
 1.8700	84.8651
 1.8690	84.4714
 1.8680	84.1830
 1.8670	83.8659
 1.8660	83.5293
 1.8650	83.2731
 1.8640	83.0117
 1.8630	82.8570
 1.8620	82.7078
 1.8610	82.5905
 1.8600	82.4972
 1.8590	82.3297
 1.8580	82.2211
 1.8570	82.2001
 1.8560	82.1384
 1.8550	82.0055
 1.8540	81.8822
 1.8530	81.7963
 1.8520	81.6475
 1.8510	81.4375
 1.8500	81.2339
 1.8490	81.1299
 1.8480	81.0527
 1.8470	80.9558
 1.8460	81.0021
 1.8450	81.0372
 1.8440	81.1713
 1.8430	81.4061
 1.8420	81.6782
 1.8410	81.9006
 1.8400	82.3029
 1.8390	82.7057
 1.8380	83.0664
 1.8370	83.5293
 1.8360	83.9118
 1.8350	84.2590
 1.8340	84.5825
 1.8330	84.9799
 1.8320	85.2402
 1.8310	85.5346
 1.8300	85.8492
 1.8290	86.0932
 1.8280	86.3877
 1.8270	86.5542
 1.8260	86.7337
 1.8250	86.9027
 1.8240	87.0989
 1.8230	87.2085
 1.8220	87.3266
 1.8210	87.3765
 1.8200	87.4562
 1.8190	87.4968
 1.8180	87.5883
 1.8170	87.7199
 1.8160	87.8632
 1.8150	87.9482
 1.8140	88.0145
 1.8130	88.1025
 1.8120	88.2039
 1.8110	88.2774
 1.8100	88.3675
 1.8090	88.4117
 1.8080	88.4768
 1.8070	88.6101
 1.8060	88.7049
 1.8050	88.6914
 1.8040	88.7931
 1.8030	88.9351
 1.8020	88.9473
 1.8010	89.0229
 1.8000	89.0851
 1.7990	89.1001
 1.7980	89.1537
 1.7970	89.1664
 1.7960	89.2162
 1.7950	89.2219
 1.7940	89.2143
 1.7930	89.2277
 1.7920	89.2628
 1.7910	89.3123
 1.7900	89.2841
 1.7890	89.3204
 1.7880	89.3738
 1.7870	89.3695
 1.7860	89.4031
 1.7850	89.4246
 1.7840	89.3932
 1.7830	89.3695
 1.7820	89.4831
 1.7810	89.5218
 1.7800	89.5175
 1.7790	89.5358
 1.7780	89.5192
 1.7770	89.5358
 1.7760	89.6097
 1.7750	89.6269
 1.7740	89.5943
 1.7730	89.6709
 1.7720	89.6650
 1.7710	89.6793
 1.7700	89.6718
 1.7690	89.6556
 1.7680	89.6974
 1.7670	89.7517
 1.7660	89.7771
 1.7650	89.7400
 1.7640	89.7345
 1.7630	89.8261
 1.7620	89.8477
 1.7610	89.8427
 1.7600	89.8154
 1.7590	89.8521
 1.7580	89.9265
 1.7570	89.9369
 1.7560	89.9106
 1.7550	89.9305
 1.7540	89.9756
 1.7530	90.0579
 1.7520	90.1088
 1.7510	90.0703
 1.7500	90.0602
 1.7490	90.0857
 1.7480	90.0948
 1.7470	90.0706
 1.7460	90.0951
 1.7450	90.1536
 1.7440	90.1483
 1.7430	90.1987
 1.7420	90.2299
 1.7410	90.2279
 1.7400	90.2091
 1.7390	90.2486
 1.7380	90.3374
 1.7370	90.3347
 1.7360	90.3955
 1.7350	90.4114
 1.7340	90.3647
 1.7330	90.3700
 1.7320	90.4084
 1.7310	90.3913
 1.7300	90.3923
 1.7290	90.3568
 1.7280	90.4405
 1.7270	90.3516
 1.7260	90.4279
 1.7250	90.4369
 1.7240	90.4655
 1.7230	90.3833
 1.7220	90.4081
 1.7210	90.5005
 1.7200	90.4599
 1.7190	90.5349
 1.7180	90.5071
 1.7170	90.4553
 1.7160	90.4567
 1.7150	90.4397
 1.7140	90.3854
 1.7130	90.4644
 1.7120	90.3738
 1.7110	90.3979
 1.7100	90.5032
 1.7090	90.4081
 1.7080	90.3208
 1.7070	90.3949
 1.7060	90.4022
 1.7050	90.3941
 1.7040	90.3828
 1.7030	90.3708
 1.7020	90.4339
 1.7010	90.3244
 1.7000	90.4109
 1.6990	90.3864
 1.6980	90.3638
 1.6970	90.2582
 1.6960	90.2933
 1.6950	90.3176
 1.6940	90.2811
 1.6930	90.3417
 1.6920	90.2398
 1.6910	90.2946
 1.6900	90.2574
 1.6890	90.3088
 1.6880	90.2365
 1.6870	90.1755
 1.6860	90.1684
 1.6850	90.1645
 1.6840	90.1751
 1.6830	90.2171
 1.6820	90.1349
 1.6810	90.0705
 1.6800	90.0756
 1.6790	90.1219
 1.6780	90.0803
 1.6770	90.1494
 1.6760	90.0763
 1.6750	90.0777
 1.6740	90.0549
 1.6730	90.0486
 1.6720	90.0138
 1.6710	90.0236
 1.6700	90.0531
 1.6690	90.0398
 1.6680	89.9212
 1.6670	90.0048
 1.6660	89.9258
 1.6650	89.9610
 1.6640	89.9181
 1.6630	89.8542
 1.6620	89.8570
 1.6610	89.8917
 1.6600	89.7679
 1.6590	89.8832
 1.6580	89.7970
 1.6570	89.8588
 1.6560	89.8257
 1.6550	89.8143
 1.6540	89.6956
 1.6530	89.8076
 1.6520	89.7140
 1.6510	89.6395
 1.6500	89.6905
 1.6490	89.7147
 1.6480	89.6228
 1.6470	89.6259
 1.6460	89.7285
 1.6450	89.6518
 1.6440	89.5934
 1.6430	89.6200
 1.6420	89.6749
 1.6410	89.5999
 1.6400	89.5875
 1.6390	89.5506
 1.6380	89.4285
 1.6370	89.4670
 1.6360	89.4364
 1.6350	89.6033
 1.6340	89.4789
 1.6330	89.4626
 1.6320	89.4351
 1.6310	89.3638
 1.6300	89.4232
 1.6290	89.3833
 1.6280	89.3199
 1.6270	89.3262
 1.6260	89.2175
 1.6250	89.2883
 1.6240	89.2735
 1.6230	89.2591
 1.6220	89.2074
 1.6210	89.2429
 1.6200	89.1432
 1.6190	89.1650
 1.6180	89.1010
 1.6170	89.0113
 1.6160	89.0401
 1.6150	89.0570
 1.6140	89.0667
 1.6130	88.9581
 1.6120	89.0002
 1.6110	89.0212
 1.6100	88.9324
 1.6090	88.8907
 1.6080	88.9102
 1.6070	88.8780
 1.6060	88.8847
 1.6050	88.8688
 1.6040	88.7467
 1.6030	88.7739
 1.6020	88.8089
 1.6010	88.7334
 1.6000	88.6367
 1.5990	88.6795
 1.5980	88.6715
 1.5970	88.5589
 1.5960	88.5638
 1.5950	88.5121
 1.5940	88.4675
 1.5930	88.4194
 1.5920	88.3416
 1.5910	88.3948
 1.5900	88.3575
 1.5890	88.3340
 1.5880	88.2559
 1.5870	88.2036
 1.5860	88.1491
 1.5850	88.1005
 1.5840	87.9746
 1.5830	87.9951
 1.5820	87.9761
 1.5810	87.9361
 1.5800	87.8719
 1.5790	87.8214
 1.5780	87.7137
 1.5770	87.6905
 1.5760	87.6998
 1.5750	87.5612
 1.5740	87.5233
 1.5730	87.4811
 1.5720	87.4569
 1.5710	87.4173
 1.5700	87.2597
 1.5690	87.2088
 1.5680	87.2440
 1.5670	87.2329
 1.5660	87.1786
 1.5650	87.1141
 1.5640	87.0710
 1.5630	87.0327
 1.5620	87.0142
 1.5610	86.8931
 1.5600	86.9129
 1.5590	86.8289
 1.5580	86.6973
 1.5570	86.6914
 1.5560	86.6687
 1.5550	86.6038
 1.5540	86.5850
 1.5530	86.5675
 1.5520	86.4366
 1.5510	86.3706
 1.5500	86.4171
 1.5490	86.4478
 1.5480	86.4054
 1.5470	86.3565
 1.5460	86.3033
 1.5450	86.2784
 1.5440	86.2875
 1.5430	86.3118
 1.5420	86.2380
 1.5410	86.2569
 1.5400	86.2684
 1.5390	86.2843
 1.5380	86.2771
 1.5370	86.2531
 1.5360	86.2434
 1.5350	86.2648
 1.5340	86.2149
 1.5330	86.1750
 1.5320	86.2046
 1.5310	86.2344
 1.5300	86.2222
 1.5290	86.2359
 1.5280	86.2541
 1.5270	86.2692
 1.5260	86.2679
 1.5250	86.2405
 1.5240	86.2858
 1.5230	86.3181
 1.5220	86.3318
 1.5210	86.3513
 1.5200	86.3587
 1.5190	86.3889
 1.5180	86.4103
 1.5170	86.4498
 1.5160	86.4449
 1.5150	86.4906
 1.5140	86.5406
 1.5130	86.5007
 1.5120	86.4686
 1.5110	86.4678
 1.5100	86.5261
 1.5090	86.5922
 1.5080	86.6065
 1.5070	86.5746
 1.5060	86.5683
 1.5050	86.4994
 1.5040	86.4440
 1.5030	86.4448
 1.5020	86.4882
 1.5010	86.4843
 1.5000	86.3513
 1.4990	86.3478
 1.4980	86.3363
 1.4970	86.1947
 1.4960	86.1165
 1.4950	86.0600
 1.4940	86.0003
 1.4930	85.9153
 1.4920	85.7595
 1.4910	85.5456
 1.4900	85.3134
 1.4890	84.9927
 1.4880	84.6608
 1.4870	84.2547
 1.4860	83.7896
 1.4850	83.3269
 1.4840	82.8208
 1.4830	82.3720
 1.4820	81.9832
 1.4810	81.6489
 1.4800	81.4316
 1.4790	81.3360
 1.4780	81.2733
 1.4770	81.2292
 1.4760	81.2617
 1.4750	81.4126
 1.4740	81.6588
 1.4730	81.8751
 1.4720	82.2047
 1.4710	82.5027
 1.4700	82.7335
 1.4690	83.0547
 1.4680	83.3565
 1.4670	83.6486
 1.4660	83.9974
 1.4650	84.2411
 1.4640	84.5038
 1.4630	84.8390
 1.4620	85.1382
 1.4610	85.3807
 1.4600	85.6404
 1.4590	85.8844
 1.4580	86.1194
 1.4570	86.3735
 1.4560	86.5285
 1.4550	86.6905
 1.4540	86.8766
 1.4530	86.9821
 1.4520	87.0517
 1.4510	87.1209
 1.4500	87.1758
 1.4490	87.2930
 1.4480	87.3471
 1.4470	87.4246
 1.4460	87.4836
 1.4450	87.5938
 1.4440	87.5965
 1.4430	87.6034
 1.4420	87.6848
 1.4410	87.6935
 1.4400	87.7111
 1.4390	87.7062
 1.4380	87.7326
 1.4370	87.6908
 1.4360	87.7941
 1.4350	87.8006
 1.4340	87.7524
 1.4330	87.7044
 1.4320	87.7675
 1.4310	87.7474
 1.4300	87.7308
 1.4290	87.7399
 1.4280	87.8131
 1.4270	87.7830
 1.4260	87.7146
 1.4250	87.7325
 1.4240	87.7449
 1.4230	87.6557
 1.4220	87.6878
 1.4210	87.6296
 1.4200	87.6657
 1.4190	87.6422
 1.4180	87.6566
 1.4170	87.6325
 1.4160	87.6456
 1.4150	87.5692
 1.4140	87.5028
 1.4130	87.4192
 1.4120	87.5237
 1.4110	87.5317
 1.4100	87.5258
 1.4090	87.3710
 1.4080	87.3991
 1.4070	87.3943
 1.4060	87.2612
 1.4050	87.2237
 1.4040	87.2722
 1.4030	87.2077
 1.4020	87.1804
 1.4010	87.2675
 1.4000	87.0673
 1.3990	87.0040
 1.3980	86.9525
 1.3970	86.9484
 1.3960	86.9518
 1.3950	86.8906
 1.3940	86.9000
 1.3930	86.8469
 1.3920	86.8373
 1.3910	86.7014
 1.3900	86.6483
 1.3890	86.6169
 1.3880	86.5634
 1.3870	86.5125
 1.3860	86.5189
 1.3850	86.3776
 1.3840	86.3599
 1.3830	86.2937
 1.3820	86.2636
 1.3810	86.1837
 1.3800	86.1849
 1.3790	86.1955
 1.3780	86.0343
 1.3770	85.9901
 1.3760	85.9838
 1.3750	85.9030
 1.3740	85.9262
 1.3730	85.8042
 1.3720	85.7809
 1.3710	85.6988
 1.3700	85.7600
 1.3690	85.6493
 1.3680	85.5982
 1.3670	85.5145
 1.3660	85.4262
 1.3650	85.4767
 1.3640	85.3655
 1.3630	85.4004
 1.3620	85.3053
 1.3610	85.2611
 1.3600	85.1773
 1.3590	85.0980
 1.3580	85.0429
 1.3570	85.0619
 1.3560	85.1114
 1.3550	84.8962
 1.3540	84.8086
 1.3530	84.8083
 1.3520	84.7524
 1.3510	84.6126
 1.3500	84.5888
 1.3490	84.4887
 1.3480	84.4522
 1.3470	84.4883
 1.3460	84.4203
 1.3450	84.3811
 1.3440	84.2979
 1.3430	84.1179
 1.3420	84.1669
 1.3410	84.1441
 1.3400	83.9614
 1.3390	83.9128
 1.3380	83.8539
 1.3370	83.7807
 1.3360	83.7567
 1.3350	83.6667
 1.3340	83.5802
 1.3330	83.4832
 1.3320	83.3955
 1.3310	83.3826
 1.3300	83.3441
 1.3290	83.2781
 1.3280	83.1822
 1.3270	83.2307
 1.3260	83.1137
 1.3250	83.0435
 1.3240	82.9797
 1.3230	82.8819
 1.3220	82.7911
 1.3210	82.7644
 1.3200	82.7453
 1.3190	82.6463
 1.3180	82.5575
 1.3170	82.4482
 1.3160	82.3773
 1.3150	82.3789
 1.3140	82.3506
 1.3130	82.2549
 1.3120	82.2041
 1.3110	82.0943
 1.3100	82.0968
 1.3090	82.0067
 1.3080	81.9088
 1.3070	81.8278
 1.3060	81.7442
 1.3050	81.6407
 1.3040	81.6690
 1.3030	81.5327
 1.3020	81.4975
 1.3010	81.4380
 1.3000	81.3359
 1.2990	81.3106
 1.2980	81.1793
 1.2970	81.1001
 1.2960	81.0952
 1.2950	81.0095
 1.2940	80.9864
 1.2930	80.9054
 1.2920	80.7957
 1.2910	80.7165
 1.2900	80.6898
 1.2890	80.5584
 1.2880	80.4523
 1.2870	80.3487
 1.2860	80.4046
 1.2850	80.2777
 1.2840	80.2202
 1.2830	80.1476
 1.2820	80.0868
 1.2810	80.0324
 1.2800	79.9064
 1.2790	79.8392
 1.2780	79.7232
 1.2770	79.6729
 1.2760	79.6964
 1.2750	79.6032
 1.2740	79.5702
 1.2730	79.4906
 1.2720	79.4364
 1.2710	79.3680
 1.2700	79.3227
 1.2690	79.1695
 1.2680	79.1197
 1.2670	79.0340
 1.2660	78.9593
 1.2650	78.8989
 1.2640	78.8194
 1.2630	78.7063
 1.2620	78.6301
 1.2610	78.5723
 1.2600	78.4630
 1.2590	78.4246
 1.2580	78.3437
 1.2570	78.3079
 1.2560	78.2745
 1.2550	78.1927
 1.2540	78.1073
 1.2530	78.0519
 1.2520	77.9252
 1.2510	77.8416
 1.2500	77.7834
 1.2490	77.7385
 1.2480	77.6209
 1.2470	77.5385
 1.2460	77.5746
 1.2450	77.5096
 1.2440	77.3789
 1.2430	77.2834
 1.2420	77.2279
 1.2410	77.1636
 1.2400	77.0609
 1.2390	76.9636
 1.2380	76.9104
 1.2370	76.8683
 1.2360	76.7810
 1.2350	76.7222
 1.2340	76.6326
 1.2330	76.4999
 1.2320	76.4822
 1.2310	76.4153
 1.2300	76.3349
 1.2290	76.2387
 1.2280	76.1015
 1.2270	76.0306
 1.2260	76.0025
 1.2250	75.9792
 1.2240	75.9176
 1.2230	75.8052
 1.2220	75.7171
 1.2210	75.6687
 1.2200	75.6191
 1.2190	75.5270
 1.2180	75.3703
 1.2170	75.3330
 1.2160	75.2844
 1.2150	75.1668
 1.2140	75.0832
 1.2130	75.0119
 1.2120	74.9677
 1.2110	74.9010
 1.2100	74.8278
 1.2090	74.7376
 1.2080	74.6572
 1.2070	74.6437
 1.2060	74.5853
 1.2050	74.4635
 1.2040	74.4104
 1.2030	74.3431
 1.2020	74.2275
 1.2010	74.1695
 1.2000	74.1347
 1.1990	74.0649
 1.1980	73.9699
 1.1970	73.8780
 1.1960	73.8057
 1.1950	73.8271
 1.1940	73.7055
 1.1930	73.6006
 1.1920	73.5021
 1.1910	73.4548
 1.1900	73.4016
 1.1890	73.3668
 1.1880	73.2473
 1.1870	73.1198
 1.1860	73.0669
 1.1850	73.0080
 1.1840	72.9246
 1.1830	72.8477
 1.1820	72.7709
 1.1810	72.6985
 1.1800	72.6183
 1.1790	72.5845
 1.1780	72.4802
 1.1770	72.4433
 1.1760	72.3886
 1.1750	72.3120
 1.1740	72.2586
 1.1730	72.1797
 1.1720	72.0652
 1.1710	72.0272
 1.1700	71.9309
 1.1690	71.8674
 1.1680	71.7735
 1.1670	71.7081
 1.1660	71.6237
 1.1650	71.5697
 1.1640	71.4914
 1.1630	71.4125
 1.1620	71.3428
 1.1610	71.2912
 1.1600	71.1893
 1.1590	71.1836
 1.1580	71.0748
 1.1570	71.0296
 1.1560	70.8699
 1.1550	70.8166
 1.1540	70.7634
 1.1530	70.7066
 1.1520	70.5769
 1.1510	70.4548
 1.1500	70.3997
 1.1490	70.4145
 1.1480	70.2295
 1.1470	70.2020
 1.1460	70.1308
 1.1450	70.0995
 1.1440	69.9290
 1.1430	69.9208
 1.1420	69.7913
 1.1410	69.7687
 1.1400	69.6914
 1.1390	69.5707
 1.1380	69.5522
 1.1370	69.4219
 1.1360	69.3401
 1.1350	69.3256
 1.1340	69.2157
 1.1330	69.1568
 1.1320	69.0473
 1.1310	68.9332
 1.1300	68.9185
 1.1290	68.8536
 1.1280	68.7467
 1.1270	68.6980
 1.1260	68.6118
 1.1250	68.5054
 1.1240	68.3960
 1.1230	68.2888
 1.1220	68.2787
 1.1210	68.2085
 1.1200	68.0346
 1.1190	67.9687
 1.1180	67.9085
 1.1170	67.8709
 1.1160	67.7389
 1.1150	67.6706
 1.1140	67.6141
 1.1130	67.5422
 1.1120	67.4024
 1.1110	67.3444
 1.1100	67.2170
 1.1090	67.1410
 1.1080	67.0146
 1.1070	67.0272
 1.1060	66.9303
 1.1050	66.9171
 1.1040	66.7061
 1.1030	66.5367
 1.1020	66.5013
 1.1010	66.4393
 1.1000	66.3087
 1.0990	66.2183
 1.0980	66.1790
 1.0970	66.0535
 1.0960	65.9331
 1.0950	65.8657
 1.0940	65.6858
 1.0930	65.6638
 1.0920	65.5634
 1.0910	65.4115
 1.0900	65.3900
 1.0890	65.2888
 1.0880	65.2079
 1.0870	65.1693
 1.0860	64.9925
 1.0850	64.9402
 1.0840	64.7850
 1.0830	64.7212
 1.0820	64.5767
 1.0810	64.4848
 1.0800	64.3940
 1.0790	64.3646
 1.0780	64.1869
 1.0770	64.0766
 1.0760	64.0458
 1.0750	63.8384
 1.0740	63.8220
 1.0730	63.6340
 1.0720	63.5504
 1.0710	63.4787
 1.0700	63.2406
 1.0690	63.1648
 1.0680	63.0015
 1.0670	62.9586
 1.0660	62.8784
 1.0650	62.6733
 1.0640	62.6053
 1.0630	62.5108
 1.0620	62.3573
 1.0610	62.2601
 1.0600	62.1037
 1.0590	62.0772
 1.0580	61.9497
 1.0570	61.8213
 1.0560	61.6758
 1.0550	61.6006
 1.0540	61.4638
 1.0530	61.4013
 1.0520	61.2355
 1.0510	61.1233
 1.0500	60.9736
 1.0490	60.8666
 1.0480	60.7730
 1.0470	60.5990
 1.0460	60.5048
 1.0450	60.3836
 1.0440	60.2883
 1.0430	60.1047
 1.0420	59.9662
 1.0410	59.8556
 1.0400	59.7637
 1.0390	59.6245
 1.0380	59.5404
 1.0370	59.4393
 1.0360	59.2535
 1.0350	59.0969
 1.0340	59.0147
 1.0330	58.8737
 1.0320	58.7370
 1.0310	58.6505
 1.0300	58.4907
 1.0290	58.4145
 1.0280	58.2595
 1.0270	58.1362
 1.0260	57.9569
 1.0250	57.8521
 1.0240	57.7477
 1.0230	57.6509
 1.0220	57.4976
 1.0210	57.4693
 1.0200	57.2726
 1.0190	57.1457
 1.0180	56.9976
 1.0170	56.8944
 1.0160	56.7811
 1.0150	56.7373
 1.0140	56.6016
 1.0130	56.4631
 1.0120	56.3474
 1.0110	56.1885
 1.0100	56.0423
 1.0090	55.9941
 1.0080	55.8786
 1.0070	55.7982
 1.0060	55.5821
 1.0050	55.5557
 1.0040	55.3770
 1.0030	55.3068
 1.0020	55.2324
 1.0010	55.2063
 1.0000	54.9806
 0.9990	54.8862
 0.9980	54.8008
 0.9970	54.7550
 0.9960	54.6312
 0.9950	54.5621
 0.9940	54.4796
 0.9930	54.4261
 0.9920	54.2126
 0.9910	54.1163
 0.9900	54.0259
 0.9890	53.9811
 0.9880	53.8381
 0.9870	53.7666
 0.9860	53.6801
 0.9850	53.5982
 0.9840	53.4708
 0.9830	53.3945
 0.9820	53.3061
 0.9810	53.2198
 0.9800	53.1044
 0.9790	53.0923
 0.9780	52.9488
 0.9770	52.8760
 0.9760	52.8223
 0.9750	52.7484
 0.9740	52.7008
 0.9730	52.5980
 0.9720	52.5014
 0.9710	52.4857
 0.9700	52.3473
 0.9690	52.2280
 0.9680	52.1698
 0.9670	52.1903
 0.9660	52.0578
 0.9650	51.9664
 0.9640	51.9004
 0.9630	51.8884
 0.9620	51.8608
 0.9610	51.8025
 0.9600	51.7225
 0.9590	51.6403
 0.9580	51.5876
 0.9570	51.5628
 0.9560	51.5036
 0.9550	51.4585
 0.9540	51.4035
 0.9530	51.3775
 0.9520	51.2740
 0.9510	51.1938
 0.9500	51.1560
 0.9490	51.1508
 0.9480	51.1104
 0.9470	51.0254
 0.9460	50.9195
 0.9450	50.9914
 0.9440	50.9962
 0.9430	50.9115
 0.9420	50.8631
 0.9410	50.8066
 0.9400	50.7851
 0.9390	50.7584
 0.9380	50.7198
 0.9370	50.7837
 0.9360	50.7340
 0.9350	50.6325
 0.9340	50.6409
 0.9330	50.5669
 0.9320	50.5434
 0.9310	50.6156
 0.9300	50.5979
 0.9290	50.5101
 0.9280	50.4824
 0.9270	50.5147
 0.9260	50.4423
 0.9250	50.4405
 0.9240	50.4963
 0.9230	50.4734
 0.9220	50.4693
 0.9210	50.5102
 0.9200	50.4718
 0.9190	50.4053
 0.9180	50.4434
 0.9170	50.4270
 0.9160	50.3590
 0.9150	50.3734
 0.9140	50.3921
 0.9130	50.4073
 0.9120	50.4771
 0.9110	50.4325
 0.9100	50.4015
 0.9090	50.4282
 0.9080	50.4909
 0.9070	50.4980
 0.9060	50.5322
 0.9050	50.4979
 0.9040	50.5330
 0.9030	50.5755
 0.9020	50.5881
 0.9010	50.5922
 0.9000	50.6481
 0.8990	50.6500
 0.8980	50.6722
 0.8970	50.7320
 0.8960	50.7128
 0.8950	50.6906
 0.8940	50.7987
 0.8930	50.8620
 0.8920	50.8562
 0.8910	50.8889
 0.8900	50.9766
 0.8890	50.9725
 0.8880	51.0320
 0.8870	51.0988
 0.8860	51.1324
 0.8850	51.1225
 0.8840	51.1532
 0.8830	51.1981
 0.8820	51.3129
 0.8810	51.3172
 0.8800	51.3724
 0.8790	51.4231
 0.8780	51.4791
 0.8770	51.5327
 0.8760	51.5752
 0.8750	51.6709
 0.8740	51.6831
 0.8730	51.7359
 0.8720	51.8774
 0.8710	51.9619
 0.8700	52.0046
 0.8690	52.0951
 0.8680	52.1506
 0.8670	52.2389
 0.8660	52.3094
 0.8650	52.3645
 0.8640	52.4338
 0.8630	52.4285
 0.8620	52.6541
 0.8610	52.7164
 0.8600	53.2324
 0.8590	53.4413
 0.8580	53.4982
 0.8570	53.5999
 0.8560	53.6769
 0.8550	53.7688
 0.8540	53.8939
 0.8530	54.0028
 0.8520	54.1262
 0.8510	54.2212
 0.8500	54.2967
 0.8490	54.3334
 0.8480	54.4636
 0.8470	54.6028
 0.8460	54.6949
 0.8450	54.8527
 0.8440	54.9743
 0.8430	55.0394
 0.8420	55.1437
 0.8410	55.3270
 0.8400	55.4321
 0.8390	55.5467
 0.8380	55.6446
 0.8370	55.7917
 0.8360	55.9865
 0.8350	56.0469
 0.8340	56.1899
 0.8330	56.2916
 0.8320	56.4370
 0.8310	56.6356
 0.8300	56.7228
 0.8290	56.8682
 0.8280	57.0703
 0.8270	57.1758
 0.8260	57.2908
 0.8250	57.5017
 0.8240	57.6154
 0.8230	57.7466
 0.8220	57.9252
 0.8210	58.0439
 0.8200	58.2134
 0.8190	58.3715
 0.8180	58.5494
 0.8170	58.6750
 0.8160	58.8899
 0.8150	59.0688
 0.8140	59.2048
 0.8130	59.3834
 0.8120	59.5490
 0.8110	59.7063
 0.8100	59.8429
 0.8090	60.0452
 0.8080	60.1843
 0.8070	60.3720
 0.8060	60.5835
 0.8050	60.7333
 0.8040	60.8857
 0.8030	61.0808
 0.8020	61.2494
 0.8010	61.4337
 0.8000	61.6376
 0.7990	61.7946
 0.7980	61.9527
 0.7970	62.0938
 0.7960	62.2799
 0.7950	62.4529
 0.7940	62.6048
 0.7930	62.8300
 0.7920	63.0056
 0.7910	63.1814
 0.7900	63.3156
 0.7890	63.5537
 0.7880	63.7119
 0.7870	63.9073
 0.7860	64.0815
 0.7850	64.2835
 0.7840	64.4844
 0.7830	64.6169
 0.7820	64.8171
 0.7810	64.9159
 0.7800	65.1410
 0.7790	65.3437
 0.7780	65.4768
 0.7770	65.6720
 0.7760	65.7974
 0.7750	65.9372
 0.7740	66.1485
 0.7730	66.2898
 0.7720	66.4267
 0.7710	66.5964
 0.7700	66.7310
 0.7690	66.9189
 0.7680	67.0735
 0.7670	67.2137
 0.7660	67.3458
 0.7650	67.4902
 0.7640	67.6054
 0.7630	67.7853
 0.7620	67.8962
 0.7610	68.0467
 0.7600	68.1508
 0.7590	68.2987
 0.7580	68.4052
 0.7570	68.5342
 0.7560	68.6288
 0.7550	68.7222
 0.7540	68.8348
 0.7530	68.9552
 0.7520	69.0455
 0.7510	69.1382
 0.7500	69.2264
 0.7490	69.3112
 0.7480	69.4090
 0.7470	69.4900
 0.7460	69.5279
 0.7450	69.6113
 0.7440	69.6812
 0.7430	69.7080
 0.7420	69.7528
 0.7410	69.7943
 0.7400	69.8229
 0.7390	69.8611
 0.7380	69.8774
 0.7370	69.9113
 0.7360	69.9326
 0.7350	69.9514
 0.7340	69.9811
 0.7330	69.9586
 0.7320	69.9769
 0.7310	69.9664
 0.7300	69.9728
 0.7290	69.9437
 0.7280	69.9555
 0.7270	69.8970
 0.7260	69.8920
 0.7250	69.8271
 0.7240	69.8123
 0.7230	69.7539
 0.7220	69.7038
 0.7210	69.6412
 0.7200	69.5776
 0.7190	69.5277
 0.7180	69.4391
 0.7170	69.3772
 0.7160	69.3272
 0.7150	69.2527
 0.7140	69.1469
 0.7130	69.0781
 0.7120	68.9796
 0.7110	68.8760
 0.7100	68.7917
 0.7090	68.6905
 0.7080	68.5976
 0.7070	68.4795
 0.7060	68.3691
 0.7050	68.2403
 0.7040	68.1302
 0.7030	68.0215
 0.7020	67.8895
 0.7010	67.7559
 0.7000	67.6425
 0.6990	67.5085
 0.6980	67.3969
 0.6970	67.2827
 0.6960	67.1293
 0.6950	66.9677
 0.6940	66.8354
 0.6930	66.7129
 0.6920	66.5931
 0.6910	66.4504
 0.6900	66.2878
 0.6890	66.1697
 0.6880	66.0232
 0.6870	65.8617
 0.6860	65.7102
 0.6850	65.5571
 0.6840	65.4111
 0.6830	65.2684
 0.6820	65.1083
 0.6810	64.9661
 0.6800	64.8120
 0.6790	64.6606
 0.6780	64.5132
 0.6770	64.3751
 0.6760	64.2473
 0.6750	64.0961
 0.6740	63.9385
 0.6730	63.7998
 0.6720	63.6667
 0.6710	63.5146
 0.6700	63.3636
 0.6690	63.2168
 0.6680	63.0817
 0.6670	62.9560
 0.6660	62.8055
 0.6650	62.6763
 0.6640	62.5507
 0.6630	62.4175
 0.6620	62.2980
 0.6610	62.1564
 0.6600	62.0246
 0.6590	61.9081
 0.6580	61.7877
 0.6570	61.6556
 0.6560	61.5295
 0.6550	61.4180
 0.6540	61.3062
 0.6530	61.1850
 0.6520	61.0692
 0.6510	60.9635
 0.6500	60.8464
 0.6490	60.7408
 0.6480	60.6403
 0.6470	60.5349
 0.6460	60.4284
 0.6450	60.3230
 0.6440	60.2096
 0.6430	60.1056
 0.6420	60.0135
 0.6410	59.9174
 0.6400	59.8232
 0.6390	59.7250
 0.6380	59.6283
 0.6370	59.5318
 0.6360	59.4392
 0.6350	59.3571
 0.6340	59.2710
 0.6330	59.1657
 0.6320	59.0666
 0.6310	58.9818
 0.6300	58.8838
 0.6290	58.7874
 0.6280	58.6978
 0.6270	58.6032
 0.6260	58.5077
 0.6250	58.4156
 0.6240	58.3151
 0.6230	58.2238
 0.6220	58.1347
 0.6210	58.0434
 0.6200	57.9460
 0.6190	57.8389
 0.6180	57.7468
 0.6170	57.6450
 0.6160	57.5345
 0.6150	57.4354
 0.6140	57.3442
 0.6130	57.2515
 0.6120	57.1436
 0.6110	57.0317
 0.6100	56.9251
 0.6090	56.8199
 0.6080	56.7291
 0.6070	56.6243
 0.6060	56.5138
 0.6050	56.4189
 0.6040	56.3122
 0.6030	56.1928
 0.6020	56.0779
 0.6010	55.9653
 0.6000	55.8445
 0.5990	55.7423
 0.5980	55.6320
 0.5970	55.5180
 0.5960	55.4006
 0.5950	55.2706
 0.5940	55.1392
 0.5930	55.0224
 0.5920	54.8807
 0.5910	54.7243
 0.5900	54.5770
 0.5890	54.4381
 0.5880	54.2781
 0.5870	54.1101
 0.5860	53.9310
 0.5850	53.7441
 0.5840	53.5544
 0.5830	53.3575
 0.5820	53.1606
 0.5810	52.9459
 0.5800	52.7257
 0.5790	52.4981
 0.5780	52.2555
 0.5770	52.0214
 0.5760	51.7603
 0.5750	51.4919
 0.5740	51.2065
 0.5730	50.9201
 0.5720	50.6148
 0.5710	50.2988
 0.5700	49.9794
 0.5690	49.6434
 0.5680	49.3077
 0.5670	48.9473
 0.5660	48.5808
 0.5650	48.2028
 0.5640	47.8126
 0.5630	47.4238
 0.5620	47.0213
 0.5610	46.5690
 0.5600	46.1279
 0.5590	45.6958
 0.5580	45.2607
 0.5570	44.8079
 0.5560	44.3445
 0.5550	43.8657
 0.5540	43.3877
 0.5530	42.9022
 0.5520	42.4172
 0.5510	41.9175
 0.5500	41.4167
 0.5490	40.9151
 0.5480	40.4140
 0.5470	39.9073
 0.5460	39.3983
 0.5450	38.8919
 0.5440	38.3678
 0.5430	37.8488
 0.5420	37.3423
 0.5410	36.8263
 0.5400	36.3076
 0.5390	35.7945
 0.5380	35.2959
 0.5370	34.8339
 0.5360	34.3399
 0.5350	33.8487
 0.5340	33.3625
 0.5330	32.8867
 0.5320	32.4139
 0.5310	31.9897
 0.5300	31.5349
 0.5290	31.0787
 0.5280	30.6327
 0.5270	30.2013
 0.5260	29.7855
 0.5250	29.3663
 0.5240	28.9556
 0.5230	28.5555
 0.5220	28.1659
 0.5210	27.7795
 0.5200	27.4039
 0.5190	27.0345
 0.5180	26.6805
 0.5170	26.3382
 0.5160	25.9888
 0.5150	25.6608
 0.5140	25.3300
 0.5130	25.0160
 0.5120	24.7001
 0.5110	24.3884
 0.5100	24.0909
 0.5090	23.8002
 0.5080	23.5190
 0.5070	23.2322
 0.5060	22.9528
 0.5050	22.6826
 0.5040	22.4131
 0.5030	22.1583
 0.5020	21.8949
 0.5010	21.6545
 0.5000	21.4061
 0.4990	21.1629
 0.4980	20.9302
 0.4970	20.6924
 0.4960	20.4751
 0.4950	20.2458
 0.4940	20.0318
 0.4930	19.8083
 0.4920	19.6014
 0.4910	19.3937
 0.4900	19.1908
 0.4890	18.9923
 0.4880	18.8014
 0.4870	18.6058
 0.4860	18.4188
 0.4850	18.2278
 0.4840	18.0467
 0.4830	17.8611
 0.4820	17.6931
 0.4810	17.5436
 0.4800	17.3759
 0.4790	17.2106
 0.4780	17.0526
 0.4770	16.8911
 0.4760	16.7288
 0.4750	16.5713
 0.4740	16.4057
 0.4730	16.2389
 0.4720	16.0741
 0.4710	15.9135
 0.4700	15.7482
 0.4690	15.5915
 0.4680	15.4251
 0.4670	15.2608
 0.4660	15.0956
 0.4650	14.9234
 0.4640	14.7475
 0.4630	14.5742
 0.4620	14.3856
 0.4610	14.1988
 0.4600	13.9983
 0.4590	13.7851
 0.4580	13.5698
 0.4570	13.3337
 0.4560	13.0874
 0.4550	12.8309
 0.4540	12.5601
 0.4530	12.2799
 0.4520	11.9923
 0.4510	11.6962
 0.4500	11.3915
 0.4490	11.0821
 0.4480	10.7643
 0.4470	10.4487
 0.4460	10.1363
 0.4450	 9.8163
 0.4440	 9.5067
 0.4430	 9.2143
 0.4420	 8.9402
 0.4410	 8.6651
 0.4400	 8.4082
 0.4390	 8.1681
 0.4380	 7.9536
 0.4370	 7.7672
 0.4360	 7.6244
 0.4350	 7.5231
 0.4340	 7.4678
 0.4330	 7.4729
 0.4320	 7.5314
 0.4310	 7.6298
 0.4300	 7.7661
 0.4290	 7.9148
 0.4280	 8.0702
 0.4270	 8.2140
 0.4260	 8.3391
 0.4250	 8.4433
 0.4240	 8.5264
 0.4230	 8.5898
 0.4220	 8.6300
 0.4210	 8.6560
 0.4200	 8.6675
 0.4190	 8.6620
 0.4180	 8.6450
 0.4170	 8.6071
 0.4160	 8.5469
 0.4150	 8.4725
 0.4140	 8.3762
 0.4130	 8.2642
 0.4120	 8.1290
 0.4110	 7.9736
 0.4100	 7.7941
 0.4090	 7.5998
 0.4080	 7.3867
 0.4070	 7.1664
 0.4060	 6.9283
 0.4050	 6.6809
 0.4040	 6.4293
 0.4030	 6.1678
 0.4020	 5.9099
 0.4010	 5.6503
 0.4000	 5.3931
