Name: Glauconite (K,Na)(Fe^3+,Al,Mg)_2(Si,Al)_4O_10(OH)_2
Type: Mineral
Class: Silicate
Subclass: Phyllosilicate
Particle Size: Medium
Sample No.: PS-19A
Owner: JPL
Wavelength Range: VSWIR
Origin: USA, New Jersey.
Collection Date: N/A
Description: Particle size was 45-125um.Collected by:  Ward's Original ASTER Spectral Library name was jpl.perkin.mineral.silicate.phyllosilicate.medium.ps19a.spectrum.txt
Measurement: Hemispherical reflectance
First Column: X
Second Column: Y
X Units: Wavelength (micrometers)
Y Units:Reflectance (percent)
First X Value:  2.5000
Last X Value:  0.4000
Number of X Values: 2101
Additional Information: mineral.silicate.phyllosilicate.medium.vswir.ps-19a.jpl.perkin.ancillary.txt

 2.5000	19.3575
 2.4990	19.1652
 2.4980	19.5414
 2.4970	19.4465
 2.4960	19.4332
 2.4950	19.4383
 2.4940	19.5178
 2.4930	19.3113
 2.4920	19.5149
 2.4910	19.4496
 2.4900	19.5827
 2.4890	19.5605
 2.4880	19.7552
 2.4870	19.6057
 2.4860	19.7307
 2.4850	19.7082
 2.4840	19.8810
 2.4830	19.7622
 2.4820	19.8913
 2.4810	19.8489
 2.4800	19.9686
 2.4790	19.8549
 2.4780	20.0689
 2.4770	19.9090
 2.4760	20.1492
 2.4750	20.0988
 2.4740	20.1814
 2.4730	20.1841
 2.4720	20.3381
 2.4710	20.2549
 2.4700	20.3799
 2.4690	20.4139
 2.4680	20.5007
 2.4670	20.5212
 2.4660	20.6592
 2.4650	20.7238
 2.4640	20.7693
 2.4630	20.7008
 2.4620	20.8582
 2.4610	20.7364
 2.4600	20.8491
 2.4590	20.8809
 2.4580	21.1449
 2.4570	20.9279
 2.4560	21.1782
 2.4550	21.0823
 2.4540	21.2809
 2.4530	21.2280
 2.4520	21.3552
 2.4510	21.2467
 2.4500	21.5351
 2.4490	21.5038
 2.4480	21.5857
 2.4470	21.6241
 2.4460	21.6984
 2.4450	21.6959
 2.4440	21.8177
 2.4430	21.7730
 2.4420	21.9124
 2.4410	22.0223
 2.4400	21.9891
 2.4390	22.0783
 2.4380	22.1669
 2.4370	22.1925
 2.4360	22.2836
 2.4350	22.2438
 2.4340	22.3475
 2.4330	22.3539
 2.4320	22.5094
 2.4310	22.5382
 2.4300	22.6287
 2.4290	22.6276
 2.4280	22.7914
 2.4270	22.8288
 2.4260	22.8840
 2.4250	22.8695
 2.4240	23.0452
 2.4230	23.0264
 2.4220	23.0882
 2.4210	23.0720
 2.4200	23.1782
 2.4190	23.2061
 2.4180	23.2372
 2.4170	23.2173
 2.4160	23.3274
 2.4150	23.3096
 2.4140	23.3763
 2.4130	23.3841
 2.4120	23.4208
 2.4110	23.4065
 2.4100	23.3852
 2.4090	23.4185
 2.4080	23.4561
 2.4070	23.4542
 2.4060	23.4672
 2.4050	23.3848
 2.4040	23.3838
 2.4030	23.3554
 2.4020	23.3358
 2.4010	23.2789
 2.4000	23.2840
 2.3990	23.1946
 2.3980	23.2169
 2.3970	23.1579
 2.3960	23.1137
 2.3950	23.0167
 2.3940	22.9540
 2.3930	22.8291
 2.3920	22.7913
 2.3910	22.7233
 2.3900	22.5857
 2.3890	22.5045
 2.3880	22.4437
 2.3870	22.3413
 2.3860	22.2682
 2.3850	22.2100
 2.3840	22.1036
 2.3830	21.9227
 2.3820	21.8039
 2.3810	21.6873
 2.3800	21.6059
 2.3790	21.4946
 2.3780	21.4376
 2.3770	21.2794
 2.3760	21.2233
 2.3750	21.1260
 2.3740	21.0420
 2.3730	20.9572
 2.3720	20.8885
 2.3710	20.7293
 2.3700	20.7173
 2.3690	20.6822
 2.3680	20.6322
 2.3670	20.6540
 2.3660	20.6186
 2.3650	20.5794
 2.3640	20.5500
 2.3630	20.5648
 2.3620	20.5930
 2.3610	20.5721
 2.3600	20.5611
 2.3590	20.6238
 2.3580	20.7009
 2.3570	20.6894
 2.3560	20.7383
 2.3550	20.7957
 2.3540	20.9092
 2.3530	21.0332
 2.3520	21.0178
 2.3510	21.0488
 2.3500	21.1622
 2.3490	21.2578
 2.3480	21.2889
 2.3470	21.3864
 2.3460	21.4415
 2.3450	21.4790
 2.3440	21.5739
 2.3430	21.6436
 2.3420	21.6343
 2.3410	21.7071
 2.3400	21.7783
 2.3390	21.8369
 2.3380	21.8006
 2.3370	21.8407
 2.3360	21.8342
 2.3350	21.8307
 2.3340	21.7850
 2.3330	21.7523
 2.3320	21.7104
 2.3310	21.6893
 2.3300	21.5646
 2.3290	21.4838
 2.3280	21.4121
 2.3270	21.3087
 2.3260	21.1322
 2.3250	21.0828
 2.3240	20.9213
 2.3230	20.7770
 2.3220	20.6149
 2.3210	20.5125
 2.3200	20.3249
 2.3190	20.1921
 2.3180	20.0655
 2.3170	19.9766
 2.3160	19.8198
 2.3150	19.7524
 2.3140	19.5943
 2.3130	19.5199
 2.3120	19.4661
 2.3110	19.4002
 2.3100	19.3653
 2.3090	19.3995
 2.3080	19.3411
 2.3070	19.3902
 2.3060	19.3985
 2.3050	19.4729
 2.3040	19.5953
 2.3030	19.7464
 2.3020	19.7614
 2.3010	19.9753
 2.3000	20.0250
 2.2990	20.1983
 2.2980	20.4571
 2.2970	20.6491
 2.2960	20.8060
 2.2950	21.0599
 2.2940	21.2071
 2.2930	21.5029
 2.2920	21.6492
 2.2910	21.9511
 2.2900	22.1300
 2.2890	22.3854
 2.2880	22.5294
 2.2870	22.7370
 2.2860	22.9970
 2.2850	23.1608
 2.2840	23.3632
 2.2830	23.5187
 2.2820	23.6390
 2.2810	23.7842
 2.2800	23.9471
 2.2790	24.1274
 2.2780	24.1480
 2.2770	24.3049
 2.2760	24.2643
 2.2750	24.4323
 2.2740	24.3772
 2.2730	24.4612
 2.2720	24.3912
 2.2710	24.4923
 2.2700	24.4138
 2.2690	24.5341
 2.2680	24.4042
 2.2670	24.4753
 2.2660	24.3903
 2.2650	24.4571
 2.2640	24.3505
 2.2630	24.3474
 2.2620	24.3380
 2.2610	24.3275
 2.2600	24.2773
 2.2590	24.2619
 2.2580	24.1799
 2.2570	24.2372
 2.2560	24.1900
 2.2550	24.2442
 2.2540	24.0952
 2.2530	24.2916
 2.2520	24.2137
 2.2510	24.2747
 2.2500	24.2421
 2.2490	24.3322
 2.2480	24.2959
 2.2470	24.3988
 2.2460	24.4261
 2.2450	24.5049
 2.2440	24.5435
 2.2430	24.6508
 2.2420	24.7427
 2.2410	24.8225
 2.2400	24.8562
 2.2390	25.0004
 2.2380	24.9539
 2.2370	25.1390
 2.2360	25.2384
 2.2350	25.3338
 2.2340	25.3669
 2.2330	25.5931
 2.2320	25.4761
 2.2310	25.6590
 2.2300	25.7116
 2.2290	25.8230
 2.2280	25.8201
 2.2270	25.9247
 2.2260	25.9261
 2.2250	26.1338
 2.2240	26.0857
 2.2230	26.2398
 2.2220	26.2078
 2.2210	26.3788
 2.2200	26.2971
 2.2190	26.4635
 2.2180	26.4288
 2.2170	26.4764
 2.2160	26.4979
 2.2150	26.6085
 2.2140	26.5423
 2.2130	26.5439
 2.2120	26.6552
 2.2110	26.5342
 2.2100	26.7165
 2.2090	26.7341
 2.2080	26.7123
 2.2070	26.6778
 2.2060	26.6228
 2.2050	26.7339
 2.2040	26.7294
 2.2030	26.7581
 2.2020	26.7379
 2.2010	26.8008
 2.2000	26.7358
 2.1990	26.7405
 2.1980	26.7812
 2.1970	26.8820
 2.1960	26.7837
 2.1950	26.9352
 2.1940	26.8114
 2.1930	26.9579
 2.1920	26.9367
 2.1910	26.9852
 2.1900	26.9134
 2.1890	26.9974
 2.1880	26.9651
 2.1870	27.0827
 2.1860	27.0387
 2.1850	27.0231
 2.1840	27.0489
 2.1830	27.0466
 2.1820	27.0014
 2.1810	27.0836
 2.1800	27.0488
 2.1790	27.0804
 2.1780	27.0707
 2.1770	27.1428
 2.1760	27.0476
 2.1750	27.1389
 2.1740	27.1092
 2.1730	27.1025
 2.1720	26.9981
 2.1710	27.0838
 2.1700	27.1028
 2.1690	27.1522
 2.1680	27.0367
 2.1670	27.1123
 2.1660	27.0156
 2.1650	27.0701
 2.1640	27.0246
 2.1630	27.1183
 2.1620	27.0002
 2.1610	27.0434
 2.1600	26.9879
 2.1590	27.0385
 2.1580	26.9672
 2.1570	26.9919
 2.1560	26.9658
 2.1550	26.9984
 2.1540	26.9073
 2.1530	26.9711
 2.1520	26.8808
 2.1510	26.9310
 2.1500	26.7583
 2.1490	26.8509
 2.1480	26.8050
 2.1470	26.8495
 2.1460	26.7213
 2.1450	26.7770
 2.1440	26.6964
 2.1430	26.7636
 2.1420	26.7067
 2.1410	26.6588
 2.1400	26.5956
 2.1390	26.6360
 2.1380	26.5792
 2.1370	26.5409
 2.1360	26.5249
 2.1350	26.5326
 2.1340	26.4717
 2.1330	26.4371
 2.1320	26.4030
 2.1310	26.4165
 2.1300	26.3473
 2.1290	26.3262
 2.1280	26.2862
 2.1270	26.2763
 2.1260	26.1562
 2.1250	26.1312
 2.1240	26.1153
 2.1230	26.1292
 2.1220	26.0271
 2.1210	25.9996
 2.1200	25.9088
 2.1190	25.9021
 2.1180	25.7744
 2.1170	25.7703
 2.1160	25.7563
 2.1150	25.7276
 2.1140	25.6298
 2.1130	25.6168
 2.1120	25.4770
 2.1110	25.4505
 2.1100	25.3657
 2.1090	25.3756
 2.1080	25.3734
 2.1070	25.3674
 2.1060	25.2189
 2.1050	25.2295
 2.1040	25.1939
 2.1030	25.1426
 2.1020	25.0685
 2.1010	25.0378
 2.1000	24.9332
 2.0990	24.8933
 2.0980	24.8270
 2.0970	24.8617
 2.0960	24.8077
 2.0950	24.7826
 2.0940	24.7266
 2.0930	24.6723
 2.0920	24.6151
 2.0910	24.6193
 2.0900	24.6000
 2.0890	24.5401
 2.0880	24.4815
 2.0870	24.4468
 2.0860	24.4037
 2.0850	24.3983
 2.0840	24.3559
 2.0830	24.3206
 2.0820	24.2508
 2.0810	24.1953
 2.0800	24.1427
 2.0790	24.1147
 2.0780	24.0738
 2.0770	24.0759
 2.0760	24.0234
 2.0750	23.9610
 2.0740	23.9088
 2.0730	23.8988
 2.0720	23.8839
 2.0710	23.8108
 2.0700	23.7413
 2.0690	23.6818
 2.0680	23.6305
 2.0670	23.5853
 2.0660	23.5253
 2.0650	23.4828
 2.0640	23.4532
 2.0630	23.3731
 2.0620	23.3117
 2.0610	23.3073
 2.0600	23.2428
 2.0590	23.1591
 2.0580	23.1845
 2.0570	23.1076
 2.0560	23.0479
 2.0550	23.0415
 2.0540	22.9915
 2.0530	22.9037
 2.0520	22.8395
 2.0510	22.8088
 2.0500	22.7704
 2.0490	22.7434
 2.0480	22.7400
 2.0470	22.6181
 2.0460	22.5621
 2.0450	22.5290
 2.0440	22.4702
 2.0430	22.4222
 2.0420	22.3868
 2.0410	22.2731
 2.0400	22.2572
 2.0390	22.2101
 2.0380	22.1936
 2.0370	22.0956
 2.0360	22.0811
 2.0350	22.0322
 2.0340	21.9783
 2.0330	21.8684
 2.0320	21.8287
 2.0310	21.7894
 2.0300	21.7470
 2.0290	21.6152
 2.0280	21.6287
 2.0270	21.4981
 2.0260	21.4471
 2.0250	21.3981
 2.0240	21.3794
 2.0230	21.2622
 2.0220	21.2258
 2.0210	21.1451
 2.0200	21.0797
 2.0190	21.0229
 2.0180	20.9381
 2.0170	20.9159
 2.0160	20.8461
 2.0150	20.7598
 2.0140	20.7479
 2.0130	20.6795
 2.0120	20.6450
 2.0110	20.5006
 2.0100	20.5124
 2.0090	20.3699
 2.0080	20.4151
 2.0070	20.2987
 2.0060	20.1768
 2.0050	20.1157
 2.0040	20.0666
 2.0030	19.9823
 2.0020	20.0217
 2.0010	19.9165
 2.0000	19.8767
 1.9990	19.7200
 1.9980	19.7475
 1.9970	19.5934
 1.9960	19.6110
 1.9950	19.4539
 1.9940	19.4662
 1.9930	19.3406
 1.9920	19.3048
 1.9910	19.2066
 1.9900	19.2116
 1.9890	19.0507
 1.9880	19.0578
 1.9870	18.9645
 1.9860	18.9142
 1.9850	18.8466
 1.9840	18.8253
 1.9830	18.7332
 1.9820	18.7013
 1.9810	18.5269
 1.9800	18.5076
 1.9790	18.3499
 1.9780	18.4414
 1.9770	18.2713
 1.9760	18.2830
 1.9750	18.1408
 1.9740	18.2017
 1.9730	18.0805
 1.9720	18.0850
 1.9710	17.8563
 1.9700	17.8734
 1.9690	17.8145
 1.9680	17.7356
 1.9670	17.6561
 1.9660	17.6855
 1.9650	17.5142
 1.9640	17.5598
 1.9630	17.3494
 1.9620	17.5054
 1.9610	17.3253
 1.9600	17.2819
 1.9590	17.1604
 1.9580	17.2071
 1.9570	17.0824
 1.9560	17.0875
 1.9550	16.9556
 1.9540	16.9374
 1.9530	16.7792
 1.9520	16.8319
 1.9510	16.7112
 1.9500	16.7461
 1.9490	16.6724
 1.9480	16.6683
 1.9470	16.4923
 1.9460	16.5294
 1.9450	16.3557
 1.9440	16.4638
 1.9430	16.3437
 1.9420	16.2893
 1.9410	16.1843
 1.9400	16.1958
 1.9390	16.1605
 1.9380	16.1402
 1.9370	16.0449
 1.9360	15.9251
 1.9350	15.8204
 1.9340	15.9275
 1.9330	15.6777
 1.9320	15.6921
 1.9310	15.5562
 1.9300	15.5634
 1.9290	15.3553
 1.9280	15.4062
 1.9270	15.3895
 1.9260	15.1542
 1.9250	15.1686
 1.9240	15.0352
 1.9230	14.9048
 1.9220	14.9895
 1.9210	14.7680
 1.9200	14.7670
 1.9190	14.4859
 1.9180	14.5892
 1.9170	14.3625
 1.9160	14.3763
 1.9150	14.1820
 1.9140	14.2974
 1.9130	14.0845
 1.9120	14.1314
 1.9110	13.9265
 1.9100	14.0251
 1.9090	13.9182
 1.9080	14.0436
 1.9070	13.9868
 1.9060	14.0294
 1.9050	13.9769
 1.9040	14.1324
 1.9030	14.1329
 1.9020	14.3275
 1.9010	14.2935
 1.9000	14.4829
 1.8990	14.5252
 1.8980	14.7699
 1.8970	14.8364
 1.8960	15.0278
 1.8950	15.1721
 1.8940	15.3321
 1.8930	15.4154
 1.8920	15.5260
 1.8910	15.5453
 1.8900	15.7353
 1.8890	15.7609
 1.8880	15.8532
 1.8870	15.8903
 1.8860	16.0286
 1.8850	16.0093
 1.8840	16.1549
 1.8830	16.1074
 1.8820	16.1936
 1.8810	16.1081
 1.8800	16.2064
 1.8790	16.1821
 1.8780	16.2685
 1.8770	16.2129
 1.8760	16.2269
 1.8750	16.1634
 1.8740	16.3070
 1.8730	16.1490
 1.8720	16.1874
 1.8710	16.1933
 1.8700	16.1367
 1.8690	16.1337
 1.8680	16.1744
 1.8670	16.0984
 1.8660	16.1741
 1.8650	16.0557
 1.8640	16.1147
 1.8630	16.0327
 1.8620	16.0635
 1.8610	15.9357
 1.8600	15.9532
 1.8590	15.9237
 1.8580	15.9219
 1.8570	15.7709
 1.8560	15.7655
 1.8550	15.7150
 1.8540	15.7337
 1.8530	15.6664
 1.8520	15.7611
 1.8510	15.6583
 1.8500	15.7357
 1.8490	15.5760
 1.8480	15.5957
 1.8470	15.4717
 1.8460	15.4909
 1.8450	15.4473
 1.8440	15.4926
 1.8430	15.3316
 1.8420	15.3568
 1.8410	15.2776
 1.8400	15.2585
 1.8390	15.2315
 1.8380	15.2253
 1.8370	15.1449
 1.8360	15.0336
 1.8350	14.9418
 1.8340	14.9664
 1.8330	14.9416
 1.8320	14.9509
 1.8310	14.8255
 1.8300	14.8176
 1.8290	14.7504
 1.8280	14.7700
 1.8270	14.7592
 1.8260	14.7051
 1.8250	14.6496
 1.8240	14.6254
 1.8230	14.5898
 1.8220	14.5881
 1.8210	14.4827
 1.8200	14.4664
 1.8190	14.3721
 1.8180	14.3694
 1.8170	14.3462
 1.8160	14.3231
 1.8150	14.2521
 1.8140	14.2366
 1.8130	14.1531
 1.8120	14.1172
 1.8110	14.0587
 1.8100	14.0578
 1.8090	14.0125
 1.8080	13.9839
 1.8070	13.9070
 1.8060	13.8738
 1.8050	13.8378
 1.8040	13.8282
 1.8030	13.7816
 1.8020	13.7641
 1.8010	13.7371
 1.8000	13.6934
 1.7990	13.6686
 1.7980	13.6367
 1.7970	13.5229
 1.7960	13.4967
 1.7950	13.4685
 1.7940	13.4311
 1.7930	13.3999
 1.7920	13.3696
 1.7910	13.3126
 1.7900	13.2728
 1.7890	13.2579
 1.7880	13.2391
 1.7870	13.1869
 1.7860	13.1403
 1.7850	13.1223
 1.7840	13.0936
 1.7830	13.0702
 1.7820	13.0417
 1.7810	12.9618
 1.7800	12.9102
 1.7790	12.8735
 1.7780	12.8341
 1.7770	12.8406
 1.7760	12.7540
 1.7750	12.6951
 1.7740	12.6854
 1.7730	12.6202
 1.7720	12.5598
 1.7710	12.5602
 1.7700	12.6095
 1.7690	12.5902
 1.7680	12.5342
 1.7670	12.4744
 1.7660	12.4067
 1.7650	12.4372
 1.7640	12.3357
 1.7630	12.3244
 1.7620	12.2875
 1.7610	12.2847
 1.7600	12.2321
 1.7590	12.2557
 1.7580	12.1258
 1.7570	12.0850
 1.7560	12.0791
 1.7550	12.0744
 1.7540	11.9812
 1.7530	11.9524
 1.7520	11.9094
 1.7510	11.9167
 1.7500	11.8980
 1.7490	11.8273
 1.7480	11.7589
 1.7470	11.7800
 1.7460	11.7039
 1.7450	11.7579
 1.7440	11.6958
 1.7430	11.6959
 1.7420	11.6147
 1.7410	11.6097
 1.7400	11.4780
 1.7390	11.4532
 1.7380	11.4056
 1.7370	11.4184
 1.7360	11.3638
 1.7350	11.3649
 1.7340	11.2229
 1.7330	11.2177
 1.7320	11.2291
 1.7310	11.2189
 1.7300	11.1423
 1.7290	11.2040
 1.7280	11.0806
 1.7270	11.0900
 1.7260	10.9706
 1.7250	11.0115
 1.7240	10.9442
 1.7230	10.9822
 1.7220	10.9125
 1.7210	10.9018
 1.7200	10.8326
 1.7190	10.8577
 1.7180	10.8069
 1.7170	10.7457
 1.7160	10.6650
 1.7150	10.6949
 1.7140	10.6294
 1.7130	10.6094
 1.7120	10.5871
 1.7110	10.5484
 1.7100	10.4610
 1.7090	10.4596
 1.7080	10.4081
 1.7070	10.4037
 1.7060	10.3636
 1.7050	10.3738
 1.7040	10.2213
 1.7030	10.2924
 1.7020	10.1749
 1.7010	10.2870
 1.7000	10.1657
 1.6990	10.2428
 1.6980	10.0413
 1.6970	10.1321
 1.6960	10.0249
 1.6950	10.0730
 1.6940	 9.9495
 1.6930	10.0037
 1.6920	 9.8620
 1.6910	 9.9779
 1.6900	 9.8571
 1.6890	 9.8766
 1.6880	 9.6987
 1.6870	 9.8549
 1.6860	 9.7372
 1.6850	 9.7843
 1.6840	 9.6257
 1.6830	 9.7316
 1.6820	 9.6150
 1.6810	 9.6203
 1.6800	 9.5480
 1.6790	 9.6552
 1.6780	 9.4725
 1.6770	 9.5956
 1.6760	 9.4028
 1.6750	 9.4392
 1.6740	 9.4210
 1.6730	 9.4326
 1.6720	 9.3368
 1.6710	 9.3768
 1.6700	 9.2016
 1.6690	 9.2654
 1.6680	 9.0731
 1.6670	 9.2599
 1.6660	 9.0689
 1.6650	 9.2225
 1.6640	 9.1177
 1.6630	 9.1163
 1.6620	 9.0029
 1.6610	 9.1911
 1.6600	 8.9772
 1.6590	 9.0498
 1.6580	 8.9170
 1.6570	 8.9511
 1.6560	 8.8344
 1.6550	 8.8915
 1.6540	 8.7542
 1.6530	 8.8620
 1.6520	 8.7017
 1.6510	 8.8027
 1.6500	 8.7227
 1.6490	 8.7773
 1.6480	 8.5892
 1.6470	 8.6686
 1.6460	 8.6108
 1.6450	 8.6723
 1.6440	 8.5281
 1.6430	 8.5791
 1.6420	 8.5360
 1.6410	 8.4081
 1.6400	 8.4505
 1.6390	 8.4374
 1.6380	 8.3646
 1.6370	 8.3917
 1.6360	 8.4256
 1.6350	 8.4072
 1.6340	 8.2234
 1.6330	 8.4207
 1.6320	 8.1548
 1.6310	 8.2719
 1.6300	 8.0901
 1.6290	 8.1756
 1.6280	 8.1467
 1.6270	 8.1611
 1.6260	 8.0003
 1.6250	 8.1256
 1.6240	 7.9574
 1.6230	 8.1121
 1.6220	 7.9325
 1.6210	 7.9878
 1.6200	 7.9240
 1.6190	 7.9082
 1.6180	 7.8411
 1.6170	 7.9869
 1.6160	 7.8150
 1.6150	 7.8812
 1.6140	 7.7227
 1.6130	 7.7341
 1.6120	 7.6847
 1.6110	 7.7638
 1.6100	 7.6378
 1.6090	 7.7402
 1.6080	 7.6451
 1.6070	 7.7448
 1.6060	 7.6320
 1.6050	 7.6061
 1.6040	 7.5158
 1.6030	 7.5728
 1.6020	 7.4560
 1.6010	 7.5253
 1.6000	 7.4566
 1.5990	 7.4868
 1.5980	 7.3483
 1.5970	 7.4136
 1.5960	 7.4403
 1.5950	 7.4123
 1.5940	 7.3026
 1.5930	 7.3573
 1.5920	 7.2712
 1.5910	 7.2695
 1.5900	 7.1941
 1.5890	 7.2930
 1.5880	 7.1510
 1.5870	 7.2641
 1.5860	 7.1541
 1.5850	 7.1300
 1.5840	 7.1063
 1.5830	 7.1683
 1.5820	 7.0286
 1.5810	 7.0364
 1.5800	 6.9705
 1.5790	 6.9988
 1.5780	 6.9532
 1.5770	 6.9730
 1.5760	 6.9007
 1.5750	 6.9970
 1.5740	 6.8650
 1.5730	 6.9016
 1.5720	 6.8179
 1.5710	 6.8896
 1.5700	 6.7881
 1.5690	 6.7688
 1.5680	 6.7680
 1.5670	 6.7441
 1.5660	 6.6833
 1.5650	 6.7056
 1.5640	 6.6071
 1.5630	 6.7243
 1.5620	 6.5951
 1.5610	 6.6436
 1.5600	 6.5519
 1.5590	 6.6419
 1.5580	 6.5388
 1.5570	 6.5655
 1.5560	 6.5379
 1.5550	 6.5200
 1.5540	 6.4462
 1.5530	 6.4623
 1.5520	 6.4231
 1.5510	 6.4192
 1.5500	 6.3957
 1.5490	 6.3925
 1.5480	 6.3133
 1.5470	 6.3546
 1.5460	 6.2845
 1.5450	 6.3012
 1.5440	 6.3299
 1.5430	 6.3906
 1.5420	 6.2747
 1.5410	 6.2101
 1.5400	 6.1707
 1.5390	 6.2035
 1.5380	 6.1903
 1.5370	 6.1526
 1.5360	 6.1696
 1.5350	 6.1946
 1.5340	 6.1045
 1.5330	 6.1060
 1.5320	 6.0785
 1.5310	 6.0700
 1.5300	 5.9813
 1.5290	 6.0248
 1.5280	 5.9626
 1.5270	 5.9689
 1.5260	 5.9631
 1.5250	 5.9923
 1.5240	 5.9121
 1.5230	 5.8875
 1.5220	 5.9006
 1.5210	 5.9216
 1.5200	 5.8522
 1.5190	 5.8097
 1.5180	 5.8044
 1.5170	 5.8459
 1.5160	 5.8085
 1.5150	 5.7541
 1.5140	 5.7167
 1.5130	 5.7507
 1.5120	 5.7370
 1.5110	 5.7545
 1.5100	 5.6898
 1.5090	 5.6427
 1.5080	 5.6688
 1.5070	 5.6728
 1.5060	 5.6183
 1.5050	 5.6146
 1.5040	 5.5892
 1.5030	 5.5522
 1.5020	 5.5601
 1.5010	 5.5974
 1.5000	 5.5600
 1.4990	 5.5315
 1.4980	 5.5117
 1.4970	 5.4708
 1.4960	 5.4228
 1.4950	 5.4682
 1.4940	 5.4743
 1.4930	 5.4366
 1.4920	 5.4623
 1.4910	 5.4058
 1.4900	 5.3658
 1.4890	 5.3471
 1.4880	 5.3613
 1.4870	 5.3208
 1.4860	 5.3036
 1.4850	 5.2601
 1.4840	 5.2800
 1.4830	 5.2867
 1.4820	 5.2888
 1.4810	 5.2258
 1.4800	 5.1837
 1.4790	 5.1727
 1.4780	 5.1683
 1.4770	 5.1630
 1.4760	 5.1536
 1.4750	 5.1280
 1.4740	 5.1621
 1.4730	 5.1371
 1.4720	 5.0978
 1.4710	 5.0433
 1.4700	 5.0394
 1.4690	 5.0053
 1.4680	 5.0985
 1.4670	 5.0429
 1.4660	 5.0048
 1.4650	 4.9919
 1.4640	 4.9931
 1.4630	 4.9511
 1.4620	 4.9768
 1.4610	 4.9616
 1.4600	 4.9579
 1.4590	 4.9324
 1.4580	 4.9165
 1.4570	 4.8539
 1.4560	 4.8713
 1.4550	 4.8315
 1.4540	 4.8507
 1.4530	 4.8106
 1.4520	 4.7752
 1.4510	 4.6618
 1.4500	 4.7435
 1.4490	 4.7033
 1.4480	 4.7680
 1.4470	 4.7283
 1.4460	 4.7699
 1.4450	 4.6669
 1.4440	 4.6888
 1.4430	 4.6310
 1.4420	 4.7280
 1.4410	 4.5931
 1.4400	 4.6551
 1.4390	 4.5410
 1.4380	 4.6133
 1.4370	 4.5461
 1.4360	 4.5676
 1.4350	 4.5183
 1.4340	 4.6621
 1.4330	 4.5246
 1.4320	 4.5748
 1.4310	 4.5593
 1.4300	 4.5343
 1.4290	 4.5144
 1.4280	 4.5622
 1.4270	 4.5335
 1.4260	 4.5382
 1.4250	 4.4383
 1.4240	 4.4577
 1.4230	 4.5466
 1.4220	 4.5426
 1.4210	 4.3697
 1.4200	 4.4661
 1.4190	 4.3829
 1.4180	 4.4486
 1.4170	 4.3856
 1.4160	 4.4038
 1.4150	 4.3428
 1.4140	 4.4113
 1.4130	 4.3808
 1.4120	 4.3769
 1.4110	 4.3331
 1.4100	 4.4327
 1.4090	 4.3333
 1.4080	 4.3198
 1.4070	 4.2860
 1.4060	 4.3181
 1.4050	 4.2555
 1.4040	 4.3505
 1.4030	 4.2341
 1.4020	 4.3850
 1.4010	 4.2447
 1.4000	 4.2714
 1.3990	 4.2571
 1.3980	 4.2555
 1.3970	 4.3392
 1.3960	 4.3506
 1.3950	 4.0625
 1.3940	 4.2809
 1.3930	 4.1569
 1.3920	 4.2921
 1.3910	 4.2180
 1.3900	 4.2995
 1.3890	 4.1391
 1.3880	 4.2471
 1.3870	 4.1075
 1.3860	 4.2598
 1.3850	 4.1665
 1.3840	 4.2489
 1.3830	 4.0668
 1.3820	 4.1870
 1.3810	 4.0420
 1.3800	 4.1907
 1.3790	 4.0827
 1.3780	 4.2972
 1.3770	 4.1098
 1.3760	 4.2170
 1.3750	 4.0221
 1.3740	 4.0338
 1.3730	 4.0903
 1.3720	 4.1054
 1.3710	 4.0980
 1.3700	 4.0603
 1.3690	 3.9712
 1.3680	 4.0973
 1.3670	 3.9779
 1.3660	 4.1685
 1.3650	 4.0063
 1.3640	 4.0180
 1.3630	 4.0039
 1.3620	 4.0325
 1.3610	 3.8813
 1.3600	 4.0828
 1.3590	 3.9749
 1.3580	 4.0563
 1.3570	 4.0226
 1.3560	 4.0806
 1.3550	 3.6635
 1.3540	 3.9928
 1.3530	 3.7709
 1.3520	 4.0027
 1.3510	 3.9057
 1.3500	 3.9221
 1.3490	 3.8142
 1.3480	 3.9502
 1.3470	 3.7994
 1.3460	 3.8969
 1.3450	 3.8534
 1.3440	 3.9655
 1.3430	 3.7009
 1.3420	 3.8768
 1.3410	 3.7746
 1.3400	 3.8401
 1.3390	 3.7891
 1.3380	 3.8402
 1.3370	 3.8112
 1.3360	 3.8130
 1.3350	 3.7800
 1.3340	 3.8642
 1.3330	 3.7779
 1.3320	 3.8046
 1.3310	 3.7189
 1.3300	 3.8615
 1.3290	 3.7125
 1.3280	 3.7985
 1.3270	 3.7390
 1.3260	 3.7804
 1.3250	 3.6713
 1.3240	 3.8109
 1.3230	 3.6525
 1.3220	 3.8004
 1.3210	 3.6543
 1.3200	 3.7811
 1.3190	 3.6688
 1.3180	 3.7359
 1.3170	 3.6301
 1.3160	 3.6961
 1.3150	 3.5869
 1.3140	 3.6723
 1.3130	 3.6545
 1.3120	 3.6912
 1.3110	 3.5613
 1.3100	 3.6826
 1.3090	 3.6039
 1.3080	 3.6075
 1.3070	 3.5713
 1.3060	 3.6022
 1.3050	 3.5480
 1.3040	 3.6054
 1.3030	 3.5166
 1.3020	 3.6102
 1.3010	 3.5587
 1.3000	 3.6307
 1.2990	 3.6030
 1.2980	 3.6113
 1.2970	 3.4972
 1.2960	 3.5704
 1.2950	 3.5083
 1.2940	 3.5860
 1.2930	 3.4930
 1.2920	 3.5709
 1.2910	 3.5595
 1.2900	 3.5740
 1.2890	 3.5426
 1.2880	 3.5555
 1.2870	 3.5303
 1.2860	 3.4771
 1.2850	 3.3569
 1.2840	 3.5663
 1.2830	 3.5021
 1.2820	 3.5727
 1.2810	 3.4873
 1.2800	 3.4891
 1.2790	 3.4244
 1.2780	 3.4551
 1.2770	 3.4099
 1.2760	 3.4466
 1.2750	 3.4161
 1.2740	 3.4482
 1.2730	 3.3951
 1.2720	 3.4496
 1.2710	 3.3996
 1.2700	 3.4248
 1.2690	 3.4205
 1.2680	 3.4782
 1.2670	 3.4302
 1.2660	 3.4129
 1.2650	 3.3909
 1.2640	 3.4049
 1.2630	 3.3246
 1.2620	 3.3656
 1.2610	 3.3499
 1.2600	 3.3957
 1.2590	 3.3449
 1.2580	 3.4236
 1.2570	 3.3839
 1.2560	 3.3744
 1.2550	 3.3926
 1.2540	 3.3872
 1.2530	 3.3094
 1.2520	 3.4064
 1.2510	 3.3396
 1.2500	 3.3927
 1.2490	 3.3330
 1.2480	 3.3284
 1.2470	 3.3306
 1.2460	 3.3340
 1.2450	 3.2896
 1.2440	 3.2897
 1.2430	 3.2753
 1.2420	 3.3153
 1.2410	 3.3191
 1.2400	 3.3459
 1.2390	 3.2736
 1.2380	 3.2650
 1.2370	 3.2814
 1.2360	 3.3353
 1.2350	 3.2720
 1.2340	 3.3025
 1.2330	 3.2307
 1.2320	 3.2729
 1.2310	 3.2416
 1.2300	 3.2081
 1.2290	 3.2423
 1.2280	 3.2713
 1.2270	 3.2089
 1.2260	 3.1856
 1.2250	 3.1628
 1.2240	 3.2505
 1.2230	 3.2792
 1.2220	 3.2306
 1.2210	 3.2002
 1.2200	 3.1931
 1.2190	 3.2216
 1.2180	 3.2339
 1.2170	 3.2393
 1.2160	 3.2427
 1.2150	 3.2153
 1.2140	 3.2264
 1.2130	 3.2226
 1.2120	 3.2090
 1.2110	 3.1736
 1.2100	 3.1365
 1.2090	 3.1934
 1.2080	 3.2053
 1.2070	 3.1621
 1.2060	 3.1191
 1.2050	 3.1483
 1.2040	 3.1850
 1.2030	 3.1802
 1.2020	 3.1758
 1.2010	 3.1911
 1.2000	 3.1958
 1.1990	 3.2243
 1.1980	 3.1585
 1.1970	 3.1734
 1.1960	 3.2224
 1.1950	 3.2332
 1.1940	 3.1473
 1.1930	 3.1436
 1.1920	 3.1468
 1.1910	 3.1672
 1.1900	 3.1402
 1.1890	 3.1237
 1.1880	 3.0095
 1.1870	 3.1488
 1.1860	 3.1810
 1.1850	 3.1446
 1.1840	 3.1040
 1.1830	 3.1993
 1.1820	 3.1404
 1.1810	 3.1849
 1.1800	 3.1807
 1.1790	 3.1200
 1.1780	 3.0891
 1.1770	 3.0985
 1.1760	 3.0638
 1.1750	 3.1505
 1.1740	 3.1103
 1.1730	 3.1090
 1.1720	 3.0461
 1.1710	 3.1466
 1.1700	 3.1047
 1.1690	 3.1570
 1.1680	 3.0887
 1.1670	 3.1481
 1.1660	 3.1030
 1.1650	 3.1667
 1.1640	 3.0802
 1.1630	 3.1301
 1.1620	 3.0833
 1.1610	 3.1005
 1.1600	 3.0647
 1.1590	 3.1484
 1.1580	 3.0636
 1.1570	 3.0691
 1.1560	 3.0200
 1.1550	 3.1246
 1.1540	 3.1458
 1.1530	 3.1450
 1.1520	 3.0974
 1.1510	 3.1592
 1.1500	 3.1195
 1.1490	 3.0862
 1.1480	 3.1364
 1.1470	 3.1265
 1.1460	 3.0549
 1.1450	 3.1067
 1.1440	 3.0613
 1.1430	 3.1136
 1.1420	 3.0944
 1.1410	 3.1348
 1.1400	 3.0496
 1.1390	 3.1224
 1.1380	 3.0827
 1.1370	 3.0668
 1.1360	 3.0766
 1.1350	 3.1271
 1.1340	 3.0242
 1.1330	 3.1076
 1.1320	 3.0700
 1.1310	 3.2445
 1.1300	 3.1054
 1.1290	 3.0856
 1.1280	 3.0361
 1.1270	 3.1860
 1.1260	 3.1017
 1.1250	 3.1068
 1.1240	 3.0612
 1.1230	 3.1441
 1.1220	 3.0804
 1.1210	 3.1211
 1.1200	 3.0342
 1.1190	 3.1449
 1.1180	 3.0952
 1.1170	 3.1794
 1.1160	 3.0609
 1.1150	 3.1409
 1.1140	 3.0367
 1.1130	 3.1517
 1.1120	 3.0328
 1.1110	 3.1550
 1.1100	 3.0400
 1.1090	 3.1552
 1.1080	 3.0175
 1.1070	 3.2158
 1.1060	 3.0704
 1.1050	 3.1981
 1.1040	 3.0570
 1.1030	 3.1638
 1.1020	 3.0385
 1.1010	 3.1609
 1.1000	 3.0791
 1.0990	 3.1908
 1.0980	 2.9655
 1.0970	 3.1416
 1.0960	 3.0289
 1.0950	 3.2122
 1.0940	 2.9402
 1.0930	 3.2362
 1.0920	 3.0788
 1.0910	 3.2161
 1.0900	 3.1309
 1.0890	 3.1886
 1.0880	 3.1751
 1.0870	 3.1901
 1.0860	 3.1603
 1.0850	 3.1387
 1.0840	 3.0991
 1.0830	 3.2016
 1.0820	 3.1401
 1.0810	 3.2063
 1.0800	 3.0143
 1.0790	 3.2602
 1.0780	 3.0305
 1.0770	 3.2025
 1.0760	 3.1394
 1.0750	 3.2819
 1.0740	 3.0769
 1.0730	 3.2295
 1.0720	 3.0239
 1.0710	 3.3201
 1.0700	 2.9587
 1.0690	 3.3108
 1.0680	 3.0958
 1.0670	 3.2224
 1.0660	 3.1296
 1.0650	 3.2137
 1.0640	 3.1160
 1.0630	 3.2111
 1.0620	 3.0584
 1.0610	 3.2528
 1.0600	 3.1058
 1.0590	 3.2277
 1.0580	 3.0975
 1.0570	 3.2629
 1.0560	 3.1423
 1.0550	 3.2019
 1.0540	 3.1541
 1.0530	 3.3003
 1.0520	 3.0719
 1.0510	 3.2636
 1.0500	 3.2292
 1.0490	 3.2885
 1.0480	 3.2260
 1.0470	 3.3351
 1.0460	 3.2090
 1.0450	 3.3113
 1.0440	 3.1972
 1.0430	 3.2600
 1.0420	 3.3016
 1.0410	 3.3405
 1.0400	 3.1957
 1.0390	 3.2648
 1.0380	 3.2382
 1.0370	 3.2690
 1.0360	 3.1979
 1.0350	 3.3001
 1.0340	 3.1803
 1.0330	 3.3510
 1.0320	 3.2388
 1.0310	 3.3095
 1.0300	 3.2517
 1.0290	 3.3006
 1.0280	 3.2039
 1.0270	 3.3793
 1.0260	 3.2560
 1.0250	 3.3496
 1.0240	 3.2649
 1.0230	 3.3066
 1.0220	 3.2643
 1.0210	 3.3537
 1.0200	 3.2320
 1.0190	 3.2926
 1.0180	 3.2799
 1.0170	 3.3631
 1.0160	 3.2501
 1.0150	 3.3613
 1.0140	 3.2143
 1.0130	 3.3602
 1.0120	 3.2320
 1.0110	 3.3414
 1.0100	 3.2866
 1.0090	 3.4138
 1.0080	 3.3442
 1.0070	 3.2863
 1.0060	 3.3288
 1.0050	 3.3531
 1.0040	 3.2681
 1.0030	 3.4446
 1.0020	 3.3200
 1.0010	 3.3448
 1.0000	 3.3060
 0.9990	 3.3963
 0.9980	 3.3360
 0.9970	 3.4072
 0.9960	 3.2967
 0.9950	 3.4034
 0.9940	 3.3227
 0.9930	 3.3900
 0.9920	 3.3349
 0.9910	 3.3905
 0.9900	 3.3996
 0.9890	 3.4356
 0.9880	 3.3391
 0.9870	 3.3973
 0.9860	 3.3252
 0.9850	 3.3829
 0.9840	 3.3076
 0.9830	 3.4293
 0.9820	 3.3729
 0.9810	 3.4088
 0.9800	 3.4007
 0.9790	 3.4099
 0.9780	 3.3508
 0.9770	 3.4769
 0.9760	 3.4574
 0.9750	 3.4648
 0.9740	 3.4103
 0.9730	 3.4651
 0.9720	 3.4118
 0.9710	 3.3978
 0.9700	 3.3769
 0.9690	 3.4049
 0.9680	 3.4227
 0.9670	 3.4883
 0.9660	 3.4567
 0.9650	 3.4284
 0.9640	 3.4496
 0.9630	 3.5181
 0.9620	 3.4555
 0.9610	 3.4679
 0.9600	 3.4835
 0.9590	 3.4424
 0.9580	 3.4031
 0.9570	 3.4821
 0.9560	 3.4348
 0.9550	 3.5078
 0.9540	 3.4912
 0.9530	 3.5152
 0.9520	 3.4564
 0.9510	 3.4971
 0.9500	 3.5130
 0.9490	 3.5035
 0.9480	 3.4860
 0.9470	 3.5473
 0.9460	 3.5222
 0.9450	 3.5139
 0.9440	 3.5268
 0.9430	 3.5652
 0.9420	 3.4796
 0.9410	 3.4793
 0.9400	 3.4928
 0.9390	 3.5289
 0.9380	 3.5104
 0.9370	 3.4969
 0.9360	 3.5496
 0.9350	 3.5546
 0.9340	 3.5295
 0.9330	 3.5901
 0.9320	 3.6355
 0.9310	 3.5559
 0.9300	 3.5132
 0.9290	 3.5841
 0.9280	 3.6032
 0.9270	 3.6034
 0.9260	 3.5777
 0.9250	 3.5283
 0.9240	 3.5929
 0.9230	 3.5995
 0.9220	 3.5857
 0.9210	 3.5869
 0.9200	 3.6245
 0.9190	 3.6019
 0.9180	 3.6127
 0.9170	 3.6347
 0.9160	 3.6251
 0.9150	 3.5888
 0.9140	 3.6700
 0.9130	 3.6407
 0.9120	 3.6960
 0.9110	 3.6547
 0.9100	 3.6274
 0.9090	 3.6278
 0.9080	 3.7185
 0.9070	 3.7251
 0.9060	 3.6589
 0.9050	 3.6483
 0.9040	 3.6949
 0.9030	 3.6717
 0.9020	 3.6983
 0.9010	 3.7276
 0.9000	 3.7727
 0.8990	 3.6554
 0.8980	 3.7204
 0.8970	 3.7561
 0.8960	 3.7623
 0.8950	 3.7063
 0.8940	 3.7312
 0.8930	 3.6895
 0.8920	 3.7436
 0.8910	 3.7319
 0.8900	 3.7778
 0.8890	 3.7219
 0.8880	 3.7592
 0.8870	 3.7556
 0.8860	 3.8225
 0.8850	 3.7814
 0.8840	 3.7958
 0.8830	 3.7794
 0.8820	 3.8168
 0.8810	 3.7675
 0.8800	 3.8405
 0.8790	 3.7502
 0.8780	 3.8069
 0.8770	 3.7962
 0.8760	 3.8722
 0.8750	 3.8346
 0.8740	 3.8953
 0.8730	 3.8399
 0.8720	 3.8234
 0.8710	 3.7923
 0.8700	 3.8654
 0.8690	 3.7677
 0.8680	 3.9066
 0.8670	 3.8666
 0.8660	 3.9191
 0.8650	 3.8024
 0.8640	 3.8775
 0.8630	 3.8322
 0.8620	 3.9282
 0.8610	 3.8827
 0.8600	 4.0868
 0.8590	 4.1598
 0.8580	 4.1684
 0.8570	 4.1587
 0.8560	 4.1754
 0.8550	 4.1803
 0.8540	 4.1782
 0.8530	 4.1878
 0.8520	 4.1857
 0.8510	 4.1802
 0.8500	 4.1954
 0.8490	 4.1943
 0.8480	 4.1989
 0.8470	 4.2012
 0.8460	 4.2031
 0.8450	 4.2053
 0.8440	 4.2013
 0.8430	 4.2046
 0.8420	 4.2200
 0.8410	 4.2184
 0.8400	 4.2216
 0.8390	 4.2210
 0.8380	 4.2235
 0.8370	 4.2209
 0.8360	 4.2276
 0.8350	 4.2215
 0.8340	 4.2310
 0.8330	 4.2363
 0.8320	 4.2322
 0.8310	 4.2277
 0.8300	 4.2371
 0.8290	 4.2264
 0.8280	 4.2373
 0.8270	 4.2346
 0.8260	 4.2255
 0.8250	 4.2390
 0.8240	 4.2333
 0.8230	 4.2414
 0.8220	 4.2288
 0.8210	 4.2353
 0.8200	 4.2422
 0.8190	 4.2363
 0.8180	 4.2349
 0.8170	 4.2389
 0.8160	 4.2405
 0.8150	 4.2357
 0.8140	 4.2374
 0.8130	 4.2275
 0.8120	 4.2337
 0.8110	 4.2328
 0.8100	 4.2357
 0.8090	 4.2323
 0.8080	 4.2293
 0.8070	 4.2365
 0.8060	 4.2344
 0.8050	 4.2356
 0.8040	 4.2337
 0.8030	 4.2301
 0.8020	 4.2301
 0.8010	 4.2351
 0.8000	 4.2342
 0.7990	 4.2296
 0.7980	 4.2286
 0.7970	 4.2293
 0.7960	 4.2303
 0.7950	 4.2287
 0.7940	 4.2231
 0.7930	 4.2237
 0.7920	 4.2277
 0.7910	 4.2194
 0.7900	 4.2223
 0.7890	 4.2262
 0.7880	 4.2229
 0.7870	 4.2175
 0.7860	 4.2242
 0.7850	 4.2178
 0.7840	 4.2233
 0.7830	 4.2259
 0.7820	 4.2228
 0.7810	 4.2241
 0.7800	 4.2300
 0.7790	 4.2283
 0.7780	 4.2359
 0.7770	 4.2278
 0.7760	 4.2277
 0.7750	 4.2299
 0.7740	 4.2338
 0.7730	 4.2387
 0.7720	 4.2388
 0.7710	 4.2420
 0.7700	 4.2415
 0.7690	 4.2448
 0.7680	 4.2526
 0.7670	 4.2516
 0.7660	 4.2531
 0.7650	 4.2600
 0.7640	 4.2626
 0.7630	 4.2622
 0.7620	 4.2678
 0.7610	 4.2719
 0.7600	 4.2740
 0.7590	 4.2805
 0.7580	 4.2815
 0.7570	 4.2860
 0.7560	 4.2957
 0.7550	 4.2979
 0.7540	 4.3002
 0.7530	 4.3109
 0.7520	 4.3179
 0.7510	 4.3245
 0.7500	 4.3310
 0.7490	 4.3353
 0.7480	 4.3423
 0.7470	 4.3485
 0.7460	 4.3525
 0.7450	 4.3618
 0.7440	 4.3682
 0.7430	 4.3770
 0.7420	 4.3827
 0.7410	 4.3911
 0.7400	 4.4033
 0.7390	 4.4103
 0.7380	 4.4176
 0.7370	 4.4292
 0.7360	 4.4330
 0.7350	 4.4485
 0.7340	 4.4582
 0.7330	 4.4686
 0.7320	 4.4747
 0.7310	 4.4820
 0.7300	 4.4980
 0.7290	 4.5073
 0.7280	 4.5185
 0.7270	 4.5260
 0.7260	 4.5353
 0.7250	 4.5432
 0.7240	 4.5578
 0.7230	 4.5696
 0.7220	 4.5831
 0.7210	 4.5912
 0.7200	 4.6064
 0.7190	 4.6195
 0.7180	 4.6350
 0.7170	 4.6451
 0.7160	 4.6561
 0.7150	 4.6736
 0.7140	 4.6877
 0.7130	 4.7023
 0.7120	 4.7158
 0.7110	 4.7318
 0.7100	 4.7444
 0.7090	 4.7605
 0.7080	 4.7767
 0.7070	 4.7940
 0.7060	 4.8073
 0.7050	 4.8211
 0.7040	 4.8385
 0.7030	 4.8531
 0.7020	 4.8649
 0.7010	 4.8847
 0.7000	 4.9038
 0.6990	 4.9227
 0.6980	 4.9381
 0.6970	 4.9544
 0.6960	 4.9692
 0.6950	 4.9856
 0.6940	 5.0040
 0.6930	 5.0222
 0.6920	 5.0418
 0.6910	 5.0629
 0.6900	 5.0790
 0.6890	 5.0972
 0.6880	 5.1156
 0.6870	 5.1347
 0.6860	 5.1536
 0.6850	 5.1744
 0.6840	 5.1935
 0.6830	 5.2149
 0.6820	 5.2343
 0.6810	 5.2545
 0.6800	 5.2707
 0.6790	 5.2898
 0.6780	 5.3116
 0.6770	 5.3323
 0.6760	 5.3533
 0.6750	 5.3731
 0.6740	 5.3952
 0.6730	 5.4193
 0.6720	 5.4396
 0.6710	 5.4606
 0.6700	 5.4801
 0.6690	 5.4997
 0.6680	 5.5248
 0.6670	 5.5497
 0.6660	 5.5717
 0.6650	 5.5908
 0.6640	 5.6132
 0.6630	 5.6352
 0.6620	 5.6609
 0.6610	 5.6836
 0.6600	 5.7044
 0.6590	 5.7288
 0.6580	 5.7538
 0.6570	 5.7784
 0.6560	 5.8011
 0.6550	 5.8271
 0.6540	 5.8506
 0.6530	 5.8738
 0.6520	 5.8996
 0.6510	 5.9247
 0.6500	 5.9487
 0.6490	 5.9739
 0.6480	 5.9995
 0.6470	 6.0255
 0.6460	 6.0530
 0.6450	 6.0818
 0.6440	 6.1082
 0.6430	 6.1335
 0.6420	 6.1604
 0.6410	 6.1877
 0.6400	 6.2146
 0.6390	 6.2429
 0.6380	 6.2729
 0.6370	 6.3014
 0.6360	 6.3281
 0.6350	 6.3569
 0.6340	 6.3886
 0.6330	 6.4197
 0.6320	 6.4478
 0.6310	 6.4785
 0.6300	 6.5088
 0.6290	 6.5384
 0.6280	 6.5702
 0.6270	 6.6011
 0.6260	 6.6336
 0.6250	 6.6675
 0.6240	 6.7001
 0.6230	 6.7344
 0.6220	 6.7702
 0.6210	 6.8033
 0.6200	 6.8360
 0.6190	 6.8705
 0.6180	 6.9069
 0.6170	 6.9416
 0.6160	 6.9769
 0.6150	 7.0118
 0.6140	 7.0482
 0.6130	 7.0875
 0.6120	 7.1243
 0.6110	 7.1597
 0.6100	 7.1977
 0.6090	 7.2365
 0.6080	 7.2745
 0.6070	 7.3141
 0.6060	 7.3541
 0.6050	 7.3935
 0.6040	 7.4333
 0.6030	 7.4746
 0.6020	 7.5145
 0.6010	 7.5539
 0.6000	 7.5941
 0.5990	 7.6355
 0.5980	 7.6805
 0.5970	 7.7248
 0.5960	 7.7657
 0.5950	 7.8081
 0.5940	 7.8527
 0.5930	 7.8965
 0.5920	 7.9388
 0.5910	 7.9821
 0.5900	 8.0257
 0.5890	 8.0686
 0.5880	 8.1114
 0.5870	 8.1534
 0.5860	 8.1956
 0.5850	 8.2379
 0.5840	 8.2826
 0.5830	 8.3242
 0.5820	 8.3671
 0.5810	 8.4102
 0.5800	 8.4514
 0.5790	 8.4959
 0.5780	 8.5388
 0.5770	 8.5788
 0.5760	 8.6104
 0.5750	 8.6481
 0.5740	 8.6899
 0.5730	 8.7279
 0.5720	 8.7652
 0.5710	 8.8035
 0.5700	 8.8405
 0.5690	 8.8735
 0.5680	 8.9105
 0.5670	 8.9432
 0.5660	 8.9769
 0.5650	 9.0088
 0.5640	 9.0403
 0.5630	 9.0686
 0.5620	 9.0960
 0.5610	 9.1219
 0.5600	 9.1507
 0.5590	 9.1732
 0.5580	 9.1930
 0.5570	 9.2142
 0.5560	 9.2327
 0.5550	 9.2499
 0.5540	 9.2661
 0.5530	 9.2852
 0.5520	 9.3002
 0.5510	 9.3129
 0.5500	 9.3215
 0.5490	 9.3373
 0.5480	 9.3492
 0.5470	 9.3578
 0.5460	 9.3680
 0.5450	 9.3734
 0.5440	 9.3792
 0.5430	 9.3811
 0.5420	 9.3842
 0.5410	 9.3848
 0.5400	 9.3861
 0.5390	 9.3872
 0.5380	 9.3829
 0.5370	 9.3765
 0.5360	 9.3672
 0.5350	 9.3577
 0.5340	 9.3493
 0.5330	 9.3332
 0.5320	 9.3192
 0.5310	 9.3034
 0.5300	 9.2845
 0.5290	 9.2611
 0.5280	 9.2455
 0.5270	 9.2239
 0.5260	 9.2054
 0.5250	 9.1856
 0.5240	 9.1647
 0.5230	 9.1482
 0.5220	 9.1288
 0.5210	 9.1126
 0.5200	 9.0965
 0.5190	 9.0824
 0.5180	 9.0675
 0.5170	 9.0518
 0.5160	 9.0363
 0.5150	 9.0220
 0.5140	 9.0058
 0.5130	 8.9874
 0.5120	 8.9670
 0.5110	 8.9531
 0.5100	 8.9361
 0.5090	 8.9145
 0.5080	 8.8932
 0.5070	 8.8720
 0.5060	 8.8548
 0.5050	 8.8351
 0.5040	 8.8069
 0.5030	 8.7876
 0.5020	 8.7650
 0.5010	 8.7459
 0.5000	 8.7348
 0.4990	 8.7144
 0.4980	 8.6968
 0.4970	 8.6764
 0.4960	 8.6595
 0.4950	 8.6355
 0.4940	 8.6195
 0.4930	 8.5982
 0.4920	 8.5854
 0.4910	 8.5653
 0.4900	 8.5479
 0.4890	 8.5230
 0.4880	 8.5003
 0.4870	 8.4747
 0.4860	 8.4430
 0.4850	 8.4144
 0.4840	 8.3769
 0.4830	 8.3363
 0.4820	 8.2994
 0.4810	 8.2668
 0.4800	 8.2244
 0.4790	 8.1853
 0.4780	 8.1428
 0.4770	 8.0947
 0.4760	 8.0545
 0.4750	 8.0027
 0.4740	 7.9546
 0.4730	 7.9075
 0.4720	 7.8607
 0.4710	 7.8130
 0.4700	 7.7664
 0.4690	 7.7150
 0.4680	 7.6728
 0.4670	 7.6292
 0.4660	 7.5846
 0.4650	 7.5468
 0.4640	 7.5011
 0.4630	 7.4658
 0.4620	 7.4253
 0.4610	 7.3943
 0.4600	 7.3615
 0.4590	 7.3226
 0.4580	 7.2945
 0.4570	 7.2646
 0.4560	 7.2342
 0.4550	 7.2033
 0.4540	 7.1769
 0.4530	 7.1535
 0.4520	 7.1261
 0.4510	 7.1049
 0.4500	 7.0819
 0.4490	 7.0647
 0.4480	 7.0525
 0.4470	 7.0403
 0.4460	 7.0318
 0.4450	 7.0239
 0.4440	 7.0155
 0.4430	 7.0061
 0.4420	 7.0007
 0.4410	 6.9927
 0.4400	 6.9844
 0.4390	 6.9777
 0.4380	 6.9683
 0.4370	 6.9566
 0.4360	 6.9475
 0.4350	 6.9328
 0.4340	 6.9203
 0.4330	 6.9045
 0.4320	 6.8901
 0.4310	 6.8739
 0.4300	 6.8623
 0.4290	 6.8436
 0.4280	 6.8301
 0.4270	 6.8123
 0.4260	 6.7969
 0.4250	 6.7805
 0.4240	 6.7632
 0.4230	 6.7440
 0.4220	 6.7259
 0.4210	 6.7060
 0.4200	 6.6856
 0.4190	 6.6688
 0.4180	 6.6516
 0.4170	 6.6369
 0.4160	 6.6173
 0.4150	 6.5958
 0.4140	 6.5801
 0.4130	 6.5639
 0.4120	 6.5476
 0.4110	 6.5279
 0.4100	 6.5146
 0.4090	 6.4981
 0.4080	 6.4831
 0.4070	 6.4691
 0.4060	 6.4582
 0.4050	 6.4452
 0.4040	 6.4275
 0.4030	 6.4158
 0.4020	 6.4045
 0.4010	 6.3912
 0.4000	 6.3790
