Name: Chlorite
Type: Mineral
Class: Silicate
Subclass: Phyllosilicate
Particle Size: Fine
Sample No.: PS-12F
Owner: JPL
Wavelength Range: VSWIR
Origin: USA, New Mexico.
Collection Date: N/A
Description: Particle size was 0-45um.Collected by:  Ward's Original ASTER Spectral Library name was jpl.perkin.mineral.silicate.phyllosilicate.fine.ps12f.spectrum.txt
Measurement: Hemispherical reflectance
First Column: X
Second Column: Y
X Units: Wavelength (micrometers)
Y Units:Reflectance (percent)
First X Value:  2.5000
Last X Value:  0.4000
Number of X Values: 2101
Additional Information: mineral.silicate.phyllosilicate.fine.vswir.ps-12f.jpl.perkin.ancillary.txt

 2.5000	50.4523
 2.4990	50.1079
 2.4980	50.2442
 2.4970	50.2792
 2.4960	50.1130
 2.4950	50.4554
 2.4940	50.4444
 2.4930	50.5821
 2.4920	50.5944
 2.4910	50.7976
 2.4900	50.6756
 2.4890	50.7776
 2.4880	50.7646
 2.4870	50.9638
 2.4860	50.8848
 2.4850	51.1213
 2.4840	50.9116
 2.4830	51.1813
 2.4820	51.1918
 2.4810	51.5520
 2.4800	51.4140
 2.4790	51.4129
 2.4780	51.3602
 2.4770	51.6139
 2.4760	51.7453
 2.4750	51.8737
 2.4740	51.7291
 2.4730	51.8379
 2.4720	52.1167
 2.4710	52.2374
 2.4700	52.0647
 2.4690	52.3991
 2.4680	52.3258
 2.4670	52.4915
 2.4660	52.4156
 2.4650	52.7170
 2.4640	52.7556
 2.4630	52.8473
 2.4620	52.8039
 2.4610	53.0350
 2.4600	52.9487
 2.4590	53.0497
 2.4580	53.0685
 2.4570	53.2215
 2.4560	53.2212
 2.4550	53.4110
 2.4540	53.3034
 2.4530	53.4684
 2.4520	53.4206
 2.4510	53.4946
 2.4500	53.5394
 2.4490	53.5737
 2.4480	53.5275
 2.4470	53.5887
 2.4460	53.5629
 2.4450	53.7873
 2.4440	53.6260
 2.4430	53.6854
 2.4420	53.6824
 2.4410	53.6739
 2.4400	53.6283
 2.4390	53.7748
 2.4380	53.7392
 2.4370	53.8523
 2.4360	53.7679
 2.4350	53.7665
 2.4340	53.7987
 2.4330	53.9153
 2.4320	53.8083
 2.4310	53.8775
 2.4300	53.8038
 2.4290	53.8016
 2.4280	53.7994
 2.4270	53.8705
 2.4260	53.9362
 2.4250	53.9376
 2.4240	53.9012
 2.4230	53.8856
 2.4220	53.8223
 2.4210	53.8912
 2.4200	53.8914
 2.4190	53.9729
 2.4180	53.9467
 2.4170	53.9426
 2.4160	53.8451
 2.4150	53.9337
 2.4140	53.9128
 2.4130	53.9494
 2.4120	53.9473
 2.4110	53.8751
 2.4100	53.8586
 2.4090	53.8936
 2.4080	53.8462
 2.4070	53.8635
 2.4060	53.8036
 2.4050	53.7525
 2.4040	53.6905
 2.4030	53.7359
 2.4020	53.6519
 2.4010	53.6139
 2.4000	53.5130
 2.3990	53.4560
 2.3980	53.3464
 2.3970	53.3304
 2.3960	53.2663
 2.3950	53.2054
 2.3940	53.1563
 2.3930	53.0889
 2.3920	52.8653
 2.3910	52.7221
 2.3900	52.6838
 2.3890	52.6350
 2.3880	52.4637
 2.3870	52.3337
 2.3860	52.1788
 2.3850	52.0244
 2.3840	51.8163
 2.3830	51.5565
 2.3820	51.4467
 2.3810	51.3803
 2.3800	51.1492
 2.3790	51.0587
 2.3780	50.9199
 2.3770	50.6769
 2.3760	50.4272
 2.3750	50.2284
 2.3740	50.0811
 2.3730	49.9672
 2.3720	49.7223
 2.3710	49.5672
 2.3700	49.4867
 2.3690	49.3570
 2.3680	49.1365
 2.3670	49.0307
 2.3660	48.9479
 2.3650	48.7771
 2.3640	48.7152
 2.3630	48.6663
 2.3620	48.5674
 2.3610	48.4927
 2.3600	48.4690
 2.3590	48.4647
 2.3580	48.3755
 2.3570	48.3473
 2.3560	48.3962
 2.3550	48.3803
 2.3540	48.4010
 2.3530	48.4458
 2.3520	48.4539
 2.3510	48.4476
 2.3500	48.5167
 2.3490	48.5788
 2.3480	48.6347
 2.3470	48.7617
 2.3460	48.8574
 2.3450	48.8953
 2.3440	48.9518
 2.3430	49.0443
 2.3420	49.2011
 2.3410	49.2908
 2.3400	49.4321
 2.3390	49.5595
 2.3380	49.6867
 2.3370	49.7493
 2.3360	49.7773
 2.3350	49.8987
 2.3340	50.0441
 2.3330	50.1232
 2.3320	50.2731
 2.3310	50.4155
 2.3300	50.5426
 2.3290	50.5751
 2.3280	50.7317
 2.3270	50.8073
 2.3260	50.9658
 2.3250	51.1129
 2.3240	51.2128
 2.3230	51.2724
 2.3220	51.3275
 2.3210	51.3555
 2.3200	51.4610
 2.3190	51.6155
 2.3180	51.7155
 2.3170	51.8441
 2.3160	51.9682
 2.3150	52.1134
 2.3140	52.1881
 2.3130	52.2791
 2.3120	52.3651
 2.3110	52.3993
 2.3100	52.5776
 2.3090	52.6893
 2.3080	52.7621
 2.3070	52.7720
 2.3060	52.8924
 2.3050	52.9805
 2.3040	53.0648
 2.3030	53.0767
 2.3020	53.1616
 2.3010	53.2173
 2.3000	53.3655
 2.2990	53.4473
 2.2980	53.5291
 2.2970	53.5188
 2.2960	53.5989
 2.2950	53.6614
 2.2940	53.6056
 2.2930	53.6559
 2.2920	53.7318
 2.2910	53.7184
 2.2900	53.6994
 2.2890	53.6737
 2.2880	53.6837
 2.2870	53.6083
 2.2860	53.6319
 2.2850	53.6246
 2.2840	53.5626
 2.2830	53.4847
 2.2820	53.4008
 2.2810	53.2388
 2.2800	53.2320
 2.2790	53.0963
 2.2780	52.9632
 2.2770	52.7863
 2.2760	52.6782
 2.2750	52.5067
 2.2740	52.3270
 2.2730	52.2083
 2.2720	51.9610
 2.2710	51.7976
 2.2700	51.6614
 2.2690	51.3530
 2.2680	51.2537
 2.2670	51.0183
 2.2660	50.8748
 2.2650	50.6950
 2.2640	50.5349
 2.2630	50.4564
 2.2620	50.2558
 2.2610	50.2077
 2.2600	50.2485
 2.2590	50.1316
 2.2580	50.2327
 2.2570	50.2897
 2.2560	50.4439
 2.2550	50.5936
 2.2540	50.8185
 2.2530	51.0939
 2.2520	51.3704
 2.2510	51.5898
 2.2500	51.9969
 2.2490	52.2865
 2.2480	52.6733
 2.2470	53.0610
 2.2460	53.4061
 2.2450	53.7690
 2.2440	54.2194
 2.2430	54.5098
 2.2420	55.0232
 2.2410	55.4106
 2.2400	55.7290
 2.2390	56.0136
 2.2380	56.4651
 2.2370	56.6687
 2.2360	57.0056
 2.2350	57.3089
 2.2340	57.5201
 2.2330	57.8176
 2.2320	58.0367
 2.2310	58.1376
 2.2300	58.3628
 2.2290	58.6122
 2.2280	58.7482
 2.2270	58.9080
 2.2260	59.0673
 2.2250	59.3029
 2.2240	59.3616
 2.2230	59.4287
 2.2220	59.6265
 2.2210	59.7167
 2.2200	59.8506
 2.2190	59.8606
 2.2180	60.1393
 2.2170	60.1511
 2.2160	60.2604
 2.2150	60.1632
 2.2140	60.3351
 2.2130	60.4298
 2.2120	60.5180
 2.2110	60.5279
 2.2100	60.7733
 2.2090	60.6791
 2.2080	60.8317
 2.2070	60.7753
 2.2060	60.9776
 2.2050	60.9382
 2.2040	61.0971
 2.2030	61.0912
 2.2020	61.1026
 2.2010	61.1647
 2.2000	61.3312
 2.1990	61.3538
 2.1980	61.2712
 2.1970	61.3410
 2.1960	61.4781
 2.1950	61.4452
 2.1940	61.5217
 2.1930	61.5802
 2.1920	61.6671
 2.1910	61.5922
 2.1900	61.6487
 2.1890	61.6385
 2.1880	61.6931
 2.1870	61.7567
 2.1860	61.7546
 2.1850	61.7185
 2.1840	61.8150
 2.1830	61.8339
 2.1820	61.8797
 2.1810	61.8616
 2.1800	61.8948
 2.1790	61.9386
 2.1780	61.9524
 2.1770	61.9319
 2.1760	62.0770
 2.1750	62.0283
 2.1740	62.1110
 2.1730	62.0815
 2.1720	62.1284
 2.1710	62.1809
 2.1700	62.1655
 2.1690	62.1308
 2.1680	62.2043
 2.1670	62.2123
 2.1660	62.2122
 2.1650	62.2659
 2.1640	62.3572
 2.1630	62.2746
 2.1620	62.4187
 2.1610	62.3542
 2.1600	62.3676
 2.1590	62.4510
 2.1580	62.4673
 2.1570	62.4485
 2.1560	62.4075
 2.1550	62.4599
 2.1540	62.4536
 2.1530	62.4235
 2.1520	62.5246
 2.1510	62.5200
 2.1500	62.5771
 2.1490	62.4392
 2.1480	62.4812
 2.1470	62.5137
 2.1460	62.4772
 2.1450	62.4984
 2.1440	62.4933
 2.1430	62.4137
 2.1420	62.4466
 2.1410	62.4308
 2.1400	62.3980
 2.1390	62.3901
 2.1380	62.4258
 2.1370	62.3932
 2.1360	62.3704
 2.1350	62.3781
 2.1340	62.3000
 2.1330	62.2084
 2.1320	62.2777
 2.1310	62.2458
 2.1300	62.2601
 2.1290	62.1982
 2.1280	62.1571
 2.1270	62.1384
 2.1260	62.1077
 2.1250	62.0824
 2.1240	62.0492
 2.1230	62.0333
 2.1220	61.9441
 2.1210	61.9660
 2.1200	61.9958
 2.1190	61.9434
 2.1180	61.9580
 2.1170	61.9268
 2.1160	61.9180
 2.1150	61.8759
 2.1140	61.8749
 2.1130	61.8640
 2.1120	61.7786
 2.1110	61.7131
 2.1100	61.7315
 2.1090	61.7100
 2.1080	61.6373
 2.1070	61.5921
 2.1060	61.5570
 2.1050	61.5336
 2.1040	61.5042
 2.1030	61.4756
 2.1020	61.4153
 2.1010	61.3547
 2.1000	61.3314
 2.0990	61.2884
 2.0980	61.2760
 2.0970	61.3370
 2.0960	61.3311
 2.0950	61.2684
 2.0940	61.2678
 2.0930	61.2420
 2.0920	61.2962
 2.0910	61.2614
 2.0900	61.1917
 2.0890	61.1559
 2.0880	61.1284
 2.0870	61.0996
 2.0860	61.1513
 2.0850	61.1409
 2.0840	61.1130
 2.0830	61.0637
 2.0820	61.0497
 2.0810	61.0354
 2.0800	61.0085
 2.0790	60.9835
 2.0780	60.9858
 2.0770	61.0069
 2.0760	60.9865
 2.0750	60.9115
 2.0740	60.8627
 2.0730	60.8479
 2.0720	60.8566
 2.0710	60.8152
 2.0700	60.7289
 2.0690	60.7423
 2.0680	60.7289
 2.0670	60.6583
 2.0660	60.6412
 2.0650	60.6185
 2.0640	60.5443
 2.0630	60.5478
 2.0620	60.5479
 2.0610	60.4956
 2.0600	60.4621
 2.0590	60.4358
 2.0580	60.3465
 2.0570	60.2979
 2.0560	60.2976
 2.0550	60.2547
 2.0540	60.2230
 2.0530	60.2220
 2.0520	60.1032
 2.0510	60.0208
 2.0500	59.9752
 2.0490	59.9641
 2.0480	59.8901
 2.0470	59.8495
 2.0460	59.7601
 2.0450	59.6973
 2.0440	59.6611
 2.0430	59.6198
 2.0420	59.5066
 2.0410	59.4760
 2.0400	59.3672
 2.0390	59.3061
 2.0380	59.2488
 2.0370	59.1535
 2.0360	59.0836
 2.0350	59.0157
 2.0340	58.9990
 2.0330	58.9553
 2.0320	58.8537
 2.0310	58.7571
 2.0300	58.6879
 2.0290	58.6681
 2.0280	58.5486
 2.0270	58.4508
 2.0260	58.3588
 2.0250	58.3216
 2.0240	58.2286
 2.0230	58.1940
 2.0220	58.1946
 2.0210	58.1288
 2.0200	57.9927
 2.0190	58.0242
 2.0180	57.9556
 2.0170	57.8133
 2.0160	57.7882
 2.0150	57.7925
 2.0140	57.6926
 2.0130	57.6535
 2.0120	57.6809
 2.0110	57.6416
 2.0100	57.5999
 2.0090	57.6058
 2.0080	57.5520
 2.0070	57.4859
 2.0060	57.5204
 2.0050	57.5141
 2.0040	57.4993
 2.0030	57.4927
 2.0020	57.4514
 2.0010	57.4723
 2.0000	57.4177
 1.9990	57.4648
 1.9980	57.4795
 1.9970	57.4777
 1.9960	57.4850
 1.9950	57.5473
 1.9940	57.5302
 1.9930	57.5510
 1.9920	57.4944
 1.9910	57.5573
 1.9900	57.5681
 1.9890	57.5914
 1.9880	57.5925
 1.9870	57.6647
 1.9860	57.5913
 1.9850	57.6488
 1.9840	57.6305
 1.9830	57.7050
 1.9820	57.6267
 1.9810	57.7306
 1.9800	57.7428
 1.9790	57.8033
 1.9780	57.7662
 1.9770	57.7985
 1.9760	57.7847
 1.9750	57.7838
 1.9740	57.8151
 1.9730	57.8441
 1.9720	57.8304
 1.9710	57.8655
 1.9700	57.7913
 1.9690	57.8711
 1.9680	57.7607
 1.9670	57.8474
 1.9660	57.8725
 1.9650	57.9002
 1.9640	57.8596
 1.9630	57.8440
 1.9620	57.9171
 1.9610	57.8396
 1.9600	57.7536
 1.9590	57.8709
 1.9580	57.8390
 1.9570	57.8130
 1.9560	57.7817
 1.9550	57.8136
 1.9540	57.7050
 1.9530	57.8925
 1.9520	57.8084
 1.9510	57.7823
 1.9500	57.8112
 1.9490	57.8706
 1.9480	57.7690
 1.9470	57.9283
 1.9460	57.8459
 1.9450	57.8804
 1.9440	57.8319
 1.9430	57.8124
 1.9420	57.7434
 1.9410	57.8201
 1.9400	57.8312
 1.9390	57.8446
 1.9380	57.8365
 1.9370	57.7671
 1.9360	57.8543
 1.9350	57.8361
 1.9340	57.6639
 1.9330	57.7161
 1.9320	57.6819
 1.9310	57.6807
 1.9300	57.6428
 1.9290	57.6003
 1.9280	57.5558
 1.9270	57.5955
 1.9260	57.4445
 1.9250	57.6480
 1.9240	57.5238
 1.9230	57.4418
 1.9220	57.5580
 1.9210	57.4191
 1.9200	57.3538
 1.9190	57.4570
 1.9180	57.4025
 1.9170	57.5225
 1.9160	57.3544
 1.9150	57.4037
 1.9140	57.4026
 1.9130	57.3848
 1.9120	57.3737
 1.9110	57.3920
 1.9100	57.3214
 1.9090	57.3033
 1.9080	57.3126
 1.9070	57.3250
 1.9060	57.3616
 1.9050	57.3064
 1.9040	57.2795
 1.9030	57.2901
 1.9020	57.2842
 1.9010	57.3109
 1.9000	57.3214
 1.8990	57.3369
 1.8980	57.3030
 1.8970	57.3478
 1.8960	57.2532
 1.8950	57.3756
 1.8940	57.3345
 1.8930	57.3627
 1.8920	57.3378
 1.8910	57.3366
 1.8900	57.3385
 1.8890	57.3649
 1.8880	57.2483
 1.8870	57.3300
 1.8860	57.2252
 1.8850	57.2832
 1.8840	57.3303
 1.8830	57.2106
 1.8820	57.1825
 1.8810	57.2787
 1.8800	57.1939
 1.8790	57.2901
 1.8780	57.2919
 1.8770	57.2365
 1.8760	57.2236
 1.8750	57.2000
 1.8740	57.1995
 1.8730	57.1878
 1.8720	57.1283
 1.8710	57.1863
 1.8700	57.1692
 1.8690	57.1676
 1.8680	57.1237
 1.8670	57.1482
 1.8660	57.1237
 1.8650	57.2395
 1.8640	57.1785
 1.8630	57.2415
 1.8620	57.2988
 1.8610	57.2077
 1.8600	57.1243
 1.8590	57.0994
 1.8580	57.1456
 1.8570	57.1618
 1.8560	57.1157
 1.8550	57.1251
 1.8540	57.1585
 1.8530	57.1459
 1.8520	57.0785
 1.8510	57.1342
 1.8500	57.0150
 1.8490	57.0463
 1.8480	57.0468
 1.8470	57.0314
 1.8460	56.9637
 1.8450	56.9975
 1.8440	57.0456
 1.8430	57.0333
 1.8420	56.9596
 1.8410	56.9930
 1.8400	56.9283
 1.8390	56.9755
 1.8380	56.8919
 1.8370	56.8599
 1.8360	56.8729
 1.8350	56.8752
 1.8340	56.7652
 1.8330	56.7996
 1.8320	56.7651
 1.8310	56.7999
 1.8300	56.7474
 1.8290	56.6673
 1.8280	56.6122
 1.8270	56.6695
 1.8260	56.6696
 1.8250	56.6382
 1.8240	56.5873
 1.8230	56.6402
 1.8220	56.5938
 1.8210	56.5500
 1.8200	56.5254
 1.8190	56.5002
 1.8180	56.5002
 1.8170	56.4168
 1.8160	56.4551
 1.8150	56.4949
 1.8140	56.4085
 1.8130	56.3624
 1.8120	56.3450
 1.8110	56.2990
 1.8100	56.3245
 1.8090	56.3400
 1.8080	56.2750
 1.8070	56.2460
 1.8060	56.2141
 1.8050	56.2432
 1.8040	56.2623
 1.8030	56.2672
 1.8020	56.1754
 1.8010	56.1230
 1.8000	56.1453
 1.7990	56.1251
 1.7980	56.0991
 1.7970	56.0801
 1.7960	55.9991
 1.7950	55.9280
 1.7940	55.9757
 1.7930	55.9212
 1.7920	55.8028
 1.7910	55.8336
 1.7900	55.8840
 1.7890	55.8260
 1.7880	55.7638
 1.7870	55.7773
 1.7860	55.7572
 1.7850	55.7088
 1.7840	55.6504
 1.7830	55.5682
 1.7820	55.5132
 1.7810	55.5129
 1.7800	55.4669
 1.7790	55.4324
 1.7780	55.4665
 1.7770	55.4324
 1.7760	55.4107
 1.7750	55.3917
 1.7740	55.3363
 1.7730	55.2586
 1.7720	55.2537
 1.7710	55.2518
 1.7700	55.2247
 1.7690	55.1431
 1.7680	55.1168
 1.7670	55.1077
 1.7660	55.0578
 1.7650	55.0393
 1.7640	55.0442
 1.7630	54.9786
 1.7620	54.9688
 1.7610	54.9500
 1.7600	54.9038
 1.7590	54.8402
 1.7580	54.8199
 1.7570	54.7953
 1.7560	54.7671
 1.7550	54.6791
 1.7540	54.6591
 1.7530	54.6651
 1.7520	54.6867
 1.7510	54.6490
 1.7500	54.5868
 1.7490	54.5397
 1.7480	54.5348
 1.7470	54.4627
 1.7460	54.4615
 1.7450	54.4684
 1.7440	54.3819
 1.7430	54.3259
 1.7420	54.3028
 1.7410	54.2576
 1.7400	54.2466
 1.7390	54.2022
 1.7380	54.2432
 1.7370	54.1394
 1.7360	54.1812
 1.7350	54.0764
 1.7340	54.0178
 1.7330	53.9617
 1.7320	53.9895
 1.7310	53.9690
 1.7300	53.9304
 1.7290	53.9108
 1.7280	53.8860
 1.7270	53.8404
 1.7260	53.8430
 1.7250	53.7817
 1.7240	53.7372
 1.7230	53.6696
 1.7220	53.6319
 1.7210	53.6087
 1.7200	53.6262
 1.7190	53.5508
 1.7180	53.5112
 1.7170	53.4652
 1.7160	53.4545
 1.7150	53.4085
 1.7140	53.3555
 1.7130	53.2975
 1.7120	53.2939
 1.7110	53.2445
 1.7100	53.2025
 1.7090	53.1831
 1.7080	53.1133
 1.7070	53.1035
 1.7060	53.0649
 1.7050	53.0054
 1.7040	52.9351
 1.7030	52.8618
 1.7020	52.8466
 1.7010	52.8131
 1.7000	52.8103
 1.6990	52.7618
 1.6980	52.7169
 1.6970	52.6950
 1.6960	52.6732
 1.6950	52.5026
 1.6940	52.6330
 1.6930	52.4958
 1.6920	52.5003
 1.6910	52.3957
 1.6900	52.4067
 1.6890	52.3534
 1.6880	52.3181
 1.6870	52.1637
 1.6860	52.2100
 1.6850	52.1947
 1.6840	52.2061
 1.6830	52.0860
 1.6820	52.0843
 1.6810	52.0133
 1.6800	51.9955
 1.6790	51.9863
 1.6780	51.9162
 1.6770	51.8120
 1.6760	51.7973
 1.6750	51.7164
 1.6740	51.7753
 1.6730	51.6828
 1.6720	51.6536
 1.6710	51.6019
 1.6700	51.5712
 1.6690	51.5977
 1.6680	51.3387
 1.6670	51.4659
 1.6660	51.4518
 1.6650	51.3436
 1.6640	51.2831
 1.6630	51.2431
 1.6620	51.3288
 1.6610	51.2309
 1.6600	51.1789
 1.6590	51.1037
 1.6580	50.9442
 1.6570	50.9480
 1.6560	51.0076
 1.6550	50.9047
 1.6540	50.9520
 1.6530	50.8210
 1.6520	50.8007
 1.6510	50.7491
 1.6500	50.6889
 1.6490	50.6314
 1.6480	50.6792
 1.6470	50.5902
 1.6460	50.6018
 1.6450	50.4311
 1.6440	50.4328
 1.6430	50.3752
 1.6420	50.3873
 1.6410	50.1496
 1.6400	50.2475
 1.6390	50.1907
 1.6380	50.2246
 1.6370	50.0067
 1.6360	50.1056
 1.6350	49.9768
 1.6340	49.9384
 1.6330	49.9376
 1.6320	49.9203
 1.6310	49.7797
 1.6300	49.7917
 1.6290	49.7702
 1.6280	49.7252
 1.6270	49.5776
 1.6260	49.6283
 1.6250	49.4859
 1.6240	49.5251
 1.6230	49.3868
 1.6220	49.3395
 1.6210	49.3095
 1.6200	49.2820
 1.6190	49.2016
 1.6180	49.1955
 1.6170	49.0622
 1.6160	49.0439
 1.6150	48.9967
 1.6140	48.9830
 1.6130	48.9100
 1.6120	48.9293
 1.6110	48.7681
 1.6100	48.8291
 1.6090	48.7316
 1.6080	48.7708
 1.6070	48.6950
 1.6060	48.6402
 1.6050	48.5247
 1.6040	48.5500
 1.6030	48.4896
 1.6020	48.4778
 1.6010	48.2798
 1.6000	48.4231
 1.5990	48.2856
 1.5980	48.2841
 1.5970	48.1533
 1.5960	48.2086
 1.5950	48.1086
 1.5940	48.0964
 1.5930	48.0181
 1.5920	47.9916
 1.5910	47.8155
 1.5900	47.8511
 1.5890	47.7672
 1.5880	47.7584
 1.5870	47.7323
 1.5860	47.7475
 1.5850	47.6207
 1.5840	47.6046
 1.5830	47.5277
 1.5820	47.4736
 1.5810	47.4557
 1.5800	47.3470
 1.5790	47.3061
 1.5780	47.2825
 1.5770	47.2311
 1.5760	47.2258
 1.5750	47.1337
 1.5740	47.0729
 1.5730	46.9733
 1.5720	47.0057
 1.5710	46.9236
 1.5700	46.9852
 1.5690	46.8564
 1.5680	46.8279
 1.5670	46.7367
 1.5660	46.7616
 1.5650	46.6908
 1.5640	46.6841
 1.5630	46.5734
 1.5620	46.5596
 1.5610	46.4871
 1.5600	46.5093
 1.5590	46.4193
 1.5580	46.3870
 1.5570	46.3422
 1.5560	46.3768
 1.5550	46.2598
 1.5540	46.2536
 1.5530	46.1485
 1.5520	46.1408
 1.5510	46.0861
 1.5500	46.0411
 1.5490	45.9720
 1.5480	46.0190
 1.5470	45.9224
 1.5460	45.9067
 1.5450	45.8548
 1.5440	45.7904
 1.5430	45.7164
 1.5420	45.6631
 1.5410	45.6583
 1.5400	45.6272
 1.5390	45.6047
 1.5380	45.5649
 1.5370	45.4870
 1.5360	45.4836
 1.5350	45.4105
 1.5340	45.4094
 1.5330	45.3429
 1.5320	45.3277
 1.5310	45.3113
 1.5300	45.2778
 1.5290	45.1908
 1.5280	45.1807
 1.5270	45.1164
 1.5260	45.1159
 1.5250	45.0615
 1.5240	45.0146
 1.5230	44.9717
 1.5220	44.9696
 1.5210	44.9511
 1.5200	44.8990
 1.5190	44.8113
 1.5180	44.8091
 1.5170	44.7532
 1.5160	44.7214
 1.5150	44.6698
 1.5140	44.6959
 1.5130	44.6627
 1.5120	44.5890
 1.5110	44.5823
 1.5100	44.5423
 1.5090	44.4908
 1.5080	44.4279
 1.5070	44.3754
 1.5060	44.4199
 1.5050	44.3632
 1.5040	44.2679
 1.5030	44.2614
 1.5020	44.2247
 1.5010	44.1277
 1.5000	44.0676
 1.4990	44.0600
 1.4980	44.0434
 1.4970	43.9984
 1.4960	43.9165
 1.4950	43.8968
 1.4940	43.8295
 1.4930	43.7715
 1.4920	43.7472
 1.4910	43.7125
 1.4900	43.6902
 1.4890	43.6328
 1.4880	43.5684
 1.4870	43.5193
 1.4860	43.4500
 1.4850	43.3805
 1.4840	43.3468
 1.4830	43.3074
 1.4820	43.2287
 1.4810	43.1832
 1.4800	43.1272
 1.4790	43.0663
 1.4780	42.9836
 1.4770	42.9491
 1.4760	42.9131
 1.4750	42.9004
 1.4740	42.8129
 1.4730	42.7678
 1.4720	42.7370
 1.4710	42.6437
 1.4700	42.5815
 1.4690	42.5215
 1.4680	42.4364
 1.4670	42.4060
 1.4660	42.3714
 1.4650	42.3066
 1.4640	42.2096
 1.4630	42.2192
 1.4620	42.0939
 1.4610	42.0726
 1.4600	42.0686
 1.4590	42.0024
 1.4580	41.8953
 1.4570	41.8751
 1.4560	41.7858
 1.4550	41.7933
 1.4540	41.6759
 1.4530	41.6668
 1.4520	41.6152
 1.4510	41.5003
 1.4500	41.4775
 1.4490	41.4249
 1.4480	41.4276
 1.4470	41.4381
 1.4460	41.3046
 1.4450	41.2919
 1.4440	41.2227
 1.4430	41.1542
 1.4420	41.1157
 1.4410	41.1347
 1.4400	41.0418
 1.4390	41.0927
 1.4380	41.0227
 1.4370	40.9834
 1.4360	40.9175
 1.4350	40.8678
 1.4340	40.7948
 1.4330	40.8192
 1.4320	40.7810
 1.4310	40.7496
 1.4300	40.6060
 1.4290	40.6784
 1.4280	40.5702
 1.4270	40.4921
 1.4260	40.3706
 1.4250	40.2551
 1.4240	40.0390
 1.4230	39.8779
 1.4220	39.6920
 1.4210	39.5357
 1.4200	39.1292
 1.4190	38.7392
 1.4180	38.3502
 1.4170	37.9818
 1.4160	37.6466
 1.4150	37.3244
 1.4140	37.1024
 1.4130	37.1341
 1.4120	37.2234
 1.4110	37.3852
 1.4100	37.4537
 1.4090	37.6035
 1.4080	37.6791
 1.4070	37.7741
 1.4060	37.7923
 1.4050	38.0379
 1.4040	38.1638
 1.4030	38.4823
 1.4020	38.4593
 1.4010	38.6273
 1.4000	38.7553
 1.3990	38.9006
 1.3980	38.9884
 1.3970	39.0186
 1.3960	39.0732
 1.3950	39.1242
 1.3940	39.0419
 1.3930	39.1353
 1.3920	39.0497
 1.3910	39.0892
 1.3900	39.0363
 1.3890	39.0506
 1.3880	38.9744
 1.3870	38.9201
 1.3860	38.8567
 1.3850	38.8627
 1.3840	38.7582
 1.3830	38.7649
 1.3820	38.5798
 1.3810	38.6103
 1.3800	38.4433
 1.3790	38.5589
 1.3780	38.4553
 1.3770	38.4940
 1.3760	38.3234
 1.3750	38.3036
 1.3740	38.2156
 1.3730	38.1596
 1.3720	38.0730
 1.3710	38.1097
 1.3700	37.8990
 1.3690	37.9525
 1.3680	37.8522
 1.3670	37.8218
 1.3660	37.7303
 1.3650	37.7466
 1.3640	37.6372
 1.3630	37.6191
 1.3620	37.3669
 1.3610	37.3622
 1.3600	37.3440
 1.3590	37.3234
 1.3580	37.2687
 1.3570	37.2521
 1.3560	37.2101
 1.3550	36.9796
 1.3540	36.9929
 1.3530	36.9183
 1.3520	36.8286
 1.3510	36.8501
 1.3500	36.7142
 1.3490	36.6795
 1.3480	36.5986
 1.3470	36.5725
 1.3460	36.5095
 1.3450	36.4882
 1.3440	36.3234
 1.3430	36.3592
 1.3420	36.1356
 1.3410	36.1918
 1.3400	36.1835
 1.3390	36.0003
 1.3380	36.0046
 1.3370	35.9837
 1.3360	35.7501
 1.3350	35.7841
 1.3340	35.7201
 1.3330	35.7058
 1.3320	35.6459
 1.3310	35.5546
 1.3300	35.5173
 1.3290	35.4949
 1.3280	35.2974
 1.3270	35.3290
 1.3260	35.1260
 1.3250	35.2152
 1.3240	35.0637
 1.3230	35.1344
 1.3220	34.9677
 1.3210	34.9821
 1.3200	34.8354
 1.3190	34.7757
 1.3180	34.6024
 1.3170	34.6848
 1.3160	34.5554
 1.3150	34.6149
 1.3140	34.4879
 1.3130	34.4597
 1.3120	34.3510
 1.3110	34.3177
 1.3100	34.2058
 1.3090	34.1659
 1.3080	34.0766
 1.3070	34.0852
 1.3060	33.9007
 1.3050	33.9075
 1.3040	33.8584
 1.3030	33.9010
 1.3020	33.7043
 1.3010	33.7080
 1.3000	33.5756
 1.2990	33.5625
 1.2980	33.4256
 1.2970	33.4361
 1.2960	33.3162
 1.2950	33.3342
 1.2940	33.1935
 1.2930	33.1739
 1.2920	33.0874
 1.2910	33.0414
 1.2900	32.9656
 1.2890	33.0018
 1.2880	32.8518
 1.2870	32.7797
 1.2860	32.6772
 1.2850	32.6527
 1.2840	32.5975
 1.2830	32.5736
 1.2820	32.4796
 1.2810	32.4325
 1.2800	32.3375
 1.2790	32.3249
 1.2780	32.1661
 1.2770	32.1624
 1.2760	32.0994
 1.2750	32.0629
 1.2740	31.9304
 1.2730	31.8708
 1.2720	31.8075
 1.2710	31.7542
 1.2700	31.7232
 1.2690	31.6453
 1.2680	31.5214
 1.2670	31.5180
 1.2660	31.4510
 1.2650	31.4195
 1.2640	31.3308
 1.2630	31.2909
 1.2620	31.1870
 1.2610	31.1583
 1.2600	31.0587
 1.2590	31.0726
 1.2580	31.0196
 1.2570	30.9356
 1.2560	30.8585
 1.2550	30.8148
 1.2540	30.7373
 1.2530	30.6654
 1.2520	30.5875
 1.2510	30.5358
 1.2500	30.4351
 1.2490	30.4017
 1.2480	30.3187
 1.2470	30.3282
 1.2460	30.2527
 1.2450	30.1838
 1.2440	30.1255
 1.2430	30.0822
 1.2420	29.9681
 1.2410	29.9711
 1.2400	29.8666
 1.2390	29.7767
 1.2380	29.7844
 1.2370	29.7474
 1.2360	29.6259
 1.2350	29.5395
 1.2340	29.4657
 1.2330	29.4691
 1.2320	29.4174
 1.2310	29.3866
 1.2300	29.3372
 1.2290	29.2743
 1.2280	29.1988
 1.2270	29.1376
 1.2260	29.0760
 1.2250	29.0072
 1.2240	28.9246
 1.2230	28.9030
 1.2220	28.8387
 1.2210	28.7890
 1.2200	28.7358
 1.2190	28.6594
 1.2180	28.6142
 1.2170	28.5739
 1.2160	28.4778
 1.2150	28.4209
 1.2140	28.3626
 1.2130	28.3250
 1.2120	28.3189
 1.2110	28.2791
 1.2100	28.1728
 1.2090	28.1314
 1.2080	28.0866
 1.2070	28.0074
 1.2060	27.9694
 1.2050	27.9336
 1.2040	27.8554
 1.2030	27.7600
 1.2020	27.7619
 1.2010	27.7461
 1.2000	27.6574
 1.1990	27.5362
 1.1980	27.5637
 1.1970	27.5218
 1.1960	27.4707
 1.1950	27.4065
 1.1940	27.3718
 1.1930	27.3126
 1.1920	27.2511
 1.1910	27.2094
 1.1900	27.2033
 1.1890	27.2193
 1.1880	27.0401
 1.1870	26.9922
 1.1860	27.0511
 1.1850	26.9735
 1.1840	26.9406
 1.1830	26.8780
 1.1820	26.8278
 1.1810	26.7143
 1.1800	26.7041
 1.1790	26.6779
 1.1780	26.7085
 1.1770	26.6285
 1.1760	26.5644
 1.1750	26.5357
 1.1740	26.5154
 1.1730	26.4270
 1.1720	26.4640
 1.1710	26.3946
 1.1700	26.4114
 1.1690	26.3467
 1.1680	26.2664
 1.1670	26.1992
 1.1660	26.1780
 1.1650	26.1289
 1.1640	26.1364
 1.1630	26.0571
 1.1620	26.0448
 1.1610	25.9527
 1.1600	26.0101
 1.1590	25.9033
 1.1580	25.9396
 1.1570	25.8850
 1.1560	25.8940
 1.1550	25.8353
 1.1540	25.8146
 1.1530	25.6439
 1.1520	25.6701
 1.1510	25.6502
 1.1500	25.6081
 1.1490	25.5427
 1.1480	25.5966
 1.1470	25.5043
 1.1460	25.4969
 1.1450	25.3922
 1.1440	25.4839
 1.1430	25.3932
 1.1420	25.4088
 1.1410	25.3284
 1.1400	25.3465
 1.1390	25.2630
 1.1380	25.2939
 1.1370	25.2204
 1.1360	25.2855
 1.1350	25.0764
 1.1340	25.1557
 1.1330	25.1045
 1.1320	25.1690
 1.1310	25.1264
 1.1300	25.1048
 1.1290	25.0202
 1.1280	24.9680
 1.1270	24.9297
 1.1260	25.0054
 1.1250	24.8857
 1.1240	24.9150
 1.1230	24.8579
 1.1220	24.8882
 1.1210	24.8181
 1.1200	24.8754
 1.1190	24.7851
 1.1180	24.8296
 1.1170	24.7412
 1.1160	24.7339
 1.1150	24.6783
 1.1140	24.7256
 1.1130	24.6727
 1.1120	24.7016
 1.1110	24.6305
 1.1100	24.6582
 1.1090	24.5946
 1.1080	24.6240
 1.1070	24.5826
 1.1060	24.6234
 1.1050	24.4889
 1.1040	24.5682
 1.1030	24.4878
 1.1020	24.5896
 1.1010	24.5321
 1.1000	24.4986
 1.0990	24.3677
 1.0980	24.4976
 1.0970	24.4035
 1.0960	24.4811
 1.0950	24.3680
 1.0940	24.4388
 1.0930	24.3595
 1.0920	24.4712
 1.0910	24.2525
 1.0900	24.3967
 1.0890	24.1615
 1.0880	24.3646
 1.0870	24.3290
 1.0860	24.3614
 1.0850	24.2778
 1.0840	24.3296
 1.0830	24.2800
 1.0820	24.2620
 1.0810	24.2583
 1.0800	24.2367
 1.0790	24.1710
 1.0780	24.2178
 1.0770	24.2873
 1.0760	24.2324
 1.0750	24.1233
 1.0740	24.2673
 1.0730	24.1625
 1.0720	24.2425
 1.0710	24.2442
 1.0700	24.1153
 1.0690	24.2462
 1.0680	24.1503
 1.0670	24.0729
 1.0660	24.2066
 1.0650	24.0440
 1.0640	24.2123
 1.0630	24.0992
 1.0620	24.1363
 1.0610	24.0434
 1.0600	24.1499
 1.0590	24.0377
 1.0580	24.0872
 1.0570	24.0730
 1.0560	24.1319
 1.0550	24.0214
 1.0540	24.1266
 1.0530	23.9730
 1.0520	24.0945
 1.0510	23.9530
 1.0500	24.0370
 1.0490	23.9682
 1.0480	23.9938
 1.0470	23.9579
 1.0460	24.1054
 1.0450	23.9852
 1.0440	24.0986
 1.0430	23.9175
 1.0420	24.0030
 1.0410	23.8211
 1.0400	23.9976
 1.0390	23.9338
 1.0380	23.9920
 1.0370	23.9054
 1.0360	23.9619
 1.0350	23.9515
 1.0340	24.0057
 1.0330	23.8385
 1.0320	23.9820
 1.0310	23.7955
 1.0300	23.9191
 1.0290	23.9132
 1.0280	23.9205
 1.0270	23.7901
 1.0260	23.8996
 1.0250	23.8468
 1.0240	23.8849
 1.0230	23.7740
 1.0220	23.8660
 1.0210	23.7753
 1.0200	23.8155
 1.0190	23.7644
 1.0180	23.8364
 1.0170	23.6545
 1.0160	23.7487
 1.0150	23.6690
 1.0140	23.7471
 1.0130	23.6394
 1.0120	23.7822
 1.0110	23.7156
 1.0100	23.7168
 1.0090	23.6139
 1.0080	23.5760
 1.0070	23.6263
 1.0060	23.6041
 1.0050	23.5541
 1.0040	23.6180
 1.0030	23.5711
 1.0020	23.5890
 1.0010	23.4724
 1.0000	23.4862
 0.9990	23.4415
 0.9980	23.4956
 0.9970	23.4542
 0.9960	23.4709
 0.9950	23.3848
 0.9940	23.4597
 0.9930	23.4067
 0.9920	23.3673
 0.9910	23.3469
 0.9900	23.3450
 0.9890	23.2529
 0.9880	23.2232
 0.9870	23.1767
 0.9860	23.2478
 0.9850	23.1836
 0.9840	23.1565
 0.9830	23.1073
 0.9820	23.1007
 0.9810	23.0483
 0.9800	23.0610
 0.9790	23.0088
 0.9780	23.0682
 0.9770	22.9368
 0.9760	22.9311
 0.9750	22.8594
 0.9740	22.9001
 0.9730	22.8438
 0.9720	22.8460
 0.9710	22.7327
 0.9700	22.7223
 0.9690	22.7243
 0.9680	22.7360
 0.9670	22.6354
 0.9660	22.6315
 0.9650	22.6183
 0.9640	22.5467
 0.9630	22.5084
 0.9620	22.4987
 0.9610	22.4222
 0.9600	22.4122
 0.9590	22.3986
 0.9580	22.3808
 0.9570	22.3059
 0.9560	22.3615
 0.9550	22.3012
 0.9540	22.2611
 0.9530	22.2161
 0.9520	22.2292
 0.9510	22.1602
 0.9500	22.0683
 0.9490	22.1096
 0.9480	22.1139
 0.9470	22.0044
 0.9460	21.9534
 0.9450	21.9497
 0.9440	21.9349
 0.9430	21.8686
 0.9420	21.8461
 0.9410	21.8423
 0.9400	21.8378
 0.9390	21.8236
 0.9380	21.7387
 0.9370	21.6823
 0.9360	21.6994
 0.9350	21.6786
 0.9340	21.6676
 0.9330	21.6310
 0.9320	21.6233
 0.9310	21.5629
 0.9300	21.5153
 0.9290	21.5057
 0.9280	21.4658
 0.9270	21.4781
 0.9260	21.4769
 0.9250	21.4011
 0.9240	21.3604
 0.9230	21.3546
 0.9220	21.3576
 0.9210	21.3042
 0.9200	21.2488
 0.9190	21.2423
 0.9180	21.2473
 0.9170	21.2310
 0.9160	21.1944
 0.9150	21.2727
 0.9140	21.2424
 0.9130	21.1742
 0.9120	21.1213
 0.9110	21.1428
 0.9100	21.1701
 0.9090	21.0941
 0.9080	21.0189
 0.9070	20.9925
 0.9060	21.0080
 0.9050	21.0491
 0.9040	21.0099
 0.9030	21.0416
 0.9020	21.0046
 0.9010	20.9442
 0.9000	20.9957
 0.8990	20.9952
 0.8980	20.9225
 0.8970	20.9408
 0.8960	20.8800
 0.8950	20.9637
 0.8940	20.9562
 0.8930	20.9312
 0.8920	20.8537
 0.8910	20.9071
 0.8900	20.9187
 0.8890	20.9288
 0.8880	20.9166
 0.8870	20.9569
 0.8860	20.9036
 0.8850	20.8860
 0.8840	20.8678
 0.8830	20.9258
 0.8820	20.9143
 0.8810	20.8655
 0.8800	20.8129
 0.8790	20.8664
 0.8780	20.8452
 0.8770	20.9380
 0.8760	20.8790
 0.8750	20.9448
 0.8740	20.8954
 0.8730	20.9250
 0.8720	20.8703
 0.8710	20.8998
 0.8700	20.9206
 0.8690	20.9739
 0.8680	20.9294
 0.8670	20.9774
 0.8660	20.9041
 0.8650	20.9650
 0.8640	20.8755
 0.8630	21.0666
 0.8620	21.0186
 0.8610	21.0414
 0.8600	21.0944
 0.8590	21.0877
 0.8580	21.1388
 0.8570	21.1501
 0.8560	21.2065
 0.8550	21.1974
 0.8540	21.1826
 0.8530	21.2567
 0.8520	21.2529
 0.8510	21.2961
 0.8500	21.3058
 0.8490	21.3054
 0.8480	21.3283
 0.8470	21.3661
 0.8460	21.3908
 0.8450	21.3970
 0.8440	21.4285
 0.8430	21.4370
 0.8420	21.4623
 0.8410	21.5019
 0.8400	21.5179
 0.8390	21.4929
 0.8380	21.5310
 0.8370	21.5727
 0.8360	21.5950
 0.8350	21.5995
 0.8340	21.6331
 0.8330	21.6190
 0.8320	21.6336
 0.8310	21.6925
 0.8300	21.6914
 0.8290	21.7091
 0.8280	21.7330
 0.8270	21.7280
 0.8260	21.7537
 0.8250	21.7650
 0.8240	21.7611
 0.8230	21.7869
 0.8220	21.7883
 0.8210	21.8067
 0.8200	21.8035
 0.8190	21.8326
 0.8180	21.8286
 0.8170	21.8297
 0.8160	21.8496
 0.8150	21.8598
 0.8140	21.8595
 0.8130	21.8864
 0.8120	21.8925
 0.8110	21.8827
 0.8100	21.8793
 0.8090	21.8752
 0.8080	21.8936
 0.8070	21.8917
 0.8060	21.9002
 0.8050	21.8849
 0.8040	21.8782
 0.8030	21.8676
 0.8020	21.8817
 0.8010	21.8818
 0.8000	21.8715
 0.7990	21.8635
 0.7980	21.8472
 0.7970	21.8345
 0.7960	21.8328
 0.7950	21.8121
 0.7940	21.8064
 0.7930	21.8032
 0.7920	21.7562
 0.7910	21.7617
 0.7900	21.7572
 0.7890	21.7351
 0.7880	21.7180
 0.7870	21.6895
 0.7860	21.6756
 0.7850	21.6821
 0.7840	21.6480
 0.7830	21.6401
 0.7820	21.6097
 0.7810	21.5940
 0.7800	21.5767
 0.7790	21.5565
 0.7780	21.5442
 0.7770	21.5074
 0.7760	21.4850
 0.7750	21.4604
 0.7740	21.4442
 0.7730	21.4218
 0.7720	21.3960
 0.7710	21.3770
 0.7700	21.3588
 0.7690	21.3210
 0.7680	21.3165
 0.7670	21.2803
 0.7660	21.2675
 0.7650	21.2381
 0.7640	21.2143
 0.7630	21.1889
 0.7620	21.1906
 0.7610	21.1286
 0.7600	21.1240
 0.7590	21.1127
 0.7580	21.0945
 0.7570	21.0632
 0.7560	21.0488
 0.7550	21.0256
 0.7540	20.9989
 0.7530	20.9812
 0.7520	20.9711
 0.7510	20.9264
 0.7500	20.9268
 0.7490	20.9087
 0.7480	20.8755
 0.7470	20.8595
 0.7460	20.8481
 0.7450	20.8297
 0.7440	20.8253
 0.7430	20.8003
 0.7420	20.7698
 0.7410	20.7625
 0.7400	20.7532
 0.7390	20.7263
 0.7380	20.7242
 0.7370	20.7176
 0.7360	20.6921
 0.7350	20.6894
 0.7340	20.6678
 0.7330	20.6516
 0.7320	20.6391
 0.7310	20.6334
 0.7300	20.6206
 0.7290	20.6127
 0.7280	20.6037
 0.7270	20.5942
 0.7260	20.5845
 0.7250	20.5707
 0.7240	20.5614
 0.7230	20.5617
 0.7220	20.5578
 0.7210	20.5555
 0.7200	20.5546
 0.7190	20.5543
 0.7180	20.5384
 0.7170	20.5422
 0.7160	20.5325
 0.7150	20.5329
 0.7140	20.5289
 0.7130	20.5379
 0.7120	20.5343
 0.7110	20.5419
 0.7100	20.5433
 0.7090	20.5376
 0.7080	20.5495
 0.7070	20.5576
 0.7060	20.5559
 0.7050	20.5546
 0.7040	20.5667
 0.7030	20.5748
 0.7020	20.5753
 0.7010	20.5853
 0.7000	20.5963
 0.6990	20.5994
 0.6980	20.6104
 0.6970	20.6267
 0.6960	20.6361
 0.6950	20.6479
 0.6940	20.6515
 0.6930	20.6653
 0.6920	20.6826
 0.6910	20.6922
 0.6900	20.7059
 0.6890	20.7209
 0.6880	20.7319
 0.6870	20.7409
 0.6860	20.7561
 0.6850	20.7799
 0.6840	20.7865
 0.6830	20.8052
 0.6820	20.8235
 0.6810	20.8437
 0.6800	20.8654
 0.6790	20.8878
 0.6780	20.9012
 0.6770	20.9110
 0.6760	20.9348
 0.6750	20.9525
 0.6740	20.9712
 0.6730	20.9930
 0.6720	21.0138
 0.6710	21.0354
 0.6700	21.0537
 0.6690	21.0721
 0.6680	21.0946
 0.6670	21.1182
 0.6660	21.1364
 0.6650	21.1603
 0.6640	21.1890
 0.6630	21.2079
 0.6620	21.2278
 0.6610	21.2551
 0.6600	21.2747
 0.6590	21.2925
 0.6580	21.3194
 0.6570	21.3479
 0.6560	21.3706
 0.6550	21.3893
 0.6540	21.4135
 0.6530	21.4419
 0.6520	21.4663
 0.6510	21.4870
 0.6500	21.5080
 0.6490	21.5355
 0.6480	21.5648
 0.6470	21.5907
 0.6460	21.6122
 0.6450	21.6338
 0.6440	21.6558
 0.6430	21.6803
 0.6420	21.7082
 0.6410	21.7366
 0.6400	21.7587
 0.6390	21.7843
 0.6380	21.8086
 0.6370	21.8297
 0.6360	21.8549
 0.6350	21.8817
 0.6340	21.9067
 0.6330	21.9292
 0.6320	21.9505
 0.6310	21.9780
 0.6300	22.0017
 0.6290	22.0200
 0.6280	22.0466
 0.6270	22.0766
 0.6260	22.1005
 0.6250	22.1236
 0.6240	22.1488
 0.6230	22.1717
 0.6220	22.1924
 0.6210	22.2177
 0.6200	22.2395
 0.6190	22.2621
 0.6180	22.2863
 0.6170	22.3104
 0.6160	22.3342
 0.6150	22.3560
 0.6140	22.3802
 0.6130	22.4029
 0.6120	22.4227
 0.6110	22.4416
 0.6100	22.4661
 0.6090	22.4881
 0.6080	22.5080
 0.6070	22.5287
 0.6060	22.5496
 0.6050	22.5739
 0.6040	22.5953
 0.6030	22.6140
 0.6020	22.6311
 0.6010	22.6574
 0.6000	22.6796
 0.5990	22.7002
 0.5980	22.7226
 0.5970	22.7494
 0.5960	22.7697
 0.5950	22.7902
 0.5940	22.8093
 0.5930	22.8297
 0.5920	22.8491
 0.5910	22.8642
 0.5900	22.8762
 0.5890	22.8920
 0.5880	22.9074
 0.5870	22.9208
 0.5860	22.9348
 0.5850	22.9521
 0.5840	22.9621
 0.5830	22.9715
 0.5820	22.9845
 0.5810	22.9918
 0.5800	22.9977
 0.5790	23.0066
 0.5780	23.0197
 0.5770	23.0246
 0.5760	23.0298
 0.5750	23.0351
 0.5740	23.0373
 0.5730	23.0391
 0.5720	23.0423
 0.5710	23.0441
 0.5700	23.0391
 0.5690	23.0364
 0.5680	23.0395
 0.5670	23.0328
 0.5660	23.0299
 0.5650	23.0191
 0.5640	23.0093
 0.5630	23.0006
 0.5620	22.9869
 0.5610	22.9690
 0.5600	22.9534
 0.5590	22.9328
 0.5580	22.9096
 0.5570	22.8940
 0.5560	22.8666
 0.5550	22.8381
 0.5540	22.8123
 0.5530	22.7831
 0.5520	22.7560
 0.5510	22.7224
 0.5500	22.6897
 0.5490	22.6510
 0.5480	22.6151
 0.5470	22.5849
 0.5460	22.5415
 0.5450	22.5000
 0.5440	22.4566
 0.5430	22.4084
 0.5420	22.3629
 0.5410	22.3201
 0.5400	22.2710
 0.5390	22.2178
 0.5380	22.1676
 0.5370	22.1147
 0.5360	22.0626
 0.5350	22.0098
 0.5340	21.9547
 0.5330	21.8999
 0.5320	21.8376
 0.5310	21.7810
 0.5300	21.7223
 0.5290	21.6598
 0.5280	21.5998
 0.5270	21.5354
 0.5260	21.4732
 0.5250	21.4060
 0.5240	21.3413
 0.5230	21.2717
 0.5220	21.2000
 0.5210	21.1261
 0.5200	21.0514
 0.5190	20.9751
 0.5180	20.8878
 0.5170	20.8081
 0.5160	20.7123
 0.5150	20.6326
 0.5140	20.5432
 0.5130	20.4437
 0.5120	20.3466
 0.5110	20.2533
 0.5100	20.1551
 0.5090	20.0628
 0.5080	19.9621
 0.5070	19.8628
 0.5060	19.7654
 0.5050	19.6673
 0.5040	19.5529
 0.5030	19.4546
 0.5020	19.3412
 0.5010	19.2318
 0.5000	19.1113
 0.4990	19.0038
 0.4980	18.8869
 0.4970	18.7765
 0.4960	18.6716
 0.4950	18.5648
 0.4940	18.4828
 0.4930	18.3911
 0.4920	18.3117
 0.4910	18.2383
 0.4900	18.1660
 0.4890	18.0731
 0.4880	17.9889
 0.4870	17.8931
 0.4860	17.7966
 0.4850	17.7034
 0.4840	17.6297
 0.4830	17.5278
 0.4820	17.4388
 0.4810	17.3446
 0.4800	17.2677
 0.4790	17.1786
 0.4780	17.0976
 0.4770	17.0015
 0.4760	16.9180
 0.4750	16.8358
 0.4740	16.7533
 0.4730	16.6669
 0.4720	16.5797
 0.4710	16.5090
 0.4700	16.4212
 0.4690	16.3486
 0.4680	16.2686
 0.4670	16.2017
 0.4660	16.1311
 0.4650	16.0561
 0.4640	15.9881
 0.4630	15.9189
 0.4620	15.8549
 0.4610	15.7836
 0.4600	15.7194
 0.4590	15.6501
 0.4580	15.5840
 0.4570	15.5227
 0.4560	15.4562
 0.4550	15.3963
 0.4540	15.3286
 0.4530	15.2568
 0.4520	15.1873
 0.4510	15.1168
 0.4500	15.0370
 0.4490	14.9700
 0.4480	14.8847
 0.4470	14.7947
 0.4460	14.7047
 0.4450	14.6074
 0.4440	14.5085
 0.4430	14.4082
 0.4420	14.2971
 0.4410	14.1874
 0.4400	14.0724
 0.4390	13.9488
 0.4380	13.8295
 0.4370	13.7057
 0.4360	13.5820
 0.4350	13.4588
 0.4340	13.3275
 0.4330	13.2044
 0.4320	13.0782
 0.4310	12.9556
 0.4300	12.8312
 0.4290	12.7165
 0.4280	12.5860
 0.4270	12.4667
 0.4260	12.3492
 0.4250	12.2362
 0.4240	12.1195
 0.4230	12.0066
 0.4220	11.8995
 0.4210	11.7970
 0.4200	11.6923
 0.4190	11.5900
 0.4180	11.4937
 0.4170	11.3975
 0.4160	11.3017
 0.4150	11.2037
 0.4140	11.1134
 0.4130	11.0259
 0.4120	10.9365
 0.4110	10.8566
 0.4100	10.7669
 0.4090	10.6813
 0.4080	10.5995
 0.4070	10.5250
 0.4060	10.4469
 0.4050	10.3688
 0.4040	10.2928
 0.4030	10.2178
 0.4020	10.1418
 0.4010	10.0728
 0.4000	 9.9934
