Name: Rhodonite (Mn,Ca)SiO_3
Type: Mineral
Class: Silicate
Subclass: Inosilicate
Particle Size: Coarse
Sample No.: IN-1A
Owner: JPL
Wavelength Range: VSWIR
Origin: USA, California, Fresno County
Collection Date: N/A
Description: Particle size was 125-500um.Collected by Burminco Original ASTER Spectral Library name was jpl.beckman.mineral.silicate.inosilicate.coarse.in01a.spectrum.txt
Measurement: Hemispherical reflectance
First Column: X
Second Column: Y
X Units: Wavelength (micrometers)
Y Units:Reflectance (percent)
First X Value:  0.4000
Last X Value:  2.5000
Number of X Values: 826
Additional Information: mineral.silicate.inosilicate.coarse.vswir.in-1a.jpl.beckman.ancillary.txt

 0.4000	20.3800
 0.4010	19.7500
 0.4020	19.3100
 0.4030	18.7900
 0.4040	18.1000
 0.4050	17.3300
 0.4060	16.4000
 0.4070	15.4500
 0.4080	15.0700
 0.4090	15.1700
 0.4100	15.3500
 0.4110	15.4100
 0.4120	15.5000
 0.4130	15.5000
 0.4140	15.4800
 0.4150	15.8500
 0.4160	16.6200
 0.4170	17.2800
 0.4180	17.6300
 0.4190	17.8900
 0.4200	18.0200
 0.4210	18.2400
 0.4220	18.4200
 0.4230	18.5300
 0.4240	18.6200
 0.4250	19.0000
 0.4260	19.0400
 0.4270	19.0700
 0.4280	19.1500
 0.4290	19.2400
 0.4300	19.5000
 0.4310	19.6700
 0.4320	19.7900
 0.4330	20.0800
 0.4340	20.2700
 0.4350	20.3700
 0.4360	20.4900
 0.4370	20.7900
 0.4380	21.0500
 0.4390	21.1700
 0.4400	21.2700
 0.4410	21.4600
 0.4420	21.7700
 0.4430	21.9000
 0.4440	22.0400
 0.4450	22.1900
 0.4460	22.3200
 0.4470	22.4900
 0.4480	22.3900
 0.4490	22.5800
 0.4500	22.6700
 0.4510	22.8000
 0.4520	22.7700
 0.4530	22.7900
 0.4540	22.8800
 0.4550	23.0900
 0.4560	23.0200
 0.4570	23.2400
 0.4580	23.3400
 0.4590	23.4800
 0.4600	23.4000
 0.4610	23.6000
 0.4620	23.8200
 0.4630	23.9900
 0.4640	24.0900
 0.4650	24.0900
 0.4660	24.2300
 0.4670	24.4900
 0.4680	24.4700
 0.4690	24.5400
 0.4700	24.7300
 0.4710	24.8100
 0.4720	24.9400
 0.4730	24.9900
 0.4740	24.9700
 0.4750	25.2400
 0.4760	25.2100
 0.4770	25.2000
 0.4780	25.2800
 0.4790	25.3600
 0.4800	25.4400
 0.4810	25.4400
 0.4820	25.5100
 0.4830	25.7200
 0.4840	25.7900
 0.4850	25.7600
 0.4860	25.7900
 0.4870	25.9400
 0.4880	26.0700
 0.4890	25.9800
 0.4900	25.9100
 0.4910	26.0700
 0.4920	26.1400
 0.4930	26.0300
 0.4940	25.9600
 0.4950	26.0500
 0.4960	26.0600
 0.4970	26.1000
 0.4980	25.9100
 0.4990	25.8800
 0.5000	25.9800
 0.5010	25.8400
 0.5020	25.7500
 0.5030	25.6800
 0.5040	25.6800
 0.5050	25.7000
 0.5060	25.5100
 0.5070	25.4900
 0.5080	25.5300
 0.5090	25.4600
 0.5100	25.3400
 0.5110	25.2000
 0.5120	25.1700
 0.5130	25.2400
 0.5140	25.0300
 0.5150	24.8700
 0.5160	24.7700
 0.5170	24.6700
 0.5180	24.6600
 0.5190	24.4500
 0.5200	24.4800
 0.5210	24.4900
 0.5220	24.3900
 0.5230	24.1700
 0.5240	24.0800
 0.5250	24.1800
 0.5260	24.0200
 0.5270	23.8300
 0.5280	23.7700
 0.5290	23.8300
 0.5300	23.7000
 0.5310	23.5500
 0.5320	23.5800
 0.5330	23.6300
 0.5340	23.6100
 0.5350	23.4100
 0.5360	23.4100
 0.5370	23.7000
 0.5380	23.5600
 0.5390	23.4500
 0.5400	23.5300
 0.5410	23.6800
 0.5420	23.6600
 0.5430	23.6500
 0.5440	23.7900
 0.5450	23.9400
 0.5460	24.0800
 0.5470	24.0900
 0.5480	24.1500
 0.5490	24.5100
 0.5500	24.5600
 0.5510	24.6600
 0.5520	24.9500
 0.5530	25.1400
 0.5540	25.3400
 0.5550	25.4600
 0.5560	25.6400
 0.5570	26.0200
 0.5580	26.1500
 0.5590	26.2500
 0.5600	26.3600
 0.5610	27.1100
 0.5620	27.4400
 0.5630	27.9300
 0.5640	28.0500
 0.5650	28.3900
 0.5660	28.6500
 0.5670	29.0700
 0.5680	29.4000
 0.5690	29.5300
 0.5700	29.6700
 0.5710	30.1000
 0.5720	30.4300
 0.5730	30.6000
 0.5740	30.7800
 0.5750	31.2500
 0.5760	31.6700
 0.5770	31.9100
 0.5780	32.1300
 0.5790	32.4800
 0.5800	32.8200
 0.5810	33.1600
 0.5820	33.4600
 0.5830	33.7400
 0.5840	34.1400
 0.5850	34.5300
 0.5860	34.6300
 0.5870	34.9400
 0.5880	35.5200
 0.5890	35.7700
 0.5900	36.0300
 0.5910	36.1500
 0.5920	36.5900
 0.5930	36.9500
 0.5940	37.1800
 0.5950	37.3300
 0.5960	37.8100
 0.5970	37.9400
 0.5980	38.1300
 0.5990	38.4000
 0.6000	38.7300
 0.6010	39.0100
 0.6020	39.1900
 0.6030	39.4100
 0.6040	39.5600
 0.6050	40.0200
 0.6060	40.1700
 0.6070	40.3100
 0.6080	40.5500
 0.6090	40.7300
 0.6100	40.8600
 0.6110	40.9800
 0.6120	41.1000
 0.6130	41.4700
 0.6140	41.5100
 0.6150	41.6500
 0.6160	41.6900
 0.6170	42.0200
 0.6180	42.1300
 0.6190	42.2400
 0.6200	42.2400
 0.6210	42.5600
 0.6220	42.6500
 0.6230	42.7100
 0.6240	42.8000
 0.6250	43.0200
 0.6260	43.1800
 0.6270	43.2400
 0.6280	43.3600
 0.6290	43.4000
 0.6300	43.5200
 0.6310	43.6900
 0.6320	43.7700
 0.6330	43.8000
 0.6340	43.9100
 0.6350	44.1700
 0.6360	44.1100
 0.6370	44.1900
 0.6380	44.3300
 0.6390	44.5700
 0.6400	44.6600
 0.6410	44.8700
 0.6420	44.8100
 0.6430	44.9200
 0.6440	44.9200
 0.6450	45.0100
 0.6460	45.1000
 0.6470	45.1600
 0.6480	45.2700
 0.6490	45.1800
 0.6500	45.2700
 0.6510	45.4700
 0.6520	45.6300
 0.6530	45.5800
 0.6540	45.7300
 0.6550	45.7000
 0.6560	45.9000
 0.6570	45.9200
 0.6580	45.8400
 0.6590	46.0100
 0.6600	46.0400
 0.6610	46.1000
 0.6620	46.0700
 0.6630	46.2100
 0.6640	46.4500
 0.6650	46.5000
 0.6660	46.4800
 0.6670	46.5900
 0.6680	46.6800
 0.6690	46.7700
 0.6700	46.7700
 0.6710	46.7400
 0.6720	46.8800
 0.6730	47.0300
 0.6740	46.9100
 0.6750	47.0300
 0.6760	47.1100
 0.6770	47.2000
 0.6780	47.1700
 0.6790	47.2800
 0.6800	47.2500
 0.6810	47.3900
 0.6820	47.4200
 0.6830	47.3400
 0.6840	47.5400
 0.6850	47.5700
 0.6860	47.5900
 0.6870	47.4800
 0.6880	47.6300
 0.6890	47.8300
 0.6900	47.8900
 0.6910	47.8600
 0.6920	47.9400
 0.6930	47.9400
 0.6940	48.0600
 0.6950	48.0300
 0.6960	48.0000
 0.6970	48.1200
 0.6980	48.2400
 0.6990	48.0100
 0.7000	48.0500
 0.7010	48.1400
 0.7020	48.1500
 0.7030	48.2900
 0.7040	48.4000
 0.7050	48.2000
 0.7060	48.3400
 0.7070	48.4100
 0.7080	48.5500
 0.7090	48.5200
 0.7100	48.4900
 0.7110	48.5700
 0.7120	48.7800
 0.7130	48.5800
 0.7140	48.5800
 0.7150	48.6600
 0.7160	48.7800
 0.7170	48.7500
 0.7180	48.7000
 0.7190	48.8100
 0.7200	48.9200
 0.7210	48.8700
 0.7220	48.9100
 0.7230	48.9100
 0.7240	49.0000
 0.7250	49.1100
 0.7260	49.0000
 0.7270	48.9700
 0.7280	49.1100
 0.7290	49.2400
 0.7300	49.0900
 0.7310	49.0600
 0.7320	49.1100
 0.7330	49.3200
 0.7340	49.2100
 0.7350	49.2600
 0.7360	49.2600
 0.7370	49.3500
 0.7380	49.4100
 0.7390	49.2700
 0.7400	49.2900
 0.7410	49.4000
 0.7420	49.5500
 0.7430	49.4300
 0.7440	49.3200
 0.7450	49.4000
 0.7460	49.6000
 0.7470	49.4900
 0.7480	49.5200
 0.7490	49.4400
 0.7500	49.5200
 0.7510	49.6300
 0.7520	49.5500
 0.7530	49.5200
 0.7540	49.6000
 0.7550	49.6000
 0.7560	49.4600
 0.7570	49.4000
 0.7580	49.4600
 0.7590	49.6300
 0.7600	49.5700
 0.7610	49.4300
 0.7620	49.6000
 0.7630	49.5400
 0.7640	49.6000
 0.7650	49.4800
 0.7660	49.4600
 0.7670	49.6000
 0.7680	49.5400
 0.7690	49.4000
 0.7700	49.4500
 0.7710	49.5700
 0.7720	49.4500
 0.7730	49.3100
 0.7740	49.4200
 0.7750	49.3400
 0.7760	49.3500
 0.7770	49.1700
 0.7780	49.1100
 0.7790	49.1600
 0.7800	49.1600
 0.7810	48.9300
 0.7820	49.0400
 0.7830	48.9900
 0.7840	48.9700
 0.7850	48.9100
 0.7860	48.8000
 0.7870	48.8600
 0.7880	48.8600
 0.7890	48.6600
 0.7900	48.5400
 0.7910	48.6200
 0.7920	48.6600
 0.7930	48.4000
 0.7940	48.2900
 0.7950	48.2300
 0.7960	48.3100
 0.7970	48.2000
 0.7980	48.1100
 0.7990	48.1100
 0.8000	47.6100
 0.8040	47.1800
 0.8080	46.7600
 0.8120	46.2600
 0.8160	45.6100
 0.8200	45.0600
 0.8240	44.3100
 0.8280	43.5400
 0.8320	42.7300
 0.8360	41.9700
 0.8400	41.0100
 0.8440	40.1500
 0.8480	39.1900
 0.8520	38.1600
 0.8560	37.1300
 0.8600	36.1500
 0.8640	35.1300
 0.8680	34.1500
 0.8720	33.1700
 0.8760	32.2800
 0.8800	31.3100
 0.8840	30.3600
 0.8880	29.4200
 0.8920	28.5400
 0.8960	27.6200
 0.9000	26.6400
 0.9040	25.7700
 0.9080	24.8500
 0.9120	24.0100
 0.9160	23.2300
 0.9200	22.5400
 0.9240	21.8000
 0.9280	21.1700
 0.9320	20.5500
 0.9360	19.8500
 0.9400	19.2400
 0.9440	18.7000
 0.9480	18.1000
 0.9520	17.5700
 0.9560	17.0600
 0.9600	16.5800
 0.9640	16.1800
 0.9680	15.7100
 0.9720	15.3500
 0.9760	14.8900
 0.9800	14.5600
 0.9840	14.4100
 0.9880	14.1100
 0.9920	13.9400
 0.9960	13.6600
 1.0000	13.3700
 1.0040	13.2000
 1.0080	13.0900
 1.0120	12.9100
 1.0160	12.8500
 1.0200	12.6800
 1.0240	12.6000
 1.0280	12.5600
 1.0320	12.5300
 1.0360	12.5400
 1.0400	12.5100
 1.0440	12.5200
 1.0480	12.4900
 1.0520	12.5800
 1.0560	12.5800
 1.0600	12.6800
 1.0640	12.7800
 1.0680	12.8200
 1.0720	12.9300
 1.0760	13.0800
 1.0800	13.2600
 1.0840	13.3700
 1.0880	13.5700
 1.0920	13.7800
 1.0960	13.9600
 1.1000	14.1800
 1.1040	14.4500
 1.1080	14.6800
 1.1120	14.9100
 1.1160	15.2400
 1.1200	15.5700
 1.1240	15.8300
 1.1280	16.0900
 1.1320	16.4000
 1.1360	16.7400
 1.1400	17.0400
 1.1440	17.3400
 1.1480	17.6900
 1.1520	18.0300
 1.1560	18.4100
 1.1600	18.6800
 1.1640	19.0800
 1.1680	19.4500
 1.1720	19.7500
 1.1760	20.2000
 1.1800	20.5000
 1.1840	20.9200
 1.1880	21.3600
 1.1920	21.6900
 1.1960	22.1700
 1.2000	22.6200
 1.2040	23.0000
 1.2080	23.5000
 1.2120	23.9300
 1.2160	24.4100
 1.2200	24.8900
 1.2240	25.3300
 1.2280	25.7600
 1.2320	26.1600
 1.2360	26.6000
 1.2400	27.0400
 1.2440	27.5000
 1.2480	27.9500
 1.2520	28.3400
 1.2560	28.8000
 1.2600	29.1900
 1.2640	29.5700
 1.2680	29.9600
 1.2720	30.3100
 1.2760	30.7800
 1.2800	31.1600
 1.2840	31.5700
 1.2880	31.9100
 1.2920	32.2200
 1.2960	32.6400
 1.3000	32.9700
 1.3040	33.3400
 1.3080	33.6000
 1.3120	33.9200
 1.3160	34.2600
 1.3200	34.4900
 1.3240	34.7400
 1.3280	34.9900
 1.3320	35.2300
 1.3360	35.3700
 1.3400	35.6500
 1.3440	35.8000
 1.3480	35.9700
 1.3520	36.1300
 1.3560	36.3100
 1.3600	36.3700
 1.3640	36.4500
 1.3680	36.5700
 1.3720	36.7000
 1.3760	36.7800
 1.3800	36.8700
 1.3840	36.9400
 1.3880	36.9800
 1.3920	36.9800
 1.3960	36.9400
 1.4000	36.9100
 1.4040	36.9600
 1.4080	37.0000
 1.4120	37.1100
 1.4160	37.1300
 1.4200	37.1900
 1.4240	37.2000
 1.4280	37.2900
 1.4320	37.3700
 1.4360	37.3600
 1.4400	37.4000
 1.4440	37.4200
 1.4480	37.4100
 1.4520	37.4600
 1.4560	37.4200
 1.4600	37.5000
 1.4640	37.4800
 1.4680	37.5200
 1.4720	37.5300
 1.4760	37.6100
 1.4800	37.5800
 1.4840	37.6300
 1.4880	37.6400
 1.4920	37.7000
 1.4960	37.7900
 1.5000	37.7700
 1.5040	37.8400
 1.5080	37.8000
 1.5120	37.9100
 1.5160	37.8900
 1.5200	37.9100
 1.5240	37.9800
 1.5280	38.0000
 1.5320	38.0600
 1.5360	38.1300
 1.5400	38.1600
 1.5440	38.2900
 1.5480	38.3800
 1.5520	38.4500
 1.5560	38.4900
 1.5600	38.5300
 1.5640	38.5600
 1.5680	38.7100
 1.5720	38.7200
 1.5760	38.8700
 1.5800	38.9300
 1.5840	39.0100
 1.5880	39.0300
 1.5920	39.1400
 1.5960	39.2100
 1.6000	39.2400
 1.6040	39.3800
 1.6080	39.4200
 1.6120	39.4800
 1.6160	39.5900
 1.6200	39.6700
 1.6240	39.8000
 1.6280	39.8200
 1.6320	40.0700
 1.6360	40.1700
 1.6400	40.2100
 1.6440	40.4300
 1.6480	40.4800
 1.6520	40.5500
 1.6560	40.7500
 1.6600	40.6800
 1.6640	40.8700
 1.6680	40.8600
 1.6720	40.9900
 1.6760	41.0600
 1.6800	41.2500
 1.6840	41.3200
 1.6880	41.4500
 1.6920	41.6000
 1.6960	41.6700
 1.7000	41.7500
 1.7040	41.8400
 1.7080	41.9100
 1.7120	42.0100
 1.7160	42.0800
 1.7200	42.1400
 1.7240	42.0700
 1.7280	42.1600
 1.7320	42.2100
 1.7360	42.2700
 1.7400	42.3300
 1.7440	42.3300
 1.7480	42.4300
 1.7520	42.4700
 1.7560	42.5600
 1.7600	42.6000
 1.7640	42.6100
 1.7680	42.6200
 1.7720	42.6900
 1.7760	42.7800
 1.7800	42.7400
 1.7840	42.7800
 1.7880	42.7800
 1.7920	42.7800
 1.7960	42.7200
 1.8000	42.7100
 1.8040	42.6500
 1.8080	42.6900
 1.8120	42.6300
 1.8160	42.6000
 1.8200	42.5100
 1.8240	42.5100
 1.8280	42.4600
 1.8320	42.4000
 1.8360	42.3300
 1.8400	42.2400
 1.8440	42.1800
 1.8480	42.1200
 1.8520	42.0100
 1.8560	41.8700
 1.8600	41.7800
 1.8640	41.6600
 1.8680	41.4200
 1.8720	41.3300
 1.8760	41.1000
 1.8800	40.9200
 1.8840	40.6500
 1.8880	40.3600
 1.8920	40.0500
 1.8960	39.7600
 1.9000	39.4900
 1.9040	39.2600
 1.9080	39.0700
 1.9120	38.8600
 1.9160	38.8100
 1.9200	38.7300
 1.9240	38.6600
 1.9280	38.5700
 1.9320	38.5400
 1.9360	38.5000
 1.9400	38.5000
 1.9440	38.4400
 1.9480	38.3000
 1.9520	38.3200
 1.9560	38.2100
 1.9600	38.2200
 1.9640	38.1400
 1.9680	38.1000
 1.9720	38.0000
 1.9760	37.9500
 1.9800	37.9200
 1.9840	37.9200
 1.9880	37.7900
 1.9920	37.7400
 1.9960	37.6200
 2.0000	37.6300
 2.0040	37.5200
 2.0080	37.4900
 2.0120	37.4200
 2.0160	37.4500
 2.0200	37.3900
 2.0240	37.3300
 2.0280	37.2700
 2.0320	37.2500
 2.0360	37.0800
 2.0400	37.0800
 2.0440	37.0000
 2.0480	36.8100
 2.0520	36.7300
 2.0560	36.7100
 2.0600	36.5900
 2.0640	36.5300
 2.0680	36.4200
 2.0720	36.4000
 2.0760	36.3500
 2.0800	36.3400
 2.0840	36.3000
 2.0880	36.2300
 2.0920	36.2000
 2.0960	36.1100
 2.1000	36.1400
 2.1040	36.0000
 2.1080	36.0500
 2.1120	35.9400
 2.1160	35.8600
 2.1200	35.8200
 2.1240	35.7600
 2.1280	35.7100
 2.1320	35.6600
 2.1360	35.4900
 2.1400	35.4300
 2.1440	35.4100
 2.1480	35.3700
 2.1520	35.2900
 2.1560	35.3000
 2.1600	35.2800
 2.1640	35.1800
 2.1680	35.1200
 2.1720	35.1000
 2.1760	35.0100
 2.1800	34.9600
 2.1840	34.9000
 2.1880	34.8400
 2.1920	34.8100
 2.1960	34.8200
 2.2000	34.7700
 2.2040	34.6700
 2.2080	34.6200
 2.2120	34.6300
 2.2160	34.6100
 2.2200	34.6500
 2.2240	34.6400
 2.2280	34.6800
 2.2320	34.6300
 2.2360	34.6300
 2.2400	34.5500
 2.2440	34.5400
 2.2480	34.4900
 2.2520	34.4900
 2.2560	34.4700
 2.2600	34.4700
 2.2640	34.4900
 2.2680	34.4500
 2.2720	34.5200
 2.2760	34.5400
 2.2800	34.5500
 2.2840	34.5600
 2.2880	34.6500
 2.2920	34.6000
 2.2960	34.6000
 2.3000	34.6300
 2.3040	34.6300
 2.3080	34.6400
 2.3120	34.7600
 2.3160	34.7900
 2.3200	34.9100
 2.3240	34.9000
 2.3280	34.8800
 2.3320	34.8600
 2.3360	34.9300
 2.3400	34.9000
 2.3440	34.8900
 2.3480	34.9000
 2.3520	34.9300
 2.3560	34.9600
 2.3600	34.9300
 2.3640	35.0600
 2.3680	35.0700
 2.3720	35.1200
 2.3760	35.2100
 2.3800	35.3400
 2.3840	35.3900
 2.3880	35.5000
 2.3920	35.5200
 2.3960	35.6600
 2.4000	35.6500
 2.4040	35.6600
 2.4080	35.7300
 2.4120	35.8100
 2.4160	35.8500
 2.4200	35.9100
 2.4240	36.0100
 2.4280	35.9900
 2.4320	36.0800
 2.4360	36.1400
 2.4400	36.1300
 2.4440	36.1300
 2.4480	36.1300
 2.4520	36.1200
 2.4560	36.1600
 2.4600	36.2400
 2.4640	36.2200
 2.4680	36.3100
 2.4720	36.2700
 2.4760	36.3800
 2.4800	36.5300
 2.4840	36.5600
 2.4880	36.6500
 2.4920	36.6200
 2.4960	36.6600
 2.5000	36.7700
