Name: Orthoclase (Feldspar) (K,Na)AlSi_3O_8
Type: Mineral
Class: Silicate
Subclass: Tectosilicate
Particle Size: Medium
Sample No.: TS-12A
Owner: JPL
Wavelength Range: VSWIR
Origin: India
Collection Date: N/A
Description: Particle size was 45-125um.Collected by Burminco Original ASTER Spectral Library name was jpl.beckman.mineral.silicate.tectosilicate.medium.ts12a.spectrum.txt
Measurement: Hemispherical reflectance
First Column: X
Second Column: Y
X Units: Wavelength (micrometers)
Y Units:Reflectance (percent)
First X Value:  0.4000
Last X Value:  2.5000
Number of X Values: 826
Additional Information: mineral.silicate.tectosilicate.medium.vswir.ts-12a.jpl.beckman.ancillary.txt

 0.4000	74.6200
 0.4010	74.7700
 0.4020	74.8800
 0.4030	74.9800
 0.4040	75.0600
 0.4050	75.1600
 0.4060	75.2200
 0.4070	75.3000
 0.4080	75.3600
 0.4090	75.4700
 0.4100	75.6300
 0.4110	75.6200
 0.4120	75.6600
 0.4130	75.7500
 0.4140	75.8000
 0.4150	75.8400
 0.4160	75.8800
 0.4170	75.9200
 0.4180	76.0900
 0.4190	76.1200
 0.4200	76.1600
 0.4210	76.3400
 0.4220	76.5700
 0.4230	76.5900
 0.4240	76.6600
 0.4250	76.7200
 0.4260	76.9300
 0.4270	76.8800
 0.4280	76.9600
 0.4290	77.2200
 0.4300	77.2900
 0.4310	77.3400
 0.4320	77.3400
 0.4330	77.4200
 0.4340	77.6600
 0.4350	77.6900
 0.4360	77.7400
 0.4370	77.8900
 0.4380	78.0900
 0.4390	78.1200
 0.4400	78.1600
 0.4410	78.2300
 0.4420	78.3800
 0.4430	78.3900
 0.4440	78.4100
 0.4450	78.6500
 0.4460	78.6200
 0.4470	78.6800
 0.4480	78.7800
 0.4490	78.9300
 0.4500	78.9700
 0.4510	79.1100
 0.4520	79.1200
 0.4530	79.2600
 0.4540	79.2300
 0.4550	79.3100
 0.4560	79.5000
 0.4570	79.5300
 0.4580	79.6200
 0.4590	79.7000
 0.4600	79.7200
 0.4610	79.7400
 0.4620	79.8600
 0.4630	80.0400
 0.4640	79.9300
 0.4650	79.9600
 0.4660	80.0600
 0.4670	80.1200
 0.4680	80.0500
 0.4690	80.1300
 0.4700	80.1900
 0.4710	80.2900
 0.4720	80.1600
 0.4730	80.2900
 0.4740	80.3500
 0.4750	80.4600
 0.4760	80.4300
 0.4770	80.4700
 0.4780	80.7000
 0.4790	80.6800
 0.4800	80.5900
 0.4810	80.8200
 0.4820	80.8700
 0.4830	80.8700
 0.4840	80.9000
 0.4850	80.8500
 0.4860	81.0700
 0.4870	80.9800
 0.4880	80.9500
 0.4890	81.1900
 0.4900	81.1900
 0.4910	81.1600
 0.4920	81.1800
 0.4930	81.3300
 0.4940	81.4000
 0.4950	81.3700
 0.4960	81.3300
 0.4970	81.5100
 0.4980	81.6400
 0.4990	81.7100
 0.5000	81.7200
 0.5010	81.7300
 0.5020	81.8000
 0.5030	81.7100
 0.5040	81.7000
 0.5050	81.9200
 0.5060	81.9200
 0.5070	82.0800
 0.5080	82.0700
 0.5090	82.0700
 0.5100	82.1100
 0.5110	82.1700
 0.5120	82.1000
 0.5130	82.2100
 0.5140	82.2200
 0.5150	82.2600
 0.5160	82.2100
 0.5170	82.3700
 0.5180	82.4100
 0.5190	82.4800
 0.5200	82.4500
 0.5210	82.5700
 0.5220	82.6200
 0.5230	82.6000
 0.5240	82.5300
 0.5250	82.5500
 0.5260	82.7700
 0.5270	82.7100
 0.5280	82.6400
 0.5290	82.8200
 0.5300	82.8700
 0.5310	82.8700
 0.5320	82.8000
 0.5330	82.7800
 0.5340	82.8600
 0.5350	82.9700
 0.5360	82.8000
 0.5370	83.0300
 0.5380	83.1400
 0.5390	83.0900
 0.5400	83.1000
 0.5410	83.1100
 0.5420	83.1800
 0.5430	83.1400
 0.5440	83.1000
 0.5450	83.4000
 0.5460	83.3600
 0.5470	83.3200
 0.5480	83.3400
 0.5490	83.4100
 0.5500	83.5400
 0.5510	83.5500
 0.5520	83.4400
 0.5530	83.7100
 0.5540	83.7200
 0.5550	83.6900
 0.5560	83.7200
 0.5570	83.6400
 0.5580	83.7600
 0.5590	83.7100
 0.5600	83.8100
 0.5610	84.1300
 0.5620	84.2200
 0.5630	84.2600
 0.5640	84.2800
 0.5650	84.1900
 0.5660	84.3400
 0.5670	84.4100
 0.5680	84.3600
 0.5690	84.3500
 0.5700	84.4600
 0.5710	84.4500
 0.5720	84.4500
 0.5730	84.3100
 0.5740	84.3600
 0.5750	84.3600
 0.5760	84.3200
 0.5770	84.5300
 0.5780	84.4000
 0.5790	84.4500
 0.5800	84.4200
 0.5810	84.4700
 0.5820	84.5300
 0.5830	84.4500
 0.5840	84.5200
 0.5850	84.5700
 0.5860	84.6400
 0.5870	84.5900
 0.5880	84.7100
 0.5890	84.7000
 0.5900	84.7500
 0.5910	84.6800
 0.5920	84.5800
 0.5930	84.7000
 0.5940	84.5800
 0.5950	84.6900
 0.5960	84.8100
 0.5970	84.7800
 0.5980	84.8300
 0.5990	84.8200
 0.6000	84.8100
 0.6010	84.9800
 0.6020	84.8500
 0.6030	84.8600
 0.6040	85.0300
 0.6050	85.0400
 0.6060	85.1100
 0.6070	85.0600
 0.6080	85.0400
 0.6090	85.0900
 0.6100	85.0900
 0.6110	84.9800
 0.6120	84.9900
 0.6130	84.8900
 0.6140	85.0200
 0.6150	85.0100
 0.6160	84.9600
 0.6170	85.0100
 0.6180	84.9500
 0.6190	84.7900
 0.6200	84.9000
 0.6210	84.8800
 0.6220	84.9300
 0.6230	85.0500
 0.6240	85.0100
 0.6250	85.0800
 0.6260	85.0800
 0.6270	84.9600
 0.6280	85.0000
 0.6290	84.9500
 0.6300	85.0700
 0.6310	85.0700
 0.6320	85.0700
 0.6330	85.1500
 0.6340	85.0900
 0.6350	84.9800
 0.6360	84.9900
 0.6370	85.0000
 0.6380	85.1200
 0.6390	85.1200
 0.6400	84.9900
 0.6410	85.0700
 0.6420	85.0700
 0.6430	85.0100
 0.6440	85.1800
 0.6450	85.1600
 0.6460	85.2100
 0.6470	85.2100
 0.6480	85.1600
 0.6490	85.2300
 0.6500	85.1900
 0.6510	85.1200
 0.6520	85.3400
 0.6530	85.2900
 0.6540	85.3400
 0.6550	85.2900
 0.6560	85.2800
 0.6570	85.2800
 0.6580	85.3200
 0.6590	85.2600
 0.6600	85.3600
 0.6610	85.3300
 0.6620	85.4000
 0.6630	85.3500
 0.6640	85.3500
 0.6650	85.3900
 0.6660	85.3500
 0.6670	85.3400
 0.6680	85.4000
 0.6690	85.3900
 0.6700	85.3400
 0.6710	85.3300
 0.6720	85.4300
 0.6730	85.4300
 0.6740	85.3800
 0.6750	85.3900
 0.6760	85.4500
 0.6770	85.4500
 0.6780	85.3200
 0.6790	85.3800
 0.6800	85.3800
 0.6810	85.4600
 0.6820	85.4600
 0.6830	85.5000
 0.6840	85.5500
 0.6850	85.5000
 0.6860	85.4500
 0.6870	85.5700
 0.6880	85.6400
 0.6890	85.6200
 0.6900	85.5700
 0.6910	85.4700
 0.6920	85.5800
 0.6930	85.4600
 0.6940	85.4600
 0.6950	85.4900
 0.6960	85.5400
 0.6970	85.5300
 0.6980	85.5300
 0.6990	85.5000
 0.7000	85.6600
 0.7010	85.5800
 0.7020	85.7300
 0.7030	85.6700
 0.7040	85.5600
 0.7050	85.6900
 0.7060	85.7100
 0.7070	85.7100
 0.7080	85.6500
 0.7090	85.6300
 0.7100	85.7500
 0.7110	85.7600
 0.7120	85.6400
 0.7130	85.7500
 0.7140	85.8500
 0.7150	85.7900
 0.7160	85.7900
 0.7170	85.7500
 0.7180	85.9200
 0.7190	85.8700
 0.7200	85.7400
 0.7210	85.7000
 0.7220	85.7600
 0.7230	85.8200
 0.7240	85.7600
 0.7250	85.8600
 0.7260	85.9700
 0.7270	85.7500
 0.7280	85.7100
 0.7290	85.8200
 0.7300	85.8100
 0.7310	85.8100
 0.7320	85.8800
 0.7330	85.8700
 0.7340	85.8700
 0.7350	85.7900
 0.7360	85.8000
 0.7370	85.9700
 0.7380	85.8800
 0.7390	85.8200
 0.7400	85.8700
 0.7410	85.9300
 0.7420	85.9300
 0.7430	85.8800
 0.7440	85.7600
 0.7450	86.0400
 0.7460	85.8900
 0.7470	85.8400
 0.7480	85.8800
 0.7490	86.0000
 0.7500	85.9800
 0.7510	85.9300
 0.7520	85.8900
 0.7530	86.1100
 0.7540	85.9800
 0.7550	85.8700
 0.7560	85.9800
 0.7570	85.9300
 0.7580	85.9800
 0.7590	85.9300
 0.7600	85.8200
 0.7610	86.0000
 0.7620	85.9300
 0.7630	85.9800
 0.7640	85.9200
 0.7650	85.9900
 0.7660	85.9400
 0.7670	85.8900
 0.7680	85.8200
 0.7690	86.0000
 0.7700	85.9500
 0.7710	85.8900
 0.7720	86.1000
 0.7730	86.1000
 0.7740	86.1800
 0.7750	86.1300
 0.7760	86.0600
 0.7770	86.1600
 0.7780	86.0000
 0.7790	86.0100
 0.7800	86.0600
 0.7810	86.1100
 0.7820	86.1700
 0.7830	86.0600
 0.7840	85.9700
 0.7850	86.1200
 0.7860	86.0700
 0.7870	86.0100
 0.7880	86.1900
 0.7890	86.1800
 0.7900	86.0600
 0.7910	86.0500
 0.7920	86.0600
 0.7930	86.1300
 0.7940	86.0700
 0.7950	86.0100
 0.7960	86.1200
 0.7970	86.1700
 0.7980	86.1000
 0.7990	86.0800
 0.8000	86.4400
 0.8040	86.4300
 0.8080	86.4200
 0.8120	86.3800
 0.8160	86.4300
 0.8200	86.3700
 0.8240	86.3600
 0.8280	86.3800
 0.8320	86.3900
 0.8360	86.3200
 0.8400	86.4200
 0.8440	86.4200
 0.8480	86.3600
 0.8520	86.3700
 0.8560	86.3900
 0.8600	86.3500
 0.8640	86.4100
 0.8680	86.3900
 0.8720	86.2800
 0.8760	86.4500
 0.8800	86.2700
 0.8840	86.2200
 0.8880	86.2100
 0.8920	86.2800
 0.8960	86.1500
 0.9000	86.1500
 0.9040	86.2200
 0.9080	86.0100
 0.9120	86.0300
 0.9160	86.0300
 0.9200	86.0500
 0.9240	85.9700
 0.9280	86.0400
 0.9320	86.0300
 0.9360	85.9700
 0.9400	85.9200
 0.9440	85.9000
 0.9480	86.0200
 0.9520	85.8900
 0.9560	85.8400
 0.9600	85.9200
 0.9640	86.0200
 0.9680	85.8400
 0.9720	85.8000
 0.9760	85.7900
 0.9800	85.6700
 0.9840	85.6100
 0.9880	85.7000
 0.9920	85.5800
 0.9960	85.5800
 1.0000	85.5300
 1.0040	85.6100
 1.0080	85.5900
 1.0120	85.6000
 1.0160	85.4500
 1.0200	85.4500
 1.0240	85.4200
 1.0280	85.4900
 1.0320	85.4800
 1.0360	85.4900
 1.0400	85.4900
 1.0440	85.5800
 1.0480	85.4200
 1.0520	85.3800
 1.0560	85.4900
 1.0600	85.4300
 1.0640	85.2800
 1.0680	85.3400
 1.0720	85.3300
 1.0760	85.4000
 1.0800	85.2800
 1.0840	85.3200
 1.0880	85.3800
 1.0920	85.4000
 1.0960	85.2900
 1.1000	85.3800
 1.1040	85.3600
 1.1080	85.3700
 1.1120	85.3100
 1.1160	85.4100
 1.1200	85.4100
 1.1240	85.4700
 1.1280	85.5400
 1.1320	85.4900
 1.1360	85.3700
 1.1400	85.3400
 1.1440	85.4600
 1.1480	85.4100
 1.1520	85.4800
 1.1560	85.3800
 1.1600	85.4300
 1.1640	85.4200
 1.1680	85.4200
 1.1720	85.4800
 1.1760	85.4800
 1.1800	85.5100
 1.1840	85.5300
 1.1880	85.5400
 1.1920	85.5000
 1.1960	85.5400
 1.2000	85.6200
 1.2040	85.6000
 1.2080	85.5200
 1.2120	85.5700
 1.2160	85.5000
 1.2200	85.4900
 1.2240	85.5800
 1.2280	85.6000
 1.2320	85.5800
 1.2360	85.6700
 1.2400	85.5800
 1.2440	85.6600
 1.2480	85.6100
 1.2520	85.7300
 1.2560	85.6700
 1.2600	85.7700
 1.2640	85.8000
 1.2680	85.7000
 1.2720	85.7300
 1.2760	85.8100
 1.2800	85.8400
 1.2840	85.8500
 1.2880	85.9000
 1.2920	85.9300
 1.2960	85.8600
 1.3000	85.9100
 1.3040	85.7900
 1.3080	85.9000
 1.3120	85.9400
 1.3160	85.8300
 1.3200	85.8200
 1.3240	85.8700
 1.3280	85.9100
 1.3320	85.8400
 1.3360	85.8300
 1.3400	85.7900
 1.3440	85.8600
 1.3480	85.9100
 1.3520	85.9600
 1.3560	85.9800
 1.3600	86.0100
 1.3640	85.9500
 1.3680	85.8700
 1.3720	85.9000
 1.3760	85.8900
 1.3800	85.9300
 1.3840	85.9400
 1.3880	85.9600
 1.3920	85.9000
 1.3960	85.9300
 1.4000	85.8700
 1.4040	85.8700
 1.4080	85.8100
 1.4120	85.8000
 1.4160	85.8300
 1.4200	85.8400
 1.4240	85.9300
 1.4280	85.9000
 1.4320	85.9400
 1.4360	85.9600
 1.4400	86.0700
 1.4440	86.1700
 1.4480	86.0500
 1.4520	86.0300
 1.4560	86.1000
 1.4600	86.1600
 1.4640	86.1000
 1.4680	86.1600
 1.4720	86.2000
 1.4760	86.2000
 1.4800	86.3000
 1.4840	86.2300
 1.4880	86.3000
 1.4920	86.3000
 1.4960	86.3400
 1.5000	86.3800
 1.5040	86.3500
 1.5080	86.4700
 1.5120	86.4700
 1.5160	86.4900
 1.5200	86.4400
 1.5240	86.4600
 1.5280	86.5800
 1.5320	86.5000
 1.5360	86.5100
 1.5400	86.5900
 1.5440	86.5000
 1.5480	86.5000
 1.5520	86.5400
 1.5560	86.5500
 1.5600	86.6200
 1.5640	86.6100
 1.5680	86.6100
 1.5720	86.6300
 1.5760	86.7300
 1.5800	86.6700
 1.5840	86.6500
 1.5880	86.6900
 1.5920	86.6500
 1.5960	86.7100
 1.6000	86.7000
 1.6040	86.7700
 1.6080	86.7200
 1.6120	86.7700
 1.6160	86.7700
 1.6200	86.7200
 1.6240	86.7600
 1.6280	86.7500
 1.6320	86.7400
 1.6360	86.7300
 1.6400	86.7600
 1.6440	86.8200
 1.6480	86.7600
 1.6520	86.7700
 1.6560	86.8200
 1.6600	86.8200
 1.6640	86.8500
 1.6680	86.8900
 1.6720	86.8200
 1.6760	86.9300
 1.6800	86.8300
 1.6840	86.8300
 1.6880	86.8800
 1.6920	86.8800
 1.6960	86.9900
 1.7000	86.8700
 1.7040	86.9100
 1.7080	86.9600
 1.7120	87.0100
 1.7160	86.9600
 1.7200	86.9800
 1.7240	86.9800
 1.7280	86.9300
 1.7320	86.9300
 1.7360	86.9100
 1.7400	86.9700
 1.7440	86.9000
 1.7480	86.8600
 1.7520	86.8500
 1.7560	86.8500
 1.7600	86.8400
 1.7640	86.9200
 1.7680	86.9000
 1.7720	86.7800
 1.7760	86.7800
 1.7800	86.9000
 1.7840	86.8500
 1.7880	86.9100
 1.7920	86.9300
 1.7960	87.0000
 1.8000	87.0500
 1.8040	86.9600
 1.8080	86.9900
 1.8120	86.9100
 1.8160	86.9300
 1.8200	86.9500
 1.8240	86.8800
 1.8280	86.9100
 1.8320	86.9300
 1.8360	86.9400
 1.8400	86.9600
 1.8440	86.9100
 1.8480	86.7800
 1.8520	86.8800
 1.8560	86.8700
 1.8600	86.7800
 1.8640	86.7700
 1.8680	86.6300
 1.8720	86.6100
 1.8760	86.5400
 1.8800	86.4100
 1.8840	86.3100
 1.8880	86.3000
 1.8920	86.0700
 1.8960	85.9700
 1.9000	85.8900
 1.9040	85.7600
 1.9080	85.5900
 1.9120	85.6300
 1.9160	85.6100
 1.9200	85.5800
 1.9240	85.7400
 1.9280	85.7000
 1.9320	85.7200
 1.9360	85.8200
 1.9400	85.8000
 1.9440	85.8900
 1.9480	85.9100
 1.9520	86.0300
 1.9560	85.9600
 1.9600	86.0700
 1.9640	86.1200
 1.9680	86.2300
 1.9720	86.3500
 1.9760	86.3400
 1.9800	86.4400
 1.9840	86.4800
 1.9880	86.5800
 1.9920	86.7300
 1.9960	86.7700
 2.0000	86.8700
 2.0040	86.9800
 2.0080	86.9600
 2.0120	86.9100
 2.0160	87.0300
 2.0200	87.0600
 2.0240	87.1000
 2.0280	87.1300
 2.0320	87.1500
 2.0360	87.2800
 2.0400	87.2500
 2.0440	87.2500
 2.0480	87.1800
 2.0520	87.1700
 2.0560	87.2300
 2.0600	87.2000
 2.0640	87.2800
 2.0680	87.2300
 2.0720	87.3100
 2.0760	87.3400
 2.0800	87.4700
 2.0840	87.5500
 2.0880	87.4000
 2.0920	87.4600
 2.0960	87.5400
 2.1000	87.5700
 2.1040	87.5700
 2.1080	87.7500
 2.1120	87.8100
 2.1160	87.8400
 2.1200	87.8400
 2.1240	87.7600
 2.1280	87.7800
 2.1320	87.7800
 2.1360	87.7300
 2.1400	87.6800
 2.1440	87.6500
 2.1480	87.5200
 2.1520	87.4600
 2.1560	87.4300
 2.1600	87.3300
 2.1640	87.3000
 2.1680	87.2600
 2.1720	87.1900
 2.1760	87.2000
 2.1800	87.1200
 2.1840	86.9700
 2.1880	86.9800
 2.1920	86.8500
 2.1960	86.9300
 2.2000	86.8700
 2.2040	86.8100
 2.2080	86.8100
 2.2120	86.8200
 2.2160	86.8600
 2.2200	86.9100
 2.2240	86.9500
 2.2280	87.0100
 2.2320	86.9500
 2.2360	86.9100
 2.2400	86.9300
 2.2440	87.0000
 2.2480	87.0400
 2.2520	86.9500
 2.2560	86.9300
 2.2600	86.9700
 2.2640	87.0300
 2.2680	87.1300
 2.2720	87.1200
 2.2760	87.0800
 2.2800	87.0900
 2.2840	87.0600
 2.2880	87.0400
 2.2920	87.1000
 2.2960	87.1300
 2.3000	87.1200
 2.3040	87.1400
 2.3080	87.1600
 2.3120	87.1800
 2.3160	87.2700
 2.3200	87.3400
 2.3240	87.3800
 2.3280	87.3200
 2.3320	87.2600
 2.3360	87.3200
 2.3400	87.3500
 2.3440	87.2900
 2.3480	87.3300
 2.3520	87.3400
 2.3560	87.3700
 2.3600	87.2700
 2.3640	87.1800
 2.3680	87.2500
 2.3720	87.2500
 2.3760	87.1900
 2.3800	87.1300
 2.3840	87.1000
 2.3880	87.0600
 2.3920	87.0400
 2.3960	87.0300
 2.4000	86.9400
 2.4040	86.8800
 2.4080	86.9100
 2.4120	86.8600
 2.4160	86.8000
 2.4200	86.7800
 2.4240	86.7300
 2.4280	86.6700
 2.4320	86.6100
 2.4360	86.5500
 2.4400	86.5500
 2.4440	86.4100
 2.4480	86.3500
 2.4520	86.2500
 2.4560	86.1800
 2.4600	86.1200
 2.4640	86.1100
 2.4680	86.0400
 2.4720	85.9700
 2.4760	85.9300
 2.4800	86.0300
 2.4840	86.1300
 2.4880	86.2300
 2.4920	86.3400
 2.4960	86.3800
 2.5000	86.4400
