Name: Antlerite Cu_3(SO_4)(OH)_4
Type: Mineral
Class: Sulfate
Subclass: None
Particle Size: Fine
Sample No.: SO-11A
Owner: JPL
Wavelength Range: VSWIR
Origin: USA, Arizona, Greenlee County, Morenci.
Collection Date: N/A
Description: Particle size was 0-45um.Collected by:  Burminco Original ASTER Spectral Library name was jpl.perkin.mineral.sulfate.none.fine.so11a.spectrum.txt
Measurement: Hemispherical reflectance
First Column: X
Second Column: Y
X Units: Wavelength (micrometers)
Y Units:Reflectance (percent)
First X Value:  2.5000
Last X Value:  0.4000
Number of X Values: 2101
Additional Information: mineral.sulfate.none.fine.vswir.so-11a.jpl.perkin.ancillary.txt

 2.5000	43.2688
 2.4990	43.1765
 2.4980	43.7762
 2.4970	44.0403
 2.4960	44.2546
 2.4950	44.4660
 2.4940	44.9916
 2.4930	45.0781
 2.4920	45.4075
 2.4910	45.4254
 2.4900	45.8508
 2.4890	45.8361
 2.4880	46.1145
 2.4870	46.1502
 2.4860	46.4496
 2.4850	46.2383
 2.4840	46.4556
 2.4830	46.5155
 2.4820	46.4832
 2.4810	46.4265
 2.4800	46.4014
 2.4790	46.1234
 2.4780	46.1130
 2.4770	45.9407
 2.4760	45.8028
 2.4750	45.6687
 2.4740	45.5949
 2.4730	45.4570
 2.4720	45.2558
 2.4710	44.9048
 2.4700	44.8438
 2.4690	44.5052
 2.4680	44.4445
 2.4670	44.0925
 2.4660	43.9080
 2.4650	43.7622
 2.4640	43.5774
 2.4630	43.2563
 2.4620	43.1180
 2.4610	42.8810
 2.4600	42.6625
 2.4590	42.3860
 2.4580	42.2532
 2.4570	41.9863
 2.4560	41.7723
 2.4550	41.5781
 2.4540	41.4530
 2.4530	41.1401
 2.4520	41.1433
 2.4510	41.0924
 2.4500	40.8916
 2.4490	40.9132
 2.4480	41.0110
 2.4470	40.8305
 2.4460	40.9275
 2.4450	41.0160
 2.4440	41.0881
 2.4430	41.2137
 2.4420	41.4381
 2.4410	41.6199
 2.4400	41.8831
 2.4390	42.1305
 2.4380	42.4325
 2.4370	42.7160
 2.4360	43.0589
 2.4350	43.3107
 2.4340	43.7001
 2.4330	43.9268
 2.4320	44.2713
 2.4310	44.6041
 2.4300	44.8867
 2.4290	45.0684
 2.4280	45.4132
 2.4270	45.6233
 2.4260	45.8541
 2.4250	45.9689
 2.4240	46.2387
 2.4230	46.2906
 2.4220	46.4743
 2.4210	46.5819
 2.4200	46.7468
 2.4190	46.7816
 2.4180	46.8925
 2.4170	46.9831
 2.4160	47.0588
 2.4150	47.1514
 2.4140	47.2042
 2.4130	47.2338
 2.4120	47.2902
 2.4110	47.2274
 2.4100	47.2680
 2.4090	47.1791
 2.4080	47.1673
 2.4070	47.1193
 2.4060	47.0221
 2.4050	46.7782
 2.4040	46.7150
 2.4030	46.5579
 2.4020	46.3595
 2.4010	46.0464
 2.4000	45.7852
 2.3990	45.5106
 2.3980	45.3023
 2.3970	44.9654
 2.3960	44.5719
 2.3950	44.2790
 2.3940	44.0852
 2.3930	43.8208
 2.3920	43.4700
 2.3910	43.1054
 2.3900	42.8438
 2.3890	42.6088
 2.3880	42.3896
 2.3870	42.1505
 2.3860	41.9449
 2.3850	41.6752
 2.3840	41.4511
 2.3830	41.1364
 2.3820	40.8862
 2.3810	40.6794
 2.3800	40.4321
 2.3790	40.1398
 2.3780	39.7535
 2.3770	39.4497
 2.3760	39.1063
 2.3750	38.6210
 2.3740	38.1281
 2.3730	37.5984
 2.3720	37.1019
 2.3710	36.5450
 2.3700	35.9127
 2.3690	35.2432
 2.3680	34.6575
 2.3670	34.0465
 2.3660	33.4557
 2.3650	32.7813
 2.3640	32.1818
 2.3630	31.6288
 2.3620	31.0660
 2.3610	30.5184
 2.3600	30.0021
 2.3590	29.5123
 2.3580	29.0617
 2.3570	28.7109
 2.3560	28.4073
 2.3550	28.0700
 2.3540	27.7017
 2.3530	27.4034
 2.3520	27.2361
 2.3510	27.1453
 2.3500	27.0438
 2.3490	26.9735
 2.3480	26.9696
 2.3470	27.0191
 2.3460	27.1191
 2.3450	27.2701
 2.3440	27.3742
 2.3430	27.5416
 2.3420	27.8466
 2.3410	28.1173
 2.3400	28.3160
 2.3390	28.6137
 2.3380	28.8878
 2.3370	29.2033
 2.3360	29.5189
 2.3350	29.8325
 2.3340	30.1174
 2.3330	30.3400
 2.3320	30.5483
 2.3310	30.7388
 2.3300	30.8705
 2.3290	31.0364
 2.3280	31.0341
 2.3270	31.0770
 2.3260	31.0645
 2.3250	30.9617
 2.3240	30.7904
 2.3230	30.5847
 2.3220	30.2482
 2.3210	29.9502
 2.3200	29.5836
 2.3190	29.1855
 2.3180	28.6569
 2.3170	28.1326
 2.3160	27.5323
 2.3150	27.0611
 2.3140	26.5260
 2.3130	26.0281
 2.3120	25.5888
 2.3110	25.2021
 2.3100	24.8240
 2.3090	24.5542
 2.3080	24.2712
 2.3070	24.1268
 2.3060	24.0743
 2.3050	24.1556
 2.3040	24.2651
 2.3030	24.5680
 2.3020	24.9045
 2.3010	25.3229
 2.3000	25.8338
 2.2990	26.4701
 2.2980	27.1264
 2.2970	27.9061
 2.2960	28.6320
 2.2950	29.5414
 2.2940	30.4376
 2.2930	31.3553
 2.2920	32.2441
 2.2910	33.1313
 2.2900	34.0412
 2.2890	34.9080
 2.2880	35.7721
 2.2870	36.6245
 2.2860	37.3794
 2.2850	38.2346
 2.2840	38.9997
 2.2830	39.8101
 2.2820	40.5614
 2.2810	41.2969
 2.2800	41.8624
 2.2790	42.5407
 2.2780	43.0602
 2.2770	43.6496
 2.2760	44.1620
 2.2750	44.7903
 2.2740	45.1494
 2.2730	45.5320
 2.2720	45.8476
 2.2710	46.1914
 2.2700	46.4681
 2.2690	46.7491
 2.2680	46.9447
 2.2670	47.1686
 2.2660	47.2461
 2.2650	47.3435
 2.2640	47.3298
 2.2630	47.3591
 2.2620	47.3182
 2.2610	47.2740
 2.2600	46.9796
 2.2590	46.7576
 2.2580	46.4820
 2.2570	46.1141
 2.2560	45.6269
 2.2550	45.2779
 2.2540	44.6679
 2.2530	44.3573
 2.2520	43.8599
 2.2510	43.4328
 2.2500	43.0256
 2.2490	42.7284
 2.2480	42.3882
 2.2470	42.2328
 2.2460	42.0415
 2.2450	42.0530
 2.2440	42.0458
 2.2430	42.2728
 2.2420	42.5012
 2.2410	42.7720
 2.2400	43.0807
 2.2390	43.5753
 2.2380	43.9525
 2.2370	44.5542
 2.2360	44.9356
 2.2350	45.5362
 2.2340	46.0600
 2.2330	46.6081
 2.2320	47.1314
 2.2310	47.6436
 2.2300	48.1278
 2.2290	48.6806
 2.2280	49.1846
 2.2270	49.7109
 2.2260	50.2759
 2.2250	50.8791
 2.2240	51.3377
 2.2230	51.8684
 2.2220	52.2633
 2.2210	52.7493
 2.2200	53.1293
 2.2190	53.5103
 2.2180	53.9435
 2.2170	54.3630
 2.2160	54.6564
 2.2150	55.0434
 2.2140	55.2159
 2.2130	55.4070
 2.2120	55.6488
 2.2110	55.8954
 2.2100	56.0065
 2.2090	56.2099
 2.2080	56.3732
 2.2070	56.5432
 2.2060	56.4860
 2.2050	56.7061
 2.2040	56.6220
 2.2030	56.8224
 2.2020	56.7797
 2.2010	56.7874
 2.2000	56.8464
 2.1990	56.8362
 2.1980	56.8015
 2.1970	56.7814
 2.1960	56.5655
 2.1950	56.5997
 2.1940	56.5014
 2.1930	56.4757
 2.1920	56.4847
 2.1910	56.4652
 2.1900	56.5415
 2.1890	56.5757
 2.1880	56.6513
 2.1870	56.7961
 2.1860	56.9049
 2.1850	57.1723
 2.1840	57.3594
 2.1830	57.5891
 2.1820	57.7871
 2.1810	58.0185
 2.1800	58.0994
 2.1790	58.3078
 2.1780	58.4139
 2.1770	58.5951
 2.1760	58.6671
 2.1750	58.7621
 2.1740	58.8093
 2.1730	58.8941
 2.1720	58.9325
 2.1710	58.9914
 2.1700	59.0356
 2.1690	59.0314
 2.1680	58.9949
 2.1670	58.9886
 2.1660	59.0335
 2.1650	58.9638
 2.1640	58.8217
 2.1630	58.7652
 2.1620	58.6018
 2.1610	58.4167
 2.1600	58.1879
 2.1590	57.9163
 2.1580	57.6092
 2.1570	57.4464
 2.1560	57.1439
 2.1550	56.9772
 2.1540	56.7298
 2.1530	56.6455
 2.1520	56.5312
 2.1510	56.5481
 2.1500	56.5512
 2.1490	56.6597
 2.1480	56.6973
 2.1470	56.9850
 2.1460	57.1463
 2.1450	57.4814
 2.1440	57.7223
 2.1430	57.9512
 2.1420	58.1105
 2.1410	58.3458
 2.1400	58.5267
 2.1390	58.6821
 2.1380	58.7944
 2.1370	58.9249
 2.1360	58.9638
 2.1350	59.0378
 2.1340	59.1110
 2.1330	59.1448
 2.1320	59.2020
 2.1310	59.2982
 2.1300	59.4215
 2.1290	59.4882
 2.1280	59.5782
 2.1270	59.5818
 2.1260	59.5988
 2.1250	59.6933
 2.1240	59.6876
 2.1230	59.6600
 2.1220	59.6109
 2.1210	59.6107
 2.1200	59.4386
 2.1190	59.3409
 2.1180	59.2809
 2.1170	59.1457
 2.1160	59.0378
 2.1150	59.0177
 2.1140	58.9615
 2.1130	58.9516
 2.1120	58.9117
 2.1110	59.0171
 2.1100	59.0804
 2.1090	59.2437
 2.1080	59.3804
 2.1070	59.5659
 2.1060	59.7498
 2.1050	59.9828
 2.1040	60.1673
 2.1030	60.3564
 2.1020	60.5046
 2.1010	60.6619
 2.1000	60.8239
 2.0990	60.9130
 2.0980	60.9706
 2.0970	61.1235
 2.0960	61.2115
 2.0950	61.2666
 2.0940	61.2357
 2.0930	61.3072
 2.0920	61.3379
 2.0910	61.4105
 2.0900	61.4302
 2.0890	61.4513
 2.0880	61.4607
 2.0870	61.4647
 2.0860	61.5103
 2.0850	61.5596
 2.0840	61.5474
 2.0830	61.5589
 2.0820	61.5454
 2.0810	61.5643
 2.0800	61.6073
 2.0790	61.6785
 2.0780	61.7482
 2.0770	61.7572
 2.0760	61.7233
 2.0750	61.7001
 2.0740	61.7506
 2.0730	61.8231
 2.0720	61.8211
 2.0710	61.8670
 2.0700	61.8938
 2.0690	61.8895
 2.0680	61.9927
 2.0670	62.0235
 2.0660	62.0217
 2.0650	62.0985
 2.0640	62.1358
 2.0630	62.1192
 2.0620	62.1657
 2.0610	62.2106
 2.0600	62.2592
 2.0590	62.2579
 2.0580	62.3025
 2.0570	62.3315
 2.0560	62.3573
 2.0550	62.4230
 2.0540	62.4642
 2.0530	62.4605
 2.0520	62.4901
 2.0510	62.4968
 2.0500	62.5071
 2.0490	62.5503
 2.0480	62.5884
 2.0470	62.5746
 2.0460	62.5692
 2.0450	62.5685
 2.0440	62.5608
 2.0430	62.5824
 2.0420	62.5758
 2.0410	62.5575
 2.0400	62.5330
 2.0390	62.5206
 2.0380	62.5755
 2.0370	62.5576
 2.0360	62.5693
 2.0350	62.5844
 2.0340	62.5049
 2.0330	62.4359
 2.0320	62.4860
 2.0310	62.4812
 2.0300	62.4371
 2.0290	62.4532
 2.0280	62.4619
 2.0270	62.4401
 2.0260	62.4128
 2.0250	62.3857
 2.0240	62.4032
 2.0230	62.3750
 2.0220	62.3303
 2.0210	62.3596
 2.0200	62.4269
 2.0190	62.4055
 2.0180	62.3724
 2.0170	62.3032
 2.0160	62.3145
 2.0150	62.3334
 2.0140	62.3250
 2.0130	62.2942
 2.0120	62.2896
 2.0110	62.2469
 2.0100	62.2642
 2.0090	62.2351
 2.0080	62.3477
 2.0070	62.2657
 2.0060	62.1857
 2.0050	62.2086
 2.0040	62.3023
 2.0030	62.2492
 2.0020	62.2887
 2.0010	62.2584
 2.0000	62.2444
 1.9990	62.1742
 1.9980	62.2446
 1.9970	62.2343
 1.9960	62.2387
 1.9950	62.1971
 1.9940	62.1875
 1.9930	62.1305
 1.9920	62.1218
 1.9910	62.0767
 1.9900	61.9555
 1.9890	62.0170
 1.9880	61.9476
 1.9870	61.9916
 1.9860	61.9423
 1.9850	61.8258
 1.9840	61.8208
 1.9830	61.6702
 1.9820	61.7358
 1.9810	61.6693
 1.9800	61.5895
 1.9790	61.4985
 1.9780	61.4716
 1.9770	61.4332
 1.9760	61.3265
 1.9750	61.1641
 1.9740	61.1843
 1.9730	61.0110
 1.9720	60.9419
 1.9710	60.8671
 1.9700	60.7793
 1.9690	60.6467
 1.9680	60.6022
 1.9670	60.5185
 1.9660	60.4487
 1.9650	60.4573
 1.9640	60.4169
 1.9630	60.4222
 1.9620	60.4876
 1.9610	60.4797
 1.9600	60.4704
 1.9590	60.5497
 1.9580	60.6577
 1.9570	60.6562
 1.9560	60.8230
 1.9550	60.7423
 1.9540	60.8787
 1.9530	60.9253
 1.9520	60.9913
 1.9510	60.9792
 1.9500	60.9981
 1.9490	61.1257
 1.9480	61.1219
 1.9470	61.1385
 1.9460	61.2646
 1.9450	61.2368
 1.9440	61.4101
 1.9430	61.3561
 1.9420	61.3987
 1.9410	61.4337
 1.9400	61.4756
 1.9390	61.3673
 1.9380	61.5457
 1.9370	61.5332
 1.9360	61.6583
 1.9350	61.5375
 1.9340	61.7096
 1.9330	61.6459
 1.9320	61.7270
 1.9310	61.6744
 1.9300	61.7482
 1.9290	61.6090
 1.9280	61.7621
 1.9270	61.7555
 1.9260	61.6806
 1.9250	61.8350
 1.9240	61.8058
 1.9230	61.7723
 1.9220	61.8145
 1.9210	61.7909
 1.9200	61.9421
 1.9190	61.8357
 1.9180	61.8672
 1.9170	61.8113
 1.9160	61.9556
 1.9150	61.8634
 1.9140	61.9640
 1.9130	61.9318
 1.9120	62.0375
 1.9110	62.1175
 1.9100	62.2040
 1.9090	62.1889
 1.9080	62.2489
 1.9070	62.3204
 1.9060	62.3983
 1.9050	62.3083
 1.9040	62.5181
 1.9030	62.6351
 1.9020	62.6867
 1.9010	62.6664
 1.9000	62.7995
 1.8990	62.8764
 1.8980	62.8733
 1.8970	62.9582
 1.8960	63.1056
 1.8950	63.1018
 1.8940	63.2203
 1.8930	63.1714
 1.8920	63.2696
 1.8910	63.2884
 1.8900	63.3044
 1.8890	63.2955
 1.8880	63.3899
 1.8870	63.3736
 1.8860	63.3555
 1.8850	63.3682
 1.8840	63.4309
 1.8830	63.4107
 1.8820	63.4746
 1.8810	63.4369
 1.8800	63.5579
 1.8790	63.4717
 1.8780	63.5908
 1.8770	63.6037
 1.8760	63.6287
 1.8750	63.6659
 1.8740	63.7000
 1.8730	63.7160
 1.8720	63.7140
 1.8710	63.7836
 1.8700	63.8714
 1.8690	63.8406
 1.8680	63.9158
 1.8670	63.9461
 1.8660	63.9837
 1.8650	64.0480
 1.8640	64.0797
 1.8630	64.0680
 1.8620	64.0772
 1.8610	64.0356
 1.8600	64.0706
 1.8590	64.0770
 1.8580	64.1129
 1.8570	64.0716
 1.8560	64.0835
 1.8550	64.1159
 1.8540	64.1147
 1.8530	64.0687
 1.8520	64.1153
 1.8510	64.0899
 1.8500	64.0949
 1.8490	64.0899
 1.8480	64.1076
 1.8470	64.0849
 1.8460	64.1571
 1.8450	64.1498
 1.8440	64.1633
 1.8430	64.1694
 1.8420	64.2213
 1.8410	64.1869
 1.8400	64.2671
 1.8390	64.2050
 1.8380	64.2450
 1.8370	64.2125
 1.8360	64.2578
 1.8350	64.2539
 1.8340	64.3147
 1.8330	64.2778
 1.8320	64.2944
 1.8310	64.3327
 1.8300	64.3472
 1.8290	64.2932
 1.8280	64.2683
 1.8270	64.2669
 1.8260	64.2901
 1.8250	64.3224
 1.8240	64.3744
 1.8230	64.3553
 1.8220	64.3624
 1.8210	64.3386
 1.8200	64.3791
 1.8190	64.3652
 1.8180	64.3314
 1.8170	64.3382
 1.8160	64.3768
 1.8150	64.3554
 1.8140	64.3490
 1.8130	64.3785
 1.8120	64.3775
 1.8110	64.3740
 1.8100	64.4099
 1.8090	64.4003
 1.8080	64.3603
 1.8070	64.3816
 1.8060	64.3846
 1.8050	64.3699
 1.8040	64.4139
 1.8030	64.4094
 1.8020	64.4594
 1.8010	64.4641
 1.8000	64.4472
 1.7990	64.4536
 1.7980	64.4229
 1.7970	64.3541
 1.7960	64.4088
 1.7950	64.4330
 1.7940	64.3943
 1.7930	64.3757
 1.7920	64.4020
 1.7910	64.4516
 1.7900	64.4537
 1.7890	64.4401
 1.7880	64.4290
 1.7870	64.4446
 1.7860	64.4947
 1.7850	64.4210
 1.7840	64.3834
 1.7830	64.4143
 1.7820	64.3650
 1.7810	64.3417
 1.7800	64.3275
 1.7790	64.3288
 1.7780	64.2819
 1.7770	64.2563
 1.7760	64.2540
 1.7750	64.2510
 1.7740	64.2358
 1.7730	64.2051
 1.7720	64.2346
 1.7710	64.2342
 1.7700	64.2155
 1.7690	64.2441
 1.7680	64.2653
 1.7670	64.2556
 1.7660	64.2628
 1.7650	64.2801
 1.7640	64.2008
 1.7630	64.1702
 1.7620	64.2405
 1.7610	64.2647
 1.7600	64.2127
 1.7590	64.2292
 1.7580	64.2442
 1.7570	64.2214
 1.7560	64.2152
 1.7550	64.2485
 1.7540	64.2191
 1.7530	64.2213
 1.7520	64.2021
 1.7510	64.1916
 1.7500	64.2112
 1.7490	64.2004
 1.7480	64.1619
 1.7470	64.1564
 1.7460	64.1909
 1.7450	64.1904
 1.7440	64.1663
 1.7430	64.2010
 1.7420	64.1706
 1.7410	64.1897
 1.7400	64.1226
 1.7390	64.1410
 1.7380	64.1469
 1.7370	64.1571
 1.7360	64.1379
 1.7350	64.1029
 1.7340	64.1438
 1.7330	64.1351
 1.7320	64.1028
 1.7310	64.1126
 1.7300	64.0933
 1.7290	64.1368
 1.7280	64.0860
 1.7270	64.1167
 1.7260	64.0955
 1.7250	64.1168
 1.7240	64.0921
 1.7230	64.0855
 1.7220	64.0583
 1.7210	64.1012
 1.7200	64.0289
 1.7190	64.0641
 1.7180	64.0490
 1.7170	64.0213
 1.7160	63.9867
 1.7150	64.0573
 1.7140	64.0241
 1.7130	64.1081
 1.7120	64.0490
 1.7110	64.0192
 1.7100	63.9949
 1.7090	63.9990
 1.7080	63.9917
 1.7070	64.0772
 1.7060	64.0619
 1.7050	64.0874
 1.7040	64.0437
 1.7030	64.0335
 1.7020	64.0162
 1.7010	63.9959
 1.7000	63.9637
 1.6990	63.9847
 1.6980	63.9510
 1.6970	63.9578
 1.6960	63.9683
 1.6950	64.0250
 1.6940	63.9501
 1.6930	63.9544
 1.6920	63.9708
 1.6910	63.9999
 1.6900	63.9588
 1.6890	63.9652
 1.6880	63.9130
 1.6870	63.8369
 1.6860	63.8902
 1.6850	63.8927
 1.6840	63.8411
 1.6830	63.9573
 1.6820	63.8699
 1.6810	63.9615
 1.6800	63.9408
 1.6790	63.9390
 1.6780	63.9097
 1.6770	63.9365
 1.6760	63.8600
 1.6750	63.8684
 1.6740	63.8215
 1.6730	63.9122
 1.6720	63.8180
 1.6710	63.9336
 1.6700	63.8908
 1.6690	63.8399
 1.6680	63.7529
 1.6670	63.9235
 1.6660	63.8162
 1.6650	63.8205
 1.6640	63.7540
 1.6630	63.8737
 1.6620	63.7515
 1.6610	63.8091
 1.6600	63.7265
 1.6590	63.7994
 1.6580	63.7108
 1.6570	63.7902
 1.6560	63.7583
 1.6550	63.7365
 1.6540	63.7158
 1.6530	63.6449
 1.6520	63.6727
 1.6510	63.6685
 1.6500	63.5892
 1.6490	63.6781
 1.6480	63.7458
 1.6470	63.6988
 1.6460	63.6312
 1.6450	63.6361
 1.6440	63.5502
 1.6430	63.6790
 1.6420	63.6220
 1.6410	63.5961
 1.6400	63.5371
 1.6390	63.5512
 1.6380	63.4832
 1.6370	63.5417
 1.6360	63.4378
 1.6350	63.5342
 1.6340	63.5251
 1.6330	63.5508
 1.6320	63.4394
 1.6310	63.4586
 1.6300	63.4157
 1.6290	63.4420
 1.6280	63.3699
 1.6270	63.3674
 1.6260	63.3909
 1.6250	63.3387
 1.6240	63.2312
 1.6230	63.3695
 1.6220	63.2847
 1.6210	63.2868
 1.6200	63.2801
 1.6190	63.2724
 1.6180	63.2502
 1.6170	63.2624
 1.6160	63.1723
 1.6150	63.2264
 1.6140	63.1881
 1.6130	63.2180
 1.6120	63.0844
 1.6110	63.1035
 1.6100	63.0645
 1.6090	63.0494
 1.6080	63.0662
 1.6070	63.0602
 1.6060	63.0587
 1.6050	62.9746
 1.6040	62.9112
 1.6030	63.0376
 1.6020	62.8942
 1.6010	62.9764
 1.6000	62.9271
 1.5990	62.9869
 1.5980	62.8411
 1.5970	62.8705
 1.5960	62.8208
 1.5950	62.8059
 1.5940	62.7751
 1.5930	62.7415
 1.5920	62.7250
 1.5910	62.7452
 1.5900	62.6777
 1.5890	62.6877
 1.5880	62.5937
 1.5870	62.6108
 1.5860	62.5724
 1.5850	62.5609
 1.5840	62.5609
 1.5830	62.5090
 1.5820	62.4281
 1.5810	62.3916
 1.5800	62.4248
 1.5790	62.4474
 1.5780	62.3692
 1.5770	62.3633
 1.5760	62.2798
 1.5750	62.2812
 1.5740	62.2799
 1.5730	62.3408
 1.5720	62.2245
 1.5710	62.2034
 1.5700	62.2061
 1.5690	62.1943
 1.5680	62.0985
 1.5670	62.0444
 1.5660	62.0011
 1.5650	62.0802
 1.5640	61.9834
 1.5630	61.9747
 1.5620	61.9217
 1.5610	61.9082
 1.5600	61.8338
 1.5590	61.8286
 1.5580	61.7805
 1.5570	61.7577
 1.5560	61.7398
 1.5550	61.7521
 1.5540	61.6287
 1.5530	61.5900
 1.5520	61.5305
 1.5510	61.5058
 1.5500	61.4614
 1.5490	61.4522
 1.5480	61.3865
 1.5470	61.4207
 1.5460	61.3337
 1.5450	61.3150
 1.5440	61.2753
 1.5430	61.2454
 1.5420	61.2104
 1.5410	61.1660
 1.5400	61.1078
 1.5390	61.0718
 1.5380	60.9748
 1.5370	60.9495
 1.5360	60.8852
 1.5350	60.8552
 1.5340	60.8312
 1.5330	60.8055
 1.5320	60.7413
 1.5310	60.6813
 1.5300	60.6769
 1.5290	60.6817
 1.5280	60.5831
 1.5270	60.4625
 1.5260	60.4392
 1.5250	60.3863
 1.5240	60.3446
 1.5230	60.3336
 1.5220	60.2300
 1.5210	60.1676
 1.5200	60.1181
 1.5190	60.0254
 1.5180	59.9403
 1.5170	59.8637
 1.5160	59.7865
 1.5150	59.7255
 1.5140	59.6410
 1.5130	59.5377
 1.5120	59.4697
 1.5110	59.3606
 1.5100	59.2973
 1.5090	59.2651
 1.5080	59.1341
 1.5070	59.0301
 1.5060	58.9175
 1.5050	58.8258
 1.5040	58.7584
 1.5030	58.6654
 1.5020	58.5573
 1.5010	58.4831
 1.5000	58.3775
 1.4990	58.2751
 1.4980	58.1603
 1.4970	58.0512
 1.4960	57.9652
 1.4950	57.8130
 1.4940	57.6305
 1.4930	57.4727
 1.4920	57.2647
 1.4910	57.0639
 1.4900	56.8387
 1.4890	56.5519
 1.4880	56.2241
 1.4870	55.8749
 1.4860	55.4906
 1.4850	54.9172
 1.4840	54.2947
 1.4830	53.4852
 1.4820	52.4409
 1.4810	51.1916
 1.4800	49.8018
 1.4790	48.2639
 1.4780	46.8620
 1.4770	45.7968
 1.4760	45.2963
 1.4750	45.4178
 1.4740	46.1794
 1.4730	47.2607
 1.4720	48.5205
 1.4710	49.6444
 1.4700	50.5695
 1.4690	51.3238
 1.4680	52.0058
 1.4670	52.4575
 1.4660	52.7887
 1.4650	53.1046
 1.4640	53.4523
 1.4630	53.6791
 1.4620	53.9135
 1.4610	54.1182
 1.4600	54.3017
 1.4590	54.4495
 1.4580	54.5662
 1.4570	54.7126
 1.4560	54.8174
 1.4550	54.8459
 1.4540	54.9595
 1.4530	54.9529
 1.4520	54.9734
 1.4510	54.9553
 1.4500	54.9654
 1.4490	54.8194
 1.4480	54.7753
 1.4470	54.6499
 1.4460	54.4603
 1.4450	54.2679
 1.4440	54.1170
 1.4430	53.8670
 1.4420	53.4728
 1.4410	53.0213
 1.4400	52.4091
 1.4390	51.4127
 1.4380	49.9073
 1.4370	47.5269
 1.4360	44.0168
 1.4350	39.9091
 1.4340	36.6156
 1.4330	35.5157
 1.4320	37.4255
 1.4310	41.1435
 1.4300	45.4381
 1.4290	48.7355
 1.4280	50.7934
 1.4270	51.9771
 1.4260	52.5861
 1.4250	52.9676
 1.4240	53.1602
 1.4230	53.2052
 1.4220	53.1837
 1.4210	53.0424
 1.4200	52.7108
 1.4190	52.0922
 1.4180	51.4293
 1.4170	50.7495
 1.4160	50.3586
 1.4150	50.2773
 1.4140	50.5769
 1.4130	51.0509
 1.4120	51.6291
 1.4110	52.0377
 1.4100	52.3913
 1.4090	52.5123
 1.4080	52.6055
 1.4070	52.5355
 1.4060	52.6204
 1.4050	52.5903
 1.4040	52.5358
 1.4030	52.5180
 1.4020	52.4979
 1.4010	52.2585
 1.4000	52.1169
 1.3990	51.8780
 1.3980	51.8055
 1.3970	51.6914
 1.3960	51.9176
 1.3950	52.0127
 1.3940	52.0533
 1.3930	52.0630
 1.3920	51.9624
 1.3910	51.9506
 1.3900	52.0199
 1.3890	51.9212
 1.3880	51.8266
 1.3870	51.7216
 1.3860	51.6750
 1.3850	51.5145
 1.3840	51.4579
 1.3830	51.3215
 1.3820	51.3459
 1.3810	51.2120
 1.3800	51.1149
 1.3790	51.0656
 1.3780	51.0093
 1.3770	50.9658
 1.3760	50.9828
 1.3750	50.8806
 1.3740	50.8054
 1.3730	50.7448
 1.3720	50.6372
 1.3710	50.5154
 1.3700	50.4254
 1.3690	50.2587
 1.3680	50.1921
 1.3670	50.1210
 1.3660	50.1162
 1.3650	49.9752
 1.3640	49.9243
 1.3630	49.7980
 1.3620	49.6714
 1.3610	49.4719
 1.3600	49.4896
 1.3590	49.4364
 1.3580	49.3246
 1.3570	49.1592
 1.3560	49.2284
 1.3550	48.8312
 1.3540	48.8914
 1.3530	48.7172
 1.3520	48.6848
 1.3510	48.5845
 1.3500	48.5715
 1.3490	48.3387
 1.3480	48.2408
 1.3470	48.1101
 1.3460	48.1310
 1.3450	48.0211
 1.3440	47.8585
 1.3430	47.7457
 1.3420	47.7340
 1.3410	47.5637
 1.3400	47.5457
 1.3390	47.3411
 1.3380	47.2564
 1.3370	47.1285
 1.3360	47.0867
 1.3350	46.8563
 1.3340	46.9398
 1.3330	46.7011
 1.3320	46.6292
 1.3310	46.5465
 1.3300	46.4080
 1.3290	46.1986
 1.3280	46.1747
 1.3270	46.0173
 1.3260	45.9355
 1.3250	45.7437
 1.3240	45.7477
 1.3230	45.5631
 1.3220	45.4494
 1.3210	45.3751
 1.3200	45.2239
 1.3190	45.0503
 1.3180	45.0276
 1.3170	44.8310
 1.3160	44.7345
 1.3150	44.6471
 1.3140	44.5555
 1.3130	44.3526
 1.3120	44.2491
 1.3110	44.0654
 1.3100	43.9258
 1.3090	43.9096
 1.3080	43.8576
 1.3070	43.7677
 1.3060	43.6897
 1.3050	43.5194
 1.3040	43.4091
 1.3030	43.2705
 1.3020	43.2254
 1.3010	43.1248
 1.3000	43.0130
 1.2990	42.8618
 1.2980	42.7479
 1.2970	42.5224
 1.2960	42.4327
 1.2950	42.3081
 1.2940	42.2561
 1.2930	42.0600
 1.2920	42.0421
 1.2910	41.8597
 1.2900	41.8403
 1.2890	41.6306
 1.2880	41.6304
 1.2870	41.4921
 1.2860	41.3564
 1.2850	41.2546
 1.2840	41.1639
 1.2830	40.9909
 1.2820	40.8609
 1.2810	40.7326
 1.2800	40.6447
 1.2790	40.4887
 1.2780	40.4415
 1.2770	40.3060
 1.2760	40.2017
 1.2750	40.0436
 1.2740	39.9719
 1.2730	39.8354
 1.2720	39.7776
 1.2710	39.5801
 1.2700	39.4879
 1.2690	39.3493
 1.2680	39.2386
 1.2670	39.1361
 1.2660	39.0265
 1.2650	38.8850
 1.2640	38.8130
 1.2630	38.6305
 1.2620	38.5284
 1.2610	38.3574
 1.2600	38.2763
 1.2590	38.1282
 1.2580	38.0471
 1.2570	37.9120
 1.2560	37.8088
 1.2550	37.6818
 1.2540	37.6205
 1.2530	37.4400
 1.2520	37.3570
 1.2510	37.1956
 1.2500	37.1179
 1.2490	37.0209
 1.2480	36.8690
 1.2470	36.7145
 1.2460	36.6337
 1.2450	36.5182
 1.2440	36.4116
 1.2430	36.2307
 1.2420	36.1339
 1.2410	36.0293
 1.2400	35.9053
 1.2390	35.7620
 1.2380	35.6800
 1.2370	35.6015
 1.2360	35.4753
 1.2350	35.2754
 1.2340	35.2498
 1.2330	35.1480
 1.2320	35.0088
 1.2310	34.9094
 1.2300	34.7813
 1.2290	34.5986
 1.2280	34.4819
 1.2270	34.3716
 1.2260	34.2423
 1.2250	34.1155
 1.2240	33.9904
 1.2230	33.8920
 1.2220	33.8268
 1.2210	33.6979
 1.2200	33.6018
 1.2190	33.4980
 1.2180	33.3861
 1.2170	33.2257
 1.2160	33.0781
 1.2150	32.9709
 1.2140	32.8886
 1.2130	32.8254
 1.2120	32.6617
 1.2110	32.5268
 1.2100	32.4085
 1.2090	32.3083
 1.2080	32.2038
 1.2070	32.0529
 1.2060	31.9547
 1.2050	31.8664
 1.2040	31.7627
 1.2030	31.6582
 1.2020	31.5352
 1.2010	31.4402
 1.2000	31.2941
 1.1990	31.2310
 1.1980	31.0974
 1.1970	31.0046
 1.1960	30.8740
 1.1950	30.7963
 1.1940	30.6931
 1.1930	30.5504
 1.1920	30.4586
 1.1910	30.3515
 1.1900	30.1791
 1.1890	30.0594
 1.1880	29.8821
 1.1870	29.9128
 1.1860	29.8595
 1.1850	29.7408
 1.1840	29.5974
 1.1830	29.5178
 1.1820	29.3843
 1.1810	29.3054
 1.1800	29.1228
 1.1790	29.0326
 1.1780	28.9905
 1.1770	28.9222
 1.1760	28.7444
 1.1750	28.7383
 1.1740	28.5700
 1.1730	28.4659
 1.1720	28.3780
 1.1710	28.2330
 1.1700	28.1750
 1.1690	28.0628
 1.1680	27.9263
 1.1670	27.8992
 1.1660	27.7310
 1.1650	27.6568
 1.1640	27.6014
 1.1630	27.5783
 1.1620	27.3875
 1.1610	27.2598
 1.1600	27.1458
 1.1590	27.1314
 1.1580	26.9647
 1.1570	26.8727
 1.1560	26.8271
 1.1550	26.7506
 1.1540	26.6342
 1.1530	26.5683
 1.1520	26.4876
 1.1510	26.4740
 1.1500	26.3085
 1.1490	26.2104
 1.1480	26.0829
 1.1470	26.1038
 1.1460	25.9561
 1.1450	25.8479
 1.1440	25.6645
 1.1430	25.6865
 1.1420	25.5215
 1.1410	25.4860
 1.1400	25.4101
 1.1390	25.3861
 1.1380	25.2089
 1.1370	25.1651
 1.1360	25.0278
 1.1350	24.9611
 1.1340	24.8788
 1.1330	24.7998
 1.1320	24.6988
 1.1310	24.6412
 1.1300	24.5027
 1.1290	24.5075
 1.1280	24.3247
 1.1270	24.2716
 1.1260	24.1838
 1.1250	24.1280
 1.1240	24.0401
 1.1230	23.9761
 1.1220	23.8783
 1.1210	23.8564
 1.1200	23.7483
 1.1190	23.6835
 1.1180	23.5266
 1.1170	23.5276
 1.1160	23.3285
 1.1150	23.3425
 1.1140	23.1443
 1.1130	23.1760
 1.1120	23.0433
 1.1110	23.0986
 1.1100	22.8409
 1.1090	22.8796
 1.1080	22.7279
 1.1070	22.7755
 1.1060	22.5735
 1.1050	22.5833
 1.1040	22.4773
 1.1030	22.4199
 1.1020	22.2641
 1.1010	22.2593
 1.1000	22.1094
 1.0990	22.1301
 1.0980	21.9722
 1.0970	22.0056
 1.0960	21.8441
 1.0950	21.8809
 1.0940	21.6462
 1.0930	21.7193
 1.0920	21.5475
 1.0910	21.5373
 1.0900	21.3784
 1.0890	21.4610
 1.0880	21.2341
 1.0870	21.2113
 1.0860	21.1081
 1.0850	21.2527
 1.0840	20.8996
 1.0830	21.0150
 1.0820	20.8266
 1.0810	20.8597
 1.0800	20.7329
 1.0790	20.7435
 1.0780	20.5440
 1.0770	20.6084
 1.0760	20.4654
 1.0750	20.4669
 1.0740	20.2943
 1.0730	20.2628
 1.0720	20.2465
 1.0710	20.3526
 1.0700	19.8034
 1.0690	20.1456
 1.0680	19.9117
 1.0670	19.9731
 1.0660	19.7619
 1.0650	19.7931
 1.0640	19.5761
 1.0630	19.7144
 1.0620	19.4850
 1.0610	19.5153
 1.0600	19.3628
 1.0590	19.3394
 1.0580	19.1667
 1.0570	19.2931
 1.0560	19.1907
 1.0550	19.1237
 1.0540	19.0438
 1.0530	19.0175
 1.0520	18.8575
 1.0510	18.9527
 1.0500	18.7328
 1.0490	18.8374
 1.0480	18.7053
 1.0470	18.6497
 1.0460	18.4581
 1.0450	18.5520
 1.0440	18.4176
 1.0430	18.3758
 1.0420	18.2715
 1.0410	18.2233
 1.0400	18.0723
 1.0390	18.1307
 1.0380	17.9656
 1.0370	18.0176
 1.0360	17.8008
 1.0350	17.9292
 1.0340	17.7975
 1.0330	17.8002
 1.0320	17.6880
 1.0310	17.5458
 1.0300	17.4857
 1.0290	17.5253
 1.0280	17.3991
 1.0270	17.4586
 1.0260	17.2338
 1.0250	17.3479
 1.0240	17.1173
 1.0230	17.1570
 1.0220	16.9862
 1.0210	17.0246
 1.0200	16.9358
 1.0190	16.9243
 1.0180	16.7806
 1.0170	16.8213
 1.0160	16.6956
 1.0150	16.7205
 1.0140	16.5206
 1.0130	16.5501
 1.0120	16.4731
 1.0110	16.4478
 1.0100	16.3101
 1.0090	16.2559
 1.0080	16.1775
 1.0070	16.3022
 1.0060	16.0744
 1.0050	16.0572
 1.0040	15.9810
 1.0030	15.9441
 1.0020	15.8458
 1.0010	15.8147
 1.0000	15.7732
 0.9990	15.7626
 0.9980	15.6482
 0.9970	15.6352
 0.9960	15.5772
 0.9950	15.5772
 0.9940	15.4804
 0.9930	15.4028
 0.9920	15.1956
 0.9910	15.2736
 0.9900	15.2331
 0.9890	15.1628
 0.9880	15.0570
 0.9870	15.0817
 0.9860	14.9726
 0.9850	14.9600
 0.9840	14.8456
 0.9830	14.8461
 0.9820	14.7655
 0.9810	14.7428
 0.9800	14.6237
 0.9790	14.6223
 0.9780	14.5972
 0.9770	14.5809
 0.9760	14.4118
 0.9750	14.4607
 0.9740	14.4086
 0.9730	14.3280
 0.9720	14.2416
 0.9710	14.2782
 0.9700	14.2391
 0.9690	14.2735
 0.9680	14.1447
 0.9670	14.0808
 0.9660	14.0080
 0.9650	14.0271
 0.9640	13.9390
 0.9630	13.9147
 0.9620	13.8237
 0.9610	13.8301
 0.9600	13.8265
 0.9590	13.8186
 0.9580	13.7835
 0.9570	13.7302
 0.9560	13.6518
 0.9550	13.6364
 0.9540	13.6033
 0.9530	13.5858
 0.9520	13.4946
 0.9510	13.5125
 0.9500	13.4896
 0.9490	13.4744
 0.9480	13.4324
 0.9470	13.3839
 0.9460	13.3024
 0.9450	13.3017
 0.9440	13.2590
 0.9430	13.3056
 0.9420	13.2439
 0.9410	13.1997
 0.9400	13.1306
 0.9390	13.1233
 0.9380	13.1436
 0.9370	13.1204
 0.9360	13.0961
 0.9350	13.0862
 0.9340	13.0359
 0.9330	13.0156
 0.9320	12.9623
 0.9310	12.9599
 0.9300	12.9434
 0.9290	12.9177
 0.9280	12.9342
 0.9270	12.9202
 0.9260	12.8629
 0.9250	12.7934
 0.9240	12.7665
 0.9230	12.7547
 0.9220	12.7499
 0.9210	12.7115
 0.9200	12.7560
 0.9190	12.7813
 0.9180	12.7671
 0.9170	12.6831
 0.9160	12.6717
 0.9150	12.6982
 0.9140	12.7048
 0.9130	12.6849
 0.9120	12.6783
 0.9110	12.6479
 0.9100	12.6322
 0.9090	12.6385
 0.9080	12.6565
 0.9070	12.6548
 0.9060	12.6263
 0.9050	12.5926
 0.9040	12.6450
 0.9030	12.6284
 0.9020	12.6583
 0.9010	12.5697
 0.9000	12.5832
 0.8990	12.6101
 0.8980	12.6061
 0.8970	12.5875
 0.8960	12.6217
 0.8950	12.5296
 0.8940	12.6278
 0.8930	12.6451
 0.8920	12.6130
 0.8910	12.5523
 0.8900	12.6082
 0.8890	12.6135
 0.8880	12.6643
 0.8870	12.5974
 0.8860	12.6104
 0.8850	12.6061
 0.8840	12.6294
 0.8830	12.6290
 0.8820	12.6746
 0.8810	12.6755
 0.8800	12.7202
 0.8790	12.5870
 0.8780	12.6490
 0.8770	12.6337
 0.8760	12.7457
 0.8750	12.7369
 0.8740	12.7854
 0.8730	12.7158
 0.8720	12.7680
 0.8710	12.6866
 0.8700	12.7362
 0.8690	12.6889
 0.8680	12.8033
 0.8670	12.7313
 0.8660	12.7892
 0.8650	12.7472
 0.8640	12.8345
 0.8630	12.7993
 0.8620	12.8811
 0.8610	12.8937
 0.8600	12.9752
 0.8590	12.9993
 0.8580	13.0205
 0.8570	12.9961
 0.8560	13.0446
 0.8550	13.1001
 0.8540	13.0915
 0.8530	13.1238
 0.8520	13.1691
 0.8510	13.1683
 0.8500	13.1944
 0.8490	13.2031
 0.8480	13.2193
 0.8470	13.2428
 0.8460	13.2817
 0.8450	13.3063
 0.8440	13.2995
 0.8430	13.3448
 0.8420	13.3832
 0.8410	13.3734
 0.8400	13.4030
 0.8390	13.4389
 0.8380	13.4303
 0.8370	13.4605
 0.8360	13.4832
 0.8350	13.4816
 0.8340	13.5089
 0.8330	13.5520
 0.8320	13.5439
 0.8310	13.5540
 0.8300	13.5796
 0.8290	13.5887
 0.8280	13.5964
 0.8270	13.6134
 0.8260	13.6123
 0.8250	13.6234
 0.8240	13.6592
 0.8230	13.6577
 0.8220	13.6729
 0.8210	13.6977
 0.8200	13.7063
 0.8190	13.7083
 0.8180	13.7056
 0.8170	13.7210
 0.8160	13.7226
 0.8150	13.7260
 0.8140	13.7313
 0.8130	13.7383
 0.8120	13.7386
 0.8110	13.7457
 0.8100	13.7547
 0.8090	13.7489
 0.8080	13.7506
 0.8070	13.7396
 0.8060	13.7496
 0.8050	13.7363
 0.8040	13.7411
 0.8030	13.7402
 0.8020	13.7390
 0.8010	13.7179
 0.8000	13.7061
 0.7990	13.7032
 0.7980	13.6950
 0.7970	13.6776
 0.7960	13.6774
 0.7950	13.6565
 0.7940	13.6343
 0.7930	13.6209
 0.7920	13.6082
 0.7910	13.5979
 0.7900	13.5820
 0.7890	13.5493
 0.7880	13.5420
 0.7870	13.5180
 0.7860	13.4878
 0.7850	13.4849
 0.7840	13.4692
 0.7830	13.4305
 0.7820	13.4181
 0.7810	13.4014
 0.7800	13.3484
 0.7790	13.3438
 0.7780	13.2975
 0.7770	13.2718
 0.7760	13.2469
 0.7750	13.2263
 0.7740	13.1855
 0.7730	13.1495
 0.7720	13.1289
 0.7710	13.0822
 0.7700	13.0583
 0.7690	13.0234
 0.7680	12.9942
 0.7670	12.9629
 0.7660	12.9287
 0.7650	12.8963
 0.7640	12.8567
 0.7630	12.8335
 0.7620	12.7907
 0.7610	12.7644
 0.7600	12.7232
 0.7590	12.6753
 0.7580	12.6526
 0.7570	12.6144
 0.7560	12.5708
 0.7550	12.5487
 0.7540	12.5089
 0.7530	12.4677
 0.7520	12.4349
 0.7510	12.3978
 0.7500	12.3612
 0.7490	12.3285
 0.7480	12.2907
 0.7470	12.2599
 0.7460	12.2315
 0.7450	12.1980
 0.7440	12.1554
 0.7430	12.1251
 0.7420	12.0942
 0.7410	12.0570
 0.7400	12.0174
 0.7390	11.9967
 0.7380	11.9583
 0.7370	11.9262
 0.7360	11.9059
 0.7350	11.8677
 0.7340	11.8385
 0.7330	11.8178
 0.7320	11.7914
 0.7310	11.7682
 0.7300	11.7351
 0.7290	11.7083
 0.7280	11.6836
 0.7270	11.6651
 0.7260	11.6382
 0.7250	11.6198
 0.7240	11.6012
 0.7230	11.5818
 0.7220	11.5553
 0.7210	11.5431
 0.7200	11.5273
 0.7190	11.5160
 0.7180	11.4963
 0.7170	11.4741
 0.7160	11.4668
 0.7150	11.4547
 0.7140	11.4494
 0.7130	11.4358
 0.7120	11.4225
 0.7110	11.4175
 0.7100	11.4082
 0.7090	11.4060
 0.7080	11.4049
 0.7070	11.3985
 0.7060	11.3997
 0.7050	11.4049
 0.7040	11.4008
 0.7030	11.4060
 0.7020	11.4181
 0.7010	11.4197
 0.7000	11.4298
 0.6990	11.4399
 0.6980	11.4490
 0.6970	11.4596
 0.6960	11.4749
 0.6950	11.4889
 0.6940	11.5030
 0.6930	11.5214
 0.6920	11.5466
 0.6910	11.5680
 0.6900	11.5926
 0.6890	11.6147
 0.6880	11.6375
 0.6870	11.6681
 0.6860	11.7002
 0.6850	11.7310
 0.6840	11.7661
 0.6830	11.8011
 0.6820	11.8416
 0.6810	11.8841
 0.6800	11.9252
 0.6790	11.9663
 0.6780	12.0133
 0.6770	12.0614
 0.6760	12.1124
 0.6750	12.1685
 0.6740	12.2199
 0.6730	12.2784
 0.6720	12.3431
 0.6710	12.4014
 0.6700	12.4628
 0.6690	12.5333
 0.6680	12.6035
 0.6670	12.6735
 0.6660	12.7432
 0.6650	12.8217
 0.6640	12.9041
 0.6630	12.9868
 0.6620	13.0727
 0.6610	13.1602
 0.6600	13.2528
 0.6590	13.3507
 0.6580	13.4465
 0.6570	13.5479
 0.6560	13.6533
 0.6550	13.7596
 0.6540	13.8696
 0.6530	13.9850
 0.6520	14.1024
 0.6510	14.2170
 0.6500	14.3416
 0.6490	14.4742
 0.6480	14.6094
 0.6470	14.7454
 0.6460	14.8815
 0.6450	15.0245
 0.6440	15.1725
 0.6430	15.3248
 0.6420	15.4821
 0.6410	15.6432
 0.6400	15.8086
 0.6390	15.9774
 0.6380	16.1512
 0.6370	16.3297
 0.6360	16.5116
 0.6350	16.7011
 0.6340	16.8995
 0.6330	17.1020
 0.6320	17.3035
 0.6310	17.5119
 0.6300	17.7054
 0.6290	17.9057
 0.6280	18.1307
 0.6270	18.3578
 0.6260	18.5948
 0.6250	18.8452
 0.6240	19.0958
 0.6230	19.3495
 0.6220	19.6128
 0.6210	19.8791
 0.6200	20.1531
 0.6190	20.4354
 0.6180	20.7246
 0.6170	21.0205
 0.6160	21.3229
 0.6150	21.6322
 0.6140	21.9448
 0.6130	22.2682
 0.6120	22.5945
 0.6110	22.9285
 0.6100	23.2723
 0.6090	23.6197
 0.6080	23.9756
 0.6070	24.3392
 0.6060	24.7079
 0.6050	25.0885
 0.6040	25.4790
 0.6030	25.8728
 0.6020	26.2738
 0.6010	26.6741
 0.6000	27.0792
 0.5990	27.5111
 0.5980	27.9456
 0.5970	28.3841
 0.5960	28.8182
 0.5950	29.2710
 0.5940	29.7238
 0.5930	30.1829
 0.5920	30.6439
 0.5910	31.1144
 0.5900	31.5859
 0.5890	32.0639
 0.5880	32.5132
 0.5870	32.9893
 0.5860	33.4790
 0.5850	33.9666
 0.5840	34.4748
 0.5830	34.9774
 0.5820	35.4512
 0.5810	35.9434
 0.5800	36.4580
 0.5790	36.9687
 0.5780	37.4821
 0.5770	37.9973
 0.5760	38.5075
 0.5750	39.0134
 0.5740	39.5296
 0.5730	40.0307
 0.5720	40.5340
 0.5710	41.0519
 0.5700	41.5469
 0.5690	42.0412
 0.5680	42.5395
 0.5670	43.0267
 0.5660	43.5084
 0.5650	43.9823
 0.5640	44.4555
 0.5630	44.9272
 0.5620	45.3848
 0.5610	45.8668
 0.5600	46.3126
 0.5590	46.7419
 0.5580	47.1681
 0.5570	47.5824
 0.5560	47.9921
 0.5550	48.3790
 0.5540	48.7814
 0.5530	49.1524
 0.5520	49.5168
 0.5510	49.8643
 0.5500	50.2175
 0.5490	50.5399
 0.5480	50.8451
 0.5470	51.1500
 0.5460	51.4376
 0.5450	51.7067
 0.5440	51.9762
 0.5430	52.2312
 0.5420	52.4615
 0.5410	52.6895
 0.5400	52.9136
 0.5390	53.1029
 0.5380	53.2843
 0.5370	53.4596
 0.5360	53.6097
 0.5350	53.7618
 0.5340	53.8793
 0.5330	53.9974
 0.5320	54.0968
 0.5310	54.1876
 0.5300	54.2776
 0.5290	54.3290
 0.5280	54.3721
 0.5270	54.4109
 0.5260	54.4406
 0.5250	54.4589
 0.5240	54.4585
 0.5230	54.4382
 0.5220	54.4373
 0.5210	54.3974
 0.5200	54.3587
 0.5190	54.2887
 0.5180	54.2195
 0.5170	54.1332
 0.5160	54.0463
 0.5150	53.9510
 0.5140	53.8366
 0.5130	53.7212
 0.5120	53.5716
 0.5110	53.4410
 0.5100	53.2781
 0.5090	53.1208
 0.5080	52.9532
 0.5070	52.7789
 0.5060	52.5875
 0.5050	52.3832
 0.5040	52.1564
 0.5030	51.9479
 0.5020	51.7196
 0.5010	51.4957
 0.5000	51.2378
 0.4990	50.9933
 0.4980	50.7231
 0.4970	50.4918
 0.4960	50.2013
 0.4950	49.9270
 0.4940	49.6532
 0.4930	49.3423
 0.4920	49.0552
 0.4910	48.7524
 0.4900	48.4495
 0.4890	48.1241
 0.4880	47.8338
 0.4870	47.4849
 0.4860	47.1610
 0.4850	46.8400
 0.4840	46.5200
 0.4830	46.2171
 0.4820	45.8999
 0.4810	45.5976
 0.4800	45.2831
 0.4790	44.9964
 0.4780	44.6992
 0.4770	44.3860
 0.4760	44.0930
 0.4750	43.7782
 0.4740	43.4594
 0.4730	43.1511
 0.4720	42.8436
 0.4710	42.5391
 0.4700	42.2430
 0.4690	41.9253
 0.4680	41.6164
 0.4670	41.3339
 0.4660	41.0453
 0.4650	40.7395
 0.4640	40.4479
 0.4630	40.1701
 0.4620	39.8779
 0.4610	39.5998
 0.4600	39.3177
 0.4590	39.0274
 0.4580	38.7612
 0.4570	38.4961
 0.4560	38.2040
 0.4550	37.9330
 0.4540	37.6667
 0.4530	37.4012
 0.4520	37.1196
 0.4510	36.8621
 0.4500	36.6008
 0.4490	36.3730
 0.4480	36.1034
 0.4470	35.8343
 0.4460	35.5638
 0.4450	35.3061
 0.4440	35.0443
 0.4430	34.7715
 0.4420	34.5279
 0.4410	34.2632
 0.4400	33.9999
 0.4390	33.7442
 0.4380	33.5220
 0.4370	33.2695
 0.4360	33.0233
 0.4350	32.7658
 0.4340	32.4861
 0.4330	32.2392
 0.4320	31.9977
 0.4310	31.7517
 0.4300	31.5090
 0.4290	31.2707
 0.4280	31.0253
 0.4270	30.8003
 0.4260	30.5650
 0.4250	30.3396
 0.4240	30.1069
 0.4230	29.8839
 0.4220	29.6650
 0.4210	29.4487
 0.4200	29.2587
 0.4190	29.0482
 0.4180	28.8485
 0.4170	28.6544
 0.4160	28.4662
 0.4150	28.2729
 0.4140	28.0960
 0.4130	27.9152
 0.4120	27.7390
 0.4110	27.5774
 0.4100	27.4085
 0.4090	27.2406
 0.4080	27.0909
 0.4070	26.9405
 0.4060	26.7718
 0.4050	26.6223
 0.4040	26.4645
 0.4030	26.3163
 0.4020	26.1741
 0.4010	26.0149
 0.4000	25.8723
