Name: Atacamite Cu_2Cl(OH)_3
Type: Mineral
Class: Halide
Subclass: None
Particle Size: Medium
Sample No.: H-4A
Owner: JPL
Wavelength Range: VSWIR
Origin: Chile, Atacama, Copiapo
Collection Date: N/A
Description: Particle size was 45-125um.Collected by Grieger's Inc. Original ASTER Spectral Library name was jpl.beckman.mineral.halide.none.medium.h04a.spectrum.txt
Measurement: Hemispherical reflectance
First Column: X
Second Column: Y
X Units: Wavelength (micrometers)
Y Units:Reflectance (percent)
First X Value:  0.4000
Last X Value:  2.5000
Number of X Values: 826
Additional Information: mineral.halide.none.medium.vswir.h-4a.jpl.beckman.ancillary.txt

 0.4000	 9.2500
 0.4010	 9.5600
 0.4020	 9.6900
 0.4030	 9.8500
 0.4040	 9.9000
 0.4050	10.0400
 0.4060	10.1500
 0.4070	10.1900
 0.4080	10.2600
 0.4090	10.4500
 0.4100	10.5600
 0.4110	10.6600
 0.4120	10.7300
 0.4130	10.8000
 0.4140	10.9700
 0.4150	11.0800
 0.4160	11.2700
 0.4170	11.3500
 0.4180	11.4000
 0.4190	11.5000
 0.4200	11.5900
 0.4210	11.8400
 0.4220	11.7700
 0.4230	12.0400
 0.4240	12.1400
 0.4250	12.2600
 0.4260	12.3500
 0.4270	12.4900
 0.4280	12.6100
 0.4290	12.7400
 0.4300	12.7200
 0.4310	12.9200
 0.4320	13.0200
 0.4330	13.1900
 0.4340	13.3000
 0.4350	13.2900
 0.4360	13.5200
 0.4370	13.6500
 0.4380	13.7400
 0.4390	13.8300
 0.4400	13.9000
 0.4410	14.0500
 0.4420	14.2200
 0.4430	14.3800
 0.4440	14.3900
 0.4450	14.6100
 0.4460	14.7000
 0.4470	14.8700
 0.4480	14.8800
 0.4490	15.1100
 0.4500	15.2000
 0.4510	15.2900
 0.4520	15.3700
 0.4530	15.4800
 0.4540	15.5900
 0.4550	15.7800
 0.4560	15.9600
 0.4570	15.9200
 0.4580	16.1400
 0.4590	16.1500
 0.4600	16.2100
 0.4610	16.4700
 0.4620	16.4800
 0.4630	16.6200
 0.4640	16.8300
 0.4650	16.9200
 0.4660	16.9800
 0.4670	17.0500
 0.4680	17.2500
 0.4690	17.4200
 0.4700	17.4700
 0.4710	17.6500
 0.4720	17.7400
 0.4730	17.9000
 0.4740	18.0300
 0.4750	18.1900
 0.4760	18.3400
 0.4770	18.4600
 0.4780	18.5400
 0.4790	18.6200
 0.4800	18.7500
 0.4810	18.8700
 0.4820	19.0300
 0.4830	19.1100
 0.4840	19.2000
 0.4850	19.2400
 0.4860	19.3200
 0.4870	19.4600
 0.4880	19.5400
 0.4890	19.5800
 0.4900	19.6900
 0.4910	19.8200
 0.4920	19.9700
 0.4930	19.9300
 0.4940	20.0700
 0.4950	20.1000
 0.4960	20.2000
 0.4970	20.2400
 0.4980	20.2700
 0.4990	20.4200
 0.5000	20.4600
 0.5010	20.4400
 0.5020	20.5400
 0.5030	20.5300
 0.5040	20.5700
 0.5050	20.7500
 0.5060	20.7000
 0.5070	20.8200
 0.5080	20.8200
 0.5090	20.8300
 0.5100	20.9000
 0.5110	20.8600
 0.5120	21.0000
 0.5130	20.9100
 0.5140	20.9200
 0.5150	20.9200
 0.5160	20.9100
 0.5170	20.8900
 0.5180	20.9100
 0.5190	20.8800
 0.5200	20.9400
 0.5210	20.8900
 0.5220	20.8100
 0.5230	20.8200
 0.5240	20.7400
 0.5250	20.7500
 0.5260	20.8000
 0.5270	20.6000
 0.5280	20.5600
 0.5290	20.5600
 0.5300	20.5500
 0.5310	20.4200
 0.5320	20.2800
 0.5330	20.2900
 0.5340	20.2400
 0.5350	20.0700
 0.5360	19.9100
 0.5370	19.8500
 0.5380	19.8000
 0.5390	19.8100
 0.5400	19.6100
 0.5410	19.4700
 0.5420	19.3200
 0.5430	19.2900
 0.5440	19.1600
 0.5450	18.9600
 0.5460	18.8800
 0.5470	18.8000
 0.5480	18.5700
 0.5490	18.3700
 0.5500	18.2400
 0.5510	18.1100
 0.5520	17.9900
 0.5530	17.7600
 0.5540	17.6700
 0.5550	17.5900
 0.5560	17.3800
 0.5570	17.2300
 0.5580	17.0500
 0.5590	17.0300
 0.5600	16.9800
 0.5610	16.5300
 0.5620	16.4400
 0.5630	16.2500
 0.5640	15.9800
 0.5650	15.8800
 0.5660	15.6600
 0.5670	15.5700
 0.5680	15.1800
 0.5690	15.1500
 0.5700	14.9700
 0.5710	14.6500
 0.5720	14.4900
 0.5730	14.2600
 0.5740	14.0800
 0.5750	13.9000
 0.5760	13.7300
 0.5770	13.5300
 0.5780	13.3200
 0.5790	13.1300
 0.5800	12.9700
 0.5810	12.7700
 0.5820	12.5400
 0.5830	12.3900
 0.5840	12.2600
 0.5850	12.0300
 0.5860	11.8500
 0.5870	11.7200
 0.5880	11.5400
 0.5890	11.3100
 0.5900	11.0800
 0.5910	11.0200
 0.5920	10.7800
 0.5930	10.7200
 0.5940	10.6100
 0.5950	10.4900
 0.5960	10.3600
 0.5970	10.2700
 0.5980	10.0700
 0.5990	 9.7400
 0.6000	 9.7500
 0.6010	 9.7000
 0.6020	 9.6300
 0.6030	 9.3500
 0.6040	 9.1500
 0.6050	 9.0000
 0.6060	 9.0700
 0.6070	 8.8800
 0.6080	 8.5900
 0.6090	 8.4300
 0.6100	 8.3700
 0.6110	 8.2000
 0.6120	 8.0700
 0.6130	 7.8200
 0.6140	 7.7600
 0.6150	 7.5900
 0.6160	 7.4400
 0.6170	 7.3800
 0.6180	 7.2600
 0.6190	 7.1400
 0.6200	 7.0300
 0.6210	 6.9200
 0.6220	 6.7600
 0.6230	 6.7000
 0.6240	 6.6300
 0.6250	 6.5000
 0.6260	 6.3300
 0.6270	 6.3300
 0.6280	 6.2300
 0.6290	 6.1700
 0.6300	 5.9900
 0.6310	 5.9400
 0.6320	 5.9400
 0.6330	 5.7900
 0.6340	 5.6800
 0.6350	 5.6100
 0.6360	 5.5500
 0.6370	 5.5500
 0.6380	 5.4900
 0.6390	 5.3900
 0.6400	 5.2600
 0.6410	 5.2500
 0.6420	 5.1400
 0.6430	 5.0300
 0.6440	 5.0900
 0.6450	 4.9800
 0.6460	 4.9300
 0.6470	 4.8100
 0.6480	 4.8100
 0.6490	 4.6800
 0.6500	 4.7300
 0.6510	 4.6800
 0.6520	 4.5700
 0.6530	 4.5700
 0.6540	 4.5200
 0.6550	 4.5200
 0.6560	 4.4000
 0.6570	 4.2900
 0.6580	 4.3500
 0.6590	 4.3000
 0.6600	 4.1700
 0.6610	 4.2200
 0.6620	 4.1600
 0.6630	 4.1200
 0.6640	 4.1100
 0.6650	 4.0600
 0.6660	 4.0000
 0.6670	 3.8900
 0.6680	 3.9400
 0.6690	 3.9400
 0.6700	 3.8300
 0.6710	 3.8900
 0.6720	 3.7800
 0.6730	 3.7800
 0.6740	 3.7700
 0.6750	 3.7700
 0.6760	 3.7800
 0.6770	 3.6600
 0.6780	 3.6000
 0.6790	 3.6600
 0.6800	 3.6500
 0.6810	 3.6500
 0.6820	 3.5900
 0.6830	 3.4800
 0.6840	 3.6000
 0.6850	 3.5400
 0.6860	 3.5400
 0.6870	 3.4200
 0.6880	 3.5400
 0.6890	 3.5400
 0.6900	 3.4800
 0.6910	 3.4800
 0.6920	 3.4200
 0.6930	 3.4200
 0.6940	 3.4300
 0.6950	 3.3200
 0.6960	 3.3200
 0.6970	 3.3200
 0.6980	 3.3200
 0.6990	 3.3500
 0.7000	 3.3200
 0.7010	 3.3100
 0.7020	 3.2500
 0.7030	 3.2600
 0.7040	 3.3100
 0.7050	 3.2500
 0.7060	 3.2500
 0.7070	 3.1900
 0.7080	 3.1900
 0.7090	 3.2000
 0.7100	 3.1300
 0.7110	 3.1900
 0.7120	 3.1900
 0.7130	 3.1400
 0.7140	 3.2000
 0.7150	 3.0900
 0.7160	 3.2000
 0.7170	 3.2600
 0.7180	 3.1900
 0.7190	 3.2000
 0.7200	 3.1400
 0.7210	 3.1400
 0.7220	 3.1900
 0.7230	 3.1300
 0.7240	 3.1900
 0.7250	 3.1400
 0.7260	 3.2000
 0.7270	 3.2000
 0.7280	 3.1300
 0.7290	 3.1900
 0.7300	 3.1900
 0.7310	 3.2500
 0.7320	 3.1900
 0.7330	 3.1900
 0.7340	 3.1400
 0.7350	 3.2000
 0.7360	 3.1400
 0.7370	 3.1900
 0.7380	 3.2400
 0.7390	 3.1900
 0.7400	 3.1900
 0.7410	 3.1900
 0.7420	 3.2500
 0.7430	 3.2500
 0.7440	 3.2500
 0.7450	 3.2500
 0.7460	 3.1900
 0.7470	 3.1900
 0.7480	 3.2400
 0.7490	 3.2500
 0.7500	 3.3000
 0.7510	 3.2500
 0.7520	 3.3000
 0.7530	 3.3000
 0.7540	 3.1900
 0.7550	 3.3700
 0.7560	 3.3100
 0.7570	 3.3000
 0.7580	 3.3000
 0.7590	 3.3000
 0.7600	 3.3600
 0.7610	 3.3600
 0.7620	 3.3600
 0.7630	 3.3700
 0.7640	 3.4200
 0.7650	 3.3600
 0.7660	 3.4100
 0.7670	 3.3500
 0.7680	 3.4100
 0.7690	 3.4700
 0.7700	 3.4100
 0.7710	 3.4700
 0.7720	 3.4200
 0.7730	 3.4700
 0.7740	 3.4700
 0.7750	 3.5200
 0.7760	 3.5300
 0.7770	 3.4700
 0.7780	 3.5200
 0.7790	 3.5200
 0.7800	 3.5200
 0.7810	 3.5800
 0.7820	 3.6400
 0.7830	 3.5800
 0.7840	 3.6900
 0.7850	 3.5800
 0.7860	 3.6400
 0.7870	 3.6900
 0.7880	 3.6800
 0.7890	 3.7500
 0.7900	 3.7500
 0.7910	 3.8100
 0.7920	 4.0400
 0.7930	 4.0900
 0.7940	 4.0900
 0.7950	 3.9800
 0.7960	 4.0900
 0.7970	 4.1400
 0.7980	 4.0500
 0.7990	 4.1200
 0.8000	 4.3900
 0.8040	 4.4600
 0.8080	 4.5200
 0.8120	 4.5900
 0.8160	 4.6500
 0.8200	 4.7200
 0.8240	 4.7200
 0.8280	 4.8400
 0.8320	 4.8400
 0.8360	 4.9100
 0.8400	 4.9600
 0.8440	 5.0200
 0.8480	 5.1600
 0.8520	 5.2100
 0.8560	 5.2700
 0.8600	 5.3400
 0.8640	 5.4000
 0.8680	 5.4700
 0.8720	 5.7000
 0.8760	 5.7700
 0.8800	 5.7700
 0.8840	 5.9300
 0.8880	 5.9400
 0.8920	 6.1200
 0.8960	 6.2200
 0.9000	 6.3600
 0.9040	 6.4700
 0.9080	 6.5300
 0.9120	 6.7100
 0.9160	 6.8300
 0.9200	 7.0100
 0.9240	 7.1900
 0.9280	 7.2300
 0.9320	 7.4200
 0.9360	 7.5400
 0.9400	 7.7700
 0.9440	 7.9600
 0.9480	 8.1200
 0.9520	 8.3400
 0.9560	 8.5000
 0.9600	 8.7100
 0.9640	 8.8600
 0.9680	 9.1300
 0.9720	 9.3000
 0.9760	 9.5500
 0.9800	 9.7000
 0.9840	 9.9700
 0.9880	10.2000
 0.9920	10.4300
 0.9960	10.6800
 1.0000	10.7800
 1.0040	11.1000
 1.0080	11.3300
 1.0120	11.6000
 1.0160	11.8500
 1.0200	12.0500
 1.0240	12.2500
 1.0280	12.5100
 1.0320	12.7800
 1.0360	13.0100
 1.0400	13.1900
 1.0440	13.4800
 1.0480	13.7000
 1.0520	13.9700
 1.0560	14.2100
 1.0600	14.4700
 1.0640	14.6700
 1.0680	14.8800
 1.0720	15.2000
 1.0760	15.3600
 1.0800	15.6300
 1.0840	15.8500
 1.0880	16.0400
 1.0920	16.3100
 1.0960	16.6200
 1.1000	16.8000
 1.1040	17.0100
 1.1080	17.2800
 1.1120	17.4600
 1.1160	17.6900
 1.1200	17.8800
 1.1240	18.0900
 1.1280	18.4100
 1.1320	18.6900
 1.1360	18.7500
 1.1400	19.0400
 1.1440	19.2700
 1.1480	19.3900
 1.1520	19.6700
 1.1560	19.8600
 1.1600	20.0500
 1.1640	20.3500
 1.1680	20.5800
 1.1720	20.7300
 1.1760	20.9800
 1.1800	21.2500
 1.1840	21.4000
 1.1880	21.6300
 1.1920	21.9000
 1.1960	22.1000
 1.2000	22.3600
 1.2040	22.6000
 1.2080	22.8600
 1.2120	23.0100
 1.2160	23.3200
 1.2200	23.4600
 1.2240	23.6700
 1.2280	23.9700
 1.2320	24.1400
 1.2360	24.3600
 1.2400	24.6400
 1.2440	24.8600
 1.2480	25.0900
 1.2520	25.3900
 1.2560	25.6500
 1.2600	25.8700
 1.2640	26.0400
 1.2680	26.2400
 1.2720	26.5300
 1.2760	26.8100
 1.2800	26.9700
 1.2840	27.1900
 1.2880	27.4400
 1.2920	27.6900
 1.2960	27.8700
 1.3000	28.0500
 1.3040	28.2700
 1.3080	28.4600
 1.3120	28.6700
 1.3160	28.8600
 1.3200	29.0700
 1.3240	29.3100
 1.3280	29.3900
 1.3320	29.7400
 1.3360	29.8000
 1.3400	30.0200
 1.3440	30.1600
 1.3480	30.3000
 1.3520	30.4400
 1.3560	30.6900
 1.3600	30.8400
 1.3640	30.9500
 1.3680	30.9400
 1.3720	30.9800
 1.3760	31.0000
 1.3800	30.9100
 1.3840	30.7200
 1.3880	30.3400
 1.3920	29.9000
 1.3960	29.2000
 1.4000	28.1200
 1.4040	26.8400
 1.4080	25.7800
 1.4120	25.9000
 1.4160	26.8100
 1.4200	27.6600
 1.4240	28.2900
 1.4280	28.7300
 1.4320	29.0700
 1.4360	29.4400
 1.4400	29.6600
 1.4440	29.8400
 1.4480	29.8800
 1.4520	29.9800
 1.4560	29.9200
 1.4600	29.3500
 1.4640	29.1300
 1.4680	29.7200
 1.4720	30.8000
 1.4760	31.6800
 1.4800	32.1000
 1.4840	32.1600
 1.4880	32.2600
 1.4920	32.8100
 1.4960	33.5800
 1.5000	33.9600
 1.5040	34.3400
 1.5080	34.7900
 1.5120	35.3700
 1.5160	35.7100
 1.5200	36.0800
 1.5240	36.4200
 1.5280	36.7700
 1.5320	37.1800
 1.5360	37.5500
 1.5400	37.7200
 1.5440	37.8300
 1.5480	37.6800
 1.5520	37.5100
 1.5560	37.7500
 1.5600	38.4100
 1.5640	39.2200
 1.5680	39.7700
 1.5720	40.1500
 1.5760	40.4300
 1.5800	40.6900
 1.5840	40.7400
 1.5880	40.9400
 1.5920	41.2200
 1.5960	41.5500
 1.6000	41.8900
 1.6040	42.2500
 1.6080	42.4800
 1.6120	42.8200
 1.6160	43.0900
 1.6200	43.2900
 1.6240	43.5900
 1.6280	43.7600
 1.6320	43.9600
 1.6360	44.2200
 1.6400	44.4200
 1.6440	44.7000
 1.6480	44.8300
 1.6520	45.0600
 1.6560	45.2500
 1.6600	45.4000
 1.6640	45.5000
 1.6680	45.5400
 1.6720	45.4800
 1.6760	45.3500
 1.6800	45.3200
 1.6840	45.3500
 1.6880	45.4300
 1.6920	45.5800
 1.6960	45.8000
 1.7000	46.1900
 1.7040	46.4800
 1.7080	46.6300
 1.7120	46.6800
 1.7160	46.7700
 1.7200	46.7400
 1.7240	46.7400
 1.7280	46.8600
 1.7320	46.9700
 1.7360	47.1600
 1.7400	47.3700
 1.7440	47.4200
 1.7480	47.4800
 1.7520	47.4300
 1.7560	47.4300
 1.7600	47.5400
 1.7640	47.6300
 1.7680	47.6900
 1.7720	47.8300
 1.7760	47.9100
 1.7800	47.9700
 1.7840	48.0200
 1.7880	48.0700
 1.7920	48.1600
 1.7960	48.1700
 1.8000	48.2000
 1.8040	48.1800
 1.8080	48.2800
 1.8120	48.3500
 1.8160	48.5400
 1.8200	48.5700
 1.8240	48.5700
 1.8280	48.5800
 1.8320	48.2600
 1.8360	47.7200
 1.8400	46.7800
 1.8440	45.7600
 1.8480	44.8400
 1.8520	44.3900
 1.8560	44.2700
 1.8600	44.0900
 1.8640	43.5600
 1.8680	42.5100
 1.8720	40.8700
 1.8760	38.7500
 1.8800	36.4500
 1.8840	33.9900
 1.8880	31.2700
 1.8920	28.6300
 1.8960	26.3000
 1.9000	24.4700
 1.9040	23.3300
 1.9080	22.6600
 1.9120	22.3900
 1.9160	22.4300
 1.9200	22.6200
 1.9240	22.8300
 1.9280	23.0900
 1.9320	23.2800
 1.9360	23.4700
 1.9400	23.7700
 1.9440	24.0700
 1.9480	24.3600
 1.9520	24.6100
 1.9560	24.9400
 1.9600	25.2300
 1.9640	25.4800
 1.9680	25.6000
 1.9720	25.6800
 1.9760	25.7400
 1.9800	25.9100
 1.9840	26.2200
 1.9880	26.7800
 1.9920	27.6800
 1.9960	28.8200
 2.0000	30.0500
 2.0040	31.2500
 2.0080	32.3300
 2.0120	33.2600
 2.0160	33.9900
 2.0200	34.6800
 2.0240	35.2700
 2.0280	35.8600
 2.0320	36.4300
 2.0360	37.0100
 2.0400	37.4200
 2.0440	37.7200
 2.0480	38.1600
 2.0520	38.4800
 2.0560	38.7600
 2.0600	39.0000
 2.0640	39.2000
 2.0680	39.4200
 2.0720	39.5500
 2.0760	39.8100
 2.0800	39.9100
 2.0840	40.0100
 2.0880	40.1000
 2.0920	40.1900
 2.0960	40.2800
 2.1000	40.4200
 2.1040	40.5200
 2.1080	40.6600
 2.1120	40.7200
 2.1160	40.6600
 2.1200	40.6500
 2.1240	40.4100
 2.1280	39.9500
 2.1320	39.2700
 2.1360	38.3900
 2.1400	37.2900
 2.1440	36.2700
 2.1480	35.2800
 2.1520	34.7300
 2.1560	34.5500
 2.1600	34.7900
 2.1640	35.3200
 2.1680	36.0300
 2.1720	36.4100
 2.1760	36.8200
 2.1800	36.9200
 2.1840	36.8200
 2.1880	36.6000
 2.1920	36.4300
 2.1960	36.1500
 2.2000	35.9800
 2.2040	35.8800
 2.2080	35.6300
 2.2120	35.4200
 2.2160	35.1400
 2.2200	34.7400
 2.2240	34.0600
 2.2280	33.3100
 2.2320	32.3100
 2.2360	31.2100
 2.2400	30.0900
 2.2440	29.2000
 2.2480	28.4600
 2.2520	27.8200
 2.2560	27.4500
 2.2600	27.3000
 2.2640	27.2400
 2.2680	27.3200
 2.2720	27.3800
 2.2760	27.3700
 2.2800	27.4900
 2.2840	27.5400
 2.2880	27.5200
 2.2920	27.4600
 2.2960	27.3100
 2.3000	27.0900
 2.3040	27.0500
 2.3080	26.6700
 2.3120	26.4300
 2.3160	26.2100
 2.3200	25.9500
 2.3240	25.6200
 2.3280	25.4400
 2.3320	25.1500
 2.3360	25.1200
 2.3400	25.0800
 2.3440	25.1200
 2.3480	25.2400
 2.3520	25.2800
 2.3560	25.2400
 2.3600	25.0700
 2.3640	25.0200
 2.3680	24.8100
 2.3720	24.6500
 2.3760	24.4600
 2.3800	24.3700
 2.3840	24.1700
 2.3880	24.0200
 2.3920	23.9100
 2.3960	23.8400
 2.4000	23.7800
 2.4040	23.7100
 2.4080	23.6200
 2.4120	23.5200
 2.4160	23.3800
 2.4200	23.3200
 2.4240	23.1500
 2.4280	22.7500
 2.4320	22.3200
 2.4360	21.7000
 2.4400	20.9900
 2.4440	20.3600
 2.4480	19.6100
 2.4520	18.9100
 2.4560	18.3300
 2.4600	17.8800
 2.4640	17.6100
 2.4680	17.4800
 2.4720	17.5000
 2.4760	17.6300
 2.4800	17.9000
 2.4840	18.1000
 2.4880	18.3400
 2.4920	18.4800
 2.4960	18.5200
 2.5000	18.5700
