Name: Kaolinite Al_2Si_2O_5(OH)_4
Type: Mineral
Class: Silicate
Subclass: Phyllosilicate
Particle Size: Fine
Sample No.: PS-1B
Owner: JPL
Wavelength Range: VSWIR
Origin: USA, Georgia, Warren County
Collection Date: N/A
Description: Disordered kaolinite. Particle size was 0-45um.Collected by Clay Mineral Society Original ASTER Spectral Library name was jpl.beckman.mineral.silicate.phyllosilicate.fine.ps01b.spectrum.txt
Measurement: Hemispherical reflectance
First Column: X
Second Column: Y
X Units: Wavelength (micrometers)
Y Units:Reflectance (percent)
First X Value:  0.4000
Last X Value:  2.5000
Number of X Values: 826
Additional Information: mineral.silicate.phyllosilicate.fine.vswir.ps-1b.jpl.beckman.ancillary.txt

 0.4000	58.2700
 0.4010	58.4900
 0.4020	58.6200
 0.4030	58.7500
 0.4040	59.0900
 0.4050	59.3600
 0.4060	59.6400
 0.4070	59.7800
 0.4080	59.9200
 0.4090	60.2900
 0.4100	60.3600
 0.4110	60.6600
 0.4120	60.7900
 0.4130	61.0000
 0.4140	61.2600
 0.4150	61.3200
 0.4160	61.7000
 0.4170	61.9300
 0.4180	62.0500
 0.4190	62.3000
 0.4200	62.4400
 0.4210	62.8000
 0.4220	62.8800
 0.4230	63.1200
 0.4240	63.3900
 0.4250	63.6100
 0.4260	63.8300
 0.4270	64.1100
 0.4280	64.3700
 0.4290	64.6400
 0.4300	64.7400
 0.4310	65.0800
 0.4320	65.3400
 0.4330	65.6000
 0.4340	65.9000
 0.4350	66.1400
 0.4360	66.3000
 0.4370	66.6000
 0.4380	66.8500
 0.4390	67.1500
 0.4400	67.3400
 0.4410	67.4600
 0.4420	67.8400
 0.4430	67.9800
 0.4440	68.2400
 0.4450	68.3400
 0.4460	68.5200
 0.4470	68.7600
 0.4480	68.7100
 0.4490	69.0000
 0.4500	69.1200
 0.4510	69.1400
 0.4520	69.3200
 0.4530	69.3900
 0.4540	69.5700
 0.4550	69.8200
 0.4560	69.8100
 0.4570	70.0300
 0.4580	70.0400
 0.4590	70.1700
 0.4600	70.1900
 0.4610	70.3900
 0.4620	70.3900
 0.4630	70.5000
 0.4640	70.5000
 0.4650	70.8100
 0.4660	70.8700
 0.4670	70.9200
 0.4680	71.0900
 0.4690	71.1800
 0.4700	71.3300
 0.4710	71.4900
 0.4720	71.4400
 0.4730	71.6300
 0.4740	71.7900
 0.4750	71.8800
 0.4760	71.9300
 0.4770	72.0200
 0.4780	72.1800
 0.4790	72.2200
 0.4800	72.4400
 0.4810	72.5700
 0.4820	72.6500
 0.4830	72.7000
 0.4840	72.7800
 0.4850	73.0000
 0.4860	73.1500
 0.4870	73.2600
 0.4880	73.4600
 0.4890	73.5500
 0.4900	73.7200
 0.4910	73.8500
 0.4920	73.9600
 0.4930	74.1300
 0.4940	74.2700
 0.4950	74.5300
 0.4960	74.6800
 0.4970	74.8200
 0.4980	75.0400
 0.4990	75.1900
 0.5000	75.3700
 0.5010	75.5600
 0.5020	75.6500
 0.5030	75.7900
 0.5040	75.9400
 0.5050	76.2600
 0.5060	76.5100
 0.5070	76.5700
 0.5080	76.8400
 0.5090	76.9600
 0.5100	77.1800
 0.5110	77.3900
 0.5120	77.5000
 0.5130	77.6400
 0.5140	77.9100
 0.5150	78.2300
 0.5160	78.4100
 0.5170	78.5100
 0.5180	78.7000
 0.5190	78.8000
 0.5200	78.9700
 0.5210	79.1900
 0.5220	79.3300
 0.5230	79.5800
 0.5240	79.7000
 0.5250	79.9000
 0.5260	80.1700
 0.5270	80.2800
 0.5280	80.3500
 0.5290	80.4600
 0.5300	80.7200
 0.5310	80.9300
 0.5320	81.0100
 0.5330	81.2500
 0.5340	81.2200
 0.5350	81.3800
 0.5360	81.7700
 0.5370	81.7800
 0.5380	82.0700
 0.5390	82.1900
 0.5400	82.3200
 0.5410	82.5100
 0.5420	82.5300
 0.5430	82.7200
 0.5440	82.8600
 0.5450	82.9400
 0.5460	83.1900
 0.5470	83.2700
 0.5480	83.4600
 0.5490	83.4800
 0.5500	83.5000
 0.5510	83.7400
 0.5520	83.9200
 0.5530	84.0900
 0.5540	84.1000
 0.5550	84.2600
 0.5560	84.4700
 0.5570	84.4700
 0.5580	84.6400
 0.5590	84.5400
 0.5600	84.6500
 0.5610	85.2400
 0.5620	85.3700
 0.5630	85.5000
 0.5640	85.5700
 0.5650	85.5500
 0.5660	85.7300
 0.5670	85.8000
 0.5680	85.7800
 0.5690	85.9600
 0.5700	85.9500
 0.5710	86.0200
 0.5720	86.0700
 0.5730	86.0200
 0.5740	86.1100
 0.5750	86.1100
 0.5760	86.1900
 0.5770	86.4100
 0.5780	86.3500
 0.5790	86.5200
 0.5800	86.3900
 0.5810	86.4500
 0.5820	86.5100
 0.5830	86.5800
 0.5840	86.7100
 0.5850	86.7200
 0.5860	86.7100
 0.5870	86.8700
 0.5880	86.8100
 0.5890	87.0300
 0.5900	86.9300
 0.5910	87.0400
 0.5920	87.0400
 0.5930	87.1600
 0.5940	87.2900
 0.5950	87.3600
 0.5960	87.3000
 0.5970	87.3000
 0.5980	87.3700
 0.5990	87.5300
 0.6000	87.5800
 0.6010	87.5600
 0.6020	87.6000
 0.6030	87.6700
 0.6040	87.6800
 0.6050	87.7500
 0.6060	87.7100
 0.6070	87.7000
 0.6080	87.8300
 0.6090	87.9600
 0.6100	87.9500
 0.6110	87.9000
 0.6120	87.9500
 0.6130	87.9400
 0.6140	88.0400
 0.6150	87.9900
 0.6160	88.0000
 0.6170	88.1300
 0.6180	88.0200
 0.6190	88.0700
 0.6200	88.1200
 0.6210	88.0200
 0.6220	88.1900
 0.6230	88.1300
 0.6240	88.1800
 0.6250	88.2300
 0.6260	88.2200
 0.6270	88.2900
 0.6280	88.1900
 0.6290	88.1900
 0.6300	88.3600
 0.6310	88.3600
 0.6320	88.4200
 0.6330	88.3100
 0.6340	88.2400
 0.6350	88.4100
 0.6360	88.3400
 0.6370	88.4500
 0.6380	88.3400
 0.6390	88.4100
 0.6400	88.4100
 0.6410	88.3600
 0.6420	88.5400
 0.6430	88.5300
 0.6440	88.4800
 0.6450	88.3600
 0.6460	88.3100
 0.6470	88.6000
 0.6480	88.5900
 0.6490	88.5200
 0.6500	88.5800
 0.6510	88.4700
 0.6520	88.6300
 0.6530	88.7500
 0.6540	88.7000
 0.6550	88.7500
 0.6560	88.6800
 0.6570	88.7000
 0.6580	88.7500
 0.6590	88.7600
 0.6600	88.8100
 0.6610	88.8100
 0.6620	88.8000
 0.6630	88.9100
 0.6640	88.8500
 0.6650	88.9700
 0.6660	88.8700
 0.6670	88.8700
 0.6680	88.8700
 0.6690	88.9300
 0.6700	88.9900
 0.6710	88.8700
 0.6720	88.8100
 0.6730	88.8700
 0.6740	88.9200
 0.6750	89.0200
 0.6760	89.0800
 0.6770	89.0900
 0.6780	89.0400
 0.6790	88.9900
 0.6800	88.9900
 0.6810	89.1000
 0.6820	89.0500
 0.6830	89.1000
 0.6840	89.1100
 0.6850	89.1000
 0.6860	89.1600
 0.6870	89.1500
 0.6880	89.1500
 0.6890	89.0900
 0.6900	89.1000
 0.6910	89.0500
 0.6920	89.1000
 0.6930	89.3300
 0.6940	89.2700
 0.6950	89.1500
 0.6960	89.1600
 0.6970	89.2700
 0.6980	89.3500
 0.6990	89.3600
 0.7000	89.2800
 0.7010	89.3900
 0.7020	89.4600
 0.7030	89.2900
 0.7040	89.4600
 0.7050	89.5100
 0.7060	89.4400
 0.7070	89.4400
 0.7080	89.4400
 0.7090	89.5100
 0.7100	89.4100
 0.7110	89.5700
 0.7120	89.6300
 0.7130	89.6300
 0.7140	89.6300
 0.7150	89.5700
 0.7160	89.6800
 0.7170	89.7900
 0.7180	89.6700
 0.7190	89.7300
 0.7200	89.7400
 0.7210	89.6900
 0.7220	89.8000
 0.7230	89.7400
 0.7240	89.8000
 0.7250	89.7500
 0.7260	89.8100
 0.7270	89.9200
 0.7280	89.7900
 0.7290	89.8500
 0.7300	89.9200
 0.7310	89.9200
 0.7320	89.9800
 0.7330	89.7500
 0.7340	89.8600
 0.7350	89.9200
 0.7360	89.9200
 0.7370	89.9800
 0.7380	89.9100
 0.7390	89.9100
 0.7400	89.8000
 0.7410	89.8000
 0.7420	89.9200
 0.7430	89.9800
 0.7440	90.0400
 0.7450	89.9900
 0.7460	90.0400
 0.7470	90.0900
 0.7480	90.1400
 0.7490	90.0400
 0.7500	90.0500
 0.7510	90.1100
 0.7520	90.2800
 0.7530	90.2100
 0.7540	90.1000
 0.7550	90.1600
 0.7560	90.1000
 0.7570	90.2000
 0.7580	90.2700
 0.7590	90.2700
 0.7600	90.2200
 0.7610	90.0900
 0.7620	90.1600
 0.7630	90.1000
 0.7640	90.2800
 0.7650	90.2700
 0.7660	90.1500
 0.7670	90.3100
 0.7680	90.2100
 0.7690	90.3200
 0.7700	90.3200
 0.7710	90.2100
 0.7720	90.3200
 0.7730	90.3200
 0.7740	90.3200
 0.7750	90.3700
 0.7760	90.3100
 0.7770	90.4300
 0.7780	90.3300
 0.7790	90.2700
 0.7800	90.4400
 0.7810	90.3800
 0.7820	90.2800
 0.7830	90.3800
 0.7840	90.3800
 0.7850	90.4400
 0.7860	90.5000
 0.7870	90.5000
 0.7880	90.4500
 0.7890	90.4400
 0.7900	90.5600
 0.7910	90.5600
 0.7920	90.5000
 0.7930	90.5500
 0.7940	90.5500
 0.7950	90.6100
 0.7960	90.4900
 0.7970	90.5400
 0.7980	90.5800
 0.7990	90.5700
 0.8000	90.7000
 0.8040	90.7500
 0.8080	90.7900
 0.8120	90.7400
 0.8160	90.7400
 0.8200	90.7300
 0.8240	90.7900
 0.8280	90.7300
 0.8320	90.8000
 0.8360	90.9100
 0.8400	90.9000
 0.8440	91.0200
 0.8480	90.9600
 0.8520	91.0200
 0.8560	91.1300
 0.8600	91.0800
 0.8640	91.0800
 0.8680	91.1300
 0.8720	91.0100
 0.8760	91.0100
 0.8800	91.0100
 0.8840	90.9500
 0.8880	90.9500
 0.8920	91.0200
 0.8960	90.9500
 0.9000	90.8300
 0.9040	90.8400
 0.9080	90.7700
 0.9120	90.7700
 0.9160	90.7700
 0.9200	90.7800
 0.9240	90.7700
 0.9280	90.7100
 0.9320	90.7100
 0.9360	90.6400
 0.9400	90.5300
 0.9440	90.5200
 0.9480	90.5200
 0.9520	90.4700
 0.9560	90.4000
 0.9600	90.2400
 0.9640	90.2500
 0.9680	90.7600
 0.9720	91.1200
 0.9760	91.0700
 0.9800	91.3100
 0.9840	91.4300
 0.9880	91.3700
 0.9920	91.4500
 0.9960	91.4800
 1.0000	91.4900
 1.0040	91.5500
 1.0080	91.6100
 1.0120	91.6000
 1.0160	91.6700
 1.0200	91.7900
 1.0240	91.7300
 1.0280	91.8500
 1.0320	91.8500
 1.0360	92.0200
 1.0400	92.0200
 1.0440	92.0800
 1.0480	92.0200
 1.0520	92.0900
 1.0560	92.0900
 1.0600	92.0300
 1.0640	92.2600
 1.0680	92.1500
 1.0720	92.2200
 1.0760	92.2300
 1.0800	92.2400
 1.0840	92.3700
 1.0880	92.3100
 1.0920	92.4300
 1.0960	92.3700
 1.1000	92.4300
 1.1040	92.4800
 1.1080	92.5500
 1.1120	92.6000
 1.1160	92.6500
 1.1200	92.7000
 1.1240	92.7100
 1.1280	92.8200
 1.1320	92.8800
 1.1360	92.8800
 1.1400	92.8100
 1.1440	92.8600
 1.1480	92.8600
 1.1520	92.8000
 1.1560	92.8500
 1.1600	92.7900
 1.1640	92.8400
 1.1680	92.8300
 1.1720	92.8300
 1.1760	92.8700
 1.1800	92.8100
 1.1840	92.6800
 1.1880	92.7300
 1.1920	92.6700
 1.1960	92.6600
 1.2000	92.7100
 1.2040	92.5900
 1.2080	92.5900
 1.2120	92.5300
 1.2160	92.3600
 1.2200	92.3600
 1.2240	92.0100
 1.2280	91.7800
 1.2320	91.6700
 1.2360	91.5600
 1.2400	91.6800
 1.2440	91.8100
 1.2480	91.9300
 1.2520	91.9300
 1.2560	92.0400
 1.2600	92.0800
 1.2640	92.0700
 1.2680	91.9600
 1.2720	91.9000
 1.2760	91.7200
 1.2800	91.3500
 1.2840	90.9300
 1.2880	90.5300
 1.2920	90.1900
 1.2960	89.7200
 1.3000	89.3600
 1.3040	89.0100
 1.3080	88.9500
 1.3120	88.7800
 1.3160	88.6000
 1.3200	88.3400
 1.3240	88.1500
 1.3280	88.0300
 1.3320	87.9800
 1.3360	87.8600
 1.3400	87.7000
 1.3440	87.0500
 1.3480	85.9100
 1.3520	85.1300
 1.3560	84.7600
 1.3600	84.6800
 1.3640	84.3600
 1.3680	83.4100
 1.3720	81.9400
 1.3760	79.7600
 1.3800	77.5800
 1.3840	75.3900
 1.3880	73.8700
 1.3920	73.5400
 1.3960	74.2300
 1.4000	74.8300
 1.4040	73.9900
 1.4080	70.4200
 1.4120	70.4000
 1.4160	77.0100
 1.4200	82.6400
 1.4240	85.1100
 1.4280	86.6500
 1.4320	87.5000
 1.4360	88.0100
 1.4400	88.4400
 1.4440	88.7200
 1.4480	88.9700
 1.4520	89.1900
 1.4560	89.4300
 1.4600	89.6100
 1.4640	89.7300
 1.4680	89.9300
 1.4720	89.9400
 1.4760	90.0500
 1.4800	90.2100
 1.4840	90.2200
 1.4880	90.1600
 1.4920	90.1500
 1.4960	90.2800
 1.5000	90.5600
 1.5040	90.8600
 1.5080	90.9800
 1.5120	90.9900
 1.5160	91.1100
 1.5200	91.1200
 1.5240	91.1500
 1.5280	91.1500
 1.5320	91.2100
 1.5360	91.2000
 1.5400	91.2700
 1.5440	91.2600
 1.5480	91.2700
 1.5520	91.2700
 1.5560	91.2100
 1.5600	91.2100
 1.5640	91.2200
 1.5680	91.3300
 1.5720	91.3300
 1.5760	91.3200
 1.5800	91.2600
 1.5840	91.2600
 1.5880	91.3200
 1.5920	91.3800
 1.5960	91.3300
 1.6000	91.4400
 1.6040	91.4400
 1.6080	91.4300
 1.6120	91.4900
 1.6160	91.4100
 1.6200	91.4200
 1.6240	91.4000
 1.6280	91.4000
 1.6320	91.3300
 1.6360	91.3800
 1.6400	91.3200
 1.6440	91.3100
 1.6480	91.3000
 1.6520	91.1900
 1.6560	91.1700
 1.6600	91.1600
 1.6640	91.2000
 1.6680	91.1400
 1.6720	91.0900
 1.6760	91.0900
 1.6800	91.0200
 1.6840	91.0700
 1.6880	91.0000
 1.6920	91.0000
 1.6960	90.8800
 1.7000	90.8700
 1.7040	90.9100
 1.7080	90.8000
 1.7120	90.7500
 1.7160	90.6400
 1.7200	90.5300
 1.7240	90.4200
 1.7280	90.2400
 1.7320	90.1800
 1.7360	90.0700
 1.7400	90.0000
 1.7440	89.8400
 1.7480	89.7200
 1.7520	89.6600
 1.7560	89.4900
 1.7600	89.4300
 1.7640	89.3100
 1.7680	89.1300
 1.7720	88.9600
 1.7760	88.7300
 1.7800	88.4000
 1.7840	88.2200
 1.7880	88.0700
 1.7920	87.9400
 1.7960	87.7900
 1.8000	87.7800
 1.8040	87.6800
 1.8080	87.5400
 1.8120	87.4100
 1.8160	87.3300
 1.8200	87.2300
 1.8240	87.2600
 1.8280	87.2500
 1.8320	87.1500
 1.8360	87.0500
 1.8400	87.0100
 1.8440	87.1900
 1.8480	87.2400
 1.8520	87.5300
 1.8560	87.5400
 1.8600	87.3100
 1.8640	86.9400
 1.8680	86.3600
 1.8720	85.6500
 1.8760	85.0400
 1.8800	84.4400
 1.8840	83.9600
 1.8880	83.4700
 1.8920	83.0100
 1.8960	82.4400
 1.9000	81.9700
 1.9040	81.4400
 1.9080	81.2400
 1.9120	80.9100
 1.9160	80.9200
 1.9200	80.8900
 1.9240	80.9500
 1.9280	80.9700
 1.9320	81.0900
 1.9360	81.0800
 1.9400	81.1700
 1.9440	81.3200
 1.9480	81.3500
 1.9520	81.4600
 1.9560	81.5400
 1.9600	81.6700
 1.9640	81.7400
 1.9680	81.8700
 1.9720	81.9900
 1.9760	82.0400
 1.9800	82.2100
 1.9840	82.3100
 1.9880	82.3900
 1.9920	82.3800
 1.9960	82.5000
 2.0000	82.5100
 2.0040	82.4800
 2.0080	82.4400
 2.0120	82.3500
 2.0160	82.3900
 2.0200	82.3900
 2.0240	82.3500
 2.0280	82.1600
 2.0320	82.1400
 2.0360	82.0000
 2.0400	81.7600
 2.0440	81.6300
 2.0480	81.4900
 2.0520	81.1500
 2.0560	80.9500
 2.0600	80.6300
 2.0640	80.2700
 2.0680	80.0200
 2.0720	79.7600
 2.0760	79.2700
 2.0800	78.9400
 2.0840	78.5900
 2.0880	78.2800
 2.0920	77.8800
 2.0960	77.5200
 2.1000	77.0900
 2.1040	76.6000
 2.1080	76.1300
 2.1120	75.6600
 2.1160	75.1900
 2.1200	74.6900
 2.1240	73.9200
 2.1280	72.9300
 2.1320	71.4600
 2.1360	69.5200
 2.1400	67.3000
 2.1440	64.8800
 2.1480	62.6700
 2.1520	60.8200
 2.1560	59.3400
 2.1600	58.4700
 2.1640	57.9100
 2.1680	57.5800
 2.1720	57.5300
 2.1760	57.2700
 2.1800	56.9600
 2.1840	56.3600
 2.1880	55.2200
 2.1920	53.9000
 2.1960	52.7800
 2.2000	51.9800
 2.2040	52.1900
 2.2080	53.7000
 2.2120	56.2100
 2.2160	59.1400
 2.2200	61.8600
 2.2240	64.1200
 2.2280	65.6900
 2.2320	66.4500
 2.2360	66.7800
 2.2400	66.9900
 2.2440	67.1000
 2.2480	67.0700
 2.2520	67.0100
 2.2560	66.8200
 2.2600	66.5100
 2.2640	66.1300
 2.2680	65.7700
 2.2720	65.2900
 2.2760	64.8400
 2.2800	64.3000
 2.2840	63.7800
 2.2880	63.2000
 2.2920	62.4900
 2.2960	61.8000
 2.3000	61.2000
 2.3040	60.4900
 2.3080	59.9100
 2.3120	59.4800
 2.3160	59.3200
 2.3200	59.1100
 2.3240	59.0000
 2.3280	58.8200
 2.3320	58.6600
 2.3360	58.3400
 2.3400	57.9500
 2.3440	57.3800
 2.3480	56.8800
 2.3520	56.3300
 2.3560	55.9100
 2.3600	55.5400
 2.3640	55.0800
 2.3680	54.6700
 2.3720	54.2500
 2.3760	53.8400
 2.3800	53.6400
 2.3840	53.6200
 2.3880	53.8400
 2.3920	54.0400
 2.3960	54.2500
 2.4000	54.5200
 2.4040	54.5900
 2.4080	54.5100
 2.4120	54.2800
 2.4160	53.8700
 2.4200	53.3700
 2.4240	52.7700
 2.4280	52.1400
 2.4320	51.4900
 2.4360	50.8500
 2.4400	50.3100
 2.4440	49.7800
 2.4480	49.3200
 2.4520	48.8300
 2.4560	48.3200
 2.4600	47.9300
 2.4640	47.5300
 2.4680	47.1600
 2.4720	46.7700
 2.4760	46.3500
 2.4800	45.9800
 2.4840	45.7100
 2.4880	45.4000
 2.4920	45.0900
 2.4960	44.8200
 2.5000	44.5300
