Name: Azurite Cu_3(CO_3)_2(OH)_2
Type: Mineral
Class: Carbonate
Subclass: None
Particle Size: Medium
Sample No.: C-12A
Owner: JPL
Wavelength Range: VSWIR
Origin: USA, California, San Bernadino County, Near Valley Wells
Collection Date: N/A
Description: Particle size was 45-125um.Collected by Burminco Original ASTER Spectral Library name was jpl.beckman.mineral.carbonate.none.medium.c12a.spectrum.txt
Measurement: Hemispherical reflectance
First Column: X
Second Column: Y
X Units: Wavelength (micrometers)
Y Units:Reflectance (percent)
First X Value:  0.4000
Last X Value:  2.5000
Number of X Values: 826
Additional Information: mineral.carbonate.none.medium.vswir.c-12a.jpl.beckman.ancillary.txt

 0.4000	10.6000
 0.4010	10.7100
 0.4020	10.8400
 0.4030	11.1300
 0.4040	11.4200
 0.4050	11.6100
 0.4060	11.7800
 0.4070	12.0000
 0.4080	12.3600
 0.4090	12.6900
 0.4100	12.9200
 0.4110	13.1400
 0.4120	13.2700
 0.4130	13.6200
 0.4140	13.9200
 0.4150	14.0200
 0.4160	14.1000
 0.4170	14.1700
 0.4180	14.4200
 0.4190	14.7100
 0.4200	14.8600
 0.4210	15.2600
 0.4220	15.3900
 0.4230	15.5900
 0.4240	15.7700
 0.4250	15.9200
 0.4260	16.1300
 0.4270	16.1800
 0.4280	16.2500
 0.4290	16.5100
 0.4300	16.7000
 0.4310	16.8900
 0.4320	17.0100
 0.4330	17.1900
 0.4340	17.5300
 0.4350	17.7600
 0.4360	18.0300
 0.4370	18.1400
 0.4380	18.2300
 0.4390	18.4700
 0.4400	18.6800
 0.4410	18.9300
 0.4420	18.9300
 0.4430	19.1400
 0.4440	19.4600
 0.4450	19.5800
 0.4460	19.8500
 0.4470	19.9000
 0.4480	20.0200
 0.4490	20.2800
 0.4500	20.4000
 0.4510	20.6100
 0.4520	20.6100
 0.4530	20.7000
 0.4540	21.0500
 0.4550	21.1800
 0.4560	21.3600
 0.4570	21.4000
 0.4580	21.3700
 0.4590	21.5400
 0.4600	21.5300
 0.4610	21.8200
 0.4620	21.8800
 0.4630	22.0400
 0.4640	22.2100
 0.4650	22.3700
 0.4660	22.2500
 0.4670	22.3100
 0.4680	22.4400
 0.4690	22.6100
 0.4700	22.6700
 0.4710	22.7100
 0.4720	22.7400
 0.4730	22.8800
 0.4740	23.0000
 0.4750	23.2700
 0.4760	23.1800
 0.4770	23.2500
 0.4780	23.3100
 0.4790	23.4800
 0.4800	23.6000
 0.4810	23.6000
 0.4820	23.6900
 0.4830	23.7800
 0.4840	23.9300
 0.4850	24.0500
 0.4860	24.0400
 0.4870	24.0600
 0.4880	24.1500
 0.4890	24.2800
 0.4900	24.5000
 0.4910	24.4900
 0.4920	24.6300
 0.4930	24.6300
 0.4940	24.8200
 0.4950	25.0400
 0.4960	25.0900
 0.4970	25.1800
 0.4980	25.2600
 0.4990	25.4200
 0.5000	25.5100
 0.5010	25.4900
 0.5020	25.5400
 0.5030	25.6400
 0.5040	25.7300
 0.5050	25.7900
 0.5060	25.8600
 0.5070	25.8800
 0.5080	25.9200
 0.5090	25.9600
 0.5100	26.0300
 0.5110	26.0900
 0.5120	26.1900
 0.5130	26.2600
 0.5140	26.2600
 0.5150	26.4200
 0.5160	26.3800
 0.5170	26.4500
 0.5180	26.5000
 0.5190	26.4600
 0.5200	26.5500
 0.5210	26.4900
 0.5220	26.5100
 0.5230	26.4800
 0.5240	26.3300
 0.5250	26.3300
 0.5260	26.3600
 0.5270	26.3500
 0.5280	26.3000
 0.5290	26.0900
 0.5300	26.1100
 0.5310	26.0600
 0.5320	26.0300
 0.5330	25.9100
 0.5340	25.8700
 0.5350	25.8500
 0.5360	25.7200
 0.5370	25.7400
 0.5380	25.6300
 0.5390	25.6100
 0.5400	25.5500
 0.5410	25.3800
 0.5420	25.3100
 0.5430	25.2000
 0.5440	25.0500
 0.5450	25.0200
 0.5460	24.7900
 0.5470	24.7500
 0.5480	24.5200
 0.5490	24.3600
 0.5500	24.3100
 0.5510	24.1200
 0.5520	23.9800
 0.5530	23.7400
 0.5540	23.5500
 0.5550	23.5000
 0.5560	23.3100
 0.5570	23.0300
 0.5580	22.8800
 0.5590	22.8400
 0.5600	23.0100
 0.5610	22.8000
 0.5620	22.5100
 0.5630	22.3200
 0.5640	22.0600
 0.5650	21.8400
 0.5660	21.4500
 0.5670	21.1900
 0.5680	21.1300
 0.5690	20.9000
 0.5700	20.7100
 0.5710	20.3700
 0.5720	20.0500
 0.5730	19.9200
 0.5740	19.6300
 0.5750	19.3700
 0.5760	19.0600
 0.5770	18.8200
 0.5780	18.6600
 0.5790	18.3600
 0.5800	18.2100
 0.5810	17.8000
 0.5820	17.4700
 0.5830	17.2700
 0.5840	16.9000
 0.5850	16.6300
 0.5860	16.2500
 0.5870	15.9300
 0.5880	15.8000
 0.5890	15.4600
 0.5900	15.3100
 0.5910	15.0000
 0.5920	14.7400
 0.5930	14.6600
 0.5940	14.3200
 0.5950	14.1600
 0.5960	13.9300
 0.5970	13.7100
 0.5980	13.4800
 0.5990	13.1700
 0.6000	13.1600
 0.6010	12.9500
 0.6020	12.6400
 0.6030	12.5000
 0.6040	12.2700
 0.6050	12.2700
 0.6060	12.2100
 0.6070	11.9400
 0.6080	11.7300
 0.6090	11.5200
 0.6100	11.4700
 0.6110	11.3200
 0.6120	10.8600
 0.6130	10.7500
 0.6140	10.5800
 0.6150	10.5900
 0.6160	10.4300
 0.6170	10.2100
 0.6180	10.2500
 0.6190	10.0700
 0.6200	10.0500
 0.6210	 9.9400
 0.6220	 9.7600
 0.6230	 9.7100
 0.6240	 9.4100
 0.6250	 9.3500
 0.6260	 9.3000
 0.6270	 9.0900
 0.6280	 8.9900
 0.6290	 8.8100
 0.6300	 8.8000
 0.6310	 8.7800
 0.6320	 8.5600
 0.6330	 8.4400
 0.6340	 8.3200
 0.6350	 8.1600
 0.6360	 8.1000
 0.6370	 7.9300
 0.6380	 7.8800
 0.6390	 7.7200
 0.6400	 7.6100
 0.6410	 7.6600
 0.6420	 7.5300
 0.6430	 7.4500
 0.6440	 7.2800
 0.6450	 7.1700
 0.6460	 7.1800
 0.6470	 7.0000
 0.6480	 7.0100
 0.6490	 6.9500
 0.6500	 6.8400
 0.6510	 6.8500
 0.6520	 6.6800
 0.6530	 6.7400
 0.6540	 6.6200
 0.6550	 6.4900
 0.6560	 6.4300
 0.6570	 6.3200
 0.6580	 6.4300
 0.6590	 6.3300
 0.6600	 6.2000
 0.6610	 6.2000
 0.6620	 6.0800
 0.6630	 6.1400
 0.6640	 6.1500
 0.6650	 5.9800
 0.6660	 5.9900
 0.6670	 5.8700
 0.6680	 5.9200
 0.6690	 5.8000
 0.6700	 5.6300
 0.6710	 5.4600
 0.6720	 5.3000
 0.6730	 5.4000
 0.6740	 5.2200
 0.6750	 5.0500
 0.6760	 5.0600
 0.6770	 4.9600
 0.6780	 4.9600
 0.6790	 4.9600
 0.6800	 4.8900
 0.6810	 4.8200
 0.6820	 4.7600
 0.6830	 4.8800
 0.6840	 4.7700
 0.6850	 4.7100
 0.6860	 4.7600
 0.6870	 4.6500
 0.6880	 4.6500
 0.6890	 4.6600
 0.6900	 4.6000
 0.6910	 4.6000
 0.6920	 4.4800
 0.6930	 4.5300
 0.6940	 4.5300
 0.6950	 4.4200
 0.6960	 4.4800
 0.6970	 4.3700
 0.6980	 4.3800
 0.6990	 4.4200
 0.7000	 4.3900
 0.7010	 4.3100
 0.7020	 4.3000
 0.7030	 4.2500
 0.7040	 4.1800
 0.7050	 4.3000
 0.7060	 4.2400
 0.7070	 4.2400
 0.7080	 4.2400
 0.7090	 4.2500
 0.7100	 4.2500
 0.7110	 4.3100
 0.7120	 4.4200
 0.7130	 4.4600
 0.7140	 4.3100
 0.7150	 4.4100
 0.7160	 4.4700
 0.7170	 4.4100
 0.7180	 4.3600
 0.7190	 4.4200
 0.7200	 4.4900
 0.7210	 4.3700
 0.7220	 4.3600
 0.7230	 4.5200
 0.7240	 4.5200
 0.7250	 4.5300
 0.7260	 4.4700
 0.7270	 4.4600
 0.7280	 4.5200
 0.7290	 4.5200
 0.7300	 4.6000
 0.7310	 4.5400
 0.7320	 4.4700
 0.7330	 4.5800
 0.7340	 4.5200
 0.7350	 4.5300
 0.7360	 4.4800
 0.7370	 4.4700
 0.7380	 4.5300
 0.7390	 4.4700
 0.7400	 4.5300
 0.7410	 4.5300
 0.7420	 4.4100
 0.7430	 4.5200
 0.7440	 4.4700
 0.7450	 4.4700
 0.7460	 4.4600
 0.7470	 4.4000
 0.7480	 4.4600
 0.7490	 4.4600
 0.7500	 4.4700
 0.7510	 4.3000
 0.7520	 4.1800
 0.7530	 4.2800
 0.7540	 4.2300
 0.7550	 4.1700
 0.7560	 4.1700
 0.7570	 4.0700
 0.7580	 4.0800
 0.7590	 4.0200
 0.7600	 4.1300
 0.7610	 4.1700
 0.7620	 4.1200
 0.7630	 4.0100
 0.7640	 4.0700
 0.7650	 4.1200
 0.7660	 4.1200
 0.7670	 4.0100
 0.7680	 4.1300
 0.7690	 4.1200
 0.7700	 4.0600
 0.7710	 4.0600
 0.7720	 4.1300
 0.7730	 4.1700
 0.7740	 4.1200
 0.7750	 4.1200
 0.7760	 4.1700
 0.7770	 4.1800
 0.7780	 4.1800
 0.7790	 4.1200
 0.7800	 4.1200
 0.7810	 4.2800
 0.7820	 4.2300
 0.7830	 4.2800
 0.7840	 4.2200
 0.7850	 4.2200
 0.7860	 4.3500
 0.7870	 4.2900
 0.7880	 4.2800
 0.7890	 4.3200
 0.7900	 4.2800
 0.7910	 4.3900
 0.7920	 4.3400
 0.7930	 4.3900
 0.7940	 4.3400
 0.7950	 4.3500
 0.7960	 4.4700
 0.7970	 4.6300
 0.7980	 4.6900
 0.7990	 4.6800
 0.8000	 4.8900
 0.8040	 4.8900
 0.8080	 4.9500
 0.8120	 5.0100
 0.8160	 5.0700
 0.8200	 5.0200
 0.8240	 5.0700
 0.8280	 5.1300
 0.8320	 5.2000
 0.8360	 5.2100
 0.8400	 5.3200
 0.8440	 5.4500
 0.8480	 5.4500
 0.8520	 5.5200
 0.8560	 5.5700
 0.8600	 5.6500
 0.8640	 5.7000
 0.8680	 5.8900
 0.8720	 5.8800
 0.8760	 5.9900
 0.8800	 6.1300
 0.8840	 6.1700
 0.8880	 6.2900
 0.8920	 6.4200
 0.8960	 6.5300
 0.9000	 6.6500
 0.9040	 6.7100
 0.9080	 6.9500
 0.9120	 7.0700
 0.9160	 7.2400
 0.9200	 7.4300
 0.9240	 7.5900
 0.9280	 7.7200
 0.9320	 7.9500
 0.9360	 8.1800
 0.9400	 8.3300
 0.9440	 8.5700
 0.9480	 8.8100
 0.9520	 8.9900
 0.9560	 9.1900
 0.9600	 9.4400
 0.9640	 9.5800
 0.9680	 9.9200
 0.9720	10.1700
 0.9760	10.4100
 0.9800	10.7000
 0.9840	10.9500
 0.9880	11.1900
 0.9920	11.4400
 0.9960	11.6500
 1.0000	11.9100
 1.0040	12.2000
 1.0080	12.4100
 1.0120	12.7300
 1.0160	12.8900
 1.0200	13.1600
 1.0240	13.4000
 1.0280	13.6900
 1.0320	13.9200
 1.0360	14.2200
 1.0400	14.4600
 1.0440	14.6300
 1.0480	14.9000
 1.0520	15.1600
 1.0560	15.3200
 1.0600	15.6600
 1.0640	15.7400
 1.0680	16.0800
 1.0720	16.2600
 1.0760	16.4600
 1.0800	16.6100
 1.0840	16.8200
 1.0880	16.9400
 1.0920	17.2000
 1.0960	17.3600
 1.1000	17.5500
 1.1040	17.6600
 1.1080	17.9700
 1.1120	18.0900
 1.1160	18.2200
 1.1200	18.4400
 1.1240	18.5800
 1.1280	18.7300
 1.1320	18.8900
 1.1360	19.0200
 1.1400	19.1000
 1.1440	19.2700
 1.1480	19.4800
 1.1520	19.6400
 1.1560	19.7500
 1.1600	19.9200
 1.1640	20.0200
 1.1680	20.1900
 1.1720	20.2900
 1.1760	20.5000
 1.1800	20.6200
 1.1840	20.7800
 1.1880	20.9600
 1.1920	21.1500
 1.1960	21.2500
 1.2000	21.4100
 1.2040	21.5600
 1.2080	21.7000
 1.2120	21.8000
 1.2160	21.9700
 1.2200	22.1600
 1.2240	22.3300
 1.2280	22.4900
 1.2320	22.5100
 1.2360	22.7200
 1.2400	22.8400
 1.2440	23.0700
 1.2480	23.1500
 1.2520	23.2900
 1.2560	23.5000
 1.2600	23.6300
 1.2640	23.7600
 1.2680	23.9600
 1.2720	24.1300
 1.2760	24.2800
 1.2800	24.3900
 1.2840	24.5600
 1.2880	24.7500
 1.2920	24.8700
 1.2960	24.9800
 1.3000	25.1100
 1.3040	25.2500
 1.3080	25.4000
 1.3120	25.5500
 1.3160	25.6800
 1.3200	25.7800
 1.3240	25.9800
 1.3280	26.1000
 1.3320	26.2000
 1.3360	26.3200
 1.3400	26.4900
 1.3440	26.6200
 1.3480	26.7100
 1.3520	26.9000
 1.3560	26.9800
 1.3600	27.0900
 1.3640	27.1700
 1.3680	27.2100
 1.3720	27.1600
 1.3760	27.1100
 1.3800	27.0400
 1.3840	26.9100
 1.3880	26.7700
 1.3920	26.3200
 1.3960	25.8000
 1.4000	24.9200
 1.4040	23.9400
 1.4080	23.2400
 1.4120	23.4500
 1.4160	24.1600
 1.4200	24.9400
 1.4240	25.4900
 1.4280	25.9400
 1.4320	26.3200
 1.4360	26.6800
 1.4400	26.9700
 1.4440	27.2100
 1.4480	27.4600
 1.4520	27.5600
 1.4560	27.8000
 1.4600	27.9000
 1.4640	28.0700
 1.4680	28.2800
 1.4720	28.5200
 1.4760	28.6300
 1.4800	28.8200
 1.4840	28.8900
 1.4880	29.0900
 1.4920	29.2500
 1.4960	29.4900
 1.5000	29.8300
 1.5040	30.4000
 1.5080	30.8500
 1.5120	31.2400
 1.5160	31.5500
 1.5200	31.8700
 1.5240	32.1600
 1.5280	32.4100
 1.5320	32.7600
 1.5360	32.9800
 1.5400	33.2300
 1.5440	33.5100
 1.5480	33.7900
 1.5520	34.0300
 1.5560	34.2300
 1.5600	34.5200
 1.5640	34.8000
 1.5680	35.0500
 1.5720	35.2400
 1.5760	35.4200
 1.5800	35.6400
 1.5840	35.9400
 1.5880	36.0200
 1.5920	36.3000
 1.5960	36.5600
 1.6000	36.7900
 1.6040	36.9500
 1.6080	37.1700
 1.6120	37.4400
 1.6160	37.6000
 1.6200	37.8800
 1.6240	38.1400
 1.6280	38.3100
 1.6320	38.6200
 1.6360	38.8400
 1.6400	39.0400
 1.6440	39.2600
 1.6480	39.4900
 1.6520	39.7000
 1.6560	39.8800
 1.6600	40.0900
 1.6640	40.3600
 1.6680	40.4300
 1.6720	40.5700
 1.6760	40.4800
 1.6800	40.6100
 1.6840	40.7600
 1.6880	40.8900
 1.6920	41.1300
 1.6960	41.3700
 1.7000	41.5600
 1.7040	41.8300
 1.7080	41.9600
 1.7120	42.1000
 1.7160	42.2000
 1.7200	42.2600
 1.7240	42.3300
 1.7280	42.4500
 1.7320	42.5700
 1.7360	42.8300
 1.7400	42.9300
 1.7440	43.1000
 1.7480	43.2700
 1.7520	43.3300
 1.7560	43.3800
 1.7600	43.6100
 1.7640	43.7000
 1.7680	43.8700
 1.7720	44.0100
 1.7760	44.1200
 1.7800	44.2500
 1.7840	44.3900
 1.7880	44.4700
 1.7920	44.5900
 1.7960	44.7600
 1.8000	44.8700
 1.8040	44.9700
 1.8080	45.1600
 1.8120	45.2100
 1.8160	45.4200
 1.8200	45.4300
 1.8240	45.5900
 1.8280	45.6100
 1.8320	45.6700
 1.8360	45.6500
 1.8400	45.6400
 1.8440	45.5900
 1.8480	45.6100
 1.8520	45.3800
 1.8560	45.1100
 1.8600	44.5800
 1.8640	43.7700
 1.8680	42.6300
 1.8720	41.1600
 1.8760	39.5400
 1.8800	37.6200
 1.8840	35.4300
 1.8880	32.9800
 1.8920	30.5500
 1.8960	28.3600
 1.9000	26.5700
 1.9040	25.3100
 1.9080	24.7300
 1.9120	24.6300
 1.9160	24.8600
 1.9200	25.2900
 1.9240	25.8000
 1.9280	26.3200
 1.9320	26.7700
 1.9360	27.2500
 1.9400	27.6900
 1.9440	28.1900
 1.9480	28.6200
 1.9520	29.0200
 1.9560	29.4200
 1.9600	29.8800
 1.9640	30.3100
 1.9680	30.7700
 1.9720	31.2100
 1.9760	31.7600
 1.9800	32.3000
 1.9840	32.8200
 1.9880	33.4000
 1.9920	33.8600
 1.9960	34.4200
 2.0000	34.9500
 2.0040	35.3300
 2.0080	35.7500
 2.0120	36.1200
 2.0160	36.5600
 2.0200	36.8700
 2.0240	37.2400
 2.0280	37.5600
 2.0320	37.9000
 2.0360	38.1100
 2.0400	38.4500
 2.0440	38.7100
 2.0480	38.9500
 2.0520	39.2500
 2.0560	39.5300
 2.0600	39.8200
 2.0640	40.1400
 2.0680	40.4500
 2.0720	40.6900
 2.0760	40.8900
 2.0800	41.2000
 2.0840	41.3200
 2.0880	41.5600
 2.0920	41.6900
 2.0960	41.8700
 2.1000	41.9800
 2.1040	42.1200
 2.1080	42.3100
 2.1120	42.4300
 2.1160	42.5900
 2.1200	42.7000
 2.1240	42.7700
 2.1280	42.8000
 2.1320	42.7300
 2.1360	42.7100
 2.1400	42.6400
 2.1440	42.5100
 2.1480	42.2500
 2.1520	41.9600
 2.1560	41.7500
 2.1600	41.4400
 2.1640	41.1600
 2.1680	40.9500
 2.1720	40.5700
 2.1760	40.2600
 2.1800	39.8600
 2.1840	39.3700
 2.1880	38.8000
 2.1920	38.2000
 2.1960	37.5500
 2.2000	36.9600
 2.2040	36.3000
 2.2080	35.8200
 2.2120	35.4800
 2.2160	35.0100
 2.2200	34.6900
 2.2240	34.1100
 2.2280	33.4200
 2.2320	32.5100
 2.2360	31.5400
 2.2400	30.4600
 2.2440	29.5100
 2.2480	28.5500
 2.2520	27.5900
 2.2560	26.8200
 2.2600	26.1500
 2.2640	25.5400
 2.2680	25.0700
 2.2720	24.7500
 2.2760	24.5500
 2.2800	24.7000
 2.2840	24.9900
 2.2880	25.5000
 2.2920	26.1600
 2.2960	26.8700
 2.3000	27.5800
 2.3040	28.1200
 2.3080	28.5200
 2.3120	28.7300
 2.3160	28.6100
 2.3200	28.2800
 2.3240	27.6700
 2.3280	26.9500
 2.3320	26.1300
 2.3360	25.1900
 2.3400	24.4000
 2.3440	23.7900
 2.3480	23.4200
 2.3520	23.3000
 2.3560	23.4000
 2.3600	23.6000
 2.3640	23.8800
 2.3680	24.1300
 2.3720	24.2500
 2.3760	24.2800
 2.3800	24.1800
 2.3840	24.0300
 2.3880	23.8700
 2.3920	23.6900
 2.3960	23.5300
 2.4000	23.4400
 2.4040	23.3500
 2.4080	23.2700
 2.4120	23.2000
 2.4160	23.1100
 2.4200	23.1400
 2.4240	22.9500
 2.4280	22.8700
 2.4320	22.7600
 2.4360	22.6000
 2.4400	22.4900
 2.4440	22.2800
 2.4480	22.2300
 2.4520	22.0500
 2.4560	21.9700
 2.4600	21.7800
 2.4640	21.6800
 2.4680	21.5200
 2.4720	21.3600
 2.4760	21.2100
 2.4800	21.1700
 2.4840	21.1000
 2.4880	20.9300
 2.4920	20.8200
 2.4960	20.6700
 2.5000	20.6500
