Name: Molybdenite MoS_2
Type: Mineral
Class: Sulfide
Subclass: None
Particle Size: Fine
Sample No.: S-11A
Owner: JPL
Wavelength Range: VSWIR
Origin: Norway, Arendal, Froland.
Collection Date: N/A
Description: Particle size was 0-45um. Collected by:  JPL Original ASTER Spectral Library name was jpl.perkin.mineral.sulfide.none.fine.s11a.spectrum.txt
Measurement: Hemispherical reflectance
First Column: X
Second Column: Y
X Units: Wavelength (micrometers)
Y Units:Reflectance (percent)
First X Value:  2.5000
Last X Value:  0.4000
Number of X Values: 2101
Additional Information: mineral.sulfide.none.fine.vswir.s-11a.jpl.perkin.ancillary.txt

 2.5000	51.7370
 2.4990	51.5738
 2.4980	51.7943
 2.4970	51.6952
 2.4960	51.4609
 2.4950	51.6310
 2.4940	51.3731
 2.4930	51.5523
 2.4920	51.4589
 2.4910	51.6471
 2.4900	51.5135
 2.4890	51.6578
 2.4880	51.4688
 2.4870	51.5758
 2.4860	51.4502
 2.4850	51.6798
 2.4840	51.3972
 2.4830	51.3748
 2.4820	51.5884
 2.4810	51.5264
 2.4800	51.5306
 2.4790	51.5856
 2.4780	51.5352
 2.4770	51.5764
 2.4760	51.6045
 2.4750	51.6150
 2.4740	51.7023
 2.4730	51.7086
 2.4720	51.6237
 2.4710	51.5443
 2.4700	51.5293
 2.4690	51.6416
 2.4680	51.5902
 2.4670	51.6993
 2.4660	51.6581
 2.4650	51.6477
 2.4640	51.6087
 2.4630	51.7483
 2.4620	51.6667
 2.4610	51.8023
 2.4600	51.6565
 2.4590	51.7721
 2.4580	51.5754
 2.4570	51.7420
 2.4560	51.7287
 2.4550	51.6863
 2.4540	51.8266
 2.4530	51.7336
 2.4520	51.6994
 2.4510	51.6916
 2.4500	51.6623
 2.4490	51.9515
 2.4480	51.8653
 2.4470	51.7048
 2.4460	51.6353
 2.4450	51.8370
 2.4440	51.7127
 2.4430	51.7335
 2.4420	51.7469
 2.4410	51.8077
 2.4400	51.8547
 2.4390	51.9130
 2.4380	51.8074
 2.4370	51.8999
 2.4360	51.8397
 2.4350	51.8562
 2.4340	51.8535
 2.4330	51.9245
 2.4320	51.8610
 2.4310	51.8833
 2.4300	51.9173
 2.4290	51.8725
 2.4280	51.9090
 2.4270	51.9206
 2.4260	51.9061
 2.4250	51.9364
 2.4240	51.8470
 2.4230	51.8654
 2.4220	51.9831
 2.4210	51.9513
 2.4200	51.9839
 2.4190	51.9542
 2.4180	51.9364
 2.4170	51.9705
 2.4160	51.8993
 2.4150	51.9662
 2.4140	52.0271
 2.4130	52.0404
 2.4120	51.9658
 2.4110	52.0861
 2.4100	52.0176
 2.4090	52.0031
 2.4080	51.9886
 2.4070	52.0269
 2.4060	52.0528
 2.4050	51.9653
 2.4040	52.0363
 2.4030	52.0374
 2.4020	52.0523
 2.4010	52.0524
 2.4000	52.0205
 2.3990	52.0294
 2.3980	52.0108
 2.3970	52.0475
 2.3960	52.0403
 2.3950	52.0766
 2.3940	52.1368
 2.3930	52.1772
 2.3920	52.1731
 2.3910	52.2191
 2.3900	52.1718
 2.3890	52.2027
 2.3880	52.1751
 2.3870	52.1836
 2.3860	52.1742
 2.3850	52.1211
 2.3840	52.0754
 2.3830	52.1284
 2.3820	52.1703
 2.3810	52.2132
 2.3800	52.2123
 2.3790	52.2215
 2.3780	52.1835
 2.3770	52.1989
 2.3760	52.2757
 2.3750	52.2830
 2.3740	52.2607
 2.3730	52.2706
 2.3720	52.2549
 2.3710	52.2949
 2.3700	52.2534
 2.3690	52.2762
 2.3680	52.3540
 2.3670	52.3401
 2.3660	52.3483
 2.3650	52.3790
 2.3640	52.3683
 2.3630	52.3113
 2.3620	52.2761
 2.3610	52.3024
 2.3600	52.3181
 2.3590	52.3396
 2.3580	52.3302
 2.3570	52.3459
 2.3560	52.3953
 2.3550	52.3746
 2.3540	52.3838
 2.3530	52.3519
 2.3520	52.3001
 2.3510	52.3470
 2.3500	52.4045
 2.3490	52.3677
 2.3480	52.3102
 2.3470	52.3122
 2.3460	52.3367
 2.3450	52.2795
 2.3440	52.2691
 2.3430	52.3860
 2.3420	52.3798
 2.3410	52.2888
 2.3400	52.3443
 2.3390	52.3464
 2.3380	52.3054
 2.3370	52.3028
 2.3360	52.2855
 2.3350	52.2706
 2.3340	52.3102
 2.3330	52.2958
 2.3320	52.3284
 2.3310	52.3208
 2.3300	52.3245
 2.3290	52.2401
 2.3280	52.2377
 2.3270	52.2072
 2.3260	52.2218
 2.3250	52.2237
 2.3240	52.2276
 2.3230	52.1953
 2.3220	52.1870
 2.3210	52.1494
 2.3200	52.1685
 2.3190	52.1692
 2.3180	52.1942
 2.3170	52.1744
 2.3160	52.2056
 2.3150	52.1593
 2.3140	52.1829
 2.3130	52.1091
 2.3120	52.1332
 2.3110	52.1348
 2.3100	52.2247
 2.3090	52.1323
 2.3080	52.1911
 2.3070	52.1829
 2.3060	52.1759
 2.3050	52.1488
 2.3040	52.1317
 2.3030	52.1020
 2.3020	52.1177
 2.3010	52.1380
 2.3000	52.2225
 2.2990	52.2065
 2.2980	52.2160
 2.2970	52.1858
 2.2960	52.1583
 2.2950	52.1737
 2.2940	52.2257
 2.2930	52.1657
 2.2920	52.0777
 2.2910	52.0928
 2.2900	52.1335
 2.2890	52.1242
 2.2880	52.1409
 2.2870	52.1150
 2.2860	52.1006
 2.2850	52.0198
 2.2840	52.1031
 2.2830	52.0626
 2.2820	52.1117
 2.2810	52.0933
 2.2800	52.1601
 2.2790	52.0909
 2.2780	52.0964
 2.2770	52.0505
 2.2760	52.1172
 2.2750	52.0039
 2.2740	52.1332
 2.2730	52.1122
 2.2720	52.0594
 2.2710	52.0700
 2.2700	52.0627
 2.2690	51.9885
 2.2680	52.0885
 2.2670	52.0435
 2.2660	52.0470
 2.2650	51.9984
 2.2640	52.0191
 2.2630	52.0960
 2.2620	52.1285
 2.2610	52.0121
 2.2600	52.0778
 2.2590	52.0528
 2.2580	52.0705
 2.2570	52.0262
 2.2560	52.0454
 2.2550	52.0469
 2.2540	52.1252
 2.2530	52.0240
 2.2520	51.9914
 2.2510	52.0471
 2.2500	52.0507
 2.2490	51.9919
 2.2480	51.9850
 2.2470	52.0814
 2.2460	52.0905
 2.2450	52.0702
 2.2440	52.0634
 2.2430	51.9568
 2.2420	52.0762
 2.2410	52.0366
 2.2400	52.0426
 2.2390	52.0416
 2.2380	52.0564
 2.2370	52.0238
 2.2360	52.1214
 2.2350	52.1018
 2.2340	52.0475
 2.2330	51.9841
 2.2320	52.0522
 2.2310	51.9772
 2.2300	52.0529
 2.2290	52.0280
 2.2280	52.0740
 2.2270	52.0119
 2.2260	52.0863
 2.2250	52.0390
 2.2240	52.1216
 2.2230	52.1009
 2.2220	51.9726
 2.2210	52.0172
 2.2200	52.0621
 2.2190	51.9806
 2.2180	52.0600
 2.2170	51.8956
 2.2160	52.0675
 2.2150	52.0160
 2.2140	52.0737
 2.2130	51.9987
 2.2120	52.1274
 2.2110	51.9691
 2.2100	52.1278
 2.2090	52.0251
 2.2080	52.0607
 2.2070	52.0343
 2.2060	52.1446
 2.2050	52.0468
 2.2040	52.1415
 2.2030	52.1318
 2.2020	52.1892
 2.2010	52.0986
 2.2000	52.1579
 2.1990	52.1631
 2.1980	52.1494
 2.1970	52.1217
 2.1960	52.1505
 2.1950	52.1662
 2.1940	52.1518
 2.1930	52.1114
 2.1920	52.1285
 2.1910	52.0965
 2.1900	52.1426
 2.1890	52.2086
 2.1880	52.1573
 2.1870	52.1366
 2.1860	52.2127
 2.1850	52.0917
 2.1840	52.2035
 2.1830	52.1972
 2.1820	52.1593
 2.1810	52.1892
 2.1800	52.2761
 2.1790	52.2392
 2.1780	52.3136
 2.1770	52.2672
 2.1760	52.2530
 2.1750	52.2602
 2.1740	52.2966
 2.1730	52.2316
 2.1720	52.2863
 2.1710	52.2774
 2.1700	52.3112
 2.1690	52.2994
 2.1680	52.3945
 2.1670	52.3177
 2.1660	52.4272
 2.1650	52.3564
 2.1640	52.4342
 2.1630	52.3333
 2.1620	52.3682
 2.1610	52.4291
 2.1600	52.4670
 2.1590	52.3933
 2.1580	52.4367
 2.1570	52.3814
 2.1560	52.3596
 2.1550	52.3900
 2.1540	52.4260
 2.1530	52.4172
 2.1520	52.4199
 2.1510	52.3991
 2.1500	52.3791
 2.1490	52.4018
 2.1480	52.3739
 2.1470	52.4039
 2.1460	52.3903
 2.1450	52.3595
 2.1440	52.3819
 2.1430	52.3244
 2.1420	52.3801
 2.1410	52.3214
 2.1400	52.2702
 2.1390	52.2948
 2.1380	52.3430
 2.1370	52.2717
 2.1360	52.2378
 2.1350	52.1880
 2.1340	52.2802
 2.1330	52.1994
 2.1320	52.2110
 2.1310	52.1555
 2.1300	52.1214
 2.1290	52.1236
 2.1280	52.1358
 2.1270	52.0955
 2.1260	51.9985
 2.1250	52.0020
 2.1240	51.9998
 2.1230	51.9575
 2.1220	51.9228
 2.1210	51.8572
 2.1200	51.7896
 2.1190	51.8124
 2.1180	51.8525
 2.1170	51.7748
 2.1160	51.7792
 2.1150	51.7661
 2.1140	51.7097
 2.1130	51.6672
 2.1120	51.5671
 2.1110	51.4960
 2.1100	51.5714
 2.1090	51.5686
 2.1080	51.4738
 2.1070	51.4321
 2.1060	51.4559
 2.1050	51.4536
 2.1040	51.3897
 2.1030	51.2987
 2.1020	51.3248
 2.1010	51.2969
 2.1000	51.2331
 2.0990	51.2059
 2.0980	51.2369
 2.0970	51.2525
 2.0960	51.3009
 2.0950	51.2170
 2.0940	51.2362
 2.0930	51.2559
 2.0920	51.2624
 2.0910	51.2661
 2.0900	51.2368
 2.0890	51.2328
 2.0880	51.3070
 2.0870	51.2932
 2.0860	51.2617
 2.0850	51.2734
 2.0840	51.2436
 2.0830	51.1713
 2.0820	51.2211
 2.0810	51.2797
 2.0800	51.2698
 2.0790	51.2227
 2.0780	51.2708
 2.0770	51.2782
 2.0760	51.1961
 2.0750	51.2071
 2.0740	51.2222
 2.0730	51.2436
 2.0720	51.2454
 2.0710	51.2265
 2.0700	51.2781
 2.0690	51.2761
 2.0680	51.2394
 2.0670	51.2442
 2.0660	51.2397
 2.0650	51.2489
 2.0640	51.1848
 2.0630	51.1724
 2.0620	51.2216
 2.0610	51.2320
 2.0600	51.2452
 2.0590	51.2036
 2.0580	51.2246
 2.0570	51.2780
 2.0560	51.2456
 2.0550	51.1833
 2.0540	51.1625
 2.0530	51.2160
 2.0520	51.2293
 2.0510	51.1944
 2.0500	51.1380
 2.0490	51.1594
 2.0480	51.1321
 2.0470	51.1886
 2.0460	51.1887
 2.0450	51.1725
 2.0440	51.1615
 2.0430	51.1639
 2.0420	51.1207
 2.0410	51.1850
 2.0400	51.1776
 2.0390	51.1792
 2.0380	51.1523
 2.0370	51.0830
 2.0360	51.0674
 2.0350	51.0888
 2.0340	51.0627
 2.0330	51.0992
 2.0320	51.0686
 2.0310	51.1303
 2.0300	51.0904
 2.0290	51.0823
 2.0280	51.0149
 2.0270	51.0231
 2.0260	51.0499
 2.0250	51.0739
 2.0240	50.9919
 2.0230	50.9020
 2.0220	50.9060
 2.0210	50.9775
 2.0200	50.9305
 2.0190	50.9019
 2.0180	50.8564
 2.0170	50.9026
 2.0160	50.9146
 2.0150	50.9643
 2.0140	50.9192
 2.0130	50.8716
 2.0120	50.7730
 2.0110	50.7725
 2.0100	50.7986
 2.0090	50.8184
 2.0080	50.7568
 2.0070	50.8146
 2.0060	50.7981
 2.0050	50.7790
 2.0040	50.7029
 2.0030	50.7005
 2.0020	50.6795
 2.0010	50.7056
 2.0000	50.6799
 1.9990	50.6880
 1.9980	50.6171
 1.9970	50.6051
 1.9960	50.5610
 1.9950	50.5343
 1.9940	50.5477
 1.9930	50.5201
 1.9920	50.5159
 1.9910	50.5512
 1.9900	50.4546
 1.9890	50.4145
 1.9880	50.4306
 1.9870	50.3905
 1.9860	50.3995
 1.9850	50.4405
 1.9840	50.3331
 1.9830	50.2981
 1.9820	50.2655
 1.9810	50.2970
 1.9800	50.2296
 1.9790	50.2644
 1.9780	50.1536
 1.9770	50.1846
 1.9760	50.1681
 1.9750	50.1961
 1.9740	50.0960
 1.9730	50.0812
 1.9720	49.9890
 1.9710	50.0692
 1.9700	50.0122
 1.9690	50.0113
 1.9680	49.9484
 1.9670	50.0516
 1.9660	49.9774
 1.9650	49.9518
 1.9640	49.9036
 1.9630	49.9421
 1.9620	49.8428
 1.9610	49.8918
 1.9600	49.8470
 1.9590	49.8449
 1.9580	49.8436
 1.9570	49.8350
 1.9560	49.7339
 1.9550	49.8087
 1.9540	49.7384
 1.9530	49.7248
 1.9520	49.7424
 1.9510	49.7474
 1.9500	49.6419
 1.9490	49.7089
 1.9480	49.6388
 1.9470	49.6119
 1.9460	49.6444
 1.9450	49.5181
 1.9440	49.6023
 1.9430	49.5101
 1.9420	49.5378
 1.9410	49.4699
 1.9400	49.5043
 1.9390	49.4341
 1.9380	49.4163
 1.9370	49.5124
 1.9360	49.5011
 1.9350	49.4209
 1.9340	49.3597
 1.9330	49.5145
 1.9320	49.4529
 1.9310	49.4766
 1.9300	49.4344
 1.9290	49.4294
 1.9280	49.3590
 1.9270	49.5198
 1.9260	49.2215
 1.9250	49.4343
 1.9240	49.4318
 1.9230	49.3915
 1.9220	49.3913
 1.9210	49.3431
 1.9200	49.3138
 1.9190	49.4644
 1.9180	49.3978
 1.9170	49.4291
 1.9160	49.4106
 1.9150	49.4566
 1.9140	49.4378
 1.9130	49.4634
 1.9120	49.5396
 1.9110	49.4892
 1.9100	49.4298
 1.9090	49.4916
 1.9080	49.4780
 1.9070	49.5210
 1.9060	49.5231
 1.9050	49.5168
 1.9040	49.5236
 1.9030	49.5981
 1.9020	49.4528
 1.9010	49.5373
 1.9000	49.5017
 1.8990	49.5758
 1.8980	49.5774
 1.8970	49.6512
 1.8960	49.6650
 1.8950	49.5837
 1.8940	49.5580
 1.8930	49.6289
 1.8920	49.6452
 1.8910	49.6602
 1.8900	49.6142
 1.8890	49.6586
 1.8880	49.6555
 1.8870	49.6880
 1.8860	49.6453
 1.8850	49.6416
 1.8840	49.5997
 1.8830	49.6840
 1.8820	49.5859
 1.8810	49.6160
 1.8800	49.6068
 1.8790	49.6501
 1.8780	49.6070
 1.8770	49.6427
 1.8760	49.5539
 1.8750	49.5058
 1.8740	49.4927
 1.8730	49.5084
 1.8720	49.4460
 1.8710	49.4756
 1.8700	49.3890
 1.8690	49.4560
 1.8680	49.4001
 1.8670	49.5035
 1.8660	49.5141
 1.8650	49.4957
 1.8640	49.4587
 1.8630	49.4831
 1.8620	49.4323
 1.8610	49.4335
 1.8600	49.3729
 1.8590	49.4355
 1.8580	49.3549
 1.8570	49.3583
 1.8560	49.3257
 1.8550	49.3586
 1.8540	49.3332
 1.8530	49.3392
 1.8520	49.3638
 1.8510	49.2919
 1.8500	49.2071
 1.8490	49.3217
 1.8480	49.2379
 1.8470	49.2404
 1.8460	49.1721
 1.8450	49.2283
 1.8440	49.2087
 1.8430	49.1831
 1.8420	49.1286
 1.8410	49.1199
 1.8400	49.1254
 1.8390	49.1175
 1.8380	49.0603
 1.8370	49.1098
 1.8360	49.0772
 1.8350	49.1019
 1.8340	49.1409
 1.8330	49.1202
 1.8320	49.0407
 1.8310	48.9870
 1.8300	49.0097
 1.8290	49.0328
 1.8280	49.0143
 1.8270	48.9538
 1.8260	48.8902
 1.8250	48.9110
 1.8240	48.9199
 1.8230	48.9654
 1.8220	48.8583
 1.8210	48.8646
 1.8200	48.8212
 1.8190	48.8234
 1.8180	48.8242
 1.8170	48.8181
 1.8160	48.7618
 1.8150	48.7715
 1.8140	48.8163
 1.8130	48.8021
 1.8120	48.7161
 1.8110	48.7361
 1.8100	48.6833
 1.8090	48.6497
 1.8080	48.6584
 1.8070	48.6576
 1.8060	48.6627
 1.8050	48.6554
 1.8040	48.6528
 1.8030	48.6662
 1.8020	48.6359
 1.8010	48.6272
 1.8000	48.5865
 1.7990	48.5628
 1.7980	48.5012
 1.7970	48.5153
 1.7960	48.5407
 1.7950	48.5277
 1.7940	48.4634
 1.7930	48.4877
 1.7920	48.5127
 1.7910	48.4486
 1.7900	48.4306
 1.7890	48.4298
 1.7880	48.3598
 1.7870	48.3560
 1.7860	48.3489
 1.7850	48.0480
 1.7840	48.0517
 1.7830	48.2662
 1.7820	48.2584
 1.7810	48.2620
 1.7800	48.2016
 1.7790	48.1854
 1.7780	48.1788
 1.7770	48.0915
 1.7760	48.0346
 1.7750	48.0299
 1.7740	48.0521
 1.7730	47.9991
 1.7720	47.9717
 1.7710	47.9668
 1.7700	47.9474
 1.7690	47.9558
 1.7680	47.9635
 1.7670	47.9195
 1.7660	47.8859
 1.7650	47.8486
 1.7640	47.8388
 1.7630	47.8578
 1.7620	47.8566
 1.7610	47.8194
 1.7600	47.8498
 1.7590	47.7777
 1.7580	47.7185
 1.7570	47.6731
 1.7560	47.6911
 1.7550	47.6667
 1.7540	47.7048
 1.7530	47.7235
 1.7520	47.6904
 1.7510	47.6140
 1.7500	47.6144
 1.7490	47.5989
 1.7480	47.5720
 1.7470	47.5531
 1.7460	47.5290
 1.7450	47.5096
 1.7440	47.5237
 1.7430	47.4892
 1.7420	47.4458
 1.7410	47.3657
 1.7400	47.4124
 1.7390	47.3758
 1.7380	47.3817
 1.7370	47.3578
 1.7360	47.3572
 1.7350	47.2874
 1.7340	47.2676
 1.7330	47.2397
 1.7320	47.3025
 1.7310	47.2492
 1.7300	47.2558
 1.7290	47.2075
 1.7280	47.1608
 1.7270	47.1735
 1.7260	47.1409
 1.7250	47.1243
 1.7240	47.1575
 1.7230	47.0754
 1.7220	47.0440
 1.7210	47.0562
 1.7200	47.0239
 1.7190	46.9103
 1.7180	47.0401
 1.7170	46.9943
 1.7160	46.9925
 1.7150	46.9204
 1.7140	46.9709
 1.7130	46.8981
 1.7120	46.8565
 1.7110	46.8126
 1.7100	46.8332
 1.7090	46.8115
 1.7080	46.8089
 1.7070	46.7818
 1.7060	46.7193
 1.7050	46.6695
 1.7040	46.6767
 1.7030	46.6139
 1.7020	46.6334
 1.7010	46.5876
 1.7000	46.6616
 1.6990	46.5787
 1.6980	46.5267
 1.6970	46.5342
 1.6960	46.5453
 1.6950	46.4333
 1.6940	46.4624
 1.6930	46.4697
 1.6920	46.4645
 1.6910	46.3358
 1.6900	46.3779
 1.6890	46.3655
 1.6880	46.3568
 1.6870	46.2568
 1.6860	46.3360
 1.6850	46.2323
 1.6840	46.2658
 1.6830	46.2180
 1.6820	46.1946
 1.6810	46.1743
 1.6800	46.1660
 1.6790	46.1250
 1.6780	46.2123
 1.6770	46.1032
 1.6760	46.1047
 1.6750	46.0426
 1.6740	46.1183
 1.6730	46.0340
 1.6720	46.0206
 1.6710	45.9822
 1.6700	45.9882
 1.6690	46.0233
 1.6680	45.8618
 1.6670	45.9725
 1.6660	45.9266
 1.6650	45.8710
 1.6640	45.8509
 1.6630	45.7502
 1.6620	45.8912
 1.6610	45.7899
 1.6600	45.7882
 1.6590	45.7204
 1.6580	45.7459
 1.6570	45.7411
 1.6560	45.6435
 1.6550	45.7088
 1.6540	45.7334
 1.6530	45.6185
 1.6520	45.6369
 1.6510	45.5168
 1.6500	45.5396
 1.6490	45.5430
 1.6480	45.5355
 1.6470	45.4575
 1.6460	45.5520
 1.6450	45.4488
 1.6440	45.4994
 1.6430	45.3584
 1.6420	45.5168
 1.6410	45.2605
 1.6400	45.4221
 1.6390	45.3447
 1.6380	45.3622
 1.6370	45.2760
 1.6360	45.2678
 1.6350	45.2484
 1.6340	45.1794
 1.6330	45.1780
 1.6320	45.2108
 1.6310	45.1706
 1.6300	45.2052
 1.6290	45.1466
 1.6280	45.1286
 1.6270	45.0529
 1.6260	45.1290
 1.6250	45.0301
 1.6240	44.9879
 1.6230	44.9658
 1.6220	45.0106
 1.6210	44.9426
 1.6200	44.9144
 1.6190	44.9541
 1.6180	44.8898
 1.6170	44.8297
 1.6160	44.9547
 1.6150	44.8475
 1.6140	44.8302
 1.6130	44.7725
 1.6120	44.8753
 1.6110	44.8040
 1.6100	44.8057
 1.6090	44.7481
 1.6080	44.7380
 1.6070	44.6224
 1.6060	44.6645
 1.6050	44.6586
 1.6040	44.6183
 1.6030	44.6138
 1.6020	44.6480
 1.6010	44.4974
 1.6000	44.5721
 1.5990	44.5207
 1.5980	44.5445
 1.5970	44.4941
 1.5960	44.5339
 1.5950	44.4423
 1.5940	44.5108
 1.5930	44.3695
 1.5920	44.4154
 1.5910	44.4113
 1.5900	44.3683
 1.5890	44.3076
 1.5880	44.3484
 1.5870	44.2838
 1.5860	44.3021
 1.5850	44.1777
 1.5840	44.2354
 1.5830	44.2092
 1.5820	44.2258
 1.5810	44.1654
 1.5800	44.2256
 1.5790	44.1288
 1.5780	44.1622
 1.5770	44.0395
 1.5760	44.0517
 1.5750	44.0612
 1.5740	44.0070
 1.5730	43.9618
 1.5720	44.0169
 1.5710	43.9318
 1.5700	43.8858
 1.5690	43.8942
 1.5680	43.8941
 1.5670	43.9050
 1.5660	43.8920
 1.5650	43.8481
 1.5640	43.8658
 1.5630	43.7553
 1.5620	43.7873
 1.5610	43.7624
 1.5600	43.7783
 1.5590	43.7716
 1.5580	43.7851
 1.5570	43.6469
 1.5560	43.7311
 1.5550	43.6644
 1.5540	43.6381
 1.5530	43.5696
 1.5520	43.5838
 1.5510	43.5170
 1.5500	43.5202
 1.5490	43.5224
 1.5480	43.5248
 1.5470	43.5316
 1.5460	43.4654
 1.5450	43.4182
 1.5440	43.4005
 1.5430	43.4315
 1.5420	43.4586
 1.5410	43.3890
 1.5400	43.4022
 1.5390	43.3352
 1.5380	43.3519
 1.5370	43.2896
 1.5360	43.2372
 1.5350	43.1888
 1.5340	43.2524
 1.5330	43.2082
 1.5320	43.2268
 1.5310	43.1874
 1.5300	43.1901
 1.5290	43.1004
 1.5280	43.1383
 1.5270	43.0914
 1.5260	43.0943
 1.5250	43.1119
 1.5240	43.0507
 1.5230	42.9549
 1.5220	43.0112
 1.5210	42.9846
 1.5200	42.9371
 1.5190	42.9097
 1.5180	42.9032
 1.5170	42.8552
 1.5160	42.8659
 1.5150	42.8925
 1.5140	42.8927
 1.5130	42.8290
 1.5120	42.8221
 1.5110	42.7945
 1.5100	42.7651
 1.5090	42.7604
 1.5080	42.7402
 1.5070	42.6957
 1.5060	42.6889
 1.5050	42.6576
 1.5040	42.6326
 1.5030	42.6708
 1.5020	42.6315
 1.5010	42.5726
 1.5000	42.5944
 1.4990	42.6189
 1.4980	42.5696
 1.4970	42.5428
 1.4960	42.5252
 1.4950	42.5319
 1.4940	42.5190
 1.4930	42.4655
 1.4920	42.4374
 1.4910	42.4353
 1.4900	42.4154
 1.4890	42.3739
 1.4880	42.3285
 1.4870	42.3062
 1.4860	42.3015
 1.4850	42.3310
 1.4840	42.2932
 1.4830	42.2572
 1.4820	42.2051
 1.4810	42.1627
 1.4800	42.2130
 1.4790	42.2223
 1.4780	42.1624
 1.4770	42.1490
 1.4760	42.1478
 1.4750	42.1409
 1.4740	42.1089
 1.4730	42.0900
 1.4720	42.0484
 1.4710	42.0200
 1.4700	41.9738
 1.4690	41.9722
 1.4680	41.9648
 1.4670	41.9841
 1.4660	41.9538
 1.4650	41.9627
 1.4640	41.8580
 1.4630	41.8706
 1.4620	41.8753
 1.4610	41.8991
 1.4600	41.8237
 1.4590	41.7991
 1.4580	41.7625
 1.4570	41.7892
 1.4560	41.7193
 1.4550	41.7496
 1.4540	41.7168
 1.4530	41.7235
 1.4520	41.6490
 1.4510	41.6443
 1.4500	41.5811
 1.4490	41.6323
 1.4480	41.6471
 1.4470	41.6269
 1.4460	41.5659
 1.4450	41.5483
 1.4440	41.4465
 1.4430	41.4646
 1.4420	41.4708
 1.4410	41.5040
 1.4400	41.4643
 1.4390	41.4731
 1.4380	41.4032
 1.4370	41.4151
 1.4360	41.3905
 1.4350	41.4093
 1.4340	41.3189
 1.4330	41.3429
 1.4320	41.2625
 1.4310	41.3105
 1.4300	41.2289
 1.4290	41.2345
 1.4280	41.1980
 1.4270	41.2597
 1.4260	41.1665
 1.4250	41.2244
 1.4240	41.1471
 1.4230	41.1203
 1.4220	41.0840
 1.4210	41.1398
 1.4200	41.0389
 1.4190	41.0990
 1.4180	40.9985
 1.4170	41.0627
 1.4160	40.9950
 1.4150	41.0221
 1.4140	40.9592
 1.4130	40.9806
 1.4120	40.9167
 1.4110	40.8670
 1.4100	40.8392
 1.4090	40.8530
 1.4080	40.8592
 1.4070	40.8913
 1.4060	40.8474
 1.4050	40.7916
 1.4040	40.7474
 1.4030	40.8321
 1.4020	40.7955
 1.4010	40.7898
 1.4000	40.7651
 1.3990	40.7471
 1.3980	40.7454
 1.3970	40.7777
 1.3960	40.7583
 1.3950	40.7113
 1.3940	40.6127
 1.3930	40.6338
 1.3920	40.6390
 1.3910	40.7060
 1.3900	40.5857
 1.3890	40.7434
 1.3880	40.6002
 1.3870	40.5911
 1.3860	40.5493
 1.3850	40.6336
 1.3840	40.5748
 1.3830	40.5133
 1.3820	40.4063
 1.3810	40.4474
 1.3800	40.4066
 1.3790	40.5110
 1.3780	40.4362
 1.3770	40.4921
 1.3760	40.3779
 1.3750	40.3447
 1.3740	40.3115
 1.3730	40.3381
 1.3720	40.2556
 1.3710	40.3143
 1.3700	40.2173
 1.3690	40.2428
 1.3680	40.1871
 1.3670	40.2681
 1.3660	40.1631
 1.3650	40.2387
 1.3640	40.1386
 1.3630	40.2517
 1.3620	39.9854
 1.3610	40.1841
 1.3600	39.9519
 1.3590	40.0776
 1.3580	40.0024
 1.3570	40.0764
 1.3560	40.0604
 1.3550	39.9295
 1.3540	39.9350
 1.3530	39.9789
 1.3520	39.9759
 1.3510	39.9391
 1.3500	39.7970
 1.3490	39.8490
 1.3480	39.8039
 1.3470	39.8296
 1.3460	39.7593
 1.3450	39.7980
 1.3440	39.6623
 1.3430	39.7661
 1.3420	39.7300
 1.3410	39.8201
 1.3400	39.6379
 1.3390	39.5709
 1.3380	39.6300
 1.3370	39.6174
 1.3360	39.5350
 1.3350	39.5781
 1.3340	39.5149
 1.3330	39.5838
 1.3320	39.5143
 1.3310	39.5211
 1.3300	39.4368
 1.3290	39.4900
 1.3280	39.4533
 1.3270	39.4525
 1.3260	39.3805
 1.3250	39.4042
 1.3240	39.3257
 1.3230	39.3243
 1.3220	39.2786
 1.3210	39.3300
 1.3200	39.2282
 1.3190	39.3021
 1.3180	39.2484
 1.3170	39.2075
 1.3160	39.2081
 1.3150	39.1633
 1.3140	39.1192
 1.3130	39.1804
 1.3120	39.1004
 1.3110	39.1515
 1.3100	39.0596
 1.3090	39.0867
 1.3080	39.0188
 1.3070	39.0636
 1.3060	38.9179
 1.3050	38.9765
 1.3040	38.8883
 1.3030	39.0129
 1.3020	38.8747
 1.3010	38.8678
 1.3000	38.8009
 1.2990	38.8550
 1.2980	38.8315
 1.2970	38.7929
 1.2960	38.7572
 1.2950	38.7770
 1.2940	38.7081
 1.2930	38.7732
 1.2920	38.6596
 1.2910	38.7161
 1.2900	38.6935
 1.2890	38.6509
 1.2880	38.5817
 1.2870	38.6123
 1.2860	38.5753
 1.2850	38.5971
 1.2840	38.5390
 1.2830	38.5489
 1.2820	38.4134
 1.2810	38.4777
 1.2800	38.4270
 1.2790	38.3931
 1.2780	38.3266
 1.2770	38.3391
 1.2760	38.3298
 1.2750	38.3849
 1.2740	38.2997
 1.2730	38.2872
 1.2720	38.1988
 1.2710	38.2099
 1.2700	38.1970
 1.2690	38.2475
 1.2680	38.1926
 1.2670	38.1382
 1.2660	38.0964
 1.2650	38.1181
 1.2640	38.0301
 1.2630	38.0562
 1.2620	37.9986
 1.2610	38.0024
 1.2600	37.9659
 1.2590	37.9507
 1.2580	37.9280
 1.2570	37.9793
 1.2560	37.8954
 1.2550	37.8668
 1.2540	37.8222
 1.2530	37.8160
 1.2520	37.7881
 1.2510	37.8156
 1.2500	37.7593
 1.2490	37.7751
 1.2480	37.6709
 1.2470	37.6808
 1.2460	37.6729
 1.2450	37.6547
 1.2440	37.6207
 1.2430	37.6421
 1.2420	37.6079
 1.2410	37.5657
 1.2400	37.5247
 1.2390	37.5234
 1.2380	37.4635
 1.2370	37.4626
 1.2360	37.4438
 1.2350	37.4341
 1.2340	37.3839
 1.2330	37.3580
 1.2320	37.3637
 1.2310	37.3550
 1.2300	37.2608
 1.2290	37.2651
 1.2280	37.2632
 1.2270	37.2237
 1.2260	37.1688
 1.2250	37.1701
 1.2240	37.1855
 1.2230	37.1951
 1.2220	37.1545
 1.2210	37.0969
 1.2200	37.0588
 1.2190	37.0831
 1.2180	36.9941
 1.2170	36.9754
 1.2160	36.9936
 1.2150	36.9581
 1.2140	36.9325
 1.2130	36.8756
 1.2120	36.8509
 1.2110	36.8604
 1.2100	36.8616
 1.2090	36.8083
 1.2080	36.7279
 1.2070	36.7028
 1.2060	36.7702
 1.2050	36.7365
 1.2040	36.6475
 1.2030	36.6704
 1.2020	36.6430
 1.2010	36.5509
 1.2000	36.5405
 1.1990	36.5751
 1.1980	36.5739
 1.1970	36.5380
 1.1960	36.5046
 1.1950	36.4595
 1.1940	36.4701
 1.1930	36.4351
 1.1920	36.4011
 1.1910	36.3517
 1.1900	36.3809
 1.1890	36.3675
 1.1880	36.2158
 1.1870	36.2182
 1.1860	36.2878
 1.1850	36.2167
 1.1840	36.2296
 1.1830	36.1202
 1.1820	36.1438
 1.1810	36.1439
 1.1800	36.0855
 1.1790	36.0533
 1.1780	36.0566
 1.1770	36.0240
 1.1760	36.0534
 1.1750	35.9744
 1.1740	35.9464
 1.1730	35.9300
 1.1720	35.9553
 1.1710	35.8871
 1.1700	35.9010
 1.1690	35.8263
 1.1680	35.8220
 1.1670	35.7926
 1.1660	35.7707
 1.1650	35.6968
 1.1640	35.6902
 1.1630	35.6614
 1.1620	35.6671
 1.1610	35.5931
 1.1600	35.6181
 1.1590	35.4906
 1.1580	35.4869
 1.1570	35.4751
 1.1560	35.5468
 1.1550	35.4599
 1.1540	35.5235
 1.1530	35.4954
 1.1520	35.4230
 1.1510	35.3542
 1.1500	35.3368
 1.1490	35.2841
 1.1480	35.3099
 1.1470	35.3287
 1.1460	35.3170
 1.1450	35.2495
 1.1440	35.2637
 1.1430	35.1544
 1.1420	35.2215
 1.1410	35.0844
 1.1400	35.0919
 1.1390	35.0965
 1.1380	35.0951
 1.1370	35.0319
 1.1360	35.0184
 1.1350	34.9462
 1.1340	34.9607
 1.1330	34.9044
 1.1320	34.9191
 1.1310	34.9161
 1.1300	34.8677
 1.1290	34.8420
 1.1280	34.8247
 1.1270	34.8078
 1.1260	34.7625
 1.1250	34.7264
 1.1240	34.7710
 1.1230	34.6729
 1.1220	34.6998
 1.1210	34.6223
 1.1200	34.6568
 1.1190	34.5163
 1.1180	34.5820
 1.1170	34.4782
 1.1160	34.4882
 1.1150	34.4674
 1.1140	34.5087
 1.1130	34.4297
 1.1120	34.4337
 1.1110	34.3860
 1.1100	34.4185
 1.1090	34.2657
 1.1080	34.3061
 1.1070	34.2386
 1.1060	34.2200
 1.1050	34.1621
 1.1040	34.2242
 1.1030	34.1238
 1.1020	34.1923
 1.1010	34.0998
 1.1000	34.0645
 1.0990	34.0026
 1.0980	34.1192
 1.0970	33.9807
 1.0960	34.0042
 1.0950	33.9459
 1.0940	33.9965
 1.0930	33.9293
 1.0920	33.9607
 1.0910	33.8404
 1.0900	33.8450
 1.0890	33.8002
 1.0880	33.7930
 1.0870	33.7362
 1.0860	33.7855
 1.0850	33.6752
 1.0840	33.7521
 1.0830	33.6838
 1.0820	33.7187
 1.0810	33.6048
 1.0800	33.6178
 1.0790	33.4948
 1.0780	33.6458
 1.0770	33.4636
 1.0760	33.5462
 1.0750	33.4965
 1.0740	33.4365
 1.0730	33.3837
 1.0720	33.4030
 1.0710	33.4458
 1.0700	33.3453
 1.0690	33.3596
 1.0680	33.2415
 1.0670	33.1821
 1.0660	33.2980
 1.0650	33.1910
 1.0640	33.2235
 1.0630	33.1336
 1.0620	33.1811
 1.0610	33.1145
 1.0600	33.1238
 1.0590	33.1424
 1.0580	33.0779
 1.0570	32.9303
 1.0560	32.9856
 1.0550	32.9641
 1.0540	33.0439
 1.0530	32.8123
 1.0520	32.9460
 1.0510	32.8269
 1.0500	32.8587
 1.0490	32.7573
 1.0480	32.7872
 1.0470	32.6838
 1.0460	32.7788
 1.0450	32.6669
 1.0440	32.7527
 1.0430	32.6572
 1.0420	32.6791
 1.0410	32.5812
 1.0400	32.6267
 1.0390	32.4631
 1.0380	32.5801
 1.0370	32.5120
 1.0360	32.5635
 1.0350	32.4320
 1.0340	32.5487
 1.0330	32.3963
 1.0320	32.3672
 1.0310	32.2879
 1.0300	32.3264
 1.0290	32.2693
 1.0280	32.2972
 1.0270	32.2095
 1.0260	32.2672
 1.0250	32.1947
 1.0240	32.2002
 1.0230	32.1527
 1.0220	32.1192
 1.0210	32.0636
 1.0200	32.0540
 1.0190	31.9680
 1.0180	31.9274
 1.0170	31.8767
 1.0160	31.9252
 1.0150	31.9029
 1.0140	31.8998
 1.0130	31.7753
 1.0120	31.8936
 1.0110	31.7209
 1.0100	31.7407
 1.0090	31.6616
 1.0080	31.6750
 1.0070	31.6179
 1.0060	31.6656
 1.0050	31.7584
 1.0040	31.5194
 1.0030	31.4825
 1.0020	31.4967
 1.0010	31.3775
 1.0000	31.3791
 0.9990	31.3217
 0.9980	31.3287
 0.9970	31.3018
 0.9960	31.2464
 0.9950	31.1400
 0.9940	31.1305
 0.9930	31.0508
 0.9920	31.0522
 0.9910	30.9699
 0.9900	30.9151
 0.9890	30.9221
 0.9880	30.8860
 0.9870	30.7738
 0.9860	30.6988
 0.9850	30.6637
 0.9840	30.7146
 0.9830	30.6193
 0.9820	30.5862
 0.9810	30.4928
 0.9800	30.4777
 0.9790	30.3733
 0.9780	30.3130
 0.9770	30.2644
 0.9760	30.2790
 0.9750	30.2176
 0.9740	30.2039
 0.9730	30.0922
 0.9720	30.0378
 0.9710	29.9372
 0.9700	29.8578
 0.9690	29.8123
 0.9680	29.7930
 0.9670	29.6991
 0.9660	29.6766
 0.9650	29.5296
 0.9640	29.4878
 0.9630	29.4616
 0.9620	29.4192
 0.9610	29.2538
 0.9600	29.2006
 0.9590	29.0971
 0.9580	29.0639
 0.9570	28.9765
 0.9560	28.9006
 0.9550	28.8358
 0.9540	28.7630
 0.9530	28.6279
 0.9520	28.5200
 0.9510	28.4615
 0.9500	28.3679
 0.9490	28.2712
 0.9480	28.2304
 0.9470	28.1016
 0.9460	27.9934
 0.9450	27.9078
 0.9440	27.8314
 0.9430	27.6626
 0.9420	27.6005
 0.9410	27.5357
 0.9400	27.4685
 0.9390	27.3781
 0.9380	27.2732
 0.9370	27.1641
 0.9360	27.0791
 0.9350	26.9638
 0.9340	26.8314
 0.9330	26.7058
 0.9320	26.5642
 0.9310	26.4599
 0.9300	26.3930
 0.9290	26.3101
 0.9280	26.1988
 0.9270	26.0706
 0.9260	25.9913
 0.9250	25.8926
 0.9240	25.7800
 0.9230	25.7233
 0.9220	25.5964
 0.9210	25.4599
 0.9200	25.3693
 0.9190	25.2839
 0.9180	25.1591
 0.9170	25.0229
 0.9160	24.8808
 0.9150	24.7969
 0.9140	24.6989
 0.9130	24.6000
 0.9120	24.5208
 0.9110	24.4783
 0.9100	24.3407
 0.9090	24.1855
 0.9080	24.0975
 0.9070	23.9624
 0.9060	23.8095
 0.9050	23.7430
 0.9040	23.6678
 0.9030	23.6195
 0.9020	23.4973
 0.9010	23.4238
 0.9000	23.2610
 0.8990	23.1580
 0.8980	23.0503
 0.8970	22.9901
 0.8960	22.8525
 0.8950	22.8180
 0.8940	22.7049
 0.8930	22.6071
 0.8920	22.4841
 0.8910	22.4120
 0.8900	22.2844
 0.8890	22.2000
 0.8880	22.0493
 0.8870	21.9733
 0.8860	21.8732
 0.8850	21.8398
 0.8840	21.6789
 0.8830	21.6164
 0.8820	21.5240
 0.8810	21.4656
 0.8800	21.2943
 0.8790	21.1878
 0.8780	21.0654
 0.8770	21.0383
 0.8760	20.8819
 0.8750	20.8276
 0.8740	20.7166
 0.8730	20.7029
 0.8720	20.5105
 0.8710	20.4836
 0.8700	20.3863
 0.8690	20.3272
 0.8680	20.1711
 0.8670	20.1293
 0.8660	20.0235
 0.8650	19.9741
 0.8640	19.8917
 0.8630	19.8719
 0.8620	19.7497
 0.8610	19.6834
 0.8600	19.6543
 0.8590	19.5593
 0.8580	19.5607
 0.8570	19.4700
 0.8560	19.3593
 0.8550	19.3461
 0.8540	19.2633
 0.8530	19.1697
 0.8520	19.1670
 0.8510	19.1002
 0.8500	18.9841
 0.8490	18.9660
 0.8480	18.9299
 0.8470	18.8200
 0.8460	18.7784
 0.8450	18.7287
 0.8440	18.6651
 0.8430	18.6155
 0.8420	18.5847
 0.8410	18.5128
 0.8400	18.4567
 0.8390	18.4177
 0.8380	18.3619
 0.8370	18.3102
 0.8360	18.2702
 0.8350	18.2112
 0.8340	18.1587
 0.8330	18.1153
 0.8320	18.0365
 0.8310	17.9784
 0.8300	17.9752
 0.8290	17.9259
 0.8280	17.8393
 0.8270	17.8163
 0.8260	17.7670
 0.8250	17.7104
 0.8240	17.6818
 0.8230	17.5998
 0.8220	17.5424
 0.8210	17.5351
 0.8200	17.4829
 0.8190	17.4365
 0.8180	17.3839
 0.8170	17.3454
 0.8160	17.2973
 0.8150	17.2703
 0.8140	17.2144
 0.8130	17.1554
 0.8120	17.1258
 0.8110	17.0755
 0.8100	17.0402
 0.8090	17.0130
 0.8080	16.9568
 0.8070	16.9055
 0.8060	16.8825
 0.8050	16.8423
 0.8040	16.7905
 0.8030	16.7652
 0.8020	16.7182
 0.8010	16.6695
 0.8000	16.6236
 0.7990	16.5953
 0.7980	16.5449
 0.7970	16.4974
 0.7960	16.4613
 0.7950	16.4235
 0.7940	16.3759
 0.7930	16.3379
 0.7920	16.2997
 0.7910	16.2651
 0.7900	16.2406
 0.7890	16.1784
 0.7880	16.1558
 0.7870	16.1239
 0.7860	16.0715
 0.7850	16.0356
 0.7840	15.9986
 0.7830	15.9430
 0.7820	15.9254
 0.7810	15.8994
 0.7800	15.8436
 0.7790	15.8017
 0.7780	15.7832
 0.7770	15.7337
 0.7760	15.6934
 0.7750	15.6605
 0.7740	15.6053
 0.7730	15.5745
 0.7720	15.5470
 0.7710	15.4972
 0.7700	15.4779
 0.7690	15.4267
 0.7680	15.3909
 0.7670	15.3584
 0.7660	15.3244
 0.7650	15.2856
 0.7640	15.2432
 0.7630	15.2112
 0.7620	15.1758
 0.7610	15.1281
 0.7600	15.1065
 0.7590	15.0709
 0.7580	15.0230
 0.7570	14.9923
 0.7560	14.9562
 0.7550	14.9102
 0.7540	14.8831
 0.7530	14.8407
 0.7520	14.7956
 0.7510	14.7725
 0.7500	14.7346
 0.7490	14.6857
 0.7480	14.6534
 0.7470	14.6134
 0.7460	14.5721
 0.7450	14.5444
 0.7440	14.5069
 0.7430	14.4741
 0.7420	14.4232
 0.7410	14.3827
 0.7400	14.3418
 0.7390	14.2989
 0.7380	14.2653
 0.7370	14.2309
 0.7360	14.1776
 0.7350	14.1379
 0.7340	14.0931
 0.7330	14.0540
 0.7320	14.0117
 0.7310	13.9641
 0.7300	13.9221
 0.7290	13.8754
 0.7280	13.8250
 0.7270	13.7817
 0.7260	13.7384
 0.7250	13.6889
 0.7240	13.6296
 0.7230	13.5871
 0.7220	13.5381
 0.7210	13.4862
 0.7200	13.4349
 0.7190	13.3831
 0.7180	13.3184
 0.7170	13.2626
 0.7160	13.2054
 0.7150	13.1399
 0.7140	13.0782
 0.7130	13.0127
 0.7120	12.9455
 0.7110	12.8795
 0.7100	12.8140
 0.7090	12.7430
 0.7080	12.6725
 0.7070	12.6008
 0.7060	12.5240
 0.7050	12.4444
 0.7040	12.3694
 0.7030	12.2909
 0.7020	12.2117
 0.7010	12.1341
 0.7000	12.0643
 0.6990	11.9891
 0.6980	11.9164
 0.6970	11.8411
 0.6960	11.7705
 0.6950	11.7012
 0.6940	11.6371
 0.6930	11.5700
 0.6920	11.4993
 0.6910	11.4438
 0.6900	11.3877
 0.6890	11.3355
 0.6880	11.2811
 0.6870	11.2344
 0.6860	11.1910
 0.6850	11.1449
 0.6840	11.1092
 0.6830	11.0703
 0.6820	11.0292
 0.6810	10.9873
 0.6800	10.9548
 0.6790	10.9178
 0.6780	10.8810
 0.6770	10.8440
 0.6760	10.7959
 0.6750	10.7424
 0.6740	10.6869
 0.6730	10.6254
 0.6720	10.5601
 0.6710	10.4923
 0.6700	10.4198
 0.6690	10.3482
 0.6680	10.2810
 0.6670	10.2136
 0.6660	10.1463
 0.6650	10.0872
 0.6640	10.0331
 0.6630	 9.9824
 0.6620	 9.9392
 0.6610	 9.9034
 0.6600	 9.8710
 0.6590	 9.8399
 0.6580	 9.8162
 0.6570	 9.7967
 0.6560	 9.7775
 0.6550	 9.7667
 0.6540	 9.7590
 0.6530	 9.7537
 0.6520	 9.7545
 0.6510	 9.7597
 0.6500	 9.7678
 0.6490	 9.7795
 0.6480	 9.7922
 0.6470	 9.8067
 0.6460	 9.8271
 0.6450	 9.8498
 0.6440	 9.8684
 0.6430	 9.8898
 0.6420	 9.9112
 0.6410	 9.9293
 0.6400	 9.9508
 0.6390	 9.9757
 0.6380	 9.9985
 0.6370	10.0160
 0.6360	10.0332
 0.6350	10.0549
 0.6340	10.0741
 0.6330	10.0887
 0.6320	10.1071
 0.6310	10.1215
 0.6300	10.1340
 0.6290	10.1492
 0.6280	10.1632
 0.6270	10.1732
 0.6260	10.1826
 0.6250	10.1906
 0.6240	10.1964
 0.6230	10.2021
 0.6220	10.2043
 0.6210	10.2044
 0.6200	10.2052
 0.6190	10.2012
 0.6180	10.1924
 0.6170	10.1867
 0.6160	10.1787
 0.6150	10.1651
 0.6140	10.1494
 0.6130	10.1317
 0.6120	10.1133
 0.6110	10.0917
 0.6100	10.0655
 0.6090	10.0347
 0.6080	10.0030
 0.6070	 9.9667
 0.6060	 9.9294
 0.6050	 9.8909
 0.6040	 9.8497
 0.6030	 9.8102
 0.6020	 9.7701
 0.6010	 9.7336
 0.6000	 9.6977
 0.5990	 9.6623
 0.5980	 9.6325
 0.5970	 9.6090
 0.5960	 9.5862
 0.5950	 9.5671
 0.5940	 9.5504
 0.5930	 9.5354
 0.5920	 9.5308
 0.5910	 9.5296
 0.5900	 9.5248
 0.5890	 9.5242
 0.5880	 9.5283
 0.5870	 9.5336
 0.5860	 9.5397
 0.5850	 9.5467
 0.5840	 9.5560
 0.5830	 9.5653
 0.5820	 9.5748
 0.5810	 9.5850
 0.5800	 9.5902
 0.5790	 9.6005
 0.5780	 9.6090
 0.5770	 9.6164
 0.5760	 9.6223
 0.5750	 9.6295
 0.5740	 9.6390
 0.5730	 9.6449
 0.5720	 9.6531
 0.5710	 9.6614
 0.5700	 9.6657
 0.5690	 9.6718
 0.5680	 9.6789
 0.5670	 9.6849
 0.5660	 9.6906
 0.5650	 9.6968
 0.5640	 9.7035
 0.5630	 9.7062
 0.5620	 9.7160
 0.5610	 9.7285
 0.5600	 9.7367
 0.5590	 9.7432
 0.5580	 9.7482
 0.5570	 9.7548
 0.5560	 9.7641
 0.5550	 9.7675
 0.5540	 9.7779
 0.5530	 9.7846
 0.5520	 9.7924
 0.5510	 9.7999
 0.5500	 9.8070
 0.5490	 9.8141
 0.5480	 9.8210
 0.5470	 9.8260
 0.5460	 9.8314
 0.5450	 9.8426
 0.5440	 9.8526
 0.5430	 9.8607
 0.5420	 9.8720
 0.5410	 9.8782
 0.5400	 9.8889
 0.5390	 9.9006
 0.5380	 9.9065
 0.5370	 9.9165
 0.5360	 9.9270
 0.5350	 9.9355
 0.5340	 9.9456
 0.5330	 9.9579
 0.5320	 9.9716
 0.5310	 9.9811
 0.5300	 9.9949
 0.5290	10.0044
 0.5280	10.0199
 0.5270	10.0344
 0.5260	10.0460
 0.5250	10.0634
 0.5240	10.0768
 0.5230	10.0892
 0.5220	10.1090
 0.5210	10.1223
 0.5200	10.1368
 0.5190	10.1558
 0.5180	10.1746
 0.5170	10.1921
 0.5160	10.2072
 0.5150	10.2333
 0.5140	10.2506
 0.5130	10.2691
 0.5120	10.2978
 0.5110	10.3185
 0.5100	10.3380
 0.5090	10.3643
 0.5080	10.3907
 0.5070	10.4103
 0.5060	10.4364
 0.5050	10.4678
 0.5040	10.4890
 0.5030	10.5162
 0.5020	10.5460
 0.5010	10.5801
 0.5000	10.6067
 0.4990	10.6345
 0.4980	10.6658
 0.4970	10.6913
 0.4960	10.7240
 0.4950	10.7473
 0.4940	10.7766
 0.4930	10.8064
 0.4920	10.8353
 0.4910	10.8631
 0.4900	10.8920
 0.4890	10.9174
 0.4880	10.9456
 0.4870	10.9728
 0.4860	10.9966
 0.4850	11.0185
 0.4840	11.0410
 0.4830	11.0647
 0.4820	11.0856
 0.4810	11.1017
 0.4800	11.1215
 0.4790	11.1279
 0.4780	11.1387
 0.4770	11.1569
 0.4760	11.1748
 0.4750	11.1909
 0.4740	11.2123
 0.4730	11.2321
 0.4720	11.2556
 0.4710	11.2772
 0.4700	11.2967
 0.4690	11.3154
 0.4680	11.3333
 0.4670	11.3523
 0.4660	11.3704
 0.4650	11.3902
 0.4640	11.4085
 0.4630	11.4283
 0.4620	11.4419
 0.4610	11.4543
 0.4600	11.4647
 0.4590	11.4797
 0.4580	11.4873
 0.4570	11.4878
 0.4560	11.4971
 0.4550	11.5037
 0.4540	11.5029
 0.4530	11.5020
 0.4520	11.4915
 0.4510	11.4817
 0.4500	11.4755
 0.4490	11.4610
 0.4480	11.4479
 0.4470	11.4323
 0.4460	11.4116
 0.4450	11.3868
 0.4440	11.3706
 0.4430	11.3406
 0.4420	11.3123
 0.4410	11.2872
 0.4400	11.2600
 0.4390	11.2318
 0.4380	11.2067
 0.4370	11.1814
 0.4360	11.1494
 0.4350	11.1260
 0.4340	11.1083
 0.4330	11.0869
 0.4320	11.0743
 0.4310	11.0577
 0.4300	11.0430
 0.4290	11.0300
 0.4280	11.0151
 0.4270	11.0025
 0.4260	10.9958
 0.4250	10.9950
 0.4240	10.9824
 0.4230	10.9806
 0.4220	10.9815
 0.4210	10.9757
 0.4200	10.9747
 0.4190	10.9750
 0.4180	10.9737
 0.4170	10.9771
 0.4160	10.9806
 0.4150	10.9814
 0.4140	10.9854
 0.4130	10.9881
 0.4120	10.9911
 0.4110	10.9953
 0.4100	11.0030
 0.4090	11.0084
 0.4080	11.0152
 0.4070	11.0196
 0.4060	11.0244
 0.4050	11.0284
 0.4040	11.0276
 0.4030	11.0365
 0.4020	11.0384
 0.4010	11.0410
 0.4000	11.0495
