Name: Montebrasite LiAlPO_4(OH)
Type: Mineral
Class: Phosphate
Subclass: None
Particle Size: Fine
Sample No.: P-2A
Owner: JPL
Wavelength Range: VSWIR
Origin: USA, Couth Dakota, Custer County, Custer.
Collection Date: N/A
Description: Particle size was 0-45um. Collected by:  Burminco Original ASTER Spectral Library name was jpl.perkin.mineral.phosphate.none.fine.p02a.spectrum.txt
Measurement: Hemispherical reflectance
First Column: X
Second Column: Y
X Units: Wavelength (micrometers)
Y Units:Reflectance (percent)
First X Value:  2.5000
Last X Value:  0.4000
Number of X Values: 2101
Additional Information: mineral.phosphate.none.fine.vswir.p-2a.jpl.perkin.ancillary.txt

 2.5000	49.6459
 2.4990	49.3358
 2.4980	49.5091
 2.4970	49.5152
 2.4960	49.4777
 2.4950	49.6384
 2.4940	49.8448
 2.4930	49.8690
 2.4920	49.9948
 2.4910	49.8710
 2.4900	50.1062
 2.4890	49.9956
 2.4880	50.1970
 2.4870	50.1494
 2.4860	50.4679
 2.4850	50.3116
 2.4840	50.4800
 2.4830	50.2905
 2.4820	50.6120
 2.4810	50.6605
 2.4800	50.8014
 2.4790	50.6267
 2.4780	51.0309
 2.4770	50.9758
 2.4760	51.2254
 2.4750	51.1755
 2.4740	51.4667
 2.4730	51.3752
 2.4720	51.4981
 2.4710	51.5401
 2.4700	51.9132
 2.4690	51.8772
 2.4680	51.9712
 2.4670	52.0056
 2.4660	52.3881
 2.4650	52.4210
 2.4640	52.4346
 2.4630	52.6229
 2.4620	52.7249
 2.4610	52.8596
 2.4600	53.0300
 2.4590	53.0708
 2.4580	53.1827
 2.4570	53.1381
 2.4560	53.4134
 2.4550	53.5896
 2.4540	53.6716
 2.4530	53.6339
 2.4520	53.8033
 2.4510	53.9227
 2.4500	53.9526
 2.4490	54.1659
 2.4480	54.1946
 2.4470	54.2728
 2.4460	54.3681
 2.4450	54.2872
 2.4440	54.4878
 2.4430	54.5623
 2.4420	54.7425
 2.4410	54.8141
 2.4400	54.8139
 2.4390	54.8797
 2.4380	54.9247
 2.4370	54.9637
 2.4360	55.1213
 2.4350	55.1189
 2.4340	55.0960
 2.4330	55.1440
 2.4320	55.1719
 2.4310	55.2402
 2.4300	55.3167
 2.4290	55.3274
 2.4280	55.4177
 2.4270	55.3544
 2.4260	55.4278
 2.4250	55.4427
 2.4240	55.4938
 2.4230	55.5238
 2.4220	55.4230
 2.4210	55.4744
 2.4200	55.4560
 2.4190	55.4580
 2.4180	55.5624
 2.4170	55.5164
 2.4160	55.5663
 2.4150	55.4906
 2.4140	55.3799
 2.4130	55.3059
 2.4120	55.3207
 2.4110	55.2889
 2.4100	55.2441
 2.4090	55.1136
 2.4080	55.0854
 2.4070	54.9989
 2.4060	54.9050
 2.4050	54.7676
 2.4040	54.7491
 2.4030	54.5880
 2.4020	54.3441
 2.4010	54.2368
 2.4000	54.0792
 2.3990	53.8219
 2.3980	53.6392
 2.3970	53.2989
 2.3960	53.0448
 2.3950	52.7765
 2.3940	52.4808
 2.3930	52.1093
 2.3920	51.6995
 2.3910	51.2992
 2.3900	50.8643
 2.3890	50.4258
 2.3880	49.9943
 2.3870	49.4910
 2.3860	48.9775
 2.3850	48.4552
 2.3840	47.9509
 2.3830	47.4577
 2.3820	46.9856
 2.3810	46.4893
 2.3800	46.0545
 2.3790	45.6311
 2.3780	45.3351
 2.3770	45.0748
 2.3760	44.8235
 2.3750	44.6463
 2.3740	44.5740
 2.3730	44.5058
 2.3720	44.6020
 2.3710	44.7155
 2.3700	44.8508
 2.3690	45.1186
 2.3680	45.4840
 2.3670	45.8598
 2.3660	46.2814
 2.3650	46.7643
 2.3640	47.2844
 2.3630	47.8905
 2.3620	48.5407
 2.3610	49.1307
 2.3600	49.7113
 2.3590	50.3101
 2.3580	50.9249
 2.3570	51.5303
 2.3560	52.1267
 2.3550	52.7062
 2.3540	53.2289
 2.3530	53.6685
 2.3520	54.1037
 2.3510	54.4990
 2.3500	54.8710
 2.3490	55.2485
 2.3480	55.5713
 2.3470	55.8420
 2.3460	56.1584
 2.3450	56.4031
 2.3440	56.5923
 2.3430	56.7145
 2.3420	56.8618
 2.3410	57.0263
 2.3400	57.1094
 2.3390	57.2613
 2.3380	57.3850
 2.3370	57.4520
 2.3360	57.5012
 2.3350	57.5916
 2.3340	57.6596
 2.3330	57.6679
 2.3320	57.6750
 2.3310	57.7317
 2.3300	57.7720
 2.3290	57.8223
 2.3280	57.8632
 2.3270	57.8175
 2.3260	57.7792
 2.3250	57.8331
 2.3240	57.8593
 2.3230	57.8611
 2.3220	57.8057
 2.3210	57.8283
 2.3200	57.8471
 2.3190	57.8405
 2.3180	57.8161
 2.3170	57.8269
 2.3160	57.8338
 2.3150	57.8520
 2.3140	57.8000
 2.3130	57.8049
 2.3120	57.7533
 2.3110	57.7725
 2.3100	57.6852
 2.3090	57.6990
 2.3080	57.6831
 2.3070	57.6905
 2.3060	57.5830
 2.3050	57.6051
 2.3040	57.5820
 2.3030	57.5625
 2.3020	57.4737
 2.3010	57.4246
 2.3000	57.4491
 2.2990	57.4081
 2.2980	57.3359
 2.2970	57.3561
 2.2960	57.2249
 2.2950	57.1595
 2.2940	57.0750
 2.2930	57.0354
 2.2920	56.9751
 2.2910	56.9426
 2.2900	56.8698
 2.2890	56.7711
 2.2880	56.6667
 2.2870	56.6587
 2.2860	56.5241
 2.2850	56.4995
 2.2840	56.4199
 2.2830	56.3472
 2.2820	56.2731
 2.2810	56.2871
 2.2800	56.1407
 2.2790	56.1335
 2.2780	56.0684
 2.2770	56.0274
 2.2760	56.0058
 2.2750	55.9665
 2.2740	55.9267
 2.2730	55.8810
 2.2720	55.8238
 2.2710	55.8728
 2.2700	55.8611
 2.2690	55.7456
 2.2680	55.7514
 2.2670	55.7014
 2.2660	55.6669
 2.2650	55.6677
 2.2640	55.6744
 2.2630	55.6731
 2.2620	55.5690
 2.2610	55.5100
 2.2600	55.4855
 2.2590	55.4761
 2.2580	55.3639
 2.2570	55.3521
 2.2560	55.2892
 2.2550	55.2161
 2.2540	55.1302
 2.2530	55.1123
 2.2520	55.0443
 2.2510	55.0060
 2.2500	54.8805
 2.2490	54.7996
 2.2480	54.7496
 2.2470	54.7177
 2.2460	54.4895
 2.2450	54.4877
 2.2440	54.3702
 2.2430	54.3373
 2.2420	54.2777
 2.2410	54.2141
 2.2400	53.9725
 2.2390	53.9924
 2.2380	53.8699
 2.2370	53.8143
 2.2360	53.6665
 2.2350	53.7011
 2.2340	53.5695
 2.2330	53.4482
 2.2320	53.3668
 2.2310	53.2326
 2.2300	53.0534
 2.2290	53.0121
 2.2280	52.9208
 2.2270	52.7954
 2.2260	52.6945
 2.2250	52.5435
 2.2240	52.4468
 2.2230	52.3186
 2.2220	52.2180
 2.2210	52.2148
 2.2200	52.0022
 2.2190	52.0049
 2.2180	51.8140
 2.2170	51.7241
 2.2160	51.5180
 2.2150	51.3945
 2.2140	51.2490
 2.2130	51.0252
 2.2120	50.9398
 2.2110	50.7127
 2.2100	50.5704
 2.2090	50.3305
 2.2080	50.0400
 2.2070	49.9262
 2.2060	49.6423
 2.2050	49.3558
 2.2040	48.9988
 2.2030	48.7319
 2.2020	48.4499
 2.2010	48.1956
 2.2000	47.8230
 2.1990	47.5964
 2.1980	47.2052
 2.1970	46.9349
 2.1960	46.6111
 2.1950	46.3677
 2.1940	46.0245
 2.1930	45.7419
 2.1920	45.3772
 2.1910	45.2214
 2.1900	44.8736
 2.1890	44.6901
 2.1880	44.3320
 2.1870	44.1313
 2.1860	43.8511
 2.1850	43.7050
 2.1840	43.4542
 2.1830	43.1463
 2.1820	42.9799
 2.1810	42.8184
 2.1800	42.5420
 2.1790	42.4268
 2.1780	42.1892
 2.1770	42.1611
 2.1760	41.9958
 2.1750	41.9774
 2.1740	41.9681
 2.1730	42.1278
 2.1720	42.1620
 2.1710	42.5027
 2.1700	42.7390
 2.1690	43.1644
 2.1680	43.6399
 2.1670	44.2555
 2.1660	44.9335
 2.1650	45.7892
 2.1640	46.5666
 2.1630	47.4258
 2.1620	48.2953
 2.1610	49.2369
 2.1600	50.0458
 2.1590	50.9543
 2.1580	51.7970
 2.1570	52.5884
 2.1560	53.1995
 2.1550	53.8323
 2.1540	54.4388
 2.1530	54.9958
 2.1520	55.4759
 2.1510	55.8888
 2.1500	56.1683
 2.1490	56.4970
 2.1480	56.7101
 2.1470	56.8969
 2.1460	57.0971
 2.1450	57.3149
 2.1440	57.4594
 2.1430	57.6520
 2.1420	57.6510
 2.1410	57.7754
 2.1400	57.8758
 2.1390	57.9416
 2.1380	57.9668
 2.1370	58.0407
 2.1360	58.0761
 2.1350	58.1308
 2.1340	58.0855
 2.1330	58.2019
 2.1320	58.2251
 2.1310	58.2468
 2.1300	58.1929
 2.1290	58.2401
 2.1280	58.2388
 2.1270	58.2667
 2.1260	58.2031
 2.1250	58.2239
 2.1240	58.2460
 2.1230	58.2538
 2.1220	58.1980
 2.1210	58.1989
 2.1200	58.1568
 2.1190	58.1705
 2.1180	58.1604
 2.1170	58.1295
 2.1160	58.0708
 2.1150	58.0837
 2.1140	58.0801
 2.1130	58.0711
 2.1120	58.0437
 2.1110	58.0019
 2.1100	57.9531
 2.1090	57.9993
 2.1080	57.9752
 2.1070	58.0256
 2.1060	58.0162
 2.1050	57.9530
 2.1040	57.9382
 2.1030	57.9476
 2.1020	57.9556
 2.1010	57.9746
 2.1000	57.9075
 2.0990	57.9354
 2.0980	57.9967
 2.0970	57.9885
 2.0960	58.0030
 2.0950	58.0500
 2.0940	58.0469
 2.0930	58.0652
 2.0920	58.0939
 2.0910	58.1239
 2.0900	58.1198
 2.0890	58.1544
 2.0880	58.1372
 2.0870	58.1235
 2.0860	58.1482
 2.0850	58.1724
 2.0840	58.1498
 2.0830	58.1399
 2.0820	58.1106
 2.0810	58.0794
 2.0800	58.0672
 2.0790	58.1055
 2.0780	58.1253
 2.0770	58.1216
 2.0760	58.1067
 2.0750	58.0630
 2.0740	58.0620
 2.0730	58.0762
 2.0720	58.0776
 2.0710	58.0858
 2.0700	58.0821
 2.0690	58.0972
 2.0680	58.1114
 2.0670	58.1353
 2.0660	58.1532
 2.0650	58.1839
 2.0640	58.1778
 2.0630	58.1701
 2.0620	58.1888
 2.0610	58.1974
 2.0600	58.2146
 2.0590	58.2183
 2.0580	58.2798
 2.0570	58.2672
 2.0560	58.3001
 2.0550	58.3360
 2.0540	58.3381
 2.0530	58.3358
 2.0520	58.3879
 2.0510	58.4428
 2.0500	58.4202
 2.0490	58.4050
 2.0480	58.4620
 2.0470	58.4974
 2.0460	58.5682
 2.0450	58.5808
 2.0440	58.5765
 2.0430	58.6287
 2.0420	58.6588
 2.0410	58.6760
 2.0400	58.7052
 2.0390	58.6911
 2.0380	58.7144
 2.0370	58.7468
 2.0360	58.7989
 2.0350	58.7849
 2.0340	58.8038
 2.0330	58.8852
 2.0320	58.9239
 2.0310	58.8881
 2.0300	58.8963
 2.0290	58.8603
 2.0280	58.8768
 2.0270	58.8594
 2.0260	58.8710
 2.0250	58.8542
 2.0240	58.8826
 2.0230	58.8491
 2.0220	58.8603
 2.0210	58.8212
 2.0200	58.7924
 2.0190	58.7638
 2.0180	58.7619
 2.0170	58.6751
 2.0160	58.6944
 2.0150	58.5553
 2.0140	58.4752
 2.0130	58.3818
 2.0120	58.2793
 2.0110	58.1698
 2.0100	58.0747
 2.0090	57.9002
 2.0080	57.7672
 2.0070	57.5690
 2.0060	57.4173
 2.0050	57.1523
 2.0040	56.9732
 2.0030	56.6988
 2.0020	56.5422
 2.0010	56.3092
 2.0000	56.0951
 1.9990	55.9437
 1.9980	55.8614
 1.9970	55.7241
 1.9960	55.7691
 1.9950	55.7938
 1.9940	55.9221
 1.9930	55.9329
 1.9920	56.1253
 1.9910	56.2426
 1.9900	56.4747
 1.9890	56.6986
 1.9880	56.9769
 1.9870	57.0777
 1.9860	57.2641
 1.9850	57.4801
 1.9840	57.6997
 1.9830	57.7595
 1.9820	58.0117
 1.9810	58.1322
 1.9800	58.2859
 1.9790	58.3830
 1.9780	58.5340
 1.9770	58.5960
 1.9760	58.7229
 1.9750	58.6966
 1.9740	58.7891
 1.9730	58.8193
 1.9720	58.8703
 1.9710	58.8874
 1.9700	59.0445
 1.9690	59.0664
 1.9680	59.0648
 1.9670	59.0215
 1.9660	59.1974
 1.9650	59.1675
 1.9640	59.1942
 1.9630	59.1635
 1.9620	59.2422
 1.9610	59.1693
 1.9600	59.2245
 1.9590	59.2015
 1.9580	59.2845
 1.9570	59.2567
 1.9560	59.3147
 1.9550	59.2938
 1.9540	59.3010
 1.9530	59.3845
 1.9520	59.3169
 1.9510	59.3752
 1.9500	59.3438
 1.9490	59.3322
 1.9480	59.4216
 1.9470	59.3845
 1.9460	59.4071
 1.9450	59.4331
 1.9440	59.4360
 1.9430	59.3098
 1.9420	59.4945
 1.9410	59.4197
 1.9400	59.4461
 1.9390	59.4446
 1.9380	59.4910
 1.9370	59.3622
 1.9360	59.4616
 1.9350	59.4655
 1.9340	59.5328
 1.9330	59.4862
 1.9320	59.5198
 1.9310	59.5342
 1.9300	59.5106
 1.9290	59.4896
 1.9280	59.5995
 1.9270	59.5961
 1.9260	59.4808
 1.9250	59.5853
 1.9240	59.5611
 1.9230	59.5112
 1.9220	59.5697
 1.9210	59.5653
 1.9200	59.6687
 1.9190	59.5169
 1.9180	59.6428
 1.9170	59.6390
 1.9160	59.6458
 1.9150	59.5812
 1.9140	59.5831
 1.9130	59.5589
 1.9120	59.6759
 1.9110	59.6782
 1.9100	59.6657
 1.9090	59.6562
 1.9080	59.7119
 1.9070	59.7192
 1.9060	59.7518
 1.9050	59.7511
 1.9040	59.7968
 1.9030	59.7664
 1.9020	59.7853
 1.9010	59.6944
 1.9000	59.8119
 1.8990	59.7925
 1.8980	59.8282
 1.8970	59.7895
 1.8960	59.8484
 1.8950	59.7853
 1.8940	59.8010
 1.8930	59.8656
 1.8920	59.9146
 1.8910	59.8065
 1.8900	59.9388
 1.8890	59.8218
 1.8880	59.8653
 1.8870	59.9030
 1.8860	59.8292
 1.8850	59.9032
 1.8840	59.8950
 1.8830	59.8241
 1.8820	59.8986
 1.8810	59.8855
 1.8800	59.9251
 1.8790	59.9273
 1.8780	59.9674
 1.8770	59.9324
 1.8760	59.8732
 1.8750	59.8873
 1.8740	60.0135
 1.8730	59.9923
 1.8720	60.0820
 1.8710	60.0307
 1.8700	60.0324
 1.8690	59.8884
 1.8680	59.9121
 1.8670	59.9236
 1.8660	59.9011
 1.8650	59.8641
 1.8640	59.8144
 1.8630	59.7552
 1.8620	59.7623
 1.8610	59.7273
 1.8600	59.7438
 1.8590	59.6524
 1.8580	59.6478
 1.8570	59.5499
 1.8560	59.5570
 1.8550	59.5054
 1.8540	59.5344
 1.8530	59.5377
 1.8520	59.4589
 1.8510	59.4787
 1.8500	59.5110
 1.8490	59.5413
 1.8480	59.5673
 1.8470	59.5374
 1.8460	59.6036
 1.8450	59.5985
 1.8440	59.6787
 1.8430	59.7150
 1.8420	59.7924
 1.8410	59.8250
 1.8400	59.8968
 1.8390	59.9923
 1.8380	60.1078
 1.8370	60.1192
 1.8360	60.1937
 1.8350	60.2646
 1.8340	60.3061
 1.8330	60.3322
 1.8320	60.3845
 1.8310	60.4046
 1.8300	60.4427
 1.8290	60.5069
 1.8280	60.4919
 1.8270	60.4560
 1.8260	60.5252
 1.8250	60.5640
 1.8240	60.5765
 1.8230	60.5583
 1.8220	60.5806
 1.8210	60.6001
 1.8200	60.5967
 1.8190	60.6008
 1.8180	60.6060
 1.8170	60.6083
 1.8160	60.6186
 1.8150	60.6368
 1.8140	60.6629
 1.8130	60.6230
 1.8120	60.5942
 1.8110	60.6029
 1.8100	60.5962
 1.8090	60.5864
 1.8080	60.5977
 1.8070	60.5918
 1.8060	60.5852
 1.8050	60.5769
 1.8040	60.6162
 1.8030	60.5902
 1.8020	60.6074
 1.8010	60.6099
 1.8000	60.5885
 1.7990	60.5862
 1.7980	60.5917
 1.7970	60.6096
 1.7960	60.5990
 1.7950	60.5887
 1.7940	60.5708
 1.7930	60.5368
 1.7920	60.5680
 1.7910	60.5938
 1.7900	60.5351
 1.7890	60.4984
 1.7880	60.4903
 1.7870	60.5013
 1.7860	60.5234
 1.7850	60.5079
 1.7840	60.5053
 1.7830	60.4752
 1.7820	60.5088
 1.7810	60.5282
 1.7800	60.4710
 1.7790	60.4664
 1.7780	60.4719
 1.7770	60.4444
 1.7760	60.4610
 1.7750	60.4356
 1.7740	60.4256
 1.7730	60.4665
 1.7720	60.4545
 1.7710	60.4493
 1.7700	60.4346
 1.7690	60.4645
 1.7680	60.4549
 1.7670	60.4087
 1.7660	60.4106
 1.7650	60.4442
 1.7640	60.4617
 1.7630	60.4546
 1.7620	60.4726
 1.7610	60.4926
 1.7600	60.4766
 1.7590	60.4921
 1.7580	60.4727
 1.7570	60.4777
 1.7560	60.4922
 1.7550	60.5356
 1.7540	60.5518
 1.7530	60.5701
 1.7520	60.5367
 1.7510	60.5545
 1.7500	60.5661
 1.7490	60.5593
 1.7480	60.5091
 1.7470	60.5457
 1.7460	60.5731
 1.7450	60.5968
 1.7440	60.5819
 1.7430	60.5489
 1.7420	60.5819
 1.7410	60.6324
 1.7400	60.6054
 1.7390	60.6016
 1.7380	60.5848
 1.7370	60.6117
 1.7360	60.5873
 1.7350	60.6151
 1.7340	60.6679
 1.7330	60.6688
 1.7320	60.6807
 1.7310	60.7368
 1.7300	60.6936
 1.7290	60.6850
 1.7280	60.6351
 1.7270	60.7275
 1.7260	60.7363
 1.7250	60.7550
 1.7240	60.7300
 1.7230	60.7506
 1.7220	60.7721
 1.7210	60.7579
 1.7200	60.7482
 1.7190	60.7641
 1.7180	60.7675
 1.7170	60.8299
 1.7160	60.8210
 1.7150	60.8758
 1.7140	60.8173
 1.7130	60.8749
 1.7120	60.8166
 1.7110	60.8430
 1.7100	60.8395
 1.7090	60.9007
 1.7080	60.8690
 1.7070	60.8406
 1.7060	60.9176
 1.7050	60.8543
 1.7040	60.8244
 1.7030	60.8739
 1.7020	60.8371
 1.7010	60.8752
 1.7000	60.9242
 1.6990	60.8905
 1.6980	60.8373
 1.6970	60.9152
 1.6960	60.8976
 1.6950	60.9133
 1.6940	60.8507
 1.6930	60.8736
 1.6920	60.7888
 1.6910	60.9034
 1.6900	60.8718
 1.6890	60.8372
 1.6880	60.8222
 1.6870	60.8594
 1.6860	60.8878
 1.6850	60.8509
 1.6840	60.8663
 1.6830	60.8742
 1.6820	60.8709
 1.6810	60.9188
 1.6800	60.8270
 1.6790	60.8824
 1.6780	60.8794
 1.6770	60.8805
 1.6760	60.8781
 1.6750	60.9312
 1.6740	60.8559
 1.6730	60.9480
 1.6720	60.8504
 1.6710	60.8715
 1.6700	60.8361
 1.6690	60.9295
 1.6680	60.8123
 1.6670	60.8661
 1.6660	60.8198
 1.6650	60.8832
 1.6640	60.8615
 1.6630	60.9139
 1.6620	60.8138
 1.6610	60.7731
 1.6600	60.8419
 1.6590	60.8858
 1.6580	60.8325
 1.6570	60.9515
 1.6560	60.8484
 1.6550	60.9032
 1.6540	60.8191
 1.6530	60.8788
 1.6520	60.8972
 1.6510	60.8854
 1.6500	60.7581
 1.6490	60.9084
 1.6480	60.7853
 1.6470	60.9434
 1.6460	60.8298
 1.6450	60.9106
 1.6440	60.8051
 1.6430	60.8403
 1.6420	60.8938
 1.6410	60.8034
 1.6400	60.9352
 1.6390	60.8803
 1.6380	60.9063
 1.6370	60.9167
 1.6360	60.8190
 1.6350	60.8977
 1.6340	60.7483
 1.6330	60.8257
 1.6320	60.8038
 1.6310	60.9265
 1.6300	60.8794
 1.6290	60.9528
 1.6280	60.8770
 1.6270	60.8917
 1.6260	60.8426
 1.6250	60.8403
 1.6240	60.7767
 1.6230	60.8683
 1.6220	60.7850
 1.6210	60.9240
 1.6200	60.7685
 1.6190	60.8147
 1.6180	60.8878
 1.6170	60.9081
 1.6160	60.8639
 1.6150	60.9155
 1.6140	60.8235
 1.6130	60.8658
 1.6120	60.7677
 1.6110	60.8631
 1.6100	60.8053
 1.6090	60.8211
 1.6080	60.8119
 1.6070	60.9408
 1.6060	60.8772
 1.6050	60.8304
 1.6040	60.7854
 1.6030	60.8111
 1.6020	60.7898
 1.6010	60.8354
 1.6000	60.8226
 1.5990	60.8618
 1.5980	60.7588
 1.5970	60.8244
 1.5960	60.8375
 1.5950	60.8769
 1.5940	60.7489
 1.5930	60.8528
 1.5920	60.7591
 1.5910	60.7798
 1.5900	60.7862
 1.5890	60.7799
 1.5880	60.7680
 1.5870	60.8026
 1.5860	60.7834
 1.5850	60.8028
 1.5840	60.7080
 1.5830	60.7707
 1.5820	60.7350
 1.5810	60.7685
 1.5800	60.6668
 1.5790	60.7331
 1.5780	60.6995
 1.5770	60.7098
 1.5760	60.7040
 1.5750	60.6991
 1.5740	60.7011
 1.5730	60.6728
 1.5720	60.6451
 1.5710	60.7174
 1.5700	60.6432
 1.5690	60.6546
 1.5680	60.6298
 1.5670	60.6382
 1.5660	60.5830
 1.5650	60.5812
 1.5640	60.5655
 1.5630	60.5692
 1.5620	60.5950
 1.5610	60.5573
 1.5600	60.5086
 1.5590	60.4696
 1.5580	60.4185
 1.5570	60.4295
 1.5560	60.3989
 1.5550	60.3611
 1.5540	60.3448
 1.5530	60.3081
 1.5520	60.2536
 1.5510	60.2650
 1.5500	60.1793
 1.5490	60.1471
 1.5480	60.0845
 1.5470	60.0447
 1.5460	59.9933
 1.5450	60.0247
 1.5440	59.9192
 1.5430	59.8863
 1.5420	59.8659
 1.5410	59.8739
 1.5400	59.8644
 1.5390	59.8535
 1.5380	59.8146
 1.5370	59.8651
 1.5360	59.8644
 1.5350	59.8400
 1.5340	59.8997
 1.5330	60.0033
 1.5320	60.0383
 1.5310	60.0837
 1.5300	60.1130
 1.5290	60.1411
 1.5280	60.1577
 1.5270	60.2304
 1.5260	60.2454
 1.5250	60.2338
 1.5240	60.2402
 1.5230	60.3057
 1.5220	60.3284
 1.5210	60.3168
 1.5200	60.3793
 1.5190	60.4406
 1.5180	60.4270
 1.5170	60.4669
 1.5160	60.4782
 1.5150	60.5029
 1.5140	60.5611
 1.5130	60.5663
 1.5120	60.5900
 1.5110	60.5893
 1.5100	60.6086
 1.5090	60.6709
 1.5080	60.6779
 1.5070	60.6847
 1.5060	60.6888
 1.5050	60.7103
 1.5040	60.7486
 1.5030	60.7889
 1.5020	60.7910
 1.5010	60.8473
 1.5000	60.8678
 1.4990	60.8146
 1.4980	60.8167
 1.4970	60.8774
 1.4960	60.8829
 1.4950	60.9082
 1.4940	60.9072
 1.4930	60.8603
 1.4920	60.8923
 1.4910	60.9422
 1.4900	60.9436
 1.4890	60.9299
 1.4880	60.9506
 1.4870	60.9608
 1.4860	60.9226
 1.4850	60.9487
 1.4840	60.9638
 1.4830	60.9133
 1.4820	60.9215
 1.4810	60.8837
 1.4800	60.8902
 1.4790	60.9259
 1.4780	60.9276
 1.4770	60.9082
 1.4760	60.9517
 1.4750	60.9368
 1.4740	60.9406
 1.4730	60.9932
 1.4720	61.0247
 1.4710	61.0168
 1.4700	61.0186
 1.4690	61.0180
 1.4680	61.0333
 1.4670	61.0546
 1.4660	61.0686
 1.4650	61.0405
 1.4640	61.0262
 1.4630	61.0319
 1.4620	61.0456
 1.4610	61.0433
 1.4600	61.1005
 1.4590	61.1115
 1.4580	61.1219
 1.4570	61.0953
 1.4560	61.0975
 1.4550	61.0923
 1.4540	61.0580
 1.4530	61.0186
 1.4520	61.0518
 1.4510	61.0087
 1.4500	60.9607
 1.4490	60.8864
 1.4480	60.8673
 1.4470	60.7911
 1.4460	60.8006
 1.4450	60.9051
 1.4440	60.9577
 1.4430	61.0272
 1.4420	61.1289
 1.4410	61.0864
 1.4400	61.1802
 1.4390	61.2130
 1.4380	61.2498
 1.4370	61.1475
 1.4360	61.1724
 1.4350	61.2131
 1.4340	61.3389
 1.4330	61.2769
 1.4320	61.2398
 1.4310	61.2069
 1.4300	61.2968
 1.4290	61.2657
 1.4280	61.2731
 1.4270	61.2586
 1.4260	61.2909
 1.4250	61.2694
 1.4240	61.2675
 1.4230	61.2215
 1.4220	61.1956
 1.4210	61.2306
 1.4200	61.1646
 1.4190	61.0318
 1.4180	61.1129
 1.4170	61.1108
 1.4160	61.1647
 1.4150	61.1653
 1.4140	61.1703
 1.4130	61.2346
 1.4120	61.2956
 1.4110	61.3581
 1.4100	61.3368
 1.4090	61.3589
 1.4080	61.3999
 1.4070	61.3182
 1.4060	61.3780
 1.4050	61.3126
 1.4040	61.3877
 1.4030	61.4215
 1.4020	61.4754
 1.4010	61.4034
 1.4000	61.4061
 1.3990	61.4384
 1.3980	61.5762
 1.3970	61.5160
 1.3960	61.5533
 1.3950	61.4822
 1.3940	61.5854
 1.3930	61.5185
 1.3920	61.5214
 1.3910	61.4995
 1.3900	61.6400
 1.3890	61.4997
 1.3880	61.5602
 1.3870	61.4689
 1.3860	61.5292
 1.3850	61.5845
 1.3840	61.6357
 1.3830	61.5622
 1.3820	61.5705
 1.3810	61.5639
 1.3800	61.5940
 1.3790	61.5639
 1.3780	61.6261
 1.3770	61.5448
 1.3760	61.5677
 1.3750	61.5590
 1.3740	61.4994
 1.3730	61.5870
 1.3720	61.5577
 1.3710	61.5052
 1.3700	61.5701
 1.3690	61.5504
 1.3680	61.5738
 1.3670	61.6418
 1.3660	61.5816
 1.3650	61.5105
 1.3640	61.5254
 1.3630	61.5490
 1.3620	61.5776
 1.3610	61.4801
 1.3600	61.5483
 1.3590	61.4921
 1.3580	61.5465
 1.3570	61.5601
 1.3560	61.5716
 1.3550	61.4763
 1.3540	61.4904
 1.3530	61.5129
 1.3520	61.5193
 1.3510	61.5411
 1.3500	61.5175
 1.3490	61.4274
 1.3480	61.5231
 1.3470	61.4404
 1.3460	61.5098
 1.3450	61.4882
 1.3440	61.5112
 1.3430	61.5172
 1.3420	61.5290
 1.3410	61.4744
 1.3400	61.4894
 1.3390	61.5489
 1.3380	61.5944
 1.3370	61.5141
 1.3360	61.5390
 1.3350	61.5556
 1.3340	61.5231
 1.3330	61.5298
 1.3320	61.5240
 1.3310	61.5088
 1.3300	61.6034
 1.3290	61.5622
 1.3280	61.5860
 1.3270	61.5449
 1.3260	61.5699
 1.3250	61.5136
 1.3240	61.5988
 1.3230	61.5779
 1.3220	61.5895
 1.3210	61.5941
 1.3200	61.5874
 1.3190	61.5606
 1.3180	61.6182
 1.3170	61.5518
 1.3160	61.5305
 1.3150	61.5290
 1.3140	61.6204
 1.3130	61.6347
 1.3120	61.5540
 1.3110	61.5849
 1.3100	61.5827
 1.3090	61.5609
 1.3080	61.5933
 1.3070	61.5694
 1.3060	61.5754
 1.3050	61.5874
 1.3040	61.5529
 1.3030	61.5685
 1.3020	61.5941
 1.3010	61.5626
 1.3000	61.6095
 1.2990	61.5915
 1.2980	61.6174
 1.2970	61.5641
 1.2960	61.6155
 1.2950	61.5881
 1.2940	61.5935
 1.2930	61.5490
 1.2920	61.5747
 1.2910	61.5309
 1.2900	61.6017
 1.2890	61.5689
 1.2880	61.5828
 1.2870	61.5111
 1.2860	61.5323
 1.2850	61.5844
 1.2840	61.6269
 1.2830	61.5750
 1.2820	61.5849
 1.2810	61.5644
 1.2800	61.5989
 1.2790	61.5603
 1.2780	61.5669
 1.2770	61.5854
 1.2760	61.6168
 1.2750	61.6382
 1.2740	61.6379
 1.2730	61.5694
 1.2720	61.5692
 1.2710	61.5502
 1.2700	61.5863
 1.2690	61.5837
 1.2680	61.6460
 1.2670	61.6397
 1.2660	61.6447
 1.2650	61.6085
 1.2640	61.6379
 1.2630	61.6035
 1.2620	61.6154
 1.2610	61.6089
 1.2600	61.5648
 1.2590	61.5534
 1.2580	61.6372
 1.2570	61.6730
 1.2560	61.6682
 1.2550	61.6131
 1.2540	61.6252
 1.2530	61.6473
 1.2520	61.6644
 1.2510	61.6571
 1.2500	61.6396
 1.2490	61.6104
 1.2480	61.6835
 1.2470	61.6843
 1.2460	61.6269
 1.2450	61.6644
 1.2440	61.6866
 1.2430	61.6685
 1.2420	61.6232
 1.2410	61.6644
 1.2400	61.6850
 1.2390	61.6457
 1.2380	61.6528
 1.2370	61.6411
 1.2360	61.6603
 1.2350	61.6302
 1.2340	61.6519
 1.2330	61.6649
 1.2320	61.6417
 1.2310	61.6380
 1.2300	61.6866
 1.2290	61.6625
 1.2280	61.6368
 1.2270	61.6857
 1.2260	61.6891
 1.2250	61.6800
 1.2240	61.7032
 1.2230	61.6691
 1.2220	61.6269
 1.2210	61.6596
 1.2200	61.6922
 1.2190	61.7059
 1.2180	61.7035
 1.2170	61.6872
 1.2160	61.6894
 1.2150	61.6823
 1.2140	61.6945
 1.2130	61.6965
 1.2120	61.6846
 1.2110	61.7133
 1.2100	61.6899
 1.2090	61.6412
 1.2080	61.6606
 1.2070	61.6444
 1.2060	61.6797
 1.2050	61.6821
 1.2040	61.6770
 1.2030	61.6860
 1.2020	61.6691
 1.2010	61.7007
 1.2000	61.6999
 1.1990	61.7201
 1.1980	61.7007
 1.1970	61.7193
 1.1960	61.7165
 1.1950	61.7247
 1.1940	61.7153
 1.1930	61.6838
 1.1920	61.7339
 1.1910	61.7742
 1.1900	61.7250
 1.1890	61.7071
 1.1880	61.6988
 1.1870	61.7450
 1.1860	61.7646
 1.1850	61.7987
 1.1840	61.7476
 1.1830	61.7214
 1.1820	61.7104
 1.1810	61.7144
 1.1800	61.7003
 1.1790	61.7049
 1.1780	61.7268
 1.1770	61.7525
 1.1760	61.7261
 1.1750	61.7755
 1.1740	61.7192
 1.1730	61.7864
 1.1720	61.7979
 1.1710	61.7597
 1.1700	61.7668
 1.1690	61.7799
 1.1680	61.7480
 1.1670	61.7835
 1.1660	61.7224
 1.1650	61.7474
 1.1640	61.7891
 1.1630	61.8371
 1.1620	61.8232
 1.1610	61.8281
 1.1600	61.7773
 1.1590	61.8289
 1.1580	61.8038
 1.1570	61.8013
 1.1560	61.7699
 1.1550	61.7840
 1.1540	61.7893
 1.1530	61.8519
 1.1520	61.7740
 1.1510	61.7744
 1.1500	61.8062
 1.1490	61.8489
 1.1480	61.7618
 1.1470	61.8275
 1.1460	61.7766
 1.1450	61.8064
 1.1440	61.7627
 1.1430	61.8526
 1.1420	61.8207
 1.1410	61.8074
 1.1400	61.8515
 1.1390	61.8360
 1.1380	61.7794
 1.1370	61.8088
 1.1360	61.7848
 1.1350	61.8102
 1.1340	61.7665
 1.1330	61.8656
 1.1320	61.8639
 1.1310	61.8795
 1.1300	61.8489
 1.1290	61.8734
 1.1280	61.8993
 1.1270	61.8373
 1.1260	61.8608
 1.1250	61.8538
 1.1240	61.8727
 1.1230	61.8168
 1.1220	61.8416
 1.1210	61.9164
 1.1200	61.8744
 1.1190	61.8655
 1.1180	61.8124
 1.1170	61.8816
 1.1160	61.8293
 1.1150	61.8989
 1.1140	61.9264
 1.1130	61.8659
 1.1120	61.8743
 1.1110	61.9009
 1.1100	61.9293
 1.1090	61.8892
 1.1080	61.8603
 1.1070	61.9190
 1.1060	61.8699
 1.1050	61.9070
 1.1040	61.8996
 1.1030	61.9028
 1.1020	61.8107
 1.1010	61.8237
 1.1000	61.9252
 1.0990	61.9219
 1.0980	61.8961
 1.0970	61.9658
 1.0960	61.9018
 1.0950	61.8390
 1.0940	61.9130
 1.0930	61.9745
 1.0920	61.8893
 1.0910	61.8998
 1.0900	61.8738
 1.0890	61.9231
 1.0880	61.9615
 1.0870	61.9738
 1.0860	61.9627
 1.0850	61.9710
 1.0840	61.9250
 1.0830	62.0044
 1.0820	61.9171
 1.0810	61.9290
 1.0800	61.9346
 1.0790	62.0065
 1.0780	61.8954
 1.0770	62.0302
 1.0760	61.8807
 1.0750	61.9377
 1.0740	61.8772
 1.0730	61.9582
 1.0720	62.0263
 1.0710	62.0528
 1.0700	61.8837
 1.0690	62.0608
 1.0680	61.9137
 1.0670	61.8908
 1.0660	61.9520
 1.0650	61.9738
 1.0640	61.9771
 1.0630	62.0229
 1.0620	61.9156
 1.0610	62.0476
 1.0600	61.9727
 1.0590	62.0771
 1.0580	61.9365
 1.0570	61.9677
 1.0560	61.9959
 1.0550	61.9815
 1.0540	62.0613
 1.0530	61.9749
 1.0520	61.9415
 1.0510	61.9502
 1.0500	62.0302
 1.0490	62.1084
 1.0480	62.0150
 1.0470	62.0136
 1.0460	62.0214
 1.0450	62.0109
 1.0440	62.0350
 1.0430	61.9998
 1.0420	62.0285
 1.0410	61.9596
 1.0400	61.9691
 1.0390	62.0176
 1.0380	62.0148
 1.0370	62.0114
 1.0360	61.9962
 1.0350	62.0105
 1.0340	62.0480
 1.0330	62.0122
 1.0320	62.0730
 1.0310	62.0742
 1.0300	62.0579
 1.0290	62.0287
 1.0280	62.0622
 1.0270	62.0440
 1.0260	62.0452
 1.0250	62.0744
 1.0240	62.1009
 1.0230	62.1169
 1.0220	62.0608
 1.0210	62.1018
 1.0200	62.0510
 1.0190	62.1071
 1.0180	62.0359
 1.0170	62.0445
 1.0160	62.0946
 1.0150	62.1446
 1.0140	62.1184
 1.0130	62.1373
 1.0120	62.1132
 1.0110	62.0642
 1.0100	62.0808
 1.0090	62.1040
 1.0080	62.1166
 1.0070	62.1288
 1.0060	62.0543
 1.0050	62.1022
 1.0040	62.1349
 1.0030	62.1498
 1.0020	62.0533
 1.0010	62.1470
 1.0000	62.1905
 0.9990	62.1292
 0.9980	62.1015
 0.9970	62.1050
 0.9960	62.1502
 0.9950	62.1338
 0.9940	62.1852
 0.9930	62.2300
 0.9920	62.1823
 0.9910	62.1937
 0.9900	62.1267
 0.9890	62.1534
 0.9880	62.1345
 0.9870	62.2017
 0.9860	62.1603
 0.9850	62.1909
 0.9840	62.1936
 0.9830	62.2022
 0.9820	62.1478
 0.9810	62.1295
 0.9800	62.2158
 0.9790	62.2394
 0.9780	62.1704
 0.9770	62.2282
 0.9760	62.2064
 0.9750	62.2656
 0.9740	62.2103
 0.9730	62.2560
 0.9720	62.2451
 0.9710	62.2428
 0.9700	62.2233
 0.9690	62.1924
 0.9680	62.2023
 0.9670	62.2455
 0.9660	62.2450
 0.9650	62.2721
 0.9640	62.2999
 0.9630	62.2998
 0.9620	62.2199
 0.9610	62.2108
 0.9600	62.2319
 0.9590	62.2384
 0.9580	62.2135
 0.9570	62.2897
 0.9560	62.3135
 0.9550	62.2798
 0.9540	62.2461
 0.9530	62.3252
 0.9520	62.3202
 0.9510	62.2976
 0.9500	62.3024
 0.9490	62.3027
 0.9480	62.3464
 0.9470	62.3470
 0.9460	62.3621
 0.9450	62.3802
 0.9440	62.3385
 0.9430	62.3350
 0.9420	62.3430
 0.9410	62.3304
 0.9400	62.3146
 0.9390	62.3288
 0.9380	62.3942
 0.9370	62.4059
 0.9360	62.3720
 0.9350	62.4001
 0.9340	62.4198
 0.9330	62.4087
 0.9320	62.4001
 0.9310	62.4041
 0.9300	62.3898
 0.9290	62.3778
 0.9280	62.4295
 0.9270	62.4373
 0.9260	62.3924
 0.9250	62.3961
 0.9240	62.4151
 0.9230	62.4275
 0.9220	62.4338
 0.9210	62.4056
 0.9200	62.3953
 0.9190	62.4254
 0.9180	62.4071
 0.9170	62.4238
 0.9160	62.4854
 0.9150	62.4390
 0.9140	62.4720
 0.9130	62.4983
 0.9120	62.4892
 0.9110	62.5334
 0.9100	62.5266
 0.9090	62.5156
 0.9080	62.5190
 0.9070	62.5059
 0.9060	62.5790
 0.9050	62.5831
 0.9040	62.5343
 0.9030	62.5571
 0.9020	62.6076
 0.9010	62.5951
 0.9000	62.5941
 0.8990	62.5979
 0.8980	62.6295
 0.8970	62.6018
 0.8960	62.5972
 0.8950	62.5744
 0.8940	62.6181
 0.8930	62.6258
 0.8920	62.6251
 0.8910	62.6260
 0.8900	62.6692
 0.8890	62.5994
 0.8880	62.6663
 0.8870	62.6853
 0.8860	62.7549
 0.8850	62.7145
 0.8840	62.6796
 0.8830	62.6865
 0.8820	62.7045
 0.8810	62.6446
 0.8800	62.6697
 0.8790	62.7024
 0.8780	62.6917
 0.8770	62.7239
 0.8760	62.7516
 0.8750	62.6614
 0.8740	62.6743
 0.8730	62.7320
 0.8720	62.7476
 0.8710	62.7380
 0.8700	62.8190
 0.8690	62.7644
 0.8680	62.7968
 0.8670	62.7059
 0.8660	62.7708
 0.8650	62.7917
 0.8640	62.8053
 0.8630	62.8412
 0.8620	62.8720
 0.8610	62.7954
 0.8600	63.1377
 0.8590	63.2195
 0.8580	63.1297
 0.8570	63.0797
 0.8560	63.1363
 0.8550	63.1122
 0.8540	63.0908
 0.8530	63.1108
 0.8520	63.1362
 0.8510	63.1284
 0.8500	63.1290
 0.8490	63.1553
 0.8480	63.1406
 0.8470	63.1269
 0.8460	63.1746
 0.8450	63.1620
 0.8440	63.1455
 0.8430	63.1561
 0.8420	63.1510
 0.8410	63.1741
 0.8400	63.1562
 0.8390	63.1836
 0.8380	63.2136
 0.8370	63.1550
 0.8360	63.1885
 0.8350	63.1607
 0.8340	63.1907
 0.8330	63.1911
 0.8320	63.2345
 0.8310	63.2221
 0.8300	63.1653
 0.8290	63.2304
 0.8280	63.2637
 0.8270	63.2636
 0.8260	63.2288
 0.8250	63.2382
 0.8240	63.2192
 0.8230	63.2039
 0.8220	63.2435
 0.8210	63.2661
 0.8200	63.2723
 0.8190	63.2354
 0.8180	63.2313
 0.8170	63.2475
 0.8160	63.2028
 0.8150	63.2689
 0.8140	63.2387
 0.8130	63.2409
 0.8120	63.2825
 0.8110	63.2865
 0.8100	63.2372
 0.8090	63.2504
 0.8080	63.2799
 0.8070	63.2763
 0.8060	63.2473
 0.8050	63.2518
 0.8040	63.2735
 0.8030	63.2804
 0.8020	63.2724
 0.8010	63.2916
 0.8000	63.2622
 0.7990	63.2527
 0.7980	63.2519
 0.7970	63.2855
 0.7960	63.2216
 0.7950	63.2260
 0.7940	63.2497
 0.7930	63.2110
 0.7920	63.2147
 0.7910	63.2310
 0.7900	63.2421
 0.7890	63.2319
 0.7880	63.2347
 0.7870	63.2205
 0.7860	63.2230
 0.7850	63.2618
 0.7840	63.2453
 0.7830	63.2488
 0.7820	63.2198
 0.7810	63.2483
 0.7800	63.2636
 0.7790	63.2045
 0.7780	63.2344
 0.7770	63.2930
 0.7760	63.1992
 0.7750	63.2221
 0.7740	63.2025
 0.7730	63.2095
 0.7720	63.1886
 0.7710	63.2298
 0.7700	63.1909
 0.7690	63.1799
 0.7680	63.2297
 0.7670	63.2465
 0.7660	63.2119
 0.7650	63.1998
 0.7640	63.2481
 0.7630	63.2066
 0.7620	63.2066
 0.7610	63.2263
 0.7600	63.2133
 0.7590	63.2097
 0.7580	63.2189
 0.7570	63.2207
 0.7560	63.2156
 0.7550	63.2195
 0.7540	63.2029
 0.7530	63.2068
 0.7520	63.2279
 0.7510	63.2368
 0.7500	63.2108
 0.7490	63.1962
 0.7480	63.2146
 0.7470	63.2443
 0.7460	63.2124
 0.7450	63.2276
 0.7440	63.2313
 0.7430	63.2309
 0.7420	63.2267
 0.7410	63.2437
 0.7400	63.2171
 0.7390	63.2299
 0.7380	63.2263
 0.7370	63.2317
 0.7360	63.2224
 0.7350	63.2092
 0.7340	63.2486
 0.7330	63.2379
 0.7320	63.2317
 0.7310	63.2391
 0.7300	63.2475
 0.7290	63.2539
 0.7280	63.2245
 0.7270	63.2346
 0.7260	63.2442
 0.7250	63.2454
 0.7240	63.2415
 0.7230	63.2717
 0.7220	63.2456
 0.7210	63.2698
 0.7200	63.2489
 0.7190	63.2691
 0.7180	63.2396
 0.7170	63.2312
 0.7160	63.2527
 0.7150	63.2384
 0.7140	63.2520
 0.7130	63.2458
 0.7120	63.2576
 0.7110	63.2522
 0.7100	63.2392
 0.7090	63.2472
 0.7080	63.2608
 0.7070	63.2636
 0.7060	63.2611
 0.7050	63.2566
 0.7040	63.2400
 0.7030	63.2526
 0.7020	63.2565
 0.7010	63.2407
 0.7000	63.2537
 0.6990	63.2651
 0.6980	63.2455
 0.6970	63.2503
 0.6960	63.2575
 0.6950	63.2591
 0.6940	63.2739
 0.6930	63.2715
 0.6920	63.2599
 0.6910	63.2567
 0.6900	63.2715
 0.6890	63.2791
 0.6880	63.2553
 0.6870	63.2583
 0.6860	63.2730
 0.6850	63.2775
 0.6840	63.2775
 0.6830	63.2848
 0.6820	63.2816
 0.6810	63.2641
 0.6800	63.2759
 0.6790	63.2764
 0.6780	63.2744
 0.6770	63.2687
 0.6760	63.2723
 0.6750	63.2681
 0.6740	63.2533
 0.6730	63.2556
 0.6720	63.2665
 0.6710	63.2610
 0.6700	63.2529
 0.6690	63.2620
 0.6680	63.2787
 0.6670	63.2646
 0.6660	63.2587
 0.6650	63.2626
 0.6640	63.2701
 0.6630	63.2650
 0.6620	63.2713
 0.6610	63.2722
 0.6600	63.2726
 0.6590	63.2683
 0.6580	63.2663
 0.6570	63.2695
 0.6560	63.2757
 0.6550	63.2787
 0.6540	63.2798
 0.6530	63.2842
 0.6520	63.2777
 0.6510	63.2728
 0.6500	63.2674
 0.6490	63.2651
 0.6480	63.2668
 0.6470	63.2647
 0.6460	63.2633
 0.6450	63.2685
 0.6440	63.2723
 0.6430	63.2797
 0.6420	63.2805
 0.6410	63.2750
 0.6400	63.2832
 0.6390	63.2872
 0.6380	63.2804
 0.6370	63.2680
 0.6360	63.2750
 0.6350	63.2716
 0.6340	63.2637
 0.6330	63.2711
 0.6320	63.2718
 0.6310	63.2790
 0.6300	63.2858
 0.6290	63.2773
 0.6280	63.2780
 0.6270	63.2799
 0.6260	63.2687
 0.6250	63.2744
 0.6240	63.2706
 0.6230	63.2682
 0.6220	63.2708
 0.6210	63.2696
 0.6200	63.2757
 0.6190	63.2866
 0.6180	63.2799
 0.6170	63.2723
 0.6160	63.2735
 0.6150	63.2715
 0.6140	63.2758
 0.6130	63.2790
 0.6120	63.2769
 0.6110	63.2651
 0.6100	63.2705
 0.6090	63.2839
 0.6080	63.2654
 0.6070	63.2682
 0.6060	63.2690
 0.6050	63.2716
 0.6040	63.2732
 0.6030	63.2689
 0.6020	63.2619
 0.6010	63.2607
 0.6000	63.2567
 0.5990	63.2544
 0.5980	63.2801
 0.5970	63.2943
 0.5960	63.2979
 0.5950	63.3144
 0.5940	63.3252
 0.5930	63.3071
 0.5920	63.3117
 0.5910	63.3165
 0.5900	63.3150
 0.5890	63.3153
 0.5880	63.2980
 0.5870	63.2959
 0.5860	63.3051
 0.5850	63.3024
 0.5840	63.2983
 0.5830	63.2971
 0.5820	63.2968
 0.5810	63.2829
 0.5800	63.2862
 0.5790	63.2825
 0.5780	63.2805
 0.5770	63.2691
 0.5760	63.2689
 0.5750	63.2654
 0.5740	63.2748
 0.5730	63.2721
 0.5720	63.2680
 0.5710	63.2704
 0.5700	63.2608
 0.5690	63.2532
 0.5680	63.2568
 0.5670	63.2658
 0.5660	63.2556
 0.5650	63.2552
 0.5640	63.2571
 0.5630	63.2530
 0.5620	63.2448
 0.5610	63.2368
 0.5600	63.2256
 0.5590	63.2263
 0.5580	63.2252
 0.5570	63.2073
 0.5560	63.1965
 0.5550	63.2036
 0.5540	63.2037
 0.5530	63.1980
 0.5520	63.1830
 0.5510	63.1760
 0.5500	63.1895
 0.5490	63.1951
 0.5480	63.1775
 0.5470	63.1719
 0.5460	63.1757
 0.5450	63.1459
 0.5440	63.1562
 0.5430	63.1534
 0.5420	63.1602
 0.5410	63.1494
 0.5400	63.1451
 0.5390	63.1326
 0.5380	63.1235
 0.5370	63.1340
 0.5360	63.1245
 0.5350	63.1284
 0.5340	63.1187
 0.5330	63.0995
 0.5320	63.1063
 0.5310	63.1002
 0.5300	63.0938
 0.5290	63.0884
 0.5280	63.0911
 0.5270	63.0699
 0.5260	63.0679
 0.5250	63.0646
 0.5240	63.0526
 0.5230	63.0613
 0.5220	63.0402
 0.5210	63.0508
 0.5200	63.0193
 0.5190	63.0347
 0.5180	63.0250
 0.5170	63.0369
 0.5160	63.0071
 0.5150	63.0139
 0.5140	63.0056
 0.5130	62.9925
 0.5120	62.9747
 0.5110	62.9762
 0.5100	62.9605
 0.5090	62.9595
 0.5080	62.9688
 0.5070	62.9316
 0.5060	62.9530
 0.5050	62.9291
 0.5040	62.9282
 0.5030	62.9197
 0.5020	62.8925
 0.5010	62.9097
 0.5000	62.8751
 0.4990	62.8852
 0.4980	62.8799
 0.4970	62.8680
 0.4960	62.8475
 0.4950	62.8776
 0.4940	62.8602
 0.4930	62.8286
 0.4920	62.8231
 0.4910	62.8073
 0.4900	62.7850
 0.4890	62.7854
 0.4880	62.7777
 0.4870	62.7804
 0.4860	62.7512
 0.4850	62.7696
 0.4840	62.7447
 0.4830	62.7448
 0.4820	62.7221
 0.4810	62.7039
 0.4800	62.7218
 0.4790	62.7237
 0.4780	62.7357
 0.4770	62.7364
 0.4760	62.7315
 0.4750	62.7351
 0.4740	62.7482
 0.4730	62.7353
 0.4720	62.7192
 0.4710	62.7249
 0.4700	62.7144
 0.4690	62.6998
 0.4680	62.7275
 0.4670	62.7102
 0.4660	62.7043
 0.4650	62.6979
 0.4640	62.7030
 0.4630	62.7039
 0.4620	62.6939
 0.4610	62.7015
 0.4600	62.6882
 0.4590	62.6657
 0.4580	62.6883
 0.4570	62.6984
 0.4560	62.6635
 0.4550	62.6569
 0.4540	62.6511
 0.4530	62.6424
 0.4520	62.6257
 0.4510	62.6314
 0.4500	62.6177
 0.4490	62.5992
 0.4480	62.6049
 0.4470	62.5910
 0.4460	62.5829
 0.4450	62.5623
 0.4440	62.5520
 0.4430	62.5310
 0.4420	62.5224
 0.4410	62.5166
 0.4400	62.5064
 0.4390	62.4899
 0.4380	62.4861
 0.4370	62.4670
 0.4360	62.4652
 0.4350	62.4502
 0.4340	62.4537
 0.4330	62.4451
 0.4320	62.4272
 0.4310	62.3918
 0.4300	62.3953
 0.4290	62.3811
 0.4280	62.3388
 0.4270	62.3323
 0.4260	62.3317
 0.4250	62.3163
 0.4240	62.3149
 0.4230	62.2953
 0.4220	62.2874
 0.4210	62.2831
 0.4200	62.2648
 0.4190	62.2627
 0.4180	62.2292
 0.4170	62.2202
 0.4160	62.2057
 0.4150	62.1773
 0.4140	62.1722
 0.4130	62.1628
 0.4120	62.1441
 0.4110	62.1367
 0.4100	62.1194
 0.4090	62.0985
 0.4080	62.0813
 0.4070	62.0735
 0.4060	62.0652
 0.4050	62.0432
 0.4040	62.0250
 0.4030	62.0046
 0.4020	61.9972
 0.4010	62.0037
 0.4000	61.9844
