Name: Apatite Ca_5(PO_4)_3F
Type: Mineral
Class: Phosphate
Subclass: None
Particle Size: Medium
Sample No.: P-1A
Owner: JPL
Wavelength Range: VSWIR
Origin: Canada, Ontario, Lanark County, Perth
Collection Date: N/A
Description: Particle size was 45-125um.Collected by Ward's Original ASTER Spectral Library name was jpl.beckman.mineral.phosphate.none.medium.p01a.spectrum.txt
Measurement: Hemispherical reflectance
First Column: X
Second Column: Y
X Units: Wavelength (micrometers)
Y Units:Reflectance (percent)
First X Value:  0.4000
Last X Value:  2.5000
Number of X Values: 826
Additional Information: mineral.phosphate.none.medium.vswir.p-1a.jpl.beckman.ancillary.txt

 0.4000	46.6000
 0.4010	46.9700
 0.4020	47.5600
 0.4030	47.8600
 0.4040	48.2600
 0.4050	48.7100
 0.4060	49.1500
 0.4070	49.7000
 0.4080	49.9700
 0.4090	50.3800
 0.4100	50.9500
 0.4110	51.1600
 0.4120	51.6200
 0.4130	51.8800
 0.4140	52.3300
 0.4150	52.7300
 0.4160	53.0000
 0.4170	53.5000
 0.4180	53.7000
 0.4190	54.1000
 0.4200	54.4700
 0.4210	54.6800
 0.4220	55.0500
 0.4230	55.3500
 0.4240	55.8800
 0.4250	56.2000
 0.4260	56.5300
 0.4270	56.9000
 0.4280	57.1600
 0.4290	57.5300
 0.4300	57.8200
 0.4310	58.1000
 0.4320	58.4500
 0.4330	58.6300
 0.4340	59.0300
 0.4350	59.1900
 0.4360	59.4300
 0.4370	59.9100
 0.4380	59.9900
 0.4390	60.3400
 0.4400	60.5100
 0.4410	60.5900
 0.4420	60.9700
 0.4430	60.9500
 0.4440	61.4100
 0.4450	61.5100
 0.4460	61.5500
 0.4470	61.9800
 0.4480	61.9600
 0.4490	62.3000
 0.4500	62.3800
 0.4510	62.5000
 0.4520	62.8000
 0.4530	62.8400
 0.4540	63.1600
 0.4550	63.1800
 0.4560	63.2800
 0.4570	63.5300
 0.4580	63.5200
 0.4590	63.7700
 0.4600	63.7100
 0.4610	63.9500
 0.4620	63.9700
 0.4630	64.1200
 0.4640	64.2400
 0.4650	64.4000
 0.4660	64.4000
 0.4670	64.5500
 0.4680	64.5800
 0.4690	64.7700
 0.4700	64.9100
 0.4710	64.9300
 0.4720	65.0700
 0.4730	65.1100
 0.4740	65.3900
 0.4750	65.3900
 0.4760	65.5500
 0.4770	65.6300
 0.4780	65.7000
 0.4790	65.8500
 0.4800	65.9100
 0.4810	65.9000
 0.4820	66.0000
 0.4830	66.1100
 0.4840	66.3200
 0.4850	66.3100
 0.4860	66.3700
 0.4870	66.6100
 0.4880	66.5500
 0.4890	66.7400
 0.4900	66.6900
 0.4910	66.6400
 0.4920	66.9900
 0.4930	66.8900
 0.4940	67.1600
 0.4950	67.0300
 0.4960	67.0100
 0.4970	67.2800
 0.4980	67.2300
 0.4990	67.4300
 0.5000	67.3000
 0.5010	67.3800
 0.5020	67.5100
 0.5030	67.5100
 0.5040	67.6700
 0.5050	67.5700
 0.5060	67.5900
 0.5070	67.6900
 0.5080	67.7300
 0.5090	67.8300
 0.5100	67.7900
 0.5110	67.8900
 0.5120	67.9700
 0.5130	67.8700
 0.5140	68.0500
 0.5150	68.0200
 0.5160	67.9800
 0.5170	68.1700
 0.5180	68.2300
 0.5190	68.2500
 0.5200	68.1900
 0.5210	68.1800
 0.5220	68.1800
 0.5230	68.0000
 0.5240	68.0700
 0.5250	68.0700
 0.5260	68.2000
 0.5270	68.1500
 0.5280	68.1300
 0.5290	68.0500
 0.5300	68.0900
 0.5310	68.3000
 0.5320	68.2900
 0.5330	68.1000
 0.5340	68.3200
 0.5350	68.2300
 0.5360	68.4400
 0.5370	68.2600
 0.5380	68.2100
 0.5390	68.5000
 0.5400	68.3300
 0.5410	68.4100
 0.5420	68.3100
 0.5430	68.2300
 0.5440	68.3500
 0.5450	68.2600
 0.5460	68.3100
 0.5470	68.3000
 0.5480	68.2300
 0.5490	68.4000
 0.5500	68.2100
 0.5510	68.3000
 0.5520	68.1300
 0.5530	68.0600
 0.5540	68.1800
 0.5550	67.9900
 0.5560	68.1000
 0.5570	68.0500
 0.5580	68.0600
 0.5590	68.1100
 0.5600	67.9900
 0.5610	68.2000
 0.5620	68.1200
 0.5630	68.1000
 0.5640	68.0200
 0.5650	68.1100
 0.5660	68.0600
 0.5670	67.8300
 0.5680	67.7900
 0.5690	67.6300
 0.5700	67.5200
 0.5710	67.4100
 0.5720	67.0200
 0.5730	66.7900
 0.5740	66.4900
 0.5750	66.6200
 0.5760	66.6200
 0.5770	66.4300
 0.5780	66.3700
 0.5790	66.3300
 0.5800	66.4100
 0.5810	66.3400
 0.5820	66.2100
 0.5830	66.1700
 0.5840	66.0700
 0.5850	66.2300
 0.5860	66.2700
 0.5870	66.1700
 0.5880	66.3000
 0.5890	66.2400
 0.5900	66.3800
 0.5910	66.6200
 0.5920	66.4400
 0.5930	66.5200
 0.5940	66.4500
 0.5950	66.7300
 0.5960	66.5900
 0.5970	66.4700
 0.5980	66.4400
 0.5990	66.4200
 0.6000	66.4600
 0.6010	66.6000
 0.6020	66.4500
 0.6030	66.5200
 0.6040	66.4700
 0.6050	66.4800
 0.6060	66.5600
 0.6070	66.5000
 0.6080	66.4700
 0.6090	66.3200
 0.6100	66.3700
 0.6110	66.4200
 0.6120	66.2700
 0.6130	66.2700
 0.6140	66.1900
 0.6150	66.1700
 0.6160	66.3000
 0.6170	66.1300
 0.6180	66.1000
 0.6190	65.9900
 0.6200	65.9900
 0.6210	66.0600
 0.6220	66.0300
 0.6230	66.0500
 0.6240	65.9000
 0.6250	65.9400
 0.6260	66.0300
 0.6270	65.8500
 0.6280	65.8300
 0.6290	65.7500
 0.6300	65.7400
 0.6310	65.8500
 0.6320	65.6400
 0.6330	65.6800
 0.6340	65.6800
 0.6350	65.6300
 0.6360	65.7500
 0.6370	65.6100
 0.6380	65.5900
 0.6390	65.5100
 0.6400	65.4800
 0.6410	65.5600
 0.6420	65.5100
 0.6430	65.4500
 0.6440	65.4200
 0.6450	65.4400
 0.6460	65.4800
 0.6470	65.4000
 0.6480	65.4400
 0.6490	65.3300
 0.6500	65.3500
 0.6510	65.4500
 0.6520	65.3600
 0.6530	65.4000
 0.6540	65.2800
 0.6550	65.2300
 0.6560	65.3600
 0.6570	65.2300
 0.6580	65.3600
 0.6590	65.2300
 0.6600	65.2100
 0.6610	65.3100
 0.6620	65.2800
 0.6630	65.3100
 0.6640	65.1900
 0.6650	65.2600
 0.6660	65.2200
 0.6670	65.2400
 0.6680	65.2700
 0.6690	65.1500
 0.6700	65.1500
 0.6710	65.0900
 0.6720	65.1300
 0.6730	65.1100
 0.6740	65.0400
 0.6750	65.0000
 0.6760	65.1500
 0.6770	65.1100
 0.6780	65.1100
 0.6790	65.0300
 0.6800	65.0700
 0.6810	65.0500
 0.6820	64.9900
 0.6830	65.0900
 0.6840	65.0700
 0.6850	65.0500
 0.6860	65.2100
 0.6870	64.9600
 0.6880	65.1300
 0.6890	65.0100
 0.6900	65.0100
 0.6910	65.0900
 0.6920	65.0900
 0.6930	65.0700
 0.6940	65.0100
 0.6950	65.0700
 0.6960	65.0900
 0.6970	65.0900
 0.6980	65.1800
 0.6990	65.1000
 0.7000	64.9800
 0.7010	65.1000
 0.7020	65.2700
 0.7030	65.1600
 0.7040	65.2200
 0.7050	65.3600
 0.7060	65.2700
 0.7070	65.3400
 0.7080	65.3100
 0.7090	65.2500
 0.7100	65.3900
 0.7110	65.3500
 0.7120	65.4600
 0.7130	65.3900
 0.7140	65.4200
 0.7150	65.3700
 0.7160	65.4200
 0.7170	65.5500
 0.7180	65.4600
 0.7190	65.4300
 0.7200	65.5800
 0.7210	65.5900
 0.7220	65.6300
 0.7230	65.6400
 0.7240	65.5000
 0.7250	65.4800
 0.7260	65.5400
 0.7270	65.6000
 0.7280	65.6000
 0.7290	65.5000
 0.7300	65.5400
 0.7310	65.5900
 0.7320	65.5000
 0.7330	65.4200
 0.7340	65.3000
 0.7350	65.3000
 0.7360	65.2800
 0.7370	65.2100
 0.7380	65.1700
 0.7390	65.1700
 0.7400	65.2800
 0.7410	65.3700
 0.7420	65.4600
 0.7430	65.3400
 0.7440	65.2300
 0.7450	65.2300
 0.7460	65.2800
 0.7470	65.2400
 0.7480	65.3000
 0.7490	65.2200
 0.7500	65.3900
 0.7510	65.5100
 0.7520	65.6600
 0.7530	65.7900
 0.7540	65.6700
 0.7550	65.9200
 0.7560	65.8500
 0.7570	66.0600
 0.7580	66.1000
 0.7590	65.9700
 0.7600	66.1900
 0.7610	66.1000
 0.7620	66.1300
 0.7630	66.3400
 0.7640	66.2800
 0.7650	66.5000
 0.7660	66.3900
 0.7670	66.5500
 0.7680	66.6400
 0.7690	66.4700
 0.7700	66.7100
 0.7710	66.5300
 0.7720	66.6400
 0.7730	66.7800
 0.7740	66.7300
 0.7750	66.9100
 0.7760	66.7100
 0.7770	66.8700
 0.7780	66.9900
 0.7790	66.9400
 0.7800	67.0700
 0.7810	66.9300
 0.7820	67.0300
 0.7830	67.1400
 0.7840	67.0300
 0.7850	67.2300
 0.7860	66.9700
 0.7870	67.1100
 0.7880	67.1700
 0.7890	67.0800
 0.7900	67.2300
 0.7910	67.1100
 0.7920	67.1800
 0.7930	67.2200
 0.7940	67.1000
 0.7950	67.2400
 0.7960	67.0300
 0.7970	66.8800
 0.7980	66.9400
 0.7990	66.8100
 0.8000	68.0300
 0.8040	68.1900
 0.8080	68.4100
 0.8120	68.6500
 0.8160	68.8200
 0.8200	69.0200
 0.8240	69.3000
 0.8280	69.4600
 0.8320	69.6300
 0.8360	69.8000
 0.8400	70.0000
 0.8440	70.2300
 0.8480	70.3000
 0.8520	70.4300
 0.8560	70.6700
 0.8600	70.8000
 0.8640	70.9700
 0.8680	71.0900
 0.8720	71.3300
 0.8760	71.4000
 0.8800	71.5500
 0.8840	71.7500
 0.8880	72.0500
 0.8920	72.2300
 0.8960	72.3500
 0.9000	72.5800
 0.9040	72.7700
 0.9080	72.9500
 0.9120	73.0400
 0.9160	73.2300
 0.9200	73.4200
 0.9240	73.6900
 0.9280	73.8600
 0.9320	74.0400
 0.9360	74.2000
 0.9400	74.3800
 0.9440	74.5400
 0.9480	74.7600
 0.9520	74.8900
 0.9560	75.1100
 0.9600	75.1800
 0.9640	75.3700
 0.9680	75.5700
 0.9720	75.6800
 0.9760	75.8500
 0.9800	76.0000
 0.9840	76.1000
 0.9880	76.2800
 0.9920	76.3900
 0.9960	76.6200
 1.0000	76.8200
 1.0040	77.0100
 1.0080	77.0500
 1.0120	77.1300
 1.0160	77.3000
 1.0200	77.4300
 1.0240	77.5000
 1.0280	77.6100
 1.0320	77.7000
 1.0360	77.8400
 1.0400	78.0600
 1.0440	78.1000
 1.0480	78.0400
 1.0520	78.2300
 1.0560	78.3200
 1.0600	78.4200
 1.0640	78.5700
 1.0680	78.6300
 1.0720	78.6900
 1.0760	78.7500
 1.0800	78.8900
 1.0840	79.0200
 1.0880	79.1200
 1.0920	79.2600
 1.0960	79.3300
 1.1000	79.5000
 1.1040	79.6400
 1.1080	79.6100
 1.1120	79.8000
 1.1160	79.8800
 1.1200	79.9800
 1.1240	80.0500
 1.1280	80.1400
 1.1320	80.2300
 1.1360	80.1900
 1.1400	80.3500
 1.1440	80.4100
 1.1480	80.5200
 1.1520	80.5500
 1.1560	80.6700
 1.1600	80.8000
 1.1640	80.9500
 1.1680	80.9500
 1.1720	81.1900
 1.1760	81.1300
 1.1800	81.2300
 1.1840	81.2900
 1.1880	81.3400
 1.1920	81.4500
 1.1960	81.4900
 1.2000	81.6500
 1.2040	81.7400
 1.2080	81.6800
 1.2120	81.7800
 1.2160	81.8300
 1.2200	81.7400
 1.2240	81.8100
 1.2280	81.8600
 1.2320	81.9200
 1.2360	81.9600
 1.2400	82.0500
 1.2440	82.0800
 1.2480	82.2700
 1.2520	82.3300
 1.2560	82.3800
 1.2600	82.4200
 1.2640	82.4500
 1.2680	82.4800
 1.2720	82.6200
 1.2760	82.7000
 1.2800	82.8000
 1.2840	82.8400
 1.2880	82.9300
 1.2920	82.9500
 1.2960	82.9800
 1.3000	83.0100
 1.3040	83.0500
 1.3080	82.9800
 1.3120	83.0600
 1.3160	83.0500
 1.3200	83.1200
 1.3240	83.1200
 1.3280	83.2600
 1.3320	83.2500
 1.3360	83.2300
 1.3400	83.2100
 1.3440	83.2500
 1.3480	83.2100
 1.3520	83.2600
 1.3560	83.3900
 1.3600	83.3500
 1.3640	83.2900
 1.3680	83.2200
 1.3720	83.1900
 1.3760	82.9300
 1.3800	81.9700
 1.3840	80.6000
 1.3880	80.3100
 1.3920	81.4400
 1.3960	82.0500
 1.4000	82.0400
 1.4040	81.9000
 1.4080	81.7800
 1.4120	81.7600
 1.4160	81.7400
 1.4200	81.7300
 1.4240	81.6600
 1.4280	81.5200
 1.4320	81.6500
 1.4360	81.9100
 1.4400	82.0700
 1.4440	82.2900
 1.4480	82.3700
 1.4520	82.5700
 1.4560	82.6700
 1.4600	82.8700
 1.4640	82.8600
 1.4680	82.9500
 1.4720	83.0700
 1.4760	83.1500
 1.4800	83.2000
 1.4840	83.2500
 1.4880	83.2200
 1.4920	83.3000
 1.4960	83.3900
 1.5000	83.5100
 1.5040	83.5300
 1.5080	83.5900
 1.5120	83.6400
 1.5160	83.8200
 1.5200	83.7900
 1.5240	83.7200
 1.5280	83.7900
 1.5320	83.8500
 1.5360	83.8500
 1.5400	83.8800
 1.5440	83.9900
 1.5480	84.0900
 1.5520	84.1800
 1.5560	84.1600
 1.5600	84.2300
 1.5640	84.2300
 1.5680	84.3500
 1.5720	84.2600
 1.5760	84.2900
 1.5800	84.3400
 1.5840	84.3700
 1.5880	84.4900
 1.5920	84.5300
 1.5960	84.5600
 1.6000	84.7700
 1.6040	84.7900
 1.6080	84.7900
 1.6120	84.8000
 1.6160	84.8500
 1.6200	84.9000
 1.6240	84.9600
 1.6280	84.9900
 1.6320	85.1200
 1.6360	85.0700
 1.6400	85.1900
 1.6440	85.2500
 1.6480	85.2400
 1.6520	85.2700
 1.6560	85.3700
 1.6600	85.3600
 1.6640	85.3800
 1.6680	85.2900
 1.6720	85.2900
 1.6760	85.4000
 1.6800	85.3100
 1.6840	85.3000
 1.6880	85.3800
 1.6920	85.3600
 1.6960	85.4100
 1.7000	85.4100
 1.7040	85.2700
 1.7080	85.2500
 1.7120	85.2000
 1.7160	85.3100
 1.7200	85.2800
 1.7240	85.1800
 1.7280	85.2400
 1.7320	85.1800
 1.7360	85.1700
 1.7400	85.0500
 1.7440	85.1000
 1.7480	85.1000
 1.7520	85.0000
 1.7560	84.9900
 1.7600	85.0300
 1.7640	85.0600
 1.7680	85.0600
 1.7720	85.0800
 1.7760	84.9900
 1.7800	85.0300
 1.7840	85.0800
 1.7880	85.0400
 1.7920	85.1000
 1.7960	85.0800
 1.8000	85.1400
 1.8040	85.0900
 1.8080	85.1200
 1.8120	85.0400
 1.8160	84.9000
 1.8200	84.8500
 1.8240	84.8300
 1.8280	84.7700
 1.8320	84.7200
 1.8360	84.6600
 1.8400	84.5600
 1.8440	84.4100
 1.8480	84.2700
 1.8520	84.1600
 1.8560	84.0000
 1.8600	83.7600
 1.8640	83.4900
 1.8680	83.2300
 1.8720	82.9300
 1.8760	82.4700
 1.8800	81.8600
 1.8840	81.1800
 1.8880	80.2700
 1.8920	79.4700
 1.8960	78.6400
 1.9000	77.9600
 1.9040	77.6100
 1.9080	77.3900
 1.9120	77.5400
 1.9160	77.6300
 1.9200	77.8200
 1.9240	78.0300
 1.9280	78.1900
 1.9320	78.2600
 1.9360	78.4100
 1.9400	78.4200
 1.9440	78.5000
 1.9480	78.5500
 1.9520	78.6000
 1.9560	78.6900
 1.9600	78.7500
 1.9640	78.7400
 1.9680	78.7100
 1.9720	78.6700
 1.9760	78.5000
 1.9800	78.3200
 1.9840	78.0800
 1.9880	77.9000
 1.9920	77.8500
 1.9960	78.0400
 2.0000	78.5800
 2.0040	79.1100
 2.0080	79.7500
 2.0120	80.2900
 2.0160	80.8700
 2.0200	81.3000
 2.0240	81.6700
 2.0280	81.9800
 2.0320	82.2200
 2.0360	82.3500
 2.0400	82.6300
 2.0440	82.7400
 2.0480	82.8400
 2.0520	83.0000
 2.0560	83.1100
 2.0600	83.2400
 2.0640	83.3800
 2.0680	83.5000
 2.0720	83.4900
 2.0760	83.6700
 2.0800	83.6300
 2.0840	83.6800
 2.0880	83.8000
 2.0920	83.7900
 2.0960	83.8200
 2.1000	83.7800
 2.1040	83.9300
 2.1080	83.9200
 2.1120	83.9500
 2.1160	83.9900
 2.1200	83.9200
 2.1240	83.7000
 2.1280	83.5500
 2.1320	83.3400
 2.1360	83.1100
 2.1400	82.9400
 2.1440	82.7400
 2.1480	82.5300
 2.1520	82.4400
 2.1560	82.4900
 2.1600	82.5100
 2.1640	82.5600
 2.1680	82.6700
 2.1720	82.7400
 2.1760	82.8200
 2.1800	82.8400
 2.1840	83.0300
 2.1880	83.0000
 2.1920	83.0700
 2.1960	83.0400
 2.2000	83.0800
 2.2040	83.0000
 2.2080	82.9500
 2.2120	82.9300
 2.2160	82.8700
 2.2200	82.8400
 2.2240	82.8400
 2.2280	82.7800
 2.2320	82.6900
 2.2360	82.6300
 2.2400	82.4900
 2.2440	82.4200
 2.2480	82.3300
 2.2520	82.2000
 2.2560	81.9600
 2.2600	81.7000
 2.2640	81.3400
 2.2680	80.9900
 2.2720	80.4800
 2.2760	79.9700
 2.2800	79.5100
 2.2840	78.8600
 2.2880	78.3700
 2.2920	77.8100
 2.2960	77.3100
 2.3000	76.9700
 2.3040	76.6000
 2.3080	76.5400
 2.3120	76.6200
 2.3160	76.7600
 2.3200	76.9600
 2.3240	77.2500
 2.3280	77.5600
 2.3320	77.7900
 2.3360	78.1100
 2.3400	78.3000
 2.3440	78.4900
 2.3480	78.7600
 2.3520	78.9600
 2.3560	79.0900
 2.3600	79.1900
 2.3640	79.1500
 2.3680	79.1900
 2.3720	79.0000
 2.3760	78.8800
 2.3800	78.7500
 2.3840	78.6300
 2.3880	78.6400
 2.3920	78.6300
 2.3960	78.6700
 2.4000	78.7000
 2.4040	78.7900
 2.4080	78.6600
 2.4120	78.5800
 2.4160	78.5000
 2.4200	78.3600
 2.4240	78.1100
 2.4280	77.8700
 2.4320	77.7500
 2.4360	77.5200
 2.4400	77.2300
 2.4440	76.9300
 2.4480	76.7400
 2.4520	76.4700
 2.4560	76.0700
 2.4600	75.8600
 2.4640	75.5300
 2.4680	75.2100
 2.4720	74.8900
 2.4760	74.6100
 2.4800	74.4600
 2.4840	74.2700
 2.4880	74.1000
 2.4920	73.9400
 2.4960	73.7500
 2.5000	73.5400
