Name: Albite (Feldspar) (K,Na)AlSi_3O_8
Type: Mineral
Class: Silicate
Subclass: Tectosilicate
Particle Size: Fine
Sample No.: TS-6A
Owner: JPL
Wavelength Range: VSWIR
Origin: Unknown.
Collection Date: N/A
Description: Particle size was 0-45um.Collected by:  JPL Original ASTER Spectral Library name was jpl.perkin.mineral.silicate.tectosilicate.fine.ts06a.spectrum.txt
Measurement: Hemispherical reflectance
First Column: X
Second Column: Y
X Units: Wavelength (micrometers)
Y Units:Reflectance (percent)
First X Value:  2.5000
Last X Value:  0.4000
Number of X Values: 2101
Additional Information: mineral.silicate.tectosilicate.fine.vswir.ts-6a.jpl.perkin.ancillary.txt

 2.5000	72.9487
 2.4990	73.1798
 2.4980	72.9008
 2.4970	73.1443
 2.4960	72.9686
 2.4950	73.2294
 2.4940	73.0873
 2.4930	73.0857
 2.4920	72.9626
 2.4910	73.1467
 2.4900	72.9543
 2.4890	73.1896
 2.4880	73.1259
 2.4870	73.0376
 2.4860	73.1476
 2.4850	73.2953
 2.4840	73.3079
 2.4830	72.9829
 2.4820	73.0645
 2.4810	73.0634
 2.4800	73.3179
 2.4790	73.2427
 2.4780	73.1490
 2.4770	73.2526
 2.4760	73.1749
 2.4750	73.4230
 2.4740	73.2169
 2.4730	73.2946
 2.4720	73.3011
 2.4710	73.3240
 2.4700	73.2583
 2.4690	73.3668
 2.4680	73.3293
 2.4670	73.3697
 2.4660	73.4474
 2.4650	73.3899
 2.4640	73.3616
 2.4630	73.5447
 2.4620	73.4387
 2.4610	73.5058
 2.4600	73.3958
 2.4590	73.4895
 2.4580	73.4931
 2.4570	73.4313
 2.4560	73.5176
 2.4550	73.5668
 2.4540	73.5790
 2.4530	73.5881
 2.4520	73.5520
 2.4510	73.5156
 2.4500	73.5450
 2.4490	73.5515
 2.4480	73.5483
 2.4470	73.5743
 2.4460	73.4686
 2.4450	73.6301
 2.4440	73.5475
 2.4430	73.5474
 2.4420	73.5872
 2.4410	73.6313
 2.4400	73.6513
 2.4390	73.6132
 2.4380	73.5844
 2.4370	73.6000
 2.4360	73.5731
 2.4350	73.7503
 2.4340	73.7031
 2.4330	73.7847
 2.4320	73.6600
 2.4310	73.6905
 2.4300	73.8087
 2.4290	73.8212
 2.4280	73.8210
 2.4270	73.7972
 2.4260	73.8528
 2.4250	73.9573
 2.4240	73.9671
 2.4230	73.9545
 2.4220	73.9441
 2.4210	73.9990
 2.4200	74.0110
 2.4190	74.0595
 2.4180	74.1205
 2.4170	74.0752
 2.4160	74.1984
 2.4150	74.2180
 2.4140	74.1853
 2.4130	74.1607
 2.4120	74.1728
 2.4110	74.2958
 2.4100	74.3619
 2.4090	74.3283
 2.4080	74.4249
 2.4070	74.5165
 2.4060	74.4637
 2.4050	74.4344
 2.4040	74.4511
 2.4030	74.4572
 2.4020	74.4220
 2.4010	74.5061
 2.4000	74.5359
 2.3990	74.5604
 2.3980	74.5617
 2.3970	74.5846
 2.3960	74.6418
 2.3950	74.7165
 2.3940	74.6924
 2.3930	74.7328
 2.3920	74.7529
 2.3910	74.7795
 2.3900	74.7640
 2.3890	74.8443
 2.3880	74.8309
 2.3870	74.8456
 2.3860	74.8982
 2.3850	74.8995
 2.3840	74.9142
 2.3830	74.9030
 2.3820	74.9775
 2.3810	74.9912
 2.3800	74.9558
 2.3790	74.9757
 2.3780	74.9912
 2.3770	75.0162
 2.3760	75.0641
 2.3750	75.0824
 2.3740	75.0948
 2.3730	75.0682
 2.3720	75.0685
 2.3710	75.1480
 2.3700	75.1650
 2.3690	75.1026
 2.3680	75.1525
 2.3670	75.1766
 2.3660	75.1796
 2.3650	75.2328
 2.3640	75.2655
 2.3630	75.2641
 2.3620	75.2322
 2.3610	75.2589
 2.3600	75.3072
 2.3590	75.2615
 2.3580	75.2720
 2.3570	75.3201
 2.3560	75.2369
 2.3550	75.2428
 2.3540	75.2625
 2.3530	75.2485
 2.3520	75.2772
 2.3510	75.2791
 2.3500	75.2365
 2.3490	75.2472
 2.3480	75.2673
 2.3470	75.2371
 2.3460	75.2699
 2.3450	75.2317
 2.3440	75.2380
 2.3430	75.2530
 2.3420	75.2269
 2.3410	75.2498
 2.3400	75.2554
 2.3390	75.2161
 2.3380	75.2473
 2.3370	75.2963
 2.3360	75.3456
 2.3350	75.3396
 2.3340	75.3294
 2.3330	75.3277
 2.3320	75.3563
 2.3310	75.3386
 2.3300	75.2964
 2.3290	75.3030
 2.3280	75.3916
 2.3270	75.4400
 2.3260	75.4766
 2.3250	75.4289
 2.3240	75.4283
 2.3230	75.4246
 2.3220	75.4779
 2.3210	75.5262
 2.3200	75.5193
 2.3190	75.5258
 2.3180	75.5344
 2.3170	75.6001
 2.3160	75.6687
 2.3150	75.6406
 2.3140	75.5972
 2.3130	75.6174
 2.3120	75.6468
 2.3110	75.6404
 2.3100	75.7011
 2.3090	75.6798
 2.3080	75.6420
 2.3070	75.7074
 2.3060	75.7731
 2.3050	75.8291
 2.3040	75.7772
 2.3030	75.7977
 2.3020	75.8171
 2.3010	75.8594
 2.3000	75.8532
 2.2990	75.8342
 2.2980	75.8703
 2.2970	75.9163
 2.2960	75.9328
 2.2950	75.8925
 2.2940	75.9020
 2.2930	75.9063
 2.2920	75.9464
 2.2910	75.9616
 2.2900	75.9659
 2.2890	75.9624
 2.2880	75.9879
 2.2870	75.9794
 2.2860	76.0354
 2.2850	75.9721
 2.2840	75.9456
 2.2830	76.0357
 2.2820	76.0284
 2.2810	76.0403
 2.2800	76.0148
 2.2790	76.0423
 2.2780	76.0074
 2.2770	76.0424
 2.2760	76.1058
 2.2750	76.0364
 2.2740	76.0322
 2.2730	75.9894
 2.2720	76.0226
 2.2710	76.0085
 2.2700	76.0347
 2.2690	76.0479
 2.2680	76.0325
 2.2670	76.0028
 2.2660	76.0195
 2.2650	75.9541
 2.2640	76.0133
 2.2630	75.9794
 2.2620	76.0102
 2.2610	75.9776
 2.2600	75.9392
 2.2590	75.9947
 2.2580	76.0029
 2.2570	76.0237
 2.2560	75.9834
 2.2550	75.9612
 2.2540	75.9851
 2.2530	75.9844
 2.2520	76.0061
 2.2510	75.9401
 2.2500	75.9573
 2.2490	75.9398
 2.2480	75.9999
 2.2470	75.9676
 2.2460	76.0393
 2.2450	76.0133
 2.2440	75.9497
 2.2430	75.9323
 2.2420	75.9781
 2.2410	75.9880
 2.2400	75.9751
 2.2390	75.9427
 2.2380	75.9952
 2.2370	75.9718
 2.2360	76.0153
 2.2350	75.9713
 2.2340	76.0421
 2.2330	75.9949
 2.2320	75.9789
 2.2310	76.0090
 2.2300	76.0347
 2.2290	75.9696
 2.2280	76.0022
 2.2270	75.9724
 2.2260	76.0232
 2.2250	75.9796
 2.2240	75.9436
 2.2230	75.8783
 2.2220	75.9697
 2.2210	75.8765
 2.2200	75.9491
 2.2190	75.8338
 2.2180	75.8458
 2.2170	75.8744
 2.2160	75.8559
 2.2150	75.7856
 2.2140	75.7485
 2.2130	75.6961
 2.2120	75.7314
 2.2110	75.6400
 2.2100	75.7416
 2.2090	75.6875
 2.2080	75.5449
 2.2070	75.6252
 2.2060	75.5543
 2.2050	75.5596
 2.2040	75.5093
 2.2030	75.5497
 2.2020	75.5450
 2.2010	75.5048
 2.2000	75.5562
 2.1990	75.6110
 2.1980	75.4844
 2.1970	75.5415
 2.1960	75.5090
 2.1950	75.5066
 2.1940	75.5548
 2.1930	75.5619
 2.1920	75.6902
 2.1910	75.6861
 2.1900	75.7272
 2.1890	75.8293
 2.1880	75.9296
 2.1870	75.9239
 2.1860	76.0006
 2.1850	76.0444
 2.1840	76.1415
 2.1830	76.1571
 2.1820	76.3005
 2.1810	76.2926
 2.1800	76.3996
 2.1790	76.4036
 2.1780	76.5198
 2.1770	76.6605
 2.1760	76.7076
 2.1750	76.7731
 2.1740	76.8577
 2.1730	76.8840
 2.1720	76.9819
 2.1710	77.0626
 2.1700	77.0704
 2.1690	77.0581
 2.1680	77.1500
 2.1670	77.2143
 2.1660	77.3207
 2.1650	77.2992
 2.1640	77.3669
 2.1630	77.4191
 2.1620	77.5330
 2.1610	77.5211
 2.1600	77.5556
 2.1590	77.6068
 2.1580	77.6256
 2.1570	77.6794
 2.1560	77.7295
 2.1550	77.7743
 2.1540	77.7709
 2.1530	77.7221
 2.1520	77.7888
 2.1510	77.8270
 2.1500	77.8320
 2.1490	77.8580
 2.1480	77.8234
 2.1470	77.8990
 2.1460	77.9426
 2.1450	77.9326
 2.1440	77.9286
 2.1430	77.9061
 2.1420	77.9259
 2.1410	77.9104
 2.1400	77.9849
 2.1390	77.9349
 2.1380	77.9296
 2.1370	77.9201
 2.1360	77.8733
 2.1350	77.7929
 2.1340	77.8151
 2.1330	77.7998
 2.1320	77.8802
 2.1310	77.8465
 2.1300	77.7696
 2.1290	77.7802
 2.1280	77.7118
 2.1270	77.6739
 2.1260	77.6810
 2.1250	77.6574
 2.1240	77.6425
 2.1230	77.5460
 2.1220	77.5144
 2.1210	77.4731
 2.1200	77.4142
 2.1190	77.3680
 2.1180	77.3814
 2.1170	77.3832
 2.1160	77.3298
 2.1150	77.2340
 2.1140	77.2002
 2.1130	77.1960
 2.1120	77.1258
 2.1110	77.0464
 2.1100	76.9986
 2.1090	77.0194
 2.1080	76.9703
 2.1070	76.9368
 2.1060	76.9197
 2.1050	76.9129
 2.1040	76.8668
 2.1030	76.8307
 2.1020	76.8193
 2.1010	76.7248
 2.1000	76.6992
 2.0990	76.6897
 2.0980	76.7125
 2.0970	76.7623
 2.0960	76.7487
 2.0950	76.7034
 2.0940	76.7369
 2.0930	76.7689
 2.0920	76.7606
 2.0910	76.8073
 2.0900	76.8539
 2.0890	76.9023
 2.0880	76.8915
 2.0870	76.8774
 2.0860	76.8820
 2.0850	76.8761
 2.0840	76.8839
 2.0830	76.8931
 2.0820	76.8649
 2.0810	76.8867
 2.0800	76.9242
 2.0790	76.9096
 2.0780	76.9509
 2.0770	76.9775
 2.0760	76.9613
 2.0750	76.9911
 2.0740	77.0217
 2.0730	77.0001
 2.0720	77.0205
 2.0710	77.0901
 2.0700	77.0898
 2.0690	77.0949
 2.0680	77.0996
 2.0670	77.0885
 2.0660	77.1062
 2.0650	77.1434
 2.0640	77.1893
 2.0630	77.1332
 2.0620	77.1530
 2.0610	77.2135
 2.0600	77.1584
 2.0590	77.1473
 2.0580	77.1439
 2.0570	77.1688
 2.0560	77.2067
 2.0550	77.2331
 2.0540	77.2290
 2.0530	77.2286
 2.0520	77.2360
 2.0510	77.2395
 2.0500	77.2257
 2.0490	77.2355
 2.0480	77.2296
 2.0470	77.2822
 2.0460	77.3026
 2.0450	77.3352
 2.0440	77.2276
 2.0430	77.2222
 2.0420	77.2335
 2.0410	77.2565
 2.0400	77.3114
 2.0390	77.3509
 2.0380	77.3174
 2.0370	77.3358
 2.0360	77.2973
 2.0350	77.2664
 2.0340	77.2791
 2.0330	77.3153
 2.0320	77.2906
 2.0310	77.2806
 2.0300	77.2859
 2.0290	77.3021
 2.0280	77.2453
 2.0270	77.2987
 2.0260	77.3448
 2.0250	77.3452
 2.0240	77.2331
 2.0230	77.2379
 2.0220	77.3219
 2.0210	77.2641
 2.0200	77.1609
 2.0190	77.2516
 2.0180	77.2979
 2.0170	77.3050
 2.0160	77.1806
 2.0150	77.1865
 2.0140	77.2282
 2.0130	77.2382
 2.0120	77.2188
 2.0110	77.2388
 2.0100	77.2015
 2.0090	77.1512
 2.0080	77.2061
 2.0070	77.1828
 2.0060	77.1786
 2.0050	77.2013
 2.0040	77.1889
 2.0030	77.1823
 2.0020	77.1904
 2.0010	77.1801
 2.0000	77.1629
 1.9990	77.0819
 1.9980	77.1058
 1.9970	77.1061
 1.9960	77.0901
 1.9950	77.1039
 1.9940	77.0180
 1.9930	77.0371
 1.9920	77.0235
 1.9910	77.0639
 1.9900	77.0058
 1.9890	77.0039
 1.9880	76.9883
 1.9870	76.8930
 1.9860	76.9013
 1.9850	76.8675
 1.9840	76.8761
 1.9830	76.8525
 1.9820	76.8742
 1.9810	76.8791
 1.9800	76.7799
 1.9790	76.8166
 1.9780	76.8414
 1.9770	76.7796
 1.9760	76.7065
 1.9750	76.6907
 1.9740	76.7363
 1.9730	76.7933
 1.9720	76.7042
 1.9710	76.7059
 1.9700	76.6576
 1.9690	76.7283
 1.9680	76.6476
 1.9670	76.6434
 1.9660	76.6371
 1.9650	76.6134
 1.9640	76.6571
 1.9630	76.6330
 1.9620	76.6398
 1.9610	76.5804
 1.9600	76.5218
 1.9590	76.6772
 1.9580	76.4800
 1.9570	76.6095
 1.9560	76.6170
 1.9550	76.5825
 1.9540	76.5189
 1.9530	76.5425
 1.9520	76.4846
 1.9510	76.4592
 1.9500	76.4984
 1.9490	76.4718
 1.9480	76.4850
 1.9470	76.5014
 1.9460	76.5153
 1.9450	76.5125
 1.9440	76.4413
 1.9430	76.4823
 1.9420	76.4832
 1.9410	76.4745
 1.9400	76.4478
 1.9390	76.5120
 1.9380	76.4334
 1.9370	76.4790
 1.9360	76.4698
 1.9350	76.3778
 1.9340	76.3601
 1.9330	76.3787
 1.9320	76.3873
 1.9310	76.4129
 1.9300	76.4331
 1.9290	76.3720
 1.9280	76.3991
 1.9270	76.4771
 1.9260	76.3701
 1.9250	76.4376
 1.9240	76.3677
 1.9230	76.3560
 1.9220	76.4062
 1.9210	76.3722
 1.9200	76.3198
 1.9190	76.4382
 1.9180	76.3670
 1.9170	76.3677
 1.9160	76.3959
 1.9150	76.3898
 1.9140	76.3114
 1.9130	76.4021
 1.9120	76.4235
 1.9110	76.4533
 1.9100	76.4843
 1.9090	76.4512
 1.9080	76.4525
 1.9070	76.5425
 1.9060	76.5430
 1.9050	76.5593
 1.9040	76.5972
 1.9030	76.6423
 1.9020	76.6871
 1.9010	76.7719
 1.9000	76.7875
 1.8990	76.8697
 1.8980	76.9341
 1.8970	77.0634
 1.8960	77.0170
 1.8950	77.0890
 1.8940	77.1099
 1.8930	77.2900
 1.8920	77.2841
 1.8910	77.3237
 1.8900	77.3522
 1.8890	77.4642
 1.8880	77.4412
 1.8870	77.4777
 1.8860	77.4777
 1.8850	77.5335
 1.8840	77.4625
 1.8830	77.5696
 1.8820	77.5993
 1.8810	77.6747
 1.8800	77.6213
 1.8790	77.6911
 1.8780	77.6919
 1.8770	77.6601
 1.8760	77.7246
 1.8750	77.7410
 1.8740	77.6710
 1.8730	77.7699
 1.8720	77.7718
 1.8710	77.7752
 1.8700	77.8453
 1.8690	77.8482
 1.8680	77.8272
 1.8670	77.8249
 1.8660	77.8677
 1.8650	77.8918
 1.8640	77.8238
 1.8630	77.8487
 1.8620	77.9310
 1.8610	77.8680
 1.8600	77.8448
 1.8590	77.8372
 1.8580	77.8894
 1.8570	77.9344
 1.8560	77.9557
 1.8550	77.8922
 1.8540	77.8599
 1.8530	77.8841
 1.8520	77.9059
 1.8510	77.8577
 1.8500	77.9222
 1.8490	77.9939
 1.8480	77.9528
 1.8470	77.9320
 1.8460	77.8998
 1.8450	77.9501
 1.8440	77.9055
 1.8430	77.8764
 1.8420	77.8579
 1.8410	77.8960
 1.8400	77.9021
 1.8390	77.8970
 1.8380	77.9326
 1.8370	77.9393
 1.8360	77.9713
 1.8350	77.9568
 1.8340	77.9363
 1.8330	77.9558
 1.8320	77.9631
 1.8310	77.9463
 1.8300	77.9484
 1.8290	77.9371
 1.8280	77.9448
 1.8270	77.9510
 1.8260	77.8905
 1.8250	77.9191
 1.8240	77.9416
 1.8230	77.9339
 1.8220	77.9218
 1.8210	77.9174
 1.8200	77.9322
 1.8190	77.9583
 1.8180	77.9929
 1.8170	77.9706
 1.8160	77.9281
 1.8150	77.9402
 1.8140	77.9562
 1.8130	78.0046
 1.8120	77.9765
 1.8110	77.9932
 1.8100	77.9434
 1.8090	77.9235
 1.8080	77.9496
 1.8070	77.9618
 1.8060	77.9794
 1.8050	77.9614
 1.8040	77.9827
 1.8030	77.9788
 1.8020	77.9643
 1.8010	77.9607
 1.8000	77.9694
 1.7990	77.9486
 1.7980	77.9492
 1.7970	77.9732
 1.7960	77.9528
 1.7950	77.9717
 1.7940	77.9876
 1.7930	77.9829
 1.7920	77.9383
 1.7910	77.9287
 1.7900	77.9663
 1.7890	77.9642
 1.7880	77.9336
 1.7870	77.9212
 1.7860	77.9158
 1.7850	77.9395
 1.7840	77.9355
 1.7830	77.9103
 1.7820	77.9233
 1.7810	77.9428
 1.7800	77.9228
 1.7790	77.8847
 1.7780	77.9001
 1.7770	77.9000
 1.7760	77.8513
 1.7750	77.8419
 1.7740	77.9454
 1.7730	77.9668
 1.7720	77.8968
 1.7710	77.8888
 1.7700	77.9226
 1.7690	77.9530
 1.7680	77.9333
 1.7670	77.8968
 1.7660	77.9084
 1.7650	77.9060
 1.7640	77.9077
 1.7630	77.8758
 1.7620	77.8424
 1.7610	77.8727
 1.7600	77.8688
 1.7590	77.8183
 1.7580	77.8703
 1.7570	77.8944
 1.7560	77.9058
 1.7550	77.8445
 1.7540	77.8261
 1.7530	77.8878
 1.7520	77.9044
 1.7510	77.9063
 1.7500	77.9259
 1.7490	77.8924
 1.7480	77.8656
 1.7470	77.9166
 1.7460	77.9544
 1.7450	77.9401
 1.7440	77.9341
 1.7430	77.9273
 1.7420	77.9570
 1.7410	77.9735
 1.7400	77.9450
 1.7390	77.9608
 1.7380	77.9299
 1.7370	77.9591
 1.7360	77.9724
 1.7350	77.9572
 1.7340	77.9501
 1.7330	77.9559
 1.7320	77.9891
 1.7310	77.9278
 1.7300	77.9566
 1.7290	77.9782
 1.7280	77.9647
 1.7270	77.9514
 1.7260	77.9637
 1.7250	77.9576
 1.7240	77.9720
 1.7230	77.9889
 1.7220	78.0065
 1.7210	77.9858
 1.7200	77.9913
 1.7190	77.9956
 1.7180	77.9670
 1.7170	77.9228
 1.7160	77.9015
 1.7150	77.9739
 1.7140	77.9654
 1.7130	77.9533
 1.7120	77.9615
 1.7110	77.9018
 1.7100	77.9002
 1.7090	77.9294
 1.7080	77.9857
 1.7070	77.8922
 1.7060	77.9309
 1.7050	78.0053
 1.7040	77.9500
 1.7030	77.9596
 1.7020	77.9255
 1.7010	77.8465
 1.7000	77.8557
 1.6990	77.8681
 1.6980	77.9053
 1.6970	77.8735
 1.6960	77.9514
 1.6950	77.8886
 1.6940	77.9071
 1.6930	77.8719
 1.6920	77.9764
 1.6910	77.8641
 1.6900	77.9308
 1.6890	77.9353
 1.6880	77.9140
 1.6870	77.9061
 1.6860	77.9136
 1.6850	77.8714
 1.6840	77.8690
 1.6830	77.8692
 1.6820	77.9135
 1.6810	77.8724
 1.6800	77.8947
 1.6790	77.8826
 1.6780	77.8342
 1.6770	77.8431
 1.6760	77.8918
 1.6750	77.8662
 1.6740	77.8458
 1.6730	77.7836
 1.6720	77.8305
 1.6710	77.8810
 1.6700	77.8694
 1.6690	77.8684
 1.6680	77.8037
 1.6670	77.8335
 1.6660	77.8314
 1.6650	77.7917
 1.6640	77.8943
 1.6630	77.8093
 1.6620	77.8087
 1.6610	77.8481
 1.6600	77.8218
 1.6590	77.8562
 1.6580	77.8683
 1.6570	77.8344
 1.6560	77.8331
 1.6550	77.8642
 1.6540	77.7688
 1.6530	77.8052
 1.6520	77.9100
 1.6510	77.7939
 1.6500	77.8147
 1.6490	77.8031
 1.6480	77.8942
 1.6470	77.7978
 1.6460	77.8968
 1.6450	77.8101
 1.6440	77.7840
 1.6430	77.8546
 1.6420	77.8006
 1.6410	77.7542
 1.6400	77.8404
 1.6390	77.9020
 1.6380	77.8767
 1.6370	77.8196
 1.6360	77.7780
 1.6350	77.9032
 1.6340	77.8403
 1.6330	77.7125
 1.6320	77.8333
 1.6310	77.8361
 1.6300	77.7774
 1.6290	77.7891
 1.6280	77.8904
 1.6270	77.8017
 1.6260	77.8245
 1.6250	77.8605
 1.6240	77.8194
 1.6230	77.7767
 1.6220	77.7809
 1.6210	77.7946
 1.6200	77.8425
 1.6190	77.7721
 1.6180	77.7373
 1.6170	77.7413
 1.6160	77.8997
 1.6150	77.8191
 1.6140	77.8630
 1.6130	77.7519
 1.6120	77.7813
 1.6110	77.6914
 1.6100	77.7777
 1.6090	77.8014
 1.6080	77.7326
 1.6070	77.7477
 1.6060	77.7716
 1.6050	77.7770
 1.6040	77.7841
 1.6030	77.7630
 1.6020	77.7684
 1.6010	77.8496
 1.6000	77.7946
 1.5990	77.7137
 1.5980	77.7558
 1.5970	77.6987
 1.5960	77.7440
 1.5950	77.6803
 1.5940	77.7246
 1.5930	77.7489
 1.5920	77.7643
 1.5910	77.7612
 1.5900	77.7364
 1.5890	77.7105
 1.5880	77.7162
 1.5870	77.7458
 1.5860	77.7170
 1.5850	77.6543
 1.5840	77.6741
 1.5830	77.6639
 1.5820	77.7297
 1.5810	77.7162
 1.5800	77.6819
 1.5790	77.6598
 1.5780	77.6891
 1.5770	77.6766
 1.5760	77.7077
 1.5750	77.6621
 1.5740	77.6938
 1.5730	77.6927
 1.5720	77.6271
 1.5710	77.6796
 1.5700	77.6357
 1.5690	77.6106
 1.5680	77.6936
 1.5670	77.6420
 1.5660	77.5332
 1.5650	77.5195
 1.5640	77.5666
 1.5630	77.5658
 1.5620	77.5831
 1.5610	77.5573
 1.5600	77.5795
 1.5590	77.5656
 1.5580	77.5434
 1.5570	77.5579
 1.5560	77.5379
 1.5550	77.4968
 1.5540	77.4844
 1.5530	77.5122
 1.5520	77.4963
 1.5510	77.4836
 1.5500	77.5260
 1.5490	77.5142
 1.5480	77.5585
 1.5470	77.5460
 1.5460	77.5249
 1.5450	77.5407
 1.5440	77.5022
 1.5430	77.4686
 1.5420	77.4621
 1.5410	77.5203
 1.5400	77.5171
 1.5390	77.4065
 1.5380	77.4275
 1.5370	77.4263
 1.5360	77.3846
 1.5350	77.4101
 1.5340	77.4301
 1.5330	77.4291
 1.5320	77.4538
 1.5310	77.3578
 1.5300	77.3806
 1.5290	77.4088
 1.5280	77.3709
 1.5270	77.3542
 1.5260	77.3675
 1.5250	77.3648
 1.5240	77.3521
 1.5230	77.3239
 1.5220	77.3364
 1.5210	77.3508
 1.5200	77.3414
 1.5190	77.3296
 1.5180	77.3230
 1.5170	77.2865
 1.5160	77.2751
 1.5150	77.2629
 1.5140	77.2625
 1.5130	77.2523
 1.5120	77.2246
 1.5110	77.2602
 1.5100	77.2305
 1.5090	77.2324
 1.5080	77.3101
 1.5070	77.2915
 1.5060	77.2561
 1.5050	77.2292
 1.5040	77.1935
 1.5030	77.1749
 1.5020	77.1615
 1.5010	77.1715
 1.5000	77.2133
 1.4990	77.1970
 1.4980	77.1228
 1.4970	77.1209
 1.4960	77.1339
 1.4950	77.1161
 1.4940	77.1544
 1.4930	77.1439
 1.4920	77.0822
 1.4910	77.0897
 1.4900	77.1016
 1.4890	77.1016
 1.4880	77.0674
 1.4870	77.0407
 1.4860	77.0352
 1.4850	77.1251
 1.4840	77.1075
 1.4830	77.0513
 1.4820	77.0710
 1.4810	77.0339
 1.4800	77.0048
 1.4790	77.0466
 1.4780	77.0160
 1.4770	77.0219
 1.4760	76.9926
 1.4750	77.0259
 1.4740	76.9458
 1.4730	76.9203
 1.4720	76.9739
 1.4710	76.9570
 1.4700	76.8955
 1.4690	76.9244
 1.4680	76.9612
 1.4670	76.9474
 1.4660	76.9059
 1.4650	76.8824
 1.4640	76.8672
 1.4630	76.8963
 1.4620	76.8747
 1.4610	76.9089
 1.4600	76.8493
 1.4590	76.8816
 1.4580	76.8669
 1.4570	76.8021
 1.4560	76.7934
 1.4550	76.8415
 1.4540	76.8262
 1.4530	76.7749
 1.4520	76.7855
 1.4510	76.8180
 1.4500	76.8218
 1.4490	76.8171
 1.4480	76.7558
 1.4470	76.7481
 1.4460	76.7071
 1.4450	76.6542
 1.4440	76.6566
 1.4430	76.6709
 1.4420	76.7154
 1.4410	76.7250
 1.4400	76.6727
 1.4390	76.6696
 1.4380	76.6295
 1.4370	76.5928
 1.4360	76.5897
 1.4350	76.6022
 1.4340	76.6227
 1.4330	76.5804
 1.4320	76.6198
 1.4310	76.6596
 1.4300	76.5264
 1.4290	76.5222
 1.4280	76.4147
 1.4270	76.4972
 1.4260	76.4362
 1.4250	76.4197
 1.4240	76.3597
 1.4230	76.3415
 1.4220	76.2056
 1.4210	76.2543
 1.4200	76.1507
 1.4190	76.1411
 1.4180	76.0613
 1.4170	76.0481
 1.4160	75.9596
 1.4150	75.8781
 1.4140	75.7746
 1.4130	75.7796
 1.4120	75.7373
 1.4110	75.7627
 1.4100	75.7062
 1.4090	75.7329
 1.4080	75.8192
 1.4070	75.8325
 1.4060	75.7533
 1.4050	75.8650
 1.4040	75.9083
 1.4030	75.9169
 1.4020	75.9311
 1.4010	75.9915
 1.4000	75.9909
 1.3990	76.1173
 1.3980	76.1591
 1.3970	76.3059
 1.3960	76.2714
 1.3950	76.3281
 1.3940	76.3606
 1.3930	76.3931
 1.3920	76.4458
 1.3910	76.4843
 1.3900	76.5457
 1.3890	76.5465
 1.3880	76.5128
 1.3870	76.6079
 1.3860	76.5334
 1.3850	76.5940
 1.3840	76.6269
 1.3830	76.5941
 1.3820	76.5367
 1.3810	76.6201
 1.3800	76.5971
 1.3790	76.6833
 1.3780	76.6233
 1.3770	76.6300
 1.3760	76.6144
 1.3750	76.5918
 1.3740	76.6409
 1.3730	76.5832
 1.3720	76.5017
 1.3710	76.5998
 1.3700	76.4913
 1.3690	76.4902
 1.3680	76.5446
 1.3670	76.5307
 1.3660	76.5364
 1.3650	76.5729
 1.3640	76.5147
 1.3630	76.5635
 1.3620	76.5477
 1.3610	76.5589
 1.3600	76.5515
 1.3590	76.6236
 1.3580	76.5460
 1.3570	76.5559
 1.3560	76.6398
 1.3550	76.5304
 1.3540	76.5418
 1.3530	76.5358
 1.3520	76.5554
 1.3510	76.5420
 1.3500	76.4868
 1.3490	76.4579
 1.3480	76.4457
 1.3470	76.4793
 1.3460	76.5273
 1.3450	76.5088
 1.3440	76.4329
 1.3430	76.5457
 1.3420	76.4765
 1.3410	76.4939
 1.3400	76.4814
 1.3390	76.4908
 1.3380	76.3949
 1.3370	76.3633
 1.3360	76.3591
 1.3350	76.3948
 1.3340	76.4201
 1.3330	76.4160
 1.3320	76.3765
 1.3310	76.3951
 1.3300	76.3444
 1.3290	76.3481
 1.3280	76.4050
 1.3270	76.3967
 1.3260	76.3225
 1.3250	76.3489
 1.3240	76.4373
 1.3230	76.5369
 1.3220	76.3956
 1.3210	76.3859
 1.3200	76.4005
 1.3190	76.4098
 1.3180	76.3556
 1.3170	76.3716
 1.3160	76.3585
 1.3150	76.3472
 1.3140	76.3642
 1.3130	76.3407
 1.3120	76.3515
 1.3110	76.3375
 1.3100	76.3364
 1.3090	76.3514
 1.3080	76.3567
 1.3070	76.3687
 1.3060	76.3382
 1.3050	76.3668
 1.3040	76.2928
 1.3030	76.3315
 1.3020	76.3735
 1.3010	76.3635
 1.3000	76.3596
 1.2990	76.3377
 1.2980	76.3236
 1.2970	76.3224
 1.2960	76.2944
 1.2950	76.3377
 1.2940	76.3044
 1.2930	76.3150
 1.2920	76.2327
 1.2910	76.2791
 1.2900	76.3116
 1.2890	76.2926
 1.2880	76.2649
 1.2870	76.2463
 1.2860	76.3228
 1.2850	76.2435
 1.2840	76.1576
 1.2830	76.2542
 1.2820	76.2183
 1.2810	76.2519
 1.2800	76.2665
 1.2790	76.3114
 1.2780	76.2387
 1.2770	76.2776
 1.2760	76.2434
 1.2750	76.2805
 1.2740	76.2483
 1.2730	76.1984
 1.2720	76.1854
 1.2710	76.2413
 1.2700	76.2154
 1.2690	76.2267
 1.2680	76.2348
 1.2670	76.2235
 1.2660	76.2265
 1.2650	76.2517
 1.2640	76.1925
 1.2630	76.2225
 1.2620	76.2294
 1.2610	76.1923
 1.2600	76.2553
 1.2590	76.2700
 1.2580	76.2189
 1.2570	76.2213
 1.2560	76.2117
 1.2550	76.2380
 1.2540	76.2710
 1.2530	76.2776
 1.2520	76.2080
 1.2510	76.2192
 1.2500	76.2297
 1.2490	76.2376
 1.2480	76.2149
 1.2470	76.1799
 1.2460	76.2048
 1.2450	76.1695
 1.2440	76.2106
 1.2430	76.2024
 1.2420	76.2141
 1.2410	76.2587
 1.2400	76.1971
 1.2390	76.2471
 1.2380	76.2220
 1.2370	76.2228
 1.2360	76.2006
 1.2350	76.1652
 1.2340	76.1487
 1.2330	76.1394
 1.2320	76.1689
 1.2310	76.2004
 1.2300	76.1812
 1.2290	76.1733
 1.2280	76.1988
 1.2270	76.2094
 1.2260	76.1987
 1.2250	76.2194
 1.2240	76.2122
 1.2230	76.1901
 1.2220	76.1794
 1.2210	76.1937
 1.2200	76.1914
 1.2190	76.1800
 1.2180	76.1641
 1.2170	76.2094
 1.2160	76.2517
 1.2150	76.1953
 1.2140	76.1829
 1.2130	76.1809
 1.2120	76.2089
 1.2110	76.1699
 1.2100	76.1297
 1.2090	76.1456
 1.2080	76.1599
 1.2070	76.1882
 1.2060	76.1916
 1.2050	76.2194
 1.2040	76.2539
 1.2030	76.2263
 1.2020	76.2384
 1.2010	76.2549
 1.2000	76.2041
 1.1990	76.1967
 1.1980	76.1909
 1.1970	76.1662
 1.1960	76.1878
 1.1950	76.2438
 1.1940	76.2718
 1.1930	76.1944
 1.1920	76.2110
 1.1910	76.2548
 1.1900	76.2656
 1.1890	76.2335
 1.1880	76.2167
 1.1870	76.2619
 1.1860	76.2598
 1.1850	76.2046
 1.1840	76.2054
 1.1830	76.1810
 1.1820	76.2515
 1.1810	76.2741
 1.1800	76.2497
 1.1790	76.2188
 1.1780	76.2265
 1.1770	76.2196
 1.1760	76.2388
 1.1750	76.2361
 1.1740	76.3232
 1.1730	76.2995
 1.1720	76.2424
 1.1710	76.2255
 1.1700	76.2394
 1.1690	76.2995
 1.1680	76.2834
 1.1670	76.2156
 1.1660	76.2453
 1.1650	76.2506
 1.1640	76.2956
 1.1630	76.2733
 1.1620	76.2480
 1.1610	76.2501
 1.1600	76.2925
 1.1590	76.2657
 1.1580	76.2260
 1.1570	76.2273
 1.1560	76.2544
 1.1550	76.3163
 1.1540	76.3111
 1.1530	76.2584
 1.1520	76.2838
 1.1510	76.2691
 1.1500	76.3190
 1.1490	76.3535
 1.1480	76.3588
 1.1470	76.3603
 1.1460	76.3896
 1.1450	76.3693
 1.1440	76.3418
 1.1430	76.3872
 1.1420	76.4026
 1.1410	76.3174
 1.1400	76.3344
 1.1390	76.3543
 1.1380	76.3237
 1.1370	76.3760
 1.1360	76.3029
 1.1350	76.3487
 1.1340	76.3719
 1.1330	76.3809
 1.1320	76.3510
 1.1310	76.3425
 1.1300	76.4027
 1.1290	76.3939
 1.1280	76.4129
 1.1270	76.3256
 1.1260	76.3929
 1.1250	76.3634
 1.1240	76.3938
 1.1230	76.3868
 1.1220	76.4168
 1.1210	76.4149
 1.1200	76.4263
 1.1190	76.4347
 1.1180	76.3999
 1.1170	76.3802
 1.1160	76.4104
 1.1150	76.4054
 1.1140	76.3741
 1.1130	76.4133
 1.1120	76.4470
 1.1110	76.4012
 1.1100	76.4404
 1.1090	76.3942
 1.1080	76.4018
 1.1070	76.4750
 1.1060	76.4710
 1.1050	76.4498
 1.1040	76.4590
 1.1030	76.4779
 1.1020	76.4269
 1.1010	76.4481
 1.1000	76.4940
 1.0990	76.4196
 1.0980	76.4568
 1.0970	76.4708
 1.0960	76.5180
 1.0950	76.4190
 1.0940	76.4790
 1.0930	76.4463
 1.0920	76.5097
 1.0910	76.4793
 1.0900	76.5161
 1.0890	76.4683
 1.0880	76.4707
 1.0870	76.4618
 1.0860	76.5306
 1.0850	76.4392
 1.0840	76.4536
 1.0830	76.4581
 1.0820	76.4475
 1.0810	76.4493
 1.0800	76.5228
 1.0790	76.5024
 1.0780	76.4667
 1.0770	76.4748
 1.0760	76.4924
 1.0750	76.4620
 1.0740	76.4421
 1.0730	76.4522
 1.0720	76.4204
 1.0710	76.6021
 1.0700	76.4434
 1.0690	76.4280
 1.0680	76.5191
 1.0670	76.4221
 1.0660	76.5851
 1.0650	76.4651
 1.0640	76.4623
 1.0630	76.4442
 1.0620	76.4900
 1.0610	76.5222
 1.0600	76.4417
 1.0590	76.4846
 1.0580	76.5529
 1.0570	76.4136
 1.0560	76.5084
 1.0550	76.4281
 1.0540	76.5301
 1.0530	76.5617
 1.0520	76.4924
 1.0510	76.4720
 1.0500	76.4335
 1.0490	76.4946
 1.0480	76.5732
 1.0470	76.5752
 1.0460	76.5679
 1.0450	76.4790
 1.0440	76.5077
 1.0430	76.5056
 1.0420	76.5934
 1.0410	76.4897
 1.0400	76.4939
 1.0390	76.4990
 1.0380	76.5417
 1.0370	76.4999
 1.0360	76.5502
 1.0350	76.5378
 1.0340	76.5304
 1.0330	76.4607
 1.0320	76.5181
 1.0310	76.4828
 1.0300	76.5188
 1.0290	76.4894
 1.0280	76.5650
 1.0270	76.5481
 1.0260	76.4859
 1.0250	76.5389
 1.0240	76.5323
 1.0230	76.5399
 1.0220	76.5030
 1.0210	76.5435
 1.0200	76.4931
 1.0190	76.4649
 1.0180	76.5079
 1.0170	76.4770
 1.0160	76.6219
 1.0150	76.5541
 1.0140	76.5717
 1.0130	76.4899
 1.0120	76.6086
 1.0110	76.5664
 1.0100	76.5708
 1.0090	76.5577
 1.0080	76.6150
 1.0070	76.5668
 1.0060	76.5461
 1.0050	76.5462
 1.0040	76.5341
 1.0030	76.5847
 1.0020	76.5668
 1.0010	76.5931
 1.0000	76.5689
 0.9990	76.5641
 0.9980	76.5726
 0.9970	76.5615
 0.9960	76.5832
 0.9950	76.5937
 0.9940	76.6091
 0.9930	76.6540
 0.9920	76.5920
 0.9910	76.5711
 0.9900	76.5734
 0.9890	76.5584
 0.9880	76.6680
 0.9870	76.6682
 0.9860	76.6076
 0.9850	76.5942
 0.9840	76.5792
 0.9830	76.6128
 0.9820	76.6641
 0.9810	76.5637
 0.9800	76.6169
 0.9790	76.5841
 0.9780	76.5706
 0.9770	76.6084
 0.9760	76.6151
 0.9750	76.6192
 0.9740	76.6139
 0.9730	76.5856
 0.9720	76.5950
 0.9710	76.6303
 0.9700	76.6122
 0.9690	76.6247
 0.9680	76.5985
 0.9670	76.6102
 0.9660	76.6664
 0.9650	76.6767
 0.9640	76.6279
 0.9630	76.5659
 0.9620	76.6075
 0.9610	76.5954
 0.9600	76.6468
 0.9590	76.5989
 0.9580	76.6263
 0.9570	76.6635
 0.9560	76.6632
 0.9550	76.6211
 0.9540	76.6263
 0.9530	76.6580
 0.9520	76.6628
 0.9510	76.6353
 0.9500	76.6411
 0.9490	76.6637
 0.9480	76.6607
 0.9470	76.6572
 0.9460	76.6615
 0.9450	76.6583
 0.9440	76.6531
 0.9430	76.6867
 0.9420	76.7046
 0.9410	76.6281
 0.9400	76.6575
 0.9390	76.7035
 0.9380	76.6987
 0.9370	76.6694
 0.9360	76.7006
 0.9350	76.7559
 0.9340	76.7502
 0.9330	76.7111
 0.9320	76.7200
 0.9310	76.6910
 0.9300	76.6863
 0.9290	76.7086
 0.9280	76.6897
 0.9270	76.6932
 0.9260	76.7141
 0.9250	76.7540
 0.9240	76.7455
 0.9230	76.7097
 0.9220	76.6660
 0.9210	76.6449
 0.9200	76.6572
 0.9190	76.6752
 0.9180	76.6808
 0.9170	76.7351
 0.9160	76.7141
 0.9150	76.6838
 0.9140	76.6930
 0.9130	76.6861
 0.9120	76.6655
 0.9110	76.7408
 0.9100	76.7718
 0.9090	76.7218
 0.9080	76.6995
 0.9070	76.7042
 0.9060	76.7342
 0.9050	76.7214
 0.9040	76.7140
 0.9030	76.6961
 0.9020	76.6849
 0.9010	76.7501
 0.9000	76.7604
 0.8990	76.7416
 0.8980	76.7327
 0.8970	76.7013
 0.8960	76.6988
 0.8950	76.6682
 0.8940	76.6543
 0.8930	76.7067
 0.8920	76.6931
 0.8910	76.7048
 0.8900	76.7078
 0.8890	76.7481
 0.8880	76.6809
 0.8870	76.6672
 0.8860	76.6510
 0.8850	76.7022
 0.8840	76.7041
 0.8830	76.7047
 0.8820	76.7422
 0.8810	76.7191
 0.8800	76.6781
 0.8790	76.6735
 0.8780	76.6721
 0.8770	76.7190
 0.8760	76.7017
 0.8750	76.7040
 0.8740	76.6456
 0.8730	76.6827
 0.8720	76.7287
 0.8710	76.7044
 0.8700	76.6809
 0.8690	76.6854
 0.8680	76.6530
 0.8670	76.6780
 0.8660	76.7062
 0.8650	76.7066
 0.8640	76.7243
 0.8630	76.7017
 0.8620	76.6816
 0.8610	76.6735
 0.8600	76.6748
 0.8590	76.7123
 0.8580	76.7059
 0.8570	76.7135
 0.8560	76.8057
 0.8550	76.8120
 0.8540	76.7858
 0.8530	76.8296
 0.8520	76.9218
 0.8510	76.7886
 0.8500	76.7554
 0.8490	76.8127
 0.8480	76.7304
 0.8470	76.7990
 0.8460	76.8356
 0.8450	76.8075
 0.8440	76.7737
 0.8430	76.7611
 0.8420	76.7674
 0.8410	76.7485
 0.8400	76.8134
 0.8390	76.8202
 0.8380	76.7570
 0.8370	76.7607
 0.8360	76.7576
 0.8350	76.7738
 0.8340	76.8003
 0.8330	76.8157
 0.8320	76.7981
 0.8310	76.7911
 0.8300	76.8146
 0.8290	76.8412
 0.8280	76.7779
 0.8270	76.8082
 0.8260	76.8209
 0.8250	76.8047
 0.8240	76.8590
 0.8230	76.7598
 0.8220	76.8208
 0.8210	76.7679
 0.8200	76.7838
 0.8190	76.7942
 0.8180	76.8207
 0.8170	76.8001
 0.8160	76.7937
 0.8150	76.8401
 0.8140	76.8427
 0.8130	76.8103
 0.8120	76.8516
 0.8110	76.8193
 0.8100	76.7849
 0.8090	76.8106
 0.8080	76.8390
 0.8070	76.8320
 0.8060	76.8211
 0.8050	76.8336
 0.8040	76.8061
 0.8030	76.7971
 0.8020	76.8439
 0.8010	76.7686
 0.8000	76.7484
 0.7990	76.8142
 0.7980	76.7610
 0.7970	76.7469
 0.7960	76.7210
 0.7950	76.7045
 0.7940	76.6790
 0.7930	76.7102
 0.7920	76.6834
 0.7910	76.6855
 0.7900	76.7221
 0.7890	76.7119
 0.7880	76.6859
 0.7870	76.6617
 0.7860	76.7265
 0.7850	76.6697
 0.7840	76.6470
 0.7830	76.7009
 0.7820	76.6342
 0.7810	76.6649
 0.7800	76.6581
 0.7790	76.6476
 0.7780	76.5554
 0.7770	76.6051
 0.7760	76.5909
 0.7750	76.6011
 0.7740	76.5886
 0.7730	76.5303
 0.7720	76.5551
 0.7710	76.5535
 0.7700	76.5916
 0.7690	76.5202
 0.7680	76.5282
 0.7670	76.5702
 0.7660	76.5505
 0.7650	76.5502
 0.7640	76.5239
 0.7630	76.5518
 0.7620	76.5346
 0.7610	76.4890
 0.7600	76.5057
 0.7590	76.4745
 0.7580	76.4978
 0.7570	76.4927
 0.7560	76.4820
 0.7550	76.4762
 0.7540	76.4997
 0.7530	76.4561
 0.7520	76.4497
 0.7510	76.4820
 0.7500	76.4292
 0.7490	76.3979
 0.7480	76.4332
 0.7470	76.4200
 0.7460	76.4037
 0.7450	76.4045
 0.7440	76.4140
 0.7430	76.4023
 0.7420	76.3936
 0.7410	76.3651
 0.7400	76.3609
 0.7390	76.3421
 0.7380	76.3204
 0.7370	76.3174
 0.7360	76.3231
 0.7350	76.3160
 0.7340	76.3153
 0.7330	76.2956
 0.7320	76.3062
 0.7310	76.3148
 0.7300	76.2862
 0.7290	76.2722
 0.7280	76.2870
 0.7270	76.2660
 0.7260	76.2436
 0.7250	76.2635
 0.7240	76.2255
 0.7230	76.2216
 0.7220	76.2284
 0.7210	76.1824
 0.7200	76.1971
 0.7190	76.1936
 0.7180	76.1961
 0.7170	76.1476
 0.7160	76.1622
 0.7150	76.1505
 0.7140	76.1504
 0.7130	76.1623
 0.7120	76.1392
 0.7110	76.1340
 0.7100	76.1264
 0.7090	76.1268
 0.7080	76.1018
 0.7070	76.1061
 0.7060	76.1129
 0.7050	76.0932
 0.7040	76.0972
 0.7030	76.0763
 0.7020	76.0790
 0.7010	76.0862
 0.7000	76.0456
 0.6990	76.0664
 0.6980	76.0433
 0.6970	76.0348
 0.6960	76.0347
 0.6950	76.0209
 0.6940	76.0027
 0.6930	76.0059
 0.6920	75.9896
 0.6910	75.9944
 0.6900	75.9912
 0.6890	75.9814
 0.6880	75.9939
 0.6870	75.9838
 0.6860	75.9772
 0.6850	75.9602
 0.6840	75.9690
 0.6830	75.9515
 0.6820	75.9398
 0.6810	75.9260
 0.6800	75.9172
 0.6790	75.9193
 0.6780	75.9262
 0.6770	75.9174
 0.6760	75.9010
 0.6750	75.9126
 0.6740	75.8687
 0.6730	75.7130
 0.6720	75.5828
 0.6710	75.5648
 0.6700	75.5414
 0.6690	75.5272
 0.6680	75.5187
 0.6670	75.5118
 0.6660	75.5310
 0.6650	75.5276
 0.6640	75.4900
 0.6630	75.4819
 0.6620	75.4904
 0.6610	75.4926
 0.6600	75.5138
 0.6590	75.5060
 0.6580	75.4851
 0.6570	75.4923
 0.6560	75.4806
 0.6550	75.4351
 0.6540	75.4314
 0.6530	75.4328
 0.6520	75.4275
 0.6510	75.4004
 0.6500	75.3929
 0.6490	75.4130
 0.6480	75.4183
 0.6470	75.3990
 0.6460	75.3952
 0.6450	75.4183
 0.6440	75.4095
 0.6430	75.3848
 0.6420	75.3794
 0.6410	75.3846
 0.6400	75.3731
 0.6390	75.3549
 0.6380	75.3605
 0.6370	75.3728
 0.6360	75.3667
 0.6350	75.3544
 0.6340	75.3439
 0.6330	75.3356
 0.6320	75.3288
 0.6310	75.3181
 0.6300	75.3174
 0.6290	75.3277
 0.6280	75.4485
 0.6270	75.5760
 0.6260	75.6041
 0.6250	75.6081
 0.6240	75.5939
 0.6230	75.5785
 0.6220	75.5659
 0.6210	75.5648
 0.6200	75.5649
 0.6190	75.5624
 0.6180	75.5599
 0.6170	75.5347
 0.6160	75.5221
 0.6150	75.5277
 0.6140	75.5208
 0.6130	75.5008
 0.6120	75.4881
 0.6110	75.5021
 0.6100	75.4945
 0.6090	75.4770
 0.6080	75.4843
 0.6070	75.4914
 0.6060	75.4685
 0.6050	75.4639
 0.6040	75.4530
 0.6030	75.4526
 0.6020	75.4448
 0.6010	75.4328
 0.6000	75.4084
 0.5990	75.4030
 0.5980	75.4290
 0.5970	75.4357
 0.5960	75.4307
 0.5950	75.4399
 0.5940	75.4443
 0.5930	75.4449
 0.5920	75.4335
 0.5910	75.4134
 0.5900	75.3958
 0.5890	75.3907
 0.5880	75.3807
 0.5870	75.3732
 0.5860	75.3736
 0.5850	75.3523
 0.5840	75.3268
 0.5830	75.3111
 0.5820	75.3072
 0.5810	75.2921
 0.5800	75.2850
 0.5790	75.2856
 0.5780	75.2777
 0.5770	75.2518
 0.5760	75.2528
 0.5750	75.2509
 0.5740	75.2037
 0.5730	75.1953
 0.5720	75.1909
 0.5710	75.1631
 0.5700	75.1520
 0.5690	75.1421
 0.5680	75.1300
 0.5670	75.1204
 0.5660	75.1174
 0.5650	75.0909
 0.5640	75.0721
 0.5630	75.0568
 0.5620	75.0440
 0.5610	75.0270
 0.5600	75.0138
 0.5590	74.9864
 0.5580	74.9639
 0.5570	74.9397
 0.5560	74.9231
 0.5550	74.9126
 0.5540	74.8838
 0.5530	74.8822
 0.5520	74.8914
 0.5510	74.8518
 0.5500	74.8174
 0.5490	74.7984
 0.5480	74.7912
 0.5470	74.7728
 0.5460	74.7338
 0.5450	74.7043
 0.5440	74.6933
 0.5430	74.6937
 0.5420	74.6722
 0.5410	74.6455
 0.5400	74.6166
 0.5390	74.5844
 0.5380	74.5724
 0.5370	74.5453
 0.5360	74.5351
 0.5350	74.5009
 0.5340	74.4748
 0.5330	74.4380
 0.5320	74.4244
 0.5310	74.3806
 0.5300	74.3705
 0.5290	74.3520
 0.5280	74.3115
 0.5270	74.2943
 0.5260	74.2754
 0.5250	74.2537
 0.5240	74.2194
 0.5230	74.1878
 0.5220	74.1423
 0.5210	74.1320
 0.5200	74.0823
 0.5190	74.0558
 0.5180	74.0101
 0.5170	73.9921
 0.5160	73.9638
 0.5150	73.9175
 0.5140	73.9039
 0.5130	73.8546
 0.5120	73.8224
 0.5110	73.7864
 0.5100	73.7402
 0.5090	73.7197
 0.5080	73.6718
 0.5070	73.6533
 0.5060	73.5929
 0.5050	73.5711
 0.5040	73.5292
 0.5030	73.4981
 0.5020	73.4520
 0.5010	73.4187
 0.5000	73.3828
 0.4990	73.3239
 0.4980	73.2935
 0.4970	73.2559
 0.4960	73.2128
 0.4950	73.1428
 0.4940	73.0975
 0.4930	73.0694
 0.4920	73.0278
 0.4910	72.9977
 0.4900	72.9664
 0.4890	72.9245
 0.4880	72.8707
 0.4870	72.8186
 0.4860	72.7860
 0.4850	72.7470
 0.4840	72.7077
 0.4830	72.6454
 0.4820	72.5921
 0.4810	72.5819
 0.4800	72.5346
 0.4790	72.4772
 0.4780	72.4489
 0.4770	72.4056
 0.4760	72.3668
 0.4750	72.3548
 0.4740	72.3079
 0.4730	72.2707
 0.4720	72.2271
 0.4710	72.2004
 0.4700	72.1712
 0.4690	72.1126
 0.4680	72.0650
 0.4670	72.0274
 0.4660	72.0083
 0.4650	71.9665
 0.4640	71.9279
 0.4630	71.8857
 0.4620	71.8490
 0.4610	71.8125
 0.4600	71.7710
 0.4590	71.7274
 0.4580	71.6686
 0.4570	71.6038
 0.4560	71.5678
 0.4550	71.5078
 0.4540	71.4555
 0.4530	71.3987
 0.4520	71.3341
 0.4510	71.2804
 0.4500	71.2277
 0.4490	71.1761
 0.4480	71.0965
 0.4470	71.0422
 0.4460	70.9709
 0.4450	70.8938
 0.4440	70.8257
 0.4430	70.7495
 0.4420	70.6797
 0.4410	70.5770
 0.4400	70.5217
 0.4390	70.4327
 0.4380	70.3402
 0.4370	70.2474
 0.4360	70.1895
 0.4350	70.1113
 0.4340	69.9970
 0.4330	69.9336
 0.4320	69.8359
 0.4310	69.7227
 0.4300	69.6466
 0.4290	69.5550
 0.4280	69.4643
 0.4270	69.3631
 0.4260	69.2647
 0.4250	69.2061
 0.4240	69.1093
 0.4230	69.0219
 0.4220	68.9371
 0.4210	68.8786
 0.4200	68.7951
 0.4190	68.6990
 0.4180	68.6439
 0.4170	68.5638
 0.4160	68.4849
 0.4150	68.4305
 0.4140	68.3399
 0.4130	68.2640
 0.4120	68.2026
 0.4110	68.1263
 0.4100	68.0612
 0.4090	67.9927
 0.4080	67.9120
 0.4070	67.8378
 0.4060	67.7528
 0.4050	67.6867
 0.4040	67.6112
 0.4030	67.5170
 0.4020	67.4379
 0.4010	67.3573
 0.4000	67.2751
