Name: Colemanite Ca_2B_6O_11.5H_2O
Type: Mineral
Class: Borate
Subclass: None
Particle Size: Medium
Sample No.: B-1A
Owner: JPL
Wavelength Range: VSWIR
Origin: USA, California, Kern County, Boron.
Collection Date: N/A
Description: Particle size was 45-125um.Collected by:  Burminco Original ASTER Spectral Library name was jpl.perkin.mineral.borate.none.medium.b01a.spectrum.txt
Measurement: Hemispherical reflectance
First Column: X
Second Column: Y
X Units: Wavelength (micrometers)
Y Units:Reflectance (percent)
First X Value:  2.5000
Last X Value:  0.4000
Number of X Values: 2101
Additional Information: mineral.borate.none.medium.vswir.b-1a.jpl.perkin.ancillary.txt

 2.5000	12.6791
 2.4990	12.6669
 2.4980	12.5604
 2.4970	12.9548
 2.4960	12.2797
 2.4950	13.0268
 2.4940	12.4447
 2.4930	12.9165
 2.4920	12.5110
 2.4910	12.9018
 2.4900	12.7333
 2.4890	12.8547
 2.4880	12.6397
 2.4870	12.8507
 2.4860	12.6439
 2.4850	12.9014
 2.4840	12.6429
 2.4830	12.9431
 2.4820	12.5767
 2.4810	12.9227
 2.4800	12.6464
 2.4790	12.9096
 2.4780	12.7062
 2.4770	12.7186
 2.4760	12.6683
 2.4750	12.7968
 2.4740	12.6642
 2.4730	12.8307
 2.4720	12.5729
 2.4710	12.8455
 2.4700	12.5675
 2.4690	12.8036
 2.4680	12.6842
 2.4670	12.6991
 2.4660	12.5055
 2.4650	12.7003
 2.4640	12.4959
 2.4630	12.6575
 2.4620	12.5793
 2.4610	12.6796
 2.4600	12.5607
 2.4590	12.7291
 2.4580	12.7145
 2.4570	12.6423
 2.4560	12.5887
 2.4550	12.7907
 2.4540	12.6372
 2.4530	12.7471
 2.4520	12.6721
 2.4510	12.8422
 2.4500	12.7376
 2.4490	12.9208
 2.4480	12.8274
 2.4470	12.9394
 2.4460	12.8521
 2.4450	13.0791
 2.4440	12.9154
 2.4430	13.0555
 2.4420	13.0065
 2.4410	13.1685
 2.4400	13.0937
 2.4390	13.1725
 2.4380	13.1730
 2.4370	13.3482
 2.4360	13.3722
 2.4350	13.4656
 2.4340	13.3106
 2.4330	13.4586
 2.4320	13.4362
 2.4310	13.5440
 2.4300	13.4442
 2.4290	13.6400
 2.4280	13.6003
 2.4270	13.7671
 2.4260	13.7966
 2.4250	13.9004
 2.4240	13.7735
 2.4230	13.9348
 2.4220	13.9756
 2.4210	14.0073
 2.4200	13.9539
 2.4190	14.0929
 2.4180	13.9845
 2.4170	14.1611
 2.4160	14.1838
 2.4150	14.4342
 2.4140	14.3647
 2.4130	14.4839
 2.4120	14.5748
 2.4110	14.6741
 2.4100	14.7350
 2.4090	14.8179
 2.4080	14.8695
 2.4070	15.0457
 2.4060	15.1260
 2.4050	15.2627
 2.4040	15.2793
 2.4030	15.4950
 2.4020	15.5705
 2.4010	15.7443
 2.4000	15.8271
 2.3990	15.9770
 2.3980	16.1447
 2.3970	16.3393
 2.3960	16.3884
 2.3950	16.5707
 2.3940	16.6996
 2.3930	16.9262
 2.3920	16.9724
 2.3910	17.1703
 2.3900	17.2685
 2.3890	17.4687
 2.3880	17.6012
 2.3870	17.7671
 2.3860	17.8699
 2.3850	18.0379
 2.3840	18.2028
 2.3830	18.4335
 2.3820	18.5508
 2.3810	18.7802
 2.3800	18.9649
 2.3790	19.1365
 2.3780	19.2926
 2.3770	19.4764
 2.3760	19.6206
 2.3750	19.8202
 2.3740	19.9338
 2.3730	20.1216
 2.3720	20.2902
 2.3710	20.4546
 2.3700	20.5854
 2.3690	20.7907
 2.3680	20.9749
 2.3670	21.0866
 2.3660	21.2367
 2.3650	21.4382
 2.3640	21.6035
 2.3630	21.8343
 2.3620	21.9579
 2.3610	22.0974
 2.3600	22.3229
 2.3590	22.4833
 2.3580	22.6006
 2.3570	22.7601
 2.3560	22.9244
 2.3550	23.0641
 2.3540	23.2426
 2.3530	23.3738
 2.3520	23.5092
 2.3510	23.6566
 2.3500	23.7826
 2.3490	23.9248
 2.3480	24.0670
 2.3470	24.1912
 2.3460	24.3059
 2.3450	24.3961
 2.3440	24.5189
 2.3430	24.5994
 2.3420	24.7246
 2.3410	24.8220
 2.3400	24.9275
 2.3390	25.0242
 2.3380	25.0934
 2.3370	25.1634
 2.3360	25.2693
 2.3350	25.3361
 2.3340	25.4383
 2.3330	25.5649
 2.3320	25.6580
 2.3310	25.6746
 2.3300	25.8159
 2.3290	25.8865
 2.3280	26.0023
 2.3270	26.0275
 2.3260	26.1588
 2.3250	26.1818
 2.3240	26.2801
 2.3230	26.3512
 2.3220	26.4239
 2.3210	26.4629
 2.3200	26.5880
 2.3190	26.6504
 2.3180	26.7412
 2.3170	26.7847
 2.3160	26.8415
 2.3150	26.8675
 2.3140	26.9794
 2.3130	27.0234
 2.3120	27.1159
 2.3110	27.0567
 2.3100	27.1262
 2.3090	27.1085
 2.3080	27.1668
 2.3070	27.2298
 2.3060	27.2635
 2.3050	27.2753
 2.3040	27.2626
 2.3030	27.2030
 2.3020	27.2827
 2.3010	27.2620
 2.3000	27.3264
 2.2990	27.2783
 2.2980	27.3143
 2.2970	27.2712
 2.2960	27.2961
 2.2950	27.2505
 2.2940	27.3202
 2.2930	27.2115
 2.2920	27.2677
 2.2910	27.2061
 2.2900	27.2954
 2.2890	27.1493
 2.2880	27.2047
 2.2870	27.1789
 2.2860	27.1753
 2.2850	27.0626
 2.2840	27.0615
 2.2830	27.0245
 2.2820	27.0112
 2.2810	26.9566
 2.2800	26.9274
 2.2790	26.8327
 2.2780	26.8053
 2.2770	26.6583
 2.2760	26.6580
 2.2750	26.5506
 2.2740	26.5687
 2.2730	26.4465
 2.2720	26.4324
 2.2710	26.2880
 2.2700	26.2477
 2.2690	26.2085
 2.2680	26.1292
 2.2670	25.9934
 2.2660	25.9830
 2.2650	25.8974
 2.2640	25.9183
 2.2630	25.7958
 2.2620	25.8207
 2.2610	25.7019
 2.2600	25.6983
 2.2590	25.5743
 2.2580	25.5552
 2.2570	25.4327
 2.2560	25.3975
 2.2550	25.2621
 2.2540	25.2953
 2.2530	25.1518
 2.2520	25.1586
 2.2510	24.8975
 2.2500	24.8997
 2.2490	24.7195
 2.2480	24.6441
 2.2470	24.4690
 2.2460	24.4312
 2.2450	24.2376
 2.2440	24.0818
 2.2430	23.9465
 2.2420	23.8918
 2.2410	23.5911
 2.2400	23.5465
 2.2390	23.3673
 2.2380	23.3447
 2.2370	23.0714
 2.2360	23.0597
 2.2350	22.7836
 2.2340	22.7086
 2.2330	22.5208
 2.2320	22.4352
 2.2310	22.3236
 2.2300	22.2757
 2.2290	22.0444
 2.2280	22.0250
 2.2270	21.8133
 2.2260	21.8039
 2.2250	21.6007
 2.2240	21.5620
 2.2230	21.4106
 2.2220	21.3382
 2.2210	21.1652
 2.2200	21.1612
 2.2190	20.9070
 2.2180	20.8159
 2.2170	20.6916
 2.2160	20.6076
 2.2150	20.3786
 2.2140	20.2756
 2.2130	20.0686
 2.2120	20.1070
 2.2110	19.6544
 2.2100	19.7973
 2.2090	19.4975
 2.2080	19.5360
 2.2070	19.4125
 2.2060	19.4008
 2.2050	19.1767
 2.2040	19.2659
 2.2030	19.1485
 2.2020	19.2477
 2.2010	19.1631
 2.2000	19.2918
 2.1990	19.1863
 2.1980	19.3848
 2.1970	19.4006
 2.1960	19.4729
 2.1950	19.5355
 2.1940	19.6689
 2.1930	19.7124
 2.1920	19.9051
 2.1910	19.8449
 2.1900	20.0879
 2.1890	20.0476
 2.1880	20.2643
 2.1870	20.2442
 2.1860	20.4105
 2.1850	20.3595
 2.1840	20.5722
 2.1830	20.6483
 2.1820	20.6969
 2.1810	20.7798
 2.1800	20.8461
 2.1790	20.8474
 2.1780	20.9450
 2.1770	20.9450
 2.1760	21.0770
 2.1750	21.0104
 2.1740	21.0623
 2.1730	21.0695
 2.1720	21.2094
 2.1710	21.1248
 2.1700	21.2404
 2.1690	21.2312
 2.1680	21.3830
 2.1670	21.3674
 2.1660	21.5496
 2.1650	21.5719
 2.1640	21.7087
 2.1630	21.7516
 2.1620	21.8636
 2.1610	21.9155
 2.1600	22.1437
 2.1590	22.1741
 2.1580	22.3727
 2.1570	22.4599
 2.1560	22.6026
 2.1550	22.7394
 2.1540	22.9977
 2.1530	23.0346
 2.1520	23.2725
 2.1510	23.3410
 2.1500	23.5147
 2.1490	23.6056
 2.1480	23.7894
 2.1470	23.8149
 2.1460	23.9805
 2.1450	24.0068
 2.1440	24.0747
 2.1430	24.1104
 2.1420	24.0888
 2.1410	24.1039
 2.1400	24.0186
 2.1390	23.9401
 2.1380	23.8726
 2.1370	23.6576
 2.1360	23.6225
 2.1350	23.4570
 2.1340	23.3086
 2.1330	23.0261
 2.1320	22.8375
 2.1310	22.6051
 2.1300	22.3963
 2.1290	22.1137
 2.1280	21.8507
 2.1270	21.5077
 2.1260	21.2807
 2.1250	20.9306
 2.1240	20.6495
 2.1230	20.3238
 2.1220	19.9912
 2.1210	19.6817
 2.1200	19.3368
 2.1190	18.9915
 2.1180	18.6577
 2.1170	18.3485
 2.1160	18.1176
 2.1150	17.8323
 2.1140	17.5536
 2.1130	17.3096
 2.1120	17.2139
 2.1110	17.0022
 2.1100	16.8644
 2.1090	16.7752
 2.1080	16.7551
 2.1070	16.7001
 2.1060	16.6521
 2.1050	16.6630
 2.1040	16.8008
 2.1030	16.9114
 2.1020	17.0561
 2.1010	17.2383
 2.1000	17.5640
 2.0990	17.8923
 2.0980	18.2656
 2.0970	18.6769
 2.0960	19.1857
 2.0950	19.6914
 2.0940	20.2660
 2.0930	20.8313
 2.0920	21.4422
 2.0910	22.0172
 2.0900	22.6469
 2.0890	23.1934
 2.0880	23.7340
 2.0870	24.2879
 2.0860	24.8588
 2.0850	25.2776
 2.0840	25.6444
 2.0830	25.9753
 2.0820	26.3174
 2.0810	26.6249
 2.0800	26.8812
 2.0790	27.1096
 2.0780	27.3242
 2.0770	27.4575
 2.0760	27.6045
 2.0750	27.6927
 2.0740	27.7785
 2.0730	27.8801
 2.0720	27.9776
 2.0710	28.0574
 2.0700	28.0976
 2.0690	28.1010
 2.0680	28.1524
 2.0670	28.1764
 2.0660	28.2148
 2.0650	28.2992
 2.0640	28.3169
 2.0630	28.3227
 2.0620	28.3452
 2.0610	28.3766
 2.0600	28.3966
 2.0590	28.4385
 2.0580	28.4423
 2.0570	28.4969
 2.0560	28.5259
 2.0550	28.5126
 2.0540	28.4729
 2.0530	28.5205
 2.0520	28.5335
 2.0510	28.5541
 2.0500	28.5322
 2.0490	28.5723
 2.0480	28.5578
 2.0470	28.5622
 2.0460	28.5287
 2.0450	28.5397
 2.0440	28.4984
 2.0430	28.4922
 2.0420	28.4453
 2.0410	28.4566
 2.0400	28.4027
 2.0390	28.4182
 2.0380	28.3783
 2.0370	28.3293
 2.0360	28.2891
 2.0350	28.3148
 2.0340	28.2544
 2.0330	28.2877
 2.0320	28.2171
 2.0310	28.1787
 2.0300	28.1374
 2.0290	28.1340
 2.0280	28.0728
 2.0270	28.0488
 2.0260	27.9623
 2.0250	27.9496
 2.0240	27.9252
 2.0230	27.9525
 2.0220	27.8452
 2.0210	27.9013
 2.0200	27.8433
 2.0190	27.8264
 2.0180	27.7805
 2.0170	27.8012
 2.0160	27.6824
 2.0150	27.6386
 2.0140	27.5433
 2.0130	27.5751
 2.0120	27.4991
 2.0110	27.4752
 2.0100	27.3888
 2.0090	27.3460
 2.0080	27.2233
 2.0070	27.2320
 2.0060	27.1183
 2.0050	27.1084
 2.0040	26.9489
 2.0030	26.9587
 2.0020	26.8677
 2.0010	26.9098
 2.0000	26.8309
 1.9990	26.7807
 1.9980	26.6897
 1.9970	26.6318
 1.9960	26.5838
 1.9950	26.6568
 1.9940	26.5192
 1.9930	26.4805
 1.9920	26.4123
 1.9910	26.4788
 1.9900	26.3783
 1.9890	26.4140
 1.9880	26.2515
 1.9870	26.3013
 1.9860	26.2047
 1.9850	26.2217
 1.9840	26.1406
 1.9830	26.0757
 1.9820	26.0007
 1.9810	26.0346
 1.9800	25.9321
 1.9790	25.9649
 1.9780	25.8035
 1.9770	25.7844
 1.9760	25.7464
 1.9750	25.6840
 1.9740	25.6489
 1.9730	25.6542
 1.9720	25.4772
 1.9710	25.5312
 1.9700	25.3892
 1.9690	25.4139
 1.9680	25.3045
 1.9670	25.3522
 1.9660	25.1483
 1.9650	25.2171
 1.9640	25.1614
 1.9630	25.2260
 1.9620	25.1502
 1.9610	25.1153
 1.9600	25.1216
 1.9590	25.2930
 1.9580	25.1243
 1.9570	25.2841
 1.9560	25.2817
 1.9550	25.3842
 1.9540	25.4215
 1.9530	25.5454
 1.9520	25.5432
 1.9510	25.8507
 1.9500	25.8566
 1.9490	26.0871
 1.9480	26.1301
 1.9470	26.4888
 1.9460	26.4482
 1.9450	26.8388
 1.9440	26.9084
 1.9430	27.2189
 1.9420	27.3927
 1.9410	27.7630
 1.9400	27.9350
 1.9390	28.2312
 1.9380	28.5331
 1.9370	28.8327
 1.9360	29.0907
 1.9350	29.5078
 1.9340	29.6657
 1.9330	30.0810
 1.9320	30.3021
 1.9310	30.7558
 1.9300	30.9808
 1.9290	31.3642
 1.9280	31.6317
 1.9270	31.9954
 1.9260	32.1059
 1.9250	32.5702
 1.9240	32.8570
 1.9230	33.1896
 1.9220	33.4552
 1.9210	33.7205
 1.9200	34.0344
 1.9190	34.3360
 1.9180	34.6218
 1.9170	34.8672
 1.9160	35.1139
 1.9150	35.4549
 1.9140	35.6855
 1.9130	36.0134
 1.9120	36.1876
 1.9110	36.4949
 1.9100	36.6717
 1.9090	37.0011
 1.9080	37.0316
 1.9070	37.4741
 1.9060	37.6024
 1.9050	37.8493
 1.9040	37.9629
 1.9030	38.2905
 1.9020	38.4273
 1.9010	38.6968
 1.9000	38.9074
 1.8990	39.1116
 1.8980	39.2074
 1.8970	39.4992
 1.8960	39.5623
 1.8950	39.8001
 1.8940	39.9032
 1.8930	40.1125
 1.8920	40.1910
 1.8910	40.3888
 1.8900	40.4113
 1.8890	40.6334
 1.8880	40.7686
 1.8870	40.9055
 1.8860	40.9775
 1.8850	41.1564
 1.8840	41.2139
 1.8830	41.4352
 1.8820	41.4782
 1.8810	41.5702
 1.8800	41.7006
 1.8790	41.8309
 1.8780	41.8947
 1.8770	42.1055
 1.8760	42.0918
 1.8750	42.2366
 1.8740	42.2104
 1.8730	42.3462
 1.8720	42.4763
 1.8710	42.5602
 1.8700	42.5823
 1.8690	42.7073
 1.8680	42.8064
 1.8670	42.9035
 1.8660	42.9431
 1.8650	43.0170
 1.8640	43.0329
 1.8630	43.1619
 1.8620	43.1438
 1.8610	43.1978
 1.8600	43.2564
 1.8590	43.3011
 1.8580	43.3925
 1.8570	43.4054
 1.8560	43.3865
 1.8550	43.4347
 1.8540	43.4443
 1.8530	43.4569
 1.8520	43.4710
 1.8510	43.5665
 1.8500	43.5436
 1.8490	43.5134
 1.8480	43.4857
 1.8470	43.5303
 1.8460	43.5070
 1.8450	43.5650
 1.8440	43.5627
 1.8430	43.6239
 1.8420	43.5955
 1.8410	43.5801
 1.8400	43.5640
 1.8390	43.5670
 1.8380	43.5524
 1.8370	43.5464
 1.8360	43.5166
 1.8350	43.5159
 1.8340	43.5048
 1.8330	43.5410
 1.8320	43.5295
 1.8310	43.5653
 1.8300	43.4851
 1.8290	43.4621
 1.8280	43.4548
 1.8270	43.4631
 1.8260	43.4660
 1.8250	43.4592
 1.8240	43.4161
 1.8230	43.4439
 1.8220	43.3454
 1.8210	43.3850
 1.8200	43.3529
 1.8190	43.3709
 1.8180	43.3826
 1.8170	43.3657
 1.8160	43.3128
 1.8150	43.2929
 1.8140	43.3361
 1.8130	43.4300
 1.8120	43.3293
 1.8110	43.3038
 1.8100	43.3408
 1.8090	43.3775
 1.8080	43.3535
 1.8070	43.3448
 1.8060	43.3701
 1.8050	43.4088
 1.8040	43.3914
 1.8030	43.3712
 1.8020	43.3309
 1.8010	43.3557
 1.8000	43.3619
 1.7990	43.3465
 1.7980	43.3162
 1.7970	43.3008
 1.7960	43.3268
 1.7950	43.3686
 1.7940	43.3609
 1.7930	43.4051
 1.7920	43.3826
 1.7910	43.3516
 1.7900	43.3566
 1.7890	43.3426
 1.7880	43.3608
 1.7870	43.3688
 1.7860	43.3469
 1.7850	43.3444
 1.7840	43.3435
 1.7830	43.3319
 1.7820	43.3248
 1.7810	43.3404
 1.7800	43.3339
 1.7790	43.3084
 1.7780	43.3357
 1.7770	43.2784
 1.7760	43.3113
 1.7750	43.3524
 1.7740	43.3190
 1.7730	43.3347
 1.7720	43.3634
 1.7710	43.3687
 1.7700	43.3923
 1.7690	43.3500
 1.7680	43.3520
 1.7670	43.3319
 1.7660	43.3553
 1.7650	43.4024
 1.7640	43.4262
 1.7630	43.4154
 1.7620	43.4428
 1.7610	43.4729
 1.7600	43.4974
 1.7590	43.4752
 1.7580	43.5199
 1.7570	43.5279
 1.7560	43.5864
 1.7550	43.5816
 1.7540	43.6505
 1.7530	43.6648
 1.7520	43.7346
 1.7510	43.7348
 1.7500	43.7446
 1.7490	43.7981
 1.7480	43.8549
 1.7470	43.8578
 1.7460	43.8723
 1.7450	43.8925
 1.7440	43.9092
 1.7430	43.8854
 1.7420	43.9821
 1.7410	43.9664
 1.7400	43.9799
 1.7390	43.9612
 1.7380	43.9756
 1.7370	43.9873
 1.7360	44.0350
 1.7350	43.9947
 1.7340	44.0374
 1.7330	44.0004
 1.7320	44.0783
 1.7310	43.9981
 1.7300	44.0544
 1.7290	43.9979
 1.7280	43.9887
 1.7270	43.9507
 1.7260	43.9376
 1.7250	43.9212
 1.7240	43.8770
 1.7230	43.9097
 1.7220	43.8898
 1.7210	43.8057
 1.7200	43.7934
 1.7190	43.7500
 1.7180	43.7315
 1.7170	43.7162
 1.7160	43.6653
 1.7150	43.5361
 1.7140	43.5192
 1.7130	43.4607
 1.7120	43.4112
 1.7110	43.3423
 1.7100	43.3557
 1.7090	43.3120
 1.7080	43.2006
 1.7070	43.1744
 1.7060	43.1653
 1.7050	43.0170
 1.7040	42.9926
 1.7030	42.8933
 1.7020	42.8828
 1.7010	42.7804
 1.7000	42.7398
 1.6990	42.6731
 1.6980	42.6913
 1.6970	42.5697
 1.6960	42.5300
 1.6950	42.4485
 1.6940	42.4704
 1.6930	42.3925
 1.6920	42.4147
 1.6910	42.3183
 1.6900	42.3569
 1.6890	42.2263
 1.6880	42.2950
 1.6870	42.1716
 1.6860	42.2704
 1.6850	42.1915
 1.6840	42.2351
 1.6830	42.1413
 1.6820	42.1911
 1.6810	42.0995
 1.6800	42.1304
 1.6790	42.0411
 1.6780	42.0427
 1.6770	42.0733
 1.6760	42.1538
 1.6750	41.9567
 1.6740	41.9887
 1.6730	41.9118
 1.6720	42.0144
 1.6710	41.9173
 1.6700	41.9602
 1.6690	42.0265
 1.6680	41.8301
 1.6670	41.8634
 1.6660	41.8817
 1.6650	41.8835
 1.6640	41.9243
 1.6630	41.9435
 1.6620	41.9578
 1.6610	41.8770
 1.6600	41.9854
 1.6590	41.9807
 1.6580	42.1057
 1.6570	41.9738
 1.6560	42.1051
 1.6550	42.1029
 1.6540	42.2078
 1.6530	42.1157
 1.6520	42.2620
 1.6510	42.3232
 1.6500	42.4279
 1.6490	42.3745
 1.6480	42.5401
 1.6470	42.6665
 1.6460	42.7742
 1.6450	42.7188
 1.6440	42.8758
 1.6430	42.8824
 1.6420	43.1346
 1.6410	42.9550
 1.6400	43.3161
 1.6390	43.2933
 1.6380	43.5128
 1.6370	43.5367
 1.6360	43.7129
 1.6350	43.6765
 1.6340	43.9256
 1.6330	44.0130
 1.6320	44.1656
 1.6310	44.2448
 1.6300	44.4072
 1.6290	44.5452
 1.6280	44.6950
 1.6270	44.7888
 1.6260	45.0057
 1.6250	45.1042
 1.6240	45.2254
 1.6230	45.3744
 1.6220	45.5138
 1.6210	45.5911
 1.6200	45.8424
 1.6190	45.9819
 1.6180	46.1079
 1.6170	46.2505
 1.6160	46.4645
 1.6150	46.4776
 1.6140	46.7076
 1.6130	46.6665
 1.6120	46.9530
 1.6110	46.9709
 1.6100	47.1825
 1.6090	47.2421
 1.6080	47.4451
 1.6070	47.5396
 1.6060	47.7504
 1.6050	47.7734
 1.6040	47.8841
 1.6030	47.9841
 1.6020	48.1653
 1.6010	48.1746
 1.6000	48.3136
 1.5990	48.3557
 1.5980	48.5428
 1.5970	48.6309
 1.5960	48.6787
 1.5950	48.7585
 1.5940	48.7983
 1.5930	48.8125
 1.5920	48.9618
 1.5910	48.9709
 1.5900	49.0733
 1.5890	49.0750
 1.5880	49.0935
 1.5870	49.1697
 1.5860	49.1799
 1.5850	49.1217
 1.5840	49.2014
 1.5830	49.0654
 1.5820	49.1465
 1.5810	49.1053
 1.5800	49.0627
 1.5790	49.0337
 1.5780	49.0350
 1.5770	48.9490
 1.5760	48.9613
 1.5750	48.9271
 1.5740	48.9183
 1.5730	48.8160
 1.5720	48.7814
 1.5710	48.7372
 1.5700	48.7100
 1.5690	48.7009
 1.5680	48.6973
 1.5670	48.6513
 1.5660	48.6580
 1.5650	48.6253
 1.5640	48.6667
 1.5630	48.6096
 1.5620	48.6303
 1.5610	48.5982
 1.5600	48.6453
 1.5590	48.6323
 1.5580	48.6268
 1.5570	48.6184
 1.5560	48.6605
 1.5550	48.6936
 1.5540	48.7616
 1.5530	48.7811
 1.5520	48.8209
 1.5510	48.8258
 1.5500	48.9190
 1.5490	48.9766
 1.5480	49.1168
 1.5470	49.2449
 1.5460	49.3629
 1.5450	49.4266
 1.5440	49.6123
 1.5430	49.6918
 1.5420	49.8753
 1.5410	50.0549
 1.5400	50.2455
 1.5390	50.3743
 1.5380	50.5538
 1.5370	50.7145
 1.5360	50.9247
 1.5350	51.1035
 1.5340	51.2272
 1.5330	51.3532
 1.5320	51.5094
 1.5310	51.6895
 1.5300	51.8206
 1.5290	51.9372
 1.5280	52.0865
 1.5270	52.2566
 1.5260	52.4283
 1.5250	52.5084
 1.5240	52.6587
 1.5230	52.7632
 1.5220	52.9015
 1.5210	53.0102
 1.5200	53.1805
 1.5190	53.3523
 1.5180	53.4833
 1.5170	53.6073
 1.5160	53.7537
 1.5150	53.9274
 1.5140	54.0404
 1.5130	54.1247
 1.5120	54.2513
 1.5110	54.3955
 1.5100	54.5262
 1.5090	54.5874
 1.5080	54.6478
 1.5070	54.7626
 1.5060	54.9078
 1.5050	54.9988
 1.5040	55.0600
 1.5030	55.0896
 1.5020	55.1757
 1.5010	55.2906
 1.5000	55.3794
 1.4990	55.4665
 1.4980	55.5294
 1.4970	55.6207
 1.4960	55.7016
 1.4950	55.7874
 1.4940	55.8195
 1.4930	55.9121
 1.4920	55.9395
 1.4910	55.9940
 1.4900	56.1096
 1.4890	56.1960
 1.4880	56.2377
 1.4870	56.2752
 1.4860	56.2929
 1.4850	56.3215
 1.4840	56.3598
 1.4830	56.3848
 1.4820	56.4144
 1.4810	56.3590
 1.4800	56.3456
 1.4790	56.3659
 1.4780	56.3129
 1.4770	56.2444
 1.4760	56.1576
 1.4750	56.0891
 1.4740	56.0717
 1.4730	55.9911
 1.4720	55.8186
 1.4710	55.7137
 1.4700	55.6111
 1.4690	55.4624
 1.4680	55.2990
 1.4670	55.1606
 1.4660	54.9643
 1.4650	54.8290
 1.4640	54.6016
 1.4630	54.4142
 1.4620	54.2610
 1.4610	54.1017
 1.4600	53.9042
 1.4590	53.7141
 1.4580	53.5734
 1.4570	53.4590
 1.4560	53.2558
 1.4550	53.0997
 1.4540	52.9256
 1.4530	52.7665
 1.4520	52.5640
 1.4510	52.4932
 1.4500	52.3324
 1.4490	52.2446
 1.4480	52.1142
 1.4470	52.0719
 1.4460	52.0251
 1.4450	52.0433
 1.4440	52.0557
 1.4430	52.1172
 1.4420	52.2558
 1.4410	52.3592
 1.4400	52.4378
 1.4390	52.5811
 1.4380	52.5832
 1.4370	52.5117
 1.4360	52.3272
 1.4350	52.0963
 1.4340	51.5920
 1.4330	50.8322
 1.4320	49.8608
 1.4310	48.6951
 1.4300	47.1749
 1.4290	45.4999
 1.4280	43.7829
 1.4270	42.1398
 1.4260	40.6177
 1.4250	39.3604
 1.4240	38.4680
 1.4230	37.9690
 1.4220	37.7649
 1.4210	38.0195
 1.4200	38.3942
 1.4190	39.0445
 1.4180	39.8171
 1.4170	40.8013
 1.4160	41.9635
 1.4150	43.4341
 1.4140	44.8814
 1.4130	46.4231
 1.4120	47.7820
 1.4110	49.1174
 1.4100	50.4561
 1.4090	51.7981
 1.4080	52.9171
 1.4070	54.0231
 1.4060	55.1868
 1.4050	56.2975
 1.4040	57.3836
 1.4030	58.3680
 1.4020	59.2500
 1.4010	60.2921
 1.4000	61.2450
 1.3990	62.0391
 1.3980	62.7817
 1.3970	63.6575
 1.3960	64.3917
 1.3950	65.0232
 1.3940	65.6125
 1.3930	66.1642
 1.3920	66.6343
 1.3910	67.0680
 1.3900	67.3605
 1.3890	67.8585
 1.3880	68.2455
 1.3870	68.5015
 1.3860	68.8235
 1.3850	69.2948
 1.3840	69.7843
 1.3830	70.1653
 1.3820	70.5469
 1.3810	70.8714
 1.3800	71.2209
 1.3790	71.5557
 1.3780	71.8034
 1.3770	72.1063
 1.3760	72.2706
 1.3750	72.5430
 1.3740	72.6990
 1.3730	72.8927
 1.3720	73.1747
 1.3710	73.4603
 1.3700	73.5323
 1.3690	73.8268
 1.3680	73.8261
 1.3670	74.0940
 1.3660	74.2457
 1.3650	74.4017
 1.3640	74.4316
 1.3630	74.6555
 1.3620	74.6413
 1.3610	74.7959
 1.3600	74.9722
 1.3590	75.0497
 1.3580	75.1934
 1.3570	75.3364
 1.3560	75.4083
 1.3550	75.4919
 1.3540	75.6949
 1.3530	75.8160
 1.3520	75.9440
 1.3510	76.0299
 1.3500	76.0412
 1.3490	76.0974
 1.3480	76.0529
 1.3470	76.1596
 1.3460	76.0660
 1.3450	76.1505
 1.3440	76.1586
 1.3430	76.1715
 1.3420	76.2128
 1.3410	76.1827
 1.3400	76.1793
 1.3390	76.2682
 1.3380	76.2636
 1.3370	76.3855
 1.3360	76.4342
 1.3350	76.4932
 1.3340	76.5718
 1.3330	76.7644
 1.3320	76.8450
 1.3310	77.0007
 1.3300	77.1800
 1.3290	77.2505
 1.3280	77.4709
 1.3270	77.5484
 1.3260	77.7553
 1.3250	77.7675
 1.3240	77.8828
 1.3230	78.0214
 1.3220	78.0701
 1.3210	78.2636
 1.3200	78.3375
 1.3190	78.4878
 1.3180	78.5995
 1.3170	78.6732
 1.3160	78.8257
 1.3150	79.0360
 1.3140	79.1097
 1.3130	79.2230
 1.3120	79.3772
 1.3110	79.5161
 1.3100	79.5857
 1.3090	79.7471
 1.3080	79.8645
 1.3070	79.9096
 1.3060	80.0331
 1.3050	80.1143
 1.3040	80.2279
 1.3030	80.3748
 1.3020	80.3953
 1.3010	80.4394
 1.3000	80.4858
 1.2990	80.6307
 1.2980	80.6298
 1.2970	80.8037
 1.2960	80.8237
 1.2950	80.8250
 1.2940	80.8752
 1.2930	80.9729
 1.2920	80.9825
 1.2910	81.0525
 1.2900	81.1248
 1.2890	81.1877
 1.2880	81.2332
 1.2870	81.3170
 1.2860	81.2928
 1.2850	81.3371
 1.2840	81.2894
 1.2830	81.4345
 1.2820	81.5870
 1.2810	81.6614
 1.2800	81.6006
 1.2790	81.6622
 1.2780	81.6660
 1.2770	81.7247
 1.2760	81.7717
 1.2750	81.8041
 1.2740	81.8560
 1.2730	81.8640
 1.2720	81.8977
 1.2710	81.9710
 1.2700	82.0205
 1.2690	81.9987
 1.2680	82.0002
 1.2670	82.0776
 1.2660	82.1188
 1.2650	82.1216
 1.2640	82.1273
 1.2630	82.1973
 1.2620	82.2458
 1.2610	82.1619
 1.2600	82.1493
 1.2590	82.2413
 1.2580	82.2480
 1.2570	82.2303
 1.2560	82.2007
 1.2550	82.2024
 1.2540	82.1888
 1.2530	82.2713
 1.2520	82.2595
 1.2510	82.2816
 1.2500	82.2670
 1.2490	82.3065
 1.2480	82.2782
 1.2470	82.2128
 1.2460	82.2121
 1.2450	82.2662
 1.2440	82.2723
 1.2430	82.2250
 1.2420	82.2312
 1.2410	82.2426
 1.2400	82.2734
 1.2390	82.2673
 1.2380	82.2039
 1.2370	82.2213
 1.2360	82.2318
 1.2350	82.1937
 1.2340	82.2161
 1.2330	82.2032
 1.2320	82.1539
 1.2310	82.1289
 1.2300	82.0939
 1.2290	82.0696
 1.2280	82.0717
 1.2270	82.0964
 1.2260	82.1340
 1.2250	82.1577
 1.2240	82.1921
 1.2230	82.2730
 1.2220	82.3578
 1.2210	82.4784
 1.2200	82.6167
 1.2190	82.7408
 1.2180	82.8458
 1.2170	82.9657
 1.2160	83.0962
 1.2150	83.1371
 1.2140	83.1776
 1.2130	83.2730
 1.2120	83.3311
 1.2110	83.3717
 1.2100	83.4294
 1.2090	83.4475
 1.2080	83.4906
 1.2070	83.5247
 1.2060	83.5620
 1.2050	83.6167
 1.2040	83.6576
 1.2030	83.6383
 1.2020	83.5971
 1.2010	83.6376
 1.2000	83.6583
 1.1990	83.6674
 1.1980	83.6877
 1.1970	83.6983
 1.1960	83.7120
 1.1950	83.7167
 1.1940	83.7101
 1.1930	83.6728
 1.1920	83.7159
 1.1910	83.7075
 1.1900	83.6889
 1.1890	83.6697
 1.1880	83.6340
 1.1870	83.6817
 1.1860	83.7218
 1.1850	83.7078
 1.1840	83.7322
 1.1830	83.7565
 1.1820	83.8142
 1.1810	83.8907
 1.1800	83.8465
 1.1790	83.8859
 1.1780	83.9720
 1.1770	84.0524
 1.1760	84.1087
 1.1750	84.2484
 1.1740	84.3407
 1.1730	84.4295
 1.1720	84.5441
 1.1710	84.6055
 1.1700	84.7611
 1.1690	84.8721
 1.1680	84.9484
 1.1670	85.0737
 1.1660	85.1466
 1.1650	85.2419
 1.1640	85.2710
 1.1630	85.3694
 1.1620	85.5044
 1.1610	85.6735
 1.1600	85.7269
 1.1590	85.7962
 1.1580	85.8641
 1.1570	85.9241
 1.1560	86.0224
 1.1550	86.1426
 1.1540	86.1385
 1.1530	86.2146
 1.1520	86.3240
 1.1510	86.4309
 1.1500	86.4913
 1.1490	86.5789
 1.1480	86.6179
 1.1470	86.6793
 1.1460	86.7196
 1.1450	86.7974
 1.1440	86.9101
 1.1430	86.9119
 1.1420	87.0233
 1.1410	87.0833
 1.1400	87.1002
 1.1390	87.1373
 1.1380	87.2812
 1.1370	87.2831
 1.1360	87.2967
 1.1350	87.3256
 1.1340	87.3753
 1.1330	87.4643
 1.1320	87.5346
 1.1310	87.5464
 1.1300	87.5555
 1.1290	87.5434
 1.1280	87.5248
 1.1270	87.6157
 1.1260	87.6218
 1.1250	87.6367
 1.1240	87.7067
 1.1230	87.7056
 1.1220	87.7026
 1.1210	87.8037
 1.1200	87.7313
 1.1190	87.8191
 1.1180	87.8053
 1.1170	87.8026
 1.1160	87.8749
 1.1150	87.7901
 1.1140	87.8071
 1.1130	87.8896
 1.1120	87.9139
 1.1110	87.8712
 1.1100	87.8905
 1.1090	87.9573
 1.1080	87.9182
 1.1070	87.8492
 1.1060	88.0087
 1.1050	88.0580
 1.1040	88.0545
 1.1030	87.9663
 1.1020	88.0126
 1.1010	88.0307
 1.1000	87.9966
 1.0990	88.0316
 1.0980	88.1220
 1.0970	88.0952
 1.0960	88.1698
 1.0950	88.1212
 1.0940	88.1816
 1.0930	88.1785
 1.0920	88.2774
 1.0910	88.2634
 1.0900	88.2583
 1.0890	88.2523
 1.0880	88.2253
 1.0870	88.2506
 1.0860	88.3101
 1.0850	88.1912
 1.0840	88.3392
 1.0830	88.3298
 1.0820	88.4122
 1.0810	88.4015
 1.0800	88.2730
 1.0790	88.3549
 1.0780	88.4263
 1.0770	88.4371
 1.0760	88.4671
 1.0750	88.4681
 1.0740	88.5035
 1.0730	88.4757
 1.0720	88.5002
 1.0710	88.4888
 1.0700	88.4367
 1.0690	88.5937
 1.0680	88.6015
 1.0670	88.6926
 1.0660	88.6012
 1.0650	88.5642
 1.0640	88.5721
 1.0630	88.6498
 1.0620	88.7091
 1.0610	88.6415
 1.0600	88.6853
 1.0590	88.6632
 1.0580	88.7062
 1.0570	88.7546
 1.0560	88.7955
 1.0550	88.6755
 1.0540	88.8076
 1.0530	88.7403
 1.0520	88.6599
 1.0510	88.7581
 1.0500	88.7593
 1.0490	88.7573
 1.0480	88.8032
 1.0470	88.7224
 1.0460	88.7305
 1.0450	88.7126
 1.0440	88.7300
 1.0430	88.7061
 1.0420	88.7230
 1.0410	88.7903
 1.0400	88.7855
 1.0390	88.7014
 1.0380	88.7531
 1.0370	88.7792
 1.0360	88.7578
 1.0350	88.6702
 1.0340	88.7043
 1.0330	88.7082
 1.0320	88.7367
 1.0310	88.7302
 1.0300	88.7597
 1.0290	88.7302
 1.0280	88.6562
 1.0270	88.7348
 1.0260	88.6953
 1.0250	88.6312
 1.0240	88.6752
 1.0230	88.6921
 1.0220	88.6572
 1.0210	88.5948
 1.0200	88.5710
 1.0190	88.5220
 1.0180	88.5696
 1.0170	88.4929
 1.0160	88.4605
 1.0150	88.4741
 1.0140	88.4598
 1.0130	88.4021
 1.0120	88.4291
 1.0110	88.3882
 1.0100	88.3898
 1.0090	88.2786
 1.0080	88.2029
 1.0070	88.1930
 1.0060	88.2185
 1.0050	88.1428
 1.0040	88.1491
 1.0030	88.0626
 1.0020	88.0194
 1.0010	87.9869
 1.0000	87.9406
 0.9990	87.9078
 0.9980	87.8401
 0.9970	87.7937
 0.9960	87.6400
 0.9950	87.5715
 0.9940	87.5428
 0.9930	87.4950
 0.9920	87.4419
 0.9910	87.3540
 0.9900	87.3123
 0.9890	87.2248
 0.9880	87.1153
 0.9870	86.9726
 0.9860	86.8285
 0.9850	86.7271
 0.9840	86.6213
 0.9830	86.4678
 0.9820	86.2735
 0.9810	86.0174
 0.9800	85.7834
 0.9790	85.4643
 0.9780	85.1760
 0.9770	84.9086
 0.9760	84.6425
 0.9750	84.4597
 0.9740	84.3048
 0.9730	84.0893
 0.9720	83.9400
 0.9710	83.8345
 0.9700	83.8507
 0.9690	83.9518
 0.9680	84.1286
 0.9670	84.3598
 0.9660	84.6142
 0.9650	84.9493
 0.9640	85.3150
 0.9630	85.7581
 0.9620	86.1250
 0.9610	86.5178
 0.9600	86.8547
 0.9590	87.1423
 0.9580	87.4641
 0.9570	87.7018
 0.9560	87.8911
 0.9550	88.1120
 0.9540	88.3384
 0.9530	88.5491
 0.9520	88.6711
 0.9510	88.7286
 0.9500	88.7968
 0.9490	88.9521
 0.9480	89.0305
 0.9470	89.0849
 0.9460	89.1568
 0.9450	89.2456
 0.9440	89.3361
 0.9430	89.3872
 0.9420	89.4790
 0.9410	89.5740
 0.9400	89.5481
 0.9390	89.5234
 0.9380	89.6169
 0.9370	89.6186
 0.9360	89.6641
 0.9350	89.7382
 0.9340	89.7629
 0.9330	89.7841
 0.9320	89.8402
 0.9310	89.8579
 0.9300	89.8563
 0.9290	89.8599
 0.9280	89.9090
 0.9270	89.9373
 0.9260	89.9282
 0.9250	89.9791
 0.9240	90.0298
 0.9230	90.0671
 0.9220	90.0692
 0.9210	90.1347
 0.9200	90.1203
 0.9190	90.1166
 0.9180	90.1577
 0.9170	90.1559
 0.9160	90.1773
 0.9150	90.2028
 0.9140	90.1983
 0.9130	90.2037
 0.9120	90.2299
 0.9110	90.2721
 0.9100	90.2661
 0.9090	90.2899
 0.9080	90.2682
 0.9070	90.2865
 0.9060	90.2926
 0.9050	90.3230
 0.9040	90.3818
 0.9030	90.4303
 0.9020	90.3855
 0.9010	90.3840
 0.9000	90.3563
 0.8990	90.3945
 0.8980	90.4246
 0.8970	90.4438
 0.8960	90.4476
 0.8950	90.4380
 0.8940	90.5155
 0.8930	90.4521
 0.8920	90.4075
 0.8910	90.4372
 0.8900	90.4466
 0.8890	90.4931
 0.8880	90.5822
 0.8870	90.4999
 0.8860	90.4964
 0.8850	90.5529
 0.8840	90.5242
 0.8830	90.4973
 0.8820	90.4945
 0.8810	90.5372
 0.8800	90.5586
 0.8790	90.5442
 0.8780	90.5996
 0.8770	90.5888
 0.8760	90.5513
 0.8750	90.6214
 0.8740	90.5989
 0.8730	90.6069
 0.8720	90.5395
 0.8710	90.5838
 0.8700	90.5816
 0.8690	90.6026
 0.8680	90.5863
 0.8670	90.6509
 0.8660	90.5977
 0.8650	90.6189
 0.8640	90.6461
 0.8630	90.6841
 0.8620	90.6227
 0.8610	90.5607
 0.8600	90.7268
 0.8590	90.7166
 0.8580	90.6937
 0.8570	90.7166
 0.8560	90.7194
 0.8550	90.8786
 0.8540	90.8692
 0.8530	90.7673
 0.8520	90.8184
 0.8510	90.7927
 0.8500	90.7306
 0.8490	90.8252
 0.8480	90.8058
 0.8470	90.7926
 0.8460	90.7726
 0.8450	90.8445
 0.8440	90.8746
 0.8430	90.8707
 0.8420	90.8762
 0.8410	90.8350
 0.8400	90.8629
 0.8390	90.8948
 0.8380	90.9316
 0.8370	90.9043
 0.8360	90.8836
 0.8350	90.9287
 0.8340	90.9346
 0.8330	90.9095
 0.8320	90.9236
 0.8310	90.9564
 0.8300	91.0149
 0.8290	90.9427
 0.8280	90.9518
 0.8270	90.9629
 0.8260	90.9462
 0.8250	91.0029
 0.8240	90.9665
 0.8230	90.9630
 0.8220	90.9881
 0.8210	90.9806
 0.8200	90.9524
 0.8190	91.0068
 0.8180	90.9823
 0.8170	91.0009
 0.8160	90.9754
 0.8150	91.0265
 0.8140	90.9529
 0.8130	90.9913
 0.8120	91.0216
 0.8110	90.9600
 0.8100	90.9797
 0.8090	91.0419
 0.8080	90.9616
 0.8070	90.9319
 0.8060	90.9892
 0.8050	91.0084
 0.8040	90.9461
 0.8030	90.9877
 0.8020	90.9860
 0.8010	90.9842
 0.8000	90.9752
 0.7990	90.9167
 0.7980	90.9026
 0.7970	90.9464
 0.7960	90.9230
 0.7950	90.8178
 0.7940	90.8642
 0.7930	90.8984
 0.7920	90.8307
 0.7910	90.7971
 0.7900	90.8321
 0.7890	90.8329
 0.7880	90.8510
 0.7870	90.8412
 0.7860	90.8123
 0.7850	90.8230
 0.7840	90.8792
 0.7830	90.8382
 0.7820	90.8510
 0.7810	90.7989
 0.7800	90.7671
 0.7790	90.7807
 0.7780	90.7865
 0.7770	90.7668
 0.7760	90.7522
 0.7750	90.7013
 0.7740	90.6944
 0.7730	90.6807
 0.7720	90.6880
 0.7710	90.6494
 0.7700	90.6048
 0.7690	90.6876
 0.7680	90.5886
 0.7670	90.6161
 0.7660	90.5867
 0.7650	90.6350
 0.7640	90.5982
 0.7630	90.5686
 0.7620	90.5607
 0.7610	90.5254
 0.7600	90.5110
 0.7590	90.5193
 0.7580	90.5304
 0.7570	90.4593
 0.7560	90.4866
 0.7550	90.4670
 0.7540	90.4177
 0.7530	90.4100
 0.7520	90.4007
 0.7510	90.3210
 0.7500	90.3034
 0.7490	90.2941
 0.7480	90.2807
 0.7470	90.2789
 0.7460	90.2593
 0.7450	90.2586
 0.7440	90.2284
 0.7430	90.2636
 0.7420	90.2668
 0.7410	90.2802
 0.7400	90.2959
 0.7390	90.3565
 0.7380	90.3459
 0.7370	90.4033
 0.7360	90.4303
 0.7350	90.4531
 0.7340	90.4738
 0.7330	90.4587
 0.7320	90.5229
 0.7310	90.5471
 0.7300	90.5045
 0.7290	90.5133
 0.7280	90.5288
 0.7270	90.5434
 0.7260	90.5381
 0.7250	90.5286
 0.7240	90.5139
 0.7230	90.5385
 0.7220	90.5538
 0.7210	90.5462
 0.7200	90.5374
 0.7190	90.5246
 0.7180	90.5441
 0.7170	90.5393
 0.7160	90.5661
 0.7150	90.5373
 0.7140	90.5124
 0.7130	90.5154
 0.7120	90.5113
 0.7110	90.5381
 0.7100	90.5434
 0.7090	90.5075
 0.7080	90.4827
 0.7070	90.4997
 0.7060	90.4851
 0.7050	90.4977
 0.7040	90.5219
 0.7030	90.5150
 0.7020	90.5010
 0.7010	90.4801
 0.7000	90.4795
 0.6990	90.4788
 0.6980	90.4944
 0.6970	90.4797
 0.6960	90.4529
 0.6950	90.4436
 0.6940	90.4565
 0.6930	90.4492
 0.6920	90.4538
 0.6910	90.4417
 0.6900	90.4437
 0.6890	90.4366
 0.6880	90.4368
 0.6870	90.4166
 0.6860	90.4163
 0.6850	90.3956
 0.6840	90.3977
 0.6830	90.4047
 0.6820	90.3923
 0.6810	90.3882
 0.6800	90.3931
 0.6790	90.3859
 0.6780	90.3853
 0.6770	90.3864
 0.6760	90.3777
 0.6750	90.3672
 0.6740	90.3361
 0.6730	90.3402
 0.6720	90.3372
 0.6710	90.3151
 0.6700	90.3267
 0.6690	90.3429
 0.6680	90.3373
 0.6670	90.3174
 0.6660	90.3081
 0.6650	90.3082
 0.6640	90.3033
 0.6630	90.2992
 0.6620	90.2952
 0.6610	90.2827
 0.6600	90.2760
 0.6590	90.2496
 0.6580	90.2436
 0.6570	90.2434
 0.6560	90.2376
 0.6550	90.2221
 0.6540	90.2102
 0.6530	90.2089
 0.6520	90.2028
 0.6510	90.2073
 0.6500	90.2132
 0.6490	90.1884
 0.6480	90.1870
 0.6470	90.1887
 0.6460	90.1679
 0.6450	90.1842
 0.6440	90.2028
 0.6430	90.1924
 0.6420	90.1869
 0.6410	90.1774
 0.6400	90.1700
 0.6390	90.1681
 0.6380	90.1591
 0.6370	90.1481
 0.6360	90.1337
 0.6350	90.1328
 0.6340	90.1402
 0.6330	90.1242
 0.6320	90.0969
 0.6310	90.0809
 0.6300	90.0766
 0.6290	90.0756
 0.6280	90.0565
 0.6270	90.0331
 0.6260	90.0300
 0.6250	90.0319
 0.6240	90.0254
 0.6230	90.0224
 0.6220	90.0121
 0.6210	90.0152
 0.6200	90.0008
 0.6190	89.9832
 0.6180	89.9659
 0.6170	89.9617
 0.6160	89.9504
 0.6150	89.9291
 0.6140	89.9187
 0.6130	89.8951
 0.6120	89.8874
 0.6110	89.8882
 0.6100	89.9015
 0.6090	89.8952
 0.6080	89.8513
 0.6070	89.8264
 0.6060	89.8501
 0.6050	89.8501
 0.6040	89.8329
 0.6030	89.8137
 0.6020	89.7999
 0.6010	89.8005
 0.6000	89.7924
 0.5990	89.7884
 0.5980	89.8182
 0.5970	89.8295
 0.5960	89.8081
 0.5950	89.8235
 0.5940	89.8262
 0.5930	89.8149
 0.5920	89.8014
 0.5910	89.7637
 0.5900	89.7667
 0.5890	89.7628
 0.5880	89.7386
 0.5870	89.7222
 0.5860	89.7185
 0.5850	89.6978
 0.5840	89.6881
 0.5830	89.6829
 0.5820	89.6562
 0.5810	89.6355
 0.5800	89.6337
 0.5790	89.6194
 0.5780	89.6183
 0.5770	89.5951
 0.5760	89.5626
 0.5750	89.5548
 0.5740	89.5335
 0.5730	89.5268
 0.5720	89.5186
 0.5710	89.4889
 0.5700	89.4667
 0.5690	89.4517
 0.5680	89.4400
 0.5670	89.4232
 0.5660	89.4048
 0.5650	89.3930
 0.5640	89.3936
 0.5630	89.3429
 0.5620	89.3290
 0.5610	89.3119
 0.5600	89.2967
 0.5590	89.2720
 0.5580	89.2676
 0.5570	89.2407
 0.5560	89.2188
 0.5550	89.1899
 0.5540	89.1756
 0.5530	89.1329
 0.5520	89.1065
 0.5510	89.0926
 0.5500	89.0822
 0.5490	89.0450
 0.5480	89.0074
 0.5470	88.9877
 0.5460	88.9707
 0.5450	88.9509
 0.5440	88.9129
 0.5430	88.9038
 0.5420	88.8811
 0.5410	88.8335
 0.5400	88.7998
 0.5390	88.7785
 0.5380	88.7373
 0.5370	88.7206
 0.5360	88.6863
 0.5350	88.6437
 0.5340	88.6179
 0.5330	88.6047
 0.5320	88.5456
 0.5310	88.5180
 0.5300	88.4826
 0.5290	88.4553
 0.5280	88.4146
 0.5270	88.3753
 0.5260	88.3400
 0.5250	88.3000
 0.5240	88.2587
 0.5230	88.2162
 0.5220	88.1549
 0.5210	88.1221
 0.5200	88.0845
 0.5190	88.0639
 0.5180	88.0037
 0.5170	87.9529
 0.5160	87.8915
 0.5150	87.8645
 0.5140	87.8257
 0.5130	87.7587
 0.5120	87.7244
 0.5110	87.6678
 0.5100	87.6519
 0.5090	87.5747
 0.5080	87.5198
 0.5070	87.4641
 0.5060	87.3728
 0.5050	87.3602
 0.5040	87.2994
 0.5030	87.2047
 0.5020	87.1589
 0.5010	87.1334
 0.5000	87.0758
 0.4990	87.0152
 0.4980	86.9276
 0.4970	86.8697
 0.4960	86.8222
 0.4950	86.7453
 0.4940	86.7053
 0.4930	86.6579
 0.4920	86.5879
 0.4910	86.5138
 0.4900	86.4596
 0.4890	86.4234
 0.4880	86.3419
 0.4870	86.2858
 0.4860	86.2272
 0.4850	86.1669
 0.4840	86.0937
 0.4830	86.0216
 0.4820	85.9278
 0.4810	85.8876
 0.4800	85.8308
 0.4790	85.7699
 0.4780	85.6943
 0.4770	85.6329
 0.4760	85.5515
 0.4750	85.4915
 0.4740	85.4702
 0.4730	85.3819
 0.4720	85.3212
 0.4710	85.2445
 0.4700	85.2081
 0.4690	85.1476
 0.4680	85.0921
 0.4670	85.0267
 0.4660	84.9579
 0.4650	84.9104
 0.4640	84.8327
 0.4630	84.7644
 0.4620	84.7271
 0.4610	84.6551
 0.4600	84.6228
 0.4590	84.5542
 0.4580	84.4962
 0.4570	84.4538
 0.4560	84.4092
 0.4550	84.3288
 0.4540	84.2863
 0.4530	84.2342
 0.4520	84.1660
 0.4510	84.1057
 0.4500	84.0552
 0.4490	84.0135
 0.4480	83.9571
 0.4470	83.9049
 0.4460	83.8587
 0.4450	83.7972
 0.4440	83.7346
 0.4430	83.6971
 0.4420	83.6556
 0.4410	83.6196
 0.4400	83.5605
 0.4390	83.5121
 0.4380	83.4936
 0.4370	83.4387
 0.4360	83.3875
 0.4350	83.3400
 0.4340	83.2898
 0.4330	83.2729
 0.4320	83.2050
 0.4310	83.1691
 0.4300	83.1334
 0.4290	83.0892
 0.4280	83.0438
 0.4270	82.9839
 0.4260	82.9701
 0.4250	82.9068
 0.4240	82.8873
 0.4230	82.8492
 0.4220	82.7853
 0.4210	82.7404
 0.4200	82.7218
 0.4190	82.6886
 0.4180	82.6347
 0.4170	82.6148
 0.4160	82.5618
 0.4150	82.5187
 0.4140	82.4548
 0.4130	82.4150
 0.4120	82.3715
 0.4110	82.3422
 0.4100	82.3018
 0.4090	82.2571
 0.4080	82.2040
 0.4070	82.1554
 0.4060	82.1087
 0.4050	82.0634
 0.4040	82.0040
 0.4030	81.9596
 0.4020	81.9086
 0.4010	81.8500
 0.4000	81.7875
