Name: Realgar AsS
Type: Mineral
Class: Sulfide
Subclass: None
Particle Size: Medium
Sample No.: S-3A
Owner: JPL
Wavelength Range: VSWIR
Origin: 
Collection Date: N/A
Description: Particle size was 45-125um.Collected by JPL Original ASTER Spectral Library name was jpl.beckman.mineral.sulfide.none.medium.s03a.spectrum.txt
Measurement: Hemispherical reflectance
First Column: X
Second Column: Y
X Units: Wavelength (micrometers)
Y Units:Reflectance (percent)
First X Value:  0.4000
Last X Value:  2.5000
Number of X Values: 826
Additional Information: mineral.sulfide.none.medium.vswir.s-3a.jpl.beckman.ancillary.txt

 0.4000	 5.9400
 0.4010	 5.8900
 0.4020	 5.8800
 0.4030	 5.9400
 0.4040	 5.9400
 0.4050	 5.9300
 0.4060	 5.8000
 0.4070	 5.9900
 0.4080	 5.8800
 0.4090	 5.8700
 0.4100	 5.9200
 0.4110	 5.8000
 0.4120	 5.8700
 0.4130	 5.9300
 0.4140	 5.8600
 0.4150	 5.8600
 0.4160	 5.8700
 0.4170	 5.8100
 0.4180	 5.8700
 0.4190	 5.8600
 0.4200	 5.8600
 0.4210	 5.8100
 0.4220	 5.8600
 0.4230	 5.9200
 0.4240	 5.7900
 0.4250	 5.9700
 0.4260	 5.8500
 0.4270	 5.8500
 0.4280	 5.8600
 0.4290	 5.8000
 0.4300	 5.8600
 0.4310	 5.8100
 0.4320	 5.8500
 0.4330	 5.7400
 0.4340	 5.8000
 0.4350	 5.8500
 0.4360	 5.8600
 0.4370	 5.8000
 0.4380	 5.8500
 0.4390	 5.7400
 0.4400	 5.8000
 0.4410	 5.8600
 0.4420	 5.7200
 0.4430	 5.8400
 0.4440	 5.7600
 0.4450	 5.8300
 0.4460	 5.8300
 0.4470	 5.7200
 0.4480	 5.8300
 0.4490	 5.7900
 0.4500	 5.7300
 0.4510	 5.6700
 0.4520	 5.6700
 0.4530	 5.6700
 0.4540	 5.7200
 0.4550	 5.7000
 0.4560	 5.5600
 0.4570	 5.6600
 0.4580	 5.6500
 0.4590	 5.6500
 0.4600	 5.6700
 0.4610	 5.6000
 0.4620	 5.5400
 0.4630	 5.6500
 0.4640	 5.6600
 0.4650	 5.6600
 0.4660	 5.6000
 0.4670	 5.6100
 0.4680	 5.6000
 0.4690	 5.5500
 0.4700	 5.5400
 0.4710	 5.6100
 0.4720	 5.6100
 0.4730	 5.5400
 0.4740	 5.5400
 0.4750	 5.5000
 0.4760	 5.5500
 0.4770	 5.5900
 0.4780	 5.6400
 0.4790	 5.5700
 0.4800	 5.5800
 0.4810	 5.6000
 0.4820	 5.5900
 0.4830	 5.5800
 0.4840	 5.6200
 0.4850	 5.6100
 0.4860	 5.6000
 0.4870	 5.5500
 0.4880	 5.5700
 0.4890	 5.6100
 0.4900	 5.6500
 0.4910	 5.6400
 0.4920	 5.6200
 0.4930	 5.6300
 0.4940	 5.6200
 0.4950	 5.6700
 0.4960	 5.6600
 0.4970	 5.6500
 0.4980	 5.6500
 0.4990	 5.5900
 0.5000	 5.5800
 0.5010	 5.6300
 0.5020	 5.5700
 0.5030	 5.6300
 0.5040	 5.6300
 0.5050	 5.5700
 0.5060	 5.6900
 0.5070	 5.6300
 0.5080	 5.6400
 0.5090	 5.7000
 0.5100	 5.6400
 0.5110	 5.6900
 0.5120	 5.7200
 0.5130	 5.6000
 0.5140	 5.6100
 0.5150	 5.6700
 0.5160	 5.6800
 0.5170	 5.7400
 0.5180	 5.6700
 0.5190	 5.7800
 0.5200	 5.7300
 0.5210	 5.7900
 0.5220	 5.8200
 0.5230	 5.7700
 0.5240	 5.7900
 0.5250	 5.8300
 0.5260	 5.7800
 0.5270	 5.8500
 0.5280	 5.9200
 0.5290	 5.9300
 0.5300	 5.9600
 0.5310	 5.9000
 0.5320	 6.0300
 0.5330	 6.0500
 0.5340	 6.0500
 0.5350	 6.2100
 0.5360	 6.0900
 0.5370	 6.2100
 0.5380	 6.2700
 0.5390	 6.2100
 0.5400	 6.3200
 0.5410	 6.4300
 0.5420	 6.5300
 0.5430	 6.5900
 0.5440	 6.6300
 0.5450	 6.8000
 0.5460	 6.9100
 0.5470	 7.0100
 0.5480	 7.2300
 0.5490	 7.2800
 0.5500	 7.4500
 0.5510	 7.6100
 0.5520	 7.6700
 0.5530	 7.9000
 0.5540	 8.1300
 0.5550	 8.4100
 0.5560	 8.6600
 0.5570	 8.8200
 0.5580	 9.0500
 0.5590	 9.1900
 0.5600	10.0700
 0.5610	10.5200
 0.5620	10.9900
 0.5630	11.5200
 0.5640	12.0400
 0.5650	12.6300
 0.5660	13.1500
 0.5670	13.8500
 0.5680	14.6200
 0.5690	15.2900
 0.5700	16.1200
 0.5710	16.9200
 0.5720	17.7700
 0.5730	18.7800
 0.5740	19.7000
 0.5750	20.6900
 0.5760	21.8200
 0.5770	22.9500
 0.5780	23.9400
 0.5790	25.0800
 0.5800	26.2400
 0.5810	27.4700
 0.5820	28.6800
 0.5830	29.9600
 0.5840	31.1800
 0.5850	32.5300
 0.5860	33.8400
 0.5870	35.0100
 0.5880	36.3400
 0.5890	37.6900
 0.5900	38.8800
 0.5910	40.2600
 0.5920	41.3800
 0.5930	42.6300
 0.5940	43.9200
 0.5950	45.0700
 0.5960	46.1700
 0.5970	47.2000
 0.5980	48.3200
 0.5990	49.3800
 0.6000	50.4100
 0.6010	51.4400
 0.6020	52.3400
 0.6030	53.2700
 0.6040	54.2500
 0.6050	55.0300
 0.6060	55.8100
 0.6070	56.6400
 0.6080	57.2700
 0.6090	58.0000
 0.6100	58.5900
 0.6110	59.2100
 0.6120	59.8100
 0.6130	60.4100
 0.6140	61.0000
 0.6150	61.4000
 0.6160	61.9400
 0.6170	62.4100
 0.6180	62.7200
 0.6190	63.1900
 0.6200	63.5600
 0.6210	63.9700
 0.6220	64.3300
 0.6230	64.6200
 0.6240	65.0500
 0.6250	65.3400
 0.6260	65.5600
 0.6270	65.8100
 0.6280	66.0200
 0.6290	66.1900
 0.6300	66.4700
 0.6310	66.6300
 0.6320	66.9000
 0.6330	67.1800
 0.6340	67.3400
 0.6350	67.5000
 0.6360	67.6300
 0.6370	67.7800
 0.6380	67.9600
 0.6390	68.0500
 0.6400	68.2300
 0.6410	68.3600
 0.6420	68.5100
 0.6430	68.7100
 0.6440	68.7600
 0.6450	68.7700
 0.6460	68.9400
 0.6470	69.1000
 0.6480	69.1400
 0.6490	69.2100
 0.6500	69.2800
 0.6510	69.4100
 0.6520	69.5700
 0.6530	69.6500
 0.6540	69.6500
 0.6550	69.7600
 0.6560	69.8900
 0.6570	69.9000
 0.6580	69.9800
 0.6590	70.0600
 0.6600	70.0700
 0.6610	70.2500
 0.6620	70.2400
 0.6630	70.3300
 0.6640	70.4100
 0.6650	70.4200
 0.6660	70.5000
 0.6670	70.5000
 0.6680	70.5800
 0.6690	70.7500
 0.6700	70.6900
 0.6710	70.7100
 0.6720	70.7500
 0.6730	70.7500
 0.6740	70.8500
 0.6750	70.8700
 0.6760	70.9700
 0.6770	71.1300
 0.6780	71.1000
 0.6790	71.1000
 0.6800	71.0800
 0.6810	71.2000
 0.6820	71.2400
 0.6830	71.2600
 0.6840	71.3000
 0.6850	71.3400
 0.6860	71.3400
 0.6870	71.4600
 0.6880	71.3900
 0.6890	71.4400
 0.6900	71.5300
 0.6910	71.6000
 0.6920	71.5900
 0.6930	71.5900
 0.6940	71.6700
 0.6950	71.6400
 0.6960	71.6500
 0.6970	71.7100
 0.6980	71.7300
 0.6990	71.6700
 0.7000	71.8000
 0.7010	72.1000
 0.7020	71.9700
 0.7030	72.1000
 0.7040	72.0600
 0.7050	72.1700
 0.7060	72.2600
 0.7070	72.1700
 0.7080	72.3100
 0.7090	72.3900
 0.7100	72.3300
 0.7110	72.4700
 0.7120	72.3300
 0.7130	72.4200
 0.7140	72.6000
 0.7150	72.5300
 0.7160	72.5500
 0.7170	72.5800
 0.7180	72.6800
 0.7190	72.8000
 0.7200	72.7100
 0.7210	72.8300
 0.7220	72.7500
 0.7230	72.8900
 0.7240	72.9400
 0.7250	72.9200
 0.7260	73.0700
 0.7270	73.0800
 0.7280	73.0400
 0.7290	73.1500
 0.7300	73.0800
 0.7310	73.2100
 0.7320	73.4000
 0.7330	73.2300
 0.7340	73.3400
 0.7350	73.3000
 0.7360	73.4600
 0.7370	73.5200
 0.7380	73.4500
 0.7390	73.5000
 0.7400	73.5900
 0.7410	73.6400
 0.7420	73.7400
 0.7430	73.7600
 0.7440	73.8400
 0.7450	73.9400
 0.7460	73.9300
 0.7470	74.0400
 0.7480	73.9900
 0.7490	74.1000
 0.7500	74.1700
 0.7510	74.1100
 0.7520	74.2100
 0.7530	74.1900
 0.7540	74.2600
 0.7550	74.3900
 0.7560	74.3700
 0.7570	74.4900
 0.7580	74.5700
 0.7590	74.6100
 0.7600	74.7800
 0.7610	74.7300
 0.7620	74.8900
 0.7630	75.0800
 0.7640	75.0000
 0.7650	74.9600
 0.7660	74.9600
 0.7670	75.0200
 0.7680	75.1400
 0.7690	75.0700
 0.7700	75.2100
 0.7710	75.3600
 0.7720	75.3000
 0.7730	75.4300
 0.7740	75.4000
 0.7750	75.4400
 0.7760	75.6700
 0.7770	75.6200
 0.7780	75.5400
 0.7790	75.5400
 0.7800	75.5100
 0.7810	75.7000
 0.7820	75.6700
 0.7830	75.8100
 0.7840	75.8500
 0.7850	75.8800
 0.7860	75.9600
 0.7870	75.9400
 0.7880	76.0300
 0.7890	76.1300
 0.7900	76.1000
 0.7910	76.1200
 0.7920	76.1500
 0.7930	76.1500
 0.7940	76.3300
 0.7950	76.2400
 0.7960	76.3500
 0.7970	76.3500
 0.7980	76.3900
 0.7990	76.3400
 0.8000	76.5200
 0.8040	76.6100
 0.8080	76.6900
 0.8120	76.8500
 0.8160	76.9100
 0.8200	76.9600
 0.8240	77.0200
 0.8280	77.1100
 0.8320	77.1800
 0.8360	77.2800
 0.8400	77.3800
 0.8440	77.4500
 0.8480	77.5400
 0.8520	77.6200
 0.8560	77.6300
 0.8600	77.7100
 0.8640	77.8600
 0.8680	77.9300
 0.8720	78.0500
 0.8760	78.0200
 0.8800	77.9700
 0.8840	77.9400
 0.8880	78.0800
 0.8920	78.1700
 0.8960	78.2000
 0.9000	78.2400
 0.9040	78.1400
 0.9080	78.3100
 0.9120	78.3600
 0.9160	78.3900
 0.9200	78.3600
 0.9240	78.4700
 0.9280	78.4300
 0.9320	78.4900
 0.9360	78.5800
 0.9400	78.6600
 0.9440	78.5800
 0.9480	78.6600
 0.9520	78.7400
 0.9560	78.8400
 0.9600	78.8300
 0.9640	78.8500
 0.9680	78.8900
 0.9720	78.7100
 0.9760	78.8700
 0.9800	78.8900
 0.9840	78.9400
 0.9880	78.9500
 0.9920	78.9500
 0.9960	78.9800
 1.0000	78.9700
 1.0040	79.0500
 1.0080	79.0100
 1.0120	79.0500
 1.0160	79.1200
 1.0200	79.1500
 1.0240	79.2100
 1.0280	79.1000
 1.0320	79.1400
 1.0360	79.2300
 1.0400	79.2800
 1.0440	79.3600
 1.0480	79.3100
 1.0520	79.3500
 1.0560	79.2700
 1.0600	79.3700
 1.0640	79.4300
 1.0680	79.4700
 1.0720	79.4200
 1.0760	79.4000
 1.0800	79.4300
 1.0840	79.4400
 1.0880	79.5400
 1.0920	79.5600
 1.0960	79.5700
 1.1000	79.5600
 1.1040	79.5900
 1.1080	79.6600
 1.1120	79.7000
 1.1160	79.7200
 1.1200	79.8200
 1.1240	79.8100
 1.1280	79.8100
 1.1320	79.8900
 1.1360	79.7700
 1.1400	79.7900
 1.1440	79.8200
 1.1480	79.7900
 1.1520	79.7900
 1.1560	79.8600
 1.1600	79.9200
 1.1640	79.8600
 1.1680	79.9200
 1.1720	79.9500
 1.1760	79.9700
 1.1800	79.9600
 1.1840	80.0100
 1.1880	79.9700
 1.1920	80.1200
 1.1960	80.1000
 1.2000	80.1200
 1.2040	80.1900
 1.2080	80.1200
 1.2120	80.2100
 1.2160	80.2000
 1.2200	80.2700
 1.2240	80.3100
 1.2280	80.3400
 1.2320	80.3500
 1.2360	80.3900
 1.2400	80.4300
 1.2440	80.5100
 1.2480	80.5400
 1.2520	80.6600
 1.2560	80.6600
 1.2600	80.6000
 1.2640	80.6900
 1.2680	80.6700
 1.2720	80.7400
 1.2760	80.8300
 1.2800	80.9100
 1.2840	80.9000
 1.2880	81.0500
 1.2920	81.0200
 1.2960	81.0400
 1.3000	81.0900
 1.3040	81.0900
 1.3080	81.1800
 1.3120	81.2700
 1.3160	81.2100
 1.3200	81.1900
 1.3240	81.2900
 1.3280	81.3100
 1.3320	81.2700
 1.3360	81.3500
 1.3400	81.4400
 1.3440	81.4200
 1.3480	81.5500
 1.3520	81.5800
 1.3560	81.7100
 1.3600	81.7400
 1.3640	81.8200
 1.3680	81.8000
 1.3720	81.8300
 1.3760	81.8000
 1.3800	81.8500
 1.3840	81.9200
 1.3880	81.9700
 1.3920	81.8700
 1.3960	81.9100
 1.4000	81.7900
 1.4040	81.8300
 1.4080	81.8200
 1.4120	81.8200
 1.4160	81.7900
 1.4200	81.8000
 1.4240	81.8500
 1.4280	81.9700
 1.4320	81.9700
 1.4360	82.0600
 1.4400	81.9600
 1.4440	82.0500
 1.4480	82.1200
 1.4520	82.2400
 1.4560	82.2900
 1.4600	82.3700
 1.4640	82.4000
 1.4680	82.4600
 1.4720	82.5400
 1.4760	82.7100
 1.4800	82.8000
 1.4840	82.8300
 1.4880	82.9100
 1.4920	83.0000
 1.4960	83.1500
 1.5000	83.2000
 1.5040	83.2200
 1.5080	83.4400
 1.5120	83.4800
 1.5160	83.6200
 1.5200	83.6700
 1.5240	83.7300
 1.5280	83.7300
 1.5320	83.9000
 1.5360	83.9300
 1.5400	84.0500
 1.5440	84.0800
 1.5480	84.0800
 1.5520	84.1800
 1.5560	84.3100
 1.5600	84.2900
 1.5640	84.3400
 1.5680	84.4100
 1.5720	84.4600
 1.5760	84.4800
 1.5800	84.5700
 1.5840	84.6300
 1.5880	84.7000
 1.5920	84.7500
 1.5960	84.7300
 1.6000	84.8500
 1.6040	84.9400
 1.6080	85.0400
 1.6120	85.0200
 1.6160	85.0500
 1.6200	85.0900
 1.6240	85.1300
 1.6280	85.1400
 1.6320	85.2300
 1.6360	85.2800
 1.6400	85.2800
 1.6440	85.3100
 1.6480	85.3600
 1.6520	85.4700
 1.6560	85.5700
 1.6600	85.5700
 1.6640	85.5100
 1.6680	85.5500
 1.6720	85.5600
 1.6760	85.5900
 1.6800	85.7400
 1.6840	85.6800
 1.6880	85.6900
 1.6920	85.6500
 1.6960	85.7400
 1.7000	85.7800
 1.7040	85.8100
 1.7080	85.8100
 1.7120	85.7900
 1.7160	85.8300
 1.7200	85.7700
 1.7240	85.8200
 1.7280	85.8300
 1.7320	85.8900
 1.7360	85.8500
 1.7400	85.7400
 1.7440	85.7400
 1.7480	85.7900
 1.7520	85.7900
 1.7560	85.8000
 1.7600	85.8300
 1.7640	85.8500
 1.7680	85.7600
 1.7720	85.7900
 1.7760	85.8000
 1.7800	85.8600
 1.7840	85.8700
 1.7880	85.8500
 1.7920	85.8900
 1.7960	85.8900
 1.8000	85.9500
 1.8040	85.9100
 1.8080	85.9500
 1.8120	85.9600
 1.8160	85.8800
 1.8200	85.8400
 1.8240	85.8700
 1.8280	85.9400
 1.8320	85.9300
 1.8360	85.9000
 1.8400	85.7900
 1.8440	85.8500
 1.8480	85.7600
 1.8520	85.7300
 1.8560	85.7400
 1.8600	85.6900
 1.8640	85.5100
 1.8680	85.2500
 1.8720	85.0200
 1.8760	84.8200
 1.8800	84.4400
 1.8840	84.1000
 1.8880	83.6700
 1.8920	83.1600
 1.8960	82.6900
 1.9000	82.3000
 1.9040	81.9300
 1.9080	81.7400
 1.9120	81.3900
 1.9160	81.3300
 1.9200	81.1500
 1.9240	81.0600
 1.9280	81.0600
 1.9320	80.9400
 1.9360	81.0200
 1.9400	81.1200
 1.9440	81.2400
 1.9480	81.3100
 1.9520	81.5200
 1.9560	81.5800
 1.9600	81.7800
 1.9640	81.8100
 1.9680	82.0500
 1.9720	82.2300
 1.9760	82.4000
 1.9800	82.5100
 1.9840	82.6700
 1.9880	82.8800
 1.9920	83.1600
 1.9960	83.3200
 2.0000	83.4000
 2.0040	83.4800
 2.0080	83.5400
 2.0120	83.8300
 2.0160	83.9600
 2.0200	84.1200
 2.0240	84.1900
 2.0280	84.2700
 2.0320	84.3300
 2.0360	84.5100
 2.0400	84.5800
 2.0440	84.6100
 2.0480	84.7700
 2.0520	84.8400
 2.0560	84.8100
 2.0600	84.9000
 2.0640	85.0800
 2.0680	85.1600
 2.0720	85.1700
 2.0760	85.2300
 2.0800	85.2600
 2.0840	85.3800
 2.0880	85.4500
 2.0920	85.5100
 2.0960	85.5600
 2.1000	85.7400
 2.1040	85.7700
 2.1080	85.7600
 2.1120	85.9400
 2.1160	85.9400
 2.1200	86.0000
 2.1240	86.0200
 2.1280	86.1000
 2.1320	86.0200
 2.1360	86.1700
 2.1400	86.1500
 2.1440	86.1100
 2.1480	86.0900
 2.1520	85.9200
 2.1560	86.0300
 2.1600	85.9800
 2.1640	85.9600
 2.1680	85.9200
 2.1720	85.8700
 2.1760	85.7800
 2.1800	85.8400
 2.1840	85.8000
 2.1880	85.7500
 2.1920	85.7600
 2.1960	85.7000
 2.2000	85.6800
 2.2040	85.5800
 2.2080	85.6100
 2.2120	85.6100
 2.2160	85.6500
 2.2200	85.6900
 2.2240	85.6000
 2.2280	85.5500
 2.2320	85.5900
 2.2360	85.4800
 2.2400	85.5600
 2.2440	85.6000
 2.2480	85.5100
 2.2520	85.5100
 2.2560	85.4500
 2.2600	85.5300
 2.2640	85.4800
 2.2680	85.4300
 2.2720	85.4500
 2.2760	85.4900
 2.2800	85.4000
 2.2840	85.2800
 2.2880	85.3100
 2.2920	85.3700
 2.2960	85.3000
 2.3000	85.3400
 2.3040	85.2500
 2.3080	85.2900
 2.3120	85.4800
 2.3160	85.5700
 2.3200	85.5200
 2.3240	85.5000
 2.3280	85.4400
 2.3320	85.5100
 2.3360	85.5100
 2.3400	85.4300
 2.3440	85.3800
 2.3480	85.2700
 2.3520	85.2600
 2.3560	85.2400
 2.3600	85.2100
 2.3640	85.0800
 2.3680	85.0200
 2.3720	84.8900
 2.3760	84.8400
 2.3800	84.8500
 2.3840	84.8000
 2.3880	84.7000
 2.3920	84.5500
 2.3960	84.4900
 2.4000	84.4600
 2.4040	84.3500
 2.4080	84.3600
 2.4120	84.3500
 2.4160	84.1900
 2.4200	84.0200
 2.4240	83.9900
 2.4280	83.9900
 2.4320	83.7900
 2.4360	83.6500
 2.4400	83.6000
 2.4440	83.4800
 2.4480	83.4000
 2.4520	83.3000
 2.4560	83.1900
 2.4600	83.0400
 2.4640	82.8900
 2.4680	82.8400
 2.4720	82.8100
 2.4760	82.6400
 2.4800	82.7600
 2.4840	82.6800
 2.4880	82.6300
 2.4920	82.7500
 2.4960	82.8400
 2.5000	82.8700
