Name: Natrolite Na_2Al_2Si_3O_10.2H_2O
Type: Mineral
Class: Silicate
Subclass: Tectosilicate
Particle Size: Coarse
Sample No.: TS-8A
Owner: JPL
Wavelength Range: VSWIR
Origin: India, Maharashtra, Poona.
Collection Date: N/A
Description: Particle size was 125-500um. Collected by:  Ward's Original ASTER Spectral Library name was jpl.perkin.mineral.silicate.tectosilicate.coarse.ts08a.spectrum.txt
Measurement: Hemispherical reflectance
First Column: X
Second Column: Y
X Units: Wavelength (micrometers)
Y Units:Reflectance (percent)
First X Value:  2.5000
Last X Value:  0.4000
Number of X Values: 2101
Additional Information: mineral.silicate.tectosilicate.coarse.vswir.ts-8a.jpl.perkin.ancillary.txt

 2.5000	22.3770
 2.4990	21.9245
 2.4980	22.0963
 2.4970	22.1528
 2.4960	21.7491
 2.4950	21.7805
 2.4940	21.7117
 2.4930	21.4166
 2.4920	21.3218
 2.4910	21.2065
 2.4900	21.0294
 2.4890	20.6400
 2.4880	20.6388
 2.4870	20.2631
 2.4860	19.9800
 2.4850	19.7787
 2.4840	19.5150
 2.4830	19.0650
 2.4820	18.7487
 2.4810	18.4856
 2.4800	18.2341
 2.4790	17.6966
 2.4780	17.6363
 2.4770	17.1241
 2.4760	16.9315
 2.4750	16.5347
 2.4740	16.3693
 2.4730	15.7809
 2.4720	15.5853
 2.4710	15.1952
 2.4700	15.1344
 2.4690	14.8145
 2.4680	14.6573
 2.4670	14.3787
 2.4660	14.2487
 2.4650	13.9403
 2.4640	13.7598
 2.4630	13.8181
 2.4620	13.6453
 2.4610	13.4326
 2.4600	13.5214
 2.4590	13.4338
 2.4580	13.4233
 2.4570	13.2275
 2.4560	13.3616
 2.4550	13.1805
 2.4540	13.3792
 2.4530	13.1998
 2.4520	13.2219
 2.4510	13.2163
 2.4500	13.2481
 2.4490	13.0769
 2.4480	13.0822
 2.4470	12.9329
 2.4460	12.8992
 2.4450	12.7059
 2.4440	12.5844
 2.4430	12.4409
 2.4420	12.3351
 2.4410	12.1226
 2.4400	12.0438
 2.4390	11.7770
 2.4380	11.6986
 2.4370	11.4683
 2.4360	11.4675
 2.4350	11.2517
 2.4340	11.1547
 2.4330	10.9954
 2.4320	10.9383
 2.4310	10.8216
 2.4300	10.7789
 2.4290	10.7511
 2.4280	10.8848
 2.4270	10.9547
 2.4260	11.0406
 2.4250	11.0937
 2.4240	11.2732
 2.4230	11.4734
 2.4220	11.6939
 2.4210	11.9413
 2.4200	12.0928
 2.4190	12.3966
 2.4180	12.7705
 2.4170	13.1298
 2.4160	13.5132
 2.4150	13.9535
 2.4140	14.4154
 2.4130	14.7716
 2.4120	15.2802
 2.4110	15.6554
 2.4100	16.2460
 2.4090	16.6023
 2.4080	17.0697
 2.4070	17.5855
 2.4060	17.9633
 2.4050	18.3941
 2.4040	19.0093
 2.4030	19.4031
 2.4020	19.8922
 2.4010	20.3388
 2.4000	20.8039
 2.3990	21.1590
 2.3980	21.5811
 2.3970	21.9306
 2.3960	22.2784
 2.3950	22.5868
 2.3940	22.9685
 2.3930	23.2127
 2.3920	23.4977
 2.3910	23.7622
 2.3900	23.9700
 2.3890	24.1997
 2.3880	24.4568
 2.3870	24.6056
 2.3860	24.7960
 2.3850	24.9522
 2.3840	25.1994
 2.3830	25.2873
 2.3820	25.4807
 2.3810	25.6519
 2.3800	25.7935
 2.3790	25.9528
 2.3780	26.0988
 2.3770	26.3068
 2.3760	26.4435
 2.3750	26.6292
 2.3740	26.8239
 2.3730	26.9730
 2.3720	27.1996
 2.3710	27.3984
 2.3700	27.6129
 2.3690	27.8526
 2.3680	28.0927
 2.3670	28.2762
 2.3660	28.5278
 2.3650	28.7595
 2.3640	28.9654
 2.3630	29.1608
 2.3620	29.3955
 2.3610	29.6116
 2.3600	29.8549
 2.3590	30.0333
 2.3580	30.2332
 2.3570	30.4248
 2.3560	30.6292
 2.3550	30.9014
 2.3540	31.0687
 2.3530	31.2432
 2.3520	31.4776
 2.3510	31.6436
 2.3500	31.7739
 2.3490	31.9310
 2.3480	32.1092
 2.3470	32.3558
 2.3460	32.6084
 2.3450	32.8207
 2.3440	33.0037
 2.3430	33.1379
 2.3420	33.3571
 2.3410	33.6400
 2.3400	33.7463
 2.3390	33.9756
 2.3380	34.2136
 2.3370	34.4208
 2.3360	34.6231
 2.3350	34.8457
 2.3340	35.0862
 2.3330	35.3124
 2.3320	35.5316
 2.3310	35.7664
 2.3300	36.0092
 2.3290	36.2349
 2.3280	36.4567
 2.3270	36.5961
 2.3260	36.8612
 2.3250	37.1265
 2.3240	37.2788
 2.3230	37.5329
 2.3220	37.7221
 2.3210	37.9433
 2.3200	38.1984
 2.3190	38.4527
 2.3180	38.6097
 2.3170	38.8617
 2.3160	39.0409
 2.3150	39.2066
 2.3140	39.3510
 2.3130	39.6014
 2.3120	39.7174
 2.3110	39.8998
 2.3100	40.0921
 2.3090	40.2519
 2.3080	40.4116
 2.3070	40.5773
 2.3060	40.6496
 2.3050	40.7930
 2.3040	40.8716
 2.3030	40.9282
 2.3020	40.9707
 2.3010	41.0666
 2.3000	41.0607
 2.2990	41.0706
 2.2980	41.0692
 2.2970	41.0780
 2.2960	41.0944
 2.2950	41.0595
 2.2940	40.8894
 2.2930	40.8584
 2.2920	40.8493
 2.2910	40.7838
 2.2900	40.6632
 2.2890	40.5577
 2.2880	40.3830
 2.2870	40.2407
 2.2860	40.1132
 2.2850	40.0833
 2.2840	39.9137
 2.2830	39.8038
 2.2820	39.6542
 2.2810	39.6024
 2.2800	39.3955
 2.2790	39.3535
 2.2780	39.2906
 2.2770	39.2252
 2.2760	39.1857
 2.2750	39.1959
 2.2740	39.1326
 2.2730	39.1865
 2.2720	39.2238
 2.2710	39.2840
 2.2700	39.2623
 2.2690	39.2892
 2.2680	39.4294
 2.2670	39.5746
 2.2660	39.6219
 2.2650	39.7544
 2.2640	39.7470
 2.2630	39.9642
 2.2620	40.0369
 2.2610	40.2511
 2.2600	40.2913
 2.2590	40.4658
 2.2580	40.5078
 2.2570	40.5373
 2.2560	40.6296
 2.2550	40.7600
 2.2540	40.7428
 2.2530	40.8214
 2.2520	40.7878
 2.2510	40.8284
 2.2500	40.7860
 2.2490	40.7727
 2.2480	40.7200
 2.2470	40.7119
 2.2460	40.6602
 2.2450	40.5925
 2.2440	40.5119
 2.2430	40.3991
 2.2420	40.2819
 2.2410	40.1963
 2.2400	40.0290
 2.2390	39.9418
 2.2380	39.6586
 2.2370	39.5598
 2.2360	39.4136
 2.2350	39.2217
 2.2340	38.9935
 2.2330	38.9449
 2.2320	38.6292
 2.2310	38.4639
 2.2300	38.1845
 2.2290	38.0093
 2.2280	37.6582
 2.2270	37.4868
 2.2260	37.0609
 2.2250	36.9563
 2.2240	36.5345
 2.2230	36.2870
 2.2220	35.8528
 2.2210	35.6170
 2.2200	35.1872
 2.2190	34.8236
 2.2180	34.3497
 2.2170	34.0093
 2.2160	33.5500
 2.2150	33.2007
 2.2140	32.6480
 2.2130	32.3272
 2.2120	31.8925
 2.2110	31.3777
 2.2100	31.0683
 2.2090	30.6118
 2.2080	30.1062
 2.2070	29.8493
 2.2060	29.3888
 2.2050	29.0099
 2.2040	28.7449
 2.2030	28.4211
 2.2020	28.1488
 2.2010	27.9934
 2.2000	27.7994
 2.1990	27.7476
 2.1980	27.5996
 2.1970	27.6396
 2.1960	27.5978
 2.1950	27.6418
 2.1940	27.7493
 2.1930	27.9163
 2.1920	27.9467
 2.1910	28.1863
 2.1900	28.3522
 2.1890	28.5649
 2.1880	28.9227
 2.1870	29.1971
 2.1860	29.4112
 2.1850	29.6979
 2.1840	30.0290
 2.1830	30.2553
 2.1820	30.4990
 2.1810	30.7945
 2.1800	31.0242
 2.1790	31.1940
 2.1780	31.3203
 2.1770	31.5776
 2.1760	31.6422
 2.1750	31.7856
 2.1740	31.8301
 2.1730	32.0383
 2.1720	31.9783
 2.1710	32.0861
 2.1700	32.0738
 2.1690	32.1894
 2.1680	32.1323
 2.1670	32.2105
 2.1660	32.3152
 2.1650	32.3062
 2.1640	32.2842
 2.1630	32.3331
 2.1620	32.3458
 2.1610	32.4786
 2.1600	32.4302
 2.1590	32.5926
 2.1580	32.6084
 2.1570	32.7020
 2.1560	32.8398
 2.1550	32.8796
 2.1540	32.9438
 2.1530	33.0626
 2.1520	33.1557
 2.1510	33.2366
 2.1500	33.2935
 2.1490	33.4529
 2.1480	33.5548
 2.1470	33.6447
 2.1460	33.6645
 2.1450	33.7962
 2.1440	33.8474
 2.1430	33.9732
 2.1420	34.0322
 2.1410	34.0463
 2.1400	34.0399
 2.1390	34.0972
 2.1380	34.0729
 2.1370	34.0554
 2.1360	34.0363
 2.1350	34.0410
 2.1340	33.9356
 2.1330	33.8995
 2.1320	33.8353
 2.1310	33.7626
 2.1300	33.6504
 2.1290	33.5045
 2.1280	33.3667
 2.1270	33.2853
 2.1260	33.1337
 2.1250	32.9774
 2.1240	32.7627
 2.1230	32.5884
 2.1220	32.3542
 2.1210	32.2180
 2.1200	31.9988
 2.1190	31.7893
 2.1180	31.5497
 2.1170	31.3137
 2.1160	31.1001
 2.1150	30.8904
 2.1140	30.6012
 2.1130	30.3051
 2.1120	29.9676
 2.1110	29.6683
 2.1100	29.3234
 2.1090	29.0742
 2.1080	28.6481
 2.1070	28.2693
 2.1060	27.9384
 2.1050	27.6224
 2.1040	27.2005
 2.1030	26.8329
 2.1020	26.4155
 2.1010	26.0769
 2.1000	25.7016
 2.0990	25.3090
 2.0980	24.9520
 2.0970	24.6493
 2.0960	24.3301
 2.0950	23.9784
 2.0940	23.6592
 2.0930	23.4200
 2.0920	23.1936
 2.0910	22.9733
 2.0900	22.7804
 2.0890	22.6173
 2.0880	22.4751
 2.0870	22.3379
 2.0860	22.2203
 2.0850	22.1906
 2.0840	22.1296
 2.0830	22.1077
 2.0820	22.0985
 2.0810	22.1674
 2.0800	22.2229
 2.0790	22.2583
 2.0780	22.3558
 2.0770	22.4368
 2.0760	22.5111
 2.0750	22.5965
 2.0740	22.7233
 2.0730	22.8571
 2.0720	22.9572
 2.0710	23.0830
 2.0700	23.1804
 2.0690	23.2729
 2.0680	23.3320
 2.0670	23.3704
 2.0660	23.4381
 2.0650	23.4696
 2.0640	23.5627
 2.0630	23.6077
 2.0620	23.5745
 2.0610	23.5777
 2.0600	23.5357
 2.0590	23.5269
 2.0580	23.5292
 2.0570	23.4788
 2.0560	23.4244
 2.0550	23.3399
 2.0540	23.2158
 2.0530	23.1069
 2.0520	23.0126
 2.0510	22.8395
 2.0500	22.7329
 2.0490	22.5381
 2.0480	22.3277
 2.0470	22.1261
 2.0460	21.9403
 2.0450	21.7213
 2.0440	21.3953
 2.0430	21.1300
 2.0420	20.8866
 2.0410	20.5550
 2.0400	20.2493
 2.0390	19.9062
 2.0380	19.5689
 2.0370	19.1991
 2.0360	18.7785
 2.0350	18.3638
 2.0340	17.9949
 2.0330	17.5134
 2.0320	17.0940
 2.0310	16.7057
 2.0300	16.3452
 2.0290	15.9742
 2.0280	15.6611
 2.0270	15.3415
 2.0260	15.0079
 2.0250	14.6969
 2.0240	14.4508
 2.0230	14.1520
 2.0220	13.8810
 2.0210	13.6663
 2.0200	13.4187
 2.0190	13.2167
 2.0180	13.0810
 2.0170	12.8895
 2.0160	12.7834
 2.0150	12.6132
 2.0140	12.5511
 2.0130	12.3831
 2.0120	12.3004
 2.0110	12.2832
 2.0100	12.2428
 2.0090	12.1543
 2.0080	12.1736
 2.0070	12.1906
 2.0060	12.2605
 2.0050	12.2233
 2.0040	12.3841
 2.0030	12.3663
 2.0020	12.4543
 2.0010	12.4930
 2.0000	12.6825
 1.9990	12.7571
 1.9980	12.8837
 1.9970	12.9628
 1.9960	13.2249
 1.9950	13.4106
 1.9940	13.6464
 1.9930	13.6953
 1.9920	13.9768
 1.9910	14.1526
 1.9900	14.4271
 1.9890	14.4664
 1.9880	14.7951
 1.9870	14.9774
 1.9860	15.1722
 1.9850	15.4004
 1.9840	15.5480
 1.9830	15.5841
 1.9820	15.7894
 1.9810	15.8922
 1.9800	16.0802
 1.9790	16.1007
 1.9780	16.2414
 1.9770	16.2107
 1.9760	16.3101
 1.9750	16.3149
 1.9740	16.3751
 1.9730	16.2420
 1.9720	16.1899
 1.9710	16.1007
 1.9700	16.0996
 1.9690	15.8305
 1.9680	15.7885
 1.9670	15.6253
 1.9660	15.4169
 1.9650	15.2345
 1.9640	15.0188
 1.9630	14.5066
 1.9620	14.2093
 1.9610	13.7831
 1.9600	13.3223
 1.9590	12.7331
 1.9580	12.1169
 1.9570	11.4188
 1.9560	10.7119
 1.9550	 9.9298
 1.9540	 9.2865
 1.9530	 8.3480
 1.9520	 7.6417
 1.9510	 6.8246
 1.9500	 6.1711
 1.9490	 5.5791
 1.9480	 4.9564
 1.9470	 4.5031
 1.9460	 4.0319
 1.9450	 3.6896
 1.9440	 3.4110
 1.9430	 3.2820
 1.9420	 3.2276
 1.9410	 3.1616
 1.9400	 3.3454
 1.9390	 3.2893
 1.9380	 3.6314
 1.9370	 3.7899
 1.9360	 4.1444
 1.9350	 4.3502
 1.9340	 4.8055
 1.9330	 5.1147
 1.9320	 5.6434
 1.9310	 5.9018
 1.9300	 6.4448
 1.9290	 6.7819
 1.9280	 7.4103
 1.9270	 7.9135
 1.9260	 8.2601
 1.9250	 8.7720
 1.9240	 9.2840
 1.9230	 9.7104
 1.9220	10.2846
 1.9210	10.6178
 1.9200	11.2223
 1.9190	11.5472
 1.9180	12.1005
 1.9170	12.4737
 1.9160	13.0200
 1.9150	13.3616
 1.9140	13.9359
 1.9130	14.2132
 1.9120	14.7829
 1.9110	15.2023
 1.9100	15.6936
 1.9090	16.1559
 1.9080	16.6450
 1.9070	17.0314
 1.9060	17.6766
 1.9050	18.0390
 1.9040	18.6614
 1.9030	19.1134
 1.9020	19.9560
 1.9010	20.4802
 1.9000	21.2540
 1.8990	21.8369
 1.8980	22.4907
 1.8970	23.2977
 1.8960	24.1120
 1.8950	24.9670
 1.8940	25.8853
 1.8930	26.8295
 1.8920	28.0143
 1.8910	29.1271
 1.8900	30.5118
 1.8890	31.7101
 1.8880	33.1540
 1.8870	34.4441
 1.8860	35.8058
 1.8850	37.0503
 1.8840	38.4612
 1.8830	39.6335
 1.8820	40.8550
 1.8810	41.9866
 1.8800	43.0115
 1.8790	43.9168
 1.8780	44.8345
 1.8770	45.7536
 1.8760	46.4793
 1.8750	47.1699
 1.8740	48.0341
 1.8730	48.7513
 1.8720	49.5652
 1.8710	50.2155
 1.8700	50.9566
 1.8690	51.4730
 1.8680	52.0407
 1.8670	52.4953
 1.8660	52.9132
 1.8650	53.3660
 1.8640	53.7430
 1.8630	54.0796
 1.8620	54.4674
 1.8610	54.6607
 1.8600	55.0561
 1.8590	55.2452
 1.8580	55.4539
 1.8570	55.6805
 1.8560	55.9962
 1.8550	56.1172
 1.8540	56.3488
 1.8530	56.5023
 1.8520	56.6377
 1.8510	56.7722
 1.8500	56.9222
 1.8490	57.0165
 1.8480	57.2108
 1.8470	57.2313
 1.8460	57.3322
 1.8450	57.4305
 1.8440	57.5151
 1.8430	57.4937
 1.8420	57.5185
 1.8410	57.4843
 1.8400	57.3956
 1.8390	57.3114
 1.8380	57.2401
 1.8370	57.1230
 1.8360	56.9688
 1.8350	56.7735
 1.8340	56.6152
 1.8330	56.4401
 1.8320	56.2742
 1.8310	56.0496
 1.8300	55.7794
 1.8290	55.5169
 1.8280	55.2440
 1.8270	54.9963
 1.8260	54.8529
 1.8250	54.5940
 1.8240	54.4034
 1.8230	54.1817
 1.8220	54.0442
 1.8210	53.8266
 1.8200	53.7536
 1.8190	53.7609
 1.8180	53.7126
 1.8170	53.7174
 1.8160	53.7981
 1.8150	53.9220
 1.8140	54.1008
 1.8130	54.3859
 1.8120	54.5843
 1.8110	54.7719
 1.8100	55.0348
 1.8090	55.3117
 1.8080	55.6193
 1.8070	55.9247
 1.8060	56.2329
 1.8050	56.4886
 1.8040	56.7473
 1.8030	57.0248
 1.8020	57.2804
 1.8010	57.4708
 1.8000	57.6898
 1.7990	57.8420
 1.7980	57.9578
 1.7970	58.0726
 1.7960	58.2202
 1.7950	58.3554
 1.7940	58.4325
 1.7930	58.4390
 1.7920	58.4912
 1.7910	58.5427
 1.7900	58.5799
 1.7890	58.6008
 1.7880	58.5782
 1.7870	58.5406
 1.7860	58.4466
 1.7850	58.3361
 1.7840	58.2633
 1.7830	58.1434
 1.7820	57.9748
 1.7810	57.7907
 1.7800	57.6041
 1.7790	57.3884
 1.7780	57.0988
 1.7770	56.8138
 1.7760	56.4943
 1.7750	56.1975
 1.7740	55.9012
 1.7730	55.6374
 1.7720	55.4435
 1.7710	55.2650
 1.7700	55.0964
 1.7690	55.0166
 1.7680	55.0473
 1.7670	55.1238
 1.7660	55.3364
 1.7650	55.6221
 1.7640	55.9639
 1.7630	56.3866
 1.7620	56.8219
 1.7610	57.3197
 1.7600	57.7648
 1.7590	58.2524
 1.7580	58.6784
 1.7570	59.0884
 1.7560	59.4278
 1.7550	59.7205
 1.7540	59.9937
 1.7530	60.2424
 1.7520	60.4599
 1.7510	60.5135
 1.7500	60.5305
 1.7490	60.6191
 1.7480	60.6382
 1.7470	60.6032
 1.7460	60.5800
 1.7450	60.5091
 1.7440	60.4827
 1.7430	60.4420
 1.7420	60.3765
 1.7410	60.2898
 1.7400	60.2820
 1.7390	60.2457
 1.7380	60.1716
 1.7370	60.2130
 1.7360	60.2738
 1.7350	60.3168
 1.7340	60.4103
 1.7330	60.6057
 1.7320	60.7252
 1.7310	60.8446
 1.7300	61.0321
 1.7290	61.0873
 1.7280	61.1710
 1.7270	61.2934
 1.7260	61.3359
 1.7250	61.4301
 1.7240	61.4485
 1.7230	61.4924
 1.7220	61.4498
 1.7210	61.4193
 1.7200	61.3504
 1.7190	61.4102
 1.7180	61.3343
 1.7170	61.3156
 1.7160	61.2783
 1.7150	61.2029
 1.7140	61.1561
 1.7130	61.1093
 1.7120	61.0405
 1.7110	61.0836
 1.7100	61.0283
 1.7090	60.9824
 1.7080	60.9105
 1.7070	60.9383
 1.7060	60.7860
 1.7050	60.8319
 1.7040	60.7559
 1.7030	60.6930
 1.7020	60.6184
 1.7010	60.6017
 1.7000	60.6157
 1.6990	60.5180
 1.6980	60.5430
 1.6970	60.4530
 1.6960	60.3112
 1.6950	60.3319
 1.6940	60.3162
 1.6930	60.2500
 1.6920	60.0757
 1.6910	60.0518
 1.6900	59.9996
 1.6890	59.9576
 1.6880	59.8840
 1.6870	59.8589
 1.6860	59.6763
 1.6850	59.6883
 1.6840	59.5105
 1.6830	59.4442
 1.6820	59.2656
 1.6810	59.2293
 1.6800	59.1119
 1.6790	58.9967
 1.6780	58.8775
 1.6770	58.7766
 1.6760	58.7128
 1.6750	58.5619
 1.6740	58.5427
 1.6730	58.3482
 1.6720	58.2365
 1.6710	58.1777
 1.6700	58.0514
 1.6690	57.9759
 1.6680	57.8055
 1.6670	57.7315
 1.6660	57.4666
 1.6650	57.4802
 1.6640	57.3517
 1.6630	57.2523
 1.6620	57.1058
 1.6610	57.0757
 1.6600	56.8457
 1.6590	56.8494
 1.6580	56.6155
 1.6570	56.5582
 1.6560	56.3400
 1.6550	56.2930
 1.6540	56.1622
 1.6530	56.1034
 1.6520	55.9362
 1.6510	55.8330
 1.6500	55.6295
 1.6490	55.5605
 1.6480	55.3611
 1.6470	55.3326
 1.6460	55.1522
 1.6450	55.0766
 1.6440	54.8828
 1.6430	54.8863
 1.6420	54.7244
 1.6410	54.5545
 1.6400	54.5095
 1.6390	54.4036
 1.6380	54.2672
 1.6370	54.2799
 1.6360	54.0719
 1.6350	53.9782
 1.6340	53.8617
 1.6330	53.7582
 1.6320	53.7046
 1.6310	53.6452
 1.6300	53.5362
 1.6290	53.5097
 1.6280	53.2766
 1.6270	53.3051
 1.6260	53.1094
 1.6250	53.1078
 1.6240	52.9683
 1.6230	53.0200
 1.6220	52.8532
 1.6210	52.8269
 1.6200	52.7631
 1.6190	52.6827
 1.6180	52.6301
 1.6170	52.5345
 1.6160	52.4806
 1.6150	52.4052
 1.6140	52.3198
 1.6130	52.2717
 1.6120	52.1959
 1.6110	52.1262
 1.6100	52.0509
 1.6090	51.9600
 1.6080	51.8811
 1.6070	51.8734
 1.6060	51.8197
 1.6050	51.8276
 1.6040	51.7656
 1.6030	51.7081
 1.6020	51.6727
 1.6010	51.7415
 1.6000	51.7166
 1.5990	51.7992
 1.5980	51.6876
 1.5970	51.7906
 1.5960	51.7994
 1.5950	51.9181
 1.5940	51.9242
 1.5930	52.0261
 1.5920	52.0671
 1.5910	52.1136
 1.5900	52.1696
 1.5890	52.2299
 1.5880	52.2291
 1.5870	52.2943
 1.5860	52.3568
 1.5850	52.3754
 1.5840	52.2890
 1.5830	52.3472
 1.5820	52.3693
 1.5810	52.4211
 1.5800	52.3326
 1.5790	52.3790
 1.5780	52.3300
 1.5770	52.3160
 1.5760	52.2888
 1.5750	52.2641
 1.5740	52.1998
 1.5730	52.1421
 1.5720	52.0453
 1.5710	52.0678
 1.5700	51.9377
 1.5690	51.9147
 1.5680	51.8287
 1.5670	51.8048
 1.5660	51.7198
 1.5650	51.7305
 1.5640	51.6702
 1.5630	51.6653
 1.5620	51.6451
 1.5610	51.6359
 1.5600	51.6457
 1.5590	51.6552
 1.5580	51.7277
 1.5570	51.8091
 1.5560	51.8068
 1.5550	51.9092
 1.5540	51.9728
 1.5530	52.1063
 1.5520	52.2045
 1.5510	52.3129
 1.5500	52.4174
 1.5490	52.4923
 1.5480	52.5983
 1.5470	52.6991
 1.5460	52.8473
 1.5450	53.0016
 1.5440	53.1343
 1.5430	53.1989
 1.5420	53.2477
 1.5410	53.3108
 1.5400	53.4256
 1.5390	53.4836
 1.5380	53.5015
 1.5370	53.5743
 1.5360	53.5963
 1.5350	53.6077
 1.5340	53.6925
 1.5330	53.7325
 1.5320	53.6857
 1.5310	53.7481
 1.5300	53.7221
 1.5290	53.6743
 1.5280	53.6175
 1.5270	53.6288
 1.5260	53.5874
 1.5250	53.5138
 1.5240	53.4239
 1.5230	53.3956
 1.5220	53.3822
 1.5210	53.3289
 1.5200	53.1900
 1.5190	53.1413
 1.5180	53.0814
 1.5170	52.9552
 1.5160	52.8409
 1.5150	52.7473
 1.5140	52.6423
 1.5130	52.4604
 1.5120	52.2900
 1.5110	52.1594
 1.5100	52.0098
 1.5090	51.8094
 1.5080	51.5822
 1.5070	51.3495
 1.5060	51.0844
 1.5050	50.8029
 1.5040	50.4572
 1.5030	50.0731
 1.5020	49.7210
 1.5010	49.2905
 1.5000	48.8099
 1.4990	48.3100
 1.4980	47.7431
 1.4970	47.1121
 1.4960	46.4120
 1.4950	45.6595
 1.4940	44.8926
 1.4930	44.1251
 1.4920	43.4596
 1.4910	42.9167
 1.4900	42.5017
 1.4890	42.3007
 1.4880	42.3376
 1.4870	42.5584
 1.4860	42.9424
 1.4850	43.4116
 1.4840	43.9657
 1.4830	44.5127
 1.4820	44.9440
 1.4810	45.2937
 1.4800	45.5416
 1.4790	45.6717
 1.4780	45.7347
 1.4770	45.7292
 1.4760	45.5851
 1.4750	45.3436
 1.4740	45.0243
 1.4730	44.5549
 1.4720	44.0549
 1.4710	43.4503
 1.4700	42.7352
 1.4690	41.9259
 1.4680	41.0003
 1.4670	40.0281
 1.4660	38.9491
 1.4650	37.7229
 1.4640	36.6110
 1.4630	35.5466
 1.4620	34.5145
 1.4610	33.5538
 1.4600	32.9073
 1.4590	32.3972
 1.4580	32.1251
 1.4570	32.0981
 1.4560	32.3703
 1.4550	32.8123
 1.4540	33.4177
 1.4530	34.1139
 1.4520	34.9276
 1.4510	35.6982
 1.4500	36.6176
 1.4490	37.4368
 1.4480	38.2602
 1.4470	38.9827
 1.4460	39.5978
 1.4450	40.1770
 1.4440	40.5792
 1.4430	40.7880
 1.4420	41.0057
 1.4410	41.0227
 1.4400	41.1716
 1.4390	41.2321
 1.4380	41.3028
 1.4370	41.3792
 1.4360	41.5044
 1.4350	41.6450
 1.4340	41.9187
 1.4330	42.1028
 1.4320	42.4577
 1.4310	42.7265
 1.4300	42.9959
 1.4290	43.3066
 1.4280	43.7445
 1.4270	44.0069
 1.4260	44.4610
 1.4250	44.8385
 1.4240	45.4221
 1.4230	45.9327
 1.4220	46.5181
 1.4210	47.1592
 1.4200	47.7999
 1.4190	48.4078
 1.4180	49.0945
 1.4170	49.8375
 1.4160	50.4991
 1.4150	51.2693
 1.4140	52.0007
 1.4130	52.6188
 1.4120	53.4010
 1.4110	54.0816
 1.4100	54.8444
 1.4090	55.5398
 1.4080	56.3794
 1.4070	57.1490
 1.4060	57.8842
 1.4050	58.5922
 1.4040	59.2499
 1.4030	59.8525
 1.4020	60.4768
 1.4010	61.0532
 1.4000	61.5862
 1.3990	62.0221
 1.3980	62.5916
 1.3970	63.1126
 1.3960	63.6326
 1.3950	64.0487
 1.3940	64.4810
 1.3930	64.7736
 1.3920	65.0867
 1.3910	65.5444
 1.3900	65.8234
 1.3890	65.9308
 1.3880	66.1564
 1.3870	66.4751
 1.3860	66.6550
 1.3850	66.7345
 1.3840	66.9486
 1.3830	67.1589
 1.3820	67.3185
 1.3810	67.5201
 1.3800	67.7016
 1.3790	67.9329
 1.3780	68.1384
 1.3770	68.2391
 1.3760	68.3470
 1.3750	68.5098
 1.3740	68.6109
 1.3730	68.7442
 1.3720	68.7812
 1.3710	68.7109
 1.3700	68.6546
 1.3690	68.6493
 1.3680	68.6950
 1.3670	68.6335
 1.3660	68.4537
 1.3650	68.3952
 1.3640	68.2641
 1.3630	68.0148
 1.3620	67.8172
 1.3610	67.6667
 1.3600	67.4938
 1.3590	67.2339
 1.3580	67.0895
 1.3570	67.0385
 1.3560	67.0916
 1.3550	67.0680
 1.3540	67.2134
 1.3530	67.2652
 1.3520	67.5162
 1.3510	67.7729
 1.3500	67.8501
 1.3490	67.9295
 1.3480	67.9614
 1.3470	68.0116
 1.3460	67.9902
 1.3450	67.9652
 1.3440	67.9777
 1.3430	67.8290
 1.3420	67.7457
 1.3410	67.6809
 1.3400	67.6517
 1.3390	67.5539
 1.3380	67.5411
 1.3370	67.5492
 1.3360	67.7432
 1.3350	68.0274
 1.3340	68.4076
 1.3330	68.7003
 1.3320	69.2120
 1.3310	69.6016
 1.3300	70.1213
 1.3290	70.6636
 1.3280	71.3123
 1.3270	71.6578
 1.3260	72.1887
 1.3250	72.6892
 1.3240	73.1312
 1.3230	73.4356
 1.3220	73.7559
 1.3210	74.0594
 1.3200	74.4461
 1.3190	74.6933
 1.3180	74.8967
 1.3170	75.2063
 1.3160	75.3326
 1.3150	75.4621
 1.3140	75.6476
 1.3130	75.7151
 1.3120	75.8217
 1.3110	75.9767
 1.3100	76.1204
 1.3090	76.1760
 1.3080	76.1582
 1.3070	76.2787
 1.3060	76.2759
 1.3050	76.3327
 1.3040	76.3398
 1.3030	76.3530
 1.3020	76.3527
 1.3010	76.3593
 1.3000	76.4462
 1.2990	76.5012
 1.2980	76.5765
 1.2970	76.5642
 1.2960	76.5743
 1.2950	76.6022
 1.2940	76.6339
 1.2930	76.6831
 1.2920	76.6803
 1.2910	76.7118
 1.2900	76.6848
 1.2890	76.7144
 1.2880	76.7973
 1.2870	76.7977
 1.2860	76.7622
 1.2850	76.7740
 1.2840	76.8371
 1.2830	76.7795
 1.2820	76.8138
 1.2810	76.8150
 1.2800	76.7714
 1.2790	76.7228
 1.2780	76.7706
 1.2770	76.7405
 1.2760	76.6677
 1.2750	76.6237
 1.2740	76.5324
 1.2730	76.5110
 1.2720	76.5287
 1.2710	76.5123
 1.2700	76.4864
 1.2690	76.4099
 1.2680	76.3977
 1.2670	76.3775
 1.2660	76.3502
 1.2650	76.2354
 1.2640	76.3318
 1.2630	76.2956
 1.2620	76.2560
 1.2610	76.2055
 1.2600	76.0620
 1.2590	76.0480
 1.2580	76.0610
 1.2570	76.0770
 1.2560	76.0504
 1.2550	76.0182
 1.2540	76.0141
 1.2530	75.9558
 1.2520	75.8888
 1.2510	75.9245
 1.2500	75.9163
 1.2490	75.9171
 1.2480	75.8972
 1.2470	75.8916
 1.2460	75.9280
 1.2450	75.9811
 1.2440	75.9221
 1.2430	75.9038
 1.2420	75.9490
 1.2410	75.9449
 1.2400	75.9582
 1.2390	76.0086
 1.2380	76.0274
 1.2370	76.0648
 1.2360	76.1239
 1.2350	76.1098
 1.2340	76.1501
 1.2330	76.1363
 1.2320	76.1158
 1.2310	76.1454
 1.2300	76.1762
 1.2290	76.2068
 1.2280	76.2138
 1.2270	76.1601
 1.2260	76.2053
 1.2250	76.2651
 1.2240	76.2090
 1.2230	76.1414
 1.2220	76.1745
 1.2210	76.1564
 1.2200	76.1215
 1.2190	76.0790
 1.2180	75.9681
 1.2170	75.9721
 1.2160	75.9390
 1.2150	75.8364
 1.2140	75.7696
 1.2130	75.7199
 1.2120	75.7423
 1.2110	75.7330
 1.2100	75.6408
 1.2090	75.5944
 1.2080	75.6224
 1.2070	75.6753
 1.2060	75.7636
 1.2050	75.8729
 1.2040	75.9817
 1.2030	76.0252
 1.2020	76.0798
 1.2010	76.1783
 1.2000	76.2797
 1.1990	76.3035
 1.1980	76.2945
 1.1970	76.2430
 1.1960	76.1717
 1.1950	76.1166
 1.1940	76.0194
 1.1930	75.9521
 1.1920	75.7939
 1.1910	75.6114
 1.1900	75.4437
 1.1890	75.1203
 1.1880	74.7763
 1.1870	74.4702
 1.1860	74.1195
 1.1850	73.8603
 1.1840	73.6622
 1.1830	73.5518
 1.1820	73.5985
 1.1810	73.7416
 1.1800	73.9559
 1.1790	74.2429
 1.1780	74.4220
 1.1770	74.6242
 1.1760	74.8326
 1.1750	75.0151
 1.1740	75.2079
 1.1730	75.2682
 1.1720	75.3383
 1.1710	75.4501
 1.1700	75.5170
 1.1690	75.6025
 1.1680	75.6486
 1.1670	75.7400
 1.1660	75.8245
 1.1650	75.8590
 1.1640	75.9907
 1.1630	76.1819
 1.1620	76.3679
 1.1610	76.6142
 1.1600	76.8115
 1.1590	77.0522
 1.1580	77.2785
 1.1570	77.5282
 1.1560	77.7970
 1.1550	77.9660
 1.1540	78.2112
 1.1530	78.4459
 1.1520	79.0880
 1.1510	78.9631
 1.1500	78.8769
 1.1490	79.0324
 1.1480	79.1956
 1.1470	79.3226
 1.1460	79.3576
 1.1450	79.5458
 1.1440	79.5368
 1.1430	79.7205
 1.1420	79.7602
 1.1410	79.7948
 1.1400	79.8374
 1.1390	79.8148
 1.1380	79.8921
 1.1370	80.0155
 1.1360	80.0650
 1.1350	80.1029
 1.1340	80.0725
 1.1330	80.1192
 1.1320	80.2354
 1.1310	80.2185
 1.1300	80.2190
 1.1290	80.1964
 1.1280	80.2429
 1.1270	80.2129
 1.1260	80.1835
 1.1250	80.2369
 1.1240	80.2415
 1.1230	80.3217
 1.1220	80.2369
 1.1210	80.2928
 1.1200	80.2101
 1.1190	80.2252
 1.1180	80.2816
 1.1170	80.2575
 1.1160	80.2561
 1.1150	80.2370
 1.1140	80.2946
 1.1130	80.3605
 1.1120	80.2832
 1.1110	80.3811
 1.1100	80.2997
 1.1090	80.2606
 1.1080	80.2954
 1.1070	80.3208
 1.1060	80.3045
 1.1050	80.3218
 1.1040	80.3590
 1.1030	80.3140
 1.1020	80.2957
 1.1010	80.2946
 1.1000	80.3110
 1.0990	80.2916
 1.0980	80.3576
 1.0970	80.2988
 1.0960	80.3420
 1.0950	80.3536
 1.0940	80.4085
 1.0930	80.4947
 1.0920	80.4164
 1.0910	80.3743
 1.0900	80.4188
 1.0890	80.4569
 1.0880	80.4620
 1.0870	80.4898
 1.0860	80.4564
 1.0850	80.4300
 1.0840	80.4716
 1.0830	80.3861
 1.0820	80.3545
 1.0810	80.4958
 1.0800	80.5154
 1.0790	80.4673
 1.0780	80.4434
 1.0770	80.4328
 1.0760	80.4466
 1.0750	80.4351
 1.0740	80.4775
 1.0730	80.4158
 1.0720	80.5393
 1.0710	80.5038
 1.0700	80.4305
 1.0690	80.4508
 1.0680	80.4719
 1.0670	80.3626
 1.0660	80.5063
 1.0650	80.4809
 1.0640	80.5034
 1.0630	80.4471
 1.0620	80.4553
 1.0610	80.3467
 1.0600	80.3353
 1.0590	80.4961
 1.0580	80.3348
 1.0570	80.3843
 1.0560	80.4286
 1.0550	80.3557
 1.0540	80.3876
 1.0530	80.3667
 1.0520	80.2889
 1.0510	80.3743
 1.0500	80.2921
 1.0490	80.3052
 1.0480	80.2581
 1.0470	80.1646
 1.0460	80.1856
 1.0450	80.2141
 1.0440	80.2028
 1.0430	80.1653
 1.0420	79.9960
 1.0410	80.1180
 1.0400	80.1660
 1.0390	80.1844
 1.0380	79.9761
 1.0370	80.0486
 1.0360	79.9406
 1.0350	79.9560
 1.0340	80.0254
 1.0330	79.8959
 1.0320	79.9939
 1.0310	79.9384
 1.0300	79.8943
 1.0290	79.8466
 1.0280	79.8740
 1.0270	79.7889
 1.0260	79.7463
 1.0250	79.7831
 1.0240	79.7994
 1.0230	79.6972
 1.0220	79.6177
 1.0210	79.6138
 1.0200	79.5166
 1.0190	79.5412
 1.0180	79.4732
 1.0170	79.4878
 1.0160	79.3555
 1.0150	79.3234
 1.0140	79.2401
 1.0130	79.2010
 1.0120	79.1712
 1.0110	79.1405
 1.0100	79.0644
 1.0090	78.9780
 1.0080	78.9316
 1.0070	78.8946
 1.0060	78.8374
 1.0050	78.7080
 1.0040	78.6957
 1.0030	78.6212
 1.0020	78.5029
 1.0010	78.5187
 1.0000	78.3933
 0.9990	78.3817
 0.9980	78.3277
 0.9970	78.2824
 0.9960	78.2038
 0.9950	78.1955
 0.9940	78.0815
 0.9930	78.0280
 0.9920	77.9476
 0.9910	77.9770
 0.9900	77.9138
 0.9890	77.7917
 0.9880	77.7624
 0.9870	77.7521
 0.9860	77.6452
 0.9850	77.6775
 0.9840	77.6189
 0.9830	77.6324
 0.9820	77.6977
 0.9810	77.7315
 0.9800	77.7592
 0.9790	77.7372
 0.9780	77.7218
 0.9770	77.8052
 0.9760	77.7623
 0.9750	77.8106
 0.9740	77.7855
 0.9730	77.8817
 0.9720	78.0442
 0.9710	78.1408
 0.9700	78.0914
 0.9690	78.1753
 0.9680	78.2324
 0.9670	78.3207
 0.9660	78.3621
 0.9650	78.4981
 0.9640	78.5923
 0.9630	78.6472
 0.9620	78.7572
 0.9610	78.8749
 0.9600	78.9983
 0.9590	79.1461
 0.9580	79.1391
 0.9570	79.1952
 0.9560	79.2866
 0.9550	79.3751
 0.9540	79.5173
 0.9530	79.5984
 0.9520	79.6241
 0.9510	79.6664
 0.9500	79.7396
 0.9490	79.7150
 0.9480	79.7214
 0.9470	79.7211
 0.9460	79.7142
 0.9450	79.7212
 0.9440	79.7996
 0.9430	79.7916
 0.9420	79.7669
 0.9410	79.8303
 0.9400	79.8439
 0.9390	79.8598
 0.9380	79.8788
 0.9370	79.9249
 0.9360	79.9314
 0.9350	79.9245
 0.9340	79.9076
 0.9330	79.9591
 0.9320	80.0320
 0.9310	80.0425
 0.9300	80.0761
 0.9290	80.1227
 0.9280	80.1641
 0.9270	80.1785
 0.9260	80.1722
 0.9250	80.1875
 0.9240	80.2038
 0.9230	80.2192
 0.9220	80.2002
 0.9210	80.2113
 0.9200	80.2579
 0.9190	80.2774
 0.9180	80.2547
 0.9170	80.2851
 0.9160	80.2847
 0.9150	80.2481
 0.9140	80.2883
 0.9130	80.3185
 0.9120	80.3637
 0.9110	80.3430
 0.9100	80.3711
 0.9090	80.3474
 0.9080	80.2706
 0.9070	80.2513
 0.9060	80.2959
 0.9050	80.3042
 0.9040	80.2916
 0.9030	80.3176
 0.9020	80.2715
 0.9010	80.2669
 0.9000	80.2874
 0.8990	80.2925
 0.8980	80.2909
 0.8970	80.3244
 0.8960	80.2635
 0.8950	80.2447
 0.8940	80.3347
 0.8930	80.3531
 0.8920	80.3188
 0.8910	80.3028
 0.8900	80.3943
 0.8890	80.3521
 0.8880	80.3452
 0.8870	80.3254
 0.8860	80.3300
 0.8850	80.3729
 0.8840	80.4276
 0.8830	80.4074
 0.8820	80.3967
 0.8810	80.3676
 0.8800	80.3758
 0.8790	80.3560
 0.8780	80.4163
 0.8770	80.4437
 0.8760	80.3872
 0.8750	80.4394
 0.8740	80.3766
 0.8730	80.3293
 0.8720	80.3579
 0.8710	80.3749
 0.8700	80.4307
 0.8690	80.2897
 0.8680	80.3834
 0.8670	80.3716
 0.8660	80.4036
 0.8650	80.4124
 0.8640	80.3381
 0.8630	80.4061
 0.8620	80.4537
 0.8610	80.3329
 0.8600	79.9603
 0.8590	79.9179
 0.8580	79.8739
 0.8570	79.8306
 0.8560	79.8570
 0.8550	79.9259
 0.8540	79.8438
 0.8530	79.9217
 0.8520	79.8825
 0.8510	79.9468
 0.8500	79.8798
 0.8490	79.9331
 0.8480	79.9801
 0.8470	79.9533
 0.8460	79.9716
 0.8450	79.9595
 0.8440	79.9272
 0.8430	79.9070
 0.8420	79.9998
 0.8410	80.0446
 0.8400	79.9890
 0.8390	80.0276
 0.8380	80.0421
 0.8370	80.0095
 0.8360	80.0265
 0.8350	80.1000
 0.8340	80.0875
 0.8330	80.0768
 0.8320	80.0559
 0.8310	80.0869
 0.8300	80.0727
 0.8290	80.0671
 0.8280	80.1024
 0.8270	80.0730
 0.8260	80.0835
 0.8250	80.0889
 0.8240	80.0906
 0.8230	80.0770
 0.8220	80.1153
 0.8210	80.0603
 0.8200	80.1069
 0.8190	80.0896
 0.8180	80.0754
 0.8170	80.0740
 0.8160	80.0635
 0.8150	80.1148
 0.8140	80.1417
 0.8130	80.1217
 0.8120	80.1470
 0.8110	80.1114
 0.8100	80.0403
 0.8090	80.0518
 0.8080	80.0453
 0.8070	80.0689
 0.8060	80.0573
 0.8050	80.0594
 0.8040	80.0611
 0.8030	80.1051
 0.8020	80.0820
 0.8010	80.0607
 0.8000	80.0228
 0.7990	80.0833
 0.7980	80.0115
 0.7970	79.9482
 0.7960	79.9962
 0.7950	79.9519
 0.7940	79.9584
 0.7930	79.9854
 0.7920	79.9206
 0.7910	79.9532
 0.7900	79.9356
 0.7890	79.9340
 0.7880	79.9481
 0.7870	79.9045
 0.7860	79.9397
 0.7850	79.8813
 0.7840	79.9378
 0.7830	79.9046
 0.7820	79.8665
 0.7810	79.8709
 0.7800	79.8323
 0.7790	79.8246
 0.7780	79.8592
 0.7770	79.8315
 0.7760	79.8308
 0.7750	79.8205
 0.7740	79.8112
 0.7730	79.7782
 0.7720	79.7836
 0.7710	79.7764
 0.7700	79.7897
 0.7690	79.7350
 0.7680	79.7525
 0.7670	79.7439
 0.7660	79.7284
 0.7650	79.7495
 0.7640	79.7256
 0.7630	79.7111
 0.7620	79.7418
 0.7610	79.7459
 0.7600	79.7203
 0.7590	79.6998
 0.7580	79.6999
 0.7570	79.6873
 0.7560	79.6741
 0.7550	79.6816
 0.7540	79.7147
 0.7530	79.6610
 0.7520	79.6709
 0.7510	79.6522
 0.7500	79.6693
 0.7490	79.6275
 0.7480	79.6566
 0.7470	79.6858
 0.7460	79.6657
 0.7450	79.7085
 0.7440	79.7067
 0.7430	79.6669
 0.7420	79.6744
 0.7410	79.6806
 0.7400	79.6744
 0.7390	79.6775
 0.7380	79.7018
 0.7370	79.7186
 0.7360	79.7246
 0.7350	79.7628
 0.7340	79.7224
 0.7330	79.7077
 0.7320	79.6951
 0.7310	79.7059
 0.7300	79.7253
 0.7290	79.7216
 0.7280	79.7371
 0.7270	79.7172
 0.7260	79.7051
 0.7250	79.7117
 0.7240	79.7396
 0.7230	79.7207
 0.7220	79.7187
 0.7210	79.7101
 0.7200	79.7338
 0.7190	79.7223
 0.7180	79.7055
 0.7170	79.7144
 0.7160	79.7231
 0.7150	79.7138
 0.7140	79.7329
 0.7130	79.7128
 0.7120	79.6996
 0.7110	79.7030
 0.7100	79.7366
 0.7090	79.7204
 0.7080	79.7037
 0.7070	79.7012
 0.7060	79.7250
 0.7050	79.7171
 0.7040	79.7072
 0.7030	79.7067
 0.7020	79.6945
 0.7010	79.6997
 0.7000	79.7038
 0.6990	79.7004
 0.6980	79.6959
 0.6970	79.6923
 0.6960	79.6753
 0.6950	79.6727
 0.6940	79.6863
 0.6930	79.6888
 0.6920	79.6995
 0.6910	79.7125
 0.6900	79.6928
 0.6890	79.6799
 0.6880	79.6896
 0.6870	79.6785
 0.6860	79.6713
 0.6850	79.6675
 0.6840	79.6672
 0.6830	79.6586
 0.6820	79.6750
 0.6810	79.6666
 0.6800	79.6681
 0.6790	79.6594
 0.6780	79.6541
 0.6770	79.6499
 0.6760	79.6553
 0.6750	79.6657
 0.6740	79.6579
 0.6730	79.6489
 0.6720	79.6562
 0.6710	79.6515
 0.6700	79.6493
 0.6690	79.6519
 0.6680	79.6565
 0.6670	79.6431
 0.6660	79.6199
 0.6650	79.6228
 0.6640	79.6227
 0.6630	79.6118
 0.6620	79.5984
 0.6610	79.6074
 0.6600	79.6218
 0.6590	79.6150
 0.6580	79.6060
 0.6570	79.6111
 0.6560	79.6072
 0.6550	79.5978
 0.6540	79.5917
 0.6530	79.5903
 0.6520	79.5819
 0.6510	79.5734
 0.6500	79.5660
 0.6490	79.5759
 0.6480	79.5835
 0.6470	79.5641
 0.6460	79.5617
 0.6450	79.5737
 0.6440	79.5788
 0.6430	79.5696
 0.6420	79.5544
 0.6410	79.5397
 0.6400	79.5392
 0.6390	79.5437
 0.6380	79.5329
 0.6370	79.5100
 0.6360	79.5107
 0.6350	79.5164
 0.6340	79.5203
 0.6330	79.5137
 0.6320	79.5068
 0.6310	79.5125
 0.6300	79.5172
 0.6290	79.5027
 0.6280	79.4902
 0.6270	79.4865
 0.6260	79.4761
 0.6250	79.4756
 0.6240	79.4611
 0.6230	79.4427
 0.6220	79.4413
 0.6210	79.4436
 0.6200	79.4383
 0.6190	79.4297
 0.6180	79.4285
 0.6170	79.4310
 0.6160	79.4212
 0.6150	79.4199
 0.6140	79.4114
 0.6130	79.3901
 0.6120	79.3794
 0.6110	79.3801
 0.6100	79.3769
 0.6090	79.3631
 0.6080	79.3385
 0.6070	79.3252
 0.6060	79.3242
 0.6050	79.3203
 0.6040	79.3170
 0.6030	79.3200
 0.6020	79.3055
 0.6010	79.3000
 0.6000	79.2983
 0.5990	79.2925
 0.5980	79.3002
 0.5970	79.3038
 0.5960	79.3028
 0.5950	79.3049
 0.5940	79.2932
 0.5930	79.2925
 0.5920	79.2713
 0.5910	79.2572
 0.5900	79.2533
 0.5890	79.2394
 0.5880	79.2229
 0.5870	79.2065
 0.5860	79.1899
 0.5850	79.1868
 0.5840	79.1770
 0.5830	79.1535
 0.5820	79.1408
 0.5810	79.1271
 0.5800	79.1173
 0.5790	79.1045
 0.5780	79.0819
 0.5770	79.0544
 0.5760	79.0358
 0.5750	79.0160
 0.5740	79.0060
 0.5730	78.9823
 0.5720	78.9690
 0.5710	78.9583
 0.5700	78.9331
 0.5690	78.9206
 0.5680	78.8970
 0.5670	78.8868
 0.5660	78.8647
 0.5650	78.8181
 0.5640	78.8001
 0.5630	78.7935
 0.5620	78.7696
 0.5610	78.7107
 0.5600	78.6801
 0.5590	78.6452
 0.5580	78.6241
 0.5570	78.5953
 0.5560	78.5570
 0.5550	78.5327
 0.5540	78.5003
 0.5530	78.4649
 0.5520	78.4461
 0.5510	78.4138
 0.5500	78.3771
 0.5490	78.3463
 0.5480	78.3101
 0.5470	78.2850
 0.5460	78.2571
 0.5450	78.2086
 0.5440	78.1926
 0.5430	78.1550
 0.5420	78.1013
 0.5410	78.0779
 0.5400	78.0638
 0.5390	78.0292
 0.5380	77.9829
 0.5370	77.9516
 0.5360	77.8978
 0.5350	77.8674
 0.5340	77.8329
 0.5330	77.7884
 0.5320	77.7638
 0.5310	77.7329
 0.5300	77.6777
 0.5290	77.6389
 0.5280	77.6066
 0.5270	77.5475
 0.5260	77.5179
 0.5250	77.4641
 0.5240	77.4326
 0.5230	77.3863
 0.5220	77.3462
 0.5210	77.2784
 0.5200	77.2343
 0.5190	77.1892
 0.5180	77.1381
 0.5170	77.0754
 0.5160	77.0447
 0.5150	76.9993
 0.5140	76.9366
 0.5130	76.8849
 0.5120	76.8396
 0.5110	76.7869
 0.5100	76.7200
 0.5090	76.6481
 0.5080	76.5964
 0.5070	76.5350
 0.5060	76.5121
 0.5050	76.4119
 0.5040	76.3570
 0.5030	76.3007
 0.5020	76.2529
 0.5010	76.1814
 0.5000	76.1080
 0.4990	76.0558
 0.4980	75.9955
 0.4970	75.9359
 0.4960	75.8806
 0.4950	75.8138
 0.4940	75.7558
 0.4930	75.6996
 0.4920	75.6469
 0.4910	75.5657
 0.4900	75.5073
 0.4890	75.4420
 0.4880	75.3595
 0.4870	75.2860
 0.4860	75.2162
 0.4850	75.1684
 0.4840	75.0817
 0.4830	75.0167
 0.4820	74.9948
 0.4810	74.9470
 0.4800	74.9127
 0.4790	74.8810
 0.4780	74.8312
 0.4770	74.8073
 0.4760	74.7606
 0.4750	74.7104
 0.4740	74.6723
 0.4730	74.6244
 0.4720	74.5783
 0.4710	74.5241
 0.4700	74.4738
 0.4690	74.4386
 0.4680	74.3909
 0.4670	74.3262
 0.4660	74.3011
 0.4650	74.2600
 0.4640	74.2060
 0.4630	74.1491
 0.4620	74.0904
 0.4610	74.0399
 0.4600	73.9803
 0.4590	73.8995
 0.4580	73.8564
 0.4570	73.7802
 0.4560	73.7344
 0.4550	73.6639
 0.4540	73.6042
 0.4530	73.5450
 0.4520	73.5026
 0.4510	73.4383
 0.4500	73.3740
 0.4490	73.2922
 0.4480	73.2343
 0.4470	73.1669
 0.4460	73.1051
 0.4450	73.0113
 0.4440	72.9471
 0.4430	72.8895
 0.4420	72.8353
 0.4410	72.7688
 0.4400	72.6994
 0.4390	72.6495
 0.4380	72.5983
 0.4370	72.5298
 0.4360	72.4587
 0.4350	72.4035
 0.4340	72.3349
 0.4330	72.2489
 0.4320	72.1853
 0.4310	72.1316
 0.4300	72.0219
 0.4290	71.9697
 0.4280	71.9165
 0.4270	71.8571
 0.4260	71.8004
 0.4250	71.7558
 0.4240	71.6766
 0.4230	71.6251
 0.4220	71.5981
 0.4210	71.5612
 0.4200	71.5015
 0.4190	71.4509
 0.4180	71.4142
 0.4170	71.3892
 0.4160	71.3599
 0.4150	71.3004
 0.4140	71.2684
 0.4130	71.2383
 0.4120	71.1971
 0.4110	71.1685
 0.4100	71.1330
 0.4090	71.0957
 0.4080	71.0439
 0.4070	70.9902
 0.4060	70.9290
 0.4050	70.8938
 0.4040	70.8369
 0.4030	70.7964
 0.4020	70.7461
 0.4010	70.6761
 0.4000	70.6083
