Name: Trona Na_3(CO_3)(HCO_3).2H_2O
Type: Mineral
Class: Carbonate
Subclass: None
Particle Size: Coarse
Sample No.: C-4A
Owner: JPL
Wavelength Range: VSWIR
Origin: USA, Wyoming, Sweetwater County
Collection Date: N/A
Description: Particle size was 125-500um.Collected by Ward's Original ASTER Spectral Library name was jpl.beckman.mineral.carbonate.none.coarse.c04a.spectrum.txt
Measurement: Hemispherical reflectance
First Column: X
Second Column: Y
X Units: Wavelength (micrometers)
Y Units:Reflectance (percent)
First X Value:  0.4000
Last X Value:  2.5000
Number of X Values: 826
Additional Information: mineral.carbonate.none.coarse.vswir.c-4a.jpl.beckman.ancillary.txt

 0.4000	43.8100
 0.4010	43.6900
 0.4020	44.0400
 0.4030	44.3300
 0.4040	44.6200
 0.4050	44.6700
 0.4060	44.6700
 0.4070	44.8900
 0.4080	45.1800
 0.4090	45.5900
 0.4100	45.6400
 0.4110	45.6400
 0.4120	45.8200
 0.4130	46.1500
 0.4140	46.5000
 0.4150	46.6100
 0.4160	46.7300
 0.4170	46.7300
 0.4180	47.0200
 0.4190	47.3600
 0.4200	47.5200
 0.4210	47.7000
 0.4220	47.7500
 0.4230	47.8100
 0.4240	48.1600
 0.4250	48.4500
 0.4260	48.7300
 0.4270	48.7900
 0.4280	48.6800
 0.4290	49.0700
 0.4300	49.3600
 0.4310	49.6500
 0.4320	49.7600
 0.4330	49.7600
 0.4340	50.0500
 0.4350	50.3800
 0.4360	50.6700
 0.4370	50.6700
 0.4380	50.6700
 0.4390	50.8400
 0.4400	51.1900
 0.4410	51.4200
 0.4420	51.5900
 0.4430	51.5400
 0.4440	51.5900
 0.4450	52.0400
 0.4460	52.3300
 0.4470	52.4500
 0.4480	52.4500
 0.4490	52.3900
 0.4500	52.7900
 0.4510	53.0200
 0.4520	53.0800
 0.4530	53.2500
 0.4540	53.2000
 0.4550	53.4800
 0.4560	53.7700
 0.4570	53.9500
 0.4580	54.0600
 0.4590	54.0600
 0.4600	54.1800
 0.4610	54.5200
 0.4620	54.8000
 0.4630	54.9200
 0.4640	54.9800
 0.4650	54.9200
 0.4660	54.9800
 0.4670	55.3900
 0.4680	55.5000
 0.4690	55.6200
 0.4700	55.7900
 0.4710	55.8500
 0.4720	56.1300
 0.4730	56.2500
 0.4740	56.4200
 0.4750	56.3600
 0.4760	56.3100
 0.4770	56.5400
 0.4780	56.8800
 0.4790	57.0000
 0.4800	56.8800
 0.4810	56.8300
 0.4820	57.1100
 0.4830	57.4100
 0.4840	57.5700
 0.4850	57.6300
 0.4860	57.5700
 0.4870	57.7500
 0.4880	57.9300
 0.4890	58.2200
 0.4900	58.1600
 0.4910	58.0500
 0.4920	58.1600
 0.4930	58.3300
 0.4940	58.6800
 0.4950	58.7400
 0.4960	58.7400
 0.4970	58.7400
 0.4980	58.8000
 0.4990	59.0800
 0.5000	59.3100
 0.5010	59.2500
 0.5020	59.3100
 0.5030	59.2500
 0.5040	59.4300
 0.5050	59.8300
 0.5060	59.8300
 0.5070	59.8300
 0.5080	59.7200
 0.5090	59.8900
 0.5100	60.1200
 0.5110	60.4100
 0.5120	60.3500
 0.5130	60.2300
 0.5140	60.3500
 0.5150	60.4600
 0.5160	60.8000
 0.5170	60.8600
 0.5180	60.7400
 0.5190	60.7400
 0.5200	60.8000
 0.5210	61.0300
 0.5220	61.1500
 0.5230	61.1500
 0.5240	61.1500
 0.5250	61.1500
 0.5260	61.3800
 0.5270	61.6600
 0.5280	61.6600
 0.5290	61.6100
 0.5300	61.4900
 0.5310	61.6600
 0.5320	61.8900
 0.5330	62.0100
 0.5340	61.8900
 0.5350	61.7200
 0.5360	61.8900
 0.5370	62.0700
 0.5380	62.4000
 0.5390	62.4600
 0.5400	62.2300
 0.5410	62.2300
 0.5420	62.3500
 0.5430	62.5800
 0.5440	62.6300
 0.5450	62.5800
 0.5460	62.4600
 0.5470	62.4600
 0.5480	62.6300
 0.5490	62.8600
 0.5500	62.8600
 0.5510	62.6900
 0.5520	62.5800
 0.5530	62.8600
 0.5540	63.1500
 0.5550	63.2700
 0.5560	63.1500
 0.5570	62.9800
 0.5580	63.0900
 0.5590	63.8300
 0.5600	63.7800
 0.5610	63.6700
 0.5620	63.4400
 0.5630	63.6100
 0.5640	63.7800
 0.5650	63.9500
 0.5660	63.9500
 0.5670	63.7800
 0.5680	63.8900
 0.5690	64.0100
 0.5700	64.1200
 0.5710	64.2900
 0.5720	64.1200
 0.5730	64.1200
 0.5740	64.1800
 0.5750	64.2400
 0.5760	64.5200
 0.5770	64.6400
 0.5780	64.4700
 0.5790	64.2900
 0.5800	64.5200
 0.5810	64.7000
 0.5820	64.8100
 0.5830	64.8700
 0.5840	64.6400
 0.5850	64.8700
 0.5860	64.9900
 0.5870	65.2700
 0.5880	65.2200
 0.5890	65.0400
 0.5900	65.0400
 0.5910	65.2700
 0.5920	65.3900
 0.5930	65.6100
 0.5940	65.5500
 0.5950	65.4400
 0.5960	65.3900
 0.5970	65.4400
 0.5980	65.7800
 0.5990	65.9000
 0.6000	65.8400
 0.6010	65.5500
 0.6020	65.7200
 0.6030	65.9500
 0.6040	66.1300
 0.6050	66.1800
 0.6060	66.0100
 0.6070	65.9500
 0.6080	66.0700
 0.6090	66.1800
 0.6100	66.4200
 0.6110	66.4200
 0.6120	66.3600
 0.6130	66.2400
 0.6140	66.3600
 0.6150	66.5900
 0.6160	66.7000
 0.6170	66.6500
 0.6180	66.3000
 0.6190	66.4200
 0.6200	66.5900
 0.6210	66.7600
 0.6220	66.9900
 0.6230	66.8200
 0.6240	66.7000
 0.6250	66.7000
 0.6260	66.9300
 0.6270	67.2100
 0.6280	67.1500
 0.6290	67.0500
 0.6300	66.9900
 0.6310	67.1000
 0.6320	67.2700
 0.6330	67.4400
 0.6340	67.4400
 0.6350	67.1000
 0.6360	67.2100
 0.6370	67.4400
 0.6380	67.5600
 0.6390	67.5000
 0.6400	67.3800
 0.6410	67.3300
 0.6420	67.5600
 0.6430	67.6700
 0.6440	67.9600
 0.6450	67.8500
 0.6460	67.7300
 0.6470	67.7900
 0.6480	67.8500
 0.6490	68.0800
 0.6500	68.0800
 0.6510	67.9000
 0.6520	67.8500
 0.6530	68.0200
 0.6540	68.1900
 0.6550	68.1900
 0.6560	68.2500
 0.6570	68.0200
 0.6580	68.0800
 0.6590	68.2500
 0.6600	68.4800
 0.6610	68.4200
 0.6620	68.2500
 0.6630	68.3600
 0.6640	68.4800
 0.6650	68.5900
 0.6660	68.7100
 0.6670	68.6500
 0.6680	68.5400
 0.6690	68.6500
 0.6700	68.7600
 0.6710	68.9300
 0.6720	68.8700
 0.6730	68.7100
 0.6740	68.6500
 0.6750	68.8700
 0.6760	69.1000
 0.6770	69.1000
 0.6780	69.1000
 0.6790	68.8700
 0.6800	69.0500
 0.6810	69.2800
 0.6820	69.2800
 0.6830	69.2800
 0.6840	68.9900
 0.6850	69.1000
 0.6860	69.2800
 0.6870	69.3900
 0.6880	69.5100
 0.6890	69.2800
 0.6900	69.2800
 0.6910	69.3900
 0.6920	69.5100
 0.6930	69.7400
 0.6940	69.6200
 0.6950	69.5100
 0.6960	69.4500
 0.6970	69.5100
 0.6980	69.7900
 0.6990	69.3900
 0.7000	69.3900
 0.7010	69.6800
 0.7020	69.6200
 0.7030	69.5100
 0.7040	69.5100
 0.7050	69.5100
 0.7060	69.8500
 0.7070	69.9100
 0.7080	69.8500
 0.7090	69.7900
 0.7100	69.9100
 0.7110	70.1400
 0.7120	70.2000
 0.7130	70.0200
 0.7140	70.0200
 0.7150	70.0200
 0.7160	70.2000
 0.7170	70.3700
 0.7180	70.2500
 0.7190	70.2000
 0.7200	70.2000
 0.7210	70.4200
 0.7220	70.5300
 0.7230	70.4200
 0.7240	70.3700
 0.7250	70.2500
 0.7260	70.4200
 0.7270	70.5900
 0.7280	70.5300
 0.7290	70.4200
 0.7300	70.1400
 0.7310	70.3700
 0.7320	70.7100
 0.7330	70.7100
 0.7340	70.5900
 0.7350	70.4200
 0.7360	70.4800
 0.7370	70.5900
 0.7380	70.8800
 0.7390	70.8200
 0.7400	70.6500
 0.7410	70.7100
 0.7420	70.7600
 0.7430	70.9900
 0.7440	70.9900
 0.7450	70.8200
 0.7460	70.7100
 0.7470	70.6500
 0.7480	70.8800
 0.7490	70.9900
 0.7500	71.1100
 0.7510	70.9900
 0.7520	70.7600
 0.7530	70.8800
 0.7540	71.1100
 0.7550	71.1700
 0.7560	71.0500
 0.7570	70.9400
 0.7580	70.9900
 0.7590	71.2200
 0.7600	71.3400
 0.7610	71.1100
 0.7620	70.9900
 0.7630	71.0500
 0.7640	71.1700
 0.7650	71.4500
 0.7660	71.2800
 0.7670	71.1100
 0.7680	71.1700
 0.7690	71.2200
 0.7700	71.4000
 0.7710	71.4000
 0.7720	71.3400
 0.7730	71.1700
 0.7740	71.2200
 0.7750	71.4500
 0.7760	71.5100
 0.7770	71.5700
 0.7780	71.3400
 0.7790	71.2200
 0.7800	71.4500
 0.7810	71.6300
 0.7820	71.6800
 0.7830	71.5700
 0.7840	71.3400
 0.7850	71.5100
 0.7860	71.6800
 0.7870	71.8600
 0.7880	71.6800
 0.7890	71.5700
 0.7900	71.6800
 0.7910	71.6800
 0.7920	72.0300
 0.7930	72.0800
 0.7940	71.9700
 0.7950	71.9700
 0.7960	71.9200
 0.7970	72.0800
 0.7980	72.1900
 0.7990	72.3100
 0.8000	72.3100
 0.8040	72.3100
 0.8080	72.4200
 0.8120	72.3700
 0.8160	72.3700
 0.8200	72.4200
 0.8240	72.4200
 0.8280	72.3700
 0.8320	72.6000
 0.8360	72.6000
 0.8400	72.7700
 0.8440	72.7700
 0.8480	72.7700
 0.8520	72.7100
 0.8560	72.6500
 0.8600	72.8300
 0.8640	72.8800
 0.8680	72.7100
 0.8720	72.6500
 0.8760	72.8300
 0.8800	72.7700
 0.8840	72.7100
 0.8880	72.5400
 0.8920	72.7100
 0.8960	72.8800
 0.9000	72.7700
 0.9040	72.8800
 0.9080	72.7700
 0.9120	72.9400
 0.9160	72.8800
 0.9200	72.9400
 0.9240	72.9400
 0.9280	72.8800
 0.9320	73.0000
 0.9360	73.0000
 0.9400	72.9400
 0.9440	73.0000
 0.9480	72.8800
 0.9520	72.9400
 0.9560	72.7700
 0.9600	72.7100
 0.9640	72.7700
 0.9680	72.4200
 0.9720	72.4800
 0.9760	72.3700
 0.9800	72.1900
 0.9840	71.9700
 0.9880	71.8600
 0.9920	71.9200
 0.9960	71.6300
 1.0000	71.6800
 1.0040	71.5700
 1.0080	71.5700
 1.0120	71.6300
 1.0160	71.6800
 1.0200	71.5700
 1.0240	71.5700
 1.0280	71.7400
 1.0320	71.8000
 1.0360	71.9200
 1.0400	72.0800
 1.0440	72.2500
 1.0480	72.1900
 1.0520	72.1900
 1.0560	72.3100
 1.0600	72.2500
 1.0640	72.3700
 1.0680	72.3700
 1.0720	72.3700
 1.0760	72.3100
 1.0800	72.3700
 1.0840	72.4800
 1.0880	72.4200
 1.0920	72.4200
 1.0960	72.4200
 1.1000	72.6000
 1.1040	72.3100
 1.1080	72.1900
 1.1120	72.3700
 1.1160	72.2500
 1.1200	72.2500
 1.1240	72.0800
 1.1280	72.1900
 1.1320	71.8000
 1.1360	71.6800
 1.1400	71.6800
 1.1440	71.4000
 1.1480	71.2200
 1.1520	70.6500
 1.1560	70.3000
 1.1600	69.7300
 1.1640	69.0800
 1.1680	68.6200
 1.1720	67.8200
 1.1760	67.4100
 1.1800	67.0000
 1.1840	66.5400
 1.1880	66.1900
 1.1920	65.6200
 1.1960	65.4900
 1.2000	65.0300
 1.2040	64.8000
 1.2080	64.7400
 1.2120	64.5200
 1.2160	64.4600
 1.2200	64.3500
 1.2240	64.3500
 1.2280	64.1800
 1.2320	64.0600
 1.2360	64.1800
 1.2400	64.0600
 1.2440	64.1800
 1.2480	64.1800
 1.2520	64.3500
 1.2560	64.4000
 1.2600	64.5600
 1.2640	64.7800
 1.2680	64.7200
 1.2720	64.7800
 1.2760	64.7700
 1.2800	64.9300
 1.2840	64.8200
 1.2880	64.6900
 1.2920	64.5800
 1.2960	64.2300
 1.3000	64.1600
 1.3040	63.9300
 1.3080	63.5200
 1.3120	63.3000
 1.3160	63.0000
 1.3200	62.6600
 1.3240	62.2000
 1.3280	61.9000
 1.3320	61.5600
 1.3360	61.3800
 1.3400	60.9200
 1.3440	60.7400
 1.3480	60.6200
 1.3520	60.6800
 1.3560	60.5000
 1.3600	60.3900
 1.3640	60.3300
 1.3680	60.1000
 1.3720	59.9400
 1.3760	59.8200
 1.3800	59.6500
 1.3840	59.4800
 1.3880	59.0700
 1.3920	58.8000
 1.3960	58.1600
 1.4000	57.7700
 1.4040	57.2000
 1.4080	56.4100
 1.4120	55.5500
 1.4160	54.3500
 1.4200	53.2800
 1.4240	51.7400
 1.4280	50.2600
 1.4320	48.6600
 1.4360	46.9000
 1.4400	45.1900
 1.4440	43.5300
 1.4480	42.0500
 1.4520	40.6800
 1.4560	39.4200
 1.4600	38.3900
 1.4640	37.1400
 1.4680	36.0000
 1.4720	35.1400
 1.4760	34.0600
 1.4800	33.2500
 1.4840	32.4500
 1.4880	31.7100
 1.4920	31.1400
 1.4960	30.5100
 1.5000	30.0000
 1.5040	29.6500
 1.5080	29.2500
 1.5120	29.1400
 1.5160	29.0300
 1.5200	28.8000
 1.5240	28.6800
 1.5280	28.6800
 1.5320	28.9100
 1.5360	29.1900
 1.5400	29.9400
 1.5440	30.5600
 1.5480	31.1400
 1.5520	31.9400
 1.5560	32.3400
 1.5600	32.7400
 1.5640	33.0200
 1.5680	33.3700
 1.5720	33.4800
 1.5760	33.4800
 1.5800	33.6000
 1.5840	33.4800
 1.5880	33.3100
 1.5920	33.1400
 1.5960	32.8600
 1.6000	32.6300
 1.6040	32.2200
 1.6080	32.0500
 1.6120	31.8800
 1.6160	31.5300
 1.6200	31.1900
 1.6240	30.8400
 1.6280	30.3800
 1.6320	30.0300
 1.6360	29.6900
 1.6400	29.3400
 1.6440	28.8800
 1.6480	28.5400
 1.6520	28.0300
 1.6560	27.6300
 1.6600	27.1600
 1.6640	26.6500
 1.6680	26.3000
 1.6720	25.7300
 1.6760	25.3900
 1.6800	25.0400
 1.6840	24.6400
 1.6880	24.1800
 1.6920	23.7800
 1.6960	23.5000
 1.7000	23.0900
 1.7040	22.8600
 1.7080	22.4600
 1.7120	22.1800
 1.7160	21.7200
 1.7200	21.5500
 1.7240	21.1600
 1.7280	20.8100
 1.7320	20.6400
 1.7360	20.3500
 1.7400	20.1300
 1.7440	19.9000
 1.7480	19.8400
 1.7520	19.8400
 1.7560	19.7300
 1.7600	19.7300
 1.7640	19.7300
 1.7680	19.7300
 1.7720	19.5500
 1.7760	19.5500
 1.7800	19.6100
 1.7840	19.6100
 1.7880	19.5500
 1.7920	19.4400
 1.7960	19.3200
 1.8000	19.3200
 1.8040	19.1500
 1.8080	19.2000
 1.8120	19.0800
 1.8160	19.1300
 1.8200	19.1300
 1.8240	19.0600
 1.8280	18.8300
 1.8320	18.6500
 1.8360	18.5900
 1.8400	18.5200
 1.8440	18.3500
 1.8480	18.1200
 1.8520	17.8900
 1.8560	17.5400
 1.8600	17.2000
 1.8640	16.9700
 1.8680	16.5200
 1.8720	16.2300
 1.8760	15.7200
 1.8800	15.1600
 1.8840	14.7500
 1.8880	14.2400
 1.8920	13.5600
 1.8960	12.9900
 1.9000	12.1900
 1.9040	11.4500
 1.9080	10.4900
 1.9120	 9.7000
 1.9160	 9.0700
 1.9200	 8.1600
 1.9240	 7.4200
 1.9280	 6.8600
 1.9320	 6.1700
 1.9360	 5.9000
 1.9400	 5.6100
 1.9440	 5.5500
 1.9480	 5.5500
 1.9520	 5.5500
 1.9560	 5.7100
 1.9600	 5.8300
 1.9640	 6.0600
 1.9680	 6.3400
 1.9720	 6.3900
 1.9760	 6.5000
 1.9800	 6.7300
 1.9840	 6.7900
 1.9880	 6.8900
 1.9920	 6.8400
 1.9960	 6.7800
 2.0000	 6.7800
 2.0040	 6.6600
 2.0080	 6.5900
 2.0120	 6.4200
 2.0160	 6.3600
 2.0200	 6.2500
 2.0240	 6.0800
 2.0280	 5.8500
 2.0320	 5.8500
 2.0360	 5.7800
 2.0400	 5.6600
 2.0440	 5.7200
 2.0480	 5.8300
 2.0520	 5.7100
 2.0560	 5.6500
 2.0600	 5.7600
 2.0640	 5.9300
 2.0680	 5.9200
 2.0720	 6.0900
 2.0760	 6.2000
 2.0800	 6.3100
 2.0840	 6.4200
 2.0880	 6.4700
 2.0920	 6.6400
 2.0960	 6.7500
 2.1000	 6.8500
 2.1040	 7.0200
 2.1080	 7.0100
 2.1120	 7.0700
 2.1160	 7.2300
 2.1200	 7.2800
 2.1240	 7.3400
 2.1280	 7.3300
 2.1320	 7.4900
 2.1360	 7.4900
 2.1400	 7.4900
 2.1440	 7.5500
 2.1480	 7.5500
 2.1520	 7.6700
 2.1560	 7.6700
 2.1600	 7.6800
 2.1640	 7.6400
 2.1680	 7.6500
 2.1720	 7.6000
 2.1760	 7.5500
 2.1800	 7.5600
 2.1840	 7.6200
 2.1880	 7.5100
 2.1920	 7.4700
 2.1960	 7.4800
 2.2000	 7.5300
 2.2040	 7.3100
 2.2080	 7.3700
 2.2120	 7.3700
 2.2160	 7.2600
 2.2200	 7.3200
 2.2240	 7.3200
 2.2280	 7.3700
 2.2320	 7.2700
 2.2360	 7.3700
 2.2400	 7.4300
 2.2440	 7.4300
 2.2480	 7.4800
 2.2520	 7.4800
 2.2560	 7.4800
 2.2600	 7.3600
 2.2640	 7.4200
 2.2680	 7.3600
 2.2720	 7.1900
 2.2760	 7.2500
 2.2800	 7.2400
 2.2840	 6.9600
 2.2880	 7.0100
 2.2920	 6.9500
 2.2960	 6.8900
 2.3000	 6.7200
 2.3040	 6.5400
 2.3080	 6.5900
 2.3120	 6.3700
 2.3160	 6.2600
 2.3200	 6.2000
 2.3240	 5.9700
 2.3280	 5.9700
 2.3320	 5.6800
 2.3360	 5.7900
 2.3400	 5.7900
 2.3440	 5.5600
 2.3480	 5.4400
 2.3520	 5.3300
 2.3560	 5.2200
 2.3600	 5.0500
 2.3640	 4.9300
 2.3680	 4.8700
 2.3720	 4.7100
 2.3760	 4.7100
 2.3800	 4.6000
 2.3840	 4.4900
 2.3880	 4.2600
 2.3920	 4.2600
 2.3960	 4.1600
 2.4000	 4.2000
 2.4040	 4.2600
 2.4080	 4.1000
 2.4120	 4.0400
 2.4160	 4.0400
 2.4200	 4.1000
 2.4240	 4.1000
 2.4280	 4.1000
 2.4320	 4.1000
 2.4360	 4.1000
 2.4400	 4.0900
 2.4440	 4.0400
 2.4480	 4.0400
 2.4520	 4.0400
 2.4560	 4.0400
 2.4600	 3.9200
 2.4640	 4.0900
 2.4680	 3.9200
 2.4720	 3.8700
 2.4760	 3.9200
 2.4800	 3.9800
 2.4840	 3.8700
 2.4880	 3.8700
 2.4920	 3.8700
 2.4960	 3.8700
 2.5000	 3.7000
