Name: Howlite Ca_2B_5SiO_9(OH)_5
Type: Mineral
Class: Borate
Subclass: None
Particle Size: Medium
Sample No.: B-5A
Owner: JPL
Wavelength Range: VSWIR
Origin: USA, California, San Gabriel Mountains, Tick Canyon.
Collection Date: N/A
Description: Particle size was 45-125um.Collected by:  Burminco Original ASTER Spectral Library name was jpl.perkin.mineral.borate.none.medium.b05a.spectrum.txt
Measurement: Hemispherical reflectance
First Column: X
Second Column: Y
X Units: Wavelength (micrometers)
Y Units:Reflectance (percent)
First X Value:  2.5000
Last X Value:  0.4000
Number of X Values: 2101
Additional Information: mineral.borate.none.medium.vswir.b-5a.jpl.perkin.ancillary.txt

 2.5000	25.8624
 2.4990	24.9489
 2.4980	25.2209
 2.4970	24.7815
 2.4960	24.4687
 2.4950	24.4530
 2.4940	24.1725
 2.4930	23.7558
 2.4920	23.9187
 2.4910	23.5222
 2.4900	23.3241
 2.4890	22.8938
 2.4880	22.8083
 2.4870	22.4392
 2.4860	22.1811
 2.4850	21.8812
 2.4840	21.7863
 2.4830	21.2371
 2.4820	21.1671
 2.4810	20.7502
 2.4800	20.4684
 2.4790	20.0593
 2.4780	19.8970
 2.4770	19.3471
 2.4760	19.2673
 2.4750	18.8284
 2.4740	18.6797
 2.4730	18.1023
 2.4720	17.9439
 2.4710	17.5550
 2.4700	17.2774
 2.4690	16.9870
 2.4680	16.7113
 2.4670	16.4698
 2.4660	16.2451
 2.4650	15.9188
 2.4640	15.8932
 2.4630	15.5240
 2.4620	15.5490
 2.4610	15.2735
 2.4600	15.2002
 2.4590	15.0530
 2.4580	15.1672
 2.4570	15.1683
 2.4560	15.2607
 2.4550	15.1760
 2.4540	15.4415
 2.4530	15.4176
 2.4520	15.6453
 2.4510	15.7257
 2.4500	16.0023
 2.4490	16.0786
 2.4480	16.3595
 2.4470	16.4122
 2.4460	16.8200
 2.4450	16.8848
 2.4440	17.3244
 2.4430	17.3812
 2.4420	17.7363
 2.4410	17.7623
 2.4400	18.1360
 2.4390	18.2544
 2.4380	18.5248
 2.4370	18.7436
 2.4360	18.9246
 2.4350	19.0577
 2.4340	19.2704
 2.4330	19.3358
 2.4320	19.7001
 2.4310	19.8444
 2.4300	20.0750
 2.4290	20.2011
 2.4280	20.4831
 2.4270	20.7249
 2.4260	20.9934
 2.4250	21.1147
 2.4240	21.4242
 2.4230	21.6568
 2.4220	21.9826
 2.4210	22.2853
 2.4200	22.6522
 2.4190	23.0079
 2.4180	23.4670
 2.4170	23.6527
 2.4160	24.1144
 2.4150	24.4624
 2.4140	24.9795
 2.4130	25.3367
 2.4120	25.8557
 2.4110	26.2433
 2.4100	26.6721
 2.4090	27.0719
 2.4080	27.5534
 2.4070	27.9068
 2.4060	28.4728
 2.4050	28.9023
 2.4040	29.3509
 2.4030	29.7304
 2.4020	30.1635
 2.4010	30.5226
 2.4000	30.9813
 2.3990	31.4173
 2.3980	31.7708
 2.3970	32.1521
 2.3960	32.5903
 2.3950	32.9133
 2.3940	33.2586
 2.3930	33.5914
 2.3920	33.9577
 2.3910	34.3046
 2.3900	34.7018
 2.3890	35.0151
 2.3880	35.3572
 2.3870	35.6704
 2.3860	35.9705
 2.3850	36.3121
 2.3840	36.6380
 2.3830	36.8954
 2.3820	37.1812
 2.3810	37.4500
 2.3800	37.7423
 2.3790	38.0139
 2.3780	38.2123
 2.3770	38.4553
 2.3760	38.6873
 2.3750	38.8566
 2.3740	39.0777
 2.3730	39.2537
 2.3720	39.4022
 2.3710	39.5360
 2.3700	39.6996
 2.3690	39.7721
 2.3680	39.9269
 2.3670	40.0706
 2.3660	40.1858
 2.3650	40.2308
 2.3640	40.2790
 2.3630	40.3703
 2.3620	40.4215
 2.3610	40.4801
 2.3600	40.5306
 2.3590	40.6067
 2.3580	40.6944
 2.3570	40.7625
 2.3560	40.8516
 2.3550	40.8968
 2.3540	41.0043
 2.3530	41.0827
 2.3520	41.1556
 2.3510	41.3293
 2.3500	41.4752
 2.3490	41.5983
 2.3480	41.7064
 2.3470	41.8643
 2.3460	41.9867
 2.3450	42.1306
 2.3440	42.2767
 2.3430	42.3934
 2.3420	42.5296
 2.3410	42.6252
 2.3400	42.6759
 2.3390	42.7223
 2.3380	42.7000
 2.3370	42.7301
 2.3360	42.7935
 2.3350	42.7407
 2.3340	42.6002
 2.3330	42.5732
 2.3320	42.5353
 2.3310	42.4211
 2.3300	42.2646
 2.3290	42.1335
 2.3280	41.9778
 2.3270	41.8839
 2.3260	41.6761
 2.3250	41.4720
 2.3240	41.3136
 2.3230	41.1769
 2.3220	40.9753
 2.3210	40.8633
 2.3200	40.6925
 2.3190	40.5534
 2.3180	40.3742
 2.3170	40.2366
 2.3160	40.1351
 2.3150	40.0164
 2.3140	39.8052
 2.3130	39.6716
 2.3120	39.5052
 2.3110	39.4466
 2.3100	39.2930
 2.3090	39.1883
 2.3080	39.0054
 2.3070	38.9476
 2.3060	38.8293
 2.3050	38.7026
 2.3040	38.6382
 2.3030	38.5518
 2.3020	38.4482
 2.3010	38.4542
 2.3000	38.4168
 2.2990	38.3651
 2.2980	38.3372
 2.2970	38.3590
 2.2960	38.2858
 2.2950	38.3316
 2.2940	38.3230
 2.2930	38.4102
 2.2920	38.4005
 2.2910	38.4676
 2.2900	38.5426
 2.2890	38.5588
 2.2880	38.5888
 2.2870	38.6348
 2.2860	38.6918
 2.2850	38.7298
 2.2840	38.7689
 2.2830	38.7663
 2.2820	38.7775
 2.2810	38.7925
 2.2800	38.7407
 2.2790	38.7577
 2.2780	38.6514
 2.2770	38.6380
 2.2760	38.5460
 2.2750	38.4962
 2.2740	38.3360
 2.2730	38.2178
 2.2720	38.0236
 2.2710	37.9183
 2.2700	37.7218
 2.2690	37.6136
 2.2680	37.3370
 2.2670	37.1030
 2.2660	36.8226
 2.2650	36.6782
 2.2640	36.3835
 2.2630	36.1062
 2.2620	35.8587
 2.2610	35.5814
 2.2600	35.2855
 2.2590	35.0131
 2.2580	34.7086
 2.2570	34.5284
 2.2560	34.2426
 2.2550	33.9651
 2.2540	33.7346
 2.2530	33.5654
 2.2520	33.2994
 2.2510	33.0770
 2.2500	32.8608
 2.2490	32.8051
 2.2480	32.5527
 2.2470	32.4745
 2.2460	32.2914
 2.2450	32.3210
 2.2440	32.1748
 2.2430	32.1743
 2.2420	32.1429
 2.2410	32.1744
 2.2400	32.1075
 2.2390	32.1990
 2.2380	32.2134
 2.2370	32.3556
 2.2360	32.3018
 2.2350	32.5069
 2.2340	32.5353
 2.2330	32.7695
 2.2320	32.7827
 2.2310	33.0569
 2.2300	33.1391
 2.2290	33.3134
 2.2280	33.4568
 2.2270	33.5964
 2.2260	33.8151
 2.2250	33.9849
 2.2240	34.0810
 2.2230	34.2621
 2.2220	34.3492
 2.2210	34.6290
 2.2200	34.6068
 2.2190	34.8156
 2.2180	34.9409
 2.2170	35.0835
 2.2160	35.1546
 2.2150	35.3361
 2.2140	35.2933
 2.2130	35.4756
 2.2120	35.5228
 2.2110	35.5695
 2.2100	35.6926
 2.2090	35.7932
 2.2080	35.7722
 2.2070	35.8593
 2.2060	35.8483
 2.2050	35.9477
 2.2040	35.9816
 2.2030	36.0007
 2.2020	36.0023
 2.2010	36.0132
 2.2000	35.9440
 2.1990	35.9541
 2.1980	35.7261
 2.1970	35.6753
 2.1960	35.4590
 2.1950	35.4844
 2.1940	35.2749
 2.1930	35.1007
 2.1920	34.8510
 2.1910	34.7010
 2.1900	34.3225
 2.1890	34.1898
 2.1880	33.8632
 2.1870	33.7214
 2.1860	33.3764
 2.1850	33.0949
 2.1840	32.7622
 2.1830	32.6010
 2.1820	32.1980
 2.1810	32.0207
 2.1800	31.6809
 2.1790	31.4422
 2.1780	31.0472
 2.1770	30.8437
 2.1760	30.4597
 2.1750	30.2207
 2.1740	29.8156
 2.1730	29.5904
 2.1720	29.2252
 2.1710	28.9407
 2.1700	28.5482
 2.1690	28.3359
 2.1680	28.0291
 2.1670	27.8035
 2.1660	27.6309
 2.1650	27.4556
 2.1640	27.2784
 2.1630	27.2336
 2.1620	27.1119
 2.1610	27.1957
 2.1600	27.1670
 2.1590	27.2949
 2.1580	27.3345
 2.1570	27.5445
 2.1560	27.7050
 2.1550	27.9282
 2.1540	28.0702
 2.1530	28.3014
 2.1520	28.4346
 2.1510	28.6573
 2.1500	28.8949
 2.1490	29.1442
 2.1480	29.2360
 2.1470	29.4298
 2.1460	29.4589
 2.1450	29.5504
 2.1440	29.4848
 2.1430	29.5207
 2.1420	29.3873
 2.1410	29.2325
 2.1400	28.9842
 2.1390	28.8025
 2.1380	28.5346
 2.1370	28.3119
 2.1360	27.9049
 2.1350	27.6563
 2.1340	27.3400
 2.1330	27.1049
 2.1320	26.8801
 2.1310	26.7094
 2.1300	26.5291
 2.1290	26.5566
 2.1280	26.5327
 2.1270	26.6591
 2.1260	26.8499
 2.1250	27.1237
 2.1240	27.3947
 2.1230	27.7952
 2.1220	28.2043
 2.1210	28.6578
 2.1200	29.1305
 2.1190	29.6993
 2.1180	30.1753
 2.1170	30.6960
 2.1160	31.1807
 2.1150	31.6330
 2.1140	32.1387
 2.1130	32.6474
 2.1120	33.0496
 2.1110	33.4631
 2.1100	33.7531
 2.1090	34.1204
 2.1080	34.4071
 2.1070	34.7373
 2.1060	34.9998
 2.1050	35.3109
 2.1040	35.5425
 2.1030	35.7975
 2.1020	36.0287
 2.1010	36.3757
 2.1000	36.6572
 2.0990	37.0149
 2.0980	37.4080
 2.0970	37.8387
 2.0960	38.2290
 2.0950	38.7729
 2.0940	39.2918
 2.0930	39.7296
 2.0920	40.2980
 2.0910	40.8957
 2.0900	41.4745
 2.0890	42.0271
 2.0880	42.5712
 2.0870	43.1311
 2.0860	43.6781
 2.0850	44.2760
 2.0840	44.8661
 2.0830	45.4906
 2.0820	46.1390
 2.0810	46.7658
 2.0800	47.3672
 2.0790	48.0346
 2.0780	48.7620
 2.0770	49.4759
 2.0760	50.1541
 2.0750	50.7994
 2.0740	51.4463
 2.0730	52.1282
 2.0720	52.7909
 2.0710	53.4051
 2.0700	53.9919
 2.0690	54.5808
 2.0680	55.0823
 2.0670	55.5120
 2.0660	55.9388
 2.0650	56.3487
 2.0640	56.7536
 2.0630	57.1026
 2.0620	57.4436
 2.0610	57.7918
 2.0600	58.0719
 2.0590	58.3145
 2.0580	58.5887
 2.0570	58.8299
 2.0560	59.0407
 2.0550	59.2429
 2.0540	59.4570
 2.0530	59.5910
 2.0520	59.7228
 2.0510	59.9055
 2.0500	60.0301
 2.0490	60.1288
 2.0480	60.2384
 2.0470	60.2584
 2.0460	60.2926
 2.0450	60.3138
 2.0440	60.2972
 2.0430	60.2607
 2.0420	60.2481
 2.0410	60.1594
 2.0400	60.0648
 2.0390	59.9400
 2.0380	59.7872
 2.0370	59.6440
 2.0360	59.4671
 2.0350	59.2881
 2.0340	59.1292
 2.0330	58.9775
 2.0320	58.8715
 2.0310	58.8005
 2.0300	58.8183
 2.0290	58.8842
 2.0280	59.0310
 2.0270	59.2098
 2.0260	59.4679
 2.0250	59.7219
 2.0240	60.1053
 2.0230	60.4324
 2.0220	60.7286
 2.0210	60.9439
 2.0200	61.2101
 2.0190	61.4107
 2.0180	61.5533
 2.0170	61.6196
 2.0160	61.7334
 2.0150	61.7393
 2.0140	61.7717
 2.0130	61.7162
 2.0120	61.6976
 2.0110	61.7226
 2.0100	61.7642
 2.0090	61.7740
 2.0080	61.8818
 2.0070	61.9931
 2.0060	62.1422
 2.0050	62.3101
 2.0040	62.4215
 2.0030	62.5176
 2.0020	62.7050
 2.0010	62.8357
 2.0000	63.0051
 1.9990	63.0955
 1.9980	63.2076
 1.9970	63.3554
 1.9960	63.4801
 1.9950	63.5327
 1.9940	63.6455
 1.9930	63.8097
 1.9920	63.9545
 1.9910	64.0736
 1.9900	64.1854
 1.9890	64.3692
 1.9880	64.5411
 1.9870	64.5794
 1.9860	64.7110
 1.9850	64.7895
 1.9840	64.9762
 1.9830	65.0789
 1.9820	65.0972
 1.9810	65.1157
 1.9800	65.1833
 1.9790	65.3154
 1.9780	65.3990
 1.9770	65.3768
 1.9760	65.4153
 1.9750	65.4463
 1.9740	65.5671
 1.9730	65.5847
 1.9720	65.5839
 1.9710	65.6619
 1.9700	65.7062
 1.9690	65.7731
 1.9680	65.7899
 1.9670	65.7482
 1.9660	65.8774
 1.9650	65.8753
 1.9640	65.9552
 1.9630	65.9366
 1.9620	66.0732
 1.9610	66.0121
 1.9600	66.0927
 1.9590	66.1135
 1.9580	66.2096
 1.9570	66.2505
 1.9560	66.2648
 1.9550	66.3422
 1.9540	66.3282
 1.9530	66.3360
 1.9520	66.5170
 1.9510	66.5171
 1.9500	66.5447
 1.9490	66.5795
 1.9480	66.7258
 1.9470	66.6394
 1.9460	66.6645
 1.9450	66.6818
 1.9440	66.7973
 1.9430	66.8488
 1.9420	66.8857
 1.9410	66.7774
 1.9400	67.0128
 1.9390	66.9696
 1.9380	67.0440
 1.9370	67.0385
 1.9360	67.1443
 1.9350	67.0961
 1.9340	67.1821
 1.9330	67.1177
 1.9320	67.2265
 1.9310	67.2547
 1.9300	67.4049
 1.9290	67.3315
 1.9280	67.4147
 1.9270	67.5571
 1.9260	67.5042
 1.9250	67.4575
 1.9240	67.5897
 1.9230	67.6266
 1.9220	67.7418
 1.9210	67.8021
 1.9200	67.8675
 1.9190	67.9305
 1.9180	67.8989
 1.9170	67.9616
 1.9160	68.0668
 1.9150	68.1567
 1.9140	68.2265
 1.9130	68.2212
 1.9120	68.3075
 1.9110	68.2938
 1.9100	68.4695
 1.9090	68.4246
 1.9080	68.4955
 1.9070	68.5345
 1.9060	68.6539
 1.9050	68.6446
 1.9040	68.6796
 1.9030	68.7142
 1.9020	68.7523
 1.9010	68.8041
 1.9000	68.8902
 1.8990	68.8628
 1.8980	68.9314
 1.8970	68.9502
 1.8960	68.9696
 1.8950	69.0213
 1.8940	69.0562
 1.8930	69.0444
 1.8920	69.0935
 1.8910	69.1529
 1.8900	69.1844
 1.8890	69.1986
 1.8880	69.2563
 1.8870	69.3327
 1.8860	69.3952
 1.8850	69.3487
 1.8840	69.3840
 1.8830	69.4364
 1.8820	69.4750
 1.8810	69.5022
 1.8800	69.5547
 1.8790	69.5266
 1.8780	69.6497
 1.8770	69.6626
 1.8760	69.7049
 1.8750	69.7514
 1.8740	69.7530
 1.8730	69.8227
 1.8720	69.8294
 1.8710	69.8640
 1.8700	69.9461
 1.8690	69.9792
 1.8680	70.0464
 1.8670	70.0429
 1.8660	70.1547
 1.8650	70.1328
 1.8640	70.2148
 1.8630	70.1720
 1.8620	70.3020
 1.8610	70.2984
 1.8600	70.3280
 1.8590	70.3366
 1.8580	70.3553
 1.8570	70.3954
 1.8560	70.4364
 1.8550	70.4343
 1.8540	70.4590
 1.8530	70.4751
 1.8520	70.4703
 1.8510	70.4705
 1.8500	70.5221
 1.8490	70.5000
 1.8480	70.5137
 1.8470	70.5848
 1.8460	70.6087
 1.8450	70.5730
 1.8440	70.6417
 1.8430	70.6324
 1.8420	70.5671
 1.8410	70.6113
 1.8400	70.5691
 1.8390	70.5744
 1.8380	70.5794
 1.8370	70.5821
 1.8360	70.5779
 1.8350	70.5586
 1.8340	70.5825
 1.8330	70.5706
 1.8320	70.5290
 1.8310	70.5160
 1.8300	70.5668
 1.8290	70.5245
 1.8280	70.5240
 1.8270	70.5286
 1.8260	70.5699
 1.8250	70.5021
 1.8240	70.4993
 1.8230	70.4794
 1.8220	70.4668
 1.8210	70.5050
 1.8200	70.4986
 1.8190	70.4467
 1.8180	70.4017
 1.8170	70.4313
 1.8160	70.4470
 1.8150	70.4266
 1.8140	70.4149
 1.8130	70.3732
 1.8120	70.3852
 1.8110	70.3661
 1.8100	70.3639
 1.8090	70.3824
 1.8080	70.4151
 1.8070	70.4055
 1.8060	70.3739
 1.8050	70.3445
 1.8040	70.3568
 1.8030	70.3579
 1.8020	70.3528
 1.8010	70.3692
 1.8000	70.3630
 1.7990	70.3493
 1.7980	70.3629
 1.7970	70.3678
 1.7960	70.3640
 1.7950	70.3483
 1.7940	70.3098
 1.7930	70.2376
 1.7920	70.2584
 1.7910	70.2465
 1.7900	70.1407
 1.7890	70.1439
 1.7880	70.2210
 1.7870	70.2226
 1.7860	70.1546
 1.7850	70.1203
 1.7840	70.1207
 1.7830	70.0706
 1.7820	70.0263
 1.7810	70.0053
 1.7800	69.9563
 1.7790	69.8961
 1.7780	69.9081
 1.7770	69.8491
 1.7760	69.8326
 1.7750	69.8816
 1.7740	69.7994
 1.7730	69.7467
 1.7720	69.7373
 1.7710	69.7079
 1.7700	69.6840
 1.7690	69.6299
 1.7680	69.5894
 1.7670	69.6528
 1.7660	69.6301
 1.7650	69.5739
 1.7640	69.5761
 1.7630	69.5413
 1.7620	69.5130
 1.7610	69.4986
 1.7600	69.4984
 1.7590	69.4516
 1.7580	69.4066
 1.7570	69.3618
 1.7560	69.2833
 1.7550	69.3110
 1.7540	69.2710
 1.7530	69.2601
 1.7520	69.2823
 1.7510	69.2555
 1.7500	69.2034
 1.7490	69.1753
 1.7480	69.1228
 1.7470	69.0452
 1.7460	69.0338
 1.7450	68.9842
 1.7440	68.9468
 1.7430	68.9651
 1.7420	68.9016
 1.7410	68.8405
 1.7400	68.7572
 1.7390	68.7137
 1.7380	68.6353
 1.7370	68.6220
 1.7360	68.5351
 1.7350	68.5028
 1.7340	68.4842
 1.7330	68.3892
 1.7320	68.3111
 1.7310	68.3444
 1.7300	68.3097
 1.7290	68.2086
 1.7280	68.1687
 1.7270	68.1281
 1.7260	68.0313
 1.7250	67.8857
 1.7240	67.7917
 1.7230	67.7587
 1.7220	67.8126
 1.7210	67.7768
 1.7200	67.7229
 1.7190	67.6520
 1.7180	67.5574
 1.7170	67.5404
 1.7160	67.5689
 1.7150	67.5173
 1.7140	67.5069
 1.7130	67.4786
 1.7120	67.4271
 1.7110	67.3766
 1.7100	67.3211
 1.7090	67.4235
 1.7080	67.3045
 1.7070	67.3083
 1.7060	67.2618
 1.7050	67.2271
 1.7040	67.1635
 1.7030	67.1677
 1.7020	67.0622
 1.7010	67.0697
 1.7000	67.0046
 1.6990	67.0312
 1.6980	66.9635
 1.6970	66.9278
 1.6960	66.8223
 1.6950	66.8375
 1.6940	66.7583
 1.6930	66.7540
 1.6920	66.7174
 1.6910	66.6663
 1.6900	66.5681
 1.6890	66.5794
 1.6880	66.5084
 1.6870	66.5204
 1.6860	66.4515
 1.6850	66.4165
 1.6840	66.3555
 1.6830	66.3511
 1.6820	66.2526
 1.6810	66.2680
 1.6800	66.2013
 1.6790	66.2065
 1.6780	66.1006
 1.6770	66.0385
 1.6760	66.0292
 1.6750	65.9829
 1.6740	65.8916
 1.6730	65.8410
 1.6720	65.7987
 1.6710	65.7921
 1.6700	65.6936
 1.6690	65.6804
 1.6680	65.5974
 1.6670	65.6328
 1.6660	65.5275
 1.6650	65.4903
 1.6640	65.4839
 1.6630	65.4782
 1.6620	65.3770
 1.6610	65.3457
 1.6600	65.3058
 1.6590	65.2956
 1.6580	65.2653
 1.6570	65.2217
 1.6560	65.1687
 1.6550	65.1814
 1.6540	65.0904
 1.6530	65.1718
 1.6520	65.0831
 1.6510	65.1268
 1.6500	65.0158
 1.6490	64.9990
 1.6480	65.0394
 1.6470	65.0587
 1.6460	64.9723
 1.6450	65.0475
 1.6440	64.9755
 1.6430	65.0036
 1.6420	65.0589
 1.6410	64.9577
 1.6400	64.9848
 1.6390	64.9651
 1.6380	65.0295
 1.6370	64.9834
 1.6360	65.0050
 1.6350	64.9983
 1.6340	65.0487
 1.6330	65.0642
 1.6320	65.0646
 1.6310	65.1679
 1.6300	65.1290
 1.6290	65.2138
 1.6280	65.2291
 1.6270	65.2599
 1.6260	65.2329
 1.6250	65.3336
 1.6240	65.3488
 1.6230	65.3846
 1.6220	65.4573
 1.6210	65.4922
 1.6200	65.5788
 1.6190	65.6366
 1.6180	65.6653
 1.6170	65.7256
 1.6160	65.7854
 1.6150	65.8753
 1.6140	65.8854
 1.6130	65.9907
 1.6120	65.9933
 1.6110	66.0654
 1.6100	66.0955
 1.6090	66.2003
 1.6080	66.1999
 1.6070	66.3093
 1.6060	66.4002
 1.6050	66.4965
 1.6040	66.5411
 1.6030	66.5493
 1.6020	66.6472
 1.6010	66.7853
 1.6000	66.8809
 1.5990	66.9253
 1.5980	66.9956
 1.5970	67.1303
 1.5960	67.1648
 1.5950	67.3111
 1.5940	67.3523
 1.5930	67.5319
 1.5920	67.6238
 1.5910	67.7081
 1.5900	67.8335
 1.5890	67.9436
 1.5880	68.0873
 1.5870	68.1569
 1.5860	68.1778
 1.5850	68.3524
 1.5840	68.4514
 1.5830	68.6035
 1.5820	68.7086
 1.5810	68.8263
 1.5800	68.9031
 1.5790	68.9520
 1.5780	69.0630
 1.5770	69.2485
 1.5760	69.2697
 1.5750	69.3368
 1.5740	69.4364
 1.5730	69.4896
 1.5720	69.5495
 1.5710	69.7567
 1.5700	69.7943
 1.5690	69.8501
 1.5680	69.9029
 1.5670	70.0309
 1.5660	70.0529
 1.5650	70.1762
 1.5640	70.1992
 1.5630	70.2166
 1.5620	70.3029
 1.5610	70.3954
 1.5600	70.4389
 1.5590	70.4504
 1.5580	70.4092
 1.5570	70.4388
 1.5560	70.4953
 1.5550	70.4874
 1.5540	70.4947
 1.5530	70.5279
 1.5520	70.4949
 1.5510	70.4879
 1.5500	70.5649
 1.5490	70.5191
 1.5480	70.4809
 1.5470	70.4439
 1.5460	70.4302
 1.5450	70.3755
 1.5440	70.2516
 1.5430	70.1973
 1.5420	70.1049
 1.5410	70.0184
 1.5400	69.8629
 1.5390	69.6986
 1.5380	69.6035
 1.5370	69.4417
 1.5360	69.1657
 1.5350	68.9660
 1.5340	68.6141
 1.5330	68.3368
 1.5320	67.9948
 1.5310	67.6125
 1.5300	67.2452
 1.5290	66.8811
 1.5280	66.4062
 1.5270	66.0343
 1.5260	65.6766
 1.5250	65.2967
 1.5240	64.9760
 1.5230	64.7440
 1.5220	64.4900
 1.5210	64.3798
 1.5200	64.3159
 1.5190	64.3449
 1.5180	64.4222
 1.5170	64.5054
 1.5160	64.6163
 1.5150	64.7152
 1.5140	64.8583
 1.5130	65.0150
 1.5120	65.1611
 1.5110	65.3138
 1.5100	65.4396
 1.5090	65.5595
 1.5080	65.6400
 1.5070	65.7226
 1.5060	65.8029
 1.5050	65.8789
 1.5040	65.9236
 1.5030	65.9846
 1.5020	65.9898
 1.5010	66.0242
 1.5000	66.0787
 1.4990	66.0700
 1.4980	66.1381
 1.4970	66.2379
 1.4960	66.3292
 1.4950	66.4269
 1.4940	66.5427
 1.4930	66.6032
 1.4920	66.6405
 1.4910	66.6578
 1.4900	66.6411
 1.4890	66.6307
 1.4880	66.6169
 1.4870	66.4944
 1.4860	66.3383
 1.4850	66.2592
 1.4840	66.1175
 1.4830	65.9516
 1.4820	65.8157
 1.4810	65.6209
 1.4800	65.4667
 1.4790	65.2887
 1.4780	65.0738
 1.4770	64.9083
 1.4760	64.7574
 1.4750	64.6347
 1.4740	64.6392
 1.4730	64.6083
 1.4720	64.6235
 1.4710	64.6934
 1.4700	64.8388
 1.4690	64.9797
 1.4680	65.0765
 1.4670	65.1480
 1.4660	65.2028
 1.4650	65.2433
 1.4640	65.2406
 1.4630	65.2138
 1.4620	65.2101
 1.4610	65.1699
 1.4600	65.1095
 1.4590	65.0189
 1.4580	64.9854
 1.4570	64.8468
 1.4560	64.6996
 1.4550	64.4208
 1.4540	64.0035
 1.4530	63.2948
 1.4520	62.1719
 1.4510	60.5009
 1.4500	58.3821
 1.4490	55.9527
 1.4480	53.4989
 1.4470	51.4716
 1.4460	50.1895
 1.4450	49.6720
 1.4440	50.0878
 1.4430	51.0846
 1.4420	52.5176
 1.4410	54.0330
 1.4400	55.6003
 1.4390	56.9746
 1.4380	58.1672
 1.4370	58.8277
 1.4360	58.9374
 1.4350	58.0561
 1.4340	56.5753
 1.4330	55.0617
 1.4320	54.5442
 1.4310	55.4323
 1.4300	57.4053
 1.4290	59.5450
 1.4280	61.3713
 1.4270	62.5123
 1.4260	63.4178
 1.4250	63.9762
 1.4240	64.5696
 1.4230	65.0235
 1.4220	65.4248
 1.4210	65.6697
 1.4200	66.0044
 1.4190	66.1759
 1.4180	66.2199
 1.4170	66.2496
 1.4160	66.3350
 1.4150	65.9102
 1.4140	66.5294
 1.4130	66.7644
 1.4120	67.0155
 1.4110	67.1966
 1.4100	67.4399
 1.4090	67.6731
 1.4080	67.9914
 1.4070	68.2308
 1.4060	68.5387
 1.4050	68.8856
 1.4040	69.2835
 1.4030	69.5225
 1.4020	69.9602
 1.4010	70.4190
 1.4000	70.7565
 1.3990	71.1562
 1.3980	71.6326
 1.3970	72.1271
 1.3960	72.6028
 1.3950	73.0880
 1.3940	73.5082
 1.3930	73.9855
 1.3920	74.3597
 1.3910	74.6935
 1.3900	75.0821
 1.3890	75.4012
 1.3880	75.6921
 1.3870	75.9732
 1.3860	76.2896
 1.3850	76.4939
 1.3840	76.7489
 1.3830	76.9884
 1.3820	77.1721
 1.3810	77.4063
 1.3800	77.6094
 1.3790	77.7781
 1.3780	77.9492
 1.3770	78.1681
 1.3760	78.2446
 1.3750	78.3933
 1.3740	78.5176
 1.3730	78.6075
 1.3720	78.8345
 1.3710	78.9634
 1.3700	79.0289
 1.3690	79.2138
 1.3680	79.3295
 1.3670	79.3546
 1.3660	79.4348
 1.3650	79.4517
 1.3640	79.4291
 1.3630	79.5147
 1.3620	79.4827
 1.3610	79.3738
 1.3600	79.4318
 1.3590	79.3549
 1.3580	79.3463
 1.3570	79.3228
 1.3560	79.2605
 1.3550	79.0277
 1.3540	78.8045
 1.3530	78.6243
 1.3520	78.5908
 1.3510	78.4633
 1.3500	78.2707
 1.3490	78.2275
 1.3480	78.1935
 1.3470	78.2325
 1.3460	78.2430
 1.3450	78.2285
 1.3440	78.3056
 1.3430	78.1835
 1.3420	78.2645
 1.3410	78.1656
 1.3400	78.0004
 1.3390	77.8196
 1.3380	77.7033
 1.3370	77.4692
 1.3360	77.5418
 1.3350	77.7545
 1.3340	78.2593
 1.3330	78.6553
 1.3320	79.2246
 1.3310	79.5951
 1.3300	80.0678
 1.3290	80.3228
 1.3280	80.6705
 1.3270	80.8054
 1.3260	80.9023
 1.3250	81.0948
 1.3240	81.2591
 1.3230	81.4306
 1.3220	81.5534
 1.3210	81.6605
 1.3200	81.6563
 1.3190	81.8063
 1.3180	81.8175
 1.3170	81.9699
 1.3160	82.0162
 1.3150	82.1389
 1.3140	82.2658
 1.3130	82.2582
 1.3120	82.3777
 1.3110	82.4386
 1.3100	82.6028
 1.3090	82.6022
 1.3080	82.6900
 1.3070	82.6656
 1.3060	82.7094
 1.3050	82.7642
 1.3040	82.8559
 1.3030	82.8256
 1.3020	82.8071
 1.3010	82.8510
 1.3000	82.9095
 1.2990	82.9896
 1.2980	83.0345
 1.2970	83.0391
 1.2960	83.0662
 1.2950	83.0536
 1.2940	83.0591
 1.2930	83.0998
 1.2920	83.0842
 1.2910	83.0507
 1.2900	83.0336
 1.2890	83.0707
 1.2880	83.0485
 1.2870	83.0501
 1.2860	83.0171
 1.2850	82.9839
 1.2840	82.9575
 1.2830	82.9434
 1.2820	82.9039
 1.2810	82.9142
 1.2800	82.8782
 1.2790	82.9278
 1.2780	82.8928
 1.2770	82.8009
 1.2760	82.8556
 1.2750	82.9206
 1.2740	82.9720
 1.2730	82.9549
 1.2720	82.9286
 1.2710	82.8755
 1.2700	82.8395
 1.2690	82.8426
 1.2680	82.8288
 1.2670	82.7602
 1.2660	82.7211
 1.2650	82.6846
 1.2640	82.6609
 1.2630	82.6276
 1.2620	82.6173
 1.2610	82.6149
 1.2600	82.5762
 1.2590	82.6119
 1.2580	82.5965
 1.2570	82.5600
 1.2560	82.5320
 1.2550	82.5249
 1.2540	82.4539
 1.2530	82.4327
 1.2520	82.4811
 1.2510	82.4776
 1.2500	82.4871
 1.2490	82.4577
 1.2480	82.4460
 1.2470	82.4685
 1.2460	82.5224
 1.2450	82.5163
 1.2440	82.4475
 1.2430	82.4697
 1.2420	82.4466
 1.2410	82.4597
 1.2400	82.4848
 1.2390	82.4878
 1.2380	82.4853
 1.2370	82.5119
 1.2360	82.5558
 1.2350	82.6014
 1.2340	82.6811
 1.2330	82.6820
 1.2320	82.6951
 1.2310	82.8065
 1.2300	82.9011
 1.2290	82.9822
 1.2280	83.0640
 1.2270	83.1282
 1.2260	83.2179
 1.2250	83.2885
 1.2240	83.3765
 1.2230	83.4048
 1.2220	83.4423
 1.2210	83.4701
 1.2200	83.5320
 1.2190	83.5995
 1.2180	83.6466
 1.2170	83.7299
 1.2160	83.7288
 1.2150	83.7441
 1.2140	83.8006
 1.2130	83.8084
 1.2120	83.8240
 1.2110	83.8633
 1.2100	83.9224
 1.2090	83.9329
 1.2080	83.9372
 1.2070	83.9587
 1.2060	83.9768
 1.2050	84.0016
 1.2040	84.0289
 1.2030	83.9973
 1.2020	84.0211
 1.2010	84.0916
 1.2000	84.1317
 1.1990	84.1217
 1.1980	84.0961
 1.1970	84.0903
 1.1960	84.1257
 1.1950	84.1661
 1.1940	84.1799
 1.1930	84.1779
 1.1920	84.1586
 1.1910	84.1871
 1.1900	84.2377
 1.1890	84.3029
 1.1880	84.2789
 1.1870	84.2807
 1.1860	84.3025
 1.1850	84.3401
 1.1840	84.2998
 1.1830	84.2835
 1.1820	84.2925
 1.1810	84.2936
 1.1800	84.2608
 1.1790	84.2774
 1.1780	84.3248
 1.1770	84.4308
 1.1760	84.3609
 1.1750	84.3717
 1.1740	84.3570
 1.1730	84.3745
 1.1720	84.3425
 1.1710	84.3786
 1.1700	84.3831
 1.1690	84.3533
 1.1680	84.4005
 1.1670	84.4343
 1.1660	84.4555
 1.1650	84.4266
 1.1640	84.3829
 1.1630	84.4072
 1.1620	84.3837
 1.1610	84.4315
 1.1600	84.4354
 1.1590	84.4975
 1.1580	84.4504
 1.1570	84.4531
 1.1560	84.4879
 1.1550	84.4537
 1.1540	84.4412
 1.1530	84.4097
 1.1520	84.4333
 1.1510	84.5418
 1.1500	84.5499
 1.1490	84.5477
 1.1480	84.5033
 1.1470	84.4814
 1.1460	84.4490
 1.1450	84.5194
 1.1440	84.5522
 1.1430	84.5114
 1.1420	84.5595
 1.1410	84.5102
 1.1400	84.5142
 1.1390	84.5984
 1.1380	84.5438
 1.1370	84.5198
 1.1360	84.5650
 1.1350	84.5071
 1.1340	84.5350
 1.1330	84.4965
 1.1320	84.5437
 1.1310	84.5683
 1.1300	84.5479
 1.1290	84.5255
 1.1280	84.4885
 1.1270	84.5547
 1.1260	84.5795
 1.1250	84.5317
 1.1240	84.5717
 1.1230	84.5742
 1.1220	84.5131
 1.1210	84.4995
 1.1200	84.4877
 1.1190	84.4929
 1.1180	84.5211
 1.1170	84.5451
 1.1160	84.5441
 1.1150	84.6159
 1.1140	84.5550
 1.1130	84.5421
 1.1120	84.5251
 1.1110	84.5130
 1.1100	84.5233
 1.1090	84.5448
 1.1080	84.5431
 1.1070	84.5168
 1.1060	84.5398
 1.1050	84.5236
 1.1040	84.5317
 1.1030	84.5201
 1.1020	84.4726
 1.1010	84.5279
 1.1000	84.5087
 1.0990	84.5333
 1.0980	84.5826
 1.0970	84.5911
 1.0960	84.6275
 1.0950	84.5512
 1.0940	84.4583
 1.0930	84.5600
 1.0920	84.5915
 1.0910	84.4832
 1.0900	84.6325
 1.0890	84.6036
 1.0880	84.5213
 1.0870	84.6027
 1.0860	84.5291
 1.0850	84.5621
 1.0840	84.5087
 1.0830	84.5929
 1.0820	84.6091
 1.0810	84.6616
 1.0800	84.5840
 1.0790	84.5955
 1.0780	84.4815
 1.0770	84.6032
 1.0760	84.7277
 1.0750	84.6001
 1.0740	84.5833
 1.0730	84.7175
 1.0720	84.6420
 1.0710	84.6590
 1.0700	84.6383
 1.0690	84.6622
 1.0680	84.6369
 1.0670	84.6348
 1.0660	84.6301
 1.0650	84.5783
 1.0640	84.6600
 1.0630	84.6690
 1.0620	84.6094
 1.0610	84.6419
 1.0600	84.5960
 1.0590	84.6659
 1.0580	84.6375
 1.0570	84.7076
 1.0560	84.6233
 1.0550	84.6163
 1.0540	84.6437
 1.0530	84.6751
 1.0520	84.7059
 1.0510	84.5173
 1.0500	84.6886
 1.0490	84.6069
 1.0480	84.4897
 1.0470	84.5811
 1.0460	84.6228
 1.0450	84.6474
 1.0440	84.5391
 1.0430	84.6441
 1.0420	84.5675
 1.0410	84.5943
 1.0400	84.4892
 1.0390	84.5912
 1.0380	84.5618
 1.0370	84.5312
 1.0360	84.5251
 1.0350	84.5491
 1.0340	84.5611
 1.0330	84.5314
 1.0320	84.5248
 1.0310	84.5670
 1.0300	84.5277
 1.0290	84.4839
 1.0280	84.5942
 1.0270	84.4953
 1.0260	84.4976
 1.0250	84.5931
 1.0240	84.5618
 1.0230	84.6022
 1.0220	84.5083
 1.0210	84.4628
 1.0200	84.5671
 1.0190	84.5716
 1.0180	84.4805
 1.0170	84.4430
 1.0160	84.4293
 1.0150	84.4229
 1.0140	84.4758
 1.0130	84.4729
 1.0120	84.4344
 1.0110	84.4493
 1.0100	84.3803
 1.0090	84.4402
 1.0080	84.3601
 1.0070	84.3006
 1.0060	84.2596
 1.0050	84.3538
 1.0040	84.2640
 1.0030	84.2019
 1.0020	84.1909
 1.0010	84.1241
 1.0000	84.0345
 0.9990	84.0414
 0.9980	83.9782
 0.9970	83.8289
 0.9960	83.6658
 0.9950	83.6213
 0.9940	83.5438
 0.9930	83.4535
 0.9920	83.3310
 0.9910	83.2629
 0.9900	83.1502
 0.9890	83.1876
 0.9880	83.2032
 0.9870	83.1171
 0.9860	83.0661
 0.9850	83.0348
 0.9840	83.0396
 0.9830	83.1410
 0.9820	83.1213
 0.9810	83.1147
 0.9800	83.1403
 0.9790	83.1829
 0.9780	83.1681
 0.9770	83.2394
 0.9760	83.3879
 0.9750	83.4951
 0.9740	83.5493
 0.9730	83.6691
 0.9720	83.7471
 0.9710	83.7608
 0.9700	83.8169
 0.9690	83.9135
 0.9680	83.9380
 0.9670	83.9372
 0.9660	83.9685
 0.9650	83.9935
 0.9640	84.0455
 0.9630	84.0212
 0.9620	84.0172
 0.9610	84.0140
 0.9600	84.0708
 0.9590	84.0388
 0.9580	83.9721
 0.9570	84.0115
 0.9560	84.0551
 0.9550	84.1639
 0.9540	84.2072
 0.9530	84.2639
 0.9520	84.3329
 0.9510	84.3456
 0.9500	84.4206
 0.9490	84.4322
 0.9480	84.3956
 0.9470	84.5060
 0.9460	84.5544
 0.9450	84.5080
 0.9440	84.4878
 0.9430	84.4566
 0.9420	84.4575
 0.9410	84.4915
 0.9400	84.5595
 0.9390	84.6102
 0.9380	84.5971
 0.9370	84.5888
 0.9360	84.5841
 0.9350	84.5839
 0.9340	84.6535
 0.9330	84.6762
 0.9320	84.6759
 0.9310	84.7047
 0.9300	84.7290
 0.9290	84.7451
 0.9280	84.6914
 0.9270	84.6625
 0.9260	84.7326
 0.9250	84.8271
 0.9240	84.8641
 0.9230	84.8117
 0.9220	84.8217
 0.9210	84.8427
 0.9200	84.8203
 0.9190	84.8058
 0.9180	84.8086
 0.9170	84.7717
 0.9160	84.8298
 0.9150	84.8897
 0.9140	84.8854
 0.9130	84.8904
 0.9120	84.8753
 0.9110	84.9293
 0.9100	84.9361
 0.9090	84.8433
 0.9080	84.8704
 0.9070	84.9607
 0.9060	84.8854
 0.9050	84.8818
 0.9040	84.9014
 0.9030	84.8631
 0.9020	84.8518
 0.9010	84.8439
 0.9000	84.9026
 0.8990	84.8946
 0.8980	84.9024
 0.8970	84.8101
 0.8960	84.8732
 0.8950	84.8883
 0.8940	84.8729
 0.8930	84.8659
 0.8920	84.8321
 0.8910	84.8615
 0.8900	84.9410
 0.8890	84.8950
 0.8880	84.9223
 0.8870	84.9358
 0.8860	84.9485
 0.8850	84.8706
 0.8840	84.8430
 0.8830	84.9150
 0.8820	84.9238
 0.8810	84.9278
 0.8800	84.8807
 0.8790	84.9086
 0.8780	84.9619
 0.8770	84.9864
 0.8760	84.9130
 0.8750	84.8818
 0.8740	84.8955
 0.8730	84.9368
 0.8720	84.9292
 0.8710	84.9266
 0.8700	84.9441
 0.8690	84.9218
 0.8680	84.9476
 0.8670	84.9325
 0.8660	84.9427
 0.8650	84.9532
 0.8640	84.9530
 0.8630	84.9764
 0.8620	85.0184
 0.8610	84.9452
 0.8600	85.2578
 0.8590	85.0095
 0.8580	85.0311
 0.8570	85.1929
 0.8560	85.0363
 0.8550	85.1522
 0.8540	85.2550
 0.8530	85.0783
 0.8520	85.0201
 0.8510	85.1646
 0.8500	85.1598
 0.8490	85.1075
 0.8480	85.2291
 0.8470	85.2523
 0.8460	85.1403
 0.8450	85.1763
 0.8440	85.1995
 0.8430	85.1460
 0.8420	85.2644
 0.8410	85.2392
 0.8400	85.1590
 0.8390	85.2210
 0.8380	85.2050
 0.8370	85.1271
 0.8360	85.2160
 0.8350	85.2605
 0.8340	85.1070
 0.8330	85.1872
 0.8320	85.2666
 0.8310	85.2453
 0.8300	85.2123
 0.8290	85.1803
 0.8280	85.1974
 0.8270	85.1895
 0.8260	85.2648
 0.8250	85.2208
 0.8240	85.2318
 0.8230	85.2648
 0.8220	85.2711
 0.8210	85.2668
 0.8200	85.2955
 0.8190	85.3184
 0.8180	85.2964
 0.8170	85.3591
 0.8160	85.3153
 0.8150	85.2050
 0.8140	85.2198
 0.8130	85.1931
 0.8120	85.1901
 0.8110	85.2929
 0.8100	85.3443
 0.8090	85.2467
 0.8080	85.2963
 0.8070	85.3345
 0.8060	85.2688
 0.8050	85.2356
 0.8040	85.2547
 0.8030	85.3082
 0.8020	85.3381
 0.8010	85.3263
 0.8000	85.2828
 0.7990	85.3281
 0.7980	85.3403
 0.7970	85.1678
 0.7960	85.1957
 0.7950	85.2867
 0.7940	85.2153
 0.7930	85.2668
 0.7920	85.2770
 0.7910	85.1980
 0.7900	85.2654
 0.7890	85.2727
 0.7880	85.2554
 0.7870	85.2357
 0.7860	85.2479
 0.7850	85.2004
 0.7840	85.2949
 0.7830	85.2488
 0.7820	85.2551
 0.7810	85.2248
 0.7800	85.2397
 0.7790	85.2170
 0.7780	85.2849
 0.7770	85.2455
 0.7760	85.2287
 0.7750	85.2563
 0.7740	85.2196
 0.7730	85.1311
 0.7720	85.1868
 0.7710	85.2116
 0.7700	85.2020
 0.7690	85.1619
 0.7680	85.1783
 0.7670	85.1821
 0.7660	85.2551
 0.7650	85.2082
 0.7640	85.1800
 0.7630	85.1888
 0.7620	85.1230
 0.7610	85.0887
 0.7600	85.1167
 0.7590	85.0570
 0.7580	85.0982
 0.7570	85.1369
 0.7560	85.0908
 0.7550	85.1330
 0.7540	85.1807
 0.7530	85.1396
 0.7520	85.1668
 0.7510	85.2280
 0.7500	85.2506
 0.7490	85.2595
 0.7480	85.2890
 0.7470	85.2366
 0.7460	85.1785
 0.7450	85.1770
 0.7440	85.1963
 0.7430	85.2835
 0.7420	85.3022
 0.7410	85.3228
 0.7400	85.2386
 0.7390	85.1994
 0.7380	85.2458
 0.7370	85.2814
 0.7360	85.3422
 0.7350	85.3462
 0.7340	85.2506
 0.7330	85.2233
 0.7320	85.3198
 0.7310	85.3076
 0.7300	85.2407
 0.7290	85.2904
 0.7280	85.3302
 0.7270	85.2739
 0.7260	85.3103
 0.7250	85.2831
 0.7240	85.3085
 0.7230	85.3199
 0.7220	85.2678
 0.7210	85.3260
 0.7200	85.3057
 0.7190	85.3213
 0.7180	85.3258
 0.7170	85.2910
 0.7160	85.3357
 0.7150	85.3291
 0.7140	85.3183
 0.7130	85.3526
 0.7120	85.3233
 0.7110	85.3193
 0.7100	85.3748
 0.7090	85.3275
 0.7080	85.3206
 0.7070	85.3456
 0.7060	85.3765
 0.7050	85.3281
 0.7040	85.2839
 0.7030	85.3039
 0.7020	85.3500
 0.7010	85.3846
 0.7000	85.3291
 0.6990	85.3044
 0.6980	85.3639
 0.6970	85.3755
 0.6960	85.3975
 0.6950	85.4013
 0.6940	85.3961
 0.6930	85.3420
 0.6920	85.2954
 0.6910	85.2840
 0.6900	85.3501
 0.6890	85.4046
 0.6880	85.3561
 0.6870	85.2914
 0.6860	85.3184
 0.6850	85.3820
 0.6840	85.3959
 0.6830	85.3699
 0.6820	85.3355
 0.6810	85.3682
 0.6800	85.3862
 0.6790	85.3391
 0.6780	85.3343
 0.6770	85.3669
 0.6760	85.3460
 0.6750	85.3657
 0.6740	85.3880
 0.6730	85.3522
 0.6720	85.3861
 0.6710	85.3959
 0.6700	85.3735
 0.6690	85.3680
 0.6680	85.3658
 0.6670	85.3767
 0.6660	85.3864
 0.6650	85.3601
 0.6640	85.3588
 0.6630	85.3502
 0.6620	85.3620
 0.6610	85.3574
 0.6600	85.3499
 0.6590	85.3663
 0.6580	85.3728
 0.6570	85.3703
 0.6560	85.3668
 0.6550	85.3759
 0.6540	85.3847
 0.6530	85.3682
 0.6520	85.3603
 0.6510	85.3700
 0.6500	85.3663
 0.6490	85.3731
 0.6480	85.3642
 0.6470	85.3476
 0.6460	85.3573
 0.6450	85.3732
 0.6440	85.3763
 0.6430	85.3685
 0.6420	85.3684
 0.6410	85.3659
 0.6400	85.3640
 0.6390	85.3638
 0.6380	85.3526
 0.6370	85.3473
 0.6360	85.3481
 0.6350	85.3517
 0.6340	85.3424
 0.6330	85.3302
 0.6320	85.3347
 0.6310	85.3413
 0.6300	85.3497
 0.6290	85.3421
 0.6280	85.3264
 0.6270	85.3399
 0.6260	85.3520
 0.6250	85.3374
 0.6240	85.3302
 0.6230	85.3245
 0.6220	85.3056
 0.6210	85.3015
 0.6200	85.3221
 0.6190	85.3252
 0.6180	85.3116
 0.6170	85.3084
 0.6160	85.3146
 0.6150	85.3234
 0.6140	85.3047
 0.6130	85.3120
 0.6120	85.3162
 0.6110	85.3014
 0.6100	85.2869
 0.6090	85.2781
 0.6080	85.2838
 0.6070	85.2939
 0.6060	85.2987
 0.6050	85.2757
 0.6040	85.2659
 0.6030	85.2674
 0.6020	85.2758
 0.6010	85.2603
 0.6000	85.2443
 0.5990	85.2744
 0.5980	85.2978
 0.5970	85.3084
 0.5960	85.3064
 0.5950	85.3277
 0.5940	85.3319
 0.5930	85.3286
 0.5920	85.3115
 0.5910	85.3096
 0.5900	85.3104
 0.5890	85.2988
 0.5880	85.3012
 0.5870	85.2796
 0.5860	85.2632
 0.5850	85.2861
 0.5840	85.2678
 0.5830	85.2612
 0.5820	85.2464
 0.5810	85.2320
 0.5800	85.2384
 0.5790	85.2494
 0.5780	85.2367
 0.5770	85.2150
 0.5760	85.2089
 0.5750	85.2003
 0.5740	85.2017
 0.5730	85.1899
 0.5720	85.1718
 0.5710	85.1750
 0.5700	85.1623
 0.5690	85.1573
 0.5680	85.1604
 0.5670	85.1274
 0.5660	85.1178
 0.5650	85.0981
 0.5640	85.1038
 0.5630	85.0959
 0.5620	85.0786
 0.5610	85.0767
 0.5600	85.0424
 0.5590	85.0347
 0.5580	85.0319
 0.5570	85.0187
 0.5560	84.9780
 0.5550	84.9784
 0.5540	84.9671
 0.5530	84.9652
 0.5520	84.9363
 0.5510	84.9284
 0.5500	84.9275
 0.5490	84.9056
 0.5480	84.8918
 0.5470	84.8650
 0.5460	84.8526
 0.5450	84.8524
 0.5440	84.8218
 0.5430	84.8008
 0.5420	84.7716
 0.5410	84.7649
 0.5400	84.7645
 0.5390	84.7438
 0.5380	84.7236
 0.5370	84.6757
 0.5360	84.6804
 0.5350	84.6678
 0.5340	84.6228
 0.5330	84.6018
 0.5320	84.5930
 0.5310	84.5563
 0.5300	84.5452
 0.5290	84.5244
 0.5280	84.4847
 0.5270	84.4783
 0.5260	84.4441
 0.5250	84.4316
 0.5240	84.3792
 0.5230	84.3495
 0.5220	84.3472
 0.5210	84.3441
 0.5200	84.3062
 0.5190	84.2504
 0.5180	84.2116
 0.5170	84.2080
 0.5160	84.1737
 0.5150	84.1649
 0.5140	84.1037
 0.5130	84.0704
 0.5120	84.0428
 0.5110	84.0014
 0.5100	83.9547
 0.5090	83.9468
 0.5080	83.9050
 0.5070	83.8990
 0.5060	83.8245
 0.5050	83.7801
 0.5040	83.7459
 0.5030	83.7213
 0.5020	83.6510
 0.5010	83.6260
 0.5000	83.6007
 0.4990	83.5256
 0.4980	83.4962
 0.4970	83.4515
 0.4960	83.3843
 0.4950	83.3811
 0.4940	83.3070
 0.4930	83.2553
 0.4920	83.2107
 0.4910	83.1405
 0.4900	83.1090
 0.4890	83.0549
 0.4880	83.0031
 0.4870	82.9405
 0.4860	82.9247
 0.4850	82.8566
 0.4840	82.7942
 0.4830	82.7464
 0.4820	82.7031
 0.4810	82.6509
 0.4800	82.5909
 0.4790	82.5649
 0.4780	82.5208
 0.4770	82.4577
 0.4760	82.4202
 0.4750	82.3855
 0.4740	82.3157
 0.4730	82.2739
 0.4720	82.2270
 0.4710	82.1745
 0.4700	82.1321
 0.4690	82.0781
 0.4680	82.0432
 0.4670	81.9986
 0.4660	81.9362
 0.4650	81.8765
 0.4640	81.8391
 0.4630	81.7866
 0.4620	81.7335
 0.4610	81.6845
 0.4600	81.6346
 0.4590	81.5678
 0.4580	81.5372
 0.4570	81.4845
 0.4560	81.4233
 0.4550	81.3978
 0.4540	81.3299
 0.4530	81.2764
 0.4520	81.2422
 0.4510	81.1654
 0.4500	81.1412
 0.4490	81.0777
 0.4480	81.0315
 0.4470	80.9787
 0.4460	80.9266
 0.4450	80.8838
 0.4440	80.8522
 0.4430	80.7894
 0.4420	80.7295
 0.4410	80.6756
 0.4400	80.6289
 0.4390	80.5710
 0.4380	80.5387
 0.4370	80.4722
 0.4360	80.4367
 0.4350	80.4144
 0.4340	80.3386
 0.4330	80.2841
 0.4320	80.2405
 0.4310	80.2111
 0.4300	80.1487
 0.4290	80.0969
 0.4280	80.0373
 0.4270	79.9919
 0.4260	79.9468
 0.4250	79.8783
 0.4240	79.8278
 0.4230	79.7724
 0.4220	79.7089
 0.4210	79.6603
 0.4200	79.6179
 0.4190	79.5660
 0.4180	79.5295
 0.4170	79.4437
 0.4160	79.3765
 0.4150	79.3437
 0.4140	79.2940
 0.4130	79.2334
 0.4120	79.1683
 0.4110	79.1184
 0.4100	79.0864
 0.4090	79.0066
 0.4080	78.9495
 0.4070	78.9015
 0.4060	78.8346
 0.4050	78.7501
 0.4040	78.7115
 0.4030	78.6585
 0.4020	78.5796
 0.4010	78.5301
 0.4000	78.4920
