Name: Anorthite (Feldspar) (NaSi,CaAl)AlSi_2O_8
Type: Mineral
Class: Silicate
Subclass: Tectosilicate
Particle Size: Medium
Sample No.: TS-5A
Owner: JPL
Wavelength Range: VSWIR
Origin: 
Collection Date: N/A
Description: Particle size was 45-125um.Collected by JPL Original ASTER Spectral Library name was jpl.beckman.mineral.silicate.tectosilicate.medium.ts05a.spectrum.txt
Measurement: Hemispherical reflectance
First Column: X
Second Column: Y
X Units: Wavelength (micrometers)
Y Units:Reflectance (percent)
First X Value:  0.4000
Last X Value:  2.5000
Number of X Values: 826
Additional Information: mineral.silicate.tectosilicate.medium.vswir.ts-5a.jpl.beckman.ancillary.txt

 0.4000	50.8900
 0.4010	50.9900
 0.4020	51.1600
 0.4030	51.2100
 0.4040	51.4900
 0.4050	51.7800
 0.4060	51.9600
 0.4070	51.9000
 0.4080	52.1400
 0.4090	52.2800
 0.4100	52.4600
 0.4110	52.4000
 0.4120	52.5000
 0.4130	52.8300
 0.4140	52.8000
 0.4150	52.9200
 0.4160	52.9200
 0.4170	53.0400
 0.4180	53.2600
 0.4190	53.3500
 0.4200	53.3700
 0.4210	53.6500
 0.4220	53.8400
 0.4230	54.0200
 0.4240	54.0500
 0.4250	54.2400
 0.4260	54.5700
 0.4270	54.6800
 0.4280	54.8700
 0.4290	54.8600
 0.4300	55.1600
 0.4310	55.3900
 0.4320	55.5700
 0.4330	55.5600
 0.4340	55.8600
 0.4350	55.9300
 0.4360	56.1500
 0.4370	56.1400
 0.4380	56.2100
 0.4390	56.5100
 0.4400	56.4300
 0.4410	56.5700
 0.4420	56.4700
 0.4430	56.6900
 0.4440	56.9300
 0.4450	56.9900
 0.4460	56.9200
 0.4470	57.1300
 0.4480	57.2300
 0.4490	57.3400
 0.4500	57.2800
 0.4510	57.4500
 0.4520	57.8200
 0.4530	57.8600
 0.4540	57.8300
 0.4550	58.0300
 0.4560	58.3700
 0.4570	58.4000
 0.4580	58.4000
 0.4590	58.5100
 0.4600	58.6500
 0.4610	58.7600
 0.4620	58.8100
 0.4630	59.0400
 0.4640	59.1700
 0.4650	59.1200
 0.4660	59.1000
 0.4670	59.3600
 0.4680	59.6200
 0.4690	59.5400
 0.4700	59.5400
 0.4710	59.6000
 0.4720	59.8300
 0.4730	59.9100
 0.4740	59.9300
 0.4750	60.0200
 0.4760	60.2800
 0.4770	60.2800
 0.4780	60.1800
 0.4790	60.2800
 0.4800	60.4400
 0.4810	60.5500
 0.4820	60.5300
 0.4830	60.5600
 0.4840	60.6500
 0.4850	60.8400
 0.4860	60.8200
 0.4870	60.9200
 0.4880	61.0300
 0.4890	61.0700
 0.4900	61.1500
 0.4910	61.0800
 0.4920	61.2300
 0.4930	61.4300
 0.4940	61.4700
 0.4950	61.2400
 0.4960	61.4400
 0.4970	61.5300
 0.4980	61.6400
 0.4990	61.6600
 0.5000	61.5800
 0.5010	61.8600
 0.5020	61.9200
 0.5030	61.9200
 0.5040	61.9000
 0.5050	62.0900
 0.5060	62.2400
 0.5070	62.3600
 0.5080	62.2800
 0.5090	62.3400
 0.5100	62.4900
 0.5110	62.6700
 0.5120	62.6900
 0.5130	62.6700
 0.5140	62.7800
 0.5150	62.9200
 0.5160	63.0000
 0.5170	62.9600
 0.5180	63.1300
 0.5190	63.3400
 0.5200	63.3700
 0.5210	63.3100
 0.5220	63.2100
 0.5230	63.3800
 0.5240	63.4600
 0.5250	63.4400
 0.5260	63.4000
 0.5270	63.5200
 0.5280	63.7300
 0.5290	63.5800
 0.5300	63.5000
 0.5310	63.5600
 0.5320	63.7800
 0.5330	63.8700
 0.5340	63.6700
 0.5350	63.6800
 0.5360	63.6400
 0.5370	63.9700
 0.5380	63.9300
 0.5390	63.9500
 0.5400	63.9300
 0.5410	64.0500
 0.5420	64.1700
 0.5430	63.9700
 0.5440	64.0300
 0.5450	64.0500
 0.5460	64.2300
 0.5470	64.1200
 0.5480	64.1400
 0.5490	64.2100
 0.5500	64.3100
 0.5510	64.4600
 0.5520	64.3800
 0.5530	64.3700
 0.5540	64.4400
 0.5550	64.5800
 0.5560	64.3900
 0.5570	64.4500
 0.5580	64.5000
 0.5590	64.5800
 0.5600	64.5700
 0.5610	64.8400
 0.5620	64.7300
 0.5630	64.7800
 0.5640	64.9100
 0.5650	64.7600
 0.5660	64.7600
 0.5670	64.8900
 0.5680	64.8000
 0.5690	64.8000
 0.5700	64.8400
 0.5710	64.6400
 0.5720	64.6300
 0.5730	64.7400
 0.5740	64.6200
 0.5750	64.6000
 0.5760	64.5700
 0.5770	64.6300
 0.5780	64.7400
 0.5790	64.5000
 0.5800	64.5600
 0.5810	64.6400
 0.5820	64.5400
 0.5830	64.6600
 0.5840	64.5000
 0.5850	64.5000
 0.5860	64.5400
 0.5870	64.6800
 0.5880	64.6300
 0.5890	64.5300
 0.5900	64.6600
 0.5910	64.7400
 0.5920	64.6500
 0.5930	64.6100
 0.5940	64.7200
 0.5950	64.8600
 0.5960	64.8000
 0.5970	64.6200
 0.5980	64.7100
 0.5990	64.8800
 0.6000	64.8700
 0.6010	64.8900
 0.6020	64.9000
 0.6030	65.0500
 0.6040	65.0600
 0.6050	64.8800
 0.6060	64.9300
 0.6070	65.0400
 0.6080	64.8600
 0.6090	65.0000
 0.6100	64.8900
 0.6110	64.9600
 0.6120	65.1200
 0.6130	64.9900
 0.6140	64.9200
 0.6150	64.9700
 0.6160	65.0300
 0.6170	64.9100
 0.6180	64.8700
 0.6190	64.8700
 0.6200	65.0400
 0.6210	64.7900
 0.6220	65.0200
 0.6230	64.9000
 0.6240	65.0400
 0.6250	65.0700
 0.6260	64.9200
 0.6270	64.8900
 0.6280	65.1000
 0.6290	65.0800
 0.6300	65.0800
 0.6310	65.0600
 0.6320	65.2300
 0.6330	65.2300
 0.6340	65.1900
 0.6350	65.1200
 0.6360	65.1800
 0.6370	65.3000
 0.6380	65.2300
 0.6390	65.1600
 0.6400	65.0800
 0.6410	65.2700
 0.6420	65.2700
 0.6430	65.0800
 0.6440	65.1900
 0.6450	65.2700
 0.6460	65.1000
 0.6470	65.2500
 0.6480	65.1200
 0.6490	65.1800
 0.6500	65.3200
 0.6510	65.2200
 0.6520	65.2300
 0.6530	65.2300
 0.6540	65.3700
 0.6550	65.3500
 0.6560	65.1200
 0.6570	65.2700
 0.6580	65.1900
 0.6590	65.2100
 0.6600	65.3100
 0.6610	65.2500
 0.6620	65.1600
 0.6630	65.3000
 0.6640	65.2400
 0.6650	65.2200
 0.6660	65.1900
 0.6670	65.3400
 0.6680	65.4000
 0.6690	65.2200
 0.6700	65.3300
 0.6710	65.3400
 0.6720	65.2200
 0.6730	65.3200
 0.6740	65.1800
 0.6750	65.2000
 0.6760	65.4000
 0.6770	65.3000
 0.6780	65.2700
 0.6790	65.3400
 0.6800	65.3600
 0.6810	65.4500
 0.6820	65.3900
 0.6830	65.2800
 0.6840	65.3000
 0.6850	65.2800
 0.6860	65.2900
 0.6870	65.1900
 0.6880	65.3500
 0.6890	65.4300
 0.6900	65.4200
 0.6910	65.3600
 0.6920	65.4400
 0.6930	65.4000
 0.6940	65.4600
 0.6950	65.2500
 0.6960	65.3900
 0.6970	65.3500
 0.6980	65.3200
 0.6990	65.3600
 0.7000	65.2300
 0.7010	65.3300
 0.7020	65.1700
 0.7030	65.3600
 0.7040	65.3600
 0.7050	65.3800
 0.7060	65.3000
 0.7070	65.4300
 0.7080	65.4400
 0.7090	65.2900
 0.7100	65.2600
 0.7110	65.3400
 0.7120	65.3600
 0.7130	65.2500
 0.7140	65.1700
 0.7150	65.2100
 0.7160	65.3600
 0.7170	65.2500
 0.7180	65.2000
 0.7190	65.1800
 0.7200	65.3900
 0.7210	65.4000
 0.7220	65.1300
 0.7230	65.2400
 0.7240	65.3200
 0.7250	65.2200
 0.7260	65.3600
 0.7270	65.3000
 0.7280	65.2700
 0.7290	65.3500
 0.7300	65.2500
 0.7310	65.1900
 0.7320	65.2400
 0.7330	65.3800
 0.7340	65.1900
 0.7350	65.0900
 0.7360	65.3000
 0.7370	65.4400
 0.7380	65.2100
 0.7390	65.1000
 0.7400	65.0900
 0.7410	65.2800
 0.7420	65.1800
 0.7430	65.1300
 0.7440	65.0500
 0.7450	65.1300
 0.7460	65.1400
 0.7470	64.8400
 0.7480	65.0200
 0.7490	65.0200
 0.7500	65.0900
 0.7510	64.9700
 0.7520	64.9300
 0.7530	64.8000
 0.7540	64.9500
 0.7550	64.8200
 0.7560	64.9700
 0.7570	64.8200
 0.7580	64.9000
 0.7590	65.0500
 0.7600	64.8900
 0.7610	64.8400
 0.7620	65.0100
 0.7630	64.9500
 0.7640	64.9100
 0.7650	64.8000
 0.7660	64.8800
 0.7670	64.8400
 0.7680	64.7400
 0.7690	64.8100
 0.7700	64.8100
 0.7710	64.9900
 0.7720	64.7800
 0.7730	64.7000
 0.7740	64.8700
 0.7750	64.6900
 0.7760	64.6700
 0.7770	64.5100
 0.7780	64.6800
 0.7790	64.6400
 0.7800	64.6600
 0.7810	64.5600
 0.7820	64.6900
 0.7830	64.8100
 0.7840	64.6200
 0.7850	64.4500
 0.7860	64.6000
 0.7870	64.6800
 0.7880	64.5600
 0.7890	64.4900
 0.7900	64.4100
 0.7910	64.5800
 0.7920	64.4700
 0.7930	64.4900
 0.7940	64.4200
 0.7950	64.5100
 0.7960	64.5100
 0.7970	64.3200
 0.7980	64.2700
 0.7990	64.3800
 0.8000	64.2900
 0.8040	64.1900
 0.8080	64.1300
 0.8120	64.1400
 0.8160	64.0000
 0.8200	63.9400
 0.8240	63.7900
 0.8280	63.7800
 0.8320	63.7400
 0.8360	63.6800
 0.8400	63.6800
 0.8440	63.6400
 0.8480	63.6000
 0.8520	63.5800
 0.8560	63.5200
 0.8600	63.5700
 0.8640	63.5700
 0.8680	63.5900
 0.8720	63.5700
 0.8760	63.5700
 0.8800	63.5500
 0.8840	63.6100
 0.8880	63.6700
 0.8920	63.6100
 0.8960	63.7200
 0.9000	63.6300
 0.9040	63.6100
 0.9080	63.6100
 0.9120	63.7300
 0.9160	63.7300
 0.9200	63.7700
 0.9240	63.8000
 0.9280	63.8100
 0.9320	63.7800
 0.9360	63.8400
 0.9400	63.9000
 0.9440	63.8600
 0.9480	63.8900
 0.9520	63.9000
 0.9560	63.8800
 0.9600	63.9000
 0.9640	63.9200
 0.9680	63.8500
 0.9720	63.7600
 0.9760	63.7100
 0.9800	63.7100
 0.9840	63.6100
 0.9880	63.5700
 0.9920	63.4800
 0.9960	63.5300
 1.0000	63.4100
 1.0040	63.3700
 1.0080	63.3100
 1.0120	63.2500
 1.0160	63.1900
 1.0200	63.0500
 1.0240	63.0100
 1.0280	62.9300
 1.0320	62.8700
 1.0360	62.7100
 1.0400	62.7900
 1.0440	62.6500
 1.0480	62.5100
 1.0520	62.4100
 1.0560	62.3700
 1.0600	62.3500
 1.0640	62.3700
 1.0680	62.3000
 1.0720	62.2800
 1.0760	62.2000
 1.0800	62.1300
 1.0840	62.1300
 1.0880	62.1200
 1.0920	62.0800
 1.0960	62.1300
 1.1000	62.1000
 1.1040	62.1300
 1.1080	62.1200
 1.1120	62.1000
 1.1160	62.0900
 1.1200	62.0500
 1.1240	61.9700
 1.1280	62.0100
 1.1320	61.9300
 1.1360	61.9100
 1.1400	61.9700
 1.1440	61.8900
 1.1480	61.9900
 1.1520	62.0500
 1.1560	62.1000
 1.1600	62.0300
 1.1640	62.0500
 1.1680	62.1200
 1.1720	62.1000
 1.1760	62.1100
 1.1800	62.2200
 1.1840	62.1600
 1.1880	62.0800
 1.1920	62.1500
 1.1960	62.2400
 1.2000	62.3100
 1.2040	62.3900
 1.2080	62.3700
 1.2120	62.5300
 1.2160	62.5100
 1.2200	62.6100
 1.2240	62.7100
 1.2280	62.7900
 1.2320	62.8400
 1.2360	62.9400
 1.2400	62.9400
 1.2440	62.9900
 1.2480	63.0900
 1.2520	63.1300
 1.2560	63.2300
 1.2600	63.2600
 1.2640	63.3700
 1.2680	63.4300
 1.2720	63.4500
 1.2760	63.6100
 1.2800	63.7300
 1.2840	63.7300
 1.2880	63.7400
 1.2920	63.8600
 1.2960	64.0000
 1.3000	63.9900
 1.3040	64.1700
 1.3080	64.2200
 1.3120	64.3100
 1.3160	64.3600
 1.3200	64.4600
 1.3240	64.5700
 1.3280	64.5800
 1.3320	64.7000
 1.3360	64.7900
 1.3400	64.7900
 1.3440	64.9300
 1.3480	65.0500
 1.3520	65.1700
 1.3560	65.2500
 1.3600	65.2700
 1.3640	65.3700
 1.3680	65.4700
 1.3720	65.4600
 1.3760	65.2400
 1.3800	64.9300
 1.3840	64.5000
 1.3880	64.0300
 1.3920	63.6300
 1.3960	63.2800
 1.4000	63.2400
 1.4040	63.4400
 1.4080	63.8400
 1.4120	64.4800
 1.4160	65.0200
 1.4200	65.3300
 1.4240	65.5200
 1.4280	65.7200
 1.4320	65.8700
 1.4360	65.9800
 1.4400	66.1400
 1.4440	66.2100
 1.4480	66.2800
 1.4520	66.4700
 1.4560	66.5300
 1.4600	66.6200
 1.4640	66.7200
 1.4680	66.7200
 1.4720	66.7900
 1.4760	66.9300
 1.4800	67.2000
 1.4840	67.5300
 1.4880	67.6500
 1.4920	67.7200
 1.4960	67.8300
 1.5000	67.9400
 1.5040	68.0500
 1.5080	68.1100
 1.5120	68.2900
 1.5160	68.3900
 1.5200	68.3800
 1.5240	68.3900
 1.5280	68.5500
 1.5320	68.6000
 1.5360	68.6100
 1.5400	68.5700
 1.5440	68.6200
 1.5480	68.6000
 1.5520	68.5800
 1.5560	68.5800
 1.5600	68.5500
 1.5640	68.6500
 1.5680	68.6700
 1.5720	68.7000
 1.5760	68.7600
 1.5800	68.7400
 1.5840	68.7800
 1.5880	68.8300
 1.5920	68.9100
 1.5960	68.9700
 1.6000	68.9600
 1.6040	69.1500
 1.6080	68.9700
 1.6120	69.0700
 1.6160	69.0700
 1.6200	69.0400
 1.6240	69.0500
 1.6280	68.9600
 1.6320	68.9800
 1.6360	69.0700
 1.6400	69.0600
 1.6440	69.0400
 1.6480	69.0000
 1.6520	69.0500
 1.6560	69.0900
 1.6600	69.2300
 1.6640	69.3200
 1.6680	69.3400
 1.6720	69.3400
 1.6760	69.3400
 1.6800	69.4600
 1.6840	69.4600
 1.6880	69.4100
 1.6920	69.5100
 1.6960	69.4400
 1.7000	69.5400
 1.7040	69.5700
 1.7080	69.6300
 1.7120	69.6700
 1.7160	69.7600
 1.7200	69.8400
 1.7240	69.7600
 1.7280	69.8200
 1.7320	69.9400
 1.7360	69.9100
 1.7400	69.9800
 1.7440	70.0100
 1.7480	69.9400
 1.7520	69.9200
 1.7560	70.0700
 1.7600	69.9400
 1.7640	70.0800
 1.7680	70.1000
 1.7720	70.0500
 1.7760	70.0800
 1.7800	70.0500
 1.7840	70.0200
 1.7880	70.0800
 1.7920	70.1800
 1.7960	70.1100
 1.8000	70.2800
 1.8040	70.2500
 1.8080	70.3300
 1.8120	70.2300
 1.8160	70.3100
 1.8200	70.3000
 1.8240	70.2300
 1.8280	70.1200
 1.8320	70.1000
 1.8360	70.0600
 1.8400	69.9800
 1.8440	69.8600
 1.8480	69.8400
 1.8520	69.8300
 1.8560	69.7000
 1.8600	69.6200
 1.8640	69.4500
 1.8680	69.3500
 1.8720	69.0800
 1.8760	68.7600
 1.8800	68.4200
 1.8840	68.0500
 1.8880	67.5000
 1.8920	67.0200
 1.8960	66.5500
 1.9000	66.0500
 1.9040	65.7100
 1.9080	65.5600
 1.9120	65.4300
 1.9160	65.4800
 1.9200	65.6900
 1.9240	65.7900
 1.9280	65.9200
 1.9320	66.0900
 1.9360	66.2100
 1.9400	66.3400
 1.9440	66.4700
 1.9480	66.5700
 1.9520	66.7500
 1.9560	66.8800
 1.9600	66.9700
 1.9640	67.0300
 1.9680	67.1700
 1.9720	67.3300
 1.9760	67.5300
 1.9800	67.5800
 1.9840	67.7900
 1.9880	67.8900
 1.9920	68.0900
 1.9960	68.2600
 2.0000	68.3800
 2.0040	68.5200
 2.0080	68.6300
 2.0120	68.8000
 2.0160	68.8600
 2.0200	69.0300
 2.0240	69.1800
 2.0280	69.2800
 2.0320	69.4700
 2.0360	69.5900
 2.0400	69.6000
 2.0440	69.8300
 2.0480	69.8100
 2.0520	69.8900
 2.0560	69.9800
 2.0600	70.1200
 2.0640	70.0900
 2.0680	70.1700
 2.0720	70.2200
 2.0760	70.2800
 2.0800	70.4100
 2.0840	70.3400
 2.0880	70.4200
 2.0920	70.4800
 2.0960	70.4900
 2.1000	70.4300
 2.1040	70.5100
 2.1080	70.5500
 2.1120	70.5000
 2.1160	70.6000
 2.1200	70.6000
 2.1240	70.3900
 2.1280	70.4200
 2.1320	70.3000
 2.1360	70.2300
 2.1400	70.0200
 2.1440	69.7600
 2.1480	69.6100
 2.1520	69.3600
 2.1560	69.1300
 2.1600	68.9400
 2.1640	68.6300
 2.1680	68.3100
 2.1720	68.0600
 2.1760	67.8300
 2.1800	67.5300
 2.1840	67.3100
 2.1880	67.1900
 2.1920	67.1200
 2.1960	67.0000
 2.2000	66.9900
 2.2040	66.9100
 2.2080	66.7200
 2.2120	66.6500
 2.2160	66.3900
 2.2200	66.1700
 2.2240	65.8800
 2.2280	65.5000
 2.2320	65.0800
 2.2360	64.6200
 2.2400	64.2900
 2.2440	63.9500
 2.2480	63.7000
 2.2520	63.5400
 2.2560	63.3300
 2.2600	63.1000
 2.2640	63.0600
 2.2680	62.9500
 2.2720	62.7300
 2.2760	62.5500
 2.2800	62.3600
 2.2840	62.0400
 2.2880	61.7700
 2.2920	61.4200
 2.2960	61.0100
 2.3000	60.7000
 2.3040	59.9800
 2.3080	59.4300
 2.3120	58.8700
 2.3160	58.2800
 2.3200	57.7200
 2.3240	57.1100
 2.3280	56.5700
 2.3320	56.1300
 2.3360	55.8000
 2.3400	55.5100
 2.3440	55.3700
 2.3480	55.3100
 2.3520	55.5000
 2.3560	55.7000
 2.3600	56.1000
 2.3640	56.6700
 2.3680	57.1800
 2.3720	57.7500
 2.3760	58.2900
 2.3800	58.8200
 2.3840	59.1800
 2.3880	59.5200
 2.3920	59.8300
 2.3960	59.9300
 2.4000	60.1000
 2.4040	60.2100
 2.4080	60.2500
 2.4120	60.2500
 2.4160	60.1400
 2.4200	60.0200
 2.4240	59.9400
 2.4280	59.6300
 2.4320	59.4400
 2.4360	59.2200
 2.4400	59.0200
 2.4440	58.7200
 2.4480	58.5900
 2.4520	58.3700
 2.4560	58.1400
 2.4600	58.0000
 2.4640	57.8700
 2.4680	57.8800
 2.4720	57.7000
 2.4760	57.7700
 2.4800	57.9000
 2.4840	57.9900
 2.4880	58.0300
 2.4920	58.0900
 2.4960	58.1300
 2.5000	58.1500
