Name: Dolomite CaMg(CO_3)_2
Type: Mineral
Class: Carbonate
Subclass: None
Particle Size: Fine
Sample No.: C-5C
Owner: JPL
Wavelength Range: VSWIR
Origin: USA, California, Los Angeles County, Palos Verdes
Collection Date: N/A
Description: Particle size was 0-45um.Collected by Burminco Original ASTER Spectral Library name was jpl.beckman.mineral.carbonate.none.fine.c05c.spectrum.txt
Measurement: Hemispherical reflectance
First Column: X
Second Column: Y
X Units: Wavelength (micrometers)
Y Units:Reflectance (percent)
First X Value:  0.4000
Last X Value:  2.5000
Number of X Values: 826
Additional Information: mineral.carbonate.none.fine.vswir.c-5c.jpl.beckman.ancillary.txt

 0.4000	79.9100
 0.4010	80.0200
 0.4020	79.9100
 0.4030	80.1900
 0.4040	80.4200
 0.4050	80.3000
 0.4060	80.3000
 0.4070	80.2400
 0.4080	80.5300
 0.4090	80.8200
 0.4100	80.6500
 0.4110	80.7000
 0.4120	80.5900
 0.4130	80.9300
 0.4140	81.0500
 0.4150	80.9900
 0.4160	80.9300
 0.4170	80.7600
 0.4180	81.1100
 0.4190	81.1600
 0.4200	81.0500
 0.4210	80.9300
 0.4220	81.0500
 0.4230	81.4000
 0.4240	81.4000
 0.4250	81.2800
 0.4260	81.3400
 0.4270	81.3400
 0.4280	81.6200
 0.4290	81.7900
 0.4300	81.5100
 0.4310	81.4500
 0.4320	81.5100
 0.4330	81.7900
 0.4340	81.7900
 0.4350	81.6700
 0.4360	81.7300
 0.4370	81.7300
 0.4380	82.0200
 0.4390	81.9600
 0.4400	81.9000
 0.4410	81.8500
 0.4420	81.8500
 0.4430	82.1300
 0.4440	82.0800
 0.4450	81.9600
 0.4460	81.8500
 0.4470	81.7900
 0.4480	82.0800
 0.4490	82.1900
 0.4500	81.9600
 0.4510	81.9600
 0.4520	82.0200
 0.4530	82.1400
 0.4540	82.2000
 0.4550	82.0900
 0.4560	81.9700
 0.4570	81.9700
 0.4580	82.2700
 0.4590	82.3300
 0.4600	82.2100
 0.4610	82.3800
 0.4620	82.2700
 0.4630	82.2800
 0.4640	82.5600
 0.4650	82.6100
 0.4660	82.3300
 0.4670	82.2800
 0.4680	82.3400
 0.4690	82.5700
 0.4700	82.6200
 0.4710	82.5700
 0.4720	82.4500
 0.4730	82.4600
 0.4740	82.6300
 0.4750	82.6900
 0.4760	82.6900
 0.4770	82.6300
 0.4780	82.5900
 0.4790	82.7600
 0.4800	82.9900
 0.4810	82.9900
 0.4820	82.7000
 0.4830	82.6500
 0.4840	82.9300
 0.4850	82.9900
 0.4860	83.0500
 0.4870	82.8800
 0.4880	82.6500
 0.4890	82.8300
 0.4900	82.8900
 0.4910	83.1200
 0.4920	82.9400
 0.4930	82.7800
 0.4940	82.8400
 0.4950	83.0100
 0.4960	83.3600
 0.4970	83.0100
 0.4980	82.9100
 0.4990	83.0200
 0.5000	83.2500
 0.5010	83.3100
 0.5020	83.2500
 0.5030	83.0800
 0.5040	83.1400
 0.5050	83.3700
 0.5060	83.5400
 0.5070	83.3700
 0.5080	83.1900
 0.5090	83.3100
 0.5100	83.4200
 0.5110	83.6500
 0.5120	83.4200
 0.5130	83.3700
 0.5140	83.4200
 0.5150	83.4800
 0.5160	83.8700
 0.5170	83.7000
 0.5180	83.4800
 0.5190	83.4800
 0.5200	83.6000
 0.5210	83.8200
 0.5220	83.8700
 0.5230	83.6500
 0.5240	83.6500
 0.5250	83.6500
 0.5260	83.7600
 0.5270	83.8700
 0.5280	83.6500
 0.5290	83.4800
 0.5300	83.6000
 0.5310	83.8200
 0.5320	83.8700
 0.5330	83.6500
 0.5340	83.4800
 0.5350	83.4800
 0.5360	83.7600
 0.5370	83.7000
 0.5380	83.7000
 0.5390	83.6000
 0.5400	83.6000
 0.5410	83.7000
 0.5420	83.8200
 0.5430	83.7600
 0.5440	83.6000
 0.5450	83.4800
 0.5460	83.7600
 0.5470	83.8200
 0.5480	83.8200
 0.5490	83.8200
 0.5500	83.7000
 0.5510	83.8200
 0.5520	84.1000
 0.5530	84.1000
 0.5540	83.9300
 0.5550	83.8700
 0.5560	83.8700
 0.5570	83.9900
 0.5580	84.1600
 0.5590	84.0500
 0.5600	84.3400
 0.5610	83.9300
 0.5620	84.1000
 0.5630	84.1600
 0.5640	84.3900
 0.5650	84.2800
 0.5660	84.0500
 0.5670	84.0500
 0.5680	84.2200
 0.5690	84.3400
 0.5700	84.2800
 0.5710	83.9900
 0.5720	83.7600
 0.5730	83.8200
 0.5740	83.9900
 0.5750	83.9900
 0.5760	83.8200
 0.5770	83.6500
 0.5780	83.8700
 0.5790	84.1600
 0.5800	84.0500
 0.5810	83.7600
 0.5820	83.7600
 0.5830	83.7600
 0.5840	84.0500
 0.5850	83.9900
 0.5860	83.8700
 0.5870	83.8200
 0.5880	83.8700
 0.5890	84.2200
 0.5900	84.1000
 0.5910	84.0500
 0.5920	83.8700
 0.5930	83.8700
 0.5940	84.0500
 0.5950	84.1600
 0.5960	83.9900
 0.5970	83.9300
 0.5980	83.8200
 0.5990	84.1600
 0.6000	84.5100
 0.6010	84.1600
 0.6020	83.9900
 0.6030	84.1000
 0.6040	84.2200
 0.6050	84.4500
 0.6060	84.3400
 0.6070	84.1000
 0.6080	84.1000
 0.6090	84.2200
 0.6100	84.4500
 0.6110	84.3400
 0.6120	84.1600
 0.6130	84.1000
 0.6140	84.2800
 0.6150	84.5100
 0.6160	84.3400
 0.6170	84.1000
 0.6180	83.9900
 0.6190	84.0500
 0.6200	84.2800
 0.6210	84.3400
 0.6220	84.2200
 0.6230	84.1000
 0.6240	84.2200
 0.6250	84.5100
 0.6260	84.3400
 0.6270	84.1600
 0.6280	84.1000
 0.6290	84.2200
 0.6300	84.5700
 0.6310	84.5100
 0.6320	84.2800
 0.6330	84.2800
 0.6340	84.3900
 0.6350	84.5700
 0.6360	84.3900
 0.6370	84.2200
 0.6380	84.1600
 0.6390	84.3400
 0.6400	84.5700
 0.6410	84.3900
 0.6420	84.3400
 0.6430	84.2800
 0.6440	84.4500
 0.6450	84.6200
 0.6460	84.3900
 0.6470	84.2800
 0.6480	84.2800
 0.6490	84.4500
 0.6500	84.6800
 0.6510	84.4500
 0.6520	84.2800
 0.6530	84.3400
 0.6540	84.6200
 0.6550	84.6800
 0.6560	84.5100
 0.6570	84.4500
 0.6580	84.3400
 0.6590	84.4500
 0.6600	84.7400
 0.6610	84.5700
 0.6620	84.3900
 0.6630	84.4500
 0.6640	84.5700
 0.6650	84.8500
 0.6660	84.6800
 0.6670	84.6200
 0.6680	84.5700
 0.6690	84.7400
 0.6700	84.9100
 0.6710	84.8000
 0.6720	84.7400
 0.6730	84.6200
 0.6740	84.6800
 0.6750	84.7400
 0.6760	84.9700
 0.6770	84.7400
 0.6780	84.6200
 0.6790	84.8000
 0.6800	84.8500
 0.6810	85.0800
 0.6820	85.0300
 0.6830	84.8000
 0.6840	84.7400
 0.6850	84.8000
 0.6860	85.0800
 0.6870	84.9700
 0.6880	84.7400
 0.6890	84.8500
 0.6900	85.0300
 0.6910	85.2000
 0.6920	85.0300
 0.6930	84.8000
 0.6940	84.8000
 0.6950	84.9700
 0.6960	85.2600
 0.6970	85.0800
 0.6980	84.8500
 0.6990	84.9700
 0.7000	84.6200
 0.7010	84.6200
 0.7020	84.7400
 0.7030	84.9700
 0.7040	85.0800
 0.7050	84.9100
 0.7060	84.6800
 0.7070	84.9100
 0.7080	85.0300
 0.7090	85.1400
 0.7100	85.0300
 0.7110	85.0300
 0.7120	85.0800
 0.7130	85.2600
 0.7140	85.3600
 0.7150	85.2000
 0.7160	85.0800
 0.7170	85.2600
 0.7180	85.3600
 0.7190	85.3100
 0.7200	85.2600
 0.7210	85.0800
 0.7220	85.1400
 0.7230	85.3600
 0.7240	85.4800
 0.7250	85.4200
 0.7260	85.1400
 0.7270	85.1400
 0.7280	85.3600
 0.7290	85.4800
 0.7300	85.3600
 0.7310	85.0800
 0.7320	85.0800
 0.7330	85.3100
 0.7340	85.5300
 0.7350	85.4800
 0.7360	85.2000
 0.7370	85.2600
 0.7380	85.4200
 0.7390	85.5900
 0.7400	85.4200
 0.7410	85.2000
 0.7420	85.2600
 0.7430	85.4800
 0.7440	85.6500
 0.7450	85.5300
 0.7460	85.3100
 0.7470	85.2600
 0.7480	85.5300
 0.7490	85.5300
 0.7500	85.5300
 0.7510	85.4800
 0.7520	85.4200
 0.7530	85.5900
 0.7540	85.7100
 0.7550	85.7100
 0.7560	85.4200
 0.7570	85.4200
 0.7580	85.5900
 0.7590	85.7700
 0.7600	85.7100
 0.7610	85.3600
 0.7620	85.4800
 0.7630	85.6500
 0.7640	85.7700
 0.7650	85.5300
 0.7660	85.4200
 0.7670	85.5900
 0.7680	85.7700
 0.7690	85.8200
 0.7700	85.5900
 0.7710	85.3600
 0.7720	85.5300
 0.7730	85.7100
 0.7740	85.8200
 0.7750	85.8200
 0.7760	85.5300
 0.7770	85.5900
 0.7780	85.8200
 0.7790	85.8200
 0.7800	85.7700
 0.7810	85.4800
 0.7820	85.5900
 0.7830	85.8200
 0.7840	85.9400
 0.7850	85.8200
 0.7860	85.4800
 0.7870	85.7100
 0.7880	85.8200
 0.7890	86.1100
 0.7900	85.9400
 0.7910	85.6500
 0.7920	85.8200
 0.7930	86.0000
 0.7940	86.1700
 0.7950	86.0000
 0.7960	85.7700
 0.7970	85.8200
 0.7980	86.0000
 0.7990	86.0000
 0.8000	86.0200
 0.8040	86.1100
 0.8080	86.1700
 0.8120	86.1700
 0.8160	86.0000
 0.8200	86.0500
 0.8240	86.0500
 0.8280	86.1100
 0.8320	86.1100
 0.8360	86.2800
 0.8400	86.1100
 0.8440	86.2300
 0.8480	86.2800
 0.8520	86.3400
 0.8560	86.3400
 0.8600	86.2300
 0.8640	86.2800
 0.8680	86.3400
 0.8720	86.3400
 0.8760	86.1700
 0.8800	86.3400
 0.8840	86.1700
 0.8880	86.1700
 0.8920	86.1700
 0.8960	86.3400
 0.9000	86.2800
 0.9040	86.1100
 0.9080	86.2800
 0.9120	86.1700
 0.9160	86.2300
 0.9200	86.1100
 0.9240	86.4000
 0.9280	86.1100
 0.9320	86.2300
 0.9360	86.1700
 0.9400	86.2800
 0.9440	86.1700
 0.9480	86.1700
 0.9520	86.2800
 0.9560	86.2300
 0.9600	86.3400
 0.9640	86.2800
 0.9680	86.4000
 0.9720	86.2300
 0.9760	86.2300
 0.9800	86.2800
 0.9840	86.2800
 0.9880	86.2300
 0.9920	86.2300
 0.9960	86.2800
 1.0000	86.1700
 1.0040	86.2300
 1.0080	86.2300
 1.0120	86.2300
 1.0160	86.0500
 1.0200	86.2800
 1.0240	86.1700
 1.0280	86.2800
 1.0320	86.2800
 1.0360	86.2800
 1.0400	86.2300
 1.0440	86.2300
 1.0480	86.4000
 1.0520	86.2300
 1.0560	86.2800
 1.0600	86.1100
 1.0640	86.3400
 1.0680	86.2800
 1.0720	86.2800
 1.0760	86.1700
 1.0800	86.2800
 1.0840	86.2800
 1.0880	86.1700
 1.0920	86.1700
 1.0960	86.1700
 1.1000	86.2800
 1.1040	86.1100
 1.1080	86.3400
 1.1120	86.2800
 1.1160	86.2800
 1.1200	86.1700
 1.1240	86.3400
 1.1280	86.3400
 1.1320	86.2300
 1.1360	86.3400
 1.1400	86.2800
 1.1440	86.2800
 1.1480	86.2300
 1.1520	86.4000
 1.1560	86.3300
 1.1600	86.3800
 1.1640	86.2500
 1.1680	86.3000
 1.1720	86.2400
 1.1760	86.1900
 1.1800	86.2900
 1.1840	86.2200
 1.1880	86.3300
 1.1920	86.2100
 1.1960	86.3200
 1.2000	86.3700
 1.2040	86.2500
 1.2080	86.4200
 1.2120	86.2500
 1.2160	86.3100
 1.2200	86.1400
 1.2240	86.2500
 1.2280	86.3700
 1.2320	86.3100
 1.2360	86.1900
 1.2400	86.3700
 1.2440	86.1900
 1.2480	86.0800
 1.2520	86.2500
 1.2560	86.3000
 1.2600	86.1800
 1.2640	86.1200
 1.2680	86.1100
 1.2720	86.2200
 1.2760	86.2100
 1.2800	86.2600
 1.2840	86.2500
 1.2880	86.3000
 1.2920	86.2400
 1.2960	86.3400
 1.3000	86.2800
 1.3040	86.1000
 1.3080	86.2700
 1.3120	86.2700
 1.3160	86.2000
 1.3200	86.0200
 1.3240	86.1800
 1.3280	86.0500
 1.3320	86.1700
 1.3360	86.1600
 1.3400	86.2100
 1.3440	86.1500
 1.3480	86.2000
 1.3520	86.2000
 1.3560	86.2500
 1.3600	86.3100
 1.3640	86.1400
 1.3680	86.2000
 1.3720	86.2000
 1.3760	86.3700
 1.3800	86.0800
 1.3840	86.2000
 1.3880	86.1400
 1.3920	86.0800
 1.3960	86.0200
 1.4000	86.2000
 1.4040	86.2600
 1.4080	86.0400
 1.4120	86.1600
 1.4160	86.0400
 1.4200	86.0500
 1.4240	86.1800
 1.4280	85.9600
 1.4320	86.1300
 1.4360	86.0300
 1.4400	86.1500
 1.4440	86.1600
 1.4480	86.1100
 1.4520	86.0600
 1.4560	86.1100
 1.4600	86.2200
 1.4640	86.0000
 1.4680	86.1700
 1.4720	86.1700
 1.4760	86.1700
 1.4800	86.1100
 1.4840	86.3300
 1.4880	86.2200
 1.4920	86.1700
 1.4960	86.1700
 1.5000	86.2200
 1.5040	86.2200
 1.5080	86.2800
 1.5120	86.2800
 1.5160	86.3300
 1.5200	86.2800
 1.5240	86.3900
 1.5280	86.2800
 1.5320	86.3300
 1.5360	86.2800
 1.5400	86.4500
 1.5440	86.4500
 1.5480	86.2200
 1.5520	86.3900
 1.5560	86.3300
 1.5600	86.4500
 1.5640	86.3300
 1.5680	86.3300
 1.5720	86.3900
 1.5760	86.5100
 1.5800	86.2800
 1.5840	86.5100
 1.5880	86.3900
 1.5920	86.2800
 1.5960	86.3300
 1.6000	86.3300
 1.6040	86.3800
 1.6080	86.3800
 1.6120	86.4400
 1.6160	86.3100
 1.6200	86.4800
 1.6240	86.3500
 1.6280	86.4000
 1.6320	86.2300
 1.6360	86.3900
 1.6400	86.3800
 1.6440	86.3100
 1.6480	86.2500
 1.6520	86.2000
 1.6560	86.3600
 1.6600	86.3500
 1.6640	86.2800
 1.6680	86.3300
 1.6720	86.4400
 1.6760	86.1500
 1.6800	86.1900
 1.6840	86.1900
 1.6880	86.2400
 1.6920	86.2400
 1.6960	86.0600
 1.7000	86.1600
 1.7040	86.0500
 1.7080	86.2200
 1.7120	86.1600
 1.7160	86.2200
 1.7200	86.1100
 1.7240	86.1100
 1.7280	86.1100
 1.7320	86.2800
 1.7360	86.1100
 1.7400	86.0500
 1.7440	86.1100
 1.7480	86.0500
 1.7520	86.1600
 1.7560	86.1600
 1.7600	86.2800
 1.7640	86.2200
 1.7680	86.0500
 1.7720	86.1600
 1.7760	86.2200
 1.7800	86.1600
 1.7840	85.9900
 1.7880	86.1100
 1.7920	86.0500
 1.7960	86.0500
 1.8000	85.9900
 1.8040	86.0200
 1.8080	85.8300
 1.8120	85.6800
 1.8160	85.8200
 1.8200	85.6300
 1.8240	85.6000
 1.8280	85.5100
 1.8320	85.6600
 1.8360	85.4000
 1.8400	85.3800
 1.8440	85.2300
 1.8480	85.1000
 1.8520	85.1300
 1.8560	84.7900
 1.8600	85.0100
 1.8640	84.8800
 1.8680	84.9900
 1.8720	85.1000
 1.8760	85.2700
 1.8800	85.2600
 1.8840	85.1300
 1.8880	85.1200
 1.8920	85.1200
 1.8960	85.0500
 1.9000	84.8200
 1.9040	84.9300
 1.9080	84.6900
 1.9120	84.6300
 1.9160	84.5700
 1.9200	84.5600
 1.9240	84.3800
 1.9280	84.2100
 1.9320	84.2500
 1.9360	84.1400
 1.9400	84.3000
 1.9440	84.0000
 1.9480	84.1100
 1.9520	84.1000
 1.9560	83.8500
 1.9600	83.9400
 1.9640	83.8200
 1.9680	83.9000
 1.9720	83.7200
 1.9760	83.9200
 1.9800	83.7900
 1.9840	83.8800
 1.9880	84.0800
 1.9920	84.2900
 1.9960	84.3200
 2.0000	84.4200
 2.0040	84.6900
 2.0080	84.7400
 2.0120	84.9100
 2.0160	84.9300
 2.0200	85.0100
 2.0240	85.0500
 2.0280	85.1500
 2.0320	85.1500
 2.0360	85.2900
 2.0400	85.2000
 2.0440	85.1800
 2.0480	85.2200
 2.0520	85.2300
 2.0560	85.2500
 2.0600	85.1600
 2.0640	85.2400
 2.0680	85.1500
 2.0720	85.1100
 2.0760	85.1800
 2.0800	85.3200
 2.0840	85.2300
 2.0880	85.1900
 2.0920	85.1000
 2.0960	85.2300
 2.1000	85.1900
 2.1040	85.1100
 2.1080	85.1200
 2.1120	85.1500
 2.1160	85.0500
 2.1200	84.9700
 2.1240	85.0100
 2.1280	84.7100
 2.1320	84.7900
 2.1360	84.8400
 2.1400	84.8400
 2.1440	84.8300
 2.1480	84.8100
 2.1520	84.8000
 2.1560	84.8100
 2.1600	84.7800
 2.1640	84.8200
 2.1680	84.8700
 2.1720	84.9300
 2.1760	84.7500
 2.1800	84.7400
 2.1840	84.5800
 2.1880	84.4300
 2.1920	84.2200
 2.1960	84.0600
 2.2000	83.8500
 2.2040	83.5700
 2.2080	83.3500
 2.2120	83.1400
 2.2160	82.8900
 2.2200	82.5800
 2.2240	82.5200
 2.2280	82.1300
 2.2320	81.6700
 2.2360	81.2900
 2.2400	80.9800
 2.2440	80.4800
 2.2480	79.9700
 2.2520	79.6100
 2.2560	79.0800
 2.2600	78.4800
 2.2640	78.2000
 2.2680	77.6900
 2.2720	77.4500
 2.2760	76.9700
 2.2800	76.7100
 2.2840	76.2900
 2.2880	75.9200
 2.2920	75.7100
 2.2960	75.4200
 2.3000	75.0800
 2.3040	74.9400
 2.3080	74.9100
 2.3120	74.8800
 2.3160	75.0700
 2.3200	75.2600
 2.3240	75.7500
 2.3280	76.2500
 2.3320	76.8600
 2.3360	77.3000
 2.3400	78.2800
 2.3440	79.1500
 2.3480	79.9500
 2.3520	80.7000
 2.3560	81.3300
 2.3600	81.9600
 2.3640	82.0300
 2.3680	82.3300
 2.3720	82.6000
 2.3760	82.4800
 2.3800	82.4200
 2.3840	82.1700
 2.3880	82.0900
 2.3920	81.6700
 2.3960	81.6700
 2.4000	81.2900
 2.4040	81.0600
 2.4080	80.7100
 2.4120	80.3300
 2.4160	79.9400
 2.4200	79.3100
 2.4240	78.7000
 2.4280	78.1300
 2.4320	77.4700
 2.4360	76.7400
 2.4400	76.1300
 2.4440	75.5600
 2.4480	74.8400
 2.4520	74.1700
 2.4560	73.4500
 2.4600	72.9900
 2.4640	72.2700
 2.4680	71.7700
 2.4720	71.1500
 2.4760	70.4200
 2.4800	69.8100
 2.4840	69.3600
 2.4880	68.7500
 2.4920	68.3100
 2.4960	67.9700
 2.5000	67.6200
