Name: Calcite CaCO_3
Type: Mineral
Class: Carbonate
Subclass: None
Particle Size: Medium
Sample No.: C-3D
Owner: JPL
Wavelength Range: VSWIR
Origin: United Kingdom, England.
Collection Date: N/A
Description: Particle size was 45-125um.Collected by:  Ward's Original ASTER Spectral Library name was jpl.perkin.mineral.carbonate.none.medium.c03d.spectrum.txt
Measurement: Hemispherical reflectance
First Column: X
Second Column: Y
X Units: Wavelength (micrometers)
Y Units:Reflectance (percent)
First X Value:  2.5000
Last X Value:  0.4000
Number of X Values: 2101
Additional Information: mineral.carbonate.none.medium.vswir.c-3d.jpl.perkin.ancillary.txt

 2.5000	64.2307
 2.4990	64.2619
 2.4980	64.2276
 2.4970	64.3582
 2.4960	64.3797
 2.4950	64.3937
 2.4940	64.5866
 2.4930	64.7459
 2.4920	64.7453
 2.4910	65.0212
 2.4900	65.0583
 2.4890	65.0284
 2.4880	65.4310
 2.4870	65.5325
 2.4860	65.8707
 2.4850	65.8732
 2.4840	66.0125
 2.4830	66.2182
 2.4820	66.5432
 2.4810	66.6463
 2.4800	66.9174
 2.4790	67.0955
 2.4780	67.2164
 2.4770	67.4698
 2.4760	67.8391
 2.4750	67.9514
 2.4740	68.3504
 2.4730	68.6082
 2.4720	69.0301
 2.4710	69.1168
 2.4700	69.4864
 2.4690	69.7242
 2.4680	69.8817
 2.4670	70.2836
 2.4660	70.5996
 2.4650	70.9268
 2.4640	71.1391
 2.4630	71.5546
 2.4620	71.7316
 2.4610	72.0821
 2.4600	72.2946
 2.4590	72.5025
 2.4580	72.8432
 2.4570	73.0439
 2.4560	73.4043
 2.4550	73.5848
 2.4540	73.8011
 2.4530	74.0679
 2.4520	74.2143
 2.4510	74.3369
 2.4500	74.6686
 2.4490	74.7219
 2.4480	74.9401
 2.4470	75.0403
 2.4460	75.2500
 2.4450	75.4599
 2.4440	75.5609
 2.4430	75.6195
 2.4420	75.8763
 2.4410	75.9533
 2.4400	76.1762
 2.4390	76.3656
 2.4380	76.4393
 2.4370	76.5824
 2.4360	76.7345
 2.4350	76.9223
 2.4340	77.0034
 2.4330	77.1551
 2.4320	77.2154
 2.4310	77.4388
 2.4300	77.5164
 2.4290	77.6128
 2.4280	77.7709
 2.4270	77.8637
 2.4260	78.0313
 2.4250	78.1136
 2.4240	78.3293
 2.4230	78.4346
 2.4220	78.4828
 2.4210	78.6039
 2.4200	78.7292
 2.4190	78.7696
 2.4180	78.8815
 2.4170	79.0441
 2.4160	79.1554
 2.4150	79.1796
 2.4140	79.2392
 2.4130	79.3353
 2.4120	79.4217
 2.4110	79.4714
 2.4100	79.4812
 2.4090	79.5853
 2.4080	79.6510
 2.4070	79.6923
 2.4060	79.7083
 2.4050	79.7325
 2.4040	79.8377
 2.4030	79.8282
 2.4020	79.8904
 2.4010	79.9840
 2.4000	80.0228
 2.3990	80.0881
 2.3980	80.1461
 2.3970	80.2192
 2.3960	80.2156
 2.3950	80.2304
 2.3940	80.2821
 2.3930	80.3334
 2.3920	80.3773
 2.3910	80.4161
 2.3900	80.4245
 2.3890	80.4040
 2.3880	80.4853
 2.3870	80.4532
 2.3860	80.4731
 2.3850	80.5582
 2.3840	80.5215
 2.3830	80.4755
 2.3820	80.5180
 2.3810	80.4981
 2.3800	80.4621
 2.3790	80.4022
 2.3780	80.3250
 2.3770	80.2557
 2.3760	80.1477
 2.3750	80.0267
 2.3740	79.9051
 2.3730	79.7490
 2.3720	79.6320
 2.3710	79.4800
 2.3700	79.2690
 2.3690	79.0577
 2.3680	78.8640
 2.3670	78.5825
 2.3660	78.2850
 2.3650	78.0256
 2.3640	77.7433
 2.3630	77.4096
 2.3620	77.0092
 2.3610	76.6420
 2.3600	76.3204
 2.3590	75.9483
 2.3580	75.5250
 2.3570	75.0961
 2.3560	74.6353
 2.3550	74.2075
 2.3540	73.8652
 2.3530	73.4671
 2.3520	73.0332
 2.3510	72.6943
 2.3500	72.3466
 2.3490	71.9606
 2.3480	71.6161
 2.3470	71.2952
 2.3460	71.0212
 2.3450	70.7402
 2.3440	70.5258
 2.3430	70.3330
 2.3420	70.1449
 2.3410	70.0429
 2.3400	69.9507
 2.3390	69.8541
 2.3380	69.8060
 2.3370	69.7972
 2.3360	69.7994
 2.3350	69.8335
 2.3340	69.9308
 2.3330	70.0393
 2.3320	70.1364
 2.3310	70.3033
 2.3300	70.4830
 2.3290	70.6749
 2.3280	70.8005
 2.3270	71.0029
 2.3260	71.1448
 2.3250	71.3482
 2.3240	71.5905
 2.3230	71.8162
 2.3220	72.0198
 2.3210	72.2428
 2.3200	72.4328
 2.3190	72.5926
 2.3180	72.7460
 2.3170	73.0025
 2.3160	73.2073
 2.3150	73.3179
 2.3140	73.4295
 2.3130	73.5602
 2.3120	73.7027
 2.3110	73.8571
 2.3100	74.0083
 2.3090	74.1046
 2.3080	74.2403
 2.3070	74.2903
 2.3060	74.3136
 2.3050	74.4481
 2.3040	74.5890
 2.3030	74.6722
 2.3020	74.8427
 2.3010	74.9163
 2.3000	74.9696
 2.2990	75.0937
 2.2980	75.1407
 2.2970	75.2248
 2.2960	75.3536
 2.2950	75.4423
 2.2940	75.5669
 2.2930	75.7333
 2.2920	75.9020
 2.2910	76.0195
 2.2900	76.1578
 2.2890	76.2701
 2.2880	76.3530
 2.2870	76.5121
 2.2860	76.7428
 2.2850	76.9170
 2.2840	77.0458
 2.2830	77.2233
 2.2820	77.4257
 2.2810	77.5601
 2.2800	77.7438
 2.2790	77.9315
 2.2780	78.1125
 2.2770	78.3017
 2.2760	78.5575
 2.2750	78.7309
 2.2740	78.8618
 2.2730	79.0608
 2.2720	79.1993
 2.2710	79.4093
 2.2700	79.5807
 2.2690	79.6770
 2.2680	79.8640
 2.2670	80.0024
 2.2660	80.1632
 2.2650	80.2673
 2.2640	80.3250
 2.2630	80.5173
 2.2620	80.6806
 2.2610	80.8041
 2.2600	80.9343
 2.2590	80.9851
 2.2580	81.0794
 2.2570	81.1832
 2.2560	81.3491
 2.2550	81.4803
 2.2540	81.6465
 2.2530	81.7288
 2.2520	81.8107
 2.2510	81.9357
 2.2500	81.9663
 2.2490	82.0520
 2.2480	82.1149
 2.2470	82.2117
 2.2460	82.2863
 2.2450	82.4017
 2.2440	82.4793
 2.2430	82.6076
 2.2420	82.6319
 2.2410	82.7352
 2.2400	82.7811
 2.2390	82.9526
 2.2380	82.9887
 2.2370	83.0676
 2.2360	83.0653
 2.2350	83.1472
 2.2340	83.2163
 2.2330	83.3339
 2.2320	83.3474
 2.2310	83.5081
 2.2300	83.5338
 2.2290	83.5780
 2.2280	83.6474
 2.2270	83.6949
 2.2260	83.7524
 2.2250	83.7953
 2.2240	83.7817
 2.2230	83.8773
 2.2220	83.9079
 2.2210	83.9598
 2.2200	83.9811
 2.2190	84.0823
 2.2180	84.0860
 2.2170	84.1503
 2.2160	84.1453
 2.2150	84.2621
 2.2140	84.2160
 2.2130	84.2951
 2.2120	84.2648
 2.2110	84.3154
 2.2100	84.4440
 2.2090	84.4361
 2.2080	84.4842
 2.2070	84.5938
 2.2060	84.5833
 2.2050	84.7262
 2.2040	84.7229
 2.2030	84.6465
 2.2020	84.8539
 2.2010	84.8548
 2.2000	84.9055
 2.1990	84.9704
 2.1980	84.9830
 2.1970	84.9325
 2.1960	85.0489
 2.1950	85.0057
 2.1940	85.0567
 2.1930	85.1093
 2.1920	85.1370
 2.1910	85.2422
 2.1900	85.2180
 2.1890	85.2160
 2.1880	85.2432
 2.1870	85.2436
 2.1860	85.3148
 2.1850	85.2377
 2.1840	85.3303
 2.1830	85.3064
 2.1820	85.3073
 2.1810	85.3191
 2.1800	85.3299
 2.1790	85.3683
 2.1780	85.3814
 2.1770	85.3322
 2.1760	85.3222
 2.1750	85.3753
 2.1740	85.3433
 2.1730	85.3086
 2.1720	85.3101
 2.1710	85.2854
 2.1700	85.3490
 2.1690	85.3507
 2.1680	85.3129
 2.1670	85.3148
 2.1660	85.2734
 2.1650	85.2867
 2.1640	85.3553
 2.1630	85.2977
 2.1620	85.2949
 2.1610	85.2790
 2.1600	85.3016
 2.1590	85.2686
 2.1580	85.3298
 2.1570	85.3402
 2.1560	85.3022
 2.1550	85.4003
 2.1540	85.3970
 2.1530	85.4308
 2.1520	85.4595
 2.1510	85.4597
 2.1500	85.5187
 2.1490	85.4854
 2.1480	85.5218
 2.1470	85.6206
 2.1460	85.6403
 2.1450	85.6886
 2.1440	85.6997
 2.1430	85.7791
 2.1420	85.8094
 2.1410	85.8557
 2.1400	85.8977
 2.1390	85.9355
 2.1380	85.9575
 2.1370	85.9768
 2.1360	85.9079
 2.1350	85.9758
 2.1340	85.9680
 2.1330	85.9296
 2.1320	85.9251
 2.1310	85.7026
 2.1300	85.3566
 2.1290	85.9752
 2.1280	85.8845
 2.1270	85.8310
 2.1260	85.8762
 2.1250	85.8090
 2.1240	85.7723
 2.1230	85.7476
 2.1220	85.6793
 2.1210	85.6282
 2.1200	85.6202
 2.1190	85.6396
 2.1180	85.5814
 2.1170	85.5479
 2.1160	85.4803
 2.1150	85.4220
 2.1140	85.4255
 2.1130	85.3686
 2.1120	85.3292
 2.1110	85.2292
 2.1100	85.1449
 2.1090	85.1450
 2.1080	85.1062
 2.1070	85.0504
 2.1060	85.0894
 2.1050	85.0314
 2.1040	85.0051
 2.1030	84.9534
 2.1020	84.8634
 2.1010	84.8322
 2.1000	84.8262
 2.0990	84.8077
 2.0980	84.8472
 2.0970	84.9280
 2.0960	84.9144
 2.0950	84.9275
 2.0940	84.9435
 2.0930	84.9734
 2.0920	84.9522
 2.0910	84.9447
 2.0900	84.9596
 2.0890	84.9827
 2.0880	84.9938
 2.0870	85.0002
 2.0860	84.9553
 2.0850	84.9783
 2.0840	85.0567
 2.0830	85.0240
 2.0820	84.9915
 2.0810	85.0534
 2.0800	85.0809
 2.0790	85.0844
 2.0780	85.0595
 2.0770	85.0263
 2.0760	84.9869
 2.0750	85.0773
 2.0740	85.0916
 2.0730	84.9935
 2.0720	85.0158
 2.0710	85.0480
 2.0700	85.0680
 2.0690	85.0805
 2.0680	85.0937
 2.0670	85.1378
 2.0660	85.1244
 2.0650	85.1036
 2.0640	85.0905
 2.0630	85.0726
 2.0620	85.1139
 2.0610	85.1310
 2.0600	85.0534
 2.0590	85.0667
 2.0580	85.0782
 2.0570	85.1048
 2.0560	85.1503
 2.0550	85.0867
 2.0540	85.0349
 2.0530	85.0753
 2.0520	85.0976
 2.0510	85.0088
 2.0500	85.0051
 2.0490	85.0863
 2.0480	85.0926
 2.0470	85.0939
 2.0460	85.0707
 2.0450	85.0440
 2.0440	85.0101
 2.0430	85.0372
 2.0420	84.9822
 2.0410	84.9968
 2.0400	85.0475
 2.0390	84.9805
 2.0380	84.9777
 2.0370	84.9954
 2.0360	84.9312
 2.0350	84.9319
 2.0340	84.9129
 2.0330	84.8473
 2.0320	84.8567
 2.0310	84.8220
 2.0300	84.7632
 2.0290	84.7463
 2.0280	84.7361
 2.0270	84.6705
 2.0260	84.6660
 2.0250	84.5999
 2.0240	84.6067
 2.0230	84.5895
 2.0220	84.5288
 2.0210	84.4991
 2.0200	84.4291
 2.0190	84.3968
 2.0180	84.4014
 2.0170	84.2728
 2.0160	84.2459
 2.0150	84.3057
 2.0140	84.2588
 2.0130	84.1434
 2.0120	84.0600
 2.0110	83.9548
 2.0100	83.8943
 2.0090	83.8569
 2.0080	83.8333
 2.0070	83.7507
 2.0060	83.6625
 2.0050	83.4737
 2.0040	83.4396
 2.0030	83.3657
 2.0020	83.2682
 2.0010	83.1613
 2.0000	83.1542
 1.9990	83.0676
 1.9980	82.9930
 1.9970	82.9557
 1.9960	82.9526
 1.9950	82.9305
 1.9940	82.8651
 1.9930	82.8999
 1.9920	82.9371
 1.9910	82.9029
 1.9900	82.9096
 1.9890	82.9651
 1.9880	83.0319
 1.9870	83.0188
 1.9860	82.9958
 1.9850	82.9437
 1.9840	82.9376
 1.9830	82.9494
 1.9820	82.9891
 1.9810	83.0163
 1.9800	83.0094
 1.9790	82.9152
 1.9780	82.9392
 1.9770	82.8778
 1.9760	82.8651
 1.9750	82.8667
 1.9740	82.8032
 1.9730	82.8279
 1.9720	82.7612
 1.9710	82.7050
 1.9700	82.6645
 1.9690	82.6613
 1.9680	82.7068
 1.9670	82.6053
 1.9660	82.6615
 1.9650	82.6144
 1.9640	82.6207
 1.9630	82.5697
 1.9620	82.5766
 1.9610	82.5892
 1.9600	82.5783
 1.9590	82.5530
 1.9580	82.4783
 1.9570	82.4935
 1.9560	82.4009
 1.9550	82.3641
 1.9540	82.4326
 1.9530	82.5507
 1.9520	82.5268
 1.9510	82.4094
 1.9500	82.4025
 1.9490	82.3859
 1.9480	82.4274
 1.9470	82.3471
 1.9460	82.3684
 1.9450	82.4780
 1.9440	82.3508
 1.9430	82.3570
 1.9420	82.3706
 1.9410	82.3323
 1.9400	82.3921
 1.9390	82.3283
 1.9380	82.3721
 1.9370	82.3765
 1.9360	82.3498
 1.9350	82.3199
 1.9340	82.3578
 1.9330	82.3757
 1.9320	82.3900
 1.9310	82.3880
 1.9300	82.4481
 1.9290	82.4226
 1.9280	82.4790
 1.9270	82.4276
 1.9260	82.3820
 1.9250	82.5180
 1.9240	82.5434
 1.9230	82.4638
 1.9220	82.5307
 1.9210	82.5109
 1.9200	82.6728
 1.9190	82.6341
 1.9180	82.7214
 1.9170	82.7313
 1.9160	82.7248
 1.9150	82.7694
 1.9140	82.8117
 1.9130	82.8991
 1.9120	82.9588
 1.9110	83.0484
 1.9100	83.1842
 1.9090	83.1982
 1.9080	83.3147
 1.9070	83.3295
 1.9060	83.4964
 1.9050	83.5944
 1.9040	83.7658
 1.9030	83.8323
 1.9020	84.0462
 1.9010	84.1375
 1.9000	84.3588
 1.8990	84.5437
 1.8980	84.6072
 1.8970	84.7592
 1.8960	84.9694
 1.8950	85.0508
 1.8940	85.2678
 1.8930	85.3166
 1.8920	85.4475
 1.8910	85.4715
 1.8900	85.6261
 1.8890	85.7738
 1.8880	85.8640
 1.8870	85.8408
 1.8860	85.8487
 1.8850	85.8811
 1.8840	85.9789
 1.8830	85.9718
 1.8820	86.0048
 1.8810	86.0009
 1.8800	85.9339
 1.8790	85.9640
 1.8780	86.0321
 1.8770	86.1182
 1.8760	86.1661
 1.8750	86.1393
 1.8740	86.3118
 1.8730	86.3787
 1.8720	86.5627
 1.8710	86.6616
 1.8700	86.7375
 1.8690	86.8482
 1.8680	87.0154
 1.8670	87.1220
 1.8660	87.1224
 1.8650	87.2618
 1.8640	87.2446
 1.8630	87.2875
 1.8620	87.4218
 1.8610	87.5084
 1.8600	87.5107
 1.8590	87.5667
 1.8580	87.5864
 1.8570	87.6768
 1.8560	87.7106
 1.8550	87.7303
 1.8540	87.7756
 1.8530	87.7539
 1.8520	87.7776
 1.8510	87.8175
 1.8500	87.8491
 1.8490	87.8787
 1.8480	87.8319
 1.8470	87.8851
 1.8460	87.9422
 1.8450	87.9682
 1.8440	88.0027
 1.8430	87.9955
 1.8420	88.0102
 1.8410	87.9865
 1.8400	88.0711
 1.8390	88.1028
 1.8380	88.0903
 1.8370	88.1737
 1.8360	88.1438
 1.8350	88.1106
 1.8340	88.1607
 1.8330	88.2077
 1.8320	88.2046
 1.8310	88.2396
 1.8300	88.2500
 1.8290	88.2791
 1.8280	88.2624
 1.8270	88.3361
 1.8260	88.3211
 1.8250	88.3677
 1.8240	88.3577
 1.8230	88.3728
 1.8220	88.4042
 1.8210	88.3709
 1.8200	88.3895
 1.8190	88.3581
 1.8180	88.3862
 1.8170	88.4703
 1.8160	88.4615
 1.8150	88.4600
 1.8140	88.5040
 1.8130	88.5306
 1.8120	88.5155
 1.8110	88.4752
 1.8100	88.4742
 1.8090	88.5285
 1.8080	88.5696
 1.8070	88.5714
 1.8060	88.5958
 1.8050	88.5689
 1.8040	88.5302
 1.8030	88.5829
 1.8020	88.6339
 1.8010	88.6098
 1.8000	88.6000
 1.7990	88.6354
 1.7980	88.6383
 1.7970	88.6678
 1.7960	88.6398
 1.7950	88.5939
 1.7940	88.6290
 1.7930	88.6341
 1.7920	88.5887
 1.7910	88.5952
 1.7900	88.5924
 1.7890	88.5849
 1.7880	88.6200
 1.7870	88.6032
 1.7860	88.5749
 1.7850	88.6108
 1.7840	88.6255
 1.7830	88.5975
 1.7820	88.6438
 1.7810	88.6251
 1.7800	88.5887
 1.7790	88.5826
 1.7780	88.5591
 1.7770	88.5915
 1.7760	88.6123
 1.7750	88.6000
 1.7740	88.6128
 1.7730	88.6188
 1.7720	88.5814
 1.7710	88.5429
 1.7700	88.5468
 1.7690	88.5476
 1.7680	88.5287
 1.7670	88.5527
 1.7660	88.5794
 1.7650	88.5060
 1.7640	88.4938
 1.7630	88.6207
 1.7620	88.6130
 1.7610	88.4913
 1.7600	88.4980
 1.7590	88.4987
 1.7580	88.4649
 1.7570	88.4817
 1.7560	88.5154
 1.7550	88.4766
 1.7540	88.4995
 1.7530	88.5395
 1.7520	88.5586
 1.7510	88.5723
 1.7500	88.5629
 1.7490	88.5512
 1.7480	88.5332
 1.7470	88.6034
 1.7460	88.5969
 1.7450	88.6452
 1.7440	88.6466
 1.7430	88.6611
 1.7420	88.6854
 1.7410	88.6442
 1.7400	88.5715
 1.7390	88.5858
 1.7380	88.5806
 1.7370	88.5473
 1.7360	88.6100
 1.7350	88.6809
 1.7340	88.6833
 1.7330	88.6143
 1.7320	88.6455
 1.7310	88.7028
 1.7300	88.7851
 1.7290	88.7270
 1.7280	88.6826
 1.7270	88.6994
 1.7260	88.7332
 1.7250	88.7683
 1.7240	88.7278
 1.7230	88.7479
 1.7220	88.7932
 1.7210	88.7807
 1.7200	88.7913
 1.7190	88.7639
 1.7180	88.7832
 1.7170	88.7918
 1.7160	88.7813
 1.7150	88.8206
 1.7140	88.8264
 1.7130	88.8213
 1.7120	88.8393
 1.7110	88.8465
 1.7100	88.8036
 1.7090	88.8501
 1.7080	88.9050
 1.7070	88.9290
 1.7060	88.8466
 1.7050	88.8437
 1.7040	88.8749
 1.7030	88.8439
 1.7020	88.8889
 1.7010	88.9340
 1.7000	88.8538
 1.6990	88.8563
 1.6980	88.9003
 1.6970	88.9043
 1.6960	88.9072
 1.6950	88.8531
 1.6940	88.8784
 1.6930	88.9271
 1.6920	88.8850
 1.6910	88.9182
 1.6900	88.9154
 1.6890	88.8625
 1.6880	88.8959
 1.6870	88.9349
 1.6860	88.8639
 1.6850	88.9624
 1.6840	88.7851
 1.6830	88.9108
 1.6820	88.8926
 1.6810	88.8761
 1.6800	88.8880
 1.6790	88.8888
 1.6780	88.8275
 1.6770	88.9288
 1.6760	88.9381
 1.6750	88.9263
 1.6740	88.8964
 1.6730	88.8964
 1.6720	88.9008
 1.6710	88.9852
 1.6700	88.8849
 1.6690	89.0558
 1.6680	88.9060
 1.6670	88.9900
 1.6660	89.0131
 1.6650	88.9840
 1.6640	88.9018
 1.6630	88.8923
 1.6620	88.9192
 1.6610	88.9815
 1.6600	88.8909
 1.6590	88.8967
 1.6580	88.9375
 1.6570	88.9900
 1.6560	88.9878
 1.6550	88.9427
 1.6540	88.9183
 1.6530	88.8408
 1.6520	88.9926
 1.6510	88.9462
 1.6500	88.8845
 1.6490	89.0124
 1.6480	88.8841
 1.6470	88.9392
 1.6460	88.9913
 1.6450	88.9056
 1.6440	89.0045
 1.6430	88.9900
 1.6420	88.9252
 1.6410	89.0462
 1.6400	89.0194
 1.6390	88.9654
 1.6380	88.9489
 1.6370	88.9865
 1.6360	88.9600
 1.6350	88.9801
 1.6340	88.9890
 1.6330	89.0884
 1.6320	88.9779
 1.6310	89.0044
 1.6300	88.9880
 1.6290	88.9401
 1.6280	89.0049
 1.6270	89.0291
 1.6260	88.9212
 1.6250	89.0069
 1.6240	89.0014
 1.6230	88.9965
 1.6220	89.0087
 1.6210	89.0101
 1.6200	89.0007
 1.6190	89.0346
 1.6180	88.9451
 1.6170	89.0304
 1.6160	88.9817
 1.6150	89.0884
 1.6140	89.0226
 1.6130	88.9824
 1.6120	88.9050
 1.6110	89.0152
 1.6100	89.0243
 1.6090	88.9659
 1.6080	88.9889
 1.6070	88.9144
 1.6060	89.0020
 1.6050	89.0793
 1.6040	89.0104
 1.6030	89.0261
 1.6020	89.0178
 1.6010	88.9958
 1.6000	89.0136
 1.5990	88.9854
 1.5980	88.9856
 1.5970	88.9790
 1.5960	89.0381
 1.5950	89.0156
 1.5940	88.9963
 1.5930	88.9840
 1.5920	88.9839
 1.5910	88.9963
 1.5900	89.0006
 1.5890	89.0123
 1.5880	88.9856
 1.5870	88.9646
 1.5860	88.9786
 1.5850	88.9867
 1.5840	88.9190
 1.5830	88.9973
 1.5820	88.9838
 1.5810	88.9594
 1.5800	88.9477
 1.5790	88.9371
 1.5780	88.9405
 1.5770	88.9637
 1.5760	88.8877
 1.5750	88.8510
 1.5740	88.8712
 1.5730	88.8602
 1.5720	88.9115
 1.5710	88.8395
 1.5700	88.8418
 1.5690	88.8110
 1.5680	88.8239
 1.5670	88.8412
 1.5660	88.8217
 1.5650	88.8217
 1.5640	88.7991
 1.5630	88.7675
 1.5620	88.8043
 1.5610	88.8981
 1.5600	88.8560
 1.5590	88.7786
 1.5580	88.7855
 1.5570	88.8223
 1.5560	88.8057
 1.5550	88.7815
 1.5540	88.8131
 1.5530	88.8751
 1.5520	88.7881
 1.5510	88.7879
 1.5500	88.7759
 1.5490	88.7610
 1.5480	88.7439
 1.5470	88.7641
 1.5460	88.7062
 1.5450	88.7484
 1.5440	88.7535
 1.5430	88.6843
 1.5420	88.6607
 1.5410	88.7094
 1.5400	88.6800
 1.5390	88.6874
 1.5380	88.7229
 1.5370	88.7256
 1.5360	88.7071
 1.5350	88.7147
 1.5340	88.6660
 1.5330	88.6414
 1.5320	88.6471
 1.5310	88.6510
 1.5300	88.6668
 1.5290	88.6577
 1.5280	88.6342
 1.5270	88.6231
 1.5260	88.6384
 1.5250	88.5982
 1.5240	88.5651
 1.5230	88.5811
 1.5220	88.5883
 1.5210	88.5719
 1.5200	88.5777
 1.5190	88.6012
 1.5180	88.5565
 1.5170	88.5602
 1.5160	88.5539
 1.5150	88.5397
 1.5140	88.4956
 1.5130	88.4709
 1.5120	88.4681
 1.5110	88.4823
 1.5100	88.5071
 1.5090	88.4904
 1.5080	88.4407
 1.5070	88.4464
 1.5060	88.4378
 1.5050	88.4355
 1.5040	88.4158
 1.5030	88.3919
 1.5020	88.3610
 1.5010	88.3137
 1.5000	88.3455
 1.4990	88.3780
 1.4980	88.3381
 1.4970	88.3419
 1.4960	88.3360
 1.4950	88.3044
 1.4940	88.3255
 1.4930	88.3419
 1.4920	88.2510
 1.4910	88.2080
 1.4900	88.2052
 1.4890	88.1904
 1.4880	88.2167
 1.4870	88.2567
 1.4860	88.2180
 1.4850	88.1826
 1.4840	88.1773
 1.4830	88.1463
 1.4820	88.1523
 1.4810	88.1353
 1.4800	88.1147
 1.4790	88.0523
 1.4780	88.0864
 1.4770	88.1282
 1.4760	88.0758
 1.4750	88.0784
 1.4740	88.0699
 1.4730	88.0664
 1.4720	88.0588
 1.4710	88.0361
 1.4700	88.0437
 1.4690	88.0191
 1.4680	88.0054
 1.4670	87.9983
 1.4660	87.9919
 1.4650	88.0387
 1.4640	88.0210
 1.4630	87.9931
 1.4620	87.9438
 1.4610	87.9735
 1.4600	87.9932
 1.4590	87.9754
 1.4580	87.9806
 1.4570	87.9700
 1.4560	87.9805
 1.4550	87.9538
 1.4540	87.9690
 1.4530	88.0029
 1.4520	87.9890
 1.4510	87.9758
 1.4500	87.9787
 1.4490	87.9323
 1.4480	87.9799
 1.4470	87.9687
 1.4460	87.9443
 1.4450	87.9155
 1.4440	87.8609
 1.4430	87.9302
 1.4420	87.9257
 1.4410	87.9299
 1.4400	87.9182
 1.4390	87.9571
 1.4380	87.9342
 1.4370	87.8876
 1.4360	87.9470
 1.4350	87.8964
 1.4340	87.9632
 1.4330	87.9309
 1.4320	87.9412
 1.4310	87.8911
 1.4300	87.9253
 1.4290	87.9073
 1.4280	87.8934
 1.4270	87.9575
 1.4260	88.0232
 1.4250	87.9360
 1.4240	87.9273
 1.4230	87.9373
 1.4220	87.8922
 1.4210	87.8436
 1.4200	87.9367
 1.4190	88.0184
 1.4180	87.8705
 1.4170	87.9467
 1.4160	87.9352
 1.4150	87.9242
 1.4140	87.9587
 1.4130	87.9870
 1.4120	88.0012
 1.4110	88.0269
 1.4100	88.0697
 1.4090	88.1397
 1.4080	88.1213
 1.4070	88.1568
 1.4060	88.2258
 1.4050	88.2665
 1.4040	88.2840
 1.4030	88.2338
 1.4020	88.3381
 1.4010	88.3755
 1.4000	88.4393
 1.3990	88.5189
 1.3980	88.5398
 1.3970	88.5130
 1.3960	88.6193
 1.3950	88.6433
 1.3940	88.6507
 1.3930	88.7090
 1.3920	88.7385
 1.3910	88.8404
 1.3900	88.8660
 1.3890	88.8585
 1.3880	88.9755
 1.3870	88.8311
 1.3860	88.9621
 1.3850	88.8297
 1.3840	89.0116
 1.3830	88.9574
 1.3820	88.9871
 1.3810	89.0305
 1.3800	89.0389
 1.3790	89.0168
 1.3780	89.0897
 1.3770	89.0640
 1.3760	89.1064
 1.3750	89.0631
 1.3740	89.1101
 1.3730	89.1087
 1.3720	89.0850
 1.3710	89.0680
 1.3700	89.0281
 1.3690	89.0738
 1.3680	89.0689
 1.3670	89.1080
 1.3660	89.1410
 1.3650	89.1411
 1.3640	89.1808
 1.3630	89.0463
 1.3620	89.0720
 1.3610	89.1374
 1.3600	89.0493
 1.3590	89.0755
 1.3580	89.1651
 1.3570	89.1134
 1.3560	89.0311
 1.3550	89.1315
 1.3540	89.1554
 1.3530	89.0980
 1.3520	88.9883
 1.3510	89.0652
 1.3500	89.0491
 1.3490	89.1761
 1.3480	89.1254
 1.3470	89.1300
 1.3460	89.1212
 1.3450	89.1106
 1.3440	89.0940
 1.3430	89.0643
 1.3420	89.0338
 1.3410	88.9979
 1.3400	89.0606
 1.3390	89.0444
 1.3380	89.0809
 1.3370	89.0595
 1.3360	89.1337
 1.3350	89.1123
 1.3340	89.0387
 1.3330	89.0890
 1.3320	89.1518
 1.3310	89.0128
 1.3300	89.0747
 1.3290	89.0486
 1.3280	89.0997
 1.3270	89.0960
 1.3260	89.1028
 1.3250	89.0944
 1.3240	89.1074
 1.3230	88.9964
 1.3220	89.0396
 1.3210	89.1429
 1.3200	89.1074
 1.3190	89.1513
 1.3180	89.1837
 1.3170	89.0247
 1.3160	89.0530
 1.3150	89.1206
 1.3140	89.0695
 1.3130	89.1227
 1.3120	89.0865
 1.3110	89.0186
 1.3100	89.0302
 1.3090	89.0516
 1.3080	89.1587
 1.3070	89.0638
 1.3060	88.9973
 1.3050	89.0579
 1.3040	89.1388
 1.3030	89.0984
 1.3020	89.0096
 1.3010	89.0693
 1.3000	89.0065
 1.2990	89.0488
 1.2980	89.0253
 1.2970	89.0849
 1.2960	89.0470
 1.2950	89.0255
 1.2940	89.0463
 1.2930	89.0098
 1.2920	89.0164
 1.2910	88.9957
 1.2900	89.0898
 1.2890	88.9998
 1.2880	89.0224
 1.2870	89.0387
 1.2860	89.0655
 1.2850	88.9928
 1.2840	88.9540
 1.2830	88.9787
 1.2820	88.9954
 1.2810	88.9588
 1.2800	88.9711
 1.2790	88.9808
 1.2780	88.9336
 1.2770	88.9591
 1.2760	88.9479
 1.2750	88.9542
 1.2740	88.9865
 1.2730	88.9848
 1.2720	88.9096
 1.2710	88.8968
 1.2700	88.9497
 1.2690	88.9695
 1.2680	88.9535
 1.2670	88.9641
 1.2660	88.9648
 1.2650	88.9294
 1.2640	88.9243
 1.2630	88.9306
 1.2620	88.8656
 1.2610	88.9062
 1.2600	88.8970
 1.2590	88.9441
 1.2580	88.9182
 1.2570	88.9556
 1.2560	88.9733
 1.2550	88.8699
 1.2540	88.8279
 1.2530	88.8991
 1.2520	88.8746
 1.2510	88.8644
 1.2500	88.8863
 1.2490	88.8785
 1.2480	88.8678
 1.2470	88.8132
 1.2460	88.8849
 1.2450	88.9215
 1.2440	88.9001
 1.2430	88.8809
 1.2420	88.8931
 1.2410	88.8915
 1.2400	88.8781
 1.2390	88.8528
 1.2380	88.8374
 1.2370	88.8342
 1.2360	88.8444
 1.2350	88.7943
 1.2340	88.7814
 1.2330	88.7575
 1.2320	88.7512
 1.2310	88.7406
 1.2300	88.7529
 1.2290	88.7612
 1.2280	88.7578
 1.2270	88.7829
 1.2260	88.7031
 1.2250	88.6945
 1.2240	88.7436
 1.2230	88.7344
 1.2220	88.7618
 1.2210	88.7786
 1.2200	88.7324
 1.2190	88.7059
 1.2180	88.6988
 1.2170	88.6844
 1.2160	88.7280
 1.2150	88.7309
 1.2140	88.6887
 1.2130	88.7092
 1.2120	88.7223
 1.2110	88.7182
 1.2100	88.6983
 1.2090	88.6728
 1.2080	88.6434
 1.2070	88.6411
 1.2060	88.6600
 1.2050	88.6499
 1.2040	88.6726
 1.2030	88.6555
 1.2020	88.6432
 1.2010	88.6528
 1.2000	88.6574
 1.1990	88.6555
 1.1980	88.6197
 1.1970	88.5742
 1.1960	88.5606
 1.1950	88.5828
 1.1940	88.6287
 1.1930	88.6352
 1.1920	88.5884
 1.1910	88.5298
 1.1900	88.5671
 1.1890	88.5834
 1.1880	88.5276
 1.1870	88.5822
 1.1860	88.6262
 1.1850	88.6374
 1.1840	88.6000
 1.1830	88.5747
 1.1820	88.5725
 1.1810	88.5983
 1.1800	88.5902
 1.1790	88.5769
 1.1780	88.5464
 1.1770	88.5994
 1.1760	88.6105
 1.1750	88.5153
 1.1740	88.5182
 1.1730	88.5536
 1.1720	88.5490
 1.1710	88.5259
 1.1700	88.4658
 1.1690	88.5018
 1.1680	88.5358
 1.1670	88.4957
 1.1660	88.4743
 1.1650	88.4868
 1.1640	88.5412
 1.1630	88.4927
 1.1620	88.4470
 1.1610	88.4698
 1.1600	88.4645
 1.1590	88.5339
 1.1580	88.5323
 1.1570	88.4562
 1.1560	88.4938
 1.1550	88.4754
 1.1540	88.4566
 1.1530	88.5320
 1.1520	88.5128
 1.1510	88.4718
 1.1500	88.4318
 1.1490	88.4190
 1.1480	88.4279
 1.1470	88.4367
 1.1460	88.4513
 1.1450	88.4136
 1.1440	88.4431
 1.1430	88.4034
 1.1420	88.3609
 1.1410	88.4547
 1.1400	88.4275
 1.1390	88.4456
 1.1380	88.4584
 1.1370	88.4447
 1.1360	88.3592
 1.1350	88.4122
 1.1340	88.4251
 1.1330	88.3976
 1.1320	88.3844
 1.1310	88.4248
 1.1300	88.4023
 1.1290	88.3937
 1.1280	88.4143
 1.1270	88.4332
 1.1260	88.4228
 1.1250	88.4177
 1.1240	88.3648
 1.1230	88.3190
 1.1220	88.3500
 1.1210	88.3347
 1.1200	88.3327
 1.1190	88.3485
 1.1180	88.3642
 1.1170	88.3405
 1.1160	88.3056
 1.1150	88.2667
 1.1140	88.3213
 1.1130	88.3325
 1.1120	88.2639
 1.1110	88.3451
 1.1100	88.3075
 1.1090	88.3548
 1.1080	88.2975
 1.1070	88.2600
 1.1060	88.2218
 1.1050	88.2989
 1.1040	88.3231
 1.1030	88.2647
 1.1020	88.2571
 1.1010	88.2845
 1.1000	88.2510
 1.0990	88.3055
 1.0980	88.2749
 1.0970	88.2597
 1.0960	88.2544
 1.0950	88.1943
 1.0940	88.2933
 1.0930	88.2448
 1.0920	88.2690
 1.0910	88.3458
 1.0900	88.2137
 1.0890	88.1795
 1.0880	88.2877
 1.0870	88.2236
 1.0860	88.1792
 1.0850	88.1861
 1.0840	88.1625
 1.0830	88.1637
 1.0820	88.1972
 1.0810	88.2964
 1.0800	88.2005
 1.0790	87.3086
 1.0780	88.0957
 1.0770	88.1922
 1.0760	88.1852
 1.0750	88.1927
 1.0740	88.2139
 1.0730	88.1862
 1.0720	88.1836
 1.0710	88.1667
 1.0700	88.1173
 1.0690	88.1017
 1.0680	88.0711
 1.0670	88.1103
 1.0660	88.1051
 1.0650	88.2179
 1.0640	88.1712
 1.0630	88.1392
 1.0620	88.1390
 1.0610	88.2103
 1.0600	88.1480
 1.0590	88.1052
 1.0580	88.1049
 1.0570	88.1507
 1.0560	88.0243
 1.0550	88.0708
 1.0540	88.0535
 1.0530	88.0754
 1.0520	88.0369
 1.0510	88.0977
 1.0500	87.9977
 1.0490	88.1238
 1.0480	88.0605
 1.0470	88.0659
 1.0460	87.9742
 1.0450	88.0276
 1.0440	87.9621
 1.0430	88.0284
 1.0420	88.0305
 1.0410	88.0011
 1.0400	87.9665
 1.0390	87.9450
 1.0380	88.0123
 1.0370	88.1362
 1.0360	88.0055
 1.0350	87.9714
 1.0340	87.9609
 1.0330	87.9180
 1.0320	87.9552
 1.0310	87.9412
 1.0300	87.8678
 1.0290	87.9943
 1.0280	87.9537
 1.0270	87.9610
 1.0260	87.9099
 1.0250	87.9431
 1.0240	87.9440
 1.0230	87.8931
 1.0220	87.9678
 1.0210	87.9199
 1.0200	87.9523
 1.0190	87.9245
 1.0180	87.8616
 1.0170	87.8212
 1.0160	87.7995
 1.0150	87.8732
 1.0140	87.8263
 1.0130	87.9016
 1.0120	87.8228
 1.0110	87.8532
 1.0100	87.8443
 1.0090	87.8336
 1.0080	87.8011
 1.0070	87.7342
 1.0060	87.7801
 1.0050	87.7216
 1.0040	87.7570
 1.0030	87.7779
 1.0020	87.8033
 1.0010	87.8332
 1.0000	87.8100
 0.9990	87.7805
 0.9980	87.8069
 0.9970	87.7951
 0.9960	87.7527
 0.9950	87.7545
 0.9940	87.7724
 0.9930	87.7425
 0.9920	87.7722
 0.9910	87.7705
 0.9900	87.6943
 0.9890	87.6829
 0.9880	87.6953
 0.9870	87.6516
 0.9860	87.6405
 0.9850	87.6408
 0.9840	87.6563
 0.9830	87.7357
 0.9820	87.6281
 0.9810	87.6177
 0.9800	87.5692
 0.9790	87.6238
 0.9780	87.6312
 0.9770	87.6292
 0.9760	87.5973
 0.9750	87.5345
 0.9740	87.5828
 0.9730	87.6178
 0.9720	87.5487
 0.9710	87.5840
 0.9700	87.5494
 0.9690	87.5474
 0.9680	87.5523
 0.9670	87.4739
 0.9660	87.4903
 0.9650	87.5077
 0.9640	87.4729
 0.9630	87.5257
 0.9620	87.4427
 0.9610	87.4477
 0.9600	87.4695
 0.9590	87.4728
 0.9580	87.4752
 0.9570	87.4023
 0.9560	87.3881
 0.9550	87.4317
 0.9540	87.4139
 0.9530	87.3776
 0.9520	87.3683
 0.9510	87.3390
 0.9500	87.3424
 0.9490	87.3621
 0.9480	87.3553
 0.9470	87.3655
 0.9460	87.3490
 0.9450	87.2989
 0.9440	87.3377
 0.9430	87.3230
 0.9420	87.2749
 0.9410	87.2940
 0.9400	87.2774
 0.9390	87.2159
 0.9380	87.2198
 0.9370	87.2943
 0.9360	87.2819
 0.9350	87.2179
 0.9340	87.2382
 0.9330	87.2100
 0.9320	87.1938
 0.9310	87.2236
 0.9300	87.1783
 0.9290	87.1643
 0.9280	87.1398
 0.9270	87.1436
 0.9260	87.1252
 0.9250	87.1275
 0.9240	87.1289
 0.9230	87.0998
 0.9220	87.0866
 0.9210	87.0814
 0.9200	87.0321
 0.9190	87.0298
 0.9180	87.0783
 0.9170	87.0550
 0.9160	87.0330
 0.9150	86.9858
 0.9140	86.9849
 0.9130	86.9860
 0.9120	87.0235
 0.9110	87.0478
 0.9100	87.0099
 0.9090	86.9516
 0.9080	86.9075
 0.9070	86.8718
 0.9060	86.9279
 0.9050	86.9398
 0.9040	86.9120
 0.9030	86.9072
 0.9020	86.8736
 0.9010	86.8632
 0.9000	86.8293
 0.8990	86.8528
 0.8980	86.8355
 0.8970	86.8089
 0.8960	86.7913
 0.8950	86.7759
 0.8940	86.7708
 0.8930	86.7466
 0.8920	86.7006
 0.8910	86.6822
 0.8900	86.7297
 0.8890	86.7081
 0.8880	86.6391
 0.8870	86.5962
 0.8860	86.6246
 0.8850	86.6237
 0.8840	86.6455
 0.8830	86.6578
 0.8820	86.6140
 0.8810	86.5692
 0.8800	86.5767
 0.8790	86.5945
 0.8780	86.5542
 0.8770	86.4934
 0.8760	86.5187
 0.8750	86.5009
 0.8740	86.4606
 0.8730	86.4456
 0.8720	86.3996
 0.8710	86.4128
 0.8700	86.4290
 0.8690	86.4648
 0.8680	86.3703
 0.8670	86.3711
 0.8660	86.3531
 0.8650	86.3830
 0.8640	86.3138
 0.8630	86.2911
 0.8620	86.3078
 0.8610	86.2921
 0.8600	86.3770
 0.8590	86.1855
 0.8580	86.2843
 0.8570	86.3379
 0.8560	86.1184
 0.8550	86.2278
 0.8540	86.2547
 0.8530	86.1358
 0.8520	86.1748
 0.8510	86.1325
 0.8500	86.1100
 0.8490	86.1810
 0.8480	86.1910
 0.8470	86.1413
 0.8460	86.2147
 0.8450	86.0928
 0.8440	86.0856
 0.8430	86.0546
 0.8420	86.0379
 0.8410	85.9868
 0.8400	86.0361
 0.8390	85.9572
 0.8380	85.9565
 0.8370	86.0291
 0.8360	85.9028
 0.8350	85.9223
 0.8340	85.9434
 0.8330	85.8963
 0.8320	85.8889
 0.8310	85.9044
 0.8300	85.7711
 0.8290	85.7968
 0.8280	85.7508
 0.8270	85.6974
 0.8260	85.7743
 0.8250	85.7265
 0.8240	85.6966
 0.8230	85.6953
 0.8220	85.6518
 0.8210	85.6453
 0.8200	85.6314
 0.8190	85.5550
 0.8180	85.5509
 0.8170	85.5133
 0.8160	85.4923
 0.8150	85.5284
 0.8140	85.4740
 0.8130	85.4231
 0.8120	85.4471
 0.8110	85.4425
 0.8100	85.3770
 0.8090	85.3805
 0.8080	85.3514
 0.8070	85.3854
 0.8060	85.3122
 0.8050	85.2561
 0.8040	85.2457
 0.8030	85.2622
 0.8020	85.2875
 0.8010	85.2017
 0.8000	85.1877
 0.7990	85.0835
 0.7980	85.0654
 0.7970	85.0858
 0.7960	85.0017
 0.7950	84.9695
 0.7940	84.8911
 0.7930	84.8746
 0.7920	84.8812
 0.7910	84.8209
 0.7900	84.8159
 0.7890	84.7906
 0.7880	84.7787
 0.7870	84.7389
 0.7860	84.7324
 0.7850	84.6976
 0.7840	84.6294
 0.7830	84.6053
 0.7820	84.5617
 0.7810	84.6006
 0.7800	84.5066
 0.7790	84.5263
 0.7780	84.5039
 0.7770	84.4167
 0.7760	84.3719
 0.7750	84.3947
 0.7740	84.3396
 0.7730	84.3173
 0.7720	84.2752
 0.7710	84.2297
 0.7700	84.1975
 0.7690	84.1850
 0.7680	84.1683
 0.7670	84.0885
 0.7660	84.1236
 0.7650	84.1011
 0.7640	84.0079
 0.7630	84.0142
 0.7620	83.9527
 0.7610	83.9582
 0.7600	83.9397
 0.7590	83.8519
 0.7580	83.8529
 0.7570	83.8333
 0.7560	83.7513
 0.7550	83.7887
 0.7540	83.7433
 0.7530	83.6914
 0.7520	83.6753
 0.7510	83.6196
 0.7500	83.6027
 0.7490	83.5849
 0.7480	83.5269
 0.7470	83.4838
 0.7460	83.4577
 0.7450	83.4504
 0.7440	83.3948
 0.7430	83.3679
 0.7420	83.3095
 0.7410	83.2828
 0.7400	83.2345
 0.7390	83.2207
 0.7380	83.1995
 0.7370	83.1573
 0.7360	83.1616
 0.7350	83.0746
 0.7340	83.0508
 0.7330	83.0221
 0.7320	82.9617
 0.7310	82.9533
 0.7300	82.9174
 0.7290	82.8630
 0.7280	82.8420
 0.7270	82.7876
 0.7260	82.7897
 0.7250	82.7401
 0.7240	82.6954
 0.7230	82.6559
 0.7220	82.6356
 0.7210	82.5954
 0.7200	82.5363
 0.7190	82.5255
 0.7180	82.4588
 0.7170	82.4252
 0.7160	82.3876
 0.7150	82.3673
 0.7140	82.3239
 0.7130	82.2967
 0.7120	82.2426
 0.7110	82.2039
 0.7100	82.1846
 0.7090	82.1451
 0.7080	82.0792
 0.7070	82.0374
 0.7060	81.9859
 0.7050	81.9666
 0.7040	81.9380
 0.7030	81.8900
 0.7020	81.8443
 0.7010	81.8115
 0.7000	81.7719
 0.6990	81.7328
 0.6980	81.6809
 0.6970	81.6389
 0.6960	81.6044
 0.6950	81.5629
 0.6940	81.4960
 0.6930	81.4584
 0.6920	81.4253
 0.6910	81.3855
 0.6900	81.3507
 0.6890	81.2958
 0.6880	81.2424
 0.6870	81.2045
 0.6860	81.1628
 0.6850	81.1274
 0.6840	81.0788
 0.6830	81.0421
 0.6820	80.9719
 0.6810	80.9322
 0.6800	80.9008
 0.6790	80.8459
 0.6780	80.8047
 0.6770	80.7635
 0.6760	80.6929
 0.6750	80.6553
 0.6740	80.6075
 0.6730	80.5564
 0.6720	80.5226
 0.6710	80.4800
 0.6700	80.4265
 0.6690	80.3822
 0.6680	80.3423
 0.6670	80.3003
 0.6660	80.2365
 0.6650	80.1837
 0.6640	80.1475
 0.6630	80.1162
 0.6620	80.0523
 0.6610	79.9730
 0.6600	79.9339
 0.6590	79.9013
 0.6580	79.8369
 0.6570	79.7885
 0.6560	79.7347
 0.6550	79.6648
 0.6540	79.6306
 0.6530	79.6013
 0.6520	79.5420
 0.6510	79.4846
 0.6500	79.4342
 0.6490	79.3807
 0.6480	79.3356
 0.6470	79.2921
 0.6460	79.2355
 0.6450	79.1813
 0.6440	79.1250
 0.6430	79.0711
 0.6420	79.0325
 0.6410	78.9692
 0.6400	78.9090
 0.6390	78.8594
 0.6380	78.8097
 0.6370	78.7739
 0.6360	78.7258
 0.6350	78.6726
 0.6340	78.6188
 0.6330	78.5687
 0.6320	78.5096
 0.6310	78.4382
 0.6300	78.3916
 0.6290	78.3323
 0.6280	78.2616
 0.6270	78.2182
 0.6260	78.1722
 0.6250	78.1168
 0.6240	78.0654
 0.6230	78.0114
 0.6220	77.9603
 0.6210	77.9101
 0.6200	77.8472
 0.6190	77.7931
 0.6180	77.7441
 0.6170	77.6841
 0.6160	77.6206
 0.6150	77.5635
 0.6140	77.4969
 0.6130	77.4440
 0.6120	77.3937
 0.6110	77.3261
 0.6100	77.2608
 0.6090	77.1976
 0.6080	77.1448
 0.6070	77.0974
 0.6060	77.0399
 0.6050	76.9754
 0.6040	76.9152
 0.6030	76.8550
 0.6020	76.7987
 0.6010	76.7358
 0.6000	76.6707
 0.5990	76.6463
 0.5980	76.5958
 0.5970	76.5390
 0.5960	76.4950
 0.5950	76.4445
 0.5940	76.3842
 0.5930	76.3311
 0.5920	76.2589
 0.5910	76.1921
 0.5900	76.1101
 0.5890	76.0543
 0.5880	75.9937
 0.5870	75.9310
 0.5860	75.8664
 0.5850	75.8020
 0.5840	75.7291
 0.5830	75.6533
 0.5820	75.6014
 0.5810	75.5394
 0.5800	75.4604
 0.5790	75.3868
 0.5780	75.3284
 0.5770	75.2547
 0.5760	75.1727
 0.5750	75.1226
 0.5740	75.0462
 0.5730	74.9733
 0.5720	74.9059
 0.5710	74.8274
 0.5700	74.7554
 0.5690	74.6860
 0.5680	74.6095
 0.5670	74.5409
 0.5660	74.4554
 0.5650	74.3813
 0.5640	74.3179
 0.5630	74.2509
 0.5620	74.1732
 0.5610	74.0805
 0.5600	73.9911
 0.5590	73.9034
 0.5580	73.8145
 0.5570	73.7411
 0.5560	73.6646
 0.5550	73.5827
 0.5540	73.5007
 0.5530	73.4260
 0.5520	73.3482
 0.5510	73.2464
 0.5500	73.1667
 0.5490	73.0942
 0.5480	73.0038
 0.5470	72.9204
 0.5460	72.8322
 0.5450	72.7460
 0.5440	72.6605
 0.5430	72.5670
 0.5420	72.4822
 0.5410	72.3904
 0.5400	72.3058
 0.5390	72.2216
 0.5380	72.1334
 0.5370	72.0531
 0.5360	71.9626
 0.5350	71.8575
 0.5340	71.7561
 0.5330	71.6747
 0.5320	71.5865
 0.5310	71.4852
 0.5300	71.3871
 0.5290	71.2942
 0.5280	71.1828
 0.5270	71.0999
 0.5260	71.0036
 0.5250	70.9178
 0.5240	70.8249
 0.5230	70.7147
 0.5220	70.6033
 0.5210	70.5138
 0.5200	70.4408
 0.5190	70.3114
 0.5180	70.2126
 0.5170	70.1286
 0.5160	70.0291
 0.5150	69.9205
 0.5140	69.8064
 0.5130	69.7250
 0.5120	69.6066
 0.5110	69.5037
 0.5100	69.3972
 0.5090	69.3009
 0.5080	69.1977
 0.5070	69.0878
 0.5060	68.9827
 0.5050	68.8738
 0.5040	68.7746
 0.5030	68.6646
 0.5020	68.5440
 0.5010	68.4651
 0.5000	68.3279
 0.4990	68.2399
 0.4980	68.1266
 0.4970	68.0229
 0.4960	67.9169
 0.4950	67.8018
 0.4940	67.7037
 0.4930	67.6160
 0.4920	67.5151
 0.4910	67.4053
 0.4900	67.2964
 0.4890	67.2028
 0.4880	67.0778
 0.4870	66.9747
 0.4860	66.8623
 0.4850	66.7348
 0.4840	66.6516
 0.4830	66.5152
 0.4820	66.4177
 0.4810	66.3329
 0.4800	66.2184
 0.4790	66.1142
 0.4780	66.0463
 0.4770	65.9221
 0.4760	65.8264
 0.4750	65.7467
 0.4740	65.6315
 0.4730	65.5225
 0.4720	65.4051
 0.4710	65.2882
 0.4700	65.1967
 0.4690	65.0980
 0.4680	64.9840
 0.4670	64.8688
 0.4660	64.7730
 0.4650	64.6434
 0.4640	64.5340
 0.4630	64.4245
 0.4620	64.2965
 0.4610	64.1993
 0.4600	64.1091
 0.4590	63.9800
 0.4580	63.8711
 0.4570	63.7283
 0.4560	63.6153
 0.4550	63.4809
 0.4540	63.3396
 0.4530	63.2356
 0.4520	63.1033
 0.4510	62.9528
 0.4500	62.8162
 0.4490	62.6840
 0.4480	62.5658
 0.4470	62.4163
 0.4460	62.2669
 0.4450	62.1180
 0.4440	61.9917
 0.4430	61.8375
 0.4420	61.6854
 0.4410	61.5560
 0.4400	61.4317
 0.4390	61.2867
 0.4380	61.1510
 0.4370	61.0003
 0.4360	60.8386
 0.4350	60.6726
 0.4340	60.5374
 0.4330	60.3738
 0.4320	60.2298
 0.4310	60.0839
 0.4300	59.9157
 0.4290	59.7576
 0.4280	59.6355
 0.4270	59.4505
 0.4260	59.2950
 0.4250	59.1116
 0.4240	58.9581
 0.4230	58.7952
 0.4220	58.6442
 0.4210	58.4926
 0.4200	58.3394
 0.4190	58.1799
 0.4180	58.0194
 0.4170	57.8547
 0.4160	57.7087
 0.4150	57.5407
 0.4140	57.3828
 0.4130	57.2235
 0.4120	57.0422
 0.4110	56.8662
 0.4100	56.7246
 0.4090	56.5709
 0.4080	56.4062
 0.4070	56.2381
 0.4060	56.0572
 0.4050	55.8872
 0.4040	55.7168
 0.4030	55.5248
 0.4020	55.3582
 0.4010	55.1813
 0.4000	55.0022
