Name: Epidote Ca_2(Al,Fe^3+)_3O.SiO_4.Si_2O_7.OH
Type: Mineral
Class: Silicate
Subclass: Sorosilicate
Particle Size: Medium
Sample No.: SS-1A
Owner: JPL
Wavelength Range: VSWIR
Origin: Mexico, Baja California Norte, Valle De La Trinidad
Collection Date: N/A
Description: Particle size was 45-125um.Collected by Burminco Original ASTER Spectral Library name was jpl.beckman.mineral.silicate.sorosilicate.medium.ss01a.spectrum.txt
Measurement: Hemispherical reflectance
First Column: X
Second Column: Y
X Units: Wavelength (micrometers)
Y Units:Reflectance (percent)
First X Value:  0.4000
Last X Value:  2.5000
Number of X Values: 826
Additional Information: mineral.silicate.sorosilicate.medium.vswir.ss-1a.jpl.beckman.ancillary.txt

 0.4000	 6.1800
 0.4010	 6.2300
 0.4020	 6.1700
 0.4030	 6.4000
 0.4040	 6.3900
 0.4050	 6.3800
 0.4060	 6.5700
 0.4070	 6.6300
 0.4080	 6.8700
 0.4090	 6.8700
 0.4100	 7.0000
 0.4110	 7.2900
 0.4120	 7.3400
 0.4130	 7.5800
 0.4140	 7.6600
 0.4150	 7.9600
 0.4160	 8.2000
 0.4170	 8.3700
 0.4180	 8.5300
 0.4190	 8.6700
 0.4200	 8.9600
 0.4210	 9.3600
 0.4220	 9.5200
 0.4230	 9.7100
 0.4240	10.0200
 0.4250	10.2800
 0.4260	10.6400
 0.4270	10.7500
 0.4280	11.1500
 0.4290	11.5700
 0.4300	11.7500
 0.4310	12.0400
 0.4320	12.2900
 0.4330	12.6500
 0.4340	13.0700
 0.4350	13.2500
 0.4360	13.5100
 0.4370	13.6200
 0.4380	13.8500
 0.4390	14.1000
 0.4400	14.1000
 0.4410	14.0400
 0.4420	14.1800
 0.4430	14.1600
 0.4440	14.3100
 0.4450	14.2000
 0.4460	14.1200
 0.4470	14.0600
 0.4480	13.7500
 0.4490	13.5500
 0.4500	13.0300
 0.4510	12.7800
 0.4520	12.5400
 0.4530	12.4100
 0.4540	12.4900
 0.4550	12.5200
 0.4560	12.8300
 0.4570	13.1500
 0.4580	13.2900
 0.4590	13.4600
 0.4600	13.3600
 0.4610	13.6100
 0.4620	13.4700
 0.4630	13.4100
 0.4640	13.2100
 0.4650	13.0300
 0.4660	12.9400
 0.4670	12.7000
 0.4680	12.6200
 0.4690	12.5500
 0.4700	12.6000
 0.4710	12.7400
 0.4720	12.6600
 0.4730	12.8900
 0.4740	13.0300
 0.4750	13.2100
 0.4760	13.4700
 0.4770	13.6900
 0.4780	14.1000
 0.4790	14.5700
 0.4800	14.8700
 0.4810	15.2200
 0.4820	15.5700
 0.4830	16.0000
 0.4840	16.4500
 0.4850	16.7900
 0.4860	17.1800
 0.4870	17.4800
 0.4880	17.8700
 0.4890	18.2600
 0.4900	18.5300
 0.4910	18.9200
 0.4920	19.1700
 0.4930	19.4200
 0.4940	19.8100
 0.4950	19.9300
 0.4960	20.3800
 0.4970	20.5900
 0.4980	20.8000
 0.4990	21.0700
 0.5000	21.1700
 0.5010	21.5000
 0.5020	21.7100
 0.5030	21.7700
 0.5040	21.9400
 0.5050	22.1000
 0.5060	22.4600
 0.5070	22.5900
 0.5080	22.7000
 0.5090	22.7600
 0.5100	22.9400
 0.5110	23.2100
 0.5120	23.4200
 0.5130	23.4700
 0.5140	23.5600
 0.5150	23.5900
 0.5160	23.8100
 0.5170	23.9100
 0.5180	23.9600
 0.5190	24.0600
 0.5200	24.1100
 0.5210	24.2700
 0.5220	24.3300
 0.5230	24.4000
 0.5240	24.4800
 0.5250	24.5300
 0.5260	24.6200
 0.5270	24.7300
 0.5280	24.6400
 0.5290	24.7800
 0.5300	24.7600
 0.5310	24.8600
 0.5320	25.0600
 0.5330	24.8500
 0.5340	25.0200
 0.5350	25.0000
 0.5360	24.9400
 0.5370	25.1400
 0.5380	25.0800
 0.5390	25.2000
 0.5400	25.1800
 0.5410	25.1300
 0.5420	25.2200
 0.5430	25.1700
 0.5440	25.2400
 0.5450	25.2700
 0.5460	25.3000
 0.5470	25.3100
 0.5480	25.2000
 0.5490	25.2900
 0.5500	25.3200
 0.5510	25.2300
 0.5520	25.1800
 0.5530	25.0700
 0.5540	25.1200
 0.5550	25.2300
 0.5560	25.1300
 0.5570	25.0800
 0.5580	25.0900
 0.5590	25.0900
 0.5600	25.0700
 0.5610	25.2300
 0.5620	25.1200
 0.5630	25.2100
 0.5640	25.1900
 0.5650	25.2600
 0.5660	25.2500
 0.5670	25.1600
 0.5680	25.2500
 0.5690	25.1800
 0.5700	25.1500
 0.5710	25.2700
 0.5720	25.1100
 0.5730	25.1200
 0.5740	25.0500
 0.5750	25.0400
 0.5760	25.1000
 0.5770	25.0000
 0.5780	25.1200
 0.5790	25.0400
 0.5800	24.9500
 0.5810	25.0700
 0.5820	24.9900
 0.5830	25.0600
 0.5840	24.9500
 0.5850	24.9700
 0.5860	25.0300
 0.5870	25.0700
 0.5880	25.1200
 0.5890	25.0400
 0.5900	25.0600
 0.5910	25.0800
 0.5920	25.0600
 0.5930	25.0300
 0.5940	25.0700
 0.5950	25.0700
 0.5960	25.0700
 0.5970	25.0200
 0.5980	25.1200
 0.5990	25.2100
 0.6000	25.2000
 0.6010	25.1800
 0.6020	25.1500
 0.6030	25.2200
 0.6040	25.3200
 0.6050	25.2500
 0.6060	25.2600
 0.6070	25.3200
 0.6080	25.2600
 0.6090	25.3800
 0.6100	25.4100
 0.6110	25.4500
 0.6120	25.4000
 0.6130	25.3600
 0.6140	25.5800
 0.6150	25.5900
 0.6160	25.5800
 0.6170	25.5600
 0.6180	25.4900
 0.6190	25.6800
 0.6200	25.7100
 0.6210	25.7000
 0.6220	25.7300
 0.6230	25.8700
 0.6240	25.9400
 0.6250	25.9600
 0.6260	25.9500
 0.6270	25.9500
 0.6280	26.0000
 0.6290	26.1000
 0.6300	26.1900
 0.6310	26.2800
 0.6320	26.3800
 0.6330	26.3800
 0.6340	26.4100
 0.6350	26.4300
 0.6360	26.6300
 0.6370	26.6800
 0.6380	26.6100
 0.6390	26.7000
 0.6400	26.7200
 0.6410	26.9400
 0.6420	27.0100
 0.6430	26.9900
 0.6440	27.1800
 0.6450	27.1800
 0.6460	27.3100
 0.6470	27.3800
 0.6480	27.3900
 0.6490	27.4900
 0.6500	27.5800
 0.6510	27.7100
 0.6520	27.8400
 0.6530	27.8700
 0.6540	27.9300
 0.6550	27.9300
 0.6560	28.0600
 0.6570	28.2400
 0.6580	28.1500
 0.6590	28.3400
 0.6600	28.4000
 0.6610	28.5000
 0.6620	28.6600
 0.6630	28.7400
 0.6640	28.8700
 0.6650	28.8300
 0.6660	28.8900
 0.6670	29.0400
 0.6680	29.1900
 0.6690	29.1500
 0.6700	29.2200
 0.6710	29.3000
 0.6720	29.3900
 0.6730	29.5500
 0.6740	29.7300
 0.6750	29.7500
 0.6760	29.8100
 0.6770	29.9200
 0.6780	29.9400
 0.6790	30.1900
 0.6800	30.2500
 0.6810	30.2500
 0.6820	30.3200
 0.6830	30.4000
 0.6840	30.5400
 0.6850	30.6500
 0.6860	30.6300
 0.6870	30.8200
 0.6880	30.8200
 0.6890	30.8000
 0.6900	31.0100
 0.6910	31.0700
 0.6920	31.1600
 0.6930	31.2200
 0.6940	31.2200
 0.6950	31.3600
 0.6960	31.4900
 0.6970	31.5900
 0.6980	31.6300
 0.6990	31.5900
 0.7000	31.6900
 0.7010	31.9100
 0.7020	31.8000
 0.7030	31.9400
 0.7040	32.0300
 0.7050	32.0900
 0.7060	32.2000
 0.7070	32.1800
 0.7080	32.3300
 0.7090	32.4400
 0.7100	32.5000
 0.7110	32.4600
 0.7120	32.4600
 0.7130	32.5800
 0.7140	32.7600
 0.7150	32.7400
 0.7160	32.8500
 0.7170	32.8500
 0.7180	32.8700
 0.7190	33.0200
 0.7200	33.0400
 0.7210	33.1700
 0.7220	33.1500
 0.7230	33.1700
 0.7240	33.3100
 0.7250	33.2700
 0.7260	33.4300
 0.7270	33.4200
 0.7280	33.4200
 0.7290	33.5200
 0.7300	33.3900
 0.7310	33.6000
 0.7320	33.6900
 0.7330	33.6900
 0.7340	33.6900
 0.7350	33.6800
 0.7360	33.7900
 0.7370	33.9500
 0.7380	33.8500
 0.7390	33.9400
 0.7400	33.9000
 0.7410	34.0300
 0.7420	34.0800
 0.7430	34.0100
 0.7440	34.0900
 0.7450	34.0500
 0.7460	34.1200
 0.7470	34.2300
 0.7480	34.1200
 0.7490	34.2100
 0.7500	34.3100
 0.7510	34.2400
 0.7520	34.3300
 0.7530	34.2600
 0.7540	34.3600
 0.7550	34.3900
 0.7560	34.4400
 0.7570	34.4600
 0.7580	34.3700
 0.7590	34.4100
 0.7600	34.5400
 0.7610	34.4000
 0.7620	34.4700
 0.7630	34.4700
 0.7640	34.4900
 0.7650	34.5600
 0.7660	34.4800
 0.7670	34.6200
 0.7680	34.6400
 0.7690	34.4400
 0.7700	34.4800
 0.7710	34.4400
 0.7720	34.5100
 0.7730	34.5700
 0.7740	34.5600
 0.7750	34.7100
 0.7760	34.5600
 0.7770	34.6000
 0.7780	34.7300
 0.7790	34.5000
 0.7800	34.5800
 0.7810	34.6200
 0.7820	34.5600
 0.7830	34.7100
 0.7840	34.5700
 0.7850	34.6700
 0.7860	34.7100
 0.7870	34.5500
 0.7880	34.5500
 0.7890	34.5800
 0.7900	34.6800
 0.7910	34.7100
 0.7920	34.6300
 0.7930	34.8000
 0.7940	34.6000
 0.7950	34.6100
 0.7960	34.6700
 0.7970	34.5800
 0.7980	34.7100
 0.7990	34.7500
 0.8000	35.4900
 0.8040	35.4700
 0.8080	35.4900
 0.8120	35.4500
 0.8160	35.5900
 0.8200	35.6600
 0.8240	35.7400
 0.8280	35.9900
 0.8320	36.1200
 0.8360	36.3300
 0.8400	36.5600
 0.8440	36.7800
 0.8480	36.9600
 0.8520	37.2500
 0.8560	37.4600
 0.8600	37.7200
 0.8640	38.0500
 0.8680	38.3200
 0.8720	38.7000
 0.8760	38.9000
 0.8800	39.2200
 0.8840	39.4900
 0.8880	39.7800
 0.8920	39.9500
 0.8960	40.1400
 0.9000	40.2000
 0.9040	40.3100
 0.9080	40.5000
 0.9120	40.5900
 0.9160	40.6500
 0.9200	40.7500
 0.9240	40.8800
 0.9280	40.9500
 0.9320	41.0100
 0.9360	40.9700
 0.9400	40.9300
 0.9440	40.9000
 0.9480	40.8400
 0.9520	40.7300
 0.9560	40.7200
 0.9600	40.6500
 0.9640	40.5700
 0.9680	40.5300
 0.9720	40.3900
 0.9760	40.3700
 0.9800	40.3000
 0.9840	40.2900
 0.9880	40.2200
 0.9920	40.1300
 0.9960	40.0500
 1.0000	39.9700
 1.0040	39.9400
 1.0080	39.8600
 1.0120	39.8200
 1.0160	39.7400
 1.0200	39.6800
 1.0240	39.6600
 1.0280	39.5100
 1.0320	39.5000
 1.0360	39.5600
 1.0400	39.5500
 1.0440	39.6100
 1.0480	39.6300
 1.0520	39.7200
 1.0560	39.8500
 1.0600	39.8300
 1.0640	39.9000
 1.0680	39.9400
 1.0720	40.0000
 1.0760	40.1500
 1.0800	40.2500
 1.0840	40.3700
 1.0880	40.5400
 1.0920	40.7700
 1.0960	40.9400
 1.1000	41.1500
 1.1040	41.4700
 1.1080	41.6600
 1.1120	41.8700
 1.1160	42.1100
 1.1200	42.4000
 1.1240	42.7200
 1.1280	42.9700
 1.1320	43.2300
 1.1360	43.4200
 1.1400	43.6800
 1.1440	43.9000
 1.1480	44.2200
 1.1520	44.4700
 1.1560	44.7700
 1.1600	45.0600
 1.1640	45.3700
 1.1680	45.7500
 1.1720	46.0700
 1.1760	46.3700
 1.1800	46.6900
 1.1840	46.9100
 1.1880	47.2700
 1.1920	47.6200
 1.1960	47.8600
 1.2000	48.1800
 1.2040	48.5100
 1.2080	48.7200
 1.2120	49.0000
 1.2160	49.3500
 1.2200	49.6300
 1.2240	49.9400
 1.2280	50.1300
 1.2320	50.3200
 1.2360	50.5300
 1.2400	50.6700
 1.2440	50.8300
 1.2480	50.9100
 1.2520	51.0800
 1.2560	51.2400
 1.2600	51.4200
 1.2640	51.4800
 1.2680	51.6600
 1.2720	51.7900
 1.2760	51.8900
 1.2800	52.0300
 1.2840	52.0300
 1.2880	52.1800
 1.2920	52.1300
 1.2960	52.2400
 1.3000	52.2800
 1.3040	52.2500
 1.3080	52.3200
 1.3120	52.3900
 1.3160	52.4400
 1.3200	52.5500
 1.3240	52.6600
 1.3280	52.7200
 1.3320	52.8200
 1.3360	52.8400
 1.3400	52.9800
 1.3440	52.9700
 1.3480	53.0700
 1.3520	53.1000
 1.3560	53.1800
 1.3600	53.2800
 1.3640	53.3000
 1.3680	53.2900
 1.3720	53.3100
 1.3760	53.3900
 1.3800	53.3800
 1.3840	53.4500
 1.3880	53.5100
 1.3920	53.5600
 1.3960	53.6000
 1.4000	53.6200
 1.4040	53.5900
 1.4080	53.6000
 1.4120	53.5900
 1.4160	53.6400
 1.4200	53.6500
 1.4240	53.6500
 1.4280	53.7000
 1.4320	53.7100
 1.4360	53.7200
 1.4400	53.8000
 1.4440	53.8100
 1.4480	53.7600
 1.4520	53.8000
 1.4560	53.7700
 1.4600	53.7200
 1.4640	53.6200
 1.4680	53.5200
 1.4720	53.4200
 1.4760	53.3400
 1.4800	53.2000
 1.4840	53.0600
 1.4880	52.9600
 1.4920	52.7500
 1.4960	52.6800
 1.5000	52.4700
 1.5040	52.1500
 1.5080	51.8900
 1.5120	51.6900
 1.5160	51.4400
 1.5200	51.2100
 1.5240	50.9000
 1.5280	50.6400
 1.5320	50.4600
 1.5360	50.2700
 1.5400	50.1100
 1.5440	50.0200
 1.5480	50.1400
 1.5520	50.3800
 1.5560	50.6800
 1.5600	50.9100
 1.5640	51.2200
 1.5680	51.4200
 1.5720	51.5800
 1.5760	51.7900
 1.5800	51.8600
 1.5840	52.0700
 1.5880	52.1300
 1.5920	52.2600
 1.5960	52.3500
 1.6000	52.5100
 1.6040	52.6300
 1.6080	52.6900
 1.6120	52.7200
 1.6160	52.8200
 1.6200	52.9400
 1.6240	52.9500
 1.6280	52.9600
 1.6320	53.0100
 1.6360	53.0800
 1.6400	53.1000
 1.6440	53.1700
 1.6480	53.1400
 1.6520	53.2800
 1.6560	53.2800
 1.6600	53.3800
 1.6640	53.4300
 1.6680	53.4900
 1.6720	53.5000
 1.6760	53.5400
 1.6800	53.6000
 1.6840	53.6100
 1.6880	53.6900
 1.6920	53.7300
 1.6960	53.7700
 1.7000	53.8500
 1.7040	53.8600
 1.7080	53.9200
 1.7120	53.9900
 1.7160	54.0800
 1.7200	54.1900
 1.7240	54.2400
 1.7280	54.3600
 1.7320	54.3800
 1.7360	54.4500
 1.7400	54.4900
 1.7440	54.5100
 1.7480	54.5900
 1.7520	54.7200
 1.7560	54.8000
 1.7600	54.8000
 1.7640	54.8800
 1.7680	54.9100
 1.7720	54.9400
 1.7760	54.9700
 1.7800	55.0800
 1.7840	55.1000
 1.7880	55.1800
 1.7920	55.2300
 1.7960	55.3300
 1.8000	55.2500
 1.8040	55.3300
 1.8080	55.2500
 1.8120	54.9500
 1.8160	54.8100
 1.8200	54.6200
 1.8240	54.5500
 1.8280	54.6400
 1.8320	54.8100
 1.8360	55.1300
 1.8400	55.4200
 1.8440	55.6400
 1.8480	55.8800
 1.8520	56.0000
 1.8560	56.1500
 1.8600	56.1700
 1.8640	56.2200
 1.8680	56.2800
 1.8720	56.3400
 1.8760	56.3500
 1.8800	56.4100
 1.8840	56.4900
 1.8880	56.6400
 1.8920	56.8100
 1.8960	56.9600
 1.9000	57.0000
 1.9040	57.0300
 1.9080	57.1900
 1.9120	57.2200
 1.9160	57.2300
 1.9200	57.2500
 1.9240	57.2000
 1.9280	57.2100
 1.9320	57.1200
 1.9360	57.0700
 1.9400	57.0200
 1.9440	56.9900
 1.9480	57.1700
 1.9520	57.3800
 1.9560	57.5800
 1.9600	57.7100
 1.9640	58.0300
 1.9680	58.2000
 1.9720	58.3300
 1.9760	58.4900
 1.9800	58.5200
 1.9840	58.7000
 1.9880	58.7400
 1.9920	58.8000
 1.9960	58.9800
 2.0000	59.0200
 2.0040	59.0600
 2.0080	59.0700
 2.0120	59.2300
 2.0160	59.3100
 2.0200	59.4600
 2.0240	59.4200
 2.0280	59.5600
 2.0320	59.6900
 2.0360	59.7000
 2.0400	59.8000
 2.0440	59.8300
 2.0480	59.8800
 2.0520	59.9100
 2.0560	59.9400
 2.0600	59.9600
 2.0640	59.9400
 2.0680	60.0100
 2.0720	60.0400
 2.0760	60.0600
 2.0800	60.1800
 2.0840	60.2300
 2.0880	60.2100
 2.0920	60.3100
 2.0960	60.3400
 2.1000	60.4200
 2.1040	60.4400
 2.1080	60.4900
 2.1120	60.4700
 2.1160	60.4700
 2.1200	60.5400
 2.1240	60.4300
 2.1280	60.4800
 2.1320	60.4200
 2.1360	60.3200
 2.1400	60.2800
 2.1440	60.2100
 2.1480	60.1400
 2.1520	60.0000
 2.1560	60.0200
 2.1600	59.9200
 2.1640	59.8700
 2.1680	59.7000
 2.1720	59.5700
 2.1760	59.3700
 2.1800	59.1400
 2.1840	58.9200
 2.1880	58.8100
 2.1920	58.5800
 2.1960	58.4300
 2.2000	58.2500
 2.2040	57.8300
 2.2080	57.4600
 2.2120	56.9700
 2.2160	56.3600
 2.2200	55.4800
 2.2240	54.3500
 2.2280	52.8200
 2.2320	51.2200
 2.2360	49.4900
 2.2400	47.8800
 2.2440	46.6200
 2.2480	45.8400
 2.2520	45.5500
 2.2560	45.6700
 2.2600	46.0800
 2.2640	46.4400
 2.2680	46.7200
 2.2720	46.6500
 2.2760	46.2900
 2.2800	45.6900
 2.2840	44.6400
 2.2880	43.3300
 2.2920	41.5900
 2.2960	39.7000
 2.3000	37.8300
 2.3040	34.8400
 2.3080	32.7200
 2.3120	30.6300
 2.3160	28.8100
 2.3200	27.3000
 2.3240	26.0200
 2.3280	25.2700
 2.3320	24.9600
 2.3360	25.3900
 2.3400	26.6000
 2.3440	28.4500
 2.3480	30.9400
 2.3520	33.9000
 2.3560	37.1200
 2.3600	40.2600
 2.3640	43.2500
 2.3680	45.8300
 2.3720	48.1400
 2.3760	50.0100
 2.3800	51.5600
 2.3840	52.7000
 2.3880	53.6100
 2.3920	54.3500
 2.3960	55.0600
 2.4000	55.5700
 2.4040	55.9700
 2.4080	56.3200
 2.4120	56.6600
 2.4160	56.8500
 2.4200	56.9500
 2.4240	57.1300
 2.4280	57.0500
 2.4320	57.0100
 2.4360	56.9300
 2.4400	56.8300
 2.4440	56.7000
 2.4480	56.5500
 2.4520	56.3600
 2.4560	56.2600
 2.4600	56.0200
 2.4640	55.8700
 2.4680	55.6500
 2.4720	55.4500
 2.4760	55.2000
 2.4800	55.0900
 2.4840	54.8500
 2.4880	54.5900
 2.4920	54.4000
 2.4960	54.2300
 2.5000	54.0400
