Name: Ferroaxinite Ca_2Fe^2+Al_2BSi_4O_15(OH)
Type: Mineral
Class: Silicate
Subclass: Cyclosilicate
Particle Size: Coarse
Sample No.: CS-4A
Owner: JPL
Wavelength Range: VSWIR
Origin: Mexico, Baja California Norte, Los Gavelontos
Collection Date: N/A
Description: Particle size was 125-500um.Collected by Ward's Original ASTER Spectral Library name was jpl.beckman.mineral.silicate.cyclosilicate.coarse.cs04a.spectrum.txt
Measurement: Hemispherical reflectance
First Column: X
Second Column: Y
X Units: Wavelength (micrometers)
Y Units:Reflectance (percent)
First X Value:  0.4000
Last X Value:  2.5000
Number of X Values: 826
Additional Information: mineral.silicate.cyclosilicate.coarse.vswir.cs-4a.jpl.beckman.ancillary.txt

 0.4000	12.8600
 0.4010	13.2300
 0.4020	13.2500
 0.4030	13.3400
 0.4040	13.5100
 0.4050	13.6900
 0.4060	13.7400
 0.4070	13.6100
 0.4080	13.5600
 0.4090	13.0900
 0.4100	12.1900
 0.4110	11.2800
 0.4120	10.6900
 0.4130	10.6400
 0.4140	10.8000
 0.4150	11.0400
 0.4160	11.2800
 0.4170	11.7600
 0.4180	11.8400
 0.4190	11.9000
 0.4200	12.1600
 0.4210	12.0500
 0.4220	12.1800
 0.4230	12.1200
 0.4240	12.0600
 0.4250	12.0300
 0.4260	12.1800
 0.4270	12.0400
 0.4280	12.0300
 0.4290	12.0900
 0.4300	12.1100
 0.4310	12.0600
 0.4320	11.9400
 0.4330	12.0000
 0.4340	12.0300
 0.4350	11.8800
 0.4360	11.7900
 0.4370	11.8300
 0.4380	11.9900
 0.4390	12.1700
 0.4400	12.2700
 0.4410	12.4100
 0.4420	12.7500
 0.4430	12.8100
 0.4440	12.8600
 0.4450	12.9700
 0.4460	13.1800
 0.4470	13.3600
 0.4480	13.4000
 0.4490	13.4000
 0.4500	13.5600
 0.4510	13.6600
 0.4520	13.7500
 0.4530	13.6800
 0.4540	13.8600
 0.4550	14.0100
 0.4560	14.0800
 0.4570	13.9900
 0.4580	14.1900
 0.4590	14.0600
 0.4600	14.1100
 0.4610	14.2000
 0.4620	13.9700
 0.4630	14.0700
 0.4640	14.0800
 0.4650	14.2500
 0.4660	14.1800
 0.4670	14.2000
 0.4680	14.2000
 0.4690	14.4000
 0.4700	14.2900
 0.4710	14.3600
 0.4720	14.4000
 0.4730	14.5200
 0.4740	14.4900
 0.4750	14.4700
 0.4760	14.5600
 0.4770	14.7000
 0.4780	14.6600
 0.4790	14.5700
 0.4800	14.5700
 0.4810	14.5900
 0.4820	14.6100
 0.4830	14.5100
 0.4840	14.3600
 0.4850	14.5100
 0.4860	14.4700
 0.4870	14.2700
 0.4880	14.2500
 0.4890	14.2700
 0.4900	14.3700
 0.4910	14.2700
 0.4920	14.1800
 0.4930	14.1400
 0.4940	14.1800
 0.4950	14.2200
 0.4960	14.1500
 0.4970	14.0100
 0.4980	14.1700
 0.4990	14.2200
 0.5000	14.1000
 0.5010	14.1300
 0.5020	14.1800
 0.5030	14.2400
 0.5040	14.1900
 0.5050	14.0800
 0.5060	14.1200
 0.5070	14.1400
 0.5080	14.1000
 0.5090	14.0500
 0.5100	14.0000
 0.5110	14.1000
 0.5120	14.0800
 0.5130	13.9800
 0.5140	14.0200
 0.5150	14.1500
 0.5160	14.1200
 0.5170	13.9600
 0.5180	14.0800
 0.5190	14.1200
 0.5200	14.1600
 0.5210	14.1100
 0.5220	14.0600
 0.5230	14.1800
 0.5240	14.2300
 0.5250	14.0800
 0.5260	14.1000
 0.5270	14.2900
 0.5280	14.1700
 0.5290	14.1100
 0.5300	14.1400
 0.5310	14.2000
 0.5320	14.1300
 0.5330	14.1600
 0.5340	14.1400
 0.5350	14.2200
 0.5360	14.1700
 0.5370	14.1200
 0.5380	14.2400
 0.5390	14.3200
 0.5400	14.2700
 0.5410	14.1900
 0.5420	14.2200
 0.5430	14.4500
 0.5440	14.3100
 0.5450	14.3400
 0.5460	14.4200
 0.5470	14.5200
 0.5480	14.4900
 0.5490	14.4600
 0.5500	14.5600
 0.5510	14.6100
 0.5520	14.6000
 0.5530	14.6100
 0.5540	14.6700
 0.5550	14.8300
 0.5560	14.7400
 0.5570	14.6600
 0.5580	14.8800
 0.5590	14.9000
 0.5600	14.8300
 0.5610	15.1600
 0.5620	15.1100
 0.5630	15.1600
 0.5640	15.4000
 0.5650	15.2400
 0.5660	15.3100
 0.5670	15.3900
 0.5680	15.4600
 0.5690	15.4900
 0.5700	15.5300
 0.5710	15.6000
 0.5720	15.7500
 0.5730	15.7500
 0.5740	15.7100
 0.5750	15.7400
 0.5760	16.0400
 0.5770	15.8900
 0.5780	15.9100
 0.5790	16.0900
 0.5800	16.1000
 0.5810	16.1200
 0.5820	16.1900
 0.5830	16.2300
 0.5840	16.3800
 0.5850	16.5500
 0.5860	16.3500
 0.5870	16.4700
 0.5880	16.7400
 0.5890	16.7000
 0.5900	16.7500
 0.5910	16.8200
 0.5920	16.9500
 0.5930	17.0000
 0.5940	17.0000
 0.5950	17.0600
 0.5960	17.3000
 0.5970	17.3500
 0.5980	17.3500
 0.5990	17.4800
 0.6000	17.6400
 0.6010	17.6500
 0.6020	17.6900
 0.6030	17.8000
 0.6040	18.1300
 0.6050	18.0600
 0.6060	18.0900
 0.6070	18.3400
 0.6080	18.4400
 0.6090	18.4100
 0.6100	18.5400
 0.6110	18.6200
 0.6120	18.6600
 0.6130	18.9000
 0.6140	18.9200
 0.6150	19.0500
 0.6160	19.2000
 0.6170	19.1800
 0.6180	19.2400
 0.6190	19.4400
 0.6200	19.5600
 0.6210	19.4900
 0.6220	19.6600
 0.6230	19.8900
 0.6240	19.9200
 0.6250	19.9500
 0.6260	20.0700
 0.6270	20.2600
 0.6280	20.2100
 0.6290	20.3200
 0.6300	20.5100
 0.6310	20.6300
 0.6320	20.7100
 0.6330	20.7100
 0.6340	20.8400
 0.6350	21.0400
 0.6360	21.1100
 0.6370	21.1400
 0.6380	21.2400
 0.6390	21.4300
 0.6400	21.4400
 0.6410	21.5100
 0.6420	21.7700
 0.6430	21.8300
 0.6440	21.8500
 0.6450	21.8900
 0.6460	22.1700
 0.6470	22.3300
 0.6480	22.3600
 0.6490	22.4500
 0.6500	22.4800
 0.6510	22.8100
 0.6520	22.7200
 0.6530	22.8400
 0.6540	23.0100
 0.6550	23.2200
 0.6560	23.2600
 0.6570	23.2500
 0.6580	23.4500
 0.6590	23.7000
 0.6600	23.7500
 0.6610	23.7800
 0.6620	23.9000
 0.6630	24.1600
 0.6640	24.2100
 0.6650	24.3000
 0.6660	24.4300
 0.6670	24.6300
 0.6680	24.7600
 0.6690	24.7700
 0.6700	25.0200
 0.6710	25.1600
 0.6720	25.1600
 0.6730	25.3400
 0.6740	25.4700
 0.6750	25.7600
 0.6760	25.7200
 0.6770	25.7800
 0.6780	26.0500
 0.6790	26.2300
 0.6800	26.2900
 0.6810	26.3600
 0.6820	26.5800
 0.6830	26.8300
 0.6840	26.8900
 0.6850	27.0000
 0.6860	27.0500
 0.6870	27.4300
 0.6880	27.3900
 0.6890	27.5600
 0.6900	27.6700
 0.6910	27.8500
 0.6920	27.9500
 0.6930	28.0900
 0.6940	28.2700
 0.6950	28.5000
 0.6960	28.5700
 0.6970	28.6500
 0.6980	28.7300
 0.6990	29.0100
 0.7000	28.9100
 0.7010	29.1700
 0.7020	29.3700
 0.7030	29.6400
 0.7040	29.7900
 0.7050	29.7700
 0.7060	29.9400
 0.7070	30.1200
 0.7080	30.2300
 0.7090	30.3500
 0.7100	30.4600
 0.7110	30.6800
 0.7120	30.8600
 0.7130	30.9700
 0.7140	30.9600
 0.7150	31.3000
 0.7160	31.4000
 0.7170	31.5500
 0.7180	31.5500
 0.7190	31.7500
 0.7200	31.9800
 0.7210	32.1300
 0.7220	32.0800
 0.7230	32.3900
 0.7240	32.6000
 0.7250	32.6800
 0.7260	32.8300
 0.7270	33.0700
 0.7280	33.2600
 0.7290	33.2700
 0.7300	33.3100
 0.7310	33.4700
 0.7320	33.7200
 0.7330	33.7800
 0.7340	33.8400
 0.7350	34.1300
 0.7360	34.3500
 0.7370	34.4200
 0.7380	34.3800
 0.7390	34.6300
 0.7400	34.8800
 0.7410	34.9700
 0.7420	34.9500
 0.7430	35.1300
 0.7440	35.3000
 0.7450	35.4900
 0.7460	35.6000
 0.7470	35.6200
 0.7480	35.9000
 0.7490	36.0300
 0.7500	36.1300
 0.7510	36.1400
 0.7520	36.3300
 0.7530	36.5500
 0.7540	36.6400
 0.7550	36.6200
 0.7560	36.7800
 0.7570	36.9600
 0.7580	37.1500
 0.7590	37.1300
 0.7600	37.2600
 0.7610	37.4400
 0.7620	37.6200
 0.7630	37.6100
 0.7640	37.7100
 0.7650	37.9100
 0.7660	38.0100
 0.7670	38.0900
 0.7680	38.1400
 0.7690	38.1900
 0.7700	38.4700
 0.7710	38.4300
 0.7720	38.5600
 0.7730	38.6900
 0.7740	38.8600
 0.7750	38.9400
 0.7760	38.8300
 0.7770	38.9300
 0.7780	39.2000
 0.7790	39.2100
 0.7800	39.1200
 0.7810	39.2100
 0.7820	39.4100
 0.7830	39.3400
 0.7840	39.4300
 0.7850	39.5300
 0.7860	39.6600
 0.7870	39.7400
 0.7880	39.6400
 0.7890	39.7000
 0.7900	39.8700
 0.7910	39.9200
 0.7920	39.8600
 0.7930	39.8700
 0.7940	39.9000
 0.7950	40.0000
 0.7960	39.9800
 0.7970	39.8600
 0.7980	39.9200
 0.7990	39.9300
 0.8000	40.2400
 0.8040	40.0800
 0.8080	39.8100
 0.8120	39.5000
 0.8160	39.0700
 0.8200	38.6100
 0.8240	38.0300
 0.8280	37.3200
 0.8320	36.5600
 0.8360	35.7300
 0.8400	34.8400
 0.8440	33.7700
 0.8480	32.7000
 0.8520	31.6200
 0.8560	30.4900
 0.8600	29.2700
 0.8640	28.0500
 0.8680	26.7600
 0.8720	25.5900
 0.8760	24.4600
 0.8800	23.2100
 0.8840	22.0500
 0.8880	20.9200
 0.8920	19.8400
 0.8960	18.8100
 0.9000	17.7600
 0.9040	16.7700
 0.9080	15.8200
 0.9120	15.0200
 0.9160	14.2000
 0.9200	13.4400
 0.9240	12.7700
 0.9280	12.0700
 0.9320	11.3900
 0.9360	10.7800
 0.9400	10.2300
 0.9440	 9.7000
 0.9480	 9.2800
 0.9520	 8.8000
 0.9560	 8.4600
 0.9600	 8.0900
 0.9640	 7.7300
 0.9680	 7.5000
 0.9720	 7.1400
 0.9760	 6.8800
 0.9800	 6.7100
 0.9840	 6.4300
 0.9880	 6.2400
 0.9920	 5.9900
 0.9960	 5.8900
 1.0000	 5.8200
 1.0040	 5.5900
 1.0080	 5.5300
 1.0120	 5.3600
 1.0160	 5.2400
 1.0200	 5.1600
 1.0240	 5.0900
 1.0280	 4.9100
 1.0320	 4.8700
 1.0360	 4.7400
 1.0400	 4.6400
 1.0440	 4.5800
 1.0480	 4.5600
 1.0520	 4.4500
 1.0560	 4.3800
 1.0600	 4.3800
 1.0640	 4.2700
 1.0680	 4.2700
 1.0720	 4.2000
 1.0760	 4.2500
 1.0800	 4.1600
 1.0840	 4.1000
 1.0880	 4.0200
 1.0920	 4.1300
 1.0960	 4.0100
 1.1000	 4.0100
 1.1040	 3.9600
 1.1080	 3.9500
 1.1120	 3.9000
 1.1160	 3.8900
 1.1200	 3.8500
 1.1240	 3.8100
 1.1280	 3.8600
 1.1320	 3.8200
 1.1360	 3.8700
 1.1400	 3.7600
 1.1440	 3.7900
 1.1480	 3.7900
 1.1520	 3.7900
 1.1560	 3.7200
 1.1600	 3.7800
 1.1640	 3.6800
 1.1680	 3.6800
 1.1720	 3.6800
 1.1760	 3.6800
 1.1800	 3.6900
 1.1840	 3.6800
 1.1880	 3.7200
 1.1920	 3.6800
 1.1960	 3.7300
 1.2000	 3.7300
 1.2040	 3.7300
 1.2080	 3.7900
 1.2120	 3.7300
 1.2160	 3.7800
 1.2200	 3.7700
 1.2240	 3.8100
 1.2280	 3.8000
 1.2320	 3.8500
 1.2360	 3.8300
 1.2400	 3.8800
 1.2440	 3.8700
 1.2480	 3.9200
 1.2520	 4.0300
 1.2560	 4.0300
 1.2600	 4.0900
 1.2640	 4.0900
 1.2680	 4.1000
 1.2720	 4.1500
 1.2760	 4.2200
 1.2800	 4.2900
 1.2840	 4.2900
 1.2880	 4.3500
 1.2920	 4.4500
 1.2960	 4.5000
 1.3000	 4.5000
 1.3040	 4.6300
 1.3080	 4.7300
 1.3120	 4.7900
 1.3160	 4.9500
 1.3200	 5.0700
 1.3240	 5.1700
 1.3280	 5.2900
 1.3320	 5.4600
 1.3360	 5.5800
 1.3400	 5.7400
 1.3440	 5.8700
 1.3480	 6.0300
 1.3520	 6.3000
 1.3560	 6.5100
 1.3600	 6.7000
 1.3640	 6.9700
 1.3680	 7.3400
 1.3720	 7.5800
 1.3760	 7.9700
 1.3800	 8.3100
 1.3840	 8.7000
 1.3880	 9.0800
 1.3920	 9.5400
 1.3960	 9.9200
 1.4000	10.4000
 1.4040	10.9400
 1.4080	11.4400
 1.4120	12.0200
 1.4160	12.6100
 1.4200	13.2400
 1.4240	13.8800
 1.4280	14.5000
 1.4320	15.0700
 1.4360	15.6900
 1.4400	16.3500
 1.4440	16.9000
 1.4480	17.5200
 1.4520	18.1300
 1.4560	18.6600
 1.4600	19.1300
 1.4640	19.6700
 1.4680	20.1700
 1.4720	20.5300
 1.4760	20.9900
 1.4800	21.1600
 1.4840	21.4100
 1.4880	21.6300
 1.4920	21.7900
 1.4960	21.8900
 1.5000	21.9600
 1.5040	21.9100
 1.5080	21.8500
 1.5120	21.7400
 1.5160	21.6300
 1.5200	21.4700
 1.5240	21.3000
 1.5280	21.0200
 1.5320	20.9300
 1.5360	20.7300
 1.5400	20.5500
 1.5440	20.3800
 1.5480	20.2300
 1.5520	20.2100
 1.5560	20.1000
 1.5600	20.0600
 1.5640	19.9000
 1.5680	19.7900
 1.5720	19.5300
 1.5760	19.4200
 1.5800	19.1300
 1.5840	18.8800
 1.5880	18.6000
 1.5920	18.3700
 1.5960	18.0900
 1.6000	17.8900
 1.6040	17.6100
 1.6080	17.3300
 1.6120	16.9700
 1.6160	16.7800
 1.6200	16.4300
 1.6240	16.1100
 1.6280	15.8300
 1.6320	15.5900
 1.6360	15.3500
 1.6400	15.0500
 1.6440	14.8300
 1.6480	14.5600
 1.6520	14.2700
 1.6560	14.0900
 1.6600	13.8000
 1.6640	13.5000
 1.6680	13.3000
 1.6720	13.1400
 1.6760	12.9200
 1.6800	12.6100
 1.6840	12.4300
 1.6880	12.2600
 1.6920	11.9800
 1.6960	11.8000
 1.7000	11.6000
 1.7040	11.3600
 1.7080	11.2100
 1.7120	11.0000
 1.7160	10.8000
 1.7200	10.6100
 1.7240	10.4700
 1.7280	10.3700
 1.7320	10.1700
 1.7360	 9.9100
 1.7400	 9.8100
 1.7440	 9.6500
 1.7480	 9.4700
 1.7520	 9.3100
 1.7560	 9.3000
 1.7600	 9.1000
 1.7640	 8.9300
 1.7680	 8.8200
 1.7720	 8.7300
 1.7760	 8.5400
 1.7800	 8.4100
 1.7840	 8.2700
 1.7880	 8.2400
 1.7920	 8.1300
 1.7960	 8.0500
 1.8000	 7.9400
 1.8040	 7.8300
 1.8080	 7.6800
 1.8120	 7.6200
 1.8160	 7.5200
 1.8200	 7.4600
 1.8240	 7.3600
 1.8280	 7.2800
 1.8320	 7.2400
 1.8360	 7.2100
 1.8400	 7.1000
 1.8440	 7.0700
 1.8480	 6.9300
 1.8520	 6.8600
 1.8560	 6.8300
 1.8600	 6.7000
 1.8640	 6.6400
 1.8680	 6.5900
 1.8720	 6.5000
 1.8760	 6.4500
 1.8800	 6.3800
 1.8840	 6.3700
 1.8880	 6.3000
 1.8920	 6.1700
 1.8960	 6.1700
 1.9000	 6.1700
 1.9040	 6.0800
 1.9080	 6.0200
 1.9120	 5.9400
 1.9160	 5.8900
 1.9200	 5.8700
 1.9240	 5.8800
 1.9280	 5.8100
 1.9320	 5.8200
 1.9360	 5.7500
 1.9400	 5.7300
 1.9440	 5.7000
 1.9480	 5.6400
 1.9520	 5.6900
 1.9560	 5.6100
 1.9600	 5.6200
 1.9640	 5.6000
 1.9680	 5.5200
 1.9720	 5.5600
 1.9760	 5.4900
 1.9800	 5.4800
 1.9840	 5.4200
 1.9880	 5.5200
 1.9920	 5.5000
 1.9960	 5.5000
 2.0000	 5.5000
 2.0040	 5.4800
 2.0080	 5.4700
 2.0120	 5.4300
 2.0160	 5.5200
 2.0200	 5.4000
 2.0240	 5.5000
 2.0280	 5.4500
 2.0320	 5.4400
 2.0360	 5.4400
 2.0400	 5.4500
 2.0440	 5.4400
 2.0480	 5.4800
 2.0520	 5.4300
 2.0560	 5.4300
 2.0600	 5.3800
 2.0640	 5.4400
 2.0680	 5.3900
 2.0720	 5.4000
 2.0760	 5.4000
 2.0800	 5.4500
 2.0840	 5.3800
 2.0880	 5.4200
 2.0920	 5.4200
 2.0960	 5.4700
 2.1000	 5.4400
 2.1040	 5.4200
 2.1080	 5.4800
 2.1120	 5.4500
 2.1160	 5.4200
 2.1200	 5.4500
 2.1240	 5.4600
 2.1280	 5.5300
 2.1320	 5.5000
 2.1360	 5.6100
 2.1400	 5.6500
 2.1440	 5.6000
 2.1480	 5.6700
 2.1520	 5.6700
 2.1560	 5.6500
 2.1600	 5.6600
 2.1640	 5.6600
 2.1680	 5.7000
 2.1720	 5.7000
 2.1760	 5.7500
 2.1800	 5.8200
 2.1840	 5.7800
 2.1880	 5.7400
 2.1920	 5.8500
 2.1960	 5.8500
 2.2000	 5.8900
 2.2040	 5.9400
 2.2080	 6.0100
 2.2120	 6.0100
 2.2160	 6.0200
 2.2200	 6.0700
 2.2240	 6.0200
 2.2280	 6.0700
 2.2320	 6.0300
 2.2360	 6.1000
 2.2400	 6.0300
 2.2440	 6.0100
 2.2480	 5.9500
 2.2520	 5.9400
 2.2560	 5.9100
 2.2600	 5.7900
 2.2640	 5.7200
 2.2680	 5.6600
 2.2720	 5.5600
 2.2760	 5.5400
 2.2800	 5.4300
 2.2840	 5.3300
 2.2880	 5.2600
 2.2920	 5.1900
 2.2960	 5.0600
 2.3000	 4.9900
 2.3040	 4.9900
 2.3080	 4.9500
 2.3120	 5.0200
 2.3160	 5.0700
 2.3200	 5.1900
 2.3240	 5.4000
 2.3280	 5.5900
 2.3320	 5.8500
 2.3360	 6.1200
 2.3400	 6.3500
 2.3440	 6.6000
 2.3480	 6.7500
 2.3520	 6.8400
 2.3560	 6.9500
 2.3600	 7.0300
 2.3640	 7.1800
 2.3680	 7.4200
 2.3720	 7.6900
 2.3760	 8.0300
 2.3800	 8.4600
 2.3840	 8.9000
 2.3880	 9.3000
 2.3920	 9.6700
 2.3960	10.0400
 2.4000	10.4400
 2.4040	10.7600
 2.4080	11.1200
 2.4120	11.4400
 2.4160	11.7200
 2.4200	12.0100
 2.4240	12.2900
 2.4280	12.6100
 2.4320	12.8800
 2.4360	13.0300
 2.4400	13.3100
 2.4440	13.5300
 2.4480	13.7600
 2.4520	13.8900
 2.4560	14.1400
 2.4600	14.3900
 2.4640	14.5600
 2.4680	14.7000
 2.4720	14.8600
 2.4760	14.9500
 2.4800	15.1000
 2.4840	15.3000
 2.4880	15.3900
 2.4920	15.5900
 2.4960	15.6300
 2.5000	15.8100
