Name: Glauberite Na_2Ca(SO_4)_2
Type: Mineral
Class: Sulfate
Subclass: None
Particle Size: Medium
Sample No.: SO-8A
Owner: JPL
Wavelength Range: VSWIR
Origin: USA, Arizona, Yavapai County, Campe Verde
Collection Date: N/A
Description: Particle size was 45-125um.Collected by Burminco Original ASTER Spectral Library name was jpl.beckman.mineral.sulfate.none.medium.so08a.spectrum.txt
Measurement: Hemispherical reflectance
First Column: X
Second Column: Y
X Units: Wavelength (micrometers)
Y Units:Reflectance (percent)
First X Value:  0.4000
Last X Value:  2.5000
Number of X Values: 826
Additional Information: mineral.sulfate.none.medium.vswir.so-8a.jpl.beckman.ancillary.txt

 0.4000	65.9600
 0.4010	66.0800
 0.4020	66.2500
 0.4030	66.5100
 0.4040	66.4700
 0.4050	66.5800
 0.4060	66.6300
 0.4070	66.7100
 0.4080	66.9800
 0.4090	66.8200
 0.4100	67.1500
 0.4110	67.1700
 0.4120	67.2700
 0.4130	67.3300
 0.4140	67.3700
 0.4150	67.4600
 0.4160	67.6600
 0.4170	67.6100
 0.4180	67.7300
 0.4190	67.7000
 0.4200	68.0100
 0.4210	67.9200
 0.4220	68.0600
 0.4230	68.1200
 0.4240	68.3800
 0.4250	68.3900
 0.4260	68.4200
 0.4270	68.4400
 0.4280	68.5300
 0.4290	68.7300
 0.4300	68.8100
 0.4310	68.8700
 0.4320	68.8400
 0.4330	69.2300
 0.4340	69.0900
 0.4350	69.1300
 0.4360	69.2800
 0.4370	69.4800
 0.4380	69.4600
 0.4390	69.5400
 0.4400	69.5500
 0.4410	69.6600
 0.4420	69.8900
 0.4430	69.7500
 0.4440	69.9600
 0.4450	69.9600
 0.4460	70.0600
 0.4470	70.1900
 0.4480	70.1300
 0.4490	70.3200
 0.4500	70.5000
 0.4510	70.4200
 0.4520	70.5100
 0.4530	70.4000
 0.4540	70.5700
 0.4550	70.5700
 0.4560	70.5800
 0.4570	70.7600
 0.4580	70.8500
 0.4590	70.9300
 0.4600	70.8400
 0.4610	71.0600
 0.4620	70.8800
 0.4630	70.9400
 0.4640	71.1800
 0.4650	71.0700
 0.4660	71.0000
 0.4670	71.0900
 0.4680	71.2000
 0.4690	71.2800
 0.4700	71.2100
 0.4710	71.3100
 0.4720	71.4900
 0.4730	71.4400
 0.4740	71.5800
 0.4750	71.4700
 0.4760	71.5400
 0.4770	71.6600
 0.4780	71.6800
 0.4790	71.6600
 0.4800	71.8200
 0.4810	71.8500
 0.4820	72.0100
 0.4830	71.8400
 0.4840	71.9300
 0.4850	72.1400
 0.4860	72.0400
 0.4870	72.0300
 0.4880	71.9900
 0.4890	72.1100
 0.4900	72.1300
 0.4910	72.0900
 0.4920	72.2400
 0.4930	72.3600
 0.4940	72.3400
 0.4950	72.3900
 0.4960	72.3100
 0.4970	72.4400
 0.4980	72.6900
 0.4990	72.5400
 0.5000	72.6400
 0.5010	72.7600
 0.5020	72.7800
 0.5030	72.7400
 0.5040	72.9100
 0.5050	72.9600
 0.5060	73.1200
 0.5070	73.0000
 0.5080	73.1200
 0.5090	73.2100
 0.5100	73.1800
 0.5110	73.2600
 0.5120	73.3300
 0.5130	73.3200
 0.5140	73.4700
 0.5150	73.4900
 0.5160	73.4600
 0.5170	73.5800
 0.5180	73.5400
 0.5190	73.6700
 0.5200	73.6300
 0.5210	73.7500
 0.5220	73.9100
 0.5230	73.7900
 0.5240	73.6900
 0.5250	73.7600
 0.5260	73.8700
 0.5270	73.9800
 0.5280	73.8800
 0.5290	74.0600
 0.5300	74.2200
 0.5310	74.0600
 0.5320	74.0500
 0.5330	74.0700
 0.5340	74.1400
 0.5350	74.2100
 0.5360	74.1100
 0.5370	74.3300
 0.5380	74.5500
 0.5390	74.4300
 0.5400	74.4100
 0.5410	74.4200
 0.5420	74.4600
 0.5430	74.5900
 0.5440	74.6300
 0.5450	74.6500
 0.5460	74.8100
 0.5470	74.7300
 0.5480	74.8100
 0.5490	74.8300
 0.5500	74.9000
 0.5510	75.0400
 0.5520	75.0200
 0.5530	75.0000
 0.5540	75.1100
 0.5550	75.0900
 0.5560	75.1400
 0.5570	75.0800
 0.5580	75.1600
 0.5590	75.1000
 0.5600	75.4300
 0.5610	75.5500
 0.5620	75.6200
 0.5630	75.4900
 0.5640	75.5800
 0.5650	75.5100
 0.5660	75.5400
 0.5670	75.6400
 0.5680	75.4300
 0.5690	75.5600
 0.5700	75.5700
 0.5710	75.4900
 0.5720	75.3600
 0.5730	75.3800
 0.5740	75.3600
 0.5750	75.4900
 0.5760	75.2600
 0.5770	75.4500
 0.5780	75.5400
 0.5790	75.4900
 0.5800	75.4100
 0.5810	75.4400
 0.5820	75.4500
 0.5830	75.6500
 0.5840	75.5700
 0.5850	75.5600
 0.5860	75.5800
 0.5870	75.5800
 0.5880	75.6000
 0.5890	75.6700
 0.5900	75.6600
 0.5910	75.6800
 0.5920	75.8100
 0.5930	75.7800
 0.5940	75.9300
 0.5950	75.8000
 0.5960	75.8500
 0.5970	75.7300
 0.5980	75.8700
 0.5990	76.0900
 0.6000	75.8300
 0.6010	75.8900
 0.6020	75.8800
 0.6030	75.9800
 0.6040	76.0000
 0.6050	75.9800
 0.6060	75.9900
 0.6070	76.0100
 0.6080	75.9900
 0.6090	75.9500
 0.6100	76.0100
 0.6110	76.0300
 0.6120	76.1600
 0.6130	75.9000
 0.6140	76.2100
 0.6150	76.1400
 0.6160	76.0600
 0.6170	75.8700
 0.6180	76.0800
 0.6190	76.0600
 0.6200	76.0500
 0.6210	76.1300
 0.6220	76.0700
 0.6230	76.1300
 0.6240	76.0700
 0.6250	76.1400
 0.6260	76.0700
 0.6270	76.2000
 0.6280	76.1500
 0.6290	76.2500
 0.6300	76.1000
 0.6310	76.2200
 0.6320	76.2600
 0.6330	76.3500
 0.6340	76.2500
 0.6350	76.3500
 0.6360	76.2800
 0.6370	76.2900
 0.6380	76.1600
 0.6390	76.3500
 0.6400	76.2400
 0.6410	76.3900
 0.6420	76.1800
 0.6430	76.2900
 0.6440	76.3900
 0.6450	76.2400
 0.6460	76.1900
 0.6470	76.3000
 0.6480	76.4200
 0.6490	76.4800
 0.6500	76.2900
 0.6510	76.4400
 0.6520	76.5600
 0.6530	76.4200
 0.6540	76.3500
 0.6550	76.4600
 0.6560	76.4600
 0.6570	76.5800
 0.6580	76.3500
 0.6590	76.5200
 0.6600	76.5100
 0.6610	76.5300
 0.6620	76.4300
 0.6630	76.4800
 0.6640	76.5800
 0.6650	76.6700
 0.6660	76.5900
 0.6670	76.6200
 0.6680	76.6500
 0.6690	76.6600
 0.6700	76.6400
 0.6710	76.6000
 0.6720	76.6700
 0.6730	76.6900
 0.6740	76.6500
 0.6750	76.6100
 0.6760	76.8000
 0.6770	76.7600
 0.6780	76.6700
 0.6790	76.7200
 0.6800	76.8300
 0.6810	76.8200
 0.6820	76.8000
 0.6830	76.7500
 0.6840	76.9000
 0.6850	76.8500
 0.6860	76.9100
 0.6870	76.8100
 0.6880	76.8900
 0.6890	76.8800
 0.6900	76.9200
 0.6910	76.9300
 0.6920	76.9600
 0.6930	76.9400
 0.6940	77.0300
 0.6950	76.8400
 0.6960	77.0300
 0.6970	77.1400
 0.6980	76.9200
 0.6990	76.8600
 0.7000	77.0000
 0.7010	76.9800
 0.7020	77.0500
 0.7030	77.1800
 0.7040	77.1800
 0.7050	77.1500
 0.7060	77.0600
 0.7070	77.1000
 0.7080	77.3000
 0.7090	77.1000
 0.7100	77.1800
 0.7110	77.0900
 0.7120	77.3200
 0.7130	77.2300
 0.7140	77.1800
 0.7150	77.2500
 0.7160	77.4200
 0.7170	77.3100
 0.7180	77.3700
 0.7190	77.3500
 0.7200	77.3700
 0.7210	77.3300
 0.7220	77.4200
 0.7230	77.5200
 0.7240	77.6300
 0.7250	77.4700
 0.7260	77.5900
 0.7270	77.4400
 0.7280	77.4600
 0.7290	77.5200
 0.7300	77.4900
 0.7310	77.5600
 0.7320	77.6800
 0.7330	77.6400
 0.7340	77.6300
 0.7350	77.7000
 0.7360	77.7600
 0.7370	77.8100
 0.7380	77.6200
 0.7390	77.7700
 0.7400	77.7900
 0.7410	77.8000
 0.7420	77.8300
 0.7430	77.7200
 0.7440	77.8300
 0.7450	77.8900
 0.7460	77.8500
 0.7470	77.8900
 0.7480	77.7500
 0.7490	77.8600
 0.7500	77.9800
 0.7510	77.8900
 0.7520	77.9300
 0.7530	78.1100
 0.7540	78.0500
 0.7550	78.1100
 0.7560	77.8900
 0.7570	77.9800
 0.7580	77.9700
 0.7590	77.8600
 0.7600	78.0200
 0.7610	78.0800
 0.7620	78.0700
 0.7630	78.0300
 0.7640	78.0400
 0.7650	78.1000
 0.7660	78.1600
 0.7670	78.1500
 0.7680	78.1100
 0.7690	78.2200
 0.7700	78.2800
 0.7710	78.2500
 0.7720	78.2500
 0.7730	78.3000
 0.7740	78.4700
 0.7750	78.3900
 0.7760	78.3800
 0.7770	78.4000
 0.7780	78.3300
 0.7790	78.4200
 0.7800	78.3200
 0.7810	78.4300
 0.7820	78.6200
 0.7830	78.5100
 0.7840	78.4800
 0.7850	78.4300
 0.7860	78.4400
 0.7870	78.6300
 0.7880	78.4600
 0.7890	78.5600
 0.7900	78.6700
 0.7910	78.5700
 0.7920	78.5900
 0.7930	78.4800
 0.7940	78.5700
 0.7950	78.7400
 0.7960	78.6600
 0.7970	78.6900
 0.7980	78.5800
 0.7990	78.6300
 0.8000	79.0100
 0.8040	79.1200
 0.8080	79.1200
 0.8120	79.1900
 0.8160	79.2300
 0.8200	79.2500
 0.8240	79.2400
 0.8280	79.2600
 0.8320	79.2700
 0.8360	79.3100
 0.8400	79.2300
 0.8440	79.3100
 0.8480	79.3900
 0.8520	79.4000
 0.8560	79.4000
 0.8600	79.3700
 0.8640	79.4400
 0.8680	79.5300
 0.8720	79.4300
 0.8760	79.4600
 0.8800	79.4200
 0.8840	79.3200
 0.8880	79.4700
 0.8920	79.5400
 0.8960	79.4400
 0.9000	79.4700
 0.9040	79.4300
 0.9080	79.4900
 0.9120	79.5000
 0.9160	79.4900
 0.9200	79.4900
 0.9240	79.5000
 0.9280	79.6500
 0.9320	79.6700
 0.9360	79.6000
 0.9400	79.6600
 0.9440	79.7100
 0.9480	79.6700
 0.9520	79.7100
 0.9560	79.8200
 0.9600	79.8500
 0.9640	79.8900
 0.9680	79.9100
 0.9720	79.8700
 0.9760	79.8500
 0.9800	79.8900
 0.9840	79.9000
 0.9880	79.9400
 0.9920	79.9000
 0.9960	79.9700
 1.0000	80.0000
 1.0040	80.0600
 1.0080	80.1300
 1.0120	80.0900
 1.0160	80.1100
 1.0200	80.1200
 1.0240	80.0200
 1.0280	80.0600
 1.0320	80.1500
 1.0360	80.1100
 1.0400	80.2600
 1.0440	80.2000
 1.0480	80.2700
 1.0520	80.3200
 1.0560	80.2700
 1.0600	80.2600
 1.0640	80.2100
 1.0680	80.2300
 1.0720	80.2900
 1.0760	80.4100
 1.0800	80.4000
 1.0840	80.3500
 1.0880	80.3200
 1.0920	80.3900
 1.0960	80.3800
 1.1000	80.5500
 1.1040	80.4600
 1.1080	80.4700
 1.1120	80.5100
 1.1160	80.5400
 1.1200	80.6800
 1.1240	80.7800
 1.1280	80.6700
 1.1320	80.7300
 1.1360	80.6100
 1.1400	80.6200
 1.1440	80.7300
 1.1480	80.7000
 1.1520	80.6500
 1.1560	80.6600
 1.1600	80.6900
 1.1640	80.7400
 1.1680	80.7900
 1.1720	80.8600
 1.1760	80.8600
 1.1800	80.8700
 1.1840	80.8700
 1.1880	80.9000
 1.1920	80.8600
 1.1960	80.9000
 1.2000	80.9600
 1.2040	80.9400
 1.2080	80.9300
 1.2120	81.0100
 1.2160	81.0500
 1.2200	81.1300
 1.2240	81.0800
 1.2280	81.1300
 1.2320	81.1200
 1.2360	81.2700
 1.2400	81.2600
 1.2440	81.2800
 1.2480	81.3000
 1.2520	81.3300
 1.2560	81.3800
 1.2600	81.4200
 1.2640	81.4000
 1.2680	81.4300
 1.2720	81.4200
 1.2760	81.4300
 1.2800	81.5700
 1.2840	81.6100
 1.2880	81.7100
 1.2920	81.6600
 1.2960	81.5700
 1.3000	81.7300
 1.3040	81.7600
 1.3080	81.6800
 1.3120	81.7000
 1.3160	81.6500
 1.3200	81.6800
 1.3240	81.7600
 1.3280	81.7700
 1.3320	81.7200
 1.3360	81.7500
 1.3400	81.6900
 1.3440	81.8200
 1.3480	81.7500
 1.3520	81.8600
 1.3560	81.8500
 1.3600	81.8700
 1.3640	81.8100
 1.3680	81.8100
 1.3720	81.8600
 1.3760	81.7800
 1.3800	81.8200
 1.3840	81.6000
 1.3880	81.6500
 1.3920	81.6300
 1.3960	81.5800
 1.4000	81.4200
 1.4040	81.3900
 1.4080	81.3900
 1.4120	81.4700
 1.4160	81.4000
 1.4200	81.4100
 1.4240	81.4200
 1.4280	81.5100
 1.4320	81.5400
 1.4360	81.4500
 1.4400	81.5100
 1.4440	81.4900
 1.4480	81.6000
 1.4520	81.6400
 1.4560	81.6900
 1.4600	81.7700
 1.4640	81.7100
 1.4680	81.7900
 1.4720	81.8100
 1.4760	81.8300
 1.4800	81.9500
 1.4840	81.9200
 1.4880	82.0200
 1.4920	82.1100
 1.4960	82.1500
 1.5000	82.1900
 1.5040	82.1900
 1.5080	82.2900
 1.5120	82.2800
 1.5160	82.3600
 1.5200	82.3900
 1.5240	82.4400
 1.5280	82.4600
 1.5320	82.4600
 1.5360	82.4100
 1.5400	82.4800
 1.5440	82.5900
 1.5480	82.6800
 1.5520	82.5700
 1.5560	82.5700
 1.5600	82.6400
 1.5640	82.6500
 1.5680	82.6700
 1.5720	82.7400
 1.5760	82.7100
 1.5800	82.7300
 1.5840	82.8000
 1.5880	82.8200
 1.5920	82.7700
 1.5960	82.8400
 1.6000	82.8600
 1.6040	82.8900
 1.6080	82.9100
 1.6120	82.9100
 1.6160	82.9700
 1.6200	83.0000
 1.6240	82.9700
 1.6280	82.9900
 1.6320	83.0800
 1.6360	83.1400
 1.6400	83.0500
 1.6440	83.0200
 1.6480	83.1000
 1.6520	83.0900
 1.6560	83.2400
 1.6600	83.2300
 1.6640	83.2200
 1.6680	83.1900
 1.6720	83.2400
 1.6760	83.2300
 1.6800	83.2900
 1.6840	83.3000
 1.6880	83.3000
 1.6920	83.2800
 1.6960	83.2600
 1.7000	83.2300
 1.7040	83.3400
 1.7080	83.3000
 1.7120	83.3400
 1.7160	83.2800
 1.7200	83.2300
 1.7240	83.2700
 1.7280	83.2300
 1.7320	83.3000
 1.7360	83.1000
 1.7400	83.0600
 1.7440	83.0400
 1.7480	83.1200
 1.7520	83.1100
 1.7560	83.0900
 1.7600	83.0800
 1.7640	83.1800
 1.7680	83.1600
 1.7720	83.1300
 1.7760	83.1100
 1.7800	83.1000
 1.7840	83.1700
 1.7880	83.1700
 1.7920	83.2600
 1.7960	83.2900
 1.8000	83.2300
 1.8040	83.2700
 1.8080	83.2800
 1.8120	83.2800
 1.8160	83.3500
 1.8200	83.2900
 1.8240	83.2500
 1.8280	83.2100
 1.8320	83.3000
 1.8360	83.3000
 1.8400	83.3000
 1.8440	83.2200
 1.8480	83.1600
 1.8520	83.1900
 1.8560	83.1800
 1.8600	83.0500
 1.8640	83.0100
 1.8680	82.9500
 1.8720	82.7500
 1.8760	82.5900
 1.8800	82.2900
 1.8840	82.0100
 1.8880	81.7000
 1.8920	81.4500
 1.8960	81.0100
 1.9000	80.6600
 1.9040	80.3100
 1.9080	79.9800
 1.9120	79.8500
 1.9160	79.6600
 1.9200	79.5000
 1.9240	79.3600
 1.9280	79.2100
 1.9320	79.1300
 1.9360	79.0600
 1.9400	79.1000
 1.9440	79.2000
 1.9480	79.3600
 1.9520	79.5300
 1.9560	79.5500
 1.9600	79.8000
 1.9640	79.9300
 1.9680	80.1200
 1.9720	80.3000
 1.9760	80.4000
 1.9800	80.5700
 1.9840	80.7900
 1.9880	81.1100
 1.9920	81.3600
 1.9960	81.5700
 2.0000	81.8400
 2.0040	81.9300
 2.0080	82.0700
 2.0120	82.2900
 2.0160	82.3500
 2.0200	82.5600
 2.0240	82.5500
 2.0280	82.6700
 2.0320	82.7500
 2.0360	82.8900
 2.0400	82.9000
 2.0440	82.8500
 2.0480	82.9400
 2.0520	82.8900
 2.0560	83.0600
 2.0600	83.0700
 2.0640	83.0200
 2.0680	83.1200
 2.0720	83.1800
 2.0760	83.1600
 2.0800	83.2000
 2.0840	83.2800
 2.0880	83.3400
 2.0920	83.3400
 2.0960	83.3200
 2.1000	83.3500
 2.1040	83.4900
 2.1080	83.5700
 2.1120	83.5600
 2.1160	83.5500
 2.1200	83.5900
 2.1240	83.6000
 2.1280	83.6100
 2.1320	83.5800
 2.1360	83.5500
 2.1400	83.4600
 2.1440	83.4800
 2.1480	83.3900
 2.1520	83.3400
 2.1560	83.3100
 2.1600	83.1300
 2.1640	83.0800
 2.1680	83.0500
 2.1720	82.9800
 2.1760	82.9500
 2.1800	82.8300
 2.1840	82.8300
 2.1880	82.7500
 2.1920	82.6700
 2.1960	82.5400
 2.2000	82.4800
 2.2040	82.3600
 2.2080	82.4000
 2.2120	82.3100
 2.2160	82.3500
 2.2200	82.4000
 2.2240	82.4000
 2.2280	82.4700
 2.2320	82.5000
 2.2360	82.4700
 2.2400	82.4500
 2.2440	82.4800
 2.2480	82.5400
 2.2520	82.4700
 2.2560	82.5800
 2.2600	82.5200
 2.2640	82.5200
 2.2680	82.4800
 2.2720	82.5100
 2.2760	82.4600
 2.2800	82.4800
 2.2840	82.3900
 2.2880	82.3400
 2.2920	82.3200
 2.2960	82.2600
 2.3000	82.1900
 2.3040	82.1600
 2.3080	82.1100
 2.3120	82.2000
 2.3160	82.2300
 2.3200	82.2300
 2.3240	82.2400
 2.3280	82.3300
 2.3320	82.2300
 2.3360	82.2300
 2.3400	82.2200
 2.3440	82.1000
 2.3480	82.1400
 2.3520	82.0900
 2.3560	82.0300
 2.3600	82.0000
 2.3640	81.8900
 2.3680	81.7900
 2.3720	81.7000
 2.3760	81.6400
 2.3800	81.4400
 2.3840	81.3400
 2.3880	81.2200
 2.3920	81.1100
 2.3960	81.0500
 2.4000	80.8900
 2.4040	80.8300
 2.4080	80.8400
 2.4120	80.6800
 2.4160	80.7100
 2.4200	80.5100
 2.4240	80.4600
 2.4280	80.4200
 2.4320	80.3300
 2.4360	80.1600
 2.4400	80.2300
 2.4440	80.1500
 2.4480	79.9700
 2.4520	79.9600
 2.4560	79.8600
 2.4600	79.8300
 2.4640	79.8000
 2.4680	79.6700
 2.4720	79.6800
 2.4760	79.6800
 2.4800	79.6700
 2.4840	79.8400
 2.4880	79.9000
 2.4920	80.0800
 2.4960	80.1200
 2.5000	80.2800
