Name: Strontianite SrCO_3
Type: Mineral
Class: Carbonate
Subclass: None
Particle Size: Fine
Sample No.: C-1A
Owner: JPL
Wavelength Range: VSWIR
Origin: Germany, Westphalia, Hamm.
Collection Date: N/A
Description: Particle size was 0-45um.Collected by:  Ward's Original ASTER Spectral Library name was jpl.perkin.mineral.carbonate.none.fine.c01a.spectrum.txt
Measurement: Hemispherical reflectance
First Column: X
Second Column: Y
X Units: Wavelength (micrometers)
Y Units:Reflectance (percent)
First X Value:  2.5000
Last X Value:  0.4000
Number of X Values: 2101
Additional Information: mineral.carbonate.none.fine.vswir.c-1a.jpl.perkin.ancillary.txt

 2.5000	76.1732
 2.4990	76.1924
 2.4980	76.2828
 2.4970	76.3440
 2.4960	76.1207
 2.4950	76.4550
 2.4940	76.3815
 2.4930	76.4154
 2.4920	76.1838
 2.4910	76.5176
 2.4900	76.5656
 2.4890	76.7829
 2.4880	76.8940
 2.4870	76.9323
 2.4860	77.1932
 2.4850	77.0937
 2.4840	77.2512
 2.4830	77.3699
 2.4820	77.5177
 2.4810	77.7022
 2.4800	77.8275
 2.4790	78.0084
 2.4780	78.0633
 2.4770	78.1995
 2.4760	78.4432
 2.4750	78.5152
 2.4740	78.7145
 2.4730	78.8964
 2.4720	79.1762
 2.4710	79.3084
 2.4700	79.3807
 2.4690	79.5767
 2.4680	79.8499
 2.4670	79.9412
 2.4660	80.1689
 2.4650	80.2775
 2.4640	80.3173
 2.4630	80.5652
 2.4620	80.7002
 2.4610	80.7237
 2.4600	81.0178
 2.4590	81.1564
 2.4580	81.1576
 2.4570	81.4187
 2.4560	81.4261
 2.4550	81.6327
 2.4540	81.6169
 2.4530	81.9164
 2.4520	81.8514
 2.4510	81.9841
 2.4500	82.0793
 2.4490	82.1050
 2.4480	82.2102
 2.4470	82.4079
 2.4460	82.4843
 2.4450	82.5909
 2.4440	82.6274
 2.4430	82.6565
 2.4420	82.6186
 2.4410	82.6566
 2.4400	82.7573
 2.4390	82.9056
 2.4380	82.8376
 2.4370	82.8582
 2.4360	83.0590
 2.4350	83.0758
 2.4340	83.0342
 2.4330	83.2083
 2.4320	83.1549
 2.4310	83.1729
 2.4300	83.3826
 2.4290	83.3558
 2.4280	83.4275
 2.4270	83.4596
 2.4260	83.5701
 2.4250	83.5786
 2.4240	83.5792
 2.4230	83.6042
 2.4220	83.6158
 2.4210	83.6112
 2.4200	83.6899
 2.4190	83.7826
 2.4180	83.7965
 2.4170	83.8053
 2.4160	83.8015
 2.4150	83.7890
 2.4140	83.8344
 2.4130	83.8999
 2.4120	83.9050
 2.4110	83.7954
 2.4100	83.9522
 2.4090	84.0005
 2.4080	84.0200
 2.4070	84.0115
 2.4060	84.0141
 2.4050	83.9986
 2.4040	83.9795
 2.4030	83.9928
 2.4020	83.9777
 2.4010	84.0405
 2.4000	84.0316
 2.3990	84.0027
 2.3980	83.9780
 2.3970	83.9378
 2.3960	83.8928
 2.3950	83.9019
 2.3940	83.9066
 2.3930	83.8167
 2.3920	83.8362
 2.3910	83.8145
 2.3900	83.7150
 2.3890	83.6482
 2.3880	83.6210
 2.3870	83.5125
 2.3860	83.4137
 2.3850	83.2869
 2.3840	83.2479
 2.3830	83.1718
 2.3820	82.9910
 2.3810	82.8376
 2.3800	82.7140
 2.3790	82.5514
 2.3780	82.3926
 2.3770	82.2540
 2.3760	82.0338
 2.3750	81.8243
 2.3740	81.6975
 2.3730	81.5146
 2.3720	81.3370
 2.3710	81.1908
 2.3700	80.9495
 2.3690	80.7518
 2.3680	80.6134
 2.3670	80.4149
 2.3660	80.1304
 2.3650	79.8831
 2.3640	79.7560
 2.3630	79.5935
 2.3620	79.3622
 2.3610	79.1544
 2.3600	79.0225
 2.3590	78.9019
 2.3580	78.7200
 2.3570	78.5790
 2.3560	78.4237
 2.3550	78.2146
 2.3540	78.1034
 2.3530	77.9884
 2.3520	77.8580
 2.3510	77.7776
 2.3500	77.7152
 2.3490	77.6793
 2.3480	77.6315
 2.3470	77.5233
 2.3460	77.4406
 2.3450	77.4672
 2.3440	77.4956
 2.3430	77.5528
 2.3420	77.5682
 2.3410	77.5807
 2.3400	77.7054
 2.3390	77.7839
 2.3380	77.8495
 2.3370	78.0088
 2.3360	78.0724
 2.3350	78.2001
 2.3340	78.3757
 2.3330	78.4719
 2.3320	78.6159
 2.3310	78.7225
 2.3300	78.8765
 2.3290	79.0537
 2.3280	79.2135
 2.3270	79.3417
 2.3260	79.3832
 2.3250	79.5075
 2.3240	79.6428
 2.3230	79.7921
 2.3220	79.9291
 2.3210	80.0452
 2.3200	80.1658
 2.3190	80.2485
 2.3180	80.2793
 2.3170	80.3694
 2.3160	80.4441
 2.3150	80.4936
 2.3140	80.5988
 2.3130	80.2203
 2.3120	80.4812
 2.3110	80.8836
 2.3100	80.9981
 2.3090	81.0422
 2.3080	81.0872
 2.3070	81.1366
 2.3060	81.2199
 2.3050	81.3320
 2.3040	81.3424
 2.3030	81.4434
 2.3020	81.5982
 2.3010	81.6258
 2.3000	81.5742
 2.2990	81.6488
 2.2980	81.7587
 2.2970	81.8050
 2.2960	81.8421
 2.2950	81.8946
 2.2940	81.9891
 2.2930	82.0064
 2.2920	82.0968
 2.2910	82.1633
 2.2900	82.2171
 2.2890	82.2140
 2.2880	82.3480
 2.2870	82.4140
 2.2860	82.4721
 2.2850	82.4783
 2.2840	82.6096
 2.2830	82.6077
 2.2820	82.7271
 2.2810	82.8148
 2.2800	82.8614
 2.2790	82.9611
 2.2780	82.9993
 2.2770	82.9977
 2.2760	83.0661
 2.2750	83.1991
 2.2740	83.2744
 2.2730	83.3712
 2.2720	83.3690
 2.2710	83.4371
 2.2700	83.5240
 2.2690	83.5899
 2.2680	83.5641
 2.2670	83.6019
 2.2660	83.7560
 2.2650	83.8220
 2.2640	83.9241
 2.2630	83.9605
 2.2620	83.9352
 2.2610	84.0510
 2.2600	84.0883
 2.2590	84.1445
 2.2580	84.2676
 2.2570	84.2631
 2.2560	84.3901
 2.2550	84.3823
 2.2540	84.5050
 2.2530	84.5392
 2.2520	84.5840
 2.2510	84.5805
 2.2500	84.6360
 2.2490	84.7357
 2.2480	84.6919
 2.2470	84.8015
 2.2460	84.8718
 2.2450	84.8825
 2.2440	85.0516
 2.2430	84.9663
 2.2420	85.0284
 2.2410	85.1336
 2.2400	85.1155
 2.2390	85.1574
 2.2380	85.2418
 2.2370	85.2677
 2.2360	85.2582
 2.2350	85.2936
 2.2340	85.3479
 2.2330	85.4258
 2.2320	85.5472
 2.2310	85.4539
 2.2300	85.5393
 2.2290	85.5370
 2.2280	85.6158
 2.2270	85.6901
 2.2260	85.6904
 2.2250	85.6699
 2.2240	85.7629
 2.2230	85.7534
 2.2220	85.8300
 2.2210	85.8238
 2.2200	85.9322
 2.2190	85.9165
 2.2180	85.9442
 2.2170	85.9615
 2.2160	86.0818
 2.2150	86.0765
 2.2140	86.1746
 2.2130	86.1630
 2.2120	86.2033
 2.2110	86.1647
 2.2100	86.2711
 2.2090	86.2438
 2.2080	86.2965
 2.2070	86.3302
 2.2060	86.4359
 2.2050	86.4997
 2.2040	86.4667
 2.2030	86.4695
 2.2020	86.5682
 2.2010	86.5320
 2.2000	86.5264
 2.1990	86.6146
 2.1980	86.6498
 2.1970	86.6158
 2.1960	86.5811
 2.1950	86.5861
 2.1940	86.5747
 2.1930	86.5977
 2.1920	86.6538
 2.1910	86.5138
 2.1900	86.5287
 2.1890	86.5563
 2.1880	86.6146
 2.1870	86.5689
 2.1860	86.5363
 2.1850	86.4721
 2.1840	86.5437
 2.1830	86.5241
 2.1820	86.5423
 2.1810	86.5313
 2.1800	86.5645
 2.1790	86.5586
 2.1780	86.5830
 2.1770	86.5289
 2.1760	86.6888
 2.1750	86.6662
 2.1740	86.7448
 2.1730	86.8025
 2.1720	86.7537
 2.1710	86.8508
 2.1700	86.8759
 2.1690	86.9447
 2.1680	87.0645
 2.1670	87.1092
 2.1660	87.1946
 2.1650	87.2624
 2.1640	87.2924
 2.1630	87.3989
 2.1620	87.5073
 2.1610	87.5888
 2.1600	87.6431
 2.1590	87.6916
 2.1580	87.7299
 2.1570	87.7801
 2.1560	87.7773
 2.1550	87.8605
 2.1540	87.8671
 2.1530	87.9151
 2.1520	87.8955
 2.1510	88.0064
 2.1500	88.0334
 2.1490	88.0630
 2.1480	88.0285
 2.1470	87.9703
 2.1460	88.1303
 2.1450	88.0960
 2.1440	88.0978
 2.1430	88.0335
 2.1420	88.1100
 2.1410	88.1327
 2.1400	88.1572
 2.1390	88.2161
 2.1380	88.1557
 2.1370	88.1151
 2.1360	88.1551
 2.1350	88.1038
 2.1340	88.1048
 2.1330	88.0909
 2.1320	88.0405
 2.1310	88.0586
 2.1300	88.0296
 2.1290	88.0379
 2.1280	88.0342
 2.1270	87.9464
 2.1260	87.9498
 2.1250	87.9324
 2.1240	87.8310
 2.1230	87.7484
 2.1220	87.7608
 2.1210	87.6633
 2.1200	87.6497
 2.1190	87.7052
 2.1180	87.6077
 2.1170	87.4700
 2.1160	87.4685
 2.1150	87.5448
 2.1140	87.4925
 2.1130	87.3920
 2.1120	87.3533
 2.1110	87.2946
 2.1100	87.2882
 2.1090	87.2430
 2.1080	87.1542
 2.1070	87.1510
 2.1060	87.1450
 2.1050	87.0929
 2.1040	87.0291
 2.1030	87.0151
 2.1020	86.9427
 2.1010	86.8633
 2.1000	86.8190
 2.0990	86.8577
 2.0980	86.8767
 2.0970	86.8731
 2.0960	86.9410
 2.0950	86.9814
 2.0940	86.9466
 2.0930	86.9509
 2.0920	86.9509
 2.0910	86.9630
 2.0900	87.0270
 2.0890	87.0422
 2.0880	87.0288
 2.0870	87.0166
 2.0860	87.0243
 2.0850	87.0629
 2.0840	87.0261
 2.0830	87.0825
 2.0820	87.1778
 2.0810	87.1721
 2.0800	87.1232
 2.0790	87.1281
 2.0780	87.1686
 2.0770	87.1625
 2.0760	87.1627
 2.0750	87.1485
 2.0740	87.1768
 2.0730	87.2160
 2.0720	87.2622
 2.0710	87.2355
 2.0700	87.1881
 2.0690	87.2411
 2.0680	87.2275
 2.0670	87.2230
 2.0660	87.3000
 2.0650	87.3362
 2.0640	87.3331
 2.0630	87.3198
 2.0620	87.3229
 2.0610	87.3311
 2.0600	87.3907
 2.0590	87.4077
 2.0580	87.4050
 2.0570	87.3553
 2.0560	87.3548
 2.0550	87.4084
 2.0540	87.4012
 2.0530	87.4128
 2.0520	87.4127
 2.0510	87.4257
 2.0500	87.4139
 2.0490	87.4381
 2.0480	87.4837
 2.0470	87.4916
 2.0460	87.4582
 2.0450	87.4588
 2.0440	87.4563
 2.0430	87.4449
 2.0420	87.4273
 2.0410	87.4202
 2.0400	87.4119
 2.0390	87.4277
 2.0380	87.4464
 2.0370	87.3919
 2.0360	87.3417
 2.0350	87.3076
 2.0340	87.3169
 2.0330	87.3047
 2.0320	87.2725
 2.0310	87.2369
 2.0300	87.2205
 2.0290	87.1910
 2.0280	87.1217
 2.0270	87.0740
 2.0260	87.0353
 2.0250	86.9994
 2.0240	86.9295
 2.0230	86.8692
 2.0220	86.8160
 2.0210	86.7583
 2.0200	86.6781
 2.0190	86.6066
 2.0180	86.5983
 2.0170	86.6384
 2.0160	86.6233
 2.0150	86.5548
 2.0140	86.5489
 2.0130	86.5599
 2.0120	86.5521
 2.0110	86.6551
 2.0100	86.7091
 2.0090	86.7102
 2.0080	86.8051
 2.0070	86.8321
 2.0060	86.7979
 2.0050	86.8243
 2.0040	86.8741
 2.0030	86.9002
 2.0020	86.8928
 2.0010	86.9624
 2.0000	86.9872
 1.9990	86.9392
 1.9980	87.0185
 1.9970	87.0260
 1.9960	87.0005
 1.9950	86.9677
 1.9940	86.9667
 1.9930	86.9935
 1.9920	87.0302
 1.9910	87.0132
 1.9900	86.9688
 1.9890	86.8797
 1.9880	86.8838
 1.9870	86.9610
 1.9860	86.8935
 1.9850	86.9445
 1.9840	86.9380
 1.9830	86.9084
 1.9820	86.9624
 1.9810	86.8514
 1.9800	86.9163
 1.9790	86.9346
 1.9780	86.9340
 1.9770	86.8483
 1.9760	86.8932
 1.9750	86.8497
 1.9740	86.7942
 1.9730	86.8242
 1.9720	86.8740
 1.9710	86.8761
 1.9700	86.8318
 1.9690	86.8197
 1.9680	86.8513
 1.9670	86.8316
 1.9660	86.8322
 1.9650	86.8534
 1.9640	86.8322
 1.9630	86.9119
 1.9620	86.8693
 1.9610	86.8299
 1.9600	86.8557
 1.9590	86.9002
 1.9580	86.8461
 1.9570	86.8735
 1.9560	86.9077
 1.9550	86.8854
 1.9540	86.8522
 1.9530	86.8785
 1.9520	86.9013
 1.9510	86.8253
 1.9500	86.9243
 1.9490	86.8760
 1.9480	86.8363
 1.9470	86.8497
 1.9460	86.8412
 1.9450	86.8388
 1.9440	86.8292
 1.9430	86.8648
 1.9420	86.9180
 1.9410	86.8872
 1.9400	86.8126
 1.9390	86.8580
 1.9380	86.9988
 1.9370	86.9415
 1.9360	86.9164
 1.9350	86.9643
 1.9340	86.9317
 1.9330	86.9168
 1.9320	87.0681
 1.9310	86.9302
 1.9300	86.9702
 1.9290	86.9843
 1.9280	86.8904
 1.9270	87.0580
 1.9260	86.8848
 1.9250	87.0108
 1.9240	86.9577
 1.9230	87.0323
 1.9220	86.9327
 1.9210	87.0724
 1.9200	87.0343
 1.9190	87.0491
 1.9180	86.9870
 1.9170	87.1437
 1.9160	87.0034
 1.9150	87.1133
 1.9140	87.0964
 1.9130	87.0623
 1.9120	87.0834
 1.9110	87.0968
 1.9100	87.0730
 1.9090	87.0875
 1.9080	87.1412
 1.9070	87.1660
 1.9060	87.1015
 1.9050	87.1334
 1.9040	87.0986
 1.9030	87.1942
 1.9020	87.1139
 1.9010	87.1702
 1.9000	87.1576
 1.8990	87.1406
 1.8980	87.1761
 1.8970	87.2186
 1.8960	87.2240
 1.8950	87.2918
 1.8940	87.3008
 1.8930	87.1528
 1.8920	87.2436
 1.8910	87.3070
 1.8900	87.2717
 1.8890	87.3306
 1.8880	87.2417
 1.8870	87.3210
 1.8860	87.3227
 1.8850	87.3960
 1.8840	87.4519
 1.8830	87.4190
 1.8820	87.5180
 1.8810	87.5438
 1.8800	87.5454
 1.8790	87.5589
 1.8780	87.6179
 1.8770	87.6561
 1.8760	87.7172
 1.8750	87.7211
 1.8740	87.7764
 1.8730	87.8612
 1.8720	87.8590
 1.8710	87.9386
 1.8700	87.9501
 1.8690	88.0834
 1.8680	87.9990
 1.8670	87.9717
 1.8660	87.9794
 1.8650	88.0661
 1.8640	88.0784
 1.8630	88.1794
 1.8620	88.1809
 1.8610	88.1769
 1.8600	88.2303
 1.8590	88.2100
 1.8580	88.1450
 1.8570	88.1723
 1.8560	88.2484
 1.8550	88.2336
 1.8540	88.2737
 1.8530	88.2487
 1.8520	88.2385
 1.8510	88.2728
 1.8500	88.2903
 1.8490	88.3073
 1.8480	88.2716
 1.8470	88.3277
 1.8460	88.2564
 1.8450	88.3120
 1.8440	88.3073
 1.8430	88.3336
 1.8420	88.3452
 1.8410	88.3313
 1.8400	88.3062
 1.8390	88.2854
 1.8380	88.3813
 1.8370	88.4334
 1.8360	88.3599
 1.8350	88.3667
 1.8340	88.4541
 1.8330	88.4879
 1.8320	88.4930
 1.8310	88.4914
 1.8300	88.4982
 1.8290	88.5033
 1.8280	88.4502
 1.8270	88.4566
 1.8260	88.5091
 1.8250	88.4922
 1.8240	88.4723
 1.8230	88.5478
 1.8220	88.5991
 1.8210	88.5451
 1.8200	88.4602
 1.8190	88.5340
 1.8180	88.5861
 1.8170	88.5419
 1.8160	88.5464
 1.8150	88.5264
 1.8140	88.5199
 1.8130	88.5681
 1.8120	88.5581
 1.8110	88.5743
 1.8100	88.6176
 1.8090	88.6002
 1.8080	88.5363
 1.8070	88.6236
 1.8060	88.6397
 1.8050	88.6231
 1.8040	88.6287
 1.8030	88.6411
 1.8020	88.6727
 1.8010	88.6443
 1.8000	88.6676
 1.7990	88.6800
 1.7980	88.6411
 1.7970	88.6487
 1.7960	88.6614
 1.7950	88.6641
 1.7940	88.6553
 1.7930	88.6342
 1.7920	88.6126
 1.7910	88.6392
 1.7900	88.6406
 1.7890	88.6022
 1.7880	88.6034
 1.7870	88.6017
 1.7860	88.5561
 1.7850	88.5731
 1.7840	88.6271
 1.7830	88.5851
 1.7820	88.5371
 1.7810	88.5300
 1.7800	88.5361
 1.7790	88.5421
 1.7780	88.5530
 1.7770	88.5684
 1.7760	88.5531
 1.7750	88.5291
 1.7740	88.4836
 1.7730	88.4816
 1.7720	88.5335
 1.7710	88.5272
 1.7700	88.5030
 1.7690	88.5098
 1.7680	88.4885
 1.7670	88.4602
 1.7660	88.4766
 1.7650	88.5393
 1.7640	88.5479
 1.7630	88.5413
 1.7620	88.5093
 1.7610	88.5377
 1.7600	88.5462
 1.7590	88.5128
 1.7580	88.4982
 1.7570	88.4916
 1.7560	88.5312
 1.7550	88.5006
 1.7540	88.4506
 1.7530	88.5165
 1.7520	88.5288
 1.7510	88.5711
 1.7500	88.5173
 1.7490	88.5102
 1.7480	88.5791
 1.7470	88.5753
 1.7460	88.5216
 1.7450	88.5191
 1.7440	88.5202
 1.7430	88.5612
 1.7420	88.5657
 1.7410	88.6124
 1.7400	88.6235
 1.7390	88.5738
 1.7380	88.5261
 1.7370	88.5341
 1.7360	88.6230
 1.7350	88.6149
 1.7340	88.5664
 1.7330	88.5880
 1.7320	88.6402
 1.7310	88.6491
 1.7300	88.7070
 1.7290	88.6924
 1.7280	88.6303
 1.7270	88.6053
 1.7260	88.6136
 1.7250	88.6621
 1.7240	88.7112
 1.7230	88.7081
 1.7220	88.6947
 1.7210	88.6268
 1.7200	88.6087
 1.7190	88.5957
 1.7180	88.6122
 1.7170	88.6824
 1.7160	88.6520
 1.7150	88.6946
 1.7140	88.6946
 1.7130	88.6748
 1.7120	88.6404
 1.7110	88.7027
 1.7100	88.6350
 1.7090	88.6512
 1.7080	88.6981
 1.7070	88.7070
 1.7060	88.6911
 1.7050	88.6975
 1.7040	88.7125
 1.7030	88.6574
 1.7020	88.6414
 1.7010	88.6903
 1.7000	88.6283
 1.6990	88.6649
 1.6980	88.6982
 1.6970	88.6787
 1.6960	88.6732
 1.6950	88.6782
 1.6940	88.6559
 1.6930	88.7331
 1.6920	88.6233
 1.6910	88.6150
 1.6900	88.6298
 1.6890	88.6403
 1.6880	88.7139
 1.6870	88.6582
 1.6860	88.6572
 1.6850	88.7087
 1.6840	88.6801
 1.6830	88.6297
 1.6820	88.6432
 1.6810	88.6201
 1.6800	88.6458
 1.6790	88.6298
 1.6780	88.6605
 1.6770	88.6082
 1.6760	88.6275
 1.6750	88.5822
 1.6740	88.6360
 1.6730	88.5925
 1.6720	88.6209
 1.6710	88.6680
 1.6700	88.7309
 1.6690	88.6533
 1.6680	88.6004
 1.6670	88.6216
 1.6660	88.6023
 1.6650	88.5965
 1.6640	88.6141
 1.6630	88.7045
 1.6620	88.6032
 1.6610	88.6145
 1.6600	88.7171
 1.6590	88.6564
 1.6580	88.7238
 1.6570	88.7790
 1.6560	88.6714
 1.6550	88.6896
 1.6540	88.5161
 1.6530	88.6762
 1.6520	88.6396
 1.6510	88.6460
 1.6500	88.6885
 1.6490	88.6265
 1.6480	88.6725
 1.6470	88.7433
 1.6460	88.6533
 1.6450	88.6772
 1.6440	88.7313
 1.6430	88.6078
 1.6420	88.6632
 1.6410	88.6773
 1.6400	88.6668
 1.6390	88.6376
 1.6380	88.6417
 1.6370	88.6672
 1.6360	88.6819
 1.6350	88.6996
 1.6340	88.5904
 1.6330	88.7495
 1.6320	88.6144
 1.6310	88.6233
 1.6300	88.6226
 1.6290	88.6504
 1.6280	88.6028
 1.6270	88.6343
 1.6260	88.6393
 1.6250	88.6184
 1.6240	88.6428
 1.6230	88.6818
 1.6220	88.6376
 1.6210	88.6537
 1.6200	88.7114
 1.6190	88.7282
 1.6180	88.7124
 1.6170	88.6634
 1.6160	88.6743
 1.6150	88.6472
 1.6140	88.7440
 1.6130	88.7624
 1.6120	88.6608
 1.6110	88.6475
 1.6100	88.6107
 1.6090	88.6394
 1.6080	88.6733
 1.6070	88.6833
 1.6060	88.6065
 1.6050	88.6304
 1.6040	88.6773
 1.6030	88.6245
 1.6020	88.7310
 1.6010	88.7189
 1.6000	88.7274
 1.5990	88.6494
 1.5980	88.6809
 1.5970	88.5964
 1.5960	88.6393
 1.5950	88.6351
 1.5940	88.6420
 1.5930	88.6180
 1.5920	88.6464
 1.5910	88.7036
 1.5900	88.7020
 1.5890	88.6891
 1.5880	88.6092
 1.5870	88.5758
 1.5860	88.6352
 1.5850	88.6579
 1.5840	88.6520
 1.5830	88.6708
 1.5820	88.5948
 1.5810	88.6045
 1.5800	88.6421
 1.5790	88.6243
 1.5780	88.6431
 1.5770	88.6664
 1.5760	88.6069
 1.5750	88.5900
 1.5740	88.6620
 1.5730	88.5877
 1.5720	88.6300
 1.5710	88.6452
 1.5700	88.6986
 1.5690	88.6234
 1.5680	88.6122
 1.5670	88.6146
 1.5660	88.5655
 1.5650	88.6069
 1.5640	88.6150
 1.5630	88.6352
 1.5620	88.6062
 1.5610	88.5726
 1.5600	88.6099
 1.5590	88.6029
 1.5580	88.5937
 1.5570	88.5314
 1.5560	88.5474
 1.5550	88.6401
 1.5540	88.6242
 1.5530	88.5810
 1.5520	88.5712
 1.5510	88.5933
 1.5500	88.5891
 1.5490	88.6017
 1.5480	88.5458
 1.5470	88.5739
 1.5460	88.5788
 1.5450	88.6069
 1.5440	88.5713
 1.5430	88.4817
 1.5420	88.5063
 1.5410	88.5456
 1.5400	88.5999
 1.5390	88.5564
 1.5380	88.5467
 1.5370	88.5263
 1.5360	88.4974
 1.5350	88.5258
 1.5340	88.5161
 1.5330	88.4437
 1.5320	88.4650
 1.5310	88.4940
 1.5300	88.5164
 1.5290	88.5031
 1.5280	88.5055
 1.5270	88.5030
 1.5260	88.4915
 1.5250	88.4780
 1.5240	88.4686
 1.5230	88.5211
 1.5220	88.5381
 1.5210	88.4650
 1.5200	88.4774
 1.5190	88.4845
 1.5180	88.4695
 1.5170	88.5081
 1.5160	88.4787
 1.5150	88.4243
 1.5140	88.4820
 1.5130	88.4820
 1.5120	88.4652
 1.5110	88.4945
 1.5100	88.4561
 1.5090	88.4512
 1.5080	88.4922
 1.5070	88.4498
 1.5060	88.3738
 1.5050	88.3729
 1.5040	88.3748
 1.5030	88.3945
 1.5020	88.4464
 1.5010	88.4359
 1.5000	88.4017
 1.4990	88.4279
 1.4980	88.4494
 1.4970	88.3919
 1.4960	88.3587
 1.4950	88.4000
 1.4940	88.3900
 1.4930	88.3283
 1.4920	88.3800
 1.4910	88.4297
 1.4900	88.3836
 1.4890	88.3409
 1.4880	88.3799
 1.4870	88.4304
 1.4860	88.3778
 1.4850	88.3261
 1.4840	88.3753
 1.4830	88.3560
 1.4820	88.3328
 1.4810	88.3367
 1.4800	88.2911
 1.4790	88.2835
 1.4780	88.2838
 1.4770	88.2734
 1.4760	88.2751
 1.4750	88.2905
 1.4740	88.2695
 1.4730	88.3000
 1.4720	88.3308
 1.4710	88.3331
 1.4700	88.2902
 1.4690	88.3041
 1.4680	88.3025
 1.4670	88.2832
 1.4660	88.2207
 1.4650	88.1947
 1.4640	88.2481
 1.4630	88.2882
 1.4620	88.2803
 1.4610	88.2620
 1.4600	88.2749
 1.4590	88.2396
 1.4580	88.1847
 1.4570	88.2220
 1.4560	88.3098
 1.4550	88.3030
 1.4540	88.2325
 1.4530	88.2475
 1.4520	88.1910
 1.4510	88.1558
 1.4500	88.2017
 1.4490	88.1905
 1.4480	88.2359
 1.4470	88.2253
 1.4460	88.2065
 1.4450	88.1890
 1.4440	88.1907
 1.4430	88.1882
 1.4420	88.1692
 1.4410	88.1351
 1.4400	88.1765
 1.4390	88.2016
 1.4380	88.2210
 1.4370	88.1944
 1.4360	88.1871
 1.4350	88.1571
 1.4340	88.1200
 1.4330	88.1868
 1.4320	88.1860
 1.4310	88.1866
 1.4300	88.1118
 1.4290	88.1774
 1.4280	88.1800
 1.4270	88.0879
 1.4260	88.1316
 1.4250	88.0982
 1.4240	88.1417
 1.4230	88.1349
 1.4220	88.1625
 1.4210	88.1293
 1.4200	88.0765
 1.4190	88.1110
 1.4180	88.0084
 1.4170	88.0787
 1.4160	88.0407
 1.4150	88.0917
 1.4140	88.0518
 1.4130	88.0069
 1.4120	88.0871
 1.4110	88.0950
 1.4100	88.0932
 1.4090	88.1171
 1.4080	88.1197
 1.4070	88.1380
 1.4060	88.1082
 1.4050	88.1048
 1.4040	88.1292
 1.4030	88.0920
 1.4020	88.1600
 1.4010	88.2241
 1.4000	88.0709
 1.3990	88.1608
 1.3980	88.1646
 1.3970	88.1585
 1.3960	88.2354
 1.3950	88.2247
 1.3940	88.2517
 1.3930	88.2429
 1.3920	88.2363
 1.3910	88.2970
 1.3900	88.2385
 1.3890	88.2007
 1.3880	88.3200
 1.3870	88.2822
 1.3860	88.1968
 1.3850	88.1982
 1.3840	88.2360
 1.3830	88.2204
 1.3820	88.2686
 1.3810	88.2133
 1.3800	88.2617
 1.3790	88.2830
 1.3780	88.2923
 1.3770	88.3103
 1.3760	88.2315
 1.3750	88.3307
 1.3740	88.3310
 1.3730	88.2851
 1.3720	88.2329
 1.3710	88.3046
 1.3700	88.2228
 1.3690	88.3515
 1.3680	88.2524
 1.3670	88.1923
 1.3660	88.2512
 1.3650	88.3324
 1.3640	88.3060
 1.3630	88.2549
 1.3620	88.1907
 1.3610	88.2613
 1.3600	88.2887
 1.3590	88.2255
 1.3580	88.2212
 1.3570	88.2542
 1.3560	88.2716
 1.3550	88.1977
 1.3540	88.1015
 1.3530	88.2321
 1.3520	88.1740
 1.3510	88.1739
 1.3500	88.1609
 1.3490	88.1922
 1.3480	88.2013
 1.3470	88.1965
 1.3460	88.1810
 1.3450	88.2346
 1.3440	88.0852
 1.3430	88.1698
 1.3420	88.1821
 1.3410	88.1647
 1.3400	88.1732
 1.3390	88.1839
 1.3380	88.1364
 1.3370	88.1517
 1.3360	88.1179
 1.3350	88.0872
 1.3340	88.1173
 1.3330	88.1328
 1.3320	88.0432
 1.3310	88.1182
 1.3300	88.1590
 1.3290	88.0895
 1.3280	88.1120
 1.3270	88.0848
 1.3260	88.1174
 1.3250	88.1578
 1.3240	88.1079
 1.3230	88.0952
 1.3220	88.0819
 1.3210	88.0873
 1.3200	88.0494
 1.3190	88.0479
 1.3180	88.1135
 1.3170	88.0255
 1.3160	88.0494
 1.3150	88.0544
 1.3140	88.0236
 1.3130	88.0894
 1.3120	88.0451
 1.3110	88.1016
 1.3100	88.0794
 1.3090	88.0925
 1.3080	88.1157
 1.3070	88.0745
 1.3060	88.0520
 1.3050	88.0117
 1.3040	88.0340
 1.3030	88.0743
 1.3020	88.0485
 1.3010	87.9796
 1.3000	87.9161
 1.2990	87.9832
 1.2980	88.0210
 1.2970	87.9833
 1.2960	88.0388
 1.2950	88.0053
 1.2940	88.0002
 1.2930	87.9701
 1.2920	87.9883
 1.2910	87.9540
 1.2900	88.0101
 1.2890	88.0495
 1.2880	87.9598
 1.2870	87.9753
 1.2860	87.9072
 1.2850	87.9040
 1.2840	87.9249
 1.2830	87.9628
 1.2820	87.9411
 1.2810	87.9450
 1.2800	88.0016
 1.2790	87.9527
 1.2780	87.9217
 1.2770	87.9032
 1.2760	87.9347
 1.2750	87.9597
 1.2740	87.9923
 1.2730	87.9638
 1.2720	87.9486
 1.2710	87.9487
 1.2700	87.9020
 1.2690	87.9337
 1.2680	87.9484
 1.2670	87.8819
 1.2660	87.8634
 1.2650	87.9137
 1.2640	87.8698
 1.2630	87.8559
 1.2620	87.8698
 1.2610	87.8724
 1.2600	87.9015
 1.2590	87.8784
 1.2580	87.8462
 1.2570	87.8484
 1.2560	87.8905
 1.2550	87.8251
 1.2540	87.8108
 1.2530	87.8329
 1.2520	87.8621
 1.2510	87.8192
 1.2500	87.8541
 1.2490	87.8681
 1.2480	87.8130
 1.2470	87.8312
 1.2460	87.8267
 1.2450	87.8467
 1.2440	87.8048
 1.2430	87.7879
 1.2420	87.7939
 1.2410	87.7615
 1.2400	87.7400
 1.2390	87.7103
 1.2380	87.8065
 1.2370	87.8257
 1.2360	87.7806
 1.2350	87.7544
 1.2340	87.7314
 1.2330	87.7600
 1.2320	87.7167
 1.2310	87.7167
 1.2300	87.7370
 1.2290	87.7730
 1.2280	87.7687
 1.2270	87.7714
 1.2260	87.7806
 1.2250	87.7377
 1.2240	87.7462
 1.2230	87.7408
 1.2220	87.7077
 1.2210	87.6961
 1.2200	87.6953
 1.2190	87.6874
 1.2180	87.7301
 1.2170	87.7258
 1.2160	87.6704
 1.2150	87.7010
 1.2140	87.7194
 1.2130	87.6446
 1.2120	87.6243
 1.2110	87.6725
 1.2100	87.6686
 1.2090	87.6488
 1.2080	87.6473
 1.2070	87.6801
 1.2060	87.6542
 1.2050	87.6084
 1.2040	87.6046
 1.2030	87.5998
 1.2020	87.5871
 1.2010	87.5629
 1.2000	87.5911
 1.1990	87.5985
 1.1980	87.5678
 1.1970	87.5374
 1.1960	87.5212
 1.1950	87.5740
 1.1940	87.6339
 1.1930	87.6058
 1.1920	87.5617
 1.1910	87.5304
 1.1900	87.5362
 1.1890	87.5918
 1.1880	87.5642
 1.1870	87.5289
 1.1860	87.5262
 1.1850	87.5086
 1.1840	87.5184
 1.1830	87.5516
 1.1820	87.5456
 1.1810	87.5460
 1.1800	87.5869
 1.1790	87.5462
 1.1780	87.5435
 1.1770	87.5134
 1.1760	87.5141
 1.1750	87.5460
 1.1740	87.5643
 1.1730	87.5173
 1.1720	87.4946
 1.1710	87.5109
 1.1700	87.4876
 1.1690	87.4710
 1.1680	87.5382
 1.1670	87.4906
 1.1660	87.4838
 1.1650	87.4979
 1.1640	87.5770
 1.1630	87.5085
 1.1620	87.4609
 1.1610	87.4515
 1.1600	87.4954
 1.1590	87.4662
 1.1580	87.4931
 1.1570	87.4781
 1.1560	87.4658
 1.1550	87.4562
 1.1540	87.4688
 1.1530	87.4972
 1.1520	87.4353
 1.1510	87.4564
 1.1500	87.4980
 1.1490	87.4067
 1.1480	87.4345
 1.1470	87.4455
 1.1460	87.4473
 1.1450	87.4629
 1.1440	87.4265
 1.1430	87.3825
 1.1420	87.4200
 1.1410	87.3767
 1.1400	87.4255
 1.1390	87.4060
 1.1380	87.4574
 1.1370	87.4321
 1.1360	87.3887
 1.1350	87.4265
 1.1340	87.3947
 1.1330	87.2791
 1.1320	87.3333
 1.1310	87.3160
 1.1300	87.3467
 1.1290	87.4033
 1.1280	87.4128
 1.1270	87.3429
 1.1260	87.3123
 1.1250	87.3934
 1.1240	87.3646
 1.1230	87.3937
 1.1220	87.3333
 1.1210	87.3445
 1.1200	87.3297
 1.1190	87.3620
 1.1180	87.3234
 1.1170	87.2696
 1.1160	87.3027
 1.1150	87.3553
 1.1140	87.3690
 1.1130	87.3893
 1.1120	87.3741
 1.1110	87.3233
 1.1100	87.3889
 1.1090	87.3277
 1.1080	87.2922
 1.1070	87.3362
 1.1060	87.3021
 1.1050	87.2672
 1.1040	87.3968
 1.1030	87.3207
 1.1020	87.2751
 1.1010	87.2474
 1.1000	87.2410
 1.0990	87.2578
 1.0980	87.2838
 1.0970	87.2754
 1.0960	87.2897
 1.0950	87.2533
 1.0940	87.3013
 1.0930	87.2844
 1.0920	87.2396
 1.0910	87.2508
 1.0900	87.1995
 1.0890	87.2113
 1.0880	87.1917
 1.0870	87.2486
 1.0860	87.2602
 1.0850	87.2462
 1.0840	87.2327
 1.0830	87.2045
 1.0820	87.2367
 1.0810	87.2889
 1.0800	87.2366
 1.0790	87.1879
 1.0780	87.2329
 1.0770	87.3387
 1.0760	87.2538
 1.0750	87.1810
 1.0740	87.2520
 1.0730	87.1249
 1.0720	87.1694
 1.0710	87.2083
 1.0700	87.2221
 1.0690	87.2169
 1.0680	87.2329
 1.0670	87.1475
 1.0660	87.1196
 1.0650	87.2175
 1.0640	87.1995
 1.0630	87.1010
 1.0620	87.3231
 1.0610	87.0826
 1.0600	87.2286
 1.0590	87.2222
 1.0580	87.2321
 1.0570	87.1838
 1.0560	87.2583
 1.0550	87.1965
 1.0540	87.2193
 1.0530	87.1358
 1.0520	87.1736
 1.0510	87.1470
 1.0500	87.2002
 1.0490	87.1410
 1.0480	87.1741
 1.0470	87.1631
 1.0460	87.1595
 1.0450	87.2394
 1.0440	87.1560
 1.0430	87.1105
 1.0420	87.1440
 1.0410	87.0954
 1.0400	87.1274
 1.0390	87.1521
 1.0380	87.1183
 1.0370	87.1270
 1.0360	87.1957
 1.0350	87.1328
 1.0340	87.1045
 1.0330	87.1335
 1.0320	87.1223
 1.0310	87.0930
 1.0300	87.0883
 1.0290	87.1442
 1.0280	87.1291
 1.0270	87.1087
 1.0260	87.1374
 1.0250	87.1263
 1.0240	87.1215
 1.0230	87.1345
 1.0220	87.0979
 1.0210	87.0416
 1.0200	87.1016
 1.0190	87.0721
 1.0180	87.1386
 1.0170	87.0798
 1.0160	87.1130
 1.0150	86.9911
 1.0140	87.0138
 1.0130	86.9596
 1.0120	87.0870
 1.0110	87.0726
 1.0100	87.0592
 1.0090	87.0974
 1.0080	87.0777
 1.0070	87.1002
 1.0060	87.0503
 1.0050	87.0222
 1.0040	87.0741
 1.0030	87.0454
 1.0020	87.0319
 1.0010	87.0615
 1.0000	87.0844
 0.9990	87.0472
 0.9980	86.9960
 0.9970	87.0788
 0.9960	86.9860
 0.9950	87.0180
 0.9940	87.0265
 0.9930	87.0067
 0.9920	87.0329
 0.9910	86.9962
 0.9900	87.0236
 0.9890	87.0296
 0.9880	87.0787
 0.9870	87.0363
 0.9860	86.9711
 0.9850	87.0041
 0.9840	87.0228
 0.9830	86.9107
 0.9820	86.9257
 0.9810	86.9794
 0.9800	87.0347
 0.9790	87.0052
 0.9780	86.9524
 0.9770	86.9804
 0.9760	86.9787
 0.9750	86.9439
 0.9740	86.9304
 0.9730	86.8955
 0.9720	86.9564
 0.9710	86.9796
 0.9700	86.9260
 0.9690	86.9307
 0.9680	86.9735
 0.9670	86.9828
 0.9660	86.8885
 0.9650	86.8650
 0.9640	86.8660
 0.9630	86.9016
 0.9620	86.9319
 0.9610	86.8913
 0.9600	86.9136
 0.9590	86.9283
 0.9580	86.9484
 0.9570	86.9183
 0.9560	86.8931
 0.9550	86.8997
 0.9540	86.9079
 0.9530	86.9012
 0.9520	86.9163
 0.9510	86.9317
 0.9500	86.8865
 0.9490	86.8456
 0.9480	86.8318
 0.9470	86.8863
 0.9460	86.8938
 0.9450	86.8899
 0.9440	86.8749
 0.9430	86.8553
 0.9420	86.8478
 0.9410	86.8395
 0.9400	86.8446
 0.9390	86.8582
 0.9380	86.8515
 0.9370	86.8368
 0.9360	86.8448
 0.9350	86.8301
 0.9340	86.8051
 0.9330	86.7665
 0.9320	86.7691
 0.9310	86.7803
 0.9300	86.8110
 0.9290	86.8508
 0.9280	86.8150
 0.9270	86.8213
 0.9260	86.8423
 0.9250	86.7739
 0.9240	86.8053
 0.9230	86.8444
 0.9220	86.7966
 0.9210	86.8043
 0.9200	86.7708
 0.9190	86.7875
 0.9180	86.8175
 0.9170	86.8011
 0.9160	86.8653
 0.9150	86.8311
 0.9140	86.7656
 0.9130	86.7442
 0.9120	86.7241
 0.9110	86.7311
 0.9100	86.7529
 0.9090	86.7897
 0.9080	86.8014
 0.9070	86.7714
 0.9060	86.7357
 0.9050	86.7169
 0.9040	86.7150
 0.9030	86.7041
 0.9020	86.7045
 0.9010	86.7006
 0.9000	86.7164
 0.8990	86.7161
 0.8980	86.7617
 0.8970	86.7519
 0.8960	86.6972
 0.8950	86.6921
 0.8940	86.6685
 0.8930	86.6766
 0.8920	86.7344
 0.8910	86.7199
 0.8900	86.7103
 0.8890	86.7185
 0.8880	86.6875
 0.8870	86.6918
 0.8860	86.6950
 0.8850	86.6675
 0.8840	86.6251
 0.8830	86.6821
 0.8820	86.6441
 0.8810	86.6639
 0.8800	86.7174
 0.8790	86.6630
 0.8780	86.6133
 0.8770	86.5873
 0.8760	86.6260
 0.8750	86.6275
 0.8740	86.6472
 0.8730	86.6485
 0.8720	86.6282
 0.8710	86.6505
 0.8700	86.6557
 0.8690	86.6129
 0.8680	86.6327
 0.8670	86.6119
 0.8660	86.5847
 0.8650	86.6040
 0.8640	86.5864
 0.8630	86.5889
 0.8620	86.6068
 0.8610	86.6193
 0.8600	86.5856
 0.8590	86.6474
 0.8580	86.5610
 0.8570	86.5281
 0.8560	86.6075
 0.8550	86.7189
 0.8540	86.6591
 0.8530	86.7040
 0.8520	86.6944
 0.8510	86.6604
 0.8500	86.5793
 0.8490	86.6355
 0.8480	86.6168
 0.8470	86.6501
 0.8460	86.5726
 0.8450	86.6060
 0.8440	86.6656
 0.8430	86.6128
 0.8420	86.6123
 0.8410	86.5892
 0.8400	86.5731
 0.8390	86.6268
 0.8380	86.5839
 0.8370	86.6141
 0.8360	86.5999
 0.8350	86.6034
 0.8340	86.6550
 0.8330	86.5741
 0.8320	86.5691
 0.8310	86.5862
 0.8300	86.5790
 0.8290	86.6078
 0.8280	86.5985
 0.8270	86.5694
 0.8260	86.5262
 0.8250	86.5590
 0.8240	86.5588
 0.8230	86.5360
 0.8220	86.4970
 0.8210	86.5059
 0.8200	86.5894
 0.8190	86.5886
 0.8180	86.5061
 0.8170	86.5590
 0.8160	86.4581
 0.8150	86.5412
 0.8140	86.5637
 0.8130	86.4971
 0.8120	86.5440
 0.8110	86.4250
 0.8100	86.4819
 0.8090	86.4961
 0.8080	86.4426
 0.8070	86.4889
 0.8060	86.4412
 0.8050	86.5250
 0.8040	86.4535
 0.8030	86.4237
 0.8020	86.4694
 0.8010	86.4341
 0.8000	86.4742
 0.7990	86.3518
 0.7980	86.3831
 0.7970	86.3645
 0.7960	86.3088
 0.7950	86.3392
 0.7940	86.3257
 0.7930	86.2972
 0.7920	86.3000
 0.7910	86.2593
 0.7900	86.2541
 0.7890	86.2726
 0.7880	86.2583
 0.7870	86.2354
 0.7860	86.2600
 0.7850	86.2046
 0.7840	86.2722
 0.7830	86.2230
 0.7820	86.2100
 0.7810	86.1789
 0.7800	86.1532
 0.7790	86.1075
 0.7780	86.1403
 0.7770	86.1293
 0.7760	86.1767
 0.7750	86.1520
 0.7740	86.1241
 0.7730	86.0630
 0.7720	86.1071
 0.7710	86.1157
 0.7700	86.0549
 0.7690	86.0764
 0.7680	86.0814
 0.7670	86.0619
 0.7660	86.0599
 0.7650	86.0384
 0.7640	86.0464
 0.7630	86.0313
 0.7620	86.0396
 0.7610	86.0204
 0.7600	85.9854
 0.7590	85.9662
 0.7580	85.9598
 0.7570	85.9222
 0.7560	85.9311
 0.7550	85.9761
 0.7540	85.9787
 0.7530	85.9256
 0.7520	85.9188
 0.7510	85.9510
 0.7500	85.9168
 0.7490	85.8836
 0.7480	85.9251
 0.7470	85.8873
 0.7460	85.8558
 0.7450	85.8629
 0.7440	85.8705
 0.7430	85.8420
 0.7420	85.8154
 0.7410	85.8064
 0.7400	85.7737
 0.7390	85.7887
 0.7380	85.8356
 0.7370	85.8237
 0.7360	85.7755
 0.7350	85.7636
 0.7340	85.7585
 0.7330	85.7436
 0.7320	85.7428
 0.7310	85.7208
 0.7300	85.7294
 0.7290	85.7138
 0.7280	85.6996
 0.7270	85.6822
 0.7260	85.6660
 0.7250	85.6896
 0.7240	85.6976
 0.7230	85.6976
 0.7220	85.6672
 0.7210	85.6608
 0.7200	85.6550
 0.7190	85.6380
 0.7180	85.6145
 0.7170	85.6004
 0.7160	85.6044
 0.7150	85.6096
 0.7140	85.5711
 0.7130	85.5600
 0.7120	85.5788
 0.7110	85.5456
 0.7100	85.5427
 0.7090	85.5278
 0.7080	85.5334
 0.7070	85.5004
 0.7060	85.4924
 0.7050	85.4859
 0.7040	85.5140
 0.7030	85.4872
 0.7020	85.4649
 0.7010	85.4411
 0.7000	85.4298
 0.6990	85.4156
 0.6980	85.4327
 0.6970	85.4197
 0.6960	85.4014
 0.6950	85.3882
 0.6940	85.3866
 0.6930	85.3818
 0.6920	85.3745
 0.6910	85.3347
 0.6900	85.3336
 0.6890	85.3317
 0.6880	85.2963
 0.6870	85.2975
 0.6860	85.2732
 0.6850	85.2669
 0.6840	85.2676
 0.6830	85.2366
 0.6820	85.2485
 0.6810	85.2231
 0.6800	85.2051
 0.6790	85.2169
 0.6780	85.2114
 0.6770	85.1945
 0.6760	85.2041
 0.6750	85.1654
 0.6740	85.1340
 0.6730	85.1296
 0.6720	85.1207
 0.6710	85.1129
 0.6700	85.0914
 0.6690	85.0863
 0.6680	85.0747
 0.6670	85.0572
 0.6660	85.0375
 0.6650	85.0309
 0.6640	85.0242
 0.6630	85.0068
 0.6620	84.9819
 0.6610	84.9807
 0.6600	84.9636
 0.6590	84.9367
 0.6580	84.9474
 0.6570	84.9338
 0.6560	84.9186
 0.6550	84.9080
 0.6540	84.8885
 0.6530	84.8676
 0.6520	84.8582
 0.6510	84.8462
 0.6500	84.8364
 0.6490	84.8276
 0.6480	84.8187
 0.6470	84.7976
 0.6460	84.7769
 0.6450	84.7736
 0.6440	84.7572
 0.6430	84.7438
 0.6420	84.7396
 0.6410	84.7145
 0.6400	84.6904
 0.6390	84.6763
 0.6380	84.6564
 0.6370	84.6518
 0.6360	84.6449
 0.6350	84.6319
 0.6340	84.6197
 0.6330	84.5885
 0.6320	84.5586
 0.6310	84.5370
 0.6300	84.5327
 0.6290	84.5319
 0.6280	84.5084
 0.6270	84.4868
 0.6260	84.4713
 0.6250	84.4617
 0.6240	84.4500
 0.6230	84.4401
 0.6220	84.4306
 0.6210	84.4246
 0.6200	84.4071
 0.6190	84.3884
 0.6180	84.3512
 0.6170	84.3350
 0.6160	84.3260
 0.6150	84.3203
 0.6140	84.3047
 0.6130	84.2752
 0.6120	84.2558
 0.6110	84.2394
 0.6100	84.2286
 0.6090	84.2143
 0.6080	84.1999
 0.6070	84.1798
 0.6060	84.1529
 0.6050	84.1332
 0.6040	84.1238
 0.6030	84.0945
 0.6020	84.0652
 0.6010	84.0613
 0.6000	84.0483
 0.5990	84.0387
 0.5980	84.0490
 0.5970	84.0344
 0.5960	84.0352
 0.5950	84.0581
 0.5940	84.0410
 0.5930	84.0138
 0.5920	83.9740
 0.5910	83.9461
 0.5900	83.9468
 0.5890	83.9254
 0.5880	83.9042
 0.5870	83.8872
 0.5860	83.8613
 0.5850	83.8297
 0.5840	83.8151
 0.5830	83.7991
 0.5820	83.7747
 0.5810	83.7357
 0.5800	83.7223
 0.5790	83.7140
 0.5780	83.6879
 0.5770	83.6631
 0.5760	83.6511
 0.5750	83.6211
 0.5740	83.5985
 0.5730	83.5661
 0.5720	83.5516
 0.5710	83.5222
 0.5700	83.4913
 0.5690	83.4635
 0.5680	83.4605
 0.5670	83.4338
 0.5660	83.4005
 0.5650	83.3825
 0.5640	83.3539
 0.5630	83.3473
 0.5620	83.3263
 0.5610	83.2776
 0.5600	83.2389
 0.5590	83.2066
 0.5580	83.1817
 0.5570	83.1394
 0.5560	83.1331
 0.5550	83.0997
 0.5540	83.0724
 0.5530	83.0282
 0.5520	83.0232
 0.5510	82.9876
 0.5500	82.9781
 0.5490	82.9303
 0.5480	82.9196
 0.5470	82.8809
 0.5460	82.8522
 0.5450	82.8203
 0.5440	82.7784
 0.5430	82.7603
 0.5420	82.7189
 0.5410	82.6895
 0.5400	82.6638
 0.5390	82.6176
 0.5380	82.6176
 0.5370	82.5858
 0.5360	82.5342
 0.5350	82.5035
 0.5340	82.4655
 0.5330	82.4583
 0.5320	82.4052
 0.5310	82.3780
 0.5300	82.3377
 0.5290	82.3002
 0.5280	82.2620
 0.5270	82.2320
 0.5260	82.1765
 0.5250	82.1397
 0.5240	82.1020
 0.5230	82.1017
 0.5220	82.0922
 0.5210	82.0452
 0.5200	82.0004
 0.5190	81.9659
 0.5180	81.9188
 0.5170	81.8810
 0.5160	81.8369
 0.5150	81.7989
 0.5140	81.7491
 0.5130	81.7248
 0.5120	81.6848
 0.5110	81.6340
 0.5100	81.6269
 0.5090	81.5533
 0.5080	81.5221
 0.5070	81.5157
 0.5060	81.4560
 0.5050	81.4079
 0.5040	81.3789
 0.5030	81.3418
 0.5020	81.2915
 0.5010	81.2409
 0.5000	81.1801
 0.4990	81.1427
 0.4980	81.0927
 0.4970	81.0741
 0.4960	81.0315
 0.4950	80.9873
 0.4940	80.9321
 0.4930	80.9015
 0.4920	80.8554
 0.4910	80.7805
 0.4900	80.7612
 0.4890	80.6785
 0.4880	80.6488
 0.4870	80.6184
 0.4860	80.5822
 0.4850	80.5202
 0.4840	80.4871
 0.4830	80.4269
 0.4820	80.3764
 0.4810	80.3650
 0.4800	80.3048
 0.4790	80.2569
 0.4780	80.2247
 0.4770	80.1997
 0.4760	80.1573
 0.4750	80.1145
 0.4740	80.0817
 0.4730	80.0221
 0.4720	80.0006
 0.4710	79.9679
 0.4700	79.9045
 0.4690	79.8776
 0.4680	79.8132
 0.4670	79.7591
 0.4660	79.7386
 0.4650	79.6807
 0.4640	79.6643
 0.4630	79.6134
 0.4620	79.5546
 0.4610	79.5192
 0.4600	79.4708
 0.4590	79.4170
 0.4580	79.3840
 0.4570	79.3166
 0.4560	79.2328
 0.4550	79.2213
 0.4540	79.1575
 0.4530	79.0988
 0.4520	79.0628
 0.4510	79.0284
 0.4500	78.9484
 0.4490	78.8939
 0.4480	78.8577
 0.4470	78.8008
 0.4460	78.7551
 0.4450	78.6939
 0.4440	78.6319
 0.4430	78.5556
 0.4420	78.4945
 0.4410	78.4394
 0.4400	78.3992
 0.4390	78.3517
 0.4380	78.3054
 0.4370	78.2454
 0.4360	78.1807
 0.4350	78.1348
 0.4340	78.0744
 0.4330	78.0322
 0.4320	77.9748
 0.4310	77.8913
 0.4300	77.8338
 0.4290	77.7821
 0.4280	77.7052
 0.4270	77.6702
 0.4260	77.6095
 0.4250	77.5568
 0.4240	77.4956
 0.4230	77.4269
 0.4220	77.3697
 0.4210	77.3196
 0.4200	77.2686
 0.4190	77.2142
 0.4180	77.1414
 0.4170	77.0911
 0.4160	77.0199
 0.4150	76.9640
 0.4140	76.8842
 0.4130	76.8290
 0.4120	76.7759
 0.4110	76.7285
 0.4100	76.6482
 0.4090	76.5836
 0.4080	76.5127
 0.4070	76.4356
 0.4060	76.3951
 0.4050	76.3388
 0.4040	76.2554
 0.4030	76.2036
 0.4020	76.1285
 0.4010	76.0379
 0.4000	75.9658
