Name: Jarosite KFe_3^3+(SO_4)_2(OH)_6
Type: Mineral
Class: Sulfate
Subclass: None
Particle Size: Coarse
Sample No.: SO-7A
Owner: JPL
Wavelength Range: VSWIR
Origin: Mexico, Chihuahua
Collection Date: N/A
Description: Particle size was 125-500um.Collected by Ward's Original ASTER Spectral Library name was jpl.beckman.mineral.sulfate.none.coarse.so07a.spectrum.txt
Measurement: Hemispherical reflectance
First Column: X
Second Column: Y
X Units: Wavelength (micrometers)
Y Units:Reflectance (percent)
First X Value:  0.4000
Last X Value:  2.5000
Number of X Values: 826
Additional Information: mineral.sulfate.none.coarse.vswir.so-7a.jpl.beckman.ancillary.txt

 0.4000	 4.0600
 0.4010	 3.9600
 0.4020	 4.0700
 0.4030	 4.1900
 0.4040	 4.3700
 0.4050	 4.3700
 0.4060	 4.4300
 0.4070	 4.4900
 0.4080	 4.6700
 0.4090	 4.7800
 0.4100	 4.7800
 0.4110	 4.8500
 0.4120	 4.9700
 0.4130	 5.0800
 0.4140	 5.2600
 0.4150	 5.2100
 0.4160	 5.3300
 0.4170	 5.4400
 0.4180	 5.4300
 0.4190	 5.5500
 0.4200	 5.6800
 0.4210	 5.6900
 0.4220	 5.7400
 0.4230	 5.7400
 0.4240	 5.9100
 0.4250	 5.9700
 0.4260	 5.9200
 0.4270	 5.9700
 0.4280	 5.9800
 0.4290	 6.1000
 0.4300	 6.0800
 0.4310	 6.0800
 0.4320	 6.0200
 0.4330	 6.0800
 0.4340	 6.2100
 0.4350	 6.1600
 0.4360	 6.0400
 0.4370	 6.1000
 0.4380	 6.1600
 0.4390	 6.2800
 0.4400	 6.2900
 0.4410	 6.3200
 0.4420	 6.4900
 0.4430	 6.5600
 0.4440	 6.7300
 0.4450	 6.8500
 0.4460	 6.9300
 0.4470	 7.1100
 0.4480	 7.2800
 0.4490	 7.4100
 0.4500	 7.5300
 0.4510	 7.6400
 0.4520	 7.8600
 0.4530	 8.0200
 0.4540	 8.2300
 0.4550	 8.3200
 0.4560	 8.4100
 0.4570	 8.5600
 0.4580	 8.7200
 0.4590	 8.9400
 0.4600	 8.8600
 0.4610	 9.1400
 0.4620	 9.3300
 0.4630	 9.4200
 0.4640	 9.5500
 0.4650	 9.6700
 0.4660	 9.7700
 0.4670	10.0100
 0.4680	10.0800
 0.4690	10.1800
 0.4700	10.3600
 0.4710	10.5900
 0.4720	10.7400
 0.4730	10.8700
 0.4740	11.1200
 0.4750	11.2200
 0.4760	11.4300
 0.4770	11.6000
 0.4780	11.7400
 0.4790	11.9200
 0.4800	12.0600
 0.4810	12.2500
 0.4820	12.3400
 0.4830	12.6700
 0.4840	12.7400
 0.4850	12.9000
 0.4860	13.0900
 0.4870	13.2400
 0.4880	13.4800
 0.4890	13.5800
 0.4900	13.7200
 0.4910	13.9800
 0.4920	14.0500
 0.4930	14.2500
 0.4940	14.4100
 0.4950	14.5600
 0.4960	14.7300
 0.4970	14.8200
 0.4980	15.0400
 0.4990	15.1500
 0.5000	15.3100
 0.5010	15.4700
 0.5020	15.5000
 0.5030	15.7400
 0.5040	15.8400
 0.5050	15.9400
 0.5060	16.0700
 0.5070	16.1300
 0.5080	16.3100
 0.5090	16.3900
 0.5100	16.4600
 0.5110	16.5800
 0.5120	16.6300
 0.5130	16.8300
 0.5140	16.8800
 0.5150	17.0000
 0.5160	17.0900
 0.5170	17.1600
 0.5180	17.3600
 0.5190	17.3400
 0.5200	17.4500
 0.5210	17.5200
 0.5220	17.6100
 0.5230	17.8800
 0.5240	17.8500
 0.5250	17.9300
 0.5260	18.0700
 0.5270	18.1300
 0.5280	18.2100
 0.5290	18.1900
 0.5300	18.2600
 0.5310	18.4200
 0.5320	18.4500
 0.5330	18.5800
 0.5340	18.5900
 0.5350	18.7100
 0.5360	18.7400
 0.5370	18.8600
 0.5380	18.9900
 0.5390	19.0600
 0.5400	19.0500
 0.5410	19.1200
 0.5420	19.2300
 0.5430	19.2800
 0.5440	19.3300
 0.5450	19.4700
 0.5460	19.5500
 0.5470	19.6200
 0.5480	19.6400
 0.5490	19.8000
 0.5500	19.8900
 0.5510	19.8800
 0.5520	20.0300
 0.5530	20.0900
 0.5540	20.2500
 0.5550	20.3200
 0.5560	20.3000
 0.5570	20.4400
 0.5580	20.5000
 0.5590	20.5700
 0.5600	20.5800
 0.5610	20.8500
 0.5620	20.9400
 0.5630	21.1400
 0.5640	21.1800
 0.5650	21.3000
 0.5660	21.3300
 0.5670	21.4100
 0.5680	21.6400
 0.5690	21.5700
 0.5700	21.7100
 0.5710	21.8700
 0.5720	21.9700
 0.5730	22.0900
 0.5740	22.1100
 0.5750	22.2900
 0.5760	22.3300
 0.5770	22.4400
 0.5780	22.6200
 0.5790	22.6500
 0.5800	22.8400
 0.5810	22.9600
 0.5820	23.0400
 0.5830	23.2500
 0.5840	23.3200
 0.5850	23.5600
 0.5860	23.6400
 0.5870	23.7900
 0.5880	23.9700
 0.5890	24.0700
 0.5900	24.2300
 0.5910	24.2900
 0.5920	24.4900
 0.5930	24.7300
 0.5940	24.7400
 0.5950	25.0300
 0.5960	25.1500
 0.5970	25.2900
 0.5980	25.5300
 0.5990	25.6300
 0.6000	25.9000
 0.6010	26.0400
 0.6020	26.2000
 0.6030	26.4400
 0.6040	26.5400
 0.6050	26.8000
 0.6060	26.9700
 0.6070	27.1100
 0.6080	27.2800
 0.6090	27.4400
 0.6100	27.6900
 0.6110	27.8400
 0.6120	27.9800
 0.6130	28.2200
 0.6140	28.3500
 0.6150	28.5900
 0.6160	28.7400
 0.6170	28.9400
 0.6180	29.1000
 0.6190	29.1800
 0.6200	29.4700
 0.6210	29.5700
 0.6220	29.7500
 0.6230	29.9800
 0.6240	30.0700
 0.6250	30.3800
 0.6260	30.5700
 0.6270	30.6800
 0.6280	30.9100
 0.6290	30.9500
 0.6300	31.2800
 0.6310	31.3900
 0.6320	31.5900
 0.6330	31.7800
 0.6340	31.8800
 0.6350	32.0300
 0.6360	32.2100
 0.6370	32.3500
 0.6380	32.5500
 0.6390	32.7000
 0.6400	32.8700
 0.6410	32.9800
 0.6420	33.1400
 0.6430	33.2600
 0.6440	33.4100
 0.6450	33.6200
 0.6460	33.7800
 0.6470	33.8900
 0.6480	34.0000
 0.6490	34.1600
 0.6500	34.3700
 0.6510	34.4500
 0.6520	34.6000
 0.6530	34.7100
 0.6540	34.9600
 0.6550	35.0600
 0.6560	35.1400
 0.6570	35.2800
 0.6580	35.4700
 0.6590	35.6200
 0.6600	35.6800
 0.6610	35.8200
 0.6620	35.9800
 0.6630	36.2200
 0.6640	36.1600
 0.6650	36.2800
 0.6660	36.5000
 0.6670	36.5500
 0.6680	36.7200
 0.6690	36.7700
 0.6700	36.9800
 0.6710	37.1500
 0.6720	37.1600
 0.6730	37.4100
 0.6740	37.5400
 0.6750	37.5600
 0.6760	37.7100
 0.6770	37.7500
 0.6780	38.0200
 0.6790	38.1000
 0.6800	38.1900
 0.6810	38.3100
 0.6820	38.3900
 0.6830	38.6000
 0.6840	38.6800
 0.6850	38.8000
 0.6860	38.9300
 0.6870	39.0300
 0.6880	39.2500
 0.6890	39.3500
 0.6900	39.3700
 0.6910	39.4900
 0.6920	39.6500
 0.6930	39.8000
 0.6940	39.9200
 0.6950	39.9600
 0.6960	40.0800
 0.6970	40.2500
 0.6980	40.4400
 0.6990	40.4300
 0.7000	40.4600
 0.7010	40.5500
 0.7020	40.8500
 0.7030	41.0000
 0.7040	41.1800
 0.7050	41.3300
 0.7060	41.3200
 0.7070	41.4500
 0.7080	41.5900
 0.7090	41.7400
 0.7100	41.7800
 0.7110	41.8400
 0.7120	42.0100
 0.7130	42.0400
 0.7140	42.2200
 0.7150	42.2100
 0.7160	42.2400
 0.7170	42.4100
 0.7180	42.3100
 0.7190	42.5000
 0.7200	42.6000
 0.7210	42.6700
 0.7220	42.7100
 0.7230	42.6700
 0.7240	42.8100
 0.7250	42.8400
 0.7260	42.8700
 0.7270	42.9900
 0.7280	42.9300
 0.7290	43.0400
 0.7300	43.0600
 0.7310	43.0400
 0.7320	43.0800
 0.7330	42.9900
 0.7340	43.1200
 0.7350	43.0100
 0.7360	42.9800
 0.7370	42.9900
 0.7380	42.9300
 0.7390	43.0100
 0.7400	42.9800
 0.7410	42.9000
 0.7420	42.8500
 0.7430	42.8700
 0.7440	42.8500
 0.7450	42.7900
 0.7460	42.7100
 0.7470	42.8200
 0.7480	42.7200
 0.7490	42.5200
 0.7500	42.5200
 0.7510	42.4500
 0.7520	42.4700
 0.7530	42.2900
 0.7540	42.1300
 0.7550	42.1400
 0.7560	42.0500
 0.7570	42.0100
 0.7580	41.7800
 0.7590	41.7000
 0.7600	41.7400
 0.7610	41.5600
 0.7620	41.5000
 0.7630	41.3300
 0.7640	41.2200
 0.7650	41.1700
 0.7660	40.9900
 0.7670	41.0100
 0.7680	40.8700
 0.7690	40.7000
 0.7700	40.5900
 0.7710	40.4500
 0.7720	40.3900
 0.7730	40.2900
 0.7740	40.1100
 0.7750	40.0100
 0.7760	39.8600
 0.7770	39.7800
 0.7780	39.6700
 0.7790	39.5300
 0.7800	39.4500
 0.7810	39.2800
 0.7820	39.1700
 0.7830	39.0000
 0.7840	38.9500
 0.7850	38.8500
 0.7860	38.6600
 0.7870	38.5900
 0.7880	38.5000
 0.7890	38.2700
 0.7900	38.3200
 0.7910	38.2300
 0.7920	38.0900
 0.7930	37.9300
 0.7940	37.8700
 0.7950	37.7600
 0.7960	37.5700
 0.7970	37.4200
 0.7980	37.3900
 0.7990	37.2200
 0.8000	37.4700
 0.8040	37.0000
 0.8080	36.5200
 0.8120	36.0800
 0.8160	35.7200
 0.8200	35.3500
 0.8240	34.8800
 0.8280	34.5500
 0.8320	34.1800
 0.8360	33.8600
 0.8400	33.6300
 0.8440	33.2900
 0.8480	33.0800
 0.8520	32.7600
 0.8560	32.6000
 0.8600	32.3800
 0.8640	32.1900
 0.8680	31.9200
 0.8720	31.7800
 0.8760	31.6000
 0.8800	31.4200
 0.8840	31.4000
 0.8880	31.3400
 0.8920	31.2200
 0.8960	31.1800
 0.9000	31.1200
 0.9040	31.1000
 0.9080	31.0200
 0.9120	31.0800
 0.9160	31.0400
 0.9200	31.0600
 0.9240	31.1600
 0.9280	31.1600
 0.9320	31.2200
 0.9360	31.3200
 0.9400	31.4000
 0.9440	31.5600
 0.9480	31.6600
 0.9520	31.8400
 0.9560	31.9600
 0.9600	32.1200
 0.9640	32.4100
 0.9680	32.5700
 0.9720	32.7400
 0.9760	32.9600
 0.9800	33.2400
 0.9840	33.3900
 0.9880	33.7000
 0.9920	33.9900
 0.9960	34.1800
 1.0000	34.2900
 1.0040	34.6400
 1.0080	34.9900
 1.0120	35.2300
 1.0160	35.5200
 1.0200	35.8500
 1.0240	36.1600
 1.0280	36.4000
 1.0320	36.7300
 1.0360	37.0400
 1.0400	37.3500
 1.0440	37.6500
 1.0480	38.0000
 1.0520	38.3200
 1.0560	38.6100
 1.0600	38.8700
 1.0640	39.2100
 1.0680	39.6100
 1.0720	39.8800
 1.0760	40.1900
 1.0800	40.5000
 1.0840	40.9000
 1.0880	41.2200
 1.0920	41.5100
 1.0960	41.9000
 1.1000	42.2600
 1.1040	42.6200
 1.1080	43.0100
 1.1120	43.3300
 1.1160	43.6400
 1.1200	44.0500
 1.1240	44.4600
 1.1280	44.9000
 1.1320	45.2100
 1.1360	45.5500
 1.1400	45.9700
 1.1440	46.3000
 1.1480	46.7700
 1.1520	47.2700
 1.1560	47.5100
 1.1600	47.9500
 1.1640	48.3600
 1.1680	48.7200
 1.1720	49.1200
 1.1760	49.5500
 1.1800	49.9300
 1.1840	50.3400
 1.1880	50.7500
 1.1920	51.1300
 1.1960	51.6100
 1.2000	51.9800
 1.2040	52.3300
 1.2080	52.7800
 1.2120	53.2100
 1.2160	53.6500
 1.2200	54.0800
 1.2240	54.5100
 1.2280	54.9900
 1.2320	55.4300
 1.2360	55.7600
 1.2400	56.2200
 1.2440	56.6900
 1.2480	57.0500
 1.2520	57.5300
 1.2560	57.9700
 1.2600	58.4700
 1.2640	58.8400
 1.2680	59.2900
 1.2720	59.7800
 1.2760	60.2100
 1.2800	60.6900
 1.2840	61.1500
 1.2880	61.5100
 1.2920	61.9700
 1.2960	62.3600
 1.3000	62.8600
 1.3040	63.2900
 1.3080	63.6500
 1.3120	64.1600
 1.3160	64.5300
 1.3200	64.9700
 1.3240	65.3500
 1.3280	65.7100
 1.3320	66.2500
 1.3360	66.6300
 1.3400	67.0400
 1.3440	67.4600
 1.3480	67.8700
 1.3520	68.2100
 1.3560	68.6300
 1.3600	69.1000
 1.3640	69.4800
 1.3680	69.8100
 1.3720	70.0100
 1.3760	70.3600
 1.3800	70.6400
 1.3840	70.9600
 1.3880	71.1900
 1.3920	71.3600
 1.3960	71.5000
 1.4000	71.6000
 1.4040	71.6500
 1.4080	71.8600
 1.4120	71.9500
 1.4160	72.0200
 1.4200	72.1100
 1.4240	72.2600
 1.4280	72.3000
 1.4320	72.2900
 1.4360	72.2500
 1.4400	72.1100
 1.4440	71.9800
 1.4480	71.7100
 1.4520	71.2300
 1.4560	70.7200
 1.4600	70.2800
 1.4640	69.6700
 1.4680	69.1600
 1.4720	68.8700
 1.4760	68.7400
 1.4800	68.9300
 1.4840	69.3600
 1.4880	69.9500
 1.4920	70.5300
 1.4960	70.9900
 1.5000	71.2000
 1.5040	71.4400
 1.5080	71.5600
 1.5120	71.5800
 1.5160	71.6500
 1.5200	71.5900
 1.5240	71.6800
 1.5280	71.7200
 1.5320	71.8200
 1.5360	71.9700
 1.5400	72.0900
 1.5440	72.2000
 1.5480	72.2100
 1.5520	72.4100
 1.5560	72.5400
 1.5600	72.5400
 1.5640	72.6100
 1.5680	72.6600
 1.5720	72.7600
 1.5760	72.8000
 1.5800	72.8700
 1.5840	72.8600
 1.5880	72.8900
 1.5920	72.8500
 1.5960	72.9000
 1.6000	72.8100
 1.6040	72.8600
 1.6080	72.8000
 1.6120	72.6900
 1.6160	72.6400
 1.6200	72.6000
 1.6240	72.5400
 1.6280	72.4400
 1.6320	72.3600
 1.6360	72.2900
 1.6400	72.1800
 1.6440	72.1200
 1.6480	72.0800
 1.6520	71.9800
 1.6560	71.7300
 1.6600	71.7700
 1.6640	71.6700
 1.6680	71.6200
 1.6720	71.5000
 1.6760	71.4800
 1.6800	71.3600
 1.6840	71.3100
 1.6880	71.2100
 1.6920	71.1100
 1.6960	70.9700
 1.7000	70.8100
 1.7040	70.7500
 1.7080	70.5000
 1.7120	70.2400
 1.7160	70.0300
 1.7200	69.8800
 1.7240	69.6500
 1.7280	69.4000
 1.7320	69.2700
 1.7360	69.0000
 1.7400	68.7900
 1.7440	68.6000
 1.7480	68.3300
 1.7520	68.0800
 1.7560	67.7800
 1.7600	67.5100
 1.7640	67.3300
 1.7680	67.0600
 1.7720	66.8100
 1.7760	66.5400
 1.7800	66.2900
 1.7840	66.0900
 1.7880	65.8900
 1.7920	65.6900
 1.7960	65.4500
 1.8000	65.2100
 1.8040	65.0300
 1.8080	64.7900
 1.8120	64.5600
 1.8160	64.2000
 1.8200	63.8500
 1.8240	63.4900
 1.8280	62.9700
 1.8320	62.5800
 1.8360	62.0700
 1.8400	61.6600
 1.8440	61.1500
 1.8480	60.7800
 1.8520	60.4600
 1.8560	60.2400
 1.8600	60.1800
 1.8640	60.1700
 1.8680	60.3100
 1.8720	60.4800
 1.8760	60.6300
 1.8800	60.8500
 1.8840	61.0700
 1.8880	61.2000
 1.8920	61.2700
 1.8960	61.3000
 1.9000	61.2300
 1.9040	61.1400
 1.9080	61.0600
 1.9120	60.9500
 1.9160	60.8700
 1.9200	60.7500
 1.9240	60.6300
 1.9280	60.5100
 1.9320	60.5700
 1.9360	60.5600
 1.9400	60.5300
 1.9440	60.5000
 1.9480	60.5000
 1.9520	60.5500
 1.9560	60.5800
 1.9600	60.6500
 1.9640	60.7100
 1.9680	60.7500
 1.9720	60.8600
 1.9760	60.9600
 1.9800	60.9700
 1.9840	61.0700
 1.9880	61.1700
 1.9920	61.1700
 1.9960	61.1700
 2.0000	61.1800
 2.0040	61.2000
 2.0080	61.2500
 2.0120	61.2300
 2.0160	61.2500
 2.0200	61.2900
 2.0240	61.2600
 2.0280	61.2500
 2.0320	61.2100
 2.0360	61.2600
 2.0400	61.1200
 2.0440	61.0500
 2.0480	60.9600
 2.0520	60.9300
 2.0560	60.8700
 2.0600	60.8300
 2.0640	60.8300
 2.0680	60.7200
 2.0720	60.6000
 2.0760	60.5500
 2.0800	60.5300
 2.0840	60.3800
 2.0880	60.2000
 2.0920	60.1200
 2.0960	60.0500
 2.1000	59.9100
 2.1040	59.8400
 2.1080	59.7500
 2.1120	59.6800
 2.1160	59.6200
 2.1200	59.4300
 2.1240	59.3300
 2.1280	59.1500
 2.1320	59.0700
 2.1360	58.8400
 2.1400	58.6700
 2.1440	58.3700
 2.1480	58.2200
 2.1520	57.9500
 2.1560	57.7700
 2.1600	57.4800
 2.1640	57.2600
 2.1680	57.0200
 2.1720	56.8100
 2.1760	56.4500
 2.1800	56.0800
 2.1840	55.7600
 2.1880	55.3500
 2.1920	55.0400
 2.1960	54.7200
 2.2000	54.4900
 2.2040	54.1200
 2.2080	53.6800
 2.2120	53.3300
 2.2160	53.0400
 2.2200	52.7400
 2.2240	52.3300
 2.2280	51.9000
 2.2320	51.4300
 2.2360	50.9400
 2.2400	50.3700
 2.2440	49.9100
 2.2480	49.3500
 2.2520	48.7400
 2.2560	48.2200
 2.2600	47.7300
 2.2640	47.1900
 2.2680	46.7500
 2.2720	46.4000
 2.2760	46.2100
 2.2800	46.1100
 2.2840	46.1200
 2.2880	46.2400
 2.2920	46.4900
 2.2960	46.8000
 2.3000	47.1000
 2.3040	47.5400
 2.3080	48.0600
 2.3120	48.5400
 2.3160	49.0100
 2.3200	49.4200
 2.3240	49.8100
 2.3280	50.1000
 2.3320	50.3800
 2.3360	50.5400
 2.3400	50.6400
 2.3440	50.7000
 2.3480	50.6300
 2.3520	50.5900
 2.3560	50.3800
 2.3600	50.0900
 2.3640	49.9100
 2.3680	49.6300
 2.3720	49.2000
 2.3760	48.8600
 2.3800	48.5400
 2.3840	48.1600
 2.3880	47.8000
 2.3920	47.4000
 2.3960	47.1300
 2.4000	46.8800
 2.4040	46.5700
 2.4080	46.2600
 2.4120	46.0100
 2.4160	45.6700
 2.4200	45.4000
 2.4240	45.0800
 2.4280	44.8000
 2.4320	44.5800
 2.4360	44.3500
 2.4400	44.0800
 2.4440	43.7100
 2.4480	43.4900
 2.4520	43.3300
 2.4560	43.1100
 2.4600	42.9500
 2.4640	42.8700
 2.4680	42.6800
 2.4720	42.7000
 2.4760	42.5900
 2.4800	42.4800
 2.4840	42.4400
 2.4880	42.3700
 2.4920	42.2500
 2.4960	42.2200
 2.5000	42.1200
