Name: Beryl Be_3Al_2Si_6O_18
Type: Mineral
Class: Silicate
Subclass: Cyclosilicate
Particle Size: Coarse
Sample No.: CS-2A
Owner: JPL
Wavelength Range: VSWIR
Origin: Brazil, Minas Gerais
Collection Date: N/A
Description: Particle size was 125-500um.Collected by Ward's Original ASTER Spectral Library name was jpl.beckman.mineral.silicate.cyclosilicate.coarse.cs02a.spectrum.txt
Measurement: Hemispherical reflectance
First Column: X
Second Column: Y
X Units: Wavelength (micrometers)
Y Units:Reflectance (percent)
First X Value:  0.4000
Last X Value:  2.5000
Number of X Values: 826
Additional Information: mineral.silicate.cyclosilicate.coarse.vswir.cs-2a.jpl.beckman.ancillary.txt

 0.4000	59.9300
 0.4010	59.7300
 0.4020	59.8800
 0.4030	60.0900
 0.4040	60.0800
 0.4050	60.1400
 0.4060	60.1400
 0.4070	60.2000
 0.4080	60.2400
 0.4090	60.2200
 0.4100	60.2000
 0.4110	60.3300
 0.4120	60.3100
 0.4130	60.2600
 0.4140	60.2800
 0.4150	60.3900
 0.4160	60.3100
 0.4170	60.1600
 0.4180	60.1800
 0.4190	60.1600
 0.4200	60.0200
 0.4210	59.7400
 0.4220	59.7300
 0.4230	59.6200
 0.4240	59.6200
 0.4250	59.5800
 0.4260	59.7200
 0.4270	60.0000
 0.4280	60.2200
 0.4290	60.3900
 0.4300	60.7000
 0.4310	60.9700
 0.4320	61.0900
 0.4330	61.1500
 0.4340	61.3900
 0.4350	61.5300
 0.4360	61.3800
 0.4370	61.5600
 0.4380	61.7300
 0.4390	61.8500
 0.4400	61.9300
 0.4410	61.8100
 0.4420	61.8700
 0.4430	61.9300
 0.4440	62.0300
 0.4450	61.9500
 0.4460	62.1100
 0.4470	62.1500
 0.4480	61.9900
 0.4490	62.0700
 0.4500	62.1900
 0.4510	62.2100
 0.4520	62.1500
 0.4530	62.3200
 0.4540	62.3200
 0.4550	62.2800
 0.4560	62.3400
 0.4570	62.2200
 0.4580	62.3400
 0.4590	62.3600
 0.4600	62.4400
 0.4610	62.3600
 0.4620	62.4600
 0.4630	62.5500
 0.4640	62.3100
 0.4650	62.3900
 0.4660	62.4700
 0.4670	62.6100
 0.4680	62.5700
 0.4690	62.4700
 0.4700	62.4700
 0.4710	62.5500
 0.4720	62.5700
 0.4730	62.5600
 0.4740	62.6600
 0.4750	62.7000
 0.4760	62.4800
 0.4770	62.4800
 0.4780	62.5300
 0.4790	62.6500
 0.4800	62.6700
 0.4810	62.4700
 0.4820	62.5100
 0.4830	62.5500
 0.4840	62.5900
 0.4850	62.4300
 0.4860	62.4900
 0.4870	62.5300
 0.4880	62.3800
 0.4890	62.3400
 0.4900	62.5000
 0.4910	62.4200
 0.4920	62.3800
 0.4930	62.4500
 0.4940	62.4300
 0.4950	62.4500
 0.4960	62.3600
 0.4970	62.2600
 0.4980	62.3800
 0.4990	62.3600
 0.5000	62.2600
 0.5010	62.3000
 0.5020	62.4000
 0.5030	62.4300
 0.5040	62.2600
 0.5050	62.3400
 0.5060	62.3400
 0.5070	62.1800
 0.5080	62.0900
 0.5090	62.1400
 0.5100	62.1800
 0.5110	62.1300
 0.5120	61.9800
 0.5130	62.0900
 0.5140	62.2000
 0.5150	62.2000
 0.5160	62.0400
 0.5170	62.0700
 0.5180	62.1100
 0.5190	62.0200
 0.5200	61.9400
 0.5210	61.8800
 0.5220	61.9600
 0.5230	61.9400
 0.5240	61.8000
 0.5250	61.8000
 0.5260	61.8800
 0.5270	61.8400
 0.5280	61.6300
 0.5290	61.7500
 0.5300	61.6500
 0.5310	61.6700
 0.5320	61.6100
 0.5330	61.5500
 0.5340	61.5800
 0.5350	61.5500
 0.5360	61.3300
 0.5370	61.3700
 0.5380	61.4700
 0.5390	61.5500
 0.5400	61.4700
 0.5410	61.3300
 0.5420	61.3100
 0.5430	61.3100
 0.5440	61.2700
 0.5450	61.2200
 0.5460	61.2600
 0.5470	61.2800
 0.5480	61.1500
 0.5490	61.0300
 0.5500	61.0600
 0.5510	61.1800
 0.5520	61.2100
 0.5530	60.9300
 0.5540	61.1100
 0.5550	61.0100
 0.5560	60.8500
 0.5570	60.9200
 0.5580	60.7600
 0.5590	60.8500
 0.5600	61.1000
 0.5610	61.1800
 0.5620	61.0100
 0.5630	60.9500
 0.5640	60.8000
 0.5650	60.7800
 0.5660	60.7100
 0.5670	60.7200
 0.5680	60.4900
 0.5690	60.4600
 0.5700	60.6000
 0.5710	60.3900
 0.5720	60.3000
 0.5730	60.3200
 0.5740	60.2100
 0.5750	60.0800
 0.5760	59.9700
 0.5770	59.9500
 0.5780	59.9300
 0.5790	60.0900
 0.5800	59.8300
 0.5810	59.8500
 0.5820	59.8400
 0.5830	59.8000
 0.5840	59.7600
 0.5850	59.7600
 0.5860	59.8200
 0.5870	59.8300
 0.5880	59.6500
 0.5890	59.6000
 0.5900	59.6400
 0.5910	59.6900
 0.5920	59.5800
 0.5930	59.5300
 0.5940	59.4800
 0.5950	59.4800
 0.5960	59.4000
 0.5970	59.3000
 0.5980	59.3200
 0.5990	59.3600
 0.6000	59.2600
 0.6010	59.2600
 0.6020	59.3500
 0.6030	59.3800
 0.6040	59.2500
 0.6050	59.1300
 0.6060	58.9800
 0.6070	59.1300
 0.6080	59.0600
 0.6090	58.8900
 0.6100	58.9500
 0.6110	58.9900
 0.6120	58.8000
 0.6130	58.8300
 0.6140	58.6800
 0.6150	58.6700
 0.6160	58.6800
 0.6170	58.4100
 0.6180	58.4100
 0.6190	58.4500
 0.6200	58.3000
 0.6210	58.2000
 0.6220	58.3300
 0.6230	58.2800
 0.6240	58.1200
 0.6250	58.1100
 0.6260	58.1500
 0.6270	58.1500
 0.6280	58.0700
 0.6290	57.8600
 0.6300	57.8000
 0.6310	57.8800
 0.6320	57.8200
 0.6330	57.7800
 0.6340	57.7100
 0.6350	57.7800
 0.6360	57.7200
 0.6370	57.5200
 0.6380	57.4800
 0.6390	57.3500
 0.6400	57.4600
 0.6410	57.2800
 0.6420	57.2800
 0.6430	57.2000
 0.6440	57.1600
 0.6450	57.1200
 0.6460	57.0500
 0.6470	57.0100
 0.6480	56.9300
 0.6490	56.7400
 0.6500	56.7100
 0.6510	56.7000
 0.6520	56.7400
 0.6530	56.5400
 0.6540	56.4700
 0.6550	56.5600
 0.6560	56.4100
 0.6570	56.3400
 0.6580	56.2600
 0.6590	56.1900
 0.6600	56.1400
 0.6610	55.9000
 0.6620	55.8900
 0.6630	55.9100
 0.6640	55.8400
 0.6650	55.8100
 0.6660	55.5700
 0.6670	55.4900
 0.6680	55.4900
 0.6690	55.3800
 0.6700	55.2100
 0.6710	55.1400
 0.6720	55.1400
 0.6730	55.0300
 0.6740	54.8200
 0.6750	54.7400
 0.6760	54.7200
 0.6770	54.6800
 0.6780	54.4000
 0.6790	54.3600
 0.6800	54.2900
 0.6810	54.1200
 0.6820	54.0400
 0.6830	53.9300
 0.6840	53.9400
 0.6850	53.7900
 0.6860	53.5100
 0.6870	53.4500
 0.6880	53.4600
 0.6890	53.3200
 0.6900	53.1900
 0.6910	52.9000
 0.6920	52.8500
 0.6930	52.7900
 0.6940	52.6100
 0.6950	52.3500
 0.6960	52.4000
 0.6970	52.2400
 0.6980	51.9700
 0.6990	51.9600
 0.7000	51.8700
 0.7010	51.4700
 0.7020	51.1900
 0.7030	50.9300
 0.7040	50.9600
 0.7050	50.6600
 0.7060	50.5300
 0.7070	50.4100
 0.7080	50.2400
 0.7090	50.0600
 0.7100	49.8300
 0.7110	49.6900
 0.7120	49.6300
 0.7130	49.4100
 0.7140	49.2000
 0.7150	49.0000
 0.7160	48.8600
 0.7170	48.6800
 0.7180	48.5100
 0.7190	48.3400
 0.7200	48.2200
 0.7210	48.0500
 0.7220	47.7600
 0.7230	47.5900
 0.7240	47.3600
 0.7250	47.3600
 0.7260	47.1300
 0.7270	46.8700
 0.7280	46.6400
 0.7290	46.4700
 0.7300	46.3000
 0.7310	46.0700
 0.7320	45.8100
 0.7330	45.8000
 0.7340	45.7700
 0.7350	45.4700
 0.7360	45.2900
 0.7370	45.1000
 0.7380	44.9800
 0.7390	44.7200
 0.7400	44.4000
 0.7410	44.3500
 0.7420	44.1100
 0.7430	44.0800
 0.7440	43.8000
 0.7450	43.6000
 0.7460	43.4900
 0.7470	43.4100
 0.7480	43.1700
 0.7490	42.9200
 0.7500	42.8600
 0.7510	42.7700
 0.7520	42.5000
 0.7530	42.1900
 0.7540	42.0000
 0.7550	42.0400
 0.7560	41.6800
 0.7570	41.5700
 0.7580	41.4500
 0.7590	41.2800
 0.7600	41.2300
 0.7610	40.9900
 0.7620	40.8200
 0.7630	40.8300
 0.7640	40.6000
 0.7650	40.3000
 0.7660	40.2200
 0.7670	40.0100
 0.7680	39.9300
 0.7690	39.7700
 0.7700	39.6000
 0.7710	39.4500
 0.7720	39.5200
 0.7730	39.3200
 0.7740	39.1300
 0.7750	39.2200
 0.7760	39.0100
 0.7770	38.7900
 0.7780	38.7300
 0.7790	38.6300
 0.7800	38.4500
 0.7810	38.4100
 0.7820	38.3400
 0.7830	38.2600
 0.7840	38.1100
 0.7850	37.9400
 0.7860	37.8800
 0.7870	37.9200
 0.7880	37.8200
 0.7890	37.5900
 0.7900	37.4900
 0.7910	37.4900
 0.7920	37.4000
 0.7930	37.3300
 0.7940	37.2500
 0.7950	37.2300
 0.7960	37.2700
 0.7970	37.2000
 0.7980	37.1300
 0.7990	37.2800
 0.8000	37.4000
 0.8040	37.2800
 0.8080	37.1000
 0.8120	36.9500
 0.8160	36.9500
 0.8200	36.9200
 0.8240	37.0400
 0.8280	37.1700
 0.8320	37.3600
 0.8360	37.5400
 0.8400	37.8500
 0.8440	38.1900
 0.8480	38.5500
 0.8520	39.0200
 0.8560	39.4500
 0.8600	39.9800
 0.8640	40.5100
 0.8680	40.9800
 0.8720	41.5800
 0.8760	42.1000
 0.8800	42.6700
 0.8840	43.2100
 0.8880	43.9000
 0.8920	44.5200
 0.8960	45.1500
 0.9000	45.7300
 0.9040	46.2400
 0.9080	46.7500
 0.9120	47.4000
 0.9160	47.8500
 0.9200	48.3300
 0.9240	48.8700
 0.9280	49.2100
 0.9320	49.6900
 0.9360	50.0200
 0.9400	50.3600
 0.9440	50.3900
 0.9480	50.2600
 0.9520	50.4800
 0.9560	51.1200
 0.9600	51.8900
 0.9640	52.3400
 0.9680	52.5700
 0.9720	52.8300
 0.9760	53.2100
 0.9800	53.5200
 0.9840	53.8400
 0.9880	54.0300
 0.9920	54.2900
 0.9960	54.4200
 1.0000	54.7500
 1.0040	54.9100
 1.0080	55.1500
 1.0120	55.4000
 1.0160	55.5700
 1.0200	55.7600
 1.0240	55.9800
 1.0280	56.2500
 1.0320	56.3900
 1.0360	56.6500
 1.0400	56.9000
 1.0440	57.1400
 1.0480	57.1800
 1.0520	57.4500
 1.0560	57.6300
 1.0600	57.9400
 1.0640	58.1800
 1.0680	58.4200
 1.0720	58.6200
 1.0760	58.7800
 1.0800	59.0600
 1.0840	59.2100
 1.0880	59.4400
 1.0920	59.5400
 1.0960	59.6600
 1.1000	59.8300
 1.1040	59.9200
 1.1080	60.0500
 1.1120	59.9000
 1.1160	59.5500
 1.1200	59.2800
 1.1240	59.3200
 1.1280	59.8100
 1.1320	60.0900
 1.1360	59.5200
 1.1400	56.7500
 1.1440	54.9600
 1.1480	57.7000
 1.1520	60.3700
 1.1560	61.0100
 1.1600	61.2000
 1.1640	61.3300
 1.1680	61.3800
 1.1720	61.7000
 1.1760	61.9400
 1.1800	62.1600
 1.1840	62.2700
 1.1880	62.2400
 1.1920	62.3200
 1.1960	62.3800
 1.2000	62.5100
 1.2040	62.7300
 1.2080	62.7500
 1.2120	62.8100
 1.2160	62.8100
 1.2200	62.9100
 1.2240	62.9000
 1.2280	62.9400
 1.2320	63.0600
 1.2360	63.1000
 1.2400	63.1200
 1.2440	63.0900
 1.2480	63.1800
 1.2520	63.2000
 1.2560	63.2600
 1.2600	63.2300
 1.2640	63.3400
 1.2680	63.3600
 1.2720	63.3500
 1.2760	63.3300
 1.2800	63.3700
 1.2840	63.3900
 1.2880	63.3800
 1.2920	63.3200
 1.2960	63.3000
 1.3000	63.2500
 1.3040	63.2000
 1.3080	63.0900
 1.3120	63.0100
 1.3160	62.7900
 1.3200	62.5600
 1.3240	62.2500
 1.3280	61.8900
 1.3320	61.5100
 1.3360	61.1100
 1.3400	60.6100
 1.3440	59.4600
 1.3480	57.3300
 1.3520	54.3800
 1.3560	51.6200
 1.3600	49.9200
 1.3640	49.5500
 1.3680	50.3300
 1.3720	51.7500
 1.3760	52.9300
 1.3800	52.8600
 1.3840	50.2400
 1.3880	42.7000
 1.3920	33.4500
 1.3960	31.2300
 1.4000	37.3700
 1.4040	44.0000
 1.4080	47.0500
 1.4120	48.9000
 1.4160	50.8400
 1.4200	52.2900
 1.4240	53.1200
 1.4280	53.7900
 1.4320	54.8300
 1.4360	56.2900
 1.4400	57.8600
 1.4440	59.1400
 1.4480	59.5500
 1.4520	58.5700
 1.4560	56.0700
 1.4600	54.1600
 1.4640	55.5300
 1.4680	58.9500
 1.4720	61.4400
 1.4760	62.4700
 1.4800	62.8100
 1.4840	62.9600
 1.4880	63.0000
 1.4920	63.0400
 1.4960	63.0800
 1.5000	63.2200
 1.5040	63.3900
 1.5080	63.6200
 1.5120	63.8600
 1.5160	64.0200
 1.5200	64.2000
 1.5240	64.2000
 1.5280	64.3100
 1.5320	64.3600
 1.5360	64.4800
 1.5400	64.5000
 1.5440	64.4800
 1.5480	64.5200
 1.5520	64.5300
 1.5560	64.6100
 1.5600	64.5200
 1.5640	64.5800
 1.5680	64.5900
 1.5720	64.6500
 1.5760	64.6900
 1.5800	64.5800
 1.5840	64.6100
 1.5880	64.6300
 1.5920	64.6400
 1.5960	64.6000
 1.6000	64.6400
 1.6040	64.6000
 1.6080	64.5700
 1.6120	64.7400
 1.6160	64.6800
 1.6200	64.5700
 1.6240	64.6700
 1.6280	64.6300
 1.6320	64.6800
 1.6360	64.6900
 1.6400	64.6400
 1.6440	64.5900
 1.6480	64.6000
 1.6520	64.5600
 1.6560	64.6600
 1.6600	64.6100
 1.6640	64.5600
 1.6680	64.6000
 1.6720	64.5800
 1.6760	64.4800
 1.6800	64.5300
 1.6840	64.4000
 1.6880	64.4100
 1.6920	64.4100
 1.6960	64.3600
 1.7000	64.2300
 1.7040	64.2100
 1.7080	64.2100
 1.7120	64.0800
 1.7160	64.0400
 1.7200	63.9500
 1.7240	63.8400
 1.7280	63.7400
 1.7320	63.6400
 1.7360	63.3900
 1.7400	63.2500
 1.7440	63.0600
 1.7480	62.8700
 1.7520	62.6300
 1.7560	62.3200
 1.7600	61.8800
 1.7640	61.4800
 1.7680	60.9300
 1.7720	60.3000
 1.7760	59.7700
 1.7800	59.0300
 1.7840	58.3000
 1.7880	57.5900
 1.7920	56.5700
 1.7960	55.3000
 1.8000	53.5000
 1.8040	51.1200
 1.8080	48.1900
 1.8120	44.9800
 1.8160	41.8600
 1.8200	39.2700
 1.8240	37.3400
 1.8280	36.4300
 1.8320	36.2500
 1.8360	36.8000
 1.8400	37.8300
 1.8440	39.0900
 1.8480	40.5100
 1.8520	41.6100
 1.8560	42.3400
 1.8600	42.5100
 1.8640	41.8700
 1.8680	40.2500
 1.8720	37.4300
 1.8760	33.5100
 1.8800	29.2000
 1.8840	25.2300
 1.8880	22.8200
 1.8920	22.8300
 1.8960	25.1800
 1.9000	28.9600
 1.9040	33.2700
 1.9080	37.4800
 1.9120	40.9800
 1.9160	43.2400
 1.9200	44.5000
 1.9240	45.1400
 1.9280	45.3100
 1.9320	45.2500
 1.9360	44.9000
 1.9400	44.4500
 1.9440	44.2500
 1.9480	44.0700
 1.9520	44.2200
 1.9560	44.7000
 1.9600	45.5600
 1.9640	46.7300
 1.9680	48.3500
 1.9720	50.0700
 1.9760	51.8600
 1.9800	53.5700
 1.9840	55.1600
 1.9880	56.3500
 1.9920	57.3200
 1.9960	57.9400
 2.0000	58.5200
 2.0040	58.8000
 2.0080	59.0800
 2.0120	59.2300
 2.0160	59.3000
 2.0200	59.3500
 2.0240	59.3100
 2.0280	59.1700
 2.0320	58.8800
 2.0360	58.5100
 2.0400	58.1700
 2.0440	57.9200
 2.0480	57.7100
 2.0520	57.6700
 2.0560	57.7400
 2.0600	57.8100
 2.0640	58.0100
 2.0680	58.1000
 2.0720	58.2000
 2.0760	58.4300
 2.0800	58.7300
 2.0840	58.9100
 2.0880	59.3200
 2.0920	59.5400
 2.0960	59.8100
 2.1000	59.9900
 2.1040	60.1800
 2.1080	60.1400
 2.1120	60.2000
 2.1160	60.1000
 2.1200	59.9400
 2.1240	59.5800
 2.1280	59.1700
 2.1320	58.6300
 2.1360	58.1500
 2.1400	57.7500
 2.1440	57.4200
 2.1480	57.3300
 2.1520	57.5500
 2.1560	57.7800
 2.1600	58.0800
 2.1640	58.3400
 2.1680	58.4600
 2.1720	58.5100
 2.1760	58.4500
 2.1800	58.3500
 2.1840	58.3000
 2.1880	58.1400
 2.1920	58.2100
 2.1960	58.3300
 2.2000	58.4900
 2.2040	58.7600
 2.2080	58.9700
 2.2120	59.2100
 2.2160	59.4300
 2.2200	59.5900
 2.2240	59.6400
 2.2280	59.7000
 2.2320	59.7400
 2.2360	59.5800
 2.2400	59.5200
 2.2440	59.4600
 2.2480	59.3500
 2.2520	59.2700
 2.2560	59.1100
 2.2600	58.9300
 2.2640	58.8300
 2.2680	58.6800
 2.2720	58.4200
 2.2760	58.3100
 2.2800	58.0400
 2.2840	57.8100
 2.2880	57.5800
 2.2920	57.3100
 2.2960	56.9900
 2.3000	56.6100
 2.3040	56.1300
 2.3080	55.7100
 2.3120	55.2900
 2.3160	54.8200
 2.3200	54.4700
 2.3240	53.9700
 2.3280	53.4800
 2.3320	53.1700
 2.3360	52.7800
 2.3400	52.3900
 2.3440	52.0500
 2.3480	51.7700
 2.3520	51.4000
 2.3560	51.1100
 2.3600	50.7700
 2.3640	50.4700
 2.3680	50.2100
 2.3720	49.9000
 2.3760	49.7600
 2.3800	49.5600
 2.3840	49.3500
 2.3880	49.0800
 2.3920	48.7300
 2.3960	48.4300
 2.4000	48.0500
 2.4040	47.6800
 2.4080	47.1800
 2.4120	46.6000
 2.4160	46.0100
 2.4200	45.3700
 2.4240	44.7000
 2.4280	43.8800
 2.4320	43.1700
 2.4360	42.3100
 2.4400	41.5300
 2.4440	40.5400
 2.4480	39.6000
 2.4520	38.6200
 2.4560	37.6800
 2.4600	36.6200
 2.4640	35.5500
 2.4680	34.3800
 2.4720	33.3700
 2.4760	32.2900
 2.4800	31.1500
 2.4840	30.0400
 2.4880	28.9200
 2.4920	27.7500
 2.4960	26.5300
 2.5000	25.4600
