Name: Arsenopyrite FeAsS
Type: Mineral
Class: Sulfide
Subclass: None
Particle Size: Medium
Sample No.: S-5A
Owner: JPL
Wavelength Range: VSWIR
Origin: USA, Nevada, Lander County, Austin
Collection Date: N/A
Description: Particle size was 45-125um.Collected by Burminco Original ASTER Spectral Library name was jpl.beckman.mineral.sulfide.none.medium.s05a.spectrum.txt
Measurement: Hemispherical reflectance
First Column: X
Second Column: Y
X Units: Wavelength (micrometers)
Y Units:Reflectance (percent)
First X Value:  0.4000
Last X Value:  2.5000
Number of X Values: 826
Additional Information: mineral.sulfide.none.medium.vswir.s-5a.jpl.beckman.ancillary.txt

 0.4000	12.2900
 0.4010	12.2700
 0.4020	12.3300
 0.4030	12.2500
 0.4040	12.3100
 0.4050	12.3700
 0.4060	12.3500
 0.4070	12.4100
 0.4080	12.3000
 0.4090	12.3600
 0.4100	12.4000
 0.4110	12.4100
 0.4120	12.4300
 0.4130	12.3600
 0.4140	12.4600
 0.4150	12.4000
 0.4160	12.4200
 0.4170	12.4400
 0.4180	12.4300
 0.4190	12.5300
 0.4200	12.5800
 0.4210	12.4700
 0.4220	12.4600
 0.4230	12.4600
 0.4240	12.5500
 0.4250	12.6000
 0.4260	12.5900
 0.4270	12.5500
 0.4280	12.5100
 0.4290	12.5700
 0.4300	12.6000
 0.4310	12.6400
 0.4320	12.6400
 0.4330	12.6100
 0.4340	12.6200
 0.4350	12.6600
 0.4360	12.6700
 0.4370	12.5700
 0.4380	12.6200
 0.4390	12.7500
 0.4400	12.7000
 0.4410	12.7500
 0.4420	12.7900
 0.4430	12.7800
 0.4440	12.6900
 0.4450	12.6300
 0.4460	12.7500
 0.4470	12.7600
 0.4480	12.8200
 0.4490	12.7700
 0.4500	12.6600
 0.4510	12.7300
 0.4520	12.7900
 0.4530	12.8400
 0.4540	12.8400
 0.4550	12.7300
 0.4560	12.8100
 0.4570	12.8200
 0.4580	12.9100
 0.4590	12.8400
 0.4600	12.7700
 0.4610	12.8000
 0.4620	12.8900
 0.4630	12.8200
 0.4640	12.7900
 0.4650	12.9100
 0.4660	12.9200
 0.4670	12.9900
 0.4680	12.8800
 0.4690	12.8200
 0.4700	12.9600
 0.4710	13.0200
 0.4720	13.0800
 0.4730	13.0100
 0.4740	12.9900
 0.4750	13.0400
 0.4760	12.9300
 0.4770	13.0100
 0.4780	12.9300
 0.4790	13.0000
 0.4800	13.0900
 0.4810	13.0100
 0.4820	13.1000
 0.4830	13.0000
 0.4840	13.1300
 0.4850	13.1600
 0.4860	13.0800
 0.4870	13.1400
 0.4880	13.0600
 0.4890	13.1600
 0.4900	13.1600
 0.4910	13.1000
 0.4920	13.1300
 0.4930	13.1100
 0.4940	13.1400
 0.4950	13.1200
 0.4960	13.1000
 0.4970	13.2200
 0.4980	13.1400
 0.4990	13.2400
 0.5000	13.1700
 0.5010	13.2200
 0.5020	13.3300
 0.5030	13.2000
 0.5040	13.3000
 0.5050	13.2100
 0.5060	13.3000
 0.5070	13.4200
 0.5080	13.3000
 0.5090	13.3000
 0.5100	13.2500
 0.5110	13.3100
 0.5120	13.3200
 0.5130	13.3100
 0.5140	13.4000
 0.5150	13.3000
 0.5160	13.3800
 0.5170	13.4000
 0.5180	13.3500
 0.5190	13.4500
 0.5200	13.3500
 0.5210	13.4200
 0.5220	13.3800
 0.5230	13.3500
 0.5240	13.3500
 0.5250	13.3100
 0.5260	13.4900
 0.5270	13.4200
 0.5280	13.4000
 0.5290	13.4300
 0.5300	13.4100
 0.5310	13.5100
 0.5320	13.4200
 0.5330	13.3800
 0.5340	13.4500
 0.5350	13.3700
 0.5360	13.5000
 0.5370	13.5100
 0.5380	13.5100
 0.5390	13.5900
 0.5400	13.4800
 0.5410	13.5400
 0.5420	13.3900
 0.5430	13.5000
 0.5440	13.5600
 0.5450	13.4400
 0.5460	13.4800
 0.5470	13.4500
 0.5480	13.5400
 0.5490	13.5700
 0.5500	13.5500
 0.5510	13.5800
 0.5520	13.4500
 0.5530	13.6100
 0.5540	13.6000
 0.5550	13.5600
 0.5560	13.6100
 0.5570	13.5700
 0.5580	13.6000
 0.5590	13.5700
 0.5600	13.6100
 0.5610	13.6900
 0.5620	13.7000
 0.5630	13.7800
 0.5640	13.6700
 0.5650	13.6800
 0.5660	13.7600
 0.5670	13.6400
 0.5680	13.6900
 0.5690	13.6700
 0.5700	13.6400
 0.5710	13.7100
 0.5720	13.6700
 0.5730	13.7000
 0.5740	13.6200
 0.5750	13.6500
 0.5760	13.7200
 0.5770	13.6400
 0.5780	13.7300
 0.5790	13.6700
 0.5800	13.7200
 0.5810	13.7000
 0.5820	13.6400
 0.5830	13.6700
 0.5840	13.5900
 0.5850	13.7300
 0.5860	13.6900
 0.5870	13.5700
 0.5880	13.7200
 0.5890	13.6800
 0.5900	13.7200
 0.5910	13.7000
 0.5920	13.6900
 0.5930	13.7800
 0.5940	13.7300
 0.5950	13.7700
 0.5960	13.7600
 0.5970	13.6900
 0.5980	13.7100
 0.5990	13.7500
 0.6000	13.7500
 0.6010	13.8300
 0.6020	13.7500
 0.6030	13.8400
 0.6040	13.7600
 0.6050	13.8700
 0.6060	13.9300
 0.6070	13.7900
 0.6080	13.8200
 0.6090	13.7900
 0.6100	13.7800
 0.6110	13.8700
 0.6120	13.7800
 0.6130	13.8500
 0.6140	13.8000
 0.6150	13.8400
 0.6160	13.8500
 0.6170	13.6900
 0.6180	13.8300
 0.6190	13.7900
 0.6200	13.8800
 0.6210	13.8400
 0.6220	13.7600
 0.6230	13.8200
 0.6240	13.7300
 0.6250	13.8400
 0.6260	13.8900
 0.6270	13.8300
 0.6280	13.8300
 0.6290	13.7400
 0.6300	13.8300
 0.6310	13.8200
 0.6320	13.8600
 0.6330	13.8900
 0.6340	13.8700
 0.6350	13.8600
 0.6360	13.8800
 0.6370	13.8100
 0.6380	13.9300
 0.6390	13.8400
 0.6400	13.8300
 0.6410	13.8200
 0.6420	13.7700
 0.6430	13.9300
 0.6440	13.8600
 0.6450	13.9400
 0.6460	13.8200
 0.6470	13.7800
 0.6480	13.9100
 0.6490	13.8900
 0.6500	13.8800
 0.6510	13.8900
 0.6520	13.7800
 0.6530	13.9200
 0.6540	13.9000
 0.6550	13.9000
 0.6560	13.8900
 0.6570	13.8000
 0.6580	13.8300
 0.6590	13.8500
 0.6600	13.8900
 0.6610	13.8500
 0.6620	13.8200
 0.6630	13.9400
 0.6640	13.8300
 0.6650	13.8800
 0.6660	13.8700
 0.6670	13.8100
 0.6680	13.9300
 0.6690	13.9000
 0.6700	14.0500
 0.6710	13.8600
 0.6720	13.8200
 0.6730	13.9600
 0.6740	13.9100
 0.6750	14.0200
 0.6760	13.9400
 0.6770	13.7800
 0.6780	13.9100
 0.6790	13.9300
 0.6800	14.0400
 0.6810	13.9100
 0.6820	13.8900
 0.6830	13.9900
 0.6840	13.8200
 0.6850	13.9900
 0.6860	13.8900
 0.6870	13.9300
 0.6880	13.9900
 0.6890	13.8000
 0.6900	13.9800
 0.6910	13.9500
 0.6920	13.9200
 0.6930	13.9100
 0.6940	13.8900
 0.6950	13.9800
 0.6960	13.8900
 0.6970	13.9600
 0.6980	14.0500
 0.6990	13.9100
 0.7000	13.9600
 0.7010	13.9300
 0.7020	13.9300
 0.7030	13.9100
 0.7040	13.9100
 0.7050	14.0000
 0.7060	13.9300
 0.7070	14.0200
 0.7080	13.9100
 0.7090	13.9100
 0.7100	13.9500
 0.7110	13.9000
 0.7120	14.0000
 0.7130	14.0000
 0.7140	13.9100
 0.7150	14.0500
 0.7160	13.8800
 0.7170	13.9400
 0.7180	13.8800
 0.7190	13.9200
 0.7200	13.9900
 0.7210	13.9000
 0.7220	13.9700
 0.7230	13.9600
 0.7240	13.9300
 0.7250	14.0300
 0.7260	13.9300
 0.7270	14.0100
 0.7280	13.9300
 0.7290	13.9800
 0.7300	14.0400
 0.7310	13.9500
 0.7320	13.9700
 0.7330	13.9300
 0.7340	13.9000
 0.7350	14.0000
 0.7360	13.9300
 0.7370	14.0100
 0.7380	14.0500
 0.7390	13.9700
 0.7400	13.9900
 0.7410	13.9000
 0.7420	13.9700
 0.7430	14.0100
 0.7440	13.9600
 0.7450	14.0300
 0.7460	13.8700
 0.7470	14.0400
 0.7480	13.9200
 0.7490	13.9600
 0.7500	13.9900
 0.7510	13.8800
 0.7520	14.0000
 0.7530	13.9200
 0.7540	13.9200
 0.7550	14.0400
 0.7560	13.9400
 0.7570	13.9700
 0.7580	13.9000
 0.7590	13.8700
 0.7600	14.0200
 0.7610	13.8800
 0.7620	13.9600
 0.7630	13.8800
 0.7640	13.9100
 0.7650	14.0200
 0.7660	13.9400
 0.7670	13.9900
 0.7680	13.9600
 0.7690	13.9300
 0.7700	14.0000
 0.7710	13.9100
 0.7720	14.0000
 0.7730	13.8900
 0.7740	13.9700
 0.7750	14.0800
 0.7760	13.9600
 0.7770	13.9700
 0.7780	13.9900
 0.7790	13.9800
 0.7800	14.1200
 0.7810	14.1100
 0.7820	14.2800
 0.7830	14.2900
 0.7840	14.2700
 0.7850	14.3300
 0.7860	14.2100
 0.7870	14.1800
 0.7880	14.2200
 0.7890	14.2100
 0.7900	14.3200
 0.7910	14.2000
 0.7920	14.1800
 0.7930	14.2200
 0.7940	14.1400
 0.7950	14.2800
 0.7960	14.2000
 0.7970	14.1500
 0.7980	14.1600
 0.7990	14.2000
 0.8000	14.1800
 0.8040	14.2000
 0.8080	14.1900
 0.8120	14.2100
 0.8160	14.2000
 0.8200	14.1700
 0.8240	14.1500
 0.8280	14.1700
 0.8320	14.1900
 0.8360	14.1800
 0.8400	14.2100
 0.8440	14.1900
 0.8480	14.1900
 0.8520	14.2400
 0.8560	14.1400
 0.8600	14.2300
 0.8640	14.2200
 0.8680	14.1700
 0.8720	14.1900
 0.8760	14.1700
 0.8800	14.1600
 0.8840	14.1400
 0.8880	14.1200
 0.8920	14.1600
 0.8960	14.1600
 0.9000	14.2300
 0.9040	14.2200
 0.9080	14.1800
 0.9120	14.2200
 0.9160	14.2000
 0.9200	14.1700
 0.9240	14.1200
 0.9280	14.1500
 0.9320	14.1600
 0.9360	14.1500
 0.9400	14.1700
 0.9440	14.1300
 0.9480	14.1600
 0.9520	14.1600
 0.9560	14.1500
 0.9600	14.1600
 0.9640	14.1700
 0.9680	14.1300
 0.9720	14.1400
 0.9760	14.0900
 0.9800	14.0800
 0.9840	14.0800
 0.9880	14.1300
 0.9920	14.1200
 0.9960	14.0800
 1.0000	14.0700
 1.0040	14.0700
 1.0080	14.1100
 1.0120	14.0800
 1.0160	14.0800
 1.0200	14.0900
 1.0240	14.0500
 1.0280	14.0900
 1.0320	13.9800
 1.0360	14.0300
 1.0400	13.9400
 1.0440	13.9900
 1.0480	13.9800
 1.0520	13.9900
 1.0560	13.9300
 1.0600	13.9900
 1.0640	13.9400
 1.0680	13.9700
 1.0720	13.9300
 1.0760	13.9500
 1.0800	14.0100
 1.0840	14.0000
 1.0880	14.0100
 1.0920	14.0500
 1.0960	13.9900
 1.1000	14.0300
 1.1040	14.0100
 1.1080	13.9900
 1.1120	14.0800
 1.1160	14.0300
 1.1200	14.0500
 1.1240	14.0300
 1.1280	14.0400
 1.1320	14.0700
 1.1360	14.0800
 1.1400	14.0800
 1.1440	14.0000
 1.1480	14.0300
 1.1520	14.0600
 1.1560	14.0200
 1.1600	14.0600
 1.1640	14.0000
 1.1680	14.1100
 1.1720	14.0300
 1.1760	13.9800
 1.1800	14.0400
 1.1840	14.0300
 1.1880	14.0400
 1.1920	14.0800
 1.1960	14.1400
 1.2000	14.0400
 1.2040	14.0900
 1.2080	14.0400
 1.2120	14.0500
 1.2160	14.1200
 1.2200	14.1000
 1.2240	14.1100
 1.2280	14.1600
 1.2320	14.1000
 1.2360	14.1100
 1.2400	14.0600
 1.2440	14.0900
 1.2480	14.1200
 1.2520	14.1000
 1.2560	14.1500
 1.2600	14.1000
 1.2640	14.1100
 1.2680	14.1200
 1.2720	14.1800
 1.2760	14.1500
 1.2800	14.2000
 1.2840	14.2000
 1.2880	14.1400
 1.2920	14.2200
 1.2960	14.1600
 1.3000	14.1500
 1.3040	14.2100
 1.3080	14.2400
 1.3120	14.2000
 1.3160	14.1600
 1.3200	14.2000
 1.3240	14.1900
 1.3280	14.2700
 1.3320	14.1900
 1.3360	14.2400
 1.3400	14.2000
 1.3440	14.2200
 1.3480	14.2100
 1.3520	14.2100
 1.3560	14.2100
 1.3600	14.2200
 1.3640	14.2000
 1.3680	14.1800
 1.3720	14.2900
 1.3760	14.3000
 1.3800	14.2600
 1.3840	14.2000
 1.3880	14.1700
 1.3920	14.2300
 1.3960	14.2500
 1.4000	14.2500
 1.4040	14.3000
 1.4080	14.2400
 1.4120	14.2400
 1.4160	14.2900
 1.4200	14.2600
 1.4240	14.2900
 1.4280	14.3000
 1.4320	14.3300
 1.4360	14.3300
 1.4400	14.2800
 1.4440	14.3100
 1.4480	14.3200
 1.4520	14.3000
 1.4560	14.2800
 1.4600	14.3600
 1.4640	14.3000
 1.4680	14.3900
 1.4720	14.3300
 1.4760	14.4000
 1.4800	14.3500
 1.4840	14.3900
 1.4880	14.4300
 1.4920	14.4400
 1.4960	14.4400
 1.5000	14.4200
 1.5040	14.4000
 1.5080	14.4300
 1.5120	14.4400
 1.5160	14.4800
 1.5200	14.5200
 1.5240	14.4500
 1.5280	14.4300
 1.5320	14.4700
 1.5360	14.5400
 1.5400	14.4600
 1.5440	14.5400
 1.5480	14.5200
 1.5520	14.5000
 1.5560	14.4900
 1.5600	14.5500
 1.5640	14.5500
 1.5680	14.5500
 1.5720	14.5900
 1.5760	14.5500
 1.5800	14.5700
 1.5840	14.6300
 1.5880	14.6000
 1.5920	14.5700
 1.5960	14.5800
 1.6000	14.6000
 1.6040	14.5800
 1.6080	14.5600
 1.6120	14.4800
 1.6160	14.5400
 1.6200	14.5500
 1.6240	14.4900
 1.6280	14.5400
 1.6320	14.5400
 1.6360	14.5900
 1.6400	14.6000
 1.6440	14.5800
 1.6480	14.5600
 1.6520	14.5700
 1.6560	14.6000
 1.6600	14.6100
 1.6640	14.5500
 1.6680	14.6200
 1.6720	14.6100
 1.6760	14.6000
 1.6800	14.6400
 1.6840	14.6400
 1.6880	14.6300
 1.6920	14.6200
 1.6960	14.6000
 1.7000	14.5900
 1.7040	14.6200
 1.7080	14.6400
 1.7120	14.6300
 1.7160	14.6700
 1.7200	14.5900
 1.7240	14.6200
 1.7280	14.6200
 1.7320	14.6700
 1.7360	14.6500
 1.7400	14.6000
 1.7440	14.6400
 1.7480	14.6800
 1.7520	14.6400
 1.7560	14.6400
 1.7600	14.6200
 1.7640	14.7000
 1.7680	14.6000
 1.7720	14.6600
 1.7760	14.6800
 1.7800	14.7100
 1.7840	14.6500
 1.7880	14.6200
 1.7920	14.6900
 1.7960	14.6500
 1.8000	14.6400
 1.8040	14.6700
 1.8080	14.6200
 1.8120	14.6700
 1.8160	14.6700
 1.8200	14.6400
 1.8240	14.6000
 1.8280	14.5900
 1.8320	14.6000
 1.8360	14.6100
 1.8400	14.6300
 1.8440	14.5500
 1.8480	14.5700
 1.8520	14.6100
 1.8560	14.6300
 1.8600	14.6200
 1.8640	14.6300
 1.8680	14.6800
 1.8720	14.6600
 1.8760	14.6100
 1.8800	14.6800
 1.8840	14.6700
 1.8880	14.6100
 1.8920	14.6200
 1.8960	14.6200
 1.9000	14.6400
 1.9040	14.6500
 1.9080	14.6000
 1.9120	14.5800
 1.9160	14.5800
 1.9200	14.6500
 1.9240	14.5200
 1.9280	14.6200
 1.9320	14.6300
 1.9360	14.6000
 1.9400	14.6600
 1.9440	14.6600
 1.9480	14.6500
 1.9520	14.6600
 1.9560	14.6500
 1.9600	14.6100
 1.9640	14.6500
 1.9680	14.6500
 1.9720	14.5900
 1.9760	14.6700
 1.9800	14.7000
 1.9840	14.7300
 1.9880	14.7300
 1.9920	14.7200
 1.9960	14.6800
 2.0000	14.7500
 2.0040	14.7400
 2.0080	14.8100
 2.0120	14.7500
 2.0160	14.8200
 2.0200	14.7900
 2.0240	14.8200
 2.0280	14.7300
 2.0320	14.8000
 2.0360	14.8300
 2.0400	14.8700
 2.0440	14.8200
 2.0480	14.8200
 2.0520	14.7700
 2.0560	14.8100
 2.0600	14.8100
 2.0640	14.8700
 2.0680	14.8800
 2.0720	14.7900
 2.0760	14.9200
 2.0800	14.8500
 2.0840	14.8300
 2.0880	14.8700
 2.0920	14.8600
 2.0960	14.8600
 2.1000	14.9000
 2.1040	14.8200
 2.1080	14.8600
 2.1120	14.8600
 2.1160	14.8400
 2.1200	14.8900
 2.1240	14.8800
 2.1280	14.8600
 2.1320	14.8900
 2.1360	14.9000
 2.1400	14.8500
 2.1440	14.8800
 2.1480	14.8700
 2.1520	14.8000
 2.1560	14.8700
 2.1600	14.8000
 2.1640	14.7900
 2.1680	14.7500
 2.1720	14.7300
 2.1760	14.7700
 2.1800	14.8000
 2.1840	14.7700
 2.1880	14.7600
 2.1920	14.7200
 2.1960	14.7400
 2.2000	14.6800
 2.2040	14.7000
 2.2080	14.7200
 2.2120	14.6600
 2.2160	14.6700
 2.2200	14.7500
 2.2240	14.7300
 2.2280	14.7300
 2.2320	14.7400
 2.2360	14.8200
 2.2400	14.8200
 2.2440	14.8200
 2.2480	14.8300
 2.2520	14.8200
 2.2560	14.8200
 2.2600	14.8500
 2.2640	14.8100
 2.2680	14.7900
 2.2720	14.7200
 2.2760	14.7600
 2.2800	14.7100
 2.2840	14.7500
 2.2880	14.7000
 2.2920	14.7400
 2.2960	14.7800
 2.3000	14.7700
 2.3040	14.7900
 2.3080	14.7700
 2.3120	14.7900
 2.3160	14.8600
 2.3200	14.7800
 2.3240	14.8400
 2.3280	14.8400
 2.3320	14.9100
 2.3360	14.8900
 2.3400	14.9100
 2.3440	14.8800
 2.3480	14.9100
 2.3520	14.9000
 2.3560	14.8400
 2.3600	14.8700
 2.3640	14.8900
 2.3680	14.8800
 2.3720	14.8600
 2.3760	14.8500
 2.3800	14.8200
 2.3840	14.8200
 2.3880	14.7600
 2.3920	14.7700
 2.3960	14.8100
 2.4000	14.8100
 2.4040	14.8700
 2.4080	14.8200
 2.4120	14.8600
 2.4160	14.8300
 2.4200	14.8800
 2.4240	14.8900
 2.4280	14.8800
 2.4320	14.8600
 2.4360	14.8300
 2.4400	14.7700
 2.4440	14.8200
 2.4480	14.8500
 2.4520	14.8000
 2.4560	14.8000
 2.4600	14.7900
 2.4640	14.8200
 2.4680	14.7900
 2.4720	14.8400
 2.4760	14.8000
 2.4800	14.8200
 2.4840	14.8800
 2.4880	14.8400
 2.4920	14.8500
 2.4960	14.9400
 2.5000	15.0100
