Name: Hematite alpha Fe_2O_3
Type: Mineral
Class: Oxide
Subclass: None
Particle Size: Medium
Sample No.: O-1A
Owner: JPL
Wavelength Range: VSWIR
Origin: USA, Alabama, Birmingham
Collection Date: N/A
Description: Particle size was 45-125um.Collected by Burminco Original ASTER Spectral Library name was jpl.beckman.mineral.oxide.none.medium.o01a.spectrum.txt
Measurement: Hemispherical reflectance
First Column: X
Second Column: Y
X Units: Wavelength (micrometers)
Y Units:Reflectance (percent)
First X Value:  0.4000
Last X Value:  2.5000
Number of X Values: 826
Additional Information: mineral.oxide.none.medium.vswir.o-1a.jpl.beckman.ancillary.txt

 0.4000	 6.3800
 0.4010	 6.4100
 0.4020	 6.5300
 0.4030	 6.4100
 0.4040	 6.4600
 0.4050	 6.5100
 0.4060	 6.3500
 0.4070	 6.4600
 0.4080	 6.4500
 0.4090	 6.5600
 0.4100	 6.5100
 0.4110	 6.4500
 0.4120	 6.5500
 0.4130	 6.5600
 0.4140	 6.5700
 0.4150	 6.5200
 0.4160	 6.4500
 0.4170	 6.5600
 0.4180	 6.5700
 0.4190	 6.5100
 0.4200	 6.5700
 0.4210	 6.4400
 0.4220	 6.6100
 0.4230	 6.5500
 0.4240	 6.5500
 0.4250	 6.6200
 0.4260	 6.6300
 0.4270	 6.6200
 0.4280	 6.6100
 0.4290	 6.5500
 0.4300	 6.6100
 0.4310	 6.6100
 0.4320	 6.5000
 0.4330	 6.5600
 0.4340	 6.5100
 0.4350	 6.6800
 0.4360	 6.5600
 0.4370	 6.4900
 0.4380	 6.6100
 0.4390	 6.6000
 0.4400	 6.6000
 0.4410	 6.6600
 0.4420	 6.5500
 0.4430	 6.5500
 0.4440	 6.6000
 0.4450	 6.6200
 0.4460	 6.6100
 0.4470	 6.5500
 0.4480	 6.6100
 0.4490	 6.6100
 0.4500	 6.5600
 0.4510	 6.6100
 0.4520	 6.4800
 0.4530	 6.6000
 0.4540	 6.5300
 0.4550	 6.4600
 0.4560	 6.5000
 0.4570	 6.4900
 0.4580	 6.4800
 0.4590	 6.5800
 0.4600	 6.5300
 0.4610	 6.5100
 0.4620	 6.4500
 0.4630	 6.3800
 0.4640	 6.4300
 0.4650	 6.4400
 0.4660	 6.4300
 0.4670	 6.4800
 0.4680	 6.3600
 0.4690	 6.4100
 0.4700	 6.4200
 0.4710	 6.3200
 0.4720	 6.4200
 0.4730	 6.3500
 0.4740	 6.4100
 0.4750	 6.3600
 0.4760	 6.2500
 0.4770	 6.3800
 0.4780	 6.4300
 0.4790	 6.3600
 0.4800	 6.3600
 0.4810	 6.3200
 0.4820	 6.3100
 0.4830	 6.3000
 0.4840	 6.2800
 0.4850	 6.3400
 0.4860	 6.2800
 0.4870	 6.3900
 0.4880	 6.3300
 0.4890	 6.2100
 0.4900	 6.3700
 0.4910	 6.3000
 0.4920	 6.3500
 0.4930	 6.3400
 0.4940	 6.2700
 0.4950	 6.3800
 0.4960	 6.3700
 0.4970	 6.2400
 0.4980	 6.3600
 0.4990	 6.3000
 0.5000	 6.3500
 0.5010	 6.3400
 0.5020	 6.2300
 0.5030	 6.2800
 0.5040	 6.2800
 0.5050	 6.3300
 0.5060	 6.3900
 0.5070	 6.2800
 0.5080	 6.2800
 0.5090	 6.3400
 0.5100	 6.2800
 0.5110	 6.3900
 0.5120	 6.3900
 0.5130	 6.4400
 0.5140	 6.3800
 0.5150	 6.3300
 0.5160	 6.3900
 0.5170	 6.4000
 0.5180	 6.2800
 0.5190	 6.4400
 0.5200	 6.3900
 0.5210	 6.4400
 0.5220	 6.4400
 0.5230	 6.3200
 0.5240	 6.5000
 0.5250	 6.4900
 0.5260	 6.4700
 0.5270	 6.4700
 0.5280	 6.4100
 0.5290	 6.4600
 0.5300	 6.4800
 0.5310	 6.4400
 0.5320	 6.4900
 0.5330	 6.5500
 0.5340	 6.5500
 0.5350	 6.5500
 0.5360	 6.5000
 0.5370	 6.5600
 0.5380	 6.6200
 0.5390	 6.6200
 0.5400	 6.6700
 0.5410	 6.6000
 0.5420	 6.6500
 0.5430	 6.7100
 0.5440	 6.6300
 0.5450	 6.7400
 0.5460	 6.8500
 0.5470	 6.8300
 0.5480	 6.8200
 0.5490	 6.8100
 0.5500	 6.8700
 0.5510	 6.9700
 0.5520	 6.8600
 0.5530	 7.0400
 0.5540	 7.0500
 0.5550	 7.1000
 0.5560	 7.1500
 0.5570	 7.0800
 0.5580	 7.1800
 0.5590	 7.2300
 0.5600	 7.1900
 0.5610	 7.3400
 0.5620	 7.4400
 0.5630	 7.4800
 0.5640	 7.5400
 0.5650	 7.5300
 0.5660	 7.5900
 0.5670	 7.7200
 0.5680	 7.6700
 0.5690	 7.8500
 0.5700	 7.8400
 0.5710	 7.9600
 0.5720	 8.0200
 0.5730	 7.9800
 0.5740	 8.1100
 0.5750	 8.1800
 0.5760	 8.2200
 0.5770	 8.3000
 0.5780	 8.3000
 0.5790	 8.4300
 0.5800	 8.4400
 0.5810	 8.5100
 0.5820	 8.6300
 0.5830	 8.6300
 0.5840	 8.7900
 0.5850	 8.8500
 0.5860	 8.7300
 0.5870	 8.9200
 0.5880	 9.0500
 0.5890	 9.1000
 0.5900	 9.0900
 0.5910	 9.1400
 0.5920	 9.2100
 0.5930	 9.2800
 0.5940	 9.1700
 0.5950	 9.2700
 0.5960	 9.2600
 0.5970	 9.3700
 0.5980	 9.4200
 0.5990	 9.3800
 0.6000	 9.4900
 0.6010	 9.5600
 0.6020	 9.5600
 0.6030	 9.6400
 0.6040	 9.5600
 0.6050	 9.6700
 0.6060	 9.6500
 0.6070	 9.6400
 0.6080	 9.7500
 0.6090	 9.6800
 0.6100	 9.7300
 0.6110	 9.7800
 0.6120	 9.7300
 0.6130	 9.7300
 0.6140	 9.7400
 0.6150	 9.8000
 0.6160	 9.7300
 0.6170	 9.7200
 0.6180	 9.7900
 0.6190	 9.8700
 0.6200	 9.8100
 0.6210	 9.8000
 0.6220	 9.7800
 0.6230	 9.7700
 0.6240	 9.7800
 0.6250	 9.7300
 0.6260	 9.7200
 0.6270	 9.7000
 0.6280	 9.8300
 0.6290	 9.7200
 0.6300	 9.6900
 0.6310	 9.7600
 0.6320	 9.8200
 0.6330	 9.8100
 0.6340	 9.8000
 0.6350	 9.7100
 0.6360	 9.7500
 0.6370	 9.8000
 0.6380	 9.6800
 0.6390	 9.8000
 0.6400	 9.7400
 0.6410	 9.8500
 0.6420	 9.7600
 0.6430	 9.7100
 0.6440	 9.8100
 0.6450	 9.8500
 0.6460	 9.8300
 0.6470	 9.8900
 0.6480	 9.7100
 0.6490	 9.8000
 0.6500	 9.8500
 0.6510	 9.8000
 0.6520	 9.9100
 0.6530	 9.8000
 0.6540	 9.9800
 0.6550	 9.8800
 0.6560	 9.7700
 0.6570	 9.8800
 0.6580	 9.9300
 0.6590	 9.9500
 0.6600	 9.9200
 0.6610	 9.8500
 0.6620	 9.9800
 0.6630	 9.9600
 0.6640	 9.9400
 0.6650	 9.9500
 0.6660	 9.9000
 0.6670	10.0200
 0.6680	 9.9900
 0.6690	 9.9800
 0.6700	10.0400
 0.6710	10.0300
 0.6720	10.0700
 0.6730	10.0300
 0.6740	10.0200
 0.6750	10.0700
 0.6760	10.1400
 0.6770	10.1900
 0.6780	10.1400
 0.6790	10.1500
 0.6800	10.1700
 0.6810	10.2300
 0.6820	10.1000
 0.6830	10.2400
 0.6840	10.2300
 0.6850	10.2300
 0.6860	10.2300
 0.6870	10.2300
 0.6880	10.3500
 0.6890	10.3600
 0.6900	10.3700
 0.6910	10.4400
 0.6920	10.3900
 0.6930	10.3800
 0.6940	10.4800
 0.6950	10.4100
 0.6960	10.5200
 0.6970	10.4400
 0.6980	10.5300
 0.6990	10.5100
 0.7000	10.4100
 0.7010	10.5600
 0.7020	10.7000
 0.7030	10.6800
 0.7040	10.7800
 0.7050	10.6900
 0.7060	10.6900
 0.7070	10.7300
 0.7080	10.7700
 0.7090	10.8300
 0.7100	10.8500
 0.7110	10.8700
 0.7120	10.9300
 0.7130	10.9300
 0.7140	10.9000
 0.7150	10.9600
 0.7160	10.9500
 0.7170	11.0800
 0.7180	10.9500
 0.7190	11.0000
 0.7200	11.0100
 0.7210	11.0300
 0.7220	11.1500
 0.7230	11.1400
 0.7240	11.1100
 0.7250	11.1600
 0.7260	11.1600
 0.7270	11.1800
 0.7280	11.2200
 0.7290	11.1600
 0.7300	11.2900
 0.7310	11.1800
 0.7320	11.1300
 0.7330	11.2300
 0.7340	11.1600
 0.7350	11.2800
 0.7360	11.3000
 0.7370	11.2400
 0.7380	11.3500
 0.7390	11.1800
 0.7400	11.2600
 0.7410	11.2300
 0.7420	11.2500
 0.7430	11.2900
 0.7440	11.2700
 0.7450	11.1100
 0.7460	11.2800
 0.7470	11.2300
 0.7480	11.2100
 0.7490	11.2100
 0.7500	11.1700
 0.7510	11.2500
 0.7520	11.1300
 0.7530	11.0800
 0.7540	11.1600
 0.7550	11.1400
 0.7560	11.1200
 0.7570	11.0500
 0.7580	11.0400
 0.7590	11.1200
 0.7600	11.0200
 0.7610	11.0000
 0.7620	10.9700
 0.7630	10.9500
 0.7640	11.0400
 0.7650	10.9200
 0.7660	10.9200
 0.7670	10.9200
 0.7680	10.8700
 0.7690	10.8800
 0.7700	10.8200
 0.7710	10.7600
 0.7720	10.8700
 0.7730	10.7600
 0.7740	10.7000
 0.7750	10.7000
 0.7760	10.6900
 0.7770	10.7700
 0.7780	10.6700
 0.7790	10.6600
 0.7800	10.7000
 0.7810	10.5700
 0.7820	10.5800
 0.7830	10.5700
 0.7840	10.5000
 0.7850	10.6300
 0.7860	10.4200
 0.7870	10.4800
 0.7880	10.4800
 0.7890	10.4500
 0.7900	10.4500
 0.7910	10.3600
 0.7920	10.3500
 0.7930	10.4100
 0.7940	10.3000
 0.7950	10.3100
 0.7960	10.2800
 0.7970	10.1600
 0.7980	10.3100
 0.7990	10.1300
 0.8000	10.5700
 0.8040	10.4100
 0.8080	10.3400
 0.8120	10.2700
 0.8160	10.1700
 0.8200	10.0100
 0.8240	10.0300
 0.8280	10.0200
 0.8320	 9.9800
 0.8360	 9.9500
 0.8400	 9.8000
 0.8440	 9.7900
 0.8480	 9.8100
 0.8520	 9.7200
 0.8560	 9.7600
 0.8600	 9.7400
 0.8640	 9.6800
 0.8680	 9.6500
 0.8720	 9.7000
 0.8760	 9.7000
 0.8800	 9.7600
 0.8840	 9.6900
 0.8880	 9.6900
 0.8920	 9.8100
 0.8960	 9.8200
 0.9000	 9.8200
 0.9040	 9.8600
 0.9080	 9.8900
 0.9120	 9.9300
 0.9160	10.0600
 0.9200	10.0400
 0.9240	10.1200
 0.9280	10.1600
 0.9320	10.2400
 0.9360	10.4000
 0.9400	10.3900
 0.9440	10.5000
 0.9480	10.6000
 0.9520	10.6600
 0.9560	10.7800
 0.9600	10.8600
 0.9640	10.9500
 0.9680	11.0100
 0.9720	11.1700
 0.9760	11.2200
 0.9800	11.2400
 0.9840	11.4000
 0.9880	11.5000
 0.9920	11.5700
 0.9960	11.6200
 1.0000	11.6500
 1.0040	11.7400
 1.0080	11.7800
 1.0120	11.8400
 1.0160	11.8500
 1.0200	11.9000
 1.0240	11.8500
 1.0280	11.9100
 1.0320	11.9100
 1.0360	11.8900
 1.0400	11.8700
 1.0440	11.8700
 1.0480	11.9300
 1.0520	11.9000
 1.0560	11.9000
 1.0600	11.8600
 1.0640	11.8300
 1.0680	11.8100
 1.0720	11.8100
 1.0760	11.7700
 1.0800	11.7600
 1.0840	11.7700
 1.0880	11.7300
 1.0920	11.7100
 1.0960	11.7500
 1.1000	11.6500
 1.1040	11.6800
 1.1080	11.6400
 1.1120	11.5900
 1.1160	11.5700
 1.1200	11.5300
 1.1240	11.5300
 1.1280	11.5300
 1.1320	11.4100
 1.1360	11.4200
 1.1400	11.3800
 1.1440	11.3300
 1.1480	11.4000
 1.1520	11.3700
 1.1560	11.2900
 1.1600	11.2800
 1.1640	11.2800
 1.1680	11.2900
 1.1720	11.2100
 1.1760	11.1500
 1.1800	11.0700
 1.1840	11.1000
 1.1880	11.0700
 1.1920	11.0200
 1.1960	11.0200
 1.2000	10.9600
 1.2040	10.8800
 1.2080	10.9000
 1.2120	10.8600
 1.2160	10.8500
 1.2200	10.7600
 1.2240	10.7900
 1.2280	10.8000
 1.2320	10.7500
 1.2360	10.7100
 1.2400	10.6300
 1.2440	10.6500
 1.2480	10.6400
 1.2520	10.6800
 1.2560	10.5700
 1.2600	10.5700
 1.2640	10.5300
 1.2680	10.4900
 1.2720	10.4900
 1.2760	10.4400
 1.2800	10.4000
 1.2840	10.4100
 1.2880	10.3600
 1.2920	10.3600
 1.2960	10.3300
 1.3000	10.3100
 1.3040	10.2200
 1.3080	10.1600
 1.3120	10.2800
 1.3160	10.2000
 1.3200	10.1900
 1.3240	10.1900
 1.3280	10.1400
 1.3320	10.1500
 1.3360	10.1100
 1.3400	10.0800
 1.3440	10.0500
 1.3480	10.1000
 1.3520	10.0700
 1.3560	 9.9900
 1.3600	 9.9500
 1.3640	 9.9600
 1.3680	 9.9700
 1.3720	 9.9400
 1.3760	 9.9100
 1.3800	 9.8600
 1.3840	 9.9400
 1.3880	 9.8300
 1.3920	 9.8300
 1.3960	 9.8400
 1.4000	 9.8300
 1.4040	 9.8200
 1.4080	 9.8000
 1.4120	 9.7800
 1.4160	 9.7100
 1.4200	 9.7700
 1.4240	 9.8200
 1.4280	 9.7800
 1.4320	 9.7300
 1.4360	 9.7000
 1.4400	 9.7100
 1.4440	 9.6900
 1.4480	 9.7400
 1.4520	 9.6800
 1.4560	 9.6700
 1.4600	 9.6200
 1.4640	 9.6000
 1.4680	 9.6300
 1.4720	 9.6700
 1.4760	 9.6300
 1.4800	 9.6200
 1.4840	 9.5800
 1.4880	 9.6200
 1.4920	 9.6700
 1.4960	 9.5400
 1.5000	 9.5400
 1.5040	 9.5500
 1.5080	 9.5900
 1.5120	 9.5300
 1.5160	 9.5800
 1.5200	 9.5600
 1.5240	 9.5900
 1.5280	 9.4900
 1.5320	 9.4800
 1.5360	 9.5200
 1.5400	 9.5000
 1.5440	 9.5300
 1.5480	 9.4600
 1.5520	 9.5100
 1.5560	 9.4900
 1.5600	 9.4700
 1.5640	 9.5100
 1.5680	 9.3700
 1.5720	 9.4400
 1.5760	 9.4900
 1.5800	 9.5500
 1.5840	 9.4600
 1.5880	 9.4000
 1.5920	 9.4200
 1.5960	 9.4400
 1.6000	 9.4500
 1.6040	 9.4600
 1.6080	 9.4100
 1.6120	 9.4500
 1.6160	 9.3700
 1.6200	 9.4400
 1.6240	 9.3700
 1.6280	 9.3800
 1.6320	 9.4600
 1.6360	 9.3800
 1.6400	 9.3800
 1.6440	 9.4400
 1.6480	 9.4200
 1.6520	 9.3900
 1.6560	 9.4100
 1.6600	 9.4100
 1.6640	 9.3400
 1.6680	 9.3200
 1.6720	 9.3400
 1.6760	 9.4000
 1.6800	 9.3300
 1.6840	 9.4300
 1.6880	 9.3400
 1.6920	 9.4100
 1.6960	 9.3600
 1.7000	 9.3400
 1.7040	 9.3400
 1.7080	 9.3800
 1.7120	 9.3400
 1.7160	 9.4000
 1.7200	 9.3300
 1.7240	 9.3700
 1.7280	 9.3500
 1.7320	 9.3900
 1.7360	 9.3200
 1.7400	 9.3400
 1.7440	 9.4000
 1.7480	 9.3600
 1.7520	 9.3700
 1.7560	 9.3800
 1.7600	 9.3500
 1.7640	 9.4200
 1.7680	 9.3600
 1.7720	 9.3600
 1.7760	 9.2900
 1.7800	 9.3300
 1.7840	 9.3600
 1.7880	 9.3700
 1.7920	 9.3600
 1.7960	 9.3400
 1.8000	 9.3200
 1.8040	 9.3100
 1.8080	 9.3300
 1.8120	 9.3800
 1.8160	 9.3500
 1.8200	 9.3800
 1.8240	 9.3900
 1.8280	 9.3700
 1.8320	 9.3200
 1.8360	 9.3700
 1.8400	 9.3900
 1.8440	 9.3600
 1.8480	 9.3800
 1.8520	 9.4100
 1.8560	 9.3300
 1.8600	 9.3300
 1.8640	 9.2700
 1.8680	 9.3500
 1.8720	 9.3200
 1.8760	 9.3500
 1.8800	 9.3100
 1.8840	 9.3300
 1.8880	 9.3600
 1.8920	 9.3000
 1.8960	 9.2900
 1.9000	 9.3100
 1.9040	 9.2700
 1.9080	 9.3500
 1.9120	 9.2800
 1.9160	 9.3100
 1.9200	 9.3300
 1.9240	 9.3000
 1.9280	 9.3400
 1.9320	 9.3600
 1.9360	 9.3100
 1.9400	 9.2500
 1.9440	 9.3000
 1.9480	 9.2900
 1.9520	 9.2800
 1.9560	 9.3300
 1.9600	 9.3600
 1.9640	 9.3300
 1.9680	 9.4100
 1.9720	 9.3300
 1.9760	 9.4100
 1.9800	 9.4600
 1.9840	 9.3900
 1.9880	 9.4900
 1.9920	 9.3800
 1.9960	 9.4500
 2.0000	 9.4600
 2.0040	 9.5100
 2.0080	 9.4400
 2.0120	 9.4600
 2.0160	 9.4400
 2.0200	 9.5500
 2.0240	 9.5200
 2.0280	 9.4600
 2.0320	 9.4600
 2.0360	 9.5300
 2.0400	 9.5400
 2.0440	 9.5200
 2.0480	 9.5200
 2.0520	 9.5300
 2.0560	 9.5300
 2.0600	 9.6300
 2.0640	 9.5400
 2.0680	 9.5700
 2.0720	 9.6100
 2.0760	 9.5600
 2.0800	 9.5600
 2.0840	 9.6600
 2.0880	 9.6100
 2.0920	 9.5800
 2.0960	 9.5900
 2.1000	 9.5700
 2.1040	 9.6000
 2.1080	 9.6000
 2.1120	 9.6500
 2.1160	 9.6800
 2.1200	 9.6100
 2.1240	 9.6400
 2.1280	 9.6600
 2.1320	 9.6600
 2.1360	 9.7300
 2.1400	 9.6900
 2.1440	 9.6900
 2.1480	 9.6500
 2.1520	 9.6300
 2.1560	 9.7000
 2.1600	 9.7400
 2.1640	 9.7200
 2.1680	 9.7100
 2.1720	 9.7000
 2.1760	 9.7000
 2.1800	 9.6900
 2.1840	 9.6600
 2.1880	 9.7300
 2.1920	 9.6300
 2.1960	 9.6800
 2.2000	 9.6800
 2.2040	 9.7200
 2.2080	 9.7500
 2.2120	 9.7100
 2.2160	 9.6700
 2.2200	 9.6700
 2.2240	 9.7600
 2.2280	 9.7400
 2.2320	 9.7400
 2.2360	 9.7500
 2.2400	 9.8000
 2.2440	 9.7300
 2.2480	 9.7900
 2.2520	 9.7800
 2.2560	 9.7400
 2.2600	 9.7400
 2.2640	 9.7800
 2.2680	 9.7500
 2.2720	 9.8300
 2.2760	 9.7600
 2.2800	 9.7500
 2.2840	 9.7800
 2.2880	 9.8200
 2.2920	 9.8400
 2.2960	 9.8200
 2.3000	 9.8500
 2.3040	 9.8400
 2.3080	 9.8200
 2.3120	 9.8100
 2.3160	 9.8500
 2.3200	 9.8300
 2.3240	 9.8500
 2.3280	 9.8200
 2.3320	 9.8600
 2.3360	 9.9600
 2.3400	 9.9400
 2.3440	 9.9100
 2.3480	 9.9500
 2.3520	10.0000
 2.3560	 9.9500
 2.3600	 9.9800
 2.3640	10.0300
 2.3680	 9.9900
 2.3720	10.0200
 2.3760	10.0000
 2.3800	10.0100
 2.3840	 9.9100
 2.3880	 9.9700
 2.3920	10.0200
 2.3960	10.0100
 2.4000	 9.9800
 2.4040	 9.9000
 2.4080	 9.9900
 2.4120	10.0600
 2.4160	10.0100
 2.4200	10.0500
 2.4240	10.0500
 2.4280	10.0100
 2.4320	10.0400
 2.4360	10.1100
 2.4400	10.0100
 2.4440	10.0900
 2.4480	 9.9800
 2.4520	 9.9700
 2.4560	10.0500
 2.4600	10.0400
 2.4640	10.0600
 2.4680	10.0500
 2.4720	10.0500
 2.4760	10.0800
 2.4800	10.1000
 2.4840	10.0200
 2.4880	10.0300
 2.4920	10.0400
 2.4960	10.0800
 2.5000	10.1000
