Name: Biotite K(Mg,Fe^2+)_3(Al,Fe^3+)Si_3O_10(OH,F)_2
Type: Mineral
Class: Silicate
Subclass: Phyllosilicate
Particle Size: Fine
Sample No.: PS-23A
Owner: JPL
Wavelength Range: VSWIR
Origin: 
Collection Date: N/A
Description: Particle size was 0-45um.Collected by JPL Original ASTER Spectral Library name was jpl.beckman.mineral.silicate.phyllosilicate.fine.ps23a.spectrum.txt
Measurement: Hemispherical reflectance
First Column: X
Second Column: Y
X Units: Wavelength (micrometers)
Y Units:Reflectance (percent)
First X Value:  0.4000
Last X Value:  2.5000
Number of X Values: 826
Additional Information: mineral.silicate.phyllosilicate.fine.vswir.ps-23a.jpl.beckman.ancillary.txt

 0.4000	 7.0100
 0.4010	 7.0000
 0.4020	 7.0500
 0.4030	 7.0500
 0.4040	 7.0600
 0.4050	 7.1100
 0.4060	 7.1700
 0.4070	 7.1700
 0.4080	 7.1000
 0.4090	 7.1500
 0.4100	 7.2200
 0.4110	 7.1000
 0.4120	 7.1700
 0.4130	 7.1600
 0.4140	 7.2800
 0.4150	 7.2200
 0.4160	 7.2300
 0.4170	 7.2100
 0.4180	 7.3300
 0.4190	 7.2700
 0.4200	 7.2700
 0.4210	 7.3500
 0.4220	 7.3500
 0.4230	 7.4000
 0.4240	 7.3900
 0.4250	 7.3900
 0.4260	 7.4000
 0.4270	 7.5200
 0.4280	 7.4600
 0.4290	 7.4500
 0.4300	 7.6300
 0.4310	 7.6200
 0.4320	 7.6300
 0.4330	 7.5000
 0.4340	 7.5900
 0.4350	 7.7500
 0.4360	 7.5800
 0.4370	 7.7700
 0.4380	 7.7100
 0.4390	 7.7600
 0.4400	 7.8200
 0.4410	 7.7500
 0.4420	 7.8600
 0.4430	 7.9400
 0.4440	 7.9800
 0.4450	 7.9700
 0.4460	 7.8600
 0.4470	 8.0500
 0.4480	 8.0400
 0.4490	 7.9800
 0.4500	 8.0500
 0.4510	 8.2400
 0.4520	 8.1700
 0.4530	 8.0900
 0.4540	 8.1400
 0.4550	 8.2300
 0.4560	 8.1500
 0.4570	 8.0700
 0.4580	 8.2400
 0.4590	 8.4100
 0.4600	 8.2200
 0.4610	 8.2700
 0.4620	 8.3500
 0.4630	 8.3400
 0.4640	 8.4700
 0.4650	 8.4800
 0.4660	 8.4100
 0.4670	 8.3300
 0.4680	 8.4000
 0.4690	 8.5100
 0.4700	 8.5500
 0.4710	 8.5700
 0.4720	 8.5000
 0.4730	 8.6700
 0.4740	 8.6800
 0.4750	 8.5600
 0.4760	 8.6700
 0.4770	 8.6900
 0.4780	 8.7500
 0.4790	 8.7400
 0.4800	 8.7500
 0.4810	 8.8900
 0.4820	 8.8000
 0.4830	 8.7100
 0.4840	 8.9000
 0.4850	 8.8900
 0.4860	 8.9900
 0.4870	 8.9900
 0.4880	 8.9200
 0.4890	 9.0900
 0.4900	 9.0800
 0.4910	 9.0500
 0.4920	 9.1600
 0.4930	 9.1300
 0.4940	 9.1800
 0.4950	 9.2300
 0.4960	 9.1600
 0.4970	 9.2700
 0.4980	 9.3300
 0.4990	 9.4400
 0.5000	 9.4300
 0.5010	 9.4200
 0.5020	 9.5300
 0.5030	 9.4700
 0.5040	 9.4000
 0.5050	 9.4600
 0.5060	 9.5300
 0.5070	 9.5900
 0.5080	 9.6000
 0.5090	 9.5400
 0.5100	 9.6700
 0.5110	 9.6800
 0.5120	 9.6300
 0.5130	 9.6900
 0.5140	 9.7400
 0.5150	 9.8400
 0.5160	 9.8300
 0.5170	 9.7800
 0.5180	 9.9000
 0.5190	 9.8600
 0.5200	 9.9800
 0.5210	 9.9900
 0.5220	10.0000
 0.5230	10.1100
 0.5240	10.0300
 0.5250	 9.9800
 0.5260	10.0900
 0.5270	10.1500
 0.5280	10.2200
 0.5290	10.2400
 0.5300	10.1800
 0.5310	10.3200
 0.5320	10.2100
 0.5330	10.3000
 0.5340	10.2800
 0.5350	10.2800
 0.5360	10.3600
 0.5370	10.3000
 0.5380	10.3100
 0.5390	10.3200
 0.5400	10.4500
 0.5410	10.4600
 0.5420	10.4400
 0.5430	10.4400
 0.5440	10.4900
 0.5450	10.4600
 0.5460	10.4500
 0.5470	10.6100
 0.5480	10.6100
 0.5490	10.5900
 0.5500	10.5700
 0.5510	10.6100
 0.5520	10.6500
 0.5530	10.6300
 0.5540	10.6400
 0.5550	10.6400
 0.5560	10.6500
 0.5570	10.7400
 0.5580	10.6600
 0.5590	10.6000
 0.5600	10.7400
 0.5610	10.8200
 0.5620	10.8900
 0.5630	10.8700
 0.5640	10.8500
 0.5650	10.8000
 0.5660	10.8300
 0.5670	10.8000
 0.5680	10.8500
 0.5690	10.9100
 0.5700	10.9000
 0.5710	10.9100
 0.5720	10.8800
 0.5730	10.8100
 0.5740	10.9600
 0.5750	10.8600
 0.5760	10.8400
 0.5770	10.8800
 0.5780	10.9500
 0.5790	10.9500
 0.5800	10.9600
 0.5810	10.8500
 0.5820	10.9600
 0.5830	11.0400
 0.5840	11.0300
 0.5850	10.9700
 0.5860	10.9500
 0.5870	11.0800
 0.5880	10.9700
 0.5890	10.9200
 0.5900	11.0000
 0.5910	11.1100
 0.5920	11.1000
 0.5930	11.1000
 0.5940	10.9900
 0.5950	11.1700
 0.5960	11.0800
 0.5970	11.1200
 0.5980	11.1000
 0.5990	11.1100
 0.6000	11.1100
 0.6010	11.0300
 0.6020	11.0500
 0.6030	11.0800
 0.6040	11.1800
 0.6050	11.0100
 0.6060	11.1800
 0.6070	11.0800
 0.6080	11.1300
 0.6090	11.1200
 0.6100	11.0800
 0.6110	11.1400
 0.6120	11.2700
 0.6130	11.2600
 0.6140	11.1300
 0.6150	11.1600
 0.6160	11.1900
 0.6170	11.1200
 0.6180	11.1400
 0.6190	11.1300
 0.6200	11.2400
 0.6210	11.1700
 0.6220	11.1700
 0.6230	11.0800
 0.6240	11.2100
 0.6250	11.0100
 0.6260	11.1100
 0.6270	11.1100
 0.6280	11.1100
 0.6290	11.1300
 0.6300	11.0500
 0.6310	10.9800
 0.6320	11.0500
 0.6330	11.0500
 0.6340	11.0800
 0.6350	11.0400
 0.6360	11.1000
 0.6370	11.0400
 0.6380	11.0200
 0.6390	10.9400
 0.6400	11.0100
 0.6410	11.0700
 0.6420	11.0500
 0.6430	10.9900
 0.6440	10.9900
 0.6450	11.1200
 0.6460	10.9600
 0.6470	10.9200
 0.6480	10.9200
 0.6490	11.0800
 0.6500	11.0000
 0.6510	10.9200
 0.6520	10.8600
 0.6530	11.0100
 0.6540	10.8900
 0.6550	10.9400
 0.6560	10.8800
 0.6570	10.9600
 0.6580	10.9600
 0.6590	10.9100
 0.6600	10.7900
 0.6610	10.9100
 0.6620	10.8900
 0.6630	10.8600
 0.6640	10.9200
 0.6650	10.9800
 0.6660	10.9000
 0.6670	10.8300
 0.6680	10.8800
 0.6690	10.8100
 0.6700	10.8100
 0.6710	10.8300
 0.6720	10.8500
 0.6730	10.8600
 0.6740	10.8600
 0.6750	10.7800
 0.6760	10.7700
 0.6770	10.8200
 0.6780	10.8400
 0.6790	10.7200
 0.6800	10.7700
 0.6810	10.7600
 0.6820	10.7700
 0.6830	10.7700
 0.6840	10.6700
 0.6850	10.7400
 0.6860	10.8500
 0.6870	10.7700
 0.6880	10.6900
 0.6890	10.7500
 0.6900	10.7700
 0.6910	10.7100
 0.6920	10.6600
 0.6930	10.7100
 0.6940	10.8300
 0.6950	10.7400
 0.6960	10.7600
 0.6970	10.6500
 0.6980	10.7600
 0.6990	10.6400
 0.7000	10.6700
 0.7010	10.7000
 0.7020	10.7600
 0.7030	10.7200
 0.7040	10.6700
 0.7050	10.7700
 0.7060	10.7100
 0.7070	10.7400
 0.7080	10.7700
 0.7090	10.7100
 0.7100	10.7200
 0.7110	10.6900
 0.7120	10.7400
 0.7130	10.7600
 0.7140	10.7100
 0.7150	10.7300
 0.7160	10.7800
 0.7170	10.7700
 0.7180	10.7600
 0.7190	10.7000
 0.7200	10.7400
 0.7210	10.8600
 0.7220	10.7500
 0.7230	10.7400
 0.7240	10.8100
 0.7250	10.8200
 0.7260	10.8200
 0.7270	10.8000
 0.7280	10.9000
 0.7290	10.9000
 0.7300	10.8400
 0.7310	10.7900
 0.7320	10.8500
 0.7330	10.9000
 0.7340	10.9200
 0.7350	10.8100
 0.7360	10.8700
 0.7370	10.9200
 0.7380	10.9000
 0.7390	10.8400
 0.7400	10.8400
 0.7410	10.9600
 0.7420	10.9700
 0.7430	10.8900
 0.7440	10.9600
 0.7450	11.0400
 0.7460	10.9800
 0.7470	11.0800
 0.7480	11.0900
 0.7490	11.0300
 0.7500	11.1500
 0.7510	11.1800
 0.7520	11.1200
 0.7530	11.2000
 0.7540	11.1600
 0.7550	11.2300
 0.7560	11.0900
 0.7570	11.2600
 0.7580	11.2600
 0.7590	11.2500
 0.7600	11.3100
 0.7610	11.3000
 0.7620	11.3100
 0.7630	11.3900
 0.7640	11.4400
 0.7650	11.3500
 0.7660	11.5100
 0.7670	11.4700
 0.7680	11.5400
 0.7690	11.3600
 0.7700	11.5300
 0.7710	11.5900
 0.7720	11.5400
 0.7730	11.6000
 0.7740	11.5900
 0.7750	11.6300
 0.7760	11.6700
 0.7770	11.6000
 0.7780	11.7700
 0.7790	11.7500
 0.7800	11.8100
 0.7810	11.8300
 0.7820	11.7100
 0.7830	11.8800
 0.7840	11.9300
 0.7850	11.8100
 0.7860	11.8500
 0.7870	11.9800
 0.7880	11.9700
 0.7890	12.0000
 0.7900	11.9000
 0.7910	12.0200
 0.7920	12.1200
 0.7930	12.0300
 0.7940	12.0400
 0.7950	12.0000
 0.7960	12.0700
 0.7970	12.2000
 0.7980	12.1700
 0.7990	12.0900
 0.8000	12.0900
 0.8040	12.1600
 0.8080	12.1300
 0.8120	12.2400
 0.8160	12.2600
 0.8200	12.3900
 0.8240	12.3900
 0.8280	12.5000
 0.8320	12.4800
 0.8360	12.4600
 0.8400	12.5000
 0.8440	12.5100
 0.8480	12.5600
 0.8520	12.5600
 0.8560	12.6000
 0.8600	12.5800
 0.8640	12.5400
 0.8680	12.5300
 0.8720	12.5500
 0.8760	12.6100
 0.8800	12.5800
 0.8840	12.6000
 0.8880	12.6000
 0.8920	12.6300
 0.8960	12.6100
 0.9000	12.6500
 0.9040	12.5900
 0.9080	12.6700
 0.9120	12.7200
 0.9160	12.6100
 0.9200	12.6900
 0.9240	12.7200
 0.9280	12.7800
 0.9320	12.8200
 0.9360	12.8500
 0.9400	12.9200
 0.9440	12.9200
 0.9480	13.0400
 0.9520	13.0100
 0.9560	13.1000
 0.9600	13.1300
 0.9640	13.2300
 0.9680	13.2600
 0.9720	13.3300
 0.9760	13.3700
 0.9800	13.3600
 0.9840	13.4300
 0.9880	13.4800
 0.9920	13.5600
 0.9960	13.5900
 1.0000	13.6800
 1.0040	13.7100
 1.0080	13.7400
 1.0120	13.8400
 1.0160	13.8700
 1.0200	14.0000
 1.0240	13.9900
 1.0280	14.0200
 1.0320	14.0700
 1.0360	14.0600
 1.0400	14.0900
 1.0440	14.1300
 1.0480	14.1100
 1.0520	14.1600
 1.0560	14.1800
 1.0600	14.2100
 1.0640	14.2300
 1.0680	14.2300
 1.0720	14.2200
 1.0760	14.2700
 1.0800	14.3100
 1.0840	14.3000
 1.0880	14.3100
 1.0920	14.4000
 1.0960	14.3500
 1.1000	14.4200
 1.1040	14.3800
 1.1080	14.3600
 1.1120	14.4000
 1.1160	14.4900
 1.1200	14.4400
 1.1240	14.5000
 1.1280	14.4400
 1.1320	14.5300
 1.1360	14.5800
 1.1400	14.6200
 1.1440	14.6400
 1.1480	14.6400
 1.1520	14.7400
 1.1560	14.7700
 1.1600	14.7000
 1.1640	14.8100
 1.1680	14.8000
 1.1720	14.9100
 1.1760	14.9600
 1.1800	14.9300
 1.1840	15.0100
 1.1880	15.0800
 1.1920	15.1800
 1.1960	15.2300
 1.2000	15.2400
 1.2040	15.4500
 1.2080	15.4600
 1.2120	15.4600
 1.2160	15.5700
 1.2200	15.6700
 1.2240	15.7400
 1.2280	15.7700
 1.2320	15.8900
 1.2360	16.0100
 1.2400	16.0800
 1.2440	16.1500
 1.2480	16.2300
 1.2520	16.3200
 1.2560	16.4900
 1.2600	16.5000
 1.2640	16.6500
 1.2680	16.7400
 1.2720	16.8200
 1.2760	16.9200
 1.2800	17.0500
 1.2840	17.1500
 1.2880	17.2800
 1.2920	17.3200
 1.2960	17.4100
 1.3000	17.5600
 1.3040	17.7000
 1.3080	17.8700
 1.3120	18.0000
 1.3160	18.0300
 1.3200	18.1200
 1.3240	18.2700
 1.3280	18.3700
 1.3320	18.5700
 1.3360	18.6200
 1.3400	18.7700
 1.3440	18.9600
 1.3480	19.0400
 1.3520	19.1100
 1.3560	19.2900
 1.3600	19.3700
 1.3640	19.5100
 1.3680	19.6400
 1.3720	19.6700
 1.3760	19.8500
 1.3800	19.8800
 1.3840	20.0700
 1.3880	20.1300
 1.3920	20.3000
 1.3960	20.3900
 1.4000	20.6100
 1.4040	20.7700
 1.4080	20.9400
 1.4120	21.0100
 1.4160	21.1300
 1.4200	21.3500
 1.4240	21.5700
 1.4280	21.6700
 1.4320	21.8400
 1.4360	21.9200
 1.4400	22.0900
 1.4440	22.2300
 1.4480	22.3200
 1.4520	22.5000
 1.4560	22.6900
 1.4600	22.8300
 1.4640	22.9400
 1.4680	23.0800
 1.4720	23.2000
 1.4760	23.4500
 1.4800	23.5000
 1.4840	23.6600
 1.4880	23.8500
 1.4920	23.9500
 1.4960	24.1400
 1.5000	24.2400
 1.5040	24.4000
 1.5080	24.6200
 1.5120	24.7700
 1.5160	24.8900
 1.5200	25.0100
 1.5240	25.2200
 1.5280	25.3000
 1.5320	25.4300
 1.5360	25.6000
 1.5400	25.8100
 1.5440	25.9600
 1.5480	26.1100
 1.5520	26.2500
 1.5560	26.4100
 1.5600	26.6100
 1.5640	26.6800
 1.5680	26.8100
 1.5720	26.9900
 1.5760	27.1100
 1.5800	27.3600
 1.5840	27.4700
 1.5880	27.5500
 1.5920	27.7100
 1.5960	27.9000
 1.6000	28.0500
 1.6040	28.1500
 1.6080	28.3500
 1.6120	28.4500
 1.6160	28.6300
 1.6200	28.8000
 1.6240	28.9700
 1.6280	29.0400
 1.6320	29.2600
 1.6360	29.4000
 1.6400	29.5700
 1.6440	29.7200
 1.6480	29.8700
 1.6520	30.0700
 1.6560	30.2100
 1.6600	30.3900
 1.6640	30.5100
 1.6680	30.5900
 1.6720	30.7800
 1.6760	30.9600
 1.6800	31.1000
 1.6840	31.2200
 1.6880	31.4000
 1.6920	31.5300
 1.6960	31.7400
 1.7000	31.9300
 1.7040	32.1600
 1.7080	32.1600
 1.7120	32.3100
 1.7160	32.5400
 1.7200	32.6900
 1.7240	32.8400
 1.7280	32.9400
 1.7320	33.1300
 1.7360	33.2000
 1.7400	33.4100
 1.7440	33.5100
 1.7480	33.6900
 1.7520	33.7800
 1.7560	33.9600
 1.7600	34.1300
 1.7640	34.2100
 1.7680	34.3700
 1.7720	34.5300
 1.7760	34.7200
 1.7800	34.8900
 1.7840	35.0200
 1.7880	35.1600
 1.7920	35.3600
 1.7960	35.4800
 1.8000	35.6400
 1.8040	35.7100
 1.8080	35.9000
 1.8120	35.9900
 1.8160	36.1100
 1.8200	36.3000
 1.8240	36.4300
 1.8280	36.6200
 1.8320	36.7400
 1.8360	36.8700
 1.8400	36.9800
 1.8440	37.1600
 1.8480	37.2900
 1.8520	37.3900
 1.8560	37.5700
 1.8600	37.7100
 1.8640	37.8800
 1.8680	37.9600
 1.8720	38.0900
 1.8760	38.2400
 1.8800	38.3300
 1.8840	38.4300
 1.8880	38.5500
 1.8920	38.8000
 1.8960	38.9000
 1.9000	38.9400
 1.9040	39.0600
 1.9080	39.2000
 1.9120	39.2900
 1.9160	39.4400
 1.9200	39.5200
 1.9240	39.6800
 1.9280	39.7900
 1.9320	39.9600
 1.9360	40.0900
 1.9400	40.2300
 1.9440	40.3900
 1.9480	40.5000
 1.9520	40.6500
 1.9560	40.8000
 1.9600	40.9300
 1.9640	41.0600
 1.9680	41.1800
 1.9720	41.3300
 1.9760	41.4800
 1.9800	41.7300
 1.9840	41.8400
 1.9880	41.9400
 1.9920	42.1100
 1.9960	42.2700
 2.0000	42.4300
 2.0040	42.5700
 2.0080	42.6200
 2.0120	42.7900
 2.0160	42.9200
 2.0200	43.0400
 2.0240	43.2000
 2.0280	43.2500
 2.0320	43.4200
 2.0360	43.5100
 2.0400	43.6700
 2.0440	43.6900
 2.0480	43.8300
 2.0520	44.0000
 2.0560	44.1200
 2.0600	44.2500
 2.0640	44.2800
 2.0680	44.4500
 2.0720	44.5500
 2.0760	44.7000
 2.0800	44.8100
 2.0840	44.8800
 2.0880	45.0300
 2.0920	45.1000
 2.0960	45.2400
 2.1000	45.3400
 2.1040	45.4700
 2.1080	45.6400
 2.1120	45.7400
 2.1160	45.7800
 2.1200	45.9500
 2.1240	46.0600
 2.1280	46.1100
 2.1320	46.2900
 2.1360	46.2900
 2.1400	46.4400
 2.1440	46.5400
 2.1480	46.5300
 2.1520	46.6200
 2.1560	46.6900
 2.1600	46.8200
 2.1640	46.9000
 2.1680	46.9200
 2.1720	47.0000
 2.1760	47.0500
 2.1800	47.1700
 2.1840	47.1600
 2.1880	47.2600
 2.1920	47.3800
 2.1960	47.4400
 2.2000	47.5300
 2.2040	47.5400
 2.2080	47.5700
 2.2120	47.6700
 2.2160	47.7700
 2.2200	47.7900
 2.2240	47.8000
 2.2280	47.7600
 2.2320	47.7200
 2.2360	47.6500
 2.2400	47.6200
 2.2440	47.6200
 2.2480	47.5900
 2.2520	47.5800
 2.2560	47.6800
 2.2600	47.8200
 2.2640	47.9900
 2.2680	48.0200
 2.2720	48.1500
 2.2760	48.2900
 2.2800	48.2500
 2.2840	48.1800
 2.2880	48.2600
 2.2920	48.0700
 2.2960	47.9400
 2.3000	47.8300
 2.3040	47.7100
 2.3080	47.4800
 2.3120	47.3200
 2.3160	47.2400
 2.3200	47.1300
 2.3240	47.0100
 2.3280	47.0300
 2.3320	47.0600
 2.3360	47.1100
 2.3400	47.1700
 2.3440	47.2800
 2.3480	47.5600
 2.3520	47.6600
 2.3560	47.8300
 2.3600	47.9500
 2.3640	47.9900
 2.3680	47.9800
 2.3720	48.1300
 2.3760	48.1600
 2.3800	48.2100
 2.3840	48.1900
 2.3880	48.1400
 2.3920	48.1600
 2.3960	48.3900
 2.4000	48.4200
 2.4040	48.4300
 2.4080	48.6100
 2.4120	48.7800
 2.4160	48.9700
 2.4200	49.0700
 2.4240	49.1500
 2.4280	49.2800
 2.4320	49.4700
 2.4360	49.5600
 2.4400	49.6100
 2.4440	49.6800
 2.4480	49.7300
 2.4520	49.8500
 2.4560	49.9500
 2.4600	49.9800
 2.4640	50.0400
 2.4680	50.0900
 2.4720	50.1000
 2.4760	50.2700
 2.4800	50.3600
 2.4840	50.4600
 2.4880	50.6200
 2.4920	50.7600
 2.4960	50.8400
 2.5000	50.9600
