Name: Kernite Na_2B_4O_6(OH)_2.3H_2O
Type: Mineral
Class: Borate
Subclass: None
Particle Size: Medium
Sample No.: B-2A
Owner: JPL
Wavelength Range: VSWIR
Origin: USA, California, Kern County, Boron.
Collection Date: N/A
Description: Particle size was 45-125um.Collected by:  JPL Original ASTER Spectral Library name was jpl.perkin.mineral.borate.none.medium.b02a.spectrum.txt
Measurement: Hemispherical reflectance
First Column: X
Second Column: Y
X Units: Wavelength (micrometers)
Y Units:Reflectance (percent)
First X Value:  2.5000
Last X Value:  0.4000
Number of X Values: 2101
Additional Information: mineral.borate.none.medium.vswir.b-2a.jpl.perkin.ancillary.txt

 2.5000	33.5059
 2.4990	33.4589
 2.4980	33.5464
 2.4970	33.5431
 2.4960	33.3034
 2.4950	33.6118
 2.4940	33.5746
 2.4930	33.5033
 2.4920	33.6459
 2.4910	33.4588
 2.4900	33.5405
 2.4890	33.5571
 2.4880	33.6317
 2.4870	33.6417
 2.4860	33.7788
 2.4850	33.7237
 2.4840	33.8329
 2.4830	33.6781
 2.4820	33.7493
 2.4810	33.7656
 2.4800	33.8950
 2.4790	33.7389
 2.4780	33.8447
 2.4770	33.8350
 2.4760	34.0031
 2.4750	33.8197
 2.4740	33.9727
 2.4730	33.9195
 2.4720	33.9199
 2.4710	33.8998
 2.4700	33.9850
 2.4690	34.0288
 2.4680	34.1217
 2.4670	34.1017
 2.4660	34.1276
 2.4650	34.0367
 2.4640	34.2401
 2.4630	34.1778
 2.4620	34.2522
 2.4610	34.1191
 2.4600	34.2816
 2.4590	34.1831
 2.4580	34.2432
 2.4570	34.2335
 2.4560	34.3450
 2.4550	34.3342
 2.4540	34.4182
 2.4530	34.3189
 2.4520	34.3970
 2.4510	34.3821
 2.4500	34.3323
 2.4490	34.3613
 2.4480	34.4408
 2.4470	34.3659
 2.4460	34.4658
 2.4450	34.4322
 2.4440	34.4045
 2.4430	34.2978
 2.4420	34.4242
 2.4410	34.4782
 2.4400	34.4999
 2.4390	34.4456
 2.4380	34.5975
 2.4370	34.4716
 2.4360	34.5710
 2.4350	34.5007
 2.4340	34.6652
 2.4330	34.5688
 2.4320	34.6787
 2.4310	34.7213
 2.4300	34.7776
 2.4290	34.7991
 2.4280	34.8071
 2.4270	34.8183
 2.4260	35.0381
 2.4250	34.9712
 2.4240	35.0988
 2.4230	35.1176
 2.4220	35.2108
 2.4210	35.2286
 2.4200	35.3955
 2.4190	35.4397
 2.4180	35.5167
 2.4170	35.6069
 2.4160	35.7811
 2.4150	35.7547
 2.4140	35.9092
 2.4130	35.9037
 2.4120	35.9887
 2.4110	36.0719
 2.4100	36.2228
 2.4090	36.1929
 2.4080	36.3586
 2.4070	36.4422
 2.4060	36.5016
 2.4050	36.5149
 2.4040	36.7739
 2.4030	36.7650
 2.4020	36.8451
 2.4010	36.9207
 2.4000	37.0876
 2.3990	37.2393
 2.3980	37.3856
 2.3970	37.5640
 2.3960	37.6860
 2.3950	37.7102
 2.3940	37.8786
 2.3930	38.0496
 2.3920	38.2130
 2.3910	38.3642
 2.3900	38.5448
 2.3890	38.6497
 2.3880	38.8652
 2.3870	39.0732
 2.3860	39.2777
 2.3850	39.4543
 2.3840	39.7140
 2.3830	39.8877
 2.3820	40.0956
 2.3810	40.2679
 2.3800	40.5536
 2.3790	40.7380
 2.3780	40.9583
 2.3770	41.1944
 2.3760	41.4363
 2.3750	41.6483
 2.3740	41.8939
 2.3730	42.0651
 2.3720	42.3289
 2.3710	42.5061
 2.3700	42.6932
 2.3690	42.8963
 2.3680	43.1303
 2.3670	43.3354
 2.3660	43.4943
 2.3650	43.7063
 2.3640	43.8889
 2.3630	44.0178
 2.3620	44.2273
 2.3610	44.3736
 2.3600	44.4990
 2.3590	44.6618
 2.3580	44.7766
 2.3570	44.9505
 2.3560	45.1310
 2.3550	45.2018
 2.3540	45.3457
 2.3530	45.5151
 2.3520	45.6351
 2.3510	45.7780
 2.3500	45.9190
 2.3490	45.9993
 2.3480	46.1144
 2.3470	46.2984
 2.3460	46.3874
 2.3450	46.5216
 2.3440	46.6608
 2.3430	46.7931
 2.3420	46.9362
 2.3410	47.0248
 2.3400	47.1358
 2.3390	47.2985
 2.3380	47.4204
 2.3370	47.4964
 2.3360	47.6413
 2.3350	47.7761
 2.3340	47.9042
 2.3330	48.0801
 2.3320	48.1663
 2.3310	48.2990
 2.3300	48.3618
 2.3290	48.5159
 2.3280	48.6024
 2.3270	48.6644
 2.3260	48.7699
 2.3250	48.8809
 2.3240	48.9495
 2.3230	49.0546
 2.3220	49.1073
 2.3210	49.1573
 2.3200	49.1904
 2.3190	49.2972
 2.3180	49.3023
 2.3170	49.3205
 2.3160	49.3615
 2.3150	49.4115
 2.3140	49.4223
 2.3130	49.4496
 2.3120	49.4058
 2.3110	49.4281
 2.3100	49.4140
 2.3090	49.3998
 2.3080	49.4000
 2.3070	49.3743
 2.3060	49.3029
 2.3050	49.2874
 2.3040	49.2372
 2.3030	49.1693
 2.3020	49.1365
 2.3010	49.1065
 2.3000	49.0077
 2.2990	48.9253
 2.2980	48.8385
 2.2970	48.7886
 2.2960	48.6293
 2.2950	48.5510
 2.2940	48.4121
 2.2930	48.3379
 2.2920	48.1722
 2.2910	48.1040
 2.2900	47.9021
 2.2890	47.8262
 2.2880	47.6524
 2.2870	47.5800
 2.2860	47.4335
 2.2850	47.3250
 2.2840	47.1454
 2.2830	47.1454
 2.2820	47.0543
 2.2810	46.9139
 2.2800	46.8015
 2.2790	46.8208
 2.2780	46.7262
 2.2770	46.6419
 2.2760	46.6310
 2.2750	46.5316
 2.2740	46.4633
 2.2730	46.4103
 2.2720	46.4087
 2.2710	46.3886
 2.2700	46.3441
 2.2690	46.3030
 2.2680	46.1968
 2.2670	46.1809
 2.2660	46.0680
 2.2650	46.1112
 2.2640	46.0588
 2.2630	46.0123
 2.2620	45.9182
 2.2610	45.8760
 2.2600	45.8072
 2.2590	45.8253
 2.2580	45.6779
 2.2570	45.6487
 2.2560	45.5889
 2.2550	45.5780
 2.2540	45.5044
 2.2530	45.5192
 2.2520	45.4449
 2.2510	45.4215
 2.2500	45.3718
 2.2490	45.4076
 2.2480	45.2544
 2.2470	45.2523
 2.2460	45.1730
 2.2450	45.1098
 2.2440	45.0460
 2.2430	44.9362
 2.2420	44.8636
 2.2410	44.7861
 2.2400	44.6177
 2.2390	44.4347
 2.2380	44.3588
 2.2370	44.2020
 2.2360	43.9436
 2.2350	43.8551
 2.2340	43.6294
 2.2330	43.4454
 2.2320	43.2831
 2.2310	43.1586
 2.2300	42.8672
 2.2290	42.7492
 2.2280	42.4842
 2.2270	42.3848
 2.2260	42.1870
 2.2250	42.0352
 2.2240	41.6992
 2.2230	41.6849
 2.2220	41.4281
 2.2210	41.2499
 2.2200	41.0519
 2.2190	40.9243
 2.2180	40.6020
 2.2170	40.4258
 2.2160	40.1273
 2.2150	39.9858
 2.2140	39.6288
 2.2130	39.4357
 2.2120	39.1703
 2.2110	38.8495
 2.2100	38.5595
 2.2090	38.2903
 2.2080	37.9708
 2.2070	37.6654
 2.2060	37.2960
 2.2050	37.0572
 2.2040	36.6841
 2.2030	36.2356
 2.2020	35.7772
 2.2010	35.4900
 2.2000	34.9631
 2.1990	34.6462
 2.1980	34.0648
 2.1970	33.7436
 2.1960	33.2106
 2.1950	32.9313
 2.1940	32.4869
 2.1930	32.2498
 2.1920	31.9946
 2.1910	31.7732
 2.1900	31.6260
 2.1890	31.6355
 2.1880	31.7014
 2.1870	31.8871
 2.1860	32.0022
 2.1850	32.3386
 2.1840	32.6126
 2.1830	33.1022
 2.1820	33.5677
 2.1810	34.1648
 2.1800	34.6085
 2.1790	35.2630
 2.1780	35.7768
 2.1770	36.3978
 2.1760	36.9662
 2.1750	37.5969
 2.1740	38.0591
 2.1730	38.6886
 2.1720	39.2139
 2.1710	39.7017
 2.1700	40.0968
 2.1690	40.5582
 2.1680	40.8666
 2.1670	41.1953
 2.1660	41.4996
 2.1650	41.7631
 2.1640	41.9976
 2.1630	42.2876
 2.1620	42.3847
 2.1610	42.5790
 2.1600	42.6914
 2.1590	42.8835
 2.1580	42.9872
 2.1570	43.1155
 2.1560	43.1689
 2.1550	43.2930
 2.1540	43.3917
 2.1530	43.5364
 2.1520	43.5464
 2.1510	43.6558
 2.1500	43.7146
 2.1490	43.7930
 2.1480	43.8767
 2.1470	43.9640
 2.1460	43.9892
 2.1450	44.0490
 2.1440	44.1179
 2.1430	44.1567
 2.1420	44.1722
 2.1410	44.2574
 2.1400	44.2957
 2.1390	44.4118
 2.1380	44.3455
 2.1370	44.3810
 2.1360	44.4693
 2.1350	44.5228
 2.1340	44.5499
 2.1330	44.5750
 2.1320	44.6174
 2.1310	44.6412
 2.1300	44.6033
 2.1290	44.6091
 2.1280	44.5851
 2.1270	44.6617
 2.1260	44.6723
 2.1250	44.6687
 2.1240	44.6260
 2.1230	44.6281
 2.1220	44.5851
 2.1210	44.6307
 2.1200	44.5474
 2.1190	44.4820
 2.1180	44.3961
 2.1170	44.3647
 2.1160	44.3465
 2.1150	44.2908
 2.1140	44.2351
 2.1130	44.2176
 2.1120	44.1438
 2.1110	44.0475
 2.1100	43.9743
 2.1090	43.9101
 2.1080	43.8086
 2.1070	43.7667
 2.1060	43.6911
 2.1050	43.5982
 2.1040	43.5172
 2.1030	43.4302
 2.1020	43.3303
 2.1010	43.2739
 2.1000	43.2251
 2.0990	43.1437
 2.0980	43.0673
 2.0970	43.0440
 2.0960	42.9357
 2.0950	42.8777
 2.0940	42.8160
 2.0930	42.7719
 2.0920	42.7126
 2.0910	42.6351
 2.0900	42.5677
 2.0890	42.4769
 2.0880	42.3726
 2.0870	42.3112
 2.0860	42.2493
 2.0850	42.1482
 2.0840	42.0433
 2.0830	41.9774
 2.0820	41.8784
 2.0810	41.7818
 2.0800	41.7137
 2.0790	41.6146
 2.0780	41.4975
 2.0770	41.4107
 2.0760	41.3323
 2.0750	41.2305
 2.0740	41.1230
 2.0730	41.0320
 2.0720	40.9178
 2.0710	40.8155
 2.0700	40.6753
 2.0690	40.5355
 2.0680	40.4374
 2.0670	40.3074
 2.0660	40.1909
 2.0650	40.0230
 2.0640	39.7689
 2.0630	39.5650
 2.0620	39.3741
 2.0610	39.1756
 2.0600	38.9293
 2.0590	38.6481
 2.0580	38.4217
 2.0570	38.1642
 2.0560	37.9373
 2.0550	37.7334
 2.0540	37.5556
 2.0530	37.3165
 2.0520	37.1818
 2.0510	37.0842
 2.0500	37.0325
 2.0490	36.9645
 2.0480	36.9297
 2.0470	36.9781
 2.0460	37.0048
 2.0450	37.0025
 2.0440	37.0493
 2.0430	37.0996
 2.0420	37.1607
 2.0410	37.1110
 2.0400	37.0770
 2.0390	37.0322
 2.0380	37.0563
 2.0370	37.0268
 2.0360	36.9581
 2.0350	36.9049
 2.0340	36.8993
 2.0330	36.8569
 2.0320	36.9172
 2.0310	36.8326
 2.0300	36.7460
 2.0290	36.7262
 2.0280	36.7288
 2.0270	36.6628
 2.0260	36.7499
 2.0250	36.7142
 2.0240	36.6735
 2.0230	36.5886
 2.0220	36.5374
 2.0210	36.4407
 2.0200	36.3290
 2.0190	36.2493
 2.0180	36.1442
 2.0170	36.0429
 2.0160	35.9586
 2.0150	35.7896
 2.0140	35.6903
 2.0130	35.5471
 2.0120	35.4449
 2.0110	35.3556
 2.0100	35.3025
 2.0090	35.1698
 2.0080	35.1188
 2.0070	35.0891
 2.0060	35.0123
 2.0050	34.9260
 2.0040	34.8901
 2.0030	34.8048
 2.0020	34.7225
 2.0010	34.6629
 2.0000	34.6506
 1.9990	34.5373
 1.9980	34.5157
 1.9970	34.3556
 1.9960	34.3287
 1.9950	34.2465
 1.9940	34.2688
 1.9930	34.1485
 1.9920	34.1586
 1.9910	34.0618
 1.9900	34.1140
 1.9890	33.9812
 1.9880	33.9806
 1.9870	33.9565
 1.9860	34.0195
 1.9850	33.9770
 1.9840	33.9652
 1.9830	33.9567
 1.9820	33.9608
 1.9810	33.9050
 1.9800	33.9511
 1.9790	33.9461
 1.9780	33.9605
 1.9770	33.9395
 1.9760	34.0177
 1.9750	33.9380
 1.9740	33.9318
 1.9730	34.0209
 1.9720	34.0692
 1.9710	34.0536
 1.9700	34.2438
 1.9690	34.2357
 1.9680	34.3036
 1.9670	34.3270
 1.9660	34.4775
 1.9650	34.5463
 1.9640	34.8078
 1.9630	34.8249
 1.9620	35.0220
 1.9610	35.0624
 1.9600	35.3558
 1.9590	35.5095
 1.9580	35.8159
 1.9570	35.9729
 1.9560	36.2481
 1.9550	36.3787
 1.9540	36.7752
 1.9530	37.0119
 1.9520	37.2146
 1.9510	37.5611
 1.9500	37.8097
 1.9490	38.0873
 1.9480	38.4109
 1.9470	38.6647
 1.9460	38.9641
 1.9450	39.3006
 1.9440	39.6707
 1.9430	39.8807
 1.9420	40.2489
 1.9410	40.5297
 1.9400	40.9664
 1.9390	41.2332
 1.9380	41.6415
 1.9370	41.8647
 1.9360	42.2698
 1.9350	42.5631
 1.9340	42.9406
 1.9330	43.1442
 1.9320	43.6363
 1.9310	43.8522
 1.9300	44.2293
 1.9290	44.5222
 1.9280	44.8429
 1.9270	45.1975
 1.9260	45.4684
 1.9250	45.8481
 1.9240	46.0859
 1.9230	46.3721
 1.9220	46.7441
 1.9210	46.9824
 1.9200	47.4594
 1.9190	47.5940
 1.9180	47.9925
 1.9170	48.1718
 1.9160	48.6528
 1.9150	48.8592
 1.9140	49.1083
 1.9130	49.4694
 1.9120	49.7590
 1.9110	50.0205
 1.9100	50.3495
 1.9090	50.7082
 1.9080	50.9813
 1.9070	51.2289
 1.9060	51.6199
 1.9050	51.8423
 1.9040	52.2115
 1.9030	52.4973
 1.9020	52.9020
 1.9010	53.1974
 1.9000	53.5944
 1.8990	53.8661
 1.8980	54.2248
 1.8970	54.6033
 1.8960	54.9549
 1.8950	55.2755
 1.8940	55.6470
 1.8930	55.9420
 1.8920	56.1868
 1.8910	56.4815
 1.8900	56.7822
 1.8890	57.0209
 1.8880	57.2955
 1.8870	57.6293
 1.8860	57.8591
 1.8850	58.0549
 1.8840	58.4033
 1.8830	58.4810
 1.8820	58.7147
 1.8810	58.8891
 1.8800	59.1336
 1.8790	59.2571
 1.8780	59.4384
 1.8770	59.5529
 1.8760	59.7513
 1.8750	59.8763
 1.8740	60.0167
 1.8730	60.1297
 1.8720	60.2561
 1.8710	60.4257
 1.8700	60.5567
 1.8690	60.6151
 1.8680	60.7304
 1.8670	60.7835
 1.8660	60.8849
 1.8650	60.9808
 1.8640	61.0381
 1.8630	61.1512
 1.8620	61.1969
 1.8610	61.2308
 1.8600	61.3221
 1.8590	61.3340
 1.8580	61.3752
 1.8570	61.4098
 1.8560	61.4943
 1.8550	61.4704
 1.8540	61.5411
 1.8530	61.5248
 1.8520	61.6133
 1.8510	61.5808
 1.8500	61.6629
 1.8490	61.6123
 1.8480	61.5746
 1.8470	61.6056
 1.8460	61.6222
 1.8450	61.5855
 1.8440	61.6672
 1.8430	61.6684
 1.8420	61.6982
 1.8410	61.6225
 1.8400	61.5954
 1.8390	61.5514
 1.8380	61.5896
 1.8370	61.5936
 1.8360	61.6051
 1.8350	61.5471
 1.8340	61.5508
 1.8330	61.5339
 1.8320	61.4667
 1.8310	61.4104
 1.8300	61.3954
 1.8290	61.3813
 1.8280	61.3973
 1.8270	61.3416
 1.8260	61.2933
 1.8250	61.2367
 1.8240	61.2579
 1.8230	61.2086
 1.8220	61.1176
 1.8210	61.0733
 1.8200	61.0502
 1.8190	61.0440
 1.8180	60.9924
 1.8170	60.9542
 1.8160	60.9793
 1.8150	60.9517
 1.8140	60.9297
 1.8130	60.8327
 1.8120	60.7675
 1.8110	60.7476
 1.8100	60.7435
 1.8090	60.7148
 1.8080	60.7078
 1.8070	60.5961
 1.8060	60.5259
 1.8050	60.4491
 1.8040	60.4204
 1.8030	60.3887
 1.8020	60.3744
 1.8010	60.3452
 1.8000	60.2913
 1.7990	60.2531
 1.7980	60.2170
 1.7970	60.1619
 1.7960	60.1305
 1.7950	60.0957
 1.7940	60.1045
 1.7930	60.1185
 1.7920	60.0890
 1.7910	60.0914
 1.7900	60.0812
 1.7890	60.0472
 1.7880	60.0498
 1.7870	60.0177
 1.7860	60.0144
 1.7850	60.0499
 1.7840	60.1139
 1.7830	60.1277
 1.7820	60.1266
 1.7810	60.1925
 1.7800	60.2417
 1.7790	60.2483
 1.7780	60.3205
 1.7770	60.3837
 1.7760	60.4128
 1.7750	60.4908
 1.7740	60.5392
 1.7730	60.6098
 1.7720	60.6420
 1.7710	60.6810
 1.7700	60.7304
 1.7690	60.7913
 1.7680	60.8675
 1.7670	60.9333
 1.7660	61.0033
 1.7650	61.0101
 1.7640	61.0359
 1.7630	61.1380
 1.7620	61.1897
 1.7610	61.2241
 1.7600	61.2578
 1.7590	61.3118
 1.7580	61.3458
 1.7570	61.3839
 1.7560	61.4735
 1.7550	61.5780
 1.7540	61.6019
 1.7530	61.6619
 1.7520	61.7127
 1.7510	61.6892
 1.7500	61.7112
 1.7490	61.7578
 1.7480	61.7695
 1.7470	61.8353
 1.7460	61.8744
 1.7450	61.9006
 1.7440	61.9236
 1.7430	61.9686
 1.7420	62.0536
 1.7410	62.0654
 1.7400	62.0921
 1.7390	62.1235
 1.7380	62.1834
 1.7370	62.2376
 1.7360	62.2434
 1.7350	62.3237
 1.7340	62.3288
 1.7330	62.3488
 1.7320	62.3829
 1.7310	62.4491
 1.7300	62.5186
 1.7290	62.5941
 1.7280	62.5845
 1.7270	62.6624
 1.7260	62.6271
 1.7250	62.7612
 1.7240	62.7286
 1.7230	62.8046
 1.7220	62.7977
 1.7210	62.8032
 1.7200	62.8830
 1.7190	62.9772
 1.7180	62.9586
 1.7170	62.9927
 1.7160	63.0623
 1.7150	63.1488
 1.7140	63.1257
 1.7130	63.1093
 1.7120	63.1962
 1.7110	63.2435
 1.7100	63.2460
 1.7090	63.3621
 1.7080	63.3311
 1.7070	63.3762
 1.7060	63.3766
 1.7050	63.4123
 1.7040	63.3548
 1.7030	63.4633
 1.7020	63.4666
 1.7010	63.4954
 1.7000	63.4858
 1.6990	63.4978
 1.6980	63.5097
 1.6970	63.5823
 1.6960	63.5720
 1.6950	63.5774
 1.6940	63.6266
 1.6930	63.6209
 1.6920	63.6537
 1.6910	63.7013
 1.6900	63.7253
 1.6890	63.7289
 1.6880	63.6740
 1.6870	63.7529
 1.6860	63.7257
 1.6850	63.7667
 1.6840	63.7835
 1.6830	63.8052
 1.6820	63.7887
 1.6810	63.8115
 1.6800	63.8223
 1.6790	63.8858
 1.6780	63.8438
 1.6770	63.7890
 1.6760	63.7636
 1.6750	63.8016
 1.6740	63.7685
 1.6730	63.8919
 1.6720	63.8328
 1.6710	63.8440
 1.6700	63.8355
 1.6690	63.8409
 1.6680	63.7009
 1.6670	63.8323
 1.6660	63.7706
 1.6650	63.7821
 1.6640	63.6794
 1.6630	63.8389
 1.6620	63.6801
 1.6610	63.7355
 1.6600	63.7061
 1.6590	63.6947
 1.6580	63.5905
 1.6570	63.6381
 1.6560	63.5399
 1.6550	63.5659
 1.6540	63.5315
 1.6530	63.4788
 1.6520	63.4750
 1.6510	63.4613
 1.6500	63.3358
 1.6490	63.4452
 1.6480	63.3543
 1.6470	63.3557
 1.6460	63.2519
 1.6450	63.2417
 1.6440	63.2092
 1.6430	63.1741
 1.6420	63.1063
 1.6410	62.9581
 1.6400	62.9596
 1.6390	62.9753
 1.6380	62.9136
 1.6370	62.8842
 1.6360	62.8005
 1.6350	62.8232
 1.6340	62.6727
 1.6330	62.6306
 1.6320	62.5350
 1.6310	62.5232
 1.6300	62.4963
 1.6290	62.4412
 1.6280	62.3919
 1.6270	62.3138
 1.6260	62.3166
 1.6250	62.1870
 1.6240	62.1207
 1.6230	62.1190
 1.6220	62.0823
 1.6210	62.0291
 1.6200	61.9134
 1.6190	61.8661
 1.6180	61.8194
 1.6170	61.7740
 1.6160	61.6769
 1.6150	61.7059
 1.6140	61.5818
 1.6130	61.6072
 1.6120	61.5180
 1.6110	61.5335
 1.6100	61.3625
 1.6090	61.4344
 1.6080	61.3011
 1.6070	61.2891
 1.6060	61.2162
 1.6050	61.1849
 1.6040	61.0971
 1.6030	61.1139
 1.6020	61.0056
 1.6010	61.0275
 1.6000	60.9544
 1.5990	60.9267
 1.5980	60.8643
 1.5970	60.8391
 1.5960	60.8064
 1.5950	60.7236
 1.5940	60.6858
 1.5930	60.6648
 1.5920	60.5955
 1.5910	60.5767
 1.5900	60.4952
 1.5890	60.5152
 1.5880	60.4380
 1.5870	60.3781
 1.5860	60.3579
 1.5850	60.3273
 1.5840	60.2559
 1.5830	60.2301
 1.5820	60.1705
 1.5810	60.1872
 1.5800	60.1053
 1.5790	60.0923
 1.5780	60.0863
 1.5770	60.0815
 1.5760	60.0483
 1.5750	60.0664
 1.5740	59.9308
 1.5730	59.9436
 1.5720	59.9504
 1.5710	59.9791
 1.5700	59.9501
 1.5690	59.9791
 1.5680	59.9432
 1.5670	59.9635
 1.5660	59.9411
 1.5650	59.9463
 1.5640	59.9009
 1.5630	59.9168
 1.5620	59.9355
 1.5610	59.9367
 1.5600	59.9063
 1.5590	59.8567
 1.5580	59.8628
 1.5570	59.8806
 1.5560	59.9098
 1.5550	59.8852
 1.5540	59.8028
 1.5530	59.8466
 1.5520	59.8372
 1.5510	59.8348
 1.5500	59.8401
 1.5490	59.8482
 1.5480	59.8737
 1.5470	59.9014
 1.5460	59.8883
 1.5450	59.8982
 1.5440	59.8913
 1.5430	59.9104
 1.5420	59.9068
 1.5410	60.0052
 1.5400	60.0007
 1.5390	60.1022
 1.5380	60.1061
 1.5370	60.0031
 1.5360	60.0046
 1.5350	60.0698
 1.5340	60.0235
 1.5330	60.0292
 1.5320	59.9920
 1.5310	59.9902
 1.5300	59.9732
 1.5290	59.9476
 1.5280	59.8539
 1.5270	59.8343
 1.5260	59.8036
 1.5250	59.6925
 1.5240	59.6318
 1.5230	59.5765
 1.5220	59.5531
 1.5210	59.4773
 1.5200	59.3868
 1.5190	59.3116
 1.5180	59.2082
 1.5170	59.1408
 1.5160	59.0676
 1.5150	59.0346
 1.5140	58.9774
 1.5130	58.8570
 1.5120	58.7295
 1.5110	58.6903
 1.5100	58.6789
 1.5090	58.6505
 1.5080	58.5826
 1.5070	58.5210
 1.5060	58.4614
 1.5050	58.4362
 1.5040	58.3994
 1.5030	58.3135
 1.5020	58.2872
 1.5010	58.2761
 1.5000	58.2737
 1.4990	58.2209
 1.4980	58.1839
 1.4970	58.2125
 1.4960	58.2612
 1.4950	58.2782
 1.4940	58.3068
 1.4930	58.3401
 1.4920	58.3589
 1.4910	58.4061
 1.4900	58.4579
 1.4890	58.5075
 1.4880	58.6029
 1.4870	58.6899
 1.4860	58.7377
 1.4850	58.7789
 1.4840	58.8581
 1.4830	58.9106
 1.4820	58.9945
 1.4810	59.0959
 1.4800	59.2103
 1.4790	59.3065
 1.4780	59.4087
 1.4770	59.5563
 1.4760	59.7112
 1.4750	59.8236
 1.4740	60.0508
 1.4730	60.2688
 1.4720	60.4724
 1.4710	60.6221
 1.4700	60.7890
 1.4690	60.9158
 1.4680	61.0243
 1.4670	61.1268
 1.4660	61.2280
 1.4650	61.2956
 1.4640	61.4106
 1.4630	61.4206
 1.4620	61.5103
 1.4610	61.5151
 1.4600	61.5483
 1.4590	61.4855
 1.4580	61.4682
 1.4570	61.3591
 1.4560	61.2619
 1.4550	61.0382
 1.4540	60.7674
 1.4530	60.4664
 1.4520	59.9540
 1.4510	59.2856
 1.4500	58.5613
 1.4490	57.7391
 1.4480	56.9613
 1.4470	56.2472
 1.4460	55.6488
 1.4450	55.1084
 1.4440	54.7478
 1.4430	54.5066
 1.4420	54.4816
 1.4410	54.5871
 1.4400	54.7920
 1.4390	55.0765
 1.4380	55.5823
 1.4370	56.2089
 1.4360	56.9645
 1.4350	57.7634
 1.4340	58.5992
 1.4330	59.5614
 1.4320	60.5859
 1.4310	61.5766
 1.4300	62.5814
 1.4290	63.5561
 1.4280	64.5384
 1.4270	65.5010
 1.4260	66.3998
 1.4250	67.2815
 1.4240	68.2705
 1.4230	69.0679
 1.4220	69.8279
 1.4210	70.5072
 1.4200	71.2907
 1.4190	71.9409
 1.4180	72.6909
 1.4170	73.3200
 1.4160	73.8003
 1.4150	74.2885
 1.4140	74.7503
 1.4130	75.0631
 1.4120	75.3802
 1.4110	75.5106
 1.4100	75.7932
 1.4090	75.9756
 1.4080	76.3856
 1.4070	76.7535
 1.4060	77.2561
 1.4050	77.6477
 1.4040	78.1046
 1.4030	78.4661
 1.4020	78.6954
 1.4010	78.9446
 1.4000	79.1978
 1.3990	79.3944
 1.3980	79.5989
 1.3970	79.8142
 1.3960	80.0821
 1.3950	80.2244
 1.3940	80.3662
 1.3930	80.4421
 1.3920	80.6395
 1.3910	80.6855
 1.3900	80.7790
 1.3890	80.8851
 1.3880	80.9795
 1.3870	81.1143
 1.3860	81.1235
 1.3850	81.2043
 1.3840	81.3261
 1.3830	81.2726
 1.3820	81.3153
 1.3810	81.3962
 1.3800	81.4017
 1.3790	81.5679
 1.3780	81.6292
 1.3770	81.6670
 1.3760	81.7079
 1.3750	81.7028
 1.3740	81.8611
 1.3730	81.8375
 1.3720	81.8728
 1.3710	81.8052
 1.3700	82.0493
 1.3690	82.1194
 1.3680	82.1251
 1.3670	82.1989
 1.3660	82.2171
 1.3650	82.3111
 1.3640	82.2990
 1.3630	82.2558
 1.3620	82.3472
 1.3610	82.3713
 1.3600	82.4125
 1.3590	82.4591
 1.3580	82.5172
 1.3570	82.5585
 1.3560	82.6880
 1.3550	82.6423
 1.3540	82.7723
 1.3530	82.6560
 1.3520	82.7492
 1.3510	82.6961
 1.3500	82.9253
 1.3490	82.8953
 1.3480	82.9161
 1.3470	82.9763
 1.3460	82.9791
 1.3450	83.0793
 1.3440	83.0464
 1.3430	83.0425
 1.3420	83.1946
 1.3410	83.1453
 1.3400	83.2017
 1.3390	83.1913
 1.3380	83.3087
 1.3370	83.2341
 1.3360	83.2942
 1.3350	83.2872
 1.3340	83.2540
 1.3330	83.1884
 1.3320	83.2363
 1.3310	83.2290
 1.3300	83.2588
 1.3290	83.2482
 1.3280	83.2792
 1.3270	83.1796
 1.3260	83.1744
 1.3250	83.1937
 1.3240	83.0551
 1.3230	83.0093
 1.3220	82.9681
 1.3210	82.9468
 1.3200	83.0109
 1.3190	82.9827
 1.3180	82.9806
 1.3170	82.9863
 1.3160	83.0949
 1.3150	83.1185
 1.3140	83.1038
 1.3130	83.3278
 1.3120	83.2692
 1.3110	83.3640
 1.3100	83.4291
 1.3090	83.5202
 1.3080	83.5364
 1.3070	83.6171
 1.3060	83.8081
 1.3050	83.7990
 1.3040	83.7671
 1.3030	83.8446
 1.3020	83.9038
 1.3010	83.8520
 1.3000	83.9553
 1.2990	83.9420
 1.2980	83.9592
 1.2970	84.1195
 1.2960	84.0205
 1.2950	84.0276
 1.2940	84.0295
 1.2930	84.0963
 1.2920	84.1151
 1.2910	84.0969
 1.2900	84.0928
 1.2890	84.1134
 1.2880	84.0887
 1.2870	84.0465
 1.2860	84.0911
 1.2850	84.1038
 1.2840	84.1437
 1.2830	84.0466
 1.2820	84.0782
 1.2810	84.0602
 1.2800	84.0124
 1.2790	83.9999
 1.2780	83.9716
 1.2770	83.9081
 1.2760	83.8336
 1.2750	83.8157
 1.2740	83.7555
 1.2730	83.6841
 1.2720	83.6112
 1.2710	83.5206
 1.2700	83.4278
 1.2690	83.3230
 1.2680	83.2731
 1.2670	83.1773
 1.2660	83.1168
 1.2650	83.0165
 1.2640	82.9212
 1.2630	82.8347
 1.2620	82.7727
 1.2610	82.7550
 1.2600	82.7912
 1.2590	82.7647
 1.2580	82.8312
 1.2570	82.8799
 1.2560	82.9243
 1.2550	83.0494
 1.2540	83.1133
 1.2530	83.1444
 1.2520	83.2344
 1.2510	83.2682
 1.2500	83.3114
 1.2490	83.3780
 1.2480	83.4328
 1.2470	83.4918
 1.2460	83.5684
 1.2450	83.5893
 1.2440	83.5989
 1.2430	83.6886
 1.2420	83.7754
 1.2410	83.8298
 1.2400	83.9065
 1.2390	83.9466
 1.2380	84.0218
 1.2370	83.9881
 1.2360	84.0022
 1.2350	84.1401
 1.2340	84.2071
 1.2330	84.2228
 1.2320	84.2340
 1.2310	84.2554
 1.2300	84.2936
 1.2290	84.3598
 1.2280	84.4089
 1.2270	84.4577
 1.2260	84.4728
 1.2250	84.4888
 1.2240	84.5097
 1.2230	84.5446
 1.2220	84.6043
 1.2210	84.5920
 1.2200	84.6090
 1.2190	84.6476
 1.2180	84.6318
 1.2170	84.6449
 1.2160	84.7269
 1.2150	84.7726
 1.2140	84.7451
 1.2130	84.7399
 1.2120	84.7938
 1.2110	84.8241
 1.2100	84.8092
 1.2090	84.8734
 1.2080	84.9451
 1.2070	84.9626
 1.2060	84.9934
 1.2050	85.0356
 1.2040	85.0355
 1.2030	85.0914
 1.2020	85.1494
 1.2010	85.1912
 1.2000	85.2049
 1.1990	85.3041
 1.1980	85.3468
 1.1970	85.4206
 1.1960	85.5067
 1.1950	85.5689
 1.1940	85.6387
 1.1930	85.7282
 1.1920	85.8433
 1.1910	85.9246
 1.1900	85.9254
 1.1890	85.9383
 1.1880	85.9770
 1.1870	86.0891
 1.1860	86.1683
 1.1850	86.2302
 1.1840	86.2739
 1.1830	86.4268
 1.1820	86.4624
 1.1810	86.5113
 1.1800	86.5391
 1.1790	86.5994
 1.1780	86.6637
 1.1770	86.7761
 1.1760	86.8182
 1.1750	86.8558
 1.1740	86.8832
 1.1730	86.9696
 1.1720	87.0348
 1.1710	87.0386
 1.1700	87.1377
 1.1690	87.2403
 1.1680	87.2968
 1.1670	87.2526
 1.1660	87.3104
 1.1650	87.3426
 1.1640	87.4135
 1.1630	87.4331
 1.1620	87.4335
 1.1610	87.4794
 1.1600	87.5012
 1.1590	87.6064
 1.1580	87.6218
 1.1570	87.6689
 1.1560	87.6953
 1.1550	87.7612
 1.1540	87.7761
 1.1530	87.8066
 1.1520	87.8319
 1.1510	87.7806
 1.1500	87.8651
 1.1490	87.9058
 1.1480	87.8783
 1.1470	87.8713
 1.1460	87.9392
 1.1450	87.9604
 1.1440	87.8888
 1.1430	88.0089
 1.1420	88.0080
 1.1410	87.9680
 1.1400	88.0632
 1.1390	88.1476
 1.1380	88.0725
 1.1370	88.0952
 1.1360	88.0623
 1.1350	88.1342
 1.1340	88.1416
 1.1330	88.1655
 1.1320	88.1776
 1.1310	88.1428
 1.1300	88.1193
 1.1290	88.1643
 1.1280	88.2256
 1.1270	88.1346
 1.1260	88.1816
 1.1250	88.2299
 1.1240	88.2030
 1.1230	88.1731
 1.1220	88.1553
 1.1210	88.2049
 1.1200	88.2432
 1.1190	88.1999
 1.1180	88.2343
 1.1170	88.2122
 1.1160	88.2389
 1.1150	88.2843
 1.1140	88.1721
 1.1130	88.2607
 1.1120	88.1924
 1.1110	88.2619
 1.1100	88.2452
 1.1090	88.2791
 1.1080	88.2374
 1.1070	88.3246
 1.1060	88.2914
 1.1050	88.2887
 1.1040	88.3098
 1.1030	88.3314
 1.1020	88.3134
 1.1010	88.3871
 1.1000	88.3548
 1.0990	88.3992
 1.0980	88.3186
 1.0970	88.4328
 1.0960	88.4237
 1.0950	88.4940
 1.0940	88.3864
 1.0930	88.3825
 1.0920	88.3693
 1.0910	88.3523
 1.0900	88.4461
 1.0890	88.3986
 1.0880	88.3572
 1.0870	88.4400
 1.0860	88.3940
 1.0850	88.4349
 1.0840	88.3889
 1.0830	88.4200
 1.0820	88.3946
 1.0810	88.4556
 1.0800	88.4482
 1.0790	88.3982
 1.0780	88.5226
 1.0770	88.3814
 1.0760	88.4329
 1.0750	88.5235
 1.0740	88.4261
 1.0730	88.4859
 1.0720	88.4952
 1.0710	88.4204
 1.0700	88.5034
 1.0690	88.4878
 1.0680	88.4324
 1.0670	88.4897
 1.0660	88.4016
 1.0650	88.5262
 1.0640	88.5255
 1.0630	88.4439
 1.0620	88.4088
 1.0610	88.4576
 1.0600	88.4832
 1.0590	88.3834
 1.0580	88.3522
 1.0570	88.4350
 1.0560	88.4052
 1.0550	88.4473
 1.0540	88.4061
 1.0530	88.4709
 1.0520	88.4732
 1.0510	88.4161
 1.0500	88.4124
 1.0490	88.4548
 1.0480	88.3045
 1.0470	88.3719
 1.0460	88.3927
 1.0450	88.3031
 1.0440	88.2553
 1.0430	88.2897
 1.0420	88.2837
 1.0410	88.2696
 1.0400	88.2408
 1.0390	88.2755
 1.0380	88.2943
 1.0370	88.2280
 1.0360	88.1505
 1.0350	88.2206
 1.0340	88.2207
 1.0330	88.1231
 1.0320	88.1999
 1.0310	88.1689
 1.0300	88.1754
 1.0290	88.1385
 1.0280	88.0748
 1.0270	88.1135
 1.0260	88.1533
 1.0250	88.1515
 1.0240	88.1225
 1.0230	88.0566
 1.0220	88.1138
 1.0210	88.0677
 1.0200	88.1288
 1.0190	88.0922
 1.0180	88.0731
 1.0170	88.0551
 1.0160	88.0099
 1.0150	87.9858
 1.0140	88.0303
 1.0130	88.0022
 1.0120	87.9306
 1.0110	87.8986
 1.0100	87.8696
 1.0090	87.8645
 1.0080	87.8674
 1.0070	87.8597
 1.0060	87.7877
 1.0050	87.7072
 1.0040	87.6942
 1.0030	87.6820
 1.0020	87.6538
 1.0010	87.6087
 1.0000	87.4965
 0.9990	87.3360
 0.9980	87.2356
 0.9970	87.1933
 0.9960	87.0677
 0.9950	86.9487
 0.9940	86.7695
 0.9930	86.6407
 0.9920	86.4830
 0.9910	86.3055
 0.9900	86.2008
 0.9890	86.1211
 0.9880	86.0327
 0.9870	86.0115
 0.9860	86.0367
 0.9850	86.0917
 0.9840	86.1945
 0.9830	86.4054
 0.9820	86.5458
 0.9810	86.7164
 0.9800	86.9070
 0.9790	87.1932
 0.9780	87.3471
 0.9770	87.5041
 0.9760	87.6648
 0.9750	87.7995
 0.9740	87.9613
 0.9730	88.1377
 0.9720	88.2099
 0.9710	88.2819
 0.9700	88.3787
 0.9690	88.4818
 0.9680	88.5739
 0.9670	88.6195
 0.9660	88.7051
 0.9650	88.7431
 0.9640	88.7787
 0.9630	88.8941
 0.9620	88.8710
 0.9610	88.9212
 0.9600	88.9022
 0.9590	88.9751
 0.9580	88.9846
 0.9570	88.9534
 0.9560	89.0434
 0.9550	89.0473
 0.9540	89.0469
 0.9530	89.0718
 0.9520	89.0765
 0.9510	89.1008
 0.9500	89.1321
 0.9490	89.1308
 0.9480	89.1130
 0.9470	89.0839
 0.9460	89.1258
 0.9450	89.1403
 0.9440	89.1409
 0.9430	89.1475
 0.9420	89.1060
 0.9410	89.1120
 0.9400	89.1281
 0.9390	89.1341
 0.9380	89.1814
 0.9370	89.1918
 0.9360	89.1637
 0.9350	89.1963
 0.9340	89.2035
 0.9330	89.1695
 0.9320	89.2229
 0.9310	89.2144
 0.9300	89.1739
 0.9290	89.1805
 0.9280	89.1632
 0.9270	89.1991
 0.9260	89.2207
 0.9250	89.2082
 0.9240	89.1773
 0.9230	89.1950
 0.9220	89.2540
 0.9210	89.1965
 0.9200	89.1857
 0.9190	89.2035
 0.9180	89.1869
 0.9170	89.2394
 0.9160	89.2198
 0.9150	89.1818
 0.9140	89.2377
 0.9130	89.2583
 0.9120	89.2483
 0.9110	89.2438
 0.9100	89.2100
 0.9090	89.2385
 0.9080	89.2466
 0.9070	89.2361
 0.9060	89.2821
 0.9050	89.2850
 0.9040	89.2717
 0.9030	89.2412
 0.9020	89.2117
 0.9010	89.2103
 0.9000	89.2512
 0.8990	89.2867
 0.8980	89.2788
 0.8970	89.2590
 0.8960	89.2188
 0.8950	89.2555
 0.8940	89.2835
 0.8930	89.3116
 0.8920	89.3105
 0.8910	89.3239
 0.8900	89.3433
 0.8890	89.3706
 0.8880	89.3686
 0.8870	89.3509
 0.8860	89.4119
 0.8850	89.3811
 0.8840	89.3386
 0.8830	89.3353
 0.8820	89.3511
 0.8810	89.4127
 0.8800	89.4153
 0.8790	89.4465
 0.8780	89.4689
 0.8770	89.4793
 0.8760	89.4743
 0.8750	89.4327
 0.8740	89.4055
 0.8730	89.4283
 0.8720	89.4881
 0.8710	89.5097
 0.8700	89.4902
 0.8690	89.4784
 0.8680	89.5076
 0.8670	89.4919
 0.8660	89.5225
 0.8650	89.5664
 0.8640	89.5518
 0.8630	89.5392
 0.8620	89.6038
 0.8610	89.5781
 0.8600	89.5167
 0.8590	89.6425
 0.8580	89.6655
 0.8570	89.5672
 0.8560	89.6315
 0.8550	89.7065
 0.8540	89.5266
 0.8530	89.6506
 0.8520	89.6836
 0.8510	89.6411
 0.8500	89.6583
 0.8490	89.8350
 0.8480	89.7668
 0.8470	89.6757
 0.8460	89.7027
 0.8450	89.6808
 0.8440	89.6131
 0.8430	89.7011
 0.8420	89.7832
 0.8410	89.6673
 0.8400	89.7143
 0.8390	89.7561
 0.8380	89.7113
 0.8370	89.6624
 0.8360	89.7710
 0.8350	89.7168
 0.8340	89.7122
 0.8330	89.7874
 0.8320	89.7803
 0.8310	89.7542
 0.8300	89.7674
 0.8290	89.7910
 0.8280	89.7544
 0.8270	89.7814
 0.8260	89.7969
 0.8250	89.7786
 0.8240	89.7323
 0.8230	89.6993
 0.8220	89.7183
 0.8210	89.7487
 0.8200	89.7920
 0.8190	89.7694
 0.8180	89.7203
 0.8170	89.7881
 0.8160	89.7012
 0.8150	89.7112
 0.8140	89.7705
 0.8130	89.7273
 0.8120	89.7529
 0.8110	89.7542
 0.8100	89.7465
 0.8090	89.7496
 0.8080	89.7775
 0.8070	89.7432
 0.8060	89.7124
 0.8050	89.7478
 0.8040	89.8052
 0.8030	89.7230
 0.8020	89.7478
 0.8010	89.7360
 0.8000	89.6871
 0.7990	89.7024
 0.7980	89.7461
 0.7970	89.7244
 0.7960	89.6716
 0.7950	89.6582
 0.7940	89.5950
 0.7930	89.5890
 0.7920	89.6518
 0.7910	89.6246
 0.7900	89.5590
 0.7890	89.6434
 0.7880	89.5961
 0.7870	89.5586
 0.7860	89.6598
 0.7850	89.5868
 0.7840	89.5635
 0.7830	89.6385
 0.7820	89.5561
 0.7810	89.5974
 0.7800	89.5622
 0.7790	89.5733
 0.7780	89.5135
 0.7770	89.5530
 0.7760	89.5413
 0.7750	89.5561
 0.7740	89.5208
 0.7730	89.5348
 0.7720	89.4749
 0.7710	89.4883
 0.7700	89.4931
 0.7690	89.4094
 0.7680	89.4057
 0.7670	89.4188
 0.7660	89.3576
 0.7650	89.3943
 0.7640	89.4040
 0.7630	89.3655
 0.7620	89.3635
 0.7610	89.3613
 0.7600	89.3481
 0.7590	89.3359
 0.7580	89.3342
 0.7570	89.3437
 0.7560	89.3333
 0.7550	89.3513
 0.7540	89.3519
 0.7530	89.3684
 0.7520	89.3733
 0.7510	89.3809
 0.7500	89.4002
 0.7490	89.4247
 0.7480	89.4587
 0.7470	89.4382
 0.7460	89.4052
 0.7450	89.4670
 0.7440	89.4707
 0.7430	89.4736
 0.7420	89.4528
 0.7410	89.4744
 0.7400	89.4257
 0.7390	89.4267
 0.7380	89.4422
 0.7370	89.4136
 0.7360	89.4289
 0.7350	89.4548
 0.7340	89.4249
 0.7330	89.4166
 0.7320	89.4313
 0.7310	89.4433
 0.7300	89.4466
 0.7290	89.4339
 0.7280	89.4234
 0.7270	89.4221
 0.7260	89.4400
 0.7250	89.4260
 0.7240	89.4142
 0.7230	89.4112
 0.7220	89.4060
 0.7210	89.3962
 0.7200	89.4228
 0.7190	89.4105
 0.7180	89.3984
 0.7170	89.3958
 0.7160	89.4358
 0.7150	89.3981
 0.7140	89.3758
 0.7130	89.4078
 0.7120	89.4025
 0.7110	89.3842
 0.7100	89.3846
 0.7090	89.3895
 0.7080	89.3784
 0.7070	89.3733
 0.7060	89.3723
 0.7050	89.3701
 0.7040	89.4025
 0.7030	89.3852
 0.7020	89.3627
 0.7010	89.3704
 0.7000	89.3989
 0.6990	89.3995
 0.6980	89.3773
 0.6970	89.3760
 0.6960	89.3898
 0.6950	89.3691
 0.6940	89.3689
 0.6930	89.3692
 0.6920	89.3618
 0.6910	89.3782
 0.6900	89.3746
 0.6890	89.3710
 0.6880	89.3505
 0.6870	89.3585
 0.6860	89.3529
 0.6850	89.3345
 0.6840	89.3312
 0.6830	89.3545
 0.6820	89.3708
 0.6810	89.3442
 0.6800	89.3495
 0.6790	89.3460
 0.6780	89.3531
 0.6770	89.3674
 0.6760	89.3599
 0.6750	89.3413
 0.6740	89.3382
 0.6730	89.3289
 0.6720	89.3177
 0.6710	89.3094
 0.6700	89.3051
 0.6690	89.3108
 0.6680	89.3061
 0.6670	89.3023
 0.6660	89.3147
 0.6650	89.3169
 0.6640	89.3189
 0.6630	89.3291
 0.6620	89.3353
 0.6610	89.3271
 0.6600	89.3195
 0.6590	89.3150
 0.6580	89.3094
 0.6570	89.3058
 0.6560	89.3070
 0.6550	89.2973
 0.6540	89.2871
 0.6530	89.2832
 0.6520	89.2791
 0.6510	89.2864
 0.6500	89.3021
 0.6490	89.2883
 0.6480	89.2801
 0.6470	89.2946
 0.6460	89.2686
 0.6450	89.2505
 0.6440	89.2465
 0.6430	89.2400
 0.6420	89.2558
 0.6410	89.2557
 0.6400	89.2501
 0.6390	89.2509
 0.6380	89.2379
 0.6370	89.2453
 0.6360	89.2472
 0.6350	89.2398
 0.6340	89.2233
 0.6330	89.2358
 0.6320	89.2451
 0.6310	89.2311
 0.6300	89.2205
 0.6290	89.2104
 0.6280	89.1971
 0.6270	89.1734
 0.6260	89.1778
 0.6250	89.1779
 0.6240	89.1549
 0.6230	89.1788
 0.6220	89.1844
 0.6210	89.1725
 0.6200	89.1749
 0.6190	89.1710
 0.6180	89.1740
 0.6170	89.1732
 0.6160	89.1552
 0.6150	89.1469
 0.6140	89.1480
 0.6130	89.1412
 0.6120	89.1367
 0.6110	89.1339
 0.6100	89.1296
 0.6090	89.1580
 0.6080	89.1893
 0.6070	89.1896
 0.6060	89.1912
 0.6050	89.1732
 0.6040	89.1703
 0.6030	89.1987
 0.6020	89.1767
 0.6010	89.1708
 0.6000	89.1682
 0.5990	89.1712
 0.5980	89.1918
 0.5970	89.2025
 0.5960	89.2077
 0.5950	89.2201
 0.5940	89.2151
 0.5930	89.2260
 0.5920	89.2213
 0.5910	89.2073
 0.5900	89.1883
 0.5890	89.1761
 0.5880	89.1864
 0.5870	89.1871
 0.5860	89.1674
 0.5850	89.1465
 0.5840	89.1428
 0.5830	89.1437
 0.5820	89.1410
 0.5810	89.1389
 0.5800	89.1067
 0.5790	89.1065
 0.5780	89.1098
 0.5770	89.1031
 0.5760	89.0905
 0.5750	89.1030
 0.5740	89.0883
 0.5730	89.0784
 0.5720	89.0679
 0.5710	89.0578
 0.5700	89.0440
 0.5690	89.0309
 0.5680	89.0174
 0.5670	89.0134
 0.5660	89.0065
 0.5650	88.9817
 0.5640	88.9768
 0.5630	88.9703
 0.5620	88.9581
 0.5610	88.9490
 0.5600	88.9297
 0.5590	88.9293
 0.5580	88.9143
 0.5570	88.9063
 0.5560	88.8999
 0.5550	88.8971
 0.5540	88.8662
 0.5530	88.8702
 0.5520	88.8478
 0.5510	88.8188
 0.5500	88.8189
 0.5490	88.8034
 0.5480	88.8023
 0.5470	88.7730
 0.5460	88.7836
 0.5450	88.7714
 0.5440	88.7279
 0.5430	88.7261
 0.5420	88.7084
 0.5410	88.6763
 0.5400	88.6701
 0.5390	88.6640
 0.5380	88.6392
 0.5370	88.6092
 0.5360	88.6009
 0.5350	88.6023
 0.5340	88.5909
 0.5330	88.5488
 0.5320	88.5506
 0.5310	88.5112
 0.5300	88.4992
 0.5290	88.4952
 0.5280	88.4824
 0.5270	88.4584
 0.5260	88.4513
 0.5250	88.4196
 0.5240	88.3961
 0.5230	88.3856
 0.5220	88.3483
 0.5210	88.3264
 0.5200	88.2797
 0.5190	88.2849
 0.5180	88.2566
 0.5170	88.2288
 0.5160	88.2163
 0.5150	88.1740
 0.5140	88.1591
 0.5130	88.1431
 0.5120	88.1136
 0.5110	88.0717
 0.5100	88.0403
 0.5090	88.0091
 0.5080	88.0077
 0.5070	87.9914
 0.5060	87.9377
 0.5050	87.9285
 0.5040	87.8893
 0.5030	87.8592
 0.5020	87.8288
 0.5010	87.8017
 0.5000	87.7894
 0.4990	87.7535
 0.4980	87.7000
 0.4970	87.7202
 0.4960	87.6641
 0.4950	87.6115
 0.4940	87.5931
 0.4930	87.5597
 0.4920	87.5577
 0.4910	87.5265
 0.4900	87.4963
 0.4890	87.4669
 0.4880	87.4581
 0.4870	87.3834
 0.4860	87.3505
 0.4850	87.3536
 0.4840	87.3045
 0.4830	87.2983
 0.4820	87.2784
 0.4810	87.2066
 0.4800	87.1894
 0.4790	87.1555
 0.4780	87.1665
 0.4770	87.1197
 0.4760	87.0958
 0.4750	87.0765
 0.4740	87.0451
 0.4730	87.0218
 0.4720	87.0021
 0.4710	86.9352
 0.4700	86.9341
 0.4690	86.8921
 0.4680	86.8390
 0.4670	86.8377
 0.4660	86.8218
 0.4650	86.7982
 0.4640	86.7596
 0.4630	86.7487
 0.4620	86.7167
 0.4610	86.6741
 0.4600	86.6618
 0.4590	86.6331
 0.4580	86.5920
 0.4570	86.5430
 0.4560	86.5356
 0.4550	86.4972
 0.4540	86.4749
 0.4530	86.4560
 0.4520	86.4053
 0.4510	86.3679
 0.4500	86.3757
 0.4490	86.3275
 0.4480	86.3193
 0.4470	86.2710
 0.4460	86.2521
 0.4450	86.1783
 0.4440	86.1770
 0.4430	86.1607
 0.4420	86.1395
 0.4410	86.1047
 0.4400	86.0651
 0.4390	86.0295
 0.4380	85.9990
 0.4370	85.9749
 0.4360	85.9217
 0.4350	85.9279
 0.4340	85.8798
 0.4330	85.8407
 0.4320	85.8262
 0.4310	85.8095
 0.4300	85.7638
 0.4290	85.7349
 0.4280	85.7337
 0.4270	85.7074
 0.4260	85.6771
 0.4250	85.6300
 0.4240	85.5980
 0.4230	85.5822
 0.4220	85.5500
 0.4210	85.5122
 0.4200	85.4530
 0.4190	85.4468
 0.4180	85.4470
 0.4170	85.4265
 0.4160	85.3747
 0.4150	85.3525
 0.4140	85.3212
 0.4130	85.2848
 0.4120	85.2765
 0.4110	85.2413
 0.4100	85.2184
 0.4090	85.1718
 0.4080	85.1658
 0.4070	85.1481
 0.4060	85.1244
 0.4050	85.0902
 0.4040	85.0704
 0.4030	85.0285
 0.4020	84.9877
 0.4010	84.9903
 0.4000	84.9452
