Name: Cerussite PbCO_3
Type: Mineral
Class: Carbonate
Subclass: None
Particle Size: Fine
Sample No.: C-10A
Owner: JPL
Wavelength Range: VSWIR
Origin: USA, Arizona, Flux Mine.
Collection Date: N/A
Description: Particle size was 0-45um.Collected by:  JPL Original ASTER Spectral Library name was jpl.perkin.mineral.carbonate.none.fine.c10a.spectrum.txt
Measurement: Hemispherical reflectance
First Column: X
Second Column: Y
X Units: Wavelength (micrometers)
Y Units:Reflectance (percent)
First X Value:  2.5000
Last X Value:  0.4000
Number of X Values: 2101
Additional Information: mineral.carbonate.none.fine.vswir.c-10a.jpl.perkin.ancillary.txt

 2.5000	81.7485
 2.4990	81.6228
 2.4980	81.4733
 2.4970	81.4134
 2.4960	81.1812
 2.4950	81.1052
 2.4940	81.0800
 2.4930	80.9574
 2.4920	80.8427
 2.4910	81.0008
 2.4900	80.6019
 2.4890	80.5643
 2.4880	80.5556
 2.4870	80.3445
 2.4860	80.3723
 2.4850	80.2014
 2.4840	80.2656
 2.4830	80.1443
 2.4820	80.1447
 2.4810	80.0567
 2.4800	79.8676
 2.4790	79.9433
 2.4780	79.9176
 2.4770	79.8396
 2.4760	79.8475
 2.4750	79.8922
 2.4740	79.7497
 2.4730	79.6863
 2.4720	79.6629
 2.4710	79.6334
 2.4700	79.5362
 2.4690	79.4450
 2.4680	79.5239
 2.4670	79.3958
 2.4660	79.5038
 2.4650	79.5262
 2.4640	79.5178
 2.4630	79.4624
 2.4620	79.4705
 2.4610	79.5768
 2.4600	79.5259
 2.4590	79.4384
 2.4580	79.4317
 2.4570	79.4426
 2.4560	79.5030
 2.4550	79.6408
 2.4540	79.5727
 2.4530	79.5974
 2.4520	79.6681
 2.4510	79.7458
 2.4500	79.6953
 2.4490	79.9440
 2.4480	79.9050
 2.4470	80.0375
 2.4460	80.1193
 2.4450	80.2824
 2.4440	80.1883
 2.4430	80.2979
 2.4420	80.2284
 2.4410	80.2014
 2.4400	80.3192
 2.4390	80.4136
 2.4380	80.4263
 2.4370	80.5230
 2.4360	80.5142
 2.4350	80.6058
 2.4340	80.7148
 2.4330	80.6852
 2.4320	80.6983
 2.4310	80.7517
 2.4300	80.7457
 2.4290	80.7030
 2.4280	80.8152
 2.4270	80.8247
 2.4260	80.9548
 2.4250	80.9230
 2.4240	80.9726
 2.4230	80.9969
 2.4220	81.0322
 2.4210	81.0892
 2.4200	81.0968
 2.4190	81.2416
 2.4180	81.2480
 2.4170	81.2958
 2.4160	81.3901
 2.4150	81.5550
 2.4140	81.5650
 2.4130	81.6731
 2.4120	81.8174
 2.4110	81.8783
 2.4100	81.9047
 2.4090	82.0112
 2.4080	82.1621
 2.4070	82.2186
 2.4060	82.2503
 2.4050	82.3266
 2.4040	82.4297
 2.4030	82.5036
 2.4020	82.5661
 2.4010	82.6324
 2.4000	82.6951
 2.3990	82.8155
 2.3980	82.9605
 2.3970	83.0315
 2.3960	83.1040
 2.3950	83.2050
 2.3940	83.3051
 2.3930	83.3081
 2.3920	83.3466
 2.3910	83.5080
 2.3900	83.6900
 2.3890	83.7359
 2.3880	83.7339
 2.3870	83.7662
 2.3860	83.8749
 2.3850	84.0032
 2.3840	84.0744
 2.3830	84.0983
 2.3820	84.2823
 2.3810	84.4028
 2.3800	84.4429
 2.3790	84.4641
 2.3780	84.5246
 2.3770	84.6561
 2.3760	84.8024
 2.3750	84.8470
 2.3740	84.8890
 2.3730	85.0210
 2.3720	85.0786
 2.3710	85.1138
 2.3700	85.2089
 2.3690	85.2815
 2.3680	85.4058
 2.3670	85.4997
 2.3660	85.5348
 2.3650	85.5938
 2.3640	85.7179
 2.3630	85.8245
 2.3620	85.9081
 2.3610	85.9857
 2.3600	86.0677
 2.3590	86.1246
 2.3580	86.1405
 2.3570	86.2166
 2.3560	86.3237
 2.3550	86.3828
 2.3540	86.4506
 2.3530	86.5429
 2.3520	86.5641
 2.3510	86.6187
 2.3500	86.6985
 2.3490	86.7056
 2.3480	86.7846
 2.3470	86.8820
 2.3460	86.9218
 2.3450	87.0464
 2.3440	87.1499
 2.3430	87.1668
 2.3420	87.2598
 2.3410	87.3636
 2.3400	87.3562
 2.3390	87.4200
 2.3380	87.5184
 2.3370	87.4700
 2.3360	87.4827
 2.3350	87.5551
 2.3340	87.6568
 2.3330	87.7634
 2.3320	87.8113
 2.3310	87.8347
 2.3300	87.8199
 2.3290	87.8505
 2.3280	87.9645
 2.3270	88.0123
 2.3260	88.0686
 2.3250	88.1326
 2.3240	88.1595
 2.3230	88.1779
 2.3220	88.2463
 2.3210	88.3135
 2.3200	88.3377
 2.3190	88.3576
 2.3180	88.3644
 2.3170	88.4183
 2.3160	88.5096
 2.3150	88.5451
 2.3140	88.5787
 2.3130	88.6523
 2.3120	88.6997
 2.3110	88.7315
 2.3100	88.7500
 2.3090	88.8191
 2.3080	88.8486
 2.3070	88.8109
 2.3060	88.8562
 2.3050	88.9084
 2.3040	88.9619
 2.3030	88.9490
 2.3020	89.0627
 2.3010	89.0996
 2.3000	89.0789
 2.2990	89.1497
 2.2980	89.1846
 2.2970	89.2086
 2.2960	89.2558
 2.2950	89.2658
 2.2940	89.2492
 2.2930	89.3154
 2.2920	89.4149
 2.2910	89.4351
 2.2900	89.3373
 2.2890	89.3851
 2.2880	89.4199
 2.2870	89.4543
 2.2860	89.4282
 2.2850	89.4992
 2.2840	89.5162
 2.2830	89.5235
 2.2820	89.4773
 2.2810	89.5210
 2.2800	89.5809
 2.2790	89.5843
 2.2780	89.5757
 2.2770	89.6063
 2.2760	89.5919
 2.2750	89.5706
 2.2740	89.6047
 2.2730	89.6382
 2.2720	89.6366
 2.2710	89.6200
 2.2700	89.5730
 2.2690	89.5606
 2.2680	89.6007
 2.2670	89.5911
 2.2660	89.5797
 2.2650	89.6366
 2.2640	89.6504
 2.2630	89.5603
 2.2620	89.5937
 2.2610	89.7207
 2.2600	89.6333
 2.2590	89.5204
 2.2580	89.6324
 2.2570	89.6038
 2.2560	89.5432
 2.2550	89.5635
 2.2540	89.5730
 2.2530	89.5034
 2.2520	89.5474
 2.2510	89.5823
 2.2500	89.6332
 2.2490	89.6582
 2.2480	89.6784
 2.2470	89.6663
 2.2460	89.6813
 2.2450	89.7161
 2.2440	89.7041
 2.2430	89.7988
 2.2420	89.7828
 2.2410	89.7710
 2.2400	89.7644
 2.2390	89.8303
 2.2380	89.7713
 2.2370	89.8489
 2.2360	89.8516
 2.2350	89.9161
 2.2340	89.9429
 2.2330	89.9183
 2.2320	89.9504
 2.2310	90.0034
 2.2300	90.0198
 2.2290	90.1300
 2.2280	90.1241
 2.2270	90.2043
 2.2260	90.1417
 2.2250	90.2244
 2.2240	90.2456
 2.2230	90.3903
 2.2220	90.3617
 2.2210	90.4750
 2.2200	90.4489
 2.2190	90.4750
 2.2180	90.6099
 2.2170	90.5339
 2.2160	90.5938
 2.2150	90.7509
 2.2140	90.7745
 2.2130	90.7862
 2.2120	90.7750
 2.2110	90.8677
 2.2100	90.8894
 2.2090	90.8630
 2.2080	90.9256
 2.2070	90.9973
 2.2060	91.0548
 2.2050	91.0402
 2.2040	91.1326
 2.2030	91.1279
 2.2020	91.2460
 2.2010	91.2361
 2.2000	91.3227
 2.1990	91.3346
 2.1980	91.3051
 2.1970	91.4144
 2.1960	91.4106
 2.1950	91.4479
 2.1940	91.4176
 2.1930	91.4870
 2.1920	91.4540
 2.1910	91.4537
 2.1900	91.4765
 2.1890	91.5627
 2.1880	91.6519
 2.1870	91.5555
 2.1860	91.5975
 2.1850	91.5289
 2.1840	91.7058
 2.1830	91.7488
 2.1820	91.8146
 2.1810	91.8155
 2.1800	91.7834
 2.1790	91.8548
 2.1780	91.8998
 2.1770	91.9011
 2.1760	91.9700
 2.1750	92.0385
 2.1740	91.9557
 2.1730	92.0162
 2.1720	92.0232
 2.1710	92.0936
 2.1700	92.0744
 2.1690	92.1653
 2.1680	92.2214
 2.1670	92.2410
 2.1660	92.2349
 2.1650	92.2786
 2.1640	92.3903
 2.1630	92.3771
 2.1620	92.4204
 2.1610	92.4221
 2.1600	92.5247
 2.1590	92.5464
 2.1580	92.5654
 2.1570	92.5221
 2.1560	92.5369
 2.1550	92.6181
 2.1540	92.6529
 2.1530	92.6348
 2.1520	92.6358
 2.1510	92.6266
 2.1500	92.5823
 2.1490	92.6354
 2.1480	92.7208
 2.1470	92.6661
 2.1460	92.6077
 2.1450	92.6741
 2.1440	92.6675
 2.1430	92.6925
 2.1420	92.6847
 2.1410	92.6469
 2.1400	92.6384
 2.1390	92.5777
 2.1380	92.6160
 2.1370	92.6239
 2.1360	92.5068
 2.1350	92.4764
 2.1340	92.4481
 2.1330	92.3990
 2.1320	92.4286
 2.1310	92.4541
 2.1300	92.3982
 2.1290	92.3171
 2.1280	92.3299
 2.1270	92.2617
 2.1260	92.1566
 2.1250	92.1212
 2.1240	92.0993
 2.1230	91.9888
 2.1220	91.9354
 2.1210	91.9836
 2.1200	91.8101
 2.1190	91.7528
 2.1180	91.6753
 2.1170	91.5992
 2.1160	91.5746
 2.1150	91.4797
 2.1140	91.3921
 2.1130	91.3976
 2.1120	91.3623
 2.1110	91.2368
 2.1100	91.2203
 2.1090	91.1393
 2.1080	91.0882
 2.1070	91.0227
 2.1060	90.9369
 2.1050	90.9164
 2.1040	90.8735
 2.1030	90.7134
 2.1020	90.6549
 2.1010	90.6650
 2.1000	90.5615
 2.0990	90.5151
 2.0980	90.4957
 2.0970	90.4696
 2.0960	90.4777
 2.0950	90.4555
 2.0940	90.3649
 2.0930	90.3431
 2.0920	90.3508
 2.0910	90.3728
 2.0900	90.3276
 2.0890	90.2785
 2.0880	90.2618
 2.0870	90.2008
 2.0860	90.1360
 2.0850	90.1321
 2.0840	90.1263
 2.0830	90.1827
 2.0820	90.2291
 2.0810	90.2223
 2.0800	90.1968
 2.0790	90.2872
 2.0780	90.3405
 2.0770	90.3593
 2.0760	90.4075
 2.0750	90.4316
 2.0740	90.4665
 2.0730	90.5215
 2.0720	90.6143
 2.0710	90.6736
 2.0700	90.6914
 2.0690	90.6770
 2.0680	90.6698
 2.0670	90.7453
 2.0660	90.7970
 2.0650	90.7753
 2.0640	90.7748
 2.0630	90.8362
 2.0620	90.8452
 2.0610	90.8978
 2.0600	90.9537
 2.0590	90.9316
 2.0580	90.9617
 2.0570	91.0625
 2.0560	91.0821
 2.0550	91.0766
 2.0540	91.0706
 2.0530	91.1075
 2.0520	91.1622
 2.0510	91.1589
 2.0500	91.2126
 2.0490	91.3062
 2.0480	91.2804
 2.0470	91.2003
 2.0460	91.2574
 2.0450	91.3319
 2.0440	91.3565
 2.0430	91.3800
 2.0420	91.4357
 2.0410	91.4387
 2.0400	91.5230
 2.0390	91.4683
 2.0380	91.4219
 2.0370	91.4320
 2.0360	91.5111
 2.0350	91.5654
 2.0340	91.5820
 2.0330	91.4852
 2.0320	91.4641
 2.0310	91.6287
 2.0300	91.5861
 2.0290	91.5213
 2.0280	91.5511
 2.0270	91.5679
 2.0260	91.5746
 2.0250	91.5272
 2.0240	91.5547
 2.0230	91.5578
 2.0220	91.6370
 2.0210	91.5920
 2.0200	91.5827
 2.0190	91.5766
 2.0180	91.5396
 2.0170	91.4924
 2.0160	91.5991
 2.0150	91.5842
 2.0140	91.5573
 2.0130	91.5564
 2.0120	91.5651
 2.0110	91.5727
 2.0100	91.5803
 2.0090	91.5251
 2.0080	91.5098
 2.0070	91.5167
 2.0060	91.5598
 2.0050	91.4771
 2.0040	91.5501
 2.0030	91.5123
 2.0020	91.4972
 2.0010	91.4534
 2.0000	91.4904
 1.9990	91.4061
 1.9980	91.3674
 1.9970	91.3643
 1.9960	91.3031
 1.9950	91.3052
 1.9940	91.2505
 1.9930	91.2870
 1.9920	91.2291
 1.9910	91.1231
 1.9900	91.0821
 1.9890	91.1207
 1.9880	91.1411
 1.9870	91.0784
 1.9860	91.0013
 1.9850	90.9064
 1.9840	90.8950
 1.9830	90.8859
 1.9820	90.9145
 1.9810	90.8923
 1.9800	90.8783
 1.9790	90.8662
 1.9780	90.8022
 1.9770	90.8039
 1.9760	90.7659
 1.9750	90.7180
 1.9740	90.7199
 1.9730	90.7727
 1.9720	90.7871
 1.9710	90.6450
 1.9700	90.6759
 1.9690	90.6323
 1.9680	90.6174
 1.9670	90.5135
 1.9660	90.6286
 1.9650	90.6053
 1.9640	90.5714
 1.9630	90.6157
 1.9620	90.6748
 1.9610	90.6289
 1.9600	90.5846
 1.9590	90.5870
 1.9580	90.6406
 1.9570	90.6328
 1.9560	90.6383
 1.9550	90.5984
 1.9540	90.6419
 1.9530	90.6794
 1.9520	90.6523
 1.9510	90.6910
 1.9500	90.6438
 1.9490	90.6549
 1.9480	90.6645
 1.9470	90.6500
 1.9460	90.5993
 1.9450	90.5751
 1.9440	90.7554
 1.9430	90.6277
 1.9420	90.7334
 1.9410	90.6892
 1.9400	90.7959
 1.9390	90.6768
 1.9380	90.7116
 1.9370	90.7015
 1.9360	90.7833
 1.9350	90.7265
 1.9340	90.7996
 1.9330	90.7534
 1.9320	90.8121
 1.9310	90.8506
 1.9300	90.7816
 1.9290	90.9787
 1.9280	90.9390
 1.9270	90.9565
 1.9260	90.9583
 1.9250	91.0829
 1.9240	90.9945
 1.9230	91.0401
 1.9220	91.1322
 1.9210	91.1514
 1.9200	91.1515
 1.9190	91.1345
 1.9180	91.2031
 1.9170	91.1479
 1.9160	91.2676
 1.9150	91.2893
 1.9140	91.2743
 1.9130	91.3108
 1.9120	91.3738
 1.9110	91.3722
 1.9100	91.4481
 1.9090	91.3529
 1.9080	91.5319
 1.9070	91.5188
 1.9060	91.5739
 1.9050	91.5201
 1.9040	91.6394
 1.9030	91.6908
 1.9020	91.6959
 1.9010	91.7510
 1.9000	91.7768
 1.8990	91.7555
 1.8980	91.8968
 1.8970	91.9124
 1.8960	91.9936
 1.8950	91.9935
 1.8940	92.0016
 1.8930	92.0677
 1.8920	92.0729
 1.8910	92.1735
 1.8900	92.1522
 1.8890	92.1678
 1.8880	92.2426
 1.8870	92.2068
 1.8860	92.3028
 1.8850	92.3976
 1.8840	92.4207
 1.8830	92.3874
 1.8820	92.4760
 1.8810	92.5141
 1.8800	92.5201
 1.8790	92.5370
 1.8780	92.5081
 1.8770	92.5560
 1.8760	92.6470
 1.8750	92.5767
 1.8740	92.6360
 1.8730	92.6841
 1.8720	92.6456
 1.8710	92.6738
 1.8700	92.6834
 1.8690	92.6088
 1.8680	92.6462
 1.8670	92.6706
 1.8660	92.6896
 1.8650	92.6976
 1.8640	92.7240
 1.8630	92.7673
 1.8620	92.7179
 1.8610	92.7257
 1.8600	92.7429
 1.8590	92.8084
 1.8580	92.7989
 1.8570	92.7762
 1.8560	92.7913
 1.8550	92.8143
 1.8540	92.8150
 1.8530	92.8532
 1.8520	92.8147
 1.8510	92.8831
 1.8500	92.7994
 1.8490	92.8127
 1.8480	92.7890
 1.8470	92.7883
 1.8460	92.7812
 1.8450	92.8085
 1.8440	92.8242
 1.8430	92.8253
 1.8420	92.8340
 1.8410	92.8294
 1.8400	92.8425
 1.8390	92.8374
 1.8380	92.8635
 1.8370	92.8298
 1.8360	92.7915
 1.8350	92.7851
 1.8340	92.8155
 1.8330	92.8099
 1.8320	92.7397
 1.8310	92.8139
 1.8300	92.8796
 1.8290	92.8764
 1.8280	92.8150
 1.8270	92.7834
 1.8260	92.7887
 1.8250	92.8170
 1.8240	92.8556
 1.8230	92.8592
 1.8220	92.9118
 1.8210	92.8828
 1.8200	92.8619
 1.8190	92.8202
 1.8180	92.8401
 1.8170	92.8691
 1.8160	92.8348
 1.8150	92.8272
 1.8140	92.8496
 1.8130	92.8884
 1.8120	92.8985
 1.8110	92.9155
 1.8100	92.8764
 1.8090	92.9093
 1.8080	92.9628
 1.8070	92.9225
 1.8060	92.9202
 1.8050	92.9058
 1.8040	92.8864
 1.8030	92.9341
 1.8020	92.9687
 1.8010	92.8868
 1.8000	92.8841
 1.7990	92.9721
 1.7980	93.0064
 1.7970	92.9363
 1.7960	92.8951
 1.7950	92.8730
 1.7940	92.8972
 1.7930	93.0005
 1.7920	92.9583
 1.7910	92.9596
 1.7900	92.9718
 1.7890	92.9620
 1.7880	92.9466
 1.7870	92.9043
 1.7860	92.9298
 1.7850	92.9594
 1.7840	92.9420
 1.7830	92.9346
 1.7820	92.9369
 1.7810	92.9751
 1.7800	92.9849
 1.7790	92.9848
 1.7780	93.0185
 1.7770	92.9764
 1.7760	92.9398
 1.7750	93.0306
 1.7740	92.9867
 1.7730	92.9640
 1.7720	93.0018
 1.7710	92.9616
 1.7700	92.9637
 1.7690	92.9980
 1.7680	92.9330
 1.7670	92.9195
 1.7660	93.0167
 1.7650	92.9851
 1.7640	92.9690
 1.7630	92.9538
 1.7620	92.9462
 1.7610	92.9624
 1.7600	93.0302
 1.7590	93.0039
 1.7580	92.9468
 1.7570	92.9765
 1.7560	93.0089
 1.7550	93.0123
 1.7540	92.9958
 1.7530	93.0409
 1.7520	93.0567
 1.7510	93.0258
 1.7500	93.0392
 1.7490	93.0538
 1.7480	93.0327
 1.7470	93.0424
 1.7460	93.0824
 1.7450	93.1040
 1.7440	93.1216
 1.7430	93.1035
 1.7420	93.1612
 1.7410	93.2000
 1.7400	93.2063
 1.7390	93.1592
 1.7380	93.1501
 1.7370	93.1327
 1.7360	93.1461
 1.7350	93.1363
 1.7340	93.1272
 1.7330	93.1577
 1.7320	93.1549
 1.7310	93.1505
 1.7300	93.1471
 1.7290	93.1642
 1.7280	93.1988
 1.7270	93.1461
 1.7260	93.1597
 1.7250	93.1811
 1.7240	93.1037
 1.7230	93.1500
 1.7220	93.1647
 1.7210	93.2469
 1.7200	93.1983
 1.7190	93.2408
 1.7180	93.2261
 1.7170	93.1850
 1.7160	93.1802
 1.7150	93.2233
 1.7140	93.1369
 1.7130	93.1979
 1.7120	93.1778
 1.7110	93.1889
 1.7100	93.1996
 1.7090	93.1563
 1.7080	93.1443
 1.7070	93.1615
 1.7060	93.0810
 1.7050	93.1388
 1.7040	93.1889
 1.7030	93.2036
 1.7020	93.2126
 1.7010	93.1450
 1.7000	93.0839
 1.6990	93.0787
 1.6980	93.1472
 1.6970	93.1715
 1.6960	93.0874
 1.6950	93.1448
 1.6940	93.2284
 1.6930	93.1927
 1.6920	93.1839
 1.6910	93.1185
 1.6900	93.2003
 1.6890	93.1428
 1.6880	93.2134
 1.6870	93.1623
 1.6860	93.1815
 1.6850	93.2328
 1.6840	93.1152
 1.6830	93.1065
 1.6820	93.1848
 1.6810	93.2387
 1.6800	93.1536
 1.6790	93.1553
 1.6780	93.2336
 1.6770	93.1514
 1.6760	93.1452
 1.6750	93.1840
 1.6740	93.2129
 1.6730	93.2027
 1.6720	93.1072
 1.6710	93.1662
 1.6700	93.2114
 1.6690	93.2010
 1.6680	93.1827
 1.6670	93.2271
 1.6660	93.1454
 1.6650	93.1506
 1.6640	93.1303
 1.6630	93.1427
 1.6620	93.1961
 1.6610	93.1705
 1.6600	93.2214
 1.6590	93.1999
 1.6580	93.1714
 1.6570	93.1424
 1.6560	93.1829
 1.6550	93.2857
 1.6540	93.1722
 1.6530	93.1557
 1.6520	93.1954
 1.6510	93.1504
 1.6500	93.1288
 1.6490	93.1857
 1.6480	93.1347
 1.6470	93.0784
 1.6460	93.2144
 1.6450	93.1737
 1.6440	93.1306
 1.6430	93.1759
 1.6420	93.2357
 1.6410	93.2281
 1.6400	93.1664
 1.6390	93.2000
 1.6380	93.1953
 1.6370	93.1469
 1.6360	93.2176
 1.6350	93.2502
 1.6340	93.2462
 1.6330	93.1756
 1.6320	93.2704
 1.6310	93.1612
 1.6300	93.1255
 1.6290	93.1915
 1.6280	93.1490
 1.6270	93.2831
 1.6260	93.1577
 1.6250	93.1598
 1.6240	93.2284
 1.6230	93.2249
 1.6220	93.2781
 1.6210	93.1907
 1.6200	93.2373
 1.6190	93.1936
 1.6180	93.1645
 1.6170	93.1949
 1.6160	93.2960
 1.6150	93.3069
 1.6140	93.1667
 1.6130	93.1491
 1.6120	93.1229
 1.6110	93.1589
 1.6100	93.2465
 1.6090	93.1850
 1.6080	93.2641
 1.6070	93.2122
 1.6060	93.2625
 1.6050	93.2355
 1.6040	93.2855
 1.6030	93.2629
 1.6020	93.2697
 1.6010	93.2041
 1.6000	93.2398
 1.5990	93.2897
 1.5980	93.1774
 1.5970	93.2109
 1.5960	93.2100
 1.5950	93.2214
 1.5940	93.2337
 1.5930	93.2060
 1.5920	93.1589
 1.5910	93.3242
 1.5900	93.2711
 1.5890	93.2352
 1.5880	93.2085
 1.5870	93.2169
 1.5860	93.2995
 1.5850	93.2570
 1.5840	93.2586
 1.5830	93.2685
 1.5820	93.2660
 1.5810	93.1777
 1.5800	93.2023
 1.5790	93.2756
 1.5780	93.1851
 1.5770	93.1878
 1.5760	93.2828
 1.5750	93.2651
 1.5740	93.2153
 1.5730	93.2488
 1.5720	93.1840
 1.5710	93.2001
 1.5700	93.2790
 1.5690	93.2585
 1.5680	93.2170
 1.5670	93.1879
 1.5660	93.1813
 1.5650	93.1859
 1.5640	93.2266
 1.5630	93.1762
 1.5620	93.2224
 1.5610	93.2050
 1.5600	93.2037
 1.5590	93.1920
 1.5580	93.1819
 1.5570	93.1157
 1.5560	93.1273
 1.5550	93.1569
 1.5540	93.2160
 1.5530	93.2265
 1.5520	93.2397
 1.5510	93.1690
 1.5500	93.1455
 1.5490	93.1835
 1.5480	93.1557
 1.5470	93.0727
 1.5460	93.1009
 1.5450	93.1692
 1.5440	93.1016
 1.5430	93.1707
 1.5420	93.1589
 1.5410	93.1475
 1.5400	93.1243
 1.5390	93.0695
 1.5380	93.0894
 1.5370	93.1759
 1.5360	93.1606
 1.5350	93.1317
 1.5340	93.0982
 1.5330	93.0691
 1.5320	93.0726
 1.5310	93.1123
 1.5300	93.1213
 1.5290	93.0974
 1.5280	93.0853
 1.5270	93.0486
 1.5260	93.1023
 1.5250	93.1393
 1.5240	93.0777
 1.5230	93.0998
 1.5220	93.1132
 1.5210	93.0665
 1.5200	93.0462
 1.5190	93.0573
 1.5180	93.0492
 1.5170	93.0735
 1.5160	93.1142
 1.5150	93.1117
 1.5140	93.0666
 1.5130	93.1586
 1.5120	93.1196
 1.5110	93.0711
 1.5100	93.1530
 1.5090	93.1216
 1.5080	93.0873
 1.5070	93.1084
 1.5060	93.0406
 1.5050	92.9714
 1.5040	92.9659
 1.5030	92.9899
 1.5020	92.9895
 1.5010	93.0354
 1.5000	93.0866
 1.4990	93.0156
 1.4980	92.9986
 1.4970	93.0426
 1.4960	93.0680
 1.4950	93.0467
 1.4940	93.0304
 1.4930	93.0341
 1.4920	93.0346
 1.4910	93.0337
 1.4900	93.0031
 1.4890	93.0146
 1.4880	93.0120
 1.4870	93.0374
 1.4860	93.0081
 1.4850	92.9525
 1.4840	93.0206
 1.4830	93.0144
 1.4820	92.9806
 1.4810	93.0132
 1.4800	93.0218
 1.4790	93.0075
 1.4780	92.9364
 1.4770	92.9545
 1.4760	92.9966
 1.4750	92.9919
 1.4740	92.9338
 1.4730	92.9979
 1.4720	93.0336
 1.4710	92.9835
 1.4700	92.9809
 1.4690	93.0187
 1.4680	93.0323
 1.4670	92.9733
 1.4660	92.9937
 1.4650	92.9638
 1.4640	92.9047
 1.4630	92.9537
 1.4620	92.9824
 1.4610	92.9809
 1.4600	92.9403
 1.4590	92.9302
 1.4580	92.9094
 1.4570	92.8784
 1.4560	92.9025
 1.4550	92.9648
 1.4540	93.0007
 1.4530	92.9498
 1.4520	92.9696
 1.4510	92.9620
 1.4500	92.9266
 1.4490	92.9585
 1.4480	92.9608
 1.4470	92.9366
 1.4460	92.9812
 1.4450	92.9455
 1.4440	92.9266
 1.4430	92.9761
 1.4420	92.9289
 1.4410	92.9439
 1.4400	92.9937
 1.4390	93.0151
 1.4380	92.9605
 1.4370	92.9120
 1.4360	92.8893
 1.4350	92.9497
 1.4340	92.9670
 1.4330	92.9339
 1.4320	92.9749
 1.4310	92.9288
 1.4300	92.8733
 1.4290	92.9414
 1.4280	92.9711
 1.4270	92.9242
 1.4260	92.9504
 1.4250	92.9378
 1.4240	92.9158
 1.4230	93.0500
 1.4220	93.0097
 1.4210	92.9785
 1.4200	92.9869
 1.4190	92.9497
 1.4180	92.9613
 1.4170	92.9808
 1.4160	92.9641
 1.4150	92.9773
 1.4140	92.9558
 1.4130	92.9677
 1.4120	93.0105
 1.4110	93.0290
 1.4100	93.0295
 1.4090	92.9740
 1.4080	92.9646
 1.4070	92.9130
 1.4060	92.9584
 1.4050	93.0170
 1.4040	93.0223
 1.4030	93.0303
 1.4020	93.0354
 1.4010	93.0312
 1.4000	92.9952
 1.3990	93.0463
 1.3980	93.1470
 1.3970	93.1359
 1.3960	93.0879
 1.3950	93.1652
 1.3940	93.2712
 1.3930	93.1558
 1.3920	93.1968
 1.3910	93.1654
 1.3900	93.1933
 1.3890	93.2566
 1.3880	93.2240
 1.3870	93.1495
 1.3860	93.1659
 1.3850	93.1245
 1.3840	93.2869
 1.3830	93.1174
 1.3820	93.1647
 1.3810	93.1469
 1.3800	93.2224
 1.3790	93.2011
 1.3780	93.1854
 1.3770	93.2022
 1.3760	93.2470
 1.3750	93.2556
 1.3740	93.2112
 1.3730	93.1615
 1.3720	93.2175
 1.3710	93.1653
 1.3700	93.2265
 1.3690	93.2508
 1.3680	93.2269
 1.3670	93.1680
 1.3660	93.2792
 1.3650	93.2434
 1.3640	93.1810
 1.3630	93.2686
 1.3620	93.2744
 1.3610	93.2506
 1.3600	93.2070
 1.3590	93.1852
 1.3580	93.2791
 1.3570	93.1099
 1.3560	93.1199
 1.3550	93.1795
 1.3540	93.1782
 1.3530	93.2203
 1.3520	93.1536
 1.3510	93.2091
 1.3500	93.1652
 1.3490	93.1499
 1.3480	93.1553
 1.3470	93.1629
 1.3460	93.1479
 1.3450	93.1230
 1.3440	93.1997
 1.3430	93.1547
 1.3420	93.1675
 1.3410	93.1685
 1.3400	93.1790
 1.3390	93.1968
 1.3380	93.1679
 1.3370	93.1384
 1.3360	93.0946
 1.3350	93.1317
 1.3340	93.1920
 1.3330	93.2179
 1.3320	93.1648
 1.3310	93.1032
 1.3300	93.1656
 1.3290	93.2386
 1.3280	93.1634
 1.3270	93.1772
 1.3260	93.2688
 1.3250	93.2578
 1.3240	93.2135
 1.3230	93.1918
 1.3220	93.1753
 1.3210	93.1579
 1.3200	93.1477
 1.3190	93.1342
 1.3180	93.2032
 1.3170	93.0733
 1.3160	93.1852
 1.3150	93.2044
 1.3140	93.1378
 1.3130	93.1952
 1.3120	93.1372
 1.3110	93.1297
 1.3100	93.1915
 1.3090	93.1253
 1.3080	93.0945
 1.3070	93.1289
 1.3060	93.1678
 1.3050	93.1302
 1.3040	93.1509
 1.3030	93.0828
 1.3020	93.1205
 1.3010	93.1785
 1.3000	93.2016
 1.2990	93.1026
 1.2980	93.0916
 1.2970	93.1407
 1.2960	93.1373
 1.2950	93.1130
 1.2940	93.1632
 1.2930	93.1691
 1.2920	93.1268
 1.2910	93.1345
 1.2900	93.1604
 1.2890	93.1579
 1.2880	93.0812
 1.2870	93.0687
 1.2860	93.0383
 1.2850	93.0971
 1.2840	93.1450
 1.2830	93.1254
 1.2820	93.1083
 1.2810	93.1390
 1.2800	93.1729
 1.2790	93.1157
 1.2780	93.0462
 1.2770	93.0267
 1.2760	93.1088
 1.2750	93.1051
 1.2740	93.1043
 1.2730	93.1095
 1.2720	93.0798
 1.2710	93.0688
 1.2700	93.0933
 1.2690	93.1442
 1.2680	93.0997
 1.2670	93.0636
 1.2660	93.0619
 1.2650	93.0393
 1.2640	93.0638
 1.2630	93.0841
 1.2620	93.1194
 1.2610	93.1136
 1.2600	93.1052
 1.2590	93.1207
 1.2580	93.0967
 1.2570	93.0525
 1.2560	93.0474
 1.2550	93.0582
 1.2540	93.1162
 1.2530	93.1274
 1.2520	93.1062
 1.2510	93.0841
 1.2500	93.0569
 1.2490	93.0536
 1.2480	93.0506
 1.2470	93.0055
 1.2460	93.0329
 1.2450	93.1061
 1.2440	93.1588
 1.2430	93.1209
 1.2420	93.0705
 1.2410	93.0176
 1.2400	93.0164
 1.2390	93.0075
 1.2380	93.0046
 1.2370	93.0735
 1.2360	93.0871
 1.2350	93.0584
 1.2340	93.0120
 1.2330	93.0268
 1.2320	93.0395
 1.2310	93.0241
 1.2300	92.9721
 1.2290	93.0011
 1.2280	93.0268
 1.2270	93.0136
 1.2260	93.0528
 1.2250	93.1045
 1.2240	93.0683
 1.2230	93.0550
 1.2220	93.0777
 1.2210	93.0765
 1.2200	93.0806
 1.2190	93.0121
 1.2180	93.0073
 1.2170	93.0595
 1.2160	93.0022
 1.2150	92.9735
 1.2140	93.0058
 1.2130	93.0346
 1.2120	93.0358
 1.2110	93.0091
 1.2100	93.0180
 1.2090	93.0414
 1.2080	93.0054
 1.2070	92.9797
 1.2060	92.9986
 1.2050	92.9783
 1.2040	93.0001
 1.2030	93.0082
 1.2020	92.9926
 1.2010	93.0375
 1.2000	93.0737
 1.1990	93.0590
 1.1980	93.0644
 1.1970	93.0365
 1.1960	92.9662
 1.1950	92.9945
 1.1940	93.0051
 1.1930	92.9648
 1.1920	92.9820
 1.1910	93.0120
 1.1900	92.9873
 1.1890	92.9817
 1.1880	92.9878
 1.1870	93.0338
 1.1860	93.0504
 1.1850	93.0406
 1.1840	93.0447
 1.1830	93.0186
 1.1820	93.0362
 1.1810	93.0832
 1.1800	93.0295
 1.1790	92.9401
 1.1780	93.0054
 1.1770	92.9780
 1.1760	93.0087
 1.1750	93.0418
 1.1740	92.9861
 1.1730	92.9858
 1.1720	93.0388
 1.1710	92.9857
 1.1700	92.9831
 1.1690	93.0002
 1.1680	93.0161
 1.1670	93.0765
 1.1660	93.0501
 1.1650	93.0435
 1.1640	93.0713
 1.1630	93.1070
 1.1620	92.9966
 1.1610	93.0182
 1.1600	93.0503
 1.1590	93.0639
 1.1580	93.0499
 1.1570	93.0883
 1.1560	93.0165
 1.1550	93.0079
 1.1540	93.0254
 1.1530	93.0383
 1.1520	92.9999
 1.1510	92.9980
 1.1500	93.0474
 1.1490	93.0557
 1.1480	93.0324
 1.1470	92.9808
 1.1460	93.0166
 1.1450	93.0530
 1.1440	93.0467
 1.1430	93.0502
 1.1420	93.0344
 1.1410	93.0682
 1.1400	93.0155
 1.1390	93.0790
 1.1380	93.0471
 1.1370	93.0303
 1.1360	93.0681
 1.1350	93.0722
 1.1340	93.0630
 1.1330	93.0020
 1.1320	92.9800
 1.1310	92.9943
 1.1300	92.9764
 1.1290	93.0041
 1.1280	93.0739
 1.1270	93.0498
 1.1260	93.0197
 1.1250	92.9346
 1.1240	93.0823
 1.1230	92.9747
 1.1220	92.9947
 1.1210	92.9692
 1.1200	92.9810
 1.1190	93.0157
 1.1180	93.1023
 1.1170	93.0778
 1.1160	93.0200
 1.1150	93.0166
 1.1140	92.9780
 1.1130	93.0018
 1.1120	93.0227
 1.1110	92.9995
 1.1100	92.9982
 1.1090	93.0283
 1.1080	93.0415
 1.1070	92.9702
 1.1060	93.0258
 1.1050	93.0951
 1.1040	93.0431
 1.1030	92.9689
 1.1020	93.0161
 1.1010	92.9848
 1.1000	93.0164
 1.0990	92.9414
 1.0980	93.0056
 1.0970	92.9938
 1.0960	93.0010
 1.0950	93.0123
 1.0940	93.0112
 1.0930	93.0296
 1.0920	93.0244
 1.0910	92.9794
 1.0900	92.9763
 1.0890	93.0563
 1.0880	93.0081
 1.0870	93.0254
 1.0860	92.9539
 1.0850	93.0573
 1.0840	92.9826
 1.0830	93.0576
 1.0820	93.0736
 1.0810	92.9541
 1.0800	92.9329
 1.0790	92.9188
 1.0780	92.9783
 1.0770	92.9691
 1.0760	92.9680
 1.0750	92.9948
 1.0740	92.9211
 1.0730	93.0309
 1.0720	92.9093
 1.0710	93.0539
 1.0700	93.1235
 1.0690	93.0245
 1.0680	92.9661
 1.0670	92.9614
 1.0660	92.9620
 1.0650	92.9956
 1.0640	92.9847
 1.0630	92.9446
 1.0620	92.9729
 1.0610	92.9510
 1.0600	92.8256
 1.0590	93.0036
 1.0580	92.9369
 1.0570	92.9541
 1.0560	92.9780
 1.0550	92.9255
 1.0540	92.9632
 1.0530	93.0047
 1.0520	92.9450
 1.0510	92.9427
 1.0500	92.9395
 1.0490	92.9895
 1.0480	92.9604
 1.0470	92.9519
 1.0460	92.9386
 1.0450	93.0007
 1.0440	92.9820
 1.0430	93.0247
 1.0420	92.9350
 1.0410	92.9580
 1.0400	93.0072
 1.0390	92.9784
 1.0380	92.9866
 1.0370	93.0062
 1.0360	92.9769
 1.0350	92.9681
 1.0340	93.0402
 1.0330	92.9721
 1.0320	93.0045
 1.0310	92.9385
 1.0300	92.9219
 1.0290	92.9571
 1.0280	92.9589
 1.0270	92.9854
 1.0260	93.0353
 1.0250	92.9350
 1.0240	92.9193
 1.0230	92.9243
 1.0220	92.9626
 1.0210	92.9464
 1.0200	92.9466
 1.0190	92.9355
 1.0180	92.9458
 1.0170	92.9247
 1.0160	92.9506
 1.0150	92.9305
 1.0140	92.9988
 1.0130	92.9521
 1.0120	92.9013
 1.0110	92.8446
 1.0100	92.7999
 1.0090	92.8687
 1.0080	92.9512
 1.0070	92.9711
 1.0060	93.0133
 1.0050	92.9843
 1.0040	92.9769
 1.0030	92.9550
 1.0020	92.9243
 1.0010	92.9133
 1.0000	92.9288
 0.9990	92.9313
 0.9980	92.9354
 0.9970	92.9148
 0.9960	92.8644
 0.9950	92.9101
 0.9940	92.8523
 0.9930	92.9308
 0.9920	92.9130
 0.9910	92.9496
 0.9900	92.9456
 0.9890	92.9409
 0.9880	92.8461
 0.9870	92.8426
 0.9860	92.8984
 0.9850	92.8874
 0.9840	92.9436
 0.9830	92.9196
 0.9820	92.8800
 0.9810	92.8392
 0.9800	92.8909
 0.9790	92.8885
 0.9780	92.8680
 0.9770	92.9199
 0.9760	92.8457
 0.9750	92.8627
 0.9740	92.8563
 0.9730	92.8383
 0.9720	92.8463
 0.9710	92.8765
 0.9700	92.9013
 0.9690	92.8707
 0.9680	92.8852
 0.9670	92.9276
 0.9660	92.9145
 0.9650	92.8242
 0.9640	92.8015
 0.9630	92.8340
 0.9620	92.8807
 0.9610	92.8805
 0.9600	92.9113
 0.9590	92.9360
 0.9580	92.8754
 0.9570	92.8343
 0.9560	92.8212
 0.9550	92.8028
 0.9540	92.8329
 0.9530	92.8760
 0.9520	92.8563
 0.9510	92.9042
 0.9500	92.9478
 0.9490	92.8878
 0.9480	92.8674
 0.9470	92.8846
 0.9460	92.9142
 0.9450	92.8544
 0.9440	92.8262
 0.9430	92.8577
 0.9420	92.8318
 0.9410	92.8489
 0.9400	92.8736
 0.9390	92.8710
 0.9380	92.8826
 0.9370	92.7890
 0.9360	92.7613
 0.9350	92.7917
 0.9340	92.8359
 0.9330	92.8507
 0.9320	92.8106
 0.9310	92.8314
 0.9300	92.8567
 0.9290	92.8237
 0.9280	92.8061
 0.9270	92.8652
 0.9260	92.8434
 0.9250	92.8008
 0.9240	92.8034
 0.9230	92.8401
 0.9220	92.8936
 0.9210	92.8860
 0.9200	92.8369
 0.9190	92.8136
 0.9180	92.8036
 0.9170	92.8254
 0.9160	92.7945
 0.9150	92.7520
 0.9140	92.7774
 0.9130	92.7821
 0.9120	92.8108
 0.9110	92.8516
 0.9100	92.8933
 0.9090	92.8885
 0.9080	92.8467
 0.9070	92.7427
 0.9060	92.7839
 0.9050	92.8240
 0.9040	92.8623
 0.9030	92.8741
 0.9020	92.8532
 0.9010	92.8466
 0.9000	92.7647
 0.8990	92.7518
 0.8980	92.8703
 0.8970	92.8779
 0.8960	92.7979
 0.8950	92.7824
 0.8940	92.8378
 0.8930	92.8810
 0.8920	92.8046
 0.8910	92.7914
 0.8900	92.7772
 0.8890	92.7653
 0.8880	92.7590
 0.8870	92.7548
 0.8860	92.8028
 0.8850	92.8606
 0.8840	92.8639
 0.8830	92.8969
 0.8820	92.9000
 0.8810	92.8390
 0.8800	92.7709
 0.8790	92.8316
 0.8780	92.8445
 0.8770	92.8100
 0.8760	92.7696
 0.8750	92.7921
 0.8740	92.7719
 0.8730	92.7239
 0.8720	92.7725
 0.8710	92.8154
 0.8700	92.7821
 0.8690	92.7748
 0.8680	92.7492
 0.8670	92.7752
 0.8660	92.7481
 0.8650	92.7778
 0.8640	92.8426
 0.8630	92.8518
 0.8620	92.7833
 0.8610	92.6837
 0.8600	92.6808
 0.8590	92.7227
 0.8580	92.9020
 0.8570	92.8065
 0.8560	92.7268
 0.8550	92.7865
 0.8540	92.7841
 0.8530	92.8348
 0.8520	92.8151
 0.8510	92.7577
 0.8500	92.7977
 0.8490	92.8857
 0.8480	92.7762
 0.8470	92.7946
 0.8460	92.8324
 0.8450	92.7812
 0.8440	92.7580
 0.8430	92.8430
 0.8420	92.7674
 0.8410	92.8142
 0.8400	92.8297
 0.8390	92.7792
 0.8380	92.7793
 0.8370	92.7863
 0.8360	92.8062
 0.8350	92.8646
 0.8340	92.9000
 0.8330	92.8546
 0.8320	92.7918
 0.8310	92.8296
 0.8300	92.7742
 0.8290	92.8116
 0.8280	92.8439
 0.8270	92.8450
 0.8260	92.7597
 0.8250	92.7947
 0.8240	92.8319
 0.8230	92.7793
 0.8220	92.8476
 0.8210	92.8494
 0.8200	92.7380
 0.8190	92.8042
 0.8180	92.8503
 0.8170	92.7703
 0.8160	92.8417
 0.8150	92.8342
 0.8140	92.7244
 0.8130	92.8281
 0.8120	92.8267
 0.8110	92.7417
 0.8100	92.7168
 0.8090	92.7506
 0.8080	92.7458
 0.8070	92.7447
 0.8060	92.7640
 0.8050	92.6858
 0.8040	92.7357
 0.8030	92.7532
 0.8020	92.7141
 0.8010	92.7192
 0.8000	92.7623
 0.7990	92.6887
 0.7980	92.7489
 0.7970	92.6777
 0.7960	92.7057
 0.7950	92.5968
 0.7940	92.6509
 0.7930	92.6608
 0.7920	92.6626
 0.7910	92.6545
 0.7900	92.6192
 0.7890	92.6234
 0.7880	92.6634
 0.7870	92.6312
 0.7860	92.6663
 0.7850	92.6916
 0.7840	92.6036
 0.7830	92.6433
 0.7820	92.6177
 0.7810	92.6754
 0.7800	92.6230
 0.7790	92.6327
 0.7780	92.6317
 0.7770	92.5615
 0.7760	92.5679
 0.7750	92.6240
 0.7740	92.5759
 0.7730	92.6464
 0.7720	92.5563
 0.7710	92.5787
 0.7700	92.5451
 0.7690	92.5995
 0.7680	92.5336
 0.7670	92.5274
 0.7660	92.5519
 0.7650	92.5328
 0.7640	92.5223
 0.7630	92.5307
 0.7620	92.5335
 0.7610	92.4887
 0.7600	92.4970
 0.7590	92.4417
 0.7580	92.5018
 0.7570	92.4784
 0.7560	92.4878
 0.7550	92.4768
 0.7540	92.5074
 0.7530	92.4531
 0.7520	92.4524
 0.7510	92.4837
 0.7500	92.4190
 0.7490	92.4340
 0.7480	92.4725
 0.7470	92.4480
 0.7460	92.4095
 0.7450	92.3790
 0.7440	92.4213
 0.7430	92.4044
 0.7420	92.4056
 0.7410	92.3958
 0.7400	92.3956
 0.7390	92.3590
 0.7380	92.3751
 0.7370	92.3600
 0.7360	92.3545
 0.7350	92.3038
 0.7340	92.3085
 0.7330	92.3162
 0.7320	92.3199
 0.7310	92.3080
 0.7300	92.3073
 0.7290	92.3177
 0.7280	92.3055
 0.7270	92.3273
 0.7260	92.2985
 0.7250	92.3229
 0.7240	92.2926
 0.7230	92.2691
 0.7220	92.2669
 0.7210	92.2896
 0.7200	92.2731
 0.7190	92.2737
 0.7180	92.2800
 0.7170	92.2961
 0.7160	92.2672
 0.7150	92.2554
 0.7140	92.2427
 0.7130	92.2275
 0.7120	92.2419
 0.7110	92.2106
 0.7100	92.2014
 0.7090	92.1896
 0.7080	92.1989
 0.7070	92.1574
 0.7060	92.1478
 0.7050	92.1486
 0.7040	92.1546
 0.7030	92.1507
 0.7020	92.1524
 0.7010	92.1322
 0.7000	92.1066
 0.6990	92.1354
 0.6980	92.1240
 0.6970	92.0786
 0.6960	92.0800
 0.6950	92.0886
 0.6940	92.0614
 0.6930	92.0389
 0.6920	92.0409
 0.6910	92.0584
 0.6900	92.0629
 0.6890	92.0128
 0.6880	91.9933
 0.6870	92.0046
 0.6860	91.9904
 0.6850	91.9941
 0.6840	91.9993
 0.6830	91.9815
 0.6820	92.0002
 0.6810	91.9906
 0.6800	92.0022
 0.6790	91.9834
 0.6780	91.9590
 0.6770	91.9656
 0.6760	91.9387
 0.6750	91.9282
 0.6740	91.9452
 0.6730	91.9509
 0.6720	91.9312
 0.6710	91.9188
 0.6700	91.9004
 0.6690	91.8842
 0.6680	91.8698
 0.6670	91.8675
 0.6660	91.8630
 0.6650	91.8691
 0.6640	91.8554
 0.6630	91.8425
 0.6620	91.8550
 0.6610	91.8453
 0.6600	91.8080
 0.6590	91.7971
 0.6580	91.7847
 0.6570	91.7763
 0.6560	91.7715
 0.6550	91.7619
 0.6540	91.7484
 0.6530	91.7269
 0.6520	91.7207
 0.6510	91.7215
 0.6500	91.7125
 0.6490	91.7220
 0.6480	91.7001
 0.6470	91.6714
 0.6460	91.6688
 0.6450	91.6688
 0.6440	91.6603
 0.6430	91.6475
 0.6420	91.6242
 0.6410	91.6072
 0.6400	91.6052
 0.6390	91.5932
 0.6380	91.5891
 0.6370	91.5776
 0.6360	91.5547
 0.6350	91.5347
 0.6340	91.5332
 0.6330	91.5306
 0.6320	91.5198
 0.6310	91.5078
 0.6300	91.4937
 0.6290	91.4717
 0.6280	91.4585
 0.6270	91.4400
 0.6260	91.4249
 0.6250	91.4139
 0.6240	91.4054
 0.6230	91.4026
 0.6220	91.3868
 0.6210	91.3835
 0.6200	91.3607
 0.6190	91.3532
 0.6180	91.3345
 0.6170	91.3052
 0.6160	91.2974
 0.6150	91.2823
 0.6140	91.2559
 0.6130	91.2377
 0.6120	91.2322
 0.6110	91.2106
 0.6100	91.1915
 0.6090	91.1736
 0.6080	91.1445
 0.6070	91.1134
 0.6060	91.1080
 0.6050	91.0938
 0.6040	91.0883
 0.6030	91.0725
 0.6020	91.0310
 0.6010	90.9928
 0.6000	90.9794
 0.5990	90.9762
 0.5980	90.9807
 0.5970	91.0005
 0.5960	90.9821
 0.5950	90.9547
 0.5940	90.9473
 0.5930	90.9160
 0.5920	90.8726
 0.5910	90.8397
 0.5900	90.8035
 0.5890	90.7642
 0.5880	90.7270
 0.5870	90.6812
 0.5860	90.6206
 0.5850	90.5844
 0.5840	90.5454
 0.5830	90.4954
 0.5820	90.4493
 0.5810	90.4304
 0.5800	90.3940
 0.5790	90.3845
 0.5780	90.3783
 0.5770	90.3307
 0.5760	90.3277
 0.5750	90.3354
 0.5740	90.2859
 0.5730	90.2492
 0.5720	90.2355
 0.5710	90.2184
 0.5700	90.1789
 0.5690	90.1180
 0.5680	90.0739
 0.5670	90.0597
 0.5660	90.0459
 0.5650	90.0235
 0.5640	89.9859
 0.5630	89.9619
 0.5620	89.9425
 0.5610	89.9046
 0.5600	89.8477
 0.5590	89.8004
 0.5580	89.7597
 0.5570	89.7068
 0.5560	89.6677
 0.5550	89.6298
 0.5540	89.6192
 0.5530	89.5689
 0.5520	89.5446
 0.5510	89.4977
 0.5500	89.4630
 0.5490	89.3994
 0.5480	89.3675
 0.5470	89.3381
 0.5460	89.2883
 0.5450	89.2601
 0.5440	89.2081
 0.5430	89.1523
 0.5420	89.1070
 0.5410	89.0670
 0.5400	89.0455
 0.5390	88.9910
 0.5380	88.9494
 0.5370	88.8953
 0.5360	88.8721
 0.5350	88.8292
 0.5340	88.7932
 0.5330	88.7396
 0.5320	88.6951
 0.5310	88.6605
 0.5300	88.5995
 0.5290	88.5434
 0.5280	88.5198
 0.5270	88.4642
 0.5260	88.4629
 0.5250	88.3922
 0.5240	88.3349
 0.5230	88.3125
 0.5220	88.2578
 0.5210	88.2252
 0.5200	88.1720
 0.5190	88.1444
 0.5180	88.0906
 0.5170	88.0356
 0.5160	87.9958
 0.5150	87.9486
 0.5140	87.9115
 0.5130	87.8605
 0.5120	87.8163
 0.5110	87.7751
 0.5100	87.7071
 0.5090	87.6530
 0.5080	87.6376
 0.5070	87.5774
 0.5060	87.5316
 0.5050	87.4805
 0.5040	87.4384
 0.5030	87.4042
 0.5020	87.3554
 0.5010	87.2859
 0.5000	87.2633
 0.4990	87.2228
 0.4980	87.1576
 0.4970	87.1312
 0.4960	87.0683
 0.4950	87.0472
 0.4940	86.9776
 0.4930	86.9232
 0.4920	86.9177
 0.4910	86.8499
 0.4900	86.8214
 0.4890	86.7554
 0.4880	86.7195
 0.4870	86.6603
 0.4860	86.6283
 0.4850	86.6003
 0.4840	86.5856
 0.4830	86.5017
 0.4820	86.4682
 0.4810	86.4357
 0.4800	86.3843
 0.4790	86.3571
 0.4780	86.3200
 0.4770	86.2455
 0.4760	86.2291
 0.4750	86.1988
 0.4740	86.1559
 0.4730	86.0929
 0.4720	86.0775
 0.4710	85.9986
 0.4700	86.0098
 0.4690	85.9439
 0.4680	85.9582
 0.4670	85.8861
 0.4660	85.8383
 0.4650	85.8241
 0.4640	85.7783
 0.4630	85.7481
 0.4620	85.7123
 0.4610	85.6949
 0.4600	85.6451
 0.4590	85.6135
 0.4580	85.5545
 0.4570	85.5262
 0.4560	85.4978
 0.4550	85.4740
 0.4540	85.4366
 0.4530	85.3714
 0.4520	85.3306
 0.4510	85.2823
 0.4500	85.2480
 0.4490	85.2022
 0.4480	85.1696
 0.4470	85.0934
 0.4460	85.0514
 0.4450	85.0314
 0.4440	84.9554
 0.4430	84.8983
 0.4420	84.8451
 0.4410	84.7869
 0.4400	84.7255
 0.4390	84.6721
 0.4380	84.6099
 0.4370	84.5445
 0.4360	84.4817
 0.4350	84.4107
 0.4340	84.3125
 0.4330	84.2932
 0.4320	84.2263
 0.4310	84.1450
 0.4300	84.0870
 0.4290	84.0243
 0.4280	83.9519
 0.4270	83.8997
 0.4260	83.8465
 0.4250	83.7933
 0.4240	83.7307
 0.4230	83.6738
 0.4220	83.6324
 0.4210	83.5662
 0.4200	83.4984
 0.4190	83.4538
 0.4180	83.3978
 0.4170	83.3521
 0.4160	83.3089
 0.4150	83.2518
 0.4140	83.1979
 0.4130	83.1664
 0.4120	83.1149
 0.4110	83.0381
 0.4100	82.9614
 0.4090	82.9248
 0.4080	82.8672
 0.4070	82.8245
 0.4060	82.7857
 0.4050	82.7231
 0.4040	82.6481
 0.4030	82.5879
 0.4020	82.5448
 0.4010	82.4955
 0.4000	82.4203
