Name: Arsenopyrite FeAsS
Type: Mineral
Class: Sulfide
Subclass: None
Particle Size: Fine
Sample No.: S-5A
Owner: JPL
Wavelength Range: VSWIR
Origin: USA, Nevada, Lander County, Austin
Collection Date: N/A
Description: Particle size was 0-45um.Collected by Burminco Original ASTER Spectral Library name was jpl.beckman.mineral.sulfide.none.fine.s05a.spectrum.txt
Measurement: Hemispherical reflectance
First Column: X
Second Column: Y
X Units: Wavelength (micrometers)
Y Units:Reflectance (percent)
First X Value:  0.4000
Last X Value:  2.5000
Number of X Values: 826
Additional Information: mineral.sulfide.none.fine.vswir.s-5a.jpl.beckman.ancillary.txt

 0.4000	11.4400
 0.4010	11.3700
 0.4020	11.3100
 0.4030	11.3800
 0.4040	11.4700
 0.4050	11.4100
 0.4060	11.3500
 0.4070	11.3300
 0.4080	11.4500
 0.4090	11.5200
 0.4100	11.4100
 0.4110	11.4100
 0.4120	11.3900
 0.4130	11.4100
 0.4140	11.4700
 0.4150	11.4500
 0.4160	11.4500
 0.4170	11.3300
 0.4180	11.4100
 0.4190	11.4900
 0.4200	11.4100
 0.4210	11.5100
 0.4220	11.6300
 0.4230	11.5100
 0.4240	11.4500
 0.4250	11.3900
 0.4260	11.5000
 0.4270	11.5400
 0.4280	11.5400
 0.4290	11.5400
 0.4300	11.5100
 0.4310	11.5600
 0.4320	11.5300
 0.4330	11.5100
 0.4340	11.5600
 0.4350	11.6000
 0.4360	11.6000
 0.4370	11.6600
 0.4380	11.6100
 0.4390	11.6500
 0.4400	11.6100
 0.4410	11.6300
 0.4420	11.6100
 0.4430	11.5700
 0.4440	11.5400
 0.4450	11.6000
 0.4460	11.7000
 0.4470	11.6400
 0.4480	11.6300
 0.4490	11.6100
 0.4500	11.5600
 0.4510	11.6900
 0.4520	11.6900
 0.4530	11.6800
 0.4540	11.6600
 0.4550	11.6300
 0.4560	11.7700
 0.4570	11.6800
 0.4580	11.7800
 0.4590	11.7000
 0.4600	11.6900
 0.4610	11.7700
 0.4620	11.7700
 0.4630	11.6700
 0.4640	11.7200
 0.4650	11.7400
 0.4660	11.7800
 0.4670	11.8000
 0.4680	11.6600
 0.4690	11.7800
 0.4700	11.7500
 0.4710	11.8600
 0.4720	11.7000
 0.4730	11.6900
 0.4740	11.8200
 0.4750	11.7500
 0.4760	11.7200
 0.4770	11.8400
 0.4780	11.8400
 0.4790	11.9000
 0.4800	11.8400
 0.4810	11.8300
 0.4820	11.7900
 0.4830	11.8200
 0.4840	11.8400
 0.4850	11.7900
 0.4860	11.9200
 0.4870	11.8600
 0.4880	11.9000
 0.4890	11.9300
 0.4900	11.8300
 0.4910	11.9900
 0.4920	11.8500
 0.4930	11.9900
 0.4940	11.9700
 0.4950	11.8300
 0.4960	12.0000
 0.4970	11.9300
 0.4980	11.9800
 0.4990	11.9000
 0.5000	11.8900
 0.5010	11.9500
 0.5020	11.8700
 0.5030	11.8700
 0.5040	11.9900
 0.5050	11.9700
 0.5060	12.0400
 0.5070	11.9200
 0.5080	11.9900
 0.5090	11.9400
 0.5100	12.0000
 0.5110	12.0700
 0.5120	12.0100
 0.5130	12.0200
 0.5140	12.0300
 0.5150	12.0600
 0.5160	12.0800
 0.5170	12.0300
 0.5180	12.1200
 0.5190	12.0800
 0.5200	12.0900
 0.5210	12.1300
 0.5220	12.0500
 0.5230	12.1500
 0.5240	12.0600
 0.5250	12.1800
 0.5260	12.1100
 0.5270	12.0500
 0.5280	12.1000
 0.5290	12.0900
 0.5300	12.1600
 0.5310	12.0300
 0.5320	12.0600
 0.5330	12.1400
 0.5340	12.0700
 0.5350	12.1500
 0.5360	12.0500
 0.5370	12.0500
 0.5380	12.1200
 0.5390	12.0500
 0.5400	12.1000
 0.5410	12.1500
 0.5420	12.1300
 0.5430	12.2500
 0.5440	12.1900
 0.5450	12.1000
 0.5460	12.0800
 0.5470	12.1700
 0.5480	12.2000
 0.5490	12.1200
 0.5500	12.2100
 0.5510	12.2100
 0.5520	12.1900
 0.5530	12.1700
 0.5540	12.1300
 0.5550	12.2400
 0.5560	12.2200
 0.5570	12.1900
 0.5580	12.2300
 0.5590	12.1200
 0.5600	12.2200
 0.5610	12.3200
 0.5620	12.3700
 0.5630	12.2400
 0.5640	12.3200
 0.5650	12.2400
 0.5660	12.2900
 0.5670	12.2900
 0.5680	12.2100
 0.5690	12.2600
 0.5700	12.2100
 0.5710	12.3300
 0.5720	12.2900
 0.5730	12.1800
 0.5740	12.2600
 0.5750	12.2300
 0.5760	12.3000
 0.5770	12.2200
 0.5780	12.1900
 0.5790	12.2200
 0.5800	12.1800
 0.5810	12.2400
 0.5820	12.1400
 0.5830	12.2100
 0.5840	12.3400
 0.5850	12.3000
 0.5860	12.3600
 0.5870	12.2300
 0.5880	12.2700
 0.5890	12.3400
 0.5900	12.1700
 0.5910	12.3000
 0.5920	12.2100
 0.5930	12.3300
 0.5940	12.3400
 0.5950	12.2300
 0.5960	12.2900
 0.5970	12.2100
 0.5980	12.3400
 0.5990	12.3300
 0.6000	12.2800
 0.6010	12.2600
 0.6020	12.3200
 0.6030	12.3400
 0.6040	12.2600
 0.6050	12.2400
 0.6060	12.3400
 0.6070	12.3100
 0.6080	12.4300
 0.6090	12.3300
 0.6100	12.1900
 0.6110	12.3100
 0.6120	12.2400
 0.6130	12.3500
 0.6140	12.2800
 0.6150	12.3300
 0.6160	12.4300
 0.6170	12.3300
 0.6180	12.3800
 0.6190	12.2500
 0.6200	12.3500
 0.6210	12.3300
 0.6220	12.3100
 0.6230	12.4100
 0.6240	12.2700
 0.6250	12.3100
 0.6260	12.3800
 0.6270	12.3600
 0.6280	12.3800
 0.6290	12.2600
 0.6300	12.3700
 0.6310	12.4500
 0.6320	12.3400
 0.6330	12.3900
 0.6340	12.3100
 0.6350	12.4100
 0.6360	12.3500
 0.6370	12.3100
 0.6380	12.3700
 0.6390	12.3200
 0.6400	12.3900
 0.6410	12.3900
 0.6420	12.3100
 0.6430	12.3900
 0.6440	12.3300
 0.6450	12.4400
 0.6460	12.4000
 0.6470	12.2700
 0.6480	12.3400
 0.6490	12.3300
 0.6500	12.4100
 0.6510	12.3600
 0.6520	12.2600
 0.6530	12.3900
 0.6540	12.3700
 0.6550	12.4700
 0.6560	12.4100
 0.6570	12.3900
 0.6580	12.3800
 0.6590	12.3100
 0.6600	12.3800
 0.6610	12.3300
 0.6620	12.3900
 0.6630	12.4500
 0.6640	12.3500
 0.6650	12.4200
 0.6660	12.3700
 0.6670	12.4200
 0.6680	12.4600
 0.6690	12.3900
 0.6700	12.4600
 0.6710	12.4100
 0.6720	12.4400
 0.6730	12.3900
 0.6740	12.3200
 0.6750	12.4000
 0.6760	12.4100
 0.6770	12.4900
 0.6780	12.4400
 0.6790	12.3800
 0.6800	12.4700
 0.6810	12.3900
 0.6820	12.4300
 0.6830	12.3800
 0.6840	12.3400
 0.6850	12.4400
 0.6860	12.4300
 0.6870	12.5500
 0.6880	12.4300
 0.6890	12.4600
 0.6900	12.5400
 0.6910	12.4100
 0.6920	12.5600
 0.6930	12.5200
 0.6940	12.5400
 0.6950	12.6100
 0.6960	12.5200
 0.6970	12.5200
 0.6980	12.5000
 0.6990	12.5000
 0.7000	12.6000
 0.7010	12.4500
 0.7020	12.4300
 0.7030	12.4900
 0.7040	12.4500
 0.7050	12.5300
 0.7060	12.4600
 0.7070	12.4700
 0.7080	12.5300
 0.7090	12.4500
 0.7100	12.5100
 0.7110	12.4500
 0.7120	12.4800
 0.7130	12.6000
 0.7140	12.4700
 0.7150	12.5000
 0.7160	12.4800
 0.7170	12.4700
 0.7180	12.6100
 0.7190	12.5100
 0.7200	12.5900
 0.7210	12.5200
 0.7220	12.5600
 0.7230	12.6300
 0.7240	12.5100
 0.7250	12.4300
 0.7260	12.4700
 0.7270	12.4800
 0.7280	12.4800
 0.7290	12.4300
 0.7300	12.5100
 0.7310	12.5000
 0.7320	12.5500
 0.7330	12.5300
 0.7340	12.4800
 0.7350	12.5000
 0.7360	12.4400
 0.7370	12.5100
 0.7380	12.4300
 0.7390	12.4700
 0.7400	12.5600
 0.7410	12.5100
 0.7420	12.5000
 0.7430	12.4800
 0.7440	12.4300
 0.7450	12.4800
 0.7460	12.4700
 0.7470	12.5100
 0.7480	12.4100
 0.7490	12.4900
 0.7500	12.5700
 0.7510	12.4500
 0.7520	12.4700
 0.7530	12.4000
 0.7540	12.4800
 0.7550	12.4700
 0.7560	12.4300
 0.7570	12.4700
 0.7580	12.3800
 0.7590	12.5100
 0.7600	12.4300
 0.7610	12.4100
 0.7620	12.4700
 0.7630	12.4200
 0.7640	12.5800
 0.7650	12.5200
 0.7660	12.5100
 0.7670	12.5800
 0.7680	12.4700
 0.7690	12.5200
 0.7700	12.5100
 0.7710	12.4900
 0.7720	12.4800
 0.7730	12.4200
 0.7740	12.4700
 0.7750	12.4000
 0.7760	12.4700
 0.7770	12.5500
 0.7780	12.4800
 0.7790	12.5700
 0.7800	12.4400
 0.7810	12.4600
 0.7820	12.5000
 0.7830	12.4900
 0.7840	12.5400
 0.7850	12.4600
 0.7860	12.4700
 0.7870	12.4600
 0.7880	12.4900
 0.7890	12.4800
 0.7900	12.4400
 0.7910	12.4900
 0.7920	12.4900
 0.7930	12.4000
 0.7940	12.3600
 0.7950	12.3200
 0.7960	12.3500
 0.7970	12.4000
 0.7980	12.3000
 0.7990	12.3300
 0.8000	12.7400
 0.8040	12.7000
 0.8080	12.6900
 0.8120	12.6400
 0.8160	12.6500
 0.8200	12.6100
 0.8240	12.6700
 0.8280	12.6500
 0.8320	12.6000
 0.8360	12.6200
 0.8400	12.5900
 0.8440	12.5600
 0.8480	12.5900
 0.8520	12.5700
 0.8560	12.5800
 0.8600	12.6000
 0.8640	12.5400
 0.8680	12.5000
 0.8720	12.4900
 0.8760	12.5100
 0.8800	12.4400
 0.8840	12.4800
 0.8880	12.4400
 0.8920	12.5000
 0.8960	12.4200
 0.9000	12.4100
 0.9040	12.4400
 0.9080	12.4300
 0.9120	12.3900
 0.9160	12.4400
 0.9200	12.3900
 0.9240	12.3600
 0.9280	12.4100
 0.9320	12.4000
 0.9360	12.3800
 0.9400	12.4000
 0.9440	12.4400
 0.9480	12.4400
 0.9520	12.4200
 0.9560	12.3900
 0.9600	12.3900
 0.9640	12.4000
 0.9680	12.3400
 0.9720	12.3800
 0.9760	12.3900
 0.9800	12.3900
 0.9840	12.3100
 0.9880	12.3700
 0.9920	12.3200
 0.9960	12.3900
 1.0000	12.3200
 1.0040	12.4300
 1.0080	12.4100
 1.0120	12.3000
 1.0160	12.3300
 1.0200	12.2800
 1.0240	12.2500
 1.0280	12.3600
 1.0320	12.2800
 1.0360	12.3600
 1.0400	12.3900
 1.0440	12.3400
 1.0480	12.3300
 1.0520	12.3300
 1.0560	12.3100
 1.0600	12.3100
 1.0640	12.2800
 1.0680	12.3200
 1.0720	12.2300
 1.0760	12.2600
 1.0800	12.3000
 1.0840	12.3000
 1.0880	12.2600
 1.0920	12.2300
 1.0960	12.2300
 1.1000	12.2400
 1.1040	12.2700
 1.1080	12.3100
 1.1120	12.2400
 1.1160	12.2200
 1.1200	12.2600
 1.1240	12.2600
 1.1280	12.2500
 1.1320	12.2700
 1.1360	12.2400
 1.1400	12.1600
 1.1440	12.1700
 1.1480	12.1700
 1.1520	12.2400
 1.1560	12.2000
 1.1600	12.1600
 1.1640	12.1600
 1.1680	12.1600
 1.1720	12.1700
 1.1760	12.1600
 1.1800	12.1600
 1.1840	12.1200
 1.1880	12.1600
 1.1920	12.1500
 1.1960	12.1000
 1.2000	12.0900
 1.2040	12.0800
 1.2080	12.1600
 1.2120	12.1000
 1.2160	12.1300
 1.2200	12.1400
 1.2240	12.2100
 1.2280	12.2000
 1.2320	12.2000
 1.2360	12.2100
 1.2400	12.1800
 1.2440	12.2000
 1.2480	12.1800
 1.2520	12.2200
 1.2560	12.2200
 1.2600	12.2200
 1.2640	12.2400
 1.2680	12.2600
 1.2720	12.2900
 1.2760	12.2500
 1.2800	12.2100
 1.2840	12.3200
 1.2880	12.2800
 1.2920	12.2400
 1.2960	12.2600
 1.3000	12.2500
 1.3040	12.2600
 1.3080	12.2400
 1.3120	12.2800
 1.3160	12.2600
 1.3200	12.3000
 1.3240	12.2900
 1.3280	12.2800
 1.3320	12.2000
 1.3360	12.2500
 1.3400	12.2700
 1.3440	12.2700
 1.3480	12.2700
 1.3520	12.2700
 1.3560	12.2200
 1.3600	12.2800
 1.3640	12.3800
 1.3680	12.3400
 1.3720	12.2800
 1.3760	12.2300
 1.3800	12.2600
 1.3840	12.2600
 1.3880	12.2700
 1.3920	12.2800
 1.3960	12.2900
 1.4000	12.2800
 1.4040	12.3400
 1.4080	12.3400
 1.4120	12.3100
 1.4160	12.2700
 1.4200	12.2500
 1.4240	12.3500
 1.4280	12.3400
 1.4320	12.3400
 1.4360	12.3700
 1.4400	12.3900
 1.4440	12.4100
 1.4480	12.3700
 1.4520	12.3900
 1.4560	12.4200
 1.4600	12.3400
 1.4640	12.3200
 1.4680	12.3800
 1.4720	12.4200
 1.4760	12.3800
 1.4800	12.3600
 1.4840	12.3900
 1.4880	12.3100
 1.4920	12.3000
 1.4960	12.3000
 1.5000	12.3300
 1.5040	12.3000
 1.5080	12.3600
 1.5120	12.3300
 1.5160	12.4200
 1.5200	12.3400
 1.5240	12.3700
 1.5280	12.3300
 1.5320	12.3100
 1.5360	12.3600
 1.5400	12.3900
 1.5440	12.4300
 1.5480	12.4200
 1.5520	12.3700
 1.5560	12.4100
 1.5600	12.3200
 1.5640	12.3700
 1.5680	12.4000
 1.5720	12.4000
 1.5760	12.4200
 1.5800	12.3300
 1.5840	12.3500
 1.5880	12.4200
 1.5920	12.4000
 1.5960	12.4200
 1.6000	12.4700
 1.6040	12.4300
 1.6080	12.4400
 1.6120	12.4200
 1.6160	12.4500
 1.6200	12.4200
 1.6240	12.3900
 1.6280	12.3600
 1.6320	12.4000
 1.6360	12.4500
 1.6400	12.4300
 1.6440	12.4600
 1.6480	12.4100
 1.6520	12.4100
 1.6560	12.4100
 1.6600	12.4800
 1.6640	12.4500
 1.6680	12.4900
 1.6720	12.4400
 1.6760	12.4500
 1.6800	12.4300
 1.6840	12.4500
 1.6880	12.5300
 1.6920	12.4800
 1.6960	12.4900
 1.7000	12.4800
 1.7040	12.4700
 1.7080	12.4700
 1.7120	12.3900
 1.7160	12.3900
 1.7200	12.4800
 1.7240	12.4100
 1.7280	12.4400
 1.7320	12.3900
 1.7360	12.4400
 1.7400	12.3900
 1.7440	12.4200
 1.7480	12.4300
 1.7520	12.4400
 1.7560	12.4300
 1.7600	12.4100
 1.7640	12.3500
 1.7680	12.4200
 1.7720	12.3600
 1.7760	12.3900
 1.7800	12.3600
 1.7840	12.4200
 1.7880	12.3800
 1.7920	12.3700
 1.7960	12.4300
 1.8000	12.4100
 1.8040	12.4100
 1.8080	12.4600
 1.8120	12.4600
 1.8160	12.3900
 1.8200	12.4600
 1.8240	12.4200
 1.8280	12.4000
 1.8320	12.4300
 1.8360	12.4400
 1.8400	12.4000
 1.8440	12.3700
 1.8480	12.3600
 1.8520	12.3600
 1.8560	12.4100
 1.8600	12.3400
 1.8640	12.3400
 1.8680	12.3000
 1.8720	12.3100
 1.8760	12.3000
 1.8800	12.3200
 1.8840	12.3200
 1.8880	12.3300
 1.8920	12.3100
 1.8960	12.3300
 1.9000	12.4100
 1.9040	12.3500
 1.9080	12.3200
 1.9120	12.3500
 1.9160	12.3900
 1.9200	12.4100
 1.9240	12.3900
 1.9280	12.3200
 1.9320	12.2900
 1.9360	12.3200
 1.9400	12.3200
 1.9440	12.3700
 1.9480	12.3100
 1.9520	12.2400
 1.9560	12.3000
 1.9600	12.3000
 1.9640	12.3000
 1.9680	12.3600
 1.9720	12.3100
 1.9760	12.2700
 1.9800	12.3000
 1.9840	12.2900
 1.9880	12.2900
 1.9920	12.3400
 1.9960	12.3000
 2.0000	12.3100
 2.0040	12.3100
 2.0080	12.3700
 2.0120	12.3700
 2.0160	12.3900
 2.0200	12.4100
 2.0240	12.4300
 2.0280	12.3700
 2.0320	12.4100
 2.0360	12.4600
 2.0400	12.4400
 2.0440	12.3900
 2.0480	12.3800
 2.0520	12.4200
 2.0560	12.4300
 2.0600	12.3800
 2.0640	12.4000
 2.0680	12.4200
 2.0720	12.4000
 2.0760	12.3700
 2.0800	12.4100
 2.0840	12.4400
 2.0880	12.3600
 2.0920	12.4200
 2.0960	12.4100
 2.1000	12.4000
 2.1040	12.3500
 2.1080	12.3800
 2.1120	12.3800
 2.1160	12.3600
 2.1200	12.3600
 2.1240	12.3400
 2.1280	12.3700
 2.1320	12.3400
 2.1360	12.3400
 2.1400	12.3400
 2.1440	12.3700
 2.1480	12.3600
 2.1520	12.3500
 2.1560	12.3400
 2.1600	12.3600
 2.1640	12.3200
 2.1680	12.3500
 2.1720	12.3600
 2.1760	12.3500
 2.1800	12.3000
 2.1840	12.3300
 2.1880	12.2800
 2.1920	12.3300
 2.1960	12.3500
 2.2000	12.3700
 2.2040	12.3300
 2.2080	12.3100
 2.2120	12.3400
 2.2160	12.3500
 2.2200	12.3700
 2.2240	12.3000
 2.2280	12.3700
 2.2320	12.3500
 2.2360	12.3400
 2.2400	12.3000
 2.2440	12.3200
 2.2480	12.3400
 2.2520	12.3200
 2.2560	12.2800
 2.2600	12.3700
 2.2640	12.2800
 2.2680	12.3000
 2.2720	12.2900
 2.2760	12.3100
 2.2800	12.3600
 2.2840	12.3700
 2.2880	12.3900
 2.2920	12.4300
 2.2960	12.3700
 2.3000	12.3900
 2.3040	12.3700
 2.3080	12.3100
 2.3120	12.3700
 2.3160	12.3400
 2.3200	12.3700
 2.3240	12.3500
 2.3280	12.3700
 2.3320	12.3300
 2.3360	12.3800
 2.3400	12.4100
 2.3440	12.4200
 2.3480	12.3900
 2.3520	12.4200
 2.3560	12.4100
 2.3600	12.4700
 2.3640	12.4100
 2.3680	12.4100
 2.3720	12.3800
 2.3760	12.3800
 2.3800	12.3600
 2.3840	12.4600
 2.3880	12.4200
 2.3920	12.3800
 2.3960	12.4400
 2.4000	12.4300
 2.4040	12.4300
 2.4080	12.4400
 2.4120	12.3900
 2.4160	12.3800
 2.4200	12.4600
 2.4240	12.3900
 2.4280	12.4400
 2.4320	12.4500
 2.4360	12.4200
 2.4400	12.4300
 2.4440	12.4200
 2.4480	12.3800
 2.4520	12.3700
 2.4560	12.3500
 2.4600	12.3800
 2.4640	12.3500
 2.4680	12.3200
 2.4720	12.3000
 2.4760	12.3100
 2.4800	12.3400
 2.4840	12.4000
 2.4880	12.3900
 2.4920	12.4100
 2.4960	12.3900
 2.5000	12.4300
