Name: Dickite Al_2Si_2O_5(OH)_4
Type: Mineral
Class: Silicate
Subclass: Phyllosilicate
Particle Size: Fine
Sample No.: PS-3A
Owner: JPL
Wavelength Range: VSWIR
Origin: Mexico, San Juanito.
Collection Date: N/A
Description: Particle size was 0-45um. Collected by:  Ward's Original ASTER Spectral Library name was jpl.perkin.mineral.silicate.phyllosilicate.fine.ps03a.spectrum.txt
Measurement: Hemispherical reflectance
First Column: X
Second Column: Y
X Units: Wavelength (micrometers)
Y Units:Reflectance (percent)
First X Value:  2.5000
Last X Value:  0.4000
Number of X Values: 2101
Additional Information: mineral.silicate.phyllosilicate.fine.vswir.ps-3a.jpl.perkin.ancillary.txt

 2.5000	43.7931
 2.4990	43.8159
 2.4980	43.9345
 2.4970	44.2020
 2.4960	43.9452
 2.4950	44.4492
 2.4940	44.3774
 2.4930	44.5262
 2.4920	44.4620
 2.4910	44.5576
 2.4900	44.7149
 2.4890	44.8120
 2.4880	44.8222
 2.4870	44.9142
 2.4860	44.9232
 2.4850	45.1337
 2.4840	45.1703
 2.4830	45.3490
 2.4820	45.3569
 2.4810	45.6771
 2.4800	45.5809
 2.4790	45.8500
 2.4780	45.8621
 2.4770	46.1781
 2.4760	46.0829
 2.4750	46.5211
 2.4740	46.4967
 2.4730	46.7957
 2.4720	46.9446
 2.4710	47.0897
 2.4700	47.1573
 2.4690	47.4659
 2.4680	47.5032
 2.4670	47.6078
 2.4660	47.6352
 2.4650	47.8087
 2.4640	47.8611
 2.4630	48.0248
 2.4620	47.9465
 2.4610	48.1654
 2.4600	48.1006
 2.4590	48.3205
 2.4580	48.3833
 2.4570	48.3771
 2.4560	48.4059
 2.4550	48.5812
 2.4540	48.4174
 2.4530	48.4930
 2.4520	48.4841
 2.4510	48.6120
 2.4500	48.5324
 2.4490	48.7337
 2.4480	48.6635
 2.4470	48.6440
 2.4460	48.7442
 2.4450	48.8775
 2.4440	48.7556
 2.4430	48.8579
 2.4420	48.8976
 2.4410	48.9918
 2.4400	49.0964
 2.4390	49.2288
 2.4380	49.2429
 2.4370	49.3690
 2.4360	49.3858
 2.4350	49.5761
 2.4340	49.6305
 2.4330	49.7957
 2.4320	50.0262
 2.4310	50.2758
 2.4300	50.3314
 2.4290	50.5981
 2.4280	50.6702
 2.4270	50.7742
 2.4260	50.9157
 2.4250	51.1951
 2.4240	51.2479
 2.4230	51.4885
 2.4220	51.5206
 2.4210	51.7118
 2.4200	51.8435
 2.4190	51.9813
 2.4180	52.0747
 2.4170	52.1839
 2.4160	52.1942
 2.4150	52.2418
 2.4140	52.2161
 2.4130	52.2665
 2.4120	52.2998
 2.4110	52.3115
 2.4100	52.2999
 2.4090	52.2302
 2.4080	52.1773
 2.4070	52.1661
 2.4060	52.1054
 2.4050	52.0778
 2.4040	51.9530
 2.4030	51.8533
 2.4020	51.7843
 2.4010	51.7223
 2.4000	51.4656
 2.3990	51.3780
 2.3980	51.1275
 2.3970	50.9642
 2.3960	50.8322
 2.3950	50.6462
 2.3940	50.4090
 2.3930	50.2372
 2.3920	50.0339
 2.3910	49.8633
 2.3900	49.7140
 2.3890	49.4946
 2.3880	49.3676
 2.3870	49.2924
 2.3860	49.1572
 2.3850	49.1285
 2.3840	49.0853
 2.3830	49.0990
 2.3820	48.9996
 2.3810	49.0341
 2.3800	49.1415
 2.3790	49.2913
 2.3780	49.4193
 2.3770	49.6020
 2.3760	49.7708
 2.3750	49.9852
 2.3740	50.2006
 2.3730	50.5248
 2.3720	50.7950
 2.3710	51.0024
 2.3700	51.3129
 2.3690	51.5190
 2.3680	51.7543
 2.3670	51.9796
 2.3660	52.2020
 2.3650	52.4126
 2.3640	52.5132
 2.3630	52.6982
 2.3620	52.7978
 2.3610	52.8529
 2.3600	52.9504
 2.3590	53.0821
 2.3580	53.1055
 2.3570	53.1134
 2.3560	53.2213
 2.3550	53.2781
 2.3540	53.3000
 2.3530	53.3413
 2.3520	53.4294
 2.3510	53.5455
 2.3500	53.6223
 2.3490	53.7227
 2.3480	53.8805
 2.3470	54.0427
 2.3460	54.2467
 2.3450	54.4544
 2.3440	54.6585
 2.3430	54.8141
 2.3420	55.0401
 2.3410	55.2645
 2.3400	55.5002
 2.3390	55.6957
 2.3380	55.9237
 2.3370	56.1115
 2.3360	56.3354
 2.3350	56.5565
 2.3340	56.7083
 2.3330	56.8685
 2.3320	57.0373
 2.3310	57.1001
 2.3300	57.2196
 2.3290	57.2851
 2.3280	57.3644
 2.3270	57.4703
 2.3260	57.5741
 2.3250	57.6008
 2.3240	57.5673
 2.3230	57.5365
 2.3220	57.6218
 2.3210	57.6811
 2.3200	57.7056
 2.3190	57.7027
 2.3180	57.6746
 2.3170	57.6742
 2.3160	57.6529
 2.3150	57.5775
 2.3140	57.6194
 2.3130	57.5654
 2.3120	57.6536
 2.3110	57.6249
 2.3100	57.6467
 2.3090	57.6215
 2.3080	57.6536
 2.3070	57.6488
 2.3060	57.6329
 2.3050	57.6688
 2.3040	57.7639
 2.3030	57.8970
 2.3020	58.0219
 2.3010	58.0113
 2.3000	58.2225
 2.2990	58.4163
 2.2980	58.5224
 2.2970	58.7014
 2.2960	58.9668
 2.2950	59.1002
 2.2940	59.3911
 2.2930	59.6073
 2.2920	59.9232
 2.2910	60.2373
 2.2900	60.5148
 2.2890	60.7118
 2.2880	61.0815
 2.2870	61.3855
 2.2860	61.6283
 2.2850	61.9278
 2.2840	62.2978
 2.2830	62.5464
 2.2820	62.8254
 2.2810	63.1165
 2.2800	63.3517
 2.2790	63.5521
 2.2780	63.7842
 2.2770	64.0006
 2.2760	64.1739
 2.2750	64.2730
 2.2740	64.4152
 2.2730	64.4803
 2.2720	64.6354
 2.2710	64.7512
 2.2700	64.8083
 2.2690	64.8298
 2.2680	64.9620
 2.2670	64.9531
 2.2660	64.9063
 2.2650	64.9249
 2.2640	64.9582
 2.2630	64.8733
 2.2620	64.8403
 2.2610	64.6991
 2.2600	64.8314
 2.2590	64.7183
 2.2580	64.8309
 2.2570	64.7841
 2.2560	64.8712
 2.2550	64.9224
 2.2540	65.0634
 2.2530	65.0938
 2.2520	65.2949
 2.2510	65.4675
 2.2500	65.5987
 2.2490	65.7645
 2.2480	65.9780
 2.2470	66.2231
 2.2460	66.4411
 2.2450	66.5876
 2.2440	66.8296
 2.2430	67.0300
 2.2420	67.2264
 2.2410	67.2810
 2.2400	67.3702
 2.2390	67.5242
 2.2380	67.6374
 2.2370	67.5867
 2.2360	67.5776
 2.2350	67.4590
 2.2340	67.4544
 2.2330	67.2894
 2.2320	67.0553
 2.2310	66.9410
 2.2300	66.6368
 2.2290	66.3022
 2.2280	65.9217
 2.2270	65.4213
 2.2260	64.9980
 2.2250	64.3730
 2.2240	63.8235
 2.2230	63.1479
 2.2220	62.3960
 2.2210	61.6013
 2.2200	60.8645
 2.2190	59.8512
 2.2180	59.0882
 2.2170	58.0701
 2.2160	57.0420
 2.2150	55.8718
 2.2140	54.7749
 2.2130	53.6080
 2.2120	52.5795
 2.2110	51.3120
 2.2100	50.4602
 2.2090	49.4347
 2.2080	48.6082
 2.2070	47.8560
 2.2060	47.4929
 2.2050	47.1161
 2.2040	47.0275
 2.2030	47.0518
 2.2020	47.4820
 2.2010	47.7892
 2.2000	48.5583
 2.1990	49.1949
 2.1980	50.0475
 2.1970	50.6983
 2.1960	51.5304
 2.1950	52.0654
 2.1940	52.4060
 2.1930	52.7093
 2.1920	52.7669
 2.1910	52.7516
 2.1900	52.6091
 2.1890	52.1520
 2.1880	51.7780
 2.1870	51.0715
 2.1860	50.4860
 2.1850	49.9095
 2.1840	49.3788
 2.1830	48.8460
 2.1820	48.4967
 2.1810	48.1926
 2.1800	48.0162
 2.1790	47.8923
 2.1780	48.0790
 2.1770	48.2319
 2.1760	48.5742
 2.1750	48.9413
 2.1740	49.4522
 2.1730	49.9142
 2.1720	50.5209
 2.1710	51.0573
 2.1700	51.7407
 2.1690	52.3183
 2.1680	52.9852
 2.1670	53.6340
 2.1660	54.3216
 2.1650	55.0457
 2.1640	55.7340
 2.1630	56.2928
 2.1620	56.9750
 2.1610	57.6737
 2.1600	58.3046
 2.1590	58.8515
 2.1580	59.4438
 2.1570	59.9793
 2.1560	60.5807
 2.1550	61.0271
 2.1540	61.5018
 2.1530	61.8070
 2.1520	62.3193
 2.1510	62.6571
 2.1500	63.0821
 2.1490	63.4151
 2.1480	63.7843
 2.1470	64.1316
 2.1460	64.4484
 2.1450	64.8369
 2.1440	65.3139
 2.1430	65.6153
 2.1420	66.0547
 2.1410	66.4697
 2.1400	66.9752
 2.1390	67.3964
 2.1380	67.8781
 2.1370	68.2828
 2.1360	68.6871
 2.1350	69.1291
 2.1340	69.6261
 2.1330	69.9839
 2.1320	70.3787
 2.1310	70.7178
 2.1300	71.0938
 2.1290	71.3768
 2.1280	71.6403
 2.1270	71.9370
 2.1260	72.1135
 2.1250	72.2765
 2.1240	72.4710
 2.1230	72.5053
 2.1220	72.5359
 2.1210	72.5185
 2.1200	72.5546
 2.1190	72.4812
 2.1180	72.4920
 2.1170	72.4018
 2.1160	72.2459
 2.1150	72.1241
 2.1140	72.1250
 2.1130	72.1502
 2.1120	72.1051
 2.1110	72.1000
 2.1100	72.2218
 2.1090	72.3589
 2.1080	72.5412
 2.1070	72.7882
 2.1060	73.0573
 2.1050	73.2410
 2.1040	73.4937
 2.1030	73.7466
 2.1020	73.9278
 2.1010	74.1003
 2.1000	74.2504
 2.0990	74.3696
 2.0980	74.3942
 2.0970	74.5291
 2.0960	74.6755
 2.0950	74.7002
 2.0940	74.7357
 2.0930	74.7719
 2.0920	74.8150
 2.0910	74.8836
 2.0900	74.9740
 2.0890	75.0948
 2.0880	75.1953
 2.0870	75.3401
 2.0860	75.4865
 2.0850	75.5971
 2.0840	75.7670
 2.0830	75.9320
 2.0820	76.0747
 2.0810	76.2412
 2.0800	76.3945
 2.0790	76.5747
 2.0780	76.7340
 2.0770	76.8609
 2.0760	76.9760
 2.0750	77.1163
 2.0740	77.2884
 2.0730	77.4393
 2.0720	77.5209
 2.0710	77.6910
 2.0700	77.8303
 2.0690	77.8878
 2.0680	77.9682
 2.0670	78.0178
 2.0660	78.0847
 2.0650	78.1474
 2.0640	78.1811
 2.0630	78.2628
 2.0620	78.3822
 2.0610	78.4902
 2.0600	78.5569
 2.0590	78.6074
 2.0580	78.6821
 2.0570	78.7870
 2.0560	78.8930
 2.0550	79.0618
 2.0540	79.2721
 2.0530	79.3576
 2.0520	79.4196
 2.0510	79.5770
 2.0500	79.7030
 2.0490	79.9016
 2.0480	79.9827
 2.0470	80.0368
 2.0460	80.1526
 2.0450	80.2895
 2.0440	80.4252
 2.0430	80.4537
 2.0420	80.5361
 2.0410	80.7088
 2.0400	80.7397
 2.0390	80.8264
 2.0380	80.9085
 2.0370	80.9670
 2.0360	81.0845
 2.0350	81.1824
 2.0340	81.2724
 2.0330	81.3426
 2.0320	81.3884
 2.0310	81.4475
 2.0300	81.5554
 2.0290	81.6061
 2.0280	81.6060
 2.0270	81.6950
 2.0260	81.7942
 2.0250	81.8354
 2.0240	81.9057
 2.0230	81.9578
 2.0220	82.0168
 2.0210	82.1319
 2.0200	82.1953
 2.0190	82.2117
 2.0180	82.2413
 2.0170	82.3267
 2.0160	82.4033
 2.0150	82.4383
 2.0140	82.5038
 2.0130	82.5535
 2.0120	82.6109
 2.0110	82.5774
 2.0100	82.6232
 2.0090	82.5842
 2.0080	82.7120
 2.0070	82.8547
 2.0060	82.8174
 2.0050	82.8024
 2.0040	82.8219
 2.0030	82.8601
 2.0020	82.9053
 2.0010	82.8916
 2.0000	82.8880
 1.9990	82.8707
 1.9980	82.8682
 1.9970	82.9677
 1.9960	82.9126
 1.9950	82.8993
 1.9940	82.8520
 1.9930	82.9123
 1.9920	83.0315
 1.9910	82.9896
 1.9900	83.0404
 1.9890	83.0213
 1.9880	83.0267
 1.9870	83.0624
 1.9860	83.1579
 1.9850	82.9704
 1.9840	83.0600
 1.9830	83.1005
 1.9820	83.0516
 1.9810	83.1338
 1.9800	83.0924
 1.9790	83.2089
 1.9780	83.1902
 1.9770	83.1447
 1.9760	83.1795
 1.9750	83.2455
 1.9740	83.1660
 1.9730	83.1524
 1.9720	83.1193
 1.9710	83.1857
 1.9700	83.1911
 1.9690	83.1870
 1.9680	83.2259
 1.9670	83.1314
 1.9660	83.1203
 1.9650	83.1917
 1.9640	83.1175
 1.9630	83.1151
 1.9620	83.0506
 1.9610	83.0819
 1.9600	83.0865
 1.9590	83.0153
 1.9580	83.0303
 1.9570	82.9870
 1.9560	83.0684
 1.9550	83.0777
 1.9540	83.0354
 1.9530	83.0650
 1.9520	83.1306
 1.9510	83.1089
 1.9500	83.0525
 1.9490	83.0717
 1.9480	83.1511
 1.9470	83.1109
 1.9460	83.1398
 1.9450	83.1002
 1.9440	83.2186
 1.9430	83.1996
 1.9420	83.2421
 1.9410	83.3181
 1.9400	83.3090
 1.9390	83.3980
 1.9380	83.3227
 1.9370	83.4297
 1.9360	83.3171
 1.9350	83.5019
 1.9340	83.5424
 1.9330	83.6403
 1.9320	83.5838
 1.9310	83.6743
 1.9300	83.7695
 1.9290	83.5924
 1.9280	83.7436
 1.9270	83.8852
 1.9260	83.9105
 1.9250	83.9751
 1.9240	83.9745
 1.9230	84.0731
 1.9220	84.0860
 1.9210	84.1837
 1.9200	84.1997
 1.9190	84.2216
 1.9180	84.3047
 1.9170	84.3618
 1.9160	84.4271
 1.9150	84.4802
 1.9140	84.4305
 1.9130	84.5302
 1.9120	84.6096
 1.9110	84.7266
 1.9100	84.7859
 1.9090	84.7707
 1.9080	84.8956
 1.9070	84.9183
 1.9060	85.0405
 1.9050	85.0843
 1.9040	85.2102
 1.9030	85.3077
 1.9020	85.3646
 1.9010	85.5108
 1.9000	85.5454
 1.8990	85.6669
 1.8980	85.7145
 1.8970	85.8708
 1.8960	85.9301
 1.8950	85.9016
 1.8940	86.0315
 1.8930	86.2114
 1.8920	86.1848
 1.8910	86.1701
 1.8900	86.3258
 1.8890	86.3314
 1.8880	86.4439
 1.8870	86.4834
 1.8860	86.5534
 1.8850	86.6065
 1.8840	86.6599
 1.8830	86.6965
 1.8820	86.7470
 1.8810	86.8376
 1.8800	86.8471
 1.8790	86.8752
 1.8780	86.9326
 1.8770	86.9644
 1.8760	86.9522
 1.8750	86.9593
 1.8740	87.0285
 1.8730	87.1127
 1.8720	87.1371
 1.8710	87.1655
 1.8700	87.1997
 1.8690	87.2716
 1.8680	87.1883
 1.8670	87.1940
 1.8660	87.2436
 1.8650	87.2270
 1.8640	87.2366
 1.8630	87.2956
 1.8620	87.3405
 1.8610	87.3047
 1.8600	87.3000
 1.8590	87.1997
 1.8580	87.2483
 1.8570	87.2510
 1.8560	87.2021
 1.8550	87.1361
 1.8540	87.1508
 1.8530	87.0430
 1.8520	86.9887
 1.8510	86.9657
 1.8500	86.8373
 1.8490	86.6668
 1.8480	86.5648
 1.8470	86.4392
 1.8460	86.1797
 1.8450	86.0662
 1.8440	85.9005
 1.8430	85.7813
 1.8420	85.6363
 1.8410	85.5266
 1.8400	85.4106
 1.8390	85.3977
 1.8380	85.3454
 1.8370	85.3097
 1.8360	85.2333
 1.8350	85.1750
 1.8340	85.2401
 1.8330	85.2423
 1.8320	85.2510
 1.8310	85.2146
 1.8300	85.2407
 1.8290	85.1987
 1.8280	85.1441
 1.8270	85.1369
 1.8260	85.2015
 1.8250	85.2537
 1.8240	85.2368
 1.8230	85.2454
 1.8220	85.2632
 1.8210	85.3395
 1.8200	85.4517
 1.8190	85.4588
 1.8180	85.4660
 1.8170	85.4653
 1.8160	85.4778
 1.8150	85.5287
 1.8140	85.5316
 1.8130	85.5416
 1.8120	85.5683
 1.8110	85.5473
 1.8100	85.5025
 1.8090	85.5411
 1.8080	85.5444
 1.8070	85.5149
 1.8060	85.5235
 1.8050	85.5411
 1.8040	85.5231
 1.8030	85.5477
 1.8020	85.5067
 1.8010	85.4600
 1.8000	85.4977
 1.7990	85.5346
 1.7980	85.5537
 1.7970	85.5887
 1.7960	85.6059
 1.7950	85.6339
 1.7940	85.6878
 1.7930	85.7519
 1.7920	85.7883
 1.7910	85.7875
 1.7900	85.8651
 1.7890	85.9542
 1.7880	86.0543
 1.7870	86.1410
 1.7860	86.1945
 1.7850	86.2821
 1.7840	86.4200
 1.7830	86.5371
 1.7820	86.6217
 1.7810	86.7055
 1.7800	86.7853
 1.7790	86.8699
 1.7780	86.9915
 1.7770	87.0435
 1.7760	87.0865
 1.7750	87.1628
 1.7740	87.2735
 1.7730	87.3777
 1.7720	87.3841
 1.7710	87.3725
 1.7700	87.4480
 1.7690	87.5490
 1.7680	87.6516
 1.7670	87.7703
 1.7660	87.8272
 1.7650	87.8378
 1.7640	87.8691
 1.7630	87.9859
 1.7620	88.0591
 1.7610	88.0823
 1.7600	88.0588
 1.7590	88.0593
 1.7580	88.1042
 1.7570	88.1287
 1.7560	88.1211
 1.7550	88.1557
 1.7540	88.2097
 1.7530	88.1577
 1.7520	88.2227
 1.7510	88.3558
 1.7500	88.3108
 1.7490	88.2974
 1.7480	88.4201
 1.7470	88.3973
 1.7460	88.3933
 1.7450	88.3759
 1.7440	88.4621
 1.7430	88.4975
 1.7420	88.4520
 1.7410	88.5318
 1.7400	88.5526
 1.7390	88.5985
 1.7380	88.6505
 1.7370	88.7500
 1.7360	88.7692
 1.7350	88.8310
 1.7340	88.8339
 1.7330	88.8805
 1.7320	88.9067
 1.7310	88.9562
 1.7300	89.0351
 1.7290	89.1246
 1.7280	89.1405
 1.7270	89.2130
 1.7260	89.3227
 1.7250	89.2831
 1.7240	89.2822
 1.7230	89.3543
 1.7220	89.3054
 1.7210	89.3137
 1.7200	89.3902
 1.7190	89.3945
 1.7180	89.4511
 1.7170	89.4757
 1.7160	89.5323
 1.7150	89.5266
 1.7140	89.5537
 1.7130	89.5234
 1.7120	89.5261
 1.7110	89.5329
 1.7100	89.6023
 1.7090	89.6321
 1.7080	89.6418
 1.7070	89.7035
 1.7060	89.7532
 1.7050	89.7597
 1.7040	89.8060
 1.7030	89.7728
 1.7020	89.8307
 1.7010	89.8481
 1.7000	89.9427
 1.6990	89.8814
 1.6980	89.8761
 1.6970	89.8850
 1.6960	89.8842
 1.6950	89.9453
 1.6940	89.9792
 1.6930	90.0184
 1.6920	90.0056
 1.6910	90.0992
 1.6900	90.0822
 1.6890	90.0223
 1.6880	90.0634
 1.6870	90.0773
 1.6860	90.1599
 1.6850	90.1651
 1.6840	90.1467
 1.6830	90.2060
 1.6820	90.1950
 1.6810	90.1156
 1.6800	90.2373
 1.6790	90.2811
 1.6780	90.3220
 1.6770	90.1695
 1.6760	90.3520
 1.6750	90.2595
 1.6740	90.4376
 1.6730	90.3333
 1.6720	90.3287
 1.6710	90.2968
 1.6700	90.3660
 1.6690	90.3519
 1.6680	90.3172
 1.6670	90.4402
 1.6660	90.3649
 1.6650	90.4386
 1.6640	90.5023
 1.6630	90.4760
 1.6620	90.5160
 1.6610	90.5233
 1.6600	90.4507
 1.6590	90.5378
 1.6580	90.5432
 1.6570	90.5354
 1.6560	90.5450
 1.6550	90.4605
 1.6540	90.5426
 1.6530	90.5540
 1.6520	90.6341
 1.6510	90.6166
 1.6500	90.6286
 1.6490	90.6025
 1.6480	90.5936
 1.6470	90.6547
 1.6460	90.6615
 1.6450	90.8543
 1.6440	90.6371
 1.6430	90.6490
 1.6420	90.7609
 1.6410	90.7413
 1.6400	90.7763
 1.6390	90.7193
 1.6380	90.6977
 1.6370	90.6980
 1.6360	90.8493
 1.6350	90.7834
 1.6340	90.7146
 1.6330	90.7485
 1.6320	90.7769
 1.6310	90.7536
 1.6300	90.8068
 1.6290	90.7967
 1.6280	90.8920
 1.6270	90.7947
 1.6260	90.6799
 1.6250	90.8910
 1.6240	90.8754
 1.6230	90.8793
 1.6220	90.8641
 1.6210	90.8080
 1.6200	90.9399
 1.6190	90.9351
 1.6180	90.8490
 1.6170	90.9685
 1.6160	90.9003
 1.6150	90.9090
 1.6140	90.9700
 1.6130	91.1158
 1.6120	91.0163
 1.6110	91.0134
 1.6100	91.0822
 1.6090	91.0727
 1.6080	91.1180
 1.6070	91.1547
 1.6060	91.1933
 1.6050	91.1236
 1.6040	91.1498
 1.6030	91.0262
 1.6020	91.0838
 1.6010	91.2438
 1.6000	91.1764
 1.5990	91.1731
 1.5980	91.2058
 1.5970	91.1629
 1.5960	91.1761
 1.5950	91.1342
 1.5940	91.1409
 1.5930	91.1865
 1.5920	91.0572
 1.5910	91.1720
 1.5900	91.2323
 1.5890	91.2271
 1.5880	91.2317
 1.5870	91.1431
 1.5860	91.0830
 1.5850	91.1596
 1.5840	91.1699
 1.5830	91.1787
 1.5820	91.1578
 1.5810	91.1151
 1.5800	91.1802
 1.5790	91.1803
 1.5780	91.1004
 1.5770	91.1964
 1.5760	91.2452
 1.5750	91.2568
 1.5740	91.1762
 1.5730	91.1388
 1.5720	91.2032
 1.5710	91.1833
 1.5700	91.1877
 1.5690	91.2254
 1.5680	91.1122
 1.5670	91.1497
 1.5660	91.1609
 1.5650	91.1244
 1.5640	91.1284
 1.5630	91.1619
 1.5620	91.1483
 1.5610	91.1138
 1.5600	91.1607
 1.5590	91.1430
 1.5580	91.0615
 1.5570	91.1088
 1.5560	91.1843
 1.5550	91.0780
 1.5540	91.0804
 1.5530	91.1169
 1.5520	91.1188
 1.5510	91.1288
 1.5500	91.1489
 1.5490	91.0499
 1.5480	91.1166
 1.5470	91.0871
 1.5460	91.1178
 1.5450	91.1140
 1.5440	91.1341
 1.5430	91.1592
 1.5420	91.1571
 1.5410	91.0693
 1.5400	91.0689
 1.5390	91.0903
 1.5380	91.0889
 1.5370	91.0398
 1.5360	90.9917
 1.5350	91.0808
 1.5340	91.0575
 1.5330	91.0546
 1.5320	91.0441
 1.5310	91.0308
 1.5300	91.0672
 1.5290	91.0131
 1.5280	90.9816
 1.5270	90.9590
 1.5260	90.9626
 1.5250	90.9418
 1.5240	90.9824
 1.5230	90.9787
 1.5220	90.9540
 1.5210	90.9727
 1.5200	90.9352
 1.5190	90.8811
 1.5180	90.8622
 1.5170	90.9280
 1.5160	90.9145
 1.5150	90.8497
 1.5140	90.8103
 1.5130	90.8420
 1.5120	90.8529
 1.5110	90.8388
 1.5100	90.8152
 1.5090	90.8661
 1.5080	90.9036
 1.5070	90.8415
 1.5060	90.8249
 1.5050	90.8249
 1.5040	90.7938
 1.5030	90.7828
 1.5020	90.8129
 1.5010	90.8086
 1.5000	90.7995
 1.4990	90.7878
 1.4980	90.7605
 1.4970	90.8541
 1.4960	90.8392
 1.4950	90.7413
 1.4940	90.7810
 1.4930	90.8059
 1.4920	90.7776
 1.4910	90.7249
 1.4900	90.7443
 1.4890	90.7303
 1.4880	90.6941
 1.4870	90.7536
 1.4860	90.7389
 1.4850	90.7120
 1.4840	90.7305
 1.4830	90.7529
 1.4820	90.7323
 1.4810	90.7353
 1.4800	90.7601
 1.4790	90.7523
 1.4780	90.2169
 1.4770	90.3758
 1.4760	90.7584
 1.4750	90.7163
 1.4740	90.7004
 1.4730	90.5960
 1.4720	90.5085
 1.4710	90.5211
 1.4700	90.4516
 1.4690	90.3771
 1.4680	90.3884
 1.4670	90.3814
 1.4660	90.3469
 1.4650	90.3144
 1.4640	90.2725
 1.4630	90.2339
 1.4620	90.1831
 1.4610	90.1525
 1.4600	90.0557
 1.4590	89.9706
 1.4580	89.9661
 1.4570	89.8132
 1.4560	89.7011
 1.4550	89.6111
 1.4540	89.5372
 1.4530	89.4066
 1.4520	89.1464
 1.4510	89.0416
 1.4500	88.8630
 1.4490	88.7285
 1.4480	88.5703
 1.4470	88.4674
 1.4460	88.2097
 1.4450	88.1775
 1.4440	88.0583
 1.4430	87.9072
 1.4420	87.9189
 1.4410	87.7771
 1.4400	87.6972
 1.4390	87.4641
 1.4380	87.2232
 1.4370	86.9714
 1.4360	86.7318
 1.4350	86.3903
 1.4340	86.0084
 1.4330	85.5519
 1.4320	84.9667
 1.4310	84.3648
 1.4300	83.6292
 1.4290	82.6501
 1.4280	81.6480
 1.4270	80.3254
 1.4260	78.7516
 1.4250	76.9206
 1.4240	74.6718
 1.4230	72.1989
 1.4220	69.4161
 1.4210	66.7983
 1.4200	64.5478
 1.4190	62.6876
 1.4180	60.8495
 1.4170	59.1415
 1.4160	57.2263
 1.4150	55.5020
 1.4140	54.5075
 1.4130	54.5672
 1.4120	55.7305
 1.4110	58.4998
 1.4100	62.3659
 1.4090	66.7501
 1.4080	70.4873
 1.4070	73.2632
 1.4060	75.0012
 1.4050	76.0513
 1.4040	76.8576
 1.4030	77.2799
 1.4020	77.6390
 1.4010	77.8384
 1.4000	77.9679
 1.3990	77.9514
 1.3980	77.7788
 1.3970	77.5168
 1.3960	77.0662
 1.3950	76.4330
 1.3940	75.7162
 1.3930	74.7132
 1.3920	73.6741
 1.3910	72.5060
 1.3900	71.0629
 1.3890	69.7189
 1.3880	68.0225
 1.3870	66.3485
 1.3860	64.8396
 1.3850	63.8003
 1.3840	63.0866
 1.3830	63.2789
 1.3820	63.8994
 1.3810	65.1031
 1.3800	66.5315
 1.3790	68.1612
 1.3780	69.6536
 1.3770	71.1806
 1.3760	72.5643
 1.3750	73.8702
 1.3740	74.9900
 1.3730	76.0166
 1.3720	76.7990
 1.3710	77.7709
 1.3700	78.2947
 1.3690	78.8819
 1.3680	79.1788
 1.3670	79.4805
 1.3660	79.5010
 1.3650	79.5071
 1.3640	79.4696
 1.3630	79.4584
 1.3620	79.3648
 1.3610	79.5827
 1.3600	79.8456
 1.3590	80.3023
 1.3580	80.7339
 1.3570	81.3627
 1.3560	81.8728
 1.3550	82.3252
 1.3540	82.6899
 1.3530	82.9630
 1.3520	83.1347
 1.3510	83.4819
 1.3500	83.6709
 1.3490	83.9399
 1.3480	84.0804
 1.3470	84.3300
 1.3460	84.4607
 1.3450	84.7531
 1.3440	84.8530
 1.3430	84.9167
 1.3420	85.0992
 1.3410	85.1656
 1.3400	85.2577
 1.3390	85.3150
 1.3380	85.4143
 1.3370	85.4672
 1.3360	85.5722
 1.3350	85.6118
 1.3340	85.6434
 1.3330	85.5355
 1.3320	85.6148
 1.3310	85.6070
 1.3300	85.5129
 1.3290	85.6365
 1.3280	85.5987
 1.3270	85.5788
 1.3260	85.4676
 1.3250	85.6417
 1.3240	85.5763
 1.3230	85.6237
 1.3220	85.6703
 1.3210	85.6865
 1.3200	85.7189
 1.3190	85.7558
 1.3180	85.8187
 1.3170	85.9146
 1.3160	85.9152
 1.3150	85.8909
 1.3140	85.9057
 1.3130	85.9710
 1.3120	85.6955
 1.3110	85.6777
 1.3100	85.5791
 1.3090	85.4829
 1.3080	85.4214
 1.3070	85.4134
 1.3060	85.5436
 1.3050	85.6414
 1.3040	85.9283
 1.3030	86.1306
 1.3020	86.4133
 1.3010	86.6737
 1.3000	86.8704
 1.2990	87.2369
 1.2980	87.3904
 1.2970	87.6067
 1.2960	87.7809
 1.2950	87.8978
 1.2940	87.9690
 1.2930	88.1371
 1.2920	88.2435
 1.2910	88.3519
 1.2900	88.4247
 1.2890	88.5749
 1.2880	88.7304
 1.2870	88.8495
 1.2860	88.9809
 1.2850	89.2113
 1.2840	89.2996
 1.2830	89.3878
 1.2820	89.4399
 1.2810	89.5139
 1.2800	89.5829
 1.2790	89.6698
 1.2780	89.6289
 1.2770	89.7065
 1.2760	89.7842
 1.2750	89.8641
 1.2740	89.7890
 1.2730	89.8439
 1.2720	89.9293
 1.2710	89.9768
 1.2700	90.0570
 1.2690	90.1400
 1.2680	90.1715
 1.2670	90.1829
 1.2660	90.2445
 1.2650	90.2478
 1.2640	90.1950
 1.2630	90.1202
 1.2620	90.0789
 1.2610	89.9828
 1.2600	89.9862
 1.2590	90.0127
 1.2580	89.8943
 1.2570	89.7948
 1.2560	89.7262
 1.2550	89.6480
 1.2540	89.6908
 1.2530	89.6227
 1.2520	89.5764
 1.2510	89.5036
 1.2500	89.5511
 1.2490	89.4553
 1.2480	89.3406
 1.2470	89.3676
 1.2460	89.2809
 1.2450	89.2645
 1.2440	89.3082
 1.2430	89.4127
 1.2420	89.5747
 1.2410	89.5806
 1.2400	89.6545
 1.2390	89.7543
 1.2380	89.7708
 1.2370	89.8306
 1.2360	89.8952
 1.2350	89.9736
 1.2340	90.0202
 1.2330	90.0718
 1.2320	90.1404
 1.2310	90.2223
 1.2300	90.3420
 1.2290	90.4360
 1.2280	90.4507
 1.2270	90.5021
 1.2260	90.5278
 1.2250	90.5549
 1.2240	90.6026
 1.2230	90.6070
 1.2220	90.6461
 1.2210	90.7015
 1.2200	90.7014
 1.2190	90.7639
 1.2180	90.7992
 1.2170	90.8538
 1.2160	90.9123
 1.2150	90.8649
 1.2140	90.9012
 1.2130	90.9832
 1.2120	91.0222
 1.2110	91.0707
 1.2100	91.0419
 1.2090	91.0358
 1.2080	91.0597
 1.2070	91.0277
 1.2060	91.0625
 1.2050	91.1328
 1.2040	91.1915
 1.2030	91.1532
 1.2020	91.0613
 1.2010	91.1065
 1.2000	91.1992
 1.1990	91.1535
 1.1980	91.1344
 1.1970	91.1273
 1.1960	91.1641
 1.1950	91.1791
 1.1940	91.1965
 1.1930	91.1258
 1.1920	91.1029
 1.1910	91.1704
 1.1900	91.1982
 1.1890	91.2344
 1.1880	91.2270
 1.1870	91.2281
 1.1860	91.2139
 1.1850	91.2122
 1.1840	91.2124
 1.1830	91.2038
 1.1820	91.2689
 1.1810	91.2613
 1.1800	91.1724
 1.1790	91.2270
 1.1780	91.2567
 1.1770	91.2670
 1.1760	91.2223
 1.1750	91.1167
 1.1740	91.1468
 1.1730	91.1425
 1.1720	91.1411
 1.1710	91.2406
 1.1700	91.2716
 1.1690	91.1843
 1.1680	91.1785
 1.1670	91.1701
 1.1660	91.1508
 1.1650	91.1588
 1.1640	91.1878
 1.1630	91.1846
 1.1620	91.1573
 1.1610	91.1437
 1.1600	91.1216
 1.1590	91.1339
 1.1580	91.1075
 1.1570	91.1685
 1.1560	91.1340
 1.1550	91.1358
 1.1540	91.0406
 1.1530	91.1226
 1.1520	91.0726
 1.1510	91.0687
 1.1500	91.1526
 1.1490	91.1296
 1.1480	91.0170
 1.1470	90.9789
 1.1460	90.9986
 1.1450	91.0456
 1.1440	91.0342
 1.1430	90.9498
 1.1420	91.0306
 1.1410	91.0234
 1.1400	90.9293
 1.1390	90.9856
 1.1380	90.8474
 1.1370	90.9486
 1.1360	90.8903
 1.1350	90.9191
 1.1340	90.9035
 1.1330	90.8871
 1.1320	90.8404
 1.1310	90.8365
 1.1300	90.7936
 1.1290	90.7225
 1.1280	90.7923
 1.1270	90.7849
 1.1260	90.8610
 1.1250	90.7983
 1.1240	90.7258
 1.1230	90.6687
 1.1220	90.6980
 1.1210	90.7284
 1.1200	90.6900
 1.1190	90.6941
 1.1180	90.6432
 1.1170	90.6395
 1.1160	90.5510
 1.1150	90.5375
 1.1140	90.5382
 1.1130	90.4894
 1.1120	90.5056
 1.1110	90.5360
 1.1100	90.5069
 1.1090	90.4570
 1.1080	90.4750
 1.1070	90.5405
 1.1060	90.5886
 1.1050	90.4371
 1.1040	90.3472
 1.1030	90.4346
 1.1020	90.4012
 1.1010	90.4267
 1.1000	90.3556
 1.0990	90.3720
 1.0980	90.3883
 1.0970	90.2936
 1.0960	90.3817
 1.0950	90.3066
 1.0940	90.1784
 1.0930	90.3270
 1.0920	90.3046
 1.0910	90.2615
 1.0900	90.2796
 1.0890	90.2328
 1.0880	90.2894
 1.0870	90.3040
 1.0860	90.0512
 1.0850	90.1288
 1.0840	90.0980
 1.0830	90.1749
 1.0820	90.1179
 1.0810	90.9052
 1.0800	90.2092
 1.0790	90.0639
 1.0780	90.0146
 1.0770	90.0478
 1.0760	90.0114
 1.0750	90.0108
 1.0740	89.8967
 1.0730	89.9498
 1.0720	89.9784
 1.0710	89.9038
 1.0700	89.8701
 1.0690	89.9447
 1.0680	89.8056
 1.0670	89.8238
 1.0660	89.7890
 1.0650	89.8176
 1.0640	89.7833
 1.0630	89.7462
 1.0620	89.7441
 1.0610	89.7501
 1.0600	89.7862
 1.0590	89.6157
 1.0580	89.6821
 1.0570	89.6107
 1.0560	89.5814
 1.0550	89.6260
 1.0540	89.6528
 1.0530	89.6090
 1.0520	89.6017
 1.0510	89.5947
 1.0500	89.4605
 1.0490	89.5804
 1.0480	89.5577
 1.0470	89.4237
 1.0460	89.4069
 1.0450	89.4737
 1.0440	89.3639
 1.0430	89.3426
 1.0420	89.3342
 1.0410	89.3065
 1.0400	89.3819
 1.0390	89.2489
 1.0380	89.2413
 1.0370	89.2162
 1.0360	89.1875
 1.0350	89.2501
 1.0340	89.2006
 1.0330	89.1036
 1.0320	89.1063
 1.0310	89.1466
 1.0300	89.1235
 1.0290	89.0071
 1.0280	89.0442
 1.0270	89.1125
 1.0260	89.0037
 1.0250	88.9225
 1.0240	88.9598
 1.0230	88.9711
 1.0220	88.8990
 1.0210	88.8345
 1.0200	88.8220
 1.0190	88.8868
 1.0180	88.8796
 1.0170	88.8360
 1.0160	88.8054
 1.0150	88.7173
 1.0140	88.6917
 1.0130	88.6819
 1.0120	88.6819
 1.0110	88.7042
 1.0100	88.6703
 1.0090	88.6051
 1.0080	88.6580
 1.0070	88.6093
 1.0060	88.5362
 1.0050	88.4575
 1.0040	88.4949
 1.0030	88.4636
 1.0020	88.3893
 1.0010	88.4085
 1.0000	88.3611
 0.9990	88.3485
 0.9980	88.3797
 0.9970	88.2939
 0.9960	88.3249
 0.9950	88.2557
 0.9940	88.2544
 0.9930	88.1951
 0.9920	88.2105
 0.9910	88.1953
 0.9900	88.0813
 0.9890	88.0507
 0.9880	88.0794
 0.9870	88.0120
 0.9860	88.0184
 0.9850	87.8987
 0.9840	87.8535
 0.9830	87.7812
 0.9820	87.7481
 0.9810	87.5985
 0.9800	87.4430
 0.9790	87.4316
 0.9780	87.3092
 0.9770	87.1665
 0.9760	87.0601
 0.9750	86.9529
 0.9740	86.8825
 0.9730	86.7927
 0.9720	86.6761
 0.9710	86.5174
 0.9700	86.3047
 0.9690	85.9974
 0.9680	85.6631
 0.9670	85.4486
 0.9660	85.4131
 0.9650	85.4596
 0.9640	85.6422
 0.9630	85.9131
 0.9620	86.2107
 0.9610	86.4426
 0.9600	86.6152
 0.9590	86.7130
 0.9580	86.7515
 0.9570	86.6785
 0.9560	86.6603
 0.9550	86.6126
 0.9540	86.5481
 0.9530	86.4978
 0.9520	86.3871
 0.9510	86.2959
 0.9500	86.2806
 0.9490	86.2308
 0.9480	86.1308
 0.9470	86.0100
 0.9460	85.9592
 0.9450	86.0031
 0.9440	86.0277
 0.9430	85.9549
 0.9420	85.9843
 0.9410	86.0851
 0.9400	86.1764
 0.9390	86.2415
 0.9380	86.2602
 0.9370	86.3107
 0.9360	86.3112
 0.9350	86.3106
 0.9340	86.3735
 0.9330	86.3397
 0.9320	86.3638
 0.9310	86.3353
 0.9300	86.3116
 0.9290	86.3558
 0.9280	86.3115
 0.9270	86.3620
 0.9260	86.4104
 0.9250	86.3600
 0.9240	86.3157
 0.9230	86.3448
 0.9220	86.3878
 0.9210	86.3053
 0.9200	86.2772
 0.9190	86.3396
 0.9180	86.2888
 0.9170	86.1845
 0.9160	86.1750
 0.9150	86.2136
 0.9140	86.2040
 0.9130	86.1868
 0.9120	86.2011
 0.9110	86.2269
 0.9100	86.2063
 0.9090	86.1953
 0.9080	86.1461
 0.9070	86.1363
 0.9060	86.1811
 0.9050	86.1790
 0.9040	86.1871
 0.9030	86.2572
 0.9020	86.2506
 0.9010	86.1765
 0.9000	86.1545
 0.8990	86.1531
 0.8980	86.1755
 0.8970	86.2104
 0.8960	86.1859
 0.8950	86.1939
 0.8940	86.1960
 0.8930	86.2372
 0.8920	86.2024
 0.8910	86.2279
 0.8900	86.2315
 0.8890	86.2067
 0.8880	86.2098
 0.8870	86.2209
 0.8860	86.1795
 0.8850	86.0815
 0.8840	86.0699
 0.8830	86.1262
 0.8820	86.1177
 0.8810	86.1141
 0.8800	86.1452
 0.8790	86.1958
 0.8780	86.1080
 0.8770	86.0671
 0.8760	86.0474
 0.8750	86.1130
 0.8740	86.1221
 0.8730	86.1263
 0.8720	86.0186
 0.8710	86.1195
 0.8700	86.1474
 0.8690	86.1167
 0.8680	86.1664
 0.8670	86.1144
 0.8660	86.1404
 0.8650	86.0939
 0.8640	86.1175
 0.8630	86.1255
 0.8620	86.0559
 0.8610	86.1113
 0.8600	86.1506
 0.8590	86.2046
 0.8580	86.1635
 0.8570	86.1696
 0.8560	86.1723
 0.8550	86.1466
 0.8540	86.2662
 0.8530	86.2803
 0.8520	86.2953
 0.8510	86.2483
 0.8500	86.2262
 0.8490	86.2734
 0.8480	86.3213
 0.8470	86.2934
 0.8460	86.3334
 0.8450	86.2825
 0.8440	86.2963
 0.8430	86.2480
 0.8420	86.3298
 0.8410	86.3530
 0.8400	86.3248
 0.8390	86.3019
 0.8380	86.3405
 0.8370	86.3456
 0.8360	86.3235
 0.8350	86.3908
 0.8340	86.4086
 0.8330	86.4159
 0.8320	86.4009
 0.8310	86.4232
 0.8300	86.4165
 0.8290	86.4108
 0.8280	86.4746
 0.8270	86.4115
 0.8260	86.4694
 0.8250	86.4311
 0.8240	86.4446
 0.8230	86.5154
 0.8220	86.5103
 0.8210	86.5095
 0.8200	86.5217
 0.8190	86.5374
 0.8180	86.5138
 0.8170	86.5570
 0.8160	86.5896
 0.8150	86.6191
 0.8140	86.6401
 0.8130	86.6553
 0.8120	86.6098
 0.8110	86.6179
 0.8100	86.6686
 0.8090	86.6570
 0.8080	86.7038
 0.8070	86.6776
 0.8060	86.7020
 0.8050	86.7041
 0.8040	86.7338
 0.8030	86.7543
 0.8020	86.7420
 0.8010	86.7836
 0.8000	86.7723
 0.7990	86.7930
 0.7980	86.7564
 0.7970	86.7904
 0.7960	86.7495
 0.7950	86.7525
 0.7940	86.7809
 0.7930	86.7992
 0.7920	86.7511
 0.7910	86.8397
 0.7900	86.8279
 0.7890	86.8067
 0.7880	86.8060
 0.7870	86.8200
 0.7860	86.8565
 0.7850	86.8101
 0.7840	86.8611
 0.7830	86.8776
 0.7820	86.9007
 0.7810	86.8834
 0.7800	86.9484
 0.7790	86.9175
 0.7780	86.8758
 0.7770	86.8677
 0.7760	86.9043
 0.7750	86.9373
 0.7740	86.9249
 0.7730	86.9093
 0.7720	86.9328
 0.7710	86.9007
 0.7700	86.9155
 0.7690	86.8748
 0.7680	86.8708
 0.7670	86.9010
 0.7660	86.9139
 0.7650	86.8746
 0.7640	86.8987
 0.7630	86.8735
 0.7620	86.8867
 0.7610	86.8711
 0.7600	86.8654
 0.7590	86.8679
 0.7580	86.8927
 0.7570	86.8441
 0.7560	86.8299
 0.7550	86.8414
 0.7540	86.7974
 0.7530	86.7834
 0.7520	86.7488
 0.7510	86.7521
 0.7500	86.7674
 0.7490	86.7358
 0.7480	86.7147
 0.7470	86.6988
 0.7460	86.6327
 0.7450	86.6821
 0.7440	86.6039
 0.7430	86.5976
 0.7420	86.5650
 0.7410	86.5323
 0.7400	86.5483
 0.7390	86.5081
 0.7380	86.5272
 0.7370	86.4848
 0.7360	86.4630
 0.7350	86.4293
 0.7340	86.4136
 0.7330	86.3777
 0.7320	86.3364
 0.7310	86.2910
 0.7300	86.2842
 0.7290	86.2595
 0.7280	86.2019
 0.7270	86.1478
 0.7260	86.1157
 0.7250	86.0926
 0.7240	86.0545
 0.7230	86.0068
 0.7220	85.9613
 0.7210	85.9179
 0.7200	85.8778
 0.7190	85.8532
 0.7180	85.7881
 0.7170	85.7590
 0.7160	85.7263
 0.7150	85.6820
 0.7140	85.6352
 0.7130	85.5883
 0.7120	85.5384
 0.7110	85.4709
 0.7100	85.4296
 0.7090	85.3753
 0.7080	85.3350
 0.7070	85.2815
 0.7060	85.2172
 0.7050	85.1771
 0.7040	85.1180
 0.7030	85.0494
 0.7020	85.0145
 0.7010	84.9474
 0.7000	84.9078
 0.6990	84.8701
 0.6980	84.8096
 0.6970	84.7606
 0.6960	84.6832
 0.6950	84.6459
 0.6940	84.6152
 0.6930	84.5607
 0.6920	84.5140
 0.6910	84.4451
 0.6900	84.4019
 0.6890	84.3373
 0.6880	84.2743
 0.6870	84.2430
 0.6860	84.1860
 0.6850	84.1315
 0.6840	84.0792
 0.6830	84.0150
 0.6820	83.9628
 0.6810	83.9068
 0.6800	83.8554
 0.6790	83.8027
 0.6780	83.7542
 0.6770	83.7085
 0.6760	83.6503
 0.6750	83.6078
 0.6740	83.5471
 0.6730	83.4974
 0.6720	83.4380
 0.6710	83.3925
 0.6700	83.3618
 0.6690	83.3082
 0.6680	83.2454
 0.6670	83.2110
 0.6660	83.1692
 0.6650	83.1084
 0.6640	83.0517
 0.6630	82.9917
 0.6620	82.9175
 0.6610	82.8658
 0.6600	82.8193
 0.6590	82.7696
 0.6580	82.7116
 0.6570	82.6667
 0.6560	82.6366
 0.6550	82.5981
 0.6540	82.5570
 0.6530	82.5113
 0.6520	82.4578
 0.6510	82.4042
 0.6500	82.3730
 0.6490	82.3176
 0.6480	82.2642
 0.6470	82.2331
 0.6460	82.1907
 0.6450	82.1358
 0.6440	82.1088
 0.6430	82.0762
 0.6420	82.0374
 0.6410	81.9786
 0.6400	81.9225
 0.6390	81.8793
 0.6380	81.8309
 0.6370	81.7887
 0.6360	81.7440
 0.6350	81.6907
 0.6340	81.6512
 0.6330	81.6068
 0.6320	81.5409
 0.6310	81.4979
 0.6300	81.4656
 0.6290	81.4152
 0.6280	81.3578
 0.6270	81.2946
 0.6260	81.2545
 0.6250	81.2231
 0.6240	81.1668
 0.6230	81.1048
 0.6220	81.0602
 0.6210	81.0150
 0.6200	80.9599
 0.6190	80.9194
 0.6180	80.8696
 0.6170	80.8041
 0.6160	80.7464
 0.6150	80.6991
 0.6140	80.6463
 0.6130	80.5930
 0.6120	80.5316
 0.6110	80.4829
 0.6100	80.4272
 0.6090	80.3647
 0.6080	80.3103
 0.6070	80.2410
 0.6060	80.1728
 0.6050	80.1337
 0.6040	80.0948
 0.6030	80.0192
 0.6020	79.9579
 0.6010	79.8782
 0.6000	79.8175
 0.5990	79.7795
 0.5980	79.7389
 0.5970	79.6739
 0.5960	79.6091
 0.5950	79.5648
 0.5940	79.5079
 0.5930	79.4337
 0.5920	79.3541
 0.5910	79.2965
 0.5900	79.2281
 0.5890	79.1625
 0.5880	79.0749
 0.5870	78.9873
 0.5860	78.9247
 0.5850	78.8558
 0.5840	78.7797
 0.5830	78.7001
 0.5820	78.6008
 0.5810	78.5064
 0.5800	78.4315
 0.5790	78.3350
 0.5780	78.2487
 0.5770	78.1629
 0.5760	78.0537
 0.5750	77.9687
 0.5740	77.8663
 0.5730	77.7774
 0.5720	77.6873
 0.5710	77.5953
 0.5700	77.4881
 0.5690	77.3848
 0.5680	77.2778
 0.5670	77.1891
 0.5660	77.0949
 0.5650	76.9821
 0.5640	76.8623
 0.5630	76.7638
 0.5620	76.6500
 0.5610	76.5299
 0.5600	76.4031
 0.5590	76.2796
 0.5580	76.1712
 0.5570	76.0504
 0.5560	75.9331
 0.5550	75.8048
 0.5540	75.6906
 0.5530	75.5550
 0.5520	75.4243
 0.5510	75.3066
 0.5500	75.1602
 0.5490	75.0484
 0.5480	74.9077
 0.5470	74.7724
 0.5460	74.6389
 0.5450	74.5065
 0.5440	74.3739
 0.5430	74.2298
 0.5420	74.0868
 0.5410	73.9504
 0.5400	73.8106
 0.5390	73.6737
 0.5380	73.5378
 0.5370	73.3996
 0.5360	73.2588
 0.5350	73.1307
 0.5340	72.9808
 0.5330	72.8427
 0.5320	72.7122
 0.5310	72.5753
 0.5300	72.4306
 0.5290	72.2921
 0.5280	72.1433
 0.5270	72.0208
 0.5260	71.8851
 0.5250	71.7652
 0.5240	71.6306
 0.5230	71.5004
 0.5220	71.3657
 0.5210	71.2559
 0.5200	71.1046
 0.5190	70.9750
 0.5180	70.8643
 0.5170	70.7418
 0.5160	70.6048
 0.5150	70.4896
 0.5140	70.3592
 0.5130	70.2505
 0.5120	70.1104
 0.5110	69.9835
 0.5100	69.8693
 0.5090	69.7351
 0.5080	69.5975
 0.5070	69.4797
 0.5060	69.3734
 0.5050	69.2660
 0.5040	69.1470
 0.5030	69.0389
 0.5020	68.9084
 0.5010	68.8069
 0.5000	68.6832
 0.4990	68.5696
 0.4980	68.4514
 0.4970	68.3204
 0.4960	68.2331
 0.4950	68.1267
 0.4940	68.0225
 0.4930	67.9112
 0.4920	67.8242
 0.4910	67.7138
 0.4900	67.6190
 0.4890	67.4957
 0.4880	67.4180
 0.4870	67.3247
 0.4860	67.2360
 0.4850	67.1398
 0.4840	67.0685
 0.4830	66.9528
 0.4820	66.8860
 0.4810	66.8339
 0.4800	66.7538
 0.4790	66.7004
 0.4780	66.6237
 0.4770	66.5623
 0.4760	66.5081
 0.4750	66.4583
 0.4740	66.3838
 0.4730	66.3343
 0.4720	66.2559
 0.4710	66.1973
 0.4700	66.1443
 0.4690	66.0757
 0.4680	66.0000
 0.4670	65.9285
 0.4660	65.8764
 0.4650	65.7994
 0.4640	65.7422
 0.4630	65.6749
 0.4620	65.5942
 0.4610	65.5367
 0.4600	65.4643
 0.4590	65.3951
 0.4580	65.3191
 0.4570	65.2457
 0.4560	65.1755
 0.4550	65.0958
 0.4540	65.0060
 0.4530	64.9358
 0.4520	64.8549
 0.4510	64.7596
 0.4500	64.6612
 0.4490	64.5800
 0.4480	64.5007
 0.4470	64.4004
 0.4460	64.2797
 0.4450	64.1688
 0.4440	64.0362
 0.4430	63.9330
 0.4420	63.8219
 0.4410	63.6900
 0.4400	63.5574
 0.4390	63.4332
 0.4380	63.3100
 0.4370	63.1664
 0.4360	63.0448
 0.4350	62.9273
 0.4340	62.7665
 0.4330	62.6415
 0.4320	62.5195
 0.4310	62.3920
 0.4300	62.2516
 0.4290	62.1470
 0.4280	62.0227
 0.4270	61.9000
 0.4260	61.7908
 0.4250	61.6636
 0.4240	61.5509
 0.4230	61.4377
 0.4220	61.3305
 0.4210	61.2267
 0.4200	61.1075
 0.4190	61.0012
 0.4180	60.8761
 0.4170	60.7666
 0.4160	60.6729
 0.4150	60.5518
 0.4140	60.4531
 0.4130	60.3722
 0.4120	60.2484
 0.4110	60.1137
 0.4100	60.0138
 0.4090	59.9078
 0.4080	59.7968
 0.4070	59.7012
 0.4060	59.5868
 0.4050	59.4825
 0.4040	59.3614
 0.4030	59.2391
 0.4020	59.1254
 0.4010	58.9938
 0.4000	58.8778
