Name: Zircon ZrSiO_4
Type: Mineral
Class: Silicate
Subclass: Nesosilicate
Particle Size: Medium
Sample No.: NS-9A
Owner: JPL
Wavelength Range: VSWIR
Origin: Malawi, Southern Malawi, Blantyre-Limbe District
Collection Date: N/A
Description: Particle size was 45-125um.Collected by Burminco Original ASTER Spectral Library name was jpl.beckman.mineral.silicate.nesosilicate.medium.ns09a.spectrum.txt
Measurement: Hemispherical reflectance
First Column: X
Second Column: Y
X Units: Wavelength (micrometers)
Y Units:Reflectance (percent)
First X Value:  0.4000
Last X Value:  2.5000
Number of X Values: 826
Additional Information: mineral.silicate.nesosilicate.medium.vswir.ns-9a.jpl.beckman.ancillary.txt

 0.4000	21.1000
 0.4010	21.2900
 0.4020	21.4700
 0.4030	21.5300
 0.4040	21.7600
 0.4050	21.7700
 0.4060	21.8900
 0.4070	21.9700
 0.4080	22.0300
 0.4090	22.3000
 0.4100	22.3200
 0.4110	22.4500
 0.4120	22.5300
 0.4130	22.5600
 0.4140	22.7600
 0.4150	22.9400
 0.4160	22.9600
 0.4170	23.0600
 0.4180	23.0500
 0.4190	23.2600
 0.4200	23.3200
 0.4210	23.4300
 0.4220	23.6200
 0.4230	23.6900
 0.4240	23.9800
 0.4250	24.0800
 0.4260	24.1600
 0.4270	24.3800
 0.4280	24.5300
 0.4290	24.6400
 0.4300	24.8000
 0.4310	24.9200
 0.4320	25.1600
 0.4330	25.2500
 0.4340	25.5000
 0.4350	25.8500
 0.4360	25.9600
 0.4370	26.1600
 0.4380	26.2900
 0.4390	26.4500
 0.4400	26.6900
 0.4410	26.9600
 0.4420	27.0600
 0.4430	27.2300
 0.4440	27.2700
 0.4450	27.5100
 0.4460	27.6000
 0.4470	27.8000
 0.4480	27.9100
 0.4490	28.0100
 0.4500	28.1600
 0.4510	28.1100
 0.4520	28.1300
 0.4530	28.2600
 0.4540	28.4300
 0.4550	28.4800
 0.4560	28.5300
 0.4570	28.6200
 0.4580	28.8100
 0.4590	28.7600
 0.4600	28.8200
 0.4610	28.9300
 0.4620	28.9500
 0.4630	28.9900
 0.4640	29.0700
 0.4650	29.1900
 0.4660	29.2100
 0.4670	29.3400
 0.4680	29.3300
 0.4690	29.4000
 0.4700	29.3800
 0.4710	29.3500
 0.4720	29.4900
 0.4730	29.5000
 0.4740	29.5900
 0.4750	29.5600
 0.4760	29.6200
 0.4770	29.6900
 0.4780	29.8000
 0.4790	29.7500
 0.4800	29.8100
 0.4810	29.9100
 0.4820	29.9900
 0.4830	30.0500
 0.4840	30.1500
 0.4850	30.3700
 0.4860	30.4900
 0.4870	30.5300
 0.4880	30.6200
 0.4890	30.7000
 0.4900	30.8200
 0.4910	31.0000
 0.4920	31.0800
 0.4930	31.1500
 0.4940	31.1900
 0.4950	31.3500
 0.4960	31.4500
 0.4970	31.4300
 0.4980	31.5400
 0.4990	31.6400
 0.5000	31.6600
 0.5010	31.6400
 0.5020	31.5600
 0.5030	31.7500
 0.5040	31.8100
 0.5050	31.8700
 0.5060	31.8900
 0.5070	31.8900
 0.5080	31.9300
 0.5090	32.0200
 0.5100	32.0800
 0.5110	32.1000
 0.5120	32.3100
 0.5130	32.3800
 0.5140	32.4700
 0.5150	32.6100
 0.5160	32.7600
 0.5170	32.9400
 0.5180	33.0200
 0.5190	33.0900
 0.5200	33.1800
 0.5210	33.3600
 0.5220	33.6400
 0.5230	33.6800
 0.5240	33.8300
 0.5250	33.9900
 0.5260	34.0600
 0.5270	34.1800
 0.5280	34.1900
 0.5290	34.3800
 0.5300	34.4700
 0.5310	34.5200
 0.5320	34.6300
 0.5330	34.5500
 0.5340	34.7000
 0.5350	34.8000
 0.5360	34.7900
 0.5370	34.9600
 0.5380	35.1000
 0.5390	35.3400
 0.5400	35.3200
 0.5410	35.5100
 0.5420	35.7500
 0.5430	35.9200
 0.5440	36.0500
 0.5450	36.2100
 0.5460	36.3400
 0.5470	36.5100
 0.5480	36.7000
 0.5490	36.8000
 0.5500	36.9100
 0.5510	37.0900
 0.5520	37.1500
 0.5530	37.2900
 0.5540	37.4200
 0.5550	37.5000
 0.5560	37.6800
 0.5570	37.7800
 0.5580	37.7400
 0.5590	37.8700
 0.5600	37.8700
 0.5610	38.3800
 0.5620	38.5600
 0.5630	38.6500
 0.5640	38.8900
 0.5650	39.0000
 0.5660	39.1200
 0.5670	39.2500
 0.5680	39.3100
 0.5690	39.4400
 0.5700	39.4800
 0.5710	39.5000
 0.5720	39.7400
 0.5730	39.8300
 0.5740	39.8600
 0.5750	39.8900
 0.5760	39.8900
 0.5770	40.1000
 0.5780	40.1500
 0.5790	40.2700
 0.5800	40.3000
 0.5810	40.3600
 0.5820	40.5200
 0.5830	40.5100
 0.5840	40.4100
 0.5850	40.5200
 0.5860	40.5400
 0.5870	40.6100
 0.5880	40.6700
 0.5890	40.7200
 0.5900	41.0400
 0.5910	41.4200
 0.5920	41.5400
 0.5930	41.7900
 0.5940	41.9700
 0.5950	42.2600
 0.5960	42.3400
 0.5970	42.4700
 0.5980	42.7100
 0.5990	42.7600
 0.6000	43.0100
 0.6010	43.1600
 0.6020	43.2100
 0.6030	43.4200
 0.6040	43.6000
 0.6050	43.6600
 0.6060	43.7900
 0.6070	43.8300
 0.6080	44.0100
 0.6090	44.0600
 0.6100	44.0100
 0.6110	44.1600
 0.6120	44.1100
 0.6130	44.2500
 0.6140	44.2800
 0.6150	44.3600
 0.6160	44.6400
 0.6170	44.7900
 0.6180	44.9300
 0.6190	45.0500
 0.6200	45.1700
 0.6210	45.4500
 0.6220	45.6200
 0.6230	45.7900
 0.6240	45.9700
 0.6250	46.0500
 0.6260	46.2200
 0.6270	46.4800
 0.6280	46.5700
 0.6290	46.7400
 0.6300	46.7700
 0.6310	47.0000
 0.6320	46.9400
 0.6330	47.0300
 0.6340	47.2200
 0.6350	47.2500
 0.6360	47.3400
 0.6370	47.3900
 0.6380	47.3900
 0.6390	47.5400
 0.6400	47.5700
 0.6410	47.5400
 0.6420	47.5400
 0.6430	47.4200
 0.6440	47.3300
 0.6450	47.2200
 0.6460	46.9700
 0.6470	46.6800
 0.6480	46.1600
 0.6490	45.5900
 0.6500	44.8500
 0.6510	44.3800
 0.6520	44.3800
 0.6530	44.9300
 0.6540	45.8200
 0.6550	46.6300
 0.6560	47.1400
 0.6570	47.6200
 0.6580	48.0300
 0.6590	48.4000
 0.6600	48.9100
 0.6610	49.4500
 0.6620	50.1400
 0.6630	50.7500
 0.6640	51.1000
 0.6650	51.6500
 0.6660	51.9500
 0.6670	52.2800
 0.6680	52.4700
 0.6690	52.7300
 0.6700	53.1100
 0.6710	53.2800
 0.6720	53.5400
 0.6730	53.6800
 0.6740	53.7400
 0.6750	54.0100
 0.6760	54.1100
 0.6770	54.2000
 0.6780	54.2500
 0.6790	54.1400
 0.6800	54.1900
 0.6810	54.1600
 0.6820	54.1300
 0.6830	54.3600
 0.6840	54.3500
 0.6850	54.2800
 0.6860	54.1100
 0.6870	53.8500
 0.6880	53.8900
 0.6890	54.1700
 0.6900	54.7100
 0.6910	55.4400
 0.6920	55.8100
 0.6930	56.2800
 0.6940	56.4700
 0.6950	56.6300
 0.6960	56.9600
 0.6970	57.1300
 0.6980	57.3400
 0.6990	57.3900
 0.7000	57.3600
 0.7010	57.4500
 0.7020	57.8400
 0.7030	58.0300
 0.7040	58.1200
 0.7050	58.2700
 0.7060	58.5100
 0.7070	58.5100
 0.7080	58.6900
 0.7090	58.8800
 0.7100	58.8800
 0.7110	59.0500
 0.7120	59.1200
 0.7130	59.3100
 0.7140	59.4600
 0.7150	59.3700
 0.7160	59.5400
 0.7170	59.6300
 0.7180	59.7400
 0.7190	59.9300
 0.7200	59.9000
 0.7210	60.1000
 0.7220	60.2700
 0.7230	60.2900
 0.7240	60.3800
 0.7250	60.4200
 0.7260	60.4900
 0.7270	60.6200
 0.7280	60.6000
 0.7290	60.8500
 0.7300	60.8300
 0.7310	60.9300
 0.7320	61.1200
 0.7330	61.0200
 0.7340	61.2100
 0.7350	61.3500
 0.7360	61.3100
 0.7370	61.4400
 0.7380	61.4800
 0.7390	61.5200
 0.7400	61.6000
 0.7410	61.5400
 0.7420	61.6600
 0.7430	61.7100
 0.7440	61.8500
 0.7450	61.9600
 0.7460	61.8900
 0.7470	62.0200
 0.7480	62.0600
 0.7490	62.0200
 0.7500	62.0800
 0.7510	62.1600
 0.7520	62.2200
 0.7530	62.4100
 0.7540	62.3200
 0.7550	62.4900
 0.7560	62.4100
 0.7570	62.4900
 0.7580	62.5600
 0.7590	62.4500
 0.7600	62.6400
 0.7610	62.7200
 0.7620	62.7200
 0.7630	62.7400
 0.7640	62.7200
 0.7650	62.8100
 0.7660	62.8900
 0.7670	62.8300
 0.7680	62.9100
 0.7690	62.8900
 0.7700	62.9100
 0.7710	63.0000
 0.7720	62.9300
 0.7730	63.0400
 0.7740	63.1200
 0.7750	63.1000
 0.7760	63.1400
 0.7770	63.0000
 0.7780	63.1600
 0.7790	63.1600
 0.7800	63.0200
 0.7810	63.1400
 0.7820	63.1600
 0.7830	63.1400
 0.7840	63.2000
 0.7850	63.0400
 0.7860	63.2700
 0.7870	63.1700
 0.7880	63.2300
 0.7890	63.2100
 0.7900	63.1000
 0.7910	63.0400
 0.7920	63.0800
 0.7930	62.9300
 0.7940	63.0600
 0.7950	63.0600
 0.7960	62.9800
 0.7970	63.0000
 0.7980	62.9500
 0.7990	62.8900
 0.8000	63.2200
 0.8040	63.1600
 0.8080	62.9800
 0.8120	62.7600
 0.8160	62.7800
 0.8200	62.6000
 0.8240	62.4500
 0.8280	62.3700
 0.8320	62.1700
 0.8360	62.0200
 0.8400	61.9600
 0.8440	61.8600
 0.8480	61.8400
 0.8520	61.7800
 0.8560	61.7800
 0.8600	61.8200
 0.8640	61.8700
 0.8680	61.7700
 0.8720	61.6600
 0.8760	61.5100
 0.8800	61.3200
 0.8840	61.1400
 0.8880	61.0900
 0.8920	61.1000
 0.8960	61.0800
 0.9000	61.0000
 0.9040	60.9000
 0.9080	60.6900
 0.9120	60.7200
 0.9160	60.9000
 0.9200	61.3000
 0.9240	61.6000
 0.9280	61.8600
 0.9320	61.9400
 0.9360	62.0900
 0.9400	62.0700
 0.9440	62.0700
 0.9480	62.0100
 0.9520	61.7600
 0.9560	61.6500
 0.9600	61.6200
 0.9640	61.5800
 0.9680	61.3200
 0.9720	60.9800
 0.9760	60.9800
 0.9800	61.1800
 0.9840	61.2700
 0.9880	61.3000
 0.9920	61.1800
 0.9960	61.0000
 1.0000	60.8600
 1.0040	60.5400
 1.0080	60.4600
 1.0120	60.4000
 1.0160	60.3100
 1.0200	60.1700
 1.0240	60.0000
 1.0280	59.7100
 1.0320	59.4300
 1.0360	59.0000
 1.0400	58.6400
 1.0440	58.1000
 1.0480	57.6600
 1.0520	57.3300
 1.0560	57.2800
 1.0600	57.4900
 1.0640	57.7800
 1.0680	57.8300
 1.0720	57.8400
 1.0760	57.7100
 1.0800	57.5000
 1.0840	57.1900
 1.0880	56.7700
 1.0920	56.3100
 1.0960	55.6900
 1.1000	54.8600
 1.1040	53.8200
 1.1080	52.6700
 1.1120	52.0200
 1.1160	52.6500
 1.1200	54.2600
 1.1240	55.7700
 1.1280	56.8100
 1.1320	57.4700
 1.1360	58.1200
 1.1400	59.0200
 1.1440	59.8300
 1.1480	60.7500
 1.1520	61.8200
 1.1560	62.7500
 1.1600	63.6200
 1.1640	64.5100
 1.1680	65.2500
 1.1720	65.9800
 1.1760	66.6900
 1.1800	67.2100
 1.1840	67.5600
 1.1880	67.9700
 1.1920	68.2700
 1.1960	68.5200
 1.2000	68.7700
 1.2040	68.9800
 1.2080	68.9500
 1.2120	69.0700
 1.2160	69.1200
 1.2200	69.1800
 1.2240	69.2400
 1.2280	69.2000
 1.2320	69.2300
 1.2360	69.1500
 1.2400	69.1700
 1.2440	69.1100
 1.2480	69.0400
 1.2520	68.9400
 1.2560	68.9400
 1.2600	68.9000
 1.2640	68.7600
 1.2680	68.6200
 1.2720	68.4600
 1.2760	68.4400
 1.2800	68.4500
 1.2840	68.3200
 1.2880	68.1800
 1.2920	68.0700
 1.2960	67.9600
 1.3000	67.8500
 1.3040	67.7600
 1.3080	67.5600
 1.3120	67.4400
 1.3160	67.1600
 1.3200	66.9500
 1.3240	66.7800
 1.3280	66.8700
 1.3320	67.0000
 1.3360	66.9300
 1.3400	66.8200
 1.3440	67.0100
 1.3480	67.3000
 1.3520	67.6700
 1.3560	68.1300
 1.3600	68.5000
 1.3640	68.7400
 1.3680	68.9600
 1.3720	69.1400
 1.3760	69.4000
 1.3800	69.5100
 1.3840	69.6400
 1.3880	69.6600
 1.3920	69.7100
 1.3960	69.8100
 1.4000	69.8800
 1.4040	69.9800
 1.4080	69.7400
 1.4120	69.8200
 1.4160	69.8600
 1.4200	69.9400
 1.4240	69.8400
 1.4280	69.7600
 1.4320	69.6600
 1.4360	69.4800
 1.4400	69.3300
 1.4440	69.1900
 1.4480	68.8700
 1.4520	68.6000
 1.4560	68.2200
 1.4600	67.6500
 1.4640	67.0100
 1.4680	66.4500
 1.4720	65.8900
 1.4760	65.3300
 1.4800	64.7500
 1.4840	63.9000
 1.4880	62.6300
 1.4920	60.8100
 1.4960	58.9600
 1.5000	58.2300
 1.5040	60.2700
 1.5080	63.0800
 1.5120	65.1600
 1.5160	66.4200
 1.5200	67.0400
 1.5240	67.4000
 1.5280	67.6200
 1.5320	67.8900
 1.5360	68.3200
 1.5400	68.7700
 1.5440	69.4200
 1.5480	69.9800
 1.5520	70.5400
 1.5560	70.8400
 1.5600	71.1500
 1.5640	71.3300
 1.5680	71.6000
 1.5720	71.8000
 1.5760	72.0500
 1.5800	72.1800
 1.5840	72.3300
 1.5880	72.4000
 1.5920	72.4900
 1.5960	72.5500
 1.6000	72.6200
 1.6040	72.7000
 1.6080	72.6100
 1.6120	72.6500
 1.6160	72.5800
 1.6200	72.5600
 1.6240	72.5200
 1.6280	72.4900
 1.6320	72.4300
 1.6360	72.3900
 1.6400	72.3300
 1.6440	72.0900
 1.6480	72.0400
 1.6520	71.7700
 1.6560	71.7200
 1.6600	71.8000
 1.6640	71.9200
 1.6680	72.0100
 1.6720	72.2300
 1.6760	72.4200
 1.6800	72.5300
 1.6840	72.5900
 1.6880	72.5500
 1.6920	72.6100
 1.6960	72.7000
 1.7000	72.7200
 1.7040	72.8000
 1.7080	72.8600
 1.7120	72.9600
 1.7160	73.1700
 1.7200	73.1100
 1.7240	73.2900
 1.7280	73.2900
 1.7320	73.2600
 1.7360	73.2700
 1.7400	73.3400
 1.7440	73.4800
 1.7480	73.4900
 1.7520	73.5400
 1.7560	73.5800
 1.7600	73.6800
 1.7640	73.7600
 1.7680	73.7900
 1.7720	73.7900
 1.7760	73.8200
 1.7800	73.8600
 1.7840	73.8100
 1.7880	73.8700
 1.7920	73.8600
 1.7960	74.0000
 1.8000	74.0000
 1.8040	73.9400
 1.8080	74.0600
 1.8120	73.9600
 1.8160	74.0100
 1.8200	73.9700
 1.8240	73.9400
 1.8280	73.9600
 1.8320	73.9300
 1.8360	73.9800
 1.8400	73.9300
 1.8440	73.9500
 1.8480	73.9300
 1.8520	73.8500
 1.8560	73.8200
 1.8600	73.8200
 1.8640	73.9000
 1.8680	73.7400
 1.8720	73.6200
 1.8760	73.5900
 1.8800	73.4200
 1.8840	73.3500
 1.8880	73.1900
 1.8920	73.0000
 1.8960	72.8500
 1.9000	72.7000
 1.9040	72.5700
 1.9080	72.4300
 1.9120	72.3300
 1.9160	72.2600
 1.9200	72.2100
 1.9240	72.2000
 1.9280	72.2300
 1.9320	72.1000
 1.9360	72.0600
 1.9400	72.1900
 1.9440	72.1500
 1.9480	72.2200
 1.9520	72.2000
 1.9560	72.2000
 1.9600	72.1800
 1.9640	72.2100
 1.9680	72.2600
 1.9720	72.1900
 1.9760	72.2300
 1.9800	72.2500
 1.9840	72.1600
 1.9880	72.2900
 1.9920	72.2200
 1.9960	72.1400
 2.0000	72.2600
 2.0040	72.1100
 2.0080	72.1100
 2.0120	72.0900
 2.0160	71.8400
 2.0200	71.7300
 2.0240	71.6100
 2.0280	71.4700
 2.0320	71.1700
 2.0360	71.0200
 2.0400	70.7800
 2.0440	70.4800
 2.0480	70.1200
 2.0520	69.7900
 2.0560	69.5000
 2.0600	69.2300
 2.0640	69.1200
 2.0680	69.0400
 2.0720	69.1700
 2.0760	69.3200
 2.0800	69.6000
 2.0840	69.8200
 2.0880	70.0000
 2.0920	70.3500
 2.0960	70.6600
 2.1000	70.8700
 2.1040	71.1900
 2.1080	71.3100
 2.1120	71.5200
 2.1160	71.6900
 2.1200	71.8500
 2.1240	71.8300
 2.1280	71.8900
 2.1320	71.8200
 2.1360	71.9000
 2.1400	71.8100
 2.1440	71.7700
 2.1480	71.6400
 2.1520	71.5900
 2.1560	71.6000
 2.1600	71.5400
 2.1640	71.5200
 2.1680	71.4000
 2.1720	71.4000
 2.1760	71.4300
 2.1800	71.3300
 2.1840	71.2900
 2.1880	71.1300
 2.1920	71.1100
 2.1960	71.1100
 2.2000	71.1500
 2.2040	71.1700
 2.2080	71.1800
 2.2120	71.3100
 2.2160	71.3700
 2.2200	71.5500
 2.2240	71.5900
 2.2280	71.5600
 2.2320	71.5100
 2.2360	71.5400
 2.2400	71.5100
 2.2440	71.4500
 2.2480	71.5000
 2.2520	71.5000
 2.2560	71.4700
 2.2600	71.5600
 2.2640	71.6400
 2.2680	71.6700
 2.2720	71.5900
 2.2760	71.6300
 2.2800	71.7400
 2.2840	71.7200
 2.2880	71.7400
 2.2920	71.7300
 2.2960	71.6700
 2.3000	71.6900
 2.3040	71.6200
 2.3080	71.6500
 2.3120	71.6800
 2.3160	71.7200
 2.3200	71.8400
 2.3240	71.8100
 2.3280	71.7700
 2.3320	71.8200
 2.3360	71.7200
 2.3400	71.7600
 2.3440	71.7200
 2.3480	71.6000
 2.3520	71.5200
 2.3560	71.4900
 2.3600	71.4800
 2.3640	71.3700
 2.3680	71.2900
 2.3720	71.2100
 2.3760	71.2600
 2.3800	71.2600
 2.3840	71.2700
 2.3880	71.2200
 2.3920	71.1800
 2.3960	71.3100
 2.4000	71.3200
 2.4040	71.3200
 2.4080	71.2900
 2.4120	71.3100
 2.4160	71.2700
 2.4200	71.1900
 2.4240	71.1700
 2.4280	71.1000
 2.4320	71.0200
 2.4360	70.9900
 2.4400	70.8700
 2.4440	70.8100
 2.4480	70.6600
 2.4520	70.6100
 2.4560	70.5300
 2.4600	70.4000
 2.4640	70.3000
 2.4680	70.1400
 2.4720	70.1100
 2.4760	69.9700
 2.4800	70.0300
 2.4840	70.0200
 2.4880	69.9700
 2.4920	69.8900
 2.4960	69.9700
 2.5000	70.0400
