Name: Quartz SiO_2
Type: Mineral
Class: Silicate
Subclass: Tectosilicate
Particle Size: Medium
Sample No.: TS-1C
Owner: JPL
Wavelength Range: VSWIR
Origin: USA, South Dakota, Custer County, Custer.
Collection Date: N/A
Description: Rose quartzParticle size was 45-125um.Collected by:  Ward's Original ASTER Spectral Library name was jpl.perkin.mineral.silicate.tectosilicate.medium.ts01c.spectrum.txt
Measurement: Hemispherical reflectance
First Column: X
Second Column: Y
X Units: Wavelength (micrometers)
Y Units:Reflectance (percent)
First X Value:  2.5000
Last X Value:  0.4000
Number of X Values: 2101
Additional Information: mineral.silicate.tectosilicate.medium.vswir.ts-1c.jpl.perkin.ancillary.txt

 2.5000	79.8031
 2.4990	79.9834
 2.4980	80.0209
 2.4970	79.9542
 2.4960	79.8710
 2.4950	80.0578
 2.4940	80.0185
 2.4930	80.0944
 2.4920	80.0660
 2.4910	80.1346
 2.4900	79.9077
 2.4890	80.1385
 2.4880	80.2391
 2.4870	80.2818
 2.4860	79.9930
 2.4850	80.0582
 2.4840	80.1101
 2.4830	80.1643
 2.4820	80.1264
 2.4810	80.3076
 2.4800	80.2709
 2.4790	80.2440
 2.4780	80.3174
 2.4770	80.4744
 2.4760	80.3419
 2.4750	80.2440
 2.4740	80.3340
 2.4730	80.3538
 2.4720	80.3701
 2.4710	80.3181
 2.4700	80.4388
 2.4690	80.4702
 2.4680	80.3367
 2.4670	80.4694
 2.4660	80.3187
 2.4650	80.3905
 2.4640	80.4052
 2.4630	80.4363
 2.4620	80.3522
 2.4610	80.3602
 2.4600	80.3328
 2.4590	80.5016
 2.4580	80.4965
 2.4570	80.5493
 2.4560	80.5587
 2.4550	80.6145
 2.4540	80.5884
 2.4530	80.5711
 2.4520	80.5785
 2.4510	80.5914
 2.4500	80.5573
 2.4490	80.5384
 2.4480	80.4696
 2.4470	80.5983
 2.4460	80.6132
 2.4450	80.5537
 2.4440	80.5691
 2.4430	80.5642
 2.4420	80.5911
 2.4410	80.5594
 2.4400	80.5489
 2.4390	80.7021
 2.4380	80.7078
 2.4370	80.7716
 2.4360	80.6862
 2.4350	80.7822
 2.4340	80.7380
 2.4330	80.7437
 2.4320	80.8050
 2.4310	80.8589
 2.4300	80.8791
 2.4290	80.8909
 2.4280	80.8092
 2.4270	80.7965
 2.4260	80.7899
 2.4250	80.8199
 2.4240	80.8256
 2.4230	80.8928
 2.4220	80.8723
 2.4210	80.8797
 2.4200	80.9838
 2.4190	80.9682
 2.4180	81.0029
 2.4170	81.0005
 2.4160	81.0165
 2.4150	81.1189
 2.4140	81.1116
 2.4130	81.1499
 2.4120	81.0756
 2.4110	81.0996
 2.4100	81.2028
 2.4090	81.2017
 2.4080	81.1614
 2.4070	81.1284
 2.4060	81.1226
 2.4050	81.1276
 2.4040	81.2245
 2.4030	81.2432
 2.4020	81.2049
 2.4010	81.2495
 2.4000	81.2244
 2.3990	81.2819
 2.3980	81.3072
 2.3970	81.3059
 2.3960	81.3000
 2.3950	81.3498
 2.3940	81.3927
 2.3930	81.4041
 2.3920	81.4238
 2.3910	81.4022
 2.3900	81.4463
 2.3890	81.3822
 2.3880	81.4271
 2.3870	81.4548
 2.3860	81.4484
 2.3850	81.4755
 2.3840	81.4629
 2.3830	81.4893
 2.3820	81.5041
 2.3810	81.5153
 2.3800	81.5711
 2.3790	81.5799
 2.3780	81.5545
 2.3770	81.5260
 2.3760	81.5461
 2.3750	81.6100
 2.3740	81.6121
 2.3730	81.5887
 2.3720	81.6003
 2.3710	81.5730
 2.3700	81.6072
 2.3690	81.6597
 2.3680	81.6682
 2.3670	81.7040
 2.3660	81.6712
 2.3650	81.6541
 2.3640	81.7489
 2.3630	81.8249
 2.3620	81.7973
 2.3610	81.7422
 2.3600	81.7632
 2.3590	81.8381
 2.3580	81.8471
 2.3570	81.8489
 2.3560	81.8232
 2.3550	81.8715
 2.3540	81.9251
 2.3530	81.9018
 2.3520	81.8692
 2.3510	81.8487
 2.3500	81.9163
 2.3490	81.9320
 2.3480	81.9234
 2.3470	81.9555
 2.3460	81.9664
 2.3450	82.0106
 2.3440	82.0575
 2.3430	82.0484
 2.3420	82.0065
 2.3410	82.0081
 2.3400	82.0089
 2.3390	82.0206
 2.3380	82.0760
 2.3370	82.0747
 2.3360	82.0322
 2.3350	82.0053
 2.3340	82.0149
 2.3330	82.0582
 2.3320	82.0766
 2.3310	81.9909
 2.3300	81.9217
 2.3290	81.9644
 2.3280	81.9989
 2.3270	82.0414
 2.3260	82.0419
 2.3250	82.0584
 2.3240	82.0530
 2.3230	82.0706
 2.3220	82.0493
 2.3210	82.0515
 2.3200	82.0577
 2.3190	82.0361
 2.3180	82.0467
 2.3170	82.0336
 2.3160	82.0090
 2.3150	82.0154
 2.3140	82.0346
 2.3130	82.0016
 2.3120	82.0247
 2.3110	82.0944
 2.3100	82.0967
 2.3090	82.1177
 2.3080	82.1340
 2.3070	82.1194
 2.3060	82.0694
 2.3050	82.0808
 2.3040	82.0731
 2.3030	82.1086
 2.3020	82.1047
 2.3010	82.1464
 2.3000	82.1496
 2.2990	82.1141
 2.2980	82.0905
 2.2970	82.1440
 2.2960	82.0881
 2.2950	82.0554
 2.2940	82.0744
 2.2930	82.0935
 2.2920	82.1074
 2.2910	82.0867
 2.2900	82.0939
 2.2890	82.0107
 2.2880	82.0995
 2.2870	82.0755
 2.2860	82.1327
 2.2850	82.1603
 2.2840	82.0961
 2.2830	82.1171
 2.2820	82.1240
 2.2810	82.0639
 2.2800	82.0787
 2.2790	82.1064
 2.2780	82.0961
 2.2770	82.0618
 2.2760	82.0830
 2.2750	82.0641
 2.2740	82.0477
 2.2730	82.0494
 2.2720	82.0642
 2.2710	82.0187
 2.2700	82.0137
 2.2690	82.1306
 2.2680	82.1091
 2.2670	82.0498
 2.2660	82.0311
 2.2650	82.0457
 2.2640	82.0509
 2.2630	82.0506
 2.2620	82.0106
 2.2610	82.0779
 2.2600	82.0722
 2.2590	82.0075
 2.2580	82.0291
 2.2570	82.0109
 2.2560	82.0170
 2.2550	82.1098
 2.2540	82.0713
 2.2530	81.9747
 2.2520	82.0342
 2.2510	82.1216
 2.2500	81.9969
 2.2490	81.9962
 2.2480	81.9914
 2.2470	81.9491
 2.2460	82.0706
 2.2450	82.0952
 2.2440	82.0328
 2.2430	82.0165
 2.2420	82.0086
 2.2410	81.9701
 2.2400	82.0298
 2.2390	82.0095
 2.2380	82.0759
 2.2370	82.0128
 2.2360	82.0297
 2.2350	81.9580
 2.2340	82.0637
 2.2330	81.9608
 2.2320	81.9845
 2.2310	82.0791
 2.2300	82.0262
 2.2290	82.0927
 2.2280	82.1044
 2.2270	82.0588
 2.2260	82.0192
 2.2250	81.9685
 2.2240	81.9860
 2.2230	82.0920
 2.2220	82.1540
 2.2210	82.0282
 2.2200	82.1054
 2.2190	82.0986
 2.2180	82.1016
 2.2170	82.0670
 2.2160	82.0910
 2.2150	82.0332
 2.2140	82.0894
 2.2130	82.0941
 2.2120	82.1423
 2.2110	82.1045
 2.2100	82.1251
 2.2090	82.1047
 2.2080	82.2334
 2.2070	82.0817
 2.2060	82.2551
 2.2050	82.2140
 2.2040	82.2472
 2.2030	82.3274
 2.2020	82.3605
 2.2010	82.3051
 2.2000	82.3516
 2.1990	82.4093
 2.1980	82.3820
 2.1970	82.4026
 2.1960	82.3248
 2.1950	82.3679
 2.1940	82.4558
 2.1930	82.4012
 2.1920	82.3256
 2.1910	82.4350
 2.1900	82.4526
 2.1890	82.4583
 2.1880	82.5096
 2.1870	82.5245
 2.1860	82.5815
 2.1850	82.5366
 2.1840	82.5534
 2.1830	82.5992
 2.1820	82.6545
 2.1810	82.6538
 2.1800	82.6570
 2.1790	82.6420
 2.1780	82.6737
 2.1770	82.7583
 2.1760	82.8077
 2.1750	82.8538
 2.1740	82.8325
 2.1730	82.7726
 2.1720	82.8885
 2.1710	82.9793
 2.1700	82.9662
 2.1690	83.0195
 2.1680	83.0042
 2.1670	83.0143
 2.1660	83.1170
 2.1650	83.1289
 2.1640	83.1987
 2.1630	83.1977
 2.1620	83.2211
 2.1610	83.2560
 2.1600	83.2929
 2.1590	83.3506
 2.1580	83.3095
 2.1570	83.3917
 2.1560	83.4367
 2.1550	83.4815
 2.1540	83.4837
 2.1530	83.4812
 2.1520	83.4468
 2.1510	83.5426
 2.1500	83.6016
 2.1490	83.6473
 2.1480	83.7056
 2.1470	83.6082
 2.1460	83.6528
 2.1450	83.6356
 2.1440	83.6261
 2.1430	83.5834
 2.1420	83.6434
 2.1410	83.6216
 2.1400	83.5817
 2.1390	83.6855
 2.1380	83.5894
 2.1370	83.5828
 2.1360	83.5739
 2.1350	83.5004
 2.1340	83.5403
 2.1330	83.4566
 2.1320	83.4765
 2.1310	83.4697
 2.1300	83.4529
 2.1290	83.4180
 2.1280	83.4063
 2.1270	83.3515
 2.1260	83.3485
 2.1250	83.2837
 2.1240	83.2367
 2.1230	83.1892
 2.1220	83.1221
 2.1210	83.0434
 2.1200	83.0465
 2.1190	83.0592
 2.1180	82.9668
 2.1170	82.9162
 2.1160	82.8793
 2.1150	82.8031
 2.1140	82.7505
 2.1130	82.6950
 2.1120	82.6191
 2.1110	82.6682
 2.1100	82.6904
 2.1090	82.6068
 2.1080	82.5057
 2.1070	82.4427
 2.1060	82.4570
 2.1050	82.3950
 2.1040	82.4057
 2.1030	82.3697
 2.1020	82.3447
 2.1010	82.2732
 2.1000	82.1949
 2.0990	82.2342
 2.0980	82.2355
 2.0970	82.2100
 2.0960	82.2464
 2.0950	82.2735
 2.0940	82.2647
 2.0930	82.2783
 2.0920	82.2582
 2.0910	82.2962
 2.0900	82.3319
 2.0890	82.2704
 2.0880	82.2819
 2.0870	82.3037
 2.0860	82.2481
 2.0850	82.2964
 2.0840	82.4112
 2.0830	82.3630
 2.0820	82.3134
 2.0810	82.3512
 2.0800	82.3708
 2.0790	82.3664
 2.0780	82.4073
 2.0770	82.3862
 2.0760	82.3786
 2.0750	82.4227
 2.0740	82.4038
 2.0730	82.4215
 2.0720	82.4185
 2.0710	82.4343
 2.0700	82.5030
 2.0690	82.4820
 2.0680	82.4864
 2.0670	82.5412
 2.0660	82.5496
 2.0650	82.5130
 2.0640	82.4928
 2.0630	82.5096
 2.0620	82.5462
 2.0610	82.5824
 2.0600	82.5900
 2.0590	82.6460
 2.0580	82.6195
 2.0570	82.6294
 2.0560	82.5913
 2.0550	82.5550
 2.0540	82.5960
 2.0530	82.5914
 2.0520	82.6454
 2.0510	82.6698
 2.0500	82.6613
 2.0490	82.6371
 2.0480	82.6886
 2.0470	82.7452
 2.0460	82.6860
 2.0450	82.6627
 2.0440	82.6858
 2.0430	82.6926
 2.0420	82.7482
 2.0410	82.7718
 2.0400	82.7439
 2.0390	82.7392
 2.0380	82.7752
 2.0370	82.7669
 2.0360	82.7696
 2.0350	82.7946
 2.0340	82.7311
 2.0330	82.7124
 2.0320	82.6814
 2.0310	82.7537
 2.0300	82.7776
 2.0290	82.7359
 2.0280	82.7387
 2.0270	82.7039
 2.0260	82.7753
 2.0250	82.7745
 2.0240	82.7258
 2.0230	82.7204
 2.0220	82.6937
 2.0210	82.7220
 2.0200	82.7608
 2.0190	82.7190
 2.0180	82.6854
 2.0170	82.6662
 2.0160	82.6891
 2.0150	82.7018
 2.0140	82.6538
 2.0130	82.7034
 2.0120	82.6538
 2.0110	82.7280
 2.0100	82.7291
 2.0090	82.6785
 2.0080	82.6952
 2.0070	82.6547
 2.0060	82.6600
 2.0050	82.6353
 2.0040	82.6863
 2.0030	82.7397
 2.0020	82.7305
 2.0010	82.6423
 2.0000	82.6951
 1.9990	82.6721
 1.9980	82.6561
 1.9970	82.7042
 1.9960	82.5785
 1.9950	82.5648
 1.9940	82.5412
 1.9930	82.5708
 1.9920	82.5909
 1.9910	82.5705
 1.9900	82.5361
 1.9890	82.5505
 1.9880	82.4665
 1.9870	82.4957
 1.9860	82.4480
 1.9850	82.4235
 1.9840	82.4671
 1.9830	82.4248
 1.9820	82.3758
 1.9810	82.3845
 1.9800	82.4342
 1.9790	82.4212
 1.9780	82.4055
 1.9770	82.3586
 1.9760	82.3316
 1.9750	82.3374
 1.9740	82.3635
 1.9730	82.3831
 1.9720	82.2268
 1.9710	82.2666
 1.9700	82.1960
 1.9690	82.2192
 1.9680	82.2679
 1.9670	82.2260
 1.9660	82.2186
 1.9650	82.2086
 1.9640	82.2691
 1.9630	82.2602
 1.9620	82.2695
 1.9610	82.2028
 1.9600	82.1685
 1.9590	82.2084
 1.9580	82.1519
 1.9570	82.1686
 1.9560	82.1506
 1.9550	82.1966
 1.9540	82.1655
 1.9530	82.1466
 1.9520	82.1615
 1.9510	82.1870
 1.9500	82.1606
 1.9490	82.1453
 1.9480	82.1549
 1.9470	82.1867
 1.9460	82.1960
 1.9450	82.1474
 1.9440	82.1954
 1.9430	82.1527
 1.9420	82.1490
 1.9410	82.1710
 1.9400	82.1742
 1.9390	82.1966
 1.9380	82.2007
 1.9370	82.1401
 1.9360	82.1145
 1.9350	82.1775
 1.9340	82.1265
 1.9330	82.2147
 1.9320	82.1905
 1.9310	82.2395
 1.9300	82.1824
 1.9290	82.2048
 1.9280	82.2400
 1.9270	82.2009
 1.9260	82.2388
 1.9250	82.2755
 1.9240	82.2866
 1.9230	82.2992
 1.9220	82.2079
 1.9210	82.2017
 1.9200	82.2481
 1.9190	82.1923
 1.9180	82.3180
 1.9170	82.3329
 1.9160	82.1993
 1.9150	82.3488
 1.9140	82.3070
 1.9130	82.3902
 1.9120	82.4428
 1.9110	82.4523
 1.9100	82.4058
 1.9090	82.4618
 1.9080	82.4848
 1.9070	82.4454
 1.9060	82.5083
 1.9050	82.4844
 1.9040	82.4687
 1.9030	82.6052
 1.9020	82.5217
 1.9010	82.6629
 1.9000	82.6303
 1.8990	82.7007
 1.8980	82.6485
 1.8970	82.7479
 1.8960	82.7189
 1.8950	82.7545
 1.8940	82.7556
 1.8930	82.7897
 1.8920	82.8647
 1.8910	82.9429
 1.8900	82.9436
 1.8890	82.9499
 1.8880	82.9261
 1.8870	83.0029
 1.8860	82.9693
 1.8850	83.0555
 1.8840	82.9885
 1.8830	82.9934
 1.8820	83.0343
 1.8810	83.0586
 1.8800	83.0716
 1.8790	83.1300
 1.8780	83.1155
 1.8770	83.2189
 1.8760	83.1938
 1.8750	83.2328
 1.8740	83.1124
 1.8730	83.1483
 1.8720	83.1943
 1.8710	83.2666
 1.8700	83.2623
 1.8690	83.2848
 1.8680	83.2419
 1.8670	83.2843
 1.8660	83.2773
 1.8650	83.1969
 1.8640	83.2237
 1.8630	83.2672
 1.8620	83.2118
 1.8610	83.2464
 1.8600	83.2562
 1.8590	83.3258
 1.8580	83.3300
 1.8570	83.3752
 1.8560	83.3122
 1.8550	83.3049
 1.8540	83.3374
 1.8530	83.3727
 1.8520	83.2825
 1.8510	83.3000
 1.8500	83.2868
 1.8490	83.3246
 1.8480	83.2817
 1.8470	83.3201
 1.8460	83.3047
 1.8450	83.3399
 1.8440	83.3377
 1.8430	83.3298
 1.8420	83.3414
 1.8410	83.3210
 1.8400	83.3300
 1.8390	83.4097
 1.8380	83.3300
 1.8370	83.3111
 1.8360	83.3621
 1.8350	83.3843
 1.8340	83.3948
 1.8330	83.3379
 1.8320	83.2982
 1.8310	83.3283
 1.8300	83.3326
 1.8290	83.3454
 1.8280	83.3443
 1.8270	83.3152
 1.8260	83.3664
 1.8250	83.3920
 1.8240	83.3966
 1.8230	83.3307
 1.8220	83.2925
 1.8210	83.3094
 1.8200	83.3118
 1.8190	83.3078
 1.8180	83.2992
 1.8170	83.3593
 1.8160	83.3539
 1.8150	83.3145
 1.8140	83.3660
 1.8130	83.3681
 1.8120	83.3802
 1.8110	83.3494
 1.8100	83.3722
 1.8090	83.4134
 1.8080	83.3643
 1.8070	83.3424
 1.8060	83.4209
 1.8050	83.4522
 1.8040	83.4385
 1.8030	83.4103
 1.8020	83.4042
 1.8010	83.4101
 1.8000	83.4234
 1.7990	83.4219
 1.7980	83.4531
 1.7970	83.4632
 1.7960	83.3885
 1.7950	83.3606
 1.7940	83.4094
 1.7930	83.3603
 1.7920	83.3047
 1.7910	83.3717
 1.7900	83.3706
 1.7890	83.3935
 1.7880	83.4178
 1.7870	83.3431
 1.7860	83.3272
 1.7850	83.3562
 1.7840	83.3830
 1.7830	83.3537
 1.7820	83.3469
 1.7810	83.3636
 1.7800	83.3707
 1.7790	83.3861
 1.7780	83.4147
 1.7770	83.3890
 1.7760	83.3467
 1.7750	83.3932
 1.7740	83.3885
 1.7730	83.3633
 1.7720	83.3542
 1.7710	83.3470
 1.7700	83.3743
 1.7690	83.3835
 1.7680	83.3795
 1.7670	83.3373
 1.7660	83.3827
 1.7650	83.3827
 1.7640	83.4153
 1.7630	83.3708
 1.7620	83.3663
 1.7610	83.4253
 1.7600	83.4221
 1.7590	83.3697
 1.7580	83.3170
 1.7570	83.3100
 1.7560	83.3434
 1.7550	83.3673
 1.7540	83.3684
 1.7530	83.4074
 1.7520	83.3831
 1.7510	83.3795
 1.7500	83.4027
 1.7490	83.4348
 1.7480	83.3654
 1.7470	83.3541
 1.7460	83.3864
 1.7450	83.4015
 1.7440	83.4311
 1.7430	83.4332
 1.7420	83.4208
 1.7410	83.4497
 1.7400	83.3889
 1.7390	83.3979
 1.7380	83.4205
 1.7370	83.3772
 1.7360	83.4399
 1.7350	83.4652
 1.7340	83.4949
 1.7330	83.5386
 1.7320	83.5156
 1.7310	83.4876
 1.7300	83.4699
 1.7290	83.4047
 1.7280	83.4583
 1.7270	83.4490
 1.7260	83.5131
 1.7250	83.4865
 1.7240	83.5182
 1.7230	83.5315
 1.7220	83.4884
 1.7210	83.4776
 1.7200	83.4438
 1.7190	83.4711
 1.7180	83.4832
 1.7170	83.4784
 1.7160	83.5433
 1.7150	83.5321
 1.7140	83.4213
 1.7130	83.4219
 1.7120	83.4815
 1.7110	83.5313
 1.7100	83.3903
 1.7090	83.3769
 1.7080	83.3593
 1.7070	83.4523
 1.7060	83.4328
 1.7050	83.3999
 1.7040	83.4874
 1.7030	83.4737
 1.7020	83.4510
 1.7010	83.4500
 1.7000	83.4706
 1.6990	83.3696
 1.6980	83.4235
 1.6970	83.4064
 1.6960	83.4808
 1.6950	83.3375
 1.6940	83.4067
 1.6930	83.4118
 1.6920	83.4406
 1.6910	83.4427
 1.6900	83.4116
 1.6890	83.4565
 1.6880	83.4246
 1.6870	83.4015
 1.6860	83.4495
 1.6850	83.2802
 1.6840	83.4319
 1.6830	83.3910
 1.6820	83.3663
 1.6810	83.3978
 1.6800	83.3801
 1.6790	83.3472
 1.6780	83.3735
 1.6770	83.4045
 1.6760	83.3981
 1.6750	83.3190
 1.6740	83.3913
 1.6730	83.3701
 1.6720	83.3636
 1.6710	83.3900
 1.6700	83.4360
 1.6690	83.4591
 1.6680	83.3507
 1.6670	83.3367
 1.6660	83.3806
 1.6650	83.3131
 1.6640	83.3328
 1.6630	83.3950
 1.6620	83.3656
 1.6610	83.3449
 1.6600	83.3171
 1.6590	83.3048
 1.6580	83.3720
 1.6570	83.3228
 1.6560	83.4118
 1.6550	83.3508
 1.6540	83.3734
 1.6530	83.3159
 1.6520	83.3586
 1.6510	83.3080
 1.6500	83.3241
 1.6490	83.2773
 1.6480	83.2855
 1.6470	83.3005
 1.6460	83.4100
 1.6450	83.3604
 1.6440	83.2886
 1.6430	83.3004
 1.6420	83.3518
 1.6410	83.3563
 1.6400	83.3381
 1.6390	83.4285
 1.6380	83.3954
 1.6370	83.3086
 1.6360	83.2968
 1.6350	83.3504
 1.6340	83.3791
 1.6330	83.3384
 1.6320	83.3782
 1.6310	83.3640
 1.6300	83.3103
 1.6290	83.3597
 1.6280	83.3276
 1.6270	83.3350
 1.6260	83.3882
 1.6250	83.3598
 1.6240	83.3797
 1.6230	83.3892
 1.6220	83.4236
 1.6210	83.3244
 1.6200	83.3553
 1.6190	83.2763
 1.6180	83.4021
 1.6170	83.4575
 1.6160	83.3759
 1.6150	83.4405
 1.6140	83.3800
 1.6130	83.3989
 1.6120	83.3735
 1.6110	83.3635
 1.6100	83.3995
 1.6090	83.3915
 1.6080	83.4011
 1.6070	83.3873
 1.6060	83.4154
 1.6050	83.3656
 1.6040	83.3949
 1.6030	83.3802
 1.6020	83.4021
 1.6010	83.4233
 1.6000	83.3709
 1.5990	83.3951
 1.5980	83.3366
 1.5970	83.3626
 1.5960	83.4108
 1.5950	83.3406
 1.5940	83.3670
 1.5930	83.3331
 1.5920	83.3580
 1.5910	83.3731
 1.5900	83.3635
 1.5890	83.3043
 1.5880	83.3973
 1.5870	83.3593
 1.5860	83.2764
 1.5850	83.3448
 1.5840	83.3420
 1.5830	83.3646
 1.5820	83.3668
 1.5810	83.3480
 1.5800	83.3297
 1.5790	83.3312
 1.5780	83.3491
 1.5770	83.2894
 1.5760	83.4235
 1.5750	83.3535
 1.5740	83.3964
 1.5730	83.4077
 1.5720	83.3960
 1.5710	83.3316
 1.5700	83.2740
 1.5690	83.3209
 1.5680	83.3389
 1.5670	83.3565
 1.5660	83.2795
 1.5650	83.3534
 1.5640	83.3216
 1.5630	83.3660
 1.5620	83.3070
 1.5610	83.3132
 1.5600	83.3285
 1.5590	83.3317
 1.5580	83.4064
 1.5570	83.3699
 1.5560	83.2959
 1.5550	83.2606
 1.5540	83.3265
 1.5530	83.3243
 1.5520	83.2808
 1.5510	83.2439
 1.5500	83.2972
 1.5490	83.3067
 1.5480	83.3444
 1.5470	83.3529
 1.5460	83.3736
 1.5450	83.2308
 1.5440	83.2526
 1.5430	83.3147
 1.5420	83.3041
 1.5410	83.2668
 1.5400	83.2617
 1.5390	83.2882
 1.5380	83.2865
 1.5370	83.2523
 1.5360	83.2125
 1.5350	83.2553
 1.5340	83.2692
 1.5330	83.2847
 1.5320	83.3054
 1.5310	83.3402
 1.5300	83.2696
 1.5290	83.2349
 1.5280	83.2570
 1.5270	83.2713
 1.5260	83.2320
 1.5250	83.1904
 1.5240	83.2083
 1.5230	83.2134
 1.5220	83.2318
 1.5210	83.2302
 1.5200	83.1910
 1.5190	83.2041
 1.5180	83.2343
 1.5170	83.2486
 1.5160	83.2757
 1.5150	83.2013
 1.5140	83.1899
 1.5130	83.2315
 1.5120	83.2523
 1.5110	83.2448
 1.5100	83.1904
 1.5090	83.1809
 1.5080	83.1784
 1.5070	83.1776
 1.5060	83.1758
 1.5050	83.1851
 1.5040	83.2386
 1.5030	83.1975
 1.5020	83.1657
 1.5010	83.2062
 1.5000	83.2155
 1.4990	83.1910
 1.4980	83.2320
 1.4970	83.2393
 1.4960	83.1442
 1.4950	83.1515
 1.4940	83.1555
 1.4930	83.1272
 1.4920	83.1500
 1.4910	83.1551
 1.4900	83.1445
 1.4890	83.1162
 1.4880	83.1252
 1.4870	83.1570
 1.4860	83.1872
 1.4850	83.1722
 1.4840	83.1894
 1.4830	83.2191
 1.4820	83.1325
 1.4810	83.1089
 1.4800	83.1264
 1.4790	83.1410
 1.4780	83.1657
 1.4770	83.1258
 1.4760	83.0920
 1.4750	83.1158
 1.4740	83.1046
 1.4730	83.1235
 1.4720	83.1894
 1.4710	83.0720
 1.4700	83.0879
 1.4690	83.1398
 1.4680	83.1234
 1.4670	83.1309
 1.4660	83.1150
 1.4650	83.0609
 1.4640	83.0849
 1.4630	83.0359
 1.4620	83.0427
 1.4610	83.1038
 1.4600	83.1092
 1.4590	83.1059
 1.4580	83.0417
 1.4570	83.1266
 1.4560	83.1331
 1.4550	83.0928
 1.4540	83.0734
 1.4530	83.0747
 1.4520	83.0306
 1.4510	83.0322
 1.4500	83.0459
 1.4490	83.0580
 1.4480	83.0289
 1.4470	83.0662
 1.4460	83.0562
 1.4450	83.0697
 1.4440	83.0490
 1.4430	83.0072
 1.4420	83.0259
 1.4410	83.0740
 1.4400	83.0955
 1.4390	83.0833
 1.4380	83.0378
 1.4370	83.0277
 1.4360	83.0522
 1.4350	83.1199
 1.4340	83.0238
 1.4330	83.0311
 1.4320	83.0204
 1.4310	83.0926
 1.4300	82.9701
 1.4290	83.0648
 1.4280	83.0373
 1.4270	83.0360
 1.4260	82.9481
 1.4250	83.0180
 1.4240	83.0187
 1.4230	83.0183
 1.4220	82.9968
 1.4210	82.9364
 1.4200	83.0023
 1.4190	83.0597
 1.4180	82.9584
 1.4170	82.9265
 1.4160	82.8899
 1.4150	82.9552
 1.4140	82.9060
 1.4130	82.9898
 1.4120	82.8856
 1.4110	82.9927
 1.4100	82.9189
 1.4090	82.9581
 1.4080	82.9090
 1.4070	82.9885
 1.4060	82.9492
 1.4050	82.9565
 1.4040	82.9643
 1.4030	82.9973
 1.4020	82.9966
 1.4010	82.8882
 1.4000	82.9503
 1.3990	83.0260
 1.3980	83.0038
 1.3970	83.0197
 1.3960	83.0144
 1.3950	83.1430
 1.3940	83.1031
 1.3930	83.1781
 1.3920	83.1545
 1.3910	83.0973
 1.3900	83.1520
 1.3890	83.1594
 1.3880	83.2071
 1.3870	83.2588
 1.3860	83.1365
 1.3850	83.1995
 1.3840	83.3065
 1.3830	83.2338
 1.3820	83.2424
 1.3810	83.2641
 1.3800	83.2147
 1.3790	83.2371
 1.3780	83.2798
 1.3770	83.2644
 1.3760	83.2054
 1.3750	83.1901
 1.3740	83.3075
 1.3730	83.2861
 1.3720	83.2390
 1.3710	83.2300
 1.3700	83.2855
 1.3690	83.2587
 1.3680	83.2250
 1.3670	83.2988
 1.3660	83.3244
 1.3650	83.2832
 1.3640	83.2361
 1.3630	83.1684
 1.3620	83.3065
 1.3610	83.2526
 1.3600	83.3073
 1.3590	83.2699
 1.3580	83.2071
 1.3570	83.2876
 1.3560	83.2930
 1.3550	83.2580
 1.3540	83.2424
 1.3530	83.2099
 1.3520	83.1668
 1.3510	83.2084
 1.3500	83.1768
 1.3490	83.2088
 1.3480	83.1671
 1.3470	83.1644
 1.3460	83.1347
 1.3450	83.1887
 1.3440	83.2573
 1.3430	83.2733
 1.3420	83.1887
 1.3410	83.2626
 1.3400	83.2179
 1.3390	83.2360
 1.3380	83.2296
 1.3370	83.2067
 1.3360	83.1604
 1.3350	83.0866
 1.3340	83.1660
 1.3330	83.1172
 1.3320	83.1791
 1.3310	83.1855
 1.3300	83.2587
 1.3290	83.2257
 1.3280	83.1146
 1.3270	83.2011
 1.3260	83.1903
 1.3250	83.2717
 1.3240	83.2109
 1.3230	83.1919
 1.3220	83.1012
 1.3210	83.1346
 1.3200	83.1713
 1.3190	83.1744
 1.3180	83.1387
 1.3170	83.1991
 1.3160	83.1690
 1.3150	83.2025
 1.3140	83.1658
 1.3130	83.0991
 1.3120	83.2218
 1.3110	83.0898
 1.3100	83.1079
 1.3090	83.2127
 1.3080	83.1999
 1.3070	83.1951
 1.3060	83.1541
 1.3050	83.1562
 1.3040	83.1012
 1.3030	83.1804
 1.3020	83.0653
 1.3010	83.1073
 1.3000	83.1693
 1.2990	83.1573
 1.2980	83.1404
 1.2970	83.1884
 1.2960	83.1723
 1.2950	83.1117
 1.2940	83.0557
 1.2930	83.1474
 1.2920	83.1656
 1.2910	83.0983
 1.2900	83.0956
 1.2890	83.1483
 1.2880	83.1752
 1.2870	83.1721
 1.2860	83.1288
 1.2850	83.1292
 1.2840	83.1155
 1.2830	83.1404
 1.2820	83.1636
 1.2810	83.1470
 1.2800	83.0831
 1.2790	83.1122
 1.2780	83.1434
 1.2770	83.0851
 1.2760	83.0932
 1.2750	83.1687
 1.2740	83.1395
 1.2730	83.1758
 1.2720	83.1535
 1.2710	83.1170
 1.2700	83.0931
 1.2690	83.1586
 1.2680	83.1486
 1.2670	83.1344
 1.2660	83.0906
 1.2650	83.0820
 1.2640	83.1237
 1.2630	83.0937
 1.2620	83.0753
 1.2610	83.1033
 1.2600	83.0922
 1.2590	83.1286
 1.2580	83.0981
 1.2570	83.1623
 1.2560	83.1166
 1.2550	83.0949
 1.2540	83.1138
 1.2530	83.1035
 1.2520	83.0688
 1.2510	83.0826
 1.2500	83.0782
 1.2490	83.0821
 1.2480	83.1264
 1.2470	83.1063
 1.2460	83.0566
 1.2450	83.1113
 1.2440	83.0851
 1.2430	83.0445
 1.2420	83.0384
 1.2410	83.1184
 1.2400	83.0957
 1.2390	83.0443
 1.2380	83.1279
 1.2370	83.1418
 1.2360	83.0916
 1.2350	83.1035
 1.2340	83.0619
 1.2330	83.0382
 1.2320	83.0313
 1.2310	83.0200
 1.2300	83.0319
 1.2290	83.0450
 1.2280	83.0331
 1.2270	83.0617
 1.2260	83.0258
 1.2250	83.0074
 1.2240	83.0839
 1.2230	83.1328
 1.2220	83.0839
 1.2210	83.0883
 1.2200	83.0791
 1.2190	83.0463
 1.2180	83.0525
 1.2170	83.0659
 1.2160	83.0574
 1.2150	83.0635
 1.2140	83.0466
 1.2130	83.0593
 1.2120	83.0743
 1.2110	83.0512
 1.2100	83.0680
 1.2090	83.0716
 1.2080	83.0874
 1.2070	83.0372
 1.2060	83.0588
 1.2050	83.0707
 1.2040	83.0643
 1.2030	83.0610
 1.2020	83.0321
 1.2010	83.0415
 1.2000	83.0514
 1.1990	83.0228
 1.1980	83.0085
 1.1970	83.0326
 1.1960	83.0412
 1.1950	83.0484
 1.1940	83.0760
 1.1930	83.0641
 1.1920	83.0631
 1.1910	83.0893
 1.1900	83.0650
 1.1890	83.1122
 1.1880	83.0800
 1.1870	83.0178
 1.1860	83.0212
 1.1850	83.0358
 1.1840	83.0266
 1.1830	83.0814
 1.1820	83.0972
 1.1810	83.0902
 1.1800	83.0581
 1.1790	83.0101
 1.1780	83.0439
 1.1770	83.0696
 1.1760	83.0456
 1.1750	83.0160
 1.1740	83.0458
 1.1730	83.0681
 1.1720	83.0402
 1.1710	83.0244
 1.1700	83.0380
 1.1690	83.0678
 1.1680	83.0670
 1.1670	83.0412
 1.1660	83.0399
 1.1650	82.9881
 1.1640	83.0856
 1.1630	83.0357
 1.1620	82.9555
 1.1610	83.0486
 1.1600	83.0062
 1.1590	82.9998
 1.1580	83.0411
 1.1570	83.0821
 1.1560	83.0949
 1.1550	83.0526
 1.1540	83.0735
 1.1530	83.0845
 1.1520	83.0746
 1.1510	83.0998
 1.1500	83.0667
 1.1490	83.0621
 1.1480	83.0176
 1.1470	83.0742
 1.1460	83.0598
 1.1450	83.0370
 1.1440	83.0464
 1.1430	83.0705
 1.1420	83.0731
 1.1410	83.0065
 1.1400	83.0229
 1.1390	83.0820
 1.1380	83.1128
 1.1370	83.0819
 1.1360	83.0375
 1.1350	83.0440
 1.1340	83.1054
 1.1330	83.1332
 1.1320	83.0914
 1.1310	83.0783
 1.1300	83.0579
 1.1290	83.0481
 1.1280	83.1120
 1.1270	83.0694
 1.1260	83.0770
 1.1250	83.0492
 1.1240	83.0363
 1.1230	83.1089
 1.1220	83.0902
 1.1210	83.0954
 1.1200	83.0462
 1.1190	83.0535
 1.1180	83.0466
 1.1170	83.0755
 1.1160	83.0366
 1.1150	83.0500
 1.1140	83.1009
 1.1130	83.0486
 1.1120	83.0398
 1.1110	83.0939
 1.1100	82.9794
 1.1090	83.0446
 1.1080	83.1252
 1.1070	83.0408
 1.1060	83.0745
 1.1050	83.0823
 1.1040	83.0761
 1.1030	82.9965
 1.1020	83.1019
 1.1010	83.0112
 1.1000	83.0011
 1.0990	83.0124
 1.0980	83.0965
 1.0970	83.0356
 1.0960	83.1071
 1.0950	83.0840
 1.0940	83.0910
 1.0930	83.0482
 1.0920	83.1035
 1.0910	83.0309
 1.0900	83.0651
 1.0890	82.9907
 1.0880	83.0142
 1.0870	83.0644
 1.0860	83.0813
 1.0850	83.0563
 1.0840	83.0283
 1.0830	83.1276
 1.0820	83.0805
 1.0810	83.0354
 1.0800	83.1271
 1.0790	83.0503
 1.0780	83.1385
 1.0770	83.1355
 1.0760	83.1383
 1.0750	83.0275
 1.0740	83.0422
 1.0730	83.0698
 1.0720	83.1306
 1.0710	83.0989
 1.0700	83.0618
 1.0690	83.0391
 1.0680	83.0597
 1.0670	83.0309
 1.0660	83.0099
 1.0650	83.0395
 1.0640	83.0909
 1.0630	83.0354
 1.0620	83.0590
 1.0610	82.9621
 1.0600	83.0652
 1.0590	83.0145
 1.0580	83.0798
 1.0570	83.0188
 1.0560	83.0762
 1.0550	83.0561
 1.0540	82.9441
 1.0530	83.0699
 1.0520	83.0012
 1.0510	83.0220
 1.0500	83.0226
 1.0490	83.0307
 1.0480	83.0375
 1.0470	83.1069
 1.0460	83.0621
 1.0450	83.0526
 1.0440	83.0768
 1.0430	83.0633
 1.0420	83.0134
 1.0410	83.0832
 1.0400	83.0571
 1.0390	83.0561
 1.0380	83.0167
 1.0370	83.0694
 1.0360	83.1021
 1.0350	82.9919
 1.0340	83.0948
 1.0330	82.9861
 1.0320	83.0429
 1.0310	83.0306
 1.0300	83.0150
 1.0290	82.9988
 1.0280	83.0676
 1.0270	83.1221
 1.0260	83.0226
 1.0250	82.9966
 1.0240	82.9999
 1.0230	83.0422
 1.0220	83.0072
 1.0210	83.0042
 1.0200	83.1017
 1.0190	83.0612
 1.0180	83.0133
 1.0170	83.0085
 1.0160	83.0460
 1.0150	83.0643
 1.0140	82.9841
 1.0130	82.9885
 1.0120	83.0624
 1.0110	83.0314
 1.0100	83.0489
 1.0090	83.0875
 1.0080	83.0033
 1.0070	83.1181
 1.0060	83.0926
 1.0050	83.0435
 1.0040	83.0089
 1.0030	83.0666
 1.0020	83.0385
 1.0010	83.0161
 1.0000	83.0261
 0.9990	83.0956
 0.9980	83.0333
 0.9970	83.0092
 0.9960	82.9661
 0.9950	83.0044
 0.9940	82.9770
 0.9930	82.9891
 0.9920	83.0293
 0.9910	82.9724
 0.9900	83.0023
 0.9890	83.0118
 0.9880	83.0352
 0.9870	83.0040
 0.9860	82.9573
 0.9850	82.9595
 0.9840	83.0338
 0.9830	83.0575
 0.9820	83.0701
 0.9810	83.0593
 0.9800	83.0232
 0.9790	82.9726
 0.9780	83.0058
 0.9770	83.0036
 0.9760	83.0146
 0.9750	83.0673
 0.9740	83.0496
 0.9730	83.0559
 0.9720	83.0158
 0.9710	83.0078
 0.9700	82.9627
 0.9690	82.9457
 0.9680	82.9765
 0.9670	83.0481
 0.9660	83.0304
 0.9650	82.9434
 0.9640	82.9452
 0.9630	82.9692
 0.9620	83.0567
 0.9610	83.0414
 0.9600	83.0240
 0.9590	83.0303
 0.9580	82.9995
 0.9570	83.1093
 0.9560	83.0569
 0.9550	82.9738
 0.9540	83.0068
 0.9530	83.0628
 0.9520	83.0878
 0.9510	82.9893
 0.9500	82.9816
 0.9490	83.0125
 0.9480	83.0199
 0.9470	83.0455
 0.9460	83.0746
 0.9450	83.0482
 0.9440	83.0065
 0.9430	83.0078
 0.9420	83.0315
 0.9410	83.0232
 0.9400	83.0411
 0.9390	82.9941
 0.9380	82.9652
 0.9370	83.0264
 0.9360	83.0467
 0.9350	83.0538
 0.9340	83.0651
 0.9330	83.0869
 0.9320	83.0714
 0.9310	83.0496
 0.9300	83.0535
 0.9290	83.0179
 0.9280	83.0119
 0.9270	83.0151
 0.9260	83.0794
 0.9250	83.0788
 0.9240	83.0208
 0.9230	83.0429
 0.9220	83.0442
 0.9210	83.0337
 0.9200	83.0542
 0.9190	83.0246
 0.9180	82.9581
 0.9170	83.0014
 0.9160	82.9947
 0.9150	83.0473
 0.9140	83.0914
 0.9130	83.0642
 0.9120	83.0243
 0.9110	82.9420
 0.9100	82.9485
 0.9090	83.0233
 0.9080	83.0460
 0.9070	83.0552
 0.9060	82.9836
 0.9050	82.9794
 0.9040	83.0060
 0.9030	83.0717
 0.9020	83.0141
 0.9010	82.9261
 0.9000	82.9675
 0.8990	83.0568
 0.8980	82.9971
 0.8970	83.0372
 0.8960	83.0666
 0.8950	83.0324
 0.8940	82.9875
 0.8930	83.0304
 0.8920	82.9808
 0.8910	83.0060
 0.8900	83.0101
 0.8890	83.0009
 0.8880	82.9925
 0.8870	83.0708
 0.8860	83.0426
 0.8850	82.9622
 0.8840	82.9622
 0.8830	83.0592
 0.8820	83.0205
 0.8810	83.0546
 0.8800	83.0840
 0.8790	83.1106
 0.8780	83.0165
 0.8770	83.0618
 0.8760	83.0845
 0.8750	83.0396
 0.8740	82.9953
 0.8730	83.0237
 0.8720	83.0538
 0.8710	83.0957
 0.8700	83.0463
 0.8690	83.0006
 0.8680	83.0056
 0.8670	83.0463
 0.8660	82.9802
 0.8650	83.0324
 0.8640	83.0259
 0.8630	83.0621
 0.8620	83.1132
 0.8610	83.0668
 0.8600	82.9389
 0.8590	82.9546
 0.8580	82.9484
 0.8570	82.9726
 0.8560	82.9803
 0.8550	82.9817
 0.8540	82.8959
 0.8530	82.9290
 0.8520	83.0070
 0.8510	82.9255
 0.8500	82.9220
 0.8490	82.9116
 0.8480	82.9029
 0.8470	82.9708
 0.8460	82.9235
 0.8450	83.0110
 0.8440	82.9882
 0.8430	82.9529
 0.8420	82.9505
 0.8410	82.9357
 0.8400	82.9142
 0.8390	82.9124
 0.8380	82.9331
 0.8370	82.9161
 0.8360	82.8830
 0.8350	82.9257
 0.8340	82.9475
 0.8330	82.9187
 0.8320	82.9068
 0.8310	82.9324
 0.8300	82.9613
 0.8290	82.9399
 0.8280	82.9349
 0.8270	83.0373
 0.8260	83.0012
 0.8250	82.9140
 0.8240	82.9444
 0.8230	82.9579
 0.8220	82.9104
 0.8210	82.9629
 0.8200	82.9678
 0.8190	82.9592
 0.8180	82.9236
 0.8170	82.9739
 0.8160	83.0152
 0.8150	82.9491
 0.8140	82.9847
 0.8130	82.9647
 0.8120	82.9461
 0.8110	82.9599
 0.8100	82.9620
 0.8090	82.9673
 0.8080	82.9176
 0.8070	82.9391
 0.8060	82.9864
 0.8050	82.9376
 0.8040	82.9759
 0.8030	82.9647
 0.8020	83.0365
 0.8010	82.9819
 0.8000	82.9719
 0.7990	82.9778
 0.7980	82.9216
 0.7970	82.9308
 0.7960	82.9263
 0.7950	82.8286
 0.7940	82.8606
 0.7930	82.8778
 0.7920	82.8532
 0.7910	82.8574
 0.7900	82.8955
 0.7890	82.9229
 0.7880	82.8719
 0.7870	82.9086
 0.7860	82.8356
 0.7850	82.8374
 0.7840	82.8829
 0.7830	82.8772
 0.7820	82.9039
 0.7810	82.8497
 0.7800	82.8327
 0.7790	82.8629
 0.7780	82.8326
 0.7770	82.8299
 0.7760	82.7853
 0.7750	82.8523
 0.7740	82.8112
 0.7730	82.7906
 0.7720	82.7759
 0.7710	82.8151
 0.7700	82.7868
 0.7690	82.8194
 0.7680	82.7769
 0.7670	82.7920
 0.7660	82.7918
 0.7650	82.8058
 0.7640	82.7873
 0.7630	82.7828
 0.7620	82.7727
 0.7610	82.8122
 0.7600	82.7858
 0.7590	82.7935
 0.7580	82.7837
 0.7570	82.7816
 0.7560	82.7995
 0.7550	82.7886
 0.7540	82.7517
 0.7530	82.7351
 0.7520	82.7469
 0.7510	82.7409
 0.7500	82.7849
 0.7490	82.7533
 0.7480	82.7438
 0.7470	82.7295
 0.7460	82.7244
 0.7450	82.7524
 0.7440	82.7350
 0.7430	82.7603
 0.7420	82.7341
 0.7410	82.7397
 0.7400	82.7233
 0.7390	82.7136
 0.7380	82.7210
 0.7370	82.7357
 0.7360	82.6972
 0.7350	82.7090
 0.7340	82.7126
 0.7330	82.7212
 0.7320	82.7081
 0.7310	82.6978
 0.7300	82.6912
 0.7290	82.7027
 0.7280	82.7064
 0.7270	82.6892
 0.7260	82.6738
 0.7250	82.6779
 0.7240	82.6718
 0.7230	82.6564
 0.7220	82.6507
 0.7210	82.6536
 0.7200	82.6676
 0.7190	82.6357
 0.7180	82.6265
 0.7170	82.6445
 0.7160	82.6395
 0.7150	82.6383
 0.7140	82.6341
 0.7130	82.6481
 0.7120	82.6438
 0.7110	82.6311
 0.7100	82.6241
 0.7090	82.6359
 0.7080	82.6246
 0.7070	82.6043
 0.7060	82.5813
 0.7050	82.5998
 0.7040	82.5743
 0.7030	82.5831
 0.7020	82.6029
 0.7010	82.6015
 0.7000	82.5829
 0.6990	82.5616
 0.6980	82.5791
 0.6970	82.5696
 0.6960	82.5556
 0.6950	82.5695
 0.6940	82.5618
 0.6930	82.5522
 0.6920	82.5542
 0.6910	82.5624
 0.6900	82.5663
 0.6890	82.5586
 0.6880	82.5367
 0.6870	82.5561
 0.6860	82.5600
 0.6850	82.5391
 0.6840	82.5348
 0.6830	82.5300
 0.6820	82.5252
 0.6810	82.5231
 0.6800	82.5247
 0.6790	82.5283
 0.6780	82.5061
 0.6770	82.4957
 0.6760	82.5008
 0.6750	82.4793
 0.6740	82.4909
 0.6730	82.4972
 0.6720	82.4988
 0.6710	82.4802
 0.6700	82.4757
 0.6690	82.4900
 0.6680	82.4614
 0.6670	82.4596
 0.6660	82.4626
 0.6650	82.4612
 0.6640	82.4484
 0.6630	82.4292
 0.6620	82.4182
 0.6610	82.4273
 0.6600	82.4381
 0.6590	82.4381
 0.6580	82.4288
 0.6570	82.4150
 0.6560	82.4069
 0.6550	82.3923
 0.6540	82.3905
 0.6530	82.3850
 0.6520	82.3912
 0.6510	82.3753
 0.6500	82.3551
 0.6490	82.3627
 0.6480	82.3364
 0.6470	82.3209
 0.6460	82.3499
 0.6450	82.3397
 0.6440	82.3169
 0.6430	82.3233
 0.6420	82.3129
 0.6410	82.3200
 0.6400	82.3137
 0.6390	82.2834
 0.6380	82.2861
 0.6370	82.2758
 0.6360	82.2583
 0.6350	82.2689
 0.6340	82.2734
 0.6330	82.2631
 0.6320	82.2527
 0.6310	82.2390
 0.6300	82.2265
 0.6290	82.2204
 0.6280	82.2114
 0.6270	82.2155
 0.6260	82.2104
 0.6250	82.1905
 0.6240	82.1831
 0.6230	82.1748
 0.6220	82.1679
 0.6210	82.1572
 0.6200	82.1445
 0.6190	82.1341
 0.6180	82.1066
 0.6170	82.0963
 0.6160	82.0786
 0.6150	82.0685
 0.6140	82.0715
 0.6130	82.0596
 0.6120	82.0430
 0.6110	82.0357
 0.6100	82.0269
 0.6090	81.9992
 0.6080	81.9968
 0.6070	81.9841
 0.6060	81.9640
 0.6050	81.9492
 0.6040	81.9270
 0.6030	81.9129
 0.6020	81.8928
 0.6010	81.8831
 0.6000	81.8671
 0.5990	81.8595
 0.5980	81.8586
 0.5970	81.8492
 0.5960	81.8612
 0.5950	81.8841
 0.5940	81.8688
 0.5930	81.8521
 0.5920	81.8198
 0.5910	81.7948
 0.5900	81.7815
 0.5890	81.7496
 0.5880	81.7310
 0.5870	81.7130
 0.5860	81.6919
 0.5850	81.6613
 0.5840	81.6367
 0.5830	81.6209
 0.5820	81.6090
 0.5810	81.5850
 0.5800	81.5539
 0.5790	81.5201
 0.5780	81.4929
 0.5770	81.4766
 0.5760	81.4530
 0.5750	81.4156
 0.5740	81.3983
 0.5730	81.3616
 0.5720	81.3237
 0.5710	81.3005
 0.5700	81.2855
 0.5690	81.2493
 0.5680	81.2204
 0.5670	81.1869
 0.5660	81.1703
 0.5650	81.1355
 0.5640	81.1122
 0.5630	81.0830
 0.5620	81.0528
 0.5610	80.9984
 0.5600	80.9494
 0.5590	80.9315
 0.5580	80.8864
 0.5570	80.8531
 0.5560	80.8242
 0.5550	80.7977
 0.5540	80.7733
 0.5530	80.7206
 0.5520	80.6895
 0.5510	80.6606
 0.5500	80.6137
 0.5490	80.5707
 0.5480	80.5395
 0.5470	80.5054
 0.5460	80.4617
 0.5450	80.4275
 0.5440	80.4089
 0.5430	80.3937
 0.5420	80.3543
 0.5410	80.3075
 0.5400	80.2700
 0.5390	80.2193
 0.5380	80.1872
 0.5370	80.1748
 0.5360	80.1311
 0.5350	80.0948
 0.5340	80.0717
 0.5330	80.0269
 0.5320	80.0021
 0.5310	79.9484
 0.5300	79.9296
 0.5290	79.8823
 0.5280	79.8467
 0.5270	79.8050
 0.5260	79.7747
 0.5250	79.7574
 0.5240	79.7368
 0.5230	79.6991
 0.5220	79.6728
 0.5210	79.6352
 0.5200	79.6076
 0.5190	79.5738
 0.5180	79.5466
 0.5170	79.4942
 0.5160	79.4704
 0.5150	79.4287
 0.5140	79.4301
 0.5130	79.3856
 0.5120	79.3593
 0.5110	79.3419
 0.5100	79.3112
 0.5090	79.2717
 0.5080	79.2627
 0.5070	79.2235
 0.5060	79.1922
 0.5050	79.1662
 0.5040	79.1390
 0.5030	79.1119
 0.5020	79.0905
 0.5010	79.0497
 0.5000	79.0141
 0.4990	79.0238
 0.4980	78.9925
 0.4970	78.9763
 0.4960	78.9562
 0.4950	78.9413
 0.4940	78.9075
 0.4930	78.8987
 0.4920	78.8806
 0.4910	78.8697
 0.4900	78.8180
 0.4890	78.7962
 0.4880	78.7858
 0.4870	78.7579
 0.4860	78.7184
 0.4850	78.7232
 0.4840	78.7208
 0.4830	78.7065
 0.4820	78.7071
 0.4810	78.6832
 0.4800	78.6756
 0.4790	78.6933
 0.4780	78.6639
 0.4770	78.6616
 0.4760	78.6771
 0.4750	78.6700
 0.4740	78.6602
 0.4730	78.6471
 0.4720	78.6644
 0.4710	78.6568
 0.4700	78.6426
 0.4690	78.6494
 0.4680	78.6562
 0.4670	78.6354
 0.4660	78.6280
 0.4650	78.6548
 0.4640	78.6443
 0.4630	78.6434
 0.4620	78.6408
 0.4610	78.6284
 0.4600	78.6392
 0.4590	78.6478
 0.4580	78.6591
 0.4570	78.6466
 0.4560	78.6584
 0.4550	78.6318
 0.4540	78.6282
 0.4530	78.6323
 0.4520	78.6317
 0.4510	78.6372
 0.4500	78.6504
 0.4490	78.6417
 0.4480	78.6222
 0.4470	78.6146
 0.4460	78.6155
 0.4450	78.6184
 0.4440	78.6126
 0.4430	78.6115
 0.4420	78.5849
 0.4410	78.5695
 0.4400	78.5446
 0.4390	78.5413
 0.4380	78.5449
 0.4370	78.5131
 0.4360	78.4989
 0.4350	78.4911
 0.4340	78.4732
 0.4330	78.4627
 0.4320	78.4487
 0.4310	78.4393
 0.4300	78.4076
 0.4290	78.3811
 0.4280	78.3920
 0.4270	78.3889
 0.4260	78.3799
 0.4250	78.3567
 0.4240	78.3704
 0.4230	78.3362
 0.4220	78.3346
 0.4210	78.3320
 0.4200	78.3356
 0.4190	78.3413
 0.4180	78.3426
 0.4170	78.3612
 0.4160	78.3511
 0.4150	78.3638
 0.4140	78.3975
 0.4130	78.4053
 0.4120	78.3983
 0.4110	78.4220
 0.4100	78.4275
 0.4090	78.4223
 0.4080	78.4316
 0.4070	78.4638
 0.4060	78.4534
 0.4050	78.4686
 0.4040	78.4515
 0.4030	78.4599
 0.4020	78.4536
 0.4010	78.4440
 0.4000	78.4335
