Name: Almandine Garnet Fe_3Al_2(SiO_4)_3
Type: Mineral
Class: Silicate
Subclass: Nesosilicate
Particle Size: Coarse
Sample No.: NS-4A
Owner: JPL
Wavelength Range: VSWIR
Origin: USA, Arizona, Graham County, Stanley Butte.
Collection Date: N/A
Description: Particle size was 125-500um. Collected by:  Burminco Original ASTER Spectral Library name was jpl.perkin.mineral.silicate.nesosilicate.coarse.ns04a.spectrum.txt
Measurement: Hemispherical reflectance
First Column: X
Second Column: Y
X Units: Wavelength (micrometers)
Y Units:Reflectance (percent)
First X Value:  2.5000
Last X Value:  0.4000
Number of X Values: 2101
Additional Information: mineral.silicate.nesosilicate.coarse.vswir.ns-4a.jpl.perkin.ancillary.txt

 2.5000	15.7438
 2.4990	15.0363
 2.4980	15.5155
 2.4970	15.3621
 2.4960	15.1553
 2.4950	15.2769
 2.4940	15.4480
 2.4930	15.0420
 2.4920	15.3657
 2.4910	15.0449
 2.4900	15.4190
 2.4890	14.9697
 2.4880	15.1097
 2.4870	15.0004
 2.4860	15.2365
 2.4850	14.8392
 2.4840	15.1098
 2.4830	14.8362
 2.4820	15.0844
 2.4810	14.8563
 2.4800	15.0234
 2.4790	14.7620
 2.4780	14.9709
 2.4770	14.6832
 2.4760	14.8918
 2.4750	14.7150
 2.4740	14.8666
 2.4730	14.7361
 2.4720	14.7808
 2.4710	14.6658
 2.4700	14.7291
 2.4690	14.5012
 2.4680	14.8573
 2.4670	14.5709
 2.4660	14.6550
 2.4650	14.5002
 2.4640	14.5324
 2.4630	14.4829
 2.4620	14.6949
 2.4610	14.3537
 2.4600	14.5559
 2.4590	14.4258
 2.4580	14.5216
 2.4570	14.4187
 2.4560	14.4564
 2.4550	14.3463
 2.4540	14.4691
 2.4530	14.2995
 2.4520	14.4379
 2.4510	14.2149
 2.4500	14.3541
 2.4490	14.3444
 2.4480	14.3413
 2.4470	14.1812
 2.4460	14.2861
 2.4450	14.2549
 2.4440	14.3466
 2.4430	14.2479
 2.4420	14.2644
 2.4410	14.0590
 2.4400	14.1487
 2.4390	13.9876
 2.4380	14.1082
 2.4370	14.0546
 2.4360	14.1812
 2.4350	14.0774
 2.4340	14.1925
 2.4330	14.0522
 2.4320	14.0355
 2.4310	13.9605
 2.4300	14.0028
 2.4290	13.9828
 2.4280	14.0215
 2.4270	13.8609
 2.4260	13.9862
 2.4250	13.8967
 2.4240	13.9417
 2.4230	13.7527
 2.4220	13.8973
 2.4210	13.8956
 2.4200	13.8737
 2.4190	13.7837
 2.4180	13.8417
 2.4170	13.7581
 2.4160	13.7616
 2.4150	13.6223
 2.4140	13.7387
 2.4130	13.6576
 2.4120	13.7396
 2.4110	13.6913
 2.4100	13.7478
 2.4090	13.6770
 2.4080	13.7591
 2.4070	13.6060
 2.4060	13.6618
 2.4050	13.5557
 2.4040	13.6042
 2.4030	13.5841
 2.4020	13.5981
 2.4010	13.4905
 2.4000	13.5025
 2.3990	13.4929
 2.3980	13.5279
 2.3970	13.4874
 2.3960	13.5341
 2.3950	13.5174
 2.3940	13.5015
 2.3930	13.4584
 2.3920	13.4707
 2.3910	13.4084
 2.3900	13.4539
 2.3890	13.4239
 2.3880	13.4014
 2.3870	13.3449
 2.3860	13.4298
 2.3850	13.3449
 2.3840	13.3519
 2.3830	13.4330
 2.3820	13.4624
 2.3810	13.3441
 2.3800	13.3718
 2.3790	13.3347
 2.3780	13.2948
 2.3770	13.3273
 2.3760	13.3549
 2.3750	13.3171
 2.3740	13.3408
 2.3730	13.2932
 2.3720	13.3058
 2.3710	13.2932
 2.3700	13.2319
 2.3690	13.2067
 2.3680	13.2463
 2.3670	13.2520
 2.3660	13.2438
 2.3650	13.2270
 2.3640	13.2751
 2.3630	13.2316
 2.3620	13.2071
 2.3610	13.1792
 2.3600	13.1851
 2.3590	13.1880
 2.3580	13.1886
 2.3570	13.1595
 2.3560	13.1079
 2.3550	13.1364
 2.3540	13.1631
 2.3530	13.1174
 2.3520	13.1346
 2.3510	13.1148
 2.3500	13.0916
 2.3490	13.1521
 2.3480	13.1271
 2.3470	13.0621
 2.3460	13.0567
 2.3450	13.1008
 2.3440	13.0907
 2.3430	13.1110
 2.3420	13.0950
 2.3410	13.1114
 2.3400	13.0726
 2.3390	13.0391
 2.3380	13.0129
 2.3370	13.0071
 2.3360	13.0257
 2.3350	13.0825
 2.3340	12.9960
 2.3330	12.9870
 2.3320	12.9707
 2.3310	12.9869
 2.3300	12.9495
 2.3290	12.9602
 2.3280	12.9629
 2.3270	12.9774
 2.3260	12.9139
 2.3250	12.9608
 2.3240	12.9419
 2.3230	12.9435
 2.3220	12.8935
 2.3210	12.9085
 2.3200	12.8846
 2.3190	12.8931
 2.3180	12.8681
 2.3170	12.8913
 2.3160	12.8592
 2.3150	12.9150
 2.3140	12.8704
 2.3130	12.8720
 2.3120	12.8734
 2.3110	12.8490
 2.3100	12.8467
 2.3090	12.8817
 2.3080	12.8825
 2.3070	12.8948
 2.3060	12.8118
 2.3050	12.8803
 2.3040	12.8589
 2.3030	12.9635
 2.3020	12.9053
 2.3010	12.9070
 2.3000	12.8613
 2.2990	12.8755
 2.2980	12.8814
 2.2970	12.9172
 2.2960	12.8594
 2.2950	12.8851
 2.2940	12.8355
 2.2930	12.9101
 2.2920	12.7850
 2.2910	12.9040
 2.2900	12.8297
 2.2890	12.9643
 2.2880	12.8638
 2.2870	12.9239
 2.2860	12.8502
 2.2850	12.8520
 2.2840	12.7754
 2.2830	12.9197
 2.2820	12.8228
 2.2810	12.8870
 2.2800	12.7786
 2.2790	12.8626
 2.2780	12.8381
 2.2770	12.8962
 2.2760	12.8213
 2.2750	12.8798
 2.2740	12.8499
 2.2730	12.8740
 2.2720	12.8086
 2.2710	12.9476
 2.2700	12.8656
 2.2690	12.8927
 2.2680	12.7741
 2.2670	12.9431
 2.2660	12.8289
 2.2650	12.8917
 2.2640	12.8972
 2.2630	12.9046
 2.2620	12.8235
 2.2610	12.9343
 2.2600	12.8396
 2.2590	12.8529
 2.2580	12.8301
 2.2570	12.9108
 2.2560	12.7933
 2.2550	12.8860
 2.2540	12.8317
 2.2530	12.9783
 2.2520	12.8941
 2.2510	12.9506
 2.2500	12.8540
 2.2490	12.9225
 2.2480	12.8681
 2.2470	12.9158
 2.2460	12.8691
 2.2450	13.0309
 2.2440	12.9117
 2.2430	12.9676
 2.2420	12.8276
 2.2410	12.9766
 2.2400	12.8547
 2.2390	13.0802
 2.2380	12.9164
 2.2370	13.0159
 2.2360	12.9090
 2.2350	13.0815
 2.2340	12.9808
 2.2330	13.0231
 2.2320	12.9429
 2.2310	13.0580
 2.2300	12.9747
 2.2290	12.9984
 2.2280	13.0160
 2.2270	13.0993
 2.2260	12.9916
 2.2250	13.1148
 2.2240	12.9961
 2.2230	13.1560
 2.2220	13.0005
 2.2210	13.1783
 2.2200	13.0096
 2.2190	13.1933
 2.2180	13.0663
 2.2170	13.1319
 2.2160	13.0495
 2.2150	13.2113
 2.2140	13.0996
 2.2130	13.1879
 2.2120	13.1855
 2.2110	13.1122
 2.2100	13.2043
 2.2090	13.2175
 2.2080	13.2033
 2.2070	13.2362
 2.2060	13.1952
 2.2050	13.3060
 2.2040	13.1304
 2.2030	13.3101
 2.2020	13.1119
 2.2010	13.3869
 2.2000	13.2120
 2.1990	13.3176
 2.1980	13.1908
 2.1970	13.3021
 2.1960	13.3400
 2.1950	13.3860
 2.1940	13.3102
 2.1930	13.4164
 2.1920	13.3498
 2.1910	13.4668
 2.1900	13.2862
 2.1890	13.4595
 2.1880	13.3756
 2.1870	13.3528
 2.1860	13.3706
 2.1850	13.4367
 2.1840	13.3989
 2.1830	13.4665
 2.1820	13.4602
 2.1810	13.5417
 2.1800	13.3892
 2.1790	13.4856
 2.1780	13.4845
 2.1770	13.5369
 2.1760	13.4941
 2.1750	13.6144
 2.1740	13.5066
 2.1730	13.5934
 2.1720	13.5792
 2.1710	13.6150
 2.1700	13.5576
 2.1690	13.7243
 2.1680	13.6287
 2.1670	13.6869
 2.1660	13.6141
 2.1650	13.7782
 2.1640	13.7043
 2.1630	13.7600
 2.1620	13.7088
 2.1610	13.7739
 2.1600	13.7503
 2.1590	13.7572
 2.1580	13.7995
 2.1570	13.8873
 2.1560	13.7383
 2.1550	13.8226
 2.1540	13.8702
 2.1530	13.9129
 2.1520	13.8491
 2.1510	13.8931
 2.1500	13.8811
 2.1490	13.9718
 2.1480	13.9091
 2.1470	13.9527
 2.1460	13.9089
 2.1450	13.9582
 2.1440	13.9747
 2.1430	14.0036
 2.1420	13.9764
 2.1410	14.0666
 2.1400	13.9999
 2.1390	14.0285
 2.1380	13.9895
 2.1370	14.1086
 2.1360	13.9934
 2.1350	14.0660
 2.1340	14.0480
 2.1330	14.0747
 2.1320	14.0726
 2.1310	14.0740
 2.1300	14.0831
 2.1290	14.1644
 2.1280	14.0972
 2.1270	14.0760
 2.1260	14.0963
 2.1250	14.1047
 2.1240	14.1158
 2.1230	14.0952
 2.1220	14.0762
 2.1210	14.1924
 2.1200	14.1716
 2.1190	14.1792
 2.1180	14.1299
 2.1170	14.1509
 2.1160	14.1722
 2.1150	14.1770
 2.1140	14.1639
 2.1130	14.2382
 2.1120	14.1523
 2.1110	14.1773
 2.1100	14.1731
 2.1090	14.1906
 2.1080	14.2010
 2.1070	14.1979
 2.1060	14.1470
 2.1050	14.1918
 2.1040	14.2218
 2.1030	14.2543
 2.1020	14.1986
 2.1010	14.2064
 2.1000	14.2172
 2.0990	14.2593
 2.0980	14.2663
 2.0970	14.2561
 2.0960	14.2377
 2.0950	14.2924
 2.0940	14.2884
 2.0930	14.3559
 2.0920	14.3920
 2.0910	14.3618
 2.0900	14.3131
 2.0890	14.3720
 2.0880	14.3597
 2.0870	14.3895
 2.0860	14.3943
 2.0850	14.3819
 2.0840	14.4029
 2.0830	14.4463
 2.0820	14.4475
 2.0810	14.4750
 2.0800	14.4926
 2.0790	14.5053
 2.0780	14.4853
 2.0770	14.5136
 2.0760	14.5306
 2.0750	14.5305
 2.0740	14.5290
 2.0730	14.5621
 2.0720	14.6050
 2.0710	14.5810
 2.0700	14.5952
 2.0690	14.6761
 2.0680	14.6640
 2.0670	14.6549
 2.0660	14.6824
 2.0650	14.6726
 2.0640	14.7198
 2.0630	14.6928
 2.0620	14.6745
 2.0610	14.7290
 2.0600	14.7446
 2.0590	14.7215
 2.0580	14.7636
 2.0570	14.7293
 2.0560	14.7497
 2.0550	14.7879
 2.0540	14.8045
 2.0530	14.7659
 2.0520	14.7727
 2.0510	14.7967
 2.0500	14.8249
 2.0490	14.7796
 2.0480	14.8873
 2.0470	14.8537
 2.0460	14.8535
 2.0450	14.8637
 2.0440	14.8638
 2.0430	14.8987
 2.0420	14.9407
 2.0410	14.8913
 2.0400	14.9328
 2.0390	14.9598
 2.0380	14.9211
 2.0370	14.9419
 2.0360	15.0113
 2.0350	14.9276
 2.0340	14.9998
 2.0330	14.9989
 2.0320	15.0193
 2.0310	14.9594
 2.0300	14.9696
 2.0290	15.0252
 2.0280	15.1065
 2.0270	15.0330
 2.0260	15.0681
 2.0250	15.0140
 2.0240	15.0766
 2.0230	15.0562
 2.0220	15.0890
 2.0210	15.0785
 2.0200	15.0876
 2.0190	15.0244
 2.0180	15.1216
 2.0170	15.0892
 2.0160	15.0632
 2.0150	15.0512
 2.0140	15.1350
 2.0130	15.0711
 2.0120	15.1587
 2.0110	15.1301
 2.0100	15.2205
 2.0090	15.1547
 2.0080	15.1786
 2.0070	15.0835
 2.0060	15.1461
 2.0050	15.1825
 2.0040	15.2113
 2.0030	15.1682
 2.0020	15.1972
 2.0010	15.1552
 2.0000	15.2221
 1.9990	15.1820
 1.9980	15.2461
 1.9970	15.2092
 1.9960	15.2428
 1.9950	15.1738
 1.9940	15.2346
 1.9930	15.1828
 1.9920	15.2147
 1.9910	15.1900
 1.9900	15.2204
 1.9890	15.2217
 1.9880	15.3190
 1.9870	15.1710
 1.9860	15.2506
 1.9850	15.1595
 1.9840	15.2140
 1.9830	15.2226
 1.9820	15.2455
 1.9810	15.2046
 1.9800	15.2651
 1.9790	15.2751
 1.9780	15.2681
 1.9770	15.2074
 1.9760	15.3265
 1.9750	15.2323
 1.9740	15.2369
 1.9730	15.1492
 1.9720	15.2684
 1.9710	15.0890
 1.9700	15.2937
 1.9690	15.1676
 1.9680	15.2981
 1.9670	15.1567
 1.9660	15.3420
 1.9650	15.2177
 1.9640	15.2487
 1.9630	15.1662
 1.9620	15.2526
 1.9610	15.2036
 1.9600	15.2960
 1.9590	15.1303
 1.9580	15.1767
 1.9570	15.1465
 1.9560	15.2965
 1.9550	15.1925
 1.9540	15.2123
 1.9530	15.2296
 1.9520	15.2740
 1.9510	15.1272
 1.9500	15.2370
 1.9490	15.1783
 1.9480	15.2237
 1.9470	15.1862
 1.9460	15.2546
 1.9450	15.1476
 1.9440	15.2305
 1.9430	15.1342
 1.9420	15.2288
 1.9410	15.0798
 1.9400	15.2263
 1.9390	15.0725
 1.9380	15.2144
 1.9370	15.1495
 1.9360	15.2566
 1.9350	15.0789
 1.9340	15.1523
 1.9330	15.2216
 1.9320	15.2276
 1.9310	15.1408
 1.9300	15.1361
 1.9290	15.0609
 1.9280	15.0841
 1.9270	15.1667
 1.9260	15.0346
 1.9250	15.0927
 1.9240	15.2004
 1.9230	15.0168
 1.9220	15.1438
 1.9210	15.0132
 1.9200	15.0868
 1.9190	14.9886
 1.9180	15.1066
 1.9170	14.9234
 1.9160	15.1099
 1.9150	14.9920
 1.9140	15.0684
 1.9130	14.9455
 1.9120	14.9813
 1.9110	14.9424
 1.9100	15.0717
 1.9090	14.9544
 1.9080	15.0350
 1.9070	14.9413
 1.9060	14.9843
 1.9050	14.9277
 1.9040	15.0382
 1.9030	14.8934
 1.9020	15.0024
 1.9010	14.8722
 1.9000	15.0011
 1.8990	14.7619
 1.8980	14.9114
 1.8970	14.7884
 1.8960	14.8717
 1.8950	14.7553
 1.8940	14.9148
 1.8930	14.7505
 1.8920	14.8522
 1.8910	14.7252
 1.8900	14.7934
 1.8890	14.6927
 1.8880	14.7806
 1.8870	14.6550
 1.8860	14.6867
 1.8850	14.7174
 1.8840	14.7161
 1.8830	14.6722
 1.8820	14.7082
 1.8810	14.5560
 1.8800	14.6971
 1.8790	14.6123
 1.8780	14.7095
 1.8770	14.5334
 1.8760	14.6190
 1.8750	14.6131
 1.8740	14.6306
 1.8730	14.4800
 1.8720	14.5468
 1.8710	14.4384
 1.8700	14.4727
 1.8690	14.3951
 1.8680	14.4421
 1.8670	14.3416
 1.8660	14.4143
 1.8650	14.4487
 1.8640	14.4059
 1.8630	14.3672
 1.8620	14.4671
 1.8610	14.3338
 1.8600	14.3668
 1.8590	14.2915
 1.8580	14.2827
 1.8570	14.2172
 1.8560	14.2393
 1.8550	14.1897
 1.8540	14.2849
 1.8530	14.2005
 1.8520	14.1997
 1.8510	14.1460
 1.8500	14.1646
 1.8490	14.0601
 1.8480	14.1657
 1.8470	14.0667
 1.8460	14.0449
 1.8450	14.0260
 1.8440	14.0775
 1.8430	13.9844
 1.8420	14.0215
 1.8410	13.9915
 1.8400	14.0305
 1.8390	13.9649
 1.8380	13.9226
 1.8370	13.8463
 1.8360	13.8451
 1.8350	13.7784
 1.8340	13.8739
 1.8330	13.8055
 1.8320	13.8270
 1.8310	13.7292
 1.8300	13.7380
 1.8290	13.7103
 1.8280	13.7528
 1.8270	13.6890
 1.8260	13.6637
 1.8250	13.6148
 1.8240	13.6155
 1.8230	13.5942
 1.8220	13.6342
 1.8210	13.5275
 1.8200	13.5147
 1.8190	13.4864
 1.8180	13.4613
 1.8170	13.4392
 1.8160	13.4666
 1.8150	13.4517
 1.8140	13.4579
 1.8130	13.4189
 1.8120	13.3610
 1.8110	13.3108
 1.8100	13.3572
 1.8090	13.2740
 1.8080	13.2530
 1.8070	13.2321
 1.8060	13.2202
 1.8050	13.2232
 1.8040	13.2125
 1.8030	13.1837
 1.8020	13.2236
 1.8010	13.2456
 1.8000	13.2006
 1.7990	13.1256
 1.7980	13.1072
 1.7970	13.0685
 1.7960	13.0764
 1.7950	13.0396
 1.7940	13.0306
 1.7930	12.9858
 1.7920	12.9518
 1.7910	12.9557
 1.7900	12.9274
 1.7890	12.9154
 1.7880	12.9266
 1.7870	12.8693
 1.7860	12.9053
 1.7850	12.8630
 1.7840	12.8154
 1.7830	12.8018
 1.7820	12.8380
 1.7810	12.8330
 1.7800	12.7506
 1.7790	12.7302
 1.7780	12.7304
 1.7770	12.7579
 1.7760	12.6929
 1.7750	12.6602
 1.7740	12.6137
 1.7730	12.5985
 1.7720	12.6164
 1.7710	12.6488
 1.7700	12.5369
 1.7690	12.5245
 1.7680	12.5334
 1.7670	12.5616
 1.7660	12.5319
 1.7650	12.5049
 1.7640	12.4695
 1.7630	12.4966
 1.7620	12.4842
 1.7610	12.5104
 1.7600	12.4384
 1.7590	12.4838
 1.7580	12.4105
 1.7570	12.3473
 1.7560	12.3506
 1.7550	12.3464
 1.7540	12.3130
 1.7530	12.3426
 1.7520	12.3217
 1.7510	12.2757
 1.7500	12.2481
 1.7490	12.2791
 1.7480	12.2324
 1.7470	12.2517
 1.7460	12.2208
 1.7450	12.2199
 1.7440	12.1715
 1.7430	12.1941
 1.7420	12.1274
 1.7410	12.1549
 1.7400	12.0966
 1.7390	12.1491
 1.7380	12.0611
 1.7370	12.1326
 1.7360	12.0649
 1.7350	12.0821
 1.7340	12.0856
 1.7330	12.0655
 1.7320	11.9972
 1.7310	12.0500
 1.7300	12.0162
 1.7290	12.0000
 1.7280	11.9281
 1.7270	11.9676
 1.7260	11.9086
 1.7250	11.9741
 1.7240	11.9697
 1.7230	11.9693
 1.7220	11.8796
 1.7210	11.9061
 1.7200	11.8861
 1.7190	11.9480
 1.7180	11.8536
 1.7170	11.8638
 1.7160	11.8618
 1.7150	11.9096
 1.7140	11.8515
 1.7130	11.8822
 1.7120	11.7636
 1.7110	11.8411
 1.7100	11.7846
 1.7090	11.8658
 1.7080	11.8120
 1.7070	11.7855
 1.7060	11.7604
 1.7050	11.7817
 1.7040	11.6587
 1.7030	11.7677
 1.7020	11.7306
 1.7010	11.7580
 1.7000	11.7206
 1.6990	11.8118
 1.6980	11.6748
 1.6970	11.7457
 1.6960	11.6123
 1.6950	11.6967
 1.6940	11.7126
 1.6930	11.7257
 1.6920	11.6093
 1.6910	11.7237
 1.6900	11.6327
 1.6890	11.7297
 1.6880	11.6274
 1.6870	11.6741
 1.6860	11.6599
 1.6850	11.6445
 1.6840	11.6304
 1.6830	11.6815
 1.6820	11.5850
 1.6810	11.7045
 1.6800	11.5568
 1.6790	11.7469
 1.6780	11.6175
 1.6770	11.6486
 1.6760	11.6297
 1.6750	11.6961
 1.6740	11.5865
 1.6730	11.6635
 1.6720	11.6014
 1.6710	11.7073
 1.6700	11.5346
 1.6690	11.7005
 1.6680	11.4816
 1.6670	11.7498
 1.6660	11.5508
 1.6650	11.6272
 1.6640	11.6925
 1.6630	11.7219
 1.6620	11.5501
 1.6610	11.7223
 1.6600	11.6622
 1.6590	11.7011
 1.6580	11.6433
 1.6570	11.7261
 1.6560	11.6068
 1.6550	11.7160
 1.6540	11.6391
 1.6530	11.7746
 1.6520	11.6492
 1.6510	11.7409
 1.6500	11.6334
 1.6490	11.7127
 1.6480	11.6251
 1.6470	11.7717
 1.6460	11.6689
 1.6450	11.7787
 1.6440	11.6687
 1.6430	11.7933
 1.6420	11.7056
 1.6410	11.6051
 1.6400	11.8145
 1.6390	11.8227
 1.6380	11.6981
 1.6370	11.8032
 1.6360	11.7364
 1.6350	11.8779
 1.6340	11.7263
 1.6330	11.8887
 1.6320	11.7124
 1.6310	11.8331
 1.6300	11.7036
 1.6290	11.8419
 1.6280	11.7664
 1.6270	11.9049
 1.6260	11.8296
 1.6250	11.8604
 1.6240	11.8185
 1.6230	11.9411
 1.6220	11.8343
 1.6210	11.9982
 1.6200	11.9179
 1.6190	11.9972
 1.6180	11.9451
 1.6170	11.9916
 1.6160	11.8345
 1.6150	12.0193
 1.6140	11.8824
 1.6130	12.0080
 1.6120	11.9547
 1.6110	12.0537
 1.6100	11.9603
 1.6090	12.1157
 1.6080	12.0573
 1.6070	12.1247
 1.6060	11.9563
 1.6050	12.1115
 1.6040	12.0289
 1.6030	12.0888
 1.6020	12.0866
 1.6010	12.2092
 1.6000	12.0675
 1.5990	12.2482
 1.5980	12.1561
 1.5970	12.1582
 1.5960	12.0768
 1.5950	12.2766
 1.5940	12.1732
 1.5930	12.2494
 1.5920	12.1998
 1.5910	12.3248
 1.5900	12.2528
 1.5890	12.3047
 1.5880	12.2322
 1.5870	12.3413
 1.5860	12.2789
 1.5850	12.2664
 1.5840	12.2761
 1.5830	12.3806
 1.5820	12.3267
 1.5810	12.3588
 1.5800	12.3415
 1.5790	12.4329
 1.5780	12.3623
 1.5770	12.4398
 1.5760	12.4598
 1.5750	12.4889
 1.5740	12.4120
 1.5730	12.4974
 1.5720	12.5093
 1.5710	12.4986
 1.5700	12.5174
 1.5690	12.5627
 1.5680	12.4999
 1.5670	12.5977
 1.5660	12.5214
 1.5650	12.5491
 1.5640	12.5737
 1.5630	12.6326
 1.5620	12.6169
 1.5610	12.6409
 1.5600	12.5962
 1.5590	12.6931
 1.5580	12.6362
 1.5570	12.7196
 1.5560	12.6779
 1.5550	12.7367
 1.5540	12.7493
 1.5530	12.7329
 1.5520	12.6542
 1.5510	12.7558
 1.5500	12.7352
 1.5490	12.8147
 1.5480	12.7636
 1.5470	12.7816
 1.5460	12.7760
 1.5450	12.9045
 1.5440	12.8153
 1.5430	12.8493
 1.5420	12.7586
 1.5410	12.8454
 1.5400	12.8131
 1.5390	12.8493
 1.5380	12.8417
 1.5370	12.8940
 1.5360	12.8838
 1.5350	12.9296
 1.5340	12.8419
 1.5330	12.9023
 1.5320	12.8867
 1.5310	12.9227
 1.5300	12.9084
 1.5290	12.9132
 1.5280	12.9502
 1.5270	12.9982
 1.5260	12.9233
 1.5250	12.9458
 1.5240	12.8955
 1.5230	12.9375
 1.5220	13.0057
 1.5210	12.9799
 1.5200	12.9683
 1.5190	12.9813
 1.5180	12.9504
 1.5170	12.9799
 1.5160	12.9478
 1.5150	12.9720
 1.5140	12.9445
 1.5130	12.9449
 1.5120	12.9840
 1.5110	13.0065
 1.5100	13.0157
 1.5090	13.0335
 1.5080	13.0003
 1.5070	12.9754
 1.5060	12.9551
 1.5050	12.9827
 1.5040	13.0056
 1.5030	12.9867
 1.5020	12.9880
 1.5010	12.9911
 1.5000	12.9617
 1.4990	12.9853
 1.4980	13.0020
 1.4970	12.9574
 1.4960	12.9300
 1.4950	12.9504
 1.4940	12.9364
 1.4930	12.9528
 1.4920	12.9759
 1.4910	12.8941
 1.4900	12.8797
 1.4890	12.8982
 1.4880	12.9019
 1.4870	12.8967
 1.4860	12.8994
 1.4850	12.8893
 1.4840	12.8432
 1.4830	12.8298
 1.4820	12.8680
 1.4810	12.8571
 1.4800	12.8714
 1.4790	12.8024
 1.4780	12.7807
 1.4770	12.8117
 1.4760	12.8028
 1.4750	12.6979
 1.4740	12.7738
 1.4730	12.7366
 1.4720	12.7042
 1.4710	12.6705
 1.4700	12.6806
 1.4690	12.6155
 1.4680	12.6341
 1.4670	12.6297
 1.4660	12.6366
 1.4650	12.5764
 1.4640	12.5514
 1.4630	12.4959
 1.4620	12.5080
 1.4610	12.4113
 1.4600	12.4406
 1.4590	12.4292
 1.4580	12.4235
 1.4570	12.3547
 1.4560	12.4014
 1.4550	12.3169
 1.4540	12.2644
 1.4530	12.2121
 1.4520	12.2402
 1.4510	12.1179
 1.4500	12.1616
 1.4490	12.1268
 1.4480	12.1342
 1.4470	12.0098
 1.4460	12.0703
 1.4450	11.9666
 1.4440	11.9785
 1.4430	11.9593
 1.4420	11.9641
 1.4410	11.8709
 1.4400	11.8934
 1.4390	11.8392
 1.4380	11.8148
 1.4370	11.7434
 1.4360	11.7715
 1.4350	11.6407
 1.4340	11.7150
 1.4330	11.5801
 1.4320	11.6260
 1.4310	11.5528
 1.4300	11.5817
 1.4290	11.4326
 1.4280	11.4120
 1.4270	11.3088
 1.4260	11.3590
 1.4250	11.2885
 1.4240	11.3542
 1.4230	11.1748
 1.4220	11.2088
 1.4210	11.1601
 1.4200	11.1201
 1.4190	11.0920
 1.4180	11.0909
 1.4170	10.9662
 1.4160	11.0043
 1.4150	10.9637
 1.4140	10.8777
 1.4130	10.8228
 1.4120	10.8592
 1.4110	10.8288
 1.4100	10.7822
 1.4090	10.6559
 1.4080	10.7194
 1.4070	10.5760
 1.4060	10.5904
 1.4050	10.4833
 1.4040	10.5325
 1.4030	10.4935
 1.4020	10.4424
 1.4010	10.2831
 1.4000	10.4167
 1.3990	10.3273
 1.3980	10.3183
 1.3970	10.1693
 1.3960	10.2957
 1.3950	10.1310
 1.3940	10.1826
 1.3930	 9.9986
 1.3920	10.0643
 1.3910	 9.9635
 1.3900	10.0701
 1.3890	 9.8919
 1.3880	 9.8789
 1.3870	 9.8200
 1.3860	 9.9318
 1.3850	 9.7075
 1.3840	 9.8538
 1.3830	 9.6331
 1.3820	 9.6425
 1.3810	 9.5338
 1.3800	 9.6302
 1.3790	 9.5343
 1.3780	 9.5984
 1.3770	 9.4207
 1.3760	 9.5521
 1.3750	 9.4283
 1.3740	 9.4516
 1.3730	 9.3629
 1.3720	 9.3819
 1.3710	 9.1859
 1.3700	 9.2862
 1.3690	 9.2046
 1.3680	 9.2287
 1.3670	 9.0224
 1.3660	 9.2199
 1.3650	 9.0730
 1.3640	 9.0843
 1.3630	 8.9066
 1.3620	 9.0751
 1.3610	 8.8455
 1.3600	 9.0193
 1.3590	 8.8199
 1.3580	 8.9120
 1.3570	 8.7103
 1.3560	 8.9753
 1.3550	 8.4741
 1.3540	 8.7777
 1.3530	 8.6194
 1.3520	 8.6878
 1.3510	 8.5572
 1.3500	 8.7758
 1.3490	 8.5054
 1.3480	 8.6222
 1.3470	 8.4898
 1.3460	 8.6039
 1.3450	 8.4490
 1.3440	 8.5019
 1.3430	 8.3713
 1.3420	 8.4669
 1.3410	 8.3887
 1.3400	 8.3447
 1.3390	 8.3314
 1.3380	 8.2749
 1.3370	 8.3134
 1.3360	 8.2903
 1.3350	 8.1756
 1.3340	 8.2407
 1.3330	 8.0829
 1.3320	 8.2113
 1.3310	 8.0742
 1.3300	 8.1547
 1.3290	 8.0373
 1.3280	 8.2057
 1.3270	 8.0326
 1.3260	 8.1200
 1.3250	 8.0564
 1.3240	 8.0371
 1.3230	 7.9169
 1.3220	 7.9770
 1.3210	 7.9080
 1.3200	 8.0122
 1.3190	 7.9724
 1.3180	 8.0218
 1.3170	 7.9039
 1.3160	 8.0350
 1.3150	 7.9032
 1.3140	 7.8928
 1.3130	 7.7903
 1.3120	 7.9260
 1.3110	 7.8582
 1.3100	 7.8308
 1.3090	 7.7382
 1.3080	 7.9547
 1.3070	 7.7240
 1.3060	 7.8546
 1.3050	 7.7693
 1.3040	 7.7899
 1.3030	 7.7087
 1.3020	 7.8232
 1.3010	 7.7041
 1.3000	 7.8066
 1.2990	 7.7864
 1.2980	 7.7925
 1.2970	 7.7339
 1.2960	 7.7794
 1.2950	 7.6584
 1.2940	 7.7334
 1.2930	 7.7561
 1.2920	 7.7701
 1.2910	 7.7211
 1.2900	 7.7858
 1.2890	 7.7379
 1.2880	 7.7814
 1.2870	 7.7094
 1.2860	 7.7715
 1.2850	 7.6578
 1.2840	 7.8110
 1.2830	 7.7011
 1.2820	 7.7085
 1.2810	 7.7510
 1.2800	 7.8005
 1.2790	 7.7392
 1.2780	 7.7679
 1.2770	 7.7566
 1.2760	 7.8156
 1.2750	 7.7848
 1.2740	 7.8052
 1.2730	 7.6999
 1.2720	 7.7566
 1.2710	 7.8009
 1.2700	 7.8930
 1.2690	 7.8342
 1.2680	 7.8784
 1.2670	 7.8389
 1.2660	 7.9285
 1.2650	 7.8617
 1.2640	 7.9206
 1.2630	 7.9015
 1.2620	 7.8815
 1.2610	 7.8934
 1.2600	 7.9587
 1.2590	 7.9211
 1.2580	 8.0049
 1.2570	 8.0308
 1.2560	 8.0331
 1.2550	 7.9911
 1.2540	 8.0251
 1.2530	 8.0217
 1.2520	 8.0513
 1.2510	 8.0674
 1.2500	 8.1100
 1.2490	 8.1073
 1.2480	 8.1449
 1.2470	 8.1117
 1.2460	 8.2229
 1.2450	 8.2269
 1.2440	 8.2265
 1.2430	 8.2820
 1.2420	 8.3781
 1.2410	 8.3358
 1.2400	 8.3994
 1.2390	 8.3830
 1.2380	 8.3961
 1.2370	 8.4133
 1.2360	 8.4641
 1.2350	 8.4749
 1.2340	 8.4841
 1.2330	 8.5312
 1.2320	 8.5521
 1.2310	 8.5850
 1.2300	 8.6309
 1.2290	 8.6674
 1.2280	 8.7390
 1.2270	 8.7441
 1.2260	 8.7801
 1.2250	 8.7608
 1.2240	 8.8388
 1.2230	 8.8528
 1.2220	 8.8673
 1.2210	 8.9114
 1.2200	 8.9423
 1.2190	 8.9896
 1.2180	 9.0470
 1.2170	 9.0675
 1.2160	 9.0505
 1.2150	 9.1405
 1.2140	 9.2012
 1.2130	 9.2122
 1.2120	 9.2753
 1.2110	 9.3634
 1.2100	 9.4122
 1.2090	 9.4239
 1.2080	 9.4317
 1.2070	 9.5128
 1.2060	 9.5729
 1.2050	 9.6092
 1.2040	 9.6217
 1.2030	 9.6493
 1.2020	 9.7189
 1.2010	 9.8354
 1.2000	 9.8140
 1.1990	 9.9027
 1.1980	 9.9796
 1.1970	 9.9988
 1.1960	10.0405
 1.1950	10.1369
 1.1940	10.1659
 1.1930	10.2439
 1.1920	10.2758
 1.1910	10.3596
 1.1900	10.3978
 1.1890	10.4469
 1.1880	10.4219
 1.1870	10.6149
 1.1860	10.6748
 1.1850	10.7174
 1.1840	10.8214
 1.1830	10.8432
 1.1820	10.8664
 1.1810	11.0083
 1.1800	11.0653
 1.1790	11.1839
 1.1780	11.1930
 1.1770	11.2436
 1.1760	11.3321
 1.1750	11.4343
 1.1740	11.4904
 1.1730	11.5366
 1.1720	11.6244
 1.1710	11.7738
 1.1700	11.8011
 1.1690	11.9017
 1.1680	11.9460
 1.1670	12.0657
 1.1660	12.1338
 1.1650	12.2889
 1.1640	12.2491
 1.1630	12.3649
 1.1620	12.3905
 1.1610	12.5383
 1.1600	12.6145
 1.1590	12.7772
 1.1580	12.7990
 1.1570	12.9180
 1.1560	12.9887
 1.1550	13.0941
 1.1540	13.1536
 1.1530	13.3617
 1.1520	13.3983
 1.1510	13.5033
 1.1500	13.5661
 1.1490	13.6814
 1.1480	13.7601
 1.1470	13.9414
 1.1460	13.9411
 1.1450	14.0804
 1.1440	14.1590
 1.1430	14.3790
 1.1420	14.3893
 1.1410	14.5545
 1.1400	14.5965
 1.1390	14.7955
 1.1380	14.8293
 1.1370	15.0213
 1.1360	15.1111
 1.1350	15.2150
 1.1340	15.2696
 1.1330	15.4646
 1.1320	15.5510
 1.1310	15.7663
 1.1300	15.7429
 1.1290	16.0307
 1.1280	16.0256
 1.1270	16.2369
 1.1260	16.2866
 1.1250	16.4688
 1.1240	16.5094
 1.1230	16.7284
 1.1220	16.8189
 1.1210	17.0289
 1.1200	17.0742
 1.1190	17.3440
 1.1180	17.3204
 1.1170	17.6552
 1.1160	17.6210
 1.1150	17.8248
 1.1140	17.9433
 1.1130	18.0777
 1.1120	18.2344
 1.1110	18.3646
 1.1100	18.4848
 1.1090	18.7085
 1.1080	18.8248
 1.1070	19.0923
 1.1060	19.1326
 1.1050	19.3803
 1.1040	19.3873
 1.1030	19.6203
 1.1020	19.7127
 1.1010	19.9431
 1.1000	20.0393
 1.0990	20.2447
 1.0980	20.3429
 1.0970	20.6221
 1.0960	20.7102
 1.0950	20.9280
 1.0940	21.0174
 1.0930	21.3088
 1.0920	21.3336
 1.0910	21.5810
 1.0900	21.7139
 1.0890	21.9442
 1.0880	22.0262
 1.0870	22.2654
 1.0860	22.3655
 1.0850	22.6303
 1.0840	22.6893
 1.0830	23.0560
 1.0820	23.0866
 1.0810	23.3927
 1.0800	23.4451
 1.0790	23.7541
 1.0780	23.8279
 1.0770	23.9966
 1.0760	24.2178
 1.0750	24.3745
 1.0740	24.5164
 1.0730	24.8427
 1.0720	24.8849
 1.0710	25.2980
 1.0700	25.1449
 1.0690	25.5672
 1.0680	25.6243
 1.0670	25.9475
 1.0660	26.0729
 1.0650	26.2982
 1.0640	26.3372
 1.0630	26.6585
 1.0620	26.7740
 1.0610	27.0101
 1.0600	27.1376
 1.0590	27.3922
 1.0580	27.5461
 1.0570	27.8206
 1.0560	27.8580
 1.0550	28.1370
 1.0540	28.1965
 1.0530	28.5127
 1.0520	28.6122
 1.0510	28.8794
 1.0500	29.0651
 1.0490	29.2332
 1.0480	29.3985
 1.0470	29.6299
 1.0460	29.7854
 1.0450	30.0127
 1.0440	30.1866
 1.0430	30.5007
 1.0420	30.5026
 1.0410	30.9120
 1.0400	30.9134
 1.0390	31.2101
 1.0380	31.3039
 1.0370	31.6031
 1.0360	31.7373
 1.0350	31.9710
 1.0340	32.0912
 1.0330	32.3396
 1.0320	32.4866
 1.0310	32.6829
 1.0300	32.8203
 1.0290	33.1217
 1.0280	33.1903
 1.0270	33.4293
 1.0260	33.6212
 1.0250	33.8877
 1.0240	33.9931
 1.0230	34.1945
 1.0220	34.3349
 1.0210	34.5610
 1.0200	34.7233
 1.0190	34.9268
 1.0180	35.0401
 1.0170	35.3332
 1.0160	35.4081
 1.0150	35.6136
 1.0140	35.7021
 1.0130	35.9655
 1.0120	36.1127
 1.0110	36.2730
 1.0100	36.3658
 1.0090	36.6679
 1.0080	36.7422
 1.0070	37.0076
 1.0060	37.1327
 1.0050	37.3049
 1.0040	37.4623
 1.0030	37.6245
 1.0020	37.6807
 1.0010	37.8645
 1.0000	38.0650
 0.9990	38.2469
 0.9980	38.3515
 0.9970	38.4942
 0.9960	38.6975
 0.9950	38.8684
 0.9940	38.9819
 0.9930	39.1505
 0.9920	39.2347
 0.9910	39.4295
 0.9900	39.5277
 0.9890	39.7068
 0.9880	39.8621
 0.9870	40.0331
 0.9860	40.0505
 0.9850	40.2541
 0.9840	40.3434
 0.9830	40.4772
 0.9820	40.6296
 0.9810	40.7865
 0.9800	40.8669
 0.9790	41.0571
 0.9780	41.1310
 0.9770	41.2309
 0.9760	41.2898
 0.9750	41.4799
 0.9740	41.5453
 0.9730	41.6816
 0.9720	41.7100
 0.9710	41.8412
 0.9700	41.9992
 0.9690	42.1168
 0.9680	42.1551
 0.9670	42.3228
 0.9660	42.3857
 0.9650	42.4408
 0.9640	42.5691
 0.9630	42.6884
 0.9620	42.7583
 0.9610	42.8817
 0.9600	42.9357
 0.9590	43.0323
 0.9580	43.1686
 0.9570	43.2288
 0.9560	43.2614
 0.9550	43.3696
 0.9540	43.4967
 0.9530	43.5427
 0.9520	43.5973
 0.9510	43.7255
 0.9500	43.7718
 0.9490	43.8567
 0.9480	43.8990
 0.9470	43.9543
 0.9460	44.0345
 0.9450	44.0890
 0.9440	44.2222
 0.9430	44.3392
 0.9420	44.3121
 0.9410	44.3620
 0.9400	44.4725
 0.9390	44.5564
 0.9380	44.5472
 0.9370	44.5664
 0.9360	44.6029
 0.9350	44.6707
 0.9340	44.7860
 0.9330	44.8566
 0.9320	44.8772
 0.9310	44.9375
 0.9300	45.0035
 0.9290	45.0497
 0.9280	45.0775
 0.9270	45.0976
 0.9260	45.1209
 0.9250	45.2063
 0.9240	45.2562
 0.9230	45.2515
 0.9220	45.2628
 0.9210	45.3456
 0.9200	45.3987
 0.9190	45.3855
 0.9180	45.4757
 0.9170	45.4890
 0.9160	45.5040
 0.9150	45.5490
 0.9140	45.6037
 0.9130	45.5801
 0.9120	45.6195
 0.9110	45.6500
 0.9100	45.6722
 0.9090	45.6780
 0.9080	45.6735
 0.9070	45.7041
 0.9060	45.7825
 0.9050	45.7720
 0.9040	45.8339
 0.9030	45.8675
 0.9020	45.9031
 0.9010	45.8985
 0.9000	45.8880
 0.8990	45.8844
 0.8980	45.9251
 0.8970	45.9209
 0.8960	45.9912
 0.8950	45.9652
 0.8940	45.9770
 0.8930	46.0204
 0.8920	46.0045
 0.8910	46.0279
 0.8900	46.0746
 0.8890	46.0502
 0.8880	46.0441
 0.8870	45.9862
 0.8860	46.0764
 0.8850	46.1029
 0.8840	46.1344
 0.8830	46.0988
 0.8820	46.0982
 0.8810	46.0961
 0.8800	46.1437
 0.8790	46.1003
 0.8780	46.1116
 0.8770	46.0401
 0.8760	46.1151
 0.8750	46.1277
 0.8740	46.1713
 0.8730	46.0897
 0.8720	46.1244
 0.8710	46.0919
 0.8700	46.0717
 0.8690	46.0675
 0.8680	46.1177
 0.8670	46.0896
 0.8660	46.1077
 0.8650	46.1014
 0.8640	46.1347
 0.8630	46.0572
 0.8620	46.1052
 0.8610	46.0754
 0.8600	46.0060
 0.8590	46.1500
 0.8580	46.2891
 0.8570	46.0459
 0.8560	46.1022
 0.8550	46.3484
 0.8540	46.1595
 0.8530	46.1564
 0.8520	46.2648
 0.8510	46.1905
 0.8500	46.1112
 0.8490	46.2131
 0.8480	46.2183
 0.8470	46.1768
 0.8460	46.2366
 0.8450	46.2692
 0.8440	46.1735
 0.8430	46.2563
 0.8420	46.3138
 0.8410	46.1781
 0.8400	46.2267
 0.8390	46.2505
 0.8380	46.1529
 0.8370	46.2055
 0.8360	46.2887
 0.8350	46.2184
 0.8340	46.2102
 0.8330	46.2526
 0.8320	46.1975
 0.8310	46.1748
 0.8300	46.2264
 0.8290	46.2103
 0.8280	46.1511
 0.8270	46.1839
 0.8260	46.1998
 0.8250	46.1113
 0.8240	46.1536
 0.8230	46.2114
 0.8220	46.0988
 0.8210	46.1289
 0.8200	46.1626
 0.8190	46.0556
 0.8180	46.0775
 0.8170	46.1325
 0.8160	46.0142
 0.8150	46.0218
 0.8140	46.0474
 0.8130	45.9847
 0.8120	45.9821
 0.8110	46.0058
 0.8100	45.9054
 0.8090	45.9351
 0.8080	45.9659
 0.8070	45.8908
 0.8060	45.8774
 0.8050	45.8856
 0.8040	45.8209
 0.8030	45.7824
 0.8020	45.8102
 0.8010	45.7448
 0.8000	45.6913
 0.7990	45.6765
 0.7980	45.6325
 0.7970	45.5525
 0.7960	45.5856
 0.7950	45.4974
 0.7940	45.4479
 0.7930	45.4387
 0.7920	45.3971
 0.7910	45.2861
 0.7900	45.3056
 0.7890	45.2741
 0.7880	45.1763
 0.7870	45.1196
 0.7860	45.0836
 0.7850	44.9892
 0.7840	44.9810
 0.7830	44.9332
 0.7820	44.7890
 0.7810	44.7603
 0.7800	44.7047
 0.7790	44.5833
 0.7780	44.5893
 0.7770	44.4985
 0.7760	44.3589
 0.7750	44.3188
 0.7740	44.2047
 0.7730	44.0793
 0.7720	44.0180
 0.7710	43.9596
 0.7700	43.8215
 0.7690	43.7693
 0.7680	43.7008
 0.7670	43.5428
 0.7660	43.4448
 0.7650	43.3633
 0.7640	43.2107
 0.7630	43.1177
 0.7620	43.0170
 0.7610	42.8534
 0.7600	42.7469
 0.7590	42.6343
 0.7580	42.4621
 0.7570	42.3472
 0.7560	42.2432
 0.7550	42.0944
 0.7540	41.9360
 0.7530	41.8322
 0.7520	41.6550
 0.7510	41.5127
 0.7500	41.3668
 0.7490	41.2119
 0.7480	41.0434
 0.7470	40.8974
 0.7460	40.7344
 0.7450	40.5581
 0.7440	40.4193
 0.7430	40.2487
 0.7420	40.0835
 0.7410	39.9132
 0.7400	39.7532
 0.7390	39.5637
 0.7380	39.4268
 0.7370	39.2387
 0.7360	39.0498
 0.7350	38.9019
 0.7340	38.7188
 0.7330	38.5334
 0.7320	38.3628
 0.7310	38.1888
 0.7300	38.0201
 0.7290	37.8695
 0.7280	37.7197
 0.7270	37.5573
 0.7260	37.4056
 0.7250	37.2459
 0.7240	37.0589
 0.7230	36.9093
 0.7220	36.7534
 0.7210	36.5921
 0.7200	36.4566
 0.7190	36.3074
 0.7180	36.1306
 0.7170	35.9957
 0.7160	35.8518
 0.7150	35.6995
 0.7140	35.5742
 0.7130	35.4502
 0.7120	35.3245
 0.7110	35.2207
 0.7100	35.1028
 0.7090	34.9795
 0.7080	34.8824
 0.7070	34.7672
 0.7060	34.6637
 0.7050	34.5864
 0.7040	34.4982
 0.7030	34.4032
 0.7020	34.3390
 0.7010	34.2611
 0.7000	34.1851
 0.6990	34.1273
 0.6980	34.0725
 0.6970	34.0204
 0.6960	33.9811
 0.6950	33.9401
 0.6940	33.8834
 0.6930	33.8597
 0.6920	33.8411
 0.6910	33.8085
 0.6900	33.8024
 0.6890	33.7850
 0.6880	33.7672
 0.6870	33.7612
 0.6860	33.7654
 0.6850	33.7664
 0.6840	33.7829
 0.6830	33.7900
 0.6820	33.7956
 0.6810	33.8225
 0.6800	33.8491
 0.6790	33.8650
 0.6780	33.8936
 0.6770	33.9061
 0.6760	33.9225
 0.6750	33.9612
 0.6740	33.9957
 0.6730	34.0164
 0.6720	34.0542
 0.6710	34.0875
 0.6700	34.1071
 0.6690	34.1291
 0.6680	34.1639
 0.6670	34.1855
 0.6660	34.2041
 0.6650	34.2226
 0.6640	34.2269
 0.6630	34.2407
 0.6620	34.2559
 0.6610	34.2548
 0.6600	34.2393
 0.6590	34.2432
 0.6580	34.2258
 0.6570	34.1962
 0.6560	34.1696
 0.6550	34.1267
 0.6540	34.0908
 0.6530	34.0458
 0.6520	33.9785
 0.6510	33.9069
 0.6500	33.8301
 0.6490	33.7429
 0.6480	33.6409
 0.6470	33.5271
 0.6460	33.4066
 0.6450	33.2736
 0.6440	33.1361
 0.6430	32.9901
 0.6420	32.8309
 0.6410	32.6766
 0.6400	32.5190
 0.6390	32.3271
 0.6380	32.1223
 0.6370	31.9131
 0.6360	31.6937
 0.6350	31.4684
 0.6340	31.2386
 0.6330	30.9960
 0.6320	30.7550
 0.6310	30.5139
 0.6300	30.2555
 0.6290	30.0013
 0.6280	29.7542
 0.6270	29.5003
 0.6260	29.2525
 0.6250	29.0138
 0.6240	28.7673
 0.6230	28.5405
 0.6220	28.3295
 0.6210	28.1138
 0.6200	27.9083
 0.6190	27.7162
 0.6180	27.5278
 0.6170	27.3567
 0.6160	27.2016
 0.6150	27.0465
 0.6140	26.8978
 0.6130	26.7632
 0.6120	26.6328
 0.6110	26.4983
 0.6100	26.3770
 0.6090	26.2498
 0.6080	26.1318
 0.6070	26.0199
 0.6060	25.8926
 0.6050	25.7617
 0.6040	25.6322
 0.6030	25.4999
 0.6020	25.3599
 0.6010	25.2121
 0.6000	25.0583
 0.5990	24.8980
 0.5980	24.7319
 0.5970	24.5582
 0.5960	24.3699
 0.5950	24.1773
 0.5940	23.9662
 0.5930	23.7425
 0.5920	23.5116
 0.5910	23.2629
 0.5900	23.0009
 0.5890	22.7348
 0.5880	22.4587
 0.5870	22.1760
 0.5860	21.8884
 0.5850	21.5971
 0.5840	21.2996
 0.5830	20.9997
 0.5820	20.7085
 0.5810	20.4231
 0.5800	20.1441
 0.5790	19.8813
 0.5780	19.6361
 0.5770	19.4142
 0.5760	19.2188
 0.5750	19.0410
 0.5740	18.8879
 0.5730	18.7658
 0.5720	18.6602
 0.5710	18.5751
 0.5700	18.5187
 0.5690	18.4849
 0.5680	18.4667
 0.5670	18.4601
 0.5660	18.4669
 0.5650	18.4819
 0.5640	18.5068
 0.5630	18.5328
 0.5620	18.5606
 0.5610	18.5883
 0.5600	18.6070
 0.5590	18.6272
 0.5580	18.6360
 0.5570	18.6345
 0.5560	18.6210
 0.5550	18.6129
 0.5540	18.5839
 0.5530	18.5457
 0.5520	18.4970
 0.5510	18.4432
 0.5500	18.3678
 0.5490	18.2920
 0.5480	18.2004
 0.5470	18.0884
 0.5460	17.9761
 0.5450	17.8573
 0.5440	17.7124
 0.5430	17.5655
 0.5420	17.4170
 0.5410	17.2871
 0.5400	17.1189
 0.5390	16.9425
 0.5380	16.7603
 0.5370	16.5776
 0.5360	16.3875
 0.5350	16.2025
 0.5340	16.0131
 0.5330	15.8296
 0.5320	15.6475
 0.5310	15.4695
 0.5300	15.2953
 0.5290	15.1322
 0.5280	14.9760
 0.5270	14.8354
 0.5260	14.7047
 0.5250	14.5837
 0.5240	14.4735
 0.5230	14.3777
 0.5220	14.2959
 0.5210	14.2199
 0.5200	14.1545
 0.5190	14.0941
 0.5180	14.0424
 0.5170	13.9789
 0.5160	13.9155
 0.5150	13.8490
 0.5140	13.7752
 0.5130	13.6810
 0.5120	13.5764
 0.5110	13.4514
 0.5100	13.3048
 0.5090	13.1510
 0.5080	12.9910
 0.5070	12.8301
 0.5060	12.6870
 0.5050	12.5733
 0.5040	12.4979
 0.5030	12.4601
 0.5020	12.4678
 0.5010	12.5098
 0.5000	12.5527
 0.4990	12.6141
 0.4980	12.6667
 0.4970	12.7176
 0.4960	12.7819
 0.4950	12.8422
 0.4940	12.8937
 0.4930	12.9597
 0.4920	13.0319
 0.4910	13.0965
 0.4900	13.1837
 0.4890	13.2582
 0.4880	13.3290
 0.4870	13.4213
 0.4860	13.4771
 0.4850	13.5302
 0.4840	13.5859
 0.4830	13.6317
 0.4820	13.6558
 0.4810	13.6795
 0.4800	13.6968
 0.4790	13.7013
 0.4780	13.7018
 0.4770	13.6928
 0.4760	13.6817
 0.4750	13.6681
 0.4740	13.6586
 0.4730	13.6423
 0.4720	13.6256
 0.4710	13.6271
 0.4700	13.6188
 0.4690	13.6137
 0.4680	13.6066
 0.4670	13.6011
 0.4660	13.5866
 0.4650	13.5813
 0.4640	13.5635
 0.4630	13.5427
 0.4620	13.5232
 0.4610	13.5116
 0.4600	13.5006
 0.4590	13.4982
 0.4580	13.5094
 0.4570	13.5241
 0.4560	13.5441
 0.4550	13.5644
 0.4540	13.5905
 0.4530	13.6198
 0.4520	13.6455
 0.4510	13.6582
 0.4500	13.6748
 0.4490	13.6929
 0.4480	13.7060
 0.4470	13.7082
 0.4460	13.7046
 0.4450	13.6958
 0.4440	13.6652
 0.4430	13.6360
 0.4420	13.5907
 0.4410	13.5346
 0.4400	13.4806
 0.4390	13.4029
 0.4380	13.3136
 0.4370	13.2251
 0.4360	13.1349
 0.4350	13.0345
 0.4340	12.9431
 0.4330	12.8636
 0.4320	12.8041
 0.4310	12.7610
 0.4300	12.7406
 0.4290	12.7259
 0.4280	12.7359
 0.4270	12.7488
 0.4260	12.7684
 0.4250	12.7868
 0.4240	12.8297
 0.4230	12.8694
 0.4220	12.9130
 0.4210	12.9728
 0.4200	13.0314
 0.4190	13.0844
 0.4180	13.1449
 0.4170	13.1953
 0.4160	13.2357
 0.4150	13.2738
 0.4140	13.3054
 0.4130	13.3286
 0.4120	13.3466
 0.4110	13.3688
 0.4100	13.3801
 0.4090	13.3973
 0.4080	13.4164
 0.4070	13.4406
 0.4060	13.4634
 0.4050	13.4816
 0.4040	13.4874
 0.4030	13.4743
 0.4020	13.4624
 0.4010	13.4401
 0.4000	13.4114
