Name: Ulexite NaCaB_5O_6(OH)_6.5H_2O
Type: Mineral
Class: Borate
Subclass: None
Particle Size: Fine
Sample No.: B-3A
Owner: JPL
Wavelength Range: VSWIR
Origin: USA, California, Kern County, Boron.
Collection Date: N/A
Description: Particle size was 0-45um.Collected by:  JPL Original ASTER Spectral Library name was jpl.perkin.mineral.borate.none.fine.b03a.spectrum.txt
Measurement: Hemispherical reflectance
First Column: X
Second Column: Y
X Units: Wavelength (micrometers)
Y Units:Reflectance (percent)
First X Value:  2.5000
Last X Value:  0.4000
Number of X Values: 2101
Additional Information: mineral.borate.none.fine.vswir.b-3a.jpl.perkin.ancillary.txt

 2.5000	27.9289
 2.4990	27.7378
 2.4980	27.7203
 2.4970	27.9493
 2.4960	27.3406
 2.4950	27.7654
 2.4940	27.4847
 2.4930	27.5375
 2.4920	27.3853
 2.4910	27.5330
 2.4900	27.3647
 2.4890	27.4993
 2.4880	27.2883
 2.4870	27.3932
 2.4860	27.2717
 2.4850	27.5560
 2.4840	27.1822
 2.4830	27.3960
 2.4820	27.3454
 2.4810	27.3872
 2.4800	27.1958
 2.4790	27.4029
 2.4780	27.3369
 2.4770	27.4107
 2.4760	27.3138
 2.4750	27.4986
 2.4740	27.4525
 2.4730	27.6031
 2.4720	27.4800
 2.4710	27.6024
 2.4700	27.8068
 2.4690	27.8541
 2.4680	27.8215
 2.4670	28.0798
 2.4660	27.9851
 2.4650	28.1831
 2.4640	28.0765
 2.4630	28.3422
 2.4620	28.3609
 2.4610	28.5993
 2.4600	28.5705
 2.4590	28.8313
 2.4580	28.7818
 2.4570	29.1137
 2.4560	29.0826
 2.4550	29.3761
 2.4540	29.4842
 2.4530	29.6972
 2.4520	29.7446
 2.4510	29.9315
 2.4500	30.0408
 2.4490	30.3789
 2.4480	30.3578
 2.4470	30.6241
 2.4460	30.7089
 2.4450	31.0050
 2.4440	31.0833
 2.4430	31.2657
 2.4420	31.2979
 2.4410	31.5181
 2.4400	31.5678
 2.4390	31.8063
 2.4380	31.8375
 2.4370	32.0852
 2.4360	32.0747
 2.4350	32.2801
 2.4340	32.3654
 2.4330	32.5319
 2.4320	32.5583
 2.4310	32.7825
 2.4300	32.8480
 2.4290	32.9942
 2.4280	33.0218
 2.4270	33.2057
 2.4260	33.2215
 2.4250	33.3374
 2.4240	33.4440
 2.4230	33.5861
 2.4220	33.6320
 2.4210	33.7968
 2.4200	33.9284
 2.4190	34.0198
 2.4180	34.1135
 2.4170	34.3040
 2.4160	34.2767
 2.4150	34.4949
 2.4140	34.5455
 2.4130	34.6838
 2.4120	34.7491
 2.4110	34.8853
 2.4100	34.9423
 2.4090	35.0909
 2.4080	35.1450
 2.4070	35.3296
 2.4060	35.3738
 2.4050	35.5579
 2.4040	35.6881
 2.4030	35.8263
 2.4020	35.8801
 2.4010	36.0790
 2.4000	36.2360
 2.3990	36.3531
 2.3980	36.4945
 2.3970	36.6781
 2.3960	36.7150
 2.3950	36.9387
 2.3940	37.1344
 2.3930	37.3245
 2.3920	37.4686
 2.3910	37.7114
 2.3900	37.7962
 2.3890	37.9561
 2.3880	38.1897
 2.3870	38.3546
 2.3860	38.5127
 2.3850	38.7066
 2.3840	38.8027
 2.3830	38.9951
 2.3820	39.1709
 2.3810	39.3301
 2.3800	39.4847
 2.3790	39.6762
 2.3780	39.8421
 2.3770	39.9961
 2.3760	40.1531
 2.3750	40.3209
 2.3740	40.4541
 2.3730	40.6012
 2.3720	40.7452
 2.3710	40.9406
 2.3700	41.0991
 2.3690	41.2681
 2.3680	41.4496
 2.3670	41.5702
 2.3660	41.6521
 2.3650	41.8601
 2.3640	42.0367
 2.3630	42.1693
 2.3620	42.3119
 2.3610	42.4956
 2.3600	42.6543
 2.3590	42.8116
 2.3580	42.9196
 2.3570	43.0437
 2.3560	43.2137
 2.3550	43.3571
 2.3540	43.4989
 2.3530	43.6294
 2.3520	43.7523
 2.3510	43.9014
 2.3500	44.0507
 2.3490	44.1648
 2.3480	44.2694
 2.3470	44.3701
 2.3460	44.5043
 2.3450	44.6239
 2.3440	44.7333
 2.3430	44.8335
 2.3420	44.9687
 2.3410	45.0821
 2.3400	45.1782
 2.3390	45.2726
 2.3380	45.3822
 2.3370	45.4425
 2.3360	45.4912
 2.3350	45.5373
 2.3340	45.6480
 2.3330	45.7148
 2.3320	45.7996
 2.3310	45.8466
 2.3300	45.8622
 2.3290	45.9215
 2.3280	45.9732
 2.3270	46.0273
 2.3260	46.0929
 2.3250	46.1069
 2.3240	46.1860
 2.3230	46.2336
 2.3220	46.2685
 2.3210	46.2748
 2.3200	46.2935
 2.3190	46.3268
 2.3180	46.4106
 2.3170	46.4448
 2.3160	46.5412
 2.3150	46.5127
 2.3140	46.6190
 2.3130	46.6572
 2.3120	46.6979
 2.3110	46.7909
 2.3100	46.8779
 2.3090	46.9721
 2.3080	47.0434
 2.3070	47.0874
 2.3060	47.1631
 2.3050	47.1438
 2.3040	47.1968
 2.3030	47.2180
 2.3020	47.2958
 2.3010	47.2812
 2.3000	47.3509
 2.2990	47.4013
 2.2980	47.4514
 2.2970	47.4125
 2.2960	47.4796
 2.2950	47.5153
 2.2940	47.5993
 2.2930	47.5044
 2.2920	47.5268
 2.2910	47.5221
 2.2900	47.5498
 2.2890	47.5325
 2.2880	47.5433
 2.2870	47.5858
 2.2860	47.5491
 2.2850	47.5396
 2.2840	47.5304
 2.2830	47.4409
 2.2820	47.4851
 2.2810	47.4959
 2.2800	47.4320
 2.2790	47.3753
 2.2780	47.3543
 2.2770	47.2570
 2.2760	47.2492
 2.2750	47.2052
 2.2740	47.1784
 2.2730	47.0556
 2.2720	47.0182
 2.2710	46.9413
 2.2700	46.9117
 2.2690	46.7562
 2.2680	46.6561
 2.2670	46.5480
 2.2660	46.5421
 2.2650	46.3814
 2.2640	46.3198
 2.2630	46.0477
 2.2620	46.0064
 2.2610	45.8365
 2.2600	45.7015
 2.2590	45.5230
 2.2580	45.4473
 2.2570	45.2026
 2.2560	45.0202
 2.2550	44.8326
 2.2540	44.7504
 2.2530	44.5100
 2.2520	44.3252
 2.2510	44.2318
 2.2500	44.1059
 2.2490	44.0003
 2.2480	43.8676
 2.2470	43.6632
 2.2460	43.6109
 2.2450	43.4767
 2.2440	43.4477
 2.2430	43.3376
 2.2420	43.2707
 2.2410	43.1380
 2.2400	43.2144
 2.2390	43.2206
 2.2380	43.1778
 2.2370	43.1360
 2.2360	43.1772
 2.2350	43.1921
 2.2340	43.1857
 2.2330	43.1402
 2.2320	43.2662
 2.2310	43.1693
 2.2300	43.2504
 2.2290	43.1751
 2.2280	43.2329
 2.2270	43.1265
 2.2260	43.1268
 2.2250	43.0983
 2.2240	43.0939
 2.2230	42.9464
 2.2220	42.9813
 2.2210	42.9047
 2.2200	42.9215
 2.2190	42.7274
 2.2180	42.6614
 2.2170	42.6296
 2.2160	42.6007
 2.2150	42.4314
 2.2140	42.5259
 2.2130	42.2986
 2.2120	42.3080
 2.2110	41.9807
 2.2100	42.1187
 2.2090	41.8643
 2.2080	41.8434
 2.2070	41.6771
 2.2060	41.5327
 2.2050	41.4097
 2.2040	41.2855
 2.2030	41.0774
 2.2020	40.9917
 2.2010	40.8795
 2.2000	40.7649
 2.1990	40.5257
 2.1980	40.4018
 2.1970	40.1890
 2.1960	39.9680
 2.1950	39.8236
 2.1940	39.6219
 2.1930	39.3006
 2.1920	39.2267
 2.1910	38.9630
 2.1900	38.7368
 2.1890	38.5107
 2.1880	38.2938
 2.1870	38.0831
 2.1860	37.8629
 2.1850	37.6531
 2.1840	37.5229
 2.1830	37.2522
 2.1820	37.2303
 2.1810	36.9756
 2.1800	36.7729
 2.1790	36.6053
 2.1780	36.6125
 2.1770	36.4541
 2.1760	36.4421
 2.1750	36.3227
 2.1740	36.2687
 2.1730	36.1872
 2.1720	36.1654
 2.1710	36.1555
 2.1700	36.2119
 2.1690	36.2207
 2.1680	36.1625
 2.1670	36.2301
 2.1660	36.2988
 2.1650	36.3530
 2.1640	36.5009
 2.1630	36.4806
 2.1620	36.6474
 2.1610	36.6240
 2.1600	36.8670
 2.1590	36.9468
 2.1580	37.0768
 2.1570	37.1611
 2.1560	37.3255
 2.1550	37.4670
 2.1540	37.7480
 2.1530	37.8016
 2.1520	37.8879
 2.1510	38.0297
 2.1500	38.2105
 2.1490	38.3349
 2.1480	38.4685
 2.1470	38.4930
 2.1460	38.5746
 2.1450	38.5866
 2.1440	38.6703
 2.1430	38.6766
 2.1420	38.7105
 2.1410	38.6674
 2.1400	38.6924
 2.1390	38.5659
 2.1380	38.4935
 2.1370	38.4316
 2.1360	38.4432
 2.1350	38.2401
 2.1340	38.1553
 2.1330	38.0004
 2.1320	37.8730
 2.1310	37.6649
 2.1300	37.5571
 2.1290	37.4160
 2.1280	37.3578
 2.1270	37.2103
 2.1260	37.1142
 2.1250	37.0103
 2.1240	36.9563
 2.1230	36.9469
 2.1220	36.9857
 2.1210	36.8991
 2.1200	36.9344
 2.1190	37.0073
 2.1180	37.1032
 2.1170	37.1763
 2.1160	37.3336
 2.1150	37.4930
 2.1140	37.5895
 2.1130	37.7024
 2.1120	37.8759
 2.1110	37.9897
 2.1100	38.1673
 2.1090	38.2741
 2.1080	38.4721
 2.1070	38.5198
 2.1060	38.6375
 2.1050	38.7846
 2.1040	38.9026
 2.1030	38.9585
 2.1020	39.0721
 2.1010	39.1672
 2.1000	39.2743
 2.0990	39.3837
 2.0980	39.4305
 2.0970	39.4294
 2.0960	39.5724
 2.0950	39.6668
 2.0940	39.7873
 2.0930	39.8567
 2.0920	39.9325
 2.0910	39.9583
 2.0900	40.0719
 2.0890	40.1323
 2.0880	40.1954
 2.0870	40.2723
 2.0860	40.3149
 2.0850	40.3552
 2.0840	40.4067
 2.0830	40.4514
 2.0820	40.4907
 2.0810	40.5533
 2.0800	40.6544
 2.0790	40.6572
 2.0780	40.6766
 2.0770	40.7547
 2.0760	40.7939
 2.0750	40.8514
 2.0740	40.8741
 2.0730	40.9215
 2.0720	40.9699
 2.0710	40.9754
 2.0700	41.0632
 2.0690	41.1584
 2.0680	41.2089
 2.0670	41.2453
 2.0660	41.3031
 2.0650	41.3312
 2.0640	41.3355
 2.0630	41.3853
 2.0620	41.4760
 2.0610	41.5717
 2.0600	41.5547
 2.0590	41.5975
 2.0580	41.6399
 2.0570	41.6543
 2.0560	41.7092
 2.0550	41.7359
 2.0540	41.7088
 2.0530	41.6925
 2.0520	41.7485
 2.0510	41.8136
 2.0500	41.8642
 2.0490	41.8648
 2.0480	41.7824
 2.0470	41.8471
 2.0460	41.8820
 2.0450	41.8930
 2.0440	41.8653
 2.0430	41.8646
 2.0420	41.8760
 2.0410	41.8926
 2.0400	41.8889
 2.0390	41.9085
 2.0380	41.8299
 2.0370	41.8792
 2.0360	41.8743
 2.0350	41.8505
 2.0340	41.8188
 2.0330	41.8362
 2.0320	41.8156
 2.0310	41.8064
 2.0300	41.7607
 2.0290	41.7522
 2.0280	41.7530
 2.0270	41.7291
 2.0260	41.7298
 2.0250	41.7289
 2.0240	41.6112
 2.0230	41.6199
 2.0220	41.5596
 2.0210	41.4719
 2.0200	41.4251
 2.0190	41.4085
 2.0180	41.3392
 2.0170	41.2750
 2.0160	41.1034
 2.0150	41.0589
 2.0140	40.9194
 2.0130	40.8931
 2.0120	40.7709
 2.0110	40.6896
 2.0100	40.4776
 2.0090	40.3720
 2.0080	40.2118
 2.0070	40.1091
 2.0060	39.9692
 2.0050	39.8730
 2.0040	39.6133
 2.0030	39.4596
 2.0020	39.2371
 2.0010	39.1240
 2.0000	38.8562
 1.9990	38.6497
 1.9980	38.3630
 1.9970	38.2005
 1.9960	37.9424
 1.9950	37.6746
 1.9940	37.4250
 1.9930	37.1562
 1.9920	36.8405
 1.9910	36.6284
 1.9900	36.3214
 1.9890	36.0786
 1.9880	35.7613
 1.9870	35.5452
 1.9860	35.2337
 1.9850	35.0444
 1.9840	34.7579
 1.9830	34.5710
 1.9820	34.4123
 1.9810	34.2312
 1.9800	34.0284
 1.9790	33.9505
 1.9780	33.6917
 1.9770	33.6204
 1.9760	33.4087
 1.9750	33.3199
 1.9740	33.1985
 1.9730	33.0310
 1.9720	32.7615
 1.9710	32.6076
 1.9700	32.3582
 1.9690	32.2555
 1.9680	31.9077
 1.9670	31.6617
 1.9660	31.3285
 1.9650	31.1744
 1.9640	30.7246
 1.9630	30.5740
 1.9620	30.1192
 1.9610	29.8547
 1.9600	29.5521
 1.9590	29.3515
 1.9580	29.0706
 1.9570	28.9084
 1.9560	28.6627
 1.9550	28.6041
 1.9540	28.4207
 1.9530	28.5182
 1.9520	28.4499
 1.9510	28.6274
 1.9500	28.7137
 1.9490	29.0433
 1.9480	29.1658
 1.9470	29.6835
 1.9460	29.9148
 1.9450	30.3327
 1.9440	30.7739
 1.9430	31.3169
 1.9420	31.7232
 1.9410	32.3607
 1.9400	32.8540
 1.9390	33.5084
 1.9380	33.9103
 1.9370	34.6483
 1.9360	35.1895
 1.9350	35.8170
 1.9340	36.2730
 1.9330	36.8631
 1.9320	37.4389
 1.9310	38.0957
 1.9300	38.5773
 1.9290	39.2174
 1.9280	39.6698
 1.9270	40.4318
 1.9260	40.6720
 1.9250	41.4103
 1.9240	41.8628
 1.9230	42.4375
 1.9220	42.7878
 1.9210	43.4481
 1.9200	43.8445
 1.9190	44.4526
 1.9180	44.8319
 1.9170	45.3141
 1.9160	45.7753
 1.9150	46.2636
 1.9140	46.7001
 1.9130	47.1664
 1.9120	47.5108
 1.9110	47.9337
 1.9100	48.3893
 1.9090	48.8446
 1.9080	49.2314
 1.9070	49.6748
 1.9060	50.0932
 1.9050	50.5767
 1.9040	50.9358
 1.9030	51.3819
 1.9020	51.7855
 1.9010	52.3346
 1.9000	52.6311
 1.8990	53.0955
 1.8980	53.3711
 1.8970	53.8881
 1.8960	54.1481
 1.8950	54.5538
 1.8940	54.8522
 1.8930	55.2570
 1.8920	55.4765
 1.8910	55.8627
 1.8900	56.1763
 1.8890	56.5510
 1.8880	56.7764
 1.8870	57.1176
 1.8860	57.3319
 1.8850	57.6732
 1.8840	57.9011
 1.8830	58.1934
 1.8820	58.4103
 1.8810	58.6461
 1.8800	58.9479
 1.8790	59.0623
 1.8780	59.2418
 1.8770	59.4984
 1.8760	59.6530
 1.8750	59.9008
 1.8740	60.0792
 1.8730	60.2823
 1.8720	60.5543
 1.8710	60.7734
 1.8700	60.9728
 1.8690	61.1618
 1.8680	61.3254
 1.8670	61.4866
 1.8660	61.6096
 1.8650	61.8422
 1.8640	61.8896
 1.8630	62.0919
 1.8620	62.1344
 1.8610	62.2414
 1.8600	62.3367
 1.8590	62.5300
 1.8580	62.6649
 1.8570	62.7378
 1.8560	62.8193
 1.8550	62.9490
 1.8540	63.0207
 1.8530	63.1285
 1.8520	63.2184
 1.8510	63.3495
 1.8500	63.3389
 1.8490	63.4013
 1.8480	63.5025
 1.8470	63.5927
 1.8460	63.6211
 1.8450	63.7146
 1.8440	63.7671
 1.8430	63.7760
 1.8420	63.8453
 1.8410	63.9028
 1.8400	63.8882
 1.8390	63.9793
 1.8380	64.0301
 1.8370	64.0540
 1.8360	64.0915
 1.8350	64.1751
 1.8340	64.2246
 1.8330	64.2462
 1.8320	64.2432
 1.8310	64.3127
 1.8300	64.3144
 1.8290	64.3559
 1.8280	64.4056
 1.8270	64.3921
 1.8260	64.4057
 1.8250	64.4453
 1.8240	64.4200
 1.8230	64.4106
 1.8220	64.4156
 1.8210	64.4576
 1.8200	64.4502
 1.8190	64.4910
 1.8180	64.5449
 1.8170	64.4808
 1.8160	64.4340
 1.8150	64.4867
 1.8140	64.4835
 1.8130	64.4414
 1.8120	64.4338
 1.8110	64.4744
 1.8100	64.4517
 1.8090	64.4178
 1.8080	64.3871
 1.8070	64.3772
 1.8060	64.3708
 1.8050	64.3539
 1.8040	64.2986
 1.8030	64.3057
 1.8020	64.3220
 1.8010	64.3097
 1.8000	64.2183
 1.7990	64.2137
 1.7980	64.1918
 1.7970	64.1026
 1.7960	64.1054
 1.7950	64.1005
 1.7940	64.0396
 1.7930	64.0018
 1.7920	63.9648
 1.7910	63.8835
 1.7900	63.8222
 1.7890	63.7955
 1.7880	63.7527
 1.7870	63.6856
 1.7860	63.6818
 1.7850	63.6851
 1.7840	63.6676
 1.7830	63.6847
 1.7820	63.6324
 1.7810	63.5896
 1.7800	63.5906
 1.7790	63.5942
 1.7780	63.5845
 1.7770	63.5832
 1.7760	63.5809
 1.7750	63.5795
 1.7740	63.5831
 1.7730	63.5418
 1.7720	63.5455
 1.7710	63.6044
 1.7700	63.6273
 1.7690	63.6245
 1.7680	63.6253
 1.7670	63.6012
 1.7660	63.6005
 1.7650	63.6216
 1.7640	63.6594
 1.7630	63.6708
 1.7620	63.7056
 1.7610	63.7366
 1.7600	63.7485
 1.7590	63.7690
 1.7580	63.7986
 1.7570	63.7707
 1.7560	63.7884
 1.7550	63.8056
 1.7540	63.8501
 1.7530	63.8901
 1.7520	63.8939
 1.7510	63.9105
 1.7500	63.9055
 1.7490	63.9593
 1.7480	63.9783
 1.7470	63.9349
 1.7460	64.0445
 1.7450	64.0332
 1.7440	64.0189
 1.7430	64.0033
 1.7420	64.1213
 1.7410	64.1227
 1.7400	64.1419
 1.7390	64.1942
 1.7380	64.2195
 1.7370	64.2129
 1.7360	64.2340
 1.7350	64.1930
 1.7340	64.2790
 1.7330	64.2605
 1.7320	64.2757
 1.7310	64.2624
 1.7300	64.3657
 1.7290	64.3424
 1.7280	64.3361
 1.7270	64.3407
 1.7260	64.3763
 1.7250	64.4167
 1.7240	64.4805
 1.7230	64.4266
 1.7220	64.5233
 1.7210	64.4837
 1.7200	64.4985
 1.7190	64.4562
 1.7180	64.4631
 1.7170	64.5007
 1.7160	64.4630
 1.7150	64.5092
 1.7140	64.5776
 1.7130	64.5069
 1.7120	64.5919
 1.7110	64.5636
 1.7100	64.5897
 1.7090	64.6165
 1.7080	64.5696
 1.7070	64.5802
 1.7060	64.6694
 1.7050	64.6833
 1.7040	64.6370
 1.7030	64.6704
 1.7020	64.7182
 1.7010	64.6583
 1.7000	64.7184
 1.6990	64.7234
 1.6980	64.7465
 1.6970	64.6753
 1.6960	64.7407
 1.6950	64.7250
 1.6940	64.7636
 1.6930	64.7313
 1.6920	64.7602
 1.6910	64.7785
 1.6900	64.7958
 1.6890	64.8223
 1.6880	64.8018
 1.6870	64.7439
 1.6860	64.8311
 1.6850	64.7945
 1.6840	64.8284
 1.6830	64.8555
 1.6820	64.8638
 1.6810	64.9141
 1.6800	64.8974
 1.6790	64.8811
 1.6780	64.9190
 1.6770	64.9438
 1.6760	64.8980
 1.6750	64.8711
 1.6740	64.9895
 1.6730	64.9701
 1.6720	65.0251
 1.6710	64.9781
 1.6700	65.0029
 1.6690	65.0355
 1.6680	64.9393
 1.6670	65.0051
 1.6660	65.1681
 1.6650	65.0544
 1.6640	65.1855
 1.6630	65.0810
 1.6620	65.2213
 1.6610	65.0919
 1.6600	65.1359
 1.6590	65.2319
 1.6580	65.2139
 1.6570	65.1947
 1.6560	65.2830
 1.6550	65.2526
 1.6540	65.3402
 1.6530	65.3329
 1.6520	65.2844
 1.6510	65.3277
 1.6500	65.3383
 1.6490	65.3453
 1.6480	65.3974
 1.6470	65.3787
 1.6460	65.4715
 1.6450	65.4769
 1.6440	65.5470
 1.6430	65.5194
 1.6420	65.5954
 1.6410	65.4987
 1.6400	65.6225
 1.6390	65.5192
 1.6380	65.6720
 1.6370	65.6362
 1.6360	65.7227
 1.6350	65.6883
 1.6340	65.7322
 1.6330	65.7143
 1.6320	65.8321
 1.6310	65.7656
 1.6300	65.8306
 1.6290	65.8411
 1.6280	65.8608
 1.6270	65.8472
 1.6260	65.9515
 1.6250	65.9480
 1.6240	65.9951
 1.6230	65.9460
 1.6220	66.0363
 1.6210	66.0199
 1.6200	66.1028
 1.6190	66.1376
 1.6180	66.1654
 1.6170	66.1472
 1.6160	66.1561
 1.6150	66.1873
 1.6140	66.3078
 1.6130	66.3355
 1.6120	66.3995
 1.6110	66.3684
 1.6100	66.3934
 1.6090	66.4872
 1.6080	66.4962
 1.6070	66.4497
 1.6060	66.5613
 1.6050	66.5355
 1.6040	66.6599
 1.6030	66.5920
 1.6020	66.6879
 1.6010	66.7116
 1.6000	66.7733
 1.5990	66.7433
 1.5980	66.8116
 1.5970	66.8550
 1.5960	66.9313
 1.5950	66.9193
 1.5940	66.9692
 1.5930	66.9731
 1.5920	66.9473
 1.5910	67.0551
 1.5900	67.0395
 1.5890	67.0266
 1.5880	67.1395
 1.5870	67.1522
 1.5860	67.1125
 1.5850	67.1042
 1.5840	67.1811
 1.5830	67.0840
 1.5820	67.1716
 1.5810	67.2071
 1.5800	67.2200
 1.5790	67.2576
 1.5780	67.2618
 1.5770	67.2416
 1.5760	67.2725
 1.5750	67.2740
 1.5740	67.2389
 1.5730	67.2172
 1.5720	67.2409
 1.5710	67.2177
 1.5700	67.2542
 1.5690	67.2783
 1.5680	67.2604
 1.5670	67.2544
 1.5660	67.1994
 1.5650	67.2559
 1.5640	67.2247
 1.5630	67.1837
 1.5620	67.1654
 1.5610	67.2097
 1.5600	67.1497
 1.5590	67.0407
 1.5580	66.9774
 1.5570	66.9373
 1.5560	66.9360
 1.5550	66.9148
 1.5540	66.8520
 1.5530	66.8251
 1.5520	66.8519
 1.5510	66.7662
 1.5500	66.7327
 1.5490	66.6994
 1.5480	66.6515
 1.5470	66.5262
 1.5460	66.4487
 1.5450	66.4182
 1.5440	66.4040
 1.5430	66.3014
 1.5420	66.2668
 1.5410	66.2241
 1.5400	66.1643
 1.5390	66.1430
 1.5380	66.1178
 1.5370	66.0271
 1.5360	66.0417
 1.5350	66.0055
 1.5340	66.0013
 1.5330	65.9964
 1.5320	65.9313
 1.5310	65.8605
 1.5300	65.9087
 1.5290	65.8535
 1.5280	65.8343
 1.5270	65.7970
 1.5260	65.7498
 1.5250	65.6957
 1.5240	65.6300
 1.5230	65.5825
 1.5220	65.5675
 1.5210	65.5135
 1.5200	65.4342
 1.5190	65.3269
 1.5180	65.2589
 1.5170	65.1904
 1.5160	65.0892
 1.5150	65.0199
 1.5140	64.9561
 1.5130	64.8486
 1.5120	64.7609
 1.5110	64.6632
 1.5100	64.6322
 1.5090	64.5272
 1.5080	64.3896
 1.5070	64.3315
 1.5060	64.2748
 1.5050	64.1937
 1.5040	64.1047
 1.5030	63.9841
 1.5020	63.8868
 1.5010	63.8568
 1.5000	63.8261
 1.4990	63.7286
 1.4980	63.6480
 1.4970	63.5747
 1.4960	63.5287
 1.4950	63.4659
 1.4940	63.4159
 1.4930	63.3623
 1.4920	63.2404
 1.4910	63.1526
 1.4900	63.0641
 1.4890	62.9896
 1.4880	62.9365
 1.4870	62.8447
 1.4860	62.6920
 1.4850	62.5938
 1.4840	62.4862
 1.4830	62.3740
 1.4820	62.2647
 1.4810	62.1551
 1.4800	62.0021
 1.4790	61.8835
 1.4780	61.7417
 1.4770	61.6761
 1.4760	61.5822
 1.4750	61.4681
 1.4740	61.3478
 1.4730	61.2496
 1.4720	61.1562
 1.4710	61.0448
 1.4700	61.0274
 1.4690	61.0217
 1.4680	60.9502
 1.4670	60.9292
 1.4660	60.9116
 1.4650	60.9280
 1.4640	60.9369
 1.4630	60.9671
 1.4620	61.0187
 1.4610	61.0870
 1.4600	61.1272
 1.4590	61.2604
 1.4580	61.3573
 1.4570	61.4917
 1.4560	61.6032
 1.4550	61.7502
 1.4540	61.8736
 1.4530	62.0376
 1.4520	62.1647
 1.4510	62.3259
 1.4500	62.3593
 1.4490	62.5141
 1.4480	62.6225
 1.4470	62.7469
 1.4460	62.8152
 1.4450	62.7889
 1.4440	62.7633
 1.4430	62.7416
 1.4420	62.5946
 1.4410	62.3441
 1.4400	62.0696
 1.4390	61.9540
 1.4380	61.7284
 1.4370	61.5257
 1.4360	61.3355
 1.4350	61.1585
 1.4340	60.8765
 1.4330	60.7004
 1.4320	60.5102
 1.4310	60.4373
 1.4300	60.4813
 1.4290	60.6655
 1.4280	60.8928
 1.4270	61.2874
 1.4260	61.6824
 1.4250	62.1877
 1.4240	62.7749
 1.4230	63.4007
 1.4220	64.0367
 1.4210	64.7024
 1.4200	65.4466
 1.4190	66.1330
 1.4180	66.7798
 1.4170	67.4520
 1.4160	68.0215
 1.4150	68.6240
 1.4140	69.1907
 1.4130	69.7530
 1.4120	70.2707
 1.4110	70.7533
 1.4100	71.2052
 1.4090	71.8518
 1.4080	72.3675
 1.4070	72.8515
 1.4060	73.3427
 1.4050	73.9002
 1.4040	74.2952
 1.4030	74.7364
 1.4020	75.1948
 1.4010	75.5924
 1.4000	75.9154
 1.3990	76.2792
 1.3980	76.4156
 1.3970	76.6526
 1.3960	76.9821
 1.3950	77.2863
 1.3940	77.6253
 1.3930	78.0310
 1.3920	78.4173
 1.3910	78.7131
 1.3900	78.9146
 1.3890	79.1767
 1.3880	79.4288
 1.3870	79.6295
 1.3860	79.7913
 1.3850	80.0214
 1.3840	80.1692
 1.3830	80.3268
 1.3820	80.3593
 1.3810	80.6581
 1.3800	80.6982
 1.3790	80.8555
 1.3780	80.9884
 1.3770	81.0772
 1.3760	81.1618
 1.3750	81.1273
 1.3740	81.3282
 1.3730	81.4589
 1.3720	81.4247
 1.3710	81.4540
 1.3700	81.5895
 1.3690	81.6232
 1.3680	81.6827
 1.3670	81.7395
 1.3660	81.8112
 1.3650	81.9226
 1.3640	81.7545
 1.3630	82.0610
 1.3620	81.9565
 1.3610	82.0591
 1.3600	81.9861
 1.3590	82.0902
 1.3580	82.1559
 1.3570	82.1730
 1.3560	82.1910
 1.3550	82.1979
 1.3540	82.2327
 1.3530	82.1968
 1.3520	82.2837
 1.3510	82.3761
 1.3500	82.4154
 1.3490	82.4082
 1.3480	82.3775
 1.3470	82.4387
 1.3460	82.5745
 1.3450	82.5934
 1.3440	82.6580
 1.3430	82.7189
 1.3420	82.7509
 1.3410	82.8643
 1.3400	82.9583
 1.3390	83.0500
 1.3380	83.0074
 1.3370	83.2282
 1.3360	83.3205
 1.3350	83.2594
 1.3340	83.4055
 1.3330	83.5881
 1.3320	83.6614
 1.3310	83.6806
 1.3300	83.8253
 1.3290	83.9250
 1.3280	83.9889
 1.3270	83.9898
 1.3260	84.1573
 1.3250	84.2041
 1.3240	84.2595
 1.3230	84.3540
 1.3220	84.4605
 1.3210	84.5674
 1.3200	84.7077
 1.3190	84.7167
 1.3180	84.7401
 1.3170	84.9433
 1.3160	85.0430
 1.3150	85.0870
 1.3140	85.1579
 1.3130	85.1871
 1.3120	85.2926
 1.3110	85.3086
 1.3100	85.4054
 1.3090	85.4190
 1.3080	85.5520
 1.3070	85.5423
 1.3060	85.5695
 1.3050	85.6708
 1.3040	85.6303
 1.3030	85.7638
 1.3020	85.8048
 1.3010	85.8729
 1.3000	85.8628
 1.2990	85.9506
 1.2980	85.9887
 1.2970	86.0152
 1.2960	85.9905
 1.2950	86.0577
 1.2940	86.0720
 1.2930	86.1469
 1.2920	86.1027
 1.2910	86.1090
 1.2900	86.1263
 1.2890	86.1987
 1.2880	86.2491
 1.2870	86.1874
 1.2860	86.1639
 1.2850	86.2206
 1.2840	86.2103
 1.2830	86.1802
 1.2820	86.2114
 1.2810	86.2163
 1.2800	86.1662
 1.2790	86.2191
 1.2780	86.2291
 1.2770	86.1840
 1.2760	86.1496
 1.2750	86.2027
 1.2740	86.2036
 1.2730	86.2020
 1.2720	86.1464
 1.2710	86.1452
 1.2700	86.1450
 1.2690	86.1001
 1.2680	86.1120
 1.2670	86.1411
 1.2660	86.1537
 1.2650	86.1336
 1.2640	86.0338
 1.2630	86.0133
 1.2620	86.0092
 1.2610	86.1077
 1.2600	86.0769
 1.2590	85.9919
 1.2580	85.9967
 1.2570	85.9992
 1.2560	85.9995
 1.2550	85.9234
 1.2540	85.9502
 1.2530	85.9493
 1.2520	85.8706
 1.2510	85.8592
 1.2500	85.9121
 1.2490	85.9426
 1.2480	85.9334
 1.2470	85.8963
 1.2460	85.8463
 1.2450	85.9077
 1.2440	85.8991
 1.2430	85.9029
 1.2420	85.9539
 1.2410	85.9488
 1.2400	85.9141
 1.2390	85.9265
 1.2380	85.9278
 1.2370	85.8900
 1.2360	85.9453
 1.2350	85.9850
 1.2340	85.9236
 1.2330	85.8592
 1.2320	85.8595
 1.2310	85.8731
 1.2300	85.8722
 1.2290	85.8913
 1.2280	85.9104
 1.2270	85.9358
 1.2260	85.9407
 1.2250	85.9477
 1.2240	86.0320
 1.2230	86.0213
 1.2220	85.9898
 1.2210	85.9707
 1.2200	85.9754
 1.2190	86.0748
 1.2180	86.1178
 1.2170	86.0876
 1.2160	86.0700
 1.2150	86.1115
 1.2140	86.1376
 1.2130	86.1145
 1.2120	86.1177
 1.2110	86.1275
 1.2100	86.1480
 1.2090	86.1640
 1.2080	86.1928
 1.2070	86.1657
 1.2060	86.1417
 1.2050	86.2337
 1.2040	86.2602
 1.2030	86.2311
 1.2020	86.2645
 1.2010	86.2466
 1.2000	86.2762
 1.1990	86.3245
 1.1980	86.3266
 1.1970	86.3220
 1.1960	86.3641
 1.1950	86.4229
 1.1940	86.4727
 1.1930	86.4682
 1.1920	86.5030
 1.1910	86.4803
 1.1900	86.4883
 1.1890	86.6084
 1.1880	86.6915
 1.1870	86.6828
 1.1860	86.7456
 1.1850	86.8475
 1.1840	86.8925
 1.1830	86.9409
 1.1820	87.0464
 1.1810	87.0948
 1.1800	87.1110
 1.1790	87.2008
 1.1780	87.3005
 1.1770	87.4257
 1.1760	87.4295
 1.1750	87.4824
 1.1740	87.6361
 1.1730	87.7081
 1.1720	87.7265
 1.1710	87.7972
 1.1700	87.8261
 1.1690	87.8878
 1.1680	87.9952
 1.1670	88.1090
 1.1660	88.1933
 1.1650	88.2284
 1.1640	88.3997
 1.1630	88.4585
 1.1620	88.4836
 1.1610	88.4909
 1.1600	88.5844
 1.1590	88.6906
 1.1580	88.7702
 1.1570	88.8318
 1.1560	88.8243
 1.1550	88.8995
 1.1540	88.9843
 1.1530	88.9665
 1.1520	89.0002
 1.1510	89.0326
 1.1500	89.1038
 1.1490	89.1070
 1.1480	89.1560
 1.1470	89.1776
 1.1460	89.3008
 1.1450	89.2823
 1.1440	89.2522
 1.1430	89.3117
 1.1420	89.3084
 1.1410	89.4333
 1.1400	89.4364
 1.1390	89.4612
 1.1380	89.4585
 1.1370	89.4959
 1.1360	89.4780
 1.1350	89.4942
 1.1340	89.4873
 1.1330	89.5361
 1.1320	89.5354
 1.1310	89.6204
 1.1300	89.5890
 1.1290	89.5642
 1.1280	89.5808
 1.1270	89.5801
 1.1260	89.5490
 1.1250	89.5894
 1.1240	89.6260
 1.1230	89.6555
 1.1220	89.6662
 1.1210	89.6272
 1.1200	89.6936
 1.1190	89.7079
 1.1180	89.6787
 1.1170	89.6392
 1.1160	89.6803
 1.1150	89.7323
 1.1140	89.7151
 1.1130	89.6558
 1.1120	89.6943
 1.1110	89.7416
 1.1100	89.7519
 1.1090	89.7787
 1.1080	89.8308
 1.1070	89.7480
 1.1060	89.9127
 1.1050	89.7977
 1.1040	89.7873
 1.1030	89.7486
 1.1020	89.7891
 1.1010	89.7453
 1.1000	89.8141
 1.0990	89.8090
 1.0980	89.8026
 1.0970	89.8976
 1.0960	89.8838
 1.0950	89.8493
 1.0940	89.9069
 1.0930	89.8204
 1.0920	89.7742
 1.0910	89.8701
 1.0900	89.8240
 1.0890	89.9013
 1.0880	89.8928
 1.0870	89.8486
 1.0860	89.9177
 1.0850	89.8360
 1.0840	89.9278
 1.0830	89.9264
 1.0820	89.9172
 1.0810	89.8256
 1.0800	89.8503
 1.0790	89.8645
 1.0780	89.9221
 1.0770	89.9419
 1.0760	89.8793
 1.0750	89.8045
 1.0740	89.8375
 1.0730	89.8396
 1.0720	89.9483
 1.0710	90.0190
 1.0700	89.8767
 1.0690	89.8766
 1.0680	89.8923
 1.0670	89.9163
 1.0660	89.8855
 1.0650	89.8790
 1.0640	89.9360
 1.0630	89.9386
 1.0620	89.8100
 1.0610	89.9207
 1.0600	89.9335
 1.0590	89.9079
 1.0580	89.8599
 1.0570	89.9028
 1.0560	89.8981
 1.0550	89.8148
 1.0540	89.9073
 1.0530	89.7854
 1.0520	89.7105
 1.0510	89.7957
 1.0500	89.8158
 1.0490	89.8516
 1.0480	89.8016
 1.0470	89.6526
 1.0460	89.7829
 1.0450	89.7259
 1.0440	89.6940
 1.0430	89.6682
 1.0420	89.6740
 1.0410	89.6091
 1.0400	89.6513
 1.0390	89.6665
 1.0380	89.6365
 1.0370	89.6097
 1.0360	89.6929
 1.0350	89.4976
 1.0340	89.5431
 1.0330	89.5473
 1.0320	89.5669
 1.0310	89.4938
 1.0300	89.5383
 1.0290	89.4914
 1.0280	89.5553
 1.0270	89.4637
 1.0260	89.4381
 1.0250	89.3858
 1.0240	89.3284
 1.0230	89.2918
 1.0220	89.3353
 1.0210	89.3279
 1.0200	89.3438
 1.0190	89.3165
 1.0180	89.2375
 1.0170	89.2385
 1.0160	89.3016
 1.0150	89.2320
 1.0140	89.2933
 1.0130	89.2153
 1.0120	89.0995
 1.0110	89.1209
 1.0100	89.1360
 1.0090	89.1228
 1.0080	89.1405
 1.0070	89.0749
 1.0060	89.0984
 1.0050	89.0551
 1.0040	89.0156
 1.0030	88.9550
 1.0020	89.0090
 1.0010	89.0427
 1.0000	89.0667
 0.9990	89.0442
 0.9980	88.9817
 0.9970	88.9193
 0.9960	88.9864
 0.9950	88.9104
 0.9940	88.8849
 0.9930	88.9029
 0.9920	88.8943
 0.9910	88.8690
 0.9900	88.8891
 0.9890	88.8622
 0.9880	88.7450
 0.9870	88.7299
 0.9860	88.6863
 0.9850	88.6907
 0.9840	88.6290
 0.9830	88.5542
 0.9820	88.5375
 0.9810	88.4751
 0.9800	88.4319
 0.9790	88.3394
 0.9780	88.3054
 0.9770	88.3548
 0.9760	88.3949
 0.9750	88.4703
 0.9740	88.5033
 0.9730	88.5180
 0.9720	88.5835
 0.9710	88.6617
 0.9700	88.7784
 0.9690	88.8766
 0.9680	88.9971
 0.9670	89.0358
 0.9660	89.0658
 0.9650	89.1465
 0.9640	89.2427
 0.9630	89.3627
 0.9620	89.4754
 0.9610	89.4985
 0.9600	89.5440
 0.9590	89.5879
 0.9580	89.6244
 0.9570	89.6950
 0.9560	89.6902
 0.9550	89.7411
 0.9540	89.8375
 0.9530	89.8427
 0.9520	89.8522
 0.9510	89.8876
 0.9500	89.9568
 0.9490	90.0093
 0.9480	89.9933
 0.9470	90.0142
 0.9460	90.0310
 0.9450	90.0334
 0.9440	90.0542
 0.9430	90.0825
 0.9420	90.1410
 0.9410	90.1504
 0.9400	90.1055
 0.9390	90.1561
 0.9380	90.2160
 0.9370	90.2090
 0.9360	90.1789
 0.9350	90.2097
 0.9340	90.2340
 0.9330	90.1922
 0.9320	90.2515
 0.9310	90.2667
 0.9300	90.2698
 0.9290	90.3201
 0.9280	90.3005
 0.9270	90.3256
 0.9260	90.3470
 0.9250	90.2674
 0.9240	90.2540
 0.9230	90.3039
 0.9220	90.2939
 0.9210	90.2834
 0.9200	90.3388
 0.9190	90.3341
 0.9180	90.3107
 0.9170	90.3781
 0.9160	90.3624
 0.9150	90.2954
 0.9140	90.3483
 0.9130	90.4030
 0.9120	90.3717
 0.9110	90.3908
 0.9100	90.4200
 0.9090	90.4109
 0.9080	90.3889
 0.9070	90.4022
 0.9060	90.4606
 0.9050	90.4421
 0.9040	90.3491
 0.9030	90.3885
 0.9020	90.4742
 0.9010	90.4598
 0.9000	90.3967
 0.8990	90.4127
 0.8980	90.4141
 0.8970	90.4520
 0.8960	90.4576
 0.8950	90.4648
 0.8940	90.5004
 0.8930	90.4694
 0.8920	90.4497
 0.8910	90.4369
 0.8900	90.4280
 0.8890	90.4658
 0.8880	90.4563
 0.8870	90.4820
 0.8860	90.4794
 0.8850	90.4861
 0.8840	90.5432
 0.8830	90.4772
 0.8820	90.4794
 0.8810	90.4851
 0.8800	90.4855
 0.8790	90.5392
 0.8780	90.4686
 0.8770	90.5511
 0.8760	90.5781
 0.8750	90.5201
 0.8740	90.5097
 0.8730	90.5556
 0.8720	90.5943
 0.8710	90.6389
 0.8700	90.6155
 0.8690	90.6893
 0.8680	90.6228
 0.8670	90.6087
 0.8660	90.6251
 0.8650	90.6672
 0.8640	90.5900
 0.8630	90.6434
 0.8620	90.6162
 0.8610	90.6746
 0.8600	91.0111
 0.8590	91.1365
 0.8580	90.9347
 0.8570	91.0686
 0.8560	91.1151
 0.8550	90.9087
 0.8540	91.0148
 0.8530	91.1131
 0.8520	91.0198
 0.8510	90.9857
 0.8500	91.1441
 0.8490	91.0534
 0.8480	90.9848
 0.8470	91.0498
 0.8460	91.0738
 0.8450	91.0325
 0.8440	91.1088
 0.8430	91.1323
 0.8420	90.9861
 0.8410	91.0672
 0.8400	91.1479
 0.8390	91.0688
 0.8380	91.0814
 0.8370	91.1321
 0.8360	91.0739
 0.8350	91.0339
 0.8340	91.0811
 0.8330	91.0869
 0.8320	91.0867
 0.8310	91.1304
 0.8300	91.0960
 0.8290	91.0665
 0.8280	91.0870
 0.8270	91.1298
 0.8260	91.0295
 0.8250	91.0586
 0.8240	91.1006
 0.8230	91.0207
 0.8220	91.0757
 0.8210	91.0761
 0.8200	91.1120
 0.8190	91.1016
 0.8180	91.1020
 0.8170	91.0183
 0.8160	91.1020
 0.8150	91.0734
 0.8140	91.0512
 0.8130	91.0882
 0.8120	91.0937
 0.8110	91.0720
 0.8100	91.0623
 0.8090	91.0913
 0.8080	91.0913
 0.8070	91.0445
 0.8060	91.0768
 0.8050	91.0640
 0.8040	91.0945
 0.8030	91.1411
 0.8020	91.0283
 0.8010	91.0352
 0.8000	91.0925
 0.7990	91.0529
 0.7980	90.9565
 0.7970	90.9316
 0.7960	90.9365
 0.7950	90.9222
 0.7940	90.9369
 0.7930	90.9619
 0.7920	90.9706
 0.7910	90.9039
 0.7900	90.9459
 0.7890	90.9728
 0.7880	90.8880
 0.7870	90.8851
 0.7860	90.9425
 0.7850	91.0041
 0.7840	90.8989
 0.7830	90.8889
 0.7820	90.9500
 0.7810	90.9490
 0.7800	90.8794
 0.7790	90.9268
 0.7780	90.9197
 0.7770	90.8696
 0.7760	90.8402
 0.7750	90.8489
 0.7740	90.8347
 0.7730	90.8240
 0.7720	90.8171
 0.7710	90.8203
 0.7700	90.8104
 0.7690	90.8058
 0.7680	90.7967
 0.7670	90.8243
 0.7660	90.8576
 0.7650	90.8073
 0.7640	90.8158
 0.7630	90.7785
 0.7620	90.7723
 0.7610	90.7898
 0.7600	90.7878
 0.7590	90.7577
 0.7580	90.7711
 0.7570	90.7471
 0.7560	90.7435
 0.7550	90.7946
 0.7540	90.7537
 0.7530	90.7650
 0.7520	90.7463
 0.7510	90.7306
 0.7500	90.7138
 0.7490	90.7556
 0.7480	90.7371
 0.7470	90.7332
 0.7460	90.7709
 0.7450	90.7232
 0.7440	90.7032
 0.7430	90.7268
 0.7420	90.7363
 0.7410	90.7077
 0.7400	90.7618
 0.7390	90.7470
 0.7380	90.7727
 0.7370	90.7766
 0.7360	90.7847
 0.7350	90.7993
 0.7340	90.7788
 0.7330	90.7637
 0.7320	90.7989
 0.7310	90.7736
 0.7300	90.7653
 0.7290	90.7716
 0.7280	90.7669
 0.7270	90.7579
 0.7260	90.7448
 0.7250	90.7313
 0.7240	90.7519
 0.7230	90.7282
 0.7220	90.7664
 0.7210	90.7947
 0.7200	90.7507
 0.7190	90.7608
 0.7180	90.7386
 0.7170	90.7500
 0.7160	90.7631
 0.7150	90.7425
 0.7140	90.7070
 0.7130	90.7327
 0.7120	90.7365
 0.7110	90.7255
 0.7100	90.7251
 0.7090	90.7203
 0.7080	90.6874
 0.7070	90.7322
 0.7060	90.7169
 0.7050	90.7303
 0.7040	90.7162
 0.7030	90.6928
 0.7020	90.7125
 0.7010	90.7163
 0.7000	90.7076
 0.6990	90.7103
 0.6980	90.6980
 0.6970	90.6947
 0.6960	90.6922
 0.6950	90.7074
 0.6940	90.7019
 0.6930	90.6979
 0.6920	90.6925
 0.6910	90.6751
 0.6900	90.6687
 0.6890	90.6791
 0.6880	90.6668
 0.6870	90.6546
 0.6860	90.6705
 0.6850	90.6870
 0.6840	90.6697
 0.6830	90.6761
 0.6820	90.6454
 0.6810	90.6362
 0.6800	90.6499
 0.6790	90.6725
 0.6780	90.6603
 0.6770	90.6458
 0.6760	90.6385
 0.6750	90.6216
 0.6740	90.6222
 0.6730	90.6191
 0.6720	90.6414
 0.6710	90.6265
 0.6700	90.6210
 0.6690	90.6275
 0.6680	90.6078
 0.6670	90.6208
 0.6660	90.6260
 0.6650	90.6137
 0.6640	90.6294
 0.6630	90.6072
 0.6620	90.5859
 0.6610	90.5907
 0.6600	90.5904
 0.6590	90.6064
 0.6580	90.6147
 0.6570	90.6202
 0.6560	90.6440
 0.6550	90.6330
 0.6540	90.6432
 0.6530	90.6523
 0.6520	90.6403
 0.6510	90.6358
 0.6500	90.6349
 0.6490	90.6288
 0.6480	90.6126
 0.6470	90.6090
 0.6460	90.6111
 0.6450	90.6091
 0.6440	90.6106
 0.6430	90.6149
 0.6420	90.6057
 0.6410	90.6070
 0.6400	90.6044
 0.6390	90.5800
 0.6380	90.5697
 0.6370	90.5892
 0.6360	90.6017
 0.6350	90.5852
 0.6340	90.5567
 0.6330	90.5563
 0.6320	90.5643
 0.6310	90.5576
 0.6300	90.5563
 0.6290	90.5566
 0.6280	90.5485
 0.6270	90.5398
 0.6260	90.5342
 0.6250	90.5321
 0.6240	90.5349
 0.6230	90.5172
 0.6220	90.5060
 0.6210	90.5060
 0.6200	90.5045
 0.6190	90.5053
 0.6180	90.4924
 0.6170	90.4842
 0.6160	90.4832
 0.6150	90.4860
 0.6140	90.4804
 0.6130	90.4750
 0.6120	90.4756
 0.6110	90.4628
 0.6100	90.4368
 0.6090	90.4398
 0.6080	90.4646
 0.6070	90.4462
 0.6060	90.4538
 0.6050	90.4715
 0.6040	90.4631
 0.6030	90.4186
 0.6020	90.4061
 0.6010	90.4147
 0.6000	90.4149
 0.5990	90.4273
 0.5980	90.4476
 0.5970	90.4624
 0.5960	90.4739
 0.5950	90.4845
 0.5940	90.4717
 0.5930	90.4553
 0.5920	90.4660
 0.5910	90.4685
 0.5900	90.4530
 0.5890	90.4305
 0.5880	90.4126
 0.5870	90.4021
 0.5860	90.4122
 0.5850	90.3914
 0.5840	90.3796
 0.5830	90.3769
 0.5820	90.3819
 0.5810	90.3714
 0.5800	90.3638
 0.5790	90.3426
 0.5780	90.3306
 0.5770	90.3378
 0.5760	90.3155
 0.5750	90.3130
 0.5740	90.3103
 0.5730	90.2863
 0.5720	90.2772
 0.5710	90.2641
 0.5700	90.2497
 0.5690	90.2470
 0.5680	90.2387
 0.5670	90.2293
 0.5660	90.2262
 0.5650	90.2030
 0.5640	90.1947
 0.5630	90.1797
 0.5620	90.1563
 0.5610	90.1553
 0.5600	90.1423
 0.5590	90.1368
 0.5580	90.1166
 0.5570	90.1072
 0.5560	90.1004
 0.5550	90.0825
 0.5540	90.0804
 0.5530	90.0630
 0.5520	90.0522
 0.5510	90.0220
 0.5500	90.0190
 0.5490	89.9995
 0.5480	89.9749
 0.5470	89.9622
 0.5460	89.9392
 0.5450	89.9252
 0.5440	89.9052
 0.5430	89.9041
 0.5420	89.8911
 0.5410	89.8608
 0.5400	89.8464
 0.5390	89.8158
 0.5380	89.8059
 0.5370	89.8024
 0.5360	89.7759
 0.5350	89.7572
 0.5340	89.7207
 0.5330	89.6965
 0.5320	89.6950
 0.5310	89.6874
 0.5300	89.6415
 0.5290	89.6186
 0.5280	89.6138
 0.5270	89.5994
 0.5260	89.5727
 0.5250	89.5554
 0.5240	89.5285
 0.5230	89.4914
 0.5220	89.4827
 0.5210	89.4618
 0.5200	89.4221
 0.5190	89.3945
 0.5180	89.3885
 0.5170	89.3475
 0.5160	89.3723
 0.5150	89.3120
 0.5140	89.2743
 0.5130	89.2577
 0.5120	89.2405
 0.5110	89.2024
 0.5100	89.1785
 0.5090	89.1425
 0.5080	89.1042
 0.5070	89.1642
 0.5060	89.1378
 0.5050	89.1254
 0.5040	89.0888
 0.5030	89.0520
 0.5020	89.0156
 0.5010	88.9476
 0.5000	88.9159
 0.4990	88.8878
 0.4980	88.8148
 0.4970	88.7860
 0.4960	88.7768
 0.4950	88.7908
 0.4940	88.8137
 0.4930	88.8069
 0.4920	88.7728
 0.4910	88.7912
 0.4900	88.7707
 0.4890	88.7124
 0.4880	88.6914
 0.4870	88.6556
 0.4860	88.5762
 0.4850	88.5733
 0.4840	88.5608
 0.4830	88.5500
 0.4820	88.5070
 0.4810	88.5127
 0.4800	88.4282
 0.4790	88.4184
 0.4780	88.3829
 0.4770	88.3296
 0.4760	88.2723
 0.4750	88.2655
 0.4740	88.2603
 0.4730	88.2324
 0.4720	88.1821
 0.4710	88.1545
 0.4700	88.1445
 0.4690	88.0891
 0.4680	88.0449
 0.4670	87.9863
 0.4660	87.9374
 0.4650	87.8752
 0.4640	87.8470
 0.4630	87.7939
 0.4620	87.7771
 0.4610	87.7922
 0.4600	87.7951
 0.4590	87.7906
 0.4580	87.7682
 0.4570	87.7264
 0.4560	87.6893
 0.4550	87.6570
 0.4540	87.6235
 0.4530	87.5564
 0.4520	87.4821
 0.4510	87.4451
 0.4500	87.3877
 0.4490	87.4348
 0.4480	87.4261
 0.4470	87.3939
 0.4460	87.3565
 0.4450	87.3052
 0.4440	87.1978
 0.4430	87.1423
 0.4420	87.1285
 0.4410	87.1012
 0.4400	87.1236
 0.4390	87.0680
 0.4380	86.9733
 0.4370	86.9777
 0.4360	86.9078
 0.4350	86.9031
 0.4340	86.8214
 0.4330	86.7742
 0.4320	86.7818
 0.4310	86.7091
 0.4300	86.6874
 0.4290	86.6240
 0.4280	86.5774
 0.4270	86.5425
 0.4260	86.4840
 0.4250	86.4796
 0.4240	86.4025
 0.4230	86.3668
 0.4220	86.3192
 0.4210	86.2766
 0.4200	86.2308
 0.4190	86.1595
 0.4180	86.1259
 0.4170	86.0525
 0.4160	86.0491
 0.4150	85.9825
 0.4140	85.9372
 0.4130	85.8916
 0.4120	85.8327
 0.4110	85.7773
 0.4100	85.7388
 0.4090	85.6954
 0.4080	85.6541
 0.4070	85.5900
 0.4060	85.5286
 0.4050	85.4883
 0.4040	85.4517
 0.4030	85.4027
 0.4020	85.3255
 0.4010	85.2580
 0.4000	85.2042
