Name: Anhydrite CaSO_4
Type: Mineral
Class: Sulfate
Subclass: None
Particle Size: Medium
Sample No.: SO-1A
Owner: JPL
Wavelength Range: VSWIR
Origin: Canada, Nova Scotia.
Collection Date: N/A
Description: Particle size was 45-125um. Collected by:  Ward's Original ASTER Spectral Library name was jpl.perkin.mineral.sulfate.none.medium.so01a.spectrum.txt
Measurement: Hemispherical reflectance
First Column: X
Second Column: Y
X Units: Wavelength (micrometers)
Y Units:Reflectance (percent)
First X Value:  2.5000
Last X Value:  0.4000
Number of X Values: 2101
Additional Information: mineral.sulfate.none.medium.vswir.so-1a.jpl.perkin.ancillary.txt

 2.5000	59.5979
 2.4990	59.5826
 2.4980	59.5414
 2.4970	59.7587
 2.4960	59.2825
 2.4950	59.6297
 2.4940	59.6877
 2.4930	59.5096
 2.4920	59.4835
 2.4910	59.4954
 2.4900	59.7449
 2.4890	59.6143
 2.4880	59.5124
 2.4870	59.5935
 2.4860	59.6709
 2.4850	59.5962
 2.4840	59.6817
 2.4830	59.4919
 2.4820	59.5799
 2.4810	59.6955
 2.4800	59.7163
 2.4790	59.7568
 2.4780	59.6949
 2.4770	59.6768
 2.4760	59.8165
 2.4750	59.8556
 2.4740	59.9581
 2.4730	59.7646
 2.4720	59.8521
 2.4710	59.8268
 2.4700	60.1733
 2.4690	60.1645
 2.4680	60.1500
 2.4670	60.1950
 2.4660	60.2598
 2.4650	60.1158
 2.4640	60.3056
 2.4630	60.3934
 2.4620	60.4949
 2.4610	60.4365
 2.4600	60.5559
 2.4590	60.4295
 2.4580	60.6593
 2.4570	60.5793
 2.4560	60.8434
 2.4550	60.8509
 2.4540	60.8448
 2.4530	60.9490
 2.4520	60.9900
 2.4510	60.9225
 2.4500	61.1262
 2.4490	61.1121
 2.4480	61.2217
 2.4470	61.2148
 2.4460	61.2991
 2.4450	61.3554
 2.4440	61.5336
 2.4430	61.4479
 2.4420	61.5704
 2.4410	61.5155
 2.4400	61.7464
 2.4390	61.7623
 2.4380	61.8303
 2.4370	61.8819
 2.4360	61.9350
 2.4350	61.8778
 2.4340	62.0247
 2.4330	62.1279
 2.4320	62.1811
 2.4310	62.1705
 2.4300	62.4304
 2.4290	62.3979
 2.4280	62.4833
 2.4270	62.5856
 2.4260	62.6197
 2.4250	62.6457
 2.4240	62.9150
 2.4230	62.8911
 2.4220	62.9362
 2.4210	62.9758
 2.4200	63.1145
 2.4190	63.0830
 2.4180	63.2382
 2.4170	63.4588
 2.4160	63.5588
 2.4150	63.5137
 2.4140	63.5844
 2.4130	63.7356
 2.4120	63.7747
 2.4110	63.9893
 2.4100	64.2012
 2.4090	64.2553
 2.4080	64.3555
 2.4070	64.4085
 2.4060	64.6334
 2.4050	64.7679
 2.4040	64.8989
 2.4030	64.9759
 2.4020	65.1220
 2.4010	65.2220
 2.4000	65.4534
 2.3990	65.7161
 2.3980	65.8542
 2.3970	65.9463
 2.3960	66.0549
 2.3950	66.2537
 2.3940	66.4410
 2.3930	66.5994
 2.3920	66.7916
 2.3910	67.0050
 2.3900	67.1489
 2.3890	67.2407
 2.3880	67.4279
 2.3870	67.5956
 2.3860	67.7095
 2.3850	67.8934
 2.3840	68.0809
 2.3830	68.2093
 2.3820	68.3601
 2.3810	68.5214
 2.3800	68.5544
 2.3790	68.6856
 2.3780	68.8665
 2.3770	69.0077
 2.3760	69.1543
 2.3750	69.2753
 2.3740	69.3797
 2.3730	69.5533
 2.3720	69.7045
 2.3710	69.7295
 2.3700	69.8053
 2.3690	69.9558
 2.3680	70.1274
 2.3670	70.2092
 2.3660	70.2749
 2.3650	70.4146
 2.3640	70.5217
 2.3630	70.5916
 2.3620	70.6957
 2.3610	70.8631
 2.3600	70.9490
 2.3590	70.9198
 2.3580	71.0052
 2.3570	71.1214
 2.3560	71.1601
 2.3550	71.2840
 2.3540	71.3978
 2.3530	71.4756
 2.3520	71.5692
 2.3510	71.6071
 2.3500	71.6615
 2.3490	71.7866
 2.3480	71.8080
 2.3470	71.9207
 2.3460	72.0733
 2.3450	72.1558
 2.3440	72.2976
 2.3430	72.3911
 2.3420	72.3932
 2.3410	72.4209
 2.3400	72.5029
 2.3390	72.6364
 2.3380	72.7050
 2.3370	72.7529
 2.3360	72.8091
 2.3350	72.9236
 2.3340	73.0334
 2.3330	73.0071
 2.3320	73.0522
 2.3310	73.1567
 2.3300	73.1225
 2.3290	73.2269
 2.3280	73.4021
 2.3270	73.4246
 2.3260	73.4513
 2.3250	73.4594
 2.3240	73.4991
 2.3230	73.6222
 2.3220	73.5927
 2.3210	73.6413
 2.3200	73.6527
 2.3190	73.6570
 2.3180	73.7177
 2.3170	73.7768
 2.3160	73.8096
 2.3150	73.8305
 2.3140	73.7829
 2.3130	73.9477
 2.3120	73.8864
 2.3110	73.8633
 2.3100	73.9390
 2.3090	74.0256
 2.3080	74.0865
 2.3070	74.0847
 2.3060	74.0405
 2.3050	74.0941
 2.3040	74.0780
 2.3030	74.1079
 2.3020	74.0892
 2.3010	74.1749
 2.3000	74.1346
 2.2990	74.1298
 2.2980	74.0852
 2.2970	74.1339
 2.2960	74.1396
 2.2950	74.1417
 2.2940	74.1496
 2.2930	74.1188
 2.2920	74.1104
 2.2910	74.1352
 2.2900	74.1633
 2.2890	74.1232
 2.2880	74.0334
 2.2870	74.0362
 2.2860	74.0560
 2.2850	74.0598
 2.2840	74.0156
 2.2830	74.0077
 2.2820	74.0553
 2.2810	74.0423
 2.2800	74.0287
 2.2790	73.9891
 2.2780	73.8564
 2.2770	73.9069
 2.2760	73.8478
 2.2750	73.8274
 2.2740	73.7871
 2.2730	73.8655
 2.2720	73.7974
 2.2710	73.7458
 2.2700	73.7052
 2.2690	73.6225
 2.2680	73.6536
 2.2670	73.7344
 2.2660	73.6231
 2.2650	73.6828
 2.2640	73.7506
 2.2630	73.7682
 2.2620	73.7103
 2.2610	73.7317
 2.2600	73.7645
 2.2590	73.7432
 2.2580	73.7880
 2.2570	73.8385
 2.2560	73.8882
 2.2550	73.8842
 2.2540	73.8360
 2.2530	73.8627
 2.2520	73.9060
 2.2510	73.9628
 2.2500	73.9927
 2.2490	73.8460
 2.2480	73.8389
 2.2470	73.9448
 2.2460	73.8996
 2.2450	73.8780
 2.2440	73.9255
 2.2430	73.9671
 2.2420	73.9449
 2.2410	73.9861
 2.2400	73.9407
 2.2390	73.9353
 2.2380	73.9255
 2.2370	73.8612
 2.2360	73.7624
 2.2350	73.8544
 2.2340	73.7377
 2.2330	73.7371
 2.2320	73.6385
 2.2310	73.6509
 2.2300	73.5263
 2.2290	73.5860
 2.2280	73.5006
 2.2270	73.3868
 2.2260	73.2710
 2.2250	73.2534
 2.2240	73.2745
 2.2230	73.2540
 2.2220	73.1957
 2.2210	73.1940
 2.2200	73.0718
 2.2190	73.1426
 2.2180	73.0320
 2.2170	73.0475
 2.2160	72.9822
 2.2150	73.0653
 2.2140	73.1014
 2.2130	73.1109
 2.2120	73.1292
 2.2110	73.1669
 2.2100	73.3484
 2.2090	73.2682
 2.2080	73.3010
 2.2070	73.3692
 2.2060	73.4637
 2.2050	73.4745
 2.2040	73.5026
 2.2030	73.6453
 2.2020	73.6345
 2.2010	73.7226
 2.2000	73.7998
 2.1990	73.7805
 2.1980	73.8833
 2.1970	73.9095
 2.1960	73.8607
 2.1950	73.9412
 2.1940	73.8764
 2.1930	73.9614
 2.1920	73.9413
 2.1910	73.9848
 2.1900	73.9222
 2.1890	74.0714
 2.1880	74.0294
 2.1870	74.0574
 2.1860	73.9687
 2.1850	74.0712
 2.1840	74.0436
 2.1830	74.0563
 2.1820	74.1681
 2.1810	74.1873
 2.1800	74.2122
 2.1790	74.1698
 2.1780	74.1837
 2.1770	74.2069
 2.1760	74.3326
 2.1750	74.4068
 2.1740	74.4271
 2.1730	74.4093
 2.1720	74.4063
 2.1710	74.5297
 2.1700	74.5012
 2.1690	74.6082
 2.1680	74.7461
 2.1670	74.7033
 2.1660	74.7431
 2.1650	74.7806
 2.1640	74.8269
 2.1630	74.9442
 2.1620	74.9172
 2.1610	74.9920
 2.1600	75.0601
 2.1590	75.1132
 2.1580	75.0764
 2.1570	75.1321
 2.1560	75.0927
 2.1550	75.1191
 2.1540	75.1514
 2.1530	75.2383
 2.1520	75.2995
 2.1510	75.2976
 2.1500	75.2710
 2.1490	75.3705
 2.1480	75.3862
 2.1470	75.4539
 2.1460	75.3755
 2.1450	75.4364
 2.1440	75.5040
 2.1430	75.5329
 2.1420	75.5294
 2.1410	75.5005
 2.1400	75.5088
 2.1390	75.4887
 2.1380	75.5707
 2.1370	75.5868
 2.1360	75.5682
 2.1350	75.5877
 2.1340	75.5933
 2.1330	75.5557
 2.1320	75.4962
 2.1310	75.5544
 2.1300	75.6425
 2.1290	75.5805
 2.1280	75.5745
 2.1270	75.5468
 2.1260	75.5043
 2.1250	75.5485
 2.1240	75.4982
 2.1230	75.4599
 2.1220	75.3894
 2.1210	75.4444
 2.1200	75.5073
 2.1190	75.4364
 2.1180	75.3195
 2.1170	75.3995
 2.1160	75.3657
 2.1150	75.3503
 2.1140	75.3542
 2.1130	75.2715
 2.1120	75.2300
 2.1110	75.1940
 2.1100	75.1927
 2.1090	75.2033
 2.1080	75.1765
 2.1070	75.1612
 2.1060	75.1043
 2.1050	75.0654
 2.1040	75.0187
 2.1030	74.9915
 2.1020	75.0417
 2.1010	75.0464
 2.1000	74.9621
 2.0990	74.9633
 2.0980	75.0026
 2.0970	75.0242
 2.0960	75.0199
 2.0950	74.9855
 2.0940	75.0359
 2.0930	75.0438
 2.0920	75.0491
 2.0910	75.0811
 2.0900	75.1050
 2.0890	75.1676
 2.0880	75.1705
 2.0870	75.1468
 2.0860	75.1564
 2.0850	75.2017
 2.0840	75.1807
 2.0830	75.1459
 2.0820	75.2133
 2.0810	75.3046
 2.0800	75.3087
 2.0790	75.2193
 2.0780	75.1658
 2.0770	75.1999
 2.0760	75.2169
 2.0750	75.1624
 2.0740	75.1594
 2.0730	75.1964
 2.0720	75.1474
 2.0710	75.1385
 2.0700	75.1862
 2.0690	75.1408
 2.0680	75.1866
 2.0670	75.2164
 2.0660	75.1130
 2.0650	75.1376
 2.0640	75.1977
 2.0630	75.1858
 2.0620	75.1756
 2.0610	75.1242
 2.0600	75.0779
 2.0590	75.1163
 2.0580	75.1050
 2.0570	75.0949
 2.0560	75.0692
 2.0550	75.1154
 2.0540	75.0461
 2.0530	74.9949
 2.0520	75.0523
 2.0510	74.9909
 2.0500	74.9377
 2.0490	74.9412
 2.0480	74.9101
 2.0470	74.8556
 2.0460	74.8092
 2.0450	74.8380
 2.0440	74.8361
 2.0430	74.7358
 2.0420	74.7291
 2.0410	74.6935
 2.0400	74.6240
 2.0390	74.6372
 2.0380	74.5628
 2.0370	74.4561
 2.0360	74.4470
 2.0350	74.3572
 2.0340	74.2810
 2.0330	74.1943
 2.0320	74.0898
 2.0310	74.0560
 2.0300	74.0782
 2.0290	74.0019
 2.0280	73.9439
 2.0270	73.7859
 2.0260	73.6822
 2.0250	73.6252
 2.0240	73.4786
 2.0230	73.3770
 2.0220	73.3190
 2.0210	73.2271
 2.0200	73.1530
 2.0190	73.0604
 2.0180	73.0217
 2.0170	72.8401
 2.0160	72.7336
 2.0150	72.5819
 2.0140	72.4603
 2.0130	72.3274
 2.0120	72.2082
 2.0110	72.0721
 2.0100	71.8496
 2.0090	71.6783
 2.0080	71.5083
 2.0070	71.2828
 2.0060	71.0701
 2.0050	70.8922
 2.0040	70.7326
 2.0030	70.4286
 2.0020	70.2124
 2.0010	69.8380
 2.0000	69.6399
 1.9990	69.3290
 1.9980	69.0056
 1.9970	68.6408
 1.9960	68.3513
 1.9950	68.0478
 1.9940	67.7737
 1.9930	67.4316
 1.9920	67.1210
 1.9910	66.7982
 1.9900	66.5978
 1.9890	66.3668
 1.9880	66.0701
 1.9870	65.8359
 1.9860	65.7381
 1.9850	65.5571
 1.9840	65.3314
 1.9830	65.1979
 1.9820	65.0057
 1.9810	64.7559
 1.9800	64.7002
 1.9790	64.4792
 1.9780	64.3526
 1.9770	64.2209
 1.9760	64.1308
 1.9750	64.0025
 1.9740	63.8586
 1.9730	63.8338
 1.9720	63.7162
 1.9710	63.5722
 1.9700	63.5157
 1.9690	63.4280
 1.9680	63.4022
 1.9670	63.3174
 1.9660	63.2028
 1.9650	63.0814
 1.9640	63.1019
 1.9630	62.9323
 1.9620	62.7330
 1.9610	62.6245
 1.9600	62.3664
 1.9590	62.0424
 1.9580	61.9298
 1.9570	61.5805
 1.9560	61.4099
 1.9550	61.0722
 1.9540	60.8174
 1.9530	60.5862
 1.9520	60.2928
 1.9510	60.1444
 1.9500	59.9541
 1.9490	59.7797
 1.9480	59.6551
 1.9470	59.5868
 1.9460	59.4919
 1.9450	59.3947
 1.9440	59.5266
 1.9430	59.4261
 1.9420	59.4400
 1.9410	59.5253
 1.9400	59.6666
 1.9390	59.6464
 1.9380	59.7874
 1.9370	59.8918
 1.9360	60.1394
 1.9350	60.2797
 1.9340	60.4572
 1.9330	60.7869
 1.9320	60.9577
 1.9310	61.3028
 1.9300	61.5695
 1.9290	61.8821
 1.9280	62.2225
 1.9270	62.5009
 1.9260	62.8851
 1.9250	63.1498
 1.9240	63.4769
 1.9230	63.8653
 1.9220	64.2066
 1.9210	64.5303
 1.9200	64.9856
 1.9190	65.1814
 1.9180	65.4851
 1.9170	65.9230
 1.9160	66.2097
 1.9150	66.4612
 1.9140	66.8903
 1.9130	67.1956
 1.9120	67.4842
 1.9110	67.8104
 1.9100	68.0977
 1.9090	68.4756
 1.9080	68.7668
 1.9070	69.1540
 1.9060	69.4966
 1.9050	69.8939
 1.9040	70.2208
 1.9030	70.6133
 1.9020	70.9693
 1.9010	71.3841
 1.9000	71.7239
 1.8990	71.9617
 1.8980	72.3616
 1.8970	72.6033
 1.8960	73.0278
 1.8950	73.2680
 1.8940	73.6033
 1.8930	73.9345
 1.8920	74.2811
 1.8910	74.5473
 1.8900	74.8624
 1.8890	75.1583
 1.8880	75.3481
 1.8870	75.6134
 1.8860	76.0732
 1.8850	76.2475
 1.8840	76.4334
 1.8830	76.6094
 1.8820	76.9716
 1.8810	77.0969
 1.8800	77.3585
 1.8790	77.4872
 1.8780	77.6562
 1.8770	77.8300
 1.8760	78.0055
 1.8750	78.1792
 1.8740	78.2918
 1.8730	78.4727
 1.8720	78.6724
 1.8710	78.7897
 1.8700	78.9666
 1.8690	79.1060
 1.8680	79.2265
 1.8670	79.3474
 1.8660	79.4876
 1.8650	79.6166
 1.8640	79.8172
 1.8630	79.8522
 1.8620	79.8830
 1.8610	79.9163
 1.8600	80.0203
 1.8590	80.1012
 1.8580	80.1482
 1.8570	80.1205
 1.8560	80.2217
 1.8550	80.2689
 1.8540	80.3413
 1.8530	80.3512
 1.8520	80.3971
 1.8510	80.5440
 1.8500	80.4333
 1.8490	80.4882
 1.8480	80.5587
 1.8470	80.5710
 1.8460	80.6412
 1.8450	80.6741
 1.8440	80.5778
 1.8430	80.6270
 1.8420	80.7348
 1.8410	80.7411
 1.8400	80.7655
 1.8390	80.7474
 1.8380	80.7198
 1.8370	80.7272
 1.8360	80.7969
 1.8350	80.7207
 1.8340	80.7002
 1.8330	80.6900
 1.8320	80.7663
 1.8310	80.8501
 1.8300	80.8209
 1.8290	80.7877
 1.8280	80.8167
 1.8270	80.7822
 1.8260	80.7827
 1.8250	80.7484
 1.8240	80.7986
 1.8230	80.7344
 1.8220	80.7305
 1.8210	80.7725
 1.8200	80.7363
 1.8190	80.7624
 1.8180	80.7930
 1.8170	80.7688
 1.8160	80.7684
 1.8150	80.8074
 1.8140	80.7512
 1.8130	80.7051
 1.8120	80.7006
 1.8110	80.7015
 1.8100	80.7437
 1.8090	80.7854
 1.8080	80.7489
 1.8070	80.7036
 1.8060	80.7260
 1.8050	80.7695
 1.8040	80.6749
 1.8030	80.6043
 1.8020	80.6529
 1.8010	80.6820
 1.8000	80.6417
 1.7990	80.5784
 1.7980	80.5575
 1.7970	80.6046
 1.7960	80.5889
 1.7950	80.5460
 1.7940	80.5157
 1.7930	80.5200
 1.7920	80.5724
 1.7910	80.4979
 1.7900	80.4276
 1.7890	80.3811
 1.7880	80.3391
 1.7870	80.3449
 1.7860	80.3109
 1.7850	80.2558
 1.7840	80.2196
 1.7830	80.2089
 1.7820	80.1618
 1.7810	80.1617
 1.7800	80.2120
 1.7790	80.1722
 1.7780	80.1216
 1.7770	80.1050
 1.7760	80.0467
 1.7750	80.0477
 1.7740	80.0812
 1.7730	80.0722
 1.7720	80.0736
 1.7710	80.1042
 1.7700	80.0717
 1.7690	80.0547
 1.7680	80.0368
 1.7670	80.0496
 1.7660	80.0591
 1.7650	80.0829
 1.7640	80.0794
 1.7630	80.0419
 1.7620	79.9924
 1.7610	79.9783
 1.7600	79.9818
 1.7590	79.9892
 1.7580	79.9556
 1.7570	79.9717
 1.7560	79.8803
 1.7550	79.8401
 1.7540	79.8217
 1.7530	79.8803
 1.7520	79.8557
 1.7510	79.7865
 1.7500	79.8565
 1.7490	79.9413
 1.7480	79.9316
 1.7470	79.8950
 1.7460	79.8698
 1.7450	79.8880
 1.7440	79.9289
 1.7430	80.0109
 1.7420	80.0750
 1.7410	80.1324
 1.7400	80.1881
 1.7390	80.2179
 1.7380	80.2299
 1.7370	80.2665
 1.7360	80.3508
 1.7350	80.4155
 1.7340	80.3849
 1.7330	80.4294
 1.7320	80.5604
 1.7310	80.6055
 1.7300	80.6506
 1.7290	80.7159
 1.7280	80.7847
 1.7270	80.8377
 1.7260	80.8322
 1.7250	80.9054
 1.7240	80.9159
 1.7230	81.0485
 1.7220	81.0848
 1.7210	81.1107
 1.7200	81.1422
 1.7190	81.1994
 1.7180	81.3236
 1.7170	81.3437
 1.7160	81.2228
 1.7150	81.2297
 1.7140	81.2493
 1.7130	81.3446
 1.7120	81.4084
 1.7110	81.4160
 1.7100	81.4109
 1.7090	81.4918
 1.7080	81.5086
 1.7070	81.5545
 1.7060	81.5437
 1.7050	81.5943
 1.7040	81.5328
 1.7030	81.5838
 1.7020	81.5952
 1.7010	81.5799
 1.7000	81.5618
 1.6990	81.7046
 1.6980	81.6924
 1.6970	81.6609
 1.6960	81.6759
 1.6950	81.7654
 1.6940	81.7415
 1.6930	81.6936
 1.6920	81.7216
 1.6910	81.7110
 1.6900	81.8345
 1.6890	81.8020
 1.6880	81.6625
 1.6870	81.7069
 1.6860	81.7558
 1.6850	81.7596
 1.6840	81.7376
 1.6830	81.7433
 1.6820	81.8506
 1.6810	81.7975
 1.6800	81.8014
 1.6790	81.8274
 1.6780	81.8329
 1.6770	81.7938
 1.6760	81.7748
 1.6750	81.7923
 1.6740	81.7547
 1.6730	81.7395
 1.6720	81.7343
 1.6710	81.8176
 1.6700	81.8067
 1.6690	81.8562
 1.6680	81.7588
 1.6670	81.7822
 1.6660	81.7449
 1.6650	81.8798
 1.6640	81.8167
 1.6630	81.7643
 1.6620	81.8309
 1.6610	81.7665
 1.6600	81.6814
 1.6590	81.7408
 1.6580	81.7101
 1.6570	81.7352
 1.6560	81.7068
 1.6550	81.7112
 1.6540	81.7234
 1.6530	81.7663
 1.6520	81.6864
 1.6510	81.7405
 1.6500	81.7230
 1.6490	81.6672
 1.6480	81.6302
 1.6470	81.5858
 1.6460	81.5989
 1.6450	81.6112
 1.6440	81.7596
 1.6430	81.6830
 1.6420	81.6075
 1.6410	81.6486
 1.6400	81.6288
 1.6390	81.6507
 1.6380	81.6607
 1.6370	81.6437
 1.6360	81.6551
 1.6350	81.6404
 1.6340	81.5559
 1.6330	81.5533
 1.6320	81.4753
 1.6310	81.5855
 1.6300	81.4059
 1.6290	81.5068
 1.6280	81.5405
 1.6270	81.5119
 1.6260	81.4166
 1.6250	81.4732
 1.6240	81.4655
 1.6230	81.5130
 1.6220	81.4397
 1.6210	81.4823
 1.6200	81.3631
 1.6190	81.3893
 1.6180	81.2912
 1.6170	81.3436
 1.6160	81.4059
 1.6150	81.3781
 1.6140	81.3228
 1.6130	81.3067
 1.6120	81.2977
 1.6110	81.2582
 1.6100	81.2667
 1.6090	81.2019
 1.6080	81.2035
 1.6070	81.2487
 1.6060	81.2340
 1.6050	81.2398
 1.6040	81.2225
 1.6030	81.1446
 1.6020	81.1232
 1.6010	81.2258
 1.6000	81.1004
 1.5990	81.0795
 1.5980	81.1082
 1.5970	81.0860
 1.5960	81.0238
 1.5950	80.8762
 1.5940	81.0006
 1.5930	81.0301
 1.5920	81.0125
 1.5910	80.9721
 1.5900	80.9355
 1.5890	80.8210
 1.5880	80.8547
 1.5870	80.8438
 1.5860	80.8358
 1.5850	80.7821
 1.5840	80.8709
 1.5830	80.7046
 1.5820	80.6725
 1.5810	80.7322
 1.5800	80.6707
 1.5790	80.6705
 1.5780	80.6319
 1.5770	80.5753
 1.5760	80.5339
 1.5750	80.5395
 1.5740	80.5576
 1.5730	80.6035
 1.5720	80.5452
 1.5710	80.4424
 1.5700	80.3302
 1.5690	80.3932
 1.5680	80.3698
 1.5670	80.3445
 1.5660	80.2606
 1.5650	80.2428
 1.5640	80.1361
 1.5630	80.1705
 1.5620	80.1351
 1.5610	80.0833
 1.5600	79.9524
 1.5590	79.9546
 1.5580	79.9846
 1.5570	79.8688
 1.5560	79.7928
 1.5550	79.7830
 1.5540	79.8368
 1.5530	79.7724
 1.5520	79.6716
 1.5510	79.5564
 1.5500	79.5120
 1.5490	79.4954
 1.5480	79.4125
 1.5470	79.3472
 1.5460	79.2653
 1.5450	79.2380
 1.5440	79.2076
 1.5430	79.2471
 1.5420	79.1383
 1.5410	79.0455
 1.5400	79.0067
 1.5390	78.9919
 1.5380	78.9597
 1.5370	78.9333
 1.5360	78.9281
 1.5350	78.9807
 1.5340	78.9447
 1.5330	78.9238
 1.5320	78.9643
 1.5310	78.9727
 1.5300	78.9489
 1.5290	78.9287
 1.5280	78.9196
 1.5270	78.9063
 1.5260	78.8988
 1.5250	78.8840
 1.5240	78.8726
 1.5230	78.9145
 1.5220	78.9061
 1.5210	78.8411
 1.5200	78.8003
 1.5190	78.8412
 1.5180	78.7838
 1.5170	78.8034
 1.5160	78.8053
 1.5150	78.7426
 1.5140	78.6788
 1.5130	78.6288
 1.5120	78.5647
 1.5110	78.5545
 1.5100	78.5404
 1.5090	78.4502
 1.5080	78.4002
 1.5070	78.4040
 1.5060	78.3475
 1.5050	78.2245
 1.5040	78.1309
 1.5030	78.0734
 1.5020	77.9266
 1.5010	77.7901
 1.5000	77.7159
 1.4990	77.5948
 1.4980	77.5133
 1.4970	77.4591
 1.4960	77.3425
 1.4950	77.2895
 1.4940	77.2331
 1.4930	77.1789
 1.4920	77.1250
 1.4910	77.0955
 1.4900	77.0337
 1.4890	77.0777
 1.4880	77.1646
 1.4870	77.1005
 1.4860	77.1063
 1.4850	77.1453
 1.4840	77.1420
 1.4830	77.1008
 1.4820	77.1033
 1.4810	77.1414
 1.4800	77.1110
 1.4790	77.0755
 1.4780	77.0172
 1.4770	76.9455
 1.4760	76.9686
 1.4750	76.9375
 1.4740	76.8879
 1.4730	76.8857
 1.4720	76.8256
 1.4710	76.7606
 1.4700	76.7655
 1.4690	76.6546
 1.4680	76.6701
 1.4670	76.6680
 1.4660	76.6289
 1.4650	76.5255
 1.4640	76.5058
 1.4630	76.4518
 1.4620	76.3882
 1.4610	76.3665
 1.4600	76.3474
 1.4590	76.2870
 1.4580	76.2146
 1.4570	76.1208
 1.4560	75.9942
 1.4550	75.8587
 1.4540	75.7558
 1.4530	75.5957
 1.4520	75.5346
 1.4510	75.3372
 1.4500	75.2117
 1.4490	75.1215
 1.4480	75.0727
 1.4470	74.9733
 1.4460	75.0226
 1.4450	75.1402
 1.4440	75.2578
 1.4430	75.3391
 1.4420	75.5151
 1.4410	75.7469
 1.4400	75.9093
 1.4390	75.9969
 1.4380	76.1971
 1.4370	76.3290
 1.4360	76.3913
 1.4350	76.5918
 1.4340	76.7705
 1.4330	76.8004
 1.4320	76.8817
 1.4310	76.9727
 1.4300	77.0754
 1.4290	77.1194
 1.4280	77.1167
 1.4270	77.2118
 1.4260	77.2450
 1.4250	77.3709
 1.4240	77.4879
 1.4230	77.5912
 1.4220	77.6981
 1.4210	77.7142
 1.4200	77.8488
 1.4190	77.9770
 1.4180	78.0426
 1.4170	78.1660
 1.4160	78.2458
 1.4150	78.3786
 1.4140	78.4418
 1.4130	78.5835
 1.4120	78.6519
 1.4110	78.8114
 1.4100	78.9162
 1.4090	78.9897
 1.4080	79.0983
 1.4070	79.1457
 1.4060	79.3291
 1.4050	79.2901
 1.4040	79.4875
 1.4030	79.5441
 1.4020	79.6141
 1.4010	79.7077
 1.4000	79.7467
 1.3990	79.9063
 1.3980	79.9046
 1.3970	80.0789
 1.3960	80.2064
 1.3950	80.2376
 1.3940	80.2648
 1.3930	80.2818
 1.3920	80.2942
 1.3910	80.4296
 1.3900	80.5357
 1.3890	80.5327
 1.3880	80.6167
 1.3870	80.6068
 1.3860	80.6267
 1.3850	80.5949
 1.3840	80.6079
 1.3830	80.5397
 1.3820	80.4983
 1.3810	80.6246
 1.3800	80.6099
 1.3790	80.7554
 1.3780	80.6573
 1.3770	80.7432
 1.3760	80.7104
 1.3750	80.7454
 1.3740	80.7814
 1.3730	80.8098
 1.3720	80.7997
 1.3710	80.8546
 1.3700	80.7706
 1.3690	80.8243
 1.3680	80.8035
 1.3670	80.8055
 1.3660	80.9208
 1.3650	80.9079
 1.3640	80.9015
 1.3630	80.9056
 1.3620	80.8530
 1.3610	80.6945
 1.3600	80.8908
 1.3590	80.9292
 1.3580	81.0289
 1.3570	80.9477
 1.3560	80.8867
 1.3550	80.8224
 1.3540	80.8767
 1.3530	80.8997
 1.3520	80.8977
 1.3510	80.9505
 1.3500	80.9487
 1.3490	80.9660
 1.3480	81.0549
 1.3470	80.9748
 1.3460	81.0827
 1.3450	80.9650
 1.3440	80.9923
 1.3430	81.0170
 1.3420	81.1135
 1.3410	81.0548
 1.3400	80.9784
 1.3390	81.0796
 1.3380	81.1400
 1.3370	81.0039
 1.3360	80.9710
 1.3350	81.0125
 1.3340	81.0290
 1.3330	80.9888
 1.3320	81.0101
 1.3310	81.0782
 1.3300	80.9794
 1.3290	81.0599
 1.3280	81.1249
 1.3270	81.1242
 1.3260	81.0963
 1.3250	81.0098
 1.3240	81.0828
 1.3230	81.0544
 1.3220	81.1045
 1.3210	81.1129
 1.3200	81.1054
 1.3190	81.0752
 1.3180	81.0835
 1.3170	81.0751
 1.3160	81.1319
 1.3150	81.1374
 1.3140	81.1476
 1.3130	81.0945
 1.3120	81.1803
 1.3110	81.0730
 1.3100	81.1822
 1.3090	81.1477
 1.3080	81.1188
 1.3070	81.0164
 1.3060	81.0210
 1.3050	81.0136
 1.3040	81.0771
 1.3030	80.9907
 1.3020	81.0538
 1.3010	81.1381
 1.3000	81.0494
 1.2990	81.0476
 1.2980	81.0031
 1.2970	81.0481
 1.2960	81.0782
 1.2950	80.9801
 1.2940	81.0415
 1.2930	80.9993
 1.2920	80.9857
 1.2910	80.9966
 1.2900	81.0422
 1.2890	81.0537
 1.2880	81.0064
 1.2870	80.8690
 1.2860	80.9410
 1.2850	81.0261
 1.2840	80.9889
 1.2830	80.9976
 1.2820	80.9883
 1.2810	80.8902
 1.2800	80.9441
 1.2790	80.9355
 1.2780	80.9034
 1.2770	80.9214
 1.2760	80.8449
 1.2750	80.8880
 1.2740	80.7956
 1.2730	80.7764
 1.2720	80.7570
 1.2710	80.8305
 1.2700	80.8198
 1.2690	80.8102
 1.2680	80.8327
 1.2670	80.8185
 1.2660	80.8603
 1.2650	80.8182
 1.2640	80.7968
 1.2630	80.7864
 1.2620	80.7991
 1.2610	80.7423
 1.2600	80.7444
 1.2590	80.7515
 1.2580	80.7554
 1.2570	80.7799
 1.2560	80.7606
 1.2550	80.7287
 1.2540	80.6955
 1.2530	80.6897
 1.2520	80.6380
 1.2510	80.6093
 1.2500	80.6798
 1.2490	80.7096
 1.2480	80.6499
 1.2470	80.6050
 1.2460	80.6471
 1.2450	80.5599
 1.2440	80.5949
 1.2430	80.5908
 1.2420	80.5524
 1.2410	80.5693
 1.2400	80.5641
 1.2390	80.5320
 1.2380	80.5432
 1.2370	80.5184
 1.2360	80.5286
 1.2350	80.5318
 1.2340	80.4939
 1.2330	80.4715
 1.2320	80.4806
 1.2310	80.4806
 1.2300	80.4576
 1.2290	80.4695
 1.2280	80.4603
 1.2270	80.4525
 1.2260	80.4854
 1.2250	80.4400
 1.2240	80.3816
 1.2230	80.3901
 1.2220	80.4190
 1.2210	80.4204
 1.2200	80.3986
 1.2190	80.3847
 1.2180	80.3337
 1.2170	80.2871
 1.2160	80.3073
 1.2150	80.3137
 1.2140	80.3003
 1.2130	80.3263
 1.2120	80.3496
 1.2110	80.2697
 1.2100	80.2102
 1.2090	80.1813
 1.2080	80.1632
 1.2070	80.1528
 1.2060	80.1526
 1.2050	80.1789
 1.2040	80.1093
 1.2030	80.1037
 1.2020	80.1567
 1.2010	80.1440
 1.2000	80.0976
 1.1990	80.1358
 1.1980	80.1155
 1.1970	80.0926
 1.1960	80.0931
 1.1950	80.1597
 1.1940	80.1176
 1.1930	80.1073
 1.1920	80.0797
 1.1910	80.0145
 1.1900	80.0125
 1.1890	80.0644
 1.1880	80.0277
 1.1870	80.0284
 1.1860	80.0178
 1.1850	80.0785
 1.1840	80.1301
 1.1830	79.9889
 1.1820	80.0022
 1.1810	80.0614
 1.1800	80.0456
 1.1790	80.0860
 1.1780	80.0315
 1.1770	80.0188
 1.1760	79.9562
 1.1750	79.9695
 1.1740	80.0342
 1.1730	79.9872
 1.1720	79.9747
 1.1710	80.0104
 1.1700	80.0314
 1.1690	80.0413
 1.1680	80.0326
 1.1670	80.0273
 1.1660	80.0250
 1.1650	80.0468
 1.1640	80.1034
 1.1630	80.1006
 1.1620	80.0419
 1.1610	80.0052
 1.1600	80.0333
 1.1590	80.0282
 1.1580	80.0009
 1.1570	80.0931
 1.1560	80.0483
 1.1550	80.0822
 1.1540	80.0858
 1.1530	80.0870
 1.1520	79.9754
 1.1510	80.0292
 1.1500	80.0643
 1.1490	80.0293
 1.1480	80.0538
 1.1470	80.0500
 1.1460	80.0195
 1.1450	80.0694
 1.1440	80.0576
 1.1430	80.0566
 1.1420	80.0537
 1.1410	80.0342
 1.1400	79.9671
 1.1390	79.9822
 1.1380	80.0379
 1.1370	80.0226
 1.1360	79.9858
 1.1350	79.9574
 1.1340	79.9876
 1.1330	80.0477
 1.1320	80.0123
 1.1310	80.0015
 1.1300	79.9687
 1.1290	79.9263
 1.1280	79.9253
 1.1270	79.9559
 1.1260	79.9318
 1.1250	79.9403
 1.1240	79.9693
 1.1230	79.9746
 1.1220	79.9071
 1.1210	79.9258
 1.1200	79.9452
 1.1190	79.9163
 1.1180	79.9655
 1.1170	79.9602
 1.1160	79.8148
 1.1150	79.8606
 1.1140	79.8794
 1.1130	79.8410
 1.1120	79.8293
 1.1110	79.8722
 1.1100	79.7715
 1.1090	79.8744
 1.1080	79.8583
 1.1070	79.8496
 1.1060	79.7873
 1.1050	79.8990
 1.1040	79.7671
 1.1030	79.8395
 1.1020	79.8184
 1.1010	79.7740
 1.1000	79.7055
 1.0990	79.8001
 1.0980	79.7457
 1.0970	79.6724
 1.0960	79.8997
 1.0950	79.7679
 1.0940	79.7716
 1.0930	79.7317
 1.0920	79.6718
 1.0910	79.7510
 1.0900	79.7425
 1.0890	79.7487
 1.0880	79.6772
 1.0870	79.7139
 1.0860	79.7026
 1.0850	79.7278
 1.0840	79.6641
 1.0830	79.7652
 1.0820	79.6729
 1.0810	79.6414
 1.0800	79.6073
 1.0790	79.5812
 1.0780	79.6508
 1.0770	79.5977
 1.0760	79.6659
 1.0750	79.7476
 1.0740	79.6743
 1.0730	79.5381
 1.0720	79.6732
 1.0710	79.7093
 1.0700	79.6004
 1.0690	79.6605
 1.0680	79.5571
 1.0670	79.6119
 1.0660	79.5719
 1.0650	79.6544
 1.0640	79.6239
 1.0630	79.6220
 1.0620	79.5513
 1.0610	79.6405
 1.0600	79.4740
 1.0590	79.5572
 1.0580	79.5317
 1.0570	79.5127
 1.0560	79.5107
 1.0550	79.5135
 1.0540	79.4316
 1.0530	79.6029
 1.0520	79.4339
 1.0510	79.4768
 1.0500	79.4159
 1.0490	79.5210
 1.0480	79.4642
 1.0470	79.4896
 1.0460	79.5229
 1.0450	79.4661
 1.0440	79.4397
 1.0430	79.4149
 1.0420	79.4201
 1.0410	79.4192
 1.0400	79.4427
 1.0390	79.4630
 1.0380	79.4455
 1.0370	79.4645
 1.0360	79.4420
 1.0350	79.3984
 1.0340	79.3923
 1.0330	79.3907
 1.0320	79.3420
 1.0310	79.3616
 1.0300	79.3766
 1.0290	79.3005
 1.0280	79.2937
 1.0270	79.3586
 1.0260	79.4291
 1.0250	79.3567
 1.0240	79.4456
 1.0230	79.2654
 1.0220	79.2982
 1.0210	79.3350
 1.0200	79.2925
 1.0190	79.2998
 1.0180	79.3120
 1.0170	79.3209
 1.0160	79.3813
 1.0150	79.3241
 1.0140	79.2422
 1.0130	79.2565
 1.0120	79.2081
 1.0110	79.2161
 1.0100	79.2658
 1.0090	79.2722
 1.0080	79.2075
 1.0070	79.2357
 1.0060	79.2454
 1.0050	79.1856
 1.0040	79.1556
 1.0030	79.1921
 1.0020	79.1675
 1.0010	79.2134
 1.0000	79.1618
 0.9990	79.0915
 0.9980	79.1152
 0.9970	79.0811
 0.9960	79.1559
 0.9950	79.1663
 0.9940	79.0655
 0.9930	79.0678
 0.9920	79.1377
 0.9910	79.1550
 0.9900	79.1397
 0.9890	79.0513
 0.9880	79.0835
 0.9870	79.1973
 0.9860	79.1142
 0.9850	79.1401
 0.9840	79.1054
 0.9830	79.1506
 0.9820	79.0315
 0.9810	79.1494
 0.9800	79.1196
 0.9790	79.1060
 0.9780	79.1321
 0.9770	79.1031
 0.9760	79.0810
 0.9750	79.1332
 0.9740	79.1025
 0.9730	79.0798
 0.9720	79.0496
 0.9710	79.1355
 0.9700	79.0953
 0.9690	79.0914
 0.9680	79.0406
 0.9670	79.0799
 0.9660	79.0437
 0.9650	79.0338
 0.9640	79.0182
 0.9630	78.9944
 0.9620	79.0270
 0.9610	79.0284
 0.9600	79.0377
 0.9590	78.9858
 0.9580	78.9635
 0.9570	79.0039
 0.9560	78.9687
 0.9550	78.9916
 0.9540	78.9860
 0.9530	78.9851
 0.9520	78.9366
 0.9510	78.9626
 0.9500	79.0609
 0.9490	79.0233
 0.9480	79.0034
 0.9470	78.9554
 0.9460	78.9341
 0.9450	78.9177
 0.9440	78.9004
 0.9430	78.9301
 0.9420	78.9515
 0.9410	78.9514
 0.9400	78.9596
 0.9390	78.9784
 0.9380	78.9881
 0.9370	78.9299
 0.9360	78.9007
 0.9350	78.9187
 0.9340	78.9128
 0.9330	78.9158
 0.9320	78.8525
 0.9310	78.8083
 0.9300	78.8371
 0.9290	78.8203
 0.9280	78.8069
 0.9270	78.8675
 0.9260	78.8531
 0.9250	78.8105
 0.9240	78.8327
 0.9230	78.8450
 0.9220	78.8310
 0.9210	78.8561
 0.9200	78.8905
 0.9190	78.8701
 0.9180	78.8396
 0.9170	78.7768
 0.9160	78.7423
 0.9150	78.7765
 0.9140	78.8250
 0.9130	78.8054
 0.9120	78.7786
 0.9110	78.7425
 0.9100	78.7340
 0.9090	78.7522
 0.9080	78.7894
 0.9070	78.7527
 0.9060	78.6916
 0.9050	78.6948
 0.9040	78.7313
 0.9030	78.7247
 0.9020	78.7490
 0.9010	78.6473
 0.9000	78.6828
 0.8990	78.7521
 0.8980	78.7126
 0.8970	78.6903
 0.8960	78.7533
 0.8950	78.6948
 0.8940	78.6045
 0.8930	78.6314
 0.8920	78.6572
 0.8910	78.6407
 0.8900	78.6426
 0.8890	78.5948
 0.8880	78.5695
 0.8870	78.5925
 0.8860	78.6068
 0.8850	78.5922
 0.8840	78.5406
 0.8830	78.5834
 0.8820	78.6193
 0.8810	78.5707
 0.8800	78.5503
 0.8790	78.5622
 0.8780	78.5655
 0.8770	78.5400
 0.8760	78.5069
 0.8750	78.5369
 0.8740	78.5141
 0.8730	78.4784
 0.8720	78.4819
 0.8710	78.4441
 0.8700	78.4647
 0.8690	78.4114
 0.8680	78.4098
 0.8670	78.4053
 0.8660	78.5225
 0.8650	78.4756
 0.8640	78.3638
 0.8630	78.3669
 0.8620	78.4316
 0.8610	78.4449
 0.8600	78.3794
 0.8590	78.2001
 0.8580	78.2721
 0.8570	78.3179
 0.8560	78.1392
 0.8550	78.2447
 0.8540	78.3116
 0.8530	78.2188
 0.8520	78.2311
 0.8510	78.3052
 0.8500	78.2362
 0.8490	78.2436
 0.8480	78.2176
 0.8470	78.1653
 0.8460	78.1942
 0.8450	78.2269
 0.8440	78.1989
 0.8430	78.1219
 0.8420	78.2257
 0.8410	78.1837
 0.8400	78.1236
 0.8390	78.1638
 0.8380	78.1245
 0.8370	78.1544
 0.8360	78.1067
 0.8350	78.0951
 0.8340	78.0757
 0.8330	78.0837
 0.8320	78.0696
 0.8310	78.0364
 0.8300	78.1028
 0.8290	78.0176
 0.8280	77.9789
 0.8270	78.0391
 0.8260	77.9860
 0.8250	77.9680
 0.8240	77.9822
 0.8230	77.9156
 0.8220	77.9458
 0.8210	77.9537
 0.8200	77.9122
 0.8190	77.9070
 0.8180	77.8497
 0.8170	77.8628
 0.8160	77.8430
 0.8150	77.8876
 0.8140	77.8228
 0.8130	77.8370
 0.8120	77.8058
 0.8110	77.7892
 0.8100	77.7845
 0.8090	77.7649
 0.8080	77.6922
 0.8070	77.6763
 0.8060	77.7032
 0.8050	77.6490
 0.8040	77.6223
 0.8030	77.5922
 0.8020	77.6016
 0.8010	77.5666
 0.8000	77.5814
 0.7990	77.4975
 0.7980	77.4394
 0.7970	77.4706
 0.7960	77.3774
 0.7950	77.3757
 0.7940	77.3003
 0.7930	77.3289
 0.7920	77.2222
 0.7910	77.2632
 0.7900	77.2353
 0.7890	77.1912
 0.7880	77.1673
 0.7870	77.1023
 0.7860	77.1110
 0.7850	77.1046
 0.7840	77.0131
 0.7830	76.9666
 0.7820	76.9737
 0.7810	76.9795
 0.7800	76.8748
 0.7790	76.8708
 0.7780	76.8212
 0.7770	76.7811
 0.7760	76.7400
 0.7750	76.6943
 0.7740	76.6243
 0.7730	76.6014
 0.7720	76.5881
 0.7710	76.5091
 0.7700	76.4622
 0.7690	76.4505
 0.7680	76.3876
 0.7670	76.3447
 0.7660	76.2484
 0.7650	76.2068
 0.7640	76.1438
 0.7630	76.0738
 0.7620	76.0800
 0.7610	76.0137
 0.7600	75.9309
 0.7590	75.9111
 0.7580	75.8647
 0.7570	75.7587
 0.7560	75.7159
 0.7550	75.6255
 0.7540	75.5545
 0.7530	75.5370
 0.7520	75.4605
 0.7510	75.4029
 0.7500	75.2984
 0.7490	75.2510
 0.7480	75.1472
 0.7470	75.0908
 0.7460	75.0009
 0.7450	74.9234
 0.7440	74.8789
 0.7430	74.7761
 0.7420	74.7099
 0.7410	74.6543
 0.7400	74.5806
 0.7390	74.4861
 0.7380	74.4347
 0.7370	74.3199
 0.7360	74.2527
 0.7350	74.1800
 0.7340	74.0785
 0.7330	73.9842
 0.7320	73.8921
 0.7310	73.8216
 0.7300	73.7539
 0.7290	73.6674
 0.7280	73.5982
 0.7270	73.5166
 0.7260	73.4369
 0.7250	73.3389
 0.7240	73.2376
 0.7230	73.1851
 0.7220	73.0940
 0.7210	73.0167
 0.7200	72.9489
 0.7190	72.8948
 0.7180	72.8095
 0.7170	72.7231
 0.7160	72.6607
 0.7150	72.5921
 0.7140	72.4992
 0.7130	72.4430
 0.7120	72.3794
 0.7110	72.3013
 0.7100	72.2201
 0.7090	72.1538
 0.7080	72.0856
 0.7070	72.0223
 0.7060	71.9577
 0.7050	71.8802
 0.7040	71.7919
 0.7030	71.7494
 0.7020	71.6768
 0.7010	71.6053
 0.7000	71.5410
 0.6990	71.4675
 0.6980	71.3936
 0.6970	71.3270
 0.6960	71.2527
 0.6950	71.2005
 0.6940	71.1041
 0.6930	71.0418
 0.6920	70.9713
 0.6910	70.8883
 0.6900	70.8262
 0.6890	70.7508
 0.6880	70.6838
 0.6870	70.6122
 0.6860	70.5408
 0.6850	70.4942
 0.6840	70.4343
 0.6830	70.3591
 0.6820	70.2867
 0.6810	70.2282
 0.6800	70.1712
 0.6790	70.1206
 0.6780	70.0577
 0.6770	69.9884
 0.6760	69.9082
 0.6750	69.8422
 0.6740	69.7727
 0.6730	69.7046
 0.6720	69.6565
 0.6710	69.5868
 0.6700	69.5228
 0.6690	69.4692
 0.6680	69.4006
 0.6670	69.3444
 0.6660	69.2732
 0.6650	69.2175
 0.6640	69.1678
 0.6630	69.1023
 0.6620	69.0382
 0.6610	68.9721
 0.6600	68.9071
 0.6590	68.8559
 0.6580	68.8056
 0.6570	68.7505
 0.6560	68.6819
 0.6550	68.6184
 0.6540	68.5465
 0.6530	68.5040
 0.6520	68.4704
 0.6510	68.4063
 0.6500	68.3527
 0.6490	68.3010
 0.6480	68.2477
 0.6470	68.2006
 0.6460	68.1436
 0.6450	68.0886
 0.6440	68.0405
 0.6430	67.9859
 0.6420	67.9313
 0.6410	67.8868
 0.6400	67.8431
 0.6390	67.7822
 0.6380	67.7140
 0.6370	67.6669
 0.6360	67.6182
 0.6350	67.5590
 0.6340	67.5186
 0.6330	67.4719
 0.6320	67.4124
 0.6310	67.3563
 0.6300	67.3182
 0.6290	67.2872
 0.6280	67.2366
 0.6270	67.1882
 0.6260	67.1494
 0.6250	67.1110
 0.6240	67.0673
 0.6230	67.0337
 0.6220	67.0083
 0.6210	66.9796
 0.6200	66.9329
 0.6190	66.8969
 0.6180	66.8757
 0.6170	66.8500
 0.6160	66.8263
 0.6150	66.8080
 0.6140	66.7824
 0.6130	66.7663
 0.6120	66.7492
 0.6110	66.7314
 0.6100	66.7139
 0.6090	66.6901
 0.6080	66.6642
 0.6070	66.6548
 0.6060	66.6440
 0.6050	66.6206
 0.6040	66.5992
 0.6030	66.5812
 0.6020	66.5772
 0.6010	66.5716
 0.6000	66.5561
 0.5990	66.5624
 0.5980	66.5682
 0.5970	66.5791
 0.5960	66.5742
 0.5950	66.5893
 0.5940	66.5869
 0.5930	66.5767
 0.5920	66.5706
 0.5910	66.5605
 0.5900	66.5564
 0.5890	66.5483
 0.5880	66.5455
 0.5870	66.5431
 0.5860	66.5354
 0.5850	66.5295
 0.5840	66.5387
 0.5830	66.5250
 0.5820	66.5236
 0.5810	66.5337
 0.5800	66.5288
 0.5790	66.5241
 0.5780	66.5202
 0.5770	66.5178
 0.5760	66.5067
 0.5750	66.5146
 0.5740	66.5054
 0.5730	66.4952
 0.5720	66.5034
 0.5710	66.4889
 0.5700	66.4975
 0.5690	66.4941
 0.5680	66.4912
 0.5670	66.5007
 0.5660	66.5071
 0.5650	66.5137
 0.5640	66.5039
 0.5630	66.4990
 0.5620	66.5097
 0.5610	66.4951
 0.5600	66.4851
 0.5590	66.4962
 0.5580	66.4964
 0.5570	66.4950
 0.5560	66.5087
 0.5550	66.5010
 0.5540	66.4989
 0.5530	66.5038
 0.5520	66.5057
 0.5510	66.4975
 0.5500	66.5074
 0.5490	66.5013
 0.5480	66.4958
 0.5470	66.5122
 0.5460	66.4999
 0.5450	66.4894
 0.5440	66.4896
 0.5430	66.4884
 0.5420	66.4787
 0.5410	66.4891
 0.5400	66.4901
 0.5390	66.4739
 0.5380	66.4839
 0.5370	66.4785
 0.5360	66.4849
 0.5350	66.4745
 0.5340	66.4864
 0.5330	66.4808
 0.5320	66.4841
 0.5310	66.4596
 0.5300	66.4828
 0.5290	66.4673
 0.5280	66.4534
 0.5270	66.4545
 0.5260	66.4549
 0.5250	66.4579
 0.5240	66.4556
 0.5230	66.4480
 0.5220	66.4503
 0.5210	66.4520
 0.5200	66.4263
 0.5190	66.4190
 0.5180	66.4248
 0.5170	66.4060
 0.5160	66.4123
 0.5150	66.3978
 0.5140	66.3937
 0.5130	66.3900
 0.5120	66.3610
 0.5110	66.3489
 0.5100	66.3611
 0.5090	66.3207
 0.5080	66.2901
 0.5070	66.2916
 0.5060	66.2682
 0.5050	66.2572
 0.5040	66.2378
 0.5030	66.2122
 0.5020	66.1857
 0.5010	66.1418
 0.5000	66.1485
 0.4990	66.1110
 0.4980	66.0896
 0.4970	66.0850
 0.4960	66.0560
 0.4950	65.9991
 0.4940	65.9804
 0.4930	65.9656
 0.4920	65.9118
 0.4910	65.9090
 0.4900	65.8401
 0.4890	65.7897
 0.4880	65.7921
 0.4870	65.7301
 0.4860	65.6948
 0.4850	65.6671
 0.4840	65.6283
 0.4830	65.5769
 0.4820	65.5468
 0.4810	65.5313
 0.4800	65.5201
 0.4790	65.4947
 0.4780	65.4469
 0.4770	65.4329
 0.4760	65.3964
 0.4750	65.3807
 0.4740	65.3284
 0.4730	65.2770
 0.4720	65.2359
 0.4710	65.1923
 0.4700	65.1683
 0.4690	65.1154
 0.4680	65.0947
 0.4670	65.0825
 0.4660	65.0158
 0.4650	64.9703
 0.4640	64.9132
 0.4630	64.8900
 0.4620	64.8396
 0.4610	64.7829
 0.4600	64.7158
 0.4590	64.6908
 0.4580	64.6442
 0.4570	64.6002
 0.4560	64.5347
 0.4550	64.4776
 0.4540	64.4218
 0.4530	64.3703
 0.4520	64.3063
 0.4510	64.2561
 0.4500	64.2118
 0.4490	64.1548
 0.4480	64.1062
 0.4470	64.0404
 0.4460	63.9492
 0.4450	63.9111
 0.4440	63.8382
 0.4430	63.7731
 0.4420	63.7145
 0.4410	63.6574
 0.4400	63.5981
 0.4390	63.5377
 0.4380	63.4704
 0.4370	63.4312
 0.4360	63.3587
 0.4350	63.2941
 0.4340	63.2239
 0.4330	63.1513
 0.4320	63.0889
 0.4310	63.0211
 0.4300	62.9564
 0.4290	62.8925
 0.4280	62.8121
 0.4270	62.7441
 0.4260	62.6634
 0.4250	62.6040
 0.4240	62.5370
 0.4230	62.4773
 0.4220	62.4001
 0.4210	62.3297
 0.4200	62.2469
 0.4190	62.1569
 0.4180	62.0933
 0.4170	62.0227
 0.4160	61.9552
 0.4150	61.8949
 0.4140	61.8044
 0.4130	61.7356
 0.4120	61.6592
 0.4110	61.5824
 0.4100	61.4913
 0.4090	61.4187
 0.4080	61.3642
 0.4070	61.2830
 0.4060	61.1856
 0.4050	61.1193
 0.4040	61.0390
 0.4030	60.9573
 0.4020	60.8805
 0.4010	60.7887
 0.4000	60.7137
