Name: Scheelite CaWO_4
Type: Mineral
Class: Tungstate
Subclass: None
Particle Size: Medium
Sample No.: T-1A
Owner: JPL
Wavelength Range: VSWIR
Origin: USA, California, Kern County, Atolia.
Collection Date: N/A
Description: Particle size was 45-125um. Collected by: Burminco. Original ASTER Spectral Library name was jpl.perkin.mineral.tungstate.none.medium.t01a.spectrum.txt
Measurement: Hemispherical reflectance
First Column: X
Second Column: Y
X Units: Wavelength (micrometers)
Y Units:Reflectance (percent)
First X Value:  2.5000
Last X Value:  0.4000
Number of X Values: 2101
Additional Information: mineral.tungstate.none.medium.vswir.t-1a.jpl.perkin.ancillary.txt

 2.5000	64.8260
 2.4990	64.6555
 2.4980	64.7321
 2.4970	64.9279
 2.4960	64.8235
 2.4950	64.7483
 2.4940	64.8511
 2.4930	64.9418
 2.4920	64.7907
 2.4910	64.8904
 2.4900	65.0160
 2.4890	65.0674
 2.4880	65.0655
 2.4870	65.0059
 2.4860	65.2008
 2.4850	65.0802
 2.4840	65.2271
 2.4830	65.0451
 2.4820	65.2821
 2.4810	65.2324
 2.4800	65.3542
 2.4790	65.2605
 2.4780	65.4624
 2.4770	65.3045
 2.4760	65.4387
 2.4750	65.3878
 2.4740	65.6148
 2.4730	65.6055
 2.4720	65.6506
 2.4710	65.6144
 2.4700	65.8024
 2.4690	65.7302
 2.4680	65.8831
 2.4670	65.8351
 2.4660	65.8614
 2.4650	65.8677
 2.4640	65.9612
 2.4630	66.0469
 2.4620	66.1247
 2.4610	66.0866
 2.4600	66.1634
 2.4590	66.1185
 2.4580	66.2050
 2.4570	66.3747
 2.4560	66.3009
 2.4550	66.2877
 2.4540	66.2937
 2.4530	66.4000
 2.4520	66.4867
 2.4510	66.4482
 2.4500	66.5884
 2.4490	66.5671
 2.4480	66.6468
 2.4470	66.6193
 2.4460	66.6541
 2.4450	66.7052
 2.4440	66.8144
 2.4430	66.8472
 2.4420	66.8783
 2.4410	66.8354
 2.4400	66.8851
 2.4390	66.9324
 2.4380	66.9946
 2.4370	67.1009
 2.4360	67.1783
 2.4350	67.1194
 2.4340	67.1431
 2.4330	67.2259
 2.4320	67.3059
 2.4310	67.2807
 2.4300	67.3346
 2.4290	67.3483
 2.4280	67.3608
 2.4270	67.3997
 2.4260	67.4875
 2.4250	67.4613
 2.4240	67.6201
 2.4230	67.6339
 2.4220	67.7486
 2.4210	67.7950
 2.4200	67.8827
 2.4190	67.8736
 2.4180	67.9407
 2.4170	68.0462
 2.4160	68.0760
 2.4150	68.0368
 2.4140	68.1131
 2.4130	68.1571
 2.4120	68.2874
 2.4110	68.2523
 2.4100	68.2923
 2.4090	68.2884
 2.4080	68.3176
 2.4070	68.3680
 2.4060	68.4216
 2.4050	68.5054
 2.4040	68.5380
 2.4030	68.5538
 2.4020	68.6652
 2.4010	68.5906
 2.4000	68.5807
 2.3990	68.6292
 2.3980	68.7033
 2.3970	68.7464
 2.3960	68.7890
 2.3950	68.8188
 2.3940	68.8353
 2.3930	68.8497
 2.3920	68.9515
 2.3910	68.9581
 2.3900	68.9833
 2.3890	69.0150
 2.3880	69.0270
 2.3870	69.0605
 2.3860	69.1095
 2.3850	69.1338
 2.3840	69.1967
 2.3830	69.2294
 2.3820	69.2523
 2.3810	69.3017
 2.3800	69.3619
 2.3790	69.3527
 2.3780	69.3730
 2.3770	69.3778
 2.3760	69.3807
 2.3750	69.4335
 2.3740	69.5017
 2.3730	69.5427
 2.3720	69.5083
 2.3710	69.5247
 2.3700	69.5569
 2.3690	69.5479
 2.3680	69.5973
 2.3670	69.6637
 2.3660	69.6920
 2.3650	69.7060
 2.3640	69.7120
 2.3630	69.6867
 2.3620	69.7045
 2.3610	69.7127
 2.3600	69.7143
 2.3590	69.7187
 2.3580	69.7140
 2.3570	69.7831
 2.3560	69.7948
 2.3550	69.6720
 2.3540	69.6216
 2.3530	69.6881
 2.3520	69.7262
 2.3510	69.6772
 2.3500	69.7135
 2.3490	69.7479
 2.3480	69.6935
 2.3470	69.7035
 2.3460	69.6973
 2.3450	69.6725
 2.3440	69.7200
 2.3430	69.7587
 2.3420	69.7210
 2.3410	69.8068
 2.3400	69.8327
 2.3390	69.7830
 2.3380	69.8414
 2.3370	69.8914
 2.3360	69.9048
 2.3350	69.9187
 2.3340	69.9689
 2.3330	70.0419
 2.3320	70.0431
 2.3310	70.0691
 2.3300	70.1488
 2.3290	70.1956
 2.3280	70.2265
 2.3270	70.2925
 2.3260	70.3538
 2.3250	70.3596
 2.3240	70.3994
 2.3230	70.4666
 2.3220	70.4487
 2.3210	70.4716
 2.3200	70.5484
 2.3190	70.5944
 2.3180	70.6497
 2.3170	70.6929
 2.3160	70.6625
 2.3150	70.7422
 2.3140	70.7743
 2.3130	70.7548
 2.3120	70.7932
 2.3110	70.8564
 2.3100	70.8460
 2.3090	70.8912
 2.3080	70.9137
 2.3070	70.9739
 2.3060	70.9670
 2.3050	71.0166
 2.3040	71.0328
 2.3030	71.0990
 2.3020	71.1129
 2.3010	71.1846
 2.3000	71.1852
 2.2990	71.2158
 2.2980	71.2044
 2.2970	71.2759
 2.2960	71.2754
 2.2950	71.2981
 2.2940	71.2998
 2.2930	71.3304
 2.2920	71.3397
 2.2910	71.3787
 2.2900	71.3995
 2.2890	71.4861
 2.2880	71.4907
 2.2870	71.5351
 2.2860	71.5053
 2.2850	71.5602
 2.2840	71.5582
 2.2830	71.6318
 2.2820	71.6407
 2.2810	71.7075
 2.2800	71.7179
 2.2790	71.7149
 2.2780	71.7682
 2.2770	71.7786
 2.2760	71.7780
 2.2750	71.8342
 2.2740	71.8740
 2.2730	71.9239
 2.2720	71.8538
 2.2710	71.9421
 2.2700	71.8849
 2.2690	71.9394
 2.2680	71.9039
 2.2670	71.9459
 2.2660	72.0100
 2.2650	72.0479
 2.2640	71.9422
 2.2630	71.9730
 2.2620	72.0994
 2.2610	72.0383
 2.2600	72.0083
 2.2590	72.0491
 2.2580	71.9684
 2.2570	72.0429
 2.2560	71.9929
 2.2550	71.9881
 2.2540	72.0270
 2.2530	72.0472
 2.2520	72.0154
 2.2510	72.0961
 2.2500	72.0586
 2.2490	72.1146
 2.2480	72.1044
 2.2470	72.1322
 2.2460	72.1374
 2.2450	72.1607
 2.2440	72.1764
 2.2430	72.1972
 2.2420	72.1821
 2.2410	72.1856
 2.2400	72.1655
 2.2390	72.2279
 2.2380	72.1993
 2.2370	72.2513
 2.2360	72.1845
 2.2350	72.2158
 2.2340	72.2112
 2.2330	72.2631
 2.2320	72.1253
 2.2310	72.1674
 2.2300	72.1458
 2.2290	72.2347
 2.2280	72.1982
 2.2270	72.0028
 2.2260	72.0752
 2.2250	72.0470
 2.2240	72.0053
 2.2230	71.9453
 2.2220	71.9013
 2.2210	71.8446
 2.2200	71.7984
 2.2190	71.8194
 2.2180	71.7692
 2.2170	71.6658
 2.2160	71.6171
 2.2150	71.6504
 2.2140	71.5426
 2.2130	71.4967
 2.2120	71.4297
 2.2110	71.3602
 2.2100	71.3357
 2.2090	71.2669
 2.2080	71.2816
 2.2070	71.2514
 2.2060	71.2209
 2.2050	71.1785
 2.2040	71.2237
 2.2030	71.2119
 2.2020	71.2902
 2.2010	71.2888
 2.2000	71.3677
 2.1990	71.3461
 2.1980	71.3273
 2.1970	71.3952
 2.1960	71.4553
 2.1950	71.5529
 2.1940	71.5604
 2.1930	71.6269
 2.1920	71.6838
 2.1910	71.7302
 2.1900	71.8601
 2.1890	71.8760
 2.1880	71.9676
 2.1870	72.1049
 2.1860	72.1230
 2.1850	72.2613
 2.1840	72.3686
 2.1830	72.5219
 2.1820	72.5508
 2.1810	72.6663
 2.1800	72.7192
 2.1790	72.8610
 2.1780	72.9670
 2.1770	73.0226
 2.1760	73.1343
 2.1750	73.2129
 2.1740	73.2861
 2.1730	73.3129
 2.1720	73.4717
 2.1710	73.5781
 2.1700	73.6311
 2.1690	73.6783
 2.1680	73.7527
 2.1670	73.7703
 2.1660	73.7723
 2.1650	73.8659
 2.1640	73.9348
 2.1630	74.0315
 2.1620	74.0718
 2.1610	74.1652
 2.1600	74.1530
 2.1590	74.2010
 2.1580	74.1517
 2.1570	74.3085
 2.1560	74.3359
 2.1550	74.3448
 2.1540	74.4205
 2.1530	74.4618
 2.1520	74.4029
 2.1510	74.4896
 2.1500	74.5207
 2.1490	74.5218
 2.1480	74.4979
 2.1470	74.5189
 2.1460	74.5547
 2.1450	74.5365
 2.1440	74.5196
 2.1430	74.5126
 2.1420	74.4999
 2.1410	74.5769
 2.1400	74.5093
 2.1390	74.4905
 2.1380	74.5033
 2.1370	74.4867
 2.1360	74.4553
 2.1350	74.4293
 2.1340	74.3395
 2.1330	74.3594
 2.1320	74.3480
 2.1310	74.2882
 2.1300	74.2277
 2.1290	74.2716
 2.1280	74.2694
 2.1270	74.2627
 2.1260	74.2325
 2.1250	74.1847
 2.1240	74.1294
 2.1230	74.0738
 2.1220	74.0114
 2.1210	73.9561
 2.1200	73.8834
 2.1190	73.8729
 2.1180	73.8063
 2.1170	73.8125
 2.1160	73.7885
 2.1150	73.7609
 2.1140	73.6831
 2.1130	73.6945
 2.1120	73.6185
 2.1110	73.5958
 2.1100	73.5223
 2.1090	73.4842
 2.1080	73.4365
 2.1070	73.4552
 2.1060	73.4188
 2.1050	73.3562
 2.1040	73.3412
 2.1030	73.2881
 2.1020	73.2346
 2.1010	73.2097
 2.1000	73.1338
 2.0990	73.1989
 2.0980	73.1716
 2.0970	73.1707
 2.0960	73.1792
 2.0950	73.1455
 2.0940	73.1996
 2.0930	73.2319
 2.0920	73.2107
 2.0910	73.2466
 2.0900	73.3029
 2.0890	73.3554
 2.0880	73.3569
 2.0870	73.3188
 2.0860	73.3210
 2.0850	73.3836
 2.0840	73.3719
 2.0830	73.4062
 2.0820	73.4020
 2.0810	73.3974
 2.0800	73.4369
 2.0790	73.4008
 2.0780	73.3632
 2.0770	73.4136
 2.0760	73.4263
 2.0750	73.4570
 2.0740	73.4743
 2.0730	73.4468
 2.0720	73.4340
 2.0710	73.4811
 2.0700	73.4964
 2.0690	73.4731
 2.0680	73.4940
 2.0670	73.5391
 2.0660	73.5535
 2.0650	73.4798
 2.0640	73.4592
 2.0630	73.4900
 2.0620	73.5125
 2.0610	73.5204
 2.0600	73.5165
 2.0590	73.4999
 2.0580	73.4776
 2.0570	73.4243
 2.0560	73.4555
 2.0550	73.5140
 2.0540	73.5140
 2.0530	73.4994
 2.0520	73.4755
 2.0510	73.4623
 2.0500	73.5151
 2.0490	73.5189
 2.0480	73.5483
 2.0470	73.5178
 2.0460	73.5108
 2.0450	73.5441
 2.0440	73.5617
 2.0430	73.5020
 2.0420	73.5101
 2.0410	73.4760
 2.0400	73.4643
 2.0390	73.4531
 2.0380	73.4439
 2.0370	73.4187
 2.0360	73.3859
 2.0350	73.4061
 2.0340	73.4268
 2.0330	73.3835
 2.0320	73.3701
 2.0310	73.3490
 2.0300	73.3366
 2.0290	73.2385
 2.0280	73.2321
 2.0270	73.2007
 2.0260	73.2537
 2.0250	73.2422
 2.0240	73.2247
 2.0230	73.1834
 2.0220	73.1396
 2.0210	73.1348
 2.0200	73.0793
 2.0190	73.0666
 2.0180	73.0258
 2.0170	72.9540
 2.0160	72.9119
 2.0150	72.9013
 2.0140	72.8743
 2.0130	72.8281
 2.0120	72.7870
 2.0110	72.8064
 2.0100	72.7341
 2.0090	72.6684
 2.0080	72.7104
 2.0070	72.6244
 2.0060	72.6534
 2.0050	72.5446
 2.0040	72.5350
 2.0030	72.4351
 2.0020	72.4402
 2.0010	72.4317
 2.0000	72.3120
 1.9990	72.3489
 1.9980	72.3246
 1.9970	72.2568
 1.9960	72.2428
 1.9950	72.1391
 1.9940	72.1016
 1.9930	71.9950
 1.9920	71.9744
 1.9910	71.8805
 1.9900	71.8995
 1.9890	71.8590
 1.9880	71.7815
 1.9870	71.7673
 1.9860	71.8039
 1.9850	71.7077
 1.9840	71.6136
 1.9830	71.6091
 1.9820	71.4959
 1.9810	71.3714
 1.9800	71.4021
 1.9790	71.3823
 1.9780	71.3395
 1.9770	71.2613
 1.9760	71.2488
 1.9750	71.2379
 1.9740	71.1413
 1.9730	71.0901
 1.9720	71.1067
 1.9710	71.0291
 1.9700	70.9594
 1.9690	70.8832
 1.9680	70.8694
 1.9670	70.7740
 1.9660	70.7437
 1.9650	70.7455
 1.9640	70.7273
 1.9630	70.6605
 1.9620	70.6081
 1.9610	70.5622
 1.9600	70.5991
 1.9590	70.4511
 1.9580	70.4144
 1.9570	70.4023
 1.9560	70.3635
 1.9550	70.3483
 1.9540	70.2897
 1.9530	70.2061
 1.9520	70.1538
 1.9510	70.1557
 1.9500	70.1650
 1.9490	70.0292
 1.9480	70.0717
 1.9470	69.9738
 1.9460	69.9596
 1.9450	69.9147
 1.9440	69.8726
 1.9430	69.7680
 1.9420	69.8453
 1.9410	69.7369
 1.9400	69.6821
 1.9390	69.6764
 1.9380	69.6391
 1.9370	69.5149
 1.9360	69.5807
 1.9350	69.4550
 1.9340	69.4038
 1.9330	69.4706
 1.9320	69.3845
 1.9310	69.4086
 1.9300	69.2948
 1.9290	69.2447
 1.9280	69.2938
 1.9270	69.1760
 1.9260	69.0078
 1.9250	69.0852
 1.9240	69.1298
 1.9230	69.0002
 1.9220	68.9489
 1.9210	68.8793
 1.9200	68.9025
 1.9190	68.8684
 1.9180	68.8802
 1.9170	68.8498
 1.9160	68.8607
 1.9150	68.7800
 1.9140	68.8954
 1.9130	68.8320
 1.9120	68.9564
 1.9110	68.9361
 1.9100	68.9951
 1.9090	69.0317
 1.9080	69.1832
 1.9070	69.2807
 1.9060	69.4631
 1.9050	69.5901
 1.9040	69.6933
 1.9030	69.8532
 1.9020	70.2073
 1.9010	70.4159
 1.9000	70.5943
 1.8990	70.8372
 1.8980	71.1163
 1.8970	71.3831
 1.8960	71.5802
 1.8950	71.8601
 1.8940	72.1692
 1.8930	72.3922
 1.8920	72.6673
 1.8910	72.8731
 1.8900	73.0796
 1.8890	73.2864
 1.8880	73.5927
 1.8870	73.6918
 1.8860	73.8480
 1.8850	74.0297
 1.8840	74.2468
 1.8830	74.3039
 1.8820	74.5267
 1.8810	74.5170
 1.8800	74.6372
 1.8790	74.6972
 1.8780	74.8991
 1.8770	74.9439
 1.8760	75.0402
 1.8750	75.0205
 1.8740	75.0958
 1.8730	75.1949
 1.8720	75.2904
 1.8710	75.3316
 1.8700	75.3541
 1.8690	75.4516
 1.8680	75.5069
 1.8670	75.4915
 1.8660	75.6031
 1.8650	75.6587
 1.8640	75.6876
 1.8630	75.7149
 1.8620	75.8415
 1.8610	75.7447
 1.8600	75.8160
 1.8590	75.8159
 1.8580	75.7850
 1.8570	75.8082
 1.8560	75.8220
 1.8550	75.8239
 1.8540	75.8371
 1.8530	75.8906
 1.8520	75.8953
 1.8510	75.8510
 1.8500	75.8629
 1.8490	75.8752
 1.8480	75.9028
 1.8470	75.9527
 1.8460	75.9707
 1.8450	75.9045
 1.8440	75.9135
 1.8430	75.9119
 1.8420	75.9199
 1.8410	75.8824
 1.8400	75.9514
 1.8390	75.9438
 1.8380	75.9305
 1.8370	75.8945
 1.8360	75.9047
 1.8350	75.9592
 1.8340	75.9099
 1.8330	75.8812
 1.8320	75.9604
 1.8310	75.9865
 1.8300	75.9356
 1.8290	75.9117
 1.8280	75.9229
 1.8270	75.9017
 1.8260	75.9840
 1.8250	75.9735
 1.8240	75.9695
 1.8230	75.9391
 1.8220	75.9282
 1.8210	75.9198
 1.8200	75.9224
 1.8190	75.8915
 1.8180	75.8917
 1.8170	75.9412
 1.8160	75.9447
 1.8150	75.9177
 1.8140	75.9140
 1.8130	75.9184
 1.8120	75.9508
 1.8110	75.9540
 1.8100	76.0011
 1.8090	75.9852
 1.8080	75.9798
 1.8070	75.9497
 1.8060	75.9282
 1.8050	75.8979
 1.8040	75.8651
 1.8030	75.9165
 1.8020	75.9709
 1.8010	75.9332
 1.8000	75.9284
 1.7990	75.9695
 1.7980	75.9757
 1.7970	75.8933
 1.7960	75.8648
 1.7950	75.8612
 1.7940	75.8542
 1.7930	75.8943
 1.7920	75.8842
 1.7910	75.8967
 1.7900	75.9000
 1.7890	75.8610
 1.7880	75.8562
 1.7870	75.8504
 1.7860	75.8113
 1.7850	75.8134
 1.7840	75.8217
 1.7830	75.7727
 1.7820	75.7916
 1.7810	75.8406
 1.7800	75.8346
 1.7790	75.8008
 1.7780	75.7865
 1.7770	75.7945
 1.7760	75.8086
 1.7750	75.8052
 1.7740	75.8095
 1.7730	75.7947
 1.7720	75.7486
 1.7710	75.7653
 1.7700	75.7830
 1.7690	75.7696
 1.7680	75.7849
 1.7670	75.8399
 1.7660	75.8126
 1.7650	75.7937
 1.7640	75.7663
 1.7630	75.7888
 1.7620	75.8005
 1.7610	75.7714
 1.7600	75.7684
 1.7590	75.7557
 1.7580	75.7577
 1.7570	75.7662
 1.7560	75.7787
 1.7550	75.7795
 1.7540	75.7785
 1.7530	75.7727
 1.7520	75.7404
 1.7510	75.8028
 1.7500	75.8269
 1.7490	75.7904
 1.7480	75.7676
 1.7470	75.7991
 1.7460	75.7738
 1.7450	75.8618
 1.7440	75.8582
 1.7430	75.8649
 1.7420	75.8584
 1.7410	75.8514
 1.7400	75.8088
 1.7390	75.8216
 1.7380	75.8563
 1.7370	75.9149
 1.7360	75.8534
 1.7350	75.8138
 1.7340	75.7767
 1.7330	75.7737
 1.7320	75.8127
 1.7310	75.8703
 1.7300	75.8502
 1.7290	75.8596
 1.7280	75.8937
 1.7270	75.8671
 1.7260	75.8428
 1.7250	75.8400
 1.7240	75.8406
 1.7230	75.8524
 1.7220	75.8460
 1.7210	75.8205
 1.7200	75.8351
 1.7190	75.8628
 1.7180	75.8115
 1.7170	75.8074
 1.7160	75.8722
 1.7150	75.8748
 1.7140	75.8004
 1.7130	75.9113
 1.7120	75.8966
 1.7110	75.8003
 1.7100	75.8009
 1.7090	75.8516
 1.7080	75.8284
 1.7070	75.8123
 1.7060	75.8102
 1.7050	75.8138
 1.7040	75.7606
 1.7030	75.8605
 1.7020	75.8229
 1.7010	75.7726
 1.7000	75.8044
 1.6990	75.8039
 1.6980	75.7823
 1.6970	75.8313
 1.6960	75.8321
 1.6950	75.7790
 1.6940	75.7243
 1.6930	75.7732
 1.6920	75.7765
 1.6910	75.8035
 1.6900	75.8035
 1.6890	75.7819
 1.6880	75.7120
 1.6870	75.7810
 1.6860	75.7461
 1.6850	75.8120
 1.6840	75.8135
 1.6830	75.7253
 1.6820	75.8000
 1.6810	75.8221
 1.6800	75.7959
 1.6790	75.7988
 1.6780	75.7481
 1.6770	75.7226
 1.6760	75.7652
 1.6750	75.8249
 1.6740	75.7506
 1.6730	75.7432
 1.6720	75.7539
 1.6710	75.7358
 1.6700	75.7655
 1.6690	75.8113
 1.6680	75.6726
 1.6670	75.7158
 1.6660	75.7152
 1.6650	75.7916
 1.6640	75.6921
 1.6630	75.7604
 1.6620	75.7400
 1.6610	75.7489
 1.6600	75.7313
 1.6590	75.7223
 1.6580	75.7152
 1.6570	75.6701
 1.6560	75.6854
 1.6550	75.7454
 1.6540	75.7062
 1.6530	75.7567
 1.6520	75.6445
 1.6510	75.6990
 1.6500	75.6623
 1.6490	75.6586
 1.6480	75.7355
 1.6470	75.7507
 1.6460	75.6998
 1.6450	75.6868
 1.6440	75.6864
 1.6430	75.6620
 1.6420	75.5814
 1.6410	75.6561
 1.6400	75.6860
 1.6390	75.6355
 1.6380	75.6190
 1.6370	75.6762
 1.6360	75.6542
 1.6350	75.7100
 1.6340	75.5874
 1.6330	75.5679
 1.6320	75.6197
 1.6310	75.6370
 1.6300	75.5840
 1.6290	75.6207
 1.6280	75.5250
 1.6270	75.6423
 1.6260	75.5778
 1.6250	75.5927
 1.6240	75.5380
 1.6230	75.5381
 1.6220	75.5314
 1.6210	75.4981
 1.6200	75.5335
 1.6190	75.6272
 1.6180	75.5258
 1.6170	75.5212
 1.6160	75.5560
 1.6150	75.5652
 1.6140	75.4986
 1.6130	75.4952
 1.6120	75.4328
 1.6110	75.4762
 1.6100	75.4462
 1.6090	75.4943
 1.6080	75.4378
 1.6070	75.5701
 1.6060	75.4186
 1.6050	75.4813
 1.6040	75.4104
 1.6030	75.3995
 1.6020	75.4067
 1.6010	75.4600
 1.6000	75.4479
 1.5990	75.4272
 1.5980	75.3761
 1.5970	75.3477
 1.5960	75.3964
 1.5950	75.4145
 1.5940	75.4263
 1.5930	75.3226
 1.5920	75.3093
 1.5910	75.3433
 1.5900	75.3384
 1.5890	75.3180
 1.5880	75.3138
 1.5870	75.2972
 1.5860	75.2421
 1.5850	75.2084
 1.5840	75.2989
 1.5830	75.2412
 1.5820	75.1912
 1.5810	75.2593
 1.5800	75.1517
 1.5790	75.1964
 1.5780	75.1889
 1.5770	75.1764
 1.5760	75.2422
 1.5750	75.1323
 1.5740	75.0723
 1.5730	75.1167
 1.5720	75.1188
 1.5710	75.0799
 1.5700	75.0145
 1.5690	75.1084
 1.5680	75.0590
 1.5670	75.0399
 1.5660	75.0480
 1.5650	75.0545
 1.5640	74.9933
 1.5630	75.0087
 1.5620	74.9634
 1.5610	74.9462
 1.5600	74.9624
 1.5590	74.9551
 1.5580	74.8715
 1.5570	74.8295
 1.5560	74.8685
 1.5550	74.8582
 1.5540	74.7862
 1.5530	74.8631
 1.5520	74.8348
 1.5510	74.8079
 1.5500	74.8010
 1.5490	74.7641
 1.5480	74.7129
 1.5470	74.7466
 1.5460	74.6799
 1.5450	74.7069
 1.5440	74.7622
 1.5430	74.6576
 1.5420	74.5968
 1.5410	74.6008
 1.5400	74.5969
 1.5390	74.5914
 1.5380	74.5929
 1.5370	74.6112
 1.5360	74.5293
 1.5350	74.4902
 1.5340	74.4884
 1.5330	74.4972
 1.5320	74.4704
 1.5310	74.4418
 1.5300	74.4491
 1.5290	74.4709
 1.5280	74.3694
 1.5270	74.3437
 1.5260	74.3539
 1.5250	74.3320
 1.5240	74.2866
 1.5230	74.2922
 1.5220	74.2581
 1.5210	74.1945
 1.5200	74.2447
 1.5190	74.2390
 1.5180	74.1736
 1.5170	74.1353
 1.5160	74.1084
 1.5150	74.0980
 1.5140	74.0774
 1.5130	74.0084
 1.5120	74.0460
 1.5110	74.0535
 1.5100	73.9965
 1.5090	73.9654
 1.5080	73.9562
 1.5070	73.9497
 1.5060	73.9025
 1.5050	73.8858
 1.5040	73.8454
 1.5030	73.7784
 1.5020	73.7566
 1.5010	73.7519
 1.5000	73.7406
 1.4990	73.7207
 1.4980	73.6742
 1.4970	73.6055
 1.4960	73.5996
 1.4950	73.5973
 1.4940	73.6229
 1.4930	73.6121
 1.4920	73.5204
 1.4910	73.4320
 1.4900	73.4427
 1.4890	73.4702
 1.4880	73.4272
 1.4870	73.3353
 1.4860	73.3183
 1.4850	73.3415
 1.4840	73.3327
 1.4830	73.3007
 1.4820	73.2568
 1.4810	73.1890
 1.4800	73.1454
 1.4790	73.1095
 1.4780	73.1344
 1.4770	73.1208
 1.4760	73.0631
 1.4750	73.0240
 1.4740	73.0182
 1.4730	72.9716
 1.4720	72.8575
 1.4710	72.8559
 1.4700	72.8752
 1.4690	72.7630
 1.4680	72.7246
 1.4670	72.7674
 1.4660	72.7549
 1.4650	72.7379
 1.4640	72.6995
 1.4630	72.6167
 1.4620	72.5773
 1.4610	72.5647
 1.4600	72.5813
 1.4590	72.5840
 1.4580	72.5565
 1.4570	72.5372
 1.4560	72.5071
 1.4550	72.5003
 1.4540	72.4723
 1.4530	72.4446
 1.4520	72.4356
 1.4510	72.3539
 1.4500	72.3410
 1.4490	72.3430
 1.4480	72.2936
 1.4470	72.2264
 1.4460	72.1772
 1.4450	72.1648
 1.4440	72.2329
 1.4430	72.1522
 1.4420	72.1243
 1.4410	72.0364
 1.4400	72.0239
 1.4390	71.9541
 1.4380	71.9409
 1.4370	71.8923
 1.4360	71.8691
 1.4350	71.8532
 1.4340	71.7796
 1.4330	71.6760
 1.4320	71.7151
 1.4310	71.5960
 1.4300	71.5276
 1.4290	71.4895
 1.4280	71.4406
 1.4270	71.3033
 1.4260	71.3201
 1.4250	71.2519
 1.4240	71.1858
 1.4230	71.0352
 1.4220	70.9973
 1.4210	70.8806
 1.4200	70.8010
 1.4190	70.6632
 1.4180	70.5864
 1.4170	70.4937
 1.4160	70.3968
 1.4150	70.3276
 1.4140	70.3159
 1.4130	70.2313
 1.4120	70.2272
 1.4110	70.2268
 1.4100	70.2478
 1.4090	70.3066
 1.4080	70.4575
 1.4070	70.4219
 1.4060	70.4845
 1.4050	70.4885
 1.4040	70.6404
 1.4030	70.6067
 1.4020	70.7546
 1.4010	70.7947
 1.4000	70.9135
 1.3990	70.9959
 1.3980	71.0582
 1.3970	71.1266
 1.3960	71.2707
 1.3950	71.3394
 1.3940	71.3898
 1.3930	71.4099
 1.3920	71.6446
 1.3910	71.6983
 1.3900	71.7329
 1.3890	71.8037
 1.3880	71.8858
 1.3870	71.8119
 1.3860	71.8507
 1.3850	71.8972
 1.3840	71.9092
 1.3830	71.8640
 1.3820	71.9071
 1.3810	71.8544
 1.3800	71.8780
 1.3790	71.9154
 1.3780	71.9501
 1.3770	71.8963
 1.3760	71.8101
 1.3750	71.8458
 1.3740	71.9285
 1.3730	71.8503
 1.3720	71.8967
 1.3710	71.8534
 1.3700	71.7616
 1.3690	71.8132
 1.3680	71.7541
 1.3670	71.7864
 1.3660	71.7709
 1.3650	71.6845
 1.3640	71.6365
 1.3630	71.6456
 1.3620	71.6758
 1.3610	71.5939
 1.3600	71.6018
 1.3590	71.5686
 1.3580	71.6588
 1.3570	71.5269
 1.3560	71.6178
 1.3550	71.4490
 1.3540	71.4963
 1.3530	71.3813
 1.3520	71.3949
 1.3510	71.2975
 1.3500	71.3902
 1.3490	71.3226
 1.3480	71.3021
 1.3470	71.2671
 1.3460	71.2974
 1.3450	71.2097
 1.3440	71.2169
 1.3430	71.1620
 1.3420	71.1162
 1.3410	71.0595
 1.3400	71.1372
 1.3390	70.9967
 1.3380	71.0436
 1.3370	70.9684
 1.3360	71.0128
 1.3350	70.8834
 1.3340	70.9402
 1.3330	70.9147
 1.3320	70.8107
 1.3310	70.7867
 1.3300	70.8448
 1.3290	70.7711
 1.3280	70.7468
 1.3270	70.7131
 1.3260	70.6144
 1.3250	70.6399
 1.3240	70.6603
 1.3230	70.5726
 1.3220	70.5725
 1.3210	70.6360
 1.3200	70.5245
 1.3190	70.4928
 1.3180	70.4218
 1.3170	70.4225
 1.3160	70.3748
 1.3150	70.3890
 1.3140	70.4421
 1.3130	70.3185
 1.3120	70.3677
 1.3110	70.2386
 1.3100	70.2394
 1.3090	70.2414
 1.3080	70.1672
 1.3070	70.1072
 1.3060	70.1492
 1.3050	70.0714
 1.3040	70.0591
 1.3030	70.0239
 1.3020	69.9844
 1.3010	69.9168
 1.3000	69.9871
 1.2990	69.9495
 1.2980	69.9220
 1.2970	69.9006
 1.2960	69.7946
 1.2950	69.7974
 1.2940	69.7570
 1.2930	69.6885
 1.2920	69.7398
 1.2910	69.6830
 1.2900	69.6660
 1.2890	69.6476
 1.2880	69.6661
 1.2870	69.5933
 1.2860	69.5858
 1.2850	69.5408
 1.2840	69.5319
 1.2830	69.5478
 1.2820	69.5398
 1.2810	69.4707
 1.2800	69.4480
 1.2790	69.4002
 1.2780	69.3907
 1.2770	69.3601
 1.2760	69.3130
 1.2750	69.2451
 1.2740	69.2635
 1.2730	69.1617
 1.2720	69.2012
 1.2710	69.1997
 1.2700	69.1721
 1.2690	69.1628
 1.2680	69.1227
 1.2670	69.0551
 1.2660	68.9953
 1.2650	68.9388
 1.2640	68.9644
 1.2630	68.9513
 1.2620	68.9499
 1.2610	68.9144
 1.2600	68.8940
 1.2590	68.8415
 1.2580	68.8164
 1.2570	68.7468
 1.2560	68.7581
 1.2550	68.7432
 1.2540	68.6879
 1.2530	68.6497
 1.2520	68.7000
 1.2510	68.6889
 1.2500	68.6243
 1.2490	68.6013
 1.2480	68.5561
 1.2470	68.5056
 1.2460	68.5099
 1.2450	68.4718
 1.2440	68.3766
 1.2430	68.3557
 1.2420	68.4090
 1.2410	68.3560
 1.2400	68.3375
 1.2390	68.2890
 1.2380	68.2457
 1.2370	68.2804
 1.2360	68.2798
 1.2350	68.1881
 1.2340	68.1720
 1.2330	68.1578
 1.2320	68.1284
 1.2310	68.1086
 1.2300	68.0858
 1.2290	68.0337
 1.2280	68.0080
 1.2270	67.9655
 1.2260	67.9247
 1.2250	67.8771
 1.2240	67.8333
 1.2230	67.8611
 1.2220	67.8417
 1.2210	67.7775
 1.2200	67.7217
 1.2190	67.7127
 1.2180	67.7504
 1.2170	67.7171
 1.2160	67.6203
 1.2150	67.6389
 1.2140	67.6518
 1.2130	67.5867
 1.2120	67.5812
 1.2110	67.5801
 1.2100	67.5125
 1.2090	67.4362
 1.2080	67.4203
 1.2070	67.4571
 1.2060	67.3890
 1.2050	67.3312
 1.2040	67.3070
 1.2030	67.2751
 1.2020	67.2589
 1.2010	67.2193
 1.2000	67.2042
 1.1990	67.1828
 1.1980	67.1396
 1.1970	67.1346
 1.1960	67.1096
 1.1950	67.0960
 1.1940	67.0730
 1.1930	67.0322
 1.1920	66.9627
 1.1910	66.9507
 1.1900	66.9131
 1.1890	66.9037
 1.1880	66.8021
 1.1870	66.8238
 1.1860	66.8063
 1.1850	66.7967
 1.1840	66.8157
 1.1830	66.7896
 1.1820	66.7009
 1.1810	66.6664
 1.1800	66.6166
 1.1790	66.5319
 1.1780	66.5304
 1.1770	66.4813
 1.1760	66.4428
 1.1750	66.4595
 1.1740	66.4752
 1.1730	66.4455
 1.1720	66.3673
 1.1710	66.3205
 1.1700	66.2671
 1.1690	66.2144
 1.1680	66.1744
 1.1670	66.1942
 1.1660	66.1390
 1.1650	66.0965
 1.1640	66.0409
 1.1630	66.0084
 1.1620	65.9861
 1.1610	65.9734
 1.1600	65.9373
 1.1590	65.8930
 1.1580	65.8427
 1.1570	65.8213
 1.1560	65.7927
 1.1550	65.8115
 1.1540	65.7708
 1.1530	65.7294
 1.1520	65.6755
 1.1510	65.6741
 1.1500	65.5659
 1.1490	65.5589
 1.1480	65.5071
 1.1470	65.4741
 1.1460	65.3525
 1.1450	65.3600
 1.1440	65.3454
 1.1430	65.3106
 1.1420	65.3081
 1.1410	65.2827
 1.1400	65.1624
 1.1390	65.1756
 1.1380	65.1564
 1.1370	65.1215
 1.1360	65.0111
 1.1350	65.0306
 1.1340	64.9396
 1.1330	64.9184
 1.1320	64.8692
 1.1310	64.7980
 1.1300	64.7947
 1.1290	64.7094
 1.1280	64.6402
 1.1270	64.6841
 1.1260	64.5768
 1.1250	64.5387
 1.1240	64.4792
 1.1230	64.4852
 1.1220	64.3907
 1.1210	64.3897
 1.1200	64.3782
 1.1190	64.2772
 1.1180	64.2628
 1.1170	64.2422
 1.1160	64.1819
 1.1150	64.1825
 1.1140	64.0817
 1.1130	64.0523
 1.1120	63.9335
 1.1110	63.9469
 1.1100	63.9033
 1.1090	63.8756
 1.1080	63.7715
 1.1070	63.7341
 1.1060	63.6873
 1.1050	63.6459
 1.1040	63.5837
 1.1030	63.5691
 1.1020	63.5474
 1.1010	63.4304
 1.1000	63.4605
 1.0990	63.4014
 1.0980	63.3039
 1.0970	63.3688
 1.0960	63.2143
 1.0950	63.2262
 1.0940	63.1819
 1.0930	63.1037
 1.0920	63.0910
 1.0910	63.0058
 1.0900	62.9952
 1.0890	63.0022
 1.0880	62.8915
 1.0870	62.8776
 1.0860	62.8164
 1.0850	62.8656
 1.0840	62.7253
 1.0830	62.8014
 1.0820	62.6035
 1.0810	62.6908
 1.0800	62.5511
 1.0790	62.5844
 1.0780	62.5647
 1.0770	62.5215
 1.0760	62.4636
 1.0750	62.4547
 1.0740	62.3823
 1.0730	62.3369
 1.0720	62.3321
 1.0710	62.3229
 1.0700	62.1633
 1.0690	62.1892
 1.0680	62.2249
 1.0670	62.1088
 1.0660	62.1942
 1.0650	62.0595
 1.0640	62.0249
 1.0630	62.0664
 1.0620	61.9038
 1.0610	61.9998
 1.0600	61.9502
 1.0590	62.0114
 1.0580	61.9666
 1.0570	61.8880
 1.0560	61.7714
 1.0550	61.7761
 1.0540	61.8016
 1.0530	61.7921
 1.0520	61.6978
 1.0510	61.6808
 1.0500	61.6882
 1.0490	61.7052
 1.0480	61.6548
 1.0470	61.6563
 1.0460	61.5408
 1.0450	61.5821
 1.0440	61.5449
 1.0430	61.5263
 1.0420	61.5414
 1.0410	61.5285
 1.0400	61.5105
 1.0390	61.5171
 1.0380	61.3338
 1.0370	61.3867
 1.0360	61.4034
 1.0350	61.3298
 1.0340	61.3548
 1.0330	61.3448
 1.0320	61.3413
 1.0310	61.2491
 1.0300	61.2807
 1.0290	61.3190
 1.0280	61.2340
 1.0270	61.2328
 1.0260	61.1789
 1.0250	61.2482
 1.0240	61.1881
 1.0230	61.1783
 1.0220	61.2108
 1.0210	61.2056
 1.0200	61.1260
 1.0190	61.1450
 1.0180	61.1073
 1.0170	61.1545
 1.0160	61.1071
 1.0150	61.1085
 1.0140	61.1210
 1.0130	61.1369
 1.0120	61.1229
 1.0110	61.0904
 1.0100	61.0163
 1.0090	60.9700
 1.0080	61.0188
 1.0070	60.9986
 1.0060	61.0094
 1.0050	61.0418
 1.0040	60.9624
 1.0030	60.9905
 1.0020	60.9706
 1.0010	61.0166
 1.0000	60.9688
 0.9990	60.9553
 0.9980	60.9193
 0.9970	60.9884
 0.9960	60.9528
 0.9950	60.8934
 0.9940	60.9204
 0.9930	60.9990
 0.9920	60.9494
 0.9910	60.9279
 0.9900	60.9130
 0.9890	60.9833
 0.9880	60.9135
 0.9870	60.9504
 0.9860	60.8707
 0.9850	60.9129
 0.9840	60.9329
 0.9830	60.9834
 0.9820	60.8715
 0.9810	60.8362
 0.9800	60.8662
 0.9790	60.8531
 0.9780	60.8402
 0.9770	60.9136
 0.9760	60.8658
 0.9750	60.8059
 0.9740	60.8272
 0.9730	60.9042
 0.9720	60.8446
 0.9710	60.8839
 0.9700	60.9028
 0.9690	60.8866
 0.9680	60.8475
 0.9670	60.8469
 0.9660	60.7966
 0.9650	60.8005
 0.9640	60.8052
 0.9630	60.8977
 0.9620	60.9064
 0.9610	60.8715
 0.9600	60.8358
 0.9590	60.8773
 0.9580	60.8579
 0.9570	60.8722
 0.9560	60.8625
 0.9550	60.8686
 0.9540	60.8836
 0.9530	60.9249
 0.9520	60.9250
 0.9510	60.8896
 0.9500	60.8559
 0.9490	60.9008
 0.9480	60.8571
 0.9470	60.8930
 0.9460	60.9387
 0.9450	60.9200
 0.9440	60.9291
 0.9430	60.9281
 0.9420	60.9506
 0.9410	60.9502
 0.9400	60.9003
 0.9390	60.9182
 0.9380	60.9236
 0.9370	60.9472
 0.9360	60.9725
 0.9350	60.9758
 0.9340	60.9936
 0.9330	60.9590
 0.9320	60.9202
 0.9310	60.9620
 0.9300	60.9585
 0.9290	60.9796
 0.9280	61.0444
 0.9270	61.0453
 0.9260	61.0488
 0.9250	61.0527
 0.9240	61.0348
 0.9230	61.0685
 0.9220	61.0580
 0.9210	61.0249
 0.9200	61.0479
 0.9190	61.0752
 0.9180	61.0723
 0.9170	61.0590
 0.9160	61.0770
 0.9150	61.0561
 0.9140	61.0832
 0.9130	61.1148
 0.9120	61.1293
 0.9110	61.1398
 0.9100	61.1556
 0.9090	61.0749
 0.9080	61.0969
 0.9070	61.0906
 0.9060	61.1305
 0.9050	61.1732
 0.9040	61.1641
 0.9030	61.1378
 0.9020	61.1345
 0.9010	61.1349
 0.9000	61.1496
 0.8990	61.1732
 0.8980	61.2289
 0.8970	61.2032
 0.8960	61.2164
 0.8950	61.2247
 0.8940	61.2428
 0.8930	61.2465
 0.8920	61.2449
 0.8910	61.2467
 0.8900	61.2462
 0.8890	61.2115
 0.8880	61.2697
 0.8870	61.2023
 0.8860	61.2058
 0.8850	61.2511
 0.8840	61.2818
 0.8830	61.2445
 0.8820	61.3065
 0.8810	61.3395
 0.8800	61.3005
 0.8790	61.2749
 0.8780	61.3244
 0.8770	61.2947
 0.8760	61.3649
 0.8750	61.3854
 0.8740	61.3611
 0.8730	61.2831
 0.8720	61.3313
 0.8710	61.3484
 0.8700	61.4167
 0.8690	61.3969
 0.8680	61.4007
 0.8670	61.3984
 0.8660	61.3832
 0.8650	61.3896
 0.8640	61.4217
 0.8630	61.3651
 0.8620	61.4571
 0.8610	61.5127
 0.8600	61.7029
 0.8590	61.9314
 0.8580	61.9445
 0.8570	61.8321
 0.8560	61.9484
 0.8550	62.0616
 0.8540	62.0075
 0.8530	62.0650
 0.8520	62.0453
 0.8510	61.9915
 0.8500	62.0554
 0.8490	62.0329
 0.8480	62.0298
 0.8470	62.0866
 0.8460	62.1594
 0.8450	62.1299
 0.8440	62.1397
 0.8430	62.1975
 0.8420	62.1921
 0.8410	62.2080
 0.8400	62.1931
 0.8390	62.1898
 0.8380	62.2180
 0.8370	62.3056
 0.8360	62.2794
 0.8350	62.2696
 0.8340	62.2844
 0.8330	62.3461
 0.8320	62.3374
 0.8310	62.3697
 0.8300	62.3576
 0.8290	62.3430
 0.8280	62.3958
 0.8270	62.4224
 0.8260	62.4616
 0.8250	62.4822
 0.8240	62.4612
 0.8230	62.4744
 0.8220	62.5100
 0.8210	62.5261
 0.8200	62.5634
 0.8190	62.5679
 0.8180	62.5729
 0.8170	62.5628
 0.8160	62.5925
 0.8150	62.6082
 0.8140	62.5882
 0.8130	62.6484
 0.8120	62.6534
 0.8110	62.6772
 0.8100	62.6794
 0.8090	62.6970
 0.8080	62.7062
 0.8070	62.7313
 0.8060	62.7337
 0.8050	62.7374
 0.8040	62.7317
 0.8030	62.7730
 0.8020	62.7524
 0.8010	62.8127
 0.8000	62.7910
 0.7990	62.7869
 0.7980	62.7664
 0.7970	62.8077
 0.7960	62.7871
 0.7950	62.8270
 0.7940	62.8635
 0.7930	62.8394
 0.7920	62.8653
 0.7910	62.9239
 0.7900	62.9003
 0.7890	62.8800
 0.7880	62.9632
 0.7870	62.9176
 0.7860	62.9519
 0.7850	62.9764
 0.7840	63.0129
 0.7830	62.9507
 0.7820	63.0066
 0.7810	62.9683
 0.7800	62.9750
 0.7790	63.0485
 0.7780	63.0228
 0.7770	63.0491
 0.7760	63.0136
 0.7750	63.0017
 0.7740	62.9947
 0.7730	62.9924
 0.7720	63.0157
 0.7710	63.0031
 0.7700	63.0092
 0.7690	62.9936
 0.7680	63.0371
 0.7670	62.9838
 0.7660	63.0282
 0.7650	63.0137
 0.7640	63.0254
 0.7630	63.0162
 0.7620	62.9656
 0.7610	62.9802
 0.7600	62.9808
 0.7590	62.9683
 0.7580	62.9641
 0.7570	62.9383
 0.7560	62.9253
 0.7550	62.9355
 0.7540	62.8941
 0.7530	62.8888
 0.7520	62.8881
 0.7510	62.8783
 0.7500	62.8583
 0.7490	62.8470
 0.7480	62.8436
 0.7470	62.8320
 0.7460	62.8055
 0.7450	62.7978
 0.7440	62.7632
 0.7430	62.7428
 0.7420	62.7193
 0.7410	62.7128
 0.7400	62.6749
 0.7390	62.6660
 0.7380	62.6314
 0.7370	62.6361
 0.7360	62.6248
 0.7350	62.5987
 0.7340	62.5652
 0.7330	62.5439
 0.7320	62.5123
 0.7310	62.4874
 0.7300	62.4638
 0.7290	62.4290
 0.7280	62.4018
 0.7270	62.3915
 0.7260	62.3308
 0.7250	62.3169
 0.7240	62.3068
 0.7230	62.2454
 0.7220	62.2044
 0.7210	62.1645
 0.7200	62.1310
 0.7190	62.0871
 0.7180	62.0675
 0.7170	62.0291
 0.7160	61.9635
 0.7150	61.9409
 0.7140	61.9056
 0.7130	61.8770
 0.7120	61.8393
 0.7110	61.7973
 0.7100	61.7722
 0.7090	61.7360
 0.7080	61.6960
 0.7070	61.6458
 0.7060	61.5987
 0.7050	61.5678
 0.7040	61.5021
 0.7030	61.4779
 0.7020	61.4409
 0.7010	61.3969
 0.7000	61.3590
 0.6990	61.3175
 0.6980	61.2652
 0.6970	61.2206
 0.6960	61.1725
 0.6950	61.1325
 0.6940	61.0863
 0.6930	61.0509
 0.6920	61.0139
 0.6910	60.9606
 0.6900	60.9082
 0.6890	60.8631
 0.6880	60.8266
 0.6870	60.7905
 0.6860	60.7637
 0.6850	60.7189
 0.6840	60.6678
 0.6830	60.6447
 0.6820	60.5983
 0.6810	60.5390
 0.6800	60.4980
 0.6790	60.4706
 0.6780	60.4250
 0.6770	60.3998
 0.6760	60.3711
 0.6750	60.3245
 0.6740	60.2680
 0.6730	60.2338
 0.6720	60.1774
 0.6710	60.1283
 0.6700	60.1037
 0.6690	60.0511
 0.6680	60.0123
 0.6670	59.9657
 0.6660	59.9297
 0.6650	59.8919
 0.6640	59.8634
 0.6630	59.8345
 0.6620	59.7926
 0.6610	59.7550
 0.6600	59.7253
 0.6590	59.6907
 0.6580	59.6512
 0.6570	59.6080
 0.6560	59.5574
 0.6550	59.5347
 0.6540	59.5095
 0.6530	59.4706
 0.6520	59.4485
 0.6510	59.4058
 0.6500	59.3755
 0.6490	59.3424
 0.6480	59.3061
 0.6470	59.2655
 0.6460	59.2283
 0.6450	59.1950
 0.6440	59.1486
 0.6430	59.1092
 0.6420	59.0794
 0.6410	59.0379
 0.6400	58.9891
 0.6390	58.9402
 0.6380	58.8796
 0.6370	58.8160
 0.6360	58.7449
 0.6350	58.6990
 0.6340	58.6541
 0.6330	58.6070
 0.6320	58.5621
 0.6310	58.5265
 0.6300	58.4850
 0.6290	58.4420
 0.6280	58.4090
 0.6270	58.3678
 0.6260	58.3331
 0.6250	58.3028
 0.6240	58.2619
 0.6230	58.2333
 0.6220	58.2113
 0.6210	58.1742
 0.6200	58.1459
 0.6190	58.1165
 0.6180	58.0790
 0.6170	58.0465
 0.6160	58.0185
 0.6150	57.9984
 0.6140	57.9708
 0.6130	57.9306
 0.6120	57.8871
 0.6110	57.8566
 0.6100	57.8302
 0.6090	57.7902
 0.6080	57.7470
 0.6070	57.7201
 0.6060	57.6844
 0.6050	57.6363
 0.6040	57.6004
 0.6030	57.5630
 0.6020	57.5161
 0.6010	57.4705
 0.6000	57.4187
 0.5990	57.3798
 0.5980	57.3545
 0.5970	57.3069
 0.5960	57.2640
 0.5950	57.2184
 0.5940	57.1671
 0.5930	57.0885
 0.5920	57.0294
 0.5910	56.9796
 0.5900	56.8969
 0.5890	56.8272
 0.5880	56.7565
 0.5870	56.6908
 0.5860	56.6217
 0.5850	56.5394
 0.5840	56.4744
 0.5830	56.4057
 0.5820	56.3375
 0.5810	56.2636
 0.5800	56.1914
 0.5790	56.1197
 0.5780	56.0366
 0.5770	55.9492
 0.5760	55.8551
 0.5750	55.7700
 0.5740	55.6705
 0.5730	55.5825
 0.5720	55.4800
 0.5710	55.3825
 0.5700	55.2952
 0.5690	55.2002
 0.5680	55.0795
 0.5670	54.9741
 0.5660	54.8650
 0.5650	54.7361
 0.5640	54.6173
 0.5630	54.4881
 0.5620	54.3608
 0.5610	54.2120
 0.5600	54.0762
 0.5590	53.9375
 0.5580	53.7994
 0.5570	53.6633
 0.5560	53.5263
 0.5550	53.3829
 0.5540	53.2400
 0.5530	53.0821
 0.5520	52.9406
 0.5510	52.7934
 0.5500	52.6408
 0.5490	52.4817
 0.5480	52.3376
 0.5470	52.1850
 0.5460	52.0290
 0.5450	51.8836
 0.5440	51.7218
 0.5430	51.5739
 0.5420	51.4131
 0.5410	51.2577
 0.5400	51.1003
 0.5390	50.9424
 0.5380	50.7820
 0.5370	50.6346
 0.5360	50.4796
 0.5350	50.3002
 0.5340	50.1521
 0.5330	49.9910
 0.5320	49.8373
 0.5310	49.6782
 0.5300	49.5281
 0.5290	49.3751
 0.5280	49.2206
 0.5270	49.0678
 0.5260	48.9209
 0.5250	48.7731
 0.5240	48.6261
 0.5230	48.4702
 0.5220	48.3349
 0.5210	48.1841
 0.5200	48.0415
 0.5190	47.8973
 0.5180	47.7562
 0.5170	47.6304
 0.5160	47.4912
 0.5150	47.3552
 0.5140	47.2141
 0.5130	47.0836
 0.5120	46.9530
 0.5110	46.8151
 0.5100	46.6855
 0.5090	46.5478
 0.5080	46.4198
 0.5070	46.2977
 0.5060	46.1594
 0.5050	46.0278
 0.5040	45.9222
 0.5030	45.7800
 0.5020	45.6688
 0.5010	45.5523
 0.5000	45.4207
 0.4990	45.3047
 0.4980	45.1766
 0.4970	45.0774
 0.4960	44.9397
 0.4950	44.8332
 0.4940	44.7310
 0.4930	44.5924
 0.4920	44.4910
 0.4910	44.3848
 0.4900	44.2831
 0.4890	44.1860
 0.4880	44.1012
 0.4870	44.0010
 0.4860	43.9187
 0.4850	43.8416
 0.4840	43.7313
 0.4830	43.6411
 0.4820	43.5766
 0.4810	43.5089
 0.4800	43.4515
 0.4790	43.3957
 0.4780	43.3369
 0.4770	43.2641
 0.4760	43.2073
 0.4750	43.1379
 0.4740	43.0756
 0.4730	42.9924
 0.4720	42.9278
 0.4710	42.8813
 0.4700	42.8245
 0.4690	42.7608
 0.4680	42.6899
 0.4670	42.6330
 0.4660	42.5731
 0.4650	42.5126
 0.4640	42.4536
 0.4630	42.3804
 0.4620	42.3104
 0.4610	42.2461
 0.4600	42.1911
 0.4590	42.1109
 0.4580	42.0512
 0.4570	41.9679
 0.4560	41.8841
 0.4550	41.8074
 0.4540	41.7223
 0.4530	41.6343
 0.4520	41.5486
 0.4510	41.4685
 0.4500	41.3806
 0.4490	41.2827
 0.4480	41.1888
 0.4470	41.0835
 0.4460	40.9714
 0.4450	40.8611
 0.4440	40.7554
 0.4430	40.6516
 0.4420	40.5389
 0.4410	40.4127
 0.4400	40.3014
 0.4390	40.1822
 0.4380	40.0685
 0.4370	39.9413
 0.4360	39.8194
 0.4350	39.6943
 0.4340	39.5585
 0.4330	39.4361
 0.4320	39.2904
 0.4310	39.1696
 0.4300	39.0363
 0.4290	38.9197
 0.4280	38.8071
 0.4270	38.6874
 0.4260	38.5695
 0.4250	38.4577
 0.4240	38.3534
 0.4230	38.2267
 0.4220	38.1171
 0.4210	38.0193
 0.4200	37.9235
 0.4190	37.8258
 0.4180	37.7161
 0.4170	37.6512
 0.4160	37.5484
 0.4150	37.4553
 0.4140	37.3477
 0.4130	37.2486
 0.4120	37.1511
 0.4110	37.0509
 0.4100	36.9561
 0.4090	36.8575
 0.4080	36.7583
 0.4070	36.6632
 0.4060	36.5539
 0.4050	36.4441
 0.4040	36.3521
 0.4030	36.2457
 0.4020	36.1380
 0.4010	36.0385
 0.4000	35.9281
