Name: Almandine Garnet Fe_3Al_2(SiO_4)_3
Type: Mineral
Class: Silicate
Subclass: Nesosilicate
Particle Size: Fine
Sample No.: NS-4A
Owner: JPL
Wavelength Range: VSWIR
Origin: USA, Arizona, Graham County, Stanley Butte
Collection Date: N/A
Description: Particle size was 0-45um.Collected by Burminco Original ASTER Spectral Library name was jpl.beckman.mineral.silicate.nesosilicate.fine.ns04a.spectrum.txt
Measurement: Hemispherical reflectance
First Column: X
Second Column: Y
X Units: Wavelength (micrometers)
Y Units:Reflectance (percent)
First X Value:  0.4000
Last X Value:  2.5000
Number of X Values: 826
Additional Information: mineral.silicate.nesosilicate.fine.vswir.ns-4a.jpl.beckman.ancillary.txt

 0.4000	30.8800
 0.4010	30.9200
 0.4020	31.0600
 0.4030	31.1600
 0.4040	31.2000
 0.4050	31.3400
 0.4060	31.4800
 0.4070	31.6200
 0.4080	31.6000
 0.4090	31.6800
 0.4100	31.6600
 0.4110	31.7200
 0.4120	31.8200
 0.4130	31.9500
 0.4140	32.0500
 0.4150	32.1300
 0.4160	32.2100
 0.4170	32.2700
 0.4180	32.3100
 0.4190	32.2900
 0.4200	32.4400
 0.4210	32.5500
 0.4220	32.4300
 0.4230	32.4700
 0.4240	32.5700
 0.4250	32.6100
 0.4260	32.6500
 0.4270	32.6300
 0.4280	32.8100
 0.4290	32.9300
 0.4300	33.0700
 0.4310	33.1200
 0.4320	33.0700
 0.4330	33.1000
 0.4340	33.1100
 0.4350	33.1500
 0.4360	33.3300
 0.4370	33.5000
 0.4380	33.5500
 0.4390	33.6500
 0.4400	33.7300
 0.4410	33.8100
 0.4420	33.8000
 0.4430	33.8400
 0.4440	33.9400
 0.4450	34.0300
 0.4460	34.0300
 0.4470	34.0600
 0.4480	34.0900
 0.4490	34.0600
 0.4500	34.0800
 0.4510	34.1600
 0.4520	34.2000
 0.4530	34.3100
 0.4540	34.4300
 0.4550	34.4300
 0.4560	34.3800
 0.4570	34.4000
 0.4580	34.3700
 0.4590	34.3500
 0.4600	34.3500
 0.4610	34.4800
 0.4620	34.4400
 0.4630	34.6700
 0.4640	34.6700
 0.4650	34.5700
 0.4660	34.5100
 0.4670	34.6700
 0.4680	34.6900
 0.4690	34.8100
 0.4700	34.9500
 0.4710	34.9400
 0.4720	34.9700
 0.4730	34.9900
 0.4740	34.9600
 0.4750	34.9200
 0.4760	34.8900
 0.4770	34.9700
 0.4780	34.9800
 0.4790	35.0900
 0.4800	35.0300
 0.4810	35.1000
 0.4820	35.1300
 0.4830	35.2400
 0.4840	35.2100
 0.4850	35.2500
 0.4860	35.2500
 0.4870	35.2500
 0.4880	35.2700
 0.4890	35.1300
 0.4900	35.2100
 0.4910	35.1800
 0.4920	35.2500
 0.4930	35.2900
 0.4940	35.3700
 0.4950	35.2500
 0.4960	35.2400
 0.4970	35.2300
 0.4980	35.2000
 0.4990	35.2100
 0.5000	35.3100
 0.5010	35.2300
 0.5020	35.3800
 0.5030	35.2800
 0.5040	35.2600
 0.5050	35.4100
 0.5060	35.4600
 0.5070	35.5100
 0.5080	35.5600
 0.5090	35.6900
 0.5100	35.7700
 0.5110	35.7700
 0.5120	35.7100
 0.5130	35.7900
 0.5140	35.9300
 0.5150	35.9900
 0.5160	36.0800
 0.5170	36.3000
 0.5180	36.2200
 0.5190	36.2100
 0.5200	36.2300
 0.5210	36.1900
 0.5220	36.1900
 0.5230	36.2900
 0.5240	36.2800
 0.5250	36.3800
 0.5260	36.4700
 0.5270	36.3700
 0.5280	36.5200
 0.5290	36.6000
 0.5300	36.6900
 0.5310	36.7200
 0.5320	36.8000
 0.5330	36.7600
 0.5340	36.8300
 0.5350	36.8300
 0.5360	36.8200
 0.5370	36.8700
 0.5380	36.9500
 0.5390	37.0900
 0.5400	37.2700
 0.5410	37.2100
 0.5420	37.2100
 0.5430	37.2200
 0.5440	37.1300
 0.5450	37.1400
 0.5460	37.2200
 0.5470	37.2100
 0.5480	37.2800
 0.5490	37.4600
 0.5500	37.4500
 0.5510	37.3600
 0.5520	37.4000
 0.5530	37.5600
 0.5540	37.6300
 0.5550	37.6400
 0.5560	37.6500
 0.5570	37.6700
 0.5580	37.5700
 0.5590	37.4900
 0.5600	37.4600
 0.5610	37.5600
 0.5620	37.6400
 0.5630	37.7200
 0.5640	37.7400
 0.5650	37.8200
 0.5660	37.8400
 0.5670	37.8700
 0.5680	37.8800
 0.5690	37.8400
 0.5700	37.8500
 0.5710	37.8700
 0.5720	37.8100
 0.5730	37.8200
 0.5740	37.8600
 0.5750	37.8300
 0.5760	37.7900
 0.5770	37.7000
 0.5780	37.7400
 0.5790	37.7700
 0.5800	37.8000
 0.5810	37.9400
 0.5820	37.9400
 0.5830	38.0500
 0.5840	38.0300
 0.5850	38.0700
 0.5860	37.9800
 0.5870	37.9200
 0.5880	37.9700
 0.5890	38.0900
 0.5900	38.1500
 0.5910	38.2100
 0.5920	38.3400
 0.5930	38.3600
 0.5940	38.3800
 0.5950	38.4400
 0.5960	38.4700
 0.5970	38.4600
 0.5980	38.5500
 0.5990	38.4700
 0.6000	38.4700
 0.6010	38.5100
 0.6020	38.5300
 0.6030	38.5000
 0.6040	38.4800
 0.6050	38.4800
 0.6060	38.6400
 0.6070	38.7100
 0.6080	38.7300
 0.6090	38.7700
 0.6100	38.7800
 0.6110	38.6400
 0.6120	38.5600
 0.6130	38.5500
 0.6140	38.5700
 0.6150	38.6700
 0.6160	38.6800
 0.6170	38.7800
 0.6180	38.8200
 0.6190	38.7500
 0.6200	38.8300
 0.6210	38.7600
 0.6220	38.8100
 0.6230	38.8400
 0.6240	38.9500
 0.6250	38.8600
 0.6260	38.9000
 0.6270	38.9000
 0.6280	38.8600
 0.6290	38.8700
 0.6300	38.8700
 0.6310	38.9200
 0.6320	39.0100
 0.6330	39.0600
 0.6340	39.0800
 0.6350	39.0400
 0.6360	38.9500
 0.6370	38.9000
 0.6380	38.9200
 0.6390	38.9300
 0.6400	39.0500
 0.6410	39.0800
 0.6420	39.1700
 0.6430	39.1900
 0.6440	39.1600
 0.6450	39.2100
 0.6460	39.2100
 0.6470	39.2200
 0.6480	39.2800
 0.6490	39.2900
 0.6500	39.3200
 0.6510	39.2800
 0.6520	39.1600
 0.6530	39.1700
 0.6540	39.1400
 0.6550	39.2300
 0.6560	39.2800
 0.6570	39.2200
 0.6580	39.3100
 0.6590	39.3000
 0.6600	39.2600
 0.6610	39.1600
 0.6620	39.0900
 0.6630	39.1100
 0.6640	39.2600
 0.6650	39.1900
 0.6660	39.2300
 0.6670	39.3000
 0.6680	39.3200
 0.6690	39.3200
 0.6700	39.2400
 0.6710	39.2300
 0.6720	39.3200
 0.6730	39.2700
 0.6740	39.2300
 0.6750	39.2400
 0.6760	39.2300
 0.6770	39.2500
 0.6780	39.2600
 0.6790	39.3100
 0.6800	39.3700
 0.6810	39.3700
 0.6820	39.2700
 0.6830	39.2600
 0.6840	39.3000
 0.6850	39.2000
 0.6860	39.1300
 0.6870	39.1100
 0.6880	39.2800
 0.6890	39.2400
 0.6900	39.3800
 0.6910	39.4800
 0.6920	39.3700
 0.6930	39.4100
 0.6940	39.4100
 0.6950	39.3900
 0.6960	39.3300
 0.6970	39.4600
 0.6980	39.3500
 0.6990	39.3800
 0.7000	39.3300
 0.7010	39.2800
 0.7020	39.3600
 0.7030	39.4400
 0.7040	39.2700
 0.7050	39.2600
 0.7060	39.3000
 0.7070	39.4200
 0.7080	39.4500
 0.7090	39.4300
 0.7100	39.5600
 0.7110	39.5800
 0.7120	39.4200
 0.7130	39.3300
 0.7140	39.3400
 0.7150	39.4200
 0.7160	39.3700
 0.7170	39.3900
 0.7180	39.5400
 0.7190	39.6200
 0.7200	39.6200
 0.7210	39.5900
 0.7220	39.5100
 0.7230	39.5700
 0.7240	39.6500
 0.7250	39.5200
 0.7260	39.5600
 0.7270	39.5400
 0.7280	39.5200
 0.7290	39.5400
 0.7300	39.5100
 0.7310	39.6200
 0.7320	39.7200
 0.7330	39.6700
 0.7340	39.7200
 0.7350	39.6700
 0.7360	39.6100
 0.7370	39.5800
 0.7380	39.5700
 0.7390	39.6800
 0.7400	39.6500
 0.7410	39.8000
 0.7420	39.7700
 0.7430	39.7700
 0.7440	39.8000
 0.7450	39.8100
 0.7460	39.7600
 0.7470	39.8200
 0.7480	39.8100
 0.7490	39.8300
 0.7500	39.8300
 0.7510	39.8100
 0.7520	39.8100
 0.7530	39.7200
 0.7540	39.8200
 0.7550	39.8100
 0.7560	39.8800
 0.7570	39.7800
 0.7580	39.8900
 0.7590	39.9100
 0.7600	39.8000
 0.7610	39.6900
 0.7620	39.6700
 0.7630	39.6900
 0.7640	39.8500
 0.7650	39.8100
 0.7660	39.9300
 0.7670	39.9300
 0.7680	39.9200
 0.7690	39.9200
 0.7700	39.9400
 0.7710	39.9100
 0.7720	39.9900
 0.7730	40.0900
 0.7740	39.9500
 0.7750	39.9400
 0.7760	40.0000
 0.7770	39.9100
 0.7780	39.9100
 0.7790	39.9500
 0.7800	40.1400
 0.7810	40.4700
 0.7820	40.3800
 0.7830	39.9600
 0.7840	40.1400
 0.7850	40.1200
 0.7860	40.0900
 0.7870	40.0600
 0.7880	39.9800
 0.7890	40.1300
 0.7900	40.1400
 0.7910	40.2300
 0.7920	40.2900
 0.7930	40.2700
 0.7940	40.2900
 0.7950	40.2500
 0.7960	40.2900
 0.7970	40.3100
 0.7980	40.4100
 0.7990	40.2200
 0.8000	40.4400
 0.8040	40.4400
 0.8080	40.5500
 0.8120	40.5100
 0.8160	40.4900
 0.8200	40.5300
 0.8240	40.5700
 0.8280	40.5500
 0.8320	40.4100
 0.8360	40.6200
 0.8400	40.5400
 0.8440	40.4500
 0.8480	40.5600
 0.8520	40.5100
 0.8560	40.4700
 0.8600	40.5400
 0.8640	40.5600
 0.8680	40.4900
 0.8720	40.4500
 0.8760	40.5200
 0.8800	40.4600
 0.8840	40.4100
 0.8880	40.4500
 0.8920	40.5200
 0.8960	40.4700
 0.9000	40.3700
 0.9040	40.5200
 0.9080	40.4300
 0.9120	40.4500
 0.9160	40.3600
 0.9200	40.4400
 0.9240	40.5200
 0.9280	40.4100
 0.9320	40.4000
 0.9360	40.4700
 0.9400	40.4300
 0.9440	40.4200
 0.9480	40.4000
 0.9520	40.5200
 0.9560	40.4700
 0.9600	40.4000
 0.9640	40.4600
 0.9680	40.4800
 0.9720	40.4200
 0.9760	40.3100
 0.9800	40.3200
 0.9840	40.3900
 0.9880	40.2800
 0.9920	40.1800
 0.9960	40.2800
 1.0000	40.2000
 1.0040	40.2500
 1.0080	40.1600
 1.0120	40.1800
 1.0160	40.1100
 1.0200	40.0300
 1.0240	40.0800
 1.0280	39.9600
 1.0320	39.8600
 1.0360	39.9300
 1.0400	39.9300
 1.0440	39.7400
 1.0480	39.7000
 1.0520	39.7300
 1.0560	39.6600
 1.0600	39.4900
 1.0640	39.5200
 1.0680	39.5000
 1.0720	39.3600
 1.0760	39.2800
 1.0800	39.2600
 1.0840	39.1400
 1.0880	39.1000
 1.0920	38.9900
 1.0960	38.9600
 1.1000	38.8900
 1.1040	38.7600
 1.1080	38.7600
 1.1120	38.5900
 1.1160	38.5000
 1.1200	38.5600
 1.1240	38.3600
 1.1280	38.1500
 1.1320	38.1500
 1.1360	38.0500
 1.1400	37.9000
 1.1440	37.7800
 1.1480	37.7500
 1.1520	37.5600
 1.1560	37.4700
 1.1600	37.4500
 1.1640	37.3300
 1.1680	37.1700
 1.1720	37.0600
 1.1760	37.0700
 1.1800	36.8800
 1.1840	36.7900
 1.1880	36.7500
 1.1920	36.5600
 1.1960	36.5100
 1.2000	36.5300
 1.2040	36.3300
 1.2080	36.2000
 1.2120	36.1300
 1.2160	36.1600
 1.2200	36.0000
 1.2240	35.9400
 1.2280	35.9800
 1.2320	35.9200
 1.2360	35.7800
 1.2400	35.8300
 1.2440	35.6900
 1.2480	35.6200
 1.2520	35.6800
 1.2560	35.6700
 1.2600	35.6200
 1.2640	35.5200
 1.2680	35.6100
 1.2720	35.5500
 1.2760	35.4900
 1.2800	35.4900
 1.2840	35.6000
 1.2880	35.4700
 1.2920	35.5200
 1.2960	35.5600
 1.3000	35.5700
 1.3040	35.5500
 1.3080	35.6400
 1.3120	35.7100
 1.3160	35.6700
 1.3200	35.7100
 1.3240	35.8100
 1.3280	35.7800
 1.3320	35.7700
 1.3360	35.9200
 1.3400	36.0200
 1.3440	36.0000
 1.3480	36.0900
 1.3520	36.2300
 1.3560	36.2000
 1.3600	36.2400
 1.3640	36.4400
 1.3680	36.4200
 1.3720	36.4800
 1.3760	36.6300
 1.3800	36.6600
 1.3840	36.6900
 1.3880	36.8100
 1.3920	36.9200
 1.3960	36.9000
 1.4000	36.9500
 1.4040	37.0700
 1.4080	37.0600
 1.4120	37.1000
 1.4160	37.1600
 1.4200	37.2800
 1.4240	37.3900
 1.4280	37.3300
 1.4320	37.5700
 1.4360	37.5200
 1.4400	37.5100
 1.4440	37.5300
 1.4480	37.6500
 1.4520	37.6800
 1.4560	37.6300
 1.4600	37.7500
 1.4640	37.7200
 1.4680	37.7200
 1.4720	37.7500
 1.4760	37.7900
 1.4800	37.7600
 1.4840	37.7400
 1.4880	37.8400
 1.4920	37.8500
 1.4960	37.7700
 1.5000	37.8600
 1.5040	37.8300
 1.5080	37.7800
 1.5120	37.8600
 1.5160	37.8500
 1.5200	37.8500
 1.5240	37.7600
 1.5280	37.8400
 1.5320	37.8000
 1.5360	37.6600
 1.5400	37.8000
 1.5440	37.8100
 1.5480	37.7000
 1.5520	37.6300
 1.5560	37.7300
 1.5600	37.7200
 1.5640	37.6100
 1.5680	37.6300
 1.5720	37.6700
 1.5760	37.6500
 1.5800	37.5400
 1.5840	37.5700
 1.5880	37.6300
 1.5920	37.4500
 1.5960	37.5700
 1.6000	37.5600
 1.6040	37.4800
 1.6080	37.5000
 1.6120	37.5100
 1.6160	37.5100
 1.6200	37.4200
 1.6240	37.4000
 1.6280	37.4200
 1.6320	37.3500
 1.6360	37.4300
 1.6400	37.3800
 1.6440	37.3900
 1.6480	37.4200
 1.6520	37.4100
 1.6560	37.3900
 1.6600	37.3700
 1.6640	37.4600
 1.6680	37.4800
 1.6720	37.3900
 1.6760	37.4000
 1.6800	37.3800
 1.6840	37.3400
 1.6880	37.3800
 1.6920	37.4200
 1.6960	37.4500
 1.7000	37.4100
 1.7040	37.4400
 1.7080	37.5600
 1.7120	37.4000
 1.7160	37.5000
 1.7200	37.5700
 1.7240	37.5300
 1.7280	37.5100
 1.7320	37.5800
 1.7360	37.5100
 1.7400	37.5500
 1.7440	37.5100
 1.7480	37.5500
 1.7520	37.5500
 1.7560	37.5700
 1.7600	37.5900
 1.7640	37.5000
 1.7680	37.6400
 1.7720	37.6700
 1.7760	37.5800
 1.7800	37.7200
 1.7840	37.7800
 1.7880	37.7100
 1.7920	37.8200
 1.7960	37.8500
 1.8000	37.8200
 1.8040	37.7800
 1.8080	37.9300
 1.8120	37.9100
 1.8160	37.8500
 1.8200	37.9200
 1.8240	37.9700
 1.8280	37.8800
 1.8320	37.9800
 1.8360	37.9800
 1.8400	37.9200
 1.8440	37.9400
 1.8480	38.0400
 1.8520	37.9700
 1.8560	37.9900
 1.8600	38.1000
 1.8640	38.1700
 1.8680	37.9800
 1.8720	37.9900
 1.8760	38.1000
 1.8800	38.0100
 1.8840	38.0100
 1.8880	38.1000
 1.8920	38.1600
 1.8960	38.0400
 1.9000	38.0700
 1.9040	38.1300
 1.9080	38.1100
 1.9120	38.1100
 1.9160	38.0900
 1.9200	38.0800
 1.9240	38.0300
 1.9280	38.1500
 1.9320	38.1800
 1.9360	38.0700
 1.9400	38.1300
 1.9440	38.1100
 1.9480	38.0100
 1.9520	38.1000
 1.9560	38.1600
 1.9600	38.1700
 1.9640	38.1500
 1.9680	38.1200
 1.9720	38.2400
 1.9760	38.1600
 1.9800	38.2200
 1.9840	38.2300
 1.9880	38.1700
 1.9920	38.2400
 1.9960	38.3300
 2.0000	38.3000
 2.0040	38.2500
 2.0080	38.3000
 2.0120	38.3000
 2.0160	38.2400
 2.0200	38.3300
 2.0240	38.3400
 2.0280	38.2300
 2.0320	38.3100
 2.0360	38.3900
 2.0400	38.2900
 2.0440	38.2600
 2.0480	38.2800
 2.0520	38.3500
 2.0560	38.2100
 2.0600	38.2300
 2.0640	38.2700
 2.0680	38.2500
 2.0720	38.2700
 2.0760	38.2500
 2.0800	38.2800
 2.0840	38.2600
 2.0880	38.2000
 2.0920	38.2500
 2.0960	38.3000
 2.1000	38.2200
 2.1040	38.2500
 2.1080	38.2800
 2.1120	38.3400
 2.1160	38.2700
 2.1200	38.3000
 2.1240	38.3200
 2.1280	38.2200
 2.1320	38.2300
 2.1360	38.2100
 2.1400	38.0900
 2.1440	38.1300
 2.1480	38.0600
 2.1520	37.9500
 2.1560	38.0100
 2.1600	38.0000
 2.1640	37.8800
 2.1680	37.8800
 2.1720	37.8700
 2.1760	37.8700
 2.1800	37.8100
 2.1840	37.8200
 2.1880	37.7800
 2.1920	37.7200
 2.1960	37.7900
 2.2000	37.8000
 2.2040	37.6900
 2.2080	37.6900
 2.2120	37.7300
 2.2160	37.6400
 2.2200	37.7000
 2.2240	37.7300
 2.2280	37.6700
 2.2320	37.6600
 2.2360	37.7200
 2.2400	37.6200
 2.2440	37.6500
 2.2480	37.6900
 2.2520	37.7000
 2.2560	37.5400
 2.2600	37.6800
 2.2640	37.6500
 2.2680	37.6000
 2.2720	37.6900
 2.2760	37.6500
 2.2800	37.6000
 2.2840	37.6900
 2.2880	37.6500
 2.2920	37.6400
 2.2960	37.7000
 2.3000	37.6500
 2.3040	37.7200
 2.3080	37.6500
 2.3120	37.8100
 2.3160	37.8200
 2.3200	37.7500
 2.3240	37.8200
 2.3280	37.8400
 2.3320	37.7600
 2.3360	37.7800
 2.3400	37.7800
 2.3440	37.9000
 2.3480	37.7600
 2.3520	37.8400
 2.3560	37.8500
 2.3600	37.8700
 2.3640	37.8400
 2.3680	37.8500
 2.3720	37.8800
 2.3760	37.9100
 2.3800	37.8700
 2.3840	37.9400
 2.3880	37.9800
 2.3920	37.9600
 2.3960	37.8900
 2.4000	37.9700
 2.4040	38.0300
 2.4080	38.0100
 2.4120	38.0000
 2.4160	38.0600
 2.4200	38.1700
 2.4240	38.0900
 2.4280	38.1000
 2.4320	38.1400
 2.4360	38.1100
 2.4400	38.0800
 2.4440	38.0600
 2.4480	38.1400
 2.4520	38.2000
 2.4560	38.1500
 2.4600	38.1900
 2.4640	38.2900
 2.4680	38.3000
 2.4720	38.1800
 2.4760	38.2100
 2.4800	38.4000
 2.4840	38.4300
 2.4880	38.3900
 2.4920	38.4300
 2.4960	38.5000
 2.5000	38.5500
