Name: Dolomite CaMg(CO_3)_2
Type: Mineral
Class: Carbonate
Subclass: None
Particle Size: Coarse
Sample No.: C-5C
Owner: JPL
Wavelength Range: VSWIR
Origin: USA, California, Los Angeles County, Palos Verdes.
Collection Date: N/A
Description: Particle size was 125-500um.Collected by:  Burminco Original ASTER Spectral Library name was jpl.perkin.mineral.carbonate.none.coarse.c05c.spectrum.txt
Measurement: Hemispherical reflectance
First Column: X
Second Column: Y
X Units: Wavelength (micrometers)
Y Units:Reflectance (percent)
First X Value:  2.5000
Last X Value:  0.4000
Number of X Values: 2101
Additional Information: mineral.carbonate.none.coarse.vswir.c-5c.jpl.perkin.ancillary.txt

 2.5000	26.1086
 2.4990	26.1245
 2.4980	26.5253
 2.4970	26.8979
 2.4960	26.6637
 2.4950	27.3331
 2.4940	27.3467
 2.4930	27.7068
 2.4920	27.9698
 2.4910	28.2250
 2.4900	28.3874
 2.4890	28.8567
 2.4880	29.0436
 2.4870	29.4802
 2.4860	29.5848
 2.4850	30.0844
 2.4840	30.2983
 2.4830	30.5683
 2.4820	30.7468
 2.4810	31.0921
 2.4800	31.2946
 2.4790	31.6217
 2.4780	31.7990
 2.4770	32.1409
 2.4760	32.3460
 2.4750	32.6070
 2.4740	32.6251
 2.4730	32.8775
 2.4720	32.9348
 2.4710	33.2569
 2.4700	33.3537
 2.4690	33.4380
 2.4680	33.5042
 2.4670	33.8187
 2.4660	33.8534
 2.4650	34.0740
 2.4640	34.1608
 2.4630	34.2847
 2.4620	34.4163
 2.4610	34.7123
 2.4600	34.7990
 2.4590	34.9836
 2.4580	35.2358
 2.4570	35.4796
 2.4560	35.6191
 2.4550	36.0226
 2.4540	36.2203
 2.4530	36.6091
 2.4520	36.8812
 2.4510	37.2808
 2.4500	37.6160
 2.4490	38.0968
 2.4480	38.4020
 2.4470	38.7874
 2.4460	39.1851
 2.4450	39.7531
 2.4440	40.1285
 2.4430	40.5864
 2.4420	40.9946
 2.4410	41.6506
 2.4400	42.0614
 2.4390	42.5322
 2.4380	43.0304
 2.4370	43.5153
 2.4360	43.9652
 2.4350	44.5848
 2.4340	45.0149
 2.4330	45.5779
 2.4320	46.0318
 2.4310	46.5317
 2.4300	47.0281
 2.4290	47.5144
 2.4280	48.1310
 2.4270	48.6560
 2.4260	49.0693
 2.4250	49.6288
 2.4240	50.0649
 2.4230	50.5916
 2.4220	50.9985
 2.4210	51.4779
 2.4200	52.0207
 2.4190	52.4968
 2.4180	52.9359
 2.4170	53.3390
 2.4160	53.8216
 2.4150	54.1647
 2.4140	54.5864
 2.4130	54.9740
 2.4120	55.3131
 2.4110	55.6491
 2.4100	56.0179
 2.4090	56.2928
 2.4080	56.5551
 2.4070	56.8735
 2.4060	57.1175
 2.4050	57.4482
 2.4040	57.7461
 2.4030	57.9163
 2.4020	58.1842
 2.4010	58.4035
 2.4000	58.5970
 2.3990	58.8403
 2.3980	59.0730
 2.3970	59.3774
 2.3960	59.5703
 2.3950	59.7910
 2.3940	60.0403
 2.3930	60.2647
 2.3920	60.4500
 2.3910	60.6724
 2.3900	60.9124
 2.3890	61.1467
 2.3880	61.3127
 2.3870	61.4976
 2.3860	61.7764
 2.3850	62.0016
 2.3840	62.1197
 2.3830	62.3412
 2.3820	62.5634
 2.3810	62.7873
 2.3800	62.9369
 2.3790	63.1004
 2.3780	63.2368
 2.3770	63.4259
 2.3760	63.6020
 2.3750	63.7102
 2.3740	63.8892
 2.3730	64.1200
 2.3720	64.2445
 2.3710	64.3342
 2.3700	64.4498
 2.3690	64.5291
 2.3680	64.5091
 2.3670	64.4779
 2.3660	64.4334
 2.3650	64.3008
 2.3640	64.1987
 2.3630	64.1118
 2.3620	63.9885
 2.3610	63.7955
 2.3600	63.5096
 2.3590	63.1712
 2.3580	62.7695
 2.3570	62.3702
 2.3560	61.9520
 2.3550	61.4524
 2.3540	60.8961
 2.3530	60.2686
 2.3520	59.6507
 2.3510	58.9500
 2.3500	58.2060
 2.3490	57.4405
 2.3480	56.6041
 2.3470	55.7685
 2.3460	54.9190
 2.3450	54.0091
 2.3440	53.0774
 2.3430	52.1881
 2.3420	51.2363
 2.3410	50.2621
 2.3400	49.3153
 2.3390	48.3717
 2.3380	47.5058
 2.3370	46.6654
 2.3360	45.8029
 2.3350	44.9798
 2.3340	44.1787
 2.3330	43.4264
 2.3320	42.7615
 2.3310	42.1273
 2.3300	41.5172
 2.3290	40.9487
 2.3280	40.4491
 2.3270	40.0722
 2.3260	39.7193
 2.3250	39.3034
 2.3240	39.0165
 2.3230	38.7637
 2.3220	38.5767
 2.3210	38.4400
 2.3200	38.2711
 2.3190	38.1865
 2.3180	38.2139
 2.3170	38.1949
 2.3160	38.1709
 2.3150	38.1845
 2.3140	38.3293
 2.3130	38.4094
 2.3120	38.5435
 2.3110	38.6713
 2.3100	38.7742
 2.3090	38.9486
 2.3080	39.1269
 2.3070	39.3098
 2.3060	39.4827
 2.3050	39.6760
 2.3040	39.9272
 2.3030	40.1033
 2.3020	40.3396
 2.3010	40.5428
 2.3000	40.8210
 2.2990	40.9935
 2.2980	41.1863
 2.2970	41.4295
 2.2960	41.7763
 2.2950	41.9743
 2.2940	42.1552
 2.2930	42.4127
 2.2920	42.6299
 2.2910	42.8676
 2.2900	43.1036
 2.2890	43.3077
 2.2880	43.5419
 2.2870	43.7124
 2.2860	43.9112
 2.2850	44.1097
 2.2840	44.3025
 2.2830	44.5046
 2.2820	44.6345
 2.2810	44.7583
 2.2800	44.9660
 2.2790	45.0964
 2.2780	45.3038
 2.2770	45.4264
 2.2760	45.5408
 2.2750	45.6873
 2.2740	45.8864
 2.2730	45.9999
 2.2720	46.1959
 2.2710	46.3144
 2.2700	46.5249
 2.2690	46.7478
 2.2680	47.0009
 2.2670	47.1731
 2.2660	47.4419
 2.2650	47.6640
 2.2640	48.0700
 2.2630	48.3951
 2.2620	48.7660
 2.2610	49.0694
 2.2600	49.5204
 2.2590	49.9003
 2.2580	50.3247
 2.2570	50.6517
 2.2560	51.1689
 2.2550	51.6503
 2.2540	52.1309
 2.2530	52.5296
 2.2520	53.1252
 2.2510	53.5008
 2.2500	53.9793
 2.2490	54.5380
 2.2480	54.9915
 2.2470	55.4658
 2.2460	55.8223
 2.2450	56.3985
 2.2440	56.8426
 2.2430	57.2680
 2.2420	57.7038
 2.2410	58.1330
 2.2400	58.5706
 2.2390	58.9717
 2.2380	59.3292
 2.2370	59.6764
 2.2360	60.1126
 2.2350	60.4222
 2.2340	60.7640
 2.2330	61.1428
 2.2320	61.4525
 2.2310	61.7139
 2.2300	62.1098
 2.2290	62.3270
 2.2280	62.6641
 2.2270	62.8829
 2.2260	63.1460
 2.2250	63.4075
 2.2240	63.7396
 2.2230	63.9124
 2.2220	64.1239
 2.2210	64.3967
 2.2200	64.7110
 2.2190	64.9287
 2.2180	65.1831
 2.2170	65.3836
 2.2160	65.6699
 2.2150	65.8644
 2.2140	66.1595
 2.2130	66.4371
 2.2120	66.6996
 2.2110	66.8332
 2.2100	67.2111
 2.2090	67.5240
 2.2080	67.7234
 2.2070	67.9291
 2.2060	68.3059
 2.2050	68.5430
 2.2040	68.8657
 2.2030	69.1115
 2.2020	69.4376
 2.2010	69.5635
 2.2000	69.9097
 2.1990	70.1936
 2.1980	70.4224
 2.1970	70.5699
 2.1960	70.8292
 2.1950	70.9908
 2.1940	71.1734
 2.1930	71.4530
 2.1920	71.6204
 2.1910	71.8300
 2.1900	72.0223
 2.1890	72.2614
 2.1880	72.4002
 2.1870	72.5822
 2.1860	72.7361
 2.1850	72.9183
 2.1840	72.9937
 2.1830	73.1958
 2.1820	73.3176
 2.1810	73.4031
 2.1800	73.5486
 2.1790	73.6306
 2.1780	73.7357
 2.1770	73.8577
 2.1760	73.9012
 2.1750	73.9494
 2.1740	74.0589
 2.1730	74.0140
 2.1720	74.0774
 2.1710	74.1532
 2.1700	74.2968
 2.1690	74.2852
 2.1680	74.2358
 2.1670	74.2412
 2.1660	74.2622
 2.1650	74.2463
 2.1640	74.2434
 2.1630	74.1907
 2.1620	74.2050
 2.1610	74.1356
 2.1600	74.0615
 2.1590	74.0862
 2.1580	73.9311
 2.1570	73.8023
 2.1560	73.7640
 2.1550	73.5779
 2.1540	73.4775
 2.1530	73.4149
 2.1520	73.3704
 2.1510	73.2315
 2.1500	73.1625
 2.1490	73.0528
 2.1480	72.9412
 2.1470	72.7935
 2.1460	72.6828
 2.1450	72.6104
 2.1440	72.5354
 2.1430	72.4762
 2.1420	72.4507
 2.1410	72.4452
 2.1400	72.3443
 2.1390	72.3460
 2.1380	72.4044
 2.1370	72.4551
 2.1360	72.5378
 2.1350	72.5324
 2.1340	72.6034
 2.1330	72.6925
 2.1320	72.7974
 2.1310	72.8078
 2.1300	72.8742
 2.1290	73.0287
 2.1280	73.1615
 2.1270	73.2608
 2.1260	73.4492
 2.1250	73.5928
 2.1240	73.6002
 2.1230	73.7362
 2.1220	73.8606
 2.1210	74.0085
 2.1200	74.1070
 2.1190	74.2455
 2.1180	74.3767
 2.1170	74.4670
 2.1160	74.5793
 2.1150	74.6710
 2.1140	74.6789
 2.1130	74.8184
 2.1120	74.9136
 2.1110	74.9521
 2.1100	75.0435
 2.1090	75.1030
 2.1080	75.2176
 2.1070	75.2844
 2.1060	75.3314
 2.1050	75.2994
 2.1040	75.3321
 2.1030	75.4284
 2.1020	75.4674
 2.1010	75.4993
 2.1000	75.5540
 2.0990	75.6343
 2.0980	75.6706
 2.0970	75.7154
 2.0960	75.7417
 2.0950	75.8444
 2.0940	75.8911
 2.0930	75.9456
 2.0920	76.0206
 2.0910	76.1310
 2.0900	76.1697
 2.0890	76.2053
 2.0880	76.3358
 2.0870	76.4492
 2.0860	76.5169
 2.0850	76.6110
 2.0840	76.6508
 2.0830	76.6634
 2.0820	76.7622
 2.0810	76.8998
 2.0800	77.0252
 2.0790	77.0644
 2.0780	77.1072
 2.0770	77.1630
 2.0760	77.2405
 2.0750	77.3567
 2.0740	77.3982
 2.0730	77.4163
 2.0720	77.5076
 2.0710	77.5167
 2.0700	77.5658
 2.0690	77.6601
 2.0680	77.7643
 2.0670	77.8265
 2.0660	77.8368
 2.0650	77.9001
 2.0640	77.9281
 2.0630	77.9158
 2.0620	77.9931
 2.0610	78.0618
 2.0600	78.0906
 2.0590	78.1193
 2.0580	78.1484
 2.0570	78.1696
 2.0560	78.1487
 2.0550	78.2416
 2.0540	78.3141
 2.0530	78.3271
 2.0520	78.3176
 2.0510	78.3134
 2.0500	78.3027
 2.0490	78.3066
 2.0480	78.3221
 2.0470	78.3424
 2.0460	78.3892
 2.0450	78.3129
 2.0440	78.2968
 2.0430	78.3652
 2.0420	78.3417
 2.0410	78.3977
 2.0400	78.3873
 2.0390	78.3572
 2.0380	78.3776
 2.0370	78.2950
 2.0360	78.2665
 2.0350	78.3240
 2.0340	78.2763
 2.0330	78.2646
 2.0320	78.2521
 2.0310	78.2441
 2.0300	78.1792
 2.0290	78.1782
 2.0280	78.1610
 2.0270	78.1203
 2.0260	78.0609
 2.0250	78.0647
 2.0240	77.9981
 2.0230	77.9417
 2.0220	77.9487
 2.0210	77.8918
 2.0200	77.7911
 2.0190	77.7937
 2.0180	77.7844
 2.0170	77.7410
 2.0160	77.6737
 2.0150	77.6192
 2.0140	77.6143
 2.0130	77.4284
 2.0120	77.3629
 2.0110	77.3094
 2.0100	77.1538
 2.0090	77.0189
 2.0080	76.9379
 2.0070	76.8506
 2.0060	76.6860
 2.0050	76.5267
 2.0040	76.4200
 2.0030	76.2365
 2.0020	76.0540
 2.0010	75.8642
 2.0000	75.7300
 1.9990	75.5632
 1.9980	75.2554
 1.9970	74.9908
 1.9960	74.7391
 1.9950	74.4982
 1.9940	74.2236
 1.9930	73.9071
 1.9920	73.6493
 1.9910	73.2948
 1.9900	73.0086
 1.9890	72.8100
 1.9880	72.6583
 1.9870	72.4667
 1.9860	72.2101
 1.9850	72.0341
 1.9840	71.9550
 1.9830	71.8147
 1.9820	71.7712
 1.9810	71.7502
 1.9800	71.8012
 1.9790	71.8166
 1.9780	71.8755
 1.9770	71.9154
 1.9760	71.8936
 1.9750	72.0849
 1.9740	72.1589
 1.9730	72.2406
 1.9720	72.3352
 1.9710	72.5009
 1.9700	72.6019
 1.9690	72.6996
 1.9680	72.9588
 1.9670	72.9563
 1.9660	73.0634
 1.9650	73.2045
 1.9640	73.3258
 1.9630	73.4895
 1.9620	73.6009
 1.9610	73.6528
 1.9600	73.7512
 1.9590	73.9074
 1.9580	73.9752
 1.9570	74.0451
 1.9560	74.1086
 1.9550	74.2570
 1.9540	74.3168
 1.9530	74.3621
 1.9520	74.3815
 1.9510	74.4050
 1.9500	74.5560
 1.9490	74.5306
 1.9480	74.6248
 1.9470	74.6830
 1.9460	74.7495
 1.9450	74.8041
 1.9440	74.7481
 1.9430	74.8741
 1.9420	74.9275
 1.9410	74.9330
 1.9400	75.0913
 1.9390	75.2423
 1.9380	75.3258
 1.9370	75.3513
 1.9360	75.5217
 1.9350	75.6208
 1.9340	75.7887
 1.9330	75.8969
 1.9320	76.0221
 1.9310	76.0339
 1.9300	76.3027
 1.9290	76.4314
 1.9280	76.5268
 1.9270	76.7100
 1.9260	76.6909
 1.9250	76.9575
 1.9240	77.1294
 1.9230	77.2256
 1.9220	77.3570
 1.9210	77.5244
 1.9200	77.5842
 1.9190	77.7551
 1.9180	77.9069
 1.9170	78.0476
 1.9160	78.1012
 1.9150	78.3055
 1.9140	78.4561
 1.9130	78.5637
 1.9120	78.6480
 1.9110	78.7980
 1.9100	79.0113
 1.9090	79.0424
 1.9080	79.1722
 1.9070	79.2526
 1.9060	79.3896
 1.9050	79.5206
 1.9040	79.7293
 1.9030	79.8379
 1.9020	80.0031
 1.9010	80.0795
 1.9000	80.1859
 1.8990	80.4050
 1.8980	80.5169
 1.8970	80.7323
 1.8960	80.8316
 1.8950	80.9517
 1.8940	81.1366
 1.8930	81.2193
 1.8920	81.2053
 1.8910	81.3959
 1.8900	81.5039
 1.8890	81.5443
 1.8880	81.6986
 1.8870	81.6785
 1.8860	81.7472
 1.8850	81.7716
 1.8840	81.7362
 1.8830	81.7223
 1.8820	81.5643
 1.8810	81.5699
 1.8800	81.4952
 1.8790	81.4109
 1.8780	81.2800
 1.8770	81.0345
 1.8760	80.8631
 1.8750	80.5736
 1.8740	80.2263
 1.8730	79.8671
 1.8720	79.3786
 1.8710	78.9230
 1.8700	78.4162
 1.8690	78.0741
 1.8680	77.6191
 1.8670	77.2580
 1.8660	76.9996
 1.8650	76.7421
 1.8640	76.5196
 1.8630	76.3198
 1.8620	76.2970
 1.8610	76.2538
 1.8600	76.3142
 1.8590	76.3263
 1.8580	76.4494
 1.8570	76.5896
 1.8560	76.8322
 1.8550	76.9505
 1.8540	77.0663
 1.8530	77.3481
 1.8520	77.5638
 1.8510	77.7514
 1.8500	77.9556
 1.8490	78.2361
 1.8480	78.4403
 1.8470	78.6356
 1.8460	78.7786
 1.8450	78.9685
 1.8440	79.1487
 1.8430	79.2799
 1.8420	79.4641
 1.8410	79.6190
 1.8400	79.8344
 1.8390	79.9652
 1.8380	80.0502
 1.8370	80.2708
 1.8360	80.4225
 1.8350	80.5449
 1.8340	80.6069
 1.8330	80.6685
 1.8320	80.8424
 1.8310	80.9517
 1.8300	80.9933
 1.8290	81.0867
 1.8280	81.2148
 1.8270	81.2339
 1.8260	81.3359
 1.8250	81.4021
 1.8240	81.4469
 1.8230	81.5534
 1.8220	81.6429
 1.8210	81.8095
 1.8200	81.8593
 1.8190	81.9535
 1.8180	82.1147
 1.8170	82.2521
 1.8160	82.3298
 1.8150	82.4587
 1.8140	82.6187
 1.8130	82.6842
 1.8120	82.7354
 1.8110	82.8722
 1.8100	83.0547
 1.8090	83.1790
 1.8080	83.2533
 1.8070	83.3899
 1.8060	83.4872
 1.8050	83.5693
 1.8040	83.6516
 1.8030	83.8110
 1.8020	83.8799
 1.8010	83.9249
 1.8000	84.0033
 1.7990	84.0634
 1.7980	84.1163
 1.7970	84.1807
 1.7960	84.3035
 1.7950	84.3726
 1.7940	84.4133
 1.7930	84.4989
 1.7920	84.5743
 1.7910	84.6313
 1.7900	84.6544
 1.7890	84.6581
 1.7880	84.7441
 1.7870	84.7804
 1.7860	84.8287
 1.7850	84.8716
 1.7840	84.8614
 1.7830	84.9071
 1.7820	84.9810
 1.7810	85.0068
 1.7800	85.0797
 1.7790	85.0782
 1.7780	85.1351
 1.7770	85.1963
 1.7760	85.1822
 1.7750	85.2009
 1.7740	85.2435
 1.7730	85.2588
 1.7720	85.2954
 1.7710	85.3724
 1.7700	85.3773
 1.7690	85.3100
 1.7680	85.3272
 1.7670	85.3507
 1.7660	85.3767
 1.7650	85.3839
 1.7640	85.2907
 1.7630	85.2762
 1.7620	85.3438
 1.7610	85.3602
 1.7600	85.2712
 1.7590	85.2351
 1.7580	85.2047
 1.7570	85.1540
 1.7560	85.0459
 1.7550	84.9609
 1.7540	84.8987
 1.7530	84.8794
 1.7520	84.8141
 1.7510	84.6792
 1.7500	84.5921
 1.7490	84.4786
 1.7480	84.4695
 1.7470	84.4999
 1.7460	84.3917
 1.7450	84.3640
 1.7440	84.3783
 1.7430	84.3277
 1.7420	84.3414
 1.7410	84.3611
 1.7400	84.3581
 1.7390	84.3380
 1.7380	84.3580
 1.7370	84.3572
 1.7360	84.3910
 1.7350	84.4314
 1.7340	84.4668
 1.7330	84.4890
 1.7320	84.5163
 1.7310	84.4027
 1.7300	84.4283
 1.7290	84.4371
 1.7280	84.4762
 1.7270	84.5316
 1.7260	84.5508
 1.7250	84.6079
 1.7240	84.6391
 1.7230	84.6263
 1.7220	84.6202
 1.7210	84.6397
 1.7200	84.6665
 1.7190	84.7624
 1.7180	84.7424
 1.7170	84.6293
 1.7160	84.6596
 1.7150	84.7816
 1.7140	84.6972
 1.7130	84.7558
 1.7120	84.8214
 1.7110	84.8499
 1.7100	84.8141
 1.7090	84.8572
 1.7080	84.8714
 1.7070	84.9485
 1.7060	84.9173
 1.7050	84.9559
 1.7040	84.9593
 1.7030	85.0812
 1.7020	85.0428
 1.7010	85.0122
 1.7000	85.0650
 1.6990	85.1376
 1.6980	85.1318
 1.6970	85.2050
 1.6960	85.2766
 1.6950	85.2553
 1.6940	85.3032
 1.6930	85.3261
 1.6920	85.4280
 1.6910	85.4402
 1.6900	85.4318
 1.6890	85.4809
 1.6880	85.5324
 1.6870	85.5804
 1.6860	85.6362
 1.6850	85.6606
 1.6840	85.6749
 1.6830	85.7179
 1.6820	85.7499
 1.6810	85.7736
 1.6800	85.8016
 1.6790	85.8618
 1.6780	85.8834
 1.6770	85.9398
 1.6760	85.9516
 1.6750	85.9782
 1.6740	86.0567
 1.6730	86.0749
 1.6720	86.0515
 1.6710	86.1345
 1.6700	86.1412
 1.6690	86.1848
 1.6680	86.1775
 1.6670	86.2354
 1.6660	86.2029
 1.6650	86.2282
 1.6640	86.3206
 1.6630	86.2798
 1.6620	86.3277
 1.6610	86.2971
 1.6600	86.3452
 1.6590	86.3376
 1.6580	86.3403
 1.6570	86.2625
 1.6560	86.3019
 1.6550	86.4335
 1.6540	86.3765
 1.6530	86.4369
 1.6520	86.2999
 1.6510	86.2949
 1.6500	86.3642
 1.6490	86.3934
 1.6480	86.3693
 1.6470	86.3143
 1.6460	86.3138
 1.6450	86.3170
 1.6440	86.3887
 1.6430	86.2796
 1.6420	86.3512
 1.6410	86.3460
 1.6400	86.3472
 1.6390	86.3786
 1.6380	86.3218
 1.6370	86.3288
 1.6360	86.3863
 1.6350	86.3551
 1.6340	86.3968
 1.6330	86.3461
 1.6320	86.3936
 1.6310	86.4502
 1.6300	86.4289
 1.6290	86.4233
 1.6280	86.4946
 1.6270	86.5305
 1.6260	86.5328
 1.6250	86.5854
 1.6240	86.6644
 1.6230	86.5814
 1.6220	86.5713
 1.6210	86.6126
 1.6200	86.7465
 1.6190	86.6796
 1.6180	86.6043
 1.6170	86.6889
 1.6160	86.6803
 1.6150	86.7800
 1.6140	86.6408
 1.6130	86.7763
 1.6120	86.7583
 1.6110	86.7253
 1.6100	86.7299
 1.6090	86.7413
 1.6080	86.7516
 1.6070	86.7398
 1.6060	86.7273
 1.6050	86.7790
 1.6040	86.8262
 1.6030	86.8201
 1.6020	86.8326
 1.6010	86.7833
 1.6000	86.8838
 1.5990	86.8714
 1.5980	86.8782
 1.5970	86.8873
 1.5960	86.8713
 1.5950	86.8508
 1.5940	86.8326
 1.5930	86.8529
 1.5920	86.9106
 1.5910	86.8488
 1.5900	86.8858
 1.5890	86.8965
 1.5880	86.8591
 1.5870	86.8808
 1.5860	86.9018
 1.5850	86.8434
 1.5840	86.8424
 1.5830	86.8796
 1.5820	86.9418
 1.5810	86.8712
 1.5800	86.9134
 1.5790	86.9177
 1.5780	86.8979
 1.5770	86.8835
 1.5760	86.8835
 1.5750	86.8398
 1.5740	86.8354
 1.5730	86.8112
 1.5720	86.7680
 1.5710	86.8344
 1.5700	86.7856
 1.5690	86.7334
 1.5680	86.7889
 1.5670	86.7265
 1.5660	86.7871
 1.5650	86.7259
 1.5640	86.6830
 1.5630	86.6818
 1.5620	86.6108
 1.5610	86.5767
 1.5600	86.4540
 1.5590	86.3974
 1.5580	86.4707
 1.5570	86.4372
 1.5560	86.4427
 1.5550	86.4542
 1.5540	86.3842
 1.5530	86.3914
 1.5520	86.4342
 1.5510	86.4641
 1.5500	86.4320
 1.5490	86.4292
 1.5480	86.3876
 1.5470	86.4389
 1.5460	86.4307
 1.5450	86.4900
 1.5440	86.4700
 1.5430	86.4952
 1.5420	86.5111
 1.5410	86.5474
 1.5400	86.5820
 1.5390	86.5239
 1.5380	86.5047
 1.5370	86.5251
 1.5360	86.5066
 1.5350	86.4741
 1.5340	86.4998
 1.5330	86.5630
 1.5320	86.5722
 1.5310	86.5401
 1.5300	86.5289
 1.5290	86.4991
 1.5280	86.5106
 1.5270	86.5242
 1.5260	86.5048
 1.5250	86.4583
 1.5240	86.5060
 1.5230	86.5665
 1.5220	86.5444
 1.5210	86.5086
 1.5200	86.4815
 1.5190	86.4283
 1.5180	86.3955
 1.5170	86.4678
 1.5160	86.5269
 1.5150	86.4607
 1.5140	86.4563
 1.5130	86.4414
 1.5120	86.4840
 1.5110	86.5021
 1.5100	86.4702
 1.5090	86.4357
 1.5080	86.4323
 1.5070	86.4117
 1.5060	86.3570
 1.5050	86.3783
 1.5040	86.4045
 1.5030	86.3595
 1.5020	86.3550
 1.5010	86.3559
 1.5000	86.3609
 1.4990	86.3798
 1.4980	86.3738
 1.4970	86.3621
 1.4960	86.3613
 1.4950	86.3505
 1.4940	86.3210
 1.4930	86.3316
 1.4920	86.3105
 1.4910	86.3303
 1.4900	86.3363
 1.4890	86.2952
 1.4880	86.2656
 1.4870	86.2154
 1.4860	86.2340
 1.4850	86.2691
 1.4840	86.2426
 1.4830	86.2630
 1.4820	86.2957
 1.4810	86.2565
 1.4800	86.2097
 1.4790	86.2254
 1.4780	86.1953
 1.4770	86.1485
 1.4760	86.1400
 1.4750	86.1046
 1.4740	86.1259
 1.4730	86.1136
 1.4720	86.0089
 1.4710	86.0118
 1.4700	86.0895
 1.4690	86.0775
 1.4680	86.0837
 1.4670	86.1057
 1.4660	86.0771
 1.4650	86.0315
 1.4640	86.0674
 1.4630	86.1054
 1.4620	86.0734
 1.4610	86.0360
 1.4600	86.1052
 1.4590	86.1785
 1.4580	86.1105
 1.4570	86.1195
 1.4560	86.1777
 1.4550	86.1694
 1.4540	86.1331
 1.4530	86.1028
 1.4520	86.1186
 1.4510	86.1048
 1.4500	86.1677
 1.4490	86.1543
 1.4480	86.1585
 1.4470	86.1572
 1.4460	86.1971
 1.4450	86.1922
 1.4440	86.1704
 1.4430	86.1642
 1.4420	86.2016
 1.4410	86.2762
 1.4400	86.2684
 1.4390	86.2389
 1.4380	86.2720
 1.4370	86.2843
 1.4360	86.3037
 1.4350	86.3357
 1.4340	86.3212
 1.4330	86.3465
 1.4320	86.3829
 1.4310	86.3756
 1.4300	86.4499
 1.4290	86.4372
 1.4280	86.4732
 1.4270	86.4915
 1.4260	86.5160
 1.4250	86.5796
 1.4240	86.4966
 1.4230	86.5358
 1.4220	86.6234
 1.4210	86.6296
 1.4200	86.6380
 1.4190	86.5704
 1.4180	86.6045
 1.4170	86.6847
 1.4160	86.7218
 1.4150	86.7441
 1.4140	86.8180
 1.4130	86.8459
 1.4120	86.9039
 1.4110	86.8968
 1.4100	86.8607
 1.4090	86.8905
 1.4080	86.9133
 1.4070	86.9262
 1.4060	87.0176
 1.4050	87.0444
 1.4040	87.0997
 1.4030	87.0636
 1.4020	87.1144
 1.4010	87.1279
 1.4000	87.2467
 1.3990	87.2209
 1.3980	87.2516
 1.3970	87.2787
 1.3960	87.3501
 1.3950	87.4535
 1.3940	87.4688
 1.3930	87.4431
 1.3920	87.4619
 1.3910	87.5301
 1.3900	87.5464
 1.3890	87.5434
 1.3880	87.5930
 1.3870	87.6379
 1.3860	87.6519
 1.3850	87.6553
 1.3840	87.6425
 1.3830	87.6791
 1.3820	87.6623
 1.3810	87.5917
 1.3800	87.6495
 1.3790	87.7882
 1.3780	87.7555
 1.3770	87.7349
 1.3760	87.7713
 1.3750	87.7797
 1.3740	87.8256
 1.3730	87.7766
 1.3720	87.7878
 1.3710	87.7869
 1.3700	87.8119
 1.3690	87.7995
 1.3680	87.7846
 1.3670	87.8124
 1.3660	87.8233
 1.3650	87.7908
 1.3640	87.7571
 1.3630	87.8175
 1.3620	87.7844
 1.3610	87.8100
 1.3600	87.8147
 1.3590	87.7999
 1.3580	87.8430
 1.3570	87.7437
 1.3560	87.7647
 1.3550	87.7878
 1.3540	87.6868
 1.3530	87.8411
 1.3520	87.7577
 1.3510	87.9127
 1.3500	87.8108
 1.3490	87.8114
 1.3480	87.7895
 1.3470	87.7742
 1.3460	87.7837
 1.3450	87.8427
 1.3440	87.8508
 1.3430	87.7516
 1.3420	87.7737
 1.3410	87.7866
 1.3400	87.7568
 1.3390	87.8210
 1.3380	87.6893
 1.3370	87.8019
 1.3360	87.7762
 1.3350	87.7415
 1.3340	87.7146
 1.3330	87.7223
 1.3320	87.8284
 1.3310	87.7318
 1.3300	87.8210
 1.3290	87.8340
 1.3280	87.7783
 1.3270	87.7518
 1.3260	87.7769
 1.3250	87.6931
 1.3240	87.8743
 1.3230	87.7218
 1.3220	87.6953
 1.3210	87.7653
 1.3200	87.7610
 1.3190	87.8168
 1.3180	87.8152
 1.3170	87.8181
 1.3160	87.7818
 1.3150	87.8366
 1.3140	87.8123
 1.3130	87.8009
 1.3120	87.7907
 1.3110	87.7704
 1.3100	87.7976
 1.3090	87.7506
 1.3080	87.7472
 1.3070	87.8179
 1.3060	87.7887
 1.3050	87.8082
 1.3040	87.7667
 1.3030	87.6895
 1.3020	87.7919
 1.3010	87.7234
 1.3000	87.7951
 1.2990	87.7224
 1.2980	87.7726
 1.2970	87.7242
 1.2960	87.8190
 1.2950	87.7848
 1.2940	87.7279
 1.2930	87.6915
 1.2920	87.7092
 1.2910	87.7957
 1.2900	87.7599
 1.2890	87.7788
 1.2880	87.6982
 1.2870	87.7127
 1.2860	87.7310
 1.2850	87.7283
 1.2840	87.7117
 1.2830	87.7125
 1.2820	87.7350
 1.2810	87.6801
 1.2800	87.6971
 1.2790	87.7775
 1.2780	87.7101
 1.2770	87.7394
 1.2760	87.6901
 1.2750	87.7473
 1.2740	87.7937
 1.2730	87.7401
 1.2720	87.6971
 1.2710	87.7484
 1.2700	87.7347
 1.2690	87.7293
 1.2680	87.6928
 1.2670	87.7088
 1.2660	87.6824
 1.2650	87.6946
 1.2640	87.6681
 1.2630	87.6679
 1.2620	87.6590
 1.2610	87.6780
 1.2600	87.6762
 1.2590	87.7243
 1.2580	87.7239
 1.2570	87.6566
 1.2560	87.6343
 1.2550	87.6296
 1.2540	87.6247
 1.2530	87.6274
 1.2520	87.6047
 1.2510	87.6042
 1.2500	87.5383
 1.2490	87.5561
 1.2480	87.6165
 1.2470	87.6489
 1.2460	87.6427
 1.2450	87.6268
 1.2440	87.6515
 1.2430	87.6443
 1.2420	87.6464
 1.2410	87.6522
 1.2400	87.6296
 1.2390	87.6007
 1.2380	87.6122
 1.2370	87.5886
 1.2360	87.5739
 1.2350	87.6047
 1.2340	87.5915
 1.2330	87.6054
 1.2320	87.5818
 1.2310	87.5523
 1.2300	87.5476
 1.2290	87.5701
 1.2280	87.5754
 1.2270	87.5666
 1.2260	87.5983
 1.2250	87.6134
 1.2240	87.5331
 1.2230	87.5285
 1.2220	87.5342
 1.2210	87.5137
 1.2200	87.5214
 1.2190	87.5682
 1.2180	87.5384
 1.2170	87.5297
 1.2160	87.5532
 1.2150	87.5658
 1.2140	87.5474
 1.2130	87.5231
 1.2120	87.5065
 1.2110	87.5280
 1.2100	87.5366
 1.2090	87.5227
 1.2080	87.5243
 1.2070	87.4553
 1.2060	87.4476
 1.2050	87.5024
 1.2040	87.4996
 1.2030	87.4494
 1.2020	87.4231
 1.2010	87.4694
 1.2000	87.5127
 1.1990	87.4662
 1.1980	87.4753
 1.1970	87.4716
 1.1960	87.4435
 1.1950	87.4562
 1.1940	87.4515
 1.1930	87.4672
 1.1920	87.4729
 1.1910	87.4775
 1.1900	87.5051
 1.1890	87.5033
 1.1880	87.4974
 1.1870	87.4483
 1.1860	87.4694
 1.1850	87.5253
 1.1840	87.4951
 1.1830	87.5095
 1.1820	87.4704
 1.1810	87.4005
 1.1800	87.4166
 1.1790	87.4624
 1.1780	87.4327
 1.1770	87.4058
 1.1760	87.4487
 1.1750	87.4682
 1.1740	87.4932
 1.1730	87.4630
 1.1720	87.4788
 1.1710	87.4469
 1.1700	87.4557
 1.1690	87.3790
 1.1680	87.3988
 1.1670	87.5003
 1.1660	87.4399
 1.1650	87.3955
 1.1640	87.3894
 1.1630	87.4185
 1.1620	87.4354
 1.1610	87.4075
 1.1600	87.4057
 1.1590	87.3939
 1.1580	87.3463
 1.1570	87.4056
 1.1560	87.4722
 1.1550	87.4957
 1.1540	87.4292
 1.1530	87.3951
 1.1520	87.4135
 1.1510	87.4386
 1.1500	87.3690
 1.1490	87.3518
 1.1480	87.4093
 1.1470	87.3498
 1.1460	87.4217
 1.1450	87.4406
 1.1440	87.3884
 1.1430	87.3918
 1.1420	87.4019
 1.1410	87.3349
 1.1400	87.4343
 1.1390	87.3909
 1.1380	87.4323
 1.1370	87.4089
 1.1360	87.3435
 1.1350	87.3591
 1.1340	87.3355
 1.1330	87.3578
 1.1320	87.3219
 1.1310	87.4069
 1.1300	87.3836
 1.1290	87.3989
 1.1280	87.3944
 1.1270	87.3853
 1.1260	87.3579
 1.1250	87.3776
 1.1240	87.2429
 1.1230	87.3492
 1.1220	87.3782
 1.1210	87.3313
 1.1200	87.3150
 1.1190	87.3278
 1.1180	87.3785
 1.1170	87.2965
 1.1160	87.3316
 1.1150	87.3468
 1.1140	87.3003
 1.1130	87.4248
 1.1120	87.3230
 1.1110	87.3234
 1.1100	87.3492
 1.1090	87.2328
 1.1080	87.2867
 1.1070	87.3349
 1.1060	87.3429
 1.1050	87.3382
 1.1040	87.3739
 1.1030	87.2482
 1.1020	87.3269
 1.1010	87.2654
 1.1000	87.2465
 1.0990	87.2551
 1.0980	87.3093
 1.0970	87.3127
 1.0960	87.2115
 1.0950	87.1913
 1.0940	87.2292
 1.0930	87.3207
 1.0920	87.3469
 1.0910	87.3445
 1.0900	87.3048
 1.0890	87.2407
 1.0880	87.2359
 1.0870	87.2673
 1.0860	87.1860
 1.0850	87.2438
 1.0840	87.2314
 1.0830	87.1645
 1.0820	87.2625
 1.0810	87.2136
 1.0800	87.1110
 1.0790	87.2459
 1.0780	87.2535
 1.0770	87.2423
 1.0760	87.2088
 1.0750	87.1988
 1.0740	87.2214
 1.0730	87.2117
 1.0720	87.1136
 1.0710	87.1210
 1.0700	87.1001
 1.0690	87.2295
 1.0680	87.1492
 1.0670	87.2126
 1.0660	87.1365
 1.0650	87.1152
 1.0640	87.0994
 1.0630	87.1076
 1.0620	87.1303
 1.0610	87.1469
 1.0600	87.1563
 1.0590	87.2172
 1.0580	87.1223
 1.0570	87.1018
 1.0560	87.1098
 1.0550	87.1579
 1.0540	87.1422
 1.0530	87.1706
 1.0520	87.1517
 1.0510	87.0248
 1.0500	87.0094
 1.0490	87.0610
 1.0480	87.1043
 1.0470	87.0194
 1.0460	87.1166
 1.0450	87.0374
 1.0440	87.0149
 1.0430	87.1474
 1.0420	87.0328
 1.0410	87.0436
 1.0400	87.0735
 1.0390	87.0162
 1.0380	86.9868
 1.0370	86.9825
 1.0360	86.9663
 1.0350	86.9737
 1.0340	86.9958
 1.0330	87.0326
 1.0320	87.0774
 1.0310	86.9622
 1.0300	86.9755
 1.0290	86.9315
 1.0280	86.9481
 1.0270	87.0364
 1.0260	86.9257
 1.0250	86.8930
 1.0240	86.9746
 1.0230	86.8869
 1.0220	86.9687
 1.0210	86.9319
 1.0200	86.8974
 1.0190	86.9228
 1.0180	86.9179
 1.0170	86.9042
 1.0160	86.8933
 1.0150	86.9023
 1.0140	86.9017
 1.0130	86.9221
 1.0120	86.8584
 1.0110	86.9305
 1.0100	86.9268
 1.0090	86.8827
 1.0080	86.8239
 1.0070	86.8702
 1.0060	86.9127
 1.0050	86.9405
 1.0040	86.9016
 1.0030	86.8691
 1.0020	86.8453
 1.0010	86.7275
 1.0000	86.8252
 0.9990	86.8211
 0.9980	86.8301
 0.9970	86.8286
 0.9960	86.7844
 0.9950	86.7754
 0.9940	86.7608
 0.9930	86.7494
 0.9920	86.7564
 0.9910	86.8052
 0.9900	86.7933
 0.9890	86.7507
 0.9880	86.7853
 0.9870	86.7750
 0.9860	86.8061
 0.9850	86.7583
 0.9840	86.7162
 0.9830	86.6666
 0.9820	86.7158
 0.9810	86.7170
 0.9800	86.7224
 0.9790	86.6937
 0.9780	86.6890
 0.9770	86.5983
 0.9760	86.6042
 0.9750	86.6240
 0.9740	86.5901
 0.9730	86.6025
 0.9720	86.6602
 0.9710	86.5886
 0.9700	86.6045
 0.9690	86.6590
 0.9680	86.6346
 0.9670	86.6037
 0.9660	86.6067
 0.9650	86.6563
 0.9640	86.6793
 0.9630	86.6054
 0.9620	86.5713
 0.9610	86.5841
 0.9600	86.5765
 0.9590	86.5610
 0.9580	86.6017
 0.9570	86.6050
 0.9560	86.5576
 0.9550	86.5085
 0.9540	86.4935
 0.9530	86.5018
 0.9520	86.5227
 0.9510	86.5108
 0.9500	86.5047
 0.9490	86.5181
 0.9480	86.4964
 0.9470	86.4764
 0.9460	86.4676
 0.9450	86.4804
 0.9440	86.4280
 0.9430	86.3812
 0.9420	86.4169
 0.9410	86.4282
 0.9400	86.4005
 0.9390	86.3888
 0.9380	86.4013
 0.9370	86.3449
 0.9360	86.3523
 0.9350	86.3724
 0.9340	86.2922
 0.9330	86.3144
 0.9320	86.3658
 0.9310	86.3228
 0.9300	86.2630
 0.9290	86.2655
 0.9280	86.2960
 0.9270	86.2783
 0.9260	86.2359
 0.9250	86.2596
 0.9240	86.3219
 0.9230	86.2459
 0.9220	86.1772
 0.9210	86.2086
 0.9200	86.2092
 0.9190	86.1794
 0.9180	86.0982
 0.9170	86.1448
 0.9160	86.2068
 0.9150	86.1515
 0.9140	86.0890
 0.9130	86.0998
 0.9120	86.1570
 0.9110	86.1481
 0.9100	86.1748
 0.9090	86.1307
 0.9080	86.0474
 0.9070	86.0521
 0.9060	86.0524
 0.9050	86.0520
 0.9040	86.0573
 0.9030	86.0441
 0.9020	86.0131
 0.9010	86.0270
 0.9000	86.0266
 0.8990	86.0067
 0.8980	86.0104
 0.8970	85.9399
 0.8960	85.9610
 0.8950	85.9672
 0.8940	86.0127
 0.8930	85.9843
 0.8920	85.9666
 0.8910	85.9551
 0.8900	85.9182
 0.8890	85.8729
 0.8880	85.8672
 0.8870	85.8337
 0.8860	85.7936
 0.8850	85.7912
 0.8840	85.8132
 0.8830	85.8794
 0.8820	85.7926
 0.8810	85.7797
 0.8800	85.8176
 0.8790	85.8142
 0.8780	85.8167
 0.8770	85.7507
 0.8760	85.7044
 0.8750	85.7498
 0.8740	85.7469
 0.8730	85.6723
 0.8720	85.6694
 0.8710	85.7160
 0.8700	85.6538
 0.8690	85.6566
 0.8680	85.6581
 0.8670	85.6484
 0.8660	85.6942
 0.8650	85.5740
 0.8640	85.5845
 0.8630	85.5849
 0.8620	85.6294
 0.8610	85.5852
 0.8600	85.8331
 0.8590	85.8382
 0.8580	85.7589
 0.8570	85.7778
 0.8560	85.8420
 0.8550	85.8001
 0.8540	85.8780
 0.8530	85.8882
 0.8520	85.7121
 0.8510	85.8384
 0.8500	85.8737
 0.8490	85.7962
 0.8480	85.7603
 0.8470	85.8260
 0.8460	85.7054
 0.8450	85.6794
 0.8440	85.7114
 0.8430	85.6790
 0.8420	85.6965
 0.8410	85.7761
 0.8400	85.7112
 0.8390	85.6095
 0.8380	85.5731
 0.8370	85.6047
 0.8360	85.5831
 0.8350	85.6296
 0.8340	85.6403
 0.8330	85.6324
 0.8320	85.5722
 0.8310	85.5755
 0.8300	85.6312
 0.8290	85.6775
 0.8280	85.6175
 0.8270	85.5861
 0.8260	85.5920
 0.8250	85.6387
 0.8240	85.5602
 0.8230	85.5791
 0.8220	85.6163
 0.8210	85.6027
 0.8200	85.6962
 0.8190	85.6209
 0.8180	85.5274
 0.8170	85.4596
 0.8160	85.6047
 0.8150	85.5616
 0.8140	85.4642
 0.8130	85.5338
 0.8120	85.5574
 0.8110	85.4762
 0.8100	85.5035
 0.8090	85.4651
 0.8080	85.4476
 0.8070	85.4501
 0.8060	85.4806
 0.8050	85.4759
 0.8040	85.4757
 0.8030	85.4042
 0.8020	85.3923
 0.8010	85.4545
 0.8000	85.4452
 0.7990	85.4463
 0.7980	85.3389
 0.7970	85.3776
 0.7960	85.3913
 0.7950	85.3591
 0.7940	85.3963
 0.7930	85.3922
 0.7920	85.3538
 0.7910	85.4156
 0.7900	85.3341
 0.7890	85.3247
 0.7880	85.4350
 0.7870	85.3871
 0.7860	85.3795
 0.7850	85.3000
 0.7840	85.2702
 0.7830	85.2840
 0.7820	85.3284
 0.7810	85.2656
 0.7800	85.3091
 0.7790	85.3321
 0.7780	85.2423
 0.7770	85.2681
 0.7760	85.2535
 0.7750	85.1655
 0.7740	85.1711
 0.7730	85.1974
 0.7720	85.1253
 0.7710	85.1192
 0.7700	85.0990
 0.7690	85.0917
 0.7680	85.0799
 0.7670	85.0712
 0.7660	85.0923
 0.7650	85.0697
 0.7640	85.0339
 0.7630	85.1027
 0.7620	85.0545
 0.7610	85.0247
 0.7600	85.0488
 0.7590	85.0186
 0.7580	84.9999
 0.7570	85.0164
 0.7560	84.9985
 0.7550	84.9975
 0.7540	85.0269
 0.7530	85.0155
 0.7520	84.9872
 0.7510	84.9825
 0.7500	84.9294
 0.7490	84.9370
 0.7480	84.9783
 0.7470	84.9431
 0.7460	84.9228
 0.7450	84.9113
 0.7440	84.8536
 0.7430	84.8493
 0.7420	84.9106
 0.7410	84.9397
 0.7400	84.9512
 0.7390	84.9260
 0.7380	84.8952
 0.7370	84.8367
 0.7360	84.8303
 0.7350	84.7904
 0.7340	84.8111
 0.7330	84.7945
 0.7320	84.7564
 0.7310	84.7496
 0.7300	84.7374
 0.7290	84.7351
 0.7280	84.7278
 0.7270	84.7257
 0.7260	84.7161
 0.7250	84.6808
 0.7240	84.6770
 0.7230	84.6633
 0.7220	84.6485
 0.7210	84.6467
 0.7200	84.6311
 0.7190	84.6006
 0.7180	84.6069
 0.7170	84.5987
 0.7160	84.5530
 0.7150	84.5520
 0.7140	84.5185
 0.7130	84.5521
 0.7120	84.5055
 0.7110	84.5038
 0.7100	84.4873
 0.7090	84.4882
 0.7080	84.4812
 0.7070	84.4683
 0.7060	84.4414
 0.7050	84.3823
 0.7040	84.3959
 0.7030	84.3855
 0.7020	84.3156
 0.7010	84.3200
 0.7000	84.2812
 0.6990	84.2467
 0.6980	84.2802
 0.6970	84.3127
 0.6960	84.2736
 0.6950	84.2256
 0.6940	84.1845
 0.6930	84.1650
 0.6920	84.1470
 0.6910	84.1426
 0.6900	84.1412
 0.6890	84.0691
 0.6880	84.0776
 0.6870	84.1082
 0.6860	84.1013
 0.6850	84.0675
 0.6840	84.0336
 0.6830	84.0263
 0.6820	84.0006
 0.6810	83.9756
 0.6800	83.9659
 0.6790	83.9317
 0.6780	83.9182
 0.6770	83.9082
 0.6760	83.8699
 0.6750	83.8415
 0.6740	83.8311
 0.6730	83.8228
 0.6720	83.8004
 0.6710	83.7832
 0.6700	83.7626
 0.6690	83.7347
 0.6680	83.7104
 0.6670	83.6909
 0.6660	83.6734
 0.6650	83.6524
 0.6640	83.6288
 0.6630	83.6127
 0.6620	83.5599
 0.6610	83.5168
 0.6600	83.4980
 0.6590	83.4930
 0.6580	83.4563
 0.6570	83.4306
 0.6560	83.4179
 0.6550	83.4009
 0.6540	83.3719
 0.6530	83.3520
 0.6520	83.3032
 0.6510	83.2662
 0.6500	83.2427
 0.6490	83.2131
 0.6480	83.1800
 0.6470	83.1462
 0.6460	83.1045
 0.6450	83.0646
 0.6440	83.0236
 0.6430	83.0017
 0.6420	82.9854
 0.6410	82.9349
 0.6400	82.8901
 0.6390	82.8835
 0.6380	82.8667
 0.6370	82.8058
 0.6360	82.7511
 0.6350	82.7275
 0.6340	82.7033
 0.6330	82.6601
 0.6320	82.6241
 0.6310	82.5989
 0.6300	82.5655
 0.6290	82.5238
 0.6280	82.4784
 0.6270	82.4414
 0.6260	82.4122
 0.6250	82.3738
 0.6240	82.3375
 0.6230	82.3054
 0.6220	82.2604
 0.6210	82.2070
 0.6200	82.1608
 0.6190	82.1160
 0.6180	82.0790
 0.6170	82.0356
 0.6160	81.9852
 0.6150	81.9403
 0.6140	81.8991
 0.6130	81.8715
 0.6120	81.8400
 0.6110	81.7893
 0.6100	81.7324
 0.6090	81.6900
 0.6080	81.6466
 0.6070	81.6140
 0.6060	81.5700
 0.6050	81.5182
 0.6040	81.4854
 0.6030	81.4425
 0.6020	81.3967
 0.6010	81.3429
 0.6000	81.3049
 0.5990	81.2792
 0.5980	81.2455
 0.5970	81.2144
 0.5960	81.1874
 0.5950	81.1762
 0.5940	81.1498
 0.5930	81.1166
 0.5920	81.0641
 0.5910	81.0178
 0.5900	80.9801
 0.5890	80.9293
 0.5880	80.8845
 0.5870	80.8556
 0.5860	80.8166
 0.5850	80.7765
 0.5840	80.7214
 0.5830	80.6800
 0.5820	80.6625
 0.5810	80.6097
 0.5800	80.5668
 0.5790	80.5453
 0.5780	80.5054
 0.5770	80.4713
 0.5760	80.4231
 0.5750	80.3728
 0.5740	80.3367
 0.5730	80.2792
 0.5720	80.2306
 0.5710	80.1944
 0.5700	80.1622
 0.5690	80.1172
 0.5680	80.0812
 0.5670	80.0258
 0.5660	79.9985
 0.5650	79.9361
 0.5640	79.8867
 0.5630	79.8238
 0.5620	79.7840
 0.5610	79.7493
 0.5600	79.6797
 0.5590	79.6274
 0.5580	79.5889
 0.5570	79.5431
 0.5560	79.4894
 0.5550	79.4383
 0.5540	79.3939
 0.5530	79.3440
 0.5520	79.2899
 0.5510	79.2333
 0.5500	79.1818
 0.5490	79.1254
 0.5480	79.0781
 0.5470	79.0483
 0.5460	78.9961
 0.5450	78.9353
 0.5440	78.8740
 0.5430	78.8247
 0.5420	78.7790
 0.5410	78.7085
 0.5400	78.6568
 0.5390	78.6242
 0.5380	78.5774
 0.5370	78.5040
 0.5360	78.4459
 0.5350	78.3857
 0.5340	78.3382
 0.5330	78.2813
 0.5320	78.2193
 0.5310	78.1656
 0.5300	78.1207
 0.5290	78.0651
 0.5280	78.0023
 0.5270	77.9208
 0.5260	77.8664
 0.5250	77.8109
 0.5240	77.7691
 0.5230	77.6786
 0.5220	77.6124
 0.5210	77.5570
 0.5200	77.4987
 0.5190	77.4361
 0.5180	77.3672
 0.5170	77.3036
 0.5160	77.2372
 0.5150	77.1784
 0.5140	77.1328
 0.5130	77.0586
 0.5120	76.9810
 0.5110	76.9101
 0.5100	76.8327
 0.5090	76.7754
 0.5080	76.7136
 0.5070	76.6606
 0.5060	76.5732
 0.5050	76.5356
 0.5040	76.4389
 0.5030	76.3652
 0.5020	76.2922
 0.5010	76.2382
 0.5000	76.1276
 0.4990	76.0875
 0.4980	76.0204
 0.4970	75.9372
 0.4960	75.8543
 0.4950	75.7820
 0.4940	75.7223
 0.4930	75.6457
 0.4920	75.6120
 0.4910	75.4888
 0.4900	75.4274
 0.4890	75.3629
 0.4880	75.2554
 0.4870	75.1917
 0.4860	75.0863
 0.4850	75.0098
 0.4840	74.9532
 0.4830	74.8666
 0.4820	74.7896
 0.4810	74.7025
 0.4800	74.6195
 0.4790	74.5382
 0.4780	74.4753
 0.4770	74.3933
 0.4760	74.3344
 0.4750	74.2457
 0.4740	74.1731
 0.4730	74.0842
 0.4720	74.0037
 0.4710	73.9232
 0.4700	73.8381
 0.4690	73.7280
 0.4680	73.6599
 0.4670	73.5866
 0.4660	73.4850
 0.4650	73.3933
 0.4640	73.3173
 0.4630	73.2240
 0.4620	73.1480
 0.4610	73.0277
 0.4600	72.9619
 0.4590	72.8457
 0.4580	72.7256
 0.4570	72.6349
 0.4560	72.5503
 0.4550	72.4398
 0.4540	72.3203
 0.4530	72.2079
 0.4520	72.1181
 0.4510	71.9725
 0.4500	71.8815
 0.4490	71.7667
 0.4480	71.6370
 0.4470	71.5292
 0.4460	71.4112
 0.4450	71.2611
 0.4440	71.1403
 0.4430	70.9997
 0.4420	70.8634
 0.4410	70.7394
 0.4400	70.6031
 0.4390	70.4714
 0.4380	70.3240
 0.4370	70.1972
 0.4360	70.0776
 0.4350	69.9087
 0.4340	69.7626
 0.4330	69.6243
 0.4320	69.4595
 0.4310	69.2918
 0.4300	69.1583
 0.4290	68.9864
 0.4280	68.8346
 0.4270	68.6918
 0.4260	68.4863
 0.4250	68.3315
 0.4240	68.1766
 0.4230	67.9927
 0.4220	67.8167
 0.4210	67.6468
 0.4200	67.4753
 0.4190	67.2983
 0.4180	67.1149
 0.4170	66.9065
 0.4160	66.7169
 0.4150	66.5280
 0.4140	66.3351
 0.4130	66.1291
 0.4120	65.9197
 0.4110	65.7147
 0.4100	65.5060
 0.4090	65.2812
 0.4080	65.1017
 0.4070	64.8640
 0.4060	64.6397
 0.4050	64.4263
 0.4040	64.2080
 0.4030	63.9782
 0.4020	63.7397
 0.4010	63.5012
 0.4000	63.2868
