Name: Lepidolite K(Li,Al)3(Si,Al)_4O_10(F,OH)_2
Type: Mineral
Class: Silicate
Subclass: Phyllosilicate
Particle Size: Medium
Sample No.: PS-13A
Owner: JPL
Wavelength Range: VSWIR
Origin: USA, South Dakota.
Collection Date: N/A
Description: Yellow lepidolite.Particle size was 45-125um.Collected by:  Ward's Original ASTER Spectral Library name was jpl.perkin.mineral.silicate.phyllosilicate.medium.ps13a.spectrum.txt
Measurement: Hemispherical reflectance
First Column: X
Second Column: Y
X Units: Wavelength (micrometers)
Y Units:Reflectance (percent)
First X Value:  2.5000
Last X Value:  0.4000
Number of X Values: 2101
Additional Information: mineral.silicate.phyllosilicate.medium.vswir.ps-13a.jpl.perkin.ancillary.txt

 2.5000	37.3406
 2.4990	37.1733
 2.4980	36.7522
 2.4970	36.9326
 2.4960	36.3394
 2.4950	36.4520
 2.4940	36.3416
 2.4930	36.2820
 2.4920	35.8995
 2.4910	36.0492
 2.4900	35.7791
 2.4890	35.7264
 2.4880	35.5206
 2.4870	35.6524
 2.4860	35.5237
 2.4850	35.3546
 2.4840	35.2967
 2.4830	35.3830
 2.4820	35.1217
 2.4810	35.1185
 2.4800	34.9585
 2.4790	34.8415
 2.4780	34.6699
 2.4770	34.8236
 2.4760	34.5461
 2.4750	34.5834
 2.4740	34.2497
 2.4730	34.4533
 2.4720	34.1365
 2.4710	34.1228
 2.4700	33.9395
 2.4690	33.9839
 2.4680	33.6311
 2.4670	33.7927
 2.4660	33.4231
 2.4650	33.4690
 2.4640	33.3261
 2.4630	33.1370
 2.4620	33.1676
 2.4610	33.0050
 2.4600	32.7144
 2.4590	32.6799
 2.4580	32.4207
 2.4570	32.4767
 2.4560	32.2700
 2.4550	32.2366
 2.4540	32.0304
 2.4530	31.9455
 2.4520	31.8045
 2.4510	31.7551
 2.4500	31.5056
 2.4490	31.4535
 2.4480	31.3126
 2.4470	31.3268
 2.4460	31.1902
 2.4450	31.2021
 2.4440	31.1213
 2.4430	31.0184
 2.4420	30.9976
 2.4410	30.9935
 2.4400	30.8558
 2.4390	30.9383
 2.4380	30.8881
 2.4370	30.9394
 2.4360	30.8873
 2.4350	31.0600
 2.4340	31.0387
 2.4330	31.1370
 2.4320	31.0753
 2.4310	31.4009
 2.4300	31.4056
 2.4290	31.5552
 2.4280	31.6865
 2.4270	31.9270
 2.4260	32.0307
 2.4250	32.2296
 2.4240	32.3565
 2.4230	32.5960
 2.4220	32.7579
 2.4210	33.0343
 2.4200	33.3126
 2.4190	33.5421
 2.4180	33.6994
 2.4170	34.0166
 2.4160	34.2168
 2.4150	34.5433
 2.4140	34.7210
 2.4130	34.9174
 2.4120	35.2181
 2.4110	35.5588
 2.4100	35.8004
 2.4090	36.0951
 2.4080	36.3487
 2.4070	36.6845
 2.4060	36.8857
 2.4050	37.0917
 2.4040	37.3219
 2.4030	37.5514
 2.4020	37.7759
 2.4010	37.9054
 2.4000	38.0816
 2.3990	38.3065
 2.3980	38.5050
 2.3970	38.6247
 2.3960	38.7165
 2.3950	38.8842
 2.3940	38.9669
 2.3930	39.0781
 2.3920	39.1300
 2.3910	39.2118
 2.3900	39.2661
 2.3890	39.4138
 2.3880	39.4985
 2.3870	39.5526
 2.3860	39.4892
 2.3850	39.5471
 2.3840	39.5567
 2.3830	39.5568
 2.3820	39.5847
 2.3810	39.5934
 2.3800	39.5954
 2.3790	39.6120
 2.3780	39.5920
 2.3770	39.5915
 2.3760	39.5455
 2.3750	39.5323
 2.3740	39.5469
 2.3730	39.5087
 2.3720	39.5082
 2.3710	39.5373
 2.3700	39.4727
 2.3690	39.4132
 2.3680	39.2455
 2.3670	39.1781
 2.3660	39.1612
 2.3650	39.0453
 2.3640	38.9037
 2.3630	38.7559
 2.3620	38.6603
 2.3610	38.5640
 2.3600	38.4069
 2.3590	38.2057
 2.3580	38.0300
 2.3570	37.8828
 2.3560	37.7080
 2.3550	37.5759
 2.3540	37.4785
 2.3530	37.3361
 2.3520	37.2149
 2.3510	37.1359
 2.3500	37.0342
 2.3490	36.9623
 2.3480	36.9219
 2.3470	36.8977
 2.3460	36.9373
 2.3450	36.9543
 2.3440	37.0174
 2.3430	37.1576
 2.3420	37.2779
 2.3410	37.3910
 2.3400	37.5665
 2.3390	37.7716
 2.3380	37.9784
 2.3370	38.2088
 2.3360	38.5824
 2.3350	38.8444
 2.3340	39.1355
 2.3330	39.4922
 2.3320	39.8806
 2.3310	40.2967
 2.3300	40.6598
 2.3290	41.0231
 2.3280	41.4345
 2.3270	41.8534
 2.3260	42.3064
 2.3250	42.7450
 2.3240	43.2112
 2.3230	43.6416
 2.3220	44.1478
 2.3210	44.5614
 2.3200	45.0797
 2.3190	45.5331
 2.3180	46.0373
 2.3170	46.4756
 2.3160	46.9633
 2.3150	47.3775
 2.3140	47.8573
 2.3130	48.2720
 2.3120	48.7867
 2.3110	49.2400
 2.3100	49.7642
 2.3090	50.2110
 2.3080	50.6764
 2.3070	51.0959
 2.3060	51.5755
 2.3050	51.9141
 2.3040	52.3478
 2.3030	52.7778
 2.3020	53.2358
 2.3010	53.6060
 2.3000	54.0810
 2.2990	54.4394
 2.2980	54.8804
 2.2970	55.2057
 2.2960	55.5048
 2.2950	55.8940
 2.2940	56.2732
 2.2930	56.5671
 2.2920	56.8919
 2.2910	57.0771
 2.2900	57.3500
 2.2890	57.5841
 2.2880	57.8781
 2.2870	57.9925
 2.2860	58.2722
 2.2850	58.4650
 2.2840	58.6223
 2.2830	58.7714
 2.2820	58.9555
 2.2810	59.0399
 2.2800	59.2576
 2.2790	59.3216
 2.2780	59.4481
 2.2770	59.5169
 2.2760	59.6275
 2.2750	59.7145
 2.2740	59.7823
 2.2730	59.8274
 2.2720	59.9219
 2.2710	59.9929
 2.2700	60.0546
 2.2690	60.0597
 2.2680	60.1318
 2.2670	60.0921
 2.2660	60.0151
 2.2650	60.0148
 2.2640	60.0535
 2.2630	60.0273
 2.2620	60.0982
 2.2610	60.0066
 2.2600	59.9455
 2.2590	59.8828
 2.2580	59.8652
 2.2570	59.6964
 2.2560	59.7347
 2.2550	59.6397
 2.2540	59.6183
 2.2530	59.5082
 2.2520	59.5039
 2.2510	59.3707
 2.2500	59.3120
 2.2490	59.1814
 2.2480	59.1491
 2.2470	59.1212
 2.2460	58.9771
 2.2450	58.8878
 2.2440	58.7558
 2.2430	58.6794
 2.2420	58.5511
 2.2410	58.3266
 2.2400	58.2160
 2.2390	58.0337
 2.2380	57.8287
 2.2370	57.6943
 2.2360	57.4787
 2.2350	57.1282
 2.2340	56.9015
 2.2330	56.6117
 2.2320	56.2402
 2.2310	55.7537
 2.2300	55.3988
 2.2290	54.9233
 2.2280	54.4922
 2.2270	53.8646
 2.2260	53.3547
 2.2250	52.6362
 2.2240	51.9818
 2.2230	51.1299
 2.2220	50.4065
 2.2210	49.4052
 2.2200	48.6213
 2.2190	47.6053
 2.2180	46.6736
 2.2170	45.6850
 2.2160	44.6041
 2.2150	43.4349
 2.2140	42.5027
 2.2130	41.3539
 2.2120	40.3152
 2.2110	38.9690
 2.2100	38.1005
 2.2090	36.9234
 2.2080	36.0462
 2.2070	34.9777
 2.2060	34.0611
 2.2050	33.2256
 2.2040	32.4118
 2.2030	31.5680
 2.2020	30.9755
 2.2010	30.4060
 2.2000	29.7959
 2.1990	29.3941
 2.1980	29.1644
 2.1970	28.7846
 2.1960	28.7716
 2.1950	28.6534
 2.1940	28.8353
 2.1930	28.9089
 2.1920	29.1657
 2.1910	29.4980
 2.1900	30.0973
 2.1890	30.7355
 2.1880	31.5614
 2.1870	32.1599
 2.1860	33.0848
 2.1850	34.0734
 2.1840	35.1310
 2.1830	36.1779
 2.1820	37.4346
 2.1810	38.4838
 2.1800	39.7876
 2.1790	40.9032
 2.1780	42.2123
 2.1770	43.4341
 2.1760	44.6749
 2.1750	45.8941
 2.1740	47.0272
 2.1730	48.1319
 2.1720	49.2558
 2.1710	50.2880
 2.1700	51.3755
 2.1690	52.3297
 2.1680	53.2856
 2.1670	54.1264
 2.1660	54.9707
 2.1650	55.7697
 2.1640	56.5742
 2.1630	57.2621
 2.1620	58.0280
 2.1610	58.5929
 2.1600	59.1961
 2.1590	59.7421
 2.1580	60.3583
 2.1570	60.8453
 2.1560	61.3446
 2.1550	61.7989
 2.1540	62.2399
 2.1530	62.6017
 2.1520	63.0524
 2.1510	63.3776
 2.1500	63.7543
 2.1490	64.0172
 2.1480	64.3100
 2.1470	64.5109
 2.1460	64.8272
 2.1450	65.1289
 2.1440	65.3908
 2.1430	65.5200
 2.1420	65.6307
 2.1410	65.8047
 2.1400	66.1033
 2.1390	66.1491
 2.1380	66.2491
 2.1370	66.3284
 2.1360	66.3942
 2.1350	66.4246
 2.1340	66.4671
 2.1330	66.4772
 2.1320	66.4745
 2.1310	66.3651
 2.1300	66.3372
 2.1290	66.2883
 2.1280	66.1500
 2.1270	66.1095
 2.1260	66.0693
 2.1250	65.9608
 2.1240	65.8907
 2.1230	65.8350
 2.1220	65.8850
 2.1210	65.7992
 2.1200	65.7391
 2.1190	65.7986
 2.1180	65.8362
 2.1170	65.8781
 2.1160	65.9798
 2.1150	66.0417
 2.1140	66.1969
 2.1130	66.3607
 2.1120	66.5173
 2.1110	66.6981
 2.1100	66.9104
 2.1090	67.0364
 2.1080	67.1949
 2.1070	67.4321
 2.1060	67.6159
 2.1050	67.7698
 2.1040	68.0170
 2.1030	68.2692
 2.1020	68.5093
 2.1010	68.7749
 2.1000	69.0644
 2.0990	69.3440
 2.0980	69.6718
 2.0970	70.0141
 2.0960	70.3345
 2.0950	70.5934
 2.0940	70.8736
 2.0930	71.1614
 2.0920	71.5103
 2.0910	71.9124
 2.0900	72.1876
 2.0890	72.3994
 2.0880	72.7105
 2.0870	73.0441
 2.0860	73.3050
 2.0850	73.5068
 2.0840	73.7825
 2.0830	74.0158
 2.0820	74.1716
 2.0810	74.3559
 2.0800	74.5540
 2.0790	74.7651
 2.0780	74.9167
 2.0770	75.0679
 2.0760	75.2405
 2.0750	75.3502
 2.0740	75.5046
 2.0730	75.6420
 2.0720	75.7506
 2.0710	75.8316
 2.0700	75.9285
 2.0690	76.0016
 2.0680	76.0669
 2.0670	76.1954
 2.0660	76.2554
 2.0650	76.3117
 2.0640	76.4337
 2.0630	76.5509
 2.0620	76.5980
 2.0610	76.6836
 2.0600	76.7780
 2.0590	76.8206
 2.0580	76.8297
 2.0570	76.8271
 2.0560	76.9168
 2.0550	77.0143
 2.0540	77.0930
 2.0530	77.1053
 2.0520	77.1528
 2.0510	77.1969
 2.0500	77.2080
 2.0490	77.3112
 2.0480	77.3736
 2.0470	77.4100
 2.0460	77.4401
 2.0450	77.4583
 2.0440	77.5352
 2.0430	77.6023
 2.0420	77.6558
 2.0410	77.7621
 2.0400	77.7892
 2.0390	77.8524
 2.0380	77.8413
 2.0370	77.9063
 2.0360	77.9848
 2.0350	78.0385
 2.0340	78.0636
 2.0330	78.1370
 2.0320	78.2365
 2.0310	78.2627
 2.0300	78.2998
 2.0290	78.3505
 2.0280	78.3563
 2.0270	78.4612
 2.0260	78.4851
 2.0250	78.4866
 2.0240	78.5082
 2.0230	78.5506
 2.0220	78.5668
 2.0210	78.6048
 2.0200	78.6798
 2.0190	78.7330
 2.0180	78.7504
 2.0170	78.7343
 2.0160	78.6922
 2.0150	78.7528
 2.0140	78.7877
 2.0130	78.7957
 2.0120	78.7471
 2.0110	78.8074
 2.0100	78.8557
 2.0090	78.8678
 2.0080	78.8236
 2.0070	78.7642
 2.0060	78.8523
 2.0050	78.9030
 2.0040	78.9596
 2.0030	78.9379
 2.0020	78.9923
 2.0010	79.0352
 2.0000	79.0094
 1.9990	78.9708
 1.9980	79.0071
 1.9970	78.9875
 1.9960	78.9924
 1.9950	79.0924
 1.9940	79.0709
 1.9930	79.0827
 1.9920	79.0044
 1.9910	79.1141
 1.9900	79.1810
 1.9890	79.1648
 1.9880	79.2088
 1.9870	79.1794
 1.9860	79.1723
 1.9850	79.2203
 1.9840	79.2574
 1.9830	79.3302
 1.9820	79.3351
 1.9810	79.4543
 1.9800	79.4832
 1.9790	79.4583
 1.9780	79.4609
 1.9770	79.5845
 1.9760	79.6364
 1.9750	79.6312
 1.9740	79.6212
 1.9730	79.6338
 1.9720	79.6982
 1.9710	79.7295
 1.9700	79.7248
 1.9690	79.8117
 1.9680	79.8770
 1.9670	79.8980
 1.9660	79.8804
 1.9650	80.0365
 1.9640	80.0277
 1.9630	80.1702
 1.9620	80.1321
 1.9610	80.1238
 1.9600	80.1841
 1.9590	80.1944
 1.9580	80.3292
 1.9570	80.4325
 1.9560	80.3754
 1.9550	80.4028
 1.9540	80.4827
 1.9530	80.4799
 1.9520	80.5357
 1.9510	80.5046
 1.9500	80.6144
 1.9490	80.6502
 1.9480	80.6693
 1.9470	80.7477
 1.9460	80.7190
 1.9450	80.8607
 1.9440	80.8397
 1.9430	80.9192
 1.9420	80.8714
 1.9410	80.9626
 1.9400	80.9474
 1.9390	81.0284
 1.9380	80.9709
 1.9370	81.0302
 1.9360	81.1649
 1.9350	81.0914
 1.9340	81.1195
 1.9330	81.1500
 1.9320	81.1469
 1.9310	81.1867
 1.9300	81.1142
 1.9290	81.1930
 1.9280	81.2831
 1.9270	81.0940
 1.9260	81.2128
 1.9250	81.2133
 1.9240	81.2324
 1.9230	81.2419
 1.9220	81.2258
 1.9210	81.3264
 1.9200	81.2565
 1.9190	81.4238
 1.9180	81.3117
 1.9170	81.3773
 1.9160	81.3786
 1.9150	81.4600
 1.9140	81.4333
 1.9130	81.4368
 1.9120	81.5539
 1.9110	81.5421
 1.9100	81.6042
 1.9090	81.7112
 1.9080	81.6930
 1.9070	81.8581
 1.9060	81.8908
 1.9050	82.0084
 1.9040	82.0658
 1.9030	82.2164
 1.9020	82.2896
 1.9010	82.4630
 1.9000	82.5597
 1.8990	82.5985
 1.8980	82.8325
 1.8970	82.8809
 1.8960	82.9938
 1.8950	83.1298
 1.8940	83.2547
 1.8930	83.3885
 1.8920	83.3449
 1.8910	83.5576
 1.8900	83.6889
 1.8890	83.6568
 1.8880	83.7450
 1.8870	83.8488
 1.8860	83.9270
 1.8850	83.9271
 1.8840	83.9782
 1.8830	84.0618
 1.8820	84.1290
 1.8810	84.1272
 1.8800	84.2472
 1.8790	84.2802
 1.8780	84.4141
 1.8770	84.3860
 1.8760	84.3347
 1.8750	84.3601
 1.8740	84.5368
 1.8730	84.5786
 1.8720	84.6072
 1.8710	84.7040
 1.8700	84.6697
 1.8690	84.7185
 1.8680	84.7445
 1.8670	84.8014
 1.8660	84.8267
 1.8650	84.8328
 1.8640	84.7465
 1.8630	84.7350
 1.8620	84.7369
 1.8610	84.7111
 1.8600	84.6313
 1.8590	84.6476
 1.8580	84.6941
 1.8570	84.6558
 1.8560	84.6320
 1.8550	84.5940
 1.8540	84.5455
 1.8530	84.4232
 1.8520	84.3066
 1.8510	84.2009
 1.8500	84.0292
 1.8490	83.9401
 1.8480	83.9211
 1.8470	83.8796
 1.8460	83.7602
 1.8450	83.6492
 1.8440	83.5670
 1.8430	83.4931
 1.8420	83.3955
 1.8410	83.3802
 1.8400	83.3714
 1.8390	83.3455
 1.8380	83.2994
 1.8370	83.3447
 1.8360	83.3306
 1.8350	83.3223
 1.8340	83.4160
 1.8330	83.4434
 1.8320	83.5356
 1.8310	83.6594
 1.8300	83.7438
 1.8290	83.8534
 1.8280	83.9332
 1.8270	84.0012
 1.8260	84.1445
 1.8250	84.2286
 1.8240	84.3723
 1.8230	84.4380
 1.8220	84.5915
 1.8210	84.7246
 1.8200	84.8147
 1.8190	84.9369
 1.8180	85.0055
 1.8170	85.1033
 1.8160	85.1183
 1.8150	85.1896
 1.8140	85.2861
 1.8130	85.3556
 1.8120	85.4131
 1.8110	85.5168
 1.8100	85.5350
 1.8090	85.5933
 1.8080	85.6489
 1.8070	85.6146
 1.8060	85.6774
 1.8050	85.7173
 1.8040	85.7366
 1.8030	85.7812
 1.8020	85.7690
 1.8010	85.7884
 1.8000	85.8777
 1.7990	85.8540
 1.7980	85.8061
 1.7970	85.8701
 1.7960	85.9076
 1.7950	85.8710
 1.7940	85.9047
 1.7930	85.9417
 1.7920	85.9204
 1.7910	85.9400
 1.7900	85.9511
 1.7890	85.9660
 1.7880	85.9452
 1.7870	85.8875
 1.7860	85.8895
 1.7850	85.8621
 1.7840	85.8672
 1.7830	85.8774
 1.7820	85.8530
 1.7810	85.8606
 1.7800	85.8112
 1.7790	85.8017
 1.7780	85.7879
 1.7770	85.7154
 1.7760	85.7405
 1.7750	85.6915
 1.7740	85.6377
 1.7730	85.6905
 1.7720	85.6396
 1.7710	85.6300
 1.7700	85.6283
 1.7690	85.6536
 1.7680	85.6974
 1.7670	85.6920
 1.7660	85.7159
 1.7650	85.6721
 1.7640	85.6562
 1.7630	85.7005
 1.7620	85.7029
 1.7610	85.7116
 1.7600	85.7593
 1.7590	85.8279
 1.7580	85.8806
 1.7570	85.8305
 1.7560	85.8238
 1.7550	85.8795
 1.7540	85.9321
 1.7530	85.9434
 1.7520	86.0192
 1.7510	85.9832
 1.7500	86.0156
 1.7490	86.0893
 1.7480	86.1298
 1.7470	86.1138
 1.7460	86.1580
 1.7450	86.1699
 1.7440	86.2227
 1.7430	86.2566
 1.7420	86.2065
 1.7410	86.2539
 1.7400	86.2660
 1.7390	86.3451
 1.7380	86.3509
 1.7370	86.3580
 1.7360	86.3548
 1.7350	86.4497
 1.7340	86.4200
 1.7330	86.3622
 1.7320	86.3855
 1.7310	86.4151
 1.7300	86.4390
 1.7290	86.3776
 1.7280	86.3930
 1.7270	86.3278
 1.7260	86.3199
 1.7250	86.3573
 1.7240	86.4006
 1.7230	86.3836
 1.7220	86.4402
 1.7210	86.4334
 1.7200	86.4026
 1.7190	86.4455
 1.7180	86.4658
 1.7170	86.4482
 1.7160	86.4010
 1.7150	86.3718
 1.7140	86.3734
 1.7130	86.3283
 1.7120	86.3781
 1.7110	86.3863
 1.7100	86.3992
 1.7090	86.3732
 1.7080	86.4448
 1.7070	86.4025
 1.7060	86.4034
 1.7050	86.3651
 1.7040	86.3816
 1.7030	86.3594
 1.7020	86.3979
 1.7010	86.4053
 1.7000	86.4221
 1.6990	86.3866
 1.6980	86.3710
 1.6970	86.4295
 1.6960	86.3777
 1.6950	86.3811
 1.6940	86.4215
 1.6930	86.4326
 1.6920	86.4237
 1.6910	86.3355
 1.6900	86.3260
 1.6890	86.4098
 1.6880	86.3265
 1.6870	86.3677
 1.6860	86.3721
 1.6850	86.3082
 1.6840	86.3864
 1.6830	86.3087
 1.6820	86.3159
 1.6810	86.3575
 1.6800	86.3510
 1.6790	86.3901
 1.6780	86.3798
 1.6770	86.3116
 1.6760	86.2562
 1.6750	86.2748
 1.6740	86.3758
 1.6730	86.3111
 1.6720	86.2753
 1.6710	86.2079
 1.6700	86.3255
 1.6690	86.2821
 1.6680	86.3308
 1.6670	86.2726
 1.6660	86.2861
 1.6650	86.2899
 1.6640	86.3812
 1.6630	86.3757
 1.6620	86.2291
 1.6610	86.2316
 1.6600	86.2457
 1.6590	86.2473
 1.6580	86.2031
 1.6570	86.1614
 1.6560	86.2635
 1.6550	86.2628
 1.6540	86.2533
 1.6530	86.2336
 1.6520	86.2078
 1.6510	86.1030
 1.6500	86.1732
 1.6490	86.2156
 1.6480	86.1673
 1.6470	86.0979
 1.6460	86.1138
 1.6450	86.1397
 1.6440	86.0761
 1.6430	86.1825
 1.6420	86.0093
 1.6410	86.0741
 1.6400	86.1241
 1.6390	86.1049
 1.6380	86.1351
 1.6370	86.1144
 1.6360	86.1789
 1.6350	86.0549
 1.6340	86.0287
 1.6330	86.1023
 1.6320	86.0861
 1.6310	86.0193
 1.6300	86.0459
 1.6290	86.0498
 1.6280	86.0502
 1.6270	86.0818
 1.6260	86.0874
 1.6250	86.1392
 1.6240	86.0710
 1.6230	86.1513
 1.6220	86.0159
 1.6210	86.0311
 1.6200	86.0717
 1.6190	86.0228
 1.6180	86.0401
 1.6170	86.0492
 1.6160	86.0716
 1.6150	85.9918
 1.6140	86.0200
 1.6130	86.0333
 1.6120	85.8935
 1.6110	86.0262
 1.6100	85.9705
 1.6090	85.9247
 1.6080	85.9912
 1.6070	85.9775
 1.6060	85.9457
 1.6050	85.9450
 1.6040	85.9364
 1.6030	85.9427
 1.6020	85.9424
 1.6010	85.8955
 1.6000	85.9111
 1.5990	85.9156
 1.5980	85.9953
 1.5970	85.9645
 1.5960	85.8758
 1.5950	85.8679
 1.5940	85.7979
 1.5930	85.7793
 1.5920	85.8456
 1.5910	85.7109
 1.5900	85.7269
 1.5890	85.7256
 1.5880	85.6618
 1.5870	85.7003
 1.5860	85.7424
 1.5850	85.7076
 1.5840	85.6097
 1.5830	85.5341
 1.5820	85.5162
 1.5810	85.5622
 1.5800	85.5298
 1.5790	85.4260
 1.5780	85.4114
 1.5770	85.3839
 1.5760	85.4250
 1.5750	85.4564
 1.5740	85.4110
 1.5730	85.3724
 1.5720	85.3202
 1.5710	85.2379
 1.5700	85.2845
 1.5690	85.3007
 1.5680	85.1755
 1.5670	85.1338
 1.5660	85.1571
 1.5650	85.0974
 1.5640	85.1056
 1.5630	85.0708
 1.5620	84.9918
 1.5610	85.0048
 1.5600	85.0089
 1.5590	84.9927
 1.5580	84.9218
 1.5570	84.8454
 1.5560	84.8265
 1.5550	84.8275
 1.5540	84.8343
 1.5530	84.8316
 1.5520	84.8686
 1.5510	84.7936
 1.5500	84.6869
 1.5490	84.6812
 1.5480	84.6441
 1.5470	84.6437
 1.5460	84.6424
 1.5450	84.5595
 1.5440	84.5111
 1.5430	84.5680
 1.5420	84.5516
 1.5410	84.5282
 1.5400	84.4974
 1.5390	84.4911
 1.5380	84.4621
 1.5370	84.3988
 1.5360	84.4013
 1.5350	84.3840
 1.5340	84.3781
 1.5330	84.3037
 1.5320	84.2341
 1.5310	84.2546
 1.5300	84.2022
 1.5290	84.1614
 1.5280	84.1801
 1.5270	84.0980
 1.5260	84.0438
 1.5250	84.0536
 1.5240	84.0196
 1.5230	83.9966
 1.5220	83.9693
 1.5210	83.9566
 1.5200	83.9020
 1.5190	83.8277
 1.5180	83.7932
 1.5170	83.7741
 1.5160	83.7289
 1.5150	83.6478
 1.5140	83.6698
 1.5130	83.6694
 1.5120	83.6130
 1.5110	83.5963
 1.5100	83.5634
 1.5090	83.5139
 1.5080	83.4695
 1.5070	83.4295
 1.5060	83.3797
 1.5050	83.3530
 1.5040	83.3484
 1.5030	83.3595
 1.5020	83.3022
 1.5010	83.2405
 1.5000	83.1820
 1.4990	83.1188
 1.4980	83.0792
 1.4970	83.0813
 1.4960	83.0230
 1.4950	82.9958
 1.4940	82.9807
 1.4930	82.9080
 1.4920	82.8529
 1.4910	82.7873
 1.4900	82.7541
 1.4890	82.7355
 1.4880	82.7501
 1.4870	82.6947
 1.4860	82.6519
 1.4850	82.6061
 1.4840	82.5366
 1.4830	82.4880
 1.4820	82.4757
 1.4810	82.4684
 1.4800	82.3888
 1.4790	82.3958
 1.4780	82.3428
 1.4770	82.2235
 1.4760	82.1825
 1.4750	82.1992
 1.4740	82.1078
 1.4730	82.0731
 1.4720	82.0613
 1.4710	81.9372
 1.4700	81.8262
 1.4690	81.7710
 1.4680	81.7813
 1.4670	81.7367
 1.4660	81.6721
 1.4650	81.6017
 1.4640	81.5181
 1.4630	81.4442
 1.4620	81.3643
 1.4610	81.2303
 1.4600	81.1606
 1.4590	81.0841
 1.4580	80.9920
 1.4570	80.9045
 1.4560	80.7381
 1.4550	80.5873
 1.4540	80.4829
 1.4530	80.2956
 1.4520	80.1699
 1.4510	80.0671
 1.4500	79.9972
 1.4490	79.8957
 1.4480	79.7769
 1.4470	79.6365
 1.4460	79.4932
 1.4450	79.3194
 1.4440	79.1685
 1.4430	79.0373
 1.4420	78.8797
 1.4410	78.6076
 1.4400	78.3347
 1.4390	78.0819
 1.4380	77.7556
 1.4370	77.4012
 1.4360	76.9870
 1.4350	76.5194
 1.4340	75.8032
 1.4330	75.1344
 1.4320	74.2528
 1.4310	73.2512
 1.4300	72.2048
 1.4290	70.9989
 1.4280	69.5861
 1.4270	68.1609
 1.4260	66.4570
 1.4250	64.5951
 1.4240	62.5940
 1.4230	60.5979
 1.4220	58.3745
 1.4210	56.0904
 1.4200	53.7206
 1.4190	51.1950
 1.4180	48.9222
 1.4170	46.8052
 1.4160	44.9120
 1.4150	43.0363
 1.4140	41.6318
 1.4130	40.6982
 1.4120	40.2978
 1.4110	40.3191
 1.4100	40.7008
 1.4090	41.2577
 1.4080	41.9268
 1.4070	42.6778
 1.4060	43.3167
 1.4050	44.1753
 1.4040	44.8371
 1.4030	45.5773
 1.4020	46.3942
 1.4010	47.7394
 1.4000	49.1142
 1.3990	50.7698
 1.3980	52.5349
 1.3970	54.6511
 1.3960	57.1179
 1.3950	59.9063
 1.3940	62.4127
 1.3930	64.8379
 1.3920	66.9176
 1.3910	68.8223
 1.3900	70.3505
 1.3890	71.5989
 1.3880	72.5630
 1.3870	73.3619
 1.3860	73.9519
 1.3850	74.3091
 1.3840	74.4957
 1.3830	74.7056
 1.3820	74.8362
 1.3810	74.9483
 1.3800	74.9277
 1.3790	75.0283
 1.3780	75.1038
 1.3770	75.1546
 1.3760	75.1327
 1.3750	75.1752
 1.3740	75.3101
 1.3730	75.3800
 1.3720	75.3835
 1.3710	75.4817
 1.3700	75.5624
 1.3690	75.6500
 1.3680	75.5339
 1.3670	75.8236
 1.3660	75.7647
 1.3650	75.8909
 1.3640	75.9677
 1.3630	76.0886
 1.3620	76.0709
 1.3610	76.1257
 1.3600	76.1353
 1.3590	76.2580
 1.3580	76.2863
 1.3570	76.3178
 1.3560	76.2884
 1.3550	76.3325
 1.3540	76.1652
 1.3530	76.2344
 1.3520	76.1230
 1.3510	76.0661
 1.3500	76.0031
 1.3490	75.9345
 1.3480	75.8836
 1.3470	75.8673
 1.3460	75.7162
 1.3450	75.6853
 1.3440	75.5254
 1.3430	75.4611
 1.3420	75.4351
 1.3410	75.3292
 1.3400	75.1307
 1.3390	75.1172
 1.3380	75.0365
 1.3370	74.9679
 1.3360	74.8039
 1.3350	74.7936
 1.3340	74.6074
 1.3330	74.5201
 1.3320	74.4163
 1.3310	74.4402
 1.3300	74.3730
 1.3290	74.3060
 1.3280	74.2135
 1.3270	74.1787
 1.3260	74.1352
 1.3250	74.0647
 1.3240	74.1136
 1.3230	73.9758
 1.3220	73.8513
 1.3210	73.9231
 1.3200	73.8653
 1.3190	73.8521
 1.3180	73.8191
 1.3170	73.8552
 1.3160	73.7440
 1.3150	73.7612
 1.3140	73.7527
 1.3130	73.8009
 1.3120	73.7412
 1.3110	73.7070
 1.3100	73.7068
 1.3090	73.7745
 1.3080	73.7826
 1.3070	73.7856
 1.3060	73.7650
 1.3050	73.7286
 1.3040	73.7503
 1.3030	73.6971
 1.3020	73.6091
 1.3010	73.7298
 1.3000	73.7060
 1.2990	73.7029
 1.2980	73.6233
 1.2970	73.6569
 1.2960	73.6588
 1.2950	73.5994
 1.2940	73.6195
 1.2930	73.6314
 1.2920	73.6296
 1.2910	73.6956
 1.2900	73.6738
 1.2890	73.6408
 1.2880	73.6325
 1.2870	73.7048
 1.2860	73.6698
 1.2850	73.6268
 1.2840	73.6210
 1.2830	73.6348
 1.2820	73.6410
 1.2810	73.6921
 1.2800	73.6555
 1.2790	73.5325
 1.2780	73.5210
 1.2770	73.5054
 1.2760	73.5238
 1.2750	73.5181
 1.2740	73.4533
 1.2730	73.3916
 1.2720	73.4248
 1.2710	73.4104
 1.2700	73.2989
 1.2690	73.3375
 1.2680	73.2535
 1.2670	73.2712
 1.2660	73.2227
 1.2650	73.2039
 1.2640	73.1863
 1.2630	73.0812
 1.2620	73.0158
 1.2610	72.9774
 1.2600	72.9029
 1.2590	72.8561
 1.2580	72.7906
 1.2570	72.7032
 1.2560	72.6470
 1.2550	72.6116
 1.2540	72.4897
 1.2530	72.4269
 1.2520	72.3760
 1.2510	72.2661
 1.2500	72.2019
 1.2490	72.1218
 1.2480	72.0691
 1.2470	72.1043
 1.2460	72.1468
 1.2450	72.1049
 1.2440	72.0735
 1.2430	72.1140
 1.2420	72.1295
 1.2410	72.1321
 1.2400	72.1642
 1.2390	72.2120
 1.2380	72.2184
 1.2370	72.2388
 1.2360	72.2492
 1.2350	72.2213
 1.2340	72.1732
 1.2330	72.1937
 1.2320	72.2046
 1.2310	72.1813
 1.2300	72.1352
 1.2290	72.0881
 1.2280	72.0580
 1.2270	72.0455
 1.2260	72.0465
 1.2250	72.0306
 1.2240	72.0315
 1.2230	72.0104
 1.2220	71.9180
 1.2210	71.8930
 1.2200	71.9459
 1.2190	71.9077
 1.2180	71.8760
 1.2170	71.8822
 1.2160	71.9268
 1.2150	71.9157
 1.2140	71.8672
 1.2130	71.8630
 1.2120	71.8638
 1.2110	71.8411
 1.2100	71.8625
 1.2090	71.8762
 1.2080	71.8475
 1.2070	71.7793
 1.2060	71.7714
 1.2050	71.7812
 1.2040	71.7973
 1.2030	71.8072
 1.2020	71.7337
 1.2010	71.7059
 1.2000	71.7132
 1.1990	71.7277
 1.1980	71.7002
 1.1970	71.6692
 1.1960	71.6810
 1.1950	71.6831
 1.1940	71.6514
 1.1930	71.6877
 1.1920	71.7229
 1.1910	71.6541
 1.1900	71.6383
 1.1890	71.6836
 1.1880	71.6490
 1.1870	71.6268
 1.1860	71.6231
 1.1850	71.6244
 1.1840	71.6010
 1.1830	71.5666
 1.1820	71.6522
 1.1810	71.6132
 1.1800	71.6326
 1.1790	71.6248
 1.1780	71.6498
 1.1770	71.6395
 1.1760	71.6397
 1.1750	71.5938
 1.1740	71.5955
 1.1730	71.5819
 1.1720	71.6451
 1.1710	71.6704
 1.1700	71.7032
 1.1690	71.7093
 1.1680	71.6780
 1.1670	71.7226
 1.1660	71.7148
 1.1650	71.7940
 1.1640	71.8053
 1.1630	71.7910
 1.1620	71.7908
 1.1610	71.7652
 1.1600	71.7072
 1.1590	71.7046
 1.1580	71.8402
 1.1570	71.8723
 1.1560	71.8153
 1.1550	71.8476
 1.1540	71.9194
 1.1530	71.9081
 1.1520	71.8921
 1.1510	71.8847
 1.1500	71.9989
 1.1490	71.9954
 1.1480	72.0127
 1.1470	72.0001
 1.1460	71.9603
 1.1450	72.0724
 1.1440	72.0932
 1.1430	72.0841
 1.1420	72.1177
 1.1410	72.1617
 1.1400	72.1408
 1.1390	72.1803
 1.1380	72.1595
 1.1370	72.2089
 1.1360	72.2827
 1.1350	72.2655
 1.1340	72.3026
 1.1330	72.2918
 1.1320	72.3662
 1.1310	72.3715
 1.1300	72.4123
 1.1290	72.4499
 1.1280	72.4680
 1.1270	72.4437
 1.1260	72.5407
 1.1250	72.5093
 1.1240	72.5866
 1.1230	72.5415
 1.1220	72.5475
 1.1210	72.6139
 1.1200	72.6473
 1.1190	72.6387
 1.1180	72.6752
 1.1170	72.7007
 1.1160	72.7116
 1.1150	72.7451
 1.1140	72.8138
 1.1130	72.8123
 1.1120	72.9033
 1.1110	72.8432
 1.1100	72.9706
 1.1090	72.9679
 1.1080	72.9754
 1.1070	72.9822
 1.1060	73.0673
 1.1050	73.0410
 1.1040	73.1579
 1.1030	73.1356
 1.1020	73.2137
 1.1010	73.2243
 1.1000	73.2712
 1.0990	73.2348
 1.0980	73.2949
 1.0970	73.2929
 1.0960	73.3678
 1.0950	73.3782
 1.0940	73.4444
 1.0930	73.3175
 1.0920	73.5730
 1.0910	73.5291
 1.0900	73.5650
 1.0890	73.5875
 1.0880	73.5602
 1.0870	73.6368
 1.0860	73.6354
 1.0850	73.7942
 1.0840	73.7049
 1.0830	73.7975
 1.0820	73.8483
 1.0810	73.8556
 1.0800	73.8427
 1.0790	73.9305
 1.0780	73.9816
 1.0770	73.9248
 1.0760	74.0378
 1.0750	73.9462
 1.0740	74.0332
 1.0730	74.0941
 1.0720	74.1899
 1.0710	74.2044
 1.0700	74.1677
 1.0690	74.2432
 1.0680	74.1864
 1.0670	74.1898
 1.0660	74.2736
 1.0650	74.3214
 1.0640	74.3961
 1.0630	74.3629
 1.0620	74.3974
 1.0610	74.4509
 1.0600	74.3807
 1.0590	74.4548
 1.0580	74.5475
 1.0570	74.5127
 1.0560	74.5525
 1.0550	74.5810
 1.0540	74.5733
 1.0530	74.5713
 1.0520	74.6516
 1.0510	74.6805
 1.0500	74.6901
 1.0490	74.6648
 1.0480	74.7353
 1.0470	74.6435
 1.0460	74.7012
 1.0450	74.7524
 1.0440	74.7517
 1.0430	74.7307
 1.0420	74.7593
 1.0410	74.7735
 1.0400	74.8380
 1.0390	74.7366
 1.0380	74.8426
 1.0370	74.8459
 1.0360	74.8421
 1.0350	74.7463
 1.0340	74.8611
 1.0330	74.8642
 1.0320	74.8385
 1.0310	74.8566
 1.0300	74.8577
 1.0290	74.8528
 1.0280	74.8105
 1.0270	74.7699
 1.0260	74.7608
 1.0250	74.8191
 1.0240	74.7506
 1.0230	74.7959
 1.0220	74.7526
 1.0210	74.7770
 1.0200	74.7981
 1.0190	74.7654
 1.0180	74.7144
 1.0170	74.6636
 1.0160	74.7015
 1.0150	74.5761
 1.0140	74.5991
 1.0130	74.6327
 1.0120	74.5998
 1.0110	74.6078
 1.0100	74.5540
 1.0090	74.5486
 1.0080	74.5084
 1.0070	74.4309
 1.0060	74.3744
 1.0050	74.3583
 1.0040	74.3763
 1.0030	74.2847
 1.0020	74.2820
 1.0010	74.3014
 1.0000	74.2607
 0.9990	74.1616
 0.9980	74.0843
 0.9970	74.0465
 0.9960	73.9878
 0.9950	73.8601
 0.9940	73.9178
 0.9930	73.9006
 0.9920	73.8387
 0.9910	73.6958
 0.9900	73.7145
 0.9890	73.6454
 0.9880	73.6102
 0.9870	73.5966
 0.9860	73.4846
 0.9850	73.4300
 0.9840	73.3715
 0.9830	73.2119
 0.9820	73.2225
 0.9810	73.1191
 0.9800	73.1161
 0.9790	72.9846
 0.9780	72.8884
 0.9770	72.8068
 0.9760	72.6167
 0.9750	72.4320
 0.9740	72.2694
 0.9730	72.0682
 0.9720	71.8901
 0.9710	71.6094
 0.9700	71.2930
 0.9690	71.0489
 0.9680	70.8421
 0.9670	70.5477
 0.9660	70.2709
 0.9650	70.0537
 0.9640	69.9988
 0.9630	69.9787
 0.9620	70.0240
 0.9610	70.0462
 0.9600	70.1128
 0.9590	70.2248
 0.9580	70.3539
 0.9570	70.4968
 0.9560	70.6049
 0.9550	70.7113
 0.9540	70.8803
 0.9530	71.0391
 0.9520	71.1552
 0.9510	71.2316
 0.9500	71.2590
 0.9490	71.3132
 0.9480	71.3537
 0.9470	71.3627
 0.9460	71.3527
 0.9450	71.2822
 0.9440	71.3075
 0.9430	71.3260
 0.9420	71.3281
 0.9410	71.2888
 0.9400	71.2002
 0.9390	71.2065
 0.9380	71.2366
 0.9370	71.1585
 0.9360	71.0941
 0.9350	71.1285
 0.9340	71.0962
 0.9330	70.9987
 0.9320	70.9611
 0.9310	70.9148
 0.9300	70.9093
 0.9290	70.9281
 0.9280	70.8560
 0.9270	70.8140
 0.9260	70.8051
 0.9250	70.8110
 0.9240	70.8050
 0.9230	70.7834
 0.9220	70.7935
 0.9210	70.7360
 0.9200	70.6891
 0.9190	70.7589
 0.9180	70.7432
 0.9170	70.7035
 0.9160	70.6946
 0.9150	70.6842
 0.9140	70.6712
 0.9130	70.7056
 0.9120	70.7253
 0.9110	70.7328
 0.9100	70.7237
 0.9090	70.7003
 0.9080	70.7386
 0.9070	70.7107
 0.9060	70.7139
 0.9050	70.7345
 0.9040	70.7445
 0.9030	70.7940
 0.9020	70.8439
 0.9010	70.8440
 0.9000	70.8181
 0.8990	70.8347
 0.8980	70.8919
 0.8970	70.9074
 0.8960	70.9625
 0.8950	70.9785
 0.8940	70.9512
 0.8930	70.9924
 0.8920	70.9732
 0.8910	70.9941
 0.8900	71.0447
 0.8890	71.0675
 0.8880	71.1141
 0.8870	71.1411
 0.8860	71.1539
 0.8850	71.1534
 0.8840	71.1273
 0.8830	71.1573
 0.8820	71.3162
 0.8810	71.3642
 0.8800	71.3406
 0.8790	71.3851
 0.8780	71.4055
 0.8770	71.4623
 0.8760	71.5064
 0.8750	71.5520
 0.8740	71.6352
 0.8730	71.6460
 0.8720	71.6599
 0.8710	71.7436
 0.8700	71.8520
 0.8690	71.8616
 0.8680	71.8933
 0.8670	71.9406
 0.8660	71.9404
 0.8650	72.0335
 0.8640	72.1253
 0.8630	72.1398
 0.8620	72.1831
 0.8610	72.2597
 0.8600	72.4655
 0.8590	72.5561
 0.8580	72.6846
 0.8570	72.7526
 0.8560	72.7737
 0.8550	72.8468
 0.8540	72.9572
 0.8530	72.9792
 0.8520	73.0627
 0.8510	73.1888
 0.8500	73.2083
 0.8490	73.2755
 0.8480	73.3856
 0.8470	73.4110
 0.8460	73.4519
 0.8450	73.5925
 0.8440	73.6486
 0.8430	73.7117
 0.8420	73.8050
 0.8410	73.8866
 0.8400	73.9447
 0.8390	73.9900
 0.8380	74.0425
 0.8370	74.1541
 0.8360	74.2201
 0.8350	74.3149
 0.8340	74.3951
 0.8330	74.4724
 0.8320	74.5649
 0.8310	74.6053
 0.8300	74.7028
 0.8290	74.7926
 0.8280	74.8892
 0.8270	74.9796
 0.8260	75.0102
 0.8250	75.1310
 0.8240	75.2137
 0.8230	75.3279
 0.8220	75.3690
 0.8210	75.4431
 0.8200	75.5510
 0.8190	75.5724
 0.8180	75.6554
 0.8170	75.7801
 0.8160	75.8092
 0.8150	75.9327
 0.8140	76.0215
 0.8130	76.1021
 0.8120	76.1851
 0.8110	76.2702
 0.8100	76.3261
 0.8090	76.4035
 0.8080	76.4947
 0.8070	76.5926
 0.8060	76.6883
 0.8050	76.7572
 0.8040	76.7870
 0.8030	76.8854
 0.8020	76.9115
 0.8010	77.0478
 0.8000	77.0896
 0.7990	77.2104
 0.7980	77.2567
 0.7970	77.3254
 0.7960	77.3983
 0.7950	77.4807
 0.7940	77.5330
 0.7930	77.5466
 0.7920	77.6596
 0.7910	77.6963
 0.7900	77.7829
 0.7890	77.8629
 0.7880	77.9636
 0.7870	78.0150
 0.7860	78.0982
 0.7850	78.2007
 0.7840	78.2318
 0.7830	78.2281
 0.7820	78.3148
 0.7810	78.3954
 0.7800	78.4493
 0.7790	78.5113
 0.7780	78.5323
 0.7770	78.6043
 0.7760	78.7307
 0.7750	78.7541
 0.7740	78.8125
 0.7730	78.8337
 0.7720	78.9276
 0.7710	78.9636
 0.7700	79.0230
 0.7690	79.0831
 0.7680	79.1657
 0.7670	79.1817
 0.7660	79.2538
 0.7650	79.3154
 0.7640	79.3530
 0.7630	79.3851
 0.7620	79.4335
 0.7610	79.4615
 0.7600	79.4925
 0.7590	79.5888
 0.7580	79.6122
 0.7570	79.6188
 0.7560	79.7066
 0.7550	79.7195
 0.7540	79.7385
 0.7530	79.8060
 0.7520	79.8613
 0.7510	79.8864
 0.7500	79.9023
 0.7490	79.9110
 0.7480	79.9146
 0.7470	79.9318
 0.7460	79.9449
 0.7450	79.9463
 0.7440	79.9338
 0.7430	79.9359
 0.7420	79.9416
 0.7410	79.9474
 0.7400	79.9835
 0.7390	79.9823
 0.7380	80.0407
 0.7370	80.0822
 0.7360	80.1051
 0.7350	80.1342
 0.7340	80.1575
 0.7330	80.2146
 0.7320	80.2250
 0.7310	80.2609
 0.7300	80.2686
 0.7290	80.3067
 0.7280	80.3173
 0.7270	80.3330
 0.7260	80.3669
 0.7250	80.3657
 0.7240	80.3444
 0.7230	80.3423
 0.7220	80.3730
 0.7210	80.3879
 0.7200	80.3916
 0.7190	80.3920
 0.7180	80.3874
 0.7170	80.4050
 0.7160	80.3816
 0.7150	80.3912
 0.7140	80.3902
 0.7130	80.3721
 0.7120	80.3496
 0.7110	80.3479
 0.7100	80.3312
 0.7090	80.3545
 0.7080	80.3449
 0.7070	80.3290
 0.7060	80.3252
 0.7050	80.3363
 0.7040	80.3185
 0.7030	80.3229
 0.7020	80.3137
 0.7010	80.2852
 0.7000	80.2676
 0.6990	80.2617
 0.6980	80.2580
 0.6970	80.2277
 0.6960	80.2056
 0.6950	80.1963
 0.6940	80.1809
 0.6930	80.1744
 0.6920	80.1616
 0.6910	80.1588
 0.6900	80.1317
 0.6890	80.1127
 0.6880	80.0891
 0.6870	80.0703
 0.6860	80.0545
 0.6850	80.0274
 0.6840	80.0016
 0.6830	79.9893
 0.6820	79.9886
 0.6810	79.9550
 0.6800	79.9302
 0.6790	79.9040
 0.6780	79.8895
 0.6770	79.8662
 0.6760	79.8385
 0.6750	79.8167
 0.6740	79.7749
 0.6730	79.7384
 0.6720	79.6995
 0.6710	79.6808
 0.6700	79.6552
 0.6690	79.6316
 0.6680	79.6115
 0.6670	79.5758
 0.6660	79.5559
 0.6650	79.5173
 0.6640	79.4929
 0.6630	79.4583
 0.6620	79.4240
 0.6610	79.3979
 0.6600	79.3643
 0.6590	79.3317
 0.6580	79.2993
 0.6570	79.2684
 0.6560	79.2251
 0.6550	79.1883
 0.6540	79.1635
 0.6530	79.1295
 0.6520	79.0795
 0.6510	79.0394
 0.6500	79.0057
 0.6490	78.9722
 0.6480	78.9355
 0.6470	78.8980
 0.6460	78.8639
 0.6450	78.8177
 0.6440	78.7678
 0.6430	78.7245
 0.6420	78.6917
 0.6410	78.6685
 0.6400	78.6253
 0.6390	78.5881
 0.6380	78.5731
 0.6370	78.5116
 0.6360	78.4500
 0.6350	78.4188
 0.6340	78.3813
 0.6330	78.3404
 0.6320	78.2973
 0.6310	78.2609
 0.6300	78.2035
 0.6290	78.1440
 0.6280	78.1092
 0.6270	78.0652
 0.6260	78.0213
 0.6250	77.9864
 0.6240	77.9335
 0.6230	77.8970
 0.6220	77.8715
 0.6210	77.8158
 0.6200	77.7639
 0.6190	77.7218
 0.6180	77.6721
 0.6170	77.6148
 0.6160	77.5755
 0.6150	77.5402
 0.6140	77.4941
 0.6130	77.4340
 0.6120	77.3943
 0.6110	77.3655
 0.6100	77.3323
 0.6090	77.2867
 0.6080	77.2429
 0.6070	77.1908
 0.6060	77.1514
 0.6050	77.1064
 0.6040	77.0665
 0.6030	77.0171
 0.6020	76.9861
 0.6010	76.9466
 0.6000	76.8960
 0.5990	76.8733
 0.5980	76.8634
 0.5970	76.8397
 0.5960	76.8217
 0.5950	76.8110
 0.5940	76.7561
 0.5930	76.7125
 0.5920	76.6937
 0.5910	76.6533
 0.5900	76.6163
 0.5890	76.5684
 0.5880	76.5241
 0.5870	76.4863
 0.5860	76.4478
 0.5850	76.4092
 0.5840	76.3719
 0.5830	76.3415
 0.5820	76.3211
 0.5810	76.2739
 0.5800	76.2314
 0.5790	76.2092
 0.5780	76.1771
 0.5770	76.1311
 0.5760	76.1019
 0.5750	76.0639
 0.5740	76.0251
 0.5730	76.0007
 0.5720	75.9461
 0.5710	75.9154
 0.5700	75.9039
 0.5690	75.8470
 0.5680	75.8181
 0.5670	75.7839
 0.5660	75.7412
 0.5650	75.7076
 0.5640	75.6651
 0.5630	75.6311
 0.5620	75.5959
 0.5610	75.5353
 0.5600	75.4873
 0.5590	75.4428
 0.5580	75.3900
 0.5570	75.3503
 0.5560	75.2976
 0.5550	75.2525
 0.5540	75.2224
 0.5530	75.1683
 0.5520	75.1211
 0.5510	75.0596
 0.5500	75.0043
 0.5490	74.9339
 0.5480	74.8813
 0.5470	74.8327
 0.5460	74.7523
 0.5450	74.6942
 0.5440	74.6152
 0.5430	74.5285
 0.5420	74.4591
 0.5410	74.3795
 0.5400	74.3094
 0.5390	74.2388
 0.5380	74.1772
 0.5370	74.1062
 0.5360	74.0318
 0.5350	73.9402
 0.5340	73.8532
 0.5330	73.7728
 0.5320	73.6739
 0.5310	73.5791
 0.5300	73.4904
 0.5290	73.3896
 0.5280	73.2864
 0.5270	73.1785
 0.5260	73.0765
 0.5250	72.9713
 0.5240	72.8644
 0.5230	72.7548
 0.5220	72.6402
 0.5210	72.5198
 0.5200	72.3979
 0.5190	72.2668
 0.5180	72.1338
 0.5170	71.9969
 0.5160	71.8411
 0.5150	71.6997
 0.5140	71.5275
 0.5130	71.3594
 0.5120	71.2042
 0.5110	71.0509
 0.5100	70.9118
 0.5090	70.7362
 0.5080	70.5766
 0.5070	70.4046
 0.5060	70.2454
 0.5050	70.0458
 0.5040	69.8924
 0.5030	69.7192
 0.5020	69.5543
 0.5010	69.3709
 0.5000	69.1781
 0.4990	69.0070
 0.4980	68.8113
 0.4970	68.6057
 0.4960	68.4132
 0.4950	68.2183
 0.4940	68.0290
 0.4930	67.7870
 0.4920	67.5666
 0.4910	67.3469
 0.4900	67.0992
 0.4890	66.8695
 0.4880	66.6176
 0.4870	66.3400
 0.4860	66.0788
 0.4850	65.8066
 0.4840	65.5175
 0.4830	65.2477
 0.4820	64.9828
 0.4810	64.7020
 0.4800	64.4448
 0.4790	64.1797
 0.4780	63.9280
 0.4770	63.6696
 0.4760	63.3903
 0.4750	63.0952
 0.4740	62.8087
 0.4730	62.5060
 0.4720	62.1971
 0.4710	61.8889
 0.4700	61.5640
 0.4690	61.2474
 0.4680	60.9233
 0.4670	60.5977
 0.4660	60.2608
 0.4650	59.9146
 0.4640	59.5576
 0.4630	59.2180
 0.4620	58.8503
 0.4610	58.4981
 0.4600	58.0888
 0.4590	57.7113
 0.4580	57.3272
 0.4570	56.9253
 0.4560	56.4961
 0.4550	56.1060
 0.4540	55.6489
 0.4530	55.2104
 0.4520	54.7477
 0.4510	54.3030
 0.4500	53.8453
 0.4490	53.3584
 0.4480	52.8870
 0.4470	52.3888
 0.4460	51.8654
 0.4450	51.3400
 0.4440	50.8247
 0.4430	50.2940
 0.4420	49.7862
 0.4410	49.2821
 0.4400	48.7990
 0.4390	48.2955
 0.4380	47.7985
 0.4370	47.3176
 0.4360	46.8091
 0.4350	46.3091
 0.4340	45.8070
 0.4330	45.3051
 0.4320	44.8123
 0.4310	44.3330
 0.4300	43.8157
 0.4290	43.3297
 0.4280	42.8235
 0.4270	42.3185
 0.4260	41.8285
 0.4250	41.3208
 0.4240	40.8076
 0.4230	40.2981
 0.4220	39.8149
 0.4210	39.3119
 0.4200	38.8153
 0.4190	38.3191
 0.4180	37.8288
 0.4170	37.3581
 0.4160	36.8736
 0.4150	36.3794
 0.4140	35.8861
 0.4130	35.3899
 0.4120	34.9192
 0.4110	34.4606
 0.4100	33.9691
 0.4090	33.4822
 0.4080	32.9967
 0.4070	32.5212
 0.4060	32.0389
 0.4050	31.5572
 0.4040	31.0832
 0.4030	30.6177
 0.4020	30.1687
 0.4010	29.7053
 0.4000	29.2467
