Name: Dolomite CaMg(CO_3)_2
Type: Mineral
Class: Carbonate
Subclass: None
Particle Size: Medium
Sample No.: C-5A
Owner: JPL
Wavelength Range: VSWIR
Origin: USA, Colorado.
Collection Date: N/A
Description: Red banded dolomite.Particle size was 45-125um.Collected by:  Ward's Original ASTER Spectral Library name was jpl.perkin.mineral.carbonate.none.medium.c05a.spectrum.txt
Measurement: Hemispherical reflectance
First Column: X
Second Column: Y
X Units: Wavelength (micrometers)
Y Units:Reflectance (percent)
First X Value:  2.5000
Last X Value:  0.4000
Number of X Values: 2101
Additional Information: mineral.carbonate.none.medium.vswir.c-5a.jpl.perkin.ancillary.txt

 2.5000	44.7167
 2.4990	44.4001
 2.4980	45.0602
 2.4970	45.0913
 2.4960	45.1513
 2.4950	45.4216
 2.4940	45.6473
 2.4930	45.6982
 2.4920	46.0154
 2.4910	46.2292
 2.4900	46.5590
 2.4890	46.8149
 2.4880	47.1905
 2.4870	47.4184
 2.4860	47.5643
 2.4850	47.7356
 2.4840	48.0077
 2.4830	48.1635
 2.4820	48.3108
 2.4810	48.6840
 2.4800	48.9447
 2.4790	49.0144
 2.4780	49.2180
 2.4770	49.2483
 2.4760	49.5234
 2.4750	49.6016
 2.4740	49.8652
 2.4730	49.9476
 2.4720	50.1402
 2.4710	50.1011
 2.4700	50.3671
 2.4690	50.3922
 2.4680	50.5786
 2.4670	50.5535
 2.4660	50.7754
 2.4650	50.7857
 2.4640	50.9937
 2.4630	50.9494
 2.4620	51.0523
 2.4610	51.2110
 2.4600	51.3568
 2.4590	51.5508
 2.4580	51.7957
 2.4570	51.8161
 2.4560	51.9706
 2.4550	52.1450
 2.4540	52.3428
 2.4530	52.4900
 2.4520	52.7421
 2.4510	52.9147
 2.4500	53.1998
 2.4490	53.4549
 2.4480	53.6967
 2.4470	53.9843
 2.4460	54.2575
 2.4450	54.4429
 2.4440	54.7325
 2.4430	54.9563
 2.4420	55.3171
 2.4410	55.5589
 2.4400	55.8910
 2.4390	56.2093
 2.4380	56.4360
 2.4370	56.6913
 2.4360	56.9964
 2.4350	57.2683
 2.4340	57.6211
 2.4330	57.8539
 2.4320	58.0397
 2.4310	58.2720
 2.4300	58.6973
 2.4290	58.9106
 2.4280	59.0945
 2.4270	59.3143
 2.4260	59.6631
 2.4250	59.8705
 2.4240	60.1400
 2.4230	60.3768
 2.4220	60.6785
 2.4210	60.8995
 2.4200	61.0586
 2.4190	61.1994
 2.4180	61.4478
 2.4170	61.6659
 2.4160	61.8489
 2.4150	62.0024
 2.4140	62.1831
 2.4130	62.2935
 2.4120	62.5114
 2.4110	62.6039
 2.4100	62.8020
 2.4090	62.9254
 2.4080	63.0520
 2.4070	63.1617
 2.4060	63.2615
 2.4050	63.3351
 2.4040	63.4670
 2.4030	63.5359
 2.4020	63.6471
 2.4010	63.7768
 2.4000	63.8431
 2.3990	63.8547
 2.3980	63.9544
 2.3970	64.0757
 2.3960	64.1769
 2.3950	64.2173
 2.3940	64.3393
 2.3930	64.4751
 2.3920	64.5297
 2.3910	64.6196
 2.3900	64.6464
 2.3890	64.7344
 2.3880	64.8899
 2.3870	64.9549
 2.3860	64.9686
 2.3850	65.0497
 2.3840	65.1512
 2.3830	65.2304
 2.3820	65.3124
 2.3810	65.4023
 2.3800	65.5074
 2.3790	65.5316
 2.3780	65.6420
 2.3770	65.7123
 2.3760	65.7767
 2.3750	65.8984
 2.3740	66.0432
 2.3730	66.0476
 2.3720	66.0719
 2.3710	66.1392
 2.3700	66.2055
 2.3690	66.2533
 2.3680	66.2941
 2.3670	66.3224
 2.3660	66.3402
 2.3650	66.3478
 2.3640	66.3324
 2.3630	66.3061
 2.3620	66.3364
 2.3610	66.2664
 2.3600	66.1480
 2.3590	66.1086
 2.3580	66.0389
 2.3570	65.9040
 2.3560	65.7430
 2.3550	65.6173
 2.3540	65.4618
 2.3530	65.2388
 2.3520	65.0336
 2.3510	64.7659
 2.3500	64.4684
 2.3490	64.2368
 2.3480	63.9001
 2.3470	63.5321
 2.3460	63.1658
 2.3450	62.8065
 2.3440	62.4457
 2.3430	62.0310
 2.3420	61.5932
 2.3410	61.1690
 2.3400	60.7322
 2.3390	60.3267
 2.3380	59.8841
 2.3370	59.4734
 2.3360	59.0415
 2.3350	58.5946
 2.3340	58.1836
 2.3330	57.8161
 2.3320	57.4316
 2.3310	57.0837
 2.3300	56.6960
 2.3290	56.3916
 2.3280	56.1419
 2.3270	55.8539
 2.3260	55.5970
 2.3250	55.4358
 2.3240	55.2371
 2.3230	55.0942
 2.3220	54.9906
 2.3210	54.8754
 2.3200	54.7883
 2.3190	54.7676
 2.3180	54.7313
 2.3170	54.7440
 2.3160	54.7213
 2.3150	54.7540
 2.3140	54.8226
 2.3130	54.9039
 2.3120	54.9570
 2.3110	55.0398
 2.3100	55.1497
 2.3090	55.2334
 2.3080	55.3208
 2.3070	55.4462
 2.3060	55.5401
 2.3050	55.7319
 2.3040	55.8849
 2.3030	55.9841
 2.3020	56.1435
 2.3010	56.2748
 2.3000	56.4008
 2.2990	56.5185
 2.2980	56.6667
 2.2970	56.8309
 2.2960	56.8996
 2.2950	57.1547
 2.2940	57.2508
 2.2930	57.3596
 2.2920	57.4333
 2.2910	57.5895
 2.2900	57.7530
 2.2890	57.8582
 2.2880	58.0059
 2.2870	58.1295
 2.2860	58.1920
 2.2850	58.3350
 2.2840	58.4303
 2.2830	58.5374
 2.2820	58.6636
 2.2810	58.7461
 2.2800	58.8031
 2.2790	58.9125
 2.2780	59.0402
 2.2770	59.0702
 2.2760	59.1273
 2.2750	59.1990
 2.2740	59.2793
 2.2730	59.3595
 2.2720	59.4633
 2.2710	59.5462
 2.2700	59.6211
 2.2690	59.7500
 2.2680	59.8631
 2.2670	59.9609
 2.2660	60.0217
 2.2650	60.2345
 2.2640	60.3906
 2.2630	60.5384
 2.2620	60.6353
 2.2610	60.8721
 2.2600	61.0383
 2.2590	61.2212
 2.2580	61.4426
 2.2570	61.6708
 2.2560	61.8095
 2.2550	62.0794
 2.2540	62.1743
 2.2530	62.4808
 2.2520	62.6532
 2.2510	62.8345
 2.2500	62.9729
 2.2490	63.2900
 2.2480	63.4315
 2.2470	63.6550
 2.2460	63.7889
 2.2450	64.0006
 2.2440	64.0889
 2.2430	64.3380
 2.2420	64.4354
 2.2410	64.5516
 2.2400	64.7801
 2.2390	64.9444
 2.2380	65.0115
 2.2370	65.1598
 2.2360	65.3383
 2.2350	65.4176
 2.2340	65.4608
 2.2330	65.5704
 2.2320	65.6702
 2.2310	65.8113
 2.2300	65.8771
 2.2290	65.9906
 2.2280	66.0180
 2.2270	66.1324
 2.2260	66.0669
 2.2250	66.2760
 2.2240	66.2849
 2.2230	66.3916
 2.2220	66.3819
 2.2210	66.4490
 2.2200	66.4980
 2.2190	66.5106
 2.2180	66.5103
 2.2170	66.6386
 2.2160	66.7016
 2.2150	66.6629
 2.2140	66.6623
 2.2130	66.7190
 2.2120	66.7232
 2.2110	66.7177
 2.2100	66.8466
 2.2090	66.9078
 2.2080	66.9174
 2.2070	67.0067
 2.2060	67.0765
 2.2050	67.2089
 2.2040	67.3259
 2.2030	67.4107
 2.2020	67.4417
 2.2010	67.5942
 2.2000	67.7463
 2.1990	67.7632
 2.1980	67.8287
 2.1970	67.9490
 2.1960	67.9722
 2.1950	68.1551
 2.1940	68.1729
 2.1930	68.2404
 2.1920	68.3127
 2.1910	68.3843
 2.1900	68.3736
 2.1890	68.4951
 2.1880	68.5548
 2.1870	68.5819
 2.1860	68.6350
 2.1850	68.7402
 2.1840	68.7368
 2.1830	68.8737
 2.1820	68.8639
 2.1810	68.9076
 2.1800	68.9520
 2.1790	69.0164
 2.1780	69.0509
 2.1770	69.1021
 2.1760	69.0416
 2.1750	69.1541
 2.1740	69.1504
 2.1730	69.2738
 2.1720	69.2545
 2.1710	69.2929
 2.1700	69.2183
 2.1690	69.3502
 2.1680	69.3562
 2.1670	69.3192
 2.1660	69.3888
 2.1650	69.4235
 2.1640	69.3812
 2.1630	69.3939
 2.1620	69.3778
 2.1610	69.4204
 2.1600	69.4342
 2.1590	69.4738
 2.1580	69.4890
 2.1570	69.4867
 2.1560	69.4838
 2.1550	69.4481
 2.1540	69.4386
 2.1530	69.4336
 2.1520	69.3908
 2.1510	69.5104
 2.1500	69.4527
 2.1490	69.5272
 2.1480	69.4580
 2.1470	69.3949
 2.1460	69.3539
 2.1450	69.3502
 2.1440	69.3397
 2.1430	69.3264
 2.1420	69.3261
 2.1410	69.3837
 2.1400	69.3366
 2.1390	69.3399
 2.1380	69.3113
 2.1370	69.4022
 2.1360	69.3759
 2.1350	69.3514
 2.1340	69.3404
 2.1330	69.3127
 2.1320	69.3275
 2.1310	69.3065
 2.1300	69.3328
 2.1290	69.3085
 2.1280	69.2678
 2.1270	69.2296
 2.1260	69.2768
 2.1250	69.3219
 2.1240	69.2454
 2.1230	69.3235
 2.1220	69.2577
 2.1210	69.2465
 2.1200	69.2038
 2.1190	69.1677
 2.1180	69.1661
 2.1170	69.1882
 2.1160	69.1688
 2.1150	69.1475
 2.1140	69.1433
 2.1130	69.1193
 2.1120	69.0790
 2.1110	69.0884
 2.1100	69.0495
 2.1090	69.0285
 2.1080	69.0163
 2.1070	68.9827
 2.1060	68.9442
 2.1050	68.9317
 2.1040	68.8975
 2.1030	68.8794
 2.1020	68.8169
 2.1010	68.7934
 2.1000	68.7949
 2.0990	68.7784
 2.0980	68.7891
 2.0970	68.7810
 2.0960	68.8140
 2.0950	68.8344
 2.0940	68.7701
 2.0930	68.7919
 2.0920	68.8167
 2.0910	68.8677
 2.0900	68.8510
 2.0890	68.8251
 2.0880	68.8757
 2.0870	68.9710
 2.0860	68.9478
 2.0850	68.8892
 2.0840	68.8533
 2.0830	68.8778
 2.0820	68.9279
 2.0810	68.9651
 2.0800	68.9128
 2.0790	68.8686
 2.0780	68.8945
 2.0770	68.9021
 2.0760	68.9101
 2.0750	68.9149
 2.0740	68.9139
 2.0730	68.9670
 2.0720	69.0247
 2.0710	68.9988
 2.0700	68.9566
 2.0690	68.9554
 2.0680	68.9296
 2.0670	68.9351
 2.0660	68.9519
 2.0650	68.9650
 2.0640	68.9892
 2.0630	68.9329
 2.0620	68.9439
 2.0610	68.9484
 2.0600	68.9590
 2.0590	68.9691
 2.0580	68.9312
 2.0570	68.9114
 2.0560	68.9167
 2.0550	68.9482
 2.0540	68.9282
 2.0530	68.8896
 2.0520	68.9247
 2.0510	68.8824
 2.0500	68.8789
 2.0490	68.8867
 2.0480	68.8918
 2.0470	68.8787
 2.0460	68.8624
 2.0450	68.8220
 2.0440	68.7931
 2.0430	68.7971
 2.0420	68.7909
 2.0410	68.7771
 2.0400	68.7549
 2.0390	68.7311
 2.0380	68.7394
 2.0370	68.7262
 2.0360	68.6950
 2.0350	68.6485
 2.0340	68.6594
 2.0330	68.6355
 2.0320	68.6013
 2.0310	68.5402
 2.0300	68.4994
 2.0290	68.5334
 2.0280	68.4670
 2.0270	68.4141
 2.0260	68.3748
 2.0250	68.3324
 2.0240	68.3552
 2.0230	68.3075
 2.0220	68.2378
 2.0210	68.1978
 2.0200	68.1438
 2.0190	68.1071
 2.0180	68.0967
 2.0170	68.0747
 2.0160	68.0279
 2.0150	67.9775
 2.0140	67.9346
 2.0130	67.8062
 2.0120	67.8467
 2.0110	67.7729
 2.0100	67.7309
 2.0090	67.7409
 2.0080	67.6437
 2.0070	67.5567
 2.0060	67.5105
 2.0050	67.4463
 2.0040	67.3996
 2.0030	67.3407
 2.0020	67.2480
 2.0010	67.2630
 2.0000	67.1708
 1.9990	67.0354
 1.9980	66.9782
 1.9970	66.8425
 1.9960	66.7840
 1.9950	66.6752
 1.9940	66.6033
 1.9930	66.5459
 1.9920	66.4602
 1.9910	66.3284
 1.9900	66.1839
 1.9890	66.0662
 1.9880	66.0619
 1.9870	65.9318
 1.9860	65.8957
 1.9850	65.7284
 1.9840	65.7080
 1.9830	65.7036
 1.9820	65.6436
 1.9810	65.5659
 1.9800	65.4772
 1.9790	65.3992
 1.9780	65.3982
 1.9770	65.3525
 1.9760	65.3200
 1.9750	65.2997
 1.9740	65.3043
 1.9730	65.2296
 1.9720	65.2791
 1.9710	65.2628
 1.9700	65.2596
 1.9690	65.1808
 1.9680	65.1414
 1.9670	65.0672
 1.9660	65.1358
 1.9650	65.1254
 1.9640	65.0270
 1.9630	65.0230
 1.9620	65.0209
 1.9610	64.9673
 1.9600	64.9757
 1.9590	65.0182
 1.9580	65.0322
 1.9570	64.9293
 1.9560	65.0045
 1.9550	64.9040
 1.9540	64.8661
 1.9530	64.8038
 1.9520	64.8445
 1.9510	64.8033
 1.9500	64.8276
 1.9490	64.7984
 1.9480	64.7634
 1.9470	64.6530
 1.9460	64.7246
 1.9450	64.6690
 1.9440	64.6933
 1.9430	64.6756
 1.9420	64.6397
 1.9410	64.6112
 1.9400	64.6390
 1.9390	64.5602
 1.9380	64.6317
 1.9370	64.5869
 1.9360	64.6316
 1.9350	64.6987
 1.9340	64.6757
 1.9330	64.5975
 1.9320	64.7070
 1.9310	64.6886
 1.9300	64.7351
 1.9290	64.6691
 1.9280	64.7981
 1.9270	64.7298
 1.9260	64.7117
 1.9250	64.8178
 1.9240	64.8183
 1.9230	64.7742
 1.9220	64.8745
 1.9210	64.8846
 1.9200	64.9506
 1.9190	64.9375
 1.9180	65.0156
 1.9170	65.0533
 1.9160	65.0689
 1.9150	65.1357
 1.9140	65.2468
 1.9130	65.2468
 1.9120	65.3056
 1.9110	65.4010
 1.9100	65.5229
 1.9090	65.4876
 1.9080	65.6047
 1.9070	65.7264
 1.9060	65.8703
 1.9050	65.9222
 1.9040	66.0722
 1.9030	66.2142
 1.9020	66.4675
 1.9010	66.5638
 1.9000	66.6689
 1.8990	66.9078
 1.8980	67.0192
 1.8970	67.1722
 1.8960	67.3457
 1.8950	67.4801
 1.8940	67.5691
 1.8930	67.7791
 1.8920	67.9328
 1.8910	68.1260
 1.8900	68.1933
 1.8890	68.2585
 1.8880	68.4394
 1.8870	68.5079
 1.8860	68.6350
 1.8850	68.7163
 1.8840	68.8114
 1.8830	68.8614
 1.8820	68.9706
 1.8810	68.9208
 1.8800	69.0261
 1.8790	69.1175
 1.8780	69.1190
 1.8770	69.1133
 1.8760	69.1535
 1.8750	69.1543
 1.8740	69.1492
 1.8730	69.1216
 1.8720	69.0786
 1.8710	69.0588
 1.8700	69.0081
 1.8690	68.9513
 1.8680	68.9810
 1.8670	68.8915
 1.8660	68.8972
 1.8650	68.7985
 1.8640	68.7794
 1.8630	68.8099
 1.8620	68.8193
 1.8610	68.7626
 1.8600	68.8722
 1.8590	68.8868
 1.8580	68.8889
 1.8570	68.8663
 1.8560	68.8686
 1.8550	68.9014
 1.8540	68.9969
 1.8530	68.9810
 1.8520	69.0359
 1.8510	69.0483
 1.8500	69.0887
 1.8490	69.1399
 1.8480	69.2216
 1.8470	69.1881
 1.8460	69.2447
 1.8450	69.2511
 1.8440	69.2589
 1.8430	69.3012
 1.8420	69.3153
 1.8410	69.3026
 1.8400	69.3743
 1.8390	69.3556
 1.8380	69.4309
 1.8370	69.3618
 1.8360	69.4174
 1.8350	69.4272
 1.8340	69.4176
 1.8330	69.4281
 1.8320	69.4240
 1.8310	69.4325
 1.8300	69.4466
 1.8290	69.4732
 1.8280	69.4614
 1.8270	69.4362
 1.8260	69.4593
 1.8250	69.4867
 1.8240	69.5304
 1.8230	69.5069
 1.8220	69.4814
 1.8210	69.4835
 1.8200	69.5142
 1.8190	69.4840
 1.8180	69.4958
 1.8170	69.5371
 1.8160	69.5828
 1.8150	69.5783
 1.8140	69.5913
 1.8130	69.5874
 1.8120	69.5956
 1.8110	69.5217
 1.8100	69.5315
 1.8090	69.6260
 1.8080	69.6141
 1.8070	69.6139
 1.8060	69.6266
 1.8050	69.6013
 1.8040	69.6559
 1.8030	69.6709
 1.8020	69.6411
 1.8010	69.6794
 1.8000	69.6904
 1.7990	69.6443
 1.7980	69.6745
 1.7970	69.6850
 1.7960	69.6537
 1.7950	69.6302
 1.7940	69.6336
 1.7930	69.6060
 1.7920	69.6151
 1.7910	69.6477
 1.7900	69.6537
 1.7890	69.6067
 1.7880	69.6076
 1.7870	69.6019
 1.7860	69.5910
 1.7850	69.6379
 1.7840	69.6389
 1.7830	69.5844
 1.7820	69.5901
 1.7810	69.6269
 1.7800	69.5927
 1.7790	69.5842
 1.7780	69.5927
 1.7770	69.6041
 1.7760	69.5988
 1.7750	69.5706
 1.7740	69.5079
 1.7730	69.5425
 1.7720	69.6358
 1.7710	69.5941
 1.7700	69.5576
 1.7690	69.6226
 1.7680	69.6033
 1.7670	69.5553
 1.7660	69.5558
 1.7650	69.5715
 1.7640	69.5668
 1.7630	69.5183
 1.7620	69.4702
 1.7610	69.4887
 1.7600	69.5123
 1.7590	69.5174
 1.7580	69.5365
 1.7570	69.5276
 1.7560	69.4495
 1.7550	69.4775
 1.7540	69.4870
 1.7530	69.4621
 1.7520	69.4792
 1.7510	69.4259
 1.7500	69.4427
 1.7490	69.4540
 1.7480	69.4238
 1.7470	69.4579
 1.7460	69.4749
 1.7450	69.4375
 1.7440	69.4112
 1.7430	69.4342
 1.7420	69.3819
 1.7410	69.4276
 1.7400	69.4123
 1.7390	69.3770
 1.7380	69.3975
 1.7370	69.3899
 1.7360	69.3786
 1.7350	69.3947
 1.7340	69.3600
 1.7330	69.3781
 1.7320	69.3704
 1.7310	69.3254
 1.7300	69.3366
 1.7290	69.3784
 1.7280	69.3801
 1.7270	69.4101
 1.7260	69.3836
 1.7250	69.3739
 1.7240	69.4218
 1.7230	69.4029
 1.7220	69.3269
 1.7210	69.3325
 1.7200	69.3700
 1.7190	69.3488
 1.7180	69.3175
 1.7170	69.3155
 1.7160	69.3144
 1.7150	69.3206
 1.7140	69.3752
 1.7130	69.3534
 1.7120	69.3054
 1.7110	69.2685
 1.7100	69.3077
 1.7090	69.3956
 1.7080	69.2894
 1.7070	69.2641
 1.7060	69.2340
 1.7050	69.2963
 1.7040	69.2409
 1.7030	69.2677
 1.7020	69.2359
 1.7010	69.2327
 1.7000	69.2090
 1.6990	69.2544
 1.6980	69.2407
 1.6970	69.2812
 1.6960	69.2349
 1.6950	69.2569
 1.6940	69.2746
 1.6930	69.2332
 1.6920	69.2127
 1.6910	69.2752
 1.6900	69.2265
 1.6890	69.2659
 1.6880	69.1752
 1.6870	69.2157
 1.6860	69.2536
 1.6850	69.2652
 1.6840	69.2080
 1.6830	69.1790
 1.6820	69.1845
 1.6810	69.1878
 1.6800	69.1943
 1.6790	69.1813
 1.6780	69.1482
 1.6770	69.1624
 1.6760	69.1352
 1.6750	69.2484
 1.6740	69.1596
 1.6730	69.1714
 1.6720	69.1465
 1.6710	69.2269
 1.6700	69.1961
 1.6690	69.1677
 1.6680	69.0143
 1.6670	69.1674
 1.6660	69.0971
 1.6650	69.1423
 1.6640	69.1063
 1.6630	69.1015
 1.6620	69.0637
 1.6610	69.1383
 1.6600	69.0270
 1.6590	69.1980
 1.6580	69.1183
 1.6570	69.1015
 1.6560	69.1128
 1.6550	69.0907
 1.6540	69.0674
 1.6530	69.0697
 1.6520	69.0526
 1.6510	69.1390
 1.6500	69.0778
 1.6490	69.1825
 1.6480	69.0757
 1.6470	69.0837
 1.6460	69.0211
 1.6450	69.0515
 1.6440	69.0022
 1.6430	68.9870
 1.6420	69.0087
 1.6410	68.9532
 1.6400	68.9874
 1.6390	69.0119
 1.6380	68.9663
 1.6370	69.0040
 1.6360	68.9668
 1.6350	68.8901
 1.6340	68.9363
 1.6330	69.0132
 1.6320	68.9081
 1.6310	68.9061
 1.6300	68.9617
 1.6290	68.8572
 1.6280	68.9201
 1.6270	68.9640
 1.6260	68.8915
 1.6250	68.9452
 1.6240	68.9152
 1.6230	68.9113
 1.6220	68.9074
 1.6210	68.8398
 1.6200	68.8290
 1.6190	68.9116
 1.6180	68.8544
 1.6170	68.9065
 1.6160	68.8436
 1.6150	68.8515
 1.6140	68.8597
 1.6130	68.9372
 1.6120	68.8916
 1.6110	68.8740
 1.6100	68.8126
 1.6090	68.8795
 1.6080	68.8420
 1.6070	68.8817
 1.6060	68.8400
 1.6050	68.8688
 1.6040	68.8021
 1.6030	68.7836
 1.6020	68.8309
 1.6010	68.8331
 1.6000	68.7996
 1.5990	68.8395
 1.5980	68.7961
 1.5970	68.7953
 1.5960	68.7117
 1.5950	68.7578
 1.5940	68.8025
 1.5930	68.7974
 1.5920	68.6889
 1.5910	68.7606
 1.5900	68.7446
 1.5890	68.7325
 1.5880	68.7164
 1.5870	68.7239
 1.5860	68.6392
 1.5850	68.6724
 1.5840	68.6823
 1.5830	68.6618
 1.5820	68.6477
 1.5810	68.6313
 1.5800	68.6813
 1.5790	68.6726
 1.5780	68.6616
 1.5770	68.6558
 1.5760	68.5916
 1.5750	68.5823
 1.5740	68.5254
 1.5730	68.5600
 1.5720	68.4720
 1.5710	68.4759
 1.5700	68.4773
 1.5690	68.4963
 1.5680	68.5502
 1.5670	68.5050
 1.5660	68.4686
 1.5650	68.5148
 1.5640	68.4475
 1.5630	68.4103
 1.5620	68.4245
 1.5610	68.4352
 1.5600	68.3628
 1.5590	68.4275
 1.5580	68.3857
 1.5570	68.3573
 1.5560	68.3484
 1.5550	68.3241
 1.5540	68.3318
 1.5530	68.3478
 1.5520	68.3112
 1.5510	68.3496
 1.5500	68.3175
 1.5490	68.3139
 1.5480	68.2375
 1.5470	68.2638
 1.5460	68.2641
 1.5450	68.2777
 1.5440	68.3120
 1.5430	68.3122
 1.5420	68.2969
 1.5410	68.2584
 1.5400	68.1870
 1.5390	68.2227
 1.5380	68.2107
 1.5370	68.1604
 1.5360	68.1593
 1.5350	68.1711
 1.5340	68.1205
 1.5330	68.1392
 1.5320	68.1029
 1.5310	68.0903
 1.5300	68.0411
 1.5290	68.0300
 1.5280	68.0543
 1.5270	68.0479
 1.5260	68.0571
 1.5250	68.0825
 1.5240	68.0475
 1.5230	68.1081
 1.5220	68.1283
 1.5210	68.0089
 1.5200	67.9734
 1.5190	67.9835
 1.5180	67.9786
 1.5170	67.9655
 1.5160	67.9654
 1.5150	67.9652
 1.5140	67.9132
 1.5130	67.8821
 1.5120	67.8713
 1.5110	67.8685
 1.5100	67.8632
 1.5090	67.8679
 1.5080	67.8413
 1.5070	67.7862
 1.5060	67.7920
 1.5050	67.7498
 1.5040	67.7345
 1.5030	67.7114
 1.5020	67.6818
 1.5010	67.6979
 1.5000	67.6551
 1.4990	67.6720
 1.4980	67.6693
 1.4970	67.6403
 1.4960	67.6457
 1.4950	67.6041
 1.4940	67.6088
 1.4930	67.6346
 1.4920	67.5727
 1.4910	67.4898
 1.4900	67.4827
 1.4890	67.4833
 1.4880	67.4617
 1.4870	67.4734
 1.4860	67.4715
 1.4850	67.4179
 1.4840	67.3981
 1.4830	67.4225
 1.4820	67.4165
 1.4810	67.4027
 1.4800	67.3625
 1.4790	67.3300
 1.4780	67.3461
 1.4770	67.3117
 1.4760	67.2899
 1.4750	67.2976
 1.4740	67.2793
 1.4730	67.1772
 1.4720	67.1616
 1.4710	67.1961
 1.4700	67.2287
 1.4690	67.1530
 1.4680	67.1134
 1.4670	67.0712
 1.4660	67.0835
 1.4650	67.0841
 1.4640	67.1012
 1.4630	67.0689
 1.4620	67.0464
 1.4610	67.0407
 1.4600	67.0259
 1.4590	67.0502
 1.4580	67.0199
 1.4570	67.0458
 1.4560	67.0669
 1.4550	67.0502
 1.4540	67.0141
 1.4530	66.9572
 1.4520	66.9822
 1.4510	66.9961
 1.4500	66.9990
 1.4490	66.9224
 1.4480	66.9204
 1.4470	66.9264
 1.4460	66.9415
 1.4450	66.9049
 1.4440	66.9248
 1.4430	66.8672
 1.4420	66.8436
 1.4410	66.8197
 1.4400	66.8178
 1.4390	66.8170
 1.4380	66.8174
 1.4370	66.7934
 1.4360	66.8178
 1.4350	66.7767
 1.4340	66.7353
 1.4330	66.7147
 1.4320	66.7519
 1.4310	66.6699
 1.4300	66.7140
 1.4290	66.7118
 1.4280	66.7494
 1.4270	66.7177
 1.4260	66.7112
 1.4250	66.6854
 1.4240	66.6300
 1.4230	66.6576
 1.4220	66.6259
 1.4210	66.5450
 1.4200	66.5768
 1.4190	66.4549
 1.4180	66.4613
 1.4170	66.3609
 1.4160	66.3267
 1.4150	66.4202
 1.4140	66.4327
 1.4130	66.4619
 1.4120	66.5185
 1.4110	66.4995
 1.4100	66.6425
 1.4090	66.5855
 1.4080	66.7157
 1.4070	66.7245
 1.4060	66.8058
 1.4050	66.8487
 1.4040	66.8412
 1.4030	66.7966
 1.4020	66.9000
 1.4010	66.9508
 1.4000	67.0027
 1.3990	66.9597
 1.3980	67.0787
 1.3970	67.0306
 1.3960	67.1447
 1.3950	67.1146
 1.3940	67.1535
 1.3930	67.2348
 1.3920	67.1775
 1.3910	67.2629
 1.3900	67.3185
 1.3890	67.3070
 1.3880	67.4280
 1.3870	67.3600
 1.3860	67.3958
 1.3850	67.4023
 1.3840	67.4689
 1.3830	67.3880
 1.3820	67.4325
 1.3810	67.4726
 1.3800	67.4798
 1.3790	67.5401
 1.3780	67.5645
 1.3770	67.5589
 1.3760	67.5697
 1.3750	67.5155
 1.3740	67.5413
 1.3730	67.5872
 1.3720	67.5602
 1.3710	67.5483
 1.3700	67.5735
 1.3690	67.5696
 1.3680	67.6234
 1.3670	67.5404
 1.3660	67.5549
 1.3650	67.5460
 1.3640	67.6238
 1.3630	67.6172
 1.3620	67.5190
 1.3610	67.5866
 1.3600	67.6651
 1.3590	67.4994
 1.3580	67.5805
 1.3570	67.4985
 1.3560	67.6564
 1.3550	67.4741
 1.3540	67.5718
 1.3530	67.4630
 1.3520	67.5278
 1.3510	67.5287
 1.3500	67.5906
 1.3490	67.4778
 1.3480	67.5677
 1.3470	67.5012
 1.3460	67.5540
 1.3450	67.5699
 1.3440	67.5625
 1.3430	67.5026
 1.3420	67.5299
 1.3410	67.4715
 1.3400	67.5059
 1.3390	67.5044
 1.3380	67.5090
 1.3370	67.4350
 1.3360	67.5226
 1.3350	67.5046
 1.3340	67.5145
 1.3330	67.4780
 1.3320	67.5161
 1.3310	67.4927
 1.3300	67.4384
 1.3290	67.4572
 1.3280	67.4909
 1.3270	67.4658
 1.3260	67.4637
 1.3250	67.4068
 1.3240	67.4502
 1.3230	67.4813
 1.3220	67.4922
 1.3210	67.5229
 1.3200	67.4469
 1.3190	67.4870
 1.3180	67.4725
 1.3170	67.4457
 1.3160	67.4223
 1.3150	67.4426
 1.3140	67.4355
 1.3130	67.3677
 1.3120	67.4433
 1.3110	67.4320
 1.3100	67.4151
 1.3090	67.4280
 1.3080	67.4821
 1.3070	67.4466
 1.3060	67.4506
 1.3050	67.4177
 1.3040	67.4642
 1.3030	67.4039
 1.3020	67.4048
 1.3010	67.3873
 1.3000	67.4231
 1.2990	67.3436
 1.2980	67.3992
 1.2970	67.3980
 1.2960	67.4180
 1.2950	67.3436
 1.2940	67.3333
 1.2930	67.3718
 1.2920	67.4104
 1.2910	67.4080
 1.2900	67.4165
 1.2890	67.4523
 1.2880	67.4663
 1.2870	67.3591
 1.2860	67.3401
 1.2850	67.4065
 1.2840	67.4592
 1.2830	67.4136
 1.2820	67.3679
 1.2810	67.3463
 1.2800	67.3548
 1.2790	67.2792
 1.2780	67.3564
 1.2770	67.3117
 1.2760	67.3778
 1.2750	67.3379
 1.2740	67.3242
 1.2730	67.3239
 1.2720	67.2867
 1.2710	67.3068
 1.2700	67.3844
 1.2690	67.3526
 1.2680	67.3564
 1.2670	67.3107
 1.2660	67.2961
 1.2650	67.3211
 1.2640	67.3341
 1.2630	67.3434
 1.2620	67.3427
 1.2610	67.3284
 1.2600	67.2389
 1.2590	67.2701
 1.2580	67.3359
 1.2570	67.3203
 1.2560	67.3172
 1.2550	67.3321
 1.2540	67.3262
 1.2530	67.3036
 1.2520	67.3250
 1.2510	67.2899
 1.2500	67.2861
 1.2490	67.2392
 1.2480	67.2707
 1.2470	67.3301
 1.2460	67.3237
 1.2450	67.3248
 1.2440	67.2895
 1.2430	67.2699
 1.2420	67.2857
 1.2410	67.2774
 1.2400	67.2873
 1.2390	67.2812
 1.2380	67.2844
 1.2370	67.2719
 1.2360	67.3118
 1.2350	67.3027
 1.2340	67.3007
 1.2330	67.2619
 1.2320	67.2161
 1.2310	67.2601
 1.2300	67.2699
 1.2290	67.2716
 1.2280	67.2772
 1.2270	67.2384
 1.2260	67.1888
 1.2250	67.2047
 1.2240	67.2318
 1.2230	67.2476
 1.2220	67.2766
 1.2210	67.2609
 1.2200	67.2652
 1.2190	67.2967
 1.2180	67.2766
 1.2170	67.2683
 1.2160	67.2773
 1.2150	67.2728
 1.2140	67.3057
 1.2130	67.2832
 1.2120	67.2241
 1.2110	67.2443
 1.2100	67.2604
 1.2090	67.2666
 1.2080	67.2795
 1.2070	67.2580
 1.2060	67.2572
 1.2050	67.2377
 1.2040	67.1953
 1.2030	67.2349
 1.2020	67.2467
 1.2010	67.2194
 1.2000	67.1967
 1.1990	67.2004
 1.1980	67.2463
 1.1970	67.2848
 1.1960	67.2783
 1.1950	67.2247
 1.1940	67.1488
 1.1930	67.1718
 1.1920	67.2261
 1.1910	67.2542
 1.1900	67.1876
 1.1890	67.1794
 1.1880	67.1897
 1.1870	67.2329
 1.1860	67.2091
 1.1850	67.2113
 1.1840	67.1912
 1.1830	67.1834
 1.1820	67.1694
 1.1810	67.1815
 1.1800	67.1862
 1.1790	67.2263
 1.1780	67.2186
 1.1770	67.2115
 1.1760	67.2044
 1.1750	67.1691
 1.1740	67.1524
 1.1730	67.1433
 1.1720	67.0999
 1.1710	67.1593
 1.1700	67.0986
 1.1690	67.1226
 1.1680	67.1507
 1.1670	67.1477
 1.1660	67.1402
 1.1650	67.1069
 1.1640	67.0911
 1.1630	67.1428
 1.1620	67.1219
 1.1610	67.1787
 1.1600	67.1623
 1.1590	67.1463
 1.1580	67.0804
 1.1570	67.0683
 1.1560	67.0421
 1.1550	67.1215
 1.1540	67.1148
 1.1530	67.1509
 1.1520	67.1148
 1.1510	67.0750
 1.1500	67.0749
 1.1490	67.0630
 1.1480	67.0099
 1.1470	67.0715
 1.1460	67.1102
 1.1450	67.1374
 1.1440	67.0652
 1.1430	67.0582
 1.1420	66.9726
 1.1410	67.0363
 1.1400	66.9842
 1.1390	67.0781
 1.1380	67.0156
 1.1370	67.0530
 1.1360	66.9591
 1.1350	66.9663
 1.1340	66.9616
 1.1330	67.0096
 1.1320	66.9611
 1.1310	66.9768
 1.1300	66.9522
 1.1290	66.9805
 1.1280	66.9364
 1.1270	66.9375
 1.1260	66.9407
 1.1250	66.9519
 1.1240	66.9001
 1.1230	66.9122
 1.1220	66.8675
 1.1210	66.9624
 1.1200	66.9148
 1.1190	66.8704
 1.1180	66.8435
 1.1170	66.8480
 1.1160	66.7906
 1.1150	66.7926
 1.1140	66.7260
 1.1130	66.8312
 1.1120	66.7964
 1.1110	66.7368
 1.1100	66.7380
 1.1090	66.7735
 1.1080	66.7658
 1.1070	66.7325
 1.1060	66.6669
 1.1050	66.7023
 1.1040	66.6733
 1.1030	66.6871
 1.1020	66.6950
 1.1010	66.6703
 1.1000	66.6945
 1.0990	66.6322
 1.0980	66.6047
 1.0970	66.6250
 1.0960	66.5817
 1.0950	66.6344
 1.0940	66.5685
 1.0930	66.6096
 1.0920	66.5484
 1.0910	66.5460
 1.0900	66.5130
 1.0890	66.5085
 1.0880	66.4861
 1.0870	66.4898
 1.0860	66.4036
 1.0850	66.5200
 1.0840	66.3926
 1.0830	66.3923
 1.0820	66.3953
 1.0810	66.3839
 1.0800	66.3467
 1.0790	66.3700
 1.0780	66.3367
 1.0770	66.4098
 1.0760	66.2361
 1.0750	66.3333
 1.0740	66.2540
 1.0730	66.2646
 1.0720	66.2865
 1.0710	66.1910
 1.0700	66.1229
 1.0690	66.3096
 1.0680	66.0983
 1.0670	66.1569
 1.0660	66.1653
 1.0650	66.1889
 1.0640	66.0648
 1.0630	66.1319
 1.0620	66.1103
 1.0610	66.0486
 1.0600	66.0321
 1.0590	66.0206
 1.0580	66.0399
 1.0570	66.0264
 1.0560	65.9445
 1.0550	66.0084
 1.0540	65.9452
 1.0530	65.9571
 1.0520	65.8482
 1.0510	65.9307
 1.0500	65.8743
 1.0490	65.8414
 1.0480	65.8166
 1.0470	65.8431
 1.0460	65.8159
 1.0450	65.7583
 1.0440	65.7469
 1.0430	65.7008
 1.0420	65.6737
 1.0410	65.7467
 1.0400	65.6292
 1.0390	65.6190
 1.0380	65.6028
 1.0370	65.6767
 1.0360	65.5516
 1.0350	65.5183
 1.0340	65.4630
 1.0330	65.5146
 1.0320	65.4763
 1.0310	65.5370
 1.0300	65.4157
 1.0290	65.4075
 1.0280	65.3309
 1.0270	65.3632
 1.0260	65.3257
 1.0250	65.2875
 1.0240	65.2214
 1.0230	65.2829
 1.0220	65.2027
 1.0210	65.1887
 1.0200	65.1504
 1.0190	65.0633
 1.0180	65.0706
 1.0170	65.1094
 1.0160	65.0215
 1.0150	65.0395
 1.0140	64.9699
 1.0130	64.8768
 1.0120	64.8922
 1.0110	64.8765
 1.0100	64.8236
 1.0090	64.8272
 1.0080	64.7750
 1.0070	64.7621
 1.0060	64.6961
 1.0050	64.6394
 1.0040	64.5916
 1.0030	64.5291
 1.0020	64.5227
 1.0010	64.5379
 1.0000	64.4935
 0.9990	64.4506
 0.9980	64.3517
 0.9970	64.3268
 0.9960	64.2760
 0.9950	64.3110
 0.9940	64.1999
 0.9930	64.1312
 0.9920	64.1382
 0.9910	64.0681
 0.9900	64.0341
 0.9890	64.0311
 0.9880	63.9460
 0.9870	63.8713
 0.9860	63.7966
 0.9850	63.8306
 0.9840	63.7942
 0.9830	63.7053
 0.9820	63.6550
 0.9810	63.6438
 0.9800	63.5186
 0.9790	63.4502
 0.9780	63.4275
 0.9770	63.3676
 0.9760	63.3165
 0.9750	63.3180
 0.9740	63.1947
 0.9730	63.1156
 0.9720	63.0573
 0.9710	63.0526
 0.9700	62.9803
 0.9690	62.9129
 0.9680	62.8466
 0.9670	62.7929
 0.9660	62.7265
 0.9650	62.6828
 0.9640	62.5773
 0.9630	62.5383
 0.9620	62.5119
 0.9610	62.4996
 0.9600	62.3751
 0.9590	62.2919
 0.9580	62.2884
 0.9570	62.2104
 0.9560	62.1114
 0.9550	62.0782
 0.9540	62.0197
 0.9530	61.9745
 0.9520	61.9067
 0.9510	61.8546
 0.9500	61.8362
 0.9490	61.7658
 0.9480	61.6273
 0.9470	61.5921
 0.9460	61.5529
 0.9450	61.4975
 0.9440	61.3871
 0.9430	61.3505
 0.9420	61.2799
 0.9410	61.1769
 0.9400	61.1140
 0.9390	61.0577
 0.9380	61.0095
 0.9370	60.9759
 0.9360	60.8932
 0.9350	60.7876
 0.9340	60.7336
 0.9330	60.7793
 0.9320	60.7080
 0.9310	60.6104
 0.9300	60.5463
 0.9290	60.4790
 0.9280	60.4292
 0.9270	60.3685
 0.9260	60.3105
 0.9250	60.1992
 0.9240	60.1529
 0.9230	60.1395
 0.9220	60.0734
 0.9210	60.0414
 0.9200	59.9449
 0.9190	59.8702
 0.9180	59.8354
 0.9170	59.7525
 0.9160	59.7006
 0.9150	59.6505
 0.9140	59.5967
 0.9130	59.5274
 0.9120	59.4938
 0.9110	59.4658
 0.9100	59.4294
 0.9090	59.3634
 0.9080	59.2802
 0.9070	59.1846
 0.9060	59.1373
 0.9050	59.0979
 0.9040	59.1046
 0.9030	59.0425
 0.9020	58.9677
 0.9010	58.8885
 0.9000	58.8539
 0.8990	58.8359
 0.8980	58.8085
 0.8970	58.7695
 0.8960	58.7063
 0.8950	58.6277
 0.8940	58.6239
 0.8930	58.5494
 0.8920	58.5455
 0.8910	58.5656
 0.8900	58.5251
 0.8890	58.4113
 0.8880	58.3975
 0.8870	58.3289
 0.8860	58.3073
 0.8850	58.3045
 0.8840	58.2297
 0.8830	58.2063
 0.8820	58.2138
 0.8810	58.0906
 0.8800	58.0395
 0.8790	58.0429
 0.8780	57.9914
 0.8770	57.9389
 0.8760	57.9563
 0.8750	57.9516
 0.8740	57.9048
 0.8730	57.8533
 0.8720	57.8099
 0.8710	57.7899
 0.8700	57.7688
 0.8690	57.7295
 0.8680	57.7257
 0.8670	57.6808
 0.8660	57.6840
 0.8650	57.6301
 0.8640	57.6278
 0.8630	57.6033
 0.8620	57.5928
 0.8610	57.5448
 0.8600	57.8060
 0.8590	57.8782
 0.8580	57.7583
 0.8570	57.7443
 0.8560	57.7708
 0.8550	57.7385
 0.8540	57.7043
 0.8530	57.7743
 0.8520	57.6628
 0.8510	57.6811
 0.8500	57.6925
 0.8490	57.6305
 0.8480	57.6206
 0.8470	57.6477
 0.8460	57.6325
 0.8450	57.5631
 0.8440	57.5811
 0.8430	57.5902
 0.8420	57.5768
 0.8410	57.5786
 0.8400	57.5742
 0.8390	57.5625
 0.8380	57.5176
 0.8370	57.5242
 0.8360	57.5098
 0.8350	57.5188
 0.8340	57.5086
 0.8330	57.5070
 0.8320	57.4806
 0.8310	57.4969
 0.8300	57.4921
 0.8290	57.4287
 0.8280	57.4670
 0.8270	57.4871
 0.8260	57.4421
 0.8250	57.4268
 0.8240	57.4549
 0.8230	57.4835
 0.8220	57.4817
 0.8210	57.4512
 0.8200	57.4680
 0.8190	57.4541
 0.8180	57.4762
 0.8170	57.4425
 0.8160	57.4487
 0.8150	57.4996
 0.8140	57.4473
 0.8130	57.4370
 0.8120	57.5051
 0.8110	57.4317
 0.8100	57.4094
 0.8090	57.4683
 0.8080	57.4730
 0.8070	57.4379
 0.8060	57.4698
 0.8050	57.4753
 0.8040	57.4450
 0.8030	57.4331
 0.8020	57.4436
 0.8010	57.4622
 0.8000	57.4564
 0.7990	57.4433
 0.7980	57.4348
 0.7970	57.3828
 0.7960	57.4038
 0.7950	57.4084
 0.7940	57.3553
 0.7930	57.3614
 0.7920	57.4033
 0.7910	57.4153
 0.7900	57.3598
 0.7890	57.3632
 0.7880	57.3492
 0.7870	57.3215
 0.7860	57.3573
 0.7850	57.3668
 0.7840	57.3554
 0.7830	57.3333
 0.7820	57.3273
 0.7810	57.3106
 0.7800	57.3000
 0.7790	57.3102
 0.7780	57.2395
 0.7770	57.2231
 0.7760	57.2206
 0.7750	57.1999
 0.7740	57.1844
 0.7730	57.1673
 0.7720	57.1140
 0.7710	57.0821
 0.7700	57.1146
 0.7690	57.0733
 0.7680	57.0539
 0.7670	57.0402
 0.7660	57.0061
 0.7650	56.9857
 0.7640	56.9880
 0.7630	56.9195
 0.7620	56.8728
 0.7610	56.8573
 0.7600	56.8263
 0.7590	56.7919
 0.7580	56.7482
 0.7570	56.7282
 0.7560	56.6655
 0.7550	56.6150
 0.7540	56.5609
 0.7530	56.5562
 0.7520	56.5043
 0.7510	56.4454
 0.7500	56.3971
 0.7490	56.3489
 0.7480	56.2988
 0.7470	56.2263
 0.7460	56.2032
 0.7450	56.1191
 0.7440	56.0709
 0.7430	56.0246
 0.7420	55.9483
 0.7410	55.8792
 0.7400	55.8340
 0.7390	55.7806
 0.7380	55.6815
 0.7370	55.6211
 0.7360	55.5567
 0.7350	55.4759
 0.7340	55.4058
 0.7330	55.3270
 0.7320	55.2521
 0.7310	55.1828
 0.7300	55.1008
 0.7290	55.0283
 0.7280	54.9351
 0.7270	54.8456
 0.7260	54.7641
 0.7250	54.6660
 0.7240	54.5967
 0.7230	54.4968
 0.7220	54.3965
 0.7210	54.2979
 0.7200	54.2131
 0.7190	54.0986
 0.7180	54.0224
 0.7170	53.9377
 0.7160	53.8152
 0.7150	53.7139
 0.7140	53.6180
 0.7130	53.5231
 0.7120	53.4217
 0.7110	53.3184
 0.7100	53.1990
 0.7090	53.0992
 0.7080	52.9971
 0.7070	52.8897
 0.7060	52.7756
 0.7050	52.6812
 0.7040	52.5652
 0.7030	52.4430
 0.7020	52.3427
 0.7010	52.2334
 0.7000	52.1040
 0.6990	51.9920
 0.6980	51.8827
 0.6970	51.7774
 0.6960	51.6640
 0.6950	51.5462
 0.6940	51.4300
 0.6930	51.3215
 0.6920	51.1938
 0.6910	51.0721
 0.6900	50.9779
 0.6890	50.8603
 0.6880	50.7400
 0.6870	50.6324
 0.6860	50.5094
 0.6850	50.4091
 0.6840	50.2926
 0.6830	50.1675
 0.6820	50.0576
 0.6810	49.9421
 0.6800	49.8377
 0.6790	49.7230
 0.6780	49.6048
 0.6770	49.5042
 0.6760	49.3812
 0.6750	49.2652
 0.6740	49.1531
 0.6730	49.0343
 0.6720	48.9228
 0.6710	48.8133
 0.6700	48.6991
 0.6690	48.5906
 0.6680	48.4785
 0.6670	48.3625
 0.6660	48.2615
 0.6650	48.1642
 0.6640	48.0447
 0.6630	47.9342
 0.6620	47.8267
 0.6610	47.7158
 0.6600	47.6049
 0.6590	47.4923
 0.6580	47.3873
 0.6570	47.2789
 0.6560	47.1770
 0.6550	47.0796
 0.6540	46.9624
 0.6530	46.8536
 0.6520	46.7537
 0.6510	46.6470
 0.6500	46.5450
 0.6490	46.4447
 0.6480	46.3383
 0.6470	46.2234
 0.6460	46.1161
 0.6450	46.0219
 0.6440	45.9156
 0.6430	45.8110
 0.6420	45.7112
 0.6410	45.6026
 0.6400	45.5013
 0.6390	45.3996
 0.6380	45.2932
 0.6370	45.1931
 0.6360	45.0894
 0.6350	44.9815
 0.6340	44.8705
 0.6330	44.7548
 0.6320	44.6426
 0.6310	44.5336
 0.6300	44.4227
 0.6290	44.3039
 0.6280	44.1911
 0.6270	44.0794
 0.6260	43.9597
 0.6250	43.8348
 0.6240	43.7165
 0.6230	43.5927
 0.6220	43.4703
 0.6210	43.3405
 0.6200	43.2046
 0.6190	43.0629
 0.6180	42.9227
 0.6170	42.7855
 0.6160	42.6321
 0.6150	42.4795
 0.6140	42.3327
 0.6130	42.1623
 0.6120	41.9881
 0.6110	41.8256
 0.6100	41.6550
 0.6090	41.4715
 0.6080	41.2842
 0.6070	41.0900
 0.6060	40.8883
 0.6050	40.6775
 0.6040	40.4604
 0.6030	40.2409
 0.6020	40.0050
 0.6010	39.7583
 0.6000	39.5102
 0.5990	39.2752
 0.5980	39.0207
 0.5970	38.7452
 0.5960	38.4698
 0.5950	38.1896
 0.5940	37.8918
 0.5930	37.5852
 0.5920	37.2610
 0.5910	36.9349
 0.5900	36.6023
 0.5890	36.2575
 0.5880	35.9030
 0.5870	35.5406
 0.5860	35.2049
 0.5850	34.8399
 0.5840	34.4614
 0.5830	34.0786
 0.5820	33.6876
 0.5810	33.2899
 0.5800	32.8793
 0.5790	32.4741
 0.5780	32.0980
 0.5770	31.7004
 0.5760	31.2928
 0.5750	30.8786
 0.5740	30.4661
 0.5730	30.0586
 0.5720	29.6533
 0.5710	29.2525
 0.5700	28.8530
 0.5690	28.4516
 0.5680	28.0636
 0.5670	27.6811
 0.5660	27.3142
 0.5650	26.9402
 0.5640	26.5789
 0.5630	26.2229
 0.5620	25.8818
 0.5610	25.5261
 0.5600	25.1991
 0.5590	24.8791
 0.5580	24.5687
 0.5570	24.2783
 0.5560	23.9960
 0.5550	23.7276
 0.5540	23.4703
 0.5530	23.2173
 0.5520	22.9698
 0.5510	22.7443
 0.5500	22.5214
 0.5490	22.3115
 0.5480	22.1090
 0.5470	21.9256
 0.5460	21.7413
 0.5450	21.5684
 0.5440	21.4053
 0.5430	21.2435
 0.5420	21.0893
 0.5410	20.9510
 0.5400	20.8158
 0.5390	20.6835
 0.5380	20.5645
 0.5370	20.4445
 0.5360	20.3306
 0.5350	20.2238
 0.5340	20.1198
 0.5330	20.0207
 0.5320	19.9288
 0.5310	19.8405
 0.5300	19.7572
 0.5290	19.6757
 0.5280	19.5973
 0.5270	19.5291
 0.5260	19.4569
 0.5250	19.3845
 0.5240	19.3168
 0.5230	19.2547
 0.5220	19.1939
 0.5210	19.1413
 0.5200	19.0766
 0.5190	19.0207
 0.5180	18.9668
 0.5170	18.9051
 0.5160	18.8582
 0.5150	18.7976
 0.5140	18.7473
 0.5130	18.7010
 0.5120	18.6546
 0.5110	18.6029
 0.5100	18.5494
 0.5090	18.4958
 0.5080	18.4533
 0.5070	18.3978
 0.5060	18.3505
 0.5050	18.2975
 0.5040	18.2441
 0.5030	18.2038
 0.5020	18.1453
 0.5010	18.0986
 0.5000	18.0410
 0.4990	17.9939
 0.4980	17.9409
 0.4970	17.8824
 0.4960	17.8276
 0.4950	17.7786
 0.4940	17.7208
 0.4930	17.7059
 0.4920	17.6594
 0.4910	17.6069
 0.4900	17.5553
 0.4890	17.5069
 0.4880	17.4568
 0.4870	17.4073
 0.4860	17.3656
 0.4850	17.3205
 0.4840	17.2675
 0.4830	17.2168
 0.4820	17.1860
 0.4810	17.1374
 0.4800	17.0958
 0.4790	17.0571
 0.4780	17.0193
 0.4770	16.9758
 0.4760	16.9394
 0.4750	16.9001
 0.4740	16.8562
 0.4730	16.8150
 0.4720	16.7810
 0.4710	16.7389
 0.4700	16.6932
 0.4690	16.6524
 0.4680	16.6199
 0.4670	16.5744
 0.4660	16.5288
 0.4650	16.4880
 0.4640	16.4468
 0.4630	16.4057
 0.4620	16.3574
 0.4610	16.3169
 0.4600	16.2717
 0.4590	16.2263
 0.4580	16.1879
 0.4570	16.1364
 0.4560	16.0991
 0.4550	16.0495
 0.4540	15.9992
 0.4530	15.9497
 0.4520	15.9019
 0.4510	15.8496
 0.4500	15.8078
 0.4490	15.7606
 0.4480	15.7093
 0.4470	15.6650
 0.4460	15.6187
 0.4450	15.5644
 0.4440	15.5104
 0.4430	15.4587
 0.4420	15.4051
 0.4410	15.3506
 0.4400	15.3018
 0.4390	15.2485
 0.4380	15.1991
 0.4370	15.1509
 0.4360	15.1068
 0.4350	15.0534
 0.4340	15.0041
 0.4330	14.9489
 0.4320	14.9028
 0.4310	14.8586
 0.4300	14.8121
 0.4290	14.7651
 0.4280	14.7221
 0.4270	14.6836
 0.4260	14.6417
 0.4250	14.6005
 0.4240	14.5600
 0.4230	14.5257
 0.4220	14.4881
 0.4210	14.4527
 0.4200	14.4181
 0.4190	14.3906
 0.4180	14.3541
 0.4170	14.3226
 0.4160	14.2924
 0.4150	14.2565
 0.4140	14.2239
 0.4130	14.1980
 0.4120	14.1723
 0.4110	14.1404
 0.4100	14.1142
 0.4090	14.0895
 0.4080	14.0641
 0.4070	14.0298
 0.4060	13.9977
 0.4050	13.9720
 0.4040	13.9461
 0.4030	13.9163
 0.4020	13.8864
 0.4010	13.8552
 0.4000	13.8283
