Name: Galena PbS
Type: Mineral
Class: Sulfide
Subclass: None
Particle Size: Coarse
Sample No.: S-7A
Owner: JPL
Wavelength Range: VSWIR
Origin: USA, Kansas, Cherokee County, Galena
Collection Date: N/A
Description: Particle size was 125-500um.Collected by Grieger's Inc. Original ASTER Spectral Library name was jpl.beckman.mineral.sulfide.none.coarse.s07a.spectrum.txt
Measurement: Hemispherical reflectance
First Column: X
Second Column: Y
X Units: Wavelength (micrometers)
Y Units:Reflectance (percent)
First X Value:  0.4000
Last X Value:  2.5000
Number of X Values: 826
Additional Information: mineral.sulfide.none.coarse.vswir.s-7a.jpl.beckman.ancillary.txt

 0.4000	17.9100
 0.4010	17.6000
 0.4020	17.6700
 0.4030	17.6600
 0.4040	17.5300
 0.4050	17.4600
 0.4060	17.3500
 0.4070	17.3600
 0.4080	17.3400
 0.4090	17.2600
 0.4100	17.1900
 0.4110	17.0700
 0.4120	17.0900
 0.4130	17.0800
 0.4140	17.0500
 0.4150	17.0100
 0.4160	16.8500
 0.4170	16.8800
 0.4180	16.9700
 0.4190	16.8700
 0.4200	16.8100
 0.4210	16.6900
 0.4220	16.7000
 0.4230	16.6300
 0.4240	16.6100
 0.4250	16.5800
 0.4260	16.4700
 0.4270	16.4900
 0.4280	16.4500
 0.4290	16.4100
 0.4300	16.3800
 0.4310	16.2800
 0.4320	16.3000
 0.4330	16.2500
 0.4340	16.3100
 0.4350	16.2500
 0.4360	16.0400
 0.4370	16.1000
 0.4380	16.0900
 0.4390	16.1100
 0.4400	16.0900
 0.4410	15.9600
 0.4420	16.0000
 0.4430	15.9700
 0.4440	15.9500
 0.4450	15.9000
 0.4460	15.7900
 0.4470	15.8500
 0.4480	15.8000
 0.4490	15.8000
 0.4500	15.7100
 0.4510	15.7100
 0.4520	15.7500
 0.4530	15.5300
 0.4540	15.6300
 0.4550	15.4800
 0.4560	15.4900
 0.4570	15.5700
 0.4580	15.4700
 0.4590	15.5000
 0.4600	15.4400
 0.4610	15.4700
 0.4620	15.3100
 0.4630	15.3000
 0.4640	15.3300
 0.4650	15.3900
 0.4660	15.2300
 0.4670	15.2300
 0.4680	15.2500
 0.4690	15.2900
 0.4700	15.1700
 0.4710	15.0800
 0.4720	15.0500
 0.4730	15.0500
 0.4740	15.0800
 0.4750	15.0400
 0.4760	14.9600
 0.4770	15.0100
 0.4780	14.8700
 0.4790	14.9500
 0.4800	14.8400
 0.4810	14.8200
 0.4820	14.8000
 0.4830	14.8000
 0.4840	14.8300
 0.4850	14.7500
 0.4860	14.7900
 0.4870	14.7000
 0.4880	14.7100
 0.4890	14.6400
 0.4900	14.6100
 0.4910	14.6700
 0.4920	14.5400
 0.4930	14.5800
 0.4940	14.5500
 0.4950	14.5200
 0.4960	14.5100
 0.4970	14.4900
 0.4980	14.4800
 0.4990	14.5300
 0.5000	14.4000
 0.5010	14.3900
 0.5020	14.3600
 0.5030	14.3500
 0.5040	14.4000
 0.5050	14.3200
 0.5060	14.3000
 0.5070	14.3000
 0.5080	14.2400
 0.5090	14.3100
 0.5100	14.2000
 0.5110	14.1500
 0.5120	14.1400
 0.5130	14.1000
 0.5140	14.1600
 0.5150	14.0600
 0.5160	14.0500
 0.5170	14.0200
 0.5180	14.0600
 0.5190	14.0300
 0.5200	13.9900
 0.5210	13.9700
 0.5220	13.9800
 0.5230	14.0100
 0.5240	13.9400
 0.5250	13.9100
 0.5260	13.8800
 0.5270	13.8800
 0.5280	13.8200
 0.5290	13.8100
 0.5300	13.8500
 0.5310	13.8500
 0.5320	13.7400
 0.5330	13.7000
 0.5340	13.6200
 0.5350	13.6700
 0.5360	13.7500
 0.5370	13.6900
 0.5380	13.6400
 0.5390	13.6400
 0.5400	13.5900
 0.5410	13.7100
 0.5420	13.6800
 0.5430	13.6100
 0.5440	13.5800
 0.5450	13.5500
 0.5460	13.5900
 0.5470	13.6100
 0.5480	13.5200
 0.5490	13.5000
 0.5500	13.4700
 0.5510	13.5700
 0.5520	13.5600
 0.5530	13.5000
 0.5540	13.4800
 0.5550	13.4500
 0.5560	13.4800
 0.5570	13.5000
 0.5580	13.5000
 0.5590	13.3900
 0.5600	13.5000
 0.5610	13.5400
 0.5620	13.5200
 0.5630	13.4000
 0.5640	13.4800
 0.5650	13.4800
 0.5660	13.5000
 0.5670	13.4500
 0.5680	13.3900
 0.5690	13.4500
 0.5700	13.4300
 0.5710	13.4300
 0.5720	13.3900
 0.5730	13.3900
 0.5740	13.3900
 0.5750	13.3100
 0.5760	13.3200
 0.5770	13.3600
 0.5780	13.2500
 0.5790	13.3200
 0.5800	13.3300
 0.5810	13.3100
 0.5820	13.3000
 0.5830	13.2000
 0.5840	13.2600
 0.5850	13.2900
 0.5860	13.3000
 0.5870	13.2700
 0.5880	13.2900
 0.5890	13.2900
 0.5900	13.2800
 0.5910	13.3300
 0.5920	13.2800
 0.5930	13.2900
 0.5940	13.3100
 0.5950	13.3400
 0.5960	13.3400
 0.5970	13.3100
 0.5980	13.3300
 0.5990	13.3200
 0.6000	13.2900
 0.6010	13.3200
 0.6020	13.3700
 0.6030	13.3400
 0.6040	13.3100
 0.6050	13.3000
 0.6060	13.3000
 0.6070	13.4000
 0.6080	13.4500
 0.6090	13.3600
 0.6100	13.3600
 0.6110	13.3700
 0.6120	13.4200
 0.6130	13.3900
 0.6140	13.3600
 0.6150	13.3500
 0.6160	13.4200
 0.6170	13.3700
 0.6180	13.4000
 0.6190	13.3400
 0.6200	13.2700
 0.6210	13.4300
 0.6220	13.4000
 0.6230	13.4200
 0.6240	13.4200
 0.6250	13.3600
 0.6260	13.4000
 0.6270	13.4500
 0.6280	13.4600
 0.6290	13.4400
 0.6300	13.3500
 0.6310	13.4000
 0.6320	13.3500
 0.6330	13.3800
 0.6340	13.4100
 0.6350	13.4500
 0.6360	13.4300
 0.6370	13.3600
 0.6380	13.4200
 0.6390	13.4800
 0.6400	13.4900
 0.6410	13.5100
 0.6420	13.4100
 0.6430	13.4600
 0.6440	13.4900
 0.6450	13.5100
 0.6460	13.5100
 0.6470	13.4600
 0.6480	13.5400
 0.6490	13.5200
 0.6500	13.5400
 0.6510	13.5200
 0.6520	13.4300
 0.6530	13.5500
 0.6540	13.6300
 0.6550	13.5900
 0.6560	13.5800
 0.6570	13.5000
 0.6580	13.5400
 0.6590	13.5800
 0.6600	13.5600
 0.6610	13.6100
 0.6620	13.5600
 0.6630	13.6300
 0.6640	13.5600
 0.6650	13.5800
 0.6660	13.5900
 0.6670	13.5600
 0.6680	13.6300
 0.6690	13.6200
 0.6700	13.6000
 0.6710	13.5800
 0.6720	13.5300
 0.6730	13.5900
 0.6740	13.6100
 0.6750	13.5900
 0.6760	13.5700
 0.6770	13.5900
 0.6780	13.6500
 0.6790	13.5600
 0.6800	13.5800
 0.6810	13.5100
 0.6820	13.5500
 0.6830	13.6300
 0.6840	13.6100
 0.6850	13.5600
 0.6860	13.5300
 0.6870	13.5100
 0.6880	13.5600
 0.6890	13.5100
 0.6900	13.5700
 0.6910	13.6000
 0.6920	13.5000
 0.6930	13.5400
 0.6940	13.4100
 0.6950	13.4900
 0.6960	13.5200
 0.6970	13.4800
 0.6980	13.5300
 0.6990	13.4300
 0.7000	13.4800
 0.7010	13.4500
 0.7020	13.5200
 0.7030	13.5500
 0.7040	13.4500
 0.7050	13.5200
 0.7060	13.5100
 0.7070	13.5500
 0.7080	13.5900
 0.7090	13.4200
 0.7100	13.5100
 0.7110	13.5400
 0.7120	13.5400
 0.7130	13.5300
 0.7140	13.4000
 0.7150	13.4500
 0.7160	13.4600
 0.7170	13.4700
 0.7180	13.4500
 0.7190	13.4400
 0.7200	13.4500
 0.7210	13.4700
 0.7220	13.4300
 0.7230	13.4100
 0.7240	13.3700
 0.7250	13.4000
 0.7260	13.4400
 0.7270	13.3200
 0.7280	13.3300
 0.7290	13.2700
 0.7300	13.3300
 0.7310	13.3500
 0.7320	13.3600
 0.7330	13.3400
 0.7340	13.2600
 0.7350	13.3300
 0.7360	13.2800
 0.7370	13.3000
 0.7380	13.2900
 0.7390	13.2800
 0.7400	13.3700
 0.7410	13.3400
 0.7420	13.2500
 0.7430	13.1700
 0.7440	13.2100
 0.7450	13.3200
 0.7460	13.2600
 0.7470	13.2800
 0.7480	13.2000
 0.7490	13.1300
 0.7500	13.1400
 0.7510	13.0700
 0.7520	13.1300
 0.7530	13.1700
 0.7540	13.2200
 0.7550	13.1400
 0.7560	13.1000
 0.7570	13.0900
 0.7580	13.0800
 0.7590	13.1100
 0.7600	13.1200
 0.7610	13.0600
 0.7620	13.1400
 0.7630	13.1900
 0.7640	13.2000
 0.7650	13.1400
 0.7660	13.1300
 0.7670	13.1900
 0.7680	13.1900
 0.7690	13.1500
 0.7700	13.1500
 0.7710	13.1300
 0.7720	13.2400
 0.7730	13.1900
 0.7740	13.1500
 0.7750	13.1300
 0.7760	13.0600
 0.7770	13.1300
 0.7780	13.1600
 0.7790	13.1600
 0.7800	13.0800
 0.7810	13.1200
 0.7820	13.1200
 0.7830	13.1600
 0.7840	13.2200
 0.7850	13.2100
 0.7860	13.1100
 0.7870	13.1400
 0.7880	13.0300
 0.7890	13.0000
 0.7900	13.0400
 0.7910	13.0500
 0.7920	13.0500
 0.7930	13.0000
 0.7940	13.0600
 0.7950	13.0800
 0.7960	13.0600
 0.7970	13.0500
 0.7980	13.0200
 0.7990	13.0800
 0.8000	13.2400
 0.8040	13.2600
 0.8080	13.1800
 0.8120	13.2000
 0.8160	13.1800
 0.8200	13.1700
 0.8240	13.1800
 0.8280	13.1100
 0.8320	13.0600
 0.8360	13.0800
 0.8400	13.0500
 0.8440	13.0500
 0.8480	13.0500
 0.8520	13.0200
 0.8560	13.0000
 0.8600	13.0000
 0.8640	12.9600
 0.8680	12.9500
 0.8720	12.9700
 0.8760	12.9200
 0.8800	12.9700
 0.8840	12.9000
 0.8880	12.8400
 0.8920	12.8500
 0.8960	12.9200
 0.9000	12.8200
 0.9040	12.8000
 0.9080	12.7900
 0.9120	12.7600
 0.9160	12.7300
 0.9200	12.7300
 0.9240	12.7300
 0.9280	12.6800
 0.9320	12.6900
 0.9360	12.6900
 0.9400	12.6800
 0.9440	12.6800
 0.9480	12.7000
 0.9520	12.6100
 0.9560	12.6300
 0.9600	12.7000
 0.9640	12.6200
 0.9680	12.6200
 0.9720	12.6200
 0.9760	12.5900
 0.9800	12.6000
 0.9840	12.5700
 0.9880	12.5600
 0.9920	12.5300
 0.9960	12.5800
 1.0000	12.5700
 1.0040	12.5600
 1.0080	12.5200
 1.0120	12.5300
 1.0160	12.5100
 1.0200	12.4800
 1.0240	12.5600
 1.0280	12.4400
 1.0320	12.5100
 1.0360	12.4900
 1.0400	12.5400
 1.0440	12.4700
 1.0480	12.4500
 1.0520	12.4900
 1.0560	12.4300
 1.0600	12.4400
 1.0640	12.4200
 1.0680	12.3400
 1.0720	12.3500
 1.0760	12.3000
 1.0800	12.3700
 1.0840	12.3700
 1.0880	12.3900
 1.0920	12.3600
 1.0960	12.3600
 1.1000	12.4000
 1.1040	12.3400
 1.1080	12.3700
 1.1120	12.3700
 1.1160	12.4100
 1.1200	12.4500
 1.1240	12.3900
 1.1280	12.3900
 1.1320	12.3400
 1.1360	12.3800
 1.1400	12.4000
 1.1440	12.3700
 1.1480	12.3000
 1.1520	12.3000
 1.1560	12.2600
 1.1600	12.3000
 1.1640	12.2900
 1.1680	12.2900
 1.1720	12.2000
 1.1760	12.2500
 1.1800	12.2900
 1.1840	12.1900
 1.1880	12.1800
 1.1920	12.2400
 1.1960	12.2000
 1.2000	12.2500
 1.2040	12.2500
 1.2080	12.2200
 1.2120	12.2100
 1.2160	12.2100
 1.2200	12.2400
 1.2240	12.2100
 1.2280	12.2000
 1.2320	12.2100
 1.2360	12.1100
 1.2400	12.1300
 1.2440	12.1600
 1.2480	12.1400
 1.2520	12.1200
 1.2560	12.1700
 1.2600	12.1200
 1.2640	12.1400
 1.2680	12.0600
 1.2720	12.0800
 1.2760	12.1400
 1.2800	12.1700
 1.2840	12.1000
 1.2880	12.1300
 1.2920	12.0800
 1.2960	12.1100
 1.3000	12.1000
 1.3040	12.1100
 1.3080	12.1300
 1.3120	12.0500
 1.3160	12.0900
 1.3200	12.0500
 1.3240	12.0900
 1.3280	12.1500
 1.3320	12.1200
 1.3360	12.0500
 1.3400	12.0500
 1.3440	12.0500
 1.3480	12.0700
 1.3520	12.0800
 1.3560	12.0800
 1.3600	12.0700
 1.3640	12.0900
 1.3680	12.0900
 1.3720	12.0500
 1.3760	12.0800
 1.3800	12.0700
 1.3840	12.0700
 1.3880	11.9600
 1.3920	12.0900
 1.3960	12.0500
 1.4000	12.0500
 1.4040	11.9600
 1.4080	12.0600
 1.4120	12.1000
 1.4160	12.0200
 1.4200	12.0000
 1.4240	12.0600
 1.4280	12.0100
 1.4320	12.0000
 1.4360	12.0000
 1.4400	12.0100
 1.4440	11.9500
 1.4480	12.0000
 1.4520	12.0400
 1.4560	12.0000
 1.4600	11.9700
 1.4640	11.9400
 1.4680	11.9600
 1.4720	12.0000
 1.4760	11.9200
 1.4800	11.9400
 1.4840	11.9600
 1.4880	12.0000
 1.4920	11.9700
 1.4960	11.9200
 1.5000	11.9200
 1.5040	11.8900
 1.5080	11.9700
 1.5120	11.9600
 1.5160	11.9200
 1.5200	11.8900
 1.5240	11.9300
 1.5280	11.9500
 1.5320	11.9600
 1.5360	11.9200
 1.5400	11.9400
 1.5440	11.9600
 1.5480	11.9200
 1.5520	11.9200
 1.5560	11.9500
 1.5600	11.9200
 1.5640	11.9800
 1.5680	11.9100
 1.5720	11.9300
 1.5760	11.9800
 1.5800	11.9700
 1.5840	11.9600
 1.5880	11.9900
 1.5920	12.0300
 1.5960	11.9700
 1.6000	11.9900
 1.6040	11.9800
 1.6080	11.9500
 1.6120	11.9700
 1.6160	11.9800
 1.6200	11.9700
 1.6240	11.9300
 1.6280	11.9500
 1.6320	11.9200
 1.6360	11.8800
 1.6400	11.9400
 1.6440	11.9100
 1.6480	11.8400
 1.6520	11.8900
 1.6560	11.8900
 1.6600	11.8500
 1.6640	11.8400
 1.6680	11.9000
 1.6720	11.8600
 1.6760	11.9100
 1.6800	11.8700
 1.6840	11.9000
 1.6880	11.9000
 1.6920	11.9000
 1.6960	11.8700
 1.7000	11.8600
 1.7040	11.9000
 1.7080	11.9400
 1.7120	11.9200
 1.7160	11.9200
 1.7200	11.9000
 1.7240	11.9200
 1.7280	11.9500
 1.7320	11.9600
 1.7360	11.8900
 1.7400	11.9700
 1.7440	11.9200
 1.7480	11.9500
 1.7520	11.9600
 1.7560	11.8900
 1.7600	11.8600
 1.7640	11.9400
 1.7680	11.9000
 1.7720	11.9200
 1.7760	11.8900
 1.7800	11.8700
 1.7840	11.9000
 1.7880	11.8400
 1.7920	11.8400
 1.7960	11.8900
 1.8000	11.8800
 1.8040	11.8800
 1.8080	11.9100
 1.8120	11.8900
 1.8160	11.8900
 1.8200	11.9300
 1.8240	11.8500
 1.8280	11.9100
 1.8320	11.9000
 1.8360	11.9500
 1.8400	11.8700
 1.8440	11.9000
 1.8480	11.8700
 1.8520	11.8700
 1.8560	11.8800
 1.8600	11.8600
 1.8640	11.9300
 1.8680	11.9000
 1.8720	11.8900
 1.8760	11.9600
 1.8800	11.9400
 1.8840	11.9200
 1.8880	11.9100
 1.8920	11.9400
 1.8960	11.9300
 1.9000	11.9400
 1.9040	11.9400
 1.9080	11.9700
 1.9120	11.9200
 1.9160	11.9400
 1.9200	11.9000
 1.9240	11.8800
 1.9280	11.9500
 1.9320	11.9200
 1.9360	11.8800
 1.9400	11.8800
 1.9440	11.9100
 1.9480	11.9100
 1.9520	11.9000
 1.9560	11.8400
 1.9600	11.8900
 1.9640	11.8600
 1.9680	11.8800
 1.9720	11.8900
 1.9760	11.8700
 1.9800	11.9400
 1.9840	11.8600
 1.9880	11.9500
 1.9920	11.9600
 1.9960	11.9200
 2.0000	11.9300
 2.0040	11.9300
 2.0080	12.0000
 2.0120	11.9700
 2.0160	11.9900
 2.0200	11.9800
 2.0240	11.9900
 2.0280	12.0200
 2.0320	11.9900
 2.0360	11.9900
 2.0400	12.0700
 2.0440	12.0600
 2.0480	12.0500
 2.0520	12.0000
 2.0560	12.0400
 2.0600	12.0500
 2.0640	12.0000
 2.0680	12.0500
 2.0720	12.0200
 2.0760	12.0300
 2.0800	12.0400
 2.0840	12.0100
 2.0880	12.0700
 2.0920	12.0000
 2.0960	12.0300
 2.1000	12.0300
 2.1040	12.0900
 2.1080	12.0600
 2.1120	12.0200
 2.1160	12.0500
 2.1200	12.0500
 2.1240	12.0800
 2.1280	12.1100
 2.1320	12.0600
 2.1360	12.0500
 2.1400	12.0600
 2.1440	12.0500
 2.1480	12.0100
 2.1520	12.0500
 2.1560	12.0200
 2.1600	12.1100
 2.1640	12.0700
 2.1680	12.0600
 2.1720	12.0900
 2.1760	12.1000
 2.1800	12.1000
 2.1840	12.1000
 2.1880	12.1000
 2.1920	12.0800
 2.1960	12.0600
 2.2000	12.0200
 2.2040	12.0400
 2.2080	11.9800
 2.2120	11.9900
 2.2160	11.9700
 2.2200	12.0500
 2.2240	12.0600
 2.2280	12.0500
 2.2320	12.0500
 2.2360	12.0800
 2.2400	12.0400
 2.2440	12.1100
 2.2480	12.0500
 2.2520	12.1300
 2.2560	12.1500
 2.2600	12.0600
 2.2640	12.1200
 2.2680	12.0900
 2.2720	12.0900
 2.2760	12.0700
 2.2800	12.0800
 2.2840	12.0900
 2.2880	12.1000
 2.2920	12.1000
 2.2960	12.0900
 2.3000	12.0500
 2.3040	12.1000
 2.3080	12.1300
 2.3120	12.0800
 2.3160	12.0800
 2.3200	12.1800
 2.3240	12.1200
 2.3280	12.1600
 2.3320	12.1900
 2.3360	12.1900
 2.3400	12.1600
 2.3440	12.2200
 2.3480	12.1400
 2.3520	12.2000
 2.3560	12.2000
 2.3600	12.2100
 2.3640	12.2200
 2.3680	12.1800
 2.3720	12.2000
 2.3760	12.2800
 2.3800	12.2400
 2.3840	12.3200
 2.3880	12.3100
 2.3920	12.2500
 2.3960	12.2400
 2.4000	12.2600
 2.4040	12.2400
 2.4080	12.2400
 2.4120	12.2800
 2.4160	12.2400
 2.4200	12.2200
 2.4240	12.2300
 2.4280	12.2300
 2.4320	12.2300
 2.4360	12.2300
 2.4400	12.2400
 2.4440	12.2400
 2.4480	12.2000
 2.4520	12.2200
 2.4560	12.2400
 2.4600	12.2600
 2.4640	12.2700
 2.4680	12.2500
 2.4720	12.2700
 2.4760	12.2700
 2.4800	12.3300
 2.4840	12.3000
 2.4880	12.3000
 2.4920	12.4000
 2.4960	12.3700
 2.5000	12.3600
