Name: Columbite Fe^2+Nb_2O_6
Type: Mineral
Class: Oxide
Subclass: None
Particle Size: Medium
Sample No.: O-7A
Owner: JPL
Wavelength Range: VSWIR
Origin: USA, South Dakota, Pennington County, Keystone.
Collection Date: N/A
Description: Particle size was 45-125um.Collected by:  Burminco Original ASTER Spectral Library name was jpl.perkin.mineral.oxide.none.medium.o07a.spectrum.txt
Measurement: Hemispherical reflectance
First Column: X
Second Column: Y
X Units: Wavelength (micrometers)
Y Units:Reflectance (percent)
First X Value:  2.5000
Last X Value:  0.4000
Number of X Values: 2101
Additional Information: mineral.oxide.none.medium.vswir.o-7a.jpl.perkin.ancillary.txt

 2.5000	18.2223
 2.4990	18.1039
 2.4980	18.1865
 2.4970	18.4514
 2.4960	17.9235
 2.4950	18.3453
 2.4940	17.9060
 2.4930	18.0922
 2.4920	18.1024
 2.4910	18.1401
 2.4900	17.9425
 2.4890	18.0953
 2.4880	18.0257
 2.4870	18.1627
 2.4860	18.1801
 2.4850	18.1540
 2.4840	17.8886
 2.4830	18.2053
 2.4820	17.8340
 2.4810	18.0715
 2.4800	18.0423
 2.4790	18.1057
 2.4780	17.9170
 2.4770	18.0913
 2.4760	17.9032
 2.4750	18.1306
 2.4740	17.8673
 2.4730	18.0178
 2.4720	17.9127
 2.4710	18.0769
 2.4700	17.8754
 2.4690	18.0442
 2.4680	17.9788
 2.4670	17.9590
 2.4660	17.8617
 2.4650	18.0222
 2.4640	17.9150
 2.4630	17.9217
 2.4620	17.8412
 2.4610	17.9717
 2.4600	17.8693
 2.4590	17.9657
 2.4580	17.8802
 2.4570	17.8520
 2.4560	17.8039
 2.4550	17.8583
 2.4540	17.7248
 2.4530	17.9623
 2.4520	17.7768
 2.4510	17.8609
 2.4500	17.8377
 2.4490	17.9213
 2.4480	17.7375
 2.4470	17.9058
 2.4460	17.6602
 2.4450	17.8776
 2.4440	17.7213
 2.4430	17.7985
 2.4420	17.6344
 2.4410	17.7418
 2.4400	17.7105
 2.4390	17.7980
 2.4380	17.6206
 2.4370	17.7336
 2.4360	17.7422
 2.4350	17.6677
 2.4340	17.6062
 2.4330	17.7049
 2.4320	17.6826
 2.4310	17.6708
 2.4300	17.5970
 2.4290	17.6807
 2.4280	17.6184
 2.4270	17.6417
 2.4260	17.5621
 2.4250	17.6748
 2.4240	17.5796
 2.4230	17.7041
 2.4220	17.5836
 2.4210	17.5213
 2.4200	17.4673
 2.4190	17.5643
 2.4180	17.4463
 2.4170	17.5442
 2.4160	17.5484
 2.4150	17.5343
 2.4140	17.5150
 2.4130	17.5292
 2.4120	17.4609
 2.4110	17.4465
 2.4100	17.4085
 2.4090	17.4849
 2.4080	17.3793
 2.4070	17.4597
 2.4060	17.3648
 2.4050	17.3889
 2.4040	17.3571
 2.4030	17.4742
 2.4020	17.4033
 2.4010	17.4880
 2.4000	17.4004
 2.3990	17.3756
 2.3980	17.3823
 2.3970	17.4170
 2.3960	17.3577
 2.3950	17.3838
 2.3940	17.3283
 2.3930	17.3171
 2.3920	17.2892
 2.3910	17.3324
 2.3900	17.3062
 2.3890	17.2898
 2.3880	17.2609
 2.3870	17.2971
 2.3860	17.2306
 2.3850	17.2094
 2.3840	17.2000
 2.3830	17.2480
 2.3820	17.1885
 2.3810	17.1973
 2.3800	17.1775
 2.3790	17.1677
 2.3780	17.1249
 2.3770	17.1729
 2.3760	17.2539
 2.3750	17.2159
 2.3740	17.1543
 2.3730	17.1485
 2.3720	17.1473
 2.3710	17.1443
 2.3700	17.1320
 2.3690	17.1734
 2.3680	17.1373
 2.3670	17.0829
 2.3660	17.0618
 2.3650	17.0325
 2.3640	17.0587
 2.3630	17.0457
 2.3620	17.0251
 2.3610	17.0287
 2.3600	16.9969
 2.3590	16.9931
 2.3580	16.9679
 2.3570	16.9934
 2.3560	17.0286
 2.3550	17.0060
 2.3540	16.9936
 2.3530	16.9811
 2.3520	16.9667
 2.3510	16.9110
 2.3500	16.8693
 2.3490	16.9191
 2.3480	16.8919
 2.3470	16.8546
 2.3460	16.9125
 2.3450	16.8886
 2.3440	16.8378
 2.3430	16.8672
 2.3420	16.8452
 2.3410	16.7664
 2.3400	16.8287
 2.3390	16.7861
 2.3380	16.7640
 2.3370	16.8253
 2.3360	16.7610
 2.3350	16.6443
 2.3340	16.7164
 2.3330	16.7353
 2.3320	16.6968
 2.3310	16.7083
 2.3300	16.6890
 2.3290	16.6513
 2.3280	16.6561
 2.3270	16.6286
 2.3260	16.6432
 2.3250	16.6104
 2.3240	16.5983
 2.3230	16.5145
 2.3220	16.5341
 2.3210	16.5456
 2.3200	16.5935
 2.3190	16.5446
 2.3180	16.5881
 2.3170	16.4915
 2.3160	16.4445
 2.3150	16.4371
 2.3140	16.4306
 2.3130	16.4616
 2.3120	16.4324
 2.3110	16.3948
 2.3100	16.4127
 2.3090	16.3660
 2.3080	16.3841
 2.3070	16.3320
 2.3060	16.3447
 2.3050	16.3010
 2.3040	16.2955
 2.3030	16.2974
 2.3020	16.3202
 2.3010	16.2924
 2.3000	16.3492
 2.2990	16.2848
 2.2980	16.2434
 2.2970	16.2315
 2.2960	16.2885
 2.2950	16.1940
 2.2940	16.2599
 2.2930	16.1385
 2.2920	16.1304
 2.2910	16.1478
 2.2900	16.1639
 2.2890	16.0926
 2.2880	16.1868
 2.2870	16.0727
 2.2860	16.0773
 2.2850	16.0689
 2.2840	16.0707
 2.2830	16.0264
 2.2820	16.0096
 2.2810	16.0195
 2.2800	15.9931
 2.2790	15.9712
 2.2780	15.9809
 2.2770	15.9921
 2.2760	16.0146
 2.2750	15.9362
 2.2740	15.9437
 2.2730	15.8361
 2.2720	15.9167
 2.2710	15.9073
 2.2700	15.8826
 2.2690	15.7720
 2.2680	15.8477
 2.2670	15.8006
 2.2660	15.8323
 2.2650	15.7599
 2.2640	15.8297
 2.2630	15.7400
 2.2620	15.7926
 2.2610	15.6911
 2.2600	15.7772
 2.2590	15.6864
 2.2580	15.7409
 2.2570	15.6615
 2.2560	15.6702
 2.2550	15.6592
 2.2540	15.6794
 2.2530	15.6162
 2.2520	15.5950
 2.2510	15.5514
 2.2500	15.5734
 2.2490	15.5582
 2.2480	15.5934
 2.2470	15.5538
 2.2460	15.5451
 2.2450	15.4220
 2.2440	15.6326
 2.2430	15.4860
 2.2420	15.5874
 2.2410	15.4198
 2.2400	15.4434
 2.2390	15.4627
 2.2380	15.4159
 2.2370	15.3931
 2.2360	15.4823
 2.2350	15.2555
 2.2340	15.4089
 2.2330	15.3544
 2.2320	15.4688
 2.2310	15.2719
 2.2300	15.3799
 2.2290	15.2763
 2.2280	15.3846
 2.2270	15.3257
 2.2260	15.2937
 2.2250	15.1073
 2.2240	15.3357
 2.2230	15.1560
 2.2220	15.2915
 2.2210	15.1504
 2.2200	15.2335
 2.2190	15.1048
 2.2180	15.2198
 2.2170	15.1838
 2.2160	15.1592
 2.2150	15.1341
 2.2140	15.2443
 2.2130	15.0304
 2.2120	15.2449
 2.2110	14.9059
 2.2100	15.1394
 2.2090	15.0679
 2.2080	15.1064
 2.2070	15.0196
 2.2060	15.0136
 2.2050	14.9724
 2.2040	15.0172
 2.2030	14.9917
 2.2020	15.0945
 2.2010	14.8808
 2.2000	14.9855
 2.1990	14.9025
 2.1980	15.0513
 2.1970	14.8351
 2.1960	14.9451
 2.1950	14.8177
 2.1940	14.9515
 2.1930	14.8475
 2.1920	14.9685
 2.1910	14.7581
 2.1900	14.8447
 2.1890	14.8489
 2.1880	14.9031
 2.1870	14.7502
 2.1860	14.7753
 2.1850	14.7032
 2.1840	14.8217
 2.1830	14.7354
 2.1820	14.7242
 2.1810	14.6234
 2.1800	14.7730
 2.1790	14.6486
 2.1780	14.7023
 2.1770	14.6097
 2.1760	14.7127
 2.1750	14.5894
 2.1740	14.7465
 2.1730	14.5479
 2.1720	14.6414
 2.1710	14.4796
 2.1700	14.6293
 2.1690	14.5658
 2.1680	14.5798
 2.1670	14.5354
 2.1660	14.5932
 2.1650	14.4389
 2.1640	14.5513
 2.1630	14.4328
 2.1620	14.5120
 2.1610	14.4154
 2.1600	14.4316
 2.1590	14.4305
 2.1580	14.4480
 2.1570	14.4392
 2.1560	14.3729
 2.1550	14.3522
 2.1540	14.3507
 2.1530	14.3329
 2.1520	14.2773
 2.1510	14.2863
 2.1500	14.3023
 2.1490	14.2711
 2.1480	14.2408
 2.1470	14.1660
 2.1460	14.2376
 2.1450	14.1879
 2.1440	14.2212
 2.1430	14.1288
 2.1420	14.1908
 2.1410	14.1196
 2.1400	14.2014
 2.1390	14.1173
 2.1380	14.1126
 2.1370	14.0595
 2.1360	14.0122
 2.1350	14.0111
 2.1340	14.0204
 2.1330	13.9168
 2.1320	13.9657
 2.1310	13.9293
 2.1300	13.9113
 2.1290	13.8448
 2.1280	13.9033
 2.1270	13.8901
 2.1260	13.8323
 2.1250	13.7649
 2.1240	13.7637
 2.1230	13.7296
 2.1220	13.7286
 2.1210	13.6606
 2.1200	13.7201
 2.1190	13.6040
 2.1180	13.5941
 2.1170	13.5823
 2.1160	13.6045
 2.1150	13.5058
 2.1140	13.4712
 2.1130	13.4440
 2.1120	13.4871
 2.1110	13.4428
 2.1100	13.4801
 2.1090	13.3451
 2.1080	13.3363
 2.1070	13.4041
 2.1060	13.3369
 2.1050	13.2807
 2.1040	13.2807
 2.1030	13.2405
 2.1020	13.2520
 2.1010	13.2109
 2.1000	13.1823
 2.0990	13.0990
 2.0980	13.1052
 2.0970	13.0961
 2.0960	13.1103
 2.0950	13.0559
 2.0940	13.0868
 2.0930	13.0546
 2.0920	13.0261
 2.0910	13.0072
 2.0900	12.9813
 2.0890	12.9526
 2.0880	12.9316
 2.0870	12.9302
 2.0860	12.9241
 2.0850	12.8818
 2.0840	12.8340
 2.0830	12.8469
 2.0820	12.9016
 2.0810	12.8648
 2.0800	12.8253
 2.0790	12.8286
 2.0780	12.7855
 2.0770	12.7045
 2.0760	12.7774
 2.0750	12.7712
 2.0740	12.7063
 2.0730	12.6990
 2.0720	12.7106
 2.0710	12.6882
 2.0700	12.6915
 2.0690	12.6942
 2.0680	12.6116
 2.0670	12.5711
 2.0660	12.6005
 2.0650	12.5542
 2.0640	12.5330
 2.0630	12.5966
 2.0620	12.5503
 2.0610	12.5290
 2.0600	12.5217
 2.0590	12.4716
 2.0580	12.4328
 2.0570	12.4734
 2.0560	12.4193
 2.0550	12.4254
 2.0540	12.4198
 2.0530	12.3745
 2.0520	12.3524
 2.0510	12.3336
 2.0500	12.2982
 2.0490	12.3043
 2.0480	12.2720
 2.0470	12.2416
 2.0460	12.2413
 2.0450	12.2584
 2.0440	12.1822
 2.0430	12.1795
 2.0420	12.1623
 2.0410	12.2399
 2.0400	12.1621
 2.0390	12.0964
 2.0380	12.0978
 2.0370	12.1448
 2.0360	12.1057
 2.0350	12.0928
 2.0340	11.9799
 2.0330	11.9979
 2.0320	11.9877
 2.0310	12.0348
 2.0300	11.9380
 2.0290	11.9322
 2.0280	11.8884
 2.0270	11.8441
 2.0260	11.8235
 2.0250	11.9010
 2.0240	11.8595
 2.0230	11.8308
 2.0220	11.8257
 2.0210	11.8339
 2.0200	11.7517
 2.0190	11.7777
 2.0180	11.7194
 2.0170	11.6805
 2.0160	11.6651
 2.0150	11.6275
 2.0140	11.6229
 2.0130	11.7136
 2.0120	11.5696
 2.0110	11.6356
 2.0100	11.5841
 2.0090	11.5045
 2.0080	11.4854
 2.0070	11.5290
 2.0060	11.4277
 2.0050	11.4853
 2.0040	11.4132
 2.0030	11.4739
 2.0020	11.3899
 2.0010	11.3638
 2.0000	11.3229
 1.9990	11.4009
 1.9980	11.3064
 1.9970	11.3149
 1.9960	11.2236
 1.9950	11.3385
 1.9940	11.2547
 1.9930	11.2857
 1.9920	11.1807
 1.9910	11.2088
 1.9900	11.1515
 1.9890	11.1917
 1.9880	11.0503
 1.9870	11.2014
 1.9860	11.0419
 1.9850	11.1437
 1.9840	11.1135
 1.9830	11.0402
 1.9820	10.9773
 1.9810	11.0271
 1.9800	10.9287
 1.9790	10.9730
 1.9780	10.9104
 1.9770	10.9651
 1.9760	10.8474
 1.9750	10.9271
 1.9740	10.8543
 1.9730	10.8796
 1.9720	10.8049
 1.9710	10.8387
 1.9700	10.6659
 1.9690	10.7679
 1.9680	10.6389
 1.9670	10.7838
 1.9660	10.5945
 1.9650	10.7451
 1.9640	10.5520
 1.9630	10.7254
 1.9620	10.5357
 1.9610	10.6338
 1.9600	10.5946
 1.9590	10.6325
 1.9580	10.4954
 1.9570	10.6442
 1.9560	10.3801
 1.9550	10.5867
 1.9540	10.7517
 1.9530	11.0148
 1.9520	10.8522
 1.9510	10.7229
 1.9500	10.7410
 1.9490	10.7595
 1.9480	10.5497
 1.9470	10.6631
 1.9460	10.4771
 1.9450	10.5619
 1.9440	10.3532
 1.9430	10.5352
 1.9420	10.3777
 1.9410	10.4359
 1.9400	10.2349
 1.9390	10.4266
 1.9380	10.2924
 1.9370	10.3108
 1.9360	10.1617
 1.9350	10.2812
 1.9340	10.1410
 1.9330	10.2395
 1.9320	10.0387
 1.9310	10.2395
 1.9300	10.0229
 1.9290	10.1628
 1.9280	10.0698
 1.9270	10.1882
 1.9260	 9.7466
 1.9250	10.1832
 1.9240	 9.8786
 1.9230	 9.9616
 1.9220	 9.9143
 1.9210	 9.9982
 1.9200	 9.8379
 1.9190	 9.9192
 1.9180	 9.8290
 1.9170	 9.9012
 1.9160	 9.8248
 1.9150	 9.9509
 1.9140	 9.7261
 1.9130	 9.8704
 1.9120	 9.7157
 1.9110	 9.8494
 1.9100	 9.7034
 1.9090	 9.7495
 1.9080	 9.7337
 1.9070	 9.7805
 1.9060	 9.6279
 1.9050	 9.7241
 1.9040	 9.5730
 1.9030	 9.6754
 1.9020	 9.5975
 1.9010	 9.5896
 1.9000	 9.5519
 1.8990	 9.6172
 1.8980	 9.5117
 1.8970	 9.5811
 1.8960	 9.4719
 1.8950	 9.5381
 1.8940	 9.4771
 1.8930	 9.5750
 1.8920	 9.4395
 1.8910	 9.4306
 1.8900	 9.4123
 1.8890	 9.4563
 1.8880	 9.2887
 1.8870	 9.4239
 1.8860	 9.3310
 1.8850	 9.4102
 1.8840	 9.3503
 1.8830	 9.4530
 1.8820	 9.2719
 1.8810	 9.3083
 1.8800	 9.2614
 1.8790	 9.3646
 1.8780	 9.1897
 1.8770	 9.3729
 1.8760	 9.1898
 1.8750	 9.2473
 1.8740	 9.1489
 1.8730	 9.2413
 1.8720	 9.1446
 1.8710	 9.1489
 1.8700	 9.1113
 1.8690	 9.1625
 1.8680	 9.0795
 1.8670	 9.1201
 1.8660	 9.1355
 1.8650	 9.1610
 1.8640	 9.0838
 1.8630	 9.0401
 1.8620	 9.0319
 1.8610	 9.0146
 1.8600	 8.9853
 1.8590	 9.0576
 1.8580	 8.9766
 1.8570	 9.0090
 1.8560	 8.9180
 1.8550	 9.0344
 1.8540	 8.8626
 1.8530	 8.9853
 1.8520	 8.9241
 1.8510	 8.9229
 1.8500	 8.8146
 1.8490	 8.9117
 1.8480	 8.7892
 1.8470	 8.7780
 1.8460	 8.7755
 1.8450	 8.8187
 1.8440	 8.7535
 1.8430	 8.7183
 1.8420	 8.7201
 1.8410	 8.7349
 1.8400	 8.7030
 1.8390	 8.7636
 1.8380	 8.6992
 1.8370	 8.6771
 1.8360	 8.6494
 1.8350	 8.6808
 1.8340	 8.6402
 1.8330	 8.7009
 1.8320	 8.5675
 1.8310	 8.5921
 1.8300	 8.5678
 1.8290	 8.6250
 1.8280	 8.6582
 1.8270	 8.6579
 1.8260	 8.5973
 1.8250	 8.6102
 1.8240	 8.4937
 1.8230	 8.5503
 1.8220	 8.5071
 1.8210	 8.5008
 1.8200	 8.4309
 1.8190	 8.4726
 1.8180	 8.4310
 1.8170	 8.4872
 1.8160	 8.4649
 1.8150	 8.4389
 1.8140	 8.3927
 1.8130	 8.4320
 1.8120	 8.4126
 1.8110	 8.3501
 1.8100	 8.2846
 1.8090	 8.3170
 1.8080	 8.3199
 1.8070	 8.3344
 1.8060	 8.2994
 1.8050	 8.3487
 1.8040	 8.2923
 1.8030	 8.2799
 1.8020	 8.2889
 1.8010	 8.3066
 1.8000	 8.2440
 1.7990	 8.2266
 1.7980	 8.2632
 1.7970	 8.2557
 1.7960	 8.2537
 1.7950	 8.2658
 1.7940	 8.2216
 1.7930	 8.2098
 1.7920	 8.2054
 1.7910	 8.1203
 1.7900	 8.1249
 1.7890	 8.1686
 1.7880	 8.1422
 1.7870	 8.1243
 1.7860	 8.0746
 1.7850	 8.0639
 1.7840	 8.0610
 1.7830	 8.0817
 1.7820	 8.0869
 1.7810	 8.0433
 1.7800	 8.0322
 1.7790	 8.0213
 1.7780	 8.0175
 1.7770	 7.9565
 1.7760	 7.9992
 1.7750	 7.9901
 1.7740	 7.9676
 1.7730	 7.9630
 1.7720	 7.9380
 1.7710	 7.9527
 1.7700	 7.9370
 1.7690	 7.9586
 1.7680	 7.9584
 1.7670	 7.8966
 1.7660	 7.9128
 1.7650	 7.9186
 1.7640	 7.9149
 1.7630	 7.8114
 1.7620	 7.8692
 1.7610	 7.8730
 1.7600	 7.8478
 1.7590	 7.8264
 1.7580	 7.7826
 1.7570	 7.7909
 1.7560	 7.8431
 1.7550	 7.8727
 1.7540	 7.7897
 1.7530	 7.7291
 1.7520	 7.7812
 1.7510	 7.7497
 1.7500	 7.7641
 1.7490	 7.7573
 1.7480	 7.7649
 1.7470	 7.6814
 1.7460	 7.7208
 1.7450	 7.7311
 1.7440	 7.7429
 1.7430	 7.6785
 1.7420	 7.6733
 1.7410	 7.6647
 1.7400	 7.6982
 1.7390	 7.6788
 1.7380	 7.7414
 1.7370	 7.7004
 1.7360	 7.6635
 1.7350	 7.6075
 1.7340	 7.6590
 1.7330	 7.6444
 1.7320	 7.5891
 1.7310	 7.5883
 1.7300	 7.6091
 1.7290	 7.5230
 1.7280	 7.5531
 1.7270	 7.6120
 1.7260	 7.5597
 1.7250	 7.5116
 1.7240	 7.5606
 1.7230	 7.5067
 1.7220	 7.5311
 1.7210	 7.4659
 1.7200	 7.5499
 1.7190	 7.4679
 1.7180	 7.5495
 1.7170	 7.4441
 1.7160	 7.4804
 1.7150	 7.4500
 1.7140	 7.4832
 1.7130	 7.4756
 1.7120	 7.5282
 1.7110	 7.4645
 1.7100	 7.5283
 1.7090	 7.3803
 1.7080	 7.5134
 1.7070	 7.4554
 1.7060	 7.4594
 1.7050	 7.3411
 1.7040	 7.4468
 1.7030	 7.3314
 1.7020	 7.5034
 1.7010	 7.3310
 1.7000	 7.4723
 1.6990	 7.3828
 1.6980	 7.4052
 1.6970	 7.3639
 1.6960	 7.3657
 1.6950	 7.3564
 1.6940	 7.3880
 1.6930	 7.3348
 1.6920	 7.3528
 1.6910	 7.1968
 1.6900	 7.3641
 1.6890	 7.2501
 1.6880	 7.4674
 1.6870	 7.2438
 1.6860	 7.3398
 1.6850	 7.2383
 1.6840	 7.3672
 1.6830	 7.2707
 1.6820	 7.3340
 1.6810	 7.3187
 1.6800	 7.3827
 1.6790	 7.1977
 1.6780	 7.3158
 1.6770	 7.3060
 1.6760	 7.3200
 1.6750	 7.1630
 1.6740	 7.2792
 1.6730	 7.1510
 1.6720	 7.3067
 1.6710	 7.0786
 1.6700	 7.3105
 1.6690	 7.3832
 1.6680	 7.0755
 1.6670	 7.2378
 1.6660	 7.1827
 1.6650	 7.1299
 1.6640	 7.2889
 1.6630	 7.1990
 1.6620	 7.1733
 1.6610	 7.1672
 1.6600	 7.2136
 1.6590	 7.1754
 1.6580	 7.2717
 1.6570	 7.1844
 1.6560	 7.1247
 1.6550	 7.0635
 1.6540	 7.2477
 1.6530	 7.1640
 1.6520	 7.2130
 1.6510	 7.0988
 1.6500	 7.2448
 1.6490	 7.0881
 1.6480	 7.1835
 1.6470	 7.0900
 1.6460	 7.1668
 1.6450	 6.9913
 1.6440	 7.1442
 1.6430	 7.1013
 1.6420	 7.2339
 1.6410	 6.9276
 1.6400	 7.2301
 1.6390	 7.0675
 1.6380	 7.1849
 1.6370	 6.9523
 1.6360	 7.0497
 1.6350	 7.0836
 1.6340	 7.1051
 1.6330	 7.0245
 1.6320	 7.0741
 1.6310	 7.0028
 1.6300	 7.1253
 1.6290	 6.9580
 1.6280	 7.1193
 1.6270	 7.0007
 1.6260	 7.1061
 1.6250	 7.0772
 1.6240	 7.0651
 1.6230	 6.9594
 1.6220	 7.0720
 1.6210	 7.0316
 1.6200	 7.0982
 1.6190	 6.9707
 1.6180	 7.0447
 1.6170	 6.9715
 1.6160	 7.1228
 1.6150	 7.0170
 1.6140	 7.0007
 1.6130	 6.9830
 1.6120	 7.0959
 1.6110	 6.9748
 1.6100	 7.0374
 1.6090	 6.9316
 1.6080	 7.0246
 1.6070	 7.0026
 1.6060	 6.9872
 1.6050	 6.9335
 1.6040	 7.0348
 1.6030	 6.9996
 1.6020	 7.0066
 1.6010	 6.9476
 1.6000	 7.0797
 1.5990	 6.9284
 1.5980	 7.0084
 1.5970	 6.9539
 1.5960	 7.0077
 1.5950	 6.9219
 1.5940	 7.0023
 1.5930	 6.8592
 1.5920	 6.9801
 1.5910	 6.9285
 1.5900	 6.9931
 1.5890	 6.8427
 1.5880	 6.9571
 1.5870	 6.9434
 1.5860	 6.9931
 1.5850	 6.9839
 1.5840	 6.9719
 1.5830	 6.9192
 1.5820	 6.9972
 1.5810	 6.8855
 1.5800	 6.9992
 1.5790	 6.9869
 1.5780	 6.9687
 1.5770	 6.9100
 1.5760	 6.9025
 1.5750	 6.8703
 1.5740	 6.9740
 1.5730	 6.8204
 1.5720	 6.9846
 1.5710	 6.8725
 1.5700	 6.8728
 1.5690	 6.8838
 1.5680	 7.0014
 1.5670	 6.8723
 1.5660	 6.9760
 1.5650	 6.9160
 1.5640	 6.9558
 1.5630	 6.8893
 1.5620	 6.9331
 1.5610	 6.9162
 1.5600	 6.9755
 1.5590	 6.8829
 1.5580	 6.9045
 1.5570	 6.8836
 1.5560	 6.9180
 1.5550	 6.8878
 1.5540	 6.9519
 1.5530	 6.8535
 1.5520	 6.8833
 1.5510	 6.8411
 1.5500	 6.8600
 1.5490	 6.8678
 1.5480	 6.9173
 1.5470	 6.8536
 1.5460	 6.8895
 1.5450	 6.8073
 1.5440	 6.8398
 1.5430	 6.8348
 1.5420	 6.8688
 1.5410	 6.8456
 1.5400	 6.8914
 1.5390	 6.8486
 1.5380	 6.8717
 1.5370	 6.8515
 1.5360	 6.9007
 1.5350	 6.8635
 1.5340	 6.8850
 1.5330	 6.8593
 1.5320	 6.9452
 1.5310	 6.8511
 1.5300	 6.8569
 1.5290	 6.8229
 1.5280	 6.7995
 1.5270	 6.8219
 1.5260	 6.8398
 1.5250	 6.8156
 1.5240	 6.8003
 1.5230	 6.8144
 1.5220	 6.8956
 1.5210	 6.8957
 1.5200	 6.8803
 1.5190	 6.8147
 1.5180	 6.8525
 1.5170	 6.8222
 1.5160	 6.8126
 1.5150	 6.7781
 1.5140	 6.8030
 1.5130	 6.8478
 1.5120	 6.8881
 1.5110	 6.7884
 1.5100	 6.7729
 1.5090	 6.7827
 1.5080	 6.7692
 1.5070	 6.8104
 1.5060	 6.8477
 1.5050	 6.8008
 1.5040	 6.7973
 1.5030	 6.8242
 1.5020	 6.7791
 1.5010	 6.7738
 1.5000	 6.7955
 1.4990	 6.7968
 1.4980	 6.7851
 1.4970	 6.7606
 1.4960	 6.7490
 1.4950	 6.7938
 1.4940	 6.7905
 1.4930	 6.7610
 1.4920	 6.7651
 1.4910	 6.8499
 1.4900	 6.8535
 1.4890	 6.7911
 1.4880	 6.8047
 1.4870	 6.8380
 1.4860	 6.7971
 1.4850	 6.8602
 1.4840	 6.8114
 1.4830	 6.7889
 1.4820	 6.7756
 1.4810	 6.7287
 1.4800	 6.7806
 1.4790	 6.8130
 1.4780	 6.7335
 1.4770	 6.7949
 1.4760	 6.7560
 1.4750	 6.7809
 1.4740	 6.7470
 1.4730	 6.7805
 1.4720	 6.7792
 1.4710	 6.7952
 1.4700	 6.7530
 1.4690	 6.7749
 1.4680	 6.8185
 1.4670	 6.8203
 1.4660	 6.7678
 1.4650	 6.7388
 1.4640	 6.7128
 1.4630	 6.7654
 1.4620	 6.7417
 1.4610	 6.8064
 1.4600	 6.7536
 1.4590	 6.7496
 1.4580	 6.7270
 1.4570	 6.7428
 1.4560	 6.7393
 1.4550	 6.8095
 1.4540	 6.7766
 1.4530	 6.7712
 1.4520	 6.7478
 1.4510	 6.7219
 1.4500	 6.7505
 1.4490	 6.7586
 1.4480	 6.6816
 1.4470	 6.7046
 1.4460	 6.7047
 1.4450	 6.8048
 1.4440	 6.6762
 1.4430	 6.7382
 1.4420	 6.6746
 1.4410	 6.7070
 1.4400	 6.7448
 1.4390	 6.7584
 1.4380	 6.7014
 1.4370	 6.7853
 1.4360	 6.7460
 1.4350	 6.7750
 1.4340	 6.6590
 1.4330	 6.7340
 1.4320	 6.7101
 1.4310	 6.7738
 1.4300	 6.7044
 1.4290	 6.7630
 1.4280	 6.7265
 1.4270	 6.7437
 1.4260	 6.6731
 1.4250	 6.7591
 1.4240	 6.6826
 1.4230	 6.7525
 1.4220	 6.7039
 1.4210	 6.7802
 1.4200	 6.6449
 1.4190	 6.7768
 1.4180	 6.6731
 1.4170	 6.7485
 1.4160	 6.7056
 1.4150	 6.7432
 1.4140	 6.6384
 1.4130	 6.7417
 1.4120	 6.6905
 1.4110	 6.7959
 1.4100	 6.7169
 1.4090	 6.6793
 1.4080	 6.6550
 1.4070	 6.6605
 1.4060	 6.6038
 1.4050	 6.7639
 1.4040	 6.7322
 1.4030	 6.7824
 1.4020	 6.6687
 1.4010	 6.7451
 1.4000	 6.6632
 1.3990	 6.7227
 1.3980	 6.5800
 1.3970	 6.7960
 1.3960	 6.6844
 1.3950	 6.6956
 1.3940	 6.5464
 1.3930	 6.6765
 1.3920	 6.6227
 1.3910	 6.8169
 1.3900	 6.6801
 1.3890	 6.7158
 1.3880	 6.6028
 1.3870	 6.7113
 1.3860	 6.6307
 1.3850	 6.7880
 1.3840	 6.6684
 1.3830	 6.6508
 1.3820	 6.5784
 1.3810	 6.6641
 1.3800	 6.5887
 1.3790	 6.7082
 1.3780	 6.7045
 1.3770	 6.6935
 1.3760	 6.6779
 1.3750	 6.7403
 1.3740	 6.5361
 1.3730	 6.7187
 1.3720	 6.6145
 1.3710	 6.7249
 1.3700	 6.5173
 1.3690	 6.7007
 1.3680	 6.6388
 1.3670	 6.7651
 1.3660	 6.5938
 1.3650	 6.7726
 1.3640	 6.4988
 1.3630	 6.7902
 1.3620	 6.5640
 1.3610	 6.6023
 1.3600	 6.5544
 1.3590	 6.6214
 1.3580	 6.6693
 1.3570	 6.6086
 1.3560	 6.6947
 1.3550	 6.4433
 1.3540	 6.7074
 1.3530	 6.6812
 1.3520	 6.5443
 1.3510	 6.6939
 1.3500	 6.6082
 1.3490	 6.6815
 1.3480	 6.6254
 1.3470	 6.6441
 1.3460	 6.6082
 1.3450	 6.6938
 1.3440	 6.5476
 1.3430	 6.6610
 1.3420	 6.5859
 1.3410	 6.6533
 1.3400	 6.5560
 1.3390	 6.6263
 1.3380	 6.4673
 1.3370	 6.7117
 1.3360	 6.5657
 1.3350	 6.6296
 1.3340	 6.5662
 1.3330	 6.6326
 1.3320	 6.6734
 1.3310	 6.6052
 1.3300	 6.5296
 1.3290	 6.6492
 1.3280	 6.5254
 1.3270	 6.5891
 1.3260	 6.5805
 1.3250	 6.6035
 1.3240	 6.5565
 1.3230	 6.6364
 1.3220	 6.5075
 1.3210	 6.7063
 1.3200	 6.5244
 1.3190	 6.6027
 1.3180	 6.5088
 1.3170	 6.6152
 1.3160	 6.5715
 1.3150	 6.6156
 1.3140	 6.4897
 1.3130	 6.6196
 1.3120	 6.5104
 1.3110	 6.6860
 1.3100	 6.5445
 1.3090	 6.6195
 1.3080	 6.5303
 1.3070	 6.6687
 1.3060	 6.5344
 1.3050	 6.6194
 1.3040	 6.5504
 1.3030	 6.6235
 1.3020	 6.4956
 1.3010	 6.5404
 1.3000	 6.5162
 1.2990	 6.5402
 1.2980	 6.5328
 1.2970	 6.5812
 1.2960	 6.5406
 1.2950	 6.6083
 1.2940	 6.5967
 1.2930	 6.5467
 1.2920	 6.5067
 1.2910	 6.6194
 1.2900	 6.5968
 1.2890	 6.6259
 1.2880	 6.4976
 1.2870	 6.5966
 1.2860	 6.5256
 1.2850	 6.5262
 1.2840	 6.5307
 1.2830	 6.5891
 1.2820	 6.5332
 1.2810	 6.6286
 1.2800	 6.5032
 1.2790	 6.6033
 1.2780	 6.5394
 1.2770	 6.5577
 1.2760	 6.5077
 1.2750	 6.5665
 1.2740	 6.5364
 1.2730	 6.5183
 1.2720	 6.4790
 1.2710	 6.5576
 1.2700	 6.5255
 1.2690	 6.5515
 1.2680	 6.4236
 1.2670	 6.5069
 1.2660	 6.5012
 1.2650	 6.5401
 1.2640	 6.5025
 1.2630	 6.5490
 1.2620	 6.5575
 1.2610	 6.5587
 1.2600	 6.4685
 1.2590	 6.4915
 1.2580	 6.5271
 1.2570	 6.5243
 1.2560	 6.5154
 1.2550	 6.5337
 1.2540	 6.5120
 1.2530	 6.4902
 1.2520	 6.5173
 1.2510	 6.5402
 1.2500	 6.5178
 1.2490	 6.5643
 1.2480	 6.5156
 1.2470	 6.5655
 1.2460	 6.5041
 1.2450	 6.4852
 1.2440	 6.5508
 1.2430	 6.6141
 1.2420	 6.5481
 1.2410	 6.4865
 1.2400	 6.4779
 1.2390	 6.5510
 1.2380	 6.5058
 1.2370	 6.5310
 1.2360	 6.5397
 1.2350	 6.5256
 1.2340	 6.5226
 1.2330	 6.4946
 1.2320	 6.4982
 1.2310	 6.5076
 1.2300	 6.5016
 1.2290	 6.5611
 1.2280	 6.5205
 1.2270	 6.4983
 1.2260	 6.5155
 1.2250	 6.5135
 1.2240	 6.4607
 1.2230	 6.4985
 1.2220	 6.5142
 1.2210	 6.5035
 1.2200	 6.4674
 1.2190	 6.4964
 1.2180	 6.5077
 1.2170	 6.5200
 1.2160	 6.5693
 1.2150	 6.5295
 1.2140	 6.4858
 1.2130	 6.4848
 1.2120	 6.4776
 1.2110	 6.4743
 1.2100	 6.4812
 1.2090	 6.5035
 1.2080	 6.5181
 1.2070	 6.5341
 1.2060	 6.5029
 1.2050	 6.4616
 1.2040	 6.4803
 1.2030	 6.4704
 1.2020	 6.5174
 1.2010	 6.4991
 1.2000	 6.4959
 1.1990	 6.5082
 1.1980	 6.5563
 1.1970	 6.5025
 1.1960	 6.5395
 1.1950	 6.3971
 1.1940	 6.4514
 1.1930	 6.5117
 1.1920	 6.4434
 1.1910	 6.4748
 1.1900	 6.4867
 1.1890	 6.5194
 1.1880	 6.4068
 1.1870	 6.4464
 1.1860	 6.5477
 1.1850	 6.4389
 1.1840	 6.4582
 1.1830	 6.4274
 1.1820	 6.4642
 1.1810	 6.3949
 1.1800	 6.4369
 1.1790	 6.5115
 1.1780	 6.5105
 1.1770	 6.4313
 1.1760	 6.4965
 1.1750	 6.4762
 1.1740	 6.4516
 1.1730	 6.4413
 1.1720	 6.4477
 1.1710	 6.4174
 1.1700	 6.4657
 1.1690	 6.4347
 1.1680	 6.4820
 1.1670	 6.4613
 1.1660	 6.4934
 1.1650	 6.5108
 1.1640	 6.5132
 1.1630	 6.4529
 1.1620	 6.4656
 1.1610	 6.4944
 1.1600	 6.5216
 1.1590	 6.4544
 1.1580	 6.5242
 1.1570	 6.4584
 1.1560	 6.5162
 1.1550	 6.4437
 1.1540	 6.5244
 1.1530	 6.4181
 1.1520	 6.5058
 1.1510	 6.4360
 1.1500	 6.5322
 1.1490	 6.4266
 1.1480	 6.4966
 1.1470	 6.4448
 1.1460	 6.5223
 1.1450	 6.4244
 1.1440	 6.4544
 1.1430	 6.4624
 1.1420	 6.5059
 1.1410	 6.4408
 1.1400	 6.4903
 1.1390	 6.4105
 1.1380	 6.5621
 1.1370	 6.4728
 1.1360	 6.5370
 1.1350	 6.4375
 1.1340	 6.5144
 1.1330	 6.4851
 1.1320	 6.5341
 1.1310	 6.4488
 1.1300	 6.5855
 1.1290	 6.3512
 1.1280	 6.5144
 1.1270	 6.4180
 1.1260	 6.5071
 1.1250	 6.3990
 1.1240	 6.5452
 1.1230	 6.4483
 1.1220	 6.5175
 1.1210	 6.4066
 1.1200	 6.3864
 1.1190	 6.4217
 1.1180	 6.5324
 1.1170	 6.3901
 1.1160	 6.4910
 1.1150	 6.4067
 1.1140	 6.4567
 1.1130	 6.4908
 1.1120	 6.5192
 1.1110	 6.3733
 1.1100	 6.4817
 1.1090	 6.4305
 1.1080	 6.5094
 1.1070	 6.3616
 1.1060	 6.5244
 1.1050	 6.4960
 1.1040	 6.5131
 1.1030	 6.3339
 1.1020	 6.5378
 1.1010	 6.3766
 1.1000	 6.5197
 1.0990	 6.4898
 1.0980	 6.5315
 1.0970	 6.4182
 1.0960	 6.5643
 1.0950	 6.3909
 1.0940	 6.5202
 1.0930	 6.5215
 1.0920	 6.5336
 1.0910	 6.4245
 1.0900	 6.4798
 1.0890	 6.4899
 1.0880	 6.4868
 1.0870	 6.3258
 1.0860	 6.5633
 1.0850	 6.4315
 1.0840	 6.5103
 1.0830	 6.4172
 1.0820	 6.5841
 1.0810	 6.3595
 1.0800	 6.3842
 1.0790	 6.4075
 1.0780	 6.4877
 1.0770	 6.4208
 1.0760	 6.5867
 1.0750	 6.3500
 1.0740	 6.5396
 1.0730	 6.3568
 1.0720	 6.4580
 1.0710	 6.5398
 1.0700	 6.2500
 1.0690	 6.4268
 1.0680	 6.5417
 1.0670	 6.3642
 1.0660	 6.5990
 1.0650	 6.3129
 1.0640	 6.4873
 1.0630	 6.3890
 1.0620	 6.4853
 1.0610	 6.4264
 1.0600	 6.5142
 1.0590	 6.3902
 1.0580	 6.4872
 1.0570	 6.3639
 1.0560	 6.5338
 1.0550	 6.4147
 1.0540	 6.5396
 1.0530	 6.3880
 1.0520	 6.5015
 1.0510	 6.3292
 1.0500	 6.4642
 1.0490	 6.3618
 1.0480	 6.4467
 1.0470	 6.3913
 1.0460	 6.4710
 1.0450	 6.5155
 1.0440	 6.4094
 1.0430	 6.4126
 1.0420	 6.4624
 1.0410	 6.3680
 1.0400	 6.5158
 1.0390	 6.3464
 1.0380	 6.4661
 1.0370	 6.3996
 1.0360	 6.4756
 1.0350	 6.3361
 1.0340	 6.5239
 1.0330	 6.3629
 1.0320	 6.5655
 1.0310	 6.3328
 1.0300	 6.4174
 1.0290	 6.3376
 1.0280	 6.4453
 1.0270	 6.3538
 1.0260	 6.4327
 1.0250	 6.3578
 1.0240	 6.4143
 1.0230	 6.3625
 1.0220	 6.4664
 1.0210	 6.3520
 1.0200	 6.4716
 1.0190	 6.4276
 1.0180	 6.4616
 1.0170	 6.3152
 1.0160	 6.4187
 1.0150	 6.3990
 1.0140	 6.4781
 1.0130	 6.4351
 1.0120	 6.4228
 1.0110	 6.3398
 1.0100	 6.4225
 1.0090	 6.4226
 1.0080	 6.3771
 1.0070	 6.3384
 1.0060	 6.4249
 1.0050	 6.3946
 1.0040	 6.4069
 1.0030	 6.3477
 1.0020	 6.4134
 1.0010	 6.4056
 1.0000	 6.3930
 0.9990	 6.3306
 0.9980	 6.4075
 0.9970	 6.3205
 0.9960	 6.3903
 0.9950	 6.3445
 0.9940	 6.4165
 0.9930	 6.3441
 0.9920	 6.3638
 0.9910	 6.3411
 0.9900	 6.3856
 0.9890	 6.2981
 0.9880	 6.4051
 0.9870	 6.3971
 0.9860	 6.4279
 0.9850	 6.3541
 0.9840	 6.4564
 0.9830	 6.3507
 0.9820	 6.3417
 0.9810	 6.3301
 0.9800	 6.3482
 0.9790	 6.2748
 0.9780	 6.3268
 0.9770	 6.3264
 0.9760	 6.3867
 0.9750	 6.3949
 0.9740	 6.4049
 0.9730	 6.3377
 0.9720	 6.3333
 0.9710	 6.3040
 0.9700	 6.3541
 0.9690	 6.3466
 0.9680	 6.3771
 0.9670	 6.2558
 0.9660	 6.3186
 0.9650	 6.3446
 0.9640	 6.3638
 0.9630	 6.2748
 0.9620	 6.3383
 0.9610	 6.2722
 0.9600	 6.3574
 0.9590	 6.3396
 0.9580	 6.3100
 0.9570	 6.2971
 0.9560	 6.3518
 0.9550	 6.3501
 0.9540	 6.3261
 0.9530	 6.2625
 0.9520	 6.3272
 0.9510	 6.3556
 0.9500	 6.4064
 0.9490	 6.3615
 0.9480	 6.3023
 0.9470	 6.2424
 0.9460	 6.3179
 0.9450	 6.3502
 0.9440	 6.3465
 0.9430	 6.2632
 0.9420	 6.2994
 0.9410	 6.3489
 0.9400	 6.3850
 0.9390	 6.3365
 0.9380	 6.2942
 0.9370	 6.2741
 0.9360	 6.2744
 0.9350	 6.3459
 0.9340	 6.3320
 0.9330	 6.2842
 0.9320	 6.2546
 0.9310	 6.2353
 0.9300	 6.3180
 0.9290	 6.3315
 0.9280	 6.3139
 0.9270	 6.3063
 0.9260	 6.3043
 0.9250	 6.2850
 0.9240	 6.2554
 0.9230	 6.3039
 0.9220	 6.2393
 0.9210	 6.2416
 0.9200	 6.2724
 0.9190	 6.3004
 0.9180	 6.3080
 0.9170	 6.2374
 0.9160	 6.2203
 0.9150	 6.2332
 0.9140	 6.2700
 0.9130	 6.2794
 0.9120	 6.2093
 0.9110	 6.2650
 0.9100	 6.2450
 0.9090	 6.2147
 0.9080	 6.2083
 0.9070	 6.2677
 0.9060	 6.2208
 0.9050	 6.2565
 0.9040	 6.2554
 0.9030	 6.3026
 0.9020	 6.2814
 0.9010	 6.2610
 0.9000	 6.2374
 0.8990	 6.2541
 0.8980	 6.2357
 0.8970	 6.3120
 0.8960	 6.2425
 0.8950	 6.2543
 0.8940	 6.1984
 0.8930	 6.2591
 0.8920	 6.2095
 0.8910	 6.2415
 0.8900	 6.2370
 0.8890	 6.2720
 0.8880	 6.1628
 0.8870	 6.1945
 0.8860	 6.2308
 0.8850	 6.2963
 0.8840	 6.2021
 0.8830	 6.2248
 0.8820	 6.1900
 0.8810	 6.2623
 0.8800	 6.1876
 0.8790	 6.2291
 0.8780	 6.1990
 0.8770	 6.2431
 0.8760	 6.1745
 0.8750	 6.2231
 0.8740	 6.1923
 0.8730	 6.2494
 0.8720	 6.2071
 0.8710	 6.2814
 0.8700	 6.2247
 0.8690	 6.2584
 0.8680	 6.2048
 0.8670	 6.2247
 0.8660	 6.2063
 0.8650	 6.2570
 0.8640	 6.2235
 0.8630	 6.2413
 0.8620	 6.2023
 0.8610	 6.2245
 0.8600	 6.4254
 0.8590	 6.5149
 0.8580	 6.5094
 0.8570	 6.4827
 0.8560	 6.4889
 0.8550	 6.4902
 0.8540	 6.4823
 0.8530	 6.4801
 0.8520	 6.4961
 0.8510	 6.4982
 0.8500	 6.4874
 0.8490	 6.4789
 0.8480	 6.4885
 0.8470	 6.4684
 0.8460	 6.4729
 0.8450	 6.4724
 0.8440	 6.4695
 0.8430	 6.4678
 0.8420	 6.4629
 0.8410	 6.4651
 0.8400	 6.4631
 0.8390	 6.4625
 0.8380	 6.4571
 0.8370	 6.4692
 0.8360	 6.4727
 0.8350	 6.4612
 0.8340	 6.4526
 0.8330	 6.4531
 0.8320	 6.4522
 0.8310	 6.4497
 0.8300	 6.4526
 0.8290	 6.4421
 0.8280	 6.4421
 0.8270	 6.4456
 0.8260	 6.4412
 0.8250	 6.4418
 0.8240	 6.4418
 0.8230	 6.4402
 0.8220	 6.4435
 0.8210	 6.4311
 0.8200	 6.4271
 0.8190	 6.4314
 0.8180	 6.4346
 0.8170	 6.4299
 0.8160	 6.4254
 0.8150	 6.4193
 0.8140	 6.4203
 0.8130	 6.4249
 0.8120	 6.4231
 0.8110	 6.4217
 0.8100	 6.4283
 0.8090	 6.4104
 0.8080	 6.4113
 0.8070	 6.4196
 0.8060	 6.4103
 0.8050	 6.4152
 0.8040	 6.4145
 0.8030	 6.4053
 0.8020	 6.4076
 0.8010	 6.4040
 0.8000	 6.4031
 0.7990	 6.4151
 0.7980	 6.4071
 0.7970	 6.3975
 0.7960	 6.3959
 0.7950	 6.3972
 0.7940	 6.3922
 0.7930	 6.3845
 0.7920	 6.3881
 0.7910	 6.3876
 0.7900	 6.3886
 0.7890	 6.3765
 0.7880	 6.3874
 0.7870	 6.3783
 0.7860	 6.3810
 0.7850	 6.3768
 0.7840	 6.3859
 0.7830	 6.3801
 0.7820	 6.3741
 0.7810	 6.3723
 0.7800	 6.3743
 0.7790	 6.3676
 0.7780	 6.3680
 0.7770	 6.3720
 0.7760	 6.3586
 0.7750	 6.3594
 0.7740	 6.3704
 0.7730	 6.3586
 0.7720	 6.3570
 0.7710	 6.3620
 0.7700	 6.3533
 0.7690	 6.3654
 0.7680	 6.3540
 0.7670	 6.3489
 0.7660	 6.3544
 0.7650	 6.3574
 0.7640	 6.3536
 0.7630	 6.3499
 0.7620	 6.3464
 0.7610	 6.3476
 0.7600	 6.3392
 0.7590	 6.3378
 0.7580	 6.3386
 0.7570	 6.3430
 0.7560	 6.3422
 0.7550	 6.3486
 0.7540	 6.3397
 0.7530	 6.3383
 0.7520	 6.3372
 0.7510	 6.3401
 0.7500	 6.3425
 0.7490	 6.3343
 0.7480	 6.3355
 0.7470	 6.3306
 0.7460	 6.3325
 0.7450	 6.3288
 0.7440	 6.3278
 0.7430	 6.3298
 0.7420	 6.3287
 0.7410	 6.3302
 0.7400	 6.3299
 0.7390	 6.3263
 0.7380	 6.3267
 0.7370	 6.3296
 0.7360	 6.3222
 0.7350	 6.3180
 0.7340	 6.3178
 0.7330	 6.3219
 0.7320	 6.3188
 0.7310	 6.3199
 0.7300	 6.3170
 0.7290	 6.3192
 0.7280	 6.3163
 0.7270	 6.3167
 0.7260	 6.3160
 0.7250	 6.3162
 0.7240	 6.3120
 0.7230	 6.3122
 0.7220	 6.3148
 0.7210	 6.3144
 0.7200	 6.3118
 0.7190	 6.3118
 0.7180	 6.3135
 0.7170	 6.3112
 0.7160	 6.3104
 0.7150	 6.3108
 0.7140	 6.3082
 0.7130	 6.3036
 0.7120	 6.3056
 0.7110	 6.3070
 0.7100	 6.3066
 0.7090	 6.3057
 0.7080	 6.3038
 0.7070	 6.3027
 0.7060	 6.3025
 0.7050	 6.3034
 0.7040	 6.3012
 0.7030	 6.3015
 0.7020	 6.2991
 0.7010	 6.2984
 0.7000	 6.2980
 0.6990	 6.2968
 0.6980	 6.2974
 0.6970	 6.2968
 0.6960	 6.2980
 0.6950	 6.2966
 0.6940	 6.2957
 0.6930	 6.2922
 0.6920	 6.2934
 0.6910	 6.2942
 0.6900	 6.2936
 0.6890	 6.2913
 0.6880	 6.2930
 0.6870	 6.2933
 0.6860	 6.2883
 0.6850	 6.2889
 0.6840	 6.2909
 0.6830	 6.2884
 0.6820	 6.2883
 0.6810	 6.2866
 0.6800	 6.2848
 0.6790	 6.2858
 0.6780	 6.2863
 0.6770	 6.2872
 0.6760	 6.2856
 0.6750	 6.2840
 0.6740	 6.2877
 0.6730	 6.2870
 0.6720	 6.2855
 0.6710	 6.2874
 0.6700	 6.2857
 0.6690	 6.2873
 0.6680	 6.2884
 0.6670	 6.2870
 0.6660	 6.2841
 0.6650	 6.2850
 0.6640	 6.2868
 0.6630	 6.2846
 0.6620	 6.2838
 0.6610	 6.2853
 0.6600	 6.2839
 0.6590	 6.2829
 0.6580	 6.2843
 0.6570	 6.2835
 0.6560	 6.2841
 0.6550	 6.2852
 0.6540	 6.2844
 0.6530	 6.2838
 0.6520	 6.2852
 0.6510	 6.2845
 0.6500	 6.2843
 0.6490	 6.2834
 0.6480	 6.2808
 0.6470	 6.2818
 0.6460	 6.2829
 0.6450	 6.2833
 0.6440	 6.2816
 0.6430	 6.2822
 0.6420	 6.2855
 0.6410	 6.2856
 0.6400	 6.2850
 0.6390	 6.2854
 0.6380	 6.2845
 0.6370	 6.2822
 0.6360	 6.2810
 0.6350	 6.2801
 0.6340	 6.2822
 0.6330	 6.2838
 0.6320	 6.2833
 0.6310	 6.2846
 0.6300	 6.2837
 0.6290	 6.2832
 0.6280	 6.2831
 0.6270	 6.2836
 0.6260	 6.2852
 0.6250	 6.2851
 0.6240	 6.2854
 0.6230	 6.2860
 0.6220	 6.2843
 0.6210	 6.2821
 0.6200	 6.2849
 0.6190	 6.2865
 0.6180	 6.2845
 0.6170	 6.2848
 0.6160	 6.2837
 0.6150	 6.2837
 0.6140	 6.2846
 0.6130	 6.2864
 0.6120	 6.2883
 0.6110	 6.2883
 0.6100	 6.2875
 0.6090	 6.2885
 0.6080	 6.2876
 0.6070	 6.2875
 0.6060	 6.2895
 0.6050	 6.2911
 0.6040	 6.2915
 0.6030	 6.2903
 0.6020	 6.2888
 0.6010	 6.2920
 0.6000	 6.2936
 0.5990	 6.2954
 0.5980	 6.2968
 0.5970	 6.2987
 0.5960	 6.2985
 0.5950	 6.3015
 0.5940	 6.3039
 0.5930	 6.3023
 0.5920	 6.3030
 0.5910	 6.3050
 0.5900	 6.3033
 0.5890	 6.3047
 0.5880	 6.3050
 0.5870	 6.3044
 0.5860	 6.3060
 0.5850	 6.3074
 0.5840	 6.3094
 0.5830	 6.3088
 0.5820	 6.3101
 0.5810	 6.3120
 0.5800	 6.3107
 0.5790	 6.3120
 0.5780	 6.3129
 0.5770	 6.3131
 0.5760	 6.3123
 0.5750	 6.3140
 0.5740	 6.3151
 0.5730	 6.3164
 0.5720	 6.3177
 0.5710	 6.3192
 0.5700	 6.3196
 0.5690	 6.3205
 0.5680	 6.3191
 0.5670	 6.3189
 0.5660	 6.3226
 0.5650	 6.3242
 0.5640	 6.3247
 0.5630	 6.3284
 0.5620	 6.3275
 0.5610	 6.3275
 0.5600	 6.3283
 0.5590	 6.3278
 0.5580	 6.3283
 0.5570	 6.3304
 0.5560	 6.3321
 0.5550	 6.3345
 0.5540	 6.3350
 0.5530	 6.3369
 0.5520	 6.3374
 0.5510	 6.3386
 0.5500	 6.3399
 0.5490	 6.3414
 0.5480	 6.3427
 0.5470	 6.3432
 0.5460	 6.3448
 0.5450	 6.3467
 0.5440	 6.3484
 0.5430	 6.3495
 0.5420	 6.3519
 0.5410	 6.3508
 0.5400	 6.3544
 0.5390	 6.3551
 0.5380	 6.3568
 0.5370	 6.3606
 0.5360	 6.3617
 0.5350	 6.3615
 0.5340	 6.3644
 0.5330	 6.3654
 0.5320	 6.3675
 0.5310	 6.3689
 0.5300	 6.3708
 0.5290	 6.3717
 0.5280	 6.3759
 0.5270	 6.3779
 0.5260	 6.3801
 0.5250	 6.3795
 0.5240	 6.3820
 0.5230	 6.3855
 0.5220	 6.3849
 0.5210	 6.3902
 0.5200	 6.3925
 0.5190	 6.3944
 0.5180	 6.3957
 0.5170	 6.3969
 0.5160	 6.3971
 0.5150	 6.4018
 0.5140	 6.4028
 0.5130	 6.4074
 0.5120	 6.4074
 0.5110	 6.4120
 0.5100	 6.4143
 0.5090	 6.4182
 0.5080	 6.4194
 0.5070	 6.4213
 0.5060	 6.4268
 0.5050	 6.4239
 0.5040	 6.4268
 0.5030	 6.4341
 0.5020	 6.4317
 0.5010	 6.4402
 0.5000	 6.4388
 0.4990	 6.4449
 0.4980	 6.4482
 0.4970	 6.4497
 0.4960	 6.4513
 0.4950	 6.4568
 0.4940	 6.4613
 0.4930	 6.4605
 0.4920	 6.4670
 0.4910	 6.4706
 0.4900	 6.4739
 0.4890	 6.4752
 0.4880	 6.4806
 0.4870	 6.4843
 0.4860	 6.4871
 0.4850	 6.4886
 0.4840	 6.4935
 0.4830	 6.5030
 0.4820	 6.5038
 0.4810	 6.5086
 0.4800	 6.5127
 0.4790	 6.5128
 0.4780	 6.5182
 0.4770	 6.5227
 0.4760	 6.5305
 0.4750	 6.5356
 0.4740	 6.5393
 0.4730	 6.5427
 0.4720	 6.5499
 0.4710	 6.5518
 0.4700	 6.5589
 0.4690	 6.5622
 0.4680	 6.5684
 0.4670	 6.5722
 0.4660	 6.5782
 0.4650	 6.5829
 0.4640	 6.5859
 0.4630	 6.5928
 0.4620	 6.5985
 0.4610	 6.6035
 0.4600	 6.6042
 0.4590	 6.6153
 0.4580	 6.6215
 0.4570	 6.6254
 0.4560	 6.6323
 0.4550	 6.6373
 0.4540	 6.6429
 0.4530	 6.6495
 0.4520	 6.6538
 0.4510	 6.6598
 0.4500	 6.6648
 0.4490	 6.6693
 0.4480	 6.6746
 0.4470	 6.6867
 0.4460	 6.6918
 0.4450	 6.6953
 0.4440	 6.6992
 0.4430	 6.7099
 0.4420	 6.7192
 0.4410	 6.7242
 0.4400	 6.7310
 0.4390	 6.7380
 0.4380	 6.7460
 0.4370	 6.7530
 0.4360	 6.7609
 0.4350	 6.7678
 0.4340	 6.7776
 0.4330	 6.7861
 0.4320	 6.7939
 0.4310	 6.8024
 0.4300	 6.8124
 0.4290	 6.8199
 0.4280	 6.8295
 0.4270	 6.8349
 0.4260	 6.8429
 0.4250	 6.8535
 0.4240	 6.8671
 0.4230	 6.8757
 0.4220	 6.8830
 0.4210	 6.8949
 0.4200	 6.9082
 0.4190	 6.9204
 0.4180	 6.9263
 0.4170	 6.9394
 0.4160	 6.9490
 0.4150	 6.9563
 0.4140	 6.9698
 0.4130	 6.9839
 0.4120	 6.9945
 0.4110	 7.0064
 0.4100	 7.0163
 0.4090	 7.0269
 0.4080	 7.0421
 0.4070	 7.0523
 0.4060	 7.0647
 0.4050	 7.0798
 0.4040	 7.0905
 0.4030	 7.1046
 0.4020	 7.1199
 0.4010	 7.1310
 0.4000	 7.1458
