Name: Pyrite FeS_2
Type: Mineral
Class: Sulfide
Subclass: None
Particle Size: Fine
Sample No.: S-2A
Owner: JPL
Wavelength Range: VSWIR
Origin: Italy, Tuscany, Elba, Rio Marina Isle
Collection Date: N/A
Description: Particle size was 0-45um.Collected by Ward's Original ASTER Spectral Library name was jpl.beckman.mineral.sulfide.none.fine.s02a.spectrum.txt
Measurement: Hemispherical reflectance
First Column: X
Second Column: Y
X Units: Wavelength (micrometers)
Y Units:Reflectance (percent)
First X Value:  0.4000
Last X Value:  2.5000
Number of X Values: 826
Additional Information: mineral.sulfide.none.fine.vswir.s-2a.jpl.beckman.ancillary.txt

 0.4000	 5.2900
 0.4010	 5.2500
 0.4020	 5.2600
 0.4030	 5.3200
 0.4040	 5.3100
 0.4050	 5.3700
 0.4060	 5.3100
 0.4070	 5.3100
 0.4080	 5.3600
 0.4090	 5.4200
 0.4100	 5.4300
 0.4110	 5.4300
 0.4120	 5.4200
 0.4130	 5.4800
 0.4140	 5.6100
 0.4150	 5.4900
 0.4160	 5.5400
 0.4170	 5.5400
 0.4180	 5.5400
 0.4190	 5.6100
 0.4200	 5.6700
 0.4210	 5.6100
 0.4220	 5.6600
 0.4230	 5.6000
 0.4240	 5.7200
 0.4250	 5.7200
 0.4260	 5.7200
 0.4270	 5.7700
 0.4280	 5.7000
 0.4290	 5.8200
 0.4300	 5.7600
 0.4310	 5.8300
 0.4320	 5.8300
 0.4330	 5.8400
 0.4340	 5.9000
 0.4350	 5.9000
 0.4360	 5.9000
 0.4370	 6.0100
 0.4380	 5.9300
 0.4390	 6.0700
 0.4400	 6.0700
 0.4410	 6.0000
 0.4420	 6.0700
 0.4430	 6.0700
 0.4440	 6.1300
 0.4450	 6.1300
 0.4460	 6.0700
 0.4470	 6.1800
 0.4480	 6.1300
 0.4490	 6.2400
 0.4500	 6.2400
 0.4510	 6.2800
 0.4520	 6.2800
 0.4530	 6.2200
 0.4540	 6.3400
 0.4550	 6.3600
 0.4560	 6.4000
 0.4570	 6.4900
 0.4580	 6.4200
 0.4590	 6.4800
 0.4600	 6.4700
 0.4610	 6.4400
 0.4620	 6.4900
 0.4630	 6.6100
 0.4640	 6.6600
 0.4650	 6.6500
 0.4660	 6.5900
 0.4670	 6.6800
 0.4680	 6.6300
 0.4690	 6.7600
 0.4700	 6.7500
 0.4710	 6.8100
 0.4720	 6.9200
 0.4730	 6.8700
 0.4740	 6.9300
 0.4750	 6.8800
 0.4760	 6.9400
 0.4770	 7.0600
 0.4780	 6.9900
 0.4790	 7.0500
 0.4800	 7.0000
 0.4810	 7.0700
 0.4820	 7.1400
 0.4830	 7.0800
 0.4840	 7.1800
 0.4850	 7.1600
 0.4860	 7.1400
 0.4870	 7.2400
 0.4880	 7.2300
 0.4890	 7.3100
 0.4900	 7.2600
 0.4910	 7.3000
 0.4920	 7.3500
 0.4930	 7.3300
 0.4940	 7.4400
 0.4950	 7.3200
 0.4960	 7.4200
 0.4970	 7.4700
 0.4980	 7.5200
 0.4990	 7.5700
 0.5000	 7.5100
 0.5010	 7.5000
 0.5020	 7.6000
 0.5030	 7.5400
 0.5040	 7.5900
 0.5050	 7.5300
 0.5060	 7.6100
 0.5070	 7.7600
 0.5080	 7.6400
 0.5090	 7.6900
 0.5100	 7.6400
 0.5110	 7.7000
 0.5120	 7.7200
 0.5130	 7.7300
 0.5140	 7.7900
 0.5150	 7.7500
 0.5160	 7.6900
 0.5170	 7.8700
 0.5180	 7.7700
 0.5190	 7.8400
 0.5200	 7.7900
 0.5210	 7.7900
 0.5220	 7.8300
 0.5230	 7.7700
 0.5240	 7.8400
 0.5250	 7.7800
 0.5260	 7.8300
 0.5270	 7.9000
 0.5280	 7.8200
 0.5290	 7.8900
 0.5300	 7.9000
 0.5310	 7.9000
 0.5320	 7.9700
 0.5330	 7.8800
 0.5340	 7.9900
 0.5350	 7.9300
 0.5360	 7.8200
 0.5370	 7.9500
 0.5380	 7.9400
 0.5390	 8.0000
 0.5400	 7.9400
 0.5410	 7.9200
 0.5420	 7.9700
 0.5430	 7.9600
 0.5440	 8.0200
 0.5450	 8.0100
 0.5460	 7.9400
 0.5470	 7.9800
 0.5480	 8.0200
 0.5490	 8.0700
 0.5500	 8.0500
 0.5510	 7.9800
 0.5520	 8.1500
 0.5530	 8.0200
 0.5540	 8.0800
 0.5550	 8.1000
 0.5560	 8.0600
 0.5570	 8.1200
 0.5580	 8.0600
 0.5590	 8.1100
 0.5600	 8.1200
 0.5610	 8.1600
 0.5620	 8.1900
 0.5630	 8.2500
 0.5640	 8.1900
 0.5650	 8.2400
 0.5660	 8.1600
 0.5670	 8.1500
 0.5680	 8.2900
 0.5690	 8.2200
 0.5700	 8.2300
 0.5710	 8.2300
 0.5720	 8.2300
 0.5730	 8.2600
 0.5740	 8.2200
 0.5750	 8.2400
 0.5760	 8.1500
 0.5770	 8.1800
 0.5780	 8.3200
 0.5790	 8.2600
 0.5800	 8.2700
 0.5810	 8.2100
 0.5820	 8.2000
 0.5830	 8.2600
 0.5840	 8.2100
 0.5850	 8.2800
 0.5860	 8.2300
 0.5870	 8.1700
 0.5880	 8.2300
 0.5890	 8.2200
 0.5900	 8.2900
 0.5910	 8.2400
 0.5920	 8.1700
 0.5930	 8.2700
 0.5940	 8.2700
 0.5950	 8.2800
 0.5960	 8.2300
 0.5970	 8.1600
 0.5980	 8.3200
 0.5990	 8.2600
 0.6000	 8.3300
 0.6010	 8.2700
 0.6020	 8.2300
 0.6030	 8.3300
 0.6040	 8.2500
 0.6050	 8.3500
 0.6060	 8.3400
 0.6070	 8.3100
 0.6080	 8.3800
 0.6090	 8.2700
 0.6100	 8.3700
 0.6110	 8.3100
 0.6120	 8.1800
 0.6130	 8.3100
 0.6140	 8.3100
 0.6150	 8.3300
 0.6160	 8.2800
 0.6170	 8.2700
 0.6180	 8.3600
 0.6190	 8.2500
 0.6200	 8.2600
 0.6210	 8.2600
 0.6220	 8.2500
 0.6230	 8.3600
 0.6240	 8.2500
 0.6250	 8.3100
 0.6260	 8.3100
 0.6270	 8.2700
 0.6280	 8.3800
 0.6290	 8.2600
 0.6300	 8.3000
 0.6310	 8.3600
 0.6320	 8.3600
 0.6330	 8.3800
 0.6340	 8.2600
 0.6350	 8.3200
 0.6360	 8.3800
 0.6370	 8.3700
 0.6380	 8.3900
 0.6390	 8.2800
 0.6400	 8.3300
 0.6410	 8.3800
 0.6420	 8.3000
 0.6430	 8.4200
 0.6440	 8.3700
 0.6450	 8.4300
 0.6460	 8.4300
 0.6470	 8.4100
 0.6480	 8.4700
 0.6490	 8.4200
 0.6500	 8.4900
 0.6510	 8.3900
 0.6520	 8.4000
 0.6530	 8.4600
 0.6540	 8.3900
 0.6550	 8.5400
 0.6560	 8.4300
 0.6570	 8.4300
 0.6580	 8.5100
 0.6590	 8.4900
 0.6600	 8.5500
 0.6610	 8.5400
 0.6620	 8.4900
 0.6630	 8.5600
 0.6640	 8.4600
 0.6650	 8.5700
 0.6660	 8.6200
 0.6670	 8.6000
 0.6680	 8.6400
 0.6690	 8.4800
 0.6700	 8.5400
 0.6710	 8.5400
 0.6720	 8.4800
 0.6730	 8.6000
 0.6740	 8.5500
 0.6750	 8.6000
 0.6760	 8.5600
 0.6770	 8.5100
 0.6780	 8.6200
 0.6790	 8.5600
 0.6800	 8.6500
 0.6810	 8.7100
 0.6820	 8.5900
 0.6830	 8.6600
 0.6840	 8.6500
 0.6850	 8.7600
 0.6860	 8.6500
 0.6870	 8.5900
 0.6880	 8.6700
 0.6890	 8.6200
 0.6900	 8.6800
 0.6910	 8.6700
 0.6920	 8.6500
 0.6930	 8.7100
 0.6940	 8.6500
 0.6950	 8.7300
 0.6960	 8.6500
 0.6970	 8.6500
 0.6980	 8.6800
 0.6990	 8.6700
 0.7000	 8.6800
 0.7010	 8.6600
 0.7020	 8.7000
 0.7030	 8.6400
 0.7040	 8.7000
 0.7050	 8.7000
 0.7060	 8.7000
 0.7070	 8.7100
 0.7080	 8.6100
 0.7090	 8.7200
 0.7100	 8.6500
 0.7110	 8.6900
 0.7120	 8.6300
 0.7130	 8.5800
 0.7140	 8.7200
 0.7150	 8.6500
 0.7160	 8.7600
 0.7170	 8.6500
 0.7180	 8.6000
 0.7190	 8.6700
 0.7200	 8.6100
 0.7210	 8.6600
 0.7220	 8.5900
 0.7230	 8.5800
 0.7240	 8.6400
 0.7250	 8.5400
 0.7260	 8.6400
 0.7270	 8.5800
 0.7280	 8.5800
 0.7290	 8.6600
 0.7300	 8.5500
 0.7310	 8.6000
 0.7320	 8.5300
 0.7330	 8.5300
 0.7340	 8.6500
 0.7350	 8.4700
 0.7360	 8.5200
 0.7370	 8.5200
 0.7380	 8.5300
 0.7390	 8.5400
 0.7400	 8.4300
 0.7410	 8.4700
 0.7420	 8.4600
 0.7430	 8.4600
 0.7440	 8.5800
 0.7450	 8.4600
 0.7460	 8.5100
 0.7470	 8.4600
 0.7480	 8.4100
 0.7490	 8.4800
 0.7500	 8.4100
 0.7510	 8.4600
 0.7520	 8.3800
 0.7530	 8.4100
 0.7540	 8.4100
 0.7550	 8.3500
 0.7560	 8.4000
 0.7570	 8.3500
 0.7580	 8.3600
 0.7590	 8.4200
 0.7600	 8.2800
 0.7610	 8.3400
 0.7620	 8.3300
 0.7630	 8.3500
 0.7640	 8.3400
 0.7650	 8.2700
 0.7660	 8.3400
 0.7670	 8.3000
 0.7680	 8.2400
 0.7690	 8.3500
 0.7700	 8.2200
 0.7710	 8.3400
 0.7720	 8.2200
 0.7730	 8.2200
 0.7740	 8.2800
 0.7750	 8.1700
 0.7760	 8.2500
 0.7770	 8.1800
 0.7780	 8.1600
 0.7790	 8.2200
 0.7800	 8.1600
 0.7810	 8.1700
 0.7820	 8.1100
 0.7830	 8.1000
 0.7840	 8.2200
 0.7850	 8.1100
 0.7860	 8.1600
 0.7870	 8.1500
 0.7880	 8.1500
 0.7890	 8.2700
 0.7900	 8.2100
 0.7910	 8.2600
 0.7920	 8.1400
 0.7930	 8.1000
 0.7940	 8.1200
 0.7950	 8.0600
 0.7960	 8.0600
 0.7970	 8.0500
 0.7980	 8.0100
 0.7990	 8.0900
 0.8000	 8.3600
 0.8040	 8.3200
 0.8080	 8.3500
 0.8120	 8.2100
 0.8160	 8.2100
 0.8200	 8.1200
 0.8240	 8.1100
 0.8280	 8.0500
 0.8320	 8.0500
 0.8360	 8.0000
 0.8400	 7.9900
 0.8440	 8.0000
 0.8480	 7.8400
 0.8520	 7.8900
 0.8560	 7.9000
 0.8600	 7.8400
 0.8640	 7.8500
 0.8680	 7.8700
 0.8720	 7.7900
 0.8760	 7.8000
 0.8800	 7.8000
 0.8840	 7.7800
 0.8880	 7.6800
 0.8920	 7.6700
 0.8960	 7.6600
 0.9000	 7.6800
 0.9040	 7.6800
 0.9080	 7.6100
 0.9120	 7.6100
 0.9160	 7.5500
 0.9200	 7.4800
 0.9240	 7.4800
 0.9280	 7.5300
 0.9320	 7.5600
 0.9360	 7.5500
 0.9400	 7.5000
 0.9440	 7.5000
 0.9480	 7.4400
 0.9520	 7.4500
 0.9560	 7.4500
 0.9600	 7.4400
 0.9640	 7.4500
 0.9680	 7.4300
 0.9720	 7.4800
 0.9760	 7.4500
 0.9800	 7.4500
 0.9840	 7.4300
 0.9880	 7.4300
 0.9920	 7.4300
 0.9960	 7.4400
 1.0000	 7.3700
 1.0040	 7.3200
 1.0080	 7.3100
 1.0120	 7.3100
 1.0160	 7.3200
 1.0200	 7.3800
 1.0240	 7.3500
 1.0280	 7.3400
 1.0320	 7.2600
 1.0360	 7.3300
 1.0400	 7.3200
 1.0440	 7.3300
 1.0480	 7.3300
 1.0520	 7.3300
 1.0560	 7.3700
 1.0600	 7.3600
 1.0640	 7.4100
 1.0680	 7.3900
 1.0720	 7.3600
 1.0760	 7.3800
 1.0800	 7.3400
 1.0840	 7.3600
 1.0880	 7.3400
 1.0920	 7.3800
 1.0960	 7.3700
 1.1000	 7.3200
 1.1040	 7.4000
 1.1080	 7.3800
 1.1120	 7.3900
 1.1160	 7.4400
 1.1200	 7.4000
 1.1240	 7.4500
 1.1280	 7.4500
 1.1320	 7.4800
 1.1360	 7.5500
 1.1400	 7.4300
 1.1440	 7.5300
 1.1480	 7.5300
 1.1520	 7.5200
 1.1560	 7.5900
 1.1600	 7.6400
 1.1640	 7.6300
 1.1680	 7.6400
 1.1720	 7.5900
 1.1760	 7.6400
 1.1800	 7.6400
 1.1840	 7.6800
 1.1880	 7.7300
 1.1920	 7.7600
 1.1960	 7.8300
 1.2000	 7.7600
 1.2040	 7.7600
 1.2080	 7.8100
 1.2120	 7.8300
 1.2160	 7.8200
 1.2200	 7.9200
 1.2240	 7.9800
 1.2280	 7.9600
 1.2320	 8.0400
 1.2360	 8.0700
 1.2400	 8.1000
 1.2440	 8.1400
 1.2480	 8.1800
 1.2520	 8.2300
 1.2560	 8.2900
 1.2600	 8.3500
 1.2640	 8.3300
 1.2680	 8.3900
 1.2720	 8.4000
 1.2760	 8.4900
 1.2800	 8.5000
 1.2840	 8.6200
 1.2880	 8.6800
 1.2920	 8.7500
 1.2960	 8.7500
 1.3000	 8.8400
 1.3040	 8.8400
 1.3080	 8.8900
 1.3120	 8.9600
 1.3160	 8.9600
 1.3200	 9.0400
 1.3240	 9.1000
 1.3280	 9.2100
 1.3320	 9.2400
 1.3360	 9.3400
 1.3400	 9.4000
 1.3440	 9.3900
 1.3480	 9.4300
 1.3520	 9.5600
 1.3560	 9.6300
 1.3600	 9.7500
 1.3640	 9.7100
 1.3680	 9.8300
 1.3720	 9.9300
 1.3760	 9.9700
 1.3800	10.0600
 1.3840	10.1800
 1.3880	10.2100
 1.3920	10.3300
 1.3960	10.4400
 1.4000	10.4600
 1.4040	10.5800
 1.4080	10.5700
 1.4120	10.7000
 1.4160	10.8200
 1.4200	10.8900
 1.4240	10.9800
 1.4280	11.0400
 1.4320	11.1100
 1.4360	11.2300
 1.4400	11.3100
 1.4440	11.3700
 1.4480	11.4200
 1.4520	11.5500
 1.4560	11.6700
 1.4600	11.7800
 1.4640	11.8000
 1.4680	11.7800
 1.4720	11.9400
 1.4760	12.0200
 1.4800	12.0500
 1.4840	12.1100
 1.4880	12.1200
 1.4920	12.1900
 1.4960	12.1800
 1.5000	12.2500
 1.5040	12.2300
 1.5080	12.2500
 1.5120	12.3200
 1.5160	12.3000
 1.5200	12.3500
 1.5240	12.3900
 1.5280	12.3800
 1.5320	12.4800
 1.5360	12.5200
 1.5400	12.4900
 1.5440	12.5400
 1.5480	12.5700
 1.5520	12.5900
 1.5560	12.5900
 1.5600	12.5700
 1.5640	12.6000
 1.5680	12.6100
 1.5720	12.6400
 1.5760	12.6500
 1.5800	12.6500
 1.5840	12.6400
 1.5880	12.7200
 1.5920	12.6400
 1.5960	12.6100
 1.6000	12.6200
 1.6040	12.6100
 1.6080	12.6200
 1.6120	12.5500
 1.6160	12.5600
 1.6200	12.5600
 1.6240	12.5600
 1.6280	12.4900
 1.6320	12.5100
 1.6360	12.4900
 1.6400	12.4800
 1.6440	12.4000
 1.6480	12.4100
 1.6520	12.4000
 1.6560	12.3600
 1.6600	12.3100
 1.6640	12.3300
 1.6680	12.3000
 1.6720	12.3000
 1.6760	12.2600
 1.6800	12.2400
 1.6840	12.2000
 1.6880	12.1700
 1.6920	12.1500
 1.6960	12.1100
 1.7000	12.0800
 1.7040	12.0600
 1.7080	11.9900
 1.7120	11.9500
 1.7160	11.9700
 1.7200	11.9100
 1.7240	11.9000
 1.7280	11.9000
 1.7320	11.8400
 1.7360	11.7700
 1.7400	11.6900
 1.7440	11.7200
 1.7480	11.6100
 1.7520	11.5400
 1.7560	11.4500
 1.7600	11.4700
 1.7640	11.4200
 1.7680	11.4300
 1.7720	11.3800
 1.7760	11.3300
 1.7800	11.3100
 1.7840	11.2700
 1.7880	11.1700
 1.7920	11.2500
 1.7960	11.1900
 1.8000	11.1200
 1.8040	11.0900
 1.8080	11.1200
 1.8120	11.0300
 1.8160	11.0300
 1.8200	11.0100
 1.8240	10.9400
 1.8280	10.9000
 1.8320	10.8800
 1.8360	10.8100
 1.8400	10.7900
 1.8440	10.8000
 1.8480	10.7500
 1.8520	10.7000
 1.8560	10.7000
 1.8600	10.6800
 1.8640	10.6500
 1.8680	10.6000
 1.8720	10.5300
 1.8760	10.5200
 1.8800	10.5300
 1.8840	10.4400
 1.8880	10.4000
 1.8920	10.3700
 1.8960	10.3400
 1.9000	10.3500
 1.9040	10.2400
 1.9080	10.2400
 1.9120	10.2500
 1.9160	10.2100
 1.9200	10.1700
 1.9240	10.1200
 1.9280	10.0500
 1.9320	10.0000
 1.9360	10.0000
 1.9400	 9.9900
 1.9440	 9.9500
 1.9480	 9.9100
 1.9520	 9.9600
 1.9560	 9.9300
 1.9600	 9.8700
 1.9640	 9.8500
 1.9680	 9.8200
 1.9720	 9.8400
 1.9760	 9.8000
 1.9800	 9.9000
 1.9840	 9.8300
 1.9880	 9.8700
 1.9920	 9.8800
 1.9960	 9.8800
 2.0000	 9.8300
 2.0040	 9.8800
 2.0080	 9.7600
 2.0120	 9.8500
 2.0160	 9.8800
 2.0200	 9.9500
 2.0240	 9.8800
 2.0280	 9.9000
 2.0320	 9.8600
 2.0360	 9.8600
 2.0400	 9.8700
 2.0440	 9.7900
 2.0480	 9.7700
 2.0520	 9.8400
 2.0560	 9.8100
 2.0600	 9.8100
 2.0640	 9.7900
 2.0680	 9.7000
 2.0720	 9.7600
 2.0760	 9.7600
 2.0800	 9.8000
 2.0840	 9.7200
 2.0880	 9.7200
 2.0920	 9.7300
 2.0960	 9.7700
 2.1000	 9.7800
 2.1040	 9.7900
 2.1080	 9.8000
 2.1120	 9.8400
 2.1160	 9.8800
 2.1200	 9.8600
 2.1240	 9.9000
 2.1280	 9.9100
 2.1320	 9.9500
 2.1360	 9.9500
 2.1400	 9.9900
 2.1440	 9.9600
 2.1480	 9.9500
 2.1520	 9.9500
 2.1560	 9.9500
 2.1600	 9.9400
 2.1640	 9.9600
 2.1680	 9.9700
 2.1720	 9.9200
 2.1760	 9.9100
 2.1800	 9.9400
 2.1840	 9.9800
 2.1880	 9.9800
 2.1920	 9.9800
 2.1960	 9.9900
 2.2000	10.0500
 2.2040	10.0100
 2.2080	10.0400
 2.2120	10.0200
 2.2160	10.0700
 2.2200	10.0600
 2.2240	10.0300
 2.2280	10.0600
 2.2320	10.0800
 2.2360	10.1400
 2.2400	10.0600
 2.2440	10.1100
 2.2480	10.0400
 2.2520	10.1100
 2.2560	10.1300
 2.2600	10.1000
 2.2640	10.1500
 2.2680	10.0400
 2.2720	10.1400
 2.2760	10.0700
 2.2800	10.1700
 2.2840	10.1500
 2.2880	10.1900
 2.2920	10.2000
 2.2960	10.1900
 2.3000	10.1500
 2.3040	10.1900
 2.3080	10.1700
 2.3120	10.2200
 2.3160	10.2700
 2.3200	10.2800
 2.3240	10.2600
 2.3280	10.3600
 2.3320	10.3700
 2.3360	10.3400
 2.3400	10.3500
 2.3440	10.3600
 2.3480	10.3600
 2.3520	10.4400
 2.3560	10.3800
 2.3600	10.4100
 2.3640	10.3800
 2.3680	10.3600
 2.3720	10.4200
 2.3760	10.4100
 2.3800	10.4100
 2.3840	10.4200
 2.3880	10.4600
 2.3920	10.4300
 2.3960	10.3900
 2.4000	10.4300
 2.4040	10.4700
 2.4080	10.4300
 2.4120	10.4400
 2.4160	10.4800
 2.4200	10.4800
 2.4240	10.4600
 2.4280	10.4800
 2.4320	10.4600
 2.4360	10.4900
 2.4400	10.4800
 2.4440	10.4800
 2.4480	10.4900
 2.4520	10.4700
 2.4560	10.4600
 2.4600	10.4300
 2.4640	10.4700
 2.4680	10.4500
 2.4720	10.4900
 2.4760	10.4900
 2.4800	10.5100
 2.4840	10.5200
 2.4880	10.4500
 2.4920	10.4800
 2.4960	10.5800
 2.5000	10.5300
