Name: Albite (Feldspar) (K,Na)AlSi_3O_8
Type: Mineral
Class: Silicate
Subclass: Tectosilicate
Particle Size: Medium
Sample No.: TS-6A
Owner: JPL
Wavelength Range: VSWIR
Origin: 
Collection Date: N/A
Description: Particle size was 45-125um.Collected by JPL Original ASTER Spectral Library name was jpl.beckman.mineral.silicate.tectosilicate.medium.ts06a.spectrum.txt
Measurement: Hemispherical reflectance
First Column: X
Second Column: Y
X Units: Wavelength (micrometers)
Y Units:Reflectance (percent)
First X Value:  0.4000
Last X Value:  2.5000
Number of X Values: 826
Additional Information: mineral.silicate.tectosilicate.medium.vswir.ts-6a.jpl.beckman.ancillary.txt

 0.4000	62.1000
 0.4010	62.3100
 0.4020	62.4700
 0.4030	62.5300
 0.4040	62.8700
 0.4050	62.8700
 0.4060	63.0100
 0.4070	63.1300
 0.4080	63.3700
 0.4090	63.5500
 0.4100	63.4200
 0.4110	63.6000
 0.4120	63.7700
 0.4130	63.8300
 0.4140	63.9200
 0.4150	63.9200
 0.4160	63.9600
 0.4170	64.3300
 0.4180	64.2900
 0.4190	64.3400
 0.4200	64.4600
 0.4210	64.6700
 0.4220	64.9000
 0.4230	64.7500
 0.4240	64.8700
 0.4250	65.0600
 0.4260	65.3700
 0.4270	65.2900
 0.4280	65.3100
 0.4290	65.3400
 0.4300	65.6800
 0.4310	65.6600
 0.4320	65.8300
 0.4330	65.8500
 0.4340	66.0500
 0.4350	66.2600
 0.4360	66.1100
 0.4370	66.2900
 0.4380	66.4200
 0.4390	66.5900
 0.4400	66.5900
 0.4410	66.6000
 0.4420	66.6700
 0.4430	66.9500
 0.4440	66.9600
 0.4450	66.9500
 0.4460	67.1200
 0.4470	67.4100
 0.4480	67.4100
 0.4490	67.3000
 0.4500	67.3400
 0.4510	67.5700
 0.4520	67.5200
 0.4530	67.6900
 0.4540	67.5600
 0.4550	67.8300
 0.4560	67.9400
 0.4570	67.8900
 0.4580	68.0000
 0.4590	68.1200
 0.4600	68.2200
 0.4610	68.4100
 0.4620	68.3300
 0.4630	68.6000
 0.4640	68.5700
 0.4650	68.4900
 0.4660	68.4500
 0.4670	68.7200
 0.4680	68.8600
 0.4690	68.8600
 0.4700	68.8400
 0.4710	68.9200
 0.4720	68.9700
 0.4730	68.9700
 0.4740	68.9500
 0.4750	69.0100
 0.4760	69.1900
 0.4770	69.3000
 0.4780	69.1100
 0.4790	69.1800
 0.4800	69.4500
 0.4810	69.5400
 0.4820	69.4300
 0.4830	69.4600
 0.4840	69.6100
 0.4850	69.7100
 0.4860	69.6200
 0.4870	69.5200
 0.4880	69.7900
 0.4890	69.8200
 0.4900	69.7900
 0.4910	69.7300
 0.4920	69.7900
 0.4930	70.0200
 0.4940	70.1000
 0.4950	69.9800
 0.4960	70.1400
 0.4970	70.2400
 0.4980	70.2400
 0.4990	70.2500
 0.5000	70.1700
 0.5010	70.4100
 0.5020	70.6000
 0.5030	70.3900
 0.5040	70.4800
 0.5050	70.5500
 0.5060	70.7700
 0.5070	70.8300
 0.5080	70.7700
 0.5090	70.8700
 0.5100	71.0700
 0.5110	70.8400
 0.5120	70.9900
 0.5130	71.0500
 0.5140	71.1900
 0.5150	71.1200
 0.5160	71.0600
 0.5170	71.2600
 0.5180	71.4700
 0.5190	71.4000
 0.5200	71.2300
 0.5210	71.4200
 0.5220	71.6200
 0.5230	71.4200
 0.5240	71.4900
 0.5250	71.5200
 0.5260	71.6700
 0.5270	71.5300
 0.5280	71.5200
 0.5290	71.5900
 0.5300	71.8300
 0.5310	71.8100
 0.5320	71.6300
 0.5330	71.7400
 0.5340	71.8800
 0.5350	71.6800
 0.5360	71.6900
 0.5370	71.7500
 0.5380	71.8700
 0.5390	71.8700
 0.5400	71.7700
 0.5410	71.8200
 0.5420	72.0100
 0.5430	72.0300
 0.5440	71.8500
 0.5450	72.0300
 0.5460	72.1600
 0.5470	72.0800
 0.5480	72.1200
 0.5490	72.1100
 0.5500	72.3200
 0.5510	72.2900
 0.5520	72.2600
 0.5530	72.3300
 0.5540	72.5500
 0.5550	72.4600
 0.5560	72.2400
 0.5570	72.4100
 0.5580	72.5900
 0.5590	72.4200
 0.5600	72.5000
 0.5610	72.7700
 0.5620	72.9800
 0.5630	72.7800
 0.5640	72.7800
 0.5650	72.7900
 0.5660	72.8700
 0.5670	72.8900
 0.5680	72.7300
 0.5690	72.5600
 0.5700	72.7000
 0.5710	72.7600
 0.5720	72.6300
 0.5730	72.4900
 0.5740	72.5600
 0.5750	72.5200
 0.5760	72.5800
 0.5770	72.4200
 0.5780	72.5300
 0.5790	72.5700
 0.5800	72.4400
 0.5810	72.4100
 0.5820	72.3900
 0.5830	72.5000
 0.5840	72.6000
 0.5850	72.4200
 0.5860	72.5700
 0.5870	72.5900
 0.5880	72.5200
 0.5890	72.5000
 0.5900	72.4700
 0.5910	72.5700
 0.5920	72.6400
 0.5930	72.5800
 0.5940	72.5500
 0.5950	72.7400
 0.5960	72.7100
 0.5970	72.6300
 0.5980	72.5300
 0.5990	72.7400
 0.6000	72.7400
 0.6010	72.6500
 0.6020	72.6500
 0.6030	72.7700
 0.6040	72.7800
 0.6050	72.7300
 0.6060	72.6900
 0.6070	72.8700
 0.6080	72.8300
 0.6090	72.6700
 0.6100	72.6200
 0.6110	72.7700
 0.6120	72.7500
 0.6130	72.5400
 0.6140	72.4700
 0.6150	72.7000
 0.6160	72.4800
 0.6170	72.4600
 0.6180	72.4800
 0.6190	72.6600
 0.6200	72.6100
 0.6210	72.5500
 0.6220	72.7000
 0.6230	72.6700
 0.6240	72.6600
 0.6250	72.4800
 0.6260	72.5700
 0.6270	72.6000
 0.6280	72.5400
 0.6290	72.5400
 0.6300	72.6400
 0.6310	72.7100
 0.6320	72.6400
 0.6330	72.5500
 0.6340	72.7700
 0.6350	72.6300
 0.6360	72.6000
 0.6370	72.6200
 0.6380	72.6300
 0.6390	72.6000
 0.6400	72.5000
 0.6410	72.5000
 0.6420	72.6400
 0.6430	72.7700
 0.6440	72.5700
 0.6450	72.4900
 0.6460	72.6900
 0.6470	72.6100
 0.6480	72.7000
 0.6490	72.5700
 0.6500	72.7000
 0.6510	72.7300
 0.6520	72.6600
 0.6530	72.5900
 0.6540	72.6000
 0.6550	72.7900
 0.6560	72.6200
 0.6570	72.5500
 0.6580	72.6500
 0.6590	72.8200
 0.6600	72.6600
 0.6610	72.5500
 0.6620	72.6400
 0.6630	72.8700
 0.6640	72.7100
 0.6650	72.6100
 0.6660	72.6000
 0.6670	72.6700
 0.6680	72.8000
 0.6690	72.6600
 0.6700	72.6600
 0.6710	72.9200
 0.6720	72.8700
 0.6730	72.8600
 0.6740	72.7700
 0.6750	72.7700
 0.6760	72.9100
 0.6770	72.8700
 0.6780	72.7500
 0.6790	72.9100
 0.6800	72.9100
 0.6810	72.8500
 0.6820	72.7900
 0.6830	72.9200
 0.6840	73.0000
 0.6850	73.0000
 0.6860	72.8400
 0.6870	72.8600
 0.6880	73.0300
 0.6890	72.9100
 0.6900	72.7700
 0.6910	72.8200
 0.6920	73.1300
 0.6930	73.0800
 0.6940	72.9300
 0.6950	72.9400
 0.6960	73.1200
 0.6970	73.1700
 0.6980	72.9600
 0.6990	72.9300
 0.7000	73.0600
 0.7010	73.0000
 0.7020	73.0000
 0.7030	73.0900
 0.7040	73.0200
 0.7050	73.0200
 0.7060	73.1800
 0.7070	73.2600
 0.7080	73.0000
 0.7090	73.0500
 0.7100	73.2100
 0.7110	73.1400
 0.7120	73.1600
 0.7130	73.1500
 0.7140	73.2100
 0.7150	73.2300
 0.7160	73.1000
 0.7170	73.2300
 0.7180	73.2900
 0.7190	73.2200
 0.7200	73.1800
 0.7210	73.1700
 0.7220	73.3300
 0.7230	73.3200
 0.7240	73.1500
 0.7250	73.2500
 0.7260	73.3700
 0.7270	73.3400
 0.7280	73.2600
 0.7290	73.4000
 0.7300	73.4100
 0.7310	73.3500
 0.7320	73.3500
 0.7330	73.3000
 0.7340	73.5500
 0.7350	73.5000
 0.7360	73.3200
 0.7370	73.4200
 0.7380	73.5400
 0.7390	73.3300
 0.7400	73.3500
 0.7410	73.6000
 0.7420	73.5300
 0.7430	73.4800
 0.7440	73.3700
 0.7450	73.4600
 0.7460	73.5800
 0.7470	73.5300
 0.7480	73.4400
 0.7490	73.5700
 0.7500	73.6500
 0.7510	73.4700
 0.7520	73.4100
 0.7530	73.6600
 0.7540	73.5500
 0.7550	73.3500
 0.7560	73.3900
 0.7570	73.7000
 0.7580	73.7000
 0.7590	73.6300
 0.7600	73.6100
 0.7610	73.6800
 0.7620	73.6400
 0.7630	73.4400
 0.7640	73.4300
 0.7650	73.5900
 0.7660	73.6500
 0.7670	73.6200
 0.7680	73.6100
 0.7690	73.6500
 0.7700	73.7400
 0.7710	73.7500
 0.7720	73.6200
 0.7730	73.6700
 0.7740	73.7900
 0.7750	73.6900
 0.7760	73.7500
 0.7770	73.6900
 0.7780	73.8500
 0.7790	73.7300
 0.7800	73.6200
 0.7810	73.6700
 0.7820	73.9100
 0.7830	73.8900
 0.7840	73.7300
 0.7850	73.8600
 0.7860	73.8000
 0.7870	73.8100
 0.7880	73.6400
 0.7890	73.7600
 0.7900	73.8300
 0.7910	73.8400
 0.7920	73.7600
 0.7930	73.7900
 0.7940	73.8500
 0.7950	73.9900
 0.7960	73.9700
 0.7970	73.8700
 0.7980	74.0300
 0.7990	74.0700
 0.8000	73.6200
 0.8040	73.7100
 0.8080	73.6600
 0.8120	73.7000
 0.8160	73.7200
 0.8200	73.5500
 0.8240	73.6400
 0.8280	73.5800
 0.8320	73.6100
 0.8360	73.6700
 0.8400	73.6400
 0.8440	73.6000
 0.8480	73.7400
 0.8520	73.7400
 0.8560	73.7100
 0.8600	73.7400
 0.8640	73.7600
 0.8680	73.8400
 0.8720	73.8600
 0.8760	73.8100
 0.8800	73.8800
 0.8840	73.9000
 0.8880	73.9200
 0.8920	73.9400
 0.8960	73.8600
 0.9000	73.8200
 0.9040	73.8100
 0.9080	73.8200
 0.9120	73.8000
 0.9160	73.8400
 0.9200	73.8900
 0.9240	73.8900
 0.9280	73.9600
 0.9320	73.9100
 0.9360	73.8600
 0.9400	73.8600
 0.9440	73.7900
 0.9480	73.8300
 0.9520	73.6800
 0.9560	73.7200
 0.9600	73.7000
 0.9640	73.6700
 0.9680	73.7600
 0.9720	73.5200
 0.9760	73.4700
 0.9800	73.5600
 0.9840	73.4700
 0.9880	73.3600
 0.9920	73.3900
 0.9960	73.3100
 1.0000	73.3600
 1.0040	73.2500
 1.0080	73.1600
 1.0120	73.0900
 1.0160	73.0800
 1.0200	72.9800
 1.0240	72.8800
 1.0280	72.8100
 1.0320	72.7000
 1.0360	72.5800
 1.0400	72.5400
 1.0440	72.4800
 1.0480	72.3100
 1.0520	72.2200
 1.0560	72.1300
 1.0600	72.0300
 1.0640	71.9700
 1.0680	71.8300
 1.0720	71.7100
 1.0760	71.6100
 1.0800	71.4600
 1.0840	71.4400
 1.0880	71.3500
 1.0920	71.1700
 1.0960	71.2300
 1.1000	71.1000
 1.1040	70.8400
 1.1080	70.8200
 1.1120	70.7700
 1.1160	70.6700
 1.1200	70.6300
 1.1240	70.5400
 1.1280	70.4900
 1.1320	70.3900
 1.1360	70.3000
 1.1400	70.1100
 1.1440	70.0600
 1.1480	70.0100
 1.1520	69.8700
 1.1560	69.8400
 1.1600	69.6900
 1.1640	69.6200
 1.1680	69.4900
 1.1720	69.4000
 1.1760	69.3700
 1.1800	69.2900
 1.1840	69.2500
 1.1880	69.0800
 1.1920	69.0400
 1.1960	68.9700
 1.2000	68.9400
 1.2040	68.8800
 1.2080	68.8300
 1.2120	68.8000
 1.2160	68.7100
 1.2200	68.7000
 1.2240	68.6700
 1.2280	68.5800
 1.2320	68.6100
 1.2360	68.5900
 1.2400	68.6100
 1.2440	68.6100
 1.2480	68.5400
 1.2520	68.6300
 1.2560	68.5200
 1.2600	68.5500
 1.2640	68.6000
 1.2680	68.5800
 1.2720	68.6100
 1.2760	68.5500
 1.2800	68.6100
 1.2840	68.6400
 1.2880	68.6300
 1.2920	68.5200
 1.2960	68.5300
 1.3000	68.5800
 1.3040	68.5700
 1.3080	68.5300
 1.3120	68.6000
 1.3160	68.6700
 1.3200	68.6500
 1.3240	68.7100
 1.3280	68.7000
 1.3320	68.6800
 1.3360	68.7600
 1.3400	68.8200
 1.3440	68.8300
 1.3480	68.9000
 1.3520	68.9400
 1.3560	68.9700
 1.3600	69.0300
 1.3640	69.1100
 1.3680	69.1100
 1.3720	69.2400
 1.3760	69.2000
 1.3800	69.1200
 1.3840	69.0900
 1.3880	68.7400
 1.3920	68.5500
 1.3960	68.0000
 1.4000	67.6500
 1.4040	67.5000
 1.4080	67.4800
 1.4120	67.8000
 1.4160	68.3600
 1.4200	68.8000
 1.4240	69.3900
 1.4280	69.5500
 1.4320	69.8000
 1.4360	69.9700
 1.4400	70.2300
 1.4440	70.3700
 1.4480	70.4900
 1.4520	70.4400
 1.4560	70.6300
 1.4600	70.7100
 1.4640	70.7700
 1.4680	71.0000
 1.4720	71.1000
 1.4760	71.2000
 1.4800	71.3800
 1.4840	71.5000
 1.4880	71.5600
 1.4920	71.8200
 1.4960	71.8800
 1.5000	72.0000
 1.5040	72.1600
 1.5080	72.3100
 1.5120	72.3600
 1.5160	72.5400
 1.5200	72.5900
 1.5240	72.6900
 1.5280	72.7600
 1.5320	72.9000
 1.5360	73.0500
 1.5400	73.0800
 1.5440	73.1900
 1.5480	73.3400
 1.5520	73.4000
 1.5560	73.5200
 1.5600	73.5900
 1.5640	73.6200
 1.5680	73.7600
 1.5720	73.7600
 1.5760	73.8900
 1.5800	73.9400
 1.5840	74.0400
 1.5880	74.1300
 1.5920	74.2300
 1.5960	74.2400
 1.6000	74.3500
 1.6040	74.3900
 1.6080	74.4800
 1.6120	74.5300
 1.6160	74.5600
 1.6200	74.6700
 1.6240	74.6700
 1.6280	74.7300
 1.6320	74.8500
 1.6360	74.9000
 1.6400	74.9000
 1.6440	75.0100
 1.6480	75.0900
 1.6520	75.1500
 1.6560	75.1900
 1.6600	75.1500
 1.6640	75.2600
 1.6680	75.3200
 1.6720	75.2300
 1.6760	75.2200
 1.6800	75.3300
 1.6840	75.2400
 1.6880	75.3300
 1.6920	75.3300
 1.6960	75.4600
 1.7000	75.4200
 1.7040	75.4700
 1.7080	75.5400
 1.7120	75.6000
 1.7160	75.5800
 1.7200	75.6900
 1.7240	75.6100
 1.7280	75.7100
 1.7320	75.7300
 1.7360	75.6800
 1.7400	75.6800
 1.7440	75.5900
 1.7480	75.6700
 1.7520	75.6500
 1.7560	75.7600
 1.7600	75.7100
 1.7640	75.6900
 1.7680	75.6900
 1.7720	75.7400
 1.7760	75.7100
 1.7800	75.6800
 1.7840	75.7400
 1.7880	75.7500
 1.7920	75.8200
 1.7960	75.8100
 1.8000	75.8800
 1.8040	75.8900
 1.8080	75.8700
 1.8120	75.9000
 1.8160	75.8700
 1.8200	75.9600
 1.8240	75.9200
 1.8280	75.9000
 1.8320	75.9000
 1.8360	75.9200
 1.8400	75.9900
 1.8440	75.9900
 1.8480	75.9000
 1.8520	75.9500
 1.8560	75.9200
 1.8600	75.8900
 1.8640	75.7900
 1.8680	75.6600
 1.8720	75.5100
 1.8760	75.2200
 1.8800	74.8300
 1.8840	74.4900
 1.8880	73.8900
 1.8920	73.3900
 1.8960	72.7900
 1.9000	72.2800
 1.9040	71.9700
 1.9080	71.5900
 1.9120	71.5800
 1.9160	71.6400
 1.9200	71.7900
 1.9240	71.9600
 1.9280	72.1100
 1.9320	72.3200
 1.9360	72.5800
 1.9400	72.7400
 1.9440	72.8600
 1.9480	72.9200
 1.9520	73.0800
 1.9560	73.1700
 1.9600	73.3200
 1.9640	73.4400
 1.9680	73.6400
 1.9720	73.7500
 1.9760	73.9100
 1.9800	74.0400
 1.9840	74.3200
 1.9880	74.4100
 1.9920	74.5600
 1.9960	74.6800
 2.0000	75.0000
 2.0040	75.0600
 2.0080	75.1900
 2.0120	75.4100
 2.0160	75.4900
 2.0200	75.5500
 2.0240	75.7500
 2.0280	75.8800
 2.0320	75.9600
 2.0360	76.0700
 2.0400	76.0800
 2.0440	76.1300
 2.0480	76.2500
 2.0520	76.3300
 2.0560	76.3400
 2.0600	76.4000
 2.0640	76.4500
 2.0680	76.4800
 2.0720	76.5600
 2.0760	76.5200
 2.0800	76.5300
 2.0840	76.5200
 2.0880	76.5600
 2.0920	76.5500
 2.0960	76.6400
 2.1000	76.6700
 2.1040	76.7300
 2.1080	76.8200
 2.1120	76.8500
 2.1160	76.8600
 2.1200	76.8400
 2.1240	76.9500
 2.1280	76.9100
 2.1320	76.8600
 2.1360	76.8500
 2.1400	76.6500
 2.1440	76.5500
 2.1480	76.3800
 2.1520	76.1600
 2.1560	75.8500
 2.1600	75.5700
 2.1640	75.1900
 2.1680	74.8100
 2.1720	74.3100
 2.1760	73.8700
 2.1800	73.3200
 2.1840	72.9100
 2.1880	72.5100
 2.1920	72.3600
 2.1960	72.3800
 2.2000	72.4400
 2.2040	72.5600
 2.2080	72.8200
 2.2120	73.2100
 2.2160	73.5600
 2.2200	73.9400
 2.2240	74.1600
 2.2280	74.4500
 2.2320	74.5500
 2.2360	74.6000
 2.2400	74.6400
 2.2440	74.7400
 2.2480	74.7600
 2.2520	74.7100
 2.2560	74.7100
 2.2600	74.7100
 2.2640	74.7900
 2.2680	74.7200
 2.2720	74.7100
 2.2760	74.6700
 2.2800	74.5300
 2.2840	74.4600
 2.2880	74.2800
 2.2920	74.0400
 2.2960	73.8500
 2.3000	73.6600
 2.3040	73.4100
 2.3080	73.2200
 2.3120	72.9600
 2.3160	72.8700
 2.3200	72.7500
 2.3240	72.5000
 2.3280	72.2600
 2.3320	72.1400
 2.3360	72.0100
 2.3400	71.9400
 2.3440	71.9100
 2.3480	71.8800
 2.3520	71.9900
 2.3560	72.0400
 2.3600	72.0500
 2.3640	72.1200
 2.3680	72.1500
 2.3720	72.1200
 2.3760	72.1500
 2.3800	72.1200
 2.3840	72.0900
 2.3880	71.9900
 2.3920	71.8600
 2.3960	71.8200
 2.4000	71.6500
 2.4040	71.5900
 2.4080	71.3700
 2.4120	71.3000
 2.4160	71.0500
 2.4200	70.9500
 2.4240	70.6600
 2.4280	70.6100
 2.4320	70.2800
 2.4360	70.1700
 2.4400	70.0800
 2.4440	69.9600
 2.4480	69.8400
 2.4520	69.7600
 2.4560	69.7600
 2.4600	69.6200
 2.4640	69.5400
 2.4680	69.5400
 2.4720	69.4200
 2.4760	69.4200
 2.4800	69.5100
 2.4840	69.5500
 2.4880	69.5400
 2.4920	69.6700
 2.4960	69.6000
 2.5000	69.6500
