Name: Riebeckite Na_2(Fe^2+,Mg)_3,Fe_2^3+Si_8O_22(OH)_2
Type: Mineral
Class: Silicate
Subclass: Inosilicate
Particle Size: Fine
Sample No.: IN-7A
Owner: JPL
Wavelength Range: VSWIR
Origin: Canada, Ontario
Collection Date: N/A
Description: Particle size was 0-45um.Collected by Ward's Original ASTER Spectral Library name was jpl.beckman.mineral.silicate.inosilicate.fine.in07a.spectrum.txt
Measurement: Hemispherical reflectance
First Column: X
Second Column: Y
X Units: Wavelength (micrometers)
Y Units:Reflectance (percent)
First X Value:  0.4000
Last X Value:  2.5000
Number of X Values: 826
Additional Information: mineral.silicate.inosilicate.fine.vswir.in-7a.jpl.beckman.ancillary.txt

 0.4000	 9.5700
 0.4010	 9.6000
 0.4020	 9.6400
 0.4030	 9.8800
 0.4040	 9.8300
 0.4050	 9.9200
 0.4060	10.0400
 0.4070	 9.9900
 0.4080	10.1200
 0.4090	10.1600
 0.4100	10.2800
 0.4110	10.3600
 0.4120	10.3400
 0.4130	10.3900
 0.4140	10.3900
 0.4150	10.5900
 0.4160	10.6600
 0.4170	10.6400
 0.4180	10.7400
 0.4190	10.7400
 0.4200	10.9300
 0.4210	11.0100
 0.4220	11.0500
 0.4230	11.1500
 0.4240	11.1300
 0.4250	11.2100
 0.4260	11.3400
 0.4270	11.3500
 0.4280	11.4300
 0.4290	11.3400
 0.4300	11.5400
 0.4310	11.7600
 0.4320	11.7000
 0.4330	11.7000
 0.4340	11.6400
 0.4350	11.7100
 0.4360	11.7800
 0.4370	11.7700
 0.4380	11.8300
 0.4390	11.7400
 0.4400	11.7400
 0.4410	11.8600
 0.4420	11.8800
 0.4430	11.8900
 0.4440	11.9700
 0.4450	12.0600
 0.4460	12.1300
 0.4470	12.1400
 0.4480	12.2200
 0.4490	12.2300
 0.4500	12.2400
 0.4510	12.3000
 0.4520	12.3600
 0.4530	12.4800
 0.4540	12.5000
 0.4550	12.5200
 0.4560	12.6600
 0.4570	12.5700
 0.4580	12.7300
 0.4590	12.7800
 0.4600	12.7400
 0.4610	12.8100
 0.4620	12.8800
 0.4630	12.9400
 0.4640	13.0500
 0.4650	13.0300
 0.4660	13.0100
 0.4670	13.0300
 0.4680	13.2000
 0.4690	13.1200
 0.4700	13.3200
 0.4710	13.2300
 0.4720	13.2800
 0.4730	13.4200
 0.4740	13.4000
 0.4750	13.4600
 0.4760	13.4900
 0.4770	13.5200
 0.4780	13.5600
 0.4790	13.5600
 0.4800	13.6200
 0.4810	13.6200
 0.4820	13.5200
 0.4830	13.6900
 0.4840	13.6700
 0.4850	13.6800
 0.4860	13.6400
 0.4870	13.6300
 0.4880	13.6900
 0.4890	13.6200
 0.4900	13.7300
 0.4910	13.6700
 0.4920	13.6600
 0.4930	13.7100
 0.4940	13.7500
 0.4950	13.7800
 0.4960	13.7600
 0.4970	13.6900
 0.4980	13.7900
 0.4990	13.7200
 0.5000	13.7100
 0.5010	13.8000
 0.5020	13.7800
 0.5030	13.8300
 0.5040	13.8100
 0.5050	13.8500
 0.5060	13.8400
 0.5070	13.7700
 0.5080	13.7200
 0.5090	13.7700
 0.5100	13.8200
 0.5110	13.8100
 0.5120	13.8200
 0.5130	13.7800
 0.5140	13.7200
 0.5150	13.8200
 0.5160	13.7100
 0.5170	13.6700
 0.5180	13.7300
 0.5190	13.6500
 0.5200	13.6900
 0.5210	13.6800
 0.5220	13.6700
 0.5230	13.7000
 0.5240	13.5900
 0.5250	13.6000
 0.5260	13.6900
 0.5270	13.6300
 0.5280	13.5600
 0.5290	13.4600
 0.5300	13.4700
 0.5310	13.5500
 0.5320	13.4900
 0.5330	13.4900
 0.5340	13.4700
 0.5350	13.3100
 0.5360	13.4400
 0.5370	13.3900
 0.5380	13.3900
 0.5390	13.3300
 0.5400	13.3100
 0.5410	13.4200
 0.5420	13.3600
 0.5430	13.3200
 0.5440	13.3000
 0.5450	13.2200
 0.5460	13.2500
 0.5470	13.2300
 0.5480	13.3300
 0.5490	13.2500
 0.5500	13.1600
 0.5510	13.2100
 0.5520	13.2100
 0.5530	13.2500
 0.5540	13.2100
 0.5550	13.0500
 0.5560	13.2000
 0.5570	13.1000
 0.5580	13.1100
 0.5590	13.1300
 0.5600	13.0800
 0.5610	13.1000
 0.5620	13.0700
 0.5630	13.0200
 0.5640	13.1200
 0.5650	12.9900
 0.5660	13.0200
 0.5670	12.9100
 0.5680	12.9700
 0.5690	12.9200
 0.5700	12.9700
 0.5710	13.0000
 0.5720	12.9100
 0.5730	12.8400
 0.5740	12.8300
 0.5750	12.8000
 0.5760	12.9100
 0.5770	12.7700
 0.5780	12.7300
 0.5790	12.8300
 0.5800	12.8200
 0.5810	12.8000
 0.5820	12.6700
 0.5830	12.6200
 0.5840	12.7800
 0.5850	12.6800
 0.5860	12.7800
 0.5870	12.6800
 0.5880	12.6200
 0.5890	12.7400
 0.5900	12.6000
 0.5910	12.7300
 0.5920	12.6200
 0.5930	12.5700
 0.5940	12.6800
 0.5950	12.6500
 0.5960	12.5800
 0.5970	12.5900
 0.5980	12.5100
 0.5990	12.5500
 0.6000	12.5700
 0.6010	12.6100
 0.6020	12.6200
 0.6030	12.6000
 0.6040	12.6500
 0.6050	12.5700
 0.6060	12.5700
 0.6070	12.6200
 0.6080	12.5300
 0.6090	12.5800
 0.6100	12.5600
 0.6110	12.6000
 0.6120	12.5700
 0.6130	12.4400
 0.6140	12.5100
 0.6150	12.5700
 0.6160	12.5500
 0.6170	12.5800
 0.6180	12.5100
 0.6190	12.4800
 0.6200	12.4800
 0.6210	12.5200
 0.6220	12.5500
 0.6230	12.5500
 0.6240	12.4500
 0.6250	12.4600
 0.6260	12.5000
 0.6270	12.4700
 0.6280	12.4800
 0.6290	12.5500
 0.6300	12.5200
 0.6310	12.4800
 0.6320	12.5300
 0.6330	12.4100
 0.6340	12.4900
 0.6350	12.4300
 0.6360	12.5000
 0.6370	12.5700
 0.6380	12.4900
 0.6390	12.4800
 0.6400	12.4300
 0.6410	12.4900
 0.6420	12.5300
 0.6430	12.4300
 0.6440	12.5400
 0.6450	12.4100
 0.6460	12.4800
 0.6470	12.6000
 0.6480	12.4900
 0.6490	12.5700
 0.6500	12.5500
 0.6510	12.5000
 0.6520	12.5500
 0.6530	12.5600
 0.6540	12.6300
 0.6550	12.5900
 0.6560	12.5400
 0.6570	12.5800
 0.6580	12.6400
 0.6590	12.7200
 0.6600	12.6100
 0.6610	12.6000
 0.6620	12.6900
 0.6630	12.6700
 0.6640	12.7300
 0.6650	12.6500
 0.6660	12.6400
 0.6670	12.7400
 0.6680	12.7500
 0.6690	12.8000
 0.6700	12.7500
 0.6710	12.7400
 0.6720	12.7200
 0.6730	12.8000
 0.6740	12.8400
 0.6750	12.8000
 0.6760	12.8400
 0.6770	12.8300
 0.6780	12.9600
 0.6790	13.0200
 0.6800	12.9300
 0.6810	12.8800
 0.6820	13.0100
 0.6830	12.9800
 0.6840	13.0700
 0.6850	12.9400
 0.6860	13.0100
 0.6870	13.0900
 0.6880	13.0100
 0.6890	13.1300
 0.6900	13.0700
 0.6910	13.0700
 0.6920	13.2200
 0.6930	13.1800
 0.6940	13.3400
 0.6950	13.1900
 0.6960	13.2300
 0.6970	13.2800
 0.6980	13.2700
 0.6990	13.2800
 0.7000	13.2500
 0.7010	13.2700
 0.7020	13.4300
 0.7030	13.3400
 0.7040	13.4500
 0.7050	13.4500
 0.7060	13.4800
 0.7070	13.6100
 0.7080	13.5600
 0.7090	13.5600
 0.7100	13.6200
 0.7110	13.7200
 0.7120	13.7300
 0.7130	13.7200
 0.7140	13.7800
 0.7150	13.7500
 0.7160	13.8900
 0.7170	13.8900
 0.7180	13.8200
 0.7190	13.9700
 0.7200	13.9700
 0.7210	13.9800
 0.7220	14.0000
 0.7230	14.0800
 0.7240	14.0500
 0.7250	14.0800
 0.7260	14.1100
 0.7270	14.2400
 0.7280	14.2000
 0.7290	14.1200
 0.7300	14.2300
 0.7310	14.3100
 0.7320	14.4000
 0.7330	14.3500
 0.7340	14.3200
 0.7350	14.3600
 0.7360	14.4100
 0.7370	14.5500
 0.7380	14.5200
 0.7390	14.5600
 0.7400	14.5900
 0.7410	14.7000
 0.7420	14.7200
 0.7430	14.6800
 0.7440	14.7100
 0.7450	14.7500
 0.7460	14.8100
 0.7470	14.9400
 0.7480	14.9400
 0.7490	14.9500
 0.7500	15.0600
 0.7510	15.0900
 0.7520	15.1900
 0.7530	15.2900
 0.7540	15.4000
 0.7550	15.4000
 0.7560	15.5600
 0.7570	15.6200
 0.7580	15.5400
 0.7590	15.4700
 0.7600	15.5600
 0.7610	15.5300
 0.7620	15.5800
 0.7630	15.7200
 0.7640	15.7500
 0.7650	15.8100
 0.7660	15.8200
 0.7670	15.8100
 0.7680	15.9200
 0.7690	15.9200
 0.7700	16.0600
 0.7710	16.0500
 0.7720	16.1400
 0.7730	16.1400
 0.7740	16.2200
 0.7750	16.2900
 0.7760	16.2200
 0.7770	16.3200
 0.7780	16.3800
 0.7790	16.4600
 0.7800	16.4500
 0.7810	16.4300
 0.7820	16.5300
 0.7830	16.6200
 0.7840	16.6600
 0.7850	16.7000
 0.7860	16.6200
 0.7870	16.7200
 0.7880	16.8100
 0.7890	16.8700
 0.7900	16.8400
 0.7910	16.8700
 0.7920	16.9500
 0.7930	16.9400
 0.7940	17.0600
 0.7950	17.1100
 0.7960	17.1300
 0.7970	17.2200
 0.7980	17.2100
 0.7990	17.2300
 0.8000	17.4900
 0.8040	17.7200
 0.8080	17.7900
 0.8120	17.9200
 0.8160	18.0100
 0.8200	18.0800
 0.8240	18.1800
 0.8280	18.2300
 0.8320	18.3400
 0.8360	18.4300
 0.8400	18.5000
 0.8440	18.5100
 0.8480	18.6100
 0.8520	18.6300
 0.8560	18.7100
 0.8600	18.7400
 0.8640	18.8000
 0.8680	18.9200
 0.8720	19.0100
 0.8760	19.1000
 0.8800	19.1800
 0.8840	19.3000
 0.8880	19.4400
 0.8920	19.4700
 0.8960	19.5300
 0.9000	19.7300
 0.9040	19.8500
 0.9080	20.0600
 0.9120	20.1200
 0.9160	20.2600
 0.9200	20.4400
 0.9240	20.6600
 0.9280	20.7900
 0.9320	21.0200
 0.9360	21.1200
 0.9400	21.3400
 0.9440	21.5700
 0.9480	21.8400
 0.9520	22.1000
 0.9560	22.3500
 0.9600	22.5500
 0.9640	22.8100
 0.9680	22.9900
 0.9720	23.2800
 0.9760	23.4900
 0.9800	23.7300
 0.9840	23.9000
 0.9880	24.0500
 0.9920	24.3400
 0.9960	24.4600
 1.0000	24.5800
 1.0040	24.9700
 1.0080	25.1000
 1.0120	25.1800
 1.0160	25.4000
 1.0200	25.5500
 1.0240	25.8200
 1.0280	26.0000
 1.0320	26.0500
 1.0360	26.2800
 1.0400	26.4700
 1.0440	26.5900
 1.0480	26.8000
 1.0520	26.9800
 1.0560	27.0500
 1.0600	27.1900
 1.0640	27.4000
 1.0680	27.5300
 1.0720	27.6700
 1.0760	27.8200
 1.0800	28.0300
 1.0840	28.1500
 1.0880	28.2700
 1.0920	28.4300
 1.0960	28.5900
 1.1000	28.7500
 1.1040	28.8900
 1.1080	28.9600
 1.1120	29.1100
 1.1160	29.2700
 1.1200	29.4600
 1.1240	29.6300
 1.1280	29.7500
 1.1320	29.9200
 1.1360	30.0600
 1.1400	30.2700
 1.1440	30.3400
 1.1480	30.6200
 1.1520	30.7700
 1.1560	30.9900
 1.1600	31.2100
 1.1640	31.3500
 1.1680	31.5300
 1.1720	31.7500
 1.1760	31.9800
 1.1800	32.1800
 1.1840	32.4500
 1.1880	32.6300
 1.1920	32.7900
 1.1960	33.0000
 1.2000	33.3200
 1.2040	33.4900
 1.2080	33.6900
 1.2120	33.9700
 1.2160	34.1600
 1.2200	34.4700
 1.2240	34.7500
 1.2280	34.9500
 1.2320	35.1800
 1.2360	35.4500
 1.2400	35.7300
 1.2440	35.9900
 1.2480	36.3200
 1.2520	36.5300
 1.2560	36.8000
 1.2600	37.1100
 1.2640	37.3600
 1.2680	37.6100
 1.2720	37.8200
 1.2760	38.0800
 1.2800	38.4700
 1.2840	38.7200
 1.2880	39.0700
 1.2920	39.2800
 1.2960	39.6600
 1.3000	39.9300
 1.3040	40.2000
 1.3080	40.5200
 1.3120	40.8800
 1.3160	41.1600
 1.3200	41.4500
 1.3240	41.7500
 1.3280	42.0000
 1.3320	42.3400
 1.3360	42.6600
 1.3400	42.9800
 1.3440	43.3200
 1.3480	43.5500
 1.3520	43.8900
 1.3560	44.2200
 1.3600	44.5600
 1.3640	44.8000
 1.3680	45.1500
 1.3720	45.3800
 1.3760	45.6400
 1.3800	45.7000
 1.3840	45.8000
 1.3880	45.9000
 1.3920	46.1300
 1.3960	46.5100
 1.4000	46.9000
 1.4040	47.4500
 1.4080	47.9500
 1.4120	48.3300
 1.4160	48.6800
 1.4200	49.0600
 1.4240	49.3800
 1.4280	49.7300
 1.4320	49.9900
 1.4360	50.3000
 1.4400	50.6400
 1.4440	50.9000
 1.4480	51.1800
 1.4520	51.5500
 1.4560	51.7200
 1.4600	51.9800
 1.4640	52.2200
 1.4680	52.5500
 1.4720	52.7400
 1.4760	52.9900
 1.4800	53.3900
 1.4840	53.6100
 1.4880	53.8900
 1.4920	54.1800
 1.4960	54.4300
 1.5000	54.6800
 1.5040	55.0400
 1.5080	55.3300
 1.5120	55.6200
 1.5160	55.8000
 1.5200	56.0500
 1.5240	56.1900
 1.5280	56.5700
 1.5320	56.7200
 1.5360	57.0400
 1.5400	57.2500
 1.5440	57.4900
 1.5480	57.7300
 1.5520	57.9500
 1.5560	58.2200
 1.5600	58.4900
 1.5640	58.7000
 1.5680	58.8900
 1.5720	59.1700
 1.5760	59.3500
 1.5800	59.5400
 1.5840	59.7700
 1.5880	60.0200
 1.5920	60.1600
 1.5960	60.4600
 1.6000	60.6200
 1.6040	60.7900
 1.6080	61.0400
 1.6120	61.1900
 1.6160	61.4600
 1.6200	61.7200
 1.6240	61.8700
 1.6280	62.0300
 1.6320	62.2000
 1.6360	62.4500
 1.6400	62.5700
 1.6440	62.8600
 1.6480	63.0500
 1.6520	63.2400
 1.6560	63.4200
 1.6600	63.7400
 1.6640	63.8600
 1.6680	63.9300
 1.6720	64.1700
 1.6760	64.3500
 1.6800	64.4900
 1.6840	64.7000
 1.6880	64.8500
 1.6920	65.0100
 1.6960	65.1700
 1.7000	65.2500
 1.7040	65.4600
 1.7080	65.7400
 1.7120	65.8300
 1.7160	65.9800
 1.7200	66.2200
 1.7240	66.3100
 1.7280	66.4200
 1.7320	66.5900
 1.7360	66.7900
 1.7400	66.9600
 1.7440	67.0100
 1.7480	67.1900
 1.7520	67.2800
 1.7560	67.4400
 1.7600	67.5900
 1.7640	67.7700
 1.7680	67.8300
 1.7720	67.9400
 1.7760	68.0100
 1.7800	68.1800
 1.7840	68.2400
 1.7880	68.4100
 1.7920	68.5400
 1.7960	68.7800
 1.8000	68.8100
 1.8040	69.0400
 1.8080	69.0700
 1.8120	69.2200
 1.8160	69.3300
 1.8200	69.4600
 1.8240	69.5800
 1.8280	69.7100
 1.8320	69.7600
 1.8360	69.8600
 1.8400	69.9500
 1.8440	69.9800
 1.8480	70.0900
 1.8520	70.1500
 1.8560	70.2500
 1.8600	70.3000
 1.8640	70.4400
 1.8680	70.4700
 1.8720	70.5800
 1.8760	70.6900
 1.8800	70.7500
 1.8840	70.7400
 1.8880	70.8600
 1.8920	70.8800
 1.8960	70.9100
 1.9000	70.9000
 1.9040	71.0600
 1.9080	71.0800
 1.9120	71.0800
 1.9160	71.2700
 1.9200	71.4200
 1.9240	71.4800
 1.9280	71.5100
 1.9320	71.5600
 1.9360	71.7000
 1.9400	71.8300
 1.9440	71.9200
 1.9480	72.0200
 1.9520	72.0900
 1.9560	72.1800
 1.9600	72.2300
 1.9640	72.3300
 1.9680	72.4400
 1.9720	72.4700
 1.9760	72.5500
 1.9800	72.6700
 1.9840	72.7900
 1.9880	72.9300
 1.9920	73.0000
 1.9960	73.1200
 2.0000	73.2000
 2.0040	73.3000
 2.0080	73.3500
 2.0120	73.3800
 2.0160	73.4900
 2.0200	73.5300
 2.0240	73.5900
 2.0280	73.5800
 2.0320	73.6100
 2.0360	73.7000
 2.0400	73.8300
 2.0440	73.8700
 2.0480	73.8700
 2.0520	74.0200
 2.0560	74.0700
 2.0600	74.1500
 2.0640	74.1900
 2.0680	74.1900
 2.0720	74.2500
 2.0760	74.2900
 2.0800	74.3800
 2.0840	74.4500
 2.0880	74.4300
 2.0920	74.4200
 2.0960	74.4900
 2.1000	74.5000
 2.1040	74.5900
 2.1080	74.6700
 2.1120	74.8400
 2.1160	74.8500
 2.1200	74.8700
 2.1240	74.9000
 2.1280	74.9000
 2.1320	74.9300
 2.1360	74.9500
 2.1400	75.0200
 2.1440	74.9900
 2.1480	74.9700
 2.1520	75.0100
 2.1560	75.0700
 2.1600	75.0800
 2.1640	74.9700
 2.1680	75.0300
 2.1720	75.0000
 2.1760	75.0900
 2.1800	75.1000
 2.1840	75.0400
 2.1880	75.0700
 2.1920	75.0000
 2.1960	74.9900
 2.2000	75.0000
 2.2040	75.0100
 2.2080	75.0300
 2.2120	75.0100
 2.2160	75.0400
 2.2200	75.1300
 2.2240	75.1500
 2.2280	75.1000
 2.2320	75.0500
 2.2360	75.0300
 2.2400	75.0300
 2.2440	74.9400
 2.2480	74.9700
 2.2520	74.8900
 2.2560	74.8400
 2.2600	74.8400
 2.2640	74.7300
 2.2680	74.7900
 2.2720	74.5500
 2.2760	74.5400
 2.2800	74.2600
 2.2840	73.9800
 2.2880	73.7300
 2.2920	73.2500
 2.2960	72.7700
 2.3000	72.2700
 2.3040	71.5300
 2.3080	71.0600
 2.3120	70.6400
 2.3160	70.4200
 2.3200	70.2800
 2.3240	70.3100
 2.3280	70.3300
 2.3320	70.5800
 2.3360	70.9100
 2.3400	71.2600
 2.3440	71.6000
 2.3480	71.9200
 2.3520	72.2200
 2.3560	72.4600
 2.3600	72.4500
 2.3640	72.3800
 2.3680	72.2100
 2.3720	72.0000
 2.3760	71.7400
 2.3800	71.5800
 2.3840	71.4300
 2.3880	71.4400
 2.3920	71.4300
 2.3960	71.5500
 2.4000	71.7800
 2.4040	72.0900
 2.4080	72.5100
 2.4120	72.8100
 2.4160	73.0900
 2.4200	73.4900
 2.4240	73.6100
 2.4280	73.7500
 2.4320	73.8600
 2.4360	73.9500
 2.4400	74.0400
 2.4440	74.0200
 2.4480	74.0600
 2.4520	74.0600
 2.4560	74.0600
 2.4600	74.0000
 2.4640	73.8900
 2.4680	73.9400
 2.4720	73.9600
 2.4760	73.9600
 2.4800	74.0400
 2.4840	74.0600
 2.4880	74.1900
 2.4920	74.2800
 2.4960	74.4700
 2.5000	74.6000
