Name: Quartz SiO_2
Type: Mineral
Class: Silicate
Subclass: Tectosilicate
Particle Size: Fine
Sample No.: TS-1E
Owner: JPL
Wavelength Range: VSWIR
Origin: Unknown.
Collection Date: N/A
Description: CrysopraseParticle size was 0-45um.Collected by:  JPL Original ASTER Spectral Library name was jpl.perkin.mineral.silicate.tectosilicate.fine.ts01e.spectrum.txt
Measurement: Hemispherical reflectance
First Column: X
Second Column: Y
X Units: Wavelength (micrometers)
Y Units:Reflectance (percent)
First X Value:  2.5000
Last X Value:  0.4000
Number of X Values: 2101
Additional Information: mineral.silicate.tectosilicate.fine.vswir.ts-1e.jpl.perkin.ancillary.txt

 2.5000	65.5969
 2.4990	65.5125
 2.4980	65.5889
 2.4970	65.4222
 2.4960	65.3823
 2.4950	65.3522
 2.4940	65.5479
 2.4930	65.4096
 2.4920	65.4931
 2.4910	65.4448
 2.4900	65.7940
 2.4890	65.7220
 2.4880	65.7456
 2.4870	65.7808
 2.4860	65.7477
 2.4850	65.6849
 2.4840	65.7840
 2.4830	65.7090
 2.4820	65.7289
 2.4810	65.8026
 2.4800	65.9729
 2.4790	65.9172
 2.4780	66.0385
 2.4770	65.8263
 2.4760	65.9810
 2.4750	65.9774
 2.4740	65.9232
 2.4730	65.9169
 2.4720	66.1009
 2.4710	66.1416
 2.4700	66.0975
 2.4690	66.2270
 2.4680	66.1984
 2.4670	66.0594
 2.4660	66.2708
 2.4650	66.2211
 2.4640	66.3529
 2.4630	66.3024
 2.4620	66.3879
 2.4610	66.3721
 2.4600	66.5029
 2.4590	66.5005
 2.4580	66.5351
 2.4570	66.4749
 2.4560	66.6098
 2.4550	66.7343
 2.4540	66.7636
 2.4530	66.7777
 2.4520	66.7721
 2.4510	66.7965
 2.4500	66.8160
 2.4490	66.9337
 2.4480	66.9103
 2.4470	66.9140
 2.4460	67.0398
 2.4450	66.9653
 2.4440	67.1358
 2.4430	67.0901
 2.4420	67.1503
 2.4410	67.1617
 2.4400	67.2032
 2.4390	67.1069
 2.4380	67.2265
 2.4370	67.2648
 2.4360	67.3390
 2.4350	67.2301
 2.4340	67.5175
 2.4330	67.4924
 2.4320	67.3999
 2.4310	67.5033
 2.4300	67.4403
 2.4290	67.4339
 2.4280	67.3863
 2.4270	67.4687
 2.4260	67.4897
 2.4250	67.4822
 2.4240	67.4901
 2.4230	67.4504
 2.4220	67.5259
 2.4210	67.5414
 2.4200	67.6764
 2.4190	67.7163
 2.4180	67.7563
 2.4170	67.6449
 2.4160	67.6845
 2.4150	67.7830
 2.4140	67.7932
 2.4130	67.6855
 2.4120	67.7641
 2.4110	67.8061
 2.4100	67.8087
 2.4090	67.7895
 2.4080	67.8343
 2.4070	67.8875
 2.4060	67.8969
 2.4050	67.9087
 2.4040	67.9059
 2.4030	67.9589
 2.4020	68.0304
 2.4010	67.9185
 2.4000	67.9835
 2.3990	68.0024
 2.3980	67.9759
 2.3970	68.0729
 2.3960	68.1674
 2.3950	68.1353
 2.3940	68.1342
 2.3930	68.1682
 2.3920	68.1884
 2.3910	68.2189
 2.3900	68.2139
 2.3890	68.2931
 2.3880	68.3559
 2.3870	68.3281
 2.3860	68.3497
 2.3850	68.3826
 2.3840	68.3824
 2.3830	68.3526
 2.3820	68.3923
 2.3810	68.3963
 2.3800	68.4233
 2.3790	68.4539
 2.3780	68.5070
 2.3770	68.4377
 2.3760	68.4884
 2.3750	68.5573
 2.3740	68.5832
 2.3730	68.5716
 2.3720	68.5474
 2.3710	68.5671
 2.3700	68.5581
 2.3690	68.6052
 2.3680	68.6866
 2.3670	68.6356
 2.3660	68.6358
 2.3650	68.6333
 2.3640	68.6467
 2.3630	68.7087
 2.3620	68.7675
 2.3610	68.7321
 2.3600	68.7328
 2.3590	68.7388
 2.3580	68.6645
 2.3570	68.7156
 2.3560	68.7974
 2.3550	68.7645
 2.3540	68.7630
 2.3530	68.7617
 2.3520	68.7775
 2.3510	68.7663
 2.3500	68.6667
 2.3490	68.6838
 2.3480	68.7604
 2.3470	68.7482
 2.3460	68.7428
 2.3450	68.7325
 2.3440	68.7245
 2.3430	68.7561
 2.3420	68.7141
 2.3410	68.6439
 2.3400	68.6648
 2.3390	68.6736
 2.3380	68.6137
 2.3370	68.5833
 2.3360	68.6027
 2.3350	68.5988
 2.3340	68.5611
 2.3330	68.5325
 2.3320	68.4358
 2.3310	68.4725
 2.3300	68.4506
 2.3290	68.3797
 2.3280	68.3063
 2.3270	68.2903
 2.3260	68.3110
 2.3250	68.2593
 2.3240	68.2269
 2.3230	68.2149
 2.3220	68.1918
 2.3210	68.1537
 2.3200	68.1720
 2.3190	68.1264
 2.3180	68.0544
 2.3170	68.1037
 2.3160	68.1035
 2.3150	68.0849
 2.3140	68.0787
 2.3130	68.0437
 2.3120	67.9956
 2.3110	67.9870
 2.3100	68.0284
 2.3090	68.0293
 2.3080	68.0069
 2.3070	67.9922
 2.3060	67.9713
 2.3050	67.9903
 2.3040	68.0131
 2.3030	68.0109
 2.3020	67.9469
 2.3010	67.9841
 2.3000	67.9443
 2.2990	68.0543
 2.2980	67.9809
 2.2970	68.0355
 2.2960	68.0481
 2.2950	68.0549
 2.2940	68.0807
 2.2930	68.0234
 2.2920	68.0031
 2.2910	68.0704
 2.2900	68.0735
 2.2890	68.1117
 2.2880	68.0081
 2.2870	68.0721
 2.2860	68.0597
 2.2850	68.0982
 2.2840	68.1024
 2.2830	68.0768
 2.2820	68.0472
 2.2810	68.0660
 2.2800	68.0776
 2.2790	68.0995
 2.2780	68.0675
 2.2770	68.0494
 2.2760	68.0539
 2.2750	68.0624
 2.2740	68.0616
 2.2730	68.1759
 2.2720	68.1033
 2.2710	68.1053
 2.2700	68.0222
 2.2690	68.0214
 2.2680	68.0549
 2.2670	68.0237
 2.2660	68.0463
 2.2650	68.0874
 2.2640	68.0749
 2.2630	68.0390
 2.2620	68.0429
 2.2610	68.0427
 2.2600	68.0450
 2.2590	67.9722
 2.2580	67.9512
 2.2570	68.0021
 2.2560	67.9491
 2.2550	67.9827
 2.2540	67.9918
 2.2530	67.9993
 2.2520	67.9977
 2.2510	67.9997
 2.2500	68.0048
 2.2490	68.0405
 2.2480	67.9975
 2.2470	67.9917
 2.2460	68.0264
 2.2450	68.0821
 2.2440	68.1053
 2.2430	68.0816
 2.2420	68.0807
 2.2410	68.0373
 2.2400	68.0682
 2.2390	68.0727
 2.2380	68.0854
 2.2370	68.1715
 2.2360	68.1572
 2.2350	68.1987
 2.2340	68.1369
 2.2330	68.1705
 2.2320	68.1972
 2.2310	68.2498
 2.2300	68.1320
 2.2290	68.2067
 2.2280	68.1985
 2.2270	68.1606
 2.2260	68.1768
 2.2250	68.2694
 2.2240	68.0859
 2.2230	68.2121
 2.2220	68.2146
 2.2210	68.1330
 2.2200	68.2481
 2.2190	68.2434
 2.2180	68.1777
 2.2170	68.2182
 2.2160	68.2477
 2.2150	68.3615
 2.2140	68.3493
 2.2130	68.3387
 2.2120	68.3771
 2.2110	68.3677
 2.2100	68.4392
 2.2090	68.4912
 2.2080	68.4823
 2.2070	68.5472
 2.2060	68.5841
 2.2050	68.6382
 2.2040	68.6084
 2.2030	68.6773
 2.2020	68.7623
 2.2010	68.8694
 2.2000	68.8123
 2.1990	68.8088
 2.1980	68.9684
 2.1970	69.0899
 2.1960	69.0047
 2.1950	69.0475
 2.1940	69.0332
 2.1930	69.1219
 2.1920	69.1417
 2.1910	69.1450
 2.1900	69.2000
 2.1890	69.2965
 2.1880	69.3508
 2.1870	69.3890
 2.1860	69.3863
 2.1850	69.4621
 2.1840	69.4067
 2.1830	69.5513
 2.1820	69.5705
 2.1810	69.6336
 2.1800	69.6907
 2.1790	69.7022
 2.1780	69.7197
 2.1770	69.7680
 2.1760	69.7936
 2.1750	69.9292
 2.1740	69.8816
 2.1730	69.9096
 2.1720	69.9642
 2.1710	70.0062
 2.1700	70.0907
 2.1690	70.1262
 2.1680	70.1089
 2.1670	70.1496
 2.1660	70.1873
 2.1650	70.3001
 2.1640	70.3127
 2.1630	70.3228
 2.1620	70.2777
 2.1610	70.4687
 2.1600	70.4852
 2.1590	70.4145
 2.1580	70.4626
 2.1570	70.4910
 2.1560	70.5708
 2.1550	70.5692
 2.1540	70.4846
 2.1530	70.6250
 2.1520	70.6594
 2.1510	70.7182
 2.1500	70.6991
 2.1490	70.6837
 2.1480	70.6819
 2.1470	70.6841
 2.1460	70.7128
 2.1450	70.7097
 2.1440	70.8373
 2.1430	70.8228
 2.1420	70.7432
 2.1410	70.7599
 2.1400	70.7665
 2.1390	70.7411
 2.1380	70.7601
 2.1370	70.7481
 2.1360	70.7325
 2.1350	70.8070
 2.1340	70.7699
 2.1330	70.7259
 2.1320	70.7613
 2.1310	70.6772
 2.1300	70.6422
 2.1290	70.7143
 2.1280	70.6545
 2.1270	70.6118
 2.1260	70.5584
 2.1250	70.5206
 2.1240	70.4875
 2.1230	70.4086
 2.1220	70.3681
 2.1210	70.4013
 2.1200	70.3718
 2.1190	70.3298
 2.1180	70.3175
 2.1170	70.2395
 2.1160	70.2008
 2.1150	70.1800
 2.1140	70.1258
 2.1130	70.1349
 2.1120	70.0821
 2.1110	70.0494
 2.1100	69.9887
 2.1090	69.9683
 2.1080	69.9484
 2.1070	69.8978
 2.1060	69.8654
 2.1050	69.8030
 2.1040	69.7597
 2.1030	69.7310
 2.1020	69.7414
 2.1010	69.7255
 2.1000	69.6730
 2.0990	69.6393
 2.0980	69.6925
 2.0970	69.6969
 2.0960	69.6669
 2.0950	69.7277
 2.0940	69.7491
 2.0930	69.7011
 2.0920	69.6991
 2.0910	69.7777
 2.0900	69.7421
 2.0890	69.7619
 2.0880	69.7703
 2.0870	69.7411
 2.0860	69.7918
 2.0850	69.8583
 2.0840	69.8701
 2.0830	69.8312
 2.0820	69.8200
 2.0810	69.8766
 2.0800	69.9001
 2.0790	69.8694
 2.0780	69.8419
 2.0770	69.8615
 2.0760	69.8257
 2.0750	69.8368
 2.0740	69.8960
 2.0730	69.9022
 2.0720	69.9152
 2.0710	69.9129
 2.0700	69.8882
 2.0690	69.8551
 2.0680	69.8974
 2.0670	69.9793
 2.0660	69.9647
 2.0650	69.9591
 2.0640	69.9621
 2.0630	69.9927
 2.0620	70.0229
 2.0610	69.9809
 2.0600	69.9948
 2.0590	70.0332
 2.0580	70.0196
 2.0570	70.0309
 2.0560	70.0718
 2.0550	70.0583
 2.0540	70.0900
 2.0530	70.1056
 2.0520	70.0850
 2.0510	70.0423
 2.0500	70.0210
 2.0490	70.1158
 2.0480	70.1588
 2.0470	70.1068
 2.0460	70.0762
 2.0450	70.1041
 2.0440	70.1667
 2.0430	70.1559
 2.0420	70.1620
 2.0410	70.1820
 2.0400	70.1495
 2.0390	70.1491
 2.0380	70.1760
 2.0370	70.1160
 2.0360	70.1320
 2.0350	70.1270
 2.0340	70.1301
 2.0330	70.1482
 2.0320	70.1980
 2.0310	70.1616
 2.0300	70.1664
 2.0290	70.1311
 2.0280	70.1858
 2.0270	70.2304
 2.0260	70.1738
 2.0250	70.1127
 2.0240	70.1015
 2.0230	70.1150
 2.0220	70.1138
 2.0210	70.1696
 2.0200	70.0823
 2.0190	69.9888
 2.0180	70.0413
 2.0170	70.0277
 2.0160	70.0030
 2.0150	70.0800
 2.0140	70.0676
 2.0130	70.0619
 2.0120	70.0186
 2.0110	70.0255
 2.0100	70.0394
 2.0090	70.0077
 2.0080	70.0112
 2.0070	69.9643
 2.0060	70.0607
 2.0050	69.9783
 2.0040	70.0110
 2.0030	69.9999
 2.0020	70.0158
 2.0010	70.0113
 2.0000	69.9925
 1.9990	69.9273
 1.9980	69.9126
 1.9970	69.9538
 1.9960	70.0068
 1.9950	69.9336
 1.9940	69.8654
 1.9930	69.8295
 1.9920	69.8303
 1.9910	69.8324
 1.9900	69.8063
 1.9890	69.7475
 1.9880	69.7577
 1.9870	69.7168
 1.9860	69.6722
 1.9850	69.7314
 1.9840	69.7222
 1.9830	69.6463
 1.9820	69.5932
 1.9810	69.6065
 1.9800	69.6457
 1.9790	69.5921
 1.9780	69.5863
 1.9770	69.5688
 1.9760	69.5093
 1.9750	69.4641
 1.9740	69.4879
 1.9730	69.4877
 1.9720	69.5204
 1.9710	69.4372
 1.9700	69.5301
 1.9690	69.4461
 1.9680	69.3608
 1.9670	69.3320
 1.9660	69.3674
 1.9650	69.3512
 1.9640	69.3281
 1.9630	69.3481
 1.9620	69.3314
 1.9610	69.3039
 1.9600	69.3489
 1.9590	69.1768
 1.9580	69.3564
 1.9570	69.2280
 1.9560	69.2483
 1.9550	69.1533
 1.9540	69.1815
 1.9530	69.1866
 1.9520	69.2098
 1.9510	69.1639
 1.9500	69.1752
 1.9490	69.0774
 1.9480	69.1288
 1.9470	69.1744
 1.9460	69.0768
 1.9450	69.1225
 1.9440	69.2371
 1.9430	69.1208
 1.9420	69.1101
 1.9410	69.1273
 1.9400	69.1117
 1.9390	69.1119
 1.9380	69.1462
 1.9370	69.1054
 1.9360	69.0640
 1.9350	69.0470
 1.9340	69.0510
 1.9330	69.0761
 1.9320	69.0238
 1.9310	68.9922
 1.9300	69.0456
 1.9290	69.0297
 1.9280	69.0593
 1.9270	69.1292
 1.9260	69.0450
 1.9250	69.0741
 1.9240	69.0641
 1.9230	69.0105
 1.9220	69.0311
 1.9210	69.0773
 1.9200	69.0786
 1.9190	69.0704
 1.9180	69.0516
 1.9170	68.9718
 1.9160	69.0386
 1.9150	69.0282
 1.9140	68.9941
 1.9130	68.9708
 1.9120	69.0582
 1.9110	69.0410
 1.9100	69.0299
 1.9090	69.0490
 1.9080	69.0957
 1.9070	69.1903
 1.9060	69.1524
 1.9050	69.1108
 1.9040	69.3034
 1.9030	69.2725
 1.9020	69.3943
 1.9010	69.4222
 1.9000	69.4997
 1.8990	69.5296
 1.8980	69.5635
 1.8970	69.6346
 1.8960	69.8105
 1.8950	69.8416
 1.8940	69.8896
 1.8930	69.9756
 1.8920	70.0642
 1.8910	70.0383
 1.8900	70.1903
 1.8890	70.2100
 1.8880	70.2885
 1.8870	70.3602
 1.8860	70.4362
 1.8850	70.4878
 1.8840	70.6271
 1.8830	70.5849
 1.8820	70.6222
 1.8810	70.5706
 1.8800	70.6237
 1.8790	70.6353
 1.8780	70.7370
 1.8770	70.7727
 1.8760	70.8154
 1.8750	70.7118
 1.8740	70.8321
 1.8730	70.8362
 1.8720	70.9078
 1.8710	70.9018
 1.8700	70.8897
 1.8690	70.8669
 1.8680	70.8891
 1.8670	70.9193
 1.8660	70.9448
 1.8650	70.9457
 1.8640	70.9806
 1.8630	70.9617
 1.8620	71.0492
 1.8610	71.0345
 1.8600	71.0619
 1.8590	71.0139
 1.8580	71.0082
 1.8570	70.9800
 1.8560	70.9402
 1.8550	70.9617
 1.8540	71.0628
 1.8530	71.0342
 1.8520	71.0402
 1.8510	71.0078
 1.8500	71.0396
 1.8490	71.0641
 1.8480	71.0260
 1.8470	71.0961
 1.8460	71.0555
 1.8450	71.0644
 1.8440	71.1446
 1.8430	71.1708
 1.8420	71.0738
 1.8410	71.0862
 1.8400	71.1901
 1.8390	71.1462
 1.8380	71.1065
 1.8370	71.0972
 1.8360	71.0603
 1.8350	71.1321
 1.8340	71.2129
 1.8330	71.1807
 1.8320	71.1197
 1.8310	71.0744
 1.8300	71.0510
 1.8290	71.1208
 1.8280	71.1961
 1.8270	71.1324
 1.8260	71.0546
 1.8250	71.0849
 1.8240	71.1067
 1.8230	71.1457
 1.8220	71.1094
 1.8210	71.1122
 1.8200	71.1652
 1.8190	71.0879
 1.8180	71.0726
 1.8170	71.1685
 1.8160	71.1917
 1.8150	71.1192
 1.8140	71.0701
 1.8130	71.1334
 1.8120	71.1519
 1.8110	71.1543
 1.8100	71.1578
 1.8090	71.2076
 1.8080	71.2146
 1.8070	71.1891
 1.8060	71.2285
 1.8050	71.2265
 1.8040	71.2272
 1.8030	71.2355
 1.8020	71.2376
 1.8010	71.2392
 1.8000	71.2146
 1.7990	71.1941
 1.7980	71.1387
 1.7970	71.1337
 1.7960	71.1858
 1.7950	71.1738
 1.7940	71.1822
 1.7930	71.2429
 1.7920	71.1998
 1.7910	71.1165
 1.7900	71.0990
 1.7890	71.1455
 1.7880	71.1739
 1.7870	71.1857
 1.7860	71.1915
 1.7850	71.1823
 1.7840	71.1766
 1.7830	71.1749
 1.7820	71.1771
 1.7810	71.1754
 1.7800	71.1656
 1.7790	71.1710
 1.7780	71.2160
 1.7770	71.1527
 1.7760	71.1468
 1.7750	71.1953
 1.7740	71.1612
 1.7730	71.1285
 1.7720	71.1390
 1.7710	71.1288
 1.7700	71.1014
 1.7690	71.1218
 1.7680	71.1832
 1.7670	71.2002
 1.7660	71.1801
 1.7650	71.1810
 1.7640	71.1925
 1.7630	71.1736
 1.7620	71.1274
 1.7610	71.1724
 1.7600	71.2314
 1.7590	71.2293
 1.7580	71.2299
 1.7570	71.2064
 1.7560	71.1716
 1.7550	71.2085
 1.7540	71.2172
 1.7530	71.2090
 1.7520	71.2046
 1.7510	71.2329
 1.7500	71.2398
 1.7490	71.2625
 1.7480	71.2656
 1.7470	71.2031
 1.7460	71.1786
 1.7450	71.1964
 1.7440	71.2032
 1.7430	71.2136
 1.7420	71.1985
 1.7410	71.2160
 1.7400	71.2842
 1.7390	71.2586
 1.7380	71.2513
 1.7370	71.2586
 1.7360	71.1666
 1.7350	71.2466
 1.7340	71.2924
 1.7330	71.2696
 1.7320	71.2702
 1.7310	71.2974
 1.7300	71.3482
 1.7290	71.3861
 1.7280	71.3358
 1.7270	71.3645
 1.7260	71.3264
 1.7250	71.3258
 1.7240	71.3350
 1.7230	71.3205
 1.7220	71.3024
 1.7210	71.3523
 1.7200	71.2823
 1.7190	71.2642
 1.7180	71.2710
 1.7170	71.3107
 1.7160	71.3126
 1.7150	71.3667
 1.7140	71.3236
 1.7130	71.3188
 1.7120	71.2933
 1.7110	71.3110
 1.7100	71.2726
 1.7090	71.2918
 1.7080	71.2523
 1.7070	71.2990
 1.7060	71.3353
 1.7050	71.4095
 1.7040	71.2876
 1.7030	71.2697
 1.7020	71.3337
 1.7010	71.3043
 1.7000	71.2173
 1.6990	71.2617
 1.6980	71.2677
 1.6970	71.2665
 1.6960	71.2986
 1.6950	71.3051
 1.6940	71.2818
 1.6930	71.2564
 1.6920	71.2956
 1.6910	71.3003
 1.6900	71.2368
 1.6890	71.2226
 1.6880	71.2257
 1.6870	71.2523
 1.6860	71.2642
 1.6850	71.2684
 1.6840	71.2547
 1.6830	71.2421
 1.6820	71.1968
 1.6810	71.2306
 1.6800	71.2920
 1.6790	71.2843
 1.6780	71.3254
 1.6770	71.2946
 1.6760	71.3025
 1.6750	71.3145
 1.6740	71.2455
 1.6730	71.3263
 1.6720	71.3268
 1.6710	71.2614
 1.6700	71.2804
 1.6690	71.3067
 1.6680	71.3327
 1.6670	71.2961
 1.6660	71.2638
 1.6650	71.3575
 1.6640	71.2611
 1.6630	71.2498
 1.6620	71.2723
 1.6610	71.2669
 1.6600	71.2564
 1.6590	71.1875
 1.6580	71.3055
 1.6570	71.2666
 1.6560	71.2441
 1.6550	71.2241
 1.6540	71.3078
 1.6530	71.2959
 1.6520	71.2811
 1.6510	71.3232
 1.6500	71.2412
 1.6490	71.2287
 1.6480	71.1958
 1.6470	71.3054
 1.6460	71.2898
 1.6450	71.2907
 1.6440	71.2252
 1.6430	71.3032
 1.6420	71.2395
 1.6410	71.3267
 1.6400	71.2719
 1.6390	71.2818
 1.6380	71.2476
 1.6370	71.3264
 1.6360	71.2712
 1.6350	71.2760
 1.6340	71.2667
 1.6330	71.2827
 1.6320	71.2455
 1.6310	71.3085
 1.6300	71.2114
 1.6290	71.3079
 1.6280	71.2757
 1.6270	71.2108
 1.6260	71.2154
 1.6250	71.3880
 1.6240	71.3626
 1.6230	71.2959
 1.6220	71.3021
 1.6210	71.3230
 1.6200	71.2813
 1.6190	71.2559
 1.6180	71.3039
 1.6170	71.3091
 1.6160	71.3745
 1.6150	71.3110
 1.6140	71.2776
 1.6130	71.3046
 1.6120	71.2566
 1.6110	71.3281
 1.6100	71.3108
 1.6090	71.3026
 1.6080	71.3089
 1.6070	71.2777
 1.6060	71.2737
 1.6050	71.3616
 1.6040	71.3353
 1.6030	71.3162
 1.6020	71.2746
 1.6010	71.2713
 1.6000	71.2701
 1.5990	71.3639
 1.5980	71.3532
 1.5970	71.2902
 1.5960	71.2698
 1.5950	71.2509
 1.5940	71.3130
 1.5930	71.3030
 1.5920	71.2762
 1.5910	71.3015
 1.5900	71.3216
 1.5890	71.2792
 1.5880	71.2634
 1.5870	71.2688
 1.5860	71.3638
 1.5850	71.3008
 1.5840	71.2518
 1.5830	71.2464
 1.5820	71.2654
 1.5810	71.2656
 1.5800	71.2251
 1.5790	71.2467
 1.5780	71.2205
 1.5770	71.2856
 1.5760	71.2563
 1.5750	71.2217
 1.5740	71.2403
 1.5730	71.2983
 1.5720	71.2336
 1.5710	71.2556
 1.5700	71.2392
 1.5690	71.2785
 1.5680	71.2445
 1.5670	71.2894
 1.5660	71.2532
 1.5650	71.2605
 1.5640	71.2412
 1.5630	71.2558
 1.5620	71.2555
 1.5610	71.2888
 1.5600	71.2829
 1.5590	71.3057
 1.5580	71.2124
 1.5570	71.2642
 1.5560	71.2274
 1.5550	71.1894
 1.5540	71.2339
 1.5530	71.2363
 1.5520	71.2326
 1.5510	71.2121
 1.5500	71.2146
 1.5490	71.2418
 1.5480	71.1871
 1.5470	71.2152
 1.5460	71.1795
 1.5450	71.1823
 1.5440	71.1981
 1.5430	71.2159
 1.5420	71.1314
 1.5410	71.1271
 1.5400	71.1332
 1.5390	71.1853
 1.5380	71.1823
 1.5370	71.1665
 1.5360	71.2118
 1.5350	71.2170
 1.5340	71.1091
 1.5330	71.1025
 1.5320	71.1153
 1.5310	71.1445
 1.5300	71.1538
 1.5290	71.2006
 1.5280	71.2223
 1.5270	71.1492
 1.5260	71.0844
 1.5250	71.0547
 1.5240	71.1195
 1.5230	71.1579
 1.5220	71.0744
 1.5210	71.0840
 1.5200	71.1261
 1.5190	71.1278
 1.5180	71.1277
 1.5170	71.1792
 1.5160	71.0959
 1.5150	71.0612
 1.5140	71.1098
 1.5130	71.1171
 1.5120	71.0863
 1.5110	71.1292
 1.5100	71.1212
 1.5090	71.0849
 1.5080	71.0648
 1.5070	71.0521
 1.5060	71.0515
 1.5050	71.0730
 1.5040	71.1011
 1.5030	71.0833
 1.5020	71.0575
 1.5010	71.0994
 1.5000	71.0130
 1.4990	71.0078
 1.4980	71.1181
 1.4970	71.1259
 1.4960	71.0703
 1.4950	71.0771
 1.4940	71.0582
 1.4930	70.9541
 1.4920	70.9894
 1.4910	71.0182
 1.4900	70.9985
 1.4890	71.0324
 1.4880	71.0327
 1.4870	70.9736
 1.4860	70.9979
 1.4850	71.0325
 1.4840	70.9594
 1.4830	70.9558
 1.4820	70.9497
 1.4810	70.9383
 1.4800	70.9249
 1.4790	70.9851
 1.4780	70.9981
 1.4770	70.8959
 1.4760	70.9679
 1.4750	70.9702
 1.4740	70.9230
 1.4730	70.9062
 1.4720	70.9084
 1.4710	70.8773
 1.4700	70.8692
 1.4690	70.8848
 1.4680	70.8615
 1.4670	70.8417
 1.4660	70.8913
 1.4650	70.8820
 1.4640	70.8424
 1.4630	70.8465
 1.4620	70.8542
 1.4610	70.8495
 1.4600	70.8735
 1.4590	70.8947
 1.4580	70.8823
 1.4570	70.8101
 1.4560	70.7885
 1.4550	70.8386
 1.4540	70.8432
 1.4530	70.8235
 1.4520	70.8378
 1.4510	70.8393
 1.4500	70.8722
 1.4490	70.8264
 1.4480	70.7531
 1.4470	70.7653
 1.4460	70.8594
 1.4450	70.7409
 1.4440	70.8240
 1.4430	70.8513
 1.4420	70.7692
 1.4410	70.7203
 1.4400	70.7835
 1.4390	70.7102
 1.4380	70.7573
 1.4370	70.7607
 1.4360	70.7329
 1.4350	70.7317
 1.4340	70.7082
 1.4330	70.7070
 1.4320	70.7394
 1.4310	70.6916
 1.4300	70.6541
 1.4290	70.6401
 1.4280	70.6394
 1.4270	70.6473
 1.4260	70.6469
 1.4250	70.5891
 1.4240	70.6175
 1.4230	70.6272
 1.4220	70.6394
 1.4210	70.5989
 1.4200	70.5923
 1.4190	70.5430
 1.4180	70.5474
 1.4170	70.4946
 1.4160	70.4654
 1.4150	70.3297
 1.4140	70.2756
 1.4130	70.0784
 1.4120	70.0571
 1.4110	70.1953
 1.4100	70.2796
 1.4090	70.4208
 1.4080	70.4929
 1.4070	70.5317
 1.4060	70.6138
 1.4050	70.6291
 1.4040	70.6111
 1.4030	70.6931
 1.4020	70.8164
 1.4010	70.7585
 1.4000	70.7285
 1.3990	70.8036
 1.3980	70.9422
 1.3970	70.9935
 1.3960	70.9591
 1.3950	71.0279
 1.3940	71.0840
 1.3930	71.0675
 1.3920	71.0248
 1.3910	71.0726
 1.3900	71.1421
 1.3890	71.0230
 1.3880	71.0741
 1.3870	71.1598
 1.3860	71.2129
 1.3850	71.1316
 1.3840	71.3231
 1.3830	71.2146
 1.3820	71.0848
 1.3810	71.1401
 1.3800	71.2183
 1.3790	71.1629
 1.3780	71.1718
 1.3770	71.1707
 1.3760	71.2892
 1.3750	71.2811
 1.3740	71.2180
 1.3730	71.2220
 1.3720	71.1885
 1.3710	71.2007
 1.3700	71.2113
 1.3690	71.1636
 1.3680	71.2008
 1.3670	71.1410
 1.3660	71.2479
 1.3650	71.1484
 1.3640	71.2343
 1.3630	71.0589
 1.3620	71.2804
 1.3610	71.1815
 1.3600	71.1742
 1.3590	71.1598
 1.3580	71.1508
 1.3570	71.2821
 1.3560	71.2102
 1.3550	71.2299
 1.3540	71.1640
 1.3530	71.1307
 1.3520	71.0922
 1.3510	71.1327
 1.3500	71.1499
 1.3490	71.1482
 1.3480	71.0968
 1.3470	71.1509
 1.3460	71.1346
 1.3450	71.0467
 1.3440	71.1574
 1.3430	71.0775
 1.3420	71.1257
 1.3410	71.0224
 1.3400	71.0576
 1.3390	70.9973
 1.3380	71.0962
 1.3370	71.0689
 1.3360	71.1348
 1.3350	71.0644
 1.3340	71.1050
 1.3330	71.0507
 1.3320	71.0782
 1.3310	71.0639
 1.3300	71.0431
 1.3290	71.0226
 1.3280	70.9875
 1.3270	71.0838
 1.3260	71.0769
 1.3250	70.9721
 1.3240	71.0070
 1.3230	71.0000
 1.3220	71.0193
 1.3210	70.9682
 1.3200	70.9448
 1.3190	70.9540
 1.3180	70.9732
 1.3170	70.9916
 1.3160	71.0074
 1.3150	70.9507
 1.3140	71.0574
 1.3130	70.9367
 1.3120	70.9427
 1.3110	70.9152
 1.3100	70.9721
 1.3090	70.9272
 1.3080	70.9107
 1.3070	70.9291
 1.3060	70.9529
 1.3050	70.9553
 1.3040	70.9232
 1.3030	70.8717
 1.3020	70.8270
 1.3010	70.8420
 1.3000	70.8856
 1.2990	70.9410
 1.2980	70.9101
 1.2970	70.8227
 1.2960	70.8573
 1.2950	70.8694
 1.2940	70.8701
 1.2930	70.8112
 1.2920	70.8113
 1.2910	70.8088
 1.2900	70.8098
 1.2890	70.8144
 1.2880	70.7569
 1.2870	70.6739
 1.2860	70.7302
 1.2850	70.7285
 1.2840	70.7589
 1.2830	70.7520
 1.2820	70.7307
 1.2810	70.7173
 1.2800	70.7231
 1.2790	70.7809
 1.2780	70.7293
 1.2770	70.7606
 1.2760	70.7550
 1.2750	70.7483
 1.2740	70.6498
 1.2730	70.6729
 1.2720	70.7040
 1.2710	70.7097
 1.2700	70.7048
 1.2690	70.6149
 1.2680	70.6484
 1.2670	70.5862
 1.2660	70.6037
 1.2650	70.6739
 1.2640	70.6310
 1.2630	70.6305
 1.2620	70.5682
 1.2610	70.5757
 1.2600	70.6156
 1.2590	70.5502
 1.2580	70.5874
 1.2570	70.5799
 1.2560	70.5807
 1.2550	70.5734
 1.2540	70.5320
 1.2530	70.5054
 1.2520	70.5046
 1.2510	70.5114
 1.2500	70.5615
 1.2490	70.5865
 1.2480	70.5308
 1.2470	70.4710
 1.2460	70.4867
 1.2450	70.4890
 1.2440	70.4782
 1.2430	70.4756
 1.2420	70.4679
 1.2410	70.4146
 1.2400	70.4050
 1.2390	70.3643
 1.2380	70.4041
 1.2370	70.4413
 1.2360	70.4222
 1.2350	70.4097
 1.2340	70.3812
 1.2330	70.3750
 1.2320	70.3377
 1.2310	70.2954
 1.2300	70.3581
 1.2290	70.4058
 1.2280	70.3928
 1.2270	70.3842
 1.2260	70.3514
 1.2250	70.3684
 1.2240	70.3612
 1.2230	70.3171
 1.2220	70.3504
 1.2210	70.3252
 1.2200	70.2791
 1.2190	70.2986
 1.2180	70.2956
 1.2170	70.2998
 1.2160	70.2683
 1.2150	70.2877
 1.2140	70.3200
 1.2130	70.2636
 1.2120	70.2179
 1.2110	70.2344
 1.2100	70.2893
 1.2090	70.2703
 1.2080	70.2389
 1.2070	70.2350
 1.2060	70.2278
 1.2050	70.2337
 1.2040	70.1716
 1.2030	70.2226
 1.2020	70.2172
 1.2010	70.1629
 1.2000	70.1234
 1.1990	70.1643
 1.1980	70.1631
 1.1970	70.1298
 1.1960	70.1687
 1.1950	70.1942
 1.1940	70.1549
 1.1930	70.0991
 1.1920	70.1117
 1.1910	70.1194
 1.1900	70.1080
 1.1890	70.1065
 1.1880	70.0728
 1.1870	70.1063
 1.1860	70.0960
 1.1850	70.1380
 1.1840	70.1285
 1.1830	70.1246
 1.1820	70.1227
 1.1810	70.1032
 1.1800	70.0296
 1.1790	70.0446
 1.1780	70.0466
 1.1770	70.0516
 1.1760	70.0770
 1.1750	70.0976
 1.1740	70.0540
 1.1730	69.9977
 1.1720	69.9867
 1.1710	70.0300
 1.1700	70.0698
 1.1690	70.0424
 1.1680	70.0197
 1.1670	70.0621
 1.1660	70.0230
 1.1650	70.0086
 1.1640	69.9961
 1.1630	69.9942
 1.1620	69.9616
 1.1610	70.0092
 1.1600	70.0234
 1.1590	70.0034
 1.1580	70.0184
 1.1570	69.9797
 1.1560	69.9317
 1.1550	69.9478
 1.1540	69.9277
 1.1530	69.9522
 1.1520	69.9921
 1.1510	69.9808
 1.1500	69.8884
 1.1490	69.9565
 1.1480	69.9143
 1.1470	69.9586
 1.1460	69.9172
 1.1450	69.9356
 1.1440	69.8999
 1.1430	69.8918
 1.1420	69.8461
 1.1410	69.9354
 1.1400	69.9145
 1.1390	69.9058
 1.1380	69.9403
 1.1370	69.9784
 1.1360	69.8772
 1.1350	69.9540
 1.1340	69.9038
 1.1330	69.8179
 1.1320	69.8764
 1.1310	69.8728
 1.1300	69.8618
 1.1290	69.9191
 1.1280	69.8266
 1.1270	69.8568
 1.1260	69.8268
 1.1250	69.7575
 1.1240	69.8134
 1.1230	69.8701
 1.1220	69.8686
 1.1210	69.8705
 1.1200	69.8610
 1.1190	69.7860
 1.1180	69.8072
 1.1170	69.8464
 1.1160	69.7960
 1.1150	69.7995
 1.1140	69.8583
 1.1130	69.8358
 1.1120	69.8078
 1.1110	69.7948
 1.1100	69.8463
 1.1090	69.8190
 1.1080	69.8600
 1.1070	69.8292
 1.1060	69.7369
 1.1050	69.7574
 1.1040	69.7739
 1.1030	69.8148
 1.1020	69.8217
 1.1010	69.8757
 1.1000	69.8313
 1.0990	69.7909
 1.0980	69.8521
 1.0970	69.8574
 1.0960	69.7791
 1.0950	69.8524
 1.0940	69.8618
 1.0930	69.7804
 1.0920	69.8381
 1.0910	69.8144
 1.0900	69.7981
 1.0890	69.7959
 1.0880	69.7142
 1.0870	69.7463
 1.0860	69.7730
 1.0850	69.7650
 1.0840	69.7886
 1.0830	69.8512
 1.0820	69.8127
 1.0810	69.8446
 1.0800	69.7909
 1.0790	69.8142
 1.0780	69.7975
 1.0770	69.8540
 1.0760	69.7918
 1.0750	69.8414
 1.0740	69.7591
 1.0730	69.9068
 1.0720	69.8015
 1.0710	69.8267
 1.0700	69.7460
 1.0690	69.8286
 1.0680	69.8359
 1.0670	69.8221
 1.0660	69.8373
 1.0650	69.8108
 1.0640	69.7388
 1.0630	69.9828
 1.0620	69.8330
 1.0610	69.8093
 1.0600	69.8795
 1.0590	69.9095
 1.0580	69.8882
 1.0570	69.9432
 1.0560	69.7573
 1.0550	69.8472
 1.0540	69.8044
 1.0530	69.8540
 1.0520	69.8648
 1.0510	69.8419
 1.0500	69.7505
 1.0490	69.8577
 1.0480	69.8509
 1.0470	69.8743
 1.0460	69.8885
 1.0450	69.8687
 1.0440	69.9018
 1.0430	69.8521
 1.0420	69.8494
 1.0410	69.8559
 1.0400	69.9231
 1.0390	69.9623
 1.0380	69.8443
 1.0370	69.8983
 1.0360	69.9198
 1.0350	69.9141
 1.0340	69.8737
 1.0330	69.9042
 1.0320	69.9273
 1.0310	69.9637
 1.0300	70.0097
 1.0290	69.9319
 1.0280	69.9249
 1.0270	69.9324
 1.0260	69.9031
 1.0250	69.9227
 1.0240	69.9330
 1.0230	69.9697
 1.0220	69.9563
 1.0210	69.9161
 1.0200	69.9681
 1.0190	69.9684
 1.0180	69.9967
 1.0170	69.9963
 1.0160	69.9535
 1.0150	69.9652
 1.0140	69.8889
 1.0130	69.9644
 1.0120	69.9921
 1.0110	70.0428
 1.0100	69.9713
 1.0090	70.0342
 1.0080	70.0715
 1.0070	70.0150
 1.0060	69.9919
 1.0050	69.9995
 1.0040	69.9128
 1.0030	70.0181
 1.0020	70.0607
 1.0010	70.0262
 1.0000	69.9963
 0.9990	70.0348
 0.9980	70.0977
 0.9970	70.0982
 0.9960	70.0720
 0.9950	70.0421
 0.9940	70.0977
 0.9930	70.0831
 0.9920	70.0594
 0.9910	70.0781
 0.9900	70.0188
 0.9890	70.0781
 0.9880	70.1016
 0.9870	70.1182
 0.9860	70.0906
 0.9850	70.0711
 0.9840	70.1134
 0.9830	70.1475
 0.9820	70.0877
 0.9810	70.0990
 0.9800	70.0487
 0.9790	70.0762
 0.9780	70.1511
 0.9770	70.1689
 0.9760	70.1516
 0.9750	70.1268
 0.9740	70.0938
 0.9730	70.1579
 0.9720	70.2097
 0.9710	70.1247
 0.9700	70.1239
 0.9690	70.1458
 0.9680	70.1972
 0.9670	70.1568
 0.9660	70.0958
 0.9650	70.1379
 0.9640	70.1326
 0.9630	70.1837
 0.9620	70.2224
 0.9610	70.1493
 0.9600	70.2057
 0.9590	70.2844
 0.9580	70.1785
 0.9570	70.1676
 0.9560	70.1814
 0.9550	70.1912
 0.9540	70.2614
 0.9530	70.2483
 0.9520	70.2264
 0.9510	70.2865
 0.9500	70.2691
 0.9490	70.2453
 0.9480	70.2776
 0.9470	70.2611
 0.9460	70.2402
 0.9450	70.2794
 0.9440	70.3161
 0.9430	70.2622
 0.9420	70.2216
 0.9410	70.2525
 0.9400	70.2494
 0.9390	70.2778
 0.9380	70.2370
 0.9370	70.2207
 0.9360	70.2308
 0.9350	70.2701
 0.9340	70.3438
 0.9330	70.3109
 0.9320	70.2808
 0.9310	70.2790
 0.9300	70.2892
 0.9290	70.2935
 0.9280	70.2778
 0.9270	70.2980
 0.9260	70.2875
 0.9250	70.2822
 0.9240	70.2914
 0.9230	70.2590
 0.9220	70.2699
 0.9210	70.3122
 0.9200	70.3318
 0.9190	70.3112
 0.9180	70.3272
 0.9170	70.3471
 0.9160	70.3432
 0.9150	70.3083
 0.9140	70.3236
 0.9130	70.3159
 0.9120	70.2895
 0.9110	70.2652
 0.9100	70.2861
 0.9090	70.3101
 0.9080	70.3307
 0.9070	70.3128
 0.9060	70.2639
 0.9050	70.3293
 0.9040	70.3317
 0.9030	70.3003
 0.9020	70.3341
 0.9010	70.2912
 0.9000	70.3047
 0.8990	70.2821
 0.8980	70.3530
 0.8970	70.3570
 0.8960	70.3286
 0.8950	70.3668
 0.8940	70.3226
 0.8930	70.3089
 0.8920	70.3415
 0.8910	70.3081
 0.8900	70.3850
 0.8890	70.3347
 0.8880	70.3791
 0.8870	70.3613
 0.8860	70.3669
 0.8850	70.4079
 0.8840	70.4063
 0.8830	70.3536
 0.8820	70.3963
 0.8810	70.4314
 0.8800	70.3975
 0.8790	70.3870
 0.8780	70.4375
 0.8770	70.4158
 0.8760	70.4541
 0.8750	70.4189
 0.8740	70.3716
 0.8730	70.3823
 0.8720	70.3691
 0.8710	70.3462
 0.8700	70.3640
 0.8690	70.3007
 0.8680	70.3966
 0.8670	70.3333
 0.8660	70.3597
 0.8650	70.3924
 0.8640	70.3564
 0.8630	70.3405
 0.8620	70.3658
 0.8610	70.3672
 0.8600	70.5038
 0.8590	70.4568
 0.8580	70.5853
 0.8570	70.5447
 0.8560	70.5001
 0.8550	70.5934
 0.8540	70.5312
 0.8530	70.4267
 0.8520	70.4478
 0.8510	70.5362
 0.8500	70.4838
 0.8490	70.5395
 0.8480	70.5169
 0.8470	70.4652
 0.8460	70.5419
 0.8450	70.5438
 0.8440	70.5077
 0.8430	70.4983
 0.8420	70.5087
 0.8410	70.5151
 0.8400	70.5117
 0.8390	70.5223
 0.8380	70.5055
 0.8370	70.4939
 0.8360	70.4734
 0.8350	70.4920
 0.8340	70.4419
 0.8330	70.4626
 0.8320	70.5170
 0.8310	70.4686
 0.8300	70.4784
 0.8290	70.4916
 0.8280	70.4381
 0.8270	70.4594
 0.8260	70.5118
 0.8250	70.4953
 0.8240	70.4570
 0.8230	70.4767
 0.8220	70.4857
 0.8210	70.4022
 0.8200	70.4676
 0.8190	70.4177
 0.8180	70.3872
 0.8170	70.3841
 0.8160	70.4080
 0.8150	70.3865
 0.8140	70.3671
 0.8130	70.4496
 0.8120	70.3546
 0.8110	70.4352
 0.8100	70.4084
 0.8090	70.3763
 0.8080	70.3463
 0.8070	70.3253
 0.8060	70.3519
 0.8050	70.3652
 0.8040	70.3367
 0.8030	70.3542
 0.8020	70.3132
 0.8010	70.3195
 0.8000	70.3422
 0.7990	70.2916
 0.7980	70.2488
 0.7970	70.2591
 0.7960	70.2354
 0.7950	70.1858
 0.7940	70.2245
 0.7930	70.1880
 0.7920	70.1371
 0.7910	70.1643
 0.7900	70.1516
 0.7890	70.1484
 0.7880	70.1030
 0.7870	70.1289
 0.7860	70.0947
 0.7850	70.0864
 0.7840	70.1127
 0.7830	70.0639
 0.7820	70.0102
 0.7810	70.0595
 0.7800	70.0391
 0.7790	70.0116
 0.7780	69.9678
 0.7770	69.9709
 0.7760	69.9065
 0.7750	69.9114
 0.7740	69.9194
 0.7730	69.8710
 0.7720	69.8416
 0.7710	69.8439
 0.7700	69.8679
 0.7690	69.8680
 0.7680	69.8404
 0.7670	69.7769
 0.7660	69.7379
 0.7650	69.7435
 0.7640	69.7202
 0.7630	69.7044
 0.7620	69.7225
 0.7610	69.6839
 0.7600	69.6436
 0.7590	69.6240
 0.7580	69.6222
 0.7570	69.6356
 0.7560	69.6263
 0.7550	69.5328
 0.7540	69.5431
 0.7530	69.5299
 0.7520	69.4911
 0.7510	69.4935
 0.7500	69.4757
 0.7490	69.4252
 0.7480	69.4199
 0.7470	69.3988
 0.7460	69.3700
 0.7450	69.3723
 0.7440	69.3764
 0.7430	69.3532
 0.7420	69.3425
 0.7410	69.3340
 0.7400	69.3069
 0.7390	69.2686
 0.7380	69.2760
 0.7370	69.2564
 0.7360	69.2453
 0.7350	69.2485
 0.7340	69.2220
 0.7330	69.2098
 0.7320	69.1999
 0.7310	69.1609
 0.7300	69.1824
 0.7290	69.1707
 0.7280	69.1381
 0.7270	69.1356
 0.7260	69.1255
 0.7250	69.1186
 0.7240	69.1118
 0.7230	69.0923
 0.7220	69.0837
 0.7210	69.0592
 0.7200	69.0519
 0.7190	69.0350
 0.7180	69.0376
 0.7170	69.0374
 0.7160	69.0500
 0.7150	69.0174
 0.7140	68.9993
 0.7130	68.9999
 0.7120	69.0028
 0.7110	68.9797
 0.7100	68.9451
 0.7090	68.9311
 0.7080	68.9341
 0.7070	68.9163
 0.7060	68.8967
 0.7050	68.8753
 0.7040	68.8698
 0.7030	68.8636
 0.7020	68.8503
 0.7010	68.8274
 0.7000	68.8242
 0.6990	68.7994
 0.6980	68.7873
 0.6970	68.7839
 0.6960	68.7626
 0.6950	68.7632
 0.6940	68.7377
 0.6930	68.7251
 0.6920	68.7113
 0.6910	68.7122
 0.6900	68.7046
 0.6890	68.6875
 0.6880	68.6652
 0.6870	68.6387
 0.6860	68.6307
 0.6850	68.6242
 0.6840	68.6041
 0.6830	68.6082
 0.6820	68.5942
 0.6810	68.5769
 0.6800	68.5489
 0.6790	68.5320
 0.6780	68.5334
 0.6770	68.4985
 0.6760	68.4869
 0.6750	68.4869
 0.6740	68.4702
 0.6730	68.4615
 0.6720	68.4457
 0.6710	68.4299
 0.6700	68.4144
 0.6690	68.3961
 0.6680	68.3876
 0.6670	68.3806
 0.6660	68.3712
 0.6650	68.3518
 0.6640	68.3407
 0.6630	68.3348
 0.6620	68.3253
 0.6610	68.3143
 0.6600	68.3110
 0.6590	68.3018
 0.6580	68.3053
 0.6570	68.3103
 0.6560	68.2940
 0.6550	68.2923
 0.6540	68.3016
 0.6530	68.3008
 0.6520	68.2798
 0.6510	68.2733
 0.6500	68.2715
 0.6490	68.2707
 0.6480	68.2666
 0.6470	68.2643
 0.6460	68.2572
 0.6450	68.2528
 0.6440	68.2671
 0.6430	68.2671
 0.6420	68.2662
 0.6410	68.2754
 0.6400	68.2841
 0.6390	68.2953
 0.6380	68.3032
 0.6370	68.3183
 0.6360	68.3331
 0.6350	68.3368
 0.6340	68.3498
 0.6330	68.3737
 0.6320	68.3867
 0.6310	68.3904
 0.6300	68.3993
 0.6290	68.4208
 0.6280	68.4337
 0.6270	68.4340
 0.6260	68.4554
 0.6250	68.4633
 0.6240	68.4664
 0.6230	68.5033
 0.6220	68.5146
 0.6210	68.5233
 0.6200	68.5425
 0.6190	68.5588
 0.6180	68.5817
 0.6170	68.5983
 0.6160	68.6105
 0.6150	68.6207
 0.6140	68.6339
 0.6130	68.6546
 0.6120	68.6585
 0.6110	68.6766
 0.6100	68.6965
 0.6090	68.7111
 0.6080	68.7272
 0.6070	68.7379
 0.6060	68.7367
 0.6050	68.7562
 0.6040	68.7697
 0.6030	68.7773
 0.6020	68.7977
 0.6010	68.7998
 0.6000	68.8002
 0.5990	68.8153
 0.5980	68.8542
 0.5970	68.8869
 0.5960	68.9094
 0.5950	68.9132
 0.5940	68.9054
 0.5930	68.9252
 0.5920	68.9285
 0.5910	68.9450
 0.5900	68.9336
 0.5890	68.9473
 0.5880	68.9480
 0.5870	68.9551
 0.5860	68.9523
 0.5850	68.9414
 0.5840	68.9605
 0.5830	68.9671
 0.5820	68.9651
 0.5810	68.9589
 0.5800	68.9470
 0.5790	68.9414
 0.5780	68.9270
 0.5770	68.9256
 0.5760	68.9294
 0.5750	68.9204
 0.5740	68.9257
 0.5730	68.9196
 0.5720	68.9094
 0.5710	68.8949
 0.5700	68.8950
 0.5690	68.8825
 0.5680	68.8733
 0.5670	68.8646
 0.5660	68.8423
 0.5650	68.8280
 0.5640	68.8259
 0.5630	68.8182
 0.5620	68.8032
 0.5610	68.8008
 0.5600	68.7715
 0.5590	68.7681
 0.5580	68.7654
 0.5570	68.7513
 0.5560	68.7274
 0.5550	68.7163
 0.5540	68.6902
 0.5530	68.6809
 0.5520	68.6658
 0.5510	68.6337
 0.5500	68.6216
 0.5490	68.6077
 0.5480	68.5983
 0.5470	68.5674
 0.5460	68.5425
 0.5450	68.5340
 0.5440	68.5172
 0.5430	68.5101
 0.5420	68.4880
 0.5410	68.4608
 0.5400	68.4391
 0.5390	68.4146
 0.5380	68.3946
 0.5370	68.3847
 0.5360	68.3562
 0.5350	68.3316
 0.5340	68.3273
 0.5330	68.2835
 0.5320	68.2780
 0.5310	68.2546
 0.5300	68.2275
 0.5290	68.2093
 0.5280	68.1957
 0.5270	68.1577
 0.5260	68.1372
 0.5250	68.1232
 0.5240	68.0776
 0.5230	68.0723
 0.5220	68.0389
 0.5210	68.0120
 0.5200	67.9816
 0.5190	67.9604
 0.5180	67.9384
 0.5170	67.9056
 0.5160	67.8989
 0.5150	67.8576
 0.5140	67.8410
 0.5130	67.8268
 0.5120	67.7817
 0.5110	67.7695
 0.5100	67.7435
 0.5090	67.7192
 0.5080	67.6793
 0.5070	67.6582
 0.5060	67.6385
 0.5050	67.6068
 0.5040	67.5840
 0.5030	67.5551
 0.5020	67.5253
 0.5010	67.4948
 0.5000	67.4615
 0.4990	67.4486
 0.4980	67.4453
 0.4970	67.4093
 0.4960	67.3668
 0.4950	67.3352
 0.4940	67.3115
 0.4930	67.3035
 0.4920	67.2514
 0.4910	67.2201
 0.4900	67.1899
 0.4890	67.1626
 0.4880	67.1526
 0.4870	67.1127
 0.4860	67.0838
 0.4850	67.0622
 0.4840	67.0480
 0.4830	67.0206
 0.4820	66.9769
 0.4810	66.9672
 0.4800	66.9058
 0.4790	66.8740
 0.4780	66.8629
 0.4770	66.8184
 0.4760	66.7994
 0.4750	66.7609
 0.4740	66.7363
 0.4730	66.7015
 0.4720	66.6816
 0.4710	66.6539
 0.4700	66.6191
 0.4690	66.5967
 0.4680	66.5741
 0.4670	66.5441
 0.4660	66.5238
 0.4650	66.4756
 0.4640	66.4316
 0.4630	66.4145
 0.4620	66.3616
 0.4610	66.3221
 0.4600	66.2842
 0.4590	66.2721
 0.4580	66.2391
 0.4570	66.2143
 0.4560	66.1665
 0.4550	66.1412
 0.4540	66.1074
 0.4530	66.0683
 0.4520	66.0122
 0.4510	65.9705
 0.4500	65.9454
 0.4490	65.8941
 0.4480	65.8465
 0.4470	65.8137
 0.4460	65.7641
 0.4450	65.6970
 0.4440	65.6951
 0.4430	65.6348
 0.4420	65.5853
 0.4410	65.5366
 0.4400	65.4610
 0.4390	65.3871
 0.4380	65.3505
 0.4370	65.3121
 0.4360	65.2583
 0.4350	65.1919
 0.4340	65.1032
 0.4330	65.0432
 0.4320	64.9827
 0.4310	64.9347
 0.4300	64.8516
 0.4290	64.7669
 0.4280	64.7037
 0.4270	64.6324
 0.4260	64.5614
 0.4250	64.4635
 0.4240	64.3866
 0.4230	64.3049
 0.4220	64.2324
 0.4210	64.1296
 0.4200	64.0579
 0.4190	63.9678
 0.4180	63.8596
 0.4170	63.7890
 0.4160	63.7180
 0.4150	63.6259
 0.4140	63.5487
 0.4130	63.4640
 0.4120	63.3588
 0.4110	63.3029
 0.4100	63.2394
 0.4090	63.1565
 0.4080	63.0812
 0.4070	63.0137
 0.4060	62.9185
 0.4050	62.8330
 0.4040	62.7843
 0.4030	62.6981
 0.4020	62.6097
 0.4010	62.5490
 0.4000	62.4761
