Name: Pyrolusite MnO_2
Type: Mineral
Class: Oxide
Subclass: None
Particle Size: Coarse
Sample No.: O-6A
Owner: JPL
Wavelength Range: VSWIR
Origin: Mexico, Chihuahua.
Collection Date: N/A
Description: Particle size was 125-500um. Collected by:  Grieger's Inc. Original ASTER Spectral Library name was jpl.perkin.mineral.oxide.none.coarse.o06a.spectrum.txt
Measurement: Hemispherical reflectance
First Column: X
Second Column: Y
X Units: Wavelength (micrometers)
Y Units:Reflectance (percent)
First X Value:  2.5000
Last X Value:  0.4000
Number of X Values: 2101
Additional Information: mineral.oxide.none.coarse.vswir.o-6a.jpl.perkin.ancillary.txt

 2.5000	12.2988
 2.4990	12.2678
 2.4980	12.1625
 2.4970	12.5169
 2.4960	11.9063
 2.4950	12.4962
 2.4940	12.0279
 2.4930	12.4072
 2.4920	12.0153
 2.4910	12.4139
 2.4900	12.3121
 2.4890	12.2712
 2.4880	12.2539
 2.4870	12.2358
 2.4860	12.2792
 2.4850	12.4010
 2.4840	12.2582
 2.4830	12.3448
 2.4820	12.2121
 2.4810	12.2825
 2.4800	12.2033
 2.4790	12.3191
 2.4780	12.2101
 2.4770	12.3289
 2.4760	12.1857
 2.4750	12.2583
 2.4740	12.1254
 2.4730	12.3459
 2.4720	12.1664
 2.4710	12.3990
 2.4700	12.2186
 2.4690	12.3794
 2.4680	12.2298
 2.4670	12.3114
 2.4660	12.1721
 2.4650	12.3354
 2.4640	12.2015
 2.4630	12.3843
 2.4620	12.2317
 2.4610	12.3319
 2.4600	12.2580
 2.4590	12.3268
 2.4580	12.0843
 2.4570	12.3070
 2.4560	12.1063
 2.4550	12.3439
 2.4540	12.1572
 2.4530	12.3198
 2.4520	12.2755
 2.4510	12.3453
 2.4500	12.2424
 2.4490	12.3624
 2.4480	12.3148
 2.4470	12.3137
 2.4460	12.2157
 2.4450	12.3486
 2.4440	12.2768
 2.4430	12.3371
 2.4420	12.2837
 2.4410	12.4626
 2.4400	12.2570
 2.4390	12.3164
 2.4380	12.2646
 2.4370	12.3704
 2.4360	12.2847
 2.4350	12.3491
 2.4340	12.3396
 2.4330	12.3290
 2.4320	12.3346
 2.4310	12.3863
 2.4300	12.3007
 2.4290	12.3907
 2.4280	12.3132
 2.4270	12.4237
 2.4260	12.3066
 2.4250	12.3381
 2.4240	12.2476
 2.4230	12.4210
 2.4220	12.3170
 2.4210	12.3460
 2.4200	12.3126
 2.4190	12.3887
 2.4180	12.3543
 2.4170	12.4851
 2.4160	12.4706
 2.4150	12.4196
 2.4140	12.3116
 2.4130	12.4579
 2.4120	12.3282
 2.4110	12.4090
 2.4100	12.3774
 2.4090	12.4169
 2.4080	12.3603
 2.4070	12.3975
 2.4060	12.3627
 2.4050	12.4238
 2.4040	12.3838
 2.4030	12.3928
 2.4020	12.3494
 2.4010	12.3896
 2.4000	12.3676
 2.3990	12.4037
 2.3980	12.3347
 2.3970	12.4552
 2.3960	12.4377
 2.3950	12.4100
 2.3940	12.3476
 2.3930	12.4730
 2.3920	12.4555
 2.3910	12.4490
 2.3900	12.3856
 2.3890	12.4231
 2.3880	12.4246
 2.3870	12.4328
 2.3860	12.4614
 2.3850	12.4961
 2.3840	12.4424
 2.3830	12.3934
 2.3820	12.4588
 2.3810	12.5068
 2.3800	12.4567
 2.3790	12.4787
 2.3780	12.4521
 2.3770	12.4571
 2.3760	12.4745
 2.3750	12.5073
 2.3740	12.4410
 2.3730	12.4598
 2.3720	12.4584
 2.3710	12.4475
 2.3700	12.4335
 2.3690	12.4779
 2.3680	12.4687
 2.3670	12.4524
 2.3660	12.4424
 2.3650	12.4471
 2.3640	12.5026
 2.3630	12.4934
 2.3620	12.4520
 2.3610	12.4872
 2.3600	12.4812
 2.3590	12.4717
 2.3580	12.4797
 2.3570	12.5309
 2.3560	12.5081
 2.3550	12.5205
 2.3540	12.4883
 2.3530	12.4671
 2.3520	12.5064
 2.3510	12.5457
 2.3500	12.5391
 2.3490	12.4527
 2.3480	12.4820
 2.3470	12.5281
 2.3460	12.5337
 2.3450	12.5696
 2.3440	12.5947
 2.3430	12.5531
 2.3420	12.5152
 2.3410	12.5353
 2.3400	12.5195
 2.3390	12.4918
 2.3380	12.4869
 2.3370	12.4602
 2.3360	12.5165
 2.3350	12.5181
 2.3340	12.5249
 2.3330	12.5128
 2.3320	12.4835
 2.3310	12.4361
 2.3300	12.4826
 2.3290	12.4969
 2.3280	12.5383
 2.3270	12.5103
 2.3260	12.4536
 2.3250	12.4286
 2.3240	12.5096
 2.3230	12.4605
 2.3220	12.5317
 2.3210	12.5196
 2.3200	12.5196
 2.3190	12.4827
 2.3180	12.5401
 2.3170	12.5016
 2.3160	12.4790
 2.3150	12.4527
 2.3140	12.5266
 2.3130	12.4817
 2.3120	12.4886
 2.3110	12.4420
 2.3100	12.4872
 2.3090	12.4878
 2.3080	12.4962
 2.3070	12.4607
 2.3060	12.5282
 2.3050	12.4818
 2.3040	12.5569
 2.3030	12.4366
 2.3020	12.4736
 2.3010	12.4152
 2.3000	12.4900
 2.2990	12.4879
 2.2980	12.5450
 2.2970	12.4481
 2.2960	12.4678
 2.2950	12.4072
 2.2940	12.5008
 2.2930	12.4818
 2.2920	12.5155
 2.2910	12.4370
 2.2900	12.4673
 2.2890	12.4255
 2.2880	12.5053
 2.2870	12.4914
 2.2860	12.5600
 2.2850	12.4395
 2.2840	12.4934
 2.2830	12.4257
 2.2820	12.3991
 2.2810	12.4151
 2.2800	12.4716
 2.2790	12.4522
 2.2780	12.4878
 2.2770	12.4150
 2.2760	12.4869
 2.2750	12.4035
 2.2740	12.3657
 2.2730	12.3930
 2.2720	12.4521
 2.2710	12.4291
 2.2700	12.4192
 2.2690	12.4143
 2.2680	12.4113
 2.2670	12.3819
 2.2660	12.4669
 2.2650	12.3875
 2.2640	12.4652
 2.2630	12.3998
 2.2620	12.5468
 2.2610	12.3568
 2.2600	12.3724
 2.2590	12.3531
 2.2580	12.4356
 2.2570	12.4053
 2.2560	12.4311
 2.2550	12.3989
 2.2540	12.3884
 2.2530	12.3670
 2.2520	12.4815
 2.2510	12.3436
 2.2500	12.4544
 2.2490	12.3594
 2.2480	12.3857
 2.2470	12.3895
 2.2460	12.5058
 2.2450	12.4069
 2.2440	12.3731
 2.2430	12.3350
 2.2420	12.4099
 2.2410	12.3650
 2.2400	12.3772
 2.2390	12.3333
 2.2380	12.3629
 2.2370	12.3348
 2.2360	12.4543
 2.2350	12.3994
 2.2340	12.4477
 2.2330	12.3611
 2.2320	12.4833
 2.2310	12.3031
 2.2300	12.4334
 2.2290	12.3316
 2.2280	12.4762
 2.2270	12.3879
 2.2260	12.3773
 2.2250	12.3612
 2.2240	12.4245
 2.2230	12.3848
 2.2220	12.4400
 2.2210	12.3578
 2.2200	12.6326
 2.2190	12.3046
 2.2180	12.4270
 2.2170	12.3411
 2.2160	12.4553
 2.2150	12.3928
 2.2140	12.5454
 2.2130	12.3514
 2.2120	12.5452
 2.2110	12.2978
 2.2100	12.5262
 2.2090	12.3233
 2.2080	12.5223
 2.2070	12.3035
 2.2060	12.4856
 2.2050	12.4329
 2.2040	12.5079
 2.2030	12.4709
 2.2020	12.5421
 2.2010	12.4448
 2.2000	12.5123
 2.1990	12.4486
 2.1980	12.4739
 2.1970	12.4732
 2.1960	12.4967
 2.1950	12.3969
 2.1940	12.5198
 2.1930	12.3765
 2.1920	12.4631
 2.1910	12.5143
 2.1900	12.5025
 2.1890	12.5433
 2.1880	12.5161
 2.1870	12.3706
 2.1860	12.5953
 2.1850	12.4926
 2.1840	12.6077
 2.1830	12.4722
 2.1820	12.5660
 2.1810	12.4668
 2.1800	12.5484
 2.1790	12.4849
 2.1780	12.5787
 2.1770	12.4691
 2.1760	12.5510
 2.1750	12.4569
 2.1740	12.6010
 2.1730	12.5316
 2.1720	12.6204
 2.1710	12.5392
 2.1700	12.5632
 2.1690	12.5494
 2.1680	12.5837
 2.1670	12.4986
 2.1660	12.5991
 2.1650	12.5009
 2.1640	12.5716
 2.1630	12.5464
 2.1620	12.5898
 2.1610	12.4919
 2.1600	12.5972
 2.1590	12.5980
 2.1580	12.6086
 2.1570	12.5712
 2.1560	12.6020
 2.1550	12.5949
 2.1540	12.6096
 2.1530	12.5803
 2.1520	12.6347
 2.1510	12.5395
 2.1500	12.6094
 2.1490	12.5836
 2.1480	12.6519
 2.1470	12.5907
 2.1460	12.6012
 2.1450	12.5830
 2.1440	12.6835
 2.1430	12.6024
 2.1420	12.6648
 2.1410	12.5973
 2.1400	12.5810
 2.1390	12.5926
 2.1380	12.6645
 2.1370	12.5698
 2.1360	12.6120
 2.1350	12.5993
 2.1340	12.6462
 2.1330	12.5390
 2.1320	12.6229
 2.1310	12.5191
 2.1300	12.5722
 2.1290	12.5509
 2.1280	12.6344
 2.1270	12.6030
 2.1260	12.5793
 2.1250	12.5155
 2.1240	12.5742
 2.1230	12.5096
 2.1220	12.5057
 2.1210	12.4371
 2.1200	12.5675
 2.1190	12.5626
 2.1180	12.4943
 2.1170	12.4685
 2.1160	12.5435
 2.1150	12.4777
 2.1140	12.5469
 2.1130	12.5243
 2.1120	12.4983
 2.1110	12.4224
 2.1100	12.4608
 2.1090	12.4553
 2.1080	12.4188
 2.1070	12.4310
 2.1060	12.4805
 2.1050	12.3993
 2.1040	12.4120
 2.1030	12.4045
 2.1020	12.3846
 2.1010	12.3809
 2.1000	12.4096
 2.0990	12.3959
 2.0980	12.3432
 2.0970	12.3817
 2.0960	12.4635
 2.0950	12.4085
 2.0940	12.4478
 2.0930	12.4053
 2.0920	12.3995
 2.0910	12.4169
 2.0900	12.4243
 2.0890	12.3856
 2.0880	12.3976
 2.0870	12.4160
 2.0860	12.4543
 2.0850	12.4500
 2.0840	12.4552
 2.0830	12.4020
 2.0820	12.3948
 2.0810	12.4306
 2.0800	12.4005
 2.0790	12.3667
 2.0780	12.3993
 2.0770	12.4113
 2.0760	12.4149
 2.0750	12.3941
 2.0740	12.4377
 2.0730	12.4339
 2.0720	12.4141
 2.0710	12.3972
 2.0700	12.4228
 2.0690	12.4778
 2.0680	12.4086
 2.0670	12.4374
 2.0660	12.4721
 2.0650	12.4423
 2.0640	12.4486
 2.0630	12.4084
 2.0620	12.4035
 2.0610	12.4356
 2.0600	12.4039
 2.0590	12.4413
 2.0580	12.4385
 2.0570	12.4672
 2.0560	12.4480
 2.0550	12.4540
 2.0540	12.4409
 2.0530	12.4821
 2.0520	12.4424
 2.0510	12.4037
 2.0500	12.4257
 2.0490	12.5092
 2.0480	12.4720
 2.0470	12.4666
 2.0460	12.4152
 2.0450	12.4922
 2.0440	12.4765
 2.0430	12.4123
 2.0420	12.4293
 2.0410	12.5039
 2.0400	12.4429
 2.0390	12.4979
 2.0380	12.4419
 2.0370	12.4874
 2.0360	12.4909
 2.0350	12.4801
 2.0340	12.4190
 2.0330	12.5219
 2.0320	12.4890
 2.0310	12.4499
 2.0300	12.4312
 2.0290	12.5450
 2.0280	12.4811
 2.0270	12.5629
 2.0260	12.4904
 2.0250	12.4962
 2.0240	12.5018
 2.0230	12.4858
 2.0220	12.4432
 2.0210	12.4814
 2.0200	12.4391
 2.0190	12.4731
 2.0180	12.5093
 2.0170	12.5056
 2.0160	12.4457
 2.0150	12.4907
 2.0140	12.4691
 2.0130	12.4647
 2.0120	12.4331
 2.0110	12.4769
 2.0100	12.4911
 2.0090	12.5086
 2.0080	12.4023
 2.0070	12.4990
 2.0060	12.4443
 2.0050	12.4916
 2.0040	12.4777
 2.0030	12.6050
 2.0020	12.4407
 2.0010	12.4874
 2.0000	12.4041
 1.9990	12.4625
 1.9980	12.4732
 1.9970	12.5618
 1.9960	12.4462
 1.9950	12.5291
 1.9940	12.4487
 1.9930	12.4330
 1.9920	12.4398
 1.9910	12.4988
 1.9900	12.3879
 1.9890	12.5127
 1.9880	12.4264
 1.9870	12.5129
 1.9860	12.3832
 1.9850	12.4947
 1.9840	12.3434
 1.9830	12.4901
 1.9820	12.4089
 1.9810	12.4514
 1.9800	12.4416
 1.9790	12.5175
 1.9780	12.4502
 1.9770	12.5053
 1.9760	12.4471
 1.9750	12.4947
 1.9740	12.4000
 1.9730	12.4107
 1.9720	12.3528
 1.9710	12.4517
 1.9700	12.4574
 1.9690	12.4649
 1.9680	12.3650
 1.9670	12.5163
 1.9660	12.4185
 1.9650	12.5038
 1.9640	12.4125
 1.9630	12.5448
 1.9620	12.4291
 1.9610	12.4648
 1.9600	12.3251
 1.9590	12.5044
 1.9580	12.4275
 1.9570	12.5293
 1.9560	12.3525
 1.9550	12.4812
 1.9540	12.4181
 1.9530	12.4831
 1.9520	12.3359
 1.9510	12.4049
 1.9500	12.4236
 1.9490	12.5206
 1.9480	12.4239
 1.9470	12.5715
 1.9460	12.4102
 1.9450	12.4535
 1.9440	12.4605
 1.9430	12.5244
 1.9420	12.4026
 1.9410	12.4585
 1.9400	12.3521
 1.9390	12.5214
 1.9380	12.4650
 1.9370	12.5242
 1.9360	12.5116
 1.9350	12.5061
 1.9340	12.3658
 1.9330	12.5423
 1.9320	12.4292
 1.9310	12.5864
 1.9300	12.4394
 1.9290	12.5133
 1.9280	12.3706
 1.9270	12.5403
 1.9260	12.3247
 1.9250	12.6099
 1.9240	12.4628
 1.9230	12.5405
 1.9220	12.4801
 1.9210	12.4872
 1.9200	12.4361
 1.9190	12.4662
 1.9180	12.5030
 1.9170	12.5549
 1.9160	12.4252
 1.9150	12.5752
 1.9140	12.4274
 1.9130	12.5661
 1.9120	12.4772
 1.9110	12.5207
 1.9100	12.5078
 1.9090	12.4522
 1.9080	12.5659
 1.9070	12.5617
 1.9060	12.4741
 1.9050	12.5775
 1.9040	12.4716
 1.9030	12.5996
 1.9020	12.4663
 1.9010	12.5032
 1.9000	12.4710
 1.8990	12.5682
 1.8980	12.3980
 1.8970	12.6025
 1.8960	12.4595
 1.8950	12.5456
 1.8940	12.4974
 1.8930	12.5473
 1.8920	12.5018
 1.8910	12.5486
 1.8900	12.4579
 1.8890	12.5348
 1.8880	12.3949
 1.8870	12.4634
 1.8860	12.3682
 1.8850	12.5148
 1.8840	12.4806
 1.8830	12.5016
 1.8820	12.4442
 1.8810	12.4986
 1.8800	12.4473
 1.8790	12.4210
 1.8780	12.4175
 1.8770	12.5598
 1.8760	12.4034
 1.8750	12.5083
 1.8740	12.5010
 1.8730	12.4980
 1.8720	12.4349
 1.8710	12.5449
 1.8700	12.4499
 1.8690	12.5751
 1.8680	12.4426
 1.8670	12.5171
 1.8660	12.4950
 1.8650	12.5711
 1.8640	12.4431
 1.8630	12.5383
 1.8620	12.4429
 1.8610	12.5240
 1.8600	12.4780
 1.8590	12.4694
 1.8580	12.4070
 1.8570	12.4198
 1.8560	12.3961
 1.8550	12.4971
 1.8540	12.4361
 1.8530	12.5531
 1.8520	12.4872
 1.8510	12.5057
 1.8500	12.4969
 1.8490	12.4855
 1.8480	12.4632
 1.8470	12.4872
 1.8460	12.4345
 1.8450	12.4842
 1.8440	12.5001
 1.8430	12.5462
 1.8420	12.4207
 1.8410	12.4611
 1.8400	12.4716
 1.8390	12.5456
 1.8380	12.5118
 1.8370	12.5704
 1.8360	12.4699
 1.8350	12.5268
 1.8340	12.5324
 1.8330	12.5148
 1.8320	12.4445
 1.8310	12.4797
 1.8300	12.4777
 1.8290	12.4936
 1.8280	12.4603
 1.8270	12.5244
 1.8260	12.5200
 1.8250	12.4863
 1.8240	12.4149
 1.8230	12.4900
 1.8220	12.4957
 1.8210	12.4679
 1.8200	12.4607
 1.8190	12.4793
 1.8180	12.4528
 1.8170	12.4817
 1.8160	12.4801
 1.8150	12.5384
 1.8140	12.5143
 1.8130	12.5452
 1.8120	12.4892
 1.8110	12.4383
 1.8100	12.4174
 1.8090	12.4838
 1.8080	12.4832
 1.8070	12.5367
 1.8060	12.5122
 1.8050	12.5024
 1.8040	12.4483
 1.8030	12.4618
 1.8020	12.4591
 1.8010	12.4608
 1.8000	12.4560
 1.7990	12.4231
 1.7980	12.4810
 1.7970	12.5121
 1.7960	12.4686
 1.7950	12.4702
 1.7940	12.4588
 1.7930	12.4836
 1.7920	12.4833
 1.7910	12.4811
 1.7900	12.4642
 1.7890	12.4702
 1.7880	12.4676
 1.7870	12.4306
 1.7860	12.4793
 1.7850	12.4995
 1.7840	12.4254
 1.7830	12.4435
 1.7820	12.4310
 1.7810	12.4507
 1.7800	12.4374
 1.7790	12.4058
 1.7780	12.4272
 1.7770	12.4478
 1.7760	12.4910
 1.7750	12.4532
 1.7740	12.4649
 1.7730	12.4575
 1.7720	12.5115
 1.7710	12.4840
 1.7700	12.4705
 1.7690	12.4711
 1.7680	12.5013
 1.7670	12.4957
 1.7660	12.4643
 1.7650	12.4760
 1.7640	12.5028
 1.7630	12.4754
 1.7620	12.4308
 1.7610	12.4095
 1.7600	12.4345
 1.7590	12.4154
 1.7580	12.4644
 1.7570	12.4655
 1.7560	12.4762
 1.7550	12.4660
 1.7540	12.5060
 1.7530	12.5071
 1.7520	12.4706
 1.7510	12.4925
 1.7500	12.5100
 1.7490	12.4612
 1.7480	12.5112
 1.7470	12.4816
 1.7460	12.4975
 1.7450	12.4962
 1.7440	12.5234
 1.7430	12.4894
 1.7420	12.4681
 1.7410	12.4237
 1.7400	12.4748
 1.7390	12.4748
 1.7380	12.4820
 1.7370	12.4782
 1.7360	12.5318
 1.7350	12.4417
 1.7340	12.5171
 1.7330	12.4210
 1.7320	12.4835
 1.7310	12.5284
 1.7300	12.5340
 1.7290	12.4232
 1.7280	12.4974
 1.7270	12.4357
 1.7260	12.4733
 1.7250	12.4313
 1.7240	12.4774
 1.7230	12.4689
 1.7220	12.5165
 1.7210	12.4692
 1.7200	12.5125
 1.7190	12.4765
 1.7180	12.4791
 1.7170	12.4306
 1.7160	12.4938
 1.7150	12.4654
 1.7140	12.4913
 1.7130	12.4483
 1.7120	12.4754
 1.7110	12.3834
 1.7100	12.4978
 1.7090	12.4190
 1.7080	12.4865
 1.7070	12.3973
 1.7060	12.4576
 1.7050	12.4115
 1.7040	12.4263
 1.7030	12.3435
 1.7020	12.4938
 1.7010	12.4418
 1.7000	12.4325
 1.6990	12.4513
 1.6980	12.4690
 1.6970	12.3563
 1.6960	12.4786
 1.6950	12.4092
 1.6940	12.4848
 1.6930	12.3590
 1.6920	12.4646
 1.6910	12.3350
 1.6900	12.5130
 1.6890	12.3749
 1.6880	12.4010
 1.6870	12.3888
 1.6860	12.4347
 1.6850	12.3755
 1.6840	12.4560
 1.6830	12.3458
 1.6820	12.4963
 1.6810	12.4336
 1.6800	12.4302
 1.6790	12.3145
 1.6780	12.4367
 1.6770	12.4276
 1.6760	12.4969
 1.6750	12.3367
 1.6740	12.4062
 1.6730	12.4201
 1.6720	12.4267
 1.6710	12.3931
 1.6700	12.4243
 1.6690	12.5479
 1.6680	12.2641
 1.6670	12.4059
 1.6660	12.4289
 1.6650	12.3025
 1.6640	12.4326
 1.6630	12.3846
 1.6620	12.4351
 1.6610	12.3814
 1.6600	12.4411
 1.6590	12.3360
 1.6580	12.4168
 1.6570	12.3958
 1.6560	12.4544
 1.6550	12.3597
 1.6540	12.4364
 1.6530	12.3292
 1.6520	12.5020
 1.6510	12.3330
 1.6500	12.4686
 1.6490	12.3279
 1.6480	12.3862
 1.6470	12.3622
 1.6460	12.3896
 1.6450	12.2880
 1.6440	12.4194
 1.6430	12.3146
 1.6420	12.5655
 1.6410	12.2210
 1.6400	12.5475
 1.6390	12.4206
 1.6380	12.3907
 1.6370	12.3895
 1.6360	12.3620
 1.6350	12.4133
 1.6340	12.4110
 1.6330	12.3830
 1.6320	12.4219
 1.6310	12.3392
 1.6300	12.4066
 1.6290	12.3445
 1.6280	12.4326
 1.6270	12.4002
 1.6260	12.4579
 1.6250	12.2391
 1.6240	12.4747
 1.6230	12.2685
 1.6220	12.4237
 1.6210	12.3988
 1.6200	12.3889
 1.6190	12.3786
 1.6180	12.4413
 1.6170	12.3326
 1.6160	12.4583
 1.6150	12.3466
 1.6140	12.3667
 1.6130	12.3253
 1.6120	12.4455
 1.6110	12.3972
 1.6100	12.4167
 1.6090	12.3128
 1.6080	12.4077
 1.6070	12.3446
 1.6060	12.4373
 1.6050	12.3628
 1.6040	12.4073
 1.6030	12.3606
 1.6020	12.3569
 1.6010	12.3778
 1.6000	12.4047
 1.5990	12.3220
 1.5980	12.4336
 1.5970	12.3318
 1.5960	12.4592
 1.5950	12.2700
 1.5940	12.3942
 1.5930	12.3470
 1.5920	12.3826
 1.5910	12.3144
 1.5900	12.4331
 1.5890	12.3498
 1.5880	12.4007
 1.5870	12.3475
 1.5860	12.3902
 1.5850	12.3324
 1.5840	12.4749
 1.5830	12.3530
 1.5820	12.3691
 1.5810	12.2789
 1.5800	12.3713
 1.5790	12.3534
 1.5780	12.3837
 1.5770	12.3384
 1.5760	12.3729
 1.5750	12.2893
 1.5740	12.3898
 1.5730	12.2905
 1.5720	12.3991
 1.5710	12.3577
 1.5700	12.3416
 1.5690	12.3336
 1.5680	12.3703
 1.5670	12.3525
 1.5660	12.3614
 1.5650	12.3380
 1.5640	12.3346
 1.5630	12.3515
 1.5620	12.3637
 1.5610	12.3116
 1.5600	12.2921
 1.5590	12.2999
 1.5580	12.3413
 1.5570	12.3252
 1.5560	12.3611
 1.5550	12.3231
 1.5540	12.3222
 1.5530	12.2725
 1.5520	12.3131
 1.5510	12.3443
 1.5500	12.3827
 1.5490	12.3135
 1.5480	12.3981
 1.5470	12.3617
 1.5460	12.3084
 1.5450	12.3141
 1.5440	12.3108
 1.5430	12.2896
 1.5420	12.3248
 1.5410	12.2554
 1.5400	12.3578
 1.5390	12.3126
 1.5380	12.3288
 1.5370	12.3016
 1.5360	12.3477
 1.5350	12.3080
 1.5340	12.3178
 1.5330	12.2899
 1.5320	12.3321
 1.5310	12.3331
 1.5300	12.3596
 1.5290	12.3536
 1.5280	12.3439
 1.5270	12.3127
 1.5260	12.3115
 1.5250	12.2656
 1.5240	12.2867
 1.5230	12.3074
 1.5220	12.3800
 1.5210	12.3710
 1.5200	12.3225
 1.5190	12.2734
 1.5180	12.2917
 1.5170	12.2773
 1.5160	12.2908
 1.5150	12.3098
 1.5140	12.3250
 1.5130	12.2974
 1.5120	12.3115
 1.5110	12.3057
 1.5100	12.3133
 1.5090	12.3257
 1.5080	12.3142
 1.5070	12.2788
 1.5060	12.3200
 1.5050	12.2808
 1.5040	12.2570
 1.5030	12.2745
 1.5020	12.2941
 1.5010	12.2913
 1.5000	12.2370
 1.4990	12.2344
 1.4980	12.2751
 1.4970	12.3172
 1.4960	12.2986
 1.4950	12.2544
 1.4940	12.2636
 1.4930	12.2751
 1.4920	12.2480
 1.4910	12.2803
 1.4900	12.2676
 1.4890	12.2328
 1.4880	12.2551
 1.4870	12.2825
 1.4860	12.2194
 1.4850	12.2138
 1.4840	12.2227
 1.4830	12.2606
 1.4820	12.2485
 1.4810	12.2749
 1.4800	12.2518
 1.4790	12.2883
 1.4780	12.2320
 1.4770	12.2458
 1.4760	12.2159
 1.4750	12.2859
 1.4740	12.2792
 1.4730	12.2008
 1.4720	12.1964
 1.4710	12.2900
 1.4700	12.2128
 1.4690	12.2146
 1.4680	12.2448
 1.4670	12.2754
 1.4660	12.1793
 1.4650	12.2142
 1.4640	12.2294
 1.4630	12.2143
 1.4620	12.2322
 1.4610	12.2622
 1.4600	12.2299
 1.4590	12.2552
 1.4580	12.1945
 1.4570	12.1925
 1.4560	12.1767
 1.4550	12.2401
 1.4540	12.1677
 1.4530	12.2365
 1.4520	12.2233
 1.4510	12.1918
 1.4500	12.1343
 1.4490	12.2064
 1.4480	12.1664
 1.4470	12.2146
 1.4460	12.1821
 1.4450	12.2126
 1.4440	12.1153
 1.4430	12.1480
 1.4420	12.1377
 1.4410	12.1763
 1.4400	12.1688
 1.4390	12.1447
 1.4380	12.1237
 1.4370	12.1585
 1.4360	12.0854
 1.4350	12.1789
 1.4340	12.0805
 1.4330	12.1428
 1.4320	12.1168
 1.4310	12.1057
 1.4300	12.1435
 1.4290	12.0950
 1.4280	12.1137
 1.4270	12.1516
 1.4260	12.1113
 1.4250	12.1485
 1.4240	12.0753
 1.4230	12.1241
 1.4220	12.1084
 1.4210	12.1237
 1.4200	12.0702
 1.4190	12.1694
 1.4180	12.0859
 1.4170	12.0737
 1.4160	12.0510
 1.4150	12.1406
 1.4140	12.0115
 1.4130	12.0398
 1.4120	11.9479
 1.4110	12.0795
 1.4100	11.9548
 1.4090	12.0489
 1.4080	11.9865
 1.4070	11.9924
 1.4060	11.9352
 1.4050	12.0326
 1.4040	11.8937
 1.4030	12.0358
 1.4020	11.9056
 1.4010	11.9837
 1.4000	11.8726
 1.3990	12.0143
 1.3980	11.8951
 1.3970	12.0202
 1.3960	11.8979
 1.3950	11.9488
 1.3940	11.8544
 1.3930	11.9854
 1.3920	11.9294
 1.3910	11.9522
 1.3900	11.8975
 1.3890	11.9694
 1.3880	11.8704
 1.3870	11.8995
 1.3860	11.7732
 1.3850	11.8527
 1.3840	11.8110
 1.3830	11.8668
 1.3820	11.7627
 1.3810	11.8275
 1.3800	11.7454
 1.3790	11.8308
 1.3780	11.7579
 1.3770	11.8764
 1.3760	11.6422
 1.3750	11.7875
 1.3740	11.7018
 1.3730	11.8527
 1.3720	11.6359
 1.3710	11.7779
 1.3700	11.5580
 1.3690	11.6938
 1.3680	11.7275
 1.3670	11.7069
 1.3660	11.6233
 1.3650	11.7266
 1.3640	11.6570
 1.3630	11.6637
 1.3620	11.5123
 1.3610	11.6198
 1.3600	11.5120
 1.3590	11.6071
 1.3580	11.5399
 1.3570	11.5787
 1.3560	11.6796
 1.3550	11.4111
 1.3540	11.5961
 1.3530	11.5085
 1.3520	11.5022
 1.3510	11.5202
 1.3500	11.4608
 1.3490	11.5879
 1.3480	11.4152
 1.3470	11.4954
 1.3460	11.3420
 1.3450	11.4681
 1.3440	11.3730
 1.3430	11.4484
 1.3420	11.3650
 1.3410	11.3553
 1.3400	11.2891
 1.3390	11.3646
 1.3380	11.2453
 1.3370	11.3228
 1.3360	11.2472
 1.3350	11.2503
 1.3340	11.2561
 1.3330	11.2235
 1.3320	11.2202
 1.3310	11.2332
 1.3300	11.1878
 1.3290	11.2116
 1.3280	11.1830
 1.3270	11.2274
 1.3260	11.1365
 1.3250	11.1873
 1.3240	11.1499
 1.3230	11.1602
 1.3220	11.1328
 1.3210	11.1730
 1.3200	11.0033
 1.3190	11.0931
 1.3180	10.9731
 1.3170	11.0351
 1.3160	10.9763
 1.3150	10.9734
 1.3140	10.9456
 1.3130	11.0162
 1.3120	10.9580
 1.3110	11.0207
 1.3100	10.8800
 1.3090	10.9146
 1.3080	10.8846
 1.3070	10.9685
 1.3060	10.8527
 1.3050	10.8752
 1.3040	10.8250
 1.3030	10.9035
 1.3020	10.8345
 1.3010	10.8267
 1.3000	10.7501
 1.2990	10.8288
 1.2980	10.7602
 1.2970	10.7714
 1.2960	10.7728
 1.2950	10.7459
 1.2940	10.6795
 1.2930	10.7734
 1.2920	10.6602
 1.2910	10.6528
 1.2900	10.6386
 1.2890	10.6093
 1.2880	10.5930
 1.2870	10.6566
 1.2860	10.6267
 1.2850	10.6538
 1.2840	10.5592
 1.2830	10.5894
 1.2820	10.5173
 1.2810	10.5693
 1.2800	10.5300
 1.2790	10.5683
 1.2780	10.5211
 1.2770	10.5157
 1.2760	10.4873
 1.2750	10.5176
 1.2740	10.4379
 1.2730	10.4578
 1.2720	10.4291
 1.2710	10.4558
 1.2700	10.3662
 1.2690	10.4194
 1.2680	10.3827
 1.2670	10.3581
 1.2660	10.2946
 1.2650	10.3916
 1.2640	10.3378
 1.2630	10.3260
 1.2620	10.2911
 1.2610	10.3511
 1.2600	10.3322
 1.2590	10.2815
 1.2580	10.1998
 1.2570	10.3047
 1.2560	10.2463
 1.2550	10.2173
 1.2540	10.2563
 1.2530	10.2731
 1.2520	10.1928
 1.2510	10.2045
 1.2500	10.1776
 1.2490	10.1863
 1.2480	10.1524
 1.2470	10.1308
 1.2460	10.1634
 1.2450	10.1853
 1.2440	10.1558
 1.2430	10.1207
 1.2420	10.1371
 1.2410	10.1774
 1.2400	10.0949
 1.2390	10.0824
 1.2380	10.0538
 1.2370	10.0617
 1.2360	10.0215
 1.2350	10.0520
 1.2340	10.0071
 1.2330	10.0120
 1.2320	10.0011
 1.2310	 9.9703
 1.2300	 9.9686
 1.2290	 9.9728
 1.2280	 9.9479
 1.2270	 9.9180
 1.2260	 9.8830
 1.2250	 9.8983
 1.2240	 9.8904
 1.2230	 9.9118
 1.2220	 9.8804
 1.2210	 9.9192
 1.2200	 9.8760
 1.2190	 9.8787
 1.2180	 9.8699
 1.2170	 9.8412
 1.2160	 9.8549
 1.2150	 9.8264
 1.2140	 9.8670
 1.2130	 9.8865
 1.2120	 9.8065
 1.2110	 9.8013
 1.2100	 9.8041
 1.2090	 9.7412
 1.2080	 9.7836
 1.2070	 9.8277
 1.2060	 9.7765
 1.2050	 9.7204
 1.2040	 9.7612
 1.2030	 9.7711
 1.2020	 9.7546
 1.2010	 9.6764
 1.2000	 9.6579
 1.1990	 9.6869
 1.1980	 9.6896
 1.1970	 9.6519
 1.1960	 9.6597
 1.1950	 9.6917
 1.1940	 9.7026
 1.1930	 9.6168
 1.1920	 9.7058
 1.1910	 9.6872
 1.1900	 9.6285
 1.1890	 9.7230
 1.1880	 9.6053
 1.1870	 9.5824
 1.1860	 9.6125
 1.1850	 9.6437
 1.1840	 9.6540
 1.1830	 9.5758
 1.1820	 9.6197
 1.1810	 9.5674
 1.1800	 9.6046
 1.1790	 9.5534
 1.1780	 9.5748
 1.1770	 9.5589
 1.1760	 9.5955
 1.1750	 9.5539
 1.1740	 9.5787
 1.1730	 9.5309
 1.1720	 9.5761
 1.1710	 9.4646
 1.1700	 9.5190
 1.1690	 9.4662
 1.1680	 9.5771
 1.1670	 9.5241
 1.1660	 9.5626
 1.1650	 9.4681
 1.1640	 9.5423
 1.1630	 9.4863
 1.1620	 9.4567
 1.1610	 9.4151
 1.1600	 9.5348
 1.1590	 9.4357
 1.1580	 9.4557
 1.1570	 9.4343
 1.1560	 9.4544
 1.1550	 9.4523
 1.1540	 9.4550
 1.1530	 9.4546
 1.1520	 9.4972
 1.1510	 9.3749
 1.1500	 9.4494
 1.1490	 9.3615
 1.1480	 9.3991
 1.1470	 9.4015
 1.1460	 9.4876
 1.1450	 9.4113
 1.1440	 9.4201
 1.1430	 9.3589
 1.1420	 9.4045
 1.1410	 9.3452
 1.1400	 9.4231
 1.1390	 9.3298
 1.1380	 9.3702
 1.1370	 9.2887
 1.1360	 9.3515
 1.1350	 9.3275
 1.1340	 9.3773
 1.1330	 9.2509
 1.1320	 9.3072
 1.1310	 9.2955
 1.1300	 9.3510
 1.1290	 9.2489
 1.1280	 9.3531
 1.1270	 9.2780
 1.1260	 9.3275
 1.1250	 9.2857
 1.1240	 9.3743
 1.1230	 9.2850
 1.1220	 9.2915
 1.1210	 9.2655
 1.1200	 9.3577
 1.1190	 9.2504
 1.1180	 9.2676
 1.1170	 9.2019
 1.1160	 9.3633
 1.1150	 9.2412
 1.1140	 9.2902
 1.1130	 9.2281
 1.1120	 9.2834
 1.1110	 9.2366
 1.1100	 9.3140
 1.1090	 9.1969
 1.1080	 9.1651
 1.1070	 9.2394
 1.1060	 9.2504
 1.1050	 9.2098
 1.1040	 9.2058
 1.1030	 9.1422
 1.1020	 9.3112
 1.1010	 9.2053
 1.1000	 9.3063
 1.0990	 9.1016
 1.0980	 9.2424
 1.0970	 9.2051
 1.0960	 9.2133
 1.0950	 9.1723
 1.0940	 9.2615
 1.0930	 9.1395
 1.0920	 9.2672
 1.0910	 9.1649
 1.0900	 9.2981
 1.0890	 9.1450
 1.0880	 9.1632
 1.0870	 9.1516
 1.0860	 9.2342
 1.0850	 9.0778
 1.0840	 9.2305
 1.0830	 9.1587
 1.0820	 9.1878
 1.0810	 9.1428
 1.0800	 9.1597
 1.0790	 9.1414
 1.0780	 9.2711
 1.0770	 9.1362
 1.0760	 9.2064
 1.0750	 9.1004
 1.0740	 9.2673
 1.0730	 9.0266
 1.0720	 9.1877
 1.0710	 9.2548
 1.0700	 8.9969
 1.0690	 9.2088
 1.0680	 9.2146
 1.0670	 9.0224
 1.0660	 9.2413
 1.0650	 9.1201
 1.0640	 9.1881
 1.0630	 9.0532
 1.0620	 9.1459
 1.0610	 9.0853
 1.0600	 9.2884
 1.0590	 9.0396
 1.0580	 9.1232
 1.0570	 9.0964
 1.0560	 9.1808
 1.0550	 9.1346
 1.0540	 9.1751
 1.0530	 9.0464
 1.0520	 9.1687
 1.0510	 9.0429
 1.0500	 9.0939
 1.0490	 9.1037
 1.0480	 9.1532
 1.0470	 8.9917
 1.0460	 9.1574
 1.0450	 9.1613
 1.0440	 9.1471
 1.0430	 9.0552
 1.0420	 9.1907
 1.0410	 8.9599
 1.0400	 9.2146
 1.0390	 9.0615
 1.0380	 9.1416
 1.0370	 9.0925
 1.0360	 9.2157
 1.0350	 9.0136
 1.0340	 9.1392
 1.0330	 9.0103
 1.0320	 9.1195
 1.0310	 9.1076
 1.0300	 9.1000
 1.0290	 9.1037
 1.0280	 9.1152
 1.0270	 9.0710
 1.0260	 9.0531
 1.0250	 9.0588
 1.0240	 9.0612
 1.0230	 9.0200
 1.0220	 9.0728
 1.0210	 9.0631
 1.0200	 9.1164
 1.0190	 9.0420
 1.0180	 9.0539
 1.0170	 9.0921
 1.0160	 9.1579
 1.0150	 9.0294
 1.0140	 9.0194
 1.0130	 9.0630
 1.0120	 9.1152
 1.0110	 9.0610
 1.0100	 9.0942
 1.0090	 9.0488
 1.0080	 9.1325
 1.0070	 9.0389
 1.0060	 9.1503
 1.0050	 9.0510
 1.0040	 9.0411
 1.0030	 9.0302
 1.0020	 9.0975
 1.0010	 9.0619
 1.0000	 9.0778
 0.9990	 9.0357
 0.9980	 9.0810
 0.9970	 9.0196
 0.9960	 9.0473
 0.9950	 9.0123
 0.9940	 9.0635
 0.9930	 9.0747
 0.9920	 9.1106
 0.9910	 9.1099
 0.9900	 9.1440
 0.9890	 9.0153
 0.9880	 9.1077
 0.9870	 9.1042
 0.9860	 9.0906
 0.9850	 8.9867
 0.9840	 9.0666
 0.9830	 9.0478
 0.9820	 9.0999
 0.9810	 9.0919
 0.9800	 9.1277
 0.9790	 9.0561
 0.9780	 9.0872
 0.9770	 9.0111
 0.9760	 9.0495
 0.9750	 9.0896
 0.9740	 9.0853
 0.9730	 9.0723
 0.9720	 9.0953
 0.9710	 9.0963
 0.9700	 9.0375
 0.9690	 9.0351
 0.9680	 9.1038
 0.9670	 9.0065
 0.9660	 9.0980
 0.9650	 9.0925
 0.9640	 9.0540
 0.9630	 9.0570
 0.9620	 9.1311
 0.9610	 9.0451
 0.9600	 9.0523
 0.9590	 9.0534
 0.9580	 9.1298
 0.9570	 9.1052
 0.9560	 9.0734
 0.9550	 9.0637
 0.9540	 9.0646
 0.9530	 9.0770
 0.9520	 9.1267
 0.9510	 9.0940
 0.9500	 9.0782
 0.9490	 9.0537
 0.9480	 9.0646
 0.9470	 9.0455
 0.9460	 9.1104
 0.9450	 9.1268
 0.9440	 9.1369
 0.9430	 9.1034
 0.9420	 9.0535
 0.9410	 9.0441
 0.9400	 9.1057
 0.9390	 9.1282
 0.9380	 9.0895
 0.9370	 9.0811
 0.9360	 9.1143
 0.9350	 9.0856
 0.9340	 9.0928
 0.9330	 9.0798
 0.9320	 9.0906
 0.9310	 9.0756
 0.9300	 9.1042
 0.9290	 9.1577
 0.9280	 9.1228
 0.9270	 9.1016
 0.9260	 9.1030
 0.9250	 9.1307
 0.9240	 9.1053
 0.9230	 9.0978
 0.9220	 9.1168
 0.9210	 9.1078
 0.9200	 9.0768
 0.9190	 9.0929
 0.9180	 9.1038
 0.9170	 9.1184
 0.9160	 9.1037
 0.9150	 9.1039
 0.9140	 9.1155
 0.9130	 9.1027
 0.9120	 9.1391
 0.9110	 9.1493
 0.9100	 9.1144
 0.9090	 9.1917
 0.9080	 9.1271
 0.9070	 9.1476
 0.9060	 9.1529
 0.9050	 9.1474
 0.9040	 9.1059
 0.9030	 9.1498
 0.9020	 9.1870
 0.9010	 9.1815
 0.9000	 9.1337
 0.8990	 9.1925
 0.8980	 9.1823
 0.8970	 9.1868
 0.8960	 9.1763
 0.8950	 9.1783
 0.8940	 9.1502
 0.8930	 9.1719
 0.8920	 9.1963
 0.8910	 9.2356
 0.8900	 9.1742
 0.8890	 9.2161
 0.8880	 9.1519
 0.8870	 9.1955
 0.8860	 9.1747
 0.8850	 9.1819
 0.8840	 9.1025
 0.8830	 9.1919
 0.8820	 9.1923
 0.8810	 9.2151
 0.8800	 9.2173
 0.8790	 9.2192
 0.8780	 9.1905
 0.8770	 9.2402
 0.8760	 9.1955
 0.8750	 9.2293
 0.8740	 9.1854
 0.8730	 9.2664
 0.8720	 9.2375
 0.8710	 9.2449
 0.8700	 9.2174
 0.8690	 9.2473
 0.8680	 9.2311
 0.8670	 9.2678
 0.8660	 9.2054
 0.8650	 9.2604
 0.8640	 9.2215
 0.8630	 9.2309
 0.8620	 9.2122
 0.8610	 9.2597
 0.8600	 9.4773
 0.8590	 9.5483
 0.8580	 9.5320
 0.8570	 9.5392
 0.8560	 9.5379
 0.8550	 9.5574
 0.8540	 9.5474
 0.8530	 9.5486
 0.8520	 9.5588
 0.8510	 9.5526
 0.8500	 9.5536
 0.8490	 9.5546
 0.8480	 9.5703
 0.8470	 9.5580
 0.8460	 9.5519
 0.8450	 9.5634
 0.8440	 9.5702
 0.8430	 9.5678
 0.8420	 9.5776
 0.8410	 9.5728
 0.8400	 9.5635
 0.8390	 9.5717
 0.8380	 9.5849
 0.8370	 9.5671
 0.8360	 9.5633
 0.8350	 9.5723
 0.8340	 9.5782
 0.8330	 9.5826
 0.8320	 9.5748
 0.8310	 9.5787
 0.8300	 9.5851
 0.8290	 9.5883
 0.8280	 9.5742
 0.8270	 9.5891
 0.8260	 9.5948
 0.8250	 9.5877
 0.8240	 9.5912
 0.8230	 9.5884
 0.8220	 9.5960
 0.8210	 9.5995
 0.8200	 9.6078
 0.8190	 9.6096
 0.8180	 9.6049
 0.8170	 9.6064
 0.8160	 9.6010
 0.8150	 9.5958
 0.8140	 9.6059
 0.8130	 9.6107
 0.8120	 9.6104
 0.8110	 9.6077
 0.8100	 9.6132
 0.8090	 9.6193
 0.8080	 9.6231
 0.8070	 9.6143
 0.8060	 9.6160
 0.8050	 9.6272
 0.8040	 9.6206
 0.8030	 9.6240
 0.8020	 9.6291
 0.8010	 9.6316
 0.8000	 9.6268
 0.7990	 9.6238
 0.7980	 9.6281
 0.7970	 9.6299
 0.7960	 9.6318
 0.7950	 9.6246
 0.7940	 9.6371
 0.7930	 9.6386
 0.7920	 9.6275
 0.7910	 9.6350
 0.7900	 9.6353
 0.7890	 9.6303
 0.7880	 9.6334
 0.7870	 9.6410
 0.7860	 9.6398
 0.7850	 9.6415
 0.7840	 9.6445
 0.7830	 9.6379
 0.7820	 9.6472
 0.7810	 9.6379
 0.7800	 9.6425
 0.7790	 9.6455
 0.7780	 9.6446
 0.7770	 9.6485
 0.7760	 9.6393
 0.7750	 9.6294
 0.7740	 9.6460
 0.7730	 9.6405
 0.7720	 9.6449
 0.7710	 9.6351
 0.7700	 9.6333
 0.7690	 9.6307
 0.7680	 9.6304
 0.7670	 9.6239
 0.7660	 9.6337
 0.7650	 9.6253
 0.7640	 9.6370
 0.7630	 9.6396
 0.7620	 9.6340
 0.7610	 9.6383
 0.7600	 9.6382
 0.7590	 9.6384
 0.7580	 9.6427
 0.7570	 9.6411
 0.7560	 9.6417
 0.7550	 9.6458
 0.7540	 9.6427
 0.7530	 9.6517
 0.7520	 9.6504
 0.7510	 9.6472
 0.7500	 9.6518
 0.7490	 9.6501
 0.7480	 9.6549
 0.7470	 9.6524
 0.7460	 9.6541
 0.7450	 9.6614
 0.7440	 9.6610
 0.7430	 9.6616
 0.7420	 9.6637
 0.7410	 9.6675
 0.7400	 9.6753
 0.7390	 9.6705
 0.7380	 9.6710
 0.7370	 9.6764
 0.7360	 9.6786
 0.7350	 9.6729
 0.7340	 9.6765
 0.7330	 9.6793
 0.7320	 9.6819
 0.7310	 9.6886
 0.7300	 9.6912
 0.7290	 9.6937
 0.7280	 9.6909
 0.7270	 9.6983
 0.7260	 9.7029
 0.7250	 9.7020
 0.7240	 9.7077
 0.7230	 9.7117
 0.7220	 9.7085
 0.7210	 9.7136
 0.7200	 9.7160
 0.7190	 9.7166
 0.7180	 9.7218
 0.7170	 9.7229
 0.7160	 9.7204
 0.7150	 9.7279
 0.7140	 9.7359
 0.7130	 9.7357
 0.7120	 9.7373
 0.7110	 9.7406
 0.7100	 9.7470
 0.7090	 9.7522
 0.7080	 9.7514
 0.7070	 9.7547
 0.7060	 9.7578
 0.7050	 9.7604
 0.7040	 9.7626
 0.7030	 9.7692
 0.7020	 9.7743
 0.7010	 9.7777
 0.7000	 9.7785
 0.6990	 9.7806
 0.6980	 9.7879
 0.6970	 9.7896
 0.6960	 9.7927
 0.6950	 9.7939
 0.6940	 9.7975
 0.6930	 9.8014
 0.6920	 9.8055
 0.6910	 9.8131
 0.6900	 9.8144
 0.6890	 9.8166
 0.6880	 9.8232
 0.6870	 9.8276
 0.6860	 9.8302
 0.6850	 9.8308
 0.6840	 9.8399
 0.6830	 9.8395
 0.6820	 9.8456
 0.6810	 9.8503
 0.6800	 9.8550
 0.6790	 9.8557
 0.6780	 9.8650
 0.6770	 9.8690
 0.6760	 9.8710
 0.6750	 9.8768
 0.6740	 9.8802
 0.6730	 9.8825
 0.6720	 9.8887
 0.6710	 9.8956
 0.6700	 9.8979
 0.6690	 9.9025
 0.6680	 9.9062
 0.6670	 9.9091
 0.6660	 9.9115
 0.6650	 9.9212
 0.6640	 9.9266
 0.6630	 9.9277
 0.6620	 9.9329
 0.6610	 9.9363
 0.6600	 9.9431
 0.6590	 9.9505
 0.6580	 9.9561
 0.6570	 9.9578
 0.6560	 9.9625
 0.6550	 9.9674
 0.6540	 9.9706
 0.6530	 9.9775
 0.6520	 9.9850
 0.6510	 9.9877
 0.6500	 9.9912
 0.6490	 9.9967
 0.6480	10.0049
 0.6470	10.0112
 0.6460	10.0119
 0.6450	10.0185
 0.6440	10.0276
 0.6430	10.0338
 0.6420	10.0368
 0.6410	10.0377
 0.6400	10.0455
 0.6390	10.0522
 0.6380	10.0552
 0.6370	10.0598
 0.6360	10.0652
 0.6350	10.0718
 0.6340	10.0784
 0.6330	10.0841
 0.6320	10.0887
 0.6310	10.0942
 0.6300	10.1004
 0.6290	10.1071
 0.6280	10.1108
 0.6270	10.1152
 0.6260	10.1195
 0.6250	10.1257
 0.6240	10.1341
 0.6230	10.1395
 0.6220	10.1452
 0.6210	10.1486
 0.6200	10.1550
 0.6190	10.1636
 0.6180	10.1708
 0.6170	10.1771
 0.6160	10.1792
 0.6150	10.1840
 0.6140	10.1896
 0.6130	10.1952
 0.6120	10.1981
 0.6110	10.2042
 0.6100	10.2107
 0.6090	10.2183
 0.6080	10.2229
 0.6070	10.2273
 0.6060	10.2325
 0.6050	10.2405
 0.6040	10.2467
 0.6030	10.2505
 0.6020	10.2577
 0.6010	10.2645
 0.6000	10.2686
 0.5990	10.2755
 0.5980	10.2851
 0.5970	10.2936
 0.5960	10.3019
 0.5950	10.3091
 0.5940	10.3134
 0.5930	10.3188
 0.5920	10.3241
 0.5910	10.3320
 0.5900	10.3385
 0.5890	10.3434
 0.5880	10.3459
 0.5870	10.3558
 0.5860	10.3615
 0.5850	10.3681
 0.5840	10.3719
 0.5830	10.3790
 0.5820	10.3890
 0.5810	10.3926
 0.5800	10.3982
 0.5790	10.4039
 0.5780	10.4103
 0.5770	10.4151
 0.5760	10.4214
 0.5750	10.4258
 0.5740	10.4317
 0.5730	10.4393
 0.5720	10.4455
 0.5710	10.4508
 0.5700	10.4537
 0.5690	10.4598
 0.5680	10.4664
 0.5670	10.4729
 0.5660	10.4796
 0.5650	10.4856
 0.5640	10.4901
 0.5630	10.4964
 0.5620	10.5002
 0.5610	10.5073
 0.5600	10.5132
 0.5590	10.5198
 0.5580	10.5269
 0.5570	10.5321
 0.5560	10.5379
 0.5550	10.5480
 0.5540	10.5525
 0.5530	10.5570
 0.5520	10.5646
 0.5510	10.5698
 0.5500	10.5728
 0.5490	10.5795
 0.5480	10.5869
 0.5470	10.5909
 0.5460	10.5999
 0.5450	10.6063
 0.5440	10.6094
 0.5430	10.6151
 0.5420	10.6200
 0.5410	10.6271
 0.5400	10.6354
 0.5390	10.6399
 0.5380	10.6457
 0.5370	10.6536
 0.5360	10.6586
 0.5350	10.6643
 0.5340	10.6713
 0.5330	10.6752
 0.5320	10.6820
 0.5310	10.6877
 0.5300	10.6962
 0.5290	10.7022
 0.5280	10.7079
 0.5270	10.7165
 0.5260	10.7205
 0.5250	10.7292
 0.5240	10.7329
 0.5230	10.7425
 0.5220	10.7465
 0.5210	10.7496
 0.5200	10.7610
 0.5190	10.7685
 0.5180	10.7791
 0.5170	10.7882
 0.5160	10.7947
 0.5150	10.7987
 0.5140	10.8040
 0.5130	10.8149
 0.5120	10.8253
 0.5110	10.8322
 0.5100	10.8401
 0.5090	10.8481
 0.5080	10.8548
 0.5070	10.8686
 0.5060	10.8737
 0.5050	10.8832
 0.5040	10.8912
 0.5030	10.8982
 0.5020	10.9048
 0.5010	10.9177
 0.5000	10.9241
 0.4990	10.9318
 0.4980	10.9379
 0.4970	10.9452
 0.4960	10.9516
 0.4950	10.9535
 0.4940	10.9623
 0.4930	10.9701
 0.4920	10.9793
 0.4910	10.9765
 0.4900	10.9816
 0.4890	10.9833
 0.4880	10.9805
 0.4870	10.9824
 0.4860	10.9879
 0.4850	10.9855
 0.4840	10.9903
 0.4830	10.9848
 0.4820	10.9869
 0.4810	10.9868
 0.4800	10.9819
 0.4790	10.9816
 0.4780	10.9862
 0.4770	10.9861
 0.4760	10.9970
 0.4750	10.9991
 0.4740	11.0003
 0.4730	11.0028
 0.4720	11.0089
 0.4710	11.0139
 0.4700	11.0190
 0.4690	11.0193
 0.4680	11.0235
 0.4670	11.0306
 0.4660	11.0361
 0.4650	11.0419
 0.4640	11.0510
 0.4630	11.0520
 0.4620	11.0550
 0.4610	11.0598
 0.4600	11.0652
 0.4590	11.0694
 0.4580	11.0723
 0.4570	11.0842
 0.4560	11.0791
 0.4550	11.0859
 0.4540	11.0908
 0.4530	11.0946
 0.4520	11.0995
 0.4510	11.0956
 0.4500	11.1066
 0.4490	11.1050
 0.4480	11.1116
 0.4470	11.1104
 0.4460	11.1139
 0.4450	11.1123
 0.4440	11.1134
 0.4430	11.1118
 0.4420	11.1132
 0.4410	11.1173
 0.4400	11.1150
 0.4390	11.1158
 0.4380	11.1159
 0.4370	11.1133
 0.4360	11.1084
 0.4350	11.1144
 0.4340	11.1105
 0.4330	11.1125
 0.4320	11.1150
 0.4310	11.1101
 0.4300	11.1046
 0.4290	11.1064
 0.4280	11.1086
 0.4270	11.1078
 0.4260	11.1068
 0.4250	11.1058
 0.4240	11.1016
 0.4230	11.1036
 0.4220	11.1083
 0.4210	11.1015
 0.4200	11.0977
 0.4190	11.0990
 0.4180	11.0955
 0.4170	11.0939
 0.4160	11.0988
 0.4150	11.0959
 0.4140	11.0893
 0.4130	11.0877
 0.4120	11.0842
 0.4110	11.0809
 0.4100	11.0798
 0.4090	11.0804
 0.4080	11.0813
 0.4070	11.0785
 0.4060	11.0745
 0.4050	11.0771
 0.4040	11.0716
 0.4030	11.0674
 0.4020	11.0627
 0.4010	11.0618
 0.4000	11.0623
