Name: Lepidolite K(Li,Al)3(Si,Al)_4O_10(F,OH)_2
Type: Mineral
Class: Silicate
Subclass: Phyllosilicate
Particle Size: Fine
Sample No.: PS-13B
Owner: JPL
Wavelength Range: VSWIR
Origin: South Africa.
Collection Date: N/A
Description: Lavender lepidolite.Particle size was 0-45um.Collected by:  Ward's Original ASTER Spectral Library name was jpl.perkin.mineral.silicate.phyllosilicate.fine.ps13b.spectrum.txt
Measurement: Hemispherical reflectance
First Column: X
Second Column: Y
X Units: Wavelength (micrometers)
Y Units:Reflectance (percent)
First X Value:  2.5000
Last X Value:  0.4000
Number of X Values: 2101
Additional Information: mineral.silicate.phyllosilicate.fine.vswir.ps-13b.jpl.perkin.ancillary.txt

 2.5000	62.4388
 2.4990	62.2783
 2.4980	61.9320
 2.4970	61.9389
 2.4960	61.7380
 2.4950	61.9185
 2.4940	61.7204
 2.4930	61.7051
 2.4920	61.4985
 2.4910	61.7005
 2.4900	61.4890
 2.4890	61.6426
 2.4880	61.3645
 2.4870	61.5740
 2.4860	61.4875
 2.4850	61.3348
 2.4840	61.3928
 2.4830	61.4153
 2.4820	61.2115
 2.4810	61.4422
 2.4800	61.2362
 2.4790	61.4181
 2.4780	61.1891
 2.4770	61.1785
 2.4760	61.1363
 2.4750	61.0855
 2.4740	61.0097
 2.4730	60.9611
 2.4720	60.9102
 2.4710	60.8749
 2.4700	60.8323
 2.4690	60.7728
 2.4680	60.6053
 2.4670	60.7793
 2.4660	60.5531
 2.4650	60.5684
 2.4640	60.5011
 2.4630	60.4788
 2.4620	60.2983
 2.4610	60.3536
 2.4600	60.2482
 2.4590	60.2345
 2.4580	60.1252
 2.4570	60.0060
 2.4560	59.9045
 2.4550	59.9218
 2.4540	59.7669
 2.4530	59.7572
 2.4520	59.6647
 2.4510	59.5752
 2.4500	59.4813
 2.4490	59.4628
 2.4480	59.4647
 2.4470	59.3984
 2.4460	59.3010
 2.4450	59.1578
 2.4440	59.0461
 2.4430	59.1733
 2.4420	59.0054
 2.4410	59.0431
 2.4400	58.9477
 2.4390	58.9673
 2.4380	59.0723
 2.4370	58.9508
 2.4360	59.0120
 2.4350	59.0603
 2.4340	59.0949
 2.4330	59.1844
 2.4320	59.1121
 2.4310	59.2574
 2.4300	59.3342
 2.4290	59.4499
 2.4280	59.6708
 2.4270	59.6119
 2.4260	59.6939
 2.4250	59.9394
 2.4240	60.0447
 2.4230	60.1187
 2.4220	60.3525
 2.4210	60.5519
 2.4200	60.6738
 2.4190	60.7996
 2.4180	60.9808
 2.4170	61.1958
 2.4160	61.4182
 2.4150	61.6971
 2.4140	61.8911
 2.4130	62.0121
 2.4120	62.1781
 2.4110	62.3367
 2.4100	62.3988
 2.4090	62.6941
 2.4080	62.8717
 2.4070	63.0501
 2.4060	63.2942
 2.4050	63.3948
 2.4040	63.5453
 2.4030	63.7922
 2.4020	63.8915
 2.4010	64.0483
 2.4000	64.1330
 2.3990	64.3012
 2.3980	64.4572
 2.3970	64.5455
 2.3960	64.5808
 2.3950	64.6622
 2.3940	64.7976
 2.3930	64.8873
 2.3920	64.9237
 2.3910	64.9446
 2.3900	65.0144
 2.3890	65.1060
 2.3880	65.1346
 2.3870	65.1743
 2.3860	65.1812
 2.3850	65.1848
 2.3840	65.2016
 2.3830	65.2101
 2.3820	65.2351
 2.3810	65.2870
 2.3800	65.2795
 2.3790	65.3027
 2.3780	65.3732
 2.3770	65.3786
 2.3760	65.4003
 2.3750	65.4428
 2.3740	65.4059
 2.3730	65.3988
 2.3720	65.3782
 2.3710	65.4014
 2.3700	65.4252
 2.3690	65.3562
 2.3680	65.3232
 2.3670	65.3592
 2.3660	65.3263
 2.3650	65.3119
 2.3640	65.2657
 2.3630	65.1283
 2.3620	65.1137
 2.3610	65.1367
 2.3600	65.0073
 2.3590	64.8931
 2.3580	64.8096
 2.3570	64.8313
 2.3560	64.7673
 2.3550	64.6018
 2.3540	64.5212
 2.3530	64.4752
 2.3520	64.3926
 2.3510	64.2935
 2.3500	64.3195
 2.3490	64.2965
 2.3480	64.2050
 2.3470	64.1964
 2.3460	64.1881
 2.3450	64.1962
 2.3440	64.2682
 2.3430	64.3237
 2.3420	64.3443
 2.3410	64.4498
 2.3400	64.5785
 2.3390	64.6283
 2.3380	64.7247
 2.3370	64.8886
 2.3360	65.0212
 2.3350	65.1651
 2.3340	65.3721
 2.3330	65.5570
 2.3320	65.7054
 2.3310	65.9040
 2.3300	66.1280
 2.3290	66.3514
 2.3280	66.5493
 2.3270	66.7838
 2.3260	67.0161
 2.3250	67.2455
 2.3240	67.4991
 2.3230	67.6725
 2.3220	67.9183
 2.3210	68.1944
 2.3200	68.4250
 2.3190	68.6509
 2.3180	68.8833
 2.3170	69.0739
 2.3160	69.3304
 2.3150	69.5022
 2.3140	69.7117
 2.3130	69.8925
 2.3120	70.1689
 2.3110	70.4587
 2.3100	70.6167
 2.3090	70.7844
 2.3080	71.0108
 2.3070	71.2233
 2.3060	71.4526
 2.3050	71.5439
 2.3040	71.7406
 2.3030	71.8998
 2.3020	72.1214
 2.3010	72.2481
 2.3000	72.4261
 2.2990	72.5648
 2.2980	72.6894
 2.2970	72.7952
 2.2960	73.0044
 2.2950	73.1385
 2.2940	73.2420
 2.2930	73.3434
 2.2920	73.4523
 2.2910	73.5469
 2.2900	73.6124
 2.2890	73.6708
 2.2880	73.7389
 2.2870	73.8583
 2.2860	73.8662
 2.2850	73.9627
 2.2840	74.0822
 2.2830	74.0878
 2.2820	74.1316
 2.2810	74.2258
 2.2800	74.2399
 2.2790	74.2867
 2.2780	74.3379
 2.2770	74.3129
 2.2760	74.3948
 2.2750	74.4229
 2.2740	74.4504
 2.2730	74.4088
 2.2720	74.5002
 2.2710	74.5157
 2.2700	74.5372
 2.2690	74.5050
 2.2680	74.5701
 2.2670	74.5218
 2.2660	74.5541
 2.2650	74.5173
 2.2640	74.4895
 2.2630	74.5315
 2.2620	74.5187
 2.2610	74.4484
 2.2600	74.3940
 2.2590	74.4585
 2.2580	74.4788
 2.2570	74.4173
 2.2560	74.4203
 2.2550	74.3528
 2.2540	74.4378
 2.2530	74.3556
 2.2520	74.3765
 2.2510	74.3590
 2.2500	74.2861
 2.2490	74.3342
 2.2480	74.1999
 2.2470	74.2008
 2.2460	74.2407
 2.2450	74.1215
 2.2440	74.1943
 2.2430	74.1386
 2.2420	74.0946
 2.2410	74.1039
 2.2400	74.0057
 2.2390	73.9871
 2.2380	74.0354
 2.2370	73.9494
 2.2360	73.8854
 2.2350	73.8616
 2.2340	73.7663
 2.2330	73.6645
 2.2320	73.6286
 2.2310	73.4203
 2.2300	73.3085
 2.2290	73.2382
 2.2280	73.0795
 2.2270	72.8028
 2.2260	72.6248
 2.2250	72.3791
 2.2240	72.2426
 2.2230	71.9734
 2.2220	71.6588
 2.2210	71.1858
 2.2200	70.7662
 2.2190	70.3791
 2.2180	69.9040
 2.2170	69.4898
 2.2160	68.8260
 2.2150	68.2653
 2.2140	67.7045
 2.2130	67.1125
 2.2120	66.5166
 2.2110	65.5480
 2.2100	64.9482
 2.2090	64.2386
 2.2080	63.5372
 2.2070	62.7607
 2.2060	62.1008
 2.2050	61.4822
 2.2040	60.8474
 2.2030	60.1611
 2.2020	59.7839
 2.2010	59.2463
 2.2000	58.8643
 2.1990	58.3938
 2.1980	58.2487
 2.1970	57.8937
 2.1960	57.8338
 2.1950	57.8501
 2.1940	57.8703
 2.1930	58.0123
 2.1920	58.2508
 2.1910	58.4947
 2.1900	58.9654
 2.1890	59.3583
 2.1880	59.8404
 2.1870	60.5072
 2.1860	61.1349
 2.1850	61.7597
 2.1840	62.4126
 2.1830	63.0968
 2.1820	63.9169
 2.1810	64.6962
 2.1800	65.4866
 2.1790	66.2107
 2.1780	66.9778
 2.1770	67.6560
 2.1760	68.4045
 2.1750	69.0895
 2.1740	69.6843
 2.1730	70.3161
 2.1720	70.9429
 2.1710	71.4170
 2.1700	71.9121
 2.1690	72.4333
 2.1680	72.9774
 2.1670	73.2625
 2.1660	73.7171
 2.1650	74.0612
 2.1640	74.4191
 2.1630	74.8149
 2.1620	75.1033
 2.1610	75.3217
 2.1600	75.6394
 2.1590	75.9149
 2.1580	76.1282
 2.1570	76.2789
 2.1560	76.5075
 2.1550	76.6715
 2.1540	76.7846
 2.1530	76.9688
 2.1520	77.1766
 2.1510	77.3053
 2.1500	77.3712
 2.1490	77.4574
 2.1480	77.6359
 2.1470	77.7005
 2.1460	77.8689
 2.1450	77.9309
 2.1440	78.0206
 2.1430	78.0334
 2.1420	78.0968
 2.1410	78.1464
 2.1400	78.2149
 2.1390	78.2673
 2.1380	78.3251
 2.1370	78.3407
 2.1360	78.3486
 2.1350	78.3411
 2.1340	78.3869
 2.1330	78.3766
 2.1320	78.3304
 2.1310	78.3352
 2.1300	78.2450
 2.1290	78.2277
 2.1280	78.1913
 2.1270	78.1573
 2.1260	78.0599
 2.1250	77.9788
 2.1240	78.0352
 2.1230	78.0114
 2.1220	77.9301
 2.1210	77.8875
 2.1200	77.8640
 2.1190	77.7958
 2.1180	77.7817
 2.1170	77.6676
 2.1160	77.6726
 2.1150	77.7390
 2.1140	77.7402
 2.1130	77.7168
 2.1120	77.7622
 2.1110	77.7827
 2.1100	77.7810
 2.1090	77.7498
 2.1080	77.7737
 2.1070	77.8176
 2.1060	77.8809
 2.1050	77.8683
 2.1040	77.8650
 2.1030	77.9350
 2.1020	77.9161
 2.1010	77.9291
 2.1000	78.0103
 2.0990	78.1058
 2.0980	78.1482
 2.0970	78.1801
 2.0960	78.2639
 2.0950	78.3563
 2.0940	78.4432
 2.0930	78.5839
 2.0920	78.7293
 2.0910	78.7692
 2.0900	78.7806
 2.0890	78.8373
 2.0880	78.9617
 2.0870	78.9790
 2.0860	79.0085
 2.0850	79.1280
 2.0840	79.1347
 2.0830	79.2022
 2.0820	79.2992
 2.0810	79.3033
 2.0800	79.3186
 2.0790	79.3749
 2.0780	79.4472
 2.0770	79.5287
 2.0760	79.5609
 2.0750	79.5315
 2.0740	79.5745
 2.0730	79.6443
 2.0720	79.6547
 2.0710	79.6791
 2.0700	79.7097
 2.0690	79.7396
 2.0680	79.7515
 2.0670	79.8017
 2.0660	79.8056
 2.0650	79.7918
 2.0640	79.8235
 2.0630	79.8472
 2.0620	79.8780
 2.0610	79.9072
 2.0600	79.9643
 2.0590	79.9695
 2.0580	79.8981
 2.0570	79.9776
 2.0560	80.0727
 2.0550	80.0330
 2.0540	80.0498
 2.0530	80.0132
 2.0520	79.9861
 2.0510	80.0624
 2.0500	80.0755
 2.0490	80.0839
 2.0480	80.0712
 2.0470	80.1214
 2.0460	80.1227
 2.0450	80.1269
 2.0440	80.1514
 2.0430	80.1221
 2.0420	80.1277
 2.0410	80.1612
 2.0400	80.1683
 2.0390	80.1941
 2.0380	80.1858
 2.0370	80.2441
 2.0360	80.2465
 2.0350	80.2380
 2.0340	80.2459
 2.0330	80.2415
 2.0320	80.2464
 2.0310	80.2220
 2.0300	80.3054
 2.0290	80.2756
 2.0280	80.3204
 2.0270	80.3373
 2.0260	80.2541
 2.0250	80.2654
 2.0240	80.3356
 2.0230	80.3230
 2.0220	80.3484
 2.0210	80.2915
 2.0200	80.2661
 2.0190	80.3041
 2.0180	80.3064
 2.0170	80.3505
 2.0160	80.2764
 2.0150	80.2992
 2.0140	80.3363
 2.0130	80.3152
 2.0120	80.2648
 2.0110	80.2546
 2.0100	80.2850
 2.0090	80.2327
 2.0080	80.2311
 2.0070	80.2338
 2.0060	80.1915
 2.0050	80.3079
 2.0040	80.2280
 2.0030	80.2451
 2.0020	80.2091
 2.0010	80.2322
 2.0000	80.1987
 1.9990	80.1460
 1.9980	80.1824
 1.9970	80.1831
 1.9960	80.0798
 1.9950	80.1301
 1.9940	80.0184
 1.9930	80.0438
 1.9920	80.0266
 1.9910	80.0694
 1.9900	79.9766
 1.9890	79.9703
 1.9880	79.8970
 1.9870	79.9698
 1.9860	79.9151
 1.9850	79.9730
 1.9840	79.9281
 1.9830	79.8546
 1.9820	79.7896
 1.9810	79.8309
 1.9800	79.8542
 1.9790	79.8609
 1.9780	79.7916
 1.9770	79.7184
 1.9760	79.7181
 1.9750	79.7753
 1.9740	79.7650
 1.9730	79.7655
 1.9720	79.6979
 1.9710	79.6989
 1.9700	79.7028
 1.9690	79.6869
 1.9680	79.6713
 1.9670	79.6971
 1.9660	79.6435
 1.9650	79.6418
 1.9640	79.5486
 1.9630	79.6820
 1.9620	79.5326
 1.9610	79.6092
 1.9600	79.5870
 1.9590	79.6362
 1.9580	79.5552
 1.9570	79.5880
 1.9560	79.4952
 1.9550	79.5316
 1.9540	79.4682
 1.9530	79.4386
 1.9520	79.4809
 1.9510	79.4326
 1.9500	79.5221
 1.9490	79.4857
 1.9480	79.5286
 1.9470	79.4252
 1.9460	79.4500
 1.9450	79.5693
 1.9440	79.3899
 1.9430	79.4578
 1.9420	79.4025
 1.9410	79.4665
 1.9400	79.3561
 1.9390	79.4585
 1.9380	79.3526
 1.9370	79.3589
 1.9360	79.3694
 1.9350	79.2988
 1.9340	79.2704
 1.9330	79.3579
 1.9320	79.3252
 1.9310	79.3432
 1.9300	79.4090
 1.9290	79.3718
 1.9280	79.3811
 1.9270	79.2866
 1.9260	79.2064
 1.9250	79.2279
 1.9240	79.3652
 1.9230	79.3180
 1.9220	79.3023
 1.9210	79.3396
 1.9200	79.3307
 1.9190	79.1902
 1.9180	79.2317
 1.9170	79.3977
 1.9160	79.3740
 1.9150	79.3924
 1.9140	79.3793
 1.9130	79.4382
 1.9120	79.3786
 1.9110	79.4716
 1.9100	79.5461
 1.9090	79.4898
 1.9080	79.5503
 1.9070	79.6289
 1.9060	79.6280
 1.9050	79.7552
 1.9040	79.6926
 1.9030	79.7921
 1.9020	79.9123
 1.9010	79.9416
 1.9000	79.9070
 1.8990	80.0101
 1.8980	80.0893
 1.8970	80.2165
 1.8960	80.2803
 1.8950	80.2673
 1.8940	80.4303
 1.8930	80.5717
 1.8920	80.5959
 1.8910	80.5912
 1.8900	80.6921
 1.8890	80.8637
 1.8880	80.7896
 1.8870	80.8803
 1.8860	80.8647
 1.8850	80.9424
 1.8840	81.0047
 1.8830	80.9634
 1.8820	81.1303
 1.8810	81.0994
 1.8800	81.1953
 1.8790	81.1799
 1.8780	81.2028
 1.8770	81.2023
 1.8760	81.2056
 1.8750	81.2713
 1.8740	81.3184
 1.8730	81.3940
 1.8720	81.3319
 1.8710	81.4413
 1.8700	81.4924
 1.8690	81.4744
 1.8680	81.5320
 1.8670	81.5463
 1.8660	81.5378
 1.8650	81.5508
 1.8640	81.5852
 1.8630	81.5679
 1.8620	81.5789
 1.8610	81.6129
 1.8600	81.6241
 1.8590	81.5865
 1.8580	81.6415
 1.8570	81.6027
 1.8560	81.6453
 1.8550	81.6702
 1.8540	81.6833
 1.8530	81.6170
 1.8520	81.6869
 1.8510	81.7182
 1.8500	81.6455
 1.8490	81.6379
 1.8480	81.5813
 1.8470	81.6579
 1.8460	81.6249
 1.8450	81.5694
 1.8440	81.6168
 1.8430	81.6072
 1.8420	81.6122
 1.8410	81.5994
 1.8400	81.6034
 1.8390	81.5648
 1.8380	81.5871
 1.8370	81.4983
 1.8360	81.5306
 1.8350	81.6064
 1.8340	81.6125
 1.8330	81.6026
 1.8320	81.6402
 1.8310	81.6310
 1.8300	81.6854
 1.8290	81.6841
 1.8280	81.6680
 1.8270	81.7751
 1.8260	81.7582
 1.8250	81.7547
 1.8240	81.8019
 1.8230	81.7899
 1.8220	81.7387
 1.8210	81.7627
 1.8200	81.7668
 1.8190	81.8130
 1.8180	81.8593
 1.8170	81.8667
 1.8160	81.8448
 1.8150	81.9511
 1.8140	81.9359
 1.8130	81.8933
 1.8120	81.9220
 1.8110	81.8766
 1.8100	81.9304
 1.8090	81.9404
 1.8080	81.9252
 1.8070	81.9615
 1.8060	81.8852
 1.8050	81.8821
 1.8040	81.9675
 1.8030	81.9615
 1.8020	81.9214
 1.8010	81.9648
 1.8000	81.9768
 1.7990	82.0013
 1.7980	81.9442
 1.7970	81.9646
 1.7960	81.9810
 1.7950	81.9766
 1.7940	81.9475
 1.7930	81.9142
 1.7920	81.9718
 1.7910	81.9349
 1.7900	81.9179
 1.7890	81.8996
 1.7880	81.8893
 1.7870	81.9217
 1.7860	81.9243
 1.7850	81.8875
 1.7840	81.9209
 1.7830	81.9350
 1.7820	81.9272
 1.7810	81.9088
 1.7800	81.8956
 1.7790	81.9202
 1.7780	81.8268
 1.7770	81.7635
 1.7760	81.8385
 1.7750	81.8843
 1.7740	81.8872
 1.7730	81.8126
 1.7720	81.8411
 1.7710	81.8544
 1.7700	81.8238
 1.7690	81.8527
 1.7680	81.9078
 1.7670	81.9459
 1.7660	81.9168
 1.7650	81.8735
 1.7640	81.8532
 1.7630	81.8575
 1.7620	81.9153
 1.7610	81.9081
 1.7600	81.8825
 1.7590	81.9224
 1.7580	81.9602
 1.7570	81.9017
 1.7560	81.8313
 1.7550	81.8891
 1.7540	81.9451
 1.7530	81.9263
 1.7520	81.9124
 1.7510	81.8952
 1.7500	81.8847
 1.7490	81.9187
 1.7480	81.9409
 1.7470	81.9697
 1.7460	81.9756
 1.7450	82.0071
 1.7440	82.0565
 1.7430	82.0324
 1.7420	82.0490
 1.7410	82.0255
 1.7400	82.0426
 1.7390	82.0218
 1.7380	82.0340
 1.7370	82.0204
 1.7360	82.0657
 1.7350	82.0762
 1.7340	82.0972
 1.7330	82.0388
 1.7320	82.0793
 1.7310	82.0554
 1.7300	82.0529
 1.7290	82.0448
 1.7280	82.0371
 1.7270	82.0557
 1.7260	82.1087
 1.7250	82.0989
 1.7240	82.1087
 1.7230	82.0757
 1.7220	82.0469
 1.7210	82.0580
 1.7200	82.1069
 1.7190	82.0692
 1.7180	82.0704
 1.7170	82.0896
 1.7160	82.0459
 1.7150	82.0793
 1.7140	82.0976
 1.7130	81.9859
 1.7120	82.0888
 1.7110	82.1206
 1.7100	82.0977
 1.7090	82.1727
 1.7080	82.0179
 1.7070	82.0256
 1.7060	82.1743
 1.7050	82.2084
 1.7040	82.1623
 1.7030	82.0683
 1.7020	82.1134
 1.7010	82.1565
 1.7000	82.0939
 1.6990	82.1621
 1.6980	82.1557
 1.6970	82.1993
 1.6960	82.1818
 1.6950	82.0984
 1.6940	82.2083
 1.6930	82.1639
 1.6920	82.1097
 1.6910	82.2558
 1.6900	82.1249
 1.6890	82.1292
 1.6880	82.2000
 1.6870	82.1207
 1.6860	82.1154
 1.6850	82.2013
 1.6840	82.1456
 1.6830	82.1470
 1.6820	82.1697
 1.6810	82.1281
 1.6800	82.1887
 1.6790	82.1558
 1.6780	82.0580
 1.6770	82.1375
 1.6760	82.1729
 1.6750	82.0884
 1.6740	82.1436
 1.6730	82.1044
 1.6720	82.1942
 1.6710	82.1150
 1.6700	82.1763
 1.6690	82.1549
 1.6680	82.1215
 1.6670	82.1882
 1.6660	82.0967
 1.6650	82.1246
 1.6640	82.2322
 1.6630	82.1876
 1.6620	82.1746
 1.6610	82.2155
 1.6600	82.1316
 1.6590	82.2143
 1.6580	82.1375
 1.6570	82.1890
 1.6560	82.2416
 1.6550	82.1868
 1.6540	82.1694
 1.6530	82.0728
 1.6520	82.1158
 1.6510	82.1591
 1.6500	82.2083
 1.6490	82.1750
 1.6480	82.1441
 1.6470	82.2213
 1.6460	82.2126
 1.6450	82.2234
 1.6440	82.2324
 1.6430	82.2478
 1.6420	82.2509
 1.6410	82.1423
 1.6400	82.0461
 1.6390	82.1514
 1.6380	82.1924
 1.6370	82.1890
 1.6360	82.1730
 1.6350	82.0585
 1.6340	82.1879
 1.6330	82.1830
 1.6320	82.1565
 1.6310	82.1328
 1.6300	82.1749
 1.6290	82.1622
 1.6280	82.1891
 1.6270	82.1234
 1.6260	82.1017
 1.6250	82.1584
 1.6240	82.1935
 1.6230	82.1589
 1.6220	82.1609
 1.6210	82.1006
 1.6200	82.1820
 1.6190	82.1371
 1.6180	82.1587
 1.6170	82.1605
 1.6160	82.2238
 1.6150	82.0685
 1.6140	82.1441
 1.6130	82.2006
 1.6120	82.1777
 1.6110	82.1966
 1.6100	82.2724
 1.6090	82.2367
 1.6080	82.0840
 1.6070	82.2209
 1.6060	82.1272
 1.6050	82.2023
 1.6040	82.2033
 1.6030	82.1710
 1.6020	82.1618
 1.6010	82.1528
 1.6000	82.2271
 1.5990	82.2060
 1.5980	82.2118
 1.5970	82.2254
 1.5960	82.2111
 1.5950	82.1095
 1.5940	82.1242
 1.5930	82.1841
 1.5920	82.1384
 1.5910	82.1001
 1.5900	82.1936
 1.5890	82.1883
 1.5880	82.1641
 1.5870	82.0891
 1.5860	82.1162
 1.5850	82.1760
 1.5840	82.1384
 1.5830	82.1477
 1.5820	82.1542
 1.5810	82.1310
 1.5800	82.1291
 1.5790	82.1633
 1.5780	82.0960
 1.5770	82.1254
 1.5760	82.1602
 1.5750	82.0745
 1.5740	82.1400
 1.5730	82.0928
 1.5720	82.1159
 1.5710	82.0895
 1.5700	82.1117
 1.5690	82.1712
 1.5680	82.0847
 1.5670	82.0885
 1.5660	82.0704
 1.5650	82.1172
 1.5640	82.0941
 1.5630	82.0942
 1.5620	82.0898
 1.5610	82.0565
 1.5600	82.0833
 1.5590	82.0314
 1.5580	82.0390
 1.5570	82.0553
 1.5560	82.0742
 1.5550	82.0931
 1.5540	82.0687
 1.5530	81.9724
 1.5520	82.0175
 1.5510	81.9667
 1.5500	82.0352
 1.5490	82.0556
 1.5480	82.0570
 1.5470	82.0261
 1.5460	81.9685
 1.5450	82.0185
 1.5440	82.0068
 1.5430	82.0491
 1.5420	82.0335
 1.5410	82.0091
 1.5400	82.0148
 1.5390	82.0008
 1.5380	82.0052
 1.5370	82.0168
 1.5360	81.9739
 1.5350	81.9537
 1.5340	81.9293
 1.5330	81.9042
 1.5320	81.9131
 1.5310	81.9792
 1.5300	81.9847
 1.5290	81.9324
 1.5280	81.9917
 1.5270	81.9575
 1.5260	81.8968
 1.5250	81.9815
 1.5240	81.9758
 1.5230	81.8883
 1.5220	81.8691
 1.5210	81.8864
 1.5200	81.9373
 1.5190	81.9458
 1.5180	81.8967
 1.5170	81.9098
 1.5160	81.9130
 1.5150	81.9316
 1.5140	81.9209
 1.5130	81.8492
 1.5120	81.9196
 1.5110	81.9124
 1.5100	81.8349
 1.5090	81.8062
 1.5080	81.8328
 1.5070	81.8687
 1.5060	81.8266
 1.5050	81.8315
 1.5040	81.8489
 1.5030	81.8317
 1.5020	81.7931
 1.5010	81.7589
 1.5000	81.7572
 1.4990	81.7989
 1.4980	81.7807
 1.4970	81.7488
 1.4960	81.7594
 1.4950	81.7597
 1.4940	81.7603
 1.4930	81.7655
 1.4920	81.7881
 1.4910	81.7626
 1.4900	81.7784
 1.4890	81.8017
 1.4880	81.7234
 1.4870	81.7149
 1.4860	81.6819
 1.4850	81.6628
 1.4840	81.6929
 1.4830	81.6563
 1.4820	81.6277
 1.4810	81.6477
 1.4800	81.6975
 1.4790	81.7083
 1.4780	81.6727
 1.4770	81.6392
 1.4760	81.6503
 1.4750	81.6538
 1.4740	81.6643
 1.4730	81.6546
 1.4720	81.6572
 1.4710	81.6446
 1.4700	81.5891
 1.4690	81.6011
 1.4680	81.5941
 1.4670	81.5996
 1.4660	81.5308
 1.4650	81.5180
 1.4640	81.5026
 1.4630	81.5191
 1.4620	81.5411
 1.4610	81.5230
 1.4600	81.4992
 1.4590	81.4729
 1.4580	81.5160
 1.4570	81.4805
 1.4560	81.3958
 1.4550	81.4065
 1.4540	81.4702
 1.4530	81.4145
 1.4520	81.3502
 1.4510	81.3231
 1.4500	81.3064
 1.4490	81.3637
 1.4480	81.3603
 1.4470	81.3795
 1.4460	81.2840
 1.4450	81.2730
 1.4440	81.2002
 1.4430	81.2546
 1.4420	81.2211
 1.4410	81.1862
 1.4400	81.1408
 1.4390	81.0677
 1.4380	80.9756
 1.4370	80.9512
 1.4360	80.9761
 1.4350	80.9250
 1.4340	80.8562
 1.4330	80.8143
 1.4320	80.6397
 1.4310	80.4826
 1.4300	80.3998
 1.4290	80.2800
 1.4280	80.0438
 1.4270	79.7825
 1.4260	79.5214
 1.4250	79.1577
 1.4240	78.6813
 1.4230	78.0398
 1.4220	77.4231
 1.4210	76.5616
 1.4200	75.5692
 1.4190	74.4856
 1.4180	73.3603
 1.4170	72.1461
 1.4160	71.0757
 1.4150	69.9542
 1.4140	69.0074
 1.4130	68.4042
 1.4120	68.0030
 1.4110	67.9805
 1.4100	68.0714
 1.4090	68.3576
 1.4080	68.5871
 1.4070	68.8602
 1.4060	69.0934
 1.4050	69.3013
 1.4040	69.5283
 1.4030	69.8438
 1.4020	70.0811
 1.4010	70.5910
 1.4000	71.1710
 1.3990	71.8522
 1.3980	72.6297
 1.3970	73.5225
 1.3960	74.4785
 1.3950	75.5878
 1.3940	76.4032
 1.3930	77.2241
 1.3920	77.7774
 1.3910	78.3680
 1.3900	78.7748
 1.3890	79.0704
 1.3880	79.1787
 1.3870	79.3165
 1.3860	79.3949
 1.3850	79.5326
 1.3840	79.5662
 1.3830	79.7769
 1.3820	79.9681
 1.3810	80.1633
 1.3800	80.3848
 1.3790	80.7184
 1.3780	80.7590
 1.3770	80.8836
 1.3760	80.9981
 1.3750	81.0398
 1.3740	80.9175
 1.3730	81.0638
 1.3720	81.0542
 1.3710	81.1514
 1.3700	81.1804
 1.3690	81.1861
 1.3680	81.2449
 1.3670	81.3195
 1.3660	81.2839
 1.3650	81.3723
 1.3640	81.3430
 1.3630	81.3769
 1.3620	81.3751
 1.3610	81.3693
 1.3600	81.4362
 1.3590	81.5113
 1.3580	81.4532
 1.3570	81.4494
 1.3560	81.4342
 1.3550	81.4113
 1.3540	81.4113
 1.3530	81.5227
 1.3520	81.4029
 1.3510	81.5043
 1.3500	81.4096
 1.3490	81.4887
 1.3480	81.3922
 1.3470	81.4707
 1.3460	81.3883
 1.3450	81.3831
 1.3440	81.4149
 1.3430	81.4140
 1.3420	81.2922
 1.3410	81.3882
 1.3400	81.4259
 1.3390	81.3661
 1.3380	81.3755
 1.3370	81.3364
 1.3360	81.2481
 1.3350	81.2136
 1.3340	81.2473
 1.3330	81.3260
 1.3320	81.2506
 1.3310	81.2844
 1.3300	81.2352
 1.3290	81.2556
 1.3280	81.1683
 1.3270	81.2171
 1.3260	81.1833
 1.3250	81.1501
 1.3240	81.1810
 1.3230	81.1348
 1.3220	81.1986
 1.3210	81.1691
 1.3200	81.2392
 1.3190	81.2612
 1.3180	81.2826
 1.3170	81.2868
 1.3160	81.2240
 1.3150	81.2200
 1.3140	81.1418
 1.3130	81.2300
 1.3120	81.1773
 1.3110	81.2371
 1.3100	81.2057
 1.3090	81.2488
 1.3080	81.2424
 1.3070	81.2348
 1.3060	81.2700
 1.3050	81.3112
 1.3040	81.2210
 1.3030	81.2593
 1.3020	81.2157
 1.3010	81.2771
 1.3000	81.2957
 1.2990	81.3309
 1.2980	81.2886
 1.2970	81.3438
 1.2960	81.2010
 1.2950	81.3015
 1.2940	81.3187
 1.2930	81.3051
 1.2920	81.2837
 1.2910	81.2974
 1.2900	81.2975
 1.2890	81.3896
 1.2880	81.3176
 1.2870	81.2364
 1.2860	81.2923
 1.2850	81.3291
 1.2840	81.3480
 1.2830	81.3520
 1.2820	81.2544
 1.2810	81.3106
 1.2800	81.3694
 1.2790	81.3835
 1.2780	81.3096
 1.2770	81.2704
 1.2760	81.3313
 1.2750	81.3525
 1.2740	81.3901
 1.2730	81.3046
 1.2720	81.3251
 1.2710	81.3556
 1.2700	81.3467
 1.2690	81.2975
 1.2680	81.3373
 1.2670	81.3444
 1.2660	81.3161
 1.2650	81.3544
 1.2640	81.3533
 1.2630	81.3231
 1.2620	81.2880
 1.2610	81.2951
 1.2600	81.3282
 1.2590	81.3159
 1.2580	81.2589
 1.2570	81.2358
 1.2560	81.1711
 1.2550	81.2159
 1.2540	81.2447
 1.2530	81.2776
 1.2520	81.1686
 1.2510	81.1673
 1.2500	81.1045
 1.2490	81.0492
 1.2480	81.0556
 1.2470	81.1011
 1.2460	81.1048
 1.2450	81.1100
 1.2440	81.0798
 1.2430	81.1321
 1.2420	81.1609
 1.2410	81.1635
 1.2400	81.1654
 1.2390	81.1771
 1.2380	81.2097
 1.2370	81.2080
 1.2360	81.1744
 1.2350	81.1250
 1.2340	81.1342
 1.2330	81.1861
 1.2320	81.1890
 1.2310	81.1570
 1.2300	81.1522
 1.2290	81.1984
 1.2280	81.2062
 1.2270	81.1368
 1.2260	81.0706
 1.2250	81.0446
 1.2240	81.0884
 1.2230	81.1265
 1.2220	81.1618
 1.2210	81.1316
 1.2200	81.0748
 1.2190	81.0665
 1.2180	81.1213
 1.2170	81.0957
 1.2160	81.0174
 1.2150	81.0561
 1.2140	81.1287
 1.2130	81.0918
 1.2120	81.0526
 1.2110	81.1002
 1.2100	81.1147
 1.2090	81.0540
 1.2080	81.0174
 1.2070	80.9972
 1.2060	81.0409
 1.2050	81.0477
 1.2040	80.9793
 1.2030	80.9840
 1.2020	80.9710
 1.2010	80.9765
 1.2000	81.0933
 1.1990	81.0483
 1.1980	80.9995
 1.1970	81.0018
 1.1960	80.9913
 1.1950	81.0149
 1.1940	81.0351
 1.1930	81.0125
 1.1920	80.9965
 1.1910	81.0104
 1.1900	80.9876
 1.1890	80.9686
 1.1880	80.9489
 1.1870	80.9433
 1.1860	80.9553
 1.1850	80.9440
 1.1840	80.8886
 1.1830	80.8918
 1.1820	80.9437
 1.1810	80.9403
 1.1800	80.9306
 1.1790	80.9285
 1.1780	80.9135
 1.1770	80.9543
 1.1760	80.9718
 1.1750	80.8945
 1.1740	80.8756
 1.1730	80.8757
 1.1720	80.8660
 1.1710	80.8620
 1.1700	80.9055
 1.1690	80.8426
 1.1680	80.8780
 1.1670	80.8974
 1.1660	80.8578
 1.1650	80.8667
 1.1640	80.8685
 1.1630	80.8222
 1.1620	80.8476
 1.1610	80.8288
 1.1600	80.8266
 1.1590	80.8266
 1.1580	80.7925
 1.1570	80.7441
 1.1560	80.8056
 1.1550	80.8042
 1.1540	80.7819
 1.1530	80.8000
 1.1520	80.7800
 1.1510	80.7393
 1.1500	80.7468
 1.1490	80.7722
 1.1480	80.7768
 1.1470	80.7978
 1.1460	80.7622
 1.1450	80.7555
 1.1440	80.7907
 1.1430	80.8053
 1.1420	80.7485
 1.1410	80.6403
 1.1400	80.7135
 1.1390	80.6865
 1.1380	80.7492
 1.1370	80.6358
 1.1360	80.7422
 1.1350	80.7486
 1.1340	80.7062
 1.1330	80.7001
 1.1320	80.7235
 1.1310	80.6991
 1.1300	80.6533
 1.1290	80.6280
 1.1280	80.6421
 1.1270	80.6484
 1.1260	80.6848
 1.1250	80.5590
 1.1240	80.6450
 1.1230	80.5973
 1.1220	80.6577
 1.1210	80.6337
 1.1200	80.5683
 1.1190	80.6099
 1.1180	80.5861
 1.1170	80.6789
 1.1160	80.6473
 1.1150	80.6057
 1.1140	80.6092
 1.1130	80.5679
 1.1120	80.5563
 1.1110	80.5761
 1.1100	80.4846
 1.1090	80.5618
 1.1080	80.5080
 1.1070	80.5112
 1.1060	80.4363
 1.1050	80.4913
 1.1040	80.4617
 1.1030	80.4391
 1.1020	80.4982
 1.1010	80.4506
 1.1000	80.4575
 1.0990	80.5426
 1.0980	80.4952
 1.0970	80.4129
 1.0960	80.3961
 1.0950	80.4169
 1.0940	80.4418
 1.0930	80.3964
 1.0920	80.4144
 1.0910	80.3942
 1.0900	80.4438
 1.0890	80.4019
 1.0880	80.3731
 1.0870	80.3970
 1.0860	80.4502
 1.0850	80.3793
 1.0840	80.4759
 1.0830	80.4109
 1.0820	80.3170
 1.0810	80.3709
 1.0800	80.4257
 1.0790	80.2949
 1.0780	80.3711
 1.0770	80.3329
 1.0760	80.3355
 1.0750	80.3534
 1.0740	80.2860
 1.0730	80.2668
 1.0720	80.3277
 1.0710	80.3369
 1.0700	80.1871
 1.0690	80.3162
 1.0680	80.1768
 1.0670	80.2586
 1.0660	80.2599
 1.0650	80.1913
 1.0640	80.2067
 1.0630	80.2080
 1.0620	80.2091
 1.0610	80.2452
 1.0600	80.1452
 1.0590	80.2363
 1.0580	80.1871
 1.0570	80.1865
 1.0560	80.1532
 1.0550	80.1046
 1.0540	80.1128
 1.0530	80.1353
 1.0520	80.1943
 1.0510	80.1407
 1.0500	80.1442
 1.0490	80.0928
 1.0480	80.0475
 1.0470	80.1378
 1.0460	80.1493
 1.0450	80.0847
 1.0440	80.0521
 1.0430	80.0183
 1.0420	80.0745
 1.0410	80.0891
 1.0400	80.0365
 1.0390	80.0601
 1.0380	80.0581
 1.0370	79.9960
 1.0360	80.0242
 1.0350	80.0040
 1.0340	80.0889
 1.0330	79.9659
 1.0320	80.0121
 1.0310	79.9579
 1.0300	79.9612
 1.0290	79.9937
 1.0280	79.9252
 1.0270	79.9193
 1.0260	79.8689
 1.0250	79.8990
 1.0240	79.9024
 1.0230	79.8822
 1.0220	79.8975
 1.0210	79.8296
 1.0200	79.8605
 1.0190	79.7856
 1.0180	79.8828
 1.0170	79.8527
 1.0160	79.7702
 1.0150	79.7817
 1.0140	79.7323
 1.0130	79.7057
 1.0120	79.8009
 1.0110	79.7470
 1.0100	79.7832
 1.0090	79.7306
 1.0080	79.7066
 1.0070	79.6575
 1.0060	79.7561
 1.0050	79.7466
 1.0040	79.7741
 1.0030	79.6640
 1.0020	79.6283
 1.0010	79.6266
 1.0000	79.6192
 0.9990	79.6042
 0.9980	79.6961
 0.9970	79.6059
 0.9960	79.6025
 0.9950	79.6279
 0.9940	79.6053
 0.9930	79.6246
 0.9920	79.6064
 0.9910	79.6597
 0.9900	79.6449
 0.9890	79.5815
 0.9880	79.5439
 0.9870	79.5649
 0.9860	79.5148
 0.9850	79.5800
 0.9840	79.5305
 0.9830	79.5080
 0.9820	79.4805
 0.9810	79.4264
 0.9800	79.4057
 0.9790	79.4256
 0.9780	79.4266
 0.9770	79.4254
 0.9760	79.3882
 0.9750	79.3213
 0.9740	79.3103
 0.9730	79.2962
 0.9720	79.3039
 0.9710	79.2063
 0.9700	79.1222
 0.9690	79.0788
 0.9680	79.0526
 0.9670	78.9469
 0.9660	78.9146
 0.9650	78.8600
 0.9640	78.8122
 0.9630	78.7696
 0.9620	78.7785
 0.9610	78.7686
 0.9600	78.7811
 0.9590	78.7958
 0.9580	78.8844
 0.9570	78.9031
 0.9560	78.8636
 0.9550	78.8328
 0.9540	78.8721
 0.9530	78.9602
 0.9520	78.9937
 0.9510	78.9906
 0.9500	78.9908
 0.9490	79.0227
 0.9480	79.0115
 0.9470	78.9365
 0.9460	79.0041
 0.9450	79.0429
 0.9440	79.0346
 0.9430	78.9680
 0.9420	78.9503
 0.9410	78.9493
 0.9400	78.9098
 0.9390	78.9319
 0.9380	78.9678
 0.9370	78.9536
 0.9360	78.9412
 0.9350	78.9584
 0.9340	78.9389
 0.9330	78.8852
 0.9320	78.8776
 0.9310	78.9081
 0.9300	78.9185
 0.9290	78.9097
 0.9280	78.8429
 0.9270	78.8109
 0.9260	78.8235
 0.9250	78.7806
 0.9240	78.7176
 0.9230	78.7247
 0.9220	78.7678
 0.9210	78.7118
 0.9200	78.6430
 0.9190	78.7317
 0.9180	78.7541
 0.9170	78.7164
 0.9160	78.6363
 0.9150	78.6054
 0.9140	78.6658
 0.9130	78.6787
 0.9120	78.6293
 0.9110	78.6346
 0.9100	78.6336
 0.9090	78.6115
 0.9080	78.6288
 0.9070	78.6366
 0.9060	78.5976
 0.9050	78.5918
 0.9040	78.5605
 0.9030	78.5376
 0.9020	78.5016
 0.9010	78.4851
 0.9000	78.5056
 0.8990	78.4780
 0.8980	78.4836
 0.8970	78.5014
 0.8960	78.4713
 0.8950	78.4994
 0.8940	78.4412
 0.8930	78.4161
 0.8920	78.4158
 0.8910	78.3943
 0.8900	78.4139
 0.8890	78.4170
 0.8880	78.3739
 0.8870	78.3854
 0.8860	78.3486
 0.8850	78.3837
 0.8840	78.3746
 0.8830	78.4141
 0.8820	78.3012
 0.8810	78.2973
 0.8800	78.2945
 0.8790	78.3132
 0.8780	78.2920
 0.8770	78.2974
 0.8760	78.2983
 0.8750	78.2698
 0.8740	78.2669
 0.8730	78.2361
 0.8720	78.1391
 0.8710	78.1674
 0.8700	78.1999
 0.8690	78.1856
 0.8680	78.2298
 0.8670	78.2087
 0.8660	78.1569
 0.8650	78.2127
 0.8640	78.1880
 0.8630	78.1625
 0.8620	78.1092
 0.8610	78.1093
 0.8600	78.2050
 0.8590	78.1778
 0.8580	78.3777
 0.8570	78.2811
 0.8560	78.2007
 0.8550	78.1904
 0.8540	78.2080
 0.8530	78.1851
 0.8520	78.2114
 0.8510	78.2097
 0.8500	78.2350
 0.8490	78.1795
 0.8480	78.1752
 0.8470	78.1888
 0.8460	78.2089
 0.8450	78.1091
 0.8440	78.0779
 0.8430	78.1214
 0.8420	78.1346
 0.8410	78.0767
 0.8400	78.0651
 0.8390	78.0743
 0.8380	78.0586
 0.8370	78.0552
 0.8360	78.0755
 0.8350	78.0402
 0.8340	78.0740
 0.8330	78.0441
 0.8320	78.0751
 0.8310	78.0563
 0.8300	78.0258
 0.8290	78.0598
 0.8280	78.0308
 0.8270	77.9766
 0.8260	77.9570
 0.8250	77.9983
 0.8240	77.9523
 0.8230	77.9789
 0.8220	77.9177
 0.8210	77.9572
 0.8200	77.9440
 0.8190	77.9306
 0.8180	77.9431
 0.8170	77.9296
 0.8160	77.8904
 0.8150	77.8511
 0.8140	77.8623
 0.8130	77.8776
 0.8120	77.8743
 0.8110	77.8977
 0.8100	77.8755
 0.8090	77.8749
 0.8080	77.8810
 0.8070	77.8229
 0.8060	77.8093
 0.8050	77.8308
 0.8040	77.8646
 0.8030	77.8437
 0.8020	77.7696
 0.8010	77.7896
 0.8000	77.8264
 0.7990	77.8223
 0.7980	77.7708
 0.7970	77.7318
 0.7960	77.7437
 0.7950	77.6500
 0.7940	77.6616
 0.7930	77.6579
 0.7920	77.6678
 0.7910	77.6668
 0.7900	77.6725
 0.7890	77.6851
 0.7880	77.6410
 0.7870	77.6748
 0.7860	77.6447
 0.7850	77.6122
 0.7840	77.6490
 0.7830	77.5374
 0.7820	77.6312
 0.7810	77.5435
 0.7800	77.5387
 0.7790	77.5785
 0.7780	77.5045
 0.7770	77.5509
 0.7760	77.5610
 0.7750	77.5318
 0.7740	77.5702
 0.7730	77.5392
 0.7720	77.5343
 0.7710	77.5637
 0.7700	77.5600
 0.7690	77.5243
 0.7680	77.5169
 0.7670	77.5641
 0.7660	77.5203
 0.7650	77.4990
 0.7640	77.4748
 0.7630	77.4909
 0.7620	77.5080
 0.7610	77.4952
 0.7600	77.4838
 0.7590	77.5032
 0.7580	77.4929
 0.7570	77.5179
 0.7560	77.4978
 0.7550	77.4929
 0.7540	77.4715
 0.7530	77.5050
 0.7520	77.4752
 0.7510	77.4986
 0.7500	77.4901
 0.7490	77.5077
 0.7480	77.4905
 0.7470	77.4702
 0.7460	77.4995
 0.7450	77.4990
 0.7440	77.4803
 0.7430	77.4587
 0.7420	77.4814
 0.7410	77.4534
 0.7400	77.4778
 0.7390	77.5014
 0.7380	77.4983
 0.7370	77.4758
 0.7360	77.5026
 0.7350	77.5201
 0.7340	77.4850
 0.7330	77.4932
 0.7320	77.4968
 0.7310	77.5112
 0.7300	77.5140
 0.7290	77.4978
 0.7280	77.5007
 0.7270	77.5255
 0.7260	77.5332
 0.7250	77.5254
 0.7240	77.5227
 0.7230	77.5263
 0.7220	77.5289
 0.7210	77.5159
 0.7200	77.5128
 0.7190	77.5426
 0.7180	77.5575
 0.7170	77.5357
 0.7160	77.5501
 0.7150	77.5185
 0.7140	77.5407
 0.7130	77.5222
 0.7120	77.5389
 0.7110	77.5428
 0.7100	77.5516
 0.7090	77.5602
 0.7080	77.5597
 0.7070	77.5678
 0.7060	77.5764
 0.7050	77.6139
 0.7040	77.5874
 0.7030	77.6000
 0.7020	77.6082
 0.7010	77.6044
 0.7000	77.6008
 0.6990	77.5882
 0.6980	77.5920
 0.6970	77.5904
 0.6960	77.5844
 0.6950	77.5924
 0.6940	77.6126
 0.6930	77.6181
 0.6920	77.6196
 0.6910	77.6071
 0.6900	77.5992
 0.6890	77.6078
 0.6880	77.6150
 0.6870	77.6019
 0.6860	77.6296
 0.6850	77.6247
 0.6840	77.6235
 0.6830	77.6125
 0.6820	77.6130
 0.6810	77.6323
 0.6800	77.6126
 0.6790	77.6295
 0.6780	77.6178
 0.6770	77.6210
 0.6760	77.6227
 0.6750	77.6109
 0.6740	77.6115
 0.6730	77.6002
 0.6720	77.5894
 0.6710	77.5939
 0.6700	77.5831
 0.6690	77.5673
 0.6680	77.5402
 0.6670	77.5229
 0.6660	77.5318
 0.6650	77.5128
 0.6640	77.5078
 0.6630	77.4986
 0.6620	77.4634
 0.6610	77.4547
 0.6600	77.4607
 0.6590	77.4444
 0.6580	77.4270
 0.6570	77.3881
 0.6560	77.3565
 0.6550	77.3447
 0.6540	77.3140
 0.6530	77.2856
 0.6520	77.2607
 0.6510	77.2231
 0.6500	77.1824
 0.6490	77.1563
 0.6480	77.1533
 0.6470	77.1309
 0.6460	77.0918
 0.6450	77.0458
 0.6440	76.9920
 0.6430	76.9505
 0.6420	76.9034
 0.6410	76.8511
 0.6400	76.8165
 0.6390	76.7795
 0.6380	76.7244
 0.6370	76.6811
 0.6360	76.6240
 0.6350	76.5566
 0.6340	76.5122
 0.6330	76.4689
 0.6320	76.4087
 0.6310	76.3489
 0.6300	76.2810
 0.6290	76.2141
 0.6280	76.1448
 0.6270	76.0731
 0.6260	76.0148
 0.6250	75.9476
 0.6240	75.8730
 0.6230	75.7922
 0.6220	75.7226
 0.6210	75.6618
 0.6200	75.5856
 0.6190	75.5125
 0.6180	75.4386
 0.6170	75.3542
 0.6160	75.2798
 0.6150	75.1960
 0.6140	75.1151
 0.6130	75.0302
 0.6120	74.9208
 0.6110	74.8383
 0.6100	74.7545
 0.6090	74.6677
 0.6080	74.5953
 0.6070	74.5102
 0.6060	74.4077
 0.6050	74.3281
 0.6040	74.2381
 0.6030	74.1457
 0.6020	74.0691
 0.6010	73.9754
 0.6000	73.8987
 0.5990	73.8330
 0.5980	73.7555
 0.5970	73.6812
 0.5960	73.5933
 0.5950	73.5225
 0.5940	73.4446
 0.5930	73.3553
 0.5920	73.2741
 0.5910	73.1863
 0.5900	73.1066
 0.5890	73.0382
 0.5880	72.9633
 0.5870	72.8960
 0.5860	72.8248
 0.5850	72.7312
 0.5840	72.6486
 0.5830	72.5821
 0.5820	72.5186
 0.5810	72.4536
 0.5800	72.3881
 0.5790	72.3223
 0.5780	72.2594
 0.5770	72.2011
 0.5760	72.1525
 0.5750	72.0964
 0.5740	72.0463
 0.5730	72.0081
 0.5720	71.9596
 0.5710	71.9068
 0.5700	71.8663
 0.5690	71.8408
 0.5680	71.8042
 0.5670	71.7626
 0.5660	71.7318
 0.5650	71.7126
 0.5640	71.6975
 0.5630	71.6839
 0.5620	71.6584
 0.5610	71.6403
 0.5600	71.6233
 0.5590	71.6021
 0.5580	71.6006
 0.5570	71.5939
 0.5560	71.6014
 0.5550	71.6049
 0.5540	71.5954
 0.5530	71.6052
 0.5520	71.6057
 0.5510	71.6195
 0.5500	71.6421
 0.5490	71.6591
 0.5480	71.6876
 0.5470	71.6950
 0.5460	71.7061
 0.5450	71.7646
 0.5440	71.7711
 0.5430	71.7854
 0.5420	71.8369
 0.5410	71.8679
 0.5400	71.8904
 0.5390	71.9421
 0.5380	71.9742
 0.5370	72.0097
 0.5360	72.0606
 0.5350	72.0823
 0.5340	72.1188
 0.5330	72.1503
 0.5320	72.1949
 0.5310	72.2387
 0.5300	72.2841
 0.5290	72.3132
 0.5280	72.3562
 0.5270	72.3990
 0.5260	72.4566
 0.5250	72.4969
 0.5240	72.5337
 0.5230	72.5650
 0.5220	72.6240
 0.5210	72.6579
 0.5200	72.7235
 0.5190	72.7488
 0.5180	72.8040
 0.5170	72.8435
 0.5160	72.8891
 0.5150	72.9188
 0.5140	72.9664
 0.5130	72.9948
 0.5120	73.0355
 0.5110	73.0578
 0.5100	73.0975
 0.5090	73.1267
 0.5080	73.1460
 0.5070	73.1967
 0.5060	73.2246
 0.5050	73.2383
 0.5040	73.2539
 0.5030	73.2802
 0.5020	73.2750
 0.5010	73.3174
 0.5000	73.3345
 0.4990	73.3173
 0.4980	73.3313
 0.4970	73.3511
 0.4960	73.3367
 0.4950	73.3805
 0.4940	73.3619
 0.4930	73.3644
 0.4920	73.3537
 0.4910	73.3749
 0.4900	73.3604
 0.4890	73.3553
 0.4880	73.3663
 0.4870	73.3296
 0.4860	73.3177
 0.4850	73.3147
 0.4840	73.3002
 0.4830	73.2782
 0.4820	73.2670
 0.4810	73.2311
 0.4800	73.2542
 0.4790	73.2121
 0.4780	73.2129
 0.4770	73.2067
 0.4760	73.2175
 0.4750	73.1863
 0.4740	73.1369
 0.4730	73.1674
 0.4720	73.1368
 0.4710	73.1146
 0.4700	73.0969
 0.4690	73.0929
 0.4680	73.0751
 0.4670	73.0588
 0.4660	73.0465
 0.4650	73.0165
 0.4640	73.0125
 0.4630	72.9621
 0.4620	72.9538
 0.4610	72.9263
 0.4600	72.9223
 0.4590	72.8913
 0.4580	72.8619
 0.4570	72.8289
 0.4560	72.8156
 0.4550	72.7722
 0.4540	72.7454
 0.4530	72.7078
 0.4520	72.6646
 0.4510	72.6361
 0.4500	72.5990
 0.4490	72.5702
 0.4480	72.5497
 0.4470	72.5231
 0.4460	72.5013
 0.4450	72.4515
 0.4440	72.4277
 0.4430	72.4041
 0.4420	72.3808
 0.4410	72.3431
 0.4400	72.3201
 0.4390	72.2958
 0.4380	72.2412
 0.4370	72.2191
 0.4360	72.1842
 0.4350	72.1458
 0.4340	72.1264
 0.4330	72.0831
 0.4320	72.0764
 0.4310	72.0461
 0.4300	72.0040
 0.4290	71.9641
 0.4280	71.9521
 0.4270	71.9173
 0.4260	71.8655
 0.4250	71.8374
 0.4240	71.8045
 0.4230	71.7671
 0.4220	71.7388
 0.4210	71.7040
 0.4200	71.6737
 0.4190	71.6240
 0.4180	71.5807
 0.4170	71.5473
 0.4160	71.5100
 0.4150	71.5069
 0.4140	71.4780
 0.4130	71.4414
 0.4120	71.4113
 0.4110	71.3626
 0.4100	71.3646
 0.4090	71.3462
 0.4080	71.2822
 0.4070	71.2565
 0.4060	71.2345
 0.4050	71.1829
 0.4040	71.1170
 0.4030	71.0751
 0.4020	71.0547
 0.4010	71.0093
 0.4000	70.9785
