Name: Illite (K,H_3O)(Al,Mg,Fe)_2(Si,Al)_4O_10((OH)_2,H_2O)
Type: Mineral
Class: Silicate
Subclass: Phyllosilicate
Particle Size: Fine
Sample No.: PS-11A
Owner: JPL
Wavelength Range: VSWIR
Origin: USA, Wisconsin, Marblehead
Collection Date: N/A
Description: Particle size was 0-45um.Collected by JPL Original ASTER Spectral Library name was jpl.beckman.mineral.silicate.phyllosilicate.fine.ps11a.spectrum.txt
Measurement: Hemispherical reflectance
First Column: X
Second Column: Y
X Units: Wavelength (micrometers)
Y Units:Reflectance (percent)
First X Value:  0.4000
Last X Value:  2.5000
Number of X Values: 826
Additional Information: mineral.silicate.phyllosilicate.fine.vswir.ps-11a.jpl.beckman.ancillary.txt

 0.4000	22.2600
 0.4010	22.3000
 0.4020	22.5800
 0.4030	22.6400
 0.4040	22.8300
 0.4050	22.9600
 0.4060	23.0000
 0.4070	23.2100
 0.4080	23.2700
 0.4090	23.3600
 0.4100	23.5700
 0.4110	23.5200
 0.4120	23.7500
 0.4130	23.7600
 0.4140	23.7800
 0.4150	24.0600
 0.4160	24.1300
 0.4170	24.3400
 0.4180	24.3200
 0.4190	24.3200
 0.4200	24.5800
 0.4210	24.6400
 0.4220	24.8400
 0.4230	24.9100
 0.4240	24.9400
 0.4250	25.2100
 0.4260	25.3000
 0.4270	25.3500
 0.4280	25.5800
 0.4290	25.5200
 0.4300	25.8000
 0.4310	25.8600
 0.4320	25.8500
 0.4330	26.1300
 0.4340	26.2000
 0.4350	26.3800
 0.4360	26.4100
 0.4370	26.3800
 0.4380	26.6200
 0.4390	26.7500
 0.4400	26.9100
 0.4410	27.0400
 0.4420	26.9800
 0.4430	27.2700
 0.4440	27.3000
 0.4450	27.3900
 0.4460	27.5900
 0.4470	27.4900
 0.4480	27.7400
 0.4490	27.6800
 0.4500	27.5800
 0.4510	27.9000
 0.4520	28.0200
 0.4530	28.2100
 0.4540	28.2700
 0.4550	28.2200
 0.4560	28.3700
 0.4570	28.3800
 0.4580	28.5300
 0.4590	28.6900
 0.4600	28.6000
 0.4610	28.7400
 0.4620	28.9100
 0.4630	28.9100
 0.4640	28.8700
 0.4650	29.1300
 0.4660	29.1800
 0.4670	29.2000
 0.4680	29.3200
 0.4690	29.3000
 0.4700	29.3700
 0.4710	29.5100
 0.4720	29.4100
 0.4730	29.7400
 0.4740	29.7600
 0.4750	29.9300
 0.4760	29.8900
 0.4770	29.8500
 0.4780	30.0400
 0.4790	30.1400
 0.4800	30.2700
 0.4810	30.3100
 0.4820	30.3100
 0.4830	30.5000
 0.4840	30.6400
 0.4850	30.5600
 0.4860	30.7400
 0.4870	30.8100
 0.4880	30.9400
 0.4890	30.9400
 0.4900	30.8000
 0.4910	31.1000
 0.4920	31.2400
 0.4930	31.2600
 0.4940	31.4000
 0.4950	31.2800
 0.4960	31.4800
 0.4970	31.6500
 0.4980	31.5700
 0.4990	31.8300
 0.5000	31.7900
 0.5010	32.0400
 0.5020	32.0200
 0.5030	32.0400
 0.5040	32.2200
 0.5050	32.3600
 0.5060	32.4000
 0.5070	32.4800
 0.5080	32.4200
 0.5090	32.5000
 0.5100	32.7200
 0.5110	32.6600
 0.5120	32.8800
 0.5130	32.9700
 0.5140	33.1500
 0.5150	33.1800
 0.5160	33.1600
 0.5170	33.3400
 0.5180	33.4900
 0.5190	33.5300
 0.5200	33.6300
 0.5210	33.5500
 0.5220	33.8600
 0.5230	33.7800
 0.5240	33.6900
 0.5250	33.9600
 0.5260	34.0900
 0.5270	34.1700
 0.5280	34.1900
 0.5290	34.1400
 0.5300	34.4600
 0.5310	34.5200
 0.5320	34.4500
 0.5330	34.5900
 0.5340	34.6900
 0.5350	34.8800
 0.5360	34.8700
 0.5370	34.7500
 0.5380	34.9300
 0.5390	35.1600
 0.5400	35.0800
 0.5410	35.1800
 0.5420	35.1200
 0.5430	35.3800
 0.5440	35.3700
 0.5450	35.2500
 0.5460	35.5000
 0.5470	35.6600
 0.5480	35.8300
 0.5490	35.8000
 0.5500	35.7400
 0.5510	35.9900
 0.5520	36.0400
 0.5530	36.0200
 0.5540	36.2000
 0.5550	36.1700
 0.5560	36.3200
 0.5570	36.3200
 0.5580	36.2100
 0.5590	36.4900
 0.5600	36.7800
 0.5610	36.8000
 0.5620	36.8100
 0.5630	36.9000
 0.5640	37.0000
 0.5650	37.2000
 0.5660	36.9900
 0.5670	37.2300
 0.5680	37.2400
 0.5690	37.2900
 0.5700	37.3000
 0.5710	37.3400
 0.5720	37.5000
 0.5730	37.5900
 0.5740	37.5800
 0.5750	37.5000
 0.5760	37.6700
 0.5770	37.5900
 0.5780	37.7100
 0.5790	37.7100
 0.5800	37.8600
 0.5810	37.9100
 0.5820	37.8500
 0.5830	37.9500
 0.5840	38.1100
 0.5850	38.2200
 0.5860	38.3600
 0.5870	38.1800
 0.5880	38.3900
 0.5890	38.4600
 0.5900	38.3500
 0.5910	38.4000
 0.5920	38.5100
 0.5930	38.5700
 0.5940	38.7900
 0.5950	38.5900
 0.5960	38.8300
 0.5970	38.9400
 0.5980	38.9300
 0.5990	39.0000
 0.6000	38.9700
 0.6010	39.2200
 0.6020	39.3500
 0.6030	39.2900
 0.6040	39.3300
 0.6050	39.4800
 0.6060	39.5800
 0.6070	39.6700
 0.6080	39.5900
 0.6090	39.7400
 0.6100	39.8000
 0.6110	39.8400
 0.6120	39.7900
 0.6130	39.8800
 0.6140	40.0200
 0.6150	40.1000
 0.6160	39.9400
 0.6170	40.2500
 0.6180	40.3200
 0.6190	40.2600
 0.6200	40.2300
 0.6210	40.3200
 0.6220	40.4200
 0.6230	40.6000
 0.6240	40.4100
 0.6250	40.6100
 0.6260	40.6700
 0.6270	40.6800
 0.6280	40.7600
 0.6290	40.7400
 0.6300	40.9800
 0.6310	40.9700
 0.6320	41.0000
 0.6330	41.0400
 0.6340	41.0800
 0.6350	41.1700
 0.6360	41.3900
 0.6370	41.1900
 0.6380	41.4200
 0.6390	41.5100
 0.6400	41.3500
 0.6410	41.4600
 0.6420	41.5700
 0.6430	41.6800
 0.6440	41.7300
 0.6450	41.8500
 0.6460	41.7400
 0.6470	41.9200
 0.6480	41.9700
 0.6490	42.0600
 0.6500	42.0700
 0.6510	42.2200
 0.6520	42.3800
 0.6530	42.2400
 0.6540	42.2600
 0.6550	42.3000
 0.6560	42.4100
 0.6570	42.5300
 0.6580	42.4500
 0.6590	42.6000
 0.6600	42.6700
 0.6610	42.7000
 0.6620	42.7500
 0.6630	42.7800
 0.6640	42.8700
 0.6650	42.9800
 0.6660	43.0400
 0.6670	42.9500
 0.6680	43.1200
 0.6690	43.1800
 0.6700	43.2900
 0.6710	43.1300
 0.6720	43.3900
 0.6730	43.5100
 0.6740	43.4800
 0.6750	43.5000
 0.6760	43.5600
 0.6770	43.7300
 0.6780	43.8000
 0.6790	43.7100
 0.6800	43.8800
 0.6810	43.9500
 0.6820	43.9800
 0.6830	43.9000
 0.6840	44.0200
 0.6850	44.1100
 0.6860	44.1600
 0.6870	44.2500
 0.6880	44.2200
 0.6890	44.2500
 0.6900	44.4000
 0.6910	44.5700
 0.6920	44.4300
 0.6930	44.6200
 0.6940	44.7600
 0.6950	44.6500
 0.6960	44.6800
 0.6970	44.7100
 0.6980	44.8400
 0.6990	44.9000
 0.7000	44.9200
 0.7010	45.1400
 0.7020	45.1400
 0.7030	45.1400
 0.7040	45.1800
 0.7050	45.3800
 0.7060	45.2400
 0.7070	45.3500
 0.7080	45.4400
 0.7090	45.5000
 0.7100	45.6000
 0.7110	45.5000
 0.7120	45.5200
 0.7130	45.6600
 0.7140	45.6600
 0.7150	45.8900
 0.7160	45.8900
 0.7170	45.8900
 0.7180	46.0600
 0.7190	45.9800
 0.7200	45.9800
 0.7210	46.1200
 0.7220	46.1500
 0.7230	46.2600
 0.7240	46.1800
 0.7250	46.2700
 0.7260	46.4400
 0.7270	46.3500
 0.7280	46.5300
 0.7290	46.5000
 0.7300	46.5300
 0.7310	46.7900
 0.7320	46.5600
 0.7330	46.6700
 0.7340	46.8100
 0.7350	47.0200
 0.7360	46.9900
 0.7370	46.9600
 0.7380	46.9900
 0.7390	47.3000
 0.7400	47.0500
 0.7410	47.1000
 0.7420	47.2400
 0.7430	47.2400
 0.7440	47.4100
 0.7450	47.3800
 0.7460	47.4400
 0.7470	47.6100
 0.7480	47.4700
 0.7490	47.5600
 0.7500	47.6400
 0.7510	47.7300
 0.7520	47.8700
 0.7530	47.7300
 0.7540	47.7300
 0.7550	47.8700
 0.7560	48.0500
 0.7570	48.1400
 0.7580	48.1100
 0.7590	48.0800
 0.7600	48.3100
 0.7610	48.1900
 0.7620	48.2800
 0.7630	48.3100
 0.7640	48.3900
 0.7650	48.5400
 0.7660	48.4800
 0.7670	48.4800
 0.7680	48.6200
 0.7690	48.5600
 0.7700	48.7400
 0.7710	48.7100
 0.7720	48.6800
 0.7730	48.9300
 0.7740	48.8500
 0.7750	48.8500
 0.7760	48.9900
 0.7770	49.1000
 0.7780	49.1300
 0.7790	49.1100
 0.7800	49.1000
 0.7810	49.3900
 0.7820	49.3300
 0.7830	49.3300
 0.7840	49.5100
 0.7850	49.4400
 0.7860	49.6800
 0.7870	49.6200
 0.7880	49.5000
 0.7890	49.6500
 0.7900	49.6500
 0.7910	49.7600
 0.7920	49.7900
 0.7930	49.7600
 0.7940	50.0500
 0.7950	49.9900
 0.7960	50.0500
 0.7970	50.1400
 0.7980	50.2100
 0.7990	50.2500
 0.8000	50.9000
 0.8040	51.1100
 0.8080	51.3500
 0.8120	51.5600
 0.8160	51.7700
 0.8200	51.9900
 0.8240	52.0800
 0.8280	52.2900
 0.8320	52.5400
 0.8360	52.8200
 0.8400	52.9600
 0.8440	53.1200
 0.8480	53.3200
 0.8520	53.4700
 0.8560	53.7500
 0.8600	53.9000
 0.8640	54.0800
 0.8680	54.2200
 0.8720	54.3900
 0.8760	54.6200
 0.8800	54.7300
 0.8840	54.9300
 0.8880	55.0800
 0.8920	55.2000
 0.8960	55.4800
 0.9000	55.6100
 0.9040	55.7700
 0.9080	55.8600
 0.9120	56.0800
 0.9160	56.1900
 0.9200	56.4200
 0.9240	56.5500
 0.9280	56.6900
 0.9320	56.8200
 0.9360	57.0400
 0.9400	57.2300
 0.9440	57.3900
 0.9480	57.5100
 0.9520	57.6600
 0.9560	57.7700
 0.9600	57.9900
 0.9640	58.2500
 0.9680	58.3100
 0.9720	58.3700
 0.9760	58.6100
 0.9800	58.8500
 0.9840	58.9600
 0.9880	59.1200
 0.9920	59.1800
 0.9960	59.3600
 1.0000	59.3500
 1.0040	59.6500
 1.0080	59.8800
 1.0120	59.9600
 1.0160	60.0700
 1.0200	60.2500
 1.0240	60.3700
 1.0280	60.5600
 1.0320	60.6100
 1.0360	60.7700
 1.0400	60.9300
 1.0440	61.1300
 1.0480	61.1600
 1.0520	61.3100
 1.0560	61.5400
 1.0600	61.5500
 1.0640	61.6700
 1.0680	61.8200
 1.0720	62.0200
 1.0760	62.0400
 1.0800	62.2700
 1.0840	62.2900
 1.0880	62.4500
 1.0920	62.5700
 1.0960	62.8000
 1.1000	62.9000
 1.1040	63.0000
 1.1080	63.0900
 1.1120	63.2500
 1.1160	63.4300
 1.1200	63.5800
 1.1240	63.6600
 1.1280	63.7900
 1.1320	63.8800
 1.1360	64.0300
 1.1400	64.0300
 1.1440	64.2000
 1.1480	64.2000
 1.1520	64.4100
 1.1560	64.5400
 1.1600	64.6800
 1.1640	64.7400
 1.1680	64.9200
 1.1720	65.0400
 1.1760	65.0900
 1.1800	65.2700
 1.1840	65.3900
 1.1880	65.4100
 1.1920	65.5700
 1.1960	65.8200
 1.2000	65.8000
 1.2040	65.9900
 1.2080	65.9900
 1.2120	66.1800
 1.2160	66.2900
 1.2200	66.3200
 1.2240	66.6200
 1.2280	66.6100
 1.2320	66.7200
 1.2360	66.8200
 1.2400	66.9100
 1.2440	67.0300
 1.2480	67.2400
 1.2520	67.2900
 1.2560	67.3600
 1.2600	67.4900
 1.2640	67.6600
 1.2680	67.7700
 1.2720	67.7700
 1.2760	67.9100
 1.2800	68.0800
 1.2840	68.1500
 1.2880	68.3000
 1.2920	68.2500
 1.2960	68.3000
 1.3000	68.4000
 1.3040	68.5600
 1.3080	68.6500
 1.3120	68.7200
 1.3160	68.7900
 1.3200	68.8400
 1.3240	69.0100
 1.3280	69.0300
 1.3320	69.1900
 1.3360	69.2100
 1.3400	69.2600
 1.3440	69.3400
 1.3480	69.4900
 1.3520	69.5100
 1.3560	69.6000
 1.3600	69.6200
 1.3640	69.6800
 1.3680	69.6700
 1.3720	69.6400
 1.3760	69.5000
 1.3800	69.3500
 1.3840	69.1700
 1.3880	68.7600
 1.3920	68.2600
 1.3960	67.6200
 1.4000	66.8900
 1.4040	66.2200
 1.4080	65.7700
 1.4120	65.5700
 1.4160	66.0500
 1.4200	66.9500
 1.4240	67.8800
 1.4280	68.5700
 1.4320	69.0700
 1.4360	69.5500
 1.4400	69.8000
 1.4440	70.0900
 1.4480	70.2200
 1.4520	70.3800
 1.4560	70.4900
 1.4600	70.6500
 1.4640	70.7700
 1.4680	70.8800
 1.4720	71.1400
 1.4760	71.2800
 1.4800	71.4300
 1.4840	71.4200
 1.4880	71.6700
 1.4920	71.8100
 1.4960	71.8000
 1.5000	71.9700
 1.5040	72.1800
 1.5080	72.2200
 1.5120	72.3600
 1.5160	72.4700
 1.5200	72.5600
 1.5240	72.6500
 1.5280	72.7600
 1.5320	72.8300
 1.5360	72.8700
 1.5400	73.0200
 1.5440	73.1100
 1.5480	73.1500
 1.5520	73.2600
 1.5560	73.3200
 1.5600	73.4100
 1.5640	73.5200
 1.5680	73.6000
 1.5720	73.6500
 1.5760	73.7800
 1.5800	73.7900
 1.5840	73.8700
 1.5880	73.9400
 1.5920	74.1100
 1.5960	74.1200
 1.6000	74.1400
 1.6040	74.2200
 1.6080	74.3500
 1.6120	74.3900
 1.6160	74.4900
 1.6200	74.4100
 1.6240	74.5700
 1.6280	74.6500
 1.6320	74.7000
 1.6360	74.7600
 1.6400	74.7600
 1.6440	74.8600
 1.6480	74.9500
 1.6520	74.9600
 1.6560	75.0500
 1.6600	75.1200
 1.6640	75.2000
 1.6680	75.2200
 1.6720	75.2800
 1.6760	75.4100
 1.6800	75.4600
 1.6840	75.4700
 1.6880	75.4000
 1.6920	75.5400
 1.6960	75.5800
 1.7000	75.6900
 1.7040	75.7400
 1.7080	75.7700
 1.7120	75.8000
 1.7160	75.9000
 1.7200	75.8400
 1.7240	75.9200
 1.7280	75.8500
 1.7320	75.8600
 1.7360	75.8800
 1.7400	75.9800
 1.7440	75.9000
 1.7480	75.9600
 1.7520	75.9600
 1.7560	75.9800
 1.7600	76.0800
 1.7640	76.0400
 1.7680	76.0200
 1.7720	76.0700
 1.7760	76.1300
 1.7800	76.1300
 1.7840	76.0700
 1.7880	76.1600
 1.7920	76.1500
 1.7960	76.1700
 1.8000	76.2100
 1.8040	76.3200
 1.8080	76.2800
 1.8120	76.3400
 1.8160	76.3000
 1.8200	76.3500
 1.8240	76.3100
 1.8280	76.3500
 1.8320	76.2700
 1.8360	76.2600
 1.8400	76.2500
 1.8440	76.1100
 1.8480	76.1200
 1.8520	75.9900
 1.8560	75.8500
 1.8600	75.5900
 1.8640	75.1400
 1.8680	74.5800
 1.8720	73.9000
 1.8760	73.1100
 1.8800	72.2800
 1.8840	71.2600
 1.8880	70.1300
 1.8920	68.9200
 1.8960	67.7600
 1.9000	66.8500
 1.9040	66.3400
 1.9080	66.1300
 1.9120	66.3400
 1.9160	66.7400
 1.9200	67.2600
 1.9240	67.7300
 1.9280	68.2200
 1.9320	68.6100
 1.9360	68.9700
 1.9400	69.3200
 1.9440	69.5000
 1.9480	69.7400
 1.9520	70.0600
 1.9560	70.2500
 1.9600	70.4300
 1.9640	70.7200
 1.9680	70.9600
 1.9720	71.2100
 1.9760	71.4700
 1.9800	71.6600
 1.9840	71.9900
 1.9880	72.2500
 1.9920	72.5800
 1.9960	72.7900
 2.0000	73.0600
 2.0040	73.3100
 2.0080	73.4700
 2.0120	73.6400
 2.0160	73.9700
 2.0200	74.2400
 2.0240	74.4300
 2.0280	74.4800
 2.0320	74.6400
 2.0360	74.7600
 2.0400	74.9000
 2.0440	74.9500
 2.0480	75.0800
 2.0520	75.1600
 2.0560	75.2400
 2.0600	75.2900
 2.0640	75.3400
 2.0680	75.4000
 2.0720	75.3900
 2.0760	75.3900
 2.0800	75.4300
 2.0840	75.4700
 2.0880	75.3800
 2.0920	75.4700
 2.0960	75.4200
 2.1000	75.3600
 2.1040	75.4600
 2.1080	75.4200
 2.1120	75.4800
 2.1160	75.4900
 2.1200	75.6000
 2.1240	75.5800
 2.1280	75.5400
 2.1320	75.5200
 2.1360	75.4500
 2.1400	75.4900
 2.1440	75.3700
 2.1480	75.2000
 2.1520	74.8700
 2.1560	74.7300
 2.1600	74.3800
 2.1640	73.9600
 2.1680	73.4700
 2.1720	72.9600
 2.1760	72.2200
 2.1800	71.5700
 2.1840	70.7700
 2.1880	69.8800
 2.1920	69.0100
 2.1960	68.1200
 2.2000	67.4300
 2.2040	66.7500
 2.2080	66.1300
 2.2120	65.7100
 2.2160	65.6300
 2.2200	65.8300
 2.2240	66.0400
 2.2280	66.3900
 2.2320	66.7400
 2.2360	67.2100
 2.2400	67.8300
 2.2440	68.3200
 2.2480	68.8400
 2.2520	69.5100
 2.2560	70.0900
 2.2600	70.7000
 2.2640	71.2000
 2.2680	71.6800
 2.2720	72.0000
 2.2760	72.2600
 2.2800	72.2900
 2.2840	72.1800
 2.2880	72.0100
 2.2920	71.7800
 2.2960	71.3100
 2.3000	70.8400
 2.3040	70.0900
 2.3080	69.4500
 2.3120	68.8000
 2.3160	68.0900
 2.3200	67.6300
 2.3240	67.1100
 2.3280	66.6400
 2.3320	66.2700
 2.3360	66.0100
 2.3400	65.9600
 2.3440	65.9700
 2.3480	66.0500
 2.3520	66.2600
 2.3560	66.3500
 2.3600	66.4700
 2.3640	66.6200
 2.3680	66.7200
 2.3720	66.7200
 2.3760	66.7600
 2.3800	66.7200
 2.3840	66.5800
 2.3880	66.4000
 2.3920	66.2400
 2.3960	66.0700
 2.4000	65.8700
 2.4040	65.5400
 2.4080	65.2500
 2.4120	64.9400
 2.4160	64.6500
 2.4200	64.2000
 2.4240	63.8400
 2.4280	63.5900
 2.4320	63.2500
 2.4360	63.0500
 2.4400	62.8900
 2.4440	62.8800
 2.4480	62.7000
 2.4520	62.5500
 2.4560	62.5000
 2.4600	62.5400
 2.4640	62.3900
 2.4680	62.4000
 2.4720	62.3200
 2.4760	62.3200
 2.4800	62.4300
 2.4840	62.3800
 2.4880	62.4400
 2.4920	62.3700
 2.4960	62.4900
 2.5000	62.4300
