Name: Corrensite (Mg,Fe)_9(Si,Al)_8O_20(OH)_10._xH_2O
Type: Mineral
Class: Silicate
Subclass: Phyllosilicate
Particle Size: Coarse
Sample No.: PS-10A
Owner: JPL
Wavelength Range: VSWIR
Origin: USA, Washington, Packwood.
Collection Date: N/A
Description: Particle size was 125-500um.Collected by:  Clay Mineral Society Original ASTER Spectral Library name was jpl.perkin.mineral.silicate.phyllosilicate.coarse.ps10a.spectrum.txt
Measurement: Hemispherical reflectance
First Column: X
Second Column: Y
X Units: Wavelength (micrometers)
Y Units:Reflectance (percent)
First X Value:  2.5000
Last X Value:  0.4000
Number of X Values: 2101
Additional Information: mineral.silicate.phyllosilicate.coarse.vswir.ps-10a.jpl.perkin.ancillary.txt

 2.5000	23.5446
 2.4990	23.4912
 2.4980	23.9298
 2.4970	23.6454
 2.4960	23.7055
 2.4950	23.9061
 2.4940	23.8103
 2.4930	23.9035
 2.4920	24.2566
 2.4910	24.0342
 2.4900	24.2715
 2.4890	24.0488
 2.4880	24.0931
 2.4870	24.1459
 2.4860	24.3377
 2.4850	24.1394
 2.4840	24.5346
 2.4830	24.2433
 2.4820	24.5352
 2.4810	24.2651
 2.4800	24.7115
 2.4790	24.5002
 2.4780	24.7447
 2.4770	24.6859
 2.4760	24.7411
 2.4750	24.8422
 2.4740	24.8851
 2.4730	24.9869
 2.4720	25.0964
 2.4710	25.0411
 2.4700	25.3481
 2.4690	25.2254
 2.4680	25.3427
 2.4670	25.2947
 2.4660	25.5944
 2.4650	25.4280
 2.4640	25.7110
 2.4630	25.6213
 2.4620	25.7488
 2.4610	25.7722
 2.4600	25.8522
 2.4590	25.8784
 2.4580	26.1274
 2.4570	26.1161
 2.4560	26.2279
 2.4550	26.2104
 2.4540	26.4027
 2.4530	26.3368
 2.4520	26.4706
 2.4510	26.4874
 2.4500	26.6340
 2.4490	26.5683
 2.4480	26.8282
 2.4470	26.8574
 2.4460	26.9185
 2.4450	26.9206
 2.4440	27.1035
 2.4430	26.9430
 2.4420	27.1625
 2.4410	27.2028
 2.4400	27.3556
 2.4390	27.1914
 2.4380	27.4199
 2.4370	27.4479
 2.4360	27.5890
 2.4350	27.6071
 2.4340	27.6618
 2.4330	27.7210
 2.4320	27.8296
 2.4310	27.8066
 2.4300	27.9364
 2.4290	27.8780
 2.4280	27.9571
 2.4270	27.9442
 2.4260	28.2171
 2.4250	28.2183
 2.4240	28.1576
 2.4230	28.1974
 2.4220	28.2489
 2.4210	28.2894
 2.4200	28.4093
 2.4190	28.4006
 2.4180	28.5203
 2.4170	28.4782
 2.4160	28.6166
 2.4150	28.6252
 2.4140	28.5955
 2.4130	28.5806
 2.4120	28.7147
 2.4110	28.6709
 2.4100	28.7896
 2.4090	28.7028
 2.4080	28.7644
 2.4070	28.7072
 2.4060	28.7994
 2.4050	28.8215
 2.4040	28.8310
 2.4030	28.8512
 2.4020	28.9317
 2.4010	28.9897
 2.4000	29.0345
 2.3990	28.9143
 2.3980	29.0189
 2.3970	29.0827
 2.3960	29.1434
 2.3950	29.1357
 2.3940	29.1619
 2.3930	29.2378
 2.3920	29.2912
 2.3910	29.2489
 2.3900	29.3487
 2.3890	29.3297
 2.3880	29.3579
 2.3870	29.4002
 2.3860	29.4588
 2.3850	29.4132
 2.3840	29.5073
 2.3830	29.4399
 2.3820	29.4789
 2.3810	29.4574
 2.3800	29.5017
 2.3790	29.5036
 2.3780	29.5416
 2.3770	29.5744
 2.3760	29.6126
 2.3750	29.5664
 2.3740	29.5440
 2.3730	29.5249
 2.3720	29.5699
 2.3710	29.5311
 2.3700	29.4459
 2.3690	29.4288
 2.3680	29.4555
 2.3670	29.4913
 2.3660	29.5054
 2.3650	29.4113
 2.3640	29.4246
 2.3630	29.4330
 2.3620	29.3716
 2.3610	29.3550
 2.3600	29.3818
 2.3590	29.3579
 2.3580	29.3684
 2.3570	29.3856
 2.3560	29.3532
 2.3550	29.3332
 2.3540	29.4057
 2.3530	29.4434
 2.3520	29.4655
 2.3510	29.5018
 2.3500	29.4458
 2.3490	29.4707
 2.3480	29.4850
 2.3470	29.5267
 2.3460	29.5595
 2.3450	29.5954
 2.3440	29.6881
 2.3430	29.7256
 2.3420	29.6733
 2.3410	29.7523
 2.3400	29.8061
 2.3390	29.8372
 2.3380	29.9534
 2.3370	30.0157
 2.3360	30.0054
 2.3350	30.0902
 2.3340	30.1230
 2.3330	30.1717
 2.3320	30.2324
 2.3310	30.2826
 2.3300	30.2682
 2.3290	30.3795
 2.3280	30.4183
 2.3270	30.4565
 2.3260	30.4769
 2.3250	30.5607
 2.3240	30.6551
 2.3230	30.7218
 2.3220	30.7170
 2.3210	30.7990
 2.3200	30.8120
 2.3190	30.8281
 2.3180	30.8512
 2.3170	30.9835
 2.3160	30.9598
 2.3150	30.9728
 2.3140	31.0545
 2.3130	31.1264
 2.3120	31.0365
 2.3110	31.0999
 2.3100	31.1190
 2.3090	31.2002
 2.3080	31.2248
 2.3070	31.2778
 2.3060	31.2614
 2.3050	31.2808
 2.3040	31.2967
 2.3030	31.3651
 2.3020	31.4186
 2.3010	31.4344
 2.3000	31.4536
 2.2990	31.5028
 2.2980	31.5544
 2.2970	31.5630
 2.2960	31.5759
 2.2950	31.7101
 2.2940	31.7249
 2.2930	31.7919
 2.2920	31.8351
 2.2910	31.9220
 2.2900	32.0070
 2.2890	32.0917
 2.2880	32.1236
 2.2870	32.2391
 2.2860	32.3313
 2.2850	32.5009
 2.2840	32.5269
 2.2830	32.6326
 2.2820	32.7084
 2.2810	32.8373
 2.2800	33.0102
 2.2790	33.0783
 2.2780	33.1302
 2.2770	33.2734
 2.2760	33.3724
 2.2750	33.5453
 2.2740	33.5543
 2.2730	33.6876
 2.2720	33.7537
 2.2710	33.9382
 2.2700	33.9853
 2.2690	34.1406
 2.2680	34.1053
 2.2670	34.3770
 2.2660	34.2929
 2.2650	34.4466
 2.2640	34.5146
 2.2630	34.6292
 2.2620	34.6156
 2.2610	34.7241
 2.2600	34.8159
 2.2590	34.8725
 2.2580	34.9281
 2.2570	35.0375
 2.2560	35.0822
 2.2550	35.2601
 2.2540	35.3408
 2.2530	35.4819
 2.2520	35.5240
 2.2510	35.6328
 2.2500	35.7054
 2.2490	35.9052
 2.2480	36.0052
 2.2470	36.2479
 2.2460	36.3139
 2.2450	36.6081
 2.2440	36.6463
 2.2430	36.8714
 2.2420	36.9126
 2.2410	37.1403
 2.2400	37.2296
 2.2390	37.5526
 2.2380	37.6933
 2.2370	37.8744
 2.2360	37.9758
 2.2350	38.2299
 2.2340	38.3014
 2.2330	38.5315
 2.2320	38.7438
 2.2310	38.8644
 2.2300	38.9823
 2.2290	39.1327
 2.2280	39.1211
 2.2270	39.4120
 2.2260	39.3908
 2.2250	39.6659
 2.2240	39.6076
 2.2230	39.7942
 2.2220	39.8569
 2.2210	40.0330
 2.2200	40.0189
 2.2190	40.1282
 2.2180	40.1973
 2.2170	40.3427
 2.2160	40.3497
 2.2150	40.3910
 2.2140	40.4622
 2.2130	40.4636
 2.2120	40.5825
 2.2110	40.6056
 2.2100	40.6141
 2.2090	40.7304
 2.2080	40.8622
 2.2070	40.7699
 2.2060	40.8032
 2.2050	40.8432
 2.2040	40.9009
 2.2030	40.9890
 2.2020	40.9638
 2.2010	41.1604
 2.2000	41.0424
 2.1990	41.2168
 2.1980	41.2224
 2.1970	41.2834
 2.1960	41.2535
 2.1950	41.4389
 2.1940	41.5379
 2.1930	41.5979
 2.1920	41.5733
 2.1910	41.7501
 2.1900	41.6709
 2.1890	41.9164
 2.1880	41.8235
 2.1870	42.0841
 2.1860	41.9860
 2.1850	42.1383
 2.1840	42.1943
 2.1830	42.2699
 2.1820	42.3679
 2.1810	42.4140
 2.1800	42.4795
 2.1790	42.5927
 2.1780	42.5939
 2.1770	42.8165
 2.1760	42.7580
 2.1750	42.8285
 2.1740	42.7653
 2.1730	42.9337
 2.1720	43.0242
 2.1710	43.0487
 2.1700	42.9738
 2.1690	43.1710
 2.1680	43.1472
 2.1670	43.2052
 2.1660	43.1931
 2.1650	43.3050
 2.1640	43.2927
 2.1630	43.3925
 2.1620	43.3973
 2.1610	43.4774
 2.1600	43.4015
 2.1590	43.5017
 2.1580	43.5363
 2.1570	43.6364
 2.1560	43.5711
 2.1550	43.7809
 2.1540	43.6251
 2.1530	43.6650
 2.1520	43.6314
 2.1510	43.7133
 2.1500	43.7117
 2.1490	43.7019
 2.1480	43.6807
 2.1470	43.7195
 2.1460	43.6578
 2.1450	43.6892
 2.1440	43.6571
 2.1430	43.7329
 2.1420	43.7039
 2.1410	43.6875
 2.1400	43.7062
 2.1390	43.6636
 2.1380	43.5588
 2.1370	43.6401
 2.1360	43.6389
 2.1350	43.6141
 2.1340	43.6155
 2.1330	43.5669
 2.1320	43.5102
 2.1310	43.5826
 2.1300	43.4726
 2.1290	43.4683
 2.1280	43.4545
 2.1270	43.4460
 2.1260	43.3011
 2.1250	43.3021
 2.1240	43.2725
 2.1230	43.2614
 2.1220	43.1956
 2.1210	43.1891
 2.1200	43.0984
 2.1190	43.1183
 2.1180	43.0578
 2.1170	43.0410
 2.1160	43.0029
 2.1150	42.9147
 2.1140	42.8930
 2.1130	42.8929
 2.1120	42.8033
 2.1110	42.7867
 2.1100	42.7532
 2.1090	42.7565
 2.1080	42.5958
 2.1070	42.6141
 2.1060	42.5723
 2.1050	42.5529
 2.1040	42.5115
 2.1030	42.4213
 2.1020	42.3645
 2.1010	42.4177
 2.1000	42.3395
 2.0990	42.3067
 2.0980	42.2677
 2.0970	42.2569
 2.0960	42.2247
 2.0950	42.2184
 2.0940	42.2078
 2.0930	42.1457
 2.0920	42.0926
 2.0910	42.1135
 2.0900	42.0740
 2.0890	42.0748
 2.0880	42.0193
 2.0870	42.0157
 2.0860	41.9659
 2.0850	41.8824
 2.0840	41.8289
 2.0830	41.8114
 2.0820	41.7499
 2.0810	41.7119
 2.0800	41.6886
 2.0790	41.6330
 2.0780	41.6213
 2.0770	41.5853
 2.0760	41.5281
 2.0750	41.5256
 2.0740	41.4984
 2.0730	41.4328
 2.0720	41.3439
 2.0710	41.2299
 2.0700	41.2283
 2.0690	41.2272
 2.0680	41.1418
 2.0670	41.0444
 2.0660	41.0255
 2.0650	40.9974
 2.0640	40.9248
 2.0630	40.8597
 2.0620	40.8170
 2.0610	40.8041
 2.0600	40.7369
 2.0590	40.6650
 2.0580	40.6072
 2.0570	40.5723
 2.0560	40.5350
 2.0550	40.4264
 2.0540	40.3688
 2.0530	40.2904
 2.0520	40.2150
 2.0510	40.1539
 2.0500	40.0907
 2.0490	39.9870
 2.0480	39.9018
 2.0470	39.9046
 2.0460	39.8906
 2.0450	39.7502
 2.0440	39.7129
 2.0430	39.6413
 2.0420	39.5989
 2.0410	39.5042
 2.0400	39.4316
 2.0390	39.3268
 2.0380	39.2778
 2.0370	39.1526
 2.0360	39.1143
 2.0350	39.0177
 2.0340	38.9716
 2.0330	38.9018
 2.0320	38.8246
 2.0310	38.7353
 2.0300	38.6801
 2.0290	38.5877
 2.0280	38.4663
 2.0270	38.3276
 2.0260	38.2643
 2.0250	38.2006
 2.0240	38.1309
 2.0230	38.0307
 2.0220	37.9081
 2.0210	37.8313
 2.0200	37.8257
 2.0190	37.7057
 2.0180	37.6058
 2.0170	37.5325
 2.0160	37.4392
 2.0150	37.3357
 2.0140	37.2887
 2.0130	37.1734
 2.0120	37.0522
 2.0110	36.9575
 2.0100	36.9094
 2.0090	36.8293
 2.0080	36.7962
 2.0070	36.6452
 2.0060	36.5310
 2.0050	36.4050
 2.0040	36.3778
 2.0030	36.2276
 2.0020	36.1466
 2.0010	36.0566
 2.0000	36.0230
 1.9990	35.8865
 1.9980	35.8879
 1.9970	35.6888
 1.9960	35.6291
 1.9950	35.5092
 1.9940	35.4695
 1.9930	35.3585
 1.9920	35.2750
 1.9910	35.1436
 1.9900	35.0728
 1.9890	34.9213
 1.9880	34.9320
 1.9870	34.7824
 1.9860	34.7298
 1.9850	34.5431
 1.9840	34.6099
 1.9830	34.4132
 1.9820	34.3330
 1.9810	34.1964
 1.9800	34.1511
 1.9790	34.0274
 1.9780	34.0308
 1.9770	33.8353
 1.9760	33.8038
 1.9750	33.7313
 1.9740	33.7186
 1.9730	33.4610
 1.9720	33.5114
 1.9710	33.4286
 1.9700	33.3730
 1.9690	33.2766
 1.9680	33.2548
 1.9670	33.0781
 1.9660	33.0312
 1.9650	32.8880
 1.9640	32.9194
 1.9630	32.7164
 1.9620	32.7747
 1.9610	32.5685
 1.9600	32.5826
 1.9590	32.3917
 1.9580	32.4468
 1.9570	32.2745
 1.9560	32.2351
 1.9550	32.1386
 1.9540	32.0928
 1.9530	31.9654
 1.9520	32.0142
 1.9510	31.8159
 1.9500	31.8368
 1.9490	31.6464
 1.9480	31.5952
 1.9470	31.6430
 1.9460	31.5141
 1.9450	31.3549
 1.9440	31.3197
 1.9430	31.1052
 1.9420	31.1374
 1.9410	30.9605
 1.9400	30.9268
 1.9390	30.8203
 1.9380	30.7107
 1.9370	30.6081
 1.9360	30.4980
 1.9350	30.3354
 1.9340	30.3211
 1.9330	30.1795
 1.9320	30.1044
 1.9310	29.9255
 1.9300	29.9735
 1.9290	29.7843
 1.9280	29.6671
 1.9270	29.5516
 1.9260	29.4503
 1.9250	29.3965
 1.9240	29.2956
 1.9230	29.1898
 1.9220	29.2666
 1.9210	29.0394
 1.9200	29.1402
 1.9190	29.0602
 1.9180	29.1788
 1.9170	29.0768
 1.9160	29.1014
 1.9150	28.9972
 1.9140	29.2418
 1.9130	29.3027
 1.9120	29.5612
 1.9110	29.5035
 1.9100	29.8644
 1.9090	29.9385
 1.9080	30.3334
 1.9070	30.4595
 1.9060	30.9371
 1.9050	31.2062
 1.9040	31.7165
 1.9030	32.0867
 1.9020	32.6937
 1.9010	33.1020
 1.9000	33.6638
 1.8990	34.1361
 1.8980	34.7483
 1.8970	35.1109
 1.8960	35.6821
 1.8950	36.0836
 1.8940	36.6858
 1.8930	37.1284
 1.8920	37.5268
 1.8910	37.9302
 1.8900	38.3803
 1.8890	38.8323
 1.8880	39.2412
 1.8870	39.6005
 1.8860	39.9363
 1.8850	40.2123
 1.8840	40.5978
 1.8830	40.8321
 1.8820	41.1984
 1.8810	41.3562
 1.8800	41.5915
 1.8790	41.8038
 1.8780	42.0363
 1.8770	42.1496
 1.8760	42.4826
 1.8750	42.5813
 1.8740	42.8246
 1.8730	43.0074
 1.8720	43.1885
 1.8710	43.3680
 1.8700	43.6365
 1.8690	43.7377
 1.8680	43.9299
 1.8670	43.9803
 1.8660	44.1158
 1.8650	44.0782
 1.8640	44.1993
 1.8630	44.3286
 1.8620	44.4270
 1.8610	44.4108
 1.8600	44.5366
 1.8590	44.4872
 1.8580	44.5534
 1.8570	44.6710
 1.8560	44.7143
 1.8550	44.6799
 1.8540	44.7601
 1.8530	44.8210
 1.8520	44.8508
 1.8510	44.8266
 1.8500	44.9071
 1.8490	44.9303
 1.8480	44.9776
 1.8470	44.9771
 1.8460	45.0336
 1.8450	44.9804
 1.8440	44.9306
 1.8430	44.9534
 1.8420	45.0291
 1.8410	45.0113
 1.8400	45.0540
 1.8390	45.0660
 1.8380	45.0890
 1.8370	45.0842
 1.8360	45.0946
 1.8350	45.0284
 1.8340	45.0925
 1.8330	45.1428
 1.8320	45.1113
 1.8310	45.0080
 1.8300	44.9929
 1.8290	44.9921
 1.8280	45.0805
 1.8270	45.0278
 1.8260	45.0107
 1.8250	44.9895
 1.8240	45.0176
 1.8230	44.9833
 1.8220	44.9879
 1.8210	44.9825
 1.8200	44.9712
 1.8190	44.9248
 1.8180	44.9110
 1.8170	44.9150
 1.8160	44.9188
 1.8150	44.9124
 1.8140	44.9059
 1.8130	44.8898
 1.8120	44.8909
 1.8110	44.8610
 1.8100	44.8994
 1.8090	44.8555
 1.8080	44.8158
 1.8070	44.7624
 1.8060	44.7528
 1.8050	44.7525
 1.8040	44.7719
 1.8030	44.7707
 1.8020	44.8259
 1.8010	44.7813
 1.8000	44.7034
 1.7990	44.6810
 1.7980	44.7080
 1.7970	44.7143
 1.7960	44.6838
 1.7950	44.5982
 1.7940	44.5711
 1.7930	44.5742
 1.7920	44.5711
 1.7910	44.5970
 1.7900	44.6262
 1.7890	44.5960
 1.7880	44.6088
 1.7870	44.5249
 1.7860	44.4738
 1.7850	44.5592
 1.7840	44.5425
 1.7830	44.4936
 1.7820	44.5241
 1.7810	44.4681
 1.7800	44.3923
 1.7790	44.3722
 1.7780	44.3726
 1.7770	44.3810
 1.7760	44.3622
 1.7750	44.3511
 1.7740	44.3710
 1.7730	44.4045
 1.7720	44.3206
 1.7710	44.2797
 1.7700	44.2981
 1.7690	44.2532
 1.7680	44.2495
 1.7670	44.2371
 1.7660	44.2465
 1.7650	44.2518
 1.7640	44.1968
 1.7630	44.1724
 1.7620	44.1427
 1.7610	44.1674
 1.7600	44.2319
 1.7590	44.2394
 1.7580	44.1554
 1.7570	44.2072
 1.7560	44.2131
 1.7550	44.1674
 1.7540	44.1042
 1.7530	44.1195
 1.7520	44.0808
 1.7510	44.0627
 1.7500	44.0704
 1.7490	44.0993
 1.7480	44.0903
 1.7470	44.0625
 1.7460	44.0111
 1.7450	44.0670
 1.7440	44.0269
 1.7430	44.0417
 1.7420	43.9859
 1.7410	44.0150
 1.7400	43.9616
 1.7390	43.9235
 1.7380	43.8983
 1.7370	43.9255
 1.7360	43.9179
 1.7350	43.8849
 1.7340	43.8131
 1.7330	43.8722
 1.7320	43.8434
 1.7310	43.8222
 1.7300	43.7635
 1.7290	43.8290
 1.7280	43.7589
 1.7270	43.7093
 1.7260	43.7245
 1.7250	43.7519
 1.7240	43.6467
 1.7230	43.6951
 1.7220	43.6848
 1.7210	43.6628
 1.7200	43.5425
 1.7190	43.5694
 1.7180	43.5067
 1.7170	43.5959
 1.7160	43.4972
 1.7150	43.5295
 1.7140	43.4651
 1.7130	43.4750
 1.7120	43.4363
 1.7110	43.4346
 1.7100	43.3032
 1.7090	43.3742
 1.7080	43.2807
 1.7070	43.3250
 1.7060	43.2285
 1.7050	43.3040
 1.7040	43.2378
 1.7030	43.2703
 1.7020	43.0967
 1.7010	43.1069
 1.7000	43.0885
 1.6990	43.1412
 1.6980	43.0201
 1.6970	43.0552
 1.6960	42.9982
 1.6950	43.0188
 1.6940	42.9235
 1.6930	42.9872
 1.6920	42.8806
 1.6910	42.9432
 1.6900	42.8623
 1.6890	42.8683
 1.6880	42.7777
 1.6870	42.8232
 1.6860	42.7402
 1.6850	42.6649
 1.6840	42.6582
 1.6830	42.6251
 1.6820	42.5716
 1.6810	42.6614
 1.6800	42.5018
 1.6790	42.5026
 1.6780	42.4566
 1.6770	42.4534
 1.6760	42.3821
 1.6750	42.3605
 1.6740	42.2257
 1.6730	42.3629
 1.6720	42.2691
 1.6710	42.3076
 1.6700	42.2279
 1.6690	42.2859
 1.6680	42.0488
 1.6670	42.1781
 1.6660	42.1128
 1.6650	42.0888
 1.6640	42.0541
 1.6630	42.0957
 1.6620	41.8502
 1.6610	41.9681
 1.6600	41.8807
 1.6590	41.9623
 1.6580	41.8027
 1.6570	41.8661
 1.6560	41.7332
 1.6550	41.7763
 1.6540	41.7201
 1.6530	41.7346
 1.6520	41.6121
 1.6510	41.6394
 1.6500	41.5179
 1.6490	41.5282
 1.6480	41.4763
 1.6470	41.4705
 1.6460	41.4190
 1.6450	41.5095
 1.6440	41.3929
 1.6430	41.4115
 1.6420	41.3529
 1.6410	41.2180
 1.6400	41.1995
 1.6390	41.2346
 1.6380	41.1499
 1.6370	41.1724
 1.6360	41.0692
 1.6350	41.1130
 1.6340	41.0203
 1.6330	41.0645
 1.6320	40.9496
 1.6310	41.0022
 1.6300	40.8361
 1.6290	40.9660
 1.6280	40.7195
 1.6270	40.7937
 1.6260	40.7551
 1.6250	40.7122
 1.6240	40.6131
 1.6230	40.5989
 1.6220	40.5696
 1.6210	40.6843
 1.6200	40.4675
 1.6190	40.5435
 1.6180	40.3867
 1.6170	40.4666
 1.6160	40.4243
 1.6150	40.3972
 1.6140	40.3025
 1.6130	40.3128
 1.6120	40.1958
 1.6110	40.1997
 1.6100	40.1279
 1.6090	40.1275
 1.6080	40.1012
 1.6070	40.0941
 1.6060	40.0566
 1.6050	40.0964
 1.6040	39.9536
 1.6030	40.0088
 1.6020	39.9076
 1.6010	39.8876
 1.6000	39.8053
 1.5990	39.7761
 1.5980	39.6787
 1.5970	39.7321
 1.5960	39.5914
 1.5950	39.6843
 1.5940	39.5096
 1.5930	39.6323
 1.5920	39.5336
 1.5910	39.4679
 1.5900	39.3563
 1.5890	39.3569
 1.5880	39.3555
 1.5870	39.3369
 1.5860	39.2212
 1.5850	39.1519
 1.5840	39.1238
 1.5830	39.1701
 1.5820	39.1417
 1.5810	39.0790
 1.5800	39.0029
 1.5790	39.0611
 1.5780	38.9646
 1.5770	38.9205
 1.5760	38.7967
 1.5750	38.8065
 1.5740	38.7411
 1.5730	38.7536
 1.5720	38.7400
 1.5710	38.7627
 1.5700	38.5996
 1.5690	38.5751
 1.5680	38.5592
 1.5670	38.5671
 1.5660	38.4999
 1.5650	38.3625
 1.5640	38.3026
 1.5630	38.4046
 1.5620	38.2916
 1.5610	38.2695
 1.5600	38.2676
 1.5590	38.2353
 1.5580	38.1529
 1.5570	38.0896
 1.5560	38.0450
 1.5550	38.0081
 1.5540	37.9816
 1.5530	37.9398
 1.5520	37.8572
 1.5510	37.8718
 1.5500	37.7876
 1.5490	37.7537
 1.5480	37.6653
 1.5470	37.6630
 1.5460	37.6297
 1.5450	37.5631
 1.5440	37.5074
 1.5430	37.4941
 1.5420	37.4280
 1.5410	37.4432
 1.5400	37.4060
 1.5390	37.3542
 1.5380	37.2026
 1.5370	37.1951
 1.5360	37.1812
 1.5350	37.1707
 1.5340	37.1448
 1.5330	37.0951
 1.5320	36.9753
 1.5310	36.9743
 1.5300	36.9361
 1.5290	36.8876
 1.5280	36.7604
 1.5270	36.7652
 1.5260	36.7113
 1.5250	36.6813
 1.5240	36.6634
 1.5230	36.6450
 1.5220	36.5401
 1.5210	36.4971
 1.5200	36.4356
 1.5190	36.3847
 1.5180	36.2949
 1.5170	36.2855
 1.5160	36.2191
 1.5150	36.2239
 1.5140	36.1431
 1.5130	36.0599
 1.5120	36.0555
 1.5110	35.9936
 1.5100	35.8771
 1.5090	35.8746
 1.5080	35.8520
 1.5070	35.7670
 1.5060	35.6993
 1.5050	35.6720
 1.5040	35.6325
 1.5030	35.5799
 1.5020	35.5149
 1.5010	35.4238
 1.5000	35.3917
 1.4990	35.3894
 1.4980	35.3110
 1.4970	35.2368
 1.4960	35.1982
 1.4950	35.1210
 1.4940	35.0757
 1.4930	35.0297
 1.4920	34.9715
 1.4910	34.8837
 1.4900	34.8064
 1.4890	34.7798
 1.4880	34.7424
 1.4870	34.6613
 1.4860	34.5867
 1.4850	34.5250
 1.4840	34.4564
 1.4830	34.3613
 1.4820	34.3454
 1.4810	34.2502
 1.4800	34.1912
 1.4790	34.0963
 1.4780	34.0142
 1.4770	33.9331
 1.4760	33.8829
 1.4750	33.8163
 1.4740	33.7777
 1.4730	33.6861
 1.4720	33.6797
 1.4710	33.5852
 1.4700	33.5193
 1.4690	33.4803
 1.4680	33.4204
 1.4670	33.3019
 1.4660	33.2528
 1.4650	33.1573
 1.4640	33.1251
 1.4630	33.1598
 1.4620	33.0913
 1.4610	32.9124
 1.4600	32.8966
 1.4590	32.8723
 1.4580	32.8036
 1.4570	32.6729
 1.4560	32.6553
 1.4550	32.5681
 1.4540	32.4775
 1.4530	32.4212
 1.4520	32.4017
 1.4510	32.3707
 1.4500	32.2472
 1.4490	32.1690
 1.4480	32.0712
 1.4470	32.0278
 1.4460	32.0370
 1.4450	31.8251
 1.4440	31.8267
 1.4430	31.7393
 1.4420	31.6717
 1.4410	31.5930
 1.4400	31.5916
 1.4390	31.4719
 1.4380	31.4282
 1.4370	31.4040
 1.4360	31.3701
 1.4350	31.2905
 1.4340	31.1934
 1.4330	31.1011
 1.4320	31.1639
 1.4310	31.0790
 1.4300	31.0979
 1.4290	30.9991
 1.4280	30.9979
 1.4270	31.0039
 1.4260	30.9241
 1.4250	30.8193
 1.4240	30.8225
 1.4230	30.7700
 1.4220	30.7335
 1.4210	30.6505
 1.4200	30.6380
 1.4190	30.5498
 1.4180	30.5477
 1.4170	30.3434
 1.4160	30.3987
 1.4150	30.3219
 1.4140	30.2414
 1.4130	30.1163
 1.4120	30.1198
 1.4110	30.1096
 1.4100	30.1817
 1.4090	30.1068
 1.4080	30.2295
 1.4070	30.1375
 1.4060	30.2365
 1.4050	30.1325
 1.4040	30.1451
 1.4030	30.0942
 1.4020	30.2023
 1.4010	30.2810
 1.4000	30.4252
 1.3990	30.4567
 1.3980	30.6255
 1.3970	30.7699
 1.3960	30.9334
 1.3950	30.9750
 1.3940	31.1540
 1.3930	31.2596
 1.3920	31.4106
 1.3910	31.4954
 1.3900	31.6679
 1.3890	31.6859
 1.3880	31.9340
 1.3870	31.8848
 1.3860	32.0336
 1.3850	32.0154
 1.3840	32.1643
 1.3830	32.0371
 1.3820	32.1622
 1.3810	32.0784
 1.3800	32.0676
 1.3790	32.1172
 1.3780	32.1677
 1.3770	32.1442
 1.3760	32.0844
 1.3750	31.9358
 1.3740	31.9827
 1.3730	31.9347
 1.3720	31.9109
 1.3710	31.8155
 1.3700	31.8812
 1.3690	31.7903
 1.3680	31.7937
 1.3670	31.6699
 1.3660	31.7857
 1.3650	31.5773
 1.3640	31.5984
 1.3630	31.6510
 1.3620	31.5516
 1.3610	31.4615
 1.3600	31.5163
 1.3590	31.4417
 1.3580	31.4388
 1.3570	31.3005
 1.3560	31.4294
 1.3550	31.1523
 1.3540	31.2691
 1.3530	31.0764
 1.3520	31.1623
 1.3510	31.0677
 1.3500	31.0506
 1.3490	30.9894
 1.3480	30.9440
 1.3470	30.7976
 1.3460	30.8963
 1.3450	30.8039
 1.3440	30.8735
 1.3430	30.5852
 1.3420	30.7032
 1.3410	30.7113
 1.3400	30.6452
 1.3390	30.5698
 1.3380	30.5334
 1.3370	30.4277
 1.3360	30.3649
 1.3350	30.3535
 1.3340	30.3671
 1.3330	30.2171
 1.3320	30.3184
 1.3310	30.1995
 1.3300	30.2293
 1.3290	30.1039
 1.3280	30.1661
 1.3270	30.0288
 1.3260	30.0556
 1.3250	29.8849
 1.3240	29.9407
 1.3230	29.8027
 1.3220	29.8393
 1.3210	29.7333
 1.3200	29.7097
 1.3190	29.6242
 1.3180	29.6293
 1.3170	29.4579
 1.3160	29.5836
 1.3150	29.4369
 1.3140	29.3909
 1.3130	29.2982
 1.3120	29.3515
 1.3110	29.2507
 1.3100	29.2770
 1.3090	29.2236
 1.3080	29.2080
 1.3070	29.1077
 1.3060	29.0688
 1.3050	28.9802
 1.3040	28.9427
 1.3030	28.9172
 1.3020	28.8597
 1.3010	28.7978
 1.3000	28.8597
 1.2990	28.6751
 1.2980	28.7356
 1.2970	28.6573
 1.2960	28.6225
 1.2950	28.5150
 1.2940	28.4978
 1.2930	28.4319
 1.2920	28.4248
 1.2910	28.3554
 1.2900	28.3787
 1.2890	28.3041
 1.2880	28.2441
 1.2870	28.1657
 1.2860	28.1612
 1.2850	28.0604
 1.2840	28.0788
 1.2830	27.9373
 1.2820	28.0184
 1.2810	27.8326
 1.2800	27.8240
 1.2790	27.8065
 1.2780	27.8195
 1.2770	27.7547
 1.2760	27.7359
 1.2750	27.6127
 1.2740	27.6074
 1.2730	27.4988
 1.2720	27.5642
 1.2710	27.4267
 1.2700	27.4346
 1.2690	27.3541
 1.2680	27.3649
 1.2670	27.2993
 1.2660	27.2242
 1.2650	27.1273
 1.2640	27.2017
 1.2630	27.0762
 1.2620	27.0324
 1.2610	26.9662
 1.2600	26.9588
 1.2590	26.8912
 1.2580	26.8808
 1.2570	26.7747
 1.2560	26.7766
 1.2550	26.7165
 1.2540	26.6907
 1.2530	26.6327
 1.2520	26.6436
 1.2510	26.5782
 1.2500	26.5288
 1.2490	26.4163
 1.2480	26.4183
 1.2470	26.4309
 1.2460	26.3844
 1.2450	26.2946
 1.2440	26.2934
 1.2430	26.2484
 1.2420	26.2439
 1.2410	26.1719
 1.2400	26.1314
 1.2390	26.0990
 1.2380	26.0738
 1.2370	25.9526
 1.2360	25.8743
 1.2350	25.8224
 1.2340	25.8186
 1.2330	25.8006
 1.2320	25.8218
 1.2310	25.7686
 1.2300	25.6846
 1.2290	25.5773
 1.2280	25.5726
 1.2270	25.5619
 1.2260	25.4940
 1.2250	25.4340
 1.2240	25.3942
 1.2230	25.3564
 1.2220	25.3258
 1.2210	25.2537
 1.2200	25.2348
 1.2190	25.1741
 1.2180	25.0904
 1.2170	25.0560
 1.2160	25.0534
 1.2150	24.9824
 1.2140	24.9269
 1.2130	24.9168
 1.2120	24.8879
 1.2110	24.8599
 1.2100	24.7929
 1.2090	24.7915
 1.2080	24.7511
 1.2070	24.6847
 1.2060	24.6247
 1.2050	24.6201
 1.2040	24.6015
 1.2030	24.5550
 1.2020	24.4316
 1.2010	24.4362
 1.2000	24.3743
 1.1990	24.3384
 1.1980	24.3003
 1.1970	24.2684
 1.1960	24.2461
 1.1950	24.1748
 1.1940	24.1302
 1.1930	24.1423
 1.1920	24.0863
 1.1910	24.0646
 1.1900	24.0543
 1.1890	24.0077
 1.1880	23.8348
 1.1870	23.8848
 1.1860	23.8720
 1.1850	23.8192
 1.1840	23.7855
 1.1830	23.7993
 1.1820	23.7315
 1.1810	23.7275
 1.1800	23.6408
 1.1790	23.5927
 1.1780	23.5637
 1.1770	23.5349
 1.1760	23.4592
 1.1750	23.5055
 1.1740	23.4128
 1.1730	23.3816
 1.1720	23.3016
 1.1710	23.2895
 1.1700	23.2857
 1.1690	23.2811
 1.1680	23.1200
 1.1670	23.1611
 1.1660	23.1384
 1.1650	23.1117
 1.1640	23.0445
 1.1630	23.0647
 1.1620	22.9607
 1.1610	23.0076
 1.1600	22.9409
 1.1590	22.9292
 1.1580	22.8475
 1.1570	22.8027
 1.1560	22.8362
 1.1550	22.8673
 1.1540	22.7730
 1.1530	22.7672
 1.1520	22.6908
 1.1510	22.7014
 1.1500	22.5948
 1.1490	22.6808
 1.1480	22.6550
 1.1470	22.6149
 1.1460	22.5641
 1.1450	22.5595
 1.1440	22.4561
 1.1430	22.5011
 1.1420	22.4207
 1.1410	22.3742
 1.1400	22.3794
 1.1390	22.3977
 1.1380	22.2892
 1.1370	22.4232
 1.1360	22.2873
 1.1350	22.2651
 1.1340	22.2084
 1.1330	22.2407
 1.1320	22.1536
 1.1310	22.2259
 1.1300	22.1689
 1.1290	22.1204
 1.1280	21.9804
 1.1270	22.1587
 1.1260	22.0528
 1.1250	22.0290
 1.1240	21.9824
 1.1230	22.0607
 1.1220	21.9066
 1.1210	21.9935
 1.1200	21.8810
 1.1190	21.9103
 1.1180	21.8530
 1.1170	21.9134
 1.1160	21.8374
 1.1150	21.8953
 1.1140	21.8060
 1.1130	21.8791
 1.1120	21.6451
 1.1110	21.8337
 1.1100	21.6274
 1.1090	21.7560
 1.1080	21.6235
 1.1070	21.6964
 1.1060	21.5553
 1.1050	21.7594
 1.1040	21.5772
 1.1030	21.6217
 1.1020	21.5255
 1.1010	21.5890
 1.1000	21.5518
 1.0990	21.6404
 1.0980	21.4991
 1.0970	21.5794
 1.0960	21.4207
 1.0950	21.4784
 1.0940	21.3816
 1.0930	21.4673
 1.0920	21.3520
 1.0910	21.4760
 1.0900	21.3173
 1.0890	21.4098
 1.0880	21.2742
 1.0870	21.4228
 1.0860	21.3069
 1.0850	21.3273
 1.0840	21.2550
 1.0830	21.3579
 1.0820	21.2415
 1.0810	21.2762
 1.0800	21.2746
 1.0790	21.2759
 1.0780	21.2020
 1.0770	21.3276
 1.0760	21.2119
 1.0750	21.2781
 1.0740	21.1948
 1.0730	21.2940
 1.0720	21.0371
 1.0710	21.2707
 1.0700	20.9369
 1.0690	21.2890
 1.0680	21.0825
 1.0670	21.2461
 1.0660	21.0704
 1.0650	21.1217
 1.0640	21.1190
 1.0630	21.2031
 1.0620	21.0067
 1.0610	21.1329
 1.0600	21.0350
 1.0590	21.1980
 1.0580	21.0305
 1.0570	21.1671
 1.0560	20.9811
 1.0550	21.0495
 1.0540	20.9883
 1.0530	21.1039
 1.0520	20.9654
 1.0510	21.1011
 1.0500	21.0485
 1.0490	21.1002
 1.0480	20.9450
 1.0470	21.0774
 1.0460	20.9355
 1.0450	21.0501
 1.0440	20.9253
 1.0430	21.0218
 1.0420	20.9253
 1.0410	21.0332
 1.0400	20.9390
 1.0390	21.0299
 1.0380	20.8065
 1.0370	21.0032
 1.0360	20.8827
 1.0350	21.0420
 1.0340	20.8570
 1.0330	20.9728
 1.0320	20.9692
 1.0310	20.9986
 1.0300	20.7976
 1.0290	20.9730
 1.0280	20.9019
 1.0270	20.9729
 1.0260	20.7710
 1.0250	20.9201
 1.0240	20.8719
 1.0230	20.9184
 1.0220	20.8388
 1.0210	20.8786
 1.0200	20.8665
 1.0190	21.0222
 1.0180	20.8553
 1.0170	20.9254
 1.0160	20.7693
 1.0150	20.8897
 1.0140	20.8904
 1.0130	20.8403
 1.0120	20.7583
 1.0110	20.8675
 1.0100	20.8033
 1.0090	20.8559
 1.0080	20.7821
 1.0070	20.8508
 1.0060	20.8266
 1.0050	20.7876
 1.0040	20.7882
 1.0030	20.8726
 1.0020	20.7304
 1.0010	20.7460
 1.0000	20.7821
 0.9990	20.8319
 0.9980	20.7240
 0.9970	20.8130
 0.9960	20.7446
 0.9950	20.7741
 0.9940	20.7281
 0.9930	20.7094
 0.9920	20.6452
 0.9910	20.6892
 0.9900	20.6076
 0.9890	20.7490
 0.9880	20.6502
 0.9870	20.6954
 0.9860	20.6453
 0.9850	20.6494
 0.9840	20.6895
 0.9830	20.6647
 0.9820	20.5910
 0.9810	20.5831
 0.9800	20.5807
 0.9790	20.6282
 0.9780	20.5006
 0.9770	20.5451
 0.9760	20.5725
 0.9750	20.6039
 0.9740	20.5379
 0.9730	20.5762
 0.9720	20.5027
 0.9710	20.4987
 0.9700	20.4549
 0.9690	20.5394
 0.9680	20.4981
 0.9670	20.4062
 0.9660	20.3788
 0.9650	20.4309
 0.9640	20.3995
 0.9630	20.3823
 0.9620	20.3036
 0.9610	20.3798
 0.9600	20.3474
 0.9590	20.3513
 0.9580	20.3473
 0.9570	20.2721
 0.9560	20.2500
 0.9550	20.2928
 0.9540	20.3007
 0.9530	20.2624
 0.9520	20.2306
 0.9510	20.2543
 0.9500	20.1863
 0.9490	20.1927
 0.9480	20.1703
 0.9470	20.1769
 0.9460	20.1552
 0.9450	20.0707
 0.9440	20.0799
 0.9430	20.1118
 0.9420	20.0417
 0.9410	20.0986
 0.9400	20.0688
 0.9390	20.0457
 0.9380	20.0596
 0.9370	20.0383
 0.9360	19.9715
 0.9350	19.9809
 0.9340	20.0289
 0.9330	20.0181
 0.9320	19.9667
 0.9310	19.9307
 0.9300	19.9003
 0.9290	19.8969
 0.9280	19.8716
 0.9270	19.8694
 0.9260	19.8742
 0.9250	19.8281
 0.9240	19.8427
 0.9230	19.8321
 0.9220	19.8244
 0.9210	19.8057
 0.9200	19.7986
 0.9190	19.7822
 0.9180	19.7685
 0.9170	19.6969
 0.9160	19.6805
 0.9150	19.6904
 0.9140	19.7393
 0.9130	19.7350
 0.9120	19.7463
 0.9110	19.6795
 0.9100	19.6629
 0.9090	19.6628
 0.9080	19.6952
 0.9070	19.6841
 0.9060	19.6412
 0.9050	19.6226
 0.9040	19.6888
 0.9030	19.5767
 0.9020	19.6074
 0.9010	19.6242
 0.9000	19.6692
 0.8990	19.6180
 0.8980	19.6445
 0.8970	19.6254
 0.8960	19.6485
 0.8950	19.6229
 0.8940	19.6357
 0.8930	19.5500
 0.8920	19.5970
 0.8910	19.6565
 0.8900	19.6694
 0.8890	19.5426
 0.8880	19.5847
 0.8870	19.5842
 0.8860	19.6230
 0.8850	19.5586
 0.8840	19.5892
 0.8830	19.5723
 0.8820	19.6469
 0.8810	19.5991
 0.8800	19.6495
 0.8790	19.5639
 0.8780	19.6382
 0.8770	19.6256
 0.8760	19.7025
 0.8750	19.6047
 0.8740	19.7380
 0.8730	19.6854
 0.8720	19.7136
 0.8710	19.6930
 0.8700	19.7643
 0.8690	19.7190
 0.8680	19.7772
 0.8670	19.7456
 0.8660	19.8423
 0.8650	19.7977
 0.8640	19.8822
 0.8630	19.8199
 0.8620	19.8804
 0.8610	19.9044
 0.8600	20.1980
 0.8590	20.2945
 0.8580	20.3536
 0.8570	20.3567
 0.8560	20.3595
 0.8550	20.3844
 0.8540	20.3967
 0.8530	20.3812
 0.8520	20.4179
 0.8510	20.4267
 0.8500	20.4192
 0.8490	20.4416
 0.8480	20.4310
 0.8470	20.4339
 0.8460	20.4368
 0.8450	20.4496
 0.8440	20.4820
 0.8430	20.4874
 0.8420	20.5050
 0.8410	20.4916
 0.8400	20.5127
 0.8390	20.5440
 0.8380	20.5454
 0.8370	20.5625
 0.8360	20.5614
 0.8350	20.5992
 0.8340	20.6095
 0.8330	20.5986
 0.8320	20.6074
 0.8310	20.6350
 0.8300	20.6283
 0.8290	20.6469
 0.8280	20.6397
 0.8270	20.6558
 0.8260	20.6752
 0.8250	20.6902
 0.8240	20.6886
 0.8230	20.7151
 0.8220	20.7040
 0.8210	20.6949
 0.8200	20.7230
 0.8190	20.7306
 0.8180	20.7128
 0.8170	20.7185
 0.8160	20.7121
 0.8150	20.7357
 0.8140	20.7271
 0.8130	20.7297
 0.8120	20.7273
 0.8110	20.7426
 0.8100	20.7276
 0.8090	20.7213
 0.8080	20.7372
 0.8070	20.7208
 0.8060	20.7126
 0.8050	20.7179
 0.8040	20.7188
 0.8030	20.7009
 0.8020	20.6890
 0.8010	20.6782
 0.8000	20.6636
 0.7990	20.6463
 0.7980	20.6269
 0.7970	20.5982
 0.7960	20.5870
 0.7950	20.5708
 0.7940	20.5564
 0.7930	20.5275
 0.7920	20.5079
 0.7910	20.4760
 0.7900	20.4727
 0.7890	20.4533
 0.7880	20.4132
 0.7870	20.3963
 0.7860	20.3791
 0.7850	20.3606
 0.7840	20.3312
 0.7830	20.3052
 0.7820	20.2562
 0.7810	20.2376
 0.7800	20.1923
 0.7790	20.1658
 0.7780	20.1379
 0.7770	20.1072
 0.7760	20.0703
 0.7750	20.0361
 0.7740	20.0179
 0.7730	19.9701
 0.7720	19.9394
 0.7710	19.8985
 0.7700	19.8582
 0.7690	19.8354
 0.7680	19.7881
 0.7670	19.7576
 0.7660	19.7306
 0.7650	19.6974
 0.7640	19.6588
 0.7630	19.6098
 0.7620	19.5752
 0.7610	19.5478
 0.7600	19.5019
 0.7590	19.4704
 0.7580	19.4391
 0.7570	19.3928
 0.7560	19.3586
 0.7550	19.3149
 0.7540	19.2740
 0.7530	19.2451
 0.7520	19.1997
 0.7510	19.1636
 0.7500	19.1386
 0.7490	19.1072
 0.7480	19.0809
 0.7470	19.0590
 0.7460	19.0279
 0.7450	18.9924
 0.7440	18.9612
 0.7430	18.9306
 0.7420	18.8937
 0.7410	18.8552
 0.7400	18.8216
 0.7390	18.7889
 0.7380	18.7573
 0.7370	18.7278
 0.7360	18.6828
 0.7350	18.6498
 0.7340	18.6212
 0.7330	18.5867
 0.7320	18.5640
 0.7310	18.5368
 0.7300	18.5013
 0.7290	18.4753
 0.7280	18.4453
 0.7270	18.4090
 0.7260	18.3873
 0.7250	18.3602
 0.7240	18.3264
 0.7230	18.3009
 0.7220	18.2731
 0.7210	18.2436
 0.7200	18.2127
 0.7190	18.1899
 0.7180	18.1680
 0.7170	18.1423
 0.7160	18.1238
 0.7150	18.0993
 0.7140	18.0838
 0.7130	18.0548
 0.7120	18.0321
 0.7110	18.0098
 0.7100	17.9845
 0.7090	17.9638
 0.7080	17.9446
 0.7070	17.9201
 0.7060	17.8911
 0.7050	17.8702
 0.7040	17.8514
 0.7030	17.8297
 0.7020	17.8188
 0.7010	17.7976
 0.7000	17.7759
 0.6990	17.7609
 0.6980	17.7419
 0.6970	17.7194
 0.6960	17.7075
 0.6950	17.6927
 0.6940	17.6773
 0.6930	17.6614
 0.6920	17.6419
 0.6910	17.6213
 0.6900	17.6056
 0.6890	17.5897
 0.6880	17.5732
 0.6870	17.5583
 0.6860	17.5425
 0.6850	17.5322
 0.6840	17.5141
 0.6830	17.5001
 0.6820	17.4851
 0.6810	17.4674
 0.6800	17.4552
 0.6790	17.4378
 0.6780	17.4190
 0.6770	17.4031
 0.6760	17.3839
 0.6750	17.3726
 0.6740	17.3598
 0.6730	17.3399
 0.6720	17.3272
 0.6710	17.3125
 0.6700	17.3044
 0.6690	17.2885
 0.6680	17.2698
 0.6670	17.2507
 0.6660	17.2333
 0.6650	17.2177
 0.6640	17.2044
 0.6630	17.1888
 0.6620	17.1782
 0.6610	17.1638
 0.6600	17.1443
 0.6590	17.1294
 0.6580	17.1123
 0.6570	17.0989
 0.6560	17.0873
 0.6550	17.0686
 0.6540	17.0509
 0.6530	17.0393
 0.6520	17.0251
 0.6510	17.0029
 0.6500	16.9859
 0.6490	16.9708
 0.6480	16.9524
 0.6470	16.9374
 0.6460	16.9227
 0.6450	16.9043
 0.6440	16.8878
 0.6430	16.8701
 0.6420	16.8507
 0.6410	16.8323
 0.6400	16.8143
 0.6390	16.8019
 0.6380	16.7871
 0.6370	16.7670
 0.6360	16.7501
 0.6350	16.7329
 0.6340	16.7122
 0.6330	16.6911
 0.6320	16.6734
 0.6310	16.6536
 0.6300	16.6338
 0.6290	16.6182
 0.6280	16.6008
 0.6270	16.5823
 0.6260	16.5642
 0.6250	16.5439
 0.6240	16.5245
 0.6230	16.5032
 0.6220	16.4864
 0.6210	16.4668
 0.6200	16.4464
 0.6190	16.4291
 0.6180	16.4089
 0.6170	16.3882
 0.6160	16.3716
 0.6150	16.3504
 0.6140	16.3272
 0.6130	16.3097
 0.6120	16.2903
 0.6110	16.2705
 0.6100	16.2532
 0.6090	16.2363
 0.6080	16.2137
 0.6070	16.1935
 0.6060	16.1766
 0.6050	16.1562
 0.6040	16.1348
 0.6030	16.1146
 0.6020	16.0925
 0.6010	16.0729
 0.6000	16.0540
 0.5990	16.0377
 0.5980	16.0216
 0.5970	16.0053
 0.5960	15.9880
 0.5950	15.9697
 0.5940	15.9511
 0.5930	15.9361
 0.5920	15.9139
 0.5910	15.8902
 0.5900	15.8693
 0.5890	15.8492
 0.5880	15.8318
 0.5870	15.8095
 0.5860	15.7869
 0.5850	15.7681
 0.5840	15.7455
 0.5830	15.7243
 0.5820	15.7063
 0.5810	15.6840
 0.5800	15.6597
 0.5790	15.6407
 0.5780	15.6222
 0.5770	15.6007
 0.5760	15.5766
 0.5750	15.5515
 0.5740	15.5307
 0.5730	15.5041
 0.5720	15.4847
 0.5710	15.4616
 0.5700	15.4361
 0.5690	15.4117
 0.5680	15.3894
 0.5670	15.3622
 0.5660	15.3408
 0.5650	15.3140
 0.5640	15.2870
 0.5630	15.2646
 0.5620	15.2404
 0.5610	15.1983
 0.5600	15.1641
 0.5590	15.1369
 0.5580	15.1073
 0.5570	15.0786
 0.5560	15.0445
 0.5550	15.0133
 0.5540	14.9768
 0.5530	14.9457
 0.5520	14.9105
 0.5510	14.8692
 0.5500	14.8335
 0.5490	14.7921
 0.5480	14.7568
 0.5470	14.7130
 0.5460	14.6722
 0.5450	14.6293
 0.5440	14.5845
 0.5430	14.5351
 0.5420	14.4912
 0.5410	14.4422
 0.5400	14.3917
 0.5390	14.3406
 0.5380	14.2902
 0.5370	14.2376
 0.5360	14.1813
 0.5350	14.1214
 0.5340	14.0636
 0.5330	14.0051
 0.5320	13.9430
 0.5310	13.8806
 0.5300	13.8157
 0.5290	13.7513
 0.5280	13.6832
 0.5270	13.6160
 0.5260	13.5490
 0.5250	13.4831
 0.5240	13.4078
 0.5230	13.3339
 0.5220	13.2620
 0.5210	13.1921
 0.5200	13.1104
 0.5190	13.0337
 0.5180	12.9560
 0.5170	12.8754
 0.5160	12.7935
 0.5150	12.7086
 0.5140	12.6247
 0.5130	12.5399
 0.5120	12.4516
 0.5110	12.3631
 0.5100	12.2784
 0.5090	12.1911
 0.5080	12.1054
 0.5070	12.0237
 0.5060	11.9346
 0.5050	11.8476
 0.5040	11.7635
 0.5030	11.6714
 0.5020	11.5862
 0.5010	11.5033
 0.5000	11.4197
 0.4990	11.3405
 0.4980	11.2582
 0.4970	11.1831
 0.4960	11.1065
 0.4950	11.0239
 0.4940	10.9559
 0.4930	10.8884
 0.4920	10.8198
 0.4910	10.7577
 0.4900	10.6907
 0.4890	10.6340
 0.4880	10.5757
 0.4870	10.5188
 0.4860	10.4602
 0.4850	10.4057
 0.4840	10.3533
 0.4830	10.3078
 0.4820	10.2604
 0.4810	10.2238
 0.4800	10.1877
 0.4790	10.1527
 0.4780	10.1206
 0.4770	10.0906
 0.4760	10.0594
 0.4750	10.0254
 0.4740	 9.9932
 0.4730	 9.9635
 0.4720	 9.9352
 0.4710	 9.9082
 0.4700	 9.8826
 0.4690	 9.8608
 0.4680	 9.8317
 0.4670	 9.8125
 0.4660	 9.7898
 0.4650	 9.7703
 0.4640	 9.7543
 0.4630	 9.7364
 0.4620	 9.7165
 0.4610	 9.6980
 0.4600	 9.6760
 0.4590	 9.6547
 0.4580	 9.6272
 0.4570	 9.5995
 0.4560	 9.5759
 0.4550	 9.5525
 0.4540	 9.5132
 0.4530	 9.4802
 0.4520	 9.4464
 0.4510	 9.4067
 0.4500	 9.3645
 0.4490	 9.3163
 0.4480	 9.2672
 0.4470	 9.2137
 0.4460	 9.1545
 0.4450	 9.0913
 0.4440	 9.0269
 0.4430	 8.9736
 0.4420	 8.9091
 0.4410	 8.8391
 0.4400	 8.7650
 0.4390	 8.6910
 0.4380	 8.6125
 0.4370	 8.5382
 0.4360	 8.4609
 0.4350	 8.3827
 0.4340	 8.3064
 0.4330	 8.2295
 0.4320	 8.1611
 0.4310	 8.0916
 0.4300	 8.0243
 0.4290	 7.9567
 0.4280	 7.8888
 0.4270	 7.8268
 0.4260	 7.7707
 0.4250	 7.7179
 0.4240	 7.6640
 0.4230	 7.6056
 0.4220	 7.5603
 0.4210	 7.5186
 0.4200	 7.4768
 0.4190	 7.4359
 0.4180	 7.3980
 0.4170	 7.3595
 0.4160	 7.3294
 0.4150	 7.2926
 0.4140	 7.2630
 0.4130	 7.2320
 0.4120	 7.2027
 0.4110	 7.1755
 0.4100	 7.1484
 0.4090	 7.1196
 0.4080	 7.0889
 0.4070	 7.0629
 0.4060	 7.0361
 0.4050	 7.0128
 0.4040	 6.9820
 0.4030	 6.9516
 0.4020	 6.9280
 0.4010	 6.9015
 0.4000	 6.8686
