Name: Hemimorphite Zn_4Si_2O_7(OH)_2.H_2O
Type: Mineral
Class: Silicate
Subclass: Sorosilicate
Particle Size: Medium
Sample No.: SS-2A
Owner: JPL
Wavelength Range: VSWIR
Origin: Mexico, Durango, Ojuela Mine.
Collection Date: N/A
Description: Particle size was 45-125um. Collected by:  Burminco Original ASTER Spectral Library name was jpl.perkin.mineral.silicate.sorosilicate.medium.ss02a.spectrum.txt
Measurement: Hemispherical reflectance
First Column: X
Second Column: Y
X Units: Wavelength (micrometers)
Y Units:Reflectance (percent)
First X Value:  2.5000
Last X Value:  0.4000
Number of X Values: 2101
Additional Information: mineral.silicate.sorosilicate.medium.vswir.ss-2a.jpl.perkin.ancillary.txt

 2.5000	21.7940
 2.4990	21.5558
 2.4980	21.9069
 2.4970	22.2166
 2.4960	21.7252
 2.4950	22.4009
 2.4940	22.2596
 2.4930	22.4785
 2.4920	22.6670
 2.4910	22.9707
 2.4900	22.9245
 2.4890	23.2064
 2.4880	23.1900
 2.4870	23.5227
 2.4860	23.3908
 2.4850	23.8656
 2.4840	23.6490
 2.4830	24.0215
 2.4820	23.9134
 2.4810	24.3034
 2.4800	24.1869
 2.4790	24.4250
 2.4780	24.3978
 2.4770	24.7784
 2.4760	24.7761
 2.4750	24.9671
 2.4740	24.9663
 2.4730	25.1295
 2.4720	25.2339
 2.4710	25.5687
 2.4700	25.5239
 2.4690	25.6840
 2.4680	25.8428
 2.4670	25.9078
 2.4660	26.0007
 2.4650	26.2584
 2.4640	26.2504
 2.4630	26.3659
 2.4620	26.3851
 2.4610	26.5683
 2.4600	26.5067
 2.4590	26.9029
 2.4580	26.7950
 2.4570	27.0181
 2.4560	26.8693
 2.4550	27.2566
 2.4540	27.1688
 2.4530	27.4047
 2.4520	27.3050
 2.4510	27.6357
 2.4500	27.4905
 2.4490	27.6995
 2.4480	27.7816
 2.4470	27.8266
 2.4460	27.8723
 2.4450	28.0072
 2.4440	27.9698
 2.4430	28.2636
 2.4420	28.2449
 2.4410	28.3918
 2.4400	28.2905
 2.4390	28.4439
 2.4380	28.5178
 2.4370	28.6369
 2.4360	28.6630
 2.4350	28.8972
 2.4340	28.8727
 2.4330	29.0422
 2.4320	29.0173
 2.4310	29.1773
 2.4300	29.1532
 2.4290	29.3176
 2.4280	29.2602
 2.4270	29.5262
 2.4260	29.5710
 2.4250	29.6639
 2.4240	29.6661
 2.4230	29.8921
 2.4220	29.9103
 2.4210	30.0507
 2.4200	30.1010
 2.4190	30.3004
 2.4180	30.3244
 2.4170	30.4666
 2.4160	30.5458
 2.4150	30.6553
 2.4140	30.6488
 2.4130	30.7874
 2.4120	30.9152
 2.4110	31.0789
 2.4100	31.1008
 2.4090	31.2367
 2.4080	31.2628
 2.4070	31.4629
 2.4060	31.4719
 2.4050	31.6471
 2.4040	31.7964
 2.4030	31.9367
 2.4020	32.0316
 2.4010	32.1212
 2.4000	32.1459
 2.3990	32.3588
 2.3980	32.3957
 2.3970	32.4750
 2.3960	32.6072
 2.3950	32.8042
 2.3940	32.8501
 2.3930	32.9636
 2.3920	33.1097
 2.3910	33.2114
 2.3900	33.4117
 2.3890	33.5727
 2.3880	33.5898
 2.3870	33.7518
 2.3860	33.8823
 2.3850	33.9666
 2.3840	34.0892
 2.3830	34.3215
 2.3820	34.4683
 2.3810	34.6112
 2.3800	34.7004
 2.3790	34.8583
 2.3780	35.0239
 2.3770	35.2477
 2.3760	35.4318
 2.3750	35.6596
 2.3740	35.8374
 2.3730	36.0477
 2.3720	36.2017
 2.3710	36.4379
 2.3700	36.6441
 2.3690	36.8588
 2.3680	37.1086
 2.3670	37.3271
 2.3660	37.5571
 2.3650	37.8058
 2.3640	38.0785
 2.3630	38.3813
 2.3620	38.6082
 2.3610	38.8596
 2.3600	39.1917
 2.3590	39.4456
 2.3580	39.6268
 2.3570	39.9411
 2.3560	40.2846
 2.3550	40.6020
 2.3540	40.9516
 2.3530	41.2052
 2.3520	41.4505
 2.3510	41.7452
 2.3500	42.1040
 2.3490	42.4272
 2.3480	42.6970
 2.3470	43.0093
 2.3460	43.3021
 2.3450	43.5803
 2.3440	43.8854
 2.3430	44.1369
 2.3420	44.4275
 2.3410	44.7286
 2.3400	45.0060
 2.3390	45.2349
 2.3380	45.5188
 2.3370	45.7674
 2.3360	46.0455
 2.3350	46.2726
 2.3340	46.4786
 2.3330	46.6811
 2.3320	46.9212
 2.3310	47.1367
 2.3300	47.3188
 2.3290	47.4662
 2.3280	47.6568
 2.3270	47.8173
 2.3260	48.0380
 2.3250	48.2208
 2.3240	48.4244
 2.3230	48.5635
 2.3220	48.7381
 2.3210	48.8913
 2.3200	49.0543
 2.3190	49.1744
 2.3180	49.4022
 2.3170	49.5056
 2.3160	49.6011
 2.3150	49.7388
 2.3140	49.9183
 2.3130	50.0211
 2.3120	50.1579
 2.3110	50.2721
 2.3100	50.3930
 2.3090	50.4102
 2.3080	50.5683
 2.3070	50.6465
 2.3060	50.7479
 2.3050	50.8724
 2.3040	50.9509
 2.3030	50.9666
 2.3020	51.0994
 2.3010	51.1674
 2.3000	51.2916
 2.2990	51.3360
 2.2980	51.3693
 2.2970	51.4226
 2.2960	51.5071
 2.2950	51.5293
 2.2940	51.6105
 2.2930	51.6629
 2.2920	51.7370
 2.2910	51.7005
 2.2900	51.7689
 2.2890	51.8646
 2.2880	51.8838
 2.2870	51.8904
 2.2860	51.8984
 2.2850	51.9233
 2.2840	52.0326
 2.2830	52.0125
 2.2820	52.0292
 2.2810	52.0400
 2.2800	52.0766
 2.2790	52.1178
 2.2780	52.0817
 2.2770	52.0344
 2.2760	52.2000
 2.2750	52.1582
 2.2740	52.0672
 2.2730	52.0857
 2.2720	52.1819
 2.2710	52.1241
 2.2700	52.0992
 2.2690	52.0841
 2.2680	52.0462
 2.2670	51.9932
 2.2660	51.9920
 2.2650	51.9292
 2.2640	51.9885
 2.2630	51.9066
 2.2620	51.9607
 2.2610	51.8038
 2.2600	51.8280
 2.2590	51.7795
 2.2580	51.7033
 2.2570	51.6425
 2.2560	51.6570
 2.2550	51.5578
 2.2540	51.5386
 2.2530	51.4450
 2.2520	51.4417
 2.2510	51.3913
 2.2500	51.2775
 2.2490	51.1903
 2.2480	51.1861
 2.2470	51.0147
 2.2460	51.0395
 2.2450	50.9624
 2.2440	50.8663
 2.2430	50.7447
 2.2420	50.6998
 2.2410	50.6243
 2.2400	50.5756
 2.2390	50.4370
 2.2380	50.3547
 2.2370	50.2856
 2.2360	50.2694
 2.2350	50.0989
 2.2340	50.1339
 2.2330	49.9910
 2.2320	49.9334
 2.2310	49.8153
 2.2300	49.7718
 2.2290	49.6986
 2.2280	49.6336
 2.2270	49.5493
 2.2260	49.5702
 2.2250	49.4343
 2.2240	49.5171
 2.2230	49.4138
 2.2220	49.3780
 2.2210	49.3419
 2.2200	49.4634
 2.2190	49.3376
 2.2180	49.4205
 2.2170	49.4102
 2.2160	49.4639
 2.2150	49.4367
 2.2140	49.5938
 2.2130	49.5383
 2.2120	49.7976
 2.2110	49.5430
 2.2100	49.8856
 2.2090	49.8948
 2.2080	50.0112
 2.2070	50.0977
 2.2060	50.1683
 2.2050	50.1668
 2.2040	50.5161
 2.2030	50.4810
 2.2020	50.5918
 2.2010	50.7193
 2.2000	50.8832
 2.1990	51.0267
 2.1980	51.1595
 2.1970	51.3030
 2.1960	51.3401
 2.1950	51.4820
 2.1940	51.7359
 2.1930	51.8227
 2.1920	51.9829
 2.1910	52.1092
 2.1900	52.3094
 2.1890	52.4162
 2.1880	52.6883
 2.1870	52.6956
 2.1860	52.9780
 2.1850	53.1445
 2.1840	53.2786
 2.1830	53.4640
 2.1820	53.6428
 2.1810	53.9136
 2.1800	54.0152
 2.1790	54.1551
 2.1780	54.3580
 2.1770	54.5946
 2.1760	54.7542
 2.1750	54.7876
 2.1740	55.1121
 2.1730	55.2509
 2.1720	55.4393
 2.1710	55.6029
 2.1700	55.7513
 2.1690	55.9020
 2.1680	56.0237
 2.1670	56.2047
 2.1660	56.3900
 2.1650	56.5101
 2.1640	56.7128
 2.1630	56.7998
 2.1620	57.0464
 2.1610	57.0878
 2.1600	57.2126
 2.1590	57.4392
 2.1580	57.5743
 2.1570	57.7563
 2.1560	57.9055
 2.1550	58.0071
 2.1540	58.2044
 2.1530	58.2829
 2.1520	58.4807
 2.1510	58.5778
 2.1500	58.7254
 2.1490	58.8077
 2.1480	59.0114
 2.1470	59.0777
 2.1460	59.3123
 2.1450	59.3806
 2.1440	59.4865
 2.1430	59.5563
 2.1420	59.7090
 2.1410	59.8558
 2.1400	59.9165
 2.1390	60.1109
 2.1380	60.2376
 2.1370	60.2556
 2.1360	60.4225
 2.1350	60.4990
 2.1340	60.5861
 2.1330	60.6546
 2.1320	60.7285
 2.1310	60.7989
 2.1300	60.9559
 2.1290	60.9877
 2.1280	61.0752
 2.1270	61.1379
 2.1260	61.2337
 2.1250	61.2856
 2.1240	61.3431
 2.1230	61.3885
 2.1220	61.4593
 2.1210	61.4665
 2.1200	61.5156
 2.1190	61.5767
 2.1180	61.6130
 2.1170	61.6703
 2.1160	61.7667
 2.1150	61.7455
 2.1140	61.7850
 2.1130	61.7989
 2.1120	61.8407
 2.1110	61.8477
 2.1100	61.9072
 2.1090	61.8800
 2.1080	61.9122
 2.1070	61.9592
 2.1060	61.9539
 2.1050	61.9749
 2.1040	61.9935
 2.1030	61.9651
 2.1020	61.9303
 2.1010	61.9132
 2.1000	61.9721
 2.0990	62.0437
 2.0980	62.0623
 2.0970	62.0376
 2.0960	62.1029
 2.0950	62.1231
 2.0940	62.1215
 2.0930	62.1472
 2.0920	62.1215
 2.0910	62.1324
 2.0900	62.1539
 2.0890	62.1722
 2.0880	62.2161
 2.0870	62.1642
 2.0860	62.1469
 2.0850	62.1529
 2.0840	62.1774
 2.0830	62.1741
 2.0820	62.1945
 2.0810	62.2330
 2.0800	62.2193
 2.0790	62.1784
 2.0780	62.1732
 2.0770	62.1662
 2.0760	62.1160
 2.0750	62.1390
 2.0740	62.1547
 2.0730	62.1028
 2.0720	62.1225
 2.0710	62.0966
 2.0700	62.1263
 2.0690	62.0804
 2.0680	62.0215
 2.0670	62.0845
 2.0660	61.9986
 2.0650	61.9188
 2.0640	61.9321
 2.0630	61.9371
 2.0620	61.8911
 2.0610	61.8253
 2.0600	61.7849
 2.0590	61.7543
 2.0580	61.6484
 2.0570	61.5703
 2.0560	61.5407
 2.0550	61.4636
 2.0540	61.4505
 2.0530	61.3917
 2.0520	61.2639
 2.0510	61.1901
 2.0500	61.0974
 2.0490	61.0431
 2.0480	60.9592
 2.0470	60.9220
 2.0460	60.8461
 2.0450	60.7269
 2.0440	60.5499
 2.0430	60.4445
 2.0420	60.3509
 2.0410	60.3315
 2.0400	60.2053
 2.0390	60.1047
 2.0380	59.9660
 2.0370	59.8139
 2.0360	59.6489
 2.0350	59.5740
 2.0340	59.4415
 2.0330	59.3125
 2.0320	59.1477
 2.0310	58.9963
 2.0300	58.8314
 2.0290	58.6899
 2.0280	58.5298
 2.0270	58.3689
 2.0260	58.1424
 2.0250	58.0452
 2.0240	57.8554
 2.0230	57.6573
 2.0220	57.5262
 2.0210	57.3221
 2.0200	57.0745
 2.0190	56.9442
 2.0180	56.6812
 2.0170	56.4966
 2.0160	56.2967
 2.0150	56.1026
 2.0140	55.8682
 2.0130	55.6462
 2.0120	55.3113
 2.0110	55.1456
 2.0100	54.9665
 2.0090	54.7265
 2.0080	54.3744
 2.0070	54.1280
 2.0060	53.8607
 2.0050	53.6118
 2.0040	53.3545
 2.0030	53.0657
 2.0020	52.7649
 2.0010	52.5117
 2.0000	52.1731
 1.9990	51.8916
 1.9980	51.5117
 1.9970	51.1574
 1.9960	50.8656
 1.9950	50.5572
 1.9940	50.1578
 1.9930	49.8608
 1.9920	49.4542
 1.9910	49.1465
 1.9900	48.8083
 1.9890	48.4284
 1.9880	48.0993
 1.9870	47.8466
 1.9860	47.4552
 1.9850	47.1257
 1.9840	46.8067
 1.9830	46.5303
 1.9820	46.1907
 1.9810	45.9422
 1.9800	45.6291
 1.9790	45.3863
 1.9780	45.1219
 1.9770	44.9616
 1.9760	44.6294
 1.9750	44.5008
 1.9740	44.3117
 1.9730	44.2182
 1.9720	44.0571
 1.9710	43.8941
 1.9700	43.7463
 1.9690	43.6925
 1.9680	43.5785
 1.9670	43.6096
 1.9660	43.4349
 1.9650	43.4445
 1.9640	43.3966
 1.9630	43.3678
 1.9620	43.3077
 1.9610	43.2962
 1.9600	43.2353
 1.9590	43.2070
 1.9580	43.0974
 1.9570	43.1545
 1.9560	43.0127
 1.9550	42.8917
 1.9540	42.8218
 1.9530	42.7339
 1.9520	42.5835
 1.9510	42.4880
 1.9500	42.1523
 1.9490	42.1101
 1.9480	41.7238
 1.9470	41.5421
 1.9460	41.2102
 1.9450	40.9675
 1.9440	40.5140
 1.9430	40.2962
 1.9420	39.6652
 1.9410	39.3573
 1.9400	38.7453
 1.9390	38.2489
 1.9380	37.6066
 1.9370	37.0796
 1.9360	36.4094
 1.9350	35.8383
 1.9340	35.0412
 1.9330	34.4581
 1.9320	33.5679
 1.9310	32.9144
 1.9300	32.1491
 1.9290	31.3488
 1.9280	30.5710
 1.9270	29.8754
 1.9260	28.8877
 1.9250	28.3547
 1.9240	27.5321
 1.9230	26.9013
 1.9220	26.3305
 1.9210	25.8442
 1.9200	25.3342
 1.9190	24.9725
 1.9180	24.7052
 1.9170	24.4679
 1.9160	24.2442
 1.9150	24.4098
 1.9140	24.3338
 1.9130	24.6246
 1.9120	24.8257
 1.9110	25.3085
 1.9100	25.7620
 1.9090	26.4066
 1.9080	26.9184
 1.9070	27.7124
 1.9060	28.5425
 1.9050	29.4439
 1.9040	30.4495
 1.9030	31.4528
 1.9020	32.5860
 1.9010	33.7584
 1.9000	34.8227
 1.8990	35.9042
 1.8980	36.9254
 1.8970	38.0240
 1.8960	38.9471
 1.8950	40.0834
 1.8940	41.0015
 1.8930	42.0647
 1.8920	42.9257
 1.8910	43.9570
 1.8900	44.8156
 1.8890	45.7245
 1.8880	46.5281
 1.8870	47.3798
 1.8860	48.0545
 1.8850	48.9399
 1.8840	49.5932
 1.8830	50.3344
 1.8820	50.9693
 1.8810	51.6931
 1.8800	52.2365
 1.8790	52.8553
 1.8780	53.2995
 1.8770	53.8372
 1.8760	54.2843
 1.8750	54.7782
 1.8740	55.2874
 1.8730	55.8161
 1.8720	56.2421
 1.8710	56.7314
 1.8700	57.1284
 1.8690	57.5263
 1.8680	57.7878
 1.8670	58.1181
 1.8660	58.3675
 1.8650	58.6768
 1.8640	58.8598
 1.8630	59.0533
 1.8620	59.1926
 1.8610	59.4339
 1.8600	59.5717
 1.8590	59.6550
 1.8580	59.7570
 1.8570	59.8515
 1.8560	59.8952
 1.8550	59.9987
 1.8540	60.0153
 1.8530	60.1180
 1.8520	60.1333
 1.8510	60.1398
 1.8500	60.1508
 1.8490	60.1796
 1.8480	60.1342
 1.8470	60.0927
 1.8460	60.1387
 1.8450	60.1693
 1.8440	60.1735
 1.8430	60.2081
 1.8420	60.1672
 1.8410	60.2006
 1.8400	60.2570
 1.8390	60.2586
 1.8380	60.2728
 1.8370	60.3680
 1.8360	60.3836
 1.8350	60.4467
 1.8340	60.5294
 1.8330	60.6657
 1.8320	60.7154
 1.8310	60.7544
 1.8300	60.7881
 1.8290	60.9133
 1.8280	61.0123
 1.8270	61.1009
 1.8260	61.1437
 1.8250	61.2881
 1.8240	61.3456
 1.8230	61.4821
 1.8220	61.5441
 1.8210	61.6924
 1.8200	61.8084
 1.8190	61.9030
 1.8180	62.0004
 1.8170	62.1502
 1.8160	62.2546
 1.8150	62.3895
 1.8140	62.5452
 1.8130	62.7500
 1.8120	62.9232
 1.8110	63.1359
 1.8100	63.2939
 1.8090	63.4261
 1.8080	63.6050
 1.8070	63.8299
 1.8060	63.9886
 1.8050	64.1595
 1.8040	64.4137
 1.8030	64.6279
 1.8020	64.8357
 1.8010	65.0432
 1.8000	65.2623
 1.7990	65.5127
 1.7980	65.7453
 1.7970	65.9860
 1.7960	66.2409
 1.7950	66.4103
 1.7940	66.5920
 1.7930	66.8593
 1.7920	67.0407
 1.7910	67.2837
 1.7900	67.5398
 1.7890	67.7925
 1.7880	68.0380
 1.7870	68.2859
 1.7860	68.5642
 1.7850	68.8524
 1.7840	69.1252
 1.7830	69.3246
 1.7820	69.5985
 1.7810	69.9090
 1.7800	70.1842
 1.7790	70.4831
 1.7780	70.7926
 1.7770	71.0650
 1.7760	71.3429
 1.7750	71.6500
 1.7740	71.9426
 1.7730	72.1662
 1.7720	72.4710
 1.7710	72.7277
 1.7700	72.9840
 1.7690	73.2397
 1.7680	73.4874
 1.7670	73.7941
 1.7660	74.0500
 1.7650	74.2633
 1.7640	74.5524
 1.7630	74.7392
 1.7620	74.9388
 1.7610	75.1902
 1.7600	75.3842
 1.7590	75.6240
 1.7580	75.8807
 1.7570	76.0849
 1.7560	76.3010
 1.7550	76.4852
 1.7540	76.6931
 1.7530	76.8686
 1.7520	77.0713
 1.7510	77.2415
 1.7500	77.4164
 1.7490	77.5547
 1.7480	77.7402
 1.7470	77.9300
 1.7460	78.0210
 1.7450	78.2584
 1.7440	78.5067
 1.7430	78.6007
 1.7420	78.7272
 1.7410	78.8488
 1.7400	79.0122
 1.7390	79.1238
 1.7380	79.3197
 1.7370	79.4361
 1.7360	79.5919
 1.7350	79.7590
 1.7340	79.9069
 1.7330	79.9773
 1.7320	80.0738
 1.7310	80.1847
 1.7300	80.3182
 1.7290	80.4089
 1.7280	80.5526
 1.7270	80.6095
 1.7260	80.8213
 1.7250	80.9009
 1.7240	80.9728
 1.7230	81.0552
 1.7220	81.1871
 1.7210	81.1822
 1.7200	81.3334
 1.7190	81.3650
 1.7180	81.4963
 1.7170	81.6395
 1.7160	81.6518
 1.7150	81.7220
 1.7140	81.8222
 1.7130	81.9847
 1.7120	82.0823
 1.7110	82.1166
 1.7100	82.1434
 1.7090	82.1592
 1.7080	82.2171
 1.7070	82.2250
 1.7060	82.4087
 1.7050	82.4268
 1.7040	82.4732
 1.7030	82.4756
 1.7020	82.5318
 1.7010	82.6308
 1.7000	82.6364
 1.6990	82.7147
 1.6980	82.8170
 1.6970	82.8442
 1.6960	82.8206
 1.6950	82.8826
 1.6940	82.8561
 1.6930	82.9566
 1.6920	82.9597
 1.6910	82.9915
 1.6900	83.0135
 1.6890	82.9735
 1.6880	82.9926
 1.6870	83.0921
 1.6860	83.0558
 1.6850	83.0904
 1.6840	83.1389
 1.6830	83.1425
 1.6820	83.1303
 1.6810	83.0396
 1.6800	83.0836
 1.6790	83.1246
 1.6780	83.0682
 1.6770	83.1706
 1.6760	83.2056
 1.6750	83.1040
 1.6740	83.1467
 1.6730	83.1449
 1.6720	83.1114
 1.6710	83.1538
 1.6700	83.1062
 1.6690	83.1377
 1.6680	83.0904
 1.6670	83.1118
 1.6660	83.0882
 1.6650	82.9691
 1.6640	83.0754
 1.6630	83.0112
 1.6620	82.9936
 1.6610	83.1301
 1.6600	82.9834
 1.6590	82.9674
 1.6580	82.8725
 1.6570	82.9963
 1.6560	82.9024
 1.6550	82.8410
 1.6540	82.9270
 1.6530	82.8719
 1.6520	82.8312
 1.6510	82.7767
 1.6500	82.6991
 1.6490	82.7431
 1.6480	82.7366
 1.6470	82.7207
 1.6460	82.7575
 1.6450	82.6645
 1.6440	82.6403
 1.6430	82.6530
 1.6420	82.5506
 1.6410	82.4702
 1.6400	82.5917
 1.6390	82.4713
 1.6380	82.5050
 1.6370	82.4289
 1.6360	82.4368
 1.6350	82.3120
 1.6340	82.4047
 1.6330	82.2601
 1.6320	82.2212
 1.6310	82.2853
 1.6300	82.1626
 1.6290	82.0858
 1.6280	82.0241
 1.6270	82.0123
 1.6260	81.8963
 1.6250	81.9814
 1.6240	81.9397
 1.6230	81.8100
 1.6220	81.7317
 1.6210	81.7913
 1.6200	81.7008
 1.6190	81.6359
 1.6180	81.5570
 1.6170	81.6318
 1.6160	81.5523
 1.6150	81.4858
 1.6140	81.4121
 1.6130	81.3652
 1.6120	81.4061
 1.6110	81.3655
 1.6100	81.2586
 1.6090	81.1669
 1.6080	81.1089
 1.6070	81.0667
 1.6060	81.0615
 1.6050	80.9599
 1.6040	80.9069
 1.6030	80.9704
 1.6020	80.8298
 1.6010	80.8314
 1.6000	80.8358
 1.5990	80.7426
 1.5980	80.6659
 1.5970	80.5816
 1.5960	80.5155
 1.5950	80.4471
 1.5940	80.4216
 1.5930	80.3151
 1.5920	80.3262
 1.5910	80.1402
 1.5900	80.1209
 1.5890	80.0106
 1.5880	80.0868
 1.5870	79.9217
 1.5860	79.7631
 1.5850	79.8092
 1.5840	79.7686
 1.5830	79.6116
 1.5820	79.5785
 1.5810	79.5010
 1.5800	79.4581
 1.5790	79.3151
 1.5780	79.2655
 1.5770	79.1333
 1.5760	79.0300
 1.5750	78.9728
 1.5740	78.9188
 1.5730	78.8937
 1.5720	78.7957
 1.5710	78.6782
 1.5700	78.6890
 1.5690	78.5887
 1.5680	78.4710
 1.5670	78.3054
 1.5660	78.2581
 1.5650	78.1566
 1.5640	78.0713
 1.5630	78.0210
 1.5620	77.9238
 1.5610	77.7935
 1.5600	77.7727
 1.5590	77.6571
 1.5580	77.5415
 1.5570	77.4861
 1.5560	77.3378
 1.5550	77.1722
 1.5540	77.0631
 1.5530	76.9843
 1.5520	76.8900
 1.5510	76.6948
 1.5500	76.6255
 1.5490	76.5050
 1.5480	76.4038
 1.5470	76.2756
 1.5460	76.1564
 1.5450	75.9974
 1.5440	75.9213
 1.5430	75.8063
 1.5420	75.6087
 1.5410	75.4439
 1.5400	75.3857
 1.5390	75.2169
 1.5380	75.1105
 1.5370	74.9791
 1.5360	74.7927
 1.5350	74.6732
 1.5340	74.5539
 1.5330	74.4242
 1.5320	74.2800
 1.5310	74.1296
 1.5300	73.9453
 1.5290	73.7570
 1.5280	73.5844
 1.5270	73.4075
 1.5260	73.2856
 1.5250	73.1449
 1.5240	72.9377
 1.5230	72.7542
 1.5220	72.5553
 1.5210	72.3931
 1.5200	72.2300
 1.5190	72.0451
 1.5180	71.8769
 1.5170	71.6417
 1.5160	71.4839
 1.5150	71.3312
 1.5140	71.1015
 1.5130	70.8604
 1.5120	70.6978
 1.5110	70.5018
 1.5100	70.3016
 1.5090	70.0986
 1.5080	69.8569
 1.5070	69.6021
 1.5060	69.4038
 1.5050	69.2001
 1.5040	68.9626
 1.5030	68.6980
 1.5020	68.4312
 1.5010	68.1788
 1.5000	67.8987
 1.4990	67.6312
 1.4980	67.4095
 1.4970	67.1794
 1.4960	66.9028
 1.4950	66.6079
 1.4940	66.2927
 1.4930	65.9694
 1.4920	65.6428
 1.4910	65.3237
 1.4900	65.0130
 1.4890	64.6760
 1.4880	64.3442
 1.4870	63.9770
 1.4860	63.6074
 1.4850	63.2032
 1.4840	62.7734
 1.4830	62.3595
 1.4820	61.9576
 1.4810	61.4930
 1.4800	61.0780
 1.4790	60.6685
 1.4780	60.1968
 1.4770	59.7547
 1.4760	59.2789
 1.4750	58.8584
 1.4740	58.4491
 1.4730	58.0851
 1.4720	57.7227
 1.4710	57.4702
 1.4700	57.2404
 1.4690	57.1118
 1.4680	57.0054
 1.4670	56.8911
 1.4660	56.7827
 1.4650	56.7359
 1.4640	56.6967
 1.4630	56.6824
 1.4620	56.6116
 1.4610	56.5067
 1.4600	56.3516
 1.4590	56.2303
 1.4580	56.0162
 1.4570	55.8318
 1.4560	55.5705
 1.4550	55.3353
 1.4540	54.9791
 1.4530	54.6477
 1.4520	54.3247
 1.4510	53.9592
 1.4500	53.5760
 1.4490	53.1655
 1.4480	52.7175
 1.4470	52.3444
 1.4460	51.8435
 1.4450	51.3467
 1.4440	50.8614
 1.4430	50.3025
 1.4420	49.7678
 1.4410	49.2464
 1.4400	48.6771
 1.4390	48.0953
 1.4380	47.5330
 1.4370	46.9453
 1.4360	46.3836
 1.4350	45.7778
 1.4340	45.1568
 1.4330	44.6417
 1.4320	44.1204
 1.4310	43.5910
 1.4300	43.1240
 1.4290	42.6924
 1.4280	42.2449
 1.4270	41.9591
 1.4260	41.6427
 1.4250	41.4266
 1.4240	41.1544
 1.4230	41.1465
 1.4220	41.1153
 1.4210	41.2208
 1.4200	41.3219
 1.4190	41.5855
 1.4180	41.7660
 1.4170	42.1483
 1.4160	42.5694
 1.4150	43.0796
 1.4140	43.5998
 1.4130	44.2183
 1.4120	44.7766
 1.4110	45.5317
 1.4100	46.1999
 1.4090	46.9536
 1.4080	47.6531
 1.4070	48.4977
 1.4060	49.2680
 1.4050	50.2661
 1.4040	50.9812
 1.4030	51.9776
 1.4020	52.8091
 1.4010	53.7459
 1.4000	54.6606
 1.3990	55.5878
 1.3980	56.4753
 1.3970	57.3580
 1.3960	58.3047
 1.3950	59.1906
 1.3940	60.0592
 1.3930	60.9621
 1.3920	61.6946
 1.3910	62.6302
 1.3900	63.3721
 1.3890	64.0972
 1.3880	64.8834
 1.3870	65.5475
 1.3860	66.1754
 1.3850	66.7771
 1.3840	67.3149
 1.3830	67.9702
 1.3820	68.5004
 1.3810	69.0380
 1.3800	69.5223
 1.3790	69.9223
 1.3780	70.3540
 1.3770	70.7229
 1.3760	71.1445
 1.3750	71.5043
 1.3740	71.7636
 1.3730	72.1061
 1.3720	72.4478
 1.3710	72.8250
 1.3700	73.0427
 1.3690	73.3472
 1.3680	73.5795
 1.3670	73.8905
 1.3660	74.1351
 1.3650	74.4639
 1.3640	74.6472
 1.3630	74.9770
 1.3620	75.1202
 1.3610	75.3848
 1.3600	75.7130
 1.3590	75.9988
 1.3580	76.1720
 1.3570	76.4184
 1.3560	76.6678
 1.3550	76.9474
 1.3540	77.1743
 1.3530	77.4695
 1.3520	77.6650
 1.3510	77.9090
 1.3500	78.0980
 1.3490	78.3895
 1.3480	78.4556
 1.3470	78.7196
 1.3460	78.9295
 1.3450	79.1398
 1.3440	79.4538
 1.3430	79.6180
 1.3420	79.6846
 1.3410	79.9072
 1.3400	80.0544
 1.3390	80.3268
 1.3380	80.5852
 1.3370	80.7651
 1.3360	80.9217
 1.3350	81.0858
 1.3340	81.1533
 1.3330	81.3590
 1.3320	81.5879
 1.3310	81.8369
 1.3300	81.9086
 1.3290	82.0280
 1.3280	82.2498
 1.3270	82.3878
 1.3260	82.5593
 1.3250	82.6797
 1.3240	82.9056
 1.3230	83.1149
 1.3220	83.0577
 1.3210	83.2742
 1.3200	83.4055
 1.3190	83.5417
 1.3180	83.6901
 1.3170	83.8492
 1.3160	83.9122
 1.3150	84.0900
 1.3140	84.1412
 1.3130	84.2875
 1.3120	84.3604
 1.3110	84.4978
 1.3100	84.5603
 1.3090	84.6849
 1.3080	84.7774
 1.3070	84.9082
 1.3060	85.0376
 1.3050	85.1245
 1.3040	85.1127
 1.3030	85.2214
 1.3020	85.2457
 1.3010	85.3739
 1.3000	85.3934
 1.2990	85.5180
 1.2980	85.5295
 1.2970	85.5889
 1.2960	85.6565
 1.2950	85.6961
 1.2940	85.6985
 1.2930	85.8110
 1.2920	85.8461
 1.2910	85.8616
 1.2900	85.8209
 1.2890	85.9506
 1.2880	85.9597
 1.2870	85.9707
 1.2860	85.9194
 1.2850	85.9047
 1.2840	85.9050
 1.2830	85.9860
 1.2820	85.9592
 1.2810	85.9400
 1.2800	86.0160
 1.2790	86.0888
 1.2780	86.0783
 1.2770	86.0602
 1.2760	85.9939
 1.2750	86.0497
 1.2740	86.1991
 1.2730	86.1886
 1.2720	86.1742
 1.2710	86.2394
 1.2700	86.3324
 1.2690	86.3489
 1.2680	86.3382
 1.2670	86.4382
 1.2660	86.4104
 1.2650	86.4460
 1.2640	86.5247
 1.2630	86.5723
 1.2620	86.5469
 1.2610	86.5932
 1.2600	86.6667
 1.2590	86.7377
 1.2580	86.7023
 1.2570	86.7538
 1.2560	86.8228
 1.2550	86.8958
 1.2540	86.9228
 1.2530	86.9731
 1.2520	86.9559
 1.2510	86.9621
 1.2500	87.0420
 1.2490	87.0414
 1.2480	87.0076
 1.2470	86.9653
 1.2460	86.9520
 1.2450	87.0125
 1.2440	86.9582
 1.2430	86.9361
 1.2420	87.0153
 1.2410	87.0000
 1.2400	86.9790
 1.2390	86.9691
 1.2380	86.9504
 1.2370	86.9582
 1.2360	87.0094
 1.2350	87.0024
 1.2340	86.9623
 1.2330	86.9474
 1.2320	86.9370
 1.2310	86.8849
 1.2300	86.8851
 1.2290	86.8660
 1.2280	86.8204
 1.2270	86.8348
 1.2260	86.8132
 1.2250	86.8263
 1.2240	86.8315
 1.2230	86.7621
 1.2220	86.7032
 1.2210	86.7063
 1.2200	86.6423
 1.2190	86.6476
 1.2180	86.6654
 1.2170	86.5805
 1.2160	86.5200
 1.2150	86.5312
 1.2140	86.5108
 1.2130	86.4586
 1.2120	86.4790
 1.2110	86.4496
 1.2100	86.3678
 1.2090	86.2901
 1.2080	86.2319
 1.2070	86.1503
 1.2060	86.0607
 1.2050	86.0395
 1.2040	85.9675
 1.2030	85.8348
 1.2020	85.7268
 1.2010	85.6437
 1.2000	85.6365
 1.1990	85.6637
 1.1980	85.5808
 1.1970	85.4964
 1.1960	85.5473
 1.1950	85.5435
 1.1940	85.5672
 1.1930	85.5248
 1.1920	85.4983
 1.1910	85.5780
 1.1900	85.5243
 1.1890	85.4223
 1.1880	85.4024
 1.1870	85.4020
 1.1860	85.3535
 1.1850	85.3132
 1.1840	85.2991
 1.1830	85.1985
 1.1820	85.1198
 1.1810	85.0322
 1.1800	84.9837
 1.1790	84.8347
 1.1780	84.7266
 1.1770	84.6374
 1.1760	84.4453
 1.1750	84.2292
 1.1740	84.0703
 1.1730	83.8449
 1.1720	83.6468
 1.1710	83.3679
 1.1700	83.1135
 1.1690	82.8920
 1.1680	82.6789
 1.1670	82.4939
 1.1660	82.3764
 1.1650	82.2189
 1.1640	82.1877
 1.1630	82.1261
 1.1620	82.1296
 1.1610	82.1927
 1.1600	82.3490
 1.1590	82.4940
 1.1580	82.7082
 1.1570	82.9489
 1.1560	83.2625
 1.1550	83.4414
 1.1540	83.7221
 1.1530	83.9975
 1.1520	84.2663
 1.1510	84.4988
 1.1500	84.8247
 1.1490	85.2043
 1.1480	85.4898
 1.1470	85.7710
 1.1460	86.1577
 1.1450	86.4481
 1.1440	86.6977
 1.1430	86.9248
 1.1420	87.1910
 1.1410	87.3748
 1.1400	87.5797
 1.1390	87.7590
 1.1380	87.9192
 1.1370	88.0442
 1.1360	88.1517
 1.1350	88.2548
 1.1340	88.3941
 1.1330	88.4333
 1.1320	88.5860
 1.1310	88.6091
 1.1300	88.7704
 1.1290	88.9167
 1.1280	88.9131
 1.1270	88.8739
 1.1260	89.0145
 1.1250	89.0242
 1.1240	89.1061
 1.1230	89.1907
 1.1220	89.1964
 1.1210	89.2549
 1.1200	89.3453
 1.1190	89.3830
 1.1180	89.4972
 1.1170	89.4946
 1.1160	89.5222
 1.1150	89.5824
 1.1140	89.6523
 1.1130	89.6617
 1.1120	89.7182
 1.1110	89.7600
 1.1100	89.8627
 1.1090	89.8670
 1.1080	89.8270
 1.1070	89.9540
 1.1060	89.9232
 1.1050	89.9855
 1.1040	90.0289
 1.1030	89.9747
 1.1020	90.0073
 1.1010	89.9924
 1.1000	90.1723
 1.0990	90.1014
 1.0980	90.1742
 1.0970	90.1815
 1.0960	90.2250
 1.0950	90.1207
 1.0940	90.1364
 1.0930	90.1486
 1.0920	90.2156
 1.0910	90.1907
 1.0900	90.2772
 1.0890	90.2190
 1.0880	90.2729
 1.0870	90.3046
 1.0860	90.2552
 1.0850	90.3069
 1.0840	90.3473
 1.0830	90.3238
 1.0820	90.3341
 1.0810	90.2593
 1.0800	90.2673
 1.0790	90.2282
 1.0780	90.2866
 1.0770	90.3510
 1.0760	90.2711
 1.0750	90.3704
 1.0740	90.4554
 1.0730	90.3347
 1.0720	90.3080
 1.0710	90.3983
 1.0700	90.3693
 1.0690	90.3381
 1.0680	90.4333
 1.0670	90.3472
 1.0660	90.2917
 1.0650	90.3318
 1.0640	90.4456
 1.0630	90.2708
 1.0620	90.3326
 1.0610	90.2881
 1.0600	90.4171
 1.0590	90.3828
 1.0580	90.3117
 1.0570	90.4121
 1.0560	90.2880
 1.0550	90.3062
 1.0540	90.2968
 1.0530	90.2999
 1.0520	90.3495
 1.0510	90.2415
 1.0500	90.2446
 1.0490	90.2540
 1.0480	90.3094
 1.0470	90.2489
 1.0460	90.1891
 1.0450	90.2290
 1.0440	90.2150
 1.0430	90.2114
 1.0420	90.2471
 1.0410	90.1370
 1.0400	90.1318
 1.0390	90.1562
 1.0380	90.1110
 1.0370	90.0704
 1.0360	90.0642
 1.0350	90.0354
 1.0340	90.0238
 1.0330	89.9989
 1.0320	90.0233
 1.0310	89.8590
 1.0300	89.8871
 1.0290	90.0151
 1.0280	89.8841
 1.0270	89.7189
 1.0260	89.7913
 1.0250	89.7034
 1.0240	89.7110
 1.0230	89.6596
 1.0220	89.6131
 1.0210	89.5728
 1.0200	89.4682
 1.0190	89.4652
 1.0180	89.3725
 1.0170	89.3502
 1.0160	89.2652
 1.0150	89.2265
 1.0140	89.1009
 1.0130	89.0226
 1.0120	89.0409
 1.0110	88.9350
 1.0100	88.8681
 1.0090	88.8180
 1.0080	88.7295
 1.0070	88.6022
 1.0060	88.5657
 1.0050	88.5193
 1.0040	88.4546
 1.0030	88.2961
 1.0020	88.2083
 1.0010	88.0962
 1.0000	88.0436
 0.9990	87.8879
 0.9980	87.7753
 0.9970	87.6591
 0.9960	87.5092
 0.9950	87.3782
 0.9940	87.2791
 0.9930	87.1722
 0.9920	87.0097
 0.9910	86.8748
 0.9900	86.7282
 0.9890	86.5629
 0.9880	86.4311
 0.9870	86.2244
 0.9860	86.1947
 0.9850	86.0549
 0.9840	85.8743
 0.9830	85.7460
 0.9820	85.6344
 0.9810	85.5611
 0.9800	85.4559
 0.9790	85.3609
 0.9780	85.3111
 0.9770	85.2190
 0.9760	85.1348
 0.9750	85.0437
 0.9740	85.0545
 0.9730	85.1024
 0.9720	85.1906
 0.9710	85.1450
 0.9700	85.2067
 0.9690	85.3843
 0.9680	85.5506
 0.9670	85.6387
 0.9660	85.8233
 0.9650	85.9897
 0.9640	86.1870
 0.9630	86.4046
 0.9620	86.5984
 0.9610	86.8292
 0.9600	87.0688
 0.9590	87.1547
 0.9580	87.2991
 0.9570	87.4903
 0.9560	87.7181
 0.9550	87.7576
 0.9540	87.8343
 0.9530	87.9486
 0.9520	88.0513
 0.9510	88.2075
 0.9500	88.3168
 0.9490	88.4907
 0.9480	88.6586
 0.9470	88.7293
 0.9460	88.8563
 0.9450	88.9983
 0.9440	89.1046
 0.9430	89.1817
 0.9420	89.2816
 0.9410	89.3943
 0.9400	89.4546
 0.9390	89.5221
 0.9380	89.6191
 0.9370	89.6952
 0.9360	89.7616
 0.9350	89.8195
 0.9340	89.8444
 0.9330	89.9342
 0.9320	90.0396
 0.9310	90.1187
 0.9300	90.1630
 0.9290	90.2101
 0.9280	90.2162
 0.9270	90.2217
 0.9260	90.2219
 0.9250	90.2253
 0.9240	90.3010
 0.9230	90.3375
 0.9220	90.3776
 0.9210	90.4068
 0.9200	90.4070
 0.9190	90.4045
 0.9180	90.4004
 0.9170	90.3954
 0.9160	90.4144
 0.9150	90.4769
 0.9140	90.4820
 0.9130	90.5010
 0.9120	90.4683
 0.9110	90.4278
 0.9100	90.4774
 0.9090	90.5178
 0.9080	90.5165
 0.9070	90.5257
 0.9060	90.5341
 0.9050	90.5494
 0.9040	90.4982
 0.9030	90.5759
 0.9020	90.5696
 0.9010	90.5786
 0.9000	90.5176
 0.8990	90.5209
 0.8980	90.5526
 0.8970	90.5555
 0.8960	90.5599
 0.8950	90.5978
 0.8940	90.6036
 0.8930	90.6712
 0.8920	90.6675
 0.8910	90.5873
 0.8900	90.6244
 0.8890	90.6764
 0.8880	90.6565
 0.8870	90.6333
 0.8860	90.6969
 0.8850	90.6231
 0.8840	90.6392
 0.8830	90.6966
 0.8820	90.7020
 0.8810	90.6702
 0.8800	90.6994
 0.8790	90.6570
 0.8780	90.6419
 0.8770	90.6668
 0.8760	90.6508
 0.8750	90.7234
 0.8740	90.7140
 0.8730	90.6697
 0.8720	90.6595
 0.8710	90.7150
 0.8700	90.6973
 0.8690	90.6846
 0.8680	90.7389
 0.8670	90.6734
 0.8660	90.6566
 0.8650	90.7248
 0.8640	90.6609
 0.8630	90.6581
 0.8620	90.6279
 0.8610	90.7259
 0.8600	90.7739
 0.8590	90.8052
 0.8580	90.7718
 0.8570	90.7444
 0.8560	90.8301
 0.8550	90.8253
 0.8540	90.8188
 0.8530	90.8130
 0.8520	90.7320
 0.8510	90.7894
 0.8500	90.6973
 0.8490	90.7665
 0.8480	90.6965
 0.8470	90.7479
 0.8460	90.8129
 0.8450	90.6965
 0.8440	90.6645
 0.8430	90.7081
 0.8420	90.7109
 0.8410	90.6790
 0.8400	90.6333
 0.8390	90.7635
 0.8380	90.7687
 0.8370	90.7253
 0.8360	90.7909
 0.8350	90.8321
 0.8340	90.8470
 0.8330	90.8501
 0.8320	90.9141
 0.8310	90.9184
 0.8300	90.9084
 0.8290	90.9561
 0.8280	90.9226
 0.8270	90.9422
 0.8260	90.9953
 0.8250	90.9604
 0.8240	90.9569
 0.8230	90.9995
 0.8220	90.9994
 0.8210	90.9658
 0.8200	91.0039
 0.8190	91.0140
 0.8180	90.9878
 0.8170	91.0213
 0.8160	91.0446
 0.8150	91.0549
 0.8140	91.0558
 0.8130	91.0562
 0.8120	91.0563
 0.8110	90.9949
 0.8100	91.0558
 0.8090	91.0353
 0.8080	91.0846
 0.8070	91.0675
 0.8060	91.0047
 0.8050	91.0690
 0.8040	91.0466
 0.8030	91.0612
 0.8020	91.0436
 0.8010	91.0289
 0.8000	91.0019
 0.7990	91.0070
 0.7980	90.9970
 0.7970	90.9704
 0.7960	90.9361
 0.7950	90.9540
 0.7940	90.9082
 0.7930	90.9975
 0.7920	90.9149
 0.7910	90.9180
 0.7900	90.9248
 0.7890	90.8956
 0.7880	90.9567
 0.7870	90.8665
 0.7860	90.8934
 0.7850	90.9218
 0.7840	90.9363
 0.7830	90.9097
 0.7820	90.8837
 0.7810	90.8511
 0.7800	90.8610
 0.7790	90.8235
 0.7780	90.8241
 0.7770	90.8581
 0.7760	90.8224
 0.7750	90.8335
 0.7740	90.7769
 0.7730	90.8248
 0.7720	90.7952
 0.7710	90.7477
 0.7700	90.7500
 0.7690	90.7844
 0.7680	90.7838
 0.7670	90.7073
 0.7660	90.7533
 0.7650	90.7504
 0.7640	90.6981
 0.7630	90.6954
 0.7620	90.6963
 0.7610	90.7248
 0.7600	90.7219
 0.7590	90.6948
 0.7580	90.7025
 0.7570	90.7068
 0.7560	90.6604
 0.7550	90.6309
 0.7540	90.6024
 0.7530	90.5977
 0.7520	90.6075
 0.7510	90.5894
 0.7500	90.5770
 0.7490	90.5789
 0.7480	90.5711
 0.7470	90.5820
 0.7460	90.5634
 0.7450	90.5667
 0.7440	90.5451
 0.7430	90.5749
 0.7420	90.5889
 0.7410	90.6247
 0.7400	90.6355
 0.7390	90.6549
 0.7380	90.6673
 0.7370	90.6942
 0.7360	90.7139
 0.7350	90.7498
 0.7340	90.7640
 0.7330	90.7838
 0.7320	90.7619
 0.7310	90.7933
 0.7300	90.7913
 0.7290	90.8047
 0.7280	90.8132
 0.7270	90.8307
 0.7260	90.7986
 0.7250	90.8319
 0.7240	90.8175
 0.7230	90.8142
 0.7220	90.8450
 0.7210	90.8583
 0.7200	90.8394
 0.7190	90.8428
 0.7180	90.8524
 0.7170	90.8420
 0.7160	90.8728
 0.7150	90.8685
 0.7140	90.8512
 0.7130	90.8749
 0.7120	90.8537
 0.7110	90.8717
 0.7100	90.8897
 0.7090	90.8884
 0.7080	90.8665
 0.7070	90.8649
 0.7060	90.8994
 0.7050	90.8999
 0.7040	90.8741
 0.7030	90.8836
 0.7020	90.8847
 0.7010	90.8658
 0.7000	90.8414
 0.6990	90.8408
 0.6980	90.8592
 0.6970	90.8772
 0.6960	90.8765
 0.6950	90.8667
 0.6940	90.8610
 0.6930	90.8624
 0.6920	90.8584
 0.6910	90.8723
 0.6900	90.8857
 0.6890	90.8528
 0.6880	90.8407
 0.6870	90.8446
 0.6860	90.8509
 0.6850	90.8486
 0.6840	90.8376
 0.6830	90.8408
 0.6820	90.8598
 0.6810	90.8535
 0.6800	90.8397
 0.6790	90.8406
 0.6780	90.8279
 0.6770	90.8233
 0.6760	90.7999
 0.6750	90.8053
 0.6740	90.8247
 0.6730	90.8168
 0.6720	90.8049
 0.6710	90.8077
 0.6700	90.8079
 0.6690	90.8066
 0.6680	90.8061
 0.6670	90.7979
 0.6660	90.7953
 0.6650	90.7970
 0.6640	90.8073
 0.6630	90.8244
 0.6620	90.8430
 0.6610	90.8495
 0.6600	90.8522
 0.6590	90.8566
 0.6580	90.8589
 0.6570	90.8584
 0.6560	90.8495
 0.6550	90.8326
 0.6540	90.8355
 0.6530	90.8458
 0.6520	90.8521
 0.6510	90.8595
 0.6500	90.8528
 0.6490	90.8122
 0.6480	90.8015
 0.6470	90.8006
 0.6460	90.8088
 0.6450	90.8279
 0.6440	90.8069
 0.6430	90.8020
 0.6420	90.8035
 0.6410	90.7921
 0.6400	90.7967
 0.6390	90.7968
 0.6380	90.8057
 0.6370	90.7986
 0.6360	90.7887
 0.6350	90.7990
 0.6340	90.7894
 0.6330	90.7758
 0.6320	90.7709
 0.6310	90.7640
 0.6300	90.7541
 0.6290	90.7487
 0.6280	90.7442
 0.6270	90.7573
 0.6260	90.7555
 0.6250	90.7428
 0.6240	90.7395
 0.6230	90.7426
 0.6220	90.7341
 0.6210	90.7037
 0.6200	90.7130
 0.6190	90.7078
 0.6180	90.7019
 0.6170	90.6979
 0.6160	90.6880
 0.6150	90.6969
 0.6140	90.6877
 0.6130	90.6811
 0.6120	90.6615
 0.6110	90.6664
 0.6100	90.6709
 0.6090	90.6708
 0.6080	90.6708
 0.6070	90.6643
 0.6060	90.6610
 0.6050	90.6482
 0.6040	90.6384
 0.6030	90.6358
 0.6020	90.6337
 0.6010	90.6255
 0.6000	90.6074
 0.5990	90.6239
 0.5980	90.6410
 0.5970	90.6668
 0.5960	90.6719
 0.5950	90.6673
 0.5940	90.6632
 0.5930	90.6703
 0.5920	90.6523
 0.5910	90.6375
 0.5900	90.6228
 0.5890	90.6176
 0.5880	90.6148
 0.5870	90.5959
 0.5860	90.5900
 0.5850	90.5816
 0.5840	90.5698
 0.5830	90.5581
 0.5820	90.5567
 0.5810	90.5444
 0.5800	90.5508
 0.5790	90.5164
 0.5780	90.4975
 0.5770	90.4809
 0.5760	90.4730
 0.5750	90.4638
 0.5740	90.4558
 0.5730	90.4383
 0.5720	90.4023
 0.5710	90.4107
 0.5700	90.3842
 0.5690	90.3625
 0.5680	90.3416
 0.5670	90.3390
 0.5660	90.3226
 0.5650	90.3151
 0.5640	90.2813
 0.5630	90.2724
 0.5620	90.2596
 0.5610	90.2209
 0.5600	90.2022
 0.5590	90.2045
 0.5580	90.1632
 0.5570	90.1394
 0.5560	90.1282
 0.5550	90.1361
 0.5540	90.1150
 0.5530	90.0911
 0.5520	90.0775
 0.5510	90.0777
 0.5500	90.0680
 0.5490	90.0501
 0.5480	90.0011
 0.5470	89.9929
 0.5460	89.9356
 0.5450	89.9200
 0.5440	89.9232
 0.5430	89.8894
 0.5420	89.8736
 0.5410	89.8694
 0.5400	89.8476
 0.5390	89.8297
 0.5380	89.8421
 0.5370	89.8157
 0.5360	89.8148
 0.5350	89.7844
 0.5340	89.7625
 0.5330	89.7306
 0.5320	89.7080
 0.5310	89.6913
 0.5300	89.6770
 0.5290	89.6617
 0.5280	89.6440
 0.5270	89.6118
 0.5260	89.6154
 0.5250	89.6142
 0.5240	89.5882
 0.5230	89.5739
 0.5220	89.5290
 0.5210	89.5303
 0.5200	89.4972
 0.5190	89.4922
 0.5180	89.4554
 0.5170	89.4398
 0.5160	89.4255
 0.5150	89.4007
 0.5140	89.3839
 0.5130	89.3640
 0.5120	89.3350
 0.5110	89.3262
 0.5100	89.3013
 0.5090	89.2960
 0.5080	89.2467
 0.5070	89.2442
 0.5060	89.2382
 0.5050	89.2060
 0.5040	89.1822
 0.5030	89.1684
 0.5020	89.1243
 0.5010	89.0716
 0.5000	89.0643
 0.4990	89.0442
 0.4980	89.0242
 0.4970	88.9940
 0.4960	88.9937
 0.4950	88.9587
 0.4940	88.9322
 0.4930	88.9427
 0.4920	88.8781
 0.4910	88.8579
 0.4900	88.8685
 0.4890	88.8073
 0.4880	88.7636
 0.4870	88.7571
 0.4860	88.7494
 0.4850	88.7051
 0.4840	88.6746
 0.4830	88.6598
 0.4820	88.6281
 0.4810	88.6419
 0.4800	88.5795
 0.4790	88.5476
 0.4780	88.5402
 0.4770	88.4987
 0.4760	88.4550
 0.4750	88.4275
 0.4740	88.4209
 0.4730	88.3892
 0.4720	88.3789
 0.4710	88.3292
 0.4700	88.3263
 0.4690	88.2721
 0.4680	88.2684
 0.4670	88.2508
 0.4660	88.2069
 0.4650	88.1721
 0.4640	88.1568
 0.4630	88.1230
 0.4620	88.0828
 0.4610	88.0588
 0.4600	88.0225
 0.4590	88.0291
 0.4580	87.9733
 0.4570	87.9463
 0.4560	87.8948
 0.4550	87.8817
 0.4540	87.8575
 0.4530	87.8217
 0.4520	87.7935
 0.4510	87.7485
 0.4500	87.7327
 0.4490	87.6976
 0.4480	87.6578
 0.4470	87.6168
 0.4460	87.6061
 0.4450	87.5324
 0.4440	87.5227
 0.4430	87.4770
 0.4420	87.4302
 0.4410	87.3854
 0.4400	87.3246
 0.4390	87.3061
 0.4380	87.2631
 0.4370	87.2295
 0.4360	87.1904
 0.4350	87.1439
 0.4340	87.0937
 0.4330	87.0459
 0.4320	87.0291
 0.4310	86.9604
 0.4300	86.9015
 0.4290	86.8847
 0.4280	86.8327
 0.4270	86.8007
 0.4260	86.7560
 0.4250	86.7055
 0.4240	86.6644
 0.4230	86.6417
 0.4220	86.6234
 0.4210	86.5966
 0.4200	86.5342
 0.4190	86.5112
 0.4180	86.4861
 0.4170	86.4253
 0.4160	86.4376
 0.4150	86.4009
 0.4140	86.3433
 0.4130	86.3392
 0.4120	86.3113
 0.4110	86.2698
 0.4100	86.2268
 0.4090	86.1994
 0.4080	86.1692
 0.4070	86.1429
 0.4060	86.1283
 0.4050	86.0859
 0.4040	86.0467
 0.4030	85.9952
 0.4020	85.9719
 0.4010	85.9507
 0.4000	85.9280
