Name: Ulexite NaCaB_5O_6(OH)_6.5H_2O
Type: Mineral
Class: Borate
Subclass: None
Particle Size: Coarse
Sample No.: B-3A
Owner: JPL
Wavelength Range: VSWIR
Origin: USA, California, Kern County, Boron.
Collection Date: N/A
Description: Particle size was 125-500um.Collected by:  JPL Original ASTER Spectral Library name was jpl.perkin.mineral.borate.none.coarse.b03a.spectrum.txt
Measurement: Hemispherical reflectance
First Column: X
Second Column: Y
X Units: Wavelength (micrometers)
Y Units:Reflectance (percent)
First X Value:  2.5000
Last X Value:  0.4000
Number of X Values: 2101
Additional Information: mineral.borate.none.coarse.vswir.b-3a.jpl.perkin.ancillary.txt

 2.5000	 1.3085
 2.4990	 1.1951
 2.4980	 1.5959
 2.4970	 1.4334
 2.4960	 1.1321
 2.4950	 1.5550
 2.4940	 1.5383
 2.4930	 1.2504
 2.4920	 1.2932
 2.4910	 1.2416
 2.4900	 1.5900
 2.4890	 1.1930
 2.4880	 1.5829
 2.4870	 1.3091
 2.4860	 1.4381
 2.4850	 1.3586
 2.4840	 1.4881
 2.4830	 1.2420
 2.4820	 1.5797
 2.4810	 1.3687
 2.4800	 1.4219
 2.4790	 1.4053
 2.4780	 1.4548
 2.4770	 1.2671
 2.4760	 1.4992
 2.4750	 1.2748
 2.4740	 1.4680
 2.4730	 1.3736
 2.4720	 1.5440
 2.4710	 1.3187
 2.4700	 1.5055
 2.4690	 1.4061
 2.4680	 1.5108
 2.4670	 1.3236
 2.4660	 1.4875
 2.4650	 1.4175
 2.4640	 1.5654
 2.4630	 1.4071
 2.4620	 1.5294
 2.4610	 1.4554
 2.4600	 1.6161
 2.4590	 1.3333
 2.4580	 1.5528
 2.4570	 1.6137
 2.4560	 1.5647
 2.4550	 1.4869
 2.4540	 1.7184
 2.4530	 1.5663
 2.4520	 1.8170
 2.4510	 1.6149
 2.4500	 1.7126
 2.4490	 1.7044
 2.4480	 1.8300
 2.4470	 1.7066
 2.4460	 1.7404
 2.4450	 1.7260
 2.4440	 1.7821
 2.4430	 1.6443
 2.4420	 1.8207
 2.4410	 1.7366
 2.4400	 1.9079
 2.4390	 1.7701
 2.4380	 1.8673
 2.4370	 1.8156
 2.4360	 1.8858
 2.4350	 1.8728
 2.4340	 1.9636
 2.4330	 1.8604
 2.4320	 1.9823
 2.4310	 2.0051
 2.4300	 2.0297
 2.4290	 1.9619
 2.4280	 2.0267
 2.4270	 1.9823
 2.4260	 2.0807
 2.4250	 2.1107
 2.4240	 2.1089
 2.4230	 2.0474
 2.4220	 2.1554
 2.4210	 2.0711
 2.4200	 2.0731
 2.4190	 2.1741
 2.4180	 2.2224
 2.4170	 2.2140
 2.4160	 2.2490
 2.4150	 2.2117
 2.4140	 2.2717
 2.4130	 2.2024
 2.4120	 2.2465
 2.4110	 2.2548
 2.4100	 2.3298
 2.4090	 2.3008
 2.4080	 2.3179
 2.4070	 2.3430
 2.4060	 2.4086
 2.4050	 2.4588
 2.4040	 2.4689
 2.4030	 2.4569
 2.4020	 2.5161
 2.4010	 2.4565
 2.4000	 2.5922
 2.3990	 2.5751
 2.3980	 2.5833
 2.3970	 2.6540
 2.3960	 2.7669
 2.3950	 2.6986
 2.3940	 2.7089
 2.3930	 2.7362
 2.3920	 2.7628
 2.3910	 2.7493
 2.3900	 2.8908
 2.3890	 2.9059
 2.3880	 2.9199
 2.3870	 2.8891
 2.3860	 2.9869
 2.3850	 3.0730
 2.3840	 3.1550
 2.3830	 3.1809
 2.3820	 3.1972
 2.3810	 3.1618
 2.3800	 3.2874
 2.3790	 3.2669
 2.3780	 3.3303
 2.3770	 3.4213
 2.3760	 3.4095
 2.3750	 3.4406
 2.3740	 3.5155
 2.3730	 3.5444
 2.3720	 3.6538
 2.3710	 3.6576
 2.3700	 3.7266
 2.3690	 3.7726
 2.3680	 3.8836
 2.3670	 3.8632
 2.3660	 3.8265
 2.3650	 3.9239
 2.3640	 4.0871
 2.3630	 4.0589
 2.3620	 4.0917
 2.3610	 4.1297
 2.3600	 4.1871
 2.3590	 4.2339
 2.3580	 4.2775
 2.3570	 4.3518
 2.3560	 4.3811
 2.3550	 4.4119
 2.3540	 4.4401
 2.3530	 4.5237
 2.3520	 4.5389
 2.3510	 4.5745
 2.3500	 4.6156
 2.3490	 4.6975
 2.3480	 4.7562
 2.3470	 4.7899
 2.3460	 4.8021
 2.3450	 4.8561
 2.3440	 4.8961
 2.3430	 4.9400
 2.3420	 4.9932
 2.3410	 5.0526
 2.3400	 5.1011
 2.3390	 5.1766
 2.3380	 5.1726
 2.3370	 5.1841
 2.3360	 5.2141
 2.3350	 5.3037
 2.3340	 5.2784
 2.3330	 5.2855
 2.3320	 5.2835
 2.3310	 5.3542
 2.3300	 5.3239
 2.3290	 5.3933
 2.3280	 5.4121
 2.3270	 5.4034
 2.3260	 5.4620
 2.3250	 5.4855
 2.3240	 5.5304
 2.3230	 5.5677
 2.3220	 5.5155
 2.3210	 5.5360
 2.3200	 5.5414
 2.3190	 5.5796
 2.3180	 5.5552
 2.3170	 5.6895
 2.3160	 5.6880
 2.3150	 5.6968
 2.3140	 5.7060
 2.3130	 5.8068
 2.3120	 5.7735
 2.3110	 5.8195
 2.3100	 5.8256
 2.3090	 5.9015
 2.3080	 5.8599
 2.3070	 5.9028
 2.3060	 5.9301
 2.3050	 5.9447
 2.3040	 6.0137
 2.3030	 6.0355
 2.3020	 6.0180
 2.3010	 6.0620
 2.3000	 5.9926
 2.2990	 6.0651
 2.2980	 6.0923
 2.2970	 6.1814
 2.2960	 6.1538
 2.2950	 6.2245
 2.2940	 6.1850
 2.2930	 6.2509
 2.2920	 6.1363
 2.2910	 6.2382
 2.2900	 6.1887
 2.2890	 6.3149
 2.2880	 6.1840
 2.2870	 6.1902
 2.2860	 6.1087
 2.2850	 6.2423
 2.2840	 6.1988
 2.2830	 6.2547
 2.2820	 6.1249
 2.2810	 6.1950
 2.2800	 6.0909
 2.2790	 6.1719
 2.2780	 6.1484
 2.2770	 6.1555
 2.2760	 6.0402
 2.2750	 6.0328
 2.2740	 5.9797
 2.2730	 6.0178
 2.2720	 5.8888
 2.2710	 5.9402
 2.2700	 5.8809
 2.2690	 5.9091
 2.2680	 5.7649
 2.2670	 5.7925
 2.2660	 5.7198
 2.2650	 5.6528
 2.2640	 5.6209
 2.2630	 5.5901
 2.2620	 5.4264
 2.2610	 5.4344
 2.2600	 5.3221
 2.2590	 5.3307
 2.2580	 5.2210
 2.2570	 5.2739
 2.2560	 5.0726
 2.2550	 5.0453
 2.2540	 4.9269
 2.2530	 4.9782
 2.2520	 4.8520
 2.2510	 4.8258
 2.2500	 4.6300
 2.2490	 4.7623
 2.2480	 4.5597
 2.2470	 4.6328
 2.2460	 4.5730
 2.2450	 4.5779
 2.2440	 4.5023
 2.2430	 4.5266
 2.2420	 4.4353
 2.2410	 4.4134
 2.2400	 4.3035
 2.2390	 4.4552
 2.2380	 4.4032
 2.2370	 4.4622
 2.2360	 4.3752
 2.2350	 4.3885
 2.2340	 4.3443
 2.2330	 4.4417
 2.2320	 4.3179
 2.2310	 4.4376
 2.2300	 4.2859
 2.2290	 4.4609
 2.2280	 4.3765
 2.2270	 4.4278
 2.2260	 4.2852
 2.2250	 4.4437
 2.2240	 4.3364
 2.2230	 4.4915
 2.2220	 4.2538
 2.2210	 4.2917
 2.2200	 4.2653
 2.2190	 4.2572
 2.2180	 4.2665
 2.2170	 4.2293
 2.2160	 4.1093
 2.2150	 4.1512
 2.2140	 4.0936
 2.2130	 4.2267
 2.2120	 4.1166
 2.2110	 3.9494
 2.2100	 4.0593
 2.2090	 3.9663
 2.2080	 3.9002
 2.2070	 4.0043
 2.2060	 3.8018
 2.2050	 3.9274
 2.2040	 3.8072
 2.2030	 3.7068
 2.2020	 3.6382
 2.2010	 3.7569
 2.2000	 3.4942
 2.1990	 3.6043
 2.1980	 3.4950
 2.1970	 3.5615
 2.1960	 3.4542
 2.1950	 3.4322
 2.1940	 3.2910
 2.1930	 3.3466
 2.1920	 3.1957
 2.1910	 3.3060
 2.1900	 3.0958
 2.1890	 3.1480
 2.1880	 3.0181
 2.1870	 3.0409
 2.1860	 2.9340
 2.1850	 2.9634
 2.1840	 2.8376
 2.1830	 2.8774
 2.1820	 2.7943
 2.1810	 2.7444
 2.1800	 2.6591
 2.1790	 2.7717
 2.1780	 2.6449
 2.1770	 2.6788
 2.1760	 2.5652
 2.1750	 2.6977
 2.1740	 2.5676
 2.1730	 2.6749
 2.1720	 2.6217
 2.1710	 2.6195
 2.1700	 2.5963
 2.1690	 2.7459
 2.1680	 2.5706
 2.1670	 2.6649
 2.1660	 2.6138
 2.1650	 2.6211
 2.1640	 2.6080
 2.1630	 2.6747
 2.1620	 2.6687
 2.1610	 2.7287
 2.1600	 2.7296
 2.1590	 2.7809
 2.1580	 2.7083
 2.1570	 2.7422
 2.1560	 2.8493
 2.1550	 2.8554
 2.1540	 2.8487
 2.1530	 2.8837
 2.1520	 2.9119
 2.1510	 2.9632
 2.1500	 2.9577
 2.1490	 2.9642
 2.1480	 2.9582
 2.1470	 3.0384
 2.1460	 3.0197
 2.1450	 3.1182
 2.1440	 3.0809
 2.1430	 3.1323
 2.1420	 3.0650
 2.1410	 3.1530
 2.1400	 3.0766
 2.1390	 3.1209
 2.1380	 3.0309
 2.1370	 3.0666
 2.1360	 3.0069
 2.1350	 3.0239
 2.1340	 2.9863
 2.1330	 3.0031
 2.1320	 2.9190
 2.1310	 2.8571
 2.1300	 2.8283
 2.1290	 2.8663
 2.1280	 2.8161
 2.1270	 2.8338
 2.1260	 2.7761
 2.1250	 2.8204
 2.1240	 2.7701
 2.1230	 2.7703
 2.1220	 2.7234
 2.1210	 2.8131
 2.1200	 2.7439
 2.1190	 2.7817
 2.1180	 2.7987
 2.1170	 2.8671
 2.1160	 2.8485
 2.1150	 2.9353
 2.1140	 2.8803
 2.1130	 3.0114
 2.1120	 3.0309
 2.1110	 3.0167
 2.1100	 3.0568
 2.1090	 3.0915
 2.1080	 3.0432
 2.1070	 3.1854
 2.1060	 3.1604
 2.1050	 3.2386
 2.1040	 3.2224
 2.1030	 3.2887
 2.1020	 3.2709
 2.1010	 3.3305
 2.1000	 3.3158
 2.0990	 3.3851
 2.0980	 3.3669
 2.0970	 3.4224
 2.0960	 3.4270
 2.0950	 3.4421
 2.0940	 3.4540
 2.0930	 3.5165
 2.0920	 3.5283
 2.0910	 3.5267
 2.0900	 3.5813
 2.0890	 3.6149
 2.0880	 3.5901
 2.0870	 3.6372
 2.0860	 3.6697
 2.0850	 3.6966
 2.0840	 3.6621
 2.0830	 3.6897
 2.0820	 3.7070
 2.0810	 3.7472
 2.0800	 3.7176
 2.0790	 3.7061
 2.0780	 3.7199
 2.0770	 3.7161
 2.0760	 3.7536
 2.0750	 3.8234
 2.0740	 3.8321
 2.0730	 3.7824
 2.0720	 3.8006
 2.0710	 3.8209
 2.0700	 3.8259
 2.0690	 3.8416
 2.0680	 3.8531
 2.0670	 3.9005
 2.0660	 3.9729
 2.0650	 3.9547
 2.0640	 3.9465
 2.0630	 3.9517
 2.0620	 3.9670
 2.0610	 3.9937
 2.0600	 4.0045
 2.0590	 3.9776
 2.0580	 4.0410
 2.0570	 4.0262
 2.0560	 4.0140
 2.0550	 4.0462
 2.0540	 4.0442
 2.0530	 4.0647
 2.0520	 4.1242
 2.0510	 4.0426
 2.0500	 4.0606
 2.0490	 4.0819
 2.0480	 4.1232
 2.0470	 4.1082
 2.0460	 4.1379
 2.0450	 4.0771
 2.0440	 4.0745
 2.0430	 4.0834
 2.0420	 4.0925
 2.0410	 4.0909
 2.0400	 4.1235
 2.0390	 4.0640
 2.0380	 4.0957
 2.0370	 4.0372
 2.0360	 4.0946
 2.0350	 4.0248
 2.0340	 4.0405
 2.0330	 4.0492
 2.0320	 4.0613
 2.0310	 4.0428
 2.0300	 4.0711
 2.0290	 4.0555
 2.0280	 4.0725
 2.0270	 3.9961
 2.0260	 4.0514
 2.0250	 3.9970
 2.0240	 4.0146
 2.0230	 4.0264
 2.0220	 4.0456
 2.0210	 3.9693
 2.0200	 3.9781
 2.0190	 3.9266
 2.0180	 3.9241
 2.0170	 3.9490
 2.0160	 3.8956
 2.0150	 3.8574
 2.0140	 3.8949
 2.0130	 3.7334
 2.0120	 3.8062
 2.0110	 3.7307
 2.0100	 3.7814
 2.0090	 3.6915
 2.0080	 3.6971
 2.0070	 3.5824
 2.0060	 3.6433
 2.0050	 3.5589
 2.0040	 3.5700
 2.0030	 3.4709
 2.0020	 3.5415
 2.0010	 3.4030
 2.0000	 3.3170
 1.9990	 3.2711
 1.9980	 3.2596
 1.9970	 3.1482
 1.9960	 3.1342
 1.9950	 3.1106
 1.9940	 3.0508
 1.9930	 2.9473
 1.9920	 2.9440
 1.9910	 2.8157
 1.9900	 2.8850
 1.9890	 2.7259
 1.9880	 2.8148
 1.9870	 2.6837
 1.9860	 2.6217
 1.9850	 2.5521
 1.9840	 2.6066
 1.9830	 2.4672
 1.9820	 2.5326
 1.9810	 2.4523
 1.9800	 2.4633
 1.9790	 2.3524
 1.9780	 2.3675
 1.9770	 2.2924
 1.9760	 2.3050
 1.9750	 2.2783
 1.9740	 2.2882
 1.9730	 2.2560
 1.9720	 2.1834
 1.9710	 2.0639
 1.9700	 2.1523
 1.9690	 2.0606
 1.9680	 2.1503
 1.9670	 2.0556
 1.9660	 2.0311
 1.9650	 1.9883
 1.9640	 2.0664
 1.9630	 1.9343
 1.9620	 1.8451
 1.9610	 1.8155
 1.9600	 1.8989
 1.9590	 1.7673
 1.9580	 1.8485
 1.9570	 1.7451
 1.9560	 1.7410
 1.9550	 1.7105
 1.9540	 1.7694
 1.9530	 1.7396
 1.9520	 1.7637
 1.9510	 1.6955
 1.9500	 1.8160
 1.9490	 1.8048
 1.9480	 1.7821
 1.9470	 1.7698
 1.9460	 1.9185
 1.9450	 1.8567
 1.9440	 2.0216
 1.9430	 1.9855
 1.9420	 2.0604
 1.9410	 2.1216
 1.9400	 2.1485
 1.9390	 2.2256
 1.9380	 2.3963
 1.9370	 2.3973
 1.9360	 2.6170
 1.9350	 2.5449
 1.9340	 2.7315
 1.9330	 2.8250
 1.9320	 3.0084
 1.9310	 2.9534
 1.9300	 3.1659
 1.9290	 3.2459
 1.9280	 3.4767
 1.9270	 3.6253
 1.9260	 3.6296
 1.9250	 3.9229
 1.9240	 4.0319
 1.9230	 4.0505
 1.9220	 4.3715
 1.9210	 4.4185
 1.9200	 4.7167
 1.9190	 4.7676
 1.9180	 4.9605
 1.9170	 5.0193
 1.9160	 5.4074
 1.9150	 5.4374
 1.9140	 5.6187
 1.9130	 5.8530
 1.9120	 6.1173
 1.9110	 6.1000
 1.9100	 6.5307
 1.9090	 6.7044
 1.9080	 6.9548
 1.9070	 6.9827
 1.9060	 7.3622
 1.9050	 7.4756
 1.9040	 7.8068
 1.9030	 8.0434
 1.9020	 8.2740
 1.9010	 8.4949
 1.9000	 8.8263
 1.8990	 8.9628
 1.8980	 9.2962
 1.8970	 9.4648
 1.8960	 9.8178
 1.8950	10.0027
 1.8940	10.2690
 1.8930	10.4673
 1.8920	10.7133
 1.8910	10.9013
 1.8900	11.1536
 1.8890	11.3759
 1.8880	11.7094
 1.8870	11.8622
 1.8860	12.1650
 1.8850	12.2719
 1.8840	12.5959
 1.8830	12.6883
 1.8820	12.9663
 1.8810	13.1340
 1.8800	13.4141
 1.8790	13.4684
 1.8780	13.7609
 1.8770	13.8160
 1.8760	14.0971
 1.8750	14.2558
 1.8740	14.4582
 1.8730	14.5726
 1.8720	14.8514
 1.8710	14.9564
 1.8700	15.1984
 1.8690	15.2902
 1.8680	15.6377
 1.8670	15.7140
 1.8660	15.8741
 1.8650	15.9993
 1.8640	16.2016
 1.8630	16.3403
 1.8620	16.4954
 1.8610	16.4713
 1.8600	16.6451
 1.8590	16.7655
 1.8580	16.8764
 1.8570	16.9794
 1.8560	17.0810
 1.8550	17.1296
 1.8540	17.2945
 1.8530	17.3107
 1.8520	17.4593
 1.8510	17.5716
 1.8500	17.7307
 1.8490	17.7224
 1.8480	17.7797
 1.8470	17.8321
 1.8460	17.9650
 1.8450	17.9969
 1.8440	18.0786
 1.8430	18.0890
 1.8420	18.1886
 1.8410	18.2019
 1.8400	18.3201
 1.8390	18.3055
 1.8380	18.3923
 1.8370	18.3567
 1.8360	18.4484
 1.8350	18.5360
 1.8340	18.5566
 1.8330	18.5322
 1.8320	18.6200
 1.8310	18.6323
 1.8300	18.6366
 1.8290	18.6484
 1.8280	18.7377
 1.8270	18.6713
 1.8260	18.7321
 1.8250	18.7523
 1.8240	18.7877
 1.8230	18.7532
 1.8220	18.7733
 1.8210	18.7651
 1.8200	18.7939
 1.8190	18.7514
 1.8180	18.7919
 1.8170	18.7953
 1.8160	18.7835
 1.8150	18.7386
 1.8140	18.7268
 1.8130	18.7519
 1.8120	18.8021
 1.8110	18.7383
 1.8100	18.7435
 1.8090	18.6984
 1.8080	18.5954
 1.8070	18.5733
 1.8060	18.6069
 1.8050	18.5755
 1.8040	18.5865
 1.8030	18.5373
 1.8020	18.4678
 1.8010	18.4350
 1.8000	18.3917
 1.7990	18.3433
 1.7980	18.3425
 1.7970	18.2818
 1.7960	18.2405
 1.7950	18.1550
 1.7940	18.1425
 1.7930	18.1784
 1.7920	18.0862
 1.7910	18.0169
 1.7900	18.0362
 1.7890	17.9615
 1.7880	17.9477
 1.7870	17.8881
 1.7860	17.8187
 1.7850	17.8187
 1.7840	17.8149
 1.7830	17.8064
 1.7820	17.7557
 1.7810	17.7029
 1.7800	17.7040
 1.7790	17.6781
 1.7780	17.6369
 1.7770	17.6959
 1.7760	17.6673
 1.7750	17.6541
 1.7740	17.6657
 1.7730	17.6838
 1.7720	17.7197
 1.7710	17.7460
 1.7700	17.7020
 1.7690	17.7456
 1.7680	17.7531
 1.7670	17.7112
 1.7660	17.7340
 1.7650	17.8229
 1.7640	17.7847
 1.7630	17.7884
 1.7620	17.8252
 1.7610	17.8332
 1.7600	17.8674
 1.7590	17.8906
 1.7580	17.8534
 1.7570	17.9487
 1.7560	17.9534
 1.7550	17.9293
 1.7540	17.9240
 1.7530	17.9612
 1.7520	17.9606
 1.7510	18.0647
 1.7500	18.0129
 1.7490	18.0618
 1.7480	18.1052
 1.7470	18.1362
 1.7460	18.0811
 1.7450	18.1077
 1.7440	18.0987
 1.7430	18.1810
 1.7420	18.1930
 1.7410	18.2407
 1.7400	18.2384
 1.7390	18.2777
 1.7380	18.2735
 1.7370	18.3298
 1.7360	18.3074
 1.7350	18.4107
 1.7340	18.3478
 1.7330	18.3779
 1.7320	18.3293
 1.7310	18.4124
 1.7300	18.4205
 1.7290	18.4127
 1.7280	18.3826
 1.7270	18.4659
 1.7260	18.4591
 1.7250	18.4372
 1.7240	18.4763
 1.7230	18.5587
 1.7220	18.5207
 1.7210	18.6004
 1.7200	18.5635
 1.7190	18.5835
 1.7180	18.5216
 1.7170	18.5843
 1.7160	18.5701
 1.7150	18.6527
 1.7140	18.6074
 1.7130	18.6696
 1.7120	18.6408
 1.7110	18.6588
 1.7100	18.6602
 1.7090	18.7654
 1.7080	18.6968
 1.7070	18.7643
 1.7060	18.7383
 1.7050	18.7623
 1.7040	18.7907
 1.7030	18.8119
 1.7020	18.7568
 1.7010	18.8289
 1.7000	18.7767
 1.6990	18.8838
 1.6980	18.7489
 1.6970	18.8900
 1.6960	18.8419
 1.6950	18.8973
 1.6940	18.8680
 1.6930	18.9151
 1.6920	18.8863
 1.6910	18.9313
 1.6900	18.8346
 1.6890	18.9388
 1.6880	18.9087
 1.6870	18.9840
 1.6860	18.8831
 1.6850	18.9941
 1.6840	18.8809
 1.6830	18.9812
 1.6820	18.9110
 1.6810	19.0236
 1.6800	18.9828
 1.6790	19.0559
 1.6780	19.0343
 1.6770	19.1178
 1.6760	19.0159
 1.6750	19.0871
 1.6740	19.0644
 1.6730	19.1529
 1.6720	19.0452
 1.6710	19.2142
 1.6700	19.1441
 1.6690	19.3070
 1.6680	19.0730
 1.6670	19.3080
 1.6660	19.1859
 1.6650	19.2556
 1.6640	19.2466
 1.6630	19.3424
 1.6620	19.3094
 1.6610	19.4138
 1.6600	19.3247
 1.6590	19.4412
 1.6580	19.3331
 1.6570	19.4636
 1.6560	19.4402
 1.6550	19.5702
 1.6540	19.5405
 1.6530	19.5291
 1.6520	19.5703
 1.6510	19.6092
 1.6500	19.5816
 1.6490	19.6631
 1.6480	19.6386
 1.6470	19.7993
 1.6460	19.6803
 1.6450	19.7385
 1.6440	19.6770
 1.6430	19.8951
 1.6420	19.8521
 1.6410	19.7148
 1.6400	19.9295
 1.6390	19.9175
 1.6380	19.8443
 1.6370	20.0752
 1.6360	19.9522
 1.6350	19.9938
 1.6340	20.0236
 1.6330	20.0803
 1.6320	20.0668
 1.6310	20.1673
 1.6300	20.1478
 1.6290	20.2266
 1.6280	20.1617
 1.6270	20.3544
 1.6260	20.2159
 1.6250	20.3576
 1.6240	20.2736
 1.6230	20.4308
 1.6220	20.3845
 1.6210	20.4083
 1.6200	20.4116
 1.6190	20.5359
 1.6180	20.4994
 1.6170	20.5440
 1.6160	20.5892
 1.6150	20.6673
 1.6140	20.6660
 1.6130	20.7363
 1.6120	20.7204
 1.6110	20.8801
 1.6100	20.7889
 1.6090	20.8827
 1.6080	20.8639
 1.6070	20.9743
 1.6060	20.9850
 1.6050	21.1078
 1.6040	21.0613
 1.6030	21.1397
 1.6020	21.0815
 1.6010	21.2930
 1.6000	21.1971
 1.5990	21.3012
 1.5980	21.3230
 1.5970	21.4415
 1.5960	21.4373
 1.5950	21.5324
 1.5940	21.4390
 1.5930	21.5635
 1.5920	21.5845
 1.5910	21.6793
 1.5900	21.6275
 1.5890	21.6740
 1.5880	21.6783
 1.5870	21.7052
 1.5860	21.7505
 1.5850	21.8331
 1.5840	21.8040
 1.5830	21.8582
 1.5820	21.7537
 1.5810	21.8765
 1.5800	21.8586
 1.5790	21.9172
 1.5780	21.8969
 1.5770	21.9558
 1.5760	21.8541
 1.5750	21.9358
 1.5740	21.8645
 1.5730	21.9510
 1.5720	21.8635
 1.5710	21.9362
 1.5700	21.9038
 1.5690	21.8842
 1.5680	21.8651
 1.5670	21.8822
 1.5660	21.8216
 1.5650	21.8915
 1.5640	21.8045
 1.5630	21.8356
 1.5620	21.8433
 1.5610	21.8393
 1.5600	21.7627
 1.5590	21.7056
 1.5580	21.6916
 1.5570	21.6457
 1.5560	21.6128
 1.5550	21.5921
 1.5540	21.4802
 1.5530	21.4333
 1.5520	21.4082
 1.5510	21.3702
 1.5500	21.2941
 1.5490	21.2294
 1.5480	21.1496
 1.5470	21.0683
 1.5460	20.9998
 1.5450	20.9894
 1.5440	20.8419
 1.5430	20.7970
 1.5420	20.7161
 1.5410	20.7048
 1.5400	20.6413
 1.5390	20.5796
 1.5380	20.5296
 1.5370	20.5403
 1.5360	20.4589
 1.5350	20.4105
 1.5340	20.2844
 1.5330	20.2725
 1.5320	20.2736
 1.5310	20.2674
 1.5300	20.1923
 1.5290	20.1819
 1.5280	20.1405
 1.5270	20.0975
 1.5260	20.0671
 1.5250	20.0083
 1.5240	19.9308
 1.5230	19.9273
 1.5220	19.8482
 1.5210	19.7424
 1.5200	19.6603
 1.5190	19.6068
 1.5180	19.5244
 1.5170	19.4496
 1.5160	19.3837
 1.5150	19.3259
 1.5140	19.1756
 1.5130	19.0450
 1.5120	18.9988
 1.5110	18.8875
 1.5100	18.7332
 1.5090	18.6627
 1.5080	18.5453
 1.5070	18.4458
 1.5060	18.3525
 1.5050	18.2731
 1.5040	18.1881
 1.5030	18.1063
 1.5020	18.0216
 1.5010	17.9787
 1.5000	17.9378
 1.4990	17.8279
 1.4980	17.7487
 1.4970	17.6734
 1.4960	17.5831
 1.4950	17.5069
 1.4940	17.4088
 1.4930	17.3643
 1.4920	17.3043
 1.4910	17.2130
 1.4900	17.1546
 1.4890	17.0379
 1.4880	16.9265
 1.4870	16.8312
 1.4860	16.7172
 1.4850	16.6214
 1.4840	16.5387
 1.4830	16.3926
 1.4820	16.2723
 1.4810	16.0980
 1.4800	15.9863
 1.4790	15.8673
 1.4780	15.8438
 1.4770	15.6860
 1.4760	15.6254
 1.4750	15.5693
 1.4740	15.4085
 1.4730	15.3050
 1.4720	15.2727
 1.4710	15.1593
 1.4700	15.0845
 1.4690	15.0103
 1.4680	15.0230
 1.4670	15.0112
 1.4660	15.0371
 1.4650	15.0358
 1.4640	15.0655
 1.4630	15.0680
 1.4620	15.1604
 1.4610	15.1434
 1.4600	15.2497
 1.4590	15.3452
 1.4580	15.5267
 1.4570	15.5712
 1.4560	15.6811
 1.4550	15.7860
 1.4540	15.9890
 1.4530	16.0718
 1.4520	16.2364
 1.4510	16.3318
 1.4500	16.4652
 1.4490	16.5445
 1.4480	16.7404
 1.4470	16.8450
 1.4460	16.8574
 1.4450	16.8477
 1.4440	16.8809
 1.4430	16.7844
 1.4420	16.6116
 1.4410	16.3738
 1.4400	16.2575
 1.4390	16.0343
 1.4380	15.8982
 1.4370	15.6180
 1.4360	15.5148
 1.4350	15.2256
 1.4340	15.0858
 1.4330	14.8596
 1.4320	14.8074
 1.4310	14.6843
 1.4300	14.8276
 1.4290	14.9436
 1.4280	15.1922
 1.4270	15.4875
 1.4260	15.9477
 1.4250	16.4069
 1.4240	17.0216
 1.4230	17.6117
 1.4220	18.4250
 1.4210	19.1359
 1.4200	20.0119
 1.4190	20.7851
 1.4180	21.5821
 1.4170	22.3117
 1.4160	23.2017
 1.4150	23.9097
 1.4140	24.7308
 1.4130	25.4746
 1.4120	26.3236
 1.4110	27.0099
 1.4100	27.8776
 1.4090	28.7561
 1.4080	29.6532
 1.4070	30.4045
 1.4060	31.3179
 1.4050	32.1901
 1.4040	33.0850
 1.4030	33.8228
 1.4020	34.6412
 1.4010	35.2728
 1.4000	36.0224
 1.3990	36.5319
 1.3980	37.0610
 1.3970	37.6094
 1.3960	38.1191
 1.3950	38.7713
 1.3940	39.5169
 1.3930	40.2085
 1.3920	41.0841
 1.3910	41.7811
 1.3900	42.4202
 1.3890	42.8764
 1.3880	43.5479
 1.3870	43.9430
 1.3860	44.4707
 1.3850	44.8280
 1.3840	45.3602
 1.3830	45.7151
 1.3820	46.0633
 1.3810	46.3672
 1.3800	46.7193
 1.3790	46.9354
 1.3780	47.2459
 1.3770	47.4730
 1.3760	47.7396
 1.3750	47.9300
 1.3740	48.1930
 1.3730	48.3202
 1.3720	48.6706
 1.3710	48.7187
 1.3700	48.9727
 1.3690	49.0667
 1.3680	49.2995
 1.3670	49.3774
 1.3660	49.5443
 1.3650	49.6254
 1.3640	49.7803
 1.3630	49.8853
 1.3620	50.0005
 1.3610	50.0733
 1.3600	50.2181
 1.3590	50.3424
 1.3580	50.4240
 1.3570	50.5049
 1.3560	50.5843
 1.3550	50.5888
 1.3540	50.7548
 1.3530	50.7919
 1.3520	51.0006
 1.3510	50.9648
 1.3500	51.1588
 1.3490	51.1777
 1.3480	51.3782
 1.3470	51.4569
 1.3460	51.6913
 1.3450	51.7866
 1.3440	51.9225
 1.3430	52.2219
 1.3420	52.4314
 1.3410	52.5150
 1.3400	52.8254
 1.3390	52.9662
 1.3380	53.2218
 1.3370	53.4683
 1.3360	53.7237
 1.3350	54.0689
 1.3340	54.3516
 1.3330	54.5409
 1.3320	54.8252
 1.3310	55.1291
 1.3300	55.4391
 1.3290	55.6363
 1.3280	55.9865
 1.3270	56.2744
 1.3260	56.5491
 1.3250	56.7788
 1.3240	57.0849
 1.3230	57.3258
 1.3220	57.6927
 1.3210	57.9538
 1.3200	58.2329
 1.3190	58.4260
 1.3180	58.7154
 1.3170	58.9902
 1.3160	59.2395
 1.3150	59.4783
 1.3140	59.7486
 1.3130	59.9427
 1.3120	60.1459
 1.3110	60.3719
 1.3100	60.7080
 1.3090	60.8751
 1.3080	61.1305
 1.3070	61.2827
 1.3060	61.5066
 1.3050	61.6939
 1.3040	61.8397
 1.3030	61.9912
 1.3020	62.2698
 1.3010	62.2913
 1.3000	62.4594
 1.2990	62.6091
 1.2980	62.7780
 1.2970	62.8232
 1.2960	62.9722
 1.2950	63.0933
 1.2940	63.1795
 1.2930	63.2501
 1.2920	63.3946
 1.2910	63.4150
 1.2900	63.4359
 1.2890	63.4983
 1.2880	63.5737
 1.2870	63.6270
 1.2860	63.7248
 1.2850	63.7491
 1.2840	63.8017
 1.2830	63.7435
 1.2820	63.7647
 1.2810	63.7754
 1.2800	63.7819
 1.2790	63.7765
 1.2780	63.8055
 1.2770	63.7848
 1.2760	63.7634
 1.2750	63.7035
 1.2740	63.7264
 1.2730	63.6034
 1.2720	63.5730
 1.2710	63.5297
 1.2700	63.4960
 1.2690	63.4973
 1.2680	63.5225
 1.2670	63.4156
 1.2660	63.3754
 1.2650	63.4509
 1.2640	63.4004
 1.2630	63.3278
 1.2620	63.3178
 1.2610	63.2850
 1.2600	63.2171
 1.2590	63.1608
 1.2580	63.1309
 1.2570	63.0496
 1.2560	63.0171
 1.2550	62.9716
 1.2540	62.8742
 1.2530	62.8378
 1.2520	62.8355
 1.2510	62.7888
 1.2500	62.7547
 1.2490	62.7389
 1.2480	62.7479
 1.2470	62.7704
 1.2460	62.8003
 1.2450	62.7446
 1.2440	62.7367
 1.2430	62.8398
 1.2420	62.8718
 1.2410	62.8346
 1.2400	62.8538
 1.2390	62.8568
 1.2380	62.8867
 1.2370	62.8852
 1.2360	62.8681
 1.2350	62.8337
 1.2340	62.8389
 1.2330	62.8004
 1.2320	62.8322
 1.2310	62.8285
 1.2300	62.7973
 1.2290	62.8439
 1.2280	62.9024
 1.2270	62.9774
 1.2260	63.0624
 1.2250	63.0790
 1.2240	63.1348
 1.2230	63.1692
 1.2220	63.2666
 1.2210	63.3409
 1.2200	63.3626
 1.2190	63.4295
 1.2180	63.4578
 1.2170	63.4538
 1.2160	63.5564
 1.2150	63.5988
 1.2140	63.6158
 1.2130	63.7138
 1.2120	63.7818
 1.2110	63.8032
 1.2100	63.8436
 1.2090	63.8846
 1.2080	63.9248
 1.2070	63.9702
 1.2060	64.0604
 1.2050	64.1386
 1.2040	64.1729
 1.2030	64.2176
 1.2020	64.2880
 1.2010	64.3826
 1.2000	64.4768
 1.1990	64.5237
 1.1980	64.5537
 1.1970	64.6881
 1.1960	64.7539
 1.1950	64.8083
 1.1940	64.9183
 1.1930	65.0864
 1.1920	65.2398
 1.1910	65.3747
 1.1900	65.4787
 1.1890	65.6341
 1.1880	65.7404
 1.1870	65.9787
 1.1860	66.1876
 1.1850	66.3974
 1.1840	66.6984
 1.1830	66.9451
 1.1820	67.1821
 1.1810	67.4755
 1.1800	67.7840
 1.1790	68.0667
 1.1780	68.3744
 1.1770	68.7300
 1.1760	69.0196
 1.1750	69.3662
 1.1740	69.7089
 1.1730	70.0755
 1.1720	70.3322
 1.1710	70.7040
 1.1700	71.0818
 1.1690	71.5046
 1.1680	71.8258
 1.1670	72.1876
 1.1660	72.5905
 1.1650	72.9284
 1.1640	73.2160
 1.1630	73.5844
 1.1620	73.8992
 1.1610	74.2785
 1.1600	74.5732
 1.1590	74.8780
 1.1580	75.1668
 1.1570	75.5008
 1.1560	75.7768
 1.1550	75.9900
 1.1540	76.2584
 1.1530	76.5443
 1.1520	76.8177
 1.1510	77.0355
 1.1500	77.2126
 1.1490	77.4645
 1.1480	77.6639
 1.1470	77.8544
 1.1460	78.0236
 1.1450	78.3014
 1.1440	78.4023
 1.1430	78.6063
 1.1420	78.7640
 1.1410	78.9065
 1.1400	78.9944
 1.1390	79.1147
 1.1380	79.3000
 1.1370	79.3945
 1.1360	79.4978
 1.1350	79.5592
 1.1340	79.6638
 1.1330	79.7987
 1.1320	79.9041
 1.1310	80.0056
 1.1300	80.0483
 1.1290	80.1221
 1.1280	80.0828
 1.1270	80.2074
 1.1260	80.2692
 1.1250	80.3010
 1.1240	80.3226
 1.1230	80.4283
 1.1220	80.5424
 1.1210	80.5265
 1.1200	80.5521
 1.1190	80.6438
 1.1180	80.6839
 1.1170	80.7550
 1.1160	80.7599
 1.1150	80.7652
 1.1140	80.8199
 1.1130	80.9016
 1.1120	80.9419
 1.1110	81.0138
 1.1100	80.9644
 1.1090	81.0356
 1.1080	81.0737
 1.1070	81.1856
 1.1060	81.3365
 1.1050	81.2447
 1.1040	81.2655
 1.1030	81.2856
 1.1020	81.3383
 1.1010	81.3954
 1.1000	81.3702
 1.0990	81.5024
 1.0980	81.5228
 1.0970	81.5503
 1.0960	81.4743
 1.0950	81.5840
 1.0940	81.6360
 1.0930	81.7283
 1.0920	81.6242
 1.0910	81.8036
 1.0900	81.7202
 1.0890	81.8215
 1.0880	81.7653
 1.0870	81.8348
 1.0860	81.8176
 1.0850	81.8893
 1.0840	81.9155
 1.0830	81.8724
 1.0820	82.0141
 1.0810	82.0258
 1.0800	81.9486
 1.0790	82.0411
 1.0780	81.9469
 1.0770	82.0577
 1.0760	82.0281
 1.0750	82.0767
 1.0740	81.9909
 1.0730	81.9659
 1.0720	81.9430
 1.0710	82.0512
 1.0700	82.0331
 1.0690	81.9877
 1.0680	81.8938
 1.0670	81.8582
 1.0660	81.9690
 1.0650	81.8888
 1.0640	81.8472
 1.0630	81.8947
 1.0620	81.7902
 1.0610	81.7839
 1.0600	81.7131
 1.0590	81.6848
 1.0580	81.5399
 1.0570	81.5484
 1.0560	81.5443
 1.0550	81.4264
 1.0540	81.3618
 1.0530	81.3563
 1.0520	81.2741
 1.0510	81.2540
 1.0500	81.1056
 1.0490	81.0565
 1.0480	80.9483
 1.0470	80.9193
 1.0460	80.8765
 1.0450	80.7546
 1.0440	80.6333
 1.0430	80.5235
 1.0420	80.4444
 1.0410	80.3995
 1.0400	80.2732
 1.0390	80.2250
 1.0380	80.0668
 1.0370	80.0472
 1.0360	79.9388
 1.0350	79.8162
 1.0340	79.7299
 1.0330	79.6430
 1.0320	79.5066
 1.0310	79.3366
 1.0300	79.2108
 1.0290	79.1079
 1.0280	79.0157
 1.0270	78.9278
 1.0260	78.7832
 1.0250	78.6865
 1.0240	78.5460
 1.0230	78.4592
 1.0220	78.3529
 1.0210	78.2559
 1.0200	78.1526
 1.0190	78.0750
 1.0180	77.8504
 1.0170	77.8210
 1.0160	77.7237
 1.0150	77.6474
 1.0140	77.4987
 1.0130	77.3682
 1.0120	77.2477
 1.0110	77.2170
 1.0100	77.1885
 1.0090	77.0202
 1.0080	76.9502
 1.0070	76.8782
 1.0060	76.6986
 1.0050	76.6266
 1.0040	76.6300
 1.0030	76.5437
 1.0020	76.3693
 1.0010	76.3637
 1.0000	76.2528
 0.9990	76.1089
 0.9980	76.0720
 0.9970	76.0780
 0.9960	75.9280
 0.9950	75.8961
 0.9940	75.7181
 0.9930	75.6410
 0.9920	75.5741
 0.9910	75.3633
 0.9900	75.3120
 0.9890	75.1014
 0.9880	74.8619
 0.9870	74.7483
 0.9860	74.5406
 0.9850	74.3361
 0.9840	74.0432
 0.9830	73.7618
 0.9820	73.4779
 0.9810	73.2724
 0.9800	73.0831
 0.9790	72.9548
 0.9780	72.8814
 0.9770	72.9155
 0.9760	72.9609
 0.9750	73.1956
 0.9740	73.5403
 0.9730	73.8824
 0.9720	74.2402
 0.9710	74.6279
 0.9700	75.0285
 0.9690	75.4945
 0.9680	75.9418
 0.9670	76.4065
 0.9660	76.8280
 0.9650	77.2458
 0.9640	77.6310
 0.9630	77.9855
 0.9620	78.3904
 0.9610	78.8063
 0.9600	79.1236
 0.9590	79.4368
 0.9580	79.7192
 0.9570	80.0056
 0.9560	80.2823
 0.9550	80.5420
 0.9540	80.7836
 0.9530	80.9375
 0.9520	81.1197
 0.9510	81.3468
 0.9500	81.5423
 0.9490	81.7105
 0.9480	81.8544
 0.9470	81.9795
 0.9460	82.0763
 0.9450	82.2639
 0.9440	82.4021
 0.9430	82.4732
 0.9420	82.5824
 0.9410	82.7112
 0.9400	82.7755
 0.9390	82.8632
 0.9380	82.9623
 0.9370	83.0209
 0.9360	83.0693
 0.9350	83.0791
 0.9340	83.1300
 0.9330	83.2346
 0.9320	83.3230
 0.9310	83.3791
 0.9300	83.4460
 0.9290	83.5125
 0.9280	83.5281
 0.9270	83.6186
 0.9260	83.7364
 0.9250	83.8144
 0.9240	83.8218
 0.9230	83.8401
 0.9220	83.9158
 0.9210	83.9442
 0.9200	83.9893
 0.9190	84.0887
 0.9180	84.1308
 0.9170	84.1344
 0.9160	84.1673
 0.9150	84.1850
 0.9140	84.2025
 0.9130	84.2157
 0.9120	84.2347
 0.9110	84.2585
 0.9100	84.2854
 0.9090	84.3042
 0.9080	84.3133
 0.9070	84.2889
 0.9060	84.3231
 0.9050	84.3126
 0.9040	84.3502
 0.9030	84.4160
 0.9020	84.4069
 0.9010	84.3654
 0.9000	84.3611
 0.8990	84.3862
 0.8980	84.4210
 0.8970	84.3566
 0.8960	84.4140
 0.8950	84.4570
 0.8940	84.4659
 0.8930	84.4827
 0.8920	84.4803
 0.8910	84.4653
 0.8900	84.5123
 0.8890	84.5296
 0.8880	84.5165
 0.8870	84.5437
 0.8860	84.6186
 0.8850	84.6545
 0.8840	84.6657
 0.8830	84.6899
 0.8820	84.7362
 0.8810	84.7856
 0.8800	84.8026
 0.8790	84.7735
 0.8780	84.7595
 0.8770	84.8533
 0.8760	84.9418
 0.8750	84.8919
 0.8740	84.8485
 0.8730	84.9245
 0.8720	84.9613
 0.8710	84.9378
 0.8700	84.9856
 0.8690	84.9520
 0.8680	84.9081
 0.8670	84.9286
 0.8660	85.0262
 0.8650	84.9848
 0.8640	84.9908
 0.8630	85.0806
 0.8620	85.1037
 0.8610	85.1420
 0.8600	84.7779
 0.8590	84.8970
 0.8580	85.0190
 0.8570	84.8504
 0.8560	84.9833
 0.8550	85.1351
 0.8540	84.9831
 0.8530	84.9889
 0.8520	85.0520
 0.8510	85.0367
 0.8500	85.0421
 0.8490	85.1401
 0.8480	85.1491
 0.8470	85.0965
 0.8460	85.2273
 0.8450	85.2737
 0.8440	85.1699
 0.8430	85.3203
 0.8420	85.3041
 0.8410	85.2305
 0.8400	85.3400
 0.8390	85.3776
 0.8380	85.3499
 0.8370	85.3595
 0.8360	85.3853
 0.8350	85.3162
 0.8340	85.3484
 0.8330	85.3791
 0.8320	85.4123
 0.8310	85.4368
 0.8300	85.4782
 0.8290	85.4011
 0.8280	85.3844
 0.8270	85.4969
 0.8260	85.4140
 0.8250	85.3881
 0.8240	85.4763
 0.8230	85.4715
 0.8220	85.3909
 0.8210	85.4379
 0.8200	85.4418
 0.8190	85.3956
 0.8180	85.4333
 0.8170	85.4942
 0.8160	85.4750
 0.8150	85.4185
 0.8140	85.4339
 0.8130	85.4342
 0.8120	85.3678
 0.8110	85.4738
 0.8100	85.3558
 0.8090	85.3525
 0.8080	85.3896
 0.8070	85.4177
 0.8060	85.3814
 0.8050	85.3726
 0.8040	85.3965
 0.8030	85.3172
 0.8020	85.3436
 0.8010	85.3576
 0.8000	85.3385
 0.7990	85.2880
 0.7980	85.3102
 0.7970	85.2090
 0.7960	85.2178
 0.7950	85.2379
 0.7940	85.1884
 0.7930	85.1824
 0.7920	85.2325
 0.7910	85.1641
 0.7900	85.1432
 0.7890	85.2180
 0.7880	85.1731
 0.7870	85.1415
 0.7860	85.1605
 0.7850	85.1482
 0.7840	85.1297
 0.7830	85.1222
 0.7820	85.1070
 0.7810	85.0264
 0.7800	85.0875
 0.7790	85.1431
 0.7780	85.0449
 0.7770	85.0528
 0.7760	85.0579
 0.7750	84.9963
 0.7740	84.9826
 0.7730	85.0121
 0.7720	85.0011
 0.7710	84.9878
 0.7700	84.9851
 0.7690	84.9663
 0.7680	84.9657
 0.7670	84.9371
 0.7660	84.9205
 0.7650	84.9175
 0.7640	84.9514
 0.7630	84.9051
 0.7620	84.8890
 0.7610	84.8845
 0.7600	84.8536
 0.7590	84.8418
 0.7580	84.8587
 0.7570	84.8208
 0.7560	84.8118
 0.7550	84.7852
 0.7540	84.7884
 0.7530	84.7574
 0.7520	84.7579
 0.7510	84.7896
 0.7500	84.7751
 0.7490	84.8170
 0.7480	84.8235
 0.7470	84.8764
 0.7460	84.9044
 0.7450	84.9364
 0.7440	84.9920
 0.7430	85.0582
 0.7420	85.1262
 0.7410	85.1582
 0.7400	85.1945
 0.7390	85.2435
 0.7380	85.2461
 0.7370	85.2971
 0.7360	85.2941
 0.7350	85.3690
 0.7340	85.4094
 0.7330	85.4030
 0.7320	85.4512
 0.7310	85.4542
 0.7300	85.4734
 0.7290	85.5291
 0.7280	85.5325
 0.7270	85.4948
 0.7260	85.5155
 0.7250	85.5507
 0.7240	85.5419
 0.7230	85.5468
 0.7220	85.5747
 0.7210	85.5598
 0.7200	85.5854
 0.7190	85.6008
 0.7180	85.6106
 0.7170	85.6200
 0.7160	85.6246
 0.7150	85.6279
 0.7140	85.6345
 0.7130	85.6629
 0.7120	85.6481
 0.7110	85.6557
 0.7100	85.6590
 0.7090	85.6689
 0.7080	85.6606
 0.7070	85.6758
 0.7060	85.6671
 0.7050	85.6856
 0.7040	85.6845
 0.7030	85.6762
 0.7020	85.6951
 0.7010	85.7068
 0.7000	85.6959
 0.6990	85.7027
 0.6980	85.6981
 0.6970	85.6946
 0.6960	85.7052
 0.6950	85.7135
 0.6940	85.7218
 0.6930	85.7464
 0.6920	85.7449
 0.6910	85.7274
 0.6900	85.7279
 0.6890	85.7246
 0.6880	85.7206
 0.6870	85.7353
 0.6860	85.7378
 0.6850	85.7411
 0.6840	85.7313
 0.6830	85.7258
 0.6820	85.7409
 0.6810	85.7352
 0.6800	85.7348
 0.6790	85.7354
 0.6780	85.7396
 0.6770	85.7507
 0.6760	85.7429
 0.6750	85.7372
 0.6740	85.7326
 0.6730	85.7458
 0.6720	85.7456
 0.6710	85.7520
 0.6700	85.7468
 0.6690	85.7357
 0.6680	85.7492
 0.6670	85.7492
 0.6660	85.7458
 0.6650	85.7551
 0.6640	85.7513
 0.6630	85.7406
 0.6620	85.7417
 0.6610	85.7466
 0.6600	85.7371
 0.6590	85.7319
 0.6580	85.7324
 0.6570	85.7281
 0.6560	85.7127
 0.6550	85.7243
 0.6540	85.7326
 0.6530	85.7381
 0.6520	85.7484
 0.6510	85.7585
 0.6500	85.7428
 0.6490	85.7281
 0.6480	85.7334
 0.6470	85.7212
 0.6460	85.7208
 0.6450	85.7248
 0.6440	85.7103
 0.6430	85.7239
 0.6420	85.7307
 0.6410	85.7245
 0.6400	85.7245
 0.6390	85.7221
 0.6380	85.7220
 0.6370	85.7007
 0.6360	85.7042
 0.6350	85.7119
 0.6340	85.7043
 0.6330	85.7003
 0.6320	85.6986
 0.6310	85.7030
 0.6300	85.6961
 0.6290	85.6920
 0.6280	85.6925
 0.6270	85.6868
 0.6260	85.6795
 0.6250	85.6815
 0.6240	85.6906
 0.6230	85.6805
 0.6220	85.6634
 0.6210	85.6640
 0.6200	85.6692
 0.6190	85.6724
 0.6180	85.6610
 0.6170	85.6495
 0.6160	85.6429
 0.6150	85.6471
 0.6140	85.6491
 0.6130	85.6434
 0.6120	85.6470
 0.6110	85.6593
 0.6100	85.6580
 0.6090	85.6570
 0.6080	85.6524
 0.6070	85.6574
 0.6060	85.6679
 0.6050	85.6649
 0.6040	85.6664
 0.6030	85.6631
 0.6020	85.6587
 0.6010	85.6542
 0.6000	85.6453
 0.5990	85.6575
 0.5980	85.6729
 0.5970	85.6894
 0.5960	85.6999
 0.5950	85.6877
 0.5940	85.6924
 0.5930	85.7124
 0.5920	85.6937
 0.5910	85.6785
 0.5900	85.6955
 0.5890	85.6939
 0.5880	85.6860
 0.5870	85.6761
 0.5860	85.6640
 0.5850	85.6425
 0.5840	85.6363
 0.5830	85.6401
 0.5820	85.6338
 0.5810	85.6299
 0.5800	85.6205
 0.5790	85.6127
 0.5780	85.6197
 0.5770	85.6173
 0.5760	85.5971
 0.5750	85.5893
 0.5740	85.5963
 0.5730	85.5766
 0.5720	85.5746
 0.5710	85.5864
 0.5700	85.5607
 0.5690	85.5507
 0.5680	85.5512
 0.5670	85.5453
 0.5660	85.5336
 0.5650	85.5332
 0.5640	85.5157
 0.5630	85.5077
 0.5620	85.4944
 0.5610	85.4631
 0.5600	85.4368
 0.5590	85.4192
 0.5580	85.4137
 0.5570	85.4299
 0.5560	85.3963
 0.5550	85.3859
 0.5540	85.3712
 0.5530	85.3532
 0.5520	85.3345
 0.5510	85.3205
 0.5500	85.3080
 0.5490	85.3014
 0.5480	85.2892
 0.5470	85.2590
 0.5460	85.2519
 0.5450	85.2399
 0.5440	85.2300
 0.5430	85.2068
 0.5420	85.1962
 0.5410	85.1667
 0.5400	85.1597
 0.5390	85.1399
 0.5380	85.1155
 0.5370	85.0902
 0.5360	85.0693
 0.5350	85.0674
 0.5340	85.0419
 0.5330	85.0340
 0.5320	85.0167
 0.5310	84.9747
 0.5300	84.9896
 0.5290	84.9550
 0.5280	84.9206
 0.5270	84.8959
 0.5260	84.8661
 0.5250	84.8518
 0.5240	84.8123
 0.5230	84.7995
 0.5220	84.7966
 0.5210	84.7596
 0.5200	84.7297
 0.5190	84.7188
 0.5180	84.6851
 0.5170	84.6509
 0.5160	84.6247
 0.5150	84.5912
 0.5140	84.5661
 0.5130	84.5255
 0.5120	84.4875
 0.5110	84.4711
 0.5100	84.4417
 0.5090	84.3955
 0.5080	84.3627
 0.5070	84.3344
 0.5060	84.2930
 0.5050	84.2324
 0.5040	84.2177
 0.5030	84.1777
 0.5020	84.1098
 0.5010	84.0570
 0.5000	84.0496
 0.4990	84.0143
 0.4980	83.9454
 0.4970	83.9353
 0.4960	83.8399
 0.4950	83.8223
 0.4940	83.7761
 0.4930	83.7430
 0.4920	83.6440
 0.4910	83.6116
 0.4900	83.5876
 0.4890	83.4984
 0.4880	83.4447
 0.4870	83.4249
 0.4860	83.3445
 0.4850	83.3113
 0.4840	83.2146
 0.4830	83.1604
 0.4820	83.1408
 0.4810	83.1126
 0.4800	83.0875
 0.4790	83.0573
 0.4780	83.0141
 0.4770	83.0066
 0.4760	82.9628
 0.4750	82.9062
 0.4740	82.8635
 0.4730	82.8141
 0.4720	82.7795
 0.4710	82.7382
 0.4700	82.6803
 0.4690	82.6738
 0.4680	82.6114
 0.4670	82.5492
 0.4660	82.5232
 0.4650	82.4553
 0.4640	82.4138
 0.4630	82.3850
 0.4620	82.3433
 0.4610	82.2785
 0.4600	82.2252
 0.4590	82.1682
 0.4580	82.1087
 0.4570	82.0638
 0.4560	82.0178
 0.4550	81.9710
 0.4540	81.9142
 0.4530	81.8505
 0.4520	81.8199
 0.4510	81.7460
 0.4500	81.7083
 0.4490	81.6382
 0.4480	81.6195
 0.4470	81.5422
 0.4460	81.4835
 0.4450	81.4335
 0.4440	81.3773
 0.4430	81.3348
 0.4420	81.2988
 0.4410	81.2220
 0.4400	81.1915
 0.4390	81.1403
 0.4380	81.0956
 0.4370	81.0456
 0.4360	80.9805
 0.4350	80.9132
 0.4340	80.9041
 0.4330	80.8541
 0.4320	80.7857
 0.4310	80.7447
 0.4300	80.6806
 0.4290	80.6283
 0.4280	80.6033
 0.4270	80.5087
 0.4260	80.4560
 0.4250	80.4292
 0.4240	80.3631
 0.4230	80.3060
 0.4220	80.2757
 0.4210	80.2232
 0.4200	80.1406
 0.4190	80.1057
 0.4180	80.0671
 0.4170	79.9988
 0.4160	79.9372
 0.4150	79.8913
 0.4140	79.8364
 0.4130	79.7517
 0.4120	79.7056
 0.4110	79.6457
 0.4100	79.5859
 0.4090	79.5384
 0.4080	79.4762
 0.4070	79.3983
 0.4060	79.3432
 0.4050	79.2830
 0.4040	79.2039
 0.4030	79.1460
 0.4020	79.0863
 0.4010	79.0175
 0.4000	78.9574
