Name: Vermiculite (Mg,Fe^2+,Al)_3(Al,Si)_4O_10(OH)_2.4H_2O
Type: Mineral
Class: Silicate
Subclass: Phyllosilicate
Particle Size: Fine
Sample No.: PS-18A
Owner: JPL
Wavelength Range: VSWIR
Origin: USA, Texas, Llano County, Llano
Collection Date: N/A
Description: Particle size was 0-45um.Collected by Clay Mineral Society Original ASTER Spectral Library name was jpl.beckman.mineral.silicate.phyllosilicate.fine.ps18a.spectrum.txt
Measurement: Hemispherical reflectance
First Column: X
Second Column: Y
X Units: Wavelength (micrometers)
Y Units:Reflectance (percent)
First X Value:  0.4000
Last X Value:  2.5000
Number of X Values: 826
Additional Information: mineral.silicate.phyllosilicate.fine.vswir.ps-18a.jpl.beckman.ancillary.txt

 0.4000	54.8600
 0.4010	55.2600
 0.4020	55.2600
 0.4030	55.0300
 0.4040	55.3200
 0.4050	55.7200
 0.4060	55.8400
 0.4070	55.8400
 0.4080	55.7200
 0.4090	55.8900
 0.4100	56.3400
 0.4110	56.5200
 0.4120	56.5200
 0.4130	56.4600
 0.4140	56.6300
 0.4150	56.9200
 0.4160	57.0300
 0.4170	57.1500
 0.4180	57.0300
 0.4190	57.0900
 0.4200	57.4800
 0.4210	57.5400
 0.4220	57.7100
 0.4230	57.6000
 0.4240	57.6600
 0.4250	57.9400
 0.4260	58.1100
 0.4270	58.1700
 0.4280	58.2900
 0.4290	58.2300
 0.4300	58.4600
 0.4310	58.7500
 0.4320	58.9100
 0.4330	58.8600
 0.4340	58.9100
 0.4350	59.0200
 0.4360	59.3700
 0.4370	59.4800
 0.4380	59.6000
 0.4390	59.3700
 0.4400	59.5400
 0.4410	59.8900
 0.4420	60.1100
 0.4430	60.1700
 0.4440	60.0600
 0.4450	60.1700
 0.4460	60.5100
 0.4470	60.6800
 0.4480	60.7400
 0.4490	60.6800
 0.4500	60.5600
 0.4510	60.9100
 0.4520	61.2500
 0.4530	61.2500
 0.4540	61.2000
 0.4550	60.9800
 0.4560	61.3100
 0.4570	61.5400
 0.4580	61.6700
 0.4590	61.6700
 0.4600	61.5500
 0.4610	61.6700
 0.4620	61.8400
 0.4630	62.1300
 0.4640	62.1300
 0.4650	62.0100
 0.4660	62.1300
 0.4670	62.1300
 0.4680	62.3100
 0.4690	62.4200
 0.4700	62.4200
 0.4710	62.4200
 0.4720	62.5300
 0.4730	62.8800
 0.4740	63.0000
 0.4750	62.9400
 0.4760	63.0000
 0.4770	63.0000
 0.4780	63.3400
 0.4790	63.4600
 0.4800	63.5100
 0.4810	63.4600
 0.4820	63.4000
 0.4830	63.7000
 0.4840	63.9200
 0.4850	63.9200
 0.4860	63.7500
 0.4870	63.7000
 0.4880	64.1000
 0.4890	64.3300
 0.4900	64.3900
 0.4910	64.2100
 0.4920	64.2700
 0.4930	64.3900
 0.4940	64.7300
 0.4950	64.6700
 0.4960	64.6200
 0.4970	64.5000
 0.4980	64.8500
 0.4990	65.3100
 0.5000	65.2600
 0.5010	65.1400
 0.5020	65.0800
 0.5030	65.4300
 0.5040	65.6500
 0.5050	65.7600
 0.5060	65.6500
 0.5070	65.5900
 0.5080	65.8200
 0.5090	66.1100
 0.5100	66.2200
 0.5110	66.1700
 0.5120	66.0500
 0.5130	66.3400
 0.5140	66.6300
 0.5150	66.6800
 0.5160	66.5700
 0.5170	66.4000
 0.5180	66.6800
 0.5190	66.9100
 0.5200	67.0800
 0.5210	66.9700
 0.5220	66.8600
 0.5230	66.9700
 0.5240	67.3600
 0.5250	67.5300
 0.5260	67.3600
 0.5270	67.2500
 0.5280	67.3600
 0.5290	67.4200
 0.5300	67.7100
 0.5310	67.7100
 0.5320	67.5300
 0.5330	67.7100
 0.5340	67.8800
 0.5350	67.9900
 0.5360	67.9400
 0.5370	67.7600
 0.5380	67.9400
 0.5390	68.0500
 0.5400	68.4500
 0.5410	68.2800
 0.5420	67.9900
 0.5430	68.1700
 0.5440	68.3400
 0.5450	68.7900
 0.5460	68.7400
 0.5470	68.5100
 0.5480	68.4000
 0.5490	68.6300
 0.5500	68.9000
 0.5510	68.8500
 0.5520	68.7400
 0.5530	68.8500
 0.5540	68.9600
 0.5550	69.3100
 0.5560	69.2500
 0.5570	69.0200
 0.5580	69.1300
 0.5590	69.3100
 0.5600	69.1300
 0.5610	69.7100
 0.5620	69.5900
 0.5630	69.5300
 0.5640	69.7100
 0.5650	69.8200
 0.5660	69.9400
 0.5670	69.7600
 0.5680	69.5900
 0.5690	69.6500
 0.5700	69.7600
 0.5710	69.9400
 0.5720	69.8200
 0.5730	69.6500
 0.5740	69.7600
 0.5750	69.7600
 0.5760	69.9400
 0.5770	69.8200
 0.5780	69.8200
 0.5790	69.9900
 0.5800	69.9400
 0.5810	70.1700
 0.5820	70.1100
 0.5830	69.9400
 0.5840	69.9400
 0.5850	70.1700
 0.5860	70.2800
 0.5870	70.1700
 0.5880	69.9900
 0.5890	70.2200
 0.5900	70.3400
 0.5910	70.5000
 0.5920	70.4000
 0.5930	70.2800
 0.5940	70.3400
 0.5950	70.5600
 0.5960	70.6700
 0.5970	70.5000
 0.5980	70.4000
 0.5990	70.5600
 0.6000	70.7900
 0.6010	70.9000
 0.6020	70.6200
 0.6030	70.7300
 0.6040	70.7900
 0.6050	70.9600
 0.6060	71.0200
 0.6070	70.8500
 0.6080	70.6700
 0.6090	70.8500
 0.6100	71.1300
 0.6110	71.0200
 0.6120	70.9600
 0.6130	70.8500
 0.6140	71.0200
 0.6150	71.1300
 0.6160	71.1900
 0.6170	71.0800
 0.6180	70.9600
 0.6190	70.9600
 0.6200	71.1300
 0.6210	71.1900
 0.6220	71.0200
 0.6230	71.0200
 0.6240	71.1900
 0.6250	71.3100
 0.6260	71.4200
 0.6270	71.2500
 0.6280	71.1300
 0.6290	71.2500
 0.6300	71.4200
 0.6310	71.5400
 0.6320	71.4200
 0.6330	71.3100
 0.6340	71.3600
 0.6350	71.5400
 0.6360	71.7100
 0.6370	71.5400
 0.6380	71.3600
 0.6390	71.4800
 0.6400	71.5400
 0.6410	71.6500
 0.6420	71.5400
 0.6430	71.4800
 0.6440	71.6500
 0.6450	71.8200
 0.6460	71.9400
 0.6470	71.8200
 0.6480	71.6500
 0.6490	71.8200
 0.6500	71.9400
 0.6510	72.0500
 0.6520	71.9900
 0.6530	71.8200
 0.6540	71.9400
 0.6550	72.1600
 0.6560	72.2700
 0.6570	72.1600
 0.6580	72.0500
 0.6590	72.0500
 0.6600	72.2700
 0.6610	72.3900
 0.6620	72.2700
 0.6630	72.1600
 0.6640	72.2700
 0.6650	72.3900
 0.6660	72.5600
 0.6670	72.3900
 0.6680	72.3900
 0.6690	72.3300
 0.6700	72.5000
 0.6710	72.7900
 0.6720	72.5600
 0.6730	72.5000
 0.6740	72.6200
 0.6750	72.6700
 0.6760	72.7900
 0.6770	72.7300
 0.6780	72.6200
 0.6790	72.6700
 0.6800	72.9000
 0.6810	73.0200
 0.6820	72.9000
 0.6830	72.7300
 0.6840	72.8500
 0.6850	72.9600
 0.6860	73.0200
 0.6870	72.7900
 0.6880	72.7300
 0.6890	72.9000
 0.6900	73.1900
 0.6910	73.1900
 0.6920	73.0800
 0.6930	72.8500
 0.6940	72.9600
 0.6950	73.1900
 0.6960	73.4200
 0.6970	73.1300
 0.6980	73.0800
 0.6990	73.1300
 0.7000	73.1300
 0.7010	73.0200
 0.7020	72.9000
 0.7030	73.0800
 0.7040	73.2500
 0.7050	73.4200
 0.7060	73.1900
 0.7070	73.0200
 0.7080	73.2500
 0.7090	73.4800
 0.7100	73.5900
 0.7110	73.4800
 0.7120	73.3100
 0.7130	73.3100
 0.7140	73.4800
 0.7150	73.7100
 0.7160	73.6500
 0.7170	73.5400
 0.7180	73.5400
 0.7190	73.5400
 0.7200	73.8100
 0.7210	73.8700
 0.7220	73.5900
 0.7230	73.5900
 0.7240	73.7100
 0.7250	73.9300
 0.7260	73.9800
 0.7270	73.9300
 0.7280	73.8100
 0.7290	73.7600
 0.7300	73.9800
 0.7310	73.9300
 0.7320	73.8700
 0.7330	73.8700
 0.7340	73.8700
 0.7350	74.0400
 0.7360	74.1600
 0.7370	73.9300
 0.7380	73.9800
 0.7390	73.8700
 0.7400	74.0400
 0.7410	74.2700
 0.7420	74.2700
 0.7430	74.2100
 0.7440	73.9300
 0.7450	74.0400
 0.7460	74.2700
 0.7470	74.2100
 0.7480	74.1600
 0.7490	74.0400
 0.7500	74.2700
 0.7510	74.5000
 0.7520	74.4400
 0.7530	74.3900
 0.7540	74.1600
 0.7550	74.3300
 0.7560	74.5000
 0.7570	74.5000
 0.7580	74.3900
 0.7590	74.2100
 0.7600	74.4400
 0.7610	74.6200
 0.7620	74.6700
 0.7630	74.5600
 0.7640	74.3900
 0.7650	74.4400
 0.7660	74.6700
 0.7670	74.7900
 0.7680	74.6700
 0.7690	74.4400
 0.7700	74.6700
 0.7710	74.6700
 0.7720	74.9000
 0.7730	74.6700
 0.7740	74.5600
 0.7750	74.5000
 0.7760	74.6700
 0.7770	74.8500
 0.7780	74.8500
 0.7790	74.7300
 0.7800	74.7300
 0.7810	74.8500
 0.7820	75.0800
 0.7830	75.0200
 0.7840	74.9600
 0.7850	74.8500
 0.7860	74.7900
 0.7870	74.9600
 0.7880	75.1300
 0.7890	74.9000
 0.7900	74.8500
 0.7910	74.7900
 0.7920	75.0200
 0.7930	75.2500
 0.7940	75.0800
 0.7950	75.1300
 0.7960	75.0200
 0.7970	75.1900
 0.7980	75.3100
 0.7990	75.4100
 0.8000	75.4200
 0.8040	75.4700
 0.8080	75.5300
 0.8120	75.6400
 0.8160	75.6400
 0.8200	75.7000
 0.8240	75.7600
 0.8280	75.6400
 0.8320	75.7600
 0.8360	75.8100
 0.8400	75.8700
 0.8440	75.9300
 0.8480	75.8700
 0.8520	76.1000
 0.8560	76.0400
 0.8600	76.0400
 0.8640	76.0400
 0.8680	76.0400
 0.8720	76.1600
 0.8760	76.1000
 0.8800	76.2200
 0.8840	76.1000
 0.8880	76.1000
 0.8920	76.1600
 0.8960	76.3300
 0.9000	76.2700
 0.9040	76.1000
 0.9080	76.1600
 0.9120	76.1600
 0.9160	76.1600
 0.9200	76.2200
 0.9240	76.4400
 0.9280	76.3300
 0.9320	76.3900
 0.9360	76.3900
 0.9400	76.3300
 0.9440	76.2200
 0.9480	76.1600
 0.9520	76.2700
 0.9560	76.3900
 0.9600	76.6200
 0.9640	76.4400
 0.9680	76.7900
 0.9720	76.6200
 0.9760	76.5600
 0.9800	76.7300
 0.9840	76.7900
 0.9880	76.7300
 0.9920	76.7900
 0.9960	76.9000
 1.0000	76.8500
 1.0040	76.7900
 1.0080	76.9000
 1.0120	76.9600
 1.0160	77.0700
 1.0200	76.9000
 1.0240	77.0700
 1.0280	77.0700
 1.0320	77.0700
 1.0360	77.0700
 1.0400	77.1200
 1.0440	77.3000
 1.0480	77.1800
 1.0520	77.2400
 1.0560	77.1800
 1.0600	77.1800
 1.0640	77.3000
 1.0680	77.3500
 1.0720	77.3000
 1.0760	77.2400
 1.0800	77.3000
 1.0840	77.3500
 1.0880	77.4700
 1.0920	77.3500
 1.0960	77.5800
 1.1000	77.4100
 1.1040	77.4700
 1.1080	77.4700
 1.1120	77.4700
 1.1160	77.5300
 1.1200	77.5800
 1.1240	77.6400
 1.1280	77.7000
 1.1320	77.5800
 1.1360	77.6400
 1.1400	77.6400
 1.1440	77.8100
 1.1480	77.5800
 1.1520	77.6400
 1.1560	77.6900
 1.1600	77.6900
 1.1640	77.6200
 1.1680	77.7800
 1.1720	77.7800
 1.1760	77.7700
 1.1800	77.6500
 1.1840	77.8200
 1.1880	77.8700
 1.1920	77.8100
 1.1960	77.8600
 1.2000	77.7900
 1.2040	78.0200
 1.2080	77.9600
 1.2120	77.9100
 1.2160	77.9600
 1.2200	77.9100
 1.2240	77.8500
 1.2280	77.9600
 1.2320	78.1400
 1.2360	78.0200
 1.2400	78.0200
 1.2440	78.0800
 1.2480	78.1900
 1.2520	78.0800
 1.2560	78.2400
 1.2600	78.1700
 1.2640	78.0000
 1.2680	77.9300
 1.2720	78.0500
 1.2760	77.9200
 1.2800	77.8600
 1.2840	77.9700
 1.2880	77.9600
 1.2920	78.0800
 1.2960	78.0700
 1.3000	78.1700
 1.3040	78.1600
 1.3080	78.2100
 1.3120	78.2100
 1.3160	78.3700
 1.3200	78.3100
 1.3240	78.0200
 1.3280	78.1800
 1.3320	78.1200
 1.3360	78.1100
 1.3400	78.0000
 1.3440	77.9900
 1.3480	77.9200
 1.3520	77.5300
 1.3560	77.3000
 1.3600	77.3000
 1.3640	77.3500
 1.3680	77.1800
 1.3720	76.6600
 1.3760	75.2500
 1.3800	72.6300
 1.3840	70.1200
 1.3880	69.0400
 1.3920	69.2100
 1.3960	70.4100
 1.4000	71.8900
 1.4040	73.1400
 1.4080	73.9500
 1.4120	74.4600
 1.4160	74.6400
 1.4200	74.7600
 1.4240	74.8300
 1.4280	74.7800
 1.4320	74.8400
 1.4360	75.0100
 1.4400	75.0800
 1.4440	75.1500
 1.4480	75.3200
 1.4520	75.3800
 1.4560	75.4900
 1.4600	75.4900
 1.4640	75.6600
 1.4680	75.6600
 1.4720	75.8900
 1.4760	75.8900
 1.4800	76.0100
 1.4840	76.0700
 1.4880	76.1800
 1.4920	76.2800
 1.4960	76.3400
 1.5000	76.4600
 1.5040	76.6900
 1.5080	76.5700
 1.5120	76.8000
 1.5160	76.8000
 1.5200	76.9200
 1.5240	76.9200
 1.5280	77.0300
 1.5320	77.1500
 1.5360	77.2000
 1.5400	77.2000
 1.5440	77.3200
 1.5480	77.4300
 1.5520	77.3200
 1.5560	77.5400
 1.5600	77.3800
 1.5640	77.5400
 1.5680	77.6000
 1.5720	77.6500
 1.5760	77.5400
 1.5800	77.5400
 1.5840	77.4900
 1.5880	77.7100
 1.5920	77.6000
 1.5960	77.7100
 1.6000	77.6500
 1.6040	77.7100
 1.6080	77.7600
 1.6120	77.7600
 1.6160	77.5800
 1.6200	77.6800
 1.6240	77.6700
 1.6280	77.6700
 1.6320	77.4400
 1.6360	77.6600
 1.6400	77.6500
 1.6440	77.5800
 1.6480	77.4700
 1.6520	77.6300
 1.6560	77.6300
 1.6600	77.5600
 1.6640	77.6100
 1.6680	77.5400
 1.6720	77.4900
 1.6760	77.4300
 1.6800	77.5300
 1.6840	77.4700
 1.6880	77.4000
 1.6920	77.2900
 1.6960	77.4600
 1.7000	77.3900
 1.7040	77.4500
 1.7080	77.2700
 1.7120	77.2700
 1.7160	77.3300
 1.7200	77.2700
 1.7240	77.2200
 1.7280	77.2200
 1.7320	77.1600
 1.7360	77.2200
 1.7400	76.9900
 1.7440	77.1600
 1.7480	77.1000
 1.7520	77.1000
 1.7560	77.1000
 1.7600	76.9900
 1.7640	76.9900
 1.7680	76.8100
 1.7720	76.9900
 1.7760	76.8700
 1.7800	76.8700
 1.7840	76.7600
 1.7880	76.8100
 1.7920	76.8100
 1.7960	76.8700
 1.8000	76.7600
 1.8040	76.7900
 1.8080	76.7700
 1.8120	76.6900
 1.8160	76.6000
 1.8200	76.4600
 1.8240	76.6200
 1.8280	76.6400
 1.8320	76.4400
 1.8360	76.5900
 1.8400	76.4000
 1.8440	76.2100
 1.8480	76.1800
 1.8520	76.1100
 1.8560	75.9300
 1.8600	75.8700
 1.8640	75.4700
 1.8680	75.0600
 1.8720	74.6100
 1.8760	74.0900
 1.8800	73.3400
 1.8840	72.6100
 1.8880	71.6900
 1.8920	70.7900
 1.8960	69.6500
 1.9000	68.6200
 1.9040	67.8200
 1.9080	66.9100
 1.9120	66.2900
 1.9160	65.7800
 1.9200	65.5400
 1.9240	65.3600
 1.9280	65.4100
 1.9320	65.4700
 1.9360	65.5200
 1.9400	65.6900
 1.9440	65.9100
 1.9480	66.0700
 1.9520	66.1800
 1.9560	66.4900
 1.9600	66.5900
 1.9640	66.8000
 1.9680	66.7800
 1.9720	67.0500
 1.9760	67.3100
 1.9800	67.4700
 1.9840	67.6200
 1.9880	67.8800
 1.9920	68.2100
 1.9960	68.4700
 2.0000	68.8000
 2.0040	69.0200
 2.0080	69.1800
 2.0120	69.3700
 2.0160	69.7400
 2.0200	69.8200
 2.0240	70.1000
 2.0280	70.1500
 2.0320	70.4400
 2.0360	70.5900
 2.0400	70.8300
 2.0440	71.0000
 2.0480	71.2800
 2.0520	71.4600
 2.0560	71.5400
 2.0600	71.6300
 2.0640	71.7600
 2.0680	71.6700
 2.0720	71.8200
 2.0760	71.8400
 2.0800	71.9800
 2.0840	71.7800
 2.0880	71.8700
 2.0920	71.7200
 2.0960	71.8100
 2.1000	71.7800
 2.1040	71.8100
 2.1080	71.8200
 2.1120	72.0200
 2.1160	72.0500
 2.1200	72.1200
 2.1240	72.2400
 2.1280	72.2200
 2.1320	72.3100
 2.1360	72.3100
 2.1400	72.5300
 2.1440	72.7300
 2.1480	72.8100
 2.1520	72.9600
 2.1560	72.9200
 2.1600	73.0900
 2.1640	73.0700
 2.1680	73.1600
 2.1720	73.0900
 2.1760	73.0600
 2.1800	72.9800
 2.1840	72.9900
 2.1880	72.8800
 2.1920	72.6600
 2.1960	72.4900
 2.2000	72.4400
 2.2040	72.3300
 2.2080	72.1000
 2.2120	71.8400
 2.2160	71.4700
 2.2200	71.2800
 2.2240	70.8900
 2.2280	70.4900
 2.2320	70.0900
 2.2360	69.4900
 2.2400	69.1900
 2.2440	68.7400
 2.2480	68.3400
 2.2520	67.9400
 2.2560	67.5800
 2.2600	67.0400
 2.2640	66.8800
 2.2680	66.2600
 2.2720	65.8000
 2.2760	65.3200
 2.2800	64.9100
 2.2840	64.2100
 2.2880	63.5600
 2.2920	62.9000
 2.2960	62.2400
 2.3000	61.5800
 2.3040	60.8200
 2.3080	60.5300
 2.3120	59.9400
 2.3160	59.6300
 2.3200	59.3800
 2.3240	59.4500
 2.3280	59.5100
 2.3320	59.9600
 2.3360	60.4200
 2.3400	60.9700
 2.3440	61.6700
 2.3480	62.2600
 2.3520	62.7800
 2.3560	63.0900
 2.3600	63.3300
 2.3640	63.3100
 2.3680	63.2300
 2.3720	63.1100
 2.3760	62.6600
 2.3800	62.4400
 2.3840	62.0300
 2.3880	61.7300
 2.3920	61.4400
 2.3960	61.3300
 2.4000	61.1100
 2.4040	60.8800
 2.4080	60.5900
 2.4120	60.3800
 2.4160	60.2600
 2.4200	60.0300
 2.4240	59.7500
 2.4280	59.4100
 2.4320	59.3600
 2.4360	59.0200
 2.4400	58.8400
 2.4440	58.5100
 2.4480	58.3900
 2.4520	58.0600
 2.4560	57.6700
 2.4600	57.5500
 2.4640	57.1000
 2.4680	56.7100
 2.4720	56.3300
 2.4760	56.0500
 2.4800	55.5500
 2.4840	55.3200
 2.4880	54.7600
 2.4920	54.4800
 2.4960	54.2100
 2.5000	53.8100
