Name: Saponite (Ca/2,Na)_0.33(Mg,Fe^2+)_3(Si,Al)_4O_10(OH)_2.4H_2O
Type: Mineral
Class: Silicate
Subclass: Phyllosilicate
Particle Size: Fine
Sample No.: PS-24A
Owner: JPL
Wavelength Range: VSWIR
Origin: USA, California, Ballarat.
Collection Date: N/A
Description: Particle size was 0-45um. Collected by:  Clay Mineral Society Original ASTER Spectral Library name was jpl.perkin.mineral.silicate.phyllosilicate.fine.ps24a.spectrum.txt
Measurement: Hemispherical reflectance
First Column: X
Second Column: Y
X Units: Wavelength (micrometers)
Y Units:Reflectance (percent)
First X Value:  2.5000
Last X Value:  0.4000
Number of X Values: 2101
Additional Information: mineral.silicate.phyllosilicate.fine.vswir.ps-24a.jpl.perkin.ancillary.txt

 2.5000	43.6337
 2.4990	43.7657
 2.4980	43.7285
 2.4970	43.8851
 2.4960	43.4581
 2.4950	43.9805
 2.4940	43.8325
 2.4930	44.0667
 2.4920	44.1247
 2.4910	44.2290
 2.4900	44.2252
 2.4890	44.3715
 2.4880	44.2821
 2.4870	44.6448
 2.4860	44.5665
 2.4850	44.8197
 2.4840	44.7467
 2.4830	44.9252
 2.4820	44.9060
 2.4810	44.9711
 2.4800	45.0861
 2.4790	45.2484
 2.4780	45.2510
 2.4770	45.4273
 2.4760	45.2021
 2.4750	45.5065
 2.4740	45.4286
 2.4730	45.6150
 2.4720	45.5644
 2.4710	45.6118
 2.4700	45.5373
 2.4690	45.6625
 2.4680	45.5772
 2.4670	45.9062
 2.4660	45.8454
 2.4650	45.9148
 2.4640	45.8169
 2.4630	46.0171
 2.4620	46.0353
 2.4610	46.4739
 2.4600	46.2549
 2.4590	46.4216
 2.4580	46.5640
 2.4570	46.6548
 2.4560	46.7555
 2.4550	47.0456
 2.4540	47.0956
 2.4530	47.2113
 2.4520	47.4296
 2.4510	47.5351
 2.4500	47.5116
 2.4490	47.9143
 2.4480	47.9202
 2.4470	48.1956
 2.4460	48.2721
 2.4450	48.4225
 2.4440	48.4986
 2.4430	48.6601
 2.4420	48.7835
 2.4410	48.9875
 2.4400	49.0289
 2.4390	49.1784
 2.4380	49.1980
 2.4370	49.3242
 2.4360	49.5492
 2.4350	49.7445
 2.4340	49.8110
 2.4330	49.9038
 2.4320	49.9229
 2.4310	50.1760
 2.4300	50.2662
 2.4290	50.3814
 2.4280	50.5083
 2.4270	50.6322
 2.4260	50.8056
 2.4250	50.9116
 2.4240	51.0453
 2.4230	51.1858
 2.4220	51.2495
 2.4210	51.4332
 2.4200	51.5107
 2.4190	51.7407
 2.4180	51.8804
 2.4170	52.0473
 2.4160	52.1107
 2.4150	52.3004
 2.4140	52.4749
 2.4130	52.6385
 2.4120	52.6621
 2.4110	52.8493
 2.4100	52.8500
 2.4090	52.8663
 2.4080	52.8255
 2.4070	52.8485
 2.4060	52.8948
 2.4050	52.8895
 2.4040	52.7919
 2.4030	52.6864
 2.4020	52.5524
 2.4010	52.5413
 2.4000	52.3411
 2.3990	52.2658
 2.3980	52.1057
 2.3970	52.0229
 2.3960	51.8214
 2.3950	51.7285
 2.3940	51.6848
 2.3930	51.5507
 2.3920	51.4441
 2.3910	51.4495
 2.3900	51.4115
 2.3890	51.3434
 2.3880	51.3123
 2.3870	51.3498
 2.3860	51.4296
 2.3850	51.5397
 2.3840	51.6457
 2.3830	51.8167
 2.3820	52.0587
 2.3810	52.2872
 2.3800	52.5107
 2.3790	52.8279
 2.3780	53.1319
 2.3770	53.4132
 2.3760	53.7351
 2.3750	54.1418
 2.3740	54.4348
 2.3730	54.7877
 2.3720	55.1189
 2.3710	55.4410
 2.3700	55.7074
 2.3690	56.1283
 2.3680	56.5140
 2.3670	56.7772
 2.3660	57.0815
 2.3650	57.3215
 2.3640	57.5999
 2.3630	57.9468
 2.3620	58.1748
 2.3610	58.3304
 2.3600	58.5432
 2.3590	58.7067
 2.3580	58.8844
 2.3570	59.0422
 2.3560	59.1740
 2.3550	59.2914
 2.3540	59.4180
 2.3530	59.5401
 2.3520	59.6683
 2.3510	59.7798
 2.3500	59.8896
 2.3490	59.9716
 2.3480	59.9742
 2.3470	59.9927
 2.3460	60.0764
 2.3450	60.1480
 2.3440	60.1857
 2.3430	60.1588
 2.3420	60.0715
 2.3410	59.9495
 2.3400	59.8638
 2.3390	59.7317
 2.3380	59.6068
 2.3370	59.4275
 2.3360	59.2210
 2.3350	58.9314
 2.3340	58.6484
 2.3330	58.2876
 2.3320	57.8488
 2.3310	57.4242
 2.3300	56.9566
 2.3290	56.4965
 2.3280	55.9646
 2.3270	55.3654
 2.3260	54.8247
 2.3250	54.1965
 2.3240	53.5835
 2.3230	53.0509
 2.3220	52.4565
 2.3210	51.8569
 2.3200	51.3705
 2.3190	50.9472
 2.3180	50.5438
 2.3170	50.1672
 2.3160	49.9075
 2.3150	49.6330
 2.3140	49.3854
 2.3130	49.1963
 2.3120	49.3012
 2.3110	49.3201
 2.3100	49.5301
 2.3090	49.7603
 2.3080	50.0539
 2.3070	50.4213
 2.3060	50.6995
 2.3050	51.1016
 2.3040	51.6058
 2.3030	51.9090
 2.3020	52.3085
 2.3010	52.7425
 2.3000	53.1187
 2.2990	53.4180
 2.2980	53.7865
 2.2970	54.0031
 2.2960	54.2920
 2.2950	54.6051
 2.2940	54.8553
 2.2930	55.1160
 2.2920	55.5079
 2.2910	55.7341
 2.2900	56.0313
 2.2890	56.4093
 2.2880	56.8232
 2.2870	57.2362
 2.2860	57.6798
 2.2850	58.2044
 2.2840	58.7883
 2.2830	59.3124
 2.2820	59.9272
 2.2810	60.4519
 2.2800	61.1232
 2.2790	61.6164
 2.2780	62.2344
 2.2770	62.8340
 2.2760	63.3763
 2.2750	63.9044
 2.2740	64.4164
 2.2730	64.7469
 2.2720	65.1931
 2.2710	65.5901
 2.2700	66.0112
 2.2690	66.2902
 2.2680	66.7006
 2.2670	66.8926
 2.2660	67.2271
 2.2650	67.5416
 2.2640	67.7302
 2.2630	67.9269
 2.2620	68.1590
 2.2610	68.3831
 2.2600	68.5947
 2.2590	68.6399
 2.2580	68.7776
 2.2570	68.9211
 2.2560	69.1867
 2.2550	69.1763
 2.2540	69.3452
 2.2530	69.4319
 2.2520	69.5389
 2.2510	69.5201
 2.2500	69.6314
 2.2490	69.6949
 2.2480	69.7901
 2.2470	69.8853
 2.2460	69.9442
 2.2450	69.9706
 2.2440	70.0154
 2.2430	70.0490
 2.2420	70.0752
 2.2410	70.1664
 2.2400	70.1937
 2.2390	70.2461
 2.2380	70.3201
 2.2370	70.2855
 2.2360	70.3419
 2.2350	70.3226
 2.2340	70.4137
 2.2330	70.4436
 2.2320	70.5896
 2.2310	70.5519
 2.2300	70.6680
 2.2290	70.6883
 2.2280	70.7983
 2.2270	70.8694
 2.2260	70.8544
 2.2250	70.9970
 2.2240	71.0159
 2.2230	71.0431
 2.2220	71.1224
 2.2210	71.1483
 2.2200	71.2414
 2.2190	71.4236
 2.2180	71.3374
 2.2170	71.3217
 2.2160	71.4743
 2.2150	71.4308
 2.2140	71.5160
 2.2130	71.5540
 2.2120	71.5079
 2.2110	71.6078
 2.2100	71.6228
 2.2090	71.5756
 2.2080	71.7035
 2.2070	71.7678
 2.2060	71.7660
 2.2050	71.6803
 2.2040	71.8184
 2.2030	71.7865
 2.2020	71.8823
 2.2010	71.8436
 2.2000	71.8726
 2.1990	71.8298
 2.1980	71.7926
 2.1970	71.8797
 2.1960	71.9239
 2.1950	71.8805
 2.1940	71.9531
 2.1930	72.0497
 2.1920	71.9880
 2.1910	71.9027
 2.1900	71.9845
 2.1890	71.9713
 2.1880	71.9936
 2.1870	72.1075
 2.1860	72.0160
 2.1850	72.0649
 2.1840	72.0125
 2.1830	71.9978
 2.1820	72.0400
 2.1810	71.9805
 2.1800	71.9460
 2.1790	72.0471
 2.1780	72.0144
 2.1770	72.0513
 2.1760	72.0527
 2.1750	72.0915
 2.1740	72.0501
 2.1730	72.0716
 2.1720	72.0865
 2.1710	72.1495
 2.1700	72.1477
 2.1690	72.1539
 2.1680	72.1265
 2.1670	72.1035
 2.1660	72.2349
 2.1650	72.1897
 2.1640	72.2774
 2.1630	72.3134
 2.1620	72.3042
 2.1610	72.2303
 2.1600	72.2934
 2.1590	72.2824
 2.1580	72.3991
 2.1570	72.3781
 2.1560	72.4231
 2.1550	72.3853
 2.1540	72.4863
 2.1530	72.4792
 2.1520	72.4381
 2.1510	72.3082
 2.1500	72.4337
 2.1490	72.3609
 2.1480	72.3203
 2.1470	72.3526
 2.1460	72.3578
 2.1450	72.2149
 2.1440	72.2690
 2.1430	72.2413
 2.1420	72.2525
 2.1410	72.2324
 2.1400	72.2113
 2.1390	72.2300
 2.1380	72.1571
 2.1370	71.9962
 2.1360	71.9965
 2.1350	71.8714
 2.1340	71.7927
 2.1330	71.7891
 2.1320	71.7372
 2.1310	71.6356
 2.1300	71.5025
 2.1290	71.4831
 2.1280	71.4876
 2.1270	71.3530
 2.1260	71.2932
 2.1250	71.2155
 2.1240	71.2699
 2.1230	71.2226
 2.1220	71.1632
 2.1210	71.0004
 2.1200	70.9068
 2.1190	70.9071
 2.1180	70.8613
 2.1170	70.7781
 2.1160	70.7252
 2.1150	70.6345
 2.1140	70.5830
 2.1130	70.5455
 2.1120	70.4776
 2.1110	70.4839
 2.1100	70.4538
 2.1090	70.4435
 2.1080	70.3610
 2.1070	70.3024
 2.1060	70.2588
 2.1050	70.2140
 2.1040	70.1609
 2.1030	70.1487
 2.1020	70.1011
 2.1010	70.0130
 2.1000	69.9682
 2.0990	69.8975
 2.0980	69.8829
 2.0970	69.9757
 2.0960	69.9253
 2.0950	69.8534
 2.0940	69.8122
 2.0930	69.7687
 2.0920	69.7488
 2.0910	69.7066
 2.0900	69.7406
 2.0890	69.7904
 2.0880	69.7159
 2.0870	69.6880
 2.0860	69.7155
 2.0850	69.7157
 2.0840	69.6644
 2.0830	69.6816
 2.0820	69.7408
 2.0810	69.7631
 2.0800	69.7521
 2.0790	69.7442
 2.0780	69.7367
 2.0770	69.7508
 2.0760	69.7774
 2.0750	69.7341
 2.0740	69.7309
 2.0730	69.7078
 2.0720	69.6893
 2.0710	69.6580
 2.0700	69.6038
 2.0690	69.5573
 2.0680	69.5180
 2.0670	69.4998
 2.0660	69.4535
 2.0650	69.4008
 2.0640	69.3681
 2.0630	69.3565
 2.0620	69.2791
 2.0610	69.1911
 2.0600	69.1482
 2.0590	69.0610
 2.0580	68.9995
 2.0570	68.9660
 2.0560	68.9114
 2.0550	68.9486
 2.0540	68.8819
 2.0530	68.8064
 2.0520	68.6752
 2.0510	68.6329
 2.0500	68.6060
 2.0490	68.5113
 2.0480	68.4200
 2.0470	68.3555
 2.0460	68.2938
 2.0450	68.2809
 2.0440	68.1766
 2.0430	68.0787
 2.0420	67.9789
 2.0410	67.9006
 2.0400	67.7683
 2.0390	67.6657
 2.0380	67.5718
 2.0370	67.5119
 2.0360	67.3781
 2.0350	67.2243
 2.0340	67.1340
 2.0330	67.0409
 2.0320	66.9053
 2.0310	66.7607
 2.0300	66.5822
 2.0290	66.4691
 2.0280	66.3854
 2.0270	66.2051
 2.0260	66.0171
 2.0250	65.9214
 2.0240	65.7413
 2.0230	65.6417
 2.0220	65.4581
 2.0210	65.3084
 2.0200	65.1254
 2.0190	64.9379
 2.0180	64.7286
 2.0170	64.6586
 2.0160	64.5393
 2.0150	64.3155
 2.0140	64.0917
 2.0130	63.9198
 2.0120	63.7417
 2.0110	63.6427
 2.0100	63.4102
 2.0090	63.1857
 2.0080	63.0511
 2.0070	62.8359
 2.0060	62.6396
 2.0050	62.4595
 2.0040	62.2746
 2.0030	62.1751
 2.0020	61.9569
 2.0010	61.7407
 2.0000	61.4907
 1.9990	61.3171
 1.9980	61.1418
 1.9970	60.9008
 1.9960	60.6682
 1.9950	60.5271
 1.9940	60.2886
 1.9930	60.0606
 1.9920	59.7918
 1.9910	59.6294
 1.9900	59.3924
 1.9890	59.1770
 1.9880	59.0042
 1.9870	58.8250
 1.9860	58.5139
 1.9850	58.3678
 1.9840	58.1210
 1.9830	57.8818
 1.9820	57.7059
 1.9810	57.6283
 1.9800	57.3162
 1.9790	57.1700
 1.9780	56.8575
 1.9770	56.8446
 1.9760	56.5134
 1.9750	56.3945
 1.9740	56.2326
 1.9730	56.0614
 1.9720	55.7585
 1.9710	55.5912
 1.9700	55.4202
 1.9690	55.2438
 1.9680	55.0837
 1.9670	54.9551
 1.9660	54.7637
 1.9650	54.6571
 1.9640	54.4595
 1.9630	54.3567
 1.9620	54.2055
 1.9610	54.0777
 1.9600	53.8432
 1.9590	53.8675
 1.9580	53.6553
 1.9570	53.4644
 1.9560	53.3133
 1.9550	53.2491
 1.9540	53.0930
 1.9530	53.0237
 1.9520	52.8384
 1.9510	52.8606
 1.9500	52.6935
 1.9490	52.6168
 1.9480	52.4453
 1.9470	52.3949
 1.9460	52.2444
 1.9450	52.0701
 1.9440	51.9136
 1.9430	51.8550
 1.9420	51.6884
 1.9410	51.5204
 1.9400	51.3750
 1.9390	51.3206
 1.9380	51.0353
 1.9370	50.8911
 1.9360	50.6661
 1.9350	50.6046
 1.9340	50.2997
 1.9330	50.1278
 1.9320	49.7341
 1.9310	49.5782
 1.9300	49.2282
 1.9290	49.0701
 1.9280	48.6638
 1.9270	48.5758
 1.9260	47.8955
 1.9250	47.7363
 1.9240	47.1321
 1.9230	46.8932
 1.9220	46.3675
 1.9210	45.9664
 1.9200	45.4468
 1.9190	45.1584
 1.9180	44.5807
 1.9170	44.1715
 1.9160	43.6509
 1.9150	43.3117
 1.9140	42.7379
 1.9130	42.4335
 1.9120	42.0180
 1.9110	41.8222
 1.9100	41.4192
 1.9090	41.2775
 1.9080	40.9262
 1.9070	40.8801
 1.9060	40.8107
 1.9050	40.9564
 1.9040	40.9914
 1.9030	41.3922
 1.9020	41.7224
 1.9010	42.3702
 1.9000	42.9363
 1.8990	43.6271
 1.8980	44.4852
 1.8970	45.3830
 1.8960	46.3950
 1.8950	47.5102
 1.8940	48.6507
 1.8930	49.8730
 1.8920	51.0074
 1.8910	52.3023
 1.8900	53.6581
 1.8890	55.0691
 1.8880	56.2810
 1.8870	57.6149
 1.8860	58.7851
 1.8850	60.0597
 1.8840	61.2137
 1.8830	62.1830
 1.8820	63.2377
 1.8810	64.2690
 1.8800	65.0636
 1.8790	65.9796
 1.8780	66.6931
 1.8770	67.4584
 1.8760	68.2005
 1.8750	68.9112
 1.8740	69.6113
 1.8730	70.2982
 1.8720	71.0407
 1.8710	71.6230
 1.8700	72.2316
 1.8690	72.8443
 1.8680	73.3087
 1.8670	73.6690
 1.8660	74.2097
 1.8650	74.4882
 1.8640	74.7960
 1.8630	75.1124
 1.8620	75.3661
 1.8610	75.6192
 1.8600	75.9265
 1.8590	76.1564
 1.8580	76.4014
 1.8570	76.7120
 1.8560	76.8466
 1.8550	77.0573
 1.8540	77.2147
 1.8530	77.4019
 1.8520	77.5289
 1.8510	77.6697
 1.8500	77.8294
 1.8490	77.9616
 1.8480	78.0585
 1.8470	78.1214
 1.8460	78.3010
 1.8450	78.4069
 1.8440	78.4715
 1.8430	78.5871
 1.8420	78.6521
 1.8410	78.8285
 1.8400	78.8654
 1.8390	78.9647
 1.8380	79.0145
 1.8370	79.1227
 1.8360	79.1292
 1.8350	79.2286
 1.8340	79.2211
 1.8330	79.2861
 1.8320	79.2701
 1.8310	79.3026
 1.8300	79.4739
 1.8290	79.5465
 1.8280	79.6244
 1.8270	79.6504
 1.8260	79.5908
 1.8250	79.6174
 1.8240	79.7158
 1.8230	79.7689
 1.8220	79.7863
 1.8210	79.8377
 1.8200	79.8623
 1.8190	79.8600
 1.8180	79.8707
 1.8170	79.9286
 1.8160	79.9869
 1.8150	80.0492
 1.8140	80.0727
 1.8130	80.0565
 1.8120	80.1108
 1.8110	80.1252
 1.8100	80.1181
 1.8090	80.1901
 1.8080	80.2194
 1.8070	80.2602
 1.8060	80.2750
 1.8050	80.3123
 1.8040	80.3211
 1.8030	80.4020
 1.8020	80.4872
 1.8010	80.4508
 1.8000	80.4955
 1.7990	80.5326
 1.7980	80.5600
 1.7970	80.6430
 1.7960	80.6608
 1.7950	80.6764
 1.7940	80.7594
 1.7930	80.8023
 1.7920	80.8198
 1.7910	80.8527
 1.7900	80.8933
 1.7890	80.8739
 1.7880	80.9006
 1.7870	80.9994
 1.7860	81.0808
 1.7850	81.1187
 1.7840	81.1808
 1.7830	81.2377
 1.7820	81.2762
 1.7810	81.3071
 1.7800	81.3538
 1.7790	81.3830
 1.7780	81.4056
 1.7770	81.4872
 1.7760	81.6361
 1.7750	81.6928
 1.7740	81.6743
 1.7730	81.7243
 1.7720	81.8407
 1.7710	81.9119
 1.7700	81.9910
 1.7690	82.0611
 1.7680	82.0076
 1.7670	82.0506
 1.7660	82.1903
 1.7650	82.2473
 1.7640	82.2831
 1.7630	82.3521
 1.7620	82.4223
 1.7610	82.6079
 1.7600	82.5754
 1.7590	82.5738
 1.7580	82.7585
 1.7570	82.8000
 1.7560	82.8228
 1.7550	82.9016
 1.7540	83.0124
 1.7530	83.1181
 1.7520	83.1808
 1.7510	83.1970
 1.7500	83.1958
 1.7490	83.3446
 1.7480	83.4864
 1.7470	83.5537
 1.7460	83.6471
 1.7450	83.7204
 1.7440	83.7637
 1.7430	83.8588
 1.7420	83.9523
 1.7410	83.9740
 1.7400	84.0344
 1.7390	84.1342
 1.7380	84.1966
 1.7370	84.3237
 1.7360	84.3452
 1.7350	84.4207
 1.7340	84.5666
 1.7330	84.5522
 1.7320	84.6116
 1.7310	84.6831
 1.7300	84.7540
 1.7290	84.8110
 1.7280	84.8016
 1.7270	84.8555
 1.7260	85.0004
 1.7250	85.0556
 1.7240	85.1055
 1.7230	85.1068
 1.7220	85.1631
 1.7210	85.1656
 1.7200	85.2358
 1.7190	85.2577
 1.7180	85.2485
 1.7170	85.3139
 1.7160	85.3891
 1.7150	85.4619
 1.7140	85.5853
 1.7130	85.4755
 1.7120	85.4679
 1.7110	85.5739
 1.7100	85.7072
 1.7090	85.7077
 1.7080	85.7409
 1.7070	85.7397
 1.7060	85.8289
 1.7050	85.7549
 1.7040	85.8209
 1.7030	85.8210
 1.7020	85.8720
 1.7010	85.9003
 1.7000	86.0332
 1.6990	86.0588
 1.6980	86.0595
 1.6970	86.0696
 1.6960	86.0315
 1.6950	86.0681
 1.6940	86.0066
 1.6930	86.1136
 1.6920	86.0064
 1.6910	86.0541
 1.6900	86.1362
 1.6890	86.2722
 1.6880	86.2044
 1.6870	86.1130
 1.6860	86.1917
 1.6850	86.2424
 1.6840	86.2646
 1.6830	86.2104
 1.6820	86.2221
 1.6810	86.3030
 1.6800	86.2393
 1.6790	86.2733
 1.6780	86.3252
 1.6770	86.3592
 1.6760	86.2849
 1.6750	86.3110
 1.6740	86.2894
 1.6730	86.3678
 1.6720	86.3399
 1.6710	86.2934
 1.6700	86.3371
 1.6690	86.3041
 1.6680	86.2754
 1.6670	86.3908
 1.6660	86.3927
 1.6650	86.2937
 1.6640	86.3303
 1.6630	86.4132
 1.6620	86.4046
 1.6610	86.3554
 1.6600	86.2553
 1.6590	86.2010
 1.6580	86.2938
 1.6570	86.3844
 1.6560	86.2431
 1.6550	86.3223
 1.6540	86.3493
 1.6530	86.2650
 1.6520	86.3206
 1.6510	86.2175
 1.6500	86.1944
 1.6490	86.1589
 1.6480	86.3109
 1.6470	86.0985
 1.6460	86.1344
 1.6450	86.1638
 1.6440	86.1460
 1.6430	86.1480
 1.6420	86.1328
 1.6410	86.0633
 1.6400	86.0743
 1.6390	86.0669
 1.6380	86.0944
 1.6370	86.0000
 1.6360	86.0179
 1.6350	86.0693
 1.6340	86.0593
 1.6330	85.9279
 1.6320	85.9770
 1.6310	85.9546
 1.6300	85.9383
 1.6290	85.9469
 1.6280	85.9606
 1.6270	85.9044
 1.6260	85.9100
 1.6250	85.8780
 1.6240	85.9484
 1.6230	85.7881
 1.6220	85.7908
 1.6210	85.7672
 1.6200	85.7630
 1.6190	85.8291
 1.6180	85.7741
 1.6170	85.6813
 1.6160	85.6757
 1.6150	85.6407
 1.6140	85.6717
 1.6130	85.5658
 1.6120	85.6033
 1.6110	85.5254
 1.6100	85.5624
 1.6090	85.4665
 1.6080	85.4239
 1.6070	85.4368
 1.6060	85.4478
 1.6050	85.4162
 1.6040	85.4095
 1.6030	85.3271
 1.6020	85.4083
 1.6010	85.3600
 1.6000	85.2281
 1.5990	85.3872
 1.5980	85.2367
 1.5970	85.2037
 1.5960	85.1124
 1.5950	85.1467
 1.5940	85.1295
 1.5930	85.2078
 1.5920	85.0051
 1.5910	84.9863
 1.5900	85.0162
 1.5890	84.8804
 1.5880	84.8779
 1.5870	84.9577
 1.5860	84.9420
 1.5850	84.7950
 1.5840	84.7611
 1.5830	84.7506
 1.5820	84.7162
 1.5810	84.6388
 1.5800	84.6626
 1.5790	84.5143
 1.5780	84.5496
 1.5770	84.4987
 1.5760	84.5179
 1.5750	84.4143
 1.5740	84.3528
 1.5730	84.4073
 1.5720	84.2747
 1.5710	84.1970
 1.5700	84.2566
 1.5690	84.1925
 1.5680	84.1552
 1.5670	84.0385
 1.5660	84.0000
 1.5650	83.9534
 1.5640	83.9945
 1.5630	83.8764
 1.5620	83.8845
 1.5610	83.7157
 1.5600	83.6200
 1.5590	83.6998
 1.5580	83.6834
 1.5570	83.5606
 1.5560	83.5863
 1.5550	83.5455
 1.5540	83.4224
 1.5530	83.3614
 1.5520	83.2884
 1.5510	83.2861
 1.5500	83.2151
 1.5490	83.1126
 1.5480	83.0223
 1.5470	82.9545
 1.5460	82.8892
 1.5450	82.8417
 1.5440	82.7361
 1.5430	82.6700
 1.5420	82.5996
 1.5410	82.5545
 1.5400	82.5185
 1.5390	82.3884
 1.5380	82.3549
 1.5370	82.3429
 1.5360	82.2714
 1.5350	82.1731
 1.5340	82.0773
 1.5330	82.0377
 1.5320	81.9677
 1.5310	81.8326
 1.5300	81.7200
 1.5290	81.6548
 1.5280	81.6508
 1.5270	81.5124
 1.5260	81.4147
 1.5250	81.3889
 1.5240	81.2742
 1.5230	81.1978
 1.5220	81.1399
 1.5210	81.0604
 1.5200	80.9814
 1.5190	80.8759
 1.5180	80.8145
 1.5170	80.7587
 1.5160	80.6136
 1.5150	80.5281
 1.5140	80.4524
 1.5130	80.2694
 1.5120	80.1937
 1.5110	80.1264
 1.5100	80.0127
 1.5090	79.8931
 1.5080	79.7979
 1.5070	79.6800
 1.5060	79.5717
 1.5050	79.4917
 1.5040	79.3506
 1.5030	79.2096
 1.5020	79.1145
 1.5010	79.0631
 1.5000	78.9427
 1.4990	78.8160
 1.4980	78.7171
 1.4970	78.5436
 1.4960	78.4189
 1.4950	78.2817
 1.4940	78.1859
 1.4930	78.1136
 1.4920	77.9485
 1.4910	77.8058
 1.4900	77.7017
 1.4890	77.5312
 1.4880	77.4171
 1.4870	77.3026
 1.4860	77.0442
 1.4850	76.9046
 1.4840	76.7643
 1.4830	76.5817
 1.4820	76.4446
 1.4810	76.2897
 1.4800	76.0787
 1.4790	75.9506
 1.4780	75.7034
 1.4770	75.4384
 1.4760	75.2553
 1.4750	75.1105
 1.4740	74.9049
 1.4730	74.7363
 1.4720	74.4646
 1.4710	74.2258
 1.4700	74.0764
 1.4690	73.8701
 1.4680	73.6776
 1.4670	73.4620
 1.4660	73.3135
 1.4650	73.2070
 1.4640	73.1175
 1.4630	73.0858
 1.4620	73.1141
 1.4610	73.1291
 1.4600	73.0400
 1.4590	72.9535
 1.4580	72.9685
 1.4570	73.0618
 1.4560	73.0795
 1.4550	73.0470
 1.4540	73.0577
 1.4530	73.1194
 1.4520	73.1006
 1.4510	73.0140
 1.4500	72.9420
 1.4490	72.9333
 1.4480	72.8676
 1.4470	72.7837
 1.4460	72.6381
 1.4450	72.5824
 1.4440	72.4491
 1.4430	72.3078
 1.4420	72.1483
 1.4410	72.0813
 1.4400	71.8258
 1.4390	71.6334
 1.4380	71.4933
 1.4370	71.3481
 1.4360	71.1418
 1.4350	70.9228
 1.4340	70.6985
 1.4330	70.5345
 1.4320	70.2408
 1.4310	70.0786
 1.4300	69.8201
 1.4290	69.5786
 1.4280	69.3123
 1.4270	69.1036
 1.4260	68.8285
 1.4250	68.5796
 1.4240	68.3647
 1.4230	68.1642
 1.4220	67.9266
 1.4210	67.8224
 1.4200	67.4898
 1.4190	67.2914
 1.4180	67.1939
 1.4170	67.0487
 1.4160	66.8738
 1.4150	66.7783
 1.4140	66.8162
 1.4130	66.7989
 1.4120	66.6917
 1.4110	66.9091
 1.4100	67.0916
 1.4090	67.2701
 1.4080	67.5851
 1.4070	67.8986
 1.4060	68.2726
 1.4050	68.7408
 1.4040	69.0622
 1.4030	69.5487
 1.4020	69.8376
 1.4010	70.1686
 1.4000	70.4258
 1.3990	70.6547
 1.3980	70.6468
 1.3970	70.2566
 1.3960	69.0171
 1.3950	66.9179
 1.3940	64.4153
 1.3930	62.3067
 1.3920	60.9546
 1.3910	60.7861
 1.3900	61.6365
 1.3890	63.3098
 1.3880	65.5774
 1.3870	68.0492
 1.3860	70.6160
 1.3850	73.2534
 1.3840	75.7845
 1.3830	77.7639
 1.3820	79.2934
 1.3810	80.4277
 1.3800	81.0795
 1.3790	81.5620
 1.3780	81.9597
 1.3770	82.3007
 1.3760	82.5456
 1.3750	82.6675
 1.3740	83.0750
 1.3730	83.2394
 1.3720	83.3808
 1.3710	83.7183
 1.3700	83.8343
 1.3690	84.0378
 1.3680	84.1975
 1.3670	84.3298
 1.3660	84.4484
 1.3650	84.6205
 1.3640	84.6624
 1.3630	84.9592
 1.3620	84.8889
 1.3610	85.0234
 1.3600	85.1619
 1.3590	85.2867
 1.3580	85.3207
 1.3570	85.5946
 1.3560	85.4159
 1.3550	85.6534
 1.3540	85.7096
 1.3530	85.6697
 1.3520	85.7555
 1.3510	85.8798
 1.3500	85.9535
 1.3490	85.9050
 1.3480	86.0451
 1.3470	86.2646
 1.3460	86.1312
 1.3450	86.2384
 1.3440	86.3862
 1.3430	86.4235
 1.3420	86.5764
 1.3410	86.6108
 1.3400	86.7091
 1.3390	86.8483
 1.3380	86.8974
 1.3370	86.9873
 1.3360	86.9857
 1.3350	87.2009
 1.3340	87.1705
 1.3330	87.3316
 1.3320	87.3498
 1.3310	87.3304
 1.3300	87.5477
 1.3290	87.6161
 1.3280	87.7207
 1.3270	87.8499
 1.3260	87.8660
 1.3250	88.0838
 1.3240	87.9831
 1.3230	88.0874
 1.3220	88.2216
 1.3210	88.2738
 1.3200	88.3861
 1.3190	88.4271
 1.3180	88.4755
 1.3170	88.5783
 1.3160	88.6536
 1.3150	88.7341
 1.3140	88.8444
 1.3130	88.7982
 1.3120	88.9787
 1.3110	88.9338
 1.3100	88.9743
 1.3090	89.0455
 1.3080	89.0596
 1.3070	89.0430
 1.3060	89.1650
 1.3050	89.2352
 1.3040	89.1942
 1.3030	89.1603
 1.3020	89.1532
 1.3010	89.1573
 1.3000	89.0743
 1.2990	89.1204
 1.2980	89.0817
 1.2970	89.1424
 1.2960	89.1925
 1.2950	89.2322
 1.2940	89.2962
 1.2930	89.3621
 1.2920	89.4378
 1.2910	89.4859
 1.2900	89.4763
 1.2890	89.5092
 1.2880	89.5546
 1.2870	89.6538
 1.2860	89.5605
 1.2850	89.4481
 1.2840	89.4733
 1.2830	89.4239
 1.2820	89.4043
 1.2810	89.2658
 1.2800	89.1554
 1.2790	89.1490
 1.2780	89.1286
 1.2770	89.1098
 1.2760	89.1113
 1.2750	89.1415
 1.2740	89.2968
 1.2730	89.3099
 1.2720	89.3505
 1.2710	89.3956
 1.2700	89.4534
 1.2690	89.4826
 1.2680	89.4443
 1.2670	89.5466
 1.2660	89.5249
 1.2650	89.5835
 1.2640	89.5465
 1.2630	89.6009
 1.2620	89.6090
 1.2610	89.5439
 1.2600	89.5868
 1.2590	89.5744
 1.2580	89.5184
 1.2570	89.5789
 1.2560	89.5492
 1.2550	89.4905
 1.2540	89.5076
 1.2530	89.5019
 1.2520	89.4815
 1.2510	89.4866
 1.2500	89.4396
 1.2490	89.3968
 1.2480	89.3811
 1.2470	89.3578
 1.2460	89.3392
 1.2450	89.3332
 1.2440	89.3195
 1.2430	89.2961
 1.2420	89.3331
 1.2410	89.3634
 1.2400	89.3158
 1.2390	89.2750
 1.2380	89.2457
 1.2370	89.2363
 1.2360	89.1683
 1.2350	89.1391
 1.2340	89.0994
 1.2330	89.1125
 1.2320	89.0396
 1.2310	89.0405
 1.2300	89.0155
 1.2290	88.9312
 1.2280	88.9741
 1.2270	88.9783
 1.2260	88.9533
 1.2250	88.9888
 1.2240	88.9751
 1.2230	88.9013
 1.2220	88.8720
 1.2210	88.8532
 1.2200	88.8333
 1.2190	88.7882
 1.2180	88.6979
 1.2170	88.6554
 1.2160	88.6571
 1.2150	88.7415
 1.2140	88.6869
 1.2130	88.6456
 1.2120	88.6367
 1.2110	88.5587
 1.2100	88.5641
 1.2090	88.5756
 1.2080	88.5223
 1.2070	88.4875
 1.2060	88.4807
 1.2050	88.4367
 1.2040	88.3768
 1.2030	88.3692
 1.2020	88.3815
 1.2010	88.3187
 1.2000	88.2733
 1.1990	88.2681
 1.1980	88.2628
 1.1970	88.2537
 1.1960	88.2427
 1.1950	88.2008
 1.1940	88.1408
 1.1930	88.1670
 1.1920	88.1555
 1.1910	88.0934
 1.1900	88.1731
 1.1890	88.1102
 1.1880	88.0374
 1.1870	87.9863
 1.1860	87.9526
 1.1850	87.9753
 1.1840	87.9382
 1.1830	87.9284
 1.1820	87.9750
 1.1810	87.9454
 1.1800	87.8800
 1.1790	87.8812
 1.1780	87.8780
 1.1770	87.8339
 1.1760	87.7891
 1.1750	87.6898
 1.1740	87.6010
 1.1730	87.6399
 1.1720	87.5786
 1.1710	87.4934
 1.1700	87.4695
 1.1690	87.3704
 1.1680	87.4019
 1.1670	87.2990
 1.1660	87.2416
 1.1650	87.1572
 1.1640	87.1163
 1.1630	86.9865
 1.1620	86.8877
 1.1610	86.8154
 1.1600	86.7858
 1.1590	86.6846
 1.1580	86.5781
 1.1570	86.5249
 1.1560	86.4878
 1.1550	86.5074
 1.1540	86.5185
 1.1530	86.5442
 1.1520	86.6107
 1.1510	86.6397
 1.1500	86.7815
 1.1490	86.9456
 1.1480	86.9312
 1.1470	87.1554
 1.1460	87.2607
 1.1450	87.3917
 1.1440	87.5546
 1.1430	87.7073
 1.1420	87.7340
 1.1410	87.8540
 1.1400	88.0010
 1.1390	88.0623
 1.1380	88.1176
 1.1370	88.1831
 1.1360	88.3126
 1.1350	88.3314
 1.1340	88.3731
 1.1330	88.3239
 1.1320	88.4380
 1.1310	88.4296
 1.1300	88.4643
 1.1290	88.4803
 1.1280	88.3556
 1.1270	88.4408
 1.1260	88.5318
 1.1250	88.5182
 1.1240	88.5424
 1.1230	88.4470
 1.1220	88.5889
 1.1210	88.4857
 1.1200	88.4415
 1.1190	88.5170
 1.1180	88.4803
 1.1170	88.5466
 1.1160	88.4678
 1.1150	88.4702
 1.1140	88.5052
 1.1130	88.4626
 1.1120	88.3874
 1.1110	88.4615
 1.1100	88.4232
 1.1090	88.3644
 1.1080	88.4313
 1.1070	88.4554
 1.1060	88.5053
 1.1050	88.4303
 1.1040	88.5677
 1.1030	88.3907
 1.1020	88.3973
 1.1010	88.3869
 1.1000	88.4831
 1.0990	88.3996
 1.0980	88.3837
 1.0970	88.3525
 1.0960	88.3774
 1.0950	88.3137
 1.0940	88.3702
 1.0930	88.3263
 1.0920	88.3905
 1.0910	88.4607
 1.0900	88.3883
 1.0890	88.3127
 1.0880	88.2725
 1.0870	88.2614
 1.0860	88.4024
 1.0850	88.3009
 1.0840	88.2092
 1.0830	88.2421
 1.0820	88.2718
 1.0810	88.2608
 1.0800	88.2975
 1.0790	88.2824
 1.0780	88.2703
 1.0770	88.1507
 1.0760	88.1653
 1.0750	88.2599
 1.0740	88.1577
 1.0730	88.2095
 1.0720	88.0838
 1.0710	88.1251
 1.0700	88.0589
 1.0690	88.1993
 1.0680	88.1527
 1.0670	88.0842
 1.0660	88.0189
 1.0650	88.0862
 1.0640	88.0518
 1.0630	88.0781
 1.0620	88.0339
 1.0610	88.0171
 1.0600	88.1040
 1.0590	88.0462
 1.0580	87.9817
 1.0570	87.9755
 1.0560	88.0050
 1.0550	88.0059
 1.0540	87.9637
 1.0530	87.9859
 1.0520	87.9356
 1.0510	87.8993
 1.0500	87.9362
 1.0490	87.9433
 1.0480	87.9186
 1.0470	87.9248
 1.0460	87.9418
 1.0450	87.8472
 1.0440	87.8881
 1.0430	87.8994
 1.0420	87.9234
 1.0410	87.8960
 1.0400	87.7744
 1.0390	87.8231
 1.0380	87.7896
 1.0370	87.7708
 1.0360	87.8231
 1.0350	87.8301
 1.0340	87.7603
 1.0330	87.8028
 1.0320	87.8341
 1.0310	87.6667
 1.0300	87.7287
 1.0290	87.6820
 1.0280	87.7840
 1.0270	87.7096
 1.0260	87.7610
 1.0250	87.7302
 1.0240	87.6976
 1.0230	87.6172
 1.0220	87.7345
 1.0210	87.6339
 1.0200	87.6522
 1.0190	87.5850
 1.0180	87.6953
 1.0170	87.6723
 1.0160	87.6295
 1.0150	87.6083
 1.0140	87.6123
 1.0130	87.5989
 1.0120	87.6511
 1.0110	87.5419
 1.0100	87.5916
 1.0090	87.5401
 1.0080	87.4833
 1.0070	87.5675
 1.0060	87.6098
 1.0050	87.5406
 1.0040	87.5757
 1.0030	87.5034
 1.0020	87.4503
 1.0010	87.4615
 1.0000	87.4943
 0.9990	87.4863
 0.9980	87.3685
 0.9970	87.3625
 0.9960	87.4106
 0.9950	87.3994
 0.9940	87.3702
 0.9930	87.3623
 0.9920	87.3517
 0.9910	87.3381
 0.9900	87.2788
 0.9890	87.2510
 0.9880	87.2320
 0.9870	87.2513
 0.9860	87.3217
 0.9850	87.2994
 0.9840	87.2996
 0.9830	87.1975
 0.9820	87.1594
 0.9810	87.1060
 0.9800	87.0839
 0.9790	87.0472
 0.9780	87.0149
 0.9770	87.0177
 0.9760	87.0166
 0.9750	87.0547
 0.9740	87.0047
 0.9730	87.0304
 0.9720	87.0028
 0.9710	86.9233
 0.9700	86.9148
 0.9690	86.9138
 0.9680	86.9075
 0.9670	86.8772
 0.9660	86.8774
 0.9650	86.8262
 0.9640	86.8578
 0.9630	86.8028
 0.9620	86.8469
 0.9610	86.8376
 0.9600	86.8480
 0.9590	86.8771
 0.9580	86.9308
 0.9570	86.8962
 0.9560	86.8490
 0.9550	86.8849
 0.9540	86.8386
 0.9530	86.7025
 0.9520	86.4802
 0.9510	86.2098
 0.9500	86.0774
 0.9490	86.1601
 0.9480	86.2575
 0.9470	86.3772
 0.9460	86.5657
 0.9450	86.7938
 0.9440	87.0593
 0.9430	87.2962
 0.9420	87.4330
 0.9410	87.5104
 0.9400	87.5706
 0.9390	87.6517
 0.9380	87.6596
 0.9370	87.6378
 0.9360	87.6975
 0.9350	87.6466
 0.9340	87.7143
 0.9330	87.7593
 0.9320	87.7385
 0.9310	87.7319
 0.9300	87.7182
 0.9290	87.7868
 0.9280	87.8114
 0.9270	87.8265
 0.9260	87.8474
 0.9250	87.8431
 0.9240	87.9004
 0.9230	87.9010
 0.9220	87.8491
 0.9210	87.9049
 0.9200	87.9475
 0.9190	87.9187
 0.9180	87.8998
 0.9170	87.9599
 0.9160	87.9839
 0.9150	87.9427
 0.9140	87.9564
 0.9130	88.0197
 0.9120	88.0271
 0.9110	88.0640
 0.9100	88.0314
 0.9090	88.0273
 0.9080	88.0947
 0.9070	88.1262
 0.9060	88.0361
 0.9050	88.0805
 0.9040	88.1654
 0.9030	88.1262
 0.9020	88.0882
 0.9010	88.0501
 0.9000	88.0660
 0.8990	88.0903
 0.8980	88.1122
 0.8970	88.1885
 0.8960	88.1565
 0.8950	88.1419
 0.8940	88.1327
 0.8930	88.1257
 0.8920	88.2021
 0.8910	88.1559
 0.8900	88.1507
 0.8890	88.2201
 0.8880	88.2691
 0.8870	88.3432
 0.8860	88.3674
 0.8850	88.3957
 0.8840	88.3269
 0.8830	88.4052
 0.8820	88.4094
 0.8810	88.3748
 0.8800	88.4268
 0.8790	88.4129
 0.8780	88.4274
 0.8770	88.4575
 0.8760	88.4330
 0.8750	88.4441
 0.8740	88.4275
 0.8730	88.5136
 0.8720	88.5123
 0.8710	88.5684
 0.8700	88.5752
 0.8690	88.5533
 0.8680	88.6450
 0.8670	88.6540
 0.8660	88.5660
 0.8650	88.5694
 0.8640	88.5849
 0.8630	88.7341
 0.8620	88.6614
 0.8610	88.6981
 0.8600	88.7097
 0.8590	88.7306
 0.8580	88.7144
 0.8570	88.6853
 0.8560	88.8079
 0.8550	88.8621
 0.8540	88.8448
 0.8530	88.7690
 0.8520	88.8840
 0.8510	88.8627
 0.8500	88.9140
 0.8490	88.9533
 0.8480	88.9245
 0.8470	88.9425
 0.8460	89.0347
 0.8450	89.0278
 0.8440	89.0648
 0.8430	89.0906
 0.8420	89.0638
 0.8410	89.0505
 0.8400	89.1009
 0.8390	89.0903
 0.8380	89.1405
 0.8370	89.1234
 0.8360	89.1676
 0.8350	89.1902
 0.8340	89.2714
 0.8330	89.2091
 0.8320	89.2158
 0.8310	89.3175
 0.8300	89.3300
 0.8290	89.3147
 0.8280	89.4349
 0.8270	89.4130
 0.8260	89.4085
 0.8250	89.4146
 0.8240	89.4537
 0.8230	89.4735
 0.8220	89.5025
 0.8210	89.4867
 0.8200	89.5119
 0.8190	89.5791
 0.8180	89.5595
 0.8170	89.5537
 0.8160	89.5990
 0.8150	89.5893
 0.8140	89.6404
 0.8130	89.6009
 0.8120	89.6469
 0.8110	89.7209
 0.8100	89.6749
 0.8090	89.6813
 0.8080	89.7156
 0.8070	89.7297
 0.8060	89.7484
 0.8050	89.7655
 0.8040	89.7995
 0.8030	89.8243
 0.8020	89.8184
 0.8010	89.8368
 0.8000	89.8489
 0.7990	89.7621
 0.7980	89.8162
 0.7970	89.8278
 0.7960	89.8280
 0.7950	89.7835
 0.7940	89.8836
 0.7930	89.8211
 0.7920	89.8674
 0.7910	89.8617
 0.7900	89.8646
 0.7890	89.9525
 0.7880	89.8742
 0.7870	89.9506
 0.7860	89.8785
 0.7850	89.9237
 0.7840	89.8813
 0.7830	89.9072
 0.7820	89.9563
 0.7810	89.9566
 0.7800	89.8879
 0.7790	89.9473
 0.7780	89.9378
 0.7770	89.9720
 0.7760	89.9813
 0.7750	89.9478
 0.7740	89.9623
 0.7730	89.9036
 0.7720	89.9713
 0.7710	89.9540
 0.7700	89.9571
 0.7690	89.9384
 0.7680	89.9688
 0.7670	89.9181
 0.7660	89.9112
 0.7650	89.9658
 0.7640	89.9389
 0.7630	89.9290
 0.7620	89.9624
 0.7610	89.9916
 0.7600	89.9419
 0.7590	89.9746
 0.7580	89.9625
 0.7570	89.9561
 0.7560	89.9079
 0.7550	89.9090
 0.7540	89.9058
 0.7530	89.9027
 0.7520	89.8341
 0.7510	89.8844
 0.7500	89.8316
 0.7490	89.8529
 0.7480	89.8709
 0.7470	89.8718
 0.7460	89.8465
 0.7450	89.8542
 0.7440	89.8389
 0.7430	89.8208
 0.7420	89.8152
 0.7410	89.8131
 0.7400	89.7934
 0.7390	89.7856
 0.7380	89.7478
 0.7370	89.7351
 0.7360	89.7591
 0.7350	89.7372
 0.7340	89.7414
 0.7330	89.7201
 0.7320	89.7024
 0.7310	89.6641
 0.7300	89.6569
 0.7290	89.6210
 0.7280	89.6139
 0.7270	89.5956
 0.7260	89.6074
 0.7250	89.6117
 0.7240	89.6071
 0.7230	89.5912
 0.7220	89.5938
 0.7210	89.5794
 0.7200	89.5644
 0.7190	89.5147
 0.7180	89.5207
 0.7170	89.4923
 0.7160	89.4994
 0.7150	89.4772
 0.7140	89.4491
 0.7130	89.4431
 0.7120	89.3984
 0.7110	89.3746
 0.7100	89.3611
 0.7090	89.3318
 0.7080	89.3124
 0.7070	89.2782
 0.7060	89.2861
 0.7050	89.2474
 0.7040	89.2132
 0.7030	89.1738
 0.7020	89.1686
 0.7010	89.1659
 0.7000	89.1194
 0.6990	89.0534
 0.6980	89.0335
 0.6970	89.0177
 0.6960	89.0107
 0.6950	88.9581
 0.6940	88.9010
 0.6930	88.8825
 0.6920	88.8289
 0.6910	88.8055
 0.6900	88.8098
 0.6890	88.7526
 0.6880	88.7226
 0.6870	88.6931
 0.6860	88.6623
 0.6850	88.6291
 0.6840	88.6030
 0.6830	88.5752
 0.6820	88.5551
 0.6810	88.5104
 0.6800	88.4563
 0.6790	88.4270
 0.6780	88.3905
 0.6770	88.3260
 0.6760	88.3111
 0.6750	88.2812
 0.6740	88.2448
 0.6730	88.2042
 0.6720	88.1949
 0.6710	88.1568
 0.6700	88.1058
 0.6690	88.0908
 0.6680	88.0519
 0.6670	87.9927
 0.6660	87.9651
 0.6650	87.9235
 0.6640	87.8717
 0.6630	87.8571
 0.6620	87.8431
 0.6610	87.8121
 0.6600	87.7707
 0.6590	87.7340
 0.6580	87.6874
 0.6570	87.6707
 0.6560	87.6427
 0.6550	87.6076
 0.6540	87.5836
 0.6530	87.5445
 0.6520	87.5125
 0.6510	87.4808
 0.6500	87.4464
 0.6490	87.4302
 0.6480	87.4327
 0.6470	87.4041
 0.6460	87.3583
 0.6450	87.3358
 0.6440	87.3239
 0.6430	87.2944
 0.6420	87.2625
 0.6410	87.2306
 0.6400	87.2164
 0.6390	87.2051
 0.6380	87.1731
 0.6370	87.1387
 0.6360	87.1226
 0.6350	87.1001
 0.6340	87.0596
 0.6330	87.0421
 0.6320	87.0256
 0.6310	87.0096
 0.6300	86.9966
 0.6290	86.9785
 0.6280	86.9551
 0.6270	86.9239
 0.6260	86.9102
 0.6250	86.9096
 0.6240	86.8962
 0.6230	86.8596
 0.6220	86.8537
 0.6210	86.8288
 0.6200	86.7983
 0.6190	86.7771
 0.6180	86.7586
 0.6170	86.7473
 0.6160	86.7121
 0.6150	86.6968
 0.6140	86.6981
 0.6130	86.6779
 0.6120	86.6664
 0.6110	86.6538
 0.6100	86.6231
 0.6090	86.6022
 0.6080	86.5957
 0.6070	86.5842
 0.6060	86.5777
 0.6050	86.5506
 0.6040	86.5063
 0.6030	86.4904
 0.6020	86.4928
 0.6010	86.4674
 0.6000	86.4379
 0.5990	86.4266
 0.5980	86.3984
 0.5970	86.4111
 0.5960	86.4202
 0.5950	86.4124
 0.5940	86.3912
 0.5930	86.3763
 0.5920	86.3405
 0.5910	86.3155
 0.5900	86.2945
 0.5890	86.2744
 0.5880	86.2414
 0.5870	86.2189
 0.5860	86.1719
 0.5850	86.1462
 0.5840	86.1244
 0.5830	86.0964
 0.5820	86.0698
 0.5810	86.0365
 0.5800	86.0209
 0.5790	85.9954
 0.5780	85.9603
 0.5770	85.9259
 0.5760	85.8988
 0.5750	85.8640
 0.5740	85.8447
 0.5730	85.8056
 0.5720	85.7708
 0.5710	85.7271
 0.5700	85.6987
 0.5690	85.6780
 0.5680	85.6581
 0.5670	85.6153
 0.5660	85.5699
 0.5650	85.5390
 0.5640	85.5174
 0.5630	85.4687
 0.5620	85.4304
 0.5610	85.4134
 0.5600	85.3529
 0.5590	85.3006
 0.5580	85.2605
 0.5570	85.1946
 0.5560	85.1623
 0.5550	85.1264
 0.5540	85.0741
 0.5530	85.0377
 0.5520	84.9939
 0.5510	84.9415
 0.5500	84.8954
 0.5490	84.8460
 0.5480	84.8092
 0.5470	84.7724
 0.5460	84.7234
 0.5450	84.6571
 0.5440	84.5934
 0.5430	84.5630
 0.5420	84.4965
 0.5410	84.4311
 0.5400	84.3670
 0.5390	84.3119
 0.5380	84.2473
 0.5370	84.1725
 0.5360	84.0950
 0.5350	84.0244
 0.5340	83.9383
 0.5330	83.8558
 0.5320	83.7831
 0.5310	83.6859
 0.5300	83.5942
 0.5290	83.5082
 0.5280	83.4151
 0.5270	83.3111
 0.5260	83.2277
 0.5250	83.1261
 0.5240	83.0474
 0.5230	82.9411
 0.5220	82.8436
 0.5210	82.7291
 0.5200	82.6257
 0.5190	82.5155
 0.5180	82.4165
 0.5170	82.3054
 0.5160	82.1952
 0.5150	82.0826
 0.5140	81.9610
 0.5130	81.8460
 0.5120	81.6993
 0.5110	81.5663
 0.5100	81.4659
 0.5090	81.3235
 0.5080	81.1726
 0.5070	81.0508
 0.5060	80.9074
 0.5050	80.7582
 0.5040	80.6099
 0.5030	80.4686
 0.5020	80.3152
 0.5010	80.1785
 0.5000	80.0196
 0.4990	79.8650
 0.4980	79.7437
 0.4970	79.5595
 0.4960	79.4261
 0.4950	79.2659
 0.4940	79.0788
 0.4930	78.9452
 0.4920	78.7452
 0.4910	78.6218
 0.4900	78.4713
 0.4890	78.2915
 0.4880	78.1034
 0.4870	77.9224
 0.4860	77.7503
 0.4850	77.6068
 0.4840	77.3899
 0.4830	77.2179
 0.4820	77.0441
 0.4810	76.8351
 0.4800	76.6638
 0.4790	76.4732
 0.4780	76.2833
 0.4770	76.0736
 0.4760	75.8413
 0.4750	75.6078
 0.4740	75.3529
 0.4730	75.0749
 0.4720	74.7867
 0.4710	74.5347
 0.4700	74.2134
 0.4690	73.8970
 0.4680	73.5702
 0.4670	73.2599
 0.4660	72.9259
 0.4650	72.6004
 0.4640	72.3030
 0.4630	71.9698
 0.4620	71.6893
 0.4610	71.3937
 0.4600	71.1405
 0.4590	70.9149
 0.4580	70.7098
 0.4570	70.5220
 0.4560	70.3488
 0.4550	70.2031
 0.4540	70.0695
 0.4530	69.9192
 0.4520	69.7934
 0.4510	69.6725
 0.4500	69.5053
 0.4490	69.3598
 0.4480	69.1973
 0.4470	69.0266
 0.4460	68.8833
 0.4450	68.7328
 0.4440	68.5826
 0.4430	68.4408
 0.4420	68.3116
 0.4410	68.1403
 0.4400	68.0081
 0.4390	67.8637
 0.4380	67.6864
 0.4370	67.4877
 0.4360	67.2936
 0.4350	67.0829
 0.4340	66.8566
 0.4330	66.6554
 0.4320	66.4386
 0.4310	66.2203
 0.4300	65.9905
 0.4290	65.7930
 0.4280	65.5853
 0.4270	65.3800
 0.4260	65.1862
 0.4250	65.0011
 0.4240	64.7774
 0.4230	64.5856
 0.4220	64.3741
 0.4210	64.1712
 0.4200	63.9585
 0.4190	63.7538
 0.4180	63.5458
 0.4170	63.3220
 0.4160	63.0875
 0.4150	62.8754
 0.4140	62.6420
 0.4130	62.3967
 0.4120	62.1621
 0.4110	61.9409
 0.4100	61.6782
 0.4090	61.4191
 0.4080	61.1807
 0.4070	60.8908
 0.4060	60.6354
 0.4050	60.3641
 0.4040	60.0621
 0.4030	59.7712
 0.4020	59.4796
 0.4010	59.1708
 0.4000	58.8484
