Name: Gypsum CaSO_4.2H_2O
Type: Mineral
Class: Sulfate
Subclass: None
Particle Size: Medium
Sample No.: SO-2B
Owner: JPL
Wavelength Range: VSWIR
Origin: USA, Utah
Collection Date: N/A
Description: Particle size was 45-125um.Collected by Ward's Original ASTER Spectral Library name was jpl.beckman.mineral.sulfate.none.medium.so02b.spectrum.txt
Measurement: Hemispherical reflectance
First Column: X
Second Column: Y
X Units: Wavelength (micrometers)
Y Units:Reflectance (percent)
First X Value:  0.4000
Last X Value:  2.5000
Number of X Values: 826
Additional Information: mineral.sulfate.none.medium.vswir.so-2b.jpl.beckman.ancillary.txt

 0.4000	89.9600
 0.4010	90.0800
 0.4020	89.9800
 0.4030	90.1500
 0.4040	90.3300
 0.4050	90.2200
 0.4060	90.2800
 0.4070	90.2200
 0.4080	90.2200
 0.4090	90.3400
 0.4100	90.1000
 0.4110	90.2800
 0.4120	90.5200
 0.4130	90.3500
 0.4140	90.3400
 0.4150	90.2800
 0.4160	90.4000
 0.4170	90.5200
 0.4180	90.2900
 0.4190	90.4600
 0.4200	90.5200
 0.4210	90.4700
 0.4220	90.5300
 0.4230	90.4800
 0.4240	90.5300
 0.4250	90.5900
 0.4260	90.4600
 0.4270	90.5200
 0.4280	90.4600
 0.4290	90.5300
 0.4300	90.5900
 0.4310	90.4700
 0.4320	90.5300
 0.4330	90.7100
 0.4340	90.6500
 0.4350	90.5900
 0.4360	90.5300
 0.4370	90.6500
 0.4380	90.7200
 0.4390	90.6000
 0.4400	90.6600
 0.4410	90.9600
 0.4420	90.8900
 0.4430	90.9000
 0.4440	90.7700
 0.4450	90.7700
 0.4460	90.8900
 0.4470	90.6500
 0.4480	90.8900
 0.4490	90.8900
 0.4500	90.9500
 0.4510	90.9600
 0.4520	90.8400
 0.4530	90.9100
 0.4540	91.0900
 0.4550	90.9800
 0.4560	91.1000
 0.4570	91.1200
 0.4580	91.2500
 0.4590	91.1400
 0.4600	91.0700
 0.4610	91.1500
 0.4620	91.2100
 0.4630	91.1000
 0.4640	90.9900
 0.4650	91.1100
 0.4660	91.2800
 0.4670	91.2200
 0.4680	91.2400
 0.4690	91.2300
 0.4700	91.3500
 0.4710	91.1700
 0.4720	91.1200
 0.4730	91.1800
 0.4740	91.3600
 0.4750	91.2400
 0.4760	91.2400
 0.4770	91.1800
 0.4780	91.3700
 0.4790	91.3100
 0.4800	91.2500
 0.4810	91.3700
 0.4820	91.4300
 0.4830	91.3900
 0.4840	91.4500
 0.4850	91.3400
 0.4860	91.5100
 0.4870	91.5800
 0.4880	91.4100
 0.4890	91.3600
 0.4900	91.2900
 0.4910	91.4200
 0.4920	91.3100
 0.4930	91.2600
 0.4940	91.3900
 0.4950	91.4500
 0.4960	91.3900
 0.4970	91.2800
 0.4980	91.2900
 0.4990	91.3500
 0.5000	91.4700
 0.5010	91.3000
 0.5020	91.4200
 0.5030	91.3600
 0.5040	91.4200
 0.5050	91.4200
 0.5060	91.3100
 0.5070	91.4800
 0.5080	91.5900
 0.5090	91.4800
 0.5100	91.4800
 0.5110	91.4200
 0.5120	91.5300
 0.5130	91.4800
 0.5140	91.4200
 0.5150	91.6500
 0.5160	91.7100
 0.5170	91.7100
 0.5180	91.5900
 0.5190	91.5300
 0.5200	91.5900
 0.5210	91.6000
 0.5220	91.5300
 0.5230	91.5300
 0.5240	91.6500
 0.5250	91.6000
 0.5260	91.5400
 0.5270	91.4800
 0.5280	91.6500
 0.5290	91.7700
 0.5300	91.6600
 0.5310	91.6600
 0.5320	91.4300
 0.5330	91.6500
 0.5340	91.5200
 0.5350	91.4500
 0.5360	91.5000
 0.5370	91.7400
 0.5380	91.6800
 0.5390	91.6100
 0.5400	91.5400
 0.5410	91.7200
 0.5420	91.5500
 0.5430	91.6100
 0.5440	91.7900
 0.5450	91.7900
 0.5460	91.8000
 0.5470	91.8000
 0.5480	91.6900
 0.5490	91.7500
 0.5500	91.7000
 0.5510	91.7600
 0.5520	91.8300
 0.5530	91.8400
 0.5540	91.8900
 0.5550	91.8300
 0.5560	91.7700
 0.5570	91.9400
 0.5580	92.0900
 0.5590	91.9600
 0.5600	91.9500
 0.5610	92.4100
 0.5620	92.3500
 0.5630	92.4100
 0.5640	92.2300
 0.5650	92.3000
 0.5660	92.1800
 0.5670	92.2900
 0.5680	92.1200
 0.5690	92.1200
 0.5700	91.9400
 0.5710	92.1100
 0.5720	91.8900
 0.5730	91.8300
 0.5740	91.8000
 0.5750	91.9500
 0.5760	91.8900
 0.5770	91.8300
 0.5780	91.7700
 0.5790	91.8300
 0.5800	91.9400
 0.5810	91.7700
 0.5820	91.7700
 0.5830	91.7600
 0.5840	91.8200
 0.5850	91.7600
 0.5860	91.8800
 0.5870	91.9400
 0.5880	91.9900
 0.5890	92.0000
 0.5900	92.0500
 0.5910	91.8800
 0.5920	92.0500
 0.5930	91.8800
 0.5940	91.7700
 0.5950	91.9900
 0.5960	91.9900
 0.5970	92.0000
 0.5980	91.9500
 0.5990	91.9100
 0.6000	92.0300
 0.6010	92.1000
 0.6020	92.0600
 0.6030	92.0000
 0.6040	92.0700
 0.6050	92.1200
 0.6060	92.0000
 0.6070	91.9000
 0.6080	92.0000
 0.6090	92.0600
 0.6100	92.0000
 0.6110	91.9000
 0.6120	91.7900
 0.6130	91.7900
 0.6140	91.9100
 0.6150	91.7900
 0.6160	91.7900
 0.6170	91.8500
 0.6180	91.9100
 0.6190	91.7900
 0.6200	91.7300
 0.6210	91.7800
 0.6220	91.9500
 0.6230	91.8500
 0.6240	91.9100
 0.6250	91.7300
 0.6260	91.7300
 0.6270	91.8500
 0.6280	91.7300
 0.6290	91.7900
 0.6300	91.7300
 0.6310	91.9000
 0.6320	91.7800
 0.6330	91.6700
 0.6340	91.6700
 0.6350	91.7900
 0.6360	91.7900
 0.6370	91.7900
 0.6380	91.6100
 0.6390	91.6700
 0.6400	91.7300
 0.6410	91.6800
 0.6420	91.6800
 0.6430	91.7300
 0.6440	91.7900
 0.6450	91.6700
 0.6460	91.6700
 0.6470	91.7300
 0.6480	91.7900
 0.6490	91.7300
 0.6500	91.7300
 0.6510	91.7300
 0.6520	91.6700
 0.6530	91.6700
 0.6540	91.6800
 0.6550	91.6700
 0.6560	91.7900
 0.6570	91.8400
 0.6580	91.6600
 0.6590	91.6100
 0.6600	91.6700
 0.6610	91.7300
 0.6620	91.7300
 0.6630	91.6200
 0.6640	91.6100
 0.6650	91.6800
 0.6660	91.7300
 0.6670	91.6800
 0.6680	91.7300
 0.6690	91.6700
 0.6700	91.8400
 0.6710	91.6700
 0.6720	91.6100
 0.6730	91.6700
 0.6740	91.7900
 0.6750	91.6700
 0.6760	91.6700
 0.6770	91.6100
 0.6780	91.6200
 0.6790	91.7900
 0.6800	91.6800
 0.6810	91.6800
 0.6820	91.6700
 0.6830	91.7800
 0.6840	91.6100
 0.6850	91.6100
 0.6860	91.6800
 0.6870	91.7900
 0.6880	91.6700
 0.6890	91.6200
 0.6900	91.5600
 0.6910	91.6200
 0.6920	91.7300
 0.6930	91.6800
 0.6940	91.7300
 0.6950	91.6700
 0.6960	91.8400
 0.6970	91.6100
 0.6980	91.5500
 0.6990	91.6500
 0.7000	91.6900
 0.7010	91.6400
 0.7020	91.6700
 0.7030	91.5000
 0.7040	91.6700
 0.7050	91.6200
 0.7060	91.5100
 0.7070	91.5600
 0.7080	91.5600
 0.7090	91.7300
 0.7100	91.6200
 0.7110	91.6200
 0.7120	91.8500
 0.7130	91.6700
 0.7140	91.6700
 0.7150	91.6700
 0.7160	91.6800
 0.7170	91.7400
 0.7180	91.6700
 0.7190	91.5600
 0.7200	91.6200
 0.7210	91.5000
 0.7220	91.6800
 0.7230	91.5600
 0.7240	91.6200
 0.7250	91.6700
 0.7260	91.5000
 0.7270	91.5100
 0.7280	91.5700
 0.7290	91.5600
 0.7300	91.6200
 0.7310	91.5700
 0.7320	91.5700
 0.7330	91.5600
 0.7340	91.5600
 0.7350	91.6100
 0.7360	91.4400
 0.7370	91.4500
 0.7380	91.5700
 0.7390	91.4500
 0.7400	91.3900
 0.7410	91.4500
 0.7420	91.5100
 0.7430	91.5100
 0.7440	91.4400
 0.7450	91.3900
 0.7460	91.2700
 0.7470	91.2200
 0.7480	91.4000
 0.7490	91.3900
 0.7500	91.2200
 0.7510	91.3900
 0.7520	91.3400
 0.7530	91.2100
 0.7540	91.2100
 0.7550	91.2100
 0.7560	91.3300
 0.7570	91.2700
 0.7580	91.1600
 0.7590	91.2100
 0.7600	91.1000
 0.7610	91.1000
 0.7620	91.1000
 0.7630	91.1500
 0.7640	91.3300
 0.7650	91.1600
 0.7660	91.1100
 0.7670	91.0400
 0.7680	91.0500
 0.7690	91.1000
 0.7700	91.1100
 0.7710	91.0400
 0.7720	91.2100
 0.7730	91.1600
 0.7740	91.1700
 0.7750	91.1100
 0.7760	91.1600
 0.7770	91.1600
 0.7780	91.1000
 0.7790	91.0500
 0.7800	91.1600
 0.7810	91.1600
 0.7820	91.2200
 0.7830	91.1100
 0.7840	91.0500
 0.7850	91.2800
 0.7860	91.1600
 0.7870	91.1200
 0.7880	91.2300
 0.7890	91.3400
 0.7900	91.2200
 0.7910	91.2200
 0.7920	91.1100
 0.7930	91.2300
 0.7940	91.1700
 0.7950	91.2800
 0.7960	91.2800
 0.7970	91.2200
 0.7980	91.3800
 0.7990	91.2500
 0.8000	90.6200
 0.8040	90.6200
 0.8080	90.7200
 0.8120	90.6100
 0.8160	90.7200
 0.8200	90.5900
 0.8240	90.7100
 0.8280	90.7100
 0.8320	90.6500
 0.8360	90.6500
 0.8400	90.5800
 0.8440	90.4700
 0.8480	90.5800
 0.8520	90.5800
 0.8560	90.5100
 0.8600	90.5300
 0.8640	90.4500
 0.8680	90.4500
 0.8720	90.4600
 0.8760	90.4500
 0.8800	90.3900
 0.8840	90.3900
 0.8880	90.4400
 0.8920	90.3900
 0.8960	90.2800
 0.9000	90.1600
 0.9040	90.1600
 0.9080	90.0900
 0.9120	90.0500
 0.9160	90.0900
 0.9200	89.9200
 0.9240	89.9200
 0.9280	89.9900
 0.9320	89.9800
 0.9360	89.9100
 0.9400	89.7400
 0.9440	89.6100
 0.9480	89.4400
 0.9520	89.3200
 0.9560	89.1300
 0.9600	88.9000
 0.9640	88.6100
 0.9680	88.3600
 0.9720	87.9500
 0.9760	87.6600
 0.9800	87.3500
 0.9840	87.0400
 0.9880	86.8800
 0.9920	86.7700
 0.9960	86.7800
 1.0000	86.9000
 1.0040	87.4000
 1.0080	87.7000
 1.0120	88.0100
 1.0160	88.3200
 1.0200	88.6200
 1.0240	88.7900
 1.0280	88.9600
 1.0320	89.2000
 1.0360	89.4300
 1.0400	89.6200
 1.0440	89.7400
 1.0480	89.6800
 1.0520	89.6300
 1.0560	89.6800
 1.0600	89.7600
 1.0640	89.8000
 1.0680	89.7600
 1.0720	89.7800
 1.0760	89.7900
 1.0800	89.6400
 1.0840	89.6600
 1.0880	89.6100
 1.0920	89.5000
 1.0960	89.3800
 1.1000	89.2100
 1.1040	89.2700
 1.1080	89.0300
 1.1120	88.9700
 1.1160	88.8600
 1.1200	88.7900
 1.1240	88.6700
 1.1280	88.5500
 1.1320	88.3500
 1.1360	88.0100
 1.1400	87.6400
 1.1440	87.1400
 1.1480	86.6000
 1.1520	85.7000
 1.1560	84.6800
 1.1600	83.5300
 1.1640	82.4500
 1.1680	81.6300
 1.1720	80.9200
 1.1760	80.4400
 1.1800	80.2200
 1.1840	80.2300
 1.1880	80.1600
 1.1920	80.0500
 1.1960	79.9500
 1.2000	79.8200
 1.2040	79.8200
 1.2080	80.2300
 1.2120	80.8000
 1.2160	81.1900
 1.2200	81.2600
 1.2240	81.3500
 1.2280	81.3900
 1.2320	81.6100
 1.2360	82.0700
 1.2400	82.6200
 1.2440	83.0500
 1.2480	83.2400
 1.2520	83.5400
 1.2560	83.7600
 1.2600	83.7100
 1.2640	83.8500
 1.2680	83.9000
 1.2720	83.9600
 1.2760	84.0400
 1.2800	84.0700
 1.2840	84.1400
 1.2880	84.0900
 1.2920	83.9300
 1.2960	83.7700
 1.3000	83.6600
 1.3040	83.4600
 1.3080	83.0600
 1.3120	82.6200
 1.3160	82.1600
 1.3200	81.6100
 1.3240	81.1700
 1.3280	80.6700
 1.3320	80.0600
 1.3360	79.1800
 1.3400	78.2400
 1.3440	77.5100
 1.3480	76.7400
 1.3520	75.9800
 1.3560	75.4400
 1.3600	74.7600
 1.3640	74.1600
 1.3680	73.5700
 1.3720	73.0700
 1.3760	72.6700
 1.3800	72.3400
 1.3840	72.0100
 1.3880	71.5200
 1.3920	70.9500
 1.3960	70.0600
 1.4000	68.6500
 1.4040	67.0700
 1.4080	65.0400
 1.4120	62.7000
 1.4160	60.3800
 1.4200	58.2400
 1.4240	56.3600
 1.4280	54.2900
 1.4320	51.4900
 1.4360	48.1000
 1.4400	45.5200
 1.4440	44.9700
 1.4480	46.7400
 1.4520	48.9600
 1.4560	50.6200
 1.4600	51.7000
 1.4640	52.3100
 1.4680	52.6700
 1.4720	52.9400
 1.4760	52.9100
 1.4800	52.3700
 1.4840	51.5900
 1.4880	51.5400
 1.4920	52.4300
 1.4960	54.1100
 1.5000	55.6000
 1.5040	56.8900
 1.5080	57.5000
 1.5120	57.8400
 1.5160	57.7900
 1.5200	57.6600
 1.5240	57.1700
 1.5280	56.7100
 1.5320	56.3900
 1.5360	56.6700
 1.5400	57.4500
 1.5440	58.7600
 1.5480	60.1700
 1.5520	61.5200
 1.5560	62.8700
 1.5600	63.9800
 1.5640	64.9100
 1.5680	65.7700
 1.5720	66.4800
 1.5760	67.1900
 1.5800	67.9100
 1.5840	68.6000
 1.5880	69.2100
 1.5920	69.8700
 1.5960	70.6100
 1.6000	71.3900
 1.6040	72.1000
 1.6080	72.6600
 1.6120	73.2100
 1.6160	73.8200
 1.6200	74.3900
 1.6240	74.8800
 1.6280	75.2800
 1.6320	75.7900
 1.6360	76.3800
 1.6400	76.8300
 1.6440	77.2200
 1.6480	77.5000
 1.6520	77.8200
 1.6560	78.0400
 1.6600	78.2600
 1.6640	78.3400
 1.6680	78.3400
 1.6720	78.1500
 1.6760	77.8800
 1.6800	77.7000
 1.6840	77.2100
 1.6880	76.5900
 1.6920	75.7500
 1.6960	74.7200
 1.7000	73.4100
 1.7040	72.0100
 1.7080	70.3700
 1.7120	68.4900
 1.7160	66.6200
 1.7200	64.7400
 1.7240	62.8900
 1.7280	61.0500
 1.7320	59.4200
 1.7360	58.0700
 1.7400	57.0000
 1.7440	56.7200
 1.7480	56.7700
 1.7520	57.2800
 1.7560	57.8700
 1.7600	58.3900
 1.7640	58.8000
 1.7680	59.2400
 1.7720	59.5800
 1.7760	60.1300
 1.7800	60.9800
 1.7840	61.9500
 1.7880	63.0100
 1.7920	63.9400
 1.7960	64.7300
 1.8000	65.4200
 1.8040	65.9400
 1.8080	66.5200
 1.8120	66.8200
 1.8160	67.1500
 1.8200	67.2800
 1.8240	67.3300
 1.8280	67.3500
 1.8320	67.2400
 1.8360	67.0300
 1.8400	66.5300
 1.8440	65.8700
 1.8480	64.9200
 1.8520	63.7700
 1.8560	62.2900
 1.8600	60.5600
 1.8640	58.4100
 1.8680	55.8700
 1.8720	53.1300
 1.8760	50.5200
 1.8800	47.8600
 1.8840	45.3800
 1.8880	42.7800
 1.8920	40.1000
 1.8960	37.4200
 1.9000	34.7400
 1.9040	32.1400
 1.9080	29.5500
 1.9120	27.1100
 1.9160	24.6200
 1.9200	22.2800
 1.9240	20.2200
 1.9280	18.5000
 1.9320	17.0600
 1.9360	16.2100
 1.9400	15.8800
 1.9440	16.1100
 1.9480	16.8600
 1.9520	17.9000
 1.9560	18.8600
 1.9600	19.8900
 1.9640	20.7500
 1.9680	21.4800
 1.9720	22.2300
 1.9760	23.0900
 1.9800	24.3100
 1.9840	26.1600
 1.9880	28.3600
 1.9920	31.1000
 1.9960	34.0100
 2.0000	36.8500
 2.0040	39.5000
 2.0080	41.8300
 2.0120	43.8000
 2.0160	45.3400
 2.0200	46.6600
 2.0240	47.6600
 2.0280	48.6100
 2.0320	49.2900
 2.0360	49.8800
 2.0400	50.4800
 2.0440	50.7500
 2.0480	50.9700
 2.0520	51.1200
 2.0560	51.0800
 2.0600	51.0900
 2.0640	51.0400
 2.0680	51.0600
 2.0720	50.9500
 2.0760	50.7500
 2.0800	50.5500
 2.0840	50.3400
 2.0880	49.9200
 2.0920	49.4400
 2.0960	48.9800
 2.1000	48.3700
 2.1040	47.9100
 2.1080	47.3000
 2.1120	46.7400
 2.1160	46.1600
 2.1200	45.6600
 2.1240	45.2300
 2.1280	44.7000
 2.1320	44.2500
 2.1360	43.7600
 2.1400	43.2100
 2.1440	42.7400
 2.1480	42.1900
 2.1520	41.6100
 2.1560	41.0200
 2.1600	40.6000
 2.1640	40.1900
 2.1680	39.6800
 2.1720	39.3500
 2.1760	39.1900
 2.1800	38.9400
 2.1840	38.6700
 2.1880	38.4000
 2.1920	38.0100
 2.1960	37.4900
 2.2000	37.0300
 2.2040	36.5700
 2.2080	36.3200
 2.2120	36.1300
 2.2160	36.3500
 2.2200	36.7700
 2.2240	37.3500
 2.2280	37.9300
 2.2320	38.4600
 2.2360	38.7800
 2.2400	38.9800
 2.2440	39.0900
 2.2480	39.0400
 2.2520	38.8800
 2.2560	38.7200
 2.2600	38.6200
 2.2640	38.7500
 2.2680	39.0100
 2.2720	39.4300
 2.2760	39.7700
 2.2800	40.1600
 2.2840	40.6800
 2.2880	41.0900
 2.2920	41.4300
 2.2960	41.5500
 2.3000	41.8100
 2.3040	41.8000
 2.3080	41.8200
 2.3120	41.7800
 2.3160	41.7000
 2.3200	41.5600
 2.3240	41.2700
 2.3280	41.0500
 2.3320	40.5400
 2.3360	40.1300
 2.3400	39.6300
 2.3440	39.0900
 2.3480	38.4300
 2.3520	37.6600
 2.3560	36.7100
 2.3600	35.7700
 2.3640	34.8100
 2.3680	33.7000
 2.3720	32.5500
 2.3760	31.2000
 2.3800	29.8000
 2.3840	28.4100
 2.3880	27.0500
 2.3920	25.7300
 2.3960	24.3900
 2.4000	23.1500
 2.4040	22.1600
 2.4080	21.2100
 2.4120	20.4600
 2.4160	19.7500
 2.4200	19.1800
 2.4240	18.7300
 2.4280	18.4200
 2.4320	18.1800
 2.4360	17.8900
 2.4400	17.7000
 2.4440	17.4600
 2.4480	17.2400
 2.4520	16.9700
 2.4560	16.7600
 2.4600	16.5000
 2.4640	16.3800
 2.4680	16.1000
 2.4720	15.9100
 2.4760	15.8700
 2.4800	15.7900
 2.4840	15.8500
 2.4880	15.9000
 2.4920	16.0100
 2.4960	16.1400
 2.5000	16.2900
