Name: Fluorite CaF_2
Type: Mineral
Class: Halide
Subclass: None
Particle Size: Coarse
Sample No.: H-2B
Owner: JPL
Wavelength Range: VSWIR
Origin: United Kingdom, England, Durham County, Weardal.
Collection Date: N/A
Description: Particle size was 125-500um.Collected by:  Ward's Original ASTER Spectral Library name was jpl.perkin.mineral.halide.none.coarse.h02b.spectrum.txt
Measurement: Hemispherical reflectance
First Column: X
Second Column: Y
X Units: Wavelength (micrometers)
Y Units:Reflectance (percent)
First X Value:  2.5000
Last X Value:  0.4000
Number of X Values: 2101
Additional Information: mineral.halide.none.coarse.vswir.h-2b.jpl.perkin.ancillary.txt

 2.5000	62.6145
 2.4990	62.6338
 2.4980	62.7797
 2.4970	62.8301
 2.4960	62.4103
 2.4950	62.8715
 2.4940	62.7880
 2.4930	62.8218
 2.4920	62.7586
 2.4910	62.9469
 2.4900	62.9020
 2.4890	63.0431
 2.4880	63.1462
 2.4870	63.2263
 2.4860	63.1301
 2.4850	63.2851
 2.4840	63.1540
 2.4830	63.2530
 2.4820	63.2651
 2.4810	63.2905
 2.4800	63.4119
 2.4790	63.4014
 2.4780	63.4766
 2.4770	63.4012
 2.4760	63.3963
 2.4750	63.5979
 2.4740	63.6359
 2.4730	63.7257
 2.4720	63.7228
 2.4710	63.7468
 2.4700	63.7278
 2.4690	63.8469
 2.4680	63.8266
 2.4670	63.8304
 2.4660	63.9129
 2.4650	63.9493
 2.4640	63.9021
 2.4630	64.1151
 2.4620	64.1471
 2.4610	64.1704
 2.4600	64.0666
 2.4590	64.1971
 2.4580	64.3345
 2.4570	64.3887
 2.4560	64.3155
 2.4550	64.3670
 2.4540	64.3981
 2.4530	64.4007
 2.4520	64.4887
 2.4510	64.4462
 2.4500	64.5170
 2.4490	64.6411
 2.4480	64.6002
 2.4470	64.6817
 2.4460	64.7329
 2.4450	64.8421
 2.4440	64.7928
 2.4430	64.8403
 2.4420	64.8570
 2.4410	65.0004
 2.4400	65.0577
 2.4390	65.0517
 2.4380	64.9767
 2.4370	65.0864
 2.4360	65.1087
 2.4350	65.1050
 2.4340	65.2434
 2.4330	65.2496
 2.4320	65.3316
 2.4310	65.3087
 2.4300	65.2740
 2.4290	65.3310
 2.4280	65.3780
 2.4270	65.4778
 2.4260	65.4666
 2.4250	65.5365
 2.4240	65.5571
 2.4230	65.6117
 2.4220	65.5204
 2.4210	65.5960
 2.4200	65.6796
 2.4190	65.6994
 2.4180	65.5747
 2.4170	65.6665
 2.4160	65.7054
 2.4150	65.7747
 2.4140	65.8056
 2.4130	65.8345
 2.4120	65.7938
 2.4110	65.8214
 2.4100	65.9091
 2.4090	66.0436
 2.4080	66.0308
 2.4070	65.9635
 2.4060	66.0635
 2.4050	66.0826
 2.4040	66.0945
 2.4030	66.1270
 2.4020	66.1257
 2.4010	66.1435
 2.4000	66.2055
 2.3990	66.2228
 2.3980	66.2518
 2.3970	66.2282
 2.3960	66.2415
 2.3950	66.3021
 2.3940	66.3269
 2.3930	66.3931
 2.3920	66.4168
 2.3910	66.4562
 2.3900	66.5313
 2.3890	66.5463
 2.3880	66.5367
 2.3870	66.5563
 2.3860	66.5539
 2.3850	66.5977
 2.3840	66.6714
 2.3830	66.7032
 2.3820	66.7059
 2.3810	66.7324
 2.3800	66.7896
 2.3790	66.8601
 2.3780	66.9138
 2.3770	66.8686
 2.3760	66.8322
 2.3750	66.9327
 2.3740	66.9429
 2.3730	66.9915
 2.3720	66.9986
 2.3710	66.9594
 2.3700	67.0110
 2.3690	67.0897
 2.3680	67.1368
 2.3670	67.1998
 2.3660	67.1821
 2.3650	67.1920
 2.3640	67.2047
 2.3630	67.1815
 2.3620	67.2017
 2.3610	67.2665
 2.3600	67.3630
 2.3590	67.3833
 2.3580	67.4129
 2.3570	67.4514
 2.3560	67.4345
 2.3550	67.4472
 2.3540	67.4617
 2.3530	67.4952
 2.3520	67.4635
 2.3510	67.4414
 2.3500	67.5366
 2.3490	67.5516
 2.3480	67.5584
 2.3470	67.5731
 2.3460	67.5961
 2.3450	67.6274
 2.3440	67.6546
 2.3430	67.6526
 2.3420	67.6706
 2.3410	67.6979
 2.3400	67.7288
 2.3390	67.7722
 2.3380	67.7445
 2.3370	67.7045
 2.3360	67.7258
 2.3350	67.7630
 2.3340	67.7739
 2.3330	67.7418
 2.3320	67.7508
 2.3310	67.7186
 2.3300	67.7774
 2.3290	67.8153
 2.3280	67.7971
 2.3270	67.8066
 2.3260	67.8161
 2.3250	67.8261
 2.3240	67.7937
 2.3230	67.7792
 2.3220	67.8439
 2.3210	67.8555
 2.3200	67.8414
 2.3190	67.8224
 2.3180	67.8348
 2.3170	67.8370
 2.3160	67.8601
 2.3150	67.8698
 2.3140	67.8773
 2.3130	67.9008
 2.3120	67.9392
 2.3110	67.9297
 2.3100	67.9148
 2.3090	67.8565
 2.3080	67.8961
 2.3070	67.9195
 2.3060	67.9544
 2.3050	67.9009
 2.3040	67.9240
 2.3030	67.9301
 2.3020	67.9636
 2.3010	67.9000
 2.3000	67.9310
 2.2990	67.9240
 2.2980	68.0038
 2.2970	67.9808
 2.2960	67.9889
 2.2950	67.9635
 2.2940	67.9179
 2.2930	67.9371
 2.2920	67.9549
 2.2910	67.9132
 2.2900	67.9660
 2.2890	67.9416
 2.2880	68.0112
 2.2870	67.9154
 2.2860	67.9544
 2.2850	67.9794
 2.2840	68.0407
 2.2830	68.0276
 2.2820	67.9918
 2.2810	67.9877
 2.2800	68.0462
 2.2790	67.9964
 2.2780	67.9975
 2.2770	67.9887
 2.2760	67.9703
 2.2750	67.9465
 2.2740	68.0130
 2.2730	68.0248
 2.2720	67.9865
 2.2710	67.9565
 2.2700	68.0555
 2.2690	67.9826
 2.2680	67.9959
 2.2670	68.0333
 2.2660	67.9355
 2.2650	67.9649
 2.2640	68.0454
 2.2630	67.9576
 2.2620	67.9513
 2.2610	68.0311
 2.2600	67.9634
 2.2590	67.9094
 2.2580	67.9898
 2.2570	67.9185
 2.2560	68.0266
 2.2550	67.9431
 2.2540	68.0233
 2.2530	67.9150
 2.2520	67.9859
 2.2510	67.9595
 2.2500	67.9616
 2.2490	67.9935
 2.2480	67.9792
 2.2470	67.8838
 2.2460	67.8946
 2.2450	67.8834
 2.2440	67.9239
 2.2430	67.9715
 2.2420	67.9723
 2.2410	67.9213
 2.2400	67.9353
 2.2390	67.9858
 2.2380	67.9873
 2.2370	67.9883
 2.2360	67.9660
 2.2350	67.9060
 2.2340	67.9399
 2.2330	67.9620
 2.2320	67.9255
 2.2310	68.0144
 2.2300	67.9819
 2.2290	67.9116
 2.2280	67.9782
 2.2270	67.9446
 2.2260	67.9939
 2.2250	68.0290
 2.2240	67.9252
 2.2230	67.9673
 2.2220	67.9846
 2.2210	68.0061
 2.2200	68.0202
 2.2190	67.9995
 2.2180	68.0315
 2.2170	68.0202
 2.2160	68.0137
 2.2150	68.0301
 2.2140	68.0217
 2.2130	68.0465
 2.2120	68.1323
 2.2110	67.9568
 2.2100	68.0991
 2.2090	68.1183
 2.2080	68.0738
 2.2070	68.1130
 2.2060	68.1350
 2.2050	68.0754
 2.2040	68.1472
 2.2030	68.1485
 2.2020	68.2828
 2.2010	68.1691
 2.2000	68.2089
 2.1990	68.2195
 2.1980	68.2246
 2.1970	68.2470
 2.1960	68.1650
 2.1950	68.1697
 2.1940	68.2459
 2.1930	68.2131
 2.1920	68.2681
 2.1910	68.2265
 2.1900	68.2361
 2.1890	68.2210
 2.1880	68.2410
 2.1870	68.1690
 2.1860	68.2182
 2.1850	68.2918
 2.1840	68.3252
 2.1830	68.2963
 2.1820	68.3415
 2.1810	68.3097
 2.1800	68.3814
 2.1790	68.3656
 2.1780	68.3859
 2.1770	68.3458
 2.1760	68.4072
 2.1750	68.3725
 2.1740	68.4358
 2.1730	68.4571
 2.1720	68.4589
 2.1710	68.4182
 2.1700	68.4249
 2.1690	68.4976
 2.1680	68.5111
 2.1670	68.5563
 2.1660	68.5883
 2.1650	68.5089
 2.1640	68.5280
 2.1630	68.5534
 2.1620	68.5841
 2.1610	68.5721
 2.1600	68.6408
 2.1590	68.6307
 2.1580	68.6709
 2.1570	68.6810
 2.1560	68.6337
 2.1550	68.6507
 2.1540	68.7160
 2.1530	68.6246
 2.1520	68.7180
 2.1510	68.7068
 2.1500	68.6988
 2.1490	68.6256
 2.1480	68.6498
 2.1470	68.6638
 2.1460	68.6410
 2.1450	68.5949
 2.1440	68.7098
 2.1430	68.6286
 2.1420	68.6089
 2.1410	68.5639
 2.1400	68.6011
 2.1390	68.5633
 2.1380	68.5643
 2.1370	68.4916
 2.1360	68.4947
 2.1350	68.4363
 2.1340	68.4557
 2.1330	68.4493
 2.1320	68.4378
 2.1310	68.3445
 2.1300	68.3622
 2.1290	68.3154
 2.1280	68.2903
 2.1270	68.2574
 2.1260	68.1671
 2.1250	68.0720
 2.1240	68.1579
 2.1230	68.0844
 2.1220	68.0348
 2.1210	67.9603
 2.1200	67.9231
 2.1190	67.8607
 2.1180	67.8224
 2.1170	67.7370
 2.1160	67.6698
 2.1150	67.6160
 2.1140	67.5775
 2.1130	67.5002
 2.1120	67.4472
 2.1110	67.3990
 2.1100	67.4244
 2.1090	67.3652
 2.1080	67.2491
 2.1070	67.2235
 2.1060	67.2192
 2.1050	67.1285
 2.1040	67.0994
 2.1030	67.0399
 2.1020	66.9854
 2.1010	66.9298
 2.1000	66.8730
 2.0990	66.8441
 2.0980	66.8418
 2.0970	66.8216
 2.0960	66.8075
 2.0950	66.7954
 2.0940	66.8213
 2.0930	66.8333
 2.0920	66.8132
 2.0910	66.7932
 2.0900	66.8005
 2.0890	66.7662
 2.0880	66.7745
 2.0870	66.7666
 2.0860	66.7649
 2.0850	66.7643
 2.0840	66.7418
 2.0830	66.7011
 2.0820	66.6948
 2.0810	66.6447
 2.0800	66.6553
 2.0790	66.6562
 2.0780	66.6576
 2.0770	66.6863
 2.0760	66.6227
 2.0750	66.6352
 2.0740	66.6733
 2.0730	66.6455
 2.0720	66.6377
 2.0710	66.5991
 2.0700	66.5488
 2.0690	66.4831
 2.0680	66.4942
 2.0670	66.5043
 2.0660	66.4696
 2.0650	66.5043
 2.0640	66.4966
 2.0630	66.4503
 2.0620	66.4297
 2.0610	66.4095
 2.0600	66.3954
 2.0590	66.4234
 2.0580	66.4004
 2.0570	66.3579
 2.0560	66.3426
 2.0550	66.2907
 2.0540	66.2694
 2.0530	66.3008
 2.0520	66.2607
 2.0510	66.2100
 2.0500	66.1811
 2.0490	66.2089
 2.0480	66.2015
 2.0470	66.1713
 2.0460	66.1567
 2.0450	66.1460
 2.0440	66.1007
 2.0430	66.0711
 2.0420	66.0371
 2.0410	66.0179
 2.0400	65.9747
 2.0390	65.9508
 2.0380	65.9233
 2.0370	65.8705
 2.0360	65.7981
 2.0350	65.8065
 2.0340	65.8020
 2.0330	65.7626
 2.0320	65.7145
 2.0310	65.6834
 2.0300	65.5799
 2.0290	65.5285
 2.0280	65.5575
 2.0270	65.5197
 2.0260	65.4531
 2.0250	65.4430
 2.0240	65.3553
 2.0230	65.2663
 2.0220	65.1993
 2.0210	65.1738
 2.0200	65.1538
 2.0190	65.1289
 2.0180	65.0838
 2.0170	65.0291
 2.0160	64.8849
 2.0150	64.8707
 2.0140	64.8254
 2.0130	64.7577
 2.0120	64.7134
 2.0110	64.7093
 2.0100	64.6286
 2.0090	64.5585
 2.0080	64.4695
 2.0070	64.4493
 2.0060	64.3727
 2.0050	64.3133
 2.0040	64.2327
 2.0030	64.1697
 2.0020	64.0667
 2.0010	64.0445
 2.0000	63.9380
 1.9990	63.8691
 1.9980	63.8290
 1.9970	63.7963
 1.9960	63.6040
 1.9950	63.5195
 1.9940	63.5064
 1.9930	63.3890
 1.9920	63.3030
 1.9910	63.2424
 1.9900	63.1024
 1.9890	63.0785
 1.9880	63.0028
 1.9870	62.8718
 1.9860	62.8659
 1.9850	62.8003
 1.9840	62.6594
 1.9830	62.5895
 1.9820	62.4568
 1.9810	62.3976
 1.9800	62.2742
 1.9790	62.2576
 1.9780	62.1712
 1.9770	62.2053
 1.9760	62.0169
 1.9750	61.9328
 1.9740	61.8471
 1.9730	61.8495
 1.9720	61.7408
 1.9710	61.6934
 1.9700	61.5883
 1.9690	61.5911
 1.9680	61.4307
 1.9670	61.3729
 1.9660	61.3061
 1.9650	61.2559
 1.9640	61.1811
 1.9630	61.1797
 1.9620	61.0446
 1.9610	61.0995
 1.9600	60.9570
 1.9590	60.8849
 1.9580	60.8348
 1.9570	60.8380
 1.9560	60.7125
 1.9550	60.7492
 1.9540	60.5926
 1.9530	60.6385
 1.9520	60.5335
 1.9510	60.5541
 1.9500	60.4520
 1.9490	60.4715
 1.9480	60.4123
 1.9470	60.4053
 1.9460	60.3015
 1.9450	60.3091
 1.9440	60.3069
 1.9430	60.3015
 1.9420	60.3215
 1.9410	60.3273
 1.9400	60.1903
 1.9390	60.2411
 1.9380	60.2587
 1.9370	60.2384
 1.9360	60.1497
 1.9350	60.2417
 1.9340	60.2370
 1.9330	60.2846
 1.9320	60.2232
 1.9310	60.2377
 1.9300	60.2573
 1.9290	60.3017
 1.9280	60.3381
 1.9270	60.4280
 1.9260	60.3718
 1.9250	60.5042
 1.9240	60.4664
 1.9230	60.5568
 1.9220	60.6286
 1.9210	60.7683
 1.9200	60.7845
 1.9190	60.8845
 1.9180	60.9042
 1.9170	61.0938
 1.9160	61.0693
 1.9150	61.3543
 1.9140	61.3578
 1.9130	61.5269
 1.9120	61.6369
 1.9110	61.7736
 1.9100	61.9229
 1.9090	62.0809
 1.9080	62.2022
 1.9070	62.3807
 1.9060	62.5075
 1.9050	62.6634
 1.9040	62.8471
 1.9030	63.1280
 1.9020	63.2822
 1.9010	63.5519
 1.9000	63.7663
 1.8990	63.9514
 1.8980	64.1456
 1.8970	64.3751
 1.8960	64.5381
 1.8950	64.7729
 1.8940	64.8687
 1.8930	65.0608
 1.8920	65.1922
 1.8910	65.3435
 1.8900	65.5489
 1.8890	65.7284
 1.8880	65.8849
 1.8870	66.0836
 1.8860	66.2245
 1.8850	66.3404
 1.8840	66.4213
 1.8830	66.5447
 1.8820	66.6974
 1.8810	66.7907
 1.8800	66.9086
 1.8790	66.9323
 1.8780	67.0769
 1.8770	67.1848
 1.8760	67.1679
 1.8750	67.3156
 1.8740	67.3985
 1.8730	67.4499
 1.8720	67.4504
 1.8710	67.5268
 1.8700	67.5656
 1.8690	67.6114
 1.8680	67.5994
 1.8670	67.7109
 1.8660	67.7168
 1.8650	67.7435
 1.8640	67.7564
 1.8630	67.7572
 1.8620	67.7480
 1.8610	67.7398
 1.8600	67.7719
 1.8590	67.8730
 1.8580	67.9173
 1.8570	67.8841
 1.8560	67.8224
 1.8550	67.8732
 1.8540	67.8770
 1.8530	67.9240
 1.8520	67.9167
 1.8510	67.9453
 1.8500	67.8710
 1.8490	67.9419
 1.8480	67.8878
 1.8470	67.9152
 1.8460	67.9170
 1.8450	67.9909
 1.8440	67.9931
 1.8430	68.0104
 1.8420	67.9945
 1.8410	67.9455
 1.8400	67.9450
 1.8390	67.9579
 1.8380	67.9279
 1.8370	67.9300
 1.8360	67.8982
 1.8350	67.9414
 1.8340	67.9191
 1.8330	67.9115
 1.8320	67.8855
 1.8310	67.8958
 1.8300	67.8963
 1.8290	67.8959
 1.8280	67.8856
 1.8270	67.9051
 1.8260	67.8609
 1.8250	67.8830
 1.8240	67.8485
 1.8230	67.8570
 1.8220	67.8684
 1.8210	67.8614
 1.8200	67.8672
 1.8190	67.8443
 1.8180	67.8173
 1.8170	67.8285
 1.8160	67.8146
 1.8150	67.8292
 1.8140	67.8678
 1.8130	67.8855
 1.8120	67.8420
 1.8110	67.7850
 1.8100	67.8131
 1.8090	67.8887
 1.8080	67.8475
 1.8070	67.8461
 1.8060	67.7710
 1.8050	67.7839
 1.8040	67.7805
 1.8030	67.7556
 1.8020	67.7757
 1.8010	67.8346
 1.8000	67.8540
 1.7990	67.8301
 1.7980	67.8437
 1.7970	67.8091
 1.7960	67.7905
 1.7950	67.7869
 1.7940	67.7528
 1.7930	67.7859
 1.7920	67.7828
 1.7910	67.7658
 1.7900	67.7622
 1.7890	67.7612
 1.7880	67.7637
 1.7870	67.7603
 1.7860	67.7472
 1.7850	67.7409
 1.7840	67.7599
 1.7830	67.7632
 1.7820	67.7411
 1.7810	67.7646
 1.7800	67.7680
 1.7790	67.7446
 1.7780	67.7418
 1.7770	67.7273
 1.7760	67.7758
 1.7750	67.7468
 1.7740	67.7306
 1.7730	67.7436
 1.7720	67.7241
 1.7710	67.7452
 1.7700	67.7573
 1.7690	67.7428
 1.7680	67.7460
 1.7670	67.7183
 1.7660	67.7436
 1.7650	67.7504
 1.7640	67.7574
 1.7630	67.7482
 1.7620	67.7828
 1.7610	67.7862
 1.7600	67.7561
 1.7590	67.7429
 1.7580	67.7347
 1.7570	67.7006
 1.7560	67.7147
 1.7550	67.7702
 1.7540	67.7339
 1.7530	67.7375
 1.7520	67.7528
 1.7510	67.7277
 1.7500	67.7276
 1.7490	67.7305
 1.7480	67.8133
 1.7470	67.8082
 1.7460	67.8131
 1.7450	67.8002
 1.7440	67.7855
 1.7430	67.7881
 1.7420	67.8113
 1.7410	67.8182
 1.7400	67.8401
 1.7390	67.7957
 1.7380	67.8067
 1.7370	67.7819
 1.7360	67.7874
 1.7350	67.7453
 1.7340	67.7521
 1.7330	67.8098
 1.7320	67.8935
 1.7310	67.8948
 1.7300	67.8279
 1.7290	67.8138
 1.7280	67.8419
 1.7270	67.7891
 1.7260	67.8308
 1.7250	67.7902
 1.7240	67.8523
 1.7230	67.8188
 1.7220	67.8136
 1.7210	67.8176
 1.7200	67.8591
 1.7190	67.7443
 1.7180	67.7680
 1.7170	67.7606
 1.7160	67.7763
 1.7150	67.7982
 1.7140	67.7603
 1.7130	67.8341
 1.7120	67.8102
 1.7110	67.7466
 1.7100	67.7544
 1.7090	67.7272
 1.7080	67.7793
 1.7070	67.7849
 1.7060	67.7154
 1.7050	67.7388
 1.7040	67.7772
 1.7030	67.7432
 1.7020	67.7430
 1.7010	67.6646
 1.7000	67.6810
 1.6990	67.6543
 1.6980	67.6698
 1.6970	67.6486
 1.6960	67.6723
 1.6950	67.6227
 1.6940	67.6246
 1.6930	67.6197
 1.6920	67.6243
 1.6910	67.5843
 1.6900	67.6642
 1.6890	67.5912
 1.6880	67.6306
 1.6870	67.5780
 1.6860	67.6236
 1.6850	67.5933
 1.6840	67.6580
 1.6830	67.5676
 1.6820	67.6181
 1.6810	67.5590
 1.6800	67.5489
 1.6790	67.4982
 1.6780	67.5989
 1.6770	67.5955
 1.6760	67.5340
 1.6750	67.5950
 1.6740	67.5715
 1.6730	67.4776
 1.6720	67.5731
 1.6710	67.5729
 1.6700	67.5931
 1.6690	67.5325
 1.6680	67.4146
 1.6670	67.4362
 1.6660	67.5355
 1.6650	67.5062
 1.6640	67.5102
 1.6630	67.4889
 1.6620	67.4871
 1.6610	67.4655
 1.6600	67.4790
 1.6590	67.3935
 1.6580	67.4150
 1.6570	67.4050
 1.6560	67.4951
 1.6550	67.3972
 1.6540	67.4366
 1.6530	67.4217
 1.6520	67.4435
 1.6510	67.3391
 1.6500	67.3918
 1.6490	67.2926
 1.6480	67.4101
 1.6470	67.2582
 1.6460	67.3301
 1.6450	67.3116
 1.6440	67.3964
 1.6430	67.3233
 1.6420	67.3127
 1.6410	67.2809
 1.6400	67.3723
 1.6390	67.4493
 1.6380	67.3147
 1.6370	67.2998
 1.6360	67.3532
 1.6350	67.3033
 1.6340	67.3130
 1.6330	67.2763
 1.6320	67.3161
 1.6310	67.2228
 1.6300	67.2176
 1.6290	67.1726
 1.6280	67.2248
 1.6270	67.2500
 1.6260	67.2791
 1.6250	67.2314
 1.6240	67.3160
 1.6230	67.2451
 1.6220	67.2030
 1.6210	67.1311
 1.6200	67.2120
 1.6190	67.1423
 1.6180	67.1330
 1.6170	67.1744
 1.6160	67.2308
 1.6150	67.1516
 1.6140	67.1643
 1.6130	67.1471
 1.6120	67.0985
 1.6110	67.2281
 1.6100	67.1660
 1.6090	67.0856
 1.6080	67.1489
 1.6070	67.1402
 1.6060	67.1342
 1.6050	67.0985
 1.6040	67.1040
 1.6030	67.0262
 1.6020	67.1312
 1.6010	67.0895
 1.6000	67.1210
 1.5990	67.0524
 1.5980	67.0635
 1.5970	67.0487
 1.5960	67.0212
 1.5950	66.9858
 1.5940	67.0504
 1.5930	66.9720
 1.5920	67.0231
 1.5910	66.9696
 1.5900	66.9845
 1.5890	66.9690
 1.5880	67.0063
 1.5870	66.9339
 1.5860	66.9842
 1.5850	66.9604
 1.5840	67.0092
 1.5830	66.9555
 1.5820	66.9393
 1.5810	66.9093
 1.5800	66.9089
 1.5790	66.7953
 1.5780	66.8630
 1.5770	66.8600
 1.5760	66.8612
 1.5750	66.8563
 1.5740	66.9110
 1.5730	66.8706
 1.5720	66.8359
 1.5710	66.7746
 1.5700	66.8204
 1.5690	66.7748
 1.5680	66.7132
 1.5670	66.7072
 1.5660	66.7382
 1.5650	66.7291
 1.5640	66.6904
 1.5630	66.6893
 1.5620	66.6882
 1.5610	66.6437
 1.5600	66.6969
 1.5590	66.6905
 1.5580	66.6474
 1.5570	66.6563
 1.5560	66.6433
 1.5550	66.5926
 1.5540	66.6031
 1.5530	66.5653
 1.5520	66.5519
 1.5510	66.5206
 1.5500	66.5641
 1.5490	66.5470
 1.5480	66.5536
 1.5470	66.5603
 1.5460	66.5055
 1.5450	66.4448
 1.5440	66.4672
 1.5430	66.4872
 1.5420	66.4493
 1.5410	66.4291
 1.5400	66.4471
 1.5390	66.4426
 1.5380	66.3788
 1.5370	66.2822
 1.5360	66.2988
 1.5350	66.3553
 1.5340	66.3523
 1.5330	66.3129
 1.5320	66.3041
 1.5310	66.2401
 1.5300	66.2055
 1.5290	66.2794
 1.5280	66.2793
 1.5270	66.2284
 1.5260	66.1939
 1.5250	66.1662
 1.5240	66.1612
 1.5230	66.1321
 1.5220	66.1566
 1.5210	66.1206
 1.5200	66.0694
 1.5190	66.1156
 1.5180	66.0820
 1.5170	66.0022
 1.5160	66.0588
 1.5150	66.0432
 1.5140	65.9744
 1.5130	65.9296
 1.5120	65.8931
 1.5110	65.8730
 1.5100	65.8932
 1.5090	65.8725
 1.5080	65.8254
 1.5070	65.7793
 1.5060	65.8208
 1.5050	65.8134
 1.5040	65.7323
 1.5030	65.7482
 1.5020	65.7457
 1.5010	65.6730
 1.5000	65.6638
 1.4990	65.6763
 1.4980	65.6506
 1.4970	65.6106
 1.4960	65.5652
 1.4950	65.5536
 1.4940	65.5201
 1.4930	65.5000
 1.4920	65.4746
 1.4910	65.4822
 1.4900	65.4738
 1.4890	65.4312
 1.4880	65.4069
 1.4870	65.3843
 1.4860	65.3383
 1.4850	65.2866
 1.4840	65.2660
 1.4830	65.2780
 1.4820	65.2108
 1.4810	65.1769
 1.4800	65.1859
 1.4790	65.1693
 1.4780	65.1017
 1.4770	65.1148
 1.4760	65.0745
 1.4750	65.0331
 1.4740	64.9910
 1.4730	65.0184
 1.4720	65.0525
 1.4710	65.0071
 1.4700	64.9984
 1.4690	64.8998
 1.4680	64.8746
 1.4670	64.9294
 1.4660	64.8707
 1.4650	64.8352
 1.4640	64.8319
 1.4630	64.8140
 1.4620	64.7628
 1.4610	64.7684
 1.4600	64.7487
 1.4590	64.7459
 1.4580	64.7412
 1.4570	64.7467
 1.4560	64.6930
 1.4550	64.7187
 1.4540	64.6962
 1.4530	64.7128
 1.4520	64.6839
 1.4510	64.6347
 1.4500	64.6457
 1.4490	64.6376
 1.4480	64.6726
 1.4470	64.6524
 1.4460	64.6072
 1.4450	64.6288
 1.4440	64.6230
 1.4430	64.6487
 1.4420	64.6009
 1.4410	64.6381
 1.4400	64.5723
 1.4390	64.6104
 1.4380	64.5925
 1.4370	64.5691
 1.4360	64.5624
 1.4350	64.5732
 1.4340	64.6044
 1.4330	64.6323
 1.4320	64.6156
 1.4310	64.5969
 1.4300	64.6364
 1.4290	64.6760
 1.4280	64.6350
 1.4270	64.6067
 1.4260	64.7235
 1.4250	64.6792
 1.4240	64.7135
 1.4230	64.7438
 1.4220	64.7325
 1.4210	64.8026
 1.4200	64.7676
 1.4190	64.8008
 1.4180	64.8077
 1.4170	64.8517
 1.4160	64.8732
 1.4150	64.9464
 1.4140	64.8505
 1.4130	64.9567
 1.4120	65.0657
 1.4110	65.0928
 1.4100	65.1015
 1.4090	65.1292
 1.4080	65.1660
 1.4070	65.1721
 1.4060	65.2202
 1.4050	65.2490
 1.4040	65.2989
 1.4030	65.3396
 1.4020	65.3676
 1.4010	65.3553
 1.4000	65.3594
 1.3990	65.4451
 1.3980	65.6073
 1.3970	65.6215
 1.3960	65.6635
 1.3950	65.6768
 1.3940	65.6410
 1.3930	65.7469
 1.3920	65.7146
 1.3910	65.7686
 1.3900	65.8763
 1.3890	65.8957
 1.3880	65.7866
 1.3870	65.8064
 1.3860	65.7558
 1.3850	65.8385
 1.3840	65.9319
 1.3830	65.8562
 1.3820	65.7761
 1.3810	65.8815
 1.3800	65.9197
 1.3790	65.9755
 1.3780	65.9290
 1.3770	65.9377
 1.3760	65.9514
 1.3750	65.9122
 1.3740	65.8804
 1.3730	65.9238
 1.3720	65.9283
 1.3710	65.8748
 1.3700	65.8589
 1.3690	65.8952
 1.3680	65.9060
 1.3670	65.9271
 1.3660	65.8607
 1.3650	65.9784
 1.3640	65.8642
 1.3630	65.9481
 1.3620	65.8673
 1.3610	65.8567
 1.3600	65.8509
 1.3590	65.9325
 1.3580	65.9392
 1.3570	65.8831
 1.3560	65.8382
 1.3550	65.8160
 1.3540	65.7969
 1.3530	65.8448
 1.3520	65.7934
 1.3510	65.8333
 1.3500	65.7701
 1.3490	65.8034
 1.3480	65.8358
 1.3470	65.8092
 1.3460	65.8129
 1.3450	65.8555
 1.3440	65.7677
 1.3430	65.7805
 1.3420	65.7465
 1.3410	65.8478
 1.3400	65.8053
 1.3390	65.7911
 1.3380	65.7006
 1.3370	65.8070
 1.3360	65.7340
 1.3350	65.7667
 1.3340	65.7450
 1.3330	65.8125
 1.3320	65.7890
 1.3310	65.8194
 1.3300	65.8111
 1.3290	65.7253
 1.3280	65.6959
 1.3270	65.8247
 1.3260	65.7432
 1.3250	65.8160
 1.3240	65.6950
 1.3230	65.7823
 1.3220	65.6779
 1.3210	65.7288
 1.3200	65.6996
 1.3190	65.7553
 1.3180	65.7072
 1.3170	65.7888
 1.3160	65.7293
 1.3150	65.7242
 1.3140	65.6877
 1.3130	65.6971
 1.3120	65.6593
 1.3110	65.7065
 1.3100	65.6805
 1.3090	65.6679
 1.3080	65.6105
 1.3070	65.7068
 1.3060	65.6827
 1.3050	65.6771
 1.3040	65.5892
 1.3030	65.6606
 1.3020	65.6115
 1.3010	65.7188
 1.3000	65.7064
 1.2990	65.6173
 1.2980	65.5864
 1.2970	65.6086
 1.2960	65.6359
 1.2950	65.6369
 1.2940	65.5932
 1.2930	65.5643
 1.2920	65.5453
 1.2910	65.5578
 1.2900	65.5457
 1.2890	65.5750
 1.2880	65.5658
 1.2870	65.5682
 1.2860	65.5639
 1.2850	65.5177
 1.2840	65.5301
 1.2830	65.5223
 1.2820	65.4465
 1.2810	65.5497
 1.2800	65.5058
 1.2790	65.4931
 1.2780	65.4431
 1.2770	65.4799
 1.2760	65.4064
 1.2750	65.4578
 1.2740	65.4567
 1.2730	65.5082
 1.2720	65.4619
 1.2710	65.3967
 1.2700	65.3959
 1.2690	65.3982
 1.2680	65.4345
 1.2670	65.4568
 1.2660	65.4873
 1.2650	65.4655
 1.2640	65.4186
 1.2630	65.4290
 1.2620	65.3703
 1.2610	65.3724
 1.2600	65.3793
 1.2590	65.4164
 1.2580	65.4114
 1.2570	65.3899
 1.2560	65.3278
 1.2550	65.3103
 1.2540	65.3326
 1.2530	65.3410
 1.2520	65.3482
 1.2510	65.3197
 1.2500	65.2954
 1.2490	65.2880
 1.2480	65.2965
 1.2470	65.2958
 1.2460	65.2669
 1.2450	65.2250
 1.2440	65.1830
 1.2430	65.2209
 1.2420	65.2584
 1.2410	65.2683
 1.2400	65.2791
 1.2390	65.2616
 1.2380	65.2162
 1.2370	65.2484
 1.2360	65.2556
 1.2350	65.2254
 1.2340	65.1845
 1.2330	65.1961
 1.2320	65.1891
 1.2310	65.1178
 1.2300	65.1231
 1.2290	65.1579
 1.2280	65.1190
 1.2270	65.1410
 1.2260	65.1626
 1.2250	65.1323
 1.2240	65.0587
 1.2230	65.0906
 1.2220	65.1141
 1.2210	65.0859
 1.2200	65.0714
 1.2190	65.0443
 1.2180	65.0353
 1.2170	65.0260
 1.2160	65.0319
 1.2150	65.0491
 1.2140	65.0157
 1.2130	65.0000
 1.2120	64.9787
 1.2110	64.9965
 1.2100	64.9675
 1.2090	64.9260
 1.2080	64.9658
 1.2070	64.9587
 1.2060	64.9488
 1.2050	64.9574
 1.2040	64.9991
 1.2030	64.9866
 1.2020	65.0091
 1.2010	64.9970
 1.2000	64.9733
 1.1990	64.9632
 1.1980	64.9361
 1.1970	64.9152
 1.1960	64.9173
 1.1950	64.9169
 1.1940	64.9613
 1.1930	64.8779
 1.1920	64.8524
 1.1910	64.8999
 1.1900	64.9045
 1.1890	64.9320
 1.1880	64.8557
 1.1870	64.8000
 1.1860	64.8187
 1.1850	64.8525
 1.1840	64.8658
 1.1830	64.8110
 1.1820	64.8310
 1.1810	64.8424
 1.1800	64.8408
 1.1790	64.8042
 1.1780	64.8393
 1.1770	64.8027
 1.1760	64.8527
 1.1750	64.8100
 1.1740	64.8309
 1.1730	64.7954
 1.1720	64.7809
 1.1710	64.7761
 1.1700	64.7749
 1.1690	64.7550
 1.1680	64.7550
 1.1670	64.6952
 1.1660	64.7181
 1.1650	64.7274
 1.1640	64.7481
 1.1630	64.7209
 1.1620	64.7525
 1.1610	64.7088
 1.1600	64.6887
 1.1590	64.7304
 1.1580	64.7546
 1.1570	64.7309
 1.1560	64.6821
 1.1550	64.6489
 1.1540	64.6221
 1.1530	64.6754
 1.1520	64.7147
 1.1510	64.6431
 1.1500	64.6554
 1.1490	64.6311
 1.1480	64.6828
 1.1470	64.6190
 1.1460	64.6592
 1.1450	64.6611
 1.1440	64.5861
 1.1430	64.6116
 1.1420	64.6085
 1.1410	64.5936
 1.1400	64.5805
 1.1390	64.5639
 1.1380	64.6202
 1.1370	64.6353
 1.1360	64.6306
 1.1350	64.5954
 1.1340	64.6778
 1.1330	64.5541
 1.1320	64.5891
 1.1310	64.5837
 1.1300	64.5705
 1.1290	64.5671
 1.1280	64.5253
 1.1270	64.5304
 1.1260	64.5436
 1.1250	64.5250
 1.1240	64.5312
 1.1230	64.4747
 1.1220	64.4848
 1.1210	64.4626
 1.1200	64.5088
 1.1190	64.4067
 1.1180	64.4687
 1.1170	64.4293
 1.1160	64.4822
 1.1150	64.3886
 1.1140	64.4677
 1.1130	64.3922
 1.1120	64.4736
 1.1110	64.4215
 1.1100	64.3488
 1.1090	64.4161
 1.1080	64.4513
 1.1070	64.3348
 1.1060	64.3621
 1.1050	64.3605
 1.1040	64.4243
 1.1030	64.3719
 1.1020	64.3933
 1.1010	64.2903
 1.1000	64.3389
 1.0990	64.3101
 1.0980	64.2759
 1.0970	64.2210
 1.0960	64.3520
 1.0950	64.2915
 1.0940	64.3092
 1.0930	64.2993
 1.0920	64.3006
 1.0910	64.2726
 1.0900	64.2600
 1.0890	64.2745
 1.0880	64.2669
 1.0870	64.1509
 1.0860	64.2251
 1.0850	64.2173
 1.0840	64.2434
 1.0830	64.1699
 1.0820	64.1853
 1.0810	64.1602
 1.0800	64.2866
 1.0790	64.1814
 1.0780	64.1041
 1.0770	64.0807
 1.0760	64.1577
 1.0750	64.0559
 1.0740	64.0430
 1.0730	64.0954
 1.0720	64.1891
 1.0710	64.1259
 1.0700	64.0741
 1.0690	64.1338
 1.0680	64.0288
 1.0670	64.0294
 1.0660	64.0522
 1.0650	64.0044
 1.0640	64.1043
 1.0630	64.0318
 1.0620	63.9923
 1.0610	63.9830
 1.0600	63.9850
 1.0590	64.0394
 1.0580	63.9758
 1.0570	63.9410
 1.0560	64.0226
 1.0550	63.8918
 1.0540	63.9240
 1.0530	63.7953
 1.0520	63.9452
 1.0510	63.8805
 1.0500	63.9160
 1.0490	63.8901
 1.0480	63.9198
 1.0470	63.7989
 1.0460	63.8589
 1.0450	63.7946
 1.0440	63.8513
 1.0430	63.8119
 1.0420	63.7892
 1.0410	63.7812
 1.0400	63.7927
 1.0390	63.8285
 1.0380	63.8076
 1.0370	63.7810
 1.0360	63.7932
 1.0350	63.7575
 1.0340	63.7540
 1.0330	63.7001
 1.0320	63.8199
 1.0310	63.7301
 1.0300	63.7039
 1.0290	63.6224
 1.0280	63.7136
 1.0270	63.6187
 1.0260	63.7130
 1.0250	63.6614
 1.0240	63.7196
 1.0230	63.6371
 1.0220	63.6828
 1.0210	63.6321
 1.0200	63.6088
 1.0190	63.6076
 1.0180	63.5907
 1.0170	63.5085
 1.0160	63.5654
 1.0150	63.5716
 1.0140	63.5333
 1.0130	63.4372
 1.0120	63.5037
 1.0110	63.5077
 1.0100	63.5336
 1.0090	63.4572
 1.0080	63.4422
 1.0070	63.4552
 1.0060	63.4632
 1.0050	63.3968
 1.0040	63.3869
 1.0030	63.4090
 1.0020	63.4088
 1.0010	63.3947
 1.0000	63.3454
 0.9990	63.3410
 0.9980	63.4038
 0.9970	63.3671
 0.9960	63.3871
 0.9950	63.3170
 0.9940	63.3006
 0.9930	63.2745
 0.9920	63.3003
 0.9910	63.2833
 0.9900	63.2770
 0.9890	63.2648
 0.9880	63.2759
 0.9870	63.2375
 0.9860	63.2034
 0.9850	63.2381
 0.9840	63.1873
 0.9830	63.0980
 0.9820	63.1988
 0.9810	63.1563
 0.9800	63.1485
 0.9790	63.1201
 0.9780	63.0982
 0.9770	63.0627
 0.9760	63.0750
 0.9750	63.0111
 0.9740	63.0565
 0.9730	63.0439
 0.9720	62.9905
 0.9710	62.9931
 0.9700	63.0283
 0.9690	62.9721
 0.9680	62.9571
 0.9670	62.9661
 0.9660	62.9716
 0.9650	62.9503
 0.9640	62.9604
 0.9630	62.9457
 0.9620	62.9060
 0.9610	62.8981
 0.9600	62.8752
 0.9590	62.8382
 0.9580	62.8748
 0.9570	62.8427
 0.9560	62.8066
 0.9550	62.8080
 0.9540	62.8112
 0.9530	62.7717
 0.9520	62.7717
 0.9510	62.7944
 0.9500	62.7965
 0.9490	62.7821
 0.9480	62.6872
 0.9470	62.6348
 0.9460	62.6732
 0.9450	62.6581
 0.9440	62.6647
 0.9430	62.6584
 0.9420	62.6374
 0.9410	62.6208
 0.9400	62.6573
 0.9390	62.6168
 0.9380	62.6188
 0.9370	62.6343
 0.9360	62.5861
 0.9350	62.6025
 0.9340	62.6014
 0.9330	62.5596
 0.9320	62.5291
 0.9310	62.4974
 0.9300	62.4792
 0.9290	62.4482
 0.9280	62.4781
 0.9270	62.4271
 0.9260	62.4031
 0.9250	62.4706
 0.9240	62.4221
 0.9230	62.3517
 0.9220	62.3813
 0.9210	62.3897
 0.9200	62.3961
 0.9190	62.3544
 0.9180	62.2673
 0.9170	62.2867
 0.9160	62.2758
 0.9150	62.2835
 0.9140	62.3037
 0.9130	62.2623
 0.9120	62.2307
 0.9110	62.2364
 0.9100	62.2440
 0.9090	62.2214
 0.9080	62.2109
 0.9070	62.2274
 0.9060	62.1900
 0.9050	62.2046
 0.9040	62.1823
 0.9030	62.1687
 0.9020	62.1672
 0.9010	62.1721
 0.9000	62.0934
 0.8990	62.0771
 0.8980	62.0388
 0.8970	62.0150
 0.8960	62.0033
 0.8950	62.0804
 0.8940	62.0160
 0.8930	62.0364
 0.8920	61.9982
 0.8910	61.9920
 0.8900	61.9973
 0.8890	62.0394
 0.8880	62.0161
 0.8870	61.9859
 0.8860	61.9495
 0.8850	61.9988
 0.8840	61.9673
 0.8830	61.9343
 0.8820	61.8737
 0.8810	61.8974
 0.8800	61.8796
 0.8790	61.9393
 0.8780	61.9138
 0.8770	61.8857
 0.8760	61.8633
 0.8750	61.8815
 0.8740	61.8715
 0.8730	61.8417
 0.8720	61.8355
 0.8710	61.8685
 0.8700	61.8342
 0.8690	61.8669
 0.8680	61.7617
 0.8670	61.8248
 0.8660	61.7629
 0.8650	61.8424
 0.8640	61.8050
 0.8630	61.8096
 0.8620	61.7770
 0.8610	61.7402
 0.8600	62.2144
 0.8590	62.1876
 0.8580	62.1846
 0.8570	62.2233
 0.8560	62.1323
 0.8550	62.1168
 0.8540	62.1521
 0.8530	62.0897
 0.8520	62.0889
 0.8510	62.1551
 0.8500	62.0866
 0.8490	62.1145
 0.8480	62.0669
 0.8470	62.0363
 0.8460	62.0565
 0.8450	62.0869
 0.8440	62.0395
 0.8430	61.9798
 0.8420	62.0054
 0.8410	62.0212
 0.8400	61.9818
 0.8390	61.9927
 0.8380	61.9588
 0.8370	61.9218
 0.8360	61.9415
 0.8350	61.9198
 0.8340	61.9150
 0.8330	61.9087
 0.8320	61.9245
 0.8310	61.8455
 0.8300	61.8232
 0.8290	61.8590
 0.8280	61.8480
 0.8270	61.9012
 0.8260	61.8560
 0.8250	61.8219
 0.8240	61.8761
 0.8230	61.8276
 0.8220	61.8214
 0.8210	61.8491
 0.8200	61.8605
 0.8190	61.7962
 0.8180	61.8143
 0.8170	61.8565
 0.8160	61.8154
 0.8150	61.8347
 0.8140	61.8167
 0.8130	61.8130
 0.8120	61.8037
 0.8110	61.8372
 0.8100	61.8125
 0.8090	61.7946
 0.8080	61.8549
 0.8070	61.8361
 0.8060	61.8205
 0.8050	61.8743
 0.8040	61.8332
 0.8030	61.8314
 0.8020	61.8613
 0.8010	61.8385
 0.8000	61.8729
 0.7990	61.8415
 0.7980	61.7981
 0.7970	61.7823
 0.7960	61.8117
 0.7950	61.7984
 0.7940	61.7792
 0.7930	61.8066
 0.7920	61.7820
 0.7910	61.7697
 0.7900	61.8428
 0.7890	61.7992
 0.7880	61.7847
 0.7870	61.8159
 0.7860	61.8215
 0.7850	61.8130
 0.7840	61.8547
 0.7830	61.8253
 0.7820	61.7986
 0.7810	61.8104
 0.7800	61.8435
 0.7790	61.8254
 0.7780	61.8411
 0.7770	61.8314
 0.7760	61.7936
 0.7750	61.8103
 0.7740	61.8188
 0.7730	61.8015
 0.7720	61.7993
 0.7710	61.7844
 0.7700	61.7982
 0.7690	61.7655
 0.7680	61.8308
 0.7670	61.8122
 0.7660	61.7978
 0.7650	61.8087
 0.7640	61.8207
 0.7630	61.8313
 0.7620	61.8132
 0.7610	61.8164
 0.7600	61.7946
 0.7590	61.8171
 0.7580	61.8069
 0.7570	61.7492
 0.7560	61.8289
 0.7550	61.7822
 0.7540	61.8032
 0.7530	61.7913
 0.7520	61.7593
 0.7510	61.7652
 0.7500	61.7750
 0.7490	61.7451
 0.7480	61.7541
 0.7470	61.7745
 0.7460	61.7519
 0.7450	61.7507
 0.7440	61.7614
 0.7430	61.7380
 0.7420	61.7155
 0.7410	61.7399
 0.7400	61.7305
 0.7390	61.7033
 0.7380	61.7476
 0.7370	61.7285
 0.7360	61.6954
 0.7350	61.7047
 0.7340	61.7102
 0.7330	61.6923
 0.7320	61.7127
 0.7310	61.6966
 0.7300	61.6690
 0.7290	61.6961
 0.7280	61.6848
 0.7270	61.6446
 0.7260	61.6725
 0.7250	61.6489
 0.7240	61.6244
 0.7230	61.6482
 0.7220	61.6460
 0.7210	61.6243
 0.7200	61.6329
 0.7190	61.6043
 0.7180	61.5834
 0.7170	61.5832
 0.7160	61.5779
 0.7150	61.5607
 0.7140	61.5479
 0.7130	61.5269
 0.7120	61.5145
 0.7110	61.5388
 0.7100	61.5301
 0.7090	61.5220
 0.7080	61.4954
 0.7070	61.4917
 0.7060	61.4888
 0.7050	61.4641
 0.7040	61.4581
 0.7030	61.4584
 0.7020	61.4513
 0.7010	61.4327
 0.7000	61.4130
 0.6990	61.3871
 0.6980	61.3985
 0.6970	61.3903
 0.6960	61.3730
 0.6950	61.3612
 0.6940	61.3488
 0.6930	61.3304
 0.6920	61.3342
 0.6910	61.3176
 0.6900	61.3110
 0.6890	61.3056
 0.6880	61.2980
 0.6870	61.2825
 0.6860	61.2878
 0.6850	61.2627
 0.6840	61.2575
 0.6830	61.2531
 0.6820	61.2380
 0.6810	61.2353
 0.6800	61.2420
 0.6790	61.2226
 0.6780	61.2022
 0.6770	61.1913
 0.6760	61.1898
 0.6750	61.1714
 0.6740	61.1535
 0.6730	61.1374
 0.6720	61.1301
 0.6710	61.1167
 0.6700	61.0922
 0.6690	61.0837
 0.6680	61.0803
 0.6670	61.0665
 0.6660	61.0465
 0.6650	61.0237
 0.6640	61.0170
 0.6630	61.0092
 0.6620	60.9882
 0.6610	60.9696
 0.6600	60.9512
 0.6590	60.9292
 0.6580	60.9148
 0.6570	60.9009
 0.6560	60.8675
 0.6550	60.8498
 0.6540	60.8288
 0.6530	60.7961
 0.6520	60.7721
 0.6510	60.7580
 0.6500	60.7422
 0.6490	60.7236
 0.6480	60.6901
 0.6470	60.6655
 0.6460	60.6628
 0.6450	60.6363
 0.6440	60.5993
 0.6430	60.5699
 0.6420	60.5538
 0.6410	60.5400
 0.6400	60.5087
 0.6390	60.4741
 0.6380	60.4440
 0.6370	60.4215
 0.6360	60.4053
 0.6350	60.3817
 0.6340	60.3574
 0.6330	60.3373
 0.6320	60.3157
 0.6310	60.3043
 0.6300	60.2778
 0.6290	60.2518
 0.6280	60.2258
 0.6270	60.1987
 0.6260	60.1909
 0.6250	60.1805
 0.6240	60.1619
 0.6230	60.1335
 0.6220	60.1116
 0.6210	60.0982
 0.6200	60.0849
 0.6190	60.0701
 0.6180	60.0473
 0.6170	60.0285
 0.6160	60.0055
 0.6150	59.9895
 0.6140	59.9716
 0.6130	59.9539
 0.6120	59.9404
 0.6110	59.9291
 0.6100	59.9148
 0.6090	59.9022
 0.6080	59.8887
 0.6070	59.8843
 0.6060	59.8934
 0.6050	59.8841
 0.6040	59.8624
 0.6030	59.8549
 0.6020	59.8483
 0.6010	59.8306
 0.6000	59.8279
 0.5990	59.8301
 0.5980	59.8298
 0.5970	59.8294
 0.5960	59.8283
 0.5950	59.8300
 0.5940	59.8233
 0.5930	59.8261
 0.5920	59.8041
 0.5910	59.7984
 0.5900	59.7882
 0.5890	59.7680
 0.5880	59.7635
 0.5870	59.7432
 0.5860	59.7303
 0.5850	59.7124
 0.5840	59.7062
 0.5830	59.6876
 0.5820	59.6586
 0.5810	59.6605
 0.5800	59.6448
 0.5790	59.6287
 0.5780	59.6301
 0.5770	59.6117
 0.5760	59.6121
 0.5750	59.6003
 0.5740	59.5937
 0.5730	59.5793
 0.5720	59.5650
 0.5710	59.5520
 0.5700	59.5474
 0.5690	59.5359
 0.5680	59.5147
 0.5670	59.5007
 0.5660	59.4953
 0.5650	59.4751
 0.5640	59.4418
 0.5630	59.4240
 0.5620	59.4087
 0.5610	59.4491
 0.5600	59.4447
 0.5590	59.4348
 0.5580	59.4144
 0.5570	59.3988
 0.5560	59.3842
 0.5550	59.3674
 0.5540	59.3493
 0.5530	59.3316
 0.5520	59.3109
 0.5510	59.2901
 0.5500	59.2807
 0.5490	59.2684
 0.5480	59.2455
 0.5470	59.2371
 0.5460	59.2188
 0.5450	59.2063
 0.5440	59.1808
 0.5430	59.1628
 0.5420	59.1476
 0.5410	59.1151
 0.5400	59.0950
 0.5390	59.0876
 0.5380	59.0652
 0.5370	59.0418
 0.5360	59.0135
 0.5350	59.0010
 0.5340	58.9894
 0.5330	58.9708
 0.5320	58.9464
 0.5310	58.9322
 0.5300	58.9123
 0.5290	58.8927
 0.5280	58.8887
 0.5270	58.8481
 0.5260	58.8190
 0.5250	58.8014
 0.5240	58.7834
 0.5230	58.7684
 0.5220	58.7484
 0.5210	58.7302
 0.5200	58.7108
 0.5190	58.6886
 0.5180	58.6671
 0.5170	58.6513
 0.5160	58.6324
 0.5150	58.6287
 0.5140	58.6161
 0.5130	58.5845
 0.5120	58.5681
 0.5110	58.5440
 0.5100	58.5245
 0.5090	58.5164
 0.5080	58.5016
 0.5070	58.4685
 0.5060	58.4808
 0.5050	58.4520
 0.5040	58.4263
 0.5030	58.4258
 0.5020	58.4166
 0.5010	58.3956
 0.5000	58.3769
 0.4990	58.3873
 0.4980	58.3593
 0.4970	58.3524
 0.4960	58.3363
 0.4950	58.3312
 0.4940	58.3209
 0.4930	58.3328
 0.4920	58.3124
 0.4910	58.2829
 0.4900	58.3016
 0.4890	58.2970
 0.4880	58.2894
 0.4870	58.2880
 0.4860	58.2810
 0.4850	58.2982
 0.4840	58.2890
 0.4830	58.2817
 0.4820	58.2317
 0.4810	58.2186
 0.4800	58.1747
 0.4790	58.1426
 0.4780	58.1001
 0.4770	58.0640
 0.4760	58.0419
 0.4750	58.0186
 0.4740	58.0046
 0.4730	57.9791
 0.4720	57.9648
 0.4710	57.9397
 0.4700	57.9198
 0.4690	57.9091
 0.4680	57.8843
 0.4670	57.8578
 0.4660	57.8337
 0.4650	57.8046
 0.4640	57.7931
 0.4630	57.7606
 0.4620	57.7536
 0.4610	57.7156
 0.4600	57.6939
 0.4590	57.6705
 0.4580	57.6462
 0.4570	57.6324
 0.4560	57.6024
 0.4550	57.5805
 0.4540	57.5586
 0.4530	57.5345
 0.4520	57.5105
 0.4510	57.4636
 0.4500	57.4430
 0.4490	57.4325
 0.4480	57.3782
 0.4470	57.3613
 0.4460	57.3536
 0.4450	57.3133
 0.4440	57.2809
 0.4430	57.2464
 0.4420	57.2216
 0.4410	57.1877
 0.4400	57.1431
 0.4390	57.1140
 0.4380	57.0749
 0.4370	57.0516
 0.4360	57.0091
 0.4350	56.9821
 0.4340	56.9306
 0.4330	56.8916
 0.4320	56.8388
 0.4310	56.7828
 0.4300	56.7464
 0.4290	56.6911
 0.4280	56.6285
 0.4270	56.5657
 0.4260	56.5113
 0.4250	56.4804
 0.4240	56.4353
 0.4230	56.4120
 0.4220	56.3928
 0.4210	56.3682
 0.4200	56.3453
 0.4190	56.3294
 0.4180	56.3171
 0.4170	56.2922
 0.4160	56.2739
 0.4150	56.2567
 0.4140	56.2371
 0.4130	56.1980
 0.4120	56.2112
 0.4110	56.1580
 0.4100	56.1243
 0.4090	56.1047
 0.4080	56.0805
 0.4070	56.0337
 0.4060	56.0158
 0.4050	55.9785
 0.4040	55.9346
 0.4030	55.8875
 0.4020	55.8474
 0.4010	55.8118
 0.4000	55.7795
