Name: Chlorite
Type: Mineral
Class: Silicate
Subclass: Phyllosilicate
Particle Size: Medium
Sample No.: PS-12C
Owner: JPL
Wavelength Range: VSWIR
Origin: USA, California.
Collection Date: N/A
Description: Particle size was 45-125um.Collected by:  Ward's Original ASTER Spectral Library name was jpl.perkin.mineral.silicate.phyllosilicate.medium.ps12c.spectrum.txt
Measurement: Hemispherical reflectance
First Column: X
Second Column: Y
X Units: Wavelength (micrometers)
Y Units:Reflectance (percent)
First X Value:  2.5000
Last X Value:  0.4000
Number of X Values: 2101
Additional Information: mineral.silicate.phyllosilicate.medium.vswir.ps-12c.jpl.perkin.ancillary.txt

 2.5000	34.1753
 2.4990	34.1509
 2.4980	34.1686
 2.4970	34.5687
 2.4960	33.7968
 2.4950	34.3355
 2.4940	34.1412
 2.4930	34.2724
 2.4920	34.1278
 2.4910	34.1937
 2.4900	34.0781
 2.4890	34.2350
 2.4880	34.1765
 2.4870	34.2893
 2.4860	34.1552
 2.4850	34.4126
 2.4840	34.0780
 2.4830	34.4284
 2.4820	34.3166
 2.4810	34.2986
 2.4800	34.2371
 2.4790	34.2780
 2.4780	34.1992
 2.4770	34.3294
 2.4760	34.3784
 2.4750	34.3718
 2.4740	34.3873
 2.4730	34.4330
 2.4720	34.3415
 2.4710	34.4862
 2.4700	34.4111
 2.4690	34.5981
 2.4680	34.6425
 2.4670	34.8236
 2.4660	34.7578
 2.4650	34.8736
 2.4640	34.9748
 2.4630	35.1179
 2.4620	35.1912
 2.4610	35.4147
 2.4600	35.4114
 2.4590	35.5734
 2.4580	35.6322
 2.4570	35.8222
 2.4560	35.9649
 2.4550	36.1957
 2.4540	36.3228
 2.4530	36.5577
 2.4520	36.5206
 2.4510	36.8005
 2.4500	36.9314
 2.4490	37.1132
 2.4480	37.2840
 2.4470	37.4651
 2.4460	37.5882
 2.4450	37.8859
 2.4440	37.8596
 2.4430	38.0490
 2.4420	38.0695
 2.4410	38.3383
 2.4400	38.3946
 2.4390	38.4904
 2.4380	38.6197
 2.4370	38.7284
 2.4360	38.8176
 2.4350	38.9721
 2.4340	39.0189
 2.4330	39.1454
 2.4320	39.3285
 2.4310	39.5480
 2.4300	39.5082
 2.4290	39.6758
 2.4280	39.7442
 2.4270	39.9503
 2.4260	40.0965
 2.4250	40.2068
 2.4240	40.2485
 2.4230	40.4660
 2.4220	40.4981
 2.4210	40.5724
 2.4200	40.6219
 2.4190	40.7413
 2.4180	40.7420
 2.4170	40.9238
 2.4160	40.9526
 2.4150	41.0686
 2.4140	41.0171
 2.4130	40.9455
 2.4120	40.9366
 2.4110	40.9477
 2.4100	40.8387
 2.4090	40.8260
 2.4080	40.7320
 2.4070	40.6518
 2.4060	40.4650
 2.4050	40.3957
 2.4040	40.2034
 2.4030	40.0775
 2.4020	39.8978
 2.4010	39.7224
 2.4000	39.5606
 2.3990	39.3992
 2.3980	39.2155
 2.3970	39.1303
 2.3960	38.9660
 2.3950	38.8530
 2.3940	38.7506
 2.3930	38.6666
 2.3920	38.5188
 2.3910	38.4097
 2.3900	38.2918
 2.3890	38.2181
 2.3880	38.1546
 2.3870	38.1150
 2.3860	38.0183
 2.3850	37.9775
 2.3840	38.0127
 2.3830	37.9835
 2.3820	37.9117
 2.3810	37.9507
 2.3800	37.9374
 2.3790	37.8564
 2.3780	37.8226
 2.3770	37.8262
 2.3760	37.7402
 2.3750	37.6722
 2.3740	37.5627
 2.3730	37.4958
 2.3720	37.4109
 2.3710	37.3471
 2.3700	37.1532
 2.3690	37.0213
 2.3680	36.8557
 2.3670	36.6806
 2.3660	36.5727
 2.3650	36.3860
 2.3640	36.1194
 2.3630	35.8788
 2.3620	35.6271
 2.3610	35.3911
 2.3600	35.1540
 2.3590	34.9027
 2.3580	34.6661
 2.3570	34.4514
 2.3560	34.2253
 2.3550	33.9608
 2.3540	33.7012
 2.3530	33.4901
 2.3520	33.2576
 2.3510	33.0453
 2.3500	32.8176
 2.3490	32.5628
 2.3480	32.4020
 2.3470	32.1795
 2.3460	31.9148
 2.3450	31.7112
 2.3440	31.5351
 2.3430	31.3256
 2.3420	31.2075
 2.3410	31.0775
 2.3400	30.9034
 2.3390	30.7123
 2.3380	30.5540
 2.3370	30.4471
 2.3360	30.3822
 2.3350	30.2527
 2.3340	30.1431
 2.3330	30.0901
 2.3320	30.0647
 2.3310	29.9692
 2.3300	29.9486
 2.3290	29.9191
 2.3280	29.9005
 2.3270	29.9550
 2.3260	29.9333
 2.3250	29.9469
 2.3240	30.0915
 2.3230	30.1285
 2.3220	30.2495
 2.3210	30.3426
 2.3200	30.5052
 2.3190	30.6053
 2.3180	30.7920
 2.3170	30.9333
 2.3160	31.1297
 2.3150	31.2091
 2.3140	31.3674
 2.3130	31.5856
 2.3120	31.8313
 2.3110	31.9498
 2.3100	32.1728
 2.3090	32.3467
 2.3080	32.5311
 2.3070	32.6837
 2.3060	32.8292
 2.3050	32.9778
 2.3040	33.2000
 2.3030	33.2556
 2.3020	33.3700
 2.3010	33.5020
 2.3000	33.6523
 2.2990	33.6970
 2.2980	33.8419
 2.2970	33.9593
 2.2960	34.1428
 2.2950	34.1977
 2.2940	34.3501
 2.2930	34.5418
 2.2920	34.7766
 2.2910	34.9822
 2.2900	35.2556
 2.2890	35.5153
 2.2880	35.8580
 2.2870	36.0734
 2.2860	36.3943
 2.2850	36.7928
 2.2840	37.1682
 2.2830	37.4118
 2.2820	37.7414
 2.2810	38.0359
 2.2800	38.3612
 2.2790	38.6682
 2.2780	38.9756
 2.2770	39.1745
 2.2760	39.4441
 2.2750	39.5555
 2.2740	39.7900
 2.2730	39.8645
 2.2720	40.0191
 2.2710	40.1008
 2.2700	40.2192
 2.2690	40.2592
 2.2680	40.3582
 2.2670	40.3010
 2.2660	40.2568
 2.2650	40.2456
 2.2640	40.3955
 2.2630	40.2298
 2.2620	40.1828
 2.2610	40.0931
 2.2600	40.1193
 2.2590	39.9772
 2.2580	40.0138
 2.2570	39.8851
 2.2560	39.8516
 2.2550	39.7517
 2.2540	39.7197
 2.2530	39.5916
 2.2520	39.5946
 2.2510	39.5478
 2.2500	39.6037
 2.2490	39.6604
 2.2480	39.6738
 2.2470	39.7962
 2.2460	39.9147
 2.2450	40.0844
 2.2440	40.4064
 2.2430	40.5882
 2.2420	40.9649
 2.2410	41.3001
 2.2400	41.7816
 2.2390	42.2489
 2.2380	42.8395
 2.2370	43.3856
 2.2360	44.0061
 2.2350	44.5285
 2.2340	45.3456
 2.2330	45.8005
 2.2320	46.4778
 2.2310	47.0287
 2.2300	47.6669
 2.2290	48.2313
 2.2280	48.9665
 2.2270	49.4020
 2.2260	49.9021
 2.2250	50.5124
 2.2240	50.9702
 2.2230	51.3374
 2.2220	51.9464
 2.2210	52.1942
 2.2200	52.6592
 2.2190	52.9962
 2.2180	53.3463
 2.2170	53.6846
 2.2160	54.0073
 2.2150	54.3158
 2.2140	54.5532
 2.2130	54.8221
 2.2120	55.2167
 2.2110	55.3059
 2.2100	55.7758
 2.2090	55.8158
 2.2080	56.0960
 2.2070	56.3496
 2.2060	56.6738
 2.2050	56.8516
 2.2040	57.0287
 2.2030	57.1563
 2.2020	57.3613
 2.2010	57.5712
 2.2000	57.8045
 2.1990	57.8988
 2.1980	58.0894
 2.1970	58.2580
 2.1960	58.4373
 2.1950	58.5918
 2.1940	58.6988
 2.1930	58.8333
 2.1920	59.0891
 2.1910	59.1261
 2.1900	59.3136
 2.1890	59.3128
 2.1880	59.6443
 2.1870	59.6756
 2.1860	59.8652
 2.1850	59.9997
 2.1840	60.1748
 2.1830	60.2734
 2.1820	60.4839
 2.1810	60.5569
 2.1800	60.7246
 2.1790	60.7970
 2.1780	60.9816
 2.1770	61.0329
 2.1760	61.2151
 2.1750	61.2713
 2.1740	61.4396
 2.1730	61.5602
 2.1720	61.7045
 2.1710	61.7593
 2.1700	61.8437
 2.1690	61.8676
 2.1680	62.0355
 2.1670	62.0859
 2.1660	62.1754
 2.1650	62.3565
 2.1640	62.3999
 2.1630	62.3755
 2.1620	62.5264
 2.1610	62.5491
 2.1600	62.6556
 2.1590	62.6857
 2.1580	62.7470
 2.1570	62.7656
 2.1560	62.8937
 2.1550	62.9966
 2.1540	63.0956
 2.1530	63.0191
 2.1520	63.1191
 2.1510	63.1963
 2.1500	63.1750
 2.1490	63.2463
 2.1480	63.3456
 2.1470	63.2979
 2.1460	63.3481
 2.1450	63.4173
 2.1440	63.3754
 2.1430	63.4206
 2.1420	63.4689
 2.1410	63.5161
 2.1400	63.4380
 2.1390	63.4304
 2.1380	63.4862
 2.1370	63.4178
 2.1360	63.4688
 2.1350	63.4390
 2.1340	63.3872
 2.1330	63.2808
 2.1320	63.2612
 2.1310	63.2238
 2.1300	63.2120
 2.1290	63.1671
 2.1280	63.1527
 2.1270	63.0890
 2.1260	63.0541
 2.1250	62.9865
 2.1240	62.9143
 2.1230	62.9349
 2.1220	62.9083
 2.1210	62.8238
 2.1200	62.7254
 2.1190	62.6836
 2.1180	62.6774
 2.1170	62.5534
 2.1160	62.5298
 2.1150	62.4812
 2.1140	62.4249
 2.1130	62.3967
 2.1120	62.4017
 2.1110	62.3677
 2.1100	62.3059
 2.1090	62.2516
 2.1080	62.2726
 2.1070	62.3023
 2.1060	62.3660
 2.1050	62.3694
 2.1040	62.3608
 2.1030	62.3726
 2.1020	62.4080
 2.1010	62.4536
 2.1000	62.5466
 2.0990	62.6467
 2.0980	62.7698
 2.0970	62.8123
 2.0960	62.9240
 2.0950	63.1009
 2.0940	63.2075
 2.0930	63.2077
 2.0920	63.3574
 2.0910	63.4106
 2.0900	63.4661
 2.0890	63.5103
 2.0880	63.5403
 2.0870	63.6250
 2.0860	63.6894
 2.0850	63.6599
 2.0840	63.6382
 2.0830	63.6391
 2.0820	63.5885
 2.0810	63.5805
 2.0800	63.5797
 2.0790	63.5324
 2.0780	63.5051
 2.0770	63.4440
 2.0760	63.4684
 2.0750	63.4721
 2.0740	63.3779
 2.0730	63.3568
 2.0720	63.3200
 2.0710	63.2842
 2.0700	63.2301
 2.0690	63.1657
 2.0680	63.1524
 2.0670	63.1190
 2.0660	63.0519
 2.0650	62.9688
 2.0640	62.9089
 2.0630	62.8476
 2.0620	62.7881
 2.0610	62.7398
 2.0600	62.6445
 2.0590	62.5563
 2.0580	62.5122
 2.0570	62.4413
 2.0560	62.3014
 2.0550	62.2467
 2.0540	62.1649
 2.0530	62.0475
 2.0520	61.9293
 2.0510	61.8703
 2.0500	61.7496
 2.0490	61.5894
 2.0480	61.5076
 2.0470	61.4484
 2.0460	61.3187
 2.0450	61.1697
 2.0440	61.0347
 2.0430	60.9244
 2.0420	60.7516
 2.0410	60.6084
 2.0400	60.4828
 2.0390	60.3303
 2.0380	60.1382
 2.0370	60.0027
 2.0360	59.8365
 2.0350	59.7011
 2.0340	59.5203
 2.0330	59.3647
 2.0320	59.1530
 2.0310	58.9668
 2.0300	58.7859
 2.0290	58.6580
 2.0280	58.4221
 2.0270	58.2529
 2.0260	58.0669
 2.0250	57.8843
 2.0240	57.7011
 2.0230	57.5520
 2.0220	57.3236
 2.0210	57.1317
 2.0200	56.9726
 2.0190	56.7779
 2.0180	56.6281
 2.0170	56.4367
 2.0160	56.2468
 2.0150	56.0895
 2.0140	55.9322
 2.0130	55.8611
 2.0120	55.6814
 2.0110	55.5547
 2.0100	55.4942
 2.0090	55.3653
 2.0080	55.2733
 2.0070	55.2294
 2.0060	55.1365
 2.0050	55.0315
 2.0040	54.8862
 2.0030	54.9664
 2.0020	54.8301
 2.0010	54.7664
 2.0000	54.7380
 1.9990	54.7046
 1.9980	54.6355
 1.9970	54.6950
 1.9960	54.5767
 1.9950	54.5437
 1.9940	54.5288
 1.9930	54.5590
 1.9920	54.4197
 1.9910	54.4682
 1.9900	54.4477
 1.9890	54.4158
 1.9880	54.4283
 1.9870	54.4230
 1.9860	54.3852
 1.9850	54.4930
 1.9840	54.5813
 1.9830	54.6320
 1.9820	54.6368
 1.9810	54.6831
 1.9800	54.7368
 1.9790	54.8224
 1.9780	54.9583
 1.9770	55.0575
 1.9760	55.0578
 1.9750	55.1600
 1.9740	55.2322
 1.9730	55.4079
 1.9720	55.4481
 1.9710	55.5146
 1.9700	55.5242
 1.9690	55.6807
 1.9680	55.7705
 1.9670	55.7869
 1.9660	55.8034
 1.9650	55.9134
 1.9640	56.0168
 1.9630	56.0064
 1.9620	56.0618
 1.9610	56.1269
 1.9600	56.1898
 1.9590	56.2128
 1.9580	56.1461
 1.9570	56.2992
 1.9560	56.3695
 1.9550	56.3986
 1.9540	56.3729
 1.9530	56.5295
 1.9520	56.5410
 1.9510	56.6784
 1.9500	56.7311
 1.9490	56.7584
 1.9480	56.9524
 1.9470	57.1120
 1.9460	57.0869
 1.9450	57.3108
 1.9440	57.3342
 1.9430	57.4371
 1.9420	57.4732
 1.9410	57.6614
 1.9400	57.7099
 1.9390	57.9333
 1.9380	57.8994
 1.9370	58.0228
 1.9360	58.0743
 1.9350	58.1582
 1.9340	58.2194
 1.9330	58.2846
 1.9320	58.3068
 1.9310	58.4654
 1.9300	58.3763
 1.9290	58.5583
 1.9280	58.5195
 1.9270	58.5764
 1.9260	58.5293
 1.9250	58.6657
 1.9240	58.6438
 1.9230	58.6772
 1.9220	58.7287
 1.9210	58.7647
 1.9200	58.6811
 1.9190	58.7542
 1.9180	58.7337
 1.9170	58.7405
 1.9160	58.7903
 1.9150	58.8605
 1.9140	58.8684
 1.9130	58.8218
 1.9120	58.8675
 1.9110	58.9644
 1.9100	58.8780
 1.9090	59.0658
 1.9080	58.8573
 1.9070	58.9568
 1.9060	59.0309
 1.9050	59.0214
 1.9040	59.0385
 1.9030	59.1410
 1.9020	59.0328
 1.9010	59.0652
 1.9000	59.1252
 1.8990	59.1313
 1.8980	58.9993
 1.8970	59.1183
 1.8960	59.0923
 1.8950	59.0755
 1.8940	59.0595
 1.8930	59.0073
 1.8920	58.9519
 1.8910	58.8962
 1.8900	58.8698
 1.8890	58.7754
 1.8880	58.7370
 1.8870	58.8058
 1.8860	58.6265
 1.8850	58.6069
 1.8840	58.5522
 1.8830	58.5509
 1.8820	58.5455
 1.8810	58.4563
 1.8800	58.5272
 1.8790	58.5718
 1.8780	58.5955
 1.8770	58.5874
 1.8760	58.6216
 1.8750	58.7481
 1.8740	58.7391
 1.8730	58.8271
 1.8720	58.7620
 1.8710	58.8914
 1.8700	58.9720
 1.8690	58.9921
 1.8680	59.0168
 1.8670	59.1823
 1.8660	59.3043
 1.8650	59.2965
 1.8640	59.3953
 1.8630	59.5067
 1.8620	59.5379
 1.8610	59.5933
 1.8600	59.6207
 1.8590	59.6998
 1.8580	59.7583
 1.8570	59.8040
 1.8560	59.8548
 1.8550	59.9802
 1.8540	60.0276
 1.8530	60.1253
 1.8520	60.1320
 1.8510	60.2039
 1.8500	60.2523
 1.8490	60.3305
 1.8480	60.4285
 1.8470	60.5283
 1.8460	60.5407
 1.8450	60.6744
 1.8440	60.7169
 1.8430	60.7412
 1.8420	60.7656
 1.8410	60.8350
 1.8400	60.8995
 1.8390	60.9963
 1.8380	60.9245
 1.8370	60.9727
 1.8360	61.0114
 1.8350	61.0925
 1.8340	61.1275
 1.8330	61.1955
 1.8320	61.2114
 1.8310	61.2186
 1.8300	61.1233
 1.8290	61.1914
 1.8280	61.1873
 1.8270	61.2394
 1.8260	61.2246
 1.8250	61.2214
 1.8240	61.2633
 1.8230	61.3138
 1.8220	61.2732
 1.8210	61.3059
 1.8200	61.3300
 1.8190	61.3470
 1.8180	61.3016
 1.8170	61.3023
 1.8160	61.3821
 1.8150	61.3584
 1.8140	61.3164
 1.8130	61.3671
 1.8120	61.3829
 1.8110	61.4211
 1.8100	61.3931
 1.8090	61.3827
 1.8080	61.3565
 1.8070	61.3268
 1.8060	61.3491
 1.8050	61.3648
 1.8040	61.3391
 1.8030	61.3456
 1.8020	61.3935
 1.8010	61.4103
 1.8000	61.4059
 1.7990	61.3185
 1.7980	61.3549
 1.7970	61.3808
 1.7960	61.3040
 1.7950	61.2872
 1.7940	61.3165
 1.7930	61.2854
 1.7920	61.2426
 1.7910	61.2032
 1.7900	61.2122
 1.7890	61.2165
 1.7880	61.2403
 1.7870	61.2132
 1.7860	61.1404
 1.7850	61.1541
 1.7840	61.0958
 1.7830	61.0868
 1.7820	61.1371
 1.7810	61.0698
 1.7800	60.9825
 1.7790	60.9633
 1.7780	60.9948
 1.7770	60.9759
 1.7760	60.9156
 1.7750	60.8656
 1.7740	60.8573
 1.7730	60.8386
 1.7720	60.8080
 1.7710	60.7103
 1.7700	60.7385
 1.7690	60.7075
 1.7680	60.6525
 1.7670	60.6635
 1.7660	60.6094
 1.7650	60.5402
 1.7640	60.4838
 1.7630	60.4811
 1.7620	60.4777
 1.7610	60.4272
 1.7600	60.4089
 1.7590	60.4116
 1.7580	60.3886
 1.7570	60.3458
 1.7560	60.3811
 1.7550	60.3403
 1.7540	60.3012
 1.7530	60.1972
 1.7520	60.1526
 1.7510	60.1482
 1.7500	60.1726
 1.7490	60.1293
 1.7480	60.0785
 1.7470	60.0432
 1.7460	59.9924
 1.7450	59.9680
 1.7440	59.9235
 1.7430	59.8262
 1.7420	59.8584
 1.7410	59.7738
 1.7400	59.7525
 1.7390	59.7462
 1.7380	59.7063
 1.7370	59.6576
 1.7360	59.6145
 1.7350	59.5988
 1.7340	59.5837
 1.7330	59.5646
 1.7320	59.4888
 1.7310	59.4334
 1.7300	59.4202
 1.7290	59.3291
 1.7280	59.3496
 1.7270	59.2760
 1.7260	59.2692
 1.7250	59.1858
 1.7240	59.1224
 1.7230	59.0869
 1.7220	59.0635
 1.7210	58.9604
 1.7200	58.9468
 1.7190	58.9319
 1.7180	58.9290
 1.7170	58.8387
 1.7160	58.7539
 1.7150	58.6991
 1.7140	58.8029
 1.7130	58.6721
 1.7120	58.6494
 1.7110	58.5127
 1.7100	58.5784
 1.7090	58.4316
 1.7080	58.4426
 1.7070	58.3523
 1.7060	58.2698
 1.7050	58.2352
 1.7040	58.2208
 1.7030	58.0861
 1.7020	58.0648
 1.7010	57.9886
 1.7000	57.9685
 1.6990	57.9756
 1.6980	57.9767
 1.6970	57.8310
 1.6960	57.7887
 1.6950	57.7663
 1.6940	57.7063
 1.6930	57.5473
 1.6920	57.5523
 1.6910	57.5197
 1.6900	57.4907
 1.6890	57.3695
 1.6880	57.3479
 1.6870	57.2741
 1.6860	57.3243
 1.6850	57.1813
 1.6840	57.2010
 1.6830	57.1112
 1.6820	57.0188
 1.6810	56.9620
 1.6800	56.9383
 1.6790	56.8901
 1.6780	56.8261
 1.6770	56.7275
 1.6760	56.7491
 1.6750	56.6006
 1.6740	56.6645
 1.6730	56.5160
 1.6720	56.5040
 1.6710	56.4427
 1.6700	56.4546
 1.6690	56.3944
 1.6680	56.2299
 1.6670	56.1910
 1.6660	56.1241
 1.6650	56.0528
 1.6640	56.0907
 1.6630	55.8875
 1.6620	55.8860
 1.6610	55.7387
 1.6600	55.8542
 1.6590	55.6256
 1.6580	55.6786
 1.6570	55.5368
 1.6560	55.6693
 1.6550	55.4703
 1.6540	55.3656
 1.6530	55.3430
 1.6520	55.2833
 1.6510	55.2009
 1.6500	55.2433
 1.6490	55.0594
 1.6480	55.0534
 1.6470	54.8587
 1.6460	54.9023
 1.6450	54.8308
 1.6440	54.7850
 1.6430	54.6679
 1.6420	54.6914
 1.6410	54.4409
 1.6400	54.5499
 1.6390	54.3813
 1.6380	54.4063
 1.6370	54.2647
 1.6360	54.3451
 1.6350	54.0898
 1.6340	54.0680
 1.6330	53.9924
 1.6320	53.9650
 1.6310	53.9046
 1.6300	53.8644
 1.6290	53.7042
 1.6280	53.7567
 1.6270	53.5562
 1.6260	53.5333
 1.6250	53.4104
 1.6240	53.3241
 1.6230	53.2380
 1.6220	53.2135
 1.6210	53.1702
 1.6200	53.1091
 1.6190	53.0183
 1.6180	52.9655
 1.6170	52.7910
 1.6160	52.8424
 1.6150	52.6602
 1.6140	52.7112
 1.6130	52.5740
 1.6120	52.5581
 1.6110	52.4079
 1.6100	52.3637
 1.6090	52.3583
 1.6080	52.2603
 1.6070	52.1393
 1.6060	52.0805
 1.6050	52.0154
 1.6040	51.9735
 1.6030	51.8186
 1.6020	51.8839
 1.6010	51.7883
 1.6000	51.6902
 1.5990	51.6104
 1.5980	51.5507
 1.5970	51.4628
 1.5960	51.2992
 1.5950	51.1850
 1.5940	51.2590
 1.5930	51.1449
 1.5920	51.0677
 1.5910	50.9094
 1.5900	50.8490
 1.5890	50.7356
 1.5880	50.6922
 1.5870	50.6164
 1.5860	50.6106
 1.5850	50.4740
 1.5840	50.4134
 1.5830	50.2869
 1.5820	50.2199
 1.5810	50.0937
 1.5800	50.0591
 1.5790	49.9218
 1.5780	49.8584
 1.5770	49.7905
 1.5760	49.6818
 1.5750	49.6038
 1.5740	49.6080
 1.5730	49.4788
 1.5720	49.3871
 1.5710	49.3493
 1.5700	49.2866
 1.5690	49.2128
 1.5680	49.1549
 1.5670	49.0289
 1.5660	49.0082
 1.5650	48.9479
 1.5640	48.8464
 1.5630	48.8156
 1.5620	48.7359
 1.5610	48.6917
 1.5600	48.5419
 1.5590	48.4866
 1.5580	48.4926
 1.5570	48.3482
 1.5560	48.2331
 1.5550	48.2188
 1.5540	48.2375
 1.5530	48.1919
 1.5520	48.1072
 1.5510	48.0192
 1.5500	47.9777
 1.5490	47.8927
 1.5480	47.8471
 1.5470	47.8151
 1.5460	47.7615
 1.5450	47.6900
 1.5440	47.6619
 1.5430	47.5487
 1.5420	47.5347
 1.5410	47.4698
 1.5400	47.4042
 1.5390	47.3131
 1.5380	47.2775
 1.5370	47.2281
 1.5360	47.1728
 1.5350	47.1294
 1.5340	47.1225
 1.5330	47.0397
 1.5320	46.9651
 1.5310	46.9353
 1.5300	46.8977
 1.5290	46.8507
 1.5280	46.8239
 1.5270	46.7583
 1.5260	46.7346
 1.5250	46.6643
 1.5240	46.6592
 1.5230	46.5885
 1.5220	46.5685
 1.5210	46.5123
 1.5200	46.4311
 1.5190	46.4351
 1.5180	46.4313
 1.5170	46.3653
 1.5160	46.3737
 1.5150	46.3076
 1.5140	46.2880
 1.5130	46.2811
 1.5120	46.2276
 1.5110	46.1886
 1.5100	46.1761
 1.5090	46.1800
 1.5080	46.1545
 1.5070	46.1075
 1.5060	46.1090
 1.5050	46.0591
 1.5040	45.9674
 1.5030	45.9519
 1.5020	45.9918
 1.5010	45.9419
 1.5000	45.9031
 1.4990	45.9162
 1.4980	45.8549
 1.4970	45.7924
 1.4960	45.7390
 1.4950	45.7169
 1.4940	45.6960
 1.4930	45.6426
 1.4920	45.5697
 1.4910	45.5405
 1.4900	45.5310
 1.4890	45.4730
 1.4880	45.3743
 1.4870	45.3466
 1.4860	45.3031
 1.4850	45.2491
 1.4840	45.1794
 1.4830	45.0971
 1.4820	45.0007
 1.4810	44.9283
 1.4800	44.8815
 1.4790	44.8400
 1.4780	44.6983
 1.4770	44.6475
 1.4760	44.5893
 1.4750	44.5386
 1.4740	44.4433
 1.4730	44.3640
 1.4720	44.2304
 1.4710	44.1427
 1.4700	44.0416
 1.4690	43.9593
 1.4680	43.8671
 1.4670	43.7773
 1.4660	43.7096
 1.4650	43.5721
 1.4640	43.4450
 1.4630	43.3532
 1.4620	43.2084
 1.4610	43.1674
 1.4600	42.9970
 1.4590	42.8426
 1.4580	42.7480
 1.4570	42.6519
 1.4560	42.4992
 1.4550	42.4251
 1.4540	42.3051
 1.4530	42.2137
 1.4520	42.0749
 1.4510	42.0234
 1.4500	41.8928
 1.4490	41.8279
 1.4480	41.6851
 1.4470	41.6635
 1.4460	41.5640
 1.4450	41.4792
 1.4440	41.3625
 1.4430	41.3379
 1.4420	41.2772
 1.4410	41.2901
 1.4400	41.1942
 1.4390	41.1702
 1.4380	41.1218
 1.4370	41.1906
 1.4360	41.1430
 1.4350	41.1135
 1.4340	41.1200
 1.4330	41.1996
 1.4320	41.1349
 1.4310	41.1678
 1.4300	41.2171
 1.4290	41.1890
 1.4280	41.2384
 1.4270	41.2985
 1.4260	41.2230
 1.4250	41.2863
 1.4240	41.1958
 1.4230	41.2733
 1.4220	41.2202
 1.4210	41.1820
 1.4200	41.0785
 1.4190	40.9942
 1.4180	40.8148
 1.4170	40.7004
 1.4160	40.5263
 1.4150	40.3292
 1.4140	40.1356
 1.4130	40.0703
 1.4120	39.9089
 1.4110	39.8930
 1.4100	39.7463
 1.4090	39.7404
 1.4080	39.6742
 1.4070	39.6579
 1.4060	39.5197
 1.4050	39.5796
 1.4040	39.4714
 1.4030	39.3962
 1.4020	39.0866
 1.4010	38.8359
 1.4000	38.2857
 1.3990	37.9688
 1.3980	37.4607
 1.3970	36.8440
 1.3960	36.1350
 1.3950	35.4605
 1.3940	34.6725
 1.3930	34.2291
 1.3920	33.7673
 1.3910	33.6836
 1.3900	33.8244
 1.3890	34.3609
 1.3880	35.1896
 1.3870	36.3745
 1.3860	37.5471
 1.3850	38.7716
 1.3840	39.5994
 1.3830	40.3303
 1.3820	40.5909
 1.3810	40.7712
 1.3800	40.7891
 1.3790	40.8976
 1.3780	40.8113
 1.3770	40.8442
 1.3760	40.7458
 1.3750	40.7436
 1.3740	40.5515
 1.3730	40.6208
 1.3720	40.4844
 1.3710	40.5956
 1.3700	40.4037
 1.3690	40.4128
 1.3680	40.3018
 1.3670	40.4043
 1.3660	40.2459
 1.3650	40.2531
 1.3640	40.1082
 1.3630	40.1429
 1.3620	39.9469
 1.3610	39.9119
 1.3600	39.7291
 1.3590	39.8391
 1.3580	39.6765
 1.3570	39.7405
 1.3560	39.5807
 1.3550	39.4578
 1.3540	39.4379
 1.3530	39.4120
 1.3520	39.2629
 1.3510	39.2840
 1.3500	39.0722
 1.3490	39.0957
 1.3480	39.0026
 1.3470	38.9547
 1.3460	38.8238
 1.3450	38.8949
 1.3440	38.7576
 1.3430	38.7262
 1.3420	38.5634
 1.3410	38.5044
 1.3400	38.3846
 1.3390	38.3801
 1.3380	38.2892
 1.3370	38.3249
 1.3360	38.1679
 1.3350	38.1850
 1.3340	37.9474
 1.3330	38.0416
 1.3320	37.8575
 1.3310	37.8726
 1.3300	37.7029
 1.3290	37.7498
 1.3280	37.5452
 1.3270	37.5272
 1.3260	37.4158
 1.3250	37.4403
 1.3240	37.2673
 1.3230	37.3116
 1.3220	37.1706
 1.3210	37.1551
 1.3200	37.0180
 1.3190	37.0217
 1.3180	36.8274
 1.3170	36.8608
 1.3160	36.7439
 1.3150	36.6886
 1.3140	36.5282
 1.3130	36.5653
 1.3120	36.5001
 1.3110	36.4395
 1.3100	36.2790
 1.3090	36.2349
 1.3080	36.1618
 1.3070	36.1067
 1.3060	35.9763
 1.3050	35.9742
 1.3040	35.8999
 1.3030	35.9790
 1.3020	35.7920
 1.3010	35.6622
 1.3000	35.6056
 1.2990	35.6069
 1.2980	35.4720
 1.2970	35.4820
 1.2960	35.3140
 1.2950	35.3244
 1.2940	35.2694
 1.2930	35.2370
 1.2920	35.1268
 1.2910	35.0876
 1.2900	34.9430
 1.2890	34.9469
 1.2880	34.8544
 1.2870	34.7922
 1.2860	34.6987
 1.2850	34.6569
 1.2840	34.5076
 1.2830	34.4746
 1.2820	34.4573
 1.2810	34.4624
 1.2800	34.2323
 1.2790	34.3189
 1.2780	34.1717
 1.2770	34.1488
 1.2760	34.0377
 1.2750	33.9697
 1.2740	33.8805
 1.2730	33.8794
 1.2720	33.7142
 1.2710	33.7294
 1.2700	33.6008
 1.2690	33.5519
 1.2680	33.5208
 1.2670	33.4594
 1.2660	33.3659
 1.2650	33.3065
 1.2640	33.2605
 1.2630	33.1920
 1.2620	33.0730
 1.2610	33.0324
 1.2600	32.9793
 1.2590	32.9497
 1.2580	32.8166
 1.2570	32.7752
 1.2560	32.6185
 1.2550	32.5696
 1.2540	32.5398
 1.2530	32.4661
 1.2520	32.3972
 1.2510	32.3256
 1.2500	32.2538
 1.2490	32.2614
 1.2480	32.1394
 1.2470	32.0916
 1.2460	32.0238
 1.2450	31.9763
 1.2440	31.9152
 1.2430	31.8353
 1.2420	31.7389
 1.2410	31.6628
 1.2400	31.5467
 1.2390	31.5319
 1.2380	31.4488
 1.2370	31.3849
 1.2360	31.3444
 1.2350	31.2893
 1.2340	31.1877
 1.2330	31.1397
 1.2320	31.0496
 1.2310	30.9876
 1.2300	30.9156
 1.2290	30.9036
 1.2280	30.7848
 1.2270	30.6808
 1.2260	30.6678
 1.2250	30.6251
 1.2240	30.5368
 1.2230	30.4432
 1.2220	30.3708
 1.2210	30.3372
 1.2200	30.2538
 1.2190	30.2051
 1.2180	30.1393
 1.2170	30.1072
 1.2160	30.0385
 1.2150	29.9090
 1.2140	29.8477
 1.2130	29.8102
 1.2120	29.7790
 1.2110	29.7344
 1.2100	29.6440
 1.2090	29.5521
 1.2080	29.5016
 1.2070	29.4458
 1.2060	29.4047
 1.2050	29.3511
 1.2040	29.3064
 1.2030	29.2478
 1.2020	29.1666
 1.2010	29.0631
 1.2000	29.0141
 1.1990	28.9530
 1.1980	28.9386
 1.1970	28.8881
 1.1960	28.8119
 1.1950	28.7097
 1.1940	28.6941
 1.1930	28.6726
 1.1920	28.6149
 1.1910	28.5396
 1.1900	28.4975
 1.1890	28.4983
 1.1880	28.3757
 1.1870	28.3140
 1.1860	28.3048
 1.1850	28.2070
 1.1840	28.1433
 1.1830	28.0983
 1.1820	28.1148
 1.1810	27.9863
 1.1800	27.9525
 1.1790	27.8477
 1.1780	27.8356
 1.1770	27.7862
 1.1760	27.7383
 1.1750	27.6809
 1.1740	27.6713
 1.1730	27.5694
 1.1720	27.5830
 1.1710	27.5518
 1.1700	27.5358
 1.1690	27.4142
 1.1680	27.3537
 1.1670	27.2999
 1.1660	27.2439
 1.1650	27.1790
 1.1640	27.1603
 1.1630	27.0824
 1.1620	27.1452
 1.1610	27.0479
 1.1600	27.0284
 1.1590	26.9160
 1.1580	26.9293
 1.1570	26.8243
 1.1560	26.8791
 1.1550	26.7901
 1.1540	26.8496
 1.1530	26.7177
 1.1520	26.6741
 1.1510	26.6629
 1.1500	26.6204
 1.1490	26.5901
 1.1480	26.6072
 1.1470	26.4553
 1.1460	26.4853
 1.1450	26.4069
 1.1440	26.4406
 1.1430	26.3134
 1.1420	26.3615
 1.1410	26.3032
 1.1400	26.3110
 1.1390	26.2396
 1.1380	26.2742
 1.1370	26.1780
 1.1360	26.1866
 1.1350	26.0219
 1.1340	26.0784
 1.1330	26.0364
 1.1320	26.0526
 1.1310	25.9931
 1.1300	25.9910
 1.1290	25.9603
 1.1280	25.9655
 1.1270	25.8553
 1.1260	25.8989
 1.1250	25.8357
 1.1240	25.8577
 1.1230	25.7397
 1.1220	25.7380
 1.1210	25.6482
 1.1200	25.7560
 1.1190	25.7334
 1.1180	25.7341
 1.1170	25.5832
 1.1160	25.6232
 1.1150	25.5641
 1.1140	25.5798
 1.1130	25.5156
 1.1120	25.5781
 1.1110	25.4594
 1.1100	25.5392
 1.1090	25.4773
 1.1080	25.5163
 1.1070	25.3834
 1.1060	25.4420
 1.1050	25.3354
 1.1040	25.3969
 1.1030	25.3921
 1.1020	25.4099
 1.1010	25.3148
 1.1000	25.3367
 1.0990	25.2152
 1.0980	25.3088
 1.0970	25.2570
 1.0960	25.3072
 1.0950	25.1561
 1.0940	25.2157
 1.0930	25.1585
 1.0920	25.2862
 1.0910	25.1134
 1.0900	25.2021
 1.0890	25.0914
 1.0880	25.1588
 1.0870	25.0700
 1.0860	25.1552
 1.0850	25.1017
 1.0840	25.1406
 1.0830	25.1204
 1.0820	25.1530
 1.0810	25.0198
 1.0800	25.0880
 1.0790	25.0576
 1.0780	25.1488
 1.0770	25.0848
 1.0760	25.0836
 1.0750	25.0250
 1.0740	25.0892
 1.0730	24.9776
 1.0720	25.0196
 1.0710	25.0554
 1.0700	24.9127
 1.0690	24.9915
 1.0680	25.0301
 1.0670	24.8597
 1.0660	24.9983
 1.0650	24.8967
 1.0640	24.9747
 1.0630	24.9450
 1.0620	25.0753
 1.0610	24.8923
 1.0600	25.0421
 1.0590	24.9492
 1.0580	24.9144
 1.0570	24.8445
 1.0560	25.0441
 1.0550	24.9168
 1.0540	24.8787
 1.0530	24.8578
 1.0520	25.0096
 1.0510	24.8652
 1.0500	24.8986
 1.0490	24.9139
 1.0480	24.9750
 1.0470	24.8455
 1.0460	24.9608
 1.0450	24.8999
 1.0440	24.9294
 1.0430	24.9149
 1.0420	24.9268
 1.0410	24.9089
 1.0400	24.8978
 1.0390	24.9002
 1.0380	24.8990
 1.0370	24.8312
 1.0360	24.8730
 1.0350	24.9133
 1.0340	24.9547
 1.0330	24.8181
 1.0320	24.9533
 1.0310	24.8090
 1.0300	24.8866
 1.0290	24.8312
 1.0280	24.8939
 1.0270	24.8195
 1.0260	24.8985
 1.0250	24.8085
 1.0240	24.8177
 1.0230	24.8025
 1.0220	24.8034
 1.0210	24.7861
 1.0200	24.8124
 1.0190	24.7388
 1.0180	24.7974
 1.0170	24.7683
 1.0160	24.7771
 1.0150	24.7178
 1.0140	24.7253
 1.0130	24.6779
 1.0120	24.7593
 1.0110	24.7229
 1.0100	24.7505
 1.0090	24.6374
 1.0080	24.7461
 1.0070	24.6737
 1.0060	24.6684
 1.0050	24.6021
 1.0040	24.5984
 1.0030	24.5519
 1.0020	24.6157
 1.0010	24.4677
 1.0000	24.5617
 0.9990	24.4575
 0.9980	24.5092
 0.9970	24.5368
 0.9960	24.4890
 0.9950	24.4096
 0.9940	24.4171
 0.9930	24.3974
 0.9920	24.4343
 0.9910	24.3556
 0.9900	24.3247
 0.9890	24.2699
 0.9880	24.2909
 0.9870	24.2709
 0.9860	24.2481
 0.9850	24.1977
 0.9840	24.2376
 0.9830	24.1830
 0.9820	24.1805
 0.9810	24.0737
 0.9800	24.0651
 0.9790	24.0041
 0.9780	24.0331
 0.9770	23.9614
 0.9760	23.9793
 0.9750	23.9376
 0.9740	23.9263
 0.9730	23.8435
 0.9720	23.8044
 0.9710	23.7651
 0.9700	23.8158
 0.9690	23.7099
 0.9680	23.6982
 0.9670	23.6281
 0.9660	23.6382
 0.9650	23.5771
 0.9640	23.5246
 0.9630	23.4649
 0.9620	23.4530
 0.9610	23.4413
 0.9600	23.4418
 0.9590	23.3535
 0.9580	23.3256
 0.9570	23.2363
 0.9560	23.2551
 0.9550	23.2014
 0.9540	23.1484
 0.9530	23.0931
 0.9520	23.0642
 0.9510	23.0032
 0.9500	23.0055
 0.9490	22.9131
 0.9480	22.8807
 0.9470	22.8500
 0.9460	22.7995
 0.9450	22.7596
 0.9440	22.7314
 0.9430	22.6678
 0.9420	22.6063
 0.9410	22.6118
 0.9400	22.6138
 0.9390	22.5470
 0.9380	22.5461
 0.9370	22.5273
 0.9360	22.4610
 0.9350	22.4064
 0.9340	22.3878
 0.9330	22.3388
 0.9320	22.3057
 0.9310	22.2361
 0.9300	22.1669
 0.9290	22.1864
 0.9280	22.1843
 0.9270	22.1109
 0.9260	22.0629
 0.9250	22.1160
 0.9240	22.1140
 0.9230	22.0066
 0.9220	21.8729
 0.9210	21.8961
 0.9200	21.8968
 0.9190	21.8232
 0.9180	21.7887
 0.9170	21.7375
 0.9160	21.7459
 0.9150	21.7601
 0.9140	21.7017
 0.9130	21.6764
 0.9120	21.6226
 0.9110	21.6593
 0.9100	21.6676
 0.9090	21.6660
 0.9080	21.6060
 0.9070	21.6104
 0.9060	21.5929
 0.9050	21.6131
 0.9040	21.5711
 0.9030	21.5951
 0.9020	21.5442
 0.9010	21.5079
 0.9000	21.4780
 0.8990	21.4510
 0.8980	21.4381
 0.8970	21.5054
 0.8960	21.4133
 0.8950	21.4648
 0.8940	21.4179
 0.8930	21.4241
 0.8920	21.4838
 0.8910	21.4830
 0.8900	21.4532
 0.8890	21.4755
 0.8880	21.3910
 0.8870	21.4163
 0.8860	21.4395
 0.8850	21.5034
 0.8840	21.4657
 0.8830	21.4557
 0.8820	21.4340
 0.8810	21.4912
 0.8800	21.4339
 0.8790	21.4897
 0.8780	21.4406
 0.8770	21.4882
 0.8760	21.5239
 0.8750	21.5330
 0.8740	21.5092
 0.8730	21.6065
 0.8720	21.5448
 0.8710	21.5757
 0.8700	21.5317
 0.8690	21.5959
 0.8680	21.5936
 0.8670	21.6916
 0.8660	21.6396
 0.8650	21.7045
 0.8640	21.6986
 0.8630	21.7635
 0.8620	21.7348
 0.8610	21.8524
 0.8600	21.9045
 0.8590	21.8898
 0.8580	21.9553
 0.8570	21.9835
 0.8560	21.9846
 0.8550	22.0312
 0.8540	22.0719
 0.8530	22.0901
 0.8520	22.1102
 0.8510	22.1630
 0.8500	22.1858
 0.8490	22.2018
 0.8480	22.2368
 0.8470	22.2769
 0.8460	22.3044
 0.8450	22.3337
 0.8440	22.3861
 0.8430	22.3949
 0.8420	22.4525
 0.8410	22.4697
 0.8400	22.4971
 0.8390	22.5200
 0.8380	22.5804
 0.8370	22.6139
 0.8360	22.6385
 0.8350	22.6679
 0.8340	22.6933
 0.8330	22.7014
 0.8320	22.7563
 0.8310	22.7962
 0.8300	22.7880
 0.8290	22.8368
 0.8280	22.8743
 0.8270	22.8998
 0.8260	22.9082
 0.8250	22.9443
 0.8240	22.9681
 0.8230	23.0044
 0.8220	23.0142
 0.8210	23.0363
 0.8200	23.0702
 0.8190	23.1047
 0.8180	23.0988
 0.8170	23.1245
 0.8160	23.1233
 0.8150	23.1527
 0.8140	23.1675
 0.8130	23.1730
 0.8120	23.2029
 0.8110	23.1927
 0.8100	23.2142
 0.8090	23.1893
 0.8080	23.2145
 0.8070	23.2131
 0.8060	23.2015
 0.8050	23.2004
 0.8040	23.2113
 0.8030	23.2073
 0.8020	23.2011
 0.8010	23.1791
 0.8000	23.1665
 0.7990	23.1443
 0.7980	23.1332
 0.7970	23.1272
 0.7960	23.1015
 0.7950	23.0866
 0.7940	23.0577
 0.7930	23.0168
 0.7920	22.9930
 0.7910	22.9921
 0.7900	22.9531
 0.7890	22.9163
 0.7880	22.8834
 0.7870	22.8564
 0.7860	22.8039
 0.7850	22.7788
 0.7840	22.7275
 0.7830	22.6886
 0.7820	22.6478
 0.7810	22.6026
 0.7800	22.5535
 0.7790	22.5080
 0.7780	22.4557
 0.7770	22.4210
 0.7760	22.3516
 0.7750	22.3074
 0.7740	22.2571
 0.7730	22.1911
 0.7720	22.1511
 0.7710	22.1024
 0.7700	22.0483
 0.7690	22.0031
 0.7680	21.9293
 0.7670	21.8791
 0.7660	21.8340
 0.7650	21.7800
 0.7640	21.7257
 0.7630	21.6662
 0.7620	21.6156
 0.7610	21.5756
 0.7600	21.5112
 0.7590	21.4685
 0.7580	21.4080
 0.7570	21.3443
 0.7560	21.3077
 0.7550	21.2734
 0.7540	21.2082
 0.7530	21.1587
 0.7520	21.1103
 0.7510	21.0702
 0.7500	21.0217
 0.7490	20.9734
 0.7480	20.9353
 0.7470	20.8762
 0.7460	20.8361
 0.7450	20.7947
 0.7440	20.7495
 0.7430	20.7146
 0.7420	20.6712
 0.7410	20.6309
 0.7400	20.6017
 0.7390	20.5660
 0.7380	20.5309
 0.7370	20.5078
 0.7360	20.4733
 0.7350	20.4373
 0.7340	20.4036
 0.7330	20.3877
 0.7320	20.3524
 0.7310	20.3307
 0.7300	20.3010
 0.7290	20.2811
 0.7280	20.2508
 0.7270	20.2317
 0.7260	20.2028
 0.7250	20.1860
 0.7240	20.1686
 0.7230	20.1593
 0.7220	20.1465
 0.7210	20.1263
 0.7200	20.1183
 0.7190	20.0996
 0.7180	20.1031
 0.7170	20.0927
 0.7160	20.0717
 0.7150	20.0684
 0.7140	20.0727
 0.7130	20.0809
 0.7120	20.0756
 0.7110	20.0695
 0.7100	20.0672
 0.7090	20.0715
 0.7080	20.0811
 0.7070	20.0789
 0.7060	20.0869
 0.7050	20.1085
 0.7040	20.1091
 0.7030	20.1234
 0.7020	20.1331
 0.7010	20.1426
 0.7000	20.1576
 0.6990	20.1839
 0.6980	20.2055
 0.6970	20.2131
 0.6960	20.2335
 0.6950	20.2556
 0.6940	20.2831
 0.6930	20.3135
 0.6920	20.3372
 0.6910	20.3584
 0.6900	20.3852
 0.6890	20.4105
 0.6880	20.4387
 0.6870	20.4674
 0.6860	20.5038
 0.6850	20.5355
 0.6840	20.5725
 0.6830	20.6096
 0.6820	20.6477
 0.6810	20.6862
 0.6800	20.7307
 0.6790	20.7735
 0.6780	20.8137
 0.6770	20.8546
 0.6760	20.8985
 0.6750	20.9343
 0.6740	20.9795
 0.6730	21.0236
 0.6720	21.0678
 0.6710	21.1156
 0.6700	21.1677
 0.6690	21.2144
 0.6680	21.2613
 0.6670	21.3124
 0.6660	21.3595
 0.6650	21.4032
 0.6640	21.4601
 0.6630	21.5172
 0.6620	21.5683
 0.6610	21.6158
 0.6600	21.6750
 0.6590	21.7323
 0.6580	21.7883
 0.6570	21.8432
 0.6560	21.9005
 0.6550	21.9612
 0.6540	22.0212
 0.6530	22.0808
 0.6520	22.1359
 0.6510	22.1904
 0.6500	22.2515
 0.6490	22.3159
 0.6480	22.3720
 0.6470	22.4333
 0.6460	22.4999
 0.6450	22.5622
 0.6440	22.6238
 0.6430	22.6863
 0.6420	22.7467
 0.6410	22.8093
 0.6400	22.8781
 0.6390	22.9445
 0.6380	23.0091
 0.6370	23.0798
 0.6360	23.1441
 0.6350	23.2072
 0.6340	23.2731
 0.6330	23.3397
 0.6320	23.4023
 0.6310	23.4685
 0.6300	23.5365
 0.6290	23.5967
 0.6280	23.6607
 0.6270	23.7338
 0.6260	23.8052
 0.6250	23.8653
 0.6240	23.9260
 0.6230	23.9939
 0.6220	24.0679
 0.6210	24.1289
 0.6200	24.1916
 0.6190	24.2600
 0.6180	24.3238
 0.6170	24.3866
 0.6160	24.4520
 0.6150	24.5188
 0.6140	24.5820
 0.6130	24.6397
 0.6120	24.7033
 0.6110	24.7650
 0.6100	24.8262
 0.6090	24.8935
 0.6080	24.9560
 0.6070	25.0172
 0.6060	25.0783
 0.6050	25.1406
 0.6040	25.2039
 0.6030	25.2614
 0.6020	25.3200
 0.6010	25.3835
 0.6000	25.4457
 0.5990	25.5102
 0.5980	25.5692
 0.5970	25.6288
 0.5960	25.6946
 0.5950	25.7544
 0.5940	25.8115
 0.5930	25.8662
 0.5920	25.9222
 0.5910	25.9786
 0.5900	26.0316
 0.5890	26.0907
 0.5880	26.1437
 0.5870	26.1993
 0.5860	26.2492
 0.5850	26.2947
 0.5840	26.3440
 0.5830	26.3962
 0.5820	26.4315
 0.5810	26.4786
 0.5800	26.5226
 0.5790	26.5705
 0.5780	26.6190
 0.5770	26.6583
 0.5760	26.7035
 0.5750	26.7395
 0.5740	26.7748
 0.5730	26.8143
 0.5720	26.8502
 0.5710	26.8848
 0.5700	26.9222
 0.5690	26.9534
 0.5680	26.9918
 0.5670	27.0128
 0.5660	27.0356
 0.5650	27.0670
 0.5640	27.0986
 0.5630	27.1212
 0.5620	27.1472
 0.5610	27.1585
 0.5600	27.1666
 0.5590	27.1811
 0.5580	27.1951
 0.5570	27.2161
 0.5560	27.2363
 0.5550	27.2391
 0.5540	27.2538
 0.5530	27.2620
 0.5520	27.2678
 0.5510	27.2691
 0.5500	27.2791
 0.5490	27.2847
 0.5480	27.2806
 0.5470	27.2853
 0.5460	27.2869
 0.5450	27.2853
 0.5440	27.2926
 0.5430	27.2912
 0.5420	27.2892
 0.5410	27.2831
 0.5400	27.2824
 0.5390	27.2931
 0.5380	27.2892
 0.5370	27.2944
 0.5360	27.2949
 0.5350	27.2990
 0.5340	27.3143
 0.5330	27.3185
 0.5320	27.3347
 0.5310	27.3471
 0.5300	27.3710
 0.5290	27.3879
 0.5280	27.4184
 0.5270	27.4358
 0.5260	27.4570
 0.5250	27.4822
 0.5240	27.5019
 0.5230	27.5182
 0.5220	27.5424
 0.5210	27.5582
 0.5200	27.5614
 0.5190	27.5783
 0.5180	27.5732
 0.5170	27.5685
 0.5160	27.5640
 0.5150	27.5607
 0.5140	27.5461
 0.5130	27.5335
 0.5120	27.5144
 0.5110	27.4923
 0.5100	27.4620
 0.5090	27.4248
 0.5080	27.3802
 0.5070	27.3341
 0.5060	27.2812
 0.5050	27.2206
 0.5040	27.1477
 0.5030	27.0686
 0.5020	26.9792
 0.5010	26.8836
 0.5000	26.7706
 0.4990	26.6592
 0.4980	26.5398
 0.4970	26.4255
 0.4960	26.3345
 0.4950	26.2631
 0.4940	26.2339
 0.4930	26.2353
 0.4920	26.2584
 0.4910	26.2762
 0.4900	26.2987
 0.4890	26.2995
 0.4880	26.2740
 0.4870	26.2055
 0.4860	26.1321
 0.4850	26.0199
 0.4840	25.9135
 0.4830	25.8190
 0.4820	25.6923
 0.4810	25.5845
 0.4800	25.4753
 0.4790	25.3560
 0.4780	25.2224
 0.4770	25.0867
 0.4760	24.9481
 0.4750	24.8077
 0.4740	24.6523
 0.4730	24.5146
 0.4720	24.3627
 0.4710	24.2201
 0.4700	24.0721
 0.4690	23.9263
 0.4680	23.7841
 0.4670	23.6451
 0.4660	23.5181
 0.4650	23.3960
 0.4640	23.2686
 0.4630	23.1520
 0.4620	23.0310
 0.4610	22.9106
 0.4600	22.7938
 0.4590	22.6824
 0.4580	22.5816
 0.4570	22.4829
 0.4560	22.3764
 0.4550	22.2921
 0.4540	22.2109
 0.4530	22.1428
 0.4520	22.0872
 0.4510	22.0464
 0.4500	22.0226
 0.4490	22.0171
 0.4480	22.0070
 0.4470	22.0239
 0.4460	22.0203
 0.4450	22.0304
 0.4440	21.9970
 0.4430	21.9533
 0.4420	21.8901
 0.4410	21.8047
 0.4400	21.7098
 0.4390	21.5983
 0.4380	21.4826
 0.4370	21.3804
 0.4360	21.2745
 0.4350	21.1832
 0.4340	21.0983
 0.4330	21.0223
 0.4320	20.9511
 0.4310	20.8731
 0.4300	20.7939
 0.4290	20.7314
 0.4280	20.6383
 0.4270	20.5527
 0.4260	20.4534
 0.4250	20.3375
 0.4240	20.2146
 0.4230	20.0864
 0.4220	19.9536
 0.4210	19.8111
 0.4200	19.6647
 0.4190	19.5263
 0.4180	19.3904
 0.4170	19.2597
 0.4160	19.1476
 0.4150	19.0305
 0.4140	18.9139
 0.4130	18.8278
 0.4120	18.7518
 0.4110	18.6632
 0.4100	18.5756
 0.4090	18.5026
 0.4080	18.4243
 0.4070	18.3496
 0.4060	18.2945
 0.4050	18.2362
 0.4040	18.1930
 0.4030	18.1565
 0.4020	18.1253
 0.4010	18.1124
 0.4000	18.1134
