Name: Palygorskite (Mg,Al)_2Si_4O_10(OH).4H_2O
Type: Mineral
Class: Silicate
Subclass: Phyllosilicate
Particle Size: Fine
Sample No.: PS-4A
Owner: JPL
Wavelength Range: VSWIR
Origin: USA, Florida, Gadsden County.
Collection Date: N/A
Description: Particle size was 0-45um.Collected by:  Clay Mineral Society Original ASTER Spectral Library name was jpl.perkin.mineral.silicate.phyllosilicate.fine.ps04a.spectrum.txt
Measurement: Hemispherical reflectance
First Column: X
Second Column: Y
X Units: Wavelength (micrometers)
Y Units:Reflectance (percent)
First X Value:  2.5000
Last X Value:  0.4000
Number of X Values: 2101
Additional Information: mineral.silicate.phyllosilicate.fine.vswir.ps-4a.jpl.perkin.ancillary.txt

 2.5000	37.6310
 2.4990	37.3608
 2.4980	37.8308
 2.4970	37.8120
 2.4960	37.5880
 2.4950	37.8120
 2.4940	38.1417
 2.4930	38.0976
 2.4920	38.1958
 2.4910	38.3406
 2.4900	38.5263
 2.4890	38.4846
 2.4880	38.6441
 2.4870	38.7975
 2.4860	39.0774
 2.4850	38.8002
 2.4840	38.9903
 2.4830	39.0697
 2.4820	39.2949
 2.4810	39.3243
 2.4800	39.6399
 2.4790	39.6231
 2.4780	39.7770
 2.4770	39.7463
 2.4760	39.9581
 2.4750	39.7863
 2.4740	40.1168
 2.4730	40.0411
 2.4720	40.3376
 2.4710	40.2330
 2.4700	40.4270
 2.4690	40.4285
 2.4680	40.5453
 2.4670	40.6120
 2.4660	40.7479
 2.4650	40.8743
 2.4640	40.9520
 2.4630	40.9882
 2.4620	40.8977
 2.4610	40.9840
 2.4600	41.2037
 2.4590	41.0809
 2.4580	41.2431
 2.4570	41.2926
 2.4560	41.1925
 2.4550	41.2847
 2.4540	41.3657
 2.4530	41.3740
 2.4520	41.4255
 2.4510	41.3970
 2.4500	41.4739
 2.4490	41.3963
 2.4480	41.6017
 2.4470	41.5496
 2.4460	41.5684
 2.4450	41.4596
 2.4440	41.6623
 2.4430	41.6534
 2.4420	41.6298
 2.4410	41.6209
 2.4400	41.7492
 2.4390	41.8003
 2.4380	41.8237
 2.4370	41.8279
 2.4360	41.9927
 2.4350	41.9089
 2.4340	42.0594
 2.4330	42.0930
 2.4320	42.1929
 2.4310	42.1629
 2.4300	42.4137
 2.4290	42.3916
 2.4280	42.5245
 2.4270	42.5095
 2.4260	42.5949
 2.4250	42.7011
 2.4240	42.7089
 2.4230	42.7955
 2.4220	42.9935
 2.4210	43.0482
 2.4200	43.1537
 2.4190	43.1964
 2.4180	43.2506
 2.4170	43.2632
 2.4160	43.3476
 2.4150	43.5059
 2.4140	43.6248
 2.4130	43.6641
 2.4120	43.8477
 2.4110	43.8040
 2.4100	43.9636
 2.4090	44.0193
 2.4080	44.2004
 2.4070	44.2850
 2.4060	44.4520
 2.4050	44.4309
 2.4040	44.5292
 2.4030	44.7087
 2.4020	44.8074
 2.4010	44.8199
 2.4000	44.9469
 2.3990	45.1070
 2.3980	45.2964
 2.3970	45.4289
 2.3960	45.5856
 2.3950	45.7051
 2.3940	45.7447
 2.3930	45.8323
 2.3920	46.0170
 2.3910	46.1894
 2.3900	46.3810
 2.3890	46.4055
 2.3880	46.5649
 2.3870	46.7269
 2.3860	46.8814
 2.3850	46.9761
 2.3840	47.0986
 2.3830	47.1198
 2.3820	47.2934
 2.3810	47.4470
 2.3800	47.5506
 2.3790	47.7254
 2.3780	47.8599
 2.3770	47.9443
 2.3760	48.0300
 2.3750	48.1388
 2.3740	48.3043
 2.3730	48.4320
 2.3720	48.6282
 2.3710	48.7704
 2.3700	48.8520
 2.3690	48.9717
 2.3680	49.1383
 2.3670	49.2464
 2.3660	49.4600
 2.3650	49.6763
 2.3640	49.7726
 2.3630	49.8396
 2.3620	50.0307
 2.3610	50.2048
 2.3600	50.3113
 2.3590	50.3998
 2.3580	50.4996
 2.3570	50.6149
 2.3560	50.7010
 2.3550	50.7616
 2.3540	50.8976
 2.3530	51.0457
 2.3520	51.0969
 2.3510	51.1589
 2.3500	51.2230
 2.3490	51.2746
 2.3480	51.3327
 2.3470	51.3837
 2.3460	51.4204
 2.3450	51.5131
 2.3440	51.5457
 2.3430	51.5827
 2.3420	51.6665
 2.3410	51.7072
 2.3400	51.7541
 2.3390	51.8197
 2.3380	51.8751
 2.3370	51.8961
 2.3360	51.9429
 2.3350	52.0898
 2.3340	52.1321
 2.3330	52.2060
 2.3320	52.3335
 2.3310	52.4554
 2.3300	52.5299
 2.3290	52.6176
 2.3280	52.6955
 2.3270	52.8791
 2.3260	52.9998
 2.3250	53.1903
 2.3240	53.3812
 2.3230	53.5533
 2.3220	53.7016
 2.3210	53.8974
 2.3200	53.9879
 2.3190	54.1568
 2.3180	54.3295
 2.3170	54.5286
 2.3160	54.6658
 2.3150	54.8255
 2.3140	54.8611
 2.3130	55.0138
 2.3120	55.1252
 2.3110	55.2719
 2.3100	55.4002
 2.3090	55.5612
 2.3080	55.6190
 2.3070	55.7268
 2.3060	55.8408
 2.3050	56.0340
 2.3040	56.1520
 2.3030	56.2651
 2.3020	56.2739
 2.3010	56.4954
 2.3000	56.5723
 2.2990	56.7379
 2.2980	56.8483
 2.2970	56.9856
 2.2960	57.0183
 2.2950	57.0655
 2.2940	57.2229
 2.2930	57.3683
 2.2920	57.0790
 2.2910	57.4543
 2.2900	57.6115
 2.2890	57.7319
 2.2880	57.8574
 2.2870	58.0584
 2.2860	58.0701
 2.2850	58.1586
 2.2840	58.2273
 2.2830	58.3013
 2.2820	58.4783
 2.2810	58.5462
 2.2800	58.6134
 2.2790	58.7031
 2.2780	58.8196
 2.2770	58.9298
 2.2760	58.8279
 2.2750	58.9793
 2.2740	59.0608
 2.2730	59.1400
 2.2720	59.1272
 2.2710	59.2473
 2.2700	59.2496
 2.2690	59.3178
 2.2680	59.3264
 2.2670	59.3066
 2.2660	59.1819
 2.2650	59.2200
 2.2640	59.1879
 2.2630	59.2554
 2.2620	59.1584
 2.2610	59.1088
 2.2600	59.1714
 2.2590	59.1177
 2.2580	59.0295
 2.2570	59.0698
 2.2560	58.9733
 2.2550	59.0561
 2.2540	59.1037
 2.2530	59.0651
 2.2520	59.0415
 2.2510	59.0841
 2.2500	59.1816
 2.2490	59.1576
 2.2480	59.1605
 2.2470	59.3027
 2.2460	59.3120
 2.2450	59.4131
 2.2440	59.3766
 2.2430	59.4605
 2.2420	59.5029
 2.2410	59.5274
 2.2400	59.4957
 2.2390	59.5861
 2.2380	59.4474
 2.2370	59.4590
 2.2360	59.3616
 2.2350	59.2822
 2.2340	59.1147
 2.2330	59.0787
 2.2320	58.7142
 2.2310	58.5322
 2.2300	58.2089
 2.2290	57.9733
 2.2280	57.6565
 2.2270	57.2992
 2.2260	56.9129
 2.2250	56.7797
 2.2240	56.3339
 2.2230	56.1764
 2.2220	55.8541
 2.2210	55.8151
 2.2200	55.8597
 2.2190	55.8551
 2.2180	55.9004
 2.2170	56.1652
 2.2160	56.2356
 2.2150	56.6288
 2.2140	56.7402
 2.2130	57.0293
 2.2120	57.3986
 2.2110	57.6261
 2.2100	57.9853
 2.2090	58.2483
 2.2080	58.4446
 2.2070	58.6506
 2.2060	58.9621
 2.2050	59.1990
 2.2040	59.2475
 2.2030	59.6112
 2.2020	59.7916
 2.2010	59.9934
 2.2000	60.1903
 2.1990	60.4553
 2.1980	60.5431
 2.1970	60.7769
 2.1960	60.9556
 2.1950	61.1232
 2.1940	61.2143
 2.1930	61.4471
 2.1920	61.3769
 2.1910	61.5649
 2.1900	61.6584
 2.1890	61.8180
 2.1880	61.9124
 2.1870	62.0719
 2.1860	62.1159
 2.1850	62.1393
 2.1840	62.1818
 2.1830	62.3540
 2.1820	62.3572
 2.1810	62.5073
 2.1800	62.5156
 2.1790	62.6206
 2.1780	62.6973
 2.1770	62.9082
 2.1760	62.7952
 2.1750	62.9066
 2.1740	63.0022
 2.1730	63.0326
 2.1720	63.1400
 2.1710	63.1796
 2.1700	63.3070
 2.1690	63.3108
 2.1680	63.2851
 2.1670	63.3935
 2.1660	63.3531
 2.1650	63.4747
 2.1640	63.4793
 2.1630	63.5999
 2.1620	63.5818
 2.1610	63.7277
 2.1600	63.7046
 2.1590	63.8342
 2.1580	63.8942
 2.1570	63.8995
 2.1560	63.8871
 2.1550	63.9146
 2.1540	63.9627
 2.1530	64.0623
 2.1520	64.0421
 2.1510	64.0387
 2.1500	64.0571
 2.1490	64.1204
 2.1480	64.1441
 2.1470	64.1654
 2.1460	64.1464
 2.1450	64.1990
 2.1440	64.1092
 2.1430	64.1683
 2.1420	64.1673
 2.1410	64.1254
 2.1400	64.1464
 2.1390	64.1845
 2.1380	64.1544
 2.1370	64.1816
 2.1360	64.1827
 2.1350	64.2109
 2.1340	64.1191
 2.1330	64.0992
 2.1320	64.0994
 2.1310	64.1391
 2.1300	64.1468
 2.1290	64.0095
 2.1280	63.9415
 2.1270	63.9636
 2.1260	63.9249
 2.1250	63.9970
 2.1240	63.9396
 2.1230	63.8838
 2.1220	63.7748
 2.1210	63.7165
 2.1200	63.7549
 2.1190	63.7634
 2.1180	63.7107
 2.1170	63.6824
 2.1160	63.6502
 2.1150	63.6058
 2.1140	63.6240
 2.1130	63.5832
 2.1120	63.5224
 2.1110	63.5045
 2.1100	63.4649
 2.1090	63.4061
 2.1080	63.3596
 2.1070	63.3018
 2.1060	63.2864
 2.1050	63.2572
 2.1040	63.2446
 2.1030	63.2848
 2.1020	63.2066
 2.1010	63.1528
 2.1000	63.1079
 2.0990	63.1447
 2.0980	63.1223
 2.0970	62.9957
 2.0960	62.9323
 2.0950	62.9541
 2.0940	62.9423
 2.0930	62.9560
 2.0920	62.9712
 2.0910	62.9903
 2.0900	62.9502
 2.0890	62.8956
 2.0880	62.8776
 2.0870	62.8652
 2.0860	62.8769
 2.0850	62.8306
 2.0840	62.7870
 2.0830	62.7880
 2.0820	62.7242
 2.0810	62.6725
 2.0800	62.7222
 2.0790	62.7622
 2.0780	62.6725
 2.0770	62.6017
 2.0760	62.6203
 2.0750	62.6349
 2.0740	62.5996
 2.0730	62.5751
 2.0720	62.5230
 2.0710	62.5251
 2.0700	62.4994
 2.0690	62.4469
 2.0680	62.4283
 2.0670	62.3921
 2.0660	62.3341
 2.0650	62.3628
 2.0640	62.3412
 2.0630	62.1908
 2.0620	62.1468
 2.0610	62.1856
 2.0600	62.1605
 2.0590	62.0822
 2.0580	61.9955
 2.0570	61.9792
 2.0560	61.8897
 2.0550	61.8288
 2.0540	61.8402
 2.0530	61.7843
 2.0520	61.7778
 2.0510	61.7383
 2.0500	61.6874
 2.0490	61.6579
 2.0480	61.6449
 2.0470	61.5753
 2.0460	61.5448
 2.0450	61.4878
 2.0440	61.4452
 2.0430	61.3448
 2.0420	61.2972
 2.0410	61.2233
 2.0400	61.1851
 2.0390	61.1028
 2.0380	60.9865
 2.0370	60.9551
 2.0360	60.9548
 2.0350	60.8432
 2.0340	60.7330
 2.0330	60.6406
 2.0320	60.6581
 2.0310	60.5607
 2.0300	60.4322
 2.0290	60.2707
 2.0280	60.1915
 2.0270	60.0566
 2.0260	60.0546
 2.0250	59.9913
 2.0240	59.8376
 2.0230	59.7293
 2.0220	59.5764
 2.0210	59.4609
 2.0200	59.4034
 2.0190	59.2713
 2.0180	59.1338
 2.0170	59.0030
 2.0160	58.9850
 2.0150	58.8021
 2.0140	58.6917
 2.0130	58.5146
 2.0120	58.3522
 2.0110	58.2030
 2.0100	58.1127
 2.0090	57.9625
 2.0080	57.8261
 2.0070	57.6325
 2.0060	57.5173
 2.0050	57.3643
 2.0040	57.2819
 2.0030	57.0943
 2.0020	57.0292
 2.0010	56.8138
 2.0000	56.6397
 1.9990	56.4786
 1.9980	56.2469
 1.9970	56.1557
 1.9960	56.0023
 1.9950	55.7062
 1.9940	55.5675
 1.9930	55.4157
 1.9920	55.3102
 1.9910	55.1082
 1.9900	55.0333
 1.9890	54.7352
 1.9880	54.7195
 1.9870	54.4614
 1.9860	54.3666
 1.9850	54.1882
 1.9840	54.0741
 1.9830	53.8632
 1.9820	53.6804
 1.9810	53.6002
 1.9800	53.4950
 1.9790	53.2945
 1.9780	53.2116
 1.9770	53.0504
 1.9760	52.9590
 1.9750	52.8709
 1.9740	52.7417
 1.9730	52.5805
 1.9720	52.6151
 1.9710	52.3867
 1.9700	52.4081
 1.9690	52.2587
 1.9680	52.1424
 1.9670	51.9504
 1.9660	51.8991
 1.9650	51.7701
 1.9640	51.7029
 1.9630	51.5315
 1.9620	51.3910
 1.9610	51.2919
 1.9600	51.2269
 1.9590	51.0271
 1.9580	50.9577
 1.9570	50.6898
 1.9560	50.6666
 1.9550	50.4216
 1.9540	50.3341
 1.9530	50.1033
 1.9520	50.0078
 1.9510	49.6480
 1.9500	49.6234
 1.9490	49.2784
 1.9480	49.0957
 1.9470	48.7168
 1.9460	48.4893
 1.9450	48.2695
 1.9440	47.7959
 1.9430	47.3823
 1.9420	47.0706
 1.9410	46.5495
 1.9400	46.0769
 1.9390	45.4642
 1.9380	45.0048
 1.9370	44.2934
 1.9360	43.7731
 1.9350	43.1030
 1.9340	42.5699
 1.9330	41.9436
 1.9320	41.4168
 1.9310	40.8121
 1.9300	40.3301
 1.9290	39.8068
 1.9280	39.4177
 1.9270	39.0549
 1.9260	38.5570
 1.9250	38.2980
 1.9240	38.0816
 1.9230	37.7883
 1.9220	37.7109
 1.9210	37.4683
 1.9200	37.5508
 1.9190	37.3471
 1.9180	37.3827
 1.9170	37.4102
 1.9160	37.5086
 1.9150	37.5785
 1.9140	37.8137
 1.9130	37.9691
 1.9120	38.2152
 1.9110	38.4642
 1.9100	38.9641
 1.9090	39.3366
 1.9080	39.8100
 1.9070	40.4556
 1.9060	41.1748
 1.9050	41.8143
 1.9040	42.7308
 1.9030	43.6695
 1.9020	44.6581
 1.9010	45.6402
 1.9000	46.7284
 1.8990	47.5958
 1.8980	48.5731
 1.8970	49.4790
 1.8960	50.4712
 1.8950	51.3066
 1.8940	52.1897
 1.8930	52.9796
 1.8920	53.8322
 1.8910	54.4717
 1.8900	55.2919
 1.8890	56.0099
 1.8880	56.7556
 1.8870	57.3624
 1.8860	57.9670
 1.8850	58.4231
 1.8840	59.0128
 1.8830	59.5268
 1.8820	60.1028
 1.8810	60.5147
 1.8800	61.0754
 1.8790	61.5298
 1.8780	61.9870
 1.8770	62.3544
 1.8760	62.8271
 1.8750	63.2765
 1.8740	63.8083
 1.8730	64.3032
 1.8720	64.8135
 1.8710	65.1840
 1.8700	65.5982
 1.8690	65.8974
 1.8680	66.2587
 1.8670	66.4861
 1.8660	66.8097
 1.8650	66.9509
 1.8640	67.1248
 1.8630	67.1912
 1.8620	67.3915
 1.8610	67.4864
 1.8600	67.5758
 1.8590	67.6892
 1.8580	67.9621
 1.8570	68.0038
 1.8560	68.1072
 1.8550	68.1767
 1.8540	68.2829
 1.8530	68.3442
 1.8520	68.5184
 1.8510	68.5026
 1.8500	68.6290
 1.8490	68.7189
 1.8480	68.8294
 1.8470	68.8228
 1.8460	68.9254
 1.8450	68.9605
 1.8440	68.9925
 1.8430	69.0089
 1.8420	69.0323
 1.8410	69.0738
 1.8400	69.1524
 1.8390	69.1349
 1.8380	69.1942
 1.8370	69.2213
 1.8360	69.2825
 1.8350	69.2665
 1.8340	69.2853
 1.8330	69.2833
 1.8320	69.3574
 1.8310	69.2629
 1.8300	69.3177
 1.8290	69.3195
 1.8280	69.4062
 1.8270	69.3903
 1.8260	69.3895
 1.8250	69.4021
 1.8240	69.3877
 1.8230	69.4305
 1.8220	69.4673
 1.8210	69.4016
 1.8200	69.4412
 1.8190	69.4683
 1.8180	69.4194
 1.8170	69.4269
 1.8160	69.4504
 1.8150	69.4381
 1.8140	69.5101
 1.8130	69.5368
 1.8120	69.4200
 1.8110	69.4033
 1.8100	69.4474
 1.8090	69.5082
 1.8080	69.4931
 1.8070	69.4658
 1.8060	69.4470
 1.8050	69.4317
 1.8040	69.4689
 1.8030	69.4770
 1.8020	69.4947
 1.8010	69.5552
 1.8000	69.5811
 1.7990	69.5778
 1.7980	69.6102
 1.7970	69.5550
 1.7960	69.5710
 1.7950	69.6653
 1.7940	69.7238
 1.7930	69.7258
 1.7920	69.6863
 1.7910	69.6981
 1.7900	69.7919
 1.7890	69.8755
 1.7880	69.9206
 1.7870	69.8505
 1.7860	69.8470
 1.7850	69.9209
 1.7840	69.9669
 1.7830	69.9770
 1.7820	69.9675
 1.7810	69.9664
 1.7800	69.9999
 1.7790	70.0664
 1.7780	70.0847
 1.7770	70.1488
 1.7760	70.1825
 1.7750	70.2300
 1.7740	70.2434
 1.7730	70.2700
 1.7720	70.3782
 1.7710	70.4716
 1.7700	70.4520
 1.7690	70.3855
 1.7680	70.4361
 1.7670	70.5261
 1.7660	70.5363
 1.7650	70.6294
 1.7640	70.7070
 1.7630	70.6836
 1.7620	70.6889
 1.7610	70.7279
 1.7600	70.7770
 1.7590	70.8292
 1.7580	70.8415
 1.7570	70.8323
 1.7560	70.8536
 1.7550	70.9103
 1.7540	70.8713
 1.7530	70.9741
 1.7520	71.0180
 1.7510	71.0572
 1.7500	71.0527
 1.7490	71.0132
 1.7480	71.0515
 1.7470	71.0804
 1.7460	71.1020
 1.7450	71.2058
 1.7440	71.2527
 1.7430	71.2387
 1.7420	71.2052
 1.7410	71.2943
 1.7400	71.2962
 1.7390	71.2999
 1.7380	71.2749
 1.7370	71.3175
 1.7360	71.3196
 1.7350	71.3167
 1.7340	71.3692
 1.7330	71.4352
 1.7320	71.3693
 1.7310	71.4721
 1.7300	71.4512
 1.7290	71.4123
 1.7280	71.4118
 1.7270	71.4103
 1.7260	71.4486
 1.7250	71.4711
 1.7240	71.5475
 1.7230	71.6178
 1.7220	71.6110
 1.7210	71.5523
 1.7200	71.5891
 1.7190	71.6772
 1.7180	71.6523
 1.7170	71.6649
 1.7160	71.6162
 1.7150	71.6554
 1.7140	71.6155
 1.7130	71.6975
 1.7120	71.6679
 1.7110	71.7787
 1.7100	71.6888
 1.7090	71.7535
 1.7080	71.7689
 1.7070	71.6859
 1.7060	71.7878
 1.7050	71.8141
 1.7040	71.7585
 1.7030	71.7932
 1.7020	71.8310
 1.7010	71.8581
 1.7000	71.8126
 1.6990	71.7870
 1.6980	71.8340
 1.6970	71.8188
 1.6960	71.7912
 1.6950	71.8843
 1.6940	71.9411
 1.6930	71.8842
 1.6920	71.8085
 1.6910	71.8841
 1.6900	71.9383
 1.6890	71.9354
 1.6880	71.8788
 1.6870	71.8255
 1.6860	71.8483
 1.6850	71.9029
 1.6840	71.8113
 1.6830	71.8955
 1.6820	71.8997
 1.6810	71.9450
 1.6800	71.8884
 1.6790	71.8803
 1.6780	71.9207
 1.6770	71.9709
 1.6760	71.9487
 1.6750	71.8424
 1.6740	71.9402
 1.6730	71.9236
 1.6720	71.9114
 1.6710	71.8254
 1.6700	71.8279
 1.6690	71.8016
 1.6680	71.8511
 1.6670	71.8992
 1.6660	71.7599
 1.6650	71.8627
 1.6640	71.7535
 1.6630	71.8109
 1.6620	71.7890
 1.6610	71.8513
 1.6600	71.8765
 1.6590	71.8429
 1.6580	71.8063
 1.6570	71.8287
 1.6560	71.7491
 1.6550	71.8183
 1.6540	71.6780
 1.6530	71.8512
 1.6520	71.6798
 1.6510	71.8257
 1.6500	71.7466
 1.6490	71.6740
 1.6480	71.7721
 1.6470	71.7820
 1.6460	71.7909
 1.6450	71.8933
 1.6440	71.7186
 1.6430	71.7812
 1.6420	71.7382
 1.6410	71.7982
 1.6400	71.7781
 1.6390	71.7769
 1.6380	71.8198
 1.6370	71.6726
 1.6360	71.7491
 1.6350	71.7128
 1.6340	71.7195
 1.6330	71.6290
 1.6320	71.5625
 1.6310	71.5926
 1.6300	71.6544
 1.6290	71.5995
 1.6280	71.6296
 1.6270	71.5984
 1.6260	71.4858
 1.6250	71.5564
 1.6240	71.6259
 1.6230	71.4926
 1.6220	71.4983
 1.6210	71.5928
 1.6200	71.5044
 1.6190	71.5179
 1.6180	71.4755
 1.6170	71.4457
 1.6160	71.5186
 1.6150	71.5722
 1.6140	71.4225
 1.6130	71.3788
 1.6120	71.4233
 1.6110	71.3688
 1.6100	71.3918
 1.6090	71.3758
 1.6080	71.4486
 1.6070	71.4510
 1.6060	71.3781
 1.6050	71.3514
 1.6040	71.3145
 1.6030	71.3694
 1.6020	71.3229
 1.6010	71.3424
 1.6000	71.2639
 1.5990	71.2891
 1.5980	71.2674
 1.5970	71.1935
 1.5960	71.1730
 1.5950	71.2117
 1.5940	71.1795
 1.5930	71.0961
 1.5920	71.1733
 1.5910	71.1010
 1.5900	71.2205
 1.5890	71.2486
 1.5880	71.1184
 1.5870	71.0864
 1.5860	71.0090
 1.5850	71.0327
 1.5840	71.0636
 1.5830	70.9704
 1.5820	70.9219
 1.5810	70.9072
 1.5800	70.9688
 1.5790	70.8880
 1.5780	70.8990
 1.5770	70.9326
 1.5760	70.9624
 1.5750	70.9221
 1.5740	70.7600
 1.5730	70.7623
 1.5720	70.7878
 1.5710	70.7812
 1.5700	70.6903
 1.5690	70.7155
 1.5680	70.6906
 1.5670	70.6993
 1.5660	70.6866
 1.5650	70.6411
 1.5640	70.6302
 1.5630	70.6356
 1.5620	70.5405
 1.5610	70.5990
 1.5600	70.5865
 1.5590	70.5404
 1.5580	70.4780
 1.5570	70.4813
 1.5560	70.4859
 1.5550	70.4762
 1.5540	70.4464
 1.5530	70.3741
 1.5520	70.3619
 1.5510	70.3678
 1.5500	70.3767
 1.5490	70.3269
 1.5480	70.1931
 1.5470	70.1222
 1.5460	70.1118
 1.5450	70.1215
 1.5440	70.1216
 1.5430	70.0296
 1.5420	70.0549
 1.5410	70.0443
 1.5400	69.9338
 1.5390	69.9537
 1.5380	69.9506
 1.5370	69.9365
 1.5360	69.8258
 1.5350	69.7919
 1.5340	69.7784
 1.5330	69.7933
 1.5320	69.7828
 1.5310	69.6788
 1.5300	69.6167
 1.5290	69.6589
 1.5280	69.5800
 1.5270	69.5254
 1.5260	69.4675
 1.5250	69.4847
 1.5240	69.4425
 1.5230	69.3293
 1.5220	69.2492
 1.5210	69.2755
 1.5200	69.3011
 1.5190	69.2300
 1.5180	69.1399
 1.5170	69.1240
 1.5160	69.0732
 1.5150	68.9495
 1.5140	68.8855
 1.5130	68.8323
 1.5120	68.7852
 1.5110	68.7596
 1.5100	68.7096
 1.5090	68.6456
 1.5080	68.6077
 1.5070	68.6082
 1.5060	68.5219
 1.5050	68.4326
 1.5040	68.3121
 1.5030	68.1805
 1.5020	68.1310
 1.5010	68.1067
 1.5000	67.9823
 1.4990	67.9116
 1.4980	67.8836
 1.4970	67.7909
 1.4960	67.7117
 1.4950	67.6516
 1.4940	67.5558
 1.4930	67.4639
 1.4920	67.3307
 1.4910	67.2159
 1.4900	67.1189
 1.4890	66.9876
 1.4880	66.8983
 1.4870	66.7236
 1.4860	66.5296
 1.4850	66.4368
 1.4840	66.3533
 1.4830	66.2073
 1.4820	66.1000
 1.4810	65.9162
 1.4800	65.7372
 1.4790	65.6247
 1.4780	65.4896
 1.4770	65.2888
 1.4760	65.1704
 1.4750	64.9964
 1.4740	64.8742
 1.4730	64.8065
 1.4720	64.7309
 1.4710	64.5962
 1.4700	64.6044
 1.4690	64.6128
 1.4680	64.5036
 1.4670	64.4128
 1.4660	64.3919
 1.4650	64.3288
 1.4640	64.3374
 1.4630	64.2688
 1.4620	64.1904
 1.4610	64.1534
 1.4600	64.1177
 1.4590	64.0440
 1.4580	63.9401
 1.4570	63.8783
 1.4560	63.8337
 1.4550	63.6496
 1.4540	63.6153
 1.4530	63.5551
 1.4520	63.4056
 1.4510	63.3045
 1.4500	63.2261
 1.4490	63.0769
 1.4480	63.0045
 1.4470	62.8616
 1.4460	62.7149
 1.4450	62.5700
 1.4440	62.5183
 1.4430	62.4312
 1.4420	62.3773
 1.4410	62.3414
 1.4400	62.3681
 1.4390	62.3225
 1.4380	62.2041
 1.4370	62.0563
 1.4360	61.9766
 1.4350	61.7371
 1.4340	61.5424
 1.4330	61.2475
 1.4320	60.9686
 1.4310	60.7541
 1.4300	60.6238
 1.4290	60.5436
 1.4280	60.5889
 1.4270	60.5456
 1.4260	60.5499
 1.4250	60.4907
 1.4240	60.3540
 1.4230	60.0020
 1.4220	59.4608
 1.4210	58.5517
 1.4200	57.5716
 1.4190	56.8114
 1.4180	56.4682
 1.4170	56.5198
 1.4160	57.2836
 1.4150	58.3468
 1.4140	59.4018
 1.4130	60.1986
 1.4120	60.9181
 1.4110	61.4148
 1.4100	61.9257
 1.4090	62.2825
 1.4080	62.6459
 1.4070	62.9730
 1.4060	63.3683
 1.4050	63.7075
 1.4040	64.2141
 1.4030	64.4484
 1.4020	64.7920
 1.4010	65.1462
 1.4000	65.5045
 1.3990	65.8112
 1.3980	66.1364
 1.3970	66.4825
 1.3960	66.7945
 1.3950	67.0302
 1.3940	67.2845
 1.3930	67.5991
 1.3920	67.7442
 1.3910	67.9870
 1.3900	68.0504
 1.3890	68.2285
 1.3880	68.2213
 1.3870	68.3169
 1.3860	68.4982
 1.3850	68.6571
 1.3840	68.9065
 1.3830	69.0786
 1.3820	69.3305
 1.3810	69.4523
 1.3800	69.6847
 1.3790	69.7662
 1.3780	69.9844
 1.3770	70.1443
 1.3760	70.2003
 1.3750	70.2977
 1.3740	70.5366
 1.3730	70.5972
 1.3720	70.7184
 1.3710	70.7137
 1.3700	70.8878
 1.3690	70.8576
 1.3680	70.9533
 1.3670	70.8879
 1.3660	71.0335
 1.3650	71.0530
 1.3640	70.9404
 1.3630	71.0019
 1.3620	71.0428
 1.3610	71.1389
 1.3600	71.1644
 1.3590	71.2433
 1.3580	71.2411
 1.3570	71.1893
 1.3560	71.3164
 1.3550	71.1594
 1.3540	71.2798
 1.3530	71.4091
 1.3520	71.4005
 1.3510	71.4343
 1.3500	71.3819
 1.3490	71.4231
 1.3480	71.3833
 1.3470	71.4942
 1.3460	71.5016
 1.3450	71.4616
 1.3440	71.6014
 1.3430	71.5996
 1.3420	71.6450
 1.3410	71.5939
 1.3400	71.6142
 1.3390	71.5902
 1.3380	71.6903
 1.3370	71.5770
 1.3360	71.6477
 1.3350	71.7460
 1.3340	71.7048
 1.3330	71.7073
 1.3320	71.8002
 1.3310	71.7331
 1.3300	71.7556
 1.3290	71.8701
 1.3280	71.8227
 1.3270	71.8538
 1.3260	71.8772
 1.3250	71.8085
 1.3240	71.9317
 1.3230	71.8745
 1.3220	71.9398
 1.3210	72.0101
 1.3200	71.9895
 1.3190	71.8865
 1.3180	71.9207
 1.3170	71.9432
 1.3160	71.9926
 1.3150	72.0856
 1.3140	72.0328
 1.3130	71.9984
 1.3120	72.0601
 1.3110	71.9848
 1.3100	71.9666
 1.3090	71.9565
 1.3080	71.9991
 1.3070	72.0585
 1.3060	72.0370
 1.3050	72.0075
 1.3040	72.0547
 1.3030	72.0899
 1.3020	72.0559
 1.3010	71.9660
 1.3000	71.9318
 1.2990	71.8916
 1.2980	71.9564
 1.2970	71.9859
 1.2960	71.9812
 1.2950	71.9322
 1.2940	71.9416
 1.2930	71.9065
 1.2920	71.9286
 1.2910	71.9630
 1.2900	72.0511
 1.2890	72.0241
 1.2880	72.0704
 1.2870	72.0189
 1.2860	72.0045
 1.2850	72.0760
 1.2840	72.0696
 1.2830	72.0297
 1.2820	72.0429
 1.2810	72.0364
 1.2800	72.0548
 1.2790	72.0231
 1.2780	72.0055
 1.2770	71.9633
 1.2760	72.0739
 1.2750	71.9761
 1.2740	71.9184
 1.2730	71.9794
 1.2720	72.0015
 1.2710	71.9869
 1.2700	71.9729
 1.2690	71.9100
 1.2680	71.9996
 1.2670	71.9456
 1.2660	71.8984
 1.2650	71.8682
 1.2640	71.9425
 1.2630	71.8667
 1.2620	71.9041
 1.2610	71.9531
 1.2600	71.9272
 1.2590	71.9199
 1.2580	71.8923
 1.2570	71.7804
 1.2560	71.8152
 1.2550	71.8632
 1.2540	71.7592
 1.2530	71.8209
 1.2520	71.8215
 1.2510	71.7630
 1.2500	71.7344
 1.2490	71.7399
 1.2480	71.7285
 1.2470	71.7025
 1.2460	71.7862
 1.2450	71.7825
 1.2440	71.7189
 1.2430	71.6843
 1.2420	71.7334
 1.2410	71.6993
 1.2400	71.6566
 1.2390	71.6634
 1.2380	71.6974
 1.2370	71.6449
 1.2360	71.6985
 1.2350	71.6848
 1.2340	71.6809
 1.2330	71.6386
 1.2320	71.6290
 1.2310	71.6617
 1.2300	71.6055
 1.2290	71.5574
 1.2280	71.5924
 1.2270	71.6064
 1.2260	71.6338
 1.2250	71.6144
 1.2240	71.5920
 1.2230	71.5694
 1.2220	71.5439
 1.2210	71.5450
 1.2200	71.5429
 1.2190	71.4994
 1.2180	71.4604
 1.2170	71.4826
 1.2160	71.4858
 1.2150	71.4502
 1.2140	71.4156
 1.2130	71.3695
 1.2120	71.4078
 1.2110	71.4919
 1.2100	71.4971
 1.2090	71.4152
 1.2080	71.2923
 1.2070	71.2889
 1.2060	71.3628
 1.2050	71.3330
 1.2040	71.2613
 1.2030	71.2484
 1.2020	71.2369
 1.2010	71.2058
 1.2000	71.2457
 1.1990	71.3070
 1.1980	71.2911
 1.1970	71.2000
 1.1960	71.1754
 1.1950	71.2181
 1.1940	71.2227
 1.1930	71.2264
 1.1920	71.1430
 1.1910	71.1077
 1.1900	71.1259
 1.1890	71.1754
 1.1880	71.1497
 1.1870	71.1632
 1.1860	71.1591
 1.1850	71.0864
 1.1840	71.0242
 1.1830	71.0747
 1.1820	71.1117
 1.1810	71.0858
 1.1800	71.0251
 1.1790	71.0159
 1.1780	71.0056
 1.1770	71.0436
 1.1760	70.9722
 1.1750	70.9838
 1.1740	70.9653
 1.1730	70.9211
 1.1720	70.9101
 1.1710	70.9655
 1.1700	70.8954
 1.1690	70.9300
 1.1680	70.9132
 1.1670	70.8734
 1.1660	70.8183
 1.1650	70.8346
 1.1640	70.8213
 1.1630	70.8824
 1.1620	70.8631
 1.1610	70.8112
 1.1600	70.8022
 1.1590	70.8399
 1.1580	70.8324
 1.1570	70.8348
 1.1560	70.7831
 1.1550	70.8562
 1.1540	70.9321
 1.1530	70.9474
 1.1520	70.9173
 1.1510	70.9580
 1.1500	70.9498
 1.1490	71.0463
 1.1480	71.0712
 1.1470	71.0736
 1.1460	71.0806
 1.1450	71.1536
 1.1440	71.2358
 1.1430	71.1951
 1.1420	71.1094
 1.1410	71.1235
 1.1400	71.1949
 1.1390	71.2163
 1.1380	71.2250
 1.1370	71.2980
 1.1360	71.1928
 1.1350	71.2049
 1.1340	71.2182
 1.1330	71.2401
 1.1320	71.1260
 1.1310	71.2848
 1.1300	71.2920
 1.1290	71.3520
 1.1280	71.3230
 1.1270	71.3007
 1.1260	71.2581
 1.1250	71.2500
 1.1240	71.2710
 1.1230	71.3538
 1.1220	71.2831
 1.1210	71.2091
 1.1200	71.2490
 1.1190	71.2345
 1.1180	71.2107
 1.1170	71.3407
 1.1160	71.3072
 1.1150	71.3124
 1.1140	71.2768
 1.1130	71.2345
 1.1120	71.2938
 1.1110	71.2449
 1.1100	71.2102
 1.1090	71.2634
 1.1080	71.2122
 1.1070	71.3380
 1.1060	71.2115
 1.1050	71.2899
 1.1040	71.3259
 1.1030	71.3564
 1.1020	71.3529
 1.1010	71.2765
 1.1000	71.2851
 1.0990	71.3803
 1.0980	71.2792
 1.0970	71.3419
 1.0960	71.2392
 1.0950	71.3371
 1.0940	71.2632
 1.0930	71.3832
 1.0920	71.3108
 1.0910	71.2731
 1.0900	71.2464
 1.0890	71.4359
 1.0880	71.3115
 1.0870	71.4021
 1.0860	71.2745
 1.0850	71.3323
 1.0840	71.3550
 1.0830	71.4376
 1.0820	71.2582
 1.0810	71.4472
 1.0800	71.3705
 1.0790	71.4955
 1.0780	71.2614
 1.0770	71.4134
 1.0760	71.3078
 1.0750	71.3566
 1.0740	71.3885
 1.0730	71.3099
 1.0720	71.3409
 1.0710	71.4919
 1.0700	71.4087
 1.0690	71.3719
 1.0680	71.3375
 1.0670	71.3013
 1.0660	71.3523
 1.0650	71.3554
 1.0640	71.3630
 1.0630	71.3741
 1.0620	71.3124
 1.0610	71.4230
 1.0600	71.2786
 1.0590	71.4697
 1.0580	71.3714
 1.0570	71.3388
 1.0560	71.2931
 1.0550	71.3500
 1.0540	71.3218
 1.0530	71.4018
 1.0520	71.4375
 1.0510	71.3291
 1.0500	71.3936
 1.0490	71.4797
 1.0480	71.3982
 1.0470	71.5007
 1.0460	71.4636
 1.0450	71.4366
 1.0440	71.3060
 1.0430	71.3069
 1.0420	71.3067
 1.0410	71.3830
 1.0400	71.3069
 1.0390	71.4510
 1.0380	71.3892
 1.0370	71.4582
 1.0360	71.3805
 1.0350	71.3162
 1.0340	71.3071
 1.0330	71.3829
 1.0320	71.3018
 1.0310	71.4414
 1.0300	71.4730
 1.0290	71.4304
 1.0280	71.3247
 1.0270	71.3963
 1.0260	71.4397
 1.0250	71.4230
 1.0240	71.3450
 1.0230	71.3004
 1.0220	71.3285
 1.0210	71.4211
 1.0200	71.3218
 1.0190	71.3724
 1.0180	71.4031
 1.0170	71.4103
 1.0160	71.3055
 1.0150	71.3401
 1.0140	71.2770
 1.0130	71.3747
 1.0120	71.3496
 1.0110	71.3584
 1.0100	71.2523
 1.0090	71.3241
 1.0080	71.3408
 1.0070	71.3531
 1.0060	71.3605
 1.0050	71.3077
 1.0040	71.3884
 1.0030	71.4313
 1.0020	71.3057
 1.0010	71.3611
 1.0000	71.3208
 0.9990	71.3135
 0.9980	71.3030
 0.9970	71.3332
 0.9960	71.3052
 0.9950	71.3152
 0.9940	71.2441
 0.9930	71.1553
 0.9920	71.2053
 0.9910	71.2153
 0.9900	71.1897
 0.9890	71.3468
 0.9880	71.3223
 0.9870	71.2759
 0.9860	71.1739
 0.9850	71.1089
 0.9840	71.1843
 0.9830	71.2326
 0.9820	71.2116
 0.9810	71.1062
 0.9800	71.0542
 0.9790	71.1525
 0.9780	71.1645
 0.9770	71.1221
 0.9760	71.0901
 0.9750	71.1215
 0.9740	71.1533
 0.9730	71.0761
 0.9720	71.0489
 0.9710	70.9686
 0.9700	70.9008
 0.9690	70.9661
 0.9680	70.9624
 0.9670	70.9997
 0.9660	71.0369
 0.9650	71.0674
 0.9640	71.0482
 0.9630	71.1072
 0.9620	71.0933
 0.9610	71.1088
 0.9600	71.1313
 0.9590	71.1837
 0.9580	71.1201
 0.9570	71.1436
 0.9560	71.1564
 0.9550	71.1914
 0.9540	71.2131
 0.9530	71.2251
 0.9520	71.2547
 0.9510	71.2184
 0.9500	71.2122
 0.9490	71.2476
 0.9480	71.2583
 0.9470	71.2776
 0.9460	71.2826
 0.9450	71.3054
 0.9440	71.3028
 0.9430	71.3122
 0.9420	71.2733
 0.9410	71.2653
 0.9400	71.3132
 0.9390	71.3550
 0.9380	71.3290
 0.9370	71.2901
 0.9360	71.2668
 0.9350	71.3374
 0.9340	71.3980
 0.9330	71.3133
 0.9320	71.2753
 0.9310	71.3372
 0.9300	71.3449
 0.9290	71.3121
 0.9280	71.2728
 0.9270	71.2907
 0.9260	71.3934
 0.9250	71.3872
 0.9240	71.3697
 0.9230	71.3665
 0.9220	71.3436
 0.9210	71.3517
 0.9200	71.2954
 0.9190	71.3323
 0.9180	71.3948
 0.9170	71.3706
 0.9160	71.4274
 0.9150	71.4362
 0.9140	71.4266
 0.9130	71.4335
 0.9120	71.4721
 0.9110	71.4446
 0.9100	71.4287
 0.9090	71.3881
 0.9080	71.4160
 0.9070	71.4805
 0.9060	71.4790
 0.9050	71.4210
 0.9040	71.4247
 0.9030	71.4735
 0.9020	71.4193
 0.9010	71.4290
 0.9000	71.4416
 0.8990	71.4693
 0.8980	71.4239
 0.8970	71.4016
 0.8960	71.4734
 0.8950	71.4695
 0.8940	71.4541
 0.8930	71.4514
 0.8920	71.4330
 0.8910	71.3944
 0.8900	71.4579
 0.8890	71.4911
 0.8880	71.4555
 0.8870	71.4562
 0.8860	71.4887
 0.8850	71.5168
 0.8840	71.4945
 0.8830	71.5438
 0.8820	71.5491
 0.8810	71.4850
 0.8800	71.5786
 0.8790	71.4951
 0.8780	71.5292
 0.8770	71.5118
 0.8760	71.5373
 0.8750	71.5417
 0.8740	71.5329
 0.8730	71.5329
 0.8720	71.5727
 0.8710	71.5975
 0.8700	71.6006
 0.8690	71.5897
 0.8680	71.6226
 0.8670	71.5634
 0.8660	71.6890
 0.8650	71.6342
 0.8640	71.7124
 0.8630	71.7189
 0.8620	71.7773
 0.8610	71.7623
 0.8600	71.9847
 0.8590	72.0571
 0.8580	72.0868
 0.8570	72.1858
 0.8560	72.1149
 0.8550	72.0912
 0.8540	72.1134
 0.8530	72.1597
 0.8520	72.1688
 0.8510	72.1965
 0.8500	72.1745
 0.8490	72.1741
 0.8480	72.2101
 0.8470	72.1568
 0.8460	72.2152
 0.8450	72.2385
 0.8440	72.2187
 0.8430	72.2243
 0.8420	72.2274
 0.8410	72.2087
 0.8400	72.2076
 0.8390	72.2120
 0.8380	72.2659
 0.8370	72.2455
 0.8360	72.2113
 0.8350	72.2631
 0.8340	72.3022
 0.8330	72.2511
 0.8320	72.2683
 0.8310	72.2880
 0.8300	72.2429
 0.8290	72.2402
 0.8280	72.2617
 0.8270	72.2237
 0.8260	72.3066
 0.8250	72.2602
 0.8240	72.2438
 0.8230	72.2725
 0.8220	72.2255
 0.8210	72.2469
 0.8200	72.2417
 0.8190	72.2413
 0.8180	72.2304
 0.8170	72.2220
 0.8160	72.2260
 0.8150	72.2068
 0.8140	72.2368
 0.8130	72.2138
 0.8120	72.1719
 0.8110	72.2102
 0.8100	72.2263
 0.8090	72.2026
 0.8080	72.2050
 0.8070	72.2208
 0.8060	72.1798
 0.8050	72.1706
 0.8040	72.1594
 0.8030	72.1725
 0.8020	72.1432
 0.8010	72.1234
 0.8000	72.1042
 0.7990	72.1052
 0.7980	72.0490
 0.7970	72.0273
 0.7960	72.0381
 0.7950	71.9694
 0.7940	71.9705
 0.7930	71.9537
 0.7920	71.9379
 0.7910	71.9453
 0.7900	71.9368
 0.7890	71.9014
 0.7880	71.9056
 0.7870	71.8749
 0.7860	71.8351
 0.7850	71.8604
 0.7840	71.8180
 0.7830	71.8013
 0.7820	71.7894
 0.7810	71.7549
 0.7800	71.7662
 0.7790	71.7074
 0.7780	71.7176
 0.7770	71.6726
 0.7760	71.5955
 0.7750	71.6318
 0.7740	71.6179
 0.7730	71.6147
 0.7720	71.6022
 0.7710	71.5737
 0.7700	71.5284
 0.7690	71.5188
 0.7680	71.4744
 0.7670	71.4597
 0.7660	71.4512
 0.7650	71.4025
 0.7640	71.4000
 0.7630	71.3844
 0.7620	71.3605
 0.7610	71.3089
 0.7600	71.3268
 0.7590	71.2831
 0.7580	71.2995
 0.7570	71.2722
 0.7560	71.2575
 0.7550	71.2166
 0.7540	71.2237
 0.7530	71.1687
 0.7520	71.1534
 0.7510	71.1021
 0.7500	71.1124
 0.7490	71.0811
 0.7480	71.0845
 0.7470	71.0608
 0.7460	71.0350
 0.7450	71.0049
 0.7440	70.9901
 0.7430	71.0070
 0.7420	70.9960
 0.7410	70.9727
 0.7400	70.9209
 0.7390	70.9078
 0.7380	70.8758
 0.7370	70.8635
 0.7360	70.8517
 0.7350	70.8508
 0.7340	70.8431
 0.7330	70.7913
 0.7320	70.7682
 0.7310	70.7765
 0.7300	70.7316
 0.7290	70.7212
 0.7280	70.7021
 0.7270	70.6912
 0.7260	70.6405
 0.7250	70.6471
 0.7240	70.6296
 0.7230	70.6330
 0.7220	70.6114
 0.7210	70.5508
 0.7200	70.5179
 0.7190	70.5253
 0.7180	70.5299
 0.7170	70.4870
 0.7160	70.4549
 0.7150	70.4357
 0.7140	70.4188
 0.7130	70.4034
 0.7120	70.4004
 0.7110	70.3627
 0.7100	70.3470
 0.7090	70.3029
 0.7080	70.2844
 0.7070	70.2636
 0.7060	70.2462
 0.7050	70.2244
 0.7040	70.2182
 0.7030	70.1644
 0.7020	70.1304
 0.7010	70.1177
 0.7000	70.1307
 0.6990	70.1043
 0.6980	70.0743
 0.6970	70.0417
 0.6960	70.0110
 0.6950	69.9989
 0.6940	69.9729
 0.6930	69.9485
 0.6920	69.9126
 0.6910	69.8878
 0.6900	69.8756
 0.6890	69.8671
 0.6880	69.8346
 0.6870	69.7957
 0.6860	69.7557
 0.6850	69.7315
 0.6840	69.7224
 0.6830	69.7049
 0.6820	69.6694
 0.6810	69.6404
 0.6800	69.5983
 0.6790	69.5755
 0.6780	69.5533
 0.6770	69.5309
 0.6760	69.5039
 0.6750	69.4838
 0.6740	69.4716
 0.6730	69.4437
 0.6720	69.4254
 0.6710	69.4072
 0.6700	69.3828
 0.6690	69.3519
 0.6680	69.3459
 0.6670	69.3454
 0.6660	69.2928
 0.6650	69.2651
 0.6640	69.2362
 0.6630	69.2127
 0.6620	69.1921
 0.6610	69.1637
 0.6600	69.1428
 0.6590	69.1208
 0.6580	69.1067
 0.6570	69.0928
 0.6560	69.0734
 0.6550	69.0558
 0.6540	69.0366
 0.6530	69.0111
 0.6520	68.9843
 0.6510	68.9573
 0.6500	68.9385
 0.6490	68.9263
 0.6480	68.9029
 0.6470	68.8917
 0.6460	68.8752
 0.6450	68.8533
 0.6440	68.8371
 0.6430	68.8190
 0.6420	68.8020
 0.6410	68.7887
 0.6400	68.7738
 0.6390	68.7678
 0.6380	68.7509
 0.6370	68.7477
 0.6360	68.7336
 0.6350	68.7174
 0.6340	68.7102
 0.6330	68.6888
 0.6320	68.6664
 0.6310	68.6467
 0.6300	68.6382
 0.6290	68.6322
 0.6280	68.6187
 0.6270	68.6100
 0.6260	68.6080
 0.6250	68.5954
 0.6240	68.5884
 0.6230	68.5775
 0.6220	68.5648
 0.6210	68.5594
 0.6200	68.5653
 0.6190	68.5610
 0.6180	68.5447
 0.6170	68.5411
 0.6160	68.5277
 0.6150	68.5279
 0.6140	68.5172
 0.6130	68.5072
 0.6120	68.4969
 0.6110	68.4837
 0.6100	68.4756
 0.6090	68.4784
 0.6080	68.4720
 0.6070	68.4618
 0.6060	68.4585
 0.6050	68.4612
 0.6040	68.4622
 0.6030	68.4569
 0.6020	68.4436
 0.6010	68.4291
 0.6000	68.4129
 0.5990	68.4125
 0.5980	68.4246
 0.5970	68.4325
 0.5960	68.4288
 0.5950	68.4399
 0.5940	68.4298
 0.5930	68.4148
 0.5920	68.3990
 0.5910	68.3875
 0.5900	68.3773
 0.5890	68.3618
 0.5880	68.3377
 0.5870	68.3251
 0.5860	68.3100
 0.5850	68.2900
 0.5840	68.2725
 0.5830	68.2515
 0.5820	68.2216
 0.5810	68.1885
 0.5800	68.1597
 0.5790	68.1116
 0.5780	68.0799
 0.5770	68.0350
 0.5760	68.0016
 0.5750	67.9743
 0.5740	67.9572
 0.5730	67.9361
 0.5720	67.9118
 0.5710	67.8864
 0.5700	67.8580
 0.5690	67.8270
 0.5680	67.7906
 0.5670	67.7421
 0.5660	67.7079
 0.5650	67.6546
 0.5640	67.6010
 0.5630	67.5526
 0.5620	67.5123
 0.5610	67.4706
 0.5600	67.3993
 0.5590	67.3384
 0.5580	67.2789
 0.5570	67.2107
 0.5560	67.1369
 0.5550	67.0563
 0.5540	66.9888
 0.5530	66.9181
 0.5520	66.8429
 0.5510	66.7615
 0.5500	66.6848
 0.5490	66.6076
 0.5480	66.5377
 0.5470	66.4494
 0.5460	66.3704
 0.5450	66.2901
 0.5440	66.2079
 0.5430	66.1269
 0.5420	66.0514
 0.5410	65.9484
 0.5400	65.8816
 0.5390	65.7883
 0.5380	65.7081
 0.5370	65.6086
 0.5360	65.5145
 0.5350	65.4120
 0.5340	65.3058
 0.5330	65.1973
 0.5320	65.0864
 0.5310	64.9693
 0.5300	64.8431
 0.5290	64.7385
 0.5280	64.6160
 0.5270	64.4972
 0.5260	64.3510
 0.5250	64.2114
 0.5240	64.0900
 0.5230	63.9720
 0.5220	63.8528
 0.5210	63.7335
 0.5200	63.6060
 0.5190	63.4912
 0.5180	63.3834
 0.5170	63.2956
 0.5160	63.1850
 0.5150	63.0874
 0.5140	62.9940
 0.5130	62.8821
 0.5120	62.7735
 0.5110	62.6830
 0.5100	62.5781
 0.5090	62.4818
 0.5080	62.3851
 0.5070	62.2980
 0.5060	62.1816
 0.5050	62.0884
 0.5040	61.9767
 0.5030	61.8765
 0.5020	61.7968
 0.5010	61.6846
 0.5000	61.6002
 0.4990	61.5040
 0.4980	61.4014
 0.4970	61.3340
 0.4960	61.2385
 0.4950	61.1603
 0.4940	61.0767
 0.4930	60.9667
 0.4920	60.9056
 0.4910	60.8434
 0.4900	60.7403
 0.4890	60.6684
 0.4880	60.5579
 0.4870	60.4856
 0.4860	60.4069
 0.4850	60.2839
 0.4840	60.1949
 0.4830	60.0969
 0.4820	59.9920
 0.4810	59.8798
 0.4800	59.7802
 0.4790	59.6713
 0.4780	59.5628
 0.4770	59.4447
 0.4760	59.3201
 0.4750	59.2507
 0.4740	59.1269
 0.4730	59.0066
 0.4720	58.8969
 0.4710	58.7924
 0.4700	58.6747
 0.4690	58.5555
 0.4680	58.4382
 0.4670	58.3302
 0.4660	58.1950
 0.4650	58.0628
 0.4640	57.9539
 0.4630	57.8288
 0.4620	57.7073
 0.4610	57.5624
 0.4600	57.4133
 0.4590	57.2799
 0.4580	57.1374
 0.4570	56.9941
 0.4560	56.8225
 0.4550	56.6592
 0.4540	56.4779
 0.4530	56.3135
 0.4520	56.1398
 0.4510	55.9729
 0.4500	55.7757
 0.4490	55.5976
 0.4480	55.4365
 0.4470	55.2443
 0.4460	55.0712
 0.4450	54.8992
 0.4440	54.7353
 0.4430	54.5718
 0.4420	54.3989
 0.4410	54.2227
 0.4400	54.0584
 0.4390	53.8958
 0.4380	53.7443
 0.4370	53.5711
 0.4360	53.4088
 0.4350	53.2626
 0.4340	53.1196
 0.4330	52.9574
 0.4320	52.7896
 0.4310	52.6255
 0.4300	52.4556
 0.4290	52.3019
 0.4280	52.1226
 0.4270	51.9710
 0.4260	51.8032
 0.4250	51.6272
 0.4240	51.4656
 0.4230	51.2905
 0.4220	51.1039
 0.4210	50.9143
 0.4200	50.7255
 0.4190	50.5235
 0.4180	50.3093
 0.4170	50.1111
 0.4160	49.8906
 0.4150	49.6749
 0.4140	49.4665
 0.4130	49.2488
 0.4120	49.0214
 0.4110	48.7904
 0.4100	48.5931
 0.4090	48.3754
 0.4080	48.1382
 0.4070	47.9037
 0.4060	47.6868
 0.4050	47.4490
 0.4040	47.2103
 0.4030	46.9797
 0.4020	46.7387
 0.4010	46.5040
 0.4000	46.2955
