Name: Witherite BaCO_3
Type: Mineral
Class: Carbonate
Subclass: None
Particle Size: Medium
Sample No.: C-2A
Owner: JPL
Wavelength Range: VSWIR
Origin: United Kingdom, England
Collection Date: N/A
Description: Particle size was 45-125um.Collected by Grieger's Inc. Original ASTER Spectral Library name was jpl.beckman.mineral.carbonate.none.medium.c02a.spectrum.txt
Measurement: Hemispherical reflectance
First Column: X
Second Column: Y
X Units: Wavelength (micrometers)
Y Units:Reflectance (percent)
First X Value:  0.4000
Last X Value:  2.5000
Number of X Values: 826
Additional Information: mineral.carbonate.none.medium.vswir.c-2a.jpl.beckman.ancillary.txt

 0.4000	70.9200
 0.4010	71.2100
 0.4020	71.2100
 0.4030	71.2100
 0.4040	71.5000
 0.4050	71.6600
 0.4060	71.8400
 0.4070	72.0100
 0.4080	71.9500
 0.4090	72.3000
 0.4100	72.6400
 0.4110	72.6400
 0.4120	72.6400
 0.4130	72.6400
 0.4140	72.6400
 0.4150	72.8700
 0.4160	72.9900
 0.4170	73.0900
 0.4180	72.9300
 0.4190	73.0900
 0.4200	73.3200
 0.4210	73.5000
 0.4220	73.6100
 0.4230	73.4400
 0.4240	73.6100
 0.4250	73.7300
 0.4260	73.9000
 0.4270	74.0700
 0.4280	73.8400
 0.4290	74.0100
 0.4300	74.1900
 0.4310	74.3000
 0.4320	74.5200
 0.4330	74.4700
 0.4340	74.5800
 0.4350	74.5800
 0.4360	74.8100
 0.4370	74.9800
 0.4380	75.1000
 0.4390	75.1000
 0.4400	74.9800
 0.4410	75.1600
 0.4420	75.3900
 0.4430	75.5000
 0.4440	75.5000
 0.4450	75.3900
 0.4460	75.5000
 0.4470	75.7900
 0.4480	75.8500
 0.4490	75.9500
 0.4500	75.7900
 0.4510	75.9000
 0.4520	76.0700
 0.4530	76.3100
 0.4540	76.3100
 0.4550	76.3100
 0.4560	76.1900
 0.4570	76.2500
 0.4580	76.4900
 0.4590	76.7100
 0.4600	76.7100
 0.4610	76.6100
 0.4620	76.8300
 0.4630	76.9500
 0.4640	77.1800
 0.4650	77.1800
 0.4660	77.0100
 0.4670	77.0100
 0.4680	77.0800
 0.4690	77.3700
 0.4700	77.5300
 0.4710	77.4800
 0.4720	77.5300
 0.4730	77.5400
 0.4740	77.7700
 0.4750	78.0000
 0.4760	78.0000
 0.4770	78.0000
 0.4780	77.8400
 0.4790	78.0100
 0.4800	78.2400
 0.4810	78.4600
 0.4820	78.3500
 0.4830	78.1200
 0.4840	78.3000
 0.4850	78.4700
 0.4860	78.7000
 0.4870	78.6400
 0.4880	78.5900
 0.4890	78.5400
 0.4900	78.7100
 0.4910	78.8800
 0.4920	78.9400
 0.4930	79.0100
 0.4940	79.0100
 0.4950	78.9500
 0.4960	79.1100
 0.4970	79.4000
 0.4980	79.4100
 0.4990	79.4100
 0.5000	79.3500
 0.5010	79.4100
 0.5020	79.7000
 0.5030	79.7600
 0.5040	79.7600
 0.5050	79.6400
 0.5060	79.7000
 0.5070	79.8100
 0.5080	79.9900
 0.5090	80.1000
 0.5100	80.0400
 0.5110	80.0400
 0.5120	80.1000
 0.5130	80.3800
 0.5140	80.5000
 0.5150	80.3800
 0.5160	80.3300
 0.5170	80.3800
 0.5180	80.5500
 0.5190	80.7800
 0.5200	80.6100
 0.5210	80.6700
 0.5220	80.6700
 0.5230	80.7300
 0.5240	80.9600
 0.5250	80.8400
 0.5260	80.7800
 0.5270	80.7800
 0.5280	80.9600
 0.5290	81.1300
 0.5300	81.1300
 0.5310	81.1900
 0.5320	80.9000
 0.5330	80.9600
 0.5340	81.1300
 0.5350	81.1900
 0.5360	81.1900
 0.5370	81.0100
 0.5380	81.0100
 0.5390	81.1900
 0.5400	81.5300
 0.5410	81.4200
 0.5420	81.3000
 0.5430	81.2400
 0.5440	81.3000
 0.5450	81.4800
 0.5460	81.5300
 0.5470	81.3000
 0.5480	81.4200
 0.5490	81.5300
 0.5500	81.7600
 0.5510	81.8800
 0.5520	81.8200
 0.5530	81.7600
 0.5540	81.8200
 0.5550	82.0400
 0.5560	82.2100
 0.5570	82.1600
 0.5580	81.9900
 0.5590	81.8200
 0.5600	82.1600
 0.5610	82.2100
 0.5620	82.2100
 0.5630	82.4400
 0.5640	82.4400
 0.5650	82.3900
 0.5660	82.1000
 0.5670	82.2700
 0.5680	82.4400
 0.5690	82.5000
 0.5700	82.3900
 0.5710	82.1600
 0.5720	82.1600
 0.5730	82.3300
 0.5740	82.3300
 0.5750	82.1600
 0.5760	82.0400
 0.5770	82.1000
 0.5780	82.2100
 0.5790	82.4400
 0.5800	82.4400
 0.5810	82.2100
 0.5820	82.1600
 0.5830	82.3300
 0.5840	82.5000
 0.5850	82.4400
 0.5860	82.4400
 0.5870	82.3900
 0.5880	82.3900
 0.5890	82.6200
 0.5900	82.7300
 0.5910	82.5600
 0.5920	82.4400
 0.5930	82.6200
 0.5940	82.7300
 0.5950	82.9100
 0.5960	82.9100
 0.5970	82.7900
 0.5980	82.6700
 0.5990	82.9100
 0.6000	83.0200
 0.6010	83.0800
 0.6020	82.9600
 0.6030	82.9100
 0.6040	82.8500
 0.6050	83.0800
 0.6060	83.0800
 0.6070	83.0800
 0.6080	82.9100
 0.6090	82.7900
 0.6100	83.1400
 0.6110	83.1900
 0.6120	83.1400
 0.6130	83.0200
 0.6140	83.0800
 0.6150	83.0200
 0.6160	83.1900
 0.6170	83.3700
 0.6180	83.1400
 0.6190	82.9100
 0.6200	83.0200
 0.6210	83.1400
 0.6220	83.3100
 0.6230	83.3700
 0.6240	83.1900
 0.6250	83.1900
 0.6260	83.1900
 0.6270	83.4200
 0.6280	83.3700
 0.6290	83.3100
 0.6300	83.1900
 0.6310	83.3700
 0.6320	83.6000
 0.6330	83.5400
 0.6340	83.5400
 0.6350	83.4800
 0.6360	83.4200
 0.6370	83.7000
 0.6380	83.7000
 0.6390	83.6500
 0.6400	83.4800
 0.6410	83.4200
 0.6420	83.6000
 0.6430	83.8200
 0.6440	83.8200
 0.6450	83.7000
 0.6460	83.5400
 0.6470	83.4800
 0.6480	83.7000
 0.6490	83.9300
 0.6500	83.9300
 0.6510	83.7600
 0.6520	83.7600
 0.6530	83.9300
 0.6540	84.1000
 0.6550	84.1000
 0.6560	84.1000
 0.6570	83.8700
 0.6580	83.8700
 0.6590	84.0500
 0.6600	84.2800
 0.6610	84.2200
 0.6620	84.0500
 0.6630	84.1000
 0.6640	84.1600
 0.6650	84.3400
 0.6660	84.5700
 0.6670	84.3400
 0.6680	84.2800
 0.6690	84.2800
 0.6700	84.3400
 0.6710	84.5100
 0.6720	84.5100
 0.6730	84.5100
 0.6740	84.3400
 0.6750	84.3900
 0.6760	84.5700
 0.6770	84.7400
 0.6780	84.7400
 0.6790	84.5700
 0.6800	84.6200
 0.6810	84.7400
 0.6820	84.8500
 0.6830	84.8000
 0.6840	84.7400
 0.6850	84.6200
 0.6860	84.7400
 0.6870	84.8500
 0.6880	84.9100
 0.6890	84.9100
 0.6900	84.8000
 0.6910	84.7400
 0.6920	84.9100
 0.6930	85.1400
 0.6940	85.0800
 0.6950	85.0300
 0.6960	84.8000
 0.6970	84.9700
 0.6980	85.1400
 0.6990	85.1400
 0.7000	84.9700
 0.7010	85.0800
 0.7020	85.0300
 0.7030	85.0800
 0.7040	85.0300
 0.7050	85.2000
 0.7060	85.2600
 0.7070	85.3600
 0.7080	85.2600
 0.7090	85.2600
 0.7100	85.3100
 0.7110	85.4200
 0.7120	85.7100
 0.7130	85.5300
 0.7140	85.4800
 0.7150	85.5300
 0.7160	85.7100
 0.7170	85.8200
 0.7180	85.8200
 0.7190	85.6500
 0.7200	85.5900
 0.7210	85.7700
 0.7220	85.8200
 0.7230	85.7700
 0.7240	85.7700
 0.7250	85.6500
 0.7260	85.6500
 0.7270	85.7700
 0.7280	85.8200
 0.7290	85.8800
 0.7300	85.7700
 0.7310	85.7700
 0.7320	85.8800
 0.7330	86.0000
 0.7340	86.1100
 0.7350	86.0000
 0.7360	85.9400
 0.7370	85.8800
 0.7380	86.0000
 0.7390	86.1700
 0.7400	86.1100
 0.7410	85.9400
 0.7420	85.8800
 0.7430	85.9400
 0.7440	86.1700
 0.7450	86.2300
 0.7460	86.0000
 0.7470	86.0000
 0.7480	86.0000
 0.7490	86.1700
 0.7500	86.3400
 0.7510	86.1100
 0.7520	86.0500
 0.7530	86.1100
 0.7540	86.2300
 0.7550	86.4000
 0.7560	86.3400
 0.7570	86.2300
 0.7580	86.1100
 0.7590	86.2300
 0.7600	86.3400
 0.7610	86.5700
 0.7620	86.3400
 0.7630	86.2800
 0.7640	86.3400
 0.7650	86.4600
 0.7660	86.6300
 0.7670	86.5700
 0.7680	86.3400
 0.7690	86.3400
 0.7700	86.4600
 0.7710	86.6300
 0.7720	86.5700
 0.7730	86.4600
 0.7740	86.3400
 0.7750	86.4600
 0.7760	86.6300
 0.7770	86.8000
 0.7780	86.5700
 0.7790	86.4000
 0.7800	86.4600
 0.7810	86.5700
 0.7820	86.7400
 0.7830	86.7400
 0.7840	86.5100
 0.7850	86.5100
 0.7860	86.6300
 0.7870	86.8600
 0.7880	87.0800
 0.7890	86.8000
 0.7900	86.7400
 0.7910	86.8600
 0.7920	86.9200
 0.7930	87.0800
 0.7940	87.0200
 0.7950	86.8600
 0.7960	86.9700
 0.7970	86.9700
 0.7980	87.2500
 0.7990	86.9700
 0.8000	86.9700
 0.8040	86.9700
 0.8080	86.8000
 0.8120	86.8600
 0.8160	87.0200
 0.8200	87.0200
 0.8240	87.0200
 0.8280	87.0200
 0.8320	87.1400
 0.8360	87.1400
 0.8400	87.1400
 0.8440	87.3100
 0.8480	87.3100
 0.8520	87.2000
 0.8560	87.4300
 0.8600	87.3100
 0.8640	87.3100
 0.8680	87.3100
 0.8720	87.2500
 0.8760	87.3100
 0.8800	87.3700
 0.8840	87.3100
 0.8880	87.3100
 0.8920	87.3700
 0.8960	87.3700
 0.9000	87.2500
 0.9040	87.3100
 0.9080	87.3700
 0.9120	87.3100
 0.9160	87.4300
 0.9200	87.3700
 0.9240	87.5400
 0.9280	87.4300
 0.9320	87.4300
 0.9360	87.5400
 0.9400	87.4800
 0.9440	87.4800
 0.9480	87.4300
 0.9520	87.7700
 0.9560	87.4300
 0.9600	87.4300
 0.9640	87.6600
 0.9680	87.4800
 0.9720	87.5400
 0.9760	87.4800
 0.9800	87.6600
 0.9840	87.5400
 0.9880	87.6000
 0.9920	87.6000
 0.9960	87.6000
 1.0000	87.6000
 1.0040	87.7100
 1.0080	87.5400
 1.0120	87.7100
 1.0160	87.6600
 1.0200	87.5400
 1.0240	87.5400
 1.0280	87.7100
 1.0320	87.7100
 1.0360	87.6600
 1.0400	87.8900
 1.0440	87.8300
 1.0480	87.6600
 1.0520	87.7700
 1.0560	87.7700
 1.0600	87.7700
 1.0640	87.6600
 1.0680	87.7700
 1.0720	87.8300
 1.0760	87.7700
 1.0800	87.8900
 1.0840	87.8300
 1.0880	87.8900
 1.0920	87.8900
 1.0960	87.8900
 1.1000	87.8300
 1.1040	87.7700
 1.1080	87.8300
 1.1120	87.8900
 1.1160	87.8300
 1.1200	87.9400
 1.1240	88.0000
 1.1280	88.0000
 1.1320	87.7100
 1.1360	87.8300
 1.1400	87.8900
 1.1440	87.8300
 1.1480	87.7700
 1.1520	87.8900
 1.1560	87.9300
 1.1600	87.8100
 1.1640	87.9100
 1.1680	87.8500
 1.1720	87.9000
 1.1760	87.7300
 1.1800	87.8400
 1.1840	88.0000
 1.1880	87.8200
 1.1920	87.9900
 1.1960	87.9200
 1.2000	87.8000
 1.2040	87.8500
 1.2080	87.9100
 1.2120	87.9100
 1.2160	87.7400
 1.2200	87.8500
 1.2240	87.7400
 1.2280	87.8000
 1.2320	87.8500
 1.2360	87.8000
 1.2400	87.8500
 1.2440	87.9100
 1.2480	87.9700
 1.2520	87.9700
 1.2560	87.8400
 1.2600	87.9500
 1.2640	87.8800
 1.2680	87.7700
 1.2720	87.8700
 1.2760	87.8100
 1.2800	87.9800
 1.2840	87.9100
 1.2880	87.9600
 1.2920	88.0100
 1.2960	87.8300
 1.3000	87.9400
 1.3040	87.9300
 1.3080	87.8600
 1.3120	87.8600
 1.3160	87.9600
 1.3200	87.9100
 1.3240	87.7800
 1.3280	87.8300
 1.3320	87.7700
 1.3360	87.7600
 1.3400	87.8700
 1.3440	87.8000
 1.3480	87.7900
 1.3520	87.8500
 1.3560	87.9000
 1.3600	87.9600
 1.3640	87.8500
 1.3680	87.9000
 1.3720	87.9600
 1.3760	87.8500
 1.3800	87.8500
 1.3840	87.8500
 1.3880	87.7300
 1.3920	87.5600
 1.3960	87.7300
 1.4000	87.7900
 1.4040	87.8000
 1.4080	87.6900
 1.4120	87.6400
 1.4160	87.6500
 1.4200	87.7100
 1.4240	87.5500
 1.4280	87.6200
 1.4320	87.7300
 1.4360	87.5700
 1.4400	87.6900
 1.4440	87.7000
 1.4480	87.6500
 1.4520	87.5900
 1.4560	87.6500
 1.4600	87.7600
 1.4640	87.6500
 1.4680	87.8200
 1.4720	87.7600
 1.4760	87.7600
 1.4800	87.8800
 1.4840	87.8200
 1.4880	87.9400
 1.4920	87.8800
 1.4960	87.8800
 1.5000	87.9900
 1.5040	87.9900
 1.5080	87.9400
 1.5120	87.9900
 1.5160	88.1700
 1.5200	88.0500
 1.5240	88.0500
 1.5280	88.1100
 1.5320	88.1700
 1.5360	88.0500
 1.5400	88.1700
 1.5440	88.2300
 1.5480	88.1100
 1.5520	88.1100
 1.5560	88.1100
 1.5600	88.2300
 1.5640	88.1100
 1.5680	88.1100
 1.5720	88.1700
 1.5760	88.1100
 1.5800	87.9900
 1.5840	88.1100
 1.5880	88.0500
 1.5920	87.9400
 1.5960	88.0500
 1.6000	87.9900
 1.6040	87.9800
 1.6080	88.0300
 1.6120	87.9700
 1.6160	88.3100
 1.6200	88.0700
 1.6240	88.1200
 1.6280	88.1200
 1.6320	88.1200
 1.6360	88.1700
 1.6400	88.2100
 1.6440	88.2000
 1.6480	88.0800
 1.6520	88.1400
 1.6560	88.2400
 1.6600	88.1200
 1.6640	88.1100
 1.6680	88.1000
 1.6720	88.0400
 1.6760	87.9800
 1.6800	87.9100
 1.6840	87.8400
 1.6880	87.8300
 1.6920	87.9500
 1.6960	88.0600
 1.7000	88.0500
 1.7040	88.1600
 1.7080	88.1600
 1.7120	88.2800
 1.7160	87.9300
 1.7200	87.9900
 1.7240	87.9300
 1.7280	87.8100
 1.7320	87.8700
 1.7360	87.7600
 1.7400	87.5900
 1.7440	87.4800
 1.7480	87.4200
 1.7520	87.3600
 1.7560	87.3600
 1.7600	87.4800
 1.7640	87.4200
 1.7680	87.3100
 1.7720	87.4800
 1.7760	87.5400
 1.7800	87.4200
 1.7840	87.3100
 1.7880	87.2500
 1.7920	87.4200
 1.7960	87.5400
 1.8000	87.7600
 1.8040	87.9100
 1.8080	88.0500
 1.8120	87.9600
 1.8160	88.0400
 1.8200	88.0800
 1.8240	87.9300
 1.8280	87.9600
 1.8320	87.8700
 1.8360	87.8400
 1.8400	87.6500
 1.8440	87.5600
 1.8480	87.4300
 1.8520	87.1200
 1.8560	87.0000
 1.8600	86.7100
 1.8640	86.4800
 1.8680	86.1800
 1.8720	86.0000
 1.8760	85.6600
 1.8800	85.5300
 1.8840	85.1300
 1.8880	84.7300
 1.8920	84.2100
 1.8960	83.6900
 1.9000	83.1100
 1.9040	82.7100
 1.9080	82.3700
 1.9120	82.4200
 1.9160	82.7000
 1.9200	83.0300
 1.9240	83.6400
 1.9280	84.1500
 1.9320	84.6000
 1.9360	85.0400
 1.9400	85.2000
 1.9440	85.3100
 1.9480	85.4700
 1.9520	85.6300
 1.9560	85.8300
 1.9600	85.7600
 1.9640	85.9700
 1.9680	85.9400
 1.9720	85.9900
 1.9760	86.1300
 1.9800	85.9900
 1.9840	85.8700
 1.9880	85.7800
 1.9920	85.7000
 1.9960	85.5100
 2.0000	85.2100
 2.0040	85.2600
 2.0080	85.0100
 2.0120	84.7900
 2.0160	84.5900
 2.0200	84.1100
 2.0240	83.6400
 2.0280	83.4000
 2.0320	83.0200
 2.0360	82.8100
 2.0400	82.8900
 2.0440	83.3800
 2.0480	84.0400
 2.0520	84.5600
 2.0560	85.3600
 2.0600	86.2200
 2.0640	86.6400
 2.0680	87.0500
 2.0720	87.2400
 2.0760	87.3700
 2.0800	87.4900
 2.0840	87.5700
 2.0880	87.5400
 2.0920	87.7200
 2.0960	87.8000
 2.1000	87.8800
 2.1040	87.7200
 2.1080	88.0200
 2.1120	88.0500
 2.1160	87.8400
 2.1200	88.0200
 2.1240	87.7800
 2.1280	87.7100
 2.1320	87.5700
 2.1360	87.3500
 2.1400	87.0700
 2.1440	86.7700
 2.1480	86.6400
 2.1520	86.4100
 2.1560	86.3200
 2.1600	86.1700
 2.1640	86.0500
 2.1680	85.8200
 2.1720	85.3700
 2.1760	84.9200
 2.1800	84.4600
 2.1840	83.7500
 2.1880	83.1400
 2.1920	82.5300
 2.1960	82.1500
 2.2000	81.9400
 2.2040	81.9900
 2.2080	82.2700
 2.2120	82.6300
 2.2160	83.1200
 2.2200	83.6600
 2.2240	83.8800
 2.2280	84.1600
 2.2320	84.2600
 2.2360	84.0600
 2.2400	83.7400
 2.2440	83.6200
 2.2480	83.2300
 2.2520	82.6500
 2.2560	82.2800
 2.2600	81.8600
 2.2640	81.2300
 2.2680	81.0100
 2.2720	80.3800
 2.2760	79.7200
 2.2800	79.0700
 2.2840	78.5300
 2.2880	77.8300
 2.2920	76.9400
 2.2960	76.2600
 2.3000	75.4700
 2.3040	74.4300
 2.3080	73.5100
 2.3120	72.8100
 2.3160	71.9900
 2.3200	71.2400
 2.3240	70.5700
 2.3280	69.9500
 2.3320	69.4400
 2.3360	68.7800
 2.3400	68.3800
 2.3440	67.7900
 2.3480	66.9900
 2.3520	66.3500
 2.3560	65.1100
 2.3600	63.8000
 2.3640	62.3800
 2.3680	60.9100
 2.3720	59.7900
 2.3760	58.9600
 2.3800	58.7900
 2.3840	59.2200
 2.3880	60.1400
 2.3920	61.7300
 2.3960	63.5000
 2.4000	65.5500
 2.4040	67.7600
 2.4080	69.8600
 2.4120	71.8600
 2.4160	73.4500
 2.4200	74.7700
 2.4240	75.8700
 2.4280	76.5900
 2.4320	77.1900
 2.4360	77.5800
 2.4400	77.6700
 2.4440	77.8900
 2.4480	77.9400
 2.4520	77.7700
 2.4560	77.5400
 2.4600	77.4800
 2.4640	77.0300
 2.4680	76.6400
 2.4720	76.1400
 2.4760	75.5700
 2.4800	74.8400
 2.4840	73.9500
 2.4880	73.1200
 2.4920	72.0100
 2.4960	70.8900
 2.5000	71.0000
