Name: Sulphur S
Type: Mineral
Class: Element
Subclass: None
Particle Size: Medium
Sample No.: E-2A
Owner: JPL
Wavelength Range: VSWIR
Origin: None.
Collection Date: N/A
Description: Particle size was 45-125um.Collected by:  JPL Original ASTER Spectral Library name was jpl.perkin.mineral.element.none.medium.e02a.spectrum.txt
Measurement: Hemispherical reflectance
First Column: X
Second Column: Y
X Units: Wavelength (micrometers)
Y Units:Reflectance (percent)
First X Value:  2.5000
Last X Value:  0.4000
Number of X Values: 2101
Additional Information: mineral.element.none.medium.vswir.e-2a.jpl.perkin.ancillary.txt

 2.5000	88.4685
 2.4990	88.7163
 2.4980	88.5444
 2.4970	88.4408
 2.4960	88.6025
 2.4950	88.4733
 2.4940	88.3794
 2.4930	88.5433
 2.4920	88.2824
 2.4910	88.5137
 2.4900	88.2845
 2.4890	88.3458
 2.4880	88.3780
 2.4870	88.4517
 2.4860	88.4866
 2.4850	88.4038
 2.4840	88.4466
 2.4830	88.3314
 2.4820	88.3941
 2.4810	88.4422
 2.4800	88.3025
 2.4790	88.4114
 2.4780	88.4010
 2.4770	88.4898
 2.4760	88.4892
 2.4750	88.3959
 2.4740	88.4415
 2.4730	88.5170
 2.4720	88.3910
 2.4710	88.5558
 2.4700	88.5788
 2.4690	88.3863
 2.4680	88.5638
 2.4670	88.5022
 2.4660	88.5495
 2.4650	88.6333
 2.4640	88.4456
 2.4630	88.5627
 2.4620	88.7043
 2.4610	88.7004
 2.4600	88.6722
 2.4590	88.5734
 2.4580	88.6137
 2.4570	88.6695
 2.4560	88.6770
 2.4550	88.8374
 2.4540	88.7556
 2.4530	88.8763
 2.4520	88.6056
 2.4510	88.7148
 2.4500	88.8090
 2.4490	88.8247
 2.4480	88.8842
 2.4470	88.8377
 2.4460	88.7331
 2.4450	88.7675
 2.4440	88.8001
 2.4430	88.8690
 2.4420	88.7563
 2.4410	88.9589
 2.4400	88.9389
 2.4390	88.8564
 2.4380	88.8337
 2.4370	88.8870
 2.4360	88.9566
 2.4350	89.0271
 2.4340	89.0569
 2.4330	88.9678
 2.4320	89.0044
 2.4310	89.0953
 2.4300	88.9730
 2.4290	89.1125
 2.4280	89.2147
 2.4270	88.9891
 2.4260	89.0634
 2.4250	89.0315
 2.4240	89.0195
 2.4230	89.1491
 2.4220	89.0682
 2.4210	89.0556
 2.4200	89.1220
 2.4190	89.0934
 2.4180	89.1318
 2.4170	89.0886
 2.4160	88.9985
 2.4150	89.0919
 2.4140	89.2564
 2.4130	89.3315
 2.4120	89.3087
 2.4110	89.2944
 2.4100	89.1768
 2.4090	89.2265
 2.4080	89.2457
 2.4070	89.2358
 2.4060	89.1319
 2.4050	89.2554
 2.4040	89.2234
 2.4030	89.2355
 2.4020	89.3766
 2.4010	89.2651
 2.4000	89.2361
 2.3990	89.2970
 2.3980	89.3406
 2.3970	89.3283
 2.3960	89.2720
 2.3950	89.3519
 2.3940	89.3899
 2.3930	89.3806
 2.3920	89.4186
 2.3910	89.4482
 2.3900	89.5316
 2.3890	89.4528
 2.3880	89.3579
 2.3870	89.4141
 2.3860	89.5800
 2.3850	89.6472
 2.3840	89.5809
 2.3830	89.5572
 2.3820	89.5534
 2.3810	89.6001
 2.3800	89.6489
 2.3790	89.6869
 2.3780	89.6544
 2.3770	89.5848
 2.3760	89.6852
 2.3750	89.7309
 2.3740	89.6633
 2.3730	89.7096
 2.3720	89.7738
 2.3710	89.7299
 2.3700	89.7001
 2.3690	89.8008
 2.3680	89.8343
 2.3670	89.8295
 2.3660	89.8904
 2.3650	89.8805
 2.3640	89.8496
 2.3630	89.8381
 2.3620	89.8484
 2.3610	89.8344
 2.3600	89.7937
 2.3590	89.9095
 2.3580	89.9669
 2.3570	89.9114
 2.3560	89.9097
 2.3550	89.9037
 2.3540	89.9516
 2.3530	89.9550
 2.3520	89.8498
 2.3510	89.8682
 2.3500	89.9911
 2.3490	90.0362
 2.3480	89.9868
 2.3470	89.9942
 2.3460	90.0066
 2.3450	89.9910
 2.3440	89.9811
 2.3430	90.0153
 2.3420	90.0336
 2.3410	90.0045
 2.3400	90.0129
 2.3390	89.9873
 2.3380	89.9867
 2.3370	90.0174
 2.3360	89.9909
 2.3350	90.0095
 2.3340	90.0275
 2.3330	89.9782
 2.3320	89.9600
 2.3310	89.9394
 2.3300	89.9550
 2.3290	89.9615
 2.3280	89.9253
 2.3270	89.9432
 2.3260	89.9742
 2.3250	89.9194
 2.3240	89.9222
 2.3230	89.8906
 2.3220	89.9728
 2.3210	89.9707
 2.3200	89.9170
 2.3190	89.8921
 2.3180	89.9035
 2.3170	89.9410
 2.3160	89.9207
 2.3150	89.8743
 2.3140	89.8581
 2.3130	89.9240
 2.3120	89.8898
 2.3110	89.8889
 2.3100	89.8527
 2.3090	89.8467
 2.3080	89.8774
 2.3070	89.8864
 2.3060	89.8383
 2.3050	89.8253
 2.3040	89.8565
 2.3030	89.8303
 2.3020	89.8433
 2.3010	89.8633
 2.3000	89.8859
 2.2990	89.8495
 2.2980	89.8332
 2.2970	89.9177
 2.2960	89.8786
 2.2950	89.8393
 2.2940	89.8984
 2.2930	89.9433
 2.2920	89.9454
 2.2910	89.8807
 2.2900	89.9103
 2.2890	89.8693
 2.2880	89.8357
 2.2870	89.8756
 2.2860	89.8737
 2.2850	89.8392
 2.2840	89.8637
 2.2830	89.9108
 2.2820	89.8161
 2.2810	89.7967
 2.2800	89.8568
 2.2790	89.8363
 2.2780	89.8639
 2.2770	89.8971
 2.2760	89.8495
 2.2750	89.8291
 2.2740	89.8460
 2.2730	89.7722
 2.2720	89.7861
 2.2710	89.9154
 2.2700	89.8483
 2.2690	89.8761
 2.2680	89.8057
 2.2670	89.8802
 2.2660	89.8605
 2.2650	89.8155
 2.2640	89.8505
 2.2630	89.8571
 2.2620	89.8571
 2.2610	89.8736
 2.2600	89.8737
 2.2590	89.8128
 2.2580	89.8293
 2.2570	89.8451
 2.2560	89.8748
 2.2550	89.9251
 2.2540	89.8519
 2.2530	89.8674
 2.2520	89.7966
 2.2510	89.9266
 2.2500	89.9108
 2.2490	89.8626
 2.2480	89.8238
 2.2470	89.8445
 2.2460	89.8432
 2.2450	89.9563
 2.2440	89.7887
 2.2430	89.9169
 2.2420	89.8680
 2.2410	89.8398
 2.2400	89.9235
 2.2390	89.9090
 2.2380	89.9450
 2.2370	89.9674
 2.2360	89.9215
 2.2350	89.9901
 2.2340	89.9047
 2.2330	90.0009
 2.2320	89.9353
 2.2310	89.9362
 2.2300	89.8671
 2.2290	90.0169
 2.2280	89.9933
 2.2270	89.9740
 2.2260	90.0286
 2.2250	89.9269
 2.2240	89.9908
 2.2230	90.1004
 2.2220	90.0469
 2.2210	90.0963
 2.2200	90.0901
 2.2190	90.0363
 2.2180	89.9824
 2.2170	90.1500
 2.2160	90.1409
 2.2150	90.0529
 2.2140	90.1096
 2.2130	90.1374
 2.2120	90.3008
 2.2110	90.1711
 2.2100	90.1513
 2.2090	90.2752
 2.2080	90.1927
 2.2070	90.2899
 2.2060	90.3253
 2.2050	90.3448
 2.2040	90.4175
 2.2030	90.4155
 2.2020	90.3317
 2.2010	90.4681
 2.2000	90.4678
 2.1990	90.5304
 2.1980	90.4831
 2.1970	90.4583
 2.1960	90.4968
 2.1950	90.5437
 2.1940	90.6167
 2.1930	90.6226
 2.1920	90.6507
 2.1910	90.6546
 2.1900	90.5473
 2.1890	90.6174
 2.1880	90.5443
 2.1870	90.6531
 2.1860	90.5932
 2.1850	90.5597
 2.1840	90.5357
 2.1830	90.6483
 2.1820	90.7199
 2.1810	90.7178
 2.1800	90.7338
 2.1790	90.7512
 2.1780	90.7753
 2.1770	90.7918
 2.1760	90.7978
 2.1750	90.7835
 2.1740	90.8106
 2.1730	90.8828
 2.1720	90.9167
 2.1710	90.9285
 2.1700	90.9583
 2.1690	91.0581
 2.1680	91.0588
 2.1670	91.1399
 2.1660	91.0820
 2.1650	91.2052
 2.1640	91.2000
 2.1630	91.2384
 2.1620	91.2596
 2.1610	91.2035
 2.1600	91.2394
 2.1590	91.3210
 2.1580	91.2948
 2.1570	91.3274
 2.1560	91.3332
 2.1550	91.3681
 2.1540	91.3590
 2.1530	91.3985
 2.1520	91.4320
 2.1510	91.4670
 2.1500	91.4193
 2.1490	91.4314
 2.1480	91.4671
 2.1470	91.4216
 2.1460	91.4694
 2.1450	91.5197
 2.1440	91.4030
 2.1430	91.3952
 2.1420	91.4234
 2.1410	91.4153
 2.1400	91.3964
 2.1390	91.4568
 2.1380	91.4846
 2.1370	91.4923
 2.1360	91.4829
 2.1350	91.3882
 2.1340	91.2962
 2.1330	91.3018
 2.1320	91.3143
 2.1310	91.3091
 2.1300	91.3149
 2.1290	91.2337
 2.1280	91.1649
 2.1270	91.1371
 2.1260	91.0840
 2.1250	91.0551
 2.1240	91.0921
 2.1230	90.9735
 2.1220	90.9315
 2.1210	90.9535
 2.1200	90.8933
 2.1190	90.8563
 2.1180	90.8429
 2.1170	90.7962
 2.1160	90.7112
 2.1150	90.6166
 2.1140	90.5727
 2.1130	90.5632
 2.1120	90.5219
 2.1110	90.5024
 2.1100	90.4207
 2.1090	90.3477
 2.1080	90.3271
 2.1070	90.3054
 2.1060	90.2627
 2.1050	90.1852
 2.1040	90.1020
 2.1030	90.1230
 2.1020	90.0878
 2.1010	90.0353
 2.1000	89.9907
 2.0990	89.9914
 2.0980	90.0006
 2.0970	90.0424
 2.0960	90.0110
 2.0950	89.9670
 2.0940	90.0681
 2.0930	90.1182
 2.0920	90.0917
 2.0910	90.0901
 2.0900	90.1456
 2.0890	90.1362
 2.0880	90.1625
 2.0870	90.1579
 2.0860	90.1455
 2.0850	90.1861
 2.0840	90.2063
 2.0830	90.1810
 2.0820	90.2211
 2.0810	90.1766
 2.0800	90.1735
 2.0790	90.2228
 2.0780	90.2551
 2.0770	90.2738
 2.0760	90.2992
 2.0750	90.3198
 2.0740	90.3300
 2.0730	90.3050
 2.0720	90.3189
 2.0710	90.3350
 2.0700	90.3177
 2.0690	90.3283
 2.0680	90.3463
 2.0670	90.3669
 2.0660	90.4289
 2.0650	90.4803
 2.0640	90.4935
 2.0630	90.5038
 2.0620	90.5012
 2.0610	90.4660
 2.0600	90.4646
 2.0590	90.5211
 2.0580	90.5091
 2.0570	90.5411
 2.0560	90.6006
 2.0550	90.6455
 2.0540	90.6043
 2.0530	90.5635
 2.0520	90.6255
 2.0510	90.6507
 2.0500	90.6913
 2.0490	90.6998
 2.0480	90.6805
 2.0470	90.6403
 2.0460	90.6616
 2.0450	90.6792
 2.0440	90.6550
 2.0430	90.6991
 2.0420	90.6923
 2.0410	90.6934
 2.0400	90.7124
 2.0390	90.7669
 2.0380	90.8004
 2.0370	90.7680
 2.0360	90.9058
 2.0350	90.8764
 2.0340	90.8211
 2.0330	90.7949
 2.0320	90.7858
 2.0310	90.7234
 2.0300	90.7937
 2.0290	90.7787
 2.0280	90.7043
 2.0270	90.7421
 2.0260	90.7752
 2.0250	90.8344
 2.0240	90.8399
 2.0230	90.7819
 2.0220	90.7864
 2.0210	90.7722
 2.0200	90.7862
 2.0190	90.7472
 2.0180	90.7775
 2.0170	90.7861
 2.0160	90.8406
 2.0150	90.8571
 2.0140	90.8514
 2.0130	90.8151
 2.0120	90.7852
 2.0110	90.8552
 2.0100	90.8838
 2.0090	90.8461
 2.0080	90.8709
 2.0070	90.8687
 2.0060	90.9181
 2.0050	90.8874
 2.0040	90.8479
 2.0030	90.8564
 2.0020	90.8210
 2.0010	90.8459
 2.0000	90.8481
 1.9990	90.8803
 1.9980	90.8598
 1.9970	90.8252
 1.9960	90.8342
 1.9950	90.8423
 1.9940	90.8046
 1.9930	90.7494
 1.9920	90.7848
 1.9910	90.7025
 1.9900	90.7675
 1.9890	90.6993
 1.9880	90.7754
 1.9870	90.7250
 1.9860	90.6697
 1.9850	90.6376
 1.9840	90.7027
 1.9830	90.7396
 1.9820	90.6631
 1.9810	90.6698
 1.9800	90.6482
 1.9790	90.7331
 1.9780	90.6011
 1.9770	90.6085
 1.9760	90.6025
 1.9750	90.6455
 1.9740	90.6359
 1.9730	90.5377
 1.9720	90.5411
 1.9710	90.5839
 1.9700	90.5658
 1.9690	90.7281
 1.9680	90.6770
 1.9670	90.5425
 1.9660	90.5707
 1.9650	90.5500
 1.9640	90.5985
 1.9630	90.5668
 1.9620	90.5203
 1.9610	90.4979
 1.9600	90.6258
 1.9590	90.5774
 1.9580	90.5574
 1.9570	90.6006
 1.9560	90.5681
 1.9550	90.5523
 1.9540	90.5271
 1.9530	90.5142
 1.9520	90.5090
 1.9510	90.6398
 1.9500	90.5623
 1.9490	90.5702
 1.9480	90.6136
 1.9470	90.6652
 1.9460	90.4923
 1.9450	90.5246
 1.9440	90.5847
 1.9430	90.5416
 1.9420	90.5539
 1.9410	90.6778
 1.9400	90.5432
 1.9390	90.6292
 1.9380	90.5920
 1.9370	90.6208
 1.9360	90.6633
 1.9350	90.5110
 1.9340	90.5732
 1.9330	90.5469
 1.9320	90.6217
 1.9310	90.6080
 1.9300	90.5188
 1.9290	90.6603
 1.9280	90.6542
 1.9270	90.5852
 1.9260	90.5821
 1.9250	90.7936
 1.9240	90.7579
 1.9230	90.7118
 1.9220	90.7966
 1.9210	90.7824
 1.9200	90.8046
 1.9190	90.7843
 1.9180	90.6496
 1.9170	90.8097
 1.9160	90.6196
 1.9150	90.7373
 1.9140	90.9070
 1.9130	90.8510
 1.9120	90.8515
 1.9110	90.8292
 1.9100	90.8519
 1.9090	90.8940
 1.9080	90.9274
 1.9070	90.8704
 1.9060	90.8770
 1.9050	90.8516
 1.9040	90.9161
 1.9030	90.9797
 1.9020	91.0311
 1.9010	90.9843
 1.9000	90.9587
 1.8990	91.0076
 1.8980	90.9893
 1.8970	90.9023
 1.8960	90.9864
 1.8950	91.0563
 1.8940	91.1410
 1.8930	91.0265
 1.8920	91.0610
 1.8910	91.0306
 1.8900	91.1567
 1.8890	91.1633
 1.8880	91.1583
 1.8870	91.1769
 1.8860	91.1067
 1.8850	91.0138
 1.8840	91.1549
 1.8830	91.1798
 1.8820	91.0625
 1.8810	91.2587
 1.8800	91.0967
 1.8790	91.2622
 1.8780	91.2412
 1.8770	91.3008
 1.8760	91.1642
 1.8750	91.1812
 1.8740	91.2020
 1.8730	91.2017
 1.8720	91.2242
 1.8710	91.2011
 1.8700	91.2185
 1.8690	91.1543
 1.8680	91.2259
 1.8670	91.3140
 1.8660	91.2777
 1.8650	91.3061
 1.8640	91.3170
 1.8630	91.3403
 1.8620	91.3318
 1.8610	91.3624
 1.8600	91.3823
 1.8590	91.2879
 1.8580	91.3076
 1.8570	91.3331
 1.8560	91.3070
 1.8550	91.2874
 1.8540	91.3343
 1.8530	91.3233
 1.8520	91.3710
 1.8510	91.4138
 1.8500	91.3895
 1.8490	91.3427
 1.8480	91.3275
 1.8470	91.3864
 1.8460	91.3896
 1.8450	91.3832
 1.8440	91.4641
 1.8430	91.4164
 1.8420	91.3892
 1.8410	91.4223
 1.8400	91.4353
 1.8390	91.3765
 1.8380	91.3774
 1.8370	91.4288
 1.8360	91.3881
 1.8350	91.4024
 1.8340	91.4082
 1.8330	91.3660
 1.8320	91.3460
 1.8310	91.4666
 1.8300	91.4619
 1.8290	91.4045
 1.8280	91.4159
 1.8270	91.3698
 1.8260	91.4065
 1.8250	91.3929
 1.8240	91.4516
 1.8230	91.4746
 1.8220	91.4992
 1.8210	91.4645
 1.8200	91.4087
 1.8190	91.4066
 1.8180	91.4278
 1.8170	91.4994
 1.8160	91.4847
 1.8150	91.5269
 1.8140	91.4947
 1.8130	91.4723
 1.8120	91.4848
 1.8110	91.4337
 1.8100	91.4464
 1.8090	91.4449
 1.8080	91.4227
 1.8070	91.4624
 1.8060	91.5080
 1.8050	91.4992
 1.8040	91.4901
 1.8030	91.5015
 1.8020	91.4656
 1.8010	91.5240
 1.8000	91.5745
 1.7990	91.5040
 1.7980	91.5737
 1.7970	91.5444
 1.7960	91.4861
 1.7950	91.5181
 1.7940	91.5105
 1.7930	91.4594
 1.7920	91.3803
 1.7910	91.4309
 1.7900	91.4881
 1.7890	91.4876
 1.7880	91.4917
 1.7870	91.4222
 1.7860	91.4823
 1.7850	91.5556
 1.7840	91.4524
 1.7830	91.3823
 1.7820	91.4355
 1.7810	91.4264
 1.7800	91.4313
 1.7790	91.4822
 1.7780	91.4524
 1.7770	91.4314
 1.7760	91.3995
 1.7750	91.3295
 1.7740	91.3902
 1.7730	91.4733
 1.7720	91.4495
 1.7710	91.4785
 1.7700	91.5403
 1.7690	91.4697
 1.7680	91.4198
 1.7670	91.3996
 1.7660	91.3999
 1.7650	91.3982
 1.7640	91.4164
 1.7630	91.4831
 1.7620	91.4873
 1.7610	91.4066
 1.7600	91.3947
 1.7590	91.4193
 1.7580	91.4413
 1.7570	91.4275
 1.7560	91.3786
 1.7550	91.4894
 1.7540	91.5032
 1.7530	91.4821
 1.7520	91.4759
 1.7510	91.4712
 1.7500	91.5007
 1.7490	91.5224
 1.7480	91.5183
 1.7470	91.5011
 1.7460	91.4953
 1.7450	91.5471
 1.7440	91.5796
 1.7430	91.5265
 1.7420	91.4674
 1.7410	91.4778
 1.7400	91.4674
 1.7390	91.4863
 1.7380	91.4836
 1.7370	91.5274
 1.7360	91.5265
 1.7350	91.4465
 1.7340	91.4327
 1.7330	91.5807
 1.7320	91.5931
 1.7310	91.5931
 1.7300	91.5753
 1.7290	91.6199
 1.7280	91.5749
 1.7270	91.5208
 1.7260	91.5029
 1.7250	91.5570
 1.7240	91.5141
 1.7230	91.6684
 1.7220	91.5856
 1.7210	91.5989
 1.7200	91.5898
 1.7190	91.5917
 1.7180	91.5493
 1.7170	91.5596
 1.7160	91.5124
 1.7150	91.5567
 1.7140	91.5360
 1.7130	91.5304
 1.7120	91.5474
 1.7110	91.5809
 1.7100	91.5737
 1.7090	91.5691
 1.7080	91.5261
 1.7070	91.5830
 1.7060	91.5655
 1.7050	91.6121
 1.7040	91.5361
 1.7030	91.4934
 1.7020	91.4781
 1.7010	91.5063
 1.7000	91.4692
 1.6990	91.4364
 1.6980	91.5781
 1.6970	91.5370
 1.6960	91.4986
 1.6950	91.4922
 1.6940	91.4494
 1.6930	91.5310
 1.6920	91.5300
 1.6910	91.4693
 1.6900	91.5161
 1.6890	91.5546
 1.6880	91.5083
 1.6870	91.5207
 1.6860	91.4577
 1.6850	91.5027
 1.6840	91.4647
 1.6830	91.5382
 1.6820	91.5222
 1.6810	91.5245
 1.6800	91.5331
 1.6790	91.4543
 1.6780	91.5484
 1.6770	91.5020
 1.6760	91.5506
 1.6750	91.4864
 1.6740	91.5277
 1.6730	91.5340
 1.6720	91.4248
 1.6710	91.5487
 1.6700	91.5949
 1.6690	91.5579
 1.6680	91.4595
 1.6670	91.5192
 1.6660	91.5649
 1.6650	91.5067
 1.6640	91.6140
 1.6630	91.5302
 1.6620	91.4835
 1.6610	91.5653
 1.6600	91.5556
 1.6590	91.5326
 1.6580	91.5637
 1.6570	91.4813
 1.6560	91.5633
 1.6550	91.3937
 1.6540	91.5355
 1.6530	91.4994
 1.6520	91.4527
 1.6510	91.5259
 1.6500	91.5226
 1.6490	91.5443
 1.6480	91.4639
 1.6470	91.5374
 1.6460	91.4824
 1.6450	91.5093
 1.6440	91.5524
 1.6430	91.5939
 1.6420	91.5469
 1.6410	91.5902
 1.6400	91.5499
 1.6390	91.5328
 1.6380	91.4705
 1.6370	91.5079
 1.6360	91.5278
 1.6350	91.5016
 1.6340	91.6198
 1.6330	91.4589
 1.6320	91.4711
 1.6310	91.4826
 1.6300	91.4853
 1.6290	91.5121
 1.6280	91.5503
 1.6270	91.5528
 1.6260	91.4788
 1.6250	91.4026
 1.6240	91.5585
 1.6230	91.5956
 1.6220	91.5503
 1.6210	91.4492
 1.6200	91.5141
 1.6190	91.5376
 1.6180	91.5682
 1.6170	91.6145
 1.6160	91.4918
 1.6150	91.4269
 1.6140	90.6921
 1.6130	91.5468
 1.6120	91.6015
 1.6110	91.5926
 1.6100	91.5462
 1.6090	91.6209
 1.6080	91.5728
 1.6070	91.5790
 1.6060	91.5387
 1.6050	91.6092
 1.6040	91.5446
 1.6030	91.5748
 1.6020	91.6347
 1.6010	91.5466
 1.6000	91.5632
 1.5990	91.5989
 1.5980	91.5217
 1.5970	91.5818
 1.5960	91.5521
 1.5950	91.5279
 1.5940	91.5275
 1.5930	91.4506
 1.5920	91.5479
 1.5910	91.5683
 1.5900	91.6066
 1.5890	91.5047
 1.5880	91.6070
 1.5870	91.5304
 1.5860	91.5841
 1.5850	91.5548
 1.5840	91.6270
 1.5830	91.5397
 1.5820	91.4976
 1.5810	91.5876
 1.5800	91.5195
 1.5790	91.4738
 1.5780	91.6437
 1.5770	91.5477
 1.5760	91.4974
 1.5750	91.5325
 1.5740	91.5553
 1.5730	91.5547
 1.5720	91.6190
 1.5710	91.6393
 1.5700	91.5131
 1.5690	91.5089
 1.5680	91.5175
 1.5670	91.5389
 1.5660	91.5559
 1.5650	91.5422
 1.5640	91.4999
 1.5630	91.4777
 1.5620	91.4861
 1.5610	91.5374
 1.5600	91.5849
 1.5590	91.5378
 1.5580	91.4881
 1.5570	91.5648
 1.5560	91.5385
 1.5550	91.5348
 1.5540	91.6240
 1.5530	91.4997
 1.5520	91.5424
 1.5510	91.5340
 1.5500	91.4885
 1.5490	91.5002
 1.5480	91.5745
 1.5470	91.5485
 1.5460	91.5683
 1.5450	91.5378
 1.5440	91.5381
 1.5430	91.5050
 1.5420	91.4974
 1.5410	91.5039
 1.5400	91.5046
 1.5390	91.4895
 1.5380	91.5147
 1.5370	91.5080
 1.5360	91.5138
 1.5350	91.5030
 1.5340	91.4972
 1.5330	91.5111
 1.5320	91.4526
 1.5310	91.4358
 1.5300	91.4934
 1.5290	91.5317
 1.5280	91.5138
 1.5270	91.4826
 1.5260	91.5018
 1.5250	91.4584
 1.5240	91.4588
 1.5230	91.4629
 1.5220	91.4866
 1.5210	91.4545
 1.5200	91.4357
 1.5190	91.4385
 1.5180	91.4048
 1.5170	91.4178
 1.5160	91.4833
 1.5150	91.4021
 1.5140	91.3701
 1.5130	91.4038
 1.5120	91.4520
 1.5110	91.4438
 1.5100	91.4252
 1.5090	91.4587
 1.5080	91.4549
 1.5070	91.5351
 1.5060	91.5542
 1.5050	91.4951
 1.5040	91.4748
 1.5030	91.4202
 1.5020	91.4048
 1.5010	91.4612
 1.5000	91.5004
 1.4990	91.4723
 1.4980	91.4397
 1.4970	91.4626
 1.4960	91.4145
 1.4950	91.4369
 1.4940	91.4742
 1.4930	91.4136
 1.4920	91.4319
 1.4910	91.4267
 1.4900	91.4226
 1.4890	91.4602
 1.4880	91.4493
 1.4870	91.4603
 1.4860	91.5178
 1.4850	91.4830
 1.4840	91.4196
 1.4830	91.4182
 1.4820	91.3954
 1.4810	91.3394
 1.4800	91.3945
 1.4790	91.4232
 1.4780	91.4450
 1.4770	91.4326
 1.4760	91.4535
 1.4750	91.4747
 1.4740	91.4444
 1.4730	91.4244
 1.4720	91.3888
 1.4710	91.4849
 1.4700	91.4205
 1.4690	91.4087
 1.4680	91.4052
 1.4670	91.3957
 1.4660	91.3913
 1.4650	91.3976
 1.4640	91.4347
 1.4630	91.4840
 1.4620	91.4396
 1.4610	91.3855
 1.4600	91.3549
 1.4590	91.3581
 1.4580	91.3617
 1.4570	91.3376
 1.4560	91.3902
 1.4550	91.4437
 1.4540	91.4527
 1.4530	91.4383
 1.4520	91.3867
 1.4510	91.4010
 1.4500	91.4230
 1.4490	91.4249
 1.4480	91.4757
 1.4470	91.4693
 1.4460	91.4527
 1.4450	91.4555
 1.4440	91.4544
 1.4430	91.4170
 1.4420	91.4004
 1.4410	91.4118
 1.4400	91.3722
 1.4390	91.3831
 1.4380	91.3379
 1.4370	91.4382
 1.4360	91.3932
 1.4350	91.3488
 1.4340	91.3058
 1.4330	91.3226
 1.4320	91.3625
 1.4310	91.4115
 1.4300	91.3370
 1.4290	91.4092
 1.4280	91.4583
 1.4270	91.4284
 1.4260	91.3605
 1.4250	91.3533
 1.4240	91.3575
 1.4230	91.4265
 1.4220	91.3910
 1.4210	91.3969
 1.4200	91.3580
 1.4190	91.2852
 1.4180	91.3268
 1.4170	91.3940
 1.4160	91.3910
 1.4150	91.4228
 1.4140	91.4318
 1.4130	91.4050
 1.4120	91.4501
 1.4110	91.4212
 1.4100	91.4457
 1.4090	91.4294
 1.4080	91.4070
 1.4070	91.3734
 1.4060	91.3834
 1.4050	91.3947
 1.4040	91.4546
 1.4030	91.4446
 1.4020	91.3441
 1.4010	91.4185
 1.4000	91.3117
 1.3990	91.3892
 1.3980	91.3949
 1.3970	91.5048
 1.3960	91.4562
 1.3950	91.5286
 1.3940	91.4761
 1.3930	91.4801
 1.3920	91.5386
 1.3910	91.4947
 1.3900	91.5366
 1.3890	91.4954
 1.3880	91.4675
 1.3870	91.4772
 1.3860	91.4021
 1.3850	91.4961
 1.3840	91.3428
 1.3830	91.4401
 1.3820	91.4372
 1.3810	91.3203
 1.3800	91.4239
 1.3790	91.5020
 1.3780	91.4871
 1.3770	91.4792
 1.3760	91.4770
 1.3750	91.4686
 1.3740	91.4281
 1.3730	91.4683
 1.3720	91.5283
 1.3710	91.4850
 1.3700	91.3561
 1.3690	91.5262
 1.3680	91.4789
 1.3670	91.4645
 1.3660	91.5574
 1.3650	91.4535
 1.3640	91.4162
 1.3630	91.5084
 1.3620	91.4676
 1.3610	91.5322
 1.3600	91.5844
 1.3590	91.4421
 1.3580	91.4328
 1.3570	91.3885
 1.3560	91.4749
 1.3550	91.4441
 1.3540	91.4688
 1.3530	91.4797
 1.3520	91.5133
 1.3510	91.4244
 1.3500	91.4800
 1.3490	91.4656
 1.3480	91.5056
 1.3470	91.4449
 1.3460	91.4322
 1.3450	91.3371
 1.3440	91.4779
 1.3430	91.4706
 1.3420	91.4715
 1.3410	91.3683
 1.3400	91.4328
 1.3390	91.4469
 1.3380	91.4038
 1.3370	91.5021
 1.3360	91.4459
 1.3350	91.4248
 1.3340	91.3399
 1.3330	91.4221
 1.3320	91.4455
 1.3310	91.4218
 1.3300	91.3855
 1.3290	91.4372
 1.3280	91.4193
 1.3270	91.4315
 1.3260	91.3934
 1.3250	91.4622
 1.3240	91.4421
 1.3230	91.4496
 1.3220	91.3740
 1.3210	91.4336
 1.3200	91.3225
 1.3190	91.3713
 1.3180	91.4570
 1.3170	91.4050
 1.3160	91.4317
 1.3150	91.4782
 1.3140	91.4534
 1.3130	91.3666
 1.3120	91.3649
 1.3110	91.4244
 1.3100	91.4259
 1.3090	91.3372
 1.3080	91.3835
 1.3070	91.3701
 1.3060	91.4069
 1.3050	91.3762
 1.3040	91.4663
 1.3030	91.3937
 1.3020	91.3466
 1.3010	91.4030
 1.3000	91.4535
 1.2990	91.3926
 1.2980	91.4380
 1.2970	91.4563
 1.2960	91.4363
 1.2950	91.3955
 1.2940	91.4273
 1.2930	91.4286
 1.2920	91.4491
 1.2910	91.3448
 1.2900	91.3614
 1.2890	91.3893
 1.2880	91.4675
 1.2870	91.4664
 1.2860	91.3634
 1.2850	91.3728
 1.2840	91.4303
 1.2830	91.3696
 1.2820	91.3781
 1.2810	91.4026
 1.2800	91.3968
 1.2790	91.4381
 1.2780	91.3979
 1.2770	91.4153
 1.2760	91.3332
 1.2750	91.3557
 1.2740	91.4033
 1.2730	91.4528
 1.2720	91.4489
 1.2710	91.3936
 1.2700	91.4270
 1.2690	91.4790
 1.2680	91.3207
 1.2670	91.3469
 1.2660	91.4086
 1.2650	91.3824
 1.2640	91.4069
 1.2630	91.3528
 1.2620	91.3254
 1.2610	91.3394
 1.2600	91.3717
 1.2590	91.4140
 1.2580	91.4199
 1.2570	91.4648
 1.2560	91.3314
 1.2550	91.3104
 1.2540	91.3896
 1.2530	91.3052
 1.2520	91.2802
 1.2510	91.3620
 1.2500	91.3593
 1.2490	91.3303
 1.2480	91.3512
 1.2470	91.3213
 1.2460	91.3408
 1.2450	91.3529
 1.2440	91.3892
 1.2430	91.4597
 1.2420	91.4048
 1.2410	91.3638
 1.2400	91.3262
 1.2390	91.3438
 1.2380	91.3099
 1.2370	91.2885
 1.2360	91.3363
 1.2350	91.3587
 1.2340	91.2786
 1.2330	91.2219
 1.2320	91.2642
 1.2310	91.3283
 1.2300	91.2820
 1.2290	91.2772
 1.2280	91.3320
 1.2270	91.3455
 1.2260	91.3292
 1.2250	91.3042
 1.2240	91.3250
 1.2230	91.3028
 1.2220	91.2960
 1.2210	91.3669
 1.2200	91.3882
 1.2190	91.3875
 1.2180	91.3445
 1.2170	91.3302
 1.2160	91.3405
 1.2150	91.3334
 1.2140	91.3207
 1.2130	91.3325
 1.2120	91.3341
 1.2110	91.2492
 1.2100	91.2670
 1.2090	91.3115
 1.2080	91.3419
 1.2070	91.2941
 1.2060	91.2673
 1.2050	91.2940
 1.2040	91.3291
 1.2030	91.3799
 1.2020	91.3366
 1.2010	91.3242
 1.2000	91.3142
 1.1990	91.2808
 1.1980	91.2921
 1.1970	91.3311
 1.1960	91.3492
 1.1950	91.3819
 1.1940	91.4065
 1.1930	91.3584
 1.1920	91.3885
 1.1910	91.3311
 1.1900	91.2564
 1.1890	91.2877
 1.1880	91.3352
 1.1870	91.3654
 1.1860	91.2760
 1.1850	91.2805
 1.1840	91.3356
 1.1830	91.3195
 1.1820	91.2767
 1.1810	91.3109
 1.1800	91.3230
 1.1790	91.3230
 1.1780	91.3323
 1.1770	91.3525
 1.1760	91.3450
 1.1750	91.3724
 1.1740	91.3223
 1.1730	91.3041
 1.1720	91.3191
 1.1710	91.3023
 1.1700	91.2762
 1.1690	91.2802
 1.1680	91.3187
 1.1670	91.3487
 1.1660	91.4226
 1.1650	91.4185
 1.1640	91.3692
 1.1630	91.3618
 1.1620	91.3719
 1.1610	91.3347
 1.1600	91.3851
 1.1590	91.3924
 1.1580	91.4316
 1.1570	91.4148
 1.1560	91.3392
 1.1550	91.3997
 1.1540	91.4325
 1.1530	91.3812
 1.1520	91.4878
 1.1510	91.4413
 1.1500	91.3740
 1.1490	91.3824
 1.1480	91.3453
 1.1470	91.3999
 1.1460	91.3720
 1.1450	91.3399
 1.1440	91.4219
 1.1430	91.3462
 1.1420	91.3573
 1.1410	91.3989
 1.1400	91.4623
 1.1390	91.3273
 1.1380	91.3589
 1.1370	91.3650
 1.1360	91.3401
 1.1350	91.3437
 1.1340	91.4023
 1.1330	91.3487
 1.1320	91.3510
 1.1310	91.3850
 1.1300	91.3676
 1.1290	91.3572
 1.1280	91.4301
 1.1270	91.4004
 1.1260	91.3829
 1.1250	91.3191
 1.1240	91.4407
 1.1230	91.4334
 1.1220	91.4549
 1.1210	91.3984
 1.1200	91.3953
 1.1190	91.4059
 1.1180	91.3565
 1.1170	91.4005
 1.1160	91.3777
 1.1150	91.3317
 1.1140	91.3884
 1.1130	91.3074
 1.1120	91.4603
 1.1110	91.4236
 1.1100	91.3682
 1.1090	91.4333
 1.1080	91.4414
 1.1070	91.3992
 1.1060	91.3840
 1.1050	91.3406
 1.1040	91.3849
 1.1030	91.3683
 1.1020	91.4468
 1.1010	91.3991
 1.1000	91.4445
 1.0990	91.3400
 1.0980	91.3675
 1.0970	91.4259
 1.0960	91.4319
 1.0950	91.4236
 1.0940	91.3924
 1.0930	91.4142
 1.0920	91.4875
 1.0910	91.3958
 1.0900	91.3660
 1.0890	91.4065
 1.0880	91.4018
 1.0870	91.4280
 1.0860	91.4579
 1.0850	91.3373
 1.0840	91.4501
 1.0830	91.4115
 1.0820	91.3793
 1.0810	91.4214
 1.0800	91.5158
 1.0790	91.4066
 1.0780	91.4005
 1.0770	91.3319
 1.0760	91.3861
 1.0750	91.5015
 1.0740	91.4481
 1.0730	91.4234
 1.0720	91.3834
 1.0710	91.4259
 1.0700	91.4247
 1.0690	91.4914
 1.0680	91.4663
 1.0670	91.4383
 1.0660	91.4856
 1.0650	91.4969
 1.0640	91.4283
 1.0630	91.4602
 1.0620	91.3946
 1.0610	91.4052
 1.0600	91.4566
 1.0590	91.4281
 1.0580	91.4470
 1.0570	91.4871
 1.0560	91.4943
 1.0550	91.4011
 1.0540	91.4005
 1.0530	91.4815
 1.0520	91.4721
 1.0510	91.4027
 1.0500	91.4630
 1.0490	91.4757
 1.0480	91.3929
 1.0470	91.4627
 1.0460	91.4085
 1.0450	91.4379
 1.0440	91.4038
 1.0430	91.4937
 1.0420	91.5487
 1.0410	91.3994
 1.0400	91.3997
 1.0390	91.4610
 1.0380	91.4616
 1.0370	91.3717
 1.0360	91.4564
 1.0350	91.4554
 1.0340	91.5121
 1.0330	91.4389
 1.0320	91.4279
 1.0310	91.4511
 1.0300	91.4826
 1.0290	91.4027
 1.0280	91.4403
 1.0270	91.3761
 1.0260	91.4634
 1.0250	91.4532
 1.0240	91.5220
 1.0230	91.4614
 1.0220	91.5370
 1.0210	91.5129
 1.0200	91.4975
 1.0190	91.5223
 1.0180	91.4294
 1.0170	91.4261
 1.0160	91.4809
 1.0150	91.4178
 1.0140	91.5129
 1.0130	91.5005
 1.0120	91.5475
 1.0110	91.4867
 1.0100	91.4789
 1.0090	91.4669
 1.0080	91.4137
 1.0070	91.4642
 1.0060	91.5040
 1.0050	91.4651
 1.0040	91.4843
 1.0030	91.4649
 1.0020	91.4582
 1.0010	91.5397
 1.0000	91.4907
 0.9990	91.5001
 0.9980	91.5311
 0.9970	91.5006
 0.9960	91.5316
 0.9950	91.5455
 0.9940	91.4819
 0.9930	91.4429
 0.9920	91.5480
 0.9910	91.5022
 0.9900	91.4760
 0.9890	91.5470
 0.9880	91.4585
 0.9870	91.4991
 0.9860	91.4928
 0.9850	91.4537
 0.9840	91.5062
 0.9830	91.5037
 0.9820	91.5478
 0.9810	91.4627
 0.9800	91.4973
 0.9790	91.5160
 0.9780	91.5803
 0.9770	91.5104
 0.9760	91.5233
 0.9750	91.4359
 0.9740	91.4041
 0.9730	91.5008
 0.9720	91.5089
 0.9710	91.5196
 0.9700	91.5095
 0.9690	91.4778
 0.9680	91.4633
 0.9670	91.4604
 0.9660	91.4979
 0.9650	91.5025
 0.9640	91.5120
 0.9630	91.5149
 0.9620	91.4970
 0.9610	91.5294
 0.9600	91.5134
 0.9590	91.4310
 0.9580	91.4959
 0.9570	91.5414
 0.9560	91.5163
 0.9550	91.4522
 0.9540	91.4576
 0.9530	91.4931
 0.9520	91.5582
 0.9510	91.5751
 0.9500	91.5229
 0.9490	91.5094
 0.9480	91.5856
 0.9470	91.5621
 0.9460	91.4885
 0.9450	91.4980
 0.9440	91.4850
 0.9430	91.5017
 0.9420	91.5260
 0.9410	91.5247
 0.9400	91.5285
 0.9390	91.4960
 0.9380	91.4983
 0.9370	91.5492
 0.9360	91.5597
 0.9350	91.5252
 0.9340	91.5015
 0.9330	91.4848
 0.9320	91.5224
 0.9310	91.5074
 0.9300	91.4556
 0.9290	91.5112
 0.9280	91.5551
 0.9270	91.5122
 0.9260	91.4638
 0.9250	91.5055
 0.9240	91.4843
 0.9230	91.4842
 0.9220	91.5577
 0.9210	91.5684
 0.9200	91.5282
 0.9190	91.5467
 0.9180	91.5171
 0.9170	91.4716
 0.9160	91.4860
 0.9150	91.4714
 0.9140	91.4832
 0.9130	91.5141
 0.9120	91.5039
 0.9110	91.4544
 0.9100	91.4764
 0.9090	91.5327
 0.9080	91.5393
 0.9070	91.4815
 0.9060	91.4687
 0.9050	91.4992
 0.9040	91.4720
 0.9030	91.5322
 0.9020	91.5811
 0.9010	91.5234
 0.9000	91.5104
 0.8990	91.4611
 0.8980	91.4408
 0.8970	91.4721
 0.8960	91.4630
 0.8950	91.4513
 0.8940	91.5269
 0.8930	91.4667
 0.8920	91.4305
 0.8910	91.4519
 0.8900	91.4448
 0.8890	91.4414
 0.8880	91.4431
 0.8870	91.4251
 0.8860	91.4410
 0.8850	91.4940
 0.8840	91.4608
 0.8830	91.4900
 0.8820	91.4286
 0.8810	91.4399
 0.8800	91.4243
 0.8790	91.4503
 0.8780	91.4537
 0.8770	91.4291
 0.8760	91.4156
 0.8750	91.4617
 0.8740	91.3907
 0.8730	91.4060
 0.8720	91.4149
 0.8710	91.4775
 0.8700	91.3567
 0.8690	91.3709
 0.8680	91.4569
 0.8670	91.5447
 0.8660	91.3841
 0.8650	91.3715
 0.8640	91.3438
 0.8630	91.4250
 0.8620	91.3836
 0.8610	91.3660
 0.8600	91.4224
 0.8590	91.3179
 0.8580	91.3942
 0.8570	91.4193
 0.8560	91.3140
 0.8550	91.2496
 0.8540	91.3133
 0.8530	91.4468
 0.8520	91.3575
 0.8510	91.3416
 0.8500	91.3961
 0.8490	91.3190
 0.8480	91.3043
 0.8470	91.3921
 0.8460	91.3535
 0.8450	91.3857
 0.8440	91.3360
 0.8430	91.3323
 0.8420	91.3387
 0.8410	91.3536
 0.8400	91.3284
 0.8390	91.3409
 0.8380	91.3794
 0.8370	91.4066
 0.8360	91.3875
 0.8350	91.4173
 0.8340	91.4299
 0.8330	91.3794
 0.8320	91.4118
 0.8310	91.3973
 0.8300	91.3697
 0.8290	91.3208
 0.8280	91.3484
 0.8270	91.3923
 0.8260	91.3959
 0.8250	91.3979
 0.8240	91.3405
 0.8230	91.4070
 0.8220	91.3728
 0.8210	91.3388
 0.8200	91.3503
 0.8190	91.3894
 0.8180	91.3428
 0.8170	91.4121
 0.8160	91.3911
 0.8150	91.3733
 0.8140	91.3485
 0.8130	91.4060
 0.8120	91.4274
 0.8110	91.3413
 0.8100	91.4174
 0.8090	91.4482
 0.8080	91.3783
 0.8070	91.3906
 0.8060	91.3853
 0.8050	91.3892
 0.8040	91.4627
 0.8030	91.4236
 0.8020	91.3666
 0.8010	91.3848
 0.8000	91.3694
 0.7990	91.3991
 0.7980	91.3754
 0.7970	91.3753
 0.7960	91.3351
 0.7950	91.2910
 0.7940	91.2857
 0.7930	91.3219
 0.7920	91.3169
 0.7910	91.3039
 0.7900	91.3039
 0.7890	91.3185
 0.7880	91.3503
 0.7870	91.3619
 0.7860	91.3058
 0.7850	91.3424
 0.7840	91.2884
 0.7830	91.3770
 0.7820	91.3100
 0.7810	91.2929
 0.7800	91.3300
 0.7790	91.2815
 0.7780	91.2382
 0.7770	91.2445
 0.7760	91.2596
 0.7750	91.2129
 0.7740	91.2228
 0.7730	91.2659
 0.7720	91.2623
 0.7710	91.2388
 0.7700	91.2546
 0.7690	91.2793
 0.7680	91.2713
 0.7670	91.2507
 0.7660	91.2878
 0.7650	91.2330
 0.7640	91.2515
 0.7630	91.2496
 0.7620	91.2725
 0.7610	91.2524
 0.7600	91.2259
 0.7590	91.2365
 0.7580	91.2770
 0.7570	91.2489
 0.7560	91.2361
 0.7550	91.2378
 0.7540	91.2817
 0.7530	91.2422
 0.7520	91.2364
 0.7510	91.2731
 0.7500	91.2368
 0.7490	91.2010
 0.7480	91.2653
 0.7470	91.2314
 0.7460	91.2330
 0.7450	91.2420
 0.7440	91.2386
 0.7430	91.2188
 0.7420	91.2540
 0.7410	91.2576
 0.7400	91.2303
 0.7390	91.2405
 0.7380	91.2505
 0.7370	91.1994
 0.7360	91.2086
 0.7350	91.2363
 0.7340	91.2381
 0.7330	91.2016
 0.7320	91.2175
 0.7310	91.2067
 0.7300	91.1942
 0.7290	91.1994
 0.7280	91.2172
 0.7270	91.2410
 0.7260	91.2141
 0.7250	91.2255
 0.7240	91.1976
 0.7230	91.1984
 0.7220	91.1907
 0.7210	91.2169
 0.7200	91.1881
 0.7190	91.1652
 0.7180	91.1709
 0.7170	91.2052
 0.7160	91.1855
 0.7150	91.1963
 0.7140	91.1838
 0.7130	91.1777
 0.7120	91.1728
 0.7110	91.1763
 0.7100	91.1725
 0.7090	91.1987
 0.7080	91.1648
 0.7070	91.1717
 0.7060	91.1723
 0.7050	91.1586
 0.7040	91.1547
 0.7030	91.1539
 0.7020	91.1725
 0.7010	91.1621
 0.7000	91.1634
 0.6990	91.1404
 0.6980	91.1437
 0.6970	91.1660
 0.6960	91.1429
 0.6950	91.1498
 0.6940	91.1473
 0.6930	91.1474
 0.6920	91.1550
 0.6910	91.1364
 0.6900	91.1455
 0.6890	91.1636
 0.6880	91.1389
 0.6870	91.1330
 0.6860	91.1261
 0.6850	91.1442
 0.6840	91.1349
 0.6830	91.1443
 0.6820	91.1542
 0.6810	91.1437
 0.6800	91.1287
 0.6790	91.1269
 0.6780	91.1226
 0.6770	91.1215
 0.6760	91.1140
 0.6750	91.0981
 0.6740	91.0995
 0.6730	91.0969
 0.6720	91.0950
 0.6710	91.1320
 0.6700	91.1807
 0.6690	91.1959
 0.6680	91.1986
 0.6670	91.1827
 0.6660	91.1517
 0.6650	91.1762
 0.6640	91.1778
 0.6630	91.1620
 0.6620	91.1652
 0.6610	91.1798
 0.6600	91.1814
 0.6590	91.1492
 0.6580	91.1444
 0.6570	91.1410
 0.6560	91.1597
 0.6550	91.1639
 0.6540	91.1635
 0.6530	91.1538
 0.6520	91.1369
 0.6510	91.1372
 0.6500	91.1415
 0.6490	91.1433
 0.6480	91.1286
 0.6470	91.1377
 0.6460	91.1464
 0.6450	91.1338
 0.6440	91.1310
 0.6430	91.1330
 0.6420	91.1376
 0.6410	91.1428
 0.6400	91.1453
 0.6390	91.1486
 0.6380	91.1331
 0.6370	91.1187
 0.6360	91.1194
 0.6350	91.1099
 0.6340	91.1198
 0.6330	91.1399
 0.6320	91.1208
 0.6310	91.1101
 0.6300	91.1014
 0.6290	91.1097
 0.6280	91.1169
 0.6270	91.1080
 0.6260	91.1121
 0.6250	91.1233
 0.6240	91.1100
 0.6230	91.0947
 0.6220	91.1066
 0.6210	91.1012
 0.6200	91.0964
 0.6190	91.0832
 0.6180	91.0689
 0.6170	91.0830
 0.6160	91.0937
 0.6150	91.0821
 0.6140	91.0760
 0.6130	91.0794
 0.6120	91.0702
 0.6110	91.0790
 0.6100	91.0814
 0.6090	91.0840
 0.6080	91.0840
 0.6070	91.0792
 0.6060	91.0653
 0.6050	91.0586
 0.6040	91.0524
 0.6030	91.0599
 0.6020	91.0356
 0.6010	91.0457
 0.6000	91.0482
 0.5990	91.0662
 0.5980	91.0838
 0.5970	91.0816
 0.5960	91.1154
 0.5950	91.1356
 0.5940	91.1401
 0.5930	91.1361
 0.5920	91.1275
 0.5910	91.1228
 0.5900	91.1152
 0.5890	91.0976
 0.5880	91.1055
 0.5870	91.1069
 0.5860	91.0949
 0.5850	91.0909
 0.5840	91.0934
 0.5830	91.0818
 0.5820	91.0867
 0.5810	91.0889
 0.5800	91.0883
 0.5790	91.0645
 0.5780	91.0698
 0.5770	91.0671
 0.5760	91.0712
 0.5750	91.0684
 0.5740	91.0422
 0.5730	91.0247
 0.5720	91.0289
 0.5710	91.0239
 0.5700	91.0210
 0.5690	91.0258
 0.5680	91.0264
 0.5670	91.0050
 0.5660	90.9994
 0.5650	90.9938
 0.5640	91.0063
 0.5630	90.9997
 0.5620	90.9828
 0.5610	90.9706
 0.5600	90.9576
 0.5590	90.9419
 0.5580	90.9341
 0.5570	90.9420
 0.5560	90.9226
 0.5550	90.9076
 0.5540	90.9079
 0.5530	90.8898
 0.5520	90.8978
 0.5510	90.8842
 0.5500	90.8714
 0.5490	90.8527
 0.5480	90.8512
 0.5470	90.8293
 0.5460	90.8127
 0.5450	90.8157
 0.5440	90.8060
 0.5430	90.7860
 0.5420	90.7653
 0.5410	90.7470
 0.5400	90.7265
 0.5390	90.7215
 0.5380	90.6962
 0.5370	90.6788
 0.5360	90.6471
 0.5350	90.6346
 0.5340	90.6057
 0.5330	90.5719
 0.5320	90.5370
 0.5310	90.5205
 0.5300	90.4852
 0.5290	90.4509
 0.5280	90.4104
 0.5270	90.3927
 0.5260	90.3271
 0.5250	90.2782
 0.5240	90.2238
 0.5230	90.1832
 0.5220	90.1361
 0.5210	90.0878
 0.5200	90.0167
 0.5190	89.9387
 0.5180	89.8677
 0.5170	89.8018
 0.5160	89.7139
 0.5150	89.6189
 0.5140	89.5357
 0.5130	89.4196
 0.5120	89.3196
 0.5110	89.1771
 0.5100	89.0627
 0.5090	88.9525
 0.5080	88.7849
 0.5070	88.6232
 0.5060	88.4621
 0.5050	88.2968
 0.5040	88.0926
 0.5030	87.8723
 0.5020	87.6461
 0.5010	87.4248
 0.5000	87.1656
 0.4990	86.8738
 0.4980	86.6051
 0.4970	86.2951
 0.4960	85.9838
 0.4950	85.6099
 0.4940	85.2525
 0.4930	84.8313
 0.4920	84.4029
 0.4910	83.9254
 0.4900	83.4529
 0.4890	82.9560
 0.4880	82.4134
 0.4870	81.8460
 0.4860	81.2545
 0.4850	80.6434
 0.4840	79.9671
 0.4830	79.2897
 0.4820	78.5944
 0.4810	77.8713
 0.4800	77.1493
 0.4790	76.3962
 0.4780	75.6028
 0.4770	74.7628
 0.4760	73.8878
 0.4750	72.9090
 0.4740	71.9538
 0.4730	70.9499
 0.4720	69.9315
 0.4710	68.8720
 0.4700	67.7870
 0.4690	66.6446
 0.4680	65.4798
 0.4670	64.2738
 0.4660	63.0285
 0.4650	61.7492
 0.4640	60.4374
 0.4630	59.1035
 0.4620	57.7276
 0.4610	56.3187
 0.4600	54.8971
 0.4590	53.4249
 0.4580	51.9673
 0.4570	50.4616
 0.4560	48.9295
 0.4550	47.3805
 0.4540	45.8252
 0.4530	44.2493
 0.4520	42.6848
 0.4510	41.1265
 0.4500	39.5729
 0.4490	38.0081
 0.4480	36.4631
 0.4470	34.9400
 0.4460	33.4182
 0.4450	31.9313
 0.4440	30.4328
 0.4430	28.9773
 0.4420	27.5802
 0.4410	26.2390
 0.4400	24.9190
 0.4390	23.6380
 0.4380	22.3924
 0.4370	21.1828
 0.4360	20.0258
 0.4350	18.9022
 0.4340	17.8544
 0.4330	16.8297
 0.4320	15.8651
 0.4310	14.9483
 0.4300	14.0748
 0.4290	13.2604
 0.4280	12.4848
 0.4270	11.7576
 0.4260	11.0772
 0.4250	10.4406
 0.4240	 9.8390
 0.4230	 9.2907
 0.4220	 8.7992
 0.4210	 8.3325
 0.4200	 7.9007
 0.4190	 7.5010
 0.4180	 7.1359
 0.4170	 6.8079
 0.4160	 6.5027
 0.4150	 6.2261
 0.4140	 5.9780
 0.4130	 5.7528
 0.4120	 5.5532
 0.4110	 5.3767
 0.4100	 5.2161
 0.4090	 5.0736
 0.4080	 4.9485
 0.4070	 4.8394
 0.4060	 4.7422
 0.4050	 4.6566
 0.4040	 4.5865
 0.4030	 4.5277
 0.4020	 4.4729
 0.4010	 4.4265
 0.4000	 4.3897
