Name: Hematite alpha Fe_2O_3
Type: Mineral
Class: Oxide
Subclass: None
Particle Size: Fine
Sample No.: O-1A
Owner: JPL
Wavelength Range: VSWIR
Origin: USA, Alabama, Birmingham
Collection Date: N/A
Description: Particle size was 0-45um.Collected by Burminco Original ASTER Spectral Library name was jpl.beckman.mineral.oxide.none.fine.o01a.spectrum.txt
Measurement: Hemispherical reflectance
First Column: X
Second Column: Y
X Units: Wavelength (micrometers)
Y Units:Reflectance (percent)
First X Value:  0.4000
Last X Value:  2.5000
Number of X Values: 826
Additional Information: mineral.oxide.none.fine.vswir.o-1a.jpl.beckman.ancillary.txt

 0.4000	 4.5900
 0.4010	 4.5900
 0.4020	 4.5800
 0.4030	 4.6500
 0.4040	 4.5800
 0.4050	 4.5700
 0.4060	 4.6400
 0.4070	 4.7000
 0.4080	 4.8800
 0.4090	 4.7500
 0.4100	 4.7000
 0.4110	 4.7000
 0.4120	 4.8100
 0.4130	 4.7500
 0.4140	 4.7600
 0.4150	 4.7000
 0.4160	 4.8800
 0.4170	 4.9400
 0.4180	 4.8700
 0.4190	 4.8700
 0.4200	 4.8700
 0.4210	 4.8100
 0.4220	 4.6800
 0.4230	 4.6800
 0.4240	 4.7400
 0.4250	 4.6300
 0.4260	 4.6900
 0.4270	 4.6300
 0.4280	 4.6900
 0.4290	 4.8000
 0.4300	 4.6800
 0.4310	 4.6800
 0.4320	 4.7400
 0.4330	 4.7500
 0.4340	 4.8700
 0.4350	 4.8700
 0.4360	 4.7500
 0.4370	 4.8700
 0.4380	 4.8000
 0.4390	 4.8500
 0.4400	 4.7900
 0.4410	 4.7900
 0.4420	 4.9100
 0.4430	 4.7900
 0.4440	 4.7300
 0.4450	 4.6200
 0.4460	 4.5600
 0.4470	 4.5700
 0.4480	 4.5700
 0.4490	 4.5100
 0.4500	 4.5700
 0.4510	 4.5200
 0.4520	 4.5100
 0.4530	 4.5500
 0.4540	 4.4300
 0.4550	 4.5900
 0.4560	 4.5200
 0.4570	 4.5100
 0.4580	 4.4400
 0.4590	 4.4900
 0.4600	 4.4300
 0.4610	 4.4900
 0.4620	 4.4400
 0.4630	 4.4500
 0.4640	 4.5000
 0.4650	 4.5100
 0.4660	 4.4400
 0.4670	 4.4400
 0.4680	 4.4900
 0.4690	 4.4900
 0.4700	 4.4400
 0.4710	 4.4400
 0.4720	 4.3700
 0.4730	 4.5500
 0.4740	 4.3800
 0.4750	 4.4300
 0.4760	 4.4300
 0.4770	 4.4900
 0.4780	 4.4900
 0.4790	 4.4400
 0.4800	 4.3800
 0.4810	 4.4400
 0.4820	 4.4900
 0.4830	 4.3600
 0.4840	 4.4200
 0.4850	 4.4200
 0.4860	 4.4800
 0.4870	 4.4200
 0.4880	 4.4100
 0.4890	 4.4600
 0.4900	 4.5100
 0.4910	 4.5000
 0.4920	 4.5500
 0.4930	 4.4200
 0.4940	 4.5400
 0.4950	 4.4700
 0.4960	 4.5200
 0.4970	 4.4600
 0.4980	 4.5700
 0.4990	 4.5700
 0.5000	 4.5100
 0.5010	 4.4500
 0.5020	 4.5000
 0.5030	 4.5000
 0.5040	 4.5600
 0.5050	 4.5000
 0.5060	 4.4500
 0.5070	 4.5600
 0.5080	 4.5100
 0.5090	 4.5100
 0.5100	 4.5100
 0.5110	 4.5800
 0.5120	 4.5200
 0.5130	 4.5700
 0.5140	 4.5600
 0.5150	 4.5500
 0.5160	 4.6700
 0.5170	 4.5600
 0.5180	 4.5600
 0.5190	 4.5600
 0.5200	 4.6700
 0.5210	 4.5600
 0.5220	 4.6100
 0.5230	 4.6600
 0.5240	 4.7000
 0.5250	 4.7100
 0.5260	 4.6600
 0.5270	 4.6600
 0.5280	 4.7800
 0.5290	 4.7600
 0.5300	 4.7100
 0.5310	 4.7900
 0.5320	 4.7900
 0.5330	 4.8500
 0.5340	 4.7700
 0.5350	 4.8000
 0.5360	 4.8600
 0.5370	 4.9200
 0.5380	 4.9800
 0.5390	 4.9800
 0.5400	 4.9200
 0.5410	 5.0900
 0.5420	 5.0300
 0.5430	 5.0700
 0.5440	 5.1300
 0.5450	 5.1800
 0.5460	 5.2800
 0.5470	 5.2700
 0.5480	 5.2600
 0.5490	 5.3700
 0.5500	 5.4800
 0.5510	 5.5400
 0.5520	 5.5400
 0.5530	 5.6000
 0.5540	 5.8200
 0.5550	 5.8100
 0.5560	 5.8700
 0.5570	 6.0100
 0.5580	 6.0900
 0.5590	 6.1200
 0.5600	 6.1400
 0.5610	 6.5900
 0.5620	 6.7500
 0.5630	 6.8600
 0.5640	 7.0400
 0.5650	 7.1500
 0.5660	 7.4400
 0.5670	 7.4500
 0.5680	 7.6200
 0.5690	 7.8500
 0.5700	 8.0200
 0.5710	 8.3000
 0.5720	 8.4700
 0.5730	 8.5600
 0.5740	 8.8600
 0.5750	 9.0500
 0.5760	 9.3200
 0.5770	 9.5100
 0.5780	 9.6400
 0.5790	10.0000
 0.5800	10.2700
 0.5810	10.4500
 0.5820	10.6900
 0.5830	10.9000
 0.5840	11.2000
 0.5850	11.3700
 0.5860	11.6600
 0.5870	11.9700
 0.5880	12.0900
 0.5890	12.3900
 0.5900	12.4800
 0.5910	12.6500
 0.5920	12.9600
 0.5930	13.1600
 0.5940	13.4000
 0.5950	13.6100
 0.5960	13.6700
 0.5970	13.8800
 0.5980	14.0000
 0.5990	14.1600
 0.6000	14.4000
 0.6010	14.4300
 0.6020	14.6900
 0.6030	14.7500
 0.6040	14.8900
 0.6050	15.1100
 0.6060	15.1700
 0.6070	15.2700
 0.6080	15.3000
 0.6090	15.3900
 0.6100	15.6100
 0.6110	15.5800
 0.6120	15.6100
 0.6130	15.7400
 0.6140	15.7900
 0.6150	15.9700
 0.6160	15.9500
 0.6170	15.9400
 0.6180	16.1000
 0.6190	16.1900
 0.6200	16.2200
 0.6210	16.3000
 0.6220	16.2700
 0.6230	16.4400
 0.6240	16.3700
 0.6250	16.4100
 0.6260	16.4500
 0.6270	16.5100
 0.6280	16.5700
 0.6290	16.6100
 0.6300	16.5800
 0.6310	16.7000
 0.6320	16.8100
 0.6330	16.8300
 0.6340	16.8700
 0.6350	16.8100
 0.6360	16.9400
 0.6370	16.9300
 0.6380	16.9900
 0.6390	17.1400
 0.6400	17.0400
 0.6410	17.2400
 0.6420	17.2200
 0.6430	17.1500
 0.6440	17.3600
 0.6450	17.3800
 0.6460	17.4500
 0.6470	17.4800
 0.6480	17.4400
 0.6490	17.6200
 0.6500	17.6000
 0.6510	17.6500
 0.6520	17.7900
 0.6530	17.7800
 0.6540	17.9600
 0.6550	17.9400
 0.6560	17.9300
 0.6570	18.0900
 0.6580	18.1700
 0.6590	18.2300
 0.6600	18.2300
 0.6610	18.2500
 0.6620	18.4000
 0.6630	18.4000
 0.6640	18.5300
 0.6650	18.6100
 0.6660	18.6400
 0.6670	18.7200
 0.6680	18.7300
 0.6690	18.7100
 0.6700	18.9200
 0.6710	18.9900
 0.6720	19.0800
 0.6730	19.1500
 0.6740	19.1800
 0.6750	19.4000
 0.6760	19.4500
 0.6770	19.4700
 0.6780	19.6000
 0.6790	19.6400
 0.6800	19.8400
 0.6810	19.8700
 0.6820	19.8900
 0.6830	20.0700
 0.6840	20.1900
 0.6850	20.2300
 0.6860	20.3200
 0.6870	20.3600
 0.6880	20.5100
 0.6890	20.6400
 0.6900	20.6400
 0.6910	20.8000
 0.6920	20.8900
 0.6930	21.0200
 0.6940	21.1100
 0.6950	21.1300
 0.6960	21.3400
 0.6970	21.4200
 0.6980	21.4900
 0.6990	21.6700
 0.7000	21.5800
 0.7010	21.6700
 0.7020	21.8100
 0.7030	22.0100
 0.7040	22.1000
 0.7050	22.2400
 0.7060	22.2800
 0.7070	22.4700
 0.7080	22.6400
 0.7090	22.6500
 0.7100	22.7000
 0.7110	22.8200
 0.7120	22.9500
 0.7130	23.1100
 0.7140	23.1100
 0.7150	23.2200
 0.7160	23.3500
 0.7170	23.3100
 0.7180	23.4500
 0.7190	23.5500
 0.7200	23.6400
 0.7210	23.8500
 0.7220	23.8700
 0.7230	23.8800
 0.7240	23.9900
 0.7250	23.9900
 0.7260	24.0900
 0.7270	24.1400
 0.7280	24.2200
 0.7290	24.3400
 0.7300	24.3900
 0.7310	24.3700
 0.7320	24.4800
 0.7330	24.5100
 0.7340	24.6600
 0.7350	24.6300
 0.7360	24.5800
 0.7370	24.6900
 0.7380	24.7500
 0.7390	24.7300
 0.7400	24.7000
 0.7410	24.8100
 0.7420	24.8800
 0.7430	24.8500
 0.7440	24.8200
 0.7450	24.8700
 0.7460	24.8900
 0.7470	24.8700
 0.7480	24.8600
 0.7490	24.8000
 0.7500	24.8500
 0.7510	24.8900
 0.7520	24.8800
 0.7530	24.8600
 0.7540	24.8300
 0.7550	24.8300
 0.7560	24.7900
 0.7570	24.7000
 0.7580	24.7600
 0.7590	24.6300
 0.7600	24.7100
 0.7610	24.6600
 0.7620	24.5300
 0.7630	24.5400
 0.7640	24.5200
 0.7650	24.5200
 0.7660	24.3900
 0.7670	24.4500
 0.7680	24.4800
 0.7690	24.3100
 0.7700	24.2300
 0.7710	24.1900
 0.7720	24.1900
 0.7730	24.1600
 0.7740	24.0600
 0.7750	23.9500
 0.7760	23.9300
 0.7770	23.9200
 0.7780	23.9100
 0.7790	23.8000
 0.7800	23.7900
 0.7810	23.7000
 0.7820	23.5900
 0.7830	23.4900
 0.7840	23.4100
 0.7850	23.3900
 0.7860	23.3900
 0.7870	23.3500
 0.7880	23.1400
 0.7890	23.1900
 0.7900	23.0800
 0.7910	23.1200
 0.7920	22.9300
 0.7930	23.0000
 0.7940	22.9500
 0.7950	22.8700
 0.7960	22.7100
 0.7970	22.7100
 0.7980	22.6300
 0.7990	22.6400
 0.8000	23.1000
 0.8040	22.7700
 0.8080	22.5500
 0.8120	22.3600
 0.8160	22.2600
 0.8200	22.1000
 0.8240	21.8300
 0.8280	21.7400
 0.8320	21.5600
 0.8360	21.3900
 0.8400	21.4100
 0.8440	21.3600
 0.8480	21.3300
 0.8520	21.3600
 0.8560	21.2800
 0.8600	21.2900
 0.8640	21.2500
 0.8680	21.3100
 0.8720	21.4900
 0.8760	21.5200
 0.8800	21.6300
 0.8840	21.7300
 0.8880	21.8200
 0.8920	21.9300
 0.8960	22.0900
 0.9000	22.2800
 0.9040	22.5400
 0.9080	22.6900
 0.9120	22.9300
 0.9160	23.2000
 0.9200	23.4400
 0.9240	23.7500
 0.9280	24.0400
 0.9320	24.2800
 0.9360	24.6100
 0.9400	24.9100
 0.9440	25.2900
 0.9480	25.6800
 0.9520	26.0400
 0.9560	26.3900
 0.9600	26.7200
 0.9640	27.1200
 0.9680	27.3600
 0.9720	27.6300
 0.9760	28.0100
 0.9800	28.3400
 0.9840	28.6800
 0.9880	28.9900
 0.9920	29.1800
 0.9960	29.4000
 1.0000	29.5000
 1.0040	29.8300
 1.0080	30.0500
 1.0120	30.1200
 1.0160	30.2000
 1.0200	30.2600
 1.0240	30.4000
 1.0280	30.5000
 1.0320	30.5400
 1.0360	30.5400
 1.0400	30.6400
 1.0440	30.6700
 1.0480	30.6400
 1.0520	30.6900
 1.0560	30.7000
 1.0600	30.6700
 1.0640	30.6700
 1.0680	30.6400
 1.0720	30.5600
 1.0760	30.5900
 1.0800	30.5700
 1.0840	30.6100
 1.0880	30.5900
 1.0920	30.5400
 1.0960	30.4800
 1.1000	30.3600
 1.1040	30.3800
 1.1080	30.3400
 1.1120	30.3100
 1.1160	30.4000
 1.1200	30.2800
 1.1240	30.1800
 1.1280	30.0700
 1.1320	30.1600
 1.1360	30.0700
 1.1400	30.0800
 1.1440	29.9100
 1.1480	29.8700
 1.1520	29.8100
 1.1560	29.7100
 1.1600	29.6300
 1.1640	29.6800
 1.1680	29.6000
 1.1720	29.5100
 1.1760	29.4900
 1.1800	29.3800
 1.1840	29.2900
 1.1880	29.2600
 1.1920	29.2000
 1.1960	29.1300
 1.2000	29.0800
 1.2040	28.9900
 1.2080	28.8500
 1.2120	28.8800
 1.2160	28.8100
 1.2200	28.7700
 1.2240	28.7000
 1.2280	28.6100
 1.2320	28.5100
 1.2360	28.4800
 1.2400	28.4500
 1.2440	28.4400
 1.2480	28.4000
 1.2520	28.2500
 1.2560	28.1700
 1.2600	28.1300
 1.2640	28.0900
 1.2680	28.0600
 1.2720	27.9800
 1.2760	27.9400
 1.2800	27.8400
 1.2840	27.7700
 1.2880	27.7900
 1.2920	27.7400
 1.2960	27.7500
 1.3000	27.6700
 1.3040	27.5700
 1.3080	27.5100
 1.3120	27.4400
 1.3160	27.3900
 1.3200	27.3700
 1.3240	27.3700
 1.3280	27.2700
 1.3320	27.1600
 1.3360	27.1700
 1.3400	27.0900
 1.3440	27.0700
 1.3480	27.0400
 1.3520	26.9900
 1.3560	26.8900
 1.3600	26.9200
 1.3640	26.8200
 1.3680	26.8900
 1.3720	26.7900
 1.3760	26.7500
 1.3800	26.7000
 1.3840	26.6900
 1.3880	26.6600
 1.3920	26.6300
 1.3960	26.6400
 1.4000	26.6000
 1.4040	26.5300
 1.4080	26.4200
 1.4120	26.4700
 1.4160	26.4800
 1.4200	26.4400
 1.4240	26.3900
 1.4280	26.3800
 1.4320	26.3200
 1.4360	26.3000
 1.4400	26.2700
 1.4440	26.2700
 1.4480	26.2900
 1.4520	26.2200
 1.4560	26.2100
 1.4600	26.2000
 1.4640	26.1700
 1.4680	26.1900
 1.4720	26.1400
 1.4760	26.0700
 1.4800	26.0400
 1.4840	26.0400
 1.4880	26.1100
 1.4920	26.1000
 1.4960	26.1000
 1.5000	25.9500
 1.5040	26.0200
 1.5080	25.9800
 1.5120	25.9100
 1.5160	25.9300
 1.5200	25.8900
 1.5240	25.8900
 1.5280	25.9100
 1.5320	25.9100
 1.5360	25.8600
 1.5400	25.8600
 1.5440	25.7900
 1.5480	25.8300
 1.5520	25.8400
 1.5560	25.8000
 1.5600	25.8400
 1.5640	25.8300
 1.5680	25.8300
 1.5720	25.7800
 1.5760	25.8200
 1.5800	25.7800
 1.5840	25.8100
 1.5880	25.7500
 1.5920	25.6900
 1.5960	25.7200
 1.6000	25.7200
 1.6040	25.7700
 1.6080	25.7400
 1.6120	25.6900
 1.6160	25.6900
 1.6200	25.6700
 1.6240	25.7500
 1.6280	25.7000
 1.6320	25.7000
 1.6360	25.6900
 1.6400	25.6400
 1.6440	25.7500
 1.6480	25.6200
 1.6520	25.7300
 1.6560	25.6800
 1.6600	25.6900
 1.6640	25.6400
 1.6680	25.7500
 1.6720	25.7000
 1.6760	25.7400
 1.6800	25.6800
 1.6840	25.6700
 1.6880	25.6100
 1.6920	25.7300
 1.6960	25.6900
 1.7000	25.7900
 1.7040	25.8200
 1.7080	25.7500
 1.7120	25.7500
 1.7160	25.7100
 1.7200	25.7400
 1.7240	25.7800
 1.7280	25.8100
 1.7320	25.7000
 1.7360	25.7000
 1.7400	25.7200
 1.7440	25.7800
 1.7480	25.7500
 1.7520	25.7000
 1.7560	25.7000
 1.7600	25.7300
 1.7640	25.7700
 1.7680	25.8300
 1.7720	25.8100
 1.7760	25.7700
 1.7800	25.8000
 1.7840	25.8000
 1.7880	25.7600
 1.7920	25.8400
 1.7960	25.7900
 1.8000	25.8400
 1.8040	25.8600
 1.8080	25.8600
 1.8120	25.7900
 1.8160	25.8200
 1.8200	25.8500
 1.8240	25.8400
 1.8280	25.9000
 1.8320	25.8800
 1.8360	25.8300
 1.8400	25.8600
 1.8440	25.8900
 1.8480	25.9100
 1.8520	25.9000
 1.8560	25.9200
 1.8600	25.9900
 1.8640	25.8700
 1.8680	25.9300
 1.8720	25.9600
 1.8760	25.9400
 1.8800	25.9300
 1.8840	25.9400
 1.8880	25.9300
 1.8920	26.0000
 1.8960	26.0300
 1.9000	25.9500
 1.9040	25.9700
 1.9080	25.9500
 1.9120	25.9600
 1.9160	26.0400
 1.9200	25.9900
 1.9240	26.1100
 1.9280	26.0900
 1.9320	26.0900
 1.9360	26.1000
 1.9400	26.1000
 1.9440	26.1100
 1.9480	26.1900
 1.9520	26.2000
 1.9560	26.1400
 1.9600	26.1400
 1.9640	26.1900
 1.9680	26.2100
 1.9720	26.3100
 1.9760	26.2900
 1.9800	26.2900
 1.9840	26.3300
 1.9880	26.3600
 1.9920	26.4200
 1.9960	26.4500
 2.0000	26.5500
 2.0040	26.5200
 2.0080	26.4600
 2.0120	26.4900
 2.0160	26.5200
 2.0200	26.5200
 2.0240	26.5700
 2.0280	26.6800
 2.0320	26.6100
 2.0360	26.6400
 2.0400	26.6900
 2.0440	26.7400
 2.0480	26.7100
 2.0520	26.7300
 2.0560	26.7400
 2.0600	26.7300
 2.0640	26.8000
 2.0680	26.8100
 2.0720	26.8200
 2.0760	26.8300
 2.0800	26.8600
 2.0840	26.9200
 2.0880	26.8600
 2.0920	26.9100
 2.0960	26.9700
 2.1000	27.0200
 2.1040	27.0700
 2.1080	27.0000
 2.1120	27.0600
 2.1160	27.1000
 2.1200	27.1400
 2.1240	27.1900
 2.1280	27.1200
 2.1320	27.1700
 2.1360	27.1500
 2.1400	27.2000
 2.1440	27.2600
 2.1480	27.1000
 2.1520	27.2100
 2.1560	27.1300
 2.1600	27.1500
 2.1640	27.2400
 2.1680	27.2000
 2.1720	27.2000
 2.1760	27.1300
 2.1800	27.1600
 2.1840	27.2200
 2.1880	27.2500
 2.1920	27.2200
 2.1960	27.2600
 2.2000	27.1900
 2.2040	27.3000
 2.2080	27.2100
 2.2120	27.3200
 2.2160	27.3700
 2.2200	27.3200
 2.2240	27.3300
 2.2280	27.3500
 2.2320	27.3800
 2.2360	27.4300
 2.2400	27.4300
 2.2440	27.4300
 2.2480	27.4300
 2.2520	27.4400
 2.2560	27.4700
 2.2600	27.5400
 2.2640	27.5300
 2.2680	27.6300
 2.2720	27.6200
 2.2760	27.6700
 2.2800	27.6400
 2.2840	27.6900
 2.2880	27.7500
 2.2920	27.7600
 2.2960	27.8300
 2.3000	27.7300
 2.3040	27.7600
 2.3080	27.7600
 2.3120	27.8400
 2.3160	27.8300
 2.3200	27.9200
 2.3240	27.9300
 2.3280	27.9600
 2.3320	27.9600
 2.3360	27.9600
 2.3400	27.9300
 2.3440	28.0100
 2.3480	28.0800
 2.3520	28.0900
 2.3560	28.0400
 2.3600	28.0800
 2.3640	28.0300
 2.3680	28.0500
 2.3720	28.0700
 2.3760	28.1700
 2.3800	28.1900
 2.3840	28.2100
 2.3880	28.2000
 2.3920	28.2100
 2.3960	28.2100
 2.4000	28.2200
 2.4040	28.2500
 2.4080	28.3000
 2.4120	28.3100
 2.4160	28.3200
 2.4200	28.2600
 2.4240	28.3200
 2.4280	28.3100
 2.4320	28.3800
 2.4360	28.3600
 2.4400	28.4000
 2.4440	28.3500
 2.4480	28.3400
 2.4520	28.3900
 2.4560	28.4200
 2.4600	28.4100
 2.4640	28.4300
 2.4680	28.4500
 2.4720	28.4500
 2.4760	28.4300
 2.4800	28.4500
 2.4840	28.5100
 2.4880	28.5900
 2.4920	28.5800
 2.4960	28.7100
 2.5000	28.8000
