Name: Titanite (Sphene) CaTiSiO_5
Type: Mineral
Class: Silicate
Subclass: Nesosilicate
Particle Size: Medium
Sample No.: NS-7A
Owner: JPL
Wavelength Range: VSWIR
Origin: Brazil, Minas Gerais, Capelinha
Collection Date: N/A
Description: Particle size was 45-125um.Collected by JPL Original ASTER Spectral Library name was jpl.beckman.mineral.silicate.nesosilicate.medium.ns07a.spectrum.txt
Measurement: Hemispherical reflectance
First Column: X
Second Column: Y
X Units: Wavelength (micrometers)
Y Units:Reflectance (percent)
First X Value:  0.4000
Last X Value:  2.5000
Number of X Values: 826
Additional Information: mineral.silicate.nesosilicate.medium.vswir.ns-7a.jpl.beckman.ancillary.txt

 0.4000	26.1900
 0.4010	26.8800
 0.4020	27.3900
 0.4030	28.0600
 0.4040	28.6600
 0.4050	29.2600
 0.4060	29.7400
 0.4070	30.2000
 0.4080	30.7000
 0.4090	31.2000
 0.4100	31.7600
 0.4110	32.2500
 0.4120	33.0100
 0.4130	33.5000
 0.4140	34.0700
 0.4150	34.7500
 0.4160	35.3500
 0.4170	35.8900
 0.4180	36.4200
 0.4190	36.9800
 0.4200	37.5000
 0.4210	38.0100
 0.4220	38.5400
 0.4230	39.1700
 0.4240	39.6400
 0.4250	40.2700
 0.4260	40.7700
 0.4270	41.2700
 0.4280	41.8700
 0.4290	42.3900
 0.4300	42.9000
 0.4310	43.3100
 0.4320	43.8800
 0.4330	44.4400
 0.4340	45.0900
 0.4350	45.5400
 0.4360	46.0300
 0.4370	46.4700
 0.4380	46.9200
 0.4390	47.3400
 0.4400	47.6900
 0.4410	48.1400
 0.4420	48.5900
 0.4430	49.0900
 0.4440	49.5100
 0.4450	49.9900
 0.4460	50.5000
 0.4470	50.9800
 0.4480	51.2800
 0.4490	51.7300
 0.4500	52.1100
 0.4510	52.4000
 0.4520	52.8500
 0.4530	53.2400
 0.4540	53.6000
 0.4550	53.9900
 0.4560	54.4000
 0.4570	54.7400
 0.4580	54.9900
 0.4590	55.2500
 0.4600	55.4600
 0.4610	56.2700
 0.4620	56.6000
 0.4630	56.9800
 0.4640	57.4400
 0.4650	57.6700
 0.4660	57.8900
 0.4670	58.2300
 0.4680	58.4800
 0.4690	58.7600
 0.4700	59.0500
 0.4710	59.3800
 0.4720	59.8100
 0.4730	60.2300
 0.4740	60.4800
 0.4750	60.8200
 0.4760	61.0400
 0.4770	61.3600
 0.4780	61.6000
 0.4790	61.8400
 0.4800	62.0600
 0.4810	62.3600
 0.4820	62.6200
 0.4830	63.0000
 0.4840	63.3000
 0.4850	63.6500
 0.4860	64.0000
 0.4870	64.2800
 0.4880	64.5200
 0.4890	64.7800
 0.4900	64.9100
 0.4910	65.2000
 0.4920	65.4600
 0.4930	65.7800
 0.4940	65.9900
 0.4950	66.2100
 0.4960	66.4200
 0.4970	66.5700
 0.4980	66.8500
 0.4990	67.1100
 0.5000	67.3400
 0.5010	67.6100
 0.5020	67.9300
 0.5030	68.1200
 0.5040	68.3600
 0.5050	68.5900
 0.5060	68.7100
 0.5070	68.8100
 0.5080	68.9300
 0.5090	69.1500
 0.5100	69.4200
 0.5110	69.5800
 0.5120	69.7400
 0.5130	70.1200
 0.5140	70.4100
 0.5150	70.4900
 0.5160	70.6700
 0.5170	70.7500
 0.5180	70.9000
 0.5190	71.0700
 0.5200	71.2800
 0.5210	71.3400
 0.5220	71.3900
 0.5230	71.5400
 0.5240	71.7200
 0.5250	71.8200
 0.5260	71.8200
 0.5270	71.9900
 0.5280	72.2300
 0.5290	72.2900
 0.5300	72.5000
 0.5310	72.5300
 0.5320	72.6500
 0.5330	72.7000
 0.5340	72.6200
 0.5350	72.5900
 0.5360	72.6800
 0.5370	72.8800
 0.5380	72.9800
 0.5390	73.0000
 0.5400	73.1700
 0.5410	73.2100
 0.5420	73.3500
 0.5430	73.4000
 0.5440	73.3900
 0.5450	73.3600
 0.5460	73.4500
 0.5470	73.5600
 0.5480	73.4900
 0.5490	73.5200
 0.5500	73.5500
 0.5510	73.5600
 0.5520	73.5300
 0.5530	73.5500
 0.5540	73.6800
 0.5550	73.6500
 0.5560	73.6800
 0.5570	73.6800
 0.5580	73.7700
 0.5590	73.7400
 0.5600	73.6500
 0.5610	74.0200
 0.5620	73.9900
 0.5630	74.0500
 0.5640	73.8600
 0.5650	73.8100
 0.5660	73.6700
 0.5670	73.5300
 0.5680	73.4400
 0.5690	73.5100
 0.5700	73.4300
 0.5710	73.3900
 0.5720	73.3900
 0.5730	73.3900
 0.5740	73.3000
 0.5750	73.3200
 0.5760	73.1200
 0.5770	73.0100
 0.5780	73.0600
 0.5790	73.0600
 0.5800	72.9100
 0.5810	72.7800
 0.5820	72.6900
 0.5830	72.6000
 0.5840	72.5900
 0.5850	72.4500
 0.5860	72.4100
 0.5870	72.4300
 0.5880	72.5100
 0.5890	72.6100
 0.5900	72.5100
 0.5910	72.4400
 0.5920	72.4700
 0.5930	72.3700
 0.5940	72.2300
 0.5950	72.3000
 0.5960	72.4300
 0.5970	72.3700
 0.5980	72.3700
 0.5990	72.4800
 0.6000	72.5200
 0.6010	72.6200
 0.6020	72.6000
 0.6030	72.5600
 0.6040	72.6200
 0.6050	72.5200
 0.6060	72.6500
 0.6070	72.5800
 0.6080	72.6100
 0.6090	72.6400
 0.6100	72.5800
 0.6110	72.7100
 0.6120	72.7400
 0.6130	72.7500
 0.6140	72.8000
 0.6150	72.7900
 0.6160	72.9800
 0.6170	73.1100
 0.6180	73.1300
 0.6190	73.1700
 0.6200	73.1700
 0.6210	73.1500
 0.6220	73.2000
 0.6230	73.3900
 0.6240	73.5900
 0.6250	73.6100
 0.6260	73.8300
 0.6270	73.9700
 0.6280	74.1200
 0.6290	74.2100
 0.6300	74.3000
 0.6310	74.4100
 0.6320	74.5500
 0.6330	74.6800
 0.6340	74.9100
 0.6350	74.8600
 0.6360	75.0000
 0.6370	75.1500
 0.6380	75.2900
 0.6390	75.4400
 0.6400	75.5500
 0.6410	75.7100
 0.6420	75.9000
 0.6430	76.0400
 0.6440	76.2900
 0.6450	76.4100
 0.6460	76.6600
 0.6470	76.6800
 0.6480	76.8000
 0.6490	76.8900
 0.6500	77.0400
 0.6510	77.2000
 0.6520	77.3700
 0.6530	77.5900
 0.6540	77.7100
 0.6550	78.0100
 0.6560	78.1500
 0.6570	78.2600
 0.6580	78.4000
 0.6590	78.5600
 0.6600	78.6900
 0.6610	78.8300
 0.6620	79.0300
 0.6630	79.1700
 0.6640	79.3400
 0.6650	79.4400
 0.6660	79.5200
 0.6670	79.6200
 0.6680	79.8000
 0.6690	79.9700
 0.6700	79.9700
 0.6710	80.2200
 0.6720	80.2800
 0.6730	80.5600
 0.6740	80.6900
 0.6750	80.8300
 0.6760	80.8800
 0.6770	80.9300
 0.6780	80.9100
 0.6790	80.9900
 0.6800	81.1800
 0.6810	81.3600
 0.6820	81.3700
 0.6830	81.5200
 0.6840	81.6700
 0.6850	81.8500
 0.6860	82.0100
 0.6870	82.0900
 0.6880	82.1500
 0.6890	82.2200
 0.6900	82.1500
 0.6910	82.3900
 0.6920	82.5100
 0.6930	82.5100
 0.6940	82.5600
 0.6950	82.5900
 0.6960	82.5700
 0.6970	82.6700
 0.6980	82.6700
 0.6990	82.5600
 0.7000	82.6600
 0.7010	82.8100
 0.7020	82.8400
 0.7030	82.8300
 0.7040	82.8800
 0.7050	83.0600
 0.7060	83.0300
 0.7070	83.2100
 0.7080	83.3900
 0.7090	83.5500
 0.7100	83.5900
 0.7110	83.6500
 0.7120	83.6100
 0.7130	83.6100
 0.7140	83.7000
 0.7150	83.8100
 0.7160	83.5900
 0.7170	83.6600
 0.7180	83.7800
 0.7190	83.7700
 0.7200	83.7200
 0.7210	83.8700
 0.7220	84.0100
 0.7230	84.1300
 0.7240	84.1900
 0.7250	84.1800
 0.7260	84.2200
 0.7270	84.2800
 0.7280	84.1800
 0.7290	84.2000
 0.7300	84.2000
 0.7310	84.2500
 0.7320	84.3100
 0.7330	84.4800
 0.7340	84.4100
 0.7350	84.5200
 0.7360	84.6700
 0.7370	84.6800
 0.7380	84.6500
 0.7390	84.6600
 0.7400	84.6000
 0.7410	84.6500
 0.7420	84.7100
 0.7430	84.5500
 0.7440	84.6000
 0.7450	84.7000
 0.7460	84.6500
 0.7470	84.6600
 0.7480	84.7800
 0.7490	84.7900
 0.7500	84.8800
 0.7510	84.9400
 0.7520	84.9500
 0.7530	84.9600
 0.7540	85.0000
 0.7550	84.9300
 0.7560	84.8200
 0.7570	84.7800
 0.7580	84.8900
 0.7590	84.9500
 0.7600	84.9500
 0.7610	85.0300
 0.7620	85.0800
 0.7630	85.1800
 0.7640	85.2800
 0.7650	85.2300
 0.7660	85.2400
 0.7670	85.1000
 0.7680	85.0800
 0.7690	85.0900
 0.7700	85.3100
 0.7710	85.3600
 0.7720	85.3000
 0.7730	85.4400
 0.7740	85.5100
 0.7750	85.4800
 0.7760	85.4200
 0.7770	85.5300
 0.7780	85.5200
 0.7790	85.5300
 0.7800	85.4800
 0.7810	85.4700
 0.7820	85.4100
 0.7830	85.3200
 0.7840	85.4400
 0.7850	85.4300
 0.7860	85.4800
 0.7870	85.6500
 0.7880	85.6600
 0.7890	85.6600
 0.7900	85.7100
 0.7910	85.6400
 0.7920	85.6400
 0.7930	85.6500
 0.7940	85.7200
 0.7950	85.4800
 0.7960	85.5400
 0.7970	85.6600
 0.7980	85.6000
 0.7990	85.5700
 0.8000	85.6900
 0.8040	85.6800
 0.8080	85.5500
 0.8120	85.6600
 0.8160	85.6700
 0.8200	85.6100
 0.8240	85.6800
 0.8280	85.6800
 0.8320	85.6000
 0.8360	85.5900
 0.8400	85.7200
 0.8440	85.7000
 0.8480	85.6000
 0.8520	85.6500
 0.8560	85.6900
 0.8600	85.6200
 0.8640	85.5800
 0.8680	85.6000
 0.8720	85.4400
 0.8760	85.3900
 0.8800	85.3100
 0.8840	85.2200
 0.8880	85.1500
 0.8920	85.2000
 0.8960	85.0900
 0.9000	84.9600
 0.9040	84.9700
 0.9080	84.9400
 0.9120	84.6600
 0.9160	84.6700
 0.9200	84.6600
 0.9240	84.5200
 0.9280	84.3700
 0.9320	84.3500
 0.9360	84.2500
 0.9400	84.0500
 0.9440	84.1100
 0.9480	84.0000
 0.9520	83.7400
 0.9560	83.7700
 0.9600	83.6600
 0.9640	83.4000
 0.9680	83.2400
 0.9720	83.0500
 0.9760	82.9200
 0.9800	82.7700
 0.9840	82.6700
 0.9880	82.5600
 0.9920	82.3500
 0.9960	82.3100
 1.0000	82.2000
 1.0040	82.0200
 1.0080	81.9800
 1.0120	81.6400
 1.0160	81.5200
 1.0200	81.4400
 1.0240	81.1900
 1.0280	81.0800
 1.0320	81.0400
 1.0360	80.8400
 1.0400	80.7000
 1.0440	80.6800
 1.0480	80.3500
 1.0520	80.1800
 1.0560	80.2700
 1.0600	79.9600
 1.0640	79.9200
 1.0680	79.9300
 1.0720	79.6900
 1.0760	79.6100
 1.0800	79.5200
 1.0840	79.3100
 1.0880	79.2800
 1.0920	79.2500
 1.0960	78.9900
 1.1000	78.9200
 1.1040	78.8700
 1.1080	78.6300
 1.1120	78.6500
 1.1160	78.6700
 1.1200	78.4200
 1.1240	78.4900
 1.1280	78.3200
 1.1320	78.1200
 1.1360	78.0800
 1.1400	78.0200
 1.1440	77.7900
 1.1480	77.7600
 1.1520	77.7700
 1.1560	77.5000
 1.1600	77.3400
 1.1640	77.3300
 1.1680	77.1500
 1.1720	77.1100
 1.1760	77.0600
 1.1800	76.8400
 1.1840	76.7200
 1.1880	76.6900
 1.1920	76.5700
 1.1960	76.3600
 1.2000	76.3700
 1.2040	76.2700
 1.2080	76.0900
 1.2120	76.0600
 1.2160	75.9600
 1.2200	75.7500
 1.2240	75.7500
 1.2280	75.7200
 1.2320	75.4500
 1.2360	75.5000
 1.2400	75.4400
 1.2440	75.2500
 1.2480	75.1700
 1.2520	75.1000
 1.2560	74.9700
 1.2600	74.8500
 1.2640	74.8100
 1.2680	74.6900
 1.2720	74.6900
 1.2760	74.5300
 1.2800	74.4700
 1.2840	74.4400
 1.2880	74.3800
 1.2920	74.2000
 1.2960	74.1200
 1.3000	73.9900
 1.3040	73.8900
 1.3080	73.9500
 1.3120	73.7400
 1.3160	73.7400
 1.3200	73.6400
 1.3240	73.4600
 1.3280	73.4200
 1.3320	73.5200
 1.3360	73.3800
 1.3400	73.2900
 1.3440	73.3400
 1.3480	73.1600
 1.3520	73.1800
 1.3560	73.0900
 1.3600	73.0300
 1.3640	73.0100
 1.3680	72.9000
 1.3720	72.8500
 1.3760	72.8100
 1.3800	72.8100
 1.3840	72.7200
 1.3880	72.6900
 1.3920	72.6400
 1.3960	72.5900
 1.4000	72.4700
 1.4040	72.4600
 1.4080	72.5100
 1.4120	72.4000
 1.4160	72.3800
 1.4200	72.3400
 1.4240	72.2400
 1.4280	72.2900
 1.4320	72.2800
 1.4360	72.1600
 1.4400	72.2400
 1.4440	72.2300
 1.4480	72.1400
 1.4520	72.0300
 1.4560	71.9000
 1.4600	71.6900
 1.4640	71.5400
 1.4680	71.2800
 1.4720	71.1200
 1.4760	71.2200
 1.4800	71.4300
 1.4840	71.6000
 1.4880	71.8100
 1.4920	72.0200
 1.4960	72.1200
 1.5000	72.2000
 1.5040	72.3400
 1.5080	72.3000
 1.5120	72.3200
 1.5160	72.3200
 1.5200	72.4200
 1.5240	72.3400
 1.5280	72.3900
 1.5320	72.4700
 1.5360	72.4400
 1.5400	72.4900
 1.5440	72.5800
 1.5480	72.5400
 1.5520	72.6100
 1.5560	72.6800
 1.5600	72.6200
 1.5640	72.6200
 1.5680	72.7200
 1.5720	72.6900
 1.5760	72.7000
 1.5800	72.8200
 1.5840	72.7300
 1.5880	72.7600
 1.5920	72.8700
 1.5960	72.8700
 1.6000	72.9100
 1.6040	72.9900
 1.6080	73.1300
 1.6120	73.0600
 1.6160	73.0100
 1.6200	73.1100
 1.6240	73.1300
 1.6280	73.1500
 1.6320	73.3100
 1.6360	73.2400
 1.6400	73.2200
 1.6440	73.3600
 1.6480	73.4200
 1.6520	73.4600
 1.6560	73.5100
 1.6600	73.5500
 1.6640	73.6300
 1.6680	73.5800
 1.6720	73.6900
 1.6760	73.8600
 1.6800	73.7300
 1.6840	73.7900
 1.6880	73.9100
 1.6920	73.9300
 1.6960	73.9600
 1.7000	74.0100
 1.7040	74.1500
 1.7080	74.0900
 1.7120	74.2000
 1.7160	74.2700
 1.7200	74.1700
 1.7240	74.2700
 1.7280	74.4700
 1.7320	74.3600
 1.7360	74.4400
 1.7400	74.5200
 1.7440	74.4400
 1.7480	74.4500
 1.7520	74.6100
 1.7560	74.5300
 1.7600	74.6000
 1.7640	74.6600
 1.7680	74.6100
 1.7720	74.6000
 1.7760	74.6600
 1.7800	74.6300
 1.7840	74.6700
 1.7880	74.8100
 1.7920	74.8300
 1.7960	74.9000
 1.8000	75.0700
 1.8040	75.0200
 1.8080	75.0600
 1.8120	75.0700
 1.8160	75.1600
 1.8200	75.0900
 1.8240	75.1200
 1.8280	75.3000
 1.8320	75.2600
 1.8360	75.3800
 1.8400	75.4300
 1.8440	75.3500
 1.8480	75.5100
 1.8520	75.5600
 1.8560	75.6200
 1.8600	75.7000
 1.8640	75.8600
 1.8680	75.7900
 1.8720	75.9200
 1.8760	75.9800
 1.8800	75.8800
 1.8840	75.9300
 1.8880	75.9800
 1.8920	75.9100
 1.8960	75.7800
 1.9000	75.9500
 1.9040	75.7800
 1.9080	75.8300
 1.9120	75.9800
 1.9160	76.0500
 1.9200	76.1000
 1.9240	76.1800
 1.9280	76.3300
 1.9320	76.3200
 1.9360	76.3300
 1.9400	76.4600
 1.9440	76.5300
 1.9480	76.5900
 1.9520	76.6000
 1.9560	76.7100
 1.9600	76.7500
 1.9640	76.8100
 1.9680	77.0100
 1.9720	77.0300
 1.9760	77.1100
 1.9800	77.1900
 1.9840	77.4600
 1.9880	77.4500
 1.9920	77.5300
 1.9960	77.7100
 2.0000	77.7200
 2.0040	77.7400
 2.0080	77.8400
 2.0120	77.8600
 2.0160	77.8800
 2.0200	77.9000
 2.0240	77.9700
 2.0280	77.9300
 2.0320	77.9200
 2.0360	78.0400
 2.0400	78.1400
 2.0440	78.0000
 2.0480	78.0200
 2.0520	78.1300
 2.0560	78.1200
 2.0600	78.2200
 2.0640	78.2400
 2.0680	78.2500
 2.0720	78.3000
 2.0760	78.4500
 2.0800	78.5500
 2.0840	78.5300
 2.0880	78.6200
 2.0920	78.7800
 2.0960	78.7300
 2.1000	78.8900
 2.1040	78.9900
 2.1080	78.9600
 2.1120	79.0500
 2.1160	79.0600
 2.1200	79.0400
 2.1240	79.1000
 2.1280	78.9700
 2.1320	78.8500
 2.1360	78.7200
 2.1400	78.6100
 2.1440	78.3300
 2.1480	77.9300
 2.1520	77.6900
 2.1560	77.1500
 2.1600	76.4600
 2.1640	75.7500
 2.1680	74.5900
 2.1720	72.9400
 2.1760	71.0500
 2.1800	68.8400
 2.1840	66.3300
 2.1880	64.0300
 2.1920	62.3300
 2.1960	60.9400
 2.2000	60.3800
 2.2040	60.4300
 2.2080	60.8200
 2.2120	61.4600
 2.2160	62.2600
 2.2200	62.9300
 2.2240	63.4500
 2.2280	63.8800
 2.2320	63.8100
 2.2360	63.7500
 2.2400	63.6500
 2.2440	63.3300
 2.2480	62.9000
 2.2520	62.6800
 2.2560	62.4500
 2.2600	62.5000
 2.2640	62.8700
 2.2680	63.5400
 2.2720	64.1300
 2.2760	64.8400
 2.2800	65.6200
 2.2840	66.3100
 2.2880	67.0200
 2.2920	67.7600
 2.2960	68.2600
 2.3000	68.8800
 2.3040	69.2200
 2.3080	70.3300
 2.3120	70.9500
 2.3160	71.6900
 2.3200	72.3100
 2.3240	72.8200
 2.3280	73.4000
 2.3320	73.8200
 2.3360	74.0800
 2.3400	74.1800
 2.3440	74.2300
 2.3480	73.9100
 2.3520	73.6100
 2.3560	72.9700
 2.3600	71.9000
 2.3640	70.5500
 2.3680	68.9100
 2.3720	66.7700
 2.3760	64.4500
 2.3800	62.1000
 2.3840	59.8000
 2.3880	57.6900
 2.3920	56.0800
 2.3960	55.1300
 2.4000	54.6200
 2.4040	54.8700
 2.4080	55.5400
 2.4120	56.6300
 2.4160	58.0100
 2.4200	59.6300
 2.4240	61.2400
 2.4280	62.6600
 2.4320	64.0000
 2.4360	65.0100
 2.4400	65.8100
 2.4440	66.4400
 2.4480	66.7200
 2.4520	66.9200
 2.4560	66.8700
 2.4600	66.6500
 2.4640	66.3600
 2.4680	66.1500
 2.4720	65.7800
 2.4760	65.3000
 2.4800	65.1700
 2.4840	64.9800
 2.4880	64.7100
 2.4920	64.5800
 2.4960	64.5000
 2.5000	64.3200
