Name: Columbite Fe^2+Nb_2O_6
Type: Mineral
Class: Oxide
Subclass: None
Particle Size: Fine
Sample No.: O-7A
Owner: JPL
Wavelength Range: VSWIR
Origin: USA, South Dakota, Pennington County, Keystone
Collection Date: N/A
Description: Particle size was 0-45um.Collected by Burminco Original ASTER Spectral Library name was jpl.beckman.mineral.oxide.none.fine.o07a.spectrum.txt
Measurement: Hemispherical reflectance
First Column: X
Second Column: Y
X Units: Wavelength (micrometers)
Y Units:Reflectance (percent)
First X Value:  0.4000
Last X Value:  2.5000
Number of X Values: 826
Additional Information: mineral.oxide.none.fine.vswir.o-7a.jpl.beckman.ancillary.txt

 0.4000	 5.4100
 0.4010	 5.3500
 0.4020	 5.4100
 0.4030	 5.3500
 0.4040	 5.4000
 0.4050	 5.3400
 0.4060	 5.2700
 0.4070	 5.3300
 0.4080	 5.3400
 0.4090	 5.3400
 0.4100	 5.3900
 0.4110	 5.2700
 0.4120	 5.3400
 0.4130	 5.3400
 0.4140	 5.3800
 0.4150	 5.3300
 0.4160	 5.2100
 0.4170	 5.3400
 0.4180	 5.3400
 0.4190	 5.3400
 0.4200	 5.3200
 0.4210	 5.2700
 0.4220	 5.3300
 0.4230	 5.3400
 0.4240	 5.3900
 0.4250	 5.3200
 0.4260	 5.2600
 0.4270	 5.3800
 0.4280	 5.2700
 0.4290	 5.3800
 0.4300	 5.3900
 0.4310	 5.2700
 0.4320	 5.3900
 0.4330	 5.2700
 0.4340	 5.3100
 0.4350	 5.3900
 0.4360	 5.3300
 0.4370	 5.3800
 0.4380	 5.2700
 0.4390	 5.2700
 0.4400	 5.3300
 0.4410	 5.2800
 0.4420	 5.3300
 0.4430	 5.3200
 0.4440	 5.2000
 0.4450	 5.2500
 0.4460	 5.2400
 0.4470	 5.1900
 0.4480	 5.1900
 0.4490	 5.1300
 0.4500	 5.2500
 0.4510	 5.2000
 0.4520	 5.2000
 0.4530	 5.2000
 0.4540	 5.1900
 0.4550	 5.2900
 0.4560	 5.2100
 0.4570	 5.2500
 0.4580	 5.2400
 0.4590	 5.2400
 0.4600	 5.1800
 0.4610	 5.1900
 0.4620	 5.1900
 0.4630	 5.2400
 0.4640	 5.2500
 0.4650	 5.2400
 0.4660	 5.1300
 0.4670	 5.0800
 0.4680	 5.0200
 0.4690	 4.9700
 0.4700	 4.9600
 0.4710	 4.9600
 0.4720	 4.9200
 0.4730	 4.9200
 0.4740	 4.9100
 0.4750	 4.8000
 0.4760	 5.0400
 0.4770	 4.9100
 0.4780	 4.9100
 0.4790	 4.9000
 0.4800	 4.9000
 0.4810	 4.9700
 0.4820	 4.9000
 0.4830	 4.9400
 0.4840	 4.9900
 0.4850	 4.9200
 0.4860	 4.9300
 0.4870	 4.9400
 0.4880	 4.9200
 0.4890	 4.9100
 0.4900	 4.9000
 0.4910	 5.0100
 0.4920	 4.9400
 0.4930	 4.9300
 0.4940	 4.9200
 0.4950	 4.9700
 0.4960	 4.9100
 0.4970	 4.9000
 0.4980	 4.9500
 0.4990	 5.0100
 0.5000	 5.0000
 0.5010	 4.9400
 0.5020	 4.9900
 0.5030	 4.9900
 0.5040	 4.9900
 0.5050	 4.8800
 0.5060	 4.9900
 0.5070	 5.0500
 0.5080	 4.9900
 0.5090	 4.9500
 0.5100	 4.9500
 0.5110	 4.9500
 0.5120	 5.0100
 0.5130	 4.8900
 0.5140	 4.9500
 0.5150	 4.9300
 0.5160	 4.9300
 0.5170	 4.9400
 0.5180	 4.8800
 0.5190	 4.9400
 0.5200	 4.9300
 0.5210	 4.9300
 0.5220	 4.9400
 0.5230	 4.8800
 0.5240	 4.9900
 0.5250	 4.9900
 0.5260	 4.9500
 0.5270	 4.9500
 0.5280	 4.9400
 0.5290	 4.9500
 0.5300	 4.9400
 0.5310	 4.8900
 0.5320	 4.9500
 0.5330	 4.9800
 0.5340	 4.8900
 0.5350	 4.9300
 0.5360	 4.9900
 0.5370	 4.9300
 0.5380	 4.8700
 0.5390	 4.9400
 0.5400	 5.0000
 0.5410	 5.0000
 0.5420	 4.9400
 0.5430	 5.0000
 0.5440	 5.0500
 0.5450	 5.0400
 0.5460	 4.9700
 0.5470	 5.1300
 0.5480	 5.0600
 0.5490	 5.0500
 0.5500	 4.9900
 0.5510	 4.9700
 0.5520	 5.0900
 0.5530	 5.0700
 0.5540	 5.0600
 0.5550	 5.0600
 0.5560	 5.0200
 0.5570	 5.0300
 0.5580	 5.0000
 0.5590	 5.0900
 0.5600	 5.1000
 0.5610	 5.1600
 0.5620	 5.2200
 0.5630	 5.2900
 0.5640	 5.1700
 0.5650	 5.2300
 0.5660	 5.2300
 0.5670	 5.2300
 0.5680	 5.2300
 0.5690	 5.2200
 0.5700	 5.2700
 0.5710	 5.2200
 0.5720	 5.1700
 0.5730	 5.3000
 0.5740	 5.2200
 0.5750	 5.2600
 0.5760	 5.2200
 0.5770	 5.1800
 0.5780	 5.3100
 0.5790	 5.2000
 0.5800	 5.3200
 0.5810	 5.2800
 0.5820	 5.2200
 0.5830	 5.2800
 0.5840	 5.2300
 0.5850	 5.2200
 0.5860	 5.2800
 0.5870	 5.2700
 0.5880	 5.3900
 0.5890	 5.2300
 0.5900	 5.3500
 0.5910	 5.4000
 0.5920	 5.2800
 0.5930	 5.3400
 0.5940	 5.2900
 0.5950	 5.3400
 0.5960	 5.4500
 0.5970	 5.3200
 0.5980	 5.4300
 0.5990	 5.4100
 0.6000	 5.3200
 0.6010	 5.4600
 0.6020	 5.3700
 0.6030	 5.4800
 0.6040	 5.4200
 0.6050	 5.4100
 0.6060	 5.4500
 0.6070	 5.3900
 0.6080	 5.4900
 0.6090	 5.4300
 0.6100	 5.4300
 0.6110	 5.4300
 0.6120	 5.3800
 0.6130	 5.4300
 0.6140	 5.4900
 0.6150	 5.4900
 0.6160	 5.4300
 0.6170	 5.3300
 0.6180	 5.3900
 0.6190	 5.4500
 0.6200	 5.3800
 0.6210	 5.4300
 0.6220	 5.4300
 0.6230	 5.4400
 0.6240	 5.4800
 0.6250	 5.3800
 0.6260	 5.4800
 0.6270	 5.4200
 0.6280	 5.3800
 0.6290	 5.5100
 0.6300	 5.4500
 0.6310	 5.5600
 0.6320	 5.6100
 0.6330	 5.6000
 0.6340	 5.7900
 0.6350	 5.8400
 0.6360	 5.7800
 0.6370	 5.7800
 0.6380	 5.7800
 0.6390	 5.8300
 0.6400	 5.8900
 0.6410	 5.9600
 0.6420	 6.0200
 0.6430	 5.9500
 0.6440	 6.0500
 0.6450	 6.0500
 0.6460	 6.0500
 0.6470	 6.1100
 0.6480	 6.0500
 0.6490	 6.1100
 0.6500	 6.1000
 0.6510	 6.0600
 0.6520	 6.1100
 0.6530	 6.0700
 0.6540	 6.1400
 0.6550	 6.1300
 0.6560	 6.1800
 0.6570	 6.1700
 0.6580	 6.1700
 0.6590	 6.1100
 0.6600	 6.3000
 0.6610	 6.1800
 0.6620	 6.2300
 0.6630	 6.2200
 0.6640	 6.2300
 0.6650	 6.2900
 0.6660	 6.1800
 0.6670	 6.2500
 0.6680	 6.2400
 0.6690	 6.2400
 0.6700	 6.2300
 0.6710	 6.2300
 0.6720	 6.2900
 0.6730	 6.2400
 0.6740	 6.2900
 0.6750	 6.3500
 0.6760	 6.2900
 0.6770	 6.2400
 0.6780	 6.1900
 0.6790	 6.2600
 0.6800	 6.1900
 0.6810	 6.1300
 0.6820	 6.1700
 0.6830	 6.1200
 0.6840	 6.0500
 0.6850	 6.0100
 0.6860	 5.9400
 0.6870	 5.9300
 0.6880	 5.8900
 0.6890	 5.9400
 0.6900	 5.9600
 0.6910	 5.9100
 0.6920	 5.9600
 0.6930	 5.8900
 0.6940	 5.9400
 0.6950	 5.9400
 0.6960	 5.9500
 0.6970	 5.9700
 0.6980	 5.9100
 0.6990	 6.0100
 0.7000	 6.0500
 0.7010	 5.9800
 0.7020	 6.0500
 0.7030	 6.0600
 0.7040	 6.0600
 0.7050	 6.1200
 0.7060	 6.0000
 0.7070	 6.1000
 0.7080	 6.1100
 0.7090	 6.1200
 0.7100	 6.1300
 0.7110	 6.0700
 0.7120	 6.1800
 0.7130	 6.1100
 0.7140	 6.1700
 0.7150	 6.1900
 0.7160	 6.1800
 0.7170	 6.1800
 0.7180	 6.1700
 0.7190	 6.2300
 0.7200	 6.2400
 0.7210	 6.2500
 0.7220	 6.2400
 0.7230	 6.2300
 0.7240	 6.2800
 0.7250	 6.2200
 0.7260	 6.2300
 0.7270	 6.2800
 0.7280	 6.3300
 0.7290	 6.3400
 0.7300	 6.3400
 0.7310	 6.3600
 0.7320	 6.3500
 0.7330	 6.2800
 0.7340	 6.3900
 0.7350	 6.3900
 0.7360	 6.4000
 0.7370	 6.4000
 0.7380	 6.3900
 0.7390	 6.3900
 0.7400	 6.5100
 0.7410	 6.5200
 0.7420	 6.4600
 0.7430	 6.5600
 0.7440	 6.5000
 0.7450	 6.5000
 0.7460	 6.5100
 0.7470	 6.5000
 0.7480	 6.6100
 0.7490	 6.5000
 0.7500	 6.5700
 0.7510	 6.5700
 0.7520	 6.6200
 0.7530	 6.6700
 0.7540	 6.6100
 0.7550	 6.6200
 0.7560	 6.6100
 0.7570	 6.6100
 0.7580	 6.7300
 0.7590	 6.6200
 0.7600	 6.6800
 0.7610	 6.7300
 0.7620	 6.7100
 0.7630	 6.7200
 0.7640	 6.7200
 0.7650	 6.7800
 0.7660	 6.8300
 0.7670	 6.9500
 0.7680	 6.9000
 0.7690	 6.8400
 0.7700	 6.8900
 0.7710	 6.9400
 0.7720	 6.8900
 0.7730	 6.9600
 0.7740	 7.0100
 0.7750	 6.9500
 0.7760	 6.8900
 0.7770	 6.9600
 0.7780	 6.9600
 0.7790	 6.9600
 0.7800	 7.0000
 0.7810	 7.0600
 0.7820	 7.0000
 0.7830	 7.0600
 0.7840	 7.0500
 0.7850	 7.1200
 0.7860	 7.1300
 0.7870	 7.0800
 0.7880	 7.1200
 0.7890	 7.1000
 0.7900	 7.1100
 0.7910	 7.1700
 0.7920	 7.1100
 0.7930	 7.2200
 0.7940	 7.2300
 0.7950	 7.3000
 0.7960	 7.3100
 0.7970	 7.2900
 0.7980	 7.2300
 0.7990	 7.2600
 0.8000	 7.5200
 0.8040	 7.5600
 0.8080	 7.5600
 0.8120	 7.6500
 0.8160	 7.6700
 0.8200	 7.7700
 0.8240	 7.7200
 0.8280	 7.8100
 0.8320	 7.8800
 0.8360	 7.9200
 0.8400	 7.9800
 0.8440	 8.0600
 0.8480	 8.1200
 0.8520	 8.1300
 0.8560	 8.1900
 0.8600	 8.2500
 0.8640	 8.3800
 0.8680	 8.3900
 0.8720	 8.4900
 0.8760	 8.5100
 0.8800	 8.6200
 0.8840	 8.6800
 0.8880	 8.7500
 0.8920	 8.8000
 0.8960	 8.8100
 0.9000	 8.9300
 0.9040	 8.9300
 0.9080	 8.9400
 0.9120	 9.0400
 0.9160	 9.1100
 0.9200	 9.1100
 0.9240	 9.2200
 0.9280	 9.2600
 0.9320	 9.3200
 0.9360	 9.4100
 0.9400	 9.5200
 0.9440	 9.5400
 0.9480	 9.6300
 0.9520	 9.7000
 0.9560	 9.6600
 0.9600	 9.7100
 0.9640	 9.8700
 0.9680	 9.8300
 0.9720	 9.8600
 0.9760	 9.9800
 0.9800	10.0000
 0.9840	10.0700
 0.9880	10.1100
 0.9920	10.0800
 0.9960	10.2300
 1.0000	10.2700
 1.0040	10.2900
 1.0080	10.3100
 1.0120	10.4000
 1.0160	10.4300
 1.0200	10.5700
 1.0240	10.5800
 1.0280	10.5900
 1.0320	10.6100
 1.0360	10.6100
 1.0400	10.6700
 1.0440	10.7500
 1.0480	10.6800
 1.0520	10.8000
 1.0560	10.7700
 1.0600	10.8200
 1.0640	10.9000
 1.0680	10.9600
 1.0720	10.9600
 1.0760	11.0800
 1.0800	11.0900
 1.0840	11.1500
 1.0880	11.1700
 1.0920	11.2100
 1.0960	11.2300
 1.1000	11.2800
 1.1040	11.2900
 1.1080	11.3000
 1.1120	11.2500
 1.1160	11.3500
 1.1200	11.3300
 1.1240	11.3000
 1.1280	11.4300
 1.1320	11.4300
 1.1360	11.5100
 1.1400	11.4900
 1.1440	11.5600
 1.1480	11.5200
 1.1520	11.6200
 1.1560	11.6000
 1.1600	11.6600
 1.1640	11.7100
 1.1680	11.7500
 1.1720	11.7900
 1.1760	11.7200
 1.1800	11.7900
 1.1840	11.8100
 1.1880	11.8400
 1.1920	11.8700
 1.1960	11.9300
 1.2000	11.8700
 1.2040	11.9900
 1.2080	12.0000
 1.2120	12.0200
 1.2160	12.0700
 1.2200	12.0500
 1.2240	12.0900
 1.2280	12.1700
 1.2320	12.1800
 1.2360	12.2500
 1.2400	12.3300
 1.2440	12.3500
 1.2480	12.3300
 1.2520	12.3200
 1.2560	12.3700
 1.2600	12.4400
 1.2640	12.5000
 1.2680	12.5600
 1.2720	12.5900
 1.2760	12.6200
 1.2800	12.6900
 1.2840	12.6600
 1.2880	12.7700
 1.2920	12.8000
 1.2960	12.8500
 1.3000	12.9000
 1.3040	12.9300
 1.3080	12.9300
 1.3120	13.0100
 1.3160	13.0700
 1.3200	13.1200
 1.3240	13.2000
 1.3280	13.2500
 1.3320	13.2700
 1.3360	13.2900
 1.3400	13.3400
 1.3440	13.4400
 1.3480	13.4300
 1.3520	13.5600
 1.3560	13.6200
 1.3600	13.5600
 1.3640	13.6500
 1.3680	13.7300
 1.3720	13.7900
 1.3760	13.8600
 1.3800	13.8600
 1.3840	13.9100
 1.3880	14.0000
 1.3920	13.9900
 1.3960	14.0400
 1.4000	14.0800
 1.4040	14.1800
 1.4080	14.2300
 1.4120	14.2200
 1.4160	14.3300
 1.4200	14.3000
 1.4240	14.3500
 1.4280	14.4000
 1.4320	14.4600
 1.4360	14.4700
 1.4400	14.5800
 1.4440	14.5600
 1.4480	14.6500
 1.4520	14.7300
 1.4560	14.7200
 1.4600	14.8000
 1.4640	14.8500
 1.4680	14.8700
 1.4720	14.8800
 1.4760	14.9000
 1.4800	14.9400
 1.4840	15.0000
 1.4880	15.0400
 1.4920	15.0300
 1.4960	15.0800
 1.5000	15.1500
 1.5040	15.1700
 1.5080	15.2900
 1.5120	15.2500
 1.5160	15.3700
 1.5200	15.3700
 1.5240	15.5000
 1.5280	15.5200
 1.5320	15.4800
 1.5360	15.5000
 1.5400	15.5400
 1.5440	15.5300
 1.5480	15.6500
 1.5520	15.6600
 1.5560	15.7000
 1.5600	15.7800
 1.5640	15.8000
 1.5680	15.8300
 1.5720	15.9500
 1.5760	16.0400
 1.5800	16.1300
 1.5840	16.1500
 1.5880	16.1800
 1.5920	16.2600
 1.5960	16.2800
 1.6000	16.3600
 1.6040	16.4200
 1.6080	16.4000
 1.6120	16.5000
 1.6160	16.5800
 1.6200	16.6300
 1.6240	16.7400
 1.6280	16.7800
 1.6320	16.8800
 1.6360	16.9800
 1.6400	17.0800
 1.6440	17.1600
 1.6480	17.2200
 1.6520	17.3200
 1.6560	17.3600
 1.6600	17.5000
 1.6640	17.5800
 1.6680	17.6200
 1.6720	17.7300
 1.6760	17.7900
 1.6800	17.9000
 1.6840	17.9900
 1.6880	18.0900
 1.6920	18.2400
 1.6960	18.3200
 1.7000	18.4500
 1.7040	18.6200
 1.7080	18.7100
 1.7120	18.8200
 1.7160	18.9200
 1.7200	19.0500
 1.7240	19.1000
 1.7280	19.2500
 1.7320	19.3700
 1.7360	19.4800
 1.7400	19.5500
 1.7440	19.7000
 1.7480	19.8900
 1.7520	19.9800
 1.7560	20.1000
 1.7600	20.2800
 1.7640	20.4400
 1.7680	20.5000
 1.7720	20.6700
 1.7760	20.8700
 1.7800	21.0100
 1.7840	21.1900
 1.7880	21.3200
 1.7920	21.4600
 1.7960	21.6300
 1.8000	21.7000
 1.8040	21.8900
 1.8080	22.0300
 1.8120	22.2100
 1.8160	22.3600
 1.8200	22.4800
 1.8240	22.6100
 1.8280	22.7300
 1.8320	22.8900
 1.8360	23.1100
 1.8400	23.2500
 1.8440	23.4000
 1.8480	23.5200
 1.8520	23.6500
 1.8560	23.8700
 1.8600	24.0300
 1.8640	24.1800
 1.8680	24.3800
 1.8720	24.5400
 1.8760	24.6800
 1.8800	24.9300
 1.8840	25.0500
 1.8880	25.2400
 1.8920	25.3800
 1.8960	25.5200
 1.9000	25.7000
 1.9040	25.8500
 1.9080	25.9800
 1.9120	26.0700
 1.9160	26.2900
 1.9200	26.4500
 1.9240	26.5200
 1.9280	26.7500
 1.9320	26.8800
 1.9360	27.0600
 1.9400	27.2300
 1.9440	27.4400
 1.9480	27.6400
 1.9520	27.8100
 1.9560	27.9800
 1.9600	28.0900
 1.9640	28.3300
 1.9680	28.4800
 1.9720	28.6200
 1.9760	28.7600
 1.9800	28.9400
 1.9840	29.1100
 1.9880	29.2800
 1.9920	29.5000
 1.9960	29.6400
 2.0000	29.8100
 2.0040	30.0100
 2.0080	30.1400
 2.0120	30.2700
 2.0160	30.5100
 2.0200	30.6700
 2.0240	30.7500
 2.0280	30.8800
 2.0320	31.0500
 2.0360	31.1600
 2.0400	31.4000
 2.0440	31.4900
 2.0480	31.6300
 2.0520	31.7600
 2.0560	31.9300
 2.0600	32.1100
 2.0640	32.2800
 2.0680	32.4200
 2.0720	32.5800
 2.0760	32.6700
 2.0800	32.8200
 2.0840	33.0100
 2.0880	33.1300
 2.0920	33.2100
 2.0960	33.4200
 2.1000	33.5300
 2.1040	33.6700
 2.1080	33.8600
 2.1120	34.0200
 2.1160	34.2200
 2.1200	34.3300
 2.1240	34.4300
 2.1280	34.5100
 2.1320	34.6500
 2.1360	34.6900
 2.1400	34.8300
 2.1440	34.9700
 2.1480	35.1100
 2.1520	35.0800
 2.1560	35.2400
 2.1600	35.3900
 2.1640	35.4500
 2.1680	35.5400
 2.1720	35.6700
 2.1760	35.7200
 2.1800	35.8300
 2.1840	35.9000
 2.1880	36.0100
 2.1920	36.0600
 2.1960	36.1300
 2.2000	36.2100
 2.2040	36.3300
 2.2080	36.4600
 2.2120	36.5400
 2.2160	36.6600
 2.2200	36.7300
 2.2240	36.8800
 2.2280	36.9400
 2.2320	37.0900
 2.2360	37.1100
 2.2400	37.2300
 2.2440	37.3300
 2.2480	37.4600
 2.2520	37.4900
 2.2560	37.6900
 2.2600	37.7300
 2.2640	37.7400
 2.2680	37.8500
 2.2720	38.0200
 2.2760	38.0400
 2.2800	38.0900
 2.2840	38.2000
 2.2880	38.2300
 2.2920	38.3600
 2.2960	38.4500
 2.3000	38.5200
 2.3040	38.5500
 2.3080	38.7200
 2.3120	38.8100
 2.3160	38.8900
 2.3200	39.0200
 2.3240	39.1100
 2.3280	39.2300
 2.3320	39.3700
 2.3360	39.3800
 2.3400	39.4800
 2.3440	39.5400
 2.3480	39.5700
 2.3520	39.6900
 2.3560	39.6900
 2.3600	39.7300
 2.3640	39.8400
 2.3680	39.8600
 2.3720	39.9600
 2.3760	40.0600
 2.3800	40.1700
 2.3840	40.2200
 2.3880	40.3000
 2.3920	40.3500
 2.3960	40.4100
 2.4000	40.4700
 2.4040	40.4900
 2.4080	40.5300
 2.4120	40.5700
 2.4160	40.6500
 2.4200	40.7400
 2.4240	40.7900
 2.4280	40.8300
 2.4320	40.8600
 2.4360	40.9300
 2.4400	40.9900
 2.4440	40.9700
 2.4480	41.0500
 2.4520	41.1500
 2.4560	41.1400
 2.4600	41.2400
 2.4640	41.3500
 2.4680	41.3700
 2.4720	41.4200
 2.4760	41.4800
 2.4800	41.5900
 2.4840	41.6900
 2.4880	41.8100
 2.4920	41.9100
 2.4960	42.0300
 2.5000	42.1200
