Name: Apatite Ca_5(PO_4)_3F
Type: Mineral
Class: Phosphate
Subclass: None
Particle Size: Fine
Sample No.: P-1A
Owner: JPL
Wavelength Range: VSWIR
Origin: Canada, Ontario, Lanark County, Perth.
Collection Date: N/A
Description: Particle size was 0-45um.Collected by:  Ward's Original ASTER Spectral Library name was jpl.perkin.mineral.phosphate.none.fine.p01a.spectrum.txt
Measurement: Hemispherical reflectance
First Column: X
Second Column: Y
X Units: Wavelength (micrometers)
Y Units:Reflectance (percent)
First X Value:  2.5000
Last X Value:  0.4000
Number of X Values: 2101
Additional Information: mineral.phosphate.none.fine.vswir.p-1a.jpl.perkin.ancillary.txt

 2.5000	77.6492
 2.4990	77.4092
 2.4980	77.5722
 2.4970	77.3133
 2.4960	77.6106
 2.4950	77.5515
 2.4940	77.7887
 2.4930	77.6369
 2.4920	77.5724
 2.4910	77.5585
 2.4900	77.7193
 2.4890	77.9143
 2.4880	77.8782
 2.4870	77.8554
 2.4860	77.8066
 2.4850	77.9752
 2.4840	77.8298
 2.4830	78.0670
 2.4820	78.1087
 2.4810	78.1069
 2.4800	78.0150
 2.4790	78.2575
 2.4780	78.1500
 2.4770	78.2766
 2.4760	78.3257
 2.4750	78.3123
 2.4740	78.3344
 2.4730	78.4832
 2.4720	78.3516
 2.4710	78.4439
 2.4700	78.4734
 2.4690	78.4626
 2.4680	78.6178
 2.4670	78.7035
 2.4660	78.6524
 2.4650	78.8673
 2.4640	78.8341
 2.4630	78.8369
 2.4620	78.7657
 2.4610	78.8012
 2.4600	78.9339
 2.4590	78.9057
 2.4580	78.9846
 2.4570	78.9973
 2.4560	79.0514
 2.4550	79.0937
 2.4540	79.1226
 2.4530	79.1916
 2.4520	79.2914
 2.4510	79.3740
 2.4500	79.4061
 2.4490	79.4638
 2.4480	79.5229
 2.4470	79.6706
 2.4460	79.6228
 2.4450	79.6038
 2.4440	79.5801
 2.4430	79.6584
 2.4420	79.7299
 2.4410	79.8487
 2.4400	79.7192
 2.4390	79.8070
 2.4380	79.8101
 2.4370	79.7424
 2.4360	79.7561
 2.4350	79.7950
 2.4340	79.7827
 2.4330	79.8759
 2.4320	80.0788
 2.4310	79.9687
 2.4300	79.9367
 2.4290	80.0200
 2.4280	80.1280
 2.4270	80.0623
 2.4260	80.1089
 2.4250	80.1912
 2.4240	80.1480
 2.4230	80.2233
 2.4220	80.1889
 2.4210	80.3230
 2.4200	80.3482
 2.4190	80.3167
 2.4180	80.3034
 2.4170	80.4209
 2.4160	80.4411
 2.4150	80.4561
 2.4140	80.4916
 2.4130	80.5565
 2.4120	80.4804
 2.4110	80.5410
 2.4100	80.5934
 2.4090	80.6551
 2.4080	80.6160
 2.4070	80.6754
 2.4060	80.6580
 2.4050	80.6069
 2.4040	80.6093
 2.4030	80.5741
 2.4020	80.5840
 2.4010	80.6763
 2.4000	80.6025
 2.3990	80.6338
 2.3980	80.5960
 2.3970	80.6056
 2.3960	80.5736
 2.3950	80.6177
 2.3940	80.5840
 2.3930	80.5700
 2.3920	80.5890
 2.3910	80.6323
 2.3900	80.6682
 2.3890	80.6491
 2.3880	80.6656
 2.3870	80.6742
 2.3860	80.6626
 2.3850	80.6993
 2.3840	80.7106
 2.3830	80.8069
 2.3820	80.8511
 2.3810	80.8841
 2.3800	80.8986
 2.3790	80.9173
 2.3780	80.9860
 2.3770	81.0642
 2.3760	81.0697
 2.3750	81.1235
 2.3740	81.1897
 2.3730	81.2718
 2.3720	81.3226
 2.3710	81.3146
 2.3700	81.3307
 2.3690	81.3427
 2.3680	81.3167
 2.3670	81.3353
 2.3660	81.3817
 2.3650	81.4805
 2.3640	81.4471
 2.3630	81.4340
 2.3620	81.4222
 2.3610	81.4094
 2.3600	81.4640
 2.3590	81.4351
 2.3580	81.3739
 2.3570	81.4276
 2.3560	81.4318
 2.3550	81.3991
 2.3540	81.3832
 2.3530	81.3312
 2.3520	81.3478
 2.3510	81.3184
 2.3500	81.2906
 2.3490	81.2493
 2.3480	81.1822
 2.3470	81.1568
 2.3460	81.1562
 2.3450	81.1357
 2.3440	81.1749
 2.3430	81.1401
 2.3420	81.0326
 2.3410	80.9959
 2.3400	81.0189
 2.3390	81.0511
 2.3380	81.0123
 2.3370	80.9278
 2.3360	80.9586
 2.3350	80.9750
 2.3340	80.9132
 2.3330	80.8659
 2.3320	80.8219
 2.3310	80.8097
 2.3300	80.7616
 2.3290	80.6742
 2.3280	80.6847
 2.3270	80.6697
 2.3260	80.6157
 2.3250	80.5325
 2.3240	80.4200
 2.3230	80.3826
 2.3220	80.3636
 2.3210	80.2786
 2.3200	80.1736
 2.3190	80.1022
 2.3180	80.0636
 2.3170	79.9939
 2.3160	80.0346
 2.3150	79.9839
 2.3140	79.9083
 2.3130	79.8763
 2.3120	79.9445
 2.3110	79.9603
 2.3100	79.9570
 2.3090	79.9751
 2.3080	80.0579
 2.3070	80.1682
 2.3060	80.2598
 2.3050	80.2301
 2.3040	80.2223
 2.3030	80.3196
 2.3020	80.4336
 2.3010	80.4888
 2.3000	80.5731
 2.2990	80.6360
 2.2980	80.6517
 2.2970	80.7373
 2.2960	80.7482
 2.2950	80.7769
 2.2940	80.8746
 2.2930	80.9224
 2.2920	80.9659
 2.2910	80.9452
 2.2900	80.9921
 2.2890	81.0280
 2.2880	81.0766
 2.2870	81.1281
 2.2860	81.1906
 2.2850	81.2442
 2.2840	81.2779
 2.2830	81.3976
 2.2820	81.4908
 2.2810	81.5846
 2.2800	81.6989
 2.2790	81.6862
 2.2780	81.7463
 2.2770	81.8634
 2.2760	81.9614
 2.2750	81.9433
 2.2740	82.0237
 2.2730	82.0553
 2.2720	82.0916
 2.2710	82.1177
 2.2700	82.2650
 2.2690	82.2174
 2.2680	82.2246
 2.2670	82.2844
 2.2660	82.3885
 2.2650	82.3712
 2.2640	82.3595
 2.2630	82.4832
 2.2620	82.4359
 2.2610	82.4816
 2.2600	82.5022
 2.2590	82.4261
 2.2580	82.4998
 2.2570	82.4595
 2.2560	82.4827
 2.2550	82.5276
 2.2540	82.5553
 2.2530	82.5408
 2.2520	82.5974
 2.2510	82.5539
 2.2500	82.6348
 2.2490	82.6083
 2.2480	82.6527
 2.2470	82.6533
 2.2460	82.6462
 2.2450	82.6191
 2.2440	82.6586
 2.2430	82.7453
 2.2420	82.7354
 2.2410	82.6966
 2.2400	82.7407
 2.2390	82.6923
 2.2380	82.7453
 2.2370	82.7336
 2.2360	82.8014
 2.2350	82.8007
 2.2340	82.7941
 2.2330	82.8119
 2.2320	82.8666
 2.2310	82.7632
 2.2300	82.8236
 2.2290	82.7640
 2.2280	82.9234
 2.2270	82.9247
 2.2260	82.8226
 2.2250	82.8390
 2.2240	82.9710
 2.2230	82.9394
 2.2220	82.9383
 2.2210	82.9685
 2.2200	82.9277
 2.2190	83.0148
 2.2180	83.0519
 2.2170	83.0751
 2.2160	83.0414
 2.2150	83.0741
 2.2140	83.1025
 2.2130	83.0721
 2.2120	83.1118
 2.2110	83.2289
 2.2100	83.1305
 2.2090	83.1285
 2.2080	83.1640
 2.2070	83.3289
 2.2060	83.2239
 2.2050	83.2442
 2.2040	83.3048
 2.2030	83.2957
 2.2020	83.3245
 2.2010	83.4425
 2.2000	83.4685
 2.1990	83.3874
 2.1980	83.4751
 2.1970	83.3895
 2.1960	83.4225
 2.1950	83.4060
 2.1940	83.4201
 2.1930	83.4274
 2.1920	83.4247
 2.1910	83.4321
 2.1900	83.4008
 2.1890	83.4245
 2.1880	83.5067
 2.1870	83.4625
 2.1860	83.5244
 2.1850	83.5554
 2.1840	83.4957
 2.1830	83.4411
 2.1820	83.4863
 2.1810	83.4455
 2.1800	83.5170
 2.1790	83.5532
 2.1780	83.6337
 2.1770	83.5550
 2.1760	83.5232
 2.1750	83.5723
 2.1740	83.6778
 2.1730	83.6472
 2.1720	83.6660
 2.1710	83.6328
 2.1700	83.6661
 2.1690	83.6852
 2.1680	83.6675
 2.1670	83.7058
 2.1660	83.7552
 2.1650	83.7868
 2.1640	83.7333
 2.1630	83.8246
 2.1620	83.8144
 2.1610	83.8004
 2.1600	83.8580
 2.1590	83.8418
 2.1580	83.8532
 2.1570	83.8664
 2.1560	83.9261
 2.1550	83.9109
 2.1540	83.9889
 2.1530	83.9858
 2.1520	83.9525
 2.1510	84.0126
 2.1500	83.9644
 2.1490	83.9537
 2.1480	84.0361
 2.1470	84.1146
 2.1460	84.1401
 2.1450	84.0427
 2.1440	84.0407
 2.1430	84.1532
 2.1420	84.1918
 2.1410	84.1808
 2.1400	84.2108
 2.1390	84.1748
 2.1380	84.1495
 2.1370	84.1080
 2.1360	84.1838
 2.1350	84.1305
 2.1340	84.1183
 2.1330	84.1774
 2.1320	84.1213
 2.1310	84.1026
 2.1300	84.1248
 2.1290	84.0813
 2.1280	84.0405
 2.1270	84.0159
 2.1260	83.9718
 2.1250	83.9511
 2.1240	83.9654
 2.1230	83.9245
 2.1220	83.8070
 2.1210	83.7829
 2.1200	83.7137
 2.1190	83.6746
 2.1180	83.6743
 2.1170	83.6192
 2.1160	83.5653
 2.1150	83.5239
 2.1140	83.4388
 2.1130	83.4115
 2.1120	83.4309
 2.1110	83.3782
 2.1100	83.3132
 2.1090	83.2592
 2.1080	83.1770
 2.1070	83.1587
 2.1060	83.1587
 2.1050	83.0591
 2.1040	83.0369
 2.1030	82.9533
 2.1020	82.9157
 2.1010	82.9284
 2.1000	82.8602
 2.0990	82.8083
 2.0980	82.8309
 2.0970	82.8679
 2.0960	82.8889
 2.0950	82.9108
 2.0940	82.8924
 2.0930	82.8701
 2.0920	82.8882
 2.0910	82.8873
 2.0900	82.9661
 2.0890	83.0143
 2.0880	82.9475
 2.0870	82.9231
 2.0860	83.0028
 2.0850	83.0562
 2.0840	83.0643
 2.0830	83.0196
 2.0820	83.0226
 2.0810	83.0675
 2.0800	83.0491
 2.0790	83.0329
 2.0780	83.0260
 2.0770	83.0254
 2.0760	83.0594
 2.0750	83.0657
 2.0740	83.0409
 2.0730	83.0521
 2.0720	83.0751
 2.0710	83.0714
 2.0700	83.1130
 2.0690	83.1502
 2.0680	83.1270
 2.0670	83.1061
 2.0660	83.1547
 2.0650	83.1433
 2.0640	83.1352
 2.0630	83.1401
 2.0620	83.1026
 2.0610	83.1470
 2.0600	83.2052
 2.0590	83.1833
 2.0580	83.1267
 2.0570	83.1095
 2.0560	83.1320
 2.0550	83.1657
 2.0540	83.1905
 2.0530	83.2019
 2.0520	83.2246
 2.0510	83.2420
 2.0500	83.2149
 2.0490	83.2194
 2.0480	83.1868
 2.0470	83.1784
 2.0460	83.2111
 2.0450	83.1944
 2.0440	83.1069
 2.0430	83.1561
 2.0420	83.2439
 2.0410	83.2637
 2.0400	83.2615
 2.0390	83.2371
 2.0380	83.2021
 2.0370	83.1754
 2.0360	83.1599
 2.0350	83.1092
 2.0340	83.1365
 2.0330	83.1493
 2.0320	83.1088
 2.0310	83.0766
 2.0300	83.0988
 2.0290	83.0917
 2.0280	83.0936
 2.0270	83.0704
 2.0260	83.0033
 2.0250	83.0164
 2.0240	83.0080
 2.0230	82.9854
 2.0220	82.9390
 2.0210	82.8719
 2.0200	82.8056
 2.0190	82.7868
 2.0180	82.8209
 2.0170	82.7910
 2.0160	82.7181
 2.0150	82.6349
 2.0140	82.6418
 2.0130	82.5901
 2.0120	82.5520
 2.0110	82.4845
 2.0100	82.4069
 2.0090	82.3903
 2.0080	82.3090
 2.0070	82.3134
 2.0060	82.1286
 2.0050	82.1041
 2.0040	82.0126
 2.0030	81.9594
 2.0020	81.9049
 2.0010	81.8123
 2.0000	81.8485
 1.9990	81.7736
 1.9980	81.7961
 1.9970	81.7184
 1.9960	81.7785
 1.9950	81.9059
 1.9940	81.9331
 1.9930	81.9755
 1.9920	81.9812
 1.9910	82.0067
 1.9900	82.0391
 1.9890	82.0657
 1.9880	82.1087
 1.9870	82.0434
 1.9860	82.0280
 1.9850	82.0710
 1.9840	82.0405
 1.9830	82.0883
 1.9820	82.0466
 1.9810	82.0676
 1.9800	82.1120
 1.9790	82.1343
 1.9780	82.0671
 1.9770	82.1060
 1.9760	82.0921
 1.9750	82.0544
 1.9740	82.0523
 1.9730	82.0596
 1.9720	81.9884
 1.9710	82.0402
 1.9700	82.0520
 1.9690	82.0534
 1.9680	82.0312
 1.9670	81.9605
 1.9660	82.0567
 1.9650	82.0473
 1.9640	81.9646
 1.9630	81.9595
 1.9620	81.9196
 1.9610	81.9468
 1.9600	81.9493
 1.9590	81.9659
 1.9580	81.9828
 1.9570	81.9695
 1.9560	81.9347
 1.9550	81.9829
 1.9540	81.9415
 1.9530	82.0003
 1.9520	81.8843
 1.9510	81.9521
 1.9500	81.8580
 1.9490	81.8634
 1.9480	81.8759
 1.9470	81.8746
 1.9460	81.8434
 1.9450	81.8826
 1.9440	81.8687
 1.9430	81.8696
 1.9420	81.8718
 1.9410	81.8947
 1.9400	81.8854
 1.9390	81.8862
 1.9380	81.8373
 1.9370	81.8820
 1.9360	81.8637
 1.9350	81.8828
 1.9340	81.8313
 1.9330	81.8384
 1.9320	81.8559
 1.9310	81.8786
 1.9300	81.8935
 1.9290	81.8510
 1.9280	81.8416
 1.9270	81.8302
 1.9260	81.7223
 1.9250	81.7944
 1.9240	81.8416
 1.9230	81.7220
 1.9220	81.7132
 1.9210	81.6900
 1.9200	81.7009
 1.9190	81.6853
 1.9180	81.5862
 1.9170	81.6886
 1.9160	81.5961
 1.9150	81.5517
 1.9140	81.5402
 1.9130	81.5437
 1.9120	81.5729
 1.9110	81.6581
 1.9100	81.4937
 1.9090	81.6187
 1.9080	81.6116
 1.9070	81.5836
 1.9060	81.6472
 1.9050	81.6703
 1.9040	81.8352
 1.9030	81.8470
 1.9020	81.9510
 1.9010	82.0874
 1.9000	82.1479
 1.8990	82.3966
 1.8980	82.4139
 1.8970	82.5832
 1.8960	82.6678
 1.8950	82.8161
 1.8940	82.8548
 1.8930	83.0083
 1.8920	83.1051
 1.8910	83.1162
 1.8900	83.2723
 1.8890	83.4038
 1.8880	83.4797
 1.8870	83.6038
 1.8860	83.5917
 1.8850	83.7160
 1.8840	83.7499
 1.8830	83.8554
 1.8820	83.8167
 1.8810	83.8605
 1.8800	83.8431
 1.8790	83.9522
 1.8780	84.0479
 1.8770	84.0497
 1.8760	84.0389
 1.8750	84.0779
 1.8740	84.0548
 1.8730	84.1209
 1.8720	84.1626
 1.8710	84.2387
 1.8700	84.2068
 1.8690	84.2698
 1.8680	84.3090
 1.8670	84.3347
 1.8660	84.3547
 1.8650	84.3789
 1.8640	84.3795
 1.8630	84.3519
 1.8620	84.3443
 1.8610	84.4223
 1.8600	84.3614
 1.8590	84.4144
 1.8580	84.4514
 1.8570	84.4806
 1.8560	84.5006
 1.8550	84.4638
 1.8540	84.4678
 1.8530	84.5013
 1.8520	84.5120
 1.8510	84.5373
 1.8500	84.5293
 1.8490	84.5269
 1.8480	84.5473
 1.8470	84.5425
 1.8460	84.5747
 1.8450	84.5839
 1.8440	84.6168
 1.8430	84.6589
 1.8420	84.6439
 1.8410	84.6421
 1.8400	84.5819
 1.8390	84.5716
 1.8380	84.5891
 1.8370	84.6039
 1.8360	84.6153
 1.8350	84.6047
 1.8340	84.6226
 1.8330	84.6283
 1.8320	84.6621
 1.8310	84.6824
 1.8300	84.6637
 1.8290	84.6175
 1.8280	84.6410
 1.8270	84.6818
 1.8260	84.6311
 1.8250	84.6126
 1.8240	84.6894
 1.8230	84.6888
 1.8220	84.6730
 1.8210	84.6548
 1.8200	84.6449
 1.8190	84.6975
 1.8180	84.7249
 1.8170	84.6948
 1.8160	84.6476
 1.8150	84.6490
 1.8140	84.6591
 1.8130	84.6564
 1.8120	84.6802
 1.8110	84.7406
 1.8100	84.7220
 1.8090	84.6812
 1.8080	84.6634
 1.8070	84.6688
 1.8060	84.7159
 1.8050	84.7175
 1.8040	84.7447
 1.8030	84.7613
 1.8020	84.7411
 1.8010	84.7211
 1.8000	84.7419
 1.7990	84.7829
 1.7980	84.8071
 1.7970	84.7743
 1.7960	84.7392
 1.7950	84.7591
 1.7940	84.7262
 1.7930	84.7492
 1.7920	84.7478
 1.7910	84.7149
 1.7900	84.7122
 1.7890	84.7234
 1.7880	84.7570
 1.7870	84.7324
 1.7860	84.7161
 1.7850	84.6976
 1.7840	84.6701
 1.7830	84.6757
 1.7820	84.7305
 1.7810	84.7003
 1.7800	84.6881
 1.7790	84.7773
 1.7780	84.7874
 1.7770	84.7332
 1.7760	84.7294
 1.7750	84.7227
 1.7740	84.7208
 1.7730	84.7636
 1.7720	84.8048
 1.7710	84.7326
 1.7700	84.6822
 1.7690	84.7240
 1.7680	84.7290
 1.7670	84.7014
 1.7660	84.6785
 1.7650	84.7084
 1.7640	84.7446
 1.7630	84.7174
 1.7620	84.7380
 1.7610	84.6874
 1.7600	84.6611
 1.7590	84.6530
 1.7580	84.6862
 1.7570	84.7249
 1.7560	84.7240
 1.7550	84.7114
 1.7540	84.7457
 1.7530	84.7810
 1.7520	84.8016
 1.7510	84.8106
 1.7500	84.7423
 1.7490	84.7311
 1.7480	84.7219
 1.7470	84.7416
 1.7460	84.7767
 1.7450	84.7651
 1.7440	84.7570
 1.7430	84.7967
 1.7420	84.7957
 1.7410	84.7925
 1.7400	84.7793
 1.7390	84.7950
 1.7380	84.8155
 1.7370	84.8361
 1.7360	84.8880
 1.7350	84.8752
 1.7340	84.8425
 1.7330	84.8388
 1.7320	84.8219
 1.7310	84.8425
 1.7300	84.8108
 1.7290	84.8617
 1.7280	84.8610
 1.7270	84.8579
 1.7260	84.8847
 1.7250	84.8184
 1.7240	84.8218
 1.7230	84.8520
 1.7220	84.8424
 1.7210	84.8968
 1.7200	84.8563
 1.7190	84.8647
 1.7180	84.9267
 1.7170	84.9109
 1.7160	84.9506
 1.7150	84.8632
 1.7140	84.8527
 1.7130	84.8402
 1.7120	84.8869
 1.7110	84.8960
 1.7100	84.9198
 1.7090	84.9582
 1.7080	84.9797
 1.7070	84.8211
 1.7060	84.8506
 1.7050	84.8631
 1.7040	84.9133
 1.7030	84.8733
 1.7020	84.8340
 1.7010	84.8009
 1.7000	84.8164
 1.6990	84.8188
 1.6980	84.8464
 1.6970	84.7867
 1.6960	84.9033
 1.6950	84.9174
 1.6940	84.8777
 1.6930	84.8701
 1.6920	84.9016
 1.6910	84.8968
 1.6900	84.8291
 1.6890	84.7961
 1.6880	84.7512
 1.6870	84.8384
 1.6860	84.8698
 1.6850	84.8552
 1.6840	84.8234
 1.6830	84.8445
 1.6820	84.8788
 1.6810	84.8422
 1.6800	84.8443
 1.6790	84.8124
 1.6780	84.8330
 1.6770	84.7986
 1.6760	84.7825
 1.6750	84.7520
 1.6740	84.8732
 1.6730	84.8197
 1.6720	84.8218
 1.6710	84.8150
 1.6700	84.8714
 1.6690	84.8098
 1.6680	84.8114
 1.6670	84.7975
 1.6660	84.8237
 1.6650	84.7941
 1.6640	84.7754
 1.6630	84.8027
 1.6620	84.8433
 1.6610	84.8261
 1.6600	84.7749
 1.6590	84.7265
 1.6580	84.8502
 1.6570	84.7662
 1.6560	84.8410
 1.6550	84.7887
 1.6540	84.8215
 1.6530	84.7343
 1.6520	84.8926
 1.6510	84.7750
 1.6500	84.8142
 1.6490	84.8857
 1.6480	84.7983
 1.6470	84.8706
 1.6460	84.7599
 1.6450	84.7727
 1.6440	84.7499
 1.6430	84.8331
 1.6420	84.9308
 1.6410	84.7381
 1.6400	84.8045
 1.6390	84.8751
 1.6380	84.8342
 1.6370	84.7949
 1.6360	84.7667
 1.6350	84.7629
 1.6340	84.8388
 1.6330	84.6673
 1.6320	84.8028
 1.6310	84.8419
 1.6300	84.8411
 1.6290	84.8317
 1.6280	84.9022
 1.6270	84.7607
 1.6260	84.7920
 1.6250	84.7792
 1.6240	84.8109
 1.6230	84.7638
 1.6220	84.7795
 1.6210	84.8323
 1.6200	84.7622
 1.6190	84.8275
 1.6180	84.7420
 1.6170	84.7634
 1.6160	84.7997
 1.6150	84.7994
 1.6140	84.8494
 1.6130	84.7703
 1.6120	84.7928
 1.6110	84.7891
 1.6100	84.7908
 1.6090	84.7881
 1.6080	84.8242
 1.6070	84.7911
 1.6060	84.8124
 1.6050	84.8608
 1.6040	84.8566
 1.6030	84.7950
 1.6020	84.8033
 1.6010	84.7256
 1.6000	84.6906
 1.5990	84.7390
 1.5980	84.7867
 1.5970	84.7348
 1.5960	84.6286
 1.5950	84.7191
 1.5940	84.7167
 1.5930	84.7367
 1.5920	84.8184
 1.5910	84.7844
 1.5900	84.7656
 1.5890	84.7420
 1.5880	84.7513
 1.5870	84.7554
 1.5860	84.7383
 1.5850	84.7108
 1.5840	84.6946
 1.5830	84.7407
 1.5820	84.7665
 1.5810	84.7143
 1.5800	84.6886
 1.5790	84.6712
 1.5780	84.6369
 1.5770	84.7033
 1.5760	84.7301
 1.5750	84.6878
 1.5740	84.6374
 1.5730	84.6807
 1.5720	84.6626
 1.5710	84.6519
 1.5700	84.6320
 1.5690	84.6629
 1.5680	84.6388
 1.5670	84.6390
 1.5660	84.6368
 1.5650	84.7088
 1.5640	84.6727
 1.5630	84.6133
 1.5620	84.6226
 1.5610	84.6125
 1.5600	84.6544
 1.5590	84.6731
 1.5580	84.6219
 1.5570	84.6020
 1.5560	84.6415
 1.5550	84.6265
 1.5540	84.6187
 1.5530	84.5470
 1.5520	84.6079
 1.5510	84.5488
 1.5500	84.5868
 1.5490	84.5738
 1.5480	84.5521
 1.5470	84.5537
 1.5460	84.5192
 1.5450	84.5231
 1.5440	84.5882
 1.5430	84.5710
 1.5420	84.5832
 1.5410	84.5434
 1.5400	84.5107
 1.5390	84.5333
 1.5380	84.5523
 1.5370	84.5591
 1.5360	84.5573
 1.5350	84.5027
 1.5340	84.5572
 1.5330	84.5213
 1.5320	84.4931
 1.5310	84.5592
 1.5300	84.5398
 1.5290	84.5143
 1.5280	84.4929
 1.5270	84.4875
 1.5260	84.4648
 1.5250	84.4381
 1.5240	84.4587
 1.5230	84.4790
 1.5220	84.4953
 1.5210	84.4798
 1.5200	84.4617
 1.5190	84.4890
 1.5180	84.4691
 1.5170	84.4153
 1.5160	84.4206
 1.5150	84.4016
 1.5140	84.4398
 1.5130	84.4454
 1.5120	84.4353
 1.5110	84.4388
 1.5100	84.4020
 1.5090	84.4194
 1.5080	84.4101
 1.5070	84.4061
 1.5060	84.4106
 1.5050	84.4114
 1.5040	84.4203
 1.5030	84.3715
 1.5020	84.3684
 1.5010	84.3523
 1.5000	84.3152
 1.4990	84.3046
 1.4980	84.3106
 1.4970	84.3103
 1.4960	84.3041
 1.4950	84.3201
 1.4940	84.3438
 1.4930	84.3899
 1.4920	84.3870
 1.4910	84.3325
 1.4900	84.3031
 1.4890	84.3232
 1.4880	84.2813
 1.4870	84.3070
 1.4860	84.3674
 1.4850	84.3203
 1.4840	84.2651
 1.4830	84.2669
 1.4820	84.3281
 1.4810	84.3598
 1.4800	84.2856
 1.4790	84.2815
 1.4780	84.2995
 1.4770	84.2641
 1.4760	84.1721
 1.4750	84.1999
 1.4740	84.2524
 1.4730	84.2628
 1.4720	84.2530
 1.4710	84.2852
 1.4700	84.1863
 1.4690	84.1972
 1.4680	84.2622
 1.4670	84.2204
 1.4660	84.1681
 1.4650	84.1373
 1.4640	84.1099
 1.4630	84.1739
 1.4620	84.1616
 1.4610	84.0604
 1.4600	84.1098
 1.4590	84.1595
 1.4580	84.2105
 1.4570	84.1367
 1.4560	84.0720
 1.4550	84.1096
 1.4540	84.1057
 1.4530	84.0648
 1.4520	84.0521
 1.4510	84.0640
 1.4500	84.0451
 1.4490	84.0456
 1.4480	84.0321
 1.4470	84.0322
 1.4460	84.0170
 1.4450	84.0191
 1.4440	84.0060
 1.4430	84.0022
 1.4420	84.0261
 1.4410	84.0035
 1.4400	83.9200
 1.4390	83.9248
 1.4380	83.8977
 1.4370	83.8249
 1.4360	83.8058
 1.4350	83.8520
 1.4340	83.8507
 1.4330	83.8248
 1.4320	83.8407
 1.4310	83.8761
 1.4300	83.9089
 1.4290	83.8750
 1.4280	83.8483
 1.4270	83.8640
 1.4260	83.8939
 1.4250	83.8602
 1.4240	83.8590
 1.4230	83.8587
 1.4220	83.8367
 1.4210	83.8904
 1.4200	83.8872
 1.4190	83.8895
 1.4180	83.8244
 1.4170	83.8142
 1.4160	83.8458
 1.4150	83.8521
 1.4140	83.8323
 1.4130	83.8125
 1.4120	83.8570
 1.4110	83.8794
 1.4100	83.8752
 1.4090	83.8623
 1.4080	83.8560
 1.4070	83.9641
 1.4060	83.9099
 1.4050	83.9998
 1.4040	84.0194
 1.4030	84.0144
 1.4020	83.9709
 1.4010	83.9645
 1.4000	83.8661
 1.3990	83.8218
 1.3980	83.9243
 1.3970	83.8797
 1.3960	83.7768
 1.3950	83.4985
 1.3940	83.2416
 1.3930	82.9977
 1.3920	82.9634
 1.3910	83.0876
 1.3900	83.2753
 1.3890	83.4480
 1.3880	83.8560
 1.3870	84.0544
 1.3860	84.2458
 1.3850	84.2383
 1.3840	84.3417
 1.3830	84.3879
 1.3820	84.3118
 1.3810	84.4161
 1.3800	84.3742
 1.3790	84.3860
 1.3780	84.3898
 1.3770	84.4774
 1.3760	84.3867
 1.3750	84.3933
 1.3740	84.4241
 1.3730	84.4622
 1.3720	84.4051
 1.3710	84.4779
 1.3700	84.4137
 1.3690	84.5206
 1.3680	84.4413
 1.3670	84.4357
 1.3660	84.3416
 1.3650	84.4600
 1.3640	84.4466
 1.3630	84.5072
 1.3620	84.4521
 1.3610	84.3879
 1.3600	84.4195
 1.3590	84.4058
 1.3580	84.3446
 1.3570	84.4365
 1.3560	84.4778
 1.3550	84.3727
 1.3540	84.2880
 1.3530	84.3240
 1.3520	84.3640
 1.3510	84.3951
 1.3500	84.4184
 1.3490	84.2908
 1.3480	84.3578
 1.3470	84.3829
 1.3460	84.3333
 1.3450	84.4153
 1.3440	84.3368
 1.3430	84.4029
 1.3420	84.3641
 1.3410	84.3831
 1.3400	84.3271
 1.3390	84.3350
 1.3380	84.3287
 1.3370	84.3190
 1.3360	84.3940
 1.3350	84.3214
 1.3340	84.3236
 1.3330	84.2897
 1.3320	84.2661
 1.3310	84.2952
 1.3300	84.3556
 1.3290	84.3340
 1.3280	84.2537
 1.3270	84.3151
 1.3260	84.2986
 1.3250	84.2679
 1.3240	84.2332
 1.3230	84.2794
 1.3220	84.2608
 1.3210	84.3019
 1.3200	84.2792
 1.3190	84.2600
 1.3180	84.2725
 1.3170	84.3021
 1.3160	84.2947
 1.3150	84.2047
 1.3140	84.3169
 1.3130	84.3025
 1.3120	84.1948
 1.3110	84.2412
 1.3100	84.2299
 1.3090	84.2496
 1.3080	84.2477
 1.3070	84.2085
 1.3060	84.1942
 1.3050	84.2662
 1.3040	84.1871
 1.3030	84.2215
 1.3020	84.1756
 1.3010	84.1840
 1.3000	84.1686
 1.2990	84.1679
 1.2980	84.1869
 1.2970	84.1936
 1.2960	84.1944
 1.2950	84.2168
 1.2940	84.1528
 1.2930	84.1720
 1.2920	84.1036
 1.2910	84.1839
 1.2900	84.2025
 1.2890	84.1236
 1.2880	84.1528
 1.2870	84.1287
 1.2860	84.1610
 1.2850	84.1526
 1.2840	84.1484
 1.2830	84.1935
 1.2820	84.0876
 1.2810	84.1040
 1.2800	84.0994
 1.2790	84.0785
 1.2780	84.0523
 1.2770	84.1382
 1.2760	84.1271
 1.2750	84.0546
 1.2740	84.0655
 1.2730	84.0856
 1.2720	84.0532
 1.2710	84.0382
 1.2700	84.0065
 1.2690	84.1039
 1.2680	84.0660
 1.2670	84.0259
 1.2660	83.9868
 1.2650	83.9670
 1.2640	83.9503
 1.2630	84.0363
 1.2620	84.0124
 1.2610	84.0183
 1.2600	83.9948
 1.2590	83.9854
 1.2580	84.0246
 1.2570	83.9842
 1.2560	83.9641
 1.2550	83.9719
 1.2540	83.9637
 1.2530	83.9881
 1.2520	83.9675
 1.2510	83.9479
 1.2500	83.9293
 1.2490	83.9197
 1.2480	83.8871
 1.2470	83.9161
 1.2460	83.9369
 1.2450	83.9751
 1.2440	83.9329
 1.2430	83.8294
 1.2420	83.8427
 1.2410	83.8458
 1.2400	83.8520
 1.2390	83.9082
 1.2380	83.9176
 1.2370	83.8957
 1.2360	83.8560
 1.2350	83.8382
 1.2340	83.8176
 1.2330	83.8071
 1.2320	83.8312
 1.2310	83.8409
 1.2300	83.8354
 1.2290	83.8391
 1.2280	83.8578
 1.2270	83.8691
 1.2260	83.8482
 1.2250	83.7751
 1.2240	83.8172
 1.2230	83.8159
 1.2220	83.7617
 1.2210	83.7886
 1.2200	83.7422
 1.2190	83.7592
 1.2180	83.7774
 1.2170	83.6888
 1.2160	83.7528
 1.2150	83.8091
 1.2140	83.8020
 1.2130	83.8166
 1.2120	83.7287
 1.2110	83.7271
 1.2100	83.7388
 1.2090	83.7279
 1.2080	83.7664
 1.2070	83.7568
 1.2060	83.7171
 1.2050	83.7147
 1.2040	83.7030
 1.2030	83.6835
 1.2020	83.6878
 1.2010	83.6552
 1.2000	83.6430
 1.1990	83.6202
 1.1980	83.6512
 1.1970	83.6611
 1.1960	83.6805
 1.1950	83.6603
 1.1940	83.6088
 1.1930	83.5570
 1.1920	83.5455
 1.1910	83.5605
 1.1900	83.6041
 1.1890	83.6636
 1.1880	83.6030
 1.1870	83.6130
 1.1860	83.6403
 1.1850	83.6182
 1.1840	83.6577
 1.1830	83.6694
 1.1820	83.5987
 1.1810	83.5345
 1.1800	83.5630
 1.1790	83.5669
 1.1780	83.5382
 1.1770	83.5564
 1.1760	83.5733
 1.1750	83.5810
 1.1740	83.5029
 1.1730	83.4883
 1.1720	83.5337
 1.1710	83.5205
 1.1700	83.5120
 1.1690	83.5132
 1.1680	83.5041
 1.1670	83.4711
 1.1660	83.5182
 1.1650	83.4752
 1.1640	83.4677
 1.1630	83.4828
 1.1620	83.4616
 1.1610	83.3814
 1.1600	83.4827
 1.1590	83.4166
 1.1580	83.3817
 1.1570	83.4654
 1.1560	83.4810
 1.1550	83.4672
 1.1540	83.4114
 1.1530	83.4080
 1.1520	83.4562
 1.1510	83.3578
 1.1500	83.4335
 1.1490	83.4883
 1.1480	83.4542
 1.1470	83.4177
 1.1460	83.4067
 1.1450	83.4751
 1.1440	83.3953
 1.1430	83.3686
 1.1420	83.4273
 1.1410	83.3495
 1.1400	83.3675
 1.1390	83.3444
 1.1380	83.3726
 1.1370	83.3751
 1.1360	83.2802
 1.1350	83.3046
 1.1340	83.3518
 1.1330	83.3224
 1.1320	83.3381
 1.1310	83.2914
 1.1300	83.3416
 1.1290	83.3259
 1.1280	83.3040
 1.1270	83.2858
 1.1260	83.2221
 1.1250	83.2884
 1.1240	83.2841
 1.1230	83.2458
 1.1220	83.3081
 1.1210	83.2703
 1.1200	83.1755
 1.1190	83.2418
 1.1180	83.2546
 1.1170	83.3028
 1.1160	83.2878
 1.1150	83.2017
 1.1140	83.2551
 1.1130	83.1689
 1.1120	83.1533
 1.1110	83.2297
 1.1100	83.2923
 1.1090	83.2721
 1.1080	83.1933
 1.1070	83.1834
 1.1060	83.1349
 1.1050	83.1644
 1.1040	83.1221
 1.1030	83.0828
 1.1020	83.1482
 1.1010	83.0563
 1.1000	83.1554
 1.0990	83.0197
 1.0980	83.1298
 1.0970	83.1737
 1.0960	83.1292
 1.0950	83.1595
 1.0940	83.0542
 1.0930	83.0893
 1.0920	83.1293
 1.0910	83.0380
 1.0900	83.0927
 1.0890	83.0684
 1.0880	83.1592
 1.0870	83.0809
 1.0860	83.0757
 1.0850	82.9916
 1.0840	83.1339
 1.0830	83.0253
 1.0820	82.9941
 1.0810	83.0426
 1.0800	82.9531
 1.0790	82.9545
 1.0780	82.9991
 1.0770	82.9257
 1.0760	83.0246
 1.0750	83.0230
 1.0740	83.0163
 1.0730	83.0554
 1.0720	82.9761
 1.0710	82.9498
 1.0700	82.8749
 1.0690	82.9243
 1.0680	82.9064
 1.0670	82.9999
 1.0660	82.9188
 1.0650	82.9246
 1.0640	82.9392
 1.0630	82.9369
 1.0620	82.9501
 1.0610	82.8366
 1.0600	82.9344
 1.0590	82.9253
 1.0580	82.8673
 1.0570	82.8691
 1.0560	82.9255
 1.0550	82.9508
 1.0540	82.9602
 1.0530	82.8348
 1.0520	82.9278
 1.0510	82.8565
 1.0500	82.8156
 1.0490	82.8215
 1.0480	82.7661
 1.0470	82.7757
 1.0460	82.8441
 1.0450	82.7715
 1.0440	82.8304
 1.0430	82.7820
 1.0420	82.7846
 1.0410	82.7503
 1.0400	82.7227
 1.0390	82.7527
 1.0380	82.7951
 1.0370	82.7104
 1.0360	82.7120
 1.0350	82.7433
 1.0340	82.7819
 1.0330	82.7956
 1.0320	82.7353
 1.0310	82.6032
 1.0300	82.7000
 1.0290	82.6732
 1.0280	82.6821
 1.0270	82.6611
 1.0260	82.6393
 1.0250	82.5898
 1.0240	82.6644
 1.0230	82.6302
 1.0220	82.6466
 1.0210	82.6454
 1.0200	82.5949
 1.0190	82.6098
 1.0180	82.6178
 1.0170	82.5856
 1.0160	82.5998
 1.0150	82.5576
 1.0140	82.5419
 1.0130	82.5385
 1.0120	82.5799
 1.0110	82.5758
 1.0100	82.5554
 1.0090	82.4775
 1.0080	82.5018
 1.0070	82.4836
 1.0060	82.5041
 1.0050	82.5188
 1.0040	82.4922
 1.0030	82.4770
 1.0020	82.4319
 1.0010	82.4087
 1.0000	82.4793
 0.9990	82.5139
 0.9980	82.4231
 0.9970	82.3891
 0.9960	82.4005
 0.9950	82.3975
 0.9940	82.3834
 0.9930	82.4086
 0.9920	82.3581
 0.9910	82.4039
 0.9900	82.4007
 0.9890	82.3487
 0.9880	82.2840
 0.9870	82.3154
 0.9860	82.3464
 0.9850	82.2728
 0.9840	82.3034
 0.9830	82.2306
 0.9820	82.2090
 0.9810	82.1730
 0.9800	82.1557
 0.9790	82.2161
 0.9780	82.2363
 0.9770	82.1651
 0.9760	82.1352
 0.9750	82.1349
 0.9740	82.1722
 0.9730	82.1300
 0.9720	82.1055
 0.9710	82.0996
 0.9700	82.1402
 0.9690	82.1618
 0.9680	82.1113
 0.9670	82.1046
 0.9660	82.0697
 0.9650	82.0492
 0.9640	82.0612
 0.9630	82.0445
 0.9620	82.0107
 0.9610	81.9720
 0.9600	81.9883
 0.9590	81.9849
 0.9580	81.9785
 0.9570	81.8996
 0.9560	81.9381
 0.9550	81.9465
 0.9540	81.8711
 0.9530	81.8869
 0.9520	81.9356
 0.9510	81.8690
 0.9500	81.8217
 0.9490	81.8355
 0.9480	81.8140
 0.9470	81.7766
 0.9460	81.8109
 0.9450	81.8251
 0.9440	81.7736
 0.9430	81.7403
 0.9420	81.7098
 0.9410	81.7050
 0.9400	81.7389
 0.9390	81.7406
 0.9380	81.6829
 0.9370	81.6115
 0.9360	81.6485
 0.9350	81.6727
 0.9340	81.6653
 0.9330	81.6434
 0.9320	81.6073
 0.9310	81.5762
 0.9300	81.5776
 0.9290	81.5690
 0.9280	81.5252
 0.9270	81.5329
 0.9260	81.4883
 0.9250	81.4623
 0.9240	81.4878
 0.9230	81.4912
 0.9220	81.4674
 0.9210	81.4373
 0.9200	81.4366
 0.9190	81.4769
 0.9180	81.4315
 0.9170	81.3673
 0.9160	81.3512
 0.9150	81.3689
 0.9140	81.3243
 0.9130	81.3020
 0.9120	81.2852
 0.9110	81.3012
 0.9100	81.3028
 0.9090	81.3251
 0.9080	81.2803
 0.9070	81.2149
 0.9060	81.1748
 0.9050	81.1982
 0.9040	81.1962
 0.9030	81.1170
 0.9020	81.1627
 0.9010	81.1610
 0.9000	81.1430
 0.8990	81.1274
 0.8980	81.1256
 0.8970	81.1232
 0.8960	81.0334
 0.8950	81.0373
 0.8940	81.0708
 0.8930	81.0900
 0.8920	81.0307
 0.8910	81.0728
 0.8900	81.0755
 0.8890	81.0055
 0.8880	80.9511
 0.8870	80.9018
 0.8860	80.9050
 0.8850	80.9980
 0.8840	80.9822
 0.8830	80.9637
 0.8820	80.8826
 0.8810	80.8486
 0.8800	80.8402
 0.8790	80.7545
 0.8780	80.7886
 0.8770	80.7924
 0.8760	80.7897
 0.8750	80.8420
 0.8740	80.7824
 0.8730	80.6936
 0.8720	80.6519
 0.8710	80.7691
 0.8700	80.7112
 0.8690	80.7381
 0.8680	80.7218
 0.8670	80.7009
 0.8660	80.6643
 0.8650	80.6653
 0.8640	80.7194
 0.8630	80.7247
 0.8620	80.6592
 0.8610	80.7653
 0.8600	80.8362
 0.8590	80.8643
 0.8580	80.8599
 0.8570	80.8396
 0.8560	80.9005
 0.8550	80.9231
 0.8540	80.8862
 0.8530	80.8655
 0.8520	80.8381
 0.8510	80.8071
 0.8500	80.7952
 0.8490	80.7373
 0.8480	80.7778
 0.8470	80.7756
 0.8460	80.6774
 0.8450	80.8150
 0.8440	80.7274
 0.8430	80.7029
 0.8420	80.6956
 0.8410	80.6946
 0.8400	80.6488
 0.8390	80.6518
 0.8380	80.6188
 0.8370	80.5902
 0.8360	80.5945
 0.8350	80.5925
 0.8340	80.5829
 0.8330	80.5303
 0.8320	80.4901
 0.8310	80.4911
 0.8300	80.5114
 0.8290	80.4719
 0.8280	80.5052
 0.8270	80.4961
 0.8260	80.4546
 0.8250	80.4559
 0.8240	80.4095
 0.8230	80.3710
 0.8220	80.3456
 0.8210	80.3390
 0.8200	80.3071
 0.8190	80.3002
 0.8180	80.2579
 0.8170	80.2365
 0.8160	80.1320
 0.8150	80.1751
 0.8140	80.1275
 0.8130	80.0993
 0.8120	80.0887
 0.8110	80.0012
 0.8100	79.9897
 0.8090	79.9643
 0.8080	79.8938
 0.8070	79.8566
 0.8060	79.8259
 0.8050	79.7776
 0.8040	79.7849
 0.8030	79.7737
 0.8020	79.7440
 0.8010	79.7749
 0.8000	79.7493
 0.7990	79.7533
 0.7980	79.8217
 0.7970	79.8089
 0.7960	79.7839
 0.7950	79.7400
 0.7940	79.8163
 0.7930	79.8207
 0.7920	79.7960
 0.7910	79.7874
 0.7900	79.8056
 0.7890	79.7502
 0.7880	79.7694
 0.7870	79.7307
 0.7860	79.7551
 0.7850	79.7260
 0.7840	79.6785
 0.7830	79.7269
 0.7820	79.6771
 0.7810	79.6635
 0.7800	79.6659
 0.7790	79.7102
 0.7780	79.6027
 0.7770	79.5973
 0.7760	79.5502
 0.7750	79.5040
 0.7740	79.5172
 0.7730	79.4790
 0.7720	79.4811
 0.7710	79.4184
 0.7700	79.4225
 0.7690	79.3864
 0.7680	79.3926
 0.7670	79.3515
 0.7660	79.3553
 0.7650	79.3204
 0.7640	79.2759
 0.7630	79.2947
 0.7620	79.2545
 0.7610	79.2287
 0.7600	79.1762
 0.7590	79.1148
 0.7580	79.1395
 0.7570	79.0919
 0.7560	79.0538
 0.7550	79.0389
 0.7540	79.0003
 0.7530	78.9600
 0.7520	78.9217
 0.7510	78.8098
 0.7500	78.7594
 0.7490	78.7663
 0.7480	78.7505
 0.7470	78.7439
 0.7460	78.7549
 0.7450	78.7450
 0.7440	78.7835
 0.7430	78.7915
 0.7420	78.7317
 0.7410	78.7487
 0.7400	78.7705
 0.7390	78.7517
 0.7380	78.7511
 0.7370	78.8048
 0.7360	78.7989
 0.7350	78.7835
 0.7340	78.7819
 0.7330	78.8153
 0.7320	78.8291
 0.7310	78.8509
 0.7300	78.8368
 0.7290	78.8250
 0.7280	78.8396
 0.7270	78.8743
 0.7260	78.8285
 0.7250	78.8213
 0.7240	78.8079
 0.7230	78.7881
 0.7220	78.7645
 0.7210	78.7675
 0.7200	78.7640
 0.7190	78.7378
 0.7180	78.7331
 0.7170	78.7080
 0.7160	78.7090
 0.7150	78.7330
 0.7140	78.7066
 0.7130	78.6831
 0.7120	78.6889
 0.7110	78.6927
 0.7100	78.6608
 0.7090	78.6502
 0.7080	78.6558
 0.7070	78.6522
 0.7060	78.6145
 0.7050	78.6087
 0.7040	78.6244
 0.7030	78.6099
 0.7020	78.5989
 0.7010	78.6000
 0.7000	78.6044
 0.6990	78.5877
 0.6980	78.5684
 0.6970	78.5657
 0.6960	78.5800
 0.6950	78.5522
 0.6940	78.5393
 0.6930	78.5356
 0.6920	78.5469
 0.6910	78.5200
 0.6900	78.4849
 0.6890	78.4838
 0.6880	78.4930
 0.6870	78.4973
 0.6860	78.5002
 0.6850	78.5021
 0.6840	78.4853
 0.6830	78.4605
 0.6820	78.4753
 0.6810	78.4759
 0.6800	78.4957
 0.6790	78.4867
 0.6780	78.4774
 0.6770	78.4910
 0.6760	78.4840
 0.6750	78.4688
 0.6740	78.4653
 0.6730	78.4605
 0.6720	78.4612
 0.6710	78.4725
 0.6700	78.4849
 0.6690	78.4686
 0.6680	78.4595
 0.6670	78.4862
 0.6660	78.4768
 0.6650	78.4614
 0.6640	78.4789
 0.6630	78.4877
 0.6620	78.4739
 0.6610	78.4649
 0.6600	78.4555
 0.6590	78.4742
 0.6580	78.4746
 0.6570	78.4658
 0.6560	78.4572
 0.6550	78.4655
 0.6540	78.4814
 0.6530	78.4680
 0.6520	78.4632
 0.6510	78.4670
 0.6500	78.4699
 0.6490	78.4756
 0.6480	78.4762
 0.6470	78.4609
 0.6460	78.4624
 0.6450	78.4686
 0.6440	78.4665
 0.6430	78.4685
 0.6420	78.4742
 0.6410	78.4687
 0.6400	78.4780
 0.6390	78.4830
 0.6380	78.4823
 0.6370	78.4716
 0.6360	78.4883
 0.6350	78.4969
 0.6340	78.4769
 0.6330	78.4674
 0.6320	78.4778
 0.6310	78.4911
 0.6300	78.4900
 0.6290	78.4876
 0.6280	78.4903
 0.6270	78.5041
 0.6260	78.4994
 0.6250	78.4917
 0.6240	78.4947
 0.6230	78.4924
 0.6220	78.5095
 0.6210	78.5285
 0.6200	78.5204
 0.6190	78.5119
 0.6180	78.5161
 0.6170	78.5272
 0.6160	78.5154
 0.6150	78.5028
 0.6140	78.5049
 0.6130	78.5092
 0.6120	78.5177
 0.6110	78.5089
 0.6100	78.5039
 0.6090	78.5013
 0.6080	78.4910
 0.6070	78.4826
 0.6060	78.4895
 0.6050	78.4902
 0.6040	78.4845
 0.6030	78.4688
 0.6020	78.4578
 0.6010	78.4531
 0.6000	78.4377
 0.5990	78.4422
 0.5980	78.4721
 0.5970	78.4911
 0.5960	78.4939
 0.5950	78.4897
 0.5940	78.4562
 0.5930	78.4178
 0.5920	78.3999
 0.5910	78.3697
 0.5900	78.3335
 0.5890	78.2807
 0.5880	78.2677
 0.5870	78.2552
 0.5860	78.2341
 0.5850	78.2358
 0.5840	78.2196
 0.5830	78.2091
 0.5820	78.2130
 0.5810	78.2076
 0.5800	78.1931
 0.5790	78.1891
 0.5780	78.1738
 0.5770	78.1588
 0.5760	78.1683
 0.5750	78.2008
 0.5740	78.2148
 0.5730	78.2743
 0.5720	78.3352
 0.5710	78.3784
 0.5700	78.4100
 0.5690	78.4215
 0.5680	78.4333
 0.5670	78.4250
 0.5660	78.4247
 0.5650	78.4108
 0.5640	78.4027
 0.5630	78.3758
 0.5620	78.3567
 0.5610	78.3459
 0.5600	78.3216
 0.5590	78.3102
 0.5580	78.2952
 0.5570	78.2700
 0.5560	78.2504
 0.5550	78.2442
 0.5540	78.2249
 0.5530	78.2020
 0.5520	78.1858
 0.5510	78.1529
 0.5500	78.1378
 0.5490	78.1198
 0.5480	78.1055
 0.5470	78.0805
 0.5460	78.0513
 0.5450	78.0315
 0.5440	78.0065
 0.5430	77.9826
 0.5420	77.9901
 0.5410	77.9473
 0.5400	77.9234
 0.5390	77.8913
 0.5380	77.8627
 0.5370	77.8316
 0.5360	77.7875
 0.5350	77.7601
 0.5340	77.7343
 0.5330	77.6917
 0.5320	77.6663
 0.5310	77.6123
 0.5300	77.5796
 0.5290	77.5220
 0.5280	77.4999
 0.5270	77.4591
 0.5260	77.4316
 0.5250	77.4140
 0.5240	77.4013
 0.5230	77.3820
 0.5220	77.3276
 0.5210	77.3045
 0.5200	77.2947
 0.5190	77.2616
 0.5180	77.2216
 0.5170	77.1707
 0.5160	77.1293
 0.5150	77.0953
 0.5140	77.0489
 0.5130	76.9883
 0.5120	76.9489
 0.5110	76.9252
 0.5100	76.8793
 0.5090	76.8460
 0.5080	76.7856
 0.5070	76.7382
 0.5060	76.6798
 0.5050	76.6457
 0.5040	76.5984
 0.5030	76.5528
 0.5020	76.5049
 0.5010	76.4588
 0.5000	76.4012
 0.4990	76.3286
 0.4980	76.2744
 0.4970	76.2377
 0.4960	76.1658
 0.4950	76.1256
 0.4940	76.0784
 0.4930	76.0046
 0.4920	75.9601
 0.4910	75.8973
 0.4900	75.8382
 0.4890	75.7651
 0.4880	75.7070
 0.4870	75.6367
 0.4860	75.5658
 0.4850	75.5040
 0.4840	75.4276
 0.4830	75.3695
 0.4820	75.2828
 0.4810	75.2299
 0.4800	75.1811
 0.4790	75.0967
 0.4780	75.0546
 0.4770	74.9986
 0.4760	74.9544
 0.4750	74.8941
 0.4740	74.8396
 0.4730	74.7819
 0.4720	74.7066
 0.4710	74.6576
 0.4700	74.6010
 0.4690	74.5395
 0.4680	74.4890
 0.4670	74.4449
 0.4660	74.3856
 0.4650	74.3233
 0.4640	74.2613
 0.4630	74.2052
 0.4620	74.1153
 0.4610	74.0827
 0.4600	73.9950
 0.4590	73.9501
 0.4580	73.8777
 0.4570	73.8069
 0.4560	73.7271
 0.4550	73.6768
 0.4540	73.5923
 0.4530	73.4928
 0.4520	73.4128
 0.4510	73.3203
 0.4500	73.2093
 0.4490	73.1280
 0.4480	73.0072
 0.4470	72.9154
 0.4460	72.7808
 0.4450	72.6681
 0.4440	72.5532
 0.4430	72.4520
 0.4420	72.3209
 0.4410	72.1890
 0.4400	72.0593
 0.4390	71.9210
 0.4380	71.7722
 0.4370	71.6280
 0.4360	71.4807
 0.4350	71.3308
 0.4340	71.1760
 0.4330	70.9962
 0.4320	70.8533
 0.4310	70.6796
 0.4300	70.4905
 0.4290	70.3220
 0.4280	70.1581
 0.4270	69.9969
 0.4260	69.8151
 0.4250	69.6111
 0.4240	69.4372
 0.4230	69.2469
 0.4220	69.0701
 0.4210	68.8705
 0.4200	68.6898
 0.4190	68.4887
 0.4180	68.2970
 0.4170	68.1009
 0.4160	67.8968
 0.4150	67.7001
 0.4140	67.4917
 0.4130	67.2733
 0.4120	67.0713
 0.4110	66.8793
 0.4100	66.6594
 0.4090	66.4361
 0.4080	66.2102
 0.4070	65.9814
 0.4060	65.7486
 0.4050	65.5143
 0.4040	65.2743
 0.4030	65.0348
 0.4020	64.7730
 0.4010	64.5165
 0.4000	64.2660
