Name: Clinochlore (Chlorite) (Mg,Al)_6(Si,Al)_4O_10(OH)_8
Type: Mineral
Class: Silicate
Subclass: Phyllosilicate
Particle Size: Coarse
Sample No.: PS-12A
Owner: JPL
Wavelength Range: VSWIR
Origin: USA, California, El Dorado County, Flagstaff Hill.
Collection Date: N/A
Description: Particle size was 125-500um.Collected by:  Clay Mineral Society Original ASTER Spectral Library name was jpl.perkin.mineral.silicate.phyllosilicate.coarse.ps12a.spectrum.txt
Measurement: Hemispherical reflectance
First Column: X
Second Column: Y
X Units: Wavelength (micrometers)
Y Units:Reflectance (percent)
First X Value:  2.5000
Last X Value:  0.4000
Number of X Values: 2101
Additional Information: mineral.silicate.phyllosilicate.coarse.vswir.ps-12a.jpl.perkin.ancillary.txt

 2.5000	21.3373
 2.4990	20.9527
 2.4980	21.0170
 2.4970	21.3162
 2.4960	20.7186
 2.4950	21.2071
 2.4940	21.0943
 2.4930	21.2216
 2.4920	21.0643
 2.4910	21.4133
 2.4900	21.1665
 2.4890	21.4940
 2.4880	21.1533
 2.4870	21.4375
 2.4860	21.4278
 2.4850	21.5536
 2.4840	21.5149
 2.4830	21.5826
 2.4820	21.4883
 2.4810	21.7492
 2.4800	21.5095
 2.4790	21.7757
 2.4780	21.6140
 2.4770	21.9620
 2.4760	21.8791
 2.4750	21.9502
 2.4740	21.9494
 2.4730	22.0689
 2.4720	22.1185
 2.4710	22.3292
 2.4700	22.2258
 2.4690	22.4973
 2.4680	22.3873
 2.4670	22.6221
 2.4660	22.4768
 2.4650	22.7770
 2.4640	22.6261
 2.4630	22.8099
 2.4620	22.9160
 2.4610	23.0447
 2.4600	22.9284
 2.4590	23.1362
 2.4580	23.0884
 2.4570	23.2883
 2.4560	23.3197
 2.4550	23.4629
 2.4540	23.4596
 2.4530	23.6093
 2.4520	23.7417
 2.4510	23.7902
 2.4500	23.6207
 2.4490	23.8252
 2.4480	23.8375
 2.4470	23.9604
 2.4460	23.8642
 2.4450	24.1606
 2.4440	23.9796
 2.4430	24.1377
 2.4420	24.1400
 2.4410	24.2817
 2.4400	24.1834
 2.4390	24.2932
 2.4380	24.3475
 2.4370	24.4439
 2.4360	24.3352
 2.4350	24.4020
 2.4340	24.3402
 2.4330	24.5190
 2.4320	24.3185
 2.4310	24.4394
 2.4300	24.4558
 2.4290	24.6026
 2.4280	24.5011
 2.4270	24.6132
 2.4260	24.5326
 2.4250	24.5800
 2.4240	24.5350
 2.4230	24.5861
 2.4220	24.5025
 2.4210	24.5270
 2.4200	24.4577
 2.4190	24.4961
 2.4180	24.4301
 2.4170	24.4934
 2.4160	24.3922
 2.4150	24.4008
 2.4140	24.3246
 2.4130	24.3374
 2.4120	24.3693
 2.4110	24.3235
 2.4100	24.2375
 2.4090	24.2697
 2.4080	24.1601
 2.4070	24.1701
 2.4060	24.1068
 2.4050	24.1450
 2.4040	24.0149
 2.4030	24.0745
 2.4020	23.9649
 2.4010	23.9755
 2.4000	23.8001
 2.3990	23.7632
 2.3980	23.7607
 2.3970	23.7651
 2.3960	23.7784
 2.3950	23.7575
 2.3940	23.6624
 2.3930	23.6051
 2.3920	23.5154
 2.3910	23.4717
 2.3900	23.4387
 2.3890	23.4091
 2.3880	23.2673
 2.3870	23.2442
 2.3860	23.1478
 2.3850	23.0835
 2.3840	22.9568
 2.3830	22.8590
 2.3820	22.7689
 2.3810	22.6540
 2.3800	22.4753
 2.3790	22.4209
 2.3780	22.3157
 2.3770	22.1525
 2.3760	21.9223
 2.3750	21.7729
 2.3740	21.6889
 2.3730	21.5395
 2.3720	21.3428
 2.3710	21.2181
 2.3700	21.0494
 2.3690	20.9003
 2.3680	20.7205
 2.3670	20.4915
 2.3660	20.3251
 2.3650	20.2437
 2.3640	20.0794
 2.3630	19.8752
 2.3620	19.6823
 2.3610	19.6136
 2.3600	19.4380
 2.3590	19.2591
 2.3580	19.1740
 2.3570	19.0678
 2.3560	18.9328
 2.3550	18.8324
 2.3540	18.7179
 2.3530	18.6145
 2.3520	18.5704
 2.3510	18.5376
 2.3500	18.4364
 2.3490	18.3098
 2.3480	18.2553
 2.3470	18.2247
 2.3460	18.2375
 2.3450	18.1669
 2.3440	18.1930
 2.3430	18.1972
 2.3420	18.2234
 2.3410	18.2304
 2.3400	18.2985
 2.3390	18.3672
 2.3380	18.3941
 2.3370	18.4038
 2.3360	18.4780
 2.3350	18.5271
 2.3340	18.6324
 2.3330	18.6605
 2.3320	18.7851
 2.3310	18.8399
 2.3300	18.9333
 2.3290	19.0408
 2.3280	19.1289
 2.3270	19.1984
 2.3260	19.3172
 2.3250	19.3744
 2.3240	19.4646
 2.3230	19.5202
 2.3220	19.6090
 2.3210	19.6116
 2.3200	19.7056
 2.3190	19.8339
 2.3180	19.9115
 2.3170	19.9941
 2.3160	20.1195
 2.3150	20.2078
 2.3140	20.2707
 2.3130	20.2469
 2.3120	20.2736
 2.3110	20.3040
 2.3100	20.5073
 2.3090	20.5294
 2.3080	20.6376
 2.3070	20.6621
 2.3060	20.7211
 2.3050	20.8019
 2.3040	20.9277
 2.3030	20.9028
 2.3020	21.0282
 2.3010	21.0869
 2.3000	21.2407
 2.2990	21.3079
 2.2980	21.4710
 2.2970	21.5349
 2.2960	21.6442
 2.2950	21.6688
 2.2940	21.8494
 2.2930	21.9185
 2.2920	22.0405
 2.2910	22.1031
 2.2900	22.2601
 2.2890	22.3138
 2.2880	22.4433
 2.2870	22.4608
 2.2860	22.5765
 2.2850	22.5891
 2.2840	22.7300
 2.2830	22.7559
 2.2820	22.8955
 2.2810	22.8280
 2.2800	22.8820
 2.2790	22.8775
 2.2780	22.9091
 2.2770	22.8768
 2.2760	22.9092
 2.2750	22.7877
 2.2740	22.8738
 2.2730	22.7185
 2.2720	22.7397
 2.2710	22.5695
 2.2700	22.5282
 2.2690	22.3838
 2.2680	22.4101
 2.2670	22.1918
 2.2660	22.0934
 2.2650	21.9587
 2.2640	21.8636
 2.2630	21.6960
 2.2620	21.6740
 2.2610	21.4155
 2.2600	21.4094
 2.2590	21.2206
 2.2580	21.2861
 2.2570	21.1210
 2.2560	21.1478
 2.2550	20.9821
 2.2540	21.1881
 2.2530	21.0949
 2.2520	21.1326
 2.2510	21.1855
 2.2500	21.4446
 2.2490	21.5297
 2.2480	21.8086
 2.2470	21.9689
 2.2460	22.2917
 2.2450	22.5666
 2.2440	22.9272
 2.2430	23.2080
 2.2420	23.6399
 2.2410	24.0354
 2.2400	24.4394
 2.2390	24.8101
 2.2380	25.3061
 2.2370	25.5612
 2.2360	26.0027
 2.2350	26.2526
 2.2340	26.7356
 2.2330	27.0283
 2.2320	27.3738
 2.2310	27.6728
 2.2300	28.0158
 2.2290	28.2137
 2.2280	28.4749
 2.2270	28.7150
 2.2260	28.9378
 2.2250	29.1389
 2.2240	29.4112
 2.2230	29.4949
 2.2220	29.7095
 2.2210	29.8402
 2.2200	30.0750
 2.2190	30.0381
 2.2180	30.3861
 2.2170	30.2640
 2.2160	30.5677
 2.2150	30.5348
 2.2140	30.6798
 2.2130	30.7828
 2.2120	30.9175
 2.2110	30.8122
 2.2100	31.0987
 2.2090	31.1126
 2.2080	31.2198
 2.2070	31.2245
 2.2060	31.3346
 2.2050	31.4190
 2.2040	31.5421
 2.2030	31.6214
 2.2020	31.6186
 2.2010	31.7091
 2.2000	31.8041
 2.1990	31.7774
 2.1980	31.9575
 2.1970	31.8114
 2.1960	31.9883
 2.1950	32.1053
 2.1940	32.0804
 2.1930	32.0565
 2.1920	32.1644
 2.1910	32.1713
 2.1900	32.3535
 2.1890	32.2557
 2.1880	32.3204
 2.1870	32.3760
 2.1860	32.4814
 2.1850	32.4175
 2.1840	32.5528
 2.1830	32.4767
 2.1820	32.5946
 2.1810	32.5548
 2.1800	32.6488
 2.1790	32.6840
 2.1780	32.7246
 2.1770	32.6533
 2.1760	32.8373
 2.1750	32.7698
 2.1740	32.8343
 2.1730	32.7802
 2.1720	32.9085
 2.1710	32.8106
 2.1700	32.8765
 2.1690	32.8197
 2.1680	32.9961
 2.1670	32.9443
 2.1660	32.9990
 2.1650	32.9648
 2.1640	32.9389
 2.1630	32.9505
 2.1620	33.0304
 2.1610	33.0415
 2.1600	33.0680
 2.1590	33.0852
 2.1580	33.1072
 2.1570	33.0770
 2.1560	33.1592
 2.1550	33.0865
 2.1540	33.1506
 2.1530	33.0839
 2.1520	33.1785
 2.1510	33.1083
 2.1500	33.1627
 2.1490	33.1074
 2.1480	33.1599
 2.1470	33.0760
 2.1460	33.0718
 2.1450	33.0878
 2.1440	33.1042
 2.1430	32.9750
 2.1420	33.0444
 2.1410	33.0289
 2.1400	32.9856
 2.1390	32.9527
 2.1380	32.9291
 2.1370	32.9143
 2.1360	32.9264
 2.1350	32.8576
 2.1340	32.8596
 2.1330	32.7132
 2.1320	32.7559
 2.1310	32.7637
 2.1300	32.7144
 2.1290	32.5949
 2.1280	32.5963
 2.1270	32.5839
 2.1260	32.5916
 2.1250	32.5135
 2.1240	32.5181
 2.1230	32.4676
 2.1220	32.4312
 2.1210	32.3630
 2.1200	32.3787
 2.1190	32.3739
 2.1180	32.4179
 2.1170	32.3116
 2.1160	32.2946
 2.1150	32.2469
 2.1140	32.2651
 2.1130	32.2457
 2.1120	32.2227
 2.1110	32.2153
 2.1100	32.2501
 2.1090	32.1959
 2.1080	32.2340
 2.1070	32.2030
 2.1060	32.1615
 2.1050	32.0818
 2.1040	32.1114
 2.1030	32.0872
 2.1020	32.0968
 2.1010	32.0702
 2.1000	32.0421
 2.0990	31.9895
 2.0980	31.9998
 2.0970	31.9872
 2.0960	32.0247
 2.0950	31.9991
 2.0940	31.9518
 2.0930	31.9305
 2.0920	31.9448
 2.0910	31.9174
 2.0900	31.8626
 2.0890	31.8144
 2.0880	31.7902
 2.0870	31.7366
 2.0860	31.7368
 2.0850	31.7000
 2.0840	31.7076
 2.0830	31.6577
 2.0820	31.6067
 2.0810	31.6008
 2.0800	31.5861
 2.0790	31.5513
 2.0780	31.5104
 2.0770	31.4769
 2.0760	31.4350
 2.0750	31.3832
 2.0740	31.3602
 2.0730	31.3400
 2.0720	31.2933
 2.0710	31.2304
 2.0700	31.1974
 2.0690	31.1337
 2.0680	31.0810
 2.0670	31.0603
 2.0660	31.0393
 2.0650	30.9975
 2.0640	30.9431
 2.0630	30.9103
 2.0620	30.8863
 2.0610	30.8253
 2.0600	30.7643
 2.0590	30.7006
 2.0580	30.6348
 2.0570	30.6222
 2.0560	30.5593
 2.0550	30.5160
 2.0540	30.4478
 2.0530	30.3802
 2.0520	30.3184
 2.0510	30.2817
 2.0500	30.1942
 2.0490	30.1469
 2.0480	30.0996
 2.0470	30.0362
 2.0460	29.9190
 2.0450	29.9106
 2.0440	29.8444
 2.0430	29.7525
 2.0420	29.6894
 2.0410	29.6609
 2.0400	29.5585
 2.0390	29.4949
 2.0380	29.3682
 2.0370	29.2975
 2.0360	29.2033
 2.0350	29.1646
 2.0340	29.0526
 2.0330	28.9584
 2.0320	28.8869
 2.0310	28.8074
 2.0300	28.7233
 2.0290	28.6368
 2.0280	28.4751
 2.0270	28.3872
 2.0260	28.3251
 2.0250	28.2627
 2.0240	28.1671
 2.0230	28.0452
 2.0220	27.8839
 2.0210	27.8105
 2.0200	27.7456
 2.0190	27.6837
 2.0180	27.5819
 2.0170	27.5512
 2.0160	27.4293
 2.0150	27.4094
 2.0140	27.2804
 2.0130	27.3096
 2.0120	27.1858
 2.0110	27.2377
 2.0100	27.1063
 2.0090	27.0264
 2.0080	26.9611
 2.0070	26.9317
 2.0060	26.8833
 2.0050	26.9128
 2.0040	26.8472
 2.0030	26.8396
 2.0020	26.7796
 2.0010	26.7831
 2.0000	26.7608
 1.9990	26.7757
 1.9980	26.7181
 1.9970	26.7078
 1.9960	26.7462
 1.9950	26.7022
 1.9940	26.6797
 1.9930	26.7313
 1.9920	26.7007
 1.9910	26.6912
 1.9900	26.6617
 1.9890	26.7116
 1.9880	26.6935
 1.9870	26.7293
 1.9860	26.6816
 1.9850	26.7273
 1.9840	26.7709
 1.9830	26.8197
 1.9820	26.7900
 1.9810	26.8462
 1.9800	26.8396
 1.9790	26.9076
 1.9780	26.8246
 1.9770	26.9548
 1.9760	26.9008
 1.9750	27.0458
 1.9740	26.8974
 1.9730	27.0049
 1.9720	27.0077
 1.9710	27.0616
 1.9700	26.9616
 1.9690	27.0771
 1.9680	26.9253
 1.9670	27.0253
 1.9660	27.0266
 1.9650	26.9943
 1.9640	26.9635
 1.9630	26.9988
 1.9620	26.9093
 1.9610	26.9908
 1.9600	26.9588
 1.9590	26.9873
 1.9580	26.9214
 1.9570	26.9367
 1.9560	26.9211
 1.9550	26.9285
 1.9540	26.7777
 1.9530	27.0031
 1.9520	26.9243
 1.9510	26.9705
 1.9500	26.9246
 1.9490	27.0073
 1.9480	26.9928
 1.9470	27.0402
 1.9460	26.9965
 1.9450	27.0438
 1.9440	26.9658
 1.9430	27.0765
 1.9420	26.9795
 1.9410	27.0246
 1.9400	27.0027
 1.9390	27.1079
 1.9380	27.0398
 1.9370	27.0602
 1.9360	27.1240
 1.9350	27.0805
 1.9340	27.0773
 1.9330	27.2009
 1.9320	26.9784
 1.9310	27.1475
 1.9300	27.0636
 1.9290	27.0742
 1.9280	26.8982
 1.9270	27.1103
 1.9260	26.7704
 1.9250	27.1118
 1.9240	26.8787
 1.9230	26.8907
 1.9220	26.9042
 1.9210	26.8528
 1.9200	26.7668
 1.9190	26.8780
 1.9180	26.6916
 1.9170	26.8192
 1.9160	26.6615
 1.9150	26.7280
 1.9140	26.6452
 1.9130	26.6642
 1.9120	26.5963
 1.9110	26.5539
 1.9100	26.4699
 1.9090	26.6239
 1.9080	26.5095
 1.9070	26.5284
 1.9060	26.4295
 1.9050	26.4629
 1.9040	26.3569
 1.9030	26.4087
 1.9020	26.2236
 1.9010	26.2975
 1.9000	26.1783
 1.8990	26.2494
 1.8980	26.1624
 1.8970	26.1940
 1.8960	26.0919
 1.8950	26.1800
 1.8940	26.1073
 1.8930	26.0755
 1.8920	25.9257
 1.8910	26.0205
 1.8900	25.8288
 1.8890	25.9032
 1.8880	25.8628
 1.8870	25.9307
 1.8860	25.7195
 1.8850	25.7753
 1.8840	25.7214
 1.8830	25.7682
 1.8820	25.6318
 1.8810	25.7645
 1.8800	25.6978
 1.8790	25.6937
 1.8780	25.6880
 1.8770	25.6750
 1.8760	25.5658
 1.8750	25.6629
 1.8740	25.6004
 1.8730	25.7051
 1.8720	25.6890
 1.8710	25.7231
 1.8700	25.6234
 1.8690	25.6357
 1.8680	25.5668
 1.8670	25.6340
 1.8660	25.5022
 1.8650	25.6075
 1.8640	25.5657
 1.8630	25.6430
 1.8620	25.5526
 1.8610	25.5324
 1.8600	25.5069
 1.8590	25.5455
 1.8580	25.5326
 1.8570	25.5662
 1.8560	25.4510
 1.8550	25.5089
 1.8540	25.4444
 1.8530	25.4866
 1.8520	25.4791
 1.8510	25.4505
 1.8500	25.3364
 1.8490	25.4253
 1.8480	25.3498
 1.8470	25.4212
 1.8460	25.3581
 1.8450	25.3660
 1.8440	25.3548
 1.8430	25.4082
 1.8420	25.3199
 1.8410	25.3072
 1.8400	25.2995
 1.8390	25.3077
 1.8380	25.2081
 1.8370	25.2328
 1.8360	25.1505
 1.8350	25.1858
 1.8340	25.1024
 1.8330	25.1463
 1.8320	25.0932
 1.8310	25.0727
 1.8300	25.0679
 1.8290	25.0529
 1.8280	24.9503
 1.8270	25.0005
 1.8260	24.9782
 1.8250	24.9217
 1.8240	24.8292
 1.8230	24.8690
 1.8220	24.8221
 1.8210	24.8326
 1.8200	24.8161
 1.8190	24.8580
 1.8180	24.7426
 1.8170	24.6664
 1.8160	24.6636
 1.8150	24.7096
 1.8140	24.6320
 1.8130	24.6106
 1.8120	24.5645
 1.8110	24.5519
 1.8100	24.5395
 1.8090	24.5376
 1.8080	24.4493
 1.8070	24.4495
 1.8060	24.4232
 1.8050	24.4209
 1.8040	24.4173
 1.8030	24.3899
 1.8020	24.3147
 1.8010	24.2978
 1.8000	24.2581
 1.7990	24.2358
 1.7980	24.2676
 1.7970	24.1783
 1.7960	24.1402
 1.7950	24.1402
 1.7940	24.1023
 1.7930	24.0744
 1.7920	23.9988
 1.7910	23.9763
 1.7900	23.9375
 1.7890	23.9140
 1.7880	23.8908
 1.7870	23.8837
 1.7860	23.8469
 1.7850	23.8411
 1.7840	23.7969
 1.7830	23.7204
 1.7820	23.7367
 1.7810	23.7194
 1.7800	23.6450
 1.7790	23.5464
 1.7780	23.5594
 1.7770	23.5755
 1.7760	23.5040
 1.7750	23.4718
 1.7740	23.4931
 1.7730	23.4437
 1.7720	23.3842
 1.7710	23.3626
 1.7700	23.3353
 1.7690	23.2805
 1.7680	23.2688
 1.7670	23.2552
 1.7660	23.2991
 1.7650	23.1948
 1.7640	23.1678
 1.7630	23.1362
 1.7620	23.0977
 1.7610	23.0710
 1.7600	22.9929
 1.7590	22.9990
 1.7580	23.0239
 1.7570	22.9682
 1.7560	22.8734
 1.7550	22.8130
 1.7540	22.8271
 1.7530	22.8099
 1.7520	22.7860
 1.7510	22.7237
 1.7500	22.7268
 1.7490	22.6514
 1.7480	22.6354
 1.7470	22.5785
 1.7460	22.5433
 1.7450	22.5190
 1.7440	22.5489
 1.7430	22.4811
 1.7420	22.4552
 1.7410	22.3813
 1.7400	22.3670
 1.7390	22.3424
 1.7380	22.3660
 1.7370	22.2269
 1.7360	22.3038
 1.7350	22.2370
 1.7340	22.2198
 1.7330	22.1433
 1.7320	22.1185
 1.7310	22.0822
 1.7300	22.0746
 1.7290	22.0316
 1.7280	22.0116
 1.7270	21.9155
 1.7260	21.9391
 1.7250	21.8714
 1.7240	21.8804
 1.7230	21.7770
 1.7220	21.8799
 1.7210	21.7467
 1.7200	21.7916
 1.7190	21.6887
 1.7180	21.7018
 1.7170	21.5991
 1.7160	21.6326
 1.7150	21.5451
 1.7140	21.5567
 1.7130	21.4972
 1.7120	21.4415
 1.7110	21.4158
 1.7100	21.3867
 1.7090	21.3430
 1.7080	21.3075
 1.7070	21.2003
 1.7060	21.2952
 1.7050	21.1579
 1.7040	21.2535
 1.7030	21.0910
 1.7020	21.1360
 1.7010	21.0300
 1.7000	21.0609
 1.6990	21.0186
 1.6980	20.9190
 1.6970	20.8710
 1.6960	20.9085
 1.6950	20.8329
 1.6940	20.8639
 1.6930	20.6891
 1.6920	20.7462
 1.6910	20.7140
 1.6900	20.7536
 1.6890	20.6028
 1.6880	20.6869
 1.6870	20.5702
 1.6860	20.5492
 1.6850	20.4103
 1.6840	20.4938
 1.6830	20.3801
 1.6820	20.4481
 1.6810	20.3749
 1.6800	20.3512
 1.6790	20.2551
 1.6780	20.2985
 1.6770	20.2486
 1.6760	20.2137
 1.6750	20.0612
 1.6740	20.2163
 1.6730	19.9886
 1.6720	20.1189
 1.6710	19.9588
 1.6700	19.9629
 1.6690	20.0631
 1.6680	19.7910
 1.6670	19.8930
 1.6660	19.9197
 1.6650	19.7925
 1.6640	19.8125
 1.6630	19.7339
 1.6620	19.7204
 1.6610	19.6087
 1.6600	19.6635
 1.6590	19.5876
 1.6580	19.5514
 1.6570	19.4288
 1.6560	19.5207
 1.6550	19.3997
 1.6540	19.5197
 1.6530	19.3357
 1.6520	19.4092
 1.6510	19.2374
 1.6500	19.3113
 1.6490	19.2415
 1.6480	19.2799
 1.6470	19.1006
 1.6460	19.1874
 1.6450	19.0329
 1.6440	19.0971
 1.6430	19.0889
 1.6420	19.0449
 1.6410	18.7051
 1.6400	19.0111
 1.6390	18.7981
 1.6380	18.9129
 1.6370	18.8053
 1.6360	18.8827
 1.6350	18.6869
 1.6340	18.7364
 1.6330	18.6133
 1.6320	18.7323
 1.6310	18.5849
 1.6300	18.5833
 1.6290	18.6014
 1.6280	18.5572
 1.6270	18.3518
 1.6260	18.6068
 1.6250	18.3885
 1.6240	18.3438
 1.6230	18.3298
 1.6220	18.3415
 1.6210	18.2561
 1.6200	18.3084
 1.6190	18.1288
 1.6180	18.2429
 1.6170	18.1160
 1.6160	18.0951
 1.6150	17.9857
 1.6140	18.0979
 1.6130	17.9092
 1.6120	17.9813
 1.6110	17.8353
 1.6100	17.9138
 1.6090	17.7869
 1.6080	17.8188
 1.6070	17.7962
 1.6060	17.8163
 1.6050	17.6022
 1.6040	17.7089
 1.6030	17.6229
 1.6020	17.6252
 1.6010	17.4653
 1.6000	17.5194
 1.5990	17.4658
 1.5980	17.4930
 1.5970	17.3656
 1.5960	17.4977
 1.5950	17.3806
 1.5940	17.3576
 1.5930	17.2698
 1.5920	17.3208
 1.5910	17.2129
 1.5900	17.1746
 1.5890	17.1061
 1.5880	17.1336
 1.5870	17.0037
 1.5860	17.1056
 1.5850	16.9870
 1.5840	17.0227
 1.5830	16.9135
 1.5820	17.0634
 1.5810	16.9162
 1.5800	16.8752
 1.5790	16.7662
 1.5780	16.7989
 1.5770	16.6815
 1.5760	16.7115
 1.5750	16.6814
 1.5740	16.6685
 1.5730	16.6082
 1.5720	16.5957
 1.5710	16.5475
 1.5700	16.6157
 1.5690	16.4571
 1.5680	16.4695
 1.5670	16.3947
 1.5660	16.3794
 1.5650	16.4039
 1.5640	16.4233
 1.5630	16.3285
 1.5620	16.3453
 1.5610	16.2305
 1.5600	16.2569
 1.5590	16.2284
 1.5580	16.2409
 1.5570	16.1650
 1.5560	16.1539
 1.5550	16.1011
 1.5540	16.1200
 1.5530	16.0043
 1.5520	16.0351
 1.5510	15.9609
 1.5500	15.9730
 1.5490	15.9320
 1.5480	15.9786
 1.5470	15.8690
 1.5460	15.8574
 1.5450	15.7594
 1.5440	15.8138
 1.5430	15.7741
 1.5420	15.7363
 1.5410	15.6948
 1.5400	15.7201
 1.5390	15.6608
 1.5380	15.6279
 1.5370	15.5881
 1.5360	15.6275
 1.5350	15.5821
 1.5340	15.5950
 1.5330	15.5420
 1.5320	15.5035
 1.5310	15.4687
 1.5300	15.4894
 1.5290	15.4215
 1.5280	15.4287
 1.5270	15.3641
 1.5260	15.3898
 1.5250	15.3573
 1.5240	15.3271
 1.5230	15.3217
 1.5220	15.2976
 1.5210	15.2355
 1.5200	15.2718
 1.5190	15.2097
 1.5180	15.1753
 1.5170	15.1903
 1.5160	15.1919
 1.5150	15.1429
 1.5140	15.1114
 1.5130	15.1436
 1.5120	15.1004
 1.5110	15.0459
 1.5100	15.0662
 1.5090	14.9883
 1.5080	14.9981
 1.5070	14.9809
 1.5060	14.9214
 1.5050	14.9337
 1.5040	14.9004
 1.5030	14.8692
 1.5020	14.8560
 1.5010	14.8157
 1.5000	14.7919
 1.4990	14.7890
 1.4980	14.7657
 1.4970	14.7653
 1.4960	14.7206
 1.4950	14.7041
 1.4940	14.7078
 1.4930	14.6483
 1.4920	14.6071
 1.4910	14.6142
 1.4900	14.5496
 1.4890	14.6045
 1.4880	14.6147
 1.4870	14.4973
 1.4860	14.4728
 1.4850	14.4896
 1.4840	14.4734
 1.4830	14.4662
 1.4820	14.3980
 1.4810	14.3374
 1.4800	14.2930
 1.4790	14.2819
 1.4780	14.2391
 1.4770	14.2653
 1.4760	14.2005
 1.4750	14.2277
 1.4740	14.1684
 1.4730	14.1638
 1.4720	14.0890
 1.4710	14.0610
 1.4700	13.9826
 1.4690	13.9901
 1.4680	14.0500
 1.4670	13.9588
 1.4660	13.8968
 1.4650	13.9011
 1.4640	13.8226
 1.4630	13.8348
 1.4620	13.7572
 1.4610	13.8084
 1.4600	13.7182
 1.4590	13.7282
 1.4580	13.6902
 1.4570	13.6726
 1.4560	13.5774
 1.4550	13.6103
 1.4540	13.5975
 1.4530	13.5796
 1.4520	13.5086
 1.4510	13.5153
 1.4500	13.4802
 1.4490	13.4823
 1.4480	13.4080
 1.4470	13.4296
 1.4460	13.3670
 1.4450	13.4339
 1.4440	13.2950
 1.4430	13.2980
 1.4420	13.3119
 1.4410	13.3103
 1.4400	13.2986
 1.4390	13.3299
 1.4380	13.1110
 1.4370	13.2298
 1.4360	13.2165
 1.4350	13.2726
 1.4340	13.0976
 1.4330	13.2027
 1.4320	13.1775
 1.4310	13.1446
 1.4300	13.0812
 1.4290	13.1652
 1.4280	13.0436
 1.4270	13.1131
 1.4260	13.0034
 1.4250	13.0072
 1.4240	12.9443
 1.4230	12.9602
 1.4220	12.8273
 1.4210	12.9449
 1.4200	12.7597
 1.4190	12.6833
 1.4180	12.5672
 1.4170	12.5540
 1.4160	12.4834
 1.4150	12.5165
 1.4140	12.3098
 1.4130	12.3035
 1.4120	12.1808
 1.4110	12.2539
 1.4100	12.1759
 1.4090	12.0792
 1.4080	12.0542
 1.4070	12.0446
 1.4060	11.9266
 1.4050	11.9704
 1.4040	11.9005
 1.4030	11.9914
 1.4020	11.9154
 1.4010	12.0075
 1.4000	11.9279
 1.3990	11.9882
 1.3980	11.9342
 1.3970	12.0240
 1.3960	11.9969
 1.3950	11.9989
 1.3940	12.0743
 1.3930	12.1356
 1.3920	12.1140
 1.3910	12.2770
 1.3900	12.2570
 1.3890	12.2778
 1.3880	12.2772
 1.3870	12.3650
 1.3860	12.1579
 1.3850	12.3375
 1.3840	12.2810
 1.3830	12.2611
 1.3820	12.1341
 1.3810	12.1696
 1.3800	12.1192
 1.3790	12.3096
 1.3780	12.0680
 1.3770	12.2450
 1.3760	12.1082
 1.3750	12.2088
 1.3740	11.9608
 1.3730	12.0519
 1.3720	11.9592
 1.3710	12.0392
 1.3700	11.9077
 1.3690	12.0239
 1.3680	11.8933
 1.3670	11.9444
 1.3660	11.8729
 1.3650	11.8605
 1.3640	11.8035
 1.3630	11.8950
 1.3620	11.7288
 1.3610	11.7615
 1.3600	11.6540
 1.3590	11.7176
 1.3580	11.6735
 1.3570	11.7718
 1.3560	11.7203
 1.3550	11.4353
 1.3540	11.5440
 1.3530	11.6770
 1.3520	11.5257
 1.3510	11.6294
 1.3500	11.4494
 1.3490	11.5172
 1.3480	11.3665
 1.3470	11.4576
 1.3460	11.3509
 1.3450	11.4541
 1.3440	11.2360
 1.3430	11.3863
 1.3420	11.2152
 1.3410	11.3604
 1.3400	11.1191
 1.3390	11.3539
 1.3380	11.1859
 1.3370	11.2415
 1.3360	11.1215
 1.3350	11.2015
 1.3340	11.0449
 1.3330	11.1481
 1.3320	11.0093
 1.3310	11.1039
 1.3300	10.9890
 1.3290	11.0973
 1.3280	10.9827
 1.3270	11.0469
 1.3260	10.9130
 1.3250	11.0051
 1.3240	10.8633
 1.3230	10.9227
 1.3220	10.7786
 1.3210	10.9155
 1.3200	10.7075
 1.3190	10.8442
 1.3180	10.7152
 1.3170	10.8475
 1.3160	10.6242
 1.3150	10.7894
 1.3140	10.6026
 1.3130	10.6941
 1.3120	10.5359
 1.3110	10.6655
 1.3100	10.5431
 1.3090	10.6626
 1.3080	10.3980
 1.3070	10.6201
 1.3060	10.4794
 1.3050	10.5727
 1.3040	10.4274
 1.3030	10.4837
 1.3020	10.4001
 1.3010	10.3843
 1.3000	10.3958
 1.2990	10.4083
 1.2980	10.3006
 1.2970	10.3249
 1.2960	10.2271
 1.2950	10.2855
 1.2940	10.2048
 1.2930	10.2781
 1.2920	10.2065
 1.2910	10.1967
 1.2900	10.1439
 1.2890	10.1847
 1.2880	10.0938
 1.2870	10.1185
 1.2860	10.1156
 1.2850	10.0719
 1.2840	 9.9829
 1.2830	10.0515
 1.2820	10.0052
 1.2810	 9.9921
 1.2800	 9.9318
 1.2790	 9.9357
 1.2780	 9.9097
 1.2770	 9.9461
 1.2760	 9.8295
 1.2750	 9.8857
 1.2740	 9.8491
 1.2730	 9.8505
 1.2720	 9.7843
 1.2710	 9.7947
 1.2700	 9.7446
 1.2690	 9.7958
 1.2680	 9.7150
 1.2670	 9.7152
 1.2660	 9.6458
 1.2650	 9.7343
 1.2640	 9.6043
 1.2630	 9.6686
 1.2620	 9.5840
 1.2610	 9.6105
 1.2600	 9.5633
 1.2590	 9.5780
 1.2580	 9.5577
 1.2570	 9.5242
 1.2560	 9.4400
 1.2550	 9.4966
 1.2540	 9.4717
 1.2530	 9.4361
 1.2520	 9.3333
 1.2510	 9.3642
 1.2500	 9.3641
 1.2490	 9.4077
 1.2480	 9.3623
 1.2470	 9.3611
 1.2460	 9.2755
 1.2450	 9.3478
 1.2440	 9.3244
 1.2430	 9.2632
 1.2420	 9.1883
 1.2410	 9.2424
 1.2400	 9.2052
 1.2390	 9.1762
 1.2380	 9.1071
 1.2370	 9.1180
 1.2360	 9.1085
 1.2350	 9.0801
 1.2340	 9.1056
 1.2330	 9.1255
 1.2320	 9.0629
 1.2310	 9.0405
 1.2300	 9.0077
 1.2290	 8.9991
 1.2280	 9.0233
 1.2270	 9.0067
 1.2260	 8.9768
 1.2250	 8.9498
 1.2240	 8.8720
 1.2230	 8.8962
 1.2220	 8.8883
 1.2210	 8.8896
 1.2200	 8.8890
 1.2190	 8.8101
 1.2180	 8.8322
 1.2170	 8.8692
 1.2160	 8.8069
 1.2150	 8.7702
 1.2140	 8.7625
 1.2130	 8.7425
 1.2120	 8.7464
 1.2110	 8.7352
 1.2100	 8.6967
 1.2090	 8.7354
 1.2080	 8.6932
 1.2070	 8.6344
 1.2060	 8.6473
 1.2050	 8.6978
 1.2040	 8.7066
 1.2030	 8.5881
 1.2020	 8.5618
 1.2010	 8.5887
 1.2000	 8.5769
 1.1990	 8.5333
 1.1980	 8.5302
 1.1970	 8.5475
 1.1960	 8.5207
 1.1950	 8.4788
 1.1940	 8.4887
 1.1930	 8.5202
 1.1920	 8.4873
 1.1910	 8.4095
 1.1900	 8.4498
 1.1890	 8.6287
 1.1880	 8.4280
 1.1870	 8.3454
 1.1860	 8.4088
 1.1850	 8.4260
 1.1840	 8.3980
 1.1830	 8.2955
 1.1820	 8.3613
 1.1810	 8.3259
 1.1800	 8.2920
 1.1790	 8.2514
 1.1780	 8.3029
 1.1770	 8.2266
 1.1760	 8.2910
 1.1750	 8.2511
 1.1740	 8.2163
 1.1730	 8.1972
 1.1720	 8.2517
 1.1710	 8.2014
 1.1700	 8.2256
 1.1690	 8.1714
 1.1680	 8.1859
 1.1670	 8.1992
 1.1660	 8.2028
 1.1650	 8.1523
 1.1640	 8.1830
 1.1630	 8.1814
 1.1620	 8.1471
 1.1610	 8.1341
 1.1600	 8.1084
 1.1590	 8.0551
 1.1580	 8.1212
 1.1570	 8.0947
 1.1560	 8.0535
 1.1550	 8.0100
 1.1540	 8.0653
 1.1530	 8.0519
 1.1520	 8.1000
 1.1510	 8.0221
 1.1500	 8.0660
 1.1490	 7.9901
 1.1480	 8.0202
 1.1470	 7.9562
 1.1460	 8.0550
 1.1450	 7.9372
 1.1440	 7.9885
 1.1430	 7.9648
 1.1420	 7.9168
 1.1410	 7.8636
 1.1400	 7.9510
 1.1390	 7.9962
 1.1380	 8.0218
 1.1370	 7.8941
 1.1360	 7.9955
 1.1350	 7.8854
 1.1340	 7.9352
 1.1330	 7.8608
 1.1320	 7.8875
 1.1310	 7.8226
 1.1300	 7.9676
 1.1290	 7.8907
 1.1280	 7.9801
 1.1270	 7.8186
 1.1260	 7.8947
 1.1250	 7.7533
 1.1240	 7.8781
 1.1230	 7.7703
 1.1220	 7.8879
 1.1210	 7.8101
 1.1200	 7.8359
 1.1190	 7.8087
 1.1180	 7.8906
 1.1170	 7.8323
 1.1160	 7.8339
 1.1150	 7.8193
 1.1140	 7.8698
 1.1130	 7.8038
 1.1120	 7.9515
 1.1110	 7.7903
 1.1100	 7.8434
 1.1090	 7.7607
 1.1080	 7.8497
 1.1070	 7.7351
 1.1060	 7.8142
 1.1050	 7.7726
 1.1040	 7.8606
 1.1030	 7.7922
 1.1020	 7.8596
 1.1010	 7.8410
 1.1000	 7.7896
 1.0990	 7.7937
 1.0980	 7.8215
 1.0970	 7.7353
 1.0960	 7.8026
 1.0950	 7.7887
 1.0940	 7.8261
 1.0930	 7.7615
 1.0920	 7.8511
 1.0910	 7.7283
 1.0900	 7.7993
 1.0890	 7.6875
 1.0880	 7.8843
 1.0870	 7.7488
 1.0860	 7.8498
 1.0850	 7.6725
 1.0840	 7.8424
 1.0830	 7.7279
 1.0820	 7.8416
 1.0810	 7.6918
 1.0800	 7.8471
 1.0790	 7.7676
 1.0780	 7.7491
 1.0770	 7.6893
 1.0760	 7.9178
 1.0750	 7.6799
 1.0740	 7.8570
 1.0730	 7.7007
 1.0720	 7.8235
 1.0710	 7.8051
 1.0700	 7.6808
 1.0690	 7.7830
 1.0680	 7.7869
 1.0670	 7.7921
 1.0660	 7.8468
 1.0650	 7.7517
 1.0640	 7.7606
 1.0630	 7.6876
 1.0620	 7.7549
 1.0610	 7.7392
 1.0600	 7.8200
 1.0590	 7.7369
 1.0580	 7.7864
 1.0570	 7.7245
 1.0560	 7.8278
 1.0550	 7.6615
 1.0540	 7.8407
 1.0530	 7.7140
 1.0520	 7.8248
 1.0510	 7.6883
 1.0500	 7.7603
 1.0490	 7.7097
 1.0480	 7.8183
 1.0470	 7.6374
 1.0460	 7.8424
 1.0450	 7.7272
 1.0440	 7.7300
 1.0430	 7.7516
 1.0420	 7.7631
 1.0410	 7.7721
 1.0400	 7.8297
 1.0390	 7.7159
 1.0380	 7.7888
 1.0370	 7.7294
 1.0360	 7.8256
 1.0350	 7.7271
 1.0340	 7.8286
 1.0330	 7.7100
 1.0320	 7.8331
 1.0310	 7.6939
 1.0300	 7.7467
 1.0290	 7.6892
 1.0280	 7.8656
 1.0270	 7.6808
 1.0260	 7.7890
 1.0250	 7.7791
 1.0240	 7.6872
 1.0230	 7.7382
 1.0220	 7.8056
 1.0210	 7.6953
 1.0200	 7.6915
 1.0190	 7.7036
 1.0180	 7.8528
 1.0170	 7.7293
 1.0160	 7.8208
 1.0150	 7.7093
 1.0140	 7.7715
 1.0130	 7.6745
 1.0120	 7.7672
 1.0110	 7.6898
 1.0100	 7.7291
 1.0090	 7.7137
 1.0080	 7.7098
 1.0070	 7.6429
 1.0060	 7.7195
 1.0050	 7.6639
 1.0040	 7.7719
 1.0030	 7.6985
 1.0020	 7.7626
 1.0010	 7.6603
 1.0000	 7.7588
 0.9990	 7.6808
 0.9980	 7.6430
 0.9970	 7.6775
 0.9960	 7.7054
 0.9950	 7.5833
 0.9940	 7.6783
 0.9930	 7.6100
 0.9920	 7.6829
 0.9910	 7.6049
 0.9900	 7.6353
 0.9890	 7.5897
 0.9880	 7.6600
 0.9870	 7.6046
 0.9860	 7.6725
 0.9850	 7.5600
 0.9840	 7.6150
 0.9830	 7.5515
 0.9820	 7.5927
 0.9810	 7.5515
 0.9800	 7.5989
 0.9790	 7.6223
 0.9780	 7.6047
 0.9770	 7.5088
 0.9760	 7.5237
 0.9750	 7.4808
 0.9740	 7.5518
 0.9730	 7.4787
 0.9720	 7.5059
 0.9710	 7.4250
 0.9700	 7.4962
 0.9690	 7.4691
 0.9680	 7.4421
 0.9670	 7.4560
 0.9660	 7.4344
 0.9650	 7.3400
 0.9640	 7.4726
 0.9630	 7.4211
 0.9620	 7.4576
 0.9610	 7.4695
 0.9600	 7.4273
 0.9590	 7.3657
 0.9580	 7.4336
 0.9570	 7.3819
 0.9560	 7.3524
 0.9550	 7.3724
 0.9540	 7.4226
 0.9530	 7.2851
 0.9520	 7.2744
 0.9510	 7.3344
 0.9500	 7.3795
 0.9490	 7.3668
 0.9480	 7.3809
 0.9470	 7.2658
 0.9460	 7.2811
 0.9450	 7.2915
 0.9440	 7.3025
 0.9430	 7.2675
 0.9420	 7.2526
 0.9410	 7.2208
 0.9400	 7.2608
 0.9390	 7.2437
 0.9380	 7.2411
 0.9370	 7.2045
 0.9360	 7.2134
 0.9350	 7.2141
 0.9340	 7.1784
 0.9330	 7.2369
 0.9320	 7.2094
 0.9310	 7.1647
 0.9300	 7.1981
 0.9290	 7.1813
 0.9280	 7.1577
 0.9270	 7.1425
 0.9260	 7.1250
 0.9250	 7.1277
 0.9240	 7.1260
 0.9230	 7.1543
 0.9220	 7.1498
 0.9210	 7.1323
 0.9200	 7.1013
 0.9190	 7.1317
 0.9180	 7.1023
 0.9170	 7.1163
 0.9160	 7.1129
 0.9150	 7.1411
 0.9140	 7.1128
 0.9130	 7.1452
 0.9120	 7.1141
 0.9110	 7.0613
 0.9100	 7.0696
 0.9090	 7.1360
 0.9080	 7.1339
 0.9070	 7.1535
 0.9060	 7.0929
 0.9050	 7.1266
 0.9040	 7.0959
 0.9030	 7.1066
 0.9020	 7.0748
 0.9010	 7.1109
 0.9000	 7.1024
 0.8990	 7.1276
 0.8980	 7.1657
 0.8970	 7.2142
 0.8960	 7.1328
 0.8950	 7.1220
 0.8940	 7.1633
 0.8930	 7.1675
 0.8920	 7.1638
 0.8910	 7.1958
 0.8900	 7.1187
 0.8890	 7.2431
 0.8880	 7.1307
 0.8870	 7.1572
 0.8860	 7.1586
 0.8850	 7.1774
 0.8840	 7.1748
 0.8830	 7.1944
 0.8820	 7.1547
 0.8810	 7.2190
 0.8800	 7.1757
 0.8790	 7.2093
 0.8780	 7.1964
 0.8770	 7.2504
 0.8760	 7.1820
 0.8750	 7.2799
 0.8740	 7.2068
 0.8730	 7.2344
 0.8720	 7.2974
 0.8710	 7.2756
 0.8700	 7.2183
 0.8690	 7.3077
 0.8680	 7.2713
 0.8670	 7.3595
 0.8660	 7.3544
 0.8650	 7.4009
 0.8640	 7.2875
 0.8630	 7.4266
 0.8620	 7.3449
 0.8610	 7.4300
 0.8600	 7.6778
 0.8590	 7.7661
 0.8580	 7.7985
 0.8570	 7.7800
 0.8560	 7.8231
 0.8550	 7.8312
 0.8540	 7.8146
 0.8530	 7.8259
 0.8520	 7.8374
 0.8510	 7.8403
 0.8500	 7.8524
 0.8490	 7.8636
 0.8480	 7.8660
 0.8470	 7.8774
 0.8460	 7.8884
 0.8450	 7.8996
 0.8440	 7.8938
 0.8430	 7.9049
 0.8420	 7.9137
 0.8410	 7.9266
 0.8400	 7.9403
 0.8390	 7.9477
 0.8380	 7.9530
 0.8370	 7.9558
 0.8360	 7.9648
 0.8350	 7.9701
 0.8340	 7.9866
 0.8330	 7.9887
 0.8320	 7.9910
 0.8310	 8.0152
 0.8300	 8.0135
 0.8290	 8.0212
 0.8280	 8.0204
 0.8270	 8.0157
 0.8260	 8.0252
 0.8250	 8.0340
 0.8240	 8.0412
 0.8230	 8.0520
 0.8220	 8.0507
 0.8210	 8.0599
 0.8200	 8.0625
 0.8190	 8.0562
 0.8180	 8.0628
 0.8170	 8.0744
 0.8160	 8.0705
 0.8150	 8.0806
 0.8140	 8.0739
 0.8130	 8.0795
 0.8120	 8.0827
 0.8110	 8.0756
 0.8100	 8.0730
 0.8090	 8.0768
 0.8080	 8.0781
 0.8070	 8.0724
 0.8060	 8.0727
 0.8050	 8.0717
 0.8040	 8.0586
 0.8030	 8.0683
 0.8020	 8.0755
 0.8010	 8.0686
 0.8000	 8.0644
 0.7990	 8.0487
 0.7980	 8.0550
 0.7970	 8.0358
 0.7960	 8.0271
 0.7950	 8.0293
 0.7940	 8.0218
 0.7930	 8.0196
 0.7920	 8.0043
 0.7910	 8.0016
 0.7900	 7.9879
 0.7890	 7.9820
 0.7880	 7.9738
 0.7870	 7.9628
 0.7860	 7.9565
 0.7850	 7.9456
 0.7840	 7.9296
 0.7830	 7.9195
 0.7820	 7.9239
 0.7810	 7.9046
 0.7800	 7.8969
 0.7790	 7.8880
 0.7780	 7.8759
 0.7770	 7.8584
 0.7760	 7.8478
 0.7750	 7.8388
 0.7740	 7.8253
 0.7730	 7.8145
 0.7720	 7.7988
 0.7710	 7.7918
 0.7700	 7.7760
 0.7690	 7.7737
 0.7680	 7.7646
 0.7670	 7.7466
 0.7660	 7.7365
 0.7650	 7.7198
 0.7640	 7.7122
 0.7630	 7.7033
 0.7620	 7.6876
 0.7610	 7.6797
 0.7600	 7.6714
 0.7590	 7.6631
 0.7580	 7.6530
 0.7570	 7.6370
 0.7560	 7.6349
 0.7550	 7.6277
 0.7540	 7.6073
 0.7530	 7.5977
 0.7520	 7.5977
 0.7510	 7.5808
 0.7500	 7.5767
 0.7490	 7.5655
 0.7480	 7.5602
 0.7470	 7.5542
 0.7460	 7.5504
 0.7450	 7.5401
 0.7440	 7.5308
 0.7430	 7.5201
 0.7420	 7.5181
 0.7410	 7.5059
 0.7400	 7.5040
 0.7390	 7.5024
 0.7380	 7.4963
 0.7370	 7.4920
 0.7360	 7.4797
 0.7350	 7.4831
 0.7340	 7.4794
 0.7330	 7.4716
 0.7320	 7.4597
 0.7310	 7.4656
 0.7300	 7.4633
 0.7290	 7.4582
 0.7280	 7.4592
 0.7270	 7.4518
 0.7260	 7.4579
 0.7250	 7.4506
 0.7240	 7.4468
 0.7230	 7.4520
 0.7220	 7.4529
 0.7210	 7.4523
 0.7200	 7.4525
 0.7190	 7.4525
 0.7180	 7.4514
 0.7170	 7.4546
 0.7160	 7.4581
 0.7150	 7.4588
 0.7140	 7.4628
 0.7130	 7.4668
 0.7120	 7.4715
 0.7110	 7.4726
 0.7100	 7.4801
 0.7090	 7.4822
 0.7080	 7.4867
 0.7070	 7.4908
 0.7060	 7.4927
 0.7050	 7.5009
 0.7040	 7.5106
 0.7030	 7.5220
 0.7020	 7.5243
 0.7010	 7.5311
 0.7000	 7.5407
 0.6990	 7.5483
 0.6980	 7.5569
 0.6970	 7.5645
 0.6960	 7.5746
 0.6950	 7.5845
 0.6940	 7.5933
 0.6930	 7.6041
 0.6920	 7.6142
 0.6910	 7.6273
 0.6900	 7.6359
 0.6890	 7.6469
 0.6880	 7.6596
 0.6870	 7.6718
 0.6860	 7.6830
 0.6850	 7.6953
 0.6840	 7.7107
 0.6830	 7.7220
 0.6820	 7.7329
 0.6810	 7.7464
 0.6800	 7.7638
 0.6790	 7.7810
 0.6780	 7.7962
 0.6770	 7.8083
 0.6760	 7.8229
 0.6750	 7.8401
 0.6740	 7.8547
 0.6730	 7.8711
 0.6720	 7.8870
 0.6710	 7.9049
 0.6700	 7.9185
 0.6690	 7.9367
 0.6680	 7.9558
 0.6670	 7.9732
 0.6660	 7.9890
 0.6650	 8.0069
 0.6640	 8.0294
 0.6630	 8.0461
 0.6620	 8.0623
 0.6610	 8.0821
 0.6600	 8.1004
 0.6590	 8.1200
 0.6580	 8.1397
 0.6570	 8.1601
 0.6560	 8.1795
 0.6550	 8.1977
 0.6540	 8.2181
 0.6530	 8.2415
 0.6520	 8.2608
 0.6510	 8.2810
 0.6500	 8.3034
 0.6490	 8.3261
 0.6480	 8.3495
 0.6470	 8.3703
 0.6460	 8.3902
 0.6450	 8.4110
 0.6440	 8.4334
 0.6430	 8.4559
 0.6420	 8.4782
 0.6410	 8.5018
 0.6400	 8.5240
 0.6390	 8.5473
 0.6380	 8.5717
 0.6370	 8.5953
 0.6360	 8.6171
 0.6350	 8.6410
 0.6340	 8.6680
 0.6330	 8.6930
 0.6320	 8.7159
 0.6310	 8.7349
 0.6300	 8.7498
 0.6290	 8.7674
 0.6280	 8.7938
 0.6270	 8.8207
 0.6260	 8.8452
 0.6250	 8.8686
 0.6240	 8.8927
 0.6230	 8.9173
 0.6220	 8.9454
 0.6210	 8.9747
 0.6200	 8.9986
 0.6190	 9.0234
 0.6180	 9.0493
 0.6170	 9.0742
 0.6160	 9.1025
 0.6150	 9.1283
 0.6140	 9.1549
 0.6130	 9.1814
 0.6120	 9.2075
 0.6110	 9.2324
 0.6100	 9.2574
 0.6090	 9.2864
 0.6080	 9.3124
 0.6070	 9.3396
 0.6060	 9.3669
 0.6050	 9.3944
 0.6040	 9.4224
 0.6030	 9.4484
 0.6020	 9.4747
 0.6010	 9.5003
 0.6000	 9.5272
 0.5990	 9.5580
 0.5980	 9.5885
 0.5970	 9.6179
 0.5960	 9.6433
 0.5950	 9.6701
 0.5940	 9.6970
 0.5930	 9.7272
 0.5920	 9.7543
 0.5910	 9.7798
 0.5900	 9.8064
 0.5890	 9.8328
 0.5880	 9.8575
 0.5870	 9.8842
 0.5860	 9.9116
 0.5850	 9.9396
 0.5840	 9.9622
 0.5830	 9.9856
 0.5820	10.0135
 0.5810	10.0371
 0.5800	10.0611
 0.5790	10.0865
 0.5780	10.1091
 0.5770	10.1350
 0.5760	10.1575
 0.5750	10.1804
 0.5740	10.2012
 0.5730	10.2232
 0.5720	10.2463
 0.5710	10.2666
 0.5700	10.2846
 0.5690	10.3053
 0.5680	10.3266
 0.5670	10.3482
 0.5660	10.3669
 0.5650	10.3850
 0.5640	10.4016
 0.5630	10.4194
 0.5620	10.4362
 0.5610	10.4536
 0.5600	10.4706
 0.5590	10.4834
 0.5580	10.4958
 0.5570	10.5111
 0.5560	10.5247
 0.5550	10.5368
 0.5540	10.5497
 0.5530	10.5571
 0.5520	10.5686
 0.5510	10.5798
 0.5500	10.5870
 0.5490	10.5941
 0.5480	10.5998
 0.5470	10.6101
 0.5460	10.6123
 0.5450	10.6187
 0.5440	10.6254
 0.5430	10.6302
 0.5420	10.6312
 0.5410	10.6360
 0.5400	10.6408
 0.5390	10.6419
 0.5380	10.6453
 0.5370	10.6486
 0.5360	10.6496
 0.5350	10.6568
 0.5340	10.6558
 0.5330	10.6644
 0.5320	10.6729
 0.5310	10.6730
 0.5300	10.6797
 0.5290	10.6876
 0.5280	10.6926
 0.5270	10.7034
 0.5260	10.7080
 0.5250	10.7084
 0.5240	10.7190
 0.5230	10.7232
 0.5220	10.7251
 0.5210	10.7291
 0.5200	10.7299
 0.5190	10.7294
 0.5180	10.7272
 0.5170	10.7226
 0.5160	10.7171
 0.5150	10.7102
 0.5140	10.7063
 0.5130	10.6927
 0.5120	10.6799
 0.5110	10.6707
 0.5100	10.6552
 0.5090	10.6418
 0.5080	10.6301
 0.5070	10.6056
 0.5060	10.5835
 0.5050	10.5631
 0.5040	10.5369
 0.5030	10.5092
 0.5020	10.4736
 0.5010	10.4457
 0.5000	10.4022
 0.4990	10.3692
 0.4980	10.3316
 0.4970	10.2983
 0.4960	10.2704
 0.4950	10.2598
 0.4940	10.2564
 0.4930	10.2587
 0.4920	10.2605
 0.4910	10.2720
 0.4900	10.2783
 0.4890	10.2695
 0.4880	10.2613
 0.4870	10.2438
 0.4860	10.2172
 0.4850	10.1883
 0.4840	10.1487
 0.4830	10.1166
 0.4820	10.0803
 0.4810	10.0423
 0.4800	 9.9993
 0.4790	 9.9706
 0.4780	 9.9353
 0.4770	 9.8907
 0.4760	 9.8564
 0.4750	 9.8189
 0.4740	 9.7772
 0.4730	 9.7352
 0.4720	 9.6970
 0.4710	 9.6631
 0.4700	 9.6217
 0.4690	 9.5898
 0.4680	 9.5517
 0.4670	 9.5266
 0.4660	 9.4954
 0.4650	 9.4673
 0.4640	 9.4384
 0.4630	 9.4180
 0.4620	 9.3936
 0.4610	 9.3701
 0.4600	 9.3535
 0.4590	 9.3301
 0.4580	 9.3134
 0.4570	 9.3011
 0.4560	 9.2835
 0.4550	 9.2730
 0.4540	 9.2633
 0.4530	 9.2536
 0.4520	 9.2475
 0.4510	 9.2487
 0.4500	 9.2451
 0.4490	 9.2438
 0.4480	 9.2392
 0.4470	 9.2399
 0.4460	 9.2359
 0.4450	 9.2277
 0.4440	 9.2137
 0.4430	 9.1980
 0.4420	 9.1786
 0.4410	 9.1572
 0.4400	 9.1304
 0.4390	 9.1058
 0.4380	 9.0748
 0.4370	 9.0478
 0.4360	 9.0405
 0.4350	 9.0115
 0.4340	 8.9778
 0.4330	 8.9534
 0.4320	 8.9225
 0.4310	 8.8966
 0.4300	 8.8713
 0.4290	 8.8418
 0.4280	 8.8104
 0.4270	 8.7828
 0.4260	 8.7527
 0.4250	 8.7176
 0.4240	 8.6815
 0.4230	 8.6483
 0.4220	 8.6149
 0.4210	 8.5810
 0.4200	 8.5470
 0.4190	 8.5184
 0.4180	 8.4927
 0.4170	 8.4619
 0.4160	 8.4344
 0.4150	 8.4093
 0.4140	 8.3832
 0.4130	 8.3634
 0.4120	 8.3421
 0.4110	 8.3256
 0.4100	 8.3124
 0.4090	 8.2964
 0.4080	 8.2816
 0.4070	 8.2719
 0.4060	 8.2663
 0.4050	 8.2561
 0.4040	 8.2523
 0.4030	 8.2508
 0.4020	 8.2496
 0.4010	 8.2549
 0.4000	 8.2560
