Name: Anthophyllite (Mg,Fe^2+)_7Si_8O_22(OH)_2
Type: Mineral
Class: Silicate
Subclass: Inosilicate
Particle Size: Fine
Sample No.: IN-8A
Owner: JPL
Wavelength Range: VSWIR
Origin: USA, North Carolina.
Collection Date: N/A
Description: Particle size was 0-45um.Collected by:  Ward's Original ASTER Spectral Library name was jpl.perkin.mineral.silicate.inosilicate.fine.in08a.spectrum.txt
Measurement: Hemispherical reflectance
First Column: X
Second Column: Y
X Units: Wavelength (micrometers)
Y Units:Reflectance (percent)
First X Value:  2.5000
Last X Value:  0.4000
Number of X Values: 2101
Additional Information: mineral.silicate.inosilicate.fine.vswir.in-8a.jpl.perkin.ancillary.txt

 2.5000	48.0838
 2.4990	47.9388
 2.4980	48.0225
 2.4970	47.8319
 2.4960	47.5355
 2.4950	47.7604
 2.4940	47.7643
 2.4930	47.9087
 2.4920	47.9854
 2.4910	47.8096
 2.4900	48.1077
 2.4890	47.8517
 2.4880	47.9765
 2.4870	48.0185
 2.4860	48.0537
 2.4850	47.9886
 2.4840	48.0034
 2.4830	47.9489
 2.4820	47.9955
 2.4810	47.9984
 2.4800	47.9170
 2.4790	47.9126
 2.4780	47.9550
 2.4770	47.9274
 2.4760	47.7835
 2.4750	47.7522
 2.4740	47.6719
 2.4730	47.6521
 2.4720	47.6417
 2.4710	47.3979
 2.4700	47.5253
 2.4690	47.4963
 2.4680	47.4793
 2.4670	47.4131
 2.4660	47.5167
 2.4650	47.5039
 2.4640	47.5759
 2.4630	47.4559
 2.4620	47.5213
 2.4610	47.4720
 2.4600	47.5257
 2.4590	47.5199
 2.4580	47.5931
 2.4570	47.5526
 2.4560	47.6608
 2.4550	47.5686
 2.4540	47.8238
 2.4530	47.7064
 2.4520	47.7809
 2.4510	47.7886
 2.4500	47.7756
 2.4490	47.7747
 2.4480	47.8828
 2.4470	47.8156
 2.4460	47.8668
 2.4450	47.8250
 2.4440	47.8334
 2.4430	47.7373
 2.4420	47.7873
 2.4410	47.9084
 2.4400	47.8815
 2.4390	47.8525
 2.4380	47.8460
 2.4370	47.8468
 2.4360	47.8922
 2.4350	47.8544
 2.4340	47.8511
 2.4330	47.7543
 2.4320	47.8286
 2.4310	47.8375
 2.4300	47.8097
 2.4290	47.8261
 2.4280	47.8737
 2.4270	47.8278
 2.4260	47.8931
 2.4250	47.8998
 2.4240	47.9636
 2.4230	47.9690
 2.4220	48.0984
 2.4210	48.0460
 2.4200	48.1402
 2.4190	48.1330
 2.4180	48.1805
 2.4170	48.1787
 2.4160	48.1588
 2.4150	48.1787
 2.4140	48.2149
 2.4130	48.2385
 2.4120	48.2116
 2.4110	48.1766
 2.4100	48.2804
 2.4090	48.1443
 2.4080	48.0985
 2.4070	48.0543
 2.4060	47.9722
 2.4050	47.8537
 2.4040	47.8209
 2.4030	47.6388
 2.4020	47.5518
 2.4010	47.4864
 2.4000	47.3669
 2.3990	47.2516
 2.3980	47.1908
 2.3970	47.0561
 2.3960	46.9283
 2.3950	46.7897
 2.3940	46.7571
 2.3930	46.6269
 2.3920	46.5388
 2.3910	46.4547
 2.3900	46.4323
 2.3890	46.3733
 2.3880	46.3148
 2.3870	46.2582
 2.3860	46.2274
 2.3850	46.2722
 2.3840	46.3479
 2.3830	46.3548
 2.3820	46.4639
 2.3810	46.5756
 2.3800	46.6641
 2.3790	46.6589
 2.3780	46.8026
 2.3770	46.9585
 2.3760	47.0496
 2.3750	47.1418
 2.3740	47.2663
 2.3730	47.4146
 2.3720	47.5375
 2.3710	47.6559
 2.3700	47.7794
 2.3690	47.9068
 2.3680	48.0698
 2.3670	48.1504
 2.3660	48.2282
 2.3650	48.3615
 2.3640	48.4730
 2.3630	48.5242
 2.3620	48.6478
 2.3610	48.7625
 2.3600	48.7701
 2.3590	48.7867
 2.3580	48.8787
 2.3570	48.9078
 2.3560	48.9681
 2.3550	49.0479
 2.3540	49.0979
 2.3530	49.1005
 2.3520	49.0514
 2.3510	49.0375
 2.3500	49.0526
 2.3490	49.0412
 2.3480	49.0474
 2.3470	49.0626
 2.3460	49.0613
 2.3450	49.0162
 2.3440	48.9819
 2.3430	48.9705
 2.3420	48.9370
 2.3410	48.9347
 2.3400	48.8164
 2.3390	48.7659
 2.3380	48.6869
 2.3370	48.6036
 2.3360	48.4949
 2.3350	48.3459
 2.3340	48.2171
 2.3330	48.0951
 2.3320	47.9225
 2.3310	47.8010
 2.3300	47.6022
 2.3290	47.3533
 2.3280	47.0997
 2.3270	46.8608
 2.3260	46.6154
 2.3250	46.3158
 2.3240	45.9732
 2.3230	45.6836
 2.3220	45.3810
 2.3210	45.0145
 2.3200	44.6385
 2.3190	44.3004
 2.3180	43.9688
 2.3170	43.6826
 2.3160	43.3222
 2.3150	43.0771
 2.3140	42.8645
 2.3130	42.6542
 2.3120	42.4997
 2.3110	42.4048
 2.3100	42.3299
 2.3090	42.3399
 2.3080	42.3699
 2.3070	42.4811
 2.3060	42.5672
 2.3050	42.7670
 2.3040	43.0447
 2.3030	43.2431
 2.3020	43.5323
 2.3010	43.7851
 2.3000	44.0730
 2.2990	44.3041
 2.2980	44.4969
 2.2970	44.7670
 2.2960	44.9752
 2.2950	45.1125
 2.2940	45.2053
 2.2930	45.3378
 2.2920	45.4182
 2.2910	45.5551
 2.2900	45.6992
 2.2890	45.7925
 2.2880	45.9255
 2.2870	46.0571
 2.2860	46.1944
 2.2850	46.4253
 2.2840	46.5961
 2.2830	46.8173
 2.2820	47.1252
 2.2810	47.3858
 2.2800	47.5772
 2.2790	47.8074
 2.2780	47.9750
 2.2770	48.2225
 2.2760	48.4989
 2.2750	48.7450
 2.2740	48.8718
 2.2730	49.1420
 2.2720	49.2946
 2.2710	49.4786
 2.2700	49.5258
 2.2690	49.7114
 2.2680	49.8076
 2.2670	49.8637
 2.2660	49.9864
 2.2650	50.1511
 2.2640	50.2228
 2.2630	50.3331
 2.2620	50.4886
 2.2610	50.5828
 2.2600	50.6585
 2.2590	50.8318
 2.2580	50.9175
 2.2570	50.9621
 2.2560	51.0184
 2.2550	51.0590
 2.2540	51.0957
 2.2530	51.2133
 2.2520	51.2463
 2.2510	51.3857
 2.2500	51.3934
 2.2490	51.3978
 2.2480	51.5096
 2.2470	51.5028
 2.2460	51.5236
 2.2450	51.5239
 2.2440	51.6086
 2.2430	51.5962
 2.2420	51.5646
 2.2410	51.6960
 2.2400	51.6785
 2.2390	51.6804
 2.2380	51.6640
 2.2370	51.7719
 2.2360	51.8501
 2.2350	51.8439
 2.2340	51.8625
 2.2330	51.9236
 2.2320	51.9000
 2.2310	51.9667
 2.2300	51.9769
 2.2290	52.0890
 2.2280	52.0824
 2.2270	52.2296
 2.2260	52.2212
 2.2250	52.2496
 2.2240	52.2845
 2.2230	52.3725
 2.2220	52.4281
 2.2210	52.5422
 2.2200	52.5737
 2.2190	52.6278
 2.2180	52.6681
 2.2170	52.6978
 2.2160	52.7884
 2.2150	52.7662
 2.2140	52.8170
 2.2130	52.8888
 2.2120	52.8986
 2.2110	52.9443
 2.2100	52.9763
 2.2090	52.9780
 2.2080	53.0337
 2.2070	53.1265
 2.2060	53.0691
 2.2050	53.1930
 2.2040	53.1590
 2.2030	53.2429
 2.2020	53.2557
 2.2010	53.3269
 2.2000	53.3640
 2.1990	53.3639
 2.1980	53.4308
 2.1970	53.5193
 2.1960	53.4777
 2.1950	53.5647
 2.1940	53.4901
 2.1930	53.5900
 2.1920	53.5665
 2.1910	53.5677
 2.1900	53.6081
 2.1890	53.7007
 2.1880	53.6751
 2.1870	53.7560
 2.1860	53.7577
 2.1850	53.7688
 2.1840	53.8234
 2.1830	53.8194
 2.1820	53.8533
 2.1810	53.9332
 2.1800	53.9298
 2.1790	53.9165
 2.1780	53.9390
 2.1770	53.9916
 2.1760	54.0586
 2.1750	54.0787
 2.1740	54.0903
 2.1730	54.1523
 2.1720	54.1578
 2.1710	54.2616
 2.1700	54.2664
 2.1690	54.3062
 2.1680	54.3617
 2.1670	54.3987
 2.1660	54.4273
 2.1650	54.4258
 2.1640	54.4335
 2.1630	54.5336
 2.1620	54.5569
 2.1610	54.6749
 2.1600	54.6872
 2.1590	54.6882
 2.1580	54.7104
 2.1570	54.7782
 2.1560	54.7716
 2.1550	54.8371
 2.1540	54.8146
 2.1530	54.9106
 2.1520	54.8998
 2.1510	54.8770
 2.1500	54.9333
 2.1490	55.0317
 2.1480	54.9329
 2.1470	54.9807
 2.1460	54.9605
 2.1450	54.9844
 2.1440	55.0547
 2.1430	55.0083
 2.1420	55.0701
 2.1410	55.0825
 2.1400	55.0733
 2.1390	55.1121
 2.1380	55.0952
 2.1370	55.0917
 2.1360	55.1270
 2.1350	55.1281
 2.1340	55.0997
 2.1330	55.0880
 2.1320	55.1117
 2.1310	55.1014
 2.1300	55.1176
 2.1290	55.1023
 2.1280	55.1058
 2.1270	55.0857
 2.1260	55.0365
 2.1250	55.0319
 2.1240	55.0908
 2.1230	55.1300
 2.1220	55.0849
 2.1210	55.1267
 2.1200	55.0610
 2.1190	55.1140
 2.1180	55.1045
 2.1170	55.0856
 2.1160	55.0737
 2.1150	55.0555
 2.1140	55.0421
 2.1130	55.0504
 2.1120	55.0686
 2.1110	55.0885
 2.1100	55.0504
 2.1090	55.0815
 2.1080	55.0711
 2.1070	55.0301
 2.1060	55.0560
 2.1050	55.0275
 2.1040	54.9982
 2.1030	55.0003
 2.1020	54.9818
 2.1010	55.0327
 2.1000	54.9959
 2.0990	55.0299
 2.0980	55.0520
 2.0970	55.0740
 2.0960	55.0928
 2.0950	55.0837
 2.0940	55.1362
 2.0930	55.2074
 2.0920	55.2375
 2.0910	55.2546
 2.0900	55.2521
 2.0890	55.3052
 2.0880	55.2987
 2.0870	55.3140
 2.0860	55.3652
 2.0850	55.3793
 2.0840	55.3804
 2.0830	55.3768
 2.0820	55.4216
 2.0810	55.4406
 2.0800	55.4574
 2.0790	55.5719
 2.0780	55.5320
 2.0770	55.5465
 2.0760	55.6378
 2.0750	55.6457
 2.0740	55.6859
 2.0730	55.7234
 2.0720	55.7451
 2.0710	55.7883
 2.0700	55.8502
 2.0690	55.9050
 2.0680	55.9351
 2.0670	55.9189
 2.0660	55.9177
 2.0650	55.9739
 2.0640	56.0464
 2.0630	56.0448
 2.0620	56.0600
 2.0610	56.1161
 2.0600	56.1285
 2.0590	56.1554
 2.0580	56.1729
 2.0570	56.1818
 2.0560	56.2092
 2.0550	56.1923
 2.0540	56.2466
 2.0530	56.2777
 2.0520	56.2461
 2.0510	56.3009
 2.0500	56.3626
 2.0490	56.3535
 2.0480	56.3796
 2.0470	56.3399
 2.0460	56.3662
 2.0450	56.3811
 2.0440	56.3916
 2.0430	56.4747
 2.0420	56.4921
 2.0410	56.4583
 2.0400	56.4987
 2.0390	56.5569
 2.0380	56.5654
 2.0370	56.5329
 2.0360	56.5623
 2.0350	56.5553
 2.0340	56.6458
 2.0330	56.6570
 2.0320	56.6290
 2.0310	56.6500
 2.0300	56.7070
 2.0290	56.6725
 2.0280	56.6740
 2.0270	56.6825
 2.0260	56.6751
 2.0250	56.6653
 2.0240	56.6797
 2.0230	56.6767
 2.0220	56.6907
 2.0210	56.6971
 2.0200	56.7499
 2.0190	56.7754
 2.0180	56.7265
 2.0170	56.6755
 2.0160	56.7404
 2.0150	56.7721
 2.0140	56.7734
 2.0130	56.7920
 2.0120	56.8327
 2.0110	56.8334
 2.0100	56.8321
 2.0090	56.8878
 2.0080	56.8698
 2.0070	56.8140
 2.0060	56.8403
 2.0050	56.9263
 2.0040	56.8754
 2.0030	56.8645
 2.0020	56.9145
 2.0010	56.8930
 2.0000	56.9309
 1.9990	56.9389
 1.9980	56.9342
 1.9970	56.9356
 1.9960	56.8717
 1.9950	56.8551
 1.9940	56.9087
 1.9930	56.9442
 1.9920	56.9911
 1.9910	56.8988
 1.9900	56.9020
 1.9890	56.9136
 1.9880	56.8896
 1.9870	56.8860
 1.9860	56.9190
 1.9850	56.9407
 1.9840	56.9419
 1.9830	56.9007
 1.9820	56.8833
 1.9810	56.9525
 1.9800	56.9808
 1.9790	56.9876
 1.9780	56.9136
 1.9770	56.9435
 1.9760	57.0000
 1.9750	57.0121
 1.9740	56.9784
 1.9730	56.9474
 1.9720	57.0551
 1.9710	56.9263
 1.9700	56.9978
 1.9690	56.9375
 1.9680	57.0436
 1.9670	56.9732
 1.9660	57.0432
 1.9650	57.0512
 1.9640	57.0602
 1.9630	57.0730
 1.9620	57.1270
 1.9610	57.0705
 1.9600	57.1005
 1.9590	57.0761
 1.9580	56.9951
 1.9570	57.1296
 1.9560	57.0312
 1.9550	57.1004
 1.9540	57.1258
 1.9530	57.0844
 1.9520	57.1457
 1.9510	57.2181
 1.9500	57.2483
 1.9490	57.1416
 1.9480	57.1808
 1.9470	57.1510
 1.9460	57.1749
 1.9450	57.1811
 1.9440	57.2418
 1.9430	57.2295
 1.9420	57.2506
 1.9410	57.2907
 1.9400	57.2705
 1.9390	57.1937
 1.9380	57.2685
 1.9370	57.2968
 1.9360	57.2283
 1.9350	57.3025
 1.9340	57.3048
 1.9330	57.3050
 1.9320	57.3811
 1.9310	57.3372
 1.9300	57.3940
 1.9290	57.3682
 1.9280	57.4457
 1.9270	57.4042
 1.9260	57.3261
 1.9250	57.3971
 1.9240	57.4298
 1.9230	57.3850
 1.9220	57.5050
 1.9210	57.3779
 1.9200	57.4098
 1.9190	57.4512
 1.9180	57.5263
 1.9170	57.5041
 1.9160	57.5721
 1.9150	57.5253
 1.9140	57.6180
 1.9130	57.5704
 1.9120	57.6840
 1.9110	57.6497
 1.9100	57.7903
 1.9090	57.8288
 1.9080	57.7450
 1.9070	57.7968
 1.9060	57.8863
 1.9050	57.8606
 1.9040	57.9715
 1.9030	58.0021
 1.9020	58.0294
 1.9010	58.0441
 1.9000	58.1664
 1.8990	58.1414
 1.8980	58.2188
 1.8970	58.2268
 1.8960	58.3402
 1.8950	58.3010
 1.8940	58.4181
 1.8930	58.4525
 1.8920	58.5232
 1.8910	58.5423
 1.8900	58.6208
 1.8890	58.5990
 1.8880	58.6784
 1.8870	58.7018
 1.8860	58.7386
 1.8850	58.7037
 1.8840	58.7943
 1.8830	58.7886
 1.8820	58.9078
 1.8810	58.8482
 1.8800	58.9640
 1.8790	58.9258
 1.8780	58.9891
 1.8770	59.0541
 1.8760	59.0444
 1.8750	59.0283
 1.8740	59.1093
 1.8730	59.1056
 1.8720	59.1443
 1.8710	59.1527
 1.8700	59.1392
 1.8690	59.1322
 1.8680	59.1847
 1.8670	59.1675
 1.8660	59.2724
 1.8650	59.2096
 1.8640	59.2898
 1.8630	59.3187
 1.8620	59.3150
 1.8610	59.3426
 1.8600	59.3517
 1.8590	59.3539
 1.8580	59.3069
 1.8570	59.3180
 1.8560	59.3541
 1.8550	59.3707
 1.8540	59.4071
 1.8530	59.4193
 1.8520	59.4626
 1.8510	59.4486
 1.8500	59.4807
 1.8490	59.4763
 1.8480	59.5132
 1.8470	59.4862
 1.8460	59.5165
 1.8450	59.5028
 1.8440	59.5141
 1.8430	59.5945
 1.8420	59.5322
 1.8410	59.5006
 1.8400	59.5074
 1.8390	59.5526
 1.8380	59.5754
 1.8370	59.5398
 1.8360	59.5312
 1.8350	59.5966
 1.8340	59.5937
 1.8330	59.6408
 1.8320	59.6675
 1.8310	59.6270
 1.8300	59.6040
 1.8290	59.6420
 1.8280	59.6499
 1.8270	59.6686
 1.8260	59.7365
 1.8250	59.7070
 1.8240	59.7211
 1.8230	59.6749
 1.8220	59.6757
 1.8210	59.6599
 1.8200	59.7003
 1.8190	59.7085
 1.8180	59.7322
 1.8170	59.7205
 1.8160	59.7236
 1.8150	59.7563
 1.8140	59.7980
 1.8130	59.8170
 1.8120	59.8368
 1.8110	59.7851
 1.8100	59.8107
 1.8090	59.8455
 1.8080	59.8731
 1.8070	59.8619
 1.8060	59.8990
 1.8050	59.9030
 1.8040	59.8915
 1.8030	59.9223
 1.8020	59.9026
 1.8010	59.9070
 1.8000	59.9370
 1.7990	59.9414
 1.7980	59.9407
 1.7970	59.9668
 1.7960	60.0215
 1.7950	60.0121
 1.7940	59.9757
 1.7930	59.9882
 1.7920	59.9977
 1.7910	59.9620
 1.7900	59.9905
 1.7890	60.0116
 1.7880	59.9865
 1.7870	59.9598
 1.7860	59.9452
 1.7850	59.9724
 1.7840	60.0157
 1.7830	59.9729
 1.7820	60.0063
 1.7810	60.0258
 1.7800	59.9731
 1.7790	59.9788
 1.7780	59.9884
 1.7770	60.0097
 1.7760	59.9998
 1.7750	59.9937
 1.7740	60.0269
 1.7730	60.0272
 1.7720	60.0147
 1.7710	60.0758
 1.7700	60.0688
 1.7690	60.0463
 1.7680	60.0456
 1.7670	60.0592
 1.7660	60.0822
 1.7650	60.0956
 1.7640	60.0778
 1.7630	60.0408
 1.7620	60.0760
 1.7610	60.1538
 1.7600	60.0745
 1.7590	60.1049
 1.7580	60.1659
 1.7570	60.1440
 1.7560	60.1220
 1.7550	60.1669
 1.7540	60.1676
 1.7530	60.1199
 1.7520	60.1515
 1.7510	60.2153
 1.7500	60.2160
 1.7490	60.2006
 1.7480	60.2253
 1.7470	60.2393
 1.7460	60.2262
 1.7450	60.2446
 1.7440	60.2013
 1.7430	60.2010
 1.7420	60.2183
 1.7410	60.2817
 1.7400	60.2767
 1.7390	60.2397
 1.7380	60.2837
 1.7370	60.2805
 1.7360	60.2558
 1.7350	60.2826
 1.7340	60.2963
 1.7330	60.3667
 1.7320	60.3318
 1.7310	60.3585
 1.7300	60.3367
 1.7290	60.3393
 1.7280	60.2872
 1.7270	60.3577
 1.7260	60.3701
 1.7250	60.3988
 1.7240	60.4127
 1.7230	60.4148
 1.7220	60.4170
 1.7210	60.4761
 1.7200	60.3832
 1.7190	60.4044
 1.7180	60.4310
 1.7170	60.4663
 1.7160	60.4163
 1.7150	60.4356
 1.7140	60.4211
 1.7130	60.4317
 1.7120	60.4081
 1.7110	60.4196
 1.7100	60.4186
 1.7090	60.4225
 1.7080	60.3373
 1.7070	60.4529
 1.7060	60.4649
 1.7050	60.4629
 1.7040	60.4553
 1.7030	60.3810
 1.7020	60.4537
 1.7010	60.4798
 1.7000	60.4155
 1.6990	60.4235
 1.6980	60.4730
 1.6970	60.5178
 1.6960	60.4782
 1.6950	60.4716
 1.6940	60.4506
 1.6930	60.4905
 1.6920	60.4973
 1.6910	60.5095
 1.6900	60.4690
 1.6890	60.4947
 1.6880	60.4659
 1.6870	60.4066
 1.6860	60.4503
 1.6850	60.4791
 1.6840	60.5067
 1.6830	60.5524
 1.6820	60.4868
 1.6810	60.5773
 1.6800	60.4969
 1.6790	60.5426
 1.6780	60.4825
 1.6770	60.5459
 1.6760	60.5240
 1.6750	60.5675
 1.6740	60.5431
 1.6730	60.5451
 1.6720	60.5676
 1.6710	60.5989
 1.6700	60.4898
 1.6690	60.6038
 1.6680	60.4963
 1.6670	60.5762
 1.6660	60.5758
 1.6650	60.6400
 1.6640	60.6151
 1.6630	60.6147
 1.6620	60.5867
 1.6610	60.6474
 1.6600	60.6412
 1.6590	60.6422
 1.6580	60.5804
 1.6570	60.6291
 1.6560	60.5531
 1.6550	60.5705
 1.6540	60.6039
 1.6530	60.6042
 1.6520	60.6483
 1.6510	60.6260
 1.6500	60.5908
 1.6490	60.5720
 1.6480	60.6770
 1.6470	60.6877
 1.6460	60.6394
 1.6450	60.6966
 1.6440	60.6859
 1.6430	60.6096
 1.6420	60.6953
 1.6410	60.6769
 1.6400	60.5945
 1.6390	60.6893
 1.6380	60.6724
 1.6370	60.7076
 1.6360	60.6575
 1.6350	60.6882
 1.6340	60.6300
 1.6330	60.7173
 1.6320	60.7034
 1.6310	60.6776
 1.6300	60.6756
 1.6290	60.6617
 1.6280	60.6555
 1.6270	60.6464
 1.6260	60.6856
 1.6250	60.7682
 1.6240	60.6678
 1.6230	60.7081
 1.6220	60.7555
 1.6210	60.7273
 1.6200	60.7285
 1.6190	60.7497
 1.6180	60.6838
 1.6170	60.7359
 1.6160	60.7511
 1.6150	60.8359
 1.6140	60.7552
 1.6130	60.7619
 1.6120	60.7200
 1.6110	60.6769
 1.6100	60.7776
 1.6090	60.7627
 1.6080	60.7750
 1.6070	60.7869
 1.6060	60.7374
 1.6050	60.7638
 1.6040	60.7242
 1.6030	60.7292
 1.6020	60.7624
 1.6010	60.7197
 1.6000	60.7045
 1.5990	60.7739
 1.5980	60.7620
 1.5970	60.7562
 1.5960	60.7778
 1.5950	60.7757
 1.5940	60.7449
 1.5930	60.7364
 1.5920	60.6689
 1.5910	60.7569
 1.5900	60.7954
 1.5890	60.7670
 1.5880	60.7759
 1.5870	60.8044
 1.5860	60.7973
 1.5850	60.7855
 1.5840	60.7736
 1.5830	60.7377
 1.5820	60.7825
 1.5810	60.7522
 1.5800	60.7141
 1.5790	60.7698
 1.5780	60.7839
 1.5770	60.8097
 1.5760	60.8014
 1.5750	60.7880
 1.5740	60.7495
 1.5730	60.7159
 1.5720	60.7483
 1.5710	60.6955
 1.5700	60.7346
 1.5690	60.7639
 1.5680	60.7694
 1.5670	60.7671
 1.5660	60.7030
 1.5650	60.7461
 1.5640	60.7285
 1.5630	60.7836
 1.5620	60.7039
 1.5610	60.7184
 1.5600	60.7608
 1.5590	60.7696
 1.5580	60.6811
 1.5570	60.6343
 1.5560	60.6721
 1.5550	60.7469
 1.5540	60.6955
 1.5530	60.6868
 1.5520	60.6975
 1.5510	60.7227
 1.5500	60.6768
 1.5490	60.6818
 1.5480	60.6754
 1.5470	60.7265
 1.5460	60.6897
 1.5450	60.6442
 1.5440	60.6427
 1.5430	60.6526
 1.5420	60.6297
 1.5410	60.6651
 1.5400	60.6530
 1.5390	60.6327
 1.5380	60.6524
 1.5370	60.6815
 1.5360	60.6772
 1.5350	60.6618
 1.5340	60.6327
 1.5330	60.6161
 1.5320	60.6075
 1.5310	60.6292
 1.5300	60.6235
 1.5290	60.6307
 1.5280	60.6812
 1.5270	60.6583
 1.5260	60.6120
 1.5250	60.6361
 1.5240	60.6229
 1.5230	60.6000
 1.5220	60.6483
 1.5210	60.6147
 1.5200	60.5852
 1.5190	60.6255
 1.5180	60.6312
 1.5170	60.6047
 1.5160	60.6141
 1.5150	60.6415
 1.5140	60.5910
 1.5130	60.5757
 1.5120	60.6100
 1.5110	60.6144
 1.5100	60.6013
 1.5090	60.6049
 1.5080	60.5240
 1.5070	60.4923
 1.5060	60.5321
 1.5050	60.5500
 1.5040	60.5494
 1.5030	60.5843
 1.5020	60.5780
 1.5010	60.5584
 1.5000	60.5276
 1.4990	60.5272
 1.4980	60.5284
 1.4970	60.4977
 1.4960	60.4981
 1.4950	60.4843
 1.4940	60.5026
 1.4930	60.5313
 1.4920	60.5003
 1.4910	60.4660
 1.4900	60.5065
 1.4890	60.5001
 1.4880	60.4722
 1.4870	60.4582
 1.4860	60.4347
 1.4850	60.4131
 1.4840	60.3692
 1.4830	60.3617
 1.4820	60.4266
 1.4810	60.4125
 1.4800	60.4141
 1.4790	60.4001
 1.4780	60.3953
 1.4770	60.3677
 1.4760	60.3749
 1.4750	60.4324
 1.4740	60.4079
 1.4730	60.2984
 1.4720	60.3104
 1.4710	60.2946
 1.4700	60.3107
 1.4690	60.3256
 1.4680	60.2878
 1.4670	60.2518
 1.4660	60.3135
 1.4650	60.3179
 1.4640	60.3159
 1.4630	60.3155
 1.4620	60.2574
 1.4610	60.2900
 1.4600	60.2843
 1.4590	60.2464
 1.4580	60.2670
 1.4570	60.2341
 1.4560	60.2370
 1.4550	60.2351
 1.4540	60.2943
 1.4530	60.2543
 1.4520	60.1852
 1.4510	60.1248
 1.4500	60.1630
 1.4490	60.1937
 1.4480	60.1677
 1.4470	60.2088
 1.4460	60.2216
 1.4450	60.0944
 1.4440	60.0900
 1.4430	60.0943
 1.4420	60.1065
 1.4410	60.1260
 1.4400	60.1238
 1.4390	60.0246
 1.4380	60.0517
 1.4370	60.0662
 1.4360	60.0432
 1.4350	60.0466
 1.4340	60.0678
 1.4330	59.9909
 1.4320	60.0456
 1.4310	60.0305
 1.4300	59.9517
 1.4290	59.9279
 1.4280	59.9602
 1.4270	59.8597
 1.4260	59.8748
 1.4250	59.9185
 1.4240	59.8965
 1.4230	59.9194
 1.4220	59.9208
 1.4210	59.8409
 1.4200	59.8847
 1.4190	59.8621
 1.4180	59.8306
 1.4170	59.8032
 1.4160	59.8181
 1.4150	59.7917
 1.4140	59.8308
 1.4130	59.8066
 1.4120	59.7975
 1.4110	59.7989
 1.4100	59.7784
 1.4090	59.7259
 1.4080	59.7159
 1.4070	59.7023
 1.4060	59.6500
 1.4050	59.6120
 1.4040	59.5039
 1.4030	59.4562
 1.4020	59.3120
 1.4010	58.9819
 1.4000	58.6325
 1.3990	58.2237
 1.3980	57.7099
 1.3970	57.2627
 1.3960	56.5800
 1.3950	55.3621
 1.3940	54.2285
 1.3930	53.5304
 1.3920	53.4414
 1.3910	54.5662
 1.3900	56.1789
 1.3890	57.6197
 1.3880	58.7081
 1.3870	59.0371
 1.3860	59.2932
 1.3850	59.1896
 1.3840	59.2567
 1.3830	59.1120
 1.3820	59.1852
 1.3810	59.2484
 1.3800	59.4460
 1.3790	59.6141
 1.3780	59.8307
 1.3770	59.8290
 1.3760	59.9401
 1.3750	59.9078
 1.3740	59.9448
 1.3730	59.8493
 1.3720	59.8268
 1.3710	59.8373
 1.3700	59.8490
 1.3690	59.8645
 1.3680	59.8127
 1.3670	59.8778
 1.3660	59.8118
 1.3650	59.7999
 1.3640	59.7589
 1.3630	59.7802
 1.3620	59.8360
 1.3610	59.6925
 1.3600	59.7557
 1.3590	59.6788
 1.3580	59.7430
 1.3570	59.7076
 1.3560	59.7160
 1.3550	59.5180
 1.3540	59.7239
 1.3530	59.6868
 1.3520	59.7206
 1.3510	59.7102
 1.3500	59.7072
 1.3490	59.7100
 1.3480	59.7824
 1.3470	59.6701
 1.3460	59.6849
 1.3450	59.6336
 1.3440	59.7040
 1.3430	59.5797
 1.3420	59.6694
 1.3410	59.6560
 1.3400	59.6535
 1.3390	59.6204
 1.3380	59.5358
 1.3370	59.5882
 1.3360	59.5147
 1.3350	59.5611
 1.3340	59.6359
 1.3330	59.5877
 1.3320	59.5768
 1.3310	59.5930
 1.3300	59.5421
 1.3290	59.4270
 1.3280	59.5322
 1.3270	59.5024
 1.3260	59.4842
 1.3250	59.4748
 1.3240	59.4654
 1.3230	59.4137
 1.3220	59.4024
 1.3210	59.4508
 1.3200	59.4872
 1.3190	59.4458
 1.3180	59.4458
 1.3170	59.4091
 1.3160	59.3492
 1.3150	59.3702
 1.3140	59.4625
 1.3130	59.3286
 1.3120	59.3362
 1.3110	59.3409
 1.3100	59.3214
 1.3090	59.3336
 1.3080	59.3946
 1.3070	59.3236
 1.3060	59.2764
 1.3050	59.2720
 1.3040	59.3153
 1.3030	59.2619
 1.3020	59.2186
 1.3010	59.1863
 1.3000	59.2284
 1.2990	59.2229
 1.2980	59.2804
 1.2970	59.2136
 1.2960	59.1584
 1.2950	59.1774
 1.2940	59.1773
 1.2930	59.1410
 1.2920	59.1564
 1.2910	59.1334
 1.2900	59.1219
 1.2890	59.1174
 1.2880	59.1332
 1.2870	59.0919
 1.2860	59.0893
 1.2850	59.0584
 1.2840	59.0392
 1.2830	59.0196
 1.2820	59.1046
 1.2810	59.0886
 1.2800	59.0380
 1.2790	58.9849
 1.2780	58.9896
 1.2770	58.9764
 1.2760	58.9415
 1.2750	59.0009
 1.2740	59.0091
 1.2730	58.9074
 1.2720	58.9251
 1.2710	58.9736
 1.2700	58.9395
 1.2690	58.9180
 1.2680	58.9557
 1.2670	58.9637
 1.2660	58.9234
 1.2650	58.8995
 1.2640	58.9284
 1.2630	58.8974
 1.2620	58.8765
 1.2610	58.9066
 1.2600	58.9153
 1.2590	58.8925
 1.2580	58.8847
 1.2570	58.8910
 1.2560	58.8282
 1.2550	58.8227
 1.2540	58.8619
 1.2530	58.8519
 1.2520	58.8326
 1.2510	58.8425
 1.2500	58.8704
 1.2490	58.8069
 1.2480	58.8375
 1.2470	58.7970
 1.2460	58.7707
 1.2450	58.8026
 1.2440	58.8173
 1.2430	58.8008
 1.2420	58.8207
 1.2410	58.7740
 1.2400	58.7411
 1.2390	58.7726
 1.2380	58.8252
 1.2370	58.7710
 1.2360	58.6960
 1.2350	58.6659
 1.2340	58.6938
 1.2330	58.7095
 1.2320	58.7298
 1.2310	58.7612
 1.2300	58.7738
 1.2290	58.7470
 1.2280	58.7046
 1.2270	58.6668
 1.2260	58.6844
 1.2250	58.6656
 1.2240	58.6740
 1.2230	58.6457
 1.2220	58.5996
 1.2210	58.5871
 1.2200	58.5889
 1.2190	58.6278
 1.2180	58.6258
 1.2170	58.6094
 1.2160	58.5865
 1.2150	58.5755
 1.2140	58.5876
 1.2130	58.5613
 1.2120	58.5361
 1.2110	58.5064
 1.2100	58.4985
 1.2090	58.5119
 1.2080	58.5827
 1.2070	58.5779
 1.2060	58.5158
 1.2050	58.5090
 1.2040	58.5067
 1.2030	58.5364
 1.2020	58.5162
 1.2010	58.4591
 1.2000	58.4694
 1.1990	58.4971
 1.1980	58.4658
 1.1970	58.4596
 1.1960	58.4275
 1.1950	58.4515
 1.1940	58.4653
 1.1930	58.4337
 1.1920	58.3777
 1.1910	58.4144
 1.1900	58.3820
 1.1890	58.3510
 1.1880	58.3273
 1.1870	58.4046
 1.1860	58.4024
 1.1850	58.3506
 1.1840	58.3196
 1.1830	58.3460
 1.1820	58.3432
 1.1810	58.3801
 1.1800	58.3853
 1.1790	58.3527
 1.1780	58.2915
 1.1770	58.2907
 1.1760	58.2943
 1.1750	58.3255
 1.1740	58.2781
 1.1730	58.2898
 1.1720	58.2883
 1.1710	58.2775
 1.1700	58.2574
 1.1690	58.2371
 1.1680	58.1750
 1.1670	58.2569
 1.1660	58.2682
 1.1650	58.2173
 1.1640	58.2081
 1.1630	58.2101
 1.1620	58.1593
 1.1610	58.1734
 1.1600	58.1609
 1.1590	58.1252
 1.1580	58.1544
 1.1570	58.1274
 1.1560	58.1196
 1.1550	58.1236
 1.1540	58.1363
 1.1530	58.1032
 1.1520	58.0749
 1.1510	58.0008
 1.1500	58.0354
 1.1490	58.0528
 1.1480	58.0077
 1.1470	58.0131
 1.1460	57.9764
 1.1450	58.0057
 1.1440	57.9492
 1.1430	57.9862
 1.1420	57.9287
 1.1410	57.9688
 1.1400	57.9816
 1.1390	57.9661
 1.1380	57.9449
 1.1370	57.9204
 1.1360	57.9117
 1.1350	57.8288
 1.1340	57.7982
 1.1330	57.8421
 1.1320	57.8279
 1.1310	57.7865
 1.1300	57.8510
 1.1290	57.8190
 1.1280	57.7372
 1.1270	57.7867
 1.1260	57.7768
 1.1250	57.7825
 1.1240	57.7647
 1.1230	57.7371
 1.1220	57.6628
 1.1210	57.5918
 1.1200	57.6535
 1.1190	57.6510
 1.1180	57.6309
 1.1170	57.6251
 1.1160	57.5481
 1.1150	57.6519
 1.1140	57.5733
 1.1130	57.5048
 1.1120	57.5072
 1.1110	57.4631
 1.1100	57.5249
 1.1090	57.4908
 1.1080	57.4591
 1.1070	57.4124
 1.1060	57.3450
 1.1050	57.4104
 1.1040	57.3508
 1.1030	57.3277
 1.1020	57.3287
 1.1010	57.3845
 1.1000	57.3241
 1.0990	57.1907
 1.0980	57.1611
 1.0970	57.3003
 1.0960	57.2716
 1.0950	57.2516
 1.0940	57.0783
 1.0930	57.1389
 1.0920	57.1134
 1.0910	57.0850
 1.0900	57.0537
 1.0890	57.0009
 1.0880	57.0073
 1.0870	57.0446
 1.0860	57.0268
 1.0850	56.9481
 1.0840	57.0170
 1.0830	56.9870
 1.0820	56.8699
 1.0810	56.8607
 1.0800	56.8321
 1.0790	56.9453
 1.0780	56.8083
 1.0770	56.8008
 1.0760	56.7103
 1.0750	56.7217
 1.0740	56.5958
 1.0730	56.6934
 1.0720	56.6156
 1.0710	56.7088
 1.0700	56.5342
 1.0690	56.6641
 1.0680	56.4628
 1.0670	56.5365
 1.0660	56.4907
 1.0650	56.5425
 1.0640	56.3698
 1.0630	56.4674
 1.0620	56.3751
 1.0610	56.3049
 1.0600	56.2433
 1.0590	56.2852
 1.0580	56.2744
 1.0570	56.2763
 1.0560	56.1933
 1.0550	56.1799
 1.0540	56.0610
 1.0530	56.1804
 1.0520	56.0383
 1.0510	56.0579
 1.0500	55.9551
 1.0490	55.9412
 1.0480	55.9489
 1.0470	55.9192
 1.0460	55.8012
 1.0450	55.8485
 1.0440	55.7783
 1.0430	55.7220
 1.0420	55.6936
 1.0410	55.6670
 1.0400	55.5966
 1.0390	55.6329
 1.0380	55.5195
 1.0370	55.5506
 1.0360	55.4423
 1.0350	55.4819
 1.0340	55.2852
 1.0330	55.3389
 1.0320	55.2796
 1.0310	55.1899
 1.0300	55.1662
 1.0290	55.1103
 1.0280	55.0055
 1.0270	54.9041
 1.0260	54.8841
 1.0250	54.8500
 1.0240	54.8079
 1.0230	54.8231
 1.0220	54.6033
 1.0210	54.5346
 1.0200	54.4724
 1.0190	54.4092
 1.0180	54.2803
 1.0170	54.2952
 1.0160	54.2323
 1.0150	54.2009
 1.0140	53.9997
 1.0130	53.9764
 1.0120	53.9136
 1.0110	53.9151
 1.0100	53.6862
 1.0090	53.6162
 1.0080	53.5336
 1.0070	53.3850
 1.0060	53.2696
 1.0050	53.2441
 1.0040	53.1072
 1.0030	52.9882
 1.0020	52.8578
 1.0010	52.7399
 1.0000	52.7003
 0.9990	52.6290
 0.9980	52.4763
 0.9970	52.3296
 0.9960	52.2560
 0.9950	52.1706
 0.9940	52.0240
 0.9930	51.8871
 0.9920	51.8261
 0.9910	51.6619
 0.9900	51.5279
 0.9890	51.4243
 0.9880	51.2964
 0.9870	51.1651
 0.9860	50.9935
 0.9850	50.9966
 0.9840	50.8729
 0.9830	50.7695
 0.9820	50.6713
 0.9810	50.5196
 0.9800	50.4643
 0.9790	50.3498
 0.9780	50.1513
 0.9770	50.1253
 0.9760	49.9923
 0.9750	49.9963
 0.9740	49.8807
 0.9730	49.7920
 0.9720	49.7363
 0.9710	49.6119
 0.9700	49.5116
 0.9690	49.4302
 0.9680	49.2903
 0.9670	49.2602
 0.9660	49.2323
 0.9650	49.0934
 0.9640	49.0111
 0.9630	48.9748
 0.9620	48.9192
 0.9610	48.8657
 0.9600	48.7650
 0.9590	48.7516
 0.9580	48.6715
 0.9570	48.6359
 0.9560	48.5831
 0.9550	48.5512
 0.9540	48.4685
 0.9530	48.4358
 0.9520	48.3802
 0.9510	48.3241
 0.9500	48.2551
 0.9490	48.2496
 0.9480	48.2368
 0.9470	48.2297
 0.9460	48.2201
 0.9450	48.1888
 0.9440	48.1891
 0.9430	48.2388
 0.9420	48.2509
 0.9410	48.1932
 0.9400	48.1903
 0.9390	48.2490
 0.9380	48.2156
 0.9370	48.2415
 0.9360	48.3035
 0.9350	48.2830
 0.9340	48.2348
 0.9330	48.2405
 0.9320	48.2495
 0.9310	48.2853
 0.9300	48.3086
 0.9290	48.3163
 0.9280	48.3029
 0.9270	48.3815
 0.9260	48.4746
 0.9250	48.4988
 0.9240	48.5449
 0.9230	48.5691
 0.9220	48.6259
 0.9210	48.6555
 0.9200	48.7048
 0.9190	48.7155
 0.9180	48.7738
 0.9170	48.8446
 0.9160	48.8935
 0.9150	48.9548
 0.9140	49.0562
 0.9130	49.1343
 0.9120	49.2015
 0.9110	49.2403
 0.9100	49.2789
 0.9090	49.3786
 0.9080	49.4630
 0.9070	49.5380
 0.9060	49.6324
 0.9050	49.6461
 0.9040	49.7469
 0.9030	49.8018
 0.9020	49.8577
 0.9010	49.9577
 0.9000	50.0181
 0.8990	50.0954
 0.8980	50.2025
 0.8970	50.2961
 0.8960	50.4488
 0.8950	50.5674
 0.8940	50.5348
 0.8930	50.6261
 0.8920	50.7197
 0.8910	50.7845
 0.8900	50.9159
 0.8890	51.0333
 0.8880	51.1165
 0.8870	51.1946
 0.8860	51.2587
 0.8850	51.3688
 0.8840	51.4919
 0.8830	51.6018
 0.8820	51.7313
 0.8810	51.8462
 0.8800	51.9220
 0.8790	51.9693
 0.8780	52.1021
 0.8770	52.2037
 0.8760	52.2917
 0.8750	52.3914
 0.8740	52.5895
 0.8730	52.6452
 0.8720	52.6775
 0.8710	52.8149
 0.8700	52.9450
 0.8690	52.9864
 0.8680	53.0986
 0.8670	53.2337
 0.8660	53.3625
 0.8650	53.4122
 0.8640	53.5351
 0.8630	53.6475
 0.8620	53.7488
 0.8610	53.8425
 0.8600	54.2473
 0.8590	54.4556
 0.8580	54.5682
 0.8570	54.7230
 0.8560	54.7833
 0.8550	54.8880
 0.8540	54.9982
 0.8530	55.1360
 0.8520	55.2433
 0.8510	55.3142
 0.8500	55.4640
 0.8490	55.5474
 0.8480	55.6944
 0.8470	55.7292
 0.8460	55.7834
 0.8450	55.9101
 0.8440	56.0750
 0.8430	56.1381
 0.8420	56.2803
 0.8410	56.3407
 0.8400	56.4432
 0.8390	56.5355
 0.8380	56.6466
 0.8370	56.6946
 0.8360	56.8052
 0.8350	56.8981
 0.8340	57.0152
 0.8330	57.1171
 0.8320	57.2276
 0.8310	57.2758
 0.8300	57.3650
 0.8290	57.4466
 0.8280	57.5319
 0.8270	57.6297
 0.8260	57.7459
 0.8250	57.8402
 0.8240	57.9119
 0.8230	57.9886
 0.8220	58.0664
 0.8210	58.1675
 0.8200	58.2049
 0.8190	58.3094
 0.8180	58.3779
 0.8170	58.4544
 0.8160	58.5428
 0.8150	58.5806
 0.8140	58.6902
 0.8130	58.7478
 0.8120	58.7894
 0.8110	58.8552
 0.8100	58.9241
 0.8090	59.0031
 0.8080	59.0563
 0.8070	59.1312
 0.8060	59.1894
 0.8050	59.2029
 0.8040	59.3183
 0.8030	59.3535
 0.8020	59.4279
 0.8010	59.4746
 0.8000	59.5270
 0.7990	59.5308
 0.7980	59.5699
 0.7970	59.6357
 0.7960	59.6530
 0.7950	59.7274
 0.7940	59.7178
 0.7930	59.7596
 0.7920	59.8381
 0.7910	59.8619
 0.7900	59.9082
 0.7890	59.9490
 0.7880	59.9530
 0.7870	60.0212
 0.7860	60.0589
 0.7850	60.1303
 0.7840	60.1098
 0.7830	60.1260
 0.7820	60.1921
 0.7810	60.2446
 0.7800	60.2515
 0.7790	60.2379
 0.7780	60.2765
 0.7770	60.3034
 0.7760	60.3156
 0.7750	60.3608
 0.7740	60.3633
 0.7730	60.3948
 0.7720	60.4219
 0.7710	60.4905
 0.7700	60.4844
 0.7690	60.4871
 0.7680	60.5113
 0.7670	60.5467
 0.7660	60.5582
 0.7650	60.5925
 0.7640	60.5661
 0.7630	60.6024
 0.7620	60.6284
 0.7610	60.6369
 0.7600	60.6445
 0.7590	60.6520
 0.7580	60.6528
 0.7570	60.6748
 0.7560	60.6634
 0.7550	60.7392
 0.7540	60.7147
 0.7530	60.7455
 0.7520	60.7241
 0.7510	60.7495
 0.7500	60.7492
 0.7490	60.7725
 0.7480	60.7585
 0.7470	60.7740
 0.7460	60.8168
 0.7450	60.8314
 0.7440	60.8218
 0.7430	60.8079
 0.7420	60.8287
 0.7410	60.8135
 0.7400	60.8277
 0.7390	60.8406
 0.7380	60.8577
 0.7370	60.8452
 0.7360	60.8649
 0.7350	60.8723
 0.7340	60.8671
 0.7330	60.8947
 0.7320	60.8771
 0.7310	60.8875
 0.7300	60.9060
 0.7290	60.8879
 0.7280	60.9013
 0.7270	60.9114
 0.7260	60.9139
 0.7250	60.9256
 0.7240	60.9221
 0.7230	60.9201
 0.7220	60.9217
 0.7210	60.9520
 0.7200	60.9643
 0.7190	60.9645
 0.7180	60.9729
 0.7170	60.9794
 0.7160	60.9907
 0.7150	60.9955
 0.7140	60.9749
 0.7130	60.9920
 0.7120	60.9906
 0.7110	61.0043
 0.7100	61.0127
 0.7090	61.0093
 0.7080	61.0128
 0.7070	61.0342
 0.7060	61.0249
 0.7050	61.0112
 0.7040	61.0371
 0.7030	61.0154
 0.7020	61.0272
 0.7010	61.0346
 0.7000	61.0258
 0.6990	61.0335
 0.6980	61.0493
 0.6970	61.0410
 0.6960	61.0446
 0.6950	61.0472
 0.6940	61.0325
 0.6930	61.0544
 0.6920	61.0665
 0.6910	61.0757
 0.6900	61.0713
 0.6890	61.0788
 0.6880	61.0774
 0.6870	61.0761
 0.6860	61.0743
 0.6850	61.0882
 0.6840	61.1024
 0.6830	61.0969
 0.6820	61.0974
 0.6810	61.0869
 0.6800	61.0896
 0.6790	61.1070
 0.6780	61.1186
 0.6770	61.1243
 0.6760	61.1204
 0.6750	61.1308
 0.6740	61.1390
 0.6730	61.1272
 0.6720	61.1341
 0.6710	61.1402
 0.6700	61.1286
 0.6690	61.1315
 0.6680	61.1343
 0.6670	61.1407
 0.6660	61.1463
 0.6650	61.1360
 0.6640	61.1457
 0.6630	61.1401
 0.6620	61.1496
 0.6610	61.1472
 0.6600	61.1464
 0.6590	61.1505
 0.6580	61.1400
 0.6570	61.1453
 0.6560	61.1609
 0.6550	61.1666
 0.6540	61.1530
 0.6530	61.1513
 0.6520	61.1663
 0.6510	61.1587
 0.6500	61.1590
 0.6490	61.1688
 0.6480	61.1718
 0.6470	61.1590
 0.6460	61.1599
 0.6450	61.1794
 0.6440	61.1779
 0.6430	61.1731
 0.6420	61.1720
 0.6410	61.1677
 0.6400	61.1579
 0.6390	61.1650
 0.6380	61.1742
 0.6370	61.1798
 0.6360	61.1777
 0.6350	61.1784
 0.6340	61.1787
 0.6330	61.1767
 0.6320	61.1927
 0.6310	61.1980
 0.6300	61.1957
 0.6290	61.1989
 0.6280	61.2095
 0.6270	61.1979
 0.6260	61.1795
 0.6250	61.1851
 0.6240	61.2016
 0.6230	61.2050
 0.6220	61.2055
 0.6210	61.2168
 0.6200	61.2255
 0.6190	61.2243
 0.6180	61.2276
 0.6170	61.2364
 0.6160	61.2240
 0.6150	61.2205
 0.6140	61.2196
 0.6130	61.2183
 0.6120	61.2276
 0.6110	61.2298
 0.6100	61.2226
 0.6090	61.2177
 0.6080	61.2192
 0.6070	61.2265
 0.6060	61.2234
 0.6050	61.2220
 0.6040	61.2168
 0.6030	61.2193
 0.6020	61.2293
 0.6010	61.2169
 0.6000	61.2034
 0.5990	61.2242
 0.5980	61.2357
 0.5970	61.2444
 0.5960	61.2482
 0.5950	61.2591
 0.5940	61.2520
 0.5930	61.2440
 0.5920	61.2541
 0.5910	61.2427
 0.5900	61.2329
 0.5890	61.2371
 0.5880	61.2379
 0.5870	61.2046
 0.5860	61.2120
 0.5850	61.2204
 0.5840	61.2006
 0.5830	61.1871
 0.5820	61.1865
 0.5810	61.1750
 0.5800	61.1712
 0.5790	61.1838
 0.5780	61.1601
 0.5770	61.1519
 0.5760	61.1379
 0.5750	61.1289
 0.5740	61.1269
 0.5730	61.1121
 0.5720	61.1133
 0.5710	61.1063
 0.5700	61.0930
 0.5690	61.0844
 0.5680	61.0693
 0.5670	61.0566
 0.5660	61.0529
 0.5650	61.0374
 0.5640	61.0201
 0.5630	61.0075
 0.5620	61.0063
 0.5610	60.9850
 0.5600	60.9702
 0.5590	60.9593
 0.5580	60.9472
 0.5570	60.9270
 0.5560	60.8971
 0.5550	60.8817
 0.5540	60.8602
 0.5530	60.8472
 0.5520	60.8264
 0.5510	60.7893
 0.5500	60.7799
 0.5490	60.7549
 0.5480	60.7283
 0.5470	60.6964
 0.5460	60.6773
 0.5450	60.6487
 0.5440	60.6532
 0.5430	60.6418
 0.5420	60.6448
 0.5410	60.6425
 0.5400	60.6319
 0.5390	60.6298
 0.5380	60.6198
 0.5370	60.6162
 0.5360	60.6129
 0.5350	60.5957
 0.5340	60.5753
 0.5330	60.5720
 0.5320	60.5426
 0.5310	60.5317
 0.5300	60.5148
 0.5290	60.4981
 0.5280	60.4838
 0.5270	60.4772
 0.5260	60.4570
 0.5250	60.4383
 0.5240	60.4127
 0.5230	60.3961
 0.5220	60.3682
 0.5210	60.3533
 0.5200	60.3253
 0.5190	60.3062
 0.5180	60.2788
 0.5170	60.2536
 0.5160	60.2336
 0.5150	60.2061
 0.5140	60.1787
 0.5130	60.1449
 0.5120	60.0752
 0.5110	60.0587
 0.5100	59.9832
 0.5090	59.9281
 0.5080	59.8495
 0.5070	59.7866
 0.5060	59.7424
 0.5050	59.6950
 0.5040	59.6605
 0.5030	59.6461
 0.5020	59.6254
 0.5010	59.5920
 0.5000	59.5532
 0.4990	59.5087
 0.4980	59.4517
 0.4970	59.4157
 0.4960	59.3673
 0.4950	59.3103
 0.4940	59.2714
 0.4930	59.2096
 0.4920	59.1691
 0.4910	59.1187
 0.4900	59.0877
 0.4890	59.0576
 0.4880	58.9943
 0.4870	58.9467
 0.4860	58.8807
 0.4850	58.8464
 0.4840	58.7826
 0.4830	58.7201
 0.4820	58.6660
 0.4810	58.6211
 0.4800	58.5615
 0.4790	58.5085
 0.4780	58.4602
 0.4770	58.3991
 0.4760	58.3067
 0.4750	58.2630
 0.4740	58.1979
 0.4730	58.1248
 0.4720	58.0560
 0.4710	58.0105
 0.4700	57.9515
 0.4690	57.8804
 0.4680	57.8306
 0.4670	57.7742
 0.4660	57.7105
 0.4650	57.6671
 0.4640	57.5973
 0.4630	57.5425
 0.4620	57.4827
 0.4610	57.4154
 0.4600	57.3627
 0.4590	57.2977
 0.4580	57.2544
 0.4570	57.2143
 0.4560	57.1412
 0.4550	57.0884
 0.4540	57.0278
 0.4530	56.9803
 0.4520	56.9176
 0.4510	56.8645
 0.4500	56.7958
 0.4490	56.7371
 0.4480	56.6802
 0.4470	56.6137
 0.4460	56.5243
 0.4450	56.4781
 0.4440	56.4003
 0.4430	56.3313
 0.4420	56.2513
 0.4410	56.1657
 0.4400	56.0832
 0.4390	55.9947
 0.4380	55.9097
 0.4370	55.8248
 0.4360	55.7409
 0.4350	55.6570
 0.4340	55.5664
 0.4330	55.4585
 0.4320	55.3740
 0.4310	55.2900
 0.4300	55.2022
 0.4290	55.1169
 0.4280	55.0444
 0.4270	54.9530
 0.4260	54.8736
 0.4250	54.7862
 0.4240	54.7196
 0.4230	54.6390
 0.4220	54.5155
 0.4210	54.4490
 0.4200	54.3470
 0.4190	54.2522
 0.4180	54.1487
 0.4170	54.0715
 0.4160	53.9682
 0.4150	53.8698
 0.4140	53.7934
 0.4130	53.7002
 0.4120	53.6224
 0.4110	53.5422
 0.4100	53.4646
 0.4090	53.3725
 0.4080	53.2804
 0.4070	53.2000
 0.4060	53.1202
 0.4050	53.0392
 0.4040	52.9368
 0.4030	52.8373
 0.4020	52.7678
 0.4010	52.6837
 0.4000	52.5904
