Name: Siderite Fe^2+CO_3
Type: Mineral
Class: Carbonate
Subclass: None
Particle Size: Medium
Sample No.: C-9A
Owner: JPL
Wavelength Range: VSWIR
Origin: 
Collection Date: N/A
Description: Particle size was 45-125um.Collected by JPL Original ASTER Spectral Library name was jpl.beckman.mineral.carbonate.none.medium.c09a.spectrum.txt
Measurement: Hemispherical reflectance
First Column: X
Second Column: Y
X Units: Wavelength (micrometers)
Y Units:Reflectance (percent)
First X Value:  0.4000
Last X Value:  2.5000
Number of X Values: 826
Additional Information: mineral.carbonate.none.medium.vswir.c-9a.jpl.beckman.ancillary.txt

 0.4000	11.3200
 0.4010	11.8400
 0.4020	12.2900
 0.4030	12.4100
 0.4040	12.5200
 0.4050	12.4100
 0.4060	12.5200
 0.4070	12.8100
 0.4080	12.9200
 0.4090	13.0400
 0.4100	13.2100
 0.4110	13.3300
 0.4120	13.7800
 0.4130	13.7800
 0.4140	13.8400
 0.4150	13.8900
 0.4160	13.8900
 0.4170	14.2400
 0.4180	14.3500
 0.4190	14.3000
 0.4200	14.3500
 0.4210	14.4100
 0.4220	14.6400
 0.4230	14.8100
 0.4240	14.9200
 0.4250	14.8700
 0.4260	14.9800
 0.4270	14.9800
 0.4280	15.2700
 0.4290	15.4400
 0.4300	15.3200
 0.4310	15.3800
 0.4320	15.4400
 0.4330	15.6100
 0.4340	15.7800
 0.4350	15.7300
 0.4360	15.8400
 0.4370	15.7800
 0.4380	15.8400
 0.4390	16.0700
 0.4400	15.9600
 0.4410	16.0100
 0.4420	16.0700
 0.4430	16.0700
 0.4440	16.3000
 0.4450	16.3500
 0.4460	16.4100
 0.4470	16.4100
 0.4480	16.5200
 0.4490	16.7500
 0.4500	16.9300
 0.4510	17.0400
 0.4520	17.1000
 0.4530	17.1000
 0.4540	17.1000
 0.4550	17.3900
 0.4560	17.6200
 0.4570	17.6200
 0.4580	17.7300
 0.4590	17.6700
 0.4600	17.6700
 0.4610	17.9000
 0.4620	18.0800
 0.4630	18.2500
 0.4640	18.3100
 0.4650	18.2500
 0.4660	18.2500
 0.4670	18.3700
 0.4680	18.6500
 0.4690	18.8200
 0.4700	18.8200
 0.4710	18.7100
 0.4720	18.9300
 0.4730	18.9400
 0.4740	19.2800
 0.4750	19.2200
 0.4760	19.1600
 0.4770	19.2800
 0.4780	19.2300
 0.4790	19.5100
 0.4800	19.5100
 0.4810	19.4500
 0.4820	19.6200
 0.4830	19.5800
 0.4840	19.7400
 0.4850	19.9100
 0.4860	20.0800
 0.4870	20.2600
 0.4880	20.3700
 0.4890	20.7200
 0.4900	21.0100
 0.4910	21.4100
 0.4920	21.5200
 0.4930	21.6400
 0.4940	21.8700
 0.4950	22.0300
 0.4960	22.3200
 0.4970	22.4400
 0.4980	22.3800
 0.4990	22.4900
 0.5000	22.4900
 0.5010	22.9000
 0.5020	22.9000
 0.5030	22.9000
 0.5040	22.9000
 0.5050	22.9500
 0.5060	23.2400
 0.5070	23.3000
 0.5080	23.2400
 0.5090	23.3600
 0.5100	23.4100
 0.5110	23.5900
 0.5120	23.8800
 0.5130	23.9300
 0.5140	23.9900
 0.5150	24.0400
 0.5160	24.2700
 0.5170	24.5600
 0.5180	24.7300
 0.5190	24.7900
 0.5200	24.9000
 0.5210	25.1900
 0.5220	25.4200
 0.5230	25.7600
 0.5240	25.9900
 0.5250	26.1000
 0.5260	26.2200
 0.5270	26.5100
 0.5280	26.9700
 0.5290	27.1400
 0.5300	27.2000
 0.5310	27.4200
 0.5320	27.7600
 0.5330	28.0500
 0.5340	28.2800
 0.5350	28.4500
 0.5360	28.6800
 0.5370	28.9700
 0.5380	29.3700
 0.5390	29.6500
 0.5400	29.8300
 0.5410	30.0000
 0.5420	30.1700
 0.5430	30.5200
 0.5440	30.9100
 0.5450	31.0300
 0.5460	31.2000
 0.5470	31.3700
 0.5480	31.6000
 0.5490	31.9500
 0.5500	32.3400
 0.5510	32.3400
 0.5520	32.5700
 0.5530	32.7400
 0.5540	32.9700
 0.5550	33.3800
 0.5560	33.4400
 0.5570	33.5500
 0.5580	33.5500
 0.5590	33.6100
 0.5600	34.1200
 0.5610	34.4000
 0.5620	34.7500
 0.5630	34.9800
 0.5640	35.1000
 0.5650	35.0400
 0.5660	35.2700
 0.5670	35.4400
 0.5680	35.8300
 0.5690	35.8900
 0.5700	35.7800
 0.5710	36.0100
 0.5720	36.1200
 0.5730	36.4100
 0.5740	36.5800
 0.5750	36.5300
 0.5760	36.6400
 0.5770	36.8100
 0.5780	37.0400
 0.5790	37.2200
 0.5800	37.3200
 0.5810	37.3200
 0.5820	37.3200
 0.5830	37.6100
 0.5840	37.8400
 0.5850	38.0100
 0.5860	37.9600
 0.5870	37.9600
 0.5880	38.1900
 0.5890	38.3600
 0.5900	38.5300
 0.5910	38.5300
 0.5920	38.5300
 0.5930	38.7100
 0.5940	38.8800
 0.5950	39.0400
 0.5960	39.1000
 0.5970	38.9800
 0.5980	39.1000
 0.5990	39.2100
 0.6000	39.5000
 0.6010	39.5600
 0.6020	39.5000
 0.6030	39.5000
 0.6040	39.5600
 0.6050	39.8500
 0.6060	39.9600
 0.6070	39.9000
 0.6080	39.7900
 0.6090	39.9600
 0.6100	40.1400
 0.6110	40.3100
 0.6120	40.3700
 0.6130	40.2500
 0.6140	40.2500
 0.6150	40.4800
 0.6160	40.5400
 0.6170	40.5900
 0.6180	40.5400
 0.6190	40.4800
 0.6200	40.6400
 0.6210	40.7600
 0.6220	40.9900
 0.6230	40.9300
 0.6240	40.9300
 0.6250	41.1000
 0.6260	41.1600
 0.6270	41.3900
 0.6280	41.3900
 0.6290	41.3300
 0.6300	41.5100
 0.6310	41.5700
 0.6320	41.9100
 0.6330	41.8500
 0.6340	41.8000
 0.6350	41.8500
 0.6360	42.0800
 0.6370	42.3000
 0.6380	42.4200
 0.6390	42.3600
 0.6400	42.3600
 0.6410	42.4800
 0.6420	42.8200
 0.6430	42.9400
 0.6440	42.9400
 0.6450	42.9400
 0.6460	43.0500
 0.6470	43.3400
 0.6480	43.5100
 0.6490	43.5100
 0.6500	43.5100
 0.6510	43.6300
 0.6520	43.9100
 0.6530	44.0200
 0.6540	44.2500
 0.6550	44.2500
 0.6560	44.3100
 0.6570	44.5400
 0.6580	44.7700
 0.6590	45.0000
 0.6600	44.9400
 0.6610	44.9400
 0.6620	45.1200
 0.6630	45.3500
 0.6640	45.7400
 0.6650	45.8000
 0.6660	45.8000
 0.6670	45.9100
 0.6680	46.0300
 0.6690	46.3700
 0.6700	46.6000
 0.6710	46.6600
 0.6720	46.6600
 0.6730	46.8300
 0.6740	47.1200
 0.6750	47.1800
 0.6760	47.2900
 0.6770	47.3400
 0.6780	47.4600
 0.6790	47.7500
 0.6800	47.9200
 0.6810	48.0300
 0.6820	48.0900
 0.6830	48.0900
 0.6840	48.2600
 0.6850	48.5000
 0.6860	48.7800
 0.6870	48.7300
 0.6880	48.7300
 0.6890	48.8900
 0.6900	48.9500
 0.6910	49.2900
 0.6920	49.2900
 0.6930	49.1800
 0.6940	49.3500
 0.6950	49.4100
 0.6960	49.6400
 0.6970	49.6400
 0.6980	49.4100
 0.6990	49.7000
 0.7000	49.9300
 0.7010	49.8700
 0.7020	49.7000
 0.7030	49.7500
 0.7040	49.9800
 0.7050	50.2100
 0.7060	50.2100
 0.7070	50.0400
 0.7080	49.9800
 0.7090	50.2100
 0.7100	50.2700
 0.7110	50.3300
 0.7120	50.2700
 0.7130	50.0400
 0.7140	50.2100
 0.7150	50.3300
 0.7160	50.3900
 0.7170	50.2700
 0.7180	50.0400
 0.7190	50.1000
 0.7200	50.1600
 0.7210	50.2700
 0.7220	50.2700
 0.7230	49.9800
 0.7240	49.8700
 0.7250	49.9800
 0.7260	49.9800
 0.7270	50.0400
 0.7280	49.8100
 0.7290	49.7500
 0.7300	49.7500
 0.7310	49.7000
 0.7320	49.7000
 0.7330	49.4600
 0.7340	49.2300
 0.7350	49.2900
 0.7360	49.2900
 0.7370	49.2900
 0.7380	49.0600
 0.7390	48.8400
 0.7400	48.8400
 0.7410	48.8400
 0.7420	48.7800
 0.7430	48.5500
 0.7440	48.3200
 0.7450	48.2600
 0.7460	48.2100
 0.7470	48.2600
 0.7480	47.9200
 0.7490	47.7500
 0.7500	47.6900
 0.7510	47.5700
 0.7520	47.6300
 0.7530	47.3400
 0.7540	47.0700
 0.7550	46.8900
 0.7560	46.7800
 0.7570	46.7200
 0.7580	46.6000
 0.7590	46.2600
 0.7600	46.0300
 0.7610	45.9100
 0.7620	45.9100
 0.7630	45.8600
 0.7640	45.5200
 0.7650	45.1700
 0.7660	45.0600
 0.7670	45.1200
 0.7680	44.8300
 0.7690	44.4800
 0.7700	44.2000
 0.7710	44.0800
 0.7720	44.0200
 0.7730	43.8000
 0.7740	43.4600
 0.7750	43.1700
 0.7760	43.0500
 0.7770	42.9400
 0.7780	42.7600
 0.7790	42.4200
 0.7800	42.0300
 0.7810	41.9100
 0.7820	41.8500
 0.7830	41.6800
 0.7840	41.3900
 0.7850	40.8200
 0.7860	40.7000
 0.7870	40.5400
 0.7880	40.4800
 0.7890	40.3100
 0.7900	39.9000
 0.7910	39.6700
 0.7920	39.5600
 0.7930	39.4400
 0.7940	39.2700
 0.7950	38.8800
 0.7960	38.5900
 0.7970	38.5900
 0.7980	38.5900
 0.7990	37.6700
 0.8000	37.4800
 0.8040	36.7600
 0.8080	35.6100
 0.8120	34.5800
 0.8160	33.5500
 0.8200	32.4600
 0.8240	31.4900
 0.8280	30.6300
 0.8320	29.6500
 0.8360	28.6300
 0.8400	27.7600
 0.8440	26.8500
 0.8480	25.8700
 0.8520	24.9600
 0.8560	24.1500
 0.8600	23.4100
 0.8640	22.4900
 0.8680	21.7500
 0.8720	21.0600
 0.8760	20.3800
 0.8800	19.7500
 0.8840	19.0600
 0.8880	18.4900
 0.8920	17.7400
 0.8960	17.2300
 0.9000	16.7700
 0.9040	16.1400
 0.9080	15.6900
 0.9120	15.2900
 0.9160	14.9400
 0.9200	14.3600
 0.9240	14.0800
 0.9280	13.6200
 0.9320	13.2200
 0.9360	12.9300
 0.9400	12.5300
 0.9440	12.2500
 0.9480	11.8500
 0.9520	11.6800
 0.9560	11.3300
 0.9600	11.1000
 0.9640	10.9800
 0.9680	10.8100
 0.9720	10.5300
 0.9760	10.3600
 0.9800	10.1900
 0.9840	10.0700
 0.9880	 9.9600
 0.9920	 9.8400
 0.9960	 9.9000
 1.0000	 9.6100
 1.0040	 9.5000
 1.0080	 9.3800
 1.0120	 9.4400
 1.0160	 9.3800
 1.0200	 9.2700
 1.0240	 9.3200
 1.0280	 9.3200
 1.0320	 9.2700
 1.0360	 9.1000
 1.0400	 9.1500
 1.0440	 9.1000
 1.0480	 9.1500
 1.0520	 9.2100
 1.0560	 9.2100
 1.0600	 9.1500
 1.0640	 9.2700
 1.0680	 9.3200
 1.0720	 9.2700
 1.0760	 9.2700
 1.0800	 9.4400
 1.0840	 9.3200
 1.0880	 9.3800
 1.0920	 9.5000
 1.0960	 9.5500
 1.1000	 9.5500
 1.1040	 9.5500
 1.1080	 9.5500
 1.1120	 9.5500
 1.1160	 9.5500
 1.1200	 9.7300
 1.1240	 9.7300
 1.1280	 9.7900
 1.1320	 9.7300
 1.1360	 9.8400
 1.1400	 9.8400
 1.1440	 9.7900
 1.1480	 9.9000
 1.1520	 9.8400
 1.1560	 9.8400
 1.1600	 9.9000
 1.1640	 9.9000
 1.1680	 9.9000
 1.1720	 9.9000
 1.1760	 9.9000
 1.1800	 9.8300
 1.1840	 9.8300
 1.1880	 9.9500
 1.1920	 9.9500
 1.1960	 9.8900
 1.2000	 9.8900
 1.2040	10.0600
 1.2080	 9.8900
 1.2120	 9.8900
 1.2160	10.0600
 1.2200	10.0100
 1.2240	10.0600
 1.2280	10.0600
 1.2320	10.1200
 1.2360	10.0600
 1.2400	10.1200
 1.2440	10.2400
 1.2480	10.2400
 1.2520	10.2400
 1.2560	10.2900
 1.2600	10.5100
 1.2640	10.5100
 1.2680	10.5700
 1.2720	10.7400
 1.2760	10.6900
 1.2800	10.7400
 1.2840	11.0200
 1.2880	11.0800
 1.2920	11.2000
 1.2960	11.3100
 1.3000	11.4800
 1.3040	11.6000
 1.3080	11.7000
 1.3120	11.8800
 1.3160	12.0500
 1.3200	12.3400
 1.3240	12.5000
 1.3280	12.6200
 1.3320	12.8500
 1.3360	13.1200
 1.3400	13.3500
 1.3440	13.6400
 1.3480	13.8100
 1.3520	14.1500
 1.3560	14.3200
 1.3600	14.6700
 1.3640	15.0600
 1.3680	15.2400
 1.3720	15.5200
 1.3760	16.0300
 1.3800	16.3200
 1.3840	16.7800
 1.3880	17.0700
 1.3920	17.4600
 1.3960	17.8100
 1.4000	18.2600
 1.4040	18.7800
 1.4080	19.2400
 1.4120	19.7000
 1.4160	20.2600
 1.4200	20.6100
 1.4240	21.1900
 1.4280	21.7600
 1.4320	22.2700
 1.4360	22.8500
 1.4400	23.3600
 1.4440	23.9900
 1.4480	24.5100
 1.4520	25.1400
 1.4560	25.8200
 1.4600	26.4000
 1.4640	27.0800
 1.4680	27.7100
 1.4720	28.3400
 1.4760	29.0300
 1.4800	29.5900
 1.4840	30.3900
 1.4880	31.0200
 1.4920	31.7100
 1.4960	32.5700
 1.5000	33.3100
 1.5040	34.0000
 1.5080	34.7400
 1.5120	35.3100
 1.5160	36.1100
 1.5200	36.7300
 1.5240	37.4800
 1.5280	38.1600
 1.5320	38.9100
 1.5360	39.5400
 1.5400	40.2900
 1.5440	41.0200
 1.5480	41.7600
 1.5520	42.3400
 1.5560	43.1400
 1.5600	43.6500
 1.5640	44.2800
 1.5680	44.9100
 1.5720	45.5900
 1.5760	46.2800
 1.5800	46.7900
 1.5840	47.5400
 1.5880	48.0500
 1.5920	48.5100
 1.5960	49.2500
 1.6000	49.7700
 1.6040	50.2800
 1.6080	50.8400
 1.6120	51.3000
 1.6160	51.7500
 1.6200	52.1500
 1.6240	52.6600
 1.6280	53.1600
 1.6320	53.5100
 1.6360	53.9000
 1.6400	54.3000
 1.6440	54.7500
 1.6480	55.2000
 1.6520	55.4900
 1.6560	55.8200
 1.6600	56.2100
 1.6640	56.4900
 1.6680	56.7700
 1.6720	56.9400
 1.6760	57.3400
 1.6800	57.6100
 1.6840	57.7800
 1.6880	58.0100
 1.6920	58.3400
 1.6960	58.4600
 1.7000	58.6800
 1.7040	58.9600
 1.7080	59.1900
 1.7120	59.3000
 1.7160	59.5300
 1.7200	59.7100
 1.7240	59.9300
 1.7280	59.9300
 1.7320	60.1600
 1.7360	60.2100
 1.7400	60.1600
 1.7440	60.4400
 1.7480	60.5600
 1.7520	60.6200
 1.7560	60.7300
 1.7600	60.9000
 1.7640	60.9000
 1.7680	60.9000
 1.7720	61.1800
 1.7760	61.1800
 1.7800	61.1800
 1.7840	61.3600
 1.7880	61.4100
 1.7920	61.4700
 1.7960	61.4700
 1.8000	61.7000
 1.8040	61.6200
 1.8080	61.5500
 1.8120	61.6300
 1.8160	61.5600
 1.8200	61.6000
 1.8240	61.6400
 1.8280	61.6200
 1.8320	61.5300
 1.8360	61.5200
 1.8400	61.6200
 1.8440	61.4800
 1.8480	61.5200
 1.8520	61.3400
 1.8560	61.4400
 1.8600	61.3300
 1.8640	61.2600
 1.8680	61.2000
 1.8720	61.2000
 1.8760	61.2500
 1.8800	61.0200
 1.8840	61.1200
 1.8880	60.8900
 1.8920	60.8900
 1.8960	60.8800
 1.9000	60.8700
 1.9040	60.8200
 1.9080	60.6900
 1.9120	60.7500
 1.9160	60.6300
 1.9200	60.7400
 1.9240	60.5700
 1.9280	60.8400
 1.9320	60.6700
 1.9360	60.7200
 1.9400	60.6600
 1.9440	60.8800
 1.9480	60.8100
 1.9520	60.6400
 1.9560	60.6800
 1.9600	60.6700
 1.9640	60.7600
 1.9680	60.6900
 1.9720	60.7900
 1.9760	60.6600
 1.9800	60.6500
 1.9840	60.8100
 1.9880	60.8500
 1.9920	61.0000
 1.9960	60.9800
 2.0000	61.1400
 2.0040	61.0900
 2.0080	61.2100
 2.0120	61.3400
 2.0160	61.3800
 2.0200	61.5700
 2.0240	61.5700
 2.0280	61.7000
 2.0320	61.7100
 2.0360	61.6400
 2.0400	61.9400
 2.0440	61.8900
 2.0480	61.8400
 2.0520	61.8000
 2.0560	61.8900
 2.0600	61.9200
 2.0640	61.7800
 2.0680	61.9200
 2.0720	61.9600
 2.0760	61.8100
 2.0800	62.0200
 2.0840	61.9400
 2.0880	61.9700
 2.0920	61.9500
 2.0960	62.0300
 2.1000	62.0000
 2.1040	61.9200
 2.1080	61.8900
 2.1120	61.7600
 2.1160	61.7300
 2.1200	61.8700
 2.1240	61.7100
 2.1280	61.5500
 2.1320	61.4100
 2.1360	61.4100
 2.1400	61.2400
 2.1440	61.0500
 2.1480	61.1300
 2.1520	61.0500
 2.1560	61.0500
 2.1600	60.8200
 2.1640	60.7800
 2.1680	60.6900
 2.1720	60.5500
 2.1760	60.5000
 2.1800	60.5300
 2.1840	60.4000
 2.1880	60.2300
 2.1920	60.2300
 2.1960	60.0600
 2.2000	59.9300
 2.2040	59.6000
 2.2080	59.5400
 2.2120	59.2100
 2.2160	58.9600
 2.2200	58.7600
 2.2240	58.5800
 2.2280	58.2500
 2.2320	57.9000
 2.2360	57.7600
 2.2400	57.3400
 2.2440	57.0100
 2.2480	56.6700
 2.2520	56.4300
 2.2560	55.9600
 2.2600	55.6000
 2.2640	55.2600
 2.2680	54.8100
 2.2720	54.5200
 2.2760	54.0500
 2.2800	53.7400
 2.2840	53.3900
 2.2880	52.9200
 2.2920	52.6000
 2.2960	52.2200
 2.3000	51.9000
 2.3040	51.6500
 2.3080	51.4600
 2.3120	51.5000
 2.3160	51.2000
 2.3200	51.2900
 2.3240	51.0800
 2.3280	51.0900
 2.3320	51.1100
 2.3360	51.1200
 2.3400	51.4100
 2.3440	51.6100
 2.3480	51.8700
 2.3520	52.1800
 2.3560	52.6600
 2.3600	52.9100
 2.3640	53.2800
 2.3680	53.7600
 2.3720	54.0800
 2.3760	54.4100
 2.3800	54.6900
 2.3840	54.8900
 2.3880	54.9800
 2.3920	55.0700
 2.3960	55.2500
 2.4000	55.1300
 2.4040	55.1300
 2.4080	55.0600
 2.4120	54.7900
 2.4160	54.6100
 2.4200	54.3300
 2.4240	54.0000
 2.4280	53.6100
 2.4320	53.1100
 2.4360	52.7100
 2.4400	52.1500
 2.4440	51.5300
 2.4480	50.9800
 2.4520	50.3700
 2.4560	49.5300
 2.4600	48.9700
 2.4640	48.3000
 2.4680	47.6400
 2.4720	46.9200
 2.4760	46.2500
 2.4800	45.7400
 2.4840	45.0800
 2.4880	44.5200
 2.4920	44.0300
 2.4960	43.4600
 2.5000	43.2400
