Name: Muscovite KAl_2(Si_3Al)O_10(OH,F)_2
Type: Mineral
Class: Silicate
Subclass: Phyllosilicate
Particle Size: Medium
Sample No.: PS-16A
Owner: JPL
Wavelength Range: VSWIR
Origin: USA, Connecticut
Collection Date: N/A
Description: Particle size was 45-125um.Collected by Ward's Original ASTER Spectral Library name was jpl.beckman.mineral.silicate.phyllosilicate.medium.ps16a.spectrum.txt
Measurement: Hemispherical reflectance
First Column: X
Second Column: Y
X Units: Wavelength (micrometers)
Y Units:Reflectance (percent)
First X Value:  0.4000
Last X Value:  2.5000
Number of X Values: 826
Additional Information: mineral.silicate.phyllosilicate.medium.vswir.ps-16a.jpl.beckman.ancillary.txt

 0.4000	37.4100
 0.4010	37.6900
 0.4020	37.8100
 0.4030	37.9800
 0.4040	38.2700
 0.4050	38.6100
 0.4060	38.6700
 0.4070	38.8400
 0.4080	39.0100
 0.4090	39.1800
 0.4100	39.4600
 0.4110	39.4600
 0.4120	39.6300
 0.4130	39.8100
 0.4140	40.0400
 0.4150	40.3800
 0.4160	40.3200
 0.4170	40.3800
 0.4180	40.6600
 0.4190	40.9500
 0.4200	41.1200
 0.4210	41.0000
 0.4220	41.1200
 0.4230	41.5200
 0.4240	41.7500
 0.4250	41.9100
 0.4260	41.9100
 0.4270	42.0300
 0.4280	42.3700
 0.4290	42.6600
 0.4300	42.7200
 0.4310	42.8300
 0.4320	43.0600
 0.4330	43.3400
 0.4340	43.6300
 0.4350	43.7400
 0.4360	43.7400
 0.4370	43.8600
 0.4380	44.2600
 0.4390	44.3700
 0.4400	44.5400
 0.4410	44.3700
 0.4420	44.6600
 0.4430	45.0500
 0.4440	45.1700
 0.4450	45.3400
 0.4460	45.1700
 0.4470	45.5100
 0.4480	45.8600
 0.4490	45.9700
 0.4500	45.9700
 0.4510	45.7400
 0.4520	46.0300
 0.4530	46.2600
 0.4540	46.4300
 0.4550	46.5400
 0.4560	46.4300
 0.4570	46.6000
 0.4580	46.9500
 0.4590	46.8900
 0.4600	46.7200
 0.4610	46.9500
 0.4620	46.9500
 0.4630	47.0600
 0.4640	47.4100
 0.4650	47.4100
 0.4660	47.2900
 0.4670	47.2900
 0.4680	47.4100
 0.4690	47.7500
 0.4700	47.6900
 0.4710	47.5800
 0.4720	47.6400
 0.4730	47.8200
 0.4740	48.0500
 0.4750	48.0500
 0.4760	48.0500
 0.4770	47.9900
 0.4780	48.2200
 0.4790	48.4500
 0.4800	48.5600
 0.4810	48.5100
 0.4820	48.3900
 0.4830	48.7400
 0.4840	48.9700
 0.4850	49.0800
 0.4860	49.0200
 0.4870	48.8500
 0.4880	49.2000
 0.4890	49.4300
 0.4900	49.4800
 0.4910	49.4300
 0.4920	49.3100
 0.4930	49.5500
 0.4940	49.7700
 0.4950	49.8900
 0.4960	49.8300
 0.4970	49.8300
 0.4980	49.9500
 0.4990	50.3000
 0.5000	50.4100
 0.5010	50.4100
 0.5020	50.3000
 0.5030	50.4100
 0.5040	50.6300
 0.5050	50.8600
 0.5060	50.8100
 0.5070	50.7500
 0.5080	50.9200
 0.5090	51.1500
 0.5100	51.5500
 0.5110	51.4400
 0.5120	51.3200
 0.5130	51.6100
 0.5140	51.7800
 0.5150	52.0700
 0.5160	52.0700
 0.5170	52.0700
 0.5180	52.1300
 0.5190	52.2300
 0.5200	52.5800
 0.5210	52.6900
 0.5220	52.6300
 0.5230	52.7500
 0.5240	52.8600
 0.5250	53.0400
 0.5260	53.2100
 0.5270	53.1500
 0.5280	53.1500
 0.5290	53.1500
 0.5300	53.4400
 0.5310	53.6700
 0.5320	53.7200
 0.5330	53.6700
 0.5340	53.6100
 0.5350	53.7800
 0.5360	54.1700
 0.5370	54.2300
 0.5380	54.1700
 0.5390	54.1200
 0.5400	54.2900
 0.5410	54.5800
 0.5420	54.5800
 0.5430	54.5800
 0.5440	54.5800
 0.5450	54.6900
 0.5460	55.0400
 0.5470	55.2100
 0.5480	55.0400
 0.5490	54.9800
 0.5500	55.1500
 0.5510	55.4400
 0.5520	55.8300
 0.5530	55.6600
 0.5540	55.6000
 0.5550	55.6600
 0.5560	55.8300
 0.5570	56.0000
 0.5580	55.8300
 0.5590	55.8900
 0.5600	56.3500
 0.5610	56.2900
 0.5620	56.2900
 0.5630	56.2900
 0.5640	56.5200
 0.5650	56.4600
 0.5660	56.5200
 0.5670	56.4000
 0.5680	56.5200
 0.5690	56.8100
 0.5700	56.8600
 0.5710	56.8100
 0.5720	56.6300
 0.5730	56.5200
 0.5740	56.6900
 0.5750	56.9200
 0.5760	56.8600
 0.5770	56.7500
 0.5780	56.8100
 0.5790	56.9800
 0.5800	57.2600
 0.5810	57.2600
 0.5820	56.9800
 0.5830	56.9800
 0.5840	57.1500
 0.5850	57.3700
 0.5860	57.4300
 0.5870	57.3100
 0.5880	57.2600
 0.5890	57.5400
 0.5900	57.7700
 0.5910	57.6600
 0.5920	57.6000
 0.5930	57.6600
 0.5940	57.8300
 0.5950	57.8900
 0.5960	57.7700
 0.5970	57.7200
 0.5980	57.7700
 0.5990	57.9400
 0.6000	58.0600
 0.6010	58.0600
 0.6020	57.9400
 0.6030	58.0000
 0.6040	58.1700
 0.6050	58.2900
 0.6060	58.1700
 0.6070	58.1200
 0.6080	58.1700
 0.6090	58.3500
 0.6100	58.4000
 0.6110	58.3500
 0.6120	58.2300
 0.6130	58.2900
 0.6140	58.5200
 0.6150	58.5800
 0.6160	58.5200
 0.6170	58.5200
 0.6180	58.3500
 0.6190	58.5200
 0.6200	58.6300
 0.6210	58.6300
 0.6220	58.5800
 0.6230	58.5200
 0.6240	58.7500
 0.6250	58.9100
 0.6260	58.8100
 0.6270	58.7500
 0.6280	58.6900
 0.6290	58.8500
 0.6300	59.0800
 0.6310	59.0300
 0.6320	58.9100
 0.6330	58.8500
 0.6340	58.9700
 0.6350	59.1400
 0.6360	59.0300
 0.6370	58.9700
 0.6380	58.9100
 0.6390	59.0800
 0.6400	59.2000
 0.6410	59.1400
 0.6420	59.0800
 0.6430	58.9100
 0.6440	59.1400
 0.6450	59.3100
 0.6460	59.3100
 0.6470	59.1400
 0.6480	59.2000
 0.6490	59.3700
 0.6500	59.4300
 0.6510	59.4900
 0.6520	59.4300
 0.6530	59.2600
 0.6540	59.4900
 0.6550	59.6000
 0.6560	59.4900
 0.6570	59.4300
 0.6580	59.2600
 0.6590	59.4900
 0.6600	59.7200
 0.6610	59.7200
 0.6620	59.6000
 0.6630	59.4300
 0.6640	59.5400
 0.6650	59.8300
 0.6660	59.8900
 0.6670	59.7200
 0.6680	59.6600
 0.6690	59.7200
 0.6700	60.0600
 0.6710	60.0600
 0.6720	59.9500
 0.6730	59.8300
 0.6740	59.8300
 0.6750	59.8900
 0.6760	60.2300
 0.6770	60.1200
 0.6780	60.0000
 0.6790	60.0000
 0.6800	60.0600
 0.6810	60.2300
 0.6820	60.2900
 0.6830	60.0600
 0.6840	60.1700
 0.6850	60.1700
 0.6860	60.4000
 0.6870	60.4000
 0.6880	60.2300
 0.6890	60.2900
 0.6900	60.2900
 0.6910	60.5700
 0.6920	60.5100
 0.6930	60.2900
 0.6940	60.2300
 0.6950	60.4000
 0.6960	60.6200
 0.6970	60.6800
 0.6980	60.4600
 0.6990	60.5100
 0.7000	60.2900
 0.7010	60.2300
 0.7020	60.3500
 0.7030	60.5700
 0.7040	60.5100
 0.7050	60.5100
 0.7060	60.3500
 0.7070	60.5100
 0.7080	60.8000
 0.7090	60.6800
 0.7100	60.6800
 0.7110	60.4600
 0.7120	60.5700
 0.7130	60.9100
 0.7140	60.8500
 0.7150	60.8500
 0.7160	60.7400
 0.7170	60.8000
 0.7180	61.0300
 0.7190	60.9700
 0.7200	60.9100
 0.7210	60.7400
 0.7220	60.8000
 0.7230	61.0800
 0.7240	60.9700
 0.7250	60.9700
 0.7260	60.8500
 0.7270	60.9100
 0.7280	61.1400
 0.7290	61.1400
 0.7300	61.0800
 0.7310	61.0300
 0.7320	60.9100
 0.7330	61.2000
 0.7340	61.1400
 0.7350	61.0300
 0.7360	60.9100
 0.7370	60.9100
 0.7380	61.1400
 0.7390	61.2000
 0.7400	61.1400
 0.7410	61.0800
 0.7420	60.9700
 0.7430	61.2000
 0.7440	61.3100
 0.7450	61.2000
 0.7460	61.0800
 0.7470	61.0800
 0.7480	61.2600
 0.7490	61.2600
 0.7500	61.2600
 0.7510	61.0800
 0.7520	61.2000
 0.7530	61.4300
 0.7540	61.3700
 0.7550	61.3700
 0.7560	61.2600
 0.7570	61.2600
 0.7580	61.4300
 0.7590	61.3100
 0.7600	61.4300
 0.7610	61.2600
 0.7620	61.2000
 0.7630	61.4300
 0.7640	61.3700
 0.7650	61.3100
 0.7660	61.1400
 0.7670	61.0800
 0.7680	61.3700
 0.7690	61.3100
 0.7700	61.3100
 0.7710	61.0300
 0.7720	61.2000
 0.7730	61.4300
 0.7740	61.3100
 0.7750	61.2600
 0.7760	61.0800
 0.7770	61.2000
 0.7780	61.3700
 0.7790	61.3700
 0.7800	61.3100
 0.7810	60.9700
 0.7820	60.9700
 0.7830	61.2600
 0.7840	61.3100
 0.7850	61.2600
 0.7860	60.9700
 0.7870	61.0800
 0.7880	61.4300
 0.7890	61.2600
 0.7900	61.1400
 0.7910	60.9700
 0.7920	61.0300
 0.7930	61.3100
 0.7940	61.2600
 0.7950	61.1400
 0.7960	61.0800
 0.7970	61.1400
 0.7980	61.4300
 0.7990	61.7200
 0.8000	61.7000
 0.8040	61.6600
 0.8080	61.7200
 0.8120	61.6000
 0.8160	61.5400
 0.8200	61.4900
 0.8240	61.3700
 0.8280	61.4300
 0.8320	61.5400
 0.8360	61.3700
 0.8400	61.3100
 0.8440	61.2600
 0.8480	61.2000
 0.8520	61.2600
 0.8560	61.0800
 0.8600	61.0800
 0.8640	61.0800
 0.8680	61.0800
 0.8720	61.0300
 0.8760	60.9100
 0.8800	60.8000
 0.8840	60.8500
 0.8880	60.9100
 0.8920	61.0300
 0.8960	60.9100
 0.9000	60.8000
 0.9040	60.8500
 0.9080	60.7400
 0.9120	60.8500
 0.9160	60.8500
 0.9200	60.9100
 0.9240	60.7400
 0.9280	60.8500
 0.9320	60.8500
 0.9360	60.9100
 0.9400	60.9100
 0.9440	60.9700
 0.9480	60.9700
 0.9520	61.0300
 0.9560	60.9100
 0.9600	60.8500
 0.9640	60.9700
 0.9680	61.0800
 0.9720	61.0300
 0.9760	61.1400
 0.9800	61.3100
 0.9840	61.3700
 0.9880	61.3700
 0.9920	61.3700
 0.9960	61.5400
 1.0000	61.4900
 1.0040	61.4300
 1.0080	61.5400
 1.0120	61.4900
 1.0160	61.5400
 1.0200	61.5400
 1.0240	61.4900
 1.0280	61.6000
 1.0320	61.6000
 1.0360	61.7200
 1.0400	61.7700
 1.0440	61.7700
 1.0480	61.7200
 1.0520	61.7700
 1.0560	61.7200
 1.0600	61.6000
 1.0640	61.7200
 1.0680	61.7200
 1.0720	61.6600
 1.0760	61.7700
 1.0800	61.6600
 1.0840	61.7200
 1.0880	61.7200
 1.0920	61.7200
 1.0960	61.8300
 1.1000	61.8300
 1.1040	61.8900
 1.1080	61.8300
 1.1120	61.7700
 1.1160	62.0000
 1.1200	61.9500
 1.1240	62.0600
 1.1280	61.9500
 1.1320	62.0600
 1.1360	62.0000
 1.1400	61.9500
 1.1440	61.8900
 1.1480	62.0600
 1.1520	61.9500
 1.1560	62.1100
 1.1600	62.1000
 1.1640	62.2100
 1.1680	62.0300
 1.1720	62.0900
 1.1760	62.0800
 1.1800	62.3100
 1.1840	62.2400
 1.1880	62.2900
 1.1920	62.1700
 1.1960	62.2300
 1.2000	62.3400
 1.2040	62.4500
 1.2080	62.3400
 1.2120	62.3900
 1.2160	62.3400
 1.2200	62.3400
 1.2240	62.3900
 1.2280	62.3900
 1.2320	62.3400
 1.2360	62.3900
 1.2400	62.4500
 1.2440	62.4500
 1.2480	62.4500
 1.2520	62.2800
 1.2560	62.5000
 1.2600	62.5500
 1.2640	62.5400
 1.2680	62.5900
 1.2720	62.6500
 1.2760	62.5900
 1.2800	62.7000
 1.2840	62.7400
 1.2880	62.6300
 1.2920	62.6900
 1.2960	62.6800
 1.3000	62.6200
 1.3040	62.9000
 1.3080	62.6000
 1.3120	62.6600
 1.3160	62.6000
 1.3200	62.6500
 1.3240	62.6900
 1.3280	62.7500
 1.3320	62.7500
 1.3360	62.6800
 1.3400	62.7300
 1.3440	62.8500
 1.3480	62.8900
 1.3520	62.8900
 1.3560	62.9500
 1.3600	62.8900
 1.3640	62.8900
 1.3680	62.8400
 1.3720	62.6600
 1.3760	62.6100
 1.3800	62.5500
 1.3840	62.3200
 1.3880	61.5800
 1.3920	60.0400
 1.3960	58.0500
 1.4000	55.7200
 1.4040	53.7400
 1.4080	52.6000
 1.4120	52.6000
 1.4160	54.2000
 1.4200	56.8900
 1.4240	59.2200
 1.4280	61.0500
 1.4320	61.9100
 1.4360	62.5400
 1.4400	62.7700
 1.4440	63.0100
 1.4480	63.1300
 1.4520	63.1800
 1.4560	63.1300
 1.4600	63.3000
 1.4640	63.4100
 1.4680	63.3600
 1.4720	63.4700
 1.4760	63.5900
 1.4800	63.4700
 1.4840	63.4700
 1.4880	63.4100
 1.4920	63.7000
 1.4960	63.7000
 1.5000	63.5300
 1.5040	63.8200
 1.5080	63.8200
 1.5120	63.8200
 1.5160	63.7600
 1.5200	63.8600
 1.5240	63.8200
 1.5280	63.8200
 1.5320	63.7000
 1.5360	63.8600
 1.5400	63.8200
 1.5440	63.7600
 1.5480	63.7600
 1.5520	63.8600
 1.5560	63.8200
 1.5600	63.8600
 1.5640	63.7600
 1.5680	63.8200
 1.5720	63.8200
 1.5760	63.7600
 1.5800	63.6400
 1.5840	63.8600
 1.5880	63.8200
 1.5920	63.8200
 1.5960	63.8600
 1.6000	63.9200
 1.6040	63.8600
 1.6080	63.7400
 1.6120	63.7400
 1.6160	63.8000
 1.6200	63.7900
 1.6240	63.7800
 1.6280	63.8300
 1.6320	63.7800
 1.6360	63.6500
 1.6400	63.5900
 1.6440	63.7600
 1.6480	63.6900
 1.6520	63.6900
 1.6560	63.6900
 1.6600	63.6800
 1.6640	63.6700
 1.6680	63.6100
 1.6720	63.6700
 1.6760	63.6000
 1.6800	63.6500
 1.6840	63.5900
 1.6880	63.6400
 1.6920	63.6400
 1.6960	63.5700
 1.7000	63.6900
 1.7040	63.6900
 1.7080	63.5700
 1.7120	63.5700
 1.7160	63.5700
 1.7200	63.6300
 1.7240	63.5700
 1.7280	63.5700
 1.7320	63.5100
 1.7360	63.6300
 1.7400	63.5700
 1.7440	63.3400
 1.7480	63.5700
 1.7520	63.4600
 1.7560	63.5100
 1.7600	63.4600
 1.7640	63.5100
 1.7680	63.3400
 1.7720	63.4600
 1.7760	63.4000
 1.7800	63.5100
 1.7840	63.4600
 1.7880	63.2800
 1.7920	63.4000
 1.7960	63.4000
 1.8000	63.5100
 1.8040	63.3200
 1.8080	63.3600
 1.8120	63.2800
 1.8160	63.3200
 1.8200	63.1800
 1.8240	63.2800
 1.8280	63.0900
 1.8320	63.1100
 1.8360	63.1500
 1.8400	63.1400
 1.8440	63.1200
 1.8480	63.1600
 1.8520	62.9800
 1.8560	63.0200
 1.8600	63.0700
 1.8640	63.0700
 1.8680	62.8900
 1.8720	62.8900
 1.8760	62.7200
 1.8800	62.5900
 1.8840	62.4200
 1.8880	62.3500
 1.8920	62.0700
 1.8960	61.8400
 1.9000	61.6600
 1.9040	61.6100
 1.9080	61.4200
 1.9120	61.3100
 1.9160	61.1400
 1.9200	61.1800
 1.9240	61.1300
 1.9280	61.2300
 1.9320	61.1200
 1.9360	61.2200
 1.9400	61.1600
 1.9440	61.4400
 1.9480	61.3200
 1.9520	61.4800
 1.9560	61.4100
 1.9600	61.6200
 1.9640	61.6700
 1.9680	61.7600
 1.9720	61.7400
 1.9760	61.7200
 1.9800	61.7700
 1.9840	61.9200
 1.9880	61.9600
 1.9920	61.9500
 1.9960	61.9300
 2.0000	62.1500
 2.0040	62.1000
 2.0080	62.1500
 2.0120	62.1100
 2.0160	62.2700
 2.0200	62.1800
 2.0240	62.3000
 2.0280	62.2500
 2.0320	62.3700
 2.0360	62.4100
 2.0400	62.3200
 2.0440	62.1600
 2.0480	62.3400
 2.0520	62.3600
 2.0560	62.2100
 2.0600	62.1300
 2.0640	62.2800
 2.0680	62.2500
 2.0720	62.1700
 2.0760	62.1400
 2.0800	62.1200
 2.0840	61.9800
 2.0880	61.7300
 2.0920	61.6500
 2.0960	61.4500
 2.1000	61.3200
 2.1040	61.1800
 2.1080	60.8300
 2.1120	60.8600
 2.1160	60.8800
 2.1200	60.7500
 2.1240	60.6000
 2.1280	60.6500
 2.1320	60.5200
 2.1360	60.5200
 2.1400	60.1800
 2.1440	59.9900
 2.1480	59.6800
 2.1520	59.2800
 2.1560	58.6000
 2.1600	57.9200
 2.1640	56.9400
 2.1680	55.7900
 2.1720	54.3500
 2.1760	52.8600
 2.1800	51.0700
 2.1840	49.2700
 2.1880	47.8000
 2.1920	46.8300
 2.1960	46.0300
 2.2000	45.9000
 2.2040	46.2900
 2.2080	47.1900
 2.2120	48.3200
 2.2160	49.5700
 2.2200	51.0000
 2.2240	52.2300
 2.2280	53.3000
 2.2320	54.1400
 2.2360	55.0100
 2.2400	55.4900
 2.2440	55.9400
 2.2480	56.2300
 2.2520	56.7700
 2.2560	56.9100
 2.2600	57.0700
 2.2640	57.2300
 2.2680	57.5200
 2.2720	57.3900
 2.2760	57.4800
 2.2800	57.2300
 2.2840	57.1500
 2.2880	56.9000
 2.2920	56.5900
 2.2960	56.2700
 2.3000	55.7200
 2.3040	55.1300
 2.3080	54.8300
 2.3120	53.8600
 2.3160	53.1100
 2.3200	52.5400
 2.3240	51.8800
 2.3280	51.2800
 2.3320	50.5700
 2.3360	50.0300
 2.3400	49.5900
 2.3440	49.3600
 2.3480	49.2300
 2.3520	49.1500
 2.3560	49.0800
 2.3600	49.2200
 2.3640	49.4200
 2.3680	49.4000
 2.3720	49.4400
 2.3760	49.4400
 2.3800	49.4400
 2.3840	49.4800
 2.3880	49.3500
 2.3920	49.2300
 2.3960	49.0000
 2.4000	48.6800
 2.4040	48.3900
 2.4080	48.1100
 2.4120	47.7200
 2.4160	47.2800
 2.4200	46.7800
 2.4240	46.5600
 2.4280	46.0500
 2.4320	45.9400
 2.4360	45.7700
 2.4400	45.6600
 2.4440	45.4800
 2.4480	45.4700
 2.4520	45.6500
 2.4560	45.6400
 2.4600	45.8000
 2.4640	46.0200
 2.4680	46.1200
 2.4720	46.3400
 2.4760	46.5100
 2.4800	46.6100
 2.4840	46.8800
 2.4880	47.1000
 2.4920	47.2000
 2.4960	47.3100
 2.5000	47.6400
