Name: Cassiterite SnO_2
Type: Mineral
Class: Oxide
Subclass: None
Particle Size: Fine
Sample No.: O-3A
Owner: JPL
Wavelength Range: VSWIR
Origin: USA, South Dakota, Lawrence County, Tinton.collected by:  Burminco
Collection Date: N/A
Description: Particle size was 0-45um. Original ASTER Spectral Library name was jpl.perkin.mineral.oxide.none.fine.o03a.spectrum.txt
Measurement: Hemispherical reflectance
First Column: X
Second Column: Y
X Units: Wavelength (micrometers)
Y Units:Reflectance (percent)
First X Value:  2.5000
Last X Value:  0.4000
Number of X Values: 2101
Additional Information: mineral.oxide.none.fine.vswir.o-3a.jpl.perkin.ancillary.txt

 2.5000	 5.7307
 2.4990	 5.5713
 2.4980	 6.0680
 2.4970	 5.7958
 2.4960	 5.5340
 2.4950	 5.9656
 2.4940	 5.8287
 2.4930	 5.7718
 2.4920	 5.8295
 2.4910	 5.4942
 2.4900	 5.8573
 2.4890	 5.6201
 2.4880	 5.9294
 2.4870	 5.5146
 2.4860	 5.9134
 2.4850	 5.8693
 2.4840	 5.8354
 2.4830	 5.7672
 2.4820	 5.8574
 2.4810	 5.7391
 2.4800	 5.8949
 2.4790	 5.7415
 2.4780	 5.8279
 2.4770	 5.6083
 2.4760	 5.8901
 2.4750	 5.7657
 2.4740	 5.9598
 2.4730	 5.7756
 2.4720	 5.9537
 2.4710	 5.8293
 2.4700	 5.9581
 2.4690	 5.8481
 2.4680	 5.9293
 2.4670	 5.8143
 2.4660	 5.9928
 2.4650	 5.7002
 2.4640	 5.8537
 2.4630	 5.7522
 2.4620	 5.9726
 2.4610	 5.7643
 2.4600	 5.8363
 2.4590	 5.8226
 2.4580	 5.9279
 2.4570	 5.8331
 2.4560	 6.0996
 2.4550	 5.8695
 2.4540	 5.9278
 2.4530	 5.9205
 2.4520	 5.9819
 2.4510	 5.8737
 2.4500	 5.9904
 2.4490	 5.8749
 2.4480	 6.0617
 2.4470	 6.0044
 2.4460	 5.9675
 2.4450	 6.0172
 2.4440	 5.9307
 2.4430	 5.9393
 2.4420	 6.0360
 2.4410	 5.9458
 2.4400	 6.0524
 2.4390	 5.9763
 2.4380	 6.0600
 2.4370	 5.9307
 2.4360	 6.0315
 2.4350	 5.9882
 2.4340	 6.0528
 2.4330	 5.9232
 2.4320	 6.1698
 2.4310	 6.0125
 2.4300	 6.0762
 2.4290	 5.9971
 2.4280	 6.0589
 2.4270	 6.0269
 2.4260	 6.1113
 2.4250	 6.0240
 2.4240	 6.1390
 2.4230	 6.0465
 2.4220	 6.1689
 2.4210	 6.0899
 2.4200	 6.1428
 2.4190	 6.0794
 2.4180	 6.1237
 2.4170	 5.9996
 2.4160	 6.1841
 2.4150	 6.0626
 2.4140	 6.0643
 2.4130	 6.0851
 2.4120	 6.1396
 2.4110	 6.0807
 2.4100	 6.1614
 2.4090	 6.1626
 2.4080	 6.1706
 2.4070	 6.0952
 2.4060	 6.1366
 2.4050	 6.1322
 2.4040	 6.2050
 2.4030	 6.1457
 2.4020	 6.2029
 2.4010	 6.1734
 2.4000	 6.1910
 2.3990	 6.1610
 2.3980	 6.1837
 2.3970	 6.1359
 2.3960	 6.1031
 2.3950	 6.1031
 2.3940	 6.2482
 2.3930	 6.2040
 2.3920	 6.1771
 2.3910	 6.1274
 2.3900	 6.2364
 2.3890	 6.1771
 2.3880	 6.2765
 2.3870	 6.2360
 2.3860	 6.3155
 2.3850	 6.2679
 2.3840	 6.2267
 2.3830	 6.2693
 2.3820	 6.2545
 2.3810	 6.2247
 2.3800	 6.2747
 2.3790	 6.2420
 2.3780	 6.3113
 2.3770	 6.3098
 2.3760	 6.3154
 2.3750	 6.2654
 2.3740	 6.2587
 2.3730	 6.2549
 2.3720	 6.2608
 2.3710	 6.3061
 2.3700	 6.3397
 2.3690	 6.3138
 2.3680	 6.3469
 2.3670	 6.3219
 2.3660	 6.3548
 2.3650	 6.3315
 2.3640	 6.4117
 2.3630	 6.3757
 2.3620	 6.3179
 2.3610	 6.4250
 2.3600	 6.4421
 2.3590	 6.3954
 2.3580	 6.3883
 2.3570	 6.4062
 2.3560	 6.4424
 2.3550	 6.4251
 2.3540	 6.4054
 2.3530	 6.4677
 2.3520	 6.4198
 2.3510	 6.4495
 2.3500	 6.4957
 2.3490	 6.4873
 2.3480	 6.4587
 2.3470	 6.4537
 2.3460	 6.4460
 2.3450	 6.4175
 2.3440	 6.4146
 2.3430	 6.4387
 2.3420	 6.4372
 2.3410	 6.4585
 2.3400	 6.4410
 2.3390	 6.4322
 2.3380	 6.4559
 2.3370	 6.4789
 2.3360	 6.4827
 2.3350	 6.4842
 2.3340	 6.3876
 2.3330	 6.4390
 2.3320	 6.4685
 2.3310	 6.4916
 2.3300	 6.4198
 2.3290	 6.4832
 2.3280	 6.5165
 2.3270	 6.5111
 2.3260	 6.4471
 2.3250	 6.5062
 2.3240	 6.5076
 2.3230	 6.4870
 2.3220	 6.4731
 2.3210	 6.5315
 2.3200	 6.5496
 2.3190	 6.6292
 2.3180	 6.5161
 2.3170	 6.5302
 2.3160	 6.5591
 2.3150	 6.5725
 2.3140	 6.5385
 2.3130	 6.5693
 2.3120	 6.5606
 2.3110	 6.5509
 2.3100	 6.5287
 2.3090	 6.6253
 2.3080	 6.5635
 2.3070	 6.5604
 2.3060	 6.5136
 2.3050	 6.5897
 2.3040	 6.5781
 2.3030	 6.6714
 2.3020	 6.5877
 2.3010	 6.6483
 2.3000	 6.5819
 2.2990	 6.6015
 2.2980	 6.5039
 2.2970	 6.6195
 2.2960	 6.6137
 2.2950	 6.6925
 2.2940	 6.6325
 2.2930	 6.6682
 2.2920	 6.5380
 2.2910	 6.6291
 2.2900	 6.6125
 2.2890	 6.7253
 2.2880	 6.6915
 2.2870	 6.7217
 2.2860	 6.6841
 2.2850	 6.7277
 2.2840	 6.6379
 2.2830	 6.7094
 2.2820	 6.6467
 2.2810	 6.6920
 2.2800	 6.6307
 2.2790	 6.7279
 2.2780	 6.6151
 2.2770	 6.7352
 2.2760	 6.6410
 2.2750	 6.7406
 2.2740	 6.6359
 2.2730	 6.8043
 2.2720	 6.6616
 2.2710	 6.7750
 2.2700	 6.7337
 2.2690	 6.7826
 2.2680	 6.7109
 2.2670	 6.7416
 2.2660	 6.6978
 2.2650	 6.7790
 2.2640	 6.7109
 2.2630	 6.7781
 2.2620	 6.7635
 2.2610	 6.8386
 2.2600	 6.8067
 2.2590	 6.7826
 2.2580	 6.6721
 2.2570	 6.8030
 2.2560	 6.7434
 2.2550	 6.8894
 2.2540	 6.8389
 2.2530	 6.8441
 2.2520	 6.8344
 2.2510	 6.9516
 2.2500	 6.7495
 2.2490	 6.8880
 2.2480	 6.7331
 2.2470	 6.8684
 2.2460	 6.8412
 2.2450	 6.9798
 2.2440	 6.7580
 2.2430	 6.9166
 2.2420	 6.8174
 2.2410	 6.9163
 2.2400	 6.8060
 2.2390	 6.9358
 2.2380	 6.8113
 2.2370	 6.9658
 2.2360	 6.8941
 2.2350	 6.9786
 2.2340	 6.8408
 2.2330	 6.9269
 2.2320	 6.8798
 2.2310	 6.9964
 2.2300	 6.8663
 2.2290	 6.9360
 2.2280	 6.8921
 2.2270	 6.9716
 2.2260	 6.8898
 2.2250	 7.0058
 2.2240	 6.9265
 2.2230	 7.0230
 2.2220	 6.9213
 2.2210	 7.0499
 2.2200	 6.9221
 2.2190	 7.0435
 2.2180	 6.9580
 2.2170	 7.0971
 2.2160	 6.9614
 2.2150	 7.0994
 2.2140	 6.9584
 2.2130	 7.0592
 2.2120	 7.0848
 2.2110	 6.9375
 2.2100	 7.0574
 2.2090	 7.0069
 2.2080	 7.0741
 2.2070	 7.1052
 2.2060	 6.9819
 2.2050	 7.1270
 2.2040	 7.0643
 2.2030	 7.1686
 2.2020	 7.0336
 2.2010	 7.0852
 2.2000	 7.0763
 2.1990	 7.1467
 2.1980	 7.1617
 2.1970	 7.2012
 2.1960	 7.1198
 2.1950	 7.1495
 2.1940	 7.0730
 2.1930	 7.2513
 2.1920	 7.1041
 2.1910	 7.1936
 2.1900	 7.1438
 2.1890	 7.1968
 2.1880	 7.1146
 2.1870	 7.2635
 2.1860	 7.1676
 2.1850	 7.2612
 2.1840	 7.1228
 2.1830	 7.2315
 2.1820	 7.1278
 2.1810	 7.3003
 2.1800	 7.1971
 2.1790	 7.2142
 2.1780	 7.1872
 2.1770	 7.3174
 2.1760	 7.1907
 2.1750	 7.3945
 2.1740	 7.2499
 2.1730	 7.2970
 2.1720	 7.2407
 2.1710	 7.3980
 2.1700	 7.2782
 2.1690	 7.3110
 2.1680	 7.2898
 2.1670	 7.4412
 2.1660	 7.3160
 2.1650	 7.3915
 2.1640	 7.3077
 2.1630	 7.4475
 2.1620	 7.3225
 2.1610	 7.4220
 2.1600	 7.2972
 2.1590	 7.4055
 2.1580	 7.3866
 2.1570	 7.4608
 2.1560	 7.3529
 2.1550	 7.4779
 2.1540	 7.4590
 2.1530	 7.4886
 2.1520	 7.4064
 2.1510	 7.4394
 2.1500	 7.4497
 2.1490	 7.4677
 2.1480	 7.4717
 2.1470	 7.5453
 2.1460	 7.3871
 2.1450	 7.4963
 2.1440	 7.4605
 2.1430	 7.4951
 2.1420	 7.4756
 2.1410	 7.5258
 2.1400	 7.5559
 2.1390	 7.4893
 2.1380	 7.4331
 2.1370	 7.5436
 2.1360	 7.4619
 2.1350	 7.5666
 2.1340	 7.4689
 2.1330	 7.5433
 2.1320	 7.5454
 2.1310	 7.5868
 2.1300	 7.5065
 2.1290	 7.6149
 2.1280	 7.5393
 2.1270	 7.6395
 2.1260	 7.5074
 2.1250	 7.5703
 2.1240	 7.5846
 2.1230	 7.5986
 2.1220	 7.5515
 2.1210	 7.5962
 2.1200	 7.5984
 2.1190	 7.6158
 2.1180	 7.5815
 2.1170	 7.5808
 2.1160	 7.5445
 2.1150	 7.5777
 2.1140	 7.5923
 2.1130	 7.6044
 2.1120	 7.4685
 2.1110	 7.5592
 2.1100	 7.6343
 2.1090	 7.6496
 2.1080	 7.5310
 2.1070	 7.6010
 2.1060	 7.5550
 2.1050	 7.5762
 2.1040	 7.5625
 2.1030	 7.5947
 2.1020	 7.6070
 2.1010	 7.6527
 2.1000	 7.6390
 2.0990	 7.6583
 2.0980	 7.5770
 2.0970	 7.5675
 2.0960	 7.5802
 2.0950	 7.6642
 2.0940	 7.6784
 2.0930	 7.6203
 2.0920	 7.6020
 2.0910	 7.6697
 2.0900	 7.6375
 2.0890	 7.7204
 2.0880	 7.7094
 2.0870	 7.6828
 2.0860	 7.6859
 2.0850	 7.6767
 2.0840	 7.7003
 2.0830	 7.6591
 2.0820	 7.7272
 2.0810	 7.7695
 2.0800	 7.6979
 2.0790	 7.7598
 2.0780	 7.7677
 2.0770	 7.7506
 2.0760	 7.7198
 2.0750	 7.7669
 2.0740	 7.8037
 2.0730	 7.7644
 2.0720	 7.7521
 2.0710	 7.7449
 2.0700	 7.7731
 2.0690	 7.8247
 2.0680	 7.8158
 2.0670	 7.8086
 2.0660	 7.8424
 2.0650	 7.8790
 2.0640	 7.8815
 2.0630	 7.7855
 2.0620	 7.7621
 2.0610	 7.8397
 2.0600	 7.8667
 2.0590	 7.8104
 2.0580	 7.8571
 2.0570	 7.8726
 2.0560	 7.8674
 2.0550	 7.8916
 2.0540	 7.9067
 2.0530	 7.8491
 2.0520	 7.8714
 2.0510	 7.8722
 2.0500	 7.9125
 2.0490	 7.9378
 2.0480	 7.9244
 2.0470	 7.9578
 2.0460	 8.0032
 2.0450	 7.9874
 2.0440	 8.0012
 2.0430	 7.9526
 2.0420	 7.9610
 2.0410	 7.9197
 2.0400	 7.9542
 2.0390	 7.9552
 2.0380	 8.0172
 2.0370	 7.9912
 2.0360	 8.0134
 2.0350	 7.9794
 2.0340	 8.0395
 2.0330	 8.0286
 2.0320	 8.0358
 2.0310	 8.0172
 2.0300	 8.0985
 2.0290	 7.9914
 2.0280	 8.0648
 2.0270	 8.0392
 2.0260	 8.0281
 2.0250	 7.9711
 2.0240	 8.0368
 2.0230	 8.0003
 2.0220	 8.0837
 2.0210	 8.0394
 2.0200	 8.1164
 2.0190	 8.0960
 2.0180	 8.1541
 2.0170	 8.0424
 2.0160	 8.1330
 2.0150	 8.1039
 2.0140	 8.1488
 2.0130	 8.1404
 2.0120	 8.1905
 2.0110	 8.1181
 2.0100	 8.1534
 2.0090	 8.1484
 2.0080	 8.2118
 2.0070	 8.1430
 2.0060	 8.2171
 2.0050	 8.1441
 2.0040	 8.2767
 2.0030	 8.2207
 2.0020	 8.1213
 2.0010	 8.1794
 2.0000	 8.2974
 1.9990	 8.1375
 1.9980	 8.2432
 1.9970	 8.1995
 1.9960	 8.2779
 1.9950	 8.2401
 1.9940	 8.2568
 1.9930	 8.2394
 1.9920	 8.3158
 1.9910	 8.2162
 1.9900	 8.3036
 1.9890	 8.2766
 1.9880	 8.2608
 1.9870	 8.2151
 1.9860	 8.3613
 1.9850	 8.3029
 1.9840	 8.3592
 1.9830	 8.3036
 1.9820	 8.2085
 1.9810	 8.2276
 1.9800	 8.4044
 1.9790	 8.2959
 1.9780	 8.3779
 1.9770	 8.3135
 1.9760	 8.3747
 1.9750	 8.3027
 1.9740	 8.2749
 1.9730	 8.2605
 1.9720	 8.4133
 1.9710	 8.2774
 1.9700	 8.4540
 1.9690	 8.3519
 1.9680	 8.4308
 1.9670	 8.3644
 1.9660	 8.3753
 1.9650	 8.3599
 1.9640	 8.4605
 1.9630	 8.3605
 1.9620	 8.3566
 1.9610	 8.2646
 1.9600	 8.4583
 1.9590	 8.3398
 1.9580	 8.5386
 1.9570	 8.3310
 1.9560	 8.5148
 1.9550	 8.3843
 1.9540	 8.4082
 1.9530	 8.3505
 1.9520	 8.4228
 1.9510	 8.3681
 1.9500	 8.5635
 1.9490	 8.4237
 1.9480	 8.5119
 1.9470	 8.4423
 1.9460	 8.4972
 1.9450	 8.5099
 1.9440	 8.5555
 1.9430	 8.4455
 1.9420	 8.6542
 1.9410	 8.5722
 1.9400	 8.5488
 1.9390	 8.5025
 1.9380	 8.5988
 1.9370	 8.5106
 1.9360	 8.5723
 1.9350	 8.5949
 1.9340	 8.5827
 1.9330	 8.4846
 1.9320	 8.6558
 1.9310	 8.5467
 1.9300	 8.6166
 1.9290	 8.5553
 1.9280	 8.6088
 1.9270	 8.6668
 1.9260	 8.4721
 1.9250	 8.5831
 1.9240	 8.5951
 1.9230	 8.6204
 1.9220	 8.5842
 1.9210	 8.5394
 1.9200	 8.6919
 1.9190	 8.6245
 1.9180	 8.8011
 1.9170	 8.5945
 1.9160	 8.7121
 1.9150	 8.5349
 1.9140	 8.6710
 1.9130	 8.7315
 1.9120	 8.7368
 1.9110	 8.6835
 1.9100	 8.8011
 1.9090	 8.6521
 1.9080	 8.8687
 1.9070	 8.6129
 1.9060	 8.7825
 1.9050	 8.6399
 1.9040	 8.7792
 1.9030	 8.7477
 1.9020	 8.8501
 1.9010	 8.7149
 1.9000	 8.8419
 1.8990	 8.7132
 1.8980	 8.8482
 1.8970	 8.7354
 1.8960	 8.8956
 1.8950	 8.8593
 1.8940	 8.8288
 1.8930	 8.8262
 1.8920	 8.8618
 1.8910	 8.7994
 1.8900	 8.9322
 1.8890	 8.7771
 1.8880	 8.9867
 1.8870	 8.8443
 1.8860	 8.9386
 1.8850	 8.8999
 1.8840	 8.9729
 1.8830	 8.9167
 1.8820	 8.9208
 1.8810	 8.9339
 1.8800	 8.9899
 1.8790	 8.9464
 1.8780	 9.0319
 1.8770	 8.9051
 1.8760	 9.0852
 1.8750	 8.9286
 1.8740	 8.9804
 1.8730	 8.9525
 1.8720	 8.9598
 1.8710	 8.9534
 1.8700	 8.9713
 1.8690	 8.9421
 1.8680	 9.0413
 1.8670	 8.9293
 1.8660	 9.0416
 1.8650	 9.0388
 1.8640	 9.0489
 1.8630	 8.9859
 1.8620	 9.0995
 1.8610	 9.0124
 1.8600	 9.0244
 1.8590	 9.0743
 1.8580	 9.0815
 1.8570	 9.0657
 1.8560	 9.1139
 1.8550	 9.0403
 1.8540	 9.1308
 1.8530	 9.0417
 1.8520	 9.2033
 1.8510	 9.1159
 1.8500	 9.2231
 1.8490	 9.1381
 1.8480	 9.1449
 1.8470	 9.0740
 1.8460	 9.1946
 1.8450	 9.1095
 1.8440	 9.2459
 1.8430	 9.1899
 1.8420	 9.2177
 1.8410	 9.2209
 1.8400	 9.2169
 1.8390	 9.1102
 1.8380	 9.1330
 1.8370	 9.2058
 1.8360	 9.2465
 1.8350	 9.1918
 1.8340	 9.3054
 1.8330	 9.3022
 1.8320	 9.2611
 1.8310	 9.2362
 1.8300	 9.3344
 1.8290	 9.2295
 1.8280	 9.2583
 1.8270	 9.3200
 1.8260	 9.3726
 1.8250	 9.2762
 1.8240	 9.3010
 1.8230	 9.3001
 1.8220	 9.3336
 1.8210	 9.2212
 1.8200	 9.2939
 1.8190	 9.3378
 1.8180	 9.3811
 1.8170	 9.3822
 1.8160	 9.3698
 1.8150	 9.3747
 1.8140	 9.4177
 1.8130	 9.3641
 1.8120	 9.4053
 1.8110	 9.3779
 1.8100	 9.4300
 1.8090	 9.4044
 1.8080	 9.4317
 1.8070	 9.4770
 1.8060	 9.4586
 1.8050	 9.4043
 1.8040	 9.4430
 1.8030	 9.4767
 1.8020	 9.4354
 1.8010	 9.4741
 1.8000	 9.4870
 1.7990	 9.4490
 1.7980	 9.4762
 1.7970	 9.4954
 1.7960	 9.4859
 1.7950	 9.4701
 1.7940	 9.4960
 1.7930	 9.5280
 1.7920	 9.5545
 1.7910	 9.4865
 1.7900	 9.4629
 1.7890	 9.4584
 1.7880	 9.4979
 1.7870	 9.4953
 1.7860	 9.5096
 1.7850	 9.6054
 1.7840	 9.5813
 1.7830	 9.5981
 1.7820	 9.6059
 1.7810	 9.5285
 1.7800	 9.5158
 1.7790	 9.6122
 1.7780	 9.6464
 1.7770	 9.6199
 1.7760	 9.6433
 1.7750	 9.6607
 1.7740	 9.5865
 1.7730	 9.6177
 1.7720	 9.6112
 1.7710	 9.6188
 1.7700	 9.6945
 1.7690	 9.7012
 1.7680	 9.6284
 1.7670	 9.6099
 1.7660	 9.6429
 1.7650	 9.6661
 1.7640	 9.6342
 1.7630	 9.6805
 1.7620	 9.6669
 1.7610	 9.6838
 1.7600	 9.7195
 1.7590	 9.7554
 1.7580	 9.7061
 1.7570	 9.6837
 1.7560	 9.7031
 1.7550	 9.7549
 1.7540	 9.7335
 1.7530	 9.7714
 1.7520	 9.7397
 1.7510	 9.8074
 1.7500	 9.7464
 1.7490	 9.8283
 1.7480	 9.7840
 1.7470	 9.8071
 1.7460	 9.7910
 1.7450	 9.8121
 1.7440	 9.7789
 1.7430	 9.8164
 1.7420	 9.8082
 1.7410	 9.8669
 1.7400	 9.8368
 1.7390	 9.8849
 1.7380	 9.8507
 1.7370	 9.9013
 1.7360	 9.8122
 1.7350	 9.8662
 1.7340	 9.9142
 1.7330	 9.8962
 1.7320	 9.8995
 1.7310	 9.8972
 1.7300	 9.8826
 1.7290	 9.9476
 1.7280	 9.8236
 1.7270	 9.9133
 1.7260	 9.8721
 1.7250	 9.9507
 1.7240	 9.9595
 1.7230	 9.9842
 1.7220	 9.9719
 1.7210	10.0068
 1.7200	 9.9708
 1.7190	 9.9932
 1.7180	 9.9534
 1.7170	 9.9938
 1.7160	 9.9802
 1.7150	10.0328
 1.7140	10.0043
 1.7130	10.0685
 1.7120	10.0052
 1.7110	10.0685
 1.7100	10.0200
 1.7090	10.0477
 1.7080	10.0012
 1.7070	10.1068
 1.7060	10.0741
 1.7050	10.1584
 1.7040	10.0410
 1.7030	10.0908
 1.7020	10.0976
 1.7010	10.1935
 1.7000	10.0658
 1.6990	10.0739
 1.6980	10.0920
 1.6970	10.1422
 1.6960	10.1015
 1.6950	10.1736
 1.6940	10.0648
 1.6930	10.2332
 1.6920	10.1616
 1.6910	10.1778
 1.6900	10.1873
 1.6890	10.2222
 1.6880	10.1365
 1.6870	10.1859
 1.6860	10.1563
 1.6850	10.2215
 1.6840	10.1360
 1.6830	10.3149
 1.6820	10.0992
 1.6810	10.2501
 1.6800	10.2085
 1.6790	10.2948
 1.6780	10.2105
 1.6770	10.2767
 1.6760	10.2104
 1.6750	10.3872
 1.6740	10.2279
 1.6730	10.3515
 1.6720	10.2557
 1.6710	10.2360
 1.6700	10.2092
 1.6690	10.3756
 1.6680	10.1939
 1.6670	10.3785
 1.6660	10.3507
 1.6650	10.3839
 1.6640	10.3150
 1.6630	10.3751
 1.6620	10.2791
 1.6610	10.4109
 1.6600	10.3588
 1.6590	10.4493
 1.6580	10.3010
 1.6570	10.3682
 1.6560	10.5236
 1.6550	10.5082
 1.6540	10.3646
 1.6530	10.5328
 1.6520	10.3386
 1.6510	10.4761
 1.6500	10.4005
 1.6490	10.3831
 1.6480	10.4353
 1.6470	10.5398
 1.6460	10.4272
 1.6450	10.5993
 1.6440	10.4314
 1.6430	10.6118
 1.6420	10.4411
 1.6410	10.4303
 1.6400	10.5292
 1.6390	10.6264
 1.6380	10.4806
 1.6370	10.6251
 1.6360	10.5051
 1.6350	10.5668
 1.6340	10.5136
 1.6330	10.6444
 1.6320	10.5596
 1.6310	10.5982
 1.6300	10.5296
 1.6290	10.7139
 1.6280	10.5644
 1.6270	10.6640
 1.6260	10.6140
 1.6250	10.5650
 1.6240	10.5484
 1.6230	10.7245
 1.6220	10.5732
 1.6210	10.7516
 1.6200	10.6333
 1.6190	10.7051
 1.6180	10.6028
 1.6170	10.7881
 1.6160	10.6854
 1.6150	10.7665
 1.6140	10.6597
 1.6130	10.7499
 1.6120	10.7071
 1.6110	10.8577
 1.6100	10.6900
 1.6090	10.7993
 1.6080	10.6840
 1.6070	10.7562
 1.6060	10.7680
 1.6050	10.7904
 1.6040	10.7307
 1.6030	10.7912
 1.6020	10.7655
 1.6010	10.8054
 1.6000	10.8485
 1.5990	10.7753
 1.5980	10.7855
 1.5970	10.9100
 1.5960	10.8256
 1.5950	10.9456
 1.5940	10.8118
 1.5930	10.8406
 1.5920	10.8316
 1.5910	10.9367
 1.5900	10.8470
 1.5890	10.9297
 1.5880	10.8944
 1.5870	10.9453
 1.5860	10.8200
 1.5850	10.9132
 1.5840	10.8580
 1.5830	10.8904
 1.5820	10.9554
 1.5810	10.9729
 1.5800	10.9685
 1.5790	11.0325
 1.5780	10.9492
 1.5770	11.0251
 1.5760	10.9874
 1.5750	11.0558
 1.5740	10.9723
 1.5730	10.9853
 1.5720	10.9479
 1.5710	11.0538
 1.5700	10.9854
 1.5690	11.0612
 1.5680	11.0339
 1.5670	11.1000
 1.5660	11.0855
 1.5650	11.0836
 1.5640	11.0140
 1.5630	11.0820
 1.5620	11.0849
 1.5610	11.0801
 1.5600	11.1332
 1.5590	11.2242
 1.5580	11.1128
 1.5570	11.1363
 1.5560	11.1410
 1.5550	11.2325
 1.5540	11.1557
 1.5530	11.1475
 1.5520	11.1672
 1.5510	11.2362
 1.5500	11.2090
 1.5490	11.1813
 1.5480	11.1716
 1.5470	11.2593
 1.5460	11.2659
 1.5450	11.2763
 1.5440	11.1961
 1.5430	11.2465
 1.5420	11.2589
 1.5410	11.2567
 1.5400	11.2263
 1.5390	11.2482
 1.5380	11.2230
 1.5370	11.3186
 1.5360	11.3037
 1.5350	11.3147
 1.5340	11.2818
 1.5330	11.3326
 1.5320	11.3254
 1.5310	11.3630
 1.5300	11.3293
 1.5290	11.3823
 1.5280	11.4173
 1.5270	11.4282
 1.5260	11.3307
 1.5250	11.3563
 1.5240	11.3457
 1.5230	11.4267
 1.5220	11.4132
 1.5210	11.4092
 1.5200	11.4343
 1.5190	11.4733
 1.5180	11.3972
 1.5170	11.3760
 1.5160	11.3952
 1.5150	11.4635
 1.5140	11.4884
 1.5130	11.4850
 1.5120	11.5003
 1.5110	11.5412
 1.5100	11.5318
 1.5090	11.5200
 1.5080	11.4786
 1.5070	11.4766
 1.5060	11.4935
 1.5050	11.5414
 1.5040	11.5179
 1.5030	11.5351
 1.5020	11.5979
 1.5010	11.5559
 1.5000	11.5547
 1.4990	11.5994
 1.4980	11.6474
 1.4970	11.6276
 1.4960	11.6349
 1.4950	11.6783
 1.4940	11.6775
 1.4930	11.6425
 1.4920	11.6139
 1.4910	11.6308
 1.4900	11.6281
 1.4890	11.6371
 1.4880	11.7077
 1.4870	11.6874
 1.4860	11.6737
 1.4850	11.7027
 1.4840	11.7838
 1.4830	11.7763
 1.4820	11.7238
 1.4810	11.7030
 1.4800	11.7488
 1.4790	11.7288
 1.4780	11.7285
 1.4770	11.7612
 1.4760	11.8179
 1.4750	11.7835
 1.4740	11.8101
 1.4730	11.8171
 1.4720	11.7904
 1.4710	11.7925
 1.4700	11.8285
 1.4690	11.7987
 1.4680	11.8368
 1.4670	11.8849
 1.4660	11.8967
 1.4650	11.8212
 1.4640	11.8637
 1.4630	11.8109
 1.4620	11.8265
 1.4610	11.8346
 1.4600	11.9619
 1.4590	11.8963
 1.4580	11.9511
 1.4570	11.8981
 1.4560	11.9489
 1.4550	11.9368
 1.4540	11.9202
 1.4530	11.8845
 1.4520	11.9458
 1.4510	11.9536
 1.4500	11.9955
 1.4490	12.0094
 1.4480	12.0198
 1.4470	11.9394
 1.4460	12.0188
 1.4450	11.9968
 1.4440	12.0486
 1.4430	12.0060
 1.4420	12.0854
 1.4410	12.0543
 1.4400	12.0590
 1.4390	12.0583
 1.4380	12.0623
 1.4370	12.0238
 1.4360	12.1079
 1.4350	12.0714
 1.4340	12.1333
 1.4330	12.0914
 1.4320	12.1861
 1.4310	12.1033
 1.4300	12.1287
 1.4290	12.1379
 1.4280	12.2156
 1.4270	12.1065
 1.4260	12.2058
 1.4250	12.1417
 1.4240	12.2026
 1.4230	12.1717
 1.4220	12.2060
 1.4210	12.1808
 1.4200	12.2436
 1.4190	12.1827
 1.4180	12.2365
 1.4170	12.1499
 1.4160	12.2554
 1.4150	12.1925
 1.4140	12.2402
 1.4130	12.1396
 1.4120	12.2494
 1.4110	12.1594
 1.4100	12.3578
 1.4090	12.2569
 1.4080	12.3416
 1.4070	12.2570
 1.4060	12.3478
 1.4050	12.2655
 1.4040	12.3012
 1.4030	12.2946
 1.4020	12.4048
 1.4010	12.1849
 1.4000	12.3413
 1.3990	12.2590
 1.3980	12.4534
 1.3970	12.3331
 1.3960	12.4440
 1.3950	12.2708
 1.3940	12.4444
 1.3930	12.2632
 1.3920	12.4208
 1.3910	12.4344
 1.3900	12.4707
 1.3890	12.4496
 1.3880	12.4764
 1.3870	12.4257
 1.3860	12.4755
 1.3850	12.4044
 1.3840	12.4478
 1.3830	12.3606
 1.3820	12.4961
 1.3810	12.4233
 1.3800	12.5180
 1.3790	12.4659
 1.3780	12.5726
 1.3770	12.5141
 1.3760	12.6045
 1.3750	12.4863
 1.3740	12.6450
 1.3730	12.4469
 1.3720	12.5874
 1.3710	12.4535
 1.3700	12.5355
 1.3690	12.4666
 1.3680	12.6276
 1.3670	12.5239
 1.3660	12.6384
 1.3650	12.5057
 1.3640	12.7266
 1.3630	12.5087
 1.3620	12.6880
 1.3610	12.4829
 1.3600	12.6186
 1.3590	12.5420
 1.3580	12.6885
 1.3570	12.5639
 1.3560	12.7918
 1.3550	12.4686
 1.3540	12.6917
 1.3530	12.5735
 1.3520	12.6966
 1.3510	12.5625
 1.3500	12.8031
 1.3490	12.5893
 1.3480	12.8034
 1.3470	12.5664
 1.3460	12.7274
 1.3450	12.5960
 1.3440	12.8121
 1.3430	12.6461
 1.3420	12.7766
 1.3410	12.6128
 1.3400	12.7612
 1.3390	12.6541
 1.3380	12.8237
 1.3370	12.6921
 1.3360	12.8013
 1.3350	12.7151
 1.3340	12.8316
 1.3330	12.6224
 1.3320	12.8395
 1.3310	12.7232
 1.3300	12.8661
 1.3290	12.7057
 1.3280	12.8960
 1.3270	12.6969
 1.3260	12.8051
 1.3250	12.6944
 1.3240	12.8347
 1.3230	12.7637
 1.3220	12.8537
 1.3210	12.6984
 1.3200	12.8453
 1.3190	12.7624
 1.3180	12.8504
 1.3170	12.7998
 1.3160	12.8100
 1.3150	12.8483
 1.3140	12.8248
 1.3130	12.8301
 1.3120	12.9007
 1.3110	12.8093
 1.3100	12.9328
 1.3090	12.7794
 1.3080	12.9095
 1.3070	12.8170
 1.3060	12.9375
 1.3050	12.8270
 1.3040	12.9373
 1.3030	12.8536
 1.3020	12.8975
 1.3010	12.9025
 1.3000	12.9128
 1.2990	12.8581
 1.2980	12.9614
 1.2970	12.9451
 1.2960	12.9719
 1.2950	12.9274
 1.2940	13.0153
 1.2930	12.8948
 1.2920	12.9604
 1.2910	12.9140
 1.2900	12.9966
 1.2890	12.9470
 1.2880	13.0072
 1.2870	12.9664
 1.2860	13.0710
 1.2850	12.9556
 1.2840	13.0548
 1.2830	12.9786
 1.2820	12.9928
 1.2810	12.9290
 1.2800	13.0279
 1.2790	13.0189
 1.2780	13.0149
 1.2770	13.0208
 1.2760	13.0156
 1.2750	12.9906
 1.2740	13.0262
 1.2730	12.9597
 1.2720	13.0141
 1.2710	13.0943
 1.2700	13.0559
 1.2690	13.0039
 1.2680	13.0760
 1.2670	13.0567
 1.2660	13.0716
 1.2650	13.0132
 1.2640	13.1023
 1.2630	13.0607
 1.2620	13.0954
 1.2610	13.0563
 1.2600	13.0772
 1.2590	13.0694
 1.2580	13.0534
 1.2570	13.0844
 1.2560	13.1205
 1.2550	13.1186
 1.2540	13.1400
 1.2530	13.0807
 1.2520	13.1379
 1.2510	13.1118
 1.2500	13.1480
 1.2490	13.0425
 1.2480	13.0804
 1.2470	13.1146
 1.2460	13.1186
 1.2450	13.1048
 1.2440	13.1448
 1.2430	13.1503
 1.2420	13.1996
 1.2410	13.1527
 1.2400	13.1705
 1.2390	13.1210
 1.2380	13.1575
 1.2370	13.1916
 1.2360	13.2142
 1.2350	13.1709
 1.2340	13.1959
 1.2330	13.1595
 1.2320	13.2000
 1.2310	13.1957
 1.2300	13.2105
 1.2290	13.1695
 1.2280	13.2456
 1.2270	13.2686
 1.2260	13.2346
 1.2250	13.2063
 1.2240	13.2438
 1.2230	13.2236
 1.2220	13.2006
 1.2210	13.2216
 1.2200	13.3051
 1.2190	13.2802
 1.2180	13.2319
 1.2170	13.2493
 1.2160	13.2188
 1.2150	13.2978
 1.2140	13.2978
 1.2130	13.2647
 1.2120	13.3283
 1.2110	13.3109
 1.2100	13.2728
 1.2090	13.3167
 1.2080	13.3154
 1.2070	13.3291
 1.2060	13.3233
 1.2050	13.3776
 1.2040	13.3322
 1.2030	13.3374
 1.2020	13.3766
 1.2010	13.3851
 1.2000	13.3905
 1.1990	13.4123
 1.1980	13.4009
 1.1970	13.3974
 1.1960	13.3661
 1.1950	13.3999
 1.1940	13.3556
 1.1930	13.3920
 1.1920	13.3574
 1.1910	13.3880
 1.1900	13.3760
 1.1890	13.3832
 1.1880	13.3104
 1.1870	13.4436
 1.1860	13.4283
 1.1850	13.3945
 1.1840	13.3706
 1.1830	13.4438
 1.1820	13.4208
 1.1810	13.4553
 1.1800	13.4271
 1.1790	13.4850
 1.1780	13.4609
 1.1770	13.4808
 1.1760	13.4255
 1.1750	13.4771
 1.1740	13.4612
 1.1730	13.4331
 1.1720	13.4423
 1.1710	13.5223
 1.1700	13.4748
 1.1690	13.5137
 1.1680	13.4797
 1.1670	13.5040
 1.1660	13.5109
 1.1650	13.5861
 1.1640	13.5191
 1.1630	13.5500
 1.1620	13.5401
 1.1610	13.5879
 1.1600	13.5472
 1.1590	13.6088
 1.1580	13.5224
 1.1570	13.5412
 1.1560	13.4822
 1.1550	13.5779
 1.1540	13.5158
 1.1530	13.5818
 1.1520	13.5291
 1.1510	13.6201
 1.1500	13.5599
 1.1490	13.5457
 1.1480	13.5629
 1.1470	13.6224
 1.1460	13.5203
 1.1450	13.5852
 1.1440	13.5909
 1.1430	13.7224
 1.1420	13.6116
 1.1410	13.6791
 1.1400	13.5455
 1.1390	13.6432
 1.1380	13.6585
 1.1370	13.7213
 1.1360	13.6850
 1.1350	13.6962
 1.1340	13.6070
 1.1330	13.7168
 1.1320	13.6487
 1.1310	13.7160
 1.1300	13.6593
 1.1290	13.6611
 1.1280	13.6549
 1.1270	13.8188
 1.1260	13.6800
 1.1250	13.7270
 1.1240	13.6081
 1.1230	13.6873
 1.1220	13.6721
 1.1210	13.7391
 1.1200	13.7058
 1.1190	13.7572
 1.1180	13.7482
 1.1170	13.8018
 1.1160	13.7044
 1.1150	13.7704
 1.1140	13.7062
 1.1130	13.8067
 1.1120	13.7167
 1.1110	13.7942
 1.1100	13.7780
 1.1090	13.8131
 1.1080	13.7920
 1.1070	13.8802
 1.1060	13.6794
 1.1050	13.8346
 1.1040	13.6869
 1.1030	13.9472
 1.1020	13.7258
 1.1010	13.9115
 1.1000	13.8075
 1.0990	13.8246
 1.0980	13.7859
 1.0970	13.8370
 1.0960	13.8098
 1.0950	13.8588
 1.0940	13.7647
 1.0930	13.8514
 1.0920	13.8239
 1.0910	13.9318
 1.0900	13.7899
 1.0890	13.9843
 1.0880	13.9155
 1.0870	14.0020
 1.0860	13.8398
 1.0850	13.9267
 1.0840	13.7776
 1.0830	13.8978
 1.0820	13.8628
 1.0810	13.9693
 1.0800	13.8136
 1.0790	14.0457
 1.0780	13.9560
 1.0770	14.0035
 1.0760	13.7552
 1.0750	13.9359
 1.0740	13.8656
 1.0730	14.0416
 1.0720	13.8522
 1.0710	14.1576
 1.0700	13.7448
 1.0690	14.1169
 1.0680	13.8710
 1.0670	14.0520
 1.0660	13.8928
 1.0650	14.0305
 1.0640	13.8809
 1.0630	14.0659
 1.0620	13.9356
 1.0610	14.0583
 1.0600	13.8771
 1.0590	13.9579
 1.0580	13.9141
 1.0570	13.9922
 1.0560	13.9711
 1.0550	14.0421
 1.0540	13.9362
 1.0530	14.0112
 1.0520	13.9453
 1.0510	14.0027
 1.0500	13.9387
 1.0490	14.0214
 1.0480	14.0243
 1.0470	14.0366
 1.0460	14.0284
 1.0450	14.1283
 1.0440	13.9154
 1.0430	14.1039
 1.0420	13.9868
 1.0410	14.0966
 1.0400	14.0748
 1.0390	14.0751
 1.0380	13.9972
 1.0370	14.0339
 1.0360	13.9309
 1.0350	14.0594
 1.0340	13.9890
 1.0330	14.0769
 1.0320	13.9757
 1.0310	14.0530
 1.0300	13.9991
 1.0290	14.0119
 1.0280	13.9326
 1.0270	14.0657
 1.0260	13.9957
 1.0250	14.1316
 1.0240	14.0333
 1.0230	14.0623
 1.0220	14.0198
 1.0210	14.1285
 1.0200	13.9406
 1.0190	14.0192
 1.0180	14.0132
 1.0170	14.0004
 1.0160	13.9937
 1.0150	14.0402
 1.0140	13.9944
 1.0130	14.0853
 1.0120	13.9484
 1.0110	14.0455
 1.0100	13.9837
 1.0090	14.0454
 1.0080	13.9727
 1.0070	14.0792
 1.0060	13.9542
 1.0050	14.0717
 1.0040	13.9830
 1.0030	13.9867
 1.0020	13.9246
 1.0010	13.9295
 1.0000	13.9807
 0.9990	14.0539
 0.9980	13.9190
 0.9970	13.9803
 0.9960	13.9551
 0.9950	14.0112
 0.9940	13.8911
 0.9930	13.9847
 0.9920	13.8858
 0.9910	14.0003
 0.9900	13.8941
 0.9890	13.9681
 0.9880	13.8776
 0.9870	13.8864
 0.9860	13.8869
 0.9850	13.8911
 0.9840	13.8619
 0.9830	13.8624
 0.9820	13.7795
 0.9810	13.8676
 0.9800	13.8023
 0.9790	13.9087
 0.9780	13.7999
 0.9770	13.8262
 0.9760	13.7404
 0.9750	13.8328
 0.9740	13.7879
 0.9730	13.8132
 0.9720	13.8098
 0.9710	13.7939
 0.9700	13.7041
 0.9690	13.7782
 0.9680	13.7220
 0.9670	13.8055
 0.9660	13.7135
 0.9650	13.6994
 0.9640	13.7063
 0.9630	13.7116
 0.9620	13.6375
 0.9610	13.6155
 0.9600	13.6202
 0.9590	13.7176
 0.9580	13.6314
 0.9570	13.6028
 0.9560	13.5436
 0.9550	13.5426
 0.9540	13.5891
 0.9530	13.6150
 0.9520	13.5491
 0.9510	13.5445
 0.9500	13.5030
 0.9490	13.5120
 0.9480	13.5547
 0.9470	13.5477
 0.9460	13.4608
 0.9450	13.4725
 0.9440	13.4154
 0.9430	13.3909
 0.9420	13.3811
 0.9410	13.3417
 0.9400	13.3541
 0.9390	13.3851
 0.9380	13.3313
 0.9370	13.3557
 0.9360	13.3662
 0.9350	13.2683
 0.9340	13.2600
 0.9330	13.2943
 0.9320	13.2710
 0.9310	13.2352
 0.9300	13.2791
 0.9290	13.2302
 0.9280	13.1686
 0.9270	13.2064
 0.9260	13.1357
 0.9250	13.1779
 0.9240	13.1350
 0.9230	13.0597
 0.9220	13.0711
 0.9210	13.0765
 0.9200	13.1206
 0.9190	13.0791
 0.9180	13.1223
 0.9170	13.1011
 0.9160	13.0255
 0.9150	12.9421
 0.9140	13.0460
 0.9130	13.0413
 0.9120	13.0238
 0.9110	13.0239
 0.9100	12.9770
 0.9090	12.9310
 0.9080	13.0313
 0.9070	12.9855
 0.9060	12.9647
 0.9050	12.9030
 0.9040	12.9028
 0.9030	12.8468
 0.9020	12.8967
 0.9010	12.8717
 0.9000	12.8723
 0.8990	12.8723
 0.8980	12.9492
 0.8970	12.8218
 0.8960	12.8193
 0.8950	12.8185
 0.8940	12.8538
 0.8930	12.7423
 0.8920	12.7967
 0.8910	12.8182
 0.8900	12.7635
 0.8890	12.7133
 0.8880	12.7727
 0.8870	12.7716
 0.8860	12.8020
 0.8850	12.7614
 0.8840	12.7801
 0.8830	12.6712
 0.8820	12.7193
 0.8810	12.7017
 0.8800	12.6942
 0.8790	12.6961
 0.8780	12.7318
 0.8770	12.7258
 0.8760	12.7312
 0.8750	12.6818
 0.8740	12.7358
 0.8730	12.7086
 0.8720	12.7066
 0.8710	12.6783
 0.8700	12.7031
 0.8690	12.6453
 0.8680	12.6605
 0.8670	12.6147
 0.8660	12.7277
 0.8650	12.6186
 0.8640	12.6997
 0.8630	12.5915
 0.8620	12.6735
 0.8610	12.5905
 0.8600	12.7701
 0.8590	12.8398
 0.8580	12.8390
 0.8570	12.8342
 0.8560	12.8408
 0.8550	12.8414
 0.8540	12.8441
 0.8530	12.8334
 0.8520	12.8389
 0.8510	12.8558
 0.8500	12.8428
 0.8490	12.8403
 0.8480	12.8432
 0.8470	12.8299
 0.8460	12.8379
 0.8450	12.8388
 0.8440	12.8449
 0.8430	12.8503
 0.8420	12.8354
 0.8410	12.8302
 0.8400	12.8318
 0.8390	12.8404
 0.8380	12.8437
 0.8370	12.8512
 0.8360	12.8527
 0.8350	12.8450
 0.8340	12.8519
 0.8330	12.8522
 0.8320	12.8601
 0.8310	12.8452
 0.8300	12.8445
 0.8290	12.8559
 0.8280	12.8521
 0.8270	12.8577
 0.8260	12.8656
 0.8250	12.8445
 0.8240	12.8493
 0.8230	12.8519
 0.8220	12.8488
 0.8210	12.8588
 0.8200	12.8551
 0.8190	12.8627
 0.8180	12.8556
 0.8170	12.8622
 0.8160	12.8516
 0.8150	12.8650
 0.8140	12.8585
 0.8130	12.8742
 0.8120	12.8589
 0.8110	12.8561
 0.8100	12.8516
 0.8090	12.8533
 0.8080	12.8525
 0.8070	12.8600
 0.8060	12.8576
 0.8050	12.8538
 0.8040	12.8481
 0.8030	12.8552
 0.8020	12.8528
 0.8010	12.8443
 0.8000	12.8375
 0.7990	12.8408
 0.7980	12.8452
 0.7970	12.8315
 0.7960	12.8233
 0.7950	12.8178
 0.7940	12.8043
 0.7930	12.8155
 0.7920	12.8153
 0.7910	12.8075
 0.7900	12.8124
 0.7890	12.7958
 0.7880	12.7935
 0.7870	12.7897
 0.7860	12.7774
 0.7850	12.7760
 0.7840	12.7759
 0.7830	12.7608
 0.7820	12.7653
 0.7810	12.7571
 0.7800	12.7455
 0.7790	12.7441
 0.7780	12.7346
 0.7770	12.7143
 0.7760	12.7134
 0.7750	12.7070
 0.7740	12.7094
 0.7730	12.6988
 0.7720	12.6821
 0.7710	12.6784
 0.7700	12.6734
 0.7690	12.6628
 0.7680	12.6475
 0.7670	12.6401
 0.7660	12.6375
 0.7650	12.6205
 0.7640	12.6108
 0.7630	12.5984
 0.7620	12.6023
 0.7610	12.5781
 0.7600	12.5715
 0.7590	12.5624
 0.7580	12.5605
 0.7570	12.5428
 0.7560	12.5341
 0.7550	12.5148
 0.7540	12.5034
 0.7530	12.4984
 0.7520	12.4808
 0.7510	12.4692
 0.7500	12.4555
 0.7490	12.4485
 0.7480	12.4282
 0.7470	12.4210
 0.7460	12.4010
 0.7450	12.3942
 0.7440	12.3746
 0.7430	12.3653
 0.7420	12.3541
 0.7410	12.3379
 0.7400	12.3199
 0.7390	12.2998
 0.7380	12.2933
 0.7370	12.2703
 0.7360	12.2618
 0.7350	12.2495
 0.7340	12.2293
 0.7330	12.2174
 0.7320	12.1964
 0.7310	12.1794
 0.7300	12.1643
 0.7290	12.1503
 0.7280	12.1312
 0.7270	12.1161
 0.7260	12.0979
 0.7250	12.0877
 0.7240	12.0710
 0.7230	12.0516
 0.7220	12.0282
 0.7210	12.0143
 0.7200	11.9974
 0.7190	11.9794
 0.7180	11.9629
 0.7170	11.9379
 0.7160	11.9200
 0.7150	11.9049
 0.7140	11.8886
 0.7130	11.8686
 0.7120	11.8534
 0.7110	11.8334
 0.7100	11.8133
 0.7090	11.7939
 0.7080	11.7745
 0.7070	11.7539
 0.7060	11.7392
 0.7050	11.7194
 0.7040	11.6964
 0.7030	11.6754
 0.7020	11.6545
 0.7010	11.6344
 0.7000	11.6128
 0.6990	11.5959
 0.6980	11.5755
 0.6970	11.5535
 0.6960	11.5326
 0.6950	11.5102
 0.6940	11.4867
 0.6930	11.4658
 0.6920	11.4510
 0.6910	11.4288
 0.6900	11.4026
 0.6890	11.3817
 0.6880	11.3626
 0.6870	11.3369
 0.6860	11.3198
 0.6850	11.3005
 0.6840	11.2776
 0.6830	11.2561
 0.6820	11.2335
 0.6810	11.2096
 0.6800	11.1864
 0.6790	11.1613
 0.6780	11.1394
 0.6770	11.1150
 0.6760	11.0910
 0.6750	11.0657
 0.6740	11.0449
 0.6730	11.0224
 0.6720	10.9955
 0.6710	10.9718
 0.6700	10.9466
 0.6690	10.9243
 0.6680	10.9019
 0.6670	10.8750
 0.6660	10.8487
 0.6650	10.8258
 0.6640	10.8015
 0.6630	10.7750
 0.6620	10.7504
 0.6610	10.7271
 0.6600	10.7006
 0.6590	10.6729
 0.6580	10.6498
 0.6570	10.6231
 0.6560	10.5996
 0.6550	10.5728
 0.6540	10.5442
 0.6530	10.5189
 0.6520	10.4910
 0.6510	10.4660
 0.6500	10.4427
 0.6490	10.4117
 0.6480	10.3824
 0.6470	10.3576
 0.6460	10.3314
 0.6450	10.3041
 0.6440	10.2739
 0.6430	10.2482
 0.6420	10.2240
 0.6410	10.1951
 0.6400	10.1676
 0.6390	10.1385
 0.6380	10.1094
 0.6370	10.0834
 0.6360	10.0540
 0.6350	10.0262
 0.6340	 9.9964
 0.6330	 9.9629
 0.6320	 9.9356
 0.6310	 9.9086
 0.6300	 9.8786
 0.6290	 9.8495
 0.6280	 9.8186
 0.6270	 9.7893
 0.6260	 9.7619
 0.6250	 9.7307
 0.6240	 9.7032
 0.6230	 9.6732
 0.6220	 9.6422
 0.6210	 9.6103
 0.6200	 9.5784
 0.6190	 9.5483
 0.6180	 9.5172
 0.6170	 9.4890
 0.6160	 9.4580
 0.6150	 9.4246
 0.6140	 9.3950
 0.6130	 9.3659
 0.6120	 9.3334
 0.6110	 9.3029
 0.6100	 9.2736
 0.6090	 9.2450
 0.6080	 9.2142
 0.6070	 9.1821
 0.6060	 9.1506
 0.6050	 9.1201
 0.6040	 9.0887
 0.6030	 9.0566
 0.6020	 9.0241
 0.6010	 8.9966
 0.6000	 8.9662
 0.5990	 8.9365
 0.5980	 8.9080
 0.5970	 8.8815
 0.5960	 8.8508
 0.5950	 8.8241
 0.5940	 8.7951
 0.5930	 8.7649
 0.5920	 8.7352
 0.5910	 8.7034
 0.5900	 8.6734
 0.5890	 8.6469
 0.5880	 8.6268
 0.5870	 8.6034
 0.5860	 8.5733
 0.5850	 8.5440
 0.5840	 8.5169
 0.5830	 8.4874
 0.5820	 8.4598
 0.5810	 8.4290
 0.5800	 8.4023
 0.5790	 8.3740
 0.5780	 8.3466
 0.5770	 8.3180
 0.5760	 8.2894
 0.5750	 8.2617
 0.5740	 8.2350
 0.5730	 8.2087
 0.5720	 8.1780
 0.5710	 8.1513
 0.5700	 8.1246
 0.5690	 8.0977
 0.5680	 8.0724
 0.5670	 8.0466
 0.5660	 8.0189
 0.5650	 7.9945
 0.5640	 7.9689
 0.5630	 7.9436
 0.5620	 7.9195
 0.5610	 7.8919
 0.5600	 7.8654
 0.5590	 7.8388
 0.5580	 7.8144
 0.5570	 7.7935
 0.5560	 7.7681
 0.5550	 7.7438
 0.5540	 7.7194
 0.5530	 7.6955
 0.5520	 7.6688
 0.5510	 7.6495
 0.5500	 7.6254
 0.5490	 7.6008
 0.5480	 7.5792
 0.5470	 7.5583
 0.5460	 7.5348
 0.5450	 7.5131
 0.5440	 7.4892
 0.5430	 7.4678
 0.5420	 7.4469
 0.5410	 7.4252
 0.5400	 7.4035
 0.5390	 7.3819
 0.5380	 7.3625
 0.5370	 7.3413
 0.5360	 7.3212
 0.5350	 7.2988
 0.5340	 7.2777
 0.5330	 7.2581
 0.5320	 7.2381
 0.5310	 7.2188
 0.5300	 7.1996
 0.5290	 7.1795
 0.5280	 7.1596
 0.5270	 7.1414
 0.5260	 7.1223
 0.5250	 7.1037
 0.5240	 7.0829
 0.5230	 7.0664
 0.5220	 7.0487
 0.5210	 7.0279
 0.5200	 7.0122
 0.5190	 6.9931
 0.5180	 6.9746
 0.5170	 6.9551
 0.5160	 6.9401
 0.5150	 6.9230
 0.5140	 6.9063
 0.5130	 6.8842
 0.5120	 6.8717
 0.5110	 6.8540
 0.5100	 6.8396
 0.5090	 6.8220
 0.5080	 6.8021
 0.5070	 6.7871
 0.5060	 6.7714
 0.5050	 6.7578
 0.5040	 6.7409
 0.5030	 6.7262
 0.5020	 6.7086
 0.5010	 6.6907
 0.5000	 6.6749
 0.4990	 6.6588
 0.4980	 6.6436
 0.4970	 6.6311
 0.4960	 6.6147
 0.4950	 6.5988
 0.4940	 6.5849
 0.4930	 6.5697
 0.4920	 6.5532
 0.4910	 6.5364
 0.4900	 6.5260
 0.4890	 6.5105
 0.4880	 6.4915
 0.4870	 6.4768
 0.4860	 6.4637
 0.4850	 6.4463
 0.4840	 6.4324
 0.4830	 6.4135
 0.4820	 6.4004
 0.4810	 6.3872
 0.4800	 6.3743
 0.4790	 6.3637
 0.4780	 6.3468
 0.4770	 6.3360
 0.4760	 6.3211
 0.4750	 6.3079
 0.4740	 6.2958
 0.4730	 6.2814
 0.4720	 6.2702
 0.4710	 6.2568
 0.4700	 6.2452
 0.4690	 6.2319
 0.4680	 6.2203
 0.4670	 6.2080
 0.4660	 6.1967
 0.4650	 6.1817
 0.4640	 6.1697
 0.4630	 6.1582
 0.4620	 6.1474
 0.4610	 6.1384
 0.4600	 6.1249
 0.4590	 6.1132
 0.4580	 6.0992
 0.4570	 6.0919
 0.4560	 6.0749
 0.4550	 6.0554
 0.4540	 6.0491
 0.4530	 6.0378
 0.4520	 6.0273
 0.4510	 6.0180
 0.4500	 6.0047
 0.4490	 5.9983
 0.4480	 5.9896
 0.4470	 5.9769
 0.4460	 5.9692
 0.4450	 5.9576
 0.4440	 5.9488
 0.4430	 5.9399
 0.4420	 5.9255
 0.4410	 5.9164
 0.4400	 5.9082
 0.4390	 5.8982
 0.4380	 5.8905
 0.4370	 5.8806
 0.4360	 5.8735
 0.4350	 5.8683
 0.4340	 5.8572
 0.4330	 5.8480
 0.4320	 5.8428
 0.4310	 5.8333
 0.4300	 5.8295
 0.4290	 5.8265
 0.4280	 5.8191
 0.4270	 5.8146
 0.4260	 5.8058
 0.4250	 5.7954
 0.4240	 5.7882
 0.4230	 5.7878
 0.4220	 5.7827
 0.4210	 5.7799
 0.4200	 5.7721
 0.4190	 5.7702
 0.4180	 5.7664
 0.4170	 5.7598
 0.4160	 5.7577
 0.4150	 5.7532
 0.4140	 5.7492
 0.4130	 5.7463
 0.4120	 5.7422
 0.4110	 5.7409
 0.4100	 5.7368
 0.4090	 5.7360
 0.4080	 5.7320
 0.4070	 5.7312
 0.4060	 5.7245
 0.4050	 5.7250
 0.4040	 5.7236
 0.4030	 5.7249
 0.4020	 5.7228
 0.4010	 5.7239
 0.4000	 5.7235
