Name: Zircon ZrSiO_4
Type: Mineral
Class: Silicate
Subclass: Nesosilicate
Particle Size: Coarse
Sample No.: NS-9A
Owner: JPL
Wavelength Range: VSWIR
Origin: Malawi, Southern Malawi, Blantyre-Limbe District.
Collection Date: N/A
Description: Particle size was 125-500um.Collected by:  Burminco Original ASTER Spectral Library name was jpl.perkin.mineral.silicate.nesosilicate.coarse.ns09a.spectrum.txt
Measurement: Hemispherical reflectance
First Column: X
Second Column: Y
X Units: Wavelength (micrometers)
Y Units:Reflectance (percent)
First X Value:  2.5000
Last X Value:  0.4000
Number of X Values: 2101
Additional Information: mineral.silicate.nesosilicate.coarse.vswir.ns-9a.jpl.perkin.ancillary.txt

 2.5000	56.7039
 2.4990	56.8765
 2.4980	56.8647
 2.4970	57.1121
 2.4960	56.8254
 2.4950	56.9632
 2.4940	56.9790
 2.4930	56.9827
 2.4920	56.8502
 2.4910	57.2884
 2.4900	57.1253
 2.4890	57.3480
 2.4880	57.2866
 2.4870	57.2871
 2.4860	57.4357
 2.4850	57.6101
 2.4840	57.5532
 2.4830	57.6041
 2.4820	57.6270
 2.4810	57.6951
 2.4800	57.7167
 2.4790	57.8230
 2.4780	57.6001
 2.4770	57.8006
 2.4760	57.8240
 2.4750	58.0399
 2.4740	57.8919
 2.4730	58.1316
 2.4720	58.0607
 2.4710	58.1137
 2.4700	58.1062
 2.4690	58.2033
 2.4680	58.1948
 2.4670	58.2675
 2.4660	58.3315
 2.4650	58.4040
 2.4640	58.3998
 2.4630	58.4014
 2.4620	58.4269
 2.4610	58.4097
 2.4600	58.4508
 2.4590	58.5771
 2.4580	58.6303
 2.4570	58.6170
 2.4560	58.5968
 2.4550	58.8174
 2.4540	58.7953
 2.4530	58.8060
 2.4520	58.7413
 2.4510	58.8205
 2.4500	58.8503
 2.4490	58.9224
 2.4480	58.8979
 2.4470	59.0557
 2.4460	58.9775
 2.4450	59.1513
 2.4440	59.0667
 2.4430	59.1096
 2.4420	59.2028
 2.4410	59.3128
 2.4400	59.2282
 2.4390	59.2521
 2.4380	59.2339
 2.4370	59.2474
 2.4360	59.2356
 2.4350	59.3706
 2.4340	59.3921
 2.4330	59.4495
 2.4320	59.4371
 2.4310	59.5029
 2.4300	59.4814
 2.4290	59.4549
 2.4280	59.5158
 2.4270	59.6398
 2.4260	59.5790
 2.4250	59.5875
 2.4240	59.6248
 2.4230	59.6393
 2.4220	59.6581
 2.4210	59.6678
 2.4200	59.6351
 2.4190	59.6081
 2.4180	59.6875
 2.4170	59.7520
 2.4160	59.6835
 2.4150	59.7857
 2.4140	59.7054
 2.4130	59.7056
 2.4120	59.8162
 2.4110	59.7949
 2.4100	59.7104
 2.4090	59.7557
 2.4080	59.7928
 2.4070	59.8084
 2.4060	59.7621
 2.4050	59.7691
 2.4040	59.7650
 2.4030	59.7362
 2.4020	59.7736
 2.4010	59.7524
 2.4000	59.7292
 2.3990	59.6898
 2.3980	59.7001
 2.3970	59.7209
 2.3960	59.6977
 2.3950	59.6607
 2.3940	59.6265
 2.3930	59.6641
 2.3920	59.6516
 2.3910	59.6850
 2.3900	59.7058
 2.3890	59.6737
 2.3880	59.6127
 2.3870	59.6968
 2.3860	59.6747
 2.3850	59.7113
 2.3840	59.7086
 2.3830	59.7596
 2.3820	59.7672
 2.3810	59.7132
 2.3800	59.6719
 2.3790	59.7544
 2.3780	59.7872
 2.3770	59.8174
 2.3760	59.7988
 2.3750	59.7674
 2.3740	59.8097
 2.3730	59.8439
 2.3720	59.8339
 2.3710	59.8447
 2.3700	59.8725
 2.3690	59.8611
 2.3680	59.8660
 2.3670	59.9172
 2.3660	59.9388
 2.3650	59.9626
 2.3640	60.0278
 2.3630	60.0516
 2.3620	60.0621
 2.3610	60.0682
 2.3600	60.0484
 2.3590	60.0373
 2.3580	60.0611
 2.3570	60.1022
 2.3560	60.1262
 2.3550	60.1187
 2.3540	60.1444
 2.3530	60.1533
 2.3520	60.1932
 2.3510	60.2566
 2.3500	60.2661
 2.3490	60.2445
 2.3480	60.2682
 2.3470	60.3147
 2.3460	60.3355
 2.3450	60.3306
 2.3440	60.3432
 2.3430	60.3631
 2.3420	60.3958
 2.3410	60.4470
 2.3400	60.4754
 2.3390	60.4413
 2.3380	60.4527
 2.3370	60.4847
 2.3360	60.4837
 2.3350	60.4968
 2.3340	60.5138
 2.3330	60.4561
 2.3320	60.4537
 2.3310	60.4720
 2.3300	60.5069
 2.3290	60.5383
 2.3280	60.5356
 2.3270	60.5243
 2.3260	60.5196
 2.3250	60.5154
 2.3240	60.4853
 2.3230	60.4698
 2.3220	60.5046
 2.3210	60.4672
 2.3200	60.4752
 2.3190	60.4748
 2.3180	60.4942
 2.3170	60.5200
 2.3160	60.4796
 2.3150	60.4679
 2.3140	60.5126
 2.3130	60.4883
 2.3120	60.5292
 2.3110	60.4602
 2.3100	60.4756
 2.3090	60.5352
 2.3080	60.5431
 2.3070	60.5135
 2.3060	60.5084
 2.3050	60.4808
 2.3040	60.5038
 2.3030	60.4470
 2.3020	60.4452
 2.3010	60.4898
 2.3000	60.4783
 2.2990	60.4398
 2.2980	60.4824
 2.2970	60.4652
 2.2960	60.4242
 2.2950	60.3947
 2.2940	60.4279
 2.2930	60.4295
 2.2920	60.4404
 2.2910	60.3797
 2.2900	60.3830
 2.2890	60.3723
 2.2880	60.4200
 2.2870	60.3697
 2.2860	60.3709
 2.2850	60.3707
 2.2840	60.4040
 2.2830	60.3696
 2.2820	60.3292
 2.2810	60.3211
 2.2800	60.3532
 2.2790	60.2993
 2.2780	60.3286
 2.2770	60.3264
 2.2760	60.3353
 2.2750	60.3145
 2.2740	60.2967
 2.2730	60.2681
 2.2720	60.2831
 2.2710	60.2158
 2.2700	60.2167
 2.2690	60.1954
 2.2680	60.2108
 2.2670	60.1447
 2.2660	60.1147
 2.2650	60.1002
 2.2640	60.0942
 2.2630	60.1708
 2.2620	60.1879
 2.2610	60.1120
 2.2600	60.0698
 2.2590	60.0864
 2.2580	60.0574
 2.2570	59.9516
 2.2560	60.0558
 2.2550	60.0752
 2.2540	59.9860
 2.2530	60.0099
 2.2520	60.0144
 2.2510	59.9758
 2.2500	60.0578
 2.2490	59.9792
 2.2480	59.9517
 2.2470	60.0355
 2.2460	60.0463
 2.2450	59.9797
 2.2440	60.0882
 2.2430	60.0081
 2.2420	60.0340
 2.2410	60.0657
 2.2400	60.0936
 2.2390	60.0745
 2.2380	60.1089
 2.2370	60.1235
 2.2360	60.1669
 2.2350	60.0816
 2.2340	60.2656
 2.2330	60.2163
 2.2320	60.3365
 2.2310	60.2789
 2.2300	60.3213
 2.2290	60.2569
 2.2280	60.3805
 2.2270	60.3359
 2.2260	60.3782
 2.2250	60.3512
 2.2240	60.3942
 2.2230	60.3863
 2.2220	60.4551
 2.2210	60.3680
 2.2200	60.3738
 2.2190	60.3693
 2.2180	60.3308
 2.2170	60.2776
 2.2160	60.2085
 2.2150	60.1585
 2.2140	60.1331
 2.2130	60.1145
 2.2120	60.1278
 2.2110	59.9705
 2.2100	59.9774
 2.2090	59.9746
 2.2080	60.0150
 2.2070	59.9301
 2.2060	60.0006
 2.2050	59.9877
 2.2040	60.0243
 2.2030	59.9544
 2.2020	60.0524
 2.2010	60.0403
 2.2000	60.2215
 2.1990	60.1215
 2.1980	60.2492
 2.1970	60.1574
 2.1960	60.2333
 2.1950	60.2316
 2.1940	60.2245
 2.1930	60.1933
 2.1920	60.2810
 2.1910	60.1932
 2.1900	60.3181
 2.1890	60.2325
 2.1880	60.2424
 2.1870	60.2336
 2.1860	60.3603
 2.1850	60.2693
 2.1840	60.3343
 2.1830	60.3295
 2.1820	60.3711
 2.1810	60.3225
 2.1800	60.4590
 2.1790	60.4273
 2.1780	60.3353
 2.1770	60.4509
 2.1760	60.4924
 2.1750	60.4368
 2.1740	60.4984
 2.1730	60.4852
 2.1720	60.5428
 2.1710	60.4772
 2.1700	60.5710
 2.1690	60.5233
 2.1680	60.5127
 2.1670	60.5030
 2.1660	60.5313
 2.1650	60.5395
 2.1640	60.5810
 2.1630	60.6092
 2.1620	60.6002
 2.1610	60.7008
 2.1600	60.7176
 2.1590	60.7139
 2.1580	60.7337
 2.1570	60.7313
 2.1560	60.7671
 2.1550	60.7789
 2.1540	60.7929
 2.1530	60.7933
 2.1520	60.8318
 2.1510	60.8527
 2.1500	60.8110
 2.1490	60.8660
 2.1480	60.8566
 2.1470	60.8365
 2.1460	60.9103
 2.1450	60.9167
 2.1440	60.8228
 2.1430	60.8561
 2.1420	60.8232
 2.1410	60.8134
 2.1400	60.8515
 2.1390	60.8395
 2.1380	60.8329
 2.1370	60.7550
 2.1360	60.7704
 2.1350	60.7449
 2.1340	60.7202
 2.1330	60.6224
 2.1320	60.5989
 2.1310	60.5207
 2.1300	60.4916
 2.1290	60.3976
 2.1280	60.4534
 2.1270	60.3820
 2.1260	60.3116
 2.1250	60.2739
 2.1240	60.2624
 2.1230	60.1489
 2.1220	60.0297
 2.1210	59.9371
 2.1200	59.9131
 2.1190	59.8265
 2.1180	59.7860
 2.1170	59.6561
 2.1160	59.6408
 2.1150	59.5258
 2.1140	59.4186
 2.1130	59.3585
 2.1120	59.2882
 2.1110	59.1841
 2.1100	59.0986
 2.1090	58.9613
 2.1080	58.8257
 2.1070	58.7446
 2.1060	58.6815
 2.1050	58.5584
 2.1040	58.4787
 2.1030	58.3480
 2.1020	58.2196
 2.1010	58.0911
 2.1000	57.9975
 2.0990	57.8733
 2.0980	57.7722
 2.0970	57.7031
 2.0960	57.6210
 2.0950	57.5240
 2.0940	57.4707
 2.0930	57.3615
 2.0920	57.2110
 2.0910	57.0963
 2.0900	57.0295
 2.0890	56.9233
 2.0880	56.8635
 2.0870	56.7370
 2.0860	56.6019
 2.0850	56.5606
 2.0840	56.5061
 2.0830	56.4287
 2.0820	56.3509
 2.0810	56.2323
 2.0800	56.1710
 2.0790	56.1065
 2.0780	56.0413
 2.0770	55.9983
 2.0760	55.9145
 2.0750	55.8892
 2.0740	55.9079
 2.0730	55.8698
 2.0720	55.8739
 2.0710	55.9129
 2.0700	55.9542
 2.0690	55.9787
 2.0680	56.0278
 2.0670	56.1637
 2.0660	56.1718
 2.0650	56.2143
 2.0640	56.3204
 2.0630	56.3945
 2.0620	56.5954
 2.0610	56.7339
 2.0600	56.7708
 2.0590	56.8901
 2.0580	56.9992
 2.0570	57.1825
 2.0560	57.3146
 2.0550	57.4602
 2.0540	57.6167
 2.0530	57.7374
 2.0520	57.8412
 2.0510	58.0231
 2.0500	58.1196
 2.0490	58.2060
 2.0480	58.3664
 2.0470	58.5138
 2.0460	58.6861
 2.0450	58.7861
 2.0440	58.9231
 2.0430	59.0277
 2.0420	59.0595
 2.0410	59.2364
 2.0400	59.3115
 2.0390	59.3990
 2.0380	59.4621
 2.0370	59.5538
 2.0360	59.6719
 2.0350	59.7634
 2.0340	59.8056
 2.0330	59.9008
 2.0320	59.9688
 2.0310	60.0582
 2.0300	60.0930
 2.0290	60.1551
 2.0280	60.2248
 2.0270	60.3152
 2.0260	60.3603
 2.0250	60.4672
 2.0240	60.5096
 2.0230	60.5196
 2.0220	60.5958
 2.0210	60.6771
 2.0200	60.6892
 2.0190	60.7919
 2.0180	60.8118
 2.0170	60.7718
 2.0160	60.8521
 2.0150	60.9404
 2.0140	60.9623
 2.0130	60.9874
 2.0120	61.0042
 2.0110	61.0624
 2.0100	61.1117
 2.0090	61.1482
 2.0080	61.1853
 2.0070	61.3021
 2.0060	61.3030
 2.0050	61.3058
 2.0040	61.3387
 2.0030	61.3564
 2.0020	61.4131
 2.0010	61.4856
 2.0000	61.3646
 1.9990	61.4482
 1.9980	61.4508
 1.9970	61.5597
 1.9960	61.5308
 1.9950	61.5509
 1.9940	61.5259
 1.9930	61.5334
 1.9920	61.5660
 1.9910	61.6076
 1.9900	61.5530
 1.9890	61.6215
 1.9880	61.5360
 1.9870	61.5824
 1.9860	61.6016
 1.9850	61.5953
 1.9840	61.5710
 1.9830	61.5963
 1.9820	61.6407
 1.9810	61.7031
 1.9800	61.6515
 1.9790	61.7261
 1.9780	61.6599
 1.9770	61.6902
 1.9760	61.5922
 1.9750	61.7146
 1.9740	61.6145
 1.9730	61.6794
 1.9720	61.6819
 1.9710	61.7028
 1.9700	61.6851
 1.9690	61.6543
 1.9680	61.6693
 1.9670	61.6807
 1.9660	61.6739
 1.9650	61.7380
 1.9640	61.7204
 1.9630	61.6669
 1.9620	61.6156
 1.9610	61.7116
 1.9600	61.7107
 1.9590	61.7656
 1.9580	61.6943
 1.9570	61.7198
 1.9560	61.6937
 1.9550	61.6883
 1.9540	61.7119
 1.9530	61.6914
 1.9520	61.6586
 1.9510	61.7662
 1.9500	61.6766
 1.9490	61.6777
 1.9480	61.7076
 1.9470	61.7428
 1.9460	61.7373
 1.9450	61.7625
 1.9440	61.7726
 1.9430	61.7524
 1.9420	61.7053
 1.9410	61.8089
 1.9400	61.6878
 1.9390	61.7989
 1.9380	61.8263
 1.9370	61.8145
 1.9360	61.7256
 1.9350	61.7883
 1.9340	61.8345
 1.9330	61.8348
 1.9320	61.8659
 1.9310	61.8636
 1.9300	61.8803
 1.9290	61.8759
 1.9280	61.9222
 1.9270	62.0067
 1.9260	61.8797
 1.9250	61.9521
 1.9240	61.9390
 1.9230	62.0465
 1.9220	62.0205
 1.9210	62.1794
 1.9200	62.0769
 1.9190	62.1833
 1.9180	62.1082
 1.9170	62.2044
 1.9160	62.2684
 1.9150	62.2638
 1.9140	62.2552
 1.9130	62.3580
 1.9120	62.4274
 1.9110	62.4936
 1.9100	62.4408
 1.9090	62.5317
 1.9080	62.5114
 1.9070	62.6209
 1.9060	62.6506
 1.9050	62.7606
 1.9040	62.7428
 1.9030	62.8392
 1.9020	62.9313
 1.9010	62.9352
 1.9000	63.0194
 1.8990	63.0802
 1.8980	63.1481
 1.8970	63.2361
 1.8960	63.2873
 1.8950	63.2864
 1.8940	63.3161
 1.8930	63.4310
 1.8920	63.4457
 1.8910	63.5698
 1.8900	63.5506
 1.8890	63.6261
 1.8880	63.5840
 1.8870	63.6059
 1.8860	63.7229
 1.8850	63.8157
 1.8840	63.7720
 1.8830	63.7888
 1.8820	63.8602
 1.8810	63.8699
 1.8800	63.9191
 1.8790	63.9909
 1.8780	63.9731
 1.8770	63.9896
 1.8760	63.9950
 1.8750	64.0750
 1.8740	64.0071
 1.8730	64.0544
 1.8720	64.0666
 1.8710	64.1251
 1.8700	64.1482
 1.8690	64.2300
 1.8680	64.1511
 1.8670	64.1321
 1.8660	64.1639
 1.8650	64.2756
 1.8640	64.2255
 1.8630	64.2646
 1.8620	64.1913
 1.8610	64.2709
 1.8600	64.2963
 1.8590	64.1975
 1.8580	64.2126
 1.8570	64.2322
 1.8560	64.2750
 1.8550	64.3138
 1.8540	64.2624
 1.8530	64.3774
 1.8520	64.3226
 1.8510	64.2732
 1.8500	64.2760
 1.8490	64.3437
 1.8480	64.2605
 1.8470	64.3367
 1.8460	64.2813
 1.8450	64.3056
 1.8440	64.3082
 1.8430	64.3527
 1.8420	64.2876
 1.8410	64.3245
 1.8400	64.3013
 1.8390	64.2912
 1.8380	64.2918
 1.8370	64.3153
 1.8360	64.3466
 1.8350	64.3576
 1.8340	64.3401
 1.8330	64.3582
 1.8320	64.3617
 1.8310	64.3127
 1.8300	64.2470
 1.8290	64.3289
 1.8280	64.3253
 1.8270	64.2801
 1.8260	64.2901
 1.8250	64.3116
 1.8240	64.3281
 1.8230	64.3040
 1.8220	64.2768
 1.8210	64.3365
 1.8200	64.3311
 1.8190	64.2832
 1.8180	64.2712
 1.8170	64.3404
 1.8160	64.3288
 1.8150	64.3238
 1.8140	64.3077
 1.8130	64.2923
 1.8120	64.3503
 1.8110	64.3528
 1.8100	64.2697
 1.8090	64.2672
 1.8080	64.2770
 1.8070	64.2880
 1.8060	64.2780
 1.8050	64.2463
 1.8040	64.2849
 1.8030	64.3002
 1.8020	64.2739
 1.8010	64.2565
 1.8000	64.2694
 1.7990	64.2818
 1.7980	64.2662
 1.7970	64.2300
 1.7960	64.1822
 1.7950	64.1932
 1.7940	64.2103
 1.7930	64.1973
 1.7920	64.1388
 1.7910	64.1759
 1.7900	64.1370
 1.7890	64.0877
 1.7880	64.0972
 1.7870	64.1235
 1.7860	64.1542
 1.7850	64.0968
 1.7840	64.0952
 1.7830	64.1562
 1.7820	64.1458
 1.7810	64.0732
 1.7800	64.0789
 1.7790	64.1116
 1.7780	64.0636
 1.7770	63.9937
 1.7760	64.0150
 1.7750	63.9879
 1.7740	63.9621
 1.7730	63.9586
 1.7720	63.9262
 1.7710	63.9058
 1.7700	63.8826
 1.7690	63.8618
 1.7680	63.8527
 1.7670	63.8427
 1.7660	63.7716
 1.7650	63.7585
 1.7640	63.7722
 1.7630	63.7535
 1.7620	63.7283
 1.7610	63.7048
 1.7600	63.6974
 1.7590	63.6518
 1.7580	63.6291
 1.7570	63.5558
 1.7560	63.5331
 1.7550	63.5262
 1.7540	63.5029
 1.7530	63.4091
 1.7520	63.3664
 1.7510	63.3500
 1.7500	63.3578
 1.7490	63.3248
 1.7480	63.3250
 1.7470	63.2755
 1.7460	63.2590
 1.7450	63.2038
 1.7440	63.1960
 1.7430	63.1645
 1.7420	63.1529
 1.7410	63.0964
 1.7400	63.1680
 1.7390	63.1590
 1.7380	63.1192
 1.7370	63.1195
 1.7360	63.0981
 1.7350	63.0722
 1.7340	63.0738
 1.7330	63.0461
 1.7320	63.0585
 1.7310	63.0234
 1.7300	62.9975
 1.7290	62.9316
 1.7280	62.9294
 1.7270	62.8369
 1.7260	62.8535
 1.7250	62.8504
 1.7240	62.7632
 1.7230	62.7390
 1.7220	62.7134
 1.7210	62.7063
 1.7200	62.6628
 1.7190	62.6054
 1.7180	62.5901
 1.7170	62.5052
 1.7160	62.5505
 1.7150	62.5073
 1.7140	62.4931
 1.7130	62.3923
 1.7120	62.3663
 1.7110	62.2545
 1.7100	62.2728
 1.7090	62.2179
 1.7080	62.2237
 1.7070	62.2438
 1.7060	62.1663
 1.7050	62.1331
 1.7040	62.1484
 1.7030	62.1023
 1.7020	62.1127
 1.7010	62.0260
 1.7000	62.0603
 1.6990	62.0595
 1.6980	62.0851
 1.6970	62.0612
 1.6960	62.0328
 1.6950	61.9742
 1.6940	62.0267
 1.6930	62.0372
 1.6920	61.9561
 1.6910	61.9685
 1.6900	61.9719
 1.6890	61.9003
 1.6880	61.8626
 1.6870	61.8590
 1.6860	61.8771
 1.6850	61.8057
 1.6840	61.7972
 1.6830	61.7458
 1.6820	61.7503
 1.6810	61.7347
 1.6800	61.7259
 1.6790	61.5806
 1.6780	61.5897
 1.6770	61.5079
 1.6760	61.4790
 1.6750	61.3683
 1.6740	61.3646
 1.6730	61.1726
 1.6720	61.1495
 1.6710	61.0387
 1.6700	61.0348
 1.6690	60.9829
 1.6680	60.8064
 1.6670	60.7577
 1.6660	60.6745
 1.6650	60.6486
 1.6640	60.6890
 1.6630	60.5896
 1.6620	60.5795
 1.6610	60.5454
 1.6600	60.6713
 1.6590	60.5989
 1.6580	60.7131
 1.6570	60.7494
 1.6560	60.8941
 1.6550	60.8899
 1.6540	61.0541
 1.6530	61.0853
 1.6520	61.2475
 1.6510	61.2707
 1.6500	61.3762
 1.6490	61.4713
 1.6480	61.4951
 1.6470	61.5398
 1.6460	61.5920
 1.6450	61.6435
 1.6440	61.7604
 1.6430	61.7638
 1.6420	61.7605
 1.6410	61.6505
 1.6400	61.8393
 1.6390	61.8656
 1.6380	61.8976
 1.6370	61.8573
 1.6360	61.9637
 1.6350	61.8951
 1.6340	61.9381
 1.6330	61.9120
 1.6320	61.9287
 1.6310	61.9300
 1.6300	62.0109
 1.6290	61.9836
 1.6280	62.0041
 1.6270	61.9569
 1.6260	62.0250
 1.6250	61.9528
 1.6240	62.0482
 1.6230	62.0488
 1.6220	62.0565
 1.6210	62.0316
 1.6200	62.0262
 1.6190	62.0380
 1.6180	62.1031
 1.6170	62.0351
 1.6160	62.0039
 1.6150	61.9940
 1.6140	62.1243
 1.6130	62.0949
 1.6120	62.0503
 1.6110	62.0528
 1.6100	62.1298
 1.6090	62.0432
 1.6080	62.1534
 1.6070	62.0583
 1.6060	62.0828
 1.6050	62.0045
 1.6040	62.0247
 1.6030	62.0011
 1.6020	62.1053
 1.6010	61.9713
 1.6000	61.9705
 1.5990	61.9335
 1.5980	61.9472
 1.5970	61.9268
 1.5960	61.9542
 1.5950	61.8065
 1.5940	61.7802
 1.5930	61.7983
 1.5920	61.7782
 1.5910	61.7719
 1.5900	61.7151
 1.5890	61.6235
 1.5880	61.6394
 1.5870	61.5781
 1.5860	61.4954
 1.5850	61.4504
 1.5840	61.3937
 1.5830	61.3229
 1.5820	61.3505
 1.5810	61.2651
 1.5800	61.2205
 1.5790	61.1109
 1.5780	61.0345
 1.5770	61.0100
 1.5760	60.9148
 1.5750	60.8262
 1.5740	60.7161
 1.5730	60.5909
 1.5720	60.5013
 1.5710	60.4084
 1.5700	60.3138
 1.5690	60.1840
 1.5680	60.1254
 1.5670	60.0244
 1.5660	59.9953
 1.5650	59.8441
 1.5640	59.7495
 1.5630	59.6513
 1.5620	59.5722
 1.5610	59.4692
 1.5600	59.4061
 1.5590	59.3031
 1.5580	59.1792
 1.5570	59.0112
 1.5560	58.8683
 1.5550	58.6631
 1.5540	58.5065
 1.5530	58.3096
 1.5520	58.2006
 1.5510	57.9346
 1.5500	57.6667
 1.5490	57.4212
 1.5480	57.1327
 1.5470	56.8192
 1.5460	56.6331
 1.5450	56.3275
 1.5440	56.1123
 1.5430	55.8572
 1.5420	55.7005
 1.5410	55.5283
 1.5400	55.3854
 1.5390	55.2654
 1.5380	55.1759
 1.5370	55.0356
 1.5360	54.9388
 1.5350	54.8651
 1.5340	54.7886
 1.5330	54.7179
 1.5320	54.6866
 1.5310	54.5836
 1.5300	54.5239
 1.5290	54.3966
 1.5280	54.3053
 1.5270	54.1622
 1.5260	54.0602
 1.5250	53.9653
 1.5240	53.8223
 1.5230	53.6541
 1.5220	53.4095
 1.5210	53.1767
 1.5200	52.9425
 1.5190	52.6387
 1.5180	52.3005
 1.5170	51.8021
 1.5160	51.2077
 1.5150	50.5458
 1.5140	49.7932
 1.5130	48.8707
 1.5120	47.9067
 1.5110	46.7980
 1.5100	45.5617
 1.5090	44.3700
 1.5080	43.2454
 1.5070	42.3191
 1.5060	41.6688
 1.5050	41.3235
 1.5040	41.3134
 1.5030	41.5801
 1.5020	42.0168
 1.5010	42.5678
 1.5000	43.3020
 1.4990	44.0094
 1.4980	44.7110
 1.4970	45.4483
 1.4960	46.1332
 1.4950	46.7686
 1.4940	47.3540
 1.4930	47.8850
 1.4920	48.3577
 1.4910	48.8400
 1.4900	49.2772
 1.4890	49.6899
 1.4880	50.0164
 1.4870	50.2619
 1.4860	50.5512
 1.4850	50.8189
 1.4840	51.0127
 1.4830	51.1176
 1.4820	51.2253
 1.4810	51.4165
 1.4800	51.6020
 1.4790	51.7756
 1.4780	51.9566
 1.4770	52.1503
 1.4760	52.3453
 1.4750	52.6309
 1.4740	52.8272
 1.4730	53.0471
 1.4720	53.2962
 1.4710	53.5123
 1.4700	53.7243
 1.4690	53.9492
 1.4680	54.1584
 1.4670	54.3888
 1.4660	54.5879
 1.4650	54.8358
 1.4640	55.0926
 1.4630	55.3407
 1.4620	55.4834
 1.4610	55.6118
 1.4600	55.8141
 1.4590	56.0550
 1.4580	56.1297
 1.4570	56.2425
 1.4560	56.3793
 1.4550	56.4989
 1.4540	56.5648
 1.4530	56.7057
 1.4520	56.7723
 1.4510	56.9292
 1.4500	56.9773
 1.4490	57.1082
 1.4480	57.1784
 1.4470	57.3086
 1.4460	57.3289
 1.4450	57.4285
 1.4440	57.5011
 1.4430	57.6002
 1.4420	57.6630
 1.4410	57.6833
 1.4400	57.7450
 1.4390	57.8090
 1.4380	57.8280
 1.4370	57.9233
 1.4360	57.9447
 1.4350	58.0044
 1.4340	58.0885
 1.4330	58.1263
 1.4320	58.1814
 1.4310	58.2261
 1.4300	58.2496
 1.4290	58.3037
 1.4280	58.3176
 1.4270	58.3907
 1.4260	58.3897
 1.4250	58.4941
 1.4240	58.5175
 1.4230	58.5894
 1.4220	58.5698
 1.4210	58.6089
 1.4200	58.5325
 1.4190	58.5253
 1.4180	58.4363
 1.4170	58.4098
 1.4160	58.3542
 1.4150	58.5095
 1.4140	58.4803
 1.4130	58.5120
 1.4120	58.5893
 1.4110	58.6270
 1.4100	58.6000
 1.4090	58.5814
 1.4080	58.5043
 1.4070	58.5613
 1.4060	58.5962
 1.4050	58.5275
 1.4040	58.4776
 1.4030	58.4856
 1.4020	58.5083
 1.4010	58.4726
 1.4000	58.4016
 1.3990	58.3929
 1.3980	58.3530
 1.3970	58.3824
 1.3960	58.3554
 1.3950	58.2828
 1.3940	58.2688
 1.3930	58.2320
 1.3920	58.1617
 1.3910	58.2449
 1.3900	58.2299
 1.3890	58.2017
 1.3880	58.0327
 1.3870	58.0068
 1.3860	58.0458
 1.3850	58.0098
 1.3840	57.9006
 1.3830	57.9206
 1.3820	57.7413
 1.3810	57.7644
 1.3800	57.6668
 1.3790	57.7221
 1.3780	57.5792
 1.3770	57.6130
 1.3760	57.3447
 1.3750	57.3772
 1.3740	57.2371
 1.3730	57.1615
 1.3720	57.1456
 1.3710	57.0422
 1.3700	56.8332
 1.3690	56.8128
 1.3680	56.6432
 1.3670	56.5942
 1.3660	56.4109
 1.3650	56.2692
 1.3640	56.1653
 1.3630	56.1370
 1.3620	55.8121
 1.3610	55.6708
 1.3600	55.5475
 1.3590	55.4800
 1.3580	55.2839
 1.3570	55.2075
 1.3560	55.0013
 1.3550	54.7929
 1.3540	54.7326
 1.3530	54.6198
 1.3520	54.4605
 1.3510	54.4300
 1.3500	54.3288
 1.3490	54.3205
 1.3480	54.1162
 1.3470	54.1505
 1.3460	54.0221
 1.3450	54.0473
 1.3440	53.9976
 1.3430	54.0039
 1.3420	53.9563
 1.3410	54.0674
 1.3400	54.0112
 1.3390	54.0519
 1.3380	54.0263
 1.3370	53.9613
 1.3360	54.0305
 1.3350	54.0164
 1.3340	54.0325
 1.3330	53.9514
 1.3320	53.9129
 1.3310	53.9517
 1.3300	53.8792
 1.3290	53.9500
 1.3280	53.9293
 1.3270	53.9526
 1.3260	53.9978
 1.3250	54.1111
 1.3240	54.1688
 1.3230	54.2087
 1.3220	54.2507
 1.3210	54.3300
 1.3200	54.4137
 1.3190	54.5010
 1.3180	54.5479
 1.3170	54.6199
 1.3160	54.6953
 1.3150	54.7729
 1.3140	54.8003
 1.3130	54.8863
 1.3120	54.9342
 1.3110	55.0056
 1.3100	55.0258
 1.3090	55.1254
 1.3080	55.1083
 1.3070	55.2309
 1.3060	55.2397
 1.3050	55.2663
 1.3040	55.2015
 1.3030	55.3195
 1.3020	55.3180
 1.3010	55.4630
 1.3000	55.5013
 1.2990	55.5494
 1.2980	55.5877
 1.2970	55.6374
 1.2960	55.6384
 1.2950	55.6741
 1.2940	55.7039
 1.2930	55.7924
 1.2920	55.7804
 1.2910	55.8255
 1.2900	55.8147
 1.2890	55.9338
 1.2880	55.8899
 1.2870	55.9631
 1.2860	56.0004
 1.2850	56.0486
 1.2840	56.0383
 1.2830	56.1125
 1.2820	56.1339
 1.2810	56.2543
 1.2800	56.2468
 1.2790	56.3252
 1.2780	56.2953
 1.2770	56.3181
 1.2760	56.4123
 1.2750	56.4835
 1.2740	56.4960
 1.2730	56.5486
 1.2720	56.5128
 1.2710	56.5908
 1.2700	56.5689
 1.2690	56.6098
 1.2680	56.6856
 1.2670	56.7653
 1.2660	56.7516
 1.2650	56.8487
 1.2640	56.8163
 1.2630	56.8474
 1.2620	56.9280
 1.2610	56.9692
 1.2600	56.9831
 1.2590	57.0490
 1.2580	57.0801
 1.2570	57.1297
 1.2560	57.1436
 1.2550	57.1929
 1.2540	57.2334
 1.2530	57.3064
 1.2520	57.2955
 1.2510	57.2728
 1.2500	57.2460
 1.2490	57.3238
 1.2480	57.3364
 1.2470	57.3768
 1.2460	57.3914
 1.2450	57.4046
 1.2440	57.3813
 1.2430	57.4158
 1.2420	57.4540
 1.2410	57.4616
 1.2400	57.4968
 1.2390	57.4981
 1.2380	57.4547
 1.2370	57.5093
 1.2360	57.5244
 1.2350	57.5559
 1.2340	57.5824
 1.2330	57.6254
 1.2320	57.6193
 1.2310	57.6043
 1.2300	57.5719
 1.2290	57.5701
 1.2280	57.6491
 1.2270	57.6552
 1.2260	57.5885
 1.2250	57.5728
 1.2240	57.5434
 1.2230	57.5672
 1.2220	57.6018
 1.2210	57.5934
 1.2200	57.6010
 1.2190	57.5749
 1.2180	57.5445
 1.2170	57.5540
 1.2160	57.5249
 1.2150	57.5277
 1.2140	57.5079
 1.2130	57.4409
 1.2120	57.3825
 1.2110	57.3758
 1.2100	57.3652
 1.2090	57.3085
 1.2080	57.2171
 1.2070	57.1646
 1.2060	57.1600
 1.2050	57.1387
 1.2040	57.0954
 1.2030	56.9821
 1.2020	56.8802
 1.2010	56.8067
 1.2000	56.7975
 1.1990	56.7382
 1.1980	56.6143
 1.1970	56.4580
 1.1960	56.3866
 1.1950	56.3502
 1.1940	56.2933
 1.1930	56.1294
 1.1920	56.0283
 1.1910	55.9276
 1.1900	55.8144
 1.1890	55.6734
 1.1880	55.5013
 1.1870	55.4138
 1.1860	55.2218
 1.1850	55.0240
 1.1840	54.8836
 1.1830	54.7167
 1.1820	54.5545
 1.1810	54.3167
 1.1800	54.1842
 1.1790	53.9112
 1.1780	53.6989
 1.1770	53.5139
 1.1760	53.3146
 1.1750	53.0422
 1.1740	52.8235
 1.1730	52.5397
 1.1720	52.2745
 1.1710	51.9293
 1.1700	51.6685
 1.1690	51.4185
 1.1680	51.1255
 1.1670	50.7805
 1.1660	50.5172
 1.1650	50.2603
 1.1640	49.9879
 1.1630	49.6975
 1.1620	49.4012
 1.1610	49.1349
 1.1600	48.8362
 1.1590	48.4795
 1.1580	48.2373
 1.1570	47.8379
 1.1560	47.5038
 1.1550	47.1454
 1.1540	46.8088
 1.1530	46.4324
 1.1520	46.1180
 1.1510	45.7318
 1.1500	45.4689
 1.1490	45.1530
 1.1480	44.8697
 1.1470	44.5552
 1.1460	44.3048
 1.1450	43.9986
 1.1440	43.8039
 1.1430	43.4970
 1.1420	43.2793
 1.1410	42.9171
 1.1400	42.7268
 1.1390	42.4681
 1.1380	42.2958
 1.1370	42.1001
 1.1360	41.9247
 1.1350	41.6145
 1.1340	41.6066
 1.1330	41.3729
 1.1320	41.2491
 1.1310	40.9457
 1.1300	40.6835
 1.1290	40.2571
 1.1280	39.9599
 1.1270	39.4111
 1.1260	38.9550
 1.1250	38.4478
 1.1240	37.9151
 1.1230	37.3527
 1.1220	36.8714
 1.1210	36.2592
 1.1200	35.8501
 1.1190	35.5744
 1.1180	35.3806
 1.1170	35.2413
 1.1160	35.2801
 1.1150	35.4398
 1.1140	35.7735
 1.1130	36.0313
 1.1120	36.4481
 1.1110	36.7873
 1.1100	37.2182
 1.1090	37.5798
 1.1080	37.9995
 1.1070	38.2712
 1.1060	38.7307
 1.1050	38.9912
 1.1040	39.3269
 1.1030	39.5680
 1.1020	39.9017
 1.1010	40.0504
 1.1000	40.2953
 1.0990	40.4848
 1.0980	40.6806
 1.0970	40.8546
 1.0960	41.0779
 1.0950	41.2093
 1.0940	41.4283
 1.0930	41.4112
 1.0920	41.5911
 1.0910	41.6294
 1.0900	41.8913
 1.0890	41.9184
 1.0880	42.1696
 1.0870	42.2481
 1.0860	42.4180
 1.0850	42.4508
 1.0840	42.6581
 1.0830	42.6598
 1.0820	42.9043
 1.0810	42.8673
 1.0800	42.9984
 1.0790	43.0247
 1.0780	43.0961
 1.0770	43.0317
 1.0760	43.1444
 1.0750	43.1028
 1.0740	43.1737
 1.0730	43.1028
 1.0720	43.1210
 1.0710	43.1019
 1.0700	42.9666
 1.0690	43.0683
 1.0680	42.9222
 1.0670	42.8808
 1.0660	42.9130
 1.0650	42.7486
 1.0640	42.7279
 1.0630	42.6150
 1.0620	42.5945
 1.0610	42.5448
 1.0600	42.5212
 1.0590	42.4560
 1.0580	42.5987
 1.0570	42.5647
 1.0560	42.6368
 1.0550	42.6984
 1.0540	42.8940
 1.0530	42.9815
 1.0520	43.1708
 1.0510	43.2722
 1.0500	43.4912
 1.0490	43.5800
 1.0480	43.8446
 1.0470	43.9224
 1.0460	44.1216
 1.0450	44.2839
 1.0440	44.4439
 1.0430	44.5386
 1.0420	44.7683
 1.0410	44.8761
 1.0400	45.0541
 1.0390	45.2342
 1.0380	45.3777
 1.0370	45.4927
 1.0360	45.6191
 1.0350	45.7319
 1.0340	45.8502
 1.0330	45.9957
 1.0320	46.0810
 1.0310	46.1409
 1.0300	46.3517
 1.0290	46.3552
 1.0280	46.5338
 1.0270	46.5197
 1.0260	46.7126
 1.0250	46.7217
 1.0240	46.7808
 1.0230	46.7858
 1.0220	46.9290
 1.0210	46.8947
 1.0200	47.0789
 1.0190	46.9853
 1.0180	46.9679
 1.0170	47.0395
 1.0160	47.1695
 1.0150	47.0950
 1.0140	47.1297
 1.0130	47.1324
 1.0120	47.1425
 1.0110	47.1974
 1.0100	47.2929
 1.0090	47.3495
 1.0080	47.4414
 1.0070	47.5184
 1.0060	47.6113
 1.0050	47.6938
 1.0040	47.8607
 1.0030	47.8996
 1.0020	48.0771
 1.0010	48.0818
 1.0000	48.2188
 0.9990	48.2445
 0.9980	48.2728
 0.9970	48.2750
 0.9960	48.3845
 0.9950	48.3639
 0.9940	48.4164
 0.9930	48.4769
 0.9920	48.5544
 0.9910	48.5748
 0.9900	48.5873
 0.9890	48.5455
 0.9880	48.6001
 0.9870	48.5140
 0.9860	48.5200
 0.9850	48.4760
 0.9840	48.4546
 0.9830	48.3118
 0.9820	48.2595
 0.9810	48.1836
 0.9800	48.1636
 0.9790	48.0704
 0.9780	48.1225
 0.9770	48.1077
 0.9760	48.1749
 0.9750	48.2709
 0.9740	48.4309
 0.9730	48.5235
 0.9720	48.7093
 0.9710	48.7727
 0.9700	48.8425
 0.9690	48.9094
 0.9680	48.9469
 0.9670	48.9115
 0.9660	48.9405
 0.9650	48.9752
 0.9640	49.0201
 0.9630	49.0563
 0.9620	49.1169
 0.9610	49.1395
 0.9600	49.2350
 0.9590	49.2717
 0.9580	49.3565
 0.9570	49.4397
 0.9560	49.5647
 0.9550	49.6198
 0.9540	49.6981
 0.9530	49.7627
 0.9520	49.7851
 0.9510	49.8135
 0.9500	49.8794
 0.9490	49.9108
 0.9480	49.9525
 0.9470	49.9880
 0.9460	49.9568
 0.9450	49.9044
 0.9440	49.9197
 0.9430	49.9349
 0.9420	49.9698
 0.9410	49.9726
 0.9400	49.9580
 0.9390	49.9636
 0.9380	49.9510
 0.9370	49.9469
 0.9360	49.9347
 0.9350	49.8875
 0.9340	49.8339
 0.9330	49.7719
 0.9320	49.7719
 0.9310	49.7266
 0.9300	49.6443
 0.9290	49.6193
 0.9280	49.5443
 0.9270	49.4671
 0.9260	49.3880
 0.9250	49.2260
 0.9240	49.0090
 0.9230	48.8300
 0.9220	48.6674
 0.9210	48.4671
 0.9200	48.2357
 0.9190	48.0460
 0.9180	47.9159
 0.9170	47.8114
 0.9160	47.7948
 0.9150	47.8372
 0.9140	47.8292
 0.9130	47.9692
 0.9120	48.0692
 0.9110	48.2327
 0.9100	48.3761
 0.9090	48.4777
 0.9080	48.5667
 0.9070	48.6178
 0.9060	48.5705
 0.9050	48.5810
 0.9040	48.6285
 0.9030	48.6276
 0.9020	48.5796
 0.9010	48.6381
 0.9000	48.5377
 0.8990	48.5323
 0.8980	48.5099
 0.8970	48.5126
 0.8960	48.4663
 0.8950	48.4902
 0.8940	48.5054
 0.8930	48.5212
 0.8920	48.4775
 0.8910	48.6016
 0.8900	48.6544
 0.8890	48.7143
 0.8880	48.7649
 0.8870	48.8431
 0.8860	48.9157
 0.8850	48.9570
 0.8840	49.0310
 0.8830	49.1358
 0.8820	49.1551
 0.8810	49.2638
 0.8800	49.2195
 0.8790	49.3735
 0.8780	49.3886
 0.8770	49.4535
 0.8760	49.4411
 0.8750	49.4617
 0.8740	49.5537
 0.8730	49.6595
 0.8720	49.6472
 0.8710	49.7155
 0.8700	49.6341
 0.8690	49.6933
 0.8680	49.7044
 0.8670	49.7722
 0.8660	49.7773
 0.8650	49.7711
 0.8640	49.7529
 0.8630	49.7935
 0.8620	49.7634
 0.8610	49.7798
 0.8600	50.0487
 0.8590	50.0898
 0.8580	50.1052
 0.8570	50.1045
 0.8560	50.0469
 0.8550	50.0881
 0.8540	50.0479
 0.8530	50.0581
 0.8520	50.0719
 0.8510	50.0416
 0.8500	50.0615
 0.8490	50.0979
 0.8480	50.1270
 0.8470	50.1417
 0.8460	50.1535
 0.8450	50.1977
 0.8440	50.1541
 0.8430	50.2558
 0.8420	50.3117
 0.8410	50.3642
 0.8400	50.4038
 0.8390	50.4654
 0.8380	50.4796
 0.8370	50.5334
 0.8360	50.6133
 0.8350	50.6841
 0.8340	50.7378
 0.8330	50.7777
 0.8320	50.8337
 0.8310	50.9316
 0.8300	50.9956
 0.8290	51.0488
 0.8280	51.1218
 0.8270	51.1540
 0.8260	51.2102
 0.8250	51.2538
 0.8240	51.2680
 0.8230	51.3158
 0.8220	51.3906
 0.8210	51.4577
 0.8200	51.5046
 0.8190	51.5386
 0.8180	51.5893
 0.8170	51.6510
 0.8160	51.6925
 0.8150	51.7153
 0.8140	51.7638
 0.8130	51.7648
 0.8120	51.8304
 0.8110	51.8760
 0.8100	51.8798
 0.8090	51.9107
 0.8080	51.9322
 0.8070	51.8975
 0.8060	51.9524
 0.8050	51.9578
 0.8040	51.9401
 0.8030	51.9360
 0.8020	51.9703
 0.8010	51.9841
 0.8000	52.0811
 0.7990	52.1376
 0.7980	52.1367
 0.7970	52.1768
 0.7960	52.2405
 0.7950	52.2629
 0.7940	52.2894
 0.7930	52.3071
 0.7920	52.3481
 0.7910	52.3688
 0.7900	52.4400
 0.7890	52.4106
 0.7880	52.4208
 0.7870	52.4402
 0.7860	52.4501
 0.7850	52.4335
 0.7840	52.4381
 0.7830	52.4814
 0.7820	52.4037
 0.7810	52.4298
 0.7800	52.4376
 0.7790	52.3902
 0.7780	52.3833
 0.7770	52.3668
 0.7760	52.3635
 0.7750	52.3356
 0.7740	52.3136
 0.7730	52.2607
 0.7720	52.2503
 0.7710	52.2018
 0.7700	52.2091
 0.7690	52.1274
 0.7680	52.1007
 0.7670	52.0763
 0.7660	52.0081
 0.7650	51.9923
 0.7640	51.9670
 0.7630	51.8830
 0.7620	51.8555
 0.7610	51.8077
 0.7600	51.7827
 0.7590	51.7215
 0.7580	51.6748
 0.7570	51.5963
 0.7560	51.5529
 0.7550	51.5071
 0.7540	51.4168
 0.7530	51.3494
 0.7520	51.2902
 0.7510	51.2304
 0.7500	51.1801
 0.7490	51.1403
 0.7480	51.1173
 0.7470	51.0552
 0.7460	51.0221
 0.7450	50.9775
 0.7440	50.8704
 0.7430	50.8169
 0.7420	50.7601
 0.7410	50.6578
 0.7400	50.5737
 0.7390	50.5165
 0.7380	50.4255
 0.7370	50.3648
 0.7360	50.2699
 0.7350	50.1909
 0.7340	50.0923
 0.7330	50.0117
 0.7320	49.9219
 0.7310	49.8378
 0.7300	49.7343
 0.7290	49.6207
 0.7280	49.5456
 0.7270	49.4483
 0.7260	49.3087
 0.7250	49.1909
 0.7240	49.1055
 0.7230	48.9707
 0.7220	48.8590
 0.7210	48.7647
 0.7200	48.6546
 0.7190	48.5243
 0.7180	48.3974
 0.7170	48.2772
 0.7160	48.1407
 0.7150	48.0329
 0.7140	47.8976
 0.7130	47.7595
 0.7120	47.6263
 0.7110	47.4746
 0.7100	47.3543
 0.7090	47.2210
 0.7080	47.0721
 0.7070	46.9013
 0.7060	46.7419
 0.7050	46.6071
 0.7040	46.4196
 0.7030	46.2408
 0.7020	46.0813
 0.7010	45.8768
 0.7000	45.6566
 0.6990	45.4407
 0.6980	45.2135
 0.6970	44.9648
 0.6960	44.6810
 0.6950	44.3270
 0.6940	43.8804
 0.6930	43.3021
 0.6920	42.6354
 0.6910	41.9987
 0.6900	41.5073
 0.6890	41.2779
 0.6880	41.3166
 0.6870	41.5028
 0.6860	41.6784
 0.6850	41.7733
 0.6840	41.7925
 0.6830	41.7674
 0.6820	41.7521
 0.6810	41.7538
 0.6800	41.7615
 0.6790	41.7468
 0.6780	41.6751
 0.6770	41.5602
 0.6760	41.4217
 0.6750	41.2545
 0.6740	41.0574
 0.6730	40.8336
 0.6720	40.5784
 0.6710	40.3013
 0.6700	39.9729
 0.6690	39.6092
 0.6680	39.2012
 0.6670	38.7456
 0.6660	38.2383
 0.6650	37.6807
 0.6640	37.0576
 0.6630	36.4079
 0.6620	35.7695
 0.6610	35.1258
 0.6600	34.5340
 0.6590	33.9823
 0.6580	33.4162
 0.6570	32.8095
 0.6560	32.1320
 0.6550	31.4221
 0.6540	30.8587
 0.6530	30.6034
 0.6520	30.7330
 0.6510	31.1950
 0.6500	31.8397
 0.6490	32.4915
 0.6480	33.0310
 0.6470	33.4381
 0.6460	33.7405
 0.6450	33.9613
 0.6440	34.1115
 0.6430	34.2128
 0.6420	34.2797
 0.6410	34.3057
 0.6400	34.3084
 0.6390	34.2922
 0.6380	34.2539
 0.6370	34.2046
 0.6360	34.1483
 0.6350	34.0801
 0.6340	34.0012
 0.6330	33.9118
 0.6320	33.8142
 0.6310	33.7021
 0.6300	33.5798
 0.6290	33.4502
 0.6280	33.3051
 0.6270	33.1412
 0.6260	32.9649
 0.6250	32.7919
 0.6240	32.6046
 0.6230	32.4206
 0.6220	32.2416
 0.6210	32.0575
 0.6200	31.8832
 0.6190	31.7309
 0.6180	31.5944
 0.6170	31.4599
 0.6160	31.3459
 0.6150	31.2583
 0.6140	31.1837
 0.6130	31.1298
 0.6120	31.0953
 0.6110	31.0475
 0.6100	30.9908
 0.6090	30.9335
 0.6080	30.8524
 0.6070	30.7493
 0.6060	30.6413
 0.6050	30.5364
 0.6040	30.4169
 0.6030	30.2823
 0.6020	30.1576
 0.6010	30.0265
 0.6000	29.8948
 0.5990	29.7505
 0.5980	29.5939
 0.5970	29.4372
 0.5960	29.2616
 0.5950	29.0698
 0.5940	28.8572
 0.5930	28.6204
 0.5920	28.3815
 0.5910	28.1608
 0.5900	27.9713
 0.5890	27.8353
 0.5880	27.7628
 0.5870	27.7413
 0.5860	27.7417
 0.5850	27.7445
 0.5840	27.7472
 0.5830	27.7349
 0.5820	27.7051
 0.5810	27.6696
 0.5800	27.6289
 0.5790	27.5865
 0.5780	27.5294
 0.5770	27.4704
 0.5760	27.4071
 0.5750	27.3355
 0.5740	27.2574
 0.5730	27.1844
 0.5720	27.1097
 0.5710	27.0254
 0.5700	26.9356
 0.5690	26.8501
 0.5680	26.7541
 0.5670	26.6504
 0.5660	26.5384
 0.5650	26.4216
 0.5640	26.2998
 0.5630	26.1605
 0.5620	26.0346
 0.5610	25.9129
 0.5600	25.8123
 0.5590	25.7335
 0.5580	25.6600
 0.5570	25.5824
 0.5560	25.5000
 0.5550	25.4179
 0.5540	25.3230
 0.5530	25.2270
 0.5520	25.1355
 0.5510	25.0329
 0.5500	24.9234
 0.5490	24.8108
 0.5480	24.6940
 0.5470	24.5751
 0.5460	24.4519
 0.5450	24.3243
 0.5440	24.1827
 0.5430	24.0609
 0.5420	23.9320
 0.5410	23.7916
 0.5400	23.6618
 0.5390	23.5393
 0.5380	23.4414
 0.5370	23.3590
 0.5360	23.3018
 0.5350	23.2618
 0.5340	23.2284
 0.5330	23.2045
 0.5320	23.1646
 0.5310	23.1120
 0.5300	23.0536
 0.5290	22.9895
 0.5280	22.9191
 0.5270	22.8336
 0.5260	22.7396
 0.5250	22.6444
 0.5240	22.5301
 0.5230	22.4205
 0.5220	22.3065
 0.5210	22.2035
 0.5200	22.0937
 0.5190	21.9811
 0.5180	21.8799
 0.5170	21.7726
 0.5160	21.6561
 0.5150	21.5687
 0.5140	21.4727
 0.5130	21.3916
 0.5120	21.3288
 0.5110	21.2824
 0.5100	21.2471
 0.5090	21.2287
 0.5080	21.2138
 0.5070	21.2025
 0.5060	21.1947
 0.5050	21.1856
 0.5040	21.1768
 0.5030	21.1705
 0.5020	21.1501
 0.5010	21.1470
 0.5000	21.1189
 0.4990	21.0928
 0.4980	21.0659
 0.4970	21.0293
 0.4960	20.9840
 0.4950	20.9314
 0.4940	20.8720
 0.4930	20.8091
 0.4920	20.7416
 0.4910	20.6583
 0.4900	20.5713
 0.4890	20.4823
 0.4880	20.4061
 0.4870	20.3061
 0.4860	20.2035
 0.4850	20.0952
 0.4840	19.9967
 0.4830	19.9072
 0.4820	19.8325
 0.4810	19.7954
 0.4800	19.7734
 0.4790	19.7635
 0.4780	19.7562
 0.4770	19.7447
 0.4760	19.7351
 0.4750	19.7273
 0.4740	19.7047
 0.4730	19.6959
 0.4720	19.6766
 0.4710	19.6530
 0.4700	19.6313
 0.4690	19.5984
 0.4680	19.5691
 0.4670	19.5313
 0.4660	19.4901
 0.4650	19.4481
 0.4640	19.3947
 0.4630	19.3575
 0.4620	19.3148
 0.4610	19.2658
 0.4600	19.2214
 0.4590	19.1688
 0.4580	19.1146
 0.4570	19.0627
 0.4560	19.0048
 0.4550	18.9360
 0.4540	18.8636
 0.4530	18.7972
 0.4520	18.7283
 0.4510	18.6464
 0.4500	18.5750
 0.4490	18.4874
 0.4480	18.3962
 0.4470	18.3000
 0.4460	18.2117
 0.4450	18.1378
 0.4440	18.0219
 0.4430	17.9075
 0.4420	17.7743
 0.4410	17.6515
 0.4400	17.5170
 0.4390	17.3694
 0.4380	17.2275
 0.4370	17.0707
 0.4360	16.9124
 0.4350	16.7480
 0.4340	16.5954
 0.4330	16.4408
 0.4320	16.3037
 0.4310	16.1843
 0.4300	16.0737
 0.4290	15.9694
 0.4280	15.8699
 0.4270	15.7698
 0.4260	15.6576
 0.4250	15.5462
 0.4240	15.4404
 0.4230	15.3413
 0.4220	15.2381
 0.4210	15.1530
 0.4200	15.0706
 0.4190	14.9992
 0.4180	14.9354
 0.4170	14.8727
 0.4160	14.8124
 0.4150	14.7416
 0.4140	14.6744
 0.4130	14.6032
 0.4120	14.5319
 0.4110	14.4580
 0.4100	14.3803
 0.4090	14.3022
 0.4080	14.2200
 0.4070	14.1407
 0.4060	14.0584
 0.4050	13.9711
 0.4040	13.8812
 0.4030	13.7863
 0.4020	13.6899
 0.4010	13.5913
 0.4000	13.4904
