Name: Aphthitalite (K,Na)_3Na(SO_4)_2
Type: Mineral
Class: Sulfate
Subclass: None
Particle Size: Coarse
Sample No.: SO-9A
Owner: JPL
Wavelength Range: VSWIR
Origin: USA, California, San Bernadino County, Searles Lake.
Collection Date: N/A
Description: Particle size was 125-500um. Collected by:  Burminco Original ASTER Spectral Library name was jpl.perkin.mineral.sulfate.none.coarse.so09a.spectrum.txt
Measurement: Hemispherical reflectance
First Column: X
Second Column: Y
X Units: Wavelength (micrometers)
Y Units:Reflectance (percent)
First X Value:  2.5000
Last X Value:  0.4000
Number of X Values: 2101
Additional Information: mineral.sulfate.none.coarse.vswir.so-9a.jpl.perkin.ancillary.txt

 2.5000	74.2757
 2.4990	74.2115
 2.4980	74.3846
 2.4970	74.1714
 2.4960	74.2881
 2.4950	74.4201
 2.4940	74.2922
 2.4930	74.3093
 2.4920	74.2717
 2.4910	74.4493
 2.4900	74.3480
 2.4890	74.4389
 2.4880	74.4049
 2.4870	74.6445
 2.4860	74.6393
 2.4850	74.4946
 2.4840	74.5319
 2.4830	74.6261
 2.4820	74.6962
 2.4810	74.7555
 2.4800	74.6161
 2.4790	74.7387
 2.4780	74.7141
 2.4770	74.8994
 2.4760	74.8726
 2.4750	74.9371
 2.4740	74.9289
 2.4730	75.0057
 2.4720	75.1102
 2.4710	75.2367
 2.4700	75.1478
 2.4690	75.1085
 2.4680	75.1599
 2.4670	75.1905
 2.4660	75.2859
 2.4650	75.2276
 2.4640	75.3430
 2.4630	75.2320
 2.4620	75.3922
 2.4610	75.4745
 2.4600	75.4712
 2.4590	75.5049
 2.4580	75.6318
 2.4570	75.8122
 2.4560	75.6434
 2.4550	75.6718
 2.4540	75.6676
 2.4530	75.8145
 2.4520	75.7598
 2.4510	75.7619
 2.4500	75.7580
 2.4490	75.8390
 2.4480	75.8734
 2.4470	76.0934
 2.4460	75.9592
 2.4450	75.9922
 2.4440	76.0924
 2.4430	76.0468
 2.4420	76.1316
 2.4410	76.1587
 2.4400	76.1912
 2.4390	76.1351
 2.4380	76.1395
 2.4370	76.2654
 2.4360	76.2138
 2.4350	76.1906
 2.4340	76.2923
 2.4330	76.3414
 2.4320	76.3789
 2.4310	76.4404
 2.4300	76.4414
 2.4290	76.4136
 2.4280	76.4907
 2.4270	76.5738
 2.4260	76.5806
 2.4250	76.6246
 2.4240	76.6366
 2.4230	76.6728
 2.4220	76.7193
 2.4210	76.7285
 2.4200	76.7857
 2.4190	76.8279
 2.4180	76.8204
 2.4170	76.8671
 2.4160	76.8995
 2.4150	76.9078
 2.4140	76.8584
 2.4130	76.8933
 2.4120	77.0167
 2.4110	76.9999
 2.4100	77.0296
 2.4090	77.1309
 2.4080	77.1158
 2.4070	77.1621
 2.4060	77.1288
 2.4050	77.2071
 2.4040	77.2450
 2.4030	77.3042
 2.4020	77.3669
 2.4010	77.3812
 2.4000	77.4189
 2.3990	77.4819
 2.3980	77.5169
 2.3970	77.4998
 2.3960	77.5351
 2.3950	77.6298
 2.3940	77.6529
 2.3930	77.6972
 2.3920	77.8039
 2.3910	77.7856
 2.3900	77.7317
 2.3890	77.8311
 2.3880	77.9829
 2.3870	78.0055
 2.3860	78.0608
 2.3850	78.0994
 2.3840	78.1296
 2.3830	78.1549
 2.3820	78.1967
 2.3810	78.2619
 2.3800	78.3237
 2.3790	78.3850
 2.3780	78.3513
 2.3770	78.4635
 2.3760	78.5490
 2.3750	78.5365
 2.3740	78.5946
 2.3730	78.6685
 2.3720	78.7178
 2.3710	78.7455
 2.3700	78.7707
 2.3690	78.8358
 2.3680	78.8902
 2.3670	78.9330
 2.3660	78.9302
 2.3650	78.9399
 2.3640	79.0205
 2.3630	79.0494
 2.3620	79.1143
 2.3610	79.1402
 2.3600	79.1134
 2.3590	79.1449
 2.3580	79.1916
 2.3570	79.2713
 2.3560	79.3360
 2.3550	79.3244
 2.3540	79.3495
 2.3530	79.4380
 2.3520	79.4855
 2.3510	79.5502
 2.3500	79.5980
 2.3490	79.6072
 2.3480	79.5995
 2.3470	79.5725
 2.3460	79.5836
 2.3450	79.6641
 2.3440	79.7703
 2.3430	79.7502
 2.3420	79.6945
 2.3410	79.7519
 2.3400	79.8233
 2.3390	79.8682
 2.3380	79.8464
 2.3370	79.8121
 2.3360	79.8731
 2.3350	79.8607
 2.3340	79.8287
 2.3330	79.9362
 2.3320	79.9309
 2.3310	79.9407
 2.3300	79.9371
 2.3290	79.9277
 2.3280	79.9049
 2.3270	79.9508
 2.3260	79.9676
 2.3250	79.9685
 2.3240	79.9775
 2.3230	79.9921
 2.3220	80.0013
 2.3210	80.0513
 2.3200	80.0914
 2.3190	80.0106
 2.3180	79.9952
 2.3170	80.0841
 2.3160	80.1081
 2.3150	80.0527
 2.3140	80.0831
 2.3130	80.1104
 2.3120	80.0900
 2.3110	80.0896
 2.3100	80.1573
 2.3090	80.2044
 2.3080	80.1205
 2.3070	80.2036
 2.3060	80.2412
 2.3050	80.2035
 2.3040	80.1890
 2.3030	80.2331
 2.3020	80.2251
 2.3010	80.2691
 2.3000	80.2810
 2.2990	80.2563
 2.2980	80.3214
 2.2970	80.3221
 2.2960	80.3259
 2.2950	80.3783
 2.2940	80.4053
 2.2930	80.3878
 2.2920	80.3413
 2.2910	80.3345
 2.2900	80.3256
 2.2890	80.4027
 2.2880	80.4096
 2.2870	80.4333
 2.2860	80.3911
 2.2850	80.3659
 2.2840	80.4611
 2.2830	80.4559
 2.2820	80.4522
 2.2810	80.5049
 2.2800	80.5673
 2.2790	80.5774
 2.2780	80.4653
 2.2770	80.4437
 2.2760	80.4701
 2.2750	80.5276
 2.2740	80.5921
 2.2730	80.5685
 2.2720	80.5446
 2.2710	80.5402
 2.2700	80.5440
 2.2690	80.6159
 2.2680	80.6095
 2.2670	80.5231
 2.2660	80.6247
 2.2650	80.5222
 2.2640	80.5570
 2.2630	80.5221
 2.2620	80.5043
 2.2610	80.5750
 2.2600	80.6593
 2.2590	80.5957
 2.2580	80.5954
 2.2570	80.6213
 2.2560	80.5765
 2.2550	80.6433
 2.2540	80.5988
 2.2530	80.5391
 2.2520	80.6273
 2.2510	80.6222
 2.2500	80.6769
 2.2490	80.5902
 2.2480	80.6928
 2.2470	80.6616
 2.2460	80.6997
 2.2450	80.6632
 2.2440	80.6138
 2.2430	80.7097
 2.2420	80.7612
 2.2410	80.7082
 2.2400	80.7004
 2.2390	80.7136
 2.2380	80.6465
 2.2370	80.6661
 2.2360	80.7232
 2.2350	80.6875
 2.2340	80.6341
 2.2330	80.6708
 2.2320	80.6863
 2.2310	80.6506
 2.2300	80.6114
 2.2290	80.6505
 2.2280	80.6678
 2.2270	80.6767
 2.2260	80.5901
 2.2250	80.6864
 2.2240	80.6405
 2.2230	80.6720
 2.2220	80.6965
 2.2210	80.7002
 2.2200	80.7959
 2.2190	80.6582
 2.2180	80.6775
 2.2170	80.6890
 2.2160	80.7631
 2.2150	80.7402
 2.2140	80.7944
 2.2130	80.8013
 2.2120	80.8795
 2.2110	80.7932
 2.2100	80.8544
 2.2090	80.9978
 2.2080	80.9325
 2.2070	81.0636
 2.2060	80.9718
 2.2050	81.0317
 2.2040	81.0239
 2.2030	80.9527
 2.2020	81.0275
 2.2010	81.0818
 2.2000	81.1371
 2.1990	81.0626
 2.1980	81.1071
 2.1970	81.1573
 2.1960	81.1668
 2.1950	81.1262
 2.1940	81.1562
 2.1930	81.1553
 2.1920	81.1661
 2.1910	81.1307
 2.1900	81.1524
 2.1890	81.0780
 2.1880	81.1590
 2.1870	81.1985
 2.1860	81.2738
 2.1850	81.1776
 2.1840	81.2417
 2.1830	81.1646
 2.1820	81.2683
 2.1810	81.2531
 2.1800	81.2965
 2.1790	81.3247
 2.1780	81.3986
 2.1770	81.3014
 2.1760	81.4220
 2.1750	81.4290
 2.1740	81.3589
 2.1730	81.3965
 2.1720	81.3817
 2.1710	81.4347
 2.1700	81.4179
 2.1690	81.4420
 2.1680	81.5146
 2.1670	81.4674
 2.1660	81.4736
 2.1650	81.5141
 2.1640	81.5691
 2.1630	81.4246
 2.1620	81.5221
 2.1610	81.5286
 2.1600	81.5545
 2.1590	81.6633
 2.1580	81.5924
 2.1570	81.5774
 2.1560	81.6742
 2.1550	81.6060
 2.1540	81.6249
 2.1530	81.5142
 2.1520	81.6649
 2.1510	81.7033
 2.1500	81.7275
 2.1490	81.6591
 2.1480	81.5914
 2.1470	81.6395
 2.1460	81.6523
 2.1450	81.6042
 2.1440	81.7212
 2.1430	81.7305
 2.1420	81.6317
 2.1410	81.6380
 2.1400	81.5921
 2.1390	81.5530
 2.1380	81.5114
 2.1370	81.5360
 2.1360	81.5590
 2.1350	81.5135
 2.1340	81.4495
 2.1330	81.4708
 2.1320	81.4185
 2.1310	81.4005
 2.1300	81.3732
 2.1290	81.3348
 2.1280	81.3218
 2.1270	81.2753
 2.1260	81.2316
 2.1250	81.1425
 2.1240	81.1503
 2.1230	81.1024
 2.1220	81.0337
 2.1210	80.9740
 2.1200	80.9291
 2.1190	80.8883
 2.1180	80.8200
 2.1170	80.7591
 2.1160	80.7125
 2.1150	80.6597
 2.1140	80.6583
 2.1130	80.5902
 2.1120	80.4865
 2.1110	80.4731
 2.1100	80.4342
 2.1090	80.3195
 2.1080	80.3159
 2.1070	80.2974
 2.1060	80.2376
 2.1050	80.1267
 2.1040	80.0992
 2.1030	80.0109
 2.1020	79.9689
 2.1010	79.9121
 2.1000	79.8323
 2.0990	79.7953
 2.0980	79.8285
 2.0970	79.8282
 2.0960	79.8365
 2.0950	79.8193
 2.0940	79.8398
 2.0930	79.8044
 2.0920	79.7752
 2.0910	79.7969
 2.0900	79.8073
 2.0890	79.8124
 2.0880	79.8114
 2.0870	79.7773
 2.0860	79.7661
 2.0850	79.7842
 2.0840	79.7646
 2.0830	79.7077
 2.0820	79.6964
 2.0810	79.7212
 2.0800	79.7148
 2.0790	79.7220
 2.0780	79.7126
 2.0770	79.7186
 2.0760	79.7152
 2.0750	79.6826
 2.0740	79.6791
 2.0730	79.6444
 2.0720	79.6046
 2.0710	79.6131
 2.0700	79.7173
 2.0690	79.7279
 2.0680	79.5897
 2.0670	79.5595
 2.0660	79.5909
 2.0650	79.5934
 2.0640	79.5902
 2.0630	79.5457
 2.0620	79.5338
 2.0610	79.5517
 2.0600	79.5274
 2.0590	79.5507
 2.0580	79.5391
 2.0570	79.4994
 2.0560	79.4916
 2.0550	79.4802
 2.0540	79.4838
 2.0530	79.4687
 2.0520	79.4499
 2.0510	79.5088
 2.0500	79.4931
 2.0490	79.4385
 2.0480	79.3461
 2.0470	79.3565
 2.0460	79.4042
 2.0450	79.4579
 2.0440	79.4202
 2.0430	79.3325
 2.0420	79.3715
 2.0410	79.3742
 2.0400	79.3517
 2.0390	79.3448
 2.0380	79.3544
 2.0370	79.3458
 2.0360	79.3297
 2.0350	79.3211
 2.0340	79.3343
 2.0330	79.3149
 2.0320	79.3095
 2.0310	79.3013
 2.0300	79.2631
 2.0290	79.2420
 2.0280	79.2646
 2.0270	79.2734
 2.0260	79.1782
 2.0250	79.1981
 2.0240	79.2063
 2.0230	79.1627
 2.0220	79.1423
 2.0210	79.1591
 2.0200	79.1617
 2.0190	79.1494
 2.0180	79.0868
 2.0170	79.0615
 2.0160	79.0030
 2.0150	79.0358
 2.0140	79.0338
 2.0130	78.9296
 2.0120	78.9373
 2.0110	78.9764
 2.0100	78.9617
 2.0090	78.9619
 2.0080	78.8636
 2.0070	78.8318
 2.0060	78.8320
 2.0050	78.7722
 2.0040	78.7595
 2.0030	78.7295
 2.0020	78.6672
 2.0010	78.7359
 2.0000	78.6237
 1.9990	78.5789
 1.9980	78.5057
 1.9970	78.4294
 1.9960	78.4091
 1.9950	78.3711
 1.9940	78.2647
 1.9930	78.2242
 1.9920	78.2670
 1.9910	78.1572
 1.9900	78.0896
 1.9890	78.0474
 1.9880	78.0010
 1.9870	77.8683
 1.9860	77.8041
 1.9850	77.7840
 1.9840	77.7190
 1.9830	77.6629
 1.9820	77.5283
 1.9810	77.4729
 1.9800	77.4589
 1.9790	77.4304
 1.9780	77.3337
 1.9770	77.2696
 1.9760	77.3600
 1.9750	77.1854
 1.9740	77.1387
 1.9730	77.0702
 1.9720	77.0273
 1.9710	77.0052
 1.9700	76.9001
 1.9690	76.8805
 1.9680	76.7485
 1.9670	76.6832
 1.9660	76.5962
 1.9650	76.6214
 1.9640	76.5560
 1.9630	76.4983
 1.9620	76.3064
 1.9610	76.3536
 1.9600	76.2376
 1.9590	76.1429
 1.9580	76.1577
 1.9570	76.1615
 1.9560	76.0321
 1.9550	75.9335
 1.9540	75.9529
 1.9530	75.8546
 1.9520	75.8139
 1.9510	75.7608
 1.9500	75.7245
 1.9490	75.7013
 1.9480	75.7113
 1.9470	75.6324
 1.9460	75.6139
 1.9450	75.5377
 1.9440	75.4958
 1.9430	75.5651
 1.9420	75.5222
 1.9410	75.5608
 1.9400	75.6006
 1.9390	75.6152
 1.9380	75.4751
 1.9370	75.6067
 1.9360	75.6172
 1.9350	75.6169
 1.9340	75.6683
 1.9330	75.7856
 1.9320	75.8045
 1.9310	75.8381
 1.9300	75.9568
 1.9290	75.9402
 1.9280	76.1199
 1.9270	76.2352
 1.9260	76.2516
 1.9250	76.3350
 1.9240	76.4171
 1.9230	76.6348
 1.9220	76.6452
 1.9210	76.7762
 1.9200	76.8655
 1.9190	76.9784
 1.9180	77.1210
 1.9170	77.2123
 1.9160	77.3269
 1.9150	77.5343
 1.9140	77.6269
 1.9130	77.8296
 1.9120	77.9272
 1.9110	78.0608
 1.9100	78.1952
 1.9090	78.3615
 1.9080	78.5831
 1.9070	78.7190
 1.9060	78.8588
 1.9050	79.0638
 1.9040	79.1474
 1.9030	79.4399
 1.9020	79.6299
 1.9010	79.8229
 1.9000	80.0566
 1.8990	80.2984
 1.8980	80.3732
 1.8970	80.6475
 1.8960	80.8223
 1.8950	80.9888
 1.8940	81.2368
 1.8930	81.2885
 1.8920	81.4839
 1.8910	81.6893
 1.8900	81.7429
 1.8890	81.9825
 1.8880	82.0817
 1.8870	82.2624
 1.8860	82.3555
 1.8850	82.5052
 1.8840	82.5880
 1.8830	82.6769
 1.8820	82.8247
 1.8810	82.9058
 1.8800	82.9568
 1.8790	83.1001
 1.8780	83.1387
 1.8770	83.2011
 1.8760	83.3092
 1.8750	83.3925
 1.8740	83.3470
 1.8730	83.4696
 1.8720	83.4449
 1.8710	83.6097
 1.8700	83.6380
 1.8690	83.7173
 1.8680	83.7616
 1.8670	83.8017
 1.8660	83.7951
 1.8650	83.8712
 1.8640	83.8782
 1.8630	83.9627
 1.8620	83.9153
 1.8610	83.8698
 1.8600	83.9193
 1.8590	84.0029
 1.8580	84.0105
 1.8570	84.1229
 1.8560	84.0279
 1.8550	84.1327
 1.8540	84.1870
 1.8530	84.1633
 1.8520	84.1195
 1.8510	84.1514
 1.8500	84.1813
 1.8490	84.2515
 1.8480	84.1999
 1.8470	84.2208
 1.8460	84.2302
 1.8450	84.2801
 1.8440	84.2896
 1.8430	84.2769
 1.8420	84.2382
 1.8410	84.2603
 1.8400	84.2586
 1.8390	84.3051
 1.8380	84.3168
 1.8370	84.3184
 1.8360	84.3052
 1.8350	84.3792
 1.8340	84.4313
 1.8330	84.3863
 1.8320	84.3150
 1.8310	84.3530
 1.8300	84.3582
 1.8290	84.3286
 1.8280	84.2993
 1.8270	84.3234
 1.8260	84.3764
 1.8250	84.3989
 1.8240	84.3689
 1.8230	84.4071
 1.8220	84.4440
 1.8210	84.3627
 1.8200	84.3080
 1.8190	84.3611
 1.8180	84.3904
 1.8170	84.3974
 1.8160	84.3548
 1.8150	84.3001
 1.8140	84.3422
 1.8130	84.4322
 1.8120	84.4039
 1.8110	84.3893
 1.8100	84.3916
 1.8090	84.4596
 1.8080	84.4579
 1.8070	84.4508
 1.8060	84.4945
 1.8050	84.4466
 1.8040	84.4101
 1.8030	84.4162
 1.8020	84.4262
 1.8010	84.4727
 1.8000	84.4808
 1.7990	84.4647
 1.7980	84.4167
 1.7970	84.3781
 1.7960	84.3974
 1.7950	84.4611
 1.7940	84.4624
 1.7930	84.3965
 1.7920	84.4091
 1.7910	84.4469
 1.7900	84.4345
 1.7890	84.4618
 1.7880	84.4752
 1.7870	84.4461
 1.7860	84.4067
 1.7850	84.4419
 1.7840	84.4780
 1.7830	84.4696
 1.7820	84.4274
 1.7810	84.4237
 1.7800	84.5024
 1.7790	84.4766
 1.7780	84.4273
 1.7770	84.4205
 1.7760	84.4324
 1.7750	84.4820
 1.7740	84.5202
 1.7730	84.5166
 1.7720	84.4787
 1.7710	84.4544
 1.7700	84.4675
 1.7690	84.4797
 1.7680	84.4600
 1.7670	84.4897
 1.7660	84.5270
 1.7650	84.5498
 1.7640	84.5197
 1.7630	84.4568
 1.7620	84.4533
 1.7610	84.5050
 1.7600	84.4728
 1.7590	84.4773
 1.7580	84.5276
 1.7570	84.5353
 1.7560	84.5360
 1.7550	84.5474
 1.7540	84.5450
 1.7530	84.4903
 1.7520	84.5418
 1.7510	84.5370
 1.7500	84.5478
 1.7490	84.5400
 1.7480	84.5743
 1.7470	84.5866
 1.7460	84.6402
 1.7450	84.6831
 1.7440	84.6523
 1.7430	84.5740
 1.7420	84.5888
 1.7410	84.6727
 1.7400	84.6808
 1.7390	84.7184
 1.7380	84.7224
 1.7370	84.6470
 1.7360	84.7464
 1.7350	84.7120
 1.7340	84.7157
 1.7330	84.7637
 1.7320	84.7416
 1.7310	84.7135
 1.7300	85.3429
 1.7290	85.0345
 1.7280	84.7830
 1.7270	84.7392
 1.7260	84.7327
 1.7250	84.7651
 1.7240	84.7636
 1.7230	84.7796
 1.7220	84.8507
 1.7210	84.8620
 1.7200	84.8192
 1.7190	84.7931
 1.7180	84.8753
 1.7170	84.8343
 1.7160	84.7970
 1.7150	84.8731
 1.7140	84.8701
 1.7130	84.8904
 1.7120	84.9381
 1.7110	84.8386
 1.7100	84.8515
 1.7090	84.8484
 1.7080	84.8332
 1.7070	84.8997
 1.7060	84.9424
 1.7050	84.9273
 1.7040	84.9047
 1.7030	84.9289
 1.7020	84.9079
 1.7010	84.9009
 1.7000	84.9225
 1.6990	84.9136
 1.6980	84.9184
 1.6970	84.8679
 1.6960	84.9368
 1.6950	84.9953
 1.6940	84.8943
 1.6930	84.8188
 1.6920	84.8931
 1.6910	84.9041
 1.6900	84.9151
 1.6890	84.8690
 1.6880	84.9918
 1.6870	84.9867
 1.6860	85.0653
 1.6850	84.9708
 1.6840	85.0449
 1.6830	84.9081
 1.6820	84.8966
 1.6810	84.9357
 1.6800	85.0019
 1.6790	84.9984
 1.6780	84.9106
 1.6770	84.9794
 1.6760	85.0810
 1.6750	85.0060
 1.6740	85.0614
 1.6730	85.0069
 1.6720	85.0149
 1.6710	85.0344
 1.6700	85.0331
 1.6690	85.0717
 1.6680	85.0495
 1.6670	85.1159
 1.6660	85.1196
 1.6650	85.0269
 1.6640	84.9393
 1.6630	85.1273
 1.6620	85.0921
 1.6610	84.9747
 1.6600	85.2217
 1.6590	85.1649
 1.6580	85.1722
 1.6570	85.1102
 1.6560	85.0358
 1.6550	85.1474
 1.6540	85.0747
 1.6530	85.1486
 1.6520	85.1776
 1.6510	85.1134
 1.6500	85.2374
 1.6490	85.1234
 1.6480	85.1492
 1.6470	85.1374
 1.6460	85.2805
 1.6450	85.1450
 1.6440	85.2257
 1.6430	85.1237
 1.6420	85.2599
 1.6410	85.0670
 1.6400	85.2624
 1.6390	85.1197
 1.6380	85.1052
 1.6370	85.2446
 1.6360	85.2693
 1.6350	85.1789
 1.6340	85.2464
 1.6330	85.1896
 1.6320	85.2269
 1.6310	85.3329
 1.6300	85.2285
 1.6290	85.1464
 1.6280	85.2711
 1.6270	85.1737
 1.6260	85.2251
 1.6250	85.1600
 1.6240	85.2473
 1.6230	85.2230
 1.6220	85.1548
 1.6210	85.2240
 1.6200	85.2348
 1.6190	85.2301
 1.6180	85.3246
 1.6170	85.2302
 1.6160	85.2300
 1.6150	85.1731
 1.6140	85.2914
 1.6130	85.2618
 1.6120	85.2078
 1.6110	85.2152
 1.6100	85.2301
 1.6090	85.3544
 1.6080	85.2945
 1.6070	85.2821
 1.6060	85.2227
 1.6050	85.2506
 1.6040	85.2704
 1.6030	85.2580
 1.6020	85.2952
 1.6010	85.2618
 1.6000	85.2648
 1.5990	85.2941
 1.5980	85.1953
 1.5970	85.2352
 1.5960	85.2754
 1.5950	85.1917
 1.5940	85.2603
 1.5930	85.2303
 1.5920	85.3141
 1.5910	85.2290
 1.5900	85.2941
 1.5890	85.2511
 1.5880	85.2286
 1.5870	85.2229
 1.5860	85.2139
 1.5850	85.1946
 1.5840	85.2427
 1.5830	85.2152
 1.5820	85.1826
 1.5810	85.2518
 1.5800	85.2434
 1.5790	85.1970
 1.5780	85.1451
 1.5770	85.2695
 1.5760	85.1640
 1.5750	85.2046
 1.5740	85.1960
 1.5730	85.2506
 1.5720	85.1770
 1.5710	85.1649
 1.5700	85.1835
 1.5690	85.1353
 1.5680	85.1873
 1.5670	85.1342
 1.5660	85.1183
 1.5650	85.1242
 1.5640	85.1413
 1.5630	85.1191
 1.5620	85.1332
 1.5610	85.0975
 1.5600	85.1114
 1.5590	85.1492
 1.5580	85.1355
 1.5570	85.0981
 1.5560	85.1178
 1.5550	85.1354
 1.5540	85.0608
 1.5530	85.0119
 1.5520	85.0436
 1.5510	85.0443
 1.5500	85.0004
 1.5490	85.0418
 1.5480	85.0076
 1.5470	84.9746
 1.5460	85.0517
 1.5450	85.0065
 1.5440	84.9514
 1.5430	84.9618
 1.5420	84.9093
 1.5410	84.9262
 1.5400	84.9497
 1.5390	84.8736
 1.5380	84.8538
 1.5370	84.8435
 1.5360	84.8948
 1.5350	84.8825
 1.5340	84.8791
 1.5330	84.8264
 1.5320	84.8024
 1.5310	84.8145
 1.5300	84.7944
 1.5290	84.7825
 1.5280	84.7875
 1.5270	84.7743
 1.5260	84.7566
 1.5250	84.6960
 1.5240	84.7041
 1.5230	84.6850
 1.5220	84.7163
 1.5210	84.7263
 1.5200	84.7126
 1.5190	84.7566
 1.5180	84.7428
 1.5170	84.6848
 1.5160	84.6451
 1.5150	84.6105
 1.5140	84.6168
 1.5130	84.6328
 1.5120	84.6252
 1.5110	84.6271
 1.5100	84.6289
 1.5090	84.6144
 1.5080	84.5865
 1.5070	84.6094
 1.5060	84.6726
 1.5050	84.6298
 1.5040	84.6269
 1.5030	84.6155
 1.5020	84.5557
 1.5010	84.5295
 1.5000	84.5545
 1.4990	84.5623
 1.4980	84.4879
 1.4970	84.4368
 1.4960	84.4139
 1.4950	84.4416
 1.4940	84.4751
 1.4930	84.4285
 1.4920	84.4052
 1.4910	84.4243
 1.4900	84.4019
 1.4890	84.4085
 1.4880	84.4084
 1.4870	84.3783
 1.4860	84.3289
 1.4850	84.3013
 1.4840	84.3426
 1.4830	84.3588
 1.4820	84.3239
 1.4810	84.3335
 1.4800	84.3473
 1.4790	84.3249
 1.4780	84.2716
 1.4770	84.1832
 1.4760	84.2405
 1.4750	84.2913
 1.4740	84.2794
 1.4730	84.3065
 1.4720	84.2324
 1.4710	84.2451
 1.4700	84.2606
 1.4690	84.2432
 1.4680	84.2240
 1.4670	84.1864
 1.4660	84.2184
 1.4650	84.2531
 1.4640	84.2295
 1.4630	84.2491
 1.4620	84.2431
 1.4610	84.2412
 1.4600	84.2152
 1.4590	84.2345
 1.4580	84.2581
 1.4570	84.2506
 1.4560	84.2300
 1.4550	84.2270
 1.4540	84.2961
 1.4530	84.2249
 1.4520	84.1992
 1.4510	84.2101
 1.4500	84.2199
 1.4490	84.2755
 1.4480	84.2431
 1.4470	84.3073
 1.4460	84.2966
 1.4450	84.2750
 1.4440	84.2989
 1.4430	84.3112
 1.4420	84.2725
 1.4410	84.2958
 1.4400	84.3359
 1.4390	84.2802
 1.4380	84.3463
 1.4370	84.4160
 1.4360	84.4009
 1.4350	84.3468
 1.4340	84.3602
 1.4330	84.3421
 1.4320	84.4279
 1.4310	84.3919
 1.4300	84.3631
 1.4290	83.7865
 1.4280	84.3040
 1.4270	84.5164
 1.4260	84.4971
 1.4250	84.4915
 1.4240	84.4729
 1.4230	84.5635
 1.4220	84.6253
 1.4210	84.6440
 1.4200	84.6247
 1.4190	84.5970
 1.4180	84.6029
 1.4170	84.6538
 1.4160	84.7908
 1.4150	84.7117
 1.4140	84.7995
 1.4130	84.7841
 1.4120	84.8309
 1.4110	84.8807
 1.4100	84.9062
 1.4090	85.0017
 1.4080	85.0354
 1.4070	85.0086
 1.4060	85.0491
 1.4050	85.0424
 1.4040	85.0859
 1.4030	85.0753
 1.4020	85.1444
 1.4010	85.2747
 1.4000	85.2767
 1.3990	85.2910
 1.3980	85.3733
 1.3970	85.3454
 1.3960	85.4425
 1.3950	85.5292
 1.3940	85.5262
 1.3930	85.4459
 1.3920	85.5396
 1.3910	85.6143
 1.3900	85.6260
 1.3890	85.6910
 1.3880	85.6692
 1.3870	85.6970
 1.3860	85.6390
 1.3850	85.7532
 1.3840	85.6234
 1.3830	85.6771
 1.3820	85.6833
 1.3810	85.7191
 1.3800	85.7067
 1.3790	85.7832
 1.3780	85.6715
 1.3770	85.7859
 1.3760	85.7789
 1.3750	85.7928
 1.3740	85.7551
 1.3730	85.8143
 1.3720	85.8314
 1.3710	85.7668
 1.3700	85.7469
 1.3690	85.8059
 1.3680	85.8319
 1.3670	85.6959
 1.3660	85.6971
 1.3650	85.8180
 1.3640	85.8609
 1.3630	85.7850
 1.3620	85.7772
 1.3610	85.8503
 1.3600	85.8054
 1.3590	85.7988
 1.3580	85.8156
 1.3570	85.7455
 1.3560	85.8455
 1.3550	85.7221
 1.3540	85.8552
 1.3530	85.8138
 1.3520	85.8348
 1.3510	85.8105
 1.3500	85.8085
 1.3490	85.8191
 1.3480	85.8062
 1.3470	85.7914
 1.3460	85.7915
 1.3450	85.8230
 1.3440	85.8090
 1.3430	85.8142
 1.3420	85.7965
 1.3410	85.8362
 1.3400	85.8346
 1.3390	85.8805
 1.3380	85.7793
 1.3370	85.7525
 1.3360	85.8820
 1.3350	85.7994
 1.3340	85.8026
 1.3330	85.7765
 1.3320	85.8581
 1.3310	85.7620
 1.3300	85.9179
 1.3290	85.8581
 1.3280	85.8520
 1.3270	85.7719
 1.3260	85.7381
 1.3250	85.8457
 1.3240	85.8061
 1.3230	85.8530
 1.3220	85.8784
 1.3210	85.8501
 1.3200	85.8580
 1.3190	85.8364
 1.3180	85.8590
 1.3170	85.8010
 1.3160	85.8204
 1.3150	85.8648
 1.3140	85.7980
 1.3130	85.8420
 1.3120	85.8727
 1.3110	85.9079
 1.3100	85.8114
 1.3090	85.8972
 1.3080	85.8500
 1.3070	85.8919
 1.3060	85.7886
 1.3050	85.8158
 1.3040	85.8437
 1.3030	85.8482
 1.3020	85.8173
 1.3010	85.8287
 1.3000	85.8036
 1.2990	85.7804
 1.2980	85.8577
 1.2970	85.9081
 1.2960	85.8461
 1.2950	85.8390
 1.2940	85.8742
 1.2930	85.8831
 1.2920	85.8761
 1.2910	85.9039
 1.2900	85.8175
 1.2890	85.8029
 1.2880	85.7545
 1.2870	85.7509
 1.2860	85.8377
 1.2850	85.8225
 1.2840	85.7989
 1.2830	85.7979
 1.2820	85.8109
 1.2810	85.7923
 1.2800	85.8638
 1.2790	85.7824
 1.2780	85.7544
 1.2770	85.7382
 1.2760	85.8394
 1.2750	85.8650
 1.2740	85.8198
 1.2730	85.8245
 1.2720	85.8084
 1.2710	85.8098
 1.2700	85.7779
 1.2690	85.8511
 1.2680	85.8740
 1.2670	85.7591
 1.2660	85.8080
 1.2650	85.8414
 1.2640	85.7895
 1.2630	85.7876
 1.2620	85.7325
 1.2610	85.6730
 1.2600	85.7702
 1.2590	85.7777
 1.2580	85.7511
 1.2570	85.7680
 1.2560	85.7664
 1.2550	85.7541
 1.2540	85.7665
 1.2530	85.7549
 1.2520	85.7628
 1.2510	85.7174
 1.2500	85.7096
 1.2490	85.7117
 1.2480	85.7051
 1.2470	85.6864
 1.2460	85.6987
 1.2450	85.7366
 1.2440	85.7449
 1.2430	85.7493
 1.2420	85.7374
 1.2410	85.6735
 1.2400	85.6784
 1.2390	85.7335
 1.2380	85.7414
 1.2370	85.7226
 1.2360	85.7135
 1.2350	85.7554
 1.2340	85.7129
 1.2330	85.7059
 1.2320	85.6955
 1.2310	85.6693
 1.2300	85.7107
 1.2290	85.7344
 1.2280	85.6902
 1.2270	85.6564
 1.2260	85.6602
 1.2250	85.7129
 1.2240	85.7348
 1.2230	85.7081
 1.2220	85.7270
 1.2210	85.7439
 1.2200	85.6864
 1.2190	85.7038
 1.2180	85.7029
 1.2170	85.6259
 1.2160	85.6316
 1.2150	85.5962
 1.2140	85.5914
 1.2130	85.6332
 1.2120	85.6661
 1.2110	85.7171
 1.2100	85.7052
 1.2090	85.6807
 1.2080	85.6500
 1.2070	85.6342
 1.2060	85.6647
 1.2050	85.7215
 1.2040	85.7320
 1.2030	85.6436
 1.2020	85.5949
 1.2010	85.6763
 1.2000	85.7021
 1.1990	85.6987
 1.1980	85.6949
 1.1970	85.6552
 1.1960	85.6415
 1.1950	85.6120
 1.1940	85.5638
 1.1930	85.6287
 1.1920	85.6445
 1.1910	85.6193
 1.1900	85.6109
 1.1890	85.6458
 1.1880	85.6408
 1.1870	85.6705
 1.1860	85.6860
 1.1850	85.6620
 1.1840	85.6970
 1.1830	85.6654
 1.1820	85.6122
 1.1810	85.6374
 1.1800	85.6515
 1.1790	85.6879
 1.1780	85.6665
 1.1770	85.7097
 1.1760	85.6895
 1.1750	85.6668
 1.1740	85.6604
 1.1730	85.6392
 1.1720	85.5828
 1.1710	85.5839
 1.1700	85.6118
 1.1690	85.6235
 1.1680	85.6469
 1.1670	85.6750
 1.1660	85.7666
 1.1650	85.7227
 1.1640	85.6665
 1.1630	85.6163
 1.1620	85.6140
 1.1610	85.7555
 1.1600	85.7456
 1.1590	85.6637
 1.1580	85.6539
 1.1570	85.6765
 1.1560	85.7034
 1.1550	85.6730
 1.1540	85.7004
 1.1530	85.6344
 1.1520	85.6827
 1.1510	85.6535
 1.1500	85.6737
 1.1490	85.6819
 1.1480	85.7323
 1.1470	85.7006
 1.1460	85.6875
 1.1450	85.6973
 1.1440	85.6869
 1.1430	85.6772
 1.1420	85.7347
 1.1410	85.6423
 1.1400	85.6734
 1.1390	85.7202
 1.1380	85.7508
 1.1370	85.7257
 1.1360	85.7051
 1.1350	85.6574
 1.1340	85.7237
 1.1330	85.6833
 1.1320	85.7137
 1.1310	85.6466
 1.1300	85.7454
 1.1290	85.7209
 1.1280	85.7040
 1.1270	85.7332
 1.1260	85.7409
 1.1250	85.7406
 1.1240	85.7127
 1.1230	85.7721
 1.1220	85.7320
 1.1210	85.7027
 1.1200	85.7064
 1.1190	85.7712
 1.1180	85.7605
 1.1170	85.6835
 1.1160	85.7600
 1.1150	85.6471
 1.1140	85.6372
 1.1130	85.6401
 1.1120	85.6619
 1.1110	85.7638
 1.1100	85.6442
 1.1090	85.6625
 1.1080	85.6865
 1.1070	85.6883
 1.1060	85.6953
 1.1050	85.7461
 1.1040	85.7892
 1.1030	85.6468
 1.1020	85.6778
 1.1010	85.6762
 1.1000	85.6922
 1.0990	85.6842
 1.0980	85.6879
 1.0970	85.5965
 1.0960	85.7318
 1.0950	85.7091
 1.0940	85.7717
 1.0930	85.6649
 1.0920	85.6196
 1.0910	85.6034
 1.0900	85.7574
 1.0890	85.7106
 1.0880	85.6586
 1.0870	85.6769
 1.0860	85.6940
 1.0850	85.6430
 1.0840	85.6373
 1.0830	85.7150
 1.0820	85.8005
 1.0810	85.6617
 1.0800	85.7290
 1.0790	85.7099
 1.0780	85.7719
 1.0770	85.6680
 1.0760	85.7198
 1.0750	85.6832
 1.0740	85.7983
 1.0730	85.6924
 1.0720	85.6900
 1.0710	85.6544
 1.0700	85.6363
 1.0690	85.7159
 1.0680	85.6835
 1.0670	85.6663
 1.0660	85.7027
 1.0650	85.7146
 1.0640	85.6196
 1.0630	85.7213
 1.0620	85.6538
 1.0610	85.6883
 1.0600	85.7234
 1.0590	85.6387
 1.0580	85.6431
 1.0570	85.6735
 1.0560	85.6810
 1.0550	85.7009
 1.0540	85.6548
 1.0530	85.6123
 1.0520	85.6495
 1.0510	85.7257
 1.0500	85.7398
 1.0490	85.7145
 1.0480	85.6188
 1.0470	85.7084
 1.0460	85.7285
 1.0450	85.7060
 1.0440	85.6223
 1.0430	85.6313
 1.0420	85.7227
 1.0410	85.6339
 1.0400	85.6628
 1.0390	85.6526
 1.0380	85.6629
 1.0370	85.6913
 1.0360	85.7065
 1.0350	85.6714
 1.0340	85.6372
 1.0330	85.7188
 1.0320	85.6012
 1.0310	85.5801
 1.0300	85.6337
 1.0290	85.7076
 1.0280	85.7669
 1.0270	85.6101
 1.0260	85.6245
 1.0250	85.6939
 1.0240	85.6299
 1.0230	85.6063
 1.0220	85.6461
 1.0210	85.5439
 1.0200	85.6425
 1.0190	85.7768
 1.0180	85.6799
 1.0170	85.6503
 1.0160	85.7076
 1.0150	85.6139
 1.0140	85.6051
 1.0130	85.6572
 1.0120	85.5941
 1.0110	85.5933
 1.0100	85.6457
 1.0090	85.6355
 1.0080	85.6120
 1.0070	85.5666
 1.0060	85.5970
 1.0050	85.5463
 1.0040	85.6409
 1.0030	85.6437
 1.0020	85.6528
 1.0010	85.6517
 1.0000	85.5630
 0.9990	85.6002
 0.9980	85.5420
 0.9970	85.5804
 0.9960	85.6246
 0.9950	85.5805
 0.9940	85.5564
 0.9930	85.5505
 0.9920	85.5263
 0.9910	85.6208
 0.9900	85.5923
 0.9890	85.6023
 0.9880	85.5862
 0.9870	85.6138
 0.9860	85.6017
 0.9850	85.5904
 0.9840	85.5604
 0.9830	85.5449
 0.9820	85.5313
 0.9810	85.5816
 0.9800	85.5542
 0.9790	85.5142
 0.9780	85.5637
 0.9770	85.6059
 0.9760	85.5990
 0.9750	85.5487
 0.9740	85.4781
 0.9730	85.4785
 0.9720	85.5656
 0.9710	85.5613
 0.9700	85.4854
 0.9690	85.4950
 0.9680	85.4944
 0.9670	85.5326
 0.9660	85.5173
 0.9650	85.4881
 0.9640	85.5297
 0.9630	85.5382
 0.9620	85.5704
 0.9610	85.5079
 0.9600	85.5294
 0.9590	85.5221
 0.9580	85.4692
 0.9570	85.5190
 0.9560	85.4760
 0.9550	85.4667
 0.9540	85.4717
 0.9530	85.4453
 0.9520	85.4696
 0.9510	85.4913
 0.9500	85.5413
 0.9490	85.5223
 0.9480	85.4924
 0.9470	85.5140
 0.9460	85.5042
 0.9450	85.4966
 0.9440	85.5169
 0.9430	85.5088
 0.9420	85.5528
 0.9410	85.5722
 0.9400	85.4638
 0.9390	85.4595
 0.9380	85.5212
 0.9370	85.4969
 0.9360	85.4821
 0.9350	85.5283
 0.9340	85.5647
 0.9330	85.4876
 0.9320	85.4777
 0.9310	85.5023
 0.9300	85.4413
 0.9290	85.4471
 0.9280	85.4625
 0.9270	85.4137
 0.9260	85.3649
 0.9250	85.4427
 0.9240	85.4552
 0.9230	85.4126
 0.9220	85.4254
 0.9210	85.4492
 0.9200	85.4423
 0.9190	85.3953
 0.9180	85.3920
 0.9170	85.4746
 0.9160	85.5058
 0.9150	85.4199
 0.9140	85.3631
 0.9130	85.4088
 0.9120	85.3820
 0.9110	85.3786
 0.9100	85.3822
 0.9090	85.3764
 0.9080	85.4156
 0.9070	85.3272
 0.9060	85.2908
 0.9050	85.3180
 0.9040	85.2957
 0.9030	85.3256
 0.9020	85.3604
 0.9010	85.3946
 0.9000	85.4248
 0.8990	85.4178
 0.8980	85.3807
 0.8970	85.3988
 0.8960	85.4211
 0.8950	85.3934
 0.8940	85.3137
 0.8930	85.3803
 0.8920	85.3855
 0.8910	85.3487
 0.8900	85.3534
 0.8890	85.3176
 0.8880	85.3082
 0.8870	85.3285
 0.8860	85.3646
 0.8850	85.3366
 0.8840	85.3249
 0.8830	85.3561
 0.8820	85.3383
 0.8810	85.2678
 0.8800	85.3011
 0.8790	85.3294
 0.8780	85.2909
 0.8770	85.3101
 0.8760	85.3150
 0.8750	85.2717
 0.8740	85.2197
 0.8730	85.2967
 0.8720	85.2840
 0.8710	85.2504
 0.8700	85.2949
 0.8690	85.3254
 0.8680	85.2276
 0.8670	85.2303
 0.8660	85.2397
 0.8650	85.2248
 0.8640	85.2640
 0.8630	85.2588
 0.8620	85.2301
 0.8610	85.2078
 0.8600	85.7269
 0.8590	85.7402
 0.8580	85.2622
 0.8570	85.6048
 0.8560	85.7978
 0.8550	85.3867
 0.8540	85.4663
 0.8530	85.6793
 0.8520	85.5637
 0.8510	85.4000
 0.8500	85.5036
 0.8490	85.7629
 0.8480	85.4469
 0.8470	85.5203
 0.8460	85.7440
 0.8450	85.4807
 0.8440	85.5039
 0.8430	85.6113
 0.8420	85.5383
 0.8410	85.4930
 0.8400	85.6650
 0.8390	85.7189
 0.8380	85.4578
 0.8370	85.5570
 0.8360	85.6526
 0.8350	85.4645
 0.8340	85.4876
 0.8330	85.6527
 0.8320	85.4829
 0.8310	85.4766
 0.8300	85.5717
 0.8290	85.5805
 0.8280	85.4521
 0.8270	85.4981
 0.8260	85.6370
 0.8250	85.4576
 0.8240	85.4894
 0.8230	85.6314
 0.8220	85.5440
 0.8210	85.4757
 0.8200	85.6589
 0.8190	85.6667
 0.8180	85.4235
 0.8170	85.4970
 0.8160	85.6080
 0.8150	85.4173
 0.8140	85.5326
 0.8130	85.6324
 0.8120	85.3832
 0.8110	85.4820
 0.8100	85.5776
 0.8090	85.5723
 0.8080	85.4412
 0.8070	85.5583
 0.8060	85.6357
 0.8050	85.4621
 0.8040	85.5114
 0.8030	85.5746
 0.8020	85.4785
 0.8010	85.4701
 0.8000	85.6098
 0.7990	85.5320
 0.7980	85.4398
 0.7970	85.5033
 0.7960	85.5409
 0.7950	85.3674
 0.7940	85.4146
 0.7930	85.5039
 0.7920	85.3857
 0.7910	85.4242
 0.7900	85.4692
 0.7890	85.4401
 0.7880	85.3573
 0.7870	85.4626
 0.7860	85.4923
 0.7850	85.3123
 0.7840	85.4106
 0.7830	85.4855
 0.7820	85.3659
 0.7810	85.4081
 0.7800	85.4827
 0.7790	85.3751
 0.7780	85.3521
 0.7770	85.4204
 0.7760	85.4346
 0.7750	85.3283
 0.7740	85.3725
 0.7730	85.4200
 0.7720	85.2965
 0.7710	85.2961
 0.7700	85.3975
 0.7690	85.3111
 0.7680	85.3034
 0.7670	85.3714
 0.7660	85.3704
 0.7650	85.2924
 0.7640	85.3205
 0.7630	85.3871
 0.7620	85.2768
 0.7610	85.3362
 0.7600	85.3583
 0.7590	85.2918
 0.7580	85.2913
 0.7570	85.3303
 0.7560	85.2893
 0.7550	85.2903
 0.7540	85.2776
 0.7530	85.3587
 0.7520	85.2570
 0.7510	85.3057
 0.7500	85.3030
 0.7490	85.2769
 0.7480	85.2872
 0.7470	85.2880
 0.7460	85.2797
 0.7450	85.2613
 0.7440	85.2979
 0.7430	85.2777
 0.7420	85.2012
 0.7410	85.2858
 0.7400	85.2735
 0.7390	85.2380
 0.7380	85.1984
 0.7370	85.2681
 0.7360	85.2073
 0.7350	85.2190
 0.7340	85.2139
 0.7330	85.1946
 0.7320	85.1807
 0.7310	85.2315
 0.7300	85.2422
 0.7290	85.1530
 0.7280	85.1822
 0.7270	85.2094
 0.7260	85.1828
 0.7250	85.1803
 0.7240	85.1722
 0.7230	85.1788
 0.7220	85.1488
 0.7210	85.1665
 0.7200	85.1494
 0.7190	85.1353
 0.7180	85.1589
 0.7170	85.1674
 0.7160	85.1317
 0.7150	85.1086
 0.7140	85.1408
 0.7130	85.1065
 0.7120	85.1022
 0.7110	85.1202
 0.7100	85.0953
 0.7090	85.0584
 0.7080	85.0899
 0.7070	85.1171
 0.7060	85.0729
 0.7050	85.0697
 0.7040	85.0793
 0.7030	85.0618
 0.7020	85.0542
 0.7010	85.0557
 0.7000	85.0319
 0.6990	85.0127
 0.6980	85.0431
 0.6970	85.0074
 0.6960	84.9907
 0.6950	85.0407
 0.6940	85.0204
 0.6930	84.9725
 0.6920	84.9988
 0.6910	84.9930
 0.6900	84.9525
 0.6890	84.9655
 0.6880	84.9783
 0.6870	84.9534
 0.6860	84.9194
 0.6850	84.9350
 0.6840	84.9528
 0.6830	84.9227
 0.6820	84.9150
 0.6810	84.9316
 0.6800	84.9330
 0.6790	84.9021
 0.6780	84.9153
 0.6770	84.9051
 0.6760	84.8889
 0.6750	84.8768
 0.6740	84.8606
 0.6730	84.8478
 0.6720	84.8492
 0.6710	84.8531
 0.6700	84.8359
 0.6690	84.8167
 0.6680	84.8251
 0.6670	84.8100
 0.6660	84.7937
 0.6650	84.8049
 0.6640	84.7932
 0.6630	84.7846
 0.6620	84.7833
 0.6610	84.7584
 0.6600	84.7558
 0.6590	84.7534
 0.6580	84.7383
 0.6570	84.7108
 0.6560	84.6994
 0.6550	84.6966
 0.6540	84.6875
 0.6530	84.6786
 0.6520	84.6635
 0.6510	84.6265
 0.6500	84.6293
 0.6490	84.6430
 0.6480	84.6324
 0.6470	84.6189
 0.6460	84.6072
 0.6450	84.6019
 0.6440	84.5875
 0.6430	84.5759
 0.6420	84.5698
 0.6410	84.5475
 0.6400	84.5462
 0.6390	84.5414
 0.6380	84.5335
 0.6370	84.5168
 0.6360	84.5070
 0.6350	84.5037
 0.6340	84.4844
 0.6330	84.4754
 0.6320	84.4772
 0.6310	84.4574
 0.6300	84.4299
 0.6290	84.4150
 0.6280	84.3985
 0.6270	84.3869
 0.6260	84.3793
 0.6250	84.3625
 0.6240	84.3480
 0.6230	84.3375
 0.6220	84.3334
 0.6210	84.3102
 0.6200	84.2943
 0.6190	84.2929
 0.6180	84.2748
 0.6170	84.2690
 0.6160	84.2506
 0.6150	84.2365
 0.6140	84.2131
 0.6130	84.1884
 0.6120	84.1788
 0.6110	84.1644
 0.6100	84.1540
 0.6090	84.1413
 0.6080	84.1287
 0.6070	84.1124
 0.6060	84.0972
 0.6050	84.0756
 0.6040	84.0583
 0.6030	84.0345
 0.6020	84.0207
 0.6010	84.0094
 0.6000	84.0143
 0.5990	84.0052
 0.5980	84.0057
 0.5970	84.0225
 0.5960	84.0076
 0.5950	83.9991
 0.5940	83.9980
 0.5930	83.9898
 0.5920	83.9567
 0.5910	83.9282
 0.5900	83.9274
 0.5890	83.9096
 0.5880	83.8833
 0.5870	83.8736
 0.5860	83.8546
 0.5850	83.8290
 0.5840	83.8286
 0.5830	83.8079
 0.5820	83.7698
 0.5810	83.7602
 0.5800	83.7394
 0.5790	83.7143
 0.5780	83.7075
 0.5770	83.6943
 0.5760	83.6645
 0.5750	83.6437
 0.5740	83.6319
 0.5730	83.6069
 0.5720	83.5744
 0.5710	83.5568
 0.5700	83.5431
 0.5690	83.5127
 0.5680	83.4936
 0.5670	83.4722
 0.5660	83.4426
 0.5650	83.4260
 0.5640	83.3933
 0.5630	83.3800
 0.5620	83.3523
 0.5610	83.3454
 0.5600	83.3088
 0.5590	83.2930
 0.5580	83.2405
 0.5570	83.2301
 0.5560	83.2161
 0.5550	83.1957
 0.5540	83.1684
 0.5530	83.1320
 0.5520	83.1003
 0.5510	83.0748
 0.5500	83.0410
 0.5490	83.0164
 0.5480	82.9875
 0.5470	82.9659
 0.5460	82.9319
 0.5450	82.9112
 0.5440	82.8710
 0.5430	82.8416
 0.5420	82.8206
 0.5410	82.7857
 0.5400	82.7332
 0.5390	82.7298
 0.5380	82.6974
 0.5370	82.6542
 0.5360	82.6330
 0.5350	82.5875
 0.5340	82.5632
 0.5330	82.5144
 0.5320	82.4920
 0.5310	82.4477
 0.5300	82.4191
 0.5290	82.3835
 0.5280	82.3364
 0.5270	82.2911
 0.5260	82.2662
 0.5250	82.2178
 0.5240	82.1852
 0.5230	82.1423
 0.5220	82.1078
 0.5210	82.0812
 0.5200	82.0208
 0.5190	81.9900
 0.5180	81.9628
 0.5170	81.9005
 0.5160	81.8634
 0.5150	81.8309
 0.5140	81.7726
 0.5130	81.7200
 0.5120	81.6731
 0.5110	81.6485
 0.5100	81.5859
 0.5090	81.5410
 0.5080	81.5016
 0.5070	81.4462
 0.5060	81.3798
 0.5050	81.3525
 0.5040	81.3096
 0.5030	81.2168
 0.5020	81.2057
 0.5010	81.1596
 0.5000	81.0812
 0.4990	81.0125
 0.4980	80.9842
 0.4970	80.9256
 0.4960	80.8651
 0.4950	80.8369
 0.4940	80.7702
 0.4930	80.6844
 0.4920	80.6350
 0.4910	80.6104
 0.4900	80.4809
 0.4890	80.4714
 0.4880	80.4423
 0.4870	80.3609
 0.4860	80.2893
 0.4850	80.2853
 0.4840	80.1938
 0.4830	80.1232
 0.4820	80.0669
 0.4810	79.9697
 0.4800	79.9063
 0.4790	79.8744
 0.4780	79.8117
 0.4770	79.7384
 0.4760	79.6746
 0.4750	79.6300
 0.4740	79.5457
 0.4730	79.5089
 0.4720	79.4362
 0.4710	79.3598
 0.4700	79.2929
 0.4690	79.2547
 0.4680	79.1633
 0.4670	79.1037
 0.4660	79.0414
 0.4650	78.9584
 0.4640	78.9149
 0.4630	78.8458
 0.4620	78.7808
 0.4610	78.7148
 0.4600	78.6646
 0.4590	78.5843
 0.4580	78.5202
 0.4570	78.4738
 0.4560	78.3918
 0.4550	78.3020
 0.4540	78.2510
 0.4530	78.1933
 0.4520	78.1052
 0.4510	78.0324
 0.4500	77.9716
 0.4490	77.9053
 0.4480	77.8161
 0.4470	77.7641
 0.4460	77.7034
 0.4450	77.5973
 0.4440	77.5568
 0.4430	77.4665
 0.4420	77.3762
 0.4410	77.3116
 0.4400	77.2468
 0.4390	77.1750
 0.4380	77.1003
 0.4370	77.0225
 0.4360	76.9512
 0.4350	76.8669
 0.4340	76.7809
 0.4330	76.7189
 0.4320	76.6470
 0.4310	76.5488
 0.4300	76.4781
 0.4290	76.4177
 0.4280	76.3040
 0.4270	76.2673
 0.4260	76.1918
 0.4250	76.0964
 0.4240	76.0279
 0.4230	75.9565
 0.4220	75.8460
 0.4210	75.7743
 0.4200	75.6975
 0.4190	75.5929
 0.4180	75.5000
 0.4170	75.4409
 0.4160	75.3531
 0.4150	75.2547
 0.4140	75.1878
 0.4130	75.1154
 0.4120	75.0247
 0.4110	74.9126
 0.4100	74.8273
 0.4090	74.7531
 0.4080	74.6461
 0.4070	74.5709
 0.4060	74.4771
 0.4050	74.3602
 0.4040	74.2728
 0.4030	74.2012
 0.4020	74.0720
 0.4010	73.9621
 0.4000	73.8797
