Name: Sphalerite (Zn,Fe)S
Type: Mineral
Class: Sulfide
Subclass: None
Particle Size: Coarse
Sample No.: S-1A
Owner: JPL
Wavelength Range: VSWIR
Origin: USA, Oklahoma, Ottawa County, Picher
Collection Date: N/A
Description: Particle size was 125-500um.Collected by JPL Original ASTER Spectral Library name was jpl.beckman.mineral.sulfide.none.coarse.s01a.spectrum.txt
Measurement: Hemispherical reflectance
First Column: X
Second Column: Y
X Units: Wavelength (micrometers)
Y Units:Reflectance (percent)
First X Value:  0.4000
Last X Value:  2.5000
Number of X Values: 826
Additional Information: mineral.sulfide.none.coarse.vswir.s-1a.jpl.beckman.ancillary.txt

 0.4000	10.0300
 0.4010	 9.9500
 0.4020	 9.8700
 0.4030	 9.9200
 0.4040	10.0500
 0.4050	10.0600
 0.4060	 9.9800
 0.4070	 9.9300
 0.4080	10.0400
 0.4090	10.0100
 0.4100	 9.9600
 0.4110	10.0400
 0.4120	 9.9800
 0.4130	 9.9800
 0.4140	 9.9100
 0.4150	10.0400
 0.4160	10.1100
 0.4170	 9.9800
 0.4180	 9.9700
 0.4190	 9.9500
 0.4200	10.1400
 0.4210	 9.9800
 0.4220	 9.8700
 0.4230	10.0300
 0.4240	 9.9600
 0.4250	10.0200
 0.4260	 9.9500
 0.4270	10.0200
 0.4280	10.0300
 0.4290	 9.9300
 0.4300	 9.9700
 0.4310	 9.9500
 0.4320	10.0100
 0.4330	 9.9900
 0.4340	 9.9400
 0.4350	10.0000
 0.4360	 9.9900
 0.4370	10.0800
 0.4380	10.0200
 0.4390	10.0200
 0.4400	 9.9700
 0.4410	 9.9600
 0.4420	10.0800
 0.4430	10.1400
 0.4440	10.0600
 0.4450	10.0000
 0.4460	10.1100
 0.4470	10.1800
 0.4480	10.2000
 0.4490	10.1200
 0.4500	10.0600
 0.4510	10.2500
 0.4520	10.2600
 0.4530	10.1200
 0.4540	10.2200
 0.4550	10.2100
 0.4560	10.1700
 0.4570	10.2000
 0.4580	10.3700
 0.4590	10.3500
 0.4600	10.3300
 0.4610	10.3800
 0.4620	10.3600
 0.4630	10.4100
 0.4640	10.2800
 0.4650	10.3400
 0.4660	10.3700
 0.4670	10.3500
 0.4680	10.4500
 0.4690	10.5200
 0.4700	10.5900
 0.4710	10.5300
 0.4720	10.5400
 0.4730	10.7200
 0.4740	10.6000
 0.4750	10.6000
 0.4760	10.7200
 0.4770	10.8100
 0.4780	10.9700
 0.4790	10.8400
 0.4800	10.8400
 0.4810	10.9400
 0.4820	10.8000
 0.4830	10.9700
 0.4840	11.0700
 0.4850	10.9900
 0.4860	11.0500
 0.4870	11.0400
 0.4880	11.0900
 0.4890	11.1400
 0.4900	11.1200
 0.4910	11.1100
 0.4920	11.1400
 0.4930	11.2400
 0.4940	11.2300
 0.4950	11.2700
 0.4960	11.3800
 0.4970	11.3100
 0.4980	11.3000
 0.4990	11.4200
 0.5000	11.4700
 0.5010	11.5200
 0.5020	11.4600
 0.5030	11.6300
 0.5040	11.6700
 0.5050	11.6000
 0.5060	11.8200
 0.5070	11.8800
 0.5080	11.8300
 0.5090	11.8200
 0.5100	11.9300
 0.5110	12.1000
 0.5120	12.0500
 0.5130	12.0100
 0.5140	12.1400
 0.5150	12.2600
 0.5160	12.3800
 0.5170	12.3900
 0.5180	12.3700
 0.5190	12.4900
 0.5200	12.4500
 0.5210	12.5600
 0.5220	12.7100
 0.5230	12.7000
 0.5240	12.7600
 0.5250	12.6600
 0.5260	12.8800
 0.5270	12.9700
 0.5280	13.0200
 0.5290	13.0700
 0.5300	12.9500
 0.5310	13.1400
 0.5320	13.2100
 0.5330	13.2000
 0.5340	13.3400
 0.5350	13.3100
 0.5360	13.4000
 0.5370	13.5300
 0.5380	13.5200
 0.5390	13.7000
 0.5400	13.5700
 0.5410	13.6200
 0.5420	13.8400
 0.5430	13.7200
 0.5440	13.9400
 0.5450	13.9700
 0.5460	13.9400
 0.5470	14.0400
 0.5480	14.1100
 0.5490	14.1600
 0.5500	14.3300
 0.5510	14.3100
 0.5520	14.3800
 0.5530	14.3500
 0.5540	14.5500
 0.5550	14.6700
 0.5560	14.5900
 0.5570	14.7100
 0.5580	14.6700
 0.5590	14.7600
 0.5600	14.7200
 0.5610	15.0400
 0.5620	15.0300
 0.5630	15.1900
 0.5640	15.1300
 0.5650	15.1200
 0.5660	15.3200
 0.5670	15.2200
 0.5680	15.3100
 0.5690	15.1300
 0.5700	15.3300
 0.5710	15.4300
 0.5720	15.3900
 0.5730	15.4500
 0.5740	15.3500
 0.5750	15.5700
 0.5760	15.5900
 0.5770	15.5100
 0.5780	15.6000
 0.5790	15.6000
 0.5800	15.6900
 0.5810	15.6800
 0.5820	15.7500
 0.5830	15.8300
 0.5840	15.7600
 0.5850	15.8200
 0.5860	15.8900
 0.5870	16.0500
 0.5880	15.9000
 0.5890	15.9500
 0.5900	16.0400
 0.5910	16.0500
 0.5920	16.0100
 0.5930	16.0500
 0.5940	16.2200
 0.5950	16.1700
 0.5960	16.0600
 0.5970	16.2200
 0.5980	16.3100
 0.5990	16.3100
 0.6000	16.3600
 0.6010	16.3700
 0.6020	16.4300
 0.6030	16.4900
 0.6040	16.5400
 0.6050	16.4800
 0.6060	16.5900
 0.6070	16.5400
 0.6080	16.6400
 0.6090	16.6200
 0.6100	16.6500
 0.6110	16.7000
 0.6120	16.5900
 0.6130	16.6500
 0.6140	16.6600
 0.6150	16.7700
 0.6160	16.7000
 0.6170	16.6400
 0.6180	16.6600
 0.6190	16.6300
 0.6200	16.6200
 0.6210	16.6700
 0.6220	16.7500
 0.6230	16.6800
 0.6240	16.6800
 0.6250	16.7500
 0.6260	16.6700
 0.6270	16.7800
 0.6280	16.6300
 0.6290	16.7100
 0.6300	16.8500
 0.6310	16.7400
 0.6320	16.7900
 0.6330	16.7000
 0.6340	16.7500
 0.6350	16.8500
 0.6360	16.7900
 0.6370	16.8900
 0.6380	16.8300
 0.6390	16.8900
 0.6400	16.8200
 0.6410	17.0100
 0.6420	17.0400
 0.6430	16.9700
 0.6440	17.0800
 0.6450	16.9800
 0.6460	17.1300
 0.6470	17.2100
 0.6480	17.1100
 0.6490	17.2300
 0.6500	17.1600
 0.6510	17.3100
 0.6520	17.3900
 0.6530	17.2800
 0.6540	17.4300
 0.6550	17.3900
 0.6560	17.4900
 0.6570	17.5500
 0.6580	17.5200
 0.6590	17.6200
 0.6600	17.5700
 0.6610	17.6900
 0.6620	17.7400
 0.6630	17.7300
 0.6640	17.8300
 0.6650	17.8700
 0.6660	18.0300
 0.6670	18.1200
 0.6680	18.1400
 0.6690	18.2000
 0.6700	18.1800
 0.6710	18.3200
 0.6720	18.3700
 0.6730	18.4100
 0.6740	18.4600
 0.6750	18.4400
 0.6760	18.5300
 0.6770	18.5600
 0.6780	18.5600
 0.6790	18.6700
 0.6800	18.6100
 0.6810	18.7600
 0.6820	18.8400
 0.6830	18.9100
 0.6840	18.9300
 0.6850	18.9200
 0.6860	19.0400
 0.6870	19.0500
 0.6880	19.1900
 0.6890	19.2800
 0.6900	19.2400
 0.6910	19.3200
 0.6920	19.4600
 0.6930	19.6000
 0.6940	19.4700
 0.6950	19.6300
 0.6960	19.7500
 0.6970	19.8400
 0.6980	19.9000
 0.6990	19.9700
 0.7000	20.0500
 0.7010	19.9400
 0.7020	20.0500
 0.7030	20.1900
 0.7040	20.3000
 0.7050	20.4300
 0.7060	20.5100
 0.7070	20.5800
 0.7080	20.6500
 0.7090	20.7100
 0.7100	20.9100
 0.7110	20.9600
 0.7120	21.0500
 0.7130	21.0400
 0.7140	21.2600
 0.7150	21.3700
 0.7160	21.4900
 0.7170	21.5100
 0.7180	21.5600
 0.7190	21.7400
 0.7200	21.8500
 0.7210	21.9100
 0.7220	21.9100
 0.7230	21.9800
 0.7240	22.1600
 0.7250	22.3200
 0.7260	22.3500
 0.7270	22.4200
 0.7280	22.4100
 0.7290	22.4000
 0.7300	22.5100
 0.7310	22.7300
 0.7320	22.6800
 0.7330	22.8600
 0.7340	22.9700
 0.7350	22.9700
 0.7360	22.9700
 0.7370	22.9600
 0.7380	23.1000
 0.7390	23.2800
 0.7400	23.2200
 0.7410	23.2300
 0.7420	23.3500
 0.7430	23.4400
 0.7440	23.4600
 0.7450	23.4500
 0.7460	23.6400
 0.7470	23.7400
 0.7480	23.6800
 0.7490	23.7200
 0.7500	23.8400
 0.7510	23.9100
 0.7520	23.9600
 0.7530	23.8400
 0.7540	24.0500
 0.7550	24.0200
 0.7560	24.1000
 0.7570	24.0700
 0.7580	24.2100
 0.7590	24.1600
 0.7600	24.1600
 0.7610	24.3100
 0.7620	24.3200
 0.7630	24.4500
 0.7640	24.4100
 0.7650	24.4200
 0.7660	24.5100
 0.7670	24.5200
 0.7680	24.6400
 0.7690	24.5500
 0.7700	24.5900
 0.7710	24.6800
 0.7720	24.6600
 0.7730	24.8200
 0.7740	24.7100
 0.7750	24.7600
 0.7760	24.8900
 0.7770	24.7800
 0.7780	24.9900
 0.7790	25.0000
 0.7800	25.0100
 0.7810	24.9400
 0.7820	25.0700
 0.7830	25.0900
 0.7840	25.1500
 0.7850	25.1100
 0.7860	25.1700
 0.7870	25.3100
 0.7880	25.1500
 0.7890	25.2200
 0.7900	25.3200
 0.7910	25.2700
 0.7920	25.2400
 0.7930	25.2700
 0.7940	25.4500
 0.7950	25.5200
 0.7960	25.4200
 0.7970	25.5000
 0.7980	25.4700
 0.7990	25.6100
 0.8000	26.0200
 0.8040	26.1300
 0.8080	26.2000
 0.8120	26.4300
 0.8160	26.6000
 0.8200	26.6900
 0.8240	26.7800
 0.8280	26.9500
 0.8320	27.1400
 0.8360	27.2000
 0.8400	27.3500
 0.8440	27.4900
 0.8480	27.6100
 0.8520	27.7400
 0.8560	27.9400
 0.8600	28.1600
 0.8640	28.3000
 0.8680	28.4500
 0.8720	28.5500
 0.8760	28.7300
 0.8800	28.9100
 0.8840	29.0600
 0.8880	29.1800
 0.8920	29.2800
 0.8960	29.5000
 0.9000	29.6400
 0.9040	29.7300
 0.9080	29.7800
 0.9120	30.0000
 0.9160	30.1800
 0.9200	30.2100
 0.9240	30.3600
 0.9280	30.4900
 0.9320	30.5200
 0.9360	30.6500
 0.9400	30.7000
 0.9440	30.8200
 0.9480	30.8800
 0.9520	30.8800
 0.9560	31.0200
 0.9600	31.0600
 0.9640	31.1600
 0.9680	31.2000
 0.9720	31.1800
 0.9760	31.1800
 0.9800	31.2400
 0.9840	31.2400
 0.9880	31.2600
 0.9920	31.3200
 0.9960	31.3400
 1.0000	31.4200
 1.0040	31.4200
 1.0080	31.4200
 1.0120	31.4400
 1.0160	31.4600
 1.0200	31.5000
 1.0240	31.5400
 1.0280	31.4600
 1.0320	31.5200
 1.0360	31.5800
 1.0400	31.6200
 1.0440	31.6000
 1.0480	31.6000
 1.0520	31.6000
 1.0560	31.6400
 1.0600	31.6400
 1.0640	31.7000
 1.0680	31.6400
 1.0720	31.7000
 1.0760	31.6600
 1.0800	31.6800
 1.0840	31.7200
 1.0880	31.7500
 1.0920	31.7300
 1.0960	31.7900
 1.1000	31.7100
 1.1040	31.6900
 1.1080	31.7300
 1.1120	31.8300
 1.1160	31.7700
 1.1200	31.7900
 1.1240	31.7700
 1.1280	31.7900
 1.1320	31.8000
 1.1360	31.8100
 1.1400	31.8000
 1.1440	31.8600
 1.1480	31.7800
 1.1520	31.8200
 1.1560	31.8100
 1.1600	31.7900
 1.1640	31.8300
 1.1680	31.7700
 1.1720	31.7500
 1.1760	31.7600
 1.1800	31.7600
 1.1840	31.7600
 1.1880	31.7100
 1.1920	31.7500
 1.1960	31.7500
 1.2000	31.6900
 1.2040	31.7700
 1.2080	31.7500
 1.2120	31.7500
 1.2160	31.8100
 1.2200	31.8900
 1.2240	31.7900
 1.2280	31.8300
 1.2320	31.7900
 1.2360	31.8600
 1.2400	31.7600
 1.2440	31.7600
 1.2480	31.8200
 1.2520	31.7800
 1.2560	31.8300
 1.2600	31.8500
 1.2640	31.8500
 1.2680	31.7800
 1.2720	31.7400
 1.2760	31.8200
 1.2800	31.8000
 1.2840	31.8500
 1.2880	31.8100
 1.2920	31.7900
 1.2960	31.7700
 1.3000	31.7800
 1.3040	31.7400
 1.3080	31.7000
 1.3120	31.6800
 1.3160	31.6900
 1.3200	31.6500
 1.3240	31.6500
 1.3280	31.6100
 1.3320	31.6100
 1.3360	31.6400
 1.3400	31.6200
 1.3440	31.6400
 1.3480	31.5900
 1.3520	31.6700
 1.3560	31.5500
 1.3600	31.6600
 1.3640	31.5800
 1.3680	31.5700
 1.3720	31.6500
 1.3760	31.5700
 1.3800	31.5400
 1.3840	31.6200
 1.3880	31.6300
 1.3920	31.5700
 1.3960	31.5500
 1.4000	31.6100
 1.4040	31.5200
 1.4080	31.5400
 1.4120	31.5800
 1.4160	31.4500
 1.4200	31.5300
 1.4240	31.5100
 1.4280	31.4600
 1.4320	31.5200
 1.4360	31.5100
 1.4400	31.5100
 1.4440	31.4500
 1.4480	31.5000
 1.4520	31.4800
 1.4560	31.4900
 1.4600	31.4800
 1.4640	31.5100
 1.4680	31.5000
 1.4720	31.4800
 1.4760	31.4600
 1.4800	31.5100
 1.4840	31.4600
 1.4880	31.4800
 1.4920	31.4400
 1.4960	31.4000
 1.5000	31.4000
 1.5040	31.3000
 1.5080	31.2800
 1.5120	31.3800
 1.5160	31.2800
 1.5200	31.3800
 1.5240	31.3000
 1.5280	31.2800
 1.5320	31.3400
 1.5360	31.3800
 1.5400	31.2800
 1.5440	31.3200
 1.5480	31.3800
 1.5520	31.3000
 1.5560	31.3200
 1.5600	31.3400
 1.5640	31.2800
 1.5680	31.3200
 1.5720	31.3200
 1.5760	31.2800
 1.5800	31.2000
 1.5840	31.2200
 1.5880	31.3200
 1.5920	31.2600
 1.5960	31.2200
 1.6000	31.2800
 1.6040	31.3300
 1.6080	31.3500
 1.6120	31.2900
 1.6160	31.2300
 1.6200	31.2800
 1.6240	31.2200
 1.6280	31.2800
 1.6320	31.2400
 1.6360	31.3000
 1.6400	31.2900
 1.6440	31.3300
 1.6480	31.3300
 1.6520	31.2500
 1.6560	31.3400
 1.6600	31.3400
 1.6640	31.3800
 1.6680	31.3500
 1.6720	31.4300
 1.6760	31.3900
 1.6800	31.3700
 1.6840	31.4700
 1.6880	31.4400
 1.6920	31.4200
 1.6960	31.4900
 1.7000	31.4400
 1.7040	31.5000
 1.7080	31.5200
 1.7120	31.5400
 1.7160	31.6000
 1.7200	31.6800
 1.7240	31.6200
 1.7280	31.7000
 1.7320	31.7400
 1.7360	31.7900
 1.7400	31.7700
 1.7440	31.8100
 1.7480	31.7900
 1.7520	31.7900
 1.7560	31.8300
 1.7600	31.8500
 1.7640	31.8700
 1.7680	31.8500
 1.7720	31.8700
 1.7760	31.8300
 1.7800	31.9100
 1.7840	31.8300
 1.7880	31.8100
 1.7920	31.8100
 1.7960	31.7700
 1.8000	31.8100
 1.8040	31.7800
 1.8080	31.6500
 1.8120	31.7000
 1.8160	31.6100
 1.8200	31.6100
 1.8240	31.4600
 1.8280	31.4100
 1.8320	31.3100
 1.8360	31.1600
 1.8400	31.1900
 1.8440	31.0600
 1.8480	30.9700
 1.8520	30.8600
 1.8560	30.6900
 1.8600	30.6300
 1.8640	30.4600
 1.8680	30.2400
 1.8720	30.1700
 1.8760	29.9900
 1.8800	29.8800
 1.8840	29.7100
 1.8880	29.4900
 1.8920	29.2900
 1.8960	29.0800
 1.9000	28.8800
 1.9040	28.6700
 1.9080	28.3600
 1.9120	28.1900
 1.9160	27.9600
 1.9200	27.7000
 1.9240	27.3900
 1.9280	27.1300
 1.9320	26.8400
 1.9360	26.5700
 1.9400	26.3200
 1.9440	26.0400
 1.9480	25.7100
 1.9520	25.4900
 1.9560	25.1600
 1.9600	24.8500
 1.9640	24.5500
 1.9680	24.2000
 1.9720	23.8500
 1.9760	23.5300
 1.9800	23.2100
 1.9840	22.9100
 1.9880	22.6200
 1.9920	22.3000
 1.9960	22.0700
 2.0000	21.7600
 2.0040	21.4200
 2.0080	21.1300
 2.0120	20.8000
 2.0160	20.4500
 2.0200	20.0900
 2.0240	19.8200
 2.0280	19.4400
 2.0320	19.1300
 2.0360	18.8300
 2.0400	18.5200
 2.0440	18.2300
 2.0480	17.9100
 2.0520	17.6000
 2.0560	17.3300
 2.0600	17.0100
 2.0640	16.6800
 2.0680	16.3900
 2.0720	16.1600
 2.0760	15.9300
 2.0800	15.6100
 2.0840	15.3500
 2.0880	15.1200
 2.0920	14.8400
 2.0960	14.5600
 2.1000	14.3400
 2.1040	14.1900
 2.1080	13.9800
 2.1120	13.7400
 2.1160	13.5200
 2.1200	13.2800
 2.1240	13.1000
 2.1280	12.9300
 2.1320	12.7200
 2.1360	12.4100
 2.1400	12.1900
 2.1440	12.0500
 2.1480	11.8500
 2.1520	11.7000
 2.1560	11.4700
 2.1600	11.2600
 2.1640	11.0900
 2.1680	10.9300
 2.1720	10.8400
 2.1760	10.6700
 2.1800	10.5100
 2.1840	10.3600
 2.1880	10.2600
 2.1920	10.0600
 2.1960	10.0700
 2.2000	 9.8700
 2.2040	 9.7800
 2.2080	 9.6600
 2.2120	 9.5700
 2.2160	 9.4200
 2.2200	 9.3200
 2.2240	 9.2100
 2.2280	 9.0900
 2.2320	 9.0100
 2.2360	 8.9900
 2.2400	 8.9100
 2.2440	 8.8200
 2.2480	 8.7600
 2.2520	 8.6400
 2.2560	 8.5300
 2.2600	 8.5000
 2.2640	 8.3900
 2.2680	 8.4100
 2.2720	 8.3500
 2.2760	 8.2400
 2.2800	 8.1900
 2.2840	 8.1600
 2.2880	 8.1200
 2.2920	 8.0900
 2.2960	 7.9700
 2.3000	 7.8700
 2.3040	 7.8600
 2.3080	 7.7500
 2.3120	 7.6700
 2.3160	 7.6900
 2.3200	 7.6100
 2.3240	 7.5500
 2.3280	 7.5300
 2.3320	 7.4900
 2.3360	 7.4700
 2.3400	 7.3600
 2.3440	 7.3400
 2.3480	 7.3100
 2.3520	 7.2700
 2.3560	 7.2600
 2.3600	 7.2700
 2.3640	 7.2600
 2.3680	 7.2400
 2.3720	 7.1400
 2.3760	 7.1600
 2.3800	 7.1600
 2.3840	 7.0900
 2.3880	 7.0800
 2.3920	 7.0300
 2.3960	 7.0800
 2.4000	 7.0100
 2.4040	 7.0900
 2.4080	 7.0300
 2.4120	 7.0100
 2.4160	 7.0800
 2.4200	 7.0200
 2.4240	 7.0100
 2.4280	 6.9600
 2.4320	 6.9600
 2.4360	 6.9500
 2.4400	 6.9500
 2.4440	 6.9500
 2.4480	 6.9400
 2.4520	 6.9000
 2.4560	 6.9000
 2.4600	 6.8900
 2.4640	 6.9000
 2.4680	 6.9000
 2.4720	 6.9500
 2.4760	 6.9000
 2.4800	 6.8600
 2.4840	 6.8900
 2.4880	 6.9300
 2.4920	 6.8500
 2.4960	 6.9400
 2.5000	 6.9300
