Name: Aphthitalite (K,Na)_3Na(SO_4)_2
Type: Mineral
Class: Sulfate
Subclass: None
Particle Size: Medium
Sample No.: SO-9A
Owner: JPL
Wavelength Range: VSWIR
Origin: USA, California, San Bernadino County, Searles Lake.
Collection Date: N/A
Description: Particle size was 45-125um. Collected by:  Burminco Original ASTER Spectral Library name was jpl.perkin.mineral.sulfate.none.medium.so09a.spectrum.txt
Measurement: Hemispherical reflectance
First Column: X
Second Column: Y
X Units: Wavelength (micrometers)
Y Units:Reflectance (percent)
First X Value:  2.5000
Last X Value:  0.4000
Number of X Values: 2101
Additional Information: mineral.sulfate.none.medium.vswir.so-9a.jpl.perkin.ancillary.txt

 2.5000	80.0960
 2.4990	79.9234
 2.4980	80.2173
 2.4970	79.9471
 2.4960	79.8414
 2.4950	80.0515
 2.4940	79.8593
 2.4930	79.8179
 2.4920	79.9733
 2.4910	80.0258
 2.4900	80.0582
 2.4890	79.9442
 2.4880	79.9095
 2.4870	80.0962
 2.4860	80.0797
 2.4850	80.0797
 2.4840	80.0746
 2.4830	80.0725
 2.4820	80.0481
 2.4810	80.1512
 2.4800	80.1775
 2.4790	80.2696
 2.4780	80.2705
 2.4770	80.1482
 2.4760	80.2168
 2.4750	80.1828
 2.4740	80.3098
 2.4730	80.3522
 2.4720	80.4099
 2.4710	80.4973
 2.4700	80.5621
 2.4690	80.4298
 2.4680	80.4079
 2.4670	80.3021
 2.4660	80.4539
 2.4650	80.4226
 2.4640	80.4190
 2.4630	80.4765
 2.4620	80.4251
 2.4610	80.5138
 2.4600	80.5417
 2.4590	80.5597
 2.4580	80.5956
 2.4570	80.7570
 2.4560	80.6301
 2.4550	80.6170
 2.4540	80.6910
 2.4530	80.8443
 2.4520	80.7889
 2.4510	80.7304
 2.4500	80.8788
 2.4490	80.7252
 2.4480	80.7660
 2.4470	80.8861
 2.4460	80.7771
 2.4450	80.8825
 2.4440	80.9419
 2.4430	80.8894
 2.4420	80.9818
 2.4410	81.0064
 2.4400	80.9323
 2.4390	80.9218
 2.4380	80.9983
 2.4370	81.0091
 2.4360	80.9930
 2.4350	80.9573
 2.4340	81.0166
 2.4330	81.0411
 2.4320	81.1071
 2.4310	81.1036
 2.4300	81.1101
 2.4290	81.1086
 2.4280	81.1658
 2.4270	81.2169
 2.4260	81.0660
 2.4250	81.1349
 2.4240	81.2548
 2.4230	81.2352
 2.4220	81.2600
 2.4210	81.3500
 2.4200	81.3639
 2.4190	81.3538
 2.4180	81.3434
 2.4170	81.3733
 2.4160	81.4544
 2.4150	81.4488
 2.4140	81.3990
 2.4130	81.4485
 2.4120	81.4565
 2.4110	81.5369
 2.4100	81.5640
 2.4090	81.5638
 2.4080	81.5559
 2.4070	81.5201
 2.4060	81.4910
 2.4050	81.5589
 2.4040	81.6017
 2.4030	81.6542
 2.4020	81.6639
 2.4010	81.6550
 2.4000	81.6485
 2.3990	81.7804
 2.3980	81.8085
 2.3970	81.8046
 2.3960	81.7911
 2.3950	81.8285
 2.3940	81.8530
 2.3930	81.9347
 2.3920	82.0321
 2.3910	81.9794
 2.3900	81.9561
 2.3890	82.0415
 2.3880	82.1209
 2.3870	82.0741
 2.3860	82.1472
 2.3850	82.1712
 2.3840	82.2655
 2.3830	82.2920
 2.3820	82.2599
 2.3810	82.2770
 2.3800	82.2886
 2.3790	82.3552
 2.3780	82.3584
 2.3770	82.3854
 2.3760	82.4830
 2.3750	82.4776
 2.3740	82.5141
 2.3730	82.6372
 2.3720	82.6585
 2.3710	82.6838
 2.3700	82.7352
 2.3690	82.7773
 2.3680	82.7536
 2.3670	82.7571
 2.3660	82.7767
 2.3650	82.7842
 2.3640	82.8756
 2.3630	82.9427
 2.3620	82.9807
 2.3610	83.0057
 2.3600	82.9863
 2.3590	82.9531
 2.3580	83.0046
 2.3570	83.0396
 2.3560	83.0506
 2.3550	83.0926
 2.3540	83.1463
 2.3530	83.1655
 2.3520	83.1955
 2.3510	83.2895
 2.3500	83.2699
 2.3490	83.2286
 2.3480	83.2638
 2.3470	83.2697
 2.3460	83.2917
 2.3450	83.3231
 2.3440	83.3160
 2.3430	83.2891
 2.3420	83.3148
 2.3410	83.3904
 2.3400	83.4348
 2.3390	83.4618
 2.3380	83.4326
 2.3370	83.4026
 2.3360	83.4371
 2.3350	83.4381
 2.3340	83.4284
 2.3330	83.4698
 2.3320	83.4393
 2.3310	83.4695
 2.3300	83.4876
 2.3290	83.4794
 2.3280	83.4604
 2.3270	83.4385
 2.3260	83.4406
 2.3250	83.4274
 2.3240	83.4558
 2.3230	83.4645
 2.3220	83.4043
 2.3210	83.4579
 2.3200	83.5063
 2.3190	83.4482
 2.3180	83.4799
 2.3170	83.5052
 2.3160	83.5044
 2.3150	83.4518
 2.3140	83.4880
 2.3130	83.5092
 2.3120	83.4881
 2.3110	83.4643
 2.3100	83.5130
 2.3090	83.5045
 2.3080	83.4735
 2.3070	83.5371
 2.3060	83.5061
 2.3050	83.5183
 2.3040	83.6052
 2.3030	83.5456
 2.3020	83.5536
 2.3010	83.5920
 2.3000	83.5969
 2.2990	83.5937
 2.2980	83.6129
 2.2970	83.5996
 2.2960	83.5947
 2.2950	83.7066
 2.2940	83.6495
 2.2930	83.6532
 2.2920	83.5690
 2.2910	83.6202
 2.2900	83.5877
 2.2890	83.6376
 2.2880	83.6588
 2.2870	83.6836
 2.2860	83.6096
 2.2850	83.6074
 2.2840	83.7623
 2.2830	83.7223
 2.2820	83.6564
 2.2810	83.6565
 2.2800	83.7390
 2.2790	83.6730
 2.2780	83.7160
 2.2770	83.6553
 2.2760	83.7139
 2.2750	83.7490
 2.2740	83.7543
 2.2730	83.7343
 2.2720	83.7580
 2.2710	83.7132
 2.2700	83.6892
 2.2690	83.7061
 2.2680	83.7296
 2.2670	83.6999
 2.2660	83.7918
 2.2650	83.7442
 2.2640	83.7389
 2.2630	83.6990
 2.2620	83.6085
 2.2610	83.6907
 2.2600	83.8060
 2.2590	83.7664
 2.2580	83.7177
 2.2570	83.7756
 2.2560	83.6947
 2.2550	83.8178
 2.2540	83.7325
 2.2530	83.7384
 2.2520	83.6906
 2.2510	83.7129
 2.2500	83.7842
 2.2490	83.7837
 2.2480	83.8308
 2.2470	83.8147
 2.2460	83.9004
 2.2450	83.7910
 2.2440	83.7981
 2.2430	83.8189
 2.2420	83.8329
 2.2410	83.7952
 2.2400	83.7880
 2.2390	83.8307
 2.2380	83.7158
 2.2370	83.8138
 2.2360	83.9455
 2.2350	83.8028
 2.2340	83.8574
 2.2330	83.8848
 2.2320	83.7904
 2.2310	83.8431
 2.2300	83.8216
 2.2290	83.7370
 2.2280	83.8013
 2.2270	83.8749
 2.2260	83.8217
 2.2250	83.8906
 2.2240	83.8523
 2.2230	83.8066
 2.2220	83.8621
 2.2210	83.8465
 2.2200	83.9864
 2.2190	83.8191
 2.2180	83.8643
 2.2170	83.9147
 2.2160	83.9452
 2.2150	83.9699
 2.2140	83.9908
 2.2130	84.0422
 2.2120	84.0267
 2.2110	84.0823
 2.2100	84.1102
 2.2090	84.1867
 2.2080	84.1748
 2.2070	84.2055
 2.2060	84.1867
 2.2050	84.2819
 2.2040	84.2610
 2.2030	84.2481
 2.2020	84.3093
 2.2010	84.3539
 2.2000	84.3770
 2.1990	84.3940
 2.1980	84.4089
 2.1970	84.4088
 2.1960	84.4120
 2.1950	84.4335
 2.1940	84.4361
 2.1930	84.4788
 2.1920	84.4868
 2.1910	84.4788
 2.1900	84.4489
 2.1890	84.3778
 2.1880	84.4811
 2.1870	84.5218
 2.1860	84.4779
 2.1850	84.4742
 2.1840	84.5064
 2.1830	84.5199
 2.1820	84.5389
 2.1810	84.5568
 2.1800	84.6320
 2.1790	84.6569
 2.1780	84.7929
 2.1770	84.7168
 2.1760	84.7404
 2.1750	84.7584
 2.1740	84.7081
 2.1730	84.7711
 2.1720	84.6952
 2.1710	84.7296
 2.1700	84.7664
 2.1690	84.8185
 2.1680	84.9150
 2.1670	84.8536
 2.1660	84.8820
 2.1650	84.8341
 2.1640	84.8942
 2.1630	84.8821
 2.1620	85.0119
 2.1610	85.0325
 2.1600	84.9815
 2.1590	84.9956
 2.1580	85.0574
 2.1570	85.0278
 2.1560	85.0465
 2.1550	85.0786
 2.1540	85.0858
 2.1530	85.0080
 2.1520	85.0601
 2.1510	85.0996
 2.1500	85.1214
 2.1490	85.0951
 2.1480	85.0704
 2.1470	85.0518
 2.1460	85.0758
 2.1450	85.1023
 2.1440	85.1379
 2.1430	85.1352
 2.1420	85.1124
 2.1410	85.1680
 2.1400	85.0730
 2.1390	85.0675
 2.1380	85.0616
 2.1370	85.0542
 2.1360	85.0820
 2.1350	85.0441
 2.1340	85.0218
 2.1330	84.9699
 2.1320	84.8753
 2.1310	84.8958
 2.1300	84.8947
 2.1290	84.8219
 2.1280	84.8640
 2.1270	84.8019
 2.1260	84.7511
 2.1250	84.6697
 2.1240	84.7011
 2.1230	84.6606
 2.1220	84.5698
 2.1210	84.5168
 2.1200	84.4752
 2.1190	84.4768
 2.1180	84.3711
 2.1170	84.3287
 2.1160	84.2829
 2.1150	84.2599
 2.1140	84.2144
 2.1130	84.1202
 2.1120	84.0944
 2.1110	84.0409
 2.1100	83.9397
 2.1090	83.9054
 2.1080	83.8732
 2.1070	83.8403
 2.1060	83.8105
 2.1050	83.7138
 2.1040	83.6618
 2.1030	83.5910
 2.1020	83.5827
 2.1010	83.5198
 2.1000	83.4665
 2.0990	83.4253
 2.0980	83.4273
 2.0970	83.4785
 2.0960	83.4792
 2.0950	83.4450
 2.0940	83.4297
 2.0930	83.4533
 2.0920	83.4536
 2.0910	83.4833
 2.0900	83.4957
 2.0890	83.5111
 2.0880	83.5387
 2.0870	83.5107
 2.0860	83.4882
 2.0850	83.4683
 2.0840	83.5000
 2.0830	83.4532
 2.0820	83.4291
 2.0810	83.5370
 2.0800	83.5536
 2.0790	83.5366
 2.0780	83.5390
 2.0770	83.5647
 2.0760	83.5235
 2.0750	83.4725
 2.0740	83.4914
 2.0730	83.4436
 2.0720	83.4121
 2.0710	83.5094
 2.0700	83.5724
 2.0690	83.5192
 2.0680	83.4648
 2.0670	83.4946
 2.0660	83.5365
 2.0650	83.4863
 2.0640	83.4859
 2.0630	83.5434
 2.0620	83.5360
 2.0610	83.5281
 2.0600	83.5391
 2.0590	83.5353
 2.0580	83.4839
 2.0570	83.4446
 2.0560	83.4861
 2.0550	83.4826
 2.0540	83.5220
 2.0530	83.5450
 2.0520	83.5274
 2.0510	83.5222
 2.0500	83.5299
 2.0490	83.5582
 2.0480	83.5413
 2.0470	83.5369
 2.0460	83.5256
 2.0450	83.5717
 2.0440	83.5815
 2.0430	83.5392
 2.0420	83.5726
 2.0410	83.6165
 2.0400	83.5778
 2.0390	83.5272
 2.0380	83.5708
 2.0370	83.5836
 2.0360	83.6255
 2.0350	83.6184
 2.0340	83.6027
 2.0330	83.6014
 2.0320	83.6187
 2.0310	83.6538
 2.0300	83.6592
 2.0290	83.6227
 2.0280	83.6464
 2.0270	83.6726
 2.0260	83.7022
 2.0250	83.6386
 2.0240	83.6581
 2.0230	83.6611
 2.0220	83.6763
 2.0210	83.6974
 2.0200	83.6815
 2.0190	83.6842
 2.0180	83.6674
 2.0170	83.6913
 2.0160	83.6849
 2.0150	83.7248
 2.0140	83.7199
 2.0130	83.6748
 2.0120	83.7461
 2.0110	83.7544
 2.0100	83.7438
 2.0090	83.7712
 2.0080	83.7402
 2.0070	83.7058
 2.0060	83.6959
 2.0050	83.7472
 2.0040	83.7500
 2.0030	83.7529
 2.0020	83.7877
 2.0010	83.8103
 2.0000	83.7665
 1.9990	83.6564
 1.9980	83.6496
 1.9970	83.6251
 1.9960	83.6857
 1.9950	83.5933
 1.9940	83.6526
 1.9930	83.6046
 1.9920	83.5611
 1.9910	83.5078
 1.9900	83.5436
 1.9890	83.5037
 1.9880	83.4483
 1.9870	83.4652
 1.9860	83.4790
 1.9850	83.4597
 1.9840	83.3473
 1.9830	83.3551
 1.9820	83.2911
 1.9810	83.2807
 1.9800	83.2692
 1.9790	83.2674
 1.9780	83.1985
 1.9770	83.1811
 1.9760	83.1880
 1.9750	83.1160
 1.9740	83.1234
 1.9730	83.1015
 1.9720	83.0546
 1.9710	83.0579
 1.9700	82.9817
 1.9690	83.0254
 1.9680	82.9394
 1.9670	82.9398
 1.9660	82.8523
 1.9650	82.7782
 1.9640	82.8008
 1.9630	82.8101
 1.9620	82.7172
 1.9610	82.6680
 1.9600	82.6488
 1.9590	82.5775
 1.9580	82.5594
 1.9570	82.5552
 1.9560	82.5295
 1.9550	82.4250
 1.9540	82.4932
 1.9530	82.3746
 1.9520	82.3421
 1.9510	82.3242
 1.9500	82.2554
 1.9490	82.2574
 1.9480	82.2623
 1.9470	82.2801
 1.9460	82.1263
 1.9450	82.2092
 1.9440	82.1682
 1.9430	82.1909
 1.9420	82.2427
 1.9410	82.2766
 1.9400	82.3075
 1.9390	82.3063
 1.9380	82.2875
 1.9370	82.3183
 1.9360	82.2931
 1.9350	82.3323
 1.9340	82.3676
 1.9330	82.5025
 1.9320	82.4572
 1.9310	82.5405
 1.9300	82.5163
 1.9290	82.6643
 1.9280	82.7589
 1.9270	82.8125
 1.9260	82.8563
 1.9250	82.8789
 1.9240	82.9368
 1.9230	83.1282
 1.9220	83.1679
 1.9210	83.2258
 1.9200	83.2455
 1.9190	83.3252
 1.9180	83.4016
 1.9170	83.5508
 1.9160	83.5313
 1.9150	83.6407
 1.9140	83.7514
 1.9130	83.8511
 1.9120	83.9067
 1.9110	83.9913
 1.9100	84.0105
 1.9090	84.1300
 1.9080	84.1683
 1.9070	84.2573
 1.9060	84.3221
 1.9050	84.5146
 1.9040	84.5396
 1.9030	84.6590
 1.9020	84.7652
 1.9010	84.8288
 1.9000	84.9469
 1.8990	85.0514
 1.8980	85.0498
 1.8970	85.2403
 1.8960	85.3113
 1.8950	85.3899
 1.8940	85.6340
 1.8930	85.5310
 1.8920	85.6008
 1.8910	85.7116
 1.8900	85.7106
 1.8890	85.7884
 1.8880	85.8498
 1.8870	85.9140
 1.8860	86.0373
 1.8850	86.0985
 1.8840	86.1673
 1.8830	86.1742
 1.8820	86.2659
 1.8810	86.2370
 1.8800	86.2452
 1.8790	86.2964
 1.8780	86.3509
 1.8770	86.3406
 1.8760	86.4179
 1.8750	86.4342
 1.8740	86.4772
 1.8730	86.5023
 1.8720	86.4841
 1.8710	86.5558
 1.8700	86.5709
 1.8690	86.5929
 1.8680	86.5809
 1.8670	86.6490
 1.8660	86.6699
 1.8650	86.7104
 1.8640	86.6571
 1.8630	86.6922
 1.8620	86.6427
 1.8610	86.6711
 1.8600	86.6103
 1.8590	86.6819
 1.8580	86.7191
 1.8570	86.8784
 1.8560	86.7927
 1.8550	86.7826
 1.8540	86.8063
 1.8530	86.8196
 1.8520	86.8547
 1.8510	86.8667
 1.8500	86.8877
 1.8490	86.9258
 1.8480	86.8772
 1.8470	86.9258
 1.8460	86.9408
 1.8450	86.9584
 1.8440	86.9066
 1.8430	86.9231
 1.8420	86.9285
 1.8410	86.8930
 1.8400	86.8950
 1.8390	86.9140
 1.8380	86.9204
 1.8370	86.9369
 1.8360	86.9123
 1.8350	86.9452
 1.8340	86.9717
 1.8330	86.9996
 1.8320	86.9785
 1.8310	86.9542
 1.8300	86.9729
 1.8290	86.9782
 1.8280	86.9636
 1.8270	86.9403
 1.8260	86.9736
 1.8250	87.0089
 1.8240	86.9974
 1.8230	87.0165
 1.8220	87.0587
 1.8210	86.9991
 1.8200	86.9846
 1.8190	87.0528
 1.8180	86.9976
 1.8170	86.9696
 1.8160	86.9574
 1.8150	86.9830
 1.8140	86.9968
 1.8130	87.0532
 1.8120	87.0520
 1.8110	87.0693
 1.8100	87.0773
 1.8090	87.0474
 1.8080	87.0060
 1.8070	87.0597
 1.8060	87.1111
 1.8050	87.0688
 1.8040	87.0137
 1.8030	87.0454
 1.8020	87.1016
 1.8010	87.1209
 1.8000	87.1276
 1.7990	87.1235
 1.7980	87.0754
 1.7970	87.0531
 1.7960	87.0812
 1.7950	87.1340
 1.7940	87.1372
 1.7930	87.0624
 1.7920	87.0616
 1.7910	87.0941
 1.7900	87.1120
 1.7890	87.1930
 1.7880	87.1531
 1.7870	87.0955
 1.7860	87.1034
 1.7850	87.1567
 1.7840	87.0772
 1.7830	87.0130
 1.7820	87.0574
 1.7810	87.0551
 1.7800	87.0902
 1.7790	87.0712
 1.7780	87.0659
 1.7770	87.0895
 1.7760	87.0958
 1.7750	87.1473
 1.7740	87.1769
 1.7730	87.1915
 1.7720	87.1004
 1.7710	87.0123
 1.7700	87.0561
 1.7690	87.0632
 1.7680	87.0569
 1.7670	87.0746
 1.7660	87.1012
 1.7650	87.1110
 1.7640	87.1026
 1.7630	87.1107
 1.7620	87.0794
 1.7610	87.1043
 1.7600	87.1406
 1.7590	87.1207
 1.7580	87.0711
 1.7570	87.0905
 1.7560	87.1235
 1.7550	87.1476
 1.7540	87.1113
 1.7530	87.1079
 1.7520	87.1003
 1.7510	87.1180
 1.7500	87.1334
 1.7490	87.1241
 1.7480	87.1405
 1.7470	87.1537
 1.7460	87.1778
 1.7450	87.1784
 1.7440	87.1966
 1.7430	87.2122
 1.7420	87.1661
 1.7410	87.1700
 1.7400	87.1869
 1.7390	87.2840
 1.7380	87.2558
 1.7370	87.1696
 1.7360	87.3188
 1.7350	87.2329
 1.7340	87.2342
 1.7330	87.3605
 1.7320	87.2767
 1.7310	87.2275
 1.7300	87.8854
 1.7290	87.5318
 1.7280	87.2630
 1.7270	87.2106
 1.7260	87.3164
 1.7250	87.3325
 1.7240	87.2630
 1.7230	87.2499
 1.7220	87.3458
 1.7210	87.3394
 1.7200	87.2981
 1.7190	87.3098
 1.7180	87.3847
 1.7170	87.3626
 1.7160	87.3170
 1.7150	87.3418
 1.7140	87.3698
 1.7130	87.3757
 1.7120	87.3358
 1.7110	87.3308
 1.7100	87.3539
 1.7090	87.3681
 1.7080	87.3856
 1.7070	87.3922
 1.7060	87.3975
 1.7050	87.3735
 1.7040	87.3596
 1.7030	87.3600
 1.7020	87.3651
 1.7010	87.3372
 1.7000	87.3580
 1.6990	87.3743
 1.6980	87.3482
 1.6970	87.3418
 1.6960	87.4155
 1.6950	87.4255
 1.6940	87.3680
 1.6930	87.3384
 1.6920	87.3236
 1.6910	87.4044
 1.6900	87.4008
 1.6890	87.3345
 1.6880	87.4038
 1.6870	87.4770
 1.6860	87.4727
 1.6850	87.4137
 1.6840	87.4911
 1.6830	87.3826
 1.6820	87.3502
 1.6810	87.3535
 1.6800	87.4465
 1.6790	87.5104
 1.6780	87.4041
 1.6770	87.4766
 1.6760	87.4506
 1.6750	87.3871
 1.6740	87.5090
 1.6730	87.4793
 1.6720	87.4643
 1.6710	87.4556
 1.6700	87.4354
 1.6690	87.5777
 1.6680	87.5678
 1.6670	87.5577
 1.6660	87.5392
 1.6650	87.4751
 1.6640	87.3883
 1.6630	87.5240
 1.6620	87.5619
 1.6610	87.5052
 1.6600	87.6043
 1.6590	87.6238
 1.6580	87.5648
 1.6570	87.5075
 1.6560	87.4806
 1.6550	87.5784
 1.6540	87.5482
 1.6530	87.5663
 1.6520	87.5561
 1.6510	87.5036
 1.6500	87.6350
 1.6490	87.5713
 1.6480	87.5764
 1.6470	87.5533
 1.6460	87.7014
 1.6450	87.6365
 1.6440	87.6471
 1.6430	87.6271
 1.6420	87.7371
 1.6410	87.5069
 1.6400	87.6420
 1.6390	87.5941
 1.6380	87.6005
 1.6370	87.6775
 1.6360	87.7127
 1.6350	87.6440
 1.6340	87.6377
 1.6330	87.6030
 1.6320	87.6687
 1.6310	87.7019
 1.6300	87.6298
 1.6290	87.5518
 1.6280	87.7413
 1.6270	87.6329
 1.6260	87.6507
 1.6250	87.7306
 1.6240	87.6594
 1.6230	87.6513
 1.6220	87.5942
 1.6210	87.6633
 1.6200	87.6943
 1.6190	87.7426
 1.6180	87.8071
 1.6170	87.6873
 1.6160	87.6771
 1.6150	87.6875
 1.6140	87.7416
 1.6130	87.7120
 1.6120	87.7010
 1.6110	87.7047
 1.6100	87.7368
 1.6090	87.7928
 1.6080	87.7890
 1.6070	87.8009
 1.6060	87.6631
 1.6050	87.7442
 1.6040	87.6901
 1.6030	87.7259
 1.6020	87.7395
 1.6010	87.7340
 1.6000	87.7667
 1.5990	87.7680
 1.5980	87.7491
 1.5970	87.7658
 1.5960	87.7195
 1.5950	87.6893
 1.5940	87.7222
 1.5930	87.7581
 1.5920	87.7990
 1.5910	87.7583
 1.5900	87.7886
 1.5890	87.7182
 1.5880	87.7210
 1.5870	87.7373
 1.5860	87.7852
 1.5850	87.7118
 1.5840	87.7597
 1.5830	87.7115
 1.5820	87.6955
 1.5810	87.7625
 1.5800	87.7610
 1.5790	87.7567
 1.5780	87.6814
 1.5770	87.7549
 1.5760	87.7567
 1.5750	87.7406
 1.5740	87.7350
 1.5730	87.7356
 1.5720	87.6567
 1.5710	87.6683
 1.5700	87.7168
 1.5690	87.7246
 1.5680	87.7894
 1.5670	87.6876
 1.5660	87.6687
 1.5650	87.6630
 1.5640	87.7343
 1.5630	87.7265
 1.5620	87.7187
 1.5610	87.7070
 1.5600	87.6783
 1.5590	87.7109
 1.5580	87.7448
 1.5570	87.7217
 1.5560	87.6876
 1.5550	87.6709
 1.5540	87.6586
 1.5530	87.6958
 1.5520	87.7087
 1.5510	87.6364
 1.5500	87.6511
 1.5490	87.6530
 1.5480	87.6256
 1.5470	87.6156
 1.5460	87.6610
 1.5450	87.6132
 1.5440	87.6353
 1.5430	87.6869
 1.5420	87.5937
 1.5410	87.5575
 1.5400	87.6129
 1.5390	87.6145
 1.5380	87.6154
 1.5370	87.5881
 1.5360	87.6512
 1.5350	87.6144
 1.5340	87.5848
 1.5330	87.5749
 1.5320	87.5435
 1.5310	87.5748
 1.5300	87.5704
 1.5290	87.5860
 1.5280	87.5736
 1.5270	87.5842
 1.5260	87.5513
 1.5250	87.4953
 1.5240	87.5067
 1.5230	87.5306
 1.5220	87.5291
 1.5210	87.5255
 1.5200	87.5297
 1.5190	87.5355
 1.5180	87.5146
 1.5170	87.4691
 1.5160	87.4703
 1.5150	87.5118
 1.5140	87.5086
 1.5130	87.5260
 1.5120	87.5473
 1.5110	87.5396
 1.5100	87.5055
 1.5090	87.5063
 1.5080	87.4972
 1.5070	87.5343
 1.5060	87.5554
 1.5050	87.4914
 1.5040	87.5446
 1.5030	87.5459
 1.5020	87.5190
 1.5010	87.5302
 1.5000	87.5317
 1.4990	87.5486
 1.4980	87.5206
 1.4970	87.4576
 1.4960	87.4065
 1.4950	87.4800
 1.4940	87.5287
 1.4930	87.4702
 1.4920	87.4532
 1.4910	87.4290
 1.4900	87.4282
 1.4890	87.4709
 1.4880	87.4687
 1.4870	87.4552
 1.4860	87.4597
 1.4850	87.4421
 1.4840	87.4395
 1.4830	87.4503
 1.4820	87.4881
 1.4810	87.4952
 1.4800	87.4476
 1.4790	87.4619
 1.4780	87.4207
 1.4770	87.4200
 1.4760	87.4702
 1.4750	87.4898
 1.4740	87.5404
 1.4730	87.5380
 1.4720	87.4382
 1.4710	87.4798
 1.4700	87.4619
 1.4690	87.4932
 1.4680	87.4840
 1.4670	87.4682
 1.4660	87.4918
 1.4650	87.5159
 1.4640	87.5530
 1.4630	87.5620
 1.4620	87.5552
 1.4610	87.5569
 1.4600	87.5275
 1.4590	87.4980
 1.4580	87.5293
 1.4570	87.5342
 1.4560	87.5035
 1.4550	87.5389
 1.4540	87.5874
 1.4530	87.5798
 1.4520	87.5501
 1.4510	87.5479
 1.4500	87.5830
 1.4490	87.5895
 1.4480	87.5621
 1.4470	87.5970
 1.4460	87.5961
 1.4450	87.6180
 1.4440	87.5720
 1.4430	87.6120
 1.4420	87.5707
 1.4410	87.6016
 1.4400	87.6332
 1.4390	87.5789
 1.4380	87.6523
 1.4370	87.7454
 1.4360	87.7303
 1.4350	87.6611
 1.4340	87.6315
 1.4330	87.6238
 1.4320	87.6931
 1.4310	87.6553
 1.4300	87.6713
 1.4290	87.7232
 1.4280	87.7345
 1.4270	87.6681
 1.4260	87.6779
 1.4250	87.7172
 1.4240	87.6958
 1.4230	87.6854
 1.4220	87.7444
 1.4210	87.7489
 1.4200	87.7283
 1.4190	87.7296
 1.4180	87.7668
 1.4170	87.7961
 1.4160	87.8174
 1.4150	87.7537
 1.4140	87.8164
 1.4130	87.7906
 1.4120	87.8053
 1.4110	87.8645
 1.4100	87.8093
 1.4090	87.8773
 1.4080	87.8650
 1.4070	87.8685
 1.4060	87.8694
 1.4050	87.8611
 1.4040	87.8999
 1.4030	87.8405
 1.4020	88.0021
 1.4010	87.9667
 1.4000	87.9848
 1.3990	87.9215
 1.3980	88.0359
 1.3970	88.0684
 1.3960	88.1577
 1.3950	88.1388
 1.3940	88.1127
 1.3930	87.9733
 1.3920	88.0925
 1.3910	88.1761
 1.3900	88.1409
 1.3890	88.2026
 1.3880	88.1220
 1.3870	88.1275
 1.3860	88.1762
 1.3850	88.2457
 1.3840	88.0933
 1.3830	88.1826
 1.3820	88.1284
 1.3810	88.1398
 1.3800	88.1525
 1.3790	88.2104
 1.3780	88.1258
 1.3770	88.2022
 1.3760	88.1285
 1.3750	88.2646
 1.3740	88.1679
 1.3730	88.1828
 1.3720	88.2052
 1.3710	88.1511
 1.3700	88.1404
 1.3690	88.2426
 1.3680	88.2159
 1.3670	88.1877
 1.3660	88.1184
 1.3650	88.1395
 1.3640	88.1806
 1.3630	88.2456
 1.3620	88.1120
 1.3610	88.1394
 1.3600	88.1417
 1.3590	88.2312
 1.3580	88.1599
 1.3570	88.1685
 1.3560	88.2107
 1.3550	88.1058
 1.3540	88.2403
 1.3530	88.1525
 1.3520	88.1903
 1.3510	88.0753
 1.3500	88.1426
 1.3490	88.1621
 1.3480	88.2311
 1.3470	88.1851
 1.3460	88.1237
 1.3450	88.2460
 1.3440	88.1273
 1.3430	88.0630
 1.3420	88.0906
 1.3410	88.1688
 1.3400	88.1284
 1.3390	88.2359
 1.3380	88.1558
 1.3370	88.1792
 1.3360	88.1801
 1.3350	88.2183
 1.3340	88.1763
 1.3330	88.1528
 1.3320	88.1510
 1.3310	88.1544
 1.3300	88.2143
 1.3290	88.1750
 1.3280	88.1495
 1.3270	88.1151
 1.3260	88.1040
 1.3250	88.2330
 1.3240	88.1309
 1.3230	88.1566
 1.3220	88.1910
 1.3210	88.1044
 1.3200	88.1471
 1.3190	88.1630
 1.3180	88.1197
 1.3170	88.1457
 1.3160	88.1895
 1.3150	88.1729
 1.3140	88.1681
 1.3130	88.1570
 1.3120	88.1418
 1.3110	88.1836
 1.3100	88.0723
 1.3090	88.1795
 1.3080	88.1020
 1.3070	88.1626
 1.3060	88.0632
 1.3050	88.0947
 1.3040	88.1334
 1.3030	88.1255
 1.3020	88.1558
 1.3010	88.1279
 1.3000	88.1868
 1.2990	88.1600
 1.2980	88.1367
 1.2970	88.1878
 1.2960	88.1423
 1.2950	88.1471
 1.2940	88.1619
 1.2930	88.2028
 1.2920	88.2039
 1.2910	88.1629
 1.2900	88.1504
 1.2890	88.1687
 1.2880	88.1372
 1.2870	88.1268
 1.2860	88.1728
 1.2850	88.1351
 1.2840	88.1198
 1.2830	88.1329
 1.2820	88.1173
 1.2810	88.0664
 1.2800	88.1392
 1.2790	88.1589
 1.2780	88.1687
 1.2770	88.1506
 1.2760	88.1236
 1.2750	88.1838
 1.2740	88.1727
 1.2730	88.1546
 1.2720	88.1097
 1.2710	88.1182
 1.2700	88.1184
 1.2690	88.1703
 1.2680	88.1514
 1.2670	88.0751
 1.2660	88.1393
 1.2650	88.1251
 1.2640	88.1714
 1.2630	88.1317
 1.2620	88.0328
 1.2610	87.9858
 1.2600	88.0600
 1.2590	88.1310
 1.2580	88.1223
 1.2570	88.1149
 1.2560	88.1324
 1.2550	88.1101
 1.2540	88.0983
 1.2530	88.1044
 1.2520	88.1357
 1.2510	88.0628
 1.2500	88.0705
 1.2490	88.1366
 1.2480	88.1431
 1.2470	88.0795
 1.2460	88.0790
 1.2450	88.1024
 1.2440	88.1211
 1.2430	88.1253
 1.2420	88.1117
 1.2410	88.0327
 1.2400	88.0506
 1.2390	88.1066
 1.2380	88.1538
 1.2370	88.0663
 1.2360	88.0441
 1.2350	88.1103
 1.2340	88.0689
 1.2330	88.0377
 1.2320	88.0527
 1.2310	88.0935
 1.2300	88.1034
 1.2290	88.0296
 1.2280	87.9865
 1.2270	88.0096
 1.2260	88.0799
 1.2250	88.0730
 1.2240	88.0569
 1.2230	88.0658
 1.2220	88.0874
 1.2210	88.0990
 1.2200	88.0686
 1.2190	88.1024
 1.2180	88.0846
 1.2170	88.0825
 1.2160	88.1260
 1.2150	88.0488
 1.2140	87.9729
 1.2130	87.9869
 1.2120	87.9861
 1.2110	88.0261
 1.2100	88.0788
 1.2090	88.0835
 1.2080	88.0726
 1.2070	88.0246
 1.2060	88.0337
 1.2050	88.0420
 1.2040	88.0510
 1.2030	88.0414
 1.2020	88.0110
 1.2010	88.0443
 1.2000	88.0454
 1.1990	88.0644
 1.1980	88.1145
 1.1970	88.0760
 1.1960	88.0105
 1.1950	88.0022
 1.1940	87.9866
 1.1930	88.0156
 1.1920	88.0700
 1.1910	88.0532
 1.1900	87.9872
 1.1890	87.9988
 1.1880	88.0299
 1.1870	88.0320
 1.1860	88.0667
 1.1850	88.0439
 1.1840	88.0955
 1.1830	88.0738
 1.1820	88.0115
 1.1810	88.0042
 1.1800	87.9803
 1.1790	88.0387
 1.1780	88.0352
 1.1770	88.0529
 1.1760	88.0668
 1.1750	88.0177
 1.1740	88.0157
 1.1730	88.0809
 1.1720	88.0648
 1.1710	88.0118
 1.1700	88.0675
 1.1690	88.0105
 1.1680	88.0363
 1.1670	88.0545
 1.1660	88.1099
 1.1650	88.1019
 1.1640	88.0819
 1.1630	88.0808
 1.1620	88.0979
 1.1610	88.1249
 1.1600	88.1110
 1.1590	88.0826
 1.1580	88.0307
 1.1570	88.0781
 1.1560	88.1036
 1.1550	88.0960
 1.1540	88.0986
 1.1530	88.0225
 1.1520	88.0690
 1.1510	88.0667
 1.1500	87.9940
 1.1490	88.0428
 1.1480	88.0638
 1.1470	88.0435
 1.1460	88.0478
 1.1450	88.0806
 1.1440	88.1130
 1.1430	88.0503
 1.1420	88.1138
 1.1410	87.9998
 1.1400	88.1155
 1.1390	88.1965
 1.1380	88.2085
 1.1370	88.1129
 1.1360	88.0547
 1.1350	87.9963
 1.1340	88.1030
 1.1330	88.1171
 1.1320	88.1441
 1.1310	88.0247
 1.1300	88.1350
 1.1290	88.1157
 1.1280	88.0691
 1.1270	88.1159
 1.1260	88.1697
 1.1250	88.0515
 1.1240	88.0398
 1.1230	88.1364
 1.1220	88.0587
 1.1210	88.1064
 1.1200	88.1428
 1.1190	88.1253
 1.1180	88.1320
 1.1170	88.0857
 1.1160	88.1121
 1.1150	88.0348
 1.1140	88.1265
 1.1130	88.0405
 1.1120	88.0680
 1.1110	88.0881
 1.1100	88.0567
 1.1090	88.1502
 1.1080	88.1084
 1.1070	88.1936
 1.1060	88.1132
 1.1050	88.1283
 1.1040	88.1988
 1.1030	88.0917
 1.1020	88.0103
 1.1010	88.1160
 1.1000	88.0851
 1.0990	88.0478
 1.0980	88.1228
 1.0970	88.0689
 1.0960	88.1653
 1.0950	88.1436
 1.0940	88.1321
 1.0930	88.1283
 1.0920	88.0931
 1.0910	88.0749
 1.0900	88.1611
 1.0890	88.1069
 1.0880	88.0992
 1.0870	88.1304
 1.0860	88.1012
 1.0850	88.1168
 1.0840	88.0628
 1.0830	88.0687
 1.0820	88.1478
 1.0810	88.0193
 1.0800	88.0285
 1.0790	88.1479
 1.0780	88.1299
 1.0770	88.0801
 1.0760	88.1396
 1.0750	88.1259
 1.0740	88.1597
 1.0730	88.1082
 1.0720	88.1064
 1.0710	88.1186
 1.0700	88.0461
 1.0690	88.1673
 1.0680	88.1050
 1.0670	88.0643
 1.0660	88.1393
 1.0650	88.0671
 1.0640	88.0619
 1.0630	88.1235
 1.0620	88.0866
 1.0610	88.1355
 1.0600	88.1520
 1.0590	88.0527
 1.0580	88.1823
 1.0570	88.1511
 1.0560	88.1824
 1.0550	88.1273
 1.0540	88.1399
 1.0530	88.0449
 1.0520	88.0965
 1.0510	88.0953
 1.0500	88.1484
 1.0490	88.1146
 1.0480	88.1153
 1.0470	88.0860
 1.0460	88.1329
 1.0450	88.0567
 1.0440	88.0497
 1.0430	88.0986
 1.0420	88.1299
 1.0410	88.0224
 1.0400	88.0768
 1.0390	88.0918
 1.0380	88.1798
 1.0370	88.1530
 1.0360	88.1503
 1.0350	88.1677
 1.0340	88.0882
 1.0330	88.1282
 1.0320	88.0182
 1.0310	88.0948
 1.0300	88.0943
 1.0290	88.1006
 1.0280	88.1543
 1.0270	88.1179
 1.0260	88.0715
 1.0250	88.1811
 1.0240	88.0793
 1.0230	88.0662
 1.0220	88.0987
 1.0210	88.1062
 1.0200	88.2023
 1.0190	88.2071
 1.0180	88.1292
 1.0170	88.0671
 1.0160	88.1742
 1.0150	88.1147
 1.0140	88.1333
 1.0130	88.1590
 1.0120	88.1104
 1.0110	88.1218
 1.0100	88.1484
 1.0090	88.1315
 1.0080	88.1593
 1.0070	88.1814
 1.0060	88.1285
 1.0050	88.0232
 1.0040	88.0792
 1.0030	88.1019
 1.0020	88.1566
 1.0010	88.1453
 1.0000	88.0715
 0.9990	88.0801
 0.9980	88.0824
 0.9970	88.1168
 0.9960	88.1103
 0.9950	88.0722
 0.9940	88.0076
 0.9930	88.1021
 0.9920	88.1392
 0.9910	88.0760
 0.9900	88.0799
 0.9890	88.0702
 0.9880	88.0577
 0.9870	88.1322
 0.9860	88.0615
 0.9850	88.0552
 0.9840	88.0620
 0.9830	88.0740
 0.9820	88.0464
 0.9810	88.0963
 0.9800	88.1062
 0.9790	88.0483
 0.9780	88.0643
 0.9770	88.0670
 0.9760	88.1015
 0.9750	88.1119
 0.9740	88.0581
 0.9730	88.0160
 0.9720	88.0167
 0.9710	88.0154
 0.9700	88.0897
 0.9690	88.1068
 0.9680	88.0379
 0.9670	88.0796
 0.9660	88.0956
 0.9650	88.1125
 0.9640	88.0884
 0.9630	88.0630
 0.9620	88.0359
 0.9610	87.9997
 0.9600	88.0778
 0.9590	88.0952
 0.9580	88.0507
 0.9570	88.0754
 0.9560	88.0505
 0.9550	88.0237
 0.9540	88.0774
 0.9530	88.0967
 0.9520	88.0811
 0.9510	88.0101
 0.9500	88.0059
 0.9490	88.0845
 0.9480	88.0897
 0.9470	88.0601
 0.9460	88.0564
 0.9450	88.0822
 0.9440	88.1298
 0.9430	88.1020
 0.9420	88.0954
 0.9410	88.0958
 0.9400	88.0529
 0.9390	88.0628
 0.9380	88.0922
 0.9370	88.0131
 0.9360	87.9958
 0.9350	88.0779
 0.9340	88.0785
 0.9330	88.0628
 0.9320	88.0555
 0.9310	88.0452
 0.9300	88.0484
 0.9290	88.0604
 0.9280	88.0515
 0.9270	88.0224
 0.9260	87.9289
 0.9250	87.9722
 0.9240	88.0328
 0.9230	88.0252
 0.9220	88.0723
 0.9210	88.0578
 0.9200	87.9953
 0.9190	87.9748
 0.9180	87.9804
 0.9170	88.0203
 0.9160	87.9952
 0.9150	87.9682
 0.9140	87.9846
 0.9130	87.9963
 0.9120	87.9911
 0.9110	87.9779
 0.9100	87.9440
 0.9090	87.9976
 0.9080	88.0250
 0.9070	87.9583
 0.9060	87.9608
 0.9050	87.9243
 0.9040	87.9070
 0.9030	87.9983
 0.9020	87.9576
 0.9010	87.9776
 0.9000	88.0337
 0.8990	88.0049
 0.8980	87.9924
 0.8970	88.0353
 0.8960	88.0503
 0.8950	88.0482
 0.8940	88.0054
 0.8930	87.9850
 0.8920	87.9880
 0.8910	87.9654
 0.8900	87.9563
 0.8890	87.9903
 0.8880	88.0217
 0.8870	88.0103
 0.8860	87.9897
 0.8850	87.9760
 0.8840	87.9422
 0.8830	87.9508
 0.8820	87.9464
 0.8810	87.9528
 0.8800	88.0078
 0.8790	87.9499
 0.8780	87.9585
 0.8770	87.8864
 0.8760	87.9245
 0.8750	87.9737
 0.8740	87.9009
 0.8730	87.9227
 0.8720	87.9671
 0.8710	87.9406
 0.8700	87.9421
 0.8690	87.9692
 0.8680	87.9063
 0.8670	87.8517
 0.8660	87.8385
 0.8650	87.8936
 0.8640	87.9630
 0.8630	87.9732
 0.8620	87.9539
 0.8610	87.8989
 0.8600	87.7607
 0.8590	87.6762
 0.8580	87.6451
 0.8570	87.7255
 0.8560	87.7147
 0.8550	87.5929
 0.8540	87.7239
 0.8530	87.8122
 0.8520	87.6555
 0.8510	87.7349
 0.8500	87.7894
 0.8490	87.7224
 0.8480	87.7053
 0.8470	87.6562
 0.8460	87.8000
 0.8450	87.8060
 0.8440	87.7814
 0.8430	87.7411
 0.8420	87.7486
 0.8410	87.7200
 0.8400	87.7969
 0.8390	87.7671
 0.8380	87.7624
 0.8370	87.7826
 0.8360	87.7551
 0.8350	87.7519
 0.8340	87.7699
 0.8330	87.8128
 0.8320	87.7376
 0.8310	87.8105
 0.8300	87.8315
 0.8290	87.7787
 0.8280	87.7770
 0.8270	87.8004
 0.8260	87.7526
 0.8250	87.7754
 0.8240	87.8205
 0.8230	87.8278
 0.8220	87.7547
 0.8210	87.7663
 0.8200	87.8350
 0.8190	87.8711
 0.8180	87.7718
 0.8170	87.7953
 0.8160	87.7718
 0.8150	87.8053
 0.8140	87.8377
 0.8130	87.7622
 0.8120	87.7450
 0.8110	87.8364
 0.8100	87.8053
 0.8090	87.7767
 0.8080	87.8386
 0.8070	87.8097
 0.8060	87.8396
 0.8050	87.8144
 0.8040	87.7673
 0.8030	87.7433
 0.8020	87.8014
 0.8010	87.8467
 0.8000	87.7919
 0.7990	87.7534
 0.7980	87.8076
 0.7970	87.7379
 0.7960	87.7443
 0.7950	87.7240
 0.7940	87.6858
 0.7930	87.7234
 0.7920	87.7196
 0.7910	87.7476
 0.7900	87.7208
 0.7890	87.7175
 0.7880	87.6965
 0.7870	87.6745
 0.7860	87.6716
 0.7850	87.7060
 0.7840	87.7060
 0.7830	87.6714
 0.7820	87.7014
 0.7810	87.7015
 0.7800	87.7073
 0.7790	87.7177
 0.7780	87.7108
 0.7770	87.7019
 0.7760	87.7056
 0.7750	87.6838
 0.7740	87.7041
 0.7730	87.6872
 0.7720	87.6674
 0.7710	87.6172
 0.7700	87.6378
 0.7690	87.6631
 0.7680	87.6242
 0.7670	87.6492
 0.7660	87.6405
 0.7650	87.6497
 0.7640	87.6309
 0.7630	87.6796
 0.7620	87.6071
 0.7610	87.6460
 0.7600	87.6186
 0.7590	87.6182
 0.7580	87.6236
 0.7570	87.5902
 0.7560	87.6096
 0.7550	87.6142
 0.7540	87.5933
 0.7530	87.6347
 0.7520	87.6309
 0.7510	87.6341
 0.7500	87.5959
 0.7490	87.5914
 0.7480	87.5998
 0.7470	87.5915
 0.7460	87.5917
 0.7450	87.6179
 0.7440	87.6392
 0.7430	87.6039
 0.7420	87.5792
 0.7410	87.5885
 0.7400	87.6035
 0.7390	87.5862
 0.7380	87.5700
 0.7370	87.5834
 0.7360	87.5619
 0.7350	87.5772
 0.7340	87.5736
 0.7330	87.5358
 0.7320	87.5524
 0.7310	87.5747
 0.7300	87.5594
 0.7290	87.5622
 0.7280	87.5744
 0.7270	87.5463
 0.7260	87.5397
 0.7250	87.5415
 0.7240	87.5571
 0.7230	87.5329
 0.7220	87.5189
 0.7210	87.5175
 0.7200	87.5282
 0.7190	87.5226
 0.7180	87.5017
 0.7170	87.5229
 0.7160	87.5334
 0.7150	87.4953
 0.7140	87.5165
 0.7130	87.5156
 0.7120	87.4852
 0.7110	87.4818
 0.7100	87.4852
 0.7090	87.4958
 0.7080	87.4924
 0.7070	87.4973
 0.7060	87.4935
 0.7050	87.4681
 0.7040	87.4772
 0.7030	87.4754
 0.7020	87.4695
 0.7010	87.4479
 0.7000	87.4495
 0.6990	87.4560
 0.6980	87.4463
 0.6970	87.4256
 0.6960	87.4432
 0.6950	87.4381
 0.6940	87.4444
 0.6930	87.4341
 0.6920	87.4243
 0.6910	87.4237
 0.6900	87.4329
 0.6890	87.4280
 0.6880	87.4007
 0.6870	87.3967
 0.6860	87.3897
 0.6850	87.3873
 0.6840	87.3861
 0.6830	87.3719
 0.6820	87.3637
 0.6810	87.3801
 0.6800	87.3953
 0.6790	87.3826
 0.6780	87.3717
 0.6770	87.3635
 0.6760	87.3634
 0.6750	87.3456
 0.6740	87.3444
 0.6730	87.3380
 0.6720	87.3249
 0.6710	87.3170
 0.6700	87.3137
 0.6690	87.3069
 0.6680	87.2966
 0.6670	87.3059
 0.6660	87.3006
 0.6650	87.2923
 0.6640	87.2937
 0.6630	87.2968
 0.6620	87.2867
 0.6610	87.2811
 0.6600	87.2817
 0.6590	87.2677
 0.6580	87.2535
 0.6570	87.2543
 0.6560	87.2579
 0.6550	87.2468
 0.6540	87.2496
 0.6530	87.2264
 0.6520	87.1994
 0.6510	87.1963
 0.6500	87.2026
 0.6490	87.1939
 0.6480	87.1970
 0.6470	87.1947
 0.6460	87.1864
 0.6450	87.1786
 0.6440	87.1781
 0.6430	87.1701
 0.6420	87.1613
 0.6410	87.1504
 0.6400	87.1493
 0.6390	87.1511
 0.6380	87.1487
 0.6370	87.1331
 0.6360	87.1317
 0.6350	87.1284
 0.6340	87.1182
 0.6330	87.1099
 0.6320	87.1104
 0.6310	87.1083
 0.6300	87.0818
 0.6290	87.0648
 0.6280	87.0689
 0.6270	87.0576
 0.6260	87.0506
 0.6250	87.0427
 0.6240	87.0338
 0.6230	87.0278
 0.6220	87.0314
 0.6210	87.0132
 0.6200	86.9860
 0.6190	86.9935
 0.6180	86.9850
 0.6170	86.9769
 0.6160	86.9687
 0.6150	86.9787
 0.6140	86.9673
 0.6130	86.9293
 0.6120	86.9193
 0.6110	86.9228
 0.6100	86.9253
 0.6090	86.9104
 0.6080	86.9126
 0.6070	86.9069
 0.6060	86.8846
 0.6050	86.8817
 0.6040	86.8644
 0.6030	86.8486
 0.6020	86.8424
 0.6010	86.8218
 0.6000	86.8291
 0.5990	86.8464
 0.5980	86.8608
 0.5970	86.8641
 0.5960	86.8522
 0.5950	86.8630
 0.5940	86.8599
 0.5930	86.8447
 0.5920	86.8428
 0.5910	86.8169
 0.5900	86.8145
 0.5890	86.8068
 0.5880	86.7831
 0.5870	86.7789
 0.5860	86.7726
 0.5850	86.7516
 0.5840	86.7550
 0.5830	86.7512
 0.5820	86.7340
 0.5810	86.7139
 0.5800	86.6971
 0.5790	86.6849
 0.5780	86.6757
 0.5770	86.6644
 0.5760	86.6492
 0.5750	86.6344
 0.5740	86.6243
 0.5730	86.6002
 0.5720	86.5975
 0.5710	86.5852
 0.5700	86.5723
 0.5690	86.5485
 0.5680	86.5381
 0.5670	86.5388
 0.5660	86.5126
 0.5650	86.5056
 0.5640	86.4969
 0.5630	86.4760
 0.5620	86.4486
 0.5610	86.4317
 0.5600	86.4081
 0.5590	86.3776
 0.5580	86.3301
 0.5570	86.3353
 0.5560	86.3295
 0.5550	86.3027
 0.5540	86.2887
 0.5530	86.2683
 0.5520	86.2551
 0.5510	86.2514
 0.5500	86.2189
 0.5490	86.1937
 0.5480	86.1722
 0.5470	86.1610
 0.5460	86.1292
 0.5450	86.1215
 0.5440	86.1008
 0.5430	86.0747
 0.5420	86.0547
 0.5410	86.0412
 0.5400	86.0050
 0.5390	86.0012
 0.5380	85.9817
 0.5370	85.9413
 0.5360	85.9363
 0.5350	85.9018
 0.5340	85.8803
 0.5330	85.8515
 0.5320	85.8394
 0.5310	85.8022
 0.5300	85.7875
 0.5290	85.7715
 0.5280	85.7336
 0.5270	85.7014
 0.5260	85.6984
 0.5250	85.6603
 0.5240	85.6301
 0.5230	85.6111
 0.5220	85.5708
 0.5210	85.5519
 0.5200	85.5186
 0.5190	85.4876
 0.5180	85.4604
 0.5170	85.4343
 0.5160	85.3898
 0.5150	85.3653
 0.5140	85.3297
 0.5130	85.2957
 0.5120	85.2413
 0.5110	85.2180
 0.5100	85.1913
 0.5090	85.1300
 0.5080	85.0803
 0.5070	85.0566
 0.5060	85.0033
 0.5050	84.9680
 0.5040	84.9373
 0.5030	84.8829
 0.5020	84.8651
 0.5010	84.8030
 0.5000	84.7712
 0.4990	84.6898
 0.4980	84.6613
 0.4970	84.5998
 0.4960	84.5506
 0.4950	84.5035
 0.4940	84.4518
 0.4930	84.3988
 0.4920	84.3385
 0.4910	84.3166
 0.4900	84.2177
 0.4890	84.1923
 0.4880	84.1411
 0.4870	84.0734
 0.4860	84.0106
 0.4850	83.9643
 0.4840	83.9087
 0.4830	83.8405
 0.4820	83.8059
 0.4810	83.7363
 0.4800	83.7269
 0.4790	83.6997
 0.4780	83.6553
 0.4770	83.6085
 0.4760	83.5674
 0.4750	83.5395
 0.4740	83.4892
 0.4730	83.4656
 0.4720	83.3915
 0.4710	83.3535
 0.4700	83.2995
 0.4690	83.2565
 0.4680	83.1954
 0.4670	83.1619
 0.4660	83.1076
 0.4650	83.0519
 0.4640	83.0225
 0.4630	82.9622
 0.4620	82.9103
 0.4610	82.8849
 0.4600	82.8427
 0.4590	82.7713
 0.4580	82.7375
 0.4570	82.6896
 0.4560	82.6161
 0.4550	82.5641
 0.4540	82.5317
 0.4530	82.4733
 0.4520	82.4112
 0.4510	82.3649
 0.4500	82.2975
 0.4490	82.2497
 0.4480	82.1899
 0.4470	82.1438
 0.4460	82.0826
 0.4450	82.0195
 0.4440	81.9908
 0.4430	81.9161
 0.4420	81.8777
 0.4410	81.8158
 0.4400	81.7785
 0.4390	81.7300
 0.4380	81.6811
 0.4370	81.5996
 0.4360	81.5504
 0.4350	81.5124
 0.4340	81.4432
 0.4330	81.3850
 0.4320	81.3584
 0.4310	81.2834
 0.4300	81.2338
 0.4290	81.2059
 0.4280	81.1008
 0.4270	81.0692
 0.4260	81.0183
 0.4250	80.9507
 0.4240	80.8998
 0.4230	80.8565
 0.4220	80.7968
 0.4210	80.7255
 0.4200	80.6618
 0.4190	80.6084
 0.4180	80.5493
 0.4170	80.4898
 0.4160	80.4254
 0.4150	80.3935
 0.4140	80.3100
 0.4130	80.2508
 0.4120	80.2105
 0.4110	80.1278
 0.4100	80.0469
 0.4090	79.9983
 0.4080	79.9208
 0.4070	79.8612
 0.4060	79.7928
 0.4050	79.7340
 0.4040	79.6790
 0.4030	79.6128
 0.4020	79.5380
 0.4010	79.4505
 0.4000	79.3828
