Name: Glauberite Na_2Ca(SO_4)_2
Type: Mineral
Class: Sulfate
Subclass: None
Particle Size: Fine
Sample No.: SO-8A
Owner: JPL
Wavelength Range: VSWIR
Origin: USA, Arizona, Yavapai County, Campe Verde
Collection Date: N/A
Description: Particle size was 0-45um.Collected by Burminco Original ASTER Spectral Library name was jpl.beckman.mineral.sulfate.none.fine.so08a.spectrum.txt
Measurement: Hemispherical reflectance
First Column: X
Second Column: Y
X Units: Wavelength (micrometers)
Y Units:Reflectance (percent)
First X Value:  0.4000
Last X Value:  2.5000
Number of X Values: 826
Additional Information: mineral.sulfate.none.fine.vswir.so-8a.jpl.beckman.ancillary.txt

 0.4000	71.9600
 0.4010	72.3500
 0.4020	72.3900
 0.4030	72.5300
 0.4040	72.6800
 0.4050	72.7700
 0.4060	72.8600
 0.4070	72.9500
 0.4080	73.1100
 0.4090	73.2200
 0.4100	73.2400
 0.4110	73.3500
 0.4120	73.4400
 0.4130	73.6200
 0.4140	73.7800
 0.4150	73.8400
 0.4160	73.9900
 0.4170	74.0300
 0.4180	74.0600
 0.4190	74.2200
 0.4200	74.3400
 0.4210	74.4500
 0.4220	74.5500
 0.4230	74.6900
 0.4240	74.8500
 0.4250	74.7400
 0.4260	75.0300
 0.4270	75.2400
 0.4280	75.1900
 0.4290	75.3200
 0.4300	75.4400
 0.4310	75.5300
 0.4320	75.6500
 0.4330	75.6300
 0.4340	75.6300
 0.4350	76.0300
 0.4360	76.0500
 0.4370	76.2600
 0.4380	76.3200
 0.4390	76.3600
 0.4400	76.4200
 0.4410	76.4500
 0.4420	76.7600
 0.4430	76.6600
 0.4440	76.8900
 0.4450	77.0600
 0.4460	76.9600
 0.4470	76.9700
 0.4480	77.0500
 0.4490	77.1200
 0.4500	77.3200
 0.4510	77.3900
 0.4520	77.4700
 0.4530	77.3500
 0.4540	77.4700
 0.4550	77.6400
 0.4560	77.5700
 0.4570	77.7300
 0.4580	77.9500
 0.4590	77.7900
 0.4600	77.8500
 0.4610	77.8200
 0.4620	77.9400
 0.4630	78.1100
 0.4640	78.1000
 0.4650	78.2000
 0.4660	78.1400
 0.4670	78.1300
 0.4680	78.3300
 0.4690	78.3100
 0.4700	78.3300
 0.4710	78.3200
 0.4720	78.3700
 0.4730	78.4400
 0.4740	78.5300
 0.4750	78.4900
 0.4760	78.6500
 0.4770	78.6700
 0.4780	78.8500
 0.4790	78.7100
 0.4800	78.9400
 0.4810	79.0100
 0.4820	78.8900
 0.4830	78.9500
 0.4840	79.1100
 0.4850	79.1400
 0.4860	79.1900
 0.4870	79.2400
 0.4880	79.2700
 0.4890	79.2200
 0.4900	79.3100
 0.4910	79.3900
 0.4920	79.3200
 0.4930	79.5700
 0.4940	79.4900
 0.4950	79.5200
 0.4960	79.6600
 0.4970	79.6300
 0.4980	79.7100
 0.4990	79.8900
 0.5000	79.9000
 0.5010	79.9200
 0.5020	80.0000
 0.5030	80.1100
 0.5040	80.3000
 0.5050	80.3000
 0.5060	80.4100
 0.5070	80.4200
 0.5080	80.3800
 0.5090	80.5600
 0.5100	80.5500
 0.5110	80.6400
 0.5120	80.7500
 0.5130	80.6800
 0.5140	80.7200
 0.5150	80.9300
 0.5160	81.0300
 0.5170	80.9700
 0.5180	81.1100
 0.5190	81.2000
 0.5200	81.1700
 0.5210	81.2700
 0.5220	81.2800
 0.5230	81.2500
 0.5240	81.5200
 0.5250	81.4600
 0.5260	81.4400
 0.5270	81.6500
 0.5280	81.6500
 0.5290	81.7200
 0.5300	81.8300
 0.5310	81.7900
 0.5320	81.7700
 0.5330	81.7800
 0.5340	81.8800
 0.5350	81.9700
 0.5360	82.0600
 0.5370	82.1700
 0.5380	82.0600
 0.5390	82.1700
 0.5400	82.2200
 0.5410	82.1500
 0.5420	82.2200
 0.5430	82.3000
 0.5440	82.2600
 0.5450	82.3400
 0.5460	82.4800
 0.5470	82.5000
 0.5480	82.5200
 0.5490	82.5400
 0.5500	82.7800
 0.5510	82.7400
 0.5520	82.7500
 0.5530	82.8800
 0.5540	82.8500
 0.5550	82.8500
 0.5560	82.9400
 0.5570	82.9600
 0.5580	83.0100
 0.5590	83.0700
 0.5600	83.1000
 0.5610	83.3600
 0.5620	83.4600
 0.5630	83.4100
 0.5640	83.5500
 0.5650	83.4400
 0.5660	83.3300
 0.5670	83.4600
 0.5680	83.5300
 0.5690	83.4600
 0.5700	83.4000
 0.5710	83.3300
 0.5720	83.3300
 0.5730	83.3000
 0.5740	83.2600
 0.5750	83.2400
 0.5760	83.1900
 0.5770	83.3500
 0.5780	83.2800
 0.5790	83.2800
 0.5800	83.3300
 0.5810	83.3000
 0.5820	83.3400
 0.5830	83.2800
 0.5840	83.2100
 0.5850	83.3600
 0.5860	83.4900
 0.5870	83.4300
 0.5880	83.5100
 0.5890	83.3800
 0.5900	83.6100
 0.5910	83.5500
 0.5920	83.4500
 0.5930	83.5700
 0.5940	83.5700
 0.5950	83.6700
 0.5960	83.5400
 0.5970	83.5700
 0.5980	83.6300
 0.5990	83.6300
 0.6000	83.8000
 0.6010	83.7000
 0.6020	83.6900
 0.6030	83.7700
 0.6040	83.8400
 0.6050	83.8500
 0.6060	83.7500
 0.6070	83.8300
 0.6080	83.7700
 0.6090	83.8000
 0.6100	83.8800
 0.6110	83.8300
 0.6120	83.6800
 0.6130	83.8500
 0.6140	83.7400
 0.6150	83.7700
 0.6160	83.8100
 0.6170	83.7400
 0.6180	83.8100
 0.6190	83.6700
 0.6200	83.6200
 0.6210	83.7700
 0.6220	83.8300
 0.6230	83.8400
 0.6240	83.8600
 0.6250	83.7400
 0.6260	83.8300
 0.6270	83.7600
 0.6280	83.8000
 0.6290	83.9200
 0.6300	83.8300
 0.6310	83.9400
 0.6320	83.8400
 0.6330	83.8300
 0.6340	83.8800
 0.6350	83.9000
 0.6360	84.0700
 0.6370	83.8900
 0.6380	83.8200
 0.6390	83.9700
 0.6400	84.1400
 0.6410	83.9800
 0.6420	84.0000
 0.6430	83.9200
 0.6440	83.9500
 0.6450	84.0200
 0.6460	84.0600
 0.6470	84.0100
 0.6480	84.0100
 0.6490	84.1300
 0.6500	83.9600
 0.6510	83.9900
 0.6520	84.0400
 0.6530	83.9800
 0.6540	84.1500
 0.6550	84.0500
 0.6560	83.9600
 0.6570	83.9400
 0.6580	84.0600
 0.6590	83.9800
 0.6600	83.9400
 0.6610	83.9700
 0.6620	84.1300
 0.6630	84.1300
 0.6640	84.2300
 0.6650	84.2700
 0.6660	84.1600
 0.6670	84.2700
 0.6680	84.0100
 0.6690	84.1900
 0.6700	84.1800
 0.6710	84.1900
 0.6720	84.3000
 0.6730	84.1900
 0.6740	84.0800
 0.6750	84.2400
 0.6760	84.2900
 0.6770	84.1400
 0.6780	84.2000
 0.6790	84.1500
 0.6800	84.2100
 0.6810	84.3700
 0.6820	84.3700
 0.6830	84.3700
 0.6840	84.3600
 0.6850	84.4800
 0.6860	84.2600
 0.6870	84.3500
 0.6880	84.3500
 0.6890	84.2800
 0.6900	84.5000
 0.6910	84.2800
 0.6920	84.3600
 0.6930	84.4400
 0.6940	84.4200
 0.6950	84.4200
 0.6960	84.3900
 0.6970	84.3000
 0.6980	84.4500
 0.6990	84.5000
 0.7000	84.5600
 0.7010	84.4600
 0.7020	84.4900
 0.7030	84.4400
 0.7040	84.4300
 0.7050	84.5000
 0.7060	84.4000
 0.7070	84.5200
 0.7080	84.6000
 0.7090	84.5800
 0.7100	84.6400
 0.7110	84.4800
 0.7120	84.6700
 0.7130	84.5600
 0.7140	84.6200
 0.7150	84.7100
 0.7160	84.5600
 0.7170	84.7300
 0.7180	84.5500
 0.7190	84.5500
 0.7200	84.5200
 0.7210	84.5300
 0.7220	84.7700
 0.7230	84.6800
 0.7240	84.7500
 0.7250	84.7800
 0.7260	84.7800
 0.7270	84.7900
 0.7280	84.7300
 0.7290	84.7300
 0.7300	84.8200
 0.7310	84.7700
 0.7320	84.7700
 0.7330	84.8400
 0.7340	84.7800
 0.7350	84.9500
 0.7360	84.8400
 0.7370	84.7900
 0.7380	84.8500
 0.7390	84.9100
 0.7400	85.0000
 0.7410	84.8800
 0.7420	84.8900
 0.7430	84.9600
 0.7440	85.0100
 0.7450	85.0100
 0.7460	84.9600
 0.7470	84.8700
 0.7480	85.0300
 0.7490	84.8400
 0.7500	84.9400
 0.7510	85.1100
 0.7520	84.9600
 0.7530	85.0900
 0.7540	85.0100
 0.7550	84.9200
 0.7560	84.9000
 0.7570	84.9600
 0.7580	84.9500
 0.7590	84.9900
 0.7600	84.8900
 0.7610	85.0900
 0.7620	85.0400
 0.7630	85.0800
 0.7640	85.0800
 0.7650	84.9700
 0.7660	85.1500
 0.7670	85.0900
 0.7680	85.0800
 0.7690	85.1500
 0.7700	85.0500
 0.7710	85.2100
 0.7720	85.0800
 0.7730	85.1400
 0.7740	85.2100
 0.7750	85.2200
 0.7760	85.2600
 0.7770	85.1800
 0.7780	85.1400
 0.7790	85.0900
 0.7800	85.2300
 0.7810	85.2700
 0.7820	85.2800
 0.7830	85.3400
 0.7840	85.4500
 0.7850	85.3700
 0.7860	85.3100
 0.7870	85.3700
 0.7880	85.3300
 0.7890	85.4600
 0.7900	85.3900
 0.7910	85.3900
 0.7920	85.5000
 0.7930	85.4900
 0.7940	85.3600
 0.7950	85.4600
 0.7960	85.3600
 0.7970	85.5400
 0.7980	85.4800
 0.7990	85.5900
 0.8000	85.6900
 0.8040	85.8000
 0.8080	85.9200
 0.8120	85.7600
 0.8160	85.8200
 0.8200	85.8600
 0.8240	85.7900
 0.8280	85.9100
 0.8320	85.9100
 0.8360	85.9700
 0.8400	86.0200
 0.8440	86.0300
 0.8480	85.9900
 0.8520	85.9600
 0.8560	86.0000
 0.8600	86.0500
 0.8640	86.1600
 0.8680	86.1600
 0.8720	86.1700
 0.8760	86.1600
 0.8800	86.0400
 0.8840	86.0000
 0.8880	85.9700
 0.8920	86.1000
 0.8960	86.0500
 0.9000	86.1500
 0.9040	86.1000
 0.9080	86.1000
 0.9120	86.0600
 0.9160	86.0300
 0.9200	86.0600
 0.9240	86.1600
 0.9280	86.2600
 0.9320	86.1800
 0.9360	86.1500
 0.9400	86.2200
 0.9440	86.2700
 0.9480	86.2800
 0.9520	86.3400
 0.9560	86.3300
 0.9600	86.2800
 0.9640	86.4700
 0.9680	86.5700
 0.9720	86.3600
 0.9760	86.3600
 0.9800	86.3400
 0.9840	86.3400
 0.9880	86.4000
 0.9920	86.3100
 0.9960	86.4200
 1.0000	86.5100
 1.0040	86.5800
 1.0080	86.5100
 1.0120	86.5200
 1.0160	86.5900
 1.0200	86.6000
 1.0240	86.6000
 1.0280	86.5900
 1.0320	86.5300
 1.0360	86.5700
 1.0400	86.7500
 1.0440	86.7000
 1.0480	86.7000
 1.0520	86.7000
 1.0560	86.7100
 1.0600	86.6500
 1.0640	86.7600
 1.0680	86.7500
 1.0720	86.7700
 1.0760	86.8000
 1.0800	86.7800
 1.0840	86.7000
 1.0880	86.8300
 1.0920	86.8500
 1.0960	86.9600
 1.1000	86.9000
 1.1040	86.8800
 1.1080	86.8500
 1.1120	86.8900
 1.1160	86.9300
 1.1200	87.0200
 1.1240	87.1300
 1.1280	87.0500
 1.1320	87.0900
 1.1360	87.0500
 1.1400	87.1200
 1.1440	87.0200
 1.1480	87.0700
 1.1520	87.0100
 1.1560	87.0200
 1.1600	87.1300
 1.1640	87.1800
 1.1680	87.1700
 1.1720	87.1200
 1.1760	87.0100
 1.1800	87.0600
 1.1840	87.1000
 1.1880	87.1000
 1.1920	87.1800
 1.1960	87.1600
 1.2000	87.2200
 1.2040	87.2100
 1.2080	87.3200
 1.2120	87.2400
 1.2160	87.3200
 1.2200	87.2800
 1.2240	87.2600
 1.2280	87.3200
 1.2320	87.3400
 1.2360	87.4800
 1.2400	87.3800
 1.2440	87.4000
 1.2480	87.4700
 1.2520	87.4100
 1.2560	87.4600
 1.2600	87.5600
 1.2640	87.5100
 1.2680	87.5000
 1.2720	87.6000
 1.2760	87.5400
 1.2800	87.5300
 1.2840	87.5700
 1.2880	87.6300
 1.2920	87.6800
 1.2960	87.7200
 1.3000	87.7100
 1.3040	87.7100
 1.3080	87.5400
 1.3120	87.6200
 1.3160	87.6100
 1.3200	87.6800
 1.3240	87.6500
 1.3280	87.6900
 1.3320	87.6300
 1.3360	87.5700
 1.3400	87.6200
 1.3440	87.6700
 1.3480	87.6700
 1.3520	87.7200
 1.3560	87.7700
 1.3600	87.8000
 1.3640	87.7200
 1.3680	87.6100
 1.3720	87.7200
 1.3760	87.7200
 1.3800	87.7200
 1.3840	87.6100
 1.3880	87.5400
 1.3920	87.4700
 1.3960	87.4700
 1.4000	87.5900
 1.4040	87.4900
 1.4080	87.4400
 1.4120	87.3700
 1.4160	87.3900
 1.4200	87.3800
 1.4240	87.5300
 1.4280	87.6500
 1.4320	87.6600
 1.4360	87.5900
 1.4400	87.5900
 1.4440	87.5900
 1.4480	87.6900
 1.4520	87.6600
 1.4560	87.7100
 1.4600	87.7900
 1.4640	87.8000
 1.4680	87.7400
 1.4720	87.8000
 1.4760	87.8600
 1.4800	87.9600
 1.4840	88.0300
 1.4880	87.9700
 1.4920	88.0100
 1.4960	88.0300
 1.5000	88.0500
 1.5040	88.0400
 1.5080	88.1400
 1.5120	88.2000
 1.5160	88.2600
 1.5200	88.2100
 1.5240	88.2000
 1.5280	88.2100
 1.5320	88.2500
 1.5360	88.3000
 1.5400	88.2400
 1.5440	88.2400
 1.5480	88.2500
 1.5520	88.2400
 1.5560	88.3000
 1.5600	88.3200
 1.5640	88.3800
 1.5680	88.3300
 1.5720	88.2700
 1.5760	88.3900
 1.5800	88.4200
 1.5840	88.3600
 1.5880	88.3800
 1.5920	88.4200
 1.5960	88.3700
 1.6000	88.3900
 1.6040	88.4100
 1.6080	88.4200
 1.6120	88.5100
 1.6160	88.4200
 1.6200	88.4000
 1.6240	88.4900
 1.6280	88.4900
 1.6320	88.5400
 1.6360	88.4600
 1.6400	88.5200
 1.6440	88.5200
 1.6480	88.5200
 1.6520	88.6400
 1.6560	88.5800
 1.6600	88.6200
 1.6640	88.6000
 1.6680	88.5900
 1.6720	88.6500
 1.6760	88.5900
 1.6800	88.7600
 1.6840	88.6300
 1.6880	88.6100
 1.6920	88.6600
 1.6960	88.6700
 1.7000	88.8300
 1.7040	88.7700
 1.7080	88.7200
 1.7120	88.6700
 1.7160	88.7100
 1.7200	88.6600
 1.7240	88.7300
 1.7280	88.7700
 1.7320	88.7100
 1.7360	88.6000
 1.7400	88.5300
 1.7440	88.5400
 1.7480	88.6500
 1.7520	88.5500
 1.7560	88.6100
 1.7600	88.5200
 1.7640	88.6100
 1.7680	88.5700
 1.7720	88.5400
 1.7760	88.5000
 1.7800	88.5600
 1.7840	88.5500
 1.7880	88.5600
 1.7920	88.7200
 1.7960	88.6100
 1.8000	88.6100
 1.8040	88.5800
 1.8080	88.4800
 1.8120	88.5800
 1.8160	88.5600
 1.8200	88.5400
 1.8240	88.5600
 1.8280	88.5400
 1.8320	88.5600
 1.8360	88.6300
 1.8400	88.6000
 1.8440	88.5000
 1.8480	88.4300
 1.8520	88.4200
 1.8560	88.4200
 1.8600	88.4800
 1.8640	88.3000
 1.8680	88.2200
 1.8720	88.1100
 1.8760	88.0000
 1.8800	87.8200
 1.8840	87.7000
 1.8880	87.4600
 1.8920	87.1900
 1.8960	86.9100
 1.9000	86.6500
 1.9040	86.5700
 1.9080	86.4700
 1.9120	86.3500
 1.9160	86.2000
 1.9200	86.1400
 1.9240	86.1100
 1.9280	86.1200
 1.9320	86.0800
 1.9360	86.0400
 1.9400	86.1400
 1.9440	86.1200
 1.9480	86.2000
 1.9520	86.2800
 1.9560	86.3900
 1.9600	86.5600
 1.9640	86.6200
 1.9680	86.7200
 1.9720	86.7800
 1.9760	86.8700
 1.9800	86.9700
 1.9840	87.1300
 1.9880	87.2700
 1.9920	87.4200
 1.9960	87.6100
 2.0000	87.7000
 2.0040	87.7800
 2.0080	87.7900
 2.0120	87.9200
 2.0160	88.0500
 2.0200	88.1200
 2.0240	88.1500
 2.0280	88.2700
 2.0320	88.3200
 2.0360	88.3500
 2.0400	88.4200
 2.0440	88.4000
 2.0480	88.3800
 2.0520	88.4300
 2.0560	88.5000
 2.0600	88.5200
 2.0640	88.4800
 2.0680	88.5200
 2.0720	88.5900
 2.0760	88.6200
 2.0800	88.6400
 2.0840	88.7000
 2.0880	88.6700
 2.0920	88.7300
 2.0960	88.8000
 2.1000	88.8800
 2.1040	88.9500
 2.1080	88.9500
 2.1120	89.0800
 2.1160	89.0300
 2.1200	89.1000
 2.1240	89.0800
 2.1280	88.9900
 2.1320	89.0200
 2.1360	89.0200
 2.1400	89.0200
 2.1440	88.9500
 2.1480	88.9200
 2.1520	88.8600
 2.1560	88.7700
 2.1600	88.6400
 2.1640	88.6100
 2.1680	88.5200
 2.1720	88.5700
 2.1760	88.3900
 2.1800	88.4500
 2.1840	88.4100
 2.1880	88.2800
 2.1920	88.2400
 2.1960	88.1400
 2.2000	88.1500
 2.2040	88.0400
 2.2080	87.9800
 2.2120	88.0600
 2.2160	87.9800
 2.2200	88.0100
 2.2240	88.1200
 2.2280	88.1100
 2.2320	88.0400
 2.2360	88.0100
 2.2400	88.1000
 2.2440	88.1000
 2.2480	88.1400
 2.2520	88.0700
 2.2560	87.9900
 2.2600	88.1200
 2.2640	88.1100
 2.2680	88.1000
 2.2720	88.0500
 2.2760	88.0700
 2.2800	87.9300
 2.2840	87.9400
 2.2880	87.9400
 2.2920	87.8600
 2.2960	87.8000
 2.3000	87.7300
 2.3040	87.7000
 2.3080	87.8300
 2.3120	87.8600
 2.3160	87.9200
 2.3200	87.9500
 2.3240	87.8800
 2.3280	87.9300
 2.3320	88.0800
 2.3360	88.0900
 2.3400	88.0000
 2.3440	87.9900
 2.3480	87.8700
 2.3520	87.9400
 2.3560	87.9600
 2.3600	87.8600
 2.3640	87.7600
 2.3680	87.6900
 2.3720	87.6700
 2.3760	87.6000
 2.3800	87.5900
 2.3840	87.4600
 2.3880	87.3800
 2.3920	87.3500
 2.3960	87.3000
 2.4000	87.3100
 2.4040	87.2800
 2.4080	87.1700
 2.4120	87.1800
 2.4160	87.1100
 2.4200	87.1000
 2.4240	86.9900
 2.4280	86.9200
 2.4320	86.8600
 2.4360	86.8100
 2.4400	86.7400
 2.4440	86.6700
 2.4480	86.6100
 2.4520	86.6100
 2.4560	86.5900
 2.4600	86.4800
 2.4640	86.4700
 2.4680	86.4100
 2.4720	86.3600
 2.4760	86.2900
 2.4800	86.4800
 2.4840	86.7000
 2.4880	86.8200
 2.4920	86.9700
 2.4960	87.0100
 2.5000	87.1800
