Name: Scheelite CaWO_4
Type: Mineral
Class: Tungstate
Subclass: None
Particle Size: Coarse
Sample No.: T-1A
Owner: JPL
Wavelength Range: VSWIR
Origin: USA, California, Kern County, Atolia
Collection Date: N/A
Description: Particle size was 125-500um.Collected by Burminco Original ASTER Spectral Library name was jpl.beckman.mineral.tungstate.none.coarse.t01a.spectrum.txt
Measurement: Hemispherical reflectance
First Column: X
Second Column: Y
X Units: Wavelength (micrometers)
Y Units:Reflectance (percent)
First X Value:  0.4000
Last X Value:  2.5000
Number of X Values: 826
Additional Information: mineral.tungstate.none.coarse.vswir.t-1a.jpl.beckman.ancillary.txt

 0.4000	29.8700
 0.4010	30.0100
 0.4020	30.0900
 0.4030	30.2500
 0.4040	30.3700
 0.4050	30.5000
 0.4060	30.5600
 0.4070	30.7100
 0.4080	30.7100
 0.4090	31.0100
 0.4100	31.0700
 0.4110	31.1300
 0.4120	31.4100
 0.4130	31.3500
 0.4140	31.6500
 0.4150	31.7100
 0.4160	31.7700
 0.4170	31.9800
 0.4180	31.9200
 0.4190	32.2200
 0.4200	32.2200
 0.4210	32.3200
 0.4220	32.4800
 0.4230	32.4800
 0.4240	32.6900
 0.4250	32.7000
 0.4260	32.8600
 0.4270	32.9400
 0.4280	32.9400
 0.4290	33.1400
 0.4300	33.3100
 0.4310	33.3100
 0.4320	33.6000
 0.4330	33.6400
 0.4340	33.8800
 0.4350	33.9400
 0.4360	34.1000
 0.4370	34.2800
 0.4380	34.2800
 0.4390	34.5600
 0.4400	34.7000
 0.4410	34.7400
 0.4420	34.8100
 0.4430	34.9100
 0.4440	35.1500
 0.4450	35.2400
 0.4460	35.3200
 0.4470	35.5000
 0.4480	35.5700
 0.4490	35.7500
 0.4500	35.8800
 0.4510	35.8800
 0.4520	35.9300
 0.4530	36.0000
 0.4540	36.1800
 0.4550	36.2500
 0.4560	36.2000
 0.4570	36.3300
 0.4580	36.3800
 0.4590	36.4900
 0.4600	36.3000
 0.4610	36.2700
 0.4620	36.3500
 0.4630	36.4700
 0.4640	36.5200
 0.4650	36.5100
 0.4660	36.5900
 0.4670	36.6100
 0.4680	36.7700
 0.4690	36.8200
 0.4700	36.8500
 0.4710	36.9100
 0.4720	36.9600
 0.4730	37.1400
 0.4740	37.2000
 0.4750	37.2700
 0.4760	37.3800
 0.4770	37.3200
 0.4780	37.4300
 0.4790	37.5400
 0.4800	37.4800
 0.4810	37.6300
 0.4820	37.6800
 0.4830	37.8200
 0.4840	37.8700
 0.4850	37.8700
 0.4860	37.9900
 0.4870	38.1000
 0.4880	38.1700
 0.4890	38.3300
 0.4900	38.3500
 0.4910	38.4800
 0.4920	38.5900
 0.4930	38.7800
 0.4940	38.8300
 0.4950	38.8700
 0.4960	39.1200
 0.4970	39.1600
 0.4980	39.3200
 0.4990	39.4700
 0.5000	39.4800
 0.5010	39.6600
 0.5020	39.6700
 0.5030	39.9100
 0.5040	40.0500
 0.5050	40.1400
 0.5060	40.3700
 0.5070	40.4600
 0.5080	40.6200
 0.5090	40.8000
 0.5100	40.7200
 0.5110	40.9700
 0.5120	41.1500
 0.5130	41.3500
 0.5140	41.6000
 0.5150	41.5600
 0.5160	41.8200
 0.5170	41.8700
 0.5180	42.0200
 0.5190	42.2700
 0.5200	42.2400
 0.5210	42.5000
 0.5220	42.6300
 0.5230	42.7600
 0.5240	43.0200
 0.5250	43.0500
 0.5260	43.3200
 0.5270	43.4200
 0.5280	43.4700
 0.5290	43.6200
 0.5300	43.8300
 0.5310	44.0900
 0.5320	44.2600
 0.5330	44.3000
 0.5340	44.5400
 0.5350	44.6400
 0.5360	44.8800
 0.5370	45.0300
 0.5380	45.1200
 0.5390	45.3900
 0.5400	45.4800
 0.5410	45.5900
 0.5420	45.8300
 0.5430	45.9800
 0.5440	46.0700
 0.5450	46.2200
 0.5460	46.4300
 0.5470	46.5800
 0.5480	46.6400
 0.5490	46.8100
 0.5500	46.9300
 0.5510	47.2400
 0.5520	47.4200
 0.5530	47.4200
 0.5540	47.6500
 0.5550	47.6800
 0.5560	47.8800
 0.5570	48.1200
 0.5580	48.1200
 0.5590	48.1900
 0.5600	48.2200
 0.5610	48.7500
 0.5620	48.9500
 0.5630	49.0900
 0.5640	49.1200
 0.5650	49.3600
 0.5660	49.3300
 0.5670	49.4100
 0.5680	49.5300
 0.5690	49.5500
 0.5700	49.7600
 0.5710	49.7000
 0.5720	49.8200
 0.5730	49.8900
 0.5740	49.9400
 0.5750	50.1300
 0.5760	50.0300
 0.5770	50.1300
 0.5780	50.3500
 0.5790	50.3800
 0.5800	50.4500
 0.5810	50.3100
 0.5820	50.3600
 0.5830	50.4600
 0.5840	50.4700
 0.5850	50.6000
 0.5860	50.6000
 0.5870	50.7100
 0.5880	50.7500
 0.5890	50.7500
 0.5900	51.0200
 0.5910	51.0500
 0.5920	51.1000
 0.5930	51.1400
 0.5940	51.0800
 0.5950	51.3000
 0.5960	51.3500
 0.5970	51.3400
 0.5980	51.4400
 0.5990	51.3800
 0.6000	51.5700
 0.6010	51.6000
 0.6020	51.6000
 0.6030	51.7400
 0.6040	51.7000
 0.6050	51.7500
 0.6060	51.8400
 0.6070	51.8800
 0.6080	51.9100
 0.6090	51.8300
 0.6100	51.9700
 0.6110	51.9500
 0.6120	51.9400
 0.6130	52.0300
 0.6140	51.9900
 0.6150	52.0200
 0.6160	52.0300
 0.6170	52.0700
 0.6180	52.1300
 0.6190	51.9800
 0.6200	52.0000
 0.6210	52.1700
 0.6220	52.1900
 0.6230	52.2000
 0.6240	52.2500
 0.6250	52.1300
 0.6260	52.1700
 0.6270	52.1900
 0.6280	52.2300
 0.6290	52.3000
 0.6300	52.3600
 0.6310	52.3500
 0.6320	52.3000
 0.6330	52.3900
 0.6340	52.4800
 0.6350	52.4800
 0.6360	52.5400
 0.6370	52.3900
 0.6380	52.6300
 0.6390	52.6700
 0.6400	52.5900
 0.6410	52.7400
 0.6420	52.7000
 0.6430	52.7500
 0.6440	52.8600
 0.6450	52.8200
 0.6460	52.8600
 0.6470	52.7800
 0.6480	52.8500
 0.6490	52.9800
 0.6500	52.9400
 0.6510	53.1000
 0.6520	53.0100
 0.6530	53.1000
 0.6540	53.2000
 0.6550	53.0500
 0.6560	53.2200
 0.6570	53.1500
 0.6580	53.1800
 0.6590	53.3000
 0.6600	53.2800
 0.6610	53.4200
 0.6620	53.2900
 0.6630	53.4000
 0.6640	53.5200
 0.6650	53.5900
 0.6660	53.5900
 0.6670	53.6000
 0.6680	53.5600
 0.6690	53.6400
 0.6700	53.6900
 0.6710	53.8400
 0.6720	53.8600
 0.6730	53.8200
 0.6740	53.8300
 0.6750	53.8300
 0.6760	54.0100
 0.6770	54.0700
 0.6780	54.0200
 0.6790	54.1500
 0.6800	54.0900
 0.6810	54.2600
 0.6820	54.3300
 0.6830	54.2200
 0.6840	54.3800
 0.6850	54.1500
 0.6860	54.3400
 0.6870	54.3800
 0.6880	54.4300
 0.6890	54.4900
 0.6900	54.4500
 0.6910	54.6000
 0.6920	54.6600
 0.6930	54.5900
 0.6940	54.7500
 0.6950	54.6500
 0.6960	54.8200
 0.6970	54.8900
 0.6980	54.8500
 0.6990	54.9400
 0.7000	54.8300
 0.7010	54.9000
 0.7020	54.9400
 0.7030	54.9400
 0.7040	55.0300
 0.7050	55.0700
 0.7060	55.1700
 0.7070	55.1000
 0.7080	55.0400
 0.7090	55.2600
 0.7100	55.3600
 0.7110	55.2800
 0.7120	55.3400
 0.7130	55.4100
 0.7140	55.5200
 0.7150	55.5700
 0.7160	55.4700
 0.7170	55.5700
 0.7180	55.5000
 0.7190	55.5700
 0.7200	55.6300
 0.7210	55.6900
 0.7220	55.6300
 0.7230	55.6300
 0.7240	55.8200
 0.7250	55.8200
 0.7260	55.8500
 0.7270	55.8500
 0.7280	55.7900
 0.7290	55.9700
 0.7300	56.0000
 0.7310	55.9700
 0.7320	55.9700
 0.7330	55.9700
 0.7340	56.1400
 0.7350	56.1500
 0.7360	56.0900
 0.7370	56.0200
 0.7380	56.0100
 0.7390	56.0600
 0.7400	56.1400
 0.7410	56.1300
 0.7420	56.1600
 0.7430	56.1200
 0.7440	56.1400
 0.7450	56.1400
 0.7460	56.2900
 0.7470	56.2300
 0.7480	56.1300
 0.7490	56.1900
 0.7500	56.1800
 0.7510	56.2200
 0.7520	56.2800
 0.7530	56.2300
 0.7540	56.2800
 0.7550	56.2000
 0.7560	56.2000
 0.7570	56.3500
 0.7580	56.1600
 0.7590	56.1500
 0.7600	56.1100
 0.7610	56.2100
 0.7620	56.1900
 0.7630	56.1400
 0.7640	56.2900
 0.7650	56.2000
 0.7660	56.1100
 0.7670	56.2800
 0.7680	56.3100
 0.7690	56.1800
 0.7700	56.1400
 0.7710	56.1000
 0.7720	56.2200
 0.7730	56.2200
 0.7740	56.1800
 0.7750	56.1600
 0.7760	56.1500
 0.7770	56.0800
 0.7780	56.0000
 0.7790	56.1200
 0.7800	56.1100
 0.7810	56.0500
 0.7820	56.1800
 0.7830	56.0200
 0.7840	56.1400
 0.7850	56.0000
 0.7860	55.9600
 0.7870	55.9700
 0.7880	55.8800
 0.7890	55.8500
 0.7900	55.8800
 0.7910	55.8800
 0.7920	55.9800
 0.7930	55.8300
 0.7940	55.8000
 0.7950	55.7900
 0.7960	55.6900
 0.7970	55.7100
 0.7980	55.6700
 0.7990	55.7200
 0.8000	56.0500
 0.8040	56.0600
 0.8080	55.8700
 0.8120	55.7400
 0.8160	55.7500
 0.8200	55.6300
 0.8240	55.5400
 0.8280	55.5600
 0.8320	55.4000
 0.8360	55.4000
 0.8400	55.4100
 0.8440	55.2800
 0.8480	55.1800
 0.8520	55.1300
 0.8560	55.0500
 0.8600	54.9600
 0.8640	54.8600
 0.8680	54.8800
 0.8720	54.7300
 0.8760	54.6600
 0.8800	54.6700
 0.8840	54.6100
 0.8880	54.5400
 0.8920	54.4700
 0.8960	54.4000
 0.9000	54.3700
 0.9040	54.3400
 0.9080	54.2800
 0.9120	54.2800
 0.9160	54.2000
 0.9200	54.1500
 0.9240	54.1000
 0.9280	54.1500
 0.9320	54.1000
 0.9360	54.0900
 0.9400	54.1400
 0.9440	54.0900
 0.9480	54.1400
 0.9520	54.0600
 0.9560	54.0700
 0.9600	54.1600
 0.9640	54.0900
 0.9680	54.2000
 0.9720	54.1000
 0.9760	54.1700
 0.9800	54.1700
 0.9840	54.2700
 0.9880	54.2600
 0.9920	54.4300
 0.9960	54.4400
 1.0000	54.5000
 1.0040	54.5000
 1.0080	54.5700
 1.0120	54.7400
 1.0160	54.8300
 1.0200	54.8900
 1.0240	55.0000
 1.0280	55.0600
 1.0320	55.1800
 1.0360	55.3700
 1.0400	55.4200
 1.0440	55.5200
 1.0480	55.6500
 1.0520	55.7100
 1.0560	55.8400
 1.0600	56.0400
 1.0640	56.1300
 1.0680	56.2300
 1.0720	56.3800
 1.0760	56.5100
 1.0800	56.7000
 1.0840	56.8000
 1.0880	57.0100
 1.0920	57.1400
 1.0960	57.3200
 1.1000	57.4400
 1.1040	57.6300
 1.1080	57.7200
 1.1120	57.8900
 1.1160	58.1600
 1.1200	58.4000
 1.1240	58.6000
 1.1280	58.7600
 1.1320	58.8700
 1.1360	59.1000
 1.1400	59.2100
 1.1440	59.3100
 1.1480	59.5300
 1.1520	59.6600
 1.1560	59.7700
 1.1600	59.8400
 1.1640	60.0200
 1.1680	60.1300
 1.1720	60.2900
 1.1760	60.3800
 1.1800	60.5400
 1.1840	60.5800
 1.1880	60.7400
 1.1920	60.8400
 1.1960	60.9400
 1.2000	61.0700
 1.2040	61.1600
 1.2080	61.3000
 1.2120	61.4400
 1.2160	61.5600
 1.2200	61.6100
 1.2240	61.8100
 1.2280	61.8900
 1.2320	61.9600
 1.2360	62.1300
 1.2400	62.2100
 1.2440	62.3900
 1.2480	62.4900
 1.2520	62.5700
 1.2560	62.7300
 1.2600	62.7100
 1.2640	62.8400
 1.2680	62.9200
 1.2720	63.0400
 1.2760	63.1100
 1.2800	63.2300
 1.2840	63.3700
 1.2880	63.4200
 1.2920	63.5100
 1.2960	63.6200
 1.3000	63.7000
 1.3040	63.7600
 1.3080	63.9100
 1.3120	64.0100
 1.3160	64.0900
 1.3200	64.1300
 1.3240	64.1600
 1.3280	64.2800
 1.3320	64.3800
 1.3360	64.3800
 1.3400	64.5100
 1.3440	64.6100
 1.3480	64.6600
 1.3520	64.7000
 1.3560	64.7300
 1.3600	64.7700
 1.3640	64.7800
 1.3680	64.7600
 1.3720	64.8100
 1.3760	64.8200
 1.3800	64.5600
 1.3840	64.2400
 1.3880	63.8200
 1.3920	63.2700
 1.3960	62.7700
 1.4000	62.2600
 1.4040	62.1000
 1.4080	62.0300
 1.4120	62.3800
 1.4160	62.8400
 1.4200	63.2900
 1.4240	63.5500
 1.4280	63.8400
 1.4320	64.0700
 1.4360	64.2500
 1.4400	64.4800
 1.4440	64.4900
 1.4480	64.6400
 1.4520	64.7100
 1.4560	64.7700
 1.4600	64.8900
 1.4640	65.0200
 1.4680	65.1900
 1.4720	65.2800
 1.4760	65.4600
 1.4800	65.6800
 1.4840	65.7600
 1.4880	65.9400
 1.4920	66.1100
 1.4960	66.2300
 1.5000	66.3500
 1.5040	66.6400
 1.5080	66.7500
 1.5120	66.8500
 1.5160	66.9000
 1.5200	67.0600
 1.5240	67.2000
 1.5280	67.2900
 1.5320	67.3500
 1.5360	67.4800
 1.5400	67.4400
 1.5440	67.5500
 1.5480	67.6500
 1.5520	67.6700
 1.5560	67.7700
 1.5600	67.7500
 1.5640	67.8800
 1.5680	67.9500
 1.5720	68.0100
 1.5760	67.9600
 1.5800	68.0800
 1.5840	68.0800
 1.5880	68.0700
 1.5920	68.2300
 1.5960	68.2000
 1.6000	68.2400
 1.6040	68.3300
 1.6080	68.3100
 1.6120	68.3200
 1.6160	68.3700
 1.6200	68.4800
 1.6240	68.4800
 1.6280	68.4800
 1.6320	68.4800
 1.6360	68.5100
 1.6400	68.6000
 1.6440	68.6700
 1.6480	68.7200
 1.6520	68.6300
 1.6560	68.7000
 1.6600	68.7000
 1.6640	68.6700
 1.6680	68.6800
 1.6720	68.7300
 1.6760	68.7500
 1.6800	68.7800
 1.6840	68.7300
 1.6880	68.7200
 1.6920	68.7300
 1.6960	68.7700
 1.7000	68.7400
 1.7040	68.6400
 1.7080	68.6900
 1.7120	68.5900
 1.7160	68.5100
 1.7200	68.5300
 1.7240	68.5000
 1.7280	68.5600
 1.7320	68.5700
 1.7360	68.5800
 1.7400	68.4800
 1.7440	68.4600
 1.7480	68.4500
 1.7520	68.4600
 1.7560	68.4500
 1.7600	68.4500
 1.7640	68.3900
 1.7680	68.4000
 1.7720	68.3800
 1.7760	68.4200
 1.7800	68.4900
 1.7840	68.4800
 1.7880	68.4900
 1.7920	68.5200
 1.7960	68.5500
 1.8000	68.4900
 1.8040	68.5200
 1.8080	68.5500
 1.8120	68.5500
 1.8160	68.5700
 1.8200	68.5100
 1.8240	68.5400
 1.8280	68.4900
 1.8320	68.5400
 1.8360	68.4700
 1.8400	68.4000
 1.8440	68.3100
 1.8480	68.2300
 1.8520	68.1600
 1.8560	67.9400
 1.8600	67.7200
 1.8640	67.4600
 1.8680	66.9100
 1.8720	66.4300
 1.8760	65.6100
 1.8800	64.8600
 1.8840	63.9200
 1.8880	62.8400
 1.8920	61.8100
 1.8960	60.8200
 1.9000	60.0900
 1.9040	59.6000
 1.9080	59.3300
 1.9120	59.2700
 1.9160	59.3400
 1.9200	59.4600
 1.9240	59.5800
 1.9280	59.7600
 1.9320	59.9000
 1.9360	60.1100
 1.9400	60.3300
 1.9440	60.5300
 1.9480	60.7500
 1.9520	60.9200
 1.9560	61.1600
 1.9600	61.3200
 1.9640	61.5800
 1.9680	61.8500
 1.9720	62.0900
 1.9760	62.3100
 1.9800	62.5500
 1.9840	62.7900
 1.9880	63.0300
 1.9920	63.3500
 1.9960	63.6000
 2.0000	63.8100
 2.0040	64.0100
 2.0080	64.2900
 2.0120	64.5400
 2.0160	64.6900
 2.0200	64.8700
 2.0240	65.0600
 2.0280	65.2000
 2.0320	65.4300
 2.0360	65.5400
 2.0400	65.7400
 2.0440	65.8200
 2.0480	65.8900
 2.0520	66.0400
 2.0560	66.1200
 2.0600	66.1900
 2.0640	66.2700
 2.0680	66.2900
 2.0720	66.4500
 2.0760	66.5200
 2.0800	66.5000
 2.0840	66.6400
 2.0880	66.6400
 2.0920	66.7200
 2.0960	66.7600
 2.1000	66.8400
 2.1040	66.8800
 2.1080	67.0500
 2.1120	67.0500
 2.1160	67.1600
 2.1200	67.2300
 2.1240	67.2600
 2.1280	67.2900
 2.1320	67.1800
 2.1360	67.2200
 2.1400	67.1900
 2.1440	67.0500
 2.1480	66.9900
 2.1520	66.8200
 2.1560	66.6700
 2.1600	66.4000
 2.1640	66.1900
 2.1680	65.8400
 2.1720	65.5400
 2.1760	65.1500
 2.1800	64.7900
 2.1840	64.4500
 2.1880	64.1200
 2.1920	63.9900
 2.1960	63.8300
 2.2000	63.7900
 2.2040	63.8900
 2.2080	64.1000
 2.2120	64.3400
 2.2160	64.5300
 2.2200	64.8500
 2.2240	65.0600
 2.2280	65.2600
 2.2320	65.3200
 2.2360	65.3600
 2.2400	65.4100
 2.2440	65.4000
 2.2480	65.4800
 2.2520	65.4400
 2.2560	65.4300
 2.2600	65.3900
 2.2640	65.3900
 2.2680	65.2900
 2.2720	65.2200
 2.2760	65.0600
 2.2800	64.9700
 2.2840	64.8200
 2.2880	64.6800
 2.2920	64.4900
 2.2960	64.3900
 2.3000	64.3000
 2.3040	64.1100
 2.3080	64.0200
 2.3120	63.8900
 2.3160	63.7600
 2.3200	63.5600
 2.3240	63.3600
 2.3280	63.1800
 2.3320	63.0900
 2.3360	62.8900
 2.3400	62.7600
 2.3440	62.7100
 2.3480	62.7000
 2.3520	62.7700
 2.3560	62.7200
 2.3600	62.7900
 2.3640	62.6700
 2.3680	62.6600
 2.3720	62.6000
 2.3760	62.5100
 2.3800	62.4700
 2.3840	62.3000
 2.3880	62.1600
 2.3920	62.0700
 2.3960	61.9000
 2.4000	61.8000
 2.4040	61.6000
 2.4080	61.4900
 2.4120	61.3300
 2.4160	61.0600
 2.4200	60.9000
 2.4240	60.7100
 2.4280	60.5400
 2.4320	60.4600
 2.4360	60.3100
 2.4400	60.0100
 2.4440	59.8800
 2.4480	59.6900
 2.4520	59.6500
 2.4560	59.4800
 2.4600	59.3400
 2.4640	59.2300
 2.4680	59.0600
 2.4720	58.8800
 2.4760	58.8500
 2.4800	58.8400
 2.4840	58.7800
 2.4880	58.7900
 2.4920	58.7300
 2.4960	58.7500
 2.5000	58.6800
