Name: Johannsenite Ca(Mn,Fe^2+)(SiO_3)_2
Type: Mineral
Class: Silicate
Subclass: Inosilicate
Particle Size: Medium
Sample No.: IN-12A
Owner: JPL
Wavelength Range: VSWIR
Origin: USA, Arizona, Graham County, Aravaipa
Collection Date: N/A
Description: Particle size was 45-125um.Collected by Burminco Original ASTER Spectral Library name was jpl.beckman.mineral.silicate.inosilicate.medium.in12a.spectrum.txt
Measurement: Hemispherical reflectance
First Column: X
Second Column: Y
X Units: Wavelength (micrometers)
Y Units:Reflectance (percent)
First X Value:  0.4000
Last X Value:  2.5000
Number of X Values: 826
Additional Information: mineral.silicate.inosilicate.medium.vswir.in-12a.jpl.beckman.ancillary.txt

 0.4000	 3.1300
 0.4010	 3.1200
 0.4020	 2.9900
 0.4030	 3.1100
 0.4040	 3.1100
 0.4050	 3.0500
 0.4060	 3.1700
 0.4070	 3.1700
 0.4080	 3.1100
 0.4090	 3.1700
 0.4100	 3.1000
 0.4110	 3.0500
 0.4120	 3.0500
 0.4130	 3.1000
 0.4140	 3.1600
 0.4150	 3.1700
 0.4160	 3.1100
 0.4170	 3.1700
 0.4180	 3.1700
 0.4190	 3.2300
 0.4200	 3.1100
 0.4210	 3.2300
 0.4220	 3.1600
 0.4230	 3.1000
 0.4240	 3.2200
 0.4250	 3.2200
 0.4260	 3.2800
 0.4270	 3.2200
 0.4280	 3.1100
 0.4290	 3.1700
 0.4300	 3.1700
 0.4310	 3.2800
 0.4320	 3.2900
 0.4330	 3.2200
 0.4340	 3.2300
 0.4350	 3.2900
 0.4360	 3.1700
 0.4370	 3.2900
 0.4380	 3.2900
 0.4390	 3.2300
 0.4400	 3.2200
 0.4410	 3.2200
 0.4420	 3.2100
 0.4430	 3.2700
 0.4440	 3.2800
 0.4450	 3.3400
 0.4460	 3.2200
 0.4470	 3.2200
 0.4480	 3.2200
 0.4490	 3.1700
 0.4500	 3.3500
 0.4510	 3.2300
 0.4520	 3.4000
 0.4530	 3.2200
 0.4540	 3.2700
 0.4550	 3.5000
 0.4560	 3.3100
 0.4570	 3.3600
 0.4580	 3.3500
 0.4590	 3.2900
 0.4600	 3.3600
 0.4610	 3.3300
 0.4620	 3.3400
 0.4630	 3.4500
 0.4640	 3.4500
 0.4650	 3.3400
 0.4660	 3.3400
 0.4670	 3.4000
 0.4680	 3.3400
 0.4690	 3.4600
 0.4700	 3.4000
 0.4710	 3.4600
 0.4720	 3.5800
 0.4730	 3.4500
 0.4740	 3.4600
 0.4750	 3.5100
 0.4760	 3.5100
 0.4770	 3.6400
 0.4780	 3.5200
 0.4790	 3.3900
 0.4800	 3.5500
 0.4810	 3.4900
 0.4820	 3.6200
 0.4830	 3.5100
 0.4840	 3.6200
 0.4850	 3.6100
 0.4860	 3.4900
 0.4870	 3.6100
 0.4880	 3.5500
 0.4890	 3.7200
 0.4900	 3.7200
 0.4910	 3.6000
 0.4920	 3.5900
 0.4930	 3.6400
 0.4940	 3.6400
 0.4950	 3.7500
 0.4960	 3.7500
 0.4970	 3.6200
 0.4980	 3.8000
 0.4990	 3.7300
 0.5000	 3.7300
 0.5010	 3.7300
 0.5020	 3.8400
 0.5030	 3.8900
 0.5040	 3.7700
 0.5050	 3.7600
 0.5060	 3.8200
 0.5070	 3.8300
 0.5080	 4.0000
 0.5090	 3.8900
 0.5100	 3.8300
 0.5110	 3.8900
 0.5120	 3.8900
 0.5130	 3.9400
 0.5140	 4.0000
 0.5150	 4.0100
 0.5160	 4.0700
 0.5170	 3.9500
 0.5180	 4.0600
 0.5190	 4.0500
 0.5200	 4.0000
 0.5210	 4.1600
 0.5220	 4.1000
 0.5230	 4.1000
 0.5240	 4.1000
 0.5250	 4.2000
 0.5260	 4.2000
 0.5270	 4.2000
 0.5280	 4.2000
 0.5290	 4.3300
 0.5300	 4.1700
 0.5310	 4.2800
 0.5320	 4.3300
 0.5330	 4.3100
 0.5340	 4.4100
 0.5350	 4.3200
 0.5360	 4.2100
 0.5370	 4.2700
 0.5380	 4.2700
 0.5390	 4.4500
 0.5400	 4.5000
 0.5410	 4.2000
 0.5420	 4.4900
 0.5430	 4.4200
 0.5440	 4.5900
 0.5450	 4.4600
 0.5460	 4.5700
 0.5470	 4.5600
 0.5480	 4.4900
 0.5490	 4.5400
 0.5500	 4.4800
 0.5510	 4.5900
 0.5520	 4.7000
 0.5530	 4.6500
 0.5540	 4.5700
 0.5550	 4.6800
 0.5560	 4.7000
 0.5570	 4.7700
 0.5580	 4.7300
 0.5590	 4.7600
 0.5600	 4.7100
 0.5610	 4.8500
 0.5620	 4.7900
 0.5630	 4.8400
 0.5640	 4.9000
 0.5650	 4.8500
 0.5660	 4.9700
 0.5670	 4.8600
 0.5680	 4.7400
 0.5690	 4.9700
 0.5700	 5.0300
 0.5710	 4.9100
 0.5720	 5.0300
 0.5730	 4.9300
 0.5740	 4.9900
 0.5750	 4.9700
 0.5760	 4.8700
 0.5770	 5.0000
 0.5780	 4.8900
 0.5790	 5.0700
 0.5800	 5.0100
 0.5810	 4.9600
 0.5820	 5.0200
 0.5830	 4.9700
 0.5840	 5.0200
 0.5850	 5.0700
 0.5860	 4.9000
 0.5870	 5.0700
 0.5880	 5.0200
 0.5890	 5.0200
 0.5900	 5.0700
 0.5910	 5.0700
 0.5920	 4.9600
 0.5930	 5.1400
 0.5940	 4.9600
 0.5950	 5.2000
 0.5960	 5.1300
 0.5970	 5.1300
 0.5980	 5.1600
 0.5990	 4.9600
 0.6000	 5.2200
 0.6010	 5.1900
 0.6020	 5.2200
 0.6030	 5.2100
 0.6040	 5.1500
 0.6050	 5.2100
 0.6060	 5.2700
 0.6070	 5.2500
 0.6080	 5.2500
 0.6090	 5.1800
 0.6100	 5.2200
 0.6110	 5.2900
 0.6120	 5.2200
 0.6130	 5.3500
 0.6140	 5.2900
 0.6150	 5.3500
 0.6160	 5.3400
 0.6170	 5.2400
 0.6180	 5.3000
 0.6190	 5.4300
 0.6200	 5.3600
 0.6210	 5.3500
 0.6220	 5.2800
 0.6230	 5.2800
 0.6240	 5.4000
 0.6250	 5.2200
 0.6260	 5.3400
 0.6270	 5.4000
 0.6280	 5.4000
 0.6290	 5.4600
 0.6300	 5.3000
 0.6310	 5.3600
 0.6320	 5.4800
 0.6330	 5.4000
 0.6340	 5.5700
 0.6350	 5.4700
 0.6360	 5.3500
 0.6370	 5.4700
 0.6380	 5.4000
 0.6390	 5.5100
 0.6400	 5.5100
 0.6410	 5.5700
 0.6420	 5.5900
 0.6430	 5.3600
 0.6440	 5.5900
 0.6450	 5.5300
 0.6460	 5.6300
 0.6470	 5.6200
 0.6480	 5.5600
 0.6490	 5.5200
 0.6500	 5.5700
 0.6510	 5.5700
 0.6520	 5.5700
 0.6530	 5.5800
 0.6540	 5.6900
 0.6550	 5.6500
 0.6560	 5.5400
 0.6570	 5.6500
 0.6580	 5.6500
 0.6590	 5.6900
 0.6600	 5.7400
 0.6610	 5.5600
 0.6620	 5.6900
 0.6630	 5.6900
 0.6640	 5.6900
 0.6650	 5.7400
 0.6660	 5.6800
 0.6670	 5.5700
 0.6680	 5.7600
 0.6690	 5.6300
 0.6700	 5.6900
 0.6710	 5.7400
 0.6720	 5.7900
 0.6730	 5.8000
 0.6740	 5.6300
 0.6750	 5.7600
 0.6760	 5.8000
 0.6770	 5.8500
 0.6780	 5.8000
 0.6790	 5.7400
 0.6800	 5.6400
 0.6810	 5.8100
 0.6820	 5.6900
 0.6830	 5.8000
 0.6840	 5.8000
 0.6850	 5.8500
 0.6860	 5.7500
 0.6870	 5.6900
 0.6880	 5.8500
 0.6890	 5.8400
 0.6900	 5.8400
 0.6910	 5.8000
 0.6920	 5.7500
 0.6930	 5.7600
 0.6940	 5.8100
 0.6950	 5.6900
 0.6960	 5.8600
 0.6970	 5.7600
 0.6980	 5.8900
 0.6990	 5.8400
 0.7000	 5.7200
 0.7010	 5.8000
 0.7020	 5.9200
 0.7030	 5.8000
 0.7040	 5.8300
 0.7050	 5.9500
 0.7060	 5.8400
 0.7070	 5.8000
 0.7080	 5.9700
 0.7090	 5.8500
 0.7100	 5.9000
 0.7110	 5.8500
 0.7120	 5.8600
 0.7130	 6.0400
 0.7140	 5.8500
 0.7150	 5.9100
 0.7160	 5.8400
 0.7170	 5.8000
 0.7180	 5.9700
 0.7190	 5.9100
 0.7200	 5.9100
 0.7210	 5.9600
 0.7220	 5.8500
 0.7230	 5.9800
 0.7240	 5.8600
 0.7250	 5.9100
 0.7260	 5.9600
 0.7270	 5.9000
 0.7280	 5.9000
 0.7290	 5.9000
 0.7300	 6.0100
 0.7310	 5.9100
 0.7320	 5.8500
 0.7330	 5.9800
 0.7340	 5.9800
 0.7350	 5.9100
 0.7360	 5.9000
 0.7370	 5.9500
 0.7380	 5.9000
 0.7390	 5.9600
 0.7400	 5.8900
 0.7410	 5.9600
 0.7420	 6.0200
 0.7430	 5.9700
 0.7440	 5.9000
 0.7450	 6.0100
 0.7460	 6.0000
 0.7470	 6.0100
 0.7480	 5.9600
 0.7490	 5.9600
 0.7500	 6.0100
 0.7510	 5.8900
 0.7520	 6.0800
 0.7530	 5.9000
 0.7540	 6.0200
 0.7550	 6.0700
 0.7560	 6.0700
 0.7570	 6.0700
 0.7580	 6.0100
 0.7590	 6.0000
 0.7600	 6.1700
 0.7610	 6.0200
 0.7620	 6.1400
 0.7630	 6.0100
 0.7640	 6.0000
 0.7650	 6.0600
 0.7660	 6.0600
 0.7670	 6.0500
 0.7680	 6.1600
 0.7690	 6.1100
 0.7700	 6.1200
 0.7710	 6.1200
 0.7720	 6.0600
 0.7730	 6.2100
 0.7740	 6.1100
 0.7750	 6.1700
 0.7760	 6.0600
 0.7770	 6.0600
 0.7780	 6.1700
 0.7790	 6.1200
 0.7800	 6.1800
 0.7810	 6.2900
 0.7820	 6.2200
 0.7830	 6.2800
 0.7840	 6.2300
 0.7850	 6.2300
 0.7860	 6.3900
 0.7870	 6.3300
 0.7880	 6.3500
 0.7890	 6.2300
 0.7900	 6.2200
 0.7910	 6.3900
 0.7920	 6.3900
 0.7930	 6.4000
 0.7940	 6.4500
 0.7950	 6.5600
 0.7960	 6.3900
 0.7970	 6.5200
 0.7980	 6.3700
 0.7990	 6.3800
 0.8000	 6.7100
 0.8040	 6.7200
 0.8080	 6.7700
 0.8120	 6.8300
 0.8160	 6.8500
 0.8200	 6.8600
 0.8240	 6.9400
 0.8280	 6.8700
 0.8320	 6.9100
 0.8360	 6.9200
 0.8400	 7.0000
 0.8440	 7.0400
 0.8480	 7.0700
 0.8520	 7.1200
 0.8560	 7.1300
 0.8600	 7.1800
 0.8640	 7.2000
 0.8680	 7.2000
 0.8720	 7.1900
 0.8760	 7.2100
 0.8800	 7.2600
 0.8840	 7.3100
 0.8880	 7.3300
 0.8920	 7.3800
 0.8960	 7.3700
 0.9000	 7.3200
 0.9040	 7.3700
 0.9080	 7.3800
 0.9120	 7.3700
 0.9160	 7.3200
 0.9200	 7.3200
 0.9240	 7.3200
 0.9280	 7.3600
 0.9320	 7.3100
 0.9360	 7.3900
 0.9400	 7.3900
 0.9440	 7.4000
 0.9480	 7.3800
 0.9520	 7.4000
 0.9560	 7.4000
 0.9600	 7.4400
 0.9640	 7.5000
 0.9680	 7.5000
 0.9720	 7.5300
 0.9760	 7.5500
 0.9800	 7.6200
 0.9840	 7.5600
 0.9880	 7.6500
 0.9920	 7.6500
 0.9960	 7.5200
 1.0000	 7.6300
 1.0040	 7.7500
 1.0080	 7.8000
 1.0120	 7.8300
 1.0160	 7.8900
 1.0200	 7.9000
 1.0240	 7.9200
 1.0280	 7.9400
 1.0320	 8.0100
 1.0360	 8.0500
 1.0400	 8.0300
 1.0440	 8.0900
 1.0480	 8.0800
 1.0520	 8.1500
 1.0560	 8.2000
 1.0600	 8.2700
 1.0640	 8.3100
 1.0680	 8.4100
 1.0720	 8.3700
 1.0760	 8.4800
 1.0800	 8.4300
 1.0840	 8.5100
 1.0880	 8.4800
 1.0920	 8.5800
 1.0960	 8.5900
 1.1000	 8.5900
 1.1040	 8.6000
 1.1080	 8.6100
 1.1120	 8.6700
 1.1160	 8.7200
 1.1200	 8.7700
 1.1240	 8.8200
 1.1280	 8.8400
 1.1320	 8.8900
 1.1360	 8.8600
 1.1400	 8.8900
 1.1440	 8.9600
 1.1480	 8.9100
 1.1520	 8.9200
 1.1560	 8.9300
 1.1600	 9.0400
 1.1640	 9.1000
 1.1680	 9.1000
 1.1720	 9.2100
 1.1760	 9.2200
 1.1800	 9.2700
 1.1840	 9.3400
 1.1880	 9.2800
 1.1920	 9.3200
 1.1960	 9.4100
 1.2000	 9.4900
 1.2040	 9.5800
 1.2080	 9.5800
 1.2120	 9.6400
 1.2160	 9.7600
 1.2200	 9.8400
 1.2240	 9.8900
 1.2280	10.0000
 1.2320	10.1000
 1.2360	10.1800
 1.2400	10.2100
 1.2440	10.2900
 1.2480	10.3900
 1.2520	10.5000
 1.2560	10.6000
 1.2600	10.6700
 1.2640	10.7900
 1.2680	10.9400
 1.2720	11.0700
 1.2760	11.0900
 1.2800	11.2500
 1.2840	11.3700
 1.2880	11.4400
 1.2920	11.4900
 1.2960	11.6700
 1.3000	11.7100
 1.3040	11.7900
 1.3080	11.9100
 1.3120	12.1000
 1.3160	12.2700
 1.3200	12.3300
 1.3240	12.5100
 1.3280	12.6100
 1.3320	12.6600
 1.3360	12.7900
 1.3400	12.8600
 1.3440	13.0000
 1.3480	13.1400
 1.3520	13.2700
 1.3560	13.4200
 1.3600	13.5600
 1.3640	13.6800
 1.3680	13.7300
 1.3720	13.8400
 1.3760	14.0600
 1.3800	14.1000
 1.3840	14.1700
 1.3880	14.3200
 1.3920	14.3600
 1.3960	14.4500
 1.4000	14.5500
 1.4040	14.5000
 1.4080	14.6500
 1.4120	14.7700
 1.4160	14.8600
 1.4200	15.0500
 1.4240	15.0500
 1.4280	15.3000
 1.4320	15.3700
 1.4360	15.4700
 1.4400	15.5800
 1.4440	15.6800
 1.4480	15.9000
 1.4520	15.9500
 1.4560	16.1600
 1.4600	16.3000
 1.4640	16.4400
 1.4680	16.5700
 1.4720	16.6100
 1.4760	16.7700
 1.4800	16.8000
 1.4840	16.9500
 1.4880	17.1100
 1.4920	17.2000
 1.4960	17.3600
 1.5000	17.3400
 1.5040	17.6200
 1.5080	17.7400
 1.5120	17.9400
 1.5160	18.0000
 1.5200	18.1200
 1.5240	18.2500
 1.5280	18.3900
 1.5320	18.4800
 1.5360	18.6200
 1.5400	18.7200
 1.5440	18.7800
 1.5480	18.9500
 1.5520	19.0600
 1.5560	19.2800
 1.5600	19.3400
 1.5640	19.4300
 1.5680	19.6300
 1.5720	19.6700
 1.5760	19.8100
 1.5800	19.8900
 1.5840	20.0100
 1.5880	20.1100
 1.5920	20.2100
 1.5960	20.2900
 1.6000	20.4200
 1.6040	20.5600
 1.6080	20.7100
 1.6120	20.8500
 1.6160	21.0100
 1.6200	21.1300
 1.6240	21.2200
 1.6280	21.3500
 1.6320	21.3800
 1.6360	21.4900
 1.6400	21.5900
 1.6440	21.7200
 1.6480	21.8800
 1.6520	21.9800
 1.6560	22.2000
 1.6600	22.2900
 1.6640	22.3900
 1.6680	22.5400
 1.6720	22.6000
 1.6760	22.7200
 1.6800	22.7800
 1.6840	22.8800
 1.6880	22.9700
 1.6920	23.1900
 1.6960	23.3200
 1.7000	23.4400
 1.7040	23.5700
 1.7080	23.7100
 1.7120	23.7600
 1.7160	23.9000
 1.7200	24.0300
 1.7240	24.0500
 1.7280	24.1200
 1.7320	24.2800
 1.7360	24.3500
 1.7400	24.4600
 1.7440	24.6000
 1.7480	24.7600
 1.7520	24.8500
 1.7560	25.0000
 1.7600	25.0400
 1.7640	25.1700
 1.7680	25.2300
 1.7720	25.2900
 1.7760	25.4600
 1.7800	25.5600
 1.7840	25.6600
 1.7880	25.8100
 1.7920	25.9400
 1.7960	26.0700
 1.8000	26.2100
 1.8040	26.2700
 1.8080	26.3700
 1.8120	26.5100
 1.8160	26.6000
 1.8200	26.6700
 1.8240	26.8300
 1.8280	27.0000
 1.8320	27.0800
 1.8360	27.2300
 1.8400	27.3500
 1.8440	27.3900
 1.8480	27.4400
 1.8520	27.4500
 1.8560	27.5300
 1.8600	27.5500
 1.8640	27.6400
 1.8680	27.6600
 1.8720	27.6400
 1.8760	27.4900
 1.8800	27.3000
 1.8840	27.0300
 1.8880	26.5500
 1.8920	26.0800
 1.8960	25.6300
 1.9000	25.2300
 1.9040	24.9800
 1.9080	24.9000
 1.9120	24.8500
 1.9160	24.9200
 1.9200	25.1500
 1.9240	25.3400
 1.9280	25.5600
 1.9320	25.7800
 1.9360	25.9700
 1.9400	26.1600
 1.9440	26.3700
 1.9480	26.5100
 1.9520	26.6100
 1.9560	26.9600
 1.9600	27.1000
 1.9640	27.3500
 1.9680	27.5300
 1.9720	27.8000
 1.9760	27.9700
 1.9800	28.2200
 1.9840	28.4200
 1.9880	28.6100
 1.9920	28.8400
 1.9960	29.0300
 2.0000	29.2900
 2.0040	29.5700
 2.0080	29.7500
 2.0120	29.9600
 2.0160	30.1000
 2.0200	30.3000
 2.0240	30.4800
 2.0280	30.6600
 2.0320	30.8300
 2.0360	31.0600
 2.0400	31.2300
 2.0440	31.4100
 2.0480	31.6500
 2.0520	31.7200
 2.0560	31.8800
 2.0600	31.8800
 2.0640	32.1700
 2.0680	32.2300
 2.0720	32.4100
 2.0760	32.5600
 2.0800	32.7200
 2.0840	32.9600
 2.0880	33.0600
 2.0920	33.2100
 2.0960	33.3300
 2.1000	33.4500
 2.1040	33.6400
 2.1080	33.7000
 2.1120	33.8700
 2.1160	34.0800
 2.1200	34.1500
 2.1240	34.2700
 2.1280	34.4700
 2.1320	34.5700
 2.1360	34.6900
 2.1400	34.7700
 2.1440	34.8700
 2.1480	34.8800
 2.1520	34.9100
 2.1560	35.0100
 2.1600	35.1100
 2.1640	35.2500
 2.1680	35.3200
 2.1720	35.3700
 2.1760	35.4200
 2.1800	35.3700
 2.1840	35.3600
 2.1880	35.4300
 2.1920	35.4700
 2.1960	35.5400
 2.2000	35.5800
 2.2040	35.6200
 2.2080	35.6300
 2.2120	35.6300
 2.2160	35.6100
 2.2200	35.6500
 2.2240	35.6300
 2.2280	35.7400
 2.2320	35.8200
 2.2360	35.8800
 2.2400	35.8900
 2.2440	35.8600
 2.2480	35.7700
 2.2520	35.7800
 2.2560	35.6600
 2.2600	35.6700
 2.2640	35.6300
 2.2680	35.6400
 2.2720	35.6100
 2.2760	35.4300
 2.2800	35.3000
 2.2840	35.1700
 2.2880	35.1000
 2.2920	35.1100
 2.2960	35.2300
 2.3000	35.3600
 2.3040	35.4700
 2.3080	35.7900
 2.3120	36.0300
 2.3160	36.2200
 2.3200	36.3200
 2.3240	36.4700
 2.3280	36.4700
 2.3320	36.5800
 2.3360	36.6200
 2.3400	36.6800
 2.3440	36.7100
 2.3480	36.7500
 2.3520	36.6600
 2.3560	36.6400
 2.3600	36.5300
 2.3640	36.4400
 2.3680	36.2300
 2.3720	36.1700
 2.3760	36.0300
 2.3800	35.8500
 2.3840	35.7800
 2.3880	35.6300
 2.3920	35.5600
 2.3960	35.4500
 2.4000	35.4200
 2.4040	35.3000
 2.4080	35.1200
 2.4120	35.0200
 2.4160	34.9200
 2.4200	34.7600
 2.4240	34.7400
 2.4280	34.5200
 2.4320	34.4000
 2.4360	34.3500
 2.4400	34.2000
 2.4440	34.0500
 2.4480	33.9000
 2.4520	33.7300
 2.4560	33.4600
 2.4600	33.3300
 2.4640	33.1400
 2.4680	32.9200
 2.4720	32.7900
 2.4760	32.6600
 2.4800	32.5700
 2.4840	32.4700
 2.4880	32.3300
 2.4920	32.2200
 2.4960	32.1300
 2.5000	32.0700
