Name: Glauconite (K,Na)(Fe^3+,Al,Mg)_2(Si,Al)_4O_10(OH)_2
Type: Mineral
Class: Silicate
Subclass: Phyllosilicate
Particle Size: Fine
Sample No.: PS-19A
Owner: JPL
Wavelength Range: VSWIR
Origin: USA, New Jersey
Collection Date: N/A
Description: Particle size was 0-45um.Collected by Ward's Original ASTER Spectral Library name was jpl.beckman.mineral.silicate.phyllosilicate.fine.ps19a.spectrum.txt
Measurement: Hemispherical reflectance
First Column: X
Second Column: Y
X Units: Wavelength (micrometers)
Y Units:Reflectance (percent)
First X Value:  0.4000
Last X Value:  2.5000
Number of X Values: 826
Additional Information: mineral.silicate.phyllosilicate.fine.vswir.ps-19a.jpl.beckman.ancillary.txt

 0.4000	11.0900
 0.4010	11.2700
 0.4020	11.3300
 0.4030	11.5200
 0.4040	11.4900
 0.4050	11.5600
 0.4060	11.6800
 0.4070	11.7700
 0.4080	11.9000
 0.4090	12.0300
 0.4100	12.0300
 0.4110	12.2500
 0.4120	12.3100
 0.4130	12.3900
 0.4140	12.4600
 0.4150	12.5500
 0.4160	12.6000
 0.4170	12.6700
 0.4180	12.9300
 0.4190	13.0400
 0.4200	13.0800
 0.4210	13.2600
 0.4220	13.3200
 0.4230	13.4500
 0.4240	13.5800
 0.4250	13.5900
 0.4260	13.7000
 0.4270	13.8100
 0.4280	13.8800
 0.4290	14.0300
 0.4300	14.0200
 0.4310	14.1100
 0.4320	14.2200
 0.4330	14.3500
 0.4340	14.4700
 0.4350	14.4900
 0.4360	14.5600
 0.4370	14.6900
 0.4380	14.7900
 0.4390	14.9000
 0.4400	14.8700
 0.4410	14.9700
 0.4420	15.0400
 0.4430	15.1600
 0.4440	15.2200
 0.4450	15.1800
 0.4460	15.3000
 0.4470	15.4400
 0.4480	15.5400
 0.4490	15.6300
 0.4500	15.7000
 0.4510	15.6900
 0.4520	15.9800
 0.4530	16.1800
 0.4540	16.2900
 0.4550	16.3200
 0.4560	16.4300
 0.4570	16.6000
 0.4580	16.7600
 0.4590	16.8600
 0.4600	16.8900
 0.4610	17.0300
 0.4620	17.3900
 0.4630	17.5400
 0.4640	17.5800
 0.4650	17.8100
 0.4660	17.8800
 0.4670	18.2200
 0.4680	18.3300
 0.4690	18.5500
 0.4700	18.7800
 0.4710	18.8500
 0.4720	19.1300
 0.4730	19.3200
 0.4740	19.5000
 0.4750	19.7300
 0.4760	19.7800
 0.4770	20.0600
 0.4780	20.2800
 0.4790	20.2900
 0.4800	20.4800
 0.4810	20.6100
 0.4820	20.8800
 0.4830	21.0000
 0.4840	21.0400
 0.4850	21.2400
 0.4860	21.2900
 0.4870	21.5000
 0.4880	21.6200
 0.4890	21.6400
 0.4900	21.7500
 0.4910	21.7600
 0.4920	22.0100
 0.4930	22.0900
 0.4940	22.2300
 0.4950	22.3100
 0.4960	22.2700
 0.4970	22.4800
 0.4980	22.5700
 0.4990	22.6400
 0.5000	22.7600
 0.5010	22.7800
 0.5020	23.0700
 0.5030	23.0700
 0.5040	23.1000
 0.5050	23.2100
 0.5060	23.4000
 0.5070	23.5100
 0.5080	23.5900
 0.5090	23.6400
 0.5100	23.7400
 0.5110	23.7800
 0.5120	23.9800
 0.5130	24.0500
 0.5140	24.1300
 0.5150	24.1600
 0.5160	24.1600
 0.5170	24.3200
 0.5180	24.4200
 0.5190	24.4800
 0.5200	24.6400
 0.5210	24.6700
 0.5220	24.8400
 0.5230	24.9100
 0.5240	24.9600
 0.5250	25.0400
 0.5260	25.1400
 0.5270	25.2600
 0.5280	25.3000
 0.5290	25.3300
 0.5300	25.5100
 0.5310	25.4900
 0.5320	25.5800
 0.5330	25.6800
 0.5340	25.7500
 0.5350	25.7700
 0.5360	25.8200
 0.5370	25.9400
 0.5380	25.9500
 0.5390	25.9800
 0.5400	26.0200
 0.5410	25.8900
 0.5420	25.9900
 0.5430	25.9800
 0.5440	26.0600
 0.5450	26.0800
 0.5460	26.0600
 0.5470	26.1000
 0.5480	26.1200
 0.5490	26.1600
 0.5500	26.1700
 0.5510	26.1200
 0.5520	26.1100
 0.5530	26.1500
 0.5540	26.0700
 0.5550	26.1200
 0.5560	26.0800
 0.5570	26.1000
 0.5580	26.0400
 0.5590	26.0100
 0.5600	26.0000
 0.5610	26.1500
 0.5620	26.0500
 0.5630	26.0300
 0.5640	25.9500
 0.5650	25.8900
 0.5660	25.7800
 0.5670	25.6400
 0.5680	25.6800
 0.5690	25.6500
 0.5700	25.5600
 0.5710	25.4000
 0.5720	25.3100
 0.5730	25.3500
 0.5740	25.0900
 0.5750	25.0400
 0.5760	24.8700
 0.5770	24.8200
 0.5780	24.8100
 0.5790	24.6100
 0.5800	24.6100
 0.5810	24.5600
 0.5820	24.3500
 0.5830	24.3800
 0.5840	24.1900
 0.5850	24.1500
 0.5860	24.0300
 0.5870	23.8900
 0.5880	23.9100
 0.5890	23.7800
 0.5900	23.7000
 0.5910	23.7000
 0.5920	23.4800
 0.5930	23.4300
 0.5940	23.1600
 0.5950	23.2200
 0.5960	23.1000
 0.5970	22.9700
 0.5980	22.9700
 0.5990	22.7600
 0.6000	22.6600
 0.6010	22.6500
 0.6020	22.5400
 0.6030	22.4800
 0.6040	22.3400
 0.6050	22.2400
 0.6060	22.1500
 0.6070	22.1000
 0.6080	22.1100
 0.6090	21.8600
 0.6100	21.7500
 0.6110	21.8100
 0.6120	21.6200
 0.6130	21.5800
 0.6140	21.3500
 0.6150	21.3900
 0.6160	21.2300
 0.6170	21.1100
 0.6180	21.1400
 0.6190	20.8200
 0.6200	20.8200
 0.6210	20.7300
 0.6220	20.6300
 0.6230	20.6400
 0.6240	20.5800
 0.6250	20.4100
 0.6260	20.2900
 0.6270	20.0600
 0.6280	20.2000
 0.6290	20.0000
 0.6300	19.9900
 0.6310	19.9300
 0.6320	19.7800
 0.6330	19.7300
 0.6340	19.6800
 0.6350	19.6400
 0.6360	19.5700
 0.6370	19.3400
 0.6380	19.3100
 0.6390	19.3300
 0.6400	19.1900
 0.6410	19.1500
 0.6420	18.9300
 0.6430	19.0400
 0.6440	18.9900
 0.6450	18.8500
 0.6460	18.8200
 0.6470	18.7100
 0.6480	18.6400
 0.6490	18.6300
 0.6500	18.5500
 0.6510	18.4100
 0.6520	18.3100
 0.6530	18.3400
 0.6540	18.2600
 0.6550	18.1300
 0.6560	18.1600
 0.6570	17.9900
 0.6580	18.0200
 0.6590	17.9600
 0.6600	17.8500
 0.6610	17.8200
 0.6620	17.6500
 0.6630	17.7200
 0.6640	17.6000
 0.6650	17.3900
 0.6660	17.4700
 0.6670	17.3000
 0.6680	17.3400
 0.6690	17.3300
 0.6700	17.1700
 0.6710	17.2100
 0.6720	17.0500
 0.6730	16.9900
 0.6740	17.0000
 0.6750	16.9200
 0.6760	16.9300
 0.6770	16.7500
 0.6780	16.6100
 0.6790	16.5800
 0.6800	16.5600
 0.6810	16.6600
 0.6820	16.3800
 0.6830	16.3900
 0.6840	16.3300
 0.6850	16.1900
 0.6860	16.2200
 0.6870	16.0700
 0.6880	16.0300
 0.6890	15.9800
 0.6900	15.9000
 0.6910	15.9200
 0.6920	15.8700
 0.6930	15.7400
 0.6940	15.7800
 0.6950	15.7200
 0.6960	15.7800
 0.6970	15.6000
 0.6980	15.5600
 0.6990	15.5300
 0.7000	15.3000
 0.7010	15.4200
 0.7020	15.3000
 0.7030	15.2400
 0.7040	15.3300
 0.7050	15.2500
 0.7060	15.0700
 0.7070	15.0700
 0.7080	15.0100
 0.7090	15.0500
 0.7100	14.8700
 0.7110	14.9300
 0.7120	14.8500
 0.7130	14.7600
 0.7140	14.7900
 0.7150	14.6900
 0.7160	14.7700
 0.7170	14.6900
 0.7180	14.6100
 0.7190	14.5600
 0.7200	14.4400
 0.7210	14.5900
 0.7220	14.4700
 0.7230	14.4500
 0.7240	14.3600
 0.7250	14.3200
 0.7260	14.3700
 0.7270	14.2700
 0.7280	14.1900
 0.7290	14.2400
 0.7300	14.1500
 0.7310	14.1900
 0.7320	14.1400
 0.7330	14.0600
 0.7340	14.0800
 0.7350	14.0400
 0.7360	14.0000
 0.7370	14.0100
 0.7380	13.9800
 0.7390	13.9900
 0.7400	13.9600
 0.7410	13.8400
 0.7420	13.8200
 0.7430	13.8300
 0.7440	13.9000
 0.7450	13.8500
 0.7460	13.8000
 0.7470	13.8600
 0.7480	13.8400
 0.7490	13.7800
 0.7500	13.7500
 0.7510	13.6900
 0.7520	13.8100
 0.7530	13.7500
 0.7540	13.7600
 0.7550	13.7100
 0.7560	13.6800
 0.7570	13.7200
 0.7580	13.6100
 0.7590	13.8200
 0.7600	13.7200
 0.7610	13.6400
 0.7620	13.6800
 0.7630	13.7300
 0.7640	13.7900
 0.7650	13.7800
 0.7660	13.6400
 0.7670	13.6600
 0.7680	13.7400
 0.7690	13.8100
 0.7700	13.7400
 0.7710	13.6800
 0.7720	13.7100
 0.7730	13.7200
 0.7740	13.7800
 0.7750	13.7300
 0.7760	13.6600
 0.7770	13.8000
 0.7780	13.7300
 0.7790	13.8700
 0.7800	13.8800
 0.7810	13.7700
 0.7820	13.8300
 0.7830	13.8200
 0.7840	13.9300
 0.7850	13.8600
 0.7860	13.8200
 0.7870	13.8400
 0.7880	13.8200
 0.7890	13.9900
 0.7900	13.9900
 0.7910	14.0500
 0.7920	14.0500
 0.7930	13.9900
 0.7940	14.0900
 0.7950	14.1400
 0.7960	14.1000
 0.7970	14.1000
 0.7980	14.0600
 0.7990	14.2200
 0.8000	14.6000
 0.8040	14.7100
 0.8080	14.7600
 0.8120	14.7700
 0.8160	14.8600
 0.8200	14.9600
 0.8240	15.0000
 0.8280	15.0600
 0.8320	15.0500
 0.8360	15.1700
 0.8400	15.1300
 0.8440	15.0800
 0.8480	15.1000
 0.8520	15.1000
 0.8560	15.0300
 0.8600	15.0300
 0.8640	15.0500
 0.8680	15.0000
 0.8720	14.9500
 0.8760	14.8800
 0.8800	14.7500
 0.8840	14.7200
 0.8880	14.6200
 0.8920	14.5900
 0.8960	14.5200
 0.9000	14.5000
 0.9040	14.4300
 0.9080	14.4000
 0.9120	14.3300
 0.9160	14.2100
 0.9200	14.1600
 0.9240	14.1500
 0.9280	14.1000
 0.9320	14.0200
 0.9360	14.0000
 0.9400	14.0100
 0.9440	13.8900
 0.9480	14.0000
 0.9520	13.9600
 0.9560	13.9900
 0.9600	13.9600
 0.9640	13.9400
 0.9680	13.9500
 0.9720	13.8800
 0.9760	13.8900
 0.9800	13.7800
 0.9840	13.7300
 0.9880	13.8100
 0.9920	13.7900
 0.9960	13.7400
 1.0000	13.8000
 1.0040	13.7600
 1.0080	13.7500
 1.0120	13.7100
 1.0160	13.6800
 1.0200	13.6500
 1.0240	13.6700
 1.0280	13.6900
 1.0320	13.6300
 1.0360	13.5500
 1.0400	13.6000
 1.0440	13.5800
 1.0480	13.5700
 1.0520	13.6100
 1.0560	13.5500
 1.0600	13.5100
 1.0640	13.5100
 1.0680	13.5500
 1.0720	13.5600
 1.0760	13.5100
 1.0800	13.5200
 1.0840	13.5000
 1.0880	13.6400
 1.0920	13.6800
 1.0960	13.6000
 1.1000	13.6200
 1.1040	13.7000
 1.1080	13.6400
 1.1120	13.6500
 1.1160	13.7000
 1.1200	13.7700
 1.1240	13.7600
 1.1280	13.8200
 1.1320	13.9100
 1.1360	13.9300
 1.1400	13.9400
 1.1440	14.0100
 1.1480	14.1300
 1.1520	14.2300
 1.1560	14.2100
 1.1600	14.3100
 1.1640	14.3600
 1.1680	14.4900
 1.1720	14.6100
 1.1760	14.6900
 1.1800	14.7200
 1.1840	14.8700
 1.1880	14.9700
 1.1920	15.0600
 1.1960	15.1500
 1.2000	15.2900
 1.2040	15.4400
 1.2080	15.4200
 1.2120	15.6100
 1.2160	15.7000
 1.2200	15.8200
 1.2240	15.9300
 1.2280	16.1000
 1.2320	16.1900
 1.2360	16.3100
 1.2400	16.4200
 1.2440	16.5500
 1.2480	16.6300
 1.2520	16.7900
 1.2560	16.8800
 1.2600	17.0100
 1.2640	17.1400
 1.2680	17.4200
 1.2720	17.5300
 1.2760	17.7100
 1.2800	17.8000
 1.2840	17.9100
 1.2880	18.0900
 1.2920	18.2500
 1.2960	18.4200
 1.3000	18.5600
 1.3040	18.7400
 1.3080	18.9500
 1.3120	19.0900
 1.3160	19.2800
 1.3200	19.5200
 1.3240	19.6600
 1.3280	19.8300
 1.3320	19.9300
 1.3360	20.0700
 1.3400	20.3100
 1.3440	20.4400
 1.3480	20.6000
 1.3520	20.7700
 1.3560	20.8800
 1.3600	21.0500
 1.3640	21.2300
 1.3680	21.4300
 1.3720	21.5600
 1.3760	21.7800
 1.3800	21.8600
 1.3840	22.1200
 1.3880	22.3000
 1.3920	22.5400
 1.3960	22.5400
 1.4000	22.7100
 1.4040	22.9000
 1.4080	23.0900
 1.4120	23.3000
 1.4160	23.4300
 1.4200	23.6000
 1.4240	23.7900
 1.4280	23.9400
 1.4320	24.2000
 1.4360	24.3900
 1.4400	24.5500
 1.4440	24.7500
 1.4480	25.0400
 1.4520	25.3100
 1.4560	25.5200
 1.4600	25.7200
 1.4640	25.9200
 1.4680	26.1600
 1.4720	26.3600
 1.4760	26.6000
 1.4800	26.7400
 1.4840	26.9300
 1.4880	27.2100
 1.4920	27.4300
 1.4960	27.7000
 1.5000	27.9000
 1.5040	28.2600
 1.5080	28.4500
 1.5120	28.5400
 1.5160	28.7800
 1.5200	29.0100
 1.5240	29.1500
 1.5280	29.3900
 1.5320	29.6800
 1.5360	29.8900
 1.5400	30.1300
 1.5440	30.3000
 1.5480	30.5600
 1.5520	30.8100
 1.5560	31.0100
 1.5600	31.2400
 1.5640	31.5300
 1.5680	31.6900
 1.5720	31.9100
 1.5760	32.2000
 1.5800	32.3900
 1.5840	32.5800
 1.5880	32.8300
 1.5920	33.0700
 1.5960	33.2900
 1.6000	33.4800
 1.6040	33.7700
 1.6080	33.9800
 1.6120	34.1600
 1.6160	34.4500
 1.6200	34.6600
 1.6240	34.9300
 1.6280	35.1700
 1.6320	35.3400
 1.6360	35.5600
 1.6400	35.7500
 1.6440	36.0200
 1.6480	36.2500
 1.6520	36.4300
 1.6560	36.7000
 1.6600	36.8300
 1.6640	37.1100
 1.6680	37.4200
 1.6720	37.5500
 1.6760	37.8000
 1.6800	38.0800
 1.6840	38.3000
 1.6880	38.4500
 1.6920	38.6300
 1.6960	38.8500
 1.7000	39.1300
 1.7040	39.2900
 1.7080	39.5200
 1.7120	39.7600
 1.7160	39.9400
 1.7200	40.1600
 1.7240	40.3700
 1.7280	40.5600
 1.7320	40.7900
 1.7360	41.0000
 1.7400	41.1600
 1.7440	41.3900
 1.7480	41.5900
 1.7520	41.8200
 1.7560	42.0100
 1.7600	42.2600
 1.7640	42.4200
 1.7680	42.6700
 1.7720	42.8500
 1.7760	43.1100
 1.7800	43.2900
 1.7840	43.5800
 1.7880	43.8200
 1.7920	43.9300
 1.7960	44.1500
 1.8000	44.4400
 1.8040	44.5700
 1.8080	44.7900
 1.8120	44.9100
 1.8160	45.1200
 1.8200	45.3500
 1.8240	45.5300
 1.8280	45.6300
 1.8320	45.8600
 1.8360	46.0200
 1.8400	46.2600
 1.8440	46.3700
 1.8480	46.5300
 1.8520	46.6600
 1.8560	46.7400
 1.8600	46.9000
 1.8640	47.0800
 1.8680	47.1100
 1.8720	47.0800
 1.8760	46.9800
 1.8800	46.8600
 1.8840	46.5700
 1.8880	46.1400
 1.8920	45.7700
 1.8960	45.2600
 1.9000	44.9400
 1.9040	44.7500
 1.9080	44.7200
 1.9120	44.9900
 1.9160	45.2300
 1.9200	45.6400
 1.9240	46.0100
 1.9280	46.4100
 1.9320	46.7300
 1.9360	46.9600
 1.9400	47.2500
 1.9440	47.5600
 1.9480	47.7300
 1.9520	47.9300
 1.9560	48.2100
 1.9600	48.4800
 1.9640	48.6500
 1.9680	49.0000
 1.9720	49.2900
 1.9760	49.6200
 1.9800	49.8600
 1.9840	50.1500
 1.9880	50.3700
 1.9920	50.7200
 1.9960	50.9200
 2.0000	51.2000
 2.0040	51.4900
 2.0080	51.7400
 2.0120	51.9900
 2.0160	52.1900
 2.0200	52.4200
 2.0240	52.6800
 2.0280	52.8400
 2.0320	53.1200
 2.0360	53.3000
 2.0400	53.5800
 2.0440	53.7600
 2.0480	53.9700
 2.0520	54.0800
 2.0560	54.2600
 2.0600	54.4200
 2.0640	54.5700
 2.0680	54.7300
 2.0720	54.9600
 2.0760	55.0300
 2.0800	55.2500
 2.0840	55.4100
 2.0880	55.5500
 2.0920	55.7200
 2.0960	55.7900
 2.1000	56.0300
 2.1040	56.2100
 2.1080	56.2800
 2.1120	56.4800
 2.1160	56.5800
 2.1200	56.6600
 2.1240	56.7100
 2.1280	56.7400
 2.1320	56.7900
 2.1360	56.9000
 2.1400	56.8800
 2.1440	56.9500
 2.1480	56.9600
 2.1520	56.9500
 2.1560	56.9400
 2.1600	56.9900
 2.1640	57.0300
 2.1680	57.0100
 2.1720	56.9400
 2.1760	56.9300
 2.1800	56.8600
 2.1840	56.8900
 2.1880	56.8100
 2.1920	56.6700
 2.1960	56.6300
 2.2000	56.6300
 2.2040	56.6000
 2.2080	56.4900
 2.2120	56.3800
 2.2160	56.2300
 2.2200	56.1500
 2.2240	56.0100
 2.2280	55.7700
 2.2320	55.6000
 2.2360	55.3900
 2.2400	55.1500
 2.2440	55.0600
 2.2480	54.9000
 2.2520	54.8700
 2.2560	54.9200
 2.2600	54.8100
 2.2640	54.9500
 2.2680	54.8500
 2.2720	54.6300
 2.2760	54.4500
 2.2800	54.0000
 2.2840	53.4300
 2.2880	52.7900
 2.2920	52.1400
 2.2960	51.5600
 2.3000	51.0900
 2.3040	50.9100
 2.3080	50.8900
 2.3120	51.0600
 2.3160	51.4700
 2.3200	51.9800
 2.3240	52.3900
 2.3280	52.6600
 2.3320	52.7700
 2.3360	52.8500
 2.3400	52.6900
 2.3440	52.5000
 2.3480	52.2700
 2.3520	52.0100
 2.3560	51.8300
 2.3600	51.7600
 2.3640	51.7300
 2.3680	51.9000
 2.3720	52.0000
 2.3760	52.4300
 2.3800	52.6500
 2.3840	53.0000
 2.3880	53.4100
 2.3920	53.5500
 2.3960	53.7100
 2.4000	53.8000
 2.4040	53.8700
 2.4080	53.8900
 2.4120	53.9100
 2.4160	53.7800
 2.4200	53.6300
 2.4240	53.3900
 2.4280	53.1400
 2.4320	52.9400
 2.4360	52.7900
 2.4400	52.5800
 2.4440	52.2900
 2.4480	52.1000
 2.4520	51.8600
 2.4560	51.5700
 2.4600	51.4000
 2.4640	51.2000
 2.4680	51.0600
 2.4720	50.9100
 2.4760	50.7500
 2.4800	50.5900
 2.4840	50.5200
 2.4880	50.5100
 2.4920	50.4800
 2.4960	50.5200
 2.5000	50.5200
