Name: Serpentine (Mg,Fe^2+,Ni)Si_2O_5(OH)_4
Type: Mineral
Class: Silicate
Subclass: Phyllosilicate
Particle Size: Coarse
Sample No.: PS-20A
Owner: JPL
Wavelength Range: VSWIR
Origin: USA, New York.
Collection Date: N/A
Description: Particle size was 125-500um.Collected by:  Ward's Original ASTER Spectral Library name was jpl.perkin.mineral.silicate.phyllosilicate.coarse.ps20a.spectrum.txt
Measurement: Hemispherical reflectance
First Column: X
Second Column: Y
X Units: Wavelength (micrometers)
Y Units:Reflectance (percent)
First X Value:  2.5000
Last X Value:  0.4000
Number of X Values: 2101
Additional Information: mineral.silicate.phyllosilicate.coarse.vswir.ps-20a.jpl.perkin.ancillary.txt

 2.5000	 7.2607
 2.4990	 6.8328
 2.4980	 7.5300
 2.4970	 7.3179
 2.4960	 7.2137
 2.4950	 7.6992
 2.4940	 7.6339
 2.4930	 7.7387
 2.4920	 7.8896
 2.4910	 7.9836
 2.4900	 8.1183
 2.4890	 8.0725
 2.4880	 8.2872
 2.4870	 8.2586
 2.4860	 8.6140
 2.4850	 8.3803
 2.4840	 8.6124
 2.4830	 8.7424
 2.4820	 8.9301
 2.4810	 8.7070
 2.4800	 8.9677
 2.4790	 8.9485
 2.4780	 9.1700
 2.4770	 9.0657
 2.4760	 9.3621
 2.4750	 9.5009
 2.4740	 9.7343
 2.4730	 9.7085
 2.4720	 9.9487
 2.4710	10.0684
 2.4700	10.3829
 2.4690	10.3891
 2.4680	10.6657
 2.4670	10.8830
 2.4660	11.1868
 2.4650	11.2282
 2.4640	11.4749
 2.4630	11.4897
 2.4620	11.7912
 2.4610	11.8000
 2.4600	11.9518
 2.4590	11.9176
 2.4580	12.2482
 2.4570	12.2143
 2.4560	12.3067
 2.4550	12.3102
 2.4540	12.3637
 2.4530	12.1467
 2.4520	12.2743
 2.4510	12.1894
 2.4500	12.1383
 2.4490	11.8958
 2.4480	11.9488
 2.4470	11.7349
 2.4460	11.7995
 2.4450	11.6264
 2.4440	11.5144
 2.4430	11.2308
 2.4420	11.0874
 2.4410	10.9166
 2.4400	10.8542
 2.4390	10.6788
 2.4380	10.5235
 2.4370	10.4140
 2.4360	10.3728
 2.4350	10.2752
 2.4340	10.3833
 2.4330	10.2227
 2.4320	10.2041
 2.4310	10.0680
 2.4300	10.2814
 2.4290	10.2190
 2.4280	10.3331
 2.4270	10.3831
 2.4260	10.5609
 2.4250	10.5680
 2.4240	10.7106
 2.4230	10.7330
 2.4220	10.8545
 2.4210	10.8152
 2.4200	11.0721
 2.4190	11.1094
 2.4180	11.2124
 2.4170	11.2473
 2.4160	11.2587
 2.4150	11.3067
 2.4140	11.4115
 2.4130	11.4283
 2.4120	11.4338
 2.4110	11.4487
 2.4100	11.4575
 2.4090	11.4431
 2.4080	11.5491
 2.4070	11.5431
 2.4060	11.5288
 2.4050	11.4531
 2.4040	11.5289
 2.4030	11.6280
 2.4020	11.6856
 2.4010	11.6346
 2.4000	11.7061
 2.3990	11.6748
 2.3980	11.7053
 2.3970	11.7934
 2.3960	11.8777
 2.3950	11.9037
 2.3940	12.0625
 2.3930	12.1097
 2.3920	12.2089
 2.3910	12.2773
 2.3900	12.3741
 2.3890	12.4897
 2.3880	12.5964
 2.3870	12.6561
 2.3860	12.8005
 2.3850	12.9105
 2.3840	13.1098
 2.3830	13.1933
 2.3820	13.2320
 2.3810	13.3443
 2.3800	13.4916
 2.3790	13.5454
 2.3780	13.6929
 2.3770	13.8001
 2.3760	13.8690
 2.3750	13.9664
 2.3740	14.1314
 2.3730	14.1539
 2.3720	14.2748
 2.3710	14.4871
 2.3700	14.6306
 2.3690	14.7583
 2.3680	14.9111
 2.3670	15.0878
 2.3660	15.2755
 2.3650	15.4369
 2.3640	15.5958
 2.3630	15.8032
 2.3620	16.0029
 2.3610	16.1473
 2.3600	16.2379
 2.3590	16.3296
 2.3580	16.3393
 2.3570	16.3479
 2.3560	16.3260
 2.3550	16.1886
 2.3540	16.0135
 2.3530	15.7789
 2.3520	15.4964
 2.3510	15.1533
 2.3500	14.8036
 2.3490	14.4225
 2.3480	13.9035
 2.3470	13.4627
 2.3460	12.9910
 2.3450	12.3919
 2.3440	11.8442
 2.3430	11.2957
 2.3420	10.7897
 2.3410	10.3243
 2.3400	 9.8734
 2.3390	 9.4003
 2.3380	 8.9985
 2.3370	 8.6326
 2.3360	 8.2614
 2.3350	 8.0253
 2.3340	 7.7974
 2.3330	 7.5904
 2.3320	 7.4519
 2.3310	 7.3386
 2.3300	 7.2429
 2.3290	 7.1635
 2.3280	 7.1349
 2.3270	 7.2336
 2.3260	 7.2238
 2.3250	 7.3178
 2.3240	 7.4179
 2.3230	 7.5293
 2.3220	 7.5627
 2.3210	 7.7513
 2.3200	 7.9116
 2.3190	 8.1005
 2.3180	 8.3149
 2.3170	 8.5064
 2.3160	 8.6539
 2.3150	 8.8812
 2.3140	 9.1043
 2.3130	 9.4274
 2.3120	 9.6934
 2.3110	 9.9735
 2.3100	10.2931
 2.3090	10.6717
 2.3080	10.9950
 2.3070	11.3276
 2.3060	11.5824
 2.3050	11.9382
 2.3040	12.2268
 2.3030	12.5984
 2.3020	12.8687
 2.3010	13.1492
 2.3000	13.5083
 2.2990	13.7887
 2.2980	14.0529
 2.2970	14.3175
 2.2960	14.5393
 2.2950	14.8321
 2.2940	14.9186
 2.2930	15.2929
 2.2920	15.4438
 2.2910	15.5708
 2.2900	15.7832
 2.2890	15.9528
 2.2880	16.0437
 2.2870	16.2333
 2.2860	16.2767
 2.2850	16.3926
 2.2840	16.3759
 2.2830	16.4281
 2.2820	16.4905
 2.2810	16.4603
 2.2800	16.4816
 2.2790	16.3984
 2.2780	16.3720
 2.2770	16.3515
 2.2760	16.3142
 2.2750	16.2676
 2.2740	16.2004
 2.2730	16.2894
 2.2720	16.3101
 2.2710	16.5195
 2.2700	16.6227
 2.2690	16.9695
 2.2680	17.1496
 2.2670	17.5105
 2.2660	17.8814
 2.2650	18.3495
 2.2640	18.7888
 2.2630	19.3488
 2.2620	19.8152
 2.2610	20.4968
 2.2600	20.8218
 2.2590	21.4892
 2.2580	21.8551
 2.2570	22.3454
 2.2560	22.6515
 2.2550	23.0045
 2.2540	23.1990
 2.2530	23.3705
 2.2520	23.5285
 2.2510	23.6748
 2.2500	23.7281
 2.2490	23.7924
 2.2480	23.8590
 2.2470	23.9001
 2.2460	24.0255
 2.2450	24.2243
 2.2440	24.3071
 2.2430	24.5609
 2.2420	24.7997
 2.2410	25.0846
 2.2400	25.4575
 2.2390	25.9020
 2.2380	26.2700
 2.2370	26.8435
 2.2360	27.4068
 2.2350	28.1264
 2.2340	28.7506
 2.2330	29.4726
 2.2320	30.2184
 2.2310	31.0411
 2.2300	31.6933
 2.2290	32.6633
 2.2280	33.2973
 2.2270	34.1036
 2.2260	34.8225
 2.2250	35.5517
 2.2240	36.1201
 2.2230	36.7498
 2.2220	37.4089
 2.2210	37.9250
 2.2200	38.3838
 2.2190	38.8406
 2.2180	39.2541
 2.2170	39.6386
 2.2160	40.0729
 2.2150	40.4044
 2.2140	40.5990
 2.2130	40.9792
 2.2120	41.1256
 2.2110	41.2153
 2.2100	41.6686
 2.2090	41.6640
 2.2080	41.8261
 2.2070	42.0539
 2.2060	42.0432
 2.2050	42.2744
 2.2040	42.4543
 2.2030	42.4955
 2.2020	42.5844
 2.2010	42.6769
 2.2000	42.7403
 2.1990	42.8562
 2.1980	42.8352
 2.1970	42.9276
 2.1960	43.0364
 2.1950	43.1980
 2.1940	43.1934
 2.1930	43.3370
 2.1920	43.3747
 2.1910	43.3630
 2.1900	43.3611
 2.1890	43.4801
 2.1880	43.5151
 2.1870	43.4638
 2.1860	43.5757
 2.1850	43.5400
 2.1840	43.5691
 2.1830	43.5824
 2.1820	43.5668
 2.1810	43.5773
 2.1800	43.4276
 2.1790	43.5593
 2.1780	43.4651
 2.1770	43.4951
 2.1760	43.4253
 2.1750	43.3812
 2.1740	43.3757
 2.1730	43.2820
 2.1720	43.2473
 2.1710	43.2389
 2.1700	43.1238
 2.1690	43.0984
 2.1680	43.0827
 2.1670	43.1048
 2.1660	42.9294
 2.1650	42.9050
 2.1640	42.8640
 2.1630	42.7573
 2.1620	42.6159
 2.1610	42.4576
 2.1600	42.2906
 2.1590	42.1513
 2.1580	41.9131
 2.1570	41.7694
 2.1560	41.4658
 2.1550	41.2185
 2.1540	40.8724
 2.1530	40.5948
 2.1520	40.2673
 2.1510	39.9686
 2.1500	39.6189
 2.1490	39.1723
 2.1480	38.7693
 2.1470	38.3373
 2.1460	37.8725
 2.1450	37.4754
 2.1440	37.0675
 2.1430	36.6812
 2.1420	36.2210
 2.1410	35.7216
 2.1400	35.2694
 2.1390	34.8312
 2.1380	34.4050
 2.1370	34.0114
 2.1360	33.5259
 2.1350	33.2473
 2.1340	32.9189
 2.1330	32.7141
 2.1320	32.5446
 2.1310	32.4280
 2.1300	32.3659
 2.1290	32.4112
 2.1280	32.4994
 2.1270	32.6548
 2.1260	32.8209
 2.1250	32.9742
 2.1240	33.1772
 2.1230	33.3557
 2.1220	33.5379
 2.1210	33.6422
 2.1200	33.6005
 2.1190	33.5456
 2.1180	33.4990
 2.1170	33.4435
 2.1160	33.2774
 2.1150	33.1817
 2.1140	33.0791
 2.1130	33.0460
 2.1120	33.0113
 2.1110	33.0588
 2.1100	33.0975
 2.1090	33.2482
 2.1080	33.3932
 2.1070	33.5350
 2.1060	33.7270
 2.1050	33.9901
 2.1040	34.0858
 2.1030	34.1928
 2.1020	34.2612
 2.1010	34.3051
 2.1000	34.2894
 2.0990	34.3213
 2.0980	34.3661
 2.0970	34.4817
 2.0960	34.5535
 2.0950	34.6482
 2.0940	34.7866
 2.0930	35.0051
 2.0920	35.3090
 2.0910	35.6286
 2.0900	35.9468
 2.0890	36.2556
 2.0880	36.5339
 2.0870	36.9450
 2.0860	37.3038
 2.0850	37.6366
 2.0840	38.0345
 2.0830	38.4783
 2.0820	38.8315
 2.0810	39.1988
 2.0800	39.6067
 2.0790	39.9838
 2.0780	40.3881
 2.0770	40.7541
 2.0760	41.0993
 2.0750	41.4321
 2.0740	41.7384
 2.0730	41.9931
 2.0720	42.1401
 2.0710	42.3297
 2.0700	42.5037
 2.0690	42.6018
 2.0680	42.6243
 2.0670	42.6145
 2.0660	42.5918
 2.0650	42.5303
 2.0640	42.4518
 2.0630	42.3440
 2.0620	42.2039
 2.0610	42.0406
 2.0600	41.8384
 2.0590	41.6284
 2.0580	41.3867
 2.0570	41.0762
 2.0560	40.7588
 2.0550	40.4905
 2.0540	40.1536
 2.0530	39.7332
 2.0520	39.4019
 2.0510	39.0665
 2.0500	38.7071
 2.0490	38.2997
 2.0480	37.9864
 2.0470	37.6290
 2.0460	37.3370
 2.0450	37.0419
 2.0440	36.8022
 2.0430	36.6225
 2.0420	36.3834
 2.0410	36.1642
 2.0400	35.9992
 2.0390	35.7611
 2.0380	35.6227
 2.0370	35.5152
 2.0360	35.4832
 2.0350	35.3129
 2.0340	35.2206
 2.0330	35.1149
 2.0320	35.0208
 2.0310	34.9013
 2.0300	34.8787
 2.0290	34.8324
 2.0280	34.8195
 2.0270	34.7764
 2.0260	34.7052
 2.0250	34.7290
 2.0240	34.7728
 2.0230	34.6963
 2.0220	34.6666
 2.0210	34.6537
 2.0200	34.6578
 2.0190	34.5362
 2.0180	34.4916
 2.0170	34.4111
 2.0160	34.3066
 2.0150	34.1957
 2.0140	34.1790
 2.0130	34.0309
 2.0120	33.9343
 2.0110	33.6883
 2.0100	33.5594
 2.0090	33.3432
 2.0080	33.2272
 2.0070	33.0048
 2.0060	32.8067
 2.0050	32.5515
 2.0040	32.3373
 2.0030	32.1005
 2.0020	31.9161
 2.0010	31.7003
 2.0000	31.5295
 1.9990	31.2694
 1.9980	31.1274
 1.9970	30.9715
 1.9960	30.8265
 1.9950	30.6519
 1.9940	30.5655
 1.9930	30.4235
 1.9920	30.3867
 1.9910	30.2263
 1.9900	30.1565
 1.9890	30.0792
 1.9880	30.0274
 1.9870	29.9474
 1.9860	29.8756
 1.9850	29.7772
 1.9840	29.7266
 1.9830	29.6379
 1.9820	29.6041
 1.9810	29.5390
 1.9800	29.6348
 1.9790	29.6450
 1.9780	29.6321
 1.9770	29.6344
 1.9760	29.7858
 1.9750	29.7202
 1.9740	29.7599
 1.9730	29.8274
 1.9720	29.9038
 1.9710	29.9274
 1.9700	30.0395
 1.9690	30.0370
 1.9680	30.2128
 1.9670	30.2527
 1.9660	30.3530
 1.9650	30.2980
 1.9640	30.4008
 1.9630	30.4914
 1.9620	30.6143
 1.9610	30.6659
 1.9600	30.7449
 1.9590	30.7997
 1.9580	30.9163
 1.9570	31.0004
 1.9560	31.1065
 1.9550	31.0976
 1.9540	31.2482
 1.9530	31.2911
 1.9520	31.4562
 1.9510	31.4041
 1.9500	31.4412
 1.9490	31.5055
 1.9480	31.6651
 1.9470	31.6610
 1.9460	31.7371
 1.9450	31.7610
 1.9440	31.7425
 1.9430	31.7846
 1.9420	31.8013
 1.9410	31.8533
 1.9400	31.8341
 1.9390	31.8380
 1.9380	31.8376
 1.9370	31.7483
 1.9360	31.8681
 1.9350	31.7747
 1.9340	31.7040
 1.9330	31.7502
 1.9320	31.7549
 1.9310	31.6278
 1.9300	31.6894
 1.9290	31.6248
 1.9280	31.6170
 1.9270	31.6487
 1.9260	31.4109
 1.9250	31.5467
 1.9240	31.5387
 1.9230	31.3827
 1.9220	31.5537
 1.9210	31.4748
 1.9200	31.5965
 1.9190	31.5642
 1.9180	31.6981
 1.9170	31.7132
 1.9160	31.8909
 1.9150	32.0233
 1.9140	32.1707
 1.9130	32.4015
 1.9120	32.6637
 1.9110	32.8733
 1.9100	33.2138
 1.9090	33.5448
 1.9080	34.0562
 1.9070	34.4467
 1.9060	34.9157
 1.9050	35.3291
 1.9040	35.9760
 1.9030	36.5444
 1.9020	37.1003
 1.9010	37.6966
 1.9000	38.3488
 1.8990	39.0956
 1.8980	39.7531
 1.8970	40.3461
 1.8960	40.9676
 1.8950	41.6052
 1.8940	42.2460
 1.8930	42.8999
 1.8920	43.4086
 1.8910	43.9918
 1.8900	44.6619
 1.8890	45.2388
 1.8880	45.8254
 1.8870	46.2199
 1.8860	46.8083
 1.8850	47.1749
 1.8840	47.6267
 1.8830	47.9968
 1.8820	48.4261
 1.8810	48.8171
 1.8800	49.2230
 1.8790	49.5659
 1.8780	49.9716
 1.8770	50.3121
 1.8760	50.6393
 1.8750	50.9401
 1.8740	51.4362
 1.8730	51.7060
 1.8720	52.0842
 1.8710	52.4528
 1.8700	52.6949
 1.8690	52.9412
 1.8680	53.2552
 1.8670	53.3931
 1.8660	53.5450
 1.8650	53.6906
 1.8640	53.8320
 1.8630	53.9128
 1.8620	54.0008
 1.8610	54.0596
 1.8600	54.1535
 1.8590	54.0727
 1.8580	54.2131
 1.8570	54.3089
 1.8560	54.4450
 1.8550	54.5931
 1.8540	54.7056
 1.8530	54.7475
 1.8520	54.9144
 1.8510	55.0422
 1.8500	55.2369
 1.8490	55.4121
 1.8480	55.5548
 1.8470	55.7036
 1.8460	55.8944
 1.8450	55.9912
 1.8440	56.1651
 1.8430	56.2264
 1.8420	56.3791
 1.8410	56.4231
 1.8400	56.4248
 1.8390	56.4787
 1.8380	56.5604
 1.8370	56.5923
 1.8360	56.6935
 1.8350	56.6486
 1.8340	56.7195
 1.8330	56.7854
 1.8320	56.7881
 1.8310	56.7072
 1.8300	56.7256
 1.8290	56.6962
 1.8280	56.7550
 1.8270	56.7293
 1.8260	56.6532
 1.8250	56.5488
 1.8240	56.5559
 1.8230	56.4919
 1.8220	56.3750
 1.8210	56.2679
 1.8200	56.1744
 1.8190	56.1032
 1.8180	56.0414
 1.8170	55.9607
 1.8160	55.9501
 1.8150	55.9304
 1.8140	56.0129
 1.8130	56.0708
 1.8120	56.1633
 1.8110	56.2505
 1.8100	56.4262
 1.8090	56.5888
 1.8080	56.7013
 1.8070	56.8189
 1.8060	56.9955
 1.8050	57.1877
 1.8040	57.3581
 1.8030	57.5093
 1.8020	57.6448
 1.8010	57.7278
 1.8000	57.8495
 1.7990	57.9810
 1.7980	58.0798
 1.7970	58.2101
 1.7960	58.3210
 1.7950	58.3295
 1.7940	58.3690
 1.7930	58.4385
 1.7920	58.4610
 1.7910	58.5059
 1.7900	58.5891
 1.7890	58.5922
 1.7880	58.5712
 1.7870	58.5960
 1.7860	58.6717
 1.7850	58.6752
 1.7840	58.6377
 1.7830	58.6790
 1.7820	58.7436
 1.7810	58.7723
 1.7800	58.7740
 1.7790	58.8005
 1.7780	58.8938
 1.7770	58.9273
 1.7760	58.9261
 1.7750	58.9867
 1.7740	59.0198
 1.7730	59.1071
 1.7720	59.1292
 1.7710	59.1838
 1.7700	59.2339
 1.7690	59.2221
 1.7680	59.2827
 1.7670	59.4187
 1.7660	59.4987
 1.7650	59.5827
 1.7640	59.6209
 1.7630	59.7155
 1.7620	59.7940
 1.7610	59.9018
 1.7600	59.9842
 1.7590	60.0975
 1.7580	60.1593
 1.7570	60.2216
 1.7560	60.3430
 1.7550	60.4423
 1.7540	60.5128
 1.7530	60.6029
 1.7520	60.6666
 1.7510	60.7310
 1.7500	60.7632
 1.7490	60.8769
 1.7480	60.9621
 1.7470	60.9829
 1.7460	61.0534
 1.7450	61.1477
 1.7440	61.1864
 1.7430	61.2265
 1.7420	61.3222
 1.7410	61.4447
 1.7400	61.5308
 1.7390	61.6176
 1.7380	61.6647
 1.7370	61.7302
 1.7360	61.7895
 1.7350	61.8139
 1.7340	61.8282
 1.7330	61.9079
 1.7320	61.9260
 1.7310	61.9967
 1.7300	62.0151
 1.7290	62.1160
 1.7280	62.1559
 1.7270	62.1801
 1.7260	62.2413
 1.7250	62.3618
 1.7240	62.4220
 1.7230	62.4542
 1.7220	62.5108
 1.7210	62.6366
 1.7200	62.6896
 1.7190	62.7137
 1.7180	62.8156
 1.7170	62.8665
 1.7160	62.8967
 1.7150	62.9470
 1.7140	62.9963
 1.7130	63.0276
 1.7120	63.1221
 1.7110	63.1619
 1.7100	63.2131
 1.7090	63.2772
 1.7080	63.2830
 1.7070	63.3519
 1.7060	63.4005
 1.7050	63.5062
 1.7040	63.5414
 1.7030	63.5531
 1.7020	63.4883
 1.7010	63.5637
 1.7000	63.6063
 1.6990	63.7113
 1.6980	63.7322
 1.6970	63.8101
 1.6960	63.7732
 1.6950	63.7588
 1.6940	63.7785
 1.6930	63.9263
 1.6920	63.8889
 1.6910	63.8512
 1.6900	63.9241
 1.6890	64.0099
 1.6880	64.0152
 1.6870	64.0203
 1.6860	64.0063
 1.6850	64.1337
 1.6840	64.0481
 1.6830	64.1154
 1.6820	64.0905
 1.6810	64.1277
 1.6800	64.1503
 1.6790	64.1980
 1.6780	64.1907
 1.6770	64.1358
 1.6760	64.1036
 1.6750	64.1911
 1.6740	64.2330
 1.6730	64.2259
 1.6720	64.2224
 1.6710	64.2292
 1.6700	64.2196
 1.6690	64.3564
 1.6680	64.3415
 1.6670	64.3876
 1.6660	64.3708
 1.6650	64.4054
 1.6640	64.3200
 1.6630	64.3263
 1.6620	64.3733
 1.6610	64.3974
 1.6600	64.4308
 1.6590	64.4624
 1.6580	64.4220
 1.6570	64.4275
 1.6560	64.4149
 1.6550	64.4818
 1.6540	64.4429
 1.6530	64.5006
 1.6520	64.4508
 1.6510	64.4542
 1.6500	64.3890
 1.6490	64.5016
 1.6480	64.4994
 1.6470	64.5583
 1.6460	64.4362
 1.6450	64.5137
 1.6440	64.4012
 1.6430	64.5295
 1.6420	64.4974
 1.6410	64.3861
 1.6400	64.4916
 1.6390	64.4087
 1.6380	64.4269
 1.6370	64.4612
 1.6360	64.3910
 1.6350	64.3845
 1.6340	64.4696
 1.6330	64.3668
 1.6320	64.2981
 1.6310	64.3734
 1.6300	64.4303
 1.6290	64.3195
 1.6280	64.3125
 1.6270	64.3645
 1.6260	64.3138
 1.6250	64.3574
 1.6240	64.3314
 1.6230	64.3357
 1.6220	64.2303
 1.6210	64.3253
 1.6200	64.2612
 1.6190	64.2206
 1.6180	64.2032
 1.6170	64.1849
 1.6160	64.2199
 1.6150	64.1527
 1.6140	64.2077
 1.6130	64.1302
 1.6120	64.0979
 1.6110	64.1604
 1.6100	64.1248
 1.6090	64.1430
 1.6080	64.0936
 1.6070	64.1147
 1.6060	64.0361
 1.6050	63.9847
 1.6040	63.9908
 1.6030	64.0085
 1.6020	64.0399
 1.6010	63.8994
 1.6000	63.9480
 1.5990	63.9273
 1.5980	63.8515
 1.5970	63.8510
 1.5960	63.8697
 1.5950	63.8834
 1.5940	63.7080
 1.5930	63.7232
 1.5920	63.7073
 1.5910	63.6578
 1.5900	63.6749
 1.5890	63.6843
 1.5880	63.5454
 1.5870	63.5957
 1.5860	63.4614
 1.5850	63.4978
 1.5840	63.5529
 1.5830	63.4930
 1.5820	63.4442
 1.5810	63.3766
 1.5800	63.3563
 1.5790	63.2904
 1.5780	63.3437
 1.5770	63.2934
 1.5760	63.2217
 1.5750	63.1755
 1.5740	63.0404
 1.5730	63.0195
 1.5720	63.0105
 1.5710	62.9559
 1.5700	62.8389
 1.5690	62.8383
 1.5680	62.8145
 1.5670	62.7840
 1.5660	62.7149
 1.5650	62.7435
 1.5640	62.6529
 1.5630	62.6443
 1.5620	62.5728
 1.5610	62.5300
 1.5600	62.4809
 1.5590	62.4850
 1.5580	62.4370
 1.5570	62.4606
 1.5560	62.3304
 1.5550	62.2744
 1.5540	62.2255
 1.5530	62.1809
 1.5520	62.1130
 1.5510	62.0897
 1.5500	62.0970
 1.5490	62.0594
 1.5480	62.0092
 1.5470	61.9727
 1.5460	61.9328
 1.5450	61.8476
 1.5440	61.8054
 1.5430	61.7835
 1.5420	61.6368
 1.5410	61.6199
 1.5400	61.5223
 1.5390	61.4351
 1.5380	61.3446
 1.5370	61.2383
 1.5360	61.1484
 1.5350	61.1223
 1.5340	61.0938
 1.5330	61.0077
 1.5320	60.9276
 1.5310	60.8859
 1.5300	60.7489
 1.5290	60.6591
 1.5280	60.5939
 1.5270	60.5065
 1.5260	60.4806
 1.5250	60.4488
 1.5240	60.3625
 1.5230	60.2913
 1.5220	60.2664
 1.5210	60.1971
 1.5200	60.2017
 1.5190	60.1835
 1.5180	60.0953
 1.5170	60.0389
 1.5160	60.0052
 1.5150	59.9548
 1.5140	59.8322
 1.5130	59.7179
 1.5120	59.5782
 1.5110	59.4430
 1.5100	59.3464
 1.5090	59.2869
 1.5080	59.2184
 1.5070	59.1522
 1.5060	59.1440
 1.5050	59.1586
 1.5040	59.1813
 1.5030	59.1886
 1.5020	59.2028
 1.5010	59.1465
 1.5000	59.0079
 1.4990	58.9611
 1.4980	58.8561
 1.4970	58.7271
 1.4960	58.6713
 1.4950	58.5726
 1.4940	58.5176
 1.4930	58.4769
 1.4920	58.3535
 1.4910	58.2085
 1.4900	58.1341
 1.4890	57.9880
 1.4880	57.8567
 1.4870	57.7005
 1.4860	57.5944
 1.4850	57.5276
 1.4840	57.4189
 1.4830	57.3444
 1.4820	57.3197
 1.4810	57.2602
 1.4800	57.1139
 1.4790	57.0009
 1.4780	56.9335
 1.4770	56.8194
 1.4760	56.7662
 1.4750	56.7019
 1.4740	56.6240
 1.4730	56.5502
 1.4720	56.4241
 1.4710	56.3171
 1.4700	56.2201
 1.4690	56.1081
 1.4680	56.0534
 1.4670	55.9360
 1.4660	55.8774
 1.4650	55.8250
 1.4640	55.7583
 1.4630	55.6735
 1.4620	55.6775
 1.4610	55.5970
 1.4600	55.4871
 1.4590	55.4582
 1.4580	55.3952
 1.4570	55.2629
 1.4560	55.2215
 1.4550	55.1351
 1.4540	55.1163
 1.4530	55.0118
 1.4520	54.8996
 1.4510	54.8802
 1.4500	54.8313
 1.4490	54.7251
 1.4480	54.6235
 1.4470	54.4882
 1.4460	54.4671
 1.4450	54.3317
 1.4440	54.2141
 1.4430	54.1523
 1.4420	54.0322
 1.4410	53.9228
 1.4400	53.7561
 1.4390	53.5572
 1.4380	53.4489
 1.4370	53.3408
 1.4360	53.1391
 1.4350	52.9574
 1.4340	52.8573
 1.4330	52.6808
 1.4320	52.5234
 1.4310	52.3219
 1.4300	52.1165
 1.4290	51.8407
 1.4280	51.6911
 1.4270	51.4227
 1.4260	51.2187
 1.4250	50.9458
 1.4240	50.6671
 1.4230	50.4102
 1.4220	50.2567
 1.4210	50.0621
 1.4200	50.0475
 1.4190	49.8293
 1.4180	49.7446
 1.4170	49.5114
 1.4160	49.1903
 1.4150	48.6253
 1.4140	47.8611
 1.4130	46.9603
 1.4120	45.9315
 1.4110	44.7573
 1.4100	43.3909
 1.4090	41.8594
 1.4080	40.3579
 1.4070	38.9468
 1.4060	37.6250
 1.4050	36.2694
 1.4040	35.0176
 1.4030	33.6757
 1.4020	32.1732
 1.4010	30.2872
 1.4000	28.0118
 1.3990	25.6154
 1.3980	22.6551
 1.3970	19.4685
 1.3960	16.5296
 1.3950	14.3779
 1.3940	13.7928
 1.3930	14.2478
 1.3920	15.2987
 1.3910	16.0059
 1.3900	16.6266
 1.3890	16.7820
 1.3880	17.1997
 1.3870	17.7154
 1.3860	18.3167
 1.3850	18.0470
 1.3840	17.3826
 1.3830	17.4185
 1.3820	19.4261
 1.3810	23.8112
 1.3800	30.0614
 1.3790	36.8811
 1.3780	42.6157
 1.3770	46.3373
 1.3760	48.5323
 1.3750	49.7211
 1.3740	50.8101
 1.3730	51.6097
 1.3720	52.4003
 1.3710	52.7242
 1.3700	52.8623
 1.3690	52.7766
 1.3680	52.5155
 1.3670	51.6837
 1.3660	50.7192
 1.3650	49.5128
 1.3640	48.0615
 1.3630	46.7516
 1.3620	45.7501
 1.3610	44.9680
 1.3600	44.6417
 1.3590	44.5836
 1.3580	44.6343
 1.3570	44.6953
 1.3560	45.3549
 1.3550	46.3499
 1.3540	48.3808
 1.3530	50.6160
 1.3520	53.0884
 1.3510	55.2109
 1.3500	56.8162
 1.3490	57.7487
 1.3480	58.4983
 1.3470	58.8935
 1.3460	59.2609
 1.3450	59.3132
 1.3440	59.4981
 1.3430	59.8239
 1.3420	59.9500
 1.3410	60.1354
 1.3400	60.2278
 1.3390	60.2408
 1.3380	60.3434
 1.3370	60.3357
 1.3360	60.4163
 1.3350	60.4648
 1.3340	60.4552
 1.3330	60.4827
 1.3320	60.5706
 1.3310	60.5618
 1.3300	60.7129
 1.3290	60.6380
 1.3280	60.6086
 1.3270	60.6390
 1.3260	60.5756
 1.3250	60.5588
 1.3240	60.6714
 1.3230	60.5700
 1.3220	60.6381
 1.3210	60.5492
 1.3200	60.5654
 1.3190	60.5449
 1.3180	60.4980
 1.3170	60.3329
 1.3160	60.3041
 1.3150	60.1310
 1.3140	60.0692
 1.3130	59.9788
 1.3120	59.8700
 1.3110	59.8658
 1.3100	59.8029
 1.3090	59.5561
 1.3080	59.4327
 1.3070	59.2954
 1.3060	59.1970
 1.3050	59.0506
 1.3040	59.1589
 1.3030	59.2468
 1.3020	59.3856
 1.3010	59.3832
 1.3000	59.4497
 1.2990	59.2672
 1.2980	59.0713
 1.2970	58.8294
 1.2960	58.6361
 1.2950	58.3507
 1.2940	58.1116
 1.2930	57.8416
 1.2920	57.4279
 1.2910	56.8535
 1.2900	56.1235
 1.2890	55.0279
 1.2880	53.9395
 1.2870	53.0461
 1.2860	52.6946
 1.2850	52.8596
 1.2840	53.5078
 1.2830	54.2619
 1.2820	54.8774
 1.2810	55.3030
 1.2800	55.5249
 1.2790	55.5556
 1.2780	55.4928
 1.2770	55.4944
 1.2760	55.7668
 1.2750	56.1255
 1.2740	56.5261
 1.2730	56.8778
 1.2720	57.2403
 1.2710	57.4664
 1.2700	57.6770
 1.2690	57.6823
 1.2680	57.5509
 1.2670	57.3950
 1.2660	57.3366
 1.2650	57.3741
 1.2640	57.5646
 1.2630	57.6868
 1.2620	57.8878
 1.2610	57.9726
 1.2600	58.0727
 1.2590	58.1625
 1.2580	58.2799
 1.2570	58.4289
 1.2560	58.6177
 1.2550	58.8079
 1.2540	58.9480
 1.2530	59.1209
 1.2520	59.2931
 1.2510	59.2739
 1.2500	59.3239
 1.2490	59.3978
 1.2480	59.4020
 1.2470	59.4115
 1.2460	59.4818
 1.2450	59.4515
 1.2440	59.3726
 1.2430	59.3245
 1.2420	59.3648
 1.2410	59.3561
 1.2400	59.3525
 1.2390	59.2796
 1.2380	59.2075
 1.2370	59.1867
 1.2360	59.1799
 1.2350	59.1544
 1.2340	59.1143
 1.2330	59.0276
 1.2320	58.9819
 1.2310	58.9910
 1.2300	58.9670
 1.2290	58.9356
 1.2280	58.9751
 1.2270	58.9426
 1.2260	58.9001
 1.2250	58.8093
 1.2240	58.7965
 1.2230	58.7859
 1.2220	58.7415
 1.2210	58.7521
 1.2200	58.7179
 1.2190	58.6858
 1.2180	58.6714
 1.2170	58.6064
 1.2160	58.5325
 1.2150	58.4778
 1.2140	58.4413
 1.2130	58.4154
 1.2120	58.4098
 1.2110	58.3874
 1.2100	58.3663
 1.2090	58.3448
 1.2080	58.3165
 1.2070	58.2827
 1.2060	58.2427
 1.2050	58.1933
 1.2040	58.1471
 1.2030	58.1065
 1.2020	58.0849
 1.2010	58.0145
 1.2000	57.9566
 1.1990	57.9681
 1.1980	57.9137
 1.1970	57.9151
 1.1960	57.8926
 1.1950	57.8512
 1.1940	57.7850
 1.1930	57.7058
 1.1920	57.6941
 1.1910	57.6936
 1.1900	57.5995
 1.1890	57.5475
 1.1880	57.4852
 1.1870	57.5320
 1.1860	57.4982
 1.1850	57.4459
 1.1840	57.3828
 1.1830	57.3249
 1.1820	57.3270
 1.1810	57.3017
 1.1800	57.2550
 1.1790	57.2462
 1.1780	57.1814
 1.1770	57.1581
 1.1760	57.1757
 1.1750	57.1498
 1.1740	57.0715
 1.1730	57.0640
 1.1720	57.0356
 1.1710	57.0281
 1.1700	57.0346
 1.1690	57.0505
 1.1680	56.9586
 1.1670	56.9662
 1.1660	56.9059
 1.1650	56.8673
 1.1640	56.8819
 1.1630	56.8737
 1.1620	56.8375
 1.1610	56.8863
 1.1600	56.8925
 1.1590	56.8705
 1.1580	56.8227
 1.1570	56.8330
 1.1560	56.8295
 1.1550	56.8813
 1.1540	56.8452
 1.1530	56.8503
 1.1520	56.8423
 1.1510	56.8093
 1.1500	56.7746
 1.1490	56.7990
 1.1480	56.7246
 1.1470	56.8098
 1.1460	56.7542
 1.1450	56.8060
 1.1440	56.7802
 1.1430	56.7681
 1.1420	56.7496
 1.1410	56.8156
 1.1400	56.8598
 1.1390	56.8858
 1.1380	56.8091
 1.1370	56.7343
 1.1360	56.7835
 1.1350	56.7608
 1.1340	56.7127
 1.1330	56.7228
 1.1320	56.7664
 1.1310	56.7820
 1.1300	56.6465
 1.1290	56.6864
 1.1280	56.6899
 1.1270	56.7363
 1.1260	56.6717
 1.1250	56.6610
 1.1240	56.6029
 1.1230	56.6813
 1.1220	56.6048
 1.1210	56.6346
 1.1200	56.5645
 1.1190	56.6714
 1.1180	56.5487
 1.1170	56.5739
 1.1160	56.5738
 1.1150	56.5629
 1.1140	56.5343
 1.1130	56.5578
 1.1120	56.5188
 1.1110	56.5329
 1.1100	56.5068
 1.1090	56.5712
 1.1080	56.4374
 1.1070	56.5202
 1.1060	56.4258
 1.1050	56.4782
 1.1040	56.4768
 1.1030	56.4365
 1.1020	56.4067
 1.1010	56.4168
 1.1000	56.4453
 1.0990	56.4545
 1.0980	56.4860
 1.0970	56.4381
 1.0960	56.3447
 1.0950	56.4112
 1.0940	56.4258
 1.0930	56.3830
 1.0920	56.4342
 1.0910	56.3831
 1.0900	56.4161
 1.0890	56.4375
 1.0880	56.3287
 1.0870	56.3431
 1.0860	56.3385
 1.0850	56.4335
 1.0840	56.3443
 1.0830	56.4319
 1.0820	56.4005
 1.0810	56.3041
 1.0800	56.3430
 1.0790	56.3665
 1.0780	56.3299
 1.0770	56.3158
 1.0760	56.3130
 1.0750	56.3547
 1.0740	56.3367
 1.0730	56.3396
 1.0720	56.3060
 1.0710	56.3939
 1.0700	56.1683
 1.0690	56.3184
 1.0680	56.3620
 1.0670	56.3466
 1.0660	56.2811
 1.0650	56.3022
 1.0640	56.2967
 1.0630	56.3769
 1.0620	56.2525
 1.0610	56.3203
 1.0600	56.3098
 1.0590	56.2415
 1.0580	56.2785
 1.0570	56.2930
 1.0560	56.2280
 1.0550	56.3366
 1.0540	56.2504
 1.0530	56.2371
 1.0520	56.1878
 1.0510	56.2980
 1.0500	56.1848
 1.0490	56.2406
 1.0480	56.2863
 1.0470	56.2755
 1.0460	56.1617
 1.0450	56.1606
 1.0440	56.1992
 1.0430	56.2187
 1.0420	56.2436
 1.0410	56.1978
 1.0400	56.1669
 1.0390	56.2331
 1.0380	56.1848
 1.0370	56.2366
 1.0360	56.1212
 1.0350	56.1286
 1.0340	56.1406
 1.0330	56.1940
 1.0320	56.1465
 1.0310	56.1666
 1.0300	56.0466
 1.0290	56.0735
 1.0280	56.0763
 1.0270	56.0526
 1.0260	56.0670
 1.0250	56.0127
 1.0240	56.0544
 1.0230	56.1020
 1.0220	56.0087
 1.0210	55.9377
 1.0200	55.8951
 1.0190	55.9872
 1.0180	55.9781
 1.0170	55.9339
 1.0160	55.9823
 1.0150	55.9549
 1.0140	55.8884
 1.0130	55.8156
 1.0120	55.7420
 1.0110	55.8400
 1.0100	55.8306
 1.0090	55.8286
 1.0080	55.7944
 1.0070	55.7814
 1.0060	55.7704
 1.0050	55.7079
 1.0040	55.6738
 1.0030	55.6778
 1.0020	55.7240
 1.0010	55.6299
 1.0000	55.5776
 0.9990	55.5924
 0.9980	55.5884
 0.9970	55.5609
 0.9960	55.4642
 0.9950	55.5169
 0.9940	55.5458
 0.9930	55.4864
 0.9920	55.4345
 0.9910	55.4119
 0.9900	55.3796
 0.9890	55.3507
 0.9880	55.3199
 0.9870	55.3410
 0.9860	55.2448
 0.9850	55.2442
 0.9840	55.2305
 0.9830	55.1147
 0.9820	55.0416
 0.9810	55.0737
 0.9800	55.0924
 0.9790	55.0894
 0.9780	54.9239
 0.9770	54.9746
 0.9760	54.9068
 0.9750	54.8825
 0.9740	54.8383
 0.9730	54.7605
 0.9720	54.7112
 0.9710	54.6888
 0.9700	54.6242
 0.9690	54.6053
 0.9680	54.5246
 0.9670	54.4515
 0.9660	54.2893
 0.9650	54.1866
 0.9640	54.0661
 0.9630	53.9899
 0.9620	53.8562
 0.9610	53.7025
 0.9600	53.5165
 0.9590	53.2703
 0.9580	52.8856
 0.9570	52.4513
 0.9560	51.9039
 0.9550	51.3029
 0.9540	50.8393
 0.9530	50.4313
 0.9520	50.2758
 0.9510	50.2999
 0.9500	50.3841
 0.9490	50.5357
 0.9480	50.6761
 0.9470	50.7171
 0.9460	50.5002
 0.9450	50.4054
 0.9440	50.3906
 0.9430	50.4448
 0.9420	50.7308
 0.9410	51.2817
 0.9400	51.8910
 0.9390	52.4819
 0.9380	52.9622
 0.9370	53.2849
 0.9360	53.4879
 0.9350	53.6759
 0.9340	53.7424
 0.9330	53.7329
 0.9320	53.7072
 0.9310	53.6706
 0.9300	53.7153
 0.9290	53.7667
 0.9280	53.7748
 0.9270	53.7372
 0.9260	53.6783
 0.9250	53.6610
 0.9240	53.6676
 0.9230	53.6549
 0.9220	53.6188
 0.9210	53.6176
 0.9200	53.6339
 0.9190	53.6038
 0.9180	53.5767
 0.9170	53.5646
 0.9160	53.6186
 0.9150	53.5808
 0.9140	53.5464
 0.9130	53.5818
 0.9120	53.5890
 0.9110	53.5917
 0.9100	53.5797
 0.9090	53.5319
 0.9080	53.5331
 0.9070	53.4992
 0.9060	53.5006
 0.9050	53.5117
 0.9040	53.5078
 0.9030	53.4857
 0.9020	53.4599
 0.9010	53.4247
 0.9000	53.4708
 0.8990	53.4611
 0.8980	53.4836
 0.8970	53.4683
 0.8960	53.4986
 0.8950	53.4979
 0.8940	53.5360
 0.8930	53.5482
 0.8920	53.5761
 0.8910	53.6133
 0.8900	53.6343
 0.8890	53.6360
 0.8880	53.6740
 0.8870	53.6749
 0.8860	53.7391
 0.8850	53.7089
 0.8840	53.7284
 0.8830	53.7184
 0.8820	53.7647
 0.8810	53.7677
 0.8800	53.8298
 0.8790	53.8565
 0.8780	53.9364
 0.8770	53.8786
 0.8760	53.9122
 0.8750	53.9498
 0.8740	53.9853
 0.8730	53.9718
 0.8720	54.0194
 0.8710	53.9751
 0.8700	54.0428
 0.8690	53.9948
 0.8680	54.0757
 0.8670	54.1263
 0.8660	54.2006
 0.8650	54.1966
 0.8640	54.2308
 0.8630	54.1675
 0.8620	54.1520
 0.8610	54.2240
 0.8600	54.4204
 0.8590	54.4113
 0.8580	54.4146
 0.8570	54.4705
 0.8560	54.4730
 0.8550	54.4585
 0.8540	54.4995
 0.8530	54.5456
 0.8520	54.5407
 0.8510	54.6048
 0.8500	54.6490
 0.8490	54.6299
 0.8480	54.6245
 0.8470	54.6890
 0.8460	54.7249
 0.8450	54.7237
 0.8440	54.7396
 0.8430	54.7493
 0.8420	54.7492
 0.8410	54.8242
 0.8400	54.8350
 0.8390	54.8437
 0.8380	54.8393
 0.8370	54.8955
 0.8360	54.8639
 0.8350	54.8822
 0.8340	54.9260
 0.8330	54.9518
 0.8320	54.9949
 0.8310	54.9544
 0.8300	54.9452
 0.8290	54.9508
 0.8280	54.9769
 0.8270	54.9803
 0.8260	54.9845
 0.8250	54.9698
 0.8240	55.0149
 0.8230	55.0031
 0.8220	54.9880
 0.8210	55.0356
 0.8200	54.9975
 0.8190	55.0011
 0.8180	54.9959
 0.8170	55.0189
 0.8160	54.9754
 0.8150	55.0014
 0.8140	54.9570
 0.8130	54.9552
 0.8120	54.9114
 0.8110	54.8944
 0.8100	54.9159
 0.8090	54.9000
 0.8080	54.8860
 0.8070	54.8507
 0.8060	54.8483
 0.8050	54.8382
 0.8040	54.7539
 0.8030	54.8177
 0.8020	54.7427
 0.8010	54.7600
 0.8000	54.7166
 0.7990	54.6887
 0.7980	54.6425
 0.7970	54.6293
 0.7960	54.5642
 0.7950	54.5339
 0.7940	54.4909
 0.7930	54.4429
 0.7920	54.4636
 0.7910	54.4375
 0.7900	54.3673
 0.7890	54.3759
 0.7880	54.3355
 0.7870	54.3115
 0.7860	54.2613
 0.7850	54.2565
 0.7840	54.2160
 0.7830	54.1520
 0.7820	54.1338
 0.7810	54.1110
 0.7800	54.0849
 0.7790	54.0537
 0.7780	53.9894
 0.7770	53.9629
 0.7760	53.9590
 0.7750	53.8904
 0.7740	53.8754
 0.7730	53.8780
 0.7720	53.8340
 0.7710	53.7847
 0.7700	53.7966
 0.7690	53.7544
 0.7680	53.7433
 0.7670	53.7309
 0.7660	53.7050
 0.7650	53.6663
 0.7640	53.6629
 0.7630	53.6559
 0.7620	53.5937
 0.7610	53.5799
 0.7600	53.5855
 0.7590	53.5266
 0.7580	53.5372
 0.7570	53.5229
 0.7560	53.5160
 0.7550	53.5374
 0.7540	53.5203
 0.7530	53.4985
 0.7520	53.4988
 0.7510	53.4940
 0.7500	53.4857
 0.7490	53.4621
 0.7480	53.4853
 0.7470	53.4794
 0.7460	53.4772
 0.7450	53.4723
 0.7440	53.4941
 0.7430	53.4795
 0.7420	53.4607
 0.7410	53.4640
 0.7400	53.4869
 0.7390	53.4796
 0.7380	53.4886
 0.7370	53.4784
 0.7360	53.4529
 0.7350	53.4532
 0.7340	53.4302
 0.7330	53.4114
 0.7320	53.4267
 0.7310	53.4494
 0.7300	53.4718
 0.7290	53.5017
 0.7280	53.5256
 0.7270	53.5542
 0.7260	53.5525
 0.7250	53.5963
 0.7240	53.5796
 0.7230	53.5816
 0.7220	53.6198
 0.7210	53.6868
 0.7200	53.7656
 0.7190	53.8154
 0.7180	53.8868
 0.7170	53.8961
 0.7160	53.9239
 0.7150	53.9579
 0.7140	53.9718
 0.7130	53.9894
 0.7120	54.0321
 0.7110	54.0517
 0.7100	54.0986
 0.7090	54.1168
 0.7080	54.1403
 0.7070	54.1737
 0.7060	54.2048
 0.7050	54.2208
 0.7040	54.2462
 0.7030	54.2852
 0.7020	54.3101
 0.7010	54.3444
 0.7000	54.3830
 0.6990	54.3978
 0.6980	54.4278
 0.6970	54.4546
 0.6960	54.4938
 0.6950	54.5110
 0.6940	54.5418
 0.6930	54.5821
 0.6920	54.6004
 0.6910	54.6132
 0.6900	54.6421
 0.6890	54.6739
 0.6880	54.7084
 0.6870	54.7412
 0.6860	54.7578
 0.6850	54.7857
 0.6840	54.8280
 0.6830	54.8588
 0.6820	54.8938
 0.6810	54.9114
 0.6800	54.9355
 0.6790	54.9582
 0.6780	54.9849
 0.6770	55.0135
 0.6760	55.0444
 0.6750	55.0670
 0.6740	55.1060
 0.6730	55.1417
 0.6720	55.1679
 0.6710	55.1960
 0.6700	55.2321
 0.6690	55.2660
 0.6680	55.2892
 0.6670	55.3207
 0.6660	55.3641
 0.6650	55.3988
 0.6640	55.4209
 0.6630	55.4504
 0.6620	55.4921
 0.6610	55.5353
 0.6600	55.5797
 0.6590	55.6041
 0.6580	55.6260
 0.6570	55.6653
 0.6560	55.7071
 0.6550	55.7392
 0.6540	55.7781
 0.6530	55.8205
 0.6520	55.8542
 0.6510	55.9009
 0.6500	55.9360
 0.6490	55.9710
 0.6480	56.0293
 0.6470	56.0786
 0.6460	56.1144
 0.6450	56.1606
 0.6440	56.2034
 0.6430	56.2383
 0.6420	56.2875
 0.6410	56.3332
 0.6400	56.3721
 0.6390	56.4152
 0.6380	56.4623
 0.6370	56.5041
 0.6360	56.5442
 0.6350	56.5827
 0.6340	56.6334
 0.6330	56.6758
 0.6320	56.7166
 0.6310	56.7692
 0.6300	56.8154
 0.6290	56.8614
 0.6280	56.9049
 0.6270	56.9392
 0.6260	56.9709
 0.6250	57.0177
 0.6240	57.0629
 0.6230	57.0921
 0.6220	57.1291
 0.6210	57.1683
 0.6200	57.2046
 0.6190	57.2460
 0.6180	57.2876
 0.6170	57.3226
 0.6160	57.3540
 0.6150	57.3948
 0.6140	57.4289
 0.6130	57.4574
 0.6120	57.4904
 0.6110	57.5263
 0.6100	57.5537
 0.6090	57.5793
 0.6080	57.6006
 0.6070	57.6245
 0.6060	57.6553
 0.6050	57.6794
 0.6040	57.7040
 0.6030	57.7271
 0.6020	57.7344
 0.6010	57.7597
 0.6000	57.7892
 0.5990	57.8201
 0.5980	57.8539
 0.5970	57.8700
 0.5960	57.8857
 0.5950	57.9031
 0.5940	57.9155
 0.5930	57.9262
 0.5920	57.9301
 0.5910	57.9250
 0.5900	57.9244
 0.5890	57.9258
 0.5880	57.9310
 0.5870	57.9341
 0.5860	57.9248
 0.5850	57.9094
 0.5840	57.9120
 0.5830	57.8882
 0.5820	57.8725
 0.5810	57.8600
 0.5800	57.8228
 0.5790	57.8073
 0.5780	57.7878
 0.5770	57.7541
 0.5760	57.7203
 0.5750	57.6793
 0.5740	57.6392
 0.5730	57.6071
 0.5720	57.5733
 0.5710	57.5383
 0.5700	57.5013
 0.5690	57.4678
 0.5680	57.4250
 0.5670	57.3747
 0.5660	57.3217
 0.5650	57.2867
 0.5640	57.2257
 0.5630	57.1760
 0.5620	57.1226
 0.5610	57.0463
 0.5600	56.9770
 0.5590	56.9164
 0.5580	56.8555
 0.5570	56.7921
 0.5560	56.7193
 0.5550	56.6422
 0.5540	56.5612
 0.5530	56.4966
 0.5520	56.4178
 0.5510	56.3306
 0.5500	56.2483
 0.5490	56.1601
 0.5480	56.0553
 0.5470	55.9496
 0.5460	55.8517
 0.5450	55.7563
 0.5440	55.6503
 0.5430	55.5482
 0.5420	55.4447
 0.5410	55.3428
 0.5400	55.2397
 0.5390	55.1280
 0.5380	55.0208
 0.5370	54.9067
 0.5360	54.7943
 0.5350	54.6696
 0.5340	54.5421
 0.5330	54.4270
 0.5320	54.3109
 0.5310	54.1790
 0.5300	54.0428
 0.5290	53.9249
 0.5280	53.8026
 0.5270	53.6801
 0.5260	53.5504
 0.5250	53.4205
 0.5240	53.2831
 0.5230	53.1566
 0.5220	53.0249
 0.5210	52.8799
 0.5200	52.7454
 0.5190	52.6024
 0.5180	52.4559
 0.5170	52.3037
 0.5160	52.1497
 0.5150	51.9969
 0.5140	51.8523
 0.5130	51.6918
 0.5120	51.5210
 0.5110	51.3564
 0.5100	51.1867
 0.5090	51.0192
 0.5080	50.8352
 0.5070	50.6494
 0.5060	50.4816
 0.5050	50.3081
 0.5040	50.1042
 0.5030	49.9089
 0.5020	49.7279
 0.5010	49.5428
 0.5000	49.3468
 0.4990	49.1485
 0.4980	48.9438
 0.4970	48.7469
 0.4960	48.5398
 0.4950	48.3579
 0.4940	48.1818
 0.4930	48.0206
 0.4920	47.8356
 0.4910	47.7073
 0.4900	47.5655
 0.4890	47.4212
 0.4880	47.2612
 0.4870	47.0906
 0.4860	46.9136
 0.4850	46.7169
 0.4840	46.5398
 0.4830	46.2941
 0.4820	46.0494
 0.4810	45.7957
 0.4800	45.5245
 0.4790	45.2301
 0.4780	44.8967
 0.4770	44.5263
 0.4760	44.1383
 0.4750	43.6984
 0.4740	43.2202
 0.4730	42.6929
 0.4720	42.1482
 0.4710	41.5845
 0.4700	40.9994
 0.4690	40.3950
 0.4680	39.8181
 0.4670	39.2197
 0.4660	38.6485
 0.4650	38.1036
 0.4640	37.6092
 0.4630	37.1677
 0.4620	36.7709
 0.4610	36.4410
 0.4600	36.1687
 0.4590	35.9797
 0.4580	35.7969
 0.4570	35.6379
 0.4560	35.5205
 0.4550	35.4257
 0.4540	35.3310
 0.4530	35.2423
 0.4520	35.1474
 0.4510	35.0456
 0.4500	34.9494
 0.4490	34.8316
 0.4480	34.7221
 0.4470	34.6132
 0.4460	34.4896
 0.4450	34.3433
 0.4440	34.2225
 0.4430	34.0753
 0.4420	33.9419
 0.4410	33.7986
 0.4400	33.6896
 0.4390	33.6199
 0.4380	33.5612
 0.4370	33.5307
 0.4360	33.5364
 0.4350	33.5700
 0.4340	33.6227
 0.4330	33.6871
 0.4320	33.7408
 0.4310	33.8154
 0.4300	33.8963
 0.4290	33.9924
 0.4280	34.0740
 0.4270	34.1710
 0.4260	34.2769
 0.4250	34.3761
 0.4240	34.4884
 0.4230	34.5720
 0.4220	34.6530
 0.4210	34.7355
 0.4200	34.7887
 0.4190	34.8292
 0.4180	34.8659
 0.4170	34.8944
 0.4160	34.9166
 0.4150	34.9562
 0.4140	35.0137
 0.4130	35.1062
 0.4120	35.2121
 0.4110	35.3188
 0.4100	35.4471
 0.4090	35.5632
 0.4080	35.6887
 0.4070	35.7893
 0.4060	35.8821
 0.4050	35.9637
 0.4040	36.0220
 0.4030	36.0684
 0.4020	36.0929
 0.4010	36.0914
 0.4000	36.0807
