Name: Talc Mg_3Si_4O_10(OH)_2
Type: Mineral
Class: Silicate
Subclass: Phyllosilicate
Particle Size: Fine
Sample No.: PS-14A
Owner: JPL
Wavelength Range: VSWIR
Origin: USA, Georgia, Cherokee County, Holly Springs
Collection Date: N/A
Description: Particle size was 0-45um.Collected by Burminco Original ASTER Spectral Library name was jpl.beckman.mineral.silicate.phyllosilicate.fine.ps14a.spectrum.txt
Measurement: Hemispherical reflectance
First Column: X
Second Column: Y
X Units: Wavelength (micrometers)
Y Units:Reflectance (percent)
First X Value:  0.4000
Last X Value:  2.5000
Number of X Values: 826
Additional Information: mineral.silicate.phyllosilicate.fine.vswir.ps-14a.jpl.beckman.ancillary.txt

 0.4000	81.5600
 0.4010	81.6100
 0.4020	81.6700
 0.4030	81.6100
 0.4040	81.9000
 0.4050	82.3000
 0.4060	82.1800
 0.4070	82.1800
 0.4080	81.9500
 0.4090	82.1800
 0.4100	82.5300
 0.4110	82.5300
 0.4120	82.5300
 0.4130	82.1800
 0.4140	82.4100
 0.4150	82.7600
 0.4160	82.8700
 0.4170	82.9300
 0.4180	82.7600
 0.4190	82.8700
 0.4200	83.1500
 0.4210	83.2600
 0.4220	83.1500
 0.4230	82.8700
 0.4240	82.9900
 0.4250	83.3800
 0.4260	83.4900
 0.4270	83.4900
 0.4280	83.2100
 0.4290	83.4400
 0.4300	83.8400
 0.4310	83.7800
 0.4320	83.6100
 0.4330	83.2600
 0.4340	83.4400
 0.4350	83.7200
 0.4360	83.6700
 0.4370	83.7200
 0.4380	83.4400
 0.4390	83.5500
 0.4400	83.9500
 0.4410	83.9500
 0.4420	83.9500
 0.4430	83.6100
 0.4440	83.7200
 0.4450	84.0100
 0.4460	83.9500
 0.4470	84.0100
 0.4480	83.6700
 0.4490	83.8400
 0.4500	84.0700
 0.4510	84.0700
 0.4520	84.0100
 0.4530	83.7300
 0.4540	83.8500
 0.4550	84.3000
 0.4560	84.3000
 0.4570	84.3000
 0.4580	84.0200
 0.4590	84.1400
 0.4600	84.3100
 0.4610	84.0800
 0.4620	84.3700
 0.4630	84.5500
 0.4640	84.4300
 0.4650	84.2600
 0.4660	84.2600
 0.4670	84.4900
 0.4680	84.7900
 0.4690	84.5600
 0.4700	84.5000
 0.4710	84.4400
 0.4720	84.7300
 0.4730	84.9000
 0.4740	84.5700
 0.4750	84.5700
 0.4760	84.7400
 0.4770	85.0800
 0.4780	84.9700
 0.4790	84.7400
 0.4800	84.8000
 0.4810	84.9100
 0.4820	85.1400
 0.4830	84.9800
 0.4840	84.8100
 0.4850	84.9200
 0.4860	85.1000
 0.4870	85.3800
 0.4880	85.1600
 0.4890	84.9300
 0.4900	84.9300
 0.4910	85.2800
 0.4920	85.5100
 0.4930	85.3500
 0.4940	85.0600
 0.4950	85.2300
 0.4960	85.5200
 0.4970	85.5200
 0.4980	85.3500
 0.4990	85.2400
 0.5000	85.5200
 0.5010	85.6900
 0.5020	85.6900
 0.5030	85.4600
 0.5040	85.3500
 0.5050	85.6900
 0.5060	85.9800
 0.5070	85.8000
 0.5080	85.7500
 0.5090	85.6300
 0.5100	85.8000
 0.5110	86.0900
 0.5120	86.0300
 0.5130	85.7500
 0.5140	85.9200
 0.5150	86.0300
 0.5160	86.2100
 0.5170	85.9800
 0.5180	85.9800
 0.5190	86.0300
 0.5200	86.2600
 0.5210	86.3800
 0.5220	86.0900
 0.5230	85.9800
 0.5240	86.0300
 0.5250	86.2100
 0.5260	86.3200
 0.5270	86.0300
 0.5280	85.9800
 0.5290	86.0300
 0.5300	86.3800
 0.5310	86.3800
 0.5320	86.0300
 0.5330	85.9200
 0.5340	86.0900
 0.5350	86.2600
 0.5360	86.1500
 0.5370	85.8600
 0.5380	85.9800
 0.5390	86.3200
 0.5400	86.4400
 0.5410	86.1500
 0.5420	85.8000
 0.5430	86.0300
 0.5440	86.3200
 0.5450	86.2100
 0.5460	86.0900
 0.5470	85.8600
 0.5480	86.1500
 0.5490	86.4400
 0.5500	86.4400
 0.5510	86.4400
 0.5520	86.2600
 0.5530	86.4400
 0.5540	86.6700
 0.5550	86.3800
 0.5560	86.2100
 0.5570	86.2100
 0.5580	86.3200
 0.5590	86.7200
 0.5600	86.3200
 0.5610	86.3200
 0.5620	86.3200
 0.5630	86.6100
 0.5640	86.7800
 0.5650	86.3800
 0.5660	86.3200
 0.5670	86.3800
 0.5680	86.7200
 0.5690	86.4900
 0.5700	86.1500
 0.5710	86.0900
 0.5720	86.1500
 0.5730	86.3200
 0.5740	86.2100
 0.5750	85.8600
 0.5760	85.9200
 0.5770	86.0300
 0.5780	86.2600
 0.5790	86.2100
 0.5800	85.8000
 0.5810	85.8000
 0.5820	85.9800
 0.5830	86.0900
 0.5840	85.9800
 0.5850	85.6900
 0.5860	85.8000
 0.5870	86.0900
 0.5880	86.1500
 0.5890	86.0300
 0.5900	85.5200
 0.5910	85.7500
 0.5920	86.0300
 0.5930	86.0300
 0.5940	85.9800
 0.5950	85.5700
 0.5960	85.6300
 0.5970	85.9800
 0.5980	86.0900
 0.5990	85.9200
 0.6000	85.5200
 0.6010	85.6900
 0.6020	85.9200
 0.6030	85.9200
 0.6040	85.7500
 0.6050	85.4000
 0.6060	85.6900
 0.6070	85.8000
 0.6080	85.8000
 0.6090	85.5700
 0.6100	85.4000
 0.6110	85.5700
 0.6120	85.6900
 0.6130	85.6300
 0.6140	85.3000
 0.6150	85.1800
 0.6160	85.3000
 0.6170	85.4000
 0.6180	85.3000
 0.6190	85.0100
 0.6200	84.9500
 0.6210	85.3000
 0.6220	85.4600
 0.6230	85.3000
 0.6240	85.1300
 0.6250	85.0700
 0.6260	85.3000
 0.6270	85.3500
 0.6280	85.1300
 0.6290	84.9000
 0.6300	84.9000
 0.6310	85.1300
 0.6320	85.2400
 0.6330	84.8400
 0.6340	84.7800
 0.6350	84.7800
 0.6360	85.0700
 0.6370	85.1300
 0.6380	84.7800
 0.6390	84.7200
 0.6400	84.8400
 0.6410	84.9500
 0.6420	84.9000
 0.6430	84.5500
 0.6440	84.6100
 0.6450	84.7200
 0.6460	84.9000
 0.6470	84.8400
 0.6480	84.5500
 0.6490	84.6700
 0.6500	84.7800
 0.6510	85.0700
 0.6520	84.9000
 0.6530	84.5500
 0.6540	84.6700
 0.6550	84.9000
 0.6560	85.0700
 0.6570	84.9500
 0.6580	84.5500
 0.6590	84.6700
 0.6600	84.9500
 0.6610	85.0100
 0.6620	84.9000
 0.6630	84.6100
 0.6640	84.7200
 0.6650	84.9000
 0.6660	84.8400
 0.6670	84.7200
 0.6680	84.3800
 0.6690	84.7200
 0.6700	85.0700
 0.6710	85.0700
 0.6720	84.8400
 0.6730	84.6100
 0.6740	84.9000
 0.6750	85.1300
 0.6760	85.0100
 0.6770	84.7800
 0.6780	84.7800
 0.6790	84.9500
 0.6800	85.2400
 0.6810	84.9500
 0.6820	84.7800
 0.6830	84.7800
 0.6840	84.9500
 0.6850	85.1800
 0.6860	85.0100
 0.6870	84.8400
 0.6880	84.8400
 0.6890	85.1300
 0.6900	85.1800
 0.6910	84.9000
 0.6920	84.7800
 0.6930	84.8400
 0.6940	85.0100
 0.6950	85.1800
 0.6960	84.8400
 0.6970	84.8400
 0.6980	84.8400
 0.6990	84.7800
 0.7000	84.7800
 0.7010	84.5500
 0.7020	84.6700
 0.7030	84.7800
 0.7040	84.8400
 0.7050	84.7200
 0.7060	84.5500
 0.7070	84.5500
 0.7080	84.8400
 0.7090	85.0700
 0.7100	84.8400
 0.7110	84.6700
 0.7120	84.6700
 0.7130	84.8400
 0.7140	85.0100
 0.7150	84.8400
 0.7160	84.5500
 0.7170	84.7200
 0.7180	84.8400
 0.7190	84.9500
 0.7200	84.7800
 0.7210	84.4900
 0.7220	84.7200
 0.7230	84.9000
 0.7240	84.8400
 0.7250	84.4900
 0.7260	84.3200
 0.7270	84.4400
 0.7280	84.6700
 0.7290	84.7200
 0.7300	84.3800
 0.7310	84.3800
 0.7320	84.6100
 0.7330	84.9000
 0.7340	84.6700
 0.7350	84.4400
 0.7360	84.3800
 0.7370	84.6100
 0.7380	84.8400
 0.7390	84.5500
 0.7400	84.2100
 0.7410	84.3800
 0.7420	84.6100
 0.7430	84.7200
 0.7440	84.4400
 0.7450	84.3200
 0.7460	84.4400
 0.7470	84.6700
 0.7480	84.5500
 0.7490	84.2100
 0.7500	84.0900
 0.7510	84.2600
 0.7520	84.4900
 0.7530	84.4900
 0.7540	84.0900
 0.7550	84.0300
 0.7560	84.1500
 0.7570	84.3200
 0.7580	84.3200
 0.7590	83.9800
 0.7600	83.9800
 0.7610	84.0300
 0.7620	84.2600
 0.7630	84.2600
 0.7640	83.8600
 0.7650	83.8600
 0.7660	83.9200
 0.7670	84.0900
 0.7680	84.0900
 0.7690	83.6900
 0.7700	83.7500
 0.7710	83.8600
 0.7720	84.0300
 0.7730	84.0300
 0.7740	83.6900
 0.7750	83.5800
 0.7760	83.6900
 0.7770	83.8000
 0.7780	83.7500
 0.7790	83.4700
 0.7800	83.3500
 0.7810	83.5300
 0.7820	83.6400
 0.7830	83.8000
 0.7840	83.4700
 0.7850	83.3000
 0.7860	83.3000
 0.7870	83.4100
 0.7880	83.5800
 0.7890	83.3000
 0.7900	83.0100
 0.7910	83.0100
 0.7920	83.2400
 0.7930	83.4100
 0.7940	83.3000
 0.7950	83.0700
 0.7960	83.0100
 0.7970	83.1800
 0.7980	83.1300
 0.7990	82.9500
 0.8000	82.9500
 0.8040	82.9500
 0.8080	82.7200
 0.8120	82.5500
 0.8160	82.4900
 0.8200	82.1500
 0.8240	82.2600
 0.8280	82.0300
 0.8320	82.0900
 0.8360	81.9300
 0.8400	81.9900
 0.8440	81.7600
 0.8480	81.7600
 0.8520	81.7600
 0.8560	81.7000
 0.8600	81.7600
 0.8640	81.6400
 0.8680	81.7600
 0.8720	81.5800
 0.8760	81.7000
 0.8800	81.7600
 0.8840	81.7600
 0.8880	81.8100
 0.8920	81.7600
 0.8960	81.8700
 0.9000	81.7600
 0.9040	81.8700
 0.9080	81.8700
 0.9120	81.9900
 0.9160	81.8100
 0.9200	82.0300
 0.9240	82.1500
 0.9280	82.0900
 0.9320	82.1500
 0.9360	82.0300
 0.9400	81.9300
 0.9440	81.5800
 0.9480	81.3000
 0.9520	81.6400
 0.9560	81.5800
 0.9600	81.9900
 0.9640	81.9900
 0.9680	81.8700
 0.9720	81.8100
 0.9760	81.8100
 0.9800	81.9900
 0.9840	81.7000
 0.9880	81.8700
 0.9920	81.7600
 0.9960	81.8700
 1.0000	81.6400
 1.0040	81.8100
 1.0080	81.7600
 1.0120	81.7600
 1.0160	81.7600
 1.0200	81.8100
 1.0240	81.8100
 1.0280	81.9900
 1.0320	81.7600
 1.0360	81.9300
 1.0400	81.8700
 1.0440	82.0900
 1.0480	82.1500
 1.0520	82.2100
 1.0560	82.3200
 1.0600	82.2600
 1.0640	82.3800
 1.0680	82.4400
 1.0720	82.5500
 1.0760	82.6700
 1.0800	82.8400
 1.0840	82.7800
 1.0880	82.9000
 1.0920	82.9500
 1.0960	83.0700
 1.1000	83.3000
 1.1040	83.4700
 1.1080	83.4700
 1.1120	83.6400
 1.1160	83.6900
 1.1200	83.9200
 1.1240	84.0900
 1.1280	84.1500
 1.1320	84.1500
 1.1360	84.3800
 1.1400	84.4400
 1.1440	84.5500
 1.1480	84.7200
 1.1520	84.8400
 1.1560	84.8300
 1.1600	84.9900
 1.1640	85.1000
 1.1680	85.3200
 1.1720	85.2000
 1.1760	85.3100
 1.1800	85.4700
 1.1840	85.6300
 1.1880	85.6800
 1.1920	85.6800
 1.1960	85.7800
 1.2000	86.0000
 1.2040	86.0000
 1.2080	86.0600
 1.2120	86.1200
 1.2160	86.2300
 1.2200	86.1200
 1.2240	86.4000
 1.2280	86.2900
 1.2320	86.4600
 1.2360	86.4600
 1.2400	86.5200
 1.2440	86.4600
 1.2480	86.7500
 1.2520	86.5200
 1.2560	86.7400
 1.2600	86.6100
 1.2640	86.7800
 1.2680	86.5400
 1.2720	86.3700
 1.2760	86.1300
 1.2800	86.4100
 1.2840	86.6300
 1.2880	86.8500
 1.2920	86.7900
 1.2960	86.7800
 1.3000	86.8300
 1.3040	86.9400
 1.3080	86.9800
 1.3120	87.1000
 1.3160	87.0300
 1.3200	86.9600
 1.3240	86.9000
 1.3280	87.0600
 1.3320	87.0100
 1.3360	87.0600
 1.3400	87.1100
 1.3440	87.1000
 1.3480	87.1400
 1.3520	87.1400
 1.3560	87.2000
 1.3600	87.1400
 1.3640	87.1400
 1.3680	87.0900
 1.3720	87.2000
 1.3760	87.0300
 1.3800	86.6800
 1.3840	83.7300
 1.3880	77.7500
 1.3920	72.9100
 1.3960	74.6700
 1.4000	79.6300
 1.4040	84.1900
 1.4080	86.1900
 1.4120	86.8800
 1.4160	86.8900
 1.4200	87.1200
 1.4240	87.0700
 1.4280	87.0800
 1.4320	87.1400
 1.4360	87.2600
 1.4400	87.1600
 1.4440	87.2200
 1.4480	87.1800
 1.4520	87.3500
 1.4560	87.4100
 1.4600	87.2900
 1.4640	87.3500
 1.4680	87.4100
 1.4720	87.4100
 1.4760	87.5100
 1.4800	87.4500
 1.4840	87.5700
 1.4880	87.6300
 1.4920	87.5100
 1.4960	87.6300
 1.5000	87.6800
 1.5040	87.5700
 1.5080	87.8000
 1.5120	87.7400
 1.5160	87.8500
 1.5200	87.6300
 1.5240	87.7400
 1.5280	87.6800
 1.5320	87.6300
 1.5360	87.5100
 1.5400	87.6300
 1.5440	87.6300
 1.5480	87.8000
 1.5520	87.7400
 1.5560	87.6800
 1.5600	87.8000
 1.5640	87.9100
 1.5680	87.7400
 1.5720	87.8500
 1.5760	87.7400
 1.5800	87.8500
 1.5840	87.7400
 1.5880	87.8500
 1.5920	87.7400
 1.5960	87.7400
 1.6000	87.7400
 1.6040	87.9000
 1.6080	87.8300
 1.6120	87.8900
 1.6160	87.7200
 1.6200	87.7100
 1.6240	87.6400
 1.6280	87.8000
 1.6320	87.6900
 1.6360	87.8500
 1.6400	87.6700
 1.6440	87.8300
 1.6480	87.7100
 1.6520	87.8200
 1.6560	87.7500
 1.6600	87.7500
 1.6640	87.6900
 1.6680	87.7900
 1.6720	87.6800
 1.6760	87.8400
 1.6800	87.6000
 1.6840	87.7600
 1.6880	87.6400
 1.6920	87.8100
 1.6960	87.6300
 1.7000	87.7900
 1.7040	87.6700
 1.7080	87.7900
 1.7120	87.6700
 1.7160	87.6700
 1.7200	87.7300
 1.7240	87.7300
 1.7280	87.7900
 1.7320	87.6700
 1.7360	87.7300
 1.7400	87.6200
 1.7440	87.6200
 1.7480	87.6200
 1.7520	87.7900
 1.7560	87.6700
 1.7600	87.6700
 1.7640	87.6200
 1.7680	87.6200
 1.7720	87.4600
 1.7760	87.6200
 1.7800	87.4600
 1.7840	87.6200
 1.7880	87.5100
 1.7920	87.6200
 1.7960	87.4600
 1.8000	87.4600
 1.8040	87.4300
 1.8080	87.5100
 1.8120	87.3100
 1.8160	87.3400
 1.8200	87.2000
 1.8240	87.1700
 1.8280	87.0800
 1.8320	86.8800
 1.8360	87.0200
 1.8400	86.8900
 1.8440	87.0300
 1.8480	86.8900
 1.8520	87.0400
 1.8560	86.8100
 1.8600	86.8000
 1.8640	86.6200
 1.8680	86.5600
 1.8720	86.5000
 1.8760	86.4300
 1.8800	86.1400
 1.8840	86.0200
 1.8880	85.8400
 1.8920	85.7800
 1.8960	85.3800
 1.9000	85.2500
 1.9040	85.0800
 1.9080	85.1300
 1.9120	84.9600
 1.9160	85.1200
 1.9200	85.1100
 1.9240	85.2100
 1.9280	85.1500
 1.9320	85.2600
 1.9360	85.0800
 1.9400	85.3600
 1.9440	85.2900
 1.9480	85.3900
 1.9520	85.4400
 1.9560	85.5800
 1.9600	85.5200
 1.9640	85.5500
 1.9680	85.5800
 1.9720	85.6200
 1.9760	85.4300
 1.9800	85.5800
 1.9840	85.7900
 1.9880	85.7000
 1.9920	85.5800
 1.9960	85.4900
 2.0000	85.5300
 2.0040	85.4000
 2.0080	85.3900
 2.0120	85.3400
 2.0160	85.4100
 2.0200	85.4400
 2.0240	85.4800
 2.0280	85.6300
 2.0320	85.7500
 2.0360	85.7200
 2.0400	85.6800
 2.0440	85.5500
 2.0480	85.4300
 2.0520	85.2700
 2.0560	84.9500
 2.0600	84.6300
 2.0640	84.2100
 2.0680	83.8300
 2.0720	83.4700
 2.0760	83.3300
 2.0800	82.9500
 2.0840	83.0900
 2.0880	83.1700
 2.0920	83.2400
 2.0960	83.3700
 2.1000	83.5100
 2.1040	83.3600
 2.1080	83.3800
 2.1120	83.2900
 2.1160	83.3700
 2.1200	83.1100
 2.1240	82.9300
 2.1280	82.8600
 2.1320	82.8800
 2.1360	82.8800
 2.1400	82.8800
 2.1440	83.2000
 2.1480	83.2800
 2.1520	83.4500
 2.1560	83.3000
 2.1600	83.3700
 2.1640	83.3500
 2.1680	83.2900
 2.1720	83.1700
 2.1760	83.2700
 2.1800	83.4300
 2.1840	83.5000
 2.1880	83.6900
 2.1920	83.6400
 2.1960	83.9900
 2.2000	84.1700
 2.2040	83.9400
 2.2080	83.6100
 2.2120	83.5100
 2.2160	83.1000
 2.2200	82.8000
 2.2240	82.4100
 2.2280	81.9000
 2.2320	81.6600
 2.2360	81.4600
 2.2400	81.1400
 2.2440	80.9200
 2.2480	80.4100
 2.2520	79.7200
 2.2560	78.6200
 2.2600	77.1300
 2.2640	75.2800
 2.2680	73.0400
 2.2720	70.7300
 2.2760	68.2300
 2.2800	65.5200
 2.2840	62.8000
 2.2880	60.2600
 2.2920	57.7100
 2.2960	55.8700
 2.3000	54.4300
 2.3040	53.8000
 2.3080	53.8800
 2.3120	55.4200
 2.3160	57.2900
 2.3200	59.7200
 2.3240	62.2900
 2.3280	65.1800
 2.3320	67.9100
 2.3360	70.4100
 2.3400	72.3400
 2.3440	73.5400
 2.3480	73.9500
 2.3520	73.8700
 2.3560	73.1700
 2.3600	72.1900
 2.3640	70.7300
 2.3680	69.1000
 2.3720	67.4800
 2.3760	66.2100
 2.3800	65.1600
 2.3840	64.6300
 2.3880	64.2700
 2.3920	64.8100
 2.3960	65.5300
 2.4000	66.5800
 2.4040	67.6200
 2.4080	68.8300
 2.4120	69.6500
 2.4160	70.4300
 2.4200	70.9200
 2.4240	71.0700
 2.4280	71.0100
 2.4320	71.0100
 2.4360	70.6700
 2.4400	70.4500
 2.4440	70.1600
 2.4480	69.8200
 2.4520	69.5500
 2.4560	69.3700
 2.4600	69.3600
 2.4640	69.4700
 2.4680	69.5200
 2.4720	69.7400
 2.4760	69.9000
 2.4800	69.9900
 2.4840	70.1000
 2.4880	70.2000
 2.4920	70.4800
 2.4960	70.4700
 2.5000	70.4100
