Name: Labradorite (Feldspar) (NaSi,CaAl)AlSi_2O_8
Type: Mineral
Class: Silicate
Subclass: Tectosilicate
Particle Size: Coarse
Sample No.: TS-2B
Owner: JPL
Wavelength Range: VSWIR
Origin: Canada, Quebec, Lake St. John.
Collection Date: N/A
Description: Particle size was 125-500um. Collected by:  Ward's Original ASTER Spectral Library name was jpl.perkin.mineral.silicate.tectosilicate.coarse.ts02b.spectrum.txt
Measurement: Hemispherical reflectance
First Column: X
Second Column: Y
X Units: Wavelength (micrometers)
Y Units:Reflectance (percent)
First X Value:  2.5000
Last X Value:  0.4000
Number of X Values: 2101
Additional Information: mineral.silicate.tectosilicate.coarse.vswir.ts-2b.jpl.perkin.ancillary.txt

 2.5000	17.4626
 2.4990	17.0048
 2.4980	17.5869
 2.4970	17.4157
 2.4960	16.9674
 2.4950	17.3626
 2.4940	17.3175
 2.4930	17.2030
 2.4920	17.4397
 2.4910	17.1005
 2.4900	17.3591
 2.4890	17.0636
 2.4880	17.4336
 2.4870	17.0834
 2.4860	17.2441
 2.4850	17.1918
 2.4840	17.3358
 2.4830	17.1755
 2.4820	17.3970
 2.4810	17.2896
 2.4800	17.2960
 2.4790	17.3639
 2.4780	17.3845
 2.4770	17.1977
 2.4760	17.2571
 2.4750	17.1459
 2.4740	17.4007
 2.4730	17.2246
 2.4720	17.3468
 2.4710	17.2289
 2.4700	17.2689
 2.4690	17.2791
 2.4680	17.1572
 2.4670	17.2272
 2.4660	17.2125
 2.4650	17.0450
 2.4640	17.3247
 2.4630	17.2891
 2.4620	17.3384
 2.4610	17.1376
 2.4600	17.2209
 2.4590	17.2184
 2.4580	17.3626
 2.4570	17.1417
 2.4560	17.2915
 2.4550	17.3903
 2.4540	17.2724
 2.4530	17.1584
 2.4520	17.2921
 2.4510	17.0389
 2.4500	17.2078
 2.4490	17.1704
 2.4480	17.2128
 2.4470	17.0684
 2.4460	17.2915
 2.4450	17.1749
 2.4440	17.2482
 2.4430	17.1659
 2.4420	17.2680
 2.4410	17.1634
 2.4400	17.2272
 2.4390	17.1722
 2.4380	17.2685
 2.4370	17.1516
 2.4360	17.2026
 2.4350	17.2372
 2.4340	17.2883
 2.4330	17.1992
 2.4320	17.2049
 2.4310	17.2148
 2.4300	17.2254
 2.4290	17.1694
 2.4280	17.1985
 2.4270	17.1266
 2.4260	17.2154
 2.4250	17.1390
 2.4240	17.2146
 2.4230	17.2712
 2.4220	17.2978
 2.4210	17.1592
 2.4200	17.1651
 2.4190	17.1351
 2.4180	17.2782
 2.4170	17.1273
 2.4160	17.2453
 2.4150	17.2411
 2.4140	17.1960
 2.4130	17.0939
 2.4120	17.1810
 2.4110	17.1670
 2.4100	17.1444
 2.4090	17.1637
 2.4080	17.2008
 2.4070	17.2091
 2.4060	17.1621
 2.4050	17.1707
 2.4040	17.2331
 2.4030	17.1856
 2.4020	17.2206
 2.4010	17.1316
 2.4000	17.2449
 2.3990	17.2307
 2.3980	17.1758
 2.3970	17.1592
 2.3960	17.1886
 2.3950	17.1306
 2.3940	17.1783
 2.3930	17.1768
 2.3920	17.2231
 2.3910	17.1228
 2.3900	17.1642
 2.3890	17.1399
 2.3880	17.1851
 2.3870	17.1617
 2.3860	17.1137
 2.3850	17.0903
 2.3840	17.1238
 2.3830	17.1376
 2.3820	17.1600
 2.3810	17.1295
 2.3800	17.1365
 2.3790	17.1292
 2.3780	17.1239
 2.3770	17.1313
 2.3760	17.1655
 2.3750	17.1511
 2.3740	17.1300
 2.3730	17.1582
 2.3720	17.1226
 2.3710	17.0690
 2.3700	17.0968
 2.3690	17.1155
 2.3680	17.1329
 2.3670	17.0931
 2.3660	17.0828
 2.3650	17.0515
 2.3640	17.0971
 2.3630	17.1420
 2.3620	17.0409
 2.3610	16.9367
 2.3600	16.9806
 2.3590	17.0153
 2.3580	17.0407
 2.3570	17.0284
 2.3560	17.0405
 2.3550	17.0328
 2.3540	17.0297
 2.3530	17.0514
 2.3520	17.0239
 2.3510	16.9693
 2.3500	16.9141
 2.3490	16.9383
 2.3480	16.9115
 2.3470	16.8587
 2.3460	16.8676
 2.3450	16.9306
 2.3440	16.9633
 2.3430	16.9406
 2.3420	16.9044
 2.3410	16.9253
 2.3400	16.9478
 2.3390	16.9279
 2.3380	16.9016
 2.3370	16.8831
 2.3360	16.8270
 2.3350	16.8397
 2.3340	16.8437
 2.3330	16.8495
 2.3320	16.8362
 2.3310	16.9099
 2.3300	16.8467
 2.3290	16.8472
 2.3280	16.8475
 2.3270	16.8690
 2.3260	16.8415
 2.3250	16.8576
 2.3240	16.8427
 2.3230	16.8275
 2.3220	16.7819
 2.3210	16.8236
 2.3200	16.7967
 2.3190	16.7592
 2.3180	16.7701
 2.3170	16.8357
 2.3160	16.8307
 2.3150	16.7927
 2.3140	16.7994
 2.3130	16.8538
 2.3120	16.7897
 2.3110	16.7886
 2.3100	16.8372
 2.3090	16.8414
 2.3080	16.7898
 2.3070	16.8699
 2.3060	16.8658
 2.3050	16.8603
 2.3040	16.8196
 2.3030	16.8859
 2.3020	16.8287
 2.3010	16.7829
 2.3000	16.8239
 2.2990	16.8981
 2.2980	16.7943
 2.2970	16.8078
 2.2960	16.7764
 2.2950	16.8813
 2.2940	16.7978
 2.2930	16.8101
 2.2920	16.7183
 2.2910	16.7904
 2.2900	16.7823
 2.2890	16.8331
 2.2880	16.7476
 2.2870	16.8709
 2.2860	16.7023
 2.2850	16.8114
 2.2840	16.8269
 2.2830	16.8085
 2.2820	16.7536
 2.2810	16.7894
 2.2800	16.7440
 2.2790	16.6920
 2.2780	16.7356
 2.2770	16.7689
 2.2760	16.7234
 2.2750	16.6962
 2.2740	16.6866
 2.2730	16.6791
 2.2720	16.6447
 2.2710	16.6979
 2.2700	16.6875
 2.2690	16.6865
 2.2680	16.6413
 2.2670	16.7402
 2.2660	16.6129
 2.2650	16.6839
 2.2640	16.6341
 2.2630	16.6517
 2.2620	16.6437
 2.2610	16.6186
 2.2600	16.5685
 2.2590	16.6058
 2.2580	16.5576
 2.2570	16.6102
 2.2560	16.5920
 2.2550	16.6495
 2.2540	16.5422
 2.2530	16.6214
 2.2520	16.5233
 2.2510	16.5913
 2.2500	16.4817
 2.2490	16.6046
 2.2480	16.6002
 2.2470	16.5374
 2.2460	16.5052
 2.2450	16.5282
 2.2440	16.5327
 2.2430	16.6142
 2.2420	16.4501
 2.2410	16.5546
 2.2400	16.4570
 2.2390	16.5240
 2.2380	16.5090
 2.2370	16.5502
 2.2360	16.5036
 2.2350	16.5495
 2.2340	16.4734
 2.2330	16.5545
 2.2320	16.4249
 2.2310	16.5539
 2.2300	16.4011
 2.2290	16.5543
 2.2280	16.4017
 2.2270	16.4774
 2.2260	16.4495
 2.2250	16.4439
 2.2240	16.3959
 2.2230	16.4871
 2.2220	16.4212
 2.2210	16.4849
 2.2200	16.3696
 2.2190	16.4405
 2.2180	16.3426
 2.2170	16.4367
 2.2160	16.3317
 2.2150	16.4034
 2.2140	16.2194
 2.2130	16.3305
 2.2120	16.3365
 2.2110	16.1975
 2.2100	16.2696
 2.2090	16.3793
 2.2080	16.3504
 2.2070	16.4092
 2.2060	16.2825
 2.2050	16.2570
 2.2040	16.2567
 2.2030	16.3376
 2.2020	16.3427
 2.2010	16.3518
 2.2000	16.3380
 2.1990	16.2885
 2.1980	16.3147
 2.1970	16.3447
 2.1960	16.2811
 2.1950	16.3222
 2.1940	16.2173
 2.1930	16.3556
 2.1920	16.2964
 2.1910	16.2949
 2.1900	16.2777
 2.1890	16.3804
 2.1880	16.2981
 2.1870	16.3845
 2.1860	16.3799
 2.1850	16.3640
 2.1840	16.2561
 2.1830	16.3432
 2.1820	16.3484
 2.1810	16.3045
 2.1800	16.3503
 2.1790	16.3948
 2.1780	16.2978
 2.1770	16.4394
 2.1760	16.4334
 2.1750	16.4044
 2.1740	16.3919
 2.1730	16.4239
 2.1720	16.3836
 2.1710	16.4454
 2.1700	16.4479
 2.1690	16.3809
 2.1680	16.4148
 2.1670	16.4667
 2.1660	16.4225
 2.1650	16.4437
 2.1640	16.5176
 2.1630	16.5044
 2.1620	16.4254
 2.1610	16.4010
 2.1600	16.4260
 2.1590	16.5212
 2.1580	16.3658
 2.1570	16.4799
 2.1560	16.4072
 2.1550	16.4400
 2.1540	16.4337
 2.1530	16.4989
 2.1520	16.4531
 2.1510	16.4866
 2.1500	16.4513
 2.1490	16.5154
 2.1480	16.4508
 2.1470	16.4190
 2.1460	16.3755
 2.1450	16.4229
 2.1440	16.3788
 2.1430	16.4884
 2.1420	16.4422
 2.1410	16.4541
 2.1400	16.4370
 2.1390	16.4439
 2.1380	16.3911
 2.1370	16.4326
 2.1360	16.3942
 2.1350	16.4419
 2.1340	16.3795
 2.1330	16.4281
 2.1320	16.4007
 2.1310	16.3363
 2.1300	16.3555
 2.1290	16.3127
 2.1280	16.3055
 2.1270	16.3339
 2.1260	16.3213
 2.1250	16.2907
 2.1240	16.2315
 2.1230	16.2577
 2.1220	16.2600
 2.1210	16.3114
 2.1200	16.2511
 2.1190	16.2627
 2.1180	16.1944
 2.1170	16.2307
 2.1160	16.1767
 2.1150	16.1761
 2.1140	16.1368
 2.1130	16.1629
 2.1120	16.1738
 2.1110	16.2369
 2.1100	16.1195
 2.1090	16.1186
 2.1080	16.1110
 2.1070	16.1049
 2.1060	16.0908
 2.1050	16.0805
 2.1040	16.0860
 2.1030	16.0586
 2.1020	16.0787
 2.1010	16.0921
 2.1000	16.0178
 2.0990	16.0227
 2.0980	16.0269
 2.0970	16.0303
 2.0960	15.9854
 2.0950	16.0455
 2.0940	16.0192
 2.0930	16.0583
 2.0920	16.0586
 2.0910	16.0103
 2.0900	15.9788
 2.0890	16.0054
 2.0880	16.0040
 2.0870	16.0420
 2.0860	16.0630
 2.0850	16.0399
 2.0840	15.9803
 2.0830	15.9801
 2.0820	16.0019
 2.0810	16.0216
 2.0800	16.0133
 2.0790	15.9686
 2.0780	15.9448
 2.0770	15.9370
 2.0760	15.9970
 2.0750	16.0211
 2.0740	15.9729
 2.0730	15.9479
 2.0720	15.9613
 2.0710	16.0145
 2.0700	16.0100
 2.0690	15.9448
 2.0680	15.9731
 2.0670	16.0047
 2.0660	15.9740
 2.0650	15.9862
 2.0640	16.0013
 2.0630	15.9877
 2.0620	15.9739
 2.0610	15.9394
 2.0600	15.9117
 2.0590	15.9279
 2.0580	15.9453
 2.0570	15.9383
 2.0560	15.9872
 2.0550	15.9478
 2.0540	15.9497
 2.0530	15.9642
 2.0520	15.9520
 2.0510	15.9157
 2.0500	15.8906
 2.0490	15.9173
 2.0480	16.0073
 2.0470	15.9753
 2.0460	15.9057
 2.0450	15.8652
 2.0440	15.8918
 2.0430	15.8837
 2.0420	15.9135
 2.0410	15.9130
 2.0400	15.8772
 2.0390	15.8487
 2.0380	15.8716
 2.0370	15.8635
 2.0360	15.8999
 2.0350	15.8571
 2.0340	15.8446
 2.0330	15.8156
 2.0320	15.8178
 2.0310	15.7925
 2.0300	15.7937
 2.0290	15.8333
 2.0280	15.8595
 2.0270	15.8237
 2.0260	15.8504
 2.0250	15.8070
 2.0240	15.8400
 2.0230	15.7876
 2.0220	15.7543
 2.0210	15.6827
 2.0200	15.7456
 2.0190	15.7326
 2.0180	15.7601
 2.0170	15.7509
 2.0160	15.7690
 2.0150	15.6825
 2.0140	15.7831
 2.0130	15.7202
 2.0120	15.7182
 2.0110	15.6618
 2.0100	15.7177
 2.0090	15.6589
 2.0080	15.7231
 2.0070	15.7279
 2.0060	15.6862
 2.0050	15.6069
 2.0040	15.6566
 2.0030	15.6316
 2.0020	15.6058
 2.0010	15.6003
 2.0000	15.6667
 1.9990	15.5893
 1.9980	15.6049
 1.9970	15.6157
 1.9960	15.6695
 1.9950	15.5614
 1.9940	15.5403
 1.9930	15.5330
 1.9920	15.5721
 1.9910	15.4925
 1.9900	15.6200
 1.9890	15.4448
 1.9880	15.4930
 1.9870	15.3993
 1.9860	15.5304
 1.9850	15.4752
 1.9840	15.4806
 1.9830	15.4156
 1.9820	15.4249
 1.9810	15.4166
 1.9800	15.3541
 1.9790	15.4427
 1.9780	15.4405
 1.9770	15.3476
 1.9760	15.4317
 1.9750	15.3177
 1.9740	15.4507
 1.9730	15.4462
 1.9720	15.3474
 1.9710	15.3164
 1.9700	15.3979
 1.9690	15.2969
 1.9680	15.3765
 1.9670	15.2760
 1.9660	15.3710
 1.9650	15.2551
 1.9640	15.3429
 1.9630	15.2866
 1.9620	15.2254
 1.9610	15.1920
 1.9600	15.2392
 1.9590	15.1849
 1.9580	15.2562
 1.9570	15.1679
 1.9560	15.2537
 1.9550	15.1746
 1.9540	15.2190
 1.9530	15.2102
 1.9520	15.2631
 1.9510	15.0977
 1.9500	15.1508
 1.9490	15.1140
 1.9480	15.1776
 1.9470	15.0759
 1.9460	15.1981
 1.9450	15.0794
 1.9440	15.1488
 1.9430	14.9898
 1.9420	15.1201
 1.9410	15.0227
 1.9400	15.0741
 1.9390	15.0018
 1.9380	15.0630
 1.9370	15.0470
 1.9360	14.9760
 1.9350	14.9813
 1.9340	15.0298
 1.9330	14.9056
 1.9320	14.9853
 1.9310	15.0041
 1.9300	15.0247
 1.9290	14.9016
 1.9280	15.0201
 1.9270	15.0464
 1.9260	14.8139
 1.9250	14.9194
 1.9240	14.9356
 1.9230	14.8114
 1.9220	14.9136
 1.9210	14.8368
 1.9200	14.9466
 1.9190	14.8189
 1.9180	14.9014
 1.9170	14.8500
 1.9160	14.8840
 1.9150	14.7754
 1.9140	14.9966
 1.9130	14.8414
 1.9120	14.9552
 1.9110	14.8232
 1.9100	14.9755
 1.9090	14.8816
 1.9080	14.9732
 1.9070	14.9254
 1.9060	14.9245
 1.9050	14.8865
 1.9040	14.9467
 1.9030	14.8823
 1.9020	14.9877
 1.9010	14.9565
 1.9000	14.9814
 1.8990	14.9595
 1.8980	15.1283
 1.8970	15.0115
 1.8960	15.0832
 1.8950	15.0847
 1.8940	15.1248
 1.8930	15.1518
 1.8920	15.1550
 1.8910	15.1041
 1.8900	15.1140
 1.8890	15.0859
 1.8880	15.2056
 1.8870	15.2025
 1.8860	15.2729
 1.8850	15.1731
 1.8840	15.1678
 1.8830	15.1458
 1.8820	15.2141
 1.8810	15.2216
 1.8800	15.2068
 1.8790	15.1648
 1.8780	15.1985
 1.8770	15.1754
 1.8760	15.2034
 1.8750	15.1370
 1.8740	15.1349
 1.8730	15.1176
 1.8720	15.1713
 1.8710	15.1203
 1.8700	15.1151
 1.8690	15.0973
 1.8680	15.2033
 1.8670	15.1337
 1.8660	15.1977
 1.8650	15.1542
 1.8640	15.1740
 1.8630	15.1701
 1.8620	15.2312
 1.8610	15.2007
 1.8600	15.2212
 1.8590	15.1407
 1.8580	15.1211
 1.8570	15.1826
 1.8560	15.1431
 1.8550	15.1424
 1.8540	15.1571
 1.8530	15.1341
 1.8520	15.1715
 1.8510	15.1520
 1.8500	15.1492
 1.8490	15.1120
 1.8480	15.1640
 1.8470	15.1270
 1.8460	15.1099
 1.8450	15.1268
 1.8440	15.1160
 1.8430	15.0931
 1.8420	15.1560
 1.8410	15.1110
 1.8400	15.1428
 1.8390	15.1018
 1.8380	15.1037
 1.8370	15.0790
 1.8360	15.1058
 1.8350	15.0755
 1.8340	15.0874
 1.8330	15.0407
 1.8320	15.0522
 1.8310	15.0212
 1.8300	15.0744
 1.8290	15.0794
 1.8280	15.1617
 1.8270	15.0965
 1.8260	15.0798
 1.8250	15.0642
 1.8240	15.1229
 1.8230	15.0762
 1.8220	15.1286
 1.8210	15.0935
 1.8200	15.0934
 1.8190	15.0600
 1.8180	15.1002
 1.8170	15.0536
 1.8160	15.0257
 1.8150	15.0601
 1.8140	15.0998
 1.8130	15.0485
 1.8120	14.9951
 1.8110	14.9887
 1.8100	15.0622
 1.8090	15.0710
 1.8080	15.0387
 1.8070	14.9766
 1.8060	15.0098
 1.8050	15.0184
 1.8040	15.0539
 1.8030	15.0499
 1.8020	15.0424
 1.8010	15.0152
 1.8000	15.0364
 1.7990	14.9864
 1.7980	14.9725
 1.7970	15.0032
 1.7960	15.0289
 1.7950	14.9614
 1.7940	14.9231
 1.7930	14.9900
 1.7920	14.9948
 1.7910	14.9617
 1.7900	14.9621
 1.7890	14.9401
 1.7880	14.9435
 1.7870	14.9659
 1.7860	14.9948
 1.7850	14.9430
 1.7840	14.8936
 1.7830	14.9210
 1.7820	14.9128
 1.7810	14.8799
 1.7800	14.9084
 1.7790	14.9399
 1.7780	14.9014
 1.7770	14.8917
 1.7760	14.8834
 1.7750	14.8777
 1.7740	14.8799
 1.7730	14.8690
 1.7720	14.8557
 1.7710	14.8823
 1.7700	14.8402
 1.7690	14.8377
 1.7680	14.8352
 1.7670	14.8104
 1.7660	14.8399
 1.7650	14.8777
 1.7640	14.8790
 1.7630	14.8615
 1.7620	14.8065
 1.7610	14.8344
 1.7600	14.7910
 1.7590	14.7984
 1.7580	14.8358
 1.7570	14.8763
 1.7560	14.8838
 1.7550	14.8277
 1.7540	14.8185
 1.7530	14.8091
 1.7520	14.8137
 1.7510	14.7959
 1.7500	14.8168
 1.7490	14.8625
 1.7480	14.7531
 1.7470	14.7699
 1.7460	14.7683
 1.7450	14.8070
 1.7440	14.7856
 1.7430	14.7698
 1.7420	14.7886
 1.7410	14.8601
 1.7400	14.8374
 1.7390	14.8220
 1.7380	14.7615
 1.7370	14.7672
 1.7360	14.7870
 1.7350	14.8058
 1.7340	14.7182
 1.7330	14.7254
 1.7320	14.7645
 1.7310	14.7863
 1.7300	14.7767
 1.7290	14.7994
 1.7280	14.7473
 1.7270	14.7635
 1.7260	14.7412
 1.7250	14.7603
 1.7240	14.7195
 1.7230	14.7500
 1.7220	14.7135
 1.7210	14.8091
 1.7200	14.8096
 1.7190	14.7457
 1.7180	14.6623
 1.7170	14.7586
 1.7160	14.6497
 1.7150	14.7164
 1.7140	14.6280
 1.7130	14.7526
 1.7120	14.7221
 1.7110	14.7075
 1.7100	14.6837
 1.7090	14.7276
 1.7080	14.7394
 1.7070	14.6802
 1.7060	14.6439
 1.7050	14.7328
 1.7040	14.6519
 1.7030	14.7125
 1.7020	14.6516
 1.7010	14.6786
 1.7000	14.6543
 1.6990	14.7143
 1.6980	14.6914
 1.6970	14.7167
 1.6960	14.6630
 1.6950	14.6835
 1.6940	14.6279
 1.6930	14.6951
 1.6920	14.6981
 1.6910	14.7189
 1.6900	14.6677
 1.6890	14.6726
 1.6880	14.5884
 1.6870	14.7368
 1.6860	14.6344
 1.6850	14.6301
 1.6840	14.5512
 1.6830	14.6226
 1.6820	14.5604
 1.6810	14.7322
 1.6800	14.5784
 1.6790	14.6006
 1.6780	14.5332
 1.6770	14.6035
 1.6760	14.5978
 1.6750	14.6131
 1.6740	14.5407
 1.6730	14.6968
 1.6720	14.5307
 1.6710	14.6113
 1.6700	14.5182
 1.6690	14.7201
 1.6680	14.4369
 1.6670	14.6764
 1.6660	14.5012
 1.6650	14.6682
 1.6640	14.6407
 1.6630	14.6622
 1.6620	14.5541
 1.6610	14.6479
 1.6600	14.5959
 1.6590	14.6891
 1.6580	14.4535
 1.6570	14.5535
 1.6560	14.5070
 1.6550	14.6298
 1.6540	14.4948
 1.6530	14.6169
 1.6520	14.6005
 1.6510	14.5811
 1.6500	14.5448
 1.6490	14.5979
 1.6480	14.5166
 1.6470	14.6206
 1.6460	14.5429
 1.6450	14.5221
 1.6440	14.6214
 1.6430	14.4863
 1.6420	14.5689
 1.6410	14.4545
 1.6400	14.5335
 1.6390	14.5471
 1.6380	14.4920
 1.6370	14.5294
 1.6360	14.5668
 1.6350	14.5638
 1.6340	14.5110
 1.6330	14.5186
 1.6320	14.3805
 1.6310	14.5075
 1.6300	14.4535
 1.6290	14.4686
 1.6280	14.4756
 1.6270	14.5251
 1.6260	14.5079
 1.6250	14.5052
 1.6240	14.4491
 1.6230	14.5132
 1.6220	14.4177
 1.6210	14.4837
 1.6200	14.4367
 1.6190	14.5426
 1.6180	14.4669
 1.6170	14.5354
 1.6160	14.5290
 1.6150	14.5536
 1.6140	14.4856
 1.6130	14.4896
 1.6120	14.3889
 1.6110	14.5131
 1.6100	14.4077
 1.6090	14.5015
 1.6080	14.5524
 1.6070	14.5174
 1.6060	14.4527
 1.6050	14.4725
 1.6040	14.4219
 1.6030	14.4304
 1.6020	14.4781
 1.6010	14.4814
 1.6000	14.4875
 1.5990	14.4961
 1.5980	14.4701
 1.5970	14.4879
 1.5960	14.4236
 1.5950	14.4685
 1.5940	14.4201
 1.5930	14.5063
 1.5920	14.4524
 1.5910	14.3818
 1.5900	14.4297
 1.5890	14.4827
 1.5880	14.4727
 1.5870	14.4153
 1.5860	14.3600
 1.5850	14.4666
 1.5840	14.3348
 1.5830	14.4956
 1.5820	14.3977
 1.5810	14.4124
 1.5800	14.4086
 1.5790	14.4363
 1.5780	14.4261
 1.5770	14.4761
 1.5760	14.3750
 1.5750	14.4736
 1.5740	14.4167
 1.5730	14.4413
 1.5720	14.4514
 1.5710	14.4202
 1.5700	14.4198
 1.5690	14.4296
 1.5680	14.3679
 1.5670	14.4208
 1.5660	14.3329
 1.5650	14.4183
 1.5640	14.4599
 1.5630	14.4610
 1.5620	14.4342
 1.5610	14.4001
 1.5600	14.3782
 1.5590	14.3843
 1.5580	14.4182
 1.5570	14.4201
 1.5560	14.3255
 1.5550	14.4118
 1.5540	14.4651
 1.5530	14.4658
 1.5520	14.3767
 1.5510	14.3797
 1.5500	14.3777
 1.5490	14.3977
 1.5480	14.3998
 1.5470	14.4075
 1.5460	14.3429
 1.5450	14.4154
 1.5440	14.3816
 1.5430	14.4309
 1.5420	14.4101
 1.5410	14.3924
 1.5400	14.4083
 1.5390	14.4755
 1.5380	14.4185
 1.5370	14.3393
 1.5360	14.3558
 1.5350	14.3807
 1.5340	14.3498
 1.5330	14.3992
 1.5320	14.3749
 1.5310	14.3595
 1.5300	14.3528
 1.5290	14.3524
 1.5280	14.3177
 1.5270	14.3954
 1.5260	14.4411
 1.5250	14.4033
 1.5240	14.3712
 1.5230	14.3477
 1.5220	14.3436
 1.5210	14.3643
 1.5200	14.3740
 1.5190	14.4011
 1.5180	14.3797
 1.5170	14.3889
 1.5160	14.3843
 1.5150	14.4031
 1.5140	14.3934
 1.5130	14.3498
 1.5120	14.3410
 1.5110	14.3663
 1.5100	14.3707
 1.5090	14.3357
 1.5080	14.2824
 1.5070	14.3465
 1.5060	14.3570
 1.5050	14.3427
 1.5040	14.3474
 1.5030	14.3167
 1.5020	14.3581
 1.5010	14.3304
 1.5000	14.2944
 1.4990	14.3561
 1.4980	14.4100
 1.4970	14.4005
 1.4960	14.3564
 1.4950	14.3401
 1.4940	14.3600
 1.4930	14.3231
 1.4920	14.3463
 1.4910	14.3511
 1.4900	14.3792
 1.4890	14.3815
 1.4880	14.3178
 1.4870	14.3683
 1.4860	14.3471
 1.4850	14.3325
 1.4840	14.3935
 1.4830	14.3144
 1.4820	14.2980
 1.4810	14.3306
 1.4800	14.3021
 1.4790	14.3375
 1.4780	14.3881
 1.4770	14.3730
 1.4760	14.3910
 1.4750	14.3199
 1.4740	14.3342
 1.4730	14.3322
 1.4720	14.3690
 1.4710	14.3261
 1.4700	14.2967
 1.4690	14.3483
 1.4680	14.3703
 1.4670	14.3213
 1.4660	14.3814
 1.4650	14.3392
 1.4640	14.2931
 1.4630	14.2959
 1.4620	14.3453
 1.4610	14.2987
 1.4600	14.2973
 1.4590	14.3027
 1.4580	14.3759
 1.4570	14.3546
 1.4560	14.3643
 1.4550	14.3711
 1.4540	14.4288
 1.4530	14.3723
 1.4520	14.3675
 1.4510	14.3028
 1.4500	14.2977
 1.4490	14.2848
 1.4480	14.3807
 1.4470	14.3431
 1.4460	14.3652
 1.4450	14.3704
 1.4440	14.3750
 1.4430	14.2940
 1.4420	14.3513
 1.4410	14.3828
 1.4400	14.3530
 1.4390	14.3049
 1.4380	14.3260
 1.4370	14.3192
 1.4360	14.3402
 1.4350	14.3082
 1.4340	14.3800
 1.4330	14.2757
 1.4320	14.2718
 1.4310	14.3280
 1.4300	14.3190
 1.4290	14.2537
 1.4280	14.2994
 1.4270	14.2981
 1.4260	14.3060
 1.4250	14.2539
 1.4240	14.2370
 1.4230	14.2404
 1.4220	14.2442
 1.4210	14.2264
 1.4200	14.2947
 1.4190	14.1731
 1.4180	14.2676
 1.4170	14.2509
 1.4160	14.2373
 1.4150	14.2740
 1.4140	14.2054
 1.4130	14.2032
 1.4120	14.2639
 1.4110	14.2698
 1.4100	14.2450
 1.4090	14.1643
 1.4080	14.1923
 1.4070	14.1671
 1.4060	14.1725
 1.4050	14.1864
 1.4040	14.1961
 1.4030	14.2437
 1.4020	14.3526
 1.4010	14.2181
 1.4000	14.2938
 1.3990	14.2699
 1.3980	14.3255
 1.3970	14.2658
 1.3960	14.3878
 1.3950	14.3466
 1.3940	14.4156
 1.3930	14.2675
 1.3920	14.3638
 1.3910	14.4700
 1.3900	14.5101
 1.3890	14.4092
 1.3880	14.4609
 1.3870	14.3292
 1.3860	14.5182
 1.3850	14.3941
 1.3840	14.4948
 1.3830	14.3879
 1.3820	14.4246
 1.3810	14.3828
 1.3800	14.5041
 1.3790	14.4727
 1.3780	14.5439
 1.3770	14.4807
 1.3760	14.5866
 1.3750	14.4631
 1.3740	14.5488
 1.3730	14.4929
 1.3720	14.5668
 1.3710	14.4702
 1.3700	14.4795
 1.3690	14.4481
 1.3680	14.5431
 1.3670	14.5009
 1.3660	14.5861
 1.3650	14.4119
 1.3640	14.5736
 1.3630	14.5062
 1.3620	14.5814
 1.3610	14.4667
 1.3600	14.6019
 1.3590	14.4660
 1.3580	14.6294
 1.3570	14.5439
 1.3560	14.6247
 1.3550	14.3964
 1.3540	14.5742
 1.3530	14.4602
 1.3520	14.4860
 1.3510	14.5825
 1.3500	14.6641
 1.3490	14.4866
 1.3480	14.5409
 1.3470	14.6205
 1.3460	14.6608
 1.3450	14.6046
 1.3440	14.5135
 1.3430	14.5497
 1.3420	14.6324
 1.3410	14.5943
 1.3400	14.6454
 1.3390	14.6022
 1.3380	14.6297
 1.3370	14.5927
 1.3360	14.6446
 1.3350	14.5716
 1.3340	14.6763
 1.3330	14.5442
 1.3320	14.6563
 1.3310	14.5844
 1.3300	14.7076
 1.3290	14.5774
 1.3280	14.6703
 1.3270	14.5701
 1.3260	14.7304
 1.3250	14.6217
 1.3240	14.6701
 1.3230	14.6728
 1.3220	14.7553
 1.3210	14.6507
 1.3200	14.7148
 1.3190	14.6843
 1.3180	14.6717
 1.3170	14.5964
 1.3160	14.7376
 1.3150	14.5930
 1.3140	14.7062
 1.3130	14.5622
 1.3120	14.7649
 1.3110	14.7362
 1.3100	14.7154
 1.3090	14.6964
 1.3080	14.7317
 1.3070	14.6804
 1.3060	14.7522
 1.3050	14.6940
 1.3040	14.7132
 1.3030	14.7300
 1.3020	14.6768
 1.3010	14.7011
 1.3000	14.7394
 1.2990	14.7981
 1.2980	14.6999
 1.2970	14.7338
 1.2960	14.8100
 1.2950	14.7038
 1.2940	14.7816
 1.2930	14.7735
 1.2920	14.7789
 1.2910	14.7093
 1.2900	14.7655
 1.2890	14.7351
 1.2880	14.8213
 1.2870	14.7462
 1.2860	14.8101
 1.2850	14.7571
 1.2840	14.8097
 1.2830	14.8225
 1.2820	14.7940
 1.2810	14.7970
 1.2800	14.8163
 1.2790	14.7955
 1.2780	14.8530
 1.2770	14.8412
 1.2760	14.8627
 1.2750	14.8321
 1.2740	14.8779
 1.2730	14.8379
 1.2720	14.8582
 1.2710	14.9519
 1.2700	14.9055
 1.2690	14.8340
 1.2680	14.8527
 1.2670	14.8563
 1.2660	14.9022
 1.2650	14.8563
 1.2640	14.9279
 1.2630	14.9040
 1.2620	14.9391
 1.2610	14.9043
 1.2600	14.9753
 1.2590	14.9406
 1.2580	14.9414
 1.2570	14.9520
 1.2560	14.9272
 1.2550	14.9116
 1.2540	14.9890
 1.2530	14.9796
 1.2520	14.9589
 1.2510	14.9618
 1.2500	14.9334
 1.2490	14.9605
 1.2480	15.0526
 1.2470	15.0104
 1.2460	15.0276
 1.2450	15.0041
 1.2440	14.9889
 1.2430	14.9772
 1.2420	15.0058
 1.2410	14.9057
 1.2400	14.9948
 1.2390	15.0678
 1.2380	15.0513
 1.2370	15.0778
 1.2360	15.0847
 1.2350	15.0940
 1.2340	15.1084
 1.2330	15.0611
 1.2320	15.0829
 1.2310	15.0574
 1.2300	15.0541
 1.2290	15.1014
 1.2280	15.1510
 1.2270	15.1356
 1.2260	15.1626
 1.2250	15.1716
 1.2240	15.1619
 1.2230	15.1392
 1.2220	15.1885
 1.2210	15.1316
 1.2200	15.1182
 1.2190	15.1607
 1.2180	15.1730
 1.2170	15.1593
 1.2160	15.1560
 1.2150	15.1682
 1.2140	15.1576
 1.2130	15.1793
 1.2120	15.2016
 1.2110	15.2012
 1.2100	15.2397
 1.2090	15.2411
 1.2080	15.2332
 1.2070	15.2718
 1.2060	15.2909
 1.2050	15.3272
 1.2040	15.2823
 1.2030	15.2775
 1.2020	15.3074
 1.2010	15.3119
 1.2000	15.3359
 1.1990	15.3312
 1.1980	15.3269
 1.1970	15.3542
 1.1960	15.3045
 1.1950	15.3125
 1.1940	15.2964
 1.1930	15.3421
 1.1920	15.3842
 1.1910	15.4333
 1.1900	15.4251
 1.1890	15.4394
 1.1880	15.3075
 1.1870	15.4299
 1.1860	15.4841
 1.1850	15.4551
 1.1840	15.4064
 1.1830	15.4756
 1.1820	15.4843
 1.1810	15.4862
 1.1800	15.4857
 1.1790	15.4905
 1.1780	15.5327
 1.1770	15.4970
 1.1760	15.5178
 1.1750	15.5732
 1.1740	15.5619
 1.1730	15.5710
 1.1720	15.5440
 1.1710	15.5559
 1.1700	15.5760
 1.1690	15.6052
 1.1680	15.5756
 1.1670	15.5884
 1.1660	15.5710
 1.1650	15.6392
 1.1640	15.6674
 1.1630	15.6440
 1.1620	15.6191
 1.1610	15.6401
 1.1600	15.5974
 1.1590	15.6948
 1.1580	15.7359
 1.1570	15.7377
 1.1560	15.7180
 1.1550	15.7542
 1.1540	15.7112
 1.1530	15.7374
 1.1520	15.7662
 1.1510	15.7905
 1.1500	15.7323
 1.1490	15.8068
 1.1480	15.8017
 1.1470	15.8067
 1.1460	15.7690
 1.1450	15.7706
 1.1440	15.7919
 1.1430	15.8715
 1.1420	15.8059
 1.1410	15.8876
 1.1400	15.8803
 1.1390	15.9481
 1.1380	15.8930
 1.1370	15.8673
 1.1360	15.8950
 1.1350	15.9693
 1.1340	15.9343
 1.1330	16.0171
 1.1320	15.9551
 1.1310	16.0267
 1.1300	16.0065
 1.1290	15.9866
 1.1280	16.0159
 1.1270	16.1180
 1.1260	15.9862
 1.1250	16.0523
 1.1240	16.1366
 1.1230	16.1427
 1.1220	16.1484
 1.1210	16.1001
 1.1200	16.0751
 1.1190	16.1574
 1.1180	16.1038
 1.1170	16.2344
 1.1160	16.1747
 1.1150	16.1607
 1.1140	16.1983
 1.1130	16.2347
 1.1120	16.1910
 1.1110	16.2932
 1.1100	16.2118
 1.1090	16.2798
 1.1080	16.2250
 1.1070	16.3146
 1.1060	16.2812
 1.1050	16.3019
 1.1040	16.2699
 1.1030	16.3649
 1.1020	16.3009
 1.1010	16.3836
 1.1000	16.3069
 1.0990	16.4416
 1.0980	16.3377
 1.0970	16.4417
 1.0960	16.3794
 1.0950	16.4005
 1.0940	16.4051
 1.0930	16.5027
 1.0920	16.5320
 1.0910	16.5259
 1.0900	16.5265
 1.0890	16.5244
 1.0880	16.5114
 1.0870	16.5201
 1.0860	16.5611
 1.0850	16.6242
 1.0840	16.4368
 1.0830	16.6311
 1.0820	16.5949
 1.0810	16.6329
 1.0800	16.5453
 1.0790	16.7173
 1.0780	16.5879
 1.0770	16.6332
 1.0760	16.7066
 1.0750	16.7347
 1.0740	16.6372
 1.0730	16.8049
 1.0720	16.6599
 1.0710	16.9008
 1.0700	16.5140
 1.0690	16.8222
 1.0680	16.7112
 1.0670	16.8239
 1.0660	16.7533
 1.0650	16.8191
 1.0640	16.7577
 1.0630	16.9210
 1.0620	16.8952
 1.0610	16.8786
 1.0600	16.9306
 1.0590	16.9347
 1.0580	16.9469
 1.0570	16.9032
 1.0560	16.9362
 1.0550	16.9933
 1.0540	16.9962
 1.0530	17.0298
 1.0520	16.8979
 1.0510	17.0044
 1.0500	16.9533
 1.0490	17.0934
 1.0480	16.9991
 1.0470	17.1361
 1.0460	17.0793
 1.0450	17.1058
 1.0440	17.0705
 1.0430	17.2003
 1.0420	17.0985
 1.0410	17.2560
 1.0400	17.0752
 1.0390	17.1802
 1.0380	17.0914
 1.0370	17.2458
 1.0360	17.1622
 1.0350	17.2586
 1.0340	17.1150
 1.0330	17.3265
 1.0320	17.1706
 1.0310	17.3210
 1.0300	17.2466
 1.0290	17.2922
 1.0280	17.2805
 1.0270	17.3380
 1.0260	17.3825
 1.0250	17.4099
 1.0240	17.3447
 1.0230	17.4504
 1.0220	17.3569
 1.0210	17.3605
 1.0200	17.3408
 1.0190	17.3925
 1.0180	17.4074
 1.0170	17.4480
 1.0160	17.3696
 1.0150	17.5098
 1.0140	17.4834
 1.0130	17.5605
 1.0120	17.4383
 1.0110	17.5160
 1.0100	17.4623
 1.0090	17.5169
 1.0080	17.5823
 1.0070	17.5682
 1.0060	17.5901
 1.0050	17.6153
 1.0040	17.5982
 1.0030	17.6414
 1.0020	17.6148
 1.0010	17.6692
 1.0000	17.6255
 0.9990	17.6618
 0.9980	17.5798
 0.9970	17.6952
 0.9960	17.7185
 0.9950	17.7121
 0.9940	17.6172
 0.9930	17.7711
 0.9920	17.7382
 0.9910	17.7015
 0.9900	17.7040
 0.9890	17.7707
 0.9880	17.6693
 0.9870	17.7520
 0.9860	17.8261
 0.9850	17.7889
 0.9840	17.7802
 0.9830	17.7968
 0.9820	17.7474
 0.9810	17.8086
 0.9800	17.8321
 0.9790	17.8559
 0.9780	17.7965
 0.9770	17.9013
 0.9760	17.9019
 0.9750	17.8434
 0.9740	17.7516
 0.9730	17.8257
 0.9720	17.8073
 0.9710	17.8362
 0.9700	17.8874
 0.9690	17.8956
 0.9680	17.9163
 0.9670	17.8135
 0.9660	17.8071
 0.9650	17.9091
 0.9640	17.9458
 0.9630	17.9129
 0.9620	17.8999
 0.9610	17.9346
 0.9600	17.9377
 0.9590	17.9248
 0.9580	17.8895
 0.9570	17.9138
 0.9560	17.8786
 0.9550	17.9401
 0.9540	17.9578
 0.9530	17.9230
 0.9520	17.9064
 0.9510	17.9404
 0.9500	17.9142
 0.9490	17.9189
 0.9480	17.9351
 0.9470	17.8927
 0.9460	17.8673
 0.9450	17.8715
 0.9440	17.8276
 0.9430	17.8790
 0.9420	17.9188
 0.9410	17.8993
 0.9400	17.8797
 0.9390	17.8744
 0.9380	17.8706
 0.9370	17.9184
 0.9360	17.8808
 0.9350	17.8535
 0.9340	17.8678
 0.9330	17.9113
 0.9320	17.8617
 0.9310	17.8454
 0.9300	17.8483
 0.9290	17.8296
 0.9280	17.8806
 0.9270	17.8525
 0.9260	17.7999
 0.9250	17.8135
 0.9240	17.8171
 0.9230	17.8291
 0.9220	17.8038
 0.9210	17.8146
 0.9200	17.8328
 0.9190	17.8053
 0.9180	17.7808
 0.9170	17.7397
 0.9160	17.7674
 0.9150	17.6966
 0.9140	17.6519
 0.9130	17.6421
 0.9120	17.6952
 0.9110	17.7111
 0.9100	17.6884
 0.9090	17.6364
 0.9080	17.6827
 0.9070	17.6970
 0.9060	17.5936
 0.9050	17.5915
 0.9040	17.6490
 0.9030	17.5998
 0.9020	17.5635
 0.9010	17.5070
 0.9000	17.5474
 0.8990	17.5290
 0.8980	17.5251
 0.8970	17.5209
 0.8960	17.5036
 0.8950	17.4924
 0.8940	17.5105
 0.8930	17.5015
 0.8920	17.4761
 0.8910	17.3919
 0.8900	17.3878
 0.8890	17.3429
 0.8880	17.3748
 0.8870	17.3613
 0.8860	17.3035
 0.8850	17.2670
 0.8840	17.2708
 0.8830	17.2399
 0.8820	17.2291
 0.8810	17.1716
 0.8800	17.2433
 0.8790	17.1649
 0.8780	17.1507
 0.8770	17.1904
 0.8760	17.1931
 0.8750	17.1515
 0.8740	17.1433
 0.8730	17.1529
 0.8720	17.1004
 0.8710	17.0516
 0.8700	17.1060
 0.8690	17.0529
 0.8680	17.0821
 0.8670	16.9904
 0.8660	16.9952
 0.8650	17.0079
 0.8640	16.9599
 0.8630	16.8905
 0.8620	16.9397
 0.8610	16.8866
 0.8600	17.0334
 0.8590	17.0716
 0.8580	17.0540
 0.8570	17.0438
 0.8560	17.0226
 0.8550	17.0029
 0.8540	17.0137
 0.8530	17.0125
 0.8520	16.9954
 0.8510	16.9562
 0.8500	16.9624
 0.8490	16.9441
 0.8480	16.9262
 0.8470	16.9119
 0.8460	16.9072
 0.8450	16.9018
 0.8440	16.8645
 0.8430	16.8741
 0.8420	16.8603
 0.8410	16.8444
 0.8400	16.8322
 0.8390	16.8185
 0.8380	16.7949
 0.8370	16.8128
 0.8360	16.7855
 0.8350	16.7679
 0.8340	16.7485
 0.8330	16.7370
 0.8320	16.7178
 0.8310	16.7089
 0.8300	16.6962
 0.8290	16.6830
 0.8280	16.6725
 0.8270	16.6528
 0.8260	16.6370
 0.8250	16.6265
 0.8240	16.6137
 0.8230	16.5879
 0.8220	16.5711
 0.8210	16.5586
 0.8200	16.5304
 0.8190	16.5280
 0.8180	16.5116
 0.8170	16.4985
 0.8160	16.4783
 0.8150	16.4724
 0.8140	16.4393
 0.8130	16.4314
 0.8120	16.4064
 0.8110	16.3971
 0.8100	16.3651
 0.8090	16.3500
 0.8080	16.3355
 0.8070	16.3185
 0.8060	16.2989
 0.8050	16.2771
 0.8040	16.2690
 0.8030	16.2446
 0.8020	16.2295
 0.8010	16.2118
 0.8000	16.1869
 0.7990	16.1453
 0.7980	16.1220
 0.7970	16.1171
 0.7960	16.0673
 0.7950	16.0552
 0.7940	16.0357
 0.7930	16.0118
 0.7920	15.9962
 0.7910	15.9604
 0.7900	15.9304
 0.7890	15.9275
 0.7880	15.8989
 0.7870	15.8673
 0.7860	15.8541
 0.7850	15.8182
 0.7840	15.8025
 0.7830	15.7724
 0.7820	15.7580
 0.7810	15.7342
 0.7800	15.6946
 0.7790	15.6715
 0.7780	15.6354
 0.7770	15.6093
 0.7760	15.5868
 0.7750	15.5540
 0.7740	15.5147
 0.7730	15.4958
 0.7720	15.4599
 0.7710	15.4441
 0.7700	15.4110
 0.7690	15.3734
 0.7680	15.3460
 0.7670	15.3286
 0.7660	15.2982
 0.7650	15.2596
 0.7640	15.2188
 0.7630	15.1928
 0.7620	15.1671
 0.7610	15.1353
 0.7600	15.0940
 0.7590	15.0614
 0.7580	15.0278
 0.7570	14.9975
 0.7560	14.9636
 0.7550	14.9411
 0.7540	14.8920
 0.7530	14.8626
 0.7520	14.8334
 0.7510	14.7965
 0.7500	14.7524
 0.7490	14.7206
 0.7480	14.6867
 0.7470	14.6534
 0.7460	14.6229
 0.7450	14.5850
 0.7440	14.5505
 0.7430	14.5075
 0.7420	14.4744
 0.7410	14.4376
 0.7400	14.4053
 0.7390	14.3674
 0.7380	14.3352
 0.7370	14.2967
 0.7360	14.2503
 0.7350	14.2155
 0.7340	14.1862
 0.7330	14.1400
 0.7320	14.0995
 0.7310	14.0674
 0.7300	14.0306
 0.7290	13.9900
 0.7280	13.9534
 0.7270	13.9188
 0.7260	13.8799
 0.7250	13.8476
 0.7240	13.8063
 0.7230	13.7703
 0.7220	13.7301
 0.7210	13.6903
 0.7200	13.6624
 0.7190	13.6239
 0.7180	13.5856
 0.7170	13.5483
 0.7160	13.5162
 0.7150	13.4784
 0.7140	13.4375
 0.7130	13.4064
 0.7120	13.3684
 0.7110	13.3318
 0.7100	13.3001
 0.7090	13.2628
 0.7080	13.2302
 0.7070	13.1953
 0.7060	13.1571
 0.7050	13.1249
 0.7040	13.0874
 0.7030	13.0564
 0.7020	13.0234
 0.7010	12.9909
 0.7000	12.9564
 0.6990	12.9288
 0.6980	12.8944
 0.6970	12.8586
 0.6960	12.8261
 0.6950	12.7972
 0.6940	12.7597
 0.6930	12.7344
 0.6920	12.7015
 0.6910	12.6717
 0.6900	12.6375
 0.6890	12.6093
 0.6880	12.5800
 0.6870	12.5561
 0.6860	12.5260
 0.6850	12.4949
 0.6840	12.4654
 0.6830	12.4388
 0.6820	12.4087
 0.6810	12.3818
 0.6800	12.3521
 0.6790	12.3266
 0.6780	12.3021
 0.6770	12.2767
 0.6760	12.2458
 0.6750	12.2199
 0.6740	12.1920
 0.6730	12.1649
 0.6720	12.1417
 0.6710	12.1186
 0.6700	12.0914
 0.6690	12.0669
 0.6680	12.0453
 0.6670	12.0190
 0.6660	11.9937
 0.6650	11.9730
 0.6640	11.9489
 0.6630	11.9301
 0.6620	11.9070
 0.6610	11.8847
 0.6600	11.8603
 0.6590	11.8373
 0.6580	11.8174
 0.6570	11.7940
 0.6560	11.7721
 0.6550	11.7488
 0.6540	11.7312
 0.6530	11.7143
 0.6520	11.6911
 0.6510	11.6681
 0.6500	11.6484
 0.6490	11.6304
 0.6480	11.6122
 0.6470	11.5927
 0.6460	11.5709
 0.6450	11.5518
 0.6440	11.5324
 0.6430	11.5158
 0.6420	11.4987
 0.6410	11.4803
 0.6400	11.4614
 0.6390	11.4381
 0.6380	11.4208
 0.6370	11.4096
 0.6360	11.3945
 0.6350	11.3770
 0.6340	11.3614
 0.6330	11.3407
 0.6320	11.3231
 0.6310	11.3071
 0.6300	11.2919
 0.6290	11.2763
 0.6280	11.2600
 0.6270	11.2434
 0.6260	11.2275
 0.6250	11.2108
 0.6240	11.1915
 0.6230	11.1765
 0.6220	11.1652
 0.6210	11.1494
 0.6200	11.1320
 0.6190	11.1177
 0.6180	11.1024
 0.6170	11.0876
 0.6160	11.0713
 0.6150	11.0570
 0.6140	11.0446
 0.6130	11.0305
 0.6120	11.0116
 0.6110	10.9958
 0.6100	10.9806
 0.6090	10.9647
 0.6080	10.9483
 0.6070	10.9356
 0.6060	10.9217
 0.6050	10.9081
 0.6040	10.8940
 0.6030	10.8789
 0.6020	10.8627
 0.6010	10.8490
 0.6000	10.8348
 0.5990	10.8198
 0.5980	10.8069
 0.5970	10.7963
 0.5960	10.7841
 0.5950	10.7682
 0.5940	10.7530
 0.5930	10.7384
 0.5920	10.7221
 0.5910	10.7109
 0.5900	10.6942
 0.5890	10.6786
 0.5880	10.6621
 0.5870	10.6477
 0.5860	10.6318
 0.5850	10.6166
 0.5840	10.6042
 0.5830	10.5851
 0.5820	10.5676
 0.5810	10.5522
 0.5800	10.5366
 0.5790	10.5202
 0.5780	10.5023
 0.5770	10.4876
 0.5760	10.4728
 0.5750	10.4576
 0.5740	10.4401
 0.5730	10.4214
 0.5720	10.4068
 0.5710	10.3916
 0.5700	10.3711
 0.5690	10.3580
 0.5680	10.3415
 0.5670	10.3260
 0.5660	10.3100
 0.5650	10.2958
 0.5640	10.2809
 0.5630	10.2679
 0.5620	10.2546
 0.5610	10.2260
 0.5600	10.2040
 0.5590	10.1904
 0.5580	10.1760
 0.5570	10.1603
 0.5560	10.1485
 0.5550	10.1366
 0.5540	10.1235
 0.5530	10.1120
 0.5520	10.0991
 0.5510	10.0872
 0.5500	10.0795
 0.5490	10.0681
 0.5480	10.0590
 0.5470	10.0503
 0.5460	10.0424
 0.5450	10.0343
 0.5440	10.0252
 0.5430	10.0176
 0.5420	10.0087
 0.5410	10.0028
 0.5400	 9.9991
 0.5390	 9.9933
 0.5380	 9.9887
 0.5370	 9.9841
 0.5360	 9.9812
 0.5350	 9.9778
 0.5340	 9.9727
 0.5330	 9.9700
 0.5320	 9.9701
 0.5310	 9.9676
 0.5300	 9.9651
 0.5290	 9.9630
 0.5280	 9.9644
 0.5270	 9.9626
 0.5260	 9.9595
 0.5250	 9.9606
 0.5240	 9.9590
 0.5230	 9.9579
 0.5220	 9.9600
 0.5210	 9.9607
 0.5200	 9.9591
 0.5190	 9.9593
 0.5180	 9.9624
 0.5170	 9.9583
 0.5160	 9.9636
 0.5150	 9.9619
 0.5140	 9.9635
 0.5130	 9.9623
 0.5120	 9.9627
 0.5110	 9.9617
 0.5100	 9.9646
 0.5090	 9.9654
 0.5080	 9.9646
 0.5070	 9.9610
 0.5060	 9.9596
 0.5050	 9.9654
 0.5040	 9.9611
 0.5030	 9.9641
 0.5020	 9.9639
 0.5010	 9.9610
 0.5000	 9.9567
 0.4990	 9.9544
 0.4980	 9.9638
 0.4970	 9.9569
 0.4960	 9.9564
 0.4950	 9.9509
 0.4940	 9.9565
 0.4930	 9.9425
 0.4920	 9.9465
 0.4910	 9.9423
 0.4900	 9.9407
 0.4890	 9.9404
 0.4880	 9.9448
 0.4870	 9.9411
 0.4860	 9.9341
 0.4850	 9.9249
 0.4840	 9.9250
 0.4830	 9.9246
 0.4820	 9.9311
 0.4810	 9.9310
 0.4800	 9.9432
 0.4790	 9.9503
 0.4780	 9.9585
 0.4770	 9.9672
 0.4760	 9.9761
 0.4750	 9.9811
 0.4740	 9.9870
 0.4730	 9.9899
 0.4720	 9.9969
 0.4710	10.0009
 0.4700	10.0079
 0.4690	10.0144
 0.4680	10.0164
 0.4670	10.0250
 0.4660	10.0251
 0.4650	10.0327
 0.4640	10.0320
 0.4630	10.0408
 0.4620	10.0388
 0.4610	10.0476
 0.4600	10.0548
 0.4590	10.0572
 0.4580	10.0601
 0.4570	10.0592
 0.4560	10.0635
 0.4550	10.0675
 0.4540	10.0722
 0.4530	10.0738
 0.4520	10.0733
 0.4510	10.0768
 0.4500	10.0788
 0.4490	10.0823
 0.4480	10.0834
 0.4470	10.0870
 0.4460	10.0896
 0.4450	10.0854
 0.4440	10.0877
 0.4430	10.0932
 0.4420	10.0943
 0.4410	10.0949
 0.4400	10.1015
 0.4390	10.1057
 0.4380	10.1072
 0.4370	10.1096
 0.4360	10.1114
 0.4350	10.1113
 0.4340	10.1058
 0.4330	10.1106
 0.4320	10.1106
 0.4310	10.1095
 0.4300	10.1130
 0.4290	10.1116
 0.4280	10.1107
 0.4270	10.1103
 0.4260	10.1086
 0.4250	10.1104
 0.4240	10.1091
 0.4230	10.1110
 0.4220	10.1120
 0.4210	10.1083
 0.4200	10.1112
 0.4190	10.1170
 0.4180	10.1162
 0.4170	10.1172
 0.4160	10.1175
 0.4150	10.1188
 0.4140	10.1224
 0.4130	10.1251
 0.4120	10.1315
 0.4110	10.1376
 0.4100	10.1439
 0.4090	10.1413
 0.4080	10.1454
 0.4070	10.1479
 0.4060	10.1482
 0.4050	10.1512
 0.4040	10.1518
 0.4030	10.1522
 0.4020	10.1506
 0.4010	10.1547
 0.4000	10.1550
