Name: Brucite Mg(OH)_2
Type: Mineral
Class: Hydroxide
Subclass: None
Particle Size: Coarse
Sample No.: OH-1A
Owner: JPL
Wavelength Range: VSWIR
Origin: USA, Nevada, Nye County, Gabbs.
Collection Date: N/A
Description: Particle size was 125-500um. Collected by:  JPL Original ASTER Spectral Library name was jpl.perkin.mineral.hydroxide.none.coarse.oh01a.spectrum.txt
Measurement: Hemispherical reflectance
First Column: X
Second Column: Y
X Units: Wavelength (micrometers)
Y Units:Reflectance (percent)
First X Value:  2.5000
Last X Value:  0.4000
Number of X Values: 2101
Additional Information: mineral.hydroxide.none.coarse.vswir.oh-1a.jpl.perkin.ancillary.txt

 2.5000	 2.7980
 2.4990	 2.7054
 2.4980	 2.7299
 2.4970	 3.1306
 2.4960	 2.4602
 2.4950	 2.7981
 2.4940	 2.4295
 2.4930	 2.8234
 2.4920	 2.6779
 2.4910	 2.5419
 2.4900	 2.3975
 2.4890	 2.5567
 2.4880	 2.4280
 2.4870	 2.5174
 2.4860	 2.3064
 2.4850	 2.5942
 2.4840	 2.2415
 2.4830	 2.4711
 2.4820	 2.3236
 2.4810	 2.4818
 2.4800	 2.4355
 2.4790	 2.4291
 2.4780	 2.2139
 2.4770	 2.5216
 2.4760	 2.2591
 2.4750	 2.2295
 2.4740	 2.3948
 2.4730	 2.5112
 2.4720	 2.2667
 2.4710	 2.3424
 2.4700	 2.3199
 2.4690	 2.4247
 2.4680	 2.3713
 2.4670	 2.7566
 2.4660	 2.5882
 2.4650	 2.7256
 2.4640	 2.6316
 2.4630	 2.6588
 2.4620	 2.7484
 2.4610	 2.6949
 2.4600	 2.6778
 2.4590	 2.8540
 2.4580	 2.6415
 2.4570	 2.7277
 2.4560	 2.8750
 2.4550	 2.9677
 2.4540	 2.8368
 2.4530	 3.0301
 2.4520	 3.1634
 2.4510	 3.0454
 2.4500	 3.1047
 2.4490	 3.2357
 2.4480	 3.1486
 2.4470	 3.1590
 2.4460	 3.1409
 2.4450	 3.2899
 2.4440	 3.4376
 2.4430	 3.4798
 2.4420	 3.3781
 2.4410	 3.5747
 2.4400	 3.5822
 2.4390	 3.7604
 2.4380	 3.7840
 2.4370	 3.8911
 2.4360	 3.8744
 2.4350	 4.0444
 2.4340	 4.0250
 2.4330	 4.2424
 2.4320	 4.2841
 2.4310	 4.5199
 2.4300	 4.4650
 2.4290	 4.7160
 2.4280	 4.8425
 2.4270	 5.0614
 2.4260	 5.1633
 2.4250	 5.2810
 2.4240	 5.4893
 2.4230	 5.8229
 2.4220	 6.0628
 2.4210	 6.4269
 2.4200	 6.6204
 2.4190	 7.0195
 2.4180	 7.2186
 2.4170	 7.6743
 2.4160	 7.9904
 2.4150	 8.4640
 2.4140	 8.7136
 2.4130	 9.2755
 2.4120	 9.5651
 2.4110	10.0530
 2.4100	10.4793
 2.4090	10.8741
 2.4080	11.3535
 2.4070	11.7617
 2.4060	12.0260
 2.4050	12.5002
 2.4040	12.8130
 2.4030	13.1944
 2.4020	13.4574
 2.4010	13.7761
 2.4000	14.0960
 2.3990	14.3635
 2.3980	14.6036
 2.3970	14.9259
 2.3960	15.0717
 2.3950	15.2946
 2.3940	15.4309
 2.3930	15.6021
 2.3920	15.6385
 2.3910	15.7997
 2.3900	15.9852
 2.3890	16.1783
 2.3880	16.2114
 2.3870	16.2855
 2.3860	16.2670
 2.3850	16.2942
 2.3840	16.3529
 2.3830	16.5245
 2.3820	16.4610
 2.3810	16.4418
 2.3800	16.5276
 2.3790	16.6201
 2.3780	16.6213
 2.3770	16.6568
 2.3760	16.6808
 2.3750	16.6472
 2.3740	16.6518
 2.3730	16.6394
 2.3720	16.5386
 2.3710	16.5245
 2.3700	16.4461
 2.3690	16.3873
 2.3680	16.3602
 2.3670	16.2900
 2.3660	16.2559
 2.3650	16.2565
 2.3640	16.1091
 2.3630	15.9386
 2.3620	15.9073
 2.3610	15.9085
 2.3600	15.7433
 2.3590	15.5795
 2.3580	15.4250
 2.3570	15.2580
 2.3560	15.1001
 2.3550	14.9502
 2.3540	14.7948
 2.3530	14.5504
 2.3520	14.3442
 2.3510	14.1679
 2.3500	13.9283
 2.3490	13.7297
 2.3480	13.4889
 2.3470	13.2276
 2.3460	12.9942
 2.3450	12.6430
 2.3440	12.3069
 2.3430	12.0781
 2.3420	11.8312
 2.3410	11.4939
 2.3400	11.2925
 2.3390	10.9482
 2.3380	10.5864
 2.3370	10.3757
 2.3360	10.1384
 2.3350	 9.8440
 2.3340	 9.5877
 2.3330	 9.3490
 2.3320	 9.1675
 2.3310	 8.8561
 2.3300	 8.6114
 2.3290	 8.4155
 2.3280	 8.3343
 2.3270	 8.1918
 2.3260	 8.0197
 2.3250	 7.8708
 2.3240	 7.8794
 2.3230	 7.7659
 2.3220	 7.6573
 2.3210	 7.5941
 2.3200	 7.6467
 2.3190	 7.5565
 2.3180	 7.5530
 2.3170	 7.5355
 2.3160	 7.6611
 2.3150	 7.6263
 2.3140	 7.6800
 2.3130	 7.6981
 2.3120	 7.8027
 2.3110	 7.8459
 2.3100	 7.9391
 2.3090	 7.9927
 2.3080	 8.1859
 2.3070	 8.2751
 2.3060	 8.4080
 2.3050	 8.4943
 2.3040	 8.6378
 2.3030	 8.7846
 2.3020	 8.9830
 2.3010	 9.1414
 2.3000	 9.3692
 2.2990	 9.4276
 2.2980	 9.5957
 2.2970	 9.7365
 2.2960	 9.9271
 2.2950	10.0974
 2.2940	10.2288
 2.2930	10.3607
 2.2920	10.6127
 2.2910	10.6555
 2.2900	10.8202
 2.2890	10.9673
 2.2880	11.2098
 2.2870	11.2866
 2.2860	11.3989
 2.2850	11.4895
 2.2840	11.6592
 2.2830	11.6638
 2.2820	11.8437
 2.2810	11.8923
 2.2800	12.0708
 2.2790	11.9842
 2.2780	12.1674
 2.2770	12.2415
 2.2760	12.2848
 2.2750	12.2803
 2.2740	12.3963
 2.2730	12.3411
 2.2720	12.4668
 2.2710	12.3737
 2.2700	12.5110
 2.2690	12.4943
 2.2680	12.5694
 2.2670	12.5459
 2.2660	12.5595
 2.2650	12.5390
 2.2640	12.7214
 2.2630	12.5635
 2.2620	12.5969
 2.2610	12.5826
 2.2600	12.6884
 2.2590	12.6040
 2.2580	12.7919
 2.2570	12.6899
 2.2560	12.7915
 2.2550	12.8045
 2.2540	12.8140
 2.2530	12.8358
 2.2520	12.9293
 2.2510	12.8516
 2.2500	13.0763
 2.2490	12.9497
 2.2480	13.1543
 2.2470	13.0477
 2.2460	13.1178
 2.2450	13.1644
 2.2440	13.2850
 2.2430	13.3073
 2.2420	13.4719
 2.2410	13.4254
 2.2400	13.5950
 2.2390	13.5816
 2.2380	13.7360
 2.2370	13.7061
 2.2360	13.9614
 2.2350	13.9503
 2.2340	14.1571
 2.2330	14.1922
 2.2320	14.4476
 2.2310	14.4265
 2.2300	14.5146
 2.2290	14.6337
 2.2280	14.8742
 2.2270	14.8716
 2.2260	14.9663
 2.2250	15.1132
 2.2240	15.3044
 2.2230	15.1747
 2.2220	15.5717
 2.2210	15.6452
 2.2200	15.7968
 2.2190	15.8532
 2.2180	16.1023
 2.2170	16.0726
 2.2160	16.3766
 2.2150	16.4414
 2.2140	16.5898
 2.2130	16.6944
 2.2120	16.8525
 2.2110	16.6596
 2.2100	17.1593
 2.2090	17.0039
 2.2080	17.2398
 2.2070	17.1981
 2.2060	17.5058
 2.2050	17.4292
 2.2040	17.6192
 2.2030	17.6018
 2.2020	17.8817
 2.2010	17.8879
 2.2000	18.1357
 2.1990	18.0865
 2.1980	18.2921
 2.1970	18.4409
 2.1960	18.7110
 2.1950	18.7427
 2.1940	18.9568
 2.1930	19.0846
 2.1920	19.3879
 2.1910	19.5131
 2.1900	19.8437
 2.1890	20.0487
 2.1880	20.3766
 2.1870	20.6555
 2.1860	20.9925
 2.1850	21.1662
 2.1840	21.5751
 2.1830	21.9173
 2.1820	22.1446
 2.1810	22.4558
 2.1800	22.9033
 2.1790	23.1159
 2.1780	23.5778
 2.1770	23.7720
 2.1760	24.2202
 2.1750	24.4297
 2.1740	24.8045
 2.1730	25.0109
 2.1720	25.4554
 2.1710	25.6815
 2.1700	25.9460
 2.1690	26.1937
 2.1680	26.5782
 2.1670	26.6219
 2.1660	26.8406
 2.1650	27.0917
 2.1640	27.3082
 2.1630	27.4092
 2.1620	27.5885
 2.1610	27.6124
 2.1600	27.7578
 2.1590	27.8776
 2.1580	27.9486
 2.1570	28.0856
 2.1560	28.1562
 2.1550	28.0883
 2.1540	28.0847
 2.1530	28.1712
 2.1520	28.1809
 2.1510	28.1179
 2.1500	28.0719
 2.1490	28.0897
 2.1480	28.0533
 2.1470	27.9520
 2.1460	27.9314
 2.1450	27.8697
 2.1440	27.8746
 2.1430	27.6960
 2.1420	27.7214
 2.1410	27.6181
 2.1400	27.5193
 2.1390	27.4268
 2.1380	27.4215
 2.1370	27.2735
 2.1360	27.1823
 2.1350	27.1728
 2.1340	27.1621
 2.1330	27.0918
 2.1320	27.0714
 2.1310	26.9696
 2.1300	27.0124
 2.1290	26.9338
 2.1280	26.8984
 2.1270	26.8662
 2.1260	26.9557
 2.1250	26.8958
 2.1240	26.8635
 2.1230	26.8372
 2.1220	26.8843
 2.1210	26.8872
 2.1200	26.9843
 2.1190	26.9469
 2.1180	26.9890
 2.1170	27.0171
 2.1160	26.9996
 2.1150	26.9856
 2.1140	27.0611
 2.1130	27.0550
 2.1120	27.1423
 2.1110	27.0951
 2.1100	27.1632
 2.1090	27.1983
 2.1080	27.2392
 2.1070	27.2165
 2.1060	27.2130
 2.1050	27.2864
 2.1040	27.3492
 2.1030	27.3170
 2.1020	27.4045
 2.1010	27.4438
 2.1000	27.4365
 2.0990	27.4229
 2.0980	27.5114
 2.0970	27.5350
 2.0960	27.5580
 2.0950	27.5860
 2.0940	27.6241
 2.0930	27.6387
 2.0920	27.7286
 2.0910	27.7268
 2.0900	27.7448
 2.0890	27.7688
 2.0880	27.8055
 2.0870	27.8117
 2.0860	27.8656
 2.0850	27.8375
 2.0840	27.8024
 2.0830	27.9495
 2.0820	27.9221
 2.0810	27.8340
 2.0800	27.9313
 2.0790	27.9803
 2.0780	27.9819
 2.0770	27.9620
 2.0760	28.0171
 2.0750	28.0155
 2.0740	27.9742
 2.0730	28.0005
 2.0720	28.1129
 2.0710	28.1198
 2.0700	28.1465
 2.0690	28.1907
 2.0680	28.1846
 2.0670	28.1998
 2.0660	28.2032
 2.0650	28.2538
 2.0640	28.3238
 2.0630	28.4165
 2.0620	28.4615
 2.0610	28.4958
 2.0600	28.5167
 2.0590	28.5589
 2.0580	28.6323
 2.0570	28.7141
 2.0560	28.7434
 2.0550	28.8474
 2.0540	28.9489
 2.0530	29.0248
 2.0520	29.0853
 2.0510	29.2243
 2.0500	29.3453
 2.0490	29.4157
 2.0480	29.4546
 2.0470	29.6184
 2.0460	29.7041
 2.0450	29.7992
 2.0440	29.8556
 2.0430	30.0305
 2.0420	30.1388
 2.0410	30.2514
 2.0400	30.2743
 2.0390	30.3867
 2.0380	30.4672
 2.0370	30.5351
 2.0360	30.6258
 2.0350	30.8082
 2.0340	30.9082
 2.0330	30.8805
 2.0320	30.8762
 2.0310	31.0082
 2.0300	31.0805
 2.0290	31.2367
 2.0280	31.2473
 2.0270	31.3403
 2.0260	31.3208
 2.0250	31.4184
 2.0240	31.4862
 2.0230	31.6054
 2.0220	31.6740
 2.0210	31.8511
 2.0200	31.8714
 2.0190	32.0323
 2.0180	32.1535
 2.0170	32.3458
 2.0160	32.3702
 2.0150	32.5802
 2.0140	32.7825
 2.0130	32.9616
 2.0120	33.1205
 2.0110	33.3382
 2.0100	33.4760
 2.0090	33.7082
 2.0080	33.8793
 2.0070	34.1005
 2.0060	34.2537
 2.0050	34.5565
 2.0040	34.7123
 2.0030	34.9984
 2.0020	35.2232
 2.0010	35.4099
 2.0000	35.5093
 1.9990	35.8537
 1.9980	36.0095
 1.9970	36.2452
 1.9960	36.3985
 1.9950	36.6873
 1.9940	36.8362
 1.9930	37.1065
 1.9920	37.2790
 1.9910	37.5486
 1.9900	37.6993
 1.9890	37.9386
 1.9880	38.1091
 1.9870	38.3062
 1.9860	38.4743
 1.9850	38.6954
 1.9840	38.8511
 1.9830	39.1315
 1.9820	39.1962
 1.9810	39.4269
 1.9800	39.5184
 1.9790	39.7633
 1.9780	39.8259
 1.9770	39.9785
 1.9760	40.0471
 1.9750	40.1422
 1.9740	40.2642
 1.9730	40.3711
 1.9720	40.4099
 1.9710	40.6330
 1.9700	40.5602
 1.9690	40.6809
 1.9680	40.7774
 1.9670	40.7536
 1.9660	40.8596
 1.9650	40.9933
 1.9640	41.0036
 1.9630	41.1535
 1.9620	41.0907
 1.9610	41.2893
 1.9600	41.2684
 1.9590	41.3172
 1.9580	41.2616
 1.9570	41.3952
 1.9560	41.3594
 1.9550	41.4227
 1.9540	41.4670
 1.9530	41.5075
 1.9520	41.4285
 1.9510	41.6442
 1.9500	41.5731
 1.9490	41.7369
 1.9480	41.7041
 1.9470	41.7578
 1.9460	41.7199
 1.9450	41.7863
 1.9440	41.7706
 1.9430	41.8277
 1.9420	41.8608
 1.9410	41.8894
 1.9400	41.9154
 1.9390	41.9129
 1.9380	41.8759
 1.9370	41.9781
 1.9360	42.0182
 1.9350	41.9377
 1.9340	42.0429
 1.9330	42.0290
 1.9320	42.0328
 1.9310	42.1658
 1.9300	42.2234
 1.9290	42.2851
 1.9280	42.3256
 1.9270	42.3999
 1.9260	42.2127
 1.9250	42.5385
 1.9240	42.5008
 1.9230	42.5720
 1.9220	42.5368
 1.9210	42.7635
 1.9200	42.8212
 1.9190	42.8116
 1.9180	43.0420
 1.9170	43.1785
 1.9160	43.2662
 1.9150	43.4280
 1.9140	43.4345
 1.9130	43.6762
 1.9120	43.8167
 1.9110	44.0230
 1.9100	44.0930
 1.9090	44.5731
 1.9080	44.5057
 1.9070	44.7833
 1.9060	44.8968
 1.9050	45.0945
 1.9040	45.3018
 1.9030	45.5117
 1.9020	45.7964
 1.9010	46.0744
 1.9000	46.1755
 1.8990	46.3175
 1.8980	46.4403
 1.8970	46.6686
 1.8960	46.9059
 1.8950	47.1387
 1.8940	47.2059
 1.8930	47.4485
 1.8920	47.4979
 1.8910	47.7600
 1.8900	47.7179
 1.8890	47.9554
 1.8880	48.0405
 1.8870	48.2142
 1.8860	48.2769
 1.8850	48.4172
 1.8840	48.5055
 1.8830	48.7061
 1.8820	48.7038
 1.8810	48.9672
 1.8800	48.9928
 1.8790	49.1407
 1.8780	49.2145
 1.8770	49.4236
 1.8760	49.6136
 1.8750	49.7800
 1.8740	49.8313
 1.8730	50.0680
 1.8720	50.2219
 1.8710	50.3847
 1.8700	50.5438
 1.8690	50.7494
 1.8680	50.7664
 1.8670	50.9346
 1.8660	51.1115
 1.8650	51.2345
 1.8640	51.3700
 1.8630	51.6045
 1.8620	51.7745
 1.8610	51.8914
 1.8600	52.0118
 1.8590	52.2167
 1.8580	52.3707
 1.8570	52.4839
 1.8560	52.5256
 1.8550	52.7946
 1.8540	52.9284
 1.8530	53.1422
 1.8520	53.2222
 1.8510	53.4549
 1.8500	53.5472
 1.8490	53.6930
 1.8480	53.8311
 1.8470	53.9690
 1.8460	54.0962
 1.8450	54.2344
 1.8440	54.4202
 1.8430	54.6012
 1.8420	54.6453
 1.8410	54.7656
 1.8400	54.9147
 1.8390	55.1044
 1.8380	55.2565
 1.8370	55.3808
 1.8360	55.4703
 1.8350	55.6354
 1.8340	55.7443
 1.8330	55.8632
 1.8320	55.9917
 1.8310	56.0967
 1.8300	56.2638
 1.8290	56.4119
 1.8280	56.5313
 1.8270	56.6519
 1.8260	56.7325
 1.8250	56.9202
 1.8240	56.9779
 1.8230	57.0985
 1.8220	57.1964
 1.8210	57.3800
 1.8200	57.5690
 1.8190	57.7015
 1.8180	57.8139
 1.8170	58.0555
 1.8160	58.1972
 1.8150	58.3269
 1.8140	58.4774
 1.8130	58.6051
 1.8120	58.7452
 1.8110	58.9049
 1.8100	59.0177
 1.8090	59.2648
 1.8080	59.3527
 1.8070	59.3727
 1.8060	59.5119
 1.8050	59.7012
 1.8040	59.8575
 1.8030	59.9726
 1.8020	60.1411
 1.8010	60.2370
 1.8000	60.2671
 1.7990	60.4620
 1.7980	60.5574
 1.7970	60.5425
 1.7960	60.6407
 1.7950	60.7584
 1.7940	60.8390
 1.7930	60.9828
 1.7920	61.0241
 1.7910	61.0781
 1.7900	61.1703
 1.7890	61.2316
 1.7880	61.3394
 1.7870	61.3920
 1.7860	61.5347
 1.7850	61.6091
 1.7840	61.6604
 1.7830	61.7180
 1.7820	61.7881
 1.7810	61.9639
 1.7800	62.0016
 1.7790	62.0774
 1.7780	62.1702
 1.7770	62.2382
 1.7760	62.3512
 1.7750	62.3601
 1.7740	62.4111
 1.7730	62.5373
 1.7720	62.6734
 1.7710	62.7951
 1.7700	62.8900
 1.7690	62.9389
 1.7680	63.0668
 1.7670	63.1579
 1.7660	63.1933
 1.7650	63.3284
 1.7640	63.4764
 1.7630	63.5208
 1.7620	63.5541
 1.7610	63.5622
 1.7600	63.7096
 1.7590	63.8396
 1.7580	63.9248
 1.7570	63.9580
 1.7560	64.0233
 1.7550	64.1224
 1.7540	64.2609
 1.7530	64.3140
 1.7520	64.3850
 1.7510	64.5169
 1.7500	64.6115
 1.7490	64.6378
 1.7480	64.8376
 1.7470	64.9635
 1.7460	65.0407
 1.7450	65.1712
 1.7440	65.1608
 1.7430	65.2411
 1.7420	65.3712
 1.7410	65.4679
 1.7400	65.4912
 1.7390	65.5757
 1.7380	65.7613
 1.7370	65.8279
 1.7360	65.8731
 1.7350	65.9856
 1.7340	66.1079
 1.7330	66.1446
 1.7320	66.3002
 1.7310	66.3877
 1.7300	66.4555
 1.7290	66.5153
 1.7280	66.6663
 1.7270	66.7886
 1.7260	66.9154
 1.7250	66.9603
 1.7240	67.0727
 1.7230	67.1460
 1.7220	67.3040
 1.7210	67.2700
 1.7200	67.4289
 1.7190	67.5189
 1.7180	67.5977
 1.7170	67.7206
 1.7160	67.7930
 1.7150	67.8700
 1.7140	67.9470
 1.7130	68.1496
 1.7120	68.1504
 1.7110	68.2130
 1.7100	68.3539
 1.7090	68.3881
 1.7080	68.5014
 1.7070	68.5648
 1.7060	68.7289
 1.7050	68.9561
 1.7040	69.0037
 1.7030	69.0662
 1.7020	69.1643
 1.7010	69.2042
 1.7000	69.3723
 1.6990	69.4008
 1.6980	69.4943
 1.6970	69.6718
 1.6960	69.7453
 1.6950	69.9421
 1.6940	70.0162
 1.6930	70.0972
 1.6920	70.1234
 1.6910	70.2756
 1.6900	70.2790
 1.6890	70.4146
 1.6880	70.6170
 1.6870	70.6403
 1.6860	70.7228
 1.6850	70.8140
 1.6840	70.8861
 1.6830	70.9119
 1.6820	71.0694
 1.6810	71.0923
 1.6800	71.2461
 1.6790	71.2793
 1.6780	71.4369
 1.6770	71.4587
 1.6760	71.6013
 1.6750	71.6666
 1.6740	71.8776
 1.6730	71.7969
 1.6720	71.9553
 1.6710	72.0702
 1.6700	72.1407
 1.6690	72.1320
 1.6680	72.2142
 1.6670	72.3694
 1.6660	72.3730
 1.6650	72.5088
 1.6640	72.5807
 1.6630	72.6507
 1.6620	72.7753
 1.6610	72.7951
 1.6600	72.9183
 1.6590	72.9347
 1.6580	73.0708
 1.6570	72.9707
 1.6560	73.1585
 1.6550	73.2459
 1.6540	73.3419
 1.6530	73.2805
 1.6520	73.4782
 1.6510	73.4448
 1.6500	73.6057
 1.6490	73.6909
 1.6480	73.6558
 1.6470	73.8045
 1.6460	73.8316
 1.6450	73.8756
 1.6440	73.9280
 1.6430	74.0400
 1.6420	74.0763
 1.6410	74.1446
 1.6400	74.2007
 1.6390	74.2021
 1.6380	74.3992
 1.6370	74.4368
 1.6360	74.5461
 1.6350	74.4718
 1.6340	74.6198
 1.6330	74.7845
 1.6320	74.7763
 1.6310	74.7635
 1.6300	74.9866
 1.6290	74.9480
 1.6280	75.0667
 1.6270	75.1452
 1.6260	75.1724
 1.6250	75.3477
 1.6240	75.3014
 1.6230	75.3333
 1.6220	75.5259
 1.6210	75.5699
 1.6200	75.5641
 1.6190	75.6700
 1.6180	75.7711
 1.6170	75.8385
 1.6160	75.9395
 1.6150	76.0209
 1.6140	76.0636
 1.6130	76.0895
 1.6120	76.0745
 1.6110	76.1494
 1.6100	76.1688
 1.6090	76.2842
 1.6080	76.3657
 1.6070	76.2434
 1.6060	76.5400
 1.6050	76.5622
 1.6040	76.5529
 1.6030	76.7171
 1.6020	76.7193
 1.6010	76.7259
 1.6000	76.7963
 1.5990	76.7049
 1.5980	76.8591
 1.5970	76.8833
 1.5960	77.0204
 1.5950	77.0125
 1.5940	77.0634
 1.5930	77.1293
 1.5920	77.1219
 1.5910	77.1409
 1.5900	77.2606
 1.5890	77.2535
 1.5880	77.2918
 1.5870	77.3201
 1.5860	77.4218
 1.5850	77.3673
 1.5840	77.4487
 1.5830	77.5199
 1.5820	77.5638
 1.5810	77.6887
 1.5800	77.6865
 1.5790	77.6768
 1.5780	77.7233
 1.5770	77.6815
 1.5760	77.6820
 1.5750	77.7160
 1.5740	77.7530
 1.5730	77.7143
 1.5720	77.6442
 1.5710	77.3157
 1.5700	77.8361
 1.5690	77.8819
 1.5680	77.9102
 1.5670	77.9187
 1.5660	77.9648
 1.5650	78.0977
 1.5640	78.0470
 1.5630	78.0702
 1.5620	78.0886
 1.5610	78.0574
 1.5600	78.1288
 1.5590	78.1741
 1.5580	78.1096
 1.5570	78.2038
 1.5560	78.2541
 1.5550	78.2436
 1.5540	78.2940
 1.5530	78.3492
 1.5520	78.2249
 1.5510	78.1980
 1.5500	78.2994
 1.5490	78.3417
 1.5480	78.2880
 1.5470	78.2402
 1.5460	78.2743
 1.5450	78.3164
 1.5440	78.2496
 1.5430	78.2048
 1.5420	78.2147
 1.5410	78.2014
 1.5400	78.1827
 1.5390	78.1494
 1.5380	78.1830
 1.5370	78.2607
 1.5360	78.2835
 1.5350	78.2761
 1.5340	78.2190
 1.5330	78.2206
 1.5320	78.2804
 1.5310	78.2857
 1.5300	78.3086
 1.5290	78.3402
 1.5280	78.4042
 1.5270	78.3950
 1.5260	78.4826
 1.5250	78.4672
 1.5240	78.4027
 1.5230	78.4683
 1.5220	78.5269
 1.5210	78.5019
 1.5200	78.5313
 1.5190	78.6125
 1.5180	78.5601
 1.5170	78.5021
 1.5160	78.5266
 1.5150	78.4138
 1.5140	78.3888
 1.5130	78.4027
 1.5120	78.3058
 1.5110	78.2917
 1.5100	78.3149
 1.5090	78.2657
 1.5080	78.2396
 1.5070	78.2321
 1.5060	78.2355
 1.5050	78.2011
 1.5040	78.0710
 1.5030	77.9758
 1.5020	77.9169
 1.5010	77.8770
 1.5000	77.7395
 1.4990	77.5558
 1.4980	77.3811
 1.4970	77.1599
 1.4960	76.9819
 1.4950	76.7541
 1.4940	76.5973
 1.4930	76.3807
 1.4920	76.1084
 1.4910	75.9930
 1.4900	75.9696
 1.4890	75.9065
 1.4880	75.8704
 1.4870	75.8010
 1.4860	75.7844
 1.4850	75.7978
 1.4840	75.6759
 1.4830	75.5274
 1.4820	75.3966
 1.4810	75.3204
 1.4800	75.2094
 1.4790	75.1224
 1.4780	75.1054
 1.4770	75.1808
 1.4760	75.2330
 1.4750	75.3618
 1.4740	75.4653
 1.4730	75.4786
 1.4720	75.4942
 1.4710	75.5370
 1.4700	75.5996
 1.4690	75.6723
 1.4680	75.6814
 1.4670	75.6418
 1.4660	75.6018
 1.4650	75.6348
 1.4640	75.6044
 1.4630	75.5009
 1.4620	75.2521
 1.4610	74.9882
 1.4600	74.6617
 1.4590	74.3916
 1.4580	74.1366
 1.4570	74.0872
 1.4560	74.0050
 1.4550	73.9484
 1.4540	73.8947
 1.4530	73.8478
 1.4520	73.7148
 1.4510	73.5632
 1.4500	73.3301
 1.4490	73.0335
 1.4480	72.6897
 1.4470	72.3705
 1.4460	71.9436
 1.4450	71.5166
 1.4440	71.0425
 1.4430	70.6580
 1.4420	70.1207
 1.4410	69.6232
 1.4400	69.1193
 1.4390	68.7484
 1.4380	68.4872
 1.4370	68.3581
 1.4360	68.3639
 1.4350	68.5296
 1.4340	68.7501
 1.4330	68.9234
 1.4320	68.9996
 1.4310	69.0437
 1.4300	68.9178
 1.4290	68.7841
 1.4280	68.4389
 1.4270	68.0866
 1.4260	67.6186
 1.4250	67.1266
 1.4240	66.4087
 1.4230	65.7283
 1.4220	65.0149
 1.4210	64.0831
 1.4200	63.1223
 1.4190	62.2570
 1.4180	61.5713
 1.4170	61.1875
 1.4160	60.8594
 1.4150	60.5304
 1.4140	59.9569
 1.4130	59.0233
 1.4120	57.6665
 1.4110	55.9847
 1.4100	53.7488
 1.4090	51.2325
 1.4080	48.1882
 1.4070	44.6277
 1.4060	40.6994
 1.4050	36.4810
 1.4040	32.4165
 1.4030	28.3365
 1.4020	23.8967
 1.4010	19.2581
 1.4000	14.9416
 1.3990	12.6140
 1.3980	11.9826
 1.3970	13.7561
 1.3960	17.0501
 1.3950	21.9106
 1.3940	26.8502
 1.3930	31.6549
 1.3920	35.6494
 1.3910	39.1722
 1.3900	41.5814
 1.3890	43.3251
 1.3880	44.6053
 1.3870	45.7681
 1.3860	46.7788
 1.3850	47.6988
 1.3840	48.2889
 1.3830	48.6431
 1.3820	48.9820
 1.3810	49.7730
 1.3800	50.6465
 1.3790	52.2268
 1.3780	53.9403
 1.3770	56.1148
 1.3760	57.9703
 1.3750	59.6713
 1.3740	60.8514
 1.3730	61.7264
 1.3720	62.3580
 1.3710	62.5288
 1.3700	62.0743
 1.3690	60.9337
 1.3680	58.4891
 1.3670	54.5063
 1.3660	49.5757
 1.3650	44.3736
 1.3640	40.1605
 1.3630	38.2817
 1.3620	39.5044
 1.3610	43.6374
 1.3600	49.7670
 1.3590	56.2594
 1.3580	61.9026
 1.3570	65.9426
 1.3560	67.9825
 1.3550	69.0512
 1.3540	69.8599
 1.3530	70.3782
 1.3520	70.5821
 1.3510	70.5796
 1.3500	70.3028
 1.3490	69.9658
 1.3480	69.4517
 1.3470	69.0868
 1.3460	68.4393
 1.3450	67.9703
 1.3440	67.7393
 1.3430	67.9322
 1.3420	68.3439
 1.3410	69.0163
 1.3400	69.4701
 1.3390	70.0320
 1.3380	70.2146
 1.3370	70.2324
 1.3360	70.3293
 1.3350	70.4555
 1.3340	70.7741
 1.3330	71.1218
 1.3320	71.2902
 1.3310	71.5125
 1.3300	71.4504
 1.3290	71.5133
 1.3280	71.3457
 1.3270	71.2032
 1.3260	71.0623
 1.3250	71.1354
 1.3240	71.0373
 1.3230	71.1163
 1.3220	71.1222
 1.3210	71.1683
 1.3200	71.0892
 1.3190	71.0398
 1.3180	70.8835
 1.3170	70.8277
 1.3160	70.7064
 1.3150	70.9485
 1.3140	71.3025
 1.3130	71.7876
 1.3120	72.1337
 1.3110	72.4523
 1.3100	72.4310
 1.3090	72.2514
 1.3080	71.8498
 1.3070	71.1397
 1.3060	70.4886
 1.3050	69.7543
 1.3040	68.7190
 1.3030	67.9451
 1.3020	67.2432
 1.3010	66.8658
 1.3000	66.7618
 1.2990	66.8985
 1.2980	67.3447
 1.2970	68.0062
 1.2960	68.6493
 1.2950	69.3636
 1.2940	70.0654
 1.2930	70.7981
 1.2920	71.3823
 1.2910	72.0713
 1.2900	72.5837
 1.2890	73.0394
 1.2880	73.4122
 1.2870	73.8455
 1.2860	74.1776
 1.2850	74.5946
 1.2840	74.8180
 1.2830	75.2112
 1.2820	75.4927
 1.2810	75.8303
 1.2800	76.1320
 1.2790	76.3894
 1.2780	76.5795
 1.2770	76.8455
 1.2760	76.9702
 1.2750	77.1841
 1.2740	77.2159
 1.2730	77.3343
 1.2720	77.4544
 1.2710	77.4338
 1.2700	77.4769
 1.2690	77.4716
 1.2680	77.4564
 1.2670	77.4774
 1.2660	77.5271
 1.2650	77.4868
 1.2640	77.4389
 1.2630	77.3292
 1.2620	77.1699
 1.2610	77.0254
 1.2600	76.8692
 1.2590	76.7209
 1.2580	76.5294
 1.2570	76.4195
 1.2560	76.3326
 1.2550	76.2406
 1.2540	76.1987
 1.2530	76.1760
 1.2520	76.1659
 1.2510	76.1580
 1.2500	76.1835
 1.2490	76.2539
 1.2480	76.2477
 1.2470	76.1621
 1.2460	76.1191
 1.2450	76.0350
 1.2440	75.9537
 1.2430	75.9092
 1.2420	75.7694
 1.2410	75.7232
 1.2400	75.6638
 1.2390	75.6446
 1.2380	75.6990
 1.2370	75.8807
 1.2360	76.1274
 1.2350	76.2837
 1.2340	76.4681
 1.2330	76.6904
 1.2320	76.8423
 1.2310	76.9983
 1.2300	76.9507
 1.2290	76.9856
 1.2280	77.1622
 1.2270	77.2547
 1.2260	77.3362
 1.2250	77.3580
 1.2240	77.3186
 1.2230	77.3434
 1.2220	77.3041
 1.2210	77.2489
 1.2200	77.3171
 1.2190	77.3346
 1.2180	77.2463
 1.2170	77.2526
 1.2160	77.2358
 1.2150	77.2300
 1.2140	77.2524
 1.2130	77.2232
 1.2120	77.2272
 1.2110	77.3362
 1.2100	77.4168
 1.2090	77.3832
 1.2080	77.4392
 1.2070	77.4753
 1.2060	77.4382
 1.2050	77.4433
 1.2040	77.4809
 1.2030	77.4686
 1.2020	77.3681
 1.2010	77.3433
 1.2000	77.2736
 1.1990	77.1981
 1.1980	77.1863
 1.1970	77.1104
 1.1960	77.0678
 1.1950	77.1396
 1.1940	77.0904
 1.1930	76.9626
 1.1920	76.9588
 1.1910	76.9970
 1.1900	76.9670
 1.1890	76.9015
 1.1880	76.8022
 1.1870	76.7758
 1.1860	76.7990
 1.1850	76.7349
 1.1840	76.7301
 1.1830	76.7957
 1.1820	76.7293
 1.1810	76.6233
 1.1800	76.6246
 1.1790	76.5897
 1.1780	76.5642
 1.1770	76.5134
 1.1760	76.5228
 1.1750	76.4359
 1.1740	76.4140
 1.1730	76.3624
 1.1720	76.3403
 1.1710	76.2684
 1.1700	76.2582
 1.1690	76.2011
 1.1680	76.1723
 1.1670	76.2224
 1.1660	76.2314
 1.1650	76.1524
 1.1640	76.0141
 1.1630	75.9568
 1.1620	75.9527
 1.1610	75.9378
 1.1600	75.9601
 1.1590	76.0175
 1.1580	75.9629
 1.1570	75.9547
 1.1560	75.8921
 1.1550	75.9101
 1.1540	75.9443
 1.1530	75.8925
 1.1520	75.8673
 1.1510	75.8723
 1.1500	75.8512
 1.1490	75.7958
 1.1480	75.7556
 1.1470	75.6839
 1.1460	75.6202
 1.1450	75.6429
 1.1440	75.6020
 1.1430	75.5341
 1.1420	75.5343
 1.1410	75.4987
 1.1400	75.4293
 1.1390	75.2995
 1.1380	75.3390
 1.1370	75.2562
 1.1360	75.2532
 1.1350	75.1486
 1.1340	75.1279
 1.1330	75.0077
 1.1320	75.0731
 1.1310	75.0162
 1.1300	74.9862
 1.1290	74.8309
 1.1280	74.7779
 1.1270	74.8847
 1.1260	74.6754
 1.1250	74.6925
 1.1240	74.5951
 1.1230	74.4958
 1.1220	74.5653
 1.1210	74.4894
 1.1200	74.4176
 1.1190	74.3265
 1.1180	74.4353
 1.1170	74.3737
 1.1160	74.3112
 1.1150	74.2821
 1.1140	74.2183
 1.1130	74.0770
 1.1120	74.0875
 1.1110	74.0396
 1.1100	73.9592
 1.1090	73.9134
 1.1080	73.8626
 1.1070	73.9280
 1.1060	73.6691
 1.1050	73.7527
 1.1040	73.7189
 1.1030	73.7546
 1.1020	73.6190
 1.1010	73.5557
 1.1000	73.5719
 1.0990	73.4655
 1.0980	73.4381
 1.0970	73.3605
 1.0960	73.3180
 1.0950	73.2642
 1.0940	73.2801
 1.0930	73.2234
 1.0920	73.2638
 1.0910	73.1759
 1.0900	73.1554
 1.0890	73.1613
 1.0880	73.1268
 1.0870	73.0419
 1.0860	73.0102
 1.0850	72.8120
 1.0840	72.9324
 1.0830	72.9099
 1.0820	72.7626
 1.0810	72.6795
 1.0800	72.7617
 1.0790	72.7862
 1.0780	72.7068
 1.0770	72.6549
 1.0760	72.5823
 1.0750	72.6117
 1.0740	72.5317
 1.0730	72.4590
 1.0720	72.4328
 1.0710	72.4423
 1.0700	72.3671
 1.0690	72.3793
 1.0680	72.2778
 1.0670	72.2796
 1.0660	72.4090
 1.0650	72.3248
 1.0640	72.3552
 1.0630	72.0940
 1.0620	72.2188
 1.0610	72.2628
 1.0600	72.3220
 1.0590	72.1726
 1.0580	72.2191
 1.0570	72.1318
 1.0560	72.0694
 1.0550	72.0232
 1.0540	72.0945
 1.0530	72.0937
 1.0520	72.0089
 1.0510	71.9003
 1.0500	72.0495
 1.0490	71.9640
 1.0480	71.8116
 1.0470	71.9604
 1.0460	71.9144
 1.0450	71.9450
 1.0440	71.8853
 1.0430	71.8530
 1.0420	71.9841
 1.0410	71.8990
 1.0400	71.8980
 1.0390	71.8184
 1.0380	71.8242
 1.0370	71.9135
 1.0360	71.8016
 1.0350	71.8459
 1.0340	71.8217
 1.0330	71.9336
 1.0320	71.9163
 1.0310	71.8557
 1.0300	71.8677
 1.0290	71.7820
 1.0280	71.7683
 1.0270	71.7617
 1.0260	71.8296
 1.0250	71.7949
 1.0240	71.8003
 1.0230	71.6845
 1.0220	71.9084
 1.0210	71.8304
 1.0200	71.7945
 1.0190	71.8369
 1.0180	71.8522
 1.0170	71.8649
 1.0160	71.9195
 1.0150	71.8029
 1.0140	71.9037
 1.0130	71.8911
 1.0120	71.8778
 1.0110	71.9388
 1.0100	71.9003
 1.0090	71.8653
 1.0080	71.8279
 1.0070	71.7964
 1.0060	71.9108
 1.0050	71.8802
 1.0040	71.8450
 1.0030	71.8930
 1.0020	71.8934
 1.0010	71.9006
 1.0000	71.8058
 0.9990	71.7962
 0.9980	71.8081
 0.9970	71.8119
 0.9960	71.8337
 0.9950	71.8366
 0.9940	71.8410
 0.9930	71.8949
 0.9920	71.9002
 0.9910	71.7762
 0.9900	71.8161
 0.9890	71.8172
 0.9880	71.8819
 0.9870	71.8292
 0.9860	71.8886
 0.9850	71.8627
 0.9840	71.8759
 0.9830	71.8998
 0.9820	71.8992
 0.9810	71.7940
 0.9800	71.8160
 0.9790	71.7886
 0.9780	71.8541
 0.9770	71.8060
 0.9760	71.7921
 0.9750	71.7295
 0.9740	71.7014
 0.9730	71.6465
 0.9720	71.5652
 0.9710	71.4709
 0.9700	71.4098
 0.9690	71.2134
 0.9680	71.0326
 0.9670	70.8165
 0.9660	70.4938
 0.9650	70.1786
 0.9640	69.7647
 0.9630	69.0692
 0.9620	68.2242
 0.9610	66.8628
 0.9600	64.8938
 0.9590	62.3820
 0.9580	59.5869
 0.9570	57.1284
 0.9560	55.4009
 0.9550	54.9229
 0.9540	55.9801
 0.9530	58.0557
 0.9520	60.5401
 0.9510	62.9936
 0.9500	65.0539
 0.9490	66.4775
 0.9480	67.3258
 0.9470	67.9141
 0.9460	68.4107
 0.9450	68.8393
 0.9440	69.2737
 0.9430	69.7148
 0.9420	70.1047
 0.9410	70.4421
 0.9400	70.7513
 0.9390	70.9324
 0.9380	71.0680
 0.9370	71.2306
 0.9360	71.2752
 0.9350	71.2765
 0.9340	71.2969
 0.9330	71.3252
 0.9320	71.3744
 0.9310	71.2950
 0.9300	71.1263
 0.9290	70.9932
 0.9280	70.8245
 0.9270	70.6446
 0.9260	70.4592
 0.9250	70.2041
 0.9240	70.0552
 0.9230	70.1507
 0.9220	70.4037
 0.9210	70.5496
 0.9200	70.6638
 0.9190	70.8383
 0.9180	70.9729
 0.9170	71.1278
 0.9160	71.2512
 0.9150	71.3235
 0.9140	71.3296
 0.9130	71.2985
 0.9120	71.2773
 0.9110	71.3437
 0.9100	71.3857
 0.9090	71.4580
 0.9080	71.4641
 0.9070	71.4141
 0.9060	71.3772
 0.9050	71.3811
 0.9040	71.4305
 0.9030	71.4144
 0.9020	71.3817
 0.9010	71.3288
 0.9000	71.2786
 0.8990	71.2869
 0.8980	71.2137
 0.8970	71.1892
 0.8960	71.2698
 0.8950	71.3017
 0.8940	71.2740
 0.8930	71.2607
 0.8920	71.2596
 0.8910	71.3259
 0.8900	71.3652
 0.8890	71.3714
 0.8880	71.3397
 0.8870	71.3913
 0.8860	71.4143
 0.8850	71.3908
 0.8840	71.3874
 0.8830	71.4198
 0.8820	71.4422
 0.8810	71.4234
 0.8800	71.4915
 0.8790	71.4887
 0.8780	71.4593
 0.8770	71.4700
 0.8760	71.5349
 0.8750	71.5784
 0.8740	71.5575
 0.8730	71.5690
 0.8720	71.6269
 0.8710	71.6080
 0.8700	71.6880
 0.8690	71.6878
 0.8680	71.6954
 0.8670	71.7216
 0.8660	71.6849
 0.8650	71.7599
 0.8640	71.7515
 0.8630	71.8716
 0.8620	71.8713
 0.8610	71.9612
 0.8600	72.1723
 0.8590	72.2535
 0.8580	72.2276
 0.8570	72.2986
 0.8560	72.3324
 0.8550	72.3687
 0.8540	72.4817
 0.8530	72.5203
 0.8520	72.5754
 0.8510	72.5826
 0.8500	72.6649
 0.8490	72.7112
 0.8480	72.8621
 0.8470	72.9384
 0.8460	73.0151
 0.8450	73.0524
 0.8440	73.0879
 0.8430	73.1908
 0.8420	73.3055
 0.8410	73.3142
 0.8400	73.4067
 0.8390	73.4675
 0.8380	73.5264
 0.8370	73.6220
 0.8360	73.7078
 0.8350	73.7228
 0.8340	73.8323
 0.8330	73.9073
 0.8320	74.0091
 0.8310	74.0973
 0.8300	74.1384
 0.8290	74.1934
 0.8280	74.2758
 0.8270	74.4002
 0.8260	74.5026
 0.8250	74.6022
 0.8240	74.6550
 0.8230	74.7418
 0.8220	74.8344
 0.8210	74.9573
 0.8200	74.9994
 0.8190	75.1045
 0.8180	75.2345
 0.8170	75.2994
 0.8160	75.3942
 0.8150	75.4828
 0.8140	75.5761
 0.8130	75.7000
 0.8120	75.7861
 0.8110	75.9186
 0.8100	75.9700
 0.8090	76.0808
 0.8080	76.1365
 0.8070	76.2809
 0.8060	76.3595
 0.8050	76.4676
 0.8040	76.5320
 0.8030	76.6633
 0.8020	76.8011
 0.8010	76.9108
 0.8000	77.0047
 0.7990	77.1195
 0.7980	77.1448
 0.7970	77.2583
 0.7960	77.3256
 0.7950	77.4645
 0.7940	77.5549
 0.7930	77.6580
 0.7920	77.7379
 0.7910	77.8470
 0.7900	77.9909
 0.7890	78.1161
 0.7880	78.2035
 0.7870	78.2794
 0.7860	78.3959
 0.7850	78.4891
 0.7840	78.6217
 0.7830	78.7164
 0.7820	78.8355
 0.7810	78.9087
 0.7800	79.0127
 0.7790	79.0497
 0.7780	79.2139
 0.7770	79.2766
 0.7760	79.3915
 0.7750	79.5195
 0.7740	79.6000
 0.7730	79.7266
 0.7720	79.7915
 0.7710	79.9118
 0.7700	79.9730
 0.7690	80.0686
 0.7680	80.1636
 0.7670	80.2624
 0.7660	80.3677
 0.7650	80.4908
 0.7640	80.5670
 0.7630	80.6360
 0.7620	80.7695
 0.7610	80.8484
 0.7600	80.9341
 0.7590	81.0678
 0.7580	81.1380
 0.7570	81.1906
 0.7560	81.3142
 0.7550	81.4091
 0.7540	81.4869
 0.7530	81.5582
 0.7520	81.6334
 0.7510	81.7205
 0.7500	81.8226
 0.7490	81.8900
 0.7480	81.9807
 0.7470	82.0350
 0.7460	82.0997
 0.7450	82.1842
 0.7440	82.2058
 0.7430	82.2240
 0.7420	82.2480
 0.7410	82.2206
 0.7400	82.2025
 0.7390	82.1301
 0.7380	81.9356
 0.7370	81.6405
 0.7360	81.1663
 0.7350	80.7160
 0.7340	80.4025
 0.7330	80.3789
 0.7320	80.7556
 0.7310	81.3350
 0.7300	81.8949
 0.7290	82.3428
 0.7280	82.6566
 0.7270	82.8916
 0.7260	83.0865
 0.7250	83.2286
 0.7240	83.3486
 0.7230	83.4554
 0.7220	83.5614
 0.7210	83.6384
 0.7200	83.7095
 0.7190	83.7646
 0.7180	83.8117
 0.7170	83.8577
 0.7160	83.8872
 0.7150	83.9175
 0.7140	83.9553
 0.7130	83.9897
 0.7120	83.9904
 0.7110	84.0374
 0.7100	84.0470
 0.7090	84.0531
 0.7080	84.0621
 0.7070	84.0768
 0.7060	84.1004
 0.7050	84.1316
 0.7040	84.1774
 0.7030	84.1759
 0.7020	84.1997
 0.7010	84.2327
 0.7000	84.2225
 0.6990	84.2214
 0.6980	84.2407
 0.6970	84.2326
 0.6960	84.2186
 0.6950	84.2441
 0.6940	84.2149
 0.6930	84.1963
 0.6920	84.1983
 0.6910	84.1699
 0.6900	84.1798
 0.6890	84.1767
 0.6880	84.1402
 0.6870	84.1541
 0.6860	84.1426
 0.6850	84.1205
 0.6840	84.1130
 0.6830	84.1001
 0.6820	84.0776
 0.6810	84.0496
 0.6800	84.0225
 0.6790	83.9911
 0.6780	83.9657
 0.6770	83.9395
 0.6760	83.9178
 0.6750	83.9073
 0.6740	83.8820
 0.6730	83.8675
 0.6720	83.8309
 0.6710	83.8000
 0.6700	83.7851
 0.6690	83.7719
 0.6680	83.7392
 0.6670	83.7092
 0.6660	83.6694
 0.6650	83.6506
 0.6640	83.6340
 0.6630	83.5864
 0.6620	83.5484
 0.6610	83.5445
 0.6600	83.5041
 0.6590	83.4662
 0.6580	83.4523
 0.6570	83.4287
 0.6560	83.3973
 0.6550	83.3541
 0.6540	83.3164
 0.6530	83.2796
 0.6520	83.2645
 0.6510	83.2363
 0.6500	83.1808
 0.6490	83.1440
 0.6480	83.1037
 0.6470	83.0722
 0.6460	83.0544
 0.6450	83.0039
 0.6440	82.9636
 0.6430	82.9367
 0.6420	82.8934
 0.6410	82.8421
 0.6400	82.7911
 0.6390	82.7551
 0.6380	82.7042
 0.6370	82.6581
 0.6360	82.6250
 0.6350	82.5881
 0.6340	82.5369
 0.6330	82.4895
 0.6320	82.4406
 0.6310	82.3802
 0.6300	82.3268
 0.6290	82.2767
 0.6280	82.2321
 0.6270	82.1808
 0.6260	82.1167
 0.6250	82.0586
 0.6240	82.0015
 0.6230	81.9355
 0.6220	81.8789
 0.6210	81.8293
 0.6200	81.7690
 0.6190	81.7099
 0.6180	81.6372
 0.6170	81.5722
 0.6160	81.5052
 0.6150	81.4340
 0.6140	81.3658
 0.6130	81.2875
 0.6120	81.1981
 0.6110	81.1377
 0.6100	81.0717
 0.6090	80.9864
 0.6080	80.8920
 0.6070	80.8024
 0.6060	80.7209
 0.6050	80.6269
 0.6040	80.5288
 0.6030	80.4451
 0.6020	80.3363
 0.6010	80.2312
 0.6000	80.1674
 0.5990	80.1128
 0.5980	80.0684
 0.5970	80.0155
 0.5960	79.9680
 0.5950	79.9065
 0.5940	79.8194
 0.5930	79.7315
 0.5920	79.6503
 0.5910	79.5621
 0.5900	79.4543
 0.5890	79.3556
 0.5880	79.2724
 0.5870	79.1789
 0.5860	79.0870
 0.5850	78.9959
 0.5840	78.8900
 0.5830	78.7811
 0.5820	78.6745
 0.5810	78.5835
 0.5800	78.4806
 0.5790	78.3686
 0.5780	78.2761
 0.5770	78.1699
 0.5760	78.0525
 0.5750	77.9432
 0.5740	77.8424
 0.5730	77.7454
 0.5720	77.6420
 0.5710	77.5277
 0.5700	77.4123
 0.5690	77.3020
 0.5680	77.1900
 0.5670	77.0789
 0.5660	76.9636
 0.5650	76.8465
 0.5640	76.7461
 0.5630	76.6299
 0.5620	76.5178
 0.5610	76.4013
 0.5600	76.2749
 0.5590	76.1461
 0.5580	76.0360
 0.5570	75.9296
 0.5560	75.8219
 0.5550	75.7163
 0.5540	75.6040
 0.5530	75.5059
 0.5520	75.4188
 0.5510	75.3197
 0.5500	75.2385
 0.5490	75.1626
 0.5480	75.0917
 0.5470	75.0102
 0.5460	74.9249
 0.5450	74.8532
 0.5440	74.7597
 0.5430	74.6773
 0.5420	74.5639
 0.5410	74.4682
 0.5400	74.3548
 0.5390	74.2349
 0.5380	74.1243
 0.5370	74.0121
 0.5360	73.9238
 0.5350	73.8086
 0.5340	73.6909
 0.5330	73.5733
 0.5320	73.4643
 0.5310	73.3653
 0.5300	73.2418
 0.5290	73.1305
 0.5280	73.0096
 0.5270	72.8988
 0.5260	72.7703
 0.5250	72.6471
 0.5240	72.5225
 0.5230	72.3849
 0.5220	72.2515
 0.5210	72.1131
 0.5200	71.9547
 0.5190	71.8170
 0.5180	71.6678
 0.5170	71.5418
 0.5160	71.4553
 0.5150	71.3740
 0.5140	71.3060
 0.5130	71.2515
 0.5120	71.2252
 0.5110	71.2224
 0.5100	71.1895
 0.5090	71.1638
 0.5080	71.1294
 0.5070	71.0935
 0.5060	71.0366
 0.5050	70.9551
 0.5040	70.8744
 0.5030	70.8126
 0.5020	70.7240
 0.5010	70.6327
 0.5000	70.5465
 0.4990	70.4179
 0.4980	70.3449
 0.4970	70.2006
 0.4960	70.1251
 0.4950	70.0092
 0.4940	69.8974
 0.4930	69.8016
 0.4920	69.6831
 0.4910	69.5386
 0.4900	69.4320
 0.4890	69.2922
 0.4880	69.1673
 0.4870	69.0014
 0.4860	68.8550
 0.4850	68.6731
 0.4840	68.4985
 0.4830	68.3381
 0.4820	68.1514
 0.4810	67.9566
 0.4800	67.7931
 0.4790	67.6156
 0.4780	67.4461
 0.4770	67.2784
 0.4760	67.1116
 0.4750	66.9407
 0.4740	66.7644
 0.4730	66.6189
 0.4720	66.4267
 0.4710	66.2493
 0.4700	66.0824
 0.4690	65.8908
 0.4680	65.6804
 0.4670	65.4398
 0.4660	65.2065
 0.4650	64.9540
 0.4640	64.6496
 0.4630	64.3344
 0.4620	64.0174
 0.4610	63.6637
 0.4600	63.3232
 0.4590	62.9305
 0.4580	62.5410
 0.4570	62.1152
 0.4560	61.6738
 0.4550	61.2067
 0.4540	60.7082
 0.4530	60.2077
 0.4520	59.7005
 0.4510	59.1615
 0.4500	58.6242
 0.4490	58.0858
 0.4480	57.5490
 0.4470	57.0167
 0.4460	56.4762
 0.4450	55.9587
 0.4440	55.4537
 0.4430	54.9652
 0.4420	54.4892
 0.4410	54.0595
 0.4400	53.5807
 0.4390	53.1373
 0.4380	52.6683
 0.4370	52.2227
 0.4360	51.7421
 0.4350	51.2793
 0.4340	50.8300
 0.4330	50.3759
 0.4320	49.9643
 0.4310	49.5318
 0.4300	49.1438
 0.4290	48.7602
 0.4280	48.3923
 0.4270	48.0415
 0.4260	47.6819
 0.4250	47.3210
 0.4240	46.9656
 0.4230	46.6207
 0.4220	46.2544
 0.4210	45.8892
 0.4200	45.5152
 0.4190	45.1160
 0.4180	44.6988
 0.4170	44.2664
 0.4160	43.8169
 0.4150	43.3469
 0.4140	42.8537
 0.4130	42.3479
 0.4120	41.8215
 0.4110	41.2731
 0.4100	40.7403
 0.4090	40.1948
 0.4080	39.6393
 0.4070	39.0973
 0.4060	38.5463
 0.4050	38.0003
 0.4040	37.4232
 0.4030	36.8447
 0.4020	36.2917
 0.4010	35.7280
 0.4000	35.1772
