Name: Marcasite FeS_2
Type: Mineral
Class: Sulfide
Subclass: None
Particle Size: Medium
Sample No.: S-10A
Owner: JPL
Wavelength Range: VSWIR
Origin: USA, Indiana, Jasper County, Rensselaer, Pleasant Ridge Quarry.
Collection Date: N/A
Description: Particle size was 45-125um.Collected by:  Ward's Original ASTER Spectral Library name was jpl.perkin.mineral.sulfide.none.medium.s10a.spectrum.txt
Measurement: Hemispherical reflectance
First Column: X
Second Column: Y
X Units: Wavelength (micrometers)
Y Units:Reflectance (percent)
First X Value:  2.5000
Last X Value:  0.4000
Number of X Values: 2101
Additional Information: mineral.sulfide.none.medium.vswir.s-10a.jpl.perkin.ancillary.txt

 2.5000	 8.5918
 2.4990	 8.3774
 2.4980	 8.6078
 2.4970	 8.7762
 2.4960	 8.0716
 2.4950	 8.8225
 2.4940	 8.3390
 2.4930	 8.7814
 2.4920	 8.2808
 2.4910	 8.6647
 2.4900	 8.5489
 2.4890	 8.6615
 2.4880	 8.5143
 2.4870	 8.7563
 2.4860	 8.5391
 2.4850	 8.6629
 2.4840	 8.5772
 2.4830	 8.6892
 2.4820	 8.5042
 2.4810	 8.8948
 2.4800	 8.5120
 2.4790	 8.7358
 2.4780	 8.3821
 2.4770	 8.7837
 2.4760	 8.5228
 2.4750	 8.6648
 2.4740	 8.5030
 2.4730	 8.6615
 2.4720	 8.4038
 2.4710	 8.6667
 2.4700	 8.5058
 2.4690	 8.6121
 2.4680	 8.5154
 2.4670	 8.7310
 2.4660	 8.5304
 2.4650	 8.7995
 2.4640	 8.5359
 2.4630	 8.7203
 2.4620	 8.5277
 2.4610	 8.7131
 2.4600	 8.5251
 2.4590	 8.6908
 2.4580	 8.4973
 2.4570	 8.6351
 2.4560	 8.6061
 2.4550	 8.7058
 2.4540	 8.5719
 2.4530	 8.6978
 2.4520	 8.6512
 2.4510	 8.6688
 2.4500	 8.5622
 2.4490	 8.7855
 2.4480	 8.6173
 2.4470	 8.6647
 2.4460	 8.5323
 2.4450	 8.6164
 2.4440	 8.5839
 2.4430	 8.6545
 2.4420	 8.5596
 2.4410	 8.7762
 2.4400	 8.5985
 2.4390	 8.6919
 2.4380	 8.5531
 2.4370	 8.6500
 2.4360	 8.6479
 2.4350	 8.7318
 2.4340	 8.6440
 2.4330	 8.7283
 2.4320	 8.6075
 2.4310	 8.7152
 2.4300	 8.6071
 2.4290	 8.6941
 2.4280	 8.5901
 2.4270	 8.6666
 2.4260	 8.6977
 2.4250	 8.6664
 2.4240	 8.5861
 2.4230	 8.8012
 2.4220	 8.6228
 2.4210	 8.7249
 2.4200	 8.6381
 2.4190	 8.7019
 2.4180	 8.6055
 2.4170	 8.6557
 2.4160	 8.6097
 2.4150	 8.6889
 2.4140	 8.6019
 2.4130	 8.6532
 2.4120	 8.5661
 2.4110	 8.6930
 2.4100	 8.6454
 2.4090	 8.6507
 2.4080	 8.6087
 2.4070	 8.6200
 2.4060	 8.6149
 2.4050	 8.6941
 2.4040	 8.7064
 2.4030	 8.7369
 2.4020	 8.6541
 2.4010	 8.7306
 2.4000	 8.6307
 2.3990	 8.6722
 2.3980	 8.6913
 2.3970	 8.6812
 2.3960	 8.6657
 2.3950	 8.7205
 2.3940	 8.6968
 2.3930	 8.7026
 2.3920	 8.6971
 2.3910	 8.6772
 2.3900	 8.6940
 2.3890	 8.7350
 2.3880	 8.6601
 2.3870	 8.7069
 2.3860	 8.6676
 2.3850	 8.6248
 2.3840	 8.6835
 2.3830	 8.7917
 2.3820	 8.7498
 2.3810	 8.7411
 2.3800	 8.7054
 2.3790	 8.7932
 2.3780	 8.7429
 2.3770	 8.7391
 2.3760	 8.7707
 2.3750	 8.7559
 2.3740	 8.7462
 2.3730	 8.7365
 2.3720	 8.7241
 2.3710	 8.7444
 2.3700	 8.6978
 2.3690	 8.7053
 2.3680	 8.7067
 2.3670	 8.7106
 2.3660	 8.7439
 2.3650	 8.7667
 2.3640	 8.7454
 2.3630	 8.7463
 2.3620	 8.7590
 2.3610	 8.7562
 2.3600	 8.7197
 2.3590	 8.7821
 2.3580	 8.8016
 2.3570	 8.7579
 2.3560	 8.7479
 2.3550	 8.7204
 2.3540	 8.7345
 2.3530	 8.7408
 2.3520	 8.7393
 2.3510	 8.7712
 2.3500	 8.7472
 2.3490	 8.7655
 2.3480	 8.7934
 2.3470	 8.7335
 2.3460	 8.7383
 2.3450	 8.7328
 2.3440	 8.7188
 2.3430	 8.7024
 2.3420	 8.7516
 2.3410	 8.7297
 2.3400	 8.7799
 2.3390	 8.7799
 2.3380	 8.7302
 2.3370	 8.7292
 2.3360	 8.8078
 2.3350	 8.7889
 2.3340	 8.7461
 2.3330	 8.7443
 2.3320	 8.7882
 2.3310	 8.7832
 2.3300	 8.7750
 2.3290	 8.7737
 2.3280	 8.8002
 2.3270	 8.7446
 2.3260	 8.8016
 2.3250	 8.7986
 2.3240	 8.7561
 2.3230	 8.7159
 2.3220	 8.7185
 2.3210	 8.7564
 2.3200	 8.8238
 2.3190	 8.7349
 2.3180	 8.7977
 2.3170	 8.7347
 2.3160	 8.7890
 2.3150	 8.7869
 2.3140	 8.7779
 2.3130	 8.7523
 2.3120	 8.7568
 2.3110	 8.7581
 2.3100	 8.7698
 2.3090	 8.7205
 2.3080	 8.7622
 2.3070	 8.7303
 2.3060	 8.7660
 2.3050	 8.8030
 2.3040	 8.8332
 2.3030	 8.7826
 2.3020	 8.8055
 2.3010	 8.7776
 2.3000	 8.7757
 2.2990	 8.6896
 2.2980	 8.8187
 2.2970	 8.7665
 2.2960	 8.7980
 2.2950	 8.7828
 2.2940	 8.8398
 2.2930	 8.7476
 2.2920	 8.7780
 2.2910	 8.7386
 2.2900	 8.8011
 2.2890	 8.7233
 2.2880	 8.7826
 2.2870	 8.7511
 2.2860	 8.7859
 2.2850	 8.7518
 2.2840	 8.7537
 2.2830	 8.7304
 2.2820	 8.8372
 2.2810	 8.6918
 2.2800	 8.7613
 2.2790	 8.7549
 2.2780	 8.7774
 2.2770	 8.6647
 2.2760	 8.8122
 2.2750	 8.7206
 2.2740	 8.8177
 2.2730	 8.7099
 2.2720	 8.7649
 2.2710	 8.7415
 2.2700	 8.7917
 2.2690	 8.7443
 2.2680	 8.8075
 2.2670	 8.7341
 2.2660	 8.8262
 2.2650	 8.7845
 2.2640	 8.7967
 2.2630	 8.7495
 2.2620	 8.7711
 2.2610	 8.7394
 2.2600	 8.8080
 2.2590	 8.7589
 2.2580	 8.8364
 2.2570	 8.7729
 2.2560	 8.8035
 2.2550	 8.6924
 2.2540	 8.8027
 2.2530	 8.7979
 2.2520	 8.8371
 2.2510	 8.7591
 2.2500	 8.8613
 2.2490	 8.7871
 2.2480	 8.8645
 2.2470	 8.7533
 2.2460	 8.7732
 2.2450	 8.7389
 2.2440	 8.7685
 2.2430	 8.6996
 2.2420	 8.9516
 2.2410	 8.7508
 2.2400	 8.7961
 2.2390	 8.7920
 2.2380	 8.8129
 2.2370	 8.7310
 2.2360	 8.8395
 2.2350	 8.8156
 2.2340	 8.8699
 2.2330	 8.7851
 2.2320	 8.8224
 2.2310	 8.7909
 2.2300	 8.8213
 2.2290	 8.7008
 2.2280	 8.8365
 2.2270	 8.7616
 2.2260	 8.8545
 2.2250	 8.7346
 2.2240	 8.8182
 2.2230	 8.7673
 2.2220	 8.8424
 2.2210	 8.7114
 2.2200	 8.8211
 2.2190	 8.6749
 2.2180	 8.8490
 2.2170	 8.7458
 2.2160	 8.8311
 2.2150	 8.7527
 2.2140	 8.8166
 2.2130	 8.7502
 2.2120	 8.9332
 2.2110	 8.6791
 2.2100	 8.9154
 2.2090	 8.6919
 2.2080	 8.8438
 2.2070	 8.7599
 2.2060	 8.8032
 2.2050	 8.7965
 2.2040	 8.8769
 2.2030	 8.7954
 2.2020	 8.8024
 2.2010	 8.8030
 2.2000	 8.8906
 2.1990	 8.8300
 2.1980	 8.8617
 2.1970	 8.8059
 2.1960	 8.9395
 2.1950	 8.7897
 2.1940	 8.9602
 2.1930	 8.7767
 2.1920	 9.0147
 2.1910	 8.7783
 2.1900	 8.8685
 2.1890	 8.8281
 2.1880	 8.8932
 2.1870	 8.7314
 2.1860	 8.8576
 2.1850	 8.8454
 2.1840	 8.9360
 2.1830	 8.8879
 2.1820	 8.9185
 2.1810	 8.8752
 2.1800	 8.9419
 2.1790	 8.8101
 2.1780	 8.9735
 2.1770	 8.8181
 2.1760	 8.9224
 2.1750	 8.8364
 2.1740	 8.9215
 2.1730	 8.8546
 2.1720	 8.9009
 2.1710	 8.8560
 2.1700	 8.9411
 2.1690	 8.8273
 2.1680	 8.9151
 2.1670	 8.9068
 2.1660	 8.8742
 2.1650	 8.9383
 2.1640	 8.9167
 2.1630	 8.8774
 2.1620	 8.9611
 2.1610	 8.8964
 2.1600	 8.9071
 2.1590	 8.8979
 2.1580	 8.9017
 2.1570	 8.8621
 2.1560	 8.9385
 2.1550	 8.8164
 2.1540	 8.9479
 2.1530	 8.8670
 2.1520	 8.9535
 2.1510	 8.9152
 2.1500	 8.9373
 2.1490	 8.8499
 2.1480	 8.9474
 2.1470	 8.8982
 2.1460	 8.9572
 2.1450	 8.9525
 2.1440	 8.9436
 2.1430	 8.9680
 2.1420	 8.9685
 2.1410	 8.9595
 2.1400	 8.9106
 2.1390	 8.8347
 2.1380	 8.8898
 2.1370	 8.9210
 2.1360	 8.9880
 2.1350	 8.8453
 2.1340	 8.8602
 2.1330	 8.8918
 2.1320	 8.9628
 2.1310	 8.8633
 2.1300	 8.8957
 2.1290	 8.9180
 2.1280	 8.9774
 2.1270	 8.8699
 2.1260	 8.9180
 2.1250	 8.8309
 2.1240	 8.8912
 2.1230	 8.8480
 2.1220	 8.8471
 2.1210	 8.8030
 2.1200	 8.8706
 2.1190	 8.8810
 2.1180	 8.8443
 2.1170	 8.8305
 2.1160	 8.8682
 2.1150	 8.8012
 2.1140	 8.7973
 2.1130	 8.8003
 2.1120	 8.8453
 2.1110	 8.7716
 2.1100	 8.8318
 2.1090	 8.7877
 2.1080	 8.7755
 2.1070	 8.7423
 2.1060	 8.7784
 2.1050	 8.7780
 2.1040	 8.7649
 2.1030	 8.7264
 2.1020	 8.7673
 2.1010	 8.7670
 2.1000	 8.7811
 2.0990	 8.7512
 2.0980	 8.7728
 2.0970	 8.7828
 2.0960	 8.7492
 2.0950	 8.6979
 2.0940	 8.7697
 2.0930	 8.7461
 2.0920	 8.7792
 2.0910	 8.7241
 2.0900	 8.7268
 2.0890	 8.7820
 2.0880	 8.7695
 2.0870	 8.6990
 2.0860	 8.7133
 2.0850	 8.7726
 2.0840	 8.7972
 2.0830	 8.7783
 2.0820	 8.7762
 2.0810	 8.7144
 2.0800	 8.7163
 2.0790	 8.7122
 2.0780	 8.7092
 2.0770	 8.7277
 2.0760	 8.7644
 2.0750	 8.7776
 2.0740	 8.7914
 2.0730	 8.8096
 2.0720	 8.7874
 2.0710	 8.7458
 2.0700	 8.7448
 2.0690	 8.7761
 2.0680	 8.7842
 2.0670	 8.7411
 2.0660	 8.7404
 2.0650	 8.7927
 2.0640	 8.7335
 2.0630	 8.7654
 2.0620	 8.7525
 2.0610	 8.7145
 2.0600	 8.7640
 2.0590	 8.8295
 2.0580	 8.7713
 2.0570	 8.7818
 2.0560	 8.7867
 2.0550	 8.7484
 2.0540	 8.7360
 2.0530	 8.7326
 2.0520	 8.7333
 2.0510	 8.8189
 2.0500	 8.7904
 2.0490	 8.8092
 2.0480	 8.8066
 2.0470	 8.7900
 2.0460	 8.7479
 2.0450	 8.7298
 2.0440	 8.7079
 2.0430	 8.7817
 2.0420	 8.7266
 2.0410	 8.7411
 2.0400	 8.7825
 2.0390	 8.7975
 2.0380	 8.7503
 2.0370	 8.8476
 2.0360	 8.8573
 2.0350	 8.8033
 2.0340	 8.7211
 2.0330	 8.7665
 2.0320	 8.7308
 2.0310	 8.7832
 2.0300	 8.7304
 2.0290	 8.7834
 2.0280	 8.7349
 2.0270	 8.7996
 2.0260	 8.7321
 2.0250	 8.7272
 2.0240	 8.7400
 2.0230	 8.7733
 2.0220	 8.7130
 2.0210	 8.7249
 2.0200	 8.7345
 2.0190	 8.7516
 2.0180	 8.7927
 2.0170	 8.7599
 2.0160	 8.6759
 2.0150	 8.7453
 2.0140	 8.7422
 2.0130	 8.7827
 2.0120	 8.7326
 2.0110	 8.7899
 2.0100	 8.7586
 2.0090	 8.7529
 2.0080	 8.6796
 2.0070	 8.7418
 2.0060	 8.6968
 2.0050	 8.7195
 2.0040	 8.7098
 2.0030	 8.7781
 2.0020	 8.6625
 2.0010	 8.7491
 2.0000	 8.6713
 1.9990	 8.7786
 1.9980	 8.7125
 1.9970	 8.7657
 1.9960	 8.6998
 1.9950	 8.7310
 1.9940	 8.6557
 1.9930	 8.6825
 1.9920	 8.6963
 1.9910	 8.6611
 1.9900	 8.6467
 1.9890	 8.7050
 1.9880	 8.6564
 1.9870	 8.6977
 1.9860	 8.6662
 1.9850	 8.6985
 1.9840	 8.6543
 1.9830	 8.7443
 1.9820	 8.6501
 1.9810	 8.6906
 1.9800	 8.5936
 1.9790	 8.6805
 1.9780	 8.6336
 1.9770	 8.7124
 1.9760	 8.6355
 1.9750	 8.7057
 1.9740	 8.5357
 1.9730	 8.7363
 1.9720	 8.5846
 1.9710	 8.6912
 1.9700	 8.5581
 1.9690	 8.6720
 1.9680	 8.6931
 1.9670	 8.6941
 1.9660	 8.5656
 1.9650	 8.6624
 1.9640	 8.5783
 1.9630	 8.6556
 1.9620	 8.5890
 1.9610	 8.7299
 1.9600	 8.5632
 1.9590	 8.6110
 1.9580	 8.5897
 1.9570	 8.6486
 1.9560	 8.4596
 1.9550	 8.6973
 1.9540	 8.5060
 1.9530	 8.6516
 1.9520	 8.4984
 1.9510	 8.6064
 1.9500	 8.5315
 1.9490	 8.6727
 1.9480	 8.5102
 1.9470	 8.6615
 1.9460	 8.4586
 1.9450	 8.6807
 1.9440	 8.5958
 1.9430	 8.6461
 1.9420	 8.5973
 1.9410	 8.6194
 1.9400	 8.5251
 1.9390	 8.6922
 1.9380	 8.4946
 1.9370	 8.6695
 1.9360	 8.4898
 1.9350	 8.6131
 1.9340	 8.5002
 1.9330	 8.6264
 1.9320	 8.5258
 1.9310	 8.5682
 1.9300	 8.4619
 1.9290	 8.5868
 1.9280	 8.4966
 1.9270	 8.6949
 1.9260	 8.3312
 1.9250	 8.7060
 1.9240	 8.4283
 1.9230	 8.6396
 1.9220	 8.4885
 1.9210	 8.6046
 1.9200	 8.4989
 1.9190	 8.6628
 1.9180	 8.5245
 1.9170	 8.5948
 1.9160	 8.5085
 1.9150	 8.6613
 1.9140	 8.4250
 1.9130	 8.6387
 1.9120	 8.4908
 1.9110	 8.6182
 1.9100	 8.5409
 1.9090	 8.5632
 1.9080	 8.5212
 1.9070	 8.5647
 1.9060	 8.4997
 1.9050	 8.6690
 1.9040	 8.5248
 1.9030	 8.6298
 1.9020	 8.4759
 1.9010	 8.6465
 1.9000	 8.4531
 1.8990	 8.5439
 1.8980	 8.4702
 1.8970	 8.5995
 1.8960	 8.5240
 1.8950	 8.6169
 1.8940	 8.5054
 1.8930	 8.5873
 1.8920	 8.5041
 1.8910	 8.6404
 1.8900	 8.5237
 1.8890	 8.6340
 1.8880	 8.5001
 1.8870	 8.6200
 1.8860	 8.4921
 1.8850	 8.6337
 1.8840	 8.5791
 1.8830	 8.5726
 1.8820	 8.5259
 1.8810	 8.5890
 1.8800	 8.4858
 1.8790	 8.5958
 1.8780	 8.5495
 1.8770	 8.6378
 1.8760	 8.4795
 1.8750	 8.5885
 1.8740	 8.5360
 1.8730	 8.5355
 1.8720	 8.4767
 1.8710	 8.5469
 1.8700	 8.5289
 1.8690	 8.5971
 1.8680	 8.5098
 1.8670	 8.6031
 1.8660	 8.4941
 1.8650	 8.5677
 1.8640	 8.5117
 1.8630	 8.6198
 1.8620	 8.5359
 1.8610	 8.5988
 1.8600	 8.5018
 1.8590	 8.5708
 1.8580	 8.4980
 1.8570	 8.5580
 1.8560	 8.4919
 1.8550	 8.5491
 1.8540	 8.5402
 1.8530	 8.5962
 1.8520	 8.5361
 1.8510	 8.6016
 1.8500	 8.5466
 1.8490	 8.5832
 1.8480	 8.5080
 1.8470	 8.5482
 1.8460	 8.4875
 1.8450	 8.5470
 1.8440	 8.4975
 1.8430	 8.5480
 1.8420	 8.4853
 1.8410	 8.5880
 1.8400	 8.4614
 1.8390	 8.5256
 1.8380	 8.4644
 1.8370	 8.5381
 1.8360	 8.5059
 1.8350	 8.4809
 1.8340	 8.4843
 1.8330	 8.5565
 1.8320	 8.4924
 1.8310	 8.5293
 1.8300	 8.4497
 1.8290	 8.4731
 1.8280	 8.4499
 1.8270	 8.4615
 1.8260	 8.4721
 1.8250	 8.4964
 1.8240	 8.5113
 1.8230	 8.5018
 1.8220	 8.4002
 1.8210	 8.4844
 1.8200	 8.4447
 1.8190	 8.4996
 1.8180	 8.4880
 1.8170	 8.5095
 1.8160	 8.4783
 1.8150	 8.4922
 1.8140	 8.5075
 1.8130	 8.5038
 1.8120	 8.4553
 1.8110	 8.4210
 1.8100	 8.4273
 1.8090	 8.5041
 1.8080	 8.4998
 1.8070	 8.4126
 1.8060	 8.3942
 1.8050	 8.4258
 1.8040	 8.4332
 1.8030	 8.4271
 1.8020	 8.4338
 1.8010	 8.4459
 1.8000	 8.4464
 1.7990	 8.4677
 1.7980	 8.4346
 1.7970	 8.4531
 1.7960	 8.4221
 1.7950	 8.4269
 1.7940	 8.4450
 1.7930	 8.4397
 1.7920	 8.4190
 1.7910	 8.4224
 1.7900	 8.3984
 1.7890	 8.3741
 1.7880	 8.4459
 1.7870	 8.4576
 1.7860	 8.3896
 1.7850	 8.3673
 1.7840	 8.3980
 1.7830	 8.4119
 1.7820	 8.3636
 1.7810	 8.4068
 1.7800	 8.3804
 1.7790	 8.3131
 1.7780	 8.3591
 1.7770	 8.3509
 1.7760	 8.3786
 1.7750	 8.4225
 1.7740	 8.3921
 1.7730	 8.3504
 1.7720	 8.3418
 1.7710	 8.3289
 1.7700	 8.3791
 1.7690	 8.3561
 1.7680	 8.3301
 1.7670	 8.3869
 1.7660	 8.3942
 1.7650	 8.3469
 1.7640	 8.3968
 1.7630	 8.3479
 1.7620	 8.3542
 1.7610	 8.2999
 1.7600	 8.3426
 1.7590	 8.3547
 1.7580	 8.3998
 1.7570	 8.3741
 1.7560	 8.3409
 1.7550	 8.2871
 1.7540	 8.3515
 1.7530	 8.3148
 1.7520	 8.3345
 1.7510	 8.2993
 1.7500	 8.3408
 1.7490	 8.3408
 1.7480	 8.3465
 1.7470	 8.2804
 1.7460	 8.3100
 1.7450	 8.2639
 1.7440	 8.3031
 1.7430	 8.3372
 1.7420	 8.3261
 1.7410	 8.2811
 1.7400	 8.3050
 1.7390	 8.2707
 1.7380	 8.3128
 1.7370	 8.2776
 1.7360	 8.2689
 1.7350	 8.2351
 1.7340	 8.2596
 1.7330	 8.2440
 1.7320	 8.3037
 1.7310	 8.1935
 1.7300	 8.2352
 1.7290	 8.2986
 1.7280	 8.2448
 1.7270	 8.2068
 1.7260	 8.2676
 1.7250	 8.2331
 1.7240	 8.2552
 1.7230	 8.2508
 1.7220	 8.3009
 1.7210	 8.1814
 1.7200	 8.2902
 1.7190	 8.2171
 1.7180	 8.2410
 1.7170	 8.2011
 1.7160	 8.2213
 1.7150	 8.2471
 1.7140	 8.2861
 1.7130	 8.1557
 1.7120	 8.2519
 1.7110	 8.2173
 1.7100	 8.1824
 1.7090	 8.1384
 1.7080	 8.2124
 1.7070	 8.2065
 1.7060	 8.2490
 1.7050	 8.1674
 1.7040	 8.1631
 1.7030	 8.1319
 1.7020	 8.2316
 1.7010	 8.1573
 1.7000	 8.1594
 1.6990	 8.1389
 1.6980	 8.1861
 1.6970	 8.1546
 1.6960	 8.2235
 1.6950	 8.0417
 1.6940	 8.1795
 1.6930	 8.1191
 1.6920	 8.2462
 1.6910	 8.1312
 1.6900	 8.1999
 1.6890	 8.1466
 1.6880	 8.2291
 1.6870	 8.0929
 1.6860	 8.1865
 1.6850	 8.1082
 1.6840	 8.1385
 1.6830	 8.0907
 1.6820	 8.2002
 1.6810	 8.1026
 1.6800	 8.1816
 1.6790	 8.0656
 1.6780	 8.1403
 1.6770	 8.0340
 1.6760	 8.1730
 1.6750	 8.1206
 1.6740	 8.1519
 1.6730	 8.0759
 1.6720	 8.0671
 1.6710	 8.0327
 1.6700	 8.1304
 1.6690	 8.2808
 1.6680	 7.9546
 1.6670	 8.1697
 1.6660	 8.1248
 1.6650	 7.9707
 1.6640	 8.0940
 1.6630	 7.9866
 1.6620	 8.0857
 1.6610	 7.9789
 1.6600	 8.1647
 1.6590	 8.0179
 1.6580	 8.1422
 1.6570	 8.0345
 1.6560	 8.0926
 1.6550	 8.0090
 1.6540	 8.1195
 1.6530	 7.9877
 1.6520	 8.0949
 1.6510	 7.9729
 1.6500	 8.0317
 1.6490	 8.0365
 1.6480	 8.0871
 1.6470	 7.9409
 1.6460	 8.0788
 1.6450	 7.9397
 1.6440	 8.0518
 1.6430	 7.9470
 1.6420	 8.1554
 1.6410	 7.8254
 1.6400	 8.0485
 1.6390	 7.9640
 1.6380	 8.0335
 1.6370	 7.9276
 1.6360	 8.0119
 1.6350	 7.9195
 1.6340	 8.0668
 1.6330	 7.9191
 1.6320	 8.0693
 1.6310	 7.7622
 1.6300	 8.0682
 1.6290	 7.9237
 1.6280	 8.0208
 1.6270	 7.9685
 1.6260	 8.0009
 1.6250	 7.9206
 1.6240	 7.9835
 1.6230	 7.9080
 1.6220	 8.0240
 1.6210	 7.7961
 1.6200	 7.9444
 1.6190	 7.9106
 1.6180	 8.0729
 1.6170	 7.9089
 1.6160	 7.9538
 1.6150	 7.9031
 1.6140	 7.9793
 1.6130	 7.8630
 1.6120	 7.9115
 1.6110	 7.8440
 1.6100	 7.8476
 1.6090	 7.8060
 1.6080	 7.9118
 1.6070	 7.8094
 1.6060	 7.9618
 1.6050	 7.8527
 1.6040	 7.9081
 1.6030	 7.8779
 1.6020	 7.9284
 1.6010	 7.8086
 1.6000	 7.9486
 1.5990	 7.8446
 1.5980	 7.8797
 1.5970	 7.8239
 1.5960	 7.9019
 1.5950	 7.7964
 1.5940	 7.8549
 1.5930	 7.7721
 1.5920	 7.9383
 1.5910	 7.8120
 1.5900	 7.9164
 1.5890	 7.7364
 1.5880	 7.8667
 1.5870	 7.8019
 1.5860	 7.7919
 1.5850	 7.8658
 1.5840	 7.9432
 1.5830	 7.7753
 1.5820	 7.8649
 1.5810	 7.7682
 1.5800	 7.7966
 1.5790	 7.8187
 1.5780	 7.7905
 1.5770	 7.7377
 1.5760	 7.8196
 1.5750	 7.7663
 1.5740	 7.8132
 1.5730	 7.7788
 1.5720	 7.8274
 1.5710	 7.7614
 1.5700	 7.7885
 1.5690	 7.7477
 1.5680	 7.7702
 1.5670	 7.7375
 1.5660	 7.7765
 1.5650	 7.7822
 1.5640	 7.7909
 1.5630	 7.6847
 1.5620	 7.6913
 1.5610	 7.6694
 1.5600	 7.7480
 1.5590	 7.7421
 1.5580	 7.7246
 1.5570	 7.6602
 1.5560	 7.7499
 1.5550	 7.6626
 1.5540	 7.7384
 1.5530	 7.6440
 1.5520	 7.6663
 1.5510	 7.7276
 1.5500	 7.7272
 1.5490	 7.6253
 1.5480	 7.6726
 1.5470	 7.6718
 1.5460	 7.6543
 1.5450	 7.6432
 1.5440	 7.7116
 1.5430	 7.6764
 1.5420	 7.6761
 1.5410	 7.6354
 1.5400	 7.6839
 1.5390	 7.6350
 1.5380	 7.6524
 1.5370	 7.6503
 1.5360	 7.6604
 1.5350	 7.6151
 1.5340	 7.6624
 1.5330	 7.5968
 1.5320	 7.6187
 1.5310	 7.6099
 1.5300	 7.6118
 1.5290	 7.6123
 1.5280	 7.6135
 1.5270	 7.6245
 1.5260	 7.6548
 1.5250	 7.5501
 1.5240	 7.5863
 1.5230	 7.5673
 1.5220	 7.5830
 1.5210	 7.5742
 1.5200	 7.6140
 1.5190	 7.6274
 1.5180	 7.5693
 1.5170	 7.5547
 1.5160	 7.5813
 1.5150	 7.5494
 1.5140	 7.5684
 1.5130	 7.5530
 1.5120	 7.5642
 1.5110	 7.5733
 1.5100	 7.5505
 1.5090	 7.5186
 1.5080	 7.5480
 1.5070	 7.5489
 1.5060	 7.5587
 1.5050	 7.5436
 1.5040	 7.4926
 1.5030	 7.5166
 1.5020	 7.5185
 1.5010	 7.5143
 1.5000	 7.5207
 1.4990	 7.4857
 1.4980	 7.5021
 1.4970	 7.5230
 1.4960	 7.5016
 1.4950	 7.5038
 1.4940	 7.4823
 1.4930	 7.4419
 1.4920	 7.4327
 1.4910	 7.4999
 1.4900	 7.4909
 1.4890	 7.4443
 1.4880	 7.4492
 1.4870	 7.4500
 1.4860	 7.4418
 1.4850	 7.4728
 1.4840	 7.4310
 1.4830	 7.4840
 1.4820	 7.4476
 1.4810	 7.4244
 1.4800	 7.4225
 1.4790	 7.4750
 1.4780	 7.4350
 1.4770	 7.4371
 1.4760	 7.4224
 1.4750	 7.4334
 1.4740	 7.3648
 1.4730	 7.4154
 1.4720	 7.4235
 1.4710	 7.4478
 1.4700	 7.4056
 1.4690	 7.3689
 1.4680	 7.3039
 1.4670	 7.3636
 1.4660	 7.3218
 1.4650	 7.3524
 1.4640	 7.3358
 1.4630	 7.3714
 1.4620	 7.3403
 1.4610	 7.4035
 1.4600	 7.4080
 1.4590	 7.4075
 1.4580	 7.3239
 1.4570	 7.3394
 1.4560	 7.2882
 1.4550	 7.3013
 1.4540	 7.3332
 1.4530	 7.3293
 1.4520	 7.2937
 1.4510	 7.3805
 1.4500	 7.3062
 1.4490	 7.3201
 1.4480	 7.3090
 1.4470	 7.2810
 1.4460	 7.2768
 1.4450	 7.3004
 1.4440	 7.2914
 1.4430	 7.3000
 1.4420	 7.2458
 1.4410	 7.2811
 1.4400	 7.2119
 1.4390	 7.3067
 1.4380	 7.2752
 1.4370	 7.2447
 1.4360	 7.2315
 1.4350	 7.2588
 1.4340	 7.1957
 1.4330	 7.2609
 1.4320	 7.2036
 1.4310	 7.2413
 1.4300	 7.1494
 1.4290	 7.2544
 1.4280	 7.1507
 1.4270	 7.2469
 1.4260	 7.1961
 1.4250	 7.2216
 1.4240	 7.2145
 1.4230	 7.2655
 1.4220	 7.1611
 1.4210	 7.2667
 1.4200	 7.1162
 1.4190	 7.1620
 1.4180	 7.0761
 1.4170	 7.1597
 1.4160	 7.1501
 1.4150	 7.2023
 1.4140	 7.1242
 1.4130	 7.1784
 1.4120	 7.0836
 1.4110	 7.2360
 1.4100	 7.1498
 1.4090	 7.1701
 1.4080	 7.0882
 1.4070	 7.1103
 1.4060	 7.1018
 1.4050	 7.1265
 1.4040	 7.1711
 1.4030	 7.1676
 1.4020	 7.1539
 1.4010	 7.0839
 1.4000	 6.9928
 1.3990	 7.0854
 1.3980	 7.0521
 1.3970	 7.1338
 1.3960	 7.0357
 1.3950	 7.1048
 1.3940	 7.0657
 1.3930	 7.0989
 1.3920	 7.0881
 1.3910	 7.2500
 1.3900	 7.0455
 1.3890	 7.1633
 1.3880	 7.0302
 1.3870	 7.0766
 1.3860	 7.0265
 1.3850	 7.1006
 1.3840	 7.0039
 1.3830	 7.0971
 1.3820	 6.8654
 1.3810	 7.0097
 1.3800	 6.9650
 1.3790	 7.0749
 1.3780	 7.0605
 1.3770	 7.1197
 1.3760	 6.9748
 1.3750	 7.0552
 1.3740	 6.9495
 1.3730	 7.0732
 1.3720	 6.9453
 1.3710	 7.0740
 1.3700	 6.8490
 1.3690	 7.0936
 1.3680	 6.8674
 1.3670	 6.9798
 1.3660	 6.8712
 1.3650	 7.0757
 1.3640	 6.9212
 1.3630	 7.0850
 1.3620	 6.8494
 1.3610	 6.9337
 1.3600	 6.8688
 1.3590	 7.0294
 1.3580	 6.9031
 1.3570	 6.9955
 1.3560	 6.9209
 1.3550	 6.8849
 1.3540	 6.8772
 1.3530	 6.9536
 1.3520	 6.8241
 1.3510	 7.0181
 1.3500	 6.8262
 1.3490	 7.0037
 1.3480	 6.8042
 1.3470	 6.9416
 1.3460	 6.8646
 1.3450	 6.9685
 1.3440	 6.8523
 1.3430	 6.9430
 1.3420	 6.7672
 1.3410	 6.8467
 1.3400	 6.7406
 1.3390	 6.9036
 1.3380	 6.7614
 1.3370	 6.8742
 1.3360	 6.8779
 1.3350	 6.9441
 1.3340	 6.7816
 1.3330	 6.8383
 1.3320	 6.8130
 1.3310	 6.8664
 1.3300	 6.8453
 1.3290	 6.8913
 1.3280	 6.7712
 1.3270	 6.9606
 1.3260	 6.7418
 1.3250	 6.8104
 1.3240	 6.8153
 1.3230	 6.8204
 1.3220	 6.7313
 1.3210	 6.8978
 1.3200	 6.7479
 1.3190	 6.7845
 1.3180	 6.6772
 1.3170	 6.7689
 1.3160	 6.7375
 1.3150	 6.7933
 1.3140	 6.6974
 1.3130	 6.7489
 1.3120	 6.7333
 1.3110	 6.8269
 1.3100	 6.7504
 1.3090	 6.7921
 1.3080	 6.6982
 1.3070	 6.7285
 1.3060	 6.7519
 1.3050	 6.7611
 1.3040	 6.6159
 1.3030	 6.7161
 1.3020	 6.6970
 1.3010	 6.7362
 1.3000	 6.6523
 1.2990	 6.7224
 1.2980	 6.5862
 1.2970	 6.7330
 1.2960	 6.6477
 1.2950	 6.6901
 1.2940	 6.6498
 1.2930	 6.6585
 1.2920	 6.6137
 1.2910	 6.7015
 1.2900	 6.6057
 1.2890	 6.6896
 1.2880	 6.6255
 1.2870	 6.7248
 1.2860	 6.6353
 1.2850	 6.7123
 1.2840	 6.6217
 1.2830	 6.6422
 1.2820	 6.6570
 1.2810	 6.6879
 1.2800	 6.5833
 1.2790	 6.6122
 1.2780	 6.5577
 1.2770	 6.5901
 1.2760	 6.5800
 1.2750	 6.5870
 1.2740	 6.5121
 1.2730	 6.6229
 1.2720	 6.5697
 1.2710	 6.6243
 1.2700	 6.5223
 1.2690	 6.5223
 1.2680	 6.4862
 1.2670	 6.5219
 1.2660	 6.4799
 1.2650	 6.5401
 1.2640	 6.4780
 1.2630	 6.5373
 1.2620	 6.4768
 1.2610	 6.5424
 1.2600	 6.4853
 1.2590	 6.5196
 1.2580	 6.4988
 1.2570	 6.5010
 1.2560	 6.4373
 1.2550	 6.5020
 1.2540	 6.4925
 1.2530	 6.5303
 1.2520	 6.4124
 1.2510	 6.4491
 1.2500	 6.4547
 1.2490	 6.4879
 1.2480	 6.4748
 1.2470	 6.5082
 1.2460	 6.4406
 1.2450	 6.4261
 1.2440	 6.4181
 1.2430	 6.4691
 1.2420	 6.4041
 1.2410	 6.4202
 1.2400	 6.4155
 1.2390	 6.4346
 1.2380	 6.3720
 1.2370	 6.4163
 1.2360	 6.3963
 1.2350	 6.4136
 1.2340	 6.3663
 1.2330	 6.4014
 1.2320	 6.4041
 1.2310	 6.3806
 1.2300	 6.3914
 1.2290	 6.4136
 1.2280	 6.3870
 1.2270	 6.4240
 1.2260	 6.3231
 1.2250	 6.2877
 1.2240	 6.3180
 1.2230	 6.3134
 1.2220	 6.3218
 1.2210	 6.3487
 1.2200	 6.3177
 1.2190	 6.3021
 1.2180	 6.3421
 1.2170	 6.3512
 1.2160	 6.3075
 1.2150	 6.2766
 1.2140	 6.2798
 1.2130	 6.2888
 1.2120	 6.3287
 1.2110	 6.2988
 1.2100	 6.2695
 1.2090	 6.2825
 1.2080	 6.2629
 1.2070	 6.2578
 1.2060	 6.2690
 1.2050	 6.7245
 1.2040	 6.6774
 1.2030	 6.2765
 1.2020	 6.1989
 1.2010	 6.1880
 1.2000	 6.2058
 1.1990	 6.1628
 1.1980	 6.1890
 1.1970	 6.2212
 1.1960	 6.2164
 1.1950	 6.2176
 1.1940	 6.2342
 1.1930	 6.2126
 1.1920	 6.2711
 1.1910	 6.1977
 1.1900	 6.1805
 1.1890	 6.3026
 1.1880	 6.1370
 1.1870	 6.1217
 1.1860	 6.1968
 1.1850	 6.1665
 1.1840	 6.1660
 1.1830	 6.1873
 1.1820	 6.2108
 1.1810	 6.1297
 1.1800	 6.1123
 1.1790	 6.1109
 1.1780	 6.1435
 1.1770	 6.1204
 1.1760	 6.1644
 1.1750	 6.0913
 1.1740	 6.1451
 1.1730	 6.1109
 1.1720	 6.1697
 1.1710	 6.1165
 1.1700	 6.1096
 1.1690	 6.0883
 1.1680	 6.0879
 1.1670	 6.1100
 1.1660	 6.1301
 1.1650	 6.0786
 1.1640	 6.0913
 1.1630	 6.0577
 1.1620	 6.1208
 1.1610	 6.0237
 1.1600	 6.0635
 1.1590	 6.0523
 1.1580	 6.0600
 1.1570	 5.9920
 1.1560	 6.0778
 1.1550	 6.0330
 1.1540	 6.0896
 1.1530	 5.9945
 1.1520	 6.0998
 1.1510	 5.9344
 1.1500	 6.0293
 1.1490	 6.0162
 1.1480	 6.0913
 1.1470	 5.9907
 1.1460	 6.0394
 1.1450	 5.9226
 1.1440	 5.9862
 1.1430	 5.9934
 1.1420	 5.9633
 1.1410	 5.9249
 1.1400	 6.0638
 1.1390	 5.9863
 1.1380	 6.0981
 1.1370	 5.9348
 1.1360	 5.9953
 1.1350	 5.8770
 1.1340	 5.9431
 1.1330	 5.9497
 1.1320	 6.0156
 1.1310	 5.8721
 1.1300	 5.9660
 1.1290	 5.9666
 1.1280	 5.9563
 1.1270	 5.8955
 1.1260	 5.9675
 1.1250	 5.8802
 1.1240	 5.8982
 1.1230	 5.8716
 1.1220	 5.9584
 1.1210	 5.8470
 1.1200	 5.8816
 1.1190	 5.8371
 1.1180	 5.9206
 1.1170	 5.8046
 1.1160	 5.9264
 1.1150	 5.8351
 1.1140	 5.9418
 1.1130	 5.9019
 1.1120	 5.8743
 1.1110	 5.8545
 1.1100	 5.8599
 1.1090	 5.8129
 1.1080	 5.8453
 1.1070	 5.8440
 1.1060	 5.8484
 1.1050	 5.6769
 1.1040	 5.9429
 1.1030	 5.7185
 1.1020	 5.8118
 1.1010	 5.8519
 1.1000	 5.8526
 1.0990	 5.7762
 1.0980	 5.8518
 1.0970	 5.7219
 1.0960	 5.8621
 1.0950	 5.8514
 1.0940	 5.8744
 1.0930	 5.6880
 1.0920	 5.8318
 1.0910	 5.6350
 1.0900	 5.8304
 1.0890	 5.6648
 1.0880	 5.8491
 1.0870	 5.6560
 1.0860	 5.7240
 1.0850	 5.8027
 1.0840	 5.7298
 1.0830	 5.6336
 1.0820	 5.8163
 1.0810	 5.6651
 1.0800	 5.8551
 1.0790	 5.6296
 1.0780	 5.7263
 1.0770	 5.6772
 1.0760	 5.6996
 1.0750	 5.6673
 1.0740	 5.7802
 1.0730	 5.6510
 1.0720	 5.7831
 1.0710	 5.6827
 1.0700	 5.6351
 1.0690	 5.6247
 1.0680	 5.7303
 1.0670	 5.6032
 1.0660	 5.8007
 1.0650	 5.5674
 1.0640	 5.7405
 1.0630	 5.6468
 1.0620	 5.6603
 1.0610	 5.6697
 1.0600	 5.6473
 1.0590	 5.5119
 1.0580	 5.6919
 1.0570	 5.6068
 1.0560	 5.7053
 1.0550	 5.5526
 1.0540	 5.7505
 1.0530	 5.5806
 1.0520	 5.6567
 1.0510	 5.5739
 1.0500	 5.6035
 1.0490	 5.5724
 1.0480	 5.6185
 1.0470	 5.5050
 1.0460	 5.6678
 1.0450	 5.4830
 1.0440	 5.6587
 1.0430	 5.5481
 1.0420	 5.6707
 1.0410	 5.5256
 1.0400	 5.6891
 1.0390	 5.5045
 1.0380	 5.5234
 1.0370	 5.5462
 1.0360	 5.5806
 1.0350	 5.5317
 1.0340	 5.5542
 1.0330	 5.5305
 1.0320	 5.5158
 1.0310	 5.5062
 1.0300	 5.6160
 1.0290	 5.4643
 1.0280	 5.5383
 1.0270	 5.4968
 1.0260	 5.6176
 1.0250	 5.4765
 1.0240	 5.5358
 1.0230	 5.4741
 1.0220	 5.5848
 1.0210	 5.4756
 1.0200	 5.5671
 1.0190	 5.4563
 1.0180	 5.5310
 1.0170	 5.4270
 1.0160	 5.5087
 1.0150	 5.4318
 1.0140	 5.4876
 1.0130	 5.4531
 1.0120	 5.5393
 1.0110	 5.3683
 1.0100	 5.4846
 1.0090	 5.4374
 1.0080	 5.4586
 1.0070	 5.3973
 1.0060	 5.4197
 1.0050	 5.4617
 1.0040	 5.4564
 1.0030	 5.4163
 1.0020	 5.4837
 1.0010	 5.3774
 1.0000	 5.4213
 0.9990	 5.4495
 0.9980	 5.4884
 0.9970	 5.3947
 0.9960	 5.4108
 0.9950	 5.3955
 0.9940	 5.4391
 0.9930	 5.3992
 0.9920	 5.4617
 0.9910	 5.3293
 0.9900	 5.4408
 0.9890	 5.3884
 0.9880	 5.4858
 0.9870	 5.4054
 0.9860	 5.3804
 0.9850	 5.3005
 0.9840	 5.3003
 0.9830	 5.3095
 0.9820	 5.4087
 0.9810	 5.3483
 0.9800	 5.4014
 0.9790	 5.3890
 0.9780	 5.3758
 0.9770	 5.3817
 0.9760	 5.3960
 0.9750	 5.3083
 0.9740	 5.3992
 0.9730	 5.3405
 0.9720	 5.3784
 0.9710	 5.3437
 0.9700	 5.3632
 0.9690	 5.3014
 0.9680	 5.3467
 0.9670	 5.3078
 0.9660	 5.3612
 0.9650	 5.3235
 0.9640	 5.3673
 0.9630	 5.3673
 0.9620	 5.3575
 0.9610	 5.3132
 0.9600	 5.3325
 0.9590	 5.3211
 0.9580	 5.3082
 0.9570	 5.2824
 0.9560	 5.3354
 0.9550	 5.2984
 0.9540	 5.2948
 0.9530	 5.2731
 0.9520	 5.3112
 0.9510	 5.3460
 0.9500	 5.3346
 0.9490	 5.2511
 0.9480	 5.3271
 0.9470	 5.3258
 0.9460	 5.3140
 0.9450	 5.3545
 0.9440	 5.3113
 0.9430	 5.2313
 0.9420	 5.2819
 0.9410	 5.2947
 0.9400	 5.2612
 0.9390	 5.2222
 0.9380	 5.2856
 0.9370	 5.2101
 0.9360	 5.2559
 0.9350	 5.2771
 0.9340	 5.2578
 0.9330	 5.3226
 0.9320	 5.3453
 0.9310	 5.2349
 0.9300	 5.2027
 0.9290	 5.2003
 0.9280	 5.2414
 0.9270	 5.2603
 0.9260	 5.2584
 0.9250	 5.2705
 0.9240	 5.2117
 0.9230	 5.2799
 0.9220	 5.2841
 0.9210	 5.2063
 0.9200	 5.2059
 0.9190	 5.2346
 0.9180	 5.2257
 0.9170	 5.2620
 0.9160	 5.2119
 0.9150	 5.2496
 0.9140	 5.2360
 0.9130	 5.2219
 0.9120	 5.2471
 0.9110	 5.2471
 0.9100	 5.2219
 0.9090	 5.2486
 0.9080	 5.2229
 0.9070	 5.2247
 0.9060	 5.2019
 0.9050	 5.2092
 0.9040	 5.1487
 0.9030	 5.1833
 0.9020	 5.2174
 0.9010	 5.2311
 0.9000	 5.1889
 0.8990	 5.1932
 0.8980	 5.2240
 0.8970	 5.2510
 0.8960	 5.2288
 0.8950	 5.2284
 0.8940	 5.1719
 0.8930	 5.1790
 0.8920	 5.1757
 0.8910	 5.2234
 0.8900	 5.1924
 0.8890	 5.2356
 0.8880	 5.1441
 0.8870	 5.2264
 0.8860	 5.1802
 0.8850	 5.1663
 0.8840	 5.1470
 0.8830	 5.1852
 0.8820	 5.0960
 0.8810	 5.2553
 0.8800	 5.1693
 0.8790	 5.2464
 0.8780	 5.1606
 0.8770	 5.2464
 0.8760	 5.1577
 0.8750	 5.1682
 0.8740	 5.1582
 0.8730	 5.2123
 0.8720	 5.1682
 0.8710	 5.1498
 0.8700	 5.1029
 0.8690	 5.1995
 0.8680	 5.1261
 0.8670	 5.1367
 0.8660	 5.0726
 0.8650	 5.1708
 0.8640	 5.1580
 0.8630	 5.1878
 0.8620	 5.1699
 0.8610	 5.1430
 0.8600	 5.3280
 0.8590	 5.3688
 0.8580	 5.3630
 0.8570	 5.3549
 0.8560	 5.3667
 0.8550	 5.3722
 0.8540	 5.3637
 0.8530	 5.3655
 0.8520	 5.3811
 0.8510	 5.3694
 0.8500	 5.3644
 0.8490	 5.3812
 0.8480	 5.3707
 0.8470	 5.3791
 0.8460	 5.3858
 0.8450	 5.3806
 0.8440	 5.3933
 0.8430	 5.3934
 0.8420	 5.3923
 0.8410	 5.3974
 0.8400	 5.3936
 0.8390	 5.3907
 0.8380	 5.3924
 0.8370	 5.3936
 0.8360	 5.3859
 0.8350	 5.3844
 0.8340	 5.3859
 0.8330	 5.3889
 0.8320	 5.3852
 0.8310	 5.3854
 0.8300	 5.3928
 0.8290	 5.3932
 0.8280	 5.3942
 0.8270	 5.3917
 0.8260	 5.3844
 0.8250	 5.3931
 0.8240	 5.3962
 0.8230	 5.3901
 0.8220	 5.3900
 0.8210	 5.4000
 0.8200	 5.3890
 0.8190	 5.3932
 0.8180	 5.3929
 0.8170	 5.3950
 0.8160	 5.3881
 0.8150	 5.4081
 0.8140	 5.3977
 0.8130	 5.3923
 0.8120	 5.3925
 0.8110	 5.3916
 0.8100	 5.3843
 0.8090	 5.3982
 0.8080	 5.3933
 0.8070	 5.3891
 0.8060	 5.4001
 0.8050	 5.3938
 0.8040	 5.3882
 0.8030	 5.3868
 0.8020	 5.3951
 0.8010	 5.3917
 0.8000	 5.3925
 0.7990	 5.3874
 0.7980	 5.3851
 0.7970	 5.3889
 0.7960	 5.3923
 0.7950	 5.3893
 0.7940	 5.3857
 0.7930	 5.3772
 0.7920	 5.3866
 0.7910	 5.3769
 0.7900	 5.3779
 0.7890	 5.3821
 0.7880	 5.3727
 0.7870	 5.3823
 0.7860	 5.3730
 0.7850	 5.3762
 0.7840	 5.3733
 0.7830	 5.3778
 0.7820	 5.3761
 0.7810	 5.3712
 0.7800	 5.3788
 0.7790	 5.3760
 0.7780	 5.3731
 0.7770	 5.3741
 0.7760	 5.3668
 0.7750	 5.3618
 0.7740	 5.3670
 0.7730	 5.3632
 0.7720	 5.3546
 0.7710	 5.3622
 0.7700	 5.3554
 0.7690	 5.3546
 0.7680	 5.3571
 0.7670	 5.3526
 0.7660	 5.3552
 0.7650	 5.3511
 0.7640	 5.3493
 0.7630	 5.3436
 0.7620	 5.3439
 0.7610	 5.3431
 0.7600	 5.3425
 0.7590	 5.3332
 0.7580	 5.3330
 0.7570	 5.3340
 0.7560	 5.3339
 0.7550	 5.3283
 0.7540	 5.3235
 0.7530	 5.3200
 0.7520	 5.3204
 0.7510	 5.3228
 0.7500	 5.3118
 0.7490	 5.3133
 0.7480	 5.3148
 0.7470	 5.3054
 0.7460	 5.3111
 0.7450	 5.3057
 0.7440	 5.2981
 0.7430	 5.2986
 0.7420	 5.2885
 0.7410	 5.2907
 0.7400	 5.2845
 0.7390	 5.2896
 0.7380	 5.2843
 0.7370	 5.2748
 0.7360	 5.2748
 0.7350	 5.2737
 0.7340	 5.2667
 0.7330	 5.2659
 0.7320	 5.2607
 0.7310	 5.2570
 0.7300	 5.2546
 0.7290	 5.2505
 0.7280	 5.2436
 0.7270	 5.2409
 0.7260	 5.2387
 0.7250	 5.2341
 0.7240	 5.2290
 0.7230	 5.2244
 0.7220	 5.2201
 0.7210	 5.2188
 0.7200	 5.2166
 0.7190	 5.2098
 0.7180	 5.2015
 0.7170	 5.2013
 0.7160	 5.1985
 0.7150	 5.1922
 0.7140	 5.1928
 0.7130	 5.1853
 0.7120	 5.1794
 0.7110	 5.1770
 0.7100	 5.1728
 0.7090	 5.1679
 0.7080	 5.1630
 0.7070	 5.1587
 0.7060	 5.1497
 0.7050	 5.1449
 0.7040	 5.1415
 0.7030	 5.1377
 0.7020	 5.1345
 0.7010	 5.1303
 0.7000	 5.1232
 0.6990	 5.1179
 0.6980	 5.1164
 0.6970	 5.1117
 0.6960	 5.1064
 0.6950	 5.1044
 0.6940	 5.1011
 0.6930	 5.0899
 0.6920	 5.0868
 0.6910	 5.0836
 0.6900	 5.0786
 0.6890	 5.0735
 0.6880	 5.0716
 0.6870	 5.0667
 0.6860	 5.0618
 0.6850	 5.0569
 0.6840	 5.0511
 0.6830	 5.0506
 0.6820	 5.0469
 0.6810	 5.0407
 0.6800	 5.0366
 0.6790	 5.0321
 0.6780	 5.0255
 0.6770	 5.0227
 0.6760	 5.0206
 0.6750	 5.0158
 0.6740	 5.0094
 0.6730	 5.0057
 0.6720	 5.0021
 0.6710	 4.9979
 0.6700	 4.9968
 0.6690	 4.9933
 0.6680	 4.9868
 0.6670	 4.9838
 0.6660	 4.9819
 0.6650	 4.9774
 0.6640	 4.9744
 0.6630	 4.9699
 0.6620	 4.9658
 0.6610	 4.9631
 0.6600	 4.9595
 0.6590	 4.9568
 0.6580	 4.9537
 0.6570	 4.9492
 0.6560	 4.9458
 0.6550	 4.9432
 0.6540	 4.9426
 0.6530	 4.9382
 0.6520	 4.9331
 0.6510	 4.9305
 0.6500	 4.9266
 0.6490	 4.9233
 0.6480	 4.9208
 0.6470	 4.9190
 0.6460	 4.9181
 0.6450	 4.9140
 0.6440	 4.9122
 0.6430	 4.9108
 0.6420	 4.9066
 0.6410	 4.9028
 0.6400	 4.9019
 0.6390	 4.9001
 0.6380	 4.8969
 0.6370	 4.8942
 0.6360	 4.8915
 0.6350	 4.8889
 0.6340	 4.8867
 0.6330	 4.8854
 0.6320	 4.8832
 0.6310	 4.8811
 0.6300	 4.8789
 0.6290	 4.8766
 0.6280	 4.8754
 0.6270	 4.8722
 0.6260	 4.8694
 0.6250	 4.8687
 0.6240	 4.8670
 0.6230	 4.8650
 0.6220	 4.8627
 0.6210	 4.8599
 0.6200	 4.8579
 0.6190	 4.8596
 0.6180	 4.8590
 0.6170	 4.8555
 0.6160	 4.8531
 0.6150	 4.8500
 0.6140	 4.8476
 0.6130	 4.8469
 0.6120	 4.8451
 0.6110	 4.8432
 0.6100	 4.8406
 0.6090	 4.8396
 0.6080	 4.8393
 0.6070	 4.8358
 0.6060	 4.8347
 0.6050	 4.8338
 0.6040	 4.8308
 0.6030	 4.8284
 0.6020	 4.8249
 0.6010	 4.8230
 0.6000	 4.8229
 0.5990	 4.8208
 0.5980	 4.8192
 0.5970	 4.8186
 0.5960	 4.8178
 0.5950	 4.8163
 0.5940	 4.8154
 0.5930	 4.8113
 0.5920	 4.8064
 0.5910	 4.8031
 0.5900	 4.7984
 0.5890	 4.7955
 0.5880	 4.7921
 0.5870	 4.7896
 0.5860	 4.7848
 0.5850	 4.7797
 0.5840	 4.7757
 0.5830	 4.7691
 0.5820	 4.7650
 0.5810	 4.7604
 0.5800	 4.7547
 0.5790	 4.7492
 0.5780	 4.7436
 0.5770	 4.7375
 0.5760	 4.7297
 0.5750	 4.7194
 0.5740	 4.7115
 0.5730	 4.7068
 0.5720	 4.6985
 0.5710	 4.6891
 0.5700	 4.6806
 0.5690	 4.6712
 0.5680	 4.6606
 0.5670	 4.6517
 0.5660	 4.6406
 0.5650	 4.6281
 0.5640	 4.6171
 0.5630	 4.6042
 0.5620	 4.5901
 0.5610	 4.5744
 0.5600	 4.5618
 0.5590	 4.5474
 0.5580	 4.5318
 0.5570	 4.5157
 0.5560	 4.4998
 0.5550	 4.4802
 0.5540	 4.4646
 0.5530	 4.4453
 0.5520	 4.4275
 0.5510	 4.4094
 0.5500	 4.3875
 0.5490	 4.3667
 0.5480	 4.3467
 0.5470	 4.3236
 0.5460	 4.3000
 0.5450	 4.2781
 0.5440	 4.2550
 0.5430	 4.2325
 0.5420	 4.2090
 0.5410	 4.1916
 0.5400	 4.1684
 0.5390	 4.1423
 0.5380	 4.1174
 0.5370	 4.0922
 0.5360	 4.0663
 0.5350	 4.0398
 0.5340	 4.0125
 0.5330	 3.9863
 0.5320	 3.9592
 0.5310	 3.9325
 0.5300	 3.9072
 0.5290	 3.8785
 0.5280	 3.8523
 0.5270	 3.8263
 0.5260	 3.7992
 0.5250	 3.7737
 0.5240	 3.7462
 0.5230	 3.7229
 0.5220	 3.6971
 0.5210	 3.6707
 0.5200	 3.6446
 0.5190	 3.6201
 0.5180	 3.5970
 0.5170	 3.5750
 0.5160	 3.5494
 0.5150	 3.5268
 0.5140	 3.5035
 0.5130	 3.4817
 0.5120	 3.4603
 0.5110	 3.4381
 0.5100	 3.4196
 0.5090	 3.3965
 0.5080	 3.3760
 0.5070	 3.3582
 0.5060	 3.3364
 0.5050	 3.3181
 0.5040	 3.3004
 0.5030	 3.2793
 0.5020	 3.2624
 0.5010	 3.2428
 0.5000	 3.2264
 0.4990	 3.2094
 0.4980	 3.1936
 0.4970	 3.1791
 0.4960	 3.1617
 0.4950	 3.1483
 0.4940	 3.1315
 0.4930	 3.1189
 0.4920	 3.1062
 0.4910	 3.0923
 0.4900	 3.0782
 0.4890	 3.0699
 0.4880	 3.0529
 0.4870	 3.0439
 0.4860	 3.0358
 0.4850	 3.0249
 0.4840	 3.0181
 0.4830	 3.0077
 0.4820	 3.0014
 0.4810	 2.9959
 0.4800	 2.9835
 0.4790	 2.9804
 0.4780	 2.9754
 0.4770	 2.9664
 0.4760	 2.9624
 0.4750	 2.9619
 0.4740	 2.9577
 0.4730	 2.9553
 0.4720	 2.9515
 0.4710	 2.9476
 0.4700	 2.9475
 0.4690	 2.9445
 0.4680	 2.9398
 0.4670	 2.9300
 0.4660	 2.9379
 0.4650	 2.9449
 0.4640	 2.9428
 0.4630	 2.9425
 0.4620	 2.9406
 0.4610	 2.9402
 0.4600	 2.9405
 0.4590	 2.9408
 0.4580	 2.9422
 0.4570	 2.9402
 0.4560	 2.9414
 0.4550	 2.9414
 0.4540	 2.9404
 0.4530	 2.9401
 0.4520	 2.9393
 0.4510	 2.9377
 0.4500	 2.9340
 0.4490	 2.9341
 0.4480	 2.9295
 0.4470	 2.9232
 0.4460	 2.9211
 0.4450	 2.9131
 0.4440	 2.9081
 0.4430	 2.9027
 0.4420	 2.8969
 0.4410	 2.8863
 0.4400	 2.8801
 0.4390	 2.8710
 0.4380	 2.8657
 0.4370	 2.8584
 0.4360	 2.8514
 0.4350	 2.8414
 0.4340	 2.8365
 0.4330	 2.8268
 0.4320	 2.8215
 0.4310	 2.8169
 0.4300	 2.8075
 0.4290	 2.8043
 0.4280	 2.7997
 0.4270	 2.7968
 0.4260	 2.7944
 0.4250	 2.7895
 0.4240	 2.7884
 0.4230	 2.7836
 0.4220	 2.7817
 0.4210	 2.7798
 0.4200	 2.7795
 0.4190	 2.7798
 0.4180	 2.7805
 0.4170	 2.7795
 0.4160	 2.7809
 0.4150	 2.7830
 0.4140	 2.7834
 0.4130	 2.7884
 0.4120	 2.7887
 0.4110	 2.7902
 0.4100	 2.7955
 0.4090	 2.7973
 0.4080	 2.8017
 0.4070	 2.8092
 0.4060	 2.8148
 0.4050	 2.8193
 0.4040	 2.8230
 0.4030	 2.8320
 0.4020	 2.8393
 0.4010	 2.8449
 0.4000	 2.8525
