Name: Cerussite PbCO_3
Type: Mineral
Class: Carbonate
Subclass: None
Particle Size: Medium
Sample No.: C-10A
Owner: JPL
Wavelength Range: VSWIR
Origin: USA, Arizona, Flux Mine.
Collection Date: N/A
Description: Particle size was 45-125um.Collected by:  JPL Original ASTER Spectral Library name was jpl.perkin.mineral.carbonate.none.medium.c10a.spectrum.txt
Measurement: Hemispherical reflectance
First Column: X
Second Column: Y
X Units: Wavelength (micrometers)
Y Units:Reflectance (percent)
First X Value:  2.5000
Last X Value:  0.4000
Number of X Values: 2101
Additional Information: mineral.carbonate.none.medium.vswir.c-10a.jpl.perkin.ancillary.txt

 2.5000	64.2160
 2.4990	63.9493
 2.4980	63.9198
 2.4970	63.6702
 2.4960	63.3472
 2.4950	63.2007
 2.4940	63.0639
 2.4930	62.9072
 2.4920	62.6514
 2.4910	62.6864
 2.4900	62.2494
 2.4890	62.0678
 2.4880	62.3639
 2.4870	61.8937
 2.4860	62.0236
 2.4850	61.9621
 2.4840	61.8146
 2.4830	61.5801
 2.4820	61.5908
 2.4810	61.4814
 2.4800	61.4209
 2.4790	61.1223
 2.4780	61.2634
 2.4770	61.0177
 2.4760	61.0607
 2.4750	61.0234
 2.4740	60.8664
 2.4730	60.7787
 2.4720	60.6840
 2.4710	60.6449
 2.4700	60.5994
 2.4690	60.4987
 2.4680	60.4783
 2.4670	60.3930
 2.4660	60.4380
 2.4650	60.3772
 2.4640	60.3799
 2.4630	60.2649
 2.4620	60.3578
 2.4610	60.3533
 2.4600	60.4111
 2.4590	60.1967
 2.4580	60.4075
 2.4570	60.3764
 2.4560	60.4403
 2.4550	60.6123
 2.4540	60.6507
 2.4530	60.6580
 2.4520	60.7534
 2.4510	60.7980
 2.4500	60.9038
 2.4490	61.0897
 2.4480	61.2546
 2.4470	61.3920
 2.4460	61.4102
 2.4450	61.5231
 2.4440	61.6961
 2.4430	61.7018
 2.4420	61.8303
 2.4410	61.8800
 2.4400	61.9923
 2.4390	62.1002
 2.4380	62.1617
 2.4370	62.2376
 2.4360	62.3932
 2.4350	62.3603
 2.4340	62.4707
 2.4330	62.4493
 2.4320	62.5356
 2.4310	62.6457
 2.4300	62.6518
 2.4290	62.5700
 2.4280	62.7519
 2.4270	62.7527
 2.4260	62.8472
 2.4250	62.8302
 2.4240	62.8980
 2.4230	62.9777
 2.4220	63.0779
 2.4210	63.1421
 2.4200	63.2314
 2.4190	63.3902
 2.4180	63.5010
 2.4170	63.5858
 2.4160	63.6801
 2.4150	63.8095
 2.4140	64.0113
 2.4130	64.1439
 2.4120	64.3495
 2.4110	64.4239
 2.4100	64.4819
 2.4090	64.5781
 2.4080	64.7526
 2.4070	64.9004
 2.4060	65.0771
 2.4050	65.2183
 2.4040	65.3401
 2.4030	65.5172
 2.4020	65.6918
 2.4010	65.7910
 2.4000	65.9249
 2.3990	66.0904
 2.3980	66.2496
 2.3970	66.3554
 2.3960	66.5258
 2.3950	66.6835
 2.3940	66.8296
 2.3930	66.9470
 2.3920	67.0811
 2.3910	67.1285
 2.3900	67.3070
 2.3890	67.4610
 2.3880	67.5554
 2.3870	67.6996
 2.3860	67.8835
 2.3850	67.9985
 2.3840	68.1099
 2.3830	68.2423
 2.3820	68.4525
 2.3810	68.5972
 2.3800	68.7064
 2.3790	68.8617
 2.3780	69.0291
 2.3770	69.1816
 2.3760	69.3135
 2.3750	69.3770
 2.3740	69.5485
 2.3730	69.7525
 2.3720	69.8673
 2.3710	69.9778
 2.3700	70.1548
 2.3690	70.2935
 2.3680	70.4215
 2.3670	70.5732
 2.3660	70.7279
 2.3650	70.8335
 2.3640	70.9767
 2.3630	71.1604
 2.3620	71.3170
 2.3610	71.4362
 2.3600	71.5657
 2.3590	71.7244
 2.3580	71.8705
 2.3570	71.9216
 2.3560	72.0461
 2.3550	72.1992
 2.3540	72.3164
 2.3530	72.4728
 2.3520	72.5491
 2.3510	72.6540
 2.3500	72.7960
 2.3490	72.9165
 2.3480	73.0755
 2.3470	73.2230
 2.3460	73.3432
 2.3450	73.4721
 2.3440	73.5851
 2.3430	73.6860
 2.3420	73.8799
 2.3410	74.0348
 2.3400	74.1096
 2.3390	74.2342
 2.3380	74.3696
 2.3370	74.4788
 2.3360	74.5875
 2.3350	74.6958
 2.3340	74.8034
 2.3330	74.9533
 2.3320	75.0805
 2.3310	75.1744
 2.3300	75.2275
 2.3290	75.3019
 2.3280	75.3888
 2.3270	75.5551
 2.3260	75.6820
 2.3250	75.7812
 2.3240	75.9002
 2.3230	76.0167
 2.3220	76.0833
 2.3210	76.1702
 2.3200	76.3125
 2.3190	76.4002
 2.3180	76.4342
 2.3170	76.5701
 2.3160	76.6756
 2.3150	76.7748
 2.3140	76.8572
 2.3130	76.9977
 2.3120	77.0980
 2.3110	77.2290
 2.3100	77.3131
 2.3090	77.4027
 2.3080	77.4802
 2.3070	77.4882
 2.3060	77.6212
 2.3050	77.7282
 2.3040	77.8268
 2.3030	77.8765
 2.3020	78.0380
 2.3010	78.0529
 2.3000	78.1100
 2.2990	78.1887
 2.2980	78.2785
 2.2970	78.3569
 2.2960	78.3756
 2.2950	78.4129
 2.2940	78.4855
 2.2930	78.5856
 2.2920	78.6442
 2.2910	78.6951
 2.2900	78.7109
 2.2890	78.7385
 2.2880	78.7940
 2.2870	78.9094
 2.2860	78.9379
 2.2850	78.9872
 2.2840	79.0327
 2.2830	79.0274
 2.2820	79.0453
 2.2810	79.1189
 2.2800	79.1780
 2.2790	79.2012
 2.2780	79.1758
 2.2770	79.2461
 2.2760	79.3107
 2.2750	79.2971
 2.2740	79.3367
 2.2730	79.3454
 2.2720	79.3578
 2.2710	79.4210
 2.2700	79.3715
 2.2690	79.3242
 2.2680	79.3396
 2.2670	79.3408
 2.2660	79.3218
 2.2650	79.4075
 2.2640	79.3775
 2.2630	79.3667
 2.2620	79.2875
 2.2610	79.3599
 2.2600	79.3806
 2.2590	79.3060
 2.2580	79.3002
 2.2570	79.3339
 2.2560	79.2869
 2.2550	79.2728
 2.2540	79.2402
 2.2530	79.2269
 2.2520	79.2653
 2.2510	79.3848
 2.2500	79.3995
 2.2490	79.3878
 2.2480	79.5020
 2.2470	79.4689
 2.2460	79.4895
 2.2450	79.5802
 2.2440	79.5262
 2.2430	79.7259
 2.2420	79.7119
 2.2410	79.7327
 2.2400	79.7263
 2.2390	79.8323
 2.2380	79.7584
 2.2370	79.8631
 2.2360	79.8879
 2.2350	79.9355
 2.2340	79.9548
 2.2330	80.0153
 2.2320	80.0322
 2.2310	80.1741
 2.2300	80.1948
 2.2290	80.2980
 2.2280	80.3021
 2.2270	80.4532
 2.2260	80.4425
 2.2250	80.5915
 2.2240	80.6720
 2.2230	80.8438
 2.2220	80.9507
 2.2210	81.0325
 2.2200	81.0784
 2.2190	81.2257
 2.2180	81.3069
 2.2170	81.4011
 2.2160	81.3447
 2.2150	81.5315
 2.2140	81.5623
 2.2130	81.6370
 2.2120	81.6412
 2.2110	81.7402
 2.2100	81.8066
 2.2090	81.8377
 2.2080	81.9090
 2.2070	81.9478
 2.2060	82.0406
 2.2050	82.0908
 2.2040	82.1094
 2.2030	82.1827
 2.2020	82.2652
 2.2010	82.3046
 2.2000	82.4449
 2.1990	82.3296
 2.1980	82.2613
 2.1970	82.5182
 2.1960	82.4923
 2.1950	82.5502
 2.1940	82.5436
 2.1930	82.6861
 2.1920	82.6270
 2.1910	82.6819
 2.1900	82.6316
 2.1890	82.7493
 2.1880	82.7964
 2.1870	82.7703
 2.1860	82.8434
 2.1850	82.8520
 2.1840	82.9094
 2.1830	83.0790
 2.1820	83.0310
 2.1810	83.0715
 2.1800	83.0753
 2.1790	83.1915
 2.1780	83.1862
 2.1770	83.1752
 2.1760	83.2479
 2.1750	83.3255
 2.1740	83.3476
 2.1730	83.3675
 2.1720	83.4286
 2.1710	83.4765
 2.1700	83.4266
 2.1690	83.4948
 2.1680	83.5883
 2.1670	83.5875
 2.1660	83.5802
 2.1650	83.6733
 2.1640	83.7033
 2.1630	83.6642
 2.1620	83.7406
 2.1610	83.7834
 2.1600	83.7784
 2.1590	83.8516
 2.1580	83.8893
 2.1570	83.8635
 2.1560	83.8544
 2.1550	83.9244
 2.1540	83.8970
 2.1530	83.9699
 2.1520	83.9579
 2.1510	83.9486
 2.1500	83.9060
 2.1490	83.9675
 2.1480	83.9756
 2.1470	83.9671
 2.1460	83.9438
 2.1450	83.9523
 2.1440	83.9625
 2.1430	83.9526
 2.1420	83.8808
 2.1410	83.8654
 2.1400	83.8619
 2.1390	83.8336
 2.1380	83.8305
 2.1370	83.8311
 2.1360	83.6855
 2.1350	83.6927
 2.1340	83.6892
 2.1330	83.6219
 2.1320	83.6057
 2.1310	83.5754
 2.1300	83.5150
 2.1290	83.4400
 2.1280	83.4011
 2.1270	83.3327
 2.1260	83.2743
 2.1250	83.2402
 2.1240	83.1552
 2.1230	83.0632
 2.1220	83.0199
 2.1210	83.0098
 2.1200	82.8855
 2.1190	82.7908
 2.1180	82.7218
 2.1170	82.5997
 2.1160	82.4998
 2.1150	82.4292
 2.1140	82.3222
 2.1130	82.2701
 2.1120	82.2080
 2.1110	82.1095
 2.1100	82.0442
 2.1090	82.0015
 2.1080	81.9253
 2.1070	81.7808
 2.1060	81.6690
 2.1050	81.6259
 2.1040	81.5397
 2.1030	81.4533
 2.1020	81.3761
 2.1010	81.2681
 2.1000	81.1397
 2.0990	81.0996
 2.0980	81.0300
 2.0970	80.9242
 2.0960	80.8449
 2.0950	80.7740
 2.0940	80.6048
 2.0930	80.5607
 2.0920	80.5183
 2.0910	80.4670
 2.0900	80.3556
 2.0890	80.2459
 2.0880	80.1516
 2.0870	80.0642
 2.0860	80.0087
 2.0850	79.9953
 2.0840	79.9929
 2.0830	79.9677
 2.0820	80.0100
 2.0810	80.0824
 2.0800	80.0877
 2.0790	80.1717
 2.0780	80.2739
 2.0770	80.3554
 2.0760	80.3884
 2.0750	80.4059
 2.0740	80.4846
 2.0730	80.5694
 2.0720	80.6485
 2.0710	80.6708
 2.0700	80.6976
 2.0690	80.7639
 2.0680	80.7872
 2.0670	80.8296
 2.0660	80.8948
 2.0650	80.9008
 2.0640	80.9109
 2.0630	80.9646
 2.0620	80.9721
 2.0610	81.0359
 2.0600	81.0779
 2.0590	81.0504
 2.0580	81.0819
 2.0570	81.1705
 2.0560	81.2200
 2.0550	81.2120
 2.0540	81.2642
 2.0530	81.3131
 2.0520	81.3404
 2.0510	81.3726
 2.0500	81.4193
 2.0490	81.4425
 2.0480	81.4071
 2.0470	81.4196
 2.0460	81.4947
 2.0450	81.4969
 2.0440	81.5399
 2.0430	81.5745
 2.0420	81.6032
 2.0410	81.6281
 2.0400	81.6864
 2.0390	81.6014
 2.0380	81.5517
 2.0370	81.5931
 2.0360	81.6709
 2.0350	81.6818
 2.0340	81.6993
 2.0330	81.6676
 2.0320	81.6302
 2.0310	81.6927
 2.0300	81.6481
 2.0290	81.6166
 2.0280	81.6535
 2.0270	81.6775
 2.0260	81.6737
 2.0250	81.6404
 2.0240	81.6765
 2.0230	81.6444
 2.0220	81.6568
 2.0210	81.6778
 2.0200	81.6118
 2.0190	81.5734
 2.0180	81.5064
 2.0170	81.5274
 2.0160	81.5065
 2.0150	81.4988
 2.0140	81.4651
 2.0130	81.4682
 2.0120	81.4119
 2.0110	81.3817
 2.0100	81.3630
 2.0090	81.2746
 2.0080	81.2659
 2.0070	81.2933
 2.0060	81.2288
 2.0050	81.1661
 2.0040	81.1501
 2.0030	81.0831
 2.0020	81.0716
 2.0010	81.0291
 2.0000	80.9944
 1.9990	80.9021
 1.9980	80.8284
 1.9970	80.7456
 1.9960	80.6771
 1.9950	80.6264
 1.9940	80.5824
 1.9930	80.4964
 1.9920	80.4110
 1.9910	80.2883
 1.9900	80.2077
 1.9890	80.1982
 1.9880	80.1711
 1.9870	80.0850
 1.9860	79.9795
 1.9850	79.9173
 1.9840	79.8243
 1.9830	79.7470
 1.9820	79.7618
 1.9810	79.6900
 1.9800	79.5911
 1.9790	79.5256
 1.9780	79.4756
 1.9770	79.4793
 1.9760	79.4113
 1.9750	79.2815
 1.9740	79.2950
 1.9730	79.2514
 1.9720	79.2242
 1.9710	79.0841
 1.9700	79.1310
 1.9690	79.0527
 1.9680	79.0262
 1.9670	78.9811
 1.9660	78.9390
 1.9650	78.9464
 1.9640	78.8753
 1.9630	78.8634
 1.9620	78.8150
 1.9610	78.7759
 1.9600	78.8606
 1.9590	78.8593
 1.9580	78.7860
 1.9570	78.7486
 1.9560	78.8318
 1.9550	78.7361
 1.9540	78.7593
 1.9530	78.7369
 1.9520	78.7665
 1.9510	78.7961
 1.9500	78.7073
 1.9490	78.6937
 1.9480	78.7580
 1.9470	78.6736
 1.9460	78.7211
 1.9450	78.6754
 1.9440	78.7294
 1.9430	78.6514
 1.9420	78.7276
 1.9410	78.6867
 1.9400	78.7403
 1.9390	78.6626
 1.9380	78.6433
 1.9370	78.6614
 1.9360	78.7539
 1.9350	78.6752
 1.9340	78.7955
 1.9330	78.7391
 1.9320	78.7621
 1.9310	78.8364
 1.9300	78.7563
 1.9290	78.9176
 1.9280	78.9972
 1.9270	78.9685
 1.9260	78.9636
 1.9250	79.1041
 1.9240	79.1287
 1.9230	79.1790
 1.9220	79.2000
 1.9210	79.2797
 1.9200	79.3085
 1.9190	79.3202
 1.9180	79.4183
 1.9170	79.4273
 1.9160	79.6211
 1.9150	79.6406
 1.9140	79.6690
 1.9130	79.7949
 1.9120	79.8224
 1.9110	79.9278
 1.9100	79.9387
 1.9090	80.0130
 1.9080	80.1665
 1.9070	80.2276
 1.9060	80.3488
 1.9050	80.3559
 1.9040	80.5212
 1.9030	80.6421
 1.9020	80.6960
 1.9010	80.8425
 1.9000	81.1017
 1.8990	81.1479
 1.8980	81.3413
 1.8970	81.4980
 1.8960	81.6360
 1.8950	81.6658
 1.8940	81.8530
 1.8930	81.9928
 1.8920	82.1172
 1.8910	82.3377
 1.8900	82.3641
 1.8890	82.5355
 1.8880	82.7738
 1.8870	82.7689
 1.8860	82.9368
 1.8850	83.0787
 1.8840	83.2123
 1.8830	83.2714
 1.8820	83.3916
 1.8810	83.5213
 1.8800	83.6176
 1.8790	83.7048
 1.8780	83.7594
 1.8770	83.8097
 1.8760	83.8970
 1.8750	83.9231
 1.8740	84.0550
 1.8730	84.1165
 1.8720	84.1290
 1.8710	84.2061
 1.8700	84.1998
 1.8690	84.2245
 1.8680	84.3129
 1.8670	84.3207
 1.8660	84.3131
 1.8650	84.4340
 1.8640	84.4828
 1.8630	84.5204
 1.8620	84.5183
 1.8610	84.5277
 1.8600	84.5419
 1.8590	84.5752
 1.8580	84.6476
 1.8570	84.6132
 1.8560	84.6149
 1.8550	84.6097
 1.8540	84.6359
 1.8530	84.6952
 1.8520	84.6332
 1.8510	84.6505
 1.8500	84.6615
 1.8490	84.7051
 1.8480	84.6970
 1.8470	84.6682
 1.8460	84.6824
 1.8450	84.7167
 1.8440	84.7720
 1.8430	84.7337
 1.8420	84.7597
 1.8410	84.7315
 1.8400	84.7635
 1.8390	84.7025
 1.8380	84.6865
 1.8370	84.6823
 1.8360	84.6472
 1.8350	84.6578
 1.8340	84.7024
 1.8330	84.7185
 1.8320	84.6051
 1.8310	84.6307
 1.8300	84.6934
 1.8290	84.6719
 1.8280	84.6852
 1.8270	84.6436
 1.8260	84.6464
 1.8250	84.7014
 1.8240	84.7248
 1.8230	84.7039
 1.8220	84.7277
 1.8210	84.7172
 1.8200	84.7516
 1.8190	84.7324
 1.8180	84.7305
 1.8170	84.7718
 1.8160	84.7519
 1.8150	84.7352
 1.8140	84.7783
 1.8130	84.7669
 1.8120	84.7553
 1.8110	84.7991
 1.8100	84.7765
 1.8090	84.7719
 1.8080	84.8013
 1.8070	84.7713
 1.8060	84.7746
 1.8050	84.7905
 1.8040	84.8098
 1.8030	84.8849
 1.8020	84.9290
 1.8010	84.8111
 1.8000	84.7870
 1.7990	84.8576
 1.7980	84.9059
 1.7970	84.9211
 1.7960	84.8599
 1.7950	84.8397
 1.7940	84.8933
 1.7930	84.9363
 1.7920	84.9094
 1.7910	84.8656
 1.7900	84.8691
 1.7890	84.9012
 1.7880	84.8436
 1.7870	84.8506
 1.7860	84.9288
 1.7850	84.9125
 1.7840	84.9132
 1.7830	84.9560
 1.7820	85.0022
 1.7810	85.0014
 1.7800	84.9250
 1.7790	84.9146
 1.7780	84.9772
 1.7770	84.9827
 1.7760	84.9542
 1.7750	85.0107
 1.7740	85.0003
 1.7730	84.9833
 1.7720	84.9831
 1.7710	84.9897
 1.7700	85.0513
 1.7690	85.0666
 1.7680	85.0020
 1.7670	85.0059
 1.7660	85.0425
 1.7650	85.0191
 1.7640	85.0500
 1.7630	85.0620
 1.7620	85.0735
 1.7610	85.0859
 1.7600	85.1191
 1.7590	85.0876
 1.7580	85.0260
 1.7570	85.0976
 1.7560	85.1392
 1.7550	85.1253
 1.7540	85.1189
 1.7530	85.1496
 1.7520	85.2120
 1.7510	85.2143
 1.7500	85.1258
 1.7490	85.1571
 1.7480	85.2169
 1.7470	85.2235
 1.7460	85.2075
 1.7450	85.2299
 1.7440	85.2518
 1.7430	85.2643
 1.7420	85.2922
 1.7410	85.2854
 1.7400	85.3017
 1.7390	85.2675
 1.7380	85.3035
 1.7370	85.3425
 1.7360	85.3482
 1.7350	85.2887
 1.7340	85.2465
 1.7330	85.2636
 1.7320	85.2624
 1.7310	85.3462
 1.7300	85.2976
 1.7290	85.3098
 1.7280	85.3293
 1.7270	85.3479
 1.7260	85.3136
 1.7250	85.3745
 1.7240	85.2897
 1.7230	85.2793
 1.7220	85.2771
 1.7210	85.3772
 1.7200	85.3552
 1.7190	85.4141
 1.7180	85.4055
 1.7170	85.3796
 1.7160	85.4013
 1.7150	85.4208
 1.7140	85.3426
 1.7130	85.3697
 1.7120	85.3450
 1.7110	85.3524
 1.7100	85.4000
 1.7090	85.4138
 1.7080	85.3744
 1.7070	85.3855
 1.7060	85.3140
 1.7050	85.3238
 1.7040	85.4194
 1.7030	85.3854
 1.7020	85.3947
 1.7010	85.3984
 1.7000	85.2863
 1.6990	85.2888
 1.6980	85.3688
 1.6970	85.4190
 1.6960	85.3384
 1.6950	85.3585
 1.6940	85.3894
 1.6930	85.4273
 1.6920	85.4592
 1.6910	85.3401
 1.6900	85.4253
 1.6890	85.3659
 1.6880	85.3710
 1.6870	85.4348
 1.6860	85.4153
 1.6850	85.4266
 1.6840	85.3331
 1.6830	85.3598
 1.6820	85.3924
 1.6810	85.4351
 1.6800	85.3232
 1.6790	85.3572
 1.6780	85.3967
 1.6770	85.3503
 1.6760	85.4873
 1.6750	85.4471
 1.6740	85.4012
 1.6730	85.4140
 1.6720	85.3516
 1.6710	85.4215
 1.6700	85.4716
 1.6690	85.5122
 1.6680	85.4455
 1.6670	85.4526
 1.6660	85.3759
 1.6650	85.3925
 1.6640	85.3456
 1.6630	85.3820
 1.6620	85.4236
 1.6610	85.4154
 1.6600	85.4229
 1.6590	85.3577
 1.6580	85.4117
 1.6570	85.4182
 1.6560	85.3150
 1.6550	85.4596
 1.6540	85.4242
 1.6530	85.3960
 1.6520	85.3860
 1.6510	85.4052
 1.6500	85.3613
 1.6490	85.3891
 1.6480	85.3344
 1.6470	85.3308
 1.6460	85.3990
 1.6450	85.3589
 1.6440	85.3448
 1.6430	85.3635
 1.6420	85.3587
 1.6410	85.3888
 1.6400	85.3035
 1.6390	85.3768
 1.6380	85.4312
 1.6370	85.3048
 1.6360	85.3561
 1.6350	85.3538
 1.6340	85.3969
 1.6330	85.4111
 1.6320	85.4612
 1.6310	85.3699
 1.6300	85.3590
 1.6290	85.3564
 1.6280	85.3929
 1.6270	85.4433
 1.6260	85.3297
 1.6250	85.3706
 1.6240	85.4075
 1.6230	85.4305
 1.6220	85.4307
 1.6210	85.4649
 1.6200	85.5014
 1.6190	85.3997
 1.6180	85.3961
 1.6170	85.3594
 1.6160	85.4125
 1.6150	85.3708
 1.6140	85.2980
 1.6130	85.4144
 1.6120	85.3247
 1.6110	85.3716
 1.6100	85.4406
 1.6090	85.3786
 1.6080	85.4342
 1.6070	85.3907
 1.6060	85.4296
 1.6050	85.3777
 1.6040	85.4061
 1.6030	85.4482
 1.6020	85.4304
 1.6010	85.4027
 1.6000	85.4261
 1.5990	85.5051
 1.5980	85.3737
 1.5970	85.4131
 1.5960	85.3510
 1.5950	85.3730
 1.5940	85.3581
 1.5930	85.3522
 1.5920	85.2845
 1.5910	85.4103
 1.5900	85.3849
 1.5890	85.3317
 1.5880	85.3272
 1.5870	85.3449
 1.5860	85.3555
 1.5850	85.3951
 1.5840	85.4061
 1.5830	85.3811
 1.5820	85.3520
 1.5810	85.3417
 1.5800	85.3692
 1.5790	85.3818
 1.5780	85.3425
 1.5770	85.3777
 1.5760	85.3476
 1.5750	85.3157
 1.5740	85.2744
 1.5730	85.2781
 1.5720	85.2920
 1.5710	85.2601
 1.5700	85.3170
 1.5690	85.2960
 1.5680	85.2792
 1.5670	85.2748
 1.5660	85.2538
 1.5650	85.2541
 1.5640	85.2988
 1.5630	85.2575
 1.5620	85.2534
 1.5610	85.2340
 1.5600	85.2249
 1.5590	85.2297
 1.5580	85.1988
 1.5570	85.1879
 1.5560	85.1968
 1.5550	85.2168
 1.5540	85.2074
 1.5530	85.2224
 1.5520	85.2206
 1.5510	85.1794
 1.5500	85.2155
 1.5490	85.2364
 1.5480	85.1675
 1.5470	85.1509
 1.5460	85.1748
 1.5450	85.1646
 1.5440	85.1133
 1.5430	85.1384
 1.5420	85.1059
 1.5410	85.0568
 1.5400	85.1212
 1.5390	85.1399
 1.5380	85.1073
 1.5370	85.1414
 1.5360	85.1219
 1.5350	85.0680
 1.5340	85.0432
 1.5330	85.0439
 1.5320	84.9644
 1.5310	84.9995
 1.5300	85.0060
 1.5290	85.0363
 1.5280	85.0327
 1.5270	85.0098
 1.5260	85.0002
 1.5250	85.0027
 1.5240	84.9814
 1.5230	84.9916
 1.5220	84.9533
 1.5210	84.8923
 1.5200	84.9014
 1.5190	84.9781
 1.5180	84.9007
 1.5170	84.8670
 1.5160	84.9019
 1.5150	84.8781
 1.5140	84.8569
 1.5130	84.8922
 1.5120	84.8876
 1.5110	84.8672
 1.5100	84.8474
 1.5090	84.8217
 1.5080	84.8063
 1.5070	84.8055
 1.5060	84.7798
 1.5050	84.7357
 1.5040	84.7488
 1.5030	84.7355
 1.5020	84.7111
 1.5010	84.7194
 1.5000	84.7364
 1.4990	84.7194
 1.4980	84.6788
 1.4970	84.6934
 1.4960	84.7268
 1.4950	84.6824
 1.4940	84.6507
 1.4930	84.6453
 1.4920	84.6347
 1.4910	84.6542
 1.4900	84.6595
 1.4890	84.6280
 1.4880	84.5642
 1.4870	84.5860
 1.4860	84.5696
 1.4850	84.5069
 1.4840	84.5587
 1.4830	84.6053
 1.4820	84.5658
 1.4810	84.4929
 1.4800	84.4866
 1.4790	84.5047
 1.4780	84.4955
 1.4770	84.4994
 1.4760	84.4913
 1.4750	84.4382
 1.4740	84.3704
 1.4730	84.4046
 1.4720	84.4975
 1.4710	84.4560
 1.4700	84.4167
 1.4690	84.4339
 1.4680	84.4641
 1.4670	84.3725
 1.4660	84.3691
 1.4650	84.3547
 1.4640	84.2963
 1.4630	84.3012
 1.4620	84.2823
 1.4610	84.3416
 1.4600	84.2592
 1.4590	84.2733
 1.4580	84.2905
 1.4570	84.3154
 1.4560	84.3212
 1.4550	84.2885
 1.4540	84.3475
 1.4530	84.3332
 1.4520	84.3489
 1.4510	84.2886
 1.4500	84.2802
 1.4490	84.2826
 1.4480	84.3010
 1.4470	84.3072
 1.4460	84.3225
 1.4450	84.3802
 1.4440	84.3745
 1.4430	84.3489
 1.4420	84.2875
 1.4410	84.3401
 1.4400	84.3936
 1.4390	84.3859
 1.4380	84.3559
 1.4370	84.3349
 1.4360	84.2980
 1.4350	84.3532
 1.4340	84.3758
 1.4330	84.3467
 1.4320	84.4016
 1.4310	84.4553
 1.4300	84.3581
 1.4290	84.3935
 1.4280	84.4341
 1.4270	84.4366
 1.4260	84.4490
 1.4250	84.4287
 1.4240	84.5074
 1.4230	84.5943
 1.4220	84.5623
 1.4210	84.5050
 1.4200	84.5558
 1.4190	84.5421
 1.4180	84.5228
 1.4170	84.5401
 1.4160	84.5739
 1.4150	84.5362
 1.4140	84.6218
 1.4130	84.6499
 1.4120	84.7030
 1.4110	84.7034
 1.4100	84.7516
 1.4090	84.6900
 1.4080	84.6727
 1.4070	84.7140
 1.4060	84.7746
 1.4050	84.8278
 1.4040	84.8556
 1.4030	84.8637
 1.4020	84.8847
 1.4010	84.9696
 1.4000	85.0070
 1.3990	84.9788
 1.3980	85.0252
 1.3970	85.1062
 1.3960	85.0792
 1.3950	85.0788
 1.3940	85.2264
 1.3930	85.2239
 1.3920	85.2400
 1.3910	85.2942
 1.3900	85.2231
 1.3890	85.2659
 1.3880	85.3264
 1.3870	85.2646
 1.3860	85.3185
 1.3850	85.3246
 1.3840	85.4998
 1.3830	85.3965
 1.3820	85.4398
 1.3810	85.4235
 1.3800	85.4341
 1.3790	85.4552
 1.3780	85.4505
 1.3770	85.4725
 1.3760	85.4923
 1.3750	85.4465
 1.3740	85.4866
 1.3730	85.4856
 1.3720	85.4852
 1.3710	85.4563
 1.3700	85.5025
 1.3690	85.5309
 1.3680	85.5068
 1.3670	85.4673
 1.3660	85.5838
 1.3650	85.4788
 1.3640	85.4885
 1.3630	85.5281
 1.3620	85.5509
 1.3610	85.4893
 1.3600	85.5259
 1.3590	85.4661
 1.3580	85.5757
 1.3570	85.5202
 1.3560	85.4569
 1.3550	85.4809
 1.3540	85.5272
 1.3530	85.5479
 1.3520	85.4814
 1.3510	85.5724
 1.3500	85.5716
 1.3490	85.4977
 1.3480	85.5385
 1.3470	85.5296
 1.3460	85.5691
 1.3450	85.4814
 1.3440	85.5585
 1.3430	85.4320
 1.3420	85.4918
 1.3410	85.4923
 1.3400	85.5428
 1.3390	85.4479
 1.3380	85.4836
 1.3370	85.4814
 1.3360	85.5070
 1.3350	85.4471
 1.3340	85.5427
 1.3330	85.5310
 1.3320	85.5002
 1.3310	85.5494
 1.3300	85.4974
 1.3290	85.5603
 1.3280	85.4880
 1.3270	85.5380
 1.3260	85.6105
 1.3250	85.5575
 1.3240	85.5118
 1.3230	85.5484
 1.3220	85.5592
 1.3210	85.5565
 1.3200	85.5056
 1.3190	85.4645
 1.3180	85.5449
 1.3170	85.4079
 1.3160	85.4783
 1.3150	85.5345
 1.3140	85.4963
 1.3130	85.5433
 1.3120	85.5019
 1.3110	85.5342
 1.3100	85.4811
 1.3090	85.5293
 1.3080	85.4433
 1.3070	85.5074
 1.3060	85.5879
 1.3050	85.5711
 1.3040	85.4820
 1.3030	85.4438
 1.3020	85.5271
 1.3010	85.5142
 1.3000	85.5530
 1.2990	85.4962
 1.2980	85.5436
 1.2970	85.5301
 1.2960	85.5311
 1.2950	85.5094
 1.2940	85.5358
 1.2930	85.5009
 1.2920	85.4827
 1.2910	85.5509
 1.2900	85.5615
 1.2890	85.5045
 1.2880	85.4703
 1.2870	85.4574
 1.2860	85.4629
 1.2850	85.4791
 1.2840	85.5405
 1.2830	85.4838
 1.2820	85.4595
 1.2810	85.4424
 1.2800	85.4823
 1.2790	85.4479
 1.2780	85.4489
 1.2770	85.4124
 1.2760	85.5108
 1.2750	85.5187
 1.2740	85.4394
 1.2730	85.4663
 1.2720	85.4551
 1.2710	85.4474
 1.2700	85.5094
 1.2690	85.4945
 1.2680	85.4309
 1.2670	85.4085
 1.2660	85.4442
 1.2650	85.4475
 1.2640	85.4318
 1.2630	85.4589
 1.2620	85.4639
 1.2610	85.5022
 1.2600	85.5060
 1.2590	85.4510
 1.2580	85.4300
 1.2570	85.4208
 1.2560	85.4443
 1.2550	85.4427
 1.2540	85.5215
 1.2530	85.4729
 1.2520	85.4559
 1.2510	85.4567
 1.2500	85.4564
 1.2490	85.4279
 1.2480	85.4140
 1.2470	85.3838
 1.2460	85.3977
 1.2450	85.4312
 1.2440	85.4933
 1.2430	85.4860
 1.2420	85.4285
 1.2410	85.3290
 1.2400	85.3543
 1.2390	85.3107
 1.2380	85.3307
 1.2370	85.4023
 1.2360	85.4012
 1.2350	85.4290
 1.2340	85.4201
 1.2330	85.4100
 1.2320	85.4163
 1.2310	85.3810
 1.2300	85.3634
 1.2290	85.3569
 1.2280	85.3568
 1.2270	85.3594
 1.2260	85.4144
 1.2250	85.4497
 1.2240	85.3989
 1.2230	85.3687
 1.2220	85.4257
 1.2210	85.4085
 1.2200	85.4026
 1.2190	85.3945
 1.2180	85.3859
 1.2170	85.4006
 1.2160	85.3368
 1.2150	85.3265
 1.2140	85.4098
 1.2130	85.4382
 1.2120	85.3791
 1.2110	85.3337
 1.2100	85.3514
 1.2090	85.3673
 1.2080	85.3317
 1.2070	85.3464
 1.2060	85.3930
 1.2050	85.3533
 1.2040	85.3403
 1.2030	85.3656
 1.2020	85.3670
 1.2010	85.3964
 1.2000	85.3704
 1.1990	85.3154
 1.1980	85.3154
 1.1970	85.3124
 1.1960	85.2909
 1.1950	85.3137
 1.1940	85.3699
 1.1930	85.3700
 1.1920	85.3839
 1.1910	85.3298
 1.1900	85.3179
 1.1890	85.3438
 1.1880	85.3097
 1.1870	85.3133
 1.1860	85.2911
 1.1850	85.3341
 1.1840	85.3578
 1.1830	85.3130
 1.1820	85.3146
 1.1810	85.3820
 1.1800	85.3486
 1.1790	85.2796
 1.1780	85.3246
 1.1770	85.3251
 1.1760	85.3437
 1.1750	85.3533
 1.1740	85.3001
 1.1730	85.3026
 1.1720	85.3256
 1.1710	85.3196
 1.1700	85.3859
 1.1690	85.3793
 1.1680	85.3172
 1.1670	85.3136
 1.1660	85.3324
 1.1650	85.3407
 1.1640	85.4188
 1.1630	85.3530
 1.1620	85.2913
 1.1610	85.3205
 1.1600	85.3500
 1.1590	85.3654
 1.1580	85.3537
 1.1570	85.3755
 1.1560	85.2959
 1.1550	85.3233
 1.1540	85.3044
 1.1530	85.3482
 1.1520	85.3228
 1.1510	85.3128
 1.1500	85.3365
 1.1490	85.3506
 1.1480	85.3808
 1.1470	85.2855
 1.1460	85.3187
 1.1450	85.3862
 1.1440	85.4006
 1.1430	85.3184
 1.1420	85.3617
 1.1410	85.3657
 1.1400	85.3129
 1.1390	85.3594
 1.1380	85.3752
 1.1370	85.3796
 1.1360	85.3251
 1.1350	85.3314
 1.1340	85.3017
 1.1330	85.3379
 1.1320	85.2726
 1.1310	85.3489
 1.1300	85.3899
 1.1290	85.3316
 1.1280	85.3631
 1.1270	85.4044
 1.1260	85.3165
 1.1250	85.2676
 1.1240	85.3381
 1.1230	85.3005
 1.1220	85.2873
 1.1210	85.2494
 1.1200	85.3194
 1.1190	85.3720
 1.1180	85.3924
 1.1170	85.3190
 1.1160	85.3631
 1.1150	85.3025
 1.1140	85.2911
 1.1130	85.3152
 1.1120	85.3661
 1.1110	85.2865
 1.1100	85.2539
 1.1090	85.2542
 1.1080	85.2317
 1.1070	85.2722
 1.1060	85.3462
 1.1050	85.2830
 1.1040	85.3108
 1.1030	85.3370
 1.1020	85.2999
 1.1010	85.2374
 1.1000	85.2799
 1.0990	85.2863
 1.0980	85.2851
 1.0970	85.3066
 1.0960	85.3705
 1.0950	85.3398
 1.0940	85.2631
 1.0930	85.2736
 1.0920	85.3368
 1.0910	85.2807
 1.0900	85.2617
 1.0890	85.3300
 1.0880	85.2524
 1.0870	85.3579
 1.0860	85.2325
 1.0850	85.3352
 1.0840	85.2582
 1.0830	85.3822
 1.0820	85.2729
 1.0810	85.2605
 1.0800	85.1602
 1.0790	85.2577
 1.0780	85.2930
 1.0770	85.2152
 1.0760	85.2574
 1.0750	85.2449
 1.0740	85.2608
 1.0730	85.2774
 1.0720	85.1802
 1.0710	85.3120
 1.0700	85.3618
 1.0690	85.2512
 1.0680	85.2600
 1.0670	85.2609
 1.0660	85.2128
 1.0650	85.2782
 1.0640	85.1909
 1.0630	85.1235
 1.0620	85.2786
 1.0610	85.2649
 1.0600	85.1445
 1.0590	85.2985
 1.0580	85.1744
 1.0570	85.2200
 1.0560	85.2513
 1.0550	85.1802
 1.0540	85.2100
 1.0530	85.2801
 1.0520	85.1274
 1.0510	85.2158
 1.0500	85.1451
 1.0490	85.1665
 1.0480	85.1774
 1.0470	85.2097
 1.0460	85.2087
 1.0450	85.1784
 1.0440	85.1900
 1.0430	85.2822
 1.0420	85.2321
 1.0410	85.1745
 1.0400	85.2226
 1.0390	85.2119
 1.0380	85.1702
 1.0370	85.2565
 1.0360	85.2305
 1.0350	85.2316
 1.0340	85.2323
 1.0330	85.1646
 1.0320	85.1515
 1.0310	85.1713
 1.0300	85.1151
 1.0290	85.1833
 1.0280	85.1996
 1.0270	85.1792
 1.0260	85.2608
 1.0250	85.1854
 1.0240	85.0993
 1.0230	85.1012
 1.0220	85.1295
 1.0210	85.2134
 1.0200	85.1624
 1.0190	85.1464
 1.0180	85.1354
 1.0170	85.1625
 1.0160	85.1665
 1.0150	85.1224
 1.0140	85.1620
 1.0130	85.1328
 1.0120	85.1025
 1.0110	85.1000
 1.0100	85.0427
 1.0090	85.1414
 1.0080	85.1288
 1.0070	85.1476
 1.0060	85.2013
 1.0050	85.1944
 1.0040	85.1773
 1.0030	85.1566
 1.0020	85.1376
 1.0010	85.1610
 1.0000	85.0997
 0.9990	85.1027
 0.9980	85.0868
 0.9970	85.1277
 0.9960	85.0937
 0.9950	85.1333
 0.9940	85.0907
 0.9930	85.1195
 0.9920	85.1132
 0.9910	85.1179
 0.9900	85.1252
 0.9890	85.1886
 0.9880	85.0681
 0.9870	85.0346
 0.9860	85.0221
 0.9850	85.0546
 0.9840	85.0547
 0.9830	85.0655
 0.9820	85.0496
 0.9810	85.0942
 0.9800	85.1147
 0.9790	85.0836
 0.9780	85.0570
 0.9770	85.1048
 0.9760	85.0729
 0.9750	85.0429
 0.9740	85.0131
 0.9730	85.0419
 0.9720	85.0616
 0.9710	85.0416
 0.9700	85.0769
 0.9690	85.0785
 0.9680	85.0399
 0.9670	85.0902
 0.9660	85.0353
 0.9650	84.9400
 0.9640	84.9992
 0.9630	85.0723
 0.9620	85.0500
 0.9610	84.9964
 0.9600	85.0265
 0.9590	85.0608
 0.9580	85.0397
 0.9570	85.0403
 0.9560	85.0044
 0.9550	85.0225
 0.9540	85.0429
 0.9530	85.0510
 0.9520	85.0629
 0.9510	85.0572
 0.9500	85.0299
 0.9490	85.0060
 0.9480	85.0414
 0.9470	85.0717
 0.9460	85.0350
 0.9450	84.9732
 0.9440	84.9409
 0.9430	84.9510
 0.9420	84.9836
 0.9410	84.9937
 0.9400	85.0259
 0.9390	85.0335
 0.9380	85.0512
 0.9370	84.9613
 0.9360	84.8802
 0.9350	84.9253
 0.9340	84.9906
 0.9330	85.0151
 0.9320	84.9780
 0.9310	84.9397
 0.9300	84.9970
 0.9290	85.0082
 0.9280	84.9491
 0.9270	84.9438
 0.9260	84.9589
 0.9250	84.9590
 0.9240	84.9368
 0.9230	84.9675
 0.9220	85.0083
 0.9210	84.9941
 0.9200	84.9540
 0.9190	84.9085
 0.9180	84.9390
 0.9170	84.9643
 0.9160	84.9500
 0.9150	84.9429
 0.9140	84.9796
 0.9130	84.9612
 0.9120	84.8810
 0.9110	84.8965
 0.9100	84.9714
 0.9090	84.9173
 0.9080	84.9256
 0.9070	84.8875
 0.9060	84.8863
 0.9050	84.9009
 0.9040	84.8735
 0.9030	84.8999
 0.9020	84.9023
 0.9010	84.8629
 0.9000	84.8484
 0.8990	84.8662
 0.8980	84.9348
 0.8970	84.9506
 0.8960	84.9303
 0.8950	84.8553
 0.8940	84.8606
 0.8930	84.8935
 0.8920	84.9000
 0.8910	84.8952
 0.8900	84.8593
 0.8890	84.8574
 0.8880	84.8518
 0.8870	84.8243
 0.8860	84.8869
 0.8850	84.9159
 0.8840	84.8447
 0.8830	84.9069
 0.8820	84.9362
 0.8810	84.9016
 0.8800	84.8434
 0.8790	84.8438
 0.8780	84.8506
 0.8770	84.8359
 0.8760	84.8579
 0.8750	84.8722
 0.8740	84.8768
 0.8730	84.8284
 0.8720	84.8524
 0.8710	84.8705
 0.8700	84.8443
 0.8690	84.7994
 0.8680	84.8487
 0.8670	84.8156
 0.8660	84.8533
 0.8650	84.8338
 0.8640	84.8578
 0.8630	84.8181
 0.8620	84.8498
 0.8610	84.7512
 0.8600	84.5676
 0.8590	84.5656
 0.8580	84.7509
 0.8570	84.7268
 0.8560	84.5804
 0.8550	84.7303
 0.8540	84.6938
 0.8530	84.6373
 0.8520	84.6493
 0.8510	84.6997
 0.8500	84.6449
 0.8490	84.7179
 0.8480	84.7068
 0.8470	84.6187
 0.8460	84.6505
 0.8450	84.6297
 0.8440	84.6993
 0.8430	84.7041
 0.8420	84.6983
 0.8410	84.6489
 0.8400	84.7061
 0.8390	84.6776
 0.8380	84.6080
 0.8370	84.6542
 0.8360	84.6982
 0.8350	84.6071
 0.8340	84.6734
 0.8330	84.7419
 0.8320	84.6861
 0.8310	84.6984
 0.8300	84.7128
 0.8290	84.7057
 0.8280	84.7165
 0.8270	84.7178
 0.8260	84.6654
 0.8250	84.6385
 0.8240	84.7057
 0.8230	84.6992
 0.8220	84.6775
 0.8210	84.6530
 0.8200	84.6712
 0.8190	84.6697
 0.8180	84.6820
 0.8170	84.7002
 0.8160	84.6285
 0.8150	84.6755
 0.8140	84.6931
 0.8130	84.6279
 0.8120	84.6866
 0.8110	84.6722
 0.8100	84.6147
 0.8090	84.5951
 0.8080	84.6116
 0.8070	84.5634
 0.8060	84.5423
 0.8050	84.5722
 0.8040	84.5560
 0.8030	84.5423
 0.8020	84.5472
 0.8010	84.5219
 0.8000	84.5341
 0.7990	84.5074
 0.7980	84.5253
 0.7970	84.4883
 0.7960	84.4679
 0.7950	84.4149
 0.7940	84.4535
 0.7930	84.4976
 0.7920	84.4512
 0.7910	84.4676
 0.7900	84.5115
 0.7890	84.4713
 0.7880	84.5237
 0.7870	84.5088
 0.7860	84.4564
 0.7850	84.5089
 0.7840	84.5435
 0.7830	84.4955
 0.7820	84.4995
 0.7810	84.5102
 0.7800	84.4906
 0.7790	84.4967
 0.7780	84.5159
 0.7770	84.4805
 0.7760	84.4774
 0.7750	84.4545
 0.7740	84.4357
 0.7730	84.4634
 0.7720	84.4223
 0.7710	84.4785
 0.7700	84.4057
 0.7690	84.4463
 0.7680	84.4005
 0.7670	84.3950
 0.7660	84.4439
 0.7650	84.3987
 0.7640	84.3825
 0.7630	84.4312
 0.7620	84.4300
 0.7610	84.3805
 0.7600	84.3767
 0.7590	84.3349
 0.7580	84.3931
 0.7570	84.3739
 0.7560	84.3686
 0.7550	84.3375
 0.7540	84.3498
 0.7530	84.3102
 0.7520	84.3289
 0.7510	84.3230
 0.7500	84.3015
 0.7490	84.2683
 0.7480	84.3107
 0.7470	84.2980
 0.7460	84.2585
 0.7450	84.2656
 0.7440	84.2694
 0.7430	84.2385
 0.7420	84.2473
 0.7410	84.2551
 0.7400	84.2165
 0.7390	84.2062
 0.7380	84.2229
 0.7370	84.1635
 0.7360	84.1247
 0.7350	84.1032
 0.7340	84.1040
 0.7330	84.1413
 0.7320	84.1562
 0.7310	84.1650
 0.7300	84.1418
 0.7290	84.1573
 0.7280	84.1668
 0.7270	84.2030
 0.7260	84.1897
 0.7250	84.1671
 0.7240	84.1624
 0.7230	84.1605
 0.7220	84.1678
 0.7210	84.1607
 0.7200	84.1764
 0.7190	84.1693
 0.7180	84.1672
 0.7170	84.1847
 0.7160	84.1535
 0.7150	84.1264
 0.7140	84.1233
 0.7130	84.1239
 0.7120	84.1190
 0.7110	84.1023
 0.7100	84.1089
 0.7090	84.0928
 0.7080	84.1087
 0.7070	84.0905
 0.7060	84.0702
 0.7050	84.0779
 0.7040	84.0696
 0.7030	84.0717
 0.7020	84.0737
 0.7010	84.0391
 0.7000	84.0093
 0.6990	84.0182
 0.6980	84.0174
 0.6970	84.0045
 0.6960	84.0121
 0.6950	84.0216
 0.6940	84.0044
 0.6930	84.0103
 0.6920	84.0123
 0.6910	84.0038
 0.6900	84.0069
 0.6890	83.9585
 0.6880	83.9537
 0.6870	83.9516
 0.6860	83.9437
 0.6850	83.9467
 0.6840	83.9463
 0.6830	83.9304
 0.6820	83.9467
 0.6810	83.9247
 0.6800	83.9139
 0.6790	83.9082
 0.6780	83.8939
 0.6770	83.8929
 0.6760	83.8857
 0.6750	83.8693
 0.6740	83.8669
 0.6730	83.8730
 0.6720	83.8672
 0.6710	83.8618
 0.6700	83.8643
 0.6690	83.8585
 0.6680	83.8534
 0.6670	83.8616
 0.6660	83.8481
 0.6650	83.8494
 0.6640	83.8447
 0.6630	83.8213
 0.6620	83.8388
 0.6610	83.8358
 0.6600	83.8276
 0.6590	83.8367
 0.6580	83.8199
 0.6570	83.8200
 0.6560	83.8143
 0.6550	83.8026
 0.6540	83.8036
 0.6530	83.7975
 0.6520	83.8048
 0.6510	83.8087
 0.6500	83.7854
 0.6490	83.7731
 0.6480	83.7545
 0.6470	83.7433
 0.6460	83.7428
 0.6450	83.7510
 0.6440	83.7515
 0.6430	83.7477
 0.6420	83.7356
 0.6410	83.7252
 0.6400	83.7292
 0.6390	83.7333
 0.6380	83.7237
 0.6370	83.7019
 0.6360	83.6872
 0.6350	83.6748
 0.6340	83.6850
 0.6330	83.6820
 0.6320	83.6682
 0.6310	83.6526
 0.6300	83.6318
 0.6290	83.6272
 0.6280	83.6302
 0.6270	83.6105
 0.6260	83.5960
 0.6250	83.5962
 0.6240	83.6054
 0.6230	83.5938
 0.6220	83.5787
 0.6210	83.5733
 0.6200	83.5407
 0.6190	83.5388
 0.6180	83.5379
 0.6170	83.5134
 0.6160	83.4986
 0.6150	83.5005
 0.6140	83.4817
 0.6130	83.4544
 0.6120	83.4541
 0.6110	83.4411
 0.6100	83.4345
 0.6090	83.4146
 0.6080	83.3889
 0.6070	83.3725
 0.6060	83.3619
 0.6050	83.3575
 0.6040	83.3544
 0.6030	83.3369
 0.6020	83.3007
 0.6010	83.2544
 0.6000	83.2460
 0.5990	83.2597
 0.5980	83.2560
 0.5970	83.2762
 0.5960	83.2698
 0.5950	83.2495
 0.5940	83.2217
 0.5930	83.1931
 0.5920	83.1473
 0.5910	83.0986
 0.5900	83.0346
 0.5890	82.9724
 0.5880	82.9040
 0.5870	82.8270
 0.5860	82.7730
 0.5850	82.7353
 0.5840	82.6837
 0.5830	82.6198
 0.5820	82.5469
 0.5810	82.5175
 0.5800	82.5080
 0.5790	82.5417
 0.5780	82.5711
 0.5770	82.6061
 0.5760	82.6355
 0.5750	82.6432
 0.5740	82.6480
 0.5730	82.6426
 0.5720	82.6550
 0.5710	82.6524
 0.5700	82.6448
 0.5690	82.6119
 0.5680	82.5954
 0.5670	82.6033
 0.5660	82.6162
 0.5650	82.6325
 0.5640	82.6391
 0.5630	82.6477
 0.5620	82.6448
 0.5610	82.6196
 0.5600	82.5787
 0.5590	82.5489
 0.5580	82.5343
 0.5570	82.4962
 0.5560	82.4812
 0.5550	82.4518
 0.5540	82.4406
 0.5530	82.4143
 0.5520	82.4036
 0.5510	82.3628
 0.5500	82.3533
 0.5490	82.3098
 0.5480	82.2956
 0.5470	82.2729
 0.5460	82.2468
 0.5450	82.2039
 0.5440	82.1845
 0.5430	82.1667
 0.5420	82.1256
 0.5410	82.0801
 0.5400	82.0681
 0.5390	82.0266
 0.5380	82.0023
 0.5370	81.9526
 0.5360	81.9429
 0.5350	81.9155
 0.5340	81.8795
 0.5330	81.8589
 0.5320	81.8081
 0.5310	81.7860
 0.5300	81.7231
 0.5290	81.6805
 0.5280	81.6556
 0.5270	81.6029
 0.5260	81.5833
 0.5250	81.5318
 0.5240	81.4849
 0.5230	81.4574
 0.5220	81.4384
 0.5210	81.4069
 0.5200	81.3734
 0.5190	81.3736
 0.5180	81.3357
 0.5170	81.2904
 0.5160	81.2473
 0.5150	81.1997
 0.5140	81.1592
 0.5130	81.1410
 0.5120	81.0940
 0.5110	81.0624
 0.5100	81.0013
 0.5090	80.9885
 0.5080	80.9356
 0.5070	80.8823
 0.5060	80.8494
 0.5050	80.8433
 0.5040	80.8050
 0.5030	80.7684
 0.5020	80.7573
 0.5010	80.6709
 0.5000	80.6608
 0.4990	80.6289
 0.4980	80.5652
 0.4970	80.5192
 0.4960	80.5081
 0.4950	80.4637
 0.4940	80.4319
 0.4930	80.3672
 0.4920	80.3589
 0.4910	80.3186
 0.4900	80.2760
 0.4890	80.2209
 0.4880	80.1929
 0.4870	80.1357
 0.4860	80.1075
 0.4850	80.0693
 0.4840	80.0255
 0.4830	79.9458
 0.4820	79.9445
 0.4810	79.9060
 0.4800	79.8853
 0.4790	79.8883
 0.4780	79.8565
 0.4770	79.8252
 0.4760	79.7829
 0.4750	79.7837
 0.4740	79.7313
 0.4730	79.6816
 0.4720	79.6574
 0.4710	79.6325
 0.4700	79.6405
 0.4690	79.5707
 0.4680	79.5673
 0.4670	79.5161
 0.4660	79.4835
 0.4650	79.4578
 0.4640	79.4236
 0.4630	79.4069
 0.4620	79.3679
 0.4610	79.3531
 0.4600	79.2960
 0.4590	79.2734
 0.4580	79.2466
 0.4570	79.1983
 0.4560	79.1551
 0.4550	79.1363
 0.4540	79.0959
 0.4530	79.0272
 0.4520	79.0012
 0.4510	78.9665
 0.4500	78.9080
 0.4490	78.8523
 0.4480	78.7994
 0.4470	78.7457
 0.4460	78.6828
 0.4450	78.6565
 0.4440	78.5833
 0.4430	78.5212
 0.4420	78.4825
 0.4410	78.4322
 0.4400	78.3754
 0.4390	78.3147
 0.4380	78.2437
 0.4370	78.1808
 0.4360	78.1447
 0.4350	78.0586
 0.4340	77.9718
 0.4330	77.9192
 0.4320	77.8613
 0.4310	77.7677
 0.4300	77.7014
 0.4290	77.6477
 0.4280	77.5657
 0.4270	77.5062
 0.4260	77.4437
 0.4250	77.3597
 0.4240	77.3046
 0.4230	77.2337
 0.4220	77.1679
 0.4210	77.1140
 0.4200	77.0506
 0.4190	76.9851
 0.4180	76.9179
 0.4170	76.8562
 0.4160	76.8133
 0.4150	76.7485
 0.4140	76.6845
 0.4130	76.6268
 0.4120	76.5827
 0.4110	76.5202
 0.4100	76.4346
 0.4090	76.3690
 0.4080	76.3213
 0.4070	76.2666
 0.4060	76.2006
 0.4050	76.1377
 0.4040	76.0729
 0.4030	75.9933
 0.4020	75.9305
 0.4010	75.8544
 0.4000	75.7604
