Name: Calcite CaCO_3
Type: Mineral
Class: Carbonate
Subclass: None
Particle Size: Coarse
Sample No.: C-3A
Owner: JPL
Wavelength Range: VSWIR
Origin: Italy.
Collection Date: N/A
Description: TravertineParticle size was 125-500um.Collected by:  Ward's Original ASTER Spectral Library name was jpl.perkin.mineral.carbonate.none.coarse.c03a.spectrum.txt
Measurement: Hemispherical reflectance
First Column: X
Second Column: Y
X Units: Wavelength (micrometers)
Y Units:Reflectance (percent)
First X Value:  2.5000
Last X Value:  0.4000
Number of X Values: 2101
Additional Information: mineral.carbonate.none.coarse.vswir.c-3a.jpl.perkin.ancillary.txt

 2.5000	38.3218
 2.4990	38.0037
 2.4980	38.4990
 2.4970	38.3881
 2.4960	38.6174
 2.4950	38.8645
 2.4940	38.9070
 2.4930	38.9131
 2.4920	39.2536
 2.4910	39.2113
 2.4900	39.6217
 2.4890	39.5820
 2.4880	39.9596
 2.4870	40.1944
 2.4860	40.3273
 2.4850	40.6783
 2.4840	41.0136
 2.4830	41.2349
 2.4820	41.6222
 2.4810	41.8154
 2.4800	42.3774
 2.4790	42.5160
 2.4780	43.0461
 2.4770	43.3486
 2.4760	43.7742
 2.4750	44.1485
 2.4740	44.7214
 2.4730	45.0866
 2.4720	45.6919
 2.4710	46.0391
 2.4700	46.6506
 2.4690	46.9281
 2.4680	47.5344
 2.4670	47.9703
 2.4660	48.5421
 2.4650	48.9226
 2.4640	49.4776
 2.4630	50.0905
 2.4620	50.5863
 2.4610	51.0895
 2.4600	51.5566
 2.4590	52.0016
 2.4580	52.6535
 2.4570	52.9715
 2.4560	53.4461
 2.4550	53.8282
 2.4540	54.3935
 2.4530	54.7425
 2.4520	55.1976
 2.4510	55.5765
 2.4500	55.9704
 2.4490	56.2584
 2.4480	56.7557
 2.4470	57.1449
 2.4460	57.5403
 2.4450	57.7290
 2.4440	58.1913
 2.4430	58.4165
 2.4420	58.7997
 2.4410	59.0867
 2.4400	59.5527
 2.4390	59.7915
 2.4380	60.0539
 2.4370	60.3263
 2.4360	60.6924
 2.4350	61.0285
 2.4340	61.3209
 2.4330	61.5593
 2.4320	61.8168
 2.4310	62.1167
 2.4300	62.4192
 2.4290	62.7199
 2.4280	63.0195
 2.4270	63.3742
 2.4260	63.6904
 2.4250	63.8925
 2.4240	64.1731
 2.4230	64.3099
 2.4220	64.5904
 2.4210	64.8827
 2.4200	65.1270
 2.4190	65.3689
 2.4180	65.5968
 2.4170	65.7622
 2.4160	65.9380
 2.4150	66.1567
 2.4140	66.3748
 2.4130	66.5168
 2.4120	66.6202
 2.4110	66.6590
 2.4100	66.8104
 2.4090	66.9147
 2.4080	67.0465
 2.4070	67.0496
 2.4060	67.2304
 2.4050	67.3479
 2.4040	67.4606
 2.4030	67.4210
 2.4020	67.5250
 2.4010	67.6156
 2.4000	67.7163
 2.3990	67.7697
 2.3980	67.8759
 2.3970	67.9295
 2.3960	68.0097
 2.3950	68.0212
 2.3940	68.0430
 2.3930	68.1120
 2.3920	68.2291
 2.3910	68.2916
 2.3900	68.2778
 2.3890	68.3284
 2.3880	68.3333
 2.3870	68.3528
 2.3860	68.2903
 2.3850	68.1996
 2.3840	68.1000
 2.3830	67.9908
 2.3820	67.9892
 2.3810	67.8200
 2.3800	67.6091
 2.3790	67.4324
 2.3780	67.2242
 2.3770	66.9910
 2.3760	66.6820
 2.3750	66.2845
 2.3740	65.8941
 2.3730	65.5079
 2.3720	65.1563
 2.3710	64.6902
 2.3700	64.1694
 2.3690	63.5935
 2.3680	62.9950
 2.3670	62.4313
 2.3660	61.8167
 2.3650	61.1725
 2.3640	60.4560
 2.3630	59.6535
 2.3620	58.8706
 2.3610	58.1062
 2.3600	57.3135
 2.3590	56.5014
 2.3580	55.6998
 2.3570	54.9165
 2.3560	54.0946
 2.3550	53.2404
 2.3540	52.4731
 2.3530	51.6805
 2.3520	50.9109
 2.3510	50.2001
 2.3500	49.4721
 2.3490	48.8112
 2.3480	48.1942
 2.3470	47.6352
 2.3460	47.0960
 2.3450	46.6364
 2.3440	46.2655
 2.3430	45.9328
 2.3420	45.5588
 2.3410	45.3343
 2.3400	45.1090
 2.3390	45.0076
 2.3380	45.0005
 2.3370	44.9275
 2.3360	44.9335
 2.3350	45.0163
 2.3340	45.1669
 2.3330	45.3683
 2.3320	45.5036
 2.3310	45.6948
 2.3300	45.9072
 2.3290	46.1932
 2.3280	46.4721
 2.3270	46.8277
 2.3260	47.1536
 2.3250	47.5063
 2.3240	47.8334
 2.3230	48.2168
 2.3220	48.5205
 2.3210	48.7901
 2.3200	49.1030
 2.3190	49.4467
 2.3180	49.7761
 2.3170	50.1205
 2.3160	50.3736
 2.3150	50.6443
 2.3140	50.8691
 2.3130	51.1446
 2.3120	51.3579
 2.3110	51.6352
 2.3100	51.7874
 2.3090	51.9827
 2.3080	52.2121
 2.3070	52.4532
 2.3060	52.6005
 2.3050	52.7704
 2.3040	52.9278
 2.3030	53.0829
 2.3020	53.2942
 2.3010	53.5054
 2.3000	53.6250
 2.2990	53.8324
 2.2980	54.0154
 2.2970	54.2214
 2.2960	54.3859
 2.2950	54.6546
 2.2940	54.8317
 2.2930	55.0747
 2.2920	55.3523
 2.2910	55.5991
 2.2900	55.9062
 2.2890	56.2284
 2.2880	56.4900
 2.2870	56.7895
 2.2860	57.0067
 2.2850	57.3656
 2.2840	57.7371
 2.2830	58.1218
 2.2820	58.4282
 2.2810	58.8262
 2.2800	59.2010
 2.2790	59.5948
 2.2780	59.9799
 2.2770	60.3460
 2.2760	60.7567
 2.2750	61.1674
 2.2740	61.5796
 2.2730	62.0020
 2.2720	62.3577
 2.2710	62.8076
 2.2700	63.1438
 2.2690	63.6027
 2.2680	63.8908
 2.2670	64.2629
 2.2660	64.6104
 2.2650	64.9082
 2.2640	65.2395
 2.2630	65.6313
 2.2620	65.8571
 2.2610	66.2527
 2.2600	66.5399
 2.2590	66.7968
 2.2580	67.1606
 2.2570	67.4480
 2.2560	67.7037
 2.2550	67.9951
 2.2540	68.2461
 2.2530	68.5641
 2.2520	68.7943
 2.2510	69.1259
 2.2500	69.3946
 2.2490	69.6450
 2.2480	69.8711
 2.2470	70.1729
 2.2460	70.4191
 2.2450	70.5794
 2.2440	70.8262
 2.2430	71.0608
 2.2420	71.3221
 2.2410	71.5382
 2.2400	71.7202
 2.2390	72.0511
 2.2380	72.1542
 2.2370	72.3818
 2.2360	72.6467
 2.2350	72.8738
 2.2340	72.9690
 2.2330	73.2513
 2.2320	73.4340
 2.2310	73.5744
 2.2300	73.7409
 2.2290	74.0168
 2.2280	74.1758
 2.2270	74.3593
 2.2260	74.5053
 2.2250	74.6637
 2.2240	74.7654
 2.2230	75.0044
 2.2220	75.1546
 2.2210	75.3636
 2.2200	75.4132
 2.2190	75.6633
 2.2180	75.7498
 2.2170	75.8509
 2.2160	76.0183
 2.2150	76.0676
 2.2140	76.2562
 2.2130	76.3501
 2.2120	76.5428
 2.2110	76.6361
 2.2100	76.7310
 2.2090	76.8405
 2.2080	76.8800
 2.2070	77.0526
 2.2060	77.0552
 2.2050	77.2505
 2.2040	77.3187
 2.2030	77.4791
 2.2020	77.4972
 2.2010	77.5580
 2.2000	77.6017
 2.1990	77.7215
 2.1980	77.6822
 2.1970	77.7930
 2.1960	77.8623
 2.1950	77.9343
 2.1940	77.8605
 2.1930	77.9912
 2.1920	77.9574
 2.1910	77.9958
 2.1900	77.9192
 2.1890	78.0054
 2.1880	77.9354
 2.1870	77.9110
 2.1860	77.9408
 2.1850	77.9647
 2.1840	77.9229
 2.1830	77.8988
 2.1820	77.8391
 2.1810	77.7866
 2.1800	77.7808
 2.1790	77.6570
 2.1780	77.5400
 2.1770	77.5539
 2.1760	77.4852
 2.1750	77.3781
 2.1740	77.3413
 2.1730	77.2346
 2.1720	77.0943
 2.1710	76.9536
 2.1700	76.8099
 2.1690	76.7863
 2.1680	76.7276
 2.1670	76.6481
 2.1660	76.5852
 2.1650	76.4520
 2.1640	76.3504
 2.1630	76.3207
 2.1620	76.2240
 2.1610	76.2394
 2.1600	76.1584
 2.1590	76.1850
 2.1580	76.1132
 2.1570	76.0782
 2.1560	76.0986
 2.1550	76.0893
 2.1540	76.1227
 2.1530	76.1746
 2.1520	76.2866
 2.1510	76.3246
 2.1500	76.3942
 2.1490	76.5108
 2.1480	76.6087
 2.1470	76.7724
 2.1460	76.9562
 2.1450	77.0914
 2.1440	77.2294
 2.1430	77.3920
 2.1420	77.5053
 2.1410	77.7425
 2.1400	77.8551
 2.1390	77.9981
 2.1380	78.1061
 2.1370	78.2510
 2.1360	78.3957
 2.1350	78.5091
 2.1340	78.5377
 2.1330	78.6002
 2.1320	78.6376
 2.1310	78.7174
 2.1300	78.7621
 2.1290	78.7187
 2.1280	78.7743
 2.1270	78.8136
 2.1260	78.8058
 2.1250	78.7938
 2.1240	78.8051
 2.1230	78.8030
 2.1220	78.7940
 2.1210	78.7902
 2.1200	78.7774
 2.1190	78.7733
 2.1180	78.7488
 2.1170	78.7796
 2.1160	78.7372
 2.1150	78.6916
 2.1140	78.6700
 2.1130	78.6967
 2.1120	78.7070
 2.1110	78.6340
 2.1100	78.6785
 2.1090	78.6924
 2.1080	78.6413
 2.1070	78.6358
 2.1060	78.6527
 2.1050	78.7011
 2.1040	78.6679
 2.1030	78.6639
 2.1020	78.6156
 2.1010	78.6016
 2.1000	78.6496
 2.0990	78.7158
 2.0980	78.7435
 2.0970	78.7809
 2.0960	78.8248
 2.0950	78.8275
 2.0940	78.8469
 2.0930	78.8523
 2.0920	78.8771
 2.0910	78.9155
 2.0900	78.9524
 2.0890	79.0015
 2.0880	78.9482
 2.0870	78.9454
 2.0860	78.9868
 2.0850	79.0276
 2.0840	78.9922
 2.0830	78.9871
 2.0820	79.0077
 2.0810	79.0564
 2.0800	79.0560
 2.0790	79.0613
 2.0780	79.0710
 2.0770	79.0770
 2.0760	79.0822
 2.0750	79.0744
 2.0740	79.0254
 2.0730	79.0473
 2.0720	79.0895
 2.0710	79.0433
 2.0700	79.0313
 2.0690	79.0332
 2.0680	79.0133
 2.0670	79.0214
 2.0660	79.0038
 2.0650	78.9801
 2.0640	78.9938
 2.0630	79.0081
 2.0620	78.9933
 2.0610	78.9912
 2.0600	78.9652
 2.0590	78.9759
 2.0580	78.9626
 2.0570	78.8827
 2.0560	78.9016
 2.0550	78.9232
 2.0540	78.9217
 2.0530	78.8693
 2.0520	78.8115
 2.0510	78.7960
 2.0500	78.7828
 2.0490	78.7695
 2.0480	78.7279
 2.0470	78.6888
 2.0460	78.6886
 2.0450	78.6328
 2.0440	78.6672
 2.0430	78.6283
 2.0420	78.5724
 2.0410	78.5122
 2.0400	78.4999
 2.0390	78.4360
 2.0380	78.4028
 2.0370	78.3299
 2.0360	78.3350
 2.0350	78.2860
 2.0340	78.2082
 2.0330	78.1219
 2.0320	78.0709
 2.0310	78.0107
 2.0300	77.9196
 2.0290	77.8530
 2.0280	77.7639
 2.0270	77.6469
 2.0260	77.5704
 2.0250	77.4510
 2.0240	77.3769
 2.0230	77.2821
 2.0220	77.1530
 2.0210	77.0799
 2.0200	77.0153
 2.0190	76.8906
 2.0180	76.7769
 2.0170	76.6357
 2.0160	76.5655
 2.0150	76.3797
 2.0140	76.2308
 2.0130	76.0267
 2.0120	75.9216
 2.0110	75.7328
 2.0100	75.4762
 2.0090	75.2856
 2.0080	75.0474
 2.0070	74.7868
 2.0060	74.6145
 2.0050	74.3011
 2.0040	74.0319
 2.0030	73.8033
 2.0020	73.5584
 2.0010	73.3576
 2.0000	73.1697
 1.9990	72.9424
 1.9980	72.8777
 1.9970	72.7812
 1.9960	72.7918
 1.9950	72.7241
 1.9940	72.7717
 1.9930	72.8234
 1.9920	72.9620
 1.9910	73.0708
 1.9900	73.1486
 1.9890	73.2235
 1.9880	73.3564
 1.9870	73.4645
 1.9860	73.5057
 1.9850	73.6351
 1.9840	73.7073
 1.9830	73.7292
 1.9820	73.7608
 1.9810	73.6901
 1.9800	73.8052
 1.9790	73.7471
 1.9780	73.7039
 1.9770	73.7158
 1.9760	73.6533
 1.9750	73.6631
 1.9740	73.6869
 1.9730	73.5990
 1.9720	73.5910
 1.9710	73.5345
 1.9700	73.4807
 1.9690	73.4927
 1.9680	73.4610
 1.9670	73.4036
 1.9660	73.4150
 1.9650	73.3922
 1.9640	73.3991
 1.9630	73.4128
 1.9620	73.3722
 1.9610	73.3880
 1.9600	73.3768
 1.9590	73.3148
 1.9580	73.3258
 1.9570	73.3145
 1.9560	73.3613
 1.9550	73.3127
 1.9540	73.3758
 1.9530	73.4212
 1.9520	73.3547
 1.9510	73.4020
 1.9500	73.3800
 1.9490	73.4065
 1.9480	73.4314
 1.9470	73.3701
 1.9460	73.4006
 1.9450	73.4350
 1.9440	73.3694
 1.9430	73.3819
 1.9420	73.5027
 1.9410	73.3838
 1.9400	73.4285
 1.9390	73.4732
 1.9380	73.5532
 1.9370	73.5290
 1.9360	73.6038
 1.9350	73.6744
 1.9340	73.7361
 1.9330	73.7565
 1.9320	73.7870
 1.9310	73.8497
 1.9300	73.8247
 1.9290	74.0118
 1.9280	74.0640
 1.9270	74.0765
 1.9260	74.1466
 1.9250	74.3219
 1.9240	74.3692
 1.9230	74.4095
 1.9220	74.6016
 1.9210	74.6972
 1.9200	74.8410
 1.9190	74.9946
 1.9180	75.1036
 1.9170	75.3299
 1.9160	75.4722
 1.9150	75.5943
 1.9140	75.8072
 1.9130	75.9133
 1.9120	76.1012
 1.9110	76.2754
 1.9100	76.5186
 1.9090	76.6411
 1.9080	76.8804
 1.9070	77.1112
 1.9060	77.3011
 1.9050	77.4923
 1.9040	77.7409
 1.9030	77.9406
 1.9020	78.2225
 1.9010	78.4191
 1.9000	78.6405
 1.8990	78.8579
 1.8980	78.9830
 1.8970	79.1762
 1.8960	79.3514
 1.8950	79.5264
 1.8940	79.6512
 1.8930	79.7130
 1.8920	79.7944
 1.8910	79.8754
 1.8900	79.9939
 1.8890	79.8845
 1.8880	79.9124
 1.8870	79.7550
 1.8860	79.6832
 1.8850	79.5277
 1.8840	79.4043
 1.8830	79.1578
 1.8820	79.0130
 1.8810	78.8907
 1.8800	78.6915
 1.8790	78.5531
 1.8780	78.5615
 1.8770	78.5010
 1.8760	78.4799
 1.8750	78.5799
 1.8740	78.7483
 1.8730	78.9850
 1.8720	79.2134
 1.8710	79.4969
 1.8700	79.8087
 1.8690	80.1398
 1.8680	80.4713
 1.8670	80.7887
 1.8660	81.0207
 1.8650	81.2829
 1.8640	81.4791
 1.8630	81.6927
 1.8620	81.9421
 1.8610	82.1334
 1.8600	82.3100
 1.8590	82.4187
 1.8580	82.5547
 1.8570	82.6763
 1.8560	82.7946
 1.8550	82.8974
 1.8540	83.0164
 1.8530	83.1036
 1.8520	83.1560
 1.8510	83.2073
 1.8500	83.2468
 1.8490	83.3127
 1.8480	83.3860
 1.8470	83.4977
 1.8460	83.5564
 1.8450	83.6123
 1.8440	83.6651
 1.8430	83.8151
 1.8420	83.8727
 1.8410	83.9516
 1.8400	84.0166
 1.8390	84.1029
 1.8380	84.1704
 1.8370	84.2357
 1.8360	84.3682
 1.8350	84.4843
 1.8340	84.6557
 1.8330	84.7275
 1.8320	84.7401
 1.8310	84.7659
 1.8300	84.8091
 1.8290	84.9506
 1.8280	85.0893
 1.8270	85.1134
 1.8260	85.1433
 1.8250	85.2648
 1.8240	85.3481
 1.8230	85.3503
 1.8220	85.4986
 1.8210	85.5367
 1.8200	85.5960
 1.8190	85.5831
 1.8180	85.6182
 1.8170	85.6975
 1.8160	85.7414
 1.8150	85.7861
 1.8140	85.8028
 1.8130	85.8139
 1.8120	85.8394
 1.8110	85.8794
 1.8100	85.9383
 1.8090	85.9658
 1.8080	86.0161
 1.8070	86.0410
 1.8060	86.0594
 1.8050	86.0734
 1.8040	86.0712
 1.8030	86.1268
 1.8020	86.1684
 1.8010	86.1675
 1.8000	86.2226
 1.7990	86.2850
 1.7980	86.2687
 1.7970	86.2538
 1.7960	86.3015
 1.7950	86.3079
 1.7940	86.3305
 1.7930	86.3219
 1.7920	86.3177
 1.7910	86.3369
 1.7900	86.3727
 1.7890	86.3768
 1.7880	86.3455
 1.7870	86.3963
 1.7860	86.4366
 1.7850	86.4450
 1.7840	86.4170
 1.7830	86.3678
 1.7820	86.3796
 1.7810	86.3785
 1.7800	86.4102
 1.7790	86.3978
 1.7780	86.3402
 1.7770	86.3479
 1.7760	86.3493
 1.7750	86.3920
 1.7740	86.3687
 1.7730	86.2984
 1.7720	86.2395
 1.7710	86.1885
 1.7700	86.1920
 1.7690	86.1890
 1.7680	86.0661
 1.7670	86.0090
 1.7660	86.0211
 1.7650	85.9352
 1.7640	85.8674
 1.7630	85.8071
 1.7620	85.7674
 1.7610	85.7289
 1.7600	85.7170
 1.7590	85.7129
 1.7580	85.7287
 1.7570	85.6933
 1.7560	85.7038
 1.7550	85.7555
 1.7540	85.8155
 1.7530	85.8016
 1.7520	85.8410
 1.7510	85.8987
 1.7500	85.9064
 1.7490	85.9135
 1.7480	85.9244
 1.7470	85.9194
 1.7460	85.9416
 1.7450	86.0002
 1.7440	86.0155
 1.7430	86.0119
 1.7420	85.9654
 1.7410	86.0452
 1.7400	86.0517
 1.7390	86.0132
 1.7380	86.0226
 1.7370	86.1045
 1.7360	86.0978
 1.7350	86.1349
 1.7340	86.0942
 1.7330	86.1477
 1.7320	86.1475
 1.7310	86.1645
 1.7300	86.1592
 1.7290	86.1534
 1.7280	86.2312
 1.7270	86.2870
 1.7260	86.3037
 1.7250	86.3074
 1.7240	86.3053
 1.7230	86.3018
 1.7220	86.4322
 1.7210	86.4464
 1.7200	86.4850
 1.7190	86.5286
 1.7180	86.5754
 1.7170	86.5776
 1.7160	86.5777
 1.7150	86.6456
 1.7140	86.6909
 1.7130	86.6791
 1.7120	86.6667
 1.7110	86.7573
 1.7100	86.7876
 1.7090	86.8593
 1.7080	86.8731
 1.7070	86.8139
 1.7060	86.8966
 1.7050	86.8704
 1.7040	86.9276
 1.7030	86.9395
 1.7020	86.9958
 1.7010	87.0225
 1.7000	86.9995
 1.6990	87.0340
 1.6980	87.0831
 1.6970	87.0349
 1.6960	87.0814
 1.6950	87.1173
 1.6940	87.0857
 1.6930	87.1911
 1.6920	87.2093
 1.6910	87.2787
 1.6900	87.1907
 1.6890	87.2033
 1.6880	87.3046
 1.6870	87.2784
 1.6860	87.2696
 1.6850	87.3059
 1.6840	87.3740
 1.6830	87.3882
 1.6820	87.3874
 1.6810	87.3604
 1.6800	87.3279
 1.6790	87.3436
 1.6780	87.4515
 1.6770	87.4583
 1.6760	87.4158
 1.6750	87.4526
 1.6740	87.3776
 1.6730	87.4710
 1.6720	87.4710
 1.6710	87.5088
 1.6700	87.5585
 1.6690	87.5139
 1.6680	87.4744
 1.6670	87.4780
 1.6660	87.4776
 1.6650	87.4991
 1.6640	87.4873
 1.6630	87.5469
 1.6620	87.6255
 1.6610	87.6028
 1.6600	87.5705
 1.6590	87.5313
 1.6580	87.5027
 1.6570	87.5321
 1.6560	87.5264
 1.6550	87.5772
 1.6540	87.5096
 1.6530	87.5256
 1.6520	87.4727
 1.6510	87.5089
 1.6500	87.4667
 1.6490	87.5206
 1.6480	87.4660
 1.6470	87.5967
 1.6460	87.5931
 1.6450	87.5947
 1.6440	87.5187
 1.6430	87.5645
 1.6420	87.6389
 1.6410	87.6440
 1.6400	87.6504
 1.6390	87.6606
 1.6380	87.7285
 1.6370	87.6618
 1.6360	87.6127
 1.6350	87.7046
 1.6340	87.7174
 1.6330	87.6796
 1.6320	87.6665
 1.6310	87.7372
 1.6300	87.7025
 1.6290	87.7958
 1.6280	87.6829
 1.6270	87.7864
 1.6260	87.7692
 1.6250	87.7382
 1.6240	87.8300
 1.6230	87.7779
 1.6220	87.8004
 1.6210	87.8131
 1.6200	87.8658
 1.6190	87.8152
 1.6180	87.8013
 1.6170	87.9115
 1.6160	87.8386
 1.6150	87.8400
 1.6140	87.7787
 1.6130	87.8128
 1.6120	87.8396
 1.6110	87.9335
 1.6100	87.8223
 1.6090	87.7912
 1.6080	87.7884
 1.6070	87.8548
 1.6060	87.8999
 1.6050	87.9130
 1.6040	87.9397
 1.6030	87.8212
 1.6020	87.8184
 1.6010	87.8857
 1.6000	87.8040
 1.5990	87.9091
 1.5980	87.9113
 1.5970	87.8935
 1.5960	87.8972
 1.5950	87.8797
 1.5940	87.8706
 1.5930	87.8682
 1.5920	87.8219
 1.5910	87.7789
 1.5900	87.7465
 1.5890	87.7606
 1.5880	87.7649
 1.5870	87.7513
 1.5860	87.7019
 1.5850	87.8399
 1.5840	87.7076
 1.5830	87.7321
 1.5820	87.7170
 1.5810	87.6871
 1.5800	87.6660
 1.5790	87.6619
 1.5780	87.6361
 1.5770	87.7064
 1.5760	87.5682
 1.5750	87.5912
 1.5740	87.5240
 1.5730	87.4721
 1.5720	87.5457
 1.5710	87.5715
 1.5700	87.4736
 1.5690	87.4609
 1.5680	87.4418
 1.5670	87.3960
 1.5660	87.3973
 1.5650	87.4203
 1.5640	87.3562
 1.5630	87.3503
 1.5620	87.3941
 1.5610	87.4146
 1.5600	87.3907
 1.5590	87.4235
 1.5580	87.4890
 1.5570	87.4454
 1.5560	87.3828
 1.5550	87.4596
 1.5540	87.4135
 1.5530	87.3987
 1.5520	87.3828
 1.5510	87.3838
 1.5500	87.3961
 1.5490	87.3958
 1.5480	87.3962
 1.5470	87.4320
 1.5460	87.3379
 1.5450	87.3145
 1.5440	87.2759
 1.5430	87.3088
 1.5420	87.3240
 1.5410	87.3689
 1.5400	87.3122
 1.5390	87.3078
 1.5380	87.2537
 1.5370	87.2345
 1.5360	87.2651
 1.5350	87.2410
 1.5340	87.2341
 1.5330	87.2204
 1.5320	87.2009
 1.5310	87.1725
 1.5300	87.1943
 1.5290	87.1795
 1.5280	87.1428
 1.5270	87.1511
 1.5260	87.1343
 1.5250	87.1023
 1.5240	87.0550
 1.5230	87.0517
 1.5220	87.0756
 1.5210	87.0233
 1.5200	86.9598
 1.5190	87.0116
 1.5180	87.0091
 1.5170	86.9458
 1.5160	86.9211
 1.5150	86.9248
 1.5140	86.9296
 1.5130	86.8926
 1.5120	86.7686
 1.5110	86.7968
 1.5100	86.8313
 1.5090	86.7989
 1.5080	86.7574
 1.5070	86.7115
 1.5060	86.6870
 1.5050	86.6820
 1.5040	86.6712
 1.5030	86.6765
 1.5020	86.6341
 1.5010	86.6187
 1.5000	86.6453
 1.4990	86.5980
 1.4980	86.5519
 1.4970	86.5138
 1.4960	86.4580
 1.4950	86.4012
 1.4940	86.4160
 1.4930	86.4139
 1.4920	86.3650
 1.4910	86.3310
 1.4900	86.2986
 1.4890	86.3075
 1.4880	86.2462
 1.4870	86.1757
 1.4860	86.1928
 1.4850	86.1787
 1.4840	86.1471
 1.4830	86.1235
 1.4820	86.1463
 1.4810	86.0838
 1.4800	86.0355
 1.4790	86.0395
 1.4780	86.0378
 1.4770	85.9932
 1.4760	85.9999
 1.4750	86.0410
 1.4740	86.0022
 1.4730	85.9730
 1.4720	85.9126
 1.4710	85.8706
 1.4700	85.8754
 1.4690	85.8855
 1.4680	85.8748
 1.4670	85.8465
 1.4660	85.8444
 1.4650	85.8628
 1.4640	85.8723
 1.4630	85.8844
 1.4620	85.8929
 1.4610	85.8538
 1.4600	85.8289
 1.4590	85.7787
 1.4580	85.7540
 1.4570	85.7760
 1.4560	85.8172
 1.4550	85.8174
 1.4540	85.8342
 1.4530	85.8405
 1.4520	85.8880
 1.4510	85.9138
 1.4500	85.8959
 1.4490	85.9103
 1.4480	85.8953
 1.4470	85.9736
 1.4460	85.9971
 1.4450	85.9212
 1.4440	85.9212
 1.4430	85.9266
 1.4420	85.9359
 1.4410	86.0393
 1.4400	86.0364
 1.4390	86.0722
 1.4380	86.0775
 1.4370	86.0604
 1.4360	86.1279
 1.4350	86.1897
 1.4340	86.1858
 1.4330	86.2249
 1.4320	86.2946
 1.4310	86.2938
 1.4300	86.3453
 1.4290	86.2639
 1.4280	86.3646
 1.4270	86.4212
 1.4260	86.4820
 1.4250	86.5326
 1.4240	86.5277
 1.4230	86.6071
 1.4220	86.6183
 1.4210	86.6874
 1.4200	86.7885
 1.4190	86.8848
 1.4180	86.9143
 1.4170	86.9020
 1.4160	87.0226
 1.4150	87.0466
 1.4140	87.1770
 1.4130	87.2528
 1.4120	87.2920
 1.4110	87.3250
 1.4100	87.4727
 1.4090	87.4431
 1.4080	87.4886
 1.4070	87.5709
 1.4060	87.7069
 1.4050	87.7772
 1.4040	87.9095
 1.4030	87.9687
 1.4020	88.0355
 1.4010	88.1623
 1.4000	88.1829
 1.3990	88.1802
 1.3980	88.2640
 1.3970	88.4418
 1.3960	88.5393
 1.3950	88.5096
 1.3940	88.5448
 1.3930	88.6065
 1.3920	88.7458
 1.3910	88.8352
 1.3900	88.8377
 1.3890	88.9050
 1.3880	88.9158
 1.3870	89.0240
 1.3860	89.0588
 1.3850	89.0743
 1.3840	89.1487
 1.3830	89.0889
 1.3820	89.1647
 1.3810	89.1007
 1.3800	89.1219
 1.3790	89.2668
 1.3780	89.2994
 1.3770	89.3046
 1.3760	89.3912
 1.3750	89.3246
 1.3740	89.4419
 1.3730	89.3530
 1.3720	89.4911
 1.3710	89.4539
 1.3700	89.4254
 1.3690	89.4488
 1.3680	89.4561
 1.3670	89.4104
 1.3660	89.4577
 1.3650	89.5327
 1.3640	89.4833
 1.3630	89.5369
 1.3620	89.3794
 1.3610	89.4655
 1.3600	89.5061
 1.3590	89.3449
 1.3580	89.5492
 1.3570	89.5607
 1.3560	89.5513
 1.3550	89.4549
 1.3540	89.5076
 1.3530	89.5033
 1.3520	89.5118
 1.3510	89.6406
 1.3500	89.5488
 1.3490	89.5287
 1.3480	89.5500
 1.3470	89.5170
 1.3460	89.6089
 1.3450	89.5679
 1.3440	89.5700
 1.3430	89.6118
 1.3420	89.5516
 1.3410	89.6050
 1.3400	89.6356
 1.3390	89.5610
 1.3380	89.6485
 1.3370	89.6762
 1.3360	89.6335
 1.3350	89.6458
 1.3340	89.5929
 1.3330	89.6996
 1.3320	89.6894
 1.3310	89.6603
 1.3300	89.7253
 1.3290	89.6680
 1.3280	89.7156
 1.3270	89.7254
 1.3260	89.7046
 1.3250	89.6853
 1.3240	89.7100
 1.3230	89.8023
 1.3220	89.7626
 1.3210	89.7383
 1.3200	89.7259
 1.3190	89.7256
 1.3180	89.7374
 1.3170	89.7322
 1.3160	89.7678
 1.3150	89.7586
 1.3140	89.7153
 1.3130	89.7735
 1.3120	89.7438
 1.3110	89.7689
 1.3100	89.8451
 1.3090	89.7782
 1.3080	89.8021
 1.3070	89.7979
 1.3060	89.8244
 1.3050	89.8839
 1.3040	89.8398
 1.3030	89.8154
 1.3020	89.8424
 1.3010	89.8101
 1.3000	89.8845
 1.2990	89.8171
 1.2980	89.7993
 1.2970	89.8230
 1.2960	89.8948
 1.2950	89.8783
 1.2940	89.8667
 1.2930	89.8473
 1.2920	89.7845
 1.2910	89.8069
 1.2900	89.8009
 1.2890	89.7982
 1.2880	89.7473
 1.2870	89.7722
 1.2860	89.7821
 1.2850	89.8426
 1.2840	89.8771
 1.2830	89.8610
 1.2820	89.8537
 1.2810	89.7988
 1.2800	89.8339
 1.2790	89.8257
 1.2780	89.8186
 1.2770	89.7585
 1.2760	89.7841
 1.2750	89.8550
 1.2740	89.8487
 1.2730	89.8062
 1.2720	89.8129
 1.2710	89.8178
 1.2700	89.7722
 1.2690	89.8116
 1.2680	89.8237
 1.2670	89.7768
 1.2660	89.7616
 1.2650	89.7813
 1.2640	89.8095
 1.2630	89.8114
 1.2620	89.8056
 1.2610	89.8050
 1.2600	89.8308
 1.2590	89.7997
 1.2580	89.7303
 1.2570	89.7534
 1.2560	89.7902
 1.2550	89.8575
 1.2540	89.8411
 1.2530	89.8324
 1.2520	89.8081
 1.2510	89.7628
 1.2500	89.7898
 1.2490	89.8083
 1.2480	89.7889
 1.2470	89.7883
 1.2460	89.8018
 1.2450	89.8084
 1.2440	89.8336
 1.2430	89.7867
 1.2420	89.7547
 1.2410	89.8296
 1.2400	89.8135
 1.2390	89.8374
 1.2380	89.8402
 1.2370	89.7630
 1.2360	89.7924
 1.2350	89.8134
 1.2340	89.7661
 1.2330	89.7869
 1.2320	89.8016
 1.2310	89.8010
 1.2300	89.7908
 1.2290	89.7950
 1.2280	89.7968
 1.2270	89.7374
 1.2260	89.7679
 1.2250	89.8098
 1.2240	89.8107
 1.2230	89.7606
 1.2220	89.8266
 1.2210	89.8416
 1.2200	89.8035
 1.2190	89.7486
 1.2180	89.7557
 1.2170	89.7880
 1.2160	89.7957
 1.2150	89.7870
 1.2140	89.7464
 1.2130	89.7290
 1.2120	89.7113
 1.2110	89.7453
 1.2100	89.7624
 1.2090	89.7497
 1.2080	89.7740
 1.2070	89.7320
 1.2060	89.6686
 1.2050	89.6963
 1.2040	89.7332
 1.2030	89.7433
 1.2020	89.7323
 1.2010	89.7408
 1.2000	89.7089
 1.1990	89.6957
 1.1980	89.7277
 1.1970	89.7366
 1.1960	89.7461
 1.1950	89.7338
 1.1940	89.7397
 1.1930	89.7412
 1.1920	89.7367
 1.1910	89.7627
 1.1900	89.7788
 1.1890	89.7912
 1.1880	89.7063
 1.1870	89.6995
 1.1860	89.7490
 1.1850	89.7728
 1.1840	89.8040
 1.1830	89.7923
 1.1820	89.7444
 1.1810	89.7676
 1.1800	89.7825
 1.1790	89.8041
 1.1780	89.7915
 1.1770	89.7559
 1.1760	89.7566
 1.1750	89.7723
 1.1740	89.7487
 1.1730	89.7340
 1.1720	89.7065
 1.1710	89.7182
 1.1700	89.7804
 1.1690	89.7892
 1.1680	89.7651
 1.1670	89.7638
 1.1660	89.7425
 1.1650	89.7872
 1.1640	89.7721
 1.1630	89.8202
 1.1620	89.8105
 1.1610	89.7979
 1.1600	89.8024
 1.1590	89.8134
 1.1580	89.7443
 1.1570	89.7873
 1.1560	89.8394
 1.1550	89.7840
 1.1540	89.8433
 1.1530	89.8043
 1.1520	89.7862
 1.1510	89.9023
 1.1500	89.8908
 1.1490	89.8088
 1.1480	89.8066
 1.1470	89.8511
 1.1460	89.8219
 1.1450	89.8441
 1.1440	89.8300
 1.1430	89.8959
 1.1420	89.9077
 1.1410	89.9024
 1.1400	89.8457
 1.1390	89.9285
 1.1380	89.8820
 1.1370	89.8404
 1.1360	89.8529
 1.1350	89.8573
 1.1340	89.8482
 1.1330	89.8960
 1.1320	89.8997
 1.1310	89.9159
 1.1300	89.9283
 1.1290	89.9439
 1.1280	89.8797
 1.1270	89.8981
 1.1260	89.8681
 1.1250	89.8716
 1.1240	89.9093
 1.1230	89.8943
 1.1220	89.8578
 1.1210	89.8747
 1.1200	89.9032
 1.1190	89.9389
 1.1180	89.9682
 1.1170	89.9443
 1.1160	89.8933
 1.1150	89.9058
 1.1140	89.9319
 1.1130	89.9073
 1.1120	89.8389
 1.1110	89.9727
 1.1100	89.9096
 1.1090	89.9315
 1.1080	89.9352
 1.1070	89.9349
 1.1060	89.8632
 1.1050	89.9533
 1.1040	89.9191
 1.1030	89.9845
 1.1020	89.9322
 1.1010	89.9461
 1.1000	89.9597
 1.0990	89.9330
 1.0980	89.8553
 1.0970	89.8937
 1.0960	89.9902
 1.0950	90.0065
 1.0940	89.9011
 1.0930	89.9026
 1.0920	89.9491
 1.0910	90.0139
 1.0900	89.9340
 1.0890	89.8764
 1.0880	89.9420
 1.0870	89.8558
 1.0860	89.9335
 1.0850	89.8930
 1.0840	89.9303
 1.0830	89.9739
 1.0820	89.9430
 1.0810	89.9573
 1.0800	89.9402
 1.0790	89.9233
 1.0780	89.9045
 1.0770	89.9179
 1.0760	89.8852
 1.0750	89.9535
 1.0740	89.8999
 1.0730	89.9907
 1.0720	89.9077
 1.0710	89.9591
 1.0700	89.9161
 1.0690	90.0326
 1.0680	89.9168
 1.0670	89.9687
 1.0660	89.9390
 1.0650	90.0153
 1.0640	89.9857
 1.0630	89.8881
 1.0620	89.9917
 1.0610	89.9781
 1.0600	89.9848
 1.0590	90.0152
 1.0580	89.9881
 1.0570	90.0195
 1.0560	89.9301
 1.0550	89.9401
 1.0540	89.9513
 1.0530	89.9894
 1.0520	89.9640
 1.0510	90.0329
 1.0500	89.9969
 1.0490	90.0622
 1.0480	90.0942
 1.0470	89.9978
 1.0460	89.9517
 1.0450	89.9689
 1.0440	89.9786
 1.0430	90.0062
 1.0420	89.9898
 1.0410	89.9936
 1.0400	90.0034
 1.0390	90.0294
 1.0380	90.0399
 1.0370	90.0458
 1.0360	89.9894
 1.0350	89.9132
 1.0340	89.9159
 1.0330	89.9582
 1.0320	89.9090
 1.0310	90.0112
 1.0300	89.9220
 1.0290	90.0097
 1.0280	90.0365
 1.0270	89.9462
 1.0260	89.9703
 1.0250	90.0067
 1.0240	90.0000
 1.0230	90.0336
 1.0220	89.9552
 1.0210	89.9965
 1.0200	89.9449
 1.0190	90.0181
 1.0180	89.9115
 1.0170	90.0342
 1.0160	90.0338
 1.0150	90.0026
 1.0140	89.9992
 1.0130	89.9756
 1.0120	89.9666
 1.0110	89.9105
 1.0100	89.9805
 1.0090	89.9361
 1.0080	89.9258
 1.0070	89.9797
 1.0060	90.0152
 1.0050	90.0151
 1.0040	89.9490
 1.0030	89.9823
 1.0020	90.0724
 1.0010	89.9802
 1.0000	89.9955
 0.9990	89.9862
 0.9980	89.9307
 0.9970	89.9091
 0.9960	89.9652
 0.9950	89.9325
 0.9940	89.9997
 0.9930	89.9562
 0.9920	89.8997
 0.9910	89.9569
 0.9900	89.9254
 0.9890	89.9739
 0.9880	89.9395
 0.9870	89.8898
 0.9860	89.8941
 0.9850	89.9476
 0.9840	89.9109
 0.9830	89.9033
 0.9820	89.9326
 0.9810	89.8970
 0.9800	89.9070
 0.9790	89.9758
 0.9780	89.9396
 0.9770	89.9868
 0.9760	89.9558
 0.9750	89.9128
 0.9740	89.9363
 0.9730	89.9648
 0.9720	89.9366
 0.9710	89.9050
 0.9700	89.9756
 0.9690	90.0263
 0.9680	89.9788
 0.9670	89.9258
 0.9660	89.9152
 0.9650	89.9568
 0.9640	89.9907
 0.9630	89.9902
 0.9620	89.9540
 0.9610	89.8925
 0.9600	89.8394
 0.9590	89.8806
 0.9580	89.8914
 0.9570	89.9020
 0.9560	89.9320
 0.9550	89.9495
 0.9540	89.9525
 0.9530	89.9552
 0.9520	89.9566
 0.9510	89.9481
 0.9500	89.8814
 0.9490	89.8801
 0.9480	89.8900
 0.9470	89.8730
 0.9460	89.8589
 0.9450	89.9084
 0.9440	89.9327
 0.9430	89.9001
 0.9420	89.8945
 0.9410	89.9006
 0.9400	89.8974
 0.9390	89.9420
 0.9380	89.9089
 0.9370	89.8969
 0.9360	89.9107
 0.9350	89.8835
 0.9340	89.9052
 0.9330	89.9219
 0.9320	89.8910
 0.9310	89.8436
 0.9300	89.8357
 0.9290	89.8888
 0.9280	89.9129
 0.9270	89.8748
 0.9260	89.8580
 0.9250	89.8607
 0.9240	89.8368
 0.9230	89.8492
 0.9220	89.8213
 0.9210	89.8661
 0.9200	89.8969
 0.9190	89.8895
 0.9180	89.8739
 0.9170	89.8252
 0.9160	89.8488
 0.9150	89.8383
 0.9140	89.7814
 0.9130	89.7578
 0.9120	89.7447
 0.9110	89.7683
 0.9100	89.7453
 0.9090	89.7526
 0.9080	89.7650
 0.9070	89.7765
 0.9060	89.7699
 0.9050	89.7182
 0.9040	89.7352
 0.9030	89.7114
 0.9020	89.6808
 0.9010	89.7188
 0.9000	89.7278
 0.8990	89.7550
 0.8980	89.7380
 0.8970	89.7222
 0.8960	89.6746
 0.8950	89.6545
 0.8940	89.6700
 0.8930	89.6784
 0.8920	89.5861
 0.8910	89.6002
 0.8900	89.6367
 0.8890	89.6352
 0.8880	89.6834
 0.8870	89.6633
 0.8860	89.5747
 0.8850	89.5646
 0.8840	89.6084
 0.8830	89.5853
 0.8820	89.6054
 0.8810	89.5489
 0.8800	89.5099
 0.8790	89.4826
 0.8780	89.5276
 0.8770	89.4856
 0.8760	89.5224
 0.8750	89.5094
 0.8740	89.4656
 0.8730	89.5046
 0.8720	89.5231
 0.8710	89.4632
 0.8700	89.4714
 0.8690	89.4807
 0.8680	89.4012
 0.8670	89.3274
 0.8660	89.3650
 0.8650	89.4024
 0.8640	89.4245
 0.8630	89.3712
 0.8620	89.4019
 0.8610	89.3677
 0.8600	89.2970
 0.8590	89.1529
 0.8580	89.2443
 0.8570	89.2129
 0.8560	89.1835
 0.8550	89.3016
 0.8540	89.2449
 0.8530	89.0863
 0.8520	89.1949
 0.8510	89.1738
 0.8500	89.1790
 0.8490	89.1409
 0.8480	89.1138
 0.8470	89.0406
 0.8460	89.1262
 0.8450	89.0915
 0.8440	89.0102
 0.8430	89.1208
 0.8420	89.0572
 0.8410	89.0346
 0.8400	89.0715
 0.8390	89.0462
 0.8380	88.9877
 0.8370	89.0246
 0.8360	89.0330
 0.8350	88.9764
 0.8340	89.0039
 0.8330	89.0015
 0.8320	89.0195
 0.8310	88.9143
 0.8300	88.9690
 0.8290	88.9423
 0.8280	88.9243
 0.8270	88.9549
 0.8260	88.9118
 0.8250	88.9038
 0.8240	88.8259
 0.8230	88.7970
 0.8220	88.8344
 0.8210	88.8893
 0.8200	88.8741
 0.8190	88.8138
 0.8180	88.7869
 0.8170	88.7980
 0.8160	88.7668
 0.8150	88.7909
 0.8140	88.7406
 0.8130	88.7295
 0.8120	88.6858
 0.8110	88.7039
 0.8100	88.6747
 0.8090	88.7083
 0.8080	88.7237
 0.8070	88.6908
 0.8060	88.6500
 0.8050	88.6906
 0.8040	88.5780
 0.8030	88.5988
 0.8020	88.6372
 0.8010	88.5677
 0.8000	88.5146
 0.7990	88.5402
 0.7980	88.4629
 0.7970	88.4500
 0.7960	88.4641
 0.7950	88.3864
 0.7940	88.3138
 0.7930	88.3786
 0.7920	88.2714
 0.7910	88.2878
 0.7900	88.2892
 0.7890	88.2662
 0.7880	88.2509
 0.7870	88.2275
 0.7860	88.2642
 0.7850	88.1671
 0.7840	88.1997
 0.7830	88.1594
 0.7820	88.1196
 0.7810	88.1248
 0.7800	88.1067
 0.7790	88.0735
 0.7780	88.0502
 0.7770	87.9731
 0.7760	87.9464
 0.7750	87.8737
 0.7740	87.9061
 0.7730	87.9122
 0.7720	87.8807
 0.7710	87.8314
 0.7700	87.8281
 0.7690	87.8115
 0.7680	87.7624
 0.7670	87.7651
 0.7660	87.6964
 0.7650	87.6792
 0.7640	87.6701
 0.7630	87.6184
 0.7620	87.6120
 0.7610	87.6084
 0.7600	87.4993
 0.7590	87.5122
 0.7580	87.5196
 0.7570	87.4859
 0.7560	87.4807
 0.7550	87.4289
 0.7540	87.4151
 0.7530	87.3777
 0.7520	87.3461
 0.7510	87.3568
 0.7500	87.3170
 0.7490	87.2697
 0.7480	87.2511
 0.7470	87.2144
 0.7460	87.1685
 0.7450	87.1569
 0.7440	87.1291
 0.7430	87.0901
 0.7420	87.0795
 0.7410	87.0625
 0.7400	87.0053
 0.7390	86.9936
 0.7380	86.9713
 0.7370	86.9245
 0.7360	86.8738
 0.7350	86.8618
 0.7340	86.7941
 0.7330	86.7596
 0.7320	86.7542
 0.7310	86.7141
 0.7300	86.6892
 0.7290	86.6526
 0.7280	86.5997
 0.7270	86.5786
 0.7260	86.5614
 0.7250	86.5226
 0.7240	86.4935
 0.7230	86.4459
 0.7220	86.4240
 0.7210	86.3861
 0.7200	86.3382
 0.7190	86.2971
 0.7180	86.2640
 0.7170	86.2170
 0.7160	86.2098
 0.7150	86.1627
 0.7140	86.1373
 0.7130	86.0915
 0.7120	86.0690
 0.7110	85.9915
 0.7100	85.9521
 0.7090	85.9406
 0.7080	85.8935
 0.7070	85.8511
 0.7060	85.7859
 0.7050	85.7305
 0.7040	85.7239
 0.7030	85.6844
 0.7020	85.6303
 0.7010	85.5849
 0.7000	85.5399
 0.6990	85.4876
 0.6980	85.4680
 0.6970	85.4263
 0.6960	85.3742
 0.6950	85.3483
 0.6940	85.2713
 0.6930	85.2012
 0.6920	85.1694
 0.6910	85.1362
 0.6900	85.0732
 0.6890	85.0450
 0.6880	84.9964
 0.6870	84.9285
 0.6860	84.8821
 0.6850	84.8292
 0.6840	84.7872
 0.6830	84.7336
 0.6820	84.6612
 0.6810	84.5953
 0.6800	84.5508
 0.6790	84.5198
 0.6780	84.4723
 0.6770	84.4025
 0.6760	84.3654
 0.6750	84.3080
 0.6740	84.2514
 0.6730	84.1952
 0.6720	84.1435
 0.6710	84.0779
 0.6700	84.0194
 0.6690	83.9675
 0.6680	83.9010
 0.6670	83.8460
 0.6660	83.8005
 0.6650	83.7488
 0.6640	83.6904
 0.6630	83.6251
 0.6620	83.5852
 0.6610	83.5482
 0.6600	83.4800
 0.6590	83.4226
 0.6580	83.3738
 0.6570	83.3041
 0.6560	83.2456
 0.6550	83.2102
 0.6540	83.1443
 0.6530	83.0827
 0.6520	83.0362
 0.6510	82.9793
 0.6500	82.9007
 0.6490	82.8340
 0.6480	82.7914
 0.6470	82.7292
 0.6460	82.6685
 0.6450	82.6189
 0.6440	82.5591
 0.6430	82.5031
 0.6420	82.4468
 0.6410	82.3855
 0.6400	82.3160
 0.6390	82.2449
 0.6380	82.1786
 0.6370	82.1146
 0.6360	82.0426
 0.6350	81.9868
 0.6340	81.9286
 0.6330	81.8588
 0.6320	81.7794
 0.6310	81.7151
 0.6300	81.6584
 0.6290	81.5812
 0.6280	81.5083
 0.6270	81.4339
 0.6260	81.3732
 0.6250	81.2924
 0.6240	81.2151
 0.6230	81.1643
 0.6220	81.0966
 0.6210	81.0157
 0.6200	80.9351
 0.6190	80.8554
 0.6180	80.7895
 0.6170	80.7147
 0.6160	80.6350
 0.6150	80.5603
 0.6140	80.4768
 0.6130	80.4064
 0.6120	80.3228
 0.6110	80.2422
 0.6100	80.1662
 0.6090	80.0840
 0.6080	80.0076
 0.6070	79.9296
 0.6060	79.8542
 0.6050	79.7801
 0.6040	79.7121
 0.6030	79.6319
 0.6020	79.5570
 0.6010	79.4731
 0.6000	79.3764
 0.5990	79.3005
 0.5980	79.2338
 0.5970	79.1566
 0.5960	79.0824
 0.5950	79.0172
 0.5940	78.9287
 0.5930	78.8404
 0.5920	78.7581
 0.5910	78.6732
 0.5900	78.5849
 0.5890	78.5014
 0.5880	78.4002
 0.5870	78.3183
 0.5860	78.2276
 0.5850	78.1317
 0.5840	78.0426
 0.5830	77.9481
 0.5820	77.8574
 0.5810	77.7506
 0.5800	77.6651
 0.5790	77.5607
 0.5780	77.4484
 0.5770	77.3501
 0.5760	77.2560
 0.5750	77.1761
 0.5740	77.0836
 0.5730	76.9918
 0.5720	76.8924
 0.5710	76.7994
 0.5700	76.6892
 0.5690	76.5860
 0.5680	76.4815
 0.5670	76.3792
 0.5660	76.2853
 0.5650	76.2028
 0.5640	76.0875
 0.5630	75.9840
 0.5620	75.8717
 0.5610	75.7657
 0.5600	75.6496
 0.5590	75.5390
 0.5580	75.4334
 0.5570	75.3216
 0.5560	75.2178
 0.5550	75.1138
 0.5540	75.0142
 0.5530	74.8923
 0.5520	74.7690
 0.5510	74.6713
 0.5500	74.5871
 0.5490	74.4643
 0.5480	74.3516
 0.5470	74.2207
 0.5460	74.1103
 0.5450	73.9865
 0.5440	73.8745
 0.5430	73.7585
 0.5420	73.6320
 0.5410	73.5225
 0.5400	73.4117
 0.5390	73.2944
 0.5380	73.1606
 0.5370	73.0639
 0.5360	72.9347
 0.5350	72.8359
 0.5340	72.6838
 0.5330	72.5653
 0.5320	72.4231
 0.5310	72.3084
 0.5300	72.1966
 0.5290	72.0845
 0.5280	71.9384
 0.5270	71.8119
 0.5260	71.6963
 0.5250	71.5699
 0.5240	71.4289
 0.5230	71.3119
 0.5220	71.2071
 0.5210	71.0608
 0.5200	70.9223
 0.5190	70.7738
 0.5180	70.6658
 0.5170	70.5379
 0.5160	70.3991
 0.5150	70.2699
 0.5140	70.1251
 0.5130	69.9753
 0.5120	69.8320
 0.5110	69.7118
 0.5100	69.5670
 0.5090	69.4490
 0.5080	69.3001
 0.5070	69.1626
 0.5060	69.0129
 0.5050	68.8852
 0.5040	68.7311
 0.5030	68.6056
 0.5020	68.4607
 0.5010	68.2914
 0.5000	68.1380
 0.4990	68.0016
 0.4980	67.8680
 0.4970	67.7167
 0.4960	67.5561
 0.4950	67.4456
 0.4940	67.2640
 0.4930	67.1432
 0.4920	66.9767
 0.4910	66.8294
 0.4900	66.6950
 0.4890	66.5154
 0.4880	66.3545
 0.4870	66.2136
 0.4860	66.0613
 0.4850	65.8779
 0.4840	65.7136
 0.4830	65.5565
 0.4820	65.4385
 0.4810	65.3080
 0.4800	65.1663
 0.4790	65.0259
 0.4780	64.8823
 0.4770	64.7416
 0.4760	64.6153
 0.4750	64.4614
 0.4740	64.3085
 0.4730	64.1469
 0.4720	64.0025
 0.4710	63.8456
 0.4700	63.7074
 0.4690	63.5507
 0.4680	63.3997
 0.4670	63.2300
 0.4660	63.0759
 0.4650	62.9277
 0.4640	62.7847
 0.4630	62.6338
 0.4620	62.4549
 0.4610	62.2913
 0.4600	62.1239
 0.4590	61.9639
 0.4580	61.7975
 0.4570	61.6474
 0.4560	61.4800
 0.4550	61.2838
 0.4540	61.1199
 0.4530	60.9751
 0.4520	60.7967
 0.4510	60.6230
 0.4500	60.4530
 0.4490	60.2643
 0.4480	60.1000
 0.4470	59.9236
 0.4460	59.7333
 0.4450	59.5580
 0.4440	59.3544
 0.4430	59.1901
 0.4420	59.0082
 0.4410	58.8459
 0.4400	58.6654
 0.4390	58.4766
 0.4380	58.2972
 0.4370	58.1114
 0.4360	57.9259
 0.4350	57.7460
 0.4340	57.5478
 0.4330	57.3650
 0.4320	57.1822
 0.4310	56.9955
 0.4300	56.8011
 0.4290	56.6103
 0.4280	56.4164
 0.4270	56.2163
 0.4260	56.0245
 0.4250	55.8258
 0.4240	55.6250
 0.4230	55.4417
 0.4220	55.2401
 0.4210	55.0206
 0.4200	54.8358
 0.4190	54.6377
 0.4180	54.4341
 0.4170	54.2437
 0.4160	54.0247
 0.4150	53.8409
 0.4140	53.6387
 0.4130	53.4194
 0.4120	53.2091
 0.4110	53.0068
 0.4100	52.8072
 0.4090	52.5966
 0.4080	52.3873
 0.4070	52.1847
 0.4060	51.9608
 0.4050	51.7445
 0.4040	51.5339
 0.4030	51.3147
 0.4020	51.0940
 0.4010	50.8756
 0.4000	50.6454
