Name: Montebrasite LiAlPO_4(OH)
Type: Mineral
Class: Phosphate
Subclass: None
Particle Size: Medium
Sample No.: P-2A
Owner: JPL
Wavelength Range: VSWIR
Origin: USA, Couth Dakota, Custer County, Custer
Collection Date: N/A
Description: Particle size was 45-125um.Collected by Burminco Original ASTER Spectral Library name was jpl.beckman.mineral.phosphate.none.medium.p02a.spectrum.txt
Measurement: Hemispherical reflectance
First Column: X
Second Column: Y
X Units: Wavelength (micrometers)
Y Units:Reflectance (percent)
First X Value:  0.4000
Last X Value:  2.5000
Number of X Values: 826
Additional Information: mineral.phosphate.none.medium.vswir.p-2a.jpl.beckman.ancillary.txt

 0.4000	68.6800
 0.4010	68.8400
 0.4020	68.9100
 0.4030	68.9700
 0.4040	69.0200
 0.4050	69.1600
 0.4060	69.1100
 0.4070	69.1900
 0.4080	69.2800
 0.4090	69.2800
 0.4100	69.3800
 0.4110	69.3400
 0.4120	69.3800
 0.4130	69.5300
 0.4140	69.5000
 0.4150	69.6100
 0.4160	69.6400
 0.4170	69.7900
 0.4180	69.8200
 0.4190	69.6800
 0.4200	69.8200
 0.4210	69.8100
 0.4220	70.0000
 0.4230	70.1200
 0.4240	70.0300
 0.4250	70.1700
 0.4260	70.0800
 0.4270	70.1400
 0.4280	70.2900
 0.4290	70.3100
 0.4300	70.4000
 0.4310	70.3700
 0.4320	70.4400
 0.4330	70.5500
 0.4340	70.4400
 0.4350	70.5300
 0.4360	70.5300
 0.4370	70.5900
 0.4380	70.7000
 0.4390	70.7100
 0.4400	70.7600
 0.4410	70.7300
 0.4420	70.8200
 0.4430	70.9100
 0.4440	70.8600
 0.4450	70.8800
 0.4460	70.8200
 0.4470	70.9500
 0.4480	71.0900
 0.4490	70.9400
 0.4500	71.0400
 0.4510	70.9400
 0.4520	70.9800
 0.4530	71.0700
 0.4540	71.0800
 0.4550	71.1400
 0.4560	71.0800
 0.4570	71.0900
 0.4580	71.3000
 0.4590	71.2100
 0.4600	71.2700
 0.4610	71.2300
 0.4620	71.2800
 0.4630	71.2600
 0.4640	71.2700
 0.4650	71.3000
 0.4660	71.4000
 0.4670	71.4600
 0.4680	71.4600
 0.4690	71.4900
 0.4700	71.3800
 0.4710	71.4300
 0.4720	71.4600
 0.4730	71.4500
 0.4740	71.4600
 0.4750	71.5100
 0.4760	71.5500
 0.4770	71.5800
 0.4780	71.5300
 0.4790	71.7100
 0.4800	71.6800
 0.4810	71.6800
 0.4820	71.6800
 0.4830	71.5500
 0.4840	71.6600
 0.4850	71.7300
 0.4860	71.7400
 0.4870	71.7300
 0.4880	71.6600
 0.4890	71.7700
 0.4900	71.7900
 0.4910	71.8100
 0.4920	71.7300
 0.4930	71.8000
 0.4940	71.8200
 0.4950	71.9100
 0.4960	71.8800
 0.4970	71.9100
 0.4980	71.8900
 0.4990	71.9600
 0.5000	71.9900
 0.5010	71.9500
 0.5020	71.9500
 0.5030	71.9100
 0.5040	71.9200
 0.5050	72.0900
 0.5060	71.9500
 0.5070	71.9800
 0.5080	72.0100
 0.5090	72.0800
 0.5100	72.2300
 0.5110	72.1600
 0.5120	72.1500
 0.5130	72.0900
 0.5140	72.1200
 0.5150	72.2100
 0.5160	72.1600
 0.5170	72.2600
 0.5180	72.2200
 0.5190	72.2400
 0.5200	72.3400
 0.5210	72.2900
 0.5220	72.3700
 0.5230	72.3400
 0.5240	72.3600
 0.5250	72.4000
 0.5260	72.2600
 0.5270	72.2600
 0.5280	72.2900
 0.5290	72.2500
 0.5300	72.4500
 0.5310	72.3800
 0.5320	72.4100
 0.5330	72.3600
 0.5340	72.3200
 0.5350	72.4200
 0.5360	72.3900
 0.5370	72.3900
 0.5380	72.3300
 0.5390	72.5000
 0.5400	72.6300
 0.5410	72.4900
 0.5420	72.4700
 0.5430	72.4100
 0.5440	72.4400
 0.5450	72.5800
 0.5460	72.5600
 0.5470	72.6500
 0.5480	72.5800
 0.5490	72.5100
 0.5500	72.7100
 0.5510	72.6300
 0.5520	72.6900
 0.5530	72.6500
 0.5540	72.6800
 0.5550	72.7100
 0.5560	72.7200
 0.5570	72.6200
 0.5580	72.6600
 0.5590	72.5400
 0.5600	72.6400
 0.5610	72.9800
 0.5620	72.9600
 0.5630	72.9700
 0.5640	73.0300
 0.5650	73.0100
 0.5660	73.0200
 0.5670	72.9800
 0.5680	72.8300
 0.5690	72.9200
 0.5700	72.9900
 0.5710	72.9800
 0.5720	72.8600
 0.5730	72.7500
 0.5740	72.8100
 0.5750	72.8600
 0.5760	72.8400
 0.5770	72.8600
 0.5780	72.6800
 0.5790	72.7700
 0.5800	72.9100
 0.5810	72.9100
 0.5820	72.9000
 0.5830	72.7900
 0.5840	72.9100
 0.5850	72.8500
 0.5860	72.8300
 0.5870	72.9200
 0.5880	72.7700
 0.5890	72.9300
 0.5900	72.9500
 0.5910	72.8900
 0.5920	73.0000
 0.5930	72.8500
 0.5940	72.9800
 0.5950	73.0300
 0.5960	72.8600
 0.5970	73.0200
 0.5980	72.9500
 0.5990	72.9900
 0.6000	73.1100
 0.6010	73.1300
 0.6020	73.2000
 0.6030	72.9700
 0.6040	73.0500
 0.6050	73.0500
 0.6060	73.0400
 0.6070	73.0300
 0.6080	73.0900
 0.6090	73.0900
 0.6100	73.1300
 0.6110	73.0700
 0.6120	73.0900
 0.6130	73.0200
 0.6140	72.9900
 0.6150	73.1100
 0.6160	72.9800
 0.6170	73.0200
 0.6180	73.0500
 0.6190	73.0500
 0.6200	72.9800
 0.6210	72.8900
 0.6220	72.9500
 0.6230	73.1500
 0.6240	72.9700
 0.6250	72.9700
 0.6260	72.9100
 0.6270	73.0600
 0.6280	73.1200
 0.6290	72.9600
 0.6300	73.0200
 0.6310	72.9600
 0.6320	73.0300
 0.6330	73.0400
 0.6340	73.0000
 0.6350	73.1200
 0.6360	73.0200
 0.6370	73.0700
 0.6380	73.0700
 0.6390	72.9400
 0.6400	73.0300
 0.6410	72.9800
 0.6420	73.0700
 0.6430	73.0700
 0.6440	72.9900
 0.6450	73.1700
 0.6460	73.0500
 0.6470	73.0800
 0.6480	73.0600
 0.6490	73.0500
 0.6500	73.1600
 0.6510	73.1300
 0.6520	73.1800
 0.6530	73.1600
 0.6540	73.1900
 0.6550	73.1600
 0.6560	73.1100
 0.6570	73.0700
 0.6580	73.1100
 0.6590	73.0800
 0.6600	73.1500
 0.6610	73.1800
 0.6620	73.2100
 0.6630	73.2500
 0.6640	73.0600
 0.6650	73.1600
 0.6660	73.2200
 0.6670	73.0400
 0.6680	73.0700
 0.6690	73.1300
 0.6700	73.2100
 0.6710	73.2400
 0.6720	73.1400
 0.6730	73.2000
 0.6740	73.1400
 0.6750	73.1900
 0.6760	73.2200
 0.6770	73.0900
 0.6780	73.1800
 0.6790	73.0900
 0.6800	73.1000
 0.6810	73.1900
 0.6820	73.1100
 0.6830	73.1800
 0.6840	73.0700
 0.6850	73.1400
 0.6860	73.1500
 0.6870	73.1400
 0.6880	73.3000
 0.6890	73.2200
 0.6900	73.2300
 0.6910	73.1900
 0.6920	73.0900
 0.6930	73.2800
 0.6940	73.2400
 0.6950	73.2600
 0.6960	73.2900
 0.6970	73.1600
 0.6980	73.3400
 0.6990	73.1600
 0.7000	73.1800
 0.7010	73.1500
 0.7020	73.2200
 0.7030	73.2100
 0.7040	73.1200
 0.7050	73.1400
 0.7060	73.3000
 0.7070	73.1400
 0.7080	73.1900
 0.7090	73.1800
 0.7100	73.2100
 0.7110	73.2800
 0.7120	73.2700
 0.7130	73.3400
 0.7140	73.3100
 0.7150	73.2100
 0.7160	73.2800
 0.7170	73.2500
 0.7180	73.2700
 0.7190	73.2200
 0.7200	73.1700
 0.7210	73.2300
 0.7220	73.2300
 0.7230	73.3200
 0.7240	73.2100
 0.7250	73.2000
 0.7260	73.2200
 0.7270	73.0900
 0.7280	73.1700
 0.7290	73.1600
 0.7300	73.1700
 0.7310	73.1700
 0.7320	73.1100
 0.7330	73.2000
 0.7340	73.2700
 0.7350	73.1400
 0.7360	73.2300
 0.7370	73.1600
 0.7380	73.1900
 0.7390	73.2900
 0.7400	73.2100
 0.7410	73.2100
 0.7420	73.0700
 0.7430	73.2800
 0.7440	73.2700
 0.7450	73.2100
 0.7460	73.2400
 0.7470	73.1200
 0.7480	73.1800
 0.7490	73.2600
 0.7500	73.1600
 0.7510	73.2100
 0.7520	73.1600
 0.7530	73.2800
 0.7540	73.3600
 0.7550	73.2500
 0.7560	73.2300
 0.7570	73.1700
 0.7580	73.2400
 0.7590	73.3600
 0.7600	73.1900
 0.7610	73.3200
 0.7620	73.1700
 0.7630	73.1400
 0.7640	73.2300
 0.7650	73.1600
 0.7660	73.1800
 0.7670	73.1100
 0.7680	73.2700
 0.7690	73.2700
 0.7700	73.1600
 0.7710	73.2400
 0.7720	73.2400
 0.7730	73.2700
 0.7740	73.3400
 0.7750	73.2800
 0.7760	73.3100
 0.7770	73.2300
 0.7780	73.3000
 0.7790	73.2900
 0.7800	73.2100
 0.7810	73.2800
 0.7820	73.1900
 0.7830	73.2900
 0.7840	73.2600
 0.7850	73.1600
 0.7860	73.2000
 0.7870	73.1400
 0.7880	73.2700
 0.7890	73.1900
 0.7900	73.1100
 0.7910	73.1900
 0.7920	73.1600
 0.7930	73.2500
 0.7940	73.3100
 0.7950	73.2700
 0.7960	73.3000
 0.7970	73.1600
 0.7980	73.2100
 0.7990	73.2500
 0.8000	73.4100
 0.8040	73.4000
 0.8080	73.4900
 0.8120	73.4300
 0.8160	73.4100
 0.8200	73.3900
 0.8240	73.4400
 0.8280	73.4400
 0.8320	73.5000
 0.8360	73.5000
 0.8400	73.5600
 0.8440	73.6000
 0.8480	73.5700
 0.8520	73.7200
 0.8560	73.5800
 0.8600	73.6800
 0.8640	73.7100
 0.8680	73.6700
 0.8720	73.7600
 0.8760	73.6700
 0.8800	73.6600
 0.8840	73.7400
 0.8880	73.7200
 0.8920	73.7300
 0.8960	73.8200
 0.9000	73.6800
 0.9040	73.6800
 0.9080	73.6500
 0.9120	73.6500
 0.9160	73.7200
 0.9200	73.6900
 0.9240	73.7000
 0.9280	73.6000
 0.9320	73.6500
 0.9360	73.6600
 0.9400	73.7300
 0.9440	73.7100
 0.9480	73.7100
 0.9520	73.6700
 0.9560	73.6100
 0.9600	73.6900
 0.9640	73.7400
 0.9680	73.6700
 0.9720	73.6500
 0.9760	73.6800
 0.9800	73.6900
 0.9840	73.6800
 0.9880	73.6800
 0.9920	73.6800
 0.9960	73.7300
 1.0000	73.7800
 1.0040	73.8600
 1.0080	73.7700
 1.0120	73.8300
 1.0160	73.7200
 1.0200	73.7200
 1.0240	73.7400
 1.0280	73.7200
 1.0320	73.7100
 1.0360	73.7500
 1.0400	73.8100
 1.0440	73.7700
 1.0480	73.7300
 1.0520	73.6600
 1.0560	73.7300
 1.0600	73.7700
 1.0640	73.7000
 1.0680	73.8300
 1.0720	73.8700
 1.0760	73.8300
 1.0800	73.9000
 1.0840	73.8700
 1.0880	73.8700
 1.0920	73.8300
 1.0960	73.8200
 1.1000	73.8900
 1.1040	73.8600
 1.1080	73.7600
 1.1120	73.9600
 1.1160	73.8900
 1.1200	73.9300
 1.1240	73.9400
 1.1280	73.9100
 1.1320	73.8000
 1.1360	73.7500
 1.1400	73.7400
 1.1440	73.7200
 1.1480	73.7600
 1.1520	73.7700
 1.1560	73.7300
 1.1600	73.7200
 1.1640	73.8300
 1.1680	73.7400
 1.1720	73.6900
 1.1760	73.7100
 1.1800	73.7200
 1.1840	73.7300
 1.1880	73.6900
 1.1920	73.6200
 1.1960	73.7300
 1.2000	73.7600
 1.2040	73.7400
 1.2080	73.7100
 1.2120	73.7100
 1.2160	73.6800
 1.2200	73.7700
 1.2240	73.7600
 1.2280	73.7700
 1.2320	73.7900
 1.2360	73.7300
 1.2400	73.6800
 1.2440	73.6100
 1.2480	73.5300
 1.2520	73.5900
 1.2560	73.5200
 1.2600	73.5600
 1.2640	73.4600
 1.2680	73.4600
 1.2720	73.4000
 1.2760	73.2800
 1.2800	73.1200
 1.2840	73.0100
 1.2880	73.0300
 1.2920	73.0700
 1.2960	73.2000
 1.3000	73.2400
 1.3040	73.2500
 1.3080	73.1400
 1.3120	73.1400
 1.3160	73.1900
 1.3200	73.1200
 1.3240	73.1000
 1.3280	73.0100
 1.3320	72.9500
 1.3360	72.8500
 1.3400	72.8000
 1.3440	72.6200
 1.3480	72.5100
 1.3520	72.4500
 1.3560	72.6300
 1.3600	72.8500
 1.3640	72.9100
 1.3680	73.0500
 1.3720	73.0300
 1.3760	72.9600
 1.3800	72.8600
 1.3840	72.8200
 1.3880	72.6900
 1.3920	72.6300
 1.3960	72.4600
 1.4000	72.2100
 1.4040	71.7600
 1.4080	71.0600
 1.4120	70.5300
 1.4160	70.9000
 1.4200	71.3000
 1.4240	71.2600
 1.4280	71.0200
 1.4320	70.6500
 1.4360	69.9900
 1.4400	69.0300
 1.4440	69.0200
 1.4480	69.5900
 1.4520	69.7900
 1.4560	69.6800
 1.4600	69.4500
 1.4640	69.1600
 1.4680	68.8000
 1.4720	68.4400
 1.4760	68.2800
 1.4800	68.2500
 1.4840	68.1800
 1.4880	67.9600
 1.4920	67.5500
 1.4960	67.0000
 1.5000	66.5400
 1.5040	65.6300
 1.5080	64.8800
 1.5120	64.1700
 1.5160	63.4800
 1.5200	62.6300
 1.5240	61.7900
 1.5280	60.8500
 1.5320	60.3800
 1.5360	60.6800
 1.5400	61.4000
 1.5440	62.4500
 1.5480	63.4400
 1.5520	64.4300
 1.5560	65.1800
 1.5600	65.7400
 1.5640	66.1900
 1.5680	66.5900
 1.5720	66.8800
 1.5760	67.1300
 1.5800	67.4900
 1.5840	67.6900
 1.5880	67.8300
 1.5920	68.0400
 1.5960	68.0400
 1.6000	68.1500
 1.6040	68.1700
 1.6080	68.3100
 1.6120	68.4600
 1.6160	68.6000
 1.6200	68.7600
 1.6240	68.8200
 1.6280	68.9000
 1.6320	68.9600
 1.6360	69.0700
 1.6400	69.1600
 1.6440	69.1300
 1.6480	69.1900
 1.6520	69.3700
 1.6560	69.4400
 1.6600	69.4800
 1.6640	69.4500
 1.6680	69.5800
 1.6720	69.5800
 1.6760	69.6600
 1.6800	69.6600
 1.6840	69.5900
 1.6880	69.6300
 1.6920	69.6000
 1.6960	69.5100
 1.7000	69.5200
 1.7040	69.3100
 1.7080	69.1400
 1.7120	68.7400
 1.7160	68.4200
 1.7200	68.0300
 1.7240	67.6700
 1.7280	67.4400
 1.7320	67.4400
 1.7360	67.3700
 1.7400	67.4700
 1.7440	67.4400
 1.7480	67.4900
 1.7520	67.3100
 1.7560	67.2000
 1.7600	67.1200
 1.7640	67.0700
 1.7680	67.1700
 1.7720	67.3100
 1.7760	67.4500
 1.7800	67.6700
 1.7840	67.9300
 1.7880	68.1500
 1.7920	68.3800
 1.7960	68.4700
 1.8000	68.5800
 1.8040	68.6000
 1.8080	68.5900
 1.8120	68.4500
 1.8160	68.3500
 1.8200	67.8100
 1.8240	66.9800
 1.8280	65.7800
 1.8320	64.2300
 1.8360	62.6700
 1.8400	61.4800
 1.8440	60.9500
 1.8480	61.0300
 1.8520	61.5000
 1.8560	62.2100
 1.8600	63.0200
 1.8640	63.6400
 1.8680	64.0000
 1.8720	64.0600
 1.8760	64.2300
 1.8800	64.1100
 1.8840	64.1000
 1.8880	63.9600
 1.8920	63.8100
 1.8960	63.6800
 1.9000	63.5300
 1.9040	63.4500
 1.9080	63.4100
 1.9120	63.4200
 1.9160	63.4400
 1.9200	63.5300
 1.9240	63.5800
 1.9280	63.6100
 1.9320	63.6200
 1.9360	63.5600
 1.9400	63.5000
 1.9440	63.5000
 1.9480	63.3400
 1.9520	63.1000
 1.9560	62.7400
 1.9600	62.1300
 1.9640	61.1300
 1.9680	59.7900
 1.9720	57.6800
 1.9760	55.2300
 1.9800	52.5000
 1.9840	50.2100
 1.9880	48.7900
 1.9920	48.7800
 1.9960	49.8400
 2.0000	52.0000
 2.0040	54.4400
 2.0080	56.7500
 2.0120	58.4600
 2.0160	59.5900
 2.0200	60.3000
 2.0240	60.4400
 2.0280	60.3400
 2.0320	60.0400
 2.0360	59.6400
 2.0400	59.2900
 2.0440	58.8300
 2.0480	58.4400
 2.0520	58.2600
 2.0560	58.1300
 2.0600	58.0300
 2.0640	58.0800
 2.0680	58.3000
 2.0720	58.5500
 2.0760	58.6700
 2.0800	58.7200
 2.0840	58.7400
 2.0880	58.6900
 2.0920	58.4600
 2.0960	58.2500
 2.1000	57.8900
 2.1040	57.5900
 2.1080	57.1900
 2.1120	56.8800
 2.1160	56.5200
 2.1200	56.0700
 2.1240	55.6100
 2.1280	54.7700
 2.1320	53.4400
 2.1360	51.5800
 2.1400	48.7600
 2.1440	45.0000
 2.1480	40.4500
 2.1520	35.3900
 2.1560	30.3800
 2.1600	25.9300
 2.1640	22.6100
 2.1680	20.6600
 2.1720	19.9700
 2.1760	20.2300
 2.1800	21.1600
 2.1840	22.5400
 2.1880	24.0700
 2.1920	25.8100
 2.1960	27.7000
 2.2000	29.6500
 2.2040	31.5600
 2.2080	33.2500
 2.2120	34.8800
 2.2160	36.3400
 2.2200	37.5600
 2.2240	38.7800
 2.2280	39.9400
 2.2320	41.0300
 2.2360	42.1100
 2.2400	43.2600
 2.2440	44.2800
 2.2480	45.1600
 2.2520	45.9600
 2.2560	46.7300
 2.2600	47.3600
 2.2640	47.9700
 2.2680	48.6100
 2.2720	49.2500
 2.2760	49.9500
 2.2800	50.8400
 2.2840	51.8200
 2.2880	52.8300
 2.2920	53.9800
 2.2960	54.9500
 2.3000	55.7800
 2.3040	56.5600
 2.3080	57.1100
 2.3120	57.4900
 2.3160	57.6500
 2.3200	57.6200
 2.3240	57.3200
 2.3280	56.6500
 2.3320	55.5100
 2.3360	53.6400
 2.3400	51.0000
 2.3440	47.5900
 2.3480	43.4600
 2.3520	38.9000
 2.3560	34.3900
 2.3600	30.4200
 2.3640	27.4000
 2.3680	25.8700
 2.3720	25.9000
 2.3760	27.4500
 2.3800	30.0100
 2.3840	33.2900
 2.3880	36.6800
 2.3920	39.8700
 2.3960	42.7800
 2.4000	45.1300
 2.4040	46.9800
 2.4080	48.3700
 2.4120	49.3400
 2.4160	49.9200
 2.4200	50.1800
 2.4240	50.0700
 2.4280	49.7900
 2.4320	49.2600
 2.4360	48.5100
 2.4400	47.5700
 2.4440	46.6500
 2.4480	45.5200
 2.4520	44.3000
 2.4560	43.0400
 2.4600	41.7700
 2.4640	40.5800
 2.4680	39.4200
 2.4720	38.3400
 2.4760	37.4200
 2.4800	36.5600
 2.4840	35.8400
 2.4880	35.1500
 2.4920	34.6600
 2.4960	34.2200
 2.5000	33.9000
