Name: Vermiculite (Mg,Fe^2+,Al)_3(Al,Si)_4O_10(OH)_2.4H_2O
Type: Mineral
Class: Silicate
Subclass: Phyllosilicate
Particle Size: Fine
Sample No.: PS-18B
Owner: JPL
Wavelength Range: VSWIR
Origin: USA, Montana, Lincoln County, Libby.
Collection Date: N/A
Description: Particle size was 0-45um.Collected by:  Ward's Original ASTER Spectral Library name was jpl.perkin.mineral.silicate.phyllosilicate.fine.ps18b.spectrum.txt
Measurement: Hemispherical reflectance
First Column: X
Second Column: Y
X Units: Wavelength (micrometers)
Y Units:Reflectance (percent)
First X Value:  2.5000
Last X Value:  0.4000
Number of X Values: 2101
Additional Information: mineral.silicate.phyllosilicate.fine.vswir.ps-18b.jpl.perkin.ancillary.txt

 2.5000	45.0968
 2.4990	45.1909
 2.4980	45.1917
 2.4970	45.4063
 2.4960	44.9824
 2.4950	45.5853
 2.4940	45.3442
 2.4930	45.5196
 2.4920	45.4609
 2.4910	45.7010
 2.4900	45.5900
 2.4890	45.8179
 2.4880	45.7029
 2.4870	46.0366
 2.4860	45.8482
 2.4850	45.9831
 2.4840	45.9759
 2.4830	46.1826
 2.4820	46.2242
 2.4810	46.2471
 2.4800	46.3013
 2.4790	46.5363
 2.4780	46.3876
 2.4770	46.5162
 2.4760	46.4784
 2.4750	46.5453
 2.4740	46.5682
 2.4730	46.7890
 2.4720	46.6520
 2.4710	46.7873
 2.4700	46.6973
 2.4690	47.0146
 2.4680	46.9629
 2.4670	47.2016
 2.4660	47.0615
 2.4650	47.1691
 2.4640	47.2978
 2.4630	47.3347
 2.4620	47.3522
 2.4610	47.5415
 2.4600	47.4927
 2.4590	47.6620
 2.4580	47.6243
 2.4570	47.7408
 2.4560	47.7716
 2.4550	47.9158
 2.4540	47.8433
 2.4530	48.0043
 2.4520	48.0434
 2.4510	48.0950
 2.4500	48.2304
 2.4490	48.2292
 2.4480	48.2639
 2.4470	48.4500
 2.4460	48.4738
 2.4450	48.4540
 2.4440	48.6003
 2.4430	48.6785
 2.4420	48.7282
 2.4410	48.7974
 2.4400	48.7627
 2.4390	48.8484
 2.4380	48.7950
 2.4370	48.9177
 2.4360	49.0181
 2.4350	49.1959
 2.4340	49.1187
 2.4330	49.2114
 2.4320	49.2637
 2.4310	49.4087
 2.4300	49.4115
 2.4290	49.5786
 2.4280	49.4744
 2.4270	49.6156
 2.4260	49.6194
 2.4250	49.6632
 2.4240	49.6426
 2.4230	49.7845
 2.4220	49.8127
 2.4210	49.8861
 2.4200	49.9563
 2.4190	50.0588
 2.4180	50.1095
 2.4170	50.1553
 2.4160	50.1183
 2.4150	50.2465
 2.4140	50.1628
 2.4130	50.2707
 2.4120	50.2822
 2.4110	50.3629
 2.4100	50.4006
 2.4090	50.4102
 2.4080	50.4113
 2.4070	50.4565
 2.4060	50.4692
 2.4050	50.5081
 2.4040	50.4766
 2.4030	50.5714
 2.4020	50.5937
 2.4010	50.6553
 2.4000	50.5992
 2.3990	50.6725
 2.3980	50.7198
 2.3970	50.7735
 2.3960	50.7450
 2.3950	50.7740
 2.3940	50.8116
 2.3930	50.8921
 2.3920	50.8771
 2.3910	50.9335
 2.3900	50.9459
 2.3890	50.9904
 2.3880	51.0585
 2.3870	51.1116
 2.3860	51.1825
 2.3850	51.2577
 2.3840	51.2974
 2.3830	51.3962
 2.3820	51.3955
 2.3810	51.4776
 2.3800	51.6110
 2.3790	51.7654
 2.3780	51.8103
 2.3770	51.8458
 2.3760	51.9875
 2.3750	52.1519
 2.3740	52.2529
 2.3730	52.2841
 2.3720	52.3925
 2.3710	52.5418
 2.3700	52.6978
 2.3690	52.8103
 2.3680	52.8604
 2.3670	52.9765
 2.3660	53.0336
 2.3650	53.1226
 2.3640	53.2883
 2.3630	53.3919
 2.3620	53.4460
 2.3610	53.5442
 2.3600	53.5990
 2.3590	53.6300
 2.3580	53.7548
 2.3570	53.8222
 2.3560	53.8440
 2.3550	53.9486
 2.3540	54.0406
 2.3530	54.0418
 2.3520	54.1005
 2.3510	54.1805
 2.3500	54.2176
 2.3490	54.2265
 2.3480	54.2859
 2.3470	54.3490
 2.3460	54.3353
 2.3450	54.2884
 2.3440	54.2704
 2.3430	54.2209
 2.3420	54.2208
 2.3410	54.2134
 2.3400	54.1913
 2.3390	54.0953
 2.3380	54.0098
 2.3370	53.9631
 2.3360	53.9431
 2.3350	53.8689
 2.3340	53.7958
 2.3330	53.6749
 2.3320	53.5862
 2.3310	53.5161
 2.3300	53.4802
 2.3290	53.4058
 2.3280	53.3157
 2.3270	53.2242
 2.3260	53.1844
 2.3250	53.0660
 2.3240	53.0230
 2.3230	53.0379
 2.3220	52.9860
 2.3210	52.9436
 2.3200	52.9357
 2.3190	52.8945
 2.3180	52.8966
 2.3170	52.8868
 2.3160	52.8967
 2.3150	52.8616
 2.3140	52.8731
 2.3130	52.8259
 2.3120	52.8429
 2.3110	52.8980
 2.3100	52.9001
 2.3090	52.9446
 2.3080	53.0016
 2.3070	52.9833
 2.3060	53.0052
 2.3050	52.9961
 2.3040	53.0375
 2.3030	53.0353
 2.3020	53.1200
 2.3010	53.2286
 2.3000	53.2882
 2.2990	53.3214
 2.2980	53.4304
 2.2970	53.4526
 2.2960	53.5952
 2.2950	53.6586
 2.2940	53.8129
 2.2930	53.9611
 2.2920	54.1341
 2.2910	54.2582
 2.2900	54.4555
 2.2890	54.6372
 2.2880	54.8623
 2.2870	55.1142
 2.2860	55.4065
 2.2850	55.6177
 2.2840	55.9494
 2.2830	56.0887
 2.2820	56.4067
 2.2810	56.6523
 2.2800	56.9007
 2.2790	57.1691
 2.2780	57.4930
 2.2770	57.7946
 2.2760	57.9877
 2.2750	58.1592
 2.2740	58.4401
 2.2730	58.6427
 2.2720	58.8173
 2.2710	59.0136
 2.2700	59.1823
 2.2690	59.4116
 2.2680	59.6297
 2.2670	59.7206
 2.2660	59.8312
 2.2650	59.9447
 2.2640	60.1317
 2.2630	60.2074
 2.2620	60.2482
 2.2610	60.3409
 2.2600	60.5149
 2.2590	60.6137
 2.2580	60.7572
 2.2570	60.7433
 2.2560	60.8875
 2.2550	60.9314
 2.2540	60.9733
 2.2530	61.1412
 2.2520	61.1506
 2.2510	61.1327
 2.2500	61.2913
 2.2490	61.3170
 2.2480	61.3924
 2.2470	61.4491
 2.2460	61.5484
 2.2450	61.5197
 2.2440	61.7108
 2.2430	61.6704
 2.2420	61.7401
 2.2410	61.7696
 2.2400	61.7960
 2.2390	61.8718
 2.2380	61.9706
 2.2370	61.9664
 2.2360	62.1055
 2.2350	62.0725
 2.2340	62.1135
 2.2330	62.1401
 2.2320	62.1976
 2.2310	62.1940
 2.2300	62.2360
 2.2290	62.3219
 2.2280	62.4332
 2.2270	62.3020
 2.2260	62.3711
 2.2250	62.3595
 2.2240	62.4655
 2.2230	62.5186
 2.2220	62.5640
 2.2210	62.5695
 2.2200	62.6454
 2.2190	62.5858
 2.2180	62.6069
 2.2170	62.6412
 2.2160	62.7501
 2.2150	62.6730
 2.2140	62.7614
 2.2130	62.6974
 2.2120	62.7658
 2.2110	62.7069
 2.2100	62.8460
 2.2090	62.8044
 2.2080	62.8689
 2.2070	62.8456
 2.2060	63.0295
 2.2050	63.0328
 2.2040	62.9975
 2.2030	62.9559
 2.2020	63.0470
 2.2010	63.0350
 2.2000	63.1386
 2.1990	63.1520
 2.1980	63.1451
 2.1970	63.1044
 2.1960	63.1362
 2.1950	63.0637
 2.1940	63.1617
 2.1930	63.1712
 2.1920	63.1840
 2.1910	63.1766
 2.1900	63.2427
 2.1890	63.2074
 2.1880	63.1918
 2.1870	63.1752
 2.1860	63.2096
 2.1850	63.3070
 2.1840	63.3115
 2.1830	63.3224
 2.1820	63.4476
 2.1810	63.3861
 2.1800	63.3493
 2.1790	63.3934
 2.1780	63.4421
 2.1770	63.3889
 2.1760	63.4016
 2.1750	63.3396
 2.1740	63.4378
 2.1730	63.4055
 2.1720	63.5373
 2.1710	63.4662
 2.1700	63.5164
 2.1690	63.5024
 2.1680	63.5602
 2.1670	63.6139
 2.1660	63.5790
 2.1650	63.6107
 2.1640	63.5892
 2.1630	63.5733
 2.1620	63.6136
 2.1610	63.6727
 2.1600	63.5808
 2.1590	63.5979
 2.1580	63.6824
 2.1570	63.6554
 2.1560	63.6899
 2.1550	63.6889
 2.1540	63.6754
 2.1530	63.6776
 2.1520	63.6806
 2.1510	63.6589
 2.1500	63.6998
 2.1490	63.6659
 2.1480	63.6868
 2.1470	63.6235
 2.1460	63.5824
 2.1450	63.5831
 2.1440	63.5869
 2.1430	63.5927
 2.1420	63.5952
 2.1410	63.5221
 2.1400	63.5333
 2.1390	63.4922
 2.1380	63.5280
 2.1370	63.4899
 2.1360	63.4893
 2.1350	63.3517
 2.1340	63.3163
 2.1330	63.2944
 2.1320	63.2892
 2.1310	63.2621
 2.1300	63.1726
 2.1290	63.1321
 2.1280	63.1039
 2.1270	63.1022
 2.1260	63.0806
 2.1250	63.0281
 2.1240	63.0125
 2.1230	62.9164
 2.1220	62.8037
 2.1210	62.7892
 2.1200	62.7467
 2.1190	62.7754
 2.1180	62.7152
 2.1170	62.5558
 2.1160	62.5022
 2.1150	62.4361
 2.1140	62.4479
 2.1130	62.3501
 2.1120	62.3042
 2.1110	62.2727
 2.1100	62.1733
 2.1090	62.1433
 2.1080	62.0897
 2.1070	62.0575
 2.1060	62.0019
 2.1050	61.9318
 2.1040	61.8602
 2.1030	61.7554
 2.1020	61.7282
 2.1010	61.6560
 2.1000	61.5567
 2.0990	61.5048
 2.0980	61.5548
 2.0970	61.5036
 2.0960	61.5228
 2.0950	61.5713
 2.0940	61.5181
 2.0930	61.4220
 2.0920	61.4058
 2.0910	61.3813
 2.0900	61.3578
 2.0890	61.3379
 2.0880	61.3612
 2.0870	61.3777
 2.0860	61.3155
 2.0850	61.2542
 2.0840	61.2378
 2.0830	61.2036
 2.0820	61.1588
 2.0810	61.1905
 2.0800	61.1427
 2.0790	61.1269
 2.0780	61.1591
 2.0770	61.1211
 2.0760	61.0790
 2.0750	61.0551
 2.0740	60.9813
 2.0730	60.9600
 2.0720	60.9867
 2.0710	60.9500
 2.0700	60.9117
 2.0690	60.8600
 2.0680	60.8589
 2.0670	60.8378
 2.0660	60.7797
 2.0650	60.7597
 2.0640	60.7043
 2.0630	60.6568
 2.0620	60.6401
 2.0610	60.6125
 2.0600	60.5732
 2.0590	60.5234
 2.0580	60.4785
 2.0570	60.4947
 2.0560	60.4463
 2.0550	60.4002
 2.0540	60.3849
 2.0530	60.3184
 2.0520	60.3811
 2.0510	60.3025
 2.0500	60.1288
 2.0490	60.1175
 2.0480	60.1052
 2.0470	60.1091
 2.0460	60.0600
 2.0450	59.9644
 2.0440	59.9649
 2.0430	59.9352
 2.0420	59.8633
 2.0410	59.8001
 2.0400	59.7552
 2.0390	59.7601
 2.0380	59.6380
 2.0370	59.6258
 2.0360	59.5855
 2.0350	59.5231
 2.0340	59.4634
 2.0330	59.4248
 2.0320	59.3390
 2.0310	59.3328
 2.0300	59.2572
 2.0290	59.1641
 2.0280	59.0755
 2.0270	59.0415
 2.0260	58.9128
 2.0250	58.8960
 2.0240	58.7568
 2.0230	58.7145
 2.0220	58.6905
 2.0210	58.5697
 2.0200	58.4521
 2.0190	58.3899
 2.0180	58.2953
 2.0170	58.2607
 2.0160	58.1467
 2.0150	58.0740
 2.0140	57.8949
 2.0130	57.9604
 2.0120	57.8974
 2.0110	57.7607
 2.0100	57.6685
 2.0090	57.5838
 2.0080	57.4912
 2.0070	57.3956
 2.0060	57.3331
 2.0050	57.2761
 2.0040	57.0915
 2.0030	56.9776
 2.0020	56.9659
 2.0010	56.8362
 2.0000	56.6453
 1.9990	56.5917
 1.9980	56.5563
 1.9970	56.4279
 1.9960	56.2049
 1.9950	56.1570
 1.9940	55.9956
 1.9930	55.9261
 1.9920	55.7748
 1.9910	55.6649
 1.9900	55.5633
 1.9890	55.4482
 1.9880	55.3082
 1.9870	55.2804
 1.9860	55.0461
 1.9850	55.0210
 1.9840	54.8548
 1.9830	54.8612
 1.9820	54.6523
 1.9810	54.5830
 1.9800	54.4276
 1.9790	54.3487
 1.9780	54.2473
 1.9770	54.1412
 1.9760	54.0159
 1.9750	53.9545
 1.9740	53.8107
 1.9730	53.8948
 1.9720	53.6528
 1.9710	53.6297
 1.9700	53.4879
 1.9690	53.4657
 1.9680	53.2822
 1.9670	53.2986
 1.9660	53.1371
 1.9650	53.1023
 1.9640	52.9641
 1.9630	52.8939
 1.9620	52.7897
 1.9610	52.8590
 1.9600	52.6965
 1.9590	52.6224
 1.9580	52.4375
 1.9570	52.3901
 1.9560	52.4115
 1.9550	52.2071
 1.9540	52.0900
 1.9530	52.0801
 1.9520	51.9908
 1.9510	51.8931
 1.9500	51.7888
 1.9490	51.8536
 1.9480	51.6092
 1.9470	51.5874
 1.9460	51.3491
 1.9450	51.3403
 1.9440	51.2682
 1.9430	51.1365
 1.9420	51.0738
 1.9410	51.0080
 1.9400	50.8506
 1.9390	50.7613
 1.9380	50.6043
 1.9370	50.5563
 1.9360	50.3842
 1.9350	50.3993
 1.9340	50.1880
 1.9330	50.1728
 1.9320	49.9620
 1.9310	49.8961
 1.9300	49.7708
 1.9290	49.6333
 1.9280	49.6099
 1.9270	49.5921
 1.9260	49.2253
 1.9250	49.2912
 1.9240	49.0897
 1.9230	49.0978
 1.9220	48.9089
 1.9210	48.8902
 1.9200	48.7403
 1.9190	48.7331
 1.9180	48.5713
 1.9170	48.6545
 1.9160	48.5514
 1.9150	48.6478
 1.9140	48.6087
 1.9130	48.7713
 1.9120	48.8627
 1.9110	49.0228
 1.9100	49.1838
 1.9090	49.4118
 1.9080	49.5238
 1.9070	50.0227
 1.9060	50.2593
 1.9050	50.6816
 1.9040	51.0781
 1.9030	51.6917
 1.9020	52.0656
 1.9010	52.6503
 1.9000	53.2454
 1.8990	53.9108
 1.8980	54.4375
 1.8970	55.1033
 1.8960	55.5018
 1.8950	56.1713
 1.8940	56.6721
 1.8930	57.2400
 1.8920	57.6591
 1.8910	58.2059
 1.8900	58.7044
 1.8890	59.1353
 1.8880	59.5671
 1.8870	60.0746
 1.8860	60.3242
 1.8850	60.7864
 1.8840	61.0195
 1.8830	61.3365
 1.8820	61.6071
 1.8810	61.9513
 1.8800	62.1597
 1.8790	62.3687
 1.8780	62.6055
 1.8770	62.8085
 1.8760	62.9039
 1.8750	63.1236
 1.8740	63.2775
 1.8730	63.5766
 1.8720	63.6739
 1.8710	63.8625
 1.8700	64.0274
 1.8690	64.2032
 1.8680	64.3381
 1.8670	64.4620
 1.8660	64.5328
 1.8650	64.6126
 1.8640	64.6778
 1.8630	64.7723
 1.8620	64.8119
 1.8610	64.8787
 1.8600	64.9568
 1.8590	65.0158
 1.8580	65.0114
 1.8570	65.0748
 1.8560	65.1595
 1.8550	65.1612
 1.8540	65.2422
 1.8530	65.2766
 1.8520	65.3159
 1.8510	65.3266
 1.8500	65.3399
 1.8490	65.3793
 1.8480	65.3999
 1.8470	65.4074
 1.8460	65.4828
 1.8450	65.4456
 1.8440	65.4079
 1.8430	65.4027
 1.8420	65.4199
 1.8410	65.4413
 1.8400	65.4733
 1.8390	65.5155
 1.8380	65.4616
 1.8370	65.5305
 1.8360	65.4940
 1.8350	65.5155
 1.8340	65.5764
 1.8330	65.5885
 1.8320	65.5141
 1.8310	65.5244
 1.8300	65.4945
 1.8290	65.5532
 1.8280	65.5144
 1.8270	65.4454
 1.8260	65.4195
 1.8250	65.4888
 1.8240	65.4353
 1.8230	65.4691
 1.8220	65.4702
 1.8210	65.4819
 1.8200	65.4486
 1.8190	65.4403
 1.8180	65.4659
 1.8170	65.4766
 1.8160	65.4359
 1.8150	65.4739
 1.8140	65.4977
 1.8130	65.4721
 1.8120	65.4082
 1.8110	65.4184
 1.8100	65.4492
 1.8090	65.4878
 1.8080	65.4746
 1.8070	65.4331
 1.8060	65.4337
 1.8050	65.4640
 1.8040	65.3969
 1.8030	65.4220
 1.8020	65.4274
 1.8010	65.4393
 1.8000	65.4143
 1.7990	65.3705
 1.7980	65.3341
 1.7970	65.3521
 1.7960	65.4155
 1.7950	65.3991
 1.7940	65.3659
 1.7930	65.3144
 1.7920	65.2612
 1.7910	65.2822
 1.7900	65.2833
 1.7890	65.2501
 1.7880	65.2848
 1.7870	65.2821
 1.7860	65.2455
 1.7850	65.2713
 1.7840	65.2733
 1.7830	65.2321
 1.7820	65.2222
 1.7810	65.2377
 1.7800	65.2663
 1.7790	65.2469
 1.7780	65.2856
 1.7770	65.3036
 1.7760	65.2470
 1.7750	65.2475
 1.7740	65.2422
 1.7730	65.2521
 1.7720	65.2418
 1.7710	65.1964
 1.7700	65.1941
 1.7690	65.2198
 1.7680	65.2582
 1.7670	65.2983
 1.7660	65.2604
 1.7650	65.2027
 1.7640	65.2410
 1.7630	65.2195
 1.7620	65.2047
 1.7610	65.2765
 1.7600	65.2780
 1.7590	65.2052
 1.7580	65.2647
 1.7570	65.2351
 1.7560	65.2395
 1.7550	65.2544
 1.7540	65.2794
 1.7530	65.2289
 1.7520	65.2645
 1.7510	65.2531
 1.7500	65.2414
 1.7490	65.2637
 1.7480	65.2876
 1.7470	65.2917
 1.7460	65.2964
 1.7450	65.2930
 1.7440	65.2904
 1.7430	65.2479
 1.7420	65.2917
 1.7410	65.2398
 1.7400	65.2707
 1.7390	65.2910
 1.7380	65.2610
 1.7370	65.2630
 1.7360	65.2653
 1.7350	65.2575
 1.7340	65.2951
 1.7330	65.2255
 1.7320	65.2804
 1.7310	65.3111
 1.7300	65.2985
 1.7290	65.2908
 1.7280	65.2972
 1.7270	65.2385
 1.7260	65.2594
 1.7250	65.3108
 1.7240	65.2702
 1.7230	65.2407
 1.7220	65.2616
 1.7210	65.2633
 1.7200	65.3079
 1.7190	65.2447
 1.7180	65.3311
 1.7170	65.2030
 1.7160	65.1663
 1.7150	65.2281
 1.7140	65.2544
 1.7130	65.1889
 1.7120	65.2405
 1.7110	65.2193
 1.7100	65.1881
 1.7090	65.2346
 1.7080	65.1806
 1.7070	65.1536
 1.7060	65.1655
 1.7050	65.1257
 1.7040	65.1634
 1.7030	65.0548
 1.7020	65.1329
 1.7010	65.0730
 1.7000	65.1199
 1.6990	65.0847
 1.6980	65.1111
 1.6970	65.0458
 1.6960	65.0371
 1.6950	65.0139
 1.6940	65.0378
 1.6930	65.0238
 1.6920	65.0216
 1.6910	64.9243
 1.6900	64.9581
 1.6890	64.9044
 1.6880	64.9263
 1.6870	64.9401
 1.6860	64.9389
 1.6850	64.9549
 1.6840	64.9657
 1.6830	64.8863
 1.6820	64.9919
 1.6810	64.9117
 1.6800	64.8624
 1.6790	64.8821
 1.6780	64.9484
 1.6770	64.8073
 1.6760	64.9330
 1.6750	64.8342
 1.6740	64.8298
 1.6730	64.7759
 1.6720	64.7530
 1.6710	64.7077
 1.6700	64.8197
 1.6690	64.7524
 1.6680	64.6357
 1.6670	64.7461
 1.6660	64.7605
 1.6650	64.7113
 1.6640	64.7492
 1.6630	64.5581
 1.6620	64.6576
 1.6610	64.6074
 1.6600	64.6719
 1.6590	64.6013
 1.6580	64.6329
 1.6570	64.5910
 1.6560	64.5891
 1.6550	64.5265
 1.6540	64.5169
 1.6530	64.5194
 1.6520	64.6530
 1.6510	64.4908
 1.6500	64.5774
 1.6490	64.4828
 1.6480	64.4068
 1.6470	64.4682
 1.6460	64.4480
 1.6450	64.4466
 1.6440	64.4690
 1.6430	64.2589
 1.6420	64.4143
 1.6410	64.2810
 1.6400	64.4357
 1.6390	64.2886
 1.6380	64.3177
 1.6370	64.2798
 1.6360	64.2543
 1.6350	64.1958
 1.6340	64.2266
 1.6330	64.1633
 1.6320	64.2934
 1.6310	64.1348
 1.6300	64.2658
 1.6290	64.1377
 1.6280	64.1185
 1.6270	64.1736
 1.6260	64.1075
 1.6250	64.0247
 1.6240	64.0518
 1.6230	63.9819
 1.6220	64.0401
 1.6210	64.0106
 1.6200	63.9705
 1.6190	63.9528
 1.6180	63.9767
 1.6170	63.9213
 1.6160	64.0154
 1.6150	63.9881
 1.6140	63.9699
 1.6130	63.8669
 1.6120	63.8552
 1.6110	63.7787
 1.6100	63.8804
 1.6090	63.8108
 1.6080	63.8588
 1.6070	63.7949
 1.6060	63.8493
 1.6050	63.7143
 1.6040	63.7331
 1.6030	63.7229
 1.6020	63.7357
 1.6010	63.7538
 1.6000	63.7031
 1.5990	63.6718
 1.5980	63.7083
 1.5970	63.6940
 1.5960	63.6739
 1.5950	63.5653
 1.5940	63.6094
 1.5930	63.5815
 1.5920	63.5057
 1.5910	63.5064
 1.5900	63.4892
 1.5890	63.4104
 1.5880	63.4773
 1.5870	63.4229
 1.5860	63.3848
 1.5850	63.3314
 1.5840	63.3230
 1.5830	63.2890
 1.5820	63.2621
 1.5810	63.2361
 1.5800	63.2769
 1.5790	63.2252
 1.5780	63.2027
 1.5770	63.1624
 1.5760	63.1711
 1.5750	63.1106
 1.5740	63.1256
 1.5730	63.0386
 1.5720	63.0815
 1.5710	63.0264
 1.5700	63.0548
 1.5690	63.0044
 1.5680	62.9720
 1.5670	62.9961
 1.5660	62.8950
 1.5650	62.8516
 1.5640	62.9046
 1.5630	62.8760
 1.5620	62.8509
 1.5610	62.7740
 1.5600	62.7914
 1.5590	62.7649
 1.5580	62.7559
 1.5570	62.7016
 1.5560	62.6492
 1.5550	62.6087
 1.5540	62.5789
 1.5530	62.5727
 1.5520	62.6107
 1.5510	62.5521
 1.5500	62.4630
 1.5490	62.4000
 1.5480	62.4490
 1.5470	62.3496
 1.5460	62.3372
 1.5450	62.3461
 1.5440	62.3544
 1.5430	62.3041
 1.5420	62.2412
 1.5410	62.2127
 1.5400	62.2081
 1.5390	62.1364
 1.5380	62.1211
 1.5370	62.0982
 1.5360	61.9993
 1.5350	62.0221
 1.5340	62.0398
 1.5330	62.0049
 1.5320	61.9887
 1.5310	61.8912
 1.5300	61.8176
 1.5290	61.7928
 1.5280	61.7489
 1.5270	61.7125
 1.5260	61.7199
 1.5250	61.6607
 1.5240	61.6082
 1.5230	61.5319
 1.5220	61.4918
 1.5210	61.4939
 1.5200	61.4643
 1.5190	61.4174
 1.5180	61.4141
 1.5170	61.3983
 1.5160	61.3563
 1.5150	61.3088
 1.5140	61.2565
 1.5130	61.1954
 1.5120	61.1452
 1.5110	61.1109
 1.5100	61.0710
 1.5090	61.0360
 1.5080	61.0167
 1.5070	60.9400
 1.5060	60.8686
 1.5050	60.8494
 1.5040	60.7923
 1.5030	60.7607
 1.5020	60.7243
 1.5010	60.6273
 1.5000	60.6166
 1.4990	60.6186
 1.4980	60.5553
 1.4970	60.4962
 1.4960	60.4362
 1.4950	60.3609
 1.4940	60.3470
 1.4930	60.2985
 1.4920	60.2355
 1.4910	60.2101
 1.4900	60.1396
 1.4890	60.1182
 1.4880	60.0557
 1.4870	59.9364
 1.4860	59.8831
 1.4850	59.8369
 1.4840	59.7691
 1.4830	59.7146
 1.4820	59.6755
 1.4810	59.6194
 1.4800	59.5510
 1.4790	59.4966
 1.4780	59.4650
 1.4770	59.3799
 1.4760	59.3555
 1.4750	59.3125
 1.4740	59.2270
 1.4730	59.1669
 1.4720	59.1036
 1.4710	59.0398
 1.4700	58.9743
 1.4690	58.9290
 1.4680	58.8411
 1.4670	58.8436
 1.4660	58.8075
 1.4650	58.8204
 1.4640	58.7403
 1.4630	58.7135
 1.4620	58.6757
 1.4610	58.6492
 1.4600	58.5801
 1.4590	58.5690
 1.4580	58.5230
 1.4570	58.4647
 1.4560	58.4194
 1.4550	58.4212
 1.4540	58.3607
 1.4530	58.2954
 1.4520	58.2404
 1.4510	58.2025
 1.4500	58.1010
 1.4490	58.0979
 1.4480	58.0143
 1.4470	57.9836
 1.4460	57.8878
 1.4450	57.8015
 1.4440	57.7464
 1.4430	57.7489
 1.4420	57.6944
 1.4410	57.6141
 1.4400	57.4662
 1.4390	57.4835
 1.4380	57.4901
 1.4370	57.4423
 1.4360	57.2991
 1.4350	57.3650
 1.4340	57.3124
 1.4330	57.2476
 1.4320	57.2465
 1.4310	57.2179
 1.4300	57.1506
 1.4290	57.0866
 1.4280	57.0450
 1.4270	57.1245
 1.4260	57.0308
 1.4250	56.9342
 1.4240	56.9141
 1.4230	56.9225
 1.4220	56.9113
 1.4210	56.9234
 1.4200	56.8347
 1.4190	56.8164
 1.4180	56.8266
 1.4170	56.8593
 1.4160	56.8541
 1.4150	56.8650
 1.4140	56.8255
 1.4130	56.8593
 1.4120	56.9340
 1.4110	57.0980
 1.4100	57.2025
 1.4090	57.2804
 1.4080	57.3476
 1.4070	57.5268
 1.4060	57.5711
 1.4050	57.7414
 1.4040	57.8150
 1.4030	57.9164
 1.4020	57.9150
 1.4010	57.8979
 1.4000	57.7917
 1.3990	57.8343
 1.3980	57.8248
 1.3970	57.7426
 1.3960	57.6662
 1.3950	57.5340
 1.3940	57.4923
 1.3930	57.4865
 1.3920	57.5953
 1.3910	57.8335
 1.3900	58.0133
 1.3890	58.2856
 1.3880	58.4936
 1.3870	58.6853
 1.3860	58.7911
 1.3850	58.9315
 1.3840	58.9529
 1.3830	59.0052
 1.3820	58.9258
 1.3810	58.8709
 1.3800	58.8195
 1.3790	58.8000
 1.3780	58.7132
 1.3770	58.7540
 1.3760	58.7489
 1.3750	58.8622
 1.3740	58.8249
 1.3730	58.9079
 1.3720	59.0844
 1.3710	59.2189
 1.3700	59.2884
 1.3690	59.4171
 1.3680	59.4834
 1.3670	59.4332
 1.3660	59.4528
 1.3650	59.4283
 1.3640	59.3446
 1.3630	59.4201
 1.3620	59.3658
 1.3610	59.4110
 1.3600	59.2842
 1.3590	59.2799
 1.3580	59.2901
 1.3570	59.3920
 1.3560	59.2943
 1.3550	59.2543
 1.3540	59.1197
 1.3530	59.1374
 1.3520	59.1823
 1.3510	59.2345
 1.3500	59.0507
 1.3490	59.1502
 1.3480	58.9906
 1.3470	59.0964
 1.3460	59.0068
 1.3450	59.0159
 1.3440	59.0277
 1.3430	58.9663
 1.3420	58.9795
 1.3410	58.8907
 1.3400	58.8383
 1.3390	58.9197
 1.3380	58.8504
 1.3370	58.8922
 1.3360	58.7994
 1.3350	58.7638
 1.3340	58.7372
 1.3330	58.7143
 1.3320	58.6268
 1.3310	58.6553
 1.3300	58.7060
 1.3290	58.6319
 1.3280	58.6266
 1.3270	58.5924
 1.3260	58.5336
 1.3250	58.5594
 1.3240	58.5402
 1.3230	58.5575
 1.3220	58.4835
 1.3210	58.4431
 1.3200	58.3173
 1.3190	58.4069
 1.3180	58.3013
 1.3170	58.2956
 1.3160	58.1935
 1.3150	58.2421
 1.3140	58.1559
 1.3130	58.1974
 1.3120	58.1575
 1.3110	58.1597
 1.3100	58.0971
 1.3090	58.1351
 1.3080	58.0014
 1.3070	58.0281
 1.3060	57.9866
 1.3050	57.9653
 1.3040	57.8933
 1.3030	57.8755
 1.3020	57.8801
 1.3010	57.8974
 1.3000	57.7501
 1.2990	57.8083
 1.2980	57.6889
 1.2970	57.6885
 1.2960	57.5691
 1.2950	57.6751
 1.2940	57.6094
 1.2930	57.5956
 1.2920	57.5337
 1.2910	57.4752
 1.2900	57.4099
 1.2890	57.4488
 1.2880	57.3525
 1.2870	57.3974
 1.2860	57.3069
 1.2850	57.3278
 1.2840	57.2305
 1.2830	57.1862
 1.2820	57.1984
 1.2810	57.1708
 1.2800	57.0928
 1.2790	57.0854
 1.2780	57.0688
 1.2770	57.0731
 1.2760	56.9892
 1.2750	56.9683
 1.2740	56.9111
 1.2730	56.9489
 1.2720	56.8940
 1.2710	56.8669
 1.2700	56.8051
 1.2690	56.8294
 1.2680	56.7537
 1.2670	56.7415
 1.2660	56.6905
 1.2650	56.6746
 1.2640	56.6409
 1.2630	56.6371
 1.2620	56.5666
 1.2610	56.5431
 1.2600	56.4990
 1.2590	56.4969
 1.2580	56.4471
 1.2570	56.4345
 1.2560	56.3625
 1.2550	56.3322
 1.2540	56.2978
 1.2530	56.2786
 1.2520	56.2199
 1.2510	56.2042
 1.2500	56.2072
 1.2490	56.1849
 1.2480	56.1740
 1.2470	56.1228
 1.2460	56.0596
 1.2450	56.0167
 1.2440	55.9759
 1.2430	55.9769
 1.2420	55.9204
 1.2410	55.9040
 1.2400	55.8781
 1.2390	55.8381
 1.2380	55.7869
 1.2370	55.7502
 1.2360	55.7280
 1.2350	55.6943
 1.2340	55.6416
 1.2330	55.6326
 1.2320	55.5908
 1.2310	55.5375
 1.2300	55.5056
 1.2290	55.4893
 1.2280	55.4675
 1.2270	55.4401
 1.2260	55.3870
 1.2250	55.3602
 1.2240	55.3449
 1.2230	55.2986
 1.2220	55.2298
 1.2210	55.2093
 1.2200	55.2053
 1.2190	55.1693
 1.2180	55.1438
 1.2170	55.1029
 1.2160	55.0635
 1.2150	55.0234
 1.2140	54.9865
 1.2130	54.9877
 1.2120	54.9592
 1.2110	54.8859
 1.2100	54.8659
 1.2090	54.8647
 1.2080	54.8461
 1.2070	54.8415
 1.2060	54.7975
 1.2050	54.7306
 1.2040	54.7115
 1.2030	54.6664
 1.2020	54.6489
 1.2010	54.6486
 1.2000	54.6355
 1.1990	54.5878
 1.1980	54.5503
 1.1970	54.4862
 1.1960	54.4518
 1.1950	54.4461
 1.1940	54.4596
 1.1930	54.4463
 1.1920	54.3553
 1.1910	54.3129
 1.1900	54.3454
 1.1890	54.3543
 1.1880	54.2629
 1.1870	54.2661
 1.1860	54.2586
 1.1850	54.2087
 1.1840	54.1656
 1.1830	54.1904
 1.1820	54.2037
 1.1810	54.1267
 1.1800	54.0615
 1.1790	54.0099
 1.1780	54.0300
 1.1770	53.9977
 1.1760	53.9839
 1.1750	53.9939
 1.1740	53.9675
 1.1730	53.8889
 1.1720	53.9310
 1.1710	53.8529
 1.1700	53.8533
 1.1690	53.8115
 1.1680	53.8206
 1.1670	53.7490
 1.1660	53.7641
 1.1650	53.7421
 1.1640	53.7664
 1.1630	53.6819
 1.1620	53.7119
 1.1610	53.6548
 1.1600	53.6609
 1.1590	53.6288
 1.1580	53.6154
 1.1570	53.5633
 1.1560	53.5602
 1.1550	53.5188
 1.1540	53.5752
 1.1530	53.5386
 1.1520	53.5676
 1.1510	53.4879
 1.1500	53.4794
 1.1490	53.4559
 1.1480	53.5230
 1.1470	53.4206
 1.1460	53.3970
 1.1450	53.3513
 1.1440	53.4008
 1.1430	53.3613
 1.1420	53.4362
 1.1410	53.3477
 1.1400	53.3791
 1.1390	53.3625
 1.1380	53.3355
 1.1370	53.3317
 1.1360	53.2837
 1.1350	53.2273
 1.1340	53.2126
 1.1330	53.1154
 1.1320	53.2330
 1.1310	53.1819
 1.1300	53.1692
 1.1290	53.1648
 1.1280	53.1909
 1.1270	53.0832
 1.1260	53.1215
 1.1250	53.0652
 1.1240	53.1124
 1.1230	53.0220
 1.1220	53.0619
 1.1210	52.9550
 1.1200	53.0100
 1.1190	52.9593
 1.1180	53.1350
 1.1170	53.0005
 1.1160	52.9596
 1.1150	52.8765
 1.1140	52.9757
 1.1130	52.9312
 1.1120	52.9180
 1.1110	52.9141
 1.1100	52.8414
 1.1090	52.8363
 1.1080	52.9090
 1.1070	52.9267
 1.1060	52.9358
 1.1050	52.8270
 1.1040	52.8712
 1.1030	52.6541
 1.1020	52.7585
 1.1010	52.7284
 1.1000	52.7869
 1.0990	52.7920
 1.0980	52.7440
 1.0970	52.7410
 1.0960	52.6749
 1.0950	52.6615
 1.0940	52.7175
 1.0930	52.6361
 1.0920	52.5970
 1.0910	52.5909
 1.0900	52.6548
 1.0890	52.5814
 1.0880	52.6600
 1.0870	52.4681
 1.0860	52.6202
 1.0850	52.5112
 1.0840	52.4918
 1.0830	52.5003
 1.0820	52.5784
 1.0810	52.5400
 1.0800	52.5101
 1.0790	52.4726
 1.0780	52.5307
 1.0770	52.4334
 1.0760	52.5130
 1.0750	52.3978
 1.0740	52.4617
 1.0730	52.2885
 1.0720	52.4348
 1.0710	52.4194
 1.0700	52.3411
 1.0690	52.3805
 1.0680	52.3434
 1.0670	52.3201
 1.0660	52.3999
 1.0650	52.3286
 1.0640	52.3942
 1.0630	52.3891
 1.0620	52.2859
 1.0610	52.2598
 1.0600	52.4091
 1.0590	52.2899
 1.0580	52.3355
 1.0570	52.2594
 1.0560	52.2573
 1.0550	52.2884
 1.0540	52.2537
 1.0530	52.2116
 1.0520	52.2088
 1.0510	52.2479
 1.0500	52.1741
 1.0490	52.2345
 1.0480	52.1242
 1.0470	52.1301
 1.0460	52.1481
 1.0450	52.1189
 1.0440	52.2271
 1.0430	52.1330
 1.0420	52.0665
 1.0410	52.1103
 1.0400	52.1639
 1.0390	52.0455
 1.0380	52.0501
 1.0370	52.0367
 1.0360	52.1187
 1.0350	52.0475
 1.0340	52.0655
 1.0330	51.9760
 1.0320	52.1235
 1.0310	51.9363
 1.0300	52.0621
 1.0290	52.0184
 1.0280	52.0157
 1.0270	52.0395
 1.0260	51.9642
 1.0250	51.9625
 1.0240	51.9903
 1.0230	51.8499
 1.0220	51.8854
 1.0210	51.9045
 1.0200	51.9590
 1.0190	51.8362
 1.0180	51.8434
 1.0170	51.8376
 1.0160	51.8290
 1.0150	51.7909
 1.0140	51.8282
 1.0130	51.8042
 1.0120	51.8929
 1.0110	51.8099
 1.0100	51.8346
 1.0090	51.7346
 1.0080	51.8669
 1.0070	51.7787
 1.0060	51.7278
 1.0050	51.7536
 1.0040	51.7494
 1.0030	51.6926
 1.0020	51.7163
 1.0010	51.6519
 1.0000	51.6153
 0.9990	51.5757
 0.9980	51.6195
 0.9970	51.6251
 0.9960	51.5828
 0.9950	51.5786
 0.9940	51.6007
 0.9930	51.5144
 0.9920	51.5297
 0.9910	51.5085
 0.9900	51.5131
 0.9890	51.5062
 0.9880	51.4693
 0.9870	51.3976
 0.9860	51.4267
 0.9850	51.3948
 0.9840	51.4403
 0.9830	51.3983
 0.9820	51.4120
 0.9810	51.3639
 0.9800	51.3590
 0.9790	51.3495
 0.9780	51.4097
 0.9770	51.3251
 0.9760	51.2986
 0.9750	51.2652
 0.9740	51.3058
 0.9730	51.2593
 0.9720	51.2601
 0.9710	51.2140
 0.9700	51.1558
 0.9690	51.0869
 0.9680	51.1338
 0.9670	51.1111
 0.9660	51.1285
 0.9650	51.0949
 0.9640	51.1335
 0.9630	51.1479
 0.9620	51.1739
 0.9610	51.0893
 0.9600	51.0808
 0.9590	51.0489
 0.9580	51.0135
 0.9570	51.0039
 0.9560	51.0027
 0.9550	50.9654
 0.9540	50.9774
 0.9530	50.9275
 0.9520	50.9255
 0.9510	50.9342
 0.9500	50.9159
 0.9490	50.8994
 0.9480	50.9117
 0.9470	50.9146
 0.9460	50.8254
 0.9450	50.8379
 0.9440	50.9088
 0.9430	50.8501
 0.9420	50.8737
 0.9410	50.8384
 0.9400	50.8257
 0.9390	50.8121
 0.9380	50.7838
 0.9370	50.8143
 0.9360	50.7935
 0.9350	50.7204
 0.9340	50.7274
 0.9330	50.7674
 0.9320	50.7656
 0.9310	50.7123
 0.9300	50.6842
 0.9290	50.7216
 0.9280	50.7043
 0.9270	50.6237
 0.9260	50.6542
 0.9250	50.7160
 0.9240	50.6653
 0.9230	50.6527
 0.9220	50.6783
 0.9210	50.6244
 0.9200	50.5953
 0.9190	50.6125
 0.9180	50.6431
 0.9170	50.6308
 0.9160	50.5791
 0.9150	50.5794
 0.9140	50.5950
 0.9130	50.6147
 0.9120	50.5540
 0.9110	50.5463
 0.9100	50.5328
 0.9090	50.5681
 0.9080	50.5648
 0.9070	50.6030
 0.9060	50.5819
 0.9050	50.5416
 0.9040	50.5446
 0.9030	50.5363
 0.9020	50.5398
 0.9010	50.5442
 0.9000	50.5803
 0.8990	50.6211
 0.8980	50.6029
 0.8970	50.6276
 0.8960	50.5514
 0.8950	50.5568
 0.8940	50.5793
 0.8930	50.5984
 0.8920	50.5942
 0.8910	50.6052
 0.8900	50.5052
 0.8890	50.5123
 0.8880	50.5650
 0.8870	50.5868
 0.8860	50.5763
 0.8850	50.5680
 0.8840	50.5493
 0.8830	50.5638
 0.8820	50.5873
 0.8810	50.5626
 0.8800	50.4828
 0.8790	50.5419
 0.8780	50.5778
 0.8770	50.5456
 0.8760	50.5599
 0.8750	50.5766
 0.8740	50.5703
 0.8730	50.6222
 0.8720	50.5450
 0.8710	50.5777
 0.8700	50.5201
 0.8690	50.5902
 0.8680	50.5462
 0.8670	50.5134
 0.8660	50.5570
 0.8650	50.5773
 0.8640	50.5892
 0.8630	50.6188
 0.8620	50.4989
 0.8610	50.5779
 0.8600	50.7550
 0.8590	50.8004
 0.8580	50.7606
 0.8570	50.7815
 0.8560	50.8436
 0.8550	50.8449
 0.8540	50.8217
 0.8530	50.7688
 0.8520	50.8440
 0.8510	50.7984
 0.8500	50.7629
 0.8490	50.7745
 0.8480	50.7693
 0.8470	50.7629
 0.8460	50.7735
 0.8450	50.7798
 0.8440	50.7898
 0.8430	50.7544
 0.8420	50.7419
 0.8410	50.7417
 0.8400	50.7555
 0.8390	50.7178
 0.8380	50.7030
 0.8370	50.7390
 0.8360	50.6975
 0.8350	50.7196
 0.8340	50.7083
 0.8330	50.7243
 0.8320	50.7083
 0.8310	50.6944
 0.8300	50.6841
 0.8290	50.6827
 0.8280	50.6607
 0.8270	50.6641
 0.8260	50.6515
 0.8250	50.6154
 0.8240	50.5907
 0.8230	50.6147
 0.8220	50.5795
 0.8210	50.5660
 0.8200	50.5643
 0.8190	50.5267
 0.8180	50.5550
 0.8170	50.5054
 0.8160	50.4857
 0.8150	50.4673
 0.8140	50.4615
 0.8130	50.4449
 0.8120	50.3844
 0.8110	50.3905
 0.8100	50.3489
 0.8090	50.3021
 0.8080	50.2940
 0.8070	50.2568
 0.8060	50.2135
 0.8050	50.2081
 0.8040	50.2028
 0.8030	50.1803
 0.8020	50.1361
 0.8010	50.1120
 0.8000	50.0722
 0.7990	50.0365
 0.7980	49.9847
 0.7970	49.9697
 0.7960	49.9020
 0.7950	49.8385
 0.7940	49.8701
 0.7930	49.7959
 0.7920	49.7554
 0.7910	49.7182
 0.7900	49.6650
 0.7890	49.6411
 0.7880	49.6076
 0.7870	49.5463
 0.7860	49.5089
 0.7850	49.5032
 0.7840	49.4019
 0.7830	49.3668
 0.7820	49.3424
 0.7810	49.3033
 0.7800	49.2492
 0.7790	49.1931
 0.7780	49.1315
 0.7770	49.0554
 0.7760	49.0619
 0.7750	48.9801
 0.7740	48.9128
 0.7730	48.8833
 0.7720	48.8470
 0.7710	48.7850
 0.7700	48.7667
 0.7690	48.7042
 0.7680	48.6506
 0.7670	48.6051
 0.7660	48.5449
 0.7650	48.4685
 0.7640	48.4254
 0.7630	48.3979
 0.7620	48.3470
 0.7610	48.2748
 0.7600	48.2632
 0.7590	48.2072
 0.7580	48.1430
 0.7570	48.1141
 0.7560	48.0483
 0.7550	48.0061
 0.7540	47.9598
 0.7530	47.9099
 0.7520	47.8522
 0.7510	47.7879
 0.7500	47.7729
 0.7490	47.7284
 0.7480	47.6829
 0.7470	47.6365
 0.7460	47.5832
 0.7450	47.5569
 0.7440	47.4857
 0.7430	47.4638
 0.7420	47.4207
 0.7410	47.3474
 0.7400	47.3222
 0.7390	47.2803
 0.7380	47.2511
 0.7370	47.1970
 0.7360	47.1542
 0.7350	47.1164
 0.7340	47.0803
 0.7330	47.0294
 0.7320	46.9910
 0.7310	46.9540
 0.7300	46.9154
 0.7290	46.8891
 0.7280	46.8452
 0.7270	46.8090
 0.7260	46.7676
 0.7250	46.7264
 0.7240	46.6897
 0.7230	46.6508
 0.7220	46.6090
 0.7210	46.5914
 0.7200	46.5418
 0.7190	46.5150
 0.7180	46.4959
 0.7170	46.4644
 0.7160	46.4097
 0.7150	46.3989
 0.7140	46.3554
 0.7130	46.3056
 0.7120	46.2911
 0.7110	46.2592
 0.7100	46.2176
 0.7090	46.1891
 0.7080	46.1590
 0.7070	46.1392
 0.7060	46.1251
 0.7050	46.0857
 0.7040	46.0543
 0.7030	46.0178
 0.7020	45.9909
 0.7010	45.9898
 0.7000	45.9641
 0.6990	45.9422
 0.6980	45.9254
 0.6970	45.9165
 0.6960	45.8816
 0.6950	45.8611
 0.6940	45.8329
 0.6930	45.7978
 0.6920	45.7899
 0.6910	45.7779
 0.6900	45.7567
 0.6890	45.7293
 0.6880	45.7123
 0.6870	45.7015
 0.6860	45.6859
 0.6850	45.6686
 0.6840	45.6581
 0.6830	45.6327
 0.6820	45.6133
 0.6810	45.5868
 0.6800	45.5650
 0.6790	45.5463
 0.6780	45.5136
 0.6770	45.4775
 0.6760	45.4533
 0.6750	45.4165
 0.6740	45.3806
 0.6730	45.3522
 0.6720	45.3250
 0.6710	45.2981
 0.6700	45.2578
 0.6690	45.2204
 0.6680	45.1943
 0.6670	45.1641
 0.6660	45.1319
 0.6650	45.0882
 0.6640	45.0580
 0.6630	45.0130
 0.6620	44.9776
 0.6610	44.9504
 0.6600	44.9078
 0.6590	44.8688
 0.6580	44.8332
 0.6570	44.7939
 0.6560	44.7507
 0.6550	44.7113
 0.6540	44.6690
 0.6530	44.6378
 0.6520	44.5986
 0.6510	44.5623
 0.6500	44.5183
 0.6490	44.4633
 0.6480	44.4195
 0.6470	44.3721
 0.6460	44.3320
 0.6450	44.2930
 0.6440	44.2423
 0.6430	44.1946
 0.6420	44.1525
 0.6410	44.1027
 0.6400	44.0459
 0.6390	43.9939
 0.6380	43.9488
 0.6370	43.8942
 0.6360	43.8384
 0.6350	43.7945
 0.6340	43.7392
 0.6330	43.6854
 0.6320	43.6385
 0.6310	43.5806
 0.6300	43.5228
 0.6290	43.4742
 0.6280	43.4197
 0.6270	43.3560
 0.6260	43.3038
 0.6250	43.2514
 0.6240	43.1935
 0.6230	43.1320
 0.6220	43.0729
 0.6210	43.0157
 0.6200	42.9604
 0.6190	42.9011
 0.6180	42.8370
 0.6170	42.7720
 0.6160	42.7092
 0.6150	42.6515
 0.6140	42.5909
 0.6130	42.5292
 0.6120	42.4645
 0.6110	42.4026
 0.6100	42.3466
 0.6090	42.2824
 0.6080	42.2100
 0.6070	42.1477
 0.6060	42.0750
 0.6050	42.0086
 0.6040	41.9521
 0.6030	41.8831
 0.6020	41.8083
 0.6010	41.7457
 0.6000	41.6802
 0.5990	41.6260
 0.5980	41.5646
 0.5970	41.5034
 0.5960	41.4458
 0.5950	41.3789
 0.5940	41.3011
 0.5930	41.2348
 0.5920	41.1621
 0.5910	41.0857
 0.5900	41.0209
 0.5890	40.9506
 0.5880	40.8812
 0.5870	40.8097
 0.5860	40.7313
 0.5850	40.6586
 0.5840	40.5911
 0.5830	40.5179
 0.5820	40.4466
 0.5810	40.3756
 0.5800	40.3006
 0.5790	40.2195
 0.5780	40.1490
 0.5770	40.0760
 0.5760	40.0024
 0.5750	39.9148
 0.5740	39.8389
 0.5730	39.7565
 0.5720	39.6775
 0.5710	39.6042
 0.5700	39.5257
 0.5690	39.4454
 0.5680	39.3644
 0.5670	39.2865
 0.5660	39.1906
 0.5650	39.0999
 0.5640	39.0157
 0.5630	38.9204
 0.5620	38.8299
 0.5610	38.7183
 0.5600	38.6189
 0.5590	38.5198
 0.5580	38.4190
 0.5570	38.3201
 0.5560	38.2209
 0.5550	38.1198
 0.5540	38.0084
 0.5530	37.9006
 0.5520	37.7967
 0.5510	37.6766
 0.5500	37.5694
 0.5490	37.4587
 0.5480	37.3483
 0.5470	37.2449
 0.5460	37.1169
 0.5450	37.0039
 0.5440	36.8936
 0.5430	36.7674
 0.5420	36.6505
 0.5410	36.5286
 0.5400	36.4011
 0.5390	36.2687
 0.5380	36.1302
 0.5370	35.9898
 0.5360	35.8429
 0.5350	35.7008
 0.5340	35.5476
 0.5330	35.3957
 0.5320	35.2259
 0.5310	35.0995
 0.5300	34.9384
 0.5290	34.7679
 0.5280	34.6084
 0.5270	34.4183
 0.5260	34.2435
 0.5250	34.0551
 0.5240	33.8718
 0.5230	33.6847
 0.5220	33.4915
 0.5210	33.2947
 0.5200	33.1060
 0.5190	32.8986
 0.5180	32.6853
 0.5170	32.4828
 0.5160	32.3165
 0.5150	32.1118
 0.5140	31.8977
 0.5130	31.6812
 0.5120	31.4539
 0.5110	31.2344
 0.5100	31.0156
 0.5090	30.7823
 0.5080	30.5468
 0.5070	30.3208
 0.5060	30.0966
 0.5050	29.8664
 0.5040	29.6299
 0.5030	29.3943
 0.5020	29.1704
 0.5010	28.9365
 0.5000	28.7133
 0.4990	28.4818
 0.4980	28.2496
 0.4970	28.0387
 0.4960	27.8220
 0.4950	27.6124
 0.4940	27.3998
 0.4930	27.2111
 0.4920	27.0269
 0.4910	26.8333
 0.4900	26.6524
 0.4890	26.4668
 0.4880	26.2954
 0.4870	26.1188
 0.4860	25.9675
 0.4850	25.7961
 0.4840	25.6476
 0.4830	25.5010
 0.4820	25.3649
 0.4810	25.2482
 0.4800	25.1308
 0.4790	25.0181
 0.4780	24.9202
 0.4770	24.8206
 0.4760	24.7235
 0.4750	24.6412
 0.4740	24.5458
 0.4730	24.4801
 0.4720	24.4045
 0.4710	24.3321
 0.4700	24.2671
 0.4690	24.2015
 0.4680	24.1492
 0.4670	24.0871
 0.4660	24.0328
 0.4650	23.9747
 0.4640	23.9192
 0.4630	23.8602
 0.4620	23.8009
 0.4610	23.7321
 0.4600	23.6639
 0.4590	23.5846
 0.4580	23.4967
 0.4570	23.4027
 0.4560	23.2867
 0.4550	23.1756
 0.4540	23.0349
 0.4530	22.8943
 0.4520	22.7431
 0.4510	22.5884
 0.4500	22.4232
 0.4490	22.2418
 0.4480	22.0667
 0.4470	21.8853
 0.4460	21.7032
 0.4450	21.5108
 0.4440	21.3050
 0.4430	21.0990
 0.4420	20.8987
 0.4410	20.6964
 0.4400	20.4731
 0.4390	20.2656
 0.4380	20.0488
 0.4370	19.8254
 0.4360	19.6008
 0.4350	19.3710
 0.4340	19.1494
 0.4330	18.9161
 0.4320	18.6905
 0.4310	18.4766
 0.4300	18.2868
 0.4290	18.0735
 0.4280	17.8653
 0.4270	17.6538
 0.4260	17.4575
 0.4250	17.2720
 0.4240	17.0831
 0.4230	16.9071
 0.4220	16.7383
 0.4210	16.5730
 0.4200	16.4262
 0.4190	16.2925
 0.4180	16.1588
 0.4170	16.0315
 0.4160	15.9067
 0.4150	15.7893
 0.4140	15.6787
 0.4130	15.5680
 0.4120	15.4638
 0.4110	15.3585
 0.4100	15.2633
 0.4090	15.1670
 0.4080	15.0702
 0.4070	14.9713
 0.4060	14.8780
 0.4050	14.7765
 0.4040	14.6797
 0.4030	14.5815
 0.4020	14.4899
 0.4010	14.3908
 0.4000	14.2910
