Name: Pyrite FeS_2
Type: Mineral
Class: Sulfide
Subclass: None
Particle Size: Coarse
Sample No.: S-2A
Owner: JPL
Wavelength Range: VSWIR
Origin: Italy, Tuscany, Elba, Rio Marina Isle
Collection Date: N/A
Description: Particle size was 125-500um.Collected by Ward's Original ASTER Spectral Library name was jpl.beckman.mineral.sulfide.none.coarse.s02a.spectrum.txt
Measurement: Hemispherical reflectance
First Column: X
Second Column: Y
X Units: Wavelength (micrometers)
Y Units:Reflectance (percent)
First X Value:  0.4000
Last X Value:  2.5000
Number of X Values: 826
Additional Information: mineral.sulfide.none.coarse.vswir.s-2a.jpl.beckman.ancillary.txt

 0.4000	 9.2600
 0.4010	 9.2200
 0.4020	 9.3400
 0.4030	 9.3300
 0.4040	 9.3400
 0.4050	 9.3300
 0.4060	 9.3700
 0.4070	 9.5500
 0.4080	 9.5000
 0.4090	 9.5000
 0.4100	 9.6100
 0.4110	 9.6100
 0.4120	 9.6800
 0.4130	 9.6200
 0.4140	 9.6600
 0.4150	 9.7800
 0.4160	 9.7900
 0.4170	 9.8100
 0.4180	 9.8100
 0.4190	 9.9100
 0.4200	10.0300
 0.4210	 9.9700
 0.4220	 9.9700
 0.4230	10.0300
 0.4240	10.2000
 0.4250	10.1800
 0.4260	10.1200
 0.4270	10.1800
 0.4280	10.1900
 0.4290	10.3700
 0.4300	10.3200
 0.4310	10.3800
 0.4320	10.4300
 0.4330	10.4800
 0.4340	10.6100
 0.4350	10.6500
 0.4360	10.6600
 0.4370	10.7400
 0.4380	10.6700
 0.4390	10.7800
 0.4400	10.7300
 0.4410	10.8400
 0.4420	11.0100
 0.4430	10.9400
 0.4440	10.9800
 0.4450	10.9100
 0.4460	11.1000
 0.4470	11.2200
 0.4480	11.2200
 0.4490	11.3000
 0.4500	11.2500
 0.4510	11.4000
 0.4520	11.3600
 0.4530	11.4700
 0.4540	11.4900
 0.4550	11.4900
 0.4560	11.6300
 0.4570	11.6600
 0.4580	11.7500
 0.4590	11.7900
 0.4600	11.8400
 0.4610	11.9900
 0.4620	12.0600
 0.4630	12.1000
 0.4640	12.2300
 0.4650	12.2400
 0.4660	12.2500
 0.4670	12.3500
 0.4680	12.4300
 0.4690	12.5200
 0.4700	12.5600
 0.4710	12.6400
 0.4720	12.6900
 0.4730	12.8000
 0.4740	12.8800
 0.4750	12.8500
 0.4760	12.9400
 0.4770	13.0400
 0.4780	12.9800
 0.4790	13.1600
 0.4800	13.1800
 0.4810	13.2800
 0.4820	13.3800
 0.4830	13.3400
 0.4840	13.4600
 0.4850	13.4900
 0.4860	13.6000
 0.4870	13.5500
 0.4880	13.5900
 0.4890	13.7400
 0.4900	13.7400
 0.4910	13.9000
 0.4920	13.8700
 0.4930	13.8500
 0.4940	14.0000
 0.4950	14.0300
 0.4960	14.1200
 0.4970	14.1100
 0.4980	14.1000
 0.4990	14.2100
 0.5000	14.2600
 0.5010	14.3000
 0.5020	14.2800
 0.5030	14.3900
 0.5040	14.4400
 0.5050	14.5100
 0.5060	14.5600
 0.5070	14.5000
 0.5080	14.5700
 0.5090	14.6400
 0.5100	14.6400
 0.5110	14.7500
 0.5120	14.7300
 0.5130	14.8300
 0.5140	14.8700
 0.5150	14.7800
 0.5160	14.8600
 0.5170	14.8700
 0.5180	14.9100
 0.5190	14.9300
 0.5200	14.8700
 0.5210	14.9900
 0.5220	15.0900
 0.5230	15.1300
 0.5240	15.0900
 0.5250	15.1400
 0.5260	15.1800
 0.5270	15.2200
 0.5280	15.2200
 0.5290	15.1600
 0.5300	15.2200
 0.5310	15.3200
 0.5320	15.2300
 0.5330	15.3600
 0.5340	15.2600
 0.5350	15.3800
 0.5360	15.3600
 0.5370	15.3500
 0.5380	15.4700
 0.5390	15.3900
 0.5400	15.4500
 0.5410	15.4800
 0.5420	15.4400
 0.5430	15.4800
 0.5440	15.5100
 0.5450	15.6100
 0.5460	15.5800
 0.5470	15.5400
 0.5480	15.6200
 0.5490	15.6500
 0.5500	15.7400
 0.5510	15.6600
 0.5520	15.6500
 0.5530	15.7700
 0.5540	15.7400
 0.5550	15.8200
 0.5560	15.7800
 0.5570	15.8700
 0.5580	15.9200
 0.5590	15.9700
 0.5600	15.8600
 0.5610	15.8800
 0.5620	16.0100
 0.5630	16.1200
 0.5640	16.0200
 0.5650	16.0900
 0.5660	15.9800
 0.5670	16.1200
 0.5680	16.0500
 0.5690	16.1000
 0.5700	16.1400
 0.5710	16.0800
 0.5720	16.1500
 0.5730	16.1400
 0.5740	16.1500
 0.5750	16.1600
 0.5760	16.0700
 0.5770	16.2400
 0.5780	16.1300
 0.5790	16.1600
 0.5800	16.1500
 0.5810	16.1500
 0.5820	16.3000
 0.5830	16.2300
 0.5840	16.1600
 0.5850	16.2100
 0.5860	16.1900
 0.5870	16.2700
 0.5880	16.2200
 0.5890	16.3000
 0.5900	16.2800
 0.5910	16.3200
 0.5920	16.3900
 0.5930	16.2900
 0.5940	16.3500
 0.5950	16.3400
 0.5960	16.3700
 0.5970	16.3100
 0.5980	16.2900
 0.5990	16.3900
 0.6000	16.3900
 0.6010	16.3100
 0.6020	16.3500
 0.6030	16.3300
 0.6040	16.4600
 0.6050	16.3900
 0.6060	16.3700
 0.6070	16.3700
 0.6080	16.3300
 0.6090	16.3600
 0.6100	16.3300
 0.6110	16.3500
 0.6120	16.4000
 0.6130	16.3300
 0.6140	16.4200
 0.6150	16.3500
 0.6160	16.2900
 0.6170	16.3500
 0.6180	16.3300
 0.6190	16.4600
 0.6200	16.3900
 0.6210	16.3700
 0.6220	16.4100
 0.6230	16.5100
 0.6240	16.4600
 0.6250	16.4100
 0.6260	16.3900
 0.6270	16.4500
 0.6280	16.4500
 0.6290	16.4800
 0.6300	16.4400
 0.6310	16.5100
 0.6320	16.5000
 0.6330	16.4700
 0.6340	16.5200
 0.6350	16.4600
 0.6360	16.5500
 0.6370	16.5300
 0.6380	16.4700
 0.6390	16.4500
 0.6400	16.5200
 0.6410	16.6700
 0.6420	16.5800
 0.6430	16.6900
 0.6440	16.6300
 0.6450	16.7100
 0.6460	16.6700
 0.6470	16.6200
 0.6480	16.7000
 0.6490	16.6600
 0.6500	16.6900
 0.6510	16.8000
 0.6520	16.7600
 0.6530	16.8300
 0.6540	16.8700
 0.6550	16.8200
 0.6560	16.9400
 0.6570	16.8500
 0.6580	16.9300
 0.6590	16.8500
 0.6600	16.8400
 0.6610	17.0000
 0.6620	16.9800
 0.6630	17.1500
 0.6640	17.0000
 0.6650	16.9500
 0.6660	16.9700
 0.6670	16.9900
 0.6680	17.1300
 0.6690	17.0500
 0.6700	17.0400
 0.6710	17.1200
 0.6720	17.1300
 0.6730	17.2000
 0.6740	17.1200
 0.6750	17.1500
 0.6760	17.1900
 0.6770	17.2500
 0.6780	17.2500
 0.6790	17.2200
 0.6800	17.2400
 0.6810	17.2400
 0.6820	17.2800
 0.6830	17.2600
 0.6840	17.2200
 0.6850	17.2900
 0.6860	17.3100
 0.6870	17.2700
 0.6880	17.3500
 0.6890	17.2300
 0.6900	17.3600
 0.6910	17.3300
 0.6920	17.2300
 0.6930	17.3100
 0.6940	17.2200
 0.6950	17.3300
 0.6960	17.3000
 0.6970	17.3500
 0.6980	17.4000
 0.6990	17.3800
 0.7000	17.3500
 0.7010	17.3900
 0.7020	17.4000
 0.7030	17.3800
 0.7040	17.4000
 0.7050	17.4600
 0.7060	17.4100
 0.7070	17.5100
 0.7080	17.4000
 0.7090	17.4900
 0.7100	17.5200
 0.7110	17.3900
 0.7120	17.4000
 0.7130	17.3400
 0.7140	17.3700
 0.7150	17.4600
 0.7160	17.4200
 0.7170	17.5000
 0.7180	17.3800
 0.7190	17.4500
 0.7200	17.4100
 0.7210	17.3300
 0.7220	17.3600
 0.7230	17.3000
 0.7240	17.4400
 0.7250	17.3600
 0.7260	17.2400
 0.7270	17.4000
 0.7280	17.2800
 0.7290	17.3500
 0.7300	17.3500
 0.7310	17.2500
 0.7320	17.2900
 0.7330	17.1800
 0.7340	17.2700
 0.7350	17.2300
 0.7360	17.1500
 0.7370	17.2700
 0.7380	17.1900
 0.7390	17.2100
 0.7400	17.1800
 0.7410	17.1300
 0.7420	17.1600
 0.7430	17.0400
 0.7440	17.1100
 0.7450	17.0300
 0.7460	17.0600
 0.7470	17.1300
 0.7480	17.0500
 0.7490	17.0400
 0.7500	16.9300
 0.7510	16.9700
 0.7520	17.0500
 0.7530	16.9600
 0.7540	17.0100
 0.7550	16.9500
 0.7560	16.9600
 0.7570	17.0600
 0.7580	16.9300
 0.7590	16.9300
 0.7600	16.8600
 0.7610	16.8500
 0.7620	16.8900
 0.7630	16.8400
 0.7640	16.7800
 0.7650	16.8000
 0.7660	16.7900
 0.7670	16.7900
 0.7680	16.7300
 0.7690	16.7700
 0.7700	16.7100
 0.7710	16.6700
 0.7720	16.7200
 0.7730	16.6700
 0.7740	16.7100
 0.7750	16.7000
 0.7760	16.6900
 0.7770	16.6900
 0.7780	16.5200
 0.7790	16.5200
 0.7800	16.4900
 0.7810	16.4900
 0.7820	16.6000
 0.7830	16.4900
 0.7840	16.4700
 0.7850	16.4100
 0.7860	16.4600
 0.7870	16.5000
 0.7880	16.4600
 0.7890	16.4400
 0.7900	16.4200
 0.7910	16.3500
 0.7920	16.4200
 0.7930	16.3000
 0.7940	16.2900
 0.7950	16.3100
 0.7960	16.2900
 0.7970	16.3700
 0.7980	16.2400
 0.7990	16.1500
 0.8000	16.4000
 0.8040	16.3600
 0.8080	16.3000
 0.8120	16.2000
 0.8160	16.1500
 0.8200	16.1100
 0.8240	16.0500
 0.8280	15.9600
 0.8320	15.9200
 0.8360	15.8900
 0.8400	15.8000
 0.8440	15.7500
 0.8480	15.6900
 0.8520	15.6400
 0.8560	15.6500
 0.8600	15.6200
 0.8640	15.5600
 0.8680	15.5400
 0.8720	15.4600
 0.8760	15.3800
 0.8800	15.3500
 0.8840	15.3300
 0.8880	15.2400
 0.8920	15.2200
 0.8960	15.1700
 0.9000	15.1700
 0.9040	15.1100
 0.9080	15.0700
 0.9120	15.0200
 0.9160	15.0300
 0.9200	14.9100
 0.9240	14.9400
 0.9280	14.8500
 0.9320	14.8500
 0.9360	14.8300
 0.9400	14.8700
 0.9440	14.7800
 0.9480	14.7600
 0.9520	14.7700
 0.9560	14.6800
 0.9600	14.6200
 0.9640	14.6400
 0.9680	14.6000
 0.9720	14.6100
 0.9760	14.5600
 0.9800	14.5300
 0.9840	14.4700
 0.9880	14.4300
 0.9920	14.3700
 0.9960	14.3600
 1.0000	14.4100
 1.0040	14.3700
 1.0080	14.2900
 1.0120	14.2700
 1.0160	14.2600
 1.0200	14.2200
 1.0240	14.1200
 1.0280	14.0900
 1.0320	14.0600
 1.0360	14.0900
 1.0400	14.0700
 1.0440	14.0100
 1.0480	13.9900
 1.0520	14.0100
 1.0560	13.9900
 1.0600	14.0000
 1.0640	13.9100
 1.0680	13.9100
 1.0720	13.9000
 1.0760	13.8700
 1.0800	13.9000
 1.0840	13.8400
 1.0880	13.8000
 1.0920	13.7700
 1.0960	13.8300
 1.1000	13.7900
 1.1040	13.8300
 1.1080	13.7500
 1.1120	13.7800
 1.1160	13.7400
 1.1200	13.7200
 1.1240	13.7200
 1.1280	13.6600
 1.1320	13.6900
 1.1360	13.6400
 1.1400	13.6700
 1.1440	13.5300
 1.1480	13.5300
 1.1520	13.4800
 1.1560	13.5400
 1.1600	13.4700
 1.1640	13.4400
 1.1680	13.4600
 1.1720	13.3900
 1.1760	13.4500
 1.1800	13.3900
 1.1840	13.3700
 1.1880	13.4000
 1.1920	13.3900
 1.1960	13.3300
 1.2000	13.3600
 1.2040	13.3300
 1.2080	13.3400
 1.2120	13.3500
 1.2160	13.3200
 1.2200	13.3100
 1.2240	13.3800
 1.2280	13.3700
 1.2320	13.3200
 1.2360	13.3300
 1.2400	13.3400
 1.2440	13.3700
 1.2480	13.2800
 1.2520	13.3200
 1.2560	13.3000
 1.2600	13.3200
 1.2640	13.2800
 1.2680	13.2800
 1.2720	13.2900
 1.2760	13.2600
 1.2800	13.2300
 1.2840	13.2300
 1.2880	13.1800
 1.2920	13.2100
 1.2960	13.1900
 1.3000	13.1500
 1.3040	13.1100
 1.3080	13.1200
 1.3120	13.1400
 1.3160	13.1300
 1.3200	13.1300
 1.3240	13.1400
 1.3280	13.1300
 1.3320	13.1300
 1.3360	13.1000
 1.3400	13.1500
 1.3440	13.1000
 1.3480	13.1200
 1.3520	13.1000
 1.3560	13.0800
 1.3600	13.1100
 1.3640	13.0700
 1.3680	13.0900
 1.3720	13.0800
 1.3760	13.0800
 1.3800	13.1300
 1.3840	13.1000
 1.3880	13.1200
 1.3920	13.1400
 1.3960	13.0900
 1.4000	13.1200
 1.4040	13.1000
 1.4080	13.1000
 1.4120	13.2000
 1.4160	13.1400
 1.4200	13.1600
 1.4240	13.1100
 1.4280	13.1200
 1.4320	13.1700
 1.4360	13.1300
 1.4400	13.1800
 1.4440	13.2300
 1.4480	13.1800
 1.4520	13.1900
 1.4560	13.1900
 1.4600	13.2000
 1.4640	13.2300
 1.4680	13.2700
 1.4720	13.2200
 1.4760	13.2300
 1.4800	13.2400
 1.4840	13.2700
 1.4880	13.2400
 1.4920	13.2300
 1.4960	13.2000
 1.5000	13.2500
 1.5040	13.1300
 1.5080	13.2000
 1.5120	13.2000
 1.5160	13.2700
 1.5200	13.2600
 1.5240	13.2200
 1.5280	13.1900
 1.5320	13.2300
 1.5360	13.2200
 1.5400	13.2300
 1.5440	13.2300
 1.5480	13.2900
 1.5520	13.2100
 1.5560	13.2700
 1.5600	13.2500
 1.5640	13.2000
 1.5680	13.2400
 1.5720	13.1900
 1.5760	13.3000
 1.5800	13.2800
 1.5840	13.2500
 1.5880	13.2100
 1.5920	13.2400
 1.5960	13.2500
 1.6000	13.2700
 1.6040	13.2700
 1.6080	13.2200
 1.6120	13.2700
 1.6160	13.2000
 1.6200	13.2500
 1.6240	13.2700
 1.6280	13.2500
 1.6320	13.2100
 1.6360	13.1800
 1.6400	13.2600
 1.6440	13.1700
 1.6480	13.2200
 1.6520	13.1700
 1.6560	13.2000
 1.6600	13.1900
 1.6640	13.1400
 1.6680	13.1500
 1.6720	13.1700
 1.6760	13.1700
 1.6800	13.1100
 1.6840	13.1200
 1.6880	13.1200
 1.6920	13.0400
 1.6960	13.1200
 1.7000	13.1000
 1.7040	13.0700
 1.7080	13.1000
 1.7120	13.0800
 1.7160	13.0900
 1.7200	13.1500
 1.7240	13.1200
 1.7280	13.0700
 1.7320	13.0800
 1.7360	13.1200
 1.7400	13.0800
 1.7440	13.0700
 1.7480	13.0900
 1.7520	13.0400
 1.7560	13.0400
 1.7600	13.0300
 1.7640	13.0400
 1.7680	13.0400
 1.7720	13.0600
 1.7760	13.0200
 1.7800	13.0100
 1.7840	12.9800
 1.7880	12.9600
 1.7920	12.9300
 1.7960	12.9700
 1.8000	12.9100
 1.8040	12.9600
 1.8080	12.9600
 1.8120	12.9400
 1.8160	12.9100
 1.8200	12.9600
 1.8240	12.9500
 1.8280	12.9400
 1.8320	12.9400
 1.8360	12.9600
 1.8400	12.9400
 1.8440	12.9100
 1.8480	12.8900
 1.8520	12.8600
 1.8560	12.9100
 1.8600	12.8900
 1.8640	12.9100
 1.8680	12.8500
 1.8720	12.8200
 1.8760	12.8100
 1.8800	12.8300
 1.8840	12.8300
 1.8880	12.7600
 1.8920	12.7900
 1.8960	12.7400
 1.9000	12.7500
 1.9040	12.7300
 1.9080	12.7100
 1.9120	12.6700
 1.9160	12.7700
 1.9200	12.6700
 1.9240	12.6800
 1.9280	12.6700
 1.9320	12.6700
 1.9360	12.7100
 1.9400	12.7100
 1.9440	12.7600
 1.9480	12.8000
 1.9520	12.8200
 1.9560	12.7600
 1.9600	12.7700
 1.9640	12.7600
 1.9680	12.7700
 1.9720	12.7200
 1.9760	12.7400
 1.9800	12.7700
 1.9840	12.7500
 1.9880	12.7300
 1.9920	12.7400
 1.9960	12.6900
 2.0000	12.7200
 2.0040	12.7500
 2.0080	12.6700
 2.0120	12.7000
 2.0160	12.6600
 2.0200	12.7600
 2.0240	12.7600
 2.0280	12.6600
 2.0320	12.7400
 2.0360	12.7300
 2.0400	12.7600
 2.0440	12.7900
 2.0480	12.8100
 2.0520	12.8000
 2.0560	12.8000
 2.0600	12.7900
 2.0640	12.7700
 2.0680	12.7700
 2.0720	12.7700
 2.0760	12.7600
 2.0800	12.8400
 2.0840	12.7800
 2.0880	12.8100
 2.0920	12.8600
 2.0960	12.7700
 2.1000	12.7700
 2.1040	12.8700
 2.1080	12.8400
 2.1120	12.8700
 2.1160	12.8000
 2.1200	12.8600
 2.1240	12.7900
 2.1280	12.8400
 2.1320	12.8200
 2.1360	12.7900
 2.1400	12.7800
 2.1440	12.8400
 2.1480	12.7500
 2.1520	12.8200
 2.1560	12.8200
 2.1600	12.7700
 2.1640	12.7800
 2.1680	12.8000
 2.1720	12.7800
 2.1760	12.8400
 2.1800	12.7900
 2.1840	12.7500
 2.1880	12.8300
 2.1920	12.7900
 2.1960	12.8000
 2.2000	12.7900
 2.2040	12.8000
 2.2080	12.8100
 2.2120	12.8200
 2.2160	12.7600
 2.2200	12.8300
 2.2240	12.8300
 2.2280	12.7700
 2.2320	12.8100
 2.2360	12.8200
 2.2400	12.8600
 2.2440	12.8900
 2.2480	12.8600
 2.2520	12.8500
 2.2560	12.8500
 2.2600	12.8200
 2.2640	12.8600
 2.2680	12.8900
 2.2720	12.8300
 2.2760	12.8500
 2.2800	12.8200
 2.2840	12.8700
 2.2880	12.8600
 2.2920	12.8300
 2.2960	12.8300
 2.3000	12.8200
 2.3040	12.7900
 2.3080	12.8300
 2.3120	12.7800
 2.3160	12.8300
 2.3200	12.8300
 2.3240	12.8300
 2.3280	12.8900
 2.3320	12.8400
 2.3360	12.8400
 2.3400	12.8800
 2.3440	12.8800
 2.3480	12.8900
 2.3520	12.8700
 2.3560	12.8700
 2.3600	12.8400
 2.3640	12.8200
 2.3680	12.8900
 2.3720	12.8600
 2.3760	12.8700
 2.3800	12.8900
 2.3840	12.8900
 2.3880	12.8700
 2.3920	12.8200
 2.3960	12.8400
 2.4000	12.8600
 2.4040	12.8500
 2.4080	12.8300
 2.4120	12.8800
 2.4160	12.9000
 2.4200	12.8700
 2.4240	12.9300
 2.4280	12.9000
 2.4320	12.9900
 2.4360	12.9600
 2.4400	12.9300
 2.4440	12.9800
 2.4480	12.9400
 2.4520	12.9000
 2.4560	12.9000
 2.4600	12.9400
 2.4640	12.8800
 2.4680	12.8600
 2.4720	12.9300
 2.4760	12.8700
 2.4800	12.9000
 2.4840	12.8300
 2.4880	12.9200
 2.4920	12.9500
 2.4960	13.0100
 2.5000	12.9300
