Name: Anthophyllite (Mg,Fe^2+)_7Si_8O_22(OH)_2
Type: Mineral
Class: Silicate
Subclass: Inosilicate
Particle Size: Coarse
Sample No.: IN-8A
Owner: JPL
Wavelength Range: VSWIR
Origin: USA, North Carolina.
Collection Date: N/A
Description: Particle size was 125-500um.Collected by:  Ward's Original ASTER Spectral Library name was jpl.perkin.mineral.silicate.inosilicate.coarse.in08a.spectrum.txt
Measurement: Hemispherical reflectance
First Column: X
Second Column: Y
X Units: Wavelength (micrometers)
Y Units:Reflectance (percent)
First X Value:  2.5000
Last X Value:  0.4000
Number of X Values: 2101
Additional Information: mineral.silicate.inosilicate.coarse.vswir.in-8a.jpl.perkin.ancillary.txt

 2.5000	32.7144
 2.4990	32.2479
 2.4980	32.5628
 2.4970	32.5046
 2.4960	32.2130
 2.4950	32.3769
 2.4940	32.5478
 2.4930	32.4136
 2.4920	32.4321
 2.4910	32.4489
 2.4900	32.5400
 2.4890	32.3611
 2.4880	32.5358
 2.4870	32.6128
 2.4860	32.5867
 2.4850	32.5446
 2.4840	32.6819
 2.4830	32.6409
 2.4820	32.4857
 2.4810	32.5936
 2.4800	32.5427
 2.4790	32.3396
 2.4780	32.3954
 2.4770	32.1678
 2.4760	32.1575
 2.4750	31.9245
 2.4740	31.9252
 2.4730	31.8784
 2.4720	31.7297
 2.4710	31.5479
 2.4700	31.5609
 2.4690	31.4508
 2.4680	31.3475
 2.4670	31.2579
 2.4660	31.2435
 2.4650	31.1015
 2.4640	31.0310
 2.4630	31.1182
 2.4620	31.2658
 2.4610	31.0941
 2.4600	31.1424
 2.4590	31.0761
 2.4580	31.3117
 2.4570	31.1432
 2.4560	31.4207
 2.4550	31.2129
 2.4540	31.4689
 2.4530	31.5127
 2.4520	31.6201
 2.4510	31.5758
 2.4500	31.6866
 2.4490	31.7549
 2.4480	31.8366
 2.4470	31.7925
 2.4460	31.7891
 2.4450	31.7734
 2.4440	31.9939
 2.4430	31.9453
 2.4420	31.9135
 2.4410	31.9518
 2.4400	31.9471
 2.4390	31.9248
 2.4380	31.9258
 2.4370	31.8543
 2.4360	32.0005
 2.4350	31.9881
 2.4340	32.0064
 2.4330	31.9407
 2.4320	32.0708
 2.4310	31.8982
 2.4300	31.9956
 2.4290	32.0407
 2.4280	32.1307
 2.4270	32.1766
 2.4260	32.1821
 2.4250	32.1902
 2.4240	32.2291
 2.4230	32.3164
 2.4220	32.4670
 2.4210	32.4459
 2.4200	32.5202
 2.4190	32.7063
 2.4180	32.7757
 2.4170	32.8240
 2.4160	32.8369
 2.4150	32.8630
 2.4140	32.9493
 2.4130	32.9151
 2.4120	32.9957
 2.4110	32.9160
 2.4100	32.9612
 2.4090	32.8421
 2.4080	32.7499
 2.4070	32.6448
 2.4060	32.5104
 2.4050	32.2822
 2.4040	32.1037
 2.4030	31.9121
 2.4020	31.7368
 2.4010	31.4624
 2.4000	31.2801
 2.3990	31.0068
 2.3980	30.7826
 2.3970	30.5634
 2.3960	30.3666
 2.3950	30.0898
 2.3940	29.9203
 2.3930	29.7076
 2.3920	29.4691
 2.3910	29.3050
 2.3900	29.2663
 2.3890	29.1455
 2.3880	29.0333
 2.3870	28.9820
 2.3860	29.0157
 2.3850	28.9460
 2.3840	28.9946
 2.3830	29.0583
 2.3820	29.1649
 2.3810	29.2462
 2.3800	29.4140
 2.3790	29.5062
 2.3780	29.6933
 2.3770	29.8893
 2.3760	30.0836
 2.3750	30.2416
 2.3740	30.4012
 2.3730	30.5452
 2.3720	30.7896
 2.3710	31.0320
 2.3700	31.1477
 2.3690	31.2728
 2.3680	31.5036
 2.3670	31.6736
 2.3660	31.8501
 2.3650	32.0392
 2.3640	32.1425
 2.3630	32.2408
 2.3620	32.3891
 2.3610	32.5453
 2.3600	32.6241
 2.3590	32.6948
 2.3580	32.8122
 2.3570	32.9106
 2.3560	32.9729
 2.3550	32.9665
 2.3540	32.9992
 2.3530	33.0414
 2.3520	33.0283
 2.3510	33.0279
 2.3500	33.0754
 2.3490	33.1253
 2.3480	33.1481
 2.3470	33.1339
 2.3460	33.1035
 2.3450	33.0980
 2.3440	33.0582
 2.3430	33.0350
 2.3420	32.9775
 2.3410	32.8815
 2.3400	32.7587
 2.3390	32.6534
 2.3380	32.5448
 2.3370	32.4048
 2.3360	32.1830
 2.3350	31.9879
 2.3340	31.7447
 2.3330	31.4810
 2.3320	31.1799
 2.3310	30.9054
 2.3300	30.5488
 2.3290	30.2059
 2.3280	29.8650
 2.3270	29.5126
 2.3260	29.0754
 2.3250	28.6495
 2.3240	28.2160
 2.3230	27.7872
 2.3220	27.2865
 2.3210	26.8804
 2.3200	26.4315
 2.3190	25.9362
 2.3180	25.5208
 2.3170	25.1909
 2.3160	24.8322
 2.3150	24.5776
 2.3140	24.2851
 2.3130	24.0927
 2.3120	23.8138
 2.3110	23.7355
 2.3100	23.6247
 2.3090	23.5609
 2.3080	23.7047
 2.3070	23.8804
 2.3060	23.9914
 2.3050	24.2360
 2.3040	24.4368
 2.3030	24.7143
 2.3020	25.0605
 2.3010	25.2934
 2.3000	25.4901
 2.2990	25.7534
 2.2980	26.0221
 2.2970	26.3232
 2.2960	26.5244
 2.2950	26.7209
 2.2940	26.8098
 2.2930	26.9493
 2.2920	27.0604
 2.2910	27.2917
 2.2900	27.4482
 2.2890	27.5627
 2.2880	27.7066
 2.2870	27.9213
 2.2860	28.1277
 2.2850	28.4216
 2.2840	28.6930
 2.2830	29.0546
 2.2820	29.4585
 2.2810	29.8881
 2.2800	30.2312
 2.2790	30.6467
 2.2780	31.0436
 2.2770	31.4767
 2.2760	31.8799
 2.2750	32.2838
 2.2740	32.5970
 2.2730	32.9378
 2.2720	33.2411
 2.2710	33.6015
 2.2700	33.8052
 2.2690	34.0472
 2.2680	34.2915
 2.2670	34.5601
 2.2660	34.6761
 2.2650	34.8613
 2.2640	35.0660
 2.2630	35.3556
 2.2620	35.4846
 2.2610	35.7376
 2.2600	35.8105
 2.2590	36.0124
 2.2580	36.1509
 2.2570	36.3259
 2.2560	36.4928
 2.2550	36.6390
 2.2540	36.7153
 2.2530	36.8889
 2.2520	36.9585
 2.2510	37.0968
 2.2500	37.1222
 2.2490	37.2233
 2.2480	37.2361
 2.2470	37.3724
 2.2460	37.4740
 2.2450	37.4788
 2.2440	37.5237
 2.2430	37.6421
 2.2420	37.6079
 2.2410	37.6570
 2.2400	37.6709
 2.2390	37.7179
 2.2380	37.6984
 2.2370	37.7732
 2.2360	37.8101
 2.2350	37.9538
 2.2340	37.9034
 2.2330	38.1183
 2.2320	38.0547
 2.2310	38.2036
 2.2300	38.1686
 2.2290	38.4953
 2.2280	38.4622
 2.2270	38.6459
 2.2260	38.7202
 2.2250	38.8842
 2.2240	38.9979
 2.2230	39.1940
 2.2220	39.2912
 2.2210	39.4675
 2.2200	39.5183
 2.2190	39.8049
 2.2180	39.8165
 2.2170	39.9077
 2.2160	40.0539
 2.2150	40.0811
 2.2140	40.0753
 2.2130	40.2838
 2.2120	40.2810
 2.2110	40.3113
 2.2100	40.4508
 2.2090	40.5471
 2.2080	40.5817
 2.2070	40.6898
 2.2060	40.6576
 2.2050	40.7130
 2.2040	40.8025
 2.2030	40.8135
 2.2020	40.8361
 2.2010	40.9622
 2.2000	40.9556
 2.1990	41.0077
 2.1980	41.0144
 2.1970	41.1210
 2.1960	41.1333
 2.1950	41.2672
 2.1940	41.2091
 2.1930	41.2912
 2.1920	41.2780
 2.1910	41.2921
 2.1900	41.3005
 2.1890	41.3722
 2.1880	41.3746
 2.1870	41.4768
 2.1860	41.4309
 2.1850	41.4924
 2.1840	41.5175
 2.1830	41.5395
 2.1820	41.5374
 2.1810	41.6094
 2.1800	41.5544
 2.1790	41.5671
 2.1780	41.6265
 2.1770	41.6728
 2.1760	41.6559
 2.1750	41.7191
 2.1740	41.7424
 2.1730	41.8095
 2.1720	41.7242
 2.1710	41.8490
 2.1700	41.8803
 2.1690	41.9658
 2.1680	42.0475
 2.1670	42.0889
 2.1660	42.1091
 2.1650	42.2436
 2.1640	42.2079
 2.1630	42.3208
 2.1620	42.3721
 2.1610	42.4019
 2.1600	42.4974
 2.1590	42.5583
 2.1580	42.5479
 2.1570	42.6154
 2.1560	42.6041
 2.1550	42.6949
 2.1540	42.6572
 2.1530	42.7677
 2.1520	42.7466
 2.1510	42.7560
 2.1500	42.7601
 2.1490	42.8156
 2.1480	42.7667
 2.1470	42.8612
 2.1460	42.8352
 2.1450	42.8160
 2.1440	42.8117
 2.1430	42.7945
 2.1420	42.8504
 2.1410	42.9053
 2.1400	42.8465
 2.1390	42.8838
 2.1380	42.8605
 2.1370	42.8497
 2.1360	42.8785
 2.1350	42.8526
 2.1340	42.8520
 2.1330	42.8869
 2.1320	42.8586
 2.1310	42.9429
 2.1300	42.9204
 2.1290	42.9390
 2.1280	42.9591
 2.1270	43.0156
 2.1260	43.0357
 2.1250	43.0306
 2.1240	43.0878
 2.1230	43.1407
 2.1220	43.1775
 2.1210	43.2224
 2.1200	43.2144
 2.1190	43.2650
 2.1180	43.2423
 2.1170	43.2709
 2.1160	43.2991
 2.1150	43.3422
 2.1140	43.3012
 2.1130	43.3762
 2.1120	43.4151
 2.1110	43.4279
 2.1100	43.3996
 2.1090	43.5156
 2.1080	43.5716
 2.1070	43.5412
 2.1060	43.5720
 2.1050	43.6001
 2.1040	43.6548
 2.1030	43.6796
 2.1020	43.6489
 2.1010	43.6288
 2.1000	43.6291
 2.0990	43.7056
 2.0980	43.7363
 2.0970	43.7489
 2.0960	43.8019
 2.0950	43.8086
 2.0940	43.8140
 2.0930	43.8405
 2.0920	43.8965
 2.0910	43.9563
 2.0900	43.9811
 2.0890	44.0093
 2.0880	44.0327
 2.0870	44.0926
 2.0860	44.0746
 2.0850	44.0785
 2.0840	44.1050
 2.0830	44.0873
 2.0820	44.1058
 2.0810	44.1207
 2.0800	44.1103
 2.0790	44.1609
 2.0780	44.1753
 2.0770	44.2383
 2.0760	44.2625
 2.0750	44.3123
 2.0740	44.4255
 2.0730	44.5358
 2.0720	44.6273
 2.0710	44.7249
 2.0700	44.8730
 2.0690	44.9828
 2.0680	45.0176
 2.0670	45.0672
 2.0660	45.1135
 2.0650	45.1924
 2.0640	45.3021
 2.0630	45.3552
 2.0620	45.3411
 2.0610	45.3869
 2.0600	45.4383
 2.0590	45.4111
 2.0580	45.4581
 2.0570	45.5417
 2.0560	45.5913
 2.0550	45.5902
 2.0540	45.6271
 2.0530	45.6709
 2.0520	45.6970
 2.0510	45.7147
 2.0500	45.7632
 2.0490	45.7761
 2.0480	45.8227
 2.0470	45.7967
 2.0460	45.8272
 2.0450	45.8675
 2.0440	45.8913
 2.0430	45.8851
 2.0420	45.9193
 2.0410	45.9265
 2.0400	45.9523
 2.0390	46.0155
 2.0380	46.0228
 2.0370	45.9962
 2.0360	46.0693
 2.0350	46.0648
 2.0340	46.1171
 2.0330	46.1629
 2.0320	46.1608
 2.0310	46.1602
 2.0300	46.2047
 2.0290	46.1638
 2.0280	46.1718
 2.0270	46.1715
 2.0260	46.1694
 2.0250	46.1352
 2.0240	46.1589
 2.0230	46.1316
 2.0220	46.1807
 2.0210	46.1880
 2.0200	46.1615
 2.0190	46.1654
 2.0180	46.1374
 2.0170	46.0766
 2.0160	46.1742
 2.0150	46.1677
 2.0140	46.1309
 2.0130	46.1959
 2.0120	46.2318
 2.0110	46.2010
 2.0100	46.2080
 2.0090	46.2530
 2.0080	46.3144
 2.0070	46.3777
 2.0060	46.3245
 2.0050	46.3488
 2.0040	46.4088
 2.0030	46.4233
 2.0020	46.4997
 2.0010	46.5114
 2.0000	46.4697
 1.9990	46.5579
 1.9980	46.5615
 1.9970	46.5402
 1.9960	46.5763
 1.9950	46.6128
 1.9940	46.6520
 1.9930	46.6349
 1.9920	46.6869
 1.9910	46.6754
 1.9900	46.6799
 1.9890	46.7372
 1.9880	46.8101
 1.9870	46.8250
 1.9860	46.8440
 1.9850	46.8855
 1.9840	46.8753
 1.9830	46.8555
 1.9820	46.9817
 1.9810	46.9945
 1.9800	47.0454
 1.9790	47.0201
 1.9780	47.0866
 1.9770	47.0931
 1.9760	47.1741
 1.9750	47.2218
 1.9740	47.2219
 1.9730	47.2298
 1.9720	47.3524
 1.9710	47.2459
 1.9700	47.4167
 1.9690	47.3743
 1.9680	47.4710
 1.9670	47.5243
 1.9660	47.5702
 1.9650	47.5500
 1.9640	47.6288
 1.9630	47.6115
 1.9620	47.7500
 1.9610	47.6964
 1.9600	47.7767
 1.9590	47.7782
 1.9580	47.7766
 1.9570	47.8802
 1.9560	47.9367
 1.9550	47.8745
 1.9540	47.9864
 1.9530	47.9718
 1.9520	48.0375
 1.9510	48.0983
 1.9500	48.2353
 1.9490	48.1380
 1.9480	48.2317
 1.9470	48.2071
 1.9460	48.3420
 1.9450	48.2362
 1.9440	48.4172
 1.9430	48.3599
 1.9420	48.5123
 1.9410	48.4942
 1.9400	48.5088
 1.9390	48.5210
 1.9380	48.5948
 1.9370	48.6264
 1.9360	48.7174
 1.9350	48.7293
 1.9340	48.7433
 1.9330	48.8110
 1.9320	48.8286
 1.9310	48.8137
 1.9300	48.9268
 1.9290	48.9664
 1.9280	49.0517
 1.9270	48.9749
 1.9260	49.0385
 1.9250	49.0986
 1.9240	49.0931
 1.9230	49.0868
 1.9220	49.2316
 1.9210	49.1400
 1.9200	49.2110
 1.9190	49.2375
 1.9180	49.2842
 1.9170	49.3481
 1.9160	49.3656
 1.9150	49.3686
 1.9140	49.3775
 1.9130	49.4467
 1.9120	49.4705
 1.9110	49.4704
 1.9100	49.6546
 1.9090	49.6067
 1.9080	49.6857
 1.9070	49.6684
 1.9060	49.7813
 1.9050	49.7391
 1.9040	49.8757
 1.9030	49.8710
 1.9020	49.9502
 1.9010	49.9548
 1.9000	49.9643
 1.8990	49.9833
 1.8980	50.0838
 1.8970	50.1542
 1.8960	50.1650
 1.8950	50.1119
 1.8940	50.2396
 1.8930	50.2367
 1.8920	50.2680
 1.8910	50.2900
 1.8900	50.3965
 1.8890	50.3850
 1.8880	50.4470
 1.8870	50.4295
 1.8860	50.4523
 1.8850	50.4663
 1.8840	50.5579
 1.8830	50.4806
 1.8820	50.5714
 1.8810	50.5994
 1.8800	50.6507
 1.8790	50.6678
 1.8780	50.7494
 1.8770	50.8109
 1.8760	50.8565
 1.8750	50.7924
 1.8740	50.9237
 1.8730	50.9183
 1.8720	50.9307
 1.8710	50.9548
 1.8700	50.9452
 1.8690	50.8938
 1.8680	50.9484
 1.8670	50.9600
 1.8660	50.9774
 1.8650	51.0308
 1.8640	51.1525
 1.8630	51.2061
 1.8620	51.1845
 1.8610	51.2737
 1.8600	51.2710
 1.8590	51.2829
 1.8580	51.3388
 1.8570	51.3514
 1.8560	51.3126
 1.8550	51.3622
 1.8540	51.4789
 1.8530	51.4833
 1.8520	51.5372
 1.8510	51.5306
 1.8500	51.5482
 1.8490	51.5871
 1.8480	51.6844
 1.8470	51.6250
 1.8460	51.6354
 1.8450	51.6193
 1.8440	51.7362
 1.8430	51.7949
 1.8420	51.8141
 1.8410	51.8210
 1.8400	51.8730
 1.8390	51.8468
 1.8380	51.8070
 1.8370	51.7663
 1.8360	51.8052
 1.8350	51.8365
 1.8340	51.8758
 1.8330	51.9300
 1.8320	52.0035
 1.8310	52.0018
 1.8300	51.9976
 1.8290	51.9737
 1.8280	52.0009
 1.8270	52.0411
 1.8260	52.0737
 1.8250	52.0391
 1.8240	52.1194
 1.8230	52.1842
 1.8220	52.1736
 1.8210	52.1547
 1.8200	52.1633
 1.8190	52.1362
 1.8180	52.1857
 1.8170	52.2297
 1.8160	52.2137
 1.8150	52.2521
 1.8140	52.2989
 1.8130	52.3206
 1.8120	52.3239
 1.8110	52.3593
 1.8100	52.4105
 1.8090	52.4525
 1.8080	52.4979
 1.8070	52.4552
 1.8060	52.5052
 1.8050	52.5162
 1.8040	52.5084
 1.8030	52.5532
 1.8020	52.5834
 1.8010	52.5794
 1.8000	52.5748
 1.7990	52.5756
 1.7980	52.6077
 1.7970	52.6644
 1.7960	52.6979
 1.7950	52.7142
 1.7940	52.7378
 1.7930	52.7347
 1.7920	52.7497
 1.7910	52.7235
 1.7900	52.7559
 1.7890	52.7971
 1.7880	52.7935
 1.7870	52.8374
 1.7860	52.8294
 1.7850	52.8124
 1.7840	52.8418
 1.7830	52.8353
 1.7820	52.8800
 1.7810	52.8561
 1.7800	52.8474
 1.7790	52.8807
 1.7780	52.8664
 1.7770	52.8980
 1.7760	52.8956
 1.7750	52.8576
 1.7740	52.8500
 1.7730	52.8994
 1.7720	52.9180
 1.7710	52.9355
 1.7700	52.9333
 1.7690	52.9714
 1.7680	52.9500
 1.7670	52.9709
 1.7660	53.0231
 1.7650	53.0014
 1.7640	52.9741
 1.7630	52.9552
 1.7620	52.9765
 1.7610	53.0173
 1.7600	53.0051
 1.7590	53.0216
 1.7580	53.0544
 1.7570	53.0875
 1.7560	53.0952
 1.7550	53.0895
 1.7540	53.1085
 1.7530	53.1214
 1.7520	53.1225
 1.7510	53.1518
 1.7500	53.1931
 1.7490	53.2171
 1.7480	53.2029
 1.7470	53.1524
 1.7460	53.1319
 1.7450	53.1319
 1.7440	53.1493
 1.7430	53.1839
 1.7420	53.1466
 1.7410	53.1822
 1.7400	53.1990
 1.7390	53.1685
 1.7380	53.1961
 1.7370	53.2541
 1.7360	53.2330
 1.7350	53.2758
 1.7340	53.2827
 1.7330	53.2803
 1.7320	53.2718
 1.7310	53.3129
 1.7300	53.2858
 1.7290	53.3112
 1.7280	53.2881
 1.7270	53.3539
 1.7260	53.3232
 1.7250	53.3013
 1.7240	53.3522
 1.7230	53.3653
 1.7220	53.3903
 1.7210	53.3706
 1.7200	53.2494
 1.7190	53.3265
 1.7180	53.2742
 1.7170	53.3458
 1.7160	53.3404
 1.7150	53.3698
 1.7140	53.3848
 1.7130	53.3867
 1.7120	53.3724
 1.7110	53.3395
 1.7100	53.3319
 1.7090	53.3283
 1.7080	53.3560
 1.7070	53.3420
 1.7060	53.3476
 1.7050	53.3676
 1.7040	53.3300
 1.7030	53.3301
 1.7020	53.3128
 1.7010	53.3545
 1.7000	53.3947
 1.6990	53.3141
 1.6980	53.2960
 1.6970	53.3160
 1.6960	53.3534
 1.6950	53.3228
 1.6940	53.2372
 1.6930	53.3617
 1.6920	53.3455
 1.6910	53.3219
 1.6900	53.2303
 1.6890	53.3271
 1.6880	53.2260
 1.6870	53.2331
 1.6860	53.2935
 1.6850	53.2408
 1.6840	53.2347
 1.6830	53.2364
 1.6820	53.2580
 1.6810	53.2913
 1.6800	53.2006
 1.6790	53.2559
 1.6780	53.1827
 1.6770	53.2704
 1.6760	53.1821
 1.6750	53.2101
 1.6740	53.2051
 1.6730	53.1884
 1.6720	53.1722
 1.6710	53.1432
 1.6700	53.1313
 1.6690	53.2345
 1.6680	53.0614
 1.6670	53.1748
 1.6660	53.1170
 1.6650	53.0940
 1.6640	53.0793
 1.6630	53.1215
 1.6620	53.0849
 1.6610	53.1258
 1.6600	53.1190
 1.6590	53.0894
 1.6580	53.0705
 1.6570	53.0950
 1.6560	52.9816
 1.6550	53.0309
 1.6540	52.9827
 1.6530	52.9871
 1.6520	52.9790
 1.6510	53.0304
 1.6500	52.9811
 1.6490	53.0110
 1.6480	52.9514
 1.6470	53.0489
 1.6460	52.9308
 1.6450	52.9115
 1.6440	52.8872
 1.6430	52.9526
 1.6420	52.9088
 1.6410	52.8702
 1.6400	52.9279
 1.6390	52.8848
 1.6380	52.9310
 1.6370	52.8296
 1.6360	52.8266
 1.6350	52.8738
 1.6340	52.7646
 1.6330	52.7471
 1.6320	52.7506
 1.6310	52.8239
 1.6300	52.7116
 1.6290	52.7077
 1.6280	52.7108
 1.6270	52.7378
 1.6260	52.7214
 1.6250	52.7956
 1.6240	52.6578
 1.6230	52.6776
 1.6220	52.6425
 1.6210	52.7854
 1.6200	52.6520
 1.6190	52.6703
 1.6180	52.5645
 1.6170	52.6042
 1.6160	52.5417
 1.6150	52.5664
 1.6140	52.4871
 1.6130	52.5153
 1.6120	52.5101
 1.6110	52.4946
 1.6100	52.4696
 1.6090	52.4350
 1.6080	52.4225
 1.6070	52.4174
 1.6060	52.3934
 1.6050	52.3716
 1.6040	52.3257
 1.6030	52.2907
 1.6020	52.2683
 1.6010	52.3014
 1.6000	52.2873
 1.5990	52.2934
 1.5980	52.2376
 1.5970	52.1520
 1.5960	52.1723
 1.5950	52.2048
 1.5940	52.1964
 1.5930	52.1444
 1.5920	52.0416
 1.5910	52.0585
 1.5900	52.0324
 1.5890	51.9970
 1.5880	52.0187
 1.5870	52.0355
 1.5860	51.9498
 1.5850	51.9407
 1.5840	51.9338
 1.5830	51.8526
 1.5820	51.8216
 1.5810	51.8278
 1.5800	51.8161
 1.5790	51.7861
 1.5780	51.7304
 1.5770	51.7454
 1.5760	51.6988
 1.5750	51.6828
 1.5740	51.5569
 1.5730	51.5692
 1.5720	51.5160
 1.5710	51.5448
 1.5700	51.4840
 1.5690	51.4714
 1.5680	51.4414
 1.5670	51.4385
 1.5660	51.4019
 1.5650	51.4059
 1.5640	51.3332
 1.5630	51.2869
 1.5620	51.2250
 1.5610	51.2254
 1.5600	51.2298
 1.5590	51.2232
 1.5580	51.0908
 1.5570	51.0624
 1.5560	51.0408
 1.5550	51.0084
 1.5540	50.9965
 1.5530	50.9694
 1.5520	50.8823
 1.5510	50.8469
 1.5500	50.8197
 1.5490	50.7873
 1.5480	50.7434
 1.5470	50.7485
 1.5460	50.6576
 1.5450	50.5922
 1.5440	50.5313
 1.5430	50.5608
 1.5420	50.4831
 1.5410	50.4655
 1.5400	50.3968
 1.5390	50.3751
 1.5380	50.3586
 1.5370	50.3492
 1.5360	50.2643
 1.5350	50.2258
 1.5340	50.2113
 1.5330	50.1643
 1.5320	50.1198
 1.5310	50.0817
 1.5300	50.0125
 1.5290	50.0015
 1.5280	49.9879
 1.5270	49.9456
 1.5260	49.8883
 1.5250	49.9186
 1.5240	49.8530
 1.5230	49.8090
 1.5220	49.8151
 1.5210	49.7531
 1.5200	49.6439
 1.5190	49.6308
 1.5180	49.5973
 1.5170	49.5877
 1.5160	49.5539
 1.5150	49.4840
 1.5140	49.4395
 1.5130	49.4422
 1.5120	49.4075
 1.5110	49.3133
 1.5100	49.2667
 1.5090	49.2753
 1.5080	49.2022
 1.5070	49.1232
 1.5060	49.0908
 1.5050	49.0671
 1.5040	49.0375
 1.5030	48.9916
 1.5020	48.9346
 1.5010	48.9066
 1.5000	48.8624
 1.4990	48.8376
 1.4980	48.8058
 1.4970	48.7478
 1.4960	48.7250
 1.4950	48.7165
 1.4940	48.6809
 1.4930	48.6493
 1.4920	48.6053
 1.4910	48.5518
 1.4900	48.4938
 1.4890	48.4497
 1.4880	48.4137
 1.4870	48.3879
 1.4860	48.3624
 1.4850	48.2920
 1.4840	48.1870
 1.4830	48.1309
 1.4820	48.1300
 1.4810	48.1197
 1.4800	48.1045
 1.4790	48.0146
 1.4780	47.9434
 1.4770	47.9155
 1.4760	47.8787
 1.4750	47.8509
 1.4740	47.7953
 1.4730	47.6953
 1.4720	47.6742
 1.4710	47.6273
 1.4700	47.5611
 1.4690	47.5008
 1.4680	47.4510
 1.4670	47.4146
 1.4660	47.3801
 1.4650	47.3107
 1.4640	47.2478
 1.4630	47.2162
 1.4620	47.1949
 1.4610	47.1021
 1.4600	47.0137
 1.4590	46.9761
 1.4580	46.9710
 1.4570	46.8915
 1.4560	46.7927
 1.4550	46.7795
 1.4540	46.7212
 1.4530	46.5838
 1.4520	46.5111
 1.4510	46.4591
 1.4500	46.4082
 1.4490	46.3915
 1.4480	46.3862
 1.4470	46.3266
 1.4460	46.1907
 1.4450	46.0574
 1.4440	46.0119
 1.4430	45.9399
 1.4420	45.9050
 1.4410	45.8792
 1.4400	45.7704
 1.4390	45.7021
 1.4380	45.7139
 1.4370	45.6188
 1.4360	45.5814
 1.4350	45.4899
 1.4340	45.4127
 1.4330	45.3877
 1.4320	45.3319
 1.4310	45.2427
 1.4300	45.2106
 1.4290	45.1251
 1.4280	45.1506
 1.4270	45.0184
 1.4260	45.0020
 1.4250	44.9607
 1.4240	44.9052
 1.4230	44.8242
 1.4220	44.8819
 1.4210	44.8104
 1.4200	44.7398
 1.4190	44.6619
 1.4180	44.6229
 1.4170	44.5645
 1.4160	44.5379
 1.4150	44.4663
 1.4140	44.3950
 1.4130	44.2269
 1.4120	44.2313
 1.4110	44.1639
 1.4100	44.1506
 1.4090	44.1051
 1.4080	44.0925
 1.4070	44.0032
 1.4060	43.9327
 1.4050	43.7967
 1.4040	43.6917
 1.4030	43.5613
 1.4020	43.1401
 1.4010	42.2573
 1.4000	41.2302
 1.3990	40.2015
 1.3980	39.2862
 1.3970	38.5250
 1.3960	37.5534
 1.3950	35.9017
 1.3940	34.3796
 1.3930	33.3158
 1.3920	33.1383
 1.3910	34.4676
 1.3900	36.7453
 1.3890	38.9935
 1.3880	40.9311
 1.3870	41.8902
 1.3860	42.5264
 1.3850	42.6979
 1.3840	42.9898
 1.3830	43.0522
 1.3820	43.1092
 1.3810	42.9959
 1.3800	43.2451
 1.3790	43.3170
 1.3780	43.5674
 1.3770	43.4857
 1.3760	43.5304
 1.3750	43.5253
 1.3740	43.5341
 1.3730	43.4988
 1.3720	43.4555
 1.3710	43.4201
 1.3700	43.3271
 1.3690	43.3507
 1.3680	43.3374
 1.3670	43.2919
 1.3660	43.2167
 1.3650	43.1592
 1.3640	43.1704
 1.3630	43.1536
 1.3620	42.9778
 1.3610	42.8335
 1.3600	42.9144
 1.3590	42.7376
 1.3580	42.8886
 1.3570	42.8584
 1.3560	42.8261
 1.3550	42.5932
 1.3540	42.6876
 1.3530	42.5194
 1.3520	42.5483
 1.3510	42.5224
 1.3500	42.4660
 1.3490	42.4278
 1.3480	42.4215
 1.3470	42.2961
 1.3460	42.3190
 1.3450	42.3011
 1.3440	42.2428
 1.3430	42.1606
 1.3420	42.1887
 1.3410	42.0371
 1.3400	42.1286
 1.3390	41.9908
 1.3380	41.9812
 1.3370	41.8810
 1.3360	41.9079
 1.3350	41.8294
 1.3340	41.8056
 1.3330	41.7207
 1.3320	41.7027
 1.3310	41.6990
 1.3300	41.6166
 1.3290	41.5257
 1.3280	41.5037
 1.3270	41.5490
 1.3260	41.4768
 1.3250	41.3975
 1.3240	41.3869
 1.3230	41.2999
 1.3220	41.2688
 1.3210	41.2483
 1.3200	41.2710
 1.3190	41.1653
 1.3180	41.1762
 1.3170	41.0914
 1.3160	41.0915
 1.3150	41.0014
 1.3140	41.0203
 1.3130	41.0004
 1.3120	40.9368
 1.3110	40.8067
 1.3100	40.8525
 1.3090	40.8199
 1.3080	40.8103
 1.3070	40.7108
 1.3060	40.7699
 1.3050	40.6946
 1.3040	40.6884
 1.3030	40.5806
 1.3020	40.5188
 1.3010	40.4770
 1.3000	40.4745
 1.2990	40.3835
 1.2980	40.4261
 1.2970	40.3671
 1.2960	40.3494
 1.2950	40.3051
 1.2940	40.2738
 1.2930	40.2503
 1.2920	40.2877
 1.2910	40.1881
 1.2900	40.2030
 1.2890	40.2111
 1.2880	40.1578
 1.2870	39.9958
 1.2860	40.0288
 1.2850	40.0006
 1.2840	40.0181
 1.2830	39.9557
 1.2820	39.9096
 1.2810	39.8622
 1.2800	39.8123
 1.2790	39.7055
 1.2780	39.6518
 1.2770	39.6444
 1.2760	39.5959
 1.2750	39.6349
 1.2740	39.6851
 1.2730	39.6252
 1.2720	39.6620
 1.2710	39.5635
 1.2700	39.6070
 1.2690	39.5297
 1.2680	39.5637
 1.2670	39.5195
 1.2660	39.5427
 1.2650	39.4695
 1.2640	39.4734
 1.2630	39.4212
 1.2620	39.4817
 1.2610	39.3904
 1.2600	39.3342
 1.2590	39.3033
 1.2580	39.3042
 1.2570	39.2923
 1.2560	39.2425
 1.2550	39.2094
 1.2540	39.2514
 1.2530	39.1705
 1.2520	39.1818
 1.2510	39.1451
 1.2500	39.1349
 1.2490	39.0891
 1.2480	39.0791
 1.2470	39.0266
 1.2460	39.0200
 1.2450	39.0058
 1.2440	38.9557
 1.2430	38.9573
 1.2420	38.9538
 1.2410	38.8888
 1.2400	38.8460
 1.2390	38.8400
 1.2380	38.8614
 1.2370	38.8211
 1.2360	38.7845
 1.2350	38.7419
 1.2340	38.7740
 1.2330	38.7373
 1.2320	38.6751
 1.2310	38.6830
 1.2300	38.6673
 1.2290	38.6196
 1.2280	38.6018
 1.2270	38.6109
 1.2260	38.6143
 1.2250	38.5598
 1.2240	38.5271
 1.2230	38.5145
 1.2220	38.4741
 1.2210	38.4445
 1.2200	38.4288
 1.2190	38.4524
 1.2180	38.4307
 1.2170	38.3578
 1.2160	38.3307
 1.2150	38.3374
 1.2140	38.3183
 1.2130	38.2624
 1.2120	38.2228
 1.2110	38.2556
 1.2100	38.2321
 1.2090	38.1650
 1.2080	38.1892
 1.2070	38.1804
 1.2060	38.1178
 1.2050	38.0843
 1.2040	38.0784
 1.2030	38.0957
 1.2020	38.0462
 1.2010	37.9885
 1.2000	37.9868
 1.1990	38.0047
 1.1980	37.9718
 1.1970	37.9133
 1.1960	37.8989
 1.1950	37.8793
 1.1940	37.8408
 1.1930	37.8826
 1.1920	37.8425
 1.1910	37.8518
 1.1900	37.7881
 1.1890	37.7022
 1.1880	37.6203
 1.1870	37.7488
 1.1860	37.7030
 1.1850	37.6339
 1.1840	37.6451
 1.1830	37.6405
 1.1820	37.5711
 1.1810	37.5620
 1.1800	37.5879
 1.1790	37.5911
 1.1780	37.4788
 1.1770	37.4780
 1.1760	37.4489
 1.1750	37.4697
 1.1740	37.4274
 1.1730	37.3881
 1.1720	37.3960
 1.1710	37.3822
 1.1700	37.3879
 1.1690	37.3564
 1.1680	37.2831
 1.1670	37.3156
 1.1660	37.2277
 1.1650	37.2141
 1.1640	37.2117
 1.1630	37.1780
 1.1620	37.1360
 1.1610	37.1542
 1.1600	37.1037
 1.1590	37.0906
 1.1580	37.0554
 1.1570	36.9958
 1.1560	36.9499
 1.1550	36.9951
 1.1540	36.9407
 1.1530	36.9454
 1.1520	36.8755
 1.1510	36.8600
 1.1500	36.8229
 1.1490	36.8153
 1.1480	36.7489
 1.1470	36.7618
 1.1460	36.6584
 1.1450	36.6596
 1.1440	36.5594
 1.1430	36.5602
 1.1420	36.5712
 1.1410	36.5703
 1.1400	36.5519
 1.1390	36.5598
 1.1380	36.5142
 1.1370	36.4492
 1.1360	36.4177
 1.1350	36.3762
 1.1340	36.2996
 1.1330	36.3228
 1.1320	36.3482
 1.1310	36.3050
 1.1300	36.2632
 1.1290	36.1958
 1.1280	36.1638
 1.1270	36.1302
 1.1260	36.0795
 1.1250	36.1022
 1.1240	35.9879
 1.1230	36.0126
 1.1220	35.8755
 1.1210	35.8692
 1.1200	35.8676
 1.1190	35.8610
 1.1180	35.7468
 1.1170	35.8168
 1.1160	35.7083
 1.1150	35.6997
 1.1140	35.6282
 1.1130	35.6157
 1.1120	35.5777
 1.1110	35.5941
 1.1100	35.4874
 1.1090	35.5706
 1.1080	35.4555
 1.1070	35.4442
 1.1060	35.3215
 1.1050	35.4243
 1.1040	35.3397
 1.1030	35.2944
 1.1020	35.1946
 1.1010	35.2143
 1.1000	35.1958
 1.0990	35.2020
 1.0980	35.0036
 1.0970	35.0944
 1.0960	35.0020
 1.0950	35.0850
 1.0940	34.9388
 1.0930	34.9319
 1.0920	34.8854
 1.0910	34.8974
 1.0900	34.7999
 1.0890	34.7663
 1.0880	34.8097
 1.0870	34.7735
 1.0860	34.6277
 1.0850	34.6411
 1.0840	34.6079
 1.0830	34.5922
 1.0820	34.4826
 1.0810	34.5027
 1.0800	34.4215
 1.0790	34.4990
 1.0780	34.3768
 1.0770	34.3898
 1.0760	34.3113
 1.0750	34.2823
 1.0740	34.2086
 1.0730	34.2809
 1.0720	34.0862
 1.0710	34.2944
 1.0700	33.9989
 1.0690	34.0733
 1.0680	34.0461
 1.0670	33.9871
 1.0660	33.9229
 1.0650	34.0324
 1.0640	33.9068
 1.0630	33.8762
 1.0620	33.8251
 1.0610	33.6956
 1.0600	33.6980
 1.0590	33.7817
 1.0580	33.7000
 1.0570	33.6605
 1.0560	33.5376
 1.0550	33.5987
 1.0540	33.4235
 1.0530	33.5489
 1.0520	33.3324
 1.0510	33.5540
 1.0500	33.3241
 1.0490	33.3758
 1.0480	33.2411
 1.0470	33.2883
 1.0460	33.1468
 1.0450	33.1664
 1.0440	33.1713
 1.0430	33.0953
 1.0420	33.0440
 1.0410	33.0201
 1.0400	32.9701
 1.0390	32.9786
 1.0380	32.8968
 1.0370	32.8205
 1.0360	32.8080
 1.0350	32.7938
 1.0340	32.7079
 1.0330	32.6860
 1.0320	32.6351
 1.0310	32.6075
 1.0300	32.5235
 1.0290	32.5615
 1.0280	32.3484
 1.0270	32.2858
 1.0260	32.2774
 1.0250	32.2554
 1.0240	32.2466
 1.0230	32.2048
 1.0220	32.0385
 1.0210	32.1870
 1.0200	32.0012
 1.0190	32.0052
 1.0180	31.8857
 1.0170	31.9002
 1.0160	31.7399
 1.0150	31.8210
 1.0140	31.6568
 1.0130	31.6597
 1.0120	31.5222
 1.0110	31.5794
 1.0100	31.4827
 1.0090	31.4767
 1.0080	31.3166
 1.0070	31.3035
 1.0060	31.2515
 1.0050	31.1750
 1.0040	31.1429
 1.0030	31.0069
 1.0020	31.0647
 1.0010	30.9659
 1.0000	30.9388
 0.9990	30.8688
 0.9980	30.7457
 0.9970	30.7495
 0.9960	30.7157
 0.9950	30.6357
 0.9940	30.5928
 0.9930	30.5003
 0.9920	30.4706
 0.9910	30.3904
 0.9900	30.2799
 0.9890	30.3454
 0.9880	30.2453
 0.9870	30.2046
 0.9860	30.1694
 0.9850	30.1487
 0.9840	30.0309
 0.9830	30.0108
 0.9820	29.9915
 0.9810	29.9718
 0.9800	29.8752
 0.9790	29.9025
 0.9780	29.8053
 0.9770	29.8973
 0.9760	29.8497
 0.9750	29.7768
 0.9740	29.7199
 0.9730	29.7532
 0.9720	29.7043
 0.9710	29.6651
 0.9700	29.6507
 0.9690	29.6399
 0.9680	29.5924
 0.9670	29.5992
 0.9660	29.5891
 0.9650	29.5757
 0.9640	29.5238
 0.9630	29.5483
 0.9620	29.5486
 0.9610	29.5071
 0.9600	29.4958
 0.9590	29.5268
 0.9580	29.4884
 0.9570	29.4638
 0.9560	29.4397
 0.9550	29.4957
 0.9540	29.4539
 0.9530	29.4013
 0.9520	29.3666
 0.9510	29.2956
 0.9500	29.2655
 0.9490	29.3116
 0.9480	29.3475
 0.9470	29.4194
 0.9460	29.4938
 0.9450	29.5587
 0.9440	29.6615
 0.9430	29.6948
 0.9420	29.6691
 0.9410	29.7178
 0.9400	29.7298
 0.9390	29.7416
 0.9380	29.7198
 0.9370	29.7710
 0.9360	29.8517
 0.9350	29.8253
 0.9340	29.8282
 0.9330	29.8968
 0.9320	29.9469
 0.9310	29.9655
 0.9300	29.9498
 0.9290	30.0179
 0.9280	30.0994
 0.9270	30.1348
 0.9260	30.1280
 0.9250	30.1885
 0.9240	30.2753
 0.9230	30.3008
 0.9220	30.3469
 0.9210	30.3692
 0.9200	30.4008
 0.9190	30.4259
 0.9180	30.5231
 0.9170	30.5592
 0.9160	30.5212
 0.9150	30.6071
 0.9140	30.6999
 0.9130	30.7503
 0.9120	30.8537
 0.9110	30.8873
 0.9100	30.9529
 0.9090	31.0052
 0.9080	31.0612
 0.9070	31.1169
 0.9060	31.1985
 0.9050	31.2497
 0.9040	31.3330
 0.9030	31.3251
 0.9020	31.3892
 0.9010	31.4492
 0.9000	31.5066
 0.8990	31.6234
 0.8980	31.7405
 0.8970	31.8150
 0.8960	31.8420
 0.8950	31.8154
 0.8940	31.9837
 0.8930	32.0492
 0.8920	32.1294
 0.8910	32.2270
 0.8900	32.2443
 0.8890	32.3108
 0.8880	32.3947
 0.8870	32.4353
 0.8860	32.5424
 0.8850	32.6554
 0.8840	32.7335
 0.8830	32.8140
 0.8820	32.9263
 0.8810	33.0157
 0.8800	33.1008
 0.8790	33.1144
 0.8780	33.2406
 0.8770	33.3267
 0.8760	33.4419
 0.8750	33.4804
 0.8740	33.6306
 0.8730	33.7059
 0.8720	33.7686
 0.8710	33.8085
 0.8700	33.9614
 0.8690	33.9977
 0.8680	34.0925
 0.8670	34.1705
 0.8660	34.3292
 0.8650	34.3571
 0.8640	34.4798
 0.8630	34.4995
 0.8620	34.6206
 0.8610	34.6842
 0.8600	34.9695
 0.8590	35.1604
 0.8580	35.2178
 0.8570	35.3557
 0.8560	35.4221
 0.8550	35.4991
 0.8540	35.6118
 0.8530	35.7660
 0.8520	35.8428
 0.8510	35.9650
 0.8500	36.0299
 0.8490	36.1332
 0.8480	36.2824
 0.8470	36.3449
 0.8460	36.4426
 0.8450	36.5600
 0.8440	36.6999
 0.8430	36.7768
 0.8420	36.9196
 0.8410	37.0100
 0.8400	37.1055
 0.8390	37.2223
 0.8380	37.3342
 0.8370	37.4011
 0.8360	37.5301
 0.8350	37.6259
 0.8340	37.7497
 0.8330	37.8424
 0.8320	37.9669
 0.8310	38.0759
 0.8300	38.1699
 0.8290	38.2845
 0.8280	38.4333
 0.8270	38.5565
 0.8260	38.6755
 0.8250	38.7702
 0.8240	38.9143
 0.8230	39.0172
 0.8220	39.1221
 0.8210	39.2486
 0.8200	39.3228
 0.8190	39.4635
 0.8180	39.5629
 0.8170	39.6997
 0.8160	39.8314
 0.8150	39.8904
 0.8140	40.0334
 0.8130	40.1803
 0.8120	40.2368
 0.8110	40.3183
 0.8100	40.4498
 0.8090	40.5524
 0.8080	40.6468
 0.8070	40.7642
 0.8060	40.8618
 0.8050	40.9726
 0.8040	41.0827
 0.8030	41.1730
 0.8020	41.3153
 0.8010	41.4105
 0.8000	41.5043
 0.7990	41.6021
 0.7980	41.6934
 0.7970	41.8202
 0.7960	41.8698
 0.7950	41.9818
 0.7940	42.0826
 0.7930	42.1554
 0.7920	42.2794
 0.7910	42.3555
 0.7900	42.4526
 0.7890	42.5395
 0.7880	42.6325
 0.7870	42.7626
 0.7860	42.8417
 0.7850	42.9200
 0.7840	43.0159
 0.7830	43.0919
 0.7820	43.1883
 0.7810	43.2715
 0.7800	43.3453
 0.7790	43.4181
 0.7780	43.4990
 0.7770	43.5539
 0.7760	43.6392
 0.7750	43.7286
 0.7740	43.7851
 0.7730	43.8708
 0.7720	43.9422
 0.7710	44.0519
 0.7700	44.1085
 0.7690	44.1604
 0.7680	44.2365
 0.7670	44.3070
 0.7660	44.3753
 0.7650	44.4271
 0.7640	44.5023
 0.7630	44.5731
 0.7620	44.6431
 0.7610	44.6956
 0.7600	44.7537
 0.7590	44.8168
 0.7580	44.8680
 0.7570	44.9140
 0.7560	44.9745
 0.7550	45.0423
 0.7540	45.1085
 0.7530	45.1376
 0.7520	45.1983
 0.7510	45.2547
 0.7500	45.3023
 0.7490	45.3648
 0.7480	45.3938
 0.7470	45.4734
 0.7460	45.5315
 0.7450	45.5779
 0.7440	45.6262
 0.7430	45.6615
 0.7420	45.7228
 0.7410	45.7411
 0.7400	45.7860
 0.7390	45.8384
 0.7380	45.8703
 0.7370	45.9178
 0.7360	45.9783
 0.7350	46.0111
 0.7340	46.0374
 0.7330	46.0778
 0.7320	46.1324
 0.7310	46.1634
 0.7300	46.1990
 0.7290	46.2164
 0.7280	46.2604
 0.7270	46.3016
 0.7260	46.3270
 0.7250	46.3878
 0.7240	46.4384
 0.7230	46.4690
 0.7220	46.5207
 0.7210	46.5530
 0.7200	46.5930
 0.7190	46.6292
 0.7180	46.6695
 0.7170	46.6971
 0.7160	46.7282
 0.7150	46.7627
 0.7140	46.7912
 0.7130	46.8359
 0.7120	46.8555
 0.7110	46.8933
 0.7100	46.9314
 0.7090	46.9392
 0.7080	46.9729
 0.7070	47.0157
 0.7060	47.0416
 0.7050	47.0638
 0.7040	47.0973
 0.7030	47.1223
 0.7020	47.1663
 0.7010	47.1921
 0.7000	47.1983
 0.6990	47.2152
 0.6980	47.2577
 0.6970	47.2678
 0.6960	47.2947
 0.6950	47.3219
 0.6940	47.3418
 0.6930	47.3711
 0.6920	47.3923
 0.6910	47.4162
 0.6900	47.4386
 0.6890	47.4627
 0.6880	47.4834
 0.6870	47.4939
 0.6860	47.5183
 0.6850	47.5456
 0.6840	47.5693
 0.6830	47.5939
 0.6820	47.6206
 0.6810	47.6256
 0.6800	47.6390
 0.6790	47.6602
 0.6780	47.6838
 0.6770	47.6938
 0.6760	47.7141
 0.6750	47.7328
 0.6740	47.7499
 0.6730	47.7585
 0.6720	47.7678
 0.6710	47.7745
 0.6700	47.7729
 0.6690	47.7907
 0.6680	47.8047
 0.6670	47.8058
 0.6660	47.8125
 0.6650	47.8212
 0.6640	47.8299
 0.6630	47.8363
 0.6620	47.8434
 0.6610	47.8459
 0.6600	47.8560
 0.6590	47.8590
 0.6580	47.8620
 0.6570	47.8676
 0.6560	47.8758
 0.6550	47.8706
 0.6540	47.8572
 0.6530	47.8519
 0.6520	47.8601
 0.6510	47.8553
 0.6500	47.8417
 0.6490	47.8478
 0.6480	47.8515
 0.6470	47.8392
 0.6460	47.8422
 0.6450	47.8497
 0.6440	47.8521
 0.6430	47.8451
 0.6420	47.8366
 0.6410	47.8414
 0.6400	47.8287
 0.6390	47.8375
 0.6380	47.8553
 0.6370	47.8690
 0.6360	47.8739
 0.6350	47.8740
 0.6340	47.8829
 0.6330	47.8827
 0.6320	47.8962
 0.6310	47.9096
 0.6300	47.9228
 0.6290	47.9361
 0.6280	47.9489
 0.6270	47.9532
 0.6260	47.9543
 0.6250	47.9745
 0.6240	48.0004
 0.6230	48.0132
 0.6220	48.0226
 0.6210	48.0481
 0.6200	48.0738
 0.6190	48.0870
 0.6180	48.1084
 0.6170	48.1281
 0.6160	48.1335
 0.6150	48.1425
 0.6140	48.1576
 0.6130	48.1645
 0.6120	48.1838
 0.6110	48.1959
 0.6100	48.2061
 0.6090	48.2182
 0.6080	48.2270
 0.6070	48.2436
 0.6060	48.2470
 0.6050	48.2527
 0.6040	48.2658
 0.6030	48.2826
 0.6020	48.2959
 0.6010	48.2932
 0.6000	48.2846
 0.5990	48.3046
 0.5980	48.3217
 0.5970	48.3393
 0.5960	48.3502
 0.5950	48.3606
 0.5940	48.3619
 0.5930	48.3591
 0.5920	48.3648
 0.5910	48.3730
 0.5900	48.3787
 0.5890	48.3785
 0.5880	48.3848
 0.5870	48.3829
 0.5860	48.3859
 0.5850	48.3870
 0.5840	48.3765
 0.5830	48.3765
 0.5820	48.3829
 0.5810	48.3780
 0.5800	48.3841
 0.5790	48.4002
 0.5780	48.3848
 0.5770	48.3910
 0.5760	48.3847
 0.5750	48.3772
 0.5740	48.3881
 0.5730	48.3779
 0.5720	48.3832
 0.5710	48.3719
 0.5700	48.3639
 0.5690	48.3756
 0.5680	48.3628
 0.5670	48.3432
 0.5660	48.3505
 0.5650	48.3450
 0.5640	48.3335
 0.5630	48.3236
 0.5620	48.3188
 0.5610	48.2730
 0.5600	48.2533
 0.5590	48.2382
 0.5580	48.2172
 0.5570	48.1927
 0.5560	48.1754
 0.5550	48.1475
 0.5540	48.1156
 0.5530	48.0836
 0.5520	48.0489
 0.5510	48.0016
 0.5500	47.9640
 0.5490	47.9243
 0.5480	47.8683
 0.5470	47.8429
 0.5460	47.8164
 0.5450	47.7925
 0.5440	47.7936
 0.5430	47.7885
 0.5420	47.7987
 0.5410	47.8155
 0.5400	47.8224
 0.5390	47.8264
 0.5380	47.8344
 0.5370	47.8405
 0.5360	47.8430
 0.5350	47.8395
 0.5340	47.8263
 0.5330	47.8262
 0.5320	47.8160
 0.5310	47.8075
 0.5300	47.8033
 0.5290	47.7942
 0.5280	47.7894
 0.5270	47.7856
 0.5260	47.7807
 0.5250	47.7927
 0.5240	47.7907
 0.5230	47.7835
 0.5220	47.7825
 0.5210	47.7813
 0.5200	47.7770
 0.5190	47.7722
 0.5180	47.7664
 0.5170	47.7514
 0.5160	47.7534
 0.5150	47.7310
 0.5140	47.7093
 0.5130	47.6742
 0.5120	47.6314
 0.5110	47.5940
 0.5100	47.5248
 0.5090	47.4354
 0.5080	47.3248
 0.5070	47.2157
 0.5060	47.1267
 0.5050	47.0684
 0.5040	47.0336
 0.5030	47.0253
 0.5020	47.0148
 0.5010	46.9831
 0.5000	46.9214
 0.4990	46.8340
 0.4980	46.7394
 0.4970	46.6524
 0.4960	46.5634
 0.4950	46.4732
 0.4940	46.4148
 0.4930	46.3657
 0.4920	46.3301
 0.4910	46.2885
 0.4900	46.2630
 0.4890	46.2443
 0.4880	46.2043
 0.4870	46.1694
 0.4860	46.1094
 0.4850	46.0681
 0.4840	46.0168
 0.4830	45.9514
 0.4820	45.9080
 0.4810	45.8449
 0.4800	45.7952
 0.4790	45.7380
 0.4780	45.6555
 0.4770	45.5821
 0.4760	45.4582
 0.4750	45.3205
 0.4740	45.2056
 0.4730	45.0709
 0.4720	44.9489
 0.4710	44.8565
 0.4700	44.7641
 0.4690	44.6816
 0.4680	44.5903
 0.4670	44.5060
 0.4660	44.4340
 0.4650	44.3413
 0.4640	44.2478
 0.4630	44.1632
 0.4620	44.0569
 0.4610	43.9559
 0.4600	43.8575
 0.4590	43.7408
 0.4580	43.6477
 0.4570	43.5656
 0.4560	43.4475
 0.4550	43.3489
 0.4540	43.2504
 0.4530	43.1639
 0.4520	43.0976
 0.4510	43.0073
 0.4500	42.9493
 0.4490	42.8756
 0.4480	42.8052
 0.4470	42.7371
 0.4460	42.6954
 0.4450	42.6148
 0.4440	42.5579
 0.4430	42.4931
 0.4420	42.4031
 0.4410	42.3106
 0.4400	42.2160
 0.4390	42.1101
 0.4380	42.0173
 0.4370	41.9077
 0.4360	41.7960
 0.4350	41.7018
 0.4340	41.5996
 0.4330	41.4789
 0.4320	41.3798
 0.4310	41.2766
 0.4300	41.1801
 0.4290	41.0877
 0.4280	41.0057
 0.4270	40.9076
 0.4260	40.8430
 0.4250	40.7649
 0.4240	40.6615
 0.4230	40.5742
 0.4220	40.4642
 0.4210	40.3753
 0.4200	40.2691
 0.4190	40.1544
 0.4180	40.0388
 0.4170	39.9153
 0.4160	39.8030
 0.4150	39.6985
 0.4140	39.5949
 0.4130	39.4860
 0.4120	39.3772
 0.4110	39.2854
 0.4100	39.1969
 0.4090	39.0778
 0.4080	38.9733
 0.4070	38.8659
 0.4060	38.7504
 0.4050	38.6157
 0.4040	38.4800
 0.4030	38.3649
 0.4020	38.2815
 0.4010	38.1707
 0.4000	38.0895
