Name: Alunite KAl_3(SO_4)_2(OH)_6
Type: Mineral
Class: Sulfate
Subclass: None
Particle Size: Medium
Sample No.: SO-4A
Owner: JPL
Wavelength Range: VSWIR
Origin: USA, Utah
Collection Date: N/A
Description: Particle size was 45-125um.Collected by Ward's Original ASTER Spectral Library name was jpl.beckman.mineral.sulfate.none.medium.so04a.spectrum.txt
Measurement: Hemispherical reflectance
First Column: X
Second Column: Y
X Units: Wavelength (micrometers)
Y Units:Reflectance (percent)
First X Value:  0.4000
Last X Value:  2.5000
Number of X Values: 826
Additional Information: mineral.sulfate.none.medium.vswir.so-4a.jpl.beckman.ancillary.txt

 0.4000	52.8800
 0.4010	53.3300
 0.4020	53.6800
 0.4030	53.5600
 0.4040	53.6200
 0.4050	53.9700
 0.4060	54.5400
 0.4070	54.5400
 0.4080	54.4900
 0.4090	54.6500
 0.4100	54.8800
 0.4110	55.3400
 0.4120	55.4000
 0.4130	55.4600
 0.4140	55.4600
 0.4150	55.7400
 0.4160	56.2500
 0.4170	56.3100
 0.4180	56.2500
 0.4190	56.1900
 0.4200	56.4200
 0.4210	56.8300
 0.4220	56.8900
 0.4230	56.7700
 0.4240	56.5400
 0.4250	57.0000
 0.4260	57.2900
 0.4270	57.2900
 0.4280	57.2300
 0.4290	57.0000
 0.4300	57.2900
 0.4310	57.7400
 0.4320	57.7400
 0.4330	57.7400
 0.4340	57.8600
 0.4350	58.3200
 0.4360	58.6100
 0.4370	58.5500
 0.4380	58.6100
 0.4390	58.5500
 0.4400	58.8400
 0.4410	59.1700
 0.4420	59.0600
 0.4430	59.0000
 0.4440	58.9400
 0.4450	59.4000
 0.4460	59.8100
 0.4470	59.6900
 0.4480	59.5800
 0.4490	59.5200
 0.4500	59.9200
 0.4510	60.2100
 0.4520	60.0400
 0.4530	59.9800
 0.4540	59.9200
 0.4550	60.2100
 0.4560	60.6100
 0.4570	60.6100
 0.4580	60.4500
 0.4590	60.2800
 0.4600	60.6700
 0.4610	60.7300
 0.4620	61.0700
 0.4630	61.2600
 0.4640	60.9100
 0.4650	61.0300
 0.4660	61.3700
 0.4670	61.5300
 0.4680	61.4300
 0.4690	61.2000
 0.4700	61.3700
 0.4710	61.5400
 0.4720	61.7200
 0.4730	61.5500
 0.4740	61.3800
 0.4750	61.5000
 0.4760	61.7300
 0.4770	62.0100
 0.4780	61.9600
 0.4790	61.8400
 0.4800	62.1300
 0.4810	62.5300
 0.4820	62.7100
 0.4830	62.5900
 0.4840	62.4200
 0.4850	62.5900
 0.4860	62.7700
 0.4870	63.2300
 0.4880	63.0600
 0.4890	62.7800
 0.4900	63.2400
 0.4910	63.4000
 0.4920	63.7400
 0.4930	63.5800
 0.4940	63.4700
 0.4950	63.8100
 0.4960	64.1600
 0.4970	64.2700
 0.4980	63.9900
 0.4990	63.9900
 0.5000	64.3300
 0.5010	64.6200
 0.5020	64.9100
 0.5030	64.3900
 0.5040	64.5000
 0.5050	64.7300
 0.5060	65.0800
 0.5070	65.0200
 0.5080	65.0200
 0.5090	65.2000
 0.5100	65.3700
 0.5110	65.8800
 0.5120	65.7600
 0.5130	65.5900
 0.5140	65.7600
 0.5150	66.0500
 0.5160	66.4000
 0.5170	66.5700
 0.5180	66.4000
 0.5190	66.5100
 0.5200	66.9100
 0.5210	67.1400
 0.5220	67.1400
 0.5230	67.0300
 0.5240	67.3100
 0.5250	67.6000
 0.5260	67.9400
 0.5270	67.9400
 0.5280	67.6000
 0.5290	67.8300
 0.5300	68.2900
 0.5310	68.6300
 0.5320	68.7500
 0.5330	68.4600
 0.5340	68.5800
 0.5350	68.8500
 0.5360	69.2600
 0.5370	69.3200
 0.5380	69.0900
 0.5390	69.2000
 0.5400	69.4900
 0.5410	69.9500
 0.5420	70.1200
 0.5430	69.7800
 0.5440	69.7800
 0.5450	70.1200
 0.5460	70.5700
 0.5470	70.7500
 0.5480	70.6900
 0.5490	70.6900
 0.5500	70.9800
 0.5510	71.4400
 0.5520	71.6700
 0.5530	71.3200
 0.5540	71.3200
 0.5550	71.7300
 0.5560	72.1800
 0.5570	71.9000
 0.5580	71.6100
 0.5590	71.9000
 0.5600	72.4100
 0.5610	72.7500
 0.5620	73.3300
 0.5630	73.2700
 0.5640	73.3300
 0.5650	73.2700
 0.5660	73.9000
 0.5670	74.1300
 0.5680	74.2400
 0.5690	74.1300
 0.5700	73.9500
 0.5710	74.3600
 0.5720	74.7000
 0.5730	74.8800
 0.5740	74.7600
 0.5750	74.7600
 0.5760	75.1600
 0.5770	75.4400
 0.5780	75.5000
 0.5790	75.6200
 0.5800	75.3900
 0.5810	75.7300
 0.5820	76.0800
 0.5830	76.0200
 0.5840	75.9000
 0.5850	75.8500
 0.5860	76.2500
 0.5870	76.6000
 0.5880	76.7100
 0.5890	76.6000
 0.5900	76.5400
 0.5910	77.0000
 0.5920	77.3300
 0.5930	77.3300
 0.5940	77.2800
 0.5950	77.0500
 0.5960	77.5700
 0.5970	77.8500
 0.5980	78.0300
 0.5990	77.8500
 0.6000	77.7400
 0.6010	78.2600
 0.6020	78.6600
 0.6030	78.7100
 0.6040	78.7100
 0.6050	78.3100
 0.6060	78.7100
 0.6070	79.3400
 0.6080	79.4600
 0.6090	79.3400
 0.6100	79.2800
 0.6110	79.5700
 0.6120	79.8600
 0.6130	80.3200
 0.6140	80.2600
 0.6150	79.9800
 0.6160	79.9800
 0.6170	80.2100
 0.6180	80.5400
 0.6190	80.4800
 0.6200	80.2100
 0.6210	80.1500
 0.6220	80.5400
 0.6230	80.8900
 0.6240	81.0000
 0.6250	80.8300
 0.6260	80.7200
 0.6270	80.9500
 0.6280	81.2300
 0.6290	81.5200
 0.6300	81.2900
 0.6310	81.1200
 0.6320	81.1800
 0.6330	81.4100
 0.6340	81.7500
 0.6350	81.5800
 0.6360	81.5200
 0.6370	81.5200
 0.6380	81.6400
 0.6390	81.8700
 0.6400	81.9300
 0.6410	81.7000
 0.6420	81.6400
 0.6430	81.9800
 0.6440	82.3800
 0.6450	82.4300
 0.6460	82.1500
 0.6470	81.9800
 0.6480	82.4300
 0.6490	82.6700
 0.6500	82.7200
 0.6510	82.6700
 0.6520	82.3800
 0.6530	82.8400
 0.6540	83.2400
 0.6550	83.3000
 0.6560	82.9500
 0.6570	82.6100
 0.6580	82.8400
 0.6590	83.2400
 0.6600	83.2400
 0.6610	83.2400
 0.6620	82.8400
 0.6630	83.3000
 0.6640	83.6900
 0.6650	83.7500
 0.6660	83.5300
 0.6670	83.3600
 0.6680	83.5900
 0.6690	83.7500
 0.6700	83.7500
 0.6710	83.8700
 0.6720	83.5300
 0.6730	83.7500
 0.6740	84.0400
 0.6750	84.2100
 0.6760	84.3300
 0.6770	83.9800
 0.6780	83.9800
 0.6790	84.1500
 0.6800	84.4400
 0.6810	84.3300
 0.6820	84.0400
 0.6830	84.1000
 0.6840	84.5000
 0.6850	84.7300
 0.6860	84.5600
 0.6870	84.5000
 0.6880	84.6100
 0.6890	85.0200
 0.6900	85.1900
 0.6910	85.1300
 0.6920	85.0200
 0.6930	84.6700
 0.6940	84.9000
 0.6950	85.2500
 0.6960	85.4100
 0.6970	85.1300
 0.6980	84.9600
 0.6990	85.1300
 0.7000	85.4100
 0.7010	85.2500
 0.7020	84.9000
 0.7030	85.2500
 0.7040	85.7000
 0.7050	85.4700
 0.7060	85.2500
 0.7070	85.0200
 0.7080	85.4100
 0.7090	85.7600
 0.7100	85.7000
 0.7110	85.5300
 0.7120	85.3100
 0.7130	85.5800
 0.7140	85.9300
 0.7150	85.8200
 0.7160	85.5300
 0.7170	85.5800
 0.7180	85.9300
 0.7190	85.9300
 0.7200	85.7600
 0.7210	85.5300
 0.7220	85.8200
 0.7230	86.2200
 0.7240	85.9900
 0.7250	85.6400
 0.7260	85.7000
 0.7270	86.1000
 0.7280	86.3900
 0.7290	86.1000
 0.7300	85.8200
 0.7310	85.8200
 0.7320	85.9900
 0.7330	86.2800
 0.7340	86.0500
 0.7350	85.7600
 0.7360	85.9300
 0.7370	86.1000
 0.7380	86.3900
 0.7390	86.0500
 0.7400	85.9300
 0.7410	86.3900
 0.7420	86.5600
 0.7430	86.5100
 0.7440	86.4500
 0.7450	86.0500
 0.7460	86.2800
 0.7470	86.3900
 0.7480	86.2800
 0.7490	86.1000
 0.7500	85.8700
 0.7510	86.2200
 0.7520	86.2800
 0.7530	86.0500
 0.7540	86.1000
 0.7550	85.8700
 0.7560	86.0500
 0.7570	86.3300
 0.7580	86.1600
 0.7590	85.8200
 0.7600	85.7000
 0.7610	86.1600
 0.7620	86.1600
 0.7630	86.1600
 0.7640	85.9300
 0.7650	86.0500
 0.7660	86.3900
 0.7670	86.3900
 0.7680	86.1000
 0.7690	86.1000
 0.7700	86.2800
 0.7710	86.5100
 0.7720	86.2800
 0.7730	85.9900
 0.7740	86.1600
 0.7750	86.2200
 0.7760	86.5600
 0.7770	86.2800
 0.7780	85.9900
 0.7790	86.3900
 0.7800	86.7900
 0.7810	86.5100
 0.7820	86.2800
 0.7830	85.9300
 0.7840	86.3900
 0.7850	86.6200
 0.7860	86.2800
 0.7870	86.2800
 0.7880	85.9900
 0.7890	86.3300
 0.7900	86.3300
 0.7910	86.2800
 0.7920	86.0500
 0.7930	85.9300
 0.7940	86.3900
 0.7950	86.3900
 0.7960	86.3300
 0.7970	86.1600
 0.7980	86.2200
 0.7990	85.8200
 0.8000	85.7800
 0.8040	85.6400
 0.8080	85.8700
 0.8120	85.7600
 0.8160	85.8200
 0.8200	85.6400
 0.8240	85.7000
 0.8280	85.7000
 0.8320	85.6400
 0.8360	85.5800
 0.8400	85.6400
 0.8440	85.6400
 0.8480	85.7600
 0.8520	85.7000
 0.8560	85.7600
 0.8600	85.8200
 0.8640	85.7000
 0.8680	85.5800
 0.8720	85.4700
 0.8760	85.5300
 0.8800	85.4700
 0.8840	85.3100
 0.8880	85.4100
 0.8920	85.3500
 0.8960	85.3100
 0.9000	85.2500
 0.9040	85.2500
 0.9080	85.3100
 0.9120	85.4100
 0.9160	85.4100
 0.9200	85.3500
 0.9240	85.5800
 0.9280	85.5300
 0.9320	85.5300
 0.9360	85.4100
 0.9400	85.5800
 0.9440	85.4700
 0.9480	85.5300
 0.9520	85.4700
 0.9560	85.5300
 0.9600	85.3100
 0.9640	85.1900
 0.9680	85.0800
 0.9720	84.7900
 0.9760	84.3300
 0.9800	84.2100
 0.9840	83.8100
 0.9880	83.6400
 0.9920	83.3000
 0.9960	83.1800
 1.0000	83.3000
 1.0040	83.5300
 1.0080	83.8100
 1.0120	84.4400
 1.0160	85.0200
 1.0200	85.5800
 1.0240	86.0500
 1.0280	86.3900
 1.0320	86.7400
 1.0360	86.7400
 1.0400	86.7900
 1.0440	86.9700
 1.0480	87.0700
 1.0520	86.9700
 1.0560	87.1300
 1.0600	87.1300
 1.0640	87.2500
 1.0680	87.1300
 1.0720	87.1900
 1.0760	87.3600
 1.0800	87.4800
 1.0840	87.3000
 1.0880	87.4800
 1.0920	87.3600
 1.0960	87.4200
 1.1000	87.2500
 1.1040	87.3600
 1.1080	87.4200
 1.1120	87.4800
 1.1160	87.5300
 1.1200	87.7600
 1.1240	88.0500
 1.1280	88.0500
 1.1320	87.9400
 1.1360	88.0500
 1.1400	88.1100
 1.1440	87.9400
 1.1480	87.9400
 1.1520	87.9400
 1.1560	87.9900
 1.1600	87.8000
 1.1640	87.9100
 1.1680	87.7800
 1.1720	87.7800
 1.1760	87.7200
 1.1800	87.6600
 1.1840	87.5900
 1.1880	87.3500
 1.1920	87.3500
 1.1960	87.2800
 1.2000	87.1100
 1.2040	86.7000
 1.2080	86.7000
 1.2120	86.3000
 1.2160	85.8400
 1.2200	85.3300
 1.2240	85.0400
 1.2280	84.5800
 1.2320	84.2500
 1.2360	83.7900
 1.2400	83.5500
 1.2440	83.3200
 1.2480	82.6400
 1.2520	81.7800
 1.2560	80.2900
 1.2600	79.1400
 1.2640	78.7200
 1.2680	79.5200
 1.2720	80.7800
 1.2760	82.2000
 1.2800	83.4500
 1.2840	84.8700
 1.2880	85.3200
 1.2920	85.6100
 1.2960	85.4200
 1.3000	85.5900
 1.3040	85.4000
 1.3080	84.8900
 1.3120	84.1400
 1.3160	83.5000
 1.3200	83.3800
 1.3240	82.6900
 1.3280	81.7100
 1.3320	80.6200
 1.3360	80.5000
 1.3400	80.5400
 1.3440	80.7600
 1.3480	80.5900
 1.3520	80.5900
 1.3560	80.7100
 1.3600	81.4500
 1.3640	81.9100
 1.3680	81.7300
 1.3720	81.2700
 1.3760	80.9800
 1.3800	80.8200
 1.3840	80.1900
 1.3880	79.5600
 1.3920	78.5400
 1.3960	77.3900
 1.4000	75.6700
 1.4040	73.9700
 1.4080	71.5700
 1.4120	67.5200
 1.4160	60.0400
 1.4200	52.5600
 1.4240	50.4000
 1.4280	53.8900
 1.4320	58.3500
 1.4360	61.2700
 1.4400	61.5000
 1.4440	60.2500
 1.4480	58.2000
 1.4520	56.5400
 1.4560	55.5100
 1.4600	54.4300
 1.4640	51.3400
 1.4680	45.7300
 1.4720	41.6700
 1.4760	43.7900
 1.4800	50.9400
 1.4840	57.4600
 1.4880	60.8900
 1.4920	62.3200
 1.4960	63.6900
 1.5000	65.3400
 1.5040	67.1200
 1.5080	68.5500
 1.5120	69.3500
 1.5160	70.0900
 1.5200	70.4900
 1.5240	70.6600
 1.5280	70.7200
 1.5320	71.0700
 1.5360	71.2400
 1.5400	71.4000
 1.5440	71.4000
 1.5480	71.5800
 1.5520	71.5800
 1.5560	71.6900
 1.5600	71.4000
 1.5640	71.5200
 1.5680	71.3500
 1.5720	71.3500
 1.5760	71.1800
 1.5800	71.1800
 1.5840	71.0700
 1.5880	71.0700
 1.5920	70.8900
 1.5960	70.8900
 1.6000	70.7800
 1.6040	70.9400
 1.6080	70.8200
 1.6120	70.8200
 1.6160	70.7600
 1.6200	70.6900
 1.6240	70.6200
 1.6280	70.3400
 1.6320	70.3900
 1.6360	70.2100
 1.6400	70.1000
 1.6440	69.8000
 1.6480	69.6800
 1.6520	69.5100
 1.6560	69.2100
 1.6600	68.9800
 1.6640	68.6300
 1.6680	68.3400
 1.6720	68.1100
 1.6760	67.7600
 1.6800	67.4100
 1.6840	67.1200
 1.6880	66.8300
 1.6920	66.6000
 1.6960	66.1900
 1.7000	65.9500
 1.7040	65.5000
 1.7080	65.0400
 1.7120	64.2400
 1.7160	63.4500
 1.7200	62.3600
 1.7240	61.2200
 1.7280	59.8000
 1.7320	58.5400
 1.7360	56.9400
 1.7400	55.5700
 1.7440	54.0300
 1.7480	53.0600
 1.7520	52.2000
 1.7560	51.4600
 1.7600	51.1800
 1.7640	51.4600
 1.7680	52.3200
 1.7720	53.6900
 1.7760	55.1700
 1.7800	57.2200
 1.7840	59.2800
 1.7880	61.1000
 1.7920	62.4200
 1.7960	63.4500
 1.8000	63.9600
 1.8040	64.3400
 1.8080	64.4900
 1.8120	64.5800
 1.8160	64.5000
 1.8200	64.4200
 1.8240	64.3000
 1.8280	64.2200
 1.8320	63.9600
 1.8360	63.8300
 1.8400	63.5300
 1.8440	63.3900
 1.8480	63.1500
 1.8520	62.9700
 1.8560	62.6100
 1.8600	62.2700
 1.8640	61.7500
 1.8680	61.1800
 1.8720	60.6600
 1.8760	60.0900
 1.8800	59.3500
 1.8840	58.6100
 1.8880	57.9700
 1.8920	57.1200
 1.8960	56.3200
 1.9000	55.2400
 1.9040	54.4900
 1.9080	53.6300
 1.9120	52.9500
 1.9160	52.1500
 1.9200	51.5800
 1.9240	51.1700
 1.9280	50.7800
 1.9320	50.3800
 1.9360	50.0300
 1.9400	49.8000
 1.9440	49.2800
 1.9480	49.1100
 1.9520	48.9400
 1.9560	48.7500
 1.9600	48.5700
 1.9640	48.6200
 1.9680	48.6000
 1.9720	48.6500
 1.9760	48.2900
 1.9800	48.1200
 1.9840	47.6600
 1.9880	47.1300
 1.9920	46.3900
 1.9960	45.9700
 2.0000	45.5700
 2.0040	45.3000
 2.0080	44.9800
 2.0120	44.8500
 2.0160	44.7700
 2.0200	44.7500
 2.0240	44.6000
 2.0280	44.4000
 2.0320	44.1500
 2.0360	43.8400
 2.0400	43.4900
 2.0440	43.1800
 2.0480	42.9700
 2.0520	42.6700
 2.0560	42.5300
 2.0600	42.4100
 2.0640	42.3900
 2.0680	42.2600
 2.0720	42.2400
 2.0760	42.1200
 2.0800	41.9200
 2.0840	41.3500
 2.0880	40.8300
 2.0920	39.9700
 2.0960	39.0100
 2.1000	37.6000
 2.1040	36.1900
 2.1080	34.5600
 2.1120	32.8700
 2.1160	31.0800
 2.1200	29.5600
 2.1240	28.0900
 2.1280	26.7900
 2.1320	25.5000
 2.1360	24.3900
 2.1400	23.4400
 2.1440	22.5700
 2.1480	21.8500
 2.1520	21.4200
 2.1560	21.1000
 2.1600	21.0000
 2.1640	21.0900
 2.1680	21.3900
 2.1720	21.8700
 2.1760	22.7400
 2.1800	23.8900
 2.1840	24.9200
 2.1880	25.9400
 2.1920	26.8100
 2.1960	27.6800
 2.2000	28.5500
 2.2040	29.9000
 2.2080	31.8100
 2.2120	34.4100
 2.2160	37.1300
 2.2200	39.9000
 2.2240	42.4500
 2.2280	44.5300
 2.2320	45.9900
 2.2360	47.0300
 2.2400	47.6900
 2.2440	48.0900
 2.2480	48.3100
 2.2520	48.4100
 2.2560	48.4500
 2.2600	48.2600
 2.2640	48.1500
 2.2680	48.0400
 2.2720	47.8000
 2.2760	47.2200
 2.2800	46.7500
 2.2840	45.7800
 2.2880	44.4600
 2.2920	42.8100
 2.2960	40.9800
 2.3000	39.1500
 2.3040	37.9600
 2.3080	35.9300
 2.3120	35.0800
 2.3160	34.7900
 2.3200	35.0500
 2.3240	35.8600
 2.3280	36.8400
 2.3320	37.9800
 2.3360	39.0600
 2.3400	39.9700
 2.3440	40.4600
 2.3480	40.6600
 2.3520	40.5300
 2.3560	39.9600
 2.3600	38.8900
 2.3640	37.6000
 2.3680	35.9700
 2.3720	34.0200
 2.3760	32.0200
 2.3800	30.1300
 2.3840	28.5700
 2.3880	27.0000
 2.3920	25.9500
 2.3960	24.8900
 2.4000	24.0000
 2.4040	23.1700
 2.4080	22.4500
 2.4120	21.7800
 2.4160	21.0600
 2.4200	20.5600
 2.4240	20.1100
 2.4280	20.0000
 2.4320	19.7800
 2.4360	19.6700
 2.4400	19.6100
 2.4440	19.6100
 2.4480	19.4900
 2.4520	19.4900
 2.4560	19.3800
 2.4600	19.3800
 2.4640	19.2100
 2.4680	19.0400
 2.4720	18.7100
 2.4760	18.3700
 2.4800	17.7700
 2.4840	17.3200
 2.4880	16.6500
 2.4920	16.1500
 2.4960	15.7100
 2.5000	15.3800
