Name: Mimetite Pb_5(AsO_4)_3Cl
Type: Mineral
Class: Arsenate
Subclass: None
Particle Size: Medium
Sample No.: A-1A
Owner: JPL
Wavelength Range: VSWIR
Origin: Mexico, Chihuahua, Ingla Tierra Mine.
Collection Date: N/A
Description: Particle size was 45-125um.Collected by:  JPL Original ASTER Spectral Library name was jpl.perkin.mineral.arsenate.none.medium.a01a.spectrum.txt
Measurement: Hemispherical reflectance
First Column: X
Second Column: Y
X Units: Wavelength (micrometers)
Y Units:Reflectance (percent)
First X Value:  2.5000
Last X Value:  0.4000
Number of X Values: 2101
Additional Information: mineral.arsenate.none.medium.vswir.a-1a.jpl.perkin.ancillary.txt

 2.5000	76.1501
 2.4990	76.0659
 2.4980	76.0463
 2.4970	76.1416
 2.4960	75.9166
 2.4950	75.9914
 2.4940	76.1333
 2.4930	76.0062
 2.4920	76.0414
 2.4910	76.0926
 2.4900	75.8374
 2.4890	76.1101
 2.4880	76.0584
 2.4870	76.0257
 2.4860	76.0583
 2.4850	76.2296
 2.4840	76.2016
 2.4830	76.2505
 2.4820	76.0996
 2.4810	76.1840
 2.4800	76.1931
 2.4790	76.2851
 2.4780	76.2955
 2.4770	76.2852
 2.4760	76.4691
 2.4750	76.4423
 2.4740	76.2941
 2.4730	76.3678
 2.4720	76.4038
 2.4710	76.4163
 2.4700	76.4432
 2.4690	76.5648
 2.4680	76.4252
 2.4670	76.5223
 2.4660	76.5555
 2.4650	76.7643
 2.4640	76.8166
 2.4630	76.6605
 2.4620	76.6797
 2.4610	76.7311
 2.4600	76.6173
 2.4590	76.6999
 2.4580	76.6565
 2.4570	76.8327
 2.4560	76.8746
 2.4550	76.7487
 2.4540	76.8748
 2.4530	76.7982
 2.4520	76.7454
 2.4510	76.7471
 2.4500	76.6734
 2.4490	76.7674
 2.4480	76.8110
 2.4470	76.7946
 2.4460	76.8268
 2.4450	76.8339
 2.4440	76.8587
 2.4430	76.9067
 2.4420	76.8137
 2.4410	76.9493
 2.4400	76.9673
 2.4390	76.9468
 2.4380	77.0087
 2.4370	77.0145
 2.4360	76.9504
 2.4350	76.9965
 2.4340	77.0139
 2.4330	76.9589
 2.4320	76.9643
 2.4310	77.0477
 2.4300	76.9901
 2.4290	77.0666
 2.4280	76.9314
 2.4270	77.0772
 2.4260	77.0547
 2.4250	77.1705
 2.4240	77.1913
 2.4230	77.1623
 2.4220	77.1861
 2.4210	77.1931
 2.4200	77.3145
 2.4190	77.3604
 2.4180	77.2960
 2.4170	77.2712
 2.4160	77.2934
 2.4150	77.3126
 2.4140	77.2530
 2.4130	77.2538
 2.4120	77.3359
 2.4110	77.4374
 2.4100	77.4246
 2.4090	77.3732
 2.4080	77.4130
 2.4070	77.4895
 2.4060	77.4178
 2.4050	77.4245
 2.4040	77.4207
 2.4030	77.4590
 2.4020	77.4964
 2.4010	77.5361
 2.4000	77.5566
 2.3990	77.6076
 2.3980	77.5863
 2.3970	77.6569
 2.3960	77.6222
 2.3950	77.7183
 2.3940	77.7501
 2.3930	77.7606
 2.3920	77.7173
 2.3910	77.8009
 2.3900	77.8512
 2.3890	77.8416
 2.3880	77.8604
 2.3870	77.9512
 2.3860	77.9908
 2.3850	77.9616
 2.3840	77.9084
 2.3830	77.9094
 2.3820	77.9622
 2.3810	78.0815
 2.3800	78.0817
 2.3790	78.0699
 2.3780	78.0118
 2.3770	77.9948
 2.3760	78.1053
 2.3750	78.2067
 2.3740	78.1965
 2.3730	78.1785
 2.3720	78.2237
 2.3710	78.2152
 2.3700	78.2365
 2.3690	78.2950
 2.3680	78.3162
 2.3670	78.3559
 2.3660	78.3156
 2.3650	78.2465
 2.3640	78.2016
 2.3630	78.2581
 2.3620	78.2862
 2.3610	78.2785
 2.3600	78.2826
 2.3590	78.2238
 2.3580	78.2130
 2.3570	78.2657
 2.3560	78.3135
 2.3550	78.2989
 2.3540	78.3293
 2.3530	78.3414
 2.3520	78.3090
 2.3510	78.2947
 2.3500	78.3243
 2.3490	78.3239
 2.3480	78.2863
 2.3470	78.2896
 2.3460	78.2491
 2.3450	78.2297
 2.3440	78.2159
 2.3430	78.2342
 2.3420	78.2232
 2.3410	78.1509
 2.3400	78.1403
 2.3390	78.1803
 2.3380	78.1576
 2.3370	78.1038
 2.3360	78.0672
 2.3350	78.0439
 2.3340	78.0708
 2.3330	78.0881
 2.3320	78.0614
 2.3310	78.0499
 2.3300	78.0852
 2.3290	78.0787
 2.3280	78.0697
 2.3270	78.0657
 2.3260	78.0811
 2.3250	78.0866
 2.3240	78.0730
 2.3230	78.1528
 2.3220	78.1923
 2.3210	78.1474
 2.3200	78.0928
 2.3190	78.1428
 2.3180	78.2028
 2.3170	78.2171
 2.3160	78.1928
 2.3150	78.2328
 2.3140	78.2750
 2.3130	78.2908
 2.3120	78.2947
 2.3110	78.3112
 2.3100	78.3720
 2.3090	78.4194
 2.3080	78.4015
 2.3070	78.3615
 2.3060	78.4255
 2.3050	78.4326
 2.3040	78.4883
 2.3030	78.4920
 2.3020	78.5942
 2.3010	78.5646
 2.3000	78.5466
 2.2990	78.5342
 2.2980	78.5495
 2.2970	78.4617
 2.2960	78.5679
 2.2950	78.6024
 2.2940	78.5906
 2.2930	78.5982
 2.2920	78.5324
 2.2910	78.5419
 2.2900	78.6184
 2.2890	78.6465
 2.2880	78.5910
 2.2870	78.6136
 2.2860	78.6549
 2.2850	78.5318
 2.2840	78.5357
 2.2830	78.5160
 2.2820	78.5161
 2.2810	78.4638
 2.2800	78.4659
 2.2790	78.5209
 2.2780	78.4088
 2.2770	78.3544
 2.2760	78.3751
 2.2750	78.3864
 2.2740	78.3609
 2.2730	78.3345
 2.2720	78.3035
 2.2710	78.3302
 2.2700	78.2578
 2.2690	78.2759
 2.2680	78.2453
 2.2670	78.3264
 2.2660	78.2625
 2.2650	78.3151
 2.2640	78.3095
 2.2630	78.3019
 2.2620	78.2892
 2.2610	78.2630
 2.2600	78.3946
 2.2590	78.3683
 2.2580	78.4310
 2.2570	78.4823
 2.2560	78.4728
 2.2550	78.4424
 2.2540	78.4727
 2.2530	78.5682
 2.2520	78.7308
 2.2510	78.6692
 2.2500	78.6749
 2.2490	78.7474
 2.2480	78.7820
 2.2470	78.7130
 2.2460	78.7826
 2.2450	78.8199
 2.2440	78.8257
 2.2430	78.8833
 2.2420	78.8377
 2.2410	78.8511
 2.2400	79.0262
 2.2390	79.0214
 2.2380	78.9364
 2.2370	78.8892
 2.2360	79.0453
 2.2350	79.0779
 2.2340	78.9657
 2.2330	79.0133
 2.2320	79.0974
 2.2310	79.1157
 2.2300	79.1569
 2.2290	79.1114
 2.2280	79.1377
 2.2270	79.2333
 2.2260	79.1731
 2.2250	79.1988
 2.2240	79.2465
 2.2230	79.1921
 2.2220	79.2954
 2.2210	79.2935
 2.2200	79.2576
 2.2190	79.2934
 2.2180	79.3878
 2.2170	79.3027
 2.2160	79.3557
 2.2150	79.4698
 2.2140	79.4339
 2.2130	79.4104
 2.2120	79.5392
 2.2110	79.4459
 2.2100	79.5074
 2.2090	79.5309
 2.2080	79.5730
 2.2070	79.5718
 2.2060	79.5861
 2.2050	79.5851
 2.2040	79.0025
 2.2030	79.7457
 2.2020	79.6564
 2.2010	79.8336
 2.2000	79.7761
 2.1990	79.7265
 2.1980	79.8133
 2.1970	79.8164
 2.1960	79.8328
 2.1950	79.8125
 2.1940	79.8809
 2.1930	79.8472
 2.1920	79.8926
 2.1910	79.9064
 2.1900	79.8705
 2.1890	79.8464
 2.1880	79.9153
 2.1870	79.8967
 2.1860	79.8967
 2.1850	80.0210
 2.1840	80.0177
 2.1830	80.0225
 2.1820	80.0511
 2.1810	80.0361
 2.1800	80.0411
 2.1790	80.1039
 2.1780	80.2220
 2.1770	80.1051
 2.1760	80.1804
 2.1750	80.1603
 2.1740	80.1700
 2.1730	80.2710
 2.1720	80.2989
 2.1710	80.3257
 2.1700	80.2583
 2.1690	80.3390
 2.1680	80.4331
 2.1670	80.4861
 2.1660	80.4626
 2.1650	80.4299
 2.1640	80.4232
 2.1630	80.5392
 2.1620	80.5386
 2.1610	80.5066
 2.1600	80.6103
 2.1590	80.6453
 2.1580	80.7127
 2.1570	80.6960
 2.1560	80.7178
 2.1550	80.7450
 2.1540	80.7145
 2.1530	80.7668
 2.1520	80.7832
 2.1510	80.8635
 2.1500	80.8137
 2.1490	80.7820
 2.1480	80.7409
 2.1470	80.8575
 2.1460	80.8565
 2.1450	80.7781
 2.1440	80.8650
 2.1430	80.8631
 2.1420	80.8057
 2.1410	80.7753
 2.1400	80.7593
 2.1390	80.8037
 2.1380	80.8016
 2.1370	80.7251
 2.1360	80.7661
 2.1350	80.8061
 2.1340	80.7115
 2.1330	80.6881
 2.1320	80.6817
 2.1310	80.6880
 2.1300	80.7340
 2.1290	80.6016
 2.1280	80.6574
 2.1270	80.6635
 2.1260	80.5934
 2.1250	80.4909
 2.1240	80.4395
 2.1230	80.4054
 2.1220	80.3266
 2.1210	80.3329
 2.1200	80.2430
 2.1190	80.1368
 2.1180	80.1979
 2.1170	80.1601
 2.1160	80.1384
 2.1150	80.0644
 2.1140	80.0615
 2.1130	80.0034
 2.1120	79.8810
 2.1110	79.8605
 2.1100	79.8366
 2.1090	79.7713
 2.1080	79.7370
 2.1070	79.7417
 2.1060	79.7663
 2.1050	79.6792
 2.1040	79.6189
 2.1030	79.5994
 2.1020	79.5975
 2.1010	79.5333
 2.1000	79.5315
 2.0990	79.5367
 2.0980	79.4948
 2.0970	79.5302
 2.0960	79.5751
 2.0950	79.5790
 2.0940	79.5932
 2.0930	79.5784
 2.0920	79.6053
 2.0910	79.6452
 2.0900	79.6247
 2.0890	79.6332
 2.0880	79.6227
 2.0870	79.6524
 2.0860	79.6982
 2.0850	79.7100
 2.0840	79.7348
 2.0830	79.7273
 2.0820	79.7433
 2.0810	79.7872
 2.0800	79.7831
 2.0790	79.7444
 2.0780	79.7482
 2.0770	79.8253
 2.0760	79.8265
 2.0750	79.7801
 2.0740	79.7414
 2.0730	79.7769
 2.0720	79.8905
 2.0710	79.8937
 2.0700	79.8788
 2.0690	79.8974
 2.0680	79.8598
 2.0670	79.8673
 2.0660	79.8864
 2.0650	79.9431
 2.0640	79.9516
 2.0630	79.9194
 2.0620	79.9174
 2.0610	79.9635
 2.0600	79.9951
 2.0590	80.0265
 2.0580	80.0419
 2.0570	80.0627
 2.0560	80.0474
 2.0550	80.0629
 2.0540	80.1269
 2.0530	80.1006
 2.0520	80.0759
 2.0510	80.1089
 2.0500	80.1233
 2.0490	80.1134
 2.0480	80.1667
 2.0470	80.1935
 2.0460	80.1265
 2.0450	80.1952
 2.0440	80.2589
 2.0430	80.2361
 2.0420	80.2088
 2.0410	80.1973
 2.0400	80.2109
 2.0390	80.2111
 2.0380	80.2065
 2.0370	80.2155
 2.0360	80.1745
 2.0350	80.2003
 2.0340	80.1949
 2.0330	80.1788
 2.0320	80.1407
 2.0310	80.2044
 2.0300	80.3019
 2.0290	80.2866
 2.0280	80.2005
 2.0270	80.2007
 2.0260	80.2788
 2.0250	80.2245
 2.0240	80.2189
 2.0230	80.2276
 2.0220	80.2922
 2.0210	80.2283
 2.0200	80.2631
 2.0190	80.2897
 2.0180	80.2573
 2.0170	80.2908
 2.0160	80.2228
 2.0150	80.2581
 2.0140	80.2722
 2.0130	80.3687
 2.0120	80.3633
 2.0110	80.3475
 2.0100	80.3036
 2.0090	80.2841
 2.0080	80.2914
 2.0070	80.2835
 2.0060	80.2848
 2.0050	80.3411
 2.0040	80.3150
 2.0030	80.3406
 2.0020	80.2948
 2.0010	80.3086
 2.0000	80.2384
 1.9990	80.2923
 1.9980	80.3502
 1.9970	80.3869
 1.9960	80.3274
 1.9950	80.2713
 1.9940	80.2237
 1.9930	80.2621
 1.9920	80.1640
 1.9910	80.2219
 1.9900	80.2937
 1.9890	80.3031
 1.9880	80.2513
 1.9870	80.2831
 1.9860	80.2166
 1.9850	80.2334
 1.9840	80.2161
 1.9830	80.2332
 1.9820	80.2317
 1.9810	80.2556
 1.9800	80.2213
 1.9790	80.1322
 1.9780	80.1080
 1.9770	80.1937
 1.9760	80.1775
 1.9750	80.2333
 1.9740	80.1594
 1.9730	80.2346
 1.9720	80.1482
 1.9710	80.1179
 1.9700	80.1608
 1.9690	80.1792
 1.9680	80.1318
 1.9670	80.2134
 1.9660	80.1662
 1.9650	80.0878
 1.9640	80.1467
 1.9630	80.2432
 1.9620	80.1320
 1.9610	80.1632
 1.9600	80.1687
 1.9590	80.2352
 1.9580	80.1839
 1.9570	80.2188
 1.9560	80.2171
 1.9550	80.2486
 1.9540	80.2631
 1.9530	80.2984
 1.9520	80.1841
 1.9510	80.1829
 1.9500	80.2862
 1.9490	80.2779
 1.9480	80.2725
 1.9470	80.2631
 1.9460	80.2337
 1.9450	80.2802
 1.9440	80.3685
 1.9430	80.3933
 1.9420	80.3713
 1.9410	80.3513
 1.9400	80.5292
 1.9390	80.5103
 1.9380	80.4414
 1.9370	80.5385
 1.9360	80.4422
 1.9350	80.5923
 1.9340	80.5420
 1.9330	80.6000
 1.9320	80.5269
 1.9310	80.6913
 1.9300	80.7100
 1.9290	80.6863
 1.9280	80.6578
 1.9270	80.7486
 1.9260	80.7754
 1.9250	80.8282
 1.9240	80.7897
 1.9230	80.8955
 1.9220	80.8965
 1.9210	80.9677
 1.9200	80.9182
 1.9190	80.9421
 1.9180	81.0409
 1.9170	81.0927
 1.9160	81.0815
 1.9150	81.0740
 1.9140	81.1203
 1.9130	81.1770
 1.9120	81.2314
 1.9110	81.3437
 1.9100	81.3423
 1.9090	81.3914
 1.9080	81.3952
 1.9070	81.4680
 1.9060	81.4024
 1.9050	81.4753
 1.9040	81.5392
 1.9030	81.6262
 1.9020	81.6412
 1.9010	81.6547
 1.9000	81.6174
 1.8990	81.7626
 1.8980	81.8062
 1.8970	81.8593
 1.8960	81.9154
 1.8950	81.9659
 1.8940	81.9807
 1.8930	82.0742
 1.8920	82.0193
 1.8910	82.1272
 1.8900	82.2316
 1.8890	82.2047
 1.8880	82.2262
 1.8870	82.2540
 1.8860	82.3094
 1.8850	82.3597
 1.8840	82.4375
 1.8830	82.4511
 1.8820	82.4295
 1.8810	82.4333
 1.8800	82.4975
 1.8790	82.5241
 1.8780	82.5313
 1.8770	82.6752
 1.8760	82.5517
 1.8750	82.6393
 1.8740	82.6899
 1.8730	82.7425
 1.8720	82.7400
 1.8710	82.7666
 1.8700	82.8005
 1.8690	82.8422
 1.8680	82.8772
 1.8670	82.8928
 1.8660	82.8970
 1.8650	82.9188
 1.8640	82.9658
 1.8630	82.9947
 1.8620	83.0027
 1.8610	82.9807
 1.8600	83.0102
 1.8590	83.1362
 1.8580	83.0757
 1.8570	83.0766
 1.8560	83.1422
 1.8550	83.1841
 1.8540	83.2275
 1.8530	83.1933
 1.8520	83.1701
 1.8510	83.1674
 1.8500	83.2062
 1.8490	83.2655
 1.8480	83.2641
 1.8470	83.2983
 1.8460	83.2841
 1.8450	83.3396
 1.8440	83.3508
 1.8430	83.3596
 1.8420	83.3837
 1.8410	83.4619
 1.8400	83.3820
 1.8390	83.3793
 1.8380	83.3451
 1.8370	83.4070
 1.8360	83.4826
 1.8350	83.5169
 1.8340	83.5595
 1.8330	83.5606
 1.8320	83.5191
 1.8310	83.5451
 1.8300	83.5783
 1.8290	83.6328
 1.8280	83.5817
 1.8270	83.5581
 1.8260	83.5893
 1.8250	83.6882
 1.8240	83.6326
 1.8230	83.6850
 1.8220	83.7072
 1.8210	83.6759
 1.8200	83.8116
 1.8190	83.7602
 1.8180	83.7022
 1.8170	83.7410
 1.8160	83.7694
 1.8150	83.8206
 1.8140	83.8621
 1.8130	83.8627
 1.8120	83.8740
 1.8110	83.8870
 1.8100	83.9513
 1.8090	83.9557
 1.8080	83.9546
 1.8070	83.9426
 1.8060	84.0169
 1.8050	84.0237
 1.8040	84.0002
 1.8030	84.0099
 1.8020	84.0603
 1.8010	84.0702
 1.8000	84.0354
 1.7990	84.0625
 1.7980	84.1016
 1.7970	84.0735
 1.7960	84.1016
 1.7950	84.1450
 1.7940	84.1922
 1.7930	84.1626
 1.7920	84.0984
 1.7910	84.1446
 1.7900	84.2208
 1.7890	84.2474
 1.7880	84.2180
 1.7870	84.2224
 1.7860	84.2576
 1.7850	84.2381
 1.7840	84.2349
 1.7830	84.2596
 1.7820	84.2826
 1.7810	84.2690
 1.7800	84.3440
 1.7790	84.3691
 1.7780	84.2885
 1.7770	84.3093
 1.7760	84.4057
 1.7750	84.4166
 1.7740	84.3910
 1.7730	84.3571
 1.7720	84.3227
 1.7710	84.3953
 1.7700	84.4178
 1.7690	84.4218
 1.7680	84.4863
 1.7670	84.4803
 1.7660	84.4526
 1.7650	84.4741
 1.7640	84.5606
 1.7630	84.5858
 1.7620	84.5309
 1.7610	84.5452
 1.7600	84.6268
 1.7590	84.6931
 1.7580	84.7321
 1.7570	84.6613
 1.7560	84.6651
 1.7550	84.7211
 1.7540	84.7142
 1.7530	84.6796
 1.7520	84.6833
 1.7510	84.7336
 1.7500	84.7986
 1.7490	84.8579
 1.7480	84.7617
 1.7470	84.7147
 1.7460	84.8326
 1.7450	84.9054
 1.7440	85.3552
 1.7430	85.1080
 1.7420	84.9013
 1.7410	84.9856
 1.7400	85.0320
 1.7390	85.0074
 1.7380	85.0102
 1.7370	85.0281
 1.7360	85.0689
 1.7350	85.0453
 1.7340	85.0471
 1.7330	85.0869
 1.7320	85.1202
 1.7310	85.0881
 1.7300	85.1154
 1.7290	85.1869
 1.7280	85.1955
 1.7270	85.1861
 1.7260	85.2460
 1.7250	85.2405
 1.7240	85.2114
 1.7230	85.2710
 1.7220	85.2290
 1.7210	85.2941
 1.7200	85.2603
 1.7190	85.3678
 1.7180	85.3380
 1.7170	85.3425
 1.7160	85.4060
 1.7150	85.4045
 1.7140	85.4352
 1.7130	85.2869
 1.7120	85.3791
 1.7110	85.3990
 1.7100	85.4588
 1.7090	85.4381
 1.7080	85.4669
 1.7070	85.5050
 1.7060	85.4725
 1.7050	85.4273
 1.7040	85.4731
 1.7030	85.4467
 1.7020	85.4774
 1.7010	85.5393
 1.7000	85.4589
 1.6990	85.5301
 1.6980	85.5204
 1.6970	85.5798
 1.6960	85.6382
 1.6950	85.5445
 1.6940	85.6265
 1.6930	85.5540
 1.6920	85.6136
 1.6910	85.6051
 1.6900	85.6207
 1.6890	85.6696
 1.6880	85.6290
 1.6870	85.6371
 1.6860	85.7237
 1.6850	85.7043
 1.6840	85.7327
 1.6830	85.6288
 1.6820	85.7344
 1.6810	85.7429
 1.6800	85.7453
 1.6790	85.7004
 1.6780	85.7894
 1.6770	85.8039
 1.6760	85.8099
 1.6750	85.8092
 1.6740	85.7688
 1.6730	85.8044
 1.6720	85.8264
 1.6710	85.8697
 1.6700	85.8977
 1.6690	86.0163
 1.6680	85.9109
 1.6670	85.9655
 1.6660	85.9941
 1.6650	85.8522
 1.6640	86.0219
 1.6630	85.9751
 1.6620	86.0211
 1.6610	86.0446
 1.6600	85.9419
 1.6590	85.9656
 1.6580	85.9486
 1.6570	85.9941
 1.6560	86.0469
 1.6550	86.1247
 1.6540	86.0763
 1.6530	86.0098
 1.6520	86.1031
 1.6510	86.1025
 1.6500	86.1381
 1.6490	86.2467
 1.6480	86.2231
 1.6470	86.1540
 1.6460	86.2161
 1.6450	86.1498
 1.6440	86.1378
 1.6430	86.1334
 1.6420	86.2514
 1.6410	86.1787
 1.6400	86.2893
 1.6390	86.2075
 1.6380	86.2252
 1.6370	86.3003
 1.6360	86.2873
 1.6350	86.2801
 1.6340	86.3061
 1.6330	86.2884
 1.6320	86.2515
 1.6310	86.3811
 1.6300	86.3540
 1.6290	86.3370
 1.6280	86.4336
 1.6270	86.3550
 1.6260	86.4070
 1.6250	86.3979
 1.6240	86.4467
 1.6230	86.4968
 1.6220	86.5950
 1.6210	86.4570
 1.6200	86.4248
 1.6190	86.5335
 1.6180	86.5110
 1.6170	86.5515
 1.6160	86.5934
 1.6150	86.6238
 1.6140	86.5559
 1.6130	86.5344
 1.6120	86.5990
 1.6110	86.6191
 1.6100	86.6425
 1.6090	86.6534
 1.6080	86.6576
 1.6070	86.6577
 1.6060	86.6622
 1.6050	86.7579
 1.6040	86.6812
 1.6030	86.7429
 1.6020	86.7699
 1.6010	86.7339
 1.6000	86.7823
 1.5990	86.8022
 1.5980	86.8050
 1.5970	86.7113
 1.5960	86.8046
 1.5950	86.8771
 1.5940	86.8004
 1.5930	86.8645
 1.5920	86.8044
 1.5910	86.8464
 1.5900	86.9270
 1.5890	86.8941
 1.5880	86.8474
 1.5870	86.8915
 1.5860	86.8842
 1.5850	86.8631
 1.5840	86.8609
 1.5830	86.8476
 1.5820	86.8954
 1.5810	86.9246
 1.5800	86.8726
 1.5790	86.9054
 1.5780	86.9338
 1.5770	86.9060
 1.5760	86.9296
 1.5750	86.9023
 1.5740	86.9858
 1.5730	86.9730
 1.5720	86.8958
 1.5710	86.9466
 1.5700	87.0131
 1.5690	87.0056
 1.5680	86.9708
 1.5670	87.0431
 1.5660	87.0909
 1.5650	86.9911
 1.5640	87.0087
 1.5630	86.9769
 1.5620	87.0372
 1.5610	87.0232
 1.5600	87.0811
 1.5590	87.0559
 1.5580	87.1029
 1.5570	87.1115
 1.5560	87.0530
 1.5550	87.0917
 1.5540	87.1457
 1.5530	87.0897
 1.5520	87.1099
 1.5510	87.1056
 1.5500	87.1020
 1.5490	87.1477
 1.5480	87.1413
 1.5470	87.1220
 1.5460	87.1080
 1.5450	87.1444
 1.5440	87.1417
 1.5430	87.1618
 1.5420	87.1487
 1.5410	87.1182
 1.5400	87.1003
 1.5390	87.2238
 1.5380	87.2574
 1.5370	87.2121
 1.5360	87.2023
 1.5350	87.1471
 1.5340	87.1402
 1.5330	87.1957
 1.5320	87.2340
 1.5310	87.2622
 1.5300	87.2484
 1.5290	87.1732
 1.5280	87.1665
 1.5270	87.2525
 1.5260	87.2724
 1.5250	87.2615
 1.5240	87.2766
 1.5230	87.2920
 1.5220	87.2673
 1.5210	87.2835
 1.5200	87.2878
 1.5190	87.3170
 1.5180	87.2604
 1.5170	87.2544
 1.5160	87.2904
 1.5150	87.2805
 1.5140	87.2943
 1.5130	87.3180
 1.5120	87.3085
 1.5110	87.2876
 1.5100	87.3407
 1.5090	87.3336
 1.5080	87.3093
 1.5070	87.2648
 1.5060	87.2832
 1.5050	87.3602
 1.5040	87.3139
 1.5030	87.3299
 1.5020	87.3903
 1.5010	87.3223
 1.5000	87.3124
 1.4990	87.3348
 1.4980	87.3289
 1.4970	87.3324
 1.4960	87.3590
 1.4950	87.3312
 1.4940	87.3396
 1.4930	87.3806
 1.4920	87.3514
 1.4910	87.3243
 1.4900	87.3224
 1.4890	87.3311
 1.4880	87.3705
 1.4870	87.3561
 1.4860	87.3023
 1.4850	87.3473
 1.4840	87.3770
 1.4830	87.4065
 1.4820	87.4050
 1.4810	87.3529
 1.4800	87.3851
 1.4790	87.3575
 1.4780	87.3946
 1.4770	87.4481
 1.4760	87.3269
 1.4750	87.3581
 1.4740	87.3829
 1.4730	87.3303
 1.4720	87.3586
 1.4710	87.3864
 1.4700	87.3265
 1.4690	87.3203
 1.4680	87.3919
 1.4670	87.4158
 1.4660	87.3583
 1.4650	87.3596
 1.4640	87.3676
 1.4630	87.3759
 1.4620	87.4118
 1.4610	87.4502
 1.4600	87.4334
 1.4590	87.4072
 1.4580	87.3383
 1.4570	87.4060
 1.4560	87.4575
 1.4550	87.4383
 1.4540	87.4401
 1.4530	87.4808
 1.4520	87.4869
 1.4510	87.4855
 1.4500	87.4888
 1.4490	87.4855
 1.4480	87.4640
 1.4470	87.4968
 1.4460	87.4532
 1.4450	87.4256
 1.4440	87.4748
 1.4430	87.4835
 1.4420	87.5034
 1.4410	87.5592
 1.4400	87.5405
 1.4390	87.5765
 1.4380	87.6218
 1.4370	87.5877
 1.4360	87.5841
 1.4350	87.5956
 1.4340	87.5428
 1.4330	87.5558
 1.4320	87.5953
 1.4310	87.6669
 1.4300	87.7050
 1.4290	87.6503
 1.4280	87.6996
 1.4270	87.7396
 1.4260	87.7414
 1.4250	87.7567
 1.4240	87.6778
 1.4230	87.7369
 1.4220	87.8155
 1.4210	87.8207
 1.4200	87.7926
 1.4190	87.8427
 1.4180	87.8494
 1.4170	87.9147
 1.4160	87.8940
 1.4150	87.8701
 1.4140	87.8206
 1.4130	87.9235
 1.4120	87.9553
 1.4110	87.9897
 1.4100	87.9831
 1.4090	87.9779
 1.4080	87.8742
 1.4070	87.9755
 1.4060	88.0202
 1.4050	87.9794
 1.4040	87.9985
 1.4030	88.0268
 1.4020	88.0317
 1.4010	88.0027
 1.4000	88.0804
 1.3990	88.0808
 1.3980	88.1138
 1.3970	88.2217
 1.3960	88.2535
 1.3950	88.3317
 1.3940	88.2520
 1.3930	88.2859
 1.3920	88.2416
 1.3910	88.3542
 1.3900	88.2889
 1.3890	88.2262
 1.3880	88.2980
 1.3870	88.3170
 1.3860	88.3702
 1.3850	88.3608
 1.3840	88.2943
 1.3830	88.3960
 1.3820	88.3173
 1.3810	88.4289
 1.3800	88.3804
 1.3790	88.3833
 1.3780	88.4541
 1.3770	88.5147
 1.3760	88.4501
 1.3750	88.4083
 1.3740	88.3586
 1.3730	88.3428
 1.3720	88.4151
 1.3710	88.4386
 1.3700	88.5103
 1.3690	88.4069
 1.3680	88.5344
 1.3670	88.4875
 1.3660	88.4452
 1.3650	88.4527
 1.3640	88.4863
 1.3630	88.4757
 1.3620	88.5356
 1.3610	88.4747
 1.3600	88.4984
 1.3590	88.5586
 1.3580	88.3656
 1.3570	88.4822
 1.3560	88.5057
 1.3550	88.5334
 1.3540	88.4759
 1.3530	88.5825
 1.3520	88.4218
 1.3510	88.5396
 1.3500	88.5064
 1.3490	88.5142
 1.3480	88.4469
 1.3470	88.4578
 1.3460	88.5021
 1.3450	88.4471
 1.3440	88.4521
 1.3430	88.5560
 1.3420	88.5063
 1.3410	88.5572
 1.3400	88.5527
 1.3390	88.4961
 1.3380	88.5235
 1.3370	88.5887
 1.3360	88.5790
 1.3350	88.5647
 1.3340	88.5535
 1.3330	88.5461
 1.3320	88.5680
 1.3310	88.6476
 1.3300	88.5075
 1.3290	88.5251
 1.3280	88.5581
 1.3270	88.5573
 1.3260	88.5481
 1.3250	88.6131
 1.3240	88.6501
 1.3230	88.6001
 1.3220	88.6134
 1.3210	88.6258
 1.3200	88.5736
 1.3190	88.5484
 1.3180	88.5610
 1.3170	88.6214
 1.3160	88.5579
 1.3150	88.6212
 1.3140	88.6945
 1.3130	88.6517
 1.3120	88.6346
 1.3110	88.6374
 1.3100	88.6452
 1.3090	88.6221
 1.3080	88.5818
 1.3070	88.6318
 1.3060	88.6392
 1.3050	88.5972
 1.3040	88.6722
 1.3030	88.6846
 1.3020	88.6263
 1.3010	88.6885
 1.3000	88.5876
 1.2990	88.6240
 1.2980	88.6734
 1.2970	88.6828
 1.2960	88.6671
 1.2950	88.6240
 1.2940	88.6447
 1.2930	88.6567
 1.2920	88.6229
 1.2910	88.6400
 1.2900	88.6111
 1.2890	88.6653
 1.2880	88.6783
 1.2870	88.6583
 1.2860	88.6059
 1.2850	88.6395
 1.2840	88.6260
 1.2830	88.7113
 1.2820	88.6267
 1.2810	88.7165
 1.2800	88.7039
 1.2790	88.6620
 1.2780	88.6277
 1.2770	88.6670
 1.2760	88.6634
 1.2750	88.7120
 1.2740	88.7057
 1.2730	88.6730
 1.2720	88.6572
 1.2710	88.7127
 1.2700	88.7547
 1.2690	88.7595
 1.2680	88.6543
 1.2670	88.6918
 1.2660	88.6745
 1.2650	88.6976
 1.2640	88.7310
 1.2630	88.7402
 1.2620	88.6503
 1.2610	88.6185
 1.2600	88.6632
 1.2590	88.7617
 1.2580	88.7536
 1.2570	88.7101
 1.2560	88.6823
 1.2550	88.7253
 1.2540	88.7000
 1.2530	88.7079
 1.2520	88.7507
 1.2510	88.7139
 1.2500	88.6741
 1.2490	88.6833
 1.2480	88.6596
 1.2470	88.6466
 1.2460	88.6598
 1.2450	88.7085
 1.2440	88.6986
 1.2430	88.6966
 1.2420	88.6806
 1.2410	88.6539
 1.2400	88.6380
 1.2390	88.6670
 1.2380	88.6753
 1.2370	88.6795
 1.2360	88.6760
 1.2350	88.6980
 1.2340	88.6674
 1.2330	88.6741
 1.2320	88.6923
 1.2310	88.6411
 1.2300	88.6278
 1.2290	88.7038
 1.2280	88.7122
 1.2270	88.6768
 1.2260	88.6614
 1.2250	88.6417
 1.2240	88.6373
 1.2230	88.6727
 1.2220	88.6695
 1.2210	88.6564
 1.2200	88.6387
 1.2190	88.6185
 1.2180	88.6573
 1.2170	88.7052
 1.2160	88.6966
 1.2150	88.6599
 1.2140	88.6529
 1.2130	88.6629
 1.2120	88.6365
 1.2110	88.5913
 1.2100	88.5872
 1.2090	88.6573
 1.2080	88.6789
 1.2070	88.6851
 1.2060	88.6938
 1.2050	88.6934
 1.2040	88.6532
 1.2030	88.6483
 1.2020	88.6607
 1.2010	88.6684
 1.2000	88.6516
 1.1990	88.6244
 1.1980	88.6458
 1.1970	88.6131
 1.1960	88.6667
 1.1950	88.6656
 1.1940	88.6789
 1.1930	88.6394
 1.1920	88.5734
 1.1910	88.6216
 1.1900	88.6368
 1.1890	88.6426
 1.1880	88.6218
 1.1870	88.6621
 1.1860	88.6493
 1.1850	88.6022
 1.1840	88.6296
 1.1830	88.6281
 1.1820	88.6473
 1.1810	88.6229
 1.1800	88.6291
 1.1790	88.6641
 1.1780	88.6861
 1.1770	88.6056
 1.1760	88.5696
 1.1750	88.5624
 1.1740	88.6239
 1.1730	88.5754
 1.1720	88.6049
 1.1710	88.6042
 1.1700	88.5910
 1.1690	88.5888
 1.1680	88.5815
 1.1670	88.6550
 1.1660	88.5653
 1.1650	88.5797
 1.1640	88.5952
 1.1630	88.5587
 1.1620	88.5615
 1.1610	88.5432
 1.1600	88.5375
 1.1590	88.5239
 1.1580	88.5645
 1.1570	88.5896
 1.1560	88.6364
 1.1550	88.4898
 1.1540	88.5280
 1.1530	88.5648
 1.1520	88.5245
 1.1510	88.4487
 1.1500	88.5023
 1.1490	88.5046
 1.1480	88.4988
 1.1470	88.4803
 1.1460	88.4970
 1.1450	88.4639
 1.1440	88.4334
 1.1430	88.4339
 1.1420	88.5128
 1.1410	88.5610
 1.1400	88.4797
 1.1390	88.4590
 1.1380	88.4468
 1.1370	88.4264
 1.1360	88.4413
 1.1350	88.4641
 1.1340	88.5266
 1.1330	88.4208
 1.1320	88.4768
 1.1310	88.4437
 1.1300	88.3156
 1.1290	88.3977
 1.1280	88.4647
 1.1270	88.3995
 1.1260	88.4102
 1.1250	88.4823
 1.1240	88.4632
 1.1230	88.3983
 1.1220	88.3443
 1.1210	88.3424
 1.1200	88.3527
 1.1190	88.4221
 1.1180	88.4088
 1.1170	88.3133
 1.1160	88.3514
 1.1150	88.3485
 1.1140	88.2626
 1.1130	88.3140
 1.1120	88.3782
 1.1110	88.3574
 1.1100	88.2372
 1.1090	88.2590
 1.1080	88.3194
 1.1070	88.3824
 1.1060	88.2378
 1.1050	88.2712
 1.1040	88.1669
 1.1030	88.2352
 1.1020	88.2495
 1.1010	88.1893
 1.1000	88.2145
 1.0990	88.1722
 1.0980	88.2137
 1.0970	88.2188
 1.0960	88.2120
 1.0950	88.1520
 1.0940	88.1785
 1.0930	88.1688
 1.0920	88.1978
 1.0910	88.0671
 1.0900	88.0663
 1.0890	88.1858
 1.0880	88.1612
 1.0870	88.1342
 1.0860	88.1410
 1.0850	88.1771
 1.0840	88.1197
 1.0830	87.9940
 1.0820	88.1006
 1.0810	88.0508
 1.0800	87.9858
 1.0790	87.9562
 1.0780	88.1451
 1.0770	87.9473
 1.0760	88.0932
 1.0750	87.9956
 1.0740	87.9133
 1.0730	87.9656
 1.0720	87.9802
 1.0710	87.9791
 1.0700	87.9375
 1.0690	87.9101
 1.0680	87.9354
 1.0670	87.9606
 1.0660	87.8832
 1.0650	87.8710
 1.0640	87.9350
 1.0630	87.8475
 1.0620	87.8849
 1.0610	87.8662
 1.0600	87.8361
 1.0590	87.8265
 1.0580	87.8396
 1.0570	87.7500
 1.0560	87.8381
 1.0550	87.6809
 1.0540	87.8129
 1.0530	87.7358
 1.0520	87.8141
 1.0510	87.7226
 1.0500	87.7609
 1.0490	87.6776
 1.0480	87.7392
 1.0470	87.6840
 1.0460	87.7015
 1.0450	87.7396
 1.0440	87.6993
 1.0430	87.6205
 1.0420	87.6751
 1.0410	87.5887
 1.0400	87.5950
 1.0390	87.4909
 1.0380	87.5874
 1.0370	87.7127
 1.0360	87.5654
 1.0350	87.5106
 1.0340	87.5415
 1.0330	87.5296
 1.0320	87.5586
 1.0310	87.4991
 1.0300	87.5203
 1.0290	87.4525
 1.0280	87.4566
 1.0270	87.4942
 1.0260	87.4185
 1.0250	87.3921
 1.0240	87.4383
 1.0230	87.4515
 1.0220	87.4710
 1.0210	87.4683
 1.0200	87.4079
 1.0190	87.4540
 1.0180	87.3936
 1.0170	87.3854
 1.0160	87.3673
 1.0150	87.4222
 1.0140	87.3119
 1.0130	87.2575
 1.0120	87.2950
 1.0110	87.2993
 1.0100	87.3138
 1.0090	87.2999
 1.0080	87.2866
 1.0070	87.2512
 1.0060	87.2171
 1.0050	87.2157
 1.0040	87.3491
 1.0030	87.3188
 1.0020	87.2463
 1.0010	87.2030
 1.0000	87.2253
 0.9990	87.1826
 0.9980	87.2133
 0.9970	87.1487
 0.9960	87.1769
 0.9950	87.1826
 0.9940	87.1421
 0.9930	87.1166
 0.9920	87.1722
 0.9910	87.1196
 0.9900	87.0954
 0.9890	87.0758
 0.9880	87.1004
 0.9870	87.0829
 0.9860	87.0088
 0.9850	87.0413
 0.9840	87.1052
 0.9830	87.0685
 0.9820	87.0946
 0.9810	87.0435
 0.9800	87.0333
 0.9790	87.0010
 0.9780	87.0552
 0.9770	87.0287
 0.9760	86.9784
 0.9750	87.0046
 0.9740	86.9741
 0.9730	86.9495
 0.9720	86.9720
 0.9710	86.9007
 0.9700	86.8907
 0.9690	86.8997
 0.9680	86.8586
 0.9670	86.9070
 0.9660	86.8872
 0.9650	86.8585
 0.9640	86.8829
 0.9630	86.8576
 0.9620	86.8555
 0.9610	86.8554
 0.9600	86.8254
 0.9590	86.8606
 0.9580	86.9148
 0.9570	86.9001
 0.9560	86.8705
 0.9550	86.8592
 0.9540	86.8508
 0.9530	86.7671
 0.9520	86.8251
 0.9510	86.8321
 0.9500	86.7950
 0.9490	86.8488
 0.9480	86.8179
 0.9470	86.7722
 0.9460	86.8038
 0.9450	86.7175
 0.9440	86.7166
 0.9430	86.7307
 0.9420	86.7309
 0.9410	86.7361
 0.9400	86.6912
 0.9390	86.6966
 0.9380	86.7086
 0.9370	86.7527
 0.9360	86.6993
 0.9350	86.6194
 0.9340	86.6418
 0.9330	86.6430
 0.9320	86.6137
 0.9310	86.5951
 0.9300	86.6404
 0.9290	86.6484
 0.9280	86.6596
 0.9270	86.6598
 0.9260	86.5940
 0.9250	86.5971
 0.9240	86.6498
 0.9230	86.6242
 0.9220	86.6170
 0.9210	86.6434
 0.9200	86.5995
 0.9190	86.5843
 0.9180	86.5844
 0.9170	86.5261
 0.9160	86.5459
 0.9150	86.5754
 0.9140	86.5864
 0.9130	86.5674
 0.9120	86.4979
 0.9110	86.4451
 0.9100	86.4754
 0.9090	86.4599
 0.9080	86.4623
 0.9070	86.3872
 0.9060	86.3887
 0.9050	86.4194
 0.9040	86.3851
 0.9030	86.3989
 0.9020	86.3933
 0.9010	86.4558
 0.9000	86.4549
 0.8990	86.4003
 0.8980	86.4087
 0.8970	86.4233
 0.8960	86.4412
 0.8950	86.3807
 0.8940	86.3340
 0.8930	86.3516
 0.8920	86.3177
 0.8910	86.2775
 0.8900	86.2455
 0.8890	86.2498
 0.8880	86.2475
 0.8870	86.2563
 0.8860	86.2294
 0.8850	86.2273
 0.8840	86.1710
 0.8830	86.1635
 0.8820	86.1039
 0.8810	86.1413
 0.8800	86.1792
 0.8790	86.1081
 0.8780	86.0784
 0.8770	86.1252
 0.8760	86.0795
 0.8750	86.1227
 0.8740	86.1233
 0.8730	86.0894
 0.8720	86.0906
 0.8710	86.0860
 0.8700	86.0390
 0.8690	86.0646
 0.8680	86.0644
 0.8670	86.0281
 0.8660	86.0133
 0.8650	86.0192
 0.8640	85.9663
 0.8630	85.9372
 0.8620	85.9331
 0.8610	85.9898
 0.8600	86.3740
 0.8590	85.8604
 0.8580	85.5994
 0.8570	85.7113
 0.8560	85.8226
 0.8550	85.7080
 0.8540	85.6747
 0.8530	85.8359
 0.8520	85.6801
 0.8510	85.7188
 0.8500	85.7209
 0.8490	85.7133
 0.8480	85.7179
 0.8470	85.6031
 0.8460	85.6316
 0.8450	85.6936
 0.8440	85.4367
 0.8430	85.5770
 0.8420	85.6239
 0.8410	85.4887
 0.8400	85.5685
 0.8390	85.5927
 0.8380	85.5937
 0.8370	85.3695
 0.8360	85.6055
 0.8350	85.5937
 0.8340	85.3134
 0.8330	85.4574
 0.8320	85.5390
 0.8310	85.2880
 0.8300	85.3771
 0.8290	85.4649
 0.8280	85.3557
 0.8270	85.2731
 0.8260	85.4663
 0.8250	85.3959
 0.8240	85.2228
 0.8230	85.4552
 0.8220	85.4333
 0.8210	85.2221
 0.8200	85.3744
 0.8190	85.3910
 0.8180	85.1581
 0.8170	85.2843
 0.8160	85.4012
 0.8150	85.2194
 0.8140	85.2134
 0.8130	85.4077
 0.8120	85.2993
 0.8110	85.1294
 0.8100	85.3372
 0.8090	85.2972
 0.8080	85.1622
 0.8070	85.3136
 0.8060	85.3447
 0.8050	85.1461
 0.8040	85.2619
 0.8030	85.3180
 0.8020	85.1791
 0.8010	85.1987
 0.8000	85.3403
 0.7990	85.1085
 0.7980	85.1326
 0.7970	85.2740
 0.7960	85.1338
 0.7950	85.0526
 0.7940	85.2047
 0.7930	85.0998
 0.7920	85.0605
 0.7910	85.1857
 0.7900	85.1325
 0.7890	85.0400
 0.7880	85.1214
 0.7870	85.1537
 0.7860	85.0294
 0.7850	85.0711
 0.7840	85.1724
 0.7830	85.0153
 0.7820	85.0274
 0.7810	85.1790
 0.7800	85.0219
 0.7790	85.0513
 0.7780	85.0722
 0.7770	85.0336
 0.7760	85.0516
 0.7750	85.0089
 0.7740	84.9154
 0.7730	84.9776
 0.7720	85.0052
 0.7710	84.8971
 0.7700	84.9732
 0.7690	85.0124
 0.7680	84.8825
 0.7670	84.8793
 0.7660	84.9480
 0.7650	84.8862
 0.7640	84.8707
 0.7630	84.9585
 0.7620	84.8591
 0.7610	84.8609
 0.7600	84.8648
 0.7590	84.7921
 0.7580	84.8101
 0.7570	84.8040
 0.7560	84.7873
 0.7550	84.7511
 0.7540	84.7456
 0.7530	84.7633
 0.7520	84.7377
 0.7510	84.7134
 0.7500	84.6768
 0.7490	84.6945
 0.7480	84.6483
 0.7470	84.6394
 0.7460	84.6202
 0.7450	84.5815
 0.7440	84.5397
 0.7430	84.6098
 0.7420	84.5551
 0.7410	84.5115
 0.7400	84.5755
 0.7390	84.5135
 0.7380	84.4399
 0.7370	84.5143
 0.7360	84.4772
 0.7350	84.3976
 0.7340	84.4432
 0.7330	84.4329
 0.7320	84.3641
 0.7310	84.3732
 0.7300	84.3750
 0.7290	84.3177
 0.7280	84.2702
 0.7270	84.3199
 0.7260	84.2600
 0.7250	84.2563
 0.7240	84.2949
 0.7230	84.2412
 0.7220	84.1517
 0.7210	84.2023
 0.7200	84.2009
 0.7190	84.1038
 0.7180	84.1629
 0.7170	84.1432
 0.7160	84.0660
 0.7150	84.0600
 0.7140	84.0831
 0.7130	84.0213
 0.7120	83.9991
 0.7110	84.0414
 0.7100	83.9928
 0.7090	83.9512
 0.7080	83.9270
 0.7070	83.8918
 0.7060	83.8463
 0.7050	83.8446
 0.7040	83.8593
 0.7030	83.7944
 0.7020	83.7858
 0.7010	83.7999
 0.7000	83.7576
 0.6990	83.7159
 0.6980	83.6983
 0.6970	83.6817
 0.6960	83.6473
 0.6950	83.6450
 0.6940	83.6362
 0.6930	83.5923
 0.6920	83.5641
 0.6910	83.5721
 0.6900	83.5052
 0.6890	83.4818
 0.6880	83.4828
 0.6870	83.4790
 0.6860	83.4020
 0.6850	83.3874
 0.6840	83.3599
 0.6830	83.3113
 0.6820	83.3115
 0.6810	83.2818
 0.6800	83.2106
 0.6790	83.2325
 0.6780	83.2101
 0.6770	83.1498
 0.6760	83.1213
 0.6750	83.0997
 0.6740	83.0460
 0.6730	83.0119
 0.6720	82.9818
 0.6710	82.9442
 0.6700	82.9178
 0.6690	82.8975
 0.6680	82.8731
 0.6670	82.8377
 0.6660	82.8220
 0.6650	82.7834
 0.6640	82.7250
 0.6630	82.7293
 0.6620	82.7054
 0.6610	82.6474
 0.6600	82.6045
 0.6590	82.5983
 0.6580	82.5523
 0.6570	82.5033
 0.6560	82.5005
 0.6550	82.4699
 0.6540	82.4385
 0.6530	82.4183
 0.6520	82.3830
 0.6510	82.3479
 0.6500	82.3222
 0.6490	82.3011
 0.6480	82.2878
 0.6470	82.2684
 0.6460	82.2466
 0.6450	82.2175
 0.6440	82.1884
 0.6430	82.1663
 0.6420	82.1332
 0.6410	82.0971
 0.6400	82.0636
 0.6390	82.0288
 0.6380	82.0021
 0.6370	81.9879
 0.6360	81.9547
 0.6350	81.9078
 0.6340	81.8903
 0.6330	81.8704
 0.6320	81.8444
 0.6310	81.8169
 0.6300	81.8183
 0.6290	81.7950
 0.6280	81.7061
 0.6270	81.6286
 0.6260	81.5732
 0.6250	81.5411
 0.6240	81.4983
 0.6230	81.4394
 0.6220	81.3763
 0.6210	81.3339
 0.6200	81.3002
 0.6190	81.2435
 0.6180	81.1687
 0.6170	81.1136
 0.6160	81.0741
 0.6150	81.0228
 0.6140	80.9447
 0.6130	80.8854
 0.6120	80.8234
 0.6110	80.7531
 0.6100	80.6841
 0.6090	80.6091
 0.6080	80.5426
 0.6070	80.4683
 0.6060	80.3749
 0.6050	80.2992
 0.6040	80.2261
 0.6030	80.1233
 0.6020	80.0427
 0.6010	79.9568
 0.6000	79.8483
 0.5990	79.7824
 0.5980	79.7041
 0.5970	79.6179
 0.5960	79.5290
 0.5950	79.4254
 0.5940	79.3139
 0.5930	79.2065
 0.5920	79.0918
 0.5910	78.9700
 0.5900	78.8515
 0.5890	78.7268
 0.5880	78.6079
 0.5870	78.4861
 0.5860	78.3534
 0.5850	78.2049
 0.5840	78.0469
 0.5830	77.9055
 0.5820	77.7851
 0.5810	77.6634
 0.5800	77.5233
 0.5790	77.3714
 0.5780	77.2051
 0.5770	77.0568
 0.5760	76.9013
 0.5750	76.7406
 0.5740	76.5850
 0.5730	76.4124
 0.5720	76.2562
 0.5710	76.0815
 0.5700	75.8974
 0.5690	75.7306
 0.5680	75.5427
 0.5670	75.3627
 0.5660	75.1915
 0.5650	74.9974
 0.5640	74.8162
 0.5630	74.6331
 0.5620	74.4357
 0.5610	74.1858
 0.5600	73.9797
 0.5590	73.7555
 0.5580	73.5478
 0.5570	73.3627
 0.5560	73.1718
 0.5550	72.9576
 0.5540	72.7423
 0.5530	72.5310
 0.5520	72.3199
 0.5510	72.1054
 0.5500	71.9249
 0.5490	71.6850
 0.5480	71.4499
 0.5470	71.1910
 0.5460	70.9265
 0.5450	70.6858
 0.5440	70.4441
 0.5430	70.1882
 0.5420	69.9338
 0.5410	69.6638
 0.5400	69.3856
 0.5390	69.1178
 0.5380	68.8500
 0.5370	68.5700
 0.5360	68.3011
 0.5350	67.9976
 0.5340	67.7077
 0.5330	67.4064
 0.5320	67.1045
 0.5310	66.8017
 0.5300	66.4958
 0.5290	66.1756
 0.5280	65.8364
 0.5270	65.5097
 0.5260	65.1777
 0.5250	64.8357
 0.5240	64.4924
 0.5230	64.1377
 0.5220	63.7679
 0.5210	63.4069
 0.5200	63.0392
 0.5190	62.6735
 0.5180	62.2738
 0.5170	61.9121
 0.5160	61.5039
 0.5150	61.0996
 0.5140	60.7080
 0.5130	60.3123
 0.5120	59.8761
 0.5110	59.4668
 0.5100	59.0475
 0.5090	58.6142
 0.5080	58.1746
 0.5070	57.7555
 0.5060	57.3077
 0.5050	56.8696
 0.5040	56.4360
 0.5030	55.9861
 0.5020	55.5272
 0.5010	55.0677
 0.5000	54.6374
 0.4990	54.1298
 0.4980	53.6594
 0.4970	53.2142
 0.4960	52.7386
 0.4950	52.2502
 0.4940	51.8004
 0.4930	51.3287
 0.4920	50.8395
 0.4910	50.3895
 0.4900	49.9392
 0.4890	49.4459
 0.4880	48.9969
 0.4870	48.5360
 0.4860	48.0675
 0.4850	47.5883
 0.4840	47.1380
 0.4830	46.6658
 0.4820	46.2138
 0.4810	45.7812
 0.4800	45.3556
 0.4790	44.9396
 0.4780	44.5269
 0.4770	44.1027
 0.4760	43.6822
 0.4750	43.2969
 0.4740	42.8619
 0.4730	42.4326
 0.4720	42.0338
 0.4710	41.6325
 0.4700	41.2237
 0.4690	40.8165
 0.4680	40.4278
 0.4670	40.0248
 0.4660	39.6291
 0.4650	39.2474
 0.4640	38.8551
 0.4630	38.4757
 0.4620	38.1097
 0.4610	37.7372
 0.4600	37.3598
 0.4590	37.0190
 0.4580	36.6570
 0.4570	36.3172
 0.4560	35.9930
 0.4550	35.6677
 0.4540	35.3020
 0.4530	34.9683
 0.4520	34.6504
 0.4510	34.3160
 0.4500	33.9952
 0.4490	33.6867
 0.4480	33.4208
 0.4470	33.1018
 0.4460	32.8144
 0.4450	32.5075
 0.4440	32.1941
 0.4430	31.9304
 0.4420	31.6484
 0.4410	31.3638
 0.4400	31.1100
 0.4390	30.8597
 0.4380	30.5804
 0.4370	30.3328
 0.4360	30.0899
 0.4350	29.8458
 0.4340	29.5893
 0.4330	29.3577
 0.4320	29.1193
 0.4310	28.8933
 0.4300	28.6782
 0.4290	28.4549
 0.4280	28.2357
 0.4270	28.0493
 0.4260	27.8448
 0.4250	27.6397
 0.4240	27.4516
 0.4230	27.2659
 0.4220	27.0779
 0.4210	26.9045
 0.4200	26.7426
 0.4190	26.5617
 0.4180	26.3941
 0.4170	26.2311
 0.4160	26.0805
 0.4150	25.9184
 0.4140	25.7745
 0.4130	25.6393
 0.4120	25.4866
 0.4110	25.3491
 0.4100	25.2314
 0.4090	25.0983
 0.4080	24.9656
 0.4070	24.8585
 0.4060	24.7379
 0.4050	24.6131
 0.4040	24.5146
 0.4030	24.4049
 0.4020	24.2837
 0.4010	24.1986
 0.4000	24.1024
