Name: Ferroaxinite Ca_2Fe^2+Al_2BSi_4O_15(OH)
Type: Mineral
Class: Silicate
Subclass: Cyclosilicate
Particle Size: Fine
Sample No.: CS-4A
Owner: JPL
Wavelength Range: VSWIR
Origin: Mexico, Baja California Norte, Los Gavelontos.
Collection Date: N/A
Description: Particle size was 0-45um.Collected by:  Ward's Original ASTER Spectral Library name was jpl.perkin.mineral.silicate.cyclosilicate.fine.cs04a.spectrum.txt
Measurement: Hemispherical reflectance
First Column: X
Second Column: Y
X Units: Wavelength (micrometers)
Y Units:Reflectance (percent)
First X Value:  2.5000
Last X Value:  0.4000
Number of X Values: 2101
Additional Information: mineral.silicate.cyclosilicate.fine.vswir.cs-4a.jpl.perkin.ancillary.txt

 2.5000	49.2590
 2.4990	49.1164
 2.4980	49.1587
 2.4970	49.3598
 2.4960	48.9508
 2.4950	49.1743
 2.4940	48.9669
 2.4930	49.1072
 2.4920	49.0453
 2.4910	49.0954
 2.4900	48.9925
 2.4890	48.9058
 2.4880	48.8107
 2.4870	48.9998
 2.4860	48.7909
 2.4850	48.9688
 2.4840	48.9729
 2.4830	48.8625
 2.4820	48.8967
 2.4810	48.7797
 2.4800	48.7274
 2.4790	48.7317
 2.4780	48.6407
 2.4770	48.7430
 2.4760	48.4761
 2.4750	48.6623
 2.4740	48.5523
 2.4730	48.6163
 2.4720	48.5211
 2.4710	48.6334
 2.4700	48.5321
 2.4690	48.5663
 2.4680	48.4815
 2.4670	48.4481
 2.4660	48.2584
 2.4650	48.3678
 2.4640	48.2570
 2.4630	48.2926
 2.4620	48.0678
 2.4610	48.0891
 2.4600	48.0005
 2.4590	47.9996
 2.4580	47.9317
 2.4570	47.8721
 2.4560	47.8596
 2.4550	47.8473
 2.4540	47.6190
 2.4530	47.6445
 2.4520	47.4687
 2.4510	47.4750
 2.4500	47.4060
 2.4490	47.3272
 2.4480	47.2043
 2.4470	47.1559
 2.4460	47.1110
 2.4450	47.1404
 2.4440	46.9734
 2.4430	46.9725
 2.4420	46.7919
 2.4410	46.7523
 2.4400	46.6205
 2.4390	46.5601
 2.4380	46.5292
 2.4370	46.4135
 2.4360	46.3680
 2.4350	46.3115
 2.4340	46.1416
 2.4330	46.1454
 2.4320	46.0356
 2.4310	46.0151
 2.4300	45.8818
 2.4290	45.8154
 2.4280	45.7507
 2.4270	45.6967
 2.4260	45.4932
 2.4250	45.4647
 2.4240	45.3791
 2.4230	45.3217
 2.4220	45.1797
 2.4210	45.0737
 2.4200	44.9426
 2.4190	44.8855
 2.4180	44.7795
 2.4170	44.8157
 2.4160	44.6241
 2.4150	44.5652
 2.4140	44.3639
 2.4130	44.2991
 2.4120	44.2057
 2.4110	44.0504
 2.4100	43.9509
 2.4090	43.8736
 2.4080	43.7132
 2.4070	43.6389
 2.4060	43.5080
 2.4050	43.4532
 2.4040	43.2708
 2.4030	43.1920
 2.4020	43.0842
 2.4010	43.0359
 2.4000	42.8501
 2.3990	42.7269
 2.3980	42.5641
 2.3970	42.4577
 2.3960	42.3120
 2.3950	42.1641
 2.3940	42.0251
 2.3930	41.9483
 2.3920	41.7067
 2.3910	41.5039
 2.3900	41.3322
 2.3890	41.1699
 2.3880	41.0052
 2.3870	40.7896
 2.3860	40.5273
 2.3850	40.3666
 2.3840	40.0948
 2.3830	39.8513
 2.3820	39.5688
 2.3810	39.3368
 2.3800	39.0114
 2.3790	38.7574
 2.3780	38.5171
 2.3770	38.2799
 2.3760	37.9915
 2.3750	37.8195
 2.3740	37.6194
 2.3730	37.3625
 2.3720	37.1433
 2.3710	37.0255
 2.3700	36.8801
 2.3690	36.7236
 2.3680	36.6303
 2.3670	36.5647
 2.3660	36.4565
 2.3650	36.3948
 2.3640	36.3730
 2.3630	36.3675
 2.3620	36.3842
 2.3610	36.3645
 2.3600	36.3289
 2.3590	36.3732
 2.3580	36.3933
 2.3570	36.4229
 2.3560	36.3929
 2.3550	36.3229
 2.3540	36.3558
 2.3530	36.3994
 2.3520	36.3671
 2.3510	36.2913
 2.3500	36.2250
 2.3490	36.1368
 2.3480	36.0691
 2.3470	35.9462
 2.3460	35.8073
 2.3450	35.6330
 2.3440	35.4320
 2.3430	35.2525
 2.3420	35.0981
 2.3410	34.8967
 2.3400	34.6122
 2.3390	34.3754
 2.3380	34.1642
 2.3370	33.8640
 2.3360	33.5927
 2.3350	33.2985
 2.3340	32.9978
 2.3330	32.6835
 2.3320	32.4289
 2.3310	32.1065
 2.3300	31.8685
 2.3290	31.6112
 2.3280	31.3820
 2.3270	31.1555
 2.3260	31.0280
 2.3250	30.7532
 2.3240	30.5823
 2.3230	30.4105
 2.3220	30.3077
 2.3210	30.2158
 2.3200	30.1358
 2.3190	30.0579
 2.3180	30.1021
 2.3170	30.0572
 2.3160	30.0764
 2.3150	30.1491
 2.3140	30.1806
 2.3130	30.1863
 2.3120	30.2525
 2.3110	30.2899
 2.3100	30.3387
 2.3090	30.3952
 2.3080	30.4936
 2.3070	30.5187
 2.3060	30.5708
 2.3050	30.5955
 2.3040	30.6991
 2.3030	30.6616
 2.3020	30.7428
 2.3010	30.7729
 2.3000	30.8060
 2.2990	30.8502
 2.2980	30.9823
 2.2970	30.9666
 2.2960	31.0894
 2.2950	31.0675
 2.2940	31.1744
 2.2930	31.1843
 2.2920	31.2322
 2.2910	31.3030
 2.2900	31.3961
 2.2890	31.3715
 2.2880	31.5134
 2.2870	31.4749
 2.2860	31.5425
 2.2850	31.5280
 2.2840	31.5905
 2.2830	31.6261
 2.2820	31.6968
 2.2810	31.6913
 2.2800	31.7405
 2.2790	31.7035
 2.2780	31.7287
 2.2770	31.7195
 2.2760	31.6876
 2.2750	31.6350
 2.2740	31.7179
 2.2730	31.6621
 2.2720	31.6878
 2.2710	31.6218
 2.2700	31.6848
 2.2690	31.6208
 2.2680	31.6313
 2.2670	31.6359
 2.2660	31.6963
 2.2650	31.6756
 2.2640	31.7528
 2.2630	31.6899
 2.2620	31.7223
 2.2610	31.7576
 2.2600	31.8096
 2.2590	31.7149
 2.2580	31.7949
 2.2570	31.7839
 2.2560	31.8952
 2.2550	31.8106
 2.2540	31.9026
 2.2530	31.8341
 2.2520	31.9351
 2.2510	31.8678
 2.2500	31.8881
 2.2490	31.8685
 2.2480	31.9331
 2.2470	31.8320
 2.2460	31.8634
 2.2450	31.7818
 2.2440	31.9013
 2.2430	31.8662
 2.2420	31.8712
 2.2410	31.7176
 2.2400	31.8006
 2.2390	31.6825
 2.2380	31.7698
 2.2370	31.5965
 2.2360	31.7124
 2.2350	31.6105
 2.2340	31.6256
 2.2330	31.5579
 2.2320	31.5634
 2.2310	31.4836
 2.2300	31.5483
 2.2290	31.4650
 2.2280	31.5380
 2.2270	31.3863
 2.2260	31.4634
 2.2250	31.3410
 2.2240	31.3387
 2.2230	31.2903
 2.2220	31.3457
 2.2210	31.2026
 2.2200	31.2662
 2.2190	31.1205
 2.2180	31.2855
 2.2170	31.1132
 2.2160	31.1307
 2.2150	31.0566
 2.2140	31.1662
 2.2130	31.0305
 2.2120	31.1079
 2.2110	30.8541
 2.2100	31.0324
 2.2090	30.9090
 2.2080	30.9116
 2.2070	30.9702
 2.2060	30.9057
 2.2050	30.8727
 2.2040	30.8625
 2.2030	30.7942
 2.2020	30.8041
 2.2010	30.6904
 2.2000	30.7352
 2.1990	30.6360
 2.1980	30.7265
 2.1970	30.6357
 2.1960	30.6544
 2.1950	30.5542
 2.1940	30.6267
 2.1930	30.5427
 2.1920	30.5840
 2.1910	30.4873
 2.1900	30.4784
 2.1890	30.4040
 2.1880	30.4465
 2.1870	30.4240
 2.1860	30.4215
 2.1850	30.3439
 2.1840	30.4062
 2.1830	30.3364
 2.1820	30.3271
 2.1810	30.2656
 2.1800	30.2369
 2.1790	30.2069
 2.1780	30.3183
 2.1770	30.1733
 2.1760	30.2576
 2.1750	30.1794
 2.1740	30.2397
 2.1730	30.1627
 2.1720	30.2105
 2.1710	30.1607
 2.1700	30.1500
 2.1690	30.0928
 2.1680	30.1327
 2.1670	30.0895
 2.1660	30.1846
 2.1650	30.0765
 2.1640	30.0865
 2.1630	29.9826
 2.1620	30.0521
 2.1610	29.9827
 2.1600	30.0021
 2.1590	30.0035
 2.1580	30.0087
 2.1570	29.9920
 2.1560	30.0156
 2.1550	29.9326
 2.1540	29.9471
 2.1530	29.8473
 2.1520	29.8978
 2.1510	29.8369
 2.1500	29.8650
 2.1490	29.8406
 2.1480	29.8573
 2.1470	29.7451
 2.1460	29.7949
 2.1450	29.8353
 2.1440	29.7725
 2.1430	29.7147
 2.1420	29.7328
 2.1410	29.7007
 2.1400	29.6599
 2.1390	29.5907
 2.1380	29.6222
 2.1370	29.5651
 2.1360	29.6163
 2.1350	29.5195
 2.1340	29.5408
 2.1330	29.5328
 2.1320	29.5405
 2.1310	29.4265
 2.1300	29.4876
 2.1290	29.3635
 2.1280	29.3916
 2.1270	29.3256
 2.1260	29.3600
 2.1250	29.3304
 2.1240	29.2640
 2.1230	29.1994
 2.1220	29.2199
 2.1210	29.1864
 2.1200	29.1412
 2.1190	29.1238
 2.1180	29.1433
 2.1170	29.1016
 2.1160	29.0956
 2.1150	29.0360
 2.1140	29.0059
 2.1130	28.9449
 2.1120	28.9592
 2.1110	28.9194
 2.1100	28.8934
 2.1090	28.8189
 2.1080	28.8397
 2.1070	28.7817
 2.1060	28.7891
 2.1050	28.7739
 2.1040	28.7874
 2.1030	28.7229
 2.1020	28.7265
 2.1010	28.6832
 2.1000	28.6555
 2.0990	28.5938
 2.0980	28.6301
 2.0970	28.5946
 2.0960	28.6428
 2.0950	28.6227
 2.0940	28.6356
 2.0930	28.6158
 2.0920	28.6227
 2.0910	28.6081
 2.0900	28.6018
 2.0890	28.6290
 2.0880	28.6565
 2.0870	28.6208
 2.0860	28.6222
 2.0850	28.5888
 2.0840	28.5614
 2.0830	28.5725
 2.0820	28.5416
 2.0810	28.5728
 2.0800	28.6240
 2.0790	28.6305
 2.0780	28.6764
 2.0770	28.6333
 2.0760	28.6227
 2.0750	28.6346
 2.0740	28.6465
 2.0730	28.6809
 2.0720	28.6660
 2.0710	28.6142
 2.0700	28.6298
 2.0690	28.6763
 2.0680	28.6550
 2.0670	28.6491
 2.0660	28.7155
 2.0650	28.7459
 2.0640	28.7094
 2.0630	28.6811
 2.0620	28.6870
 2.0610	28.7203
 2.0600	28.7214
 2.0590	28.7127
 2.0580	28.7061
 2.0570	28.7288
 2.0560	28.7738
 2.0550	28.7863
 2.0540	28.7716
 2.0530	28.7854
 2.0520	28.7522
 2.0510	28.8070
 2.0500	28.8416
 2.0490	28.8364
 2.0480	28.8009
 2.0470	28.8629
 2.0460	28.8465
 2.0450	28.8808
 2.0440	28.8251
 2.0430	28.8523
 2.0420	28.8905
 2.0410	28.8954
 2.0400	28.8791
 2.0390	28.9004
 2.0380	28.9260
 2.0370	28.9665
 2.0360	28.9480
 2.0350	28.9624
 2.0340	28.9509
 2.0330	28.9521
 2.0320	28.9426
 2.0310	29.0195
 2.0300	29.0319
 2.0290	29.0468
 2.0280	29.0092
 2.0270	29.0792
 2.0260	29.0819
 2.0250	29.0899
 2.0240	29.0879
 2.0230	29.1477
 2.0220	29.1062
 2.0210	29.1344
 2.0200	29.2120
 2.0190	29.1572
 2.0180	29.1603
 2.0170	29.2548
 2.0160	29.1777
 2.0150	29.2198
 2.0140	29.2105
 2.0130	29.2611
 2.0120	29.2371
 2.0110	29.2869
 2.0100	29.2903
 2.0090	29.3392
 2.0080	29.3432
 2.0070	29.3948
 2.0060	29.3732
 2.0050	29.4459
 2.0040	29.4077
 2.0030	29.5018
 2.0020	29.4180
 2.0010	29.4673
 2.0000	29.4337
 1.9990	29.5566
 1.9980	29.4512
 1.9970	29.6135
 1.9960	29.5102
 1.9950	29.6117
 1.9940	29.5283
 1.9930	29.6137
 1.9920	29.5859
 1.9910	29.6126
 1.9900	29.5978
 1.9890	29.6830
 1.9880	29.6496
 1.9870	29.6921
 1.9860	29.7145
 1.9850	29.7536
 1.9840	29.7942
 1.9830	29.7689
 1.9820	29.7709
 1.9810	29.8251
 1.9800	29.8080
 1.9790	29.9273
 1.9780	29.8209
 1.9770	29.9251
 1.9760	29.8773
 1.9750	29.9647
 1.9740	29.9821
 1.9730	30.0384
 1.9720	30.0135
 1.9710	30.1007
 1.9700	29.9842
 1.9690	30.1305
 1.9680	30.0846
 1.9670	30.1949
 1.9660	30.1866
 1.9650	30.2738
 1.9640	30.2068
 1.9630	30.3454
 1.9620	30.2965
 1.9610	30.3606
 1.9600	30.3078
 1.9590	30.4107
 1.9580	30.4312
 1.9570	30.5229
 1.9560	30.4741
 1.9550	30.5727
 1.9540	30.5538
 1.9530	30.6613
 1.9520	30.5199
 1.9510	30.6071
 1.9500	30.5942
 1.9490	30.6835
 1.9480	30.7322
 1.9470	30.7983
 1.9460	30.7259
 1.9450	30.8921
 1.9440	30.7689
 1.9430	30.9341
 1.9420	30.9892
 1.9410	30.9673
 1.9400	30.9756
 1.9390	31.1225
 1.9380	30.9420
 1.9370	31.1638
 1.9360	31.0492
 1.9350	31.1492
 1.9340	31.1973
 1.9330	31.2955
 1.9320	31.2547
 1.9310	31.3861
 1.9300	31.2258
 1.9290	31.4527
 1.9280	31.3273
 1.9270	31.6348
 1.9260	31.3875
 1.9250	31.6531
 1.9240	31.5866
 1.9230	31.6177
 1.9220	31.6069
 1.9210	31.6653
 1.9200	31.6376
 1.9190	31.8209
 1.9180	31.6845
 1.9170	31.8151
 1.9160	31.7990
 1.9150	31.8769
 1.9140	31.8369
 1.9130	31.9490
 1.9120	31.9394
 1.9110	32.0050
 1.9100	31.9808
 1.9090	32.1037
 1.9080	32.1648
 1.9070	32.1983
 1.9060	32.1211
 1.9050	32.2932
 1.9040	32.2251
 1.9030	32.4670
 1.9020	32.3991
 1.9010	32.4641
 1.9000	32.4368
 1.8990	32.4392
 1.8980	32.5020
 1.8970	32.5827
 1.8960	32.6292
 1.8950	32.7560
 1.8940	32.7083
 1.8930	32.7712
 1.8920	32.7718
 1.8910	32.8923
 1.8900	32.8817
 1.8890	32.9998
 1.8880	33.0071
 1.8870	33.0327
 1.8860	33.0874
 1.8850	33.1069
 1.8840	33.2356
 1.8830	33.2557
 1.8820	33.3155
 1.8810	33.4020
 1.8800	33.4403
 1.8790	33.5377
 1.8780	33.5528
 1.8770	33.6629
 1.8760	33.6576
 1.8750	33.8136
 1.8740	33.7843
 1.8730	33.9147
 1.8720	33.9035
 1.8710	33.9787
 1.8700	33.9344
 1.8690	34.0735
 1.8680	33.9796
 1.8670	34.1145
 1.8660	34.0537
 1.8650	34.1919
 1.8640	34.1972
 1.8630	34.2373
 1.8620	34.3438
 1.8610	34.3917
 1.8600	34.4290
 1.8590	34.4963
 1.8580	34.4271
 1.8570	34.5627
 1.8560	34.6225
 1.8550	34.7527
 1.8540	34.7560
 1.8530	34.8627
 1.8520	34.8518
 1.8510	34.8886
 1.8500	34.9669
 1.8490	35.0413
 1.8480	35.0120
 1.8470	35.0613
 1.8460	35.1807
 1.8450	35.2286
 1.8440	35.2502
 1.8430	35.3175
 1.8420	35.3531
 1.8410	35.4513
 1.8400	35.5254
 1.8390	35.6111
 1.8380	35.6037
 1.8370	35.5916
 1.8360	35.7013
 1.8350	35.7535
 1.8340	35.7374
 1.8330	35.7926
 1.8320	35.8822
 1.8310	35.9177
 1.8300	35.9549
 1.8290	36.0592
 1.8280	36.0480
 1.8270	36.1380
 1.8260	36.1184
 1.8250	36.2566
 1.8240	36.3838
 1.8230	36.4289
 1.8220	36.4128
 1.8210	36.4711
 1.8200	36.5313
 1.8190	36.5655
 1.8180	36.6030
 1.8170	36.7152
 1.8160	36.7607
 1.8150	36.8147
 1.8140	36.8538
 1.8130	36.9214
 1.8120	36.9500
 1.8110	36.9946
 1.8100	37.1045
 1.8090	37.1925
 1.8080	37.2401
 1.8070	37.3171
 1.8060	37.3162
 1.8050	37.4106
 1.8040	37.4932
 1.8030	37.5479
 1.8020	37.5801
 1.8010	37.6410
 1.8000	37.6676
 1.7990	37.7569
 1.7980	37.8433
 1.7970	37.8983
 1.7960	37.9466
 1.7950	38.0195
 1.7940	38.1308
 1.7930	38.1853
 1.7920	38.2019
 1.7910	38.2631
 1.7900	38.3693
 1.7890	38.4420
 1.7880	38.4529
 1.7870	38.5110
 1.7860	38.5649
 1.7850	38.6602
 1.7840	38.7736
 1.7830	38.8432
 1.7820	38.9021
 1.7810	38.9738
 1.7800	39.0477
 1.7790	39.1024
 1.7780	39.1697
 1.7770	39.2618
 1.7760	39.3147
 1.7750	39.3477
 1.7740	39.4374
 1.7730	39.5009
 1.7720	39.6058
 1.7710	39.6541
 1.7700	39.7234
 1.7690	39.7976
 1.7680	39.8348
 1.7670	39.8684
 1.7660	39.9541
 1.7650	40.0277
 1.7640	40.1189
 1.7630	40.2135
 1.7620	40.3130
 1.7610	40.3269
 1.7600	40.3768
 1.7590	40.4449
 1.7580	40.5517
 1.7570	40.5736
 1.7560	40.6429
 1.7550	40.7597
 1.7540	40.8276
 1.7530	40.8706
 1.7520	40.9902
 1.7510	41.0396
 1.7500	41.1016
 1.7490	41.1651
 1.7480	41.3043
 1.7470	41.3478
 1.7460	41.4478
 1.7450	41.5305
 1.7440	41.5653
 1.7430	41.6219
 1.7420	41.7410
 1.7410	41.8086
 1.7400	41.8836
 1.7390	41.9255
 1.7380	42.0087
 1.7370	42.0614
 1.7360	42.1579
 1.7350	42.2388
 1.7340	42.3260
 1.7330	42.3613
 1.7320	42.4603
 1.7310	42.5278
 1.7300	42.5820
 1.7290	42.6861
 1.7280	42.7868
 1.7270	42.8477
 1.7260	42.9478
 1.7250	42.9939
 1.7240	43.0790
 1.7230	43.1289
 1.7220	43.1993
 1.7210	43.2726
 1.7200	43.4085
 1.7190	43.4396
 1.7180	43.5636
 1.7170	43.5451
 1.7160	43.6553
 1.7150	43.7180
 1.7140	43.7710
 1.7130	43.8178
 1.7120	44.0527
 1.7110	44.0460
 1.7100	44.1620
 1.7090	44.1559
 1.7080	44.3172
 1.7070	44.3689
 1.7060	44.4756
 1.7050	44.4754
 1.7040	44.5014
 1.7030	44.6801
 1.7020	44.7313
 1.7010	44.7732
 1.7000	44.8865
 1.6990	44.9128
 1.6980	45.0528
 1.6970	45.0482
 1.6960	45.1746
 1.6950	45.2659
 1.6940	45.3434
 1.6930	45.3430
 1.6920	45.4744
 1.6910	45.4959
 1.6900	45.6631
 1.6890	45.6323
 1.6880	45.7437
 1.6870	45.7940
 1.6860	45.9332
 1.6850	45.9593
 1.6840	46.0821
 1.6830	46.1191
 1.6820	46.2566
 1.6810	46.2097
 1.6800	46.3564
 1.6790	46.3224
 1.6780	46.4211
 1.6770	46.5427
 1.6760	46.6679
 1.6750	46.7098
 1.6740	46.8325
 1.6730	46.8325
 1.6720	47.0059
 1.6710	46.9777
 1.6700	47.0916
 1.6690	47.1795
 1.6680	47.1509
 1.6670	47.2319
 1.6660	47.3064
 1.6650	47.3081
 1.6640	47.4133
 1.6630	47.5049
 1.6620	47.6388
 1.6610	47.7060
 1.6600	47.7434
 1.6590	47.8235
 1.6580	47.8600
 1.6570	47.9394
 1.6560	48.0516
 1.6550	48.1418
 1.6540	48.2465
 1.6530	48.2324
 1.6520	48.3827
 1.6510	48.4280
 1.6500	48.5124
 1.6490	48.5389
 1.6480	48.6666
 1.6470	48.7162
 1.6460	48.8101
 1.6450	48.8563
 1.6440	48.9849
 1.6430	48.9706
 1.6420	49.1760
 1.6410	49.0074
 1.6400	49.3387
 1.6390	49.2569
 1.6380	49.3006
 1.6370	49.3494
 1.6360	49.5208
 1.6350	49.5576
 1.6340	49.7329
 1.6330	49.6830
 1.6320	49.8293
 1.6310	49.8586
 1.6300	49.9826
 1.6290	50.0464
 1.6280	50.1294
 1.6270	50.1350
 1.6260	50.2940
 1.6250	50.3230
 1.6240	50.4300
 1.6230	50.4331
 1.6220	50.5891
 1.6210	50.6304
 1.6200	50.6458
 1.6190	50.7084
 1.6180	50.8691
 1.6170	50.9045
 1.6160	50.9587
 1.6150	51.0876
 1.6140	51.1763
 1.6130	51.1949
 1.6120	51.2735
 1.6110	51.2709
 1.6100	51.4096
 1.6090	51.3655
 1.6080	51.5340
 1.6070	51.5447
 1.6060	51.6303
 1.6050	51.6786
 1.6040	51.7574
 1.6030	51.8403
 1.6020	51.9096
 1.6010	51.9678
 1.6000	52.0387
 1.5990	52.1175
 1.5980	52.1483
 1.5970	52.1613
 1.5960	52.2530
 1.5950	52.3167
 1.5940	52.4004
 1.5930	52.3623
 1.5920	52.4300
 1.5910	52.5241
 1.5900	52.5623
 1.5890	52.6540
 1.5880	52.6462
 1.5870	52.6947
 1.5860	52.8688
 1.5850	52.8030
 1.5840	52.8995
 1.5830	52.9442
 1.5820	52.9872
 1.5810	52.9941
 1.5800	53.0711
 1.5790	53.1271
 1.5780	53.1907
 1.5770	53.2100
 1.5760	53.2225
 1.5750	53.2848
 1.5740	53.3760
 1.5730	53.3392
 1.5720	53.4100
 1.5710	53.4060
 1.5700	53.4701
 1.5690	53.5025
 1.5680	53.5256
 1.5670	53.4828
 1.5660	53.5816
 1.5650	53.5680
 1.5640	53.6156
 1.5630	53.6161
 1.5620	53.6297
 1.5610	53.6321
 1.5600	53.6875
 1.5590	53.6767
 1.5580	53.7201
 1.5570	53.7148
 1.5560	53.7405
 1.5550	53.7211
 1.5540	53.8057
 1.5530	53.7981
 1.5520	53.8422
 1.5510	53.8140
 1.5500	53.8262
 1.5490	53.8970
 1.5480	53.8597
 1.5470	53.8828
 1.5460	53.9581
 1.5450	53.9418
 1.5440	53.9808
 1.5430	53.9678
 1.5420	54.0415
 1.5410	54.0723
 1.5400	54.0733
 1.5390	54.1135
 1.5380	54.1725
 1.5370	54.1984
 1.5360	54.2099
 1.5350	54.2368
 1.5340	54.3310
 1.5330	54.3444
 1.5320	54.3487
 1.5310	54.3586
 1.5300	54.3884
 1.5290	54.4564
 1.5280	54.5280
 1.5270	54.4932
 1.5260	54.5279
 1.5250	54.5663
 1.5240	54.6150
 1.5230	54.6063
 1.5220	54.6395
 1.5210	54.6689
 1.5200	54.6830
 1.5190	54.7282
 1.5180	54.7237
 1.5170	54.6745
 1.5160	54.7349
 1.5150	54.7924
 1.5140	54.8467
 1.5130	54.8527
 1.5120	54.8881
 1.5110	54.8643
 1.5100	54.8247
 1.5090	54.8447
 1.5080	54.8410
 1.5070	54.8488
 1.5060	54.8662
 1.5050	54.8306
 1.5040	54.8485
 1.5030	54.8252
 1.5020	54.8112
 1.5010	54.8384
 1.5000	54.8685
 1.4990	54.8534
 1.4980	54.7830
 1.4970	54.7559
 1.4960	54.7294
 1.4950	54.6792
 1.4940	54.6672
 1.4930	54.6325
 1.4920	54.5984
 1.4910	54.5631
 1.4900	54.4770
 1.4890	54.4703
 1.4880	54.4268
 1.4870	54.3694
 1.4860	54.2885
 1.4850	54.2321
 1.4840	54.1827
 1.4830	54.1305
 1.4820	54.0858
 1.4810	54.0334
 1.4800	53.9391
 1.4790	53.9055
 1.4780	53.8490
 1.4770	53.7463
 1.4760	53.6423
 1.4750	53.5795
 1.4740	53.4818
 1.4730	53.4024
 1.4720	53.3425
 1.4710	53.2722
 1.4700	53.1178
 1.4690	53.0150
 1.4680	52.9413
 1.4670	52.8318
 1.4660	52.6663
 1.4650	52.5486
 1.4640	52.4557
 1.4630	52.4446
 1.4620	52.3054
 1.4610	52.1549
 1.4600	51.9996
 1.4590	51.8912
 1.4580	51.7171
 1.4570	51.6074
 1.4560	51.4748
 1.4550	51.3443
 1.4540	51.2709
 1.4530	51.1393
 1.4520	50.9166
 1.4510	50.7896
 1.4500	50.6780
 1.4490	50.5259
 1.4480	50.3257
 1.4470	50.2345
 1.4460	50.0443
 1.4450	49.8780
 1.4440	49.6552
 1.4430	49.5623
 1.4420	49.3623
 1.4410	49.2475
 1.4400	49.0461
 1.4390	48.8737
 1.4380	48.6489
 1.4370	48.5286
 1.4360	48.3598
 1.4350	48.1783
 1.4340	47.9651
 1.4330	47.8023
 1.4320	47.6120
 1.4310	47.4422
 1.4300	47.2030
 1.4290	47.0495
 1.4280	46.8458
 1.4270	46.6601
 1.4260	46.4541
 1.4250	46.2507
 1.4240	45.9716
 1.4230	45.8925
 1.4220	45.6427
 1.4210	45.4442
 1.4200	45.1983
 1.4190	45.0283
 1.4180	44.7070
 1.4170	44.6031
 1.4160	44.4002
 1.4150	44.1207
 1.4140	43.8887
 1.4130	43.7468
 1.4120	43.4177
 1.4110	43.3309
 1.4100	43.1108
 1.4090	42.8330
 1.4080	42.5815
 1.4070	42.4038
 1.4060	42.1246
 1.4050	41.9494
 1.4040	41.7403
 1.4030	41.5938
 1.4020	41.2732
 1.4010	40.9895
 1.4000	40.8016
 1.3990	40.6647
 1.3980	40.4072
 1.3970	40.2761
 1.3960	40.0044
 1.3950	39.7423
 1.3940	39.4728
 1.3930	39.3371
 1.3920	39.0626
 1.3910	38.8276
 1.3900	38.5810
 1.3890	38.4067
 1.3880	38.0727
 1.3870	37.9416
 1.3860	37.6581
 1.3850	37.5099
 1.3840	37.1876
 1.3830	37.0630
 1.3820	36.6967
 1.3810	36.4736
 1.3800	36.1469
 1.3790	36.0827
 1.3780	35.7262
 1.3770	35.6141
 1.3760	35.3194
 1.3750	35.1760
 1.3740	34.8300
 1.3730	34.6728
 1.3720	34.3358
 1.3710	34.3008
 1.3700	33.9309
 1.3690	33.8781
 1.3680	33.5219
 1.3670	33.3628
 1.3660	33.1003
 1.3650	33.0650
 1.3640	32.6782
 1.3630	32.5380
 1.3620	32.1736
 1.3610	32.0117
 1.3600	31.7657
 1.3590	31.6186
 1.3580	31.3416
 1.3570	31.2127
 1.3560	30.8903
 1.3550	30.6434
 1.3540	30.5129
 1.3530	30.3031
 1.3520	30.0050
 1.3510	29.9115
 1.3500	29.6243
 1.3490	29.5079
 1.3480	29.1683
 1.3470	29.0516
 1.3460	28.8107
 1.3450	28.7138
 1.3440	28.3620
 1.3430	28.3221
 1.3420	28.0019
 1.3410	27.9498
 1.3400	27.6056
 1.3390	27.5212
 1.3380	27.2898
 1.3370	27.1446
 1.3360	26.8843
 1.3350	26.7612
 1.3340	26.5914
 1.3330	26.4824
 1.3320	26.2174
 1.3310	26.0885
 1.3300	25.8679
 1.3290	25.7388
 1.3280	25.5242
 1.3270	25.4480
 1.3260	25.1699
 1.3250	25.1180
 1.3240	24.7904
 1.3230	24.7843
 1.3220	24.5140
 1.3210	24.4267
 1.3200	24.2088
 1.3190	24.1148
 1.3180	23.8860
 1.3170	23.7670
 1.3160	23.6089
 1.3150	23.5198
 1.3140	23.3497
 1.3130	23.2449
 1.3120	22.9655
 1.3110	22.9033
 1.3100	22.7595
 1.3090	22.5918
 1.3080	22.4315
 1.3070	22.3140
 1.3060	22.2118
 1.3050	22.0402
 1.3040	21.9027
 1.3030	21.8287
 1.3020	21.6802
 1.3010	21.5182
 1.3000	21.3976
 1.2990	21.2836
 1.2980	21.1299
 1.2970	21.0668
 1.2960	20.8349
 1.2950	20.7957
 1.2940	20.6814
 1.2930	20.5494
 1.2920	20.3788
 1.2910	20.3630
 1.2900	20.1938
 1.2890	20.0754
 1.2880	19.9435
 1.2870	19.8880
 1.2860	19.7966
 1.2850	19.7048
 1.2840	19.5122
 1.2830	19.4876
 1.2820	19.2966
 1.2810	19.2575
 1.2800	19.1134
 1.2790	19.0934
 1.2780	18.9480
 1.2770	18.8073
 1.2760	18.6709
 1.2750	18.6821
 1.2740	18.5912
 1.2730	18.4941
 1.2720	18.3881
 1.2710	18.3095
 1.2700	18.1857
 1.2690	18.1018
 1.2680	17.9545
 1.2670	17.9830
 1.2660	17.8756
 1.2650	17.8153
 1.2640	17.7069
 1.2630	17.6206
 1.2620	17.4814
 1.2610	17.4499
 1.2600	17.3787
 1.2590	17.3174
 1.2580	17.1903
 1.2570	17.1526
 1.2560	17.1081
 1.2550	17.0366
 1.2540	16.9273
 1.2530	16.8920
 1.2520	16.7861
 1.2510	16.7529
 1.2500	16.6649
 1.2490	16.5957
 1.2480	16.5816
 1.2470	16.4945
 1.2460	16.4235
 1.2450	16.3790
 1.2440	16.3226
 1.2430	16.2830
 1.2420	16.1637
 1.2410	16.1027
 1.2400	16.0702
 1.2390	16.0480
 1.2380	15.9919
 1.2370	15.9850
 1.2360	15.8901
 1.2350	15.8568
 1.2340	15.8007
 1.2330	15.7239
 1.2320	15.6639
 1.2310	15.5977
 1.2300	15.5855
 1.2290	15.5651
 1.2280	15.4779
 1.2270	15.4722
 1.2260	15.4202
 1.2250	15.3668
 1.2240	15.3073
 1.2230	15.3012
 1.2220	15.2149
 1.2210	15.1960
 1.2200	15.1676
 1.2190	15.1085
 1.2180	15.0774
 1.2170	15.0463
 1.2160	15.0141
 1.2150	14.9550
 1.2140	14.9519
 1.2130	14.9082
 1.2120	14.8969
 1.2110	14.8978
 1.2100	14.8389
 1.2090	14.7917
 1.2080	14.7678
 1.2070	14.7647
 1.2060	14.7171
 1.2050	14.7099
 1.2040	14.7471
 1.2030	14.6547
 1.2020	14.6133
 1.2010	14.6079
 1.2000	14.6030
 1.1990	14.5520
 1.1980	14.5222
 1.1970	14.4748
 1.1960	14.5045
 1.1950	14.5172
 1.1940	14.4981
 1.1930	14.4194
 1.1920	14.4191
 1.1910	14.4130
 1.1900	14.4280
 1.1890	14.4731
 1.1880	14.3098
 1.1870	14.3110
 1.1860	14.3946
 1.1850	14.2884
 1.1840	14.3455
 1.1830	14.3066
 1.1820	14.2935
 1.1810	14.2567
 1.1800	14.2613
 1.1790	14.2376
 1.1780	14.2589
 1.1770	14.2049
 1.1760	14.2396
 1.1750	14.2131
 1.1740	14.2127
 1.1730	14.1938
 1.1720	14.3011
 1.1710	14.2403
 1.1700	14.2286
 1.1690	14.1822
 1.1680	14.2674
 1.1670	14.2043
 1.1660	14.3074
 1.1650	14.2115
 1.1640	14.2503
 1.1630	14.2852
 1.1620	14.2707
 1.1610	14.1793
 1.1600	14.2868
 1.1590	14.2575
 1.1580	14.2949
 1.1570	14.2668
 1.1560	14.3000
 1.1550	14.2319
 1.1540	14.2785
 1.1530	14.2576
 1.1520	14.3697
 1.1510	14.3680
 1.1500	14.3680
 1.1490	14.3407
 1.1480	14.3656
 1.1470	14.3776
 1.1460	14.3992
 1.1450	14.3874
 1.1440	14.4398
 1.1430	14.4419
 1.1420	14.4813
 1.1410	14.5213
 1.1400	14.5965
 1.1390	14.5138
 1.1380	14.6061
 1.1370	14.6185
 1.1360	14.6794
 1.1350	14.5749
 1.1340	14.6574
 1.1330	14.6449
 1.1320	14.7309
 1.1310	14.7618
 1.1300	14.7665
 1.1290	14.7519
 1.1280	14.8359
 1.1270	14.7609
 1.1260	14.8526
 1.1250	14.8737
 1.1240	14.8913
 1.1230	14.8536
 1.1220	15.0097
 1.1210	14.9772
 1.1200	15.0598
 1.1190	14.9758
 1.1180	15.1863
 1.1170	15.0896
 1.1160	15.1951
 1.1150	15.1715
 1.1140	15.3261
 1.1130	15.2306
 1.1120	15.3896
 1.1110	15.3423
 1.1100	15.4710
 1.1090	15.4093
 1.1080	15.5971
 1.1070	15.5536
 1.1060	15.6483
 1.1050	15.6518
 1.1040	15.7182
 1.1030	15.7271
 1.1020	15.8920
 1.1010	15.7864
 1.1000	15.9674
 1.0990	15.9315
 1.0980	16.0640
 1.0970	15.9666
 1.0960	16.1139
 1.0950	16.1519
 1.0940	16.2444
 1.0930	16.2389
 1.0920	16.3927
 1.0910	16.3359
 1.0900	16.5496
 1.0890	16.4928
 1.0880	16.6412
 1.0870	16.5467
 1.0860	16.7653
 1.0850	16.7617
 1.0840	16.8125
 1.0830	16.8692
 1.0820	17.0309
 1.0810	16.9574
 1.0800	17.1768
 1.0790	17.0941
 1.0780	17.2193
 1.0770	17.3478
 1.0760	17.4151
 1.0750	17.4758
 1.0740	17.5924
 1.0730	17.4859
 1.0720	17.7469
 1.0710	17.8880
 1.0700	17.8078
 1.0690	17.9511
 1.0680	18.1109
 1.0670	18.0262
 1.0660	18.3284
 1.0650	18.2373
 1.0640	18.4158
 1.0630	18.5009
 1.0620	18.5645
 1.0610	18.5759
 1.0600	18.7596
 1.0590	18.7782
 1.0580	18.9233
 1.0570	19.0186
 1.0560	19.0754
 1.0550	19.1401
 1.0540	19.3936
 1.0530	19.3488
 1.0520	19.5769
 1.0510	19.5924
 1.0500	19.8052
 1.0490	19.7338
 1.0480	19.9842
 1.0470	20.0067
 1.0460	20.2295
 1.0450	20.1655
 1.0440	20.4661
 1.0430	20.5278
 1.0420	20.6394
 1.0410	20.7375
 1.0400	20.8537
 1.0390	20.8753
 1.0380	21.1219
 1.0370	21.2015
 1.0360	21.4088
 1.0350	21.3809
 1.0340	21.6549
 1.0330	21.6708
 1.0320	21.9070
 1.0310	21.9463
 1.0300	22.1999
 1.0290	22.1853
 1.0280	22.4599
 1.0270	22.5448
 1.0260	22.7029
 1.0250	22.7660
 1.0240	23.0259
 1.0230	23.0771
 1.0220	23.2853
 1.0210	23.4038
 1.0200	23.5551
 1.0190	23.6173
 1.0180	23.8468
 1.0170	23.9949
 1.0160	24.2000
 1.0150	24.3316
 1.0140	24.4899
 1.0130	24.6606
 1.0120	24.8458
 1.0110	24.9764
 1.0100	25.1833
 1.0090	25.2380
 1.0080	25.4492
 1.0070	25.5361
 1.0060	25.7693
 1.0050	25.9452
 1.0040	26.2168
 1.0030	26.2684
 1.0020	26.5112
 1.0010	26.6462
 1.0000	26.8691
 0.9990	26.9986
 0.9980	27.2168
 0.9970	27.3532
 0.9960	27.5593
 0.9950	27.7651
 0.9940	27.9483
 0.9930	28.0752
 0.9920	28.3155
 0.9910	28.5116
 0.9900	28.7220
 0.9890	28.9344
 0.9880	29.1339
 0.9870	29.2813
 0.9860	29.5476
 0.9850	29.6926
 0.9840	29.9720
 0.9830	30.1636
 0.9820	30.3899
 0.9810	30.5701
 0.9800	30.8022
 0.9790	31.0122
 0.9780	31.3037
 0.9770	31.4336
 0.9760	31.6437
 0.9750	31.8377
 0.9740	32.0575
 0.9730	32.2500
 0.9720	32.5452
 0.9710	32.7480
 0.9700	32.9763
 0.9690	33.2209
 0.9680	33.4943
 0.9670	33.6833
 0.9660	33.8995
 0.9650	34.1306
 0.9640	34.3869
 0.9630	34.5938
 0.9620	34.8390
 0.9610	35.0642
 0.9600	35.3412
 0.9590	35.5837
 0.9580	35.8365
 0.9570	36.0402
 0.9560	36.3283
 0.9550	36.5917
 0.9540	36.8025
 0.9530	37.0166
 0.9520	37.2970
 0.9510	37.4943
 0.9500	37.7831
 0.9490	38.0387
 0.9480	38.3035
 0.9470	38.5753
 0.9460	38.8488
 0.9450	39.0489
 0.9440	39.3072
 0.9430	39.5374
 0.9420	39.7939
 0.9410	40.0862
 0.9400	40.3377
 0.9390	40.5716
 0.9380	40.8674
 0.9370	41.0949
 0.9360	41.3023
 0.9350	41.5765
 0.9340	41.8884
 0.9330	42.1415
 0.9320	42.3746
 0.9310	42.5777
 0.9300	42.8484
 0.9290	43.1173
 0.9280	43.3867
 0.9270	43.6487
 0.9260	43.9097
 0.9250	44.1632
 0.9240	44.3626
 0.9230	44.6276
 0.9220	44.9435
 0.9210	45.1691
 0.9200	45.3836
 0.9190	45.6587
 0.9180	45.9299
 0.9170	46.1953
 0.9160	46.4025
 0.9150	46.6707
 0.9140	46.9294
 0.9130	47.2021
 0.9120	47.3885
 0.9110	47.6071
 0.9100	47.8844
 0.9090	48.1662
 0.9080	48.4051
 0.9070	48.6665
 0.9060	48.8797
 0.9050	49.1067
 0.9040	49.3100
 0.9030	49.5814
 0.9020	49.8237
 0.9010	50.0751
 0.9000	50.2590
 0.8990	50.4459
 0.8980	50.6604
 0.8970	50.9132
 0.8960	51.1097
 0.8950	51.3737
 0.8940	51.5513
 0.8930	51.7908
 0.8920	51.9856
 0.8910	52.1840
 0.8900	52.3788
 0.8890	52.5857
 0.8880	52.8056
 0.8870	52.9806
 0.8860	53.1663
 0.8850	53.4220
 0.8840	53.6220
 0.8830	53.8090
 0.8820	53.9728
 0.8810	54.1885
 0.8800	54.3828
 0.8790	54.5911
 0.8780	54.6878
 0.8770	54.8857
 0.8760	55.0359
 0.8750	55.3197
 0.8740	55.4407
 0.8730	55.6024
 0.8720	55.7468
 0.8710	55.9068
 0.8700	56.0477
 0.8690	56.2982
 0.8680	56.4476
 0.8670	56.5328
 0.8660	56.6398
 0.8650	56.8541
 0.8640	56.9920
 0.8630	57.0803
 0.8620	57.2631
 0.8610	57.4358
 0.8600	58.0681
 0.8590	58.3768
 0.8580	58.5781
 0.8570	58.6000
 0.8560	58.8078
 0.8550	58.9852
 0.8540	58.9993
 0.8530	59.1084
 0.8520	59.2374
 0.8510	59.2965
 0.8500	59.4184
 0.8490	59.4913
 0.8480	59.5749
 0.8470	59.6712
 0.8460	59.7849
 0.8450	59.8564
 0.8440	59.9611
 0.8430	60.0567
 0.8420	60.1306
 0.8410	60.2123
 0.8400	60.2896
 0.8390	60.3497
 0.8380	60.4122
 0.8370	60.4840
 0.8360	60.5611
 0.8350	60.5996
 0.8340	60.6449
 0.8330	60.7223
 0.8320	60.7935
 0.8310	60.8074
 0.8300	60.8415
 0.8290	60.9219
 0.8280	60.9396
 0.8270	61.0211
 0.8260	61.0513
 0.8250	61.0718
 0.8240	61.1635
 0.8230	61.1386
 0.8220	61.1624
 0.8210	61.2147
 0.8200	61.2648
 0.8190	61.2731
 0.8180	61.3411
 0.8170	61.3051
 0.8160	61.2851
 0.8150	61.3608
 0.8140	61.3959
 0.8130	61.3608
 0.8120	61.4097
 0.8110	61.4154
 0.8100	61.3938
 0.8090	61.4184
 0.8080	61.4471
 0.8070	61.4290
 0.8060	61.4356
 0.8050	61.4587
 0.8040	61.4045
 0.8030	61.4468
 0.8020	61.4465
 0.8010	61.4099
 0.8000	61.3703
 0.7990	61.3773
 0.7980	61.3618
 0.7970	61.3431
 0.7960	61.3114
 0.7950	61.2620
 0.7940	61.2416
 0.7930	61.2598
 0.7920	61.2347
 0.7910	61.1757
 0.7900	61.2076
 0.7890	61.1519
 0.7880	61.1292
 0.7870	61.1008
 0.7860	61.0595
 0.7850	61.0405
 0.7840	61.0429
 0.7830	61.0015
 0.7820	60.9237
 0.7810	60.9323
 0.7800	60.8931
 0.7790	60.8703
 0.7780	60.8334
 0.7770	60.8176
 0.7760	60.7140
 0.7750	60.6824
 0.7740	60.6345
 0.7730	60.6067
 0.7720	60.5714
 0.7710	60.5234
 0.7700	60.4794
 0.7690	60.4316
 0.7680	60.4236
 0.7670	60.3841
 0.7660	60.3251
 0.7650	60.2837
 0.7640	60.2429
 0.7630	60.1777
 0.7620	60.1196
 0.7610	60.0982
 0.7600	60.0670
 0.7590	60.0121
 0.7580	59.9522
 0.7570	59.9047
 0.7560	59.8563
 0.7550	59.8116
 0.7540	59.7592
 0.7530	59.7098
 0.7520	59.6577
 0.7510	59.6072
 0.7500	59.5402
 0.7490	59.4743
 0.7480	59.4515
 0.7470	59.4012
 0.7460	59.3409
 0.7450	59.2962
 0.7440	59.2490
 0.7430	59.1608
 0.7420	59.1117
 0.7410	59.0822
 0.7400	59.0075
 0.7390	58.9478
 0.7380	58.9267
 0.7370	58.8350
 0.7360	58.7792
 0.7350	58.7256
 0.7340	58.6624
 0.7330	58.6151
 0.7320	58.5585
 0.7310	58.4943
 0.7300	58.4507
 0.7290	58.3740
 0.7280	58.3259
 0.7270	58.2509
 0.7260	58.1955
 0.7250	58.1382
 0.7240	58.0754
 0.7230	58.0230
 0.7220	57.9510
 0.7210	57.8918
 0.7200	57.8236
 0.7190	57.7479
 0.7180	57.6737
 0.7170	57.6179
 0.7160	57.5643
 0.7150	57.5028
 0.7140	57.4217
 0.7130	57.3601
 0.7120	57.3133
 0.7110	57.2537
 0.7100	57.1772
 0.7090	57.1158
 0.7080	57.0264
 0.7070	56.9681
 0.7060	56.8938
 0.7050	56.8143
 0.7040	56.7440
 0.7030	56.7114
 0.7020	56.6250
 0.7010	56.5468
 0.7000	56.4930
 0.6990	56.4143
 0.6980	56.3314
 0.6970	56.2705
 0.6960	56.2137
 0.6950	56.1288
 0.6940	56.0707
 0.6930	55.9855
 0.6920	55.8919
 0.6910	55.8209
 0.6900	55.7398
 0.6890	55.6837
 0.6880	55.6087
 0.6870	55.5302
 0.6860	55.4367
 0.6850	55.3534
 0.6840	55.2838
 0.6830	55.2133
 0.6820	55.1240
 0.6810	55.0482
 0.6800	54.9777
 0.6790	54.8838
 0.6780	54.8079
 0.6770	54.7394
 0.6760	54.6607
 0.6750	54.5811
 0.6740	54.4911
 0.6730	54.4077
 0.6720	54.3357
 0.6710	54.2552
 0.6700	54.1783
 0.6690	54.1016
 0.6680	54.0235
 0.6670	53.9403
 0.6660	53.8708
 0.6650	53.7815
 0.6640	53.7078
 0.6630	53.6384
 0.6620	53.5601
 0.6610	53.4747
 0.6600	53.4060
 0.6590	53.3363
 0.6580	53.2601
 0.6570	53.1718
 0.6560	53.0984
 0.6550	53.0206
 0.6540	52.9413
 0.6530	52.8545
 0.6520	52.7651
 0.6510	52.6997
 0.6500	52.6251
 0.6490	52.5503
 0.6480	52.4732
 0.6470	52.3922
 0.6460	52.3151
 0.6450	52.2454
 0.6440	52.1743
 0.6430	52.0948
 0.6420	52.0129
 0.6410	51.9289
 0.6400	51.8545
 0.6390	51.7779
 0.6380	51.6972
 0.6370	51.6142
 0.6360	51.5384
 0.6350	51.4608
 0.6340	51.3831
 0.6330	51.3068
 0.6320	51.2315
 0.6310	51.1602
 0.6300	51.0883
 0.6290	51.0100
 0.6280	50.9259
 0.6270	50.8434
 0.6260	50.7658
 0.6250	50.6964
 0.6240	50.6184
 0.6230	50.5418
 0.6220	50.4575
 0.6210	50.3705
 0.6200	50.3045
 0.6190	50.2328
 0.6180	50.1475
 0.6170	50.0595
 0.6160	49.9894
 0.6150	49.9091
 0.6140	49.8220
 0.6130	49.7551
 0.6120	49.6850
 0.6110	49.5967
 0.6100	49.5185
 0.6090	49.4427
 0.6080	49.3629
 0.6070	49.2797
 0.6060	49.2025
 0.6050	49.1249
 0.6040	49.0373
 0.6030	48.9660
 0.6020	48.8979
 0.6010	48.8158
 0.6000	48.7422
 0.5990	48.6649
 0.5980	48.5837
 0.5970	48.5218
 0.5960	48.4599
 0.5950	48.3913
 0.5940	48.3167
 0.5930	48.2323
 0.5920	48.1505
 0.5910	48.0754
 0.5900	47.9966
 0.5890	47.9232
 0.5880	47.8565
 0.5870	47.7836
 0.5860	47.7085
 0.5850	47.6325
 0.5840	47.5481
 0.5830	47.4827
 0.5820	47.4115
 0.5810	47.3335
 0.5800	47.2654
 0.5790	47.2000
 0.5780	47.1308
 0.5770	47.0638
 0.5760	46.9991
 0.5750	46.9291
 0.5740	46.8645
 0.5730	46.7995
 0.5720	46.7187
 0.5710	46.6556
 0.5700	46.5935
 0.5690	46.5308
 0.5680	46.4656
 0.5670	46.4025
 0.5660	46.3412
 0.5650	46.2835
 0.5640	46.2280
 0.5630	46.1615
 0.5620	46.1065
 0.5610	46.0085
 0.5600	45.9344
 0.5590	45.8775
 0.5580	45.8226
 0.5570	45.7671
 0.5560	45.7139
 0.5550	45.6484
 0.5540	45.5921
 0.5530	45.5443
 0.5520	45.4928
 0.5510	45.4336
 0.5500	45.3943
 0.5490	45.3497
 0.5480	45.3010
 0.5470	45.2613
 0.5460	45.2209
 0.5450	45.1953
 0.5440	45.1441
 0.5430	45.1153
 0.5420	45.0721
 0.5410	45.0412
 0.5400	45.0109
 0.5390	44.9859
 0.5380	44.9493
 0.5370	44.9175
 0.5360	44.8954
 0.5350	44.8619
 0.5340	44.8318
 0.5330	44.8162
 0.5320	44.8016
 0.5310	44.7686
 0.5300	44.7520
 0.5290	44.7316
 0.5280	44.7059
 0.5270	44.6930
 0.5260	44.6831
 0.5250	44.6656
 0.5240	44.6467
 0.5230	44.6362
 0.5220	44.6108
 0.5210	44.5915
 0.5200	44.5690
 0.5190	44.5349
 0.5180	44.5120
 0.5170	44.4851
 0.5160	44.4523
 0.5150	44.4144
 0.5140	44.3956
 0.5130	44.3709
 0.5120	44.3551
 0.5110	44.3571
 0.5100	44.3487
 0.5090	44.3439
 0.5080	44.3479
 0.5070	44.3457
 0.5060	44.3373
 0.5050	44.3372
 0.5040	44.3073
 0.5030	44.2810
 0.5020	44.2533
 0.5010	44.2171
 0.5000	44.1841
 0.4990	44.1418
 0.4980	44.1176
 0.4970	44.1092
 0.4960	44.0744
 0.4950	44.0642
 0.4940	44.0439
 0.4930	44.0329
 0.4920	44.0202
 0.4910	44.0111
 0.4900	44.0045
 0.4890	44.0002
 0.4880	44.0173
 0.4870	44.0081
 0.4860	43.9887
 0.4850	43.9922
 0.4840	43.9820
 0.4830	43.9661
 0.4820	43.9657
 0.4810	43.9468
 0.4800	43.9572
 0.4790	43.9455
 0.4780	43.9457
 0.4770	43.9201
 0.4760	43.8813
 0.4750	43.8237
 0.4740	43.7636
 0.4730	43.6870
 0.4720	43.6148
 0.4710	43.5597
 0.4700	43.5008
 0.4690	43.4370
 0.4680	43.3843
 0.4670	43.3384
 0.4660	43.2869
 0.4650	43.2430
 0.4640	43.1887
 0.4630	43.1415
 0.4620	43.0930
 0.4610	43.0402
 0.4600	42.9876
 0.4590	42.8990
 0.4580	42.8255
 0.4570	42.7307
 0.4560	42.6269
 0.4550	42.5178
 0.4540	42.4011
 0.4530	42.2789
 0.4520	42.1401
 0.4510	42.0099
 0.4500	41.8784
 0.4490	41.7150
 0.4480	41.5683
 0.4470	41.3799
 0.4460	41.1957
 0.4450	40.9888
 0.4440	40.7754
 0.4430	40.5424
 0.4420	40.3275
 0.4410	40.1288
 0.4400	39.9520
 0.4390	39.8123
 0.4380	39.7204
 0.4370	39.6817
 0.4360	39.6603
 0.4350	39.6720
 0.4340	39.6780
 0.4330	39.6708
 0.4320	39.6445
 0.4310	39.6045
 0.4300	39.5671
 0.4290	39.5204
 0.4280	39.4866
 0.4270	39.4527
 0.4260	39.4266
 0.4250	39.4164
 0.4240	39.3966
 0.4230	39.3691
 0.4220	39.2957
 0.4210	39.1683
 0.4200	38.9889
 0.4190	38.7306
 0.4180	38.4121
 0.4170	38.0515
 0.4160	37.7386
 0.4150	37.5820
 0.4140	37.6354
 0.4130	37.9733
 0.4120	38.5202
 0.4110	39.1880
 0.4100	39.7977
 0.4090	40.1974
 0.4080	40.3616
 0.4070	40.3245
 0.4060	40.2000
 0.4050	40.0265
 0.4040	39.8430
 0.4030	39.6349
 0.4020	39.3648
 0.4010	39.0386
 0.4000	38.7083
