Name: Corrensite (Mg,Fe)_9(Si,Al)_8O_20(OH)_10._xH_2O
Type: Mineral
Class: Silicate
Subclass: Phyllosilicate
Particle Size: Fine
Sample No.: PS-10A
Owner: JPL
Wavelength Range: VSWIR
Origin: USA, Washington, Packwood.
Collection Date: N/A
Description: Particle size was 0-45um.Collected by:  Clay Mineral Society Original ASTER Spectral Library name was jpl.perkin.mineral.silicate.phyllosilicate.fine.ps10a.spectrum.txt
Measurement: Hemispherical reflectance
First Column: X
Second Column: Y
X Units: Wavelength (micrometers)
Y Units:Reflectance (percent)
First X Value:  2.5000
Last X Value:  0.4000
Number of X Values: 2101
Additional Information: mineral.silicate.phyllosilicate.fine.vswir.ps-10a.jpl.perkin.ancillary.txt

 2.5000	56.2067
 2.4990	56.0987
 2.4980	56.3170
 2.4970	56.2378
 2.4960	56.1273
 2.4950	56.2821
 2.4940	56.3820
 2.4930	56.2241
 2.4920	56.6312
 2.4910	56.4958
 2.4900	56.6287
 2.4890	56.4589
 2.4880	56.6868
 2.4870	56.5620
 2.4860	56.7278
 2.4850	56.6773
 2.4840	56.9301
 2.4830	56.7641
 2.4820	56.9440
 2.4810	56.7570
 2.4800	56.9415
 2.4790	56.8377
 2.4780	57.0947
 2.4770	57.1068
 2.4760	57.3471
 2.4750	57.0722
 2.4740	57.2808
 2.4730	57.4199
 2.4720	57.4837
 2.4710	57.4405
 2.4700	57.6229
 2.4690	57.5027
 2.4680	57.6934
 2.4670	57.5669
 2.4660	57.7078
 2.4650	57.6184
 2.4640	57.9219
 2.4630	57.9183
 2.4620	57.8897
 2.4610	58.0408
 2.4600	57.9873
 2.4590	58.0884
 2.4580	58.1339
 2.4570	58.0695
 2.4560	58.2995
 2.4550	58.3517
 2.4540	58.4021
 2.4530	58.3043
 2.4520	58.5135
 2.4510	58.4687
 2.4500	58.6612
 2.4490	58.5975
 2.4480	58.6351
 2.4470	58.7445
 2.4460	58.8125
 2.4450	58.8632
 2.4440	58.9523
 2.4430	58.9186
 2.4420	59.0174
 2.4410	59.0857
 2.4400	59.1382
 2.4390	59.1174
 2.4380	59.1245
 2.4370	59.1002
 2.4360	59.2172
 2.4350	59.3859
 2.4340	59.4429
 2.4330	59.4072
 2.4320	59.5311
 2.4310	59.5568
 2.4300	59.6256
 2.4290	59.4727
 2.4280	59.5773
 2.4270	59.6847
 2.4260	59.7156
 2.4250	59.6449
 2.4240	59.7592
 2.4230	59.7743
 2.4220	59.7340
 2.4210	59.8392
 2.4200	59.8011
 2.4190	59.8695
 2.4180	59.9119
 2.4170	59.8358
 2.4160	59.9305
 2.4150	59.9912
 2.4140	59.9848
 2.4130	59.9724
 2.4120	60.0689
 2.4110	60.0897
 2.4100	60.1397
 2.4090	60.0953
 2.4080	60.1434
 2.4070	60.0388
 2.4060	60.0262
 2.4050	60.0115
 2.4040	60.0548
 2.4030	60.0854
 2.4020	60.0983
 2.4010	60.1129
 2.4000	60.2399
 2.3990	60.3047
 2.3980	60.2540
 2.3970	60.2330
 2.3960	60.3240
 2.3950	60.3359
 2.3940	60.3529
 2.3930	60.3862
 2.3920	60.4106
 2.3910	60.3609
 2.3900	60.4697
 2.3890	60.5819
 2.3880	60.6144
 2.3870	60.6117
 2.3860	60.6136
 2.3850	60.6243
 2.3840	60.6657
 2.3830	60.6699
 2.3820	60.6407
 2.3810	60.6301
 2.3800	60.6985
 2.3790	60.6944
 2.3780	60.7180
 2.3770	60.7637
 2.3760	60.7396
 2.3750	60.7250
 2.3740	60.7449
 2.3730	60.6829
 2.3720	60.7634
 2.3710	60.7603
 2.3700	60.7303
 2.3690	60.7897
 2.3680	60.8388
 2.3670	60.8303
 2.3660	60.8456
 2.3650	60.7902
 2.3640	60.7726
 2.3630	60.7923
 2.3620	60.7688
 2.3610	60.7567
 2.3600	60.7807
 2.3590	60.8002
 2.3580	60.7834
 2.3570	60.7793
 2.3560	60.8932
 2.3550	60.9031
 2.3540	60.8049
 2.3530	60.8732
 2.3520	60.8698
 2.3510	60.8224
 2.3500	60.8488
 2.3490	60.8805
 2.3480	60.8688
 2.3470	60.9555
 2.3460	60.9816
 2.3450	60.9418
 2.3440	61.0135
 2.3430	61.0518
 2.3420	60.9993
 2.3410	60.9997
 2.3400	61.0645
 2.3390	61.1398
 2.3380	61.1685
 2.3370	61.1502
 2.3360	61.2001
 2.3350	61.2692
 2.3340	61.2512
 2.3330	61.2987
 2.3320	61.2775
 2.3310	61.2516
 2.3300	61.2974
 2.3290	61.3571
 2.3280	61.4169
 2.3270	61.4322
 2.3260	61.4042
 2.3250	61.4513
 2.3240	61.4609
 2.3230	61.5408
 2.3220	61.5636
 2.3210	61.5611
 2.3200	61.4686
 2.3190	61.4988
 2.3180	61.5431
 2.3170	61.5964
 2.3160	61.6512
 2.3150	61.6231
 2.3140	61.6231
 2.3130	61.6629
 2.3120	61.6466
 2.3110	61.7137
 2.3100	61.6981
 2.3090	61.6826
 2.3080	61.7971
 2.3070	61.7863
 2.3060	61.7152
 2.3050	61.7615
 2.3040	61.8010
 2.3030	61.8804
 2.3020	61.8526
 2.3010	61.8344
 2.3000	61.8765
 2.2990	61.9176
 2.2980	61.9240
 2.2970	61.8947
 2.2960	61.8672
 2.2950	61.9820
 2.2940	62.0413
 2.2930	62.0847
 2.2920	62.0420
 2.2910	62.0349
 2.2900	62.1111
 2.2890	62.1977
 2.2880	62.1947
 2.2870	62.3114
 2.2860	62.2905
 2.2850	62.3474
 2.2840	62.4017
 2.2830	62.5016
 2.2820	62.5133
 2.2810	62.5879
 2.2800	62.6018
 2.2790	62.7259
 2.2780	62.7881
 2.2770	62.8556
 2.2760	62.8979
 2.2750	63.0005
 2.2740	63.0130
 2.2730	63.0490
 2.2720	63.1009
 2.2710	63.1537
 2.2700	63.1716
 2.2690	63.3074
 2.2680	63.2370
 2.2670	63.4253
 2.2660	63.3950
 2.2650	63.4796
 2.2640	63.5065
 2.2630	63.5709
 2.2620	63.5843
 2.2610	63.5786
 2.2600	63.6750
 2.2590	63.6884
 2.2580	63.7309
 2.2570	63.7646
 2.2560	63.8056
 2.2550	63.8722
 2.2540	63.9408
 2.2530	64.0458
 2.2520	64.0558
 2.2510	64.0260
 2.2500	64.1043
 2.2490	64.1985
 2.2480	64.2366
 2.2470	64.4039
 2.2460	64.4474
 2.2450	64.5751
 2.2440	64.5638
 2.2430	64.6891
 2.2420	64.7520
 2.2410	64.9024
 2.2400	64.8300
 2.2390	65.0187
 2.2380	65.0673
 2.2370	65.1563
 2.2360	65.2447
 2.2350	65.2763
 2.2340	65.3335
 2.2330	65.3747
 2.2320	65.5135
 2.2310	65.6112
 2.2300	65.6701
 2.2290	65.6950
 2.2280	65.7380
 2.2270	65.8335
 2.2260	65.9199
 2.2250	65.9559
 2.2240	65.9051
 2.2230	66.0411
 2.2220	66.0498
 2.2210	66.1931
 2.2200	66.2210
 2.2190	66.2374
 2.2180	66.2954
 2.2170	66.2676
 2.2160	66.3670
 2.2150	66.4759
 2.2140	66.4343
 2.2130	66.4954
 2.2120	66.4808
 2.2110	66.5139
 2.2100	66.5715
 2.2090	66.6023
 2.2080	66.6713
 2.2070	66.7170
 2.2060	66.6485
 2.2050	66.7286
 2.2040	66.7548
 2.2030	66.8492
 2.2020	66.8047
 2.2010	66.8955
 2.2000	66.8508
 2.1990	66.9667
 2.1980	66.9751
 2.1970	66.8635
 2.1960	66.9423
 2.1950	67.0843
 2.1940	67.0440
 2.1930	67.1031
 2.1920	67.0819
 2.1910	67.1408
 2.1900	67.1391
 2.1890	67.1963
 2.1880	67.1607
 2.1870	67.3849
 2.1860	67.2868
 2.1850	67.4174
 2.1840	67.4643
 2.1830	67.4523
 2.1820	67.4836
 2.1810	67.5958
 2.1800	67.5194
 2.1790	67.6524
 2.1780	67.6714
 2.1770	67.7199
 2.1760	67.6711
 2.1750	67.7501
 2.1740	67.6812
 2.1730	67.7780
 2.1720	67.8719
 2.1710	68.0110
 2.1700	67.8735
 2.1690	67.9594
 2.1680	67.9719
 2.1670	68.0375
 2.1660	68.0395
 2.1650	68.0204
 2.1640	68.0429
 2.1630	68.1466
 2.1620	68.1684
 2.1610	68.1442
 2.1600	68.1612
 2.1590	68.2631
 2.1580	68.2885
 2.1570	68.2492
 2.1560	68.3274
 2.1550	68.4274
 2.1540	68.2962
 2.1530	68.3130
 2.1520	68.3264
 2.1510	68.3575
 2.1500	68.3030
 2.1490	68.3660
 2.1480	68.4199
 2.1470	68.4937
 2.1460	68.3517
 2.1450	68.3488
 2.1440	68.4110
 2.1430	68.4037
 2.1420	68.3822
 2.1410	68.3708
 2.1400	68.3725
 2.1390	68.3653
 2.1380	68.3211
 2.1370	68.3193
 2.1360	68.2606
 2.1350	68.2895
 2.1340	68.3154
 2.1330	68.3069
 2.1320	68.2593
 2.1310	68.2359
 2.1300	68.2127
 2.1290	68.1877
 2.1280	68.1575
 2.1270	68.1308
 2.1260	68.0549
 2.1250	68.0240
 2.1240	67.9754
 2.1230	67.9853
 2.1220	67.9832
 2.1210	67.9416
 2.1200	67.8270
 2.1190	67.8332
 2.1180	67.8376
 2.1170	67.7237
 2.1160	67.7014
 2.1150	67.6311
 2.1140	67.5638
 2.1130	67.6221
 2.1120	67.5670
 2.1110	67.5097
 2.1100	67.5038
 2.1090	67.4863
 2.1080	67.3240
 2.1070	67.3131
 2.1060	67.2829
 2.1050	67.3134
 2.1040	67.2988
 2.1030	67.1830
 2.1020	67.1563
 2.1010	67.1348
 2.1000	67.0897
 2.0990	67.0456
 2.0980	67.0383
 2.0970	67.0529
 2.0960	67.0614
 2.0950	67.0279
 2.0940	67.0359
 2.0930	67.0824
 2.0920	67.0856
 2.0910	67.1001
 2.0900	67.0712
 2.0890	67.0911
 2.0880	67.0895
 2.0870	67.0724
 2.0860	67.0140
 2.0850	66.9811
 2.0840	67.0038
 2.0830	67.0431
 2.0820	67.0332
 2.0810	66.9914
 2.0800	66.9504
 2.0790	66.9572
 2.0780	67.0268
 2.0770	67.0092
 2.0760	67.0201
 2.0750	67.0442
 2.0740	67.0270
 2.0730	67.0295
 2.0720	66.9568
 2.0710	66.8906
 2.0700	66.8897
 2.0690	66.8958
 2.0680	66.9010
 2.0670	66.8617
 2.0660	66.8915
 2.0650	66.9106
 2.0640	66.8822
 2.0630	66.8508
 2.0620	66.8167
 2.0610	66.8156
 2.0600	66.8073
 2.0590	66.7874
 2.0580	66.7902
 2.0570	66.7838
 2.0560	66.7507
 2.0550	66.7549
 2.0540	66.7301
 2.0530	66.6974
 2.0520	66.6922
 2.0510	66.7049
 2.0500	66.7221
 2.0490	66.6741
 2.0480	66.6680
 2.0470	66.6615
 2.0460	66.6394
 2.0450	66.6090
 2.0440	66.5905
 2.0430	66.6488
 2.0420	66.5956
 2.0410	66.5462
 2.0400	66.4732
 2.0390	66.4194
 2.0380	66.4278
 2.0370	66.3611
 2.0360	66.4405
 2.0350	66.3947
 2.0340	66.3293
 2.0330	66.2977
 2.0320	66.3191
 2.0310	66.2486
 2.0300	66.2750
 2.0290	66.2043
 2.0280	66.1422
 2.0270	66.1160
 2.0260	66.0398
 2.0250	66.0313
 2.0240	66.0398
 2.0230	65.9520
 2.0220	65.9226
 2.0210	65.8912
 2.0200	65.8835
 2.0190	65.8009
 2.0180	65.8088
 2.0170	65.7618
 2.0160	65.7198
 2.0150	65.7337
 2.0140	65.7405
 2.0130	65.6384
 2.0120	65.5686
 2.0110	65.4758
 2.0100	65.4966
 2.0090	65.5019
 2.0080	65.4983
 2.0070	65.4284
 2.0060	65.3886
 2.0050	65.2771
 2.0040	65.2687
 2.0030	65.2822
 2.0020	65.2481
 2.0010	65.2046
 2.0000	65.1616
 1.9990	65.1452
 1.9980	65.0643
 1.9970	65.0498
 1.9960	64.9614
 1.9950	64.8619
 1.9940	64.8823
 1.9930	64.8038
 1.9920	64.7176
 1.9910	64.6306
 1.9900	64.5838
 1.9890	64.5851
 1.9880	64.6231
 1.9870	64.4793
 1.9860	64.4542
 1.9850	64.3438
 1.9840	64.3236
 1.9830	64.2933
 1.9820	64.2618
 1.9810	64.1848
 1.9800	64.1351
 1.9790	64.0795
 1.9780	64.0141
 1.9770	64.0008
 1.9760	64.0344
 1.9750	63.9750
 1.9740	63.8912
 1.9730	63.7870
 1.9720	63.8067
 1.9710	63.7665
 1.9700	63.7668
 1.9690	63.6930
 1.9680	63.6661
 1.9670	63.5664
 1.9660	63.6070
 1.9650	63.4771
 1.9640	63.5295
 1.9630	63.3648
 1.9620	63.3757
 1.9610	63.3653
 1.9600	63.2900
 1.9590	63.2727
 1.9580	63.3267
 1.9570	63.1399
 1.9560	63.0811
 1.9550	63.1018
 1.9540	63.0654
 1.9530	63.0108
 1.9520	62.9980
 1.9510	62.8569
 1.9500	62.8872
 1.9490	62.7881
 1.9480	62.8571
 1.9470	62.7326
 1.9460	62.7235
 1.9450	62.6020
 1.9440	62.6159
 1.9430	62.5166
 1.9420	62.5785
 1.9410	62.4866
 1.9400	62.5443
 1.9390	62.3142
 1.9380	62.3521
 1.9370	62.2082
 1.9360	62.2563
 1.9350	62.1668
 1.9340	62.0314
 1.9330	62.0144
 1.9320	61.9749
 1.9310	61.9011
 1.9300	61.9365
 1.9290	61.8355
 1.9280	61.8034
 1.9270	61.6320
 1.9260	61.5618
 1.9250	61.6296
 1.9240	61.5769
 1.9230	61.4755
 1.9220	61.4651
 1.9210	61.3374
 1.9200	61.4547
 1.9190	61.4318
 1.9180	61.5266
 1.9170	61.4564
 1.9160	61.4241
 1.9150	61.4078
 1.9140	61.5612
 1.9130	61.6177
 1.9120	61.7259
 1.9110	61.7384
 1.9100	62.0332
 1.9090	62.0735
 1.9080	62.3058
 1.9070	62.3697
 1.9060	62.5660
 1.9050	62.8563
 1.9040	63.0223
 1.9030	63.2568
 1.9020	63.5755
 1.9010	63.8059
 1.9000	64.0198
 1.8990	64.3063
 1.8980	64.5848
 1.8970	64.7667
 1.8960	65.0206
 1.8950	65.2188
 1.8940	65.5455
 1.8930	65.7266
 1.8920	65.7889
 1.8910	66.0909
 1.8900	66.2803
 1.8890	66.4424
 1.8880	66.6569
 1.8870	66.6971
 1.8860	66.8300
 1.8850	66.8274
 1.8840	67.1593
 1.8830	67.2165
 1.8820	67.3520
 1.8810	67.4533
 1.8800	67.5404
 1.8790	67.5135
 1.8780	67.6749
 1.8770	67.7733
 1.8760	67.8783
 1.8750	67.8874
 1.8740	67.9117
 1.8730	67.9682
 1.8720	68.1473
 1.8710	68.1139
 1.8700	68.1924
 1.8690	68.2549
 1.8680	68.3228
 1.8670	68.2725
 1.8660	68.4067
 1.8650	68.4006
 1.8640	68.4835
 1.8630	68.5240
 1.8620	68.5966
 1.8610	68.5349
 1.8600	68.5894
 1.8590	68.6028
 1.8580	68.5691
 1.8570	68.5920
 1.8560	68.5930
 1.8550	68.5969
 1.8540	68.5880
 1.8530	68.6621
 1.8520	68.7191
 1.8510	68.6862
 1.8500	68.6991
 1.8490	68.6923
 1.8480	68.7512
 1.8470	68.7599
 1.8460	68.7688
 1.8450	68.7107
 1.8440	68.7589
 1.8430	68.7648
 1.8420	68.7897
 1.8410	68.8096
 1.8400	68.8102
 1.8390	68.8230
 1.8380	68.8179
 1.8370	68.8029
 1.8360	68.7962
 1.8350	68.7826
 1.8340	68.8250
 1.8330	68.8390
 1.8320	68.8296
 1.8310	68.7715
 1.8300	68.7385
 1.8290	68.7667
 1.8280	68.7998
 1.8270	68.7518
 1.8260	68.7459
 1.8250	68.8460
 1.8240	68.8928
 1.8230	68.8313
 1.8220	68.8323
 1.8210	68.8201
 1.8200	68.7904
 1.8190	68.7559
 1.8180	68.7684
 1.8170	68.7803
 1.8160	68.8183
 1.8150	68.8444
 1.8140	68.8103
 1.8130	68.7663
 1.8120	68.7556
 1.8110	68.7398
 1.8100	68.7622
 1.8090	68.8133
 1.8080	68.8555
 1.8070	68.8057
 1.8060	68.7294
 1.8050	68.7370
 1.8040	68.7842
 1.8030	68.7344
 1.8020	68.7911
 1.8010	68.8074
 1.8000	68.7598
 1.7990	68.7346
 1.7980	68.7826
 1.7970	68.7688
 1.7960	68.7153
 1.7950	68.6816
 1.7940	68.6895
 1.7930	68.7224
 1.7920	68.7308
 1.7910	68.6927
 1.7900	68.6821
 1.7890	68.6822
 1.7880	68.6767
 1.7870	68.6545
 1.7860	68.6088
 1.7850	68.6549
 1.7840	68.7055
 1.7830	68.6907
 1.7820	68.6558
 1.7810	68.6417
 1.7800	68.6452
 1.7790	68.6388
 1.7780	68.6176
 1.7770	68.6038
 1.7760	68.5867
 1.7750	68.5641
 1.7740	68.5937
 1.7730	68.6517
 1.7720	68.5843
 1.7710	68.5663
 1.7700	68.6141
 1.7690	68.5789
 1.7680	68.5719
 1.7670	68.6354
 1.7660	68.5940
 1.7650	68.5341
 1.7640	68.5216
 1.7630	68.5003
 1.7620	68.5437
 1.7610	68.4946
 1.7600	68.5193
 1.7590	68.6480
 1.7580	68.5560
 1.7570	68.5893
 1.7560	68.6124
 1.7550	68.6033
 1.7540	68.5366
 1.7530	68.5368
 1.7520	68.5296
 1.7510	68.5264
 1.7500	68.5852
 1.7490	68.6110
 1.7480	68.5419
 1.7470	68.5270
 1.7460	68.4854
 1.7450	68.5203
 1.7440	68.5018
 1.7430	68.5180
 1.7420	68.5372
 1.7410	68.5502
 1.7400	68.5204
 1.7390	68.5323
 1.7380	68.5683
 1.7370	68.5307
 1.7360	68.4548
 1.7350	68.4527
 1.7340	68.4508
 1.7330	68.5614
 1.7320	68.4962
 1.7310	68.5726
 1.7300	68.4822
 1.7290	68.4754
 1.7280	68.4619
 1.7270	68.4533
 1.7260	68.4466
 1.7250	68.5144
 1.7240	68.5036
 1.7230	68.5102
 1.7220	68.4879
 1.7210	68.4881
 1.7200	68.4902
 1.7190	68.5119
 1.7180	68.4305
 1.7170	68.3982
 1.7160	68.3770
 1.7150	68.4596
 1.7140	68.3554
 1.7130	68.4998
 1.7120	68.3967
 1.7110	68.3419
 1.7100	68.3149
 1.7090	68.4193
 1.7080	68.2646
 1.7070	68.2961
 1.7060	68.2571
 1.7050	68.2672
 1.7040	68.3559
 1.7030	68.3107
 1.7020	68.2260
 1.7010	68.2530
 1.7000	68.2563
 1.6990	68.2856
 1.6980	68.2134
 1.6970	68.2184
 1.6960	68.1947
 1.6950	68.2409
 1.6940	68.1759
 1.6930	68.2302
 1.6920	68.1518
 1.6910	68.1744
 1.6900	68.1850
 1.6890	68.1531
 1.6880	68.1763
 1.6870	68.1593
 1.6860	68.1071
 1.6850	68.0959
 1.6840	68.0868
 1.6830	68.0089
 1.6820	68.0452
 1.6810	68.0341
 1.6800	68.1037
 1.6790	68.0331
 1.6780	68.0886
 1.6770	67.9490
 1.6760	68.0524
 1.6750	67.9630
 1.6740	67.8961
 1.6730	67.9955
 1.6720	67.9166
 1.6710	67.9541
 1.6700	67.9026
 1.6690	68.0240
 1.6680	67.8368
 1.6670	67.9722
 1.6660	67.9245
 1.6650	67.8434
 1.6640	67.8278
 1.6630	67.8445
 1.6620	67.8484
 1.6610	67.8867
 1.6600	67.8640
 1.6590	67.9478
 1.6580	67.8048
 1.6570	67.8536
 1.6560	67.7329
 1.6550	67.7546
 1.6540	67.8370
 1.6530	67.8147
 1.6520	67.7926
 1.6510	67.7517
 1.6500	67.7435
 1.6490	67.6081
 1.6480	67.6862
 1.6470	67.6780
 1.6460	67.6200
 1.6450	67.7286
 1.6440	67.6115
 1.6430	67.6824
 1.6420	67.6255
 1.6410	67.5873
 1.6400	67.5944
 1.6390	67.6380
 1.6380	67.5031
 1.6370	67.5868
 1.6360	67.5115
 1.6350	67.5916
 1.6340	67.4964
 1.6330	67.5100
 1.6320	67.4738
 1.6310	67.4861
 1.6300	67.4297
 1.6290	67.5217
 1.6280	67.3959
 1.6270	67.3897
 1.6260	67.4073
 1.6250	67.3837
 1.6240	67.3753
 1.6230	67.3397
 1.6220	67.2858
 1.6210	67.4197
 1.6200	67.3124
 1.6190	67.4345
 1.6180	67.2891
 1.6170	67.2352
 1.6160	67.2945
 1.6150	67.2464
 1.6140	67.2818
 1.6130	67.2535
 1.6120	67.2050
 1.6110	67.1824
 1.6100	67.1971
 1.6090	67.1682
 1.6080	67.1197
 1.6070	67.1183
 1.6060	67.1303
 1.6050	67.1735
 1.6040	67.0922
 1.6030	67.1451
 1.6020	67.1011
 1.6010	67.1108
 1.6000	67.0698
 1.5990	67.0377
 1.5980	67.0073
 1.5970	67.0620
 1.5960	66.9639
 1.5950	66.9498
 1.5940	66.9706
 1.5930	66.9741
 1.5920	66.9482
 1.5910	66.8688
 1.5900	66.9106
 1.5890	66.9038
 1.5880	66.8577
 1.5870	66.9045
 1.5860	66.8810
 1.5850	66.7891
 1.5840	66.7111
 1.5830	66.7834
 1.5820	66.7492
 1.5810	66.8118
 1.5800	66.7653
 1.5790	66.7531
 1.5780	66.7121
 1.5770	66.7312
 1.5760	66.6049
 1.5750	66.6599
 1.5740	66.6215
 1.5730	66.6206
 1.5720	66.5696
 1.5710	66.5283
 1.5700	66.5603
 1.5690	66.5504
 1.5680	66.5721
 1.5670	66.5432
 1.5660	66.5524
 1.5650	66.4207
 1.5640	66.3133
 1.5630	66.4474
 1.5620	66.4323
 1.5610	66.3798
 1.5600	66.3185
 1.5590	66.3701
 1.5580	66.3571
 1.5570	66.4357
 1.5560	66.3438
 1.5550	66.2595
 1.5540	66.1783
 1.5530	66.2240
 1.5520	66.2082
 1.5510	66.1749
 1.5500	66.1304
 1.5490	66.1442
 1.5480	66.1359
 1.5470	66.1959
 1.5460	66.1655
 1.5450	66.0570
 1.5440	66.0321
 1.5430	66.0290
 1.5420	65.9607
 1.5410	65.9945
 1.5400	65.9511
 1.5390	65.9547
 1.5380	65.9220
 1.5370	65.8853
 1.5360	65.8939
 1.5350	65.8790
 1.5340	65.8697
 1.5330	65.8462
 1.5320	65.7854
 1.5310	65.7833
 1.5300	65.7800
 1.5290	65.7945
 1.5280	65.7118
 1.5270	65.7214
 1.5260	65.6933
 1.5250	65.7200
 1.5240	65.6562
 1.5230	65.6418
 1.5220	65.6129
 1.5210	65.5355
 1.5200	65.4805
 1.5190	65.5165
 1.5180	65.4775
 1.5170	65.4349
 1.5160	65.3698
 1.5150	65.3595
 1.5140	65.3074
 1.5130	65.3119
 1.5120	65.3462
 1.5110	65.3056
 1.5100	65.2291
 1.5090	65.2320
 1.5080	65.1995
 1.5070	65.1352
 1.5060	65.1615
 1.5050	65.1686
 1.5040	65.0866
 1.5030	65.0116
 1.5020	65.0209
 1.5010	65.0205
 1.5000	65.0331
 1.4990	65.0011
 1.4980	64.9162
 1.4970	64.9001
 1.4960	64.9099
 1.4950	64.9025
 1.4940	64.8310
 1.4930	64.7159
 1.4920	64.6990
 1.4910	64.6651
 1.4900	64.6468
 1.4890	64.6629
 1.4880	64.6536
 1.4870	64.5966
 1.4860	64.5168
 1.4850	64.5133
 1.4840	64.4966
 1.4830	64.4353
 1.4820	64.3872
 1.4810	64.3263
 1.4800	64.3238
 1.4790	64.2540
 1.4780	64.2524
 1.4770	64.2432
 1.4760	64.2048
 1.4750	64.1579
 1.4740	64.1077
 1.4730	64.0609
 1.4720	64.0951
 1.4710	64.0480
 1.4700	63.9647
 1.4690	63.8973
 1.4680	63.8918
 1.4670	63.9273
 1.4660	63.8513
 1.4650	63.7312
 1.4640	63.7221
 1.4630	63.7700
 1.4620	63.7362
 1.4610	63.6738
 1.4600	63.6846
 1.4590	63.6320
 1.4580	63.5445
 1.4570	63.4691
 1.4560	63.4736
 1.4550	63.3448
 1.4540	63.2973
 1.4530	63.2733
 1.4520	63.2232
 1.4510	63.1862
 1.4500	63.1591
 1.4490	63.1813
 1.4480	63.1574
 1.4470	63.0894
 1.4460	63.0292
 1.4450	62.9755
 1.4440	62.9093
 1.4430	62.8558
 1.4420	62.8666
 1.4410	62.8355
 1.4400	62.8377
 1.4390	62.7433
 1.4380	62.7389
 1.4370	62.6553
 1.4360	62.6702
 1.4350	62.6347
 1.4340	62.6289
 1.4330	62.5378
 1.4320	62.5287
 1.4310	62.4937
 1.4300	62.4768
 1.4290	62.3772
 1.4280	62.3425
 1.4270	62.3798
 1.4260	62.4149
 1.4250	62.3601
 1.4240	62.3055
 1.4230	62.2360
 1.4220	62.2812
 1.4210	62.2687
 1.4200	62.2156
 1.4190	62.1661
 1.4180	62.2255
 1.4170	62.0852
 1.4160	62.1220
 1.4150	62.0417
 1.4140	62.0065
 1.4130	61.9108
 1.4120	61.9674
 1.4110	61.9144
 1.4100	61.9716
 1.4090	61.9360
 1.4080	62.0069
 1.4070	61.9690
 1.4060	62.0100
 1.4050	61.9675
 1.4040	61.9023
 1.4030	61.9387
 1.4020	61.9593
 1.4010	61.9224
 1.4000	62.0162
 1.3990	62.0569
 1.3980	62.1819
 1.3970	62.3157
 1.3960	62.4377
 1.3950	62.4840
 1.3940	62.5497
 1.3930	62.5513
 1.3920	62.6768
 1.3910	62.6628
 1.3900	62.8900
 1.3890	62.8344
 1.3880	62.9965
 1.3870	62.8830
 1.3860	63.0452
 1.3850	62.9907
 1.3840	63.1083
 1.3830	62.9083
 1.3820	63.1068
 1.3810	63.0817
 1.3800	63.0325
 1.3790	63.0439
 1.3780	63.0961
 1.3770	63.0199
 1.3760	63.0177
 1.3750	62.9979
 1.3740	63.0407
 1.3730	62.9069
 1.3720	62.8862
 1.3710	62.8538
 1.3700	62.8945
 1.3690	62.7827
 1.3680	62.8407
 1.3670	62.7293
 1.3660	62.8147
 1.3650	62.7719
 1.3640	62.7842
 1.3630	62.6239
 1.3620	62.7154
 1.3610	62.5834
 1.3600	62.6630
 1.3590	62.5188
 1.3580	62.5381
 1.3570	62.5424
 1.3560	62.6035
 1.3550	62.4176
 1.3540	62.4691
 1.3530	62.3256
 1.3520	62.3647
 1.3510	62.3585
 1.3500	62.3649
 1.3490	62.2441
 1.3480	62.3509
 1.3470	62.1748
 1.3460	62.1319
 1.3450	62.2600
 1.3440	62.1588
 1.3430	62.0750
 1.3420	62.0267
 1.3410	62.0030
 1.3400	62.0397
 1.3390	61.9290
 1.3380	61.9718
 1.3370	61.8553
 1.3360	61.8732
 1.3350	61.8577
 1.3340	61.7737
 1.3330	61.6834
 1.3320	61.8118
 1.3310	61.7589
 1.3300	61.7074
 1.3290	61.6993
 1.3280	61.5864
 1.3270	61.6008
 1.3260	61.5201
 1.3250	61.3948
 1.3240	61.4220
 1.3230	61.4078
 1.3220	61.3604
 1.3210	61.3484
 1.3200	61.3859
 1.3190	61.2713
 1.3180	61.2565
 1.3170	61.2363
 1.3160	61.1607
 1.3150	61.1435
 1.3140	61.1210
 1.3130	61.0753
 1.3120	61.1224
 1.3110	61.0676
 1.3100	61.0419
 1.3090	60.8833
 1.3080	60.9393
 1.3070	60.8563
 1.3060	60.8395
 1.3050	60.7608
 1.3040	60.7854
 1.3030	60.7935
 1.3020	60.7104
 1.3010	60.6594
 1.3000	60.6494
 1.2990	60.5521
 1.2980	60.6106
 1.2970	60.5151
 1.2960	60.5227
 1.2950	60.4577
 1.2940	60.4099
 1.2930	60.3313
 1.2920	60.3085
 1.2910	60.3457
 1.2900	60.2652
 1.2890	60.2073
 1.2880	60.2172
 1.2870	60.1620
 1.2860	60.1482
 1.2850	60.0831
 1.2840	60.1430
 1.2830	60.0049
 1.2820	59.9725
 1.2810	59.8566
 1.2800	59.8854
 1.2790	59.8809
 1.2780	59.8411
 1.2770	59.7612
 1.2760	59.7491
 1.2750	59.6990
 1.2740	59.6673
 1.2730	59.5933
 1.2720	59.5922
 1.2710	59.5324
 1.2700	59.5102
 1.2690	59.4234
 1.2680	59.4543
 1.2670	59.3639
 1.2660	59.2969
 1.2650	59.2809
 1.2640	59.3310
 1.2630	59.2047
 1.2620	59.1366
 1.2610	59.1490
 1.2600	59.1051
 1.2590	59.0627
 1.2580	59.0184
 1.2570	58.9119
 1.2560	58.8996
 1.2550	58.8307
 1.2540	58.8768
 1.2530	58.8438
 1.2520	58.7954
 1.2510	58.7245
 1.2500	58.7208
 1.2490	58.6569
 1.2480	58.6599
 1.2470	58.5890
 1.2460	58.5398
 1.2450	58.4844
 1.2440	58.4480
 1.2430	58.4248
 1.2420	58.3983
 1.2410	58.2874
 1.2400	58.2539
 1.2390	58.2293
 1.2380	58.2013
 1.2370	58.1219
 1.2360	58.0675
 1.2350	58.0804
 1.2340	58.0358
 1.2330	57.9235
 1.2320	57.8713
 1.2310	57.8244
 1.2300	57.8049
 1.2290	57.7778
 1.2280	57.7624
 1.2270	57.7240
 1.2260	57.7077
 1.2250	57.6367
 1.2240	57.6465
 1.2230	57.5875
 1.2220	57.4823
 1.2210	57.4376
 1.2200	57.4124
 1.2190	57.3187
 1.2180	57.2974
 1.2170	57.2401
 1.2160	57.2007
 1.2150	57.2188
 1.2140	57.1648
 1.2130	57.1086
 1.2120	57.0753
 1.2110	57.0747
 1.2100	56.9891
 1.2090	56.9348
 1.2080	56.9150
 1.2070	56.8403
 1.2060	56.8146
 1.2050	56.7796
 1.2040	56.6985
 1.2030	56.6705
 1.2020	56.6283
 1.2010	56.5873
 1.2000	56.5431
 1.1990	56.5003
 1.1980	56.4885
 1.1970	56.4582
 1.1960	56.4001
 1.1950	56.3468
 1.1940	56.2595
 1.1930	56.2114
 1.1920	56.2243
 1.1910	56.2144
 1.1900	56.1495
 1.1890	56.1076
 1.1880	55.9270
 1.1870	55.9809
 1.1860	55.9872
 1.1850	55.9067
 1.1840	55.9095
 1.1830	55.8286
 1.1820	55.8059
 1.1810	55.8107
 1.1800	55.6779
 1.1790	55.7082
 1.1780	55.7120
 1.1770	55.6206
 1.1760	55.5352
 1.1750	55.4866
 1.1740	55.4813
 1.1730	55.4865
 1.1720	55.3911
 1.1710	55.4100
 1.1700	55.2987
 1.1690	55.2817
 1.1680	55.2257
 1.1670	55.2597
 1.1660	55.2461
 1.1650	55.1673
 1.1640	55.0759
 1.1630	55.0659
 1.1620	55.0089
 1.1610	54.9878
 1.1600	55.0056
 1.1590	54.9269
 1.1580	54.8258
 1.1570	54.8116
 1.1560	54.7592
 1.1550	54.7793
 1.1540	54.7603
 1.1530	54.7176
 1.1520	54.6080
 1.1510	54.5729
 1.1500	54.5334
 1.1490	54.6369
 1.1480	54.5378
 1.1470	54.4196
 1.1460	54.4162
 1.1450	54.3739
 1.1440	54.3457
 1.1430	54.3083
 1.1420	54.1998
 1.1410	54.2176
 1.1400	54.1830
 1.1390	54.2226
 1.1380	54.1955
 1.1370	54.2051
 1.1360	54.1103
 1.1350	54.0571
 1.1340	53.9797
 1.1330	53.9939
 1.1320	53.9339
 1.1310	53.9750
 1.1300	53.9357
 1.1290	53.9397
 1.1280	53.8216
 1.1270	53.7838
 1.1260	53.7442
 1.1250	53.8323
 1.1240	53.7464
 1.1230	53.7313
 1.1220	53.6581
 1.1210	53.6862
 1.1200	53.6360
 1.1190	53.6630
 1.1180	53.5670
 1.1170	53.5662
 1.1160	53.4456
 1.1150	53.4644
 1.1140	53.4146
 1.1130	53.4279
 1.1120	53.3190
 1.1110	53.4233
 1.1100	53.3324
 1.1090	53.3528
 1.1080	53.2782
 1.1070	53.3213
 1.1060	53.2510
 1.1050	53.2327
 1.1040	53.1485
 1.1030	53.1064
 1.1020	53.0192
 1.1010	53.1111
 1.1000	53.0338
 1.0990	53.0712
 1.0980	53.0453
 1.0970	53.0474
 1.0960	52.9376
 1.0950	52.9909
 1.0940	52.8799
 1.0930	52.9865
 1.0920	52.8941
 1.0910	52.8766
 1.0900	52.7451
 1.0890	52.8167
 1.0880	52.7165
 1.0870	52.8051
 1.0860	52.6823
 1.0850	52.7325
 1.0840	52.6618
 1.0830	52.6627
 1.0820	52.5695
 1.0810	52.6367
 1.0800	52.5684
 1.0790	52.6090
 1.0780	52.5108
 1.0770	52.6164
 1.0760	52.5879
 1.0750	52.6493
 1.0740	52.4964
 1.0730	52.5400
 1.0720	52.4862
 1.0710	52.5275
 1.0700	52.3223
 1.0690	52.4666
 1.0680	52.4142
 1.0670	52.4335
 1.0660	52.3523
 1.0650	52.3091
 1.0640	52.3830
 1.0630	52.4059
 1.0620	52.2263
 1.0610	52.2873
 1.0600	52.2693
 1.0590	52.2674
 1.0580	52.1659
 1.0570	52.1835
 1.0560	52.1457
 1.0550	52.2385
 1.0540	52.0525
 1.0530	52.2491
 1.0520	52.1268
 1.0510	52.1685
 1.0500	52.0704
 1.0490	52.0829
 1.0480	52.0127
 1.0470	52.1149
 1.0460	52.1528
 1.0450	52.0603
 1.0440	52.0037
 1.0430	52.0285
 1.0420	51.9740
 1.0410	51.9876
 1.0400	51.9729
 1.0390	52.0190
 1.0380	51.9451
 1.0370	51.9498
 1.0360	51.8920
 1.0350	51.9810
 1.0340	51.9218
 1.0330	51.8685
 1.0320	51.9300
 1.0310	51.9500
 1.0300	51.8620
 1.0290	51.9700
 1.0280	51.8812
 1.0270	51.9239
 1.0260	51.7814
 1.0250	51.8374
 1.0240	51.7761
 1.0230	51.8480
 1.0220	51.8013
 1.0210	51.8231
 1.0200	51.7758
 1.0190	51.7427
 1.0180	51.6536
 1.0170	51.7923
 1.0160	51.6748
 1.0150	51.7125
 1.0140	51.5905
 1.0130	51.6701
 1.0120	51.6331
 1.0110	51.6909
 1.0100	51.6416
 1.0090	51.7047
 1.0080	51.5615
 1.0070	51.5882
 1.0060	51.5920
 1.0050	51.6394
 1.0040	51.5062
 1.0030	51.5936
 1.0020	51.5219
 1.0010	51.5825
 1.0000	51.5820
 0.9990	51.6181
 0.9980	51.4412
 0.9970	51.5187
 0.9960	51.4588
 0.9950	51.4689
 0.9940	51.4204
 0.9930	51.3724
 0.9920	51.4254
 0.9910	51.4363
 0.9900	51.3765
 0.9890	51.4434
 0.9880	51.3563
 0.9870	51.3414
 0.9860	51.2567
 0.9850	51.2382
 0.9840	51.2334
 0.9830	51.1986
 0.9820	51.2399
 0.9810	51.2776
 0.9800	51.2619
 0.9790	51.2033
 0.9780	51.1176
 0.9770	51.1346
 0.9760	51.1417
 0.9750	51.1381
 0.9740	51.1138
 0.9730	51.0612
 0.9720	51.0335
 0.9710	51.1047
 0.9700	51.0768
 0.9690	51.0192
 0.9680	51.0066
 0.9670	51.0014
 0.9660	50.9192
 0.9650	50.8597
 0.9640	50.8017
 0.9630	50.8978
 0.9620	50.8703
 0.9610	50.7571
 0.9600	50.6803
 0.9590	50.7940
 0.9580	50.7836
 0.9570	50.7416
 0.9560	50.6808
 0.9550	50.6398
 0.9540	50.6055
 0.9530	50.6310
 0.9520	50.6541
 0.9510	50.5957
 0.9500	50.5320
 0.9490	50.5605
 0.9480	50.5113
 0.9470	50.4361
 0.9460	50.4056
 0.9450	50.4286
 0.9440	50.4413
 0.9430	50.4398
 0.9420	50.3759
 0.9410	50.3561
 0.9400	50.3115
 0.9390	50.3262
 0.9380	50.2834
 0.9370	50.2264
 0.9360	50.2060
 0.9350	50.1941
 0.9340	50.1945
 0.9330	50.1785
 0.9320	50.0987
 0.9310	50.1210
 0.9300	50.0715
 0.9290	50.0042
 0.9280	50.0123
 0.9270	49.9446
 0.9260	49.9188
 0.9250	49.8922
 0.9240	49.8776
 0.9230	49.9161
 0.9220	49.9072
 0.9210	49.8600
 0.9200	49.8537
 0.9190	49.7557
 0.9180	49.7509
 0.9170	49.7693
 0.9160	49.7008
 0.9150	49.6526
 0.9140	49.6336
 0.9130	49.6525
 0.9120	49.6990
 0.9110	49.6263
 0.9100	49.5906
 0.9090	49.6283
 0.9080	49.6113
 0.9070	49.5351
 0.9060	49.5372
 0.9050	49.5366
 0.9040	49.5307
 0.9030	49.4876
 0.9020	49.5471
 0.9010	49.5322
 0.9000	49.4772
 0.8990	49.4453
 0.8980	49.4759
 0.8970	49.4546
 0.8960	49.4739
 0.8950	49.4702
 0.8940	49.4844
 0.8930	49.4231
 0.8920	49.4175
 0.8910	49.3610
 0.8900	49.3999
 0.8890	49.3970
 0.8880	49.4089
 0.8870	49.3677
 0.8860	49.4000
 0.8850	49.3723
 0.8840	49.3089
 0.8830	49.3518
 0.8820	49.3999
 0.8810	49.3340
 0.8800	49.3885
 0.8790	49.3573
 0.8780	49.3337
 0.8770	49.3673
 0.8760	49.4198
 0.8750	49.3465
 0.8740	49.3573
 0.8730	49.3539
 0.8720	49.4124
 0.8710	49.3792
 0.8700	49.3694
 0.8690	49.3714
 0.8680	49.3670
 0.8670	49.3375
 0.8660	49.3714
 0.8650	49.4060
 0.8640	49.3855
 0.8630	49.4257
 0.8620	49.4282
 0.8610	49.4061
 0.8600	49.4527
 0.8590	49.4970
 0.8580	49.4803
 0.8570	49.5049
 0.8560	49.5188
 0.8550	49.5241
 0.8540	49.5374
 0.8530	49.5424
 0.8520	49.5664
 0.8510	49.5686
 0.8500	49.5888
 0.8490	49.6153
 0.8480	49.5527
 0.8470	49.5964
 0.8460	49.6098
 0.8450	49.6005
 0.8440	49.6441
 0.8430	49.6204
 0.8420	49.6350
 0.8410	49.6369
 0.8400	49.6501
 0.8390	49.6851
 0.8380	49.6973
 0.8370	49.7235
 0.8360	49.7134
 0.8350	49.7443
 0.8340	49.7416
 0.8330	49.7120
 0.8320	49.7264
 0.8310	49.7584
 0.8300	49.7859
 0.8290	49.7564
 0.8280	49.7449
 0.8270	49.7917
 0.8260	49.8049
 0.8250	49.8036
 0.8240	49.8219
 0.8230	49.8130
 0.8220	49.8020
 0.8210	49.8067
 0.8200	49.8124
 0.8190	49.8152
 0.8180	49.8239
 0.8170	49.7899
 0.8160	49.8117
 0.8150	49.8417
 0.8140	49.8137
 0.8130	49.7624
 0.8120	49.7606
 0.8110	49.7732
 0.8100	49.7767
 0.8090	49.7541
 0.8080	49.7798
 0.8070	49.7391
 0.8060	49.7161
 0.8050	49.7117
 0.8040	49.6882
 0.8030	49.6839
 0.8020	49.6674
 0.8010	49.6491
 0.8000	49.6376
 0.7990	49.6237
 0.7980	49.5347
 0.7970	49.5175
 0.7960	49.4913
 0.7950	49.4373
 0.7940	49.4183
 0.7930	49.3880
 0.7920	49.3538
 0.7910	49.3325
 0.7900	49.2775
 0.7890	49.2517
 0.7880	49.2066
 0.7870	49.1733
 0.7860	49.1065
 0.7850	49.1009
 0.7840	49.0415
 0.7830	49.0020
 0.7820	48.9676
 0.7810	48.9079
 0.7800	48.8288
 0.7790	48.7929
 0.7780	48.7551
 0.7770	48.6997
 0.7760	48.6386
 0.7750	48.5871
 0.7740	48.5034
 0.7730	48.4580
 0.7720	48.4288
 0.7710	48.3403
 0.7700	48.2930
 0.7690	48.2667
 0.7680	48.1854
 0.7670	48.1355
 0.7660	48.0611
 0.7650	48.0074
 0.7640	47.9539
 0.7630	47.8688
 0.7620	47.8034
 0.7610	47.7803
 0.7600	47.6869
 0.7590	47.6562
 0.7580	47.5661
 0.7570	47.5081
 0.7560	47.4533
 0.7550	47.3803
 0.7540	47.3370
 0.7530	47.2860
 0.7520	47.2169
 0.7510	47.1261
 0.7500	47.0718
 0.7490	47.0079
 0.7480	46.9209
 0.7470	46.8854
 0.7460	46.8246
 0.7450	46.7620
 0.7440	46.7099
 0.7430	46.6468
 0.7420	46.5905
 0.7410	46.5245
 0.7400	46.4593
 0.7390	46.3958
 0.7380	46.3277
 0.7370	46.2749
 0.7360	46.2145
 0.7350	46.1524
 0.7340	46.0725
 0.7330	46.0352
 0.7320	45.9646
 0.7310	45.9201
 0.7300	45.8698
 0.7290	45.8040
 0.7280	45.7584
 0.7270	45.6929
 0.7260	45.6537
 0.7250	45.5920
 0.7240	45.5387
 0.7230	45.4752
 0.7220	45.4161
 0.7210	45.3665
 0.7200	45.3151
 0.7190	45.2681
 0.7180	45.2282
 0.7170	45.1708
 0.7160	45.1119
 0.7150	45.0657
 0.7140	45.0317
 0.7130	44.9773
 0.7120	44.9317
 0.7110	44.8829
 0.7100	44.8283
 0.7090	44.8019
 0.7080	44.7508
 0.7070	44.7066
 0.7060	44.6556
 0.7050	44.6163
 0.7040	44.5690
 0.7030	44.5145
 0.7020	44.4666
 0.7010	44.4447
 0.7000	44.4008
 0.6990	44.3522
 0.6980	44.3132
 0.6970	44.2623
 0.6960	44.2251
 0.6950	44.1972
 0.6940	44.1568
 0.6930	44.1192
 0.6920	44.0883
 0.6910	44.0335
 0.6900	43.9905
 0.6890	43.9493
 0.6880	43.9060
 0.6870	43.8726
 0.6860	43.8292
 0.6850	43.7988
 0.6840	43.7566
 0.6830	43.7236
 0.6820	43.6898
 0.6810	43.6426
 0.6800	43.6005
 0.6790	43.5643
 0.6780	43.5265
 0.6770	43.4874
 0.6760	43.4531
 0.6750	43.4107
 0.6740	43.3706
 0.6730	43.3344
 0.6720	43.2945
 0.6710	43.2599
 0.6700	43.2291
 0.6690	43.1828
 0.6680	43.1393
 0.6670	43.0947
 0.6660	43.0569
 0.6650	43.0147
 0.6640	42.9759
 0.6630	42.9388
 0.6620	42.8980
 0.6610	42.8549
 0.6600	42.8219
 0.6590	42.7835
 0.6580	42.7292
 0.6570	42.6864
 0.6560	42.6555
 0.6550	42.6124
 0.6540	42.5676
 0.6530	42.5359
 0.6520	42.4950
 0.6510	42.4466
 0.6500	42.4070
 0.6490	42.3613
 0.6480	42.3161
 0.6470	42.2694
 0.6460	42.2258
 0.6450	42.1817
 0.6440	42.1315
 0.6430	42.0881
 0.6420	42.0455
 0.6410	41.9980
 0.6400	41.9529
 0.6390	41.9095
 0.6380	41.8718
 0.6370	41.8254
 0.6360	41.7807
 0.6350	41.7407
 0.6340	41.6877
 0.6330	41.6321
 0.6320	41.5844
 0.6310	41.5335
 0.6300	41.4893
 0.6290	41.4454
 0.6280	41.3988
 0.6270	41.3483
 0.6260	41.2988
 0.6250	41.2479
 0.6240	41.1989
 0.6230	41.1509
 0.6220	41.0997
 0.6210	41.0508
 0.6200	40.9950
 0.6190	40.9536
 0.6180	40.8994
 0.6170	40.8389
 0.6160	40.7996
 0.6150	40.7496
 0.6140	40.6842
 0.6130	40.6342
 0.6120	40.5824
 0.6110	40.5362
 0.6100	40.4863
 0.6090	40.4367
 0.6080	40.3849
 0.6070	40.3343
 0.6060	40.2890
 0.6050	40.2306
 0.6040	40.1733
 0.6030	40.1183
 0.6020	40.0668
 0.6010	40.0156
 0.6000	39.9631
 0.5990	39.9189
 0.5980	39.8695
 0.5970	39.8253
 0.5960	39.7836
 0.5950	39.7385
 0.5940	39.6837
 0.5930	39.6304
 0.5920	39.5773
 0.5910	39.5246
 0.5900	39.4718
 0.5890	39.4139
 0.5880	39.3605
 0.5870	39.3050
 0.5860	39.2391
 0.5850	39.1925
 0.5840	39.1384
 0.5830	39.0800
 0.5820	39.0188
 0.5810	38.9632
 0.5800	38.9056
 0.5790	38.8479
 0.5780	38.7913
 0.5770	38.7303
 0.5760	38.6752
 0.5750	38.6135
 0.5740	38.5575
 0.5730	38.4939
 0.5720	38.4342
 0.5710	38.3685
 0.5700	38.3005
 0.5690	38.2367
 0.5680	38.1730
 0.5670	38.1071
 0.5660	38.0431
 0.5650	37.9764
 0.5640	37.9046
 0.5630	37.8386
 0.5620	37.7726
 0.5610	37.6855
 0.5600	37.6058
 0.5590	37.5384
 0.5580	37.4631
 0.5570	37.3823
 0.5560	37.2974
 0.5550	37.2142
 0.5540	37.1327
 0.5530	37.0549
 0.5520	36.9620
 0.5510	36.8656
 0.5500	36.7758
 0.5490	36.6751
 0.5480	36.5852
 0.5470	36.4894
 0.5460	36.3795
 0.5450	36.2649
 0.5440	36.1619
 0.5430	36.0477
 0.5420	35.9331
 0.5410	35.8159
 0.5400	35.7009
 0.5390	35.5716
 0.5380	35.4550
 0.5370	35.3283
 0.5360	35.1979
 0.5350	35.0786
 0.5340	34.9495
 0.5330	34.8132
 0.5320	34.6642
 0.5310	34.5179
 0.5300	34.3634
 0.5290	34.2048
 0.5280	34.0461
 0.5270	33.8889
 0.5260	33.7319
 0.5250	33.5631
 0.5240	33.3889
 0.5230	33.2105
 0.5220	33.0411
 0.5210	32.8769
 0.5200	32.6850
 0.5190	32.4964
 0.5180	32.3194
 0.5170	32.1539
 0.5160	31.9655
 0.5150	31.7585
 0.5140	31.5524
 0.5130	31.3374
 0.5120	31.1349
 0.5110	30.9151
 0.5100	30.7081
 0.5090	30.4934
 0.5080	30.2942
 0.5070	30.0792
 0.5060	29.8667
 0.5050	29.6415
 0.5040	29.4290
 0.5030	29.2178
 0.5020	29.0080
 0.5010	28.7896
 0.5000	28.5860
 0.4990	28.3729
 0.4980	28.1738
 0.4970	27.9629
 0.4960	27.7645
 0.4950	27.5783
 0.4940	27.3864
 0.4930	27.2151
 0.4920	27.0411
 0.4910	26.8727
 0.4900	26.7125
 0.4890	26.5511
 0.4880	26.3948
 0.4870	26.2332
 0.4860	26.0831
 0.4850	25.9344
 0.4840	25.7886
 0.4830	25.6577
 0.4820	25.5314
 0.4810	25.4021
 0.4800	25.2876
 0.4790	25.1731
 0.4780	25.0630
 0.4770	24.9679
 0.4760	24.8557
 0.4750	24.7541
 0.4740	24.6508
 0.4730	24.5486
 0.4720	24.4562
 0.4710	24.3693
 0.4700	24.2813
 0.4690	24.1926
 0.4680	24.1110
 0.4670	24.0270
 0.4660	23.9531
 0.4650	23.8689
 0.4640	23.8013
 0.4630	23.7237
 0.4620	23.6571
 0.4610	23.5754
 0.4600	23.4979
 0.4590	23.4229
 0.4580	23.3332
 0.4570	23.2506
 0.4560	23.1487
 0.4550	23.0594
 0.4540	22.9375
 0.4530	22.8295
 0.4520	22.7090
 0.4510	22.5835
 0.4500	22.4444
 0.4490	22.3068
 0.4480	22.1531
 0.4470	21.9940
 0.4460	21.8228
 0.4450	21.6405
 0.4440	21.4432
 0.4430	21.2420
 0.4420	21.0474
 0.4410	20.8346
 0.4400	20.6199
 0.4390	20.4013
 0.4380	20.1747
 0.4370	19.9581
 0.4360	19.7315
 0.4350	19.4986
 0.4340	19.2801
 0.4330	19.0624
 0.4320	18.8475
 0.4310	18.6393
 0.4300	18.4339
 0.4290	18.2739
 0.4280	18.0867
 0.4270	17.8903
 0.4260	17.7171
 0.4250	17.5378
 0.4240	17.3708
 0.4230	17.2063
 0.4220	17.0535
 0.4210	16.9048
 0.4200	16.7614
 0.4190	16.6270
 0.4180	16.4946
 0.4170	16.3654
 0.4160	16.2510
 0.4150	16.1292
 0.4140	16.0144
 0.4130	15.9086
 0.4120	15.7993
 0.4110	15.6919
 0.4100	15.5895
 0.4090	15.4743
 0.4080	15.3772
 0.4070	15.2800
 0.4060	15.1720
 0.4050	15.0694
 0.4040	14.9701
 0.4030	14.8609
 0.4020	14.7599
 0.4010	14.6446
 0.4000	14.5327
