Name: Enstatite Mg_2(SiO_3)_2
Type: Mineral
Class: Silicate
Subclass: Inosilicate
Particle Size: Fine
Sample No.: IN-10B
Owner: JPL
Wavelength Range: VSWIR
Origin: Norway, Telemark.
Collection Date: N/A
Description: Particle size was 0-45um.Collected by:  Burminco Original ASTER Spectral Library name was jpl.perkin.mineral.silicate.inosilicate.fine.in10b.spectrum.txt
Measurement: Hemispherical reflectance
First Column: X
Second Column: Y
X Units: Wavelength (micrometers)
Y Units:Reflectance (percent)
First X Value:  2.5000
Last X Value:  0.4000
Number of X Values: 2101
Additional Information: mineral.silicate.inosilicate.fine.vswir.in-10b.jpl.perkin.ancillary.txt

 2.5000	35.1335
 2.4990	35.0977
 2.4980	35.3695
 2.4970	35.5100
 2.4960	35.0924
 2.4950	35.3736
 2.4940	35.2848
 2.4930	35.2360
 2.4920	35.1002
 2.4910	35.3478
 2.4900	35.1383
 2.4890	35.3194
 2.4880	35.1411
 2.4870	35.2361
 2.4860	35.2227
 2.4850	35.2576
 2.4840	35.0170
 2.4830	35.1220
 2.4820	35.0535
 2.4810	35.1417
 2.4800	35.0243
 2.4790	35.1225
 2.4780	35.0921
 2.4770	35.1759
 2.4760	34.9901
 2.4750	34.9709
 2.4740	34.8915
 2.4730	35.0082
 2.4720	35.0389
 2.4710	34.9331
 2.4700	34.9748
 2.4690	35.1223
 2.4680	34.9611
 2.4670	34.9175
 2.4660	34.8073
 2.4650	35.0543
 2.4640	34.9403
 2.4630	34.9351
 2.4620	34.9152
 2.4610	34.9277
 2.4600	34.8187
 2.4590	34.8830
 2.4580	34.8924
 2.4570	34.8995
 2.4560	34.9138
 2.4550	34.8172
 2.4540	34.7707
 2.4530	34.9226
 2.4520	34.7943
 2.4510	34.9605
 2.4500	34.8205
 2.4490	34.9239
 2.4480	34.8808
 2.4470	34.9174
 2.4460	34.7494
 2.4450	34.9304
 2.4440	34.7634
 2.4430	34.8641
 2.4420	34.8982
 2.4410	34.8634
 2.4400	34.8285
 2.4390	34.8721
 2.4380	34.7851
 2.4370	34.7876
 2.4360	34.7343
 2.4350	34.8500
 2.4340	34.7295
 2.4330	34.8710
 2.4320	34.7740
 2.4310	34.8170
 2.4300	34.7974
 2.4290	34.8496
 2.4280	34.7256
 2.4270	34.8005
 2.4260	34.6539
 2.4250	34.7653
 2.4240	34.6165
 2.4230	34.8450
 2.4220	34.7327
 2.4210	34.6973
 2.4200	34.6619
 2.4190	34.7668
 2.4180	34.6682
 2.4170	34.7017
 2.4160	34.6677
 2.4150	34.6253
 2.4140	34.6822
 2.4130	34.7024
 2.4120	34.5995
 2.4110	34.5515
 2.4100	34.5039
 2.4090	34.5480
 2.4080	34.5637
 2.4070	34.5629
 2.4060	34.4660
 2.4050	34.4902
 2.4040	34.4420
 2.4030	34.4095
 2.4020	34.3740
 2.4010	34.4250
 2.4000	34.4181
 2.3990	34.3997
 2.3980	34.3156
 2.3970	34.3464
 2.3960	34.2603
 2.3950	34.2576
 2.3940	34.2569
 2.3930	34.3091
 2.3920	34.2488
 2.3910	34.2433
 2.3900	34.2288
 2.3890	34.2687
 2.3880	34.1397
 2.3870	34.1872
 2.3860	34.2479
 2.3850	34.2250
 2.3840	34.1958
 2.3830	34.2305
 2.3820	34.2239
 2.3810	34.2498
 2.3800	34.2566
 2.3790	34.2495
 2.3780	34.2630
 2.3770	34.3694
 2.3760	34.4080
 2.3750	34.3726
 2.3740	34.3610
 2.3730	34.4240
 2.3720	34.4489
 2.3710	34.4920
 2.3700	34.5395
 2.3690	34.5821
 2.3680	34.5416
 2.3670	34.5701
 2.3660	34.5982
 2.3650	34.5940
 2.3640	34.6391
 2.3630	34.6528
 2.3620	34.6232
 2.3610	34.6425
 2.3600	34.6743
 2.3590	34.7621
 2.3580	34.7767
 2.3570	34.7285
 2.3560	34.7564
 2.3550	34.7743
 2.3540	34.7369
 2.3530	34.7298
 2.3520	34.7852
 2.3510	34.8004
 2.3500	34.7859
 2.3490	34.7810
 2.3480	34.7952
 2.3470	34.7638
 2.3460	34.7650
 2.3450	34.7730
 2.3440	34.8167
 2.3430	34.8042
 2.3420	34.7943
 2.3410	34.8000
 2.3400	34.7652
 2.3390	34.7630
 2.3380	34.7526
 2.3370	34.6937
 2.3360	34.7141
 2.3350	34.7128
 2.3340	34.7034
 2.3330	34.6691
 2.3320	34.6560
 2.3310	34.6202
 2.3300	34.6127
 2.3290	34.5295
 2.3280	34.4946
 2.3270	34.4733
 2.3260	34.4118
 2.3250	34.3392
 2.3240	34.3263
 2.3230	34.2833
 2.3220	34.1931
 2.3210	34.0936
 2.3200	34.0794
 2.3190	33.9990
 2.3180	33.9903
 2.3170	33.9063
 2.3160	33.7990
 2.3150	33.7154
 2.3140	33.7037
 2.3130	33.6716
 2.3120	33.6120
 2.3110	33.5855
 2.3100	33.5283
 2.3090	33.5331
 2.3080	33.5953
 2.3070	33.5247
 2.3060	33.5083
 2.3050	33.4743
 2.3040	33.5307
 2.3030	33.5125
 2.3020	33.6048
 2.3010	33.5808
 2.3000	33.5891
 2.2990	33.6445
 2.2980	33.6824
 2.2970	33.6908
 2.2960	33.7294
 2.2950	33.7198
 2.2940	33.7563
 2.2930	33.7897
 2.2920	33.8457
 2.2910	33.8139
 2.2900	33.9451
 2.2890	33.9298
 2.2880	33.9886
 2.2870	34.0155
 2.2860	34.1194
 2.2850	34.1048
 2.2840	34.1429
 2.2830	34.0820
 2.2820	34.2207
 2.2810	34.1642
 2.2800	34.2827
 2.2790	34.3047
 2.2780	34.3871
 2.2770	34.3925
 2.2760	34.4623
 2.2750	34.3863
 2.2740	34.5016
 2.2730	34.5082
 2.2720	34.5122
 2.2710	34.5227
 2.2700	34.5903
 2.2690	34.5248
 2.2680	34.5054
 2.2670	34.5499
 2.2660	34.6246
 2.2650	34.5425
 2.2640	34.6512
 2.2630	34.6676
 2.2620	34.6702
 2.2610	34.6362
 2.2600	34.7169
 2.2590	34.6803
 2.2580	34.7511
 2.2570	34.7787
 2.2560	34.8011
 2.2550	34.7293
 2.2540	34.7947
 2.2530	34.7722
 2.2520	34.7784
 2.2510	34.7477
 2.2500	34.7893
 2.2490	34.8169
 2.2480	34.8626
 2.2470	34.7852
 2.2460	34.7665
 2.2450	34.7641
 2.2440	34.8558
 2.2430	34.7759
 2.2420	34.7915
 2.2410	34.8315
 2.2400	34.8345
 2.2390	34.7918
 2.2380	34.7843
 2.2370	34.7929
 2.2360	34.8555
 2.2350	34.7767
 2.2340	34.9270
 2.2330	34.7495
 2.2320	34.8447
 2.2310	34.7970
 2.2300	34.8963
 2.2290	34.8403
 2.2280	34.8796
 2.2270	34.8004
 2.2260	34.8532
 2.2250	34.8488
 2.2240	34.8985
 2.2230	34.8248
 2.2220	34.9208
 2.2210	34.7826
 2.2200	34.8817
 2.2190	34.8429
 2.2180	34.9567
 2.2170	34.8607
 2.2160	34.9290
 2.2150	34.8647
 2.2140	34.8780
 2.2130	34.7740
 2.2120	34.9753
 2.2110	34.7983
 2.2100	34.9628
 2.2090	34.8399
 2.2080	35.0474
 2.2070	34.8992
 2.2060	34.9428
 2.2050	34.8681
 2.2040	34.9857
 2.2030	34.8923
 2.2020	34.9313
 2.2010	34.9063
 2.2000	35.0294
 2.1990	34.9372
 2.1980	34.9523
 2.1970	34.9965
 2.1960	34.9645
 2.1950	34.9951
 2.1940	35.0278
 2.1930	35.0040
 2.1920	34.9244
 2.1910	34.9463
 2.1900	34.9536
 2.1890	34.9614
 2.1880	35.0252
 2.1870	34.9370
 2.1860	34.9427
 2.1850	34.9451
 2.1840	34.9912
 2.1830	34.9055
 2.1820	35.0227
 2.1810	34.9493
 2.1800	35.0150
 2.1790	34.9623
 2.1780	35.0266
 2.1770	34.9690
 2.1760	35.1074
 2.1750	34.9576
 2.1740	35.0465
 2.1730	35.0104
 2.1720	35.0407
 2.1710	35.0262
 2.1700	35.0589
 2.1690	34.9531
 2.1680	34.9938
 2.1670	35.0146
 2.1660	35.0400
 2.1650	34.9872
 2.1640	35.0929
 2.1630	35.0176
 2.1620	35.0018
 2.1610	35.0318
 2.1600	35.0898
 2.1590	34.9581
 2.1580	35.0300
 2.1570	35.0044
 2.1560	35.0772
 2.1550	35.0204
 2.1540	35.0726
 2.1530	35.0300
 2.1520	35.0720
 2.1510	35.0714
 2.1500	35.0763
 2.1490	34.9845
 2.1480	35.0531
 2.1470	35.0220
 2.1460	35.0184
 2.1450	34.9134
 2.1440	34.9578
 2.1430	34.8532
 2.1420	34.9446
 2.1410	34.9163
 2.1400	34.9522
 2.1390	34.9048
 2.1380	34.9050
 2.1370	34.8917
 2.1360	34.8434
 2.1350	34.7893
 2.1340	34.7533
 2.1330	34.7784
 2.1320	34.7599
 2.1310	34.6704
 2.1300	34.7446
 2.1290	34.6599
 2.1280	34.6765
 2.1270	34.5921
 2.1260	34.6431
 2.1250	34.5795
 2.1240	34.5494
 2.1230	34.4570
 2.1220	34.4745
 2.1210	34.3854
 2.1200	34.3988
 2.1190	34.3285
 2.1180	34.3972
 2.1170	34.3420
 2.1160	34.2826
 2.1150	34.2433
 2.1140	34.2697
 2.1130	34.1833
 2.1120	34.1408
 2.1110	34.1275
 2.1100	34.1127
 2.1090	34.0527
 2.1080	34.0122
 2.1070	34.0087
 2.1060	33.9951
 2.1050	33.9088
 2.1040	33.9252
 2.1030	33.9033
 2.1020	33.8360
 2.1010	33.7852
 2.1000	33.7374
 2.0990	33.7203
 2.0980	33.7033
 2.0970	33.7305
 2.0960	33.7605
 2.0950	33.6738
 2.0940	33.6669
 2.0930	33.6845
 2.0920	33.6977
 2.0910	33.7209
 2.0900	33.7290
 2.0890	33.6542
 2.0880	33.6549
 2.0870	33.6699
 2.0860	33.6523
 2.0850	33.5588
 2.0840	33.5410
 2.0830	33.5550
 2.0820	33.5422
 2.0810	33.5228
 2.0800	33.5388
 2.0790	33.5382
 2.0780	33.5062
 2.0770	33.4861
 2.0760	33.4950
 2.0750	33.5139
 2.0740	33.4580
 2.0730	33.4191
 2.0720	33.4209
 2.0710	33.4195
 2.0700	33.4079
 2.0690	33.3495
 2.0680	33.3302
 2.0670	33.3617
 2.0660	33.3648
 2.0650	33.3692
 2.0640	33.3156
 2.0630	33.2969
 2.0620	33.3076
 2.0610	33.3016
 2.0600	33.2860
 2.0590	33.2415
 2.0580	33.2208
 2.0570	33.2397
 2.0560	33.2070
 2.0550	33.1883
 2.0540	33.1525
 2.0530	33.1402
 2.0520	33.1306
 2.0510	33.1467
 2.0500	33.1439
 2.0490	33.1334
 2.0480	33.0771
 2.0470	33.0587
 2.0460	33.0376
 2.0450	33.0386
 2.0440	33.0436
 2.0430	33.0181
 2.0420	32.9595
 2.0410	32.9283
 2.0400	32.8943
 2.0390	32.8962
 2.0380	32.8717
 2.0370	32.8676
 2.0360	32.8555
 2.0350	32.8310
 2.0340	32.8243
 2.0330	32.8506
 2.0320	32.8212
 2.0310	32.7861
 2.0300	32.7543
 2.0290	32.7206
 2.0280	32.6464
 2.0270	32.7131
 2.0260	32.6958
 2.0250	32.6652
 2.0240	32.5993
 2.0230	32.6119
 2.0220	32.6114
 2.0210	32.6263
 2.0200	32.4907
 2.0190	32.5359
 2.0180	32.4912
 2.0170	32.4829
 2.0160	32.4688
 2.0150	32.5092
 2.0140	32.3833
 2.0130	32.3634
 2.0120	32.3128
 2.0110	32.4032
 2.0100	32.3661
 2.0090	32.3845
 2.0080	32.2829
 2.0070	32.2922
 2.0060	32.2655
 2.0050	32.2238
 2.0040	32.1946
 2.0030	32.2245
 2.0020	32.1456
 2.0010	32.2060
 2.0000	32.1051
 1.9990	32.0975
 1.9980	32.0547
 1.9970	32.0614
 1.9960	32.0193
 1.9950	32.0186
 1.9940	31.9641
 1.9930	32.0216
 1.9920	31.9633
 1.9910	31.9650
 1.9900	31.8944
 1.9890	31.8855
 1.9880	31.7990
 1.9870	31.8770
 1.9860	31.8021
 1.9850	31.8262
 1.9840	31.7606
 1.9830	31.6872
 1.9820	31.6354
 1.9810	31.7002
 1.9800	31.6268
 1.9790	31.6753
 1.9780	31.5881
 1.9770	31.6424
 1.9760	31.5924
 1.9750	31.6149
 1.9740	31.5625
 1.9730	31.6105
 1.9720	31.5154
 1.9710	31.5318
 1.9700	31.4983
 1.9690	31.4861
 1.9680	31.4118
 1.9670	31.4302
 1.9660	31.4279
 1.9650	31.4990
 1.9640	31.3652
 1.9630	31.3600
 1.9620	31.3598
 1.9610	31.3181
 1.9600	31.2947
 1.9590	31.3146
 1.9580	31.2933
 1.9570	31.3494
 1.9560	31.2895
 1.9550	31.2891
 1.9540	31.1801
 1.9530	31.2397
 1.9520	31.2557
 1.9510	31.2237
 1.9500	31.0927
 1.9490	31.2009
 1.9480	31.1426
 1.9470	31.2890
 1.9460	31.1313
 1.9450	31.1535
 1.9440	31.0400
 1.9430	31.1924
 1.9420	31.0488
 1.9410	31.1120
 1.9400	31.0854
 1.9390	31.1912
 1.9380	30.9503
 1.9370	31.0803
 1.9360	30.9611
 1.9350	31.0528
 1.9340	30.9463
 1.9330	31.0078
 1.9320	30.9979
 1.9310	31.0139
 1.9300	30.8947
 1.9290	31.0006
 1.9280	30.8952
 1.9270	31.0433
 1.9260	30.7800
 1.9250	31.0188
 1.9240	30.9433
 1.9230	31.0040
 1.9220	30.8236
 1.9210	30.9443
 1.9200	30.7567
 1.9190	30.9700
 1.9180	30.8274
 1.9170	30.9224
 1.9160	30.8612
 1.9150	30.8598
 1.9140	30.8426
 1.9130	30.9005
 1.9120	30.8262
 1.9110	30.8769
 1.9100	30.8313
 1.9090	30.9326
 1.9080	30.7985
 1.9070	30.8683
 1.9060	30.7712
 1.9050	30.9316
 1.9040	30.7577
 1.9030	30.9385
 1.9020	30.7403
 1.9010	30.9015
 1.9000	30.8154
 1.8990	30.8965
 1.8980	30.7793
 1.8970	30.8630
 1.8960	30.8598
 1.8950	30.9489
 1.8940	30.8552
 1.8930	30.9429
 1.8920	30.7850
 1.8910	30.8963
 1.8900	30.8058
 1.8890	31.0350
 1.8880	30.8905
 1.8870	30.9290
 1.8860	30.8654
 1.8850	30.9640
 1.8840	30.8974
 1.8830	30.9123
 1.8820	30.9103
 1.8810	30.9938
 1.8800	30.8799
 1.8790	31.0228
 1.8780	30.9799
 1.8770	30.9473
 1.8760	30.8617
 1.8750	30.9226
 1.8740	30.9504
 1.8730	30.9973
 1.8720	30.9571
 1.8710	30.9717
 1.8700	30.9315
 1.8690	30.9635
 1.8680	30.9009
 1.8670	30.9604
 1.8660	30.9619
 1.8650	30.9577
 1.8640	30.9993
 1.8630	31.0645
 1.8620	30.9511
 1.8610	31.0009
 1.8600	30.9787
 1.8590	31.0536
 1.8580	30.9960
 1.8570	31.0994
 1.8560	30.9862
 1.8550	31.0082
 1.8540	30.9983
 1.8530	31.0411
 1.8520	31.0089
 1.8510	31.0634
 1.8500	31.0184
 1.8490	31.0570
 1.8480	31.0269
 1.8470	31.0628
 1.8460	31.0264
 1.8450	31.0872
 1.8440	31.0804
 1.8430	31.1360
 1.8420	31.0863
 1.8410	31.1077
 1.8400	31.0906
 1.8390	31.1219
 1.8380	31.0976
 1.8370	31.1054
 1.8360	31.0572
 1.8350	31.1595
 1.8340	31.1724
 1.8330	31.1806
 1.8320	31.0952
 1.8310	31.1634
 1.8300	31.1953
 1.8290	31.1690
 1.8280	31.1542
 1.8270	31.2362
 1.8260	31.1638
 1.8250	31.2146
 1.8240	31.2485
 1.8230	31.3014
 1.8220	31.2675
 1.8210	31.2969
 1.8200	31.2552
 1.8190	31.2765
 1.8180	31.2709
 1.8170	31.3199
 1.8160	31.2639
 1.8150	31.3304
 1.8140	31.3560
 1.8130	31.3444
 1.8120	31.3419
 1.8110	31.3791
 1.8100	31.4005
 1.8090	31.4535
 1.8080	31.3925
 1.8070	31.4327
 1.8060	31.4396
 1.8050	31.4772
 1.8040	31.5130
 1.8030	31.5216
 1.8020	31.5000
 1.8010	31.5020
 1.8000	31.5567
 1.7990	31.6024
 1.7980	31.5689
 1.7970	31.5840
 1.7960	31.6181
 1.7950	31.6576
 1.7940	31.6442
 1.7930	31.6426
 1.7920	31.6114
 1.7910	31.6526
 1.7900	31.6616
 1.7890	31.6865
 1.7880	31.6845
 1.7870	31.6739
 1.7860	31.7455
 1.7850	31.7718
 1.7840	31.7874
 1.7830	31.7675
 1.7820	31.7782
 1.7810	31.8321
 1.7800	31.8471
 1.7790	31.8568
 1.7780	31.8386
 1.7770	31.8333
 1.7760	31.8807
 1.7750	31.8766
 1.7740	31.9104
 1.7730	31.9470
 1.7720	31.9452
 1.7710	31.9744
 1.7700	32.0399
 1.7690	32.0358
 1.7680	32.0312
 1.7670	32.0006
 1.7660	32.0750
 1.7650	32.1073
 1.7640	32.1381
 1.7630	32.1667
 1.7620	32.1925
 1.7610	32.1886
 1.7600	32.2592
 1.7590	32.2294
 1.7580	32.2035
 1.7570	32.2501
 1.7560	32.2540
 1.7550	32.2573
 1.7540	32.3441
 1.7530	32.3302
 1.7520	32.3633
 1.7510	32.3836
 1.7500	32.4692
 1.7490	32.4776
 1.7480	32.4964
 1.7470	32.5006
 1.7460	32.5037
 1.7450	32.5030
 1.7440	32.5896
 1.7430	32.5715
 1.7420	32.6364
 1.7410	32.6695
 1.7400	32.7090
 1.7390	32.7345
 1.7380	32.7589
 1.7370	32.7531
 1.7360	32.7904
 1.7350	32.7902
 1.7340	32.8416
 1.7330	32.8747
 1.7320	32.9271
 1.7310	32.8803
 1.7300	32.9779
 1.7290	32.9729
 1.7280	32.9893
 1.7270	32.9626
 1.7260	33.0289
 1.7250	33.1066
 1.7240	33.1362
 1.7230	33.1018
 1.7220	33.1877
 1.7210	33.1275
 1.7200	33.2478
 1.7190	33.2036
 1.7180	33.3034
 1.7170	33.2460
 1.7160	33.2552
 1.7150	33.2894
 1.7140	33.3104
 1.7130	33.4114
 1.7120	33.4363
 1.7110	33.4241
 1.7100	33.4676
 1.7090	33.4864
 1.7080	33.4878
 1.7070	33.5155
 1.7060	33.5958
 1.7050	33.6159
 1.7040	33.6526
 1.7030	33.5829
 1.7020	33.6589
 1.7010	33.6285
 1.7000	33.7682
 1.6990	33.7270
 1.6980	33.7731
 1.6970	33.7753
 1.6960	33.9246
 1.6950	33.8222
 1.6940	33.8858
 1.6930	33.9355
 1.6920	33.9410
 1.6910	33.9797
 1.6900	34.0761
 1.6890	34.0096
 1.6880	34.0943
 1.6870	34.0151
 1.6860	34.1590
 1.6850	34.1381
 1.6840	34.1954
 1.6830	34.2097
 1.6820	34.3237
 1.6810	34.2266
 1.6800	34.3623
 1.6790	34.3229
 1.6780	34.3754
 1.6770	34.3909
 1.6760	34.4843
 1.6750	34.4299
 1.6740	34.5535
 1.6730	34.5492
 1.6720	34.5979
 1.6710	34.6065
 1.6700	34.6156
 1.6690	34.7354
 1.6680	34.5420
 1.6670	34.6165
 1.6660	34.6995
 1.6650	34.7116
 1.6640	34.8176
 1.6630	34.7566
 1.6620	34.8802
 1.6610	34.8599
 1.6600	34.9616
 1.6590	34.9378
 1.6580	35.0400
 1.6570	35.0389
 1.6560	35.0989
 1.6550	35.1064
 1.6540	35.1058
 1.6530	35.1560
 1.6520	35.2238
 1.6510	35.0937
 1.6500	35.2692
 1.6490	35.1971
 1.6480	35.3348
 1.6470	35.3324
 1.6460	35.3594
 1.6450	35.3451
 1.6440	35.3219
 1.6430	35.4591
 1.6420	35.6068
 1.6410	35.3251
 1.6400	35.6134
 1.6390	35.5133
 1.6380	35.6591
 1.6370	35.6195
 1.6360	35.6728
 1.6350	35.6365
 1.6340	35.7711
 1.6330	35.7514
 1.6320	35.8363
 1.6310	35.7793
 1.6300	35.9249
 1.6290	35.7898
 1.6280	35.9582
 1.6270	35.9366
 1.6260	36.0367
 1.6250	35.9616
 1.6240	36.1184
 1.6230	36.0531
 1.6220	36.1714
 1.6210	36.0626
 1.6200	36.1655
 1.6190	36.1555
 1.6180	36.2580
 1.6170	36.2604
 1.6160	36.3476
 1.6150	36.3192
 1.6140	36.4128
 1.6130	36.3941
 1.6120	36.5106
 1.6110	36.3900
 1.6100	36.5330
 1.6090	36.4683
 1.6080	36.5237
 1.6070	36.5087
 1.6060	36.6679
 1.6050	36.6400
 1.6040	36.7239
 1.6030	36.6552
 1.6020	36.7884
 1.6010	36.7537
 1.6000	36.8967
 1.5990	36.8110
 1.5980	36.9221
 1.5970	36.8679
 1.5960	36.9694
 1.5950	36.9867
 1.5940	36.9586
 1.5930	36.9615
 1.5920	37.0395
 1.5910	37.0216
 1.5900	37.1771
 1.5890	37.1497
 1.5880	37.1466
 1.5870	37.2180
 1.5860	37.2948
 1.5850	37.2442
 1.5840	37.3608
 1.5830	37.3203
 1.5820	37.4237
 1.5810	37.3509
 1.5800	37.4266
 1.5790	37.4371
 1.5780	37.4881
 1.5770	37.4840
 1.5760	37.5946
 1.5750	37.5575
 1.5740	37.6433
 1.5730	37.6833
 1.5720	37.6433
 1.5710	37.6695
 1.5700	37.7484
 1.5690	37.7577
 1.5680	37.8343
 1.5670	37.7908
 1.5660	37.8411
 1.5650	37.7787
 1.5640	37.8723
 1.5630	37.8977
 1.5620	37.9499
 1.5610	37.9438
 1.5600	37.9720
 1.5590	38.0407
 1.5580	38.0681
 1.5570	38.0300
 1.5560	38.0886
 1.5550	38.0506
 1.5540	38.1672
 1.5530	38.1767
 1.5520	38.2204
 1.5510	38.2254
 1.5500	38.2361
 1.5490	38.2221
 1.5480	38.3745
 1.5470	38.3406
 1.5460	38.3624
 1.5450	38.3955
 1.5440	38.4594
 1.5430	38.4396
 1.5420	38.4767
 1.5410	38.4960
 1.5400	38.5490
 1.5390	38.5642
 1.5380	38.6474
 1.5370	38.6442
 1.5360	38.6431
 1.5350	38.6425
 1.5340	38.7033
 1.5330	38.7264
 1.5320	38.7890
 1.5310	38.7844
 1.5300	38.7724
 1.5290	38.7836
 1.5280	38.8034
 1.5270	38.8385
 1.5260	38.8700
 1.5250	38.8896
 1.5240	38.9525
 1.5230	38.9704
 1.5220	38.9825
 1.5210	38.9849
 1.5200	39.0126
 1.5190	39.0374
 1.5180	39.0831
 1.5170	39.1174
 1.5160	39.1376
 1.5150	39.1153
 1.5140	39.1164
 1.5130	39.1519
 1.5120	39.1977
 1.5110	39.1994
 1.5100	39.2615
 1.5090	39.2641
 1.5080	39.2864
 1.5070	39.3372
 1.5060	39.3670
 1.5050	39.3464
 1.5040	39.3917
 1.5030	39.4512
 1.5020	39.4326
 1.5010	39.4674
 1.5000	39.5355
 1.4990	39.5456
 1.4980	39.5465
 1.4970	39.5563
 1.4960	39.5572
 1.4950	39.5933
 1.4940	39.6513
 1.4930	39.6652
 1.4920	39.6602
 1.4910	39.6672
 1.4900	39.6687
 1.4890	39.7140
 1.4880	39.7295
 1.4870	39.7279
 1.4860	39.7429
 1.4850	39.8296
 1.4840	39.8050
 1.4830	39.7793
 1.4820	39.7982
 1.4810	39.8499
 1.4800	39.9042
 1.4790	39.9602
 1.4780	39.9670
 1.4770	39.9091
 1.4760	39.9258
 1.4750	39.9674
 1.4740	39.9846
 1.4730	40.0123
 1.4720	40.0171
 1.4710	40.0716
 1.4700	40.0523
 1.4690	40.0587
 1.4680	40.1353
 1.4670	40.1282
 1.4660	40.1132
 1.4650	40.1487
 1.4640	40.1570
 1.4630	40.2327
 1.4620	40.1838
 1.4610	40.2193
 1.4600	40.2110
 1.4590	40.2657
 1.4580	40.2884
 1.4570	40.3176
 1.4560	40.3032
 1.4550	40.3417
 1.4540	40.3514
 1.4530	40.3216
 1.4520	40.3024
 1.4510	40.3711
 1.4500	40.3521
 1.4490	40.3721
 1.4480	40.4275
 1.4470	40.5015
 1.4460	40.4292
 1.4450	40.4446
 1.4440	40.4897
 1.4430	40.5339
 1.4420	40.4478
 1.4410	40.4617
 1.4400	40.4983
 1.4390	40.5993
 1.4380	40.5742
 1.4370	40.5911
 1.4360	40.5286
 1.4350	40.6277
 1.4340	40.5854
 1.4330	40.6303
 1.4320	40.5849
 1.4310	40.6194
 1.4300	40.5848
 1.4290	40.6646
 1.4280	40.6732
 1.4270	40.7171
 1.4260	40.6562
 1.4250	40.7089
 1.4240	40.6914
 1.4230	40.7611
 1.4220	40.7428
 1.4210	40.8241
 1.4200	40.6882
 1.4190	40.7105
 1.4180	40.7840
 1.4170	40.7770
 1.4160	40.8347
 1.4150	40.8471
 1.4140	40.7620
 1.4130	40.8589
 1.4120	40.7984
 1.4110	40.8748
 1.4100	40.8804
 1.4090	40.8377
 1.4080	40.8180
 1.4070	40.8694
 1.4060	40.8136
 1.4050	40.8801
 1.4040	40.7877
 1.4030	40.9099
 1.4020	40.8446
 1.4010	40.7989
 1.4000	40.6182
 1.3990	40.5128
 1.3980	40.3078
 1.3970	40.1242
 1.3960	39.7990
 1.3950	39.5911
 1.3940	39.5802
 1.3930	39.7833
 1.3920	40.0795
 1.3910	40.5632
 1.3900	40.8050
 1.3890	40.9990
 1.3880	41.1435
 1.3870	41.1151
 1.3860	41.1932
 1.3850	41.1707
 1.3840	41.1995
 1.3830	41.1749
 1.3820	41.2008
 1.3810	41.2169
 1.3800	41.2337
 1.3790	41.2942
 1.3780	41.2685
 1.3770	41.3222
 1.3760	41.2919
 1.3750	41.3626
 1.3740	41.2944
 1.3730	41.3446
 1.3720	41.3046
 1.3710	41.4332
 1.3700	41.2879
 1.3690	41.3879
 1.3680	41.4329
 1.3670	41.4564
 1.3660	41.3513
 1.3650	41.4402
 1.3640	41.3640
 1.3630	41.5515
 1.3620	41.2603
 1.3610	41.4871
 1.3600	41.3866
 1.3590	41.4158
 1.3580	41.4237
 1.3570	41.4703
 1.3560	41.4468
 1.3550	41.3816
 1.3540	41.4414
 1.3530	41.4776
 1.3520	41.3988
 1.3510	41.5432
 1.3500	41.3973
 1.3490	41.5105
 1.3480	41.4064
 1.3470	41.5346
 1.3460	41.4208
 1.3450	41.5222
 1.3440	41.4593
 1.3430	41.5636
 1.3420	41.4727
 1.3410	41.4349
 1.3400	41.4189
 1.3390	41.4929
 1.3380	41.4946
 1.3370	41.5413
 1.3360	41.4442
 1.3350	41.5909
 1.3340	41.4961
 1.3330	41.5745
 1.3320	41.5394
 1.3310	41.5293
 1.3300	41.5089
 1.3290	41.5715
 1.3280	41.4917
 1.3270	41.5120
 1.3260	41.4912
 1.3250	41.6076
 1.3240	41.5278
 1.3230	41.5345
 1.3220	41.5495
 1.3210	41.5588
 1.3200	41.5629
 1.3190	41.6234
 1.3180	41.5080
 1.3170	41.6300
 1.3160	41.5345
 1.3150	41.5963
 1.3140	41.5466
 1.3130	41.5837
 1.3120	41.5936
 1.3110	41.5838
 1.3100	41.5898
 1.3090	41.6129
 1.3080	41.6252
 1.3070	41.5827
 1.3060	41.5995
 1.3050	41.6334
 1.3040	41.6200
 1.3030	41.6158
 1.3020	41.5869
 1.3010	41.6245
 1.3000	41.5970
 1.2990	41.6552
 1.2980	41.5929
 1.2970	41.6223
 1.2960	41.6317
 1.2950	41.6449
 1.2940	41.5682
 1.2930	41.6303
 1.2920	41.5964
 1.2910	41.6259
 1.2900	41.5668
 1.2890	41.6252
 1.2880	41.6083
 1.2870	41.6318
 1.2860	41.6132
 1.2850	41.6059
 1.2840	41.5770
 1.2830	41.6465
 1.2820	41.5843
 1.2810	41.6434
 1.2800	41.6246
 1.2790	41.5737
 1.2780	41.5526
 1.2770	41.6367
 1.2760	41.5816
 1.2750	41.5762
 1.2740	41.5646
 1.2730	41.5926
 1.2720	41.5669
 1.2710	41.6314
 1.2700	41.5856
 1.2690	41.6142
 1.2680	41.5893
 1.2670	41.6425
 1.2660	41.5934
 1.2650	41.6369
 1.2640	41.6033
 1.2630	41.5890
 1.2620	41.5898
 1.2610	41.6172
 1.2600	41.5906
 1.2590	41.5787
 1.2580	41.6315
 1.2570	41.6329
 1.2560	41.5823
 1.2550	41.6009
 1.2540	41.5685
 1.2530	41.6050
 1.2520	41.6078
 1.2510	41.5835
 1.2500	41.5293
 1.2490	41.5884
 1.2480	41.6056
 1.2470	41.5837
 1.2460	41.5487
 1.2450	41.5640
 1.2440	41.5529
 1.2430	41.5535
 1.2420	41.5770
 1.2410	41.5749
 1.2400	41.5635
 1.2390	41.5794
 1.2380	41.5464
 1.2370	41.6105
 1.2360	41.6357
 1.2350	41.6179
 1.2340	41.5812
 1.2330	41.5595
 1.2320	41.5243
 1.2310	41.4982
 1.2300	41.5751
 1.2290	41.6051
 1.2280	41.4870
 1.2270	41.5076
 1.2260	41.5307
 1.2250	41.5323
 1.2240	41.5714
 1.2230	41.5142
 1.2220	41.4857
 1.2210	41.5034
 1.2200	41.5088
 1.2190	41.5262
 1.2180	41.5248
 1.2170	41.5296
 1.2160	41.5197
 1.2150	41.5008
 1.2140	41.4782
 1.2130	41.5248
 1.2120	41.5137
 1.2110	41.4739
 1.2100	41.4862
 1.2090	41.4658
 1.2080	41.4435
 1.2070	41.4518
 1.2060	41.4784
 1.2050	41.4699
 1.2040	41.4857
 1.2030	41.4623
 1.2020	41.4740
 1.2010	41.4738
 1.2000	41.4857
 1.1990	41.4782
 1.1980	41.4688
 1.1970	41.4458
 1.1960	41.4325
 1.1950	41.4922
 1.1940	41.4925
 1.1930	41.4180
 1.1920	41.4725
 1.1910	41.4843
 1.1900	41.4767
 1.1890	41.5156
 1.1880	41.3840
 1.1870	41.3443
 1.1860	41.3854
 1.1850	41.4338
 1.1840	41.4514
 1.1830	41.3953
 1.1820	41.4044
 1.1810	41.4393
 1.1800	41.4815
 1.1790	41.3683
 1.1780	41.4239
 1.1770	41.4262
 1.1760	41.4151
 1.1750	41.4474
 1.1740	41.4525
 1.1730	41.3553
 1.1720	41.4079
 1.1710	41.4089
 1.1700	41.3828
 1.1690	41.3727
 1.1680	41.3771
 1.1670	41.3387
 1.1660	41.3588
 1.1650	41.3645
 1.1640	41.4098
 1.1630	41.3996
 1.1620	41.3758
 1.1610	41.3238
 1.1600	41.3645
 1.1590	41.3668
 1.1580	41.3319
 1.1570	41.2659
 1.1560	41.3030
 1.1550	41.3264
 1.1540	41.3280
 1.1530	41.3126
 1.1520	41.3306
 1.1510	41.2879
 1.1500	41.2657
 1.1490	41.2623
 1.1480	41.3401
 1.1470	41.3127
 1.1460	41.2911
 1.1450	41.2657
 1.1440	41.2918
 1.1430	41.2607
 1.1420	41.3109
 1.1410	41.2297
 1.1400	41.2855
 1.1390	41.2356
 1.1380	41.1995
 1.1370	41.1493
 1.1360	41.2063
 1.1350	41.1609
 1.1340	41.1251
 1.1330	41.1651
 1.1320	41.2368
 1.1310	41.1718
 1.1300	41.1679
 1.1290	41.0630
 1.1280	41.2031
 1.1270	41.1282
 1.1260	41.1575
 1.1250	41.1166
 1.1240	41.0866
 1.1230	41.0444
 1.1220	41.0841
 1.1210	41.0585
 1.1200	41.0630
 1.1190	40.9479
 1.1180	41.0099
 1.1170	40.9402
 1.1160	41.0329
 1.1150	40.9480
 1.1140	40.9664
 1.1130	40.8820
 1.1120	40.9003
 1.1110	40.9573
 1.1100	40.8825
 1.1090	40.8474
 1.1080	40.8459
 1.1070	40.8076
 1.1060	40.8280
 1.1050	40.7480
 1.1040	40.7345
 1.1030	40.6791
 1.1020	40.7124
 1.1010	40.6062
 1.1000	40.7149
 1.0990	40.5522
 1.0980	40.6496
 1.0970	40.5359
 1.0960	40.5214
 1.0950	40.5275
 1.0940	40.5182
 1.0930	40.4236
 1.0920	40.3953
 1.0910	40.3666
 1.0900	40.3779
 1.0890	40.2376
 1.0880	40.2895
 1.0870	40.2802
 1.0860	40.1898
 1.0850	40.1258
 1.0840	40.1356
 1.0830	40.0002
 1.0820	40.1201
 1.0810	39.9502
 1.0800	40.0166
 1.0790	39.8551
 1.0780	39.9235
 1.0770	39.7857
 1.0760	39.8401
 1.0750	39.6052
 1.0740	39.7362
 1.0730	39.5221
 1.0720	39.6264
 1.0710	39.4544
 1.0700	39.3219
 1.0690	39.3448
 1.0680	39.3534
 1.0670	39.1483
 1.0660	39.1391
 1.0650	39.0466
 1.0640	38.9731
 1.0630	38.8046
 1.0620	38.8917
 1.0610	38.7599
 1.0600	38.6949
 1.0590	38.5366
 1.0580	38.6107
 1.0570	38.4053
 1.0560	38.3582
 1.0550	38.1995
 1.0540	38.1602
 1.0530	38.0230
 1.0520	37.9970
 1.0510	37.8806
 1.0500	37.7207
 1.0490	37.5888
 1.0480	37.5380
 1.0470	37.3746
 1.0460	37.3710
 1.0450	37.1586
 1.0440	37.0655
 1.0430	36.9360
 1.0420	36.9215
 1.0410	36.6660
 1.0400	36.5945
 1.0390	36.3614
 1.0380	36.3261
 1.0370	36.2020
 1.0360	36.0757
 1.0350	35.9720
 1.0340	35.8212
 1.0330	35.6327
 1.0320	35.5221
 1.0310	35.3308
 1.0300	35.2672
 1.0290	35.0317
 1.0280	34.9147
 1.0270	34.7532
 1.0260	34.6492
 1.0250	34.4236
 1.0240	34.3226
 1.0230	34.0686
 1.0220	33.9553
 1.0210	33.7346
 1.0200	33.5712
 1.0190	33.3473
 1.0180	33.2444
 1.0170	32.9848
 1.0160	32.8309
 1.0150	32.6817
 1.0140	32.5434
 1.0130	32.2845
 1.0120	32.2064
 1.0110	31.9551
 1.0100	31.7837
 1.0090	31.5468
 1.0080	31.4137
 1.0070	31.2464
 1.0060	31.0736
 1.0050	30.7877
 1.0040	30.6452
 1.0030	30.3990
 1.0020	30.3109
 1.0010	30.0226
 1.0000	29.8338
 0.9990	29.6813
 0.9980	29.4484
 0.9970	29.2664
 0.9960	29.0513
 0.9950	28.8763
 0.9940	28.7313
 0.9930	28.3957
 0.9920	28.2631
 0.9910	28.0742
 0.9900	27.9322
 0.9890	27.7102
 0.9880	27.5659
 0.9870	27.3094
 0.9860	27.1620
 0.9850	27.0105
 0.9840	26.8443
 0.9830	26.6429
 0.9820	26.5054
 0.9810	26.2527
 0.9800	26.0782
 0.9790	25.9203
 0.9780	25.7910
 0.9770	25.5343
 0.9760	25.4655
 0.9750	25.2345
 0.9740	25.1059
 0.9730	24.9720
 0.9720	24.7931
 0.9710	24.6300
 0.9700	24.4907
 0.9690	24.3533
 0.9680	24.2210
 0.9670	24.1155
 0.9660	23.9906
 0.9650	23.8033
 0.9640	23.6566
 0.9630	23.5277
 0.9620	23.4543
 0.9610	23.2944
 0.9600	23.2085
 0.9590	23.0690
 0.9580	22.9703
 0.9570	22.8426
 0.9560	22.7815
 0.9550	22.6636
 0.9540	22.5315
 0.9530	22.4074
 0.9520	22.3720
 0.9510	22.2390
 0.9500	22.1668
 0.9490	22.1325
 0.9480	22.0428
 0.9470	21.9578
 0.9460	21.8630
 0.9450	21.7499
 0.9440	21.7067
 0.9430	21.6240
 0.9420	21.5890
 0.9410	21.5701
 0.9400	21.4936
 0.9390	21.3797
 0.9380	21.3569
 0.9370	21.3238
 0.9360	21.2502
 0.9350	21.1475
 0.9340	21.1460
 0.9330	21.1020
 0.9320	21.0763
 0.9310	21.0279
 0.9300	21.0014
 0.9290	20.9926
 0.9280	20.9436
 0.9270	20.9338
 0.9260	20.9480
 0.9250	20.9728
 0.9240	20.9478
 0.9230	20.8903
 0.9220	20.8442
 0.9210	20.8847
 0.9200	20.8895
 0.9190	20.8912
 0.9180	20.8584
 0.9170	20.8757
 0.9160	20.8528
 0.9150	20.8789
 0.9140	20.9265
 0.9130	20.9151
 0.9120	20.8954
 0.9110	20.9090
 0.9100	20.9174
 0.9090	21.0575
 0.9080	21.0536
 0.9070	21.0306
 0.9060	21.0766
 0.9050	21.1396
 0.9040	21.1886
 0.9030	21.2940
 0.9020	21.2513
 0.9010	21.3053
 0.9000	21.3465
 0.8990	21.3921
 0.8980	21.4582
 0.8970	21.5281
 0.8960	21.5648
 0.8950	21.6474
 0.8940	21.6853
 0.8930	21.7889
 0.8920	21.8263
 0.8910	21.9182
 0.8900	21.9366
 0.8890	22.0840
 0.8880	22.1180
 0.8870	22.2606
 0.8860	22.2885
 0.8850	22.2982
 0.8840	22.3849
 0.8830	22.5455
 0.8820	22.6065
 0.8810	22.7540
 0.8800	22.7513
 0.8790	22.9031
 0.8780	22.9762
 0.8770	23.1095
 0.8760	23.2002
 0.8750	23.2788
 0.8740	23.3467
 0.8730	23.5410
 0.8720	23.6120
 0.8710	23.7496
 0.8700	23.8144
 0.8690	23.9132
 0.8680	24.0022
 0.8670	24.1810
 0.8660	24.2334
 0.8650	24.4419
 0.8640	24.4984
 0.8630	24.6583
 0.8620	24.7300
 0.8610	24.9164
 0.8600	25.5110
 0.8590	25.7716
 0.8580	25.8972
 0.8570	26.0625
 0.8560	26.2159
 0.8550	26.3358
 0.8540	26.4596
 0.8530	26.6210
 0.8520	26.7724
 0.8510	26.9392
 0.8500	27.0849
 0.8490	27.2483
 0.8480	27.4032
 0.8470	27.5355
 0.8460	27.6884
 0.8450	27.8478
 0.8440	28.0091
 0.8430	28.1828
 0.8420	28.3407
 0.8410	28.4876
 0.8400	28.6360
 0.8390	28.8178
 0.8380	29.0130
 0.8370	29.1804
 0.8360	29.3142
 0.8350	29.4953
 0.8340	29.6820
 0.8330	29.8336
 0.8320	30.0501
 0.8310	30.1872
 0.8300	30.3778
 0.8290	30.5525
 0.8280	30.7138
 0.8270	30.8969
 0.8260	31.0426
 0.8250	31.2537
 0.8240	31.4477
 0.8230	31.6138
 0.8220	31.7843
 0.8210	31.9480
 0.8200	32.1565
 0.8190	32.3239
 0.8180	32.5031
 0.8170	32.6684
 0.8160	32.8292
 0.8150	33.0325
 0.8140	33.1827
 0.8130	33.3624
 0.8120	33.5426
 0.8110	33.7221
 0.8100	33.8618
 0.8090	34.0538
 0.8080	34.2353
 0.8070	34.4107
 0.8060	34.5785
 0.8050	34.7474
 0.8040	34.8946
 0.8030	35.0555
 0.8020	35.2271
 0.8010	35.3773
 0.8000	35.5309
 0.7990	35.6852
 0.7980	35.8181
 0.7970	35.9754
 0.7960	36.1103
 0.7950	36.2426
 0.7940	36.3910
 0.7930	36.4996
 0.7920	36.6044
 0.7910	36.7483
 0.7900	36.8772
 0.7890	37.0056
 0.7880	37.1015
 0.7870	37.2808
 0.7860	37.4074
 0.7850	37.5593
 0.7840	37.6649
 0.7830	37.7918
 0.7820	37.9022
 0.7810	38.0181
 0.7800	38.1251
 0.7790	38.2487
 0.7780	38.3174
 0.7770	38.4373
 0.7760	38.5643
 0.7750	38.6554
 0.7740	38.7513
 0.7730	38.8292
 0.7720	38.9434
 0.7710	39.0498
 0.7700	39.1044
 0.7690	39.1682
 0.7680	39.2357
 0.7670	39.3187
 0.7660	39.4181
 0.7650	39.4875
 0.7640	39.5852
 0.7630	39.6595
 0.7620	39.7165
 0.7610	39.7860
 0.7600	39.8703
 0.7590	39.9321
 0.7580	40.0100
 0.7570	40.0627
 0.7560	40.1154
 0.7550	40.1640
 0.7540	40.2506
 0.7530	40.2774
 0.7520	40.3555
 0.7510	40.4043
 0.7500	40.4444
 0.7490	40.5014
 0.7480	40.5345
 0.7470	40.5917
 0.7460	40.6391
 0.7450	40.6759
 0.7440	40.7206
 0.7430	40.7350
 0.7420	40.7954
 0.7410	40.8310
 0.7400	40.8621
 0.7390	40.8917
 0.7380	40.9294
 0.7370	40.9497
 0.7360	40.9782
 0.7350	41.0108
 0.7340	41.0413
 0.7330	41.0713
 0.7320	41.0956
 0.7310	41.1211
 0.7300	41.1585
 0.7290	41.1742
 0.7280	41.1758
 0.7270	41.2058
 0.7260	41.2259
 0.7250	41.2384
 0.7240	41.2580
 0.7230	41.2852
 0.7220	41.3034
 0.7210	41.3126
 0.7200	41.3172
 0.7190	41.3370
 0.7180	41.3437
 0.7170	41.3560
 0.7160	41.3812
 0.7150	41.3916
 0.7140	41.3977
 0.7130	41.4019
 0.7120	41.4139
 0.7110	41.4068
 0.7100	41.4235
 0.7090	41.4189
 0.7080	41.4280
 0.7070	41.4170
 0.7060	41.4406
 0.7050	41.4511
 0.7040	41.4468
 0.7030	41.4533
 0.7020	41.4634
 0.7010	41.4564
 0.7000	41.4552
 0.6990	41.4661
 0.6980	41.4580
 0.6970	41.4597
 0.6960	41.4695
 0.6950	41.4597
 0.6940	41.4555
 0.6930	41.4605
 0.6920	41.4614
 0.6910	41.4665
 0.6900	41.4651
 0.6890	41.4687
 0.6880	41.4664
 0.6870	41.4727
 0.6860	41.4571
 0.6850	41.4474
 0.6840	41.4571
 0.6830	41.4531
 0.6820	41.4535
 0.6810	41.4571
 0.6800	41.4450
 0.6790	41.4422
 0.6780	41.4371
 0.6770	41.4387
 0.6760	41.4341
 0.6750	41.4257
 0.6740	41.4212
 0.6730	41.4280
 0.6720	41.4168
 0.6710	41.4158
 0.6700	41.4054
 0.6690	41.4007
 0.6680	41.4085
 0.6670	41.4085
 0.6660	41.3935
 0.6650	41.3853
 0.6640	41.3920
 0.6630	41.3904
 0.6620	41.3742
 0.6610	41.3681
 0.6600	41.3738
 0.6590	41.3656
 0.6580	41.3512
 0.6570	41.3450
 0.6560	41.3448
 0.6550	41.3342
 0.6540	41.3255
 0.6530	41.3291
 0.6520	41.3289
 0.6510	41.3237
 0.6500	41.3132
 0.6490	41.3029
 0.6480	41.3051
 0.6470	41.3004
 0.6460	41.2969
 0.6450	41.2897
 0.6440	41.2814
 0.6430	41.2762
 0.6420	41.2691
 0.6410	41.2612
 0.6400	41.2569
 0.6390	41.2556
 0.6380	41.2441
 0.6370	41.2321
 0.6360	41.2324
 0.6350	41.2354
 0.6340	41.2300
 0.6330	41.2147
 0.6320	41.2030
 0.6310	41.1997
 0.6300	41.1896
 0.6290	41.1850
 0.6280	41.1879
 0.6270	41.1769
 0.6260	41.1528
 0.6250	41.1458
 0.6240	41.1444
 0.6230	41.1312
 0.6220	41.1297
 0.6210	41.1313
 0.6200	41.1236
 0.6190	41.1130
 0.6180	41.1130
 0.6170	41.1052
 0.6160	41.0905
 0.6150	41.0862
 0.6140	41.0792
 0.6130	41.0709
 0.6120	41.0618
 0.6110	41.0572
 0.6100	41.0504
 0.6090	41.0375
 0.6080	41.0287
 0.6070	41.0212
 0.6060	41.0217
 0.6050	41.0167
 0.6040	41.0064
 0.6030	40.9991
 0.6020	40.9939
 0.6010	40.9875
 0.6000	40.9810
 0.5990	40.9838
 0.5980	40.9824
 0.5970	40.9813
 0.5960	40.9789
 0.5950	40.9777
 0.5940	40.9682
 0.5930	40.9551
 0.5920	40.9416
 0.5910	40.9401
 0.5900	40.9230
 0.5890	40.9161
 0.5880	40.9202
 0.5870	40.9103
 0.5860	40.8930
 0.5850	40.8854
 0.5840	40.8739
 0.5830	40.8619
 0.5820	40.8519
 0.5810	40.8373
 0.5800	40.8218
 0.5790	40.8093
 0.5780	40.8012
 0.5770	40.7955
 0.5760	40.7820
 0.5750	40.7777
 0.5740	40.7553
 0.5730	40.7446
 0.5720	40.7352
 0.5710	40.7218
 0.5700	40.6996
 0.5690	40.6796
 0.5680	40.6681
 0.5670	40.6606
 0.5660	40.6377
 0.5650	40.6132
 0.5640	40.5995
 0.5630	40.5798
 0.5620	40.5559
 0.5610	40.5628
 0.5600	40.5459
 0.5590	40.5150
 0.5580	40.4870
 0.5570	40.4623
 0.5560	40.4224
 0.5550	40.3885
 0.5540	40.3602
 0.5530	40.3173
 0.5520	40.2755
 0.5510	40.2449
 0.5500	40.2028
 0.5490	40.1757
 0.5480	40.1455
 0.5470	40.1200
 0.5460	40.1190
 0.5450	40.1166
 0.5440	40.1176
 0.5430	40.1151
 0.5420	40.1267
 0.5410	40.1398
 0.5400	40.1458
 0.5390	40.1466
 0.5380	40.1519
 0.5370	40.1408
 0.5360	40.1492
 0.5350	40.1429
 0.5340	40.1308
 0.5330	40.1184
 0.5320	40.1106
 0.5310	40.0931
 0.5300	40.0820
 0.5290	40.0515
 0.5280	40.0389
 0.5270	40.0292
 0.5260	39.9995
 0.5250	39.9917
 0.5240	39.9530
 0.5230	39.9282
 0.5220	39.9086
 0.5210	39.8746
 0.5200	39.8578
 0.5190	39.8321
 0.5180	39.8040
 0.5170	39.7689
 0.5160	39.7401
 0.5150	39.7042
 0.5140	39.6684
 0.5130	39.6222
 0.5120	39.5749
 0.5110	39.5255
 0.5100	39.4432
 0.5090	39.3310
 0.5080	39.1950
 0.5070	39.0541
 0.5060	38.9514
 0.5050	38.8837
 0.5040	38.9007
 0.5030	38.9585
 0.5020	39.0468
 0.5010	39.1005
 0.5000	39.0968
 0.4990	39.0976
 0.4980	39.0838
 0.4970	39.0611
 0.4960	39.0313
 0.4950	39.0018
 0.4940	38.9752
 0.4930	38.9377
 0.4920	38.9181
 0.4910	38.8797
 0.4900	38.8422
 0.4890	38.8033
 0.4880	38.7596
 0.4870	38.7238
 0.4860	38.6844
 0.4850	38.6449
 0.4840	38.5980
 0.4830	38.5254
 0.4820	38.4776
 0.4810	38.4144
 0.4800	38.3723
 0.4790	38.3096
 0.4780	38.2654
 0.4770	38.2272
 0.4760	38.1777
 0.4750	38.1242
 0.4740	38.0965
 0.4730	38.0420
 0.4720	38.0005
 0.4710	37.9710
 0.4700	37.9118
 0.4690	37.8825
 0.4680	37.8407
 0.4670	37.7953
 0.4660	37.7649
 0.4650	37.7414
 0.4640	37.7066
 0.4630	37.6875
 0.4620	37.6432
 0.4610	37.5978
 0.4600	37.5612
 0.4590	37.5273
 0.4580	37.4794
 0.4570	37.4468
 0.4560	37.4067
 0.4550	37.3587
 0.4540	37.3295
 0.4530	37.2929
 0.4520	37.2559
 0.4510	37.1980
 0.4500	37.1708
 0.4490	37.1201
 0.4480	37.0748
 0.4470	37.0254
 0.4460	36.9855
 0.4450	36.9467
 0.4440	36.8975
 0.4430	36.8536
 0.4420	36.8134
 0.4410	36.7678
 0.4400	36.7137
 0.4390	36.6950
 0.4380	36.6521
 0.4370	36.5791
 0.4360	36.5052
 0.4350	36.4313
 0.4340	36.3394
 0.4330	36.2490
 0.4320	36.1470
 0.4310	36.0437
 0.4300	35.9537
 0.4290	35.8610
 0.4280	35.7616
 0.4270	35.6750
 0.4260	35.6087
 0.4250	35.5504
 0.4240	35.5157
 0.4230	35.4663
 0.4220	35.4236
 0.4210	35.3778
 0.4200	35.3214
 0.4190	35.2566
 0.4180	35.1914
 0.4170	35.1041
 0.4160	35.0320
 0.4150	34.9494
 0.4140	34.8642
 0.4130	34.7630
 0.4120	34.6996
 0.4110	34.6573
 0.4100	34.5696
 0.4090	34.4670
 0.4080	34.3691
 0.4070	34.2927
 0.4060	34.1939
 0.4050	34.0786
 0.4040	33.9743
 0.4030	33.8661
 0.4020	33.7603
 0.4010	33.6498
 0.4000	33.5375
