Name: Titanite (Sphene) CaTiSiO_5
Type: Mineral
Class: Silicate
Subclass: Nesosilicate
Particle Size: Fine
Sample No.: NS-7A
Owner: JPL
Wavelength Range: VSWIR
Origin: Brazil, Minas Gerais, Capelinha
Collection Date: N/A
Description: Particle size was 0-45um.Collected by JPL Original ASTER Spectral Library name was jpl.beckman.mineral.silicate.nesosilicate.fine.ns07a.spectrum.txt
Measurement: Hemispherical reflectance
First Column: X
Second Column: Y
X Units: Wavelength (micrometers)
Y Units:Reflectance (percent)
First X Value:  0.4000
Last X Value:  2.5000
Number of X Values: 826
Additional Information: mineral.silicate.nesosilicate.fine.vswir.ns-7a.jpl.beckman.ancillary.txt

 0.4000	56.6000
 0.4010	56.9300
 0.4020	57.3500
 0.4030	57.6700
 0.4040	58.2900
 0.4050	58.6900
 0.4060	59.1500
 0.4070	59.5700
 0.4080	59.9500
 0.4090	60.4000
 0.4100	60.6600
 0.4110	61.0300
 0.4120	61.3500
 0.4130	61.5300
 0.4140	61.8800
 0.4150	62.3200
 0.4160	62.5200
 0.4170	62.8200
 0.4180	63.3100
 0.4190	63.5900
 0.4200	63.9300
 0.4210	64.4000
 0.4220	64.5700
 0.4230	64.8100
 0.4240	65.1300
 0.4250	65.3900
 0.4260	65.6500
 0.4270	65.9300
 0.4280	66.3000
 0.4290	66.6000
 0.4300	66.9600
 0.4310	67.3200
 0.4320	67.6300
 0.4330	67.9000
 0.4340	68.1200
 0.4350	68.3500
 0.4360	68.6100
 0.4370	68.8500
 0.4380	68.8800
 0.4390	69.0900
 0.4400	69.4400
 0.4410	69.6300
 0.4420	69.7500
 0.4430	70.0200
 0.4440	70.2300
 0.4450	70.4100
 0.4460	70.6600
 0.4470	70.9000
 0.4480	71.0500
 0.4490	71.2500
 0.4500	71.4300
 0.4510	71.3400
 0.4520	71.4300
 0.4530	71.6200
 0.4540	71.8400
 0.4550	72.1000
 0.4560	72.2900
 0.4570	72.5800
 0.4580	72.7700
 0.4590	72.7900
 0.4600	72.8200
 0.4610	72.9900
 0.4620	73.1100
 0.4630	73.3000
 0.4640	73.5200
 0.4650	73.7600
 0.4660	73.8800
 0.4670	73.9400
 0.4680	74.1700
 0.4690	74.1500
 0.4700	74.2900
 0.4710	74.4400
 0.4720	74.5300
 0.4730	74.6900
 0.4740	74.7900
 0.4750	74.9300
 0.4760	74.9100
 0.4770	75.0900
 0.4780	75.2700
 0.4790	75.3500
 0.4800	75.6400
 0.4810	75.7300
 0.4820	75.9800
 0.4830	76.0000
 0.4840	76.1000
 0.4850	76.1800
 0.4860	76.2300
 0.4870	76.3100
 0.4880	76.3800
 0.4890	76.6100
 0.4900	76.7400
 0.4910	77.0200
 0.4920	77.1600
 0.4930	77.2700
 0.4940	77.3100
 0.4950	77.3400
 0.4960	77.4700
 0.4970	77.6500
 0.4980	77.8500
 0.4990	77.8800
 0.5000	77.9600
 0.5010	78.0400
 0.5020	78.2100
 0.5030	78.2700
 0.5040	78.3900
 0.5050	78.3500
 0.5060	78.5800
 0.5070	78.7400
 0.5080	79.0000
 0.5090	79.1300
 0.5100	79.1000
 0.5110	79.1500
 0.5120	79.2500
 0.5130	79.2400
 0.5140	79.2800
 0.5150	79.3200
 0.5160	79.4400
 0.5170	79.5200
 0.5180	79.7300
 0.5190	79.8700
 0.5200	79.9700
 0.5210	80.0500
 0.5220	80.1900
 0.5230	80.1300
 0.5240	80.2400
 0.5250	80.3400
 0.5260	80.3400
 0.5270	80.4500
 0.5280	80.4200
 0.5290	80.5200
 0.5300	80.5200
 0.5310	80.6100
 0.5320	80.6200
 0.5330	80.7800
 0.5340	80.7900
 0.5350	81.0200
 0.5360	81.0700
 0.5370	80.9600
 0.5380	81.0200
 0.5390	81.1300
 0.5400	81.1000
 0.5410	81.1800
 0.5420	81.2600
 0.5430	81.2200
 0.5440	81.4800
 0.5450	81.5500
 0.5460	81.5700
 0.5470	81.5500
 0.5480	81.6800
 0.5490	81.6400
 0.5500	81.7800
 0.5510	81.8500
 0.5520	81.8600
 0.5530	81.9200
 0.5540	81.9100
 0.5550	81.8100
 0.5560	81.9200
 0.5570	81.9000
 0.5580	82.1100
 0.5590	82.0400
 0.5600	82.5600
 0.5610	82.5300
 0.5620	82.5200
 0.5630	82.4800
 0.5640	82.4400
 0.5650	82.4800
 0.5660	82.4000
 0.5670	82.3800
 0.5680	82.4400
 0.5690	82.5500
 0.5700	82.5500
 0.5710	82.4800
 0.5720	82.3300
 0.5730	82.2400
 0.5740	82.1400
 0.5750	82.1800
 0.5760	82.1400
 0.5770	82.2900
 0.5780	82.1500
 0.5790	82.2100
 0.5800	82.2700
 0.5810	82.3700
 0.5820	82.3800
 0.5830	82.3900
 0.5840	82.2900
 0.5850	82.3000
 0.5860	82.3600
 0.5870	82.5100
 0.5880	82.4900
 0.5890	82.5000
 0.5900	82.4500
 0.5910	82.3300
 0.5920	82.3900
 0.5930	82.3800
 0.5940	82.3400
 0.5950	82.4300
 0.5960	82.6100
 0.5970	82.6200
 0.5980	82.7600
 0.5990	82.8000
 0.6000	82.7100
 0.6010	82.6500
 0.6020	82.6300
 0.6030	82.6500
 0.6040	82.6100
 0.6050	82.7600
 0.6060	82.7800
 0.6070	82.7900
 0.6080	82.8300
 0.6090	82.9400
 0.6100	82.9900
 0.6110	83.0300
 0.6120	82.9700
 0.6130	82.9100
 0.6140	82.9300
 0.6150	83.0700
 0.6160	82.9100
 0.6170	82.9600
 0.6180	82.8900
 0.6190	82.8900
 0.6200	82.9600
 0.6210	82.9000
 0.6220	83.0100
 0.6230	83.1000
 0.6240	83.1600
 0.6250	83.2300
 0.6260	83.1900
 0.6270	83.2100
 0.6280	83.1900
 0.6290	83.1800
 0.6300	83.1300
 0.6310	83.1900
 0.6320	83.2500
 0.6330	83.4100
 0.6340	83.4000
 0.6350	83.5000
 0.6360	83.5500
 0.6370	83.5500
 0.6380	83.6400
 0.6390	83.5500
 0.6400	83.7000
 0.6410	83.6900
 0.6420	83.7600
 0.6430	83.7000
 0.6440	83.7700
 0.6450	83.8200
 0.6460	83.8100
 0.6470	83.7300
 0.6480	83.7800
 0.6490	83.7900
 0.6500	83.9800
 0.6510	84.1000
 0.6520	84.2300
 0.6530	84.2800
 0.6540	84.2100
 0.6550	84.1500
 0.6560	84.0500
 0.6570	84.0000
 0.6580	84.0400
 0.6590	84.0500
 0.6600	84.2600
 0.6610	84.4200
 0.6620	84.4800
 0.6630	84.5000
 0.6640	84.4600
 0.6650	84.5700
 0.6660	84.5800
 0.6670	84.5600
 0.6680	84.6400
 0.6690	84.6400
 0.6700	84.7500
 0.6710	84.8000
 0.6720	84.9100
 0.6730	84.7800
 0.6740	84.7700
 0.6750	84.7300
 0.6760	84.7500
 0.6770	84.7600
 0.6780	84.7500
 0.6790	84.8000
 0.6800	84.7900
 0.6810	84.9800
 0.6820	84.9900
 0.6830	85.1000
 0.6840	85.2200
 0.6850	85.2000
 0.6860	85.1300
 0.6870	85.0800
 0.6880	85.0900
 0.6890	85.0500
 0.6900	85.0500
 0.6910	85.1000
 0.6920	85.1400
 0.6930	85.1600
 0.6940	85.3200
 0.6950	85.3200
 0.6960	85.3100
 0.6970	85.3300
 0.6980	85.3500
 0.6990	85.2500
 0.7000	85.3000
 0.7010	85.2000
 0.7020	85.3200
 0.7030	85.3800
 0.7040	85.4300
 0.7050	85.4100
 0.7060	85.3400
 0.7070	85.3400
 0.7080	85.4200
 0.7090	85.3200
 0.7100	85.2200
 0.7110	85.3800
 0.7120	85.4300
 0.7130	85.4900
 0.7140	85.4900
 0.7150	85.5400
 0.7160	85.5800
 0.7170	85.4700
 0.7180	85.4700
 0.7190	85.5300
 0.7200	85.6100
 0.7210	85.6200
 0.7220	85.4800
 0.7230	85.5500
 0.7240	85.5500
 0.7250	85.5600
 0.7260	85.5000
 0.7270	85.4300
 0.7280	85.5900
 0.7290	85.7200
 0.7300	85.8400
 0.7310	85.8500
 0.7320	85.7200
 0.7330	85.7900
 0.7340	85.8400
 0.7350	85.7300
 0.7360	85.7300
 0.7370	85.6500
 0.7380	85.5900
 0.7390	85.6000
 0.7400	85.7900
 0.7410	85.8500
 0.7420	85.8400
 0.7430	85.8400
 0.7440	85.8000
 0.7450	85.9100
 0.7460	85.7900
 0.7470	85.8900
 0.7480	85.8500
 0.7490	85.8600
 0.7500	85.8000
 0.7510	85.7500
 0.7520	85.7300
 0.7530	85.7400
 0.7540	85.6900
 0.7550	85.7400
 0.7560	85.8400
 0.7570	85.8400
 0.7580	85.9100
 0.7590	85.9200
 0.7600	85.9700
 0.7610	86.0300
 0.7620	85.9300
 0.7630	85.8800
 0.7640	85.8200
 0.7650	85.8600
 0.7660	85.8600
 0.7670	85.9300
 0.7680	85.9900
 0.7690	86.0400
 0.7700	86.1600
 0.7710	86.1100
 0.7720	86.0000
 0.7730	85.9800
 0.7740	86.0800
 0.7750	85.9700
 0.7760	85.9900
 0.7770	85.9500
 0.7780	85.9500
 0.7790	85.8700
 0.7800	85.9500
 0.7810	85.9500
 0.7820	86.0600
 0.7830	86.1600
 0.7840	86.1700
 0.7850	86.1700
 0.7860	86.0600
 0.7870	86.1100
 0.7880	86.0600
 0.7890	86.1700
 0.7900	86.1300
 0.7910	86.1300
 0.7920	86.1000
 0.7930	86.1600
 0.7940	86.2700
 0.7950	86.3800
 0.7960	86.3800
 0.7970	86.3100
 0.7980	86.2600
 0.7990	86.3400
 0.8000	86.1000
 0.8040	86.2100
 0.8080	86.3700
 0.8120	86.2600
 0.8160	86.1400
 0.8200	86.3700
 0.8240	86.3800
 0.8280	86.3400
 0.8320	86.2800
 0.8360	86.3600
 0.8400	86.4100
 0.8440	86.4800
 0.8480	86.3600
 0.8520	86.4200
 0.8560	86.5700
 0.8600	86.4700
 0.8640	86.4600
 0.8680	86.5800
 0.8720	86.4600
 0.8760	86.3900
 0.8800	86.4100
 0.8840	86.3800
 0.8880	86.3300
 0.8920	86.4000
 0.8960	86.4500
 0.9000	86.2700
 0.9040	86.2800
 0.9080	86.2700
 0.9120	86.2100
 0.9160	86.2600
 0.9200	86.2800
 0.9240	86.3800
 0.9280	86.1500
 0.9320	86.2100
 0.9360	86.3800
 0.9400	86.2800
 0.9440	86.2000
 0.9480	86.2600
 0.9520	86.3200
 0.9560	86.2000
 0.9600	86.2200
 0.9640	86.3200
 0.9680	86.1300
 0.9720	86.0300
 0.9760	86.1500
 0.9800	86.0800
 0.9840	86.0400
 0.9880	85.9900
 0.9920	85.9900
 0.9960	85.9900
 1.0000	86.0000
 1.0040	85.9700
 1.0080	85.8900
 1.0120	86.0100
 1.0160	85.9300
 1.0200	85.7500
 1.0240	85.9100
 1.0280	85.9100
 1.0320	85.7700
 1.0360	85.7800
 1.0400	85.8500
 1.0440	85.7700
 1.0480	85.6300
 1.0520	85.7400
 1.0560	85.7300
 1.0600	85.6200
 1.0640	85.6000
 1.0680	85.7000
 1.0720	85.5500
 1.0760	85.5600
 1.0800	85.6600
 1.0840	85.5900
 1.0880	85.5000
 1.0920	85.5800
 1.0960	85.5900
 1.1000	85.4700
 1.1040	85.4400
 1.1080	85.5400
 1.1120	85.4900
 1.1160	85.4100
 1.1200	85.4700
 1.1240	85.5600
 1.1280	85.4700
 1.1320	85.4200
 1.1360	85.3200
 1.1400	85.3200
 1.1440	85.1600
 1.1480	85.3200
 1.1520	85.2100
 1.1560	85.1100
 1.1600	85.2200
 1.1640	85.1600
 1.1680	84.9800
 1.1720	85.1100
 1.1760	84.9900
 1.1800	84.9400
 1.1840	85.0000
 1.1880	84.9600
 1.1920	84.7600
 1.1960	84.9000
 1.2000	84.8500
 1.2040	84.7600
 1.2080	84.8600
 1.2120	84.6900
 1.2160	84.7000
 1.2200	84.7600
 1.2240	84.7100
 1.2280	84.6400
 1.2320	84.6800
 1.2360	84.7100
 1.2400	84.5700
 1.2440	84.5300
 1.2480	84.6600
 1.2520	84.5600
 1.2560	84.5100
 1.2600	84.5500
 1.2640	84.4200
 1.2680	84.3900
 1.2720	84.5000
 1.2760	84.4300
 1.2800	84.4000
 1.2840	84.4300
 1.2880	84.3700
 1.2920	84.2700
 1.2960	84.2800
 1.3000	84.1500
 1.3040	84.1700
 1.3080	84.1800
 1.3120	84.1200
 1.3160	84.0000
 1.3200	84.0000
 1.3240	83.9300
 1.3280	83.8700
 1.3320	83.8900
 1.3360	83.9800
 1.3400	83.9000
 1.3440	83.8200
 1.3480	83.8600
 1.3520	83.8500
 1.3560	83.8200
 1.3600	83.8800
 1.3640	83.8300
 1.3680	83.7700
 1.3720	83.8400
 1.3760	83.7500
 1.3800	83.5900
 1.3840	83.6900
 1.3880	83.6900
 1.3920	83.6700
 1.3960	83.6300
 1.4000	83.6200
 1.4040	83.5000
 1.4080	83.5000
 1.4120	83.5400
 1.4160	83.4700
 1.4200	83.3300
 1.4240	83.3800
 1.4280	83.3200
 1.4320	83.3100
 1.4360	83.4600
 1.4400	83.4000
 1.4440	83.3300
 1.4480	83.4000
 1.4520	83.2900
 1.4560	83.2000
 1.4600	83.2400
 1.4640	83.2600
 1.4680	83.1400
 1.4720	83.1200
 1.4760	83.2400
 1.4800	83.1500
 1.4840	83.1800
 1.4880	83.3100
 1.4920	83.3900
 1.4960	83.3900
 1.5000	83.4500
 1.5040	83.3800
 1.5080	83.4400
 1.5120	83.4700
 1.5160	83.3800
 1.5200	83.4400
 1.5240	83.5400
 1.5280	83.4800
 1.5320	83.4400
 1.5360	83.5100
 1.5400	83.5400
 1.5440	83.4300
 1.5480	83.5300
 1.5520	83.4000
 1.5560	83.4800
 1.5600	83.6400
 1.5640	83.5300
 1.5680	83.5800
 1.5720	83.6000
 1.5760	83.6000
 1.5800	83.6000
 1.5840	83.6400
 1.5880	83.5500
 1.5920	83.5600
 1.5960	83.5500
 1.6000	83.5800
 1.6040	83.7200
 1.6080	83.6200
 1.6120	83.5700
 1.6160	83.6400
 1.6200	83.6100
 1.6240	83.6700
 1.6280	83.7500
 1.6320	83.6500
 1.6360	83.6300
 1.6400	83.7800
 1.6440	83.6300
 1.6480	83.6900
 1.6520	83.7300
 1.6560	83.7400
 1.6600	83.7800
 1.6640	83.8900
 1.6680	83.7700
 1.6720	83.7900
 1.6760	83.9300
 1.6800	83.8400
 1.6840	83.8100
 1.6880	83.9800
 1.6920	83.8500
 1.6960	83.8300
 1.7000	83.9100
 1.7040	83.8600
 1.7080	83.8800
 1.7120	83.9700
 1.7160	83.9200
 1.7200	83.8500
 1.7240	83.9900
 1.7280	83.9000
 1.7320	83.9700
 1.7360	83.9100
 1.7400	83.9600
 1.7440	83.9000
 1.7480	83.8400
 1.7520	83.8700
 1.7560	83.8400
 1.7600	83.8200
 1.7640	83.9000
 1.7680	83.8300
 1.7720	83.7400
 1.7760	83.8200
 1.7800	83.8800
 1.7840	83.8700
 1.7880	83.9100
 1.7920	83.8700
 1.7960	83.9100
 1.8000	83.9300
 1.8040	84.0200
 1.8080	83.9800
 1.8120	83.9400
 1.8160	83.9300
 1.8200	83.9300
 1.8240	83.9100
 1.8280	83.8500
 1.8320	83.9400
 1.8360	83.9400
 1.8400	83.8700
 1.8440	83.8500
 1.8480	83.9400
 1.8520	83.9000
 1.8560	83.8600
 1.8600	83.9800
 1.8640	83.9500
 1.8680	83.9200
 1.8720	83.9400
 1.8760	83.9100
 1.8800	83.8000
 1.8840	83.6500
 1.8880	83.6600
 1.8920	83.5500
 1.8960	83.4600
 1.9000	83.4900
 1.9040	83.5000
 1.9080	83.3300
 1.9120	83.3100
 1.9160	83.2800
 1.9200	83.2600
 1.9240	83.2300
 1.9280	83.3000
 1.9320	83.1800
 1.9360	83.2100
 1.9400	83.3000
 1.9440	83.3000
 1.9480	83.1600
 1.9520	83.2600
 1.9560	83.3300
 1.9600	83.3200
 1.9640	83.4000
 1.9680	83.5200
 1.9720	83.4800
 1.9760	83.5300
 1.9800	83.6400
 1.9840	83.7000
 1.9880	83.6800
 1.9920	83.9300
 1.9960	83.9500
 2.0000	83.9800
 2.0040	84.0300
 2.0080	84.0400
 2.0120	83.9900
 2.0160	84.1300
 2.0200	84.2200
 2.0240	84.1300
 2.0280	84.1800
 2.0320	84.3300
 2.0360	84.1800
 2.0400	84.2800
 2.0440	84.3300
 2.0480	84.3400
 2.0520	84.3400
 2.0560	84.4700
 2.0600	84.4900
 2.0640	84.3700
 2.0680	84.4900
 2.0720	84.5700
 2.0760	84.5400
 2.0800	84.5700
 2.0840	84.7500
 2.0880	84.6700
 2.0920	84.6800
 2.0960	84.8100
 2.1000	84.7600
 2.1040	84.8300
 2.1080	84.9900
 2.1120	85.0300
 2.1160	84.9800
 2.1200	85.1200
 2.1240	85.0300
 2.1280	85.0200
 2.1320	85.1100
 2.1360	84.9500
 2.1400	84.8300
 2.1440	84.8100
 2.1480	84.6400
 2.1520	84.5100
 2.1560	84.4500
 2.1600	84.2300
 2.1640	83.9700
 2.1680	83.6200
 2.1720	83.1800
 2.1760	82.4900
 2.1800	81.7300
 2.1840	80.8800
 2.1880	80.0000
 2.1920	79.3900
 2.1960	78.9300
 2.2000	78.6500
 2.2040	78.7000
 2.2080	78.8400
 2.2120	79.0300
 2.2160	79.3200
 2.2200	79.7500
 2.2240	79.8300
 2.2280	79.9600
 2.2320	80.0400
 2.2360	80.0000
 2.2400	79.8500
 2.2440	79.8800
 2.2480	79.7300
 2.2520	79.5100
 2.2560	79.4600
 2.2600	79.4500
 2.2640	79.4900
 2.2680	79.7700
 2.2720	79.9700
 2.2760	80.2300
 2.2800	80.4900
 2.2840	80.7100
 2.2880	80.9400
 2.2920	81.2700
 2.2960	81.4000
 2.3000	81.6300
 2.3040	81.7000
 2.3080	82.1000
 2.3120	82.2900
 2.3160	82.4900
 2.3200	82.8000
 2.3240	82.9000
 2.3280	83.0200
 2.3320	83.2300
 2.3360	83.2000
 2.3400	83.1700
 2.3440	83.2300
 2.3480	83.1300
 2.3520	82.9200
 2.3560	82.7800
 2.3600	82.4800
 2.3640	82.0400
 2.3680	81.3800
 2.3720	80.8100
 2.3760	79.8500
 2.3800	78.9100
 2.3840	78.1000
 2.3880	77.2500
 2.3920	76.6300
 2.3960	76.1600
 2.4000	76.0300
 2.4040	76.0900
 2.4080	76.2700
 2.4120	76.7200
 2.4160	77.2800
 2.4200	77.8300
 2.4240	78.5000
 2.4280	79.0400
 2.4320	79.4800
 2.4360	79.8200
 2.4400	80.2200
 2.4440	80.4400
 2.4480	80.4500
 2.4520	80.6200
 2.4560	80.5700
 2.4600	80.3700
 2.4640	80.2800
 2.4680	80.2800
 2.4720	80.0200
 2.4760	79.9000
 2.4800	79.8800
 2.4840	79.9000
 2.4880	79.7000
 2.4920	79.9100
 2.4960	79.7600
 2.5000	79.6200
