Name: Hydroxyapophyllite KCa_4Si_8O_20(OH,F).8H_2O
Type: Mineral
Class: Silicate
Subclass: Phyllosilicate
Particle Size: Medium
Sample No.: PS-22A
Owner: JPL
Wavelength Range: VSWIR
Origin: India, Maharashtra, Poona
Collection Date: N/A
Description: Particle size was 45-125um.Collected by Burminco Original ASTER Spectral Library name was jpl.beckman.mineral.silicate.phyllosilicate.medium.ps22a.spectrum.txt
Measurement: Hemispherical reflectance
First Column: X
Second Column: Y
X Units: Wavelength (micrometers)
Y Units:Reflectance (percent)
First X Value:  0.4000
Last X Value:  2.5000
Number of X Values: 826
Additional Information: mineral.silicate.phyllosilicate.medium.vswir.ps-22a.jpl.beckman.ancillary.txt

 0.4000	85.7700
 0.4010	85.8300
 0.4020	86.0000
 0.4030	86.0100
 0.4040	85.8100
 0.4050	86.0300
 0.4060	86.0200
 0.4070	86.0800
 0.4080	85.9700
 0.4090	86.1400
 0.4100	86.2600
 0.4110	86.1000
 0.4120	86.0400
 0.4130	86.1400
 0.4140	86.1400
 0.4150	86.3800
 0.4160	86.2700
 0.4170	86.2100
 0.4180	86.3200
 0.4190	86.2600
 0.4200	86.4500
 0.4210	86.2900
 0.4220	86.4700
 0.4230	86.5800
 0.4240	86.4500
 0.4250	86.3900
 0.4260	86.3900
 0.4270	86.4600
 0.4280	86.6400
 0.4290	86.5800
 0.4300	86.4100
 0.4310	86.7500
 0.4320	86.8100
 0.4330	86.9300
 0.4340	86.7700
 0.4350	86.9500
 0.4360	86.9000
 0.4370	86.9000
 0.4380	86.8500
 0.4390	86.9600
 0.4400	87.0200
 0.4410	87.1200
 0.4420	87.0700
 0.4430	86.7600
 0.4440	87.0600
 0.4450	87.0600
 0.4460	87.1300
 0.4470	87.1300
 0.4480	87.2400
 0.4490	87.2500
 0.4500	87.2000
 0.4510	87.0700
 0.4520	87.0800
 0.4530	87.1600
 0.4540	87.2300
 0.4550	87.0300
 0.4560	87.2700
 0.4570	87.4100
 0.4580	87.2600
 0.4590	87.3300
 0.4600	87.4100
 0.4610	87.4400
 0.4620	87.5100
 0.4630	87.5800
 0.4640	87.5700
 0.4650	87.4600
 0.4660	87.5200
 0.4670	87.7100
 0.4680	87.6000
 0.4690	87.7100
 0.4700	87.7100
 0.4710	87.8200
 0.4720	87.7700
 0.4730	87.7800
 0.4740	87.8900
 0.4750	88.0000
 0.4760	87.9400
 0.4770	87.9500
 0.4780	87.8400
 0.4790	87.9600
 0.4800	88.0800
 0.4810	87.9800
 0.4820	88.1000
 0.4830	88.2300
 0.4840	88.1200
 0.4850	88.1400
 0.4860	88.0300
 0.4870	88.0800
 0.4880	88.1000
 0.4890	88.0500
 0.4900	88.1200
 0.4910	88.1800
 0.4920	88.0700
 0.4930	88.1500
 0.4940	88.1600
 0.4950	88.1700
 0.4960	88.2900
 0.4970	88.2400
 0.4980	88.3100
 0.4990	88.3200
 0.5000	88.2100
 0.5010	88.3300
 0.5020	88.1600
 0.5030	88.3900
 0.5040	88.4500
 0.5050	88.5100
 0.5060	88.3900
 0.5070	88.3400
 0.5080	88.3500
 0.5090	88.4200
 0.5100	88.4200
 0.5110	88.5400
 0.5120	88.6100
 0.5130	88.5500
 0.5140	88.5500
 0.5150	88.4900
 0.5160	88.6000
 0.5170	88.6400
 0.5180	88.6400
 0.5190	88.7500
 0.5200	88.7600
 0.5210	88.7000
 0.5220	88.6900
 0.5230	88.6900
 0.5240	88.8100
 0.5250	88.8700
 0.5260	88.9100
 0.5270	88.8000
 0.5280	88.8100
 0.5290	88.7500
 0.5300	88.8700
 0.5310	88.6900
 0.5320	88.8100
 0.5330	88.8300
 0.5340	88.7200
 0.5350	88.8100
 0.5360	88.6900
 0.5370	88.8700
 0.5380	88.9300
 0.5390	88.9300
 0.5400	88.9300
 0.5410	88.7100
 0.5420	88.7700
 0.5430	88.9000
 0.5440	88.7900
 0.5450	88.8600
 0.5460	88.8100
 0.5470	88.8200
 0.5480	88.9400
 0.5490	88.8400
 0.5500	88.9600
 0.5510	88.9100
 0.5520	88.9200
 0.5530	88.8100
 0.5540	88.8800
 0.5550	88.9300
 0.5560	88.9100
 0.5570	88.8900
 0.5580	88.8600
 0.5590	88.8500
 0.5600	89.2000
 0.5610	89.2800
 0.5620	89.1700
 0.5630	89.2300
 0.5640	89.2800
 0.5650	89.1700
 0.5660	89.1800
 0.5670	89.0600
 0.5680	89.0600
 0.5690	89.1200
 0.5700	88.9400
 0.5710	89.0400
 0.5720	88.8700
 0.5730	88.7400
 0.5740	88.7900
 0.5750	88.6400
 0.5760	88.8500
 0.5770	88.9000
 0.5780	89.0200
 0.5790	88.8900
 0.5800	88.7100
 0.5810	88.6400
 0.5820	88.7600
 0.5830	88.6500
 0.5840	88.7500
 0.5850	88.6900
 0.5860	88.6300
 0.5870	88.6400
 0.5880	88.6000
 0.5890	88.7000
 0.5900	88.7500
 0.5910	88.6900
 0.5920	88.7500
 0.5930	88.8200
 0.5940	88.7000
 0.5950	88.6900
 0.5960	88.7100
 0.5970	88.7300
 0.5980	88.5400
 0.5990	88.6300
 0.6000	88.8400
 0.6010	88.7000
 0.6020	88.8300
 0.6030	88.7200
 0.6040	88.8400
 0.6050	88.7800
 0.6060	88.7200
 0.6070	88.6500
 0.6080	88.7600
 0.6090	88.7100
 0.6100	88.8200
 0.6110	88.6700
 0.6120	88.7300
 0.6130	88.7400
 0.6140	88.5700
 0.6150	88.6700
 0.6160	88.6200
 0.6170	88.6200
 0.6180	88.4500
 0.6190	88.4500
 0.6200	88.4500
 0.6210	88.5600
 0.6220	88.6100
 0.6230	88.5600
 0.6240	88.4100
 0.6250	88.5200
 0.6260	88.5700
 0.6270	88.4500
 0.6280	88.5100
 0.6290	88.5200
 0.6300	88.6300
 0.6310	88.5100
 0.6320	88.3900
 0.6330	88.4300
 0.6340	88.4900
 0.6350	88.4900
 0.6360	88.4500
 0.6370	88.3400
 0.6380	88.4000
 0.6390	88.5100
 0.6400	88.4600
 0.6410	88.4600
 0.6420	88.4000
 0.6430	88.4000
 0.6440	88.4500
 0.6450	88.3200
 0.6460	88.5500
 0.6470	88.5600
 0.6480	88.5700
 0.6490	88.5800
 0.6500	88.4600
 0.6510	88.5200
 0.6520	88.6700
 0.6530	88.5200
 0.6540	88.6800
 0.6550	88.6200
 0.6560	88.4500
 0.6570	88.5600
 0.6580	88.5000
 0.6590	88.5000
 0.6600	88.6200
 0.6610	88.6300
 0.6620	88.6300
 0.6630	88.5200
 0.6640	88.5700
 0.6650	88.6200
 0.6660	88.5800
 0.6670	88.6900
 0.6680	88.6300
 0.6690	88.7400
 0.6700	88.6700
 0.6710	88.6600
 0.6720	88.6600
 0.6730	88.7200
 0.6740	88.6300
 0.6750	88.7300
 0.6760	88.6700
 0.6770	88.6700
 0.6780	88.7300
 0.6790	88.6300
 0.6800	88.7400
 0.6810	88.8000
 0.6820	88.7900
 0.6830	88.7200
 0.6840	88.6100
 0.6850	88.6700
 0.6860	88.7300
 0.6870	88.6900
 0.6880	88.7900
 0.6890	88.7900
 0.6900	88.7400
 0.6910	88.7400
 0.6920	88.6900
 0.6930	88.7900
 0.6940	88.8400
 0.6950	88.7100
 0.6960	88.7600
 0.6970	88.6600
 0.6980	88.5900
 0.6990	88.6500
 0.7000	88.7900
 0.7010	88.8000
 0.7020	88.7300
 0.7030	88.7800
 0.7040	88.9600
 0.7050	88.7900
 0.7060	88.7000
 0.7070	88.8600
 0.7080	88.9200
 0.7090	88.9700
 0.7100	88.6800
 0.7110	88.8600
 0.7120	88.9800
 0.7130	88.8000
 0.7140	88.9000
 0.7150	88.7800
 0.7160	88.9000
 0.7170	88.9700
 0.7180	88.7400
 0.7190	88.9100
 0.7200	88.8600
 0.7210	88.7500
 0.7220	88.9200
 0.7230	88.7500
 0.7240	88.8500
 0.7250	88.9000
 0.7260	88.6800
 0.7270	88.6300
 0.7280	88.7600
 0.7290	88.8000
 0.7300	88.8600
 0.7310	88.7500
 0.7320	88.8700
 0.7330	88.9100
 0.7340	88.7300
 0.7350	88.6700
 0.7360	88.6200
 0.7370	88.7400
 0.7380	88.8500
 0.7390	88.6800
 0.7400	88.6900
 0.7410	88.8000
 0.7420	88.6400
 0.7430	88.6900
 0.7440	88.5200
 0.7450	88.6300
 0.7460	88.7400
 0.7470	88.5300
 0.7480	88.3600
 0.7490	88.4600
 0.7500	88.3600
 0.7510	88.4800
 0.7520	88.2500
 0.7530	88.2300
 0.7540	88.3400
 0.7550	88.1700
 0.7560	88.0100
 0.7570	88.0100
 0.7580	88.1200
 0.7590	88.4100
 0.7600	88.2400
 0.7610	88.4700
 0.7620	88.4700
 0.7630	88.4000
 0.7640	88.4700
 0.7650	88.4800
 0.7660	88.4800
 0.7670	88.6300
 0.7680	88.4200
 0.7690	88.3600
 0.7700	88.5400
 0.7710	88.4700
 0.7720	88.5800
 0.7730	88.4800
 0.7740	88.6000
 0.7750	88.7000
 0.7760	88.5900
 0.7770	88.6900
 0.7780	88.6400
 0.7790	88.6000
 0.7800	88.7000
 0.7810	88.6300
 0.7820	88.4800
 0.7830	88.6000
 0.7840	88.6000
 0.7850	88.7600
 0.7860	88.5400
 0.7870	88.5500
 0.7880	88.7100
 0.7890	88.5400
 0.7900	88.5800
 0.7910	88.5300
 0.7920	88.6400
 0.7930	88.8200
 0.7940	88.6300
 0.7950	88.6900
 0.7960	88.7500
 0.7970	88.5800
 0.7980	88.6600
 0.7990	88.4600
 0.8000	88.5900
 0.8040	88.5300
 0.8080	88.4100
 0.8120	88.4500
 0.8160	88.4000
 0.8200	88.5200
 0.8240	88.4200
 0.8280	88.3600
 0.8320	88.3400
 0.8360	88.2200
 0.8400	88.2700
 0.8440	88.2700
 0.8480	88.1700
 0.8520	88.1400
 0.8560	88.2000
 0.8600	88.3800
 0.8640	88.4300
 0.8680	88.5000
 0.8720	88.4300
 0.8760	88.2600
 0.8800	88.2500
 0.8840	88.2500
 0.8880	88.3800
 0.8920	88.2500
 0.8960	88.1900
 0.9000	88.1400
 0.9040	88.0000
 0.9080	88.1300
 0.9120	88.1300
 0.9160	87.9700
 0.9200	87.8900
 0.9240	87.8400
 0.9280	87.7800
 0.9320	87.7600
 0.9360	87.7200
 0.9400	87.6400
 0.9440	87.6400
 0.9480	87.7000
 0.9520	87.5200
 0.9560	87.3600
 0.9600	86.7000
 0.9640	85.8500
 0.9680	84.5600
 0.9720	83.0100
 0.9760	81.8700
 0.9800	81.5800
 0.9840	82.3300
 0.9880	83.7000
 0.9920	84.9100
 0.9960	85.3700
 1.0000	86.0900
 1.0040	86.5600
 1.0080	86.7500
 1.0120	86.9900
 1.0160	87.1100
 1.0200	87.1600
 1.0240	87.1600
 1.0280	87.2200
 1.0320	87.2900
 1.0360	87.2500
 1.0400	87.3700
 1.0440	87.3100
 1.0480	87.1700
 1.0520	87.1200
 1.0560	87.1600
 1.0600	87.1100
 1.0640	87.2000
 1.0680	87.1300
 1.0720	87.0600
 1.0760	86.9500
 1.0800	86.7500
 1.0840	86.7200
 1.0880	86.7300
 1.0920	86.7300
 1.0960	86.8400
 1.1000	86.8500
 1.1040	86.9500
 1.1080	86.9300
 1.1120	86.9100
 1.1160	86.8900
 1.1200	86.9200
 1.1240	86.7900
 1.1280	86.6700
 1.1320	86.2700
 1.1360	85.7800
 1.1400	85.1300
 1.1440	83.9700
 1.1480	82.2400
 1.1520	79.6900
 1.1560	76.7700
 1.1600	75.9900
 1.1640	78.0800
 1.1680	80.6900
 1.1720	82.2300
 1.1760	82.9600
 1.1800	83.3900
 1.1840	83.7500
 1.1880	83.8600
 1.1920	84.0000
 1.1960	84.0300
 1.2000	84.0400
 1.2040	83.9100
 1.2080	83.8800
 1.2120	83.9200
 1.2160	84.0600
 1.2200	84.1700
 1.2240	84.2500
 1.2280	84.2100
 1.2320	84.1300
 1.2360	84.0400
 1.2400	83.9500
 1.2440	83.7400
 1.2480	83.6900
 1.2520	83.5400
 1.2560	83.4600
 1.2600	83.2800
 1.2640	83.1400
 1.2680	82.9900
 1.2720	82.9000
 1.2760	82.6200
 1.2800	82.3800
 1.2840	82.0200
 1.2880	81.7100
 1.2920	81.3500
 1.2960	81.2400
 1.3000	81.0900
 1.3040	80.7100
 1.3080	80.1900
 1.3120	79.2700
 1.3160	78.6000
 1.3200	78.2200
 1.3240	78.1900
 1.3280	78.0300
 1.3320	77.4300
 1.3360	76.7700
 1.3400	76.7200
 1.3440	77.1900
 1.3480	77.6400
 1.3520	77.9200
 1.3560	77.9600
 1.3600	78.0800
 1.3640	77.9500
 1.3680	77.9300
 1.3720	77.8300
 1.3760	77.7200
 1.3800	77.4700
 1.3840	76.9500
 1.3880	76.2900
 1.3920	74.9500
 1.3960	72.6900
 1.4000	70.1100
 1.4040	68.4100
 1.4080	66.5200
 1.4120	63.5300
 1.4160	60.0100
 1.4200	56.5000
 1.4240	52.9100
 1.4280	48.8900
 1.4320	43.9700
 1.4360	40.2600
 1.4400	41.1000
 1.4440	46.0400
 1.4480	51.0200
 1.4520	54.6800
 1.4560	57.1800
 1.4600	58.6700
 1.4640	59.6200
 1.4680	60.1300
 1.4720	60.4800
 1.4760	60.6000
 1.4800	60.5500
 1.4840	60.3700
 1.4880	60.1900
 1.4920	60.0100
 1.4960	59.7700
 1.5000	59.5800
 1.5040	59.1000
 1.5080	58.8700
 1.5120	58.7000
 1.5160	59.1400
 1.5200	60.0200
 1.5240	61.1500
 1.5280	62.2600
 1.5320	63.0400
 1.5360	63.7700
 1.5400	64.1700
 1.5440	64.5200
 1.5480	64.7700
 1.5520	64.9000
 1.5560	64.9300
 1.5600	64.9000
 1.5640	64.9000
 1.5680	64.7100
 1.5720	64.4100
 1.5760	64.1100
 1.5800	63.7900
 1.5840	63.3700
 1.5880	63.0400
 1.5920	62.5600
 1.5960	62.0400
 1.6000	61.5400
 1.6040	60.9600
 1.6080	60.4700
 1.6120	59.8700
 1.6160	59.4000
 1.6200	58.6800
 1.6240	58.1000
 1.6280	57.4800
 1.6320	56.7400
 1.6360	56.2000
 1.6400	55.5300
 1.6440	54.9000
 1.6480	54.3700
 1.6520	53.8200
 1.6560	53.3500
 1.6600	52.7500
 1.6640	52.1500
 1.6680	51.6000
 1.6720	51.1400
 1.6760	50.5800
 1.6800	50.0500
 1.6840	49.3100
 1.6880	48.5600
 1.6920	47.8400
 1.6960	47.0900
 1.7000	46.3900
 1.7040	45.8200
 1.7080	45.3300
 1.7120	45.0200
 1.7160	44.7600
 1.7200	44.5000
 1.7240	44.3400
 1.7280	44.0600
 1.7320	43.8800
 1.7360	43.5600
 1.7400	43.3000
 1.7440	43.1400
 1.7480	43.0900
 1.7520	43.0100
 1.7560	42.8700
 1.7600	42.7900
 1.7640	42.5900
 1.7680	42.4700
 1.7720	42.4400
 1.7760	42.3200
 1.7800	42.2800
 1.7840	42.2600
 1.7880	42.3100
 1.7920	42.2700
 1.7960	42.2200
 1.8000	42.2500
 1.8040	42.2400
 1.8080	42.2500
 1.8120	42.2200
 1.8160	42.2800
 1.8200	42.3700
 1.8240	42.4200
 1.8280	42.5000
 1.8320	42.4400
 1.8360	42.5000
 1.8400	42.3300
 1.8440	42.0500
 1.8480	41.7800
 1.8520	41.4000
 1.8560	40.9200
 1.8600	40.3100
 1.8640	39.6900
 1.8680	38.9200
 1.8720	37.9700
 1.8760	36.8300
 1.8800	35.1900
 1.8840	32.9400
 1.8880	29.7800
 1.8920	25.9000
 1.8960	21.8900
 1.9000	18.4300
 1.9040	16.1600
 1.9080	15.4900
 1.9120	16.4400
 1.9160	18.6300
 1.9200	21.4100
 1.9240	24.3400
 1.9280	27.0000
 1.9320	28.9800
 1.9360	30.4700
 1.9400	31.4200
 1.9440	32.1100
 1.9480	32.5100
 1.9520	32.6800
 1.9560	32.8700
 1.9600	33.0000
 1.9640	33.0100
 1.9680	32.9600
 1.9720	32.8100
 1.9760	32.7000
 1.9800	32.6400
 1.9840	32.7300
 1.9880	32.7300
 1.9920	32.7800
 1.9960	32.9600
 2.0000	33.0800
 2.0040	33.1300
 2.0080	33.1700
 2.0120	33.2300
 2.0160	33.3300
 2.0200	33.4100
 2.0240	33.5400
 2.0280	33.5900
 2.0320	33.5900
 2.0360	33.6300
 2.0400	33.7200
 2.0440	33.6500
 2.0480	33.6600
 2.0520	33.6500
 2.0560	33.6700
 2.0600	33.7400
 2.0640	33.7800
 2.0680	33.9300
 2.0720	34.0700
 2.0760	34.2400
 2.0800	34.3400
 2.0840	34.2900
 2.0880	34.3300
 2.0920	34.2100
 2.0960	33.9000
 2.1000	33.6100
 2.1040	33.2400
 2.1080	32.8500
 2.1120	32.4500
 2.1160	32.0800
 2.1200	31.7500
 2.1240	31.4300
 2.1280	31.2500
 2.1320	31.1800
 2.1360	31.2500
 2.1400	31.3500
 2.1440	31.6500
 2.1480	32.0500
 2.1520	32.4200
 2.1560	32.7600
 2.1600	33.0800
 2.1640	33.3500
 2.1680	33.6200
 2.1720	33.9200
 2.1760	34.0600
 2.1800	34.3300
 2.1840	34.5600
 2.1880	34.8900
 2.1920	35.2400
 2.1960	35.6300
 2.2000	36.0900
 2.2040	36.4100
 2.2080	36.7500
 2.2120	37.0700
 2.2160	37.4600
 2.2200	37.7900
 2.2240	38.0600
 2.2280	38.3500
 2.2320	38.5600
 2.2360	38.7400
 2.2400	38.9500
 2.2440	39.0000
 2.2480	39.1600
 2.2520	39.1000
 2.2560	39.1100
 2.2600	39.0700
 2.2640	38.9600
 2.2680	38.8100
 2.2720	38.6900
 2.2760	38.4700
 2.2800	38.0600
 2.2840	37.7400
 2.2880	37.2900
 2.2920	36.9700
 2.2960	36.7400
 2.3000	36.6000
 2.3040	36.4400
 2.3080	36.4200
 2.3120	36.4000
 2.3160	36.4200
 2.3200	36.3700
 2.3240	36.2700
 2.3280	35.8800
 2.3320	35.3100
 2.3360	34.3500
 2.3400	33.1200
 2.3440	31.5500
 2.3480	29.7100
 2.3520	27.5700
 2.3560	25.3300
 2.3600	23.0300
 2.3640	20.8500
 2.3680	18.8700
 2.3720	17.1600
 2.3760	15.8600
 2.3800	14.8600
 2.3840	14.1000
 2.3880	13.7200
 2.3920	13.5200
 2.3960	13.5500
 2.4000	13.7600
 2.4040	14.0700
 2.4080	14.5300
 2.4120	15.0400
 2.4160	15.5800
 2.4200	15.9800
 2.4240	16.3300
 2.4280	16.5500
 2.4320	16.5800
 2.4360	16.4600
 2.4400	16.2000
 2.4440	15.9100
 2.4480	15.6200
 2.4520	15.4400
 2.4560	15.3700
 2.4600	15.4100
 2.4640	15.6400
 2.4680	16.0000
 2.4720	16.4600
 2.4760	16.9000
 2.4800	17.3600
 2.4840	17.8200
 2.4880	18.2600
 2.4920	18.7000
 2.4960	19.1500
 2.5000	19.5400
