Name: Chlorite
Type: Mineral
Class: Silicate
Subclass: Phyllosilicate
Particle Size: Medium
Sample No.: PS-12E
Owner: JPL
Wavelength Range: VSWIR
Origin: USA, Vermont.
Collection Date: N/A
Description: Particle size was 45-125um.Collected by:  Ward's Original ASTER Spectral Library name was jpl.perkin.mineral.silicate.phyllosilicate.medium.ps12e.spectrum.txt
Measurement: Hemispherical reflectance
First Column: X
Second Column: Y
X Units: Wavelength (micrometers)
Y Units:Reflectance (percent)
First X Value:  2.5000
Last X Value:  0.4000
Number of X Values: 2101
Additional Information: mineral.silicate.phyllosilicate.medium.vswir.ps-12e.jpl.perkin.ancillary.txt

 2.5000	25.7816
 2.4990	25.5987
 2.4980	25.6592
 2.4970	25.9575
 2.4960	25.2904
 2.4950	25.9175
 2.4940	25.4345
 2.4930	25.7753
 2.4920	25.5516
 2.4910	25.6980
 2.4900	25.6813
 2.4890	25.7773
 2.4880	25.6295
 2.4870	25.9004
 2.4860	25.6631
 2.4850	25.7158
 2.4840	25.5858
 2.4830	25.7142
 2.4820	25.7749
 2.4810	25.6683
 2.4800	25.7419
 2.4790	25.9302
 2.4780	25.7526
 2.4770	25.9619
 2.4760	25.7762
 2.4750	25.9782
 2.4740	25.9446
 2.4730	26.1709
 2.4720	26.0627
 2.4710	26.1447
 2.4700	26.1385
 2.4690	26.2722
 2.4680	26.3913
 2.4670	26.4007
 2.4660	26.4091
 2.4650	26.5824
 2.4640	26.6554
 2.4630	26.8768
 2.4620	26.7625
 2.4610	26.9419
 2.4600	26.9841
 2.4590	27.3002
 2.4580	27.1986
 2.4570	27.3865
 2.4560	27.4148
 2.4550	27.5962
 2.4540	27.7206
 2.4530	27.8335
 2.4520	27.9164
 2.4510	28.0046
 2.4500	28.1371
 2.4490	28.3070
 2.4480	28.3900
 2.4470	28.5411
 2.4460	28.4952
 2.4450	28.6527
 2.4440	28.6224
 2.4430	28.8958
 2.4420	28.8340
 2.4410	29.0383
 2.4400	28.9653
 2.4390	29.0688
 2.4380	29.2014
 2.4370	29.2806
 2.4360	29.3880
 2.4350	29.4829
 2.4340	29.4204
 2.4330	29.5835
 2.4320	29.5210
 2.4310	29.6161
 2.4300	29.8104
 2.4290	29.8803
 2.4280	29.8185
 2.4270	29.9680
 2.4260	29.9424
 2.4250	30.0702
 2.4240	30.0809
 2.4230	30.2349
 2.4220	30.1917
 2.4210	30.2583
 2.4200	30.3034
 2.4190	30.3259
 2.4180	30.2819
 2.4170	30.3773
 2.4160	30.3661
 2.4150	30.3499
 2.4140	30.3173
 2.4130	30.3685
 2.4120	30.2437
 2.4110	30.2235
 2.4100	30.1826
 2.4090	30.1606
 2.4080	30.0363
 2.4070	29.9986
 2.4060	29.8660
 2.4050	29.8484
 2.4040	29.7210
 2.4030	29.6792
 2.4020	29.6056
 2.4010	29.5291
 2.4000	29.4152
 2.3990	29.3238
 2.3980	29.2160
 2.3970	29.1829
 2.3960	29.0838
 2.3950	28.9987
 2.3940	28.8705
 2.3930	28.8781
 2.3920	28.8144
 2.3910	28.6835
 2.3900	28.7095
 2.3890	28.7179
 2.3880	28.6151
 2.3870	28.4952
 2.3860	28.5028
 2.3850	28.4948
 2.3840	28.3723
 2.3830	28.3414
 2.3820	28.2925
 2.3810	28.2884
 2.3800	28.2606
 2.3790	28.1707
 2.3780	28.0963
 2.3770	28.0095
 2.3760	27.9337
 2.3750	27.8822
 2.3740	27.7523
 2.3730	27.6551
 2.3720	27.4963
 2.3710	27.2956
 2.3700	27.1629
 2.3690	27.0266
 2.3680	26.8853
 2.3670	26.7216
 2.3660	26.5017
 2.3650	26.3076
 2.3640	26.1232
 2.3630	25.9715
 2.3620	25.7706
 2.3610	25.5822
 2.3600	25.3312
 2.3590	25.1805
 2.3580	25.0250
 2.3570	24.7956
 2.3560	24.6082
 2.3550	24.3829
 2.3540	24.2029
 2.3530	24.0688
 2.3520	23.9292
 2.3510	23.7414
 2.3500	23.5786
 2.3490	23.4645
 2.3480	23.2873
 2.3470	23.1330
 2.3460	23.0346
 2.3450	22.8789
 2.3440	22.8114
 2.3430	22.7601
 2.3420	22.6383
 2.3410	22.5586
 2.3400	22.4967
 2.3390	22.4021
 2.3380	22.3494
 2.3370	22.2609
 2.3360	22.2427
 2.3350	22.2826
 2.3340	22.2209
 2.3330	22.1765
 2.3320	22.2247
 2.3310	22.2055
 2.3300	22.2446
 2.3290	22.3415
 2.3280	22.3951
 2.3270	22.3652
 2.3260	22.5003
 2.3250	22.5686
 2.3240	22.6267
 2.3230	22.6537
 2.3220	22.7922
 2.3210	22.9258
 2.3200	23.0216
 2.3190	23.1181
 2.3180	23.2715
 2.3170	23.3018
 2.3160	23.4605
 2.3150	23.5040
 2.3140	23.6203
 2.3130	23.7550
 2.3120	23.8435
 2.3110	23.9189
 2.3100	24.0277
 2.3090	24.1747
 2.3080	24.2314
 2.3070	24.2956
 2.3060	24.4018
 2.3050	24.4077
 2.3040	24.4619
 2.3030	24.5158
 2.3020	24.5708
 2.3010	24.5491
 2.3000	24.7140
 2.2990	24.6843
 2.2980	24.7761
 2.2970	24.8229
 2.2960	24.9344
 2.2950	24.9928
 2.2940	25.0602
 2.2930	25.1177
 2.2920	25.2645
 2.2910	25.4135
 2.2900	25.5553
 2.2890	25.6237
 2.2880	25.8993
 2.2870	26.0273
 2.2860	26.2598
 2.2850	26.4075
 2.2840	26.7172
 2.2830	26.9536
 2.2820	27.1922
 2.2810	27.3136
 2.2800	27.5871
 2.2790	27.7079
 2.2780	28.0024
 2.2770	28.1374
 2.2760	28.3934
 2.2750	28.4476
 2.2740	28.5833
 2.2730	28.6627
 2.2720	28.7949
 2.2710	28.7536
 2.2700	28.8767
 2.2690	28.8382
 2.2680	28.9713
 2.2670	28.9369
 2.2660	28.9135
 2.2650	28.9192
 2.2640	28.8533
 2.2630	28.7928
 2.2620	28.7829
 2.2610	28.6067
 2.2600	28.5820
 2.2590	28.4131
 2.2580	28.3034
 2.2570	28.1561
 2.2560	28.2005
 2.2550	27.9804
 2.2540	27.9115
 2.2530	27.7602
 2.2520	27.8276
 2.2510	27.6686
 2.2500	27.7759
 2.2490	27.7220
 2.2480	27.9582
 2.2470	27.9143
 2.2460	28.1557
 2.2450	28.2932
 2.2440	28.5267
 2.2430	28.8292
 2.2420	29.1535
 2.2410	29.4648
 2.2400	29.8950
 2.2390	30.3709
 2.2380	30.7811
 2.2370	31.1704
 2.2360	31.7470
 2.2350	32.1393
 2.2340	32.5666
 2.2330	32.9563
 2.2320	33.5096
 2.2310	33.7830
 2.2300	34.2278
 2.2290	34.5407
 2.2280	35.0395
 2.2270	35.2549
 2.2260	35.6120
 2.2250	35.9124
 2.2240	36.2154
 2.2230	36.3983
 2.2220	36.6764
 2.2210	36.8159
 2.2200	37.1199
 2.2190	37.2635
 2.2180	37.5284
 2.2170	37.6087
 2.2160	37.8477
 2.2150	37.9318
 2.2140	38.1246
 2.2130	38.2630
 2.2120	38.3904
 2.2110	38.3241
 2.2100	38.6184
 2.2090	38.6542
 2.2080	38.8081
 2.2070	38.8790
 2.2060	39.0319
 2.2050	39.0458
 2.2040	39.1639
 2.2030	39.2910
 2.2020	39.4171
 2.2010	39.4400
 2.2000	39.5009
 2.1990	39.5675
 2.1980	39.6199
 2.1970	39.7195
 2.1960	39.7452
 2.1950	39.7995
 2.1940	39.9341
 2.1930	39.9025
 2.1920	40.0097
 2.1910	39.9743
 2.1900	40.1980
 2.1890	40.2058
 2.1880	40.3118
 2.1870	40.3328
 2.1860	40.3923
 2.1850	40.3499
 2.1840	40.5268
 2.1830	40.5126
 2.1820	40.6070
 2.1810	40.6506
 2.1800	40.7401
 2.1790	40.7300
 2.1780	40.7911
 2.1770	40.8534
 2.1760	40.9803
 2.1750	40.9581
 2.1740	41.0760
 2.1730	41.0928
 2.1720	41.0818
 2.1710	41.1819
 2.1700	41.2107
 2.1690	41.2086
 2.1680	41.3336
 2.1670	41.2147
 2.1660	41.3461
 2.1650	41.3349
 2.1640	41.4866
 2.1630	41.4196
 2.1620	41.4407
 2.1610	41.4991
 2.1600	41.5578
 2.1590	41.5598
 2.1580	41.5718
 2.1570	41.5777
 2.1560	41.6607
 2.1550	41.6663
 2.1540	41.6452
 2.1530	41.7422
 2.1520	41.6896
 2.1510	41.7204
 2.1500	41.8020
 2.1490	41.7640
 2.1480	41.8507
 2.1470	41.7693
 2.1460	41.8463
 2.1450	41.7753
 2.1440	41.8241
 2.1430	41.8373
 2.1420	41.8576
 2.1410	41.8753
 2.1400	41.8430
 2.1390	41.8111
 2.1380	41.8257
 2.1370	41.7670
 2.1360	41.7694
 2.1350	41.7667
 2.1340	41.7337
 2.1330	41.6880
 2.1320	41.6297
 2.1310	41.6302
 2.1300	41.6446
 2.1290	41.5411
 2.1280	41.5604
 2.1270	41.5229
 2.1260	41.5318
 2.1250	41.4348
 2.1240	41.4293
 2.1230	41.3185
 2.1220	41.3520
 2.1210	41.3436
 2.1200	41.3388
 2.1190	41.2991
 2.1180	41.2454
 2.1170	41.2399
 2.1160	41.2618
 2.1150	41.2063
 2.1140	41.1758
 2.1130	41.1149
 2.1120	41.0858
 2.1110	41.0437
 2.1100	41.1162
 2.1090	41.1037
 2.1080	41.1009
 2.1070	41.0758
 2.1060	41.0995
 2.1050	41.0359
 2.1040	41.0745
 2.1030	41.0796
 2.1020	41.0664
 2.1010	41.0805
 2.1000	41.0697
 2.0990	41.0509
 2.0980	41.1119
 2.0970	41.1547
 2.0960	41.1781
 2.0950	41.1464
 2.0940	41.1817
 2.0930	41.2434
 2.0920	41.3009
 2.0910	41.2506
 2.0900	41.2651
 2.0890	41.2965
 2.0880	41.3274
 2.0870	41.3315
 2.0860	41.3183
 2.0850	41.2843
 2.0840	41.2694
 2.0830	41.2331
 2.0820	41.2359
 2.0810	41.2168
 2.0800	41.2509
 2.0790	41.2452
 2.0780	41.1985
 2.0770	41.1899
 2.0760	41.1746
 2.0750	41.1303
 2.0740	41.1526
 2.0730	41.1755
 2.0720	41.1387
 2.0710	41.1079
 2.0700	41.0710
 2.0690	41.0169
 2.0680	41.0265
 2.0670	41.0314
 2.0660	41.0320
 2.0650	41.0265
 2.0640	40.9615
 2.0630	40.9181
 2.0620	40.8952
 2.0610	40.8846
 2.0600	40.8516
 2.0590	40.8316
 2.0580	40.7935
 2.0570	40.7650
 2.0560	40.7255
 2.0550	40.7054
 2.0540	40.6578
 2.0530	40.6399
 2.0520	40.5979
 2.0510	40.5407
 2.0500	40.4571
 2.0490	40.4563
 2.0480	40.3566
 2.0470	40.3536
 2.0460	40.3082
 2.0450	40.2807
 2.0440	40.1967
 2.0430	40.1598
 2.0420	40.0473
 2.0410	40.0122
 2.0400	39.9075
 2.0390	39.8784
 2.0380	39.7823
 2.0370	39.7165
 2.0360	39.6954
 2.0350	39.6109
 2.0340	39.5065
 2.0330	39.4019
 2.0320	39.2944
 2.0310	39.2412
 2.0300	39.1038
 2.0290	39.0482
 2.0280	38.8871
 2.0270	38.8175
 2.0260	38.7361
 2.0250	38.6348
 2.0240	38.4697
 2.0230	38.4193
 2.0220	38.2644
 2.0210	38.1723
 2.0200	37.9981
 2.0190	37.9224
 2.0180	37.8138
 2.0170	37.7201
 2.0160	37.6256
 2.0150	37.4978
 2.0140	37.3651
 2.0130	37.4143
 2.0120	37.2781
 2.0110	37.1407
 2.0100	37.1353
 2.0090	37.1055
 2.0080	36.9609
 2.0070	36.8901
 2.0060	36.8484
 2.0050	36.8428
 2.0040	36.7281
 2.0030	36.7243
 2.0020	36.6433
 2.0010	36.5827
 2.0000	36.5904
 1.9990	36.5773
 1.9980	36.5510
 1.9970	36.5777
 1.9960	36.4682
 1.9950	36.4505
 1.9940	36.3897
 1.9930	36.4747
 1.9920	36.4070
 1.9910	36.4324
 1.9900	36.4234
 1.9890	36.4892
 1.9880	36.4493
 1.9870	36.4496
 1.9860	36.4178
 1.9850	36.4614
 1.9840	36.4582
 1.9830	36.4991
 1.9820	36.4259
 1.9810	36.5257
 1.9800	36.4852
 1.9790	36.6164
 1.9780	36.6525
 1.9770	36.7385
 1.9760	36.6439
 1.9750	36.8116
 1.9740	36.8174
 1.9730	36.9632
 1.9720	36.9417
 1.9710	37.0132
 1.9700	37.0131
 1.9690	37.0517
 1.9680	37.0671
 1.9670	37.1603
 1.9660	37.1722
 1.9650	37.2444
 1.9640	37.2158
 1.9630	37.2513
 1.9620	37.1959
 1.9610	37.3185
 1.9600	37.3560
 1.9590	37.3699
 1.9580	37.2321
 1.9570	37.3186
 1.9560	37.3043
 1.9550	37.3779
 1.9540	37.3177
 1.9530	37.3846
 1.9520	37.4040
 1.9510	37.4603
 1.9500	37.3720
 1.9490	37.6076
 1.9480	37.5105
 1.9470	37.6704
 1.9460	37.6195
 1.9450	37.6672
 1.9440	37.5954
 1.9430	37.7635
 1.9420	37.8624
 1.9410	37.8642
 1.9400	37.7623
 1.9390	38.0087
 1.9380	37.9217
 1.9370	38.0883
 1.9360	38.0505
 1.9350	38.0306
 1.9340	38.1108
 1.9330	38.1635
 1.9320	38.1220
 1.9310	38.1948
 1.9300	38.1335
 1.9290	38.3050
 1.9280	38.1478
 1.9270	38.3301
 1.9260	38.1071
 1.9250	38.3637
 1.9240	38.2692
 1.9230	38.3018
 1.9220	38.2951
 1.9210	38.2965
 1.9200	38.2476
 1.9190	38.2792
 1.9180	38.2766
 1.9170	38.3036
 1.9160	38.2183
 1.9150	38.3958
 1.9140	38.2368
 1.9130	38.3013
 1.9120	38.2430
 1.9110	38.3032
 1.9100	38.2138
 1.9090	38.2751
 1.9080	38.1746
 1.9070	38.2334
 1.9060	38.1531
 1.9050	38.2223
 1.9040	38.1126
 1.9030	38.1391
 1.9020	38.0742
 1.9010	38.0833
 1.9000	38.0021
 1.8990	37.9989
 1.8980	37.9317
 1.8970	38.0496
 1.8960	37.9079
 1.8950	37.8923
 1.8940	37.8190
 1.8930	37.8509
 1.8920	37.7700
 1.8910	37.6993
 1.8900	37.5932
 1.8890	37.5907
 1.8880	37.4959
 1.8870	37.4823
 1.8860	37.4627
 1.8850	37.3263
 1.8840	37.3550
 1.8830	37.3204
 1.8820	37.2069
 1.8810	37.2721
 1.8800	37.2259
 1.8790	37.2850
 1.8780	37.2510
 1.8770	37.2542
 1.8760	37.1865
 1.8750	37.2194
 1.8740	37.1696
 1.8730	37.2171
 1.8720	37.2081
 1.8710	37.2317
 1.8700	37.2278
 1.8690	37.2986
 1.8680	37.2772
 1.8670	37.3654
 1.8660	37.3570
 1.8650	37.3911
 1.8640	37.4270
 1.8630	37.4860
 1.8620	37.4269
 1.8610	37.4410
 1.8600	37.4011
 1.8590	37.4693
 1.8580	37.4113
 1.8570	37.5041
 1.8560	37.4616
 1.8550	37.5400
 1.8540	37.5560
 1.8530	37.5984
 1.8520	37.5209
 1.8510	37.5540
 1.8500	37.5896
 1.8490	37.6960
 1.8480	37.6551
 1.8470	37.6275
 1.8460	37.6475
 1.8450	37.6532
 1.8440	37.6610
 1.8430	37.7650
 1.8420	37.7081
 1.8410	37.6928
 1.8400	37.6216
 1.8390	37.7006
 1.8380	37.6435
 1.8370	37.7071
 1.8360	37.6901
 1.8350	37.7185
 1.8340	37.6944
 1.8330	37.7211
 1.8320	37.6961
 1.8310	37.6896
 1.8300	37.6433
 1.8290	37.6283
 1.8280	37.6393
 1.8270	37.6669
 1.8260	37.6179
 1.8250	37.6114
 1.8240	37.6108
 1.8230	37.6474
 1.8220	37.6546
 1.8210	37.5933
 1.8200	37.6095
 1.8190	37.6212
 1.8180	37.5522
 1.8170	37.5752
 1.8160	37.5437
 1.8150	37.5422
 1.8140	37.5486
 1.8130	37.4801
 1.8120	37.4748
 1.8110	37.5034
 1.8100	37.4761
 1.8090	37.4559
 1.8080	37.4359
 1.8070	37.4905
 1.8060	37.4338
 1.8050	37.3796
 1.8040	37.3713
 1.8030	37.3720
 1.8020	37.3306
 1.8010	37.3498
 1.8000	37.3174
 1.7990	37.2955
 1.7980	37.2826
 1.7970	37.2912
 1.7960	37.2530
 1.7950	37.2490
 1.7940	37.2433
 1.7930	37.1716
 1.7920	37.1596
 1.7910	37.1701
 1.7900	37.1096
 1.7890	37.0724
 1.7880	37.0653
 1.7870	37.0263
 1.7860	36.9954
 1.7850	36.9560
 1.7840	36.9136
 1.7830	36.9432
 1.7820	36.9306
 1.7810	36.8927
 1.7800	36.8295
 1.7790	36.7823
 1.7780	36.8119
 1.7770	36.7899
 1.7760	36.7669
 1.7750	36.7469
 1.7740	36.6600
 1.7730	36.5873
 1.7720	36.5943
 1.7710	36.5897
 1.7700	36.6140
 1.7690	36.5666
 1.7680	36.5405
 1.7670	36.4754
 1.7660	36.4639
 1.7650	36.4713
 1.7640	36.4664
 1.7630	36.4083
 1.7620	36.3337
 1.7610	36.2992
 1.7600	36.3087
 1.7590	36.2497
 1.7580	36.2172
 1.7570	36.2230
 1.7560	36.2131
 1.7550	36.1030
 1.7540	36.0705
 1.7530	36.0767
 1.7520	36.0529
 1.7510	36.0028
 1.7500	35.9898
 1.7490	35.9458
 1.7480	35.9801
 1.7470	35.8579
 1.7460	35.8816
 1.7450	35.8816
 1.7440	35.8374
 1.7430	35.7680
 1.7420	35.7559
 1.7410	35.7132
 1.7400	35.6677
 1.7390	35.6354
 1.7380	35.6405
 1.7370	35.5954
 1.7360	35.5742
 1.7350	35.4726
 1.7340	35.4387
 1.7330	35.4445
 1.7320	35.4429
 1.7310	35.3960
 1.7300	35.3892
 1.7290	35.2675
 1.7280	35.2833
 1.7270	35.2543
 1.7260	35.2175
 1.7250	35.2151
 1.7240	35.2166
 1.7230	35.0923
 1.7220	35.1422
 1.7210	35.0565
 1.7200	35.0419
 1.7190	34.9961
 1.7180	34.9264
 1.7170	34.8544
 1.7160	34.8721
 1.7150	34.8230
 1.7140	34.8314
 1.7130	34.7428
 1.7120	34.7312
 1.7110	34.6928
 1.7100	34.7233
 1.7090	34.5903
 1.7080	34.5467
 1.7070	34.5449
 1.7060	34.5340
 1.7050	34.4482
 1.7040	34.3953
 1.7030	34.3109
 1.7020	34.3921
 1.7010	34.3402
 1.7000	34.2916
 1.6990	34.1407
 1.6980	34.2758
 1.6970	34.1324
 1.6960	34.0706
 1.6950	34.0587
 1.6940	34.0812
 1.6930	34.0602
 1.6920	34.0040
 1.6910	33.8579
 1.6900	33.9960
 1.6890	33.8152
 1.6880	33.8458
 1.6870	33.7726
 1.6860	33.8013
 1.6850	33.6285
 1.6840	33.6298
 1.6830	33.5667
 1.6820	33.6175
 1.6810	33.5110
 1.6800	33.5662
 1.6790	33.4580
 1.6780	33.4331
 1.6770	33.3494
 1.6760	33.3528
 1.6750	33.2457
 1.6740	33.2740
 1.6730	33.1328
 1.6720	33.2359
 1.6710	33.0613
 1.6700	33.1272
 1.6690	33.1311
 1.6680	32.9014
 1.6670	32.9596
 1.6660	32.9283
 1.6650	32.9168
 1.6640	32.8367
 1.6630	32.7673
 1.6620	32.7855
 1.6610	32.6625
 1.6600	32.7147
 1.6590	32.5875
 1.6580	32.6489
 1.6570	32.4698
 1.6560	32.5558
 1.6550	32.4129
 1.6540	32.4594
 1.6530	32.2783
 1.6520	32.3196
 1.6510	32.2491
 1.6500	32.3128
 1.6490	32.2196
 1.6480	32.1683
 1.6470	32.0231
 1.6460	32.0383
 1.6450	31.9060
 1.6440	31.8962
 1.6430	31.9051
 1.6420	31.9322
 1.6410	31.6753
 1.6400	31.8682
 1.6390	31.6745
 1.6380	31.7597
 1.6370	31.5569
 1.6360	31.5985
 1.6350	31.5204
 1.6340	31.5033
 1.6330	31.4364
 1.6320	31.4128
 1.6310	31.3418
 1.6300	31.3250
 1.6290	31.2370
 1.6280	31.1759
 1.6270	31.0601
 1.6260	31.1399
 1.6250	31.0090
 1.6240	31.0306
 1.6230	30.9186
 1.6220	30.9007
 1.6210	30.8406
 1.6200	30.7774
 1.6190	30.6654
 1.6180	30.7278
 1.6170	30.5638
 1.6160	30.5853
 1.6150	30.4458
 1.6140	30.4677
 1.6130	30.4131
 1.6120	30.4166
 1.6110	30.3227
 1.6100	30.3076
 1.6090	30.1728
 1.6080	30.1262
 1.6070	30.0158
 1.6060	30.1221
 1.6050	29.9991
 1.6040	29.9546
 1.6030	29.8684
 1.6020	29.8158
 1.6010	29.7684
 1.6000	29.8186
 1.5990	29.6142
 1.5980	29.7093
 1.5970	29.5130
 1.5960	29.5434
 1.5950	29.4638
 1.5940	29.4600
 1.5930	29.3325
 1.5920	29.2712
 1.5910	29.2270
 1.5900	29.2044
 1.5890	29.1962
 1.5880	29.1147
 1.5870	29.0076
 1.5860	29.0468
 1.5850	28.8569
 1.5840	28.8788
 1.5830	28.7944
 1.5820	28.8178
 1.5810	28.7033
 1.5800	28.6224
 1.5790	28.5555
 1.5780	28.5287
 1.5770	28.4920
 1.5760	28.4584
 1.5750	28.3668
 1.5740	28.3381
 1.5730	28.2558
 1.5720	28.2576
 1.5710	28.1497
 1.5700	28.1709
 1.5690	28.0550
 1.5680	27.9913
 1.5670	27.9725
 1.5660	27.9202
 1.5650	27.8425
 1.5640	27.8017
 1.5630	27.7585
 1.5620	27.7517
 1.5610	27.6192
 1.5600	27.6204
 1.5590	27.5220
 1.5580	27.5353
 1.5570	27.4677
 1.5560	27.4704
 1.5550	27.3558
 1.5540	27.3369
 1.5530	27.2432
 1.5520	27.1978
 1.5510	27.1914
 1.5500	27.2764
 1.5490	27.1666
 1.5480	27.0991
 1.5470	27.0192
 1.5460	27.0224
 1.5450	26.9691
 1.5440	26.9084
 1.5430	26.8761
 1.5420	26.8303
 1.5410	26.7645
 1.5400	26.7437
 1.5390	26.7197
 1.5380	26.7289
 1.5370	26.6452
 1.5360	26.6172
 1.5350	26.5489
 1.5340	26.5602
 1.5330	26.5103
 1.5320	26.4714
 1.5310	26.4175
 1.5300	26.4382
 1.5290	26.3913
 1.5280	26.3930
 1.5270	26.3334
 1.5260	26.3292
 1.5250	26.2752
 1.5240	26.2433
 1.5230	26.1689
 1.5220	26.1647
 1.5210	26.1550
 1.5200	26.1693
 1.5190	26.0955
 1.5180	26.1094
 1.5170	26.1039
 1.5160	26.0440
 1.5150	26.0059
 1.5140	25.9721
 1.5130	25.9381
 1.5120	25.9503
 1.5110	25.9338
 1.5100	25.9313
 1.5090	25.9288
 1.5080	25.9167
 1.5070	25.8458
 1.5060	25.8381
 1.5050	25.7881
 1.5040	25.7445
 1.5030	25.7540
 1.5020	25.7144
 1.5010	25.6510
 1.5000	25.6511
 1.4990	25.6597
 1.4980	25.6220
 1.4970	25.5859
 1.4960	25.5451
 1.4950	25.4928
 1.4940	25.4816
 1.4930	25.4775
 1.4920	25.4024
 1.4910	25.3395
 1.4900	25.3171
 1.4890	25.2715
 1.4880	25.2391
 1.4870	25.1949
 1.4860	25.1154
 1.4850	25.0961
 1.4840	25.0648
 1.4830	25.0344
 1.4820	24.9632
 1.4810	24.8841
 1.4800	24.8680
 1.4790	24.8444
 1.4780	24.7930
 1.4770	24.7445
 1.4760	24.6335
 1.4750	24.6289
 1.4740	24.5715
 1.4730	24.5454
 1.4720	24.4519
 1.4710	24.4305
 1.4700	24.3254
 1.4690	24.2727
 1.4680	24.2153
 1.4670	24.1372
 1.4660	24.0766
 1.4650	24.0562
 1.4640	23.9784
 1.4630	23.9197
 1.4620	23.7990
 1.4610	23.8250
 1.4600	23.6605
 1.4590	23.6466
 1.4580	23.5945
 1.4570	23.5517
 1.4560	23.4573
 1.4550	23.4151
 1.4540	23.2909
 1.4530	23.3083
 1.4520	23.2116
 1.4510	23.1957
 1.4500	23.0947
 1.4490	23.0999
 1.4480	23.0523
 1.4470	23.0419
 1.4460	22.9109
 1.4450	22.9491
 1.4440	22.8667
 1.4430	22.8201
 1.4420	22.8033
 1.4410	22.8222
 1.4400	22.7499
 1.4390	22.8055
 1.4380	22.6648
 1.4370	22.6822
 1.4360	22.6527
 1.4350	22.7444
 1.4340	22.6478
 1.4330	22.7525
 1.4320	22.6185
 1.4310	22.6711
 1.4300	22.6241
 1.4290	22.6579
 1.4280	22.6157
 1.4270	22.6147
 1.4260	22.5841
 1.4250	22.5355
 1.4240	22.4191
 1.4230	22.4334
 1.4220	22.3297
 1.4210	22.3184
 1.4200	22.2132
 1.4190	22.1301
 1.4180	21.8673
 1.4170	21.8445
 1.4160	21.7046
 1.4150	21.5475
 1.4140	21.3345
 1.4130	21.2986
 1.4120	21.1530
 1.4110	21.1923
 1.4100	21.1038
 1.4090	21.1031
 1.4080	21.0588
 1.4070	21.0690
 1.4060	21.0274
 1.4050	21.0396
 1.4040	20.9092
 1.4030	20.9422
 1.4020	20.8397
 1.4010	20.7032
 1.4000	20.4334
 1.3990	20.3940
 1.3980	20.0730
 1.3970	20.0521
 1.3960	19.7164
 1.3950	19.5391
 1.3940	19.2014
 1.3930	19.2957
 1.3920	19.3017
 1.3910	19.4991
 1.3900	19.5977
 1.3890	19.9348
 1.3880	20.1122
 1.3870	20.5547
 1.3860	20.7964
 1.3850	21.0461
 1.3840	21.1856
 1.3830	21.3828
 1.3820	21.1599
 1.3810	21.3681
 1.3800	21.2188
 1.3790	21.3371
 1.3780	21.2171
 1.3770	21.2286
 1.3760	21.1318
 1.3750	21.2298
 1.3740	21.0256
 1.3730	21.1338
 1.3720	20.9641
 1.3710	21.0025
 1.3700	20.8085
 1.3690	20.8835
 1.3680	20.7705
 1.3670	20.8398
 1.3660	20.7525
 1.3650	20.7515
 1.3640	20.6575
 1.3630	20.6361
 1.3620	20.4220
 1.3610	20.5346
 1.3600	20.3594
 1.3590	20.5125
 1.3580	20.3785
 1.3570	20.3947
 1.3560	20.2776
 1.3550	20.1697
 1.3540	20.1623
 1.3530	20.2046
 1.3520	20.1145
 1.3510	20.1233
 1.3500	19.9887
 1.3490	20.0544
 1.3480	19.8135
 1.3470	19.8985
 1.3460	19.6847
 1.3450	19.8426
 1.3440	19.6969
 1.3430	19.7273
 1.3420	19.5768
 1.3410	19.6340
 1.3400	19.4612
 1.3390	19.4943
 1.3380	19.3505
 1.3370	19.4606
 1.3360	19.3348
 1.3350	19.2759
 1.3340	19.2495
 1.3330	19.3031
 1.3320	19.1200
 1.3310	19.1189
 1.3300	19.0470
 1.3290	19.1247
 1.3280	18.9650
 1.3270	18.9946
 1.3260	18.8157
 1.3250	18.9098
 1.3240	18.6821
 1.3230	18.7595
 1.3220	18.6381
 1.3210	18.6394
 1.3200	18.6017
 1.3190	18.6052
 1.3180	18.4711
 1.3170	18.4642
 1.3160	18.3814
 1.3150	18.4469
 1.3140	18.3140
 1.3130	18.3610
 1.3120	18.2898
 1.3110	18.2657
 1.3100	18.1426
 1.3090	18.1122
 1.3080	18.0333
 1.3070	18.0604
 1.3060	17.9334
 1.3050	17.9422
 1.3040	17.8991
 1.3030	17.8600
 1.3020	17.8197
 1.3010	17.7625
 1.3000	17.6891
 1.2990	17.6802
 1.2980	17.5547
 1.2970	17.6036
 1.2960	17.4957
 1.2950	17.5157
 1.2940	17.4741
 1.2930	17.4842
 1.2920	17.3803
 1.2910	17.3143
 1.2900	17.2289
 1.2890	17.2448
 1.2880	17.1596
 1.2870	17.1897
 1.2860	17.0549
 1.2850	17.0902
 1.2840	16.9691
 1.2830	17.0518
 1.2820	16.8990
 1.2810	16.9603
 1.2800	16.8327
 1.2790	16.7911
 1.2780	16.7730
 1.2770	16.7364
 1.2760	16.6369
 1.2750	16.6478
 1.2740	16.5646
 1.2730	16.5753
 1.2720	16.4717
 1.2710	16.4680
 1.2700	16.3988
 1.2690	16.3499
 1.2680	16.3199
 1.2670	16.3052
 1.2660	16.1947
 1.2650	16.2321
 1.2640	16.1998
 1.2630	16.1651
 1.2620	16.0564
 1.2610	16.0480
 1.2600	15.9769
 1.2590	15.9667
 1.2580	15.8486
 1.2570	15.8002
 1.2560	15.7655
 1.2550	15.7788
 1.2540	15.7240
 1.2530	15.6858
 1.2520	15.6359
 1.2510	15.6370
 1.2500	15.5624
 1.2490	15.5764
 1.2480	15.4957
 1.2470	15.4788
 1.2460	15.3761
 1.2450	15.3506
 1.2440	15.3272
 1.2430	15.3100
 1.2420	15.2316
 1.2410	15.2064
 1.2400	15.1865
 1.2390	15.1464
 1.2380	15.0940
 1.2370	15.0871
 1.2360	15.0003
 1.2350	14.9440
 1.2340	14.9385
 1.2330	14.9312
 1.2320	14.8541
 1.2310	14.8179
 1.2300	14.7696
 1.2290	14.7597
 1.2280	14.7266
 1.2270	14.6735
 1.2260	14.6106
 1.2250	14.5737
 1.2240	14.5172
 1.2230	14.5097
 1.2220	14.4990
 1.2210	14.4390
 1.2200	14.3861
 1.2190	14.3538
 1.2180	14.3065
 1.2170	14.3101
 1.2160	14.2618
 1.2150	14.2067
 1.2140	14.1665
 1.2130	14.1327
 1.2120	14.1180
 1.2110	14.0237
 1.2100	14.0266
 1.2090	14.0403
 1.2080	13.9722
 1.2070	13.9380
 1.2060	13.9196
 1.2050	13.8308
 1.2040	13.8075
 1.2030	13.8301
 1.2020	13.8085
 1.2010	13.7417
 1.2000	13.7331
 1.1990	13.6557
 1.1980	13.6342
 1.1970	13.5497
 1.1960	13.5860
 1.1950	13.5406
 1.1940	13.4688
 1.1930	13.4255
 1.1920	13.4434
 1.1910	13.4593
 1.1900	13.4509
 1.1890	13.4506
 1.1880	13.3024
 1.1870	13.3223
 1.1860	13.3013
 1.1850	13.2188
 1.1840	13.2413
 1.1830	13.1577
 1.1820	13.1432
 1.1810	13.0729
 1.1800	13.0397
 1.1790	13.0691
 1.1780	13.1202
 1.1770	13.0090
 1.1760	13.0196
 1.1750	12.9432
 1.1740	12.9059
 1.1730	12.8558
 1.1720	12.9125
 1.1710	12.7986
 1.1700	12.8063
 1.1690	12.7975
 1.1680	12.7945
 1.1670	12.7029
 1.1660	12.7736
 1.1650	12.7187
 1.1640	12.6535
 1.1630	12.6623
 1.1620	12.6886
 1.1610	12.6115
 1.1600	12.6023
 1.1590	12.5260
 1.1580	12.5809
 1.1570	12.5091
 1.1560	12.5136
 1.1550	12.5330
 1.1540	12.4514
 1.1530	12.4238
 1.1520	12.4866
 1.1510	12.3114
 1.1500	12.3739
 1.1490	12.3211
 1.1480	12.3524
 1.1470	12.2574
 1.1460	12.2883
 1.1450	12.2342
 1.1440	12.2714
 1.1430	12.2427
 1.1420	12.2491
 1.1410	12.1747
 1.1400	12.2436
 1.1390	12.1446
 1.1380	12.2329
 1.1370	12.1260
 1.1360	12.1356
 1.1350	12.0263
 1.1340	11.9646
 1.1330	11.9755
 1.1320	12.0854
 1.1310	12.0463
 1.1300	12.0921
 1.1290	11.9550
 1.1280	11.9877
 1.1270	11.8662
 1.1260	11.9715
 1.1250	11.9241
 1.1240	11.9836
 1.1230	11.8879
 1.1220	11.9643
 1.1210	11.8696
 1.1200	11.8930
 1.1190	11.8627
 1.1180	11.8129
 1.1170	11.7565
 1.1160	11.8211
 1.1150	11.7790
 1.1140	11.8423
 1.1130	11.6948
 1.1120	11.8800
 1.1110	11.7177
 1.1100	11.7801
 1.1090	11.7020
 1.1080	11.7761
 1.1070	11.6724
 1.1060	11.8107
 1.1050	11.6292
 1.1040	11.7571
 1.1030	11.6554
 1.1020	11.7105
 1.1010	11.6207
 1.1000	11.6786
 1.0990	11.6417
 1.0980	11.6663
 1.0970	11.5690
 1.0960	11.7265
 1.0950	11.5995
 1.0940	11.6416
 1.0930	11.6211
 1.0920	11.6506
 1.0910	11.5236
 1.0900	11.6059
 1.0890	11.5880
 1.0880	11.6220
 1.0870	11.5047
 1.0860	11.6270
 1.0850	11.4933
 1.0840	11.5325
 1.0830	11.5329
 1.0820	11.6016
 1.0810	11.5542
 1.0800	11.5779
 1.0790	11.5242
 1.0780	11.6512
 1.0770	11.6100
 1.0760	11.5509
 1.0750	11.4404
 1.0740	11.5610
 1.0730	11.5186
 1.0720	11.5706
 1.0710	11.5899
 1.0700	11.3833
 1.0690	11.5391
 1.0680	11.5324
 1.0670	11.4069
 1.0660	11.5343
 1.0650	11.4490
 1.0640	11.4966
 1.0630	11.4613
 1.0620	11.6126
 1.0610	11.3259
 1.0600	11.5831
 1.0590	11.4224
 1.0580	11.5591
 1.0570	11.4762
 1.0560	11.4688
 1.0550	11.4422
 1.0540	11.4455
 1.0530	11.4506
 1.0520	11.4604
 1.0510	11.4560
 1.0500	11.4756
 1.0490	11.3995
 1.0480	11.5089
 1.0470	11.3539
 1.0460	11.4790
 1.0450	11.4142
 1.0440	11.4928
 1.0430	11.3685
 1.0420	11.4445
 1.0410	11.3336
 1.0400	11.5029
 1.0390	11.4453
 1.0380	11.3999
 1.0370	11.3300
 1.0360	11.4826
 1.0350	11.3767
 1.0340	11.5206
 1.0330	11.3645
 1.0320	11.4401
 1.0310	11.3813
 1.0300	11.4656
 1.0290	11.3641
 1.0280	11.4652
 1.0270	11.3227
 1.0260	11.3615
 1.0250	11.3594
 1.0240	11.4117
 1.0230	11.3126
 1.0220	11.4478
 1.0210	11.3178
 1.0200	11.3945
 1.0190	11.2379
 1.0180	11.3736
 1.0170	11.3066
 1.0160	11.3771
 1.0150	11.2811
 1.0140	11.3217
 1.0130	11.2939
 1.0120	11.3241
 1.0110	11.2645
 1.0100	11.2862
 1.0090	11.2062
 1.0080	11.2762
 1.0070	11.2689
 1.0060	11.2472
 1.0050	11.1787
 1.0040	11.2298
 1.0030	11.1624
 1.0020	11.1972
 1.0010	11.1134
 1.0000	11.2328
 0.9990	11.1659
 0.9980	11.2005
 0.9970	11.0711
 0.9960	11.1809
 0.9950	11.0803
 0.9940	11.1234
 0.9930	11.0839
 0.9920	11.1302
 0.9910	11.0873
 0.9900	11.1021
 0.9890	10.9953
 0.9880	11.0472
 0.9870	11.0242
 0.9860	11.0165
 0.9850	10.9675
 0.9840	11.0160
 0.9830	10.9416
 0.9820	10.9385
 0.9810	10.9420
 0.9800	10.9307
 0.9790	10.8514
 0.9780	10.9206
 0.9770	10.9522
 0.9760	10.8639
 0.9750	10.8459
 0.9740	10.8566
 0.9730	10.8216
 0.9720	10.7821
 0.9710	10.7386
 0.9700	10.6952
 0.9690	10.6616
 0.9680	10.7562
 0.9670	10.6679
 0.9660	10.5733
 0.9650	10.5731
 0.9640	10.6096
 0.9630	10.6172
 0.9620	10.6398
 0.9610	10.5713
 0.9600	10.5251
 0.9590	10.4901
 0.9580	10.4839
 0.9570	10.4198
 0.9560	10.4427
 0.9550	10.4485
 0.9540	10.4140
 0.9530	10.4010
 0.9520	10.3728
 0.9510	10.3420
 0.9500	10.3725
 0.9490	10.2737
 0.9480	10.2792
 0.9470	10.3006
 0.9460	10.2635
 0.9450	10.2209
 0.9440	10.2391
 0.9430	10.1651
 0.9420	10.1116
 0.9410	10.0884
 0.9400	10.0848
 0.9390	10.0724
 0.9380	10.0492
 0.9370	10.0559
 0.9360	10.0291
 0.9350	 9.9933
 0.9340	10.0199
 0.9330	10.0280
 0.9320	10.0046
 0.9310	 9.9254
 0.9300	 9.9019
 0.9290	 9.9008
 0.9280	 9.8944
 0.9270	 9.8621
 0.9260	 9.8365
 0.9250	 9.8868
 0.9240	 9.8738
 0.9230	 9.8059
 0.9220	 9.8127
 0.9210	 9.8013
 0.9200	 9.6939
 0.9190	 9.6998
 0.9180	 9.7330
 0.9170	 9.7635
 0.9160	 9.7812
 0.9150	 9.7350
 0.9140	 9.6967
 0.9130	 9.7342
 0.9120	 9.7051
 0.9110	 9.6974
 0.9100	 9.6508
 0.9090	 9.7131
 0.9080	 9.6693
 0.9070	 9.6524
 0.9060	 9.6278
 0.9050	 9.6529
 0.9040	 9.6333
 0.9030	 9.6226
 0.9020	 9.5555
 0.9010	 9.5601
 0.9000	 9.6124
 0.8990	 9.6309
 0.8980	 9.6089
 0.8970	 9.6315
 0.8960	 9.5936
 0.8950	 9.6461
 0.8940	 9.5397
 0.8930	 9.6059
 0.8920	 9.6093
 0.8910	 9.6090
 0.8900	 9.5850
 0.8890	 9.6464
 0.8880	 9.6368
 0.8870	 9.6255
 0.8860	 9.5550
 0.8850	 9.6150
 0.8840	 9.6166
 0.8830	 9.7030
 0.8820	 9.6298
 0.8810	 9.7117
 0.8800	 9.6338
 0.8790	 9.6368
 0.8780	 9.5989
 0.8770	 9.6772
 0.8760	 9.6812
 0.8750	 9.7351
 0.8740	 9.6309
 0.8730	 9.6435
 0.8720	 9.6962
 0.8710	 9.8205
 0.8700	 9.7487
 0.8690	 9.7548
 0.8680	 9.7563
 0.8670	 9.8278
 0.8660	 9.7351
 0.8650	 9.8623
 0.8640	 9.7512
 0.8630	 9.7992
 0.8620	 9.8181
 0.8610	 9.8866
 0.8600	10.0676
 0.8590	10.1108
 0.8580	10.1315
 0.8570	10.1463
 0.8560	10.1574
 0.8550	10.1492
 0.8540	10.1812
 0.8530	10.1861
 0.8520	10.1967
 0.8510	10.2161
 0.8500	10.2411
 0.8490	10.2536
 0.8480	10.2737
 0.8470	10.2861
 0.8460	10.3132
 0.8450	10.3288
 0.8440	10.3508
 0.8430	10.3727
 0.8420	10.3813
 0.8410	10.3971
 0.8400	10.4137
 0.8390	10.4302
 0.8380	10.4421
 0.8370	10.4531
 0.8360	10.4749
 0.8350	10.4841
 0.8340	10.5095
 0.8330	10.5161
 0.8320	10.5328
 0.8310	10.5494
 0.8300	10.5785
 0.8290	10.5825
 0.8280	10.5960
 0.8270	10.6086
 0.8260	10.6184
 0.8250	10.6428
 0.8240	10.6408
 0.8230	10.6528
 0.8220	10.6640
 0.8210	10.6769
 0.8200	10.6815
 0.8190	10.6962
 0.8180	10.7017
 0.8170	10.7091
 0.8160	10.7145
 0.8150	10.7249
 0.8140	10.7382
 0.8130	10.7377
 0.8120	10.7504
 0.8110	10.7640
 0.8100	10.7630
 0.8090	10.7483
 0.8080	10.7521
 0.8070	10.7487
 0.8060	10.7559
 0.8050	10.7512
 0.8040	10.7500
 0.8030	10.7383
 0.8020	10.7403
 0.8010	10.7357
 0.8000	10.7300
 0.7990	10.7154
 0.7980	10.7092
 0.7970	10.6999
 0.7960	10.6931
 0.7950	10.6771
 0.7940	10.6612
 0.7930	10.6428
 0.7920	10.6236
 0.7910	10.6199
 0.7900	10.6037
 0.7890	10.5849
 0.7880	10.5778
 0.7870	10.5474
 0.7860	10.5267
 0.7850	10.5128
 0.7840	10.4770
 0.7830	10.4711
 0.7820	10.4404
 0.7810	10.4116
 0.7800	10.3890
 0.7790	10.3748
 0.7780	10.3473
 0.7770	10.3197
 0.7760	10.2869
 0.7750	10.2655
 0.7740	10.2354
 0.7730	10.2022
 0.7720	10.1818
 0.7710	10.1561
 0.7700	10.1251
 0.7690	10.1001
 0.7680	10.0809
 0.7670	10.0429
 0.7660	10.0230
 0.7650	 9.9930
 0.7640	 9.9621
 0.7630	 9.9358
 0.7620	 9.8985
 0.7610	 9.8724
 0.7600	 9.8474
 0.7590	 9.8288
 0.7580	 9.7945
 0.7570	 9.7719
 0.7560	 9.7445
 0.7550	 9.7186
 0.7540	 9.6956
 0.7530	 9.6706
 0.7520	 9.6499
 0.7510	 9.6236
 0.7500	 9.5996
 0.7490	 9.5750
 0.7480	 9.5559
 0.7470	 9.5310
 0.7460	 9.5082
 0.7450	 9.4892
 0.7440	 9.4674
 0.7430	 9.4460
 0.7420	 9.4239
 0.7410	 9.4109
 0.7400	 9.3886
 0.7390	 9.3731
 0.7380	 9.3589
 0.7370	 9.3357
 0.7360	 9.3209
 0.7350	 9.3109
 0.7340	 9.3000
 0.7330	 9.2875
 0.7320	 9.2707
 0.7310	 9.2657
 0.7300	 9.2541
 0.7290	 9.2382
 0.7280	 9.2318
 0.7270	 9.2180
 0.7260	 9.2116
 0.7250	 9.2038
 0.7240	 9.1927
 0.7230	 9.1820
 0.7220	 9.1756
 0.7210	 9.1720
 0.7200	 9.1613
 0.7190	 9.1619
 0.7180	 9.1554
 0.7170	 9.1485
 0.7160	 9.1435
 0.7150	 9.1418
 0.7140	 9.1379
 0.7130	 9.1361
 0.7120	 9.1324
 0.7110	 9.1267
 0.7100	 9.1273
 0.7090	 9.1292
 0.7080	 9.1309
 0.7070	 9.1345
 0.7060	 9.1354
 0.7050	 9.1449
 0.7040	 9.1492
 0.7030	 9.1545
 0.7020	 9.1621
 0.7010	 9.1696
 0.7000	 9.1768
 0.6990	 9.1823
 0.6980	 9.1978
 0.6970	 9.2098
 0.6960	 9.2197
 0.6950	 9.2305
 0.6940	 9.2426
 0.6930	 9.2563
 0.6920	 9.2695
 0.6910	 9.2870
 0.6900	 9.3025
 0.6890	 9.3194
 0.6880	 9.3379
 0.6870	 9.3506
 0.6860	 9.3700
 0.6850	 9.3926
 0.6840	 9.4106
 0.6830	 9.4272
 0.6820	 9.4476
 0.6810	 9.4710
 0.6800	 9.4948
 0.6790	 9.5186
 0.6780	 9.5355
 0.6770	 9.5592
 0.6760	 9.5847
 0.6750	 9.6097
 0.6740	 9.6351
 0.6730	 9.6612
 0.6720	 9.6916
 0.6710	 9.7172
 0.6700	 9.7446
 0.6690	 9.7693
 0.6680	 9.7931
 0.6670	 9.8209
 0.6660	 9.8529
 0.6650	 9.8839
 0.6640	 9.9115
 0.6630	 9.9409
 0.6620	 9.9751
 0.6610	10.0090
 0.6600	10.0409
 0.6590	10.0720
 0.6580	10.1069
 0.6570	10.1413
 0.6560	10.1726
 0.6550	10.2064
 0.6540	10.2433
 0.6530	10.2792
 0.6520	10.3127
 0.6510	10.3469
 0.6500	10.3849
 0.6490	10.4193
 0.6480	10.4570
 0.6470	10.4982
 0.6460	10.5343
 0.6450	10.5675
 0.6440	10.6104
 0.6430	10.6525
 0.6420	10.6904
 0.6410	10.7305
 0.6400	10.7704
 0.6390	10.8125
 0.6380	10.8541
 0.6370	10.8928
 0.6360	10.9318
 0.6350	10.9741
 0.6340	11.0169
 0.6330	11.0590
 0.6320	11.1035
 0.6310	11.1460
 0.6300	11.1898
 0.6290	11.2324
 0.6280	11.2733
 0.6270	11.3201
 0.6260	11.3655
 0.6250	11.4076
 0.6240	11.4526
 0.6230	11.5006
 0.6220	11.5473
 0.6210	11.5903
 0.6200	11.6351
 0.6190	11.6797
 0.6180	11.7272
 0.6170	11.7705
 0.6160	11.8150
 0.6150	11.8624
 0.6140	11.9089
 0.6130	11.9564
 0.6120	12.0028
 0.6110	12.0518
 0.6100	12.0966
 0.6090	12.1434
 0.6080	12.1935
 0.6070	12.2371
 0.6060	12.2830
 0.6050	12.3318
 0.6040	12.3790
 0.6030	12.4285
 0.6020	12.4747
 0.6010	12.5211
 0.6000	12.5696
 0.5990	12.6189
 0.5980	12.6704
 0.5970	12.7204
 0.5960	12.7708
 0.5950	12.8210
 0.5940	12.8698
 0.5930	12.9181
 0.5920	12.9665
 0.5910	13.0149
 0.5900	13.0583
 0.5890	13.1063
 0.5880	13.1545
 0.5870	13.2009
 0.5860	13.2459
 0.5850	13.2916
 0.5840	13.3382
 0.5830	13.3855
 0.5820	13.4310
 0.5810	13.4757
 0.5800	13.5229
 0.5790	13.5675
 0.5780	13.6093
 0.5770	13.6522
 0.5760	13.6959
 0.5750	13.7363
 0.5740	13.7752
 0.5730	13.8120
 0.5720	13.8528
 0.5710	13.8943
 0.5700	13.9352
 0.5690	13.9732
 0.5680	14.0103
 0.5670	14.0418
 0.5660	14.0823
 0.5650	14.1150
 0.5640	14.1517
 0.5630	14.1869
 0.5620	14.2153
 0.5610	14.2485
 0.5600	14.2783
 0.5590	14.3075
 0.5580	14.3357
 0.5570	14.3578
 0.5560	14.3854
 0.5550	14.4130
 0.5540	14.4374
 0.5530	14.4567
 0.5520	14.4824
 0.5510	14.5043
 0.5500	14.5222
 0.5490	14.5416
 0.5480	14.5579
 0.5470	14.5722
 0.5460	14.5909
 0.5450	14.6032
 0.5440	14.6145
 0.5430	14.6294
 0.5420	14.6408
 0.5410	14.6546
 0.5400	14.6655
 0.5390	14.6786
 0.5380	14.6905
 0.5370	14.7043
 0.5360	14.7186
 0.5350	14.7309
 0.5340	14.7489
 0.5330	14.7630
 0.5320	14.7833
 0.5310	14.8073
 0.5300	14.8275
 0.5290	14.8512
 0.5280	14.8753
 0.5270	14.9003
 0.5260	14.9199
 0.5250	14.9454
 0.5240	14.9667
 0.5230	14.9893
 0.5220	15.0082
 0.5210	15.0218
 0.5200	15.0357
 0.5190	15.0520
 0.5180	15.0598
 0.5170	15.0615
 0.5160	15.0662
 0.5150	15.0627
 0.5140	15.0639
 0.5130	15.0618
 0.5120	15.0508
 0.5110	15.0349
 0.5100	15.0251
 0.5090	15.0095
 0.5080	14.9856
 0.5070	14.9592
 0.5060	14.9321
 0.5050	14.9050
 0.5040	14.8617
 0.5030	14.8197
 0.5020	14.7610
 0.5010	14.7042
 0.5000	14.6411
 0.4990	14.5693
 0.4980	14.5058
 0.4970	14.4409
 0.4960	14.4035
 0.4950	14.3817
 0.4940	14.3854
 0.4930	14.3987
 0.4920	14.4337
 0.4910	14.4654
 0.4900	14.4882
 0.4890	14.4907
 0.4880	14.4693
 0.4870	14.4383
 0.4860	14.3844
 0.4850	14.3194
 0.4840	14.2471
 0.4830	14.1796
 0.4820	14.1011
 0.4810	14.0301
 0.4800	13.9517
 0.4790	13.8754
 0.4780	13.7950
 0.4770	13.7154
 0.4760	13.6228
 0.4750	13.5418
 0.4740	13.4478
 0.4730	13.3619
 0.4720	13.2790
 0.4710	13.1894
 0.4700	13.1112
 0.4690	13.0291
 0.4680	12.9480
 0.4670	12.8705
 0.4660	12.7999
 0.4650	12.7357
 0.4640	12.6680
 0.4630	12.6103
 0.4620	12.5512
 0.4610	12.4941
 0.4600	12.4398
 0.4590	12.3970
 0.4580	12.3441
 0.4570	12.2989
 0.4560	12.2507
 0.4550	12.2193
 0.4540	12.1863
 0.4530	12.1569
 0.4520	12.1416
 0.4510	12.1386
 0.4500	12.1496
 0.4490	12.1668
 0.4480	12.1929
 0.4470	12.2287
 0.4460	12.2568
 0.4450	12.2922
 0.4440	12.3110
 0.4430	12.3104
 0.4420	12.2903
 0.4410	12.2599
 0.4400	12.2152
 0.4390	12.1634
 0.4380	12.1086
 0.4370	12.0538
 0.4360	11.9980
 0.4350	11.9489
 0.4340	11.8983
 0.4330	11.8586
 0.4320	11.8211
 0.4310	11.7785
 0.4300	11.7351
 0.4290	11.6973
 0.4280	11.6586
 0.4270	11.6139
 0.4260	11.5599
 0.4250	11.5024
 0.4240	11.4376
 0.4230	11.3692
 0.4220	11.2957
 0.4210	11.2228
 0.4200	11.1488
 0.4190	11.0789
 0.4180	11.0101
 0.4170	10.9451
 0.4160	10.8885
 0.4150	10.8367
 0.4140	10.7875
 0.4130	10.7428
 0.4120	10.6974
 0.4110	10.6607
 0.4100	10.6305
 0.4090	10.6038
 0.4080	10.5781
 0.4070	10.5619
 0.4060	10.5467
 0.4050	10.5309
 0.4040	10.5327
 0.4030	10.5318
 0.4020	10.5380
 0.4010	10.5505
 0.4000	10.5669
