Name: Bornite Cu_5FeS_4
Type: Mineral
Class: Sulfide
Subclass: None
Particle Size: Fine
Sample No.: S-9A
Owner: JPL
Wavelength Range: VSWIR
Origin: USA, Arizona, Pinal County, Superior, Magma Mine
Collection Date: N/A
Description: Particle size was 0-45um.Collected by Burminco Original ASTER Spectral Library name was jpl.beckman.mineral.sulfide.none.fine.s09a.spectrum.txt
Measurement: Hemispherical reflectance
First Column: X
Second Column: Y
X Units: Wavelength (micrometers)
Y Units:Reflectance (percent)
First X Value:  0.4000
Last X Value:  2.5000
Number of X Values: 826
Additional Information: mineral.sulfide.none.fine.vswir.s-9a.jpl.beckman.ancillary.txt

 0.4000	 6.4100
 0.4010	 6.3800
 0.4020	 6.2600
 0.4030	 6.3300
 0.4040	 6.2000
 0.4050	 6.1900
 0.4060	 6.3200
 0.4070	 6.1900
 0.4080	 6.3000
 0.4090	 6.1300
 0.4100	 6.1400
 0.4110	 6.1400
 0.4120	 6.0700
 0.4130	 6.0800
 0.4140	 5.9600
 0.4150	 5.8900
 0.4160	 6.0600
 0.4170	 5.9400
 0.4180	 5.9400
 0.4190	 5.9000
 0.4200	 5.8400
 0.4210	 5.8900
 0.4220	 5.8200
 0.4230	 5.8800
 0.4240	 5.8200
 0.4250	 5.7000
 0.4260	 5.7600
 0.4270	 5.6900
 0.4280	 5.7500
 0.4290	 5.6900
 0.4300	 5.5700
 0.4310	 5.7000
 0.4320	 5.5800
 0.4330	 5.6600
 0.4340	 5.4700
 0.4350	 5.4700
 0.4360	 5.5900
 0.4370	 5.4500
 0.4380	 5.5000
 0.4390	 5.4000
 0.4400	 5.3400
 0.4410	 5.4500
 0.4420	 5.3400
 0.4430	 5.4000
 0.4440	 5.3300
 0.4450	 5.3400
 0.4460	 5.3400
 0.4470	 5.2200
 0.4480	 5.2800
 0.4490	 5.1500
 0.4500	 5.1500
 0.4510	 5.2000
 0.4520	 5.1400
 0.4530	 5.2000
 0.4540	 5.0700
 0.4550	 5.1000
 0.4560	 5.2000
 0.4570	 5.0700
 0.4580	 5.0800
 0.4590	 5.0100
 0.4600	 5.0900
 0.4610	 5.0600
 0.4620	 4.9900
 0.4630	 4.9300
 0.4640	 4.9700
 0.4650	 4.9100
 0.4660	 5.0300
 0.4670	 5.0200
 0.4680	 4.9000
 0.4690	 4.9600
 0.4700	 4.9100
 0.4710	 4.9100
 0.4720	 4.9000
 0.4730	 4.7800
 0.4740	 4.8500
 0.4750	 4.7900
 0.4760	 4.8600
 0.4770	 4.8600
 0.4780	 4.7400
 0.4790	 4.7300
 0.4800	 4.7300
 0.4810	 4.8000
 0.4820	 4.8100
 0.4830	 4.6800
 0.4840	 4.6700
 0.4850	 4.6600
 0.4860	 4.7600
 0.4870	 4.7600
 0.4880	 4.5800
 0.4890	 4.6000
 0.4900	 4.5900
 0.4910	 4.7000
 0.4920	 4.6900
 0.4930	 4.6200
 0.4940	 4.6100
 0.4950	 4.5500
 0.4960	 4.6600
 0.4970	 4.6500
 0.4980	 4.5300
 0.4990	 4.5800
 0.5000	 4.5200
 0.5010	 4.6300
 0.5020	 4.6300
 0.5030	 4.4500
 0.5040	 4.5100
 0.5050	 4.5100
 0.5060	 4.5700
 0.5070	 4.5700
 0.5080	 4.3900
 0.5090	 4.4500
 0.5100	 4.4300
 0.5110	 4.4700
 0.5120	 4.4800
 0.5130	 4.3600
 0.5140	 4.3700
 0.5150	 4.3800
 0.5160	 4.3900
 0.5170	 4.3900
 0.5180	 4.2600
 0.5190	 4.3700
 0.5200	 4.3800
 0.5210	 4.3800
 0.5220	 4.4200
 0.5230	 4.3100
 0.5240	 4.3200
 0.5250	 4.3300
 0.5260	 4.3200
 0.5270	 4.3100
 0.5280	 4.3000
 0.5290	 4.2500
 0.5300	 4.3200
 0.5310	 4.3100
 0.5320	 4.3200
 0.5330	 4.3300
 0.5340	 4.3100
 0.5350	 4.1600
 0.5360	 4.2200
 0.5370	 4.2800
 0.5380	 4.2200
 0.5390	 4.2200
 0.5400	 4.1600
 0.5410	 4.2100
 0.5420	 4.2700
 0.5430	 4.2100
 0.5440	 4.2000
 0.5450	 4.2000
 0.5460	 4.2500
 0.5470	 4.3000
 0.5480	 4.2300
 0.5490	 4.1600
 0.5500	 4.1600
 0.5510	 4.2100
 0.5520	 4.2700
 0.5530	 4.2600
 0.5540	 4.2000
 0.5550	 4.1000
 0.5560	 4.1600
 0.5570	 4.2900
 0.5580	 4.1900
 0.5590	 4.2200
 0.5600	 4.2200
 0.5610	 4.2700
 0.5620	 4.3800
 0.5630	 4.2000
 0.5640	 4.2600
 0.5650	 4.2500
 0.5660	 4.3100
 0.5670	 4.3000
 0.5680	 4.1900
 0.5690	 4.2500
 0.5700	 4.2500
 0.5710	 4.3000
 0.5720	 4.3700
 0.5730	 4.2700
 0.5740	 4.2500
 0.5750	 4.2200
 0.5760	 4.3000
 0.5770	 4.3100
 0.5780	 4.2000
 0.5790	 4.3200
 0.5800	 4.2000
 0.5810	 4.2600
 0.5820	 4.3700
 0.5830	 4.2600
 0.5840	 4.3300
 0.5850	 4.2700
 0.5860	 4.3400
 0.5870	 4.3400
 0.5880	 4.2200
 0.5890	 4.3900
 0.5900	 4.2800
 0.5910	 4.4000
 0.5920	 4.4600
 0.5930	 4.3300
 0.5940	 4.3900
 0.5950	 4.2700
 0.5960	 4.3900
 0.5970	 4.4500
 0.5980	 4.3700
 0.5990	 4.4000
 0.6000	 4.3700
 0.6010	 4.4000
 0.6020	 4.4400
 0.6030	 4.4300
 0.6040	 4.4300
 0.6050	 4.4300
 0.6060	 4.4200
 0.6070	 4.5900
 0.6080	 4.4700
 0.6090	 4.5400
 0.6100	 4.4100
 0.6110	 4.4100
 0.6120	 4.5700
 0.6130	 4.4600
 0.6140	 4.5800
 0.6150	 4.5300
 0.6160	 4.5400
 0.6170	 4.6000
 0.6180	 4.4700
 0.6190	 4.5800
 0.6200	 4.5200
 0.6210	 4.5900
 0.6220	 4.6900
 0.6230	 4.5800
 0.6240	 4.6300
 0.6250	 4.6300
 0.6260	 4.5800
 0.6270	 4.7100
 0.6280	 4.6500
 0.6290	 4.6400
 0.6300	 4.6900
 0.6310	 4.6300
 0.6320	 4.6900
 0.6330	 4.7000
 0.6340	 4.7500
 0.6350	 4.7500
 0.6360	 4.7000
 0.6370	 4.7600
 0.6380	 4.7100
 0.6390	 4.8200
 0.6400	 4.7000
 0.6410	 4.7000
 0.6420	 4.8600
 0.6430	 4.8100
 0.6440	 4.8700
 0.6450	 4.7500
 0.6460	 4.7500
 0.6470	 4.9200
 0.6480	 4.8600
 0.6490	 4.9200
 0.6500	 4.8700
 0.6510	 4.8800
 0.6520	 4.9400
 0.6530	 4.8200
 0.6540	 5.0500
 0.6550	 4.9800
 0.6560	 4.9900
 0.6570	 5.0500
 0.6580	 5.0500
 0.6590	 5.1000
 0.6600	 4.9700
 0.6610	 5.0400
 0.6620	 5.0900
 0.6630	 5.0500
 0.6640	 5.1700
 0.6650	 5.1100
 0.6660	 5.1000
 0.6670	 5.2200
 0.6680	 5.1600
 0.6690	 5.2700
 0.6700	 5.1600
 0.6710	 5.1500
 0.6720	 5.2700
 0.6730	 5.2100
 0.6740	 5.3300
 0.6750	 5.2200
 0.6760	 5.2900
 0.6770	 5.4100
 0.6780	 5.2900
 0.6790	 5.3900
 0.6800	 5.3200
 0.6810	 5.3200
 0.6820	 5.4400
 0.6830	 5.3800
 0.6840	 5.4400
 0.6850	 5.4300
 0.6860	 5.4900
 0.6870	 5.5000
 0.6880	 5.3900
 0.6890	 5.5100
 0.6900	 5.4500
 0.6910	 5.5600
 0.6920	 5.5600
 0.6930	 5.4900
 0.6940	 5.5700
 0.6950	 5.5600
 0.6960	 5.5700
 0.6970	 5.6700
 0.6980	 5.5800
 0.6990	 5.6100
 0.7000	 5.5400
 0.7010	 5.5800
 0.7020	 5.7300
 0.7030	 5.6700
 0.7040	 5.7100
 0.7050	 5.6600
 0.7060	 5.7800
 0.7070	 5.7300
 0.7080	 5.8000
 0.7090	 5.8400
 0.7100	 5.7900
 0.7110	 5.8200
 0.7120	 5.8800
 0.7130	 5.8900
 0.7140	 5.8900
 0.7150	 5.8900
 0.7160	 5.8800
 0.7170	 5.9500
 0.7180	 5.9000
 0.7190	 5.9600
 0.7200	 5.9600
 0.7210	 6.0000
 0.7220	 6.0500
 0.7230	 6.0000
 0.7240	 6.0600
 0.7250	 6.0100
 0.7260	 6.0600
 0.7270	 6.0500
 0.7280	 6.0500
 0.7290	 6.0600
 0.7300	 6.1300
 0.7310	 6.1800
 0.7320	 6.1100
 0.7330	 6.1100
 0.7340	 6.1800
 0.7350	 6.1800
 0.7360	 6.2300
 0.7370	 6.1600
 0.7380	 6.2300
 0.7390	 6.2300
 0.7400	 6.2400
 0.7410	 6.2300
 0.7420	 6.3400
 0.7430	 6.2800
 0.7440	 6.3300
 0.7450	 6.3300
 0.7460	 6.3300
 0.7470	 6.4400
 0.7480	 6.3400
 0.7490	 6.3500
 0.7500	 6.4000
 0.7510	 6.4400
 0.7520	 6.4900
 0.7530	 6.4500
 0.7540	 6.4400
 0.7550	 6.4600
 0.7560	 6.4500
 0.7570	 6.5700
 0.7580	 6.4600
 0.7590	 6.5700
 0.7600	 6.5100
 0.7610	 6.5600
 0.7620	 6.6800
 0.7630	 6.5600
 0.7640	 6.6200
 0.7650	 6.6000
 0.7660	 6.6700
 0.7670	 6.6800
 0.7680	 6.6800
 0.7690	 6.7800
 0.7700	 6.7800
 0.7710	 6.7900
 0.7720	 6.8500
 0.7730	 6.7800
 0.7740	 6.8300
 0.7750	 6.8500
 0.7760	 6.8100
 0.7770	 6.9200
 0.7780	 6.8000
 0.7790	 6.8400
 0.7800	 6.9000
 0.7810	 6.8900
 0.7820	 6.9600
 0.7830	 6.8900
 0.7840	 7.0100
 0.7850	 6.9100
 0.7860	 6.9000
 0.7870	 7.0000
 0.7880	 6.8800
 0.7890	 7.0100
 0.7900	 7.0100
 0.7910	 7.0700
 0.7920	 7.1200
 0.7930	 7.0200
 0.7940	 7.1400
 0.7950	 7.0300
 0.7960	 7.1900
 0.7970	 7.1900
 0.7980	 7.2700
 0.7990	 7.4000
 0.8000	 7.4000
 0.8040	 7.4100
 0.8080	 7.4300
 0.8120	 7.5000
 0.8160	 7.5000
 0.8200	 7.6100
 0.8240	 7.5800
 0.8280	 7.6500
 0.8320	 7.7400
 0.8360	 7.7500
 0.8400	 7.7800
 0.8440	 7.8900
 0.8480	 7.8900
 0.8520	 8.0000
 0.8560	 8.0400
 0.8600	 8.0200
 0.8640	 8.0400
 0.8680	 8.1000
 0.8720	 8.0400
 0.8760	 8.1100
 0.8800	 8.1500
 0.8840	 8.2200
 0.8880	 8.1700
 0.8920	 8.2700
 0.8960	 8.3500
 0.9000	 8.4100
 0.9040	 8.3300
 0.9080	 8.3600
 0.9120	 8.3400
 0.9160	 8.3500
 0.9200	 8.4500
 0.9240	 8.4600
 0.9280	 8.5000
 0.9320	 8.5100
 0.9360	 8.5200
 0.9400	 8.4600
 0.9440	 8.5300
 0.9480	 8.5300
 0.9520	 8.5900
 0.9560	 8.5900
 0.9600	 8.6200
 0.9640	 8.6500
 0.9680	 8.6600
 0.9720	 8.7600
 0.9760	 8.7000
 0.9800	 8.7000
 0.9840	 8.7400
 0.9880	 8.7700
 0.9920	 8.7800
 0.9960	 8.8600
 1.0000	 8.7300
 1.0040	 8.7800
 1.0080	 8.7700
 1.0120	 8.8200
 1.0160	 8.8800
 1.0200	 8.8700
 1.0240	 8.8300
 1.0280	 8.9000
 1.0320	 8.9000
 1.0360	 8.9300
 1.0400	 8.9600
 1.0440	 8.9200
 1.0480	 8.9100
 1.0520	 8.9800
 1.0560	 9.0100
 1.0600	 9.0000
 1.0640	 9.0800
 1.0680	 9.0400
 1.0720	 9.0500
 1.0760	 9.0600
 1.0800	 9.1100
 1.0840	 9.0700
 1.0880	 9.0400
 1.0920	 9.0900
 1.0960	 9.0900
 1.1000	 9.1100
 1.1040	 9.1300
 1.1080	 9.1300
 1.1120	 9.1900
 1.1160	 9.1400
 1.1200	 9.1700
 1.1240	 9.2100
 1.1280	 9.2300
 1.1320	 9.2300
 1.1360	 9.2400
 1.1400	 9.2000
 1.1440	 9.2100
 1.1480	 9.2700
 1.1520	 9.2300
 1.1560	 9.3200
 1.1600	 9.2600
 1.1640	 9.3000
 1.1680	 9.3000
 1.1720	 9.3200
 1.1760	 9.2600
 1.1800	 9.3000
 1.1840	 9.2400
 1.1880	 9.3100
 1.1920	 9.2900
 1.1960	 9.3200
 1.2000	 9.3500
 1.2040	 9.3100
 1.2080	 9.2800
 1.2120	 9.3500
 1.2160	 9.3600
 1.2200	 9.3500
 1.2240	 9.3800
 1.2280	 9.3600
 1.2320	 9.3800
 1.2360	 9.4100
 1.2400	 9.4400
 1.2440	 9.4100
 1.2480	 9.3400
 1.2520	 9.4500
 1.2560	 9.4400
 1.2600	 9.4400
 1.2640	 9.3900
 1.2680	 9.4700
 1.2720	 9.4500
 1.2760	 9.4900
 1.2800	 9.5500
 1.2840	 9.5500
 1.2880	 9.6100
 1.2920	 9.6200
 1.2960	 9.5600
 1.3000	 9.6600
 1.3040	 9.6500
 1.3080	 9.6100
 1.3120	 9.6200
 1.3160	 9.6200
 1.3200	 9.6300
 1.3240	 9.6700
 1.3280	 9.6900
 1.3320	 9.6800
 1.3360	 9.6900
 1.3400	 9.6700
 1.3440	 9.6900
 1.3480	 9.6900
 1.3520	 9.6600
 1.3560	 9.7500
 1.3600	 9.6900
 1.3640	 9.6600
 1.3680	 9.6500
 1.3720	 9.7400
 1.3760	 9.7400
 1.3800	 9.7100
 1.3840	 9.7600
 1.3880	 9.7600
 1.3920	 9.7700
 1.3960	 9.8000
 1.4000	 9.7800
 1.4040	 9.7300
 1.4080	 9.7900
 1.4120	 9.7800
 1.4160	 9.8100
 1.4200	 9.8100
 1.4240	 9.7800
 1.4280	 9.8500
 1.4320	 9.9000
 1.4360	 9.8300
 1.4400	 9.8600
 1.4440	 9.8400
 1.4480	 9.8200
 1.4520	 9.8400
 1.4560	 9.8600
 1.4600	 9.8500
 1.4640	 9.8400
 1.4680	 9.8800
 1.4720	 9.8400
 1.4760	 9.9100
 1.4800	 9.9900
 1.4840	 9.9000
 1.4880	 9.9000
 1.4920	 9.8700
 1.4960	 9.8800
 1.5000	 9.8700
 1.5040	 9.9300
 1.5080	 9.9100
 1.5120	 9.9400
 1.5160	 9.8800
 1.5200	 9.8900
 1.5240	 9.8500
 1.5280	 9.8900
 1.5320	 9.8900
 1.5360	 9.9100
 1.5400	 9.9400
 1.5440	 9.9100
 1.5480	 9.9500
 1.5520	 9.9900
 1.5560	 9.9500
 1.5600	 9.9100
 1.5640	 9.9500
 1.5680	 9.8500
 1.5720	 9.9400
 1.5760	 9.9800
 1.5800	 9.9700
 1.5840	 9.9800
 1.5880	 9.9800
 1.5920	10.0200
 1.5960	 9.9800
 1.6000	 9.9800
 1.6040	10.0500
 1.6080	10.0700
 1.6120	10.0600
 1.6160	 9.9600
 1.6200	 9.9900
 1.6240	 9.9900
 1.6280	10.0400
 1.6320	10.0300
 1.6360	10.0000
 1.6400	10.0500
 1.6440	10.0300
 1.6480	10.0100
 1.6520	10.0700
 1.6560	10.0800
 1.6600	10.0200
 1.6640	10.0200
 1.6680	10.0500
 1.6720	10.1100
 1.6760	10.0600
 1.6800	10.0700
 1.6840	10.0700
 1.6880	10.0700
 1.6920	10.1100
 1.6960	10.0900
 1.7000	10.1100
 1.7040	10.1400
 1.7080	10.0900
 1.7120	10.0900
 1.7160	10.1200
 1.7200	10.0600
 1.7240	10.1400
 1.7280	10.1000
 1.7320	10.0200
 1.7360	10.1300
 1.7400	10.1000
 1.7440	10.0800
 1.7480	10.1000
 1.7520	10.1000
 1.7560	10.1000
 1.7600	10.0700
 1.7640	10.0900
 1.7680	10.0700
 1.7720	10.1700
 1.7760	10.1100
 1.7800	10.0600
 1.7840	10.1500
 1.7880	10.1500
 1.7920	10.1000
 1.7960	10.1200
 1.8000	10.0600
 1.8040	10.1300
 1.8080	10.0700
 1.8120	10.1400
 1.8160	10.0700
 1.8200	10.1200
 1.8240	10.1200
 1.8280	10.1200
 1.8320	10.1000
 1.8360	10.1700
 1.8400	10.1300
 1.8440	10.0800
 1.8480	10.1100
 1.8520	10.1600
 1.8560	10.1500
 1.8600	10.1200
 1.8640	10.1100
 1.8680	10.0800
 1.8720	10.0900
 1.8760	10.0800
 1.8800	10.1200
 1.8840	10.1400
 1.8880	10.1600
 1.8920	10.1400
 1.8960	10.1700
 1.9000	10.1900
 1.9040	10.1800
 1.9080	10.1600
 1.9120	10.1200
 1.9160	10.1500
 1.9200	10.1200
 1.9240	10.0700
 1.9280	10.1100
 1.9320	10.0500
 1.9360	10.0500
 1.9400	10.0900
 1.9440	10.1100
 1.9480	10.1100
 1.9520	10.0700
 1.9560	10.0700
 1.9600	10.0800
 1.9640	10.0900
 1.9680	10.0600
 1.9720	10.1400
 1.9760	10.1100
 1.9800	10.1500
 1.9840	10.1300
 1.9880	10.1900
 1.9920	10.2400
 1.9960	10.1900
 2.0000	10.2100
 2.0040	10.1700
 2.0080	10.2200
 2.0120	10.1700
 2.0160	10.1500
 2.0200	10.2100
 2.0240	10.1700
 2.0280	10.1500
 2.0320	10.1800
 2.0360	10.2400
 2.0400	10.2400
 2.0440	10.2300
 2.0480	10.1900
 2.0520	10.1500
 2.0560	10.1300
 2.0600	10.1900
 2.0640	10.1100
 2.0680	10.1500
 2.0720	10.1300
 2.0760	10.1400
 2.0800	10.1500
 2.0840	10.1800
 2.0880	10.2600
 2.0920	10.1900
 2.0960	10.2600
 2.1000	10.2900
 2.1040	10.2800
 2.1080	10.2900
 2.1120	10.2500
 2.1160	10.2300
 2.1200	10.2700
 2.1240	10.3100
 2.1280	10.2700
 2.1320	10.2600
 2.1360	10.2800
 2.1400	10.2800
 2.1440	10.2600
 2.1480	10.2300
 2.1520	10.2400
 2.1560	10.2200
 2.1600	10.2200
 2.1640	10.2500
 2.1680	10.2500
 2.1720	10.2200
 2.1760	10.1700
 2.1800	10.1900
 2.1840	10.2200
 2.1880	10.1800
 2.1920	10.2700
 2.1960	10.2700
 2.2000	10.2400
 2.2040	10.2600
 2.2080	10.2800
 2.2120	10.2500
 2.2160	10.2000
 2.2200	10.2500
 2.2240	10.2200
 2.2280	10.1800
 2.2320	10.2200
 2.2360	10.2100
 2.2400	10.1700
 2.2440	10.1700
 2.2480	10.1900
 2.2520	10.1900
 2.2560	10.2200
 2.2600	10.2200
 2.2640	10.2300
 2.2680	10.2500
 2.2720	10.2800
 2.2760	10.2600
 2.2800	10.2600
 2.2840	10.3200
 2.2880	10.2500
 2.2920	10.2800
 2.2960	10.3100
 2.3000	10.3100
 2.3040	10.2400
 2.3080	10.2400
 2.3120	10.2300
 2.3160	10.2400
 2.3200	10.1700
 2.3240	10.2500
 2.3280	10.2200
 2.3320	10.2800
 2.3360	10.2400
 2.3400	10.3100
 2.3440	10.3100
 2.3480	10.3100
 2.3520	10.3600
 2.3560	10.2800
 2.3600	10.2600
 2.3640	10.2600
 2.3680	10.2900
 2.3720	10.2700
 2.3760	10.3000
 2.3800	10.3100
 2.3840	10.3500
 2.3880	10.3300
 2.3920	10.3000
 2.3960	10.3600
 2.4000	10.3600
 2.4040	10.3400
 2.4080	10.4300
 2.4120	10.4300
 2.4160	10.3800
 2.4200	10.3300
 2.4240	10.3900
 2.4280	10.3800
 2.4320	10.3400
 2.4360	10.3400
 2.4400	10.3200
 2.4440	10.3100
 2.4480	10.3300
 2.4520	10.3000
 2.4560	10.3200
 2.4600	10.3500
 2.4640	10.3200
 2.4680	10.3200
 2.4720	10.3200
 2.4760	10.2900
 2.4800	10.3100
 2.4840	10.3400
 2.4880	10.3200
 2.4920	10.4100
 2.4960	10.4200
 2.5000	10.4100
