Name: Andesine (Feldspar) (NaSi,CaAl)AlSi_2O_8
Type: Mineral
Class: Silicate
Subclass: Tectosilicate
Particle Size: Fine
Sample No.: TS-4A
Owner: JPL
Wavelength Range: VSWIR
Origin: 
Collection Date: N/A
Description: Particle size was 0-45um.Collected by JPL Original ASTER Spectral Library name was jpl.beckman.mineral.silicate.tectosilicate.fine.ts04a.spectrum.txt
Measurement: Hemispherical reflectance
First Column: X
Second Column: Y
X Units: Wavelength (micrometers)
Y Units:Reflectance (percent)
First X Value:  0.4000
Last X Value:  2.5000
Number of X Values: 826
Additional Information: mineral.silicate.tectosilicate.fine.vswir.ts-4a.jpl.beckman.ancillary.txt

 0.4000	63.8300
 0.4010	63.8900
 0.4020	64.1100
 0.4030	64.2700
 0.4040	64.2900
 0.4050	64.3800
 0.4060	64.5400
 0.4070	64.6200
 0.4080	64.8600
 0.4090	64.7800
 0.4100	64.9600
 0.4110	65.3000
 0.4120	65.3200
 0.4130	65.4100
 0.4140	65.4600
 0.4150	65.5600
 0.4160	65.8400
 0.4170	65.8600
 0.4180	65.9100
 0.4190	66.2400
 0.4200	66.2900
 0.4210	66.3600
 0.4220	66.4400
 0.4230	66.6300
 0.4240	66.8500
 0.4250	66.9400
 0.4260	66.9800
 0.4270	67.1300
 0.4280	67.2800
 0.4290	67.4600
 0.4300	67.4400
 0.4310	67.7100
 0.4320	67.8700
 0.4330	68.0300
 0.4340	68.1500
 0.4350	68.2700
 0.4360	68.4400
 0.4370	68.7500
 0.4380	68.8000
 0.4390	68.8700
 0.4400	68.9000
 0.4410	69.1200
 0.4420	69.2600
 0.4430	69.3000
 0.4440	69.5000
 0.4450	69.6200
 0.4460	69.7400
 0.4470	69.7300
 0.4480	69.6900
 0.4490	69.9600
 0.4500	70.0800
 0.4510	70.0800
 0.4520	69.9600
 0.4530	70.1100
 0.4540	70.2700
 0.4550	70.3600
 0.4560	70.3800
 0.4570	70.4200
 0.4580	70.6100
 0.4590	70.7200
 0.4600	70.6200
 0.4610	70.7200
 0.4620	70.6300
 0.4630	70.9600
 0.4640	70.8800
 0.4650	70.9000
 0.4660	70.9600
 0.4670	71.0200
 0.4680	71.1900
 0.4690	71.1300
 0.4700	71.1600
 0.4710	71.3500
 0.4720	71.4100
 0.4730	71.3900
 0.4740	71.4100
 0.4750	71.5000
 0.4760	71.7300
 0.4770	71.7700
 0.4780	71.5900
 0.4790	71.6600
 0.4800	71.8300
 0.4810	71.8000
 0.4820	71.7500
 0.4830	72.0800
 0.4840	72.1500
 0.4850	72.3300
 0.4860	72.1900
 0.4870	72.1900
 0.4880	72.5100
 0.4890	72.5500
 0.4900	72.4300
 0.4910	72.5100
 0.4920	72.6500
 0.4930	72.8100
 0.4940	72.7800
 0.4950	72.8200
 0.4960	73.1200
 0.4970	73.0900
 0.4980	73.2600
 0.4990	73.3500
 0.5000	73.6100
 0.5010	73.5200
 0.5020	73.6900
 0.5030	73.5500
 0.5040	73.7800
 0.5050	74.0600
 0.5060	74.0400
 0.5070	73.9500
 0.5080	74.2400
 0.5090	74.4000
 0.5100	74.5000
 0.5110	74.4800
 0.5120	74.6200
 0.5130	74.8200
 0.5140	74.8500
 0.5150	74.8800
 0.5160	74.8900
 0.5170	75.2100
 0.5180	75.2400
 0.5190	75.2400
 0.5200	75.4300
 0.5210	75.5900
 0.5220	75.7500
 0.5230	75.6500
 0.5240	75.8100
 0.5250	76.0000
 0.5260	76.1200
 0.5270	76.0400
 0.5280	76.2100
 0.5290	76.4300
 0.5300	76.3700
 0.5310	76.2800
 0.5320	76.5500
 0.5330	76.7100
 0.5340	76.6300
 0.5350	76.6800
 0.5360	76.9700
 0.5370	77.1700
 0.5380	77.2800
 0.5390	77.2100
 0.5400	77.2500
 0.5410	77.4400
 0.5420	77.3900
 0.5430	77.4500
 0.5440	77.8100
 0.5450	77.8500
 0.5460	77.8800
 0.5470	77.8600
 0.5480	78.0700
 0.5490	78.2400
 0.5500	78.2900
 0.5510	78.3300
 0.5520	78.4400
 0.5530	78.7400
 0.5540	78.6600
 0.5550	78.6900
 0.5560	78.7300
 0.5570	78.8800
 0.5580	78.8500
 0.5590	78.9200
 0.5600	79.4800
 0.5610	79.4100
 0.5620	79.4900
 0.5630	79.7500
 0.5640	79.6600
 0.5650	79.6000
 0.5660	79.7300
 0.5670	79.8200
 0.5680	79.6800
 0.5690	79.6000
 0.5700	79.7200
 0.5710	79.9000
 0.5720	79.8800
 0.5730	79.6600
 0.5740	79.7500
 0.5750	79.7800
 0.5760	79.8500
 0.5770	79.7600
 0.5780	79.7600
 0.5790	80.0400
 0.5800	80.0500
 0.5810	80.0100
 0.5820	79.8900
 0.5830	79.9900
 0.5840	80.0600
 0.5850	80.1500
 0.5860	80.0900
 0.5870	80.2300
 0.5880	80.3500
 0.5890	80.4000
 0.5900	80.2700
 0.5910	80.3200
 0.5920	80.5000
 0.5930	80.4600
 0.5940	80.4400
 0.5950	80.4500
 0.5960	80.5900
 0.5970	80.7400
 0.5980	80.6700
 0.5990	80.6900
 0.6000	80.8300
 0.6010	80.9500
 0.6020	80.8600
 0.6030	80.7700
 0.6040	80.9500
 0.6050	80.8500
 0.6060	80.8500
 0.6070	80.8500
 0.6080	80.9700
 0.6090	81.1500
 0.6100	81.0600
 0.6110	81.0100
 0.6120	80.9800
 0.6130	81.0200
 0.6140	81.0200
 0.6150	81.0100
 0.6160	81.0100
 0.6170	81.0700
 0.6180	81.0200
 0.6190	80.9400
 0.6200	80.9300
 0.6210	81.1500
 0.6220	81.2200
 0.6230	81.0700
 0.6240	81.1000
 0.6250	81.1800
 0.6260	81.0100
 0.6270	81.0200
 0.6280	81.1000
 0.6290	81.3100
 0.6300	81.2400
 0.6310	81.0900
 0.6320	81.1900
 0.6330	81.3100
 0.6340	81.2700
 0.6350	81.1800
 0.6360	81.3400
 0.6370	81.3500
 0.6380	81.3400
 0.6390	81.2500
 0.6400	81.2600
 0.6410	81.4700
 0.6420	81.3600
 0.6430	81.2700
 0.6440	81.4300
 0.6450	81.5000
 0.6460	81.3900
 0.6470	81.3700
 0.6480	81.3200
 0.6490	81.5400
 0.6500	81.5200
 0.6510	81.4700
 0.6520	81.3500
 0.6530	81.4700
 0.6540	81.6200
 0.6550	81.5100
 0.6560	81.3700
 0.6570	81.4800
 0.6580	81.6600
 0.6590	81.5500
 0.6600	81.5800
 0.6610	81.5400
 0.6620	81.6400
 0.6630	81.6400
 0.6640	81.5300
 0.6650	81.3600
 0.6660	81.5600
 0.6670	81.6100
 0.6680	81.6900
 0.6690	81.5600
 0.6700	81.6600
 0.6710	81.7900
 0.6720	81.7900
 0.6730	81.6400
 0.6740	81.7200
 0.6750	81.8000
 0.6760	81.7500
 0.6770	81.6700
 0.6780	81.7300
 0.6790	81.8400
 0.6800	81.8900
 0.6810	81.6900
 0.6820	81.8500
 0.6830	81.8000
 0.6840	81.8600
 0.6850	81.9000
 0.6860	81.8000
 0.6870	81.9100
 0.6880	82.0000
 0.6890	81.7900
 0.6900	81.8400
 0.6910	81.8400
 0.6920	82.0000
 0.6930	81.9800
 0.6940	81.9600
 0.6950	81.9800
 0.6960	82.1400
 0.6970	82.1200
 0.6980	81.8900
 0.6990	81.8800
 0.7000	81.9400
 0.7010	81.8900
 0.7020	81.8700
 0.7030	81.9300
 0.7040	82.1100
 0.7050	82.1200
 0.7060	82.0900
 0.7070	81.9000
 0.7080	81.9700
 0.7090	82.1200
 0.7100	82.0400
 0.7110	82.0200
 0.7120	82.0700
 0.7130	82.1000
 0.7140	82.0900
 0.7150	82.0900
 0.7160	82.0600
 0.7170	82.1200
 0.7180	82.2500
 0.7190	82.2200
 0.7200	82.0200
 0.7210	82.1600
 0.7220	82.2600
 0.7230	82.2900
 0.7240	82.2700
 0.7250	82.1600
 0.7260	82.2000
 0.7270	82.3300
 0.7280	82.3200
 0.7290	82.2500
 0.7300	82.2700
 0.7310	82.4400
 0.7320	82.4300
 0.7330	82.3100
 0.7340	82.1200
 0.7350	82.3000
 0.7360	82.3700
 0.7370	82.3600
 0.7380	82.2500
 0.7390	82.3600
 0.7400	82.4600
 0.7410	82.3700
 0.7420	82.3200
 0.7430	82.3700
 0.7440	82.5300
 0.7450	82.5300
 0.7460	82.2500
 0.7470	82.3200
 0.7480	82.3600
 0.7490	82.3600
 0.7500	82.2600
 0.7510	82.2200
 0.7520	82.3800
 0.7530	82.4600
 0.7540	82.2800
 0.7550	82.4100
 0.7560	82.4900
 0.7570	82.6600
 0.7580	82.4300
 0.7590	82.3800
 0.7600	82.2800
 0.7610	82.4400
 0.7620	82.3500
 0.7630	82.2500
 0.7640	82.4000
 0.7650	82.5300
 0.7660	82.4000
 0.7670	82.2700
 0.7680	82.2800
 0.7690	82.5100
 0.7700	82.5000
 0.7710	82.3200
 0.7720	82.3300
 0.7730	82.3400
 0.7740	82.4600
 0.7750	82.4400
 0.7760	82.4300
 0.7770	82.4000
 0.7780	82.4100
 0.7790	82.4600
 0.7800	82.3300
 0.7810	82.5500
 0.7820	82.6300
 0.7830	82.6500
 0.7840	82.4100
 0.7850	82.4200
 0.7860	82.4800
 0.7870	82.6000
 0.7880	82.5200
 0.7890	82.4400
 0.7900	82.5600
 0.7910	82.5100
 0.7920	82.6400
 0.7930	82.4800
 0.7940	82.4600
 0.7950	82.6800
 0.7960	82.5700
 0.7970	82.5000
 0.7980	82.4700
 0.7990	82.6800
 0.8000	82.4900
 0.8040	82.3400
 0.8080	82.3800
 0.8120	82.3300
 0.8160	82.2600
 0.8200	82.3000
 0.8240	82.2700
 0.8280	82.3900
 0.8320	82.3600
 0.8360	82.3400
 0.8400	82.3600
 0.8440	82.3300
 0.8480	82.4100
 0.8520	82.3800
 0.8560	82.4300
 0.8600	82.4300
 0.8640	82.5000
 0.8680	82.4600
 0.8720	82.3500
 0.8760	82.3100
 0.8800	82.1700
 0.8840	82.1900
 0.8880	82.0800
 0.8920	82.2300
 0.8960	82.2400
 0.9000	82.1900
 0.9040	82.2400
 0.9080	82.2300
 0.9120	82.1800
 0.9160	82.3300
 0.9200	82.3000
 0.9240	82.2300
 0.9280	82.3600
 0.9320	82.2300
 0.9360	82.3100
 0.9400	82.2700
 0.9440	82.2800
 0.9480	82.2800
 0.9520	82.2800
 0.9560	82.1900
 0.9600	82.3700
 0.9640	82.2800
 0.9680	82.3700
 0.9720	82.2500
 0.9760	82.2300
 0.9800	82.2500
 0.9840	82.2800
 0.9880	82.3400
 0.9920	82.3000
 0.9960	82.3200
 1.0000	82.2900
 1.0040	82.2800
 1.0080	82.2800
 1.0120	82.2700
 1.0160	82.2800
 1.0200	82.1700
 1.0240	82.2200
 1.0280	82.2700
 1.0320	82.1600
 1.0360	82.2000
 1.0400	82.3100
 1.0440	82.2200
 1.0480	82.1700
 1.0520	82.1200
 1.0560	82.1800
 1.0600	82.2000
 1.0640	82.1100
 1.0680	82.2100
 1.0720	82.1400
 1.0760	82.1400
 1.0800	82.2000
 1.0840	82.1800
 1.0880	82.1500
 1.0920	82.1700
 1.0960	82.1100
 1.1000	82.1400
 1.1040	82.1100
 1.1080	82.1600
 1.1120	82.1700
 1.1160	82.1000
 1.1200	82.0500
 1.1240	82.1400
 1.1280	82.0500
 1.1320	81.9500
 1.1360	81.9400
 1.1400	81.9200
 1.1440	81.8900
 1.1480	81.7900
 1.1520	81.8000
 1.1560	81.8000
 1.1600	81.7500
 1.1640	81.8000
 1.1680	81.7400
 1.1720	81.7300
 1.1760	81.7700
 1.1800	81.7100
 1.1840	81.6700
 1.1880	81.6900
 1.1920	81.7000
 1.1960	81.6800
 1.2000	81.6200
 1.2040	81.6200
 1.2080	81.5500
 1.2120	81.4600
 1.2160	81.4800
 1.2200	81.4700
 1.2240	81.4700
 1.2280	81.4700
 1.2320	81.4000
 1.2360	81.5000
 1.2400	81.5300
 1.2440	81.5000
 1.2480	81.4100
 1.2520	81.4700
 1.2560	81.5100
 1.2600	81.4600
 1.2640	81.5800
 1.2680	81.5600
 1.2720	81.5900
 1.2760	81.5400
 1.2800	81.5200
 1.2840	81.5500
 1.2880	81.4500
 1.2920	81.4600
 1.2960	81.5500
 1.3000	81.4600
 1.3040	81.3900
 1.3080	81.4300
 1.3120	81.3700
 1.3160	81.3200
 1.3200	81.3400
 1.3240	81.3800
 1.3280	81.4200
 1.3320	81.3400
 1.3360	81.3400
 1.3400	81.4200
 1.3440	81.4300
 1.3480	81.5200
 1.3520	81.5700
 1.3560	81.6400
 1.3600	81.5400
 1.3640	81.5600
 1.3680	81.5600
 1.3720	81.6000
 1.3760	81.5200
 1.3800	81.4900
 1.3840	81.3700
 1.3880	81.2600
 1.3920	81.1500
 1.3960	80.9700
 1.4000	80.8900
 1.4040	80.8700
 1.4080	80.8700
 1.4120	81.0100
 1.4160	81.2600
 1.4200	81.3400
 1.4240	81.4600
 1.4280	81.5700
 1.4320	81.7000
 1.4360	81.7100
 1.4400	81.7900
 1.4440	81.8200
 1.4480	81.7500
 1.4520	81.9100
 1.4560	82.0500
 1.4600	82.0300
 1.4640	82.0500
 1.4680	82.1000
 1.4720	82.1200
 1.4760	82.1400
 1.4800	82.1700
 1.4840	82.1400
 1.4880	82.1700
 1.4920	82.1700
 1.4960	82.2100
 1.5000	82.2300
 1.5040	82.2800
 1.5080	82.3500
 1.5120	82.3900
 1.5160	82.4600
 1.5200	82.3600
 1.5240	82.4800
 1.5280	82.4600
 1.5320	82.5000
 1.5360	82.5000
 1.5400	82.4800
 1.5440	82.5100
 1.5480	82.5000
 1.5520	82.4600
 1.5560	82.4500
 1.5600	82.5500
 1.5640	82.6200
 1.5680	82.5400
 1.5720	82.5800
 1.5760	82.6800
 1.5800	82.5800
 1.5840	82.7100
 1.5880	82.7100
 1.5920	82.6900
 1.5960	82.8000
 1.6000	82.8300
 1.6040	82.8000
 1.6080	82.8000
 1.6120	82.8400
 1.6160	82.8000
 1.6200	82.8200
 1.6240	82.8000
 1.6280	82.8200
 1.6320	82.8300
 1.6360	82.8000
 1.6400	82.9100
 1.6440	82.8400
 1.6480	82.9000
 1.6520	82.9400
 1.6560	82.9400
 1.6600	82.9900
 1.6640	82.9300
 1.6680	83.0100
 1.6720	83.0500
 1.6760	83.0800
 1.6800	83.1000
 1.6840	83.0800
 1.6880	83.0700
 1.6920	83.0500
 1.6960	83.0500
 1.7000	83.0600
 1.7040	83.0600
 1.7080	82.9700
 1.7120	83.0200
 1.7160	83.0100
 1.7200	82.9700
 1.7240	82.9600
 1.7280	83.0000
 1.7320	82.9500
 1.7360	83.0100
 1.7400	82.9400
 1.7440	83.0300
 1.7480	83.1000
 1.7520	83.0100
 1.7560	82.9700
 1.7600	83.0100
 1.7640	82.9300
 1.7680	82.9400
 1.7720	82.9000
 1.7760	82.9500
 1.7800	83.0000
 1.7840	82.9200
 1.7880	82.8500
 1.7920	82.9200
 1.7960	83.0100
 1.8000	83.0200
 1.8040	82.9900
 1.8080	82.9700
 1.8120	82.9600
 1.8160	82.9700
 1.8200	82.9700
 1.8240	83.0000
 1.8280	82.9700
 1.8320	82.9800
 1.8360	82.9400
 1.8400	82.9000
 1.8440	82.9400
 1.8480	82.9200
 1.8520	82.9000
 1.8560	82.9100
 1.8600	82.9100
 1.8640	82.7500
 1.8680	82.8100
 1.8720	82.6900
 1.8760	82.6600
 1.8800	82.5900
 1.8840	82.4900
 1.8880	82.2600
 1.8920	82.0900
 1.8960	81.8600
 1.9000	81.7200
 1.9040	81.7400
 1.9080	81.7200
 1.9120	81.7500
 1.9160	81.6600
 1.9200	81.6900
 1.9240	81.8000
 1.9280	81.9000
 1.9320	81.8900
 1.9360	82.0200
 1.9400	81.9200
 1.9440	82.0300
 1.9480	82.0200
 1.9520	82.1200
 1.9560	82.1500
 1.9600	82.1600
 1.9640	82.1000
 1.9680	82.2800
 1.9720	82.2900
 1.9760	82.3400
 1.9800	82.4000
 1.9840	82.4600
 1.9880	82.5700
 1.9920	82.6600
 1.9960	82.8400
 2.0000	82.8700
 2.0040	82.9200
 2.0080	82.9500
 2.0120	82.9500
 2.0160	83.0300
 2.0200	83.1300
 2.0240	83.1600
 2.0280	83.1300
 2.0320	83.1800
 2.0360	83.1300
 2.0400	83.2200
 2.0440	83.2500
 2.0480	83.2100
 2.0520	83.1500
 2.0560	83.2500
 2.0600	83.2000
 2.0640	83.2700
 2.0680	83.2900
 2.0720	83.2600
 2.0760	83.3000
 2.0800	83.2800
 2.0840	83.4400
 2.0880	83.3900
 2.0920	83.4600
 2.0960	83.5200
 2.1000	83.5200
 2.1040	83.5900
 2.1080	83.6300
 2.1120	83.7200
 2.1160	83.7200
 2.1200	83.7100
 2.1240	83.6900
 2.1280	83.5700
 2.1320	83.5800
 2.1360	83.5100
 2.1400	83.3800
 2.1440	83.2900
 2.1480	83.1200
 2.1520	83.0100
 2.1560	82.7500
 2.1600	82.7100
 2.1640	82.5900
 2.1680	82.4100
 2.1720	82.1400
 2.1760	81.9700
 2.1800	81.8700
 2.1840	81.7600
 2.1880	81.6600
 2.1920	81.6500
 2.1960	81.7500
 2.2000	81.7600
 2.2040	81.7500
 2.2080	81.8800
 2.2120	81.9900
 2.2160	82.0900
 2.2200	82.2100
 2.2240	82.3400
 2.2280	82.2900
 2.2320	82.3700
 2.2360	82.3900
 2.2400	82.2900
 2.2440	82.4100
 2.2480	82.3700
 2.2520	82.4400
 2.2560	82.4200
 2.2600	82.4400
 2.2640	82.4100
 2.2680	82.4900
 2.2720	82.5400
 2.2760	82.5200
 2.2800	82.5000
 2.2840	82.4600
 2.2880	82.5000
 2.2920	82.4200
 2.2960	82.4600
 2.3000	82.3400
 2.3040	82.3300
 2.3080	82.3200
 2.3120	82.3000
 2.3160	82.3200
 2.3200	82.2900
 2.3240	82.1600
 2.3280	82.0900
 2.3320	82.0300
 2.3360	82.0400
 2.3400	82.0900
 2.3440	82.1000
 2.3480	82.0600
 2.3520	82.0300
 2.3560	82.0700
 2.3600	82.0900
 2.3640	82.1100
 2.3680	82.0600
 2.3720	82.0000
 2.3760	81.9600
 2.3800	81.9700
 2.3840	81.9500
 2.3880	81.9200
 2.3920	81.8300
 2.3960	81.7500
 2.4000	81.6900
 2.4040	81.6100
 2.4080	81.5300
 2.4120	81.5200
 2.4160	81.4400
 2.4200	81.3600
 2.4240	81.3200
 2.4280	81.2300
 2.4320	81.2400
 2.4360	81.2800
 2.4400	81.1700
 2.4440	81.0400
 2.4480	81.1100
 2.4520	80.9700
 2.4560	81.0200
 2.4600	80.9500
 2.4640	80.9000
 2.4680	80.8700
 2.4720	80.8100
 2.4760	80.8600
 2.4800	81.0900
 2.4840	81.1200
 2.4880	81.1900
 2.4920	81.1300
 2.4960	81.3100
 2.5000	81.2900
