Name: Quartz SiO_2
Type: Mineral
Class: Silicate
Subclass: Tectosilicate
Particle Size: Coarse
Sample No.: TS-1A
Owner: JPL
Wavelength Range: VSWIR
Origin: USA, Arkansas, Montgomery County, Mount Ida
Collection Date: N/A
Description: Rock crystal. Particle size was 125-500um.Collected by Burminco Original ASTER Spectral Library name was jpl.beckman.mineral.silicate.tectosilicate.coarse.ts01a.spectrum.txt
Measurement: Hemispherical reflectance
First Column: X
Second Column: Y
X Units: Wavelength (micrometers)
Y Units:Reflectance (percent)
First X Value:  0.4000
Last X Value:  2.5000
Number of X Values: 826
Additional Information: mineral.silicate.tectosilicate.coarse.vswir.ts-1a.jpl.beckman.ancillary.txt

 0.4000	79.5300
 0.4010	79.4200
 0.4020	79.4700
 0.4030	79.6100
 0.4040	79.6600
 0.4050	79.4800
 0.4060	79.5100
 0.4070	79.5800
 0.4080	79.5600
 0.4090	79.7300
 0.4100	79.6200
 0.4110	79.6400
 0.4120	79.6800
 0.4130	79.6700
 0.4140	79.6900
 0.4150	79.6900
 0.4160	79.7400
 0.4170	79.8400
 0.4180	79.6100
 0.4190	79.7000
 0.4200	79.7100
 0.4210	79.6600
 0.4220	79.8800
 0.4230	79.7100
 0.4240	79.6600
 0.4250	79.8400
 0.4260	79.7700
 0.4270	79.7100
 0.4280	79.7500
 0.4290	79.8100
 0.4300	79.8000
 0.4310	79.7500
 0.4320	79.8200
 0.4330	79.9100
 0.4340	79.7800
 0.4350	79.8800
 0.4360	79.7300
 0.4370	79.8200
 0.4380	79.8700
 0.4390	79.8800
 0.4400	79.8700
 0.4410	80.0100
 0.4420	80.0200
 0.4430	79.8600
 0.4440	79.9300
 0.4450	79.9000
 0.4460	80.0100
 0.4470	79.8700
 0.4480	79.9200
 0.4490	79.8900
 0.4500	79.9100
 0.4510	80.0300
 0.4520	80.0300
 0.4530	80.0300
 0.4540	80.0700
 0.4550	80.1600
 0.4560	80.0300
 0.4570	80.0600
 0.4580	80.0300
 0.4590	80.1700
 0.4600	80.2800
 0.4610	80.0100
 0.4620	80.0000
 0.4630	80.2000
 0.4640	80.1300
 0.4650	80.1300
 0.4660	80.0700
 0.4670	80.0700
 0.4680	80.1500
 0.4690	80.3000
 0.4700	80.2900
 0.4710	80.1200
 0.4720	80.3100
 0.4730	80.2600
 0.4740	80.3000
 0.4750	80.2400
 0.4760	80.2500
 0.4770	80.2800
 0.4780	80.4200
 0.4790	80.3000
 0.4800	80.2500
 0.4810	80.3100
 0.4820	80.3700
 0.4830	80.4900
 0.4840	80.4000
 0.4850	80.3500
 0.4860	80.3100
 0.4870	80.3300
 0.4880	80.3400
 0.4890	80.3100
 0.4900	80.4300
 0.4910	80.3800
 0.4920	80.4500
 0.4930	80.3700
 0.4940	80.4100
 0.4950	80.4200
 0.4960	80.5000
 0.4970	80.6200
 0.4980	80.5200
 0.4990	80.5900
 0.5000	80.5400
 0.5010	80.5500
 0.5020	80.4500
 0.5030	80.5100
 0.5040	80.6800
 0.5050	80.5700
 0.5060	80.6200
 0.5070	80.5100
 0.5080	80.6800
 0.5090	80.6900
 0.5100	80.8000
 0.5110	80.6600
 0.5120	80.7300
 0.5130	80.7800
 0.5140	80.7800
 0.5150	80.7700
 0.5160	80.7900
 0.5170	80.8100
 0.5180	80.8100
 0.5190	80.9100
 0.5200	80.7500
 0.5210	80.8300
 0.5220	80.7700
 0.5230	80.8800
 0.5240	80.9500
 0.5250	80.8300
 0.5260	80.9300
 0.5270	80.9200
 0.5280	80.8600
 0.5290	80.8200
 0.5300	80.7900
 0.5310	80.9200
 0.5320	80.8400
 0.5330	80.8300
 0.5340	80.7500
 0.5350	80.8100
 0.5360	80.9200
 0.5370	81.0200
 0.5380	80.9700
 0.5390	80.9700
 0.5400	80.9900
 0.5410	81.0600
 0.5420	81.0100
 0.5430	80.9600
 0.5440	81.0200
 0.5450	80.9300
 0.5460	81.0600
 0.5470	80.9700
 0.5480	81.0000
 0.5490	81.1400
 0.5500	81.2700
 0.5510	81.3400
 0.5520	81.1800
 0.5530	81.2600
 0.5540	81.3200
 0.5550	81.2100
 0.5560	81.2700
 0.5570	81.1900
 0.5580	81.3100
 0.5590	81.2700
 0.5600	81.3000
 0.5610	81.7500
 0.5620	81.8100
 0.5630	81.8100
 0.5640	81.7600
 0.5650	81.6900
 0.5660	81.6200
 0.5670	81.6700
 0.5680	81.6000
 0.5690	81.5500
 0.5700	81.5500
 0.5710	81.5300
 0.5720	81.4500
 0.5730	81.2800
 0.5740	81.2700
 0.5750	81.3100
 0.5760	81.4400
 0.5770	81.3500
 0.5780	81.2700
 0.5790	81.2000
 0.5800	81.3600
 0.5810	81.1700
 0.5820	81.2800
 0.5830	81.2600
 0.5840	81.2900
 0.5850	81.3500
 0.5860	81.2300
 0.5870	81.2300
 0.5880	81.2800
 0.5890	81.4600
 0.5900	81.5200
 0.5910	81.4100
 0.5920	81.3500
 0.5930	81.3400
 0.5940	81.4600
 0.5950	81.4700
 0.5960	81.5000
 0.5970	81.4700
 0.5980	81.5600
 0.5990	81.6300
 0.6000	81.4500
 0.6010	81.5800
 0.6020	81.5700
 0.6030	81.6600
 0.6040	81.6800
 0.6050	81.5200
 0.6060	81.6500
 0.6070	81.4800
 0.6080	81.5000
 0.6090	81.5100
 0.6100	81.5100
 0.6110	81.5700
 0.6120	81.6200
 0.6130	81.5000
 0.6140	81.4400
 0.6150	81.4500
 0.6160	81.5200
 0.6170	81.5500
 0.6180	81.4800
 0.6190	81.3100
 0.6200	81.3300
 0.6210	81.5100
 0.6220	81.5000
 0.6230	81.5100
 0.6240	81.5100
 0.6250	81.5700
 0.6260	81.5700
 0.6270	81.4400
 0.6280	81.4400
 0.6290	81.3700
 0.6300	81.5900
 0.6310	81.5400
 0.6320	81.4400
 0.6330	81.5900
 0.6340	81.5200
 0.6350	81.5700
 0.6360	81.5600
 0.6370	81.5000
 0.6380	81.5700
 0.6390	81.5500
 0.6400	81.5500
 0.6410	81.4800
 0.6420	81.4300
 0.6430	81.5500
 0.6440	81.6200
 0.6450	81.6400
 0.6460	81.4100
 0.6470	81.5200
 0.6480	81.5700
 0.6490	81.5700
 0.6500	81.5700
 0.6510	81.5100
 0.6520	81.5700
 0.6530	81.6200
 0.6540	81.5400
 0.6550	81.4900
 0.6560	81.5500
 0.6570	81.6200
 0.6580	81.6900
 0.6590	81.5200
 0.6600	81.6400
 0.6610	81.6300
 0.6620	81.7000
 0.6630	81.7000
 0.6640	81.6500
 0.6650	81.7100
 0.6660	81.8000
 0.6670	81.6700
 0.6680	81.6100
 0.6690	81.6800
 0.6700	81.7500
 0.6710	81.8200
 0.6720	81.8300
 0.6730	81.6500
 0.6740	81.7000
 0.6750	81.7700
 0.6760	81.7700
 0.6770	81.8100
 0.6780	81.7500
 0.6790	81.7400
 0.6800	81.9000
 0.6810	81.8500
 0.6820	81.8100
 0.6830	81.8900
 0.6840	81.9000
 0.6850	82.0500
 0.6860	82.0600
 0.6870	81.8400
 0.6880	81.9000
 0.6890	82.0100
 0.6900	81.9900
 0.6910	82.0300
 0.6920	81.9600
 0.6930	82.0800
 0.6940	82.0800
 0.6950	81.9200
 0.6960	81.9600
 0.6970	81.9700
 0.6980	82.0200
 0.6990	82.0500
 0.7000	82.0000
 0.7010	82.0000
 0.7020	81.9700
 0.7030	81.8800
 0.7040	81.9000
 0.7050	81.9400
 0.7060	82.0400
 0.7070	81.9400
 0.7080	81.7800
 0.7090	81.8900
 0.7100	81.9900
 0.7110	81.9100
 0.7120	81.9000
 0.7130	81.9100
 0.7140	82.0900
 0.7150	82.0400
 0.7160	81.9900
 0.7170	82.0000
 0.7180	82.0000
 0.7190	82.0500
 0.7200	81.9400
 0.7210	81.9400
 0.7220	82.0300
 0.7230	82.0900
 0.7240	82.0600
 0.7250	81.9700
 0.7260	82.0700
 0.7270	82.1800
 0.7280	82.1100
 0.7290	82.0600
 0.7300	82.2400
 0.7310	82.1100
 0.7320	82.2700
 0.7330	82.1000
 0.7340	82.1000
 0.7350	82.2300
 0.7360	82.2900
 0.7370	82.2100
 0.7380	82.1100
 0.7390	82.1700
 0.7400	82.2900
 0.7410	82.3400
 0.7420	82.2100
 0.7430	82.1600
 0.7440	82.2300
 0.7450	82.3000
 0.7460	82.1300
 0.7470	82.0600
 0.7480	82.1900
 0.7490	82.2900
 0.7500	82.1300
 0.7510	82.0100
 0.7520	82.1100
 0.7530	82.1200
 0.7540	82.2900
 0.7550	82.2500
 0.7560	82.1900
 0.7570	82.1900
 0.7580	82.2400
 0.7590	82.2900
 0.7600	82.1800
 0.7610	82.2300
 0.7620	82.3100
 0.7630	82.3700
 0.7640	82.2600
 0.7650	82.2100
 0.7660	82.2600
 0.7670	82.3700
 0.7680	82.4300
 0.7690	82.2600
 0.7700	82.3200
 0.7710	82.3700
 0.7720	82.3900
 0.7730	82.3800
 0.7740	82.3800
 0.7750	82.3900
 0.7760	82.4400
 0.7770	82.3300
 0.7780	82.2600
 0.7790	82.2600
 0.7800	82.3900
 0.7810	82.5000
 0.7820	82.5700
 0.7830	82.3400
 0.7840	82.4100
 0.7850	82.4700
 0.7860	82.5100
 0.7870	82.4400
 0.7880	82.3300
 0.7890	82.4100
 0.7900	82.5800
 0.7910	82.4000
 0.7920	82.4000
 0.7930	82.5000
 0.7940	82.5500
 0.7950	82.5500
 0.7960	82.4700
 0.7970	82.5200
 0.7980	82.5700
 0.7990	82.6000
 0.8000	82.6400
 0.8040	82.6800
 0.8080	82.7500
 0.8120	82.6800
 0.8160	82.7300
 0.8200	82.8100
 0.8240	82.8500
 0.8280	82.8300
 0.8320	82.8100
 0.8360	82.8800
 0.8400	82.9600
 0.8440	82.9900
 0.8480	82.8800
 0.8520	82.9200
 0.8560	82.9400
 0.8600	82.9700
 0.8640	83.0900
 0.8680	83.1500
 0.8720	83.1800
 0.8760	83.2000
 0.8800	83.1900
 0.8840	83.1900
 0.8880	83.2400
 0.8920	83.2500
 0.8960	83.1900
 0.9000	83.2300
 0.9040	83.1200
 0.9080	83.1400
 0.9120	83.1100
 0.9160	83.1900
 0.9200	83.1900
 0.9240	83.1500
 0.9280	83.2500
 0.9320	83.2400
 0.9360	83.3600
 0.9400	83.4100
 0.9440	83.4900
 0.9480	83.4100
 0.9520	83.4600
 0.9560	83.4800
 0.9600	83.4700
 0.9640	83.5000
 0.9680	83.5000
 0.9720	83.4700
 0.9760	83.4300
 0.9800	83.5000
 0.9840	83.4400
 0.9880	83.4500
 0.9920	83.5100
 0.9960	83.6000
 1.0000	83.5900
 1.0040	83.5100
 1.0080	83.5100
 1.0120	83.4900
 1.0160	83.5800
 1.0200	83.5900
 1.0240	83.6000
 1.0280	83.6600
 1.0320	83.6200
 1.0360	83.7000
 1.0400	83.7600
 1.0440	83.8700
 1.0480	83.7700
 1.0520	83.8100
 1.0560	83.8100
 1.0600	83.7600
 1.0640	83.7300
 1.0680	83.7300
 1.0720	83.8200
 1.0760	83.7700
 1.0800	83.6900
 1.0840	83.7400
 1.0880	83.7200
 1.0920	83.8500
 1.0960	83.8200
 1.1000	83.8300
 1.1040	83.8300
 1.1080	83.8100
 1.1120	83.8200
 1.1160	83.9300
 1.1200	83.8800
 1.1240	83.9400
 1.1280	83.9800
 1.1320	83.9900
 1.1360	83.8800
 1.1400	83.8500
 1.1440	83.8500
 1.1480	83.7700
 1.1520	83.7900
 1.1560	83.8900
 1.1600	83.8600
 1.1640	83.8500
 1.1680	83.9000
 1.1720	83.8000
 1.1760	83.8600
 1.1800	83.9200
 1.1840	83.9100
 1.1880	83.9900
 1.1920	83.9700
 1.1960	84.0000
 1.2000	84.0200
 1.2040	83.9100
 1.2080	83.8900
 1.2120	83.8800
 1.2160	83.8600
 1.2200	83.8600
 1.2240	83.9600
 1.2280	83.9500
 1.2320	83.8800
 1.2360	83.9200
 1.2400	83.9500
 1.2440	83.9700
 1.2480	83.9300
 1.2520	84.0600
 1.2560	84.1100
 1.2600	84.0300
 1.2640	84.0700
 1.2680	84.0400
 1.2720	84.0200
 1.2760	83.9600
 1.2800	84.0100
 1.2840	83.9900
 1.2880	83.9700
 1.2920	83.9000
 1.2960	83.9200
 1.3000	83.9600
 1.3040	84.0200
 1.3080	84.0300
 1.3120	84.0700
 1.3160	83.9700
 1.3200	83.9900
 1.3240	83.9700
 1.3280	83.8900
 1.3320	83.9000
 1.3360	83.9000
 1.3400	83.9200
 1.3440	83.8700
 1.3480	83.8600
 1.3520	83.9000
 1.3560	83.9000
 1.3600	83.8500
 1.3640	83.8500
 1.3680	83.8400
 1.3720	83.8700
 1.3760	83.9100
 1.3800	83.9100
 1.3840	83.9200
 1.3880	83.9400
 1.3920	84.0200
 1.3960	83.9800
 1.4000	83.8500
 1.4040	83.8100
 1.4080	83.8200
 1.4120	83.8400
 1.4160	83.8100
 1.4200	83.7100
 1.4240	83.7200
 1.4280	83.7800
 1.4320	83.8200
 1.4360	83.7700
 1.4400	83.7800
 1.4440	83.7300
 1.4480	83.8400
 1.4520	83.8100
 1.4560	83.8600
 1.4600	83.8800
 1.4640	83.9100
 1.4680	83.9100
 1.4720	83.8800
 1.4760	83.8800
 1.4800	83.9400
 1.4840	83.9200
 1.4880	84.0300
 1.4920	84.0000
 1.4960	83.9500
 1.5000	83.9700
 1.5040	83.9300
 1.5080	83.8100
 1.5120	83.9100
 1.5160	83.9300
 1.5200	83.9400
 1.5240	83.9800
 1.5280	83.9600
 1.5320	83.9700
 1.5360	84.0300
 1.5400	84.0200
 1.5440	83.9800
 1.5480	84.0400
 1.5520	84.1000
 1.5560	84.1000
 1.5600	84.1100
 1.5640	84.1000
 1.5680	84.1400
 1.5720	84.1300
 1.5760	84.1800
 1.5800	84.1800
 1.5840	84.2400
 1.5880	84.2400
 1.5920	84.2500
 1.5960	84.2700
 1.6000	84.2800
 1.6040	84.3100
 1.6080	84.3800
 1.6120	84.3000
 1.6160	84.3100
 1.6200	84.2800
 1.6240	84.2900
 1.6280	84.2700
 1.6320	84.2800
 1.6360	84.3700
 1.6400	84.3200
 1.6440	84.2600
 1.6480	84.2500
 1.6520	84.3100
 1.6560	84.3500
 1.6600	84.2700
 1.6640	84.3100
 1.6680	84.3000
 1.6720	84.3700
 1.6760	84.4000
 1.6800	84.4000
 1.6840	84.4300
 1.6880	84.4800
 1.6920	84.4800
 1.6960	84.4900
 1.7000	84.5200
 1.7040	84.5600
 1.7080	84.5800
 1.7120	84.6000
 1.7160	84.5500
 1.7200	84.6100
 1.7240	84.5300
 1.7280	84.5300
 1.7320	84.5200
 1.7360	84.5200
 1.7400	84.5200
 1.7440	84.4800
 1.7480	84.4700
 1.7520	84.4700
 1.7560	84.5200
 1.7600	84.4600
 1.7640	84.4300
 1.7680	84.4400
 1.7720	84.4300
 1.7760	84.4000
 1.7800	84.3400
 1.7840	84.3600
 1.7880	84.3200
 1.7920	84.3800
 1.7960	84.3800
 1.8000	84.4600
 1.8040	84.4500
 1.8080	84.4000
 1.8120	84.4100
 1.8160	84.4700
 1.8200	84.5100
 1.8240	84.4400
 1.8280	84.4800
 1.8320	84.4500
 1.8360	84.4200
 1.8400	84.4300
 1.8440	84.4400
 1.8480	84.4400
 1.8520	84.4300
 1.8560	84.4200
 1.8600	84.4500
 1.8640	84.3600
 1.8680	84.3600
 1.8720	84.2600
 1.8760	84.1700
 1.8800	84.0700
 1.8840	84.0000
 1.8880	83.8300
 1.8920	83.7100
 1.8960	83.6700
 1.9000	83.6000
 1.9040	83.4700
 1.9080	83.5200
 1.9120	83.5100
 1.9160	83.4700
 1.9200	83.5200
 1.9240	83.4600
 1.9280	83.5000
 1.9320	83.5200
 1.9360	83.5700
 1.9400	83.5000
 1.9440	83.6500
 1.9480	83.5700
 1.9520	83.6300
 1.9560	83.6700
 1.9600	83.7300
 1.9640	83.7500
 1.9680	83.6500
 1.9720	83.7300
 1.9760	83.7800
 1.9800	83.8400
 1.9840	84.0000
 1.9880	84.0300
 1.9920	84.1900
 1.9960	84.3500
 2.0000	84.4000
 2.0040	84.3900
 2.0080	84.3600
 2.0120	84.3700
 2.0160	84.4500
 2.0200	84.5200
 2.0240	84.4700
 2.0280	84.5600
 2.0320	84.5700
 2.0360	84.6200
 2.0400	84.7000
 2.0440	84.7500
 2.0480	84.7200
 2.0520	84.7600
 2.0560	84.8400
 2.0600	84.8600
 2.0640	84.8400
 2.0680	84.8500
 2.0720	84.8800
 2.0760	84.8900
 2.0800	84.9000
 2.0840	84.9200
 2.0880	84.9200
 2.0920	85.0000
 2.0960	85.1800
 2.1000	85.1400
 2.1040	85.2600
 2.1080	85.2800
 2.1120	85.3900
 2.1160	85.4100
 2.1200	85.5100
 2.1240	85.4600
 2.1280	85.4400
 2.1320	85.4000
 2.1360	85.3200
 2.1400	85.2800
 2.1440	85.2600
 2.1480	85.1200
 2.1520	84.9900
 2.1560	84.9600
 2.1600	84.8400
 2.1640	84.8400
 2.1680	84.7600
 2.1720	84.6800
 2.1760	84.6200
 2.1800	84.5100
 2.1840	84.4800
 2.1880	84.4500
 2.1920	84.4000
 2.1960	84.4500
 2.2000	84.3900
 2.2040	84.3300
 2.2080	84.4000
 2.2120	84.3800
 2.2160	84.4100
 2.2200	84.5700
 2.2240	84.5600
 2.2280	84.6200
 2.2320	84.7100
 2.2360	84.6700
 2.2400	84.7000
 2.2440	84.6900
 2.2480	84.7300
 2.2520	84.7800
 2.2560	84.7100
 2.2600	84.7500
 2.2640	84.7300
 2.2680	84.7400
 2.2720	84.7200
 2.2760	84.6700
 2.2800	84.7500
 2.2840	84.7700
 2.2880	84.7700
 2.2920	84.8000
 2.2960	84.9000
 2.3000	84.9000
 2.3040	84.9300
 2.3080	85.1000
 2.3120	85.1700
 2.3160	85.1800
 2.3200	85.2300
 2.3240	85.2000
 2.3280	85.2000
 2.3320	85.2000
 2.3360	85.1100
 2.3400	85.1100
 2.3440	85.0200
 2.3480	85.0100
 2.3520	85.0300
 2.3560	85.0300
 2.3600	84.9400
 2.3640	84.9000
 2.3680	84.8900
 2.3720	84.9400
 2.3760	84.9900
 2.3800	84.9800
 2.3840	84.9400
 2.3880	84.9100
 2.3920	84.8300
 2.3960	84.7800
 2.4000	84.7900
 2.4040	84.7200
 2.4080	84.7100
 2.4120	84.6200
 2.4160	84.6600
 2.4200	84.5900
 2.4240	84.5900
 2.4280	84.5800
 2.4320	84.5700
 2.4360	84.5800
 2.4400	84.5100
 2.4440	84.5400
 2.4480	84.4900
 2.4520	84.5500
 2.4560	84.4200
 2.4600	84.3100
 2.4640	84.2900
 2.4680	84.1600
 2.4720	84.0700
 2.4760	84.0100
 2.4800	84.1000
 2.4840	84.2600
 2.4880	84.2000
 2.4920	84.3500
 2.4960	84.3500
 2.5000	84.4100
