Name: Tourmaline Na(Mg_3,Fe_3^2+)Al_6(BO_3)_3Si_6O_18(OH)_4
Type: Mineral
Class: Silicate
Subclass: Cyclosilicate
Particle Size: Fine
Sample No.: CS-1A
Owner: JPL
Wavelength Range: VSWIR
Origin: USA, New York, Overlook.
Collection Date: N/A
Description: Particle size was 0-45um.Collected by:  Ward's Original ASTER Spectral Library name was jpl.perkin.mineral.silicate.cyclosilicate.fine.cs01a.spectrum.txt
Measurement: Hemispherical reflectance
First Column: X
Second Column: Y
X Units: Wavelength (micrometers)
Y Units:Reflectance (percent)
First X Value:  2.5000
Last X Value:  0.4000
Number of X Values: 2101
Additional Information: mineral.silicate.cyclosilicate.fine.vswir.cs-1a.jpl.perkin.ancillary.txt

 2.5000	33.4400
 2.4990	33.5767
 2.4980	33.5473
 2.4970	33.7772
 2.4960	33.3412
 2.4950	33.7044
 2.4940	33.5424
 2.4930	33.5031
 2.4920	33.3466
 2.4910	33.6434
 2.4900	33.5108
 2.4890	33.5824
 2.4880	33.3384
 2.4870	33.6362
 2.4860	33.6515
 2.4850	33.8083
 2.4840	33.5506
 2.4830	33.6899
 2.4820	33.5044
 2.4810	33.7088
 2.4800	33.6495
 2.4790	33.7416
 2.4780	33.5582
 2.4770	33.6883
 2.4760	33.5843
 2.4750	33.7304
 2.4740	33.6621
 2.4730	33.6216
 2.4720	33.6608
 2.4710	33.7217
 2.4700	33.6248
 2.4690	33.8984
 2.4680	33.6453
 2.4670	33.8413
 2.4660	33.6893
 2.4650	33.8586
 2.4640	33.7263
 2.4630	33.7805
 2.4620	33.8062
 2.4610	33.8086
 2.4600	33.7011
 2.4590	33.8234
 2.4580	33.8891
 2.4570	33.8805
 2.4560	33.7940
 2.4550	33.9224
 2.4540	33.8535
 2.4530	33.9825
 2.4520	33.8166
 2.4510	33.9847
 2.4500	33.8825
 2.4490	33.9740
 2.4480	34.0060
 2.4470	34.0411
 2.4460	34.0100
 2.4450	34.0219
 2.4440	34.0700
 2.4430	34.1269
 2.4420	34.1090
 2.4410	34.1411
 2.4400	33.9921
 2.4390	34.1092
 2.4380	34.0474
 2.4370	34.2216
 2.4360	34.1691
 2.4350	34.1326
 2.4340	34.0310
 2.4330	34.1233
 2.4320	34.2006
 2.4310	34.2003
 2.4300	34.0609
 2.4290	34.2001
 2.4280	34.2129
 2.4270	34.2958
 2.4260	34.1836
 2.4250	34.1913
 2.4240	34.2314
 2.4230	34.2848
 2.4220	34.1621
 2.4210	34.2473
 2.4200	34.1441
 2.4190	34.2551
 2.4180	34.1594
 2.4170	34.1221
 2.4160	34.1575
 2.4150	34.1578
 2.4140	34.1595
 2.4130	34.1830
 2.4120	34.1575
 2.4110	34.1060
 2.4100	34.0568
 2.4090	34.1158
 2.4080	34.0703
 2.4070	34.0651
 2.4060	33.9849
 2.4050	34.0577
 2.4040	33.9923
 2.4030	34.0698
 2.4020	33.9554
 2.4010	33.9364
 2.4000	33.9344
 2.3990	33.8793
 2.3980	33.8855
 2.3970	33.8557
 2.3960	33.8245
 2.3950	33.8348
 2.3940	33.8422
 2.3930	33.8336
 2.3920	33.6649
 2.3910	33.6263
 2.3900	33.5688
 2.3890	33.5476
 2.3880	33.4850
 2.3870	33.4478
 2.3860	33.3447
 2.3850	33.3226
 2.3840	33.2501
 2.3830	33.1408
 2.3820	33.0533
 2.3810	33.0442
 2.3800	32.9453
 2.3790	32.8489
 2.3780	32.7779
 2.3770	32.7290
 2.3760	32.6236
 2.3750	32.5810
 2.3740	32.4494
 2.3730	32.3491
 2.3720	32.3220
 2.3710	32.3036
 2.3700	32.1924
 2.3690	32.1550
 2.3680	32.1387
 2.3670	32.1036
 2.3660	32.0332
 2.3650	32.0265
 2.3640	32.0285
 2.3630	32.0112
 2.3620	31.9990
 2.3610	31.9855
 2.3600	31.9750
 2.3590	32.0209
 2.3580	32.0607
 2.3570	32.1101
 2.3560	32.1758
 2.3550	32.1711
 2.3540	32.1920
 2.3530	32.2811
 2.3520	32.3226
 2.3510	32.2953
 2.3500	32.3656
 2.3490	32.4737
 2.3480	32.5290
 2.3470	32.5944
 2.3460	32.6894
 2.3450	32.7455
 2.3440	32.7537
 2.3430	32.7591
 2.3420	32.8919
 2.3410	32.9043
 2.3400	32.9453
 2.3390	33.0023
 2.3380	33.0110
 2.3370	33.0304
 2.3360	33.0845
 2.3350	33.0887
 2.3340	33.1315
 2.3330	33.1364
 2.3320	33.1860
 2.3310	33.2275
 2.3300	33.2608
 2.3290	33.2452
 2.3280	33.2646
 2.3270	33.2296
 2.3260	33.2551
 2.3250	33.2541
 2.3240	33.3083
 2.3230	33.3403
 2.3220	33.3367
 2.3210	33.3247
 2.3200	33.3647
 2.3190	33.3802
 2.3180	33.3760
 2.3170	33.3520
 2.3160	33.4188
 2.3150	33.3907
 2.3140	33.3938
 2.3130	33.3829
 2.3120	33.3722
 2.3110	33.3419
 2.3100	33.3863
 2.3090	33.3980
 2.3080	33.3763
 2.3070	33.3366
 2.3060	33.4144
 2.3050	33.3778
 2.3040	33.4006
 2.3030	33.3307
 2.3020	33.3550
 2.3010	33.3736
 2.3000	33.3485
 2.2990	33.3202
 2.2980	33.2920
 2.2970	33.2874
 2.2960	33.3319
 2.2950	33.3092
 2.2940	33.3042
 2.2930	33.2733
 2.2920	33.2749
 2.2910	33.3256
 2.2900	33.3205
 2.2890	33.3118
 2.2880	33.3706
 2.2870	33.3764
 2.2860	33.4749
 2.2850	33.4396
 2.2840	33.4651
 2.2830	33.4975
 2.2820	33.5312
 2.2810	33.5120
 2.2800	33.5577
 2.2790	33.5308
 2.2780	33.5600
 2.2770	33.5482
 2.2760	33.5745
 2.2750	33.5478
 2.2740	33.5647
 2.2730	33.5107
 2.2720	33.5512
 2.2710	33.5085
 2.2700	33.5281
 2.2690	33.4343
 2.2680	33.4464
 2.2670	33.3844
 2.2660	33.3715
 2.2650	33.2777
 2.2640	33.3153
 2.2630	33.1904
 2.2620	33.1274
 2.2610	33.0999
 2.2600	33.0757
 2.2590	33.0033
 2.2580	32.8524
 2.2570	32.7596
 2.2560	32.7795
 2.2550	32.6009
 2.2540	32.5176
 2.2530	32.4604
 2.2520	32.4016
 2.2510	32.3622
 2.2500	32.2645
 2.2490	32.1570
 2.2480	32.0536
 2.2470	31.9983
 2.2460	31.9320
 2.2450	31.9260
 2.2440	31.8897
 2.2430	31.8424
 2.2420	31.8683
 2.2410	31.8519
 2.2400	31.8752
 2.2390	31.8874
 2.2380	31.9877
 2.2370	31.8878
 2.2360	32.0520
 2.2350	32.0303
 2.2340	32.0826
 2.2330	32.1201
 2.2320	32.1868
 2.2310	32.2326
 2.2300	32.2915
 2.2290	32.1880
 2.2280	32.2707
 2.2270	32.1713
 2.2260	32.2309
 2.2250	32.0669
 2.2240	32.1022
 2.2230	32.0644
 2.2220	32.0472
 2.2210	31.8868
 2.2200	31.7973
 2.2190	31.7245
 2.2180	31.7774
 2.2170	31.5420
 2.2160	31.6009
 2.2150	31.3486
 2.2140	31.3412
 2.2130	31.1576
 2.2120	31.2446
 2.2110	30.9634
 2.2100	31.0619
 2.2090	30.9723
 2.2080	30.9868
 2.2070	30.8909
 2.2060	30.9317
 2.2050	31.0213
 2.2040	31.0980
 2.2030	31.0344
 2.2020	31.2223
 2.2010	31.2330
 2.2000	31.4417
 2.1990	31.4466
 2.1980	31.5235
 2.1970	31.6179
 2.1960	31.7822
 2.1950	31.7594
 2.1940	31.9099
 2.1930	31.9488
 2.1920	32.0417
 2.1910	31.9925
 2.1900	32.1566
 2.1890	32.1909
 2.1880	32.1815
 2.1870	32.2469
 2.1860	32.3075
 2.1850	32.2156
 2.1840	32.3517
 2.1830	32.2124
 2.1820	32.3912
 2.1810	32.2945
 2.1800	32.2841
 2.1790	32.2631
 2.1780	32.3531
 2.1770	32.2232
 2.1760	32.3636
 2.1750	32.2938
 2.1740	32.3240
 2.1730	32.3240
 2.1720	32.3277
 2.1710	32.2973
 2.1700	32.3535
 2.1690	32.2570
 2.1680	32.3236
 2.1670	32.3280
 2.1660	32.3362
 2.1650	32.2607
 2.1640	32.3432
 2.1630	32.3314
 2.1620	32.3544
 2.1610	32.3080
 2.1600	32.3193
 2.1590	32.2848
 2.1580	32.2705
 2.1570	32.2371
 2.1560	32.3058
 2.1550	32.2689
 2.1540	32.3084
 2.1530	32.2719
 2.1520	32.2730
 2.1510	32.2607
 2.1500	32.2883
 2.1490	32.1881
 2.1480	32.2603
 2.1470	32.1682
 2.1460	32.1747
 2.1450	32.1322
 2.1440	32.1051
 2.1430	32.1128
 2.1420	32.1178
 2.1410	32.0472
 2.1400	32.0812
 2.1390	31.9938
 2.1380	32.0482
 2.1370	31.9424
 2.1360	31.9962
 2.1350	31.9176
 2.1340	31.9603
 2.1330	31.8772
 2.1320	31.8949
 2.1310	31.7915
 2.1300	31.7663
 2.1290	31.7256
 2.1280	31.7911
 2.1270	31.6735
 2.1260	31.6837
 2.1250	31.6820
 2.1240	31.6129
 2.1230	31.6106
 2.1220	31.5771
 2.1210	31.5071
 2.1200	31.5226
 2.1190	31.3990
 2.1180	31.4375
 2.1170	31.3928
 2.1160	31.3430
 2.1150	31.2779
 2.1140	31.2701
 2.1130	31.2066
 2.1120	31.1601
 2.1110	31.1317
 2.1100	31.1269
 2.1090	31.0789
 2.1080	31.0024
 2.1070	30.9729
 2.1060	30.9925
 2.1050	30.9299
 2.1040	30.8950
 2.1030	30.8369
 2.1020	30.7985
 2.1010	30.7436
 2.1000	30.7605
 2.0990	30.7060
 2.0980	30.6621
 2.0970	30.6396
 2.0960	30.6388
 2.0950	30.6361
 2.0940	30.6158
 2.0930	30.5636
 2.0920	30.5403
 2.0910	30.5130
 2.0900	30.5186
 2.0890	30.4906
 2.0880	30.4711
 2.0870	30.4485
 2.0860	30.4391
 2.0850	30.3788
 2.0840	30.3865
 2.0830	30.3525
 2.0820	30.3433
 2.0810	30.3570
 2.0800	30.3350
 2.0790	30.2513
 2.0780	30.2378
 2.0770	30.2176
 2.0760	30.1850
 2.0750	30.2004
 2.0740	30.2092
 2.0730	30.1467
 2.0720	30.1153
 2.0710	30.1275
 2.0700	30.1347
 2.0690	30.0933
 2.0680	30.0151
 2.0670	29.9967
 2.0660	30.0181
 2.0650	29.9985
 2.0640	29.9405
 2.0630	29.9455
 2.0620	29.9177
 2.0610	29.9070
 2.0600	29.8916
 2.0590	29.8434
 2.0580	29.8031
 2.0570	29.8226
 2.0560	29.8400
 2.0550	29.8465
 2.0540	29.7725
 2.0530	29.7023
 2.0520	29.7000
 2.0510	29.6606
 2.0500	29.6214
 2.0490	29.6475
 2.0480	29.5744
 2.0470	29.5244
 2.0460	29.5079
 2.0450	29.5481
 2.0440	29.5072
 2.0430	29.4874
 2.0420	29.4569
 2.0410	29.4468
 2.0400	29.4215
 2.0390	29.3666
 2.0380	29.3265
 2.0370	29.3520
 2.0360	29.3082
 2.0350	29.3099
 2.0340	29.2612
 2.0330	29.2167
 2.0320	29.2016
 2.0310	29.2185
 2.0300	29.1857
 2.0290	29.1821
 2.0280	29.0948
 2.0270	29.1413
 2.0260	29.0692
 2.0250	29.0610
 2.0240	29.0160
 2.0230	29.0269
 2.0220	28.9903
 2.0210	28.9533
 2.0200	28.8265
 2.0190	28.8664
 2.0180	28.8537
 2.0170	28.8749
 2.0160	28.8104
 2.0150	28.7941
 2.0140	28.7527
 2.0130	28.7213
 2.0120	28.6786
 2.0110	28.6789
 2.0100	28.5783
 2.0090	28.5812
 2.0080	28.5328
 2.0070	28.5192
 2.0060	28.5368
 2.0050	28.4950
 2.0040	28.4808
 2.0030	28.4571
 2.0020	28.3761
 2.0010	28.3523
 2.0000	28.3353
 1.9990	28.3475
 1.9980	28.2557
 1.9970	28.3141
 1.9960	28.2119
 1.9950	28.2315
 1.9940	28.1318
 1.9930	28.1624
 1.9920	28.0693
 1.9910	28.1679
 1.9900	27.9474
 1.9890	28.0787
 1.9880	27.9281
 1.9870	27.9268
 1.9860	27.8532
 1.9850	27.9398
 1.9840	27.8159
 1.9830	27.8145
 1.9820	27.7801
 1.9810	27.7536
 1.9800	27.6653
 1.9790	27.6827
 1.9780	27.5944
 1.9770	27.5846
 1.9760	27.5864
 1.9750	27.6241
 1.9740	27.5114
 1.9730	27.5236
 1.9720	27.4005
 1.9710	27.4854
 1.9700	27.3570
 1.9690	27.3576
 1.9680	27.2920
 1.9670	27.3110
 1.9660	27.2549
 1.9650	27.2647
 1.9640	27.1991
 1.9630	27.1746
 1.9620	27.0990
 1.9610	27.1156
 1.9600	27.0013
 1.9590	27.0647
 1.9580	26.9618
 1.9570	27.0361
 1.9560	26.8674
 1.9550	26.9284
 1.9540	26.8921
 1.9530	26.8916
 1.9520	26.7669
 1.9510	26.8137
 1.9500	26.6925
 1.9490	26.6399
 1.9480	26.6649
 1.9470	26.7208
 1.9460	26.5484
 1.9450	26.6679
 1.9440	26.5118
 1.9430	26.4886
 1.9420	26.4640
 1.9410	26.5049
 1.9400	26.4313
 1.9390	26.4311
 1.9380	26.3029
 1.9370	26.4344
 1.9360	26.3160
 1.9350	26.2806
 1.9340	26.1776
 1.9330	26.2493
 1.9320	26.2161
 1.9310	26.1718
 1.9300	26.0635
 1.9290	26.1641
 1.9280	26.0659
 1.9270	26.1847
 1.9260	25.8678
 1.9250	26.0119
 1.9240	25.8972
 1.9230	25.9530
 1.9220	25.7943
 1.9210	25.9476
 1.9200	25.7775
 1.9190	25.8230
 1.9180	25.7230
 1.9170	25.7858
 1.9160	25.6566
 1.9150	25.7175
 1.9140	25.6207
 1.9130	25.6549
 1.9120	25.5500
 1.9110	25.6021
 1.9100	25.5451
 1.9090	25.4662
 1.9080	25.4838
 1.9070	25.4220
 1.9060	25.4052
 1.9050	25.3967
 1.9040	25.3581
 1.9030	25.3237
 1.9020	25.2321
 1.9010	25.3268
 1.9000	25.1680
 1.8990	25.1859
 1.8980	25.0773
 1.8970	25.1466
 1.8960	25.0141
 1.8950	25.0725
 1.8940	25.0392
 1.8930	25.0989
 1.8920	24.9729
 1.8910	24.8971
 1.8900	24.8628
 1.8890	24.8826
 1.8880	24.8739
 1.8870	24.8893
 1.8860	24.8294
 1.8850	24.8025
 1.8840	24.6540
 1.8830	24.6939
 1.8820	24.6305
 1.8810	24.6812
 1.8800	24.5762
 1.8790	24.6138
 1.8780	24.5098
 1.8770	24.4859
 1.8760	24.4172
 1.8750	24.3811
 1.8740	24.3009
 1.8730	24.3539
 1.8720	24.2769
 1.8710	24.2972
 1.8700	24.1742
 1.8690	24.1847
 1.8680	24.1220
 1.8670	24.1579
 1.8660	24.0690
 1.8650	24.0871
 1.8640	24.0275
 1.8630	24.0261
 1.8620	23.9510
 1.8610	23.9227
 1.8600	23.8348
 1.8590	23.8760
 1.8580	23.7843
 1.8570	23.7504
 1.8560	23.7132
 1.8550	23.7400
 1.8540	23.6464
 1.8530	23.6905
 1.8520	23.5609
 1.8510	23.6251
 1.8500	23.5093
 1.8490	23.4969
 1.8480	23.4550
 1.8470	23.4999
 1.8460	23.3571
 1.8450	23.3553
 1.8440	23.3202
 1.8430	23.3037
 1.8420	23.2409
 1.8410	23.2598
 1.8400	23.1682
 1.8390	23.1545
 1.8380	23.0434
 1.8370	23.0336
 1.8360	23.0106
 1.8350	23.0091
 1.8340	22.9171
 1.8330	22.9000
 1.8320	22.8815
 1.8310	22.8729
 1.8300	22.7543
 1.8290	22.7672
 1.8280	22.6644
 1.8270	22.6725
 1.8260	22.6781
 1.8250	22.6297
 1.8240	22.6045
 1.8230	22.5650
 1.8220	22.4767
 1.8210	22.4810
 1.8200	22.4398
 1.8190	22.3885
 1.8180	22.2758
 1.8170	22.3098
 1.8160	22.2542
 1.8150	22.2086
 1.8140	22.1741
 1.8130	22.1212
 1.8120	22.0927
 1.8110	22.0914
 1.8100	22.0305
 1.8090	22.0001
 1.8080	21.9976
 1.8070	21.9583
 1.8060	21.8980
 1.8050	21.8575
 1.8040	21.8000
 1.8030	21.7755
 1.8020	21.7181
 1.8010	21.7588
 1.8000	21.6938
 1.7990	21.6143
 1.7980	21.5758
 1.7970	21.5692
 1.7960	21.5624
 1.7950	21.5068
 1.7940	21.4734
 1.7930	21.4389
 1.7920	21.3921
 1.7910	21.3728
 1.7900	21.3098
 1.7890	21.2455
 1.7880	21.2347
 1.7870	21.2207
 1.7860	21.1443
 1.7850	21.1095
 1.7840	21.0810
 1.7830	21.0689
 1.7820	21.0164
 1.7810	20.9223
 1.7800	20.8247
 1.7790	20.7872
 1.7780	20.7716
 1.7770	20.7516
 1.7760	20.7229
 1.7750	20.7083
 1.7740	20.6803
 1.7730	20.5396
 1.7720	20.5504
 1.7710	20.5429
 1.7700	20.5285
 1.7690	20.4590
 1.7680	20.3849
 1.7670	20.3538
 1.7660	20.3781
 1.7650	20.3052
 1.7640	20.2598
 1.7630	20.2246
 1.7620	20.2032
 1.7610	20.1848
 1.7600	20.1157
 1.7590	20.0671
 1.7580	20.0607
 1.7570	19.9981
 1.7560	19.9656
 1.7550	19.9105
 1.7540	19.8791
 1.7530	19.8338
 1.7520	19.8362
 1.7510	19.7265
 1.7500	19.7150
 1.7490	19.6900
 1.7480	19.7140
 1.7470	19.6521
 1.7460	19.5507
 1.7450	19.5055
 1.7440	19.4726
 1.7430	19.4380
 1.7420	19.4812
 1.7410	19.4112
 1.7400	19.3210
 1.7390	19.2352
 1.7380	19.2757
 1.7370	19.1916
 1.7360	19.1767
 1.7350	19.1076
 1.7340	19.1418
 1.7330	19.0546
 1.7320	19.0504
 1.7310	18.9271
 1.7300	18.9493
 1.7290	18.8938
 1.7280	18.8781
 1.7270	18.8322
 1.7260	18.7536
 1.7250	18.7391
 1.7240	18.7480
 1.7230	18.6154
 1.7220	18.6652
 1.7210	18.5661
 1.7200	18.5810
 1.7190	18.5602
 1.7180	18.5357
 1.7170	18.4398
 1.7160	18.4358
 1.7150	18.3309
 1.7140	18.4314
 1.7130	18.2735
 1.7120	18.3100
 1.7110	18.2483
 1.7100	18.2133
 1.7090	18.1298
 1.7080	18.0856
 1.7070	18.0653
 1.7060	17.9850
 1.7050	17.9577
 1.7040	17.9572
 1.7030	17.8358
 1.7020	17.8508
 1.7010	17.7746
 1.7000	17.8023
 1.6990	17.6727
 1.6980	18.1287
 1.6970	17.7023
 1.6960	17.6114
 1.6950	17.5402
 1.6940	17.5639
 1.6930	17.4001
 1.6920	17.4803
 1.6910	17.3664
 1.6900	17.4272
 1.6890	17.3194
 1.6880	17.3374
 1.6870	17.2452
 1.6860	17.2898
 1.6850	17.1225
 1.6840	17.2424
 1.6830	17.0464
 1.6820	17.0621
 1.6810	17.0422
 1.6800	17.0281
 1.6790	16.9262
 1.6780	17.0031
 1.6770	16.8400
 1.6760	16.8938
 1.6750	16.7303
 1.6740	16.8671
 1.6730	16.6523
 1.6720	16.7414
 1.6710	16.5711
 1.6700	16.6231
 1.6690	16.6373
 1.6680	16.4282
 1.6670	16.5172
 1.6660	16.5345
 1.6650	16.3786
 1.6640	16.3437
 1.6630	16.2633
 1.6620	16.3261
 1.6610	16.2139
 1.6600	16.2373
 1.6590	16.1500
 1.6580	16.1583
 1.6570	16.0364
 1.6560	16.1303
 1.6550	15.9529
 1.6540	16.0207
 1.6530	15.9432
 1.6520	16.0120
 1.6510	15.7741
 1.6500	15.9262
 1.6490	15.7674
 1.6480	15.7800
 1.6470	15.7546
 1.6460	15.7204
 1.6450	15.5934
 1.6440	15.6453
 1.6430	15.5828
 1.6420	15.6247
 1.6410	15.2957
 1.6400	15.5718
 1.6390	15.4174
 1.6380	15.4495
 1.6370	15.3338
 1.6360	15.3275
 1.6350	15.2519
 1.6340	15.2971
 1.6330	15.1529
 1.6320	15.1935
 1.6310	15.1110
 1.6300	15.1127
 1.6290	15.0100
 1.6280	15.0183
 1.6270	14.9869
 1.6260	14.9889
 1.6250	14.8777
 1.6240	14.9426
 1.6230	14.7740
 1.6220	14.8241
 1.6210	14.7120
 1.6200	14.7388
 1.6190	14.6252
 1.6180	14.6756
 1.6170	14.5930
 1.6160	14.6248
 1.6150	14.5294
 1.6140	14.5297
 1.6130	14.4146
 1.6120	14.4738
 1.6110	14.3441
 1.6100	14.3916
 1.6090	14.2884
 1.6080	14.2986
 1.6070	14.2316
 1.6060	14.2554
 1.6050	14.2161
 1.6040	14.2058
 1.6030	14.0326
 1.6020	14.1340
 1.6010	13.9992
 1.6000	14.0500
 1.5990	13.9360
 1.5980	13.9866
 1.5970	13.8616
 1.5960	13.8904
 1.5950	13.8165
 1.5940	13.7951
 1.5930	13.7424
 1.5920	13.7764
 1.5910	13.6209
 1.5900	13.7232
 1.5890	13.6035
 1.5880	13.6407
 1.5870	13.5071
 1.5860	13.4857
 1.5850	13.4152
 1.5840	13.4534
 1.5830	13.3336
 1.5820	13.3496
 1.5810	13.2593
 1.5800	13.2828
 1.5790	13.2171
 1.5780	13.3326
 1.5770	13.2321
 1.5760	13.2343
 1.5750	13.1541
 1.5740	13.0934
 1.5730	12.9891
 1.5720	12.9936
 1.5710	12.9118
 1.5700	13.0126
 1.5690	12.9384
 1.5680	12.8396
 1.5670	12.8179
 1.5660	12.8279
 1.5650	12.7172
 1.5640	12.7796
 1.5630	12.6803
 1.5620	12.6980
 1.5610	12.6072
 1.5600	12.6136
 1.5590	12.5451
 1.5580	12.5402
 1.5570	12.4867
 1.5560	12.5152
 1.5550	12.4006
 1.5540	12.4550
 1.5530	12.4012
 1.5520	12.3784
 1.5510	12.3062
 1.5500	12.2885
 1.5490	12.2443
 1.5480	12.2192
 1.5470	12.1540
 1.5460	12.1623
 1.5450	12.0996
 1.5440	12.1224
 1.5430	12.0653
 1.5420	12.0412
 1.5410	11.9631
 1.5400	11.9686
 1.5390	11.9163
 1.5380	11.8853
 1.5370	11.8106
 1.5360	11.8481
 1.5350	11.8105
 1.5340	11.7525
 1.5330	11.6993
 1.5320	11.6961
 1.5310	11.6172
 1.5300	11.5877
 1.5290	11.5534
 1.5280	11.5799
 1.5270	11.4803
 1.5260	11.4617
 1.5250	11.3779
 1.5240	11.4211
 1.5230	11.4349
 1.5220	11.3685
 1.5210	11.3061
 1.5200	11.2881
 1.5190	11.2607
 1.5180	11.2295
 1.5170	11.1511
 1.5160	11.1219
 1.5150	11.1000
 1.5140	11.1148
 1.5130	11.0586
 1.5120	11.0031
 1.5110	10.9939
 1.5100	11.0312
 1.5090	10.9878
 1.5080	10.9599
 1.5070	10.9217
 1.5060	10.8799
 1.5050	10.8144
 1.5040	10.7858
 1.5030	10.8146
 1.5020	10.7601
 1.5010	10.7044
 1.5000	10.6704
 1.4990	10.6225
 1.4980	10.6331
 1.4970	10.5953
 1.4960	10.4749
 1.4950	10.4850
 1.4940	10.4826
 1.4930	10.4142
 1.4920	10.3953
 1.4910	10.3638
 1.4900	10.3461
 1.4890	10.3151
 1.4880	10.2378
 1.4870	10.2320
 1.4860	10.2050
 1.4850	10.2098
 1.4840	10.1778
 1.4830	10.1625
 1.4820	10.0884
 1.4810	10.0718
 1.4800	10.0469
 1.4790	10.0144
 1.4780	 9.9546
 1.4770	 9.8936
 1.4760	 9.8946
 1.4750	 9.9593
 1.4740	 9.9051
 1.4730	 9.8913
 1.4720	 9.8145
 1.4710	 9.7534
 1.4700	 9.7205
 1.4690	 9.7931
 1.4680	 9.7452
 1.4670	 9.6510
 1.4660	 9.6303
 1.4650	 9.6111
 1.4640	 9.5531
 1.4630	 9.5516
 1.4620	 9.4724
 1.4610	 9.5280
 1.4600	 9.4226
 1.4590	 9.4184
 1.4580	 9.3318
 1.4570	 9.3329
 1.4560	 9.3332
 1.4550	 9.3105
 1.4540	 9.2570
 1.4530	 9.2351
 1.4520	 9.2215
 1.4510	 9.2274
 1.4500	 9.1416
 1.4490	 9.1295
 1.4480	 9.0660
 1.4470	 9.1082
 1.4460	 9.0187
 1.4450	 8.9853
 1.4440	 8.9256
 1.4430	 8.9764
 1.4420	 8.8739
 1.4410	 8.8261
 1.4400	 8.7920
 1.4390	 8.8835
 1.4380	 8.7957
 1.4370	 8.7788
 1.4360	 8.6179
 1.4350	 8.6658
 1.4340	 8.6133
 1.4330	 8.6130
 1.4320	 8.5658
 1.4310	 8.6278
 1.4300	 8.5908
 1.4290	 8.5979
 1.4280	 8.4695
 1.4270	 8.6383
 1.4260	 8.4904
 1.4250	 8.5603
 1.4240	 8.5087
 1.4230	 8.5186
 1.4220	 8.3762
 1.4210	 8.4559
 1.4200	 8.4056
 1.4190	 8.4111
 1.4180	 8.2809
 1.4170	 8.3284
 1.4160	 8.2972
 1.4150	 8.3617
 1.4140	 8.2288
 1.4130	 8.2173
 1.4120	 8.1979
 1.4110	 8.2513
 1.4100	 8.1579
 1.4090	 8.1647
 1.4080	 8.0874
 1.4070	 8.0408
 1.4060	 8.0605
 1.4050	 8.0094
 1.4040	 7.8913
 1.4030	 8.0441
 1.4020	 8.0041
 1.4010	 8.0292
 1.4000	 7.9276
 1.3990	 7.9087
 1.3980	 7.8524
 1.3970	 7.9009
 1.3960	 7.8438
 1.3950	 7.7901
 1.3940	 7.7333
 1.3930	 7.8145
 1.3920	 7.6713
 1.3910	 7.8710
 1.3900	 7.7029
 1.3890	 7.7485
 1.3880	 7.5928
 1.3870	 7.6829
 1.3860	 7.6189
 1.3850	 7.5948
 1.3840	 7.6213
 1.3830	 7.5166
 1.3820	 7.4466
 1.3810	 7.4607
 1.3800	 7.4051
 1.3790	 7.4630
 1.3780	 7.4144
 1.3770	 7.4589
 1.3760	 7.3438
 1.3750	 7.3855
 1.3740	 7.3245
 1.3730	 7.3528
 1.3720	 7.1914
 1.3710	 7.3128
 1.3700	 7.1386
 1.3690	 7.3002
 1.3680	 7.1216
 1.3670	 7.2247
 1.3660	 7.1234
 1.3650	 7.2251
 1.3640	 7.0530
 1.3630	 7.2274
 1.3620	 7.0500
 1.3610	 7.1111
 1.3600	 7.0465
 1.3590	 7.0787
 1.3580	 6.9340
 1.3570	 7.0335
 1.3560	 7.0622
 1.3550	 6.8053
 1.3540	 6.8744
 1.3530	 6.9278
 1.3520	 6.8791
 1.3510	 6.9217
 1.3500	 6.8483
 1.3490	 6.8304
 1.3480	 6.7765
 1.3470	 6.7891
 1.3460	 6.7200
 1.3450	 6.8077
 1.3440	 6.6684
 1.3430	 6.7113
 1.3420	 6.5914
 1.3410	 6.7072
 1.3400	 6.5346
 1.3390	 6.6756
 1.3380	 6.5636
 1.3370	 6.6569
 1.3360	 6.5217
 1.3350	 6.6334
 1.3340	 6.5166
 1.3330	 6.7140
 1.3320	 6.3847
 1.3310	 6.5383
 1.3300	 6.4268
 1.3290	 6.4668
 1.3280	 6.4094
 1.3270	 6.4864
 1.3260	 6.2712
 1.3250	 6.4989
 1.3240	 6.2884
 1.3230	 6.3810
 1.3220	 6.3337
 1.3210	 6.4418
 1.3200	 6.2348
 1.3190	 6.3137
 1.3180	 6.2313
 1.3170	 6.2301
 1.3160	 6.2026
 1.3150	 6.2755
 1.3140	 6.1376
 1.3130	 6.2432
 1.3120	 6.1217
 1.3110	 6.1241
 1.3100	 6.1508
 1.3090	 6.1478
 1.3080	 6.0641
 1.3070	 6.1067
 1.3060	 6.0188
 1.3050	 6.1070
 1.3040	 6.0131
 1.3030	 6.0253
 1.3020	 5.9574
 1.3010	 6.0793
 1.3000	 5.9396
 1.2990	 5.9922
 1.2980	 5.8568
 1.2970	 5.9474
 1.2960	 5.8633
 1.2950	 5.9006
 1.2940	 5.8415
 1.2930	 5.8936
 1.2920	 5.7698
 1.2910	 5.8674
 1.2900	 5.7590
 1.2890	 5.8020
 1.2880	 5.7239
 1.2870	 5.8693
 1.2860	 5.7101
 1.2850	 5.7699
 1.2840	 5.7418
 1.2830	 5.7293
 1.2820	 5.7427
 1.2810	 5.7138
 1.2800	 5.6706
 1.2790	 5.6659
 1.2780	 5.6779
 1.2770	 5.7188
 1.2760	 5.6308
 1.2750	 5.6327
 1.2740	 5.5515
 1.2730	 5.5982
 1.2720	 5.6029
 1.2710	 5.5952
 1.2700	 5.5649
 1.2690	 5.5590
 1.2680	 5.4845
 1.2670	 5.5551
 1.2660	 5.4605
 1.2650	 5.5030
 1.2640	 5.4678
 1.2630	 5.5029
 1.2620	 5.4371
 1.2610	 5.4618
 1.2600	 5.4259
 1.2590	 5.4529
 1.2580	 5.3820
 1.2570	 5.3869
 1.2560	 5.3536
 1.2550	 5.3613
 1.2540	 5.3427
 1.2530	 5.4191
 1.2520	 5.3425
 1.2510	 5.3551
 1.2500	 5.3140
 1.2490	 5.3500
 1.2480	 5.3230
 1.2470	 5.2647
 1.2460	 5.2453
 1.2450	 5.2659
 1.2440	 5.2590
 1.2430	 5.2654
 1.2420	 5.1906
 1.2410	 5.2136
 1.2400	 5.2221
 1.2390	 5.1798
 1.2380	 5.1361
 1.2370	 5.1831
 1.2360	 5.2305
 1.2350	 5.1383
 1.2340	 5.1002
 1.2330	 5.1530
 1.2320	 5.1006
 1.2310	 5.1013
 1.2300	 5.1040
 1.2290	 5.1091
 1.2280	 5.0884
 1.2270	 5.0909
 1.2260	 5.0487
 1.2250	 5.0734
 1.2240	 5.0123
 1.2230	 4.9878
 1.2220	 5.0669
 1.2210	 5.0970
 1.2200	 5.0286
 1.2190	 5.0311
 1.2180	 5.0122
 1.2170	 4.9904
 1.2160	 4.9962
 1.2150	 4.9727
 1.2140	 4.9932
 1.2130	 4.9913
 1.2120	 4.9611
 1.2110	 4.9388
 1.2100	 4.9547
 1.2090	 4.9532
 1.2080	 4.8714
 1.2070	 4.8405
 1.2060	 4.9279
 1.2050	 4.9704
 1.2040	 4.9617
 1.2030	 4.8922
 1.2020	 4.8660
 1.2010	 4.8651
 1.2000	 4.8883
 1.1990	 4.8367
 1.1980	 4.8678
 1.1970	 4.8864
 1.1960	 4.8581
 1.1950	 4.8446
 1.1940	 4.8448
 1.1930	 4.8176
 1.1920	 4.8999
 1.1910	 4.8337
 1.1900	 4.8155
 1.1890	 4.8779
 1.1880	 4.7292
 1.1870	 4.7296
 1.1860	 4.8466
 1.1850	 4.8055
 1.1840	 4.8015
 1.1830	 4.7758
 1.1820	 4.7880
 1.1810	 4.8340
 1.1800	 4.7994
 1.1790	 4.7974
 1.1780	 4.8206
 1.1770	 4.7448
 1.1760	 4.7574
 1.1750	 4.6959
 1.1740	 4.7851
 1.1730	 4.7084
 1.1720	 4.7734
 1.1710	 4.7088
 1.1700	 4.7126
 1.1690	 4.7144
 1.1680	 4.7007
 1.1670	 4.6975
 1.1660	 4.7531
 1.1650	 4.6846
 1.1640	 4.7485
 1.1630	 4.7056
 1.1620	 4.7379
 1.1610	 4.6627
 1.1600	 4.7656
 1.1590	 4.6781
 1.1580	 4.7682
 1.1570	 4.7002
 1.1560	 4.7032
 1.1550	 4.6594
 1.1540	 4.7872
 1.1530	 4.7076
 1.1520	 4.7444
 1.1510	 4.6277
 1.1500	 4.6978
 1.1490	 4.7263
 1.1480	 4.7425
 1.1470	 4.6912
 1.1460	 4.6812
 1.1450	 4.6351
 1.1440	 4.7611
 1.1430	 4.6674
 1.1420	 4.7217
 1.1410	 4.6413
 1.1400	 4.7145
 1.1390	 4.6678
 1.1380	 4.7204
 1.1370	 4.6299
 1.1360	 4.6879
 1.1350	 4.5835
 1.1340	 4.6812
 1.1330	 4.6394
 1.1320	 4.7519
 1.1310	 4.6716
 1.1300	 4.7239
 1.1290	 4.6640
 1.1280	 4.6294
 1.1270	 4.6437
 1.1260	 4.6275
 1.1250	 4.6328
 1.1240	 4.7836
 1.1230	 4.6195
 1.1220	 4.7059
 1.1210	 4.6395
 1.1200	 4.7961
 1.1190	 4.7169
 1.1180	 4.8170
 1.1170	 4.7033
 1.1160	 4.7802
 1.1150	 4.7028
 1.1140	 4.7376
 1.1130	 4.7508
 1.1120	 4.7753
 1.1110	 4.6878
 1.1100	 4.8292
 1.1090	 4.7189
 1.1080	 4.7597
 1.1070	 4.7193
 1.1060	 4.7359
 1.1050	 4.7760
 1.1040	 4.8369
 1.1030	 4.7536
 1.1020	 4.8338
 1.1010	 4.6312
 1.1000	 4.7778
 1.0990	 4.7418
 1.0980	 4.7422
 1.0970	 4.7095
 1.0960	 4.7933
 1.0950	 4.7323
 1.0940	 4.8231
 1.0930	 4.7719
 1.0920	 4.9091
 1.0910	 4.7694
 1.0900	 4.8899
 1.0890	 4.8914
 1.0880	 4.8109
 1.0870	 4.8439
 1.0860	 4.8692
 1.0850	 4.7927
 1.0840	 4.9338
 1.0830	 4.8991
 1.0820	 4.9515
 1.0810	 4.8658
 1.0800	 4.9093
 1.0790	 4.7988
 1.0780	 4.9852
 1.0770	 4.8890
 1.0760	 4.9989
 1.0750	 4.7746
 1.0740	 5.0653
 1.0730	 4.8327
 1.0720	 4.9987
 1.0710	 4.9711
 1.0700	 4.8840
 1.0690	 4.9414
 1.0680	 4.9821
 1.0670	 4.8497
 1.0660	 5.0303
 1.0650	 4.9938
 1.0640	 5.1360
 1.0630	 4.9511
 1.0620	 5.0435
 1.0610	 4.9763
 1.0600	 5.1822
 1.0590	 5.0884
 1.0580	 5.1145
 1.0570	 4.9656
 1.0560	 5.1390
 1.0550	 5.0780
 1.0540	 5.1286
 1.0530	 5.1237
 1.0520	 5.2254
 1.0510	 5.0304
 1.0500	 5.2071
 1.0490	 5.0989
 1.0480	 5.2616
 1.0470	 5.1676
 1.0460	 5.2069
 1.0450	 5.1465
 1.0440	 5.3108
 1.0430	 5.2363
 1.0420	 5.3454
 1.0410	 5.2519
 1.0400	 5.2710
 1.0390	 5.2849
 1.0380	 5.3324
 1.0370	 5.3118
 1.0360	 5.4011
 1.0350	 5.2817
 1.0340	 5.3790
 1.0330	 5.3659
 1.0320	 5.3992
 1.0310	 5.2936
 1.0300	 5.4856
 1.0290	 5.3476
 1.0280	 5.4679
 1.0270	 5.4463
 1.0260	 5.5092
 1.0250	 5.4306
 1.0240	 5.4131
 1.0230	 5.3953
 1.0220	 5.5309
 1.0210	 5.5141
 1.0200	 5.5620
 1.0190	 5.5261
 1.0180	 5.6077
 1.0170	 5.5284
 1.0160	 5.6528
 1.0150	 5.4727
 1.0140	 5.6279
 1.0130	 5.6068
 1.0120	 5.6625
 1.0110	 5.5931
 1.0100	 5.7321
 1.0090	 5.5950
 1.0080	 5.6551
 1.0070	 5.7571
 1.0060	 5.8505
 1.0050	 5.7236
 1.0040	 5.8160
 1.0030	 5.7772
 1.0020	 5.8854
 1.0010	 5.8834
 1.0000	 5.8549
 0.9990	 5.7720
 0.9980	 5.9146
 0.9970	 5.8478
 0.9960	 5.9762
 0.9950	 5.9034
 0.9940	 6.0074
 0.9930	 5.9527
 0.9920	 6.0153
 0.9910	 5.9375
 0.9900	 6.0756
 0.9890	 6.0037
 0.9880	 6.0586
 0.9870	 6.0010
 0.9860	 6.0678
 0.9850	 6.1401
 0.9840	 6.1963
 0.9830	 6.1525
 0.9820	 6.1127
 0.9810	 6.1148
 0.9800	 6.2257
 0.9790	 6.2427
 0.9780	 6.2527
 0.9770	 6.2276
 0.9760	 6.3042
 0.9750	 6.2517
 0.9740	 6.3143
 0.9730	 6.3197
 0.9720	 6.3252
 0.9710	 6.3574
 0.9700	 6.3973
 0.9690	 6.4330
 0.9680	 6.4149
 0.9670	 6.3794
 0.9660	 6.4784
 0.9650	 6.4676
 0.9640	 6.5238
 0.9630	 6.5116
 0.9620	 6.5390
 0.9610	 6.5570
 0.9600	 6.5549
 0.9590	 6.5246
 0.9580	 6.6082
 0.9570	 6.6485
 0.9560	 6.6510
 0.9550	 6.6468
 0.9540	 6.7290
 0.9530	 6.7214
 0.9520	 6.6920
 0.9510	 6.6805
 0.9500	 6.7431
 0.9490	 6.7686
 0.9480	 6.8033
 0.9470	 6.7329
 0.9460	 6.7849
 0.9450	 6.8396
 0.9440	 6.8704
 0.9430	 6.8178
 0.9420	 6.8788
 0.9410	 6.9075
 0.9400	 6.8931
 0.9390	 6.8808
 0.9380	 6.9041
 0.9370	 6.9088
 0.9360	 6.9407
 0.9350	 6.9845
 0.9340	 7.0254
 0.9330	 6.9980
 0.9320	 7.0229
 0.9310	 6.9879
 0.9300	 6.9971
 0.9290	 7.0413
 0.9280	 7.0107
 0.9270	 7.0361
 0.9260	 7.1047
 0.9250	 7.0680
 0.9240	 7.0601
 0.9230	 7.1095
 0.9220	 7.0917
 0.9210	 7.1044
 0.9200	 7.1205
 0.9190	 7.1807
 0.9180	 7.1305
 0.9170	 7.1351
 0.9160	 7.1445
 0.9150	 7.1318
 0.9140	 7.1570
 0.9130	 7.1791
 0.9120	 7.1115
 0.9110	 7.1701
 0.9100	 7.1696
 0.9090	 7.1769
 0.9080	 7.1151
 0.9070	 7.1079
 0.9060	 7.1395
 0.9050	 7.2232
 0.9040	 7.1768
 0.9030	 7.1411
 0.9020	 7.1293
 0.9010	 7.1891
 0.9000	 7.1396
 0.8990	 7.1918
 0.8980	 7.1505
 0.8970	 7.1662
 0.8960	 7.0947
 0.8950	 7.1614
 0.8940	 7.1570
 0.8930	 7.1207
 0.8920	 7.0018
 0.8910	 7.1038
 0.8900	 7.0248
 0.8890	 7.0972
 0.8880	 7.0657
 0.8870	 7.0777
 0.8860	 6.9809
 0.8850	 7.0139
 0.8840	 6.9709
 0.8830	 7.0583
 0.8820	 6.9934
 0.8810	 7.0285
 0.8800	 7.0051
 0.8790	 7.0229
 0.8780	 6.9105
 0.8770	 6.9096
 0.8760	 6.9106
 0.8750	 6.9536
 0.8740	 6.8522
 0.8730	 6.8430
 0.8720	 6.8176
 0.8710	 6.8850
 0.8700	 6.6915
 0.8690	 6.7636
 0.8680	 6.7621
 0.8670	 6.8107
 0.8660	 6.7469
 0.8650	 6.6900
 0.8640	 6.6475
 0.8630	 6.6542
 0.8620	 6.5954
 0.8610	 6.5838
 0.8600	 6.7641
 0.8590	 6.8140
 0.8580	 6.8152
 0.8570	 6.7815
 0.8560	 6.7614
 0.8550	 6.7187
 0.8540	 6.7024
 0.8530	 6.6561
 0.8520	 6.6389
 0.8510	 6.6284
 0.8500	 6.5999
 0.8490	 6.5630
 0.8480	 6.5340
 0.8470	 6.4896
 0.8460	 6.4665
 0.8450	 6.4466
 0.8440	 6.4097
 0.8430	 6.3783
 0.8420	 6.3546
 0.8410	 6.3261
 0.8400	 6.2954
 0.8390	 6.2569
 0.8380	 6.2324
 0.8370	 6.2075
 0.8360	 6.1693
 0.8350	 6.1409
 0.8340	 6.1188
 0.8330	 6.0836
 0.8320	 6.0536
 0.8310	 6.0243
 0.8300	 5.9956
 0.8290	 5.9624
 0.8280	 5.9284
 0.8270	 5.9079
 0.8260	 5.8840
 0.8250	 5.8481
 0.8240	 5.8143
 0.8230	 5.7855
 0.8220	 5.7607
 0.8210	 5.7361
 0.8200	 5.7123
 0.8190	 5.6783
 0.8180	 5.6545
 0.8170	 5.6279
 0.8160	 5.5952
 0.8150	 5.5764
 0.8140	 5.5501
 0.8130	 5.5232
 0.8120	 5.4913
 0.8110	 5.4728
 0.8100	 5.4471
 0.8090	 5.4190
 0.8080	 5.3987
 0.8070	 5.3787
 0.8060	 5.3549
 0.8050	 5.3260
 0.8040	 5.3042
 0.8030	 5.2865
 0.8020	 5.2620
 0.8010	 5.2382
 0.8000	 5.2193
 0.7990	 5.2019
 0.7980	 5.1736
 0.7970	 5.1553
 0.7960	 5.1341
 0.7950	 5.1127
 0.7940	 5.0948
 0.7930	 5.0767
 0.7920	 5.0627
 0.7910	 5.0345
 0.7900	 5.0178
 0.7890	 4.9980
 0.7880	 4.9842
 0.7870	 4.9728
 0.7860	 4.9474
 0.7850	 4.9400
 0.7840	 4.9194
 0.7830	 4.9069
 0.7820	 4.8914
 0.7810	 4.8763
 0.7800	 4.8632
 0.7790	 4.8524
 0.7780	 4.8318
 0.7770	 4.8167
 0.7760	 4.8076
 0.7750	 4.7993
 0.7740	 4.7830
 0.7730	 4.7678
 0.7720	 4.7586
 0.7710	 4.7544
 0.7700	 4.7437
 0.7690	 4.7321
 0.7680	 4.7191
 0.7670	 4.7101
 0.7660	 4.7010
 0.7650	 4.6899
 0.7640	 4.6881
 0.7630	 4.6754
 0.7620	 4.6715
 0.7610	 4.6618
 0.7600	 4.6577
 0.7590	 4.6530
 0.7580	 4.6464
 0.7570	 4.6358
 0.7560	 4.6323
 0.7550	 4.6252
 0.7540	 4.6180
 0.7530	 4.6124
 0.7520	 4.6097
 0.7510	 4.6032
 0.7500	 4.5949
 0.7490	 4.5904
 0.7480	 4.5823
 0.7470	 4.5792
 0.7460	 4.5768
 0.7450	 4.5718
 0.7440	 4.5635
 0.7430	 4.5601
 0.7420	 4.5552
 0.7410	 4.5535
 0.7400	 4.5504
 0.7390	 4.5473
 0.7380	 4.5414
 0.7370	 4.5389
 0.7360	 4.5358
 0.7350	 4.5333
 0.7340	 4.5266
 0.7330	 4.5231
 0.7320	 4.5235
 0.7310	 4.5191
 0.7300	 4.5188
 0.7290	 4.5143
 0.7280	 4.5127
 0.7270	 4.5089
 0.7260	 4.5031
 0.7250	 4.5041
 0.7240	 4.5056
 0.7230	 4.4992
 0.7220	 4.4990
 0.7210	 4.4964
 0.7200	 4.4959
 0.7190	 4.4917
 0.7180	 4.4892
 0.7170	 4.4883
 0.7160	 4.4870
 0.7150	 4.4840
 0.7140	 4.4835
 0.7130	 4.4792
 0.7120	 4.4781
 0.7110	 4.4765
 0.7100	 4.4746
 0.7090	 4.4741
 0.7080	 4.4729
 0.7070	 4.4677
 0.7060	 4.4695
 0.7050	 4.4713
 0.7040	 4.4737
 0.7030	 4.4714
 0.7020	 4.4736
 0.7010	 4.4731
 0.7000	 4.4766
 0.6990	 4.4771
 0.6980	 4.4786
 0.6970	 4.4806
 0.6960	 4.4809
 0.6950	 4.4828
 0.6940	 4.4888
 0.6930	 4.4913
 0.6920	 4.4928
 0.6910	 4.4956
 0.6900	 4.5007
 0.6890	 4.5053
 0.6880	 4.5120
 0.6870	 4.5174
 0.6860	 4.5219
 0.6850	 4.5282
 0.6840	 4.5344
 0.6830	 4.5386
 0.6820	 4.5450
 0.6810	 4.5522
 0.6800	 4.5594
 0.6790	 4.5636
 0.6780	 4.5734
 0.6770	 4.5828
 0.6760	 4.5905
 0.6750	 4.6001
 0.6740	 4.6082
 0.6730	 4.6159
 0.6720	 4.6249
 0.6710	 4.6362
 0.6700	 4.6465
 0.6690	 4.6588
 0.6680	 4.6699
 0.6670	 4.6808
 0.6660	 4.6934
 0.6650	 4.7056
 0.6640	 4.7196
 0.6630	 4.7334
 0.6620	 4.7466
 0.6610	 4.7603
 0.6600	 4.7745
 0.6590	 4.7882
 0.6580	 4.8015
 0.6570	 4.8185
 0.6560	 4.8342
 0.6550	 4.8497
 0.6540	 4.8662
 0.6530	 4.8838
 0.6520	 4.9021
 0.6510	 4.9188
 0.6500	 4.9343
 0.6490	 4.9521
 0.6480	 4.9721
 0.6470	 4.9926
 0.6460	 5.0112
 0.6450	 5.0291
 0.6440	 5.0472
 0.6430	 5.0666
 0.6420	 5.0869
 0.6410	 5.1062
 0.6400	 5.1268
 0.6390	 5.1474
 0.6380	 5.1685
 0.6370	 5.1898
 0.6360	 5.2088
 0.6350	 5.2284
 0.6340	 5.2494
 0.6330	 5.2704
 0.6320	 5.2926
 0.6310	 5.3150
 0.6300	 5.3354
 0.6290	 5.3542
 0.6280	 5.3762
 0.6270	 5.3972
 0.6260	 5.4175
 0.6250	 5.4364
 0.6240	 5.4546
 0.6230	 5.4777
 0.6220	 5.5000
 0.6210	 5.5190
 0.6200	 5.5397
 0.6190	 5.5601
 0.6180	 5.5780
 0.6170	 5.5971
 0.6160	 5.6159
 0.6150	 5.6348
 0.6140	 5.6529
 0.6130	 5.6718
 0.6120	 5.6883
 0.6110	 5.7047
 0.6100	 5.7188
 0.6090	 5.7345
 0.6080	 5.7505
 0.6070	 5.7656
 0.6060	 5.7805
 0.6050	 5.7950
 0.6040	 5.8090
 0.6030	 5.8214
 0.6020	 5.8322
 0.6010	 5.8443
 0.6000	 5.8571
 0.5990	 5.8680
 0.5980	 5.8779
 0.5970	 5.8894
 0.5960	 5.8995
 0.5950	 5.9084
 0.5940	 5.9171
 0.5930	 5.9243
 0.5920	 5.9299
 0.5910	 5.9363
 0.5900	 5.9430
 0.5890	 5.9475
 0.5880	 5.9528
 0.5870	 5.9577
 0.5860	 5.9591
 0.5850	 5.9618
 0.5840	 5.9648
 0.5830	 5.9666
 0.5820	 5.9680
 0.5810	 5.9683
 0.5800	 5.9683
 0.5790	 5.9671
 0.5780	 5.9666
 0.5770	 5.9652
 0.5760	 5.9637
 0.5750	 5.9615
 0.5740	 5.9598
 0.5730	 5.9577
 0.5720	 5.9547
 0.5710	 5.9516
 0.5700	 5.9481
 0.5690	 5.9415
 0.5680	 5.9355
 0.5670	 5.9327
 0.5660	 5.9281
 0.5650	 5.9223
 0.5640	 5.9168
 0.5630	 5.9101
 0.5620	 5.9062
 0.5610	 5.9086
 0.5600	 5.9057
 0.5590	 5.9013
 0.5580	 5.8941
 0.5570	 5.8900
 0.5560	 5.8835
 0.5550	 5.8771
 0.5540	 5.8722
 0.5530	 5.8650
 0.5520	 5.8605
 0.5510	 5.8570
 0.5500	 5.8507
 0.5490	 5.8454
 0.5480	 5.8402
 0.5470	 5.8341
 0.5460	 5.8281
 0.5450	 5.8212
 0.5440	 5.8195
 0.5430	 5.8138
 0.5420	 5.8111
 0.5410	 5.8050
 0.5400	 5.8012
 0.5390	 5.7974
 0.5380	 5.7937
 0.5370	 5.7888
 0.5360	 5.7808
 0.5350	 5.7826
 0.5340	 5.7793
 0.5330	 5.7745
 0.5320	 5.7710
 0.5310	 5.7690
 0.5300	 5.7638
 0.5290	 5.7587
 0.5280	 5.7552
 0.5270	 5.7504
 0.5260	 5.7445
 0.5250	 5.7406
 0.5240	 5.7336
 0.5230	 5.7288
 0.5220	 5.7246
 0.5210	 5.7203
 0.5200	 5.7147
 0.5190	 5.7071
 0.5180	 5.7012
 0.5170	 5.6981
 0.5160	 5.6890
 0.5150	 5.6835
 0.5140	 5.6791
 0.5130	 5.6721
 0.5120	 5.6702
 0.5110	 5.6656
 0.5100	 5.6640
 0.5090	 5.6590
 0.5080	 5.6568
 0.5070	 5.6554
 0.5060	 5.6478
 0.5050	 5.6476
 0.5040	 5.6441
 0.5030	 5.6359
 0.5020	 5.6337
 0.5010	 5.6304
 0.5000	 5.6276
 0.4990	 5.6191
 0.4980	 5.6129
 0.4970	 5.6086
 0.4960	 5.6004
 0.4950	 5.5965
 0.4940	 5.5939
 0.4930	 5.5893
 0.4920	 5.5922
 0.4910	 5.5852
 0.4900	 5.5860
 0.4890	 5.5902
 0.4880	 5.5880
 0.4870	 5.5902
 0.4860	 5.5923
 0.4850	 5.5952
 0.4840	 5.5958
 0.4830	 5.5988
 0.4820	 5.5971
 0.4810	 5.5941
 0.4800	 5.5943
 0.4790	 5.5934
 0.4780	 5.5906
 0.4770	 5.5860
 0.4760	 5.5891
 0.4750	 5.5901
 0.4740	 5.5929
 0.4730	 5.5924
 0.4720	 5.5973
 0.4710	 5.5993
 0.4700	 5.6035
 0.4690	 5.6048
 0.4680	 5.6060
 0.4670	 5.6056
 0.4660	 5.6104
 0.4650	 5.6103
 0.4640	 5.6104
 0.4630	 5.6119
 0.4620	 5.6101
 0.4610	 5.6147
 0.4600	 5.6122
 0.4590	 5.6149
 0.4580	 5.6162
 0.4570	 5.6176
 0.4560	 5.6142
 0.4550	 5.6128
 0.4540	 5.6136
 0.4530	 5.6105
 0.4520	 5.6094
 0.4510	 5.6085
 0.4500	 5.6041
 0.4490	 5.6027
 0.4480	 5.6023
 0.4470	 5.6017
 0.4460	 5.5956
 0.4450	 5.5972
 0.4440	 5.5952
 0.4430	 5.5898
 0.4420	 5.5874
 0.4410	 5.5849
 0.4400	 5.5803
 0.4390	 5.5798
 0.4380	 5.5752
 0.4370	 5.5721
 0.4360	 5.5716
 0.4350	 5.5703
 0.4340	 5.5676
 0.4330	 5.5679
 0.4320	 5.5678
 0.4310	 5.5676
 0.4300	 5.5648
 0.4290	 5.5680
 0.4280	 5.5702
 0.4270	 5.5744
 0.4260	 5.5787
 0.4250	 5.5834
 0.4240	 5.5900
 0.4230	 5.6003
 0.4220	 5.6091
 0.4210	 5.6174
 0.4200	 5.6238
 0.4190	 5.6313
 0.4180	 5.6416
 0.4170	 5.6481
 0.4160	 5.6560
 0.4150	 5.6705
 0.4140	 5.6839
 0.4130	 5.6957
 0.4120	 5.7106
 0.4110	 5.7147
 0.4100	 5.7286
 0.4090	 5.7424
 0.4080	 5.7532
 0.4070	 5.7667
 0.4060	 5.7826
 0.4050	 5.7973
 0.4040	 5.8112
 0.4030	 5.8262
 0.4020	 5.8408
 0.4010	 5.8505
 0.4000	 5.8683
