Name: Azurite Cu_3(CO_3)_2(OH)_2
Type: Mineral
Class: Carbonate
Subclass: None
Particle Size: Fine
Sample No.: C-12A
Owner: JPL
Wavelength Range: VSWIR
Origin: USA, California, San Bernadino County, Near Valley Wells.
Collection Date: N/A
Description: Particle size was 0-45um.Collected by:  Burminco Original ASTER Spectral Library name was jpl.perkin.mineral.carbonate.none.fine.c12a.spectrum.txt
Measurement: Hemispherical reflectance
First Column: X
Second Column: Y
X Units: Wavelength (micrometers)
Y Units:Reflectance (percent)
First X Value:  2.5000
Last X Value:  0.4000
Number of X Values: 2101
Additional Information: mineral.carbonate.none.fine.vswir.c-12a.jpl.perkin.ancillary.txt

 2.5000	41.1277
 2.4990	40.9890
 2.4980	40.9596
 2.4970	41.1887
 2.4960	40.8957
 2.4950	41.1294
 2.4940	41.0334
 2.4930	41.1715
 2.4920	41.1428
 2.4910	41.3784
 2.4900	41.1651
 2.4890	41.4473
 2.4880	41.3575
 2.4870	41.7727
 2.4860	41.4963
 2.4850	41.6721
 2.4840	41.7583
 2.4830	41.9429
 2.4820	41.8796
 2.4810	42.0425
 2.4800	42.0182
 2.4790	42.0539
 2.4780	42.0270
 2.4770	42.2415
 2.4760	42.2311
 2.4750	42.4017
 2.4740	42.4958
 2.4730	42.6442
 2.4720	42.5045
 2.4710	42.7102
 2.4700	42.7003
 2.4690	42.8602
 2.4680	42.8087
 2.4670	42.9277
 2.4660	42.9035
 2.4650	43.1295
 2.4640	43.1457
 2.4630	43.3521
 2.4620	43.2666
 2.4610	43.4548
 2.4600	43.3650
 2.4590	43.4654
 2.4580	43.4548
 2.4570	43.5334
 2.4560	43.5919
 2.4550	43.6805
 2.4540	43.6168
 2.4530	43.8196
 2.4520	43.7768
 2.4510	43.8787
 2.4500	43.9236
 2.4490	43.9637
 2.4480	43.9421
 2.4470	44.0923
 2.4460	44.1574
 2.4450	44.2519
 2.4440	44.1762
 2.4430	44.3980
 2.4420	44.3078
 2.4410	44.4320
 2.4400	44.4696
 2.4390	44.5930
 2.4380	44.6146
 2.4370	44.7156
 2.4360	44.6712
 2.4350	44.7366
 2.4340	44.7962
 2.4330	44.9584
 2.4320	44.9294
 2.4310	45.0840
 2.4300	45.0092
 2.4290	45.0538
 2.4280	45.0990
 2.4270	45.1155
 2.4260	45.1042
 2.4250	45.2736
 2.4240	45.2865
 2.4230	45.2825
 2.4220	45.4452
 2.4210	45.5011
 2.4200	45.4235
 2.4190	45.3874
 2.4180	45.4666
 2.4170	45.6145
 2.4160	45.5805
 2.4150	45.6244
 2.4140	45.6182
 2.4130	45.6611
 2.4120	45.6747
 2.4110	45.6628
 2.4100	45.6941
 2.4090	45.7593
 2.4080	45.7632
 2.4070	45.8213
 2.4060	45.8377
 2.4050	45.8220
 2.4040	45.8875
 2.4030	45.9852
 2.4020	45.9580
 2.4010	45.9856
 2.4000	46.0455
 2.3990	46.0289
 2.3980	46.0636
 2.3970	46.1447
 2.3960	46.1776
 2.3950	46.2758
 2.3940	46.2912
 2.3930	46.3306
 2.3920	46.3753
 2.3910	46.4128
 2.3900	46.4261
 2.3890	46.4971
 2.3880	46.5548
 2.3870	46.5739
 2.3860	46.5968
 2.3850	46.7021
 2.3840	46.7579
 2.3830	46.7925
 2.3820	46.8171
 2.3810	46.8369
 2.3800	46.8773
 2.3790	46.9247
 2.3780	46.9215
 2.3770	47.0446
 2.3760	47.1075
 2.3750	47.0807
 2.3740	47.0584
 2.3730	47.0488
 2.3720	46.9712
 2.3710	46.9033
 2.3700	46.8064
 2.3690	46.6373
 2.3680	46.5027
 2.3670	46.4488
 2.3660	46.2656
 2.3650	46.0155
 2.3640	45.7388
 2.3630	45.5037
 2.3620	45.2629
 2.3610	44.9961
 2.3600	44.7645
 2.3590	44.5258
 2.3580	44.2709
 2.3570	44.0319
 2.3560	43.8559
 2.3550	43.7121
 2.3540	43.5454
 2.3530	43.4370
 2.3520	43.3979
 2.3510	43.4183
 2.3500	43.4646
 2.3490	43.5334
 2.3480	43.6893
 2.3470	43.8514
 2.3460	44.0549
 2.3450	44.3169
 2.3440	44.5607
 2.3430	44.8831
 2.3420	45.2971
 2.3410	45.6495
 2.3400	46.0097
 2.3390	46.4520
 2.3380	46.8771
 2.3370	47.2924
 2.3360	47.7150
 2.3350	48.1237
 2.3340	48.5076
 2.3330	48.8806
 2.3320	49.3089
 2.3310	49.6769
 2.3300	49.9908
 2.3290	50.3294
 2.3280	50.6989
 2.3270	50.9772
 2.3260	51.2702
 2.3250	51.5091
 2.3240	51.7564
 2.3230	51.9242
 2.3220	52.1518
 2.3210	52.2900
 2.3200	52.4243
 2.3190	52.5295
 2.3180	52.6244
 2.3170	52.6787
 2.3160	52.7378
 2.3150	52.7539
 2.3140	52.7625
 2.3130	52.7876
 2.3120	52.8291
 2.3110	52.7179
 2.3100	52.7154
 2.3090	52.6625
 2.3080	52.6368
 2.3070	52.5302
 2.3060	52.3910
 2.3050	52.2586
 2.3040	52.0985
 2.3030	51.9472
 2.3020	51.8076
 2.3010	51.5487
 2.3000	51.3413
 2.2990	51.0838
 2.2980	50.7881
 2.2970	50.4921
 2.2960	50.1942
 2.2950	49.8088
 2.2940	49.4606
 2.2930	49.0948
 2.2920	48.7970
 2.2910	48.4167
 2.2900	48.1461
 2.2890	47.7971
 2.2880	47.4662
 2.2870	47.1935
 2.2860	46.9839
 2.2850	46.8257
 2.2840	46.6498
 2.2830	46.5406
 2.2820	46.5125
 2.2810	46.4730
 2.2800	46.5609
 2.2790	46.5642
 2.2780	46.7169
 2.2770	46.9201
 2.2760	47.0158
 2.2750	47.1852
 2.2740	47.4929
 2.2730	47.6916
 2.2720	47.9663
 2.2710	48.1996
 2.2700	48.5141
 2.2690	48.7423
 2.2680	48.9697
 2.2670	49.1920
 2.2660	49.4202
 2.2650	49.6232
 2.2640	49.7577
 2.2630	49.9143
 2.2620	50.0628
 2.2610	50.1741
 2.2600	50.4015
 2.2590	50.4211
 2.2580	50.6185
 2.2570	50.7087
 2.2560	50.8674
 2.2550	50.9184
 2.2540	51.1443
 2.2530	51.2541
 2.2520	51.5095
 2.2510	51.6107
 2.2500	51.7709
 2.2490	51.8780
 2.2480	52.2143
 2.2470	52.3402
 2.2460	52.6411
 2.2450	52.8150
 2.2440	52.9886
 2.2430	53.2514
 2.2420	53.6093
 2.2410	53.7283
 2.2400	53.9808
 2.2390	54.2799
 2.2380	54.4827
 2.2370	54.7063
 2.2360	55.0390
 2.2350	55.1756
 2.2340	55.3433
 2.2330	55.5498
 2.2320	55.7205
 2.2310	55.9278
 2.2300	56.1455
 2.2290	56.2932
 2.2280	56.4747
 2.2270	56.5159
 2.2260	56.7391
 2.2250	56.8040
 2.2240	56.9324
 2.2230	56.9662
 2.2220	57.0818
 2.2210	57.0622
 2.2200	57.2546
 2.2190	57.1988
 2.2180	57.3129
 2.2170	57.2027
 2.2160	57.3226
 2.2150	57.3068
 2.2140	57.3718
 2.2130	57.3027
 2.2120	57.5009
 2.2110	57.2854
 2.2100	57.4803
 2.2090	57.4728
 2.2080	57.6592
 2.2070	57.6932
 2.2060	57.8649
 2.2050	58.0028
 2.2040	58.1411
 2.2030	58.3166
 2.2020	58.5613
 2.2010	58.6307
 2.2000	58.9267
 2.1990	59.0577
 2.1980	59.2918
 2.1970	59.4393
 2.1960	59.6458
 2.1950	59.7249
 2.1940	59.8774
 2.1930	60.0272
 2.1920	60.1631
 2.1910	60.2575
 2.1900	60.3973
 2.1890	60.4262
 2.1880	60.4733
 2.1870	60.5790
 2.1860	60.7405
 2.1850	60.7518
 2.1840	60.8187
 2.1830	60.8573
 2.1820	60.9711
 2.1810	60.9820
 2.1800	61.0791
 2.1790	61.1878
 2.1780	61.2677
 2.1770	61.3193
 2.1760	61.3948
 2.1750	61.4071
 2.1740	61.5359
 2.1730	61.6215
 2.1720	61.6907
 2.1710	61.7436
 2.1700	61.8396
 2.1690	61.8967
 2.1680	62.0539
 2.1670	62.0520
 2.1660	62.1336
 2.1650	62.2108
 2.1640	62.2773
 2.1630	62.2642
 2.1620	62.4605
 2.1610	62.5065
 2.1600	62.6130
 2.1590	62.5825
 2.1580	62.6980
 2.1570	62.7512
 2.1560	62.7937
 2.1550	62.8553
 2.1540	62.9354
 2.1530	62.9665
 2.1520	63.0666
 2.1510	63.0754
 2.1500	63.0877
 2.1490	63.1182
 2.1480	63.1744
 2.1470	63.1321
 2.1460	63.2041
 2.1450	63.2556
 2.1440	63.2935
 2.1430	63.2344
 2.1420	63.3056
 2.1410	63.3024
 2.1400	63.3470
 2.1390	63.3187
 2.1380	63.3151
 2.1370	63.2754
 2.1360	63.2921
 2.1350	63.2483
 2.1340	63.2713
 2.1330	63.2821
 2.1320	63.2488
 2.1310	63.2459
 2.1300	63.2734
 2.1290	63.2089
 2.1280	63.2059
 2.1270	63.0947
 2.1260	63.0697
 2.1250	63.0468
 2.1240	63.0172
 2.1230	62.9488
 2.1220	62.9327
 2.1210	62.7978
 2.1200	62.7907
 2.1190	62.7404
 2.1180	62.6853
 2.1170	62.5912
 2.1160	62.5197
 2.1150	62.4669
 2.1140	62.4185
 2.1130	62.4039
 2.1120	62.3670
 2.1110	62.2598
 2.1100	62.1789
 2.1090	62.1135
 2.1080	62.0565
 2.1070	62.0041
 2.1060	61.9584
 2.1050	61.8743
 2.1040	61.8502
 2.1030	61.8154
 2.1020	61.8097
 2.1010	61.7754
 2.1000	61.7285
 2.0990	61.6917
 2.0980	61.6497
 2.0970	61.6073
 2.0960	61.6166
 2.0950	61.6224
 2.0940	61.6111
 2.0930	61.5704
 2.0920	61.5266
 2.0910	61.4881
 2.0900	61.4797
 2.0890	61.4864
 2.0880	61.4787
 2.0870	61.4325
 2.0860	61.4149
 2.0850	61.3068
 2.0840	61.2965
 2.0830	61.3036
 2.0820	61.2721
 2.0810	61.2502
 2.0800	61.1767
 2.0790	61.1253
 2.0780	61.1098
 2.0770	61.0664
 2.0760	61.0122
 2.0750	60.9823
 2.0740	60.9225
 2.0730	60.8499
 2.0720	60.7874
 2.0710	60.7196
 2.0700	60.6744
 2.0690	60.6033
 2.0680	60.5399
 2.0670	60.4856
 2.0660	60.4194
 2.0650	60.3478
 2.0640	60.2645
 2.0630	60.1932
 2.0620	60.1365
 2.0610	60.1052
 2.0600	59.9899
 2.0590	59.9604
 2.0580	59.9109
 2.0570	59.8376
 2.0560	59.8046
 2.0550	59.7926
 2.0540	59.6667
 2.0530	59.5502
 2.0520	59.5440
 2.0510	59.4680
 2.0500	59.3611
 2.0490	59.2975
 2.0480	59.2163
 2.0470	59.1668
 2.0460	59.0467
 2.0450	58.9379
 2.0440	58.9224
 2.0430	58.8945
 2.0420	58.7571
 2.0410	58.7475
 2.0400	58.6920
 2.0390	58.6230
 2.0380	58.5401
 2.0370	58.5106
 2.0360	58.4362
 2.0350	58.4168
 2.0340	58.3676
 2.0330	58.2990
 2.0320	58.2323
 2.0310	58.1077
 2.0300	57.9662
 2.0290	57.8783
 2.0280	57.8607
 2.0270	57.7603
 2.0260	57.6383
 2.0250	57.5548
 2.0240	57.4731
 2.0230	57.5173
 2.0220	57.3695
 2.0210	57.3023
 2.0200	57.2287
 2.0190	57.1297
 2.0180	57.0459
 2.0170	56.9894
 2.0160	56.8416
 2.0150	56.7946
 2.0140	56.6674
 2.0130	56.6096
 2.0120	56.4404
 2.0110	56.3814
 2.0100	56.2360
 2.0090	56.1646
 2.0080	56.0284
 2.0070	55.9387
 2.0060	55.8842
 2.0050	55.7799
 2.0040	55.5588
 2.0030	55.5569
 2.0020	55.4402
 2.0010	55.3420
 2.0000	55.1995
 1.9990	55.0747
 1.9980	54.9262
 1.9970	54.8112
 1.9960	54.6469
 1.9950	54.5677
 1.9940	54.3557
 1.9930	54.3249
 1.9920	54.1191
 1.9910	54.0071
 1.9900	53.8856
 1.9890	53.7813
 1.9880	53.6349
 1.9870	53.4814
 1.9860	53.3091
 1.9850	53.2403
 1.9840	53.0662
 1.9830	53.0135
 1.9820	52.8115
 1.9810	52.6991
 1.9800	52.5736
 1.9790	52.4975
 1.9780	52.2928
 1.9770	52.2755
 1.9760	52.1362
 1.9750	52.0286
 1.9740	51.8210
 1.9730	51.8292
 1.9720	51.6021
 1.9710	51.5735
 1.9700	51.3705
 1.9690	51.3344
 1.9680	51.2037
 1.9670	51.1191
 1.9660	51.0114
 1.9650	50.8757
 1.9640	50.7406
 1.9630	50.7645
 1.9620	50.5578
 1.9610	50.4589
 1.9600	50.3251
 1.9590	50.3017
 1.9580	50.1154
 1.9570	50.1063
 1.9560	49.9444
 1.9550	49.8989
 1.9540	49.7411
 1.9530	49.7101
 1.9520	49.5876
 1.9510	49.5187
 1.9500	49.4048
 1.9490	49.2941
 1.9480	49.1711
 1.9470	49.1396
 1.9460	48.9791
 1.9450	48.8963
 1.9440	48.7902
 1.9430	48.7442
 1.9420	48.6023
 1.9410	48.4869
 1.9400	48.3703
 1.9390	48.3797
 1.9380	48.1926
 1.9370	48.0958
 1.9360	47.8957
 1.9350	47.9269
 1.9340	47.7483
 1.9330	47.6692
 1.9320	47.5295
 1.9310	47.4210
 1.9300	47.2332
 1.9290	47.2703
 1.9280	46.9676
 1.9270	47.0497
 1.9260	46.6371
 1.9250	46.6873
 1.9240	46.4671
 1.9230	46.3189
 1.9220	46.1872
 1.9210	46.0976
 1.9200	45.9207
 1.9190	45.8648
 1.9180	45.6856
 1.9170	45.6275
 1.9160	45.4710
 1.9150	45.4496
 1.9140	45.3589
 1.9130	45.3359
 1.9120	45.1982
 1.9110	45.2820
 1.9100	45.3349
 1.9090	45.5061
 1.9080	45.5437
 1.9070	45.7204
 1.9060	45.9008
 1.9050	46.2350
 1.9040	46.5847
 1.9030	47.0660
 1.9020	47.5005
 1.9010	47.9503
 1.9000	48.4641
 1.8990	49.1572
 1.8980	49.7131
 1.8970	50.4692
 1.8960	51.0783
 1.8950	51.7604
 1.8940	52.3414
 1.8930	53.0319
 1.8920	53.6824
 1.8910	54.3450
 1.8900	54.9738
 1.8890	55.6812
 1.8880	56.2175
 1.8870	56.8807
 1.8860	57.4388
 1.8850	57.9553
 1.8840	58.4168
 1.8830	59.0266
 1.8820	59.4274
 1.8810	59.9126
 1.8800	60.3771
 1.8790	60.8065
 1.8780	61.1288
 1.8770	61.5309
 1.8760	61.8971
 1.8750	62.2661
 1.8740	62.5213
 1.8730	62.8826
 1.8720	63.2470
 1.8710	63.5876
 1.8700	63.8763
 1.8690	64.1195
 1.8680	64.3654
 1.8670	64.5729
 1.8660	64.6876
 1.8650	64.8678
 1.8640	65.0410
 1.8630	65.2169
 1.8620	65.2573
 1.8610	65.3446
 1.8600	65.4663
 1.8590	65.5545
 1.8580	65.5877
 1.8570	65.7128
 1.8560	65.7606
 1.8550	65.7928
 1.8540	65.8168
 1.8530	65.9437
 1.8520	65.9829
 1.8510	66.0182
 1.8500	66.0110
 1.8490	66.0601
 1.8480	66.0603
 1.8470	66.0961
 1.8460	66.0574
 1.8450	66.1923
 1.8440	66.1957
 1.8430	66.1870
 1.8420	66.2227
 1.8410	66.2083
 1.8400	66.2329
 1.8390	66.2461
 1.8380	66.2063
 1.8370	66.2425
 1.8360	66.2261
 1.8350	66.2584
 1.8340	66.2575
 1.8330	66.2505
 1.8320	66.1969
 1.8310	66.2067
 1.8300	66.1971
 1.8290	66.1974
 1.8280	66.2243
 1.8270	66.2532
 1.8260	66.2043
 1.8250	66.2049
 1.8240	66.1900
 1.8230	66.1809
 1.8220	66.1504
 1.8210	66.0951
 1.8200	66.0432
 1.8190	66.0749
 1.8180	66.1185
 1.8170	66.0964
 1.8160	66.0645
 1.8150	66.0726
 1.8140	66.0801
 1.8130	66.0591
 1.8120	65.9464
 1.8110	65.9584
 1.8100	66.0127
 1.8090	66.0025
 1.8080	65.9442
 1.8070	65.9380
 1.8060	65.8911
 1.8050	65.8773
 1.8040	65.8505
 1.8030	65.8457
 1.8020	65.8362
 1.8010	65.8140
 1.8000	65.8242
 1.7990	65.7990
 1.7980	65.7575
 1.7970	65.7372
 1.7960	65.7145
 1.7950	65.6934
 1.7940	65.6701
 1.7930	65.6404
 1.7920	65.6161
 1.7910	65.6074
 1.7900	65.5913
 1.7890	65.5287
 1.7880	65.5183
 1.7870	65.5433
 1.7860	65.5074
 1.7850	65.4425
 1.7840	65.4024
 1.7830	65.4083
 1.7820	65.4197
 1.7810	65.3750
 1.7800	65.3500
 1.7790	65.3218
 1.7780	65.3235
 1.7770	65.3247
 1.7760	65.2975
 1.7750	65.3174
 1.7740	65.2924
 1.7730	65.2749
 1.7720	65.2978
 1.7710	65.2821
 1.7700	65.2686
 1.7690	65.2393
 1.7680	65.2332
 1.7670	65.1744
 1.7660	65.1659
 1.7650	65.1524
 1.7640	65.1319
 1.7630	65.1078
 1.7620	65.1281
 1.7610	65.1528
 1.7600	65.1291
 1.7590	65.0784
 1.7580	65.0448
 1.7570	65.0479
 1.7560	65.0508
 1.7550	65.0038
 1.7540	65.0439
 1.7530	65.0212
 1.7520	65.0343
 1.7510	65.0002
 1.7500	64.9946
 1.7490	65.0075
 1.7480	65.0119
 1.7470	64.9616
 1.7460	64.9665
 1.7450	64.9240
 1.7440	64.9018
 1.7430	64.8733
 1.7420	64.8511
 1.7410	64.8723
 1.7400	64.8460
 1.7390	64.8305
 1.7380	64.8004
 1.7370	64.7482
 1.7360	64.7714
 1.7350	64.7286
 1.7340	64.7680
 1.7330	64.7661
 1.7320	64.7126
 1.7310	64.6837
 1.7300	64.7125
 1.7290	64.6277
 1.7280	64.6379
 1.7270	64.5721
 1.7260	64.5962
 1.7250	64.5600
 1.7240	64.5908
 1.7230	64.5213
 1.7220	64.5095
 1.7210	64.4741
 1.7200	64.4718
 1.7190	64.3859
 1.7180	64.4187
 1.7170	64.4059
 1.7160	64.3525
 1.7150	64.2950
 1.7140	64.3268
 1.7130	64.2405
 1.7120	64.2151
 1.7110	64.1473
 1.7100	64.2017
 1.7090	64.1247
 1.7080	64.1375
 1.7070	64.0712
 1.7060	64.0853
 1.7050	64.0443
 1.7040	63.9915
 1.7030	63.8639
 1.7020	63.9104
 1.7010	63.9010
 1.7000	63.9154
 1.6990	63.8277
 1.6980	63.7706
 1.6970	63.7583
 1.6960	63.7383
 1.6950	63.7115
 1.6940	63.7385
 1.6930	63.6516
 1.6920	63.6689
 1.6910	63.5303
 1.6900	63.5461
 1.6890	63.4757
 1.6880	63.4825
 1.6870	63.4480
 1.6860	63.4242
 1.6850	63.4049
 1.6840	63.3665
 1.6830	63.3034
 1.6820	63.2588
 1.6810	63.2824
 1.6800	63.1472
 1.6790	63.1542
 1.6780	63.1617
 1.6770	63.0501
 1.6760	63.1242
 1.6750	63.0035
 1.6740	63.0385
 1.6730	62.9716
 1.6720	62.9326
 1.6710	62.7957
 1.6700	62.9012
 1.6690	62.8942
 1.6680	62.7135
 1.6670	62.7364
 1.6660	62.7396
 1.6650	62.6057
 1.6640	62.6293
 1.6630	62.5557
 1.6620	62.5745
 1.6610	62.4386
 1.6600	62.4976
 1.6590	62.4244
 1.6580	62.4172
 1.6570	62.2518
 1.6560	62.2806
 1.6550	62.2055
 1.6540	62.2147
 1.6530	62.1637
 1.6520	62.1428
 1.6510	62.0747
 1.6500	62.0000
 1.6490	61.9457
 1.6480	62.0798
 1.6470	61.9055
 1.6460	61.9415
 1.6450	61.8352
 1.6440	61.8493
 1.6430	61.7116
 1.6420	61.8078
 1.6410	61.5973
 1.6400	61.7184
 1.6390	61.5103
 1.6380	61.5626
 1.6370	61.5329
 1.6360	61.4210
 1.6350	61.3625
 1.6340	61.3959
 1.6330	61.3053
 1.6320	61.2738
 1.6310	61.2197
 1.6300	61.1616
 1.6290	61.0898
 1.6280	61.1510
 1.6270	61.0288
 1.6260	61.0117
 1.6250	60.9210
 1.6240	60.9125
 1.6230	60.8669
 1.6220	60.8470
 1.6210	60.7107
 1.6200	60.6880
 1.6190	60.7006
 1.6180	60.6432
 1.6170	60.5622
 1.6160	60.5044
 1.6150	60.5252
 1.6140	60.4591
 1.6130	60.3574
 1.6120	60.3946
 1.6110	60.3150
 1.6100	60.2187
 1.6090	60.2349
 1.6080	60.2079
 1.6070	60.1095
 1.6060	60.0688
 1.6050	60.0100
 1.6040	59.9982
 1.6030	59.9242
 1.6020	59.8999
 1.6010	59.8462
 1.6000	59.7866
 1.5990	59.6981
 1.5980	59.7653
 1.5970	59.6705
 1.5960	59.6677
 1.5950	59.5147
 1.5940	59.5391
 1.5930	59.4965
 1.5920	59.4088
 1.5910	59.3130
 1.5900	59.3717
 1.5890	59.2552
 1.5880	59.2973
 1.5870	59.1917
 1.5860	59.1202
 1.5850	58.9697
 1.5840	58.9488
 1.5830	58.9250
 1.5820	58.9063
 1.5810	58.8560
 1.5800	58.8515
 1.5790	58.7000
 1.5780	58.7236
 1.5770	58.6504
 1.5760	58.6183
 1.5750	58.5190
 1.5740	58.5408
 1.5730	58.4174
 1.5720	58.4317
 1.5710	58.3040
 1.5700	58.2867
 1.5690	58.2124
 1.5680	58.1642
 1.5670	58.1250
 1.5660	58.1204
 1.5650	58.0085
 1.5640	57.9357
 1.5630	57.8685
 1.5620	57.8611
 1.5610	57.8558
 1.5600	57.7995
 1.5590	57.6911
 1.5580	57.6452
 1.5570	57.5318
 1.5560	57.5294
 1.5550	57.4598
 1.5540	57.3805
 1.5530	57.3027
 1.5520	57.2887
 1.5510	57.1716
 1.5500	57.0842
 1.5490	57.0597
 1.5480	57.0157
 1.5470	56.9308
 1.5460	56.9084
 1.5450	56.8095
 1.5440	56.7526
 1.5430	56.6594
 1.5420	56.6449
 1.5410	56.5896
 1.5400	56.5499
 1.5390	56.4130
 1.5380	56.3939
 1.5370	56.3138
 1.5360	56.2227
 1.5350	56.1393
 1.5340	56.1191
 1.5330	56.0836
 1.5320	55.9900
 1.5310	55.9016
 1.5300	55.8102
 1.5290	55.7549
 1.5280	55.7231
 1.5270	55.6252
 1.5260	55.5160
 1.5250	55.4581
 1.5240	55.4350
 1.5230	55.3444
 1.5220	55.2355
 1.5210	55.1788
 1.5200	55.1232
 1.5190	55.0484
 1.5180	54.9484
 1.5170	54.8271
 1.5160	54.7808
 1.5150	54.7147
 1.5140	54.6509
 1.5130	54.5477
 1.5120	54.4123
 1.5110	54.2871
 1.5100	54.2261
 1.5090	54.0903
 1.5080	53.9705
 1.5070	53.8030
 1.5060	53.6561
 1.5050	53.5539
 1.5040	53.4290
 1.5030	53.3536
 1.5020	53.2921
 1.5010	53.2039
 1.5000	53.1401
 1.4990	53.0841
 1.4980	53.0859
 1.4970	53.0188
 1.4960	52.9313
 1.4950	52.9134
 1.4940	52.8384
 1.4930	52.8102
 1.4920	52.7967
 1.4910	52.7666
 1.4900	52.7083
 1.4890	52.6940
 1.4880	52.7007
 1.4870	52.6282
 1.4860	52.5433
 1.4850	52.4908
 1.4840	52.4260
 1.4830	52.4518
 1.4820	52.4222
 1.4810	52.3429
 1.4800	52.2991
 1.4790	52.2336
 1.4780	52.1875
 1.4770	52.1846
 1.4760	52.1366
 1.4750	52.1309
 1.4740	52.0412
 1.4730	51.9990
 1.4720	51.9268
 1.4710	51.8984
 1.4700	51.7864
 1.4690	51.7364
 1.4680	51.7369
 1.4670	51.7050
 1.4660	51.5819
 1.4650	51.5117
 1.4640	51.4819
 1.4630	51.4973
 1.4620	51.4166
 1.4610	51.3659
 1.4600	51.3327
 1.4590	51.2795
 1.4580	51.2037
 1.4570	51.2281
 1.4560	51.1755
 1.4550	51.1062
 1.4540	51.0031
 1.4530	51.0380
 1.4520	50.9814
 1.4510	50.9401
 1.4500	50.8850
 1.4490	50.8423
 1.4480	50.7193
 1.4470	50.6627
 1.4460	50.6217
 1.4450	50.5797
 1.4440	50.4903
 1.4430	50.4988
 1.4420	50.3719
 1.4410	50.2927
 1.4400	50.2079
 1.4390	50.1798
 1.4380	50.0619
 1.4370	50.0094
 1.4360	49.8891
 1.4350	49.7861
 1.4340	49.7003
 1.4330	49.6455
 1.4320	49.5193
 1.4310	49.4314
 1.4300	49.3139
 1.4290	49.2630
 1.4280	49.0526
 1.4270	49.0267
 1.4260	48.8893
 1.4250	48.7552
 1.4240	48.5946
 1.4230	48.5395
 1.4220	48.3396
 1.4210	48.2530
 1.4200	48.0413
 1.4190	47.8493
 1.4180	47.6002
 1.4170	47.4192
 1.4160	47.1653
 1.4150	46.9855
 1.4140	46.8058
 1.4130	46.8838
 1.4120	46.8752
 1.4110	47.0508
 1.4100	47.1850
 1.4090	47.5010
 1.4080	47.6726
 1.4070	48.0150
 1.4060	48.1858
 1.4050	48.4557
 1.4040	48.5941
 1.4030	48.9735
 1.4020	49.0376
 1.4010	49.2954
 1.4000	49.4247
 1.3990	49.5544
 1.3980	49.6647
 1.3970	49.8171
 1.3960	49.9919
 1.3950	50.0518
 1.3940	49.9993
 1.3930	50.1868
 1.3920	50.1686
 1.3910	50.3450
 1.3900	50.3547
 1.3890	50.3768
 1.3880	50.3518
 1.3870	50.3847
 1.3860	50.4190
 1.3850	50.4722
 1.3840	50.4079
 1.3830	50.4734
 1.3820	50.3421
 1.3810	50.4561
 1.3800	50.3447
 1.3790	50.4787
 1.3780	50.5187
 1.3770	50.5472
 1.3760	50.5448
 1.3750	50.5328
 1.3740	50.5534
 1.3730	50.5302
 1.3720	50.5110
 1.3710	50.5776
 1.3700	50.5496
 1.3690	50.4811
 1.3680	50.4539
 1.3670	50.4769
 1.3660	50.4223
 1.3650	50.4195
 1.3640	50.3454
 1.3630	50.3599
 1.3620	50.2107
 1.3610	50.2842
 1.3600	50.1408
 1.3590	50.2059
 1.3580	50.1319
 1.3570	50.1320
 1.3560	50.0906
 1.3550	49.9132
 1.3540	49.9349
 1.3530	49.9792
 1.3520	49.9423
 1.3510	49.9393
 1.3500	49.8602
 1.3490	49.8694
 1.3480	49.7673
 1.3470	49.7479
 1.3460	49.6893
 1.3450	49.6715
 1.3440	49.5750
 1.3430	49.6207
 1.3420	49.4787
 1.3410	49.5122
 1.3400	49.4113
 1.3390	49.4586
 1.3380	49.3266
 1.3370	49.4274
 1.3360	49.2914
 1.3350	49.2644
 1.3340	49.2611
 1.3330	49.2697
 1.3320	49.2256
 1.3310	49.2061
 1.3300	49.1360
 1.3290	49.1028
 1.3280	49.0553
 1.3270	49.0443
 1.3260	48.9975
 1.3250	48.9905
 1.3240	48.8370
 1.3230	48.9055
 1.3220	48.8056
 1.3210	48.7985
 1.3200	48.6817
 1.3190	48.7384
 1.3180	48.5922
 1.3170	48.6565
 1.3160	48.5520
 1.3150	48.5663
 1.3140	48.4874
 1.3130	48.4693
 1.3120	48.4012
 1.3110	48.3662
 1.3100	48.3066
 1.3090	48.2935
 1.3080	48.3077
 1.3070	48.2750
 1.3060	48.1841
 1.3050	48.1683
 1.3040	48.1654
 1.3030	48.1443
 1.3020	48.0844
 1.3010	48.0938
 1.3000	47.9862
 1.2990	47.9949
 1.2980	47.9793
 1.2970	47.8818
 1.2960	47.8464
 1.2950	47.8447
 1.2940	47.8026
 1.2930	47.7962
 1.2920	47.7065
 1.2910	47.6844
 1.2900	47.6515
 1.2890	47.6779
 1.2880	47.5745
 1.2870	47.5667
 1.2860	47.4420
 1.2850	47.4536
 1.2840	47.4644
 1.2830	47.4771
 1.2820	47.3063
 1.2810	47.2896
 1.2800	47.2402
 1.2790	47.2947
 1.2780	47.2059
 1.2770	47.1766
 1.2760	47.1038
 1.2750	47.0702
 1.2740	47.0131
 1.2730	47.0472
 1.2720	46.9589
 1.2710	46.9030
 1.2700	46.8603
 1.2690	46.8318
 1.2680	46.7767
 1.2670	46.7384
 1.2660	46.7036
 1.2650	46.6843
 1.2640	46.6066
 1.2630	46.5871
 1.2620	46.5922
 1.2610	46.5529
 1.2600	46.4976
 1.2590	46.4854
 1.2580	46.4134
 1.2570	46.3774
 1.2560	46.2966
 1.2550	46.2870
 1.2540	46.2544
 1.2530	46.2236
 1.2520	46.1684
 1.2510	46.1734
 1.2500	46.1238
 1.2490	46.0798
 1.2480	46.0727
 1.2470	46.0295
 1.2460	45.9361
 1.2450	45.9037
 1.2440	45.8630
 1.2430	45.8298
 1.2420	45.7596
 1.2410	45.7296
 1.2400	45.6899
 1.2390	45.6684
 1.2380	45.6276
 1.2370	45.5945
 1.2360	45.5799
 1.2350	45.5301
 1.2340	45.4663
 1.2330	45.4371
 1.2320	45.3886
 1.2310	45.3559
 1.2300	45.3361
 1.2290	45.2967
 1.2280	45.2355
 1.2270	45.2054
 1.2260	45.1709
 1.2250	45.1258
 1.2240	45.0620
 1.2230	45.0478
 1.2220	44.9862
 1.2210	44.9385
 1.2200	44.9593
 1.2190	44.9085
 1.2180	44.8622
 1.2170	44.8110
 1.2160	44.7596
 1.2150	44.7348
 1.2140	44.7116
 1.2130	44.7224
 1.2120	44.6461
 1.2110	44.5973
 1.2100	44.5659
 1.2090	44.4560
 1.2080	44.4171
 1.2070	44.4371
 1.2060	44.4182
 1.2050	44.3571
 1.2040	44.3403
 1.2030	44.3227
 1.2020	44.2923
 1.2010	44.1967
 1.2000	44.1250
 1.1990	44.1531
 1.1980	44.1345
 1.1970	44.0572
 1.1960	44.0652
 1.1950	44.0079
 1.1940	43.9566
 1.1930	43.9107
 1.1920	43.8648
 1.1910	43.8297
 1.1900	43.8104
 1.1890	43.8534
 1.1880	43.7403
 1.1870	43.6121
 1.1860	43.6552
 1.1850	43.6741
 1.1840	43.6231
 1.1830	43.5046
 1.1820	43.4925
 1.1810	43.4889
 1.1800	43.4887
 1.1790	43.4301
 1.1780	43.3810
 1.1770	43.3336
 1.1760	43.2881
 1.1750	43.2274
 1.1740	43.2506
 1.1730	43.1775
 1.1720	43.1076
 1.1710	43.0448
 1.1700	43.0328
 1.1690	42.9938
 1.1680	43.0015
 1.1670	42.9120
 1.1660	42.9032
 1.1650	42.8483
 1.1640	42.8065
 1.1630	42.7812
 1.1620	42.7987
 1.1610	42.6751
 1.1600	42.6535
 1.1590	42.5960
 1.1580	42.5713
 1.1570	42.5177
 1.1560	42.4960
 1.1550	42.4457
 1.1540	42.4541
 1.1530	42.3902
 1.1520	42.3462
 1.1510	42.2481
 1.1500	42.2776
 1.1490	42.2136
 1.1480	42.2444
 1.1470	42.1569
 1.1460	42.1229
 1.1450	42.0686
 1.1440	42.0984
 1.1430	41.9820
 1.1420	41.9980
 1.1410	41.9290
 1.1400	41.8944
 1.1390	41.8213
 1.1380	41.9026
 1.1370	41.8131
 1.1360	41.8234
 1.1350	41.7101
 1.1340	41.6899
 1.1330	41.6159
 1.1320	41.6000
 1.1310	41.5760
 1.1300	41.5246
 1.1290	41.4378
 1.1280	41.5446
 1.1270	41.3204
 1.1260	41.3399
 1.1250	41.3065
 1.1240	41.2471
 1.1230	41.1894
 1.1220	41.2243
 1.1210	41.1745
 1.1200	41.1078
 1.1190	40.9384
 1.1180	40.9687
 1.1170	40.8979
 1.1160	40.8698
 1.1150	40.7758
 1.1140	40.8408
 1.1130	40.7270
 1.1120	40.7461
 1.1110	40.6758
 1.1100	40.5967
 1.1090	40.5498
 1.1080	40.5027
 1.1070	40.4123
 1.1060	40.4581
 1.1050	40.3813
 1.1040	40.3519
 1.1030	40.2053
 1.1020	40.2611
 1.1010	40.1202
 1.1000	40.1224
 1.0990	40.0404
 1.0980	40.0251
 1.0970	39.9805
 1.0960	39.9815
 1.0950	39.8425
 1.0940	39.8124
 1.0930	39.7715
 1.0920	39.7254
 1.0910	39.6227
 1.0900	39.5912
 1.0890	39.4566
 1.0880	39.5291
 1.0870	39.3071
 1.0860	39.3969
 1.0850	39.2619
 1.0840	39.2988
 1.0830	39.0912
 1.0820	39.1915
 1.0810	39.0802
 1.0800	39.0438
 1.0790	38.8957
 1.0780	38.9726
 1.0770	38.7982
 1.0760	38.8178
 1.0750	38.6857
 1.0740	38.7721
 1.0730	38.4894
 1.0720	38.6223
 1.0710	38.5705
 1.0700	38.3154
 1.0690	38.3939
 1.0680	38.3105
 1.0670	38.1953
 1.0660	38.1404
 1.0650	38.0221
 1.0640	37.9783
 1.0630	37.8744
 1.0620	37.9383
 1.0610	37.7557
 1.0600	37.7592
 1.0590	37.6018
 1.0580	37.6108
 1.0570	37.5208
 1.0560	37.4346
 1.0550	37.2885
 1.0540	37.3606
 1.0530	37.1797
 1.0520	37.1135
 1.0510	37.0268
 1.0500	37.0091
 1.0490	36.8385
 1.0480	36.8447
 1.0470	36.6809
 1.0460	36.6665
 1.0450	36.5501
 1.0440	36.5665
 1.0430	36.4202
 1.0420	36.3854
 1.0410	36.2263
 1.0400	36.1775
 1.0390	36.0511
 1.0380	36.0596
 1.0370	35.9553
 1.0360	35.9234
 1.0350	35.6655
 1.0340	35.7569
 1.0330	35.5388
 1.0320	35.5235
 1.0310	35.4403
 1.0300	35.3367
 1.0290	35.2125
 1.0280	35.1661
 1.0270	35.0583
 1.0260	34.9911
 1.0250	34.8608
 1.0240	34.8148
 1.0230	34.7042
 1.0220	34.6488
 1.0210	34.4658
 1.0200	34.5245
 1.0190	34.3218
 1.0180	34.2051
 1.0170	34.0256
 1.0160	34.0509
 1.0150	33.9336
 1.0140	33.8772
 1.0130	33.6876
 1.0120	33.6814
 1.0110	33.5640
 1.0100	33.5163
 1.0090	33.3480
 1.0080	33.2681
 1.0070	33.1625
 1.0060	33.1524
 1.0050	32.9978
 1.0040	32.9342
 1.0030	32.7999
 1.0020	32.6946
 1.0010	32.5499
 1.0000	32.4756
 0.9990	32.3353
 0.9980	32.2789
 0.9970	32.1499
 0.9960	32.1169
 0.9950	31.9272
 0.9940	31.8086
 0.9930	31.6776
 0.9920	31.6262
 0.9910	31.5747
 0.9900	31.4636
 0.9890	31.3106
 0.9880	31.2436
 0.9870	31.0861
 0.9860	30.9972
 0.9850	30.8325
 0.9840	30.8074
 0.9830	30.6663
 0.9820	30.5950
 0.9810	30.4788
 0.9800	30.3668
 0.9790	30.2198
 0.9780	30.1141
 0.9770	30.0001
 0.9760	29.9252
 0.9750	29.7674
 0.9740	29.7212
 0.9730	29.6028
 0.9720	29.4910
 0.9710	29.3254
 0.9700	29.2557
 0.9690	29.1435
 0.9680	29.0987
 0.9670	28.9552
 0.9660	28.8558
 0.9650	28.6362
 0.9640	28.5920
 0.9630	28.4561
 0.9620	28.3869
 0.9610	28.2675
 0.9600	28.1585
 0.9590	28.0370
 0.9580	28.0078
 0.9570	27.8738
 0.9560	27.7474
 0.9550	27.6452
 0.9540	27.5915
 0.9530	27.4724
 0.9520	27.3946
 0.9510	27.2198
 0.9500	27.0798
 0.9490	26.9797
 0.9480	26.9325
 0.9470	26.8459
 0.9460	26.7306
 0.9450	26.5655
 0.9440	26.4621
 0.9430	26.3543
 0.9420	26.3327
 0.9410	26.1894
 0.9400	26.0132
 0.9390	25.9382
 0.9380	25.8478
 0.9370	25.7329
 0.9360	25.6427
 0.9350	25.5386
 0.9340	25.4098
 0.9330	25.2967
 0.9320	25.2066
 0.9310	25.0931
 0.9300	25.0047
 0.9290	24.9037
 0.9280	24.7422
 0.9270	24.6929
 0.9260	24.6570
 0.9250	24.4944
 0.9240	24.3950
 0.9230	24.3102
 0.9220	24.1556
 0.9210	24.1051
 0.9200	24.0141
 0.9190	23.8772
 0.9180	23.7508
 0.9170	23.6656
 0.9160	23.5502
 0.9150	23.5138
 0.9140	23.4510
 0.9130	23.3165
 0.9120	23.2294
 0.9110	23.1120
 0.9100	23.0089
 0.9090	22.9670
 0.9080	22.8545
 0.9070	22.7677
 0.9060	22.6762
 0.9050	22.5875
 0.9040	22.4809
 0.9030	22.4418
 0.9020	22.3120
 0.9010	22.2087
 0.9000	22.1631
 0.8990	22.1062
 0.8980	21.9832
 0.8970	21.9338
 0.8960	21.8276
 0.8950	21.8007
 0.8940	21.7040
 0.8930	21.5425
 0.8920	21.4710
 0.8910	21.4284
 0.8900	21.2978
 0.8890	21.2325
 0.8880	21.1867
 0.8870	21.2060
 0.8860	21.0497
 0.8850	21.0217
 0.8840	20.9207
 0.8830	20.8760
 0.8820	20.7282
 0.8810	20.6847
 0.8800	20.5788
 0.8790	20.5493
 0.8780	20.4854
 0.8770	20.4651
 0.8760	20.3634
 0.8750	20.3027
 0.8740	20.2271
 0.8730	20.1903
 0.8720	20.0504
 0.8710	20.0455
 0.8700	19.9823
 0.8690	19.9431
 0.8680	19.8478
 0.8670	19.8411
 0.8660	19.7037
 0.8650	19.6938
 0.8640	19.6170
 0.8630	19.5888
 0.8620	19.4874
 0.8610	19.4834
 0.8600	19.5680
 0.8590	19.4928
 0.8580	19.4427
 0.8570	19.4238
 0.8560	19.3705
 0.8550	19.3338
 0.8540	19.2798
 0.8530	19.2221
 0.8520	19.1650
 0.8510	19.1143
 0.8500	19.0748
 0.8490	19.0139
 0.8480	18.9891
 0.8470	18.9557
 0.8460	18.9052
 0.8450	18.8569
 0.8440	18.8103
 0.8430	18.7684
 0.8420	18.7383
 0.8410	18.7066
 0.8400	18.6832
 0.8390	18.6155
 0.8380	18.5695
 0.8370	18.5363
 0.8360	18.4896
 0.8350	18.4533
 0.8340	18.4408
 0.8330	18.3974
 0.8320	18.3598
 0.8310	18.3232
 0.8300	18.2879
 0.8290	18.2609
 0.8280	18.2136
 0.8270	18.1854
 0.8260	18.1516
 0.8250	18.1078
 0.8240	18.0775
 0.8230	18.0448
 0.8220	18.0170
 0.8210	17.9811
 0.8200	17.9522
 0.8190	17.9074
 0.8180	17.8970
 0.8170	17.8341
 0.8160	17.8383
 0.8150	17.7967
 0.8140	17.7568
 0.8130	17.7358
 0.8120	17.6986
 0.8110	17.6693
 0.8100	17.6534
 0.8090	17.6391
 0.8080	17.5954
 0.8070	17.5428
 0.8060	17.5442
 0.8050	17.5026
 0.8040	17.4876
 0.8030	17.4658
 0.8020	17.4295
 0.8010	17.4130
 0.8000	17.3760
 0.7990	17.3410
 0.7980	17.3129
 0.7970	17.2840
 0.7960	17.2469
 0.7950	17.2345
 0.7940	17.2102
 0.7930	17.1906
 0.7920	17.1565
 0.7910	17.1406
 0.7900	17.1101
 0.7890	17.0835
 0.7880	17.0653
 0.7870	17.0509
 0.7860	17.0166
 0.7850	16.9861
 0.7840	16.9562
 0.7830	16.9406
 0.7820	16.9194
 0.7810	16.8876
 0.7800	16.8803
 0.7790	16.8607
 0.7780	16.8351
 0.7770	16.8131
 0.7760	16.7984
 0.7750	16.7597
 0.7740	16.7478
 0.7730	16.7229
 0.7720	16.7009
 0.7710	16.6880
 0.7700	16.6684
 0.7690	16.6484
 0.7680	16.6361
 0.7670	16.6163
 0.7660	16.6070
 0.7650	16.5933
 0.7640	16.5728
 0.7630	16.5459
 0.7620	16.5430
 0.7610	16.5381
 0.7600	16.5216
 0.7590	16.4913
 0.7580	16.4811
 0.7570	16.4662
 0.7560	16.4504
 0.7550	16.4317
 0.7540	16.4234
 0.7530	16.4163
 0.7520	16.4087
 0.7510	16.3858
 0.7500	16.3810
 0.7490	16.3713
 0.7480	16.3510
 0.7470	16.3536
 0.7460	16.3473
 0.7450	16.3364
 0.7440	16.3265
 0.7430	16.3107
 0.7420	16.3116
 0.7410	16.3024
 0.7400	16.2936
 0.7390	16.3013
 0.7380	16.2934
 0.7370	16.2811
 0.7360	16.2793
 0.7350	16.2780
 0.7340	16.2763
 0.7330	16.2763
 0.7320	16.2706
 0.7310	16.2626
 0.7300	16.2699
 0.7290	16.2690
 0.7280	16.2694
 0.7270	16.2717
 0.7260	16.2805
 0.7250	16.2770
 0.7240	16.2765
 0.7230	16.2925
 0.7220	16.3005
 0.7210	16.2992
 0.7200	16.2992
 0.7190	16.3096
 0.7180	16.3207
 0.7170	16.3249
 0.7160	16.3395
 0.7150	16.3475
 0.7140	16.3619
 0.7130	16.3686
 0.7120	16.3877
 0.7110	16.3998
 0.7100	16.4128
 0.7090	16.4264
 0.7080	16.4481
 0.7070	16.4636
 0.7060	16.4872
 0.7050	16.5069
 0.7040	16.5211
 0.7030	16.5395
 0.7020	16.5625
 0.7010	16.5888
 0.7000	16.6068
 0.6990	16.6396
 0.6980	16.6626
 0.6970	16.6825
 0.6960	16.7115
 0.6950	16.7449
 0.6940	16.7752
 0.6930	16.8060
 0.6920	16.8375
 0.6910	16.8716
 0.6900	16.9067
 0.6890	16.9346
 0.6880	16.9700
 0.6870	17.0065
 0.6860	17.0538
 0.6850	17.0959
 0.6840	17.1268
 0.6830	17.1714
 0.6820	17.2197
 0.6810	17.2624
 0.6800	17.3059
 0.6790	17.3537
 0.6780	17.3976
 0.6770	17.4453
 0.6760	17.5008
 0.6750	17.5514
 0.6740	17.6018
 0.6730	17.6557
 0.6720	17.7139
 0.6710	17.7736
 0.6700	17.8299
 0.6690	17.8909
 0.6680	17.9549
 0.6670	17.9994
 0.6660	18.0411
 0.6650	18.1087
 0.6640	18.1788
 0.6630	18.2480
 0.6620	18.3147
 0.6610	18.3856
 0.6600	18.4616
 0.6590	18.5385
 0.6580	18.6173
 0.6570	18.6931
 0.6560	18.7747
 0.6550	18.8607
 0.6540	18.9372
 0.6530	19.0201
 0.6520	19.1075
 0.6510	19.1988
 0.6500	19.2903
 0.6490	19.3830
 0.6480	19.4809
 0.6470	19.5755
 0.6460	19.6737
 0.6450	19.7728
 0.6440	19.8719
 0.6430	19.9811
 0.6420	20.0868
 0.6410	20.1913
 0.6400	20.3043
 0.6390	20.4138
 0.6380	20.5298
 0.6370	20.6472
 0.6360	20.7594
 0.6350	20.8762
 0.6340	20.9975
 0.6330	21.1243
 0.6320	21.2520
 0.6310	21.3741
 0.6300	21.5038
 0.6290	21.6416
 0.6280	21.7750
 0.6270	21.9079
 0.6260	22.0443
 0.6250	22.1837
 0.6240	22.3252
 0.6230	22.4677
 0.6220	22.6156
 0.6210	22.7613
 0.6200	22.9082
 0.6190	23.0597
 0.6180	23.2105
 0.6170	23.3634
 0.6160	23.5190
 0.6150	23.6774
 0.6140	23.8314
 0.6130	23.9930
 0.6120	24.1572
 0.6110	24.3192
 0.6100	24.4830
 0.6090	24.6536
 0.6080	24.8283
 0.6070	25.0009
 0.6060	25.1652
 0.6050	25.3371
 0.6040	25.5110
 0.6030	25.6872
 0.6020	25.8596
 0.6010	26.0318
 0.6000	26.2066
 0.5990	26.3887
 0.5980	26.5749
 0.5970	26.7618
 0.5960	26.9444
 0.5950	27.1290
 0.5940	27.3068
 0.5930	27.4929
 0.5920	27.6713
 0.5910	27.8457
 0.5900	28.0290
 0.5890	28.2138
 0.5880	28.3961
 0.5870	28.5777
 0.5860	28.7590
 0.5850	28.9359
 0.5840	29.1176
 0.5830	29.2971
 0.5820	29.4769
 0.5810	29.6538
 0.5800	29.8318
 0.5790	30.0007
 0.5780	30.1751
 0.5770	30.3529
 0.5760	30.5215
 0.5750	30.6959
 0.5740	30.8654
 0.5730	31.0356
 0.5720	31.1999
 0.5710	31.3621
 0.5700	31.5191
 0.5690	31.6792
 0.5680	31.8364
 0.5670	31.9974
 0.5660	32.1301
 0.5650	32.2730
 0.5640	32.4181
 0.5630	32.5639
 0.5620	32.7130
 0.5610	32.8758
 0.5600	33.0191
 0.5590	33.1665
 0.5580	33.3028
 0.5570	33.4344
 0.5560	33.5514
 0.5550	33.6832
 0.5540	33.8217
 0.5530	33.9382
 0.5520	34.0588
 0.5510	34.1810
 0.5500	34.2923
 0.5490	34.4103
 0.5480	34.5200
 0.5470	34.6306
 0.5460	34.7289
 0.5450	34.8339
 0.5440	34.9247
 0.5430	35.0211
 0.5420	35.0951
 0.5410	35.1723
 0.5400	35.2608
 0.5390	35.3414
 0.5380	35.4213
 0.5370	35.5060
 0.5360	35.5719
 0.5350	35.6366
 0.5340	35.7089
 0.5330	35.7732
 0.5320	35.8355
 0.5310	35.8961
 0.5300	35.9490
 0.5290	36.0027
 0.5280	36.0491
 0.5270	36.0925
 0.5260	36.1316
 0.5250	36.1756
 0.5240	36.2115
 0.5230	36.2500
 0.5220	36.2726
 0.5210	36.3053
 0.5200	36.3341
 0.5190	36.3487
 0.5180	36.3622
 0.5170	36.3807
 0.5160	36.3964
 0.5150	36.3938
 0.5140	36.4077
 0.5130	36.4053
 0.5120	36.4090
 0.5110	36.3927
 0.5100	36.3839
 0.5090	36.3753
 0.5080	36.3676
 0.5070	36.3476
 0.5060	36.3191
 0.5050	36.3063
 0.5040	36.2776
 0.5030	36.2574
 0.5020	36.2202
 0.5010	36.1906
 0.5000	36.1357
 0.4990	36.0989
 0.4980	36.0649
 0.4970	36.0153
 0.4960	35.9708
 0.4950	35.9143
 0.4940	35.8632
 0.4930	35.8277
 0.4920	35.7668
 0.4910	35.7326
 0.4900	35.6819
 0.4890	35.5974
 0.4880	35.5486
 0.4870	35.4775
 0.4860	35.4238
 0.4850	35.3492
 0.4840	35.2815
 0.4830	35.2097
 0.4820	35.1419
 0.4810	35.0679
 0.4800	34.9944
 0.4790	34.9069
 0.4780	34.8330
 0.4770	34.7485
 0.4760	34.6719
 0.4750	34.5894
 0.4740	34.5073
 0.4730	34.4388
 0.4720	34.3432
 0.4710	34.2590
 0.4700	34.1589
 0.4690	34.0760
 0.4680	33.9910
 0.4670	33.8984
 0.4660	33.8062
 0.4650	33.7106
 0.4640	33.6133
 0.4630	33.5207
 0.4620	33.4125
 0.4610	33.3052
 0.4600	33.1955
 0.4590	33.1086
 0.4580	33.0286
 0.4570	32.9044
 0.4560	32.7844
 0.4550	32.6509
 0.4540	32.5393
 0.4530	32.4006
 0.4520	32.2641
 0.4510	32.1250
 0.4500	31.9758
 0.4490	31.8317
 0.4480	31.6728
 0.4470	31.4984
 0.4460	31.3295
 0.4450	31.1491
 0.4440	30.9619
 0.4430	30.7735
 0.4420	30.5826
 0.4410	30.3821
 0.4400	30.1780
 0.4390	29.9764
 0.4380	29.7629
 0.4370	29.5474
 0.4360	29.3318
 0.4350	29.1071
 0.4340	28.8791
 0.4330	28.6523
 0.4320	28.4198
 0.4310	28.1944
 0.4300	27.9716
 0.4290	27.7529
 0.4280	27.5225
 0.4270	27.2890
 0.4260	27.0802
 0.4250	26.8593
 0.4240	26.6315
 0.4230	26.4061
 0.4220	26.1807
 0.4210	25.9522
 0.4200	25.7332
 0.4190	25.5109
 0.4180	25.2843
 0.4170	25.0620
 0.4160	24.8284
 0.4150	24.5921
 0.4140	24.3659
 0.4130	24.1340
 0.4120	23.8958
 0.4110	23.6520
 0.4100	23.4066
 0.4090	23.1647
 0.4080	22.9139
 0.4070	22.6543
 0.4060	22.3961
 0.4050	22.1282
 0.4040	21.8535
 0.4030	21.5739
 0.4020	21.2820
 0.4010	21.0076
 0.4000	20.7200
