Name: Diopside CaMg(SiO_3)_2
Type: Mineral
Class: Silicate
Subclass: Inosilicate
Particle Size: Fine
Sample No.: IN-9B
Owner: JPL
Wavelength Range: VSWIR
Origin: Canada, Quebec
Collection Date: N/A
Description: Particle size was 0-45um.Collected by Ward's Original ASTER Spectral Library name was jpl.beckman.mineral.silicate.inosilicate.fine.in09b.spectrum.txt
Measurement: Hemispherical reflectance
First Column: X
Second Column: Y
X Units: Wavelength (micrometers)
Y Units:Reflectance (percent)
First X Value:  0.4000
Last X Value:  2.5000
Number of X Values: 826
Additional Information: mineral.silicate.inosilicate.fine.vswir.in-9b.jpl.beckman.ancillary.txt

 0.4000	22.9800
 0.4010	23.2200
 0.4020	23.2500
 0.4030	23.4600
 0.4040	23.6300
 0.4050	23.6300
 0.4060	23.6700
 0.4070	23.7900
 0.4080	23.9300
 0.4090	23.9700
 0.4100	24.1500
 0.4110	24.1200
 0.4120	24.1800
 0.4130	24.4100
 0.4140	24.5100
 0.4150	24.6000
 0.4160	24.6600
 0.4170	24.6600
 0.4180	24.9400
 0.4190	24.9800
 0.4200	25.1200
 0.4210	25.2800
 0.4220	25.3200
 0.4230	25.5400
 0.4240	25.7300
 0.4250	25.8800
 0.4260	25.9700
 0.4270	26.0500
 0.4280	26.3000
 0.4290	26.4500
 0.4300	26.5700
 0.4310	26.6800
 0.4320	26.7300
 0.4330	26.9800
 0.4340	27.0300
 0.4350	27.2400
 0.4360	27.3100
 0.4370	27.4600
 0.4380	27.5900
 0.4390	27.7200
 0.4400	27.9700
 0.4410	27.9400
 0.4420	28.0900
 0.4430	28.2100
 0.4440	28.1800
 0.4450	28.4200
 0.4460	28.4200
 0.4470	28.4900
 0.4480	28.6700
 0.4490	28.6900
 0.4500	28.8500
 0.4510	28.8600
 0.4520	28.8300
 0.4530	29.0000
 0.4540	29.0300
 0.4550	29.1200
 0.4560	29.1200
 0.4570	29.1500
 0.4580	29.3500
 0.4590	29.3100
 0.4600	29.2200
 0.4610	29.4600
 0.4620	29.4200
 0.4630	29.4200
 0.4640	29.6200
 0.4650	29.6200
 0.4660	29.7600
 0.4670	29.7900
 0.4680	29.8600
 0.4690	29.9400
 0.4700	29.9200
 0.4710	30.1000
 0.4720	30.0400
 0.4730	30.1300
 0.4740	30.1700
 0.4750	30.1700
 0.4760	30.3500
 0.4770	30.3100
 0.4780	30.4700
 0.4790	30.5700
 0.4800	30.5600
 0.4810	30.7300
 0.4820	30.6900
 0.4830	30.8600
 0.4840	31.0000
 0.4850	30.9600
 0.4860	31.0800
 0.4870	31.2300
 0.4880	31.2600
 0.4890	31.5100
 0.4900	31.3900
 0.4910	31.5700
 0.4920	31.6300
 0.4930	31.7500
 0.4940	31.8000
 0.4950	31.8000
 0.4960	31.9200
 0.4970	31.9900
 0.4980	32.0800
 0.4990	32.2200
 0.5000	32.2200
 0.5010	32.2700
 0.5020	32.3800
 0.5030	32.4700
 0.5040	32.5100
 0.5050	32.5100
 0.5060	32.5500
 0.5070	32.6900
 0.5080	32.7600
 0.5090	32.8400
 0.5100	32.8600
 0.5110	32.9400
 0.5120	32.9400
 0.5130	33.1600
 0.5140	33.2400
 0.5150	33.0800
 0.5160	33.3400
 0.5170	33.2800
 0.5180	33.4400
 0.5190	33.5000
 0.5200	33.5000
 0.5210	33.6500
 0.5220	33.6500
 0.5230	33.7100
 0.5240	33.7700
 0.5250	33.8300
 0.5260	33.8700
 0.5270	33.8000
 0.5280	33.8600
 0.5290	33.9500
 0.5300	34.0100
 0.5310	34.0700
 0.5320	34.0000
 0.5330	34.0300
 0.5340	34.1300
 0.5350	34.0700
 0.5360	34.3100
 0.5370	34.1100
 0.5380	34.2500
 0.5390	34.2900
 0.5400	34.3400
 0.5410	34.3000
 0.5420	34.1900
 0.5430	34.2900
 0.5440	34.4800
 0.5450	34.3900
 0.5460	34.5100
 0.5470	34.4200
 0.5480	34.4300
 0.5490	34.3700
 0.5500	34.5000
 0.5510	34.5900
 0.5520	34.4900
 0.5530	34.5700
 0.5540	34.6800
 0.5550	34.6500
 0.5560	34.7000
 0.5570	34.5000
 0.5580	34.5400
 0.5590	34.7500
 0.5600	34.6200
 0.5610	34.8400
 0.5620	34.7900
 0.5630	34.8100
 0.5640	34.7900
 0.5650	34.8700
 0.5660	34.8900
 0.5670	34.9200
 0.5680	34.9000
 0.5690	34.9000
 0.5700	34.9100
 0.5710	34.9000
 0.5720	34.9000
 0.5730	34.8800
 0.5740	34.7200
 0.5750	34.8200
 0.5760	34.8700
 0.5770	34.9200
 0.5780	34.8900
 0.5790	34.8000
 0.5800	34.9300
 0.5810	34.9100
 0.5820	34.7300
 0.5830	34.8000
 0.5840	34.8300
 0.5850	35.0000
 0.5860	35.0600
 0.5870	34.8800
 0.5880	35.0800
 0.5890	34.8800
 0.5900	34.9600
 0.5910	35.0400
 0.5920	34.9900
 0.5930	35.0600
 0.5940	34.9600
 0.5950	34.9400
 0.5960	35.0200
 0.5970	34.9900
 0.5980	35.0000
 0.5990	35.0500
 0.6000	35.0100
 0.6010	35.0700
 0.6020	35.1300
 0.6030	35.1900
 0.6040	35.1000
 0.6050	35.0800
 0.6060	35.2500
 0.6070	35.1400
 0.6080	35.2000
 0.6090	35.1200
 0.6100	35.1400
 0.6110	35.1800
 0.6120	35.1500
 0.6130	35.1800
 0.6140	35.0200
 0.6150	35.1600
 0.6160	35.1200
 0.6170	35.0500
 0.6180	35.0900
 0.6190	35.0500
 0.6200	35.0600
 0.6210	35.1500
 0.6220	35.1400
 0.6230	35.1600
 0.6240	35.0800
 0.6250	35.1500
 0.6260	35.1900
 0.6270	35.2300
 0.6280	35.1200
 0.6290	35.1600
 0.6300	35.2400
 0.6310	35.2000
 0.6320	35.2300
 0.6330	35.2700
 0.6340	35.2500
 0.6350	35.2600
 0.6360	35.2400
 0.6370	35.1900
 0.6380	35.2700
 0.6390	35.2700
 0.6400	35.2800
 0.6410	35.2100
 0.6420	35.2700
 0.6430	35.3700
 0.6440	35.3700
 0.6450	35.3000
 0.6460	35.3400
 0.6470	35.2500
 0.6480	35.4200
 0.6490	35.3300
 0.6500	35.3700
 0.6510	35.3900
 0.6520	35.4100
 0.6530	35.4800
 0.6540	35.4400
 0.6550	35.5300
 0.6560	35.4800
 0.6570	35.5400
 0.6580	35.5600
 0.6590	35.5300
 0.6600	35.4800
 0.6610	35.5100
 0.6620	35.4800
 0.6630	35.6100
 0.6640	35.6200
 0.6650	35.5800
 0.6660	35.5900
 0.6670	35.5900
 0.6680	35.6700
 0.6690	35.6900
 0.6700	35.6200
 0.6710	35.7200
 0.6720	35.6000
 0.6730	35.7200
 0.6740	35.7100
 0.6750	35.6800
 0.6760	35.6700
 0.6770	35.6500
 0.6780	35.7800
 0.6790	35.8600
 0.6800	35.7400
 0.6810	35.7500
 0.6820	35.8000
 0.6830	35.8000
 0.6840	35.8800
 0.6850	35.7600
 0.6860	35.8800
 0.6870	35.7600
 0.6880	35.8800
 0.6890	35.8400
 0.6900	35.7500
 0.6910	35.8900
 0.6920	35.8700
 0.6930	35.8300
 0.6940	35.9900
 0.6950	35.8500
 0.6960	35.9300
 0.6970	35.8300
 0.6980	35.8400
 0.6990	36.0200
 0.7000	35.9000
 0.7010	35.9300
 0.7020	35.9500
 0.7030	36.0500
 0.7040	36.1600
 0.7050	36.2000
 0.7060	36.0600
 0.7070	36.0800
 0.7080	36.1900
 0.7090	36.2200
 0.7100	36.3200
 0.7110	36.0900
 0.7120	36.1600
 0.7130	36.2400
 0.7140	36.3300
 0.7150	36.3200
 0.7160	36.2200
 0.7170	36.2100
 0.7180	36.3500
 0.7190	36.2400
 0.7200	36.3200
 0.7210	36.3500
 0.7220	36.5600
 0.7230	36.4000
 0.7240	36.3300
 0.7250	36.4800
 0.7260	36.5000
 0.7270	36.4400
 0.7280	36.3700
 0.7290	36.4100
 0.7300	36.5500
 0.7310	36.5000
 0.7320	36.6100
 0.7330	36.5100
 0.7340	36.4800
 0.7350	36.6300
 0.7360	36.5500
 0.7370	36.6800
 0.7380	36.5100
 0.7390	36.6200
 0.7400	36.8000
 0.7410	36.7700
 0.7420	36.8000
 0.7430	36.6700
 0.7440	36.7100
 0.7450	36.9100
 0.7460	36.8700
 0.7470	37.0000
 0.7480	36.9000
 0.7490	36.9900
 0.7500	37.1400
 0.7510	37.1500
 0.7520	37.2200
 0.7530	37.2100
 0.7540	37.1800
 0.7550	37.2500
 0.7560	37.1900
 0.7570	37.1800
 0.7580	37.2400
 0.7590	37.2200
 0.7600	37.3100
 0.7610	37.3000
 0.7620	37.4200
 0.7630	37.4200
 0.7640	37.4000
 0.7650	37.5000
 0.7660	37.4400
 0.7670	37.5900
 0.7680	37.5100
 0.7690	37.6200
 0.7700	37.6800
 0.7710	37.6100
 0.7720	37.7100
 0.7730	37.5600
 0.7740	37.6600
 0.7750	37.7700
 0.7760	37.7000
 0.7770	37.7900
 0.7780	37.7300
 0.7790	37.7400
 0.7800	37.7800
 0.7810	37.7900
 0.7820	37.7100
 0.7830	37.7300
 0.7840	37.6800
 0.7850	37.7600
 0.7860	37.6900
 0.7870	37.6800
 0.7880	37.7900
 0.7890	37.8500
 0.7900	37.9400
 0.7910	37.9200
 0.7920	38.0100
 0.7930	38.0100
 0.7940	37.9600
 0.7950	37.9300
 0.7960	37.9700
 0.7970	37.9800
 0.7980	38.0300
 0.7990	37.9100
 0.8000	38.0400
 0.8040	38.0800
 0.8080	38.0500
 0.8120	38.1000
 0.8160	38.1000
 0.8200	38.1100
 0.8240	38.1400
 0.8280	38.1400
 0.8320	38.1100
 0.8360	38.1300
 0.8400	38.1100
 0.8440	38.2300
 0.8480	38.0900
 0.8520	38.1600
 0.8560	38.1000
 0.8600	38.1200
 0.8640	38.0700
 0.8680	38.1400
 0.8720	38.1800
 0.8760	38.1200
 0.8800	38.0800
 0.8840	38.1200
 0.8880	38.0500
 0.8920	38.0800
 0.8960	38.0700
 0.9000	38.0200
 0.9040	38.0200
 0.9080	38.0100
 0.9120	37.9000
 0.9160	37.9100
 0.9200	38.0000
 0.9240	37.9700
 0.9280	37.9800
 0.9320	37.9600
 0.9360	37.9700
 0.9400	37.9300
 0.9440	37.9100
 0.9480	37.8400
 0.9520	37.9000
 0.9560	37.8400
 0.9600	37.7500
 0.9640	37.7000
 0.9680	37.7200
 0.9720	37.5500
 0.9760	37.5400
 0.9800	37.4800
 0.9840	37.4200
 0.9880	37.3500
 0.9920	37.3700
 0.9960	37.2900
 1.0000	37.2600
 1.0040	37.2700
 1.0080	37.1900
 1.0120	37.1300
 1.0160	37.0800
 1.0200	37.0800
 1.0240	36.9200
 1.0280	36.9200
 1.0320	36.9900
 1.0360	36.9800
 1.0400	36.9200
 1.0440	36.9200
 1.0480	36.9300
 1.0520	37.0100
 1.0560	37.0300
 1.0600	37.0700
 1.0640	37.0900
 1.0680	37.2200
 1.0720	37.2500
 1.0760	37.4600
 1.0800	37.4900
 1.0840	37.6000
 1.0880	37.7200
 1.0920	37.9400
 1.0960	38.0300
 1.1000	38.1700
 1.1040	38.3700
 1.1080	38.4100
 1.1120	38.5500
 1.1160	38.7000
 1.1200	38.8100
 1.1240	38.9500
 1.1280	39.0500
 1.1320	39.2400
 1.1360	39.3200
 1.1400	39.4300
 1.1440	39.5000
 1.1480	39.6400
 1.1520	39.7200
 1.1560	39.8000
 1.1600	39.9200
 1.1640	40.0100
 1.1680	40.0900
 1.1720	40.1000
 1.1760	40.2600
 1.1800	40.3500
 1.1840	40.3800
 1.1880	40.4200
 1.1920	40.5300
 1.1960	40.6300
 1.2000	40.6900
 1.2040	40.7500
 1.2080	40.8600
 1.2120	40.8400
 1.2160	40.9800
 1.2200	41.0200
 1.2240	41.1100
 1.2280	41.1700
 1.2320	41.2200
 1.2360	41.2800
 1.2400	41.3500
 1.2440	41.3900
 1.2480	41.4900
 1.2520	41.5300
 1.2560	41.5800
 1.2600	41.6400
 1.2640	41.7000
 1.2680	41.7600
 1.2720	41.7400
 1.2760	41.8600
 1.2800	41.9100
 1.2840	41.9300
 1.2880	42.0600
 1.2920	42.0000
 1.2960	42.0900
 1.3000	42.1000
 1.3040	42.2200
 1.3080	42.2300
 1.3120	42.3000
 1.3160	42.3000
 1.3200	42.3400
 1.3240	42.4000
 1.3280	42.4300
 1.3320	42.4600
 1.3360	42.5600
 1.3400	42.4800
 1.3440	42.5400
 1.3480	42.6100
 1.3520	42.7400
 1.3560	42.7000
 1.3600	42.8300
 1.3640	42.7400
 1.3680	42.8000
 1.3720	42.8100
 1.3760	42.8000
 1.3800	42.8200
 1.3840	42.5700
 1.3880	42.4000
 1.3920	42.4100
 1.3960	42.4900
 1.4000	42.7200
 1.4040	42.8700
 1.4080	42.9700
 1.4120	42.9700
 1.4160	43.0100
 1.4200	43.0200
 1.4240	43.0900
 1.4280	43.0900
 1.4320	43.1200
 1.4360	43.1900
 1.4400	43.2400
 1.4440	43.3000
 1.4480	43.3200
 1.4520	43.4000
 1.4560	43.4300
 1.4600	43.4900
 1.4640	43.6100
 1.4680	43.5700
 1.4720	43.6100
 1.4760	43.6000
 1.4800	43.6600
 1.4840	43.7400
 1.4880	43.7400
 1.4920	43.8000
 1.4960	43.7900
 1.5000	43.7900
 1.5040	43.8300
 1.5080	43.8500
 1.5120	43.8500
 1.5160	43.8800
 1.5200	44.0000
 1.5240	43.9200
 1.5280	43.9800
 1.5320	44.0600
 1.5360	44.0600
 1.5400	44.0300
 1.5440	44.0800
 1.5480	44.0800
 1.5520	44.1200
 1.5560	44.1400
 1.5600	44.1700
 1.5640	44.2600
 1.5680	44.2300
 1.5720	44.2000
 1.5760	44.2600
 1.5800	44.2200
 1.5840	44.2500
 1.5880	44.3000
 1.5920	44.3300
 1.5960	44.3600
 1.6000	44.3700
 1.6040	44.3700
 1.6080	44.3300
 1.6120	44.3100
 1.6160	44.3900
 1.6200	44.3600
 1.6240	44.3500
 1.6280	44.3800
 1.6320	44.4000
 1.6360	44.4100
 1.6400	44.5100
 1.6440	44.4500
 1.6480	44.4800
 1.6520	44.5400
 1.6560	44.5000
 1.6600	44.4700
 1.6640	44.5200
 1.6680	44.5500
 1.6720	44.4800
 1.6760	44.5300
 1.6800	44.5300
 1.6840	44.5900
 1.6880	44.5900
 1.6920	44.5800
 1.6960	44.6600
 1.7000	44.5900
 1.7040	44.6400
 1.7080	44.6300
 1.7120	44.7200
 1.7160	44.6600
 1.7200	44.6300
 1.7240	44.6300
 1.7280	44.6700
 1.7320	44.6400
 1.7360	44.6700
 1.7400	44.6700
 1.7440	44.6100
 1.7480	44.6100
 1.7520	44.6100
 1.7560	44.6400
 1.7600	44.6100
 1.7640	44.6100
 1.7680	44.6400
 1.7720	44.6400
 1.7760	44.6100
 1.7800	44.5800
 1.7840	44.5400
 1.7880	44.5700
 1.7920	44.6300
 1.7960	44.5500
 1.8000	44.5900
 1.8040	44.6300
 1.8080	44.5500
 1.8120	44.5400
 1.8160	44.6400
 1.8200	44.5400
 1.8240	44.5500
 1.8280	44.5500
 1.8320	44.6000
 1.8360	44.5000
 1.8400	44.5100
 1.8440	44.4900
 1.8480	44.4800
 1.8520	44.5700
 1.8560	44.4800
 1.8600	44.4900
 1.8640	44.5200
 1.8680	44.4800
 1.8720	44.4800
 1.8760	44.4300
 1.8800	44.4500
 1.8840	44.4100
 1.8880	44.3100
 1.8920	44.2400
 1.8960	44.0900
 1.9000	44.1400
 1.9040	43.9700
 1.9080	43.9400
 1.9120	43.9700
 1.9160	43.9500
 1.9200	44.0200
 1.9240	44.0200
 1.9280	43.9500
 1.9320	44.0200
 1.9360	44.0400
 1.9400	44.0600
 1.9440	44.0700
 1.9480	44.1100
 1.9520	44.1100
 1.9560	44.1000
 1.9600	44.1500
 1.9640	44.1800
 1.9680	44.1400
 1.9720	44.1700
 1.9760	44.1700
 1.9800	44.1000
 1.9840	44.2400
 1.9880	44.1500
 1.9920	44.2700
 1.9960	44.2200
 2.0000	44.2900
 2.0040	44.3300
 2.0080	44.3700
 2.0120	44.3700
 2.0160	44.3700
 2.0200	44.4100
 2.0240	44.4600
 2.0280	44.4000
 2.0320	44.4300
 2.0360	44.4000
 2.0400	44.4100
 2.0440	44.4600
 2.0480	44.4000
 2.0520	44.3400
 2.0560	44.3800
 2.0600	44.3400
 2.0640	44.4000
 2.0680	44.3500
 2.0720	44.2500
 2.0760	44.2900
 2.0800	44.3900
 2.0840	44.2400
 2.0880	44.3200
 2.0920	44.2900
 2.0960	44.3400
 2.1000	44.3700
 2.1040	44.4100
 2.1080	44.4100
 2.1120	44.4800
 2.1160	44.4300
 2.1200	44.5500
 2.1240	44.4500
 2.1280	44.3800
 2.1320	44.3600
 2.1360	44.3300
 2.1400	44.2100
 2.1440	44.2000
 2.1480	44.1000
 2.1520	44.1100
 2.1560	44.1200
 2.1600	44.0200
 2.1640	43.9800
 2.1680	43.9800
 2.1720	43.9300
 2.1760	43.9100
 2.1800	43.9600
 2.1840	43.9500
 2.1880	43.9100
 2.1920	43.8200
 2.1960	43.8300
 2.2000	43.8100
 2.2040	43.7500
 2.2080	43.7500
 2.2120	43.7900
 2.2160	43.7200
 2.2200	43.7400
 2.2240	43.7400
 2.2280	43.7500
 2.2320	43.6800
 2.2360	43.6900
 2.2400	43.6600
 2.2440	43.6300
 2.2480	43.6000
 2.2520	43.6900
 2.2560	43.6500
 2.2600	43.5700
 2.2640	43.5900
 2.2680	43.5400
 2.2720	43.4500
 2.2760	43.4100
 2.2800	43.3100
 2.2840	43.1700
 2.2880	43.0000
 2.2920	42.9000
 2.2960	42.7600
 2.3000	42.6800
 2.3040	42.5600
 2.3080	42.4900
 2.3120	42.5300
 2.3160	42.5900
 2.3200	42.6400
 2.3240	42.7500
 2.3280	42.9800
 2.3320	43.0600
 2.3360	43.2100
 2.3400	43.2500
 2.3440	43.3700
 2.3480	43.3100
 2.3520	43.4300
 2.3560	43.3600
 2.3600	43.4200
 2.3640	43.3100
 2.3680	43.2800
 2.3720	43.3300
 2.3760	43.2100
 2.3800	43.2100
 2.3840	43.2200
 2.3880	43.1200
 2.3920	43.1900
 2.3960	43.1600
 2.4000	43.2000
 2.4040	43.2500
 2.4080	43.2600
 2.4120	43.3300
 2.4160	43.3200
 2.4200	43.3200
 2.4240	43.3400
 2.4280	43.2800
 2.4320	43.3300
 2.4360	43.3400
 2.4400	43.3300
 2.4440	43.3000
 2.4480	43.3200
 2.4520	43.2900
 2.4560	43.3400
 2.4600	43.3400
 2.4640	43.3600
 2.4680	43.3000
 2.4720	43.3300
 2.4760	43.2700
 2.4800	43.3400
 2.4840	43.4500
 2.4880	43.5400
 2.4920	43.5900
 2.4960	43.6700
 2.5000	43.7800
