Name: Colemanite Ca_2B_6O_11.5H_2O
Type: Mineral
Class: Borate
Subclass: None
Particle Size: Coarse
Sample No.: B-1A
Owner: JPL
Wavelength Range: VSWIR
Origin: USA, California, Kern County, Boron.
Collection Date: N/A
Description: Particle size was 125-500um.Collected by:  Burminco Original ASTER Spectral Library name was jpl.perkin.mineral.borate.none.coarse.b01a.spectrum.txt
Measurement: Hemispherical reflectance
First Column: X
Second Column: Y
X Units: Wavelength (micrometers)
Y Units:Reflectance (percent)
First X Value:  2.5000
Last X Value:  0.4000
Number of X Values: 2101
Additional Information: mineral.borate.none.coarse.vswir.b-1a.jpl.perkin.ancillary.txt

 2.5000	 3.4739
 2.4990	 3.7892
 2.4980	 3.5996
 2.4970	 4.0376
 2.4960	 3.3394
 2.4950	 3.7363
 2.4940	 3.4857
 2.4930	 3.8516
 2.4920	 3.5783
 2.4910	 3.6761
 2.4900	 3.6910
 2.4890	 3.8194
 2.4880	 3.7243
 2.4870	 3.7602
 2.4860	 3.7201
 2.4850	 3.8236
 2.4840	 3.5944
 2.4830	 3.7952
 2.4820	 3.6229
 2.4810	 3.6907
 2.4800	 3.6683
 2.4790	 3.8030
 2.4780	 3.6383
 2.4770	 3.9309
 2.4760	 3.6277
 2.4750	 3.7131
 2.4740	 3.8157
 2.4730	 3.7185
 2.4720	 3.6275
 2.4710	 3.7088
 2.4700	 3.6398
 2.4690	 3.7092
 2.4680	 3.7144
 2.4670	 3.8308
 2.4660	 3.7134
 2.4650	 3.8239
 2.4640	 3.7113
 2.4630	 3.7676
 2.4620	 3.6125
 2.4610	 3.6993
 2.4600	 3.5854
 2.4590	 3.7950
 2.4580	 3.6957
 2.4570	 3.7714
 2.4560	 3.7502
 2.4550	 3.7512
 2.4540	 3.7176
 2.4530	 3.7797
 2.4520	 3.5667
 2.4510	 3.9178
 2.4500	 3.7872
 2.4490	 3.8293
 2.4480	 3.7293
 2.4470	 3.8255
 2.4460	 3.7114
 2.4450	 3.9337
 2.4440	 3.8020
 2.4430	 3.9702
 2.4420	 3.7481
 2.4410	 3.9684
 2.4400	 3.8774
 2.4390	 4.0576
 2.4380	 3.8590
 2.4370	 4.0249
 2.4360	 3.9758
 2.4350	 4.0977
 2.4340	 3.9724
 2.4330	 4.0816
 2.4320	 3.9473
 2.4310	 4.1460
 2.4300	 4.0060
 2.4290	 4.1129
 2.4280	 4.0775
 2.4270	 4.1842
 2.4260	 4.0815
 2.4250	 4.2608
 2.4240	 4.1756
 2.4230	 4.2915
 2.4220	 4.2039
 2.4210	 4.2482
 2.4200	 4.2477
 2.4190	 4.4213
 2.4180	 4.3933
 2.4170	 4.4630
 2.4160	 4.3779
 2.4150	 4.4626
 2.4140	 4.3927
 2.4130	 4.5380
 2.4120	 4.4727
 2.4110	 4.6255
 2.4100	 4.5136
 2.4090	 4.6666
 2.4080	 4.5684
 2.4070	 4.6685
 2.4060	 4.7535
 2.4050	 4.7883
 2.4040	 4.8475
 2.4030	 4.9610
 2.4020	 4.9398
 2.4010	 5.0355
 2.4000	 5.0557
 2.3990	 5.1843
 2.3980	 5.2141
 2.3970	 5.2237
 2.3960	 5.2880
 2.3950	 5.4294
 2.3940	 5.4884
 2.3930	 5.5523
 2.3920	 5.4799
 2.3910	 5.6272
 2.3900	 5.6892
 2.3890	 5.8100
 2.3880	 5.8938
 2.3870	 5.9474
 2.3860	 6.0138
 2.3850	 6.1503
 2.3840	 6.1452
 2.3830	 6.2704
 2.3820	 6.2952
 2.3810	 6.4142
 2.3800	 6.4393
 2.3790	 6.5409
 2.3780	 6.6458
 2.3770	 6.7839
 2.3760	 6.8333
 2.3750	 6.8858
 2.3740	 6.9650
 2.3730	 7.0443
 2.3720	 7.1315
 2.3710	 7.2857
 2.3700	 7.3704
 2.3690	 7.4950
 2.3680	 7.5381
 2.3670	 7.6195
 2.3660	 7.6571
 2.3650	 7.7618
 2.3640	 7.8643
 2.3630	 7.9947
 2.3620	 8.0627
 2.3610	 8.1157
 2.3600	 8.2383
 2.3590	 8.3542
 2.3580	 8.4191
 2.3570	 8.4905
 2.3560	 8.5867
 2.3550	 8.7027
 2.3540	 8.7922
 2.3530	 8.8836
 2.3520	 8.9489
 2.3510	 9.0210
 2.3500	 9.0784
 2.3490	 9.1674
 2.3480	 9.2105
 2.3470	 9.2934
 2.3460	 9.3753
 2.3450	 9.4345
 2.3440	 9.5324
 2.3430	 9.5945
 2.3420	 9.6789
 2.3410	 9.7325
 2.3400	 9.7971
 2.3390	 9.7858
 2.3380	 9.8492
 2.3370	 9.8763
 2.3360	 9.9573
 2.3350	10.0614
 2.3340	10.1443
 2.3330	10.1428
 2.3320	10.2274
 2.3310	10.3145
 2.3300	10.3667
 2.3290	10.4078
 2.3280	10.4270
 2.3270	10.4777
 2.3260	10.5495
 2.3250	10.5951
 2.3240	10.7138
 2.3230	10.7321
 2.3220	10.7466
 2.3210	10.8012
 2.3200	10.8840
 2.3190	10.9197
 2.3180	10.9714
 2.3170	10.9464
 2.3160	11.0042
 2.3150	11.0551
 2.3140	11.1599
 2.3130	11.1425
 2.3120	11.2205
 2.3110	11.2329
 2.3100	11.2929
 2.3090	11.2603
 2.3080	11.2911
 2.3070	11.3371
 2.3060	11.3562
 2.3050	11.3203
 2.3040	11.3692
 2.3030	11.3040
 2.3020	11.3432
 2.3010	11.3501
 2.3000	11.3943
 2.2990	11.3413
 2.2980	11.3913
 2.2970	11.3344
 2.2960	11.3854
 2.2950	11.3326
 2.2940	11.3789
 2.2930	11.3529
 2.2920	11.4647
 2.2910	11.3861
 2.2900	11.4098
 2.2890	11.3446
 2.2880	11.3627
 2.2870	11.3192
 2.2860	11.3704
 2.2850	11.2605
 2.2840	11.2530
 2.2830	11.2300
 2.2820	11.2497
 2.2810	11.1917
 2.2800	11.1756
 2.2790	11.1288
 2.2780	11.2002
 2.2770	11.0494
 2.2760	10.9995
 2.2750	11.0523
 2.2740	10.9884
 2.2730	10.9052
 2.2720	10.9016
 2.2710	10.7983
 2.2700	10.8220
 2.2690	10.7215
 2.2680	10.7263
 2.2670	10.5923
 2.2660	10.6739
 2.2650	10.5848
 2.2640	10.6186
 2.2630	10.5028
 2.2620	10.5420
 2.2610	10.3882
 2.2600	10.4567
 2.2590	10.4065
 2.2580	10.3017
 2.2570	10.2437
 2.2560	10.3099
 2.2550	10.2050
 2.2540	10.2114
 2.2530	10.0831
 2.2520	10.0385
 2.2510	 9.9418
 2.2500	 9.9399
 2.2490	 9.7415
 2.2480	 9.8250
 2.2470	 9.7173
 2.2460	 9.6301
 2.2450	 9.4606
 2.2440	 9.5610
 2.2430	 9.3196
 2.2420	 9.3258
 2.2410	 9.1603
 2.2400	 9.1537
 2.2390	 8.9823
 2.2380	 8.9798
 2.2370	 8.8569
 2.2360	 8.8292
 2.2350	 8.6496
 2.2340	 8.6597
 2.2330	 8.5371
 2.2320	 8.5345
 2.2310	 8.4209
 2.2300	 8.3645
 2.2290	 8.2837
 2.2280	 8.3733
 2.2270	 8.1492
 2.2260	 8.1725
 2.2250	 8.0275
 2.2240	 8.0569
 2.2230	 7.9127
 2.2220	 7.9763
 2.2210	 7.8059
 2.2200	 7.8282
 2.2190	 7.5468
 2.2180	 7.7504
 2.2170	 7.5445
 2.2160	 7.5096
 2.2150	 7.4452
 2.2140	 7.3832
 2.2130	 7.2477
 2.2120	 7.3338
 2.2110	 6.8988
 2.2100	 7.1926
 2.2090	 6.9579
 2.2080	 6.9941
 2.2070	 6.8700
 2.2060	 6.9178
 2.2050	 6.7629
 2.2040	 6.9377
 2.2030	 6.7341
 2.2020	 6.8516
 2.2010	 6.6732
 2.2000	 6.7919
 2.1990	 6.8117
 2.1980	 6.9419
 2.1970	 6.8240
 2.1960	 6.9587
 2.1950	 6.8966
 2.1940	 7.0740
 2.1930	 7.0382
 2.1920	 7.1018
 2.1910	 7.0553
 2.1900	 7.2926
 2.1890	 7.2250
 2.1880	 7.4034
 2.1870	 7.3440
 2.1860	 7.4052
 2.1850	 7.3634
 2.1840	 7.5709
 2.1830	 7.5207
 2.1820	 7.6389
 2.1810	 7.6170
 2.1800	 7.7129
 2.1790	 7.6297
 2.1780	 7.8342
 2.1770	 7.7095
 2.1760	 7.7945
 2.1750	 7.7812
 2.1740	 7.8015
 2.1730	 7.7895
 2.1720	 7.8699
 2.1710	 7.8095
 2.1700	 7.9469
 2.1690	 7.8660
 2.1680	 8.0450
 2.1670	 7.9716
 2.1660	 8.0793
 2.1650	 8.0848
 2.1640	 8.1572
 2.1630	 8.1224
 2.1620	 8.2295
 2.1610	 8.3269
 2.1600	 8.3601
 2.1590	 8.4058
 2.1580	 8.5549
 2.1570	 8.5230
 2.1560	 8.7513
 2.1550	 8.6613
 2.1540	 8.8487
 2.1530	 8.8679
 2.1520	 9.0459
 2.1510	 9.0250
 2.1500	 9.2134
 2.1490	 9.2582
 2.1480	 9.3687
 2.1470	 9.2964
 2.1460	 9.4706
 2.1450	 9.4769
 2.1440	 9.5780
 2.1430	 9.4946
 2.1420	 9.5726
 2.1410	 9.5108
 2.1400	 9.5865
 2.1390	 9.4357
 2.1380	 9.4783
 2.1370	 9.3155
 2.1360	 9.3509
 2.1350	 9.2616
 2.1340	 9.1877
 2.1330	 8.9993
 2.1320	 8.9791
 2.1310	 8.7870
 2.1300	 8.6722
 2.1290	 8.5522
 2.1280	 8.4623
 2.1270	 8.2719
 2.1260	 8.0871
 2.1250	 7.8976
 2.1240	 7.7992
 2.1230	 7.6356
 2.1220	 7.4983
 2.1210	 7.3302
 2.1200	 7.2129
 2.1190	 6.9997
 2.1180	 6.9071
 2.1170	 6.7073
 2.1160	 6.6143
 2.1150	 6.5155
 2.1140	 6.3637
 2.1130	 6.2636
 2.1120	 6.2448
 2.1110	 6.1466
 2.1100	 6.0953
 2.1090	 5.9655
 2.1080	 6.0008
 2.1070	 5.9859
 2.1060	 6.0199
 2.1050	 6.0394
 2.1040	 6.0560
 2.1030	 6.0847
 2.1020	 6.1893
 2.1010	 6.2857
 2.1000	 6.4291
 2.0990	 6.5194
 2.0980	 6.7008
 2.0970	 6.9249
 2.0960	 7.1719
 2.0950	 7.4189
 2.0940	 7.7003
 2.0930	 7.9597
 2.0920	 8.3025
 2.0910	 8.6573
 2.0900	 9.0068
 2.0890	 9.3259
 2.0880	 9.6161
 2.0870	 9.9069
 2.0860	10.2442
 2.0850	10.5435
 2.0840	10.8822
 2.0830	11.0261
 2.0820	11.2011
 2.0810	11.4954
 2.0800	11.6318
 2.0790	11.7560
 2.0780	11.9170
 2.0770	12.0346
 2.0760	12.1486
 2.0750	12.1936
 2.0740	12.2450
 2.0730	12.3091
 2.0720	12.3679
 2.0710	12.4133
 2.0700	12.5185
 2.0690	12.5737
 2.0680	12.5624
 2.0670	12.5748
 2.0660	12.6073
 2.0650	12.6210
 2.0640	12.6301
 2.0630	12.6701
 2.0620	12.6805
 2.0610	12.6879
 2.0600	12.7269
 2.0590	12.7746
 2.0580	12.7910
 2.0570	12.8316
 2.0560	12.7731
 2.0550	12.8514
 2.0540	12.8784
 2.0530	12.8981
 2.0520	12.9206
 2.0510	12.9606
 2.0500	12.8526
 2.0490	12.9286
 2.0480	12.9250
 2.0470	12.9651
 2.0460	12.9733
 2.0450	12.9569
 2.0440	12.9127
 2.0430	12.9540
 2.0420	12.9150
 2.0410	12.8700
 2.0400	12.8122
 2.0390	12.8591
 2.0380	12.8329
 2.0370	12.8269
 2.0360	12.8033
 2.0350	12.7885
 2.0340	12.7466
 2.0330	12.6944
 2.0320	12.7014
 2.0310	12.6905
 2.0300	12.6323
 2.0290	12.6754
 2.0280	12.6140
 2.0270	12.6223
 2.0260	12.5868
 2.0250	12.6406
 2.0240	12.5511
 2.0230	12.5830
 2.0220	12.5713
 2.0210	12.5669
 2.0200	12.4993
 2.0190	12.5688
 2.0180	12.4591
 2.0170	12.4851
 2.0160	12.4696
 2.0150	12.4735
 2.0140	12.3756
 2.0130	12.4286
 2.0120	12.3688
 2.0110	12.3386
 2.0100	12.2507
 2.0090	12.2463
 2.0080	12.2097
 2.0070	12.1942
 2.0060	12.0848
 2.0050	12.1159
 2.0040	12.0430
 2.0030	12.0721
 2.0020	11.9211
 2.0010	11.9932
 2.0000	11.9427
 1.9990	11.9668
 1.9980	11.8508
 1.9970	11.8182
 1.9960	11.7895
 1.9950	11.8198
 1.9940	11.7799
 1.9930	11.8302
 1.9920	11.7139
 1.9910	11.6857
 1.9900	11.6787
 1.9890	11.6624
 1.9880	11.5853
 1.9870	11.6397
 1.9860	11.5537
 1.9850	11.5845
 1.9840	11.4533
 1.9830	11.4220
 1.9820	11.3742
 1.9810	11.4188
 1.9800	11.2505
 1.9790	11.3052
 1.9780	11.2464
 1.9770	11.2333
 1.9760	11.1600
 1.9750	11.2497
 1.9740	11.0899
 1.9730	11.1722
 1.9720	10.9830
 1.9710	11.0401
 1.9700	11.0106
 1.9690	11.0224
 1.9680	10.9457
 1.9670	10.9036
 1.9660	10.8879
 1.9650	10.9038
 1.9640	10.7658
 1.9630	10.9257
 1.9620	10.8039
 1.9610	10.8091
 1.9600	10.7978
 1.9590	10.8959
 1.9580	10.7633
 1.9570	10.9317
 1.9560	10.8507
 1.9550	11.0074
 1.9540	10.8790
 1.9530	11.1451
 1.9520	11.0023
 1.9510	11.1443
 1.9500	11.2228
 1.9490	11.4673
 1.9480	11.3701
 1.9470	11.6215
 1.9460	11.6209
 1.9450	11.8418
 1.9440	11.9319
 1.9430	12.1636
 1.9420	12.1870
 1.9410	12.4863
 1.9400	12.4988
 1.9390	12.7993
 1.9380	12.8922
 1.9370	13.2792
 1.9360	13.3155
 1.9350	13.6210
 1.9340	13.7040
 1.9330	14.0179
 1.9320	14.1960
 1.9310	14.4024
 1.9300	14.5380
 1.9290	14.9150
 1.9280	14.9906
 1.9270	15.4689
 1.9260	15.2943
 1.9250	15.7497
 1.9240	15.8406
 1.9230	16.2082
 1.9220	16.4118
 1.9210	16.6289
 1.9200	16.8067
 1.9190	17.0406
 1.9180	17.2159
 1.9170	17.6677
 1.9160	17.7056
 1.9150	17.9593
 1.9140	18.0703
 1.9130	18.4020
 1.9120	18.4921
 1.9110	18.7416
 1.9100	18.9230
 1.9090	19.1677
 1.9080	19.2955
 1.9070	19.5184
 1.9060	19.7179
 1.9050	19.8713
 1.9040	19.9925
 1.9030	20.3111
 1.9020	20.3024
 1.9010	20.6909
 1.9000	20.7545
 1.8990	20.9447
 1.8980	21.0027
 1.8970	21.3357
 1.8960	21.4137
 1.8950	21.6437
 1.8940	21.7380
 1.8930	21.9183
 1.8920	21.9835
 1.8910	22.1476
 1.8900	22.2014
 1.8890	22.3338
 1.8880	22.4173
 1.8870	22.6128
 1.8860	22.6773
 1.8850	22.8118
 1.8840	22.8328
 1.8830	23.0479
 1.8820	23.0406
 1.8810	23.2239
 1.8800	23.2724
 1.8790	23.4268
 1.8780	23.4642
 1.8770	23.6089
 1.8760	23.5883
 1.8750	23.7162
 1.8740	23.7739
 1.8730	23.8489
 1.8720	23.8617
 1.8710	23.9982
 1.8700	23.9902
 1.8690	24.1881
 1.8680	24.1710
 1.8670	24.3001
 1.8660	24.3900
 1.8650	24.5474
 1.8640	24.4976
 1.8630	24.6707
 1.8620	24.5905
 1.8610	24.7091
 1.8600	24.7396
 1.8590	24.7601
 1.8580	24.7607
 1.8570	24.8685
 1.8560	24.8143
 1.8550	24.8709
 1.8540	24.8618
 1.8530	24.9542
 1.8520	24.9239
 1.8510	24.9056
 1.8500	24.9023
 1.8490	25.0068
 1.8480	24.9964
 1.8470	24.9924
 1.8460	24.9558
 1.8450	25.0920
 1.8440	25.0465
 1.8430	25.0820
 1.8420	24.9619
 1.8410	25.0261
 1.8400	24.9875
 1.8390	25.0083
 1.8380	24.9490
 1.8370	24.9748
 1.8360	24.9402
 1.8350	24.9050
 1.8340	24.9594
 1.8330	25.0047
 1.8320	24.9851
 1.8310	25.0208
 1.8300	24.9940
 1.8290	24.9015
 1.8280	24.8603
 1.8270	24.9372
 1.8260	24.9403
 1.8250	24.9660
 1.8240	24.9068
 1.8230	24.9180
 1.8220	24.9090
 1.8210	24.8361
 1.8200	24.7866
 1.8190	24.7883
 1.8180	24.7957
 1.8170	24.8628
 1.8160	24.8453
 1.8150	24.8534
 1.8140	24.8251
 1.8130	24.8620
 1.8120	24.8169
 1.8110	24.8141
 1.8100	24.8114
 1.8090	24.8297
 1.8080	24.8007
 1.8070	24.7934
 1.8060	24.8031
 1.8050	24.8328
 1.8040	24.8072
 1.8030	24.7870
 1.8020	24.8088
 1.8010	24.8035
 1.8000	24.7595
 1.7990	24.8040
 1.7980	24.7805
 1.7970	24.8056
 1.7960	24.8391
 1.7950	24.8803
 1.7940	24.8842
 1.7930	24.8504
 1.7920	24.8471
 1.7910	24.8928
 1.7900	24.9077
 1.7890	24.9066
 1.7880	24.8437
 1.7870	24.7812
 1.7860	24.8060
 1.7850	24.8220
 1.7840	24.8405
 1.7830	24.8541
 1.7820	24.8294
 1.7810	24.8048
 1.7800	24.8273
 1.7790	24.8137
 1.7780	24.8173
 1.7770	24.8247
 1.7760	24.8497
 1.7750	24.8474
 1.7740	24.8481
 1.7730	24.8388
 1.7720	24.8510
 1.7710	24.8586
 1.7700	24.8327
 1.7690	24.8168
 1.7680	24.8795
 1.7670	24.8887
 1.7660	24.9170
 1.7650	24.9174
 1.7640	24.8924
 1.7630	24.9312
 1.7620	24.9383
 1.7610	24.9445
 1.7600	24.9832
 1.7590	24.9733
 1.7580	24.9931
 1.7570	25.0188
 1.7560	25.0934
 1.7550	25.0944
 1.7540	25.1120
 1.7530	25.0975
 1.7520	25.2081
 1.7510	25.2003
 1.7500	25.2323
 1.7490	25.2704
 1.7480	25.2914
 1.7470	25.3123
 1.7460	25.3416
 1.7450	25.3677
 1.7440	25.3643
 1.7430	25.3476
 1.7420	25.4213
 1.7410	25.4043
 1.7400	25.4509
 1.7390	25.4485
 1.7380	25.4936
 1.7370	25.4266
 1.7360	25.4568
 1.7350	25.4207
 1.7340	25.4691
 1.7330	25.4602
 1.7320	25.5113
 1.7310	25.4687
 1.7300	25.5143
 1.7290	25.4306
 1.7280	25.4476
 1.7270	25.3853
 1.7260	25.4092
 1.7250	25.3605
 1.7240	25.4021
 1.7230	25.3243
 1.7220	25.3780
 1.7210	25.3062
 1.7200	25.2979
 1.7190	25.2080
 1.7180	25.2292
 1.7170	25.1690
 1.7160	25.1605
 1.7150	25.0091
 1.7140	25.0289
 1.7130	24.9819
 1.7120	24.9796
 1.7110	24.8392
 1.7100	24.8807
 1.7090	24.7880
 1.7080	24.8028
 1.7070	24.6710
 1.7060	24.6995
 1.7050	24.5538
 1.7040	24.5675
 1.7030	24.4789
 1.7020	24.4744
 1.7010	24.4471
 1.7000	24.3989
 1.6990	24.2399
 1.6980	24.3407
 1.6970	24.2305
 1.6960	24.1993
 1.6950	24.0812
 1.6940	24.1381
 1.6930	24.0154
 1.6920	24.0178
 1.6910	23.9653
 1.6900	24.0036
 1.6890	23.9439
 1.6880	23.9811
 1.6870	23.9041
 1.6860	23.9181
 1.6850	23.8057
 1.6840	23.8512
 1.6830	23.8200
 1.6820	23.8135
 1.6810	23.7353
 1.6800	23.7969
 1.6790	23.6961
 1.6780	23.7776
 1.6770	23.6683
 1.6760	23.7594
 1.6750	23.6114
 1.6740	23.6661
 1.6730	23.5925
 1.6720	23.6620
 1.6710	23.6111
 1.6700	23.6835
 1.6690	23.7855
 1.6680	23.4754
 1.6670	23.5988
 1.6660	23.6761
 1.6650	23.6057
 1.6640	23.6614
 1.6630	23.5926
 1.6620	23.6677
 1.6610	23.6707
 1.6600	23.6809
 1.6590	23.5694
 1.6580	23.7488
 1.6570	23.7133
 1.6560	23.8855
 1.6550	23.8314
 1.6540	23.8699
 1.6530	23.8142
 1.6520	23.9641
 1.6510	23.9660
 1.6500	24.0379
 1.6490	24.0958
 1.6480	24.2472
 1.6470	24.1832
 1.6460	24.3067
 1.6450	24.3243
 1.6440	24.4893
 1.6430	24.5099
 1.6420	24.7731
 1.6410	24.5998
 1.6400	24.9139
 1.6390	24.9259
 1.6380	25.0724
 1.6370	25.0814
 1.6360	25.2957
 1.6350	25.2623
 1.6340	25.4959
 1.6330	25.4934
 1.6320	25.7806
 1.6310	25.7441
 1.6300	25.9533
 1.6290	25.9229
 1.6280	26.2313
 1.6270	26.1716
 1.6260	26.4125
 1.6250	26.3550
 1.6240	26.7487
 1.6230	26.7449
 1.6220	26.9604
 1.6210	27.0192
 1.6200	27.2425
 1.6190	27.2586
 1.6180	27.5314
 1.6170	27.5439
 1.6160	27.7748
 1.6150	27.8503
 1.6140	28.0787
 1.6130	28.1162
 1.6120	28.3410
 1.6110	28.3791
 1.6100	28.5586
 1.6090	28.6341
 1.6080	28.8273
 1.6070	28.8524
 1.6060	29.0761
 1.6050	29.1518
 1.6040	29.3239
 1.6030	29.3786
 1.6020	29.5172
 1.6010	29.5755
 1.6000	29.6956
 1.5990	29.7857
 1.5980	29.9223
 1.5970	29.9106
 1.5960	30.0963
 1.5950	30.0928
 1.5940	30.2651
 1.5930	30.2951
 1.5920	30.4090
 1.5910	30.3873
 1.5900	30.4812
 1.5890	30.4734
 1.5880	30.5066
 1.5870	30.5149
 1.5860	30.6118
 1.5850	30.5664
 1.5840	30.6260
 1.5830	30.4824
 1.5820	30.5722
 1.5810	30.4855
 1.5800	30.5091
 1.5790	30.4740
 1.5780	30.4243
 1.5770	30.3479
 1.5760	30.3910
 1.5750	30.3135
 1.5740	30.3026
 1.5730	30.2513
 1.5720	30.2720
 1.5710	30.2057
 1.5700	30.2016
 1.5690	30.1477
 1.5680	30.1669
 1.5670	30.1728
 1.5660	30.1574
 1.5650	30.0995
 1.5640	30.1034
 1.5630	30.0862
 1.5620	30.1187
 1.5610	30.0733
 1.5600	30.1022
 1.5590	30.1024
 1.5580	30.1965
 1.5570	30.1840
 1.5560	30.2204
 1.5550	30.2308
 1.5540	30.2953
 1.5530	30.2790
 1.5520	30.3046
 1.5510	30.3713
 1.5500	30.4610
 1.5490	30.5205
 1.5480	30.5969
 1.5470	30.6686
 1.5460	30.8612
 1.5450	31.0157
 1.5440	31.1467
 1.5430	31.2404
 1.5420	31.4406
 1.5410	31.5197
 1.5400	31.6882
 1.5390	31.9212
 1.5380	32.0455
 1.5370	32.1876
 1.5360	32.4278
 1.5350	32.5746
 1.5340	32.7768
 1.5330	32.8918
 1.5320	33.0710
 1.5310	33.2262
 1.5300	33.3939
 1.5290	33.5447
 1.5280	33.7046
 1.5270	33.8509
 1.5260	34.0004
 1.5250	34.0805
 1.5240	34.3039
 1.5230	34.4272
 1.5220	34.5738
 1.5210	34.6890
 1.5200	34.8533
 1.5190	35.0017
 1.5180	35.1895
 1.5170	35.3270
 1.5160	35.4272
 1.5150	35.5454
 1.5140	35.7206
 1.5130	35.8429
 1.5120	35.9826
 1.5110	36.0839
 1.5100	36.2058
 1.5090	36.3290
 1.5080	36.4811
 1.5070	36.5773
 1.5060	36.5991
 1.5050	36.6899
 1.5040	36.8141
 1.5030	36.8913
 1.5020	36.9539
 1.5010	37.0212
 1.5000	37.1404
 1.4990	37.2719
 1.4980	37.3805
 1.4970	37.4984
 1.4960	37.5651
 1.4950	37.6296
 1.4940	37.7125
 1.4930	37.7710
 1.4920	37.7848
 1.4910	37.8843
 1.4900	37.9769
 1.4890	38.0697
 1.4880	38.1286
 1.4870	38.1649
 1.4860	38.2102
 1.4850	38.2144
 1.4840	38.2863
 1.4830	38.2819
 1.4820	38.2486
 1.4810	38.2695
 1.4800	38.2650
 1.4790	38.2554
 1.4780	38.2130
 1.4770	38.1535
 1.4760	38.0384
 1.4750	37.9798
 1.4740	37.9253
 1.4730	37.8172
 1.4720	37.6335
 1.4710	37.4977
 1.4700	37.3260
 1.4690	37.1930
 1.4680	37.0368
 1.4670	36.8986
 1.4660	36.7064
 1.4650	36.4908
 1.4640	36.3286
 1.4630	36.1683
 1.4620	35.9399
 1.4610	35.7774
 1.4600	35.5997
 1.4590	35.4451
 1.4580	35.2204
 1.4570	35.0246
 1.4560	34.7855
 1.4550	34.6545
 1.4540	34.4752
 1.4530	34.3348
 1.4520	34.1198
 1.4510	33.9781
 1.4500	33.8740
 1.4490	33.7564
 1.4480	33.5951
 1.4470	33.5630
 1.4460	33.4817
 1.4450	33.5086
 1.4440	33.5059
 1.4430	33.6237
 1.4420	33.7344
 1.4410	33.8754
 1.4400	33.9550
 1.4390	34.0431
 1.4380	34.1082
 1.4370	34.0650
 1.4360	33.9265
 1.4350	33.6730
 1.4340	33.0651
 1.4330	32.3842
 1.4320	31.3604
 1.4310	30.1214
 1.4300	28.6903
 1.4290	27.0759
 1.4280	25.4174
 1.4270	23.9973
 1.4260	22.5575
 1.4250	21.4954
 1.4240	20.7474
 1.4230	20.3189
 1.4220	20.1465
 1.4210	20.3658
 1.4200	20.6813
 1.4190	21.2862
 1.4180	21.9142
 1.4170	22.8044
 1.4160	23.8647
 1.4150	25.1776
 1.4140	26.5320
 1.4130	27.8342
 1.4120	29.2052
 1.4110	30.6322
 1.4100	31.9902
 1.4090	33.3400
 1.4080	34.5985
 1.4070	35.7855
 1.4060	36.9557
 1.4050	38.2389
 1.4040	39.2865
 1.4030	40.5015
 1.4020	41.5282
 1.4010	42.6762
 1.4000	43.7397
 1.3990	44.8025
 1.3980	45.6729
 1.3970	46.6342
 1.3960	47.4718
 1.3950	48.2918
 1.3940	48.9228
 1.3930	49.6264
 1.3920	50.1863
 1.3910	50.7950
 1.3900	51.2019
 1.3890	51.7675
 1.3880	52.2445
 1.3870	52.6721
 1.3860	53.1053
 1.3850	53.6629
 1.3840	54.1919
 1.3830	54.7074
 1.3820	55.1945
 1.3810	55.6808
 1.3800	56.0854
 1.3790	56.5201
 1.3780	56.8559
 1.3770	57.3161
 1.3760	57.5144
 1.3750	57.8596
 1.3740	58.1688
 1.3730	58.4952
 1.3720	58.7308
 1.3710	59.0223
 1.3700	59.2186
 1.3690	59.5978
 1.3680	59.6937
 1.3670	59.9894
 1.3660	60.1329
 1.3650	60.3841
 1.3640	60.4118
 1.3630	60.7310
 1.3620	60.7634
 1.3610	61.0246
 1.3600	61.1429
 1.3590	61.3480
 1.3580	61.5317
 1.3570	61.7888
 1.3560	61.8997
 1.3550	62.0000
 1.3540	62.2244
 1.3530	62.4380
 1.3520	62.6194
 1.3510	62.6847
 1.3500	62.7105
 1.3490	62.8292
 1.3480	62.7769
 1.3470	62.8876
 1.3460	62.8738
 1.3450	62.9906
 1.3440	62.8845
 1.3430	63.0102
 1.3420	62.9265
 1.3410	62.9294
 1.3400	62.9953
 1.3390	63.0579
 1.3380	63.0857
 1.3370	63.2305
 1.3360	63.3148
 1.3350	63.4618
 1.3340	63.5349
 1.3330	63.8114
 1.3320	63.9406
 1.3310	64.1551
 1.3300	64.3701
 1.3290	64.5809
 1.3280	64.7022
 1.3270	64.8924
 1.3260	65.0853
 1.3250	65.3563
 1.3240	65.3957
 1.3230	65.6227
 1.3220	65.7667
 1.3210	65.8994
 1.3200	66.0787
 1.3190	66.3039
 1.3180	66.4828
 1.3170	66.6451
 1.3160	66.8145
 1.3150	67.0467
 1.3140	67.2398
 1.3130	67.4243
 1.3120	67.6417
 1.3110	67.8255
 1.3100	67.9798
 1.3090	68.1261
 1.3080	68.3352
 1.3070	68.4876
 1.3060	68.6281
 1.3050	68.7788
 1.3040	68.8757
 1.3030	69.0989
 1.3020	69.1319
 1.3010	69.2686
 1.3000	69.3773
 1.2990	69.5406
 1.2980	69.5980
 1.2970	69.7490
 1.2960	69.8416
 1.2950	69.8992
 1.2940	69.9855
 1.2930	70.0785
 1.2920	70.1153
 1.2910	70.2249
 1.2900	70.2581
 1.2890	70.4727
 1.2880	70.4909
 1.2870	70.5793
 1.2860	70.6306
 1.2850	70.7390
 1.2840	70.7252
 1.2830	70.8517
 1.2820	70.9234
 1.2810	71.0104
 1.2800	71.0452
 1.2790	71.1217
 1.2780	71.1562
 1.2770	71.2517
 1.2760	71.2687
 1.2750	71.3431
 1.2740	71.4090
 1.2730	71.4616
 1.2720	71.4779
 1.2710	71.5768
 1.2700	71.6068
 1.2690	71.6673
 1.2680	71.7372
 1.2670	71.8095
 1.2660	71.8149
 1.2650	71.8330
 1.2640	71.8594
 1.2630	71.9830
 1.2620	72.0075
 1.2610	71.9464
 1.2600	71.9028
 1.2590	71.9495
 1.2580	71.9763
 1.2570	72.0225
 1.2560	72.0069
 1.2550	72.0340
 1.2540	72.0341
 1.2530	72.0866
 1.2520	72.1338
 1.2510	72.0959
 1.2500	72.0276
 1.2490	72.0540
 1.2480	72.1177
 1.2470	72.1128
 1.2460	72.0863
 1.2450	72.1173
 1.2440	72.0969
 1.2430	72.0706
 1.2420	72.1009
 1.2410	72.1020
 1.2400	72.0864
 1.2390	72.0953
 1.2380	72.0178
 1.2370	72.0200
 1.2360	72.0678
 1.2350	72.0218
 1.2340	71.9468
 1.2330	71.9094
 1.2320	71.8937
 1.2310	71.8518
 1.2300	71.8272
 1.2290	71.8180
 1.2280	71.8164
 1.2270	71.8718
 1.2260	71.9329
 1.2250	71.9553
 1.2240	71.9781
 1.2230	72.0633
 1.2220	72.1913
 1.2210	72.4280
 1.2200	72.6420
 1.2190	72.8211
 1.2180	72.9893
 1.2170	73.1613
 1.2160	73.3554
 1.2150	73.4665
 1.2140	73.5709
 1.2130	73.7061
 1.2120	73.7948
 1.2110	73.8383
 1.2100	73.9077
 1.2090	73.9955
 1.2080	74.0872
 1.2070	74.1402
 1.2060	74.1239
 1.2050	74.1935
 1.2040	74.2517
 1.2030	74.2543
 1.2020	74.2693
 1.2010	74.2804
 1.2000	74.2995
 1.1990	74.3503
 1.1980	74.3318
 1.1970	74.3471
 1.1960	74.4034
 1.1950	74.3894
 1.1940	74.3652
 1.1930	74.3348
 1.1920	74.3850
 1.1910	74.3761
 1.1900	74.3023
 1.1890	74.3100
 1.1880	74.2856
 1.1870	74.2692
 1.1860	74.2712
 1.1850	74.3165
 1.1840	74.3516
 1.1830	74.4029
 1.1820	74.4773
 1.1810	74.5388
 1.1800	74.5220
 1.1790	74.6285
 1.1780	74.7597
 1.1770	74.8984
 1.1760	75.0392
 1.1750	75.1384
 1.1740	75.2953
 1.1730	75.4832
 1.1720	75.6553
 1.1710	75.7866
 1.1700	76.0051
 1.1690	76.1198
 1.1680	76.2578
 1.1670	76.4257
 1.1660	76.5930
 1.1650	76.7847
 1.1640	76.8845
 1.1630	77.0741
 1.1620	77.1951
 1.1610	77.3560
 1.1600	77.5111
 1.1590	77.6499
 1.1580	77.7953
 1.1570	77.9309
 1.1560	77.9665
 1.1550	78.1256
 1.1540	78.2179
 1.1530	78.3987
 1.1520	78.5334
 1.1510	78.6204
 1.1500	78.7213
 1.1490	78.9066
 1.1480	78.9366
 1.1470	79.0563
 1.1460	79.1622
 1.1450	79.3341
 1.1440	79.4629
 1.1430	79.4166
 1.1420	79.5275
 1.1410	79.6676
 1.1400	79.7605
 1.1390	79.8145
 1.1380	79.9120
 1.1370	79.9757
 1.1360	80.0412
 1.1350	80.0811
 1.1340	80.1471
 1.1330	80.2045
 1.1320	80.3380
 1.1310	80.3909
 1.1300	80.4143
 1.1290	80.4483
 1.1280	80.4779
 1.1270	80.5845
 1.1260	80.6017
 1.1250	80.6230
 1.1240	80.6873
 1.1230	80.6453
 1.1220	80.6732
 1.1210	80.7996
 1.1200	80.7567
 1.1190	80.8494
 1.1180	80.8984
 1.1170	80.8484
 1.1160	80.8880
 1.1150	80.8739
 1.1140	80.9325
 1.1130	80.9556
 1.1120	80.9803
 1.1110	80.9615
 1.1100	80.9836
 1.1090	81.0335
 1.1080	81.0010
 1.1070	81.0380
 1.1060	81.1251
 1.1050	81.1248
 1.1040	81.1671
 1.1030	81.0847
 1.1020	81.1764
 1.1010	81.1700
 1.1000	81.2478
 1.0990	81.1976
 1.0980	81.2620
 1.0970	81.2234
 1.0960	81.3187
 1.0950	81.3255
 1.0940	81.3931
 1.0930	81.3820
 1.0920	81.4951
 1.0910	81.4928
 1.0900	81.4869
 1.0890	81.4548
 1.0880	81.5183
 1.0870	81.5138
 1.0860	81.5300
 1.0850	81.4412
 1.0840	81.6621
 1.0830	81.5782
 1.0820	81.6935
 1.0810	81.7078
 1.0800	81.5810
 1.0790	81.6729
 1.0780	81.7004
 1.0770	81.7308
 1.0760	81.7627
 1.0750	81.8010
 1.0740	81.8439
 1.0730	81.8255
 1.0720	81.8747
 1.0710	81.9155
 1.0700	81.8449
 1.0690	81.9277
 1.0680	81.9732
 1.0670	82.0054
 1.0660	82.0379
 1.0650	81.8828
 1.0640	81.9889
 1.0630	82.0727
 1.0620	82.1096
 1.0610	82.0911
 1.0600	82.1331
 1.0590	82.0491
 1.0580	82.1559
 1.0570	82.1601
 1.0560	82.1640
 1.0550	82.1257
 1.0540	82.1482
 1.0530	82.1841
 1.0520	82.0933
 1.0510	82.1915
 1.0500	82.2055
 1.0490	82.1968
 1.0480	82.2612
 1.0470	82.1470
 1.0460	82.2345
 1.0450	82.1412
 1.0440	82.0774
 1.0430	82.1055
 1.0420	82.2024
 1.0410	82.1366
 1.0400	82.2268
 1.0390	82.1052
 1.0380	82.1475
 1.0370	82.1297
 1.0360	82.1278
 1.0350	82.0748
 1.0340	82.1453
 1.0330	82.0876
 1.0320	82.1884
 1.0310	82.0737
 1.0300	82.0721
 1.0290	82.0138
 1.0280	81.9715
 1.0270	82.0302
 1.0260	81.9423
 1.0250	81.9409
 1.0240	81.9116
 1.0230	81.8668
 1.0220	81.8343
 1.0210	81.7850
 1.0200	81.7810
 1.0190	81.7480
 1.0180	81.8019
 1.0170	81.6886
 1.0160	81.6090
 1.0150	81.5844
 1.0140	81.5788
 1.0130	81.5128
 1.0120	81.5052
 1.0110	81.4455
 1.0100	81.3864
 1.0090	81.3175
 1.0080	81.1923
 1.0070	81.1684
 1.0060	81.1597
 1.0050	81.0701
 1.0040	81.0248
 1.0030	80.8987
 1.0020	80.8702
 1.0010	80.8308
 1.0000	80.7182
 0.9990	80.5789
 0.9980	80.5134
 0.9970	80.4647
 0.9960	80.3111
 0.9950	80.1943
 0.9940	80.0845
 0.9930	79.9604
 0.9920	79.8619
 0.9910	79.7098
 0.9900	79.5953
 0.9890	79.4461
 0.9880	79.2756
 0.9870	79.0437
 0.9860	78.9140
 0.9850	78.7061
 0.9840	78.4958
 0.9830	78.2232
 0.9820	77.9455
 0.9810	77.6418
 0.9800	77.1847
 0.9790	76.6946
 0.9780	76.2367
 0.9770	75.8749
 0.9760	75.4716
 0.9750	75.0540
 0.9740	74.7770
 0.9730	74.4836
 0.9720	74.2608
 0.9710	74.1446
 0.9700	74.1870
 0.9690	74.3498
 0.9680	74.5544
 0.9670	74.8947
 0.9660	75.3515
 0.9650	75.9040
 0.9640	76.4838
 0.9630	77.0836
 0.9620	77.6885
 0.9610	78.2605
 0.9600	78.8242
 0.9590	79.2651
 0.9580	79.7081
 0.9570	80.1995
 0.9560	80.5220
 0.9550	80.7852
 0.9540	81.0509
 0.9530	81.3130
 0.9520	81.5402
 0.9510	81.7257
 0.9500	81.9198
 0.9490	82.0613
 0.9480	82.1762
 0.9470	82.3142
 0.9460	82.4450
 0.9450	82.5284
 0.9440	82.6703
 0.9430	82.7406
 0.9420	82.7931
 0.9410	82.8988
 0.9400	82.9402
 0.9390	82.9701
 0.9380	83.0540
 0.9370	83.0611
 0.9360	83.1251
 0.9350	83.2239
 0.9340	83.2493
 0.9330	83.2439
 0.9320	83.3330
 0.9310	83.3410
 0.9300	83.3081
 0.9290	83.3725
 0.9280	83.4403
 0.9270	83.5036
 0.9260	83.5277
 0.9250	83.5135
 0.9240	83.5309
 0.9230	83.5978
 0.9220	83.6141
 0.9210	83.6497
 0.9200	83.7062
 0.9190	83.7045
 0.9180	83.7340
 0.9170	83.7739
 0.9160	83.7879
 0.9150	83.7939
 0.9140	83.7841
 0.9130	83.8122
 0.9120	83.8795
 0.9110	83.9057
 0.9100	83.8991
 0.9090	83.9036
 0.9080	83.8913
 0.9070	83.9046
 0.9060	83.8713
 0.9050	83.9317
 0.9040	83.9951
 0.9030	84.0319
 0.9020	84.0333
 0.9010	84.0548
 0.9000	84.0084
 0.8990	84.0287
 0.8980	83.9996
 0.8970	84.0216
 0.8960	84.0327
 0.8950	84.0237
 0.8940	84.0486
 0.8930	84.0919
 0.8920	84.1103
 0.8910	84.0476
 0.8900	84.0482
 0.8890	84.0781
 0.8880	84.0878
 0.8870	84.1047
 0.8860	84.0429
 0.8850	84.0783
 0.8840	84.1196
 0.8830	84.0858
 0.8820	84.0308
 0.8810	84.0963
 0.8800	84.1746
 0.8790	84.1310
 0.8780	84.1535
 0.8770	84.1602
 0.8760	84.1403
 0.8750	84.1805
 0.8740	84.0819
 0.8730	84.1016
 0.8720	84.0792
 0.8710	84.1573
 0.8700	84.1040
 0.8690	84.1222
 0.8680	84.1043
 0.8670	84.1502
 0.8660	84.0649
 0.8650	84.1215
 0.8640	84.1102
 0.8630	84.0869
 0.8620	84.0277
 0.8610	84.0433
 0.8600	84.1200
 0.8590	84.0427
 0.8580	84.0488
 0.8570	84.0705
 0.8560	84.0166
 0.8550	84.1406
 0.8540	84.1689
 0.8530	84.0615
 0.8520	84.1180
 0.8510	84.0833
 0.8500	84.0658
 0.8490	84.0484
 0.8480	84.0965
 0.8470	84.1438
 0.8460	84.0165
 0.8450	84.1560
 0.8440	84.2171
 0.8430	84.1384
 0.8420	84.1992
 0.8410	84.2067
 0.8400	84.1682
 0.8390	84.2210
 0.8380	84.2506
 0.8370	84.2014
 0.8360	84.2252
 0.8350	84.2177
 0.8340	84.2612
 0.8330	84.2146
 0.8320	84.2777
 0.8310	84.2352
 0.8300	84.3243
 0.8290	84.2890
 0.8280	84.2431
 0.8270	84.3281
 0.8260	84.2866
 0.8250	84.3174
 0.8240	84.2566
 0.8230	84.2935
 0.8220	84.2700
 0.8210	84.3227
 0.8200	84.2759
 0.8190	84.2838
 0.8180	84.3027
 0.8170	84.2990
 0.8160	84.2961
 0.8150	84.3047
 0.8140	84.3072
 0.8130	84.3087
 0.8120	84.3091
 0.8110	84.3201
 0.8100	84.3194
 0.8090	84.3569
 0.8080	84.3269
 0.8070	84.3076
 0.8060	84.3250
 0.8050	84.3304
 0.8040	84.3523
 0.8030	84.3044
 0.8020	84.3389
 0.8010	84.3386
 0.8000	84.3622
 0.7990	84.3092
 0.7980	84.2744
 0.7970	84.2887
 0.7960	84.2248
 0.7950	84.2405
 0.7940	84.2322
 0.7930	84.2146
 0.7920	84.2458
 0.7910	84.1593
 0.7900	84.1781
 0.7890	84.1787
 0.7880	84.2669
 0.7870	84.2026
 0.7860	84.1969
 0.7850	84.2219
 0.7840	84.2150
 0.7830	84.1862
 0.7820	84.2219
 0.7810	84.1413
 0.7800	84.1468
 0.7790	84.1874
 0.7780	84.1469
 0.7770	84.1486
 0.7760	84.0537
 0.7750	84.1065
 0.7740	84.0786
 0.7730	84.0824
 0.7720	84.0822
 0.7710	84.0196
 0.7700	83.9986
 0.7690	84.0244
 0.7680	83.9743
 0.7670	84.0084
 0.7660	83.9270
 0.7650	83.9756
 0.7640	83.9430
 0.7630	83.9038
 0.7620	83.9288
 0.7610	83.8760
 0.7600	83.8566
 0.7590	83.8511
 0.7580	83.8244
 0.7570	83.7861
 0.7560	83.7407
 0.7550	83.7470
 0.7540	83.7184
 0.7530	83.7058
 0.7520	83.6606
 0.7510	83.6089
 0.7500	83.5656
 0.7490	83.5259
 0.7480	83.5170
 0.7470	83.5234
 0.7460	83.5162
 0.7450	83.4824
 0.7440	83.4517
 0.7430	83.5268
 0.7420	83.5769
 0.7410	83.5847
 0.7400	83.6048
 0.7390	83.6494
 0.7380	83.7164
 0.7370	83.7717
 0.7360	83.7943
 0.7350	83.8591
 0.7340	83.8580
 0.7330	83.8594
 0.7320	83.9120
 0.7310	83.9466
 0.7300	83.9700
 0.7290	83.9541
 0.7280	83.9782
 0.7270	83.9706
 0.7260	83.9837
 0.7250	83.9696
 0.7240	83.9697
 0.7230	83.9947
 0.7220	83.9964
 0.7210	84.0073
 0.7200	84.0017
 0.7190	84.0122
 0.7180	83.9909
 0.7170	84.0088
 0.7160	84.0204
 0.7150	84.0169
 0.7140	83.9866
 0.7130	83.9803
 0.7120	83.9938
 0.7110	84.0101
 0.7100	84.0270
 0.7090	84.0032
 0.7080	84.0095
 0.7070	84.0013
 0.7060	83.9867
 0.7050	83.9943
 0.7040	84.0199
 0.7030	84.0070
 0.7020	84.0125
 0.7010	83.9887
 0.7000	83.9681
 0.6990	83.9763
 0.6980	83.9780
 0.6970	83.9514
 0.6960	83.9231
 0.6950	83.9467
 0.6940	83.9254
 0.6930	83.9479
 0.6920	83.9455
 0.6910	83.9364
 0.6900	83.9472
 0.6890	83.9290
 0.6880	83.9168
 0.6870	83.9123
 0.6860	83.9195
 0.6850	83.9011
 0.6840	83.9016
 0.6830	83.9019
 0.6820	83.8979
 0.6810	83.8793
 0.6800	83.8882
 0.6790	83.8895
 0.6780	83.8826
 0.6770	83.8943
 0.6760	83.8782
 0.6750	83.8592
 0.6740	83.8360
 0.6730	83.8551
 0.6720	83.8477
 0.6710	83.8324
 0.6700	83.8267
 0.6690	83.8344
 0.6680	83.8297
 0.6670	83.8092
 0.6660	83.7940
 0.6650	83.7957
 0.6640	83.8043
 0.6630	83.7908
 0.6620	83.7759
 0.6610	83.7705
 0.6600	83.7727
 0.6590	83.7398
 0.6580	83.7274
 0.6570	83.7247
 0.6560	83.7177
 0.6550	83.6976
 0.6540	83.6830
 0.6530	83.6983
 0.6520	83.6946
 0.6510	83.6786
 0.6500	83.6662
 0.6490	83.6528
 0.6480	83.6556
 0.6470	83.6527
 0.6460	83.6233
 0.6450	83.6216
 0.6440	83.6218
 0.6430	83.6003
 0.6420	83.5865
 0.6410	83.5850
 0.6400	83.5742
 0.6390	83.5624
 0.6380	83.5529
 0.6370	83.5488
 0.6360	83.5383
 0.6350	83.5235
 0.6340	83.5229
 0.6330	83.5206
 0.6320	83.4891
 0.6310	83.4741
 0.6300	83.4618
 0.6290	83.4428
 0.6280	83.4302
 0.6270	83.4165
 0.6260	83.4062
 0.6250	83.3953
 0.6240	83.3985
 0.6230	83.3866
 0.6220	83.3738
 0.6210	83.3613
 0.6200	83.3453
 0.6190	83.3428
 0.6180	83.3079
 0.6170	83.2877
 0.6160	83.2742
 0.6150	83.2638
 0.6140	83.2593
 0.6130	83.2473
 0.6120	83.2254
 0.6110	83.2164
 0.6100	83.2062
 0.6090	83.2003
 0.6080	83.1772
 0.6070	83.1479
 0.6060	83.1603
 0.6050	83.1536
 0.6040	83.1447
 0.6030	83.1392
 0.6020	83.1334
 0.6010	83.1205
 0.6000	83.1018
 0.5990	83.1020
 0.5980	83.1208
 0.5970	83.1164
 0.5960	83.1108
 0.5950	83.1170
 0.5940	83.1223
 0.5930	83.1157
 0.5920	83.0845
 0.5910	83.0569
 0.5900	83.0507
 0.5890	83.0397
 0.5880	83.0193
 0.5870	82.9851
 0.5860	82.9634
 0.5850	82.9422
 0.5840	82.9464
 0.5830	82.9382
 0.5820	82.9179
 0.5810	82.8858
 0.5800	82.8704
 0.5790	82.8606
 0.5780	82.8479
 0.5770	82.8466
 0.5760	82.7976
 0.5750	82.7762
 0.5740	82.7393
 0.5730	82.7310
 0.5720	82.7345
 0.5710	82.6909
 0.5700	82.6874
 0.5690	82.6771
 0.5680	82.6353
 0.5670	82.6077
 0.5660	82.5909
 0.5650	82.5901
 0.5640	82.5718
 0.5630	82.5347
 0.5620	82.5223
 0.5610	82.4816
 0.5600	82.4448
 0.5590	82.4363
 0.5580	82.4045
 0.5570	82.3840
 0.5560	82.3587
 0.5550	82.3256
 0.5540	82.2980
 0.5530	82.2732
 0.5520	82.2522
 0.5510	82.2210
 0.5500	82.2125
 0.5490	82.1649
 0.5480	82.1382
 0.5470	82.1080
 0.5460	82.0817
 0.5450	82.0667
 0.5440	82.0224
 0.5430	82.0021
 0.5420	81.9672
 0.5410	81.9348
 0.5400	81.8942
 0.5390	81.8754
 0.5380	81.8194
 0.5370	81.7951
 0.5360	81.7516
 0.5350	81.7089
 0.5340	81.6845
 0.5330	81.6544
 0.5320	81.6162
 0.5310	81.5892
 0.5300	81.5444
 0.5290	81.5081
 0.5280	81.4805
 0.5270	81.4271
 0.5260	81.4035
 0.5250	81.3622
 0.5240	81.3350
 0.5230	81.2835
 0.5220	81.2257
 0.5210	81.1866
 0.5200	81.1441
 0.5190	81.1136
 0.5180	81.0664
 0.5170	80.9955
 0.5160	80.9734
 0.5150	80.9138
 0.5140	80.8657
 0.5130	80.8219
 0.5120	80.7759
 0.5110	80.7011
 0.5100	80.6680
 0.5090	80.6011
 0.5080	80.5517
 0.5070	80.4877
 0.5060	80.4095
 0.5050	80.3929
 0.5040	80.2963
 0.5030	80.2219
 0.5020	80.1538
 0.5010	80.1230
 0.5000	80.0664
 0.4990	80.0053
 0.4980	79.9353
 0.4970	79.8571
 0.4960	79.7993
 0.4950	79.7312
 0.4940	79.6707
 0.4930	79.6091
 0.4920	79.5539
 0.4910	79.4696
 0.4900	79.4124
 0.4890	79.3562
 0.4880	79.2465
 0.4870	79.1764
 0.4860	79.1243
 0.4850	79.0370
 0.4840	78.9611
 0.4830	78.9075
 0.4820	78.8191
 0.4810	78.7734
 0.4800	78.7154
 0.4790	78.6655
 0.4780	78.5934
 0.4770	78.5301
 0.4760	78.4603
 0.4750	78.3920
 0.4740	78.3585
 0.4730	78.2734
 0.4720	78.2093
 0.4710	78.1531
 0.4700	78.0980
 0.4690	78.0192
 0.4680	77.9521
 0.4670	77.9033
 0.4660	77.8237
 0.4650	77.7844
 0.4640	77.7061
 0.4630	77.6288
 0.4620	77.5675
 0.4610	77.5075
 0.4600	77.4389
 0.4590	77.3563
 0.4580	77.2996
 0.4570	77.2378
 0.4560	77.1885
 0.4550	77.0939
 0.4540	77.0364
 0.4530	76.9866
 0.4520	76.9130
 0.4510	76.8438
 0.4500	76.7610
 0.4490	76.7179
 0.4480	76.6538
 0.4470	76.5600
 0.4460	76.5269
 0.4450	76.4456
 0.4440	76.3785
 0.4430	76.3161
 0.4420	76.2568
 0.4410	76.2086
 0.4400	76.1491
 0.4390	76.0802
 0.4380	76.0294
 0.4370	75.9719
 0.4360	75.8981
 0.4350	75.8526
 0.4340	75.7767
 0.4330	75.7319
 0.4320	75.6655
 0.4310	75.6015
 0.4300	75.5490
 0.4290	75.4879
 0.4280	75.4427
 0.4270	75.3613
 0.4260	75.3239
 0.4250	75.2547
 0.4240	75.1915
 0.4230	75.1408
 0.4220	75.0705
 0.4210	75.0064
 0.4200	74.9434
 0.4190	74.8832
 0.4180	74.8163
 0.4170	74.7634
 0.4160	74.6849
 0.4150	74.6268
 0.4140	74.5585
 0.4130	74.4914
 0.4120	74.4206
 0.4110	74.3571
 0.4100	74.2910
 0.4090	74.2244
 0.4080	74.1311
 0.4070	74.0760
 0.4060	73.9973
 0.4050	73.9270
 0.4040	73.8472
 0.4030	73.7710
 0.4020	73.6965
 0.4010	73.6224
 0.4000	73.5354
