Name: Riebeckite Na_2(Fe^2+,Mg)_3,Fe_2^3+Si_8O_22(OH)_2
Type: Mineral
Class: Silicate
Subclass: Inosilicate
Particle Size: Coarse
Sample No.: IN-7A
Owner: JPL
Wavelength Range: VSWIR
Origin: Canada, Ontario
Collection Date: N/A
Description: Particle size was 125-500um.Collected by Ward's Original ASTER Spectral Library name was jpl.beckman.mineral.silicate.inosilicate.coarse.in07a.spectrum.txt
Measurement: Hemispherical reflectance
First Column: X
Second Column: Y
X Units: Wavelength (micrometers)
Y Units:Reflectance (percent)
First X Value:  0.4000
Last X Value:  2.5000
Number of X Values: 826
Additional Information: mineral.silicate.inosilicate.coarse.vswir.in-7a.jpl.beckman.ancillary.txt

 0.4000	 2.8900
 0.4010	 2.8600
 0.4020	 2.8600
 0.4030	 2.8000
 0.4040	 2.9200
 0.4050	 2.8000
 0.4060	 2.7300
 0.4070	 2.8600
 0.4080	 2.8600
 0.4090	 2.9100
 0.4100	 2.9100
 0.4110	 2.8000
 0.4120	 2.8600
 0.4130	 2.9100
 0.4140	 2.8500
 0.4150	 2.8600
 0.4160	 2.8000
 0.4170	 2.8000
 0.4180	 2.8500
 0.4190	 2.7900
 0.4200	 2.8000
 0.4210	 2.7400
 0.4220	 2.7900
 0.4230	 2.7300
 0.4240	 2.7300
 0.4250	 2.8500
 0.4260	 2.7900
 0.4270	 2.7900
 0.4280	 2.7400
 0.4290	 2.7400
 0.4300	 2.8600
 0.4310	 2.7900
 0.4320	 2.7300
 0.4330	 2.7300
 0.4340	 2.7300
 0.4350	 2.8000
 0.4360	 2.8000
 0.4370	 2.8000
 0.4380	 2.7900
 0.4390	 2.7300
 0.4400	 2.7900
 0.4410	 2.8500
 0.4420	 2.7200
 0.4430	 2.7800
 0.4440	 2.7300
 0.4450	 2.7200
 0.4460	 2.7900
 0.4470	 2.7900
 0.4480	 2.7300
 0.4490	 2.6700
 0.4500	 2.7300
 0.4510	 2.7300
 0.4520	 2.6700
 0.4530	 2.7900
 0.4540	 2.6600
 0.4550	 2.7700
 0.4560	 2.7000
 0.4570	 2.5800
 0.4580	 2.7500
 0.4590	 2.7500
 0.4600	 2.7000
 0.4610	 2.6100
 0.4620	 2.6700
 0.4630	 2.7300
 0.4640	 2.6100
 0.4650	 2.7300
 0.4660	 2.6100
 0.4670	 2.6700
 0.4680	 2.7200
 0.4690	 2.6600
 0.4700	 2.7300
 0.4710	 2.6100
 0.4720	 2.6000
 0.4730	 2.6700
 0.4740	 2.6700
 0.4750	 2.6700
 0.4760	 2.6700
 0.4770	 2.6700
 0.4780	 2.7200
 0.4790	 2.6000
 0.4800	 2.7200
 0.4810	 2.6600
 0.4820	 2.5400
 0.4830	 2.7200
 0.4840	 2.6000
 0.4850	 2.6600
 0.4860	 2.7100
 0.4870	 2.5900
 0.4880	 2.6500
 0.4890	 2.6500
 0.4900	 2.6400
 0.4910	 2.7100
 0.4920	 2.6400
 0.4930	 2.6400
 0.4940	 2.6300
 0.4950	 2.6300
 0.4960	 2.6200
 0.4970	 2.5000
 0.4980	 2.6800
 0.4990	 2.6800
 0.5000	 2.6200
 0.5010	 2.6700
 0.5020	 2.5500
 0.5030	 2.6100
 0.5040	 2.6700
 0.5050	 2.6100
 0.5060	 2.6100
 0.5070	 2.6100
 0.5080	 2.6100
 0.5090	 2.6700
 0.5100	 2.6100
 0.5110	 2.7200
 0.5120	 2.5500
 0.5130	 2.6000
 0.5140	 2.6000
 0.5150	 2.5400
 0.5160	 2.6000
 0.5170	 2.6000
 0.5180	 2.6000
 0.5190	 2.6000
 0.5200	 2.4900
 0.5210	 2.5900
 0.5220	 2.5900
 0.5230	 2.5300
 0.5240	 2.5800
 0.5250	 2.5900
 0.5260	 2.5800
 0.5270	 2.6400
 0.5280	 2.5300
 0.5290	 2.5800
 0.5300	 2.5300
 0.5310	 2.5300
 0.5320	 2.6000
 0.5330	 2.5000
 0.5340	 2.5700
 0.5350	 2.4800
 0.5360	 2.4800
 0.5370	 2.4800
 0.5380	 2.4200
 0.5390	 2.5300
 0.5400	 2.4800
 0.5410	 2.4300
 0.5420	 2.5300
 0.5430	 2.4300
 0.5440	 2.4800
 0.5450	 2.5300
 0.5460	 2.3600
 0.5470	 2.4700
 0.5480	 2.4700
 0.5490	 2.4600
 0.5500	 2.4600
 0.5510	 2.3400
 0.5520	 2.5000
 0.5530	 2.4900
 0.5540	 2.4900
 0.5550	 2.4300
 0.5560	 2.4300
 0.5570	 2.4400
 0.5580	 2.4600
 0.5590	 2.4700
 0.5600	 2.4800
 0.5610	 2.5800
 0.5620	 2.5300
 0.5630	 2.4800
 0.5640	 2.5300
 0.5650	 2.4800
 0.5660	 2.4200
 0.5670	 2.5900
 0.5680	 2.4900
 0.5690	 2.4900
 0.5700	 2.5300
 0.5710	 2.4800
 0.5720	 2.4800
 0.5730	 2.4900
 0.5740	 2.5100
 0.5750	 2.4700
 0.5760	 2.4800
 0.5770	 2.4300
 0.5780	 2.3700
 0.5790	 2.3800
 0.5800	 2.4500
 0.5810	 2.4400
 0.5820	 2.4400
 0.5830	 2.3300
 0.5840	 2.3800
 0.5850	 2.3800
 0.5860	 2.4400
 0.5870	 2.3900
 0.5880	 2.3300
 0.5890	 2.3200
 0.5900	 2.4400
 0.5910	 2.3200
 0.5920	 2.4400
 0.5930	 2.4500
 0.5940	 2.4500
 0.5950	 2.3800
 0.5960	 2.3200
 0.5970	 2.3800
 0.5980	 2.4300
 0.5990	 2.3600
 0.6000	 2.2800
 0.6010	 2.3300
 0.6020	 2.4400
 0.6030	 2.3700
 0.6040	 2.3700
 0.6050	 2.3700
 0.6060	 2.3700
 0.6070	 2.3700
 0.6080	 2.4200
 0.6090	 2.4200
 0.6100	 2.3500
 0.6110	 2.4100
 0.6120	 2.3000
 0.6130	 2.3500
 0.6140	 2.3000
 0.6150	 2.4100
 0.6160	 2.2900
 0.6170	 2.3000
 0.6180	 2.3600
 0.6190	 2.3000
 0.6200	 2.4200
 0.6210	 2.3600
 0.6220	 2.4100
 0.6230	 2.3500
 0.6240	 2.3600
 0.6250	 2.3600
 0.6260	 2.3600
 0.6270	 2.3000
 0.6280	 2.3500
 0.6290	 2.3500
 0.6300	 2.3600
 0.6310	 2.3600
 0.6320	 2.3600
 0.6330	 2.3500
 0.6340	 2.2900
 0.6350	 2.3600
 0.6360	 2.3600
 0.6370	 2.3600
 0.6380	 2.3600
 0.6390	 2.3500
 0.6400	 2.2400
 0.6410	 2.3500
 0.6420	 2.3600
 0.6430	 2.4200
 0.6440	 2.3600
 0.6450	 2.3600
 0.6460	 2.3500
 0.6470	 2.2900
 0.6480	 2.3500
 0.6490	 2.4100
 0.6500	 2.2900
 0.6510	 2.3500
 0.6520	 2.3500
 0.6530	 2.3500
 0.6540	 2.4100
 0.6550	 2.3600
 0.6560	 2.3600
 0.6570	 2.3000
 0.6580	 2.3600
 0.6590	 2.4100
 0.6600	 2.3500
 0.6610	 2.3500
 0.6620	 2.3000
 0.6630	 2.3500
 0.6640	 2.2900
 0.6650	 2.2900
 0.6660	 2.2900
 0.6670	 2.3600
 0.6680	 2.3000
 0.6690	 2.3000
 0.6700	 2.3000
 0.6710	 2.3500
 0.6720	 2.3500
 0.6730	 2.4100
 0.6740	 2.3600
 0.6750	 2.2400
 0.6760	 2.3000
 0.6770	 2.3500
 0.6780	 2.3000
 0.6790	 2.4100
 0.6800	 2.3600
 0.6810	 2.3000
 0.6820	 2.3000
 0.6830	 2.3000
 0.6840	 2.2900
 0.6850	 2.4100
 0.6860	 2.3500
 0.6870	 2.3600
 0.6880	 2.3500
 0.6890	 2.2900
 0.6900	 2.4100
 0.6910	 2.3500
 0.6920	 2.4200
 0.6930	 2.3000
 0.6940	 2.3000
 0.6950	 2.4700
 0.6960	 2.3600
 0.6970	 2.4100
 0.6980	 2.3600
 0.6990	 2.3800
 0.7000	 2.2800
 0.7010	 2.3300
 0.7020	 2.4100
 0.7030	 2.3500
 0.7040	 2.2900
 0.7050	 2.3500
 0.7060	 2.4100
 0.7070	 2.4100
 0.7080	 2.4000
 0.7090	 2.3500
 0.7100	 2.3500
 0.7110	 2.4100
 0.7120	 2.3000
 0.7130	 2.4100
 0.7140	 2.3500
 0.7150	 2.3500
 0.7160	 2.3500
 0.7170	 2.3000
 0.7180	 2.3600
 0.7190	 2.4100
 0.7200	 2.3500
 0.7210	 2.3500
 0.7220	 2.3000
 0.7230	 2.3000
 0.7240	 2.2900
 0.7250	 2.2900
 0.7260	 2.4000
 0.7270	 2.4100
 0.7280	 2.4000
 0.7290	 2.4000
 0.7300	 2.2900
 0.7310	 2.4100
 0.7320	 2.3500
 0.7330	 2.3600
 0.7340	 2.4700
 0.7350	 2.3500
 0.7360	 2.3500
 0.7370	 2.3500
 0.7380	 2.4100
 0.7390	 2.4000
 0.7400	 2.3400
 0.7410	 2.3500
 0.7420	 2.4700
 0.7430	 2.3500
 0.7440	 2.4000
 0.7450	 2.3400
 0.7460	 2.4000
 0.7470	 2.4000
 0.7480	 2.3400
 0.7490	 2.4000
 0.7500	 2.4000
 0.7510	 2.4600
 0.7520	 2.4600
 0.7530	 2.3500
 0.7540	 2.4600
 0.7550	 2.4600
 0.7560	 2.4600
 0.7570	 2.4000
 0.7580	 2.4000
 0.7590	 2.4000
 0.7600	 2.4600
 0.7610	 2.4100
 0.7620	 2.4000
 0.7630	 2.3400
 0.7640	 2.4000
 0.7650	 2.4600
 0.7660	 2.3400
 0.7670	 2.4500
 0.7680	 2.5000
 0.7690	 2.5100
 0.7700	 2.5100
 0.7710	 2.5000
 0.7720	 2.6100
 0.7730	 2.5600
 0.7740	 2.5100
 0.7750	 2.5000
 0.7760	 2.5100
 0.7770	 2.5000
 0.7780	 2.5600
 0.7790	 2.5100
 0.7800	 2.5000
 0.7810	 2.4500
 0.7820	 2.5600
 0.7830	 2.5600
 0.7840	 2.5000
 0.7850	 2.5000
 0.7860	 2.4500
 0.7870	 2.5000
 0.7880	 2.5600
 0.7890	 2.5600
 0.7900	 2.5600
 0.7910	 2.4500
 0.7920	 2.5000
 0.7930	 2.5600
 0.7940	 2.5000
 0.7950	 2.5600
 0.7960	 2.5100
 0.7970	 2.5700
 0.7980	 2.4700
 0.7990	 2.4700
 0.8000	 2.8600
 0.8040	 2.9200
 0.8080	 2.9300
 0.8120	 2.8800
 0.8160	 2.8700
 0.8200	 2.8800
 0.8240	 2.8300
 0.8280	 2.8900
 0.8320	 2.8800
 0.8360	 2.8200
 0.8400	 2.8300
 0.8440	 2.8200
 0.8480	 2.9000
 0.8520	 2.8300
 0.8560	 2.9000
 0.8600	 2.9000
 0.8640	 2.8400
 0.8680	 2.9000
 0.8720	 2.9000
 0.8760	 2.9000
 0.8800	 2.8400
 0.8840	 2.8400
 0.8880	 2.8400
 0.8920	 2.7800
 0.8960	 2.8400
 0.9000	 2.8400
 0.9040	 2.8400
 0.9080	 2.7800
 0.9120	 2.8400
 0.9160	 2.8500
 0.9200	 2.8400
 0.9240	 2.9000
 0.9280	 2.9000
 0.9320	 2.9100
 0.9360	 2.8500
 0.9400	 2.9100
 0.9440	 2.9000
 0.9480	 2.9000
 0.9520	 2.9100
 0.9560	 2.9000
 0.9600	 2.9000
 0.9640	 2.9000
 0.9680	 2.9600
 0.9720	 2.9000
 0.9760	 2.8400
 0.9800	 2.9100
 0.9840	 2.9500
 0.9880	 2.9600
 0.9920	 2.9600
 0.9960	 2.9900
 1.0000	 3.0000
 1.0040	 3.0300
 1.0080	 2.9600
 1.0120	 2.9500
 1.0160	 3.0200
 1.0200	 2.9000
 1.0240	 2.9100
 1.0280	 2.9700
 1.0320	 3.0300
 1.0360	 3.0800
 1.0400	 3.0200
 1.0440	 3.1300
 1.0480	 3.0200
 1.0520	 2.9600
 1.0560	 2.9600
 1.0600	 3.0100
 1.0640	 3.0000
 1.0680	 3.0600
 1.0720	 3.1200
 1.0760	 3.1600
 1.0800	 3.0900
 1.0840	 3.1300
 1.0880	 3.1200
 1.0920	 3.1200
 1.0960	 3.0600
 1.1000	 3.1200
 1.1040	 3.1700
 1.1080	 3.1100
 1.1120	 3.2200
 1.1160	 3.2400
 1.1200	 3.2000
 1.1240	 3.2600
 1.1280	 3.1500
 1.1320	 3.1600
 1.1360	 3.1500
 1.1400	 3.1700
 1.1440	 3.1900
 1.1480	 3.2500
 1.1520	 3.2500
 1.1560	 3.2500
 1.1600	 3.3100
 1.1640	 3.3100
 1.1680	 3.2500
 1.1720	 3.3100
 1.1760	 3.3100
 1.1800	 3.3100
 1.1840	 3.2500
 1.1880	 3.3700
 1.1920	 3.3700
 1.1960	 3.4300
 1.2000	 3.4800
 1.2040	 3.5400
 1.2080	 3.5700
 1.2120	 3.5400
 1.2160	 3.4900
 1.2200	 3.5400
 1.2240	 3.5300
 1.2280	 3.6400
 1.2320	 3.6800
 1.2360	 3.7300
 1.2400	 3.7700
 1.2440	 3.8200
 1.2480	 3.8100
 1.2520	 3.8700
 1.2560	 3.8700
 1.2600	 3.8700
 1.2640	 3.9300
 1.2680	 4.0400
 1.2720	 4.0900
 1.2760	 4.1600
 1.2800	 4.1700
 1.2840	 4.1700
 1.2880	 4.1600
 1.2920	 4.2500
 1.2960	 4.3100
 1.3000	 4.4100
 1.3040	 4.4100
 1.3080	 4.5900
 1.3120	 4.6000
 1.3160	 4.6600
 1.3200	 4.6600
 1.3240	 4.7200
 1.3280	 4.7600
 1.3320	 4.9300
 1.3360	 4.9300
 1.3400	 5.0000
 1.3440	 5.0900
 1.3480	 5.1500
 1.3520	 5.2100
 1.3560	 5.2200
 1.3600	 5.4300
 1.3640	 5.4900
 1.3680	 5.5900
 1.3720	 5.5600
 1.3760	 5.7100
 1.3800	 5.7100
 1.3840	 5.8200
 1.3880	 5.7900
 1.3920	 5.7900
 1.3960	 5.9200
 1.4000	 6.0400
 1.4040	 6.2200
 1.4080	 6.4500
 1.4120	 6.5500
 1.4160	 6.6600
 1.4200	 6.8800
 1.4240	 7.0000
 1.4280	 7.0700
 1.4320	 7.1400
 1.4360	 7.3100
 1.4400	 7.4700
 1.4440	 7.5800
 1.4480	 7.6400
 1.4520	 7.8200
 1.4560	 7.9700
 1.4600	 8.0400
 1.4640	 8.1700
 1.4680	 8.2900
 1.4720	 8.3700
 1.4760	 8.5800
 1.4800	 8.7700
 1.4840	 8.9300
 1.4880	 9.0600
 1.4920	 9.1600
 1.4960	 9.3700
 1.5000	 9.4100
 1.5040	 9.6600
 1.5080	 9.7900
 1.5120	 9.9300
 1.5160	10.1000
 1.5200	10.1900
 1.5240	10.3600
 1.5280	10.5100
 1.5320	10.7400
 1.5360	10.9200
 1.5400	11.0600
 1.5440	11.2500
 1.5480	11.4300
 1.5520	11.5200
 1.5560	11.7200
 1.5600	11.9000
 1.5640	11.9800
 1.5680	12.2100
 1.5720	12.3900
 1.5760	12.5000
 1.5800	12.7800
 1.5840	12.9100
 1.5880	13.1100
 1.5920	13.3000
 1.5960	13.5000
 1.6000	13.6800
 1.6040	13.9100
 1.6080	14.0400
 1.6120	14.2300
 1.6160	14.4400
 1.6200	14.5600
 1.6240	14.7100
 1.6280	14.9700
 1.6320	15.1800
 1.6360	15.3700
 1.6400	15.5900
 1.6440	15.7700
 1.6480	15.9800
 1.6520	16.1300
 1.6560	16.3300
 1.6600	16.4700
 1.6640	16.7100
 1.6680	16.8900
 1.6720	17.0500
 1.6760	17.3200
 1.6800	17.5600
 1.6840	17.7600
 1.6880	17.9400
 1.6920	18.1200
 1.6960	18.3400
 1.7000	18.4300
 1.7040	18.7100
 1.7080	18.8900
 1.7120	19.0900
 1.7160	19.3000
 1.7200	19.4500
 1.7240	19.7600
 1.7280	19.9900
 1.7320	20.1300
 1.7360	20.3100
 1.7400	20.4500
 1.7440	20.6900
 1.7480	20.9500
 1.7520	21.0600
 1.7560	21.2400
 1.7600	21.4200
 1.7640	21.6400
 1.7680	21.8800
 1.7720	22.0900
 1.7760	22.3100
 1.7800	22.4800
 1.7840	22.6800
 1.7880	22.7900
 1.7920	23.0500
 1.7960	23.1600
 1.8000	23.4100
 1.8040	23.5800
 1.8080	23.7600
 1.8120	24.0200
 1.8160	24.1500
 1.8200	24.4000
 1.8240	24.5200
 1.8280	24.7000
 1.8320	24.8400
 1.8360	25.0100
 1.8400	25.2400
 1.8440	25.3900
 1.8480	25.6000
 1.8520	25.8600
 1.8560	26.0200
 1.8600	26.1300
 1.8640	26.3000
 1.8680	26.4800
 1.8720	26.5700
 1.8760	26.7700
 1.8800	26.9600
 1.8840	27.0800
 1.8880	27.1200
 1.8920	27.3200
 1.8960	27.4100
 1.9000	27.6300
 1.9040	27.7800
 1.9080	27.9800
 1.9120	28.0700
 1.9160	28.2400
 1.9200	28.4100
 1.9240	28.5500
 1.9280	28.6700
 1.9320	28.8500
 1.9360	29.0300
 1.9400	29.2000
 1.9440	29.4500
 1.9480	29.6000
 1.9520	29.6800
 1.9560	29.9300
 1.9600	30.0000
 1.9640	30.0800
 1.9680	30.2000
 1.9720	30.4200
 1.9760	30.6000
 1.9800	30.8400
 1.9840	30.9900
 1.9880	31.1500
 1.9920	31.2700
 1.9960	31.3800
 2.0000	31.5200
 2.0040	31.5100
 2.0080	31.6800
 2.0120	31.7900
 2.0160	32.0000
 2.0200	32.1500
 2.0240	32.2800
 2.0280	32.3600
 2.0320	32.4600
 2.0360	32.6000
 2.0400	32.6500
 2.0440	32.7000
 2.0480	32.8300
 2.0520	32.9200
 2.0560	33.0600
 2.0600	33.1900
 2.0640	33.2400
 2.0680	33.2400
 2.0720	33.2700
 2.0760	33.3100
 2.0800	33.4500
 2.0840	33.4800
 2.0880	33.4700
 2.0920	33.5300
 2.0960	33.4800
 2.1000	33.5600
 2.1040	33.5900
 2.1080	33.6600
 2.1120	33.8000
 2.1160	33.8100
 2.1200	33.9100
 2.1240	33.9800
 2.1280	34.1100
 2.1320	34.1500
 2.1360	34.3900
 2.1400	34.4000
 2.1440	34.6000
 2.1480	34.7200
 2.1520	34.8300
 2.1560	34.8800
 2.1600	35.0300
 2.1640	35.1400
 2.1680	35.2500
 2.1720	35.3500
 2.1760	35.5000
 2.1800	35.5200
 2.1840	35.6300
 2.1880	35.6900
 2.1920	35.7400
 2.1960	35.7800
 2.2000	35.8900
 2.2040	35.9200
 2.2080	35.8900
 2.2120	35.9500
 2.2160	36.0000
 2.2200	36.0500
 2.2240	36.0900
 2.2280	36.1600
 2.2320	36.2000
 2.2360	36.1000
 2.2400	36.1900
 2.2440	36.1300
 2.2480	36.1400
 2.2520	36.0400
 2.2560	35.9400
 2.2600	35.9200
 2.2640	35.7400
 2.2680	35.5900
 2.2720	35.3700
 2.2760	35.0900
 2.2800	34.6300
 2.2840	34.0900
 2.2880	33.4000
 2.2920	32.4900
 2.2960	31.3200
 2.3000	30.3000
 2.3040	29.8500
 2.3080	28.1500
 2.3120	27.3600
 2.3160	26.7100
 2.3200	26.3200
 2.3240	26.2200
 2.3280	26.4500
 2.3320	26.7200
 2.3360	27.3100
 2.3400	27.9400
 2.3440	28.6700
 2.3480	29.3200
 2.3520	29.8900
 2.3560	30.1800
 2.3600	30.2900
 2.3640	30.2400
 2.3680	29.8000
 2.3720	29.3200
 2.3760	28.8400
 2.3800	28.4500
 2.3840	28.1900
 2.3880	28.0300
 2.3920	28.2100
 2.3960	28.5700
 2.4000	29.0800
 2.4040	29.6900
 2.4080	30.3900
 2.4120	31.0500
 2.4160	31.7500
 2.4200	32.2200
 2.4240	32.8100
 2.4280	33.1600
 2.4320	33.5000
 2.4360	33.6600
 2.4400	33.8700
 2.4440	33.9700
 2.4480	34.0400
 2.4520	34.0600
 2.4560	34.1200
 2.4600	34.1000
 2.4640	34.1000
 2.4680	34.0700
 2.4720	34.0800
 2.4760	34.1100
 2.4800	34.0700
 2.4840	34.1900
 2.4880	34.2000
 2.4920	34.3300
 2.4960	34.4400
 2.5000	34.6000
