Name: Topaz Al_2SiO_4(F,OH)_2
Type: Mineral
Class: Silicate
Subclass: Nesosilicate
Particle Size: Fine
Sample No.: NS-6A
Owner: JPL
Wavelength Range: VSWIR
Origin: Australia, Western Australia, Grossmont.
Collection Date: N/A
Description: Particle size was 0-45um.Collected by:  Ward's Original ASTER Spectral Library name was jpl.perkin.mineral.silicate.nesosilicate.fine.ns06a.spectrum.txt
Measurement: Hemispherical reflectance
First Column: X
Second Column: Y
X Units: Wavelength (micrometers)
Y Units:Reflectance (percent)
First X Value:  2.5000
Last X Value:  0.4000
Number of X Values: 2101
Additional Information: mineral.silicate.nesosilicate.fine.vswir.ns-6a.jpl.perkin.ancillary.txt

 2.5000	43.4632
 2.4990	43.1570
 2.4980	43.5465
 2.4970	43.4342
 2.4960	43.3142
 2.4950	43.4437
 2.4940	43.6375
 2.4930	43.5769
 2.4920	43.6930
 2.4910	43.6226
 2.4900	43.9253
 2.4890	43.8319
 2.4880	43.9220
 2.4870	43.9474
 2.4860	44.1404
 2.4850	43.9785
 2.4840	44.1341
 2.4830	44.3235
 2.4820	44.3573
 2.4810	44.1885
 2.4800	44.2286
 2.4790	44.3217
 2.4780	44.4650
 2.4770	44.5043
 2.4760	44.3881
 2.4750	44.4444
 2.4740	44.5352
 2.4730	44.4859
 2.4720	44.5509
 2.4710	44.5127
 2.4700	44.5916
 2.4690	44.6220
 2.4680	44.6749
 2.4670	44.5512
 2.4660	44.7600
 2.4650	44.6599
 2.4640	44.7450
 2.4630	44.7002
 2.4620	44.8662
 2.4610	44.7826
 2.4600	44.8143
 2.4590	44.9278
 2.4580	44.8969
 2.4570	45.0205
 2.4560	45.0833
 2.4550	45.0987
 2.4540	45.1043
 2.4530	45.1301
 2.4520	45.2464
 2.4510	45.1416
 2.4500	45.2891
 2.4490	45.2536
 2.4480	45.3537
 2.4470	45.3305
 2.4460	45.2713
 2.4450	45.4029
 2.4440	45.4354
 2.4430	45.4000
 2.4420	45.5446
 2.4410	45.5441
 2.4400	45.5321
 2.4390	45.4909
 2.4380	45.5450
 2.4370	45.5665
 2.4360	45.6083
 2.4350	45.6091
 2.4340	45.6163
 2.4330	45.6292
 2.4320	45.6522
 2.4310	45.6190
 2.4300	45.6303
 2.4290	45.5537
 2.4280	45.5197
 2.4270	45.5481
 2.4260	45.7005
 2.4250	45.6723
 2.4240	45.6393
 2.4230	45.6534
 2.4220	45.6137
 2.4210	45.6075
 2.4200	45.6452
 2.4190	45.6891
 2.4180	45.8058
 2.4170	45.8009
 2.4160	45.8885
 2.4150	45.8442
 2.4140	45.9299
 2.4130	45.8779
 2.4120	45.9184
 2.4110	45.9058
 2.4100	45.9962
 2.4090	45.9791
 2.4080	46.0569
 2.4070	46.0644
 2.4060	46.0583
 2.4050	46.0899
 2.4040	46.1100
 2.4030	46.0487
 2.4020	46.0798
 2.4010	46.1561
 2.4000	46.2254
 2.3990	46.2309
 2.3980	46.2707
 2.3970	46.2351
 2.3960	46.2281
 2.3950	46.2250
 2.3940	46.2693
 2.3930	46.2713
 2.3920	46.3247
 2.3910	46.3553
 2.3900	46.3865
 2.3890	46.3503
 2.3880	46.3372
 2.3870	46.3619
 2.3860	46.3850
 2.3850	46.3949
 2.3840	46.4113
 2.3830	46.4359
 2.3820	46.3985
 2.3810	46.3932
 2.3800	46.4103
 2.3790	46.4528
 2.3780	46.4434
 2.3770	46.4279
 2.3760	46.4889
 2.3750	46.5333
 2.3740	46.5794
 2.3730	46.5607
 2.3720	46.5940
 2.3710	46.5796
 2.3700	46.5597
 2.3690	46.5771
 2.3680	46.6023
 2.3670	46.5796
 2.3660	46.5665
 2.3650	46.6369
 2.3640	46.6758
 2.3630	46.6556
 2.3620	46.6471
 2.3610	46.6734
 2.3600	46.6732
 2.3590	46.6794
 2.3580	46.7074
 2.3570	46.7306
 2.3560	46.7196
 2.3550	46.7453
 2.3540	46.7834
 2.3530	46.7560
 2.3520	46.7701
 2.3510	46.8397
 2.3500	46.8479
 2.3490	46.8088
 2.3480	46.8328
 2.3470	46.8542
 2.3460	46.8634
 2.3450	46.8780
 2.3440	46.8473
 2.3430	46.8231
 2.3420	46.8520
 2.3410	46.8053
 2.3400	46.8057
 2.3390	46.8777
 2.3380	46.8425
 2.3370	46.8659
 2.3360	46.8870
 2.3350	46.8669
 2.3340	46.8628
 2.3330	46.8693
 2.3320	46.8464
 2.3310	46.8755
 2.3300	46.8139
 2.3290	46.7963
 2.3280	46.8281
 2.3270	46.8330
 2.3260	46.8387
 2.3250	46.8434
 2.3240	46.7758
 2.3230	46.8146
 2.3220	46.8886
 2.3210	46.9166
 2.3200	46.8679
 2.3190	46.9164
 2.3180	46.9086
 2.3170	46.8927
 2.3160	46.9125
 2.3150	46.9547
 2.3140	46.9717
 2.3130	46.9479
 2.3120	47.0119
 2.3110	47.0782
 2.3100	46.9948
 2.3090	47.0039
 2.3080	46.9942
 2.3070	47.0252
 2.3060	47.0408
 2.3050	47.0672
 2.3040	46.9811
 2.3030	47.0706
 2.3020	47.1228
 2.3010	47.1018
 2.3000	47.1330
 2.2990	47.0676
 2.2980	47.1330
 2.2970	47.1231
 2.2960	47.1153
 2.2950	47.1477
 2.2940	47.1599
 2.2930	47.1274
 2.2920	47.1713
 2.2910	47.1882
 2.2900	47.1977
 2.2890	47.1905
 2.2880	47.2129
 2.2870	47.2932
 2.2860	47.2289
 2.2850	47.2299
 2.2840	47.2114
 2.2830	47.1573
 2.2820	47.1482
 2.2810	47.2481
 2.2800	47.2076
 2.2790	47.1772
 2.2780	47.2071
 2.2770	47.2680
 2.2760	47.2135
 2.2750	47.1971
 2.2740	47.1509
 2.2730	47.1411
 2.2720	47.0961
 2.2710	47.1232
 2.2700	47.1322
 2.2690	47.1354
 2.2680	47.0988
 2.2670	47.1301
 2.2660	47.0509
 2.2650	47.0414
 2.2640	47.0195
 2.2630	47.0703
 2.2620	46.9909
 2.2610	46.9992
 2.2600	47.0231
 2.2590	47.0912
 2.2580	47.0834
 2.2570	47.0628
 2.2560	47.0241
 2.2550	47.1403
 2.2540	47.1588
 2.2530	47.1422
 2.2520	47.1660
 2.2510	47.1590
 2.2500	47.1225
 2.2490	47.2015
 2.2480	47.1575
 2.2470	47.2396
 2.2460	47.2327
 2.2450	47.2271
 2.2440	47.2114
 2.2430	47.2289
 2.2420	47.1941
 2.2410	47.1400
 2.2400	47.2062
 2.2390	47.2204
 2.2380	47.2196
 2.2370	47.2207
 2.2360	47.2209
 2.2350	47.2635
 2.2340	47.2058
 2.2330	47.1920
 2.2320	47.2519
 2.2310	47.2859
 2.2300	47.2055
 2.2290	47.2782
 2.2280	47.2542
 2.2270	47.2867
 2.2260	47.2339
 2.2250	47.2571
 2.2240	47.2528
 2.2230	47.2337
 2.2220	47.2100
 2.2210	47.1596
 2.2200	47.1577
 2.2190	47.2468
 2.2180	47.1638
 2.2170	47.2639
 2.2160	47.1623
 2.2150	47.1714
 2.2140	47.1407
 2.2130	47.1312
 2.2120	47.2532
 2.2110	47.1259
 2.2100	47.1766
 2.2090	47.2257
 2.2080	47.1895
 2.2070	47.3090
 2.2060	47.2454
 2.2050	47.3198
 2.2040	47.2434
 2.2030	47.3001
 2.2020	47.3052
 2.2010	47.3739
 2.2000	47.3559
 2.1990	47.4232
 2.1980	47.3798
 2.1970	47.4339
 2.1960	47.4817
 2.1950	47.4182
 2.1940	47.4311
 2.1930	47.4830
 2.1920	47.3979
 2.1910	47.5277
 2.1900	47.4367
 2.1890	47.4530
 2.1880	47.4583
 2.1870	47.4533
 2.1860	47.4949
 2.1850	47.5885
 2.1840	47.5223
 2.1830	47.6050
 2.1820	47.5114
 2.1810	47.5565
 2.1800	47.6218
 2.1790	47.5828
 2.1780	47.5486
 2.1770	47.5489
 2.1760	47.5438
 2.1750	47.6189
 2.1740	47.5418
 2.1730	47.6291
 2.1720	47.5683
 2.1710	47.6074
 2.1700	47.6056
 2.1690	47.6416
 2.1680	47.6435
 2.1670	47.6808
 2.1660	47.7126
 2.1650	47.7715
 2.1640	47.7077
 2.1630	47.7160
 2.1620	47.7159
 2.1610	47.7625
 2.1600	47.6960
 2.1590	47.7102
 2.1580	47.6756
 2.1570	47.7238
 2.1560	47.7139
 2.1550	47.7328
 2.1540	47.6777
 2.1530	47.6801
 2.1520	47.6584
 2.1510	47.7644
 2.1500	47.7446
 2.1490	47.7288
 2.1480	47.7583
 2.1470	47.7674
 2.1460	47.8101
 2.1450	47.8078
 2.1440	47.7907
 2.1430	47.7866
 2.1420	47.8096
 2.1410	47.8182
 2.1400	47.8572
 2.1390	47.8870
 2.1380	47.8301
 2.1370	47.9060
 2.1360	47.9347
 2.1350	47.9703
 2.1340	47.9094
 2.1330	47.9833
 2.1320	48.0019
 2.1310	48.0093
 2.1300	47.9357
 2.1290	47.9508
 2.1280	47.9777
 2.1270	47.9924
 2.1260	47.9267
 2.1250	47.8781
 2.1240	47.8788
 2.1230	47.9133
 2.1220	47.8895
 2.1210	47.8412
 2.1200	47.8150
 2.1190	47.8014
 2.1180	47.7035
 2.1170	47.6674
 2.1160	47.6629
 2.1150	47.6622
 2.1140	47.5791
 2.1130	47.5904
 2.1120	47.5592
 2.1110	47.5250
 2.1100	47.4848
 2.1090	47.4414
 2.1080	47.4311
 2.1070	47.4402
 2.1060	47.3533
 2.1050	47.2754
 2.1040	47.2232
 2.1030	47.1391
 2.1020	47.0750
 2.1010	47.0429
 2.1000	46.9766
 2.0990	46.9095
 2.0980	46.7909
 2.0970	46.6419
 2.0960	46.4543
 2.0950	46.2826
 2.0940	45.9913
 2.0930	45.6895
 2.0920	45.2874
 2.0910	44.7935
 2.0900	44.3080
 2.0890	43.7710
 2.0880	43.1672
 2.0870	42.5614
 2.0860	41.9854
 2.0850	41.6448
 2.0840	41.4258
 2.0830	41.3033
 2.0820	41.3747
 2.0810	41.6489
 2.0800	42.0909
 2.0790	42.6876
 2.0780	43.2765
 2.0770	43.9088
 2.0760	44.5551
 2.0750	45.1767
 2.0740	45.6809
 2.0730	46.1295
 2.0720	46.4668
 2.0710	46.6810
 2.0700	46.9609
 2.0690	47.1807
 2.0680	47.2572
 2.0670	47.3054
 2.0660	47.3956
 2.0650	47.5050
 2.0640	47.5411
 2.0630	47.5692
 2.0620	47.5834
 2.0610	47.6104
 2.0600	47.6845
 2.0590	47.7361
 2.0580	47.7356
 2.0570	47.7060
 2.0560	47.7485
 2.0550	47.7877
 2.0540	47.8023
 2.0530	47.7988
 2.0520	47.8107
 2.0510	47.8069
 2.0500	47.8047
 2.0490	47.8304
 2.0480	47.8534
 2.0470	47.8561
 2.0460	47.8757
 2.0450	47.8909
 2.0440	47.9123
 2.0430	47.8994
 2.0420	47.9287
 2.0410	47.8934
 2.0400	47.9038
 2.0390	47.9340
 2.0380	47.9326
 2.0370	47.9731
 2.0360	48.0518
 2.0350	48.0340
 2.0340	48.0149
 2.0330	47.9903
 2.0320	47.9603
 2.0310	47.9627
 2.0300	48.0051
 2.0290	47.9525
 2.0280	47.9762
 2.0270	48.0223
 2.0260	47.9908
 2.0250	47.9534
 2.0240	47.9841
 2.0230	47.9829
 2.0220	48.0025
 2.0210	47.9723
 2.0200	47.9601
 2.0190	47.9902
 2.0180	48.0492
 2.0170	48.0437
 2.0160	47.9481
 2.0150	47.9849
 2.0140	47.9767
 2.0130	47.9709
 2.0120	48.0404
 2.0110	47.9731
 2.0100	47.9794
 2.0090	47.9937
 2.0080	48.0280
 2.0070	48.0776
 2.0060	48.1101
 2.0050	48.0967
 2.0040	48.0051
 2.0030	48.0193
 2.0020	48.0756
 2.0010	48.0397
 2.0000	48.1113
 1.9990	48.0725
 1.9980	48.1156
 1.9970	48.0604
 1.9960	48.0867
 1.9950	48.0955
 1.9940	48.1357
 1.9930	48.0812
 1.9920	47.9832
 1.9910	47.9772
 1.9900	48.0651
 1.9890	48.0085
 1.9880	48.0495
 1.9870	48.0264
 1.9860	47.9389
 1.9850	47.9670
 1.9840	47.9987
 1.9830	48.0395
 1.9820	48.0616
 1.9810	47.9820
 1.9800	47.9812
 1.9790	47.9615
 1.9780	48.0391
 1.9770	47.9313
 1.9760	47.9581
 1.9750	47.9408
 1.9740	47.9604
 1.9730	47.9740
 1.9720	47.9697
 1.9710	47.9289
 1.9700	47.9824
 1.9690	47.9984
 1.9680	47.9697
 1.9670	47.9263
 1.9660	47.9778
 1.9650	47.8687
 1.9640	47.9337
 1.9630	47.9490
 1.9620	47.8691
 1.9610	47.8686
 1.9600	47.9460
 1.9590	47.9581
 1.9580	47.9228
 1.9570	47.9306
 1.9560	47.9331
 1.9550	47.9356
 1.9540	48.0085
 1.9530	47.8927
 1.9520	47.9472
 1.9510	47.8593
 1.9500	47.9356
 1.9490	47.8968
 1.9480	47.9537
 1.9470	47.9454
 1.9460	47.9260
 1.9450	47.8892
 1.9440	47.9641
 1.9430	47.9323
 1.9420	47.9113
 1.9410	47.9121
 1.9400	47.9559
 1.9390	47.9481
 1.9380	47.9195
 1.9370	47.9593
 1.9360	47.9688
 1.9350	47.9134
 1.9340	47.9331
 1.9330	48.0223
 1.9320	48.0685
 1.9310	47.8982
 1.9300	47.9786
 1.9290	47.9327
 1.9280	47.9900
 1.9270	47.9610
 1.9260	47.8859
 1.9250	47.9821
 1.9240	47.9858
 1.9230	47.9276
 1.9220	48.0097
 1.9210	47.9388
 1.9200	47.9889
 1.9190	47.9636
 1.9180	47.9269
 1.9170	47.9748
 1.9160	48.0446
 1.9150	47.9564
 1.9140	47.9649
 1.9130	47.8587
 1.9120	47.9739
 1.9110	47.9465
 1.9100	48.0433
 1.9090	47.9522
 1.9080	48.0102
 1.9070	48.0302
 1.9060	48.0712
 1.9050	48.0334
 1.9040	48.0487
 1.9030	48.0414
 1.9020	48.0540
 1.9010	48.0740
 1.9000	48.1222
 1.8990	48.1038
 1.8980	48.1885
 1.8970	48.1683
 1.8960	48.2686
 1.8950	48.1897
 1.8940	48.2937
 1.8930	48.2174
 1.8920	48.2185
 1.8910	48.2094
 1.8900	48.2496
 1.8890	48.2162
 1.8880	48.3471
 1.8870	48.2654
 1.8860	48.3616
 1.8850	48.3133
 1.8840	48.3416
 1.8830	48.3149
 1.8820	48.3245
 1.8810	48.4224
 1.8800	48.4996
 1.8790	48.4573
 1.8780	48.3712
 1.8770	48.4130
 1.8760	48.4222
 1.8750	48.4806
 1.8740	48.4489
 1.8730	48.3897
 1.8720	48.4157
 1.8710	48.3724
 1.8700	48.4084
 1.8690	48.4009
 1.8680	48.4731
 1.8670	48.4667
 1.8660	48.4929
 1.8650	48.4779
 1.8640	48.5148
 1.8630	48.5202
 1.8620	48.5304
 1.8610	48.4992
 1.8600	48.5033
 1.8590	48.5054
 1.8580	48.5174
 1.8570	48.5253
 1.8560	48.4865
 1.8550	48.4556
 1.8540	48.4971
 1.8530	48.4739
 1.8520	48.4862
 1.8510	48.5085
 1.8500	48.5012
 1.8490	48.5258
 1.8480	48.5860
 1.8470	48.5252
 1.8460	48.5332
 1.8450	48.5353
 1.8440	48.6213
 1.8430	48.6215
 1.8420	48.6370
 1.8410	48.5654
 1.8400	48.6145
 1.8390	48.4984
 1.8380	48.5335
 1.8370	48.5569
 1.8360	48.5638
 1.8350	48.5560
 1.8340	48.5400
 1.8330	48.5984
 1.8320	48.6367
 1.8310	48.5705
 1.8300	48.5696
 1.8290	48.5483
 1.8280	48.5470
 1.8270	48.5818
 1.8260	48.5783
 1.8250	48.6270
 1.8240	48.5858
 1.8230	48.6177
 1.8220	48.6666
 1.8210	48.6053
 1.8200	48.5770
 1.8190	48.5817
 1.8180	48.6155
 1.8170	48.5804
 1.8160	48.5814
 1.8150	48.5950
 1.8140	48.5992
 1.8130	48.5980
 1.8120	48.5850
 1.8110	48.5788
 1.8100	48.6166
 1.8090	48.6599
 1.8080	48.6499
 1.8070	48.6266
 1.8060	48.6653
 1.8050	48.6742
 1.8040	48.6292
 1.8030	48.6491
 1.8020	48.6753
 1.8010	48.6295
 1.8000	48.6251
 1.7990	48.6607
 1.7980	48.6778
 1.7970	48.6540
 1.7960	48.6604
 1.7950	48.6538
 1.7940	48.6598
 1.7930	48.6907
 1.7920	48.6735
 1.7910	48.7025
 1.7900	48.6934
 1.7890	48.6364
 1.7880	48.6373
 1.7870	48.6760
 1.7860	48.6858
 1.7850	48.6565
 1.7840	48.6623
 1.7830	48.7473
 1.7820	48.7433
 1.7810	48.6248
 1.7800	48.6218
 1.7790	48.6739
 1.7780	48.6910
 1.7770	48.6860
 1.7760	48.6067
 1.7750	48.5847
 1.7740	48.6386
 1.7730	48.6725
 1.7720	48.6458
 1.7710	48.6313
 1.7700	48.6159
 1.7690	48.6392
 1.7680	48.6514
 1.7670	48.6273
 1.7660	48.6256
 1.7650	48.6213
 1.7640	48.6542
 1.7630	48.6673
 1.7620	48.6553
 1.7610	48.6811
 1.7600	48.6370
 1.7590	48.6396
 1.7580	48.6888
 1.7570	48.6659
 1.7560	48.6700
 1.7550	48.6766
 1.7540	48.6338
 1.7530	48.6971
 1.7520	48.7266
 1.7510	48.7034
 1.7500	48.6962
 1.7490	48.6777
 1.7480	48.7230
 1.7470	48.7161
 1.7460	48.7041
 1.7450	48.7415
 1.7440	48.7471
 1.7430	48.7058
 1.7420	48.7476
 1.7410	48.7725
 1.7400	48.7112
 1.7390	48.7517
 1.7380	48.7767
 1.7370	48.7917
 1.7360	48.7307
 1.7350	48.7237
 1.7340	48.7020
 1.7330	48.7563
 1.7320	48.7854
 1.7310	48.7873
 1.7300	48.7308
 1.7290	48.7718
 1.7280	48.7841
 1.7270	48.7204
 1.7260	48.7322
 1.7250	48.7694
 1.7240	48.7279
 1.7230	48.8134
 1.7220	48.7698
 1.7210	48.7516
 1.7200	48.7160
 1.7190	48.7414
 1.7180	48.7517
 1.7170	48.7407
 1.7160	48.7640
 1.7150	48.7859
 1.7140	48.7586
 1.7130	48.7805
 1.7120	48.7431
 1.7110	48.8156
 1.7100	48.7949
 1.7090	48.7956
 1.7080	48.7426
 1.7070	48.7741
 1.7060	48.7790
 1.7050	48.7831
 1.7040	48.7275
 1.7030	48.8115
 1.7020	48.7324
 1.7010	48.7642
 1.7000	48.7744
 1.6990	48.7925
 1.6980	48.7765
 1.6970	48.7362
 1.6960	48.6800
 1.6950	48.7927
 1.6940	48.7620
 1.6930	48.8385
 1.6920	48.7730
 1.6910	48.7489
 1.6900	48.7493
 1.6890	48.7052
 1.6880	48.6921
 1.6870	48.7401
 1.6860	48.6810
 1.6850	48.7391
 1.6840	48.7310
 1.6830	48.7638
 1.6820	48.7036
 1.6810	48.7015
 1.6800	48.7313
 1.6790	48.7567
 1.6780	48.8178
 1.6770	48.8090
 1.6760	48.7460
 1.6750	48.7587
 1.6740	48.7736
 1.6730	48.8254
 1.6720	48.7723
 1.6710	48.7570
 1.6700	48.7818
 1.6690	48.8039
 1.6680	48.6657
 1.6670	48.9218
 1.6660	48.7472
 1.6650	48.8057
 1.6640	48.8561
 1.6630	48.8123
 1.6620	48.7520
 1.6610	48.8807
 1.6600	48.8162
 1.6590	48.8129
 1.6580	48.7521
 1.6570	48.8166
 1.6560	48.7916
 1.6550	48.8635
 1.6540	48.8537
 1.6530	48.8829
 1.6520	48.7597
 1.6510	48.7698
 1.6500	48.7816
 1.6490	48.9309
 1.6480	48.8034
 1.6470	48.8333
 1.6460	48.7858
 1.6450	48.9038
 1.6440	48.7757
 1.6430	48.8895
 1.6420	48.8469
 1.6410	48.7631
 1.6400	48.8715
 1.6390	48.9414
 1.6380	48.8039
 1.6370	48.8648
 1.6360	48.8186
 1.6350	48.8758
 1.6340	48.8495
 1.6330	48.8926
 1.6320	48.8154
 1.6310	48.8509
 1.6300	48.8069
 1.6290	48.8334
 1.6280	48.8032
 1.6270	48.8742
 1.6260	48.8719
 1.6250	48.8217
 1.6240	48.8354
 1.6230	48.8510
 1.6220	48.8843
 1.6210	48.9211
 1.6200	48.8501
 1.6190	48.8573
 1.6180	48.8449
 1.6170	48.9124
 1.6160	48.7910
 1.6150	48.8494
 1.6140	48.8557
 1.6130	48.9073
 1.6120	48.8891
 1.6110	48.9156
 1.6100	48.8710
 1.6090	48.9077
 1.6080	48.8797
 1.6070	48.8742
 1.6060	48.8775
 1.6050	48.9709
 1.6040	48.8389
 1.6030	48.9085
 1.6020	48.8776
 1.6010	48.9335
 1.6000	48.8585
 1.5990	48.9466
 1.5980	48.9149
 1.5970	48.9144
 1.5960	48.8545
 1.5950	48.8939
 1.5940	48.8997
 1.5930	48.9300
 1.5920	48.8700
 1.5910	48.9558
 1.5900	48.9677
 1.5890	48.9240
 1.5880	48.8816
 1.5870	48.8862
 1.5860	48.9013
 1.5850	48.9643
 1.5840	48.9856
 1.5830	48.9619
 1.5820	48.8793
 1.5810	48.9710
 1.5800	48.8847
 1.5790	48.9097
 1.5780	48.8529
 1.5770	48.9158
 1.5760	48.8729
 1.5750	48.9482
 1.5740	48.9042
 1.5730	48.9342
 1.5720	48.9046
 1.5710	48.9166
 1.5700	48.9313
 1.5690	48.8971
 1.5680	48.9126
 1.5670	48.9863
 1.5660	48.9165
 1.5650	48.9650
 1.5640	48.9075
 1.5630	48.9231
 1.5620	48.9597
 1.5610	48.9233
 1.5600	48.9408
 1.5590	48.9349
 1.5580	48.8870
 1.5570	48.9519
 1.5560	48.9565
 1.5550	48.9515
 1.5540	48.9685
 1.5530	48.9215
 1.5520	48.8756
 1.5510	48.9157
 1.5500	48.9488
 1.5490	49.0062
 1.5480	48.9688
 1.5470	48.9604
 1.5460	48.9321
 1.5450	48.9771
 1.5440	48.9272
 1.5430	48.9341
 1.5420	48.9267
 1.5410	48.9401
 1.5400	48.9506
 1.5390	48.9580
 1.5380	48.9376
 1.5370	48.9381
 1.5360	48.9198
 1.5350	48.9601
 1.5340	48.9282
 1.5330	48.8662
 1.5320	48.9063
 1.5310	48.9628
 1.5300	48.8997
 1.5290	48.8695
 1.5280	48.8714
 1.5270	48.9228
 1.5260	48.9093
 1.5250	48.9408
 1.5240	48.9866
 1.5230	49.0061
 1.5220	49.0015
 1.5210	48.9636
 1.5200	48.9089
 1.5190	48.9547
 1.5180	48.9414
 1.5170	48.8964
 1.5160	48.9176
 1.5150	48.9154
 1.5140	48.9202
 1.5130	48.9810
 1.5120	48.9551
 1.5110	48.9599
 1.5100	48.9768
 1.5090	48.9838
 1.5080	48.9660
 1.5070	48.9368
 1.5060	48.9209
 1.5050	48.9592
 1.5040	48.9611
 1.5030	48.9876
 1.5020	48.9929
 1.5010	48.9481
 1.5000	48.9149
 1.4990	48.9946
 1.4980	49.0432
 1.4970	48.9564
 1.4960	48.9421
 1.4950	48.9872
 1.4940	48.9584
 1.4930	48.9064
 1.4920	48.9563
 1.4910	48.9580
 1.4900	48.9448
 1.4890	48.9773
 1.4880	48.9537
 1.4870	48.9207
 1.4860	48.9317
 1.4850	48.9643
 1.4840	48.9893
 1.4830	48.9655
 1.4820	48.9869
 1.4810	49.0050
 1.4800	48.9948
 1.4790	48.9354
 1.4780	48.9231
 1.4770	48.9551
 1.4760	48.9463
 1.4750	48.9600
 1.4740	48.9620
 1.4730	49.0068
 1.4720	49.0361
 1.4710	48.9966
 1.4700	48.9749
 1.4690	48.9727
 1.4680	48.9649
 1.4670	48.9483
 1.4660	48.9806
 1.4650	49.0180
 1.4640	49.0210
 1.4630	48.9419
 1.4620	48.9465
 1.4610	48.9912
 1.4600	48.9903
 1.4590	48.9618
 1.4580	49.0044
 1.4570	49.0202
 1.4560	49.0471
 1.4550	49.0039
 1.4540	49.0304
 1.4530	49.0191
 1.4520	49.0005
 1.4510	48.9174
 1.4500	48.9312
 1.4490	48.9418
 1.4480	49.0063
 1.4470	48.9793
 1.4460	48.9776
 1.4450	48.9695
 1.4440	49.0085
 1.4430	48.9920
 1.4420	48.9847
 1.4410	48.9742
 1.4400	48.9882
 1.4390	48.9982
 1.4380	49.0014
 1.4370	49.0220
 1.4360	48.9711
 1.4350	49.0027
 1.4340	49.0070
 1.4330	49.0271
 1.4320	49.0018
 1.4310	48.9784
 1.4300	49.0036
 1.4290	49.0019
 1.4280	48.9479
 1.4270	48.9395
 1.4260	49.0209
 1.4250	48.9701
 1.4240	48.9889
 1.4230	48.9730
 1.4220	49.0709
 1.4210	49.0104
 1.4200	48.9456
 1.4190	48.9203
 1.4180	49.0166
 1.4170	48.9135
 1.4160	48.9554
 1.4150	48.8989
 1.4140	48.9296
 1.4130	48.8345
 1.4120	48.8239
 1.4110	48.8372
 1.4100	48.8051
 1.4090	48.6341
 1.4080	48.4006
 1.4070	48.1950
 1.4060	47.9518
 1.4050	47.8800
 1.4040	47.9854
 1.4030	48.2124
 1.4020	48.4936
 1.4010	48.6374
 1.4000	48.7077
 1.3990	48.8556
 1.3980	49.0064
 1.3970	49.1018
 1.3960	49.1369
 1.3950	49.0734
 1.3940	49.0234
 1.3930	49.0245
 1.3920	49.1390
 1.3910	49.0908
 1.3900	49.1621
 1.3890	49.1941
 1.3880	49.2003
 1.3870	49.0466
 1.3860	49.2262
 1.3850	49.1728
 1.3840	49.2363
 1.3830	49.1251
 1.3820	49.0592
 1.3810	49.1124
 1.3800	49.1338
 1.3790	49.1796
 1.3780	49.1237
 1.3770	49.0832
 1.3760	49.1982
 1.3750	49.2134
 1.3740	49.1948
 1.3730	49.1289
 1.3720	49.1271
 1.3710	49.1762
 1.3700	49.1462
 1.3690	49.1728
 1.3680	49.1596
 1.3670	49.1559
 1.3660	49.2022
 1.3650	49.2554
 1.3640	49.1865
 1.3630	49.2254
 1.3620	49.1128
 1.3610	49.1062
 1.3600	49.1101
 1.3590	49.1665
 1.3580	49.1411
 1.3570	49.1922
 1.3560	49.2014
 1.3550	48.9768
 1.3540	49.1701
 1.3530	49.1526
 1.3520	49.1756
 1.3510	49.0972
 1.3500	49.1757
 1.3490	49.1849
 1.3480	49.1725
 1.3470	49.1216
 1.3460	49.1062
 1.3450	49.0902
 1.3440	49.1667
 1.3430	49.0965
 1.3420	49.1596
 1.3410	49.0785
 1.3400	49.1678
 1.3390	49.1136
 1.3380	49.2295
 1.3370	49.1878
 1.3360	49.2352
 1.3350	49.1863
 1.3340	49.1499
 1.3330	49.1490
 1.3320	49.2333
 1.3310	49.2257
 1.3300	49.1933
 1.3290	49.1429
 1.3280	49.1877
 1.3270	49.1569
 1.3260	49.2429
 1.3250	49.2101
 1.3240	49.2363
 1.3230	49.1631
 1.3220	49.2110
 1.3210	49.2089
 1.3200	49.2089
 1.3190	49.1351
 1.3180	49.2591
 1.3170	49.1670
 1.3160	49.2251
 1.3150	49.1800
 1.3140	49.2112
 1.3130	49.2130
 1.3120	49.1879
 1.3110	49.1941
 1.3100	49.2179
 1.3090	49.2030
 1.3080	49.2207
 1.3070	49.2932
 1.3060	49.2585
 1.3050	49.1694
 1.3040	49.2008
 1.3030	49.1829
 1.3020	49.2540
 1.3010	49.1712
 1.3000	49.2073
 1.2990	49.2132
 1.2980	49.2118
 1.2970	49.1582
 1.2960	49.2219
 1.2950	49.1867
 1.2940	49.2511
 1.2930	49.1976
 1.2920	49.2352
 1.2910	49.2935
 1.2900	49.2804
 1.2890	49.2391
 1.2880	49.2757
 1.2870	49.2463
 1.2860	49.2586
 1.2850	49.2593
 1.2840	49.2392
 1.2830	49.2052
 1.2820	49.2336
 1.2810	49.2205
 1.2800	49.2302
 1.2790	49.2186
 1.2780	49.2553
 1.2770	49.2241
 1.2760	49.1964
 1.2750	49.2167
 1.2740	49.2689
 1.2730	49.2088
 1.2720	49.2415
 1.2710	49.2540
 1.2700	49.2685
 1.2690	49.2451
 1.2680	49.2881
 1.2670	49.2156
 1.2660	49.2091
 1.2650	49.2377
 1.2640	49.3019
 1.2630	49.2812
 1.2620	49.3072
 1.2610	49.2547
 1.2600	49.2378
 1.2590	49.2173
 1.2580	49.2536
 1.2570	49.2232
 1.2560	49.2967
 1.2550	49.2943
 1.2540	49.2835
 1.2530	49.2635
 1.2520	49.3101
 1.2510	49.2949
 1.2500	49.2440
 1.2490	49.2596
 1.2480	49.2820
 1.2470	49.2871
 1.2460	49.3344
 1.2450	49.3008
 1.2440	49.2839
 1.2430	49.2386
 1.2420	49.2687
 1.2410	49.2852
 1.2400	49.2821
 1.2390	49.2744
 1.2380	49.2952
 1.2370	49.2914
 1.2360	49.3078
 1.2350	49.2879
 1.2340	49.2894
 1.2330	49.3197
 1.2320	49.3814
 1.2310	49.3588
 1.2300	49.3136
 1.2290	49.3424
 1.2280	49.3283
 1.2270	49.2884
 1.2260	49.3152
 1.2250	49.3099
 1.2240	49.3257
 1.2230	49.3358
 1.2220	49.3289
 1.2210	49.3465
 1.2200	49.3228
 1.2190	49.3279
 1.2180	49.3526
 1.2170	49.3979
 1.2160	49.3354
 1.2150	49.2726
 1.2140	49.3079
 1.2130	49.2659
 1.2120	49.2497
 1.2110	49.3199
 1.2100	49.3541
 1.2090	49.2975
 1.2080	49.2680
 1.2070	49.3292
 1.2060	49.3048
 1.2050	49.2978
 1.2040	49.3032
 1.2030	49.3323
 1.2020	49.3500
 1.2010	49.3641
 1.2000	49.3890
 1.1990	49.3842
 1.1980	49.3592
 1.1970	49.3335
 1.1960	49.3455
 1.1950	49.3543
 1.1940	49.3036
 1.1930	49.3634
 1.1920	49.3856
 1.1910	49.3834
 1.1900	49.3822
 1.1890	49.3831
 1.1880	49.3515
 1.1870	49.3840
 1.1860	49.3570
 1.1850	49.3510
 1.1840	49.3985
 1.1830	49.3521
 1.1820	49.3596
 1.1810	49.3765
 1.1800	49.3268
 1.1790	49.3317
 1.1780	49.3635
 1.1770	49.4061
 1.1760	49.3581
 1.1750	49.3996
 1.1740	49.4171
 1.1730	49.3968
 1.1720	49.3720
 1.1710	49.3839
 1.1700	49.4083
 1.1690	49.3817
 1.1680	49.3781
 1.1670	49.4308
 1.1660	49.3914
 1.1650	49.4580
 1.1640	49.4516
 1.1630	49.4491
 1.1620	49.4486
 1.1610	49.4391
 1.1600	49.4649
 1.1590	49.4280
 1.1580	49.4271
 1.1570	49.4007
 1.1560	49.4496
 1.1550	49.4882
 1.1540	49.4496
 1.1530	49.4443
 1.1520	49.4548
 1.1510	49.4547
 1.1500	49.4494
 1.1490	49.4605
 1.1480	49.4378
 1.1470	49.4949
 1.1460	49.5105
 1.1450	49.4513
 1.1440	49.4372
 1.1430	49.4936
 1.1420	49.4925
 1.1410	49.4659
 1.1400	49.4629
 1.1390	49.4927
 1.1380	49.4352
 1.1370	49.4988
 1.1360	49.5392
 1.1350	49.4704
 1.1340	49.4279
 1.1330	49.5212
 1.1320	49.5168
 1.1310	49.5951
 1.1300	49.5695
 1.1290	49.5020
 1.1280	49.5161
 1.1270	49.5588
 1.1260	49.4966
 1.1250	49.5195
 1.1240	49.4923
 1.1230	49.4595
 1.1220	49.4945
 1.1210	49.5575
 1.1200	49.4524
 1.1190	49.5354
 1.1180	49.5324
 1.1170	49.6311
 1.1160	49.5439
 1.1150	49.5181
 1.1140	49.4854
 1.1130	49.5385
 1.1120	49.5215
 1.1110	49.5638
 1.1100	49.4650
 1.1090	49.5275
 1.1080	49.5802
 1.1070	49.5065
 1.1060	49.5668
 1.1050	49.5651
 1.1040	49.6170
 1.1030	49.5852
 1.1020	49.5960
 1.1010	49.5532
 1.1000	49.4866
 1.0990	49.5452
 1.0980	49.4605
 1.0970	49.5501
 1.0960	49.5597
 1.0950	49.5425
 1.0940	49.5608
 1.0930	49.6147
 1.0920	49.6191
 1.0910	49.6960
 1.0900	49.5405
 1.0890	49.5667
 1.0880	49.5842
 1.0870	49.6127
 1.0860	49.5718
 1.0850	49.6401
 1.0840	49.5649
 1.0830	49.6076
 1.0820	49.6588
 1.0810	49.6473
 1.0800	49.5795
 1.0790	49.6505
 1.0780	49.6875
 1.0770	49.6085
 1.0760	49.6084
 1.0750	49.7192
 1.0740	49.5369
 1.0730	49.6470
 1.0720	49.6089
 1.0710	49.7032
 1.0700	49.5504
 1.0690	49.7504
 1.0680	49.5432
 1.0670	49.6087
 1.0660	49.5594
 1.0650	49.6998
 1.0640	49.6277
 1.0630	49.7236
 1.0620	49.6556
 1.0610	49.6901
 1.0600	49.5864
 1.0590	49.6535
 1.0580	49.5988
 1.0570	49.7051
 1.0560	49.6179
 1.0550	49.7038
 1.0540	49.7262
 1.0530	49.6232
 1.0520	49.5988
 1.0510	49.6574
 1.0500	49.6024
 1.0490	49.7141
 1.0480	49.7634
 1.0470	49.6031
 1.0460	49.6522
 1.0450	49.7205
 1.0440	49.6483
 1.0430	49.7710
 1.0420	49.7048
 1.0410	49.7066
 1.0400	49.6524
 1.0390	49.6961
 1.0380	49.6981
 1.0370	49.7182
 1.0360	49.6835
 1.0350	49.6960
 1.0340	49.7542
 1.0330	49.7389
 1.0320	49.7399
 1.0310	49.7118
 1.0300	49.7503
 1.0290	49.8133
 1.0280	49.7479
 1.0270	49.7731
 1.0260	49.7224
 1.0250	49.7802
 1.0240	49.7444
 1.0230	49.7718
 1.0220	49.6836
 1.0210	49.7320
 1.0200	49.7782
 1.0190	49.8256
 1.0180	49.7849
 1.0170	49.8104
 1.0160	49.7549
 1.0150	49.8446
 1.0140	49.8014
 1.0130	49.7307
 1.0120	49.7457
 1.0110	49.8050
 1.0100	49.7179
 1.0090	49.8753
 1.0080	49.7798
 1.0070	49.8390
 1.0060	49.8085
 1.0050	49.7857
 1.0040	49.7978
 1.0030	49.7606
 1.0020	49.7101
 1.0010	49.8147
 1.0000	49.7983
 0.9990	49.8249
 0.9980	49.7708
 0.9970	49.7508
 0.9960	49.8282
 0.9950	49.8759
 0.9940	49.7859
 0.9930	49.7365
 0.9920	49.7967
 0.9910	49.8464
 0.9900	49.7891
 0.9890	49.7752
 0.9880	49.8179
 0.9870	49.8738
 0.9860	49.7907
 0.9850	49.8213
 0.9840	49.8255
 0.9830	49.8401
 0.9820	49.8262
 0.9810	49.8484
 0.9800	49.8534
 0.9790	49.8547
 0.9780	49.8391
 0.9770	49.8483
 0.9760	49.8078
 0.9750	49.9023
 0.9740	49.9023
 0.9730	49.8833
 0.9720	49.8655
 0.9710	49.8217
 0.9700	49.8702
 0.9690	49.9173
 0.9680	49.9362
 0.9670	49.9377
 0.9660	49.8537
 0.9650	49.8477
 0.9640	49.8374
 0.9630	49.8640
 0.9620	49.8811
 0.9610	49.8775
 0.9600	49.9063
 0.9590	49.9351
 0.9580	49.8834
 0.9570	49.8859
 0.9560	49.8817
 0.9550	49.8754
 0.9540	49.9246
 0.9530	49.9065
 0.9520	49.8673
 0.9510	49.9220
 0.9500	49.9086
 0.9490	49.9211
 0.9480	49.9516
 0.9470	49.8898
 0.9460	49.9076
 0.9450	49.9044
 0.9440	49.8801
 0.9430	49.9150
 0.9420	49.9248
 0.9410	49.9086
 0.9400	49.9335
 0.9390	49.9957
 0.9380	49.9591
 0.9370	49.9498
 0.9360	49.9831
 0.9350	49.9227
 0.9340	49.8718
 0.9330	49.9509
 0.9320	49.9897
 0.9310	49.9422
 0.9300	49.9072
 0.9290	49.9745
 0.9280	49.9832
 0.9270	49.9825
 0.9260	49.9884
 0.9250	49.9530
 0.9240	49.9654
 0.9230	49.9620
 0.9220	49.9317
 0.9210	49.9522
 0.9200	49.9635
 0.9190	49.9411
 0.9180	49.9557
 0.9170	49.9552
 0.9160	49.9875
 0.9150	49.9892
 0.9140	49.9992
 0.9130	49.9675
 0.9120	49.9602
 0.9110	49.9847
 0.9100	49.9952
 0.9090	49.9813
 0.9080	49.9704
 0.9070	49.9778
 0.9060	49.9282
 0.9050	49.9401
 0.9040	49.9861
 0.9030	49.9763
 0.9020	49.9818
 0.9010	49.9818
 0.9000	50.0024
 0.8990	49.9860
 0.8980	50.0091
 0.8970	49.9880
 0.8960	49.9861
 0.8950	49.9484
 0.8940	49.9444
 0.8930	49.9848
 0.8920	50.0170
 0.8910	49.9543
 0.8900	50.0233
 0.8890	49.9824
 0.8880	49.9849
 0.8870	50.0465
 0.8860	50.0220
 0.8850	50.0020
 0.8840	50.0055
 0.8830	49.9776
 0.8820	50.0290
 0.8810	49.9723
 0.8800	50.0357
 0.8790	50.0717
 0.8780	50.0764
 0.8770	50.0267
 0.8760	50.0645
 0.8750	50.0483
 0.8740	50.0291
 0.8730	50.0188
 0.8720	50.0079
 0.8710	49.9874
 0.8700	50.0309
 0.8690	50.0286
 0.8680	50.0061
 0.8670	50.0060
 0.8660	49.9817
 0.8650	49.9940
 0.8640	50.0226
 0.8630	50.0131
 0.8620	50.0296
 0.8610	50.0149
 0.8600	50.1844
 0.8590	50.1680
 0.8580	50.1966
 0.8570	50.2822
 0.8560	50.2142
 0.8550	50.2641
 0.8540	50.2205
 0.8530	50.1975
 0.8520	50.1842
 0.8510	50.2177
 0.8500	50.2917
 0.8490	50.2771
 0.8480	50.2889
 0.8470	50.2729
 0.8460	50.2043
 0.8450	50.2042
 0.8440	50.2733
 0.8430	50.2225
 0.8420	50.2807
 0.8410	50.3384
 0.8400	50.2938
 0.8390	50.2516
 0.8380	50.2690
 0.8370	50.2616
 0.8360	50.2882
 0.8350	50.2926
 0.8340	50.2678
 0.8330	50.3013
 0.8320	50.3380
 0.8310	50.2762
 0.8300	50.3012
 0.8290	50.3399
 0.8280	50.2837
 0.8270	50.2972
 0.8260	50.3136
 0.8250	50.3045
 0.8240	50.2948
 0.8230	50.3396
 0.8220	50.2906
 0.8210	50.3063
 0.8200	50.3419
 0.8190	50.3192
 0.8180	50.3275
 0.8170	50.3825
 0.8160	50.3180
 0.8150	50.2994
 0.8140	50.3536
 0.8130	50.3087
 0.8120	50.3216
 0.8110	50.3533
 0.8100	50.3597
 0.8090	50.3510
 0.8080	50.3597
 0.8070	50.3200
 0.8060	50.3464
 0.8050	50.3632
 0.8040	50.3418
 0.8030	50.3724
 0.8020	50.3618
 0.8010	50.3775
 0.8000	50.3482
 0.7990	50.3615
 0.7980	50.3959
 0.7970	50.3313
 0.7960	50.3230
 0.7950	50.3582
 0.7940	50.3140
 0.7930	50.3289
 0.7920	50.3327
 0.7910	50.2804
 0.7900	50.3239
 0.7890	50.3535
 0.7880	50.3217
 0.7870	50.3091
 0.7860	50.3266
 0.7850	50.3236
 0.7840	50.3230
 0.7830	50.3501
 0.7820	50.3522
 0.7810	50.3719
 0.7800	50.3615
 0.7790	50.3140
 0.7780	50.3227
 0.7770	50.3419
 0.7760	50.3112
 0.7750	50.3083
 0.7740	50.3649
 0.7730	50.3045
 0.7720	50.3173
 0.7710	50.3613
 0.7700	50.3035
 0.7690	50.3339
 0.7680	50.3489
 0.7670	50.3371
 0.7660	50.3453
 0.7650	50.3365
 0.7640	50.3528
 0.7630	50.3306
 0.7620	50.3583
 0.7610	50.3585
 0.7600	50.3671
 0.7590	50.3605
 0.7580	50.3274
 0.7570	50.3483
 0.7560	50.3594
 0.7550	50.3490
 0.7540	50.3696
 0.7530	50.3465
 0.7520	50.3607
 0.7510	50.3551
 0.7500	50.3634
 0.7490	50.3454
 0.7480	50.3694
 0.7470	50.3726
 0.7460	50.3641
 0.7450	50.3752
 0.7440	50.3611
 0.7430	50.3489
 0.7420	50.3587
 0.7410	50.3810
 0.7400	50.3635
 0.7390	50.3615
 0.7380	50.3843
 0.7370	50.3985
 0.7360	50.3906
 0.7350	50.3865
 0.7340	50.3772
 0.7330	50.3759
 0.7320	50.3870
 0.7310	50.3858
 0.7300	50.3942
 0.7290	50.3831
 0.7280	50.3895
 0.7270	50.3980
 0.7260	50.3862
 0.7250	50.3926
 0.7240	50.3860
 0.7230	50.3842
 0.7220	50.3960
 0.7210	50.3917
 0.7200	50.3887
 0.7190	50.3910
 0.7180	50.4222
 0.7170	50.4073
 0.7160	50.3951
 0.7150	50.3970
 0.7140	50.4068
 0.7130	50.4249
 0.7120	50.4340
 0.7110	50.4097
 0.7100	50.4002
 0.7090	50.4175
 0.7080	50.4296
 0.7070	50.4124
 0.7060	50.4196
 0.7050	50.4196
 0.7040	50.4210
 0.7030	50.4251
 0.7020	50.4357
 0.7010	50.4327
 0.7000	50.4348
 0.6990	50.4171
 0.6980	50.4165
 0.6970	50.4272
 0.6960	50.4532
 0.6950	50.4432
 0.6940	50.4244
 0.6930	50.4372
 0.6920	50.4358
 0.6910	50.4374
 0.6900	50.4617
 0.6890	50.4533
 0.6880	50.4500
 0.6870	50.4537
 0.6860	50.4480
 0.6850	50.4508
 0.6840	50.4535
 0.6830	50.4523
 0.6820	50.4636
 0.6810	50.4612
 0.6800	50.4579
 0.6790	50.4630
 0.6780	50.4669
 0.6770	50.4646
 0.6760	50.4746
 0.6750	50.4761
 0.6740	50.4733
 0.6730	50.4817
 0.6720	50.4860
 0.6710	50.4742
 0.6700	50.4758
 0.6690	50.4854
 0.6680	50.4773
 0.6670	50.4826
 0.6660	50.4939
 0.6650	50.4932
 0.6640	50.4841
 0.6630	50.4844
 0.6620	50.4805
 0.6610	50.4789
 0.6600	50.4861
 0.6590	50.4853
 0.6580	50.4903
 0.6570	50.4962
 0.6560	50.4992
 0.6550	50.5065
 0.6540	50.5027
 0.6530	50.4930
 0.6520	50.5042
 0.6510	50.5086
 0.6500	50.5049
 0.6490	50.5030
 0.6480	50.5077
 0.6470	50.5147
 0.6460	50.5114
 0.6450	50.5147
 0.6440	50.5293
 0.6430	50.5331
 0.6420	50.5328
 0.6410	50.5215
 0.6400	50.5188
 0.6390	50.5306
 0.6380	50.5350
 0.6370	50.5328
 0.6360	50.5281
 0.6350	50.5313
 0.6340	50.5412
 0.6330	50.5418
 0.6320	50.5411
 0.6310	50.5421
 0.6300	50.5453
 0.6290	50.5536
 0.6280	50.5554
 0.6270	50.5500
 0.6260	50.5512
 0.6250	50.5589
 0.6240	50.5491
 0.6230	50.5405
 0.6220	50.5481
 0.6210	50.5413
 0.6200	50.5439
 0.6190	50.5591
 0.6180	50.5638
 0.6170	50.5703
 0.6160	50.5717
 0.6150	50.5665
 0.6140	50.5706
 0.6130	50.5736
 0.6120	50.5689
 0.6110	50.5679
 0.6100	50.5727
 0.6090	50.5742
 0.6080	50.5682
 0.6070	50.5713
 0.6060	50.5781
 0.6050	50.5764
 0.6040	50.5855
 0.6030	50.5863
 0.6020	50.5866
 0.6010	50.5900
 0.6000	50.5872
 0.5990	50.6027
 0.5980	50.6195
 0.5970	50.6266
 0.5960	50.6333
 0.5950	50.6462
 0.5940	50.6495
 0.5930	50.6560
 0.5920	50.6565
 0.5910	50.6512
 0.5900	50.6527
 0.5890	50.6630
 0.5880	50.6621
 0.5870	50.6742
 0.5860	50.6801
 0.5850	50.6766
 0.5840	50.6707
 0.5830	50.6674
 0.5820	50.6609
 0.5810	50.6692
 0.5800	50.6748
 0.5790	50.6742
 0.5780	50.6742
 0.5770	50.6817
 0.5760	50.6698
 0.5750	50.6716
 0.5740	50.6761
 0.5730	50.6803
 0.5720	50.6882
 0.5710	50.6936
 0.5700	50.6896
 0.5690	50.6875
 0.5680	50.6814
 0.5670	50.6881
 0.5660	50.6804
 0.5650	50.6821
 0.5640	50.6895
 0.5630	50.6841
 0.5620	50.6878
 0.5610	50.7021
 0.5600	50.6999
 0.5590	50.6867
 0.5580	50.6862
 0.5570	50.7040
 0.5560	50.7017
 0.5550	50.6975
 0.5540	50.6952
 0.5530	50.6963
 0.5520	50.6908
 0.5510	50.7064
 0.5500	50.7063
 0.5490	50.6993
 0.5480	50.7062
 0.5470	50.7047
 0.5460	50.7097
 0.5450	50.7079
 0.5440	50.7133
 0.5430	50.7096
 0.5420	50.7019
 0.5410	50.7081
 0.5400	50.7131
 0.5390	50.7075
 0.5380	50.7229
 0.5370	50.7160
 0.5360	50.7085
 0.5350	50.7083
 0.5340	50.7105
 0.5330	50.7161
 0.5320	50.7059
 0.5310	50.7079
 0.5300	50.7186
 0.5290	50.7166
 0.5280	50.7055
 0.5270	50.7184
 0.5260	50.7079
 0.5250	50.7247
 0.5240	50.7291
 0.5230	50.7345
 0.5220	50.7278
 0.5210	50.7161
 0.5200	50.7258
 0.5190	50.7221
 0.5180	50.7311
 0.5170	50.7173
 0.5160	50.7335
 0.5150	50.7296
 0.5140	50.7197
 0.5130	50.7320
 0.5120	50.7329
 0.5110	50.7372
 0.5100	50.7471
 0.5090	50.7416
 0.5080	50.7429
 0.5070	50.7314
 0.5060	50.7343
 0.5050	50.7358
 0.5040	50.7477
 0.5030	50.7225
 0.5020	50.7425
 0.5010	50.7480
 0.5000	50.7500
 0.4990	50.7463
 0.4980	50.7450
 0.4970	50.7362
 0.4960	50.7381
 0.4950	50.7497
 0.4940	50.7600
 0.4930	50.7663
 0.4920	50.7495
 0.4910	50.7604
 0.4900	50.7637
 0.4890	50.7483
 0.4880	50.7483
 0.4870	50.7396
 0.4860	50.7540
 0.4850	50.7442
 0.4840	50.7489
 0.4830	50.7512
 0.4820	50.7617
 0.4810	50.7647
 0.4800	50.7671
 0.4790	50.7477
 0.4780	50.7581
 0.4770	50.7634
 0.4760	50.7446
 0.4750	50.7600
 0.4740	50.7467
 0.4730	50.7437
 0.4720	50.7517
 0.4710	50.7592
 0.4700	50.7656
 0.4690	50.7592
 0.4680	50.7466
 0.4670	50.7595
 0.4660	50.7664
 0.4650	50.7489
 0.4640	50.7548
 0.4630	50.7555
 0.4620	50.7637
 0.4610	50.7705
 0.4600	50.7662
 0.4590	50.7465
 0.4580	50.7572
 0.4570	50.7639
 0.4560	50.7485
 0.4550	50.7496
 0.4540	50.7593
 0.4530	50.7563
 0.4520	50.7507
 0.4510	50.7611
 0.4500	50.7609
 0.4490	50.7554
 0.4480	50.7554
 0.4470	50.7643
 0.4460	50.7350
 0.4450	50.7461
 0.4440	50.7589
 0.4430	50.7455
 0.4420	50.7535
 0.4410	50.7500
 0.4400	50.7328
 0.4390	50.7484
 0.4380	50.7583
 0.4370	50.7521
 0.4360	50.7347
 0.4350	50.7415
 0.4340	50.7403
 0.4330	50.7478
 0.4320	50.7346
 0.4310	50.7259
 0.4300	50.7267
 0.4290	50.7224
 0.4280	50.7179
 0.4270	50.7213
 0.4260	50.7138
 0.4250	50.7175
 0.4240	50.7315
 0.4230	50.7187
 0.4220	50.7079
 0.4210	50.7104
 0.4200	50.7039
 0.4190	50.7004
 0.4180	50.7037
 0.4170	50.7000
 0.4160	50.6847
 0.4150	50.6946
 0.4140	50.6963
 0.4130	50.6837
 0.4120	50.6785
 0.4110	50.6876
 0.4100	50.6833
 0.4090	50.6632
 0.4080	50.6572
 0.4070	50.6739
 0.4060	50.6696
 0.4050	50.6680
 0.4040	50.6718
 0.4030	50.6600
 0.4020	50.6591
 0.4010	50.6538
 0.4000	50.6373
