Name: Hypersthene (Mg,Fe^2+)_2Si_2O_6
Type: Mineral
Class: Silicate
Subclass: Inosilicate
Particle Size: Fine
Sample No.: IN-14A
Owner: JPL
Wavelength Range: VSWIR
Origin: France, Martinique, Caribbean, Mount Pelee.
Collection Date: N/A
Description: Particle size was 0-45um.Collected by:  JPL Original ASTER Spectral Library name was jpl.perkin.mineral.silicate.inosilicate.fine.in14a.spectrum.txt
Measurement: Hemispherical reflectance
First Column: X
Second Column: Y
X Units: Wavelength (micrometers)
Y Units:Reflectance (percent)
First X Value:  2.5000
Last X Value:  0.4000
Number of X Values: 2101
Additional Information: mineral.silicate.inosilicate.fine.vswir.in-14a.jpl.perkin.ancillary.txt

 2.5000	45.2636
 2.4990	45.2158
 2.4980	45.3138
 2.4970	45.1932
 2.4960	45.0204
 2.4950	45.3571
 2.4940	45.3994
 2.4930	45.2531
 2.4920	45.2039
 2.4910	45.3270
 2.4900	45.4508
 2.4890	45.3809
 2.4880	45.4539
 2.4870	45.2105
 2.4860	45.2615
 2.4850	45.3323
 2.4840	45.2838
 2.4830	45.1827
 2.4820	45.4442
 2.4810	45.2721
 2.4800	45.3591
 2.4790	45.3439
 2.4780	45.3414
 2.4770	45.1629
 2.4760	45.3634
 2.4750	45.3911
 2.4740	45.2885
 2.4730	45.1326
 2.4720	45.2795
 2.4710	45.1923
 2.4700	45.2981
 2.4690	45.2941
 2.4680	45.2578
 2.4670	45.2900
 2.4660	45.4379
 2.4650	45.2041
 2.4640	45.3360
 2.4630	45.3501
 2.4620	45.4242
 2.4610	45.2492
 2.4600	45.3844
 2.4590	45.2551
 2.4580	45.3812
 2.4570	45.3456
 2.4560	45.4318
 2.4550	45.3875
 2.4540	45.4886
 2.4530	45.4125
 2.4520	45.4292
 2.4510	45.3258
 2.4500	45.3617
 2.4490	45.4188
 2.4480	45.4104
 2.4470	45.3829
 2.4460	45.3876
 2.4450	45.3621
 2.4440	45.5325
 2.4430	45.3669
 2.4420	45.4650
 2.4410	45.4268
 2.4400	45.4701
 2.4390	45.4194
 2.4380	45.4577
 2.4370	45.4250
 2.4360	45.5158
 2.4350	45.3525
 2.4340	45.5018
 2.4330	45.4787
 2.4320	45.4674
 2.4310	45.3914
 2.4300	45.5359
 2.4290	45.4924
 2.4280	45.4717
 2.4270	45.4151
 2.4260	45.5129
 2.4250	45.4434
 2.4240	45.5699
 2.4230	45.6053
 2.4220	45.6001
 2.4210	45.5126
 2.4200	45.4965
 2.4190	45.4120
 2.4180	45.5247
 2.4170	45.5681
 2.4160	45.5532
 2.4150	45.4988
 2.4140	45.4547
 2.4130	45.4533
 2.4120	45.4514
 2.4110	45.4957
 2.4100	45.5397
 2.4090	45.4180
 2.4080	45.5087
 2.4070	45.4759
 2.4060	45.5509
 2.4050	45.4737
 2.4040	45.5077
 2.4030	45.4858
 2.4020	45.4717
 2.4010	45.4449
 2.4000	45.5127
 2.3990	45.5833
 2.3980	45.5581
 2.3970	45.5066
 2.3960	45.5057
 2.3950	45.5518
 2.3940	45.5364
 2.3930	45.5303
 2.3920	45.5821
 2.3910	45.5915
 2.3900	45.6135
 2.3890	45.5441
 2.3880	45.5530
 2.3870	45.5267
 2.3860	45.5206
 2.3850	45.5350
 2.3840	45.5823
 2.3830	45.5460
 2.3820	45.5553
 2.3810	45.5336
 2.3800	45.5054
 2.3790	45.5444
 2.3780	45.5701
 2.3770	45.5514
 2.3760	45.6027
 2.3750	45.5928
 2.3740	45.5923
 2.3730	45.6178
 2.3720	45.6589
 2.3710	45.5940
 2.3700	45.5968
 2.3690	45.6136
 2.3680	45.5861
 2.3670	45.6146
 2.3660	45.6363
 2.3650	45.6416
 2.3640	45.6354
 2.3630	45.6022
 2.3620	45.6247
 2.3610	45.6481
 2.3600	45.6392
 2.3590	45.6090
 2.3580	45.6045
 2.3570	45.5971
 2.3560	45.5531
 2.3550	45.5668
 2.3540	45.6040
 2.3530	45.6259
 2.3520	45.6708
 2.3510	45.6075
 2.3500	45.5462
 2.3490	45.5884
 2.3480	45.5478
 2.3470	45.5615
 2.3460	45.5532
 2.3450	45.5597
 2.3440	45.6071
 2.3430	45.5902
 2.3420	45.5551
 2.3410	45.5366
 2.3400	45.4813
 2.3390	45.5011
 2.3380	45.5103
 2.3370	45.5113
 2.3360	45.4528
 2.3350	45.4665
 2.3340	45.4511
 2.3330	45.4489
 2.3320	45.4389
 2.3310	45.4211
 2.3300	45.3539
 2.3290	45.3558
 2.3280	45.4013
 2.3270	45.3867
 2.3260	45.3746
 2.3250	45.3525
 2.3240	45.3075
 2.3230	45.3472
 2.3220	45.3062
 2.3210	45.2980
 2.3200	45.2671
 2.3190	45.2677
 2.3180	45.2326
 2.3170	45.2533
 2.3160	45.2542
 2.3150	45.2740
 2.3140	45.1967
 2.3130	45.2464
 2.3120	45.1930
 2.3110	45.1869
 2.3100	45.1855
 2.3090	45.1900
 2.3080	45.2090
 2.3070	45.2233
 2.3060	45.1402
 2.3050	45.2038
 2.3040	45.1759
 2.3030	45.1795
 2.3020	45.1466
 2.3010	45.2027
 2.3000	45.1502
 2.2990	45.1418
 2.2980	45.1269
 2.2970	45.0983
 2.2960	45.0694
 2.2950	45.0991
 2.2940	45.0946
 2.2930	45.1103
 2.2920	45.0740
 2.2910	44.9927
 2.2900	44.9735
 2.2890	45.0366
 2.2880	45.0228
 2.2870	45.0020
 2.2860	44.9566
 2.2850	45.0386
 2.2840	44.8944
 2.2830	44.9379
 2.2820	44.9756
 2.2810	45.0463
 2.2800	44.9485
 2.2790	44.9422
 2.2780	44.8635
 2.2770	44.9662
 2.2760	44.8221
 2.2750	44.9184
 2.2740	44.8630
 2.2730	44.9208
 2.2720	44.8747
 2.2710	44.8255
 2.2700	44.7993
 2.2690	44.7892
 2.2680	44.8054
 2.2670	44.8526
 2.2660	44.7196
 2.2650	44.7642
 2.2640	44.7720
 2.2630	44.7881
 2.2620	44.7030
 2.2610	44.7253
 2.2600	44.7140
 2.2590	44.7672
 2.2580	44.6769
 2.2570	44.6691
 2.2560	44.6730
 2.2550	44.7202
 2.2540	44.6213
 2.2530	44.6502
 2.2520	44.5894
 2.2510	44.6462
 2.2500	44.6024
 2.2490	44.5752
 2.2480	44.4913
 2.2470	44.6078
 2.2460	44.5093
 2.2450	44.5268
 2.2440	44.4815
 2.2430	44.6175
 2.2420	44.5223
 2.2410	44.5805
 2.2400	44.5170
 2.2390	44.5011
 2.2380	44.4957
 2.2370	44.4540
 2.2360	44.4095
 2.2350	44.5429
 2.2340	44.4336
 2.2330	44.5270
 2.2320	44.4332
 2.2310	44.4727
 2.2300	44.3506
 2.2290	44.4249
 2.2280	44.3559
 2.2270	44.3471
 2.2260	44.2233
 2.2250	44.3644
 2.2240	44.2508
 2.2230	44.3921
 2.2220	44.2682
 2.2210	44.3863
 2.2200	44.2762
 2.2190	44.3808
 2.2180	44.2970
 2.2170	44.2705
 2.2160	44.1576
 2.2150	44.4136
 2.2140	44.2339
 2.2130	44.2504
 2.2120	44.3527
 2.2110	44.1532
 2.2100	44.3557
 2.2090	44.2867
 2.2080	44.1563
 2.2070	44.3183
 2.2060	44.2013
 2.2050	44.3487
 2.2040	44.2489
 2.2030	44.2194
 2.2020	44.1780
 2.2010	44.2632
 2.2000	44.2357
 2.1990	44.1815
 2.1980	44.2311
 2.1970	44.2704
 2.1960	44.1649
 2.1950	44.2246
 2.1940	44.0507
 2.1930	44.1484
 2.1920	44.1148
 2.1910	44.1109
 2.1900	43.9982
 2.1890	44.1147
 2.1880	44.0088
 2.1870	44.1426
 2.1860	44.0083
 2.1850	44.0767
 2.1840	43.9699
 2.1830	43.9755
 2.1820	44.0352
 2.1810	44.0370
 2.1800	43.9696
 2.1790	43.9710
 2.1780	43.9429
 2.1770	44.0205
 2.1760	43.9561
 2.1750	44.0120
 2.1740	43.9575
 2.1730	43.9287
 2.1720	43.8720
 2.1710	44.0415
 2.1700	43.9061
 2.1690	43.9359
 2.1680	43.8940
 2.1670	43.9237
 2.1660	43.9155
 2.1650	43.9413
 2.1640	43.8539
 2.1630	43.9672
 2.1620	43.8536
 2.1610	43.8945
 2.1600	43.7887
 2.1590	43.8550
 2.1580	43.8598
 2.1570	43.8570
 2.1560	43.7329
 2.1550	43.7670
 2.1540	43.7842
 2.1530	43.8029
 2.1520	43.7895
 2.1510	43.7325
 2.1500	43.6196
 2.1490	43.7055
 2.1480	43.6830
 2.1470	43.6872
 2.1460	43.6262
 2.1450	43.6289
 2.1440	43.5376
 2.1430	43.5802
 2.1420	43.5387
 2.1410	43.4940
 2.1400	43.4336
 2.1390	43.4500
 2.1380	43.3679
 2.1370	43.4282
 2.1360	43.3274
 2.1350	43.3037
 2.1340	43.2447
 2.1330	43.2747
 2.1320	43.1959
 2.1310	43.2304
 2.1300	43.2108
 2.1290	43.0952
 2.1280	42.9821
 2.1270	43.0147
 2.1260	42.9683
 2.1250	43.0240
 2.1240	42.9198
 2.1230	42.8749
 2.1220	42.7379
 2.1210	42.7605
 2.1200	42.7251
 2.1190	42.6826
 2.1180	42.5989
 2.1170	42.5724
 2.1160	42.5228
 2.1150	42.4858
 2.1140	42.4255
 2.1130	42.3731
 2.1120	42.3007
 2.1110	42.2843
 2.1100	42.2450
 2.1090	42.2201
 2.1080	42.1898
 2.1070	42.0906
 2.1060	41.9989
 2.1050	41.9745
 2.1040	41.8982
 2.1030	41.8826
 2.1020	41.8390
 2.1010	41.8199
 2.1000	41.7821
 2.0990	41.7680
 2.0980	41.7100
 2.0970	41.6962
 2.0960	41.6764
 2.0950	41.6320
 2.0940	41.6149
 2.0930	41.6155
 2.0920	41.5630
 2.0910	41.6133
 2.0900	41.5615
 2.0890	41.5235
 2.0880	41.4781
 2.0870	41.4990
 2.0860	41.4903
 2.0850	41.5010
 2.0840	41.4513
 2.0830	41.4023
 2.0820	41.4096
 2.0810	41.3627
 2.0800	41.3429
 2.0790	41.3252
 2.0780	41.2778
 2.0770	41.2510
 2.0760	41.2255
 2.0750	41.2192
 2.0740	41.1897
 2.0730	41.1838
 2.0720	41.1332
 2.0710	41.0898
 2.0700	41.1162
 2.0690	41.0641
 2.0680	41.0686
 2.0670	41.0803
 2.0660	41.0143
 2.0650	41.0088
 2.0640	40.9868
 2.0630	40.9871
 2.0620	40.9708
 2.0610	40.8755
 2.0600	40.8417
 2.0590	40.8450
 2.0580	40.8252
 2.0570	40.7639
 2.0560	40.7343
 2.0550	40.7821
 2.0540	40.7471
 2.0530	40.6910
 2.0520	40.7140
 2.0510	40.6685
 2.0500	40.6101
 2.0490	40.5726
 2.0480	40.6206
 2.0470	40.6087
 2.0460	40.5888
 2.0450	40.5424
 2.0440	40.5209
 2.0430	40.4624
 2.0420	40.4426
 2.0410	40.3957
 2.0400	40.4381
 2.0390	40.4028
 2.0380	40.3601
 2.0370	40.3093
 2.0360	40.3247
 2.0350	40.2582
 2.0340	40.2658
 2.0330	40.2448
 2.0320	40.1481
 2.0310	40.1141
 2.0300	40.1460
 2.0290	40.1175
 2.0280	40.0855
 2.0270	40.0008
 2.0260	40.0132
 2.0250	39.9618
 2.0240	39.9519
 2.0230	39.8914
 2.0220	39.8877
 2.0210	39.8335
 2.0200	39.8121
 2.0190	39.8082
 2.0180	39.8829
 2.0170	39.7913
 2.0160	39.7385
 2.0150	39.6218
 2.0140	39.7388
 2.0130	39.6852
 2.0120	39.6417
 2.0110	39.6341
 2.0100	39.5934
 2.0090	39.5607
 2.0080	39.4867
 2.0070	39.4375
 2.0060	39.4564
 2.0050	39.4009
 2.0040	39.4662
 2.0030	39.3954
 2.0020	39.4256
 2.0010	39.2714
 2.0000	39.3474
 1.9990	39.2764
 1.9980	39.2390
 1.9970	39.1729
 1.9960	39.1543
 1.9950	39.0837
 1.9940	39.1452
 1.9930	39.0868
 1.9920	39.0824
 1.9910	38.9645
 1.9900	39.0566
 1.9890	39.0139
 1.9880	38.9600
 1.9870	38.8809
 1.9860	38.8983
 1.9850	38.8231
 1.9840	38.8499
 1.9830	38.7223
 1.9820	38.7121
 1.9810	38.6178
 1.9800	38.7184
 1.9790	38.6263
 1.9780	38.6888
 1.9770	38.5577
 1.9760	38.6268
 1.9750	38.4862
 1.9740	38.5206
 1.9730	38.4808
 1.9720	38.4776
 1.9710	38.3933
 1.9700	38.3843
 1.9690	38.3601
 1.9680	38.3345
 1.9670	38.3015
 1.9660	38.3441
 1.9650	38.1957
 1.9640	38.3146
 1.9630	38.1775
 1.9620	38.1775
 1.9610	38.0878
 1.9600	38.2097
 1.9590	38.0577
 1.9580	38.1527
 1.9570	38.1154
 1.9560	38.1003
 1.9550	37.9802
 1.9540	38.0230
 1.9530	37.9861
 1.9520	37.9292
 1.9510	37.8979
 1.9500	37.8998
 1.9490	37.7839
 1.9480	37.8592
 1.9470	37.6936
 1.9460	37.8016
 1.9450	37.7760
 1.9440	37.8210
 1.9430	37.6455
 1.9420	37.7472
 1.9410	37.7006
 1.9400	37.7813
 1.9390	37.6763
 1.9380	37.7026
 1.9370	37.5828
 1.9360	37.6626
 1.9350	37.5338
 1.9340	37.6063
 1.9330	37.5478
 1.9320	37.6501
 1.9310	37.4608
 1.9300	37.5416
 1.9290	37.3905
 1.9280	37.4941
 1.9270	37.4241
 1.9260	37.3700
 1.9250	37.4617
 1.9240	37.3471
 1.9230	37.2919
 1.9220	37.3607
 1.9210	37.2638
 1.9200	37.3727
 1.9190	37.2818
 1.9180	37.2414
 1.9170	37.1655
 1.9160	37.2230
 1.9150	37.1560
 1.9140	37.2746
 1.9130	37.1586
 1.9120	37.1734
 1.9110	37.1050
 1.9100	37.2080
 1.9090	37.0989
 1.9080	37.2257
 1.9070	37.1413
 1.9060	37.1972
 1.9050	37.0830
 1.9040	37.0671
 1.9030	37.0312
 1.9020	37.0268
 1.9010	37.0383
 1.9000	37.0364
 1.8990	36.9604
 1.8980	37.0599
 1.8970	36.9208
 1.8960	37.0905
 1.8950	36.9324
 1.8940	37.0584
 1.8930	36.9315
 1.8920	36.9795
 1.8910	37.0014
 1.8900	36.9790
 1.8890	36.9172
 1.8880	36.9522
 1.8870	36.8974
 1.8860	36.9990
 1.8850	36.8653
 1.8840	36.9605
 1.8830	36.7999
 1.8820	36.8740
 1.8810	36.8991
 1.8800	36.8977
 1.8790	36.8919
 1.8780	36.8667
 1.8770	36.8552
 1.8760	36.9123
 1.8750	36.7898
 1.8740	36.8343
 1.8730	36.7961
 1.8720	36.8280
 1.8710	36.7312
 1.8700	36.7288
 1.8690	36.6444
 1.8680	36.7357
 1.8670	36.6889
 1.8660	36.7454
 1.8650	36.6850
 1.8640	36.7738
 1.8630	36.7037
 1.8620	36.7663
 1.8610	36.6490
 1.8600	36.6825
 1.8590	36.6949
 1.8580	36.7263
 1.8570	36.6403
 1.8560	36.6725
 1.8550	36.6308
 1.8540	36.6714
 1.8530	36.6384
 1.8520	36.6338
 1.8510	36.6632
 1.8500	36.6638
 1.8490	36.6025
 1.8480	36.6111
 1.8470	36.5598
 1.8460	36.5945
 1.8450	36.5924
 1.8440	36.5821
 1.8430	36.5577
 1.8420	36.6191
 1.8410	36.5517
 1.8400	36.6006
 1.8390	36.6054
 1.8380	36.5446
 1.8370	36.5057
 1.8360	36.5636
 1.8350	36.4809
 1.8340	36.5028
 1.8330	36.5417
 1.8320	36.5952
 1.8310	36.5807
 1.8300	36.5444
 1.8290	36.5223
 1.8280	36.5799
 1.8270	36.4902
 1.8260	36.5320
 1.8250	36.5189
 1.8240	36.5518
 1.8230	36.4914
 1.8220	36.4917
 1.8210	36.4804
 1.8200	36.4678
 1.8190	36.4736
 1.8180	36.5300
 1.8170	36.4958
 1.8160	36.4983
 1.8150	36.4826
 1.8140	36.4765
 1.8130	36.4833
 1.8120	36.5038
 1.8110	36.4746
 1.8100	36.5534
 1.8090	36.5577
 1.8080	36.5326
 1.8070	36.5015
 1.8060	36.5384
 1.8050	36.5491
 1.8040	36.5476
 1.8030	36.4943
 1.8020	36.5022
 1.8010	36.5529
 1.8000	36.5598
 1.7990	36.5473
 1.7980	36.5475
 1.7970	36.5424
 1.7960	36.5659
 1.7950	36.5822
 1.7940	36.6158
 1.7930	36.5731
 1.7920	36.5780
 1.7910	36.5735
 1.7900	36.5948
 1.7890	36.6118
 1.7880	36.5981
 1.7870	36.6110
 1.7860	36.6282
 1.7850	36.6028
 1.7840	36.5901
 1.7830	36.6029
 1.7820	36.6193
 1.7810	36.6677
 1.7800	36.6912
 1.7790	36.6845
 1.7780	36.6713
 1.7770	36.6524
 1.7760	36.6461
 1.7750	36.6556
 1.7740	36.6284
 1.7730	36.6521
 1.7720	36.6482
 1.7710	36.6335
 1.7700	36.6589
 1.7690	36.6771
 1.7680	36.6910
 1.7670	36.7060
 1.7660	36.6895
 1.7650	36.7586
 1.7640	36.7490
 1.7630	36.7425
 1.7620	36.7496
 1.7610	36.7850
 1.7600	36.7861
 1.7590	36.8104
 1.7580	36.7944
 1.7570	36.8444
 1.7560	36.8387
 1.7550	36.8245
 1.7540	36.8204
 1.7530	36.8606
 1.7520	36.8822
 1.7510	36.9114
 1.7500	36.9008
 1.7490	36.9854
 1.7480	36.9746
 1.7470	36.9825
 1.7460	36.9199
 1.7450	36.9375
 1.7440	36.9233
 1.7430	37.0019
 1.7420	37.0251
 1.7410	37.0773
 1.7400	37.0561
 1.7390	37.0859
 1.7380	37.0615
 1.7370	37.0671
 1.7360	37.0827
 1.7350	37.1458
 1.7340	37.1349
 1.7330	37.1637
 1.7320	37.2085
 1.7310	37.1832
 1.7300	37.1764
 1.7290	37.1912
 1.7280	37.2277
 1.7270	37.2926
 1.7260	37.2327
 1.7250	37.2704
 1.7240	37.2711
 1.7230	37.3223
 1.7220	37.3018
 1.7210	37.3833
 1.7200	37.3597
 1.7190	37.3985
 1.7180	37.3973
 1.7170	37.4335
 1.7160	37.3096
 1.7150	37.3914
 1.7140	37.4107
 1.7130	37.4871
 1.7120	37.4867
 1.7110	37.5134
 1.7100	37.4897
 1.7090	37.5036
 1.7080	37.4934
 1.7070	37.5948
 1.7060	37.5762
 1.7050	37.5743
 1.7040	37.4900
 1.7030	37.6639
 1.7020	37.6402
 1.7010	37.6753
 1.7000	37.6807
 1.6990	37.7446
 1.6980	37.7216
 1.6970	37.7182
 1.6960	37.7154
 1.6950	37.8560
 1.6940	37.8141
 1.6930	37.8611
 1.6920	37.8130
 1.6910	37.9042
 1.6900	37.8919
 1.6890	37.9194
 1.6880	37.8733
 1.6870	37.9041
 1.6860	37.8932
 1.6850	38.0270
 1.6840	37.9741
 1.6830	38.0159
 1.6820	38.0336
 1.6810	38.1446
 1.6800	38.0652
 1.6790	38.1894
 1.6780	38.1230
 1.6770	38.1588
 1.6760	38.1435
 1.6750	38.2571
 1.6740	38.2064
 1.6730	38.1824
 1.6720	38.1595
 1.6710	38.2308
 1.6700	38.2663
 1.6690	38.4028
 1.6680	38.1763
 1.6670	38.5051
 1.6660	38.3649
 1.6650	38.4499
 1.6640	38.4270
 1.6630	38.4864
 1.6620	38.4574
 1.6610	38.4504
 1.6600	38.5453
 1.6590	38.5623
 1.6580	38.5546
 1.6570	38.6566
 1.6560	38.6128
 1.6550	38.6380
 1.6540	38.6851
 1.6530	38.7267
 1.6520	38.6893
 1.6510	38.8279
 1.6500	38.7479
 1.6490	38.8295
 1.6480	38.7643
 1.6470	38.8263
 1.6460	38.7361
 1.6450	38.8980
 1.6440	38.8410
 1.6430	39.0165
 1.6420	38.9546
 1.6410	38.9192
 1.6400	39.0131
 1.6390	39.1137
 1.6380	38.9556
 1.6370	39.1223
 1.6360	39.0688
 1.6350	39.2072
 1.6340	39.0990
 1.6330	39.2053
 1.6320	39.1085
 1.6310	39.3002
 1.6300	39.1858
 1.6290	39.3769
 1.6280	39.3341
 1.6270	39.4039
 1.6260	39.3367
 1.6250	39.4278
 1.6240	39.4020
 1.6230	39.5001
 1.6220	39.5004
 1.6210	39.5444
 1.6200	39.4863
 1.6190	39.5831
 1.6180	39.5300
 1.6170	39.5941
 1.6160	39.5693
 1.6150	39.7526
 1.6140	39.6578
 1.6130	39.7350
 1.6120	39.7271
 1.6110	39.8353
 1.6100	39.8236
 1.6090	39.8116
 1.6080	39.8050
 1.6070	39.9053
 1.6060	39.9078
 1.6050	39.9821
 1.6040	39.9447
 1.6030	40.0657
 1.6020	40.0519
 1.6010	40.1779
 1.6000	40.0255
 1.5990	40.0985
 1.5980	40.1030
 1.5970	40.2175
 1.5960	40.2230
 1.5950	40.1793
 1.5940	40.2769
 1.5930	40.2702
 1.5920	40.2419
 1.5910	40.3387
 1.5900	40.3710
 1.5890	40.3458
 1.5880	40.4196
 1.5870	40.4246
 1.5860	40.4354
 1.5850	40.4720
 1.5840	40.5128
 1.5830	40.5675
 1.5820	40.5569
 1.5810	40.6397
 1.5800	40.6108
 1.5790	40.7006
 1.5780	40.6788
 1.5770	40.7183
 1.5760	40.6645
 1.5750	40.7113
 1.5740	40.7495
 1.5730	40.8678
 1.5720	40.8146
 1.5710	40.9006
 1.5700	40.8809
 1.5690	40.9688
 1.5680	40.9275
 1.5670	41.0188
 1.5660	40.9980
 1.5650	41.0565
 1.5640	41.0476
 1.5630	41.1212
 1.5620	41.1048
 1.5610	41.1673
 1.5600	41.1159
 1.5590	41.1992
 1.5580	41.2064
 1.5570	41.2061
 1.5560	41.2397
 1.5550	41.2817
 1.5540	41.3217
 1.5530	41.3746
 1.5520	41.3651
 1.5510	41.4268
 1.5500	41.4198
 1.5490	41.4474
 1.5480	41.4648
 1.5470	41.5590
 1.5460	41.5010
 1.5450	41.5709
 1.5440	41.6166
 1.5430	41.6884
 1.5420	41.5982
 1.5410	41.6350
 1.5400	41.7022
 1.5390	41.7407
 1.5380	41.7150
 1.5370	41.7803
 1.5360	41.8442
 1.5350	41.8918
 1.5340	41.8544
 1.5330	41.8875
 1.5320	41.9158
 1.5310	42.0054
 1.5300	41.9786
 1.5290	41.9993
 1.5280	42.0404
 1.5270	42.0653
 1.5260	42.0495
 1.5250	42.0956
 1.5240	42.1296
 1.5230	42.1461
 1.5220	42.1541
 1.5210	42.1918
 1.5200	42.2185
 1.5190	42.2993
 1.5180	42.3027
 1.5170	42.3238
 1.5160	42.3162
 1.5150	42.3560
 1.5140	42.4003
 1.5130	42.4331
 1.5120	42.4353
 1.5110	42.4285
 1.5100	42.4547
 1.5090	42.4854
 1.5080	42.5665
 1.5070	42.6297
 1.5060	42.6154
 1.5050	42.6214
 1.5040	42.6321
 1.5030	42.6692
 1.5020	42.7090
 1.5010	42.7076
 1.5000	42.7691
 1.4990	42.7813
 1.4980	42.7515
 1.4970	42.8186
 1.4960	42.8278
 1.4950	42.8485
 1.4940	42.9147
 1.4930	42.8935
 1.4920	42.8969
 1.4910	42.9216
 1.4900	42.9472
 1.4890	42.9986
 1.4880	43.0645
 1.4870	43.0482
 1.4860	43.0912
 1.4850	43.1195
 1.4840	43.1292
 1.4830	43.1324
 1.4820	43.1813
 1.4810	43.1960
 1.4800	43.2243
 1.4790	43.2197
 1.4780	43.2634
 1.4770	43.2865
 1.4760	43.3417
 1.4750	43.3512
 1.4740	43.3764
 1.4730	43.3726
 1.4720	43.4077
 1.4710	43.3811
 1.4700	43.4279
 1.4690	43.3917
 1.4680	43.4872
 1.4670	43.5138
 1.4660	43.5398
 1.4650	43.5489
 1.4640	43.6021
 1.4630	43.5896
 1.4620	43.6201
 1.4610	43.6806
 1.4600	43.7028
 1.4590	43.6923
 1.4580	43.7879
 1.4570	43.7608
 1.4560	43.7907
 1.4550	43.7901
 1.4540	43.8080
 1.4530	43.7610
 1.4520	43.8623
 1.4510	43.8604
 1.4500	43.8682
 1.4490	43.9058
 1.4480	44.0407
 1.4470	43.9406
 1.4460	43.9268
 1.4450	43.8868
 1.4440	43.9999
 1.4430	43.9594
 1.4420	44.0649
 1.4410	44.0319
 1.4400	44.1012
 1.4390	44.1018
 1.4380	44.0971
 1.4370	44.1474
 1.4360	44.1403
 1.4350	44.1757
 1.4340	44.2633
 1.4330	44.1875
 1.4320	44.2434
 1.4310	44.2817
 1.4300	44.2525
 1.4290	44.2763
 1.4280	44.3244
 1.4270	44.3185
 1.4260	44.3434
 1.4250	44.3268
 1.4240	44.3366
 1.4230	44.3245
 1.4220	44.4323
 1.4210	44.3747
 1.4200	44.3761
 1.4190	44.4026
 1.4180	44.4219
 1.4170	44.4235
 1.4160	44.5185
 1.4150	44.4582
 1.4140	44.5320
 1.4130	44.4801
 1.4120	44.5181
 1.4110	44.5699
 1.4100	44.6572
 1.4090	44.5564
 1.4080	44.6473
 1.4070	44.5432
 1.4060	44.6971
 1.4050	44.6406
 1.4040	44.7446
 1.4030	44.6788
 1.4020	44.7368
 1.4010	44.6957
 1.4000	44.6879
 1.3990	44.7306
 1.3980	44.8406
 1.3970	44.8046
 1.3960	44.8419
 1.3950	44.7778
 1.3940	44.8266
 1.3930	44.8873
 1.3920	44.9408
 1.3910	44.9364
 1.3900	45.0171
 1.3890	44.9991
 1.3880	45.0158
 1.3870	44.9826
 1.3860	45.0552
 1.3850	44.9718
 1.3840	45.0904
 1.3830	44.9908
 1.3820	44.9751
 1.3810	44.9851
 1.3800	45.0911
 1.3790	45.1288
 1.3780	45.1504
 1.3770	45.0928
 1.3760	45.1343
 1.3750	45.1703
 1.3740	45.2386
 1.3730	45.1163
 1.3720	45.2268
 1.3710	45.1337
 1.3700	45.2410
 1.3690	45.2672
 1.3680	45.2605
 1.3670	45.1842
 1.3660	45.3534
 1.3650	45.2377
 1.3640	45.3610
 1.3630	45.3402
 1.3620	45.2938
 1.3610	45.1679
 1.3600	45.3284
 1.3590	45.2908
 1.3580	45.5120
 1.3570	45.2989
 1.3560	45.5208
 1.3550	45.2615
 1.3540	45.3955
 1.3530	45.3901
 1.3520	45.3834
 1.3510	45.3841
 1.3500	45.4394
 1.3490	45.4408
 1.3480	45.4855
 1.3470	45.4403
 1.3460	45.5882
 1.3450	45.4200
 1.3440	45.4933
 1.3430	45.4807
 1.3420	45.4738
 1.3410	45.4908
 1.3400	45.5190
 1.3390	45.5017
 1.3380	45.6513
 1.3370	45.4998
 1.3360	45.4827
 1.3350	45.4941
 1.3340	45.5800
 1.3330	45.5642
 1.3320	45.6182
 1.3310	45.6247
 1.3300	45.6054
 1.3290	45.5730
 1.3280	45.6402
 1.3270	45.5548
 1.3260	45.6094
 1.3250	45.5512
 1.3240	45.6401
 1.3230	45.6341
 1.3220	45.6705
 1.3210	45.6193
 1.3200	45.6914
 1.3190	45.6361
 1.3180	45.7831
 1.3170	45.6187
 1.3160	45.7691
 1.3150	45.7140
 1.3140	45.7698
 1.3130	45.7102
 1.3120	45.7780
 1.3110	45.6599
 1.3100	45.7731
 1.3090	45.7585
 1.3080	45.7031
 1.3070	45.6671
 1.3060	45.8292
 1.3050	45.6745
 1.3040	45.7440
 1.3030	45.7442
 1.3020	45.8582
 1.3010	45.8001
 1.3000	45.7834
 1.2990	45.7585
 1.2980	45.8003
 1.2970	45.8014
 1.2960	45.8317
 1.2950	45.7532
 1.2940	45.8505
 1.2930	45.7562
 1.2920	45.8198
 1.2910	45.8018
 1.2900	45.8690
 1.2890	45.8512
 1.2880	45.9025
 1.2870	45.7778
 1.2860	45.9083
 1.2850	45.8313
 1.2840	45.8881
 1.2830	45.8275
 1.2820	45.9056
 1.2810	45.7967
 1.2800	45.9344
 1.2790	45.8757
 1.2780	45.8520
 1.2770	45.8569
 1.2760	45.8713
 1.2750	45.8640
 1.2740	45.8802
 1.2730	45.8387
 1.2720	45.9050
 1.2710	45.9110
 1.2700	45.9493
 1.2690	45.8661
 1.2680	45.9665
 1.2670	45.9041
 1.2660	45.8868
 1.2650	45.8928
 1.2640	45.9052
 1.2630	45.8858
 1.2620	45.9085
 1.2610	45.8771
 1.2600	45.9360
 1.2590	45.9483
 1.2580	45.9679
 1.2570	45.9639
 1.2560	45.9932
 1.2550	45.9084
 1.2540	45.9377
 1.2530	45.8875
 1.2520	45.8950
 1.2510	45.9597
 1.2500	46.0077
 1.2490	46.0104
 1.2480	46.0205
 1.2470	45.9579
 1.2460	45.9787
 1.2450	45.9702
 1.2440	46.0204
 1.2430	46.0102
 1.2420	46.0156
 1.2410	46.0215
 1.2400	46.0244
 1.2390	46.0293
 1.2380	46.0062
 1.2370	45.9666
 1.2360	45.9740
 1.2350	45.9703
 1.2340	45.9945
 1.2330	46.0371
 1.2320	46.0647
 1.2310	46.0459
 1.2300	46.0069
 1.2290	46.0011
 1.2280	46.0546
 1.2270	46.0405
 1.2260	46.0352
 1.2250	46.0455
 1.2240	46.0497
 1.2230	46.0631
 1.2220	46.0693
 1.2210	46.0442
 1.2200	46.0493
 1.2190	46.0168
 1.2180	45.9815
 1.2170	46.0111
 1.2160	46.0649
 1.2150	46.0392
 1.2140	46.0287
 1.2130	46.0356
 1.2120	46.0565
 1.2110	46.0664
 1.2100	46.0265
 1.2090	46.0316
 1.2080	46.0273
 1.2070	46.0149
 1.2060	46.0216
 1.2050	46.0445
 1.2040	46.0621
 1.2030	46.0180
 1.2020	46.0297
 1.2010	46.1067
 1.2000	46.0800
 1.1990	46.0447
 1.1980	45.9840
 1.1970	46.0072
 1.1960	46.0145
 1.1950	46.0535
 1.1940	46.0659
 1.1930	46.0543
 1.1920	46.0452
 1.1910	46.0151
 1.1900	46.0090
 1.1890	46.0304
 1.1880	45.9977
 1.1870	46.0278
 1.1860	46.0166
 1.1850	46.0467
 1.1840	46.1044
 1.1830	46.0749
 1.1820	46.0492
 1.1810	46.0891
 1.1800	46.0937
 1.1790	46.0967
 1.1780	46.0793
 1.1770	46.1118
 1.1760	46.0332
 1.1750	46.0320
 1.1740	46.0255
 1.1730	46.0207
 1.1720	46.0322
 1.1710	46.0919
 1.1700	46.0601
 1.1690	46.0835
 1.1680	46.0875
 1.1670	46.0592
 1.1660	46.0303
 1.1650	46.0419
 1.1640	46.0226
 1.1630	46.0277
 1.1620	46.0239
 1.1610	46.0333
 1.1600	45.9809
 1.1590	46.0195
 1.1580	46.0109
 1.1570	46.0463
 1.1560	46.0002
 1.1550	46.0179
 1.1540	45.9659
 1.1530	46.0676
 1.1520	46.0222
 1.1510	46.0177
 1.1500	45.9822
 1.1490	46.0152
 1.1480	46.0156
 1.1470	45.9738
 1.1460	45.9115
 1.1450	45.9849
 1.1440	45.9839
 1.1430	45.9480
 1.1420	45.9378
 1.1410	45.9978
 1.1400	45.9155
 1.1390	45.8908
 1.1380	45.9180
 1.1370	45.8873
 1.1360	45.8796
 1.1350	45.9019
 1.1340	45.8506
 1.1330	45.9171
 1.1320	45.9850
 1.1310	45.9468
 1.1300	45.8534
 1.1290	45.9031
 1.1280	45.8289
 1.1270	45.8563
 1.1260	45.7802
 1.1250	45.8053
 1.1240	45.7738
 1.1230	45.8124
 1.1220	45.7487
 1.1210	45.8151
 1.1200	45.7403
 1.1190	45.7785
 1.1180	45.7749
 1.1170	45.7455
 1.1160	45.7219
 1.1150	45.6710
 1.1140	45.6282
 1.1130	45.6900
 1.1120	45.6682
 1.1110	45.6571
 1.1100	45.5502
 1.1090	45.6114
 1.1080	45.5775
 1.1070	45.6103
 1.1060	45.4703
 1.1050	45.6324
 1.1040	45.4205
 1.1030	45.4866
 1.1020	45.4287
 1.1010	45.4772
 1.1000	45.4028
 1.0990	45.4053
 1.0980	45.2889
 1.0970	45.4037
 1.0960	45.3339
 1.0950	45.3177
 1.0940	45.2158
 1.0930	45.2879
 1.0920	45.1045
 1.0910	45.2357
 1.0900	45.0929
 1.0890	45.0983
 1.0880	45.0737
 1.0870	45.0717
 1.0860	45.0204
 1.0850	45.0223
 1.0840	44.8987
 1.0830	44.9424
 1.0820	44.8789
 1.0810	44.8925
 1.0800	44.7265
 1.0790	44.7653
 1.0780	44.6783
 1.0770	44.7325
 1.0760	44.7112
 1.0750	44.6443
 1.0740	44.5117
 1.0730	44.4809
 1.0720	44.4553
 1.0710	44.5234
 1.0700	44.2250
 1.0690	44.5133
 1.0680	44.2608
 1.0670	44.2846
 1.0660	44.1142
 1.0650	44.1519
 1.0640	44.0734
 1.0630	43.9869
 1.0620	43.9290
 1.0610	43.9020
 1.0600	43.7718
 1.0590	43.8313
 1.0580	43.6093
 1.0570	43.6827
 1.0560	43.5606
 1.0550	43.5031
 1.0540	43.3387
 1.0530	43.3895
 1.0520	43.1901
 1.0510	43.1689
 1.0500	43.0119
 1.0490	43.1018
 1.0480	42.8830
 1.0470	42.9172
 1.0460	42.7505
 1.0450	42.7911
 1.0440	42.5515
 1.0430	42.5593
 1.0420	42.4432
 1.0410	42.3298
 1.0400	42.1817
 1.0390	42.2025
 1.0380	42.0305
 1.0370	41.9847
 1.0360	41.8675
 1.0350	41.7919
 1.0340	41.6310
 1.0330	41.6518
 1.0320	41.4269
 1.0310	41.4143
 1.0300	41.1959
 1.0290	41.1580
 1.0280	41.0528
 1.0270	40.9898
 1.0260	40.8155
 1.0250	40.7848
 1.0240	40.6383
 1.0230	40.4981
 1.0220	40.3400
 1.0210	40.2936
 1.0200	40.1621
 1.0190	40.0616
 1.0180	39.8297
 1.0170	39.7942
 1.0160	39.6869
 1.0150	39.5422
 1.0140	39.3808
 1.0130	39.3468
 1.0120	39.1076
 1.0110	39.0423
 1.0100	38.8324
 1.0090	38.7547
 1.0080	38.5801
 1.0070	38.5125
 1.0060	38.3757
 1.0050	38.1935
 1.0040	38.0570
 1.0030	38.0009
 1.0020	37.8009
 1.0010	37.7085
 1.0000	37.4983
 0.9990	37.3576
 0.9980	37.1830
 0.9970	37.1040
 0.9960	36.9455
 0.9950	36.8456
 0.9940	36.5931
 0.9930	36.5158
 0.9920	36.3371
 0.9910	36.2344
 0.9900	35.9983
 0.9890	35.9230
 0.9880	35.7907
 0.9870	35.7148
 0.9860	35.4506
 0.9850	35.3728
 0.9840	35.2156
 0.9830	35.0873
 0.9820	34.9314
 0.9810	34.8716
 0.9800	34.6442
 0.9790	34.4810
 0.9780	34.3696
 0.9770	34.2380
 0.9760	34.0300
 0.9750	33.9441
 0.9740	33.7647
 0.9730	33.6398
 0.9720	33.4905
 0.9710	33.4424
 0.9700	33.2450
 0.9690	33.1384
 0.9680	32.9965
 0.9670	32.8925
 0.9660	32.7495
 0.9650	32.6601
 0.9640	32.5188
 0.9630	32.4007
 0.9620	32.2199
 0.9610	32.0989
 0.9600	31.9896
 0.9590	31.8914
 0.9580	31.7494
 0.9570	31.6589
 0.9560	31.5237
 0.9550	31.4227
 0.9540	31.2710
 0.9530	31.2086
 0.9520	31.0786
 0.9510	31.0394
 0.9500	30.9751
 0.9490	30.8916
 0.9480	30.7880
 0.9470	30.6818
 0.9460	30.5495
 0.9450	30.4559
 0.9440	30.3883
 0.9430	30.3581
 0.9420	30.2444
 0.9410	30.1356
 0.9400	30.0930
 0.9390	30.0193
 0.9380	29.8823
 0.9370	29.8192
 0.9360	29.7619
 0.9350	29.6997
 0.9340	29.6577
 0.9330	29.5939
 0.9320	29.5254
 0.9310	29.4698
 0.9300	29.4197
 0.9290	29.3724
 0.9280	29.3442
 0.9270	29.3478
 0.9260	29.3144
 0.9250	29.2423
 0.9240	29.1981
 0.9230	29.1492
 0.9220	29.1407
 0.9210	29.1559
 0.9200	29.1256
 0.9190	29.0750
 0.9180	29.0672
 0.9170	28.9936
 0.9160	29.0187
 0.9150	29.0399
 0.9140	29.0131
 0.9130	29.0649
 0.9120	29.0343
 0.9110	29.0151
 0.9100	29.0727
 0.9090	29.0279
 0.9080	29.0233
 0.9070	28.9703
 0.9060	29.0524
 0.9050	29.0547
 0.9040	29.1015
 0.9030	29.0514
 0.9020	29.0869
 0.9010	29.1466
 0.9000	29.1957
 0.8990	29.1988
 0.8980	29.2170
 0.8970	29.2145
 0.8960	29.3025
 0.8950	29.2987
 0.8940	29.3684
 0.8930	29.3862
 0.8920	29.4588
 0.8910	29.4735
 0.8900	29.5410
 0.8890	29.5627
 0.8880	29.5964
 0.8870	29.6435
 0.8860	29.7582
 0.8850	29.7698
 0.8840	29.8762
 0.8830	29.9388
 0.8820	29.9991
 0.8810	30.0237
 0.8800	30.1365
 0.8790	30.1108
 0.8780	30.2618
 0.8770	30.2507
 0.8760	30.3744
 0.8750	30.4367
 0.8740	30.5713
 0.8730	30.5887
 0.8720	30.7468
 0.8710	30.7038
 0.8700	30.8387
 0.8690	30.8949
 0.8680	31.0348
 0.8670	31.1357
 0.8660	31.2612
 0.8650	31.3179
 0.8640	31.4275
 0.8630	31.4603
 0.8620	31.5777
 0.8610	31.6436
 0.8600	31.9382
 0.8590	32.0115
 0.8580	32.1154
 0.8570	32.2807
 0.8560	32.3409
 0.8550	32.4587
 0.8540	32.5855
 0.8530	32.6987
 0.8520	32.8398
 0.8510	33.0048
 0.8500	33.0887
 0.8490	33.1980
 0.8480	33.3400
 0.8470	33.4746
 0.8460	33.5744
 0.8450	33.7377
 0.8440	33.8515
 0.8430	33.9525
 0.8420	34.0991
 0.8410	34.2038
 0.8400	34.3683
 0.8390	34.5006
 0.8380	34.6430
 0.8370	34.7386
 0.8360	34.8706
 0.8350	35.0099
 0.8340	35.1196
 0.8330	35.2460
 0.8320	35.3861
 0.8310	35.4999
 0.8300	35.6749
 0.8290	35.7752
 0.8280	35.8917
 0.8270	36.0612
 0.8260	36.1427
 0.8250	36.2798
 0.8240	36.4283
 0.8230	36.5567
 0.8220	36.6970
 0.8210	36.8179
 0.8200	36.9346
 0.8190	37.0388
 0.8180	37.1935
 0.8170	37.2989
 0.8160	37.3833
 0.8150	37.5397
 0.8140	37.6057
 0.8130	37.7499
 0.8120	37.8786
 0.8110	37.9813
 0.8100	38.0893
 0.8090	38.2290
 0.8080	38.3287
 0.8070	38.4298
 0.8060	38.5569
 0.8050	38.6495
 0.8040	38.7505
 0.8030	38.8473
 0.8020	38.9653
 0.8010	39.0506
 0.8000	39.1815
 0.7990	39.2501
 0.7980	39.3295
 0.7970	39.4439
 0.7960	39.4806
 0.7950	39.5845
 0.7940	39.6776
 0.7930	39.7547
 0.7920	39.8313
 0.7910	39.9335
 0.7900	39.9867
 0.7890	40.0227
 0.7880	40.0935
 0.7870	40.1792
 0.7860	40.2475
 0.7850	40.3269
 0.7840	40.3622
 0.7830	40.4155
 0.7820	40.4729
 0.7810	40.5708
 0.7800	40.6062
 0.7790	40.6530
 0.7780	40.7167
 0.7770	40.7497
 0.7760	40.7996
 0.7750	40.8323
 0.7740	40.8664
 0.7730	40.9187
 0.7720	40.9536
 0.7710	40.9965
 0.7700	41.0262
 0.7690	41.0640
 0.7680	41.0931
 0.7670	41.1387
 0.7660	41.1428
 0.7650	41.1780
 0.7640	41.1836
 0.7630	41.1897
 0.7620	41.2579
 0.7610	41.2865
 0.7600	41.2743
 0.7590	41.2891
 0.7580	41.3172
 0.7570	41.3086
 0.7560	41.3242
 0.7550	41.3169
 0.7540	41.3210
 0.7530	41.3526
 0.7520	41.3429
 0.7510	41.3536
 0.7500	41.3464
 0.7490	41.3482
 0.7480	41.3366
 0.7470	41.3208
 0.7460	41.3212
 0.7450	41.3237
 0.7440	41.3179
 0.7430	41.3018
 0.7420	41.2963
 0.7410	41.2931
 0.7400	41.2920
 0.7390	41.2618
 0.7380	41.2713
 0.7370	41.2362
 0.7360	41.1966
 0.7350	41.1927
 0.7340	41.1768
 0.7330	41.1462
 0.7320	41.1311
 0.7310	41.1021
 0.7300	41.0851
 0.7290	41.0621
 0.7280	41.0318
 0.7270	41.0075
 0.7260	40.9929
 0.7250	40.9461
 0.7240	40.9165
 0.7230	40.9033
 0.7220	40.8576
 0.7210	40.8196
 0.7200	40.7911
 0.7190	40.7775
 0.7180	40.7236
 0.7170	40.6797
 0.7160	40.6650
 0.7150	40.6259
 0.7140	40.5842
 0.7130	40.5524
 0.7120	40.5170
 0.7110	40.4759
 0.7100	40.4283
 0.7090	40.3850
 0.7080	40.3433
 0.7070	40.3067
 0.7060	40.2724
 0.7050	40.2275
 0.7040	40.1817
 0.7030	40.1551
 0.7020	40.1060
 0.7010	40.0555
 0.7000	40.0235
 0.6990	39.9718
 0.6980	39.9201
 0.6970	39.8846
 0.6960	39.8494
 0.6950	39.8115
 0.6940	39.7608
 0.6930	39.7131
 0.6920	39.6617
 0.6910	39.6172
 0.6900	39.5751
 0.6890	39.5261
 0.6880	39.4798
 0.6870	39.4298
 0.6860	39.3802
 0.6850	39.3265
 0.6840	39.2957
 0.6830	39.2505
 0.6820	39.2051
 0.6810	39.1593
 0.6800	39.1111
 0.6790	39.0698
 0.6780	39.0282
 0.6770	38.9728
 0.6760	38.9168
 0.6750	38.8658
 0.6740	38.8140
 0.6730	38.7666
 0.6720	38.7321
 0.6710	38.6887
 0.6700	38.6337
 0.6690	38.5899
 0.6680	38.5476
 0.6670	38.5011
 0.6660	38.4589
 0.6650	38.4228
 0.6640	38.3792
 0.6630	38.3323
 0.6620	38.2878
 0.6610	38.2399
 0.6600	38.1910
 0.6590	38.1452
 0.6580	38.1076
 0.6570	38.0747
 0.6560	38.0252
 0.6550	37.9796
 0.6540	37.9306
 0.6530	37.8916
 0.6520	37.8574
 0.6510	37.8093
 0.6500	37.7730
 0.6490	37.7298
 0.6480	37.6831
 0.6470	37.6409
 0.6460	37.6043
 0.6450	37.5703
 0.6440	37.5347
 0.6430	37.4927
 0.6420	37.4474
 0.6410	37.4087
 0.6400	37.3813
 0.6390	37.3364
 0.6380	37.2885
 0.6370	37.2599
 0.6360	37.2206
 0.6350	37.1790
 0.6340	37.1509
 0.6330	37.1117
 0.6320	37.0707
 0.6310	37.0300
 0.6300	36.9947
 0.6290	36.9638
 0.6280	36.9227
 0.6270	36.8766
 0.6260	36.8381
 0.6250	36.8098
 0.6240	36.7778
 0.6230	36.7386
 0.6220	36.7010
 0.6210	36.6660
 0.6200	36.6242
 0.6190	36.5857
 0.6180	36.5524
 0.6170	36.5166
 0.6160	36.4818
 0.6150	36.4477
 0.6140	36.4099
 0.6130	36.3831
 0.6120	36.3521
 0.6110	36.3102
 0.6100	36.2754
 0.6090	36.2463
 0.6080	36.2065
 0.6070	36.1737
 0.6060	36.1394
 0.6050	36.0993
 0.6040	36.0559
 0.6030	36.0180
 0.6020	35.9921
 0.6010	35.9554
 0.6000	35.9154
 0.5990	35.8951
 0.5980	35.8664
 0.5970	35.8331
 0.5960	35.8030
 0.5950	35.7797
 0.5940	35.7391
 0.5930	35.6982
 0.5920	35.6642
 0.5910	35.6270
 0.5900	35.5925
 0.5890	35.5538
 0.5880	35.5145
 0.5870	35.4797
 0.5860	35.4616
 0.5850	35.4331
 0.5840	35.4004
 0.5830	35.3631
 0.5820	35.3227
 0.5810	35.2844
 0.5800	35.2506
 0.5790	35.2119
 0.5780	35.1682
 0.5770	35.1304
 0.5760	35.0874
 0.5750	35.0511
 0.5740	35.0095
 0.5730	34.9689
 0.5720	34.9290
 0.5710	34.8851
 0.5700	34.8550
 0.5690	34.8193
 0.5680	34.7778
 0.5670	34.7391
 0.5660	34.7031
 0.5650	34.6586
 0.5640	34.6228
 0.5630	34.5874
 0.5620	34.5446
 0.5610	34.4805
 0.5600	34.4242
 0.5590	34.3773
 0.5580	34.3369
 0.5570	34.2921
 0.5560	34.2501
 0.5550	34.1917
 0.5540	34.1418
 0.5530	34.0942
 0.5520	34.0435
 0.5510	33.9873
 0.5500	33.9381
 0.5490	33.8873
 0.5480	33.8418
 0.5470	33.8069
 0.5460	33.7619
 0.5450	33.7499
 0.5440	33.7293
 0.5430	33.7062
 0.5420	33.6976
 0.5410	33.6885
 0.5400	33.6852
 0.5390	33.6699
 0.5380	33.6467
 0.5370	33.6326
 0.5360	33.6195
 0.5350	33.6014
 0.5340	33.5727
 0.5330	33.5512
 0.5320	33.5288
 0.5310	33.4900
 0.5300	33.4770
 0.5290	33.4358
 0.5280	33.4075
 0.5270	33.3825
 0.5260	33.3503
 0.5250	33.3185
 0.5240	33.2924
 0.5230	33.2543
 0.5220	33.2288
 0.5210	33.2029
 0.5200	33.1619
 0.5190	33.1263
 0.5180	33.0945
 0.5170	33.0566
 0.5160	33.0204
 0.5150	32.9908
 0.5140	32.9490
 0.5130	32.9152
 0.5120	32.8577
 0.5110	32.8128
 0.5100	32.7722
 0.5090	32.7275
 0.5080	32.6680
 0.5070	32.6029
 0.5060	32.5490
 0.5050	32.4869
 0.5040	32.4623
 0.5030	32.4458
 0.5020	32.4419
 0.5010	32.4125
 0.5000	32.3924
 0.4990	32.3486
 0.4980	32.3126
 0.4970	32.2674
 0.4960	32.2197
 0.4950	32.1540
 0.4940	32.1087
 0.4930	32.0464
 0.4920	31.9966
 0.4910	31.9317
 0.4900	31.8629
 0.4890	31.7821
 0.4880	31.7268
 0.4870	31.6378
 0.4860	31.5564
 0.4850	31.4936
 0.4840	31.4260
 0.4830	31.3244
 0.4820	31.2752
 0.4810	31.2351
 0.4800	31.1991
 0.4790	31.1902
 0.4780	31.1851
 0.4770	31.1843
 0.4760	31.1900
 0.4750	31.1844
 0.4740	31.1829
 0.4730	31.1731
 0.4720	31.1531
 0.4710	31.1291
 0.4700	31.1178
 0.4690	31.0887
 0.4680	31.0738
 0.4670	31.0520
 0.4660	31.0267
 0.4650	30.9884
 0.4640	30.9545
 0.4630	30.9256
 0.4620	30.8828
 0.4610	30.8323
 0.4600	30.7847
 0.4590	30.7338
 0.4580	30.6770
 0.4570	30.6220
 0.4560	30.5608
 0.4550	30.4837
 0.4540	30.4131
 0.4530	30.3428
 0.4520	30.2491
 0.4510	30.1694
 0.4500	30.0827
 0.4490	29.9819
 0.4480	29.9006
 0.4470	29.8129
 0.4460	29.7445
 0.4450	29.7400
 0.4440	29.7502
 0.4430	29.7996
 0.4420	29.8744
 0.4410	29.9310
 0.4400	29.9914
 0.4390	30.0216
 0.4380	30.0317
 0.4370	30.0377
 0.4360	30.0046
 0.4350	29.9575
 0.4340	29.9064
 0.4330	29.8379
 0.4320	29.7689
 0.4310	29.6881
 0.4300	29.6037
 0.4290	29.5195
 0.4280	29.4362
 0.4270	29.3666
 0.4260	29.2955
 0.4250	29.2562
 0.4240	29.2240
 0.4230	29.2013
 0.4220	29.1763
 0.4210	29.1465
 0.4200	29.0955
 0.4190	29.0423
 0.4180	28.9761
 0.4170	28.8951
 0.4160	28.7954
 0.4150	28.6902
 0.4140	28.5811
 0.4130	28.4565
 0.4120	28.3234
 0.4110	28.1842
 0.4100	28.0340
 0.4090	27.8969
 0.4080	27.7643
 0.4070	27.6233
 0.4060	27.4887
 0.4050	27.3555
 0.4040	27.2202
 0.4030	27.0831
 0.4020	26.9502
 0.4010	26.8216
 0.4000	26.6801
