Name: Lepidolite K(Li,Al)3(Si,Al)_4O_10(F,OH)_2
Type: Mineral
Class: Silicate
Subclass: Phyllosilicate
Particle Size: Fine
Sample No.: PS-13A
Owner: JPL
Wavelength Range: VSWIR
Origin: USA, South Dakota.
Collection Date: N/A
Description: Yellow lepidolite.Particle size was 0-45um.Collected by:  Ward's Original ASTER Spectral Library name was jpl.perkin.mineral.silicate.phyllosilicate.fine.ps13a.spectrum.txt
Measurement: Hemispherical reflectance
First Column: X
Second Column: Y
X Units: Wavelength (micrometers)
Y Units:Reflectance (percent)
First X Value:  2.5000
Last X Value:  0.4000
Number of X Values: 2101
Additional Information: mineral.silicate.phyllosilicate.fine.vswir.ps-13a.jpl.perkin.ancillary.txt

 2.5000	55.5129
 2.4990	55.1189
 2.4980	54.9970
 2.4970	55.0827
 2.4960	54.6869
 2.4950	54.9118
 2.4940	54.5322
 2.4930	54.5433
 2.4920	54.5160
 2.4910	54.5107
 2.4900	54.2426
 2.4890	54.4869
 2.4880	54.1241
 2.4870	54.3139
 2.4860	54.0637
 2.4850	53.9665
 2.4840	54.0388
 2.4830	54.0715
 2.4820	53.8242
 2.4810	53.9903
 2.4800	53.7772
 2.4790	53.7865
 2.4780	53.5065
 2.4770	53.8154
 2.4760	53.4254
 2.4750	53.4769
 2.4740	53.1928
 2.4730	53.2996
 2.4720	53.2221
 2.4710	53.1941
 2.4700	53.0729
 2.4690	53.1613
 2.4680	52.8746
 2.4670	52.9261
 2.4660	52.6768
 2.4650	52.6167
 2.4640	52.4609
 2.4630	52.3955
 2.4620	52.3098
 2.4610	52.3363
 2.4600	52.1630
 2.4590	52.1035
 2.4580	51.9660
 2.4570	51.8598
 2.4560	51.7015
 2.4550	51.6431
 2.4540	51.5340
 2.4530	51.6331
 2.4520	51.3517
 2.4510	51.2577
 2.4500	51.2590
 2.4490	51.1399
 2.4480	51.0614
 2.4470	51.0508
 2.4460	50.9665
 2.4450	51.0231
 2.4440	50.8418
 2.4430	50.8787
 2.4420	50.7524
 2.4410	50.8004
 2.4400	50.7012
 2.4390	50.7700
 2.4380	50.7001
 2.4370	50.7628
 2.4360	50.8488
 2.4350	50.7938
 2.4340	50.8801
 2.4330	50.9365
 2.4320	50.9520
 2.4310	51.1303
 2.4300	51.2180
 2.4290	51.3737
 2.4280	51.4499
 2.4270	51.6154
 2.4260	51.7736
 2.4250	51.9320
 2.4240	52.1028
 2.4230	52.2879
 2.4220	52.3771
 2.4210	52.6407
 2.4200	52.7154
 2.4190	53.0412
 2.4180	53.2401
 2.4170	53.4932
 2.4160	53.6413
 2.4150	53.8910
 2.4140	54.1454
 2.4130	54.4308
 2.4120	54.5840
 2.4110	54.7892
 2.4100	55.0599
 2.4090	55.2861
 2.4080	55.3867
 2.4070	55.6341
 2.4060	55.8062
 2.4050	56.0525
 2.4040	56.1986
 2.4030	56.3755
 2.4020	56.4763
 2.4010	56.6226
 2.4000	56.8343
 2.3990	57.0040
 2.3980	57.1170
 2.3970	57.2109
 2.3960	57.3412
 2.3950	57.4803
 2.3940	57.5528
 2.3930	57.5952
 2.3920	57.6369
 2.3910	57.7027
 2.3900	57.7527
 2.3890	57.8122
 2.3880	57.8310
 2.3870	57.8743
 2.3860	57.8791
 2.3850	57.8748
 2.3840	57.9582
 2.3830	57.9786
 2.3820	57.9136
 2.3810	57.9550
 2.3800	57.9767
 2.3790	58.0403
 2.3780	58.0446
 2.3770	58.0285
 2.3760	58.0270
 2.3750	57.9637
 2.3740	57.9292
 2.3730	57.9081
 2.3720	57.9928
 2.3710	57.9998
 2.3700	57.8749
 2.3690	57.8896
 2.3680	57.9129
 2.3670	57.8711
 2.3660	57.7744
 2.3650	57.7236
 2.3640	57.6266
 2.3630	57.5471
 2.3620	57.4563
 2.3610	57.3181
 2.3600	57.2316
 2.3590	57.1475
 2.3580	57.0258
 2.3570	56.8901
 2.3560	56.7456
 2.3550	56.6410
 2.3540	56.5607
 2.3530	56.5173
 2.3520	56.4282
 2.3510	56.3071
 2.3500	56.1888
 2.3490	56.1244
 2.3480	56.1281
 2.3470	56.1576
 2.3460	56.1960
 2.3450	56.1828
 2.3440	56.2315
 2.3430	56.3107
 2.3420	56.3717
 2.3410	56.4971
 2.3400	56.6444
 2.3390	56.7697
 2.3380	56.9785
 2.3370	57.1716
 2.3360	57.3507
 2.3350	57.6345
 2.3340	57.9102
 2.3330	58.1885
 2.3320	58.4207
 2.3310	58.6460
 2.3300	58.9259
 2.3290	59.1523
 2.3280	59.4433
 2.3270	59.7712
 2.3260	60.1409
 2.3250	60.4189
 2.3240	60.6760
 2.3230	60.9910
 2.3220	61.2717
 2.3210	61.6254
 2.3200	61.9288
 2.3190	62.2406
 2.3180	62.5864
 2.3170	62.8452
 2.3160	63.2059
 2.3150	63.4947
 2.3140	63.7977
 2.3130	64.0882
 2.3120	64.3928
 2.3110	64.5744
 2.3100	64.9194
 2.3090	65.2249
 2.3080	65.4973
 2.3070	65.7602
 2.3060	66.0079
 2.3050	66.2672
 2.3040	66.5338
 2.3030	66.7865
 2.3020	67.0551
 2.3010	67.2731
 2.3000	67.5629
 2.2990	67.7301
 2.2980	67.9843
 2.2970	68.1835
 2.2960	68.3368
 2.2950	68.5007
 2.2940	68.7975
 2.2930	68.8473
 2.2920	68.9754
 2.2910	69.2859
 2.2900	69.3686
 2.2890	69.4574
 2.2880	69.6171
 2.2870	69.7012
 2.2860	69.8385
 2.2850	69.9459
 2.2840	70.1436
 2.2830	70.1342
 2.2820	70.1791
 2.2810	70.2664
 2.2800	70.3159
 2.2790	70.3224
 2.2780	70.4330
 2.2770	70.4647
 2.2760	70.5343
 2.2750	70.5703
 2.2740	70.6021
 2.2730	70.6041
 2.2720	70.6181
 2.2710	70.6391
 2.2700	70.7183
 2.2690	70.6625
 2.2680	70.7605
 2.2670	70.7189
 2.2660	70.6980
 2.2650	70.6609
 2.2640	70.6820
 2.2630	70.7542
 2.2620	70.7217
 2.2610	70.5295
 2.2600	70.6254
 2.2590	70.5826
 2.2580	70.6527
 2.2570	70.5779
 2.2560	70.4118
 2.2550	70.3530
 2.2540	70.4990
 2.2530	70.3945
 2.2520	70.3648
 2.2510	70.2503
 2.2500	70.3072
 2.2490	70.2830
 2.2480	70.1792
 2.2470	70.1799
 2.2460	70.0549
 2.2450	70.0333
 2.2440	69.9945
 2.2430	69.8954
 2.2420	69.7877
 2.2410	69.7337
 2.2400	69.6852
 2.2390	69.5472
 2.2380	69.5226
 2.2370	69.2494
 2.2360	69.2730
 2.2350	69.0269
 2.2340	68.8854
 2.2330	68.7728
 2.2320	68.5669
 2.2310	68.2921
 2.2300	68.0560
 2.2290	67.7926
 2.2280	67.4871
 2.2270	67.1151
 2.2260	66.8302
 2.2250	66.4446
 2.2240	65.9776
 2.2230	65.5248
 2.2220	64.9609
 2.2210	64.4238
 2.2200	63.9114
 2.2190	63.2468
 2.2180	62.6141
 2.2170	61.8011
 2.2160	61.1318
 2.2150	60.4130
 2.2140	59.5827
 2.2130	58.7620
 2.2120	58.1626
 2.2110	57.1171
 2.2100	56.5411
 2.2090	55.5894
 2.2080	54.8795
 2.2070	54.1180
 2.2060	53.4082
 2.2050	52.6967
 2.2040	52.0718
 2.2030	51.4668
 2.2020	50.9812
 2.2010	50.4201
 2.2000	50.0633
 2.1990	49.5745
 2.1980	49.3957
 2.1970	49.1879
 2.1960	49.1165
 2.1950	49.0231
 2.1940	49.2679
 2.1930	49.2801
 2.1920	49.6478
 2.1910	49.9803
 2.1900	50.5046
 2.1890	50.9573
 2.1880	51.5669
 2.1870	52.2986
 2.1860	52.9932
 2.1850	53.8392
 2.1840	54.6546
 2.1830	55.5490
 2.1820	56.4201
 2.1810	57.4039
 2.1800	58.3373
 2.1790	59.2286
 2.1780	60.1177
 2.1770	61.0411
 2.1760	61.9867
 2.1750	62.7631
 2.1740	63.5685
 2.1730	64.3281
 2.1720	65.0104
 2.1710	65.7200
 2.1700	66.4004
 2.1690	67.0134
 2.1680	67.5923
 2.1670	68.0612
 2.1660	68.7093
 2.1650	69.1382
 2.1640	69.6587
 2.1630	70.0249
 2.1620	70.3659
 2.1610	70.6972
 2.1600	71.0813
 2.1590	71.4133
 2.1580	71.6862
 2.1570	72.0323
 2.1560	72.3671
 2.1550	72.5310
 2.1540	72.6665
 2.1530	72.9061
 2.1520	73.1864
 2.1510	73.3584
 2.1500	73.6287
 2.1490	73.6768
 2.1480	73.8579
 2.1470	73.9546
 2.1460	74.1277
 2.1450	74.2426
 2.1440	74.3655
 2.1430	74.4807
 2.1420	74.5269
 2.1410	74.6361
 2.1400	74.6608
 2.1390	74.7451
 2.1380	74.8518
 2.1370	74.8503
 2.1360	74.8338
 2.1350	74.9053
 2.1340	74.8781
 2.1330	74.7894
 2.1320	74.7986
 2.1310	74.8248
 2.1300	74.7839
 2.1290	74.6915
 2.1280	74.6586
 2.1270	74.6276
 2.1260	74.5306
 2.1250	74.4439
 2.1240	74.4819
 2.1230	74.3896
 2.1220	74.3870
 2.1210	74.3634
 2.1200	74.3359
 2.1190	74.3404
 2.1180	74.3364
 2.1170	74.3564
 2.1160	74.3889
 2.1150	74.3935
 2.1140	74.4201
 2.1130	74.4892
 2.1120	74.4935
 2.1110	74.5106
 2.1100	74.5300
 2.1090	74.6734
 2.1080	74.7441
 2.1070	74.7806
 2.1060	74.8033
 2.1050	74.8592
 2.1040	74.9508
 2.1030	75.0452
 2.1020	75.1120
 2.1010	75.2130
 2.1000	75.2673
 2.0990	75.3364
 2.0980	75.4953
 2.0970	75.6246
 2.0960	75.7177
 2.0950	75.8616
 2.0940	75.9781
 2.0930	76.0924
 2.0920	76.1763
 2.0910	76.3178
 2.0900	76.4979
 2.0890	76.6174
 2.0880	76.7264
 2.0870	76.8218
 2.0860	76.8767
 2.0850	76.9458
 2.0840	77.0275
 2.0830	77.0632
 2.0820	77.1800
 2.0810	77.2989
 2.0800	77.4026
 2.0790	77.4877
 2.0780	77.5687
 2.0770	77.5856
 2.0760	77.6013
 2.0750	77.7114
 2.0740	77.7772
 2.0730	77.8010
 2.0720	77.8359
 2.0710	77.8517
 2.0700	77.8999
 2.0690	77.9269
 2.0680	77.9357
 2.0670	77.9897
 2.0660	78.0767
 2.0650	78.1415
 2.0640	78.1146
 2.0630	78.1018
 2.0620	78.1206
 2.0610	78.1236
 2.0600	78.1234
 2.0590	78.2094
 2.0580	78.2413
 2.0570	78.2614
 2.0560	78.2772
 2.0550	78.2967
 2.0540	78.3473
 2.0530	78.3544
 2.0520	78.3855
 2.0510	78.4319
 2.0500	78.4566
 2.0490	78.4731
 2.0480	78.4344
 2.0470	78.4584
 2.0460	78.4876
 2.0450	78.4812
 2.0440	78.5419
 2.0430	78.5388
 2.0420	78.4880
 2.0410	78.5484
 2.0400	78.5469
 2.0390	78.6191
 2.0380	78.6656
 2.0370	78.6787
 2.0360	78.6940
 2.0350	78.6752
 2.0340	78.6921
 2.0330	78.6990
 2.0320	78.6419
 2.0310	78.6906
 2.0300	78.7312
 2.0290	78.7371
 2.0280	78.7477
 2.0270	78.7636
 2.0260	78.7402
 2.0250	78.7815
 2.0240	78.7955
 2.0230	78.7803
 2.0220	78.6983
 2.0210	78.7374
 2.0200	78.7814
 2.0190	78.7754
 2.0180	78.7733
 2.0170	78.7689
 2.0160	78.7643
 2.0150	78.7662
 2.0140	78.8117
 2.0130	78.7955
 2.0120	78.7185
 2.0110	78.7319
 2.0100	78.7918
 2.0090	78.8134
 2.0080	78.7820
 2.0070	78.7753
 2.0060	78.8092
 2.0050	78.7989
 2.0040	78.8175
 2.0030	78.8112
 2.0020	78.7471
 2.0010	78.7922
 2.0000	78.8585
 1.9990	78.7508
 1.9980	78.8051
 1.9970	78.7482
 1.9960	78.7114
 1.9950	78.6722
 1.9940	78.6241
 1.9930	78.6534
 1.9920	78.6424
 1.9910	78.6808
 1.9900	78.7198
 1.9890	78.6904
 1.9880	78.6350
 1.9870	78.6705
 1.9860	78.5860
 1.9850	78.5173
 1.9840	78.4855
 1.9830	78.6388
 1.9820	78.5895
 1.9810	78.5805
 1.9800	78.5575
 1.9790	78.5698
 1.9780	78.4864
 1.9770	78.5160
 1.9760	78.4970
 1.9750	78.5613
 1.9740	78.5353
 1.9730	78.5585
 1.9720	78.5361
 1.9710	78.5003
 1.9700	78.4219
 1.9690	78.4510
 1.9680	78.4128
 1.9670	78.4986
 1.9660	78.5202
 1.9650	78.5677
 1.9640	78.4446
 1.9630	78.4571
 1.9620	78.3890
 1.9610	78.4658
 1.9600	78.4626
 1.9590	78.4827
 1.9580	78.3944
 1.9570	78.4772
 1.9560	78.4024
 1.9550	78.3881
 1.9540	78.4308
 1.9530	78.4402
 1.9520	78.4186
 1.9510	78.4468
 1.9500	78.3813
 1.9490	78.4814
 1.9480	78.4137
 1.9470	78.3544
 1.9460	78.4074
 1.9450	78.3918
 1.9440	78.3305
 1.9430	78.3526
 1.9420	78.4701
 1.9410	78.4743
 1.9400	78.3366
 1.9390	78.2900
 1.9380	78.4290
 1.9370	78.3396
 1.9360	78.4676
 1.9350	78.3241
 1.9340	78.4442
 1.9330	78.3105
 1.9320	78.3102
 1.9310	78.3553
 1.9300	78.2653
 1.9290	78.3876
 1.9280	78.2857
 1.9270	78.4396
 1.9260	78.3225
 1.9250	78.3991
 1.9240	78.3668
 1.9230	78.3914
 1.9220	78.3064
 1.9210	78.2674
 1.9200	78.2890
 1.9190	78.3694
 1.9180	78.4056
 1.9170	78.5076
 1.9160	78.3586
 1.9150	78.5324
 1.9140	78.4742
 1.9130	78.5791
 1.9120	78.4911
 1.9110	78.4628
 1.9100	78.6015
 1.9090	78.7057
 1.9080	78.6500
 1.9070	78.7461
 1.9060	78.8660
 1.9050	78.9615
 1.9040	78.9054
 1.9030	78.9650
 1.9020	79.1503
 1.9010	79.2686
 1.9000	79.3324
 1.8990	79.4014
 1.8980	79.4946
 1.8970	79.6404
 1.8960	79.6962
 1.8950	79.7280
 1.8940	79.8257
 1.8930	79.9659
 1.8920	79.9605
 1.8910	80.0528
 1.8900	80.0652
 1.8890	80.2103
 1.8880	80.2371
 1.8870	80.3226
 1.8860	80.3092
 1.8850	80.3191
 1.8840	80.3988
 1.8830	80.4776
 1.8820	80.4478
 1.8810	80.5464
 1.8800	80.6767
 1.8790	80.7247
 1.8780	80.6921
 1.8770	80.7782
 1.8760	80.7101
 1.8750	80.7299
 1.8740	80.8035
 1.8730	80.8068
 1.8720	80.8577
 1.8710	80.8789
 1.8700	80.9176
 1.8690	80.9757
 1.8680	80.9927
 1.8670	81.0044
 1.8660	81.0606
 1.8650	81.0179
 1.8640	81.0592
 1.8630	81.0777
 1.8620	81.0032
 1.8610	81.0135
 1.8600	81.0438
 1.8590	81.0338
 1.8580	81.0279
 1.8570	81.1391
 1.8560	80.9802
 1.8550	81.0190
 1.8540	81.0262
 1.8530	81.0455
 1.8520	80.9919
 1.8510	80.9912
 1.8500	80.9398
 1.8490	80.9681
 1.8480	80.9534
 1.8470	80.8943
 1.8460	80.8193
 1.8450	80.8393
 1.8440	80.8482
 1.8430	80.9006
 1.8420	80.8717
 1.8410	80.8188
 1.8400	80.7741
 1.8390	80.8363
 1.8380	80.8530
 1.8370	80.8565
 1.8360	80.8417
 1.8350	80.8244
 1.8340	80.8667
 1.8330	80.9296
 1.8320	80.8850
 1.8310	80.8791
 1.8300	80.9258
 1.8290	80.9809
 1.8280	80.9845
 1.8270	80.9723
 1.8260	80.9914
 1.8250	81.0940
 1.8240	81.1259
 1.8230	81.0952
 1.8220	81.1360
 1.8210	81.1508
 1.8200	81.1744
 1.8190	81.2130
 1.8180	81.1710
 1.8170	81.1822
 1.8160	81.2225
 1.8150	81.3201
 1.8140	81.3247
 1.8130	81.2886
 1.8120	81.3222
 1.8110	81.2985
 1.8100	81.3257
 1.8090	81.3744
 1.8080	81.4149
 1.8070	81.4557
 1.8060	81.3801
 1.8050	81.3530
 1.8040	81.3977
 1.8030	81.3473
 1.8020	81.4179
 1.8010	81.4383
 1.8000	81.4007
 1.7990	81.3920
 1.7980	81.3938
 1.7970	81.4205
 1.7960	81.4113
 1.7950	81.4119
 1.7940	81.4224
 1.7930	81.3926
 1.7920	81.4313
 1.7910	81.4460
 1.7900	81.3775
 1.7890	81.3922
 1.7880	81.4364
 1.7870	81.3943
 1.7860	81.3636
 1.7850	81.3972
 1.7840	81.3454
 1.7830	81.3327
 1.7820	81.3834
 1.7810	81.3534
 1.7800	81.3248
 1.7790	81.3391
 1.7780	81.3523
 1.7770	81.2738
 1.7760	81.2661
 1.7750	81.2960
 1.7740	81.3266
 1.7730	81.3305
 1.7720	81.2555
 1.7710	81.2589
 1.7700	81.2779
 1.7690	81.2996
 1.7680	81.3275
 1.7670	81.2694
 1.7660	81.2733
 1.7650	81.3124
 1.7640	81.2991
 1.7630	81.3161
 1.7620	81.3111
 1.7610	81.3075
 1.7600	81.3112
 1.7590	81.2859
 1.7580	81.3381
 1.7570	81.3791
 1.7560	81.3879
 1.7550	81.3263
 1.7540	81.3567
 1.7530	81.4191
 1.7520	81.3796
 1.7510	81.3824
 1.7500	81.3893
 1.7490	81.4204
 1.7480	81.4291
 1.7470	81.4050
 1.7460	81.4221
 1.7450	81.4202
 1.7440	81.4493
 1.7430	81.4250
 1.7420	81.3788
 1.7410	81.4707
 1.7400	81.5182
 1.7390	81.5046
 1.7380	81.5492
 1.7370	81.5405
 1.7360	81.4969
 1.7350	81.5451
 1.7340	81.4950
 1.7330	81.5349
 1.7320	81.5335
 1.7310	81.5409
 1.7300	81.6374
 1.7290	81.5115
 1.7280	81.5110
 1.7270	81.5163
 1.7260	81.5219
 1.7250	81.5929
 1.7240	81.5343
 1.7230	81.5427
 1.7220	81.5660
 1.7210	81.5886
 1.7200	81.5933
 1.7190	81.4976
 1.7180	81.4749
 1.7170	81.5116
 1.7160	81.5261
 1.7150	81.5002
 1.7140	81.5363
 1.7130	81.5021
 1.7120	81.4750
 1.7110	81.5480
 1.7100	81.6027
 1.7090	81.5093
 1.7080	81.4739
 1.7070	81.5034
 1.7060	81.4856
 1.7050	81.5004
 1.7040	81.4769
 1.7030	81.4227
 1.7020	81.4962
 1.7010	81.4544
 1.7000	81.4662
 1.6990	81.4971
 1.6980	81.5461
 1.6970	81.4508
 1.6960	81.4587
 1.6950	81.5284
 1.6940	81.5042
 1.6930	81.5416
 1.6920	81.6072
 1.6910	81.5044
 1.6900	81.5241
 1.6890	81.4270
 1.6880	81.5150
 1.6870	81.5597
 1.6860	81.5645
 1.6850	81.4885
 1.6840	81.4525
 1.6830	81.3784
 1.6820	81.4533
 1.6810	81.4738
 1.6800	81.4715
 1.6790	81.5219
 1.6780	81.5365
 1.6770	81.4154
 1.6760	81.3861
 1.6750	81.5247
 1.6740	81.4536
 1.6730	81.4504
 1.6720	81.4514
 1.6710	81.4135
 1.6700	81.4330
 1.6690	81.3943
 1.6680	81.4094
 1.6670	81.4818
 1.6660	81.5059
 1.6650	81.4443
 1.6640	81.4599
 1.6630	81.4931
 1.6620	81.4650
 1.6610	81.4648
 1.6600	81.5390
 1.6590	81.3652
 1.6580	81.5010
 1.6570	81.4111
 1.6560	81.4137
 1.6550	81.4135
 1.6540	81.4680
 1.6530	81.4271
 1.6520	81.4614
 1.6510	81.3677
 1.6500	81.4366
 1.6490	81.4524
 1.6480	81.3862
 1.6470	81.3904
 1.6460	81.3578
 1.6450	81.4897
 1.6440	81.3991
 1.6430	81.4710
 1.6420	81.4672
 1.6410	81.4028
 1.6400	81.4069
 1.6390	81.3627
 1.6380	81.4643
 1.6370	81.4084
 1.6360	81.4424
 1.6350	81.4136
 1.6340	81.4364
 1.6330	81.3828
 1.6320	81.4024
 1.6310	81.3640
 1.6300	81.4298
 1.6290	81.4277
 1.6280	81.4390
 1.6270	81.2911
 1.6260	81.3535
 1.6250	81.4853
 1.6240	81.3505
 1.6230	81.3693
 1.6220	81.2812
 1.6210	81.3547
 1.6200	81.4432
 1.6190	81.4380
 1.6180	81.3157
 1.6170	81.3949
 1.6160	81.4611
 1.6150	81.3565
 1.6140	81.3677
 1.6130	81.3539
 1.6120	81.3677
 1.6110	81.3524
 1.6100	81.3664
 1.6090	81.3577
 1.6080	81.3725
 1.6070	81.3017
 1.6060	81.3933
 1.6050	81.4207
 1.6040	81.3552
 1.6030	81.3477
 1.6020	81.3491
 1.6010	81.3105
 1.6000	81.3770
 1.5990	81.3411
 1.5980	81.3777
 1.5970	81.3466
 1.5960	81.3294
 1.5950	81.3350
 1.5940	81.4027
 1.5930	81.3097
 1.5920	81.2413
 1.5910	81.3480
 1.5900	81.3716
 1.5890	81.3260
 1.5880	81.3282
 1.5870	81.2392
 1.5860	81.2709
 1.5850	81.1963
 1.5840	81.2794
 1.5830	81.2654
 1.5820	81.2389
 1.5810	81.2862
 1.5800	81.1972
 1.5790	81.2404
 1.5780	81.1730
 1.5770	81.2538
 1.5760	81.2444
 1.5750	81.2215
 1.5740	81.2311
 1.5730	81.1737
 1.5720	81.2101
 1.5710	81.2408
 1.5700	81.2166
 1.5690	81.1811
 1.5680	81.1720
 1.5670	81.1948
 1.5660	81.0927
 1.5650	81.1421
 1.5640	81.1547
 1.5630	81.0860
 1.5620	81.0940
 1.5610	81.1322
 1.5600	81.1134
 1.5590	81.0841
 1.5580	81.1023
 1.5570	81.0450
 1.5560	81.0810
 1.5550	81.0248
 1.5540	81.0212
 1.5530	81.0365
 1.5520	81.0041
 1.5510	81.0169
 1.5500	81.0147
 1.5490	80.9663
 1.5480	81.0567
 1.5470	80.9760
 1.5460	80.9268
 1.5450	80.8936
 1.5440	80.9866
 1.5430	80.9954
 1.5420	80.9089
 1.5410	80.9073
 1.5400	80.9444
 1.5390	80.9221
 1.5380	80.9223
 1.5370	80.8060
 1.5360	80.7973
 1.5350	80.8292
 1.5340	80.8376
 1.5330	80.8027
 1.5320	80.8493
 1.5310	80.8651
 1.5300	80.8861
 1.5290	80.8264
 1.5280	80.7773
 1.5270	80.7838
 1.5260	80.7637
 1.5250	80.7288
 1.5240	80.7107
 1.5230	80.7137
 1.5220	80.7376
 1.5210	80.7373
 1.5200	80.7128
 1.5190	80.6586
 1.5180	80.6595
 1.5170	80.6968
 1.5160	80.6855
 1.5150	80.6230
 1.5140	80.6560
 1.5130	80.6829
 1.5120	80.6295
 1.5110	80.6267
 1.5100	80.5903
 1.5090	80.5645
 1.5080	80.5849
 1.5070	80.6084
 1.5060	80.6395
 1.5050	80.5883
 1.5040	80.4858
 1.5030	80.4557
 1.5020	80.4931
 1.5010	80.4962
 1.5000	80.4530
 1.4990	80.4191
 1.4980	80.4472
 1.4970	80.4953
 1.4960	80.5217
 1.4950	80.4498
 1.4940	80.4300
 1.4930	80.4123
 1.4920	80.3451
 1.4910	80.3692
 1.4900	80.3659
 1.4890	80.3775
 1.4880	80.3808
 1.4870	80.3063
 1.4860	80.2711
 1.4850	80.2192
 1.4840	80.2159
 1.4830	80.2269
 1.4820	80.2108
 1.4810	80.1926
 1.4800	80.1863
 1.4790	80.1901
 1.4780	80.1591
 1.4770	80.1533
 1.4760	80.1638
 1.4750	80.1370
 1.4740	80.0950
 1.4730	80.1432
 1.4720	80.1096
 1.4710	80.0230
 1.4700	79.9431
 1.4690	79.9434
 1.4680	79.9832
 1.4670	79.9492
 1.4660	79.9371
 1.4650	79.9073
 1.4640	79.8986
 1.4630	79.9130
 1.4620	79.8456
 1.4610	79.8732
 1.4600	79.8424
 1.4590	79.8279
 1.4580	79.7871
 1.4570	79.7580
 1.4560	79.7127
 1.4550	79.6479
 1.4540	79.6234
 1.4530	79.5966
 1.4520	79.5257
 1.4510	79.5376
 1.4500	79.5031
 1.4490	79.3949
 1.4480	79.3963
 1.4470	79.3653
 1.4460	79.3085
 1.4450	79.2968
 1.4440	79.2005
 1.4430	79.1024
 1.4420	79.1795
 1.4410	79.0469
 1.4400	78.9162
 1.4390	78.9015
 1.4380	78.7511
 1.4370	78.6754
 1.4360	78.5263
 1.4350	78.4268
 1.4340	78.1522
 1.4330	77.9414
 1.4320	77.7136
 1.4310	77.3619
 1.4300	76.9664
 1.4290	76.4576
 1.4280	75.9228
 1.4270	75.3123
 1.4260	74.6780
 1.4250	73.8706
 1.4240	72.8762
 1.4230	71.9672
 1.4220	70.8634
 1.4210	69.7077
 1.4200	68.3673
 1.4190	66.8978
 1.4180	65.5847
 1.4170	64.2320
 1.4160	62.9730
 1.4150	61.8124
 1.4140	60.7196
 1.4130	60.1499
 1.4120	59.9114
 1.4110	59.9978
 1.4100	60.2273
 1.4090	60.6505
 1.4080	61.0685
 1.4070	61.6100
 1.4060	62.1001
 1.4050	62.6878
 1.4040	63.0409
 1.4030	63.6674
 1.4020	64.2051
 1.4010	65.0896
 1.4000	65.8980
 1.3990	67.0120
 1.3980	67.9737
 1.3970	69.2053
 1.3960	70.4741
 1.3950	71.8494
 1.3940	73.0252
 1.3930	74.1403
 1.3920	75.0269
 1.3910	75.8577
 1.3900	76.5140
 1.3890	76.9494
 1.3880	77.2477
 1.3870	77.4646
 1.3860	77.7866
 1.3850	77.8982
 1.3840	78.0096
 1.3830	78.0370
 1.3820	78.0643
 1.3810	78.1638
 1.3800	78.2409
 1.3790	78.1963
 1.3780	78.1708
 1.3770	78.2402
 1.3760	78.2883
 1.3750	78.3837
 1.3740	78.2774
 1.3730	78.4327
 1.3720	78.2999
 1.3710	78.4326
 1.3700	78.3685
 1.3690	78.3790
 1.3680	78.3450
 1.3670	78.4968
 1.3660	78.4704
 1.3650	78.6042
 1.3640	78.5875
 1.3630	78.5990
 1.3620	78.5335
 1.3610	78.5649
 1.3600	78.5718
 1.3590	78.5370
 1.3580	78.5277
 1.3570	78.6003
 1.3560	78.5748
 1.3550	78.6484
 1.3540	78.5989
 1.3530	78.5614
 1.3520	78.6273
 1.3510	78.5105
 1.3500	78.4583
 1.3490	78.5609
 1.3480	78.4532
 1.3470	78.4970
 1.3460	78.3655
 1.3450	78.4103
 1.3440	78.2977
 1.3430	78.4097
 1.3420	78.3076
 1.3410	78.2265
 1.3400	78.2633
 1.3390	78.1431
 1.3380	78.1201
 1.3370	78.0292
 1.3360	78.1373
 1.3350	78.1224
 1.3340	77.9780
 1.3330	78.0128
 1.3320	77.9535
 1.3310	77.9531
 1.3300	77.9363
 1.3290	77.8804
 1.3280	77.9324
 1.3270	77.9790
 1.3260	77.8981
 1.3250	77.8047
 1.3240	77.8201
 1.3230	77.8436
 1.3220	77.8298
 1.3210	77.8162
 1.3200	77.8497
 1.3190	77.7621
 1.3180	77.7049
 1.3170	77.6867
 1.3160	77.6854
 1.3150	77.6421
 1.3140	77.6678
 1.3130	77.6959
 1.3120	77.6374
 1.3110	77.6749
 1.3100	77.6404
 1.3090	77.6571
 1.3080	77.6287
 1.3070	77.6036
 1.3060	77.6856
 1.3050	77.6234
 1.3040	77.5763
 1.3030	77.6594
 1.3020	77.6456
 1.3010	77.6894
 1.3000	77.5620
 1.2990	77.6233
 1.2980	77.6162
 1.2970	77.6207
 1.2960	77.5920
 1.2950	77.5591
 1.2940	77.5752
 1.2930	77.5669
 1.2920	77.5281
 1.2910	77.5099
 1.2900	77.5913
 1.2890	77.6634
 1.2880	77.6164
 1.2870	77.6133
 1.2860	77.5572
 1.2850	77.6153
 1.2840	77.6298
 1.2830	77.5910
 1.2820	77.5223
 1.2810	77.5494
 1.2800	77.4865
 1.2790	77.5253
 1.2780	77.4572
 1.2770	77.5072
 1.2760	77.5053
 1.2750	77.5186
 1.2740	77.5137
 1.2730	77.4734
 1.2720	77.4074
 1.2710	77.4406
 1.2700	77.4821
 1.2690	77.4507
 1.2680	77.3741
 1.2670	77.3109
 1.2660	77.3293
 1.2650	77.3671
 1.2640	77.3106
 1.2630	77.3568
 1.2620	77.3513
 1.2610	77.3093
 1.2600	77.2929
 1.2590	77.2256
 1.2580	77.1820
 1.2570	77.1733
 1.2560	77.1581
 1.2550	77.1792
 1.2540	77.0803
 1.2530	77.0935
 1.2520	77.0573
 1.2510	77.0014
 1.2500	77.0064
 1.2490	77.0256
 1.2480	76.9457
 1.2470	76.9578
 1.2460	76.9588
 1.2450	77.0263
 1.2440	76.9517
 1.2430	76.9379
 1.2420	77.0185
 1.2410	76.9996
 1.2400	76.9483
 1.2390	76.9687
 1.2380	76.9299
 1.2370	76.9443
 1.2360	76.9481
 1.2350	76.9146
 1.2340	76.9688
 1.2330	76.9653
 1.2320	76.8764
 1.2310	76.8798
 1.2300	76.8561
 1.2290	76.8133
 1.2280	76.8541
 1.2270	76.9191
 1.2260	76.8929
 1.2250	76.8547
 1.2240	76.8426
 1.2230	76.8725
 1.2220	76.8665
 1.2210	76.7698
 1.2200	76.7526
 1.2190	76.7982
 1.2180	76.7901
 1.2170	76.7674
 1.2160	76.7631
 1.2150	76.7600
 1.2140	76.7653
 1.2130	76.7806
 1.2120	76.7121
 1.2110	76.6714
 1.2100	76.7179
 1.2090	76.7648
 1.2080	76.7677
 1.2070	76.7253
 1.2060	76.7218
 1.2050	76.7237
 1.2040	76.7002
 1.2030	76.6818
 1.2020	76.6825
 1.2010	76.6917
 1.2000	76.6640
 1.1990	76.5785
 1.1980	76.5822
 1.1970	76.6308
 1.1960	76.6915
 1.1950	76.6459
 1.1940	76.5983
 1.1930	76.6250
 1.1920	76.6039
 1.1910	76.5730
 1.1900	76.6358
 1.1890	76.5919
 1.1880	76.5353
 1.1870	76.5460
 1.1860	76.6379
 1.1850	76.6161
 1.1840	76.5736
 1.1830	76.6198
 1.1820	76.6168
 1.1810	76.5744
 1.1800	76.4990
 1.1790	76.5437
 1.1780	76.5388
 1.1770	76.5127
 1.1760	76.5741
 1.1750	76.6195
 1.1740	76.5638
 1.1730	76.5633
 1.1720	76.6155
 1.1710	76.5507
 1.1700	76.6072
 1.1690	76.6493
 1.1680	76.5988
 1.1670	76.5836
 1.1660	76.5578
 1.1650	76.5452
 1.1640	76.5768
 1.1630	76.5722
 1.1620	76.6309
 1.1610	76.5777
 1.1600	76.5532
 1.1590	76.5608
 1.1580	76.5849
 1.1570	76.5388
 1.1560	76.5057
 1.1550	76.5889
 1.1540	76.5950
 1.1530	76.5768
 1.1520	76.6416
 1.1510	76.5807
 1.1500	76.6235
 1.1490	76.6004
 1.1480	76.6162
 1.1470	76.5994
 1.1460	76.6856
 1.1450	76.7248
 1.1440	76.6907
 1.1430	76.6882
 1.1420	76.7601
 1.1410	76.7210
 1.1400	76.6808
 1.1390	76.6721
 1.1380	76.7473
 1.1370	76.6799
 1.1360	76.6673
 1.1350	76.7040
 1.1340	76.6600
 1.1330	76.6813
 1.1320	76.6665
 1.1310	76.7976
 1.1300	76.6860
 1.1290	76.7536
 1.1280	76.7243
 1.1270	76.7053
 1.1260	76.7741
 1.1250	76.6757
 1.1240	76.7260
 1.1230	76.7200
 1.1220	76.7651
 1.1210	76.7559
 1.1200	76.7634
 1.1190	76.7746
 1.1180	76.7496
 1.1170	76.7687
 1.1160	76.8053
 1.1150	76.7782
 1.1140	76.9606
 1.1130	76.8124
 1.1120	76.7856
 1.1110	76.8047
 1.1100	76.8302
 1.1090	76.8250
 1.1080	76.8865
 1.1070	76.8448
 1.1060	76.8423
 1.1050	76.7764
 1.1040	76.8767
 1.1030	76.9491
 1.1020	76.9310
 1.1010	76.9307
 1.1000	76.8889
 1.0990	76.8564
 1.0980	76.8911
 1.0970	76.8691
 1.0960	77.0374
 1.0950	76.9074
 1.0940	76.9806
 1.0930	76.9162
 1.0920	76.9249
 1.0910	77.0213
 1.0900	76.9614
 1.0890	76.9255
 1.0880	76.9642
 1.0870	77.0002
 1.0860	77.0836
 1.0850	76.9244
 1.0840	77.0882
 1.0830	76.9882
 1.0820	77.0341
 1.0810	77.0687
 1.0800	77.0639
 1.0790	77.0432
 1.0780	77.1045
 1.0770	77.1021
 1.0760	77.1009
 1.0750	77.1143
 1.0740	77.0872
 1.0730	77.0962
 1.0720	77.1984
 1.0710	77.1733
 1.0700	77.1025
 1.0690	77.1709
 1.0680	77.1548
 1.0670	77.0743
 1.0660	77.1732
 1.0650	77.1585
 1.0640	77.1156
 1.0630	77.1472
 1.0620	77.1846
 1.0610	77.1447
 1.0600	77.1760
 1.0590	77.1762
 1.0580	77.2049
 1.0570	77.1075
 1.0560	77.2472
 1.0550	77.1269
 1.0540	77.1718
 1.0530	77.1930
 1.0520	77.3005
 1.0510	77.2375
 1.0500	77.2188
 1.0490	77.1827
 1.0480	77.3233
 1.0470	77.1762
 1.0460	77.2862
 1.0450	77.2349
 1.0440	77.3114
 1.0430	77.2094
 1.0420	77.3167
 1.0410	77.2408
 1.0400	77.2025
 1.0390	77.2654
 1.0380	77.2710
 1.0370	77.2309
 1.0360	77.2248
 1.0350	77.2314
 1.0340	77.2062
 1.0330	77.2344
 1.0320	77.2290
 1.0310	77.2813
 1.0300	77.3262
 1.0290	77.2301
 1.0280	77.2340
 1.0270	77.2202
 1.0260	77.2785
 1.0250	77.2748
 1.0240	77.2353
 1.0230	77.0698
 1.0220	77.2166
 1.0210	77.2215
 1.0200	77.2433
 1.0190	77.1977
 1.0180	77.2071
 1.0170	77.1580
 1.0160	77.1474
 1.0150	77.1518
 1.0140	77.1296
 1.0130	77.1501
 1.0120	77.1635
 1.0110	77.1451
 1.0100	77.1285
 1.0090	77.0652
 1.0080	77.0459
 1.0070	77.0795
 1.0060	77.1413
 1.0050	77.0925
 1.0040	77.1159
 1.0030	77.0983
 1.0020	77.0282
 1.0010	77.0033
 1.0000	77.0402
 0.9990	77.0754
 0.9980	77.0474
 0.9970	76.9360
 0.9960	77.0340
 0.9950	76.9564
 0.9940	76.9212
 0.9930	76.9572
 0.9920	76.9010
 0.9910	76.8906
 0.9900	76.8209
 0.9890	76.8418
 0.9880	76.8449
 0.9870	76.7761
 0.9860	76.7736
 0.9850	76.7790
 0.9840	76.7474
 0.9830	76.7423
 0.9820	76.7450
 0.9810	76.6788
 0.9800	76.7262
 0.9790	76.6838
 0.9780	76.6036
 0.9770	76.5743
 0.9760	76.5330
 0.9750	76.4794
 0.9740	76.3962
 0.9730	76.2956
 0.9720	76.2577
 0.9710	76.1298
 0.9700	76.0687
 0.9690	75.9483
 0.9680	75.8185
 0.9670	75.8029
 0.9660	75.8299
 0.9650	75.7316
 0.9640	75.7324
 0.9630	75.6582
 0.9620	75.6272
 0.9610	75.7153
 0.9600	75.7035
 0.9590	75.7131
 0.9580	75.7833
 0.9570	75.8150
 0.9560	75.8830
 0.9550	75.9120
 0.9540	76.0004
 0.9530	76.0796
 0.9520	76.0983
 0.9510	76.0229
 0.9500	76.0560
 0.9490	76.0858
 0.9480	76.1604
 0.9470	76.1362
 0.9460	76.0918
 0.9450	76.0587
 0.9440	76.1240
 0.9430	76.1596
 0.9420	76.0946
 0.9410	76.0505
 0.9400	76.0814
 0.9390	76.0785
 0.9380	76.0156
 0.9370	75.9926
 0.9360	76.0622
 0.9350	76.0855
 0.9340	76.0446
 0.9330	76.0189
 0.9320	75.9911
 0.9310	75.9724
 0.9300	75.9517
 0.9290	75.9764
 0.9280	76.0288
 0.9270	75.9787
 0.9260	75.9510
 0.9250	75.9325
 0.9240	75.8796
 0.9230	75.8977
 0.9220	75.9663
 0.9210	75.9617
 0.9200	75.9346
 0.9190	75.9293
 0.9180	75.9209
 0.9170	75.9605
 0.9160	75.9092
 0.9150	75.9260
 0.9140	75.9775
 0.9130	75.9686
 0.9120	75.9068
 0.9110	75.9188
 0.9100	75.9510
 0.9090	75.9421
 0.9080	75.9318
 0.9070	75.9036
 0.9060	75.9099
 0.9050	75.9439
 0.9040	75.9682
 0.9030	75.9593
 0.9020	75.9458
 0.9010	76.0098
 0.9000	76.0516
 0.8990	76.0862
 0.8980	75.9887
 0.8970	75.9311
 0.8960	76.0309
 0.8950	76.0452
 0.8940	75.9618
 0.8930	76.0160
 0.8920	76.0523
 0.8910	76.0913
 0.8900	76.0418
 0.8890	76.1019
 0.8880	76.0892
 0.8870	76.0575
 0.8860	76.1061
 0.8850	76.0827
 0.8840	76.1122
 0.8830	76.1473
 0.8820	76.1925
 0.8810	76.2444
 0.8800	76.1855
 0.8790	76.1765
 0.8780	76.1323
 0.8770	76.1934
 0.8760	76.2351
 0.8750	76.2215
 0.8740	76.2323
 0.8730	76.2747
 0.8720	76.2577
 0.8710	76.3799
 0.8700	76.3343
 0.8690	76.4199
 0.8680	76.4519
 0.8670	76.4344
 0.8660	76.4579
 0.8650	76.4560
 0.8640	76.4404
 0.8630	76.5273
 0.8620	76.4053
 0.8610	76.5237
 0.8600	76.7030
 0.8590	76.7871
 0.8580	76.8963
 0.8570	76.8816
 0.8560	76.8669
 0.8550	76.8247
 0.8540	76.9654
 0.8530	77.0351
 0.8520	76.9409
 0.8510	76.9189
 0.8500	77.0256
 0.8490	77.0640
 0.8480	77.0669
 0.8470	77.1140
 0.8460	77.1093
 0.8450	77.1595
 0.8440	77.1792
 0.8430	77.1847
 0.8420	77.2589
 0.8410	77.2149
 0.8400	77.2238
 0.8390	77.3100
 0.8380	77.2982
 0.8370	77.2995
 0.8360	77.4237
 0.8350	77.3411
 0.8340	77.3711
 0.8330	77.4670
 0.8320	77.4320
 0.8310	77.4951
 0.8300	77.5438
 0.8290	77.4741
 0.8280	77.5330
 0.8270	77.5767
 0.8260	77.5810
 0.8250	77.5860
 0.8240	77.5939
 0.8230	77.6379
 0.8220	77.6349
 0.8210	77.7123
 0.8200	77.6826
 0.8190	77.7609
 0.8180	77.7723
 0.8170	77.7971
 0.8160	77.7632
 0.8150	77.8163
 0.8140	77.8353
 0.8130	77.8554
 0.8120	77.8597
 0.8110	77.9181
 0.8100	77.9538
 0.8090	77.9184
 0.8080	77.9951
 0.8070	77.9422
 0.8060	77.9721
 0.8050	78.0569
 0.8040	78.0268
 0.8030	77.9928
 0.8020	78.0878
 0.8010	78.1287
 0.8000	78.1407
 0.7990	78.0858
 0.7980	78.0656
 0.7970	78.0978
 0.7960	78.0993
 0.7950	78.1179
 0.7940	78.1204
 0.7930	78.1388
 0.7920	78.0961
 0.7910	78.1689
 0.7900	78.1751
 0.7890	78.1871
 0.7880	78.1929
 0.7870	78.1912
 0.7860	78.2168
 0.7850	78.2000
 0.7840	78.2333
 0.7830	78.2281
 0.7820	78.2369
 0.7810	78.2119
 0.7800	78.2111
 0.7790	78.2620
 0.7780	78.3088
 0.7770	78.2345
 0.7760	78.2928
 0.7750	78.2600
 0.7740	78.2700
 0.7730	78.2645
 0.7720	78.3011
 0.7710	78.2976
 0.7700	78.3044
 0.7690	78.3344
 0.7680	78.3652
 0.7670	78.3202
 0.7660	78.3429
 0.7650	78.3186
 0.7640	78.3429
 0.7630	78.3538
 0.7620	78.3557
 0.7610	78.3491
 0.7600	78.3650
 0.7590	78.3463
 0.7580	78.3696
 0.7570	78.3729
 0.7560	78.3621
 0.7550	78.3813
 0.7540	78.3217
 0.7530	78.3738
 0.7520	78.3718
 0.7510	78.4001
 0.7500	78.3636
 0.7490	78.3678
 0.7480	78.3148
 0.7470	78.3533
 0.7460	78.3518
 0.7450	78.3505
 0.7440	78.3451
 0.7430	78.3681
 0.7420	78.3629
 0.7410	78.3569
 0.7400	78.3476
 0.7390	78.3118
 0.7380	78.3354
 0.7370	78.3358
 0.7360	78.3427
 0.7350	78.3581
 0.7340	78.3599
 0.7330	78.3502
 0.7320	78.3130
 0.7310	78.3562
 0.7300	78.3523
 0.7290	78.3271
 0.7280	78.3286
 0.7270	78.3561
 0.7260	78.3496
 0.7250	78.3471
 0.7240	78.3577
 0.7230	78.3294
 0.7220	78.3250
 0.7210	78.3234
 0.7200	78.3160
 0.7190	78.3132
 0.7180	78.3368
 0.7170	78.3219
 0.7160	78.3109
 0.7150	78.3032
 0.7140	78.3065
 0.7130	78.3015
 0.7120	78.3007
 0.7110	78.2853
 0.7100	78.2802
 0.7090	78.2734
 0.7080	78.2776
 0.7070	78.2618
 0.7060	78.2501
 0.7050	78.2504
 0.7040	78.2470
 0.7030	78.2662
 0.7020	78.2623
 0.7010	78.2330
 0.7000	78.2227
 0.6990	78.2257
 0.6980	78.2215
 0.6970	78.2164
 0.6960	78.2004
 0.6950	78.1947
 0.6940	78.1746
 0.6930	78.1602
 0.6920	78.1804
 0.6910	78.1688
 0.6900	78.1528
 0.6890	78.1671
 0.6880	78.1614
 0.6870	78.1478
 0.6860	78.1457
 0.6850	78.1530
 0.6840	78.1355
 0.6830	78.1086
 0.6820	78.0970
 0.6810	78.0932
 0.6800	78.0833
 0.6790	78.0778
 0.6780	78.0678
 0.6770	78.0769
 0.6760	78.0623
 0.6750	78.0441
 0.6740	78.0370
 0.6730	78.0405
 0.6720	78.0213
 0.6710	78.0116
 0.6700	78.0089
 0.6690	77.9807
 0.6680	77.9747
 0.6670	77.9701
 0.6660	77.9578
 0.6650	77.9453
 0.6640	77.9287
 0.6630	77.9230
 0.6620	77.9236
 0.6610	77.9176
 0.6600	77.9062
 0.6590	77.9021
 0.6580	77.8994
 0.6570	77.8747
 0.6560	77.8573
 0.6550	77.8590
 0.6540	77.8409
 0.6530	77.8187
 0.6520	77.8013
 0.6510	77.7943
 0.6500	77.7858
 0.6490	77.7739
 0.6480	77.7706
 0.6470	77.7542
 0.6460	77.7502
 0.6450	77.7299
 0.6440	77.7169
 0.6430	77.7151
 0.6420	77.6911
 0.6410	77.6731
 0.6400	77.6693
 0.6390	77.6531
 0.6380	77.6350
 0.6370	77.6238
 0.6360	77.6117
 0.6350	77.5933
 0.6340	77.5755
 0.6330	77.5593
 0.6320	77.5610
 0.6310	77.5487
 0.6300	77.5278
 0.6290	77.5179
 0.6280	77.5011
 0.6270	77.4852
 0.6260	77.4779
 0.6250	77.4550
 0.6240	77.4365
 0.6230	77.4319
 0.6220	77.4209
 0.6210	77.3840
 0.6200	77.3691
 0.6190	77.3584
 0.6180	77.3452
 0.6170	77.3225
 0.6160	77.3083
 0.6150	77.3076
 0.6140	77.2875
 0.6130	77.2622
 0.6120	77.2469
 0.6110	77.2345
 0.6100	77.2183
 0.6090	77.2015
 0.6080	77.1857
 0.6070	77.1634
 0.6060	77.1397
 0.6050	77.1221
 0.6040	77.1042
 0.6030	77.0924
 0.6020	77.0840
 0.6010	77.0652
 0.6000	77.0442
 0.5990	77.0388
 0.5980	77.0304
 0.5970	77.0379
 0.5960	77.0524
 0.5950	77.0401
 0.5940	77.0121
 0.5930	76.9913
 0.5920	76.9773
 0.5910	76.9665
 0.5900	76.9363
 0.5890	76.9162
 0.5880	76.9057
 0.5870	76.8855
 0.5860	76.8552
 0.5850	76.8332
 0.5840	76.8142
 0.5830	76.7911
 0.5820	76.7721
 0.5810	76.7485
 0.5800	76.7349
 0.5790	76.7079
 0.5780	76.6869
 0.5770	76.6673
 0.5760	76.6458
 0.5750	76.6088
 0.5740	76.5853
 0.5730	76.5456
 0.5720	76.5170
 0.5710	76.5038
 0.5700	76.4717
 0.5690	76.4424
 0.5680	76.4158
 0.5670	76.3832
 0.5660	76.3621
 0.5650	76.3346
 0.5640	76.3054
 0.5630	76.2751
 0.5620	76.2337
 0.5610	76.2070
 0.5600	76.1601
 0.5590	76.1223
 0.5580	76.0852
 0.5570	76.0195
 0.5560	75.9947
 0.5550	75.9741
 0.5540	75.9283
 0.5530	75.8937
 0.5520	75.8508
 0.5510	75.8032
 0.5500	75.7665
 0.5490	75.7169
 0.5480	75.6608
 0.5470	75.6278
 0.5460	75.5780
 0.5450	75.5265
 0.5440	75.4646
 0.5430	75.4172
 0.5420	75.3739
 0.5410	75.3168
 0.5400	75.2646
 0.5390	75.2075
 0.5380	75.1579
 0.5370	75.1052
 0.5360	75.0429
 0.5350	74.9728
 0.5340	74.9241
 0.5330	74.8679
 0.5320	74.8000
 0.5310	74.7478
 0.5300	74.6611
 0.5290	74.6008
 0.5280	74.5395
 0.5270	74.4862
 0.5260	74.4013
 0.5250	74.3291
 0.5240	74.2533
 0.5230	74.2006
 0.5220	74.1200
 0.5210	74.0379
 0.5200	73.9627
 0.5190	73.8699
 0.5180	73.8073
 0.5170	73.7088
 0.5160	73.6243
 0.5150	73.5372
 0.5140	73.4646
 0.5130	73.3944
 0.5120	73.2758
 0.5110	73.1624
 0.5100	73.1049
 0.5090	73.0042
 0.5080	72.9071
 0.5070	72.7918
 0.5060	72.7127
 0.5050	72.6181
 0.5040	72.5065
 0.5030	72.4195
 0.5020	72.3170
 0.5010	72.2057
 0.5000	72.0896
 0.4990	72.0004
 0.4980	71.8841
 0.4970	71.7794
 0.4960	71.6532
 0.4950	71.5601
 0.4940	71.4413
 0.4930	71.3391
 0.4920	71.1929
 0.4910	71.0836
 0.4900	70.9611
 0.4890	70.8351
 0.4880	70.7048
 0.4870	70.5926
 0.4860	70.4555
 0.4850	70.3350
 0.4840	70.1824
 0.4830	70.0690
 0.4820	69.9238
 0.4810	69.8083
 0.4800	69.6736
 0.4790	69.5552
 0.4780	69.4237
 0.4770	69.2939
 0.4760	69.1492
 0.4750	69.0330
 0.4740	68.8612
 0.4730	68.7202
 0.4720	68.5953
 0.4710	68.4404
 0.4700	68.2898
 0.4690	68.1608
 0.4680	68.0010
 0.4670	67.8490
 0.4660	67.6732
 0.4650	67.5090
 0.4640	67.3462
 0.4630	67.1772
 0.4620	66.9875
 0.4610	66.7959
 0.4600	66.6191
 0.4590	66.4360
 0.4580	66.2403
 0.4570	66.0420
 0.4560	65.8453
 0.4550	65.6471
 0.4540	65.3973
 0.4530	65.1696
 0.4520	64.9261
 0.4510	64.6958
 0.4500	64.4396
 0.4490	64.1979
 0.4480	63.9215
 0.4470	63.6576
 0.4460	63.3792
 0.4450	63.0768
 0.4440	62.7829
 0.4430	62.4929
 0.4420	62.1983
 0.4410	61.9016
 0.4400	61.6036
 0.4390	61.3044
 0.4380	61.0084
 0.4370	60.7048
 0.4360	60.4072
 0.4350	60.0616
 0.4340	59.7311
 0.4330	59.4143
 0.4320	59.0937
 0.4310	58.7657
 0.4300	58.4286
 0.4290	58.1001
 0.4280	57.7589
 0.4270	57.4359
 0.4260	57.1009
 0.4250	56.7335
 0.4240	56.3814
 0.4230	56.0596
 0.4220	55.6929
 0.4210	55.3493
 0.4200	54.9914
 0.4190	54.6240
 0.4180	54.2830
 0.4170	53.9127
 0.4160	53.5609
 0.4150	53.1802
 0.4140	52.8101
 0.4130	52.4520
 0.4120	52.0721
 0.4110	51.6794
 0.4100	51.3025
 0.4090	50.9268
 0.4080	50.5467
 0.4070	50.1723
 0.4060	49.7864
 0.4050	49.3823
 0.4040	48.9793
 0.4030	48.5736
 0.4020	48.1821
 0.4010	47.7894
 0.4000	47.3956
