Name: Stilbite NaCa_2Al_5Si_3O_36.14H_2O
Type: Mineral
Class: Silicate
Subclass: Tectosilicate
Particle Size: Medium
Sample No.: TS-9A
Owner: JPL
Wavelength Range: VSWIR
Origin: India.
Collection Date: N/A
Description: Particle size was 45-125um.Collected by:  Grieger's Inc. Original ASTER Spectral Library name was jpl.perkin.mineral.silicate.tectosilicate.medium.ts09a.spectrum.txt
Measurement: Hemispherical reflectance
First Column: X
Second Column: Y
X Units: Wavelength (micrometers)
Y Units:Reflectance (percent)
First X Value:  2.5000
Last X Value:  0.4000
Number of X Values: 2101
Additional Information: mineral.silicate.tectosilicate.medium.vswir.ts-9a.jpl.perkin.ancillary.txt

 2.5000	 8.7269
 2.4990	 8.4396
 2.4980	 8.9287
 2.4970	 8.7173
 2.4960	 8.4961
 2.4950	 8.7481
 2.4940	 8.9729
 2.4930	 8.8770
 2.4920	 9.0682
 2.4910	 8.9679
 2.4900	 9.1634
 2.4890	 9.0240
 2.4880	 9.2075
 2.4870	 9.1362
 2.4860	 9.4182
 2.4850	 9.2232
 2.4840	 9.2777
 2.4830	 9.2736
 2.4820	 9.4127
 2.4810	 9.4975
 2.4800	 9.5888
 2.4790	 9.3452
 2.4780	 9.6655
 2.4770	 9.4614
 2.4760	 9.5737
 2.4750	 9.6594
 2.4740	 9.7511
 2.4730	 9.6886
 2.4720	 9.7306
 2.4710	 9.8188
 2.4700	 9.8484
 2.4690	 9.7962
 2.4680	 9.9840
 2.4670	 9.9791
 2.4660	10.0546
 2.4650	10.0613
 2.4640	10.1758
 2.4630	10.1352
 2.4620	10.2334
 2.4610	10.1615
 2.4600	10.3154
 2.4590	10.2383
 2.4580	10.3280
 2.4570	10.3372
 2.4560	10.4578
 2.4550	10.5671
 2.4540	10.5014
 2.4530	10.5585
 2.4520	10.5367
 2.4510	10.6461
 2.4500	10.7561
 2.4490	10.7232
 2.4480	10.8925
 2.4470	10.7975
 2.4460	10.9683
 2.4450	10.8914
 2.4440	11.1943
 2.4430	11.0875
 2.4420	11.2622
 2.4410	11.2909
 2.4400	11.3880
 2.4390	11.3279
 2.4380	11.4337
 2.4370	11.3508
 2.4360	11.5730
 2.4350	11.6346
 2.4340	11.7632
 2.4330	11.7048
 2.4320	11.8877
 2.4310	11.8743
 2.4300	12.0197
 2.4290	12.1702
 2.4280	12.1944
 2.4270	12.2906
 2.4260	12.3653
 2.4250	12.4259
 2.4240	12.5904
 2.4230	12.6314
 2.4220	12.7515
 2.4210	12.8437
 2.4200	13.0459
 2.4190	13.1434
 2.4180	13.2442
 2.4170	13.3231
 2.4160	13.4857
 2.4150	13.6025
 2.4140	13.8336
 2.4130	13.8947
 2.4120	14.0696
 2.4110	14.2330
 2.4100	14.4377
 2.4090	14.5312
 2.4080	14.6841
 2.4070	14.8212
 2.4060	15.0664
 2.4050	15.1814
 2.4040	15.4250
 2.4030	15.5614
 2.4020	15.7328
 2.4010	15.8696
 2.4000	16.1073
 2.3990	16.3309
 2.3980	16.5658
 2.3970	16.7035
 2.3960	16.8430
 2.3950	17.0860
 2.3940	17.3778
 2.3930	17.5487
 2.3920	17.8180
 2.3910	18.0480
 2.3900	18.2227
 2.3890	18.4538
 2.3880	18.7304
 2.3870	18.9957
 2.3860	19.2273
 2.3850	19.4101
 2.3840	19.6334
 2.3830	19.9428
 2.3820	20.2282
 2.3810	20.4411
 2.3800	20.7214
 2.3790	20.9883
 2.3780	21.2763
 2.3770	21.5030
 2.3760	21.8186
 2.3750	22.0663
 2.3740	22.3189
 2.3730	22.5941
 2.3720	22.9067
 2.3710	23.1638
 2.3700	23.4028
 2.3690	23.6479
 2.3680	23.9723
 2.3670	24.2071
 2.3660	24.4609
 2.3650	24.7312
 2.3640	24.9732
 2.3630	25.2266
 2.3620	25.5553
 2.3610	25.8681
 2.3600	26.1018
 2.3590	26.3570
 2.3580	26.6219
 2.3570	26.8829
 2.3560	27.1771
 2.3550	27.4415
 2.3540	27.6820
 2.3530	27.9263
 2.3520	28.1942
 2.3510	28.4261
 2.3500	28.6740
 2.3490	28.9698
 2.3480	29.1839
 2.3470	29.4337
 2.3460	29.7435
 2.3450	29.9385
 2.3440	30.1442
 2.3430	30.4283
 2.3420	30.6356
 2.3410	30.8869
 2.3400	31.0950
 2.3390	31.3130
 2.3380	31.5588
 2.3370	31.8276
 2.3360	32.0668
 2.3350	32.2760
 2.3340	32.4547
 2.3330	32.6935
 2.3320	32.9118
 2.3310	33.1255
 2.3300	33.3214
 2.3290	33.5026
 2.3280	33.6987
 2.3270	33.9009
 2.3260	34.0612
 2.3250	34.2278
 2.3240	34.4127
 2.3230	34.6312
 2.3220	34.8189
 2.3210	35.0290
 2.3200	35.2290
 2.3190	35.4330
 2.3180	35.5652
 2.3170	35.7053
 2.3160	35.8801
 2.3150	36.0655
 2.3140	36.2060
 2.3130	36.3724
 2.3120	36.5364
 2.3110	36.7483
 2.3100	36.9043
 2.3090	37.0132
 2.3080	37.1537
 2.3070	37.3627
 2.3060	37.5355
 2.3050	37.6701
 2.3040	37.7689
 2.3030	37.9305
 2.3020	38.0415
 2.3010	38.2149
 2.3000	38.3312
 2.2990	38.5398
 2.2980	38.6410
 2.2970	38.7959
 2.2960	38.8953
 2.2950	39.0369
 2.2940	39.0827
 2.2930	39.2097
 2.2920	39.3122
 2.2910	39.4683
 2.2900	39.6046
 2.2890	39.6887
 2.2880	39.8065
 2.2870	39.9257
 2.2860	40.0497
 2.2850	40.1587
 2.2840	40.2194
 2.2830	40.3490
 2.2820	40.4330
 2.2810	40.5646
 2.2800	40.5716
 2.2790	40.7167
 2.2780	40.7749
 2.2770	40.9762
 2.2760	40.9850
 2.2750	41.1262
 2.2740	41.1834
 2.2730	41.2570
 2.2720	41.3150
 2.2710	41.4345
 2.2700	41.4988
 2.2690	41.6231
 2.2680	41.6591
 2.2670	41.7888
 2.2660	41.8041
 2.2650	41.9062
 2.2640	41.9785
 2.2630	42.0310
 2.2620	42.0972
 2.2610	42.2359
 2.2600	42.2412
 2.2590	42.3440
 2.2580	42.3270
 2.2570	42.4450
 2.2560	42.4297
 2.2550	42.6343
 2.2540	42.5896
 2.2530	42.6483
 2.2520	42.7056
 2.2510	42.7492
 2.2500	42.8365
 2.2490	42.9253
 2.2480	42.8404
 2.2470	42.9344
 2.2460	43.0268
 2.2450	43.0673
 2.2440	43.1362
 2.2430	43.1480
 2.2420	43.1915
 2.2410	43.1951
 2.2400	43.2275
 2.2390	43.2441
 2.2380	43.2774
 2.2370	43.3720
 2.2360	43.4279
 2.2350	43.4905
 2.2340	43.4274
 2.2330	43.4908
 2.2320	43.4922
 2.2310	43.5381
 2.2300	43.5367
 2.2290	43.6271
 2.2280	43.6335
 2.2270	43.6696
 2.2260	43.6344
 2.2250	43.6836
 2.2240	43.7344
 2.2230	43.8089
 2.2220	43.7540
 2.2210	43.7843
 2.2200	43.7695
 2.2190	43.8539
 2.2180	43.7053
 2.2170	43.8006
 2.2160	43.8496
 2.2150	43.8920
 2.2140	43.8240
 2.2130	43.9949
 2.2120	43.8924
 2.2110	43.9239
 2.2100	44.0108
 2.2090	44.0443
 2.2080	43.9529
 2.2070	44.0943
 2.2060	44.0167
 2.2050	44.0683
 2.2040	44.0255
 2.2030	44.1440
 2.2020	44.1166
 2.2010	44.1171
 2.2000	44.1109
 2.1990	44.1923
 2.1980	44.1919
 2.1970	44.1677
 2.1960	44.1829
 2.1950	44.1662
 2.1940	44.1602
 2.1930	44.2015
 2.1920	44.1646
 2.1910	44.1868
 2.1900	44.1540
 2.1890	44.2190
 2.1880	44.1938
 2.1870	44.1655
 2.1860	44.1718
 2.1850	44.1781
 2.1840	44.2439
 2.1830	44.2955
 2.1820	44.1956
 2.1810	44.2583
 2.1800	44.1972
 2.1790	44.2334
 2.1780	44.1727
 2.1770	44.2803
 2.1760	44.2472
 2.1750	44.2799
 2.1740	44.2356
 2.1730	44.1787
 2.1720	44.2519
 2.1710	44.2550
 2.1700	44.2369
 2.1690	44.3041
 2.1680	44.2806
 2.1670	44.3188
 2.1660	44.2474
 2.1650	44.2837
 2.1640	44.2252
 2.1630	44.2595
 2.1620	44.2003
 2.1610	44.1698
 2.1600	44.2283
 2.1590	44.2126
 2.1580	44.1568
 2.1570	44.1956
 2.1560	44.1860
 2.1550	44.1582
 2.1540	44.1073
 2.1530	44.1782
 2.1520	44.0773
 2.1510	44.0939
 2.1500	43.9992
 2.1490	43.9258
 2.1480	43.9880
 2.1470	43.9514
 2.1460	43.8784
 2.1450	43.8632
 2.1440	43.8425
 2.1430	43.8429
 2.1420	43.7666
 2.1410	43.7335
 2.1400	43.6795
 2.1390	43.6809
 2.1380	43.5869
 2.1370	43.5983
 2.1360	43.5309
 2.1350	43.4847
 2.1340	43.3818
 2.1330	43.3562
 2.1320	43.3116
 2.1310	43.2577
 2.1300	43.1504
 2.1290	43.1574
 2.1280	43.0673
 2.1270	43.0054
 2.1260	42.9260
 2.1250	42.8460
 2.1240	42.7853
 2.1230	42.7432
 2.1220	42.6467
 2.1210	42.5798
 2.1200	42.4633
 2.1190	42.3988
 2.1180	42.3738
 2.1170	42.3050
 2.1160	42.1898
 2.1150	42.1315
 2.1140	42.0711
 2.1130	41.9335
 2.1120	41.8378
 2.1110	41.7566
 2.1100	41.6610
 2.1090	41.6480
 2.1080	41.5205
 2.1070	41.3994
 2.1060	41.3072
 2.1050	41.2381
 2.1040	41.1658
 2.1030	41.0788
 2.1020	40.9972
 2.1010	40.9534
 2.1000	40.8156
 2.0990	40.7254
 2.0980	40.6623
 2.0970	40.5829
 2.0960	40.5445
 2.0950	40.4844
 2.0940	40.3943
 2.0930	40.3907
 2.0920	40.3716
 2.0910	40.2793
 2.0900	40.2018
 2.0890	40.1700
 2.0880	40.0908
 2.0870	40.0588
 2.0860	40.0173
 2.0850	39.9841
 2.0840	39.9159
 2.0830	39.8159
 2.0820	39.8226
 2.0810	39.7879
 2.0800	39.6863
 2.0790	39.6179
 2.0780	39.5836
 2.0770	39.5772
 2.0760	39.5360
 2.0750	39.5123
 2.0740	39.4430
 2.0730	39.3898
 2.0720	39.3464
 2.0710	39.3195
 2.0700	39.2689
 2.0690	39.1766
 2.0680	39.1749
 2.0670	39.1046
 2.0660	38.9943
 2.0650	38.9625
 2.0640	38.8943
 2.0630	38.8442
 2.0620	38.7957
 2.0610	38.7095
 2.0600	38.6137
 2.0590	38.5326
 2.0580	38.4506
 2.0570	38.3348
 2.0560	38.2340
 2.0550	38.1214
 2.0540	38.0370
 2.0530	37.9189
 2.0520	37.8036
 2.0510	37.6625
 2.0500	37.5350
 2.0490	37.4134
 2.0480	37.3103
 2.0470	37.1598
 2.0460	36.9923
 2.0450	36.8517
 2.0440	36.7436
 2.0430	36.5721
 2.0420	36.4231
 2.0410	36.3104
 2.0400	36.1549
 2.0390	35.9948
 2.0380	35.8463
 2.0370	35.5757
 2.0360	35.4053
 2.0350	35.1810
 2.0340	35.0795
 2.0330	34.8778
 2.0320	34.6944
 2.0310	34.4293
 2.0300	34.2525
 2.0290	33.9831
 2.0280	33.7711
 2.0270	33.5242
 2.0260	33.2848
 2.0250	33.0896
 2.0240	32.8368
 2.0230	32.5545
 2.0220	32.3601
 2.0210	32.0674
 2.0200	31.8536
 2.0190	31.5442
 2.0180	31.2813
 2.0170	31.0055
 2.0160	30.7488
 2.0150	30.5164
 2.0140	30.2262
 2.0130	29.9130
 2.0120	29.6504
 2.0110	29.3666
 2.0100	29.1523
 2.0090	28.8511
 2.0080	28.6474
 2.0070	28.3529
 2.0060	28.0657
 2.0050	27.7764
 2.0040	27.5388
 2.0030	27.2632
 2.0020	27.0165
 2.0010	26.7256
 2.0000	26.4575
 1.9990	26.2373
 1.9980	25.9725
 1.9970	25.7373
 1.9960	25.5336
 1.9950	25.2157
 1.9940	25.0004
 1.9930	24.7241
 1.9920	24.5167
 1.9910	24.2968
 1.9900	24.0342
 1.9890	23.7899
 1.9880	23.5752
 1.9870	23.3882
 1.9860	23.2074
 1.9850	22.9802
 1.9840	22.8184
 1.9830	22.6080
 1.9820	22.4260
 1.9810	22.1778
 1.9800	22.0525
 1.9790	21.8129
 1.9780	21.6976
 1.9770	21.4804
 1.9760	21.3558
 1.9750	21.1246
 1.9740	21.0306
 1.9730	20.8130
 1.9720	20.7219
 1.9710	20.4518
 1.9700	20.3358
 1.9690	20.1481
 1.9680	20.0824
 1.9670	19.8359
 1.9660	19.7022
 1.9650	19.5215
 1.9640	19.4828
 1.9630	19.2365
 1.9620	19.1277
 1.9610	18.8874
 1.9600	18.8091
 1.9590	18.5736
 1.9580	18.5465
 1.9570	18.2284
 1.9560	18.1274
 1.9550	17.9046
 1.9540	17.7049
 1.9530	17.4824
 1.9520	17.3689
 1.9510	17.0746
 1.9500	16.9757
 1.9490	16.6827
 1.9480	16.5474
 1.9470	16.2159
 1.9460	16.1512
 1.9450	15.7758
 1.9440	15.6560
 1.9430	15.3173
 1.9420	15.1811
 1.9410	14.7545
 1.9400	14.6564
 1.9390	14.2368
 1.9380	14.0660
 1.9370	13.7493
 1.9360	13.4880
 1.9350	13.1185
 1.9340	12.9118
 1.9330	12.5207
 1.9320	12.3027
 1.9310	11.9582
 1.9300	11.7233
 1.9290	11.3602
 1.9280	11.0926
 1.9270	10.8416
 1.9260	10.3905
 1.9250	10.3259
 1.9240	10.0669
 1.9230	 9.6982
 1.9220	 9.5462
 1.9210	 9.2978
 1.9200	 9.2167
 1.9190	 8.9681
 1.9180	 8.9315
 1.9170	 8.7934
 1.9160	 8.7254
 1.9150	 8.6175
 1.9140	 8.7923
 1.9130	 8.7379
 1.9120	 8.8249
 1.9110	 8.9156
 1.9100	 9.2916
 1.9090	 9.3173
 1.9080	 9.7613
 1.9070	10.0286
 1.9060	10.5286
 1.9050	11.0571
 1.9040	11.8268
 1.9030	12.4712
 1.9020	13.2492
 1.9010	14.1298
 1.9000	15.1697
 1.8990	16.1047
 1.8980	17.0604
 1.8970	18.0789
 1.8960	19.2621
 1.8950	20.3565
 1.8940	21.4535
 1.8930	22.5731
 1.8920	23.7902
 1.8910	24.9020
 1.8900	26.1633
 1.8890	27.2315
 1.8880	28.4394
 1.8870	29.4458
 1.8860	30.5666
 1.8850	31.4729
 1.8840	32.6631
 1.8830	33.4888
 1.8820	34.4890
 1.8810	35.3151
 1.8800	36.2181
 1.8790	36.9653
 1.8780	37.8309
 1.8770	38.4857
 1.8760	39.2459
 1.8750	39.9213
 1.8740	40.7205
 1.8730	41.4468
 1.8720	42.2727
 1.8710	42.9883
 1.8700	43.6958
 1.8690	44.2858
 1.8680	44.9228
 1.8670	45.4277
 1.8660	45.9784
 1.8650	46.4242
 1.8640	46.9108
 1.8630	47.2500
 1.8620	47.7242
 1.8610	48.0328
 1.8600	48.4414
 1.8590	48.7661
 1.8580	49.1531
 1.8570	49.5084
 1.8560	49.8758
 1.8550	50.0824
 1.8540	50.4283
 1.8530	50.7127
 1.8520	51.0698
 1.8510	51.2929
 1.8500	51.5027
 1.8490	51.7556
 1.8480	51.9669
 1.8470	52.1479
 1.8460	52.3797
 1.8450	52.5929
 1.8440	52.7995
 1.8430	52.8934
 1.8420	53.0711
 1.8410	53.2475
 1.8400	53.4654
 1.8390	53.5320
 1.8380	53.6588
 1.8370	53.8118
 1.8360	53.9632
 1.8350	54.0632
 1.8340	54.1799
 1.8330	54.2855
 1.8320	54.4174
 1.8310	54.5423
 1.8300	54.6002
 1.8290	54.7301
 1.8280	54.7387
 1.8270	54.8007
 1.8260	54.9360
 1.8250	54.9800
 1.8240	55.0668
 1.8230	55.0769
 1.8220	55.1396
 1.8210	55.1433
 1.8200	55.2421
 1.8190	55.3774
 1.8180	55.4065
 1.8170	55.3958
 1.8160	55.4741
 1.8150	55.5476
 1.8140	55.5739
 1.8130	55.6087
 1.8120	55.6764
 1.8110	55.6871
 1.8100	55.7401
 1.8090	55.8083
 1.8080	55.8821
 1.8070	55.9016
 1.8060	55.9040
 1.8050	56.0029
 1.8040	56.0822
 1.8030	56.1035
 1.8020	56.1383
 1.8010	56.1752
 1.8000	56.2104
 1.7990	56.2436
 1.7980	56.2926
 1.7970	56.3191
 1.7960	56.3816
 1.7950	56.4288
 1.7940	56.4660
 1.7930	56.5018
 1.7920	56.5410
 1.7910	56.5863
 1.7900	56.6339
 1.7890	56.6877
 1.7880	56.7275
 1.7870	56.7296
 1.7860	56.7750
 1.7850	56.8248
 1.7840	56.8337
 1.7830	56.9015
 1.7820	56.9343
 1.7810	56.9158
 1.7800	56.9767
 1.7790	57.0194
 1.7780	57.0362
 1.7770	57.0755
 1.7760	57.0828
 1.7750	57.1195
 1.7740	57.1431
 1.7730	57.2225
 1.7720	57.2962
 1.7710	57.2780
 1.7700	57.2666
 1.7690	57.2893
 1.7680	57.3320
 1.7670	57.3743
 1.7660	57.4338
 1.7650	57.4506
 1.7640	57.4641
 1.7630	57.5375
 1.7620	57.5330
 1.7610	57.5850
 1.7600	57.6475
 1.7590	57.6865
 1.7580	57.7368
 1.7570	57.8314
 1.7560	57.7957
 1.7550	57.8793
 1.7540	57.9848
 1.7530	58.0045
 1.7520	58.0530
 1.7510	58.1278
 1.7500	58.1566
 1.7490	58.2384
 1.7480	58.3569
 1.7470	58.4355
 1.7460	58.4674
 1.7450	58.5786
 1.7440	58.6963
 1.7430	58.8708
 1.7420	58.9342
 1.7410	59.0486
 1.7400	59.1518
 1.7390	59.2625
 1.7380	59.3808
 1.7370	59.5239
 1.7360	59.6335
 1.7350	59.7823
 1.7340	59.9343
 1.7330	60.0925
 1.7320	60.2283
 1.7310	60.3108
 1.7300	60.4756
 1.7290	60.6744
 1.7280	60.8389
 1.7270	60.9791
 1.7260	61.1274
 1.7250	61.3394
 1.7240	61.4201
 1.7230	61.5075
 1.7220	61.6774
 1.7210	61.8564
 1.7200	62.0361
 1.7190	62.2291
 1.7180	62.3522
 1.7170	62.4251
 1.7160	62.5702
 1.7150	62.6734
 1.7140	62.8200
 1.7130	62.9458
 1.7120	63.0059
 1.7110	63.2316
 1.7100	63.2819
 1.7090	63.3506
 1.7080	63.4269
 1.7070	63.5571
 1.7060	63.6355
 1.7050	63.8011
 1.7040	63.8600
 1.7030	63.8638
 1.7020	63.9035
 1.7010	64.0115
 1.7000	64.0499
 1.6990	64.1182
 1.6980	64.2399
 1.6970	64.2295
 1.6960	64.1852
 1.6950	64.2927
 1.6940	64.3234
 1.6930	64.4086
 1.6920	64.4147
 1.6910	64.4153
 1.6900	64.4536
 1.6890	64.5263
 1.6880	64.4444
 1.6870	64.5345
 1.6860	64.5173
 1.6850	64.5549
 1.6840	64.4706
 1.6830	64.4819
 1.6820	64.4983
 1.6810	64.4937
 1.6800	64.4298
 1.6790	64.4817
 1.6780	64.4726
 1.6770	64.4753
 1.6760	64.4380
 1.6750	64.4713
 1.6740	64.4370
 1.6730	64.4236
 1.6720	64.4754
 1.6710	64.4211
 1.6700	64.3526
 1.6690	64.4436
 1.6680	64.3270
 1.6670	64.3285
 1.6660	64.3073
 1.6650	64.3459
 1.6640	64.2585
 1.6630	64.2896
 1.6620	64.1379
 1.6610	64.1498
 1.6600	64.1062
 1.6590	64.1348
 1.6580	64.0817
 1.6570	64.0926
 1.6560	64.1384
 1.6550	64.0772
 1.6540	63.9350
 1.6530	63.9565
 1.6520	63.9429
 1.6510	63.9104
 1.6500	63.8701
 1.6490	63.8365
 1.6480	63.6704
 1.6470	63.7833
 1.6460	63.7678
 1.6450	63.6785
 1.6440	63.6170
 1.6430	63.6435
 1.6420	63.6398
 1.6410	63.4591
 1.6400	63.5737
 1.6390	63.4488
 1.6380	63.4132
 1.6370	63.3848
 1.6360	63.3269
 1.6350	63.3648
 1.6340	63.3327
 1.6330	63.2638
 1.6320	63.3240
 1.6310	63.2127
 1.6300	63.1586
 1.6290	63.1832
 1.6280	63.0756
 1.6270	63.0504
 1.6260	63.0799
 1.6250	63.0127
 1.6240	62.9689
 1.6230	62.9370
 1.6220	62.8739
 1.6210	62.8706
 1.6200	62.9308
 1.6190	62.8140
 1.6180	62.8279
 1.6170	62.7830
 1.6160	62.7011
 1.6150	62.6966
 1.6140	62.7029
 1.6130	62.6292
 1.6120	62.6065
 1.6110	62.6333
 1.6100	62.6187
 1.6090	62.4937
 1.6080	62.5256
 1.6070	62.4931
 1.6060	62.4704
 1.6050	62.5145
 1.6040	62.4516
 1.6030	62.4288
 1.6020	62.3579
 1.6010	62.4591
 1.6000	62.3286
 1.5990	62.3110
 1.5980	62.3234
 1.5970	62.3252
 1.5960	62.2287
 1.5950	62.2980
 1.5940	62.2863
 1.5930	62.2321
 1.5920	62.1578
 1.5910	62.2327
 1.5900	62.1334
 1.5890	62.0826
 1.5880	62.1223
 1.5870	62.1324
 1.5860	62.1037
 1.5850	62.0328
 1.5840	62.0151
 1.5830	61.9460
 1.5820	62.0007
 1.5810	62.0091
 1.5800	61.8804
 1.5790	61.9217
 1.5780	61.8342
 1.5770	61.8828
 1.5760	61.8065
 1.5750	61.8130
 1.5740	61.6986
 1.5730	61.6713
 1.5720	61.6999
 1.5710	61.7077
 1.5700	61.6818
 1.5690	61.6450
 1.5680	61.6204
 1.5670	61.5673
 1.5660	61.5629
 1.5650	61.5771
 1.5640	61.4851
 1.5630	61.4639
 1.5620	61.4557
 1.5610	61.3773
 1.5600	61.3355
 1.5590	61.3190
 1.5580	61.2938
 1.5570	61.2463
 1.5560	61.1774
 1.5550	61.1733
 1.5540	61.1255
 1.5530	61.0947
 1.5520	61.0324
 1.5510	60.9951
 1.5500	60.9629
 1.5490	60.9111
 1.5480	60.7872
 1.5470	60.7882
 1.5460	60.7694
 1.5450	60.7111
 1.5440	60.6747
 1.5430	60.5958
 1.5420	60.5336
 1.5410	60.4496
 1.5400	60.3837
 1.5390	60.3296
 1.5380	60.1796
 1.5370	60.0464
 1.5360	60.0184
 1.5350	60.0172
 1.5340	59.9074
 1.5330	59.8015
 1.5320	59.7468
 1.5310	59.6631
 1.5300	59.5657
 1.5290	59.4773
 1.5280	59.3685
 1.5270	59.2516
 1.5260	59.1248
 1.5250	59.0103
 1.5240	58.8227
 1.5230	58.8035
 1.5220	58.7203
 1.5210	58.5941
 1.5200	58.4526
 1.5190	58.3226
 1.5180	58.1625
 1.5170	57.9868
 1.5160	57.8553
 1.5150	57.7009
 1.5140	57.5280
 1.5130	57.3768
 1.5120	57.2111
 1.5110	57.0117
 1.5100	56.8938
 1.5090	56.7082
 1.5080	56.4373
 1.5070	56.2451
 1.5060	56.0533
 1.5050	55.8412
 1.5040	55.6184
 1.5030	55.3776
 1.5020	55.1136
 1.5010	54.8631
 1.5000	54.6294
 1.4990	54.3797
 1.4980	54.1271
 1.4970	53.8731
 1.4960	53.5850
 1.4950	53.2816
 1.4940	52.9909
 1.4930	52.7130
 1.4920	52.4520
 1.4910	52.1222
 1.4900	51.8033
 1.4890	51.4786
 1.4880	51.1810
 1.4870	50.7699
 1.4860	50.3990
 1.4850	50.0220
 1.4840	49.6424
 1.4830	49.2717
 1.4820	48.8737
 1.4810	48.4460
 1.4800	47.9696
 1.4790	47.5168
 1.4780	47.1436
 1.4770	46.7272
 1.4760	46.2964
 1.4750	45.8882
 1.4740	45.5451
 1.4730	45.1754
 1.4720	44.8366
 1.4710	44.6097
 1.4700	44.3840
 1.4690	44.2354
 1.4680	44.1929
 1.4670	44.1508
 1.4660	44.1821
 1.4650	44.2415
 1.4640	44.2558
 1.4630	44.3303
 1.4620	44.3540
 1.4610	44.3531
 1.4600	44.3983
 1.4590	44.3043
 1.4580	44.2242
 1.4570	44.1289
 1.4560	43.9435
 1.4550	43.7153
 1.4540	43.5251
 1.4530	43.2770
 1.4520	42.9907
 1.4510	42.6250
 1.4500	42.3013
 1.4490	42.0017
 1.4480	41.6249
 1.4470	41.2416
 1.4460	40.9068
 1.4450	40.4800
 1.4440	40.0783
 1.4430	39.6461
 1.4420	39.3096
 1.4410	38.8211
 1.4400	38.4645
 1.4390	38.0741
 1.4380	37.7012
 1.4370	37.2680
 1.4360	37.0093
 1.4350	36.6185
 1.4340	36.3215
 1.4330	35.9384
 1.4320	35.6022
 1.4310	35.3065
 1.4300	35.0696
 1.4290	34.8051
 1.4280	34.6543
 1.4270	34.4067
 1.4260	34.2707
 1.4250	34.1153
 1.4240	34.0883
 1.4230	34.0118
 1.4220	34.0560
 1.4210	34.1589
 1.4200	34.2641
 1.4190	34.3192
 1.4180	34.6014
 1.4170	34.8414
 1.4160	35.2176
 1.4150	35.6408
 1.4140	36.0937
 1.4130	36.5938
 1.4120	37.1528
 1.4110	37.7690
 1.4100	38.5158
 1.4090	39.1920
 1.4080	39.9883
 1.4070	40.7051
 1.4060	41.6826
 1.4050	42.6701
 1.4040	43.5601
 1.4030	44.3538
 1.4020	45.3479
 1.4010	46.3022
 1.4000	47.3159
 1.3990	48.1882
 1.3980	49.1714
 1.3970	50.0064
 1.3960	51.0114
 1.3950	51.9291
 1.3940	52.7338
 1.3930	53.5133
 1.3920	54.2688
 1.3910	55.1400
 1.3900	55.7805
 1.3890	56.3593
 1.3880	57.0458
 1.3870	57.7147
 1.3860	58.3104
 1.3850	58.9139
 1.3840	59.4944
 1.3830	60.0623
 1.3820	60.5420
 1.3810	61.0665
 1.3800	61.5705
 1.3790	62.0241
 1.3780	62.3191
 1.3770	62.6569
 1.3760	63.0858
 1.3750	63.3725
 1.3740	63.7325
 1.3730	64.0782
 1.3720	64.3354
 1.3710	64.6876
 1.3700	64.9332
 1.3690	65.2505
 1.3680	65.6051
 1.3670	65.8182
 1.3660	66.1225
 1.3650	66.3878
 1.3640	66.6560
 1.3630	66.8867
 1.3620	67.1441
 1.3610	67.4338
 1.3600	67.7697
 1.3590	67.9500
 1.3580	68.1638
 1.3570	68.4529
 1.3560	68.7367
 1.3550	68.9026
 1.3540	69.2976
 1.3530	69.4488
 1.3520	69.7138
 1.3510	69.9644
 1.3500	70.2092
 1.3490	70.3906
 1.3480	70.5585
 1.3470	70.7993
 1.3460	71.1138
 1.3450	71.3202
 1.3440	71.5756
 1.3430	71.6485
 1.3420	71.9349
 1.3410	72.1493
 1.3400	72.4133
 1.3390	72.5203
 1.3380	72.6885
 1.3370	72.9180
 1.3360	73.1464
 1.3350	73.3799
 1.3340	73.5418
 1.3330	73.7159
 1.3320	73.9359
 1.3310	74.1568
 1.3300	74.3291
 1.3290	74.5725
 1.3280	74.8761
 1.3270	75.0380
 1.3260	75.2718
 1.3250	75.5086
 1.3240	75.7119
 1.3230	75.9532
 1.3220	76.1716
 1.3210	76.4110
 1.3200	76.6145
 1.3190	76.8548
 1.3180	77.0431
 1.3170	77.3394
 1.3160	77.5353
 1.3150	77.7392
 1.3140	77.8611
 1.3130	78.0319
 1.3120	78.2787
 1.3110	78.3704
 1.3100	78.6491
 1.3090	78.8144
 1.3080	78.9616
 1.3070	79.1500
 1.3060	79.2615
 1.3050	79.4212
 1.3040	79.5931
 1.3030	79.6510
 1.3020	79.8538
 1.3010	79.9546
 1.3000	80.1021
 1.2990	80.1767
 1.2980	80.3147
 1.2970	80.4519
 1.2960	80.5214
 1.2950	80.4717
 1.2940	80.5993
 1.2930	80.7534
 1.2920	80.7626
 1.2910	80.8116
 1.2900	80.9438
 1.2890	80.9965
 1.2880	81.0410
 1.2870	81.1755
 1.2860	81.1921
 1.2850	81.2103
 1.2840	81.3387
 1.2830	81.2795
 1.2820	81.3265
 1.2810	81.3424
 1.2800	81.4596
 1.2790	81.5064
 1.2780	81.6134
 1.2770	81.6520
 1.2760	81.5761
 1.2750	81.6273
 1.2740	81.5979
 1.2730	81.6285
 1.2720	81.6575
 1.2710	81.7119
 1.2700	81.7285
 1.2690	81.7304
 1.2680	81.7043
 1.2670	81.7480
 1.2660	81.7944
 1.2650	81.7588
 1.2640	81.7689
 1.2630	81.8150
 1.2620	81.8273
 1.2610	81.7705
 1.2600	81.7258
 1.2590	81.6860
 1.2580	81.7192
 1.2570	81.6991
 1.2560	81.6996
 1.2550	81.7141
 1.2540	81.7432
 1.2530	81.7273
 1.2520	81.6352
 1.2510	81.6058
 1.2500	81.6134
 1.2490	81.6313
 1.2480	81.6213
 1.2470	81.5938
 1.2460	81.5836
 1.2450	81.5663
 1.2440	81.4777
 1.2430	81.4492
 1.2420	81.4519
 1.2410	81.3924
 1.2400	81.3787
 1.2390	81.4118
 1.2380	81.3829
 1.2370	81.3340
 1.2360	81.2555
 1.2350	81.2258
 1.2340	81.3078
 1.2330	81.2725
 1.2320	81.2110
 1.2310	81.1982
 1.2300	81.1970
 1.2290	81.1461
 1.2280	81.0797
 1.2270	81.0134
 1.2260	80.9361
 1.2250	80.9774
 1.2240	80.9409
 1.2230	80.8273
 1.2220	80.8224
 1.2210	80.7857
 1.2200	80.7225
 1.2190	80.6906
 1.2180	80.6556
 1.2170	80.6123
 1.2160	80.5929
 1.2150	80.4901
 1.2140	80.3910
 1.2130	80.3449
 1.2120	80.2647
 1.2110	80.1692
 1.2100	80.0940
 1.2090	80.0864
 1.2080	80.0058
 1.2070	79.8927
 1.2060	79.8211
 1.2050	79.7833
 1.2040	79.7161
 1.2030	79.6070
 1.2020	79.5023
 1.2010	79.4681
 1.2000	79.4107
 1.1990	79.3090
 1.1980	79.2527
 1.1970	79.1361
 1.1960	79.0702
 1.1950	79.0556
 1.1940	79.0196
 1.1930	79.0322
 1.1920	78.9510
 1.1910	78.9663
 1.1900	78.9399
 1.1890	78.8507
 1.1880	78.8339
 1.1870	78.7433
 1.1860	78.6920
 1.1850	78.5825
 1.1840	78.4502
 1.1830	78.3110
 1.1820	78.1607
 1.1810	78.0375
 1.1800	77.8560
 1.1790	77.6644
 1.1780	77.4859
 1.1770	77.2668
 1.1760	77.0810
 1.1750	76.8274
 1.1740	76.6466
 1.1730	76.4193
 1.1720	76.1797
 1.1710	76.0079
 1.1700	75.7973
 1.1690	75.6178
 1.1680	75.3073
 1.1670	75.1036
 1.1660	74.9638
 1.1650	74.7362
 1.1640	74.6262
 1.1630	74.6054
 1.1620	74.5808
 1.1610	74.5462
 1.1600	74.6031
 1.1590	74.6972
 1.1580	74.8112
 1.1570	75.0468
 1.1560	75.3365
 1.1550	75.6401
 1.1540	76.0892
 1.1530	76.6085
 1.1520	77.5777
 1.1510	77.8364
 1.1500	78.1349
 1.1490	78.6745
 1.1480	79.2407
 1.1470	79.8178
 1.1460	80.3270
 1.1450	80.7967
 1.1440	81.1859
 1.1430	81.6687
 1.1420	82.0724
 1.1410	82.4867
 1.1400	82.7840
 1.1390	83.0264
 1.1380	83.2850
 1.1370	83.5903
 1.1360	83.8632
 1.1350	84.1232
 1.1340	84.1833
 1.1330	84.4714
 1.1320	84.6235
 1.1310	84.7442
 1.1300	84.8357
 1.1290	84.9229
 1.1280	85.0577
 1.1270	85.0745
 1.1260	85.1815
 1.1250	85.3139
 1.1240	85.4165
 1.1230	85.4264
 1.1220	85.4147
 1.1210	85.6053
 1.1200	85.5805
 1.1190	85.6159
 1.1180	85.7439
 1.1170	85.7118
 1.1160	85.8613
 1.1150	85.8696
 1.1140	85.9698
 1.1130	86.1315
 1.1120	86.0608
 1.1110	86.0982
 1.1100	86.1372
 1.1090	86.1511
 1.1080	86.1864
 1.1070	86.2958
 1.1060	86.2984
 1.1050	86.2688
 1.1040	86.3696
 1.1030	86.3104
 1.1020	86.3487
 1.1010	86.4021
 1.1000	86.4659
 1.0990	86.4863
 1.0980	86.5625
 1.0970	86.5865
 1.0960	86.6319
 1.0950	86.6142
 1.0940	86.6065
 1.0930	86.6907
 1.0920	86.6894
 1.0910	86.7127
 1.0900	86.7312
 1.0890	86.7056
 1.0880	86.7879
 1.0870	86.8732
 1.0860	86.8623
 1.0850	86.8017
 1.0840	86.8620
 1.0830	86.7999
 1.0820	86.7907
 1.0810	86.8975
 1.0800	86.9682
 1.0790	86.9534
 1.0780	86.9136
 1.0770	86.9054
 1.0760	86.9811
 1.0750	86.9048
 1.0740	87.0443
 1.0730	86.9287
 1.0720	87.0126
 1.0710	87.0070
 1.0700	86.9962
 1.0690	86.9974
 1.0680	87.0440
 1.0670	86.8797
 1.0660	86.9768
 1.0650	87.0268
 1.0640	86.9961
 1.0630	87.0231
 1.0620	86.9582
 1.0610	86.9291
 1.0600	86.9794
 1.0590	87.0251
 1.0580	86.9513
 1.0570	86.9715
 1.0560	86.9102
 1.0550	86.9656
 1.0540	86.9536
 1.0530	86.8825
 1.0520	86.8561
 1.0510	86.9384
 1.0500	86.8364
 1.0490	86.9149
 1.0480	86.8474
 1.0470	86.7444
 1.0460	86.7552
 1.0450	86.7510
 1.0440	86.6832
 1.0430	86.6560
 1.0420	86.6596
 1.0410	86.6217
 1.0400	86.6775
 1.0390	86.6629
 1.0380	86.6301
 1.0370	86.6628
 1.0360	86.4972
 1.0350	86.4933
 1.0340	86.5242
 1.0330	86.3925
 1.0320	86.4585
 1.0310	86.3678
 1.0300	86.3611
 1.0290	86.2713
 1.0280	86.3352
 1.0270	86.1962
 1.0260	86.1634
 1.0250	86.2225
 1.0240	86.0444
 1.0230	86.0017
 1.0220	85.9355
 1.0210	85.9451
 1.0200	85.8534
 1.0190	85.8774
 1.0180	85.7830
 1.0170	85.7490
 1.0160	85.6175
 1.0150	85.5606
 1.0140	85.4617
 1.0130	85.4681
 1.0120	85.4263
 1.0110	85.2448
 1.0100	85.1456
 1.0090	85.0505
 1.0080	85.0189
 1.0070	84.9362
 1.0060	84.8710
 1.0050	84.7564
 1.0040	84.6752
 1.0030	84.6149
 1.0020	84.4354
 1.0010	84.3299
 1.0000	84.2211
 0.9990	84.1471
 0.9980	84.0356
 0.9970	83.9472
 0.9960	83.7628
 0.9950	83.6629
 0.9940	83.4974
 0.9930	83.4164
 0.9920	83.2556
 0.9910	83.1877
 0.9900	83.0112
 0.9890	82.8533
 0.9880	82.7480
 0.9870	82.5857
 0.9860	82.4133
 0.9850	82.2578
 0.9840	82.1285
 0.9830	82.0264
 0.9820	81.8527
 0.9810	81.7841
 0.9800	81.7351
 0.9790	81.5819
 0.9780	81.5377
 0.9770	81.5231
 0.9760	81.3822
 0.9750	81.2813
 0.9740	81.1589
 0.9730	81.1468
 0.9720	81.1369
 0.9710	81.0857
 0.9700	81.0462
 0.9690	81.0234
 0.9680	81.0520
 0.9670	81.0803
 0.9660	81.1638
 0.9650	81.3227
 0.9640	81.4023
 0.9630	81.5277
 0.9620	81.7368
 0.9610	82.0386
 0.9600	82.2844
 0.9590	82.5923
 0.9580	82.7649
 0.9570	83.0068
 0.9560	83.2878
 0.9550	83.5369
 0.9540	83.8086
 0.9530	83.9668
 0.9520	84.1325
 0.9510	84.3547
 0.9500	84.5404
 0.9490	84.6563
 0.9480	84.7618
 0.9470	84.8491
 0.9460	84.9411
 0.9450	85.0654
 0.9440	85.2305
 0.9430	85.2606
 0.9420	85.2791
 0.9410	85.4767
 0.9400	85.6337
 0.9390	85.6824
 0.9380	85.7074
 0.9370	85.7861
 0.9360	85.8576
 0.9350	85.9692
 0.9340	86.0055
 0.9330	85.9927
 0.9320	86.1499
 0.9310	86.2272
 0.9300	86.2120
 0.9290	86.3051
 0.9280	86.4024
 0.9270	86.4076
 0.9260	86.4179
 0.9250	86.5085
 0.9240	86.5226
 0.9230	86.5472
 0.9220	86.5573
 0.9210	86.6396
 0.9200	86.6655
 0.9190	86.6550
 0.9180	86.6971
 0.9170	86.7444
 0.9160	86.7501
 0.9150	86.7225
 0.9140	86.7495
 0.9130	86.7873
 0.9120	86.8365
 0.9110	86.8739
 0.9100	86.8885
 0.9090	86.8848
 0.9080	86.8567
 0.9070	86.8211
 0.9060	86.8648
 0.9050	86.8866
 0.9040	86.8836
 0.9030	86.9193
 0.9020	86.9025
 0.9010	86.8960
 0.9000	86.8833
 0.8990	86.8884
 0.8980	86.8577
 0.8970	86.9261
 0.8960	86.9247
 0.8950	86.9126
 0.8940	86.9492
 0.8930	86.9771
 0.8920	86.9796
 0.8910	86.9801
 0.8900	86.9743
 0.8890	86.9097
 0.8880	86.9752
 0.8870	86.9974
 0.8860	87.0107
 0.8850	87.0904
 0.8840	87.0861
 0.8830	87.0084
 0.8820	86.9746
 0.8810	86.9865
 0.8800	86.9815
 0.8790	86.9687
 0.8780	86.9365
 0.8770	87.0195
 0.8760	87.0213
 0.8750	87.0065
 0.8740	86.9446
 0.8730	86.9072
 0.8720	86.9367
 0.8710	86.9135
 0.8700	86.9524
 0.8690	86.9110
 0.8680	86.8824
 0.8670	86.8651
 0.8660	86.9221
 0.8650	86.9651
 0.8640	86.9432
 0.8630	86.9161
 0.8620	86.9539
 0.8610	86.8119
 0.8600	86.9809
 0.8590	87.0317
 0.8580	86.9923
 0.8570	87.0155
 0.8560	86.9195
 0.8550	86.9408
 0.8540	86.9849
 0.8530	86.9720
 0.8520	86.8846
 0.8510	87.0565
 0.8500	86.9507
 0.8490	86.9014
 0.8480	86.9010
 0.8470	86.8886
 0.8460	86.8849
 0.8450	86.8879
 0.8440	86.8276
 0.8430	86.8244
 0.8420	86.8705
 0.8410	86.9382
 0.8400	86.8537
 0.8390	86.9080
 0.8380	86.9594
 0.8370	86.9012
 0.8360	86.9293
 0.8350	86.9596
 0.8340	87.0032
 0.8330	87.0492
 0.8320	87.0651
 0.8310	87.0525
 0.8300	87.0604
 0.8290	87.1316
 0.8280	87.1556
 0.8270	87.1094
 0.8260	87.1423
 0.8250	87.2140
 0.8240	87.1923
 0.8230	87.2184
 0.8220	87.1781
 0.8210	87.1898
 0.8200	87.2529
 0.8190	87.2401
 0.8180	87.1950
 0.8170	87.2123
 0.8160	87.2643
 0.8150	87.2266
 0.8140	87.2749
 0.8130	87.2571
 0.8120	87.2693
 0.8110	87.2463
 0.8100	87.2589
 0.8090	87.2101
 0.8080	87.2511
 0.8070	87.2408
 0.8060	87.2592
 0.8050	87.2450
 0.8040	87.2971
 0.8030	87.2608
 0.8020	87.3143
 0.8010	87.2753
 0.8000	87.2576
 0.7990	87.2751
 0.7980	87.2071
 0.7970	87.1956
 0.7960	87.2304
 0.7950	87.1941
 0.7940	87.1770
 0.7930	87.1829
 0.7920	87.2057
 0.7910	87.1983
 0.7900	87.1554
 0.7890	87.1627
 0.7880	87.1895
 0.7870	87.1279
 0.7860	87.1739
 0.7850	87.1519
 0.7840	87.1117
 0.7830	87.1698
 0.7820	87.1412
 0.7810	87.1172
 0.7800	87.0533
 0.7790	87.0725
 0.7780	87.1170
 0.7770	87.0201
 0.7760	87.0731
 0.7750	87.0723
 0.7740	87.0747
 0.7730	87.0600
 0.7720	87.0636
 0.7710	87.0219
 0.7700	87.0641
 0.7690	87.0042
 0.7680	87.0125
 0.7670	86.9998
 0.7660	86.9945
 0.7650	87.0134
 0.7640	86.9858
 0.7630	86.9833
 0.7620	86.9429
 0.7610	86.9729
 0.7600	86.9869
 0.7590	86.9389
 0.7580	86.9134
 0.7570	86.9429
 0.7560	86.9007
 0.7550	86.9027
 0.7540	86.9355
 0.7530	86.8429
 0.7520	86.8596
 0.7510	86.8603
 0.7500	86.8439
 0.7490	86.8226
 0.7480	86.8342
 0.7470	86.8358
 0.7460	86.7913
 0.7450	86.8324
 0.7440	86.8552
 0.7430	86.8178
 0.7420	86.7954
 0.7410	86.8263
 0.7400	86.8419
 0.7390	86.8113
 0.7380	86.8470
 0.7370	86.8562
 0.7360	86.8951
 0.7350	86.9408
 0.7340	86.9452
 0.7330	86.9316
 0.7320	86.9485
 0.7310	86.9569
 0.7300	86.9814
 0.7290	87.0052
 0.7280	87.0532
 0.7270	87.0312
 0.7260	87.0246
 0.7250	87.0358
 0.7240	87.0584
 0.7230	87.0539
 0.7220	87.0222
 0.7210	87.0207
 0.7200	87.0563
 0.7190	87.0311
 0.7180	87.0306
 0.7170	87.0353
 0.7160	87.0391
 0.7150	87.0503
 0.7140	87.0993
 0.7130	87.0822
 0.7120	87.0672
 0.7110	87.0641
 0.7100	87.0772
 0.7090	87.0737
 0.7080	87.0560
 0.7070	87.0617
 0.7060	87.0513
 0.7050	87.0583
 0.7040	87.0340
 0.7030	87.0386
 0.7020	87.0496
 0.7010	87.0387
 0.7000	87.0159
 0.6990	87.0382
 0.6980	87.0381
 0.6970	87.0181
 0.6960	87.0029
 0.6950	87.0066
 0.6940	87.0187
 0.6930	87.0238
 0.6920	87.0217
 0.6910	86.9935
 0.6900	86.9750
 0.6890	86.9760
 0.6880	86.9707
 0.6870	86.9850
 0.6860	86.9783
 0.6850	86.9674
 0.6840	86.9470
 0.6830	86.9543
 0.6820	86.9770
 0.6810	86.9546
 0.6800	86.9433
 0.6790	86.9342
 0.6780	86.8993
 0.6770	86.9053
 0.6760	86.9204
 0.6750	86.9041
 0.6740	86.8974
 0.6730	86.8918
 0.6720	86.8907
 0.6710	86.8804
 0.6700	86.8768
 0.6690	86.8693
 0.6680	86.8705
 0.6670	86.8638
 0.6660	86.8467
 0.6650	86.8450
 0.6640	86.8448
 0.6630	86.8495
 0.6620	86.8394
 0.6610	86.8392
 0.6600	86.8430
 0.6590	86.8328
 0.6580	86.8195
 0.6570	86.8179
 0.6560	86.8326
 0.6550	86.8210
 0.6540	86.8030
 0.6530	86.8020
 0.6520	86.7989
 0.6510	86.8021
 0.6500	86.7870
 0.6490	86.7831
 0.6480	86.7828
 0.6470	86.7795
 0.6460	86.7763
 0.6450	86.7656
 0.6440	86.7710
 0.6430	86.7622
 0.6420	86.7358
 0.6410	86.7334
 0.6400	86.7421
 0.6390	86.7272
 0.6380	86.7184
 0.6370	86.7126
 0.6360	86.7053
 0.6350	86.7068
 0.6340	86.7026
 0.6330	86.7033
 0.6320	86.6965
 0.6310	86.6914
 0.6300	86.6838
 0.6290	86.6825
 0.6280	86.6700
 0.6270	86.6526
 0.6260	86.6406
 0.6250	86.6343
 0.6240	86.6245
 0.6230	86.6245
 0.6220	86.6258
 0.6210	86.6166
 0.6200	86.6058
 0.6190	86.5881
 0.6180	86.5808
 0.6170	86.5714
 0.6160	86.5729
 0.6150	86.5766
 0.6140	86.5551
 0.6130	86.5324
 0.6120	86.5181
 0.6110	86.5089
 0.6100	86.5061
 0.6090	86.4875
 0.6080	86.4734
 0.6070	86.4574
 0.6060	86.4617
 0.6050	86.4640
 0.6040	86.4506
 0.6030	86.4553
 0.6020	86.4447
 0.6010	86.4281
 0.6000	86.4253
 0.5990	86.4214
 0.5980	86.4305
 0.5970	86.4296
 0.5960	86.4267
 0.5950	86.4247
 0.5940	86.4064
 0.5930	86.4054
 0.5920	86.3843
 0.5910	86.3694
 0.5900	86.3572
 0.5890	86.3470
 0.5880	86.3254
 0.5870	86.3022
 0.5860	86.2755
 0.5850	86.2584
 0.5840	86.2546
 0.5830	86.2229
 0.5820	86.2017
 0.5810	86.1720
 0.5800	86.1458
 0.5790	86.1379
 0.5780	86.0988
 0.5770	86.0692
 0.5760	86.0481
 0.5750	86.0309
 0.5740	86.0063
 0.5730	85.9734
 0.5720	85.9469
 0.5710	85.9163
 0.5700	85.8932
 0.5690	85.8619
 0.5680	85.8172
 0.5670	85.7936
 0.5660	85.7517
 0.5650	85.7007
 0.5640	85.6600
 0.5630	85.6300
 0.5620	85.5938
 0.5610	85.5676
 0.5600	85.5417
 0.5590	85.5018
 0.5580	85.4662
 0.5570	85.4359
 0.5560	85.3879
 0.5550	85.3392
 0.5540	85.3114
 0.5530	85.2680
 0.5520	85.2276
 0.5510	85.1787
 0.5500	85.1472
 0.5490	85.1129
 0.5480	85.0894
 0.5470	85.0485
 0.5460	85.0093
 0.5450	84.9692
 0.5440	84.9391
 0.5430	84.8968
 0.5420	84.8481
 0.5410	84.8205
 0.5400	84.7885
 0.5390	84.7681
 0.5380	84.7318
 0.5370	84.6905
 0.5360	84.6485
 0.5350	84.6334
 0.5340	84.6008
 0.5330	84.5652
 0.5320	84.5281
 0.5310	84.5156
 0.5300	84.4790
 0.5290	84.4368
 0.5280	84.4036
 0.5270	84.3786
 0.5260	84.3341
 0.5250	84.2911
 0.5240	84.2711
 0.5230	84.2332
 0.5220	84.1994
 0.5210	84.1684
 0.5200	84.1549
 0.5190	84.1108
 0.5180	84.0899
 0.5170	84.0505
 0.5160	84.0240
 0.5150	83.9744
 0.5140	83.9551
 0.5130	83.9066
 0.5120	83.8866
 0.5110	83.8423
 0.5100	83.8056
 0.5090	83.7865
 0.5080	83.7455
 0.5070	83.6996
 0.5060	83.6827
 0.5050	83.6204
 0.5040	83.6011
 0.5030	83.5912
 0.5020	83.5298
 0.5010	83.5024
 0.5000	83.4559
 0.4990	83.4176
 0.4980	83.3615
 0.4970	83.3280
 0.4960	83.2738
 0.4950	83.2371
 0.4940	83.2254
 0.4930	83.1595
 0.4920	83.1306
 0.4910	83.0844
 0.4900	83.0442
 0.4890	82.9654
 0.4880	82.9350
 0.4870	82.8939
 0.4860	82.8301
 0.4850	82.8198
 0.4840	82.7344
 0.4830	82.7144
 0.4820	82.6579
 0.4810	82.5994
 0.4800	82.5530
 0.4790	82.4968
 0.4780	82.4418
 0.4770	82.3920
 0.4760	82.3512
 0.4750	82.2965
 0.4740	82.2462
 0.4730	82.2003
 0.4720	82.1698
 0.4710	82.1055
 0.4700	82.0394
 0.4690	82.0047
 0.4680	81.9321
 0.4670	81.8657
 0.4660	81.8450
 0.4650	81.7822
 0.4640	81.7165
 0.4630	81.6452
 0.4620	81.6009
 0.4610	81.5163
 0.4600	81.4805
 0.4590	81.4064
 0.4580	81.3530
 0.4570	81.2782
 0.4560	81.2119
 0.4550	81.1361
 0.4540	81.0631
 0.4530	80.9979
 0.4520	80.9361
 0.4510	80.8577
 0.4500	80.7953
 0.4490	80.7153
 0.4480	80.6447
 0.4470	80.5898
 0.4460	80.5239
 0.4450	80.4442
 0.4440	80.3535
 0.4430	80.2802
 0.4420	80.1918
 0.4410	80.1126
 0.4400	80.0316
 0.4390	79.9541
 0.4380	79.8834
 0.4370	79.8064
 0.4360	79.7137
 0.4350	79.6457
 0.4340	79.5629
 0.4330	79.4872
 0.4320	79.4249
 0.4310	79.3641
 0.4300	79.2553
 0.4290	79.2015
 0.4280	79.1431
 0.4270	79.0515
 0.4260	78.9906
 0.4250	78.9412
 0.4240	78.8455
 0.4230	78.7705
 0.4220	78.7470
 0.4210	78.6929
 0.4200	78.6144
 0.4190	78.5417
 0.4180	78.4898
 0.4170	78.4655
 0.4160	78.4261
 0.4150	78.3534
 0.4140	78.2902
 0.4130	78.2624
 0.4120	78.2208
 0.4110	78.1721
 0.4100	78.1372
 0.4090	78.0859
 0.4080	78.0375
 0.4070	77.9872
 0.4060	77.9388
 0.4050	77.9126
 0.4040	77.8712
 0.4030	77.8328
 0.4020	77.7922
 0.4010	77.7398
 0.4000	77.7213
