Name: Rutile TiO_2
Type: Mineral
Class: Oxide
Subclass: None
Particle Size: Coarse
Sample No.: O-2A
Owner: JPL
Wavelength Range: VSWIR
Origin: Unknown.
Collection Date: N/A
Description: Particle size was 125-500um.Collected by:  JPL Original ASTER Spectral Library name was jpl.perkin.mineral.oxide.none.coarse.o02a.spectrum.txt
Measurement: Hemispherical reflectance
First Column: X
Second Column: Y
X Units: Wavelength (micrometers)
Y Units:Reflectance (percent)
First X Value:  2.5000
Last X Value:  0.4000
Number of X Values: 2101
Additional Information: mineral.oxide.none.coarse.vswir.o-2a.jpl.perkin.ancillary.txt

 2.5000	24.6530
 2.4990	24.7184
 2.4980	24.6947
 2.4970	24.9418
 2.4960	24.2506
 2.4950	24.9185
 2.4940	24.4656
 2.4930	24.7848
 2.4920	24.6463
 2.4910	24.6968
 2.4900	24.5376
 2.4890	24.5673
 2.4880	24.4243
 2.4870	24.6340
 2.4860	24.6371
 2.4850	24.5452
 2.4840	24.4227
 2.4830	24.5767
 2.4820	24.5440
 2.4810	24.6112
 2.4800	24.3608
 2.4790	24.5290
 2.4780	24.4258
 2.4770	24.6039
 2.4760	24.3961
 2.4750	24.4742
 2.4740	24.2988
 2.4730	24.5011
 2.4720	24.4084
 2.4710	24.5236
 2.4700	24.4625
 2.4690	24.5672
 2.4680	24.4365
 2.4670	24.4007
 2.4660	24.3662
 2.4650	24.5662
 2.4640	24.2931
 2.4630	24.4342
 2.4620	24.4148
 2.4610	24.4970
 2.4600	24.2764
 2.4590	24.4390
 2.4580	24.4233
 2.4570	24.4429
 2.4560	24.3857
 2.4550	24.5663
 2.4540	24.3716
 2.4530	24.4144
 2.4520	24.3938
 2.4510	24.5141
 2.4500	24.4772
 2.4490	24.5185
 2.4480	24.4609
 2.4470	24.5413
 2.4460	24.3880
 2.4450	24.5323
 2.4440	24.5101
 2.4430	24.5618
 2.4420	24.4417
 2.4410	24.5640
 2.4400	24.4515
 2.4390	24.5825
 2.4380	24.4686
 2.4370	24.5833
 2.4360	24.4634
 2.4350	24.4774
 2.4340	24.4459
 2.4330	24.5180
 2.4320	24.5175
 2.4310	24.5762
 2.4300	24.4271
 2.4290	24.5602
 2.4280	24.5140
 2.4270	24.5281
 2.4260	24.4529
 2.4250	24.6211
 2.4240	24.5500
 2.4230	24.5831
 2.4220	24.5408
 2.4210	24.6388
 2.4200	24.5258
 2.4190	24.5791
 2.4180	24.5320
 2.4170	24.5404
 2.4160	24.4862
 2.4150	24.4995
 2.4140	24.4561
 2.4130	24.5338
 2.4120	24.4321
 2.4110	24.5421
 2.4100	24.4588
 2.4090	24.4774
 2.4080	24.4298
 2.4070	24.4563
 2.4060	24.4034
 2.4050	24.4564
 2.4040	24.4202
 2.4030	24.4624
 2.4020	24.4199
 2.4010	24.4568
 2.4000	24.3674
 2.3990	24.4090
 2.3980	24.3876
 2.3970	24.3881
 2.3960	24.3654
 2.3950	24.3780
 2.3940	24.3460
 2.3930	24.3842
 2.3920	24.3389
 2.3910	24.3642
 2.3900	24.3226
 2.3890	24.3796
 2.3880	24.3951
 2.3870	24.3470
 2.3860	24.3151
 2.3850	24.3250
 2.3840	24.3348
 2.3830	24.3704
 2.3820	24.3526
 2.3810	24.2779
 2.3800	24.2661
 2.3790	24.3289
 2.3780	24.2937
 2.3770	24.3431
 2.3760	24.3335
 2.3750	24.3348
 2.3740	24.3736
 2.3730	24.3669
 2.3720	24.3371
 2.3710	24.3225
 2.3700	24.3117
 2.3690	24.3477
 2.3680	24.3566
 2.3670	24.3632
 2.3660	24.3276
 2.3650	24.4000
 2.3640	24.3936
 2.3630	24.3543
 2.3620	24.2841
 2.3610	24.3012
 2.3600	24.3711
 2.3590	24.4063
 2.3580	24.3530
 2.3570	24.3138
 2.3560	24.4038
 2.3550	24.3960
 2.3540	24.3199
 2.3530	24.2651
 2.3520	24.2485
 2.3510	24.2668
 2.3500	24.2953
 2.3490	24.2995
 2.3480	24.3127
 2.3470	24.2860
 2.3460	24.2569
 2.3450	24.2389
 2.3440	24.2504
 2.3430	24.2484
 2.3420	24.2462
 2.3410	24.2241
 2.3400	24.1856
 2.3390	24.1746
 2.3380	24.2033
 2.3370	24.1940
 2.3360	24.1860
 2.3350	24.1156
 2.3340	24.0771
 2.3330	24.0642
 2.3320	24.1108
 2.3310	24.0374
 2.3300	23.9972
 2.3290	23.9728
 2.3280	23.9550
 2.3270	23.9077
 2.3260	23.9397
 2.3250	23.9408
 2.3240	23.8963
 2.3230	23.7846
 2.3220	23.7885
 2.3210	23.7617
 2.3200	23.8122
 2.3190	23.7262
 2.3180	23.7225
 2.3170	23.6537
 2.3160	23.5808
 2.3150	23.4762
 2.3140	23.4825
 2.3130	23.4733
 2.3120	23.5282
 2.3110	23.5000
 2.3100	23.4535
 2.3090	23.4130
 2.3080	23.4019
 2.3070	23.3069
 2.3060	23.3070
 2.3050	23.2825
 2.3040	23.3270
 2.3030	23.2278
 2.3020	23.3475
 2.3010	23.2481
 2.3000	23.2839
 2.2990	23.2271
 2.2980	23.2253
 2.2970	23.1616
 2.2960	23.2941
 2.2950	23.2182
 2.2940	23.2436
 2.2930	23.2335
 2.2920	23.2587
 2.2910	23.2538
 2.2900	23.2753
 2.2890	23.2331
 2.2880	23.2796
 2.2870	23.3597
 2.2860	23.3437
 2.2850	23.3781
 2.2840	23.4635
 2.2830	23.3329
 2.2820	23.4217
 2.2810	23.4563
 2.2800	23.5267
 2.2790	23.4289
 2.2780	23.5646
 2.2770	23.5187
 2.2760	23.5707
 2.2750	23.4809
 2.2740	23.5224
 2.2730	23.5207
 2.2720	23.5470
 2.2710	23.5257
 2.2700	23.5473
 2.2690	23.5380
 2.2680	23.6354
 2.2670	23.5710
 2.2660	23.5913
 2.2650	23.5318
 2.2640	23.5871
 2.2630	23.5065
 2.2620	23.5544
 2.2610	23.5114
 2.2600	23.5736
 2.2590	23.5013
 2.2580	23.5374
 2.2570	23.4797
 2.2560	23.6216
 2.2550	23.4636
 2.2540	23.5259
 2.2530	23.4520
 2.2520	23.5207
 2.2510	23.4457
 2.2500	23.5447
 2.2490	23.4653
 2.2480	23.5626
 2.2470	23.4437
 2.2460	23.4336
 2.2450	23.4302
 2.2440	23.4772
 2.2430	23.3908
 2.2420	23.4661
 2.2410	23.4090
 2.2400	23.5055
 2.2390	23.3641
 2.2380	23.4178
 2.2370	23.3434
 2.2360	23.4073
 2.2350	23.3687
 2.2340	23.3392
 2.2330	23.3407
 2.2320	23.4547
 2.2310	23.3340
 2.2300	23.3701
 2.2290	23.2479
 2.2280	23.3275
 2.2270	23.2909
 2.2260	23.4329
 2.2250	23.3092
 2.2240	23.3511
 2.2230	23.3097
 2.2220	23.3170
 2.2210	23.1881
 2.2200	23.3813
 2.2190	23.2504
 2.2180	23.2673
 2.2170	23.2939
 2.2160	23.3767
 2.2150	23.2197
 2.2140	23.3819
 2.2130	23.2192
 2.2120	23.5047
 2.2110	23.1559
 2.2100	23.4176
 2.2090	23.1919
 2.2080	23.3378
 2.2070	23.2663
 2.2060	23.3327
 2.2050	23.2025
 2.2040	23.3438
 2.2030	23.2360
 2.2020	23.3437
 2.2010	23.2890
 2.2000	23.3334
 2.1990	23.2684
 2.1980	23.3914
 2.1970	23.2719
 2.1960	23.2953
 2.1950	23.2325
 2.1940	23.2923
 2.1930	23.2041
 2.1920	23.2672
 2.1910	23.2008
 2.1900	23.2263
 2.1890	23.1514
 2.1880	23.2725
 2.1870	23.1650
 2.1860	23.3206
 2.1850	23.1909
 2.1840	23.2060
 2.1830	23.2171
 2.1820	23.2562
 2.1810	23.1436
 2.1800	23.2624
 2.1790	23.1985
 2.1780	23.3011
 2.1770	23.2087
 2.1760	23.2096
 2.1750	23.1758
 2.1740	23.2683
 2.1730	23.1562
 2.1720	23.2569
 2.1710	23.2000
 2.1700	23.2190
 2.1690	23.1921
 2.1680	23.2137
 2.1670	23.1725
 2.1660	23.2269
 2.1650	23.2007
 2.1640	23.3069
 2.1630	23.2184
 2.1620	23.2476
 2.1610	23.2443
 2.1600	23.2751
 2.1590	23.2002
 2.1580	23.2251
 2.1570	23.2247
 2.1560	23.2541
 2.1550	23.1750
 2.1540	23.2173
 2.1530	23.1751
 2.1520	23.2105
 2.1510	23.1316
 2.1500	23.1664
 2.1490	23.1483
 2.1480	23.2693
 2.1470	23.2050
 2.1460	23.1457
 2.1450	23.1219
 2.1440	23.1761
 2.1430	23.1130
 2.1420	23.1039
 2.1410	23.0997
 2.1400	23.0804
 2.1390	23.0514
 2.1380	23.0638
 2.1370	23.0267
 2.1360	23.0439
 2.1350	23.0570
 2.1340	23.0810
 2.1330	22.9735
 2.1320	22.9953
 2.1310	22.9603
 2.1300	23.0115
 2.1290	22.8871
 2.1280	22.9336
 2.1270	22.9243
 2.1260	22.8884
 2.1250	22.8310
 2.1240	22.9253
 2.1230	22.8792
 2.1220	22.8135
 2.1210	22.7765
 2.1200	22.7731
 2.1190	22.7568
 2.1180	22.7545
 2.1170	22.7373
 2.1160	22.6959
 2.1150	22.6384
 2.1140	22.6494
 2.1130	22.5823
 2.1120	22.6076
 2.1110	22.5475
 2.1100	22.5700
 2.1090	22.5244
 2.1080	22.5176
 2.1070	22.4951
 2.1060	22.5131
 2.1050	22.5153
 2.1040	22.5138
 2.1030	22.3918
 2.1020	22.3831
 2.1010	22.4016
 2.1000	22.4052
 2.0990	22.3298
 2.0980	22.2756
 2.0970	22.2764
 2.0960	22.3430
 2.0950	22.2936
 2.0940	22.2817
 2.0930	22.3058
 2.0920	22.3356
 2.0910	22.2812
 2.0900	22.2858
 2.0890	22.2902
 2.0880	22.2773
 2.0870	22.2698
 2.0860	22.2631
 2.0850	22.2543
 2.0840	22.2915
 2.0830	22.2601
 2.0820	22.2408
 2.0810	22.2086
 2.0800	22.2204
 2.0790	22.2323
 2.0780	22.2252
 2.0770	22.2140
 2.0760	22.2332
 2.0750	22.2054
 2.0740	22.1859
 2.0730	22.1769
 2.0720	22.1427
 2.0710	22.1718
 2.0700	22.2149
 2.0690	22.1749
 2.0680	22.1525
 2.0670	22.1603
 2.0660	22.1205
 2.0650	22.1156
 2.0640	22.1153
 2.0630	22.1139
 2.0620	22.1305
 2.0610	22.1282
 2.0600	22.1183
 2.0590	22.1497
 2.0580	22.1092
 2.0570	22.0926
 2.0560	22.0476
 2.0550	22.0611
 2.0540	22.1072
 2.0530	22.1018
 2.0520	22.0688
 2.0510	22.0577
 2.0500	22.0362
 2.0490	22.0906
 2.0480	22.0753
 2.0470	22.0238
 2.0460	22.0049
 2.0450	22.0259
 2.0440	22.0280
 2.0430	22.0627
 2.0420	22.0164
 2.0410	22.0161
 2.0400	21.9730
 2.0390	21.9906
 2.0380	21.9475
 2.0370	21.9732
 2.0360	21.9740
 2.0350	22.0052
 2.0340	21.9747
 2.0330	21.9851
 2.0320	21.9275
 2.0310	21.9233
 2.0300	21.9092
 2.0290	21.9883
 2.0280	21.8951
 2.0270	21.8994
 2.0260	21.8915
 2.0250	21.8632
 2.0240	21.8603
 2.0230	21.8795
 2.0220	21.8412
 2.0210	21.8793
 2.0200	21.8373
 2.0190	21.8924
 2.0180	21.8781
 2.0170	21.8303
 2.0160	21.7809
 2.0150	21.8034
 2.0140	21.8147
 2.0130	21.8175
 2.0120	21.8045
 2.0110	21.8288
 2.0100	21.7656
 2.0090	21.7862
 2.0080	21.7082
 2.0070	21.8049
 2.0060	21.7578
 2.0050	21.7511
 2.0040	21.7336
 2.0030	21.7294
 2.0020	21.6546
 2.0010	21.7227
 2.0000	21.6637
 1.9990	21.7127
 1.9980	21.6567
 1.9970	21.6378
 1.9960	21.6381
 1.9950	21.6789
 1.9940	21.6039
 1.9930	21.6922
 1.9920	21.6561
 1.9910	21.6583
 1.9900	21.5954
 1.9890	21.6064
 1.9880	21.5711
 1.9870	21.5948
 1.9860	21.5711
 1.9850	21.5936
 1.9840	21.5762
 1.9830	21.5809
 1.9820	21.5400
 1.9810	21.5861
 1.9800	21.5658
 1.9790	21.5676
 1.9780	21.4955
 1.9770	21.5525
 1.9760	21.4759
 1.9750	21.5915
 1.9740	21.4386
 1.9730	21.5275
 1.9720	21.3825
 1.9710	21.5192
 1.9700	21.4824
 1.9690	21.4206
 1.9680	21.4507
 1.9670	21.4689
 1.9660	21.4454
 1.9650	21.4569
 1.9640	21.4301
 1.9630	21.4263
 1.9620	21.3781
 1.9610	21.4394
 1.9600	21.3371
 1.9590	21.4343
 1.9580	21.3103
 1.9570	21.4544
 1.9560	21.2957
 1.9550	21.3936
 1.9540	21.3336
 1.9530	21.3917
 1.9520	21.3513
 1.9510	21.4077
 1.9500	21.2836
 1.9490	21.4207
 1.9480	21.2415
 1.9470	21.3179
 1.9460	21.2266
 1.9450	21.3560
 1.9440	21.2945
 1.9430	21.3792
 1.9420	21.2971
 1.9410	21.3228
 1.9400	21.3344
 1.9390	21.3527
 1.9380	21.2739
 1.9370	21.4221
 1.9360	21.2049
 1.9350	21.2834
 1.9340	21.2385
 1.9330	21.3100
 1.9320	21.1841
 1.9310	21.3042
 1.9300	21.2618
 1.9290	21.3242
 1.9280	21.2200
 1.9270	21.3800
 1.9260	21.1555
 1.9250	21.3533
 1.9240	21.2009
 1.9230	21.2526
 1.9220	21.1735
 1.9210	21.2661
 1.9200	21.1535
 1.9190	21.2479
 1.9180	21.1792
 1.9170	21.1610
 1.9160	21.1070
 1.9150	21.2529
 1.9140	21.1072
 1.9130	21.2252
 1.9120	21.0786
 1.9110	21.1462
 1.9100	21.1150
 1.9090	21.1727
 1.9080	21.0672
 1.9070	21.1692
 1.9060	21.0221
 1.9050	21.1756
 1.9040	21.0673
 1.9030	21.1662
 1.9020	21.0311
 1.9010	21.1368
 1.9000	21.0287
 1.8990	21.0744
 1.8980	20.9677
 1.8970	21.1129
 1.8960	20.9989
 1.8950	21.0048
 1.8940	20.9699
 1.8930	21.0602
 1.8920	20.9285
 1.8910	20.9731
 1.8900	20.8975
 1.8890	21.0012
 1.8880	20.9037
 1.8870	20.9922
 1.8860	20.9507
 1.8850	20.9077
 1.8840	20.9006
 1.8830	20.9918
 1.8820	20.8937
 1.8810	20.8803
 1.8800	20.8046
 1.8790	20.9392
 1.8780	20.8424
 1.8770	20.9242
 1.8760	20.7889
 1.8750	20.8862
 1.8740	20.8589
 1.8730	20.8763
 1.8720	20.8493
 1.8710	20.9093
 1.8700	20.8349
 1.8690	20.9217
 1.8680	20.8554
 1.8670	20.8375
 1.8660	20.8046
 1.8650	20.8231
 1.8640	20.7400
 1.8630	20.7899
 1.8620	20.7467
 1.8610	20.8050
 1.8600	20.6926
 1.8590	20.7249
 1.8580	20.6109
 1.8570	20.6870
 1.8560	20.6471
 1.8550	20.7087
 1.8540	20.6327
 1.8530	20.6751
 1.8520	20.6180
 1.8510	20.6732
 1.8500	20.5659
 1.8490	20.6628
 1.8480	20.6055
 1.8470	20.6227
 1.8460	20.6133
 1.8450	20.5920
 1.8440	20.5457
 1.8430	20.6346
 1.8420	20.5597
 1.8410	20.6399
 1.8400	20.6258
 1.8390	20.6003
 1.8380	20.5127
 1.8370	20.5644
 1.8360	20.4944
 1.8350	20.5212
 1.8340	20.4733
 1.8330	20.5371
 1.8320	20.5283
 1.8310	20.5208
 1.8300	20.5083
 1.8290	20.4960
 1.8280	20.5005
 1.8270	20.4591
 1.8260	20.4442
 1.8250	20.4654
 1.8240	20.4144
 1.8230	20.4173
 1.8220	20.3960
 1.8210	20.4596
 1.8200	20.4091
 1.8190	20.4086
 1.8180	20.3848
 1.8170	20.4322
 1.8160	20.3921
 1.8150	20.4043
 1.8140	20.3368
 1.8130	20.3239
 1.8120	20.3205
 1.8110	20.3164
 1.8100	20.2976
 1.8090	20.3130
 1.8080	20.2693
 1.8070	20.3014
 1.8060	20.2948
 1.8050	20.2854
 1.8040	20.3001
 1.8030	20.2795
 1.8020	20.2455
 1.8010	20.2598
 1.8000	20.2163
 1.7990	20.2422
 1.7980	20.2633
 1.7970	20.2584
 1.7960	20.2134
 1.7950	20.1958
 1.7940	20.1786
 1.7930	20.1449
 1.7920	20.1507
 1.7910	20.1819
 1.7900	20.1514
 1.7890	20.1582
 1.7880	20.1679
 1.7870	20.1590
 1.7860	20.1425
 1.7850	20.0970
 1.7840	20.0964
 1.7830	20.1098
 1.7820	20.0691
 1.7810	20.0895
 1.7800	20.0983
 1.7790	20.1128
 1.7780	20.1186
 1.7770	20.0543
 1.7760	20.0558
 1.7750	20.0753
 1.7740	20.0992
 1.7730	20.0383
 1.7720	19.9879
 1.7710	20.0170
 1.7700	20.0118
 1.7690	19.9694
 1.7680	19.9951
 1.7670	19.9823
 1.7660	19.9793
 1.7650	19.9610
 1.7640	19.9673
 1.7630	19.9687
 1.7620	19.9868
 1.7610	19.9439
 1.7600	19.9291
 1.7590	19.9511
 1.7580	19.9693
 1.7570	19.8665
 1.7560	19.8658
 1.7550	19.9106
 1.7540	19.9256
 1.7530	19.8875
 1.7520	19.9020
 1.7510	19.9105
 1.7500	19.9097
 1.7490	19.8684
 1.7480	19.8795
 1.7470	19.8648
 1.7460	19.8965
 1.7450	19.8518
 1.7440	19.8576
 1.7430	19.8968
 1.7420	19.8675
 1.7410	19.7941
 1.7400	19.8618
 1.7390	19.8194
 1.7380	19.8154
 1.7370	19.7772
 1.7360	19.8024
 1.7350	19.7694
 1.7340	19.8003
 1.7330	19.7673
 1.7320	19.7848
 1.7310	19.7138
 1.7300	19.7795
 1.7290	19.7359
 1.7280	19.7567
 1.7270	19.6870
 1.7260	19.7437
 1.7250	19.7154
 1.7240	19.7112
 1.7230	19.6324
 1.7220	19.7064
 1.7210	19.6653
 1.7200	19.7250
 1.7190	19.6120
 1.7180	19.6469
 1.7170	19.6086
 1.7160	19.7117
 1.7150	19.6275
 1.7140	19.6218
 1.7130	19.6128
 1.7120	19.5957
 1.7110	19.5907
 1.7100	19.6229
 1.7090	19.5307
 1.7080	19.6377
 1.7070	19.5771
 1.7060	19.6623
 1.7050	19.5766
 1.7040	19.6121
 1.7030	19.5548
 1.7020	19.5826
 1.7010	19.5183
 1.7000	19.5488
 1.6990	19.5454
 1.6980	19.5372
 1.6970	19.4053
 1.6960	19.5456
 1.6950	19.4681
 1.6940	19.4790
 1.6930	19.4524
 1.6920	19.5728
 1.6910	19.4873
 1.6900	19.4904
 1.6890	19.3750
 1.6880	19.4536
 1.6870	19.3906
 1.6860	19.4944
 1.6850	19.3901
 1.6840	19.4026
 1.6830	19.4699
 1.6820	19.4022
 1.6810	19.3181
 1.6800	19.4512
 1.6790	19.3665
 1.6780	19.4425
 1.6770	19.2797
 1.6760	19.3706
 1.6750	19.2805
 1.6740	19.4115
 1.6730	19.2964
 1.6720	19.3866
 1.6710	19.2560
 1.6700	19.3420
 1.6690	19.4424
 1.6680	19.1756
 1.6670	19.3607
 1.6660	19.3305
 1.6650	19.2956
 1.6640	19.3450
 1.6630	19.2617
 1.6620	19.3007
 1.6610	19.2269
 1.6600	19.2797
 1.6590	19.2669
 1.6580	19.3154
 1.6570	19.1605
 1.6560	19.2971
 1.6550	19.2227
 1.6540	19.3414
 1.6530	19.2350
 1.6520	19.2578
 1.6510	19.1939
 1.6500	19.2887
 1.6490	19.1414
 1.6480	19.2756
 1.6470	19.1837
 1.6460	19.2133
 1.6450	19.1607
 1.6440	19.2038
 1.6430	19.1133
 1.6420	19.2687
 1.6410	18.9824
 1.6400	19.3953
 1.6390	19.0466
 1.6380	19.2324
 1.6370	19.0980
 1.6360	19.1960
 1.6350	19.1204
 1.6340	19.1629
 1.6330	19.0534
 1.6320	19.1661
 1.6310	19.0763
 1.6300	19.1973
 1.6290	19.0242
 1.6280	19.1879
 1.6270	19.0281
 1.6260	19.1118
 1.6250	19.0416
 1.6240	19.1340
 1.6230	19.0230
 1.6220	19.1346
 1.6210	18.9773
 1.6200	19.1126
 1.6190	19.0190
 1.6180	19.0881
 1.6170	19.0927
 1.6160	19.0503
 1.6150	19.0373
 1.6140	19.0780
 1.6130	19.0549
 1.6120	19.1742
 1.6110	18.9643
 1.6100	19.1098
 1.6090	19.0189
 1.6080	19.1406
 1.6070	19.0004
 1.6060	19.0765
 1.6050	18.9679
 1.6040	19.0875
 1.6030	18.9849
 1.6020	19.0577
 1.6010	18.9817
 1.6000	19.0425
 1.5990	18.9830
 1.5980	19.0530
 1.5970	18.9453
 1.5960	19.0007
 1.5950	18.9472
 1.5940	19.0293
 1.5930	18.9041
 1.5920	18.9536
 1.5910	18.9713
 1.5900	19.0296
 1.5890	18.9363
 1.5880	18.9647
 1.5870	18.9633
 1.5860	19.0148
 1.5850	18.9430
 1.5840	18.9588
 1.5830	18.9418
 1.5820	18.9995
 1.5810	18.8882
 1.5800	18.9100
 1.5790	18.8560
 1.5780	18.9366
 1.5770	18.9370
 1.5760	18.9865
 1.5750	18.9752
 1.5740	18.9528
 1.5730	18.9336
 1.5720	18.9618
 1.5710	18.8850
 1.5700	18.9426
 1.5690	18.9055
 1.5680	18.9639
 1.5670	18.8764
 1.5660	18.9063
 1.5650	18.8829
 1.5640	18.8913
 1.5630	18.8108
 1.5620	18.8700
 1.5610	18.8652
 1.5600	18.9120
 1.5590	18.8951
 1.5580	18.8628
 1.5570	18.8093
 1.5560	18.8317
 1.5550	18.8010
 1.5540	18.8871
 1.5530	18.8356
 1.5520	18.8907
 1.5510	18.8233
 1.5500	18.8764
 1.5490	18.8037
 1.5480	18.8540
 1.5470	18.8305
 1.5460	18.8650
 1.5450	18.7993
 1.5440	18.8156
 1.5430	18.7949
 1.5420	18.7924
 1.5410	18.7377
 1.5400	18.7713
 1.5390	18.7103
 1.5380	18.8002
 1.5370	18.8156
 1.5360	18.7933
 1.5350	18.7666
 1.5340	18.7528
 1.5330	18.7144
 1.5320	18.7711
 1.5310	18.7967
 1.5300	18.7756
 1.5290	18.7355
 1.5280	18.7856
 1.5270	18.7387
 1.5260	18.7432
 1.5250	18.7523
 1.5240	18.7907
 1.5230	18.7774
 1.5220	18.8087
 1.5210	18.7839
 1.5200	18.7502
 1.5190	18.7322
 1.5180	18.7701
 1.5170	18.7078
 1.5160	18.7240
 1.5150	18.7369
 1.5140	18.7297
 1.5130	18.7020
 1.5120	18.7113
 1.5110	18.7611
 1.5100	18.7589
 1.5090	18.7283
 1.5080	18.7322
 1.5070	18.7010
 1.5060	18.7172
 1.5050	18.7280
 1.5040	18.7124
 1.5030	18.6965
 1.5020	18.6807
 1.5010	18.6704
 1.5000	18.6857
 1.4990	18.7225
 1.4980	18.6966
 1.4970	18.6563
 1.4960	18.7055
 1.4950	18.7188
 1.4940	18.6726
 1.4930	18.6795
 1.4920	18.6644
 1.4910	18.6578
 1.4900	18.6593
 1.4890	18.6798
 1.4880	18.6660
 1.4870	18.6759
 1.4860	18.6792
 1.4850	18.6427
 1.4840	18.6525
 1.4830	18.7047
 1.4820	18.6886
 1.4810	18.6888
 1.4800	18.6851
 1.4790	18.6757
 1.4780	18.6207
 1.4770	18.7037
 1.4760	18.6517
 1.4750	18.6502
 1.4740	18.6822
 1.4730	18.6581
 1.4720	18.6434
 1.4710	18.6226
 1.4700	18.5672
 1.4690	18.6021
 1.4680	18.6108
 1.4670	18.6596
 1.4660	18.6134
 1.4650	18.6463
 1.4640	18.6024
 1.4630	18.6233
 1.4620	18.5960
 1.4610	18.6295
 1.4600	18.5895
 1.4590	18.6274
 1.4580	18.5665
 1.4570	18.6225
 1.4560	18.6168
 1.4550	18.5971
 1.4540	18.5866
 1.4530	18.5842
 1.4520	18.5784
 1.4510	18.6310
 1.4500	18.5629
 1.4490	18.5917
 1.4480	18.5505
 1.4470	18.6334
 1.4460	18.5807
 1.4450	18.5856
 1.4440	18.5734
 1.4430	18.5660
 1.4420	18.5823
 1.4410	18.5955
 1.4400	18.5949
 1.4390	18.6249
 1.4380	18.5315
 1.4370	18.5692
 1.4360	18.4938
 1.4350	18.5998
 1.4340	18.5022
 1.4330	18.5707
 1.4320	18.5599
 1.4310	18.6319
 1.4300	18.5734
 1.4290	18.5457
 1.4280	18.4865
 1.4270	18.5562
 1.4260	18.5018
 1.4250	18.5533
 1.4240	18.4932
 1.4230	18.5793
 1.4220	18.5204
 1.4210	18.5363
 1.4200	18.4445
 1.4190	18.5848
 1.4180	18.4323
 1.4170	18.5355
 1.4160	18.4587
 1.4150	18.5466
 1.4140	18.4343
 1.4130	18.5244
 1.4120	18.4807
 1.4110	18.5657
 1.4100	18.4726
 1.4090	18.4654
 1.4080	18.4021
 1.4070	18.4814
 1.4060	18.4365
 1.4050	18.4791
 1.4040	18.3448
 1.4030	18.5254
 1.4020	18.3751
 1.4010	18.4281
 1.4000	18.3182
 1.3990	18.3664
 1.3980	18.2995
 1.3970	18.4640
 1.3960	18.3236
 1.3950	18.3745
 1.3940	18.3184
 1.3930	18.4245
 1.3920	18.3480
 1.3910	18.4052
 1.3900	18.3654
 1.3890	18.4903
 1.3880	18.4011
 1.3870	18.4927
 1.3860	18.4596
 1.3850	18.5049
 1.3840	18.4494
 1.3830	18.4900
 1.3820	18.3448
 1.3810	18.4601
 1.3800	18.3936
 1.3790	18.5202
 1.3780	18.3893
 1.3770	18.5272
 1.3760	18.4383
 1.3750	18.5056
 1.3740	18.3934
 1.3730	18.4486
 1.3720	18.3378
 1.3710	18.4967
 1.3700	18.3660
 1.3690	18.4590
 1.3680	18.3863
 1.3670	18.4629
 1.3660	18.3522
 1.3650	18.4757
 1.3640	18.4001
 1.3630	18.4690
 1.3620	18.3528
 1.3610	18.3669
 1.3600	18.4020
 1.3590	18.4096
 1.3580	18.4014
 1.3570	18.5209
 1.3560	18.4453
 1.3550	18.3504
 1.3540	18.3563
 1.3530	18.4249
 1.3520	18.2806
 1.3510	18.3623
 1.3500	18.3880
 1.3490	18.3097
 1.3480	18.3721
 1.3470	18.4204
 1.3460	18.3562
 1.3450	18.4570
 1.3440	18.3078
 1.3430	18.3874
 1.3420	18.3319
 1.3410	18.3959
 1.3400	18.3219
 1.3390	18.4207
 1.3380	18.3448
 1.3370	18.4085
 1.3360	18.3632
 1.3350	18.3708
 1.3340	18.2818
 1.3330	18.3483
 1.3320	18.3469
 1.3310	18.3557
 1.3300	18.2865
 1.3290	18.3436
 1.3280	18.2781
 1.3270	18.3496
 1.3260	18.2749
 1.3250	18.3844
 1.3240	18.2549
 1.3230	18.2902
 1.3220	18.3051
 1.3210	18.3236
 1.3200	18.2244
 1.3190	18.3360
 1.3180	18.2745
 1.3170	18.4032
 1.3160	18.3307
 1.3150	18.3047
 1.3140	18.2110
 1.3130	18.3157
 1.3120	18.3244
 1.3110	18.3201
 1.3100	18.2915
 1.3090	18.3629
 1.3080	18.2608
 1.3070	18.2914
 1.3060	18.2564
 1.3050	18.2994
 1.3040	18.2816
 1.3030	18.3692
 1.3020	18.2891
 1.3010	18.2716
 1.3000	18.2593
 1.2990	18.3055
 1.2980	18.2377
 1.2970	18.2885
 1.2960	18.2215
 1.2950	18.3151
 1.2940	18.2581
 1.2930	18.3224
 1.2920	18.2312
 1.2910	18.2762
 1.2900	18.2771
 1.2890	18.3525
 1.2880	18.3046
 1.2870	18.2965
 1.2860	18.2535
 1.2850	18.3146
 1.2840	18.2478
 1.2830	18.2865
 1.2820	18.2292
 1.2810	18.2840
 1.2800	18.2157
 1.2790	18.2913
 1.2780	18.1829
 1.2770	18.3313
 1.2760	18.2821
 1.2750	18.3149
 1.2740	18.2429
 1.2730	18.2893
 1.2720	18.2317
 1.2710	18.2730
 1.2700	18.2819
 1.2690	18.3015
 1.2680	18.2767
 1.2670	18.3215
 1.2660	18.2523
 1.2650	18.2826
 1.2640	18.2541
 1.2630	18.2814
 1.2620	18.2370
 1.2610	18.2632
 1.2600	18.2809
 1.2590	18.3214
 1.2580	18.2459
 1.2570	18.2810
 1.2560	18.2489
 1.2550	18.3253
 1.2540	18.2792
 1.2530	18.2908
 1.2520	18.2465
 1.2510	18.2910
 1.2500	18.2841
 1.2490	18.2863
 1.2480	18.2459
 1.2470	18.2461
 1.2460	18.2395
 1.2450	18.3017
 1.2440	18.2733
 1.2430	18.2920
 1.2420	18.2847
 1.2410	18.2814
 1.2400	18.2852
 1.2390	18.2942
 1.2380	18.3236
 1.2370	18.3629
 1.2360	18.3430
 1.2350	18.3826
 1.2340	18.3555
 1.2330	18.3781
 1.2320	18.3754
 1.2310	18.3654
 1.2300	18.3427
 1.2290	18.3695
 1.2280	18.3530
 1.2270	18.3376
 1.2260	18.3436
 1.2250	18.3521
 1.2240	18.3220
 1.2230	18.3349
 1.2220	18.3266
 1.2210	18.3426
 1.2200	18.3357
 1.2190	18.3373
 1.2180	18.3636
 1.2170	18.4030
 1.2160	18.3846
 1.2150	18.3566
 1.2140	18.3372
 1.2130	18.3460
 1.2120	18.3744
 1.2110	18.4023
 1.2100	18.4158
 1.2090	18.3938
 1.2080	18.4146
 1.2070	18.4217
 1.2060	18.4294
 1.2050	18.4277
 1.2040	18.4586
 1.2030	18.4012
 1.2020	18.4005
 1.2010	18.4154
 1.2000	18.3864
 1.1990	18.3940
 1.1980	18.4290
 1.1970	18.4334
 1.1960	18.4874
 1.1950	18.4519
 1.1940	18.4483
 1.1930	18.4402
 1.1920	18.4700
 1.1910	18.4838
 1.1900	18.4659
 1.1890	18.5188
 1.1880	18.3945
 1.1870	18.4158
 1.1860	18.4968
 1.1850	18.4876
 1.1840	18.4763
 1.1830	18.4627
 1.1820	18.5208
 1.1810	18.5098
 1.1800	18.4832
 1.1790	18.4896
 1.1780	18.5287
 1.1770	18.5204
 1.1760	18.5613
 1.1750	18.5431
 1.1740	18.5665
 1.1730	18.5158
 1.1720	18.5659
 1.1710	18.5946
 1.1700	18.6161
 1.1690	18.5601
 1.1680	18.6107
 1.1670	18.5825
 1.1660	18.5794
 1.1650	18.6070
 1.1640	18.6524
 1.1630	18.5763
 1.1620	18.6031
 1.1610	18.6258
 1.1600	18.6638
 1.1590	18.6195
 1.1580	18.6672
 1.1570	18.6196
 1.1560	18.6858
 1.1550	18.6722
 1.1540	18.6568
 1.1530	18.6596
 1.1520	18.6607
 1.1510	18.6750
 1.1500	18.7310
 1.1490	18.6388
 1.1480	18.7463
 1.1470	18.6834
 1.1460	18.7227
 1.1450	18.6720
 1.1440	18.7157
 1.1430	18.7196
 1.1420	18.7782
 1.1410	18.7189
 1.1400	18.7570
 1.1390	18.7110
 1.1380	18.7702
 1.1370	18.7255
 1.1360	18.7442
 1.1350	18.7585
 1.1340	18.7353
 1.1330	18.8369
 1.1320	18.8230
 1.1310	18.8180
 1.1300	18.8211
 1.1290	18.7664
 1.1280	18.8199
 1.1270	18.8000
 1.1260	18.8768
 1.1250	18.8060
 1.1240	18.8690
 1.1230	18.8198
 1.1220	18.8846
 1.1210	18.8181
 1.1200	18.9034
 1.1190	18.8317
 1.1180	18.8660
 1.1170	18.8631
 1.1160	18.9337
 1.1150	18.8711
 1.1140	18.8871
 1.1130	18.8116
 1.1120	18.9025
 1.1110	18.8665
 1.1100	18.9148
 1.1090	18.8552
 1.1080	18.9689
 1.1070	18.9436
 1.1060	18.9130
 1.1050	18.9070
 1.1040	18.9495
 1.1030	18.9657
 1.1020	18.9799
 1.1010	18.8984
 1.1000	18.9726
 1.0990	18.9174
 1.0980	19.0060
 1.0970	18.9528
 1.0960	19.1231
 1.0950	18.9163
 1.0940	19.0283
 1.0930	19.0122
 1.0920	19.0685
 1.0910	18.9997
 1.0900	19.0240
 1.0890	18.9687
 1.0880	19.0138
 1.0870	18.9922
 1.0860	19.0421
 1.0850	18.9873
 1.0840	19.0559
 1.0830	18.9543
 1.0820	19.1160
 1.0810	19.1904
 1.0800	19.0970
 1.0790	19.0317
 1.0780	19.1881
 1.0770	19.0525
 1.0760	19.1874
 1.0750	18.9997
 1.0740	19.1159
 1.0730	19.0606
 1.0720	19.2021
 1.0710	19.1318
 1.0700	18.9949
 1.0690	19.1459
 1.0680	19.1020
 1.0670	19.0675
 1.0660	19.2237
 1.0650	19.1106
 1.0640	19.1470
 1.0630	19.0132
 1.0620	19.2444
 1.0610	19.0781
 1.0600	19.1987
 1.0590	19.0042
 1.0580	19.1721
 1.0570	19.1167
 1.0560	19.1319
 1.0550	19.1260
 1.0540	19.2372
 1.0530	18.9994
 1.0520	19.2282
 1.0510	19.1140
 1.0500	19.2556
 1.0490	19.1256
 1.0480	19.2163
 1.0470	19.0913
 1.0460	19.2307
 1.0450	19.1975
 1.0440	19.1952
 1.0430	19.1923
 1.0420	19.2333
 1.0410	19.1851
 1.0400	19.2602
 1.0390	19.1168
 1.0380	19.2172
 1.0370	19.1195
 1.0360	19.2240
 1.0350	19.1445
 1.0340	19.2224
 1.0330	19.2002
 1.0320	19.1774
 1.0310	19.1419
 1.0300	19.2689
 1.0290	19.1539
 1.0280	19.2613
 1.0270	19.1546
 1.0260	19.2073
 1.0250	19.1762
 1.0240	19.1985
 1.0230	19.1198
 1.0220	19.2807
 1.0210	19.1977
 1.0200	19.2313
 1.0190	19.1242
 1.0180	19.2311
 1.0170	19.2036
 1.0160	19.2904
 1.0150	19.1583
 1.0140	19.2302
 1.0130	19.2461
 1.0120	19.2719
 1.0110	19.1367
 1.0100	19.1424
 1.0090	19.1176
 1.0080	19.2037
 1.0070	19.1619
 1.0060	19.1846
 1.0050	19.1435
 1.0040	19.1990
 1.0030	19.1246
 1.0020	19.1889
 1.0010	19.1195
 1.0000	19.1349
 0.9990	19.1448
 0.9980	19.1479
 0.9970	19.0775
 0.9960	19.1790
 0.9950	19.1418
 0.9940	19.1193
 0.9930	19.1341
 0.9920	19.1600
 0.9910	19.0644
 0.9900	19.1172
 0.9890	19.0111
 0.9880	19.1461
 0.9870	19.0572
 0.9860	19.1313
 0.9850	19.0773
 0.9840	19.0714
 0.9830	19.0378
 0.9820	19.0491
 0.9810	18.9821
 0.9800	19.0589
 0.9790	19.0284
 0.9780	19.0272
 0.9770	18.9469
 0.9760	19.0160
 0.9750	18.9631
 0.9740	18.9329
 0.9730	18.9304
 0.9720	18.9908
 0.9710	18.9541
 0.9700	18.9618
 0.9690	18.8691
 0.9680	18.8901
 0.9670	18.8740
 0.9660	18.8562
 0.9650	18.8302
 0.9640	18.8889
 0.9630	18.8415
 0.9620	18.7993
 0.9610	18.7912
 0.9600	18.8088
 0.9590	18.7858
 0.9580	18.8317
 0.9570	18.7302
 0.9560	18.7735
 0.9550	18.7446
 0.9540	18.7299
 0.9530	18.6813
 0.9520	18.6899
 0.9510	18.7253
 0.9500	18.6750
 0.9490	18.6319
 0.9480	18.6710
 0.9470	18.5942
 0.9460	18.5758
 0.9450	18.5468
 0.9440	18.5959
 0.9430	18.5914
 0.9420	18.5465
 0.9410	18.4984
 0.9400	18.4772
 0.9390	18.5136
 0.9380	18.5079
 0.9370	18.4653
 0.9360	18.4600
 0.9350	18.4189
 0.9340	18.4070
 0.9330	18.3971
 0.9320	18.3512
 0.9310	18.4013
 0.9300	18.3816
 0.9290	18.3107
 0.9280	18.3304
 0.9270	18.2594
 0.9260	18.2461
 0.9250	18.2822
 0.9240	18.2154
 0.9230	18.2229
 0.9220	18.2031
 0.9210	18.1555
 0.9200	18.1197
 0.9190	18.1858
 0.9180	18.1463
 0.9170	18.0670
 0.9160	18.0403
 0.9150	18.0739
 0.9140	18.0448
 0.9130	18.0057
 0.9120	17.9357
 0.9110	17.9417
 0.9100	17.9552
 0.9090	17.9949
 0.9080	17.9072
 0.9070	17.8758
 0.9060	17.8476
 0.9050	17.8455
 0.9040	17.7963
 0.9030	17.8146
 0.9020	17.8261
 0.9010	17.7924
 0.9000	17.6931
 0.8990	17.6876
 0.8980	17.6886
 0.8970	17.7543
 0.8960	17.6907
 0.8950	17.6669
 0.8940	17.6695
 0.8930	17.6994
 0.8920	17.6283
 0.8910	17.6245
 0.8900	17.5726
 0.8890	17.5592
 0.8880	17.5262
 0.8870	17.5155
 0.8860	17.4699
 0.8850	17.4913
 0.8840	17.3940
 0.8830	17.3987
 0.8820	17.3346
 0.8810	17.3638
 0.8800	17.3704
 0.8790	17.3402
 0.8780	17.3437
 0.8770	17.3752
 0.8760	17.2706
 0.8750	17.2500
 0.8740	17.2035
 0.8730	17.2656
 0.8720	17.1590
 0.8710	17.1697
 0.8700	17.1358
 0.8690	17.1307
 0.8680	17.0767
 0.8670	17.0962
 0.8660	17.0304
 0.8650	17.0287
 0.8640	17.0109
 0.8630	17.0445
 0.8620	16.9259
 0.8610	16.9899
 0.8600	17.4165
 0.8590	17.5373
 0.8580	17.5235
 0.8570	17.5104
 0.8560	17.4567
 0.8550	17.4097
 0.8540	17.4061
 0.8530	17.3839
 0.8520	17.3653
 0.8510	17.3402
 0.8500	17.3303
 0.8490	17.2891
 0.8480	17.2541
 0.8470	17.2410
 0.8460	17.2145
 0.8450	17.1860
 0.8440	17.1609
 0.8430	17.1210
 0.8420	17.1006
 0.8410	17.0710
 0.8400	17.0485
 0.8390	17.0186
 0.8380	16.9825
 0.8370	16.9581
 0.8360	16.9212
 0.8350	16.9076
 0.8340	16.8896
 0.8330	16.8581
 0.8320	16.8343
 0.8310	16.8176
 0.8300	16.7764
 0.8290	16.7425
 0.8280	16.7269
 0.8270	16.6838
 0.8260	16.6694
 0.8250	16.6233
 0.8240	16.6082
 0.8230	16.5730
 0.8220	16.5545
 0.8210	16.5283
 0.8200	16.5054
 0.8190	16.4792
 0.8180	16.4526
 0.8170	16.4255
 0.8160	16.3815
 0.8150	16.3733
 0.8140	16.3452
 0.8130	16.3227
 0.8120	16.2809
 0.8110	16.2479
 0.8100	16.2266
 0.8090	16.2045
 0.8080	16.1776
 0.8070	16.1386
 0.8060	16.1258
 0.8050	16.0887
 0.8040	16.0547
 0.8030	16.0234
 0.8020	16.0051
 0.8010	15.9657
 0.8000	15.9411
 0.7990	15.9116
 0.7980	15.8685
 0.7970	15.8484
 0.7960	15.8067
 0.7950	15.7666
 0.7940	15.7355
 0.7930	15.7327
 0.7920	15.6764
 0.7910	15.6607
 0.7900	15.6366
 0.7890	15.5988
 0.7880	15.5596
 0.7870	15.5327
 0.7860	15.5087
 0.7850	15.4755
 0.7840	15.4403
 0.7830	15.4233
 0.7820	15.3920
 0.7810	15.3424
 0.7800	15.3201
 0.7790	15.2988
 0.7780	15.2453
 0.7770	15.2192
 0.7760	15.1890
 0.7750	15.1615
 0.7740	15.1276
 0.7730	15.1012
 0.7720	15.0667
 0.7710	15.0343
 0.7700	14.9963
 0.7690	14.9623
 0.7680	14.9326
 0.7670	14.9023
 0.7660	14.8765
 0.7650	14.8455
 0.7640	14.8105
 0.7630	14.7739
 0.7620	14.7526
 0.7610	14.7214
 0.7600	14.6914
 0.7590	14.6551
 0.7580	14.6264
 0.7570	14.5976
 0.7560	14.5580
 0.7550	14.5353
 0.7540	14.5087
 0.7530	14.4732
 0.7520	14.4498
 0.7510	14.4142
 0.7500	14.3978
 0.7490	14.3622
 0.7480	14.3347
 0.7470	14.3171
 0.7460	14.2840
 0.7450	14.2691
 0.7440	14.2328
 0.7430	14.2009
 0.7420	14.1713
 0.7410	14.1422
 0.7400	14.1234
 0.7390	14.0978
 0.7380	14.0713
 0.7370	14.0494
 0.7360	14.0225
 0.7350	13.9905
 0.7340	13.9613
 0.7330	13.9350
 0.7320	13.9038
 0.7310	13.8730
 0.7300	13.8509
 0.7290	13.8227
 0.7280	13.7954
 0.7270	13.7622
 0.7260	13.7390
 0.7250	13.7129
 0.7240	13.6847
 0.7230	13.6564
 0.7220	13.6312
 0.7210	13.6024
 0.7200	13.5737
 0.7190	13.5486
 0.7180	13.5179
 0.7170	13.4940
 0.7160	13.4722
 0.7150	13.4441
 0.7140	13.4152
 0.7130	13.3916
 0.7120	13.3641
 0.7110	13.3405
 0.7100	13.3172
 0.7090	13.2902
 0.7080	13.2663
 0.7070	13.2370
 0.7060	13.2086
 0.7050	13.1847
 0.7040	13.1530
 0.7030	13.1259
 0.7020	13.1078
 0.7010	13.0781
 0.7000	13.0537
 0.6990	13.0303
 0.6980	13.0013
 0.6970	12.9822
 0.6960	12.9520
 0.6950	12.9247
 0.6940	12.9057
 0.6930	12.8767
 0.6920	12.8503
 0.6910	12.8264
 0.6900	12.8004
 0.6890	12.7703
 0.6880	12.7478
 0.6870	12.7248
 0.6860	12.7002
 0.6850	12.6725
 0.6840	12.6482
 0.6830	12.6215
 0.6820	12.5956
 0.6810	12.5732
 0.6800	12.5484
 0.6790	12.5243
 0.6780	12.4992
 0.6770	12.4750
 0.6760	12.4481
 0.6750	12.4237
 0.6740	12.4021
 0.6730	12.3775
 0.6720	12.3496
 0.6710	12.3281
 0.6700	12.3005
 0.6690	12.2734
 0.6680	12.2483
 0.6670	12.2316
 0.6660	12.2038
 0.6650	12.1771
 0.6640	12.1500
 0.6630	12.1262
 0.6620	12.0993
 0.6610	12.0735
 0.6600	12.0505
 0.6590	12.0238
 0.6580	12.0041
 0.6570	11.9814
 0.6560	11.9566
 0.6550	11.9342
 0.6540	11.9079
 0.6530	11.8857
 0.6520	11.8626
 0.6510	11.8357
 0.6500	11.8113
 0.6490	11.7879
 0.6480	11.7628
 0.6470	11.7388
 0.6460	11.7155
 0.6450	11.6925
 0.6440	11.6696
 0.6430	11.6478
 0.6420	11.6257
 0.6410	11.5987
 0.6400	11.5750
 0.6390	11.5547
 0.6380	11.5317
 0.6370	11.5086
 0.6360	11.4843
 0.6350	11.4589
 0.6340	11.4373
 0.6330	11.4168
 0.6320	11.3935
 0.6310	11.3713
 0.6300	11.3503
 0.6290	11.3281
 0.6280	11.3062
 0.6270	11.2845
 0.6260	11.2640
 0.6250	11.2422
 0.6240	11.2192
 0.6230	11.1968
 0.6220	11.1780
 0.6210	11.1576
 0.6200	11.1360
 0.6190	11.1124
 0.6180	11.0920
 0.6170	11.0722
 0.6160	11.0526
 0.6150	11.0350
 0.6140	11.0153
 0.6130	10.9975
 0.6120	10.9775
 0.6110	10.9595
 0.6100	10.9382
 0.6090	10.9231
 0.6080	10.9032
 0.6070	10.8807
 0.6060	10.8648
 0.6050	10.8494
 0.6040	10.8317
 0.6030	10.8139
 0.6020	10.7966
 0.6010	10.7757
 0.6000	10.7578
 0.5990	10.7444
 0.5980	10.7296
 0.5970	10.7160
 0.5960	10.7028
 0.5950	10.6891
 0.5940	10.6697
 0.5930	10.6523
 0.5920	10.6389
 0.5910	10.6227
 0.5900	10.6066
 0.5890	10.5921
 0.5880	10.5765
 0.5870	10.5615
 0.5860	10.5466
 0.5850	10.5285
 0.5840	10.5137
 0.5830	10.5018
 0.5820	10.4869
 0.5810	10.4720
 0.5800	10.4585
 0.5790	10.4447
 0.5780	10.4291
 0.5770	10.4131
 0.5760	10.3989
 0.5750	10.3901
 0.5740	10.3758
 0.5730	10.3630
 0.5720	10.3495
 0.5710	10.3374
 0.5700	10.3238
 0.5690	10.3095
 0.5680	10.2987
 0.5670	10.2865
 0.5660	10.2735
 0.5650	10.2634
 0.5640	10.2511
 0.5630	10.2442
 0.5620	10.2353
 0.5610	10.2198
 0.5600	10.2059
 0.5590	10.1965
 0.5580	10.1849
 0.5570	10.1768
 0.5560	10.1660
 0.5550	10.1575
 0.5540	10.1492
 0.5530	10.1393
 0.5520	10.1288
 0.5510	10.1226
 0.5500	10.1124
 0.5490	10.1066
 0.5480	10.0988
 0.5470	10.0916
 0.5460	10.0859
 0.5450	10.0795
 0.5440	10.0712
 0.5430	10.0634
 0.5420	10.0579
 0.5410	10.0508
 0.5400	10.0475
 0.5390	10.0402
 0.5380	10.0334
 0.5370	10.0294
 0.5360	10.0257
 0.5350	10.0209
 0.5340	10.0142
 0.5330	10.0107
 0.5320	10.0060
 0.5310	10.0024
 0.5300	 9.9945
 0.5290	 9.9906
 0.5280	 9.9879
 0.5270	 9.9842
 0.5260	 9.9796
 0.5250	 9.9773
 0.5240	 9.9711
 0.5230	 9.9682
 0.5220	 9.9648
 0.5210	 9.9597
 0.5200	 9.9600
 0.5190	 9.9566
 0.5180	 9.9529
 0.5170	 9.9481
 0.5160	 9.9462
 0.5150	 9.9401
 0.5140	 9.9379
 0.5130	 9.9393
 0.5120	 9.9303
 0.5110	 9.9262
 0.5100	 9.9276
 0.5090	 9.9244
 0.5080	 9.9154
 0.5070	 9.9183
 0.5060	 9.9111
 0.5050	 9.9129
 0.5040	 9.9081
 0.5030	 9.9089
 0.5020	 9.9050
 0.5010	 9.9100
 0.5000	 9.9031
 0.4990	 9.9010
 0.4980	 9.9034
 0.4970	 9.8987
 0.4960	 9.9052
 0.4950	 9.9055
 0.4940	 9.9035
 0.4930	 9.9045
 0.4920	 9.9039
 0.4910	 9.9082
 0.4900	 9.9168
 0.4890	 9.9166
 0.4880	 9.9213
 0.4870	 9.9297
 0.4860	 9.9335
 0.4850	 9.9431
 0.4840	 9.9499
 0.4830	 9.9565
 0.4820	 9.9684
 0.4810	 9.9711
 0.4800	 9.9805
 0.4790	 9.9948
 0.4780	 9.9982
 0.4770	10.0074
 0.4760	10.0148
 0.4750	10.0224
 0.4740	10.0292
 0.4730	10.0340
 0.4720	10.0402
 0.4710	10.0477
 0.4700	10.0575
 0.4690	10.0637
 0.4680	10.0708
 0.4670	10.0762
 0.4660	10.0840
 0.4650	10.0908
 0.4640	10.1011
 0.4630	10.1063
 0.4620	10.1118
 0.4610	10.1203
 0.4600	10.1266
 0.4590	10.1363
 0.4580	10.1464
 0.4570	10.1505
 0.4560	10.1606
 0.4550	10.1679
 0.4540	10.1696
 0.4530	10.1874
 0.4520	10.1927
 0.4510	10.2033
 0.4500	10.2064
 0.4490	10.2210
 0.4480	10.2331
 0.4470	10.2418
 0.4460	10.2530
 0.4450	10.2636
 0.4440	10.2806
 0.4430	10.2904
 0.4420	10.2998
 0.4410	10.3164
 0.4400	10.3351
 0.4390	10.3463
 0.4380	10.3557
 0.4370	10.3691
 0.4360	10.3875
 0.4350	10.3999
 0.4340	10.4155
 0.4330	10.4288
 0.4320	10.4453
 0.4310	10.4621
 0.4300	10.4773
 0.4290	10.4920
 0.4280	10.5059
 0.4270	10.5265
 0.4260	10.5419
 0.4250	10.5564
 0.4240	10.5776
 0.4230	10.5967
 0.4220	10.6146
 0.4210	10.6312
 0.4200	10.6511
 0.4190	10.6706
 0.4180	10.6886
 0.4170	10.7080
 0.4160	10.7327
 0.4150	10.7537
 0.4140	10.7809
 0.4130	10.8030
 0.4120	10.8232
 0.4110	10.8426
 0.4100	10.8674
 0.4090	10.8895
 0.4080	10.9113
 0.4070	10.9410
 0.4060	10.9655
 0.4050	10.9912
 0.4040	11.0173
 0.4030	11.0441
 0.4020	11.0648
 0.4010	11.0955
 0.4000	11.1161
