Name: Calcite CaCO_3
Type: Mineral
Class: Carbonate
Subclass: None
Particle Size: Fine
Sample No.: C-3D
Owner: JPL
Wavelength Range: VSWIR
Origin: United Kingdom, England
Collection Date: N/A
Description: Particle size was 0-45um.Collected by Ward's Original ASTER Spectral Library name was jpl.beckman.mineral.carbonate.none.fine.c03d.spectrum.txt
Measurement: Hemispherical reflectance
First Column: X
Second Column: Y
X Units: Wavelength (micrometers)
Y Units:Reflectance (percent)
First X Value:  0.4000
Last X Value:  2.5000
Number of X Values: 826
Additional Information: mineral.carbonate.none.fine.vswir.c-3d.jpl.beckman.ancillary.txt

 0.4000	61.9400
 0.4010	62.5200
 0.4020	62.5700
 0.4030	62.6900
 0.4040	62.5700
 0.4050	62.7500
 0.4060	63.0300
 0.4070	63.2500
 0.4080	63.4300
 0.4090	63.4300
 0.4100	63.2500
 0.4110	63.6000
 0.4120	63.8300
 0.4130	64.1200
 0.4140	64.0600
 0.4150	63.9500
 0.4160	64.0000
 0.4170	64.2300
 0.4180	64.4600
 0.4190	64.6300
 0.4200	64.5200
 0.4210	64.4100
 0.4220	64.7400
 0.4230	65.0300
 0.4240	65.0300
 0.4250	65.0300
 0.4260	64.9200
 0.4270	65.0900
 0.4280	65.3200
 0.4290	65.4900
 0.4300	65.6600
 0.4310	65.4300
 0.4320	65.6600
 0.4330	65.8900
 0.4340	66.0000
 0.4350	66.1700
 0.4360	66.1100
 0.4370	65.9500
 0.4380	66.1700
 0.4390	66.3500
 0.4400	66.6300
 0.4410	66.5800
 0.4420	66.4000
 0.4430	66.5800
 0.4440	66.6900
 0.4450	66.9200
 0.4460	66.8100
 0.4470	66.6900
 0.4480	66.8100
 0.4490	67.0400
 0.4500	67.3200
 0.4510	67.3200
 0.4520	67.2100
 0.4530	67.0400
 0.4540	67.3200
 0.4550	67.6100
 0.4560	67.6100
 0.4570	67.6100
 0.4580	67.3900
 0.4590	67.6800
 0.4600	67.9100
 0.4610	67.8500
 0.4620	68.0700
 0.4630	67.9100
 0.4640	67.9700
 0.4650	68.1400
 0.4660	68.3700
 0.4670	68.3100
 0.4680	68.1500
 0.4690	68.3200
 0.4700	68.3800
 0.4710	68.6000
 0.4720	68.6600
 0.4730	68.5000
 0.4740	68.6100
 0.4750	68.6700
 0.4760	68.8400
 0.4770	69.0700
 0.4780	68.9100
 0.4790	68.9100
 0.4800	68.9100
 0.4810	69.0300
 0.4820	69.2500
 0.4830	69.2600
 0.4840	69.2000
 0.4850	69.1400
 0.4860	69.4300
 0.4870	69.6600
 0.4880	69.6700
 0.4890	69.6100
 0.4900	69.3200
 0.4910	69.4400
 0.4920	69.7300
 0.4930	69.8400
 0.4940	69.7800
 0.4950	69.6100
 0.4960	69.7300
 0.4970	69.9600
 0.4980	70.3100
 0.4990	70.2000
 0.5000	69.9700
 0.5010	70.0200
 0.5020	70.2500
 0.5030	70.4800
 0.5040	70.4800
 0.5050	70.3700
 0.5060	70.4800
 0.5070	70.6500
 0.5080	70.8800
 0.5090	70.7100
 0.5100	70.5900
 0.5110	70.7600
 0.5120	70.8200
 0.5130	71.1700
 0.5140	71.2200
 0.5150	70.9900
 0.5160	71.0500
 0.5170	71.1100
 0.5180	71.3400
 0.5190	71.4500
 0.5200	71.2800
 0.5210	71.3400
 0.5220	71.3400
 0.5230	71.4500
 0.5240	71.6800
 0.5250	71.6800
 0.5260	71.5700
 0.5270	71.4500
 0.5280	71.6300
 0.5290	71.9700
 0.5300	71.8000
 0.5310	71.8600
 0.5320	71.7400
 0.5330	71.9200
 0.5340	72.1400
 0.5350	72.0800
 0.5360	72.0300
 0.5370	71.8600
 0.5380	72.1400
 0.5390	72.4200
 0.5400	72.4200
 0.5410	72.2500
 0.5420	72.0300
 0.5430	72.1400
 0.5440	72.4800
 0.5450	72.4800
 0.5460	72.4200
 0.5470	72.1400
 0.5480	72.4200
 0.5490	72.6500
 0.5500	72.8300
 0.5510	72.7100
 0.5520	72.4800
 0.5530	72.7700
 0.5540	72.8800
 0.5550	73.0600
 0.5560	72.9400
 0.5570	72.7100
 0.5580	72.9400
 0.5590	73.1100
 0.5600	73.0600
 0.5610	73.0600
 0.5620	73.4600
 0.5630	73.4600
 0.5640	73.2900
 0.5650	73.1700
 0.5660	73.2300
 0.5670	73.4600
 0.5680	73.4600
 0.5690	73.4000
 0.5700	73.2900
 0.5710	73.2300
 0.5720	73.4600
 0.5730	73.4000
 0.5740	73.4000
 0.5750	73.2900
 0.5760	73.1700
 0.5770	73.4000
 0.5780	73.5800
 0.5790	73.5800
 0.5800	73.4000
 0.5810	73.2900
 0.5820	73.4000
 0.5830	73.4600
 0.5840	73.7400
 0.5850	73.6900
 0.5860	73.4600
 0.5870	73.5200
 0.5880	73.7400
 0.5890	73.9700
 0.5900	73.8500
 0.5910	73.6900
 0.5920	73.6300
 0.5930	73.9100
 0.5940	74.2600
 0.5950	74.1400
 0.5960	73.8500
 0.5970	73.8500
 0.5980	73.9100
 0.5990	74.3100
 0.6000	74.2600
 0.6010	74.0300
 0.6020	74.0300
 0.6030	74.2000
 0.6040	74.4300
 0.6050	74.3100
 0.6060	74.3700
 0.6070	74.3100
 0.6080	74.3100
 0.6090	74.5500
 0.6100	74.5500
 0.6110	74.4900
 0.6120	74.4900
 0.6130	74.4300
 0.6140	74.6000
 0.6150	74.7800
 0.6160	74.6600
 0.6170	74.6600
 0.6180	74.5500
 0.6190	74.5500
 0.6200	74.6000
 0.6210	74.8900
 0.6220	74.7800
 0.6230	74.7200
 0.6240	74.6600
 0.6250	74.7800
 0.6260	75.1800
 0.6270	74.9500
 0.6280	74.7800
 0.6290	74.7800
 0.6300	75.0100
 0.6310	75.2400
 0.6320	75.2400
 0.6330	75.0100
 0.6340	74.8900
 0.6350	75.0600
 0.6360	75.4000
 0.6370	75.3500
 0.6380	75.2400
 0.6390	75.1200
 0.6400	75.1200
 0.6410	75.4600
 0.6420	75.4000
 0.6430	75.4000
 0.6440	75.2900
 0.6450	75.2400
 0.6460	75.1800
 0.6470	75.3500
 0.6480	75.5700
 0.6490	75.5700
 0.6500	75.4600
 0.6510	75.4000
 0.6520	75.5700
 0.6530	75.9200
 0.6540	75.7400
 0.6550	75.5700
 0.6560	75.5700
 0.6570	75.6900
 0.6580	75.9800
 0.6590	75.9800
 0.6600	75.7400
 0.6610	75.6900
 0.6620	75.8600
 0.6630	76.1500
 0.6640	76.0900
 0.6650	76.1500
 0.6660	76.0900
 0.6670	75.9200
 0.6680	76.0300
 0.6690	76.1500
 0.6700	76.3800
 0.6710	76.2600
 0.6720	76.1500
 0.6730	76.2600
 0.6740	76.2600
 0.6750	76.6700
 0.6760	76.5500
 0.6770	76.4900
 0.6780	76.4400
 0.6790	76.4900
 0.6800	76.7200
 0.6810	76.6100
 0.6820	76.6100
 0.6830	76.6100
 0.6840	76.4400
 0.6850	76.5500
 0.6860	76.6700
 0.6870	76.9500
 0.6880	76.9000
 0.6890	76.6700
 0.6900	76.6100
 0.6910	76.7800
 0.6920	77.1700
 0.6930	77.0100
 0.6940	76.7800
 0.6950	76.7800
 0.6960	76.9000
 0.6970	77.1700
 0.6980	77.1200
 0.6990	76.9500
 0.7000	76.9000
 0.7010	77.0600
 0.7020	77.0100
 0.7030	76.7800
 0.7040	76.9500
 0.7050	77.2900
 0.7060	77.3500
 0.7070	77.2900
 0.7080	77.0100
 0.7090	77.0100
 0.7100	77.4100
 0.7110	77.5200
 0.7120	77.4600
 0.7130	77.2900
 0.7140	77.1700
 0.7150	77.5800
 0.7160	77.7500
 0.7170	77.6400
 0.7180	77.4600
 0.7190	77.4100
 0.7200	77.5800
 0.7210	77.7500
 0.7220	77.8100
 0.7230	77.6900
 0.7240	77.6400
 0.7250	77.7500
 0.7260	77.8100
 0.7270	77.8700
 0.7280	77.8700
 0.7290	77.7500
 0.7300	77.8100
 0.7310	77.8700
 0.7320	78.1000
 0.7330	77.9800
 0.7340	77.9200
 0.7350	77.8100
 0.7360	77.8700
 0.7370	78.1500
 0.7380	78.1500
 0.7390	78.0400
 0.7400	77.8100
 0.7410	78.1000
 0.7420	78.3300
 0.7430	78.3300
 0.7440	78.3800
 0.7450	78.0400
 0.7460	78.1000
 0.7470	78.3800
 0.7480	78.5000
 0.7490	78.3800
 0.7500	78.2700
 0.7510	78.1500
 0.7520	78.4400
 0.7530	78.5000
 0.7540	78.5600
 0.7550	78.3800
 0.7560	78.3800
 0.7570	78.5000
 0.7580	78.7200
 0.7590	78.7800
 0.7600	78.7800
 0.7610	78.7200
 0.7620	78.5000
 0.7630	78.6100
 0.7640	78.8400
 0.7650	78.7800
 0.7660	78.6700
 0.7670	78.5000
 0.7680	78.6700
 0.7690	78.9500
 0.7700	78.8900
 0.7710	78.8400
 0.7720	78.6100
 0.7730	78.6100
 0.7740	78.9500
 0.7750	79.0700
 0.7760	79.0100
 0.7770	78.7800
 0.7780	78.6100
 0.7790	78.8400
 0.7800	79.0100
 0.7810	79.0100
 0.7820	78.9500
 0.7830	78.8900
 0.7840	79.0100
 0.7850	79.3000
 0.7860	79.2400
 0.7870	79.0700
 0.7880	78.9500
 0.7890	79.0700
 0.7900	79.3000
 0.7910	79.3000
 0.7920	79.3500
 0.7930	79.1800
 0.7940	79.1800
 0.7950	79.3000
 0.7960	79.5800
 0.7970	79.5300
 0.7980	79.3500
 0.7990	79.5800
 0.8000	79.6000
 0.8040	79.6400
 0.8080	79.6400
 0.8120	79.7000
 0.8160	79.8700
 0.8200	79.9300
 0.8240	79.9300
 0.8280	80.0400
 0.8320	80.1600
 0.8360	80.1600
 0.8400	80.3300
 0.8440	80.2800
 0.8480	80.3300
 0.8520	80.5000
 0.8560	80.4400
 0.8600	80.5000
 0.8640	80.7300
 0.8680	80.7300
 0.8720	80.7300
 0.8760	80.6700
 0.8800	80.7800
 0.8840	80.7800
 0.8880	80.6700
 0.8920	80.9000
 0.8960	80.9000
 0.9000	81.0100
 0.9040	81.0700
 0.9080	80.9600
 0.9120	81.0700
 0.9160	81.0100
 0.9200	81.1900
 0.9240	81.0700
 0.9280	81.1300
 0.9320	81.1900
 0.9360	81.1300
 0.9400	81.3600
 0.9440	81.3600
 0.9480	81.4200
 0.9520	81.3600
 0.9560	81.3000
 0.9600	81.5300
 0.9640	81.3600
 0.9680	81.4800
 0.9720	81.6500
 0.9760	81.5300
 0.9800	81.8200
 0.9840	81.5900
 0.9880	81.5900
 0.9920	81.7600
 0.9960	81.7100
 1.0000	81.6500
 1.0040	81.6500
 1.0080	81.6500
 1.0120	81.8800
 1.0160	81.8800
 1.0200	81.8800
 1.0240	81.9900
 1.0280	81.8800
 1.0320	81.8200
 1.0360	81.9900
 1.0400	81.9900
 1.0440	82.0400
 1.0480	82.0400
 1.0520	82.1000
 1.0560	81.8800
 1.0600	82.0400
 1.0640	82.2100
 1.0680	82.0400
 1.0720	82.0400
 1.0760	82.1600
 1.0800	82.1600
 1.0840	81.9900
 1.0880	82.0400
 1.0920	82.1600
 1.0960	82.1000
 1.1000	82.2100
 1.1040	82.3300
 1.1080	82.1600
 1.1120	82.2100
 1.1160	82.2700
 1.1200	82.3300
 1.1240	82.3900
 1.1280	82.2700
 1.1320	82.4400
 1.1360	82.3900
 1.1400	82.2700
 1.1440	82.5600
 1.1480	82.2100
 1.1520	82.3900
 1.1560	82.6100
 1.1600	82.4300
 1.1640	82.5400
 1.1680	82.4100
 1.1720	82.5300
 1.1760	82.4000
 1.1800	82.5100
 1.1840	82.7900
 1.1880	82.5000
 1.1920	82.5500
 1.1960	82.6600
 1.2000	82.5900
 1.2040	82.6500
 1.2080	82.7100
 1.2120	82.5900
 1.2160	82.6500
 1.2200	82.5900
 1.2240	82.7700
 1.2280	82.7100
 1.2320	82.7700
 1.2360	82.7700
 1.2400	82.7700
 1.2440	82.8800
 1.2480	82.8800
 1.2520	82.7100
 1.2560	82.8200
 1.2600	82.8100
 1.2640	82.8000
 1.2680	82.7900
 1.2720	82.7900
 1.2760	83.0600
 1.2800	82.9400
 1.2840	82.9400
 1.2880	82.9900
 1.2920	82.8100
 1.2960	82.9200
 1.3000	82.8500
 1.3040	82.8400
 1.3080	82.9500
 1.3120	82.8400
 1.3160	83.0500
 1.3200	82.9400
 1.3240	82.9800
 1.3280	82.9200
 1.3320	82.8600
 1.3360	82.7900
 1.3400	82.9500
 1.3440	82.9000
 1.3480	82.8300
 1.3520	82.7700
 1.3560	82.8900
 1.3600	82.9400
 1.3640	82.8900
 1.3680	82.9400
 1.3720	82.7700
 1.3760	82.8300
 1.3800	82.7700
 1.3840	82.5400
 1.3880	82.6000
 1.3920	82.4800
 1.3960	82.3700
 1.4000	82.0800
 1.4040	82.0300
 1.4080	82.0400
 1.4120	81.9300
 1.4160	81.9900
 1.4200	82.0000
 1.4240	82.0100
 1.4280	82.0200
 1.4320	82.1900
 1.4360	82.2500
 1.4400	82.2100
 1.4440	82.2200
 1.4480	82.4600
 1.4520	82.2800
 1.4560	82.5000
 1.4600	82.4600
 1.4640	82.4600
 1.4680	82.5000
 1.4720	82.5000
 1.4760	82.6800
 1.4800	82.6200
 1.4840	82.7400
 1.4880	82.7900
 1.4920	82.6800
 1.4960	82.7900
 1.5000	82.9100
 1.5040	82.7900
 1.5080	82.9700
 1.5120	82.9700
 1.5160	82.9700
 1.5200	82.9700
 1.5240	82.9700
 1.5280	83.1400
 1.5320	83.0200
 1.5360	83.0800
 1.5400	83.2000
 1.5440	83.0200
 1.5480	82.9700
 1.5520	82.9700
 1.5560	83.0800
 1.5600	83.0200
 1.5640	83.0800
 1.5680	83.2000
 1.5720	83.2000
 1.5760	83.2000
 1.5800	83.2000
 1.5840	83.2000
 1.5880	83.2500
 1.5920	83.2000
 1.5960	83.3100
 1.6000	83.2500
 1.6040	83.2400
 1.6080	83.2300
 1.6120	83.2900
 1.6160	83.2200
 1.6200	83.1700
 1.6240	83.4300
 1.6280	83.2000
 1.6320	83.3800
 1.6360	83.1900
 1.6400	83.2400
 1.6440	83.2300
 1.6480	83.1600
 1.6520	83.3900
 1.6560	83.2200
 1.6600	83.2700
 1.6640	83.1400
 1.6680	83.1900
 1.6720	83.1900
 1.6760	83.0700
 1.6800	83.2300
 1.6840	83.1100
 1.6880	83.1600
 1.6920	83.0500
 1.6960	83.0900
 1.7000	83.0300
 1.7040	83.0300
 1.7080	83.1400
 1.7120	83.0800
 1.7160	83.0800
 1.7200	82.9700
 1.7240	83.0800
 1.7280	82.8000
 1.7320	82.9700
 1.7360	82.9700
 1.7400	82.9700
 1.7440	82.8500
 1.7480	82.7400
 1.7520	82.9700
 1.7560	82.8000
 1.7600	82.9100
 1.7640	82.8500
 1.7680	82.9100
 1.7720	82.9700
 1.7760	82.9100
 1.7800	82.9700
 1.7840	82.8500
 1.7880	82.9100
 1.7920	82.8500
 1.7960	82.9100
 1.8000	82.8500
 1.8040	82.8900
 1.8080	82.9200
 1.8120	82.7700
 1.8160	82.6900
 1.8200	82.5500
 1.8240	82.5900
 1.8280	82.5000
 1.8320	82.5300
 1.8360	82.5000
 1.8400	82.1900
 1.8440	82.2200
 1.8480	82.0200
 1.8520	81.9000
 1.8560	81.6000
 1.8600	81.4300
 1.8640	81.2500
 1.8680	80.8400
 1.8720	80.7300
 1.8760	80.6000
 1.8800	80.3100
 1.8840	80.0800
 1.8880	79.7900
 1.8920	79.5600
 1.8960	79.0400
 1.9000	78.9200
 1.9040	78.8000
 1.9080	78.5700
 1.9120	78.5100
 1.9160	78.4400
 1.9200	78.3200
 1.9240	78.3700
 1.9280	78.4800
 1.9320	78.6400
 1.9360	78.4700
 1.9400	78.6300
 1.9440	78.6200
 1.9480	78.6700
 1.9520	78.7700
 1.9560	78.7500
 1.9600	78.8500
 1.9640	78.8300
 1.9680	78.9200
 1.9720	79.0800
 1.9760	78.9400
 1.9800	78.8600
 1.9840	78.9600
 1.9880	79.1600
 1.9920	79.2100
 1.9960	79.3500
 2.0000	79.5000
 2.0040	79.5500
 2.0080	79.7100
 2.0120	79.9500
 2.0160	80.2000
 2.0200	80.2200
 2.0240	80.3700
 2.0280	80.5300
 2.0320	80.5400
 2.0360	80.5700
 2.0400	80.7000
 2.0440	80.6900
 2.0480	80.7900
 2.0520	80.8600
 2.0560	80.8300
 2.0600	80.9000
 2.0640	80.8700
 2.0680	81.0100
 2.0720	81.0200
 2.0760	80.9900
 2.0800	81.1300
 2.0840	81.1000
 2.0880	81.1100
 2.0920	81.2000
 2.0960	81.0500
 2.1000	81.2900
 2.1040	81.2000
 2.1080	81.2800
 2.1120	81.2500
 2.1160	81.2200
 2.1200	81.2400
 2.1240	81.0600
 2.1280	81.1100
 2.1320	80.9600
 2.1360	80.9000
 2.1400	80.9000
 2.1440	80.7700
 2.1480	80.7000
 2.1520	80.7900
 2.1560	80.5300
 2.1600	80.6000
 2.1640	80.7600
 2.1680	80.5200
 2.1720	80.5000
 2.1760	80.6000
 2.1800	80.5900
 2.1840	80.4400
 2.1880	80.3400
 2.1920	80.3400
 2.1960	80.2900
 2.2000	80.1900
 2.2040	80.1900
 2.2080	79.8000
 2.2120	79.8200
 2.2160	79.8500
 2.2200	79.5400
 2.2240	79.4300
 2.2280	79.3700
 2.2320	79.1300
 2.2360	78.8800
 2.2400	78.6200
 2.2440	78.5000
 2.2480	78.2200
 2.2520	77.8700
 2.2560	77.6700
 2.2600	77.1300
 2.2640	76.9600
 2.2680	76.6800
 2.2720	76.1000
 2.2760	75.6200
 2.2800	75.2000
 2.2840	74.7700
 2.2880	74.4700
 2.2920	74.1900
 2.2960	73.9000
 2.3000	73.5700
 2.3040	73.2000
 2.3080	73.0100
 2.3120	72.6900
 2.3160	72.3800
 2.3200	72.0700
 2.3240	71.7900
 2.3280	71.5600
 2.3320	71.3400
 2.3360	71.5000
 2.3400	71.6700
 2.3440	72.0800
 2.3480	72.7200
 2.3520	73.3500
 2.3560	74.0500
 2.3600	74.6800
 2.3640	75.5400
 2.3680	76.1700
 2.3720	76.7100
 2.3760	77.0500
 2.3800	77.2700
 2.3840	77.5700
 2.3880	77.4800
 2.3920	77.5800
 2.3960	77.5200
 2.4000	77.4100
 2.4040	77.3500
 2.4080	77.1700
 2.4120	77.0000
 2.4160	76.6700
 2.4200	76.5400
 2.4240	76.0900
 2.4280	75.8100
 2.4320	75.6400
 2.4360	75.1900
 2.4400	74.6900
 2.4440	74.2400
 2.4480	73.6200
 2.4520	73.0100
 2.4560	72.5600
 2.4600	71.9400
 2.4640	71.3300
 2.4680	70.6000
 2.4720	69.9400
 2.4760	69.4300
 2.4800	68.7100
 2.4840	68.3600
 2.4880	67.6900
 2.4920	67.1500
 2.4960	66.5800
 2.5000	66.0800
