Name: Hemimorphite Zn_4Si_2O_7(OH)_2.H_2O
Type: Mineral
Class: Silicate
Subclass: Sorosilicate
Particle Size: Coarse
Sample No.: SS-2A
Owner: JPL
Wavelength Range: VSWIR
Origin: Mexico, Durango, Ojuela Mine
Collection Date: N/A
Description: Particle size was 125-500um.Collected by Burminco Original ASTER Spectral Library name was jpl.beckman.mineral.silicate.sorosilicate.coarse.ss02a.spectrum.txt
Measurement: Hemispherical reflectance
First Column: X
Second Column: Y
X Units: Wavelength (micrometers)
Y Units:Reflectance (percent)
First X Value:  0.4000
Last X Value:  2.5000
Number of X Values: 826
Additional Information: mineral.silicate.sorosilicate.coarse.vswir.ss-2a.jpl.beckman.ancillary.txt

 0.4000	81.1600
 0.4010	81.2400
 0.4020	81.1100
 0.4030	81.3600
 0.4040	81.3000
 0.4050	81.3000
 0.4060	81.5500
 0.4070	81.4600
 0.4080	81.5700
 0.4090	81.5500
 0.4100	81.4300
 0.4110	81.4600
 0.4120	81.5700
 0.4130	81.6000
 0.4140	81.7200
 0.4150	81.6300
 0.4160	81.8000
 0.4170	81.6700
 0.4180	81.7200
 0.4190	81.9100
 0.4200	81.7500
 0.4210	81.8300
 0.4220	81.8300
 0.4230	81.7500
 0.4240	81.8700
 0.4250	81.9400
 0.4260	81.9500
 0.4270	82.0900
 0.4280	81.9700
 0.4290	82.0800
 0.4300	82.0700
 0.4310	82.1600
 0.4320	82.2200
 0.4330	82.1100
 0.4340	82.2900
 0.4350	82.3200
 0.4360	82.2500
 0.4370	82.3600
 0.4380	82.3800
 0.4390	82.5000
 0.4400	82.4100
 0.4410	82.2500
 0.4420	82.3600
 0.4430	82.4800
 0.4440	82.5500
 0.4450	82.5700
 0.4460	82.5900
 0.4470	82.7100
 0.4480	82.6700
 0.4490	82.5500
 0.4500	82.7000
 0.4510	82.7100
 0.4520	82.7800
 0.4530	82.7200
 0.4540	82.6800
 0.4550	82.8200
 0.4560	82.8600
 0.4570	82.7800
 0.4580	82.8100
 0.4590	82.7700
 0.4600	82.9500
 0.4610	83.1900
 0.4620	83.0400
 0.4630	83.0400
 0.4640	83.1600
 0.4650	83.2700
 0.4660	83.2800
 0.4670	83.2900
 0.4680	83.1700
 0.4690	83.2200
 0.4700	83.3800
 0.4710	83.2800
 0.4720	83.3700
 0.4730	83.3000
 0.4740	83.4800
 0.4750	83.3600
 0.4760	83.3500
 0.4770	83.4900
 0.4780	83.5200
 0.4790	83.5100
 0.4800	83.5800
 0.4810	83.4700
 0.4820	83.5200
 0.4830	83.6200
 0.4840	83.6500
 0.4850	83.7200
 0.4860	83.6100
 0.4870	83.7700
 0.4880	83.5700
 0.4890	83.6500
 0.4900	83.6100
 0.4910	83.6800
 0.4920	83.8200
 0.4930	83.6800
 0.4940	83.5800
 0.4950	83.7100
 0.4960	83.7300
 0.4970	83.8600
 0.4980	83.9300
 0.4990	83.9500
 0.5000	83.9500
 0.5010	84.0200
 0.5020	84.0900
 0.5030	84.1400
 0.5040	83.9800
 0.5050	84.2100
 0.5060	84.0400
 0.5070	84.1500
 0.5080	84.2000
 0.5090	84.1400
 0.5100	84.3100
 0.5110	84.1300
 0.5120	84.1800
 0.5130	84.3400
 0.5140	84.3500
 0.5150	84.3200
 0.5160	84.3900
 0.5170	84.2700
 0.5180	84.3100
 0.5190	84.3800
 0.5200	84.4100
 0.5210	84.3400
 0.5220	84.3200
 0.5230	84.4900
 0.5240	84.3200
 0.5250	84.3600
 0.5260	84.3900
 0.5270	84.4400
 0.5280	84.5200
 0.5290	84.3800
 0.5300	84.2500
 0.5310	84.4100
 0.5320	84.4800
 0.5330	84.5000
 0.5340	84.5300
 0.5350	84.3800
 0.5360	84.3700
 0.5370	84.6000
 0.5380	84.5500
 0.5390	84.6000
 0.5400	84.6100
 0.5410	84.7400
 0.5420	84.4600
 0.5430	84.3800
 0.5440	84.6100
 0.5450	84.6300
 0.5460	84.7000
 0.5470	84.6000
 0.5480	84.5700
 0.5490	84.7000
 0.5500	84.6500
 0.5510	84.8300
 0.5520	84.8300
 0.5530	84.7100
 0.5540	84.7600
 0.5550	84.8700
 0.5560	84.8000
 0.5570	84.8700
 0.5580	84.8300
 0.5590	84.7800
 0.5600	85.1600
 0.5610	85.0900
 0.5620	85.1500
 0.5630	85.1100
 0.5640	85.1100
 0.5650	85.1200
 0.5660	85.1700
 0.5670	85.0200
 0.5680	85.2000
 0.5690	85.1500
 0.5700	85.0700
 0.5710	85.0700
 0.5720	84.9500
 0.5730	85.0000
 0.5740	85.0400
 0.5750	84.9900
 0.5760	84.8900
 0.5770	84.9500
 0.5780	85.0000
 0.5790	85.1100
 0.5800	84.9800
 0.5810	84.8100
 0.5820	84.9800
 0.5830	84.9600
 0.5840	85.1200
 0.5850	85.0600
 0.5860	84.9500
 0.5870	84.9800
 0.5880	85.0900
 0.5890	85.1900
 0.5900	85.1300
 0.5910	85.2600
 0.5920	85.2200
 0.5930	85.1500
 0.5940	85.2000
 0.5950	85.0200
 0.5960	85.2000
 0.5970	85.3300
 0.5980	85.2200
 0.5990	85.2100
 0.6000	85.2200
 0.6010	85.2600
 0.6020	85.3400
 0.6030	85.3100
 0.6040	85.2000
 0.6050	85.2300
 0.6060	85.2900
 0.6070	85.2600
 0.6080	85.2200
 0.6090	85.3300
 0.6100	85.2600
 0.6110	85.2800
 0.6120	85.4300
 0.6130	85.1800
 0.6140	85.3300
 0.6150	85.4300
 0.6160	85.2500
 0.6170	85.2500
 0.6180	85.3200
 0.6190	85.3200
 0.6200	85.3000
 0.6210	85.2900
 0.6220	85.1100
 0.6230	85.2800
 0.6240	85.3000
 0.6250	85.3900
 0.6260	85.2900
 0.6270	85.3800
 0.6280	85.3100
 0.6290	85.2000
 0.6300	85.2700
 0.6310	85.2900
 0.6320	85.3300
 0.6330	85.3700
 0.6340	85.3200
 0.6350	85.2800
 0.6360	85.2900
 0.6370	85.3800
 0.6380	85.4300
 0.6390	85.2500
 0.6400	85.1800
 0.6410	85.2500
 0.6420	85.3200
 0.6430	85.3900
 0.6440	85.2400
 0.6450	85.3300
 0.6460	85.4400
 0.6470	85.3400
 0.6480	85.4400
 0.6490	85.3900
 0.6500	85.3800
 0.6510	85.4300
 0.6520	85.3600
 0.6530	85.2000
 0.6540	85.3200
 0.6550	85.4300
 0.6560	85.5100
 0.6570	85.3800
 0.6580	85.4400
 0.6590	85.3200
 0.6600	85.3300
 0.6610	85.4400
 0.6620	85.3500
 0.6630	85.4600
 0.6640	85.4400
 0.6650	85.3700
 0.6660	85.3700
 0.6670	85.3700
 0.6680	85.5000
 0.6690	85.4600
 0.6700	85.3900
 0.6710	85.3900
 0.6720	85.3900
 0.6730	85.5100
 0.6740	85.6300
 0.6750	85.4400
 0.6760	85.3900
 0.6770	85.3200
 0.6780	85.3600
 0.6790	85.4700
 0.6800	85.3700
 0.6810	85.4500
 0.6820	85.4700
 0.6830	85.5100
 0.6840	85.5100
 0.6850	85.4100
 0.6860	85.5100
 0.6870	85.4000
 0.6880	85.3300
 0.6890	85.5000
 0.6900	85.3800
 0.6910	85.4300
 0.6920	85.5600
 0.6930	85.5100
 0.6940	85.5200
 0.6950	85.4600
 0.6960	85.5300
 0.6970	85.5300
 0.6980	85.4300
 0.6990	85.2600
 0.7000	85.4200
 0.7010	85.4200
 0.7020	85.5800
 0.7030	85.5800
 0.7040	85.4700
 0.7050	85.5200
 0.7060	85.3700
 0.7070	85.5300
 0.7080	85.4700
 0.7090	85.3400
 0.7100	85.5600
 0.7110	85.4500
 0.7120	85.4100
 0.7130	85.4800
 0.7140	85.4200
 0.7150	85.6200
 0.7160	85.4700
 0.7170	85.3700
 0.7180	85.3600
 0.7190	85.3000
 0.7200	85.4400
 0.7210	85.2800
 0.7220	85.2400
 0.7230	85.2600
 0.7240	85.2000
 0.7250	85.2500
 0.7260	85.3100
 0.7270	85.2000
 0.7280	85.3100
 0.7290	85.1300
 0.7300	85.3300
 0.7310	85.2800
 0.7320	85.1800
 0.7330	85.2500
 0.7340	84.9700
 0.7350	85.0000
 0.7360	85.0000
 0.7370	84.8400
 0.7380	84.9500
 0.7390	84.7200
 0.7400	84.7200
 0.7410	84.7100
 0.7420	84.6700
 0.7430	84.8600
 0.7440	84.7400
 0.7450	84.6700
 0.7460	84.7900
 0.7470	84.6800
 0.7480	84.8600
 0.7490	84.8300
 0.7500	84.7100
 0.7510	84.8900
 0.7520	84.8500
 0.7530	84.8700
 0.7540	84.8300
 0.7550	84.8500
 0.7560	84.9600
 0.7570	84.8500
 0.7580	84.8400
 0.7590	84.8200
 0.7600	84.9000
 0.7610	85.0900
 0.7620	85.0400
 0.7630	84.9800
 0.7640	85.0700
 0.7650	85.0200
 0.7660	85.0900
 0.7670	85.0200
 0.7680	84.9600
 0.7690	85.1900
 0.7700	85.0400
 0.7710	85.0400
 0.7720	85.1400
 0.7730	85.0900
 0.7740	85.3200
 0.7750	85.1600
 0.7760	85.0900
 0.7770	85.3000
 0.7780	85.1300
 0.7790	85.2700
 0.7800	85.2300
 0.7810	85.2600
 0.7820	85.3800
 0.7830	85.2200
 0.7840	85.2300
 0.7850	85.3700
 0.7860	85.3100
 0.7870	85.4200
 0.7880	85.2900
 0.7890	85.2500
 0.7900	85.2800
 0.7910	85.2900
 0.7920	85.4900
 0.7930	85.4400
 0.7940	85.3700
 0.7950	85.5300
 0.7960	85.3700
 0.7970	85.5000
 0.7980	85.5000
 0.7990	85.3500
 0.8000	85.5300
 0.8040	85.4600
 0.8080	85.5300
 0.8120	85.4600
 0.8160	85.4000
 0.8200	85.3500
 0.8240	85.3400
 0.8280	85.2800
 0.8320	85.2600
 0.8360	85.1500
 0.8400	85.0800
 0.8440	85.0100
 0.8480	85.1600
 0.8520	85.2400
 0.8560	85.2500
 0.8600	85.4100
 0.8640	85.4000
 0.8680	85.4000
 0.8720	85.4600
 0.8760	85.3500
 0.8800	85.3400
 0.8840	85.2900
 0.8880	85.3000
 0.8920	85.2800
 0.8960	85.2900
 0.9000	85.2500
 0.9040	85.1000
 0.9080	85.1100
 0.9120	85.0000
 0.9160	84.8400
 0.9200	84.7500
 0.9240	84.5400
 0.9280	84.2200
 0.9320	83.8800
 0.9360	83.2200
 0.9400	82.4600
 0.9440	81.5300
 0.9480	80.6900
 0.9520	79.7500
 0.9560	78.7000
 0.9600	77.6600
 0.9640	76.5200
 0.9680	76.0200
 0.9720	75.9900
 0.9760	76.3000
 0.9800	77.0400
 0.9840	78.0200
 0.9880	79.0000
 0.9920	79.8700
 0.9960	80.6500
 1.0000	80.9900
 1.0040	82.0200
 1.0080	82.5400
 1.0120	83.0700
 1.0160	83.4300
 1.0200	83.7200
 1.0240	84.0900
 1.0280	84.3600
 1.0320	84.5300
 1.0360	84.8900
 1.0400	84.9900
 1.0440	85.1600
 1.0480	85.0900
 1.0520	85.2300
 1.0560	85.2500
 1.0600	85.2500
 1.0640	85.3200
 1.0680	85.3600
 1.0720	85.3300
 1.0760	85.2000
 1.0800	85.1400
 1.0840	85.1100
 1.0880	85.0800
 1.0920	84.9200
 1.0960	84.7600
 1.1000	84.6300
 1.1040	84.3200
 1.1080	84.1200
 1.1120	83.7400
 1.1160	83.3900
 1.1200	82.9600
 1.1240	82.4100
 1.1280	81.9100
 1.1320	81.1600
 1.1360	79.9900
 1.1400	78.3500
 1.1440	76.2700
 1.1480	74.3300
 1.1520	72.7700
 1.1560	71.7100
 1.1600	71.6000
 1.1640	72.3800
 1.1680	73.7000
 1.1720	74.8600
 1.1760	75.6500
 1.1800	76.1800
 1.1840	76.6100
 1.1880	76.7100
 1.1920	76.6900
 1.1960	77.0000
 1.2000	77.3700
 1.2040	77.8900
 1.2080	78.1700
 1.2120	78.4400
 1.2160	78.6000
 1.2200	78.7300
 1.2240	78.7500
 1.2280	78.9800
 1.2320	78.9800
 1.2360	79.0900
 1.2400	79.1400
 1.2440	79.0100
 1.2480	78.9700
 1.2520	78.7100
 1.2560	78.4600
 1.2600	78.2000
 1.2640	77.8900
 1.2680	77.6000
 1.2720	77.4300
 1.2760	77.2900
 1.2800	77.2900
 1.2840	77.1700
 1.2880	76.9900
 1.2920	76.5700
 1.2960	76.1300
 1.3000	75.6800
 1.3040	75.1400
 1.3080	74.5800
 1.3120	73.7600
 1.3160	72.8700
 1.3200	71.9400
 1.3240	71.0300
 1.3280	69.9300
 1.3320	68.9400
 1.3360	67.8100
 1.3400	66.5700
 1.3440	65.2900
 1.3480	64.0000
 1.3520	62.7000
 1.3560	61.2900
 1.3600	59.9200
 1.3640	58.4100
 1.3680	56.6800
 1.3720	54.8400
 1.3760	52.6300
 1.3800	49.6200
 1.3840	46.2900
 1.3880	42.8000
 1.3920	38.9900
 1.3960	35.0500
 1.4000	31.4300
 1.4040	28.0500
 1.4080	25.3400
 1.4120	23.4800
 1.4160	22.5000
 1.4200	22.5000
 1.4240	23.3300
 1.4280	24.9700
 1.4320	26.9200
 1.4360	29.1300
 1.4400	31.2100
 1.4440	33.1500
 1.4480	34.8300
 1.4520	35.9900
 1.4560	36.8600
 1.4600	37.4200
 1.4640	37.9800
 1.4680	39.0000
 1.4720	40.6100
 1.4760	42.5200
 1.4800	44.5800
 1.4840	46.4900
 1.4880	48.1800
 1.4920	49.6800
 1.4960	51.1100
 1.5000	52.3000
 1.5040	53.6400
 1.5080	54.7400
 1.5120	55.7800
 1.5160	56.8100
 1.5200	57.7500
 1.5240	58.5900
 1.5280	59.4200
 1.5320	60.2000
 1.5360	60.9800
 1.5400	61.7100
 1.5440	62.4400
 1.5480	63.0900
 1.5520	63.6500
 1.5560	64.2400
 1.5600	64.7900
 1.5640	65.3200
 1.5680	65.9500
 1.5720	66.3400
 1.5760	66.7300
 1.5800	67.1600
 1.5840	67.5600
 1.5880	68.0000
 1.5920	68.3800
 1.5960	68.7000
 1.6000	69.0000
 1.6040	69.3100
 1.6080	69.6300
 1.6120	69.9600
 1.6160	70.2100
 1.6200	70.4700
 1.6240	70.6900
 1.6280	70.9000
 1.6320	71.1100
 1.6360	71.3800
 1.6400	71.6300
 1.6440	71.8500
 1.6480	72.1000
 1.6520	72.1300
 1.6560	72.2000
 1.6600	72.3400
 1.6640	72.4200
 1.6680	72.5400
 1.6720	72.5400
 1.6760	72.4400
 1.6800	72.3700
 1.6840	72.2700
 1.6880	72.0900
 1.6920	71.9900
 1.6960	71.7100
 1.7000	71.5000
 1.7040	71.1200
 1.7080	70.6400
 1.7120	70.0100
 1.7160	69.5500
 1.7200	68.9500
 1.7240	68.3800
 1.7280	67.6600
 1.7320	66.9400
 1.7360	66.0300
 1.7400	65.1200
 1.7440	64.2000
 1.7480	63.2100
 1.7520	62.0800
 1.7560	60.8300
 1.7600	59.5100
 1.7640	58.0900
 1.7680	56.7200
 1.7720	55.2200
 1.7760	53.6700
 1.7800	52.2200
 1.7840	50.7900
 1.7880	49.5400
 1.7920	48.3900
 1.7960	47.3300
 1.8000	46.2700
 1.8040	45.2900
 1.8080	44.4800
 1.8120	43.7700
 1.8160	43.1400
 1.8200	42.5300
 1.8240	42.1400
 1.8280	41.8700
 1.8320	41.5900
 1.8360	41.3600
 1.8400	41.1400
 1.8440	41.0800
 1.8480	40.9600
 1.8520	40.6900
 1.8560	40.1500
 1.8600	39.2500
 1.8640	37.9000
 1.8680	36.2400
 1.8720	34.1600
 1.8760	31.8500
 1.8800	29.3600
 1.8840	26.7500
 1.8880	23.8100
 1.8920	20.7300
 1.8960	17.8300
 1.9000	15.2700
 1.9040	13.1800
 1.9080	11.8800
 1.9120	11.3400
 1.9160	11.6200
 1.9200	12.6000
 1.9240	14.0800
 1.9280	15.9000
 1.9320	17.7600
 1.9360	19.4800
 1.9400	20.9100
 1.9440	22.0100
 1.9480	22.8200
 1.9520	23.4100
 1.9560	23.7600
 1.9600	24.0900
 1.9640	24.3800
 1.9680	24.8800
 1.9720	25.5400
 1.9760	26.4800
 1.9800	27.5000
 1.9840	28.6600
 1.9880	30.0400
 1.9920	31.2300
 1.9960	32.5200
 2.0000	33.7400
 2.0040	34.9000
 2.0080	36.0300
 2.0120	37.0600
 2.0160	37.9700
 2.0200	38.8600
 2.0240	39.5900
 2.0280	40.2500
 2.0320	40.9300
 2.0360	41.5200
 2.0400	42.1200
 2.0440	42.5800
 2.0480	42.9800
 2.0520	43.4200
 2.0560	43.5700
 2.0600	43.9500
 2.0640	44.1300
 2.0680	44.3400
 2.0720	44.4500
 2.0760	44.5500
 2.0800	44.5600
 2.0840	44.6200
 2.0880	44.5400
 2.0920	44.5300
 2.0960	44.4600
 2.1000	44.3200
 2.1040	44.1100
 2.1080	43.9200
 2.1120	43.6800
 2.1160	43.2900
 2.1200	42.9100
 2.1240	42.4400
 2.1280	42.0000
 2.1320	41.4900
 2.1360	40.8800
 2.1400	40.3200
 2.1440	39.6400
 2.1480	39.0400
 2.1520	38.3600
 2.1560	37.8500
 2.1600	37.2100
 2.1640	36.6600
 2.1680	35.9200
 2.1720	35.2000
 2.1760	34.4900
 2.1800	33.7900
 2.1840	33.1400
 2.1880	32.5700
 2.1920	31.9000
 2.1960	31.4300
 2.2000	30.9500
 2.2040	30.5600
 2.2080	30.2600
 2.2120	30.1000
 2.2160	30.0300
 2.2200	30.0600
 2.2240	30.2100
 2.2280	30.4500
 2.2320	30.7100
 2.2360	31.0700
 2.2400	31.4000
 2.2440	31.6500
 2.2480	31.9500
 2.2520	32.2000
 2.2560	32.4200
 2.2600	32.5900
 2.2640	32.7000
 2.2680	32.7600
 2.2720	32.7800
 2.2760	32.7400
 2.2800	32.6900
 2.2840	32.6300
 2.2880	32.5100
 2.2920	32.1500
 2.2960	31.7500
 2.3000	31.4100
 2.3040	30.7500
 2.3080	30.2300
 2.3120	29.6500
 2.3160	29.1300
 2.3200	28.5700
 2.3240	27.9000
 2.3280	27.2200
 2.3320	26.4300
 2.3360	25.5800
 2.3400	24.6900
 2.3440	23.7600
 2.3480	22.8900
 2.3520	21.9100
 2.3560	21.0500
 2.3600	20.1500
 2.3640	19.3500
 2.3680	18.6500
 2.3720	18.0300
 2.3760	17.4700
 2.3800	16.9300
 2.3840	16.5100
 2.3880	16.1600
 2.3920	15.7000
 2.3960	15.4300
 2.4000	15.1400
 2.4040	14.8600
 2.4080	14.4500
 2.4120	14.2300
 2.4160	14.0100
 2.4200	13.7500
 2.4240	13.5200
 2.4280	13.2600
 2.4320	13.0500
 2.4360	12.7800
 2.4400	12.6000
 2.4440	12.3700
 2.4480	12.1300
 2.4520	11.8600
 2.4560	11.5900
 2.4600	11.3900
 2.4640	11.0800
 2.4680	10.7800
 2.4720	10.4600
 2.4760	10.2000
 2.4800	 9.8300
 2.4840	 9.6000
 2.4880	 9.3600
 2.4920	 9.0700
 2.4960	 8.8300
 2.5000	 8.4800
