Name: Brucite Mg(OH)_2
Type: Mineral
Class: Hydroxide
Subclass: None
Particle Size: Fine
Sample No.: OH-1A
Owner: JPL
Wavelength Range: VSWIR
Origin: USA, Nevada, Nye County, Gabbs
Collection Date: N/A
Description: Particle size was 0-45um.Collected by JPL Original ASTER Spectral Library name was jpl.beckman.mineral.hydroxide.none.fine.oh01a.spectrum.txt
Measurement: Hemispherical reflectance
First Column: X
Second Column: Y
X Units: Wavelength (micrometers)
Y Units:Reflectance (percent)
First X Value:  0.4000
Last X Value:  2.5000
Number of X Values: 826
Additional Information: mineral.hydroxide.none.fine.vswir.oh-1a.jpl.beckman.ancillary.txt

 0.4000	76.5400
 0.4010	76.8900
 0.4020	76.5400
 0.4030	76.9400
 0.4040	77.4500
 0.4050	78.1500
 0.4060	78.8300
 0.4070	78.4400
 0.4080	78.6100
 0.4090	79.0100
 0.4100	79.6400
 0.4110	80.5000
 0.4120	80.2100
 0.4130	80.2100
 0.4140	80.3300
 0.4150	80.9100
 0.4160	81.3100
 0.4170	81.7100
 0.4180	81.5400
 0.4190	81.2000
 0.4200	81.6500
 0.4210	82.1700
 0.4220	82.5200
 0.4230	82.4000
 0.4240	82.0000
 0.4250	82.3400
 0.4260	82.6300
 0.4270	83.3200
 0.4280	83.4900
 0.4290	83.0300
 0.4300	83.2000
 0.4310	83.7200
 0.4320	84.1900
 0.4330	84.7000
 0.4340	84.4100
 0.4350	84.2400
 0.4360	84.4600
 0.4370	84.8100
 0.4380	85.5100
 0.4390	85.2700
 0.4400	85.1000
 0.4410	85.3300
 0.4420	86.0200
 0.4430	86.7700
 0.4440	86.2500
 0.4450	86.0700
 0.4460	85.9600
 0.4470	86.4200
 0.4480	87.2300
 0.4490	87.1200
 0.4500	87.1700
 0.4510	86.7100
 0.4520	87.1700
 0.4530	88.0400
 0.4540	88.2200
 0.4550	87.9800
 0.4560	87.4100
 0.4570	87.8100
 0.4580	88.5100
 0.4590	88.7400
 0.4600	88.5100
 0.4610	88.6800
 0.4620	88.5600
 0.4630	88.6900
 0.4640	89.0400
 0.4650	89.6700
 0.4660	89.2700
 0.4670	88.8600
 0.4680	89.0500
 0.4690	89.3900
 0.4700	89.9000
 0.4710	89.7900
 0.4720	89.3400
 0.4730	89.0000
 0.4740	89.5100
 0.4750	90.1500
 0.4760	89.7400
 0.4770	89.8000
 0.4780	89.4000
 0.4790	89.5800
 0.4800	90.1000
 0.4810	90.5000
 0.4820	89.9800
 0.4830	89.8200
 0.4840	89.8200
 0.4850	90.0500
 0.4860	90.7300
 0.4870	90.6300
 0.4880	90.1200
 0.4890	89.9400
 0.4900	90.1200
 0.4910	90.5200
 0.4920	90.9800
 0.4930	90.5200
 0.4940	90.1900
 0.4950	90.3000
 0.4960	90.4700
 0.4970	91.0400
 0.4980	90.8200
 0.4990	90.5300
 0.5000	90.3000
 0.5010	90.7100
 0.5020	91.0000
 0.5030	91.2900
 0.5040	90.8800
 0.5050	90.3600
 0.5060	90.4200
 0.5070	90.9400
 0.5080	91.4600
 0.5090	91.2300
 0.5100	90.5300
 0.5110	90.5900
 0.5120	90.8200
 0.5130	91.2900
 0.5140	91.9200
 0.5150	91.4000
 0.5160	90.9400
 0.5170	90.7600
 0.5180	91.0500
 0.5190	91.5700
 0.5200	91.4600
 0.5210	91.0500
 0.5220	90.7600
 0.5230	90.9400
 0.5240	91.3400
 0.5250	91.9700
 0.5260	91.4600
 0.5270	91.2300
 0.5280	91.2900
 0.5290	91.1700
 0.5300	91.7500
 0.5310	92.2000
 0.5320	91.8100
 0.5330	91.4000
 0.5340	91.0500
 0.5350	91.5200
 0.5360	91.9200
 0.5370	92.0300
 0.5380	91.5700
 0.5390	91.4600
 0.5400	91.3400
 0.5410	91.8100
 0.5420	92.2000
 0.5430	92.2000
 0.5440	91.8100
 0.5450	91.5200
 0.5460	91.5700
 0.5470	91.7500
 0.5480	92.4300
 0.5490	92.2600
 0.5500	91.8600
 0.5510	91.4600
 0.5520	92.0300
 0.5530	92.3700
 0.5540	92.6100
 0.5550	91.9700
 0.5560	91.8600
 0.5570	91.9200
 0.5580	92.1400
 0.5590	92.0900
 0.5600	92.7200
 0.5610	92.5500
 0.5620	92.0300
 0.5630	91.9200
 0.5640	92.4300
 0.5650	92.9000
 0.5660	92.8400
 0.5670	92.4300
 0.5680	91.8100
 0.5690	92.3700
 0.5700	92.6100
 0.5710	92.9000
 0.5720	92.4300
 0.5730	91.8600
 0.5740	92.2600
 0.5750	92.5500
 0.5760	92.7800
 0.5770	92.7200
 0.5780	92.1400
 0.5790	92.2600
 0.5800	92.4900
 0.5810	93.0700
 0.5820	92.7200
 0.5830	92.2600
 0.5840	91.8100
 0.5850	92.6100
 0.5860	92.7200
 0.5870	92.7800
 0.5880	92.6600
 0.5890	92.2000
 0.5900	92.2600
 0.5910	92.4900
 0.5920	92.9000
 0.5930	93.1900
 0.5940	92.5500
 0.5950	92.1400
 0.5960	92.5500
 0.5970	92.7800
 0.5980	93.4200
 0.5990	93.1800
 0.6000	92.6600
 0.6010	92.6600
 0.6020	93.1300
 0.6030	93.6400
 0.6040	93.1300
 0.6050	92.6600
 0.6060	92.4900
 0.6070	93.0100
 0.6080	93.5300
 0.6090	93.3600
 0.6100	93.3000
 0.6110	92.9500
 0.6120	92.7200
 0.6130	93.3600
 0.6140	93.4200
 0.6150	93.4200
 0.6160	92.9500
 0.6170	92.6100
 0.6180	93.2400
 0.6190	93.4700
 0.6200	93.5300
 0.6210	93.1300
 0.6220	92.8400
 0.6230	93.1900
 0.6240	93.4200
 0.6250	93.8700
 0.6260	93.3600
 0.6270	93.0700
 0.6280	92.9500
 0.6290	93.4200
 0.6300	93.5900
 0.6310	93.5300
 0.6320	93.1300
 0.6330	92.9000
 0.6340	93.3000
 0.6350	93.5300
 0.6360	93.4700
 0.6370	93.6400
 0.6380	92.8400
 0.6390	93.0100
 0.6400	93.0100
 0.6410	93.4700
 0.6420	93.7500
 0.6430	93.4700
 0.6440	93.0700
 0.6450	93.3600
 0.6460	93.7000
 0.6470	93.9900
 0.6480	93.5900
 0.6490	93.2400
 0.6500	93.1900
 0.6510	93.6400
 0.6520	93.9900
 0.6530	93.8700
 0.6540	93.5900
 0.6550	92.9500
 0.6560	93.2400
 0.6570	93.5900
 0.6580	93.8700
 0.6590	93.7500
 0.6600	93.4700
 0.6610	92.9500
 0.6620	93.5300
 0.6630	93.7500
 0.6640	94.3900
 0.6650	93.9300
 0.6660	93.4200
 0.6670	93.5300
 0.6680	93.8700
 0.6690	94.2200
 0.6700	94.2200
 0.6710	93.9300
 0.6720	93.1300
 0.6730	93.6400
 0.6740	93.9300
 0.6750	93.8700
 0.6760	93.8700
 0.6770	93.7500
 0.6780	93.4700
 0.6790	93.7500
 0.6800	93.8700
 0.6810	94.2200
 0.6820	94.1600
 0.6830	93.5300
 0.6840	93.7000
 0.6850	94.1000
 0.6860	94.5100
 0.6870	94.2700
 0.6880	93.9300
 0.6890	93.4200
 0.6900	93.9900
 0.6910	94.3900
 0.6920	94.1600
 0.6930	94.1600
 0.6940	93.7000
 0.6950	93.7000
 0.6960	94.2200
 0.6970	94.3300
 0.6980	94.0400
 0.6990	93.9900
 0.7000	94.3900
 0.7010	93.9900
 0.7020	93.5900
 0.7030	93.9300
 0.7040	94.2200
 0.7050	94.5600
 0.7060	94.2700
 0.7070	93.7500
 0.7080	93.9300
 0.7090	94.1000
 0.7100	94.3900
 0.7110	94.7400
 0.7120	94.1600
 0.7130	93.9300
 0.7140	94.1600
 0.7150	94.5600
 0.7160	94.8000
 0.7170	94.5100
 0.7180	93.9900
 0.7190	94.0400
 0.7200	94.5100
 0.7210	94.8000
 0.7220	94.6800
 0.7230	94.1600
 0.7240	93.9900
 0.7250	94.2200
 0.7260	94.6800
 0.7270	94.6200
 0.7280	94.1600
 0.7290	93.5300
 0.7300	93.7500
 0.7310	94.1600
 0.7320	94.2200
 0.7330	94.0400
 0.7340	93.4700
 0.7350	93.9300
 0.7360	94.5100
 0.7370	94.5100
 0.7380	94.3900
 0.7390	93.8100
 0.7400	94.0400
 0.7410	94.2700
 0.7420	94.6200
 0.7430	94.5600
 0.7440	93.8700
 0.7450	93.9900
 0.7460	94.1000
 0.7470	94.3900
 0.7480	94.7400
 0.7490	94.2700
 0.7500	93.8700
 0.7510	93.8100
 0.7520	94.1600
 0.7530	94.6800
 0.7540	94.6800
 0.7550	94.0400
 0.7560	93.8700
 0.7570	94.1600
 0.7580	94.3900
 0.7590	94.3900
 0.7600	94.1600
 0.7610	93.6400
 0.7620	94.1600
 0.7630	94.3900
 0.7640	94.5100
 0.7650	94.5100
 0.7660	93.5300
 0.7670	94.1000
 0.7680	94.3900
 0.7690	94.3300
 0.7700	94.5100
 0.7710	93.5900
 0.7720	93.7500
 0.7730	93.9900
 0.7740	94.3900
 0.7750	94.2700
 0.7760	93.8700
 0.7770	93.8100
 0.7780	93.9900
 0.7790	94.2200
 0.7800	94.3300
 0.7810	94.0400
 0.7820	93.6400
 0.7830	93.8100
 0.7840	94.1600
 0.7850	94.5100
 0.7860	94.1600
 0.7870	93.7500
 0.7880	93.5300
 0.7890	93.7500
 0.7900	94.2200
 0.7910	94.2700
 0.7920	93.9300
 0.7930	93.4200
 0.7940	93.7000
 0.7950	94.0400
 0.7960	94.1600
 0.7970	93.8700
 0.7980	93.2400
 0.7990	93.5900
 0.8000	93.6300
 0.8040	93.8100
 0.8080	93.5300
 0.8120	93.5900
 0.8160	93.3000
 0.8200	93.4200
 0.8240	93.4700
 0.8280	93.3000
 0.8320	93.2400
 0.8360	93.0100
 0.8400	93.1900
 0.8440	92.9500
 0.8480	93.0700
 0.8520	93.0100
 0.8560	92.9000
 0.8600	93.1900
 0.8640	92.7200
 0.8680	92.7800
 0.8720	92.8400
 0.8760	92.7800
 0.8800	92.9000
 0.8840	92.6600
 0.8880	92.9000
 0.8920	92.6600
 0.8960	92.7800
 0.9000	92.6100
 0.9040	92.7800
 0.9080	92.8400
 0.9120	92.4300
 0.9160	92.5500
 0.9200	92.3200
 0.9240	92.7200
 0.9280	92.5500
 0.9320	92.7800
 0.9360	92.4300
 0.9400	92.0900
 0.9440	91.2300
 0.9480	90.0800
 0.9520	90.2000
 0.9560	90.8800
 0.9600	92.0900
 0.9640	92.3700
 0.9680	92.6100
 0.9720	92.7800
 0.9760	92.7200
 0.9800	93.0100
 0.9840	92.7800
 0.9880	92.9500
 0.9920	92.7800
 0.9960	92.9000
 1.0000	92.9000
 1.0040	92.9500
 1.0080	92.6600
 1.0120	92.9000
 1.0160	92.7800
 1.0200	92.7800
 1.0240	92.8400
 1.0280	92.7800
 1.0320	92.8400
 1.0360	92.9500
 1.0400	93.0100
 1.0440	93.1300
 1.0480	92.9000
 1.0520	92.9000
 1.0560	92.8400
 1.0600	93.0700
 1.0640	92.8400
 1.0680	93.0700
 1.0720	93.1300
 1.0760	93.1300
 1.0800	93.1300
 1.0840	92.9000
 1.0880	93.2400
 1.0920	93.0700
 1.0960	93.3600
 1.1000	93.1900
 1.1040	93.2400
 1.1080	93.3600
 1.1120	93.4700
 1.1160	93.6400
 1.1200	93.5300
 1.1240	93.7500
 1.1280	93.7000
 1.1320	93.6400
 1.1360	93.7000
 1.1400	93.6400
 1.1440	93.7500
 1.1480	93.7500
 1.1520	93.8100
 1.1560	93.8000
 1.1600	93.6900
 1.1640	93.7300
 1.1680	93.6100
 1.1720	93.7200
 1.1760	93.7100
 1.1800	93.8800
 1.1840	93.7500
 1.1880	93.9700
 1.1920	93.8000
 1.1960	93.7900
 1.2000	93.9500
 1.2040	93.8400
 1.2080	93.9000
 1.2120	93.7200
 1.2160	93.7800
 1.2200	93.6600
 1.2240	93.6600
 1.2280	93.7800
 1.2320	93.5500
 1.2360	93.6600
 1.2400	93.5500
 1.2440	93.4300
 1.2480	93.6600
 1.2520	93.4300
 1.2560	93.7700
 1.2600	93.7000
 1.2640	93.7500
 1.2680	93.7400
 1.2720	93.7400
 1.2760	93.4400
 1.2800	92.9800
 1.2840	92.9700
 1.2880	92.3800
 1.2920	92.0400
 1.2960	91.6800
 1.3000	92.1400
 1.3040	92.4600
 1.3080	92.5200
 1.3120	92.6300
 1.3160	92.4500
 1.3200	92.6200
 1.3240	92.4900
 1.3280	92.4800
 1.3320	92.3100
 1.3360	92.0100
 1.3400	92.1700
 1.3440	91.9900
 1.3480	91.8200
 1.3520	89.8600
 1.3560	86.9900
 1.3600	85.7300
 1.3640	87.7900
 1.3680	89.0000
 1.3720	88.0800
 1.3760	86.4700
 1.3800	84.3500
 1.3840	81.4900
 1.3880	74.4300
 1.3920	66.9800
 1.3960	66.9200
 1.4000	74.8400
 1.4040	83.5000
 1.4080	87.8100
 1.4120	89.2500
 1.4160	90.1800
 1.4200	90.5800
 1.4240	91.1100
 1.4280	91.3000
 1.4320	91.1800
 1.4360	91.6400
 1.4400	91.8300
 1.4440	92.3000
 1.4480	92.3700
 1.4520	92.3700
 1.4560	92.6500
 1.4600	92.5300
 1.4640	92.6500
 1.4680	92.6500
 1.4720	92.7600
 1.4760	93.0000
 1.4800	92.8800
 1.4840	93.0500
 1.4880	92.9400
 1.4920	93.2300
 1.4960	93.3400
 1.5000	93.3400
 1.5040	93.6200
 1.5080	93.4600
 1.5120	93.5200
 1.5160	93.8000
 1.5200	93.4600
 1.5240	93.6800
 1.5280	93.5700
 1.5320	93.6800
 1.5360	93.6800
 1.5400	93.6200
 1.5440	93.6200
 1.5480	93.4600
 1.5520	93.6800
 1.5560	93.6200
 1.5600	93.6200
 1.5640	93.8000
 1.5680	93.5700
 1.5720	93.5700
 1.5760	93.4600
 1.5800	93.6800
 1.5840	93.5700
 1.5880	93.5700
 1.5920	93.5700
 1.5960	93.2800
 1.6000	93.6200
 1.6040	93.3900
 1.6080	93.3200
 1.6120	93.2100
 1.6160	93.3100
 1.6200	93.2400
 1.6240	93.1200
 1.6280	92.9900
 1.6320	92.8200
 1.6360	93.0400
 1.6400	92.6900
 1.6440	92.8600
 1.6480	92.7300
 1.6520	92.6700
 1.6560	92.5500
 1.6600	92.2500
 1.6640	92.5900
 1.6680	92.3400
 1.6720	92.2900
 1.6760	92.3900
 1.6800	92.1600
 1.6840	92.1500
 1.6880	91.9100
 1.6920	91.7900
 1.6960	91.9000
 1.7000	91.6600
 1.7040	91.7200
 1.7080	91.6000
 1.7120	91.4400
 1.7160	91.6000
 1.7200	91.1500
 1.7240	91.2600
 1.7280	90.8600
 1.7320	90.8000
 1.7360	90.9200
 1.7400	90.5800
 1.7440	90.8000
 1.7480	90.5200
 1.7520	90.5200
 1.7560	90.3500
 1.7600	90.1700
 1.7640	90.2300
 1.7680	90.0000
 1.7720	90.1200
 1.7760	89.8300
 1.7800	89.7100
 1.7840	89.6000
 1.7880	89.6000
 1.7920	89.4300
 1.7960	89.4300
 1.8000	89.3700
 1.8040	89.0500
 1.8080	88.9200
 1.8120	88.7000
 1.8160	88.8000
 1.8200	88.3600
 1.8240	88.4500
 1.8280	87.9700
 1.8320	88.0500
 1.8360	87.7900
 1.8400	87.6000
 1.8440	87.3400
 1.8480	87.0900
 1.8520	87.0100
 1.8560	86.4300
 1.8600	86.4300
 1.8640	86.1300
 1.8680	85.7800
 1.8720	85.4900
 1.8760	84.9700
 1.8800	84.9600
 1.8840	84.5600
 1.8880	84.4900
 1.8920	84.0400
 1.8960	83.5700
 1.9000	83.1000
 1.9040	82.7500
 1.9080	82.5200
 1.9120	81.8900
 1.9160	82.0600
 1.9200	81.5900
 1.9240	81.4700
 1.9280	81.2300
 1.9320	81.1700
 1.9360	81.3300
 1.9400	81.0400
 1.9440	81.0900
 1.9480	80.9700
 1.9520	80.9100
 1.9560	81.0500
 1.9600	80.8600
 1.9640	80.8500
 1.9680	80.7100
 1.9720	80.4600
 1.9760	80.3800
 1.9800	80.1400
 1.9840	80.0600
 1.9880	79.7000
 1.9920	79.6300
 1.9960	79.1500
 2.0000	78.7900
 2.0040	78.6100
 2.0080	78.2600
 2.0120	78.1700
 2.0160	77.9000
 2.0200	77.5900
 2.0240	77.4700
 2.0280	77.2300
 2.0320	77.1900
 2.0360	77.1100
 2.0400	76.8400
 2.0440	76.7800
 2.0480	76.4400
 2.0520	76.3900
 2.0560	76.2500
 2.0600	76.0500
 2.0640	76.1800
 2.0680	75.9900
 2.0720	76.0000
 2.0760	75.9200
 2.0800	75.8900
 2.0840	75.9100
 2.0880	75.7700
 2.0920	75.7400
 2.0960	75.6500
 2.1000	75.7800
 2.1040	75.4700
 2.1080	75.5600
 2.1120	75.5300
 2.1160	75.5500
 2.1200	75.4100
 2.1240	75.4000
 2.1280	75.4500
 2.1320	75.4200
 2.1360	75.7000
 2.1400	75.6500
 2.1440	75.8400
 2.1480	75.7700
 2.1520	75.4200
 2.1560	75.2600
 2.1600	74.9200
 2.1640	74.4100
 2.1680	73.6000
 2.1720	73.0700
 2.1760	72.0900
 2.1800	71.4500
 2.1840	70.6600
 2.1880	69.9300
 2.1920	69.0900
 2.1960	68.4100
 2.2000	68.1300
 2.2040	67.3300
 2.2080	66.8300
 2.2120	66.2200
 2.2160	65.6800
 2.2200	65.1900
 2.2240	64.6300
 2.2280	64.2400
 2.2320	63.6500
 2.2360	63.1800
 2.2400	62.8700
 2.2440	62.3600
 2.2480	62.3000
 2.2520	62.0100
 2.2560	61.7600
 2.2600	61.6100
 2.2640	61.3300
 2.2680	61.0000
 2.2720	60.4700
 2.2760	60.4500
 2.2800	59.7500
 2.2840	58.9300
 2.2880	58.2400
 2.2920	57.1800
 2.2960	56.2400
 2.3000	55.2900
 2.3040	54.7000
 2.3080	54.0100
 2.3120	53.7600
 2.3160	53.9100
 2.3200	54.1600
 2.3240	54.8500
 2.3280	55.8700
 2.3320	57.0000
 2.3360	58.4000
 2.3400	59.7600
 2.3440	61.3000
 2.3480	62.3300
 2.3520	63.2500
 2.3560	64.0700
 2.3600	64.7000
 2.3640	65.3500
 2.3680	65.4300
 2.3720	65.7000
 2.3760	65.4700
 2.3800	65.3100
 2.3840	64.8400
 2.3880	64.0800
 2.3920	63.0700
 2.3960	61.7900
 2.4000	60.2300
 2.4040	58.1100
 2.4080	55.9900
 2.4120	53.2100
 2.4160	50.8100
 2.4200	47.9600
 2.4240	45.4000
 2.4280	42.8400
 2.4320	40.6100
 2.4360	38.5500
 2.4400	36.2700
 2.4440	34.5300
 2.4480	32.6900
 2.4520	31.1900
 2.4560	29.9100
 2.4600	28.7400
 2.4640	27.8500
 2.4680	27.1800
 2.4720	26.8500
 2.4760	26.6700
 2.4800	27.0100
 2.4840	27.2800
 2.4880	27.8900
 2.4920	28.4400
 2.4960	29.2200
 2.5000	30.0000
