Name: Tremolite Ca_2(Mg,Fe^2+)_5Si_8O_22(OH)_2
Type: Mineral
Class: Silicate
Subclass: Inosilicate
Particle Size: Medium
Sample No.: IN-5A
Owner: JPL
Wavelength Range: VSWIR
Origin: None.
Collection Date: N/A
Description: Particle size was 45-125um. Collected by:  JPL Original ASTER Spectral Library name was jpl.perkin.mineral.silicate.inosilicate.medium.in05a.spectrum.txt
Measurement: Hemispherical reflectance
First Column: X
Second Column: Y
X Units: Wavelength (micrometers)
Y Units:Reflectance (percent)
First X Value:  2.5000
Last X Value:  0.4000
Number of X Values: 2101
Additional Information: mineral.silicate.inosilicate.medium.vswir.in-5a.jpl.perkin.ancillary.txt

 2.5000	57.3014
 2.4990	57.3070
 2.4980	57.1899
 2.4970	57.2065
 2.4960	56.6596
 2.4950	56.9953
 2.4940	56.7073
 2.4930	56.6988
 2.4920	56.5430
 2.4910	56.4279
 2.4900	56.3641
 2.4890	56.2932
 2.4880	56.1847
 2.4870	56.2104
 2.4860	55.9757
 2.4850	56.0284
 2.4840	55.8186
 2.4830	55.8019
 2.4820	55.8182
 2.4810	55.7344
 2.4800	55.5788
 2.4790	55.6118
 2.4780	55.3756
 2.4770	55.3373
 2.4760	55.2940
 2.4750	55.1438
 2.4740	55.1232
 2.4730	55.0992
 2.4720	54.9551
 2.4710	55.0568
 2.4700	54.9239
 2.4690	54.8331
 2.4680	54.7894
 2.4670	54.8244
 2.4660	54.7378
 2.4650	54.8110
 2.4640	54.6474
 2.4630	54.8740
 2.4620	54.6603
 2.4610	54.7847
 2.4600	54.5935
 2.4590	54.8059
 2.4580	54.8430
 2.4570	55.0273
 2.4560	55.0314
 2.4550	55.1766
 2.4540	55.1747
 2.4530	55.2747
 2.4520	55.2892
 2.4510	55.4039
 2.4500	55.5111
 2.4490	55.7355
 2.4480	55.7846
 2.4470	55.9737
 2.4460	56.0022
 2.4450	56.1885
 2.4440	56.4116
 2.4430	56.5687
 2.4420	56.7289
 2.4410	56.9694
 2.4400	57.0864
 2.4390	57.3055
 2.4380	57.5647
 2.4370	57.6965
 2.4360	57.9255
 2.4350	58.2442
 2.4340	58.4409
 2.4330	58.8075
 2.4320	59.0533
 2.4310	59.3136
 2.4300	59.2940
 2.4290	59.5740
 2.4280	59.6972
 2.4270	59.7870
 2.4260	59.8077
 2.4250	59.8247
 2.4240	59.8348
 2.4230	59.7374
 2.4220	59.6367
 2.4210	59.5262
 2.4200	59.4358
 2.4190	59.3129
 2.4180	59.0829
 2.4170	59.1250
 2.4160	59.0929
 2.4150	58.9849
 2.4140	58.9357
 2.4130	59.0229
 2.4120	58.9727
 2.4110	58.9291
 2.4100	58.8997
 2.4090	58.8473
 2.4080	58.7836
 2.4070	58.7024
 2.4060	58.5302
 2.4050	58.2667
 2.4040	57.9956
 2.4030	57.7770
 2.4020	57.2917
 2.4010	56.7702
 2.4000	56.1743
 2.3990	55.6055
 2.3980	54.8698
 2.3970	54.1249
 2.3960	53.2914
 2.3950	52.5133
 2.3940	51.6029
 2.3930	50.7159
 2.3920	49.7927
 2.3910	48.9586
 2.3900	48.1317
 2.3890	47.4012
 2.3880	46.7336
 2.3870	46.2386
 2.3860	45.8170
 2.3850	45.5619
 2.3840	45.3190
 2.3830	45.2418
 2.3820	45.2638
 2.3810	45.4131
 2.3800	45.7567
 2.3790	46.2212
 2.3780	46.6521
 2.3770	47.1523
 2.3760	47.8581
 2.3750	48.6756
 2.3740	49.4139
 2.3730	50.2110
 2.3720	51.0250
 2.3710	51.8725
 2.3700	52.7357
 2.3690	53.5958
 2.3680	54.4337
 2.3670	55.2322
 2.3660	55.9365
 2.3650	56.6051
 2.3640	57.2649
 2.3630	57.9662
 2.3620	58.6002
 2.3610	59.1161
 2.3600	59.5984
 2.3590	60.1257
 2.3580	60.5654
 2.3570	60.9905
 2.3560	61.4506
 2.3550	61.8430
 2.3540	62.1694
 2.3530	62.4744
 2.3520	62.7847
 2.3510	63.1399
 2.3500	63.4320
 2.3490	63.7200
 2.3480	64.0329
 2.3470	64.2200
 2.3460	64.4050
 2.3450	64.6191
 2.3440	64.8223
 2.3430	64.9116
 2.3420	64.9416
 2.3410	65.0085
 2.3400	65.0067
 2.3390	64.9141
 2.3380	64.7372
 2.3370	64.4215
 2.3360	64.0530
 2.3350	63.5885
 2.3340	62.9874
 2.3330	62.2649
 2.3320	61.3577
 2.3310	60.3626
 2.3300	59.3597
 2.3290	58.1815
 2.3280	56.9568
 2.3270	55.6017
 2.3260	54.2439
 2.3250	52.8750
 2.3240	51.4489
 2.3230	50.0343
 2.3220	48.6636
 2.3210	47.3237
 2.3200	45.9783
 2.3190	44.6691
 2.3180	43.4760
 2.3170	42.4081
 2.3160	41.5192
 2.3150	40.7609
 2.3140	40.1711
 2.3130	39.6357
 2.3120	39.2714
 2.3110	38.9661
 2.3100	38.8152
 2.3090	38.6852
 2.3080	38.6239
 2.3070	38.6490
 2.3060	38.7701
 2.3050	38.8387
 2.3040	38.9579
 2.3030	39.0903
 2.3020	39.2994
 2.3010	39.4945
 2.3000	39.6825
 2.2990	39.9367
 2.2980	40.2784
 2.2970	40.5137
 2.2960	40.8658
 2.2950	41.2605
 2.2940	41.7217
 2.2930	42.1528
 2.2920	42.7736
 2.2910	43.4146
 2.2900	44.1055
 2.2890	44.8115
 2.2880	45.5833
 2.2870	46.3453
 2.2860	47.1894
 2.2850	47.8891
 2.2840	48.7158
 2.2830	49.4434
 2.2820	50.1954
 2.2810	50.8910
 2.2800	51.6103
 2.2790	52.3340
 2.2780	52.9940
 2.2770	53.5999
 2.2760	54.3031
 2.2750	54.9551
 2.2740	55.6674
 2.2730	56.3186
 2.2720	57.1118
 2.2710	57.8314
 2.2700	58.6489
 2.2690	59.3746
 2.2680	60.1627
 2.2670	60.9238
 2.2660	61.7563
 2.2650	62.4623
 2.2640	63.2881
 2.2630	64.0167
 2.2620	64.7033
 2.2610	65.3947
 2.2600	66.0803
 2.2590	66.7306
 2.2580	67.3258
 2.2570	67.7613
 2.2560	68.3049
 2.2550	68.6805
 2.2540	69.1486
 2.2530	69.4315
 2.2520	69.6744
 2.2510	69.9555
 2.2500	70.2570
 2.2490	70.3719
 2.2480	70.6051
 2.2470	70.7025
 2.2460	70.9036
 2.2450	71.0327
 2.2440	71.0713
 2.2430	71.2255
 2.2420	71.4130
 2.2410	71.5417
 2.2400	71.6875
 2.2390	71.8126
 2.2380	71.8351
 2.2370	71.9971
 2.2360	72.0850
 2.2350	72.1866
 2.2340	72.2753
 2.2330	72.4013
 2.2320	72.4974
 2.2310	72.5900
 2.2300	72.5881
 2.2290	72.6601
 2.2280	72.7906
 2.2270	72.8291
 2.2260	72.8223
 2.2250	72.8817
 2.2240	72.9864
 2.2230	72.8037
 2.2220	73.0234
 2.2210	72.9800
 2.2200	73.0923
 2.2190	73.0213
 2.2180	73.0713
 2.2170	73.0070
 2.2160	73.1010
 2.2150	73.1214
 2.2140	73.1625
 2.2130	73.0630
 2.2120	73.2407
 2.2110	73.1315
 2.2100	73.2729
 2.2090	73.2606
 2.2080	73.1847
 2.2070	73.2272
 2.2060	73.3261
 2.2050	73.2940
 2.2040	73.3249
 2.2030	73.4322
 2.2020	73.3451
 2.2010	73.3573
 2.2000	73.4627
 2.1990	73.3569
 2.1980	73.4410
 2.1970	73.2789
 2.1960	73.4414
 2.1950	73.3438
 2.1940	73.3510
 2.1930	73.2815
 2.1920	73.3388
 2.1910	73.2878
 2.1900	73.3176
 2.1890	73.2361
 2.1880	73.2987
 2.1870	73.2603
 2.1860	73.2294
 2.1850	73.1371
 2.1840	73.1573
 2.1830	73.1616
 2.1820	73.0914
 2.1810	73.0351
 2.1800	73.0284
 2.1790	72.9833
 2.1780	72.9648
 2.1770	72.9869
 2.1760	73.1193
 2.1750	73.1228
 2.1740	73.1780
 2.1730	73.1918
 2.1720	73.2436
 2.1710	73.2439
 2.1700	73.2984
 2.1690	73.3493
 2.1680	73.3109
 2.1670	73.3367
 2.1660	73.3458
 2.1650	73.2199
 2.1640	73.2951
 2.1630	73.2549
 2.1620	73.1904
 2.1610	73.1371
 2.1600	73.1012
 2.1590	72.9654
 2.1580	72.8931
 2.1570	72.8596
 2.1560	72.7819
 2.1550	72.7189
 2.1540	72.6986
 2.1530	72.5546
 2.1520	72.4860
 2.1510	72.3801
 2.1500	72.3564
 2.1490	72.2777
 2.1480	72.1856
 2.1470	72.1088
 2.1460	72.1398
 2.1450	72.1485
 2.1440	72.1516
 2.1430	72.1117
 2.1420	72.1103
 2.1410	72.0268
 2.1400	71.9705
 2.1390	71.8706
 2.1380	71.7484
 2.1370	71.6473
 2.1360	71.4562
 2.1350	71.3122
 2.1340	71.1008
 2.1330	70.8627
 2.1320	70.6402
 2.1310	70.3893
 2.1300	70.2544
 2.1290	70.0992
 2.1280	69.9673
 2.1270	69.8268
 2.1260	69.7727
 2.1250	69.7266
 2.1240	69.7234
 2.1230	69.6146
 2.1220	69.5884
 2.1210	69.5107
 2.1200	69.4689
 2.1190	69.3373
 2.1180	69.1516
 2.1170	69.0123
 2.1160	68.8527
 2.1150	68.6396
 2.1140	68.4619
 2.1130	68.3285
 2.1120	68.3582
 2.1110	68.4246
 2.1100	68.4530
 2.1090	68.6046
 2.1080	68.9066
 2.1070	69.2753
 2.1060	69.6991
 2.1050	70.1894
 2.1040	70.7573
 2.1030	71.2310
 2.1020	71.5819
 2.1010	71.8717
 2.1000	72.1734
 2.0990	72.4766
 2.0980	72.5923
 2.0970	72.6714
 2.0960	72.7459
 2.0950	72.7020
 2.0940	72.6908
 2.0930	72.7362
 2.0920	72.7549
 2.0910	72.7005
 2.0900	72.6875
 2.0890	72.6555
 2.0880	72.6469
 2.0870	72.6287
 2.0860	72.6919
 2.0850	72.7645
 2.0840	72.7948
 2.0830	72.8718
 2.0820	72.9196
 2.0810	72.9461
 2.0800	73.0241
 2.0790	73.0867
 2.0780	73.2086
 2.0770	73.2687
 2.0760	73.3250
 2.0750	73.4173
 2.0740	73.4772
 2.0730	73.5604
 2.0720	73.6577
 2.0710	73.7407
 2.0700	73.7514
 2.0690	73.7143
 2.0680	73.7196
 2.0670	73.7705
 2.0660	73.8502
 2.0650	73.8999
 2.0640	73.8605
 2.0630	73.8695
 2.0620	73.8990
 2.0610	73.8935
 2.0600	73.9493
 2.0590	73.9481
 2.0580	73.9050
 2.0570	73.9158
 2.0560	73.9188
 2.0550	73.9616
 2.0540	74.0860
 2.0530	74.1603
 2.0520	74.1431
 2.0510	74.2167
 2.0500	74.3744
 2.0490	74.4769
 2.0480	74.5766
 2.0470	74.6905
 2.0460	74.7778
 2.0450	74.9038
 2.0440	75.0481
 2.0430	75.1570
 2.0420	75.2932
 2.0410	75.3976
 2.0400	75.4710
 2.0390	75.6086
 2.0380	75.6621
 2.0370	75.7549
 2.0360	75.7613
 2.0350	75.8616
 2.0340	75.9318
 2.0330	75.9533
 2.0320	75.9599
 2.0310	76.0645
 2.0300	76.0595
 2.0290	75.9919
 2.0280	75.9948
 2.0270	75.9833
 2.0260	75.9089
 2.0250	75.8279
 2.0240	75.7857
 2.0230	75.7489
 2.0220	75.6706
 2.0210	75.6583
 2.0200	75.5589
 2.0190	75.4639
 2.0180	75.4487
 2.0170	75.3729
 2.0160	75.2687
 2.0150	75.2393
 2.0140	75.1709
 2.0130	75.2122
 2.0120	75.1691
 2.0110	75.1113
 2.0100	75.1123
 2.0090	75.1803
 2.0080	75.1247
 2.0070	75.1530
 2.0060	75.1443
 2.0050	75.1798
 2.0040	75.2036
 2.0030	75.2609
 2.0020	75.2489
 2.0010	75.2636
 2.0000	75.3271
 1.9990	75.3589
 1.9980	75.3009
 1.9970	75.3709
 1.9960	75.4539
 1.9950	75.4466
 1.9940	75.3835
 1.9930	75.4303
 1.9920	75.4852
 1.9910	75.4671
 1.9900	75.5106
 1.9890	75.6054
 1.9880	75.6199
 1.9870	75.6690
 1.9860	75.7889
 1.9850	75.8521
 1.9840	75.8549
 1.9830	76.0012
 1.9820	75.9814
 1.9810	76.0182
 1.9800	76.0309
 1.9790	76.1065
 1.9780	76.1169
 1.9770	76.1961
 1.9760	76.2824
 1.9750	76.2710
 1.9740	76.3180
 1.9730	76.4221
 1.9720	76.3802
 1.9710	76.4251
 1.9700	76.4681
 1.9690	76.4194
 1.9680	76.5217
 1.9670	76.5161
 1.9660	76.5112
 1.9650	76.5092
 1.9640	76.6309
 1.9630	76.6809
 1.9620	76.6571
 1.9610	76.6716
 1.9600	76.6983
 1.9590	76.6842
 1.9580	76.6702
 1.9570	76.7264
 1.9560	76.7607
 1.9550	76.8554
 1.9540	76.8313
 1.9530	76.7932
 1.9520	76.7534
 1.9510	76.8801
 1.9500	76.7804
 1.9490	76.8622
 1.9480	76.7482
 1.9470	76.8327
 1.9460	76.7566
 1.9450	76.8985
 1.9440	76.8753
 1.9430	76.8640
 1.9420	76.8486
 1.9410	76.8766
 1.9400	76.8663
 1.9390	76.8925
 1.9380	76.8126
 1.9370	76.8397
 1.9360	76.9233
 1.9350	76.9679
 1.9340	76.8859
 1.9330	76.9891
 1.9320	76.9616
 1.9310	76.9309
 1.9300	76.9516
 1.9290	76.9077
 1.9280	76.9758
 1.9270	76.9746
 1.9260	76.8773
 1.9250	77.0184
 1.9240	76.9097
 1.9230	76.8700
 1.9220	76.8975
 1.9210	76.9666
 1.9200	76.9067
 1.9190	76.9650
 1.9180	76.9802
 1.9170	76.8919
 1.9160	76.9004
 1.9150	77.0095
 1.9140	76.9155
 1.9130	76.9586
 1.9120	77.0185
 1.9110	77.0811
 1.9100	77.0661
 1.9090	77.0541
 1.9080	77.0112
 1.9070	77.0527
 1.9060	77.0296
 1.9050	77.0909
 1.9040	77.0510
 1.9030	77.3038
 1.9020	77.2431
 1.9010	77.2476
 1.9000	77.3279
 1.8990	77.3715
 1.8980	77.4427
 1.8970	77.4334
 1.8960	77.5082
 1.8950	77.5903
 1.8940	77.5436
 1.8930	77.6588
 1.8920	77.7020
 1.8910	77.7963
 1.8900	77.7861
 1.8890	77.8125
 1.8880	77.8510
 1.8870	77.8777
 1.8860	77.9607
 1.8850	77.9466
 1.8840	77.9654
 1.8830	77.9168
 1.8820	77.9741
 1.8810	78.0236
 1.8800	77.9516
 1.8790	77.9983
 1.8780	77.9780
 1.8770	77.9715
 1.8760	77.9976
 1.8750	77.9797
 1.8740	78.0115
 1.8730	77.9534
 1.8720	78.0483
 1.8710	78.0665
 1.8700	78.0184
 1.8690	78.0784
 1.8680	78.0649
 1.8670	78.0879
 1.8660	78.0566
 1.8650	78.0867
 1.8640	78.0780
 1.8630	78.0628
 1.8620	78.0522
 1.8610	78.0372
 1.8600	78.0154
 1.8590	78.1073
 1.8580	78.0828
 1.8570	78.0903
 1.8560	78.0551
 1.8550	78.0495
 1.8540	78.1315
 1.8530	78.1870
 1.8520	78.1931
 1.8510	78.2073
 1.8500	78.1507
 1.8490	78.2099
 1.8480	78.2398
 1.8470	78.2592
 1.8460	78.2837
 1.8450	78.3438
 1.8440	78.3573
 1.8430	78.4326
 1.8420	78.4470
 1.8410	78.4178
 1.8400	78.3907
 1.8390	78.4614
 1.8380	78.4905
 1.8370	78.5002
 1.8360	78.4659
 1.8350	78.5447
 1.8340	78.5448
 1.8330	78.5601
 1.8320	78.5718
 1.8310	78.6103
 1.8300	78.6145
 1.8290	78.6362
 1.8280	78.6687
 1.8270	78.6937
 1.8260	78.6760
 1.8250	78.7018
 1.8240	78.6766
 1.8230	78.7315
 1.8220	78.7421
 1.8210	78.7703
 1.8200	78.7668
 1.8190	78.7717
 1.8180	78.8077
 1.8170	78.8484
 1.8160	78.8744
 1.8150	78.8975
 1.8140	78.9017
 1.8130	78.9146
 1.8120	78.9178
 1.8110	78.9548
 1.8100	78.9294
 1.8090	78.9339
 1.8080	79.0028
 1.8070	79.0973
 1.8060	79.0606
 1.8050	79.0113
 1.8040	79.0775
 1.8030	79.0746
 1.8020	79.0637
 1.8010	79.0827
 1.8000	79.1166
 1.7990	79.1458
 1.7980	79.1513
 1.7970	79.0876
 1.7960	79.0732
 1.7950	79.1400
 1.7940	79.0741
 1.7930	79.0694
 1.7920	79.1369
 1.7910	79.0989
 1.7900	79.0860
 1.7890	79.1175
 1.7880	79.1369
 1.7870	79.0967
 1.7860	79.1061
 1.7850	79.1428
 1.7840	79.0715
 1.7830	79.0296
 1.7820	79.0555
 1.7810	79.0674
 1.7800	79.1145
 1.7790	79.1309
 1.7780	79.1377
 1.7770	79.1315
 1.7760	79.0789
 1.7750	79.0792
 1.7740	79.0807
 1.7730	79.0759
 1.7720	79.1081
 1.7710	79.0721
 1.7700	79.0948
 1.7690	79.0950
 1.7680	79.0918
 1.7670	79.1158
 1.7660	79.0868
 1.7650	79.1073
 1.7640	79.1501
 1.7630	79.1358
 1.7620	79.0552
 1.7610	79.0419
 1.7600	79.0711
 1.7590	79.0690
 1.7580	79.0996
 1.7570	79.1646
 1.7560	79.1225
 1.7550	79.1220
 1.7540	79.1195
 1.7530	79.1179
 1.7520	79.1110
 1.7510	79.1201
 1.7500	79.1262
 1.7490	79.1208
 1.7480	79.1780
 1.7470	79.1671
 1.7460	79.1504
 1.7450	79.1435
 1.7440	79.1494
 1.7430	79.1922
 1.7420	79.2415
 1.7410	79.1907
 1.7400	79.1982
 1.7390	79.1968
 1.7380	79.2409
 1.7370	79.2599
 1.7360	79.2547
 1.7350	79.1764
 1.7340	79.2463
 1.7330	79.2763
 1.7320	79.2702
 1.7310	79.3127
 1.7300	79.2903
 1.7290	79.2134
 1.7280	79.2771
 1.7270	79.3272
 1.7260	79.2614
 1.7250	79.2523
 1.7240	79.2554
 1.7230	79.2687
 1.7220	79.2543
 1.7210	79.2312
 1.7200	79.2792
 1.7190	79.3073
 1.7180	79.3148
 1.7170	79.3298
 1.7160	79.2938
 1.7150	79.2588
 1.7140	79.3087
 1.7130	79.2777
 1.7120	79.3076
 1.7110	79.3050
 1.7100	79.3343
 1.7090	79.3033
 1.7080	79.2615
 1.7070	79.2885
 1.7060	79.2956
 1.7050	79.2740
 1.7040	79.2725
 1.7030	79.2360
 1.7020	79.3241
 1.7010	79.2346
 1.7000	79.2108
 1.6990	79.1987
 1.6980	79.3176
 1.6970	79.2837
 1.6960	79.3386
 1.6950	79.2641
 1.6940	79.3698
 1.6930	79.3317
 1.6920	79.3708
 1.6910	79.2758
 1.6900	79.2750
 1.6890	79.3034
 1.6880	79.3092
 1.6870	79.3164
 1.6860	79.2976
 1.6850	79.2901
 1.6840	79.3188
 1.6830	79.3340
 1.6820	79.2447
 1.6810	79.3068
 1.6800	79.2965
 1.6790	79.2765
 1.6780	79.3660
 1.6770	79.3952
 1.6760	79.3757
 1.6750	79.3794
 1.6740	79.2961
 1.6730	79.2237
 1.6720	79.2927
 1.6710	79.2072
 1.6700	79.3256
 1.6690	79.3345
 1.6680	79.2657
 1.6670	79.2959
 1.6660	79.3023
 1.6650	79.2569
 1.6640	79.3077
 1.6630	79.2727
 1.6620	79.3283
 1.6610	79.2964
 1.6600	79.3042
 1.6590	79.1974
 1.6580	79.2983
 1.6570	79.3030
 1.6560	79.1669
 1.6550	79.2570
 1.6540	79.3452
 1.6530	79.3534
 1.6520	79.2927
 1.6510	79.3044
 1.6500	79.4072
 1.6490	79.2566
 1.6480	79.3451
 1.6470	79.2601
 1.6460	79.4038
 1.6450	79.2975
 1.6440	79.2899
 1.6430	79.3311
 1.6420	79.3985
 1.6410	79.2844
 1.6400	79.3941
 1.6390	79.3035
 1.6380	79.2714
 1.6370	79.3176
 1.6360	79.2449
 1.6350	79.3625
 1.6340	79.2536
 1.6330	79.2995
 1.6320	79.2611
 1.6310	79.2708
 1.6300	79.2881
 1.6290	79.2681
 1.6280	79.3295
 1.6270	79.2715
 1.6260	79.3222
 1.6250	79.2881
 1.6240	79.4247
 1.6230	79.3362
 1.6220	79.3847
 1.6210	79.3192
 1.6200	79.4115
 1.6190	79.3476
 1.6180	79.4160
 1.6170	79.3512
 1.6160	79.3180
 1.6150	79.3273
 1.6140	79.3979
 1.6130	79.3335
 1.6120	79.3842
 1.6110	79.3660
 1.6100	79.3336
 1.6090	79.3926
 1.6080	79.3963
 1.6070	79.3169
 1.6060	79.3889
 1.6050	79.2608
 1.6040	79.3969
 1.6030	79.3286
 1.6020	79.3964
 1.6010	79.3156
 1.6000	79.3630
 1.5990	79.3538
 1.5980	79.3734
 1.5970	79.3275
 1.5960	79.3742
 1.5950	79.3318
 1.5940	79.3019
 1.5930	79.3545
 1.5920	79.3519
 1.5910	79.2991
 1.5900	79.2944
 1.5890	79.2659
 1.5880	79.3937
 1.5870	79.4091
 1.5860	79.3800
 1.5850	79.3160
 1.5840	79.3344
 1.5830	79.3175
 1.5820	79.3897
 1.5810	79.3797
 1.5800	79.3400
 1.5790	79.3430
 1.5780	79.3190
 1.5770	79.3306
 1.5760	79.4020
 1.5750	79.3318
 1.5740	79.2971
 1.5730	79.3588
 1.5720	79.3354
 1.5710	79.3028
 1.5700	79.3390
 1.5690	79.2817
 1.5680	79.2801
 1.5670	79.3045
 1.5660	79.3728
 1.5650	79.3466
 1.5640	79.3513
 1.5630	79.2993
 1.5620	79.3348
 1.5610	79.2746
 1.5600	79.2910
 1.5590	79.3309
 1.5580	79.3253
 1.5570	79.2433
 1.5560	79.2782
 1.5550	79.2498
 1.5540	79.2609
 1.5530	79.2320
 1.5520	79.2763
 1.5510	79.2541
 1.5500	79.2227
 1.5490	79.2470
 1.5480	79.2355
 1.5470	79.1816
 1.5460	79.1690
 1.5450	79.1541
 1.5440	79.1595
 1.5430	79.1195
 1.5420	79.0807
 1.5410	79.0713
 1.5400	79.0620
 1.5390	79.0588
 1.5380	79.0319
 1.5370	79.0485
 1.5360	79.1011
 1.5350	79.1429
 1.5340	79.1449
 1.5330	79.0936
 1.5320	79.1114
 1.5310	79.1301
 1.5300	79.1036
 1.5290	79.0850
 1.5280	79.1134
 1.5270	79.1406
 1.5260	79.1585
 1.5250	79.1778
 1.5240	79.2104
 1.5230	79.2524
 1.5220	79.2514
 1.5210	79.2274
 1.5200	79.1691
 1.5190	79.1500
 1.5180	79.1893
 1.5170	79.2241
 1.5160	79.2420
 1.5150	79.1740
 1.5140	79.1103
 1.5130	79.1449
 1.5120	79.1807
 1.5110	79.0952
 1.5100	79.0655
 1.5090	79.1444
 1.5080	79.1999
 1.5070	79.1294
 1.5060	79.0706
 1.5050	79.0927
 1.5040	79.1111
 1.5030	79.0577
 1.5020	79.0209
 1.5010	79.0312
 1.5000	79.0055
 1.4990	79.0276
 1.4980	79.0657
 1.4970	79.1016
 1.4960	79.0704
 1.4950	79.0666
 1.4940	79.1632
 1.4930	79.1231
 1.4920	79.1010
 1.4910	79.1129
 1.4900	79.0798
 1.4890	79.0695
 1.4880	79.0912
 1.4870	79.1249
 1.4860	79.0838
 1.4850	79.0387
 1.4840	79.0253
 1.4830	79.0354
 1.4820	79.0104
 1.4810	78.9521
 1.4800	78.8876
 1.4790	78.8626
 1.4780	78.8587
 1.4770	78.8242
 1.4760	78.7061
 1.4750	78.6252
 1.4740	78.5464
 1.4730	78.4866
 1.4720	78.4764
 1.4710	78.4604
 1.4700	78.5060
 1.4690	78.6716
 1.4680	78.7503
 1.4670	78.8186
 1.4660	78.8791
 1.4650	78.9080
 1.4640	78.8925
 1.4630	78.9358
 1.4620	78.9394
 1.4610	78.9855
 1.4600	78.9865
 1.4590	78.9682
 1.4580	78.9874
 1.4570	78.9253
 1.4560	78.9086
 1.4550	78.9256
 1.4540	78.9188
 1.4530	78.8937
 1.4520	78.9681
 1.4510	78.9419
 1.4500	78.8460
 1.4490	78.8848
 1.4480	78.9087
 1.4470	78.9576
 1.4460	78.9016
 1.4450	78.9307
 1.4440	78.9038
 1.4430	78.9223
 1.4420	78.8774
 1.4410	78.8717
 1.4400	78.8782
 1.4390	78.8909
 1.4380	78.8248
 1.4370	78.8080
 1.4360	78.8043
 1.4350	78.8195
 1.4340	78.8455
 1.4330	78.8474
 1.4320	78.8145
 1.4310	78.8813
 1.4300	78.7759
 1.4290	78.7442
 1.4280	78.7810
 1.4270	78.7998
 1.4260	78.8117
 1.4250	78.8194
 1.4240	78.7772
 1.4230	78.6931
 1.4220	78.7186
 1.4210	78.7811
 1.4200	78.6816
 1.4190	78.6852
 1.4180	78.7032
 1.4170	78.6771
 1.4160	78.6805
 1.4150	78.7147
 1.4140	78.6586
 1.4130	78.6669
 1.4120	78.6815
 1.4110	78.6370
 1.4100	78.6659
 1.4090	78.7294
 1.4080	78.6591
 1.4070	78.6275
 1.4060	78.5984
 1.4050	78.4314
 1.4040	78.1979
 1.4030	78.0173
 1.4020	77.4333
 1.4010	76.5008
 1.4000	75.4918
 1.3990	74.2971
 1.3980	72.4606
 1.3970	68.9602
 1.3960	62.8566
 1.3950	55.1996
 1.3940	48.5178
 1.3930	46.5435
 1.3920	49.4619
 1.3910	56.6731
 1.3900	64.8363
 1.3890	71.2084
 1.3880	74.9503
 1.3870	76.7349
 1.3860	77.4038
 1.3850	77.6848
 1.3840	77.7941
 1.3830	77.8695
 1.3820	77.7977
 1.3810	77.6948
 1.3800	77.5220
 1.3790	77.3682
 1.3780	77.3025
 1.3770	77.3081
 1.3760	77.3312
 1.3750	77.6043
 1.3740	77.8230
 1.3730	78.1393
 1.3720	78.3698
 1.3710	78.4169
 1.3700	78.4791
 1.3690	78.5766
 1.3680	78.6610
 1.3670	78.6510
 1.3660	78.7010
 1.3650	78.8400
 1.3640	78.8573
 1.3630	78.8232
 1.3620	78.8695
 1.3610	78.8820
 1.3600	78.8285
 1.3590	78.9467
 1.3580	79.0736
 1.3570	78.9162
 1.3560	78.9583
 1.3550	78.8811
 1.3540	78.9684
 1.3530	78.9278
 1.3520	78.9094
 1.3510	78.9562
 1.3500	78.9392
 1.3490	78.9569
 1.3480	78.8997
 1.3470	78.7991
 1.3460	78.9251
 1.3450	78.9421
 1.3440	78.9580
 1.3430	78.8059
 1.3420	78.8868
 1.3410	78.8976
 1.3400	78.9010
 1.3390	78.9105
 1.3380	78.8869
 1.3370	78.8765
 1.3360	78.8975
 1.3350	78.8717
 1.3340	78.9524
 1.3330	78.7942
 1.3320	78.8863
 1.3310	78.8551
 1.3300	78.7749
 1.3290	78.8708
 1.3280	78.8521
 1.3270	78.7949
 1.3260	78.7295
 1.3250	78.7976
 1.3240	78.7879
 1.3230	78.7974
 1.3220	78.8536
 1.3210	78.8672
 1.3200	78.8181
 1.3190	78.8249
 1.3180	78.7960
 1.3170	78.7639
 1.3160	78.7857
 1.3150	78.8494
 1.3140	78.8160
 1.3130	78.9227
 1.3120	78.8696
 1.3110	78.9206
 1.3100	78.9435
 1.3090	78.8976
 1.3080	78.8662
 1.3070	78.8824
 1.3060	78.8712
 1.3050	78.8423
 1.3040	78.7520
 1.3030	78.6370
 1.3020	78.5262
 1.3010	78.4122
 1.3000	78.3407
 1.2990	78.3663
 1.2980	78.3098
 1.2970	78.4290
 1.2960	78.5631
 1.2950	78.6369
 1.2940	78.7762
 1.2930	78.8006
 1.2920	78.7753
 1.2910	78.7722
 1.2900	78.8586
 1.2890	78.7869
 1.2880	78.8539
 1.2870	78.9132
 1.2860	78.8850
 1.2850	78.8812
 1.2840	78.7631
 1.2830	78.7191
 1.2820	78.6559
 1.2810	78.3964
 1.2800	78.1977
 1.2790	78.1721
 1.2780	78.2405
 1.2770	78.2799
 1.2760	78.2913
 1.2750	78.2839
 1.2740	78.2140
 1.2730	78.2755
 1.2720	78.3108
 1.2710	78.4308
 1.2700	78.5294
 1.2690	78.5936
 1.2680	78.6138
 1.2670	78.6504
 1.2660	78.6825
 1.2650	78.7247
 1.2640	78.6787
 1.2630	78.7023
 1.2620	78.7024
 1.2610	78.7486
 1.2600	78.7324
 1.2590	78.7145
 1.2580	78.6874
 1.2570	78.7122
 1.2560	78.6911
 1.2550	78.6779
 1.2540	78.6913
 1.2530	78.6724
 1.2520	78.7210
 1.2510	78.6787
 1.2500	78.6517
 1.2490	78.6759
 1.2480	78.6527
 1.2470	78.6246
 1.2460	78.5992
 1.2450	78.6489
 1.2440	78.6435
 1.2430	78.6722
 1.2420	78.6241
 1.2410	78.5351
 1.2400	78.5601
 1.2390	78.5684
 1.2380	78.5935
 1.2370	78.6413
 1.2360	78.6688
 1.2350	78.6151
 1.2340	78.6042
 1.2330	78.5960
 1.2320	78.4746
 1.2310	78.4727
 1.2300	78.5221
 1.2290	78.4474
 1.2280	78.4817
 1.2270	78.5160
 1.2260	78.4426
 1.2250	78.4312
 1.2240	78.4298
 1.2230	78.4200
 1.2220	78.4290
 1.2210	78.4592
 1.2200	78.4291
 1.2190	78.3565
 1.2180	78.3677
 1.2170	78.4053
 1.2160	78.3597
 1.2150	78.3334
 1.2140	78.3243
 1.2130	78.3151
 1.2120	78.3535
 1.2110	78.3490
 1.2100	78.3108
 1.2090	78.2965
 1.2080	78.3450
 1.2070	78.3485
 1.2060	78.3488
 1.2050	78.3025
 1.2040	78.2183
 1.2030	78.2414
 1.2020	78.2571
 1.2010	78.2930
 1.2000	78.2404
 1.1990	78.1704
 1.1980	78.1968
 1.1970	78.1431
 1.1960	78.1017
 1.1950	78.1170
 1.1940	78.1341
 1.1930	78.0793
 1.1920	78.0703
 1.1910	78.1391
 1.1900	78.1166
 1.1890	78.1012
 1.1880	78.0950
 1.1870	78.0618
 1.1860	78.0407
 1.1850	77.9892
 1.1840	77.9916
 1.1830	77.9520
 1.1820	77.9514
 1.1810	77.9685
 1.1800	77.9841
 1.1790	77.9557
 1.1780	77.9174
 1.1770	77.9276
 1.1760	77.8902
 1.1750	77.8835
 1.1740	77.8630
 1.1730	77.8492
 1.1720	77.8949
 1.1710	77.8226
 1.1700	77.7854
 1.1690	77.7658
 1.1680	77.7717
 1.1670	77.8023
 1.1660	77.7866
 1.1650	77.7582
 1.1640	77.7212
 1.1630	77.7087
 1.1620	77.6861
 1.1610	77.6707
 1.1600	77.6423
 1.1590	77.6308
 1.1580	77.6490
 1.1570	77.6018
 1.1560	77.5741
 1.1550	77.5524
 1.1540	77.5522
 1.1530	77.5526
 1.1520	77.4853
 1.1510	77.4438
 1.1500	77.3774
 1.1490	77.4315
 1.1480	77.3965
 1.1470	77.3191
 1.1460	77.3317
 1.1450	77.3518
 1.1440	77.2972
 1.1430	77.2025
 1.1420	77.1779
 1.1410	77.1184
 1.1400	77.1696
 1.1390	77.1541
 1.1380	77.1087
 1.1370	76.9878
 1.1360	76.9824
 1.1350	76.9111
 1.1340	76.9514
 1.1330	76.8777
 1.1320	76.8408
 1.1310	76.8609
 1.1300	76.8510
 1.1290	76.7938
 1.1280	76.7813
 1.1270	76.6403
 1.1260	76.6430
 1.1250	76.6111
 1.1240	76.5102
 1.1230	76.4084
 1.1220	76.3669
 1.1210	76.3403
 1.1200	76.3482
 1.1190	76.2183
 1.1180	76.1708
 1.1170	76.1641
 1.1160	76.1657
 1.1150	76.0399
 1.1140	76.0780
 1.1130	75.9551
 1.1120	75.8859
 1.1110	75.9011
 1.1100	75.8204
 1.1090	75.6741
 1.1080	75.6515
 1.1070	75.5740
 1.1060	75.5079
 1.1050	75.4531
 1.1040	75.3994
 1.1030	75.2945
 1.1020	75.1990
 1.1010	75.1412
 1.1000	75.2132
 1.0990	75.1129
 1.0980	74.9818
 1.0970	74.8823
 1.0960	74.8124
 1.0950	74.7124
 1.0940	74.7085
 1.0930	74.5809
 1.0920	74.5219
 1.0910	74.4334
 1.0900	74.3523
 1.0890	74.1595
 1.0880	74.1561
 1.0870	73.9996
 1.0860	73.9947
 1.0850	73.8497
 1.0840	73.8107
 1.0830	73.6487
 1.0820	73.6045
 1.0810	73.5048
 1.0800	73.4561
 1.0790	73.3008
 1.0780	73.2413
 1.0770	73.0914
 1.0760	73.0023
 1.0750	72.9430
 1.0740	72.9428
 1.0730	72.7776
 1.0720	72.6330
 1.0710	72.6011
 1.0700	72.4105
 1.0690	72.4000
 1.0680	72.3709
 1.0670	72.2378
 1.0660	72.1879
 1.0650	72.0704
 1.0640	71.9958
 1.0630	71.9842
 1.0620	71.9392
 1.0610	71.7406
 1.0600	71.7139
 1.0590	71.6540
 1.0580	71.7006
 1.0570	71.5829
 1.0560	71.5788
 1.0550	71.4027
 1.0540	71.4645
 1.0530	71.3813
 1.0520	71.3878
 1.0510	71.2718
 1.0500	71.2713
 1.0490	71.2362
 1.0480	71.2343
 1.0470	71.2712
 1.0460	71.2240
 1.0450	71.1829
 1.0440	71.1882
 1.0430	71.1580
 1.0420	71.0767
 1.0410	71.0464
 1.0400	71.1075
 1.0390	71.0778
 1.0380	71.1236
 1.0370	71.0655
 1.0360	71.1559
 1.0350	71.0979
 1.0340	71.1282
 1.0330	71.1452
 1.0320	71.1490
 1.0310	71.1786
 1.0300	71.2162
 1.0290	71.2277
 1.0280	71.2246
 1.0270	71.2342
 1.0260	71.2758
 1.0250	71.2712
 1.0240	71.3100
 1.0230	71.2997
 1.0220	71.3573
 1.0210	71.4265
 1.0200	71.4684
 1.0190	71.4468
 1.0180	71.5688
 1.0170	71.5153
 1.0160	71.5808
 1.0150	71.5443
 1.0140	71.6150
 1.0130	71.6146
 1.0120	71.7843
 1.0110	71.8025
 1.0100	71.9293
 1.0090	71.8922
 1.0080	71.9420
 1.0070	71.9840
 1.0060	72.0520
 1.0050	72.0602
 1.0040	72.1324
 1.0030	72.1818
 1.0020	72.2516
 1.0010	72.2807
 1.0000	72.3933
 0.9990	72.4047
 0.9980	72.4593
 0.9970	72.5135
 0.9960	72.5967
 0.9950	72.6641
 0.9940	72.7489
 0.9930	72.7877
 0.9920	72.8936
 0.9910	72.9030
 0.9900	72.9924
 0.9890	73.0645
 0.9880	73.0719
 0.9870	73.1513
 0.9860	73.2326
 0.9850	73.3044
 0.9840	73.4433
 0.9830	73.4188
 0.9820	73.5206
 0.9810	73.5851
 0.9800	73.5833
 0.9790	73.6009
 0.9780	73.6937
 0.9770	73.7563
 0.9760	73.8553
 0.9750	73.9115
 0.9740	73.9625
 0.9730	74.0135
 0.9720	74.0345
 0.9710	74.0745
 0.9700	74.1643
 0.9690	74.2821
 0.9680	74.3000
 0.9670	74.3075
 0.9660	74.4070
 0.9650	74.4554
 0.9640	74.5246
 0.9630	74.6066
 0.9620	74.6650
 0.9610	74.6767
 0.9600	74.7493
 0.9590	74.7979
 0.9580	74.8108
 0.9570	74.8629
 0.9560	74.8739
 0.9550	74.6905
 0.9540	74.3199
 0.9530	73.8655
 0.9520	73.3761
 0.9510	73.0271
 0.9500	73.0306
 0.9490	73.3371
 0.9480	73.8020
 0.9470	74.3400
 0.9460	74.8952
 0.9450	75.2565
 0.9440	75.4828
 0.9430	75.5548
 0.9420	75.6797
 0.9410	75.7181
 0.9400	75.6581
 0.9390	75.6692
 0.9380	75.7415
 0.9370	75.8096
 0.9360	75.8717
 0.9350	75.9082
 0.9340	75.9504
 0.9330	75.9784
 0.9320	76.0259
 0.9310	76.0849
 0.9300	76.1038
 0.9290	76.1289
 0.9280	76.1782
 0.9270	76.2300
 0.9260	76.2809
 0.9250	76.3487
 0.9240	76.3509
 0.9230	76.3343
 0.9220	76.3991
 0.9210	76.4294
 0.9200	76.4425
 0.9190	76.4819
 0.9180	76.4795
 0.9170	76.5040
 0.9160	76.5752
 0.9150	76.6455
 0.9140	76.6512
 0.9130	76.7196
 0.9120	76.7436
 0.9110	76.7133
 0.9100	76.7643
 0.9090	76.8265
 0.9080	76.8194
 0.9070	76.8436
 0.9060	76.8851
 0.9050	76.8790
 0.9040	76.8661
 0.9030	76.8639
 0.9020	76.8844
 0.9010	76.9297
 0.9000	76.9964
 0.8990	77.0275
 0.8980	77.0166
 0.8970	77.0457
 0.8960	77.0516
 0.8950	77.0914
 0.8940	77.0963
 0.8930	77.1405
 0.8920	77.1499
 0.8910	77.1716
 0.8900	77.1655
 0.8890	77.1986
 0.8880	77.2042
 0.8870	77.2426
 0.8860	77.2482
 0.8850	77.3624
 0.8840	77.3017
 0.8830	77.3449
 0.8820	77.3735
 0.8810	77.3621
 0.8800	77.3506
 0.8790	77.4175
 0.8780	77.3700
 0.8770	77.4186
 0.8760	77.4272
 0.8750	77.4945
 0.8740	77.4970
 0.8730	77.4946
 0.8720	77.5071
 0.8710	77.5695
 0.8700	77.5149
 0.8690	77.4994
 0.8680	77.5077
 0.8670	77.5604
 0.8660	77.6038
 0.8650	77.5916
 0.8640	77.5307
 0.8630	77.5573
 0.8620	77.6016
 0.8610	77.6548
 0.8600	77.7566
 0.8590	77.6787
 0.8580	77.6941
 0.8570	77.7388
 0.8560	77.7249
 0.8550	77.7954
 0.8540	77.7405
 0.8530	77.7825
 0.8520	77.7764
 0.8510	77.8066
 0.8500	77.8280
 0.8490	77.8057
 0.8480	77.8516
 0.8470	77.8735
 0.8460	77.9944
 0.8450	77.8913
 0.8440	77.9120
 0.8430	77.8728
 0.8420	77.9279
 0.8410	77.9302
 0.8400	78.0136
 0.8390	78.0103
 0.8380	77.9830
 0.8370	78.0110
 0.8360	77.9548
 0.8350	77.9997
 0.8340	78.0441
 0.8330	78.0048
 0.8320	78.0235
 0.8310	78.0219
 0.8300	78.0517
 0.8290	78.0038
 0.8280	78.0749
 0.8270	78.1114
 0.8260	78.1277
 0.8250	78.1299
 0.8240	78.1091
 0.8230	78.1606
 0.8220	78.1366
 0.8210	78.1978
 0.8200	78.1620
 0.8190	78.1666
 0.8180	78.2087
 0.8170	78.1857
 0.8160	78.1432
 0.8150	78.2319
 0.8140	78.2035
 0.8130	78.1873
 0.8120	78.2618
 0.8110	78.2264
 0.8100	78.3231
 0.8090	78.2706
 0.8080	78.3328
 0.8070	78.2849
 0.8060	78.2631
 0.8050	78.2892
 0.8040	78.3044
 0.8030	78.3146
 0.8020	78.3053
 0.8010	78.3436
 0.8000	78.3824
 0.7990	78.3252
 0.7980	78.3664
 0.7970	78.2943
 0.7960	78.3310
 0.7950	78.3134
 0.7940	78.3142
 0.7930	78.2776
 0.7920	78.3267
 0.7910	78.2764
 0.7900	78.3147
 0.7890	78.3220
 0.7880	78.3521
 0.7870	78.3376
 0.7860	78.3342
 0.7850	78.3268
 0.7840	78.3035
 0.7830	78.3567
 0.7820	78.3830
 0.7810	78.3727
 0.7800	78.3493
 0.7790	78.3563
 0.7780	78.3691
 0.7770	78.3533
 0.7760	78.3691
 0.7750	78.3931
 0.7740	78.4112
 0.7730	78.3382
 0.7720	78.3220
 0.7710	78.3268
 0.7700	78.3480
 0.7690	78.3485
 0.7680	78.3814
 0.7670	78.3530
 0.7660	78.3641
 0.7650	78.3509
 0.7640	78.3674
 0.7630	78.3526
 0.7620	78.3835
 0.7610	78.3892
 0.7600	78.3643
 0.7590	78.3742
 0.7580	78.3535
 0.7570	78.3581
 0.7560	78.3516
 0.7550	78.3476
 0.7540	78.3861
 0.7530	78.3859
 0.7520	78.3846
 0.7510	78.3679
 0.7500	78.3580
 0.7490	78.3974
 0.7480	78.3613
 0.7470	78.3824
 0.7460	78.3630
 0.7450	78.3336
 0.7440	78.3352
 0.7430	78.3543
 0.7420	78.3690
 0.7410	78.3630
 0.7400	78.3454
 0.7390	78.3528
 0.7380	78.3311
 0.7370	78.3671
 0.7360	78.3538
 0.7350	78.3422
 0.7340	78.3257
 0.7330	78.3224
 0.7320	78.2884
 0.7310	78.2555
 0.7300	78.1873
 0.7290	78.1699
 0.7280	78.1354
 0.7270	78.1902
 0.7260	78.2080
 0.7250	78.2803
 0.7240	78.3312
 0.7230	78.3146
 0.7220	78.3008
 0.7210	78.2945
 0.7200	78.2778
 0.7190	78.2802
 0.7180	78.2721
 0.7170	78.2654
 0.7160	78.2815
 0.7150	78.2719
 0.7140	78.2701
 0.7130	78.2644
 0.7120	78.2821
 0.7110	78.2334
 0.7100	78.2426
 0.7090	78.2546
 0.7080	78.2379
 0.7070	78.2269
 0.7060	78.2389
 0.7050	78.2272
 0.7040	78.1942
 0.7030	78.2181
 0.7020	78.1954
 0.7010	78.1901
 0.7000	78.1648
 0.6990	78.1627
 0.6980	78.1778
 0.6970	78.1441
 0.6960	78.1635
 0.6950	78.1471
 0.6940	78.1539
 0.6930	78.1519
 0.6920	78.1342
 0.6910	78.1443
 0.6900	78.1252
 0.6890	78.1018
 0.6880	78.0890
 0.6870	78.0926
 0.6860	78.0931
 0.6850	78.0833
 0.6840	78.0774
 0.6830	78.0757
 0.6820	78.0676
 0.6810	78.0639
 0.6800	78.0409
 0.6790	78.0316
 0.6780	78.0367
 0.6770	78.0267
 0.6760	78.0131
 0.6750	78.0133
 0.6740	77.9929
 0.6730	77.9786
 0.6720	77.9733
 0.6710	77.9698
 0.6700	77.9709
 0.6690	77.9686
 0.6680	77.9585
 0.6670	77.9430
 0.6660	77.9326
 0.6650	77.9299
 0.6640	77.9020
 0.6630	77.9012
 0.6620	77.8910
 0.6610	77.8789
 0.6600	77.8756
 0.6590	77.8794
 0.6580	77.8693
 0.6570	77.8461
 0.6560	77.8531
 0.6550	77.8473
 0.6540	77.8348
 0.6530	77.8175
 0.6520	77.8028
 0.6510	77.8001
 0.6500	77.7913
 0.6490	77.7748
 0.6480	77.7625
 0.6470	77.7575
 0.6460	77.7453
 0.6450	77.7278
 0.6440	77.7286
 0.6430	77.7252
 0.6420	77.7167
 0.6410	77.7094
 0.6400	77.6945
 0.6390	77.6934
 0.6380	77.6732
 0.6370	77.6444
 0.6360	77.6425
 0.6350	77.6379
 0.6340	77.6156
 0.6330	77.5983
 0.6320	77.6097
 0.6310	77.6044
 0.6300	77.5842
 0.6290	77.5711
 0.6280	77.5470
 0.6270	77.5389
 0.6260	77.5433
 0.6250	77.5214
 0.6240	77.4967
 0.6230	77.4826
 0.6220	77.4715
 0.6210	77.4733
 0.6200	77.4711
 0.6190	77.4485
 0.6180	77.4331
 0.6170	77.4215
 0.6160	77.3984
 0.6150	77.3898
 0.6140	77.3828
 0.6130	77.3703
 0.6120	77.3682
 0.6110	77.3553
 0.6100	77.3378
 0.6090	77.3225
 0.6080	77.3056
 0.6070	77.2813
 0.6060	77.2706
 0.6050	77.2542
 0.6040	77.2506
 0.6030	77.2399
 0.6020	77.2154
 0.6010	77.2095
 0.6000	77.1915
 0.5990	77.1915
 0.5980	77.1824
 0.5970	77.1788
 0.5960	77.1911
 0.5950	77.1898
 0.5940	77.1740
 0.5930	77.1536
 0.5920	77.1334
 0.5910	77.1175
 0.5900	77.0930
 0.5890	77.0845
 0.5880	77.0714
 0.5870	77.0616
 0.5860	77.0352
 0.5850	77.0084
 0.5840	76.9991
 0.5830	76.9749
 0.5820	76.9551
 0.5810	76.9507
 0.5800	76.9333
 0.5790	76.8984
 0.5780	76.8894
 0.5770	76.8830
 0.5760	76.8388
 0.5750	76.8175
 0.5740	76.7973
 0.5730	76.7809
 0.5720	76.7603
 0.5710	76.7449
 0.5700	76.7161
 0.5690	76.7008
 0.5680	76.6900
 0.5670	76.6584
 0.5660	76.6330
 0.5650	76.6109
 0.5640	76.5890
 0.5630	76.5627
 0.5620	76.5347
 0.5610	76.5156
 0.5600	76.4880
 0.5590	76.4566
 0.5580	76.4332
 0.5570	76.4203
 0.5560	76.3871
 0.5550	76.3486
 0.5540	76.3202
 0.5530	76.3050
 0.5520	76.2774
 0.5510	76.2305
 0.5500	76.2002
 0.5490	76.1813
 0.5480	76.1478
 0.5470	76.1117
 0.5460	76.0803
 0.5450	76.0403
 0.5440	76.0146
 0.5430	75.9894
 0.5420	75.9628
 0.5410	75.9420
 0.5400	75.9112
 0.5390	75.8753
 0.5380	75.8484
 0.5370	75.8320
 0.5360	75.8078
 0.5350	75.7700
 0.5340	75.7245
 0.5330	75.7118
 0.5320	75.6687
 0.5310	75.6520
 0.5300	75.6169
 0.5290	75.5695
 0.5280	75.5480
 0.5270	75.5246
 0.5260	75.4820
 0.5250	75.4393
 0.5240	75.4084
 0.5230	75.3840
 0.5220	75.3344
 0.5210	75.3039
 0.5200	75.2690
 0.5190	75.2221
 0.5180	75.2062
 0.5170	75.1500
 0.5160	75.1152
 0.5150	75.0619
 0.5140	75.0251
 0.5130	74.9850
 0.5120	74.9413
 0.5110	74.9055
 0.5100	74.8391
 0.5090	74.7680
 0.5080	74.7211
 0.5070	74.6764
 0.5060	74.6444
 0.5050	74.5998
 0.5040	74.5351
 0.5030	74.4895
 0.5020	74.4609
 0.5010	74.4073
 0.5000	74.3527
 0.4990	74.3172
 0.4980	74.2736
 0.4970	74.1900
 0.4960	74.1824
 0.4950	74.1409
 0.4940	74.1032
 0.4930	74.0175
 0.4920	73.9878
 0.4910	73.9269
 0.4900	73.8583
 0.4890	73.8336
 0.4880	73.7690
 0.4870	73.7044
 0.4860	73.6664
 0.4850	73.6283
 0.4840	73.5553
 0.4830	73.4873
 0.4820	73.4381
 0.4810	73.3927
 0.4800	73.3258
 0.4790	73.3024
 0.4780	73.2529
 0.4770	73.2133
 0.4760	73.1837
 0.4750	73.1168
 0.4740	73.0754
 0.4730	73.0192
 0.4720	72.9650
 0.4710	72.9076
 0.4700	72.8728
 0.4690	72.8279
 0.4680	72.7722
 0.4670	72.7271
 0.4660	72.6792
 0.4650	72.6186
 0.4640	72.5822
 0.4630	72.5130
 0.4620	72.4852
 0.4610	72.4180
 0.4600	72.3795
 0.4590	72.3079
 0.4580	72.2560
 0.4570	72.1899
 0.4560	72.1362
 0.4550	72.0642
 0.4540	72.0204
 0.4530	71.9645
 0.4520	71.8944
 0.4510	71.8173
 0.4500	71.7619
 0.4490	71.6856
 0.4480	71.6268
 0.4470	71.5528
 0.4460	71.4812
 0.4450	71.3984
 0.4440	71.3062
 0.4430	71.2429
 0.4420	71.1579
 0.4410	71.0841
 0.4400	70.9879
 0.4390	70.8808
 0.4380	70.8168
 0.4370	70.7212
 0.4360	70.6421
 0.4350	70.5428
 0.4340	70.4579
 0.4330	70.4041
 0.4320	70.3278
 0.4310	70.2476
 0.4300	70.1763
 0.4290	70.1038
 0.4280	69.9882
 0.4270	69.9310
 0.4260	69.8641
 0.4250	69.7951
 0.4240	69.7115
 0.4230	69.6208
 0.4220	69.5557
 0.4210	69.4618
 0.4200	69.3819
 0.4190	69.2733
 0.4180	69.1831
 0.4170	69.1002
 0.4160	69.0160
 0.4150	68.9163
 0.4140	68.8057
 0.4130	68.7151
 0.4120	68.6142
 0.4110	68.5344
 0.4100	68.4321
 0.4090	68.3174
 0.4080	68.2277
 0.4070	68.1318
 0.4060	68.0159
 0.4050	67.9160
 0.4040	67.8163
 0.4030	67.7014
 0.4020	67.5909
 0.4010	67.4766
 0.4000	67.3622
