Name: Rhodonite (Mn,Ca)SiO_3
Type: Mineral
Class: Silicate
Subclass: Inosilicate
Particle Size: Fine
Sample No.: IN-1A
Owner: JPL
Wavelength Range: VSWIR
Origin: USA, California, Fresno County
Collection Date: N/A
Description: Particle size was 0-45um.Collected by Burminco Original ASTER Spectral Library name was jpl.beckman.mineral.silicate.inosilicate.fine.in01a.spectrum.txt
Measurement: Hemispherical reflectance
First Column: X
Second Column: Y
X Units: Wavelength (micrometers)
Y Units:Reflectance (percent)
First X Value:  0.4000
Last X Value:  2.5000
Number of X Values: 826
Additional Information: mineral.silicate.inosilicate.fine.vswir.in-1a.jpl.beckman.ancillary.txt

 0.4000	44.0700
 0.4010	43.9800
 0.4020	43.8300
 0.4030	43.6600
 0.4040	43.4700
 0.4050	43.0500
 0.4060	42.4000
 0.4070	41.9500
 0.4080	41.9500
 0.4090	42.3400
 0.4100	42.5200
 0.4110	42.5800
 0.4120	42.5400
 0.4130	42.4900
 0.4140	42.6800
 0.4150	43.0000
 0.4160	43.3200
 0.4170	43.7700
 0.4180	44.1100
 0.4190	44.0900
 0.4200	44.1700
 0.4210	44.2000
 0.4220	44.5300
 0.4230	44.7000
 0.4240	44.8500
 0.4250	44.8900
 0.4260	44.9800
 0.4270	45.0900
 0.4280	45.1800
 0.4290	45.1800
 0.4300	45.3100
 0.4310	45.5500
 0.4320	45.7900
 0.4330	45.7900
 0.4340	45.8200
 0.4350	46.0900
 0.4360	46.1700
 0.4370	46.4400
 0.4380	46.5900
 0.4390	46.6800
 0.4400	46.8900
 0.4410	46.9800
 0.4420	47.0100
 0.4430	47.0700
 0.4440	47.2800
 0.4450	47.4600
 0.4460	47.4900
 0.4470	47.5200
 0.4480	47.6300
 0.4490	47.6300
 0.4500	47.8400
 0.4510	47.9300
 0.4520	47.9000
 0.4530	48.0600
 0.4540	48.1200
 0.4550	48.1400
 0.4560	48.1700
 0.4570	48.2700
 0.4580	48.5800
 0.4590	48.4600
 0.4600	48.5500
 0.4610	48.6000
 0.4620	48.9000
 0.4630	48.9900
 0.4640	48.9900
 0.4650	48.9900
 0.4660	49.1100
 0.4670	49.4400
 0.4680	49.3800
 0.4690	49.5000
 0.4700	49.5600
 0.4710	49.6500
 0.4720	49.8500
 0.4730	49.8000
 0.4740	49.9100
 0.4750	50.1100
 0.4760	50.1800
 0.4770	50.1800
 0.4780	50.1600
 0.4790	50.3600
 0.4800	50.5400
 0.4810	50.4300
 0.4820	50.5700
 0.4830	50.6700
 0.4840	50.6900
 0.4850	50.8000
 0.4860	50.8900
 0.4870	50.8600
 0.4880	51.1000
 0.4890	51.1200
 0.4900	51.0800
 0.4910	51.0800
 0.4920	51.1900
 0.4930	51.3900
 0.4940	51.4200
 0.4950	51.4100
 0.4960	51.4000
 0.4970	51.5100
 0.4980	51.6700
 0.4990	51.7300
 0.5000	51.7200
 0.5010	51.8600
 0.5020	51.8800
 0.5030	51.8500
 0.5040	51.7900
 0.5050	51.9900
 0.5060	52.0300
 0.5070	52.1200
 0.5080	52.0300
 0.5090	52.1200
 0.5100	52.1800
 0.5110	52.3500
 0.5120	52.2800
 0.5130	52.2800
 0.5140	52.3200
 0.5150	52.4700
 0.5160	52.4800
 0.5170	52.2400
 0.5180	52.3600
 0.5190	52.5100
 0.5200	52.5200
 0.5210	52.4600
 0.5220	52.5500
 0.5230	52.5300
 0.5240	52.6100
 0.5250	52.5700
 0.5260	52.6600
 0.5270	52.6500
 0.5280	52.8100
 0.5290	52.8700
 0.5300	52.7300
 0.5310	52.7400
 0.5320	52.8700
 0.5330	53.0500
 0.5340	53.0000
 0.5350	52.9200
 0.5360	53.0200
 0.5370	53.1100
 0.5380	53.3200
 0.5390	53.2600
 0.5400	53.3700
 0.5410	53.3900
 0.5420	53.5700
 0.5430	53.5700
 0.5440	53.6000
 0.5450	53.7700
 0.5460	53.9900
 0.5470	54.0400
 0.5480	54.1100
 0.5490	54.1500
 0.5500	54.3800
 0.5510	54.6000
 0.5520	54.7400
 0.5530	54.8600
 0.5540	55.1300
 0.5550	55.3200
 0.5560	55.3500
 0.5570	55.4400
 0.5580	55.6400
 0.5590	55.8300
 0.5600	55.8300
 0.5610	56.6200
 0.5620	56.7000
 0.5630	56.8600
 0.5640	57.1200
 0.5650	57.3000
 0.5660	57.3700
 0.5670	57.3700
 0.5680	57.7100
 0.5690	57.9100
 0.5700	58.0600
 0.5710	58.1200
 0.5720	58.2300
 0.5730	58.3700
 0.5740	58.6800
 0.5750	58.6700
 0.5760	58.8200
 0.5770	59.0200
 0.5780	59.3000
 0.5790	59.4800
 0.5800	59.5100
 0.5810	59.7900
 0.5820	59.9400
 0.5830	60.0300
 0.5840	60.0600
 0.5850	60.2400
 0.5860	60.4400
 0.5870	60.7200
 0.5880	60.7400
 0.5890	60.9100
 0.5900	61.1700
 0.5910	61.3300
 0.5920	61.4100
 0.5930	61.4900
 0.5940	61.7100
 0.5950	62.0100
 0.5960	61.9700
 0.5970	62.0300
 0.5980	62.1800
 0.5990	62.3600
 0.6000	62.4800
 0.6010	62.6200
 0.6020	62.8000
 0.6030	63.0300
 0.6040	63.1400
 0.6050	63.1200
 0.6060	63.2000
 0.6070	63.3000
 0.6080	63.5500
 0.6090	63.4900
 0.6100	63.5500
 0.6110	63.6400
 0.6120	63.8300
 0.6130	63.8700
 0.6140	63.9700
 0.6150	64.0200
 0.6160	64.1900
 0.6170	64.1900
 0.6180	64.0800
 0.6190	64.2900
 0.6200	64.3300
 0.6210	64.5400
 0.6220	64.4400
 0.6230	64.6000
 0.6240	64.6800
 0.6250	64.8200
 0.6260	64.7800
 0.6270	64.8900
 0.6280	65.0000
 0.6290	65.1800
 0.6300	65.2000
 0.6310	65.1200
 0.6320	65.2700
 0.6330	65.4900
 0.6340	65.4600
 0.6350	65.4600
 0.6360	65.4800
 0.6370	65.6400
 0.6380	65.6900
 0.6390	65.7700
 0.6400	65.7800
 0.6410	65.8200
 0.6420	65.9400
 0.6430	65.9400
 0.6440	65.9500
 0.6450	66.0600
 0.6460	66.1800
 0.6470	66.0500
 0.6480	66.2100
 0.6490	66.2000
 0.6500	66.3000
 0.6510	66.3500
 0.6520	66.4600
 0.6530	66.4300
 0.6540	66.7000
 0.6550	66.7100
 0.6560	66.6700
 0.6570	66.6100
 0.6580	66.7000
 0.6590	66.8900
 0.6600	66.8000
 0.6610	66.8100
 0.6620	66.8700
 0.6630	67.0800
 0.6640	67.0400
 0.6650	67.0800
 0.6660	67.1700
 0.6670	67.2300
 0.6680	67.3000
 0.6690	67.1400
 0.6700	67.3900
 0.6710	67.4800
 0.6720	67.5000
 0.6730	67.4500
 0.6740	67.4400
 0.6750	67.5200
 0.6760	67.6500
 0.6770	67.6300
 0.6780	67.6900
 0.6790	67.8500
 0.6800	67.8900
 0.6810	67.8000
 0.6820	67.7700
 0.6830	67.9100
 0.6840	68.0000
 0.6850	67.9800
 0.6860	67.9900
 0.6870	68.0900
 0.6880	68.2500
 0.6890	68.0900
 0.6900	68.1700
 0.6910	68.2100
 0.6920	68.3700
 0.6930	68.2800
 0.6940	68.2600
 0.6950	68.4000
 0.6960	68.4600
 0.6970	68.3700
 0.6980	68.4000
 0.6990	68.4100
 0.7000	68.3700
 0.7010	68.3700
 0.7020	68.5400
 0.7030	68.7300
 0.7040	68.7000
 0.7050	68.6400
 0.7060	68.6300
 0.7070	68.7600
 0.7080	68.6900
 0.7090	68.6600
 0.7100	68.7700
 0.7110	68.9200
 0.7120	69.0200
 0.7130	68.8200
 0.7140	68.9500
 0.7150	69.0600
 0.7160	69.1100
 0.7170	69.1100
 0.7180	69.0500
 0.7190	69.0200
 0.7200	69.2300
 0.7210	69.1600
 0.7220	69.1900
 0.7230	69.2400
 0.7240	69.4000
 0.7250	69.3800
 0.7260	69.2300
 0.7270	69.3400
 0.7280	69.3700
 0.7290	69.4700
 0.7300	69.5200
 0.7310	69.4600
 0.7320	69.5200
 0.7330	69.6000
 0.7340	69.6000
 0.7350	69.6800
 0.7360	69.6800
 0.7370	69.8300
 0.7380	69.7000
 0.7390	69.6800
 0.7400	69.8500
 0.7410	69.9500
 0.7420	69.8400
 0.7430	69.8900
 0.7440	69.8100
 0.7450	69.7800
 0.7460	69.9400
 0.7470	69.8500
 0.7480	69.9500
 0.7490	69.9800
 0.7500	70.0800
 0.7510	70.0400
 0.7520	69.8700
 0.7530	70.0500
 0.7540	70.1100
 0.7550	70.2400
 0.7560	70.0800
 0.7570	70.0100
 0.7580	70.0500
 0.7590	70.2700
 0.7600	70.1700
 0.7610	70.1300
 0.7620	70.2000
 0.7630	70.3400
 0.7640	70.4000
 0.7650	70.2300
 0.7660	70.2300
 0.7670	70.4300
 0.7680	70.4900
 0.7690	70.3300
 0.7700	70.3100
 0.7710	70.4100
 0.7720	70.5000
 0.7730	70.4900
 0.7740	70.4100
 0.7750	70.4600
 0.7760	70.6200
 0.7770	70.6200
 0.7780	70.4600
 0.7790	70.4200
 0.7800	70.6600
 0.7810	70.8600
 0.7820	70.7800
 0.7830	70.7200
 0.7840	70.6300
 0.7850	70.6900
 0.7860	70.6600
 0.7870	70.5900
 0.7880	70.5600
 0.7890	70.7200
 0.7900	70.7300
 0.7910	70.6600
 0.7920	70.4900
 0.7930	70.7300
 0.7940	70.8200
 0.7950	70.6800
 0.7960	70.6900
 0.7970	70.5000
 0.7980	70.5900
 0.7990	70.7200
 0.8000	70.5600
 0.8040	70.5800
 0.8080	70.5100
 0.8120	70.4800
 0.8160	70.4500
 0.8200	70.4100
 0.8240	70.2300
 0.8280	70.0100
 0.8320	69.8900
 0.8360	69.7100
 0.8400	69.4200
 0.8440	69.1200
 0.8480	68.9200
 0.8520	68.6600
 0.8560	68.3500
 0.8600	68.0600
 0.8640	67.7500
 0.8680	67.3000
 0.8720	66.8700
 0.8760	66.3700
 0.8800	65.7300
 0.8840	65.4400
 0.8880	64.9100
 0.8920	64.3100
 0.8960	63.8700
 0.9000	63.3600
 0.9040	62.9200
 0.9080	62.3600
 0.9120	61.7300
 0.9160	61.1300
 0.9200	60.5800
 0.9240	60.0300
 0.9280	59.3600
 0.9320	58.8100
 0.9360	58.1800
 0.9400	57.5800
 0.9440	57.0300
 0.9480	56.4700
 0.9520	56.0100
 0.9560	55.5100
 0.9600	54.9900
 0.9640	54.5400
 0.9680	53.9100
 0.9720	53.4900
 0.9760	53.0600
 0.9800	52.4900
 0.9840	52.1100
 0.9880	51.7800
 0.9920	51.4100
 0.9960	51.1800
 1.0000	50.7400
 1.0040	50.4500
 1.0080	50.2400
 1.0120	50.0000
 1.0160	49.8200
 1.0200	49.7900
 1.0240	49.6400
 1.0280	49.5500
 1.0320	49.4700
 1.0360	49.4000
 1.0400	49.4000
 1.0440	49.4000
 1.0480	49.3900
 1.0520	49.4900
 1.0560	49.5100
 1.0600	49.7600
 1.0640	49.8500
 1.0680	50.1000
 1.0720	50.3300
 1.0760	50.6100
 1.0800	50.8900
 1.0840	51.1900
 1.0880	51.5300
 1.0920	51.7600
 1.0960	52.0500
 1.1000	52.4100
 1.1040	52.7600
 1.1080	53.1500
 1.1120	53.4400
 1.1160	53.7500
 1.1200	54.1500
 1.1240	54.5100
 1.1280	54.8400
 1.1320	55.2900
 1.1360	55.6600
 1.1400	56.1100
 1.1440	56.4700
 1.1480	56.8800
 1.1520	57.2400
 1.1560	57.6800
 1.1600	58.0100
 1.1640	58.4000
 1.1680	58.7900
 1.1720	59.1900
 1.1760	59.6300
 1.1800	59.9600
 1.1840	60.3400
 1.1880	60.6500
 1.1920	61.0700
 1.1960	61.3700
 1.2000	61.6800
 1.2040	61.9600
 1.2080	62.4000
 1.2120	62.7200
 1.2160	63.0200
 1.2200	63.3200
 1.2240	63.7500
 1.2280	64.0600
 1.2320	64.4800
 1.2360	64.8300
 1.2400	65.1400
 1.2440	65.3900
 1.2480	65.7300
 1.2520	65.9400
 1.2560	66.1200
 1.2600	66.4600
 1.2640	66.7400
 1.2680	66.9400
 1.2720	67.1100
 1.2760	67.3800
 1.2800	67.5700
 1.2840	67.7600
 1.2880	68.0400
 1.2920	68.0800
 1.2960	68.3200
 1.3000	68.5300
 1.3040	68.6100
 1.3080	68.8500
 1.3120	68.9700
 1.3160	69.2100
 1.3200	69.2700
 1.3240	69.3700
 1.3280	69.4700
 1.3320	69.5600
 1.3360	69.6600
 1.3400	69.7100
 1.3440	69.7800
 1.3480	69.8400
 1.3520	69.9100
 1.3560	70.0000
 1.3600	70.0600
 1.3640	70.0700
 1.3680	70.1200
 1.3720	70.1400
 1.3760	70.2500
 1.3800	70.3000
 1.3840	70.3800
 1.3880	70.4400
 1.3920	70.4000
 1.3960	70.2900
 1.4000	70.1900
 1.4040	70.0700
 1.4080	70.1000
 1.4120	70.1500
 1.4160	70.1500
 1.4200	70.1900
 1.4240	70.3300
 1.4280	70.4400
 1.4320	70.4400
 1.4360	70.4700
 1.4400	70.6200
 1.4440	70.5700
 1.4480	70.6000
 1.4520	70.6300
 1.4560	70.6400
 1.4600	70.5700
 1.4640	70.6100
 1.4680	70.5800
 1.4720	70.6500
 1.4760	70.6100
 1.4800	70.6400
 1.4840	70.6800
 1.4880	70.7800
 1.4920	70.8300
 1.4960	70.8500
 1.5000	70.8200
 1.5040	70.8900
 1.5080	70.9000
 1.5120	70.9200
 1.5160	70.9300
 1.5200	70.8900
 1.5240	70.8900
 1.5280	70.9300
 1.5320	70.8900
 1.5360	70.9000
 1.5400	70.9500
 1.5440	70.9300
 1.5480	71.0000
 1.5520	70.9700
 1.5560	71.0900
 1.5600	71.0600
 1.5640	71.2400
 1.5680	71.2500
 1.5720	71.3100
 1.5760	71.3100
 1.5800	71.3300
 1.5840	71.3100
 1.5880	71.3100
 1.5920	71.4000
 1.5960	71.3600
 1.6000	71.4700
 1.6040	71.5200
 1.6080	71.4500
 1.6120	71.5000
 1.6160	71.5900
 1.6200	71.6300
 1.6240	71.6800
 1.6280	71.7000
 1.6320	71.7600
 1.6360	71.8500
 1.6400	71.9100
 1.6440	71.9300
 1.6480	71.9700
 1.6520	72.0300
 1.6560	72.0400
 1.6600	72.0900
 1.6640	72.1200
 1.6680	72.1200
 1.6720	72.1800
 1.6760	72.1700
 1.6800	72.2000
 1.6840	72.2600
 1.6880	72.2800
 1.6920	72.4000
 1.6960	72.4700
 1.7000	72.4400
 1.7040	72.5700
 1.7080	72.5100
 1.7120	72.5900
 1.7160	72.5800
 1.7200	72.6400
 1.7240	72.5300
 1.7280	72.5100
 1.7320	72.4700
 1.7360	72.5300
 1.7400	72.5700
 1.7440	72.5800
 1.7480	72.6200
 1.7520	72.6000
 1.7560	72.6600
 1.7600	72.6400
 1.7640	72.7000
 1.7680	72.5700
 1.7720	72.5900
 1.7760	72.5100
 1.7800	72.5300
 1.7840	72.6300
 1.7880	72.7000
 1.7920	72.7600
 1.7960	72.6700
 1.8000	72.6900
 1.8040	72.7200
 1.8080	72.5700
 1.8120	72.5900
 1.8160	72.5400
 1.8200	72.4900
 1.8240	72.4800
 1.8280	72.5100
 1.8320	72.4900
 1.8360	72.5000
 1.8400	72.4300
 1.8440	72.4500
 1.8480	72.3400
 1.8520	72.2900
 1.8560	72.2500
 1.8600	72.1400
 1.8640	71.9800
 1.8680	71.9600
 1.8720	71.8900
 1.8760	71.7600
 1.8800	71.7000
 1.8840	71.4900
 1.8880	71.3200
 1.8920	71.1000
 1.8960	70.9000
 1.9000	70.7000
 1.9040	70.5400
 1.9080	70.4900
 1.9120	70.4300
 1.9160	70.4300
 1.9200	70.5100
 1.9240	70.3700
 1.9280	70.3600
 1.9320	70.3400
 1.9360	70.3100
 1.9400	70.2600
 1.9440	70.2500
 1.9480	70.3000
 1.9520	70.3200
 1.9560	70.3400
 1.9600	70.3900
 1.9640	70.3500
 1.9680	70.3400
 1.9720	70.4200
 1.9760	70.3400
 1.9800	70.2600
 1.9840	70.3500
 1.9880	70.2900
 1.9920	70.4500
 1.9960	70.4800
 2.0000	70.5300
 2.0040	70.5100
 2.0080	70.5600
 2.0120	70.5400
 2.0160	70.5200
 2.0200	70.5600
 2.0240	70.5000
 2.0280	70.4700
 2.0320	70.3800
 2.0360	70.4200
 2.0400	70.3700
 2.0440	70.4100
 2.0480	70.3800
 2.0520	70.3800
 2.0560	70.4200
 2.0600	70.3600
 2.0640	70.3300
 2.0680	70.3100
 2.0720	70.3400
 2.0760	70.3200
 2.0800	70.2700
 2.0840	70.2500
 2.0880	70.2100
 2.0920	70.2100
 2.0960	70.2900
 2.1000	70.2800
 2.1040	70.3000
 2.1080	70.3000
 2.1120	70.3700
 2.1160	70.3500
 2.1200	70.4000
 2.1240	70.2800
 2.1280	70.2400
 2.1320	70.2000
 2.1360	70.0800
 2.1400	70.0200
 2.1440	69.9400
 2.1480	69.8400
 2.1520	69.7700
 2.1560	69.8200
 2.1600	69.6700
 2.1640	69.8000
 2.1680	69.7600
 2.1720	69.6800
 2.1760	69.6300
 2.1800	69.5200
 2.1840	69.4800
 2.1880	69.3800
 2.1920	69.3900
 2.1960	69.3400
 2.2000	69.3600
 2.2040	69.2600
 2.2080	69.1700
 2.2120	69.1100
 2.2160	69.1700
 2.2200	69.2400
 2.2240	69.2000
 2.2280	69.2400
 2.2320	69.2300
 2.2360	69.1500
 2.2400	69.2500
 2.2440	69.2000
 2.2480	69.1900
 2.2520	69.2100
 2.2560	69.2200
 2.2600	69.2600
 2.2640	69.2300
 2.2680	69.2500
 2.2720	69.2300
 2.2760	69.1400
 2.2800	69.1800
 2.2840	69.1200
 2.2880	69.1500
 2.2920	69.2000
 2.2960	69.2300
 2.3000	69.2100
 2.3040	69.1100
 2.3080	69.2300
 2.3120	69.3200
 2.3160	69.3200
 2.3200	69.3800
 2.3240	69.3700
 2.3280	69.3300
 2.3320	69.4000
 2.3360	69.4100
 2.3400	69.4100
 2.3440	69.4600
 2.3480	69.4800
 2.3520	69.4800
 2.3560	69.4800
 2.3600	69.5400
 2.3640	69.5700
 2.3680	69.6100
 2.3720	69.6600
 2.3760	69.6700
 2.3800	69.7800
 2.3840	69.6200
 2.3880	69.7000
 2.3920	69.6600
 2.3960	69.6700
 2.4000	69.7500
 2.4040	69.6800
 2.4080	69.7400
 2.4120	69.6900
 2.4160	69.6900
 2.4200	69.7000
 2.4240	69.6900
 2.4280	69.7200
 2.4320	69.7500
 2.4360	69.7700
 2.4400	69.7100
 2.4440	69.6900
 2.4480	69.5900
 2.4520	69.6100
 2.4560	69.6400
 2.4600	69.5900
 2.4640	69.5600
 2.4680	69.6000
 2.4720	69.5600
 2.4760	69.6500
 2.4800	69.7600
 2.4840	69.7800
 2.4880	69.8500
 2.4920	69.8500
 2.4960	69.8700
 2.5000	69.8900
