Name: Cordierite Mg_2Al_3(Si_5Al)O_18
Type: Mineral
Class: Silicate
Subclass: Cyclosilicate
Particle Size: Coarse
Sample No.: CS-3A
Owner: JPL
Wavelength Range: VSWIR
Origin: Canada, Northwest Territories, Mackenzie District, Great Bear Lake
Collection Date: N/A
Description: Particle size was 125-500um.Collected by Ward's Original ASTER Spectral Library name was jpl.beckman.mineral.silicate.cyclosilicate.coarse.cs03a.spectrum.txt
Measurement: Hemispherical reflectance
First Column: X
Second Column: Y
X Units: Wavelength (micrometers)
Y Units:Reflectance (percent)
First X Value:  0.4000
Last X Value:  2.5000
Number of X Values: 826
Additional Information: mineral.silicate.cyclosilicate.coarse.vswir.cs-3a.jpl.beckman.ancillary.txt

 0.4000	31.4300
 0.4010	31.6300
 0.4020	31.6300
 0.4030	31.7300
 0.4040	31.7100
 0.4050	31.8100
 0.4060	31.8700
 0.4070	31.7100
 0.4080	31.5900
 0.4090	31.6900
 0.4100	31.6900
 0.4110	31.6100
 0.4120	31.4900
 0.4130	31.4500
 0.4140	31.5700
 0.4150	31.4100
 0.4160	31.3500
 0.4170	31.2900
 0.4180	31.3300
 0.4190	31.4500
 0.4200	31.3700
 0.4210	31.3300
 0.4220	31.3900
 0.4230	31.5900
 0.4240	31.7900
 0.4250	31.6500
 0.4260	31.7900
 0.4270	31.8700
 0.4280	32.0200
 0.4290	32.0000
 0.4300	31.8500
 0.4310	31.9200
 0.4320	31.9200
 0.4330	32.0000
 0.4340	31.9800
 0.4350	31.7500
 0.4360	31.8300
 0.4370	31.8300
 0.4380	31.9200
 0.4390	31.8500
 0.4400	31.8700
 0.4410	32.1200
 0.4420	32.1400
 0.4430	32.1800
 0.4440	32.0600
 0.4450	32.1000
 0.4460	32.2000
 0.4470	32.1800
 0.4480	32.1800
 0.4490	32.0800
 0.4500	32.2600
 0.4510	32.1600
 0.4520	32.1400
 0.4530	31.9900
 0.4540	31.8700
 0.4550	32.0100
 0.4560	31.8700
 0.4570	31.8100
 0.4580	31.7400
 0.4590	31.7400
 0.4600	31.7900
 0.4610	31.6900
 0.4620	31.5500
 0.4630	31.5600
 0.4640	31.6000
 0.4650	31.5600
 0.4660	31.4200
 0.4670	31.3000
 0.4680	31.2800
 0.4690	31.2400
 0.4700	31.1400
 0.4710	30.9400
 0.4720	30.9600
 0.4730	30.8700
 0.4740	30.8900
 0.4750	30.7100
 0.4760	30.5900
 0.4770	30.7300
 0.4780	30.6500
 0.4790	30.5900
 0.4800	30.4500
 0.4810	30.4900
 0.4820	30.5000
 0.4830	30.3500
 0.4840	30.2700
 0.4850	30.1500
 0.4860	30.0900
 0.4870	30.0900
 0.4880	29.8600
 0.4890	29.7300
 0.4900	29.6500
 0.4910	29.7500
 0.4920	29.7000
 0.4930	29.7100
 0.4940	29.6100
 0.4950	29.6800
 0.4960	29.8900
 0.4970	29.8500
 0.4980	29.7800
 0.4990	29.8000
 0.5000	29.7800
 0.5010	29.8200
 0.5020	29.7400
 0.5030	29.5700
 0.5040	29.6100
 0.5050	29.6700
 0.5060	29.5700
 0.5070	29.4100
 0.5080	29.4900
 0.5090	29.4500
 0.5100	29.5000
 0.5110	29.3500
 0.5120	29.2700
 0.5130	29.2700
 0.5140	29.2900
 0.5150	29.1900
 0.5160	29.0200
 0.5170	29.0200
 0.5180	29.0700
 0.5190	29.0500
 0.5200	28.9800
 0.5210	28.9900
 0.5220	29.0000
 0.5230	29.0800
 0.5240	29.0400
 0.5250	28.9700
 0.5260	28.9700
 0.5270	28.9300
 0.5280	28.9700
 0.5290	28.9000
 0.5300	28.8000
 0.5310	28.7200
 0.5320	28.8700
 0.5330	28.7600
 0.5340	28.5400
 0.5350	28.6500
 0.5360	28.7100
 0.5370	28.6900
 0.5380	28.6700
 0.5390	28.5500
 0.5400	28.5900
 0.5410	28.6500
 0.5420	28.5300
 0.5430	28.4900
 0.5440	28.4600
 0.5450	28.5800
 0.5460	28.5300
 0.5470	28.3700
 0.5480	28.4600
 0.5490	28.4300
 0.5500	28.5100
 0.5510	28.4700
 0.5520	28.3400
 0.5530	28.4500
 0.5540	28.4600
 0.5550	28.4800
 0.5560	28.3100
 0.5570	28.3400
 0.5580	28.4400
 0.5590	28.4900
 0.5600	28.4400
 0.5610	28.5600
 0.5620	28.5800
 0.5630	28.4800
 0.5640	28.4600
 0.5650	28.4100
 0.5660	28.5500
 0.5670	28.3500
 0.5680	28.4900
 0.5690	28.3900
 0.5700	28.3400
 0.5710	28.4100
 0.5720	28.3500
 0.5730	28.2100
 0.5740	28.2600
 0.5750	28.3600
 0.5760	28.2700
 0.5770	28.1900
 0.5780	28.1500
 0.5790	28.3300
 0.5800	28.3700
 0.5810	28.2800
 0.5820	28.2400
 0.5830	28.3400
 0.5840	28.2900
 0.5850	28.3700
 0.5860	28.3100
 0.5870	28.2700
 0.5880	28.3600
 0.5890	28.4500
 0.5900	28.4300
 0.5910	28.3300
 0.5920	28.4800
 0.5930	28.5200
 0.5940	28.4500
 0.5950	28.5000
 0.5960	28.5200
 0.5970	28.5700
 0.5980	28.7100
 0.5990	28.8000
 0.6000	28.7500
 0.6010	28.8400
 0.6020	28.9900
 0.6030	28.9800
 0.6040	28.9600
 0.6050	28.8600
 0.6060	28.9600
 0.6070	29.1400
 0.6080	29.0500
 0.6090	29.1600
 0.6100	29.0900
 0.6110	29.1700
 0.6120	29.3200
 0.6130	29.2600
 0.6140	29.2800
 0.6150	29.2600
 0.6160	29.3900
 0.6170	29.4500
 0.6180	29.3400
 0.6190	29.4600
 0.6200	29.5000
 0.6210	29.4000
 0.6220	29.5600
 0.6230	29.5800
 0.6240	29.6200
 0.6250	29.7100
 0.6260	29.6300
 0.6270	29.7000
 0.6280	29.7300
 0.6290	29.8600
 0.6300	29.9600
 0.6310	29.7900
 0.6320	29.9600
 0.6330	30.0000
 0.6340	29.9600
 0.6350	30.0800
 0.6360	30.0500
 0.6370	30.0500
 0.6380	30.1900
 0.6390	30.1700
 0.6400	30.1700
 0.6410	30.2300
 0.6420	30.3700
 0.6430	30.4200
 0.6440	30.3700
 0.6450	30.4000
 0.6460	30.4800
 0.6470	30.6200
 0.6480	30.5400
 0.6490	30.6000
 0.6500	30.6600
 0.6510	30.7800
 0.6520	30.9100
 0.6530	30.9100
 0.6540	30.8800
 0.6550	30.9900
 0.6560	31.2100
 0.6570	31.2100
 0.6580	31.1300
 0.6590	31.2800
 0.6600	31.3400
 0.6610	31.4400
 0.6620	31.5700
 0.6630	31.5300
 0.6640	31.6900
 0.6650	31.8100
 0.6660	31.8600
 0.6670	31.9400
 0.6680	31.9400
 0.6690	32.1900
 0.6700	32.3200
 0.6710	32.3100
 0.6720	32.2700
 0.6730	32.4300
 0.6740	32.5500
 0.6750	32.6300
 0.6760	32.7700
 0.6770	32.7900
 0.6780	32.9000
 0.6790	32.9500
 0.6800	33.0700
 0.6810	33.1300
 0.6820	33.1000
 0.6830	33.3400
 0.6840	33.4300
 0.6850	33.4900
 0.6860	33.5100
 0.6870	33.6700
 0.6880	33.8800
 0.6890	33.8100
 0.6900	33.9400
 0.6910	34.0000
 0.6920	34.1100
 0.6930	34.2100
 0.6940	34.3400
 0.6950	34.3600
 0.6960	34.3800
 0.6970	34.6300
 0.6980	34.6600
 0.6990	34.6300
 0.7000	34.6700
 0.7010	34.8900
 0.7020	34.8900
 0.7030	35.0300
 0.7040	35.1400
 0.7050	35.2800
 0.7060	35.2800
 0.7070	35.3400
 0.7080	35.4000
 0.7090	35.5200
 0.7100	35.6200
 0.7110	35.6800
 0.7120	35.6700
 0.7130	35.8200
 0.7140	35.8900
 0.7150	35.8900
 0.7160	35.9600
 0.7170	36.0400
 0.7180	36.2200
 0.7190	36.1900
 0.7200	36.2800
 0.7210	36.2700
 0.7220	36.3900
 0.7230	36.5100
 0.7240	36.5000
 0.7250	36.5200
 0.7260	36.6100
 0.7270	36.7600
 0.7280	36.7900
 0.7290	36.8200
 0.7300	36.8400
 0.7310	36.9700
 0.7320	37.1600
 0.7330	37.0500
 0.7340	37.0900
 0.7350	37.0000
 0.7360	37.0400
 0.7370	37.1600
 0.7380	37.1000
 0.7390	37.1200
 0.7400	37.0700
 0.7410	37.2600
 0.7420	37.2700
 0.7430	37.1600
 0.7440	37.2700
 0.7450	37.2800
 0.7460	37.4000
 0.7470	37.3700
 0.7480	37.3000
 0.7490	37.2400
 0.7500	37.2400
 0.7510	37.2600
 0.7520	37.1400
 0.7530	37.1600
 0.7540	37.1300
 0.7550	37.2600
 0.7560	37.2800
 0.7570	37.1900
 0.7580	37.0000
 0.7590	37.0700
 0.7600	36.9600
 0.7610	37.0400
 0.7620	36.9600
 0.7630	36.8200
 0.7640	36.6700
 0.7650	36.6200
 0.7660	36.6700
 0.7670	36.5300
 0.7680	36.4500
 0.7690	36.4600
 0.7700	36.5400
 0.7710	36.3600
 0.7720	36.1400
 0.7730	35.9200
 0.7740	35.8800
 0.7750	35.9200
 0.7760	35.6900
 0.7770	35.5600
 0.7780	35.3600
 0.7790	35.2300
 0.7800	35.2800
 0.7810	35.0500
 0.7820	34.9100
 0.7830	34.8000
 0.7840	34.7800
 0.7850	34.6700
 0.7860	34.3200
 0.7870	34.3300
 0.7880	34.2100
 0.7890	34.1800
 0.7900	33.9700
 0.7910	33.7500
 0.7920	33.6300
 0.7930	33.4600
 0.7940	33.3700
 0.7950	33.2900
 0.7960	33.1900
 0.7970	33.0600
 0.7980	33.0300
 0.7990	32.9200
 0.8000	32.8600
 0.8040	32.1700
 0.8080	31.4400
 0.8120	30.6700
 0.8160	29.9300
 0.8200	29.2000
 0.8240	28.3500
 0.8280	27.5400
 0.8320	26.8000
 0.8360	26.0200
 0.8400	25.2300
 0.8440	24.5700
 0.8480	23.7800
 0.8520	23.0900
 0.8560	22.3900
 0.8600	21.7700
 0.8640	21.1000
 0.8680	20.5100
 0.8720	19.9100
 0.8760	19.3400
 0.8800	18.8400
 0.8840	18.2000
 0.8880	17.7900
 0.8920	17.3000
 0.8960	16.9000
 0.9000	16.4000
 0.9040	16.0000
 0.9080	15.5800
 0.9120	15.2700
 0.9160	14.8800
 0.9200	14.5700
 0.9240	14.2600
 0.9280	14.0900
 0.9320	13.7800
 0.9360	13.5800
 0.9400	13.4400
 0.9440	13.2700
 0.9480	13.0300
 0.9520	12.8900
 0.9560	12.8000
 0.9600	12.6700
 0.9640	12.5800
 0.9680	12.5500
 0.9720	12.4500
 0.9760	12.4400
 0.9800	12.4100
 0.9840	12.4500
 0.9880	12.4600
 0.9920	12.4700
 0.9960	12.5700
 1.0000	12.6400
 1.0040	12.7200
 1.0080	12.8400
 1.0120	12.9700
 1.0160	13.1400
 1.0200	13.3300
 1.0240	13.4100
 1.0280	13.6200
 1.0320	13.8300
 1.0360	13.9400
 1.0400	14.0700
 1.0440	14.3100
 1.0480	14.4500
 1.0520	14.6800
 1.0560	14.9800
 1.0600	15.1500
 1.0640	15.3900
 1.0680	15.4800
 1.0720	15.6800
 1.0760	15.8900
 1.0800	16.0400
 1.0840	16.2600
 1.0880	16.3200
 1.0920	16.4600
 1.0960	16.5800
 1.1000	16.7100
 1.1040	16.7500
 1.1080	16.9100
 1.1120	16.9900
 1.1160	17.0500
 1.1200	17.1000
 1.1240	17.1600
 1.1280	17.2400
 1.1320	17.3000
 1.1360	17.4000
 1.1400	17.4100
 1.1440	17.4000
 1.1480	17.3600
 1.1520	17.4500
 1.1560	17.5500
 1.1600	17.6500
 1.1640	17.6500
 1.1680	17.7800
 1.1720	17.8500
 1.1760	17.9600
 1.1800	18.0600
 1.1840	18.1000
 1.1880	18.2000
 1.1920	18.2600
 1.1960	18.3900
 1.2000	18.5100
 1.2040	18.6600
 1.2080	18.8000
 1.2120	18.9200
 1.2160	19.0800
 1.2200	19.3000
 1.2240	19.4500
 1.2280	19.7500
 1.2320	19.9400
 1.2360	20.1700
 1.2400	20.4600
 1.2440	20.8100
 1.2480	21.0100
 1.2520	21.3900
 1.2560	21.6600
 1.2600	22.0000
 1.2640	22.3800
 1.2680	22.7400
 1.2720	23.2000
 1.2760	23.5400
 1.2800	23.9500
 1.2840	24.3400
 1.2880	24.8100
 1.2920	25.2700
 1.2960	25.7700
 1.3000	26.2100
 1.3040	26.6900
 1.3080	27.2500
 1.3120	27.8000
 1.3160	28.3400
 1.3200	28.8700
 1.3240	29.4400
 1.3280	30.0700
 1.3320	30.6000
 1.3360	31.2200
 1.3400	31.8900
 1.3440	32.3600
 1.3480	32.9100
 1.3520	33.3000
 1.3560	33.6700
 1.3600	34.2800
 1.3640	34.9200
 1.3680	35.5100
 1.3720	36.0900
 1.3760	36.7500
 1.3800	37.3600
 1.3840	37.8700
 1.3880	37.8900
 1.3920	36.8000
 1.3960	33.8900
 1.4000	31.9200
 1.4040	33.7600
 1.4080	37.5900
 1.4120	39.8000
 1.4160	41.0400
 1.4200	42.4200
 1.4240	43.8000
 1.4280	44.9700
 1.4320	45.9800
 1.4360	46.7600
 1.4400	47.6400
 1.4440	48.3800
 1.4480	49.1700
 1.4520	49.7800
 1.4560	49.9600
 1.4600	49.7500
 1.4640	49.8100
 1.4680	50.9600
 1.4720	52.6200
 1.4760	53.8100
 1.4800	54.5800
 1.4840	55.1900
 1.4880	55.7800
 1.4920	56.1800
 1.4960	56.7400
 1.5000	57.2200
 1.5040	57.7400
 1.5080	58.1200
 1.5120	58.6000
 1.5160	59.0000
 1.5200	59.3700
 1.5240	59.8200
 1.5280	60.1800
 1.5320	60.6200
 1.5360	60.9100
 1.5400	61.1900
 1.5440	61.4600
 1.5480	61.7700
 1.5520	62.0200
 1.5560	62.3000
 1.5600	62.5300
 1.5640	62.8300
 1.5680	62.9800
 1.5720	63.1600
 1.5760	63.4300
 1.5800	63.5800
 1.5840	63.8300
 1.5880	63.9200
 1.5920	64.0900
 1.5960	64.2000
 1.6000	64.3700
 1.6040	64.4900
 1.6080	64.7200
 1.6120	64.7600
 1.6160	64.9700
 1.6200	65.1300
 1.6240	65.1200
 1.6280	65.3000
 1.6320	65.4600
 1.6360	65.5300
 1.6400	65.5700
 1.6440	65.6400
 1.6480	65.7500
 1.6520	65.7900
 1.6560	65.7800
 1.6600	65.9400
 1.6640	65.9400
 1.6680	66.0800
 1.6720	66.0900
 1.6760	66.1700
 1.6800	66.3200
 1.6840	66.2700
 1.6880	66.2700
 1.6920	66.3500
 1.6960	66.3600
 1.7000	66.3800
 1.7040	66.4100
 1.7080	66.4600
 1.7120	66.4800
 1.7160	66.5200
 1.7200	66.5100
 1.7240	66.4300
 1.7280	66.4800
 1.7320	66.4100
 1.7360	66.3700
 1.7400	66.2600
 1.7440	66.2100
 1.7480	66.0800
 1.7520	65.9500
 1.7560	65.7800
 1.7600	65.5500
 1.7640	65.2700
 1.7680	64.9500
 1.7720	64.6200
 1.7760	64.1900
 1.7800	63.8100
 1.7840	63.3700
 1.7880	62.9300
 1.7920	62.3400
 1.7960	61.6600
 1.8000	60.7000
 1.8040	59.6000
 1.8080	58.4400
 1.8120	57.2100
 1.8160	56.2000
 1.8200	55.4600
 1.8240	54.8800
 1.8280	54.4400
 1.8320	54.2400
 1.8360	54.0100
 1.8400	53.9600
 1.8440	54.0300
 1.8480	54.2200
 1.8520	54.4600
 1.8560	54.7200
 1.8600	54.9400
 1.8640	54.9500
 1.8680	54.6300
 1.8720	53.6300
 1.8760	51.5900
 1.8800	48.2100
 1.8840	43.6200
 1.8880	38.8700
 1.8920	34.7500
 1.8960	33.0100
 1.9000	33.8900
 1.9040	36.5200
 1.9080	40.2600
 1.9120	44.4800
 1.9160	47.9200
 1.9200	50.4000
 1.9240	51.9700
 1.9280	52.8300
 1.9320	53.4900
 1.9360	53.9200
 1.9400	54.1200
 1.9440	54.4100
 1.9480	54.5300
 1.9520	54.6300
 1.9560	54.7200
 1.9600	54.8700
 1.9640	55.2100
 1.9680	55.6100
 1.9720	56.1800
 1.9760	56.7700
 1.9800	57.4000
 1.9840	58.0000
 1.9880	58.5200
 1.9920	58.9100
 1.9960	59.0800
 2.0000	59.3600
 2.0040	59.4900
 2.0080	59.6400
 2.0120	59.8400
 2.0160	60.1400
 2.0200	60.6100
 2.0240	60.9000
 2.0280	61.1800
 2.0320	61.4100
 2.0360	61.5900
 2.0400	61.5300
 2.0440	61.4800
 2.0480	61.3700
 2.0520	61.3200
 2.0560	61.2100
 2.0600	61.0800
 2.0640	60.9400
 2.0680	60.6300
 2.0720	60.4200
 2.0760	60.2600
 2.0800	60.1400
 2.0840	60.0100
 2.0880	59.9800
 2.0920	59.8900
 2.0960	59.8800
 2.1000	60.0200
 2.1040	60.0300
 2.1080	60.1000
 2.1120	60.1100
 2.1160	60.2100
 2.1200	60.3200
 2.1240	60.2700
 2.1280	60.1400
 2.1320	60.0200
 2.1360	59.9000
 2.1400	59.6700
 2.1440	59.4600
 2.1480	59.1300
 2.1520	58.8100
 2.1560	58.4600
 2.1600	58.1700
 2.1640	57.9400
 2.1680	57.7000
 2.1720	57.5200
 2.1760	57.3700
 2.1800	57.2900
 2.1840	57.0500
 2.1880	56.9200
 2.1920	56.7400
 2.1960	56.5800
 2.2000	56.5000
 2.2040	56.3900
 2.2080	56.3900
 2.2120	56.3600
 2.2160	56.4500
 2.2200	56.4900
 2.2240	56.5300
 2.2280	56.3400
 2.2320	56.4200
 2.2360	56.3700
 2.2400	56.2300
 2.2440	56.1500
 2.2480	56.1300
 2.2520	56.0500
 2.2560	55.9900
 2.2600	56.0400
 2.2640	56.0500
 2.2680	56.0400
 2.2720	56.0500
 2.2760	56.1100
 2.2800	56.1600
 2.2840	56.1300
 2.2880	56.1400
 2.2920	56.1700
 2.2960	56.2300
 2.3000	56.2600
 2.3040	56.3000
 2.3080	56.3900
 2.3120	56.4100
 2.3160	56.5100
 2.3200	56.4500
 2.3240	56.3900
 2.3280	56.4100
 2.3320	56.2900
 2.3360	56.2200
 2.3400	56.1500
 2.3440	56.0800
 2.3480	55.9800
 2.3520	55.9300
 2.3560	55.8800
 2.3600	55.7700
 2.3640	55.7300
 2.3680	55.7400
 2.3720	55.6200
 2.3760	55.4600
 2.3800	55.2700
 2.3840	55.1700
 2.3880	55.0300
 2.3920	54.7800
 2.3960	54.5800
 2.4000	54.3400
 2.4040	54.0800
 2.4080	53.7800
 2.4120	53.4400
 2.4160	53.0600
 2.4200	52.6500
 2.4240	52.3100
 2.4280	51.8000
 2.4320	51.3000
 2.4360	50.7600
 2.4400	50.1700
 2.4440	49.6500
 2.4480	48.9900
 2.4520	48.3300
 2.4560	47.5700
 2.4600	46.7700
 2.4640	46.0800
 2.4680	45.3000
 2.4720	44.4700
 2.4760	43.5500
 2.4800	42.7800
 2.4840	41.8600
 2.4880	40.9600
 2.4920	40.0200
 2.4960	39.0000
 2.5000	37.9600
