Name: Celestite SrSO_4
Type: Mineral
Class: Sulfate
Subclass: None
Particle Size: Medium
Sample No.: SO-5A
Owner: JPL
Wavelength Range: VSWIR
Origin: USA, Utah, Emery County
Collection Date: N/A
Description: Particle size was 45-125um.Collected by Grieger's Inc. Original ASTER Spectral Library name was jpl.beckman.mineral.sulfate.none.medium.so05a.spectrum.txt
Measurement: Hemispherical reflectance
First Column: X
Second Column: Y
X Units: Wavelength (micrometers)
Y Units:Reflectance (percent)
First X Value:  0.4000
Last X Value:  2.5000
Number of X Values: 826
Additional Information: mineral.sulfate.none.medium.vswir.so-5a.jpl.beckman.ancillary.txt

 0.4000	83.7500
 0.4010	84.2800
 0.4020	83.9900
 0.4030	84.0500
 0.4040	84.2200
 0.4050	84.5600
 0.4060	84.8000
 0.4070	84.4500
 0.4080	84.4500
 0.4090	84.6800
 0.4100	84.9200
 0.4110	85.2100
 0.4120	85.0300
 0.4130	84.5700
 0.4140	84.7400
 0.4150	85.2100
 0.4160	85.7400
 0.4170	85.3900
 0.4180	85.0300
 0.4190	85.0900
 0.4200	85.2700
 0.4210	85.5000
 0.4220	85.3300
 0.4230	85.2700
 0.4240	85.0900
 0.4250	85.5000
 0.4260	85.7400
 0.4270	85.8000
 0.4280	85.6200
 0.4290	85.3900
 0.4300	85.6800
 0.4310	86.0200
 0.4320	85.9000
 0.4330	85.6200
 0.4340	85.3900
 0.4350	85.6800
 0.4360	85.9000
 0.4370	86.0200
 0.4380	86.0200
 0.4390	85.8000
 0.4400	86.0800
 0.4410	86.2500
 0.4420	86.2500
 0.4430	86.2000
 0.4440	85.9000
 0.4450	86.2000
 0.4460	86.6700
 0.4470	86.6700
 0.4480	86.3100
 0.4490	86.0800
 0.4500	86.2500
 0.4510	86.6700
 0.4520	87.0800
 0.4530	87.0800
 0.4540	86.8500
 0.4550	86.7900
 0.4560	86.9700
 0.4570	87.2500
 0.4580	87.0900
 0.4590	86.6900
 0.4600	87.0900
 0.4610	86.9100
 0.4620	87.1400
 0.4630	87.3300
 0.4640	87.0400
 0.4650	86.8000
 0.4660	86.7000
 0.4670	86.8600
 0.4680	87.3400
 0.4690	87.0500
 0.4700	86.9300
 0.4710	86.8700
 0.4720	87.0500
 0.4730	87.2300
 0.4740	87.2300
 0.4750	87.0600
 0.4760	86.6500
 0.4770	86.6500
 0.4780	87.0700
 0.4790	87.3600
 0.4800	87.4200
 0.4810	87.1800
 0.4820	86.7700
 0.4830	87.1400
 0.4840	87.3700
 0.4850	87.4300
 0.4860	87.2500
 0.4870	87.1400
 0.4880	87.3200
 0.4890	87.6000
 0.4900	87.7200
 0.4910	87.3200
 0.4920	87.0900
 0.4930	87.1000
 0.4940	87.4400
 0.4950	87.7300
 0.4960	87.6700
 0.4970	87.4400
 0.4980	87.4500
 0.4990	87.7400
 0.5000	87.9800
 0.5010	87.6200
 0.5020	87.2700
 0.5030	87.3900
 0.5040	87.6200
 0.5050	87.7400
 0.5060	87.7400
 0.5070	87.3900
 0.5080	87.2700
 0.5090	87.4500
 0.5100	87.8000
 0.5110	88.0300
 0.5120	87.7400
 0.5130	87.3300
 0.5140	86.8700
 0.5150	87.1000
 0.5160	87.5700
 0.5170	87.4500
 0.5180	87.3300
 0.5190	86.9800
 0.5200	87.2100
 0.5210	87.5100
 0.5220	87.5100
 0.5230	87.3900
 0.5240	87.1600
 0.5250	87.5700
 0.5260	87.8000
 0.5270	87.7400
 0.5280	87.5100
 0.5290	87.2700
 0.5300	87.2100
 0.5310	87.4500
 0.5320	87.9200
 0.5330	87.5700
 0.5340	87.1000
 0.5350	86.7600
 0.5360	87.2700
 0.5370	87.6800
 0.5380	87.8000
 0.5390	87.6800
 0.5400	87.3300
 0.5410	87.1600
 0.5420	87.6200
 0.5430	87.6200
 0.5440	87.5100
 0.5450	87.1600
 0.5460	86.7000
 0.5470	86.9300
 0.5480	87.4500
 0.5490	87.3900
 0.5500	86.8700
 0.5510	86.7000
 0.5520	87.0400
 0.5530	87.3300
 0.5540	87.3900
 0.5550	87.1600
 0.5560	86.8100
 0.5570	87.0400
 0.5580	87.2100
 0.5590	86.9800
 0.5600	86.9300
 0.5610	87.3300
 0.5620	87.3900
 0.5630	87.3900
 0.5640	86.9300
 0.5650	86.8700
 0.5660	87.1000
 0.5670	87.2700
 0.5680	87.3300
 0.5690	87.1600
 0.5700	86.8100
 0.5710	86.9300
 0.5720	87.2700
 0.5730	87.2100
 0.5740	86.9300
 0.5750	86.7600
 0.5760	86.8700
 0.5770	86.9800
 0.5780	87.1600
 0.5790	86.8100
 0.5800	86.5200
 0.5810	86.7000
 0.5820	86.6400
 0.5830	87.0400
 0.5840	86.9300
 0.5850	86.8100
 0.5860	86.5800
 0.5870	86.5800
 0.5880	86.9300
 0.5890	86.9300
 0.5900	86.8100
 0.5910	86.4000
 0.5920	86.3400
 0.5930	86.7600
 0.5940	86.8700
 0.5950	86.5800
 0.5960	86.2300
 0.5970	86.1700
 0.5980	86.7000
 0.5990	86.9300
 0.6000	86.8100
 0.6010	86.6400
 0.6020	86.2900
 0.6030	86.8100
 0.6040	87.1600
 0.6050	87.1000
 0.6060	86.8100
 0.6070	86.4000
 0.6080	86.5200
 0.6090	86.9800
 0.6100	87.1600
 0.6110	86.9800
 0.6120	86.9300
 0.6130	86.8700
 0.6140	87.1600
 0.6150	87.5100
 0.6160	87.6200
 0.6170	87.3900
 0.6180	87.1600
 0.6190	87.1000
 0.6200	87.2700
 0.6210	87.2700
 0.6220	86.9800
 0.6230	86.9800
 0.6240	86.9300
 0.6250	87.2100
 0.6260	87.3300
 0.6270	87.4500
 0.6280	87.2700
 0.6290	86.9300
 0.6300	87.1000
 0.6310	87.3900
 0.6320	87.4500
 0.6330	87.1000
 0.6340	86.9300
 0.6350	87.0400
 0.6360	87.2700
 0.6370	87.8000
 0.6380	87.6200
 0.6390	87.2100
 0.6400	87.3300
 0.6410	87.5700
 0.6420	88.0300
 0.6430	87.9800
 0.6440	87.7400
 0.6450	87.5700
 0.6460	87.8000
 0.6470	88.2100
 0.6480	88.2100
 0.6490	88.0300
 0.6500	87.8600
 0.6510	87.9800
 0.6520	88.3300
 0.6530	88.3900
 0.6540	88.2700
 0.6550	88.0900
 0.6560	88.0300
 0.6570	88.5600
 0.6580	88.7900
 0.6590	88.7900
 0.6600	88.5000
 0.6610	88.2700
 0.6620	88.7300
 0.6630	89.1400
 0.6640	89.1400
 0.6650	88.7900
 0.6660	88.6700
 0.6670	88.5600
 0.6680	88.7900
 0.6690	89.3100
 0.6700	89.2000
 0.6710	88.9000
 0.6720	88.7300
 0.6730	89.0200
 0.6740	89.3700
 0.6750	89.3100
 0.6760	89.3100
 0.6770	89.0800
 0.6780	88.8500
 0.6790	89.3100
 0.6800	89.6700
 0.6810	89.3700
 0.6820	89.1400
 0.6830	89.0800
 0.6840	89.4300
 0.6850	89.7800
 0.6860	90.0200
 0.6870	89.6700
 0.6880	89.4300
 0.6890	89.4300
 0.6900	89.6700
 0.6910	90.2500
 0.6920	90.3000
 0.6930	90.0800
 0.6940	89.9000
 0.6950	90.0800
 0.6960	90.5400
 0.6970	90.5400
 0.6980	90.1900
 0.6990	90.0200
 0.7000	89.8400
 0.7010	90.0200
 0.7020	90.3600
 0.7030	90.4800
 0.7040	90.3000
 0.7050	89.8400
 0.7060	90.0800
 0.7070	90.2500
 0.7080	90.5400
 0.7090	90.6500
 0.7100	90.3600
 0.7110	90.0200
 0.7120	89.9600
 0.7130	90.2500
 0.7140	90.5400
 0.7150	90.5400
 0.7160	90.3000
 0.7170	90.0200
 0.7180	90.4200
 0.7190	90.7700
 0.7200	90.8300
 0.7210	90.5400
 0.7220	90.1300
 0.7230	90.2500
 0.7240	90.5400
 0.7250	90.9500
 0.7260	91.1200
 0.7270	90.8900
 0.7280	90.4800
 0.7290	90.4200
 0.7300	90.6500
 0.7310	90.9500
 0.7320	91.0000
 0.7330	90.7700
 0.7340	90.5900
 0.7350	90.7700
 0.7360	91.0600
 0.7370	91.2400
 0.7380	91.1800
 0.7390	90.6500
 0.7400	90.7100
 0.7410	91.0000
 0.7420	91.2400
 0.7430	91.1800
 0.7440	90.7700
 0.7450	90.7100
 0.7460	90.7700
 0.7470	91.1800
 0.7480	91.5300
 0.7490	91.2400
 0.7500	90.9500
 0.7510	91.0000
 0.7520	91.3000
 0.7530	91.3600
 0.7540	91.3600
 0.7550	91.4100
 0.7560	90.9500
 0.7570	91.1200
 0.7580	91.4700
 0.7590	91.4100
 0.7600	91.4700
 0.7610	91.1200
 0.7620	91.3000
 0.7630	91.4100
 0.7640	91.6500
 0.7650	91.5300
 0.7660	91.0600
 0.7670	91.2400
 0.7680	91.4700
 0.7690	91.7700
 0.7700	92.1100
 0.7710	91.8200
 0.7720	91.5300
 0.7730	91.5900
 0.7740	91.7700
 0.7750	91.8200
 0.7760	91.9400
 0.7770	92.0500
 0.7780	91.7100
 0.7790	91.8200
 0.7800	91.9900
 0.7810	92.1100
 0.7820	91.9400
 0.7830	91.5900
 0.7840	91.5900
 0.7850	91.8800
 0.7860	92.2800
 0.7870	92.3400
 0.7880	91.8800
 0.7890	91.9400
 0.7900	92.0500
 0.7910	92.3400
 0.7920	92.6400
 0.7930	92.4000
 0.7940	91.9400
 0.7950	92.1700
 0.7960	92.4600
 0.7970	92.5800
 0.7980	92.4600
 0.7990	91.5900
 0.8000	91.6400
 0.8040	91.8200
 0.8080	91.8200
 0.8120	91.7700
 0.8160	91.9900
 0.8200	91.9900
 0.8240	92.1100
 0.8280	92.1100
 0.8320	92.0500
 0.8360	92.2300
 0.8400	92.1100
 0.8440	92.2800
 0.8480	92.3400
 0.8520	92.2300
 0.8560	92.4000
 0.8600	92.3400
 0.8640	92.5800
 0.8680	92.4600
 0.8720	92.2800
 0.8760	92.5200
 0.8800	92.3400
 0.8840	92.4600
 0.8880	92.4600
 0.8920	92.4000
 0.8960	92.4600
 0.9000	92.4000
 0.9040	92.4600
 0.9080	92.4000
 0.9120	92.4600
 0.9160	92.5800
 0.9200	92.3400
 0.9240	92.4000
 0.9280	92.5800
 0.9320	92.4600
 0.9360	92.5800
 0.9400	92.4600
 0.9440	92.6900
 0.9480	92.4600
 0.9520	92.6400
 0.9560	92.6900
 0.9600	92.6400
 0.9640	92.6400
 0.9680	92.5200
 0.9720	92.8100
 0.9760	92.6900
 0.9800	92.6900
 0.9840	92.6900
 0.9880	92.7500
 0.9920	92.8100
 0.9960	92.6400
 1.0000	92.5200
 1.0040	92.8100
 1.0080	92.6400
 1.0120	92.6400
 1.0160	92.8100
 1.0200	92.6400
 1.0240	92.6900
 1.0280	92.8100
 1.0320	92.8100
 1.0360	92.9300
 1.0400	92.9300
 1.0440	92.8700
 1.0480	92.9300
 1.0520	92.7500
 1.0560	92.9300
 1.0600	92.9900
 1.0640	92.7500
 1.0680	93.1000
 1.0720	92.8100
 1.0760	92.8100
 1.0800	92.9300
 1.0840	92.7500
 1.0880	92.8700
 1.0920	92.8100
 1.0960	92.9300
 1.1000	92.9300
 1.1040	92.8100
 1.1080	92.9300
 1.1120	92.8700
 1.1160	92.9300
 1.1200	92.9300
 1.1240	92.9900
 1.1280	92.9900
 1.1320	92.8100
 1.1360	92.9900
 1.1400	92.8700
 1.1440	92.8700
 1.1480	92.9900
 1.1520	92.9300
 1.1560	92.9200
 1.1600	92.7900
 1.1640	93.1300
 1.1680	92.9500
 1.1720	92.7700
 1.1760	93.0000
 1.1800	92.8700
 1.1840	92.9200
 1.1880	93.0200
 1.1920	92.9100
 1.1960	93.0100
 1.2000	92.9500
 1.2040	93.0000
 1.2080	92.9000
 1.2120	92.7800
 1.2160	93.0600
 1.2200	92.9000
 1.2240	92.9500
 1.2280	92.9500
 1.2320	92.9500
 1.2360	92.9500
 1.2400	92.8400
 1.2440	93.0000
 1.2480	93.0000
 1.2520	93.0000
 1.2560	92.9500
 1.2600	92.8800
 1.2640	92.9800
 1.2680	92.7400
 1.2720	92.9700
 1.2760	92.9100
 1.2800	92.9000
 1.2840	93.1200
 1.2880	92.8200
 1.2920	92.9300
 1.2960	92.9800
 1.3000	92.9700
 1.3040	92.9600
 1.3080	92.6600
 1.3120	92.9500
 1.3160	92.9400
 1.3200	92.8200
 1.3240	92.9200
 1.3280	92.7500
 1.3320	92.8500
 1.3360	92.8500
 1.3400	92.9000
 1.3440	92.7800
 1.3480	92.7100
 1.3520	92.9400
 1.3560	92.7700
 1.3600	92.7100
 1.3640	92.7100
 1.3680	92.7700
 1.3720	92.7700
 1.3760	92.6500
 1.3800	92.8200
 1.3840	92.7100
 1.3880	92.6500
 1.3920	92.7700
 1.3960	92.5900
 1.4000	92.7700
 1.4040	92.7200
 1.4080	92.7300
 1.4120	92.7300
 1.4160	92.5600
 1.4200	92.6900
 1.4240	92.5800
 1.4280	92.7000
 1.4320	92.8200
 1.4360	92.7100
 1.4400	92.8900
 1.4440	92.6700
 1.4480	92.7400
 1.4520	92.7400
 1.4560	92.5600
 1.4600	92.8000
 1.4640	92.6800
 1.4680	92.5000
 1.4720	92.8000
 1.4760	92.6800
 1.4800	92.6200
 1.4840	92.5600
 1.4880	92.6200
 1.4920	92.6200
 1.4960	92.6800
 1.5000	92.6800
 1.5040	92.5600
 1.5080	92.7400
 1.5120	92.7400
 1.5160	92.6200
 1.5200	92.7400
 1.5240	92.5600
 1.5280	92.6800
 1.5320	92.6200
 1.5360	92.7400
 1.5400	92.8600
 1.5440	92.6200
 1.5480	92.9100
 1.5520	92.8000
 1.5560	92.7400
 1.5600	92.8600
 1.5640	92.6200
 1.5680	92.8000
 1.5720	92.8600
 1.5760	92.7400
 1.5800	92.9100
 1.5840	92.7400
 1.5880	92.8600
 1.5920	92.9100
 1.5960	92.8000
 1.6000	92.9700
 1.6040	92.7900
 1.6080	92.9500
 1.6120	92.8900
 1.6160	92.8800
 1.6200	92.9300
 1.6240	92.8100
 1.6280	92.8500
 1.6320	92.9100
 1.6360	92.8000
 1.6400	92.9000
 1.6440	92.7800
 1.6480	92.8800
 1.6520	92.8200
 1.6560	92.8700
 1.6600	92.8600
 1.6640	92.7900
 1.6680	92.9600
 1.6720	92.9000
 1.6760	92.9500
 1.6800	92.8200
 1.6840	92.8100
 1.6880	92.9200
 1.6920	92.8000
 1.6960	92.9100
 1.7000	93.0200
 1.7040	92.8400
 1.7080	92.9600
 1.7120	92.9600
 1.7160	92.8400
 1.7200	92.9000
 1.7240	92.8400
 1.7280	92.9000
 1.7320	92.8400
 1.7360	92.9000
 1.7400	92.9000
 1.7440	92.7800
 1.7480	92.7800
 1.7520	92.7200
 1.7560	92.7800
 1.7600	92.8400
 1.7640	92.7200
 1.7680	92.9000
 1.7720	92.7200
 1.7760	92.7800
 1.7800	92.8400
 1.7840	92.7200
 1.7880	92.7800
 1.7920	92.6700
 1.7960	92.7800
 1.8000	92.7800
 1.8040	92.7500
 1.8080	92.9000
 1.8120	92.6900
 1.8160	92.7800
 1.8200	92.7500
 1.8240	92.6000
 1.8280	92.6400
 1.8320	92.5400
 1.8360	92.6300
 1.8400	92.5400
 1.8440	92.5100
 1.8480	92.6600
 1.8520	92.4100
 1.8560	92.5200
 1.8600	92.4500
 1.8640	92.4400
 1.8680	92.3700
 1.8720	92.2600
 1.8760	92.4200
 1.8800	92.1800
 1.8840	92.1700
 1.8880	92.2200
 1.8920	92.0500
 1.8960	92.1600
 1.9000	92.0300
 1.9040	91.9600
 1.9080	91.9500
 1.9120	91.8300
 1.9160	91.9400
 1.9200	92.0500
 1.9240	91.8600
 1.9280	92.0300
 1.9320	91.8000
 1.9360	91.9600
 1.9400	92.0100
 1.9440	92.0000
 1.9480	91.9900
 1.9520	91.9800
 1.9560	92.1200
 1.9600	92.2200
 1.9640	92.2000
 1.9680	92.2900
 1.9720	92.3900
 1.9760	92.5300
 1.9800	92.4500
 1.9840	92.6100
 1.9880	92.5800
 1.9920	92.5700
 1.9960	92.8800
 2.0000	92.8600
 2.0040	92.9600
 2.0080	92.8900
 2.0120	92.9400
 2.0160	93.0200
 2.0200	92.9200
 2.0240	93.1900
 2.0280	93.0600
 2.0320	93.1700
 2.0360	93.1300
 2.0400	93.1500
 2.0440	93.1900
 2.0480	93.0600
 2.0520	93.1700
 2.0560	93.2400
 2.0600	93.2100
 2.0640	93.2800
 2.0680	93.2400
 2.0720	93.3200
 2.0760	93.2300
 2.0800	93.3500
 2.0840	93.3700
 2.0880	93.2800
 2.0920	93.5300
 2.0960	93.4900
 2.1000	93.4500
 2.1040	93.6300
 2.1080	93.5400
 2.1120	93.7300
 2.1160	93.6900
 2.1200	93.7600
 2.1240	93.6800
 2.1280	93.4400
 2.1320	93.5700
 2.1360	93.4000
 2.1400	93.3400
 2.1440	93.5000
 2.1480	93.2500
 2.1520	93.3100
 2.1560	93.1600
 2.1600	93.0100
 2.1640	92.9600
 2.1680	92.7900
 2.1720	92.9100
 2.1760	92.8500
 2.1800	92.7400
 2.1840	92.8100
 2.1880	92.6600
 2.1920	92.6700
 2.1960	92.8100
 2.2000	92.7200
 2.2040	92.6000
 2.2080	92.4800
 2.2120	92.6800
 2.2160	92.7200
 2.2200	92.5200
 2.2240	92.8100
 2.2280	92.6900
 2.2320	92.6800
 2.2360	92.7600
 2.2400	92.6000
 2.2440	92.7200
 2.2480	92.7700
 2.2520	92.7500
 2.2560	92.8300
 2.2600	92.7900
 2.2640	92.8500
 2.2680	92.8500
 2.2720	92.8300
 2.2760	92.9100
 2.2800	92.7500
 2.2840	92.8900
 2.2880	93.1300
 2.2920	93.1300
 2.2960	93.2200
 2.3000	93.1500
 2.3040	93.4000
 2.3080	93.1900
 2.3120	93.3700
 2.3160	93.3900
 2.3200	93.4700
 2.3240	93.5100
 2.3280	93.3200
 2.3320	93.5800
 2.3360	93.2800
 2.3400	93.3600
 2.3440	93.3800
 2.3480	93.1800
 2.3520	93.3100
 2.3560	93.2700
 2.3600	93.2300
 2.3640	93.0300
 2.3680	92.9900
 2.3720	93.1300
 2.3760	92.8500
 2.3800	92.9700
 2.3840	93.1500
 2.3880	92.7800
 2.3920	93.0400
 2.3960	92.9800
 2.4000	92.8700
 2.4040	92.8600
 2.4080	92.7900
 2.4120	92.8500
 2.4160	92.7300
 2.4200	92.9400
 2.4240	92.8200
 2.4280	92.7000
 2.4320	92.8100
 2.4360	92.7500
 2.4400	92.7900
 2.4440	92.6700
 2.4480	92.5400
 2.4520	92.6000
 2.4560	92.4200
 2.4600	92.5300
 2.4640	92.5200
 2.4680	92.3900
 2.4720	92.5100
 2.4760	92.6100
 2.4800	92.6600
 2.4840	92.7100
 2.4880	92.8600
 2.4920	93.0900
 2.4960	93.0800
 2.5000	92.6200
