Name: Calcite CaCO_3
Type: Mineral
Class: Carbonate
Subclass: None
Particle Size: Coarse
Sample No.: C-3D
Owner: JPL
Wavelength Range: VSWIR
Origin: United Kingdom, England.
Collection Date: N/A
Description: Particle size was 125-500um.Collected by:  Ward's Original ASTER Spectral Library name was jpl.perkin.mineral.carbonate.none.coarse.c03d.spectrum.txt
Measurement: Hemispherical reflectance
First Column: X
Second Column: Y
X Units: Wavelength (micrometers)
Y Units:Reflectance (percent)
First X Value:  2.5000
Last X Value:  0.4000
Number of X Values: 2101
Additional Information: mineral.carbonate.none.coarse.vswir.c-3d.jpl.perkin.ancillary.txt

 2.5000	60.7184
 2.4990	60.5282
 2.4980	60.7391
 2.4970	60.8331
 2.4960	60.7673
 2.4950	60.9126
 2.4940	61.0550
 2.4930	61.1879
 2.4920	61.2929
 2.4910	61.3221
 2.4900	61.4727
 2.4890	61.6060
 2.4880	61.7899
 2.4870	61.8705
 2.4860	62.2297
 2.4850	62.4440
 2.4840	62.6108
 2.4830	62.6636
 2.4820	63.0166
 2.4810	63.0796
 2.4800	63.4262
 2.4790	63.5662
 2.4780	63.8398
 2.4770	64.2013
 2.4760	64.5524
 2.4750	64.8426
 2.4740	65.1048
 2.4730	65.2464
 2.4720	65.6991
 2.4710	65.9645
 2.4700	66.3822
 2.4690	66.5567
 2.4680	66.8885
 2.4670	67.1984
 2.4660	67.5938
 2.4650	67.8207
 2.4640	68.2198
 2.4630	68.4689
 2.4620	68.7192
 2.4610	69.0743
 2.4600	69.4219
 2.4590	69.7518
 2.4580	70.0764
 2.4570	70.2153
 2.4560	70.5439
 2.4550	70.8105
 2.4540	71.0855
 2.4530	71.3125
 2.4520	71.5490
 2.4510	71.7341
 2.4500	71.9426
 2.4490	72.0725
 2.4480	72.3490
 2.4470	72.5300
 2.4460	72.7998
 2.4450	72.9936
 2.4440	73.0878
 2.4430	73.2753
 2.4420	73.3974
 2.4410	73.6278
 2.4400	73.8056
 2.4390	73.9193
 2.4380	74.1416
 2.4370	74.2497
 2.4360	74.4238
 2.4350	74.6762
 2.4340	74.7436
 2.4330	74.9174
 2.4320	75.1200
 2.4310	75.3344
 2.4300	75.5253
 2.4290	75.5128
 2.4280	75.6580
 2.4270	75.8367
 2.4260	75.9784
 2.4250	76.0742
 2.4240	76.2787
 2.4230	76.3787
 2.4220	76.5037
 2.4210	76.5848
 2.4200	76.7150
 2.4190	76.8392
 2.4180	76.9726
 2.4170	77.0348
 2.4160	77.1402
 2.4150	77.3409
 2.4140	77.4191
 2.4130	77.4516
 2.4120	77.5874
 2.4110	77.6311
 2.4100	77.7591
 2.4090	77.8671
 2.4080	77.8669
 2.4070	77.9293
 2.4060	78.0367
 2.4050	78.0880
 2.4040	78.0846
 2.4030	78.1785
 2.4020	78.1861
 2.4010	78.2493
 2.4000	78.3404
 2.3990	78.4053
 2.3980	78.4801
 2.3970	78.5463
 2.3960	78.5890
 2.3950	78.6090
 2.3940	78.6887
 2.3930	78.7287
 2.3920	78.7386
 2.3910	78.7884
 2.3900	78.8587
 2.3890	78.9480
 2.3880	78.8678
 2.3870	78.8047
 2.3860	78.8932
 2.3850	78.9329
 2.3840	78.8659
 2.3830	78.8076
 2.3820	78.8153
 2.3810	78.8064
 2.3800	78.8208
 2.3790	78.6973
 2.3780	78.5623
 2.3770	78.5432
 2.3760	78.4224
 2.3750	78.2454
 2.3740	78.1309
 2.3730	77.9417
 2.3720	77.7606
 2.3710	77.5541
 2.3700	77.3065
 2.3690	77.0502
 2.3680	76.7398
 2.3670	76.4558
 2.3660	76.2224
 2.3650	75.8062
 2.3640	75.3911
 2.3630	75.0911
 2.3620	74.6281
 2.3610	74.1753
 2.3600	73.8183
 2.3590	73.3415
 2.3580	72.8503
 2.3570	72.4250
 2.3560	71.9515
 2.3550	71.5147
 2.3540	71.0266
 2.3530	70.5640
 2.3520	70.1016
 2.3510	69.6116
 2.3500	69.1839
 2.3490	68.7708
 2.3480	68.4232
 2.3470	68.1459
 2.3460	67.8046
 2.3450	67.5114
 2.3440	67.2676
 2.3430	67.0458
 2.3420	66.8324
 2.3410	66.6653
 2.3400	66.5461
 2.3390	66.5187
 2.3380	66.4748
 2.3370	66.4615
 2.3360	66.5112
 2.3350	66.5262
 2.3340	66.6035
 2.3330	66.7204
 2.3320	66.8341
 2.3310	66.9943
 2.3300	67.2191
 2.3290	67.4230
 2.3280	67.5912
 2.3270	67.8044
 2.3260	68.0103
 2.3250	68.1967
 2.3240	68.4191
 2.3230	68.6837
 2.3220	68.8702
 2.3210	69.1564
 2.3200	69.4050
 2.3190	69.6056
 2.3180	69.7906
 2.3170	69.9328
 2.3160	70.1139
 2.3150	70.3255
 2.3140	70.5409
 2.3130	70.7049
 2.3120	70.8383
 2.3110	70.9838
 2.3100	71.1477
 2.3090	71.2363
 2.3080	71.3518
 2.3070	71.4474
 2.3060	71.5243
 2.3050	71.6667
 2.3040	71.7735
 2.3030	71.9407
 2.3020	72.0047
 2.3010	72.1842
 2.3000	72.2860
 2.2990	72.3380
 2.2980	72.3928
 2.2970	72.5318
 2.2960	72.6774
 2.2950	72.8181
 2.2940	72.9847
 2.2930	73.1010
 2.2920	73.2511
 2.2910	73.4557
 2.2900	73.5241
 2.2890	73.6997
 2.2880	73.8620
 2.2870	74.0804
 2.2860	74.2684
 2.2850	74.4899
 2.2840	74.6443
 2.2830	74.8528
 2.2820	75.1028
 2.2810	75.2934
 2.2800	75.4493
 2.2790	75.6989
 2.2780	75.9047
 2.2770	76.1942
 2.2760	76.4173
 2.2750	76.5935
 2.2740	76.8604
 2.2730	77.0840
 2.2720	77.2473
 2.2710	77.4501
 2.2700	77.6962
 2.2690	77.8566
 2.2680	78.0348
 2.2670	78.2360
 2.2660	78.3693
 2.2650	78.5563
 2.2640	78.7348
 2.2630	78.9112
 2.2620	79.0667
 2.2610	79.2381
 2.2600	79.4070
 2.2590	79.5172
 2.2580	79.6753
 2.2570	79.7815
 2.2560	79.9212
 2.2550	80.0753
 2.2540	80.1881
 2.2530	80.3443
 2.2520	80.5103
 2.2510	80.5739
 2.2500	80.6653
 2.2490	80.8749
 2.2480	80.8811
 2.2470	81.0772
 2.2460	81.1777
 2.2450	81.3223
 2.2440	81.3150
 2.2430	81.5245
 2.2420	81.5860
 2.2410	81.6460
 2.2400	81.8255
 2.2390	81.9299
 2.2380	81.9626
 2.2370	82.1850
 2.2360	82.1456
 2.2350	82.2918
 2.2340	82.3828
 2.2330	82.4087
 2.2320	82.5007
 2.2310	82.6482
 2.2300	82.7349
 2.2290	82.8053
 2.2280	82.8364
 2.2270	82.9321
 2.2260	83.0339
 2.2250	83.1001
 2.2240	83.1984
 2.2230	83.1064
 2.2220	83.2609
 2.2210	83.3421
 2.2200	83.3485
 2.2190	83.3630
 2.2180	83.4808
 2.2170	83.6122
 2.2160	83.5960
 2.2150	83.7131
 2.2140	83.7080
 2.2130	83.7346
 2.2120	83.8141
 2.2110	83.8609
 2.2100	83.8948
 2.2090	83.9724
 2.2080	84.1065
 2.2070	84.1234
 2.2060	84.1524
 2.2050	84.2219
 2.2040	84.3205
 2.2030	84.4196
 2.2020	84.4975
 2.2010	84.5553
 2.2000	84.6274
 2.1990	84.6601
 2.1980	84.6308
 2.1970	84.7910
 2.1960	84.8198
 2.1950	84.8448
 2.1940	84.9083
 2.1930	84.8876
 2.1920	84.9998
 2.1910	85.0140
 2.1900	85.1093
 2.1890	85.1078
 2.1880	85.2246
 2.1870	85.1772
 2.1860	85.2226
 2.1850	85.2296
 2.1840	85.2746
 2.1830	85.2205
 2.1820	85.2439
 2.1810	85.2334
 2.1800	85.2511
 2.1790	85.2514
 2.1780	85.2355
 2.1770	85.3029
 2.1760	85.2453
 2.1750	85.2891
 2.1740	85.1882
 2.1730	85.1727
 2.1720	85.1263
 2.1710	85.1203
 2.1700	85.0993
 2.1690	85.1134
 2.1680	85.1095
 2.1670	85.0454
 2.1660	85.0861
 2.1650	84.9829
 2.1640	85.0519
 2.1630	85.1126
 2.1620	85.0415
 2.1610	84.9557
 2.1600	84.9766
 2.1590	84.9960
 2.1580	85.0126
 2.1570	85.0856
 2.1560	85.0649
 2.1550	85.0924
 2.1540	85.1211
 2.1530	85.1169
 2.1520	85.1543
 2.1510	85.2150
 2.1500	85.2452
 2.1490	85.3243
 2.1480	85.3879
 2.1470	85.4436
 2.1460	85.4444
 2.1450	85.5092
 2.1440	85.6245
 2.1430	85.6673
 2.1420	85.7418
 2.1410	85.8184
 2.1400	85.8677
 2.1390	85.9608
 2.1380	86.0470
 2.1370	86.0544
 2.1360	86.0446
 2.1350	86.0132
 2.1340	86.1028
 2.1330	86.1525
 2.1320	86.1322
 2.1310	86.0950
 2.1300	86.0751
 2.1290	86.1255
 2.1280	86.0877
 2.1270	86.0776
 2.1260	86.1460
 2.1250	86.0774
 2.1240	86.0503
 2.1230	86.0425
 2.1220	86.0214
 2.1210	85.9254
 2.1200	85.9126
 2.1190	85.8496
 2.1180	85.7913
 2.1170	85.7594
 2.1160	85.7325
 2.1150	85.7105
 2.1140	85.6778
 2.1130	85.6270
 2.1120	85.5397
 2.1110	85.5677
 2.1100	85.5140
 2.1090	85.4325
 2.1080	85.3878
 2.1070	85.4598
 2.1060	85.4323
 2.1050	85.3943
 2.1040	85.3761
 2.1030	85.3026
 2.1020	85.2039
 2.1010	85.1603
 2.1000	85.1823
 2.0990	85.1953
 2.0980	85.2650
 2.0970	85.3076
 2.0960	85.2979
 2.0950	85.3173
 2.0940	85.3301
 2.0930	85.3342
 2.0920	85.3574
 2.0910	85.3530
 2.0900	85.3643
 2.0890	85.3927
 2.0880	85.3750
 2.0870	85.4397
 2.0860	85.4545
 2.0850	85.4396
 2.0840	85.4685
 2.0830	85.4715
 2.0820	85.4169
 2.0810	85.3348
 2.0800	85.3710
 2.0790	85.5134
 2.0780	85.5154
 2.0770	85.4539
 2.0760	85.4499
 2.0750	85.5138
 2.0740	85.5003
 2.0730	85.4242
 2.0720	85.4492
 2.0710	85.4778
 2.0700	85.4562
 2.0690	85.4881
 2.0680	85.5039
 2.0670	85.4667
 2.0660	85.4187
 2.0650	85.4257
 2.0640	85.4499
 2.0630	85.5031
 2.0620	85.4809
 2.0610	85.4149
 2.0600	85.4242
 2.0590	85.4270
 2.0580	85.4114
 2.0570	85.4162
 2.0560	85.4384
 2.0550	85.4211
 2.0540	85.3976
 2.0530	85.3716
 2.0520	85.3660
 2.0510	85.3688
 2.0500	85.3741
 2.0490	85.3644
 2.0480	85.3398
 2.0470	85.3317
 2.0460	85.3207
 2.0450	85.3130
 2.0440	85.3082
 2.0430	85.2345
 2.0420	85.2275
 2.0410	85.2544
 2.0400	85.2239
 2.0390	85.2245
 2.0380	85.2065
 2.0370	85.1503
 2.0360	85.1570
 2.0350	85.1904
 2.0340	85.0972
 2.0330	85.0319
 2.0320	85.0103
 2.0310	84.9996
 2.0300	84.9677
 2.0290	84.8272
 2.0280	84.7541
 2.0270	84.7445
 2.0260	84.7632
 2.0250	84.7453
 2.0240	84.6739
 2.0230	84.5803
 2.0220	84.4509
 2.0210	84.4267
 2.0200	84.4211
 2.0190	84.4329
 2.0180	84.3327
 2.0170	84.2270
 2.0160	84.1265
 2.0150	84.0810
 2.0140	84.0114
 2.0130	83.9376
 2.0120	83.9535
 2.0110	83.7939
 2.0100	83.7235
 2.0090	83.5971
 2.0080	83.5068
 2.0070	83.4290
 2.0060	83.2912
 2.0050	83.1305
 2.0040	83.0017
 2.0030	82.9133
 2.0020	82.7753
 2.0010	82.6515
 2.0000	82.6034
 1.9990	82.5427
 1.9980	82.4662
 1.9970	82.3568
 1.9960	82.3438
 1.9950	82.2403
 1.9940	82.3074
 1.9930	82.3211
 1.9920	82.3797
 1.9910	82.3556
 1.9900	82.3260
 1.9890	82.4024
 1.9880	82.4955
 1.9870	82.4669
 1.9860	82.4829
 1.9850	82.5268
 1.9840	82.4426
 1.9830	82.3930
 1.9820	82.4215
 1.9810	82.4157
 1.9800	82.4278
 1.9790	82.3741
 1.9780	82.3202
 1.9770	82.3515
 1.9760	82.3279
 1.9750	82.3184
 1.9740	82.2733
 1.9730	82.2205
 1.9720	82.1938
 1.9710	82.1826
 1.9700	82.1860
 1.9690	82.1126
 1.9680	82.1023
 1.9670	82.0435
 1.9660	82.0901
 1.9650	82.1249
 1.9640	82.0748
 1.9630	81.9749
 1.9620	82.0344
 1.9610	81.9432
 1.9600	81.9837
 1.9590	81.9432
 1.9580	81.9406
 1.9570	81.9322
 1.9560	81.8659
 1.9550	81.8316
 1.9540	81.9035
 1.9530	81.8534
 1.9520	81.8922
 1.9510	81.8284
 1.9500	81.7790
 1.9490	81.7877
 1.9480	81.8028
 1.9470	81.8858
 1.9460	81.8115
 1.9450	81.8339
 1.9440	81.7820
 1.9430	81.6921
 1.9420	81.7137
 1.9410	81.6857
 1.9400	81.6958
 1.9390	81.7007
 1.9380	81.6707
 1.9370	81.6614
 1.9360	81.6575
 1.9350	81.5980
 1.9340	81.6743
 1.9330	81.6645
 1.9320	81.6918
 1.9310	81.5502
 1.9300	81.5986
 1.9290	81.5151
 1.9280	81.4639
 1.9270	81.6664
 1.9260	81.5722
 1.9250	81.5201
 1.9240	81.5466
 1.9230	81.5503
 1.9220	81.5755
 1.9210	81.5119
 1.9200	81.4751
 1.9190	81.5251
 1.9180	81.5565
 1.9170	81.5667
 1.9160	81.5778
 1.9150	81.6536
 1.9140	81.6856
 1.9130	81.5884
 1.9120	81.6231
 1.9110	81.7164
 1.9100	81.7961
 1.9090	81.8626
 1.9080	82.0520
 1.9070	82.1487
 1.9060	82.2997
 1.9050	82.4823
 1.9040	82.5758
 1.9030	82.7958
 1.9020	83.0524
 1.9010	83.2363
 1.9000	83.4092
 1.8990	83.7491
 1.8980	83.9447
 1.8970	84.0515
 1.8960	84.3603
 1.8950	84.5228
 1.8940	84.7631
 1.8930	84.9490
 1.8920	85.0648
 1.8910	85.2328
 1.8900	85.4248
 1.8890	85.4893
 1.8880	85.5826
 1.8870	85.6083
 1.8860	85.7206
 1.8850	85.7135
 1.8840	85.7208
 1.8830	85.8275
 1.8820	85.8619
 1.8810	85.8070
 1.8800	85.8394
 1.8790	85.8520
 1.8780	85.9266
 1.8770	85.8551
 1.8760	86.0070
 1.8750	86.1821
 1.8740	86.2895
 1.8730	86.4580
 1.8720	86.6359
 1.8710	86.8247
 1.8700	86.9753
 1.8690	87.2223
 1.8680	87.3532
 1.8670	87.5256
 1.8660	87.7076
 1.8650	87.7990
 1.8640	87.9300
 1.8630	88.0451
 1.8620	88.1881
 1.8610	88.2330
 1.8600	88.2680
 1.8590	88.3830
 1.8580	88.4519
 1.8570	88.5440
 1.8560	88.5887
 1.8550	88.6449
 1.8540	88.6845
 1.8530	88.7185
 1.8520	88.8088
 1.8510	88.8183
 1.8500	88.8575
 1.8490	88.8444
 1.8480	88.8680
 1.8470	88.9730
 1.8460	88.9940
 1.8450	89.0223
 1.8440	89.0190
 1.8430	89.0443
 1.8420	89.0760
 1.8410	89.1209
 1.8400	89.2149
 1.8390	89.3007
 1.8380	89.3202
 1.8370	89.2906
 1.8360	89.3613
 1.8350	89.4052
 1.8340	89.4439
 1.8330	89.4911
 1.8320	89.5475
 1.8310	89.5433
 1.8300	89.5751
 1.8290	89.6287
 1.8280	89.6356
 1.8270	89.6562
 1.8260	89.7570
 1.8250	89.8125
 1.8240	89.8236
 1.8230	89.8171
 1.8220	89.8095
 1.8210	89.8771
 1.8200	89.8863
 1.8190	89.9126
 1.8180	89.9044
 1.8170	89.8715
 1.8160	89.8821
 1.8150	89.9351
 1.8140	89.9241
 1.8130	89.9056
 1.8120	89.9449
 1.8110	89.9993
 1.8100	90.0236
 1.8090	90.0757
 1.8080	90.1110
 1.8070	90.1385
 1.8060	90.1174
 1.8050	90.1480
 1.8040	90.1219
 1.8030	90.1094
 1.8020	90.1069
 1.8010	90.1233
 1.8000	90.1603
 1.7990	90.1295
 1.7980	90.1449
 1.7970	90.1742
 1.7960	90.1540
 1.7950	90.1799
 1.7940	90.1727
 1.7930	90.1532
 1.7920	90.1997
 1.7910	90.1869
 1.7900	90.1795
 1.7890	90.1879
 1.7880	90.1555
 1.7870	90.1600
 1.7860	90.2002
 1.7850	90.2144
 1.7840	90.1703
 1.7830	90.1556
 1.7820	90.1910
 1.7810	90.2168
 1.7800	90.1938
 1.7790	90.2174
 1.7780	90.2243
 1.7770	90.1619
 1.7760	90.1260
 1.7750	90.1533
 1.7740	90.1415
 1.7730	90.1408
 1.7720	90.0974
 1.7710	90.0987
 1.7700	90.0822
 1.7690	90.0578
 1.7680	90.0791
 1.7670	90.0599
 1.7660	90.0349
 1.7650	90.0011
 1.7640	89.9916
 1.7630	89.9790
 1.7620	89.9768
 1.7610	89.9866
 1.7600	89.9429
 1.7590	89.9020
 1.7580	89.8692
 1.7570	89.8677
 1.7560	89.9151
 1.7550	89.9555
 1.7540	89.9365
 1.7530	89.9351
 1.7520	89.9905
 1.7510	90.0307
 1.7500	90.0448
 1.7490	90.0758
 1.7480	90.0328
 1.7470	90.0557
 1.7460	89.9801
 1.7450	90.0416
 1.7440	90.1151
 1.7430	90.1189
 1.7420	90.0914
 1.7410	90.1077
 1.7400	90.1172
 1.7390	90.1101
 1.7380	90.1794
 1.7370	90.1309
 1.7360	90.1615
 1.7350	90.2233
 1.7340	90.2015
 1.7330	90.2042
 1.7320	90.1930
 1.7310	90.2155
 1.7300	90.1786
 1.7290	90.2268
 1.7280	90.2401
 1.7270	90.2557
 1.7260	90.2397
 1.7250	90.2384
 1.7240	90.2985
 1.7230	90.3262
 1.7220	90.3487
 1.7210	90.3185
 1.7200	90.3505
 1.7190	90.3378
 1.7180	90.3780
 1.7170	90.3270
 1.7160	90.3274
 1.7150	90.3947
 1.7140	90.3889
 1.7130	90.4602
 1.7120	90.3890
 1.7110	90.3490
 1.7100	90.3677
 1.7090	90.4498
 1.7080	90.5210
 1.7070	90.4849
 1.7060	90.4481
 1.7050	90.4274
 1.7040	90.4995
 1.7030	90.4817
 1.7020	90.4198
 1.7010	90.4693
 1.7000	90.4989
 1.6990	90.5508
 1.6980	90.4983
 1.6970	90.5098
 1.6960	90.5773
 1.6950	90.5864
 1.6940	90.5334
 1.6930	90.5783
 1.6920	90.5473
 1.6910	90.6002
 1.6900	90.5317
 1.6890	90.5730
 1.6880	90.5531
 1.6870	90.5538
 1.6860	90.5674
 1.6850	90.6032
 1.6840	90.5986
 1.6830	90.5865
 1.6820	90.5808
 1.6810	90.5710
 1.6800	90.5590
 1.6790	90.5992
 1.6780	90.5399
 1.6770	90.6184
 1.6760	90.5481
 1.6750	90.6123
 1.6740	90.6179
 1.6730	90.6543
 1.6720	90.6282
 1.6710	90.6558
 1.6700	90.6058
 1.6690	90.5919
 1.6680	90.6641
 1.6670	90.6021
 1.6660	90.6079
 1.6650	90.5751
 1.6640	90.6114
 1.6630	90.5823
 1.6620	90.6365
 1.6610	90.5965
 1.6600	90.6186
 1.6590	90.7466
 1.6580	90.6944
 1.6570	90.4951
 1.6560	90.6172
 1.6550	90.6334
 1.6540	90.6249
 1.6530	90.6221
 1.6520	90.6056
 1.6510	90.6059
 1.6500	90.6428
 1.6490	90.6303
 1.6480	90.6067
 1.6470	90.6268
 1.6460	90.6383
 1.6450	90.7041
 1.6440	90.6255
 1.6430	90.7132
 1.6420	90.6595
 1.6410	90.6073
 1.6400	90.6658
 1.6390	90.7236
 1.6380	90.6414
 1.6370	90.6019
 1.6360	90.6652
 1.6350	90.5867
 1.6340	90.6385
 1.6330	90.7530
 1.6320	90.6848
 1.6310	90.7215
 1.6300	90.6737
 1.6290	90.6771
 1.6280	90.6661
 1.6270	90.6745
 1.6260	90.7755
 1.6250	90.6838
 1.6240	90.6858
 1.6230	90.7065
 1.6220	90.7172
 1.6210	90.7067
 1.6200	90.6899
 1.6190	90.6903
 1.6180	90.6829
 1.6170	90.7176
 1.6160	90.7102
 1.6150	90.6705
 1.6140	90.7370
 1.6130	90.6505
 1.6120	90.6821
 1.6110	90.6798
 1.6100	90.7131
 1.6090	90.5838
 1.6080	90.7450
 1.6070	90.7829
 1.6060	90.7052
 1.6050	90.6990
 1.6040	90.6751
 1.6030	90.7121
 1.6020	90.6877
 1.6010	90.6390
 1.6000	90.6830
 1.5990	90.7169
 1.5980	90.6807
 1.5970	90.6430
 1.5960	90.6797
 1.5950	90.7160
 1.5940	90.6317
 1.5930	90.5973
 1.5920	90.6007
 1.5910	90.5889
 1.5900	90.6643
 1.5890	90.6337
 1.5880	90.6070
 1.5870	90.6198
 1.5860	90.5710
 1.5850	90.5514
 1.5840	90.4958
 1.5830	90.5159
 1.5820	90.4817
 1.5810	90.5553
 1.5800	90.5655
 1.5790	90.5049
 1.5780	90.5140
 1.5770	90.4260
 1.5760	90.4149
 1.5750	90.4043
 1.5740	90.4085
 1.5730	90.4568
 1.5720	90.4387
 1.5710	90.4008
 1.5700	90.3042
 1.5690	90.3243
 1.5680	90.3487
 1.5670	90.2924
 1.5660	90.2457
 1.5650	90.2983
 1.5640	90.2663
 1.5630	90.2408
 1.5620	90.3281
 1.5610	90.2800
 1.5600	90.2600
 1.5590	90.2930
 1.5580	90.3273
 1.5570	90.3462
 1.5560	90.2872
 1.5550	90.2645
 1.5540	90.2665
 1.5530	90.2019
 1.5520	90.2198
 1.5510	90.2350
 1.5500	90.2436
 1.5490	90.2557
 1.5480	90.2123
 1.5470	90.1492
 1.5460	90.1792
 1.5450	90.1590
 1.5440	90.1529
 1.5430	90.1570
 1.5420	90.1574
 1.5410	90.1393
 1.5400	90.1052
 1.5390	90.1111
 1.5380	90.0835
 1.5370	90.0594
 1.5360	90.0412
 1.5350	89.9994
 1.5340	90.0143
 1.5330	90.0233
 1.5320	90.0150
 1.5310	89.9860
 1.5300	90.0304
 1.5290	90.0378
 1.5280	89.9907
 1.5270	89.9461
 1.5260	89.9811
 1.5250	89.9378
 1.5240	89.9002
 1.5230	89.8981
 1.5220	89.8545
 1.5210	89.8500
 1.5200	89.8243
 1.5190	89.8187
 1.5180	89.8264
 1.5170	89.8044
 1.5160	89.8015
 1.5150	89.7827
 1.5140	89.7562
 1.5130	89.7365
 1.5120	89.7172
 1.5110	89.6982
 1.5100	89.6703
 1.5090	89.6644
 1.5080	89.6532
 1.5070	89.6284
 1.5060	89.5943
 1.5050	89.5899
 1.5040	89.5909
 1.5030	89.5311
 1.5020	89.5078
 1.5010	89.5555
 1.5000	89.5501
 1.4990	89.5016
 1.4980	89.4982
 1.4970	89.4410
 1.4960	89.4051
 1.4950	89.4183
 1.4940	89.3812
 1.4930	89.3602
 1.4920	89.3604
 1.4910	89.3314
 1.4900	89.3161
 1.4890	89.2999
 1.4880	89.2973
 1.4870	89.2304
 1.4860	89.2025
 1.4850	89.1723
 1.4840	89.1504
 1.4830	89.1392
 1.4820	89.1078
 1.4810	89.1515
 1.4800	89.1094
 1.4790	89.1125
 1.4780	89.1266
 1.4770	89.0731
 1.4760	89.0030
 1.4750	88.9701
 1.4740	88.9869
 1.4730	88.9607
 1.4720	88.8931
 1.4710	88.8941
 1.4700	88.9461
 1.4690	88.9187
 1.4680	88.8912
 1.4670	88.8814
 1.4660	88.8182
 1.4650	88.8227
 1.4640	88.7980
 1.4630	88.7931
 1.4620	88.8505
 1.4610	88.8384
 1.4600	88.7952
 1.4590	88.8239
 1.4580	88.8331
 1.4570	88.7931
 1.4560	88.7706
 1.4550	88.7471
 1.4540	88.7707
 1.4530	88.7364
 1.4520	88.7694
 1.4510	88.7389
 1.4500	88.7053
 1.4490	88.6598
 1.4480	88.6635
 1.4470	88.7197
 1.4460	88.7682
 1.4450	88.7129
 1.4440	88.7221
 1.4430	88.6665
 1.4420	88.6270
 1.4410	88.6000
 1.4400	88.5950
 1.4390	88.6441
 1.4380	88.5913
 1.4370	88.5906
 1.4360	88.6006
 1.4350	88.5645
 1.4340	88.6180
 1.4330	88.5412
 1.4320	88.5264
 1.4310	88.4978
 1.4300	88.4074
 1.4290	88.4643
 1.4280	88.4463
 1.4270	88.4156
 1.4260	88.4142
 1.4250	88.4136
 1.4240	88.4318
 1.4230	88.4223
 1.4220	88.3557
 1.4210	88.3187
 1.4200	88.3207
 1.4190	88.2781
 1.4180	88.3803
 1.4170	88.2544
 1.4160	88.2310
 1.4150	88.3564
 1.4140	88.3075
 1.4130	88.2441
 1.4120	88.3687
 1.4110	88.4208
 1.4100	88.4496
 1.4090	88.5243
 1.4080	88.6128
 1.4070	88.5730
 1.4060	88.6783
 1.4050	88.7664
 1.4040	88.7719
 1.4030	88.9092
 1.4020	88.9928
 1.4010	89.0172
 1.4000	89.1470
 1.3990	89.1470
 1.3980	89.1941
 1.3970	89.2840
 1.3960	89.4091
 1.3950	89.5420
 1.3940	89.6290
 1.3930	89.6514
 1.3920	89.7997
 1.3910	89.7958
 1.3900	89.8765
 1.3890	89.8401
 1.3880	89.9803
 1.3870	90.0154
 1.3860	90.1187
 1.3850	89.9932
 1.3840	90.0215
 1.3830	90.0742
 1.3820	90.0693
 1.3810	90.1665
 1.3800	90.2137
 1.3790	90.2621
 1.3780	90.2631
 1.3770	90.2981
 1.3760	90.2916
 1.3750	90.3333
 1.3740	90.4158
 1.3730	90.3624
 1.3720	90.4257
 1.3710	90.4599
 1.3700	90.4035
 1.3690	90.4446
 1.3680	90.3814
 1.3670	90.4567
 1.3660	90.3892
 1.3650	90.4795
 1.3640	90.3974
 1.3630	90.4119
 1.3620	90.3935
 1.3610	90.3327
 1.3600	90.4710
 1.3590	90.4554
 1.3580	90.3472
 1.3570	90.4102
 1.3560	90.3800
 1.3550	90.3968
 1.3540	90.3943
 1.3530	90.3653
 1.3520	90.3559
 1.3510	90.3625
 1.3500	90.3623
 1.3490	90.3565
 1.3480	90.4256
 1.3470	90.3888
 1.3460	90.4091
 1.3450	90.3376
 1.3440	90.4337
 1.3430	90.3365
 1.3420	90.3649
 1.3410	90.3834
 1.3400	90.3268
 1.3390	90.3074
 1.3380	90.3303
 1.3370	90.4401
 1.3360	90.4780
 1.3350	90.3659
 1.3340	90.3451
 1.3330	90.2701
 1.3320	90.2962
 1.3310	90.3407
 1.3300	90.3504
 1.3290	90.3782
 1.3280	90.3082
 1.3270	90.3248
 1.3260	90.4015
 1.3250	90.3649
 1.3240	90.3173
 1.3230	90.3598
 1.3220	90.3015
 1.3210	90.3327
 1.3200	90.3000
 1.3190	90.3201
 1.3180	90.2675
 1.3170	90.3125
 1.3160	90.2759
 1.3150	90.2785
 1.3140	90.2863
 1.3130	90.2518
 1.3120	90.2437
 1.3110	90.2657
 1.3100	90.3190
 1.3090	90.2870
 1.3080	90.2621
 1.3070	90.2954
 1.3060	90.2268
 1.3050	90.1743
 1.3040	90.2297
 1.3030	90.2756
 1.3020	90.2388
 1.3010	90.1804
 1.3000	90.2625
 1.2990	90.2620
 1.2980	90.2077
 1.2970	90.1381
 1.2960	90.1849
 1.2950	90.1644
 1.2940	90.1438
 1.2930	90.2345
 1.2920	90.2668
 1.2910	90.2210
 1.2900	90.2376
 1.2890	90.2080
 1.2880	90.2213
 1.2870	90.1507
 1.2860	90.2144
 1.2850	90.1261
 1.2840	90.1359
 1.2830	90.1303
 1.2820	90.1118
 1.2810	90.1139
 1.2800	90.0706
 1.2790	90.0852
 1.2780	90.0712
 1.2770	90.0842
 1.2760	90.0510
 1.2750	90.0755
 1.2740	90.0870
 1.2730	90.0592
 1.2720	90.0556
 1.2710	90.0165
 1.2700	90.0504
 1.2690	90.0788
 1.2680	89.9295
 1.2670	89.9497
 1.2660	90.0534
 1.2650	89.9809
 1.2640	89.9746
 1.2630	89.9308
 1.2620	89.9577
 1.2610	89.9359
 1.2600	89.9408
 1.2590	89.9139
 1.2580	89.8757
 1.2570	89.9660
 1.2560	89.9298
 1.2550	89.9299
 1.2540	89.8842
 1.2530	89.8403
 1.2520	89.8622
 1.2510	89.8368
 1.2500	89.8561
 1.2490	89.8915
 1.2480	89.8988
 1.2470	89.8492
 1.2460	89.7525
 1.2450	89.7508
 1.2440	89.8319
 1.2430	89.7966
 1.2420	89.7438
 1.2410	89.7612
 1.2400	89.7914
 1.2390	89.7603
 1.2380	89.7074
 1.2370	89.7192
 1.2360	89.7327
 1.2350	89.7301
 1.2340	89.6926
 1.2330	89.6548
 1.2320	89.6647
 1.2310	89.6574
 1.2300	89.6327
 1.2290	89.6657
 1.2280	89.6624
 1.2270	89.5921
 1.2260	89.5880
 1.2250	89.6343
 1.2240	89.5895
 1.2230	89.5842
 1.2220	89.5900
 1.2210	89.5487
 1.2200	89.5015
 1.2190	89.5364
 1.2180	89.5305
 1.2170	89.4937
 1.2160	89.5313
 1.2150	89.5068
 1.2140	89.5318
 1.2130	89.5202
 1.2120	89.5008
 1.2110	89.4562
 1.2100	89.4075
 1.2090	89.4143
 1.2080	89.3963
 1.2070	89.3627
 1.2060	89.3981
 1.2050	89.4000
 1.2040	89.3805
 1.2030	89.3747
 1.2020	89.3627
 1.2010	89.3327
 1.2000	89.2956
 1.1990	89.2990
 1.1980	89.3369
 1.1970	89.3684
 1.1960	89.3700
 1.1950	89.3143
 1.1940	89.2602
 1.1930	89.2529
 1.1920	89.2417
 1.1910	89.2962
 1.1900	89.2730
 1.1890	89.2075
 1.1880	89.2297
 1.1870	89.1896
 1.1860	89.1760
 1.1850	89.1915
 1.1840	89.2215
 1.1830	89.2415
 1.1820	89.1936
 1.1810	89.1487
 1.1800	89.1084
 1.1790	89.1140
 1.1780	89.1425
 1.1770	89.0958
 1.1760	89.1088
 1.1750	89.1173
 1.1740	89.0810
 1.1730	89.0371
 1.1720	89.0844
 1.1710	89.1269
 1.1700	89.0849
 1.1690	89.0553
 1.1680	89.0831
 1.1670	89.1073
 1.1660	89.0267
 1.1650	89.0295
 1.1640	89.0127
 1.1630	89.0204
 1.1620	88.9781
 1.1610	88.9662
 1.1600	88.9984
 1.1590	89.0432
 1.1580	89.0087
 1.1570	88.9168
 1.1560	88.9057
 1.1550	88.9247
 1.1540	88.9064
 1.1530	88.9146
 1.1520	88.9450
 1.1510	88.9485
 1.1500	88.9410
 1.1490	88.9003
 1.1480	88.8752
 1.1470	88.8837
 1.1460	88.9260
 1.1450	88.8618
 1.1440	88.8440
 1.1430	88.8915
 1.1420	88.8804
 1.1410	88.8260
 1.1400	88.8923
 1.1390	88.8395
 1.1380	88.7844
 1.1370	88.8232
 1.1360	88.8018
 1.1350	88.8077
 1.1340	88.7995
 1.1330	88.7252
 1.1320	88.7887
 1.1310	88.7727
 1.1300	88.7107
 1.1290	88.7203
 1.1280	88.7669
 1.1270	88.7747
 1.1260	88.7525
 1.1250	88.7377
 1.1240	88.6958
 1.1230	88.7818
 1.1220	88.7849
 1.1210	88.6856
 1.1200	88.7071
 1.1190	88.6585
 1.1180	88.6493
 1.1170	88.6336
 1.1160	88.7227
 1.1150	88.7207
 1.1140	88.6434
 1.1130	88.6389
 1.1120	88.6590
 1.1110	88.5850
 1.1100	88.6685
 1.1090	88.5495
 1.1080	88.6100
 1.1070	88.5919
 1.1060	88.6075
 1.1050	88.6372
 1.1040	88.5847
 1.1030	88.5650
 1.1020	88.5503
 1.1010	88.5733
 1.1000	88.4621
 1.0990	88.5222
 1.0980	88.4924
 1.0970	88.4592
 1.0960	88.5160
 1.0950	88.5398
 1.0940	88.5124
 1.0930	88.4896
 1.0920	88.4928
 1.0910	88.4153
 1.0900	88.4267
 1.0890	88.3523
 1.0880	88.3904
 1.0870	88.4822
 1.0860	88.4108
 1.0850	88.3539
 1.0840	88.3751
 1.0830	88.3658
 1.0820	88.3549
 1.0810	88.4105
 1.0800	88.2354
 1.0790	88.2780
 1.0780	88.3269
 1.0770	88.3122
 1.0760	88.3342
 1.0750	88.2176
 1.0740	88.1952
 1.0730	88.3608
 1.0720	88.3505
 1.0710	88.2503
 1.0700	88.2722
 1.0690	88.3093
 1.0680	88.1969
 1.0670	88.2388
 1.0660	88.1904
 1.0650	88.2411
 1.0640	88.1325
 1.0630	88.2401
 1.0620	88.1658
 1.0610	88.2244
 1.0600	88.1842
 1.0590	88.1733
 1.0580	88.0970
 1.0570	88.1542
 1.0560	88.1667
 1.0550	88.1127
 1.0540	87.9973
 1.0530	88.1064
 1.0520	88.0568
 1.0510	88.0640
 1.0500	88.0580
 1.0490	88.0357
 1.0480	88.0001
 1.0470	88.0642
 1.0460	88.1350
 1.0450	88.0235
 1.0440	88.0795
 1.0430	87.9682
 1.0420	88.0456
 1.0410	88.0307
 1.0400	88.0059
 1.0390	87.9516
 1.0380	87.9068
 1.0370	87.9187
 1.0360	88.0053
 1.0350	88.0112
 1.0340	87.9168
 1.0330	87.8062
 1.0320	87.8881
 1.0310	87.8623
 1.0300	87.9437
 1.0290	87.8666
 1.0280	87.8352
 1.0270	87.8510
 1.0260	87.8351
 1.0250	87.8342
 1.0240	87.8266
 1.0230	87.7992
 1.0220	87.8410
 1.0210	87.7556
 1.0200	87.8422
 1.0190	87.7651
 1.0180	87.7017
 1.0170	87.7405
 1.0160	87.7197
 1.0150	87.7369
 1.0140	87.7820
 1.0130	87.6748
 1.0120	87.6869
 1.0110	87.7024
 1.0100	87.7170
 1.0090	87.7087
 1.0080	87.6476
 1.0070	87.6501
 1.0060	87.5998
 1.0050	87.5724
 1.0040	87.6390
 1.0030	87.5882
 1.0020	87.5434
 1.0010	87.6165
 1.0000	87.6378
 0.9990	87.5655
 0.9980	87.4663
 0.9970	87.4838
 0.9960	87.5140
 0.9950	87.4718
 0.9940	87.3779
 0.9930	87.4747
 0.9920	87.4889
 0.9910	87.4201
 0.9900	87.3930
 0.9890	87.4454
 0.9880	87.3604
 0.9870	87.3998
 0.9860	87.4197
 0.9850	87.3966
 0.9840	87.3511
 0.9830	87.2976
 0.9820	87.3185
 0.9810	87.3368
 0.9800	87.3644
 0.9790	87.3063
 0.9780	87.2957
 0.9770	87.2319
 0.9760	87.1979
 0.9750	87.1883
 0.9740	87.1698
 0.9730	87.1508
 0.9720	87.1453
 0.9710	87.0983
 0.9700	87.1082
 0.9690	87.1865
 0.9680	87.1736
 0.9670	87.1223
 0.9660	87.0682
 0.9650	87.0370
 0.9640	87.0309
 0.9630	87.0773
 0.9620	87.0391
 0.9610	86.9933
 0.9600	87.0088
 0.9590	86.9601
 0.9580	86.9519
 0.9570	86.9818
 0.9560	86.9430
 0.9550	86.8666
 0.9540	86.8727
 0.9530	86.8998
 0.9520	86.9026
 0.9510	86.9290
 0.9500	86.9036
 0.9490	86.8731
 0.9480	86.8464
 0.9470	86.8481
 0.9460	86.7610
 0.9450	86.7325
 0.9440	86.7265
 0.9430	86.6998
 0.9420	86.7363
 0.9410	86.7393
 0.9400	86.7222
 0.9390	86.7124
 0.9380	86.6489
 0.9370	86.6354
 0.9360	86.6734
 0.9350	86.6794
 0.9340	86.6322
 0.9330	86.6335
 0.9320	86.6061
 0.9310	86.5792
 0.9300	86.5533
 0.9290	86.5333
 0.9280	86.5567
 0.9270	86.5100
 0.9260	86.4886
 0.9250	86.4833
 0.9240	86.4196
 0.9230	86.3707
 0.9220	86.3596
 0.9210	86.3361
 0.9200	86.3725
 0.9190	86.4057
 0.9180	86.3818
 0.9170	86.3281
 0.9160	86.2797
 0.9150	86.2824
 0.9140	86.2535
 0.9130	86.2460
 0.9120	86.2184
 0.9110	86.1739
 0.9100	86.1967
 0.9090	86.1953
 0.9080	86.1268
 0.9070	86.0544
 0.9060	86.0602
 0.9050	86.0346
 0.9040	86.0466
 0.9030	86.0494
 0.9020	85.9885
 0.9010	85.9567
 0.9000	85.9710
 0.8990	85.9818
 0.8980	85.9540
 0.8970	85.9377
 0.8960	85.9206
 0.8950	85.9389
 0.8940	85.9155
 0.8930	85.8123
 0.8920	85.7976
 0.8910	85.8700
 0.8900	85.8368
 0.8890	85.7472
 0.8880	85.7283
 0.8870	85.7124
 0.8860	85.7229
 0.8850	85.7068
 0.8840	85.6675
 0.8830	85.6459
 0.8820	85.6338
 0.8810	85.6530
 0.8800	85.6744
 0.8790	85.5254
 0.8780	85.5057
 0.8770	85.5572
 0.8760	85.5021
 0.8750	85.4741
 0.8740	85.4465
 0.8730	85.4487
 0.8720	85.3754
 0.8710	85.3731
 0.8700	85.3949
 0.8690	85.3312
 0.8680	85.3298
 0.8670	85.3347
 0.8660	85.2630
 0.8650	85.1983
 0.8640	85.1616
 0.8630	85.1291
 0.8620	85.1211
 0.8610	85.1617
 0.8600	84.9194
 0.8590	84.9531
 0.8580	84.8986
 0.8570	84.8945
 0.8560	84.9198
 0.8550	84.8719
 0.8540	84.8672
 0.8530	84.8391
 0.8520	84.7535
 0.8510	84.8006
 0.8500	84.7589
 0.8490	84.6922
 0.8480	84.7117
 0.8470	84.6408
 0.8460	84.6285
 0.8450	84.6932
 0.8440	84.6560
 0.8430	84.5765
 0.8420	84.5693
 0.8410	84.5313
 0.8400	84.5078
 0.8390	84.5385
 0.8380	84.4548
 0.8370	84.4165
 0.8360	84.4075
 0.8350	84.3846
 0.8340	84.3124
 0.8330	84.3361
 0.8320	84.2707
 0.8310	84.2792
 0.8300	84.2607
 0.8290	84.2040
 0.8280	84.1500
 0.8270	84.1903
 0.8260	84.1237
 0.8250	84.1082
 0.8240	84.1182
 0.8230	83.9976
 0.8220	83.9985
 0.8210	83.9709
 0.8200	83.9330
 0.8190	83.9321
 0.8180	83.9378
 0.8170	83.8576
 0.8160	83.8162
 0.8150	83.7659
 0.8140	83.7381
 0.8130	83.7351
 0.8120	83.6892
 0.8110	83.6537
 0.8100	83.6913
 0.8090	83.5503
 0.8080	83.5570
 0.8070	83.5112
 0.8060	83.5256
 0.8050	83.4484
 0.8040	83.4427
 0.8030	83.4431
 0.8020	83.3953
 0.8010	83.3428
 0.8000	83.3263
 0.7990	83.3064
 0.7980	83.2529
 0.7970	83.1602
 0.7960	83.1245
 0.7950	83.0777
 0.7940	83.0521
 0.7930	83.0220
 0.7920	82.9674
 0.7910	82.9584
 0.7900	82.9129
 0.7890	82.8424
 0.7880	82.8518
 0.7870	82.8033
 0.7860	82.7475
 0.7850	82.7411
 0.7840	82.7122
 0.7830	82.6878
 0.7820	82.6357
 0.7810	82.5908
 0.7800	82.5012
 0.7790	82.5434
 0.7780	82.4436
 0.7770	82.3743
 0.7760	82.3623
 0.7750	82.3160
 0.7740	82.2535
 0.7730	82.1987
 0.7720	82.1572
 0.7710	82.2070
 0.7700	82.1116
 0.7690	82.0624
 0.7680	82.0688
 0.7670	81.9906
 0.7660	81.9684
 0.7650	81.9281
 0.7640	81.9021
 0.7630	81.8754
 0.7620	81.8266
 0.7610	81.7864
 0.7600	81.7154
 0.7590	81.7078
 0.7580	81.6663
 0.7570	81.6482
 0.7560	81.6071
 0.7550	81.5727
 0.7540	81.4986
 0.7530	81.4726
 0.7520	81.4379
 0.7510	81.3750
 0.7500	81.3386
 0.7490	81.3349
 0.7480	81.2726
 0.7470	81.2257
 0.7460	81.1818
 0.7450	81.1753
 0.7440	81.1104
 0.7430	81.0636
 0.7420	81.0127
 0.7410	80.9736
 0.7400	80.9412
 0.7390	80.9011
 0.7380	80.8655
 0.7370	80.7868
 0.7360	80.7894
 0.7350	80.7292
 0.7340	80.6940
 0.7330	80.6520
 0.7320	80.6222
 0.7310	80.5570
 0.7300	80.5186
 0.7290	80.4734
 0.7280	80.4488
 0.7270	80.4222
 0.7260	80.3536
 0.7250	80.3180
 0.7240	80.2752
 0.7230	80.2248
 0.7220	80.1927
 0.7210	80.1330
 0.7200	80.0641
 0.7190	80.0172
 0.7180	79.9782
 0.7170	79.9521
 0.7160	79.9128
 0.7150	79.8709
 0.7140	79.8331
 0.7130	79.7790
 0.7120	79.7258
 0.7110	79.6813
 0.7100	79.6227
 0.7090	79.5962
 0.7080	79.5347
 0.7070	79.5206
 0.7060	79.4509
 0.7050	79.3991
 0.7040	79.3526
 0.7030	79.3011
 0.7020	79.2496
 0.7010	79.2051
 0.7000	79.1814
 0.6990	79.1345
 0.6980	79.0744
 0.6970	79.0229
 0.6960	78.9730
 0.6950	78.9225
 0.6940	78.8669
 0.6930	78.8127
 0.6920	78.7571
 0.6910	78.7109
 0.6900	78.6623
 0.6890	78.6190
 0.6880	78.5756
 0.6870	78.5308
 0.6860	78.4951
 0.6850	78.4441
 0.6840	78.3654
 0.6830	78.3073
 0.6820	78.2754
 0.6810	78.2382
 0.6800	78.1768
 0.6790	78.1137
 0.6780	78.0560
 0.6770	78.0075
 0.6760	77.9655
 0.6750	77.9170
 0.6740	77.8644
 0.6730	77.8280
 0.6720	77.7802
 0.6710	77.7210
 0.6700	77.6643
 0.6690	77.5902
 0.6680	77.5400
 0.6670	77.4961
 0.6660	77.4331
 0.6650	77.3798
 0.6640	77.3251
 0.6630	77.2669
 0.6620	77.2258
 0.6610	77.1826
 0.6600	77.1353
 0.6590	77.0782
 0.6580	77.0190
 0.6570	76.9592
 0.6560	76.9033
 0.6550	76.8620
 0.6540	76.8064
 0.6530	76.7419
 0.6520	76.6976
 0.6510	76.6364
 0.6500	76.5673
 0.6490	76.5182
 0.6480	76.4708
 0.6470	76.4167
 0.6460	76.3625
 0.6450	76.3164
 0.6440	76.2560
 0.6430	76.2000
 0.6420	76.1517
 0.6410	76.1028
 0.6400	76.0496
 0.6390	75.9785
 0.6380	75.9273
 0.6370	75.8626
 0.6360	75.8166
 0.6350	75.7752
 0.6340	75.7039
 0.6330	75.6526
 0.6320	75.6021
 0.6310	75.5565
 0.6300	75.5054
 0.6290	75.4349
 0.6280	75.3756
 0.6270	75.3172
 0.6260	75.2612
 0.6250	75.2183
 0.6240	75.1710
 0.6230	75.1071
 0.6220	75.0344
 0.6210	74.9701
 0.6200	74.9165
 0.6190	74.8744
 0.6180	74.8339
 0.6170	74.7669
 0.6160	74.7080
 0.6150	74.6420
 0.6140	74.5717
 0.6130	74.5243
 0.6120	74.4753
 0.6110	74.4161
 0.6100	74.3647
 0.6090	74.3103
 0.6080	74.2436
 0.6070	74.1813
 0.6060	74.1231
 0.6050	74.0713
 0.6040	74.0187
 0.6030	73.9573
 0.6020	73.8940
 0.6010	73.8319
 0.6000	73.7804
 0.5990	73.7294
 0.5980	73.6838
 0.5970	73.6472
 0.5960	73.5948
 0.5950	73.5422
 0.5940	73.4984
 0.5930	73.4416
 0.5920	73.3662
 0.5910	73.2953
 0.5900	73.2414
 0.5890	73.1773
 0.5880	73.1134
 0.5870	73.0459
 0.5860	72.9813
 0.5850	72.9167
 0.5840	72.8653
 0.5830	72.7949
 0.5820	72.7249
 0.5810	72.6631
 0.5800	72.5918
 0.5790	72.5265
 0.5780	72.4594
 0.5770	72.3995
 0.5760	72.3289
 0.5750	72.2597
 0.5740	72.2017
 0.5730	72.1243
 0.5720	72.0651
 0.5710	71.9840
 0.5700	71.9164
 0.5690	71.8515
 0.5680	71.7878
 0.5670	71.7224
 0.5660	71.6350
 0.5650	71.5765
 0.5640	71.5031
 0.5630	71.4330
 0.5620	71.3623
 0.5610	71.2772
 0.5600	71.1882
 0.5590	71.1235
 0.5580	71.0368
 0.5570	70.9511
 0.5560	70.8832
 0.5550	70.8114
 0.5540	70.7370
 0.5530	70.6403
 0.5520	70.5719
 0.5510	70.4954
 0.5500	70.4024
 0.5490	70.3232
 0.5480	70.2379
 0.5470	70.1586
 0.5460	70.0931
 0.5450	70.0034
 0.5440	69.9238
 0.5430	69.8440
 0.5420	69.7687
 0.5410	69.6928
 0.5400	69.6054
 0.5390	69.5192
 0.5380	69.4192
 0.5370	69.3302
 0.5360	69.2561
 0.5350	69.1640
 0.5340	69.0943
 0.5330	68.9969
 0.5320	68.9047
 0.5310	68.8225
 0.5300	68.7276
 0.5290	68.6194
 0.5280	68.5498
 0.5270	68.4438
 0.5260	68.3589
 0.5250	68.2732
 0.5240	68.1788
 0.5230	68.0870
 0.5220	67.9964
 0.5210	67.9034
 0.5200	67.8103
 0.5190	67.7171
 0.5180	67.6353
 0.5170	67.5416
 0.5160	67.4547
 0.5150	67.3315
 0.5140	67.2626
 0.5130	67.1694
 0.5120	67.0796
 0.5110	67.0029
 0.5100	66.9039
 0.5090	66.7982
 0.5080	66.7300
 0.5070	66.6095
 0.5060	66.5185
 0.5050	66.4350
 0.5040	66.3253
 0.5030	66.2449
 0.5020	66.1622
 0.5010	66.0614
 0.5000	65.9865
 0.4990	65.8759
 0.4980	65.7989
 0.4970	65.6851
 0.4960	65.5964
 0.4950	65.5202
 0.4940	65.4301
 0.4930	65.3363
 0.4920	65.2540
 0.4910	65.1642
 0.4900	65.0696
 0.4890	64.9637
 0.4880	64.8745
 0.4870	64.8041
 0.4860	64.6789
 0.4850	64.5997
 0.4840	64.5078
 0.4830	64.4121
 0.4820	64.3287
 0.4810	64.2501
 0.4800	64.1406
 0.4790	64.0681
 0.4780	63.9655
 0.4770	63.8658
 0.4760	63.7906
 0.4750	63.6859
 0.4740	63.6076
 0.4730	63.5222
 0.4720	63.4240
 0.4710	63.3295
 0.4700	63.2241
 0.4690	63.1450
 0.4680	63.0455
 0.4670	62.9594
 0.4660	62.8676
 0.4650	62.7595
 0.4640	62.6718
 0.4630	62.5850
 0.4620	62.4697
 0.4610	62.3783
 0.4600	62.2745
 0.4590	62.1698
 0.4580	62.0648
 0.4570	61.9505
 0.4560	61.8598
 0.4550	61.7499
 0.4540	61.6371
 0.4530	61.5402
 0.4520	61.4204
 0.4510	61.3112
 0.4500	61.2099
 0.4490	61.0754
 0.4480	60.9730
 0.4470	60.8224
 0.4460	60.7060
 0.4450	60.6052
 0.4440	60.4973
 0.4430	60.3960
 0.4420	60.2666
 0.4410	60.1567
 0.4400	60.0318
 0.4390	59.9263
 0.4380	59.7952
 0.4370	59.6856
 0.4360	59.5602
 0.4350	59.4409
 0.4340	59.3305
 0.4330	59.1859
 0.4320	59.0696
 0.4310	58.9472
 0.4300	58.8043
 0.4290	58.7062
 0.4280	58.5551
 0.4270	58.4453
 0.4260	58.3070
 0.4250	58.1835
 0.4240	58.0573
 0.4230	57.9119
 0.4220	57.7817
 0.4210	57.6539
 0.4200	57.5108
 0.4190	57.3754
 0.4180	57.2330
 0.4170	57.0743
 0.4160	56.9356
 0.4150	56.7937
 0.4140	56.6660
 0.4130	56.5084
 0.4120	56.3676
 0.4110	56.2291
 0.4100	56.0780
 0.4090	55.9354
 0.4080	55.7957
 0.4070	55.6365
 0.4060	55.4714
 0.4050	55.3228
 0.4040	55.1635
 0.4030	55.0066
 0.4020	54.8618
 0.4010	54.6960
 0.4000	54.5408
