Name: Chalcopyrite CuFeS_2
Type: Mineral
Class: Sulfide
Subclass: None
Particle Size: Coarse
Sample No.: S-4A
Owner: JPL
Wavelength Range: VSWIR
Origin: Canada, Quebec, Rouyn District.
Collection Date: N/A
Description: Particle size was 125-500um. Collected by:  JPL Original ASTER Spectral Library name was jpl.perkin.mineral.sulfide.none.coarse.s04a.spectrum.txt
Measurement: Hemispherical reflectance
First Column: X
Second Column: Y
X Units: Wavelength (micrometers)
Y Units:Reflectance (percent)
First X Value:  2.5000
Last X Value:  0.4000
Number of X Values: 2101
Additional Information: mineral.sulfide.none.coarse.vswir.s-4a.jpl.perkin.ancillary.txt

 2.5000	86.3886
 2.4990	86.5539
 2.4980	86.5932
 2.4970	86.6555
 2.4960	86.6627
 2.4950	86.6092
 2.4940	86.6562
 2.4930	86.5566
 2.4920	86.8046
 2.4910	86.7306
 2.4900	86.8232
 2.4890	86.6788
 2.4880	86.7026
 2.4870	86.7736
 2.4860	86.8947
 2.4850	86.9844
 2.4840	87.0259
 2.4830	86.8128
 2.4820	86.8935
 2.4810	87.0158
 2.4800	87.1124
 2.4790	87.0063
 2.4780	87.0840
 2.4770	87.0501
 2.4760	87.1001
 2.4750	87.2446
 2.4740	87.3211
 2.4730	87.2004
 2.4720	87.3646
 2.4710	87.2785
 2.4700	87.3916
 2.4690	87.3747
 2.4680	87.4541
 2.4670	87.4703
 2.4660	87.4426
 2.4650	87.5925
 2.4640	87.6339
 2.4630	87.5081
 2.4620	87.6141
 2.4610	87.6336
 2.4600	87.7285
 2.4590	87.7215
 2.4580	87.7255
 2.4570	87.7523
 2.4560	87.8435
 2.4550	87.7802
 2.4540	87.8380
 2.4530	87.9167
 2.4520	87.9791
 2.4510	87.9558
 2.4500	88.0111
 2.4490	88.0603
 2.4480	88.1232
 2.4470	88.0630
 2.4460	88.1172
 2.4450	88.1642
 2.4440	88.2444
 2.4430	88.2044
 2.4420	88.2275
 2.4410	88.2887
 2.4400	88.2678
 2.4390	88.3994
 2.4380	88.4873
 2.4370	88.4010
 2.4360	88.4038
 2.4350	88.3978
 2.4340	88.5860
 2.4330	88.5668
 2.4320	88.6257
 2.4310	88.5965
 2.4300	88.5985
 2.4290	88.6423
 2.4280	88.6272
 2.4270	88.7389
 2.4260	88.8299
 2.4250	88.7905
 2.4240	88.8576
 2.4230	88.8476
 2.4220	88.7753
 2.4210	88.8980
 2.4200	88.9532
 2.4190	88.9057
 2.4180	88.9124
 2.4170	88.9347
 2.4160	89.0021
 2.4150	89.0504
 2.4140	89.0960
 2.4130	89.1405
 2.4120	89.1450
 2.4110	89.1457
 2.4100	89.2629
 2.4090	89.2140
 2.4080	89.1692
 2.4070	89.1968
 2.4060	89.3273
 2.4050	89.2666
 2.4040	89.3048
 2.4030	89.3321
 2.4020	89.3244
 2.4010	89.3995
 2.4000	89.3923
 2.3990	89.4188
 2.3980	89.4954
 2.3970	89.4732
 2.3960	89.5200
 2.3950	89.4255
 2.3940	89.5410
 2.3930	89.5808
 2.3920	89.5686
 2.3910	89.6152
 2.3900	89.6361
 2.3890	89.6330
 2.3880	89.7054
 2.3870	89.7041
 2.3860	89.7171
 2.3850	89.7040
 2.3840	89.7659
 2.3830	89.8308
 2.3820	89.8122
 2.3810	89.8070
 2.3800	89.8445
 2.3790	89.8706
 2.3780	89.9319
 2.3770	89.9420
 2.3760	89.9348
 2.3750	89.9469
 2.3740	89.9575
 2.3730	89.9390
 2.3720	89.9751
 2.3710	89.9892
 2.3700	90.0273
 2.3690	90.0464
 2.3680	90.0210
 2.3670	90.0263
 2.3660	90.0783
 2.3650	90.1264
 2.3640	90.1255
 2.3630	90.0717
 2.3620	90.0841
 2.3610	90.1007
 2.3600	90.1485
 2.3590	90.1761
 2.3580	90.1707
 2.3570	90.1783
 2.3560	90.2026
 2.3550	90.2462
 2.3540	90.2489
 2.3530	90.2002
 2.3520	90.1981
 2.3510	90.2011
 2.3500	90.1917
 2.3490	90.2023
 2.3480	90.2557
 2.3470	90.3068
 2.3460	90.2957
 2.3450	90.2828
 2.3440	90.2792
 2.3430	90.2864
 2.3420	90.3225
 2.3410	90.3404
 2.3400	90.3153
 2.3390	90.2977
 2.3380	90.3190
 2.3370	90.3514
 2.3360	90.3483
 2.3350	90.3409
 2.3340	90.3372
 2.3330	90.3354
 2.3320	90.3226
 2.3310	90.3752
 2.3300	90.3767
 2.3290	90.3427
 2.3280	90.3376
 2.3270	90.3488
 2.3260	90.3246
 2.3250	90.3286
 2.3240	90.3150
 2.3230	90.3171
 2.3220	90.3100
 2.3210	90.2742
 2.3200	90.3357
 2.3190	90.2879
 2.3180	90.2601
 2.3170	90.2167
 2.3160	90.2215
 2.3150	90.2262
 2.3140	90.2396
 2.3130	90.2440
 2.3120	90.1650
 2.3110	90.2001
 2.3100	90.1695
 2.3090	90.1738
 2.3080	90.1690
 2.3070	90.2449
 2.3060	90.2362
 2.3050	90.2070
 2.3040	90.1997
 2.3030	90.1441
 2.3020	90.1255
 2.3010	90.1921
 2.3000	90.1651
 2.2990	90.1572
 2.2980	90.1271
 2.2970	90.1658
 2.2960	90.1408
 2.2950	90.1633
 2.2940	90.2181
 2.2930	90.1884
 2.2920	90.1196
 2.2910	90.1910
 2.2900	90.1909
 2.2890	90.1886
 2.2880	90.1178
 2.2870	90.1541
 2.2860	90.1740
 2.2850	90.1412
 2.2840	90.1366
 2.2830	90.1696
 2.2820	90.1428
 2.2810	90.1677
 2.2800	90.1814
 2.2790	90.2157
 2.2780	90.1504
 2.2770	90.1410
 2.2760	90.1255
 2.2750	90.1416
 2.2740	90.0957
 2.2730	90.0930
 2.2720	90.1050
 2.2710	90.1169
 2.2700	90.0733
 2.2690	90.1370
 2.2680	90.1844
 2.2670	90.1591
 2.2660	90.1163
 2.2650	90.0419
 2.2640	90.1444
 2.2630	90.1096
 2.2620	90.1325
 2.2610	90.1356
 2.2600	90.1225
 2.2590	90.1036
 2.2580	90.1451
 2.2570	90.1124
 2.2560	90.1449
 2.2550	90.1406
 2.2540	90.1199
 2.2530	90.1258
 2.2520	90.1411
 2.2510	90.1430
 2.2500	90.1729
 2.2490	90.2055
 2.2480	90.1563
 2.2470	90.2287
 2.2460	90.1797
 2.2450	90.1900
 2.2440	90.1546
 2.2430	90.1720
 2.2420	90.1455
 2.2410	90.1415
 2.2400	90.1743
 2.2390	90.1722
 2.2380	90.1343
 2.2370	90.2334
 2.2360	90.1385
 2.2350	90.2045
 2.2340	90.2236
 2.2330	90.2380
 2.2320	90.2397
 2.2310	90.1570
 2.2300	90.2059
 2.2290	90.2087
 2.2280	90.2057
 2.2270	90.1343
 2.2260	90.2150
 2.2250	90.1292
 2.2240	90.1736
 2.2230	90.2314
 2.2220	90.2057
 2.2210	90.1880
 2.2200	90.1807
 2.2190	90.2323
 2.2180	90.2121
 2.2170	90.2351
 2.2160	90.2786
 2.2150	90.1820
 2.2140	90.2705
 2.2130	90.1647
 2.2120	90.2494
 2.2110	90.1702
 2.2100	90.2248
 2.2090	90.1968
 2.2080	90.1534
 2.2070	90.2385
 2.2060	90.1584
 2.2050	90.2693
 2.2040	90.2494
 2.2030	90.2010
 2.2020	90.2856
 2.2010	90.2803
 2.2000	90.2077
 2.1990	90.3263
 2.1980	90.2601
 2.1970	90.3218
 2.1960	90.2875
 2.1950	90.4181
 2.1940	90.3957
 2.1930	90.3905
 2.1920	90.4260
 2.1910	90.4503
 2.1900	90.4959
 2.1890	90.4943
 2.1880	90.4552
 2.1870	90.5583
 2.1860	90.5476
 2.1850	90.6409
 2.1840	90.6269
 2.1830	90.6986
 2.1820	90.7068
 2.1810	90.6910
 2.1800	90.7678
 2.1790	90.8001
 2.1780	90.8382
 2.1770	90.8467
 2.1760	90.8874
 2.1750	90.8577
 2.1740	90.8790
 2.1730	90.9141
 2.1720	90.9335
 2.1710	90.9948
 2.1700	91.0618
 2.1690	91.0812
 2.1680	91.0964
 2.1670	91.1596
 2.1660	91.1162
 2.1650	91.1498
 2.1640	91.2232
 2.1630	91.1636
 2.1620	91.2342
 2.1610	91.2697
 2.1600	91.2942
 2.1590	91.3660
 2.1580	91.4161
 2.1570	91.3844
 2.1560	91.4006
 2.1550	91.4229
 2.1540	91.4238
 2.1530	91.4207
 2.1520	91.5139
 2.1510	91.5297
 2.1500	91.5217
 2.1490	91.5188
 2.1480	91.5669
 2.1470	91.6315
 2.1460	91.6164
 2.1450	91.5227
 2.1440	91.5300
 2.1430	91.5498
 2.1420	91.5249
 2.1410	91.5749
 2.1400	91.5087
 2.1390	91.5979
 2.1380	91.5881
 2.1370	91.5735
 2.1360	91.5372
 2.1350	91.5763
 2.1340	91.5194
 2.1330	91.5493
 2.1320	91.5325
 2.1310	91.5293
 2.1300	91.5132
 2.1290	91.5101
 2.1280	91.4838
 2.1270	91.4920
 2.1260	91.4916
 2.1250	91.4180
 2.1240	91.3646
 2.1230	91.3752
 2.1220	91.3456
 2.1210	91.3270
 2.1200	91.3428
 2.1190	91.2959
 2.1180	91.2626
 2.1170	91.2450
 2.1160	91.2277
 2.1150	91.2128
 2.1140	91.1860
 2.1130	91.1393
 2.1120	91.0943
 2.1110	91.1054
 2.1100	91.0790
 2.1090	91.0483
 2.1080	91.0156
 2.1070	91.0001
 2.1060	90.9992
 2.1050	90.9357
 2.1040	90.8874
 2.1030	90.9143
 2.1020	90.9433
 2.1010	90.8832
 2.1000	90.8089
 2.0990	90.7332
 2.0980	90.6870
 2.0970	90.7258
 2.0960	90.7393
 2.0950	90.6938
 2.0940	90.6786
 2.0930	90.6657
 2.0920	90.6831
 2.0910	90.6320
 2.0900	90.5748
 2.0890	90.5350
 2.0880	90.4823
 2.0870	90.4616
 2.0860	90.4663
 2.0850	90.4690
 2.0840	90.4427
 2.0830	90.3811
 2.0820	90.3749
 2.0810	90.3592
 2.0800	90.3121
 2.0790	90.2807
 2.0780	90.2408
 2.0770	90.2308
 2.0760	90.1993
 2.0750	90.1886
 2.0740	90.1916
 2.0730	90.1685
 2.0720	90.1202
 2.0710	90.1064
 2.0700	90.0932
 2.0690	90.0437
 2.0680	90.0146
 2.0670	89.9843
 2.0660	89.8965
 2.0650	89.8789
 2.0640	89.9165
 2.0630	89.8760
 2.0620	89.8576
 2.0610	89.8029
 2.0600	89.7931
 2.0590	89.7881
 2.0580	89.7504
 2.0570	89.7242
 2.0560	89.6831
 2.0550	89.6361
 2.0540	89.6137
 2.0530	89.6129
 2.0520	89.5584
 2.0510	89.4906
 2.0500	89.4799
 2.0490	89.4362
 2.0480	89.4062
 2.0470	89.4100
 2.0460	89.3705
 2.0450	89.3010
 2.0440	89.3024
 2.0430	89.2497
 2.0420	89.2295
 2.0410	89.2230
 2.0400	89.1582
 2.0390	89.0888
 2.0380	89.0874
 2.0370	89.0882
 2.0360	89.0284
 2.0350	88.9806
 2.0340	88.9152
 2.0330	88.8917
 2.0320	88.8680
 2.0310	88.7532
 2.0300	88.7664
 2.0290	88.6631
 2.0280	88.6320
 2.0270	88.6142
 2.0260	88.6067
 2.0250	88.5633
 2.0240	88.5260
 2.0230	88.4690
 2.0220	88.3860
 2.0210	88.3518
 2.0200	88.2897
 2.0190	88.2389
 2.0180	88.2293
 2.0170	88.2203
 2.0160	88.1272
 2.0150	88.0260
 2.0140	88.0487
 2.0130	88.0106
 2.0120	87.9585
 2.0110	87.9010
 2.0100	87.8512
 2.0090	87.7912
 2.0080	87.7276
 2.0070	87.6982
 2.0060	87.6461
 2.0050	87.5079
 2.0040	87.5576
 2.0030	87.4979
 2.0020	87.4809
 2.0010	87.3954
 2.0000	87.3437
 1.9990	87.2660
 1.9980	87.2744
 1.9970	87.1843
 1.9960	87.1144
 1.9950	87.0570
 1.9940	87.0395
 1.9930	87.0099
 1.9920	87.0055
 1.9910	86.9296
 1.9900	86.8584
 1.9890	86.8178
 1.9880	86.7976
 1.9870	86.6964
 1.9860	86.6148
 1.9850	86.5695
 1.9840	86.4887
 1.9830	86.4656
 1.9820	86.3907
 1.9810	86.3650
 1.9800	86.3044
 1.9790	86.1676
 1.9780	86.1853
 1.9770	86.1376
 1.9760	86.0836
 1.9750	85.9770
 1.9740	86.0108
 1.9730	85.9409
 1.9720	85.8858
 1.9710	85.8446
 1.9700	85.8116
 1.9690	85.7577
 1.9680	85.7197
 1.9670	85.6383
 1.9660	85.6530
 1.9650	85.5863
 1.9640	85.5413
 1.9630	85.4727
 1.9620	85.4781
 1.9610	85.3830
 1.9600	85.3263
 1.9590	85.2287
 1.9580	85.2525
 1.9570	85.1665
 1.9560	85.1563
 1.9550	85.1566
 1.9540	85.0407
 1.9530	84.9870
 1.9520	84.9841
 1.9510	84.9540
 1.9500	84.9544
 1.9490	84.8204
 1.9480	84.9153
 1.9470	84.7536
 1.9460	84.7727
 1.9450	84.7557
 1.9440	84.6842
 1.9430	84.6653
 1.9420	84.6246
 1.9410	84.6347
 1.9400	84.6533
 1.9390	84.6178
 1.9380	84.6268
 1.9370	84.6101
 1.9360	84.5743
 1.9350	84.5511
 1.9340	84.5442
 1.9330	84.5470
 1.9320	84.5035
 1.9310	84.5124
 1.9300	84.5809
 1.9290	84.5462
 1.9280	84.5033
 1.9270	84.6044
 1.9260	84.5220
 1.9250	84.6139
 1.9240	84.6469
 1.9230	84.6488
 1.9220	84.7329
 1.9210	84.6819
 1.9200	84.7877
 1.9190	84.8549
 1.9180	84.9335
 1.9170	84.9188
 1.9160	84.9920
 1.9150	85.0131
 1.9140	85.1019
 1.9130	85.1483
 1.9120	85.2265
 1.9110	85.2520
 1.9100	85.3623
 1.9090	85.4523
 1.9080	85.5404
 1.9070	85.6114
 1.9060	85.7672
 1.9050	85.8066
 1.9040	85.9608
 1.9030	86.0616
 1.9020	86.1917
 1.9010	86.3690
 1.9000	86.5420
 1.8990	86.6264
 1.8980	86.8389
 1.8970	86.9699
 1.8960	87.1439
 1.8950	87.2308
 1.8940	87.4465
 1.8930	87.6554
 1.8920	87.8131
 1.8910	87.9443
 1.8900	88.0771
 1.8890	88.2735
 1.8880	88.4171
 1.8870	88.5966
 1.8860	88.7625
 1.8850	88.8614
 1.8840	89.0357
 1.8830	89.1573
 1.8820	89.2623
 1.8810	89.3920
 1.8800	89.5012
 1.8790	89.5957
 1.8780	89.6814
 1.8770	89.7746
 1.8760	89.8345
 1.8750	89.9364
 1.8740	90.0046
 1.8730	90.0795
 1.8720	90.1459
 1.8710	90.2822
 1.8700	90.3597
 1.8690	90.4534
 1.8680	90.4829
 1.8670	90.5059
 1.8660	90.5415
 1.8650	90.6003
 1.8640	90.5904
 1.8630	90.5925
 1.8620	90.6604
 1.8610	90.6912
 1.8600	90.6534
 1.8590	90.6830
 1.8580	90.7538
 1.8570	90.6933
 1.8560	90.7802
 1.8550	90.7864
 1.8540	90.7897
 1.8530	90.7999
 1.8520	90.8175
 1.8510	90.7955
 1.8500	90.8492
 1.8490	90.8653
 1.8480	90.8442
 1.8470	90.8660
 1.8460	90.8769
 1.8450	90.8354
 1.8440	90.8407
 1.8430	90.8131
 1.8420	90.8678
 1.8410	90.8606
 1.8400	90.8388
 1.8390	90.8861
 1.8380	90.8349
 1.8370	90.8952
 1.8360	90.8891
 1.8350	90.8664
 1.8340	90.8759
 1.8330	90.8672
 1.8320	90.8952
 1.8310	90.8581
 1.8300	90.8288
 1.8290	90.8451
 1.8280	90.8979
 1.8270	90.8814
 1.8260	90.8223
 1.8250	90.8529
 1.8240	90.8235
 1.8230	90.7899
 1.8220	90.8210
 1.8210	90.8214
 1.8200	90.8261
 1.8190	90.7854
 1.8180	90.7959
 1.8170	90.7976
 1.8160	90.8413
 1.8150	90.7913
 1.8140	90.7674
 1.8130	90.7702
 1.8120	90.8010
 1.8110	90.7937
 1.8100	90.8093
 1.8090	90.8058
 1.8080	90.7850
 1.8070	90.7409
 1.8060	90.7736
 1.8050	90.8282
 1.8040	90.7935
 1.8030	90.7510
 1.8020	90.7294
 1.8010	90.7439
 1.8000	90.7821
 1.7990	90.7169
 1.7980	90.7114
 1.7970	90.7450
 1.7960	90.7132
 1.7950	90.6912
 1.7940	90.7072
 1.7930	90.7053
 1.7920	90.6927
 1.7910	90.7040
 1.7900	90.7230
 1.7890	90.7072
 1.7880	90.6922
 1.7870	90.7155
 1.7860	90.6814
 1.7850	90.6636
 1.7840	90.6762
 1.7830	90.7051
 1.7820	90.7000
 1.7810	90.6588
 1.7800	90.6567
 1.7790	90.6430
 1.7780	90.6387
 1.7770	90.6334
 1.7760	90.6631
 1.7750	90.6797
 1.7740	90.6540
 1.7730	90.6853
 1.7720	90.6840
 1.7710	90.6617
 1.7700	90.6745
 1.7690	90.6656
 1.7680	90.6810
 1.7670	90.6848
 1.7660	90.7136
 1.7650	90.6854
 1.7640	90.6857
 1.7630	90.6748
 1.7620	90.7029
 1.7610	90.7004
 1.7600	90.7055
 1.7590	90.7288
 1.7580	90.7007
 1.7570	90.6574
 1.7560	90.6751
 1.7550	90.6812
 1.7540	90.7050
 1.7530	90.7344
 1.7520	90.7639
 1.7510	90.7380
 1.7500	90.7023
 1.7490	90.7140
 1.7480	90.7142
 1.7470	90.7207
 1.7460	90.7486
 1.7450	90.7792
 1.7440	90.7937
 1.7430	90.7851
 1.7420	90.7637
 1.7410	90.7424
 1.7400	90.7505
 1.7390	90.7465
 1.7380	90.7079
 1.7370	90.7477
 1.7360	90.7535
 1.7350	90.7084
 1.7340	90.7329
 1.7330	90.7799
 1.7320	90.7541
 1.7310	90.7718
 1.7300	90.7101
 1.7290	90.8013
 1.7280	90.7775
 1.7270	90.7804
 1.7260	90.7919
 1.7250	90.7619
 1.7240	90.7613
 1.7230	90.8008
 1.7220	90.7643
 1.7210	90.7633
 1.7200	90.7790
 1.7190	90.8121
 1.7180	90.8470
 1.7170	90.8324
 1.7160	90.7918
 1.7150	90.7821
 1.7140	90.7982
 1.7130	90.7778
 1.7120	90.7455
 1.7110	90.7958
 1.7100	90.8082
 1.7090	90.7475
 1.7080	90.7625
 1.7070	90.7953
 1.7060	90.7570
 1.7050	90.7393
 1.7040	90.7214
 1.7030	90.6760
 1.7020	90.7128
 1.7010	90.6922
 1.7000	90.6893
 1.6990	90.6879
 1.6980	90.7003
 1.6970	90.7186
 1.6960	90.7302
 1.6950	90.6860
 1.6940	90.6897
 1.6930	90.7045
 1.6920	90.7403
 1.6910	90.6857
 1.6900	90.6916
 1.6890	90.6592
 1.6880	90.6397
 1.6870	90.6265
 1.6860	90.6275
 1.6850	90.7076
 1.6840	90.6492
 1.6830	90.6102
 1.6820	90.6452
 1.6810	90.6674
 1.6800	90.6687
 1.6790	90.7053
 1.6780	90.6458
 1.6770	90.6396
 1.6760	90.6710
 1.6750	90.6532
 1.6740	90.5719
 1.6730	90.6234
 1.6720	90.5793
 1.6710	90.5939
 1.6700	90.5664
 1.6690	90.5866
 1.6680	90.5384
 1.6670	90.5786
 1.6660	90.5439
 1.6650	90.5417
 1.6640	90.5519
 1.6630	90.5458
 1.6620	90.4867
 1.6610	90.5200
 1.6600	90.6232
 1.6590	90.5525
 1.6580	90.4712
 1.6570	90.5217
 1.6560	90.5186
 1.6550	90.5200
 1.6540	90.4867
 1.6530	90.5203
 1.6520	90.4975
 1.6510	90.5607
 1.6500	90.3977
 1.6490	90.5074
 1.6480	90.4826
 1.6470	90.4851
 1.6460	90.4859
 1.6450	90.4591
 1.6440	90.3973
 1.6430	90.4747
 1.6420	90.4461
 1.6410	90.4189
 1.6400	90.4150
 1.6390	90.4833
 1.6380	90.4010
 1.6370	90.4131
 1.6360	90.3537
 1.6350	90.4657
 1.6340	90.3334
 1.6330	90.3457
 1.6320	90.3126
 1.6310	90.3205
 1.6300	90.3508
 1.6290	90.3363
 1.6280	90.3100
 1.6270	90.3424
 1.6260	90.2963
 1.6250	90.3287
 1.6240	90.2873
 1.6230	90.2444
 1.6220	90.2790
 1.6210	90.2793
 1.6200	90.2905
 1.6190	90.2152
 1.6180	90.2894
 1.6170	90.2453
 1.6160	90.2237
 1.6150	90.2238
 1.6140	90.2162
 1.6130	90.2431
 1.6120	90.2684
 1.6110	90.2101
 1.6100	90.1766
 1.6090	90.1699
 1.6080	90.1620
 1.6070	90.1792
 1.6060	90.1778
 1.6050	90.1483
 1.6040	90.1445
 1.6030	90.1364
 1.6020	90.0832
 1.6010	90.1132
 1.6000	90.0862
 1.5990	90.1125
 1.5980	90.0899
 1.5970	90.1436
 1.5960	90.0871
 1.5950	90.1019
 1.5940	90.0821
 1.5930	90.0390
 1.5920	90.0765
 1.5910	90.0605
 1.5900	90.0328
 1.5890	89.9823
 1.5880	90.0071
 1.5870	89.9653
 1.5860	89.9095
 1.5850	89.9729
 1.5840	89.9805
 1.5830	89.9495
 1.5820	89.9755
 1.5810	89.9474
 1.5800	89.8674
 1.5790	89.8891
 1.5780	89.9477
 1.5770	89.9327
 1.5760	89.9191
 1.5750	89.8855
 1.5740	89.8619
 1.5730	89.8845
 1.5720	89.8902
 1.5710	89.8264
 1.5700	89.8210
 1.5690	89.8535
 1.5680	89.8002
 1.5670	89.7516
 1.5660	89.7528
 1.5650	89.7772
 1.5640	89.7874
 1.5630	89.6921
 1.5620	89.6999
 1.5610	89.7118
 1.5600	89.6833
 1.5590	89.6940
 1.5580	89.6708
 1.5570	89.6379
 1.5560	89.6370
 1.5550	89.6269
 1.5540	89.6103
 1.5530	89.5899
 1.5520	89.6016
 1.5510	89.6056
 1.5500	89.5782
 1.5490	89.5565
 1.5480	89.5296
 1.5470	89.5134
 1.5460	89.5131
 1.5450	89.5056
 1.5440	89.5135
 1.5430	89.5028
 1.5420	89.4865
 1.5410	89.4946
 1.5400	89.4117
 1.5390	89.3890
 1.5380	89.4125
 1.5370	89.3913
 1.5360	89.3872
 1.5350	89.3556
 1.5340	89.3402
 1.5330	89.3125
 1.5320	89.3406
 1.5310	89.3013
 1.5300	89.2234
 1.5290	89.2640
 1.5280	89.2824
 1.5270	89.2504
 1.5260	89.2047
 1.5250	89.1631
 1.5240	89.1600
 1.5230	89.1277
 1.5220	89.1468
 1.5210	89.1316
 1.5200	89.1076
 1.5190	89.1121
 1.5180	89.0698
 1.5170	89.0422
 1.5160	89.0201
 1.5150	89.0085
 1.5140	89.0233
 1.5130	88.9964
 1.5120	88.9830
 1.5110	88.9614
 1.5100	88.9054
 1.5090	88.8928
 1.5080	88.8686
 1.5070	88.8561
 1.5060	88.8332
 1.5050	88.8129
 1.5040	88.8198
 1.5030	88.8184
 1.5020	88.7588
 1.5010	88.7017
 1.5000	88.6913
 1.4990	88.6945
 1.4980	88.6813
 1.4970	88.6624
 1.4960	88.6654
 1.4950	88.6448
 1.4940	88.6226
 1.4930	88.5986
 1.4920	88.5733
 1.4910	88.5366
 1.4900	88.4832
 1.4890	88.4832
 1.4880	88.4811
 1.4870	88.4602
 1.4860	88.4842
 1.4850	88.4198
 1.4840	88.3613
 1.4830	88.3568
 1.4820	88.3530
 1.4810	88.3416
 1.4800	88.3333
 1.4790	88.2588
 1.4780	88.2717
 1.4770	88.2650
 1.4760	88.2126
 1.4750	88.1863
 1.4740	88.1714
 1.4730	88.1504
 1.4720	88.1192
 1.4710	88.0562
 1.4700	88.0331
 1.4690	88.0946
 1.4680	88.0918
 1.4670	88.0502
 1.4660	88.0502
 1.4650	88.0469
 1.4640	88.0734
 1.4630	88.0443
 1.4620	87.9889
 1.4610	87.9607
 1.4600	88.0188
 1.4590	88.0011
 1.4580	87.9629
 1.4570	87.9987
 1.4560	88.0126
 1.4550	87.9664
 1.4540	87.9602
 1.4530	87.9483
 1.4520	87.9777
 1.4510	87.9604
 1.4500	87.9485
 1.4490	87.9282
 1.4480	87.9328
 1.4470	87.9331
 1.4460	87.9054
 1.4450	87.8939
 1.4440	87.9181
 1.4430	87.9225
 1.4420	87.9448
 1.4410	87.9408
 1.4400	87.9290
 1.4390	87.8811
 1.4380	87.8927
 1.4370	87.8796
 1.4360	87.9382
 1.4350	87.9265
 1.4340	87.9186
 1.4330	87.9309
 1.4320	87.9499
 1.4310	87.9165
 1.4300	87.9387
 1.4290	87.9780
 1.4280	87.9993
 1.4270	87.9515
 1.4260	87.9452
 1.4250	87.9738
 1.4240	87.9740
 1.4230	88.0170
 1.4220	87.9838
 1.4210	87.9972
 1.4200	88.0400
 1.4190	88.0435
 1.4180	88.0366
 1.4170	88.0597
 1.4160	88.0615
 1.4150	88.0667
 1.4140	88.1019
 1.4130	88.1098
 1.4120	88.1160
 1.4110	88.1432
 1.4100	88.2169
 1.4090	88.2045
 1.4080	88.1725
 1.4070	88.2531
 1.4060	88.2506
 1.4050	88.3488
 1.4040	88.3313
 1.4030	88.3754
 1.4020	88.4185
 1.4010	88.4260
 1.4000	88.4571
 1.3990	88.4498
 1.3980	88.5326
 1.3970	88.5030
 1.3960	88.5968
 1.3950	88.5483
 1.3940	88.6251
 1.3930	88.6524
 1.3920	88.6492
 1.3910	88.6645
 1.3900	88.7115
 1.3890	88.7064
 1.3880	88.6982
 1.3870	88.7323
 1.3860	88.7612
 1.3850	88.7568
 1.3840	88.7823
 1.3830	88.7888
 1.3820	88.7902
 1.3810	88.7909
 1.3800	88.7947
 1.3790	88.7733
 1.3780	88.8044
 1.3770	88.8257
 1.3760	88.7418
 1.3750	88.7610
 1.3740	88.7597
 1.3730	88.7825
 1.3720	88.7950
 1.3710	88.7598
 1.3700	88.7858
 1.3690	88.7786
 1.3680	88.8371
 1.3670	88.8182
 1.3660	88.7862
 1.3650	88.6632
 1.3640	88.7590
 1.3630	88.6618
 1.3620	88.7000
 1.3610	88.7265
 1.3600	88.7115
 1.3590	88.6288
 1.3580	88.6501
 1.3570	88.6612
 1.3560	88.6667
 1.3550	88.5915
 1.3540	88.6321
 1.3530	88.6377
 1.3520	88.6759
 1.3510	88.5552
 1.3500	88.6064
 1.3490	88.6003
 1.3480	88.5214
 1.3470	88.5338
 1.3460	88.5634
 1.3450	88.5133
 1.3440	88.5190
 1.3430	88.5522
 1.3420	88.5040
 1.3410	88.4477
 1.3400	88.4606
 1.3390	88.4977
 1.3380	88.4797
 1.3370	88.4583
 1.3360	88.4429
 1.3350	88.4137
 1.3340	88.3981
 1.3330	88.4439
 1.3320	88.3744
 1.3310	88.3477
 1.3300	88.4619
 1.3290	88.3847
 1.3280	88.3846
 1.3270	88.3793
 1.3260	88.3234
 1.3250	88.3997
 1.3240	88.3627
 1.3230	88.3259
 1.3220	88.3341
 1.3210	88.3071
 1.3200	88.2804
 1.3190	88.3565
 1.3180	88.3262
 1.3170	88.2601
 1.3160	88.2881
 1.3150	88.2705
 1.3140	88.2409
 1.3130	88.2352
 1.3120	88.2391
 1.3110	88.2376
 1.3100	88.1583
 1.3090	88.1715
 1.3080	88.2077
 1.3070	88.2345
 1.3060	88.1705
 1.3050	88.1810
 1.3040	88.1829
 1.3030	88.1578
 1.3020	88.1024
 1.3010	88.1093
 1.3000	88.0788
 1.2990	88.0966
 1.2980	88.1111
 1.2970	88.0930
 1.2960	88.0551
 1.2950	88.0770
 1.2940	88.0875
 1.2930	88.0107
 1.2920	88.0067
 1.2910	87.9982
 1.2900	87.9644
 1.2890	87.9517
 1.2880	87.9681
 1.2870	87.9508
 1.2860	87.9746
 1.2850	87.9788
 1.2840	87.9519
 1.2830	87.9256
 1.2820	87.9027
 1.2810	87.9096
 1.2800	87.9254
 1.2790	87.9125
 1.2780	87.8702
 1.2770	87.8514
 1.2760	87.8681
 1.2750	87.8113
 1.2740	87.8148
 1.2730	87.8279
 1.2720	87.8100
 1.2710	87.8107
 1.2700	87.7667
 1.2690	87.7839
 1.2680	87.7694
 1.2670	87.7176
 1.2660	87.7044
 1.2650	87.6684
 1.2640	87.6736
 1.2630	87.6914
 1.2620	87.6741
 1.2610	87.6561
 1.2600	87.6583
 1.2590	87.6131
 1.2580	87.6040
 1.2570	87.5776
 1.2560	87.6071
 1.2550	87.6154
 1.2540	87.6293
 1.2530	87.5841
 1.2520	87.6039
 1.2510	87.5649
 1.2500	87.5381
 1.2490	87.5182
 1.2480	87.5121
 1.2470	87.5108
 1.2460	87.5018
 1.2450	87.4460
 1.2440	87.4586
 1.2430	87.4510
 1.2420	87.4631
 1.2410	87.4464
 1.2400	87.4318
 1.2390	87.4316
 1.2380	87.4290
 1.2370	87.3824
 1.2360	87.3950
 1.2350	87.3490
 1.2340	87.3755
 1.2330	87.4097
 1.2320	87.3886
 1.2310	87.3850
 1.2300	87.3441
 1.2290	87.2883
 1.2280	87.2861
 1.2270	87.2396
 1.2260	87.2062
 1.2250	87.2143
 1.2240	87.2285
 1.2230	87.2301
 1.2220	87.2443
 1.2210	87.2272
 1.2200	87.2075
 1.2190	87.1558
 1.2180	87.1511
 1.2170	87.1639
 1.2160	87.0861
 1.2150	87.0664
 1.2140	87.0907
 1.2130	87.0825
 1.2120	87.0961
 1.2110	87.1010
 1.2100	87.0824
 1.2090	87.0720
 1.2080	87.0340
 1.2070	87.0331
 1.2060	87.0312
 1.2050	87.0014
 1.2040	86.9905
 1.2030	86.9483
 1.2020	86.9405
 1.2010	86.9883
 1.2000	86.9607
 1.1990	86.9238
 1.1980	86.9313
 1.1970	86.9271
 1.1960	86.8895
 1.1950	86.8428
 1.1940	86.8404
 1.1930	86.8868
 1.1920	86.8869
 1.1910	86.8538
 1.1900	86.8313
 1.1890	86.8286
 1.1880	86.7692
 1.1870	86.7629
 1.1860	86.7607
 1.1850	86.7377
 1.1840	86.7530
 1.1830	86.7965
 1.1820	86.7099
 1.1810	86.7145
 1.1800	86.6908
 1.1790	86.6725
 1.1780	86.6559
 1.1770	86.6568
 1.1760	86.6732
 1.1750	86.6930
 1.1740	86.6308
 1.1730	86.5956
 1.1720	86.6084
 1.1710	86.6388
 1.1700	86.5526
 1.1690	86.5576
 1.1680	86.5453
 1.1670	86.5283
 1.1660	86.5322
 1.1650	86.4904
 1.1640	86.5456
 1.1630	86.5585
 1.1620	86.5028
 1.1610	86.4707
 1.1600	86.4852
 1.1590	86.4270
 1.1580	86.4483
 1.1570	86.4359
 1.1560	86.4449
 1.1550	86.4074
 1.1540	86.3363
 1.1530	86.3855
 1.1520	86.3654
 1.1510	86.3392
 1.1500	86.2882
 1.1490	86.3118
 1.1480	86.3444
 1.1470	86.3167
 1.1460	86.2795
 1.1450	86.3037
 1.1440	86.2694
 1.1430	86.2943
 1.1420	86.2367
 1.1410	86.2362
 1.1400	86.2194
 1.1390	86.2177
 1.1380	86.2073
 1.1370	86.1455
 1.1360	86.1740
 1.1350	86.1925
 1.1340	86.1837
 1.1330	86.2115
 1.1320	86.1134
 1.1310	86.1014
 1.1300	86.1049
 1.1290	86.1403
 1.1280	86.0684
 1.1270	86.1019
 1.1260	86.0749
 1.1250	86.0341
 1.1240	85.9754
 1.1230	85.9996
 1.1220	86.0051
 1.1210	85.9704
 1.1200	85.9757
 1.1190	85.9713
 1.1180	85.8882
 1.1170	85.9611
 1.1160	85.9012
 1.1150	85.9313
 1.1140	85.8854
 1.1130	85.8701
 1.1120	85.8702
 1.1110	85.8448
 1.1100	85.8112
 1.1090	85.8330
 1.1080	85.7958
 1.1070	85.8560
 1.1060	85.7708
 1.1050	85.7678
 1.1040	85.7717
 1.1030	85.7589
 1.1020	85.7102
 1.1010	85.7721
 1.1000	85.6891
 1.0990	85.7177
 1.0980	85.6565
 1.0970	85.6136
 1.0960	85.6049
 1.0950	85.5924
 1.0940	85.5258
 1.0930	85.5785
 1.0920	85.5781
 1.0910	85.5753
 1.0900	85.5443
 1.0890	85.5472
 1.0880	85.5111
 1.0870	85.4877
 1.0860	85.4209
 1.0850	85.4692
 1.0840	85.4907
 1.0830	85.4852
 1.0820	85.4327
 1.0810	85.4112
 1.0800	85.3909
 1.0790	85.3187
 1.0780	85.3320
 1.0770	85.3604
 1.0760	85.2861
 1.0750	85.2603
 1.0740	85.2679
 1.0730	85.2667
 1.0720	85.1790
 1.0710	85.3145
 1.0700	85.1244
 1.0690	85.1912
 1.0680	85.1661
 1.0670	85.2278
 1.0660	85.2386
 1.0650	85.1611
 1.0640	85.1210
 1.0630	85.1238
 1.0620	85.1202
 1.0610	85.0578
 1.0600	85.0110
 1.0590	85.0337
 1.0580	84.9763
 1.0570	85.0576
 1.0560	84.9714
 1.0550	85.0124
 1.0540	84.9165
 1.0530	84.9354
 1.0520	84.9616
 1.0510	84.8920
 1.0500	84.8623
 1.0490	84.9377
 1.0480	84.8083
 1.0470	84.8856
 1.0460	84.7631
 1.0450	84.7691
 1.0440	84.7972
 1.0430	84.7720
 1.0420	84.7452
 1.0410	84.7570
 1.0400	84.7263
 1.0390	84.7204
 1.0380	84.6740
 1.0370	84.6800
 1.0360	84.6299
 1.0350	84.6171
 1.0340	84.6348
 1.0330	84.5796
 1.0320	84.5727
 1.0310	84.5641
 1.0300	84.5015
 1.0290	84.5048
 1.0280	84.5078
 1.0270	84.5112
 1.0260	84.4638
 1.0250	84.4871
 1.0240	84.3618
 1.0230	84.3412
 1.0220	84.3780
 1.0210	84.4039
 1.0200	84.3387
 1.0190	84.2856
 1.0180	84.3146
 1.0170	84.2849
 1.0160	84.2229
 1.0150	84.2564
 1.0140	84.1895
 1.0130	84.1790
 1.0120	84.1838
 1.0110	84.1517
 1.0100	84.0990
 1.0090	84.0791
 1.0080	84.0556
 1.0070	84.1069
 1.0060	84.0757
 1.0050	84.0924
 1.0040	84.0562
 1.0030	83.9939
 1.0020	84.0004
 1.0010	84.0060
 1.0000	83.9612
 0.9990	83.9535
 0.9980	83.9043
 0.9970	83.8833
 0.9960	83.8600
 0.9950	83.8715
 0.9940	83.8007
 0.9930	83.7884
 0.9920	83.7501
 0.9910	83.7215
 0.9900	83.6579
 0.9890	83.6429
 0.9880	83.6324
 0.9870	83.6957
 0.9860	83.6217
 0.9850	83.5933
 0.9840	83.5917
 0.9830	83.5388
 0.9820	83.5138
 0.9810	83.4754
 0.9800	83.4418
 0.9790	83.4715
 0.9780	83.3930
 0.9770	83.3747
 0.9760	83.3757
 0.9750	83.3263
 0.9740	83.3022
 0.9730	83.2574
 0.9720	83.2162
 0.9710	83.2152
 0.9700	83.2007
 0.9690	83.1851
 0.9680	83.1434
 0.9670	83.1125
 0.9660	83.1147
 0.9650	83.0712
 0.9640	83.0240
 0.9630	82.9833
 0.9620	82.9545
 0.9610	82.9496
 0.9600	82.8886
 0.9590	82.8671
 0.9580	82.8502
 0.9570	82.8222
 0.9560	82.7992
 0.9550	82.7397
 0.9540	82.6836
 0.9530	82.6389
 0.9520	82.6224
 0.9510	82.6093
 0.9500	82.5642
 0.9490	82.5342
 0.9480	82.5112
 0.9470	82.4944
 0.9460	82.4216
 0.9450	82.3967
 0.9440	82.3497
 0.9430	82.3094
 0.9420	82.2525
 0.9410	82.2273
 0.9400	82.1928
 0.9390	82.1362
 0.9380	82.1019
 0.9370	82.0689
 0.9360	82.0216
 0.9350	81.9977
 0.9340	81.9529
 0.9330	81.9425
 0.9320	81.9001
 0.9310	81.8046
 0.9300	81.8000
 0.9290	81.7760
 0.9280	81.6855
 0.9270	81.6419
 0.9260	81.5963
 0.9250	81.5228
 0.9240	81.4747
 0.9230	81.4501
 0.9220	81.4027
 0.9210	81.3388
 0.9200	81.2582
 0.9190	81.2322
 0.9180	81.1955
 0.9170	81.1341
 0.9160	81.1159
 0.9150	81.0286
 0.9140	81.0034
 0.9130	80.9450
 0.9120	80.8732
 0.9110	80.8198
 0.9100	80.7621
 0.9090	80.7282
 0.9080	80.6757
 0.9070	80.6024
 0.9060	80.5854
 0.9050	80.4888
 0.9040	80.4023
 0.9030	80.3612
 0.9020	80.3166
 0.9010	80.2249
 0.9000	80.1752
 0.8990	80.1171
 0.8980	80.0669
 0.8970	79.9826
 0.8960	79.9388
 0.8950	79.8624
 0.8940	79.7904
 0.8930	79.7085
 0.8920	79.7005
 0.8910	79.6171
 0.8900	79.4953
 0.8890	79.4500
 0.8880	79.4089
 0.8870	79.2953
 0.8860	79.2413
 0.8850	79.1694
 0.8840	79.0965
 0.8830	78.9934
 0.8820	78.9371
 0.8810	78.8245
 0.8800	78.7514
 0.8790	78.6607
 0.8780	78.6285
 0.8770	78.5194
 0.8760	78.4429
 0.8750	78.3286
 0.8740	78.2689
 0.8730	78.1301
 0.8720	78.0406
 0.8710	77.9519
 0.8700	77.8751
 0.8690	77.7907
 0.8680	77.6912
 0.8670	77.5091
 0.8660	77.4789
 0.8650	77.3002
 0.8640	77.2766
 0.8630	77.2081
 0.8620	77.1050
 0.8610	76.9868
 0.8600	77.0214
 0.8590	76.9898
 0.8580	76.8316
 0.8570	76.7118
 0.8560	76.6399
 0.8550	76.4596
 0.8540	76.3131
 0.8530	76.1908
 0.8520	76.0598
 0.8510	75.9073
 0.8500	75.7817
 0.8490	75.6241
 0.8480	75.5026
 0.8470	75.3550
 0.8460	75.1787
 0.8450	75.0138
 0.8440	74.8657
 0.8430	74.7462
 0.8420	74.5481
 0.8410	74.3812
 0.8400	74.1990
 0.8390	74.0267
 0.8380	73.8339
 0.8370	73.6470
 0.8360	73.4341
 0.8350	73.2546
 0.8340	73.0240
 0.8330	72.8167
 0.8320	72.6125
 0.8310	72.3648
 0.8300	72.1337
 0.8290	71.9156
 0.8280	71.6368
 0.8270	71.3778
 0.8260	71.1070
 0.8250	70.8334
 0.8240	70.5590
 0.8230	70.2598
 0.8220	69.9025
 0.8210	69.5850
 0.8200	69.2581
 0.8190	68.9148
 0.8180	68.5517
 0.8170	68.1668
 0.8160	67.7898
 0.8150	67.3804
 0.8140	66.9969
 0.8130	66.5570
 0.8120	66.0614
 0.8110	65.6175
 0.8100	65.1366
 0.8090	64.6672
 0.8080	64.1656
 0.8070	63.6686
 0.8060	63.1284
 0.8050	62.5961
 0.8040	62.0496
 0.8030	61.4930
 0.8020	60.9382
 0.8010	60.3765
 0.8000	59.8130
 0.7990	59.1971
 0.7980	58.6308
 0.7970	58.0169
 0.7960	57.4282
 0.7950	56.8563
 0.7940	56.2646
 0.7930	55.6819
 0.7920	55.1228
 0.7910	54.5188
 0.7900	53.9686
 0.7890	53.4252
 0.7880	52.8810
 0.7870	52.3445
 0.7860	51.8357
 0.7850	51.3188
 0.7840	50.8357
 0.7830	50.3753
 0.7820	49.9063
 0.7810	49.4677
 0.7800	49.0418
 0.7790	48.6058
 0.7780	48.2181
 0.7770	47.8237
 0.7760	47.4468
 0.7750	47.0758
 0.7740	46.7516
 0.7730	46.4154
 0.7720	46.0894
 0.7710	45.7860
 0.7700	45.5010
 0.7690	45.2199
 0.7680	44.9225
 0.7670	44.6684
 0.7660	44.4189
 0.7650	44.2150
 0.7640	43.9792
 0.7630	43.7383
 0.7620	43.5123
 0.7610	43.2966
 0.7600	43.0931
 0.7590	42.8886
 0.7580	42.6806
 0.7570	42.4961
 0.7560	42.2914
 0.7550	42.1005
 0.7540	41.9303
 0.7530	41.7355
 0.7520	41.5685
 0.7510	41.3926
 0.7500	41.2171
 0.7490	41.0623
 0.7480	40.8966
 0.7470	40.7370
 0.7460	40.5885
 0.7450	40.4339
 0.7440	40.2758
 0.7430	40.1331
 0.7420	39.9943
 0.7410	39.8463
 0.7400	39.7013
 0.7390	39.5653
 0.7380	39.4336
 0.7370	39.2828
 0.7360	39.1641
 0.7350	39.0424
 0.7340	38.9272
 0.7330	38.8107
 0.7320	38.6815
 0.7310	38.5692
 0.7300	38.4638
 0.7290	38.3570
 0.7280	38.2543
 0.7270	38.1574
 0.7260	38.0534
 0.7250	37.9604
 0.7240	37.8701
 0.7230	37.7798
 0.7220	37.6936
 0.7210	37.6054
 0.7200	37.5327
 0.7190	37.4493
 0.7180	37.3733
 0.7170	37.3027
 0.7160	37.2355
 0.7150	37.1597
 0.7140	37.0984
 0.7130	37.0379
 0.7120	36.9733
 0.7110	36.9160
 0.7100	36.8656
 0.7090	36.8084
 0.7080	36.7489
 0.7070	36.7117
 0.7060	36.6581
 0.7050	36.6093
 0.7040	36.5763
 0.7030	36.5280
 0.7020	36.4878
 0.7010	36.4540
 0.7000	36.4180
 0.6990	36.3824
 0.6980	36.3513
 0.6970	36.3204
 0.6960	36.2812
 0.6950	36.2478
 0.6940	36.2282
 0.6930	36.2007
 0.6920	36.1776
 0.6910	36.1530
 0.6900	36.1261
 0.6890	36.1018
 0.6880	36.0783
 0.6870	36.0566
 0.6860	36.0412
 0.6850	36.0306
 0.6840	36.0090
 0.6830	35.9875
 0.6820	35.9726
 0.6810	35.9586
 0.6800	35.9423
 0.6790	35.9315
 0.6780	35.9181
 0.6770	35.9044
 0.6760	35.8865
 0.6750	35.8780
 0.6740	35.8725
 0.6730	35.8660
 0.6720	35.8503
 0.6710	35.8377
 0.6700	35.8290
 0.6690	35.8214
 0.6680	35.8112
 0.6670	35.8027
 0.6660	35.8010
 0.6650	35.7890
 0.6640	35.7700
 0.6630	35.7660
 0.6620	35.7664
 0.6610	35.7564
 0.6600	35.7506
 0.6590	35.7425
 0.6580	35.7353
 0.6570	35.7301
 0.6560	35.7220
 0.6550	35.7125
 0.6540	35.7085
 0.6530	35.7028
 0.6520	35.6929
 0.6510	35.6889
 0.6500	35.6847
 0.6490	35.6763
 0.6480	35.6737
 0.6470	35.6703
 0.6460	35.6594
 0.6450	35.6588
 0.6440	35.6592
 0.6430	35.6524
 0.6420	35.6460
 0.6410	35.6419
 0.6400	35.6403
 0.6390	35.6341
 0.6380	35.6332
 0.6370	35.6339
 0.6360	35.6314
 0.6350	35.6296
 0.6340	35.6295
 0.6330	35.6294
 0.6320	35.6299
 0.6310	35.6289
 0.6300	35.6321
 0.6290	35.6371
 0.6280	35.6380
 0.6270	35.6415
 0.6260	35.6437
 0.6250	35.6463
 0.6240	35.6493
 0.6230	35.6512
 0.6220	35.6611
 0.6210	35.6672
 0.6200	35.6670
 0.6190	35.6744
 0.6180	35.6848
 0.6170	35.6908
 0.6160	35.7013
 0.6150	35.7133
 0.6140	35.7225
 0.6130	35.7252
 0.6120	35.7344
 0.6110	35.7430
 0.6100	35.7525
 0.6090	35.7611
 0.6080	35.7635
 0.6070	35.7715
 0.6060	35.7890
 0.6050	35.8019
 0.6040	35.8088
 0.6030	35.8245
 0.6020	35.8345
 0.6010	35.8448
 0.6000	35.8578
 0.5990	35.8720
 0.5980	35.8823
 0.5970	35.8944
 0.5960	35.9092
 0.5950	35.9222
 0.5940	35.9337
 0.5930	35.9449
 0.5920	35.9582
 0.5910	35.9742
 0.5900	35.9883
 0.5890	35.9996
 0.5880	36.0101
 0.5870	36.0289
 0.5860	36.0442
 0.5850	36.0595
 0.5840	36.0742
 0.5830	36.0877
 0.5820	36.1021
 0.5810	36.1186
 0.5800	36.1321
 0.5790	36.1459
 0.5780	36.1630
 0.5770	36.1770
 0.5760	36.1916
 0.5750	36.2061
 0.5740	36.2234
 0.5730	36.2379
 0.5720	36.2552
 0.5710	36.2697
 0.5700	36.2854
 0.5690	36.3017
 0.5680	36.3193
 0.5670	36.3373
 0.5660	36.3472
 0.5650	36.3619
 0.5640	36.3806
 0.5630	36.3946
 0.5620	36.4089
 0.5610	36.4434
 0.5600	36.4611
 0.5590	36.4829
 0.5580	36.5030
 0.5570	36.5218
 0.5560	36.5386
 0.5550	36.5535
 0.5540	36.5713
 0.5530	36.5888
 0.5520	36.6051
 0.5510	36.6266
 0.5500	36.6399
 0.5490	36.6644
 0.5480	36.6766
 0.5470	36.6959
 0.5460	36.7187
 0.5450	36.7340
 0.5440	36.7535
 0.5430	36.7788
 0.5420	36.7926
 0.5410	36.8095
 0.5400	36.8253
 0.5390	36.8386
 0.5380	36.8613
 0.5370	36.8810
 0.5360	36.9023
 0.5350	36.9173
 0.5340	36.9325
 0.5330	36.9499
 0.5320	36.9665
 0.5310	36.9865
 0.5300	37.0075
 0.5290	37.0256
 0.5280	37.0418
 0.5270	37.0578
 0.5260	37.0751
 0.5250	37.0887
 0.5240	37.1080
 0.5230	37.1210
 0.5220	37.1402
 0.5210	37.1606
 0.5200	37.1789
 0.5190	37.1974
 0.5180	37.2115
 0.5170	37.2282
 0.5160	37.2509
 0.5150	37.2629
 0.5140	37.2766
 0.5130	37.2971
 0.5120	37.3152
 0.5110	37.3264
 0.5100	37.3452
 0.5090	37.3689
 0.5080	37.3828
 0.5070	37.4084
 0.5060	37.4253
 0.5050	37.4425
 0.5040	37.4643
 0.5030	37.4913
 0.5020	37.4930
 0.5010	37.5223
 0.5000	37.5409
 0.4990	37.5582
 0.4980	37.5765
 0.4970	37.5886
 0.4960	37.6135
 0.4950	37.6303
 0.4940	37.6552
 0.4930	37.6725
 0.4920	37.6874
 0.4910	37.7062
 0.4900	37.7314
 0.4890	37.7535
 0.4880	37.7689
 0.4870	37.7788
 0.4860	37.7980
 0.4850	37.8250
 0.4840	37.8406
 0.4830	37.8540
 0.4820	37.8668
 0.4810	37.8713
 0.4800	37.8750
 0.4790	37.8827
 0.4780	37.8780
 0.4770	37.8794
 0.4760	37.8919
 0.4750	37.9043
 0.4740	37.9167
 0.4730	37.9246
 0.4720	37.9325
 0.4710	37.9526
 0.4700	37.9698
 0.4690	37.9751
 0.4680	37.9849
 0.4670	37.9986
 0.4660	38.0049
 0.4650	38.0282
 0.4640	38.0339
 0.4630	38.0467
 0.4620	38.0610
 0.4610	38.0693
 0.4600	38.0786
 0.4590	38.0929
 0.4580	38.1002
 0.4570	38.1203
 0.4560	38.1236
 0.4550	38.1446
 0.4540	38.1542
 0.4530	38.1650
 0.4520	38.1773
 0.4510	38.1862
 0.4500	38.1995
 0.4490	38.2099
 0.4480	38.2191
 0.4470	38.2313
 0.4460	38.2394
 0.4450	38.2529
 0.4440	38.2612
 0.4430	38.2710
 0.4420	38.2829
 0.4410	38.2869
 0.4400	38.3001
 0.4390	38.3074
 0.4380	38.3232
 0.4370	38.3312
 0.4360	38.3475
 0.4350	38.3478
 0.4340	38.3578
 0.4330	38.3676
 0.4320	38.3876
 0.4310	38.4058
 0.4300	38.4074
 0.4290	38.4177
 0.4280	38.4328
 0.4270	38.4432
 0.4260	38.4574
 0.4250	38.4758
 0.4240	38.4970
 0.4230	38.5142
 0.4220	38.5334
 0.4210	38.5442
 0.4200	38.5685
 0.4190	38.5855
 0.4180	38.6070
 0.4170	38.6215
 0.4160	38.6430
 0.4150	38.6640
 0.4140	38.6841
 0.4130	38.7067
 0.4120	38.7297
 0.4110	38.7474
 0.4100	38.7775
 0.4090	38.7987
 0.4080	38.8208
 0.4070	38.8539
 0.4060	38.8754
 0.4050	38.8959
 0.4040	38.9272
 0.4030	38.9580
 0.4020	38.9852
 0.4010	39.0084
 0.4000	39.0366
