Name: Johannsenite Ca(Mn,Fe^2+)(SiO_3)_2
Type: Mineral
Class: Silicate
Subclass: Inosilicate
Particle Size: Coarse
Sample No.: IN-12A
Owner: JPL
Wavelength Range: VSWIR
Origin: USA, Arizona, Graham County, Aravaipa
Collection Date: N/A
Description: Particle size was 125-500um.Collected by Burminco Original ASTER Spectral Library name was jpl.beckman.mineral.silicate.inosilicate.coarse.in12a.spectrum.txt
Measurement: Hemispherical reflectance
First Column: X
Second Column: Y
X Units: Wavelength (micrometers)
Y Units:Reflectance (percent)
First X Value:  0.4000
Last X Value:  2.5000
Number of X Values: 826
Additional Information: mineral.silicate.inosilicate.coarse.vswir.in-12a.jpl.beckman.ancillary.txt

 0.4000	 2.8400
 0.4010	 2.8200
 0.4020	 2.9300
 0.4030	 2.8700
 0.4040	 2.8700
 0.4050	 2.8100
 0.4060	 2.8100
 0.4070	 2.9300
 0.4080	 2.8100
 0.4090	 2.8100
 0.4100	 2.8000
 0.4110	 2.8100
 0.4120	 2.8100
 0.4130	 2.8100
 0.4140	 2.8700
 0.4150	 2.9300
 0.4160	 2.9300
 0.4170	 2.8700
 0.4180	 2.8600
 0.4190	 2.8600
 0.4200	 2.9800
 0.4210	 2.8700
 0.4220	 2.9300
 0.4230	 2.8700
 0.4240	 2.8000
 0.4250	 2.9200
 0.4260	 2.8600
 0.4270	 2.9800
 0.4280	 2.9800
 0.4290	 2.8600
 0.4300	 2.9200
 0.4310	 2.8000
 0.4320	 2.9700
 0.4330	 2.9800
 0.4340	 2.9800
 0.4350	 2.9800
 0.4360	 2.9200
 0.4370	 2.9300
 0.4380	 2.9300
 0.4390	 2.8700
 0.4400	 2.9800
 0.4410	 2.9800
 0.4420	 2.8500
 0.4430	 2.9800
 0.4440	 2.8500
 0.4450	 2.9700
 0.4460	 3.0300
 0.4470	 2.9800
 0.4480	 2.9800
 0.4490	 2.9800
 0.4500	 2.9200
 0.4510	 3.1000
 0.4520	 2.9800
 0.4530	 2.9800
 0.4540	 2.9100
 0.4550	 2.9600
 0.4560	 2.9500
 0.4570	 2.8200
 0.4580	 2.9900
 0.4590	 2.9900
 0.4600	 2.9300
 0.4610	 2.9700
 0.4620	 2.9700
 0.4630	 2.9700
 0.4640	 3.0400
 0.4650	 3.0400
 0.4660	 3.0400
 0.4670	 3.0400
 0.4680	 2.9800
 0.4690	 2.9800
 0.4700	 3.1000
 0.4710	 2.9700
 0.4720	 3.1500
 0.4730	 3.0300
 0.4740	 2.9600
 0.4750	 3.0200
 0.4760	 2.9600
 0.4770	 3.0300
 0.4780	 3.1400
 0.4790	 3.0200
 0.4800	 2.9700
 0.4810	 3.0800
 0.4820	 3.0900
 0.4830	 3.0900
 0.4840	 3.1400
 0.4850	 3.0700
 0.4860	 3.0700
 0.4870	 3.0700
 0.4880	 3.1300
 0.4890	 3.1200
 0.4900	 3.0600
 0.4910	 3.1800
 0.4920	 3.0500
 0.4930	 3.1700
 0.4940	 3.1600
 0.4950	 3.1600
 0.4960	 3.2100
 0.4970	 3.2100
 0.4980	 3.2000
 0.4990	 3.1400
 0.5000	 3.1400
 0.5010	 3.2500
 0.5020	 3.1900
 0.5030	 3.2500
 0.5040	 3.1300
 0.5050	 3.0700
 0.5060	 3.2500
 0.5070	 3.1300
 0.5080	 3.1900
 0.5090	 3.2500
 0.5100	 3.1300
 0.5110	 3.1900
 0.5120	 3.2400
 0.5130	 3.3500
 0.5140	 3.3500
 0.5150	 3.3000
 0.5160	 3.3000
 0.5170	 3.1900
 0.5180	 3.2300
 0.5190	 3.2900
 0.5200	 3.3500
 0.5210	 3.2400
 0.5220	 3.3500
 0.5230	 3.2900
 0.5240	 3.3500
 0.5250	 3.3500
 0.5260	 3.3400
 0.5270	 3.3500
 0.5280	 3.2900
 0.5290	 3.3600
 0.5300	 3.3500
 0.5310	 3.4800
 0.5320	 3.4200
 0.5330	 3.3800
 0.5340	 3.4600
 0.5350	 3.3700
 0.5360	 3.3800
 0.5370	 3.5500
 0.5380	 3.4900
 0.5390	 3.3800
 0.5400	 3.3100
 0.5410	 3.3700
 0.5420	 3.5000
 0.5430	 3.4900
 0.5440	 3.4900
 0.5450	 3.5400
 0.5460	 3.4200
 0.5470	 3.4700
 0.5480	 3.4600
 0.5490	 3.5700
 0.5500	 3.5700
 0.5510	 3.6200
 0.5520	 3.6100
 0.5530	 3.5500
 0.5540	 3.5500
 0.5550	 3.6600
 0.5560	 3.6600
 0.5570	 3.5000
 0.5580	 3.5200
 0.5590	 3.4800
 0.5600	 3.5400
 0.5610	 3.5800
 0.5620	 3.6300
 0.5630	 3.6800
 0.5640	 3.6300
 0.5650	 3.5700
 0.5660	 3.6300
 0.5670	 3.5200
 0.5680	 3.6900
 0.5690	 3.6900
 0.5700	 3.5700
 0.5710	 3.7000
 0.5720	 3.6400
 0.5730	 3.7200
 0.5740	 3.8200
 0.5750	 3.7300
 0.5760	 3.6300
 0.5770	 3.6400
 0.5780	 3.5800
 0.5790	 3.7600
 0.5800	 3.6400
 0.5810	 3.7700
 0.5820	 3.6500
 0.5830	 3.5800
 0.5840	 3.7600
 0.5850	 3.5700
 0.5860	 3.7600
 0.5870	 3.7000
 0.5880	 3.6400
 0.5890	 3.7700
 0.5900	 3.6400
 0.5910	 3.7600
 0.5920	 3.8900
 0.5930	 3.7700
 0.5940	 3.7600
 0.5950	 3.7000
 0.5960	 3.6900
 0.5970	 3.7000
 0.5980	 3.7500
 0.5990	 3.8000
 0.6000	 3.7100
 0.6010	 3.7400
 0.6020	 3.7800
 0.6030	 3.7700
 0.6040	 3.8700
 0.6050	 3.7400
 0.6060	 3.7400
 0.6070	 3.8100
 0.6080	 3.6200
 0.6090	 3.8500
 0.6100	 3.7400
 0.6110	 3.7400
 0.6120	 3.8000
 0.6130	 3.5700
 0.6140	 3.8000
 0.6150	 3.8600
 0.6160	 3.8500
 0.6170	 3.8500
 0.6180	 3.7300
 0.6190	 3.8000
 0.6200	 3.8500
 0.6210	 3.7300
 0.6220	 3.8500
 0.6230	 3.8500
 0.6240	 3.8000
 0.6250	 3.8000
 0.6260	 3.7900
 0.6270	 3.7900
 0.6280	 3.8500
 0.6290	 3.8500
 0.6300	 3.8500
 0.6310	 3.7400
 0.6320	 3.7900
 0.6330	 3.9100
 0.6340	 3.8500
 0.6350	 3.8500
 0.6360	 3.9300
 0.6370	 3.8100
 0.6380	 3.8600
 0.6390	 3.8000
 0.6400	 3.9100
 0.6410	 4.0300
 0.6420	 3.8500
 0.6430	 3.8600
 0.6440	 3.9100
 0.6450	 3.9000
 0.6460	 3.9700
 0.6470	 3.9700
 0.6480	 3.9800
 0.6490	 3.9200
 0.6500	 3.9200
 0.6510	 3.9200
 0.6520	 3.9100
 0.6530	 3.9700
 0.6540	 3.9100
 0.6550	 3.8500
 0.6560	 3.9800
 0.6570	 3.9800
 0.6580	 3.9700
 0.6590	 3.9800
 0.6600	 3.8000
 0.6610	 3.9200
 0.6620	 3.8700
 0.6630	 3.9800
 0.6640	 4.0300
 0.6650	 3.9100
 0.6660	 4.0200
 0.6670	 3.8500
 0.6680	 3.9700
 0.6690	 4.0300
 0.6700	 3.9700
 0.6710	 4.0800
 0.6720	 3.9100
 0.6730	 3.8500
 0.6740	 4.0400
 0.6750	 3.9200
 0.6760	 4.1000
 0.6770	 4.0300
 0.6780	 3.8500
 0.6790	 3.9700
 0.6800	 3.8500
 0.6810	 4.0300
 0.6820	 4.0300
 0.6830	 4.0200
 0.6840	 3.9600
 0.6850	 3.9100
 0.6860	 3.9800
 0.6870	 4.1000
 0.6880	 3.9800
 0.6890	 4.0300
 0.6900	 3.9700
 0.6910	 4.0200
 0.6920	 3.9700
 0.6930	 3.9600
 0.6940	 4.0200
 0.6950	 3.9100
 0.6960	 3.9700
 0.6970	 3.9800
 0.6980	 3.9400
 0.6990	 3.9600
 0.7000	 3.9900
 0.7010	 3.9200
 0.7020	 4.0200
 0.7030	 3.9000
 0.7040	 4.0200
 0.7050	 4.0800
 0.7060	 3.9700
 0.7070	 4.0900
 0.7080	 3.9100
 0.7090	 3.9000
 0.7100	 4.0100
 0.7110	 3.9600
 0.7120	 4.0800
 0.7130	 3.9600
 0.7140	 3.9600
 0.7150	 4.0200
 0.7160	 4.0800
 0.7170	 4.0900
 0.7180	 4.0300
 0.7190	 4.0300
 0.7200	 4.0200
 0.7210	 4.0200
 0.7220	 4.1300
 0.7230	 4.0800
 0.7240	 4.0200
 0.7250	 4.1700
 0.7260	 4.1200
 0.7270	 4.2400
 0.7280	 4.3100
 0.7290	 4.0800
 0.7300	 4.1400
 0.7310	 4.0800
 0.7320	 4.1300
 0.7330	 4.1300
 0.7340	 4.2400
 0.7350	 4.2400
 0.7360	 4.1800
 0.7370	 4.1400
 0.7380	 4.1900
 0.7390	 4.0800
 0.7400	 4.2300
 0.7410	 4.2300
 0.7420	 4.1300
 0.7430	 4.2900
 0.7440	 4.1300
 0.7450	 4.1700
 0.7460	 4.1300
 0.7470	 4.0800
 0.7480	 4.3000
 0.7490	 4.1300
 0.7500	 4.1200
 0.7510	 4.1800
 0.7520	 4.1800
 0.7530	 4.2400
 0.7540	 4.1800
 0.7550	 4.1700
 0.7560	 4.1800
 0.7570	 4.1400
 0.7580	 4.1800
 0.7590	 4.1800
 0.7600	 4.2300
 0.7610	 4.2400
 0.7620	 4.2300
 0.7630	 4.2200
 0.7640	 4.2800
 0.7650	 4.1800
 0.7660	 4.1800
 0.7670	 4.1800
 0.7680	 4.1700
 0.7690	 4.1700
 0.7700	 4.1200
 0.7710	 4.2900
 0.7720	 4.2800
 0.7730	 4.2300
 0.7740	 4.3000
 0.7750	 4.1800
 0.7760	 4.2900
 0.7770	 4.2300
 0.7780	 4.1700
 0.7790	 4.2900
 0.7800	 4.1700
 0.7810	 4.2300
 0.7820	 4.1200
 0.7830	 4.2300
 0.7840	 4.2900
 0.7850	 4.2800
 0.7860	 4.2200
 0.7870	 4.2200
 0.7880	 4.2900
 0.7890	 4.2800
 0.7900	 4.3400
 0.7910	 4.2800
 0.7920	 4.2900
 0.7930	 4.3500
 0.7940	 4.2900
 0.7950	 4.2900
 0.7960	 4.3500
 0.7970	 4.5200
 0.7980	 4.4700
 0.7990	 4.4200
 0.8000	 4.7100
 0.8040	 4.7200
 0.8080	 4.6500
 0.8120	 4.7200
 0.8160	 4.6600
 0.8200	 4.7200
 0.8240	 4.8300
 0.8280	 4.8300
 0.8320	 4.8400
 0.8360	 4.8600
 0.8400	 4.9100
 0.8440	 4.9100
 0.8480	 4.8500
 0.8520	 4.9200
 0.8560	 4.9200
 0.8600	 4.9300
 0.8640	 4.9200
 0.8680	 4.9300
 0.8720	 4.9300
 0.8760	 4.8600
 0.8800	 4.8800
 0.8840	 4.8700
 0.8880	 4.8600
 0.8920	 4.9400
 0.8960	 4.9300
 0.9000	 4.9300
 0.9040	 4.8700
 0.9080	 4.9400
 0.9120	 4.9400
 0.9160	 4.9300
 0.9200	 4.9400
 0.9240	 5.0000
 0.9280	 5.0000
 0.9320	 5.0000
 0.9360	 4.9900
 0.9400	 5.0100
 0.9440	 4.9500
 0.9480	 4.9500
 0.9520	 4.9500
 0.9560	 4.9900
 0.9600	 5.0000
 0.9640	 4.9500
 0.9680	 4.9900
 0.9720	 4.9900
 0.9760	 4.9400
 0.9800	 4.9300
 0.9840	 4.9200
 0.9880	 4.9300
 0.9920	 4.9900
 0.9960	 4.9500
 1.0000	 5.0100
 1.0040	 5.1300
 1.0080	 5.0600
 1.0120	 5.1200
 1.0160	 5.0700
 1.0200	 5.1200
 1.0240	 5.1300
 1.0280	 5.0500
 1.0320	 5.1000
 1.0360	 5.1600
 1.0400	 5.2200
 1.0440	 5.2300
 1.0480	 5.2300
 1.0520	 5.3000
 1.0560	 5.3100
 1.0600	 5.2700
 1.0640	 5.3500
 1.0680	 5.2700
 1.0720	 5.3800
 1.0760	 5.3000
 1.0800	 5.3400
 1.0840	 5.3700
 1.0880	 5.3600
 1.0920	 5.2900
 1.0960	 5.2900
 1.1000	 5.3500
 1.1040	 5.3800
 1.1080	 5.4400
 1.1120	 5.4500
 1.1160	 5.4600
 1.1200	 5.5100
 1.1240	 5.5600
 1.1280	 5.5600
 1.1320	 5.5900
 1.1360	 5.5700
 1.1400	 5.5500
 1.1440	 5.5200
 1.1480	 5.4700
 1.1520	 5.4600
 1.1560	 5.4600
 1.1600	 5.5100
 1.1640	 5.5600
 1.1680	 5.6200
 1.1720	 5.5600
 1.1760	 5.6100
 1.1800	 5.6700
 1.1840	 5.7500
 1.1880	 5.7500
 1.1920	 5.8300
 1.1960	 5.8100
 1.2000	 5.8700
 1.2040	 5.8600
 1.2080	 5.8200
 1.2120	 5.8100
 1.2160	 5.8500
 1.2200	 5.8400
 1.2240	 5.8800
 1.2280	 5.9400
 1.2320	 6.0300
 1.2360	 6.0000
 1.2400	 6.1100
 1.2440	 6.2200
 1.2480	 6.2600
 1.2520	 6.3100
 1.2560	 6.3600
 1.2600	 6.4200
 1.2640	 6.4200
 1.2680	 6.5000
 1.2720	 6.5500
 1.2760	 6.5800
 1.2800	 6.6500
 1.2840	 6.7100
 1.2880	 6.7700
 1.2920	 6.7500
 1.2960	 6.8200
 1.3000	 6.8500
 1.3040	 6.9400
 1.3080	 7.0000
 1.3120	 7.1000
 1.3160	 7.1700
 1.3200	 7.1900
 1.3240	 7.2900
 1.3280	 7.3600
 1.3320	 7.4100
 1.3360	 7.4600
 1.3400	 7.5700
 1.3440	 7.6400
 1.3480	 7.6700
 1.3520	 7.7300
 1.3560	 7.8100
 1.3600	 7.8300
 1.3640	 7.8500
 1.3680	 7.9600
 1.3720	 7.9800
 1.3760	 8.1000
 1.3800	 8.1600
 1.3840	 8.2900
 1.3880	 8.3900
 1.3920	 8.4200
 1.3960	 8.4300
 1.4000	 8.5000
 1.4040	 8.5700
 1.4080	 8.5600
 1.4120	 8.6400
 1.4160	 8.7300
 1.4200	 8.7300
 1.4240	 8.8400
 1.4280	 8.8500
 1.4320	 8.9200
 1.4360	 8.9900
 1.4400	 9.0600
 1.4440	 9.1800
 1.4480	 9.2500
 1.4520	 9.3200
 1.4560	 9.3600
 1.4600	 9.4600
 1.4640	 9.5300
 1.4680	 9.5200
 1.4720	 9.6700
 1.4760	 9.7300
 1.4800	 9.8200
 1.4840	 9.8500
 1.4880	 9.9900
 1.4920	10.0700
 1.4960	10.1600
 1.5000	10.2000
 1.5040	10.3200
 1.5080	10.4300
 1.5120	10.4200
 1.5160	10.5700
 1.5200	10.6300
 1.5240	10.6400
 1.5280	10.7900
 1.5320	10.8400
 1.5360	10.9200
 1.5400	11.0600
 1.5440	11.1400
 1.5480	11.2800
 1.5520	11.3100
 1.5560	11.4400
 1.5600	11.4700
 1.5640	11.5300
 1.5680	11.6400
 1.5720	11.7300
 1.5760	11.7900
 1.5800	11.7800
 1.5840	11.8500
 1.5880	11.9000
 1.5920	12.0000
 1.5960	12.0900
 1.6000	12.1900
 1.6040	12.2300
 1.6080	12.2900
 1.6120	12.5000
 1.6160	12.4800
 1.6200	12.6200
 1.6240	12.7400
 1.6280	12.8100
 1.6320	12.9100
 1.6360	13.0000
 1.6400	13.0600
 1.6440	13.1300
 1.6480	13.1200
 1.6520	13.2200
 1.6560	13.2900
 1.6600	13.4200
 1.6640	13.4900
 1.6680	13.5600
 1.6720	13.6600
 1.6760	13.7000
 1.6800	13.8500
 1.6840	13.8800
 1.6880	13.9500
 1.6920	14.0600
 1.6960	14.1100
 1.7000	14.3000
 1.7040	14.3200
 1.7080	14.3600
 1.7120	14.5300
 1.7160	14.5900
 1.7200	14.5600
 1.7240	14.5700
 1.7280	14.7000
 1.7320	14.7900
 1.7360	14.8800
 1.7400	14.9800
 1.7440	15.0900
 1.7480	15.1000
 1.7520	15.2600
 1.7560	15.3500
 1.7600	15.4100
 1.7640	15.5200
 1.7680	15.6000
 1.7720	15.6700
 1.7760	15.7700
 1.7800	15.8000
 1.7840	15.9400
 1.7880	16.0400
 1.7920	16.1100
 1.7960	16.2100
 1.8000	16.1900
 1.8040	16.2700
 1.8080	16.4100
 1.8120	16.4600
 1.8160	16.5100
 1.8200	16.5700
 1.8240	16.7000
 1.8280	16.8600
 1.8320	16.8800
 1.8360	16.9900
 1.8400	17.1400
 1.8440	17.2500
 1.8480	17.2400
 1.8520	17.3000
 1.8560	17.3600
 1.8600	17.3300
 1.8640	17.3700
 1.8680	17.2600
 1.8720	17.2500
 1.8760	17.1100
 1.8800	16.9800
 1.8840	16.7800
 1.8880	16.5000
 1.8920	16.1900
 1.8960	15.7700
 1.9000	15.4900
 1.9040	15.2800
 1.9080	15.1800
 1.9120	15.1700
 1.9160	15.3300
 1.9200	15.5200
 1.9240	15.6800
 1.9280	15.8100
 1.9320	15.9600
 1.9360	16.1400
 1.9400	16.3400
 1.9440	16.4200
 1.9480	16.5200
 1.9520	16.6100
 1.9560	16.6600
 1.9600	16.8800
 1.9640	17.0600
 1.9680	17.2300
 1.9720	17.4000
 1.9760	17.5900
 1.9800	17.8700
 1.9840	18.0200
 1.9880	18.1700
 1.9920	18.2600
 1.9960	18.5100
 2.0000	18.5700
 2.0040	18.6700
 2.0080	18.9200
 2.0120	19.0400
 2.0160	19.2100
 2.0200	19.4400
 2.0240	19.5700
 2.0280	19.7400
 2.0320	19.9400
 2.0360	19.9900
 2.0400	20.1400
 2.0440	20.2000
 2.0480	20.3400
 2.0520	20.4400
 2.0560	20.5400
 2.0600	20.7600
 2.0640	20.9200
 2.0680	21.0500
 2.0720	21.2100
 2.0760	21.1900
 2.0800	21.4000
 2.0840	21.4100
 2.0880	21.5000
 2.0920	21.7000
 2.0960	21.7400
 2.1000	21.9300
 2.1040	22.0700
 2.1080	22.2000
 2.1120	22.3500
 2.1160	22.5200
 2.1200	22.6000
 2.1240	22.6400
 2.1280	22.7400
 2.1320	22.9000
 2.1360	22.9400
 2.1400	22.9800
 2.1440	23.0500
 2.1480	23.1200
 2.1520	23.2100
 2.1560	23.2800
 2.1600	23.2200
 2.1640	23.3900
 2.1680	23.4200
 2.1720	23.5300
 2.1760	23.6500
 2.1800	23.6800
 2.1840	23.6900
 2.1880	23.7100
 2.1920	23.7700
 2.1960	23.7600
 2.2000	23.7800
 2.2040	23.6500
 2.2080	23.7100
 2.2120	23.7500
 2.2160	23.7900
 2.2200	23.8000
 2.2240	23.7900
 2.2280	23.8300
 2.2320	23.9500
 2.2360	23.9600
 2.2400	23.9200
 2.2440	23.9500
 2.2480	23.9700
 2.2520	23.9300
 2.2560	23.8900
 2.2600	23.7400
 2.2640	23.6900
 2.2680	23.6900
 2.2720	23.5700
 2.2760	23.4500
 2.2800	23.4200
 2.2840	23.3800
 2.2880	23.3700
 2.2920	23.4000
 2.2960	23.4300
 2.3000	23.4100
 2.3040	23.6000
 2.3080	23.7700
 2.3120	24.0000
 2.3160	24.1900
 2.3200	24.3500
 2.3240	24.4200
 2.3280	24.4300
 2.3320	24.5100
 2.3360	24.4800
 2.3400	24.5500
 2.3440	24.5100
 2.3480	24.5200
 2.3520	24.4900
 2.3560	24.6000
 2.3600	24.5200
 2.3640	24.3900
 2.3680	24.2600
 2.3720	24.1700
 2.3760	24.1000
 2.3800	23.9500
 2.3840	23.8300
 2.3880	23.6800
 2.3920	23.5200
 2.3960	23.4200
 2.4000	23.2800
 2.4040	23.2700
 2.4080	23.2300
 2.4120	23.2500
 2.4160	23.0700
 2.4200	22.9700
 2.4240	22.8900
 2.4280	22.8000
 2.4320	22.6400
 2.4360	22.4800
 2.4400	22.3100
 2.4440	22.1900
 2.4480	22.0900
 2.4520	21.9700
 2.4560	21.7900
 2.4600	21.6900
 2.4640	21.5500
 2.4680	21.3900
 2.4720	21.2900
 2.4760	21.1300
 2.4800	21.0100
 2.4840	20.9100
 2.4880	20.7500
 2.4920	20.6000
 2.4960	20.5000
 2.5000	20.4700
