Name: Cookeite LiAl_4(Si_3Al)O_10(OH)_8
Type: Mineral
Class: Silicate
Subclass: Phyllosilicate
Particle Size: Fine
Sample No.: PS-9A
Owner: JPL
Wavelength Range: VSWIR
Origin: USA, Arkansas, Pulaski County.
Collection Date: N/A
Description: Particle size was 0-45um.Collected by:  JPL Original ASTER Spectral Library name was jpl.perkin.mineral.silicate.phyllosilicate.fine.ps09a.spectrum.txt
Measurement: Hemispherical reflectance
First Column: X
Second Column: Y
X Units: Wavelength (micrometers)
Y Units:Reflectance (percent)
First X Value:  2.5000
Last X Value:  0.4000
Number of X Values: 2101
Additional Information: mineral.silicate.phyllosilicate.fine.vswir.ps-9a.jpl.perkin.ancillary.txt

 2.5000	38.4152
 2.4990	38.2112
 2.4980	38.4978
 2.4970	38.3969
 2.4960	38.2879
 2.4950	38.3674
 2.4940	38.3761
 2.4930	38.2613
 2.4920	38.4916
 2.4910	38.4300
 2.4900	38.4347
 2.4890	38.4045
 2.4880	38.4438
 2.4870	38.3202
 2.4860	38.5175
 2.4850	38.5301
 2.4840	38.6351
 2.4830	38.5342
 2.4820	38.6683
 2.4810	38.4522
 2.4800	38.6511
 2.4790	38.4882
 2.4780	38.9126
 2.4770	38.6531
 2.4760	38.7384
 2.4750	38.7866
 2.4740	38.8696
 2.4730	38.7462
 2.4720	39.0729
 2.4710	38.7267
 2.4700	38.8603
 2.4690	38.8130
 2.4680	39.0856
 2.4670	38.9685
 2.4660	39.0697
 2.4650	39.0079
 2.4640	39.0133
 2.4630	38.9080
 2.4620	39.1217
 2.4610	39.0131
 2.4600	39.1795
 2.4590	39.0022
 2.4580	39.0585
 2.4570	39.1351
 2.4560	39.1567
 2.4550	39.0493
 2.4540	39.0839
 2.4530	39.1198
 2.4520	39.2480
 2.4510	39.0521
 2.4500	39.1014
 2.4490	39.0217
 2.4480	39.1963
 2.4470	39.1307
 2.4460	39.1051
 2.4450	39.0288
 2.4440	39.0752
 2.4430	39.0181
 2.4420	39.0370
 2.4410	39.0848
 2.4400	39.1261
 2.4390	39.0608
 2.4380	39.1618
 2.4370	39.0686
 2.4360	39.2443
 2.4350	39.1542
 2.4340	39.2668
 2.4330	39.2729
 2.4320	39.3290
 2.4310	39.2629
 2.4300	39.4314
 2.4290	39.3081
 2.4280	39.3596
 2.4270	39.4259
 2.4260	39.5299
 2.4250	39.4484
 2.4240	39.5723
 2.4230	39.5096
 2.4220	39.6020
 2.4210	39.6112
 2.4200	39.6343
 2.4190	39.5801
 2.4180	39.6450
 2.4170	39.7075
 2.4160	39.8408
 2.4150	39.7426
 2.4140	39.8148
 2.4130	39.7517
 2.4120	39.7509
 2.4110	39.8044
 2.4100	39.8060
 2.4090	39.7753
 2.4080	39.8284
 2.4070	39.8038
 2.4060	39.8258
 2.4050	39.8105
 2.4040	39.7914
 2.4030	39.7715
 2.4020	39.7986
 2.4010	39.8095
 2.4000	39.7967
 2.3990	39.7834
 2.3980	39.7527
 2.3970	39.6929
 2.3960	39.7306
 2.3950	39.6728
 2.3940	39.7358
 2.3930	39.6790
 2.3920	39.6712
 2.3910	39.6762
 2.3900	39.6700
 2.3890	39.5465
 2.3880	39.5268
 2.3870	39.5622
 2.3860	39.5452
 2.3850	39.4222
 2.3840	39.3369
 2.3830	39.3390
 2.3820	39.3801
 2.3810	39.3135
 2.3800	39.2782
 2.3790	39.1781
 2.3780	39.1663
 2.3770	39.1138
 2.3760	39.0515
 2.3750	39.0455
 2.3740	39.0357
 2.3730	38.9220
 2.3720	38.8730
 2.3710	38.8649
 2.3700	38.7979
 2.3690	38.7354
 2.3680	38.7523
 2.3670	38.7507
 2.3660	38.7070
 2.3650	38.6774
 2.3640	38.6628
 2.3630	38.6221
 2.3620	38.6454
 2.3610	38.6329
 2.3600	38.6233
 2.3590	38.6692
 2.3580	38.7004
 2.3570	38.6974
 2.3560	38.7188
 2.3550	38.7677
 2.3540	38.8253
 2.3530	38.8284
 2.3520	38.8447
 2.3510	38.9965
 2.3500	39.0875
 2.3490	39.1197
 2.3480	39.2233
 2.3470	39.3176
 2.3460	39.4200
 2.3450	39.5129
 2.3440	39.5436
 2.3430	39.6950
 2.3420	39.8112
 2.3410	39.8539
 2.3400	39.8903
 2.3390	39.9703
 2.3380	40.0145
 2.3370	40.1141
 2.3360	40.2358
 2.3350	40.3259
 2.3340	40.3734
 2.3330	40.4927
 2.3320	40.5646
 2.3310	40.5754
 2.3300	40.6147
 2.3290	40.7291
 2.3280	40.7767
 2.3270	40.8455
 2.3260	40.8512
 2.3250	40.9194
 2.3240	40.9615
 2.3230	41.0293
 2.3220	41.0839
 2.3210	41.1624
 2.3200	41.1995
 2.3190	41.2693
 2.3180	41.2896
 2.3170	41.3287
 2.3160	41.3649
 2.3150	41.4955
 2.3140	41.5170
 2.3130	41.5711
 2.3120	41.5904
 2.3110	41.6661
 2.3100	41.6696
 2.3090	41.7556
 2.3080	41.7812
 2.3070	41.8930
 2.3060	41.8815
 2.3050	42.0001
 2.3040	42.0087
 2.3030	42.1001
 2.3020	42.0795
 2.3010	42.0910
 2.3000	42.1449
 2.2990	42.2177
 2.2980	42.2531
 2.2970	42.3129
 2.2960	42.3439
 2.2950	42.3827
 2.2940	42.3843
 2.2930	42.4194
 2.2920	42.3976
 2.2910	42.4527
 2.2900	42.5070
 2.2890	42.5854
 2.2880	42.4902
 2.2870	42.5943
 2.2860	42.5048
 2.2850	42.5566
 2.2840	42.5147
 2.2830	42.6369
 2.2820	42.6092
 2.2810	42.5548
 2.2800	42.6193
 2.2790	42.6639
 2.2780	42.5737
 2.2770	42.6377
 2.2760	42.6416
 2.2750	42.6258
 2.2740	42.5561
 2.2730	42.5434
 2.2720	42.4470
 2.2710	42.5269
 2.2700	42.5335
 2.2690	42.5276
 2.2680	42.4731
 2.2670	42.4790
 2.2660	42.3779
 2.2650	42.3774
 2.2640	42.3397
 2.2630	42.3919
 2.2620	42.3170
 2.2610	42.2843
 2.2600	42.2905
 2.2590	42.2456
 2.2580	42.1781
 2.2570	42.2282
 2.2560	42.1262
 2.2550	42.1236
 2.2540	42.1494
 2.2530	42.1865
 2.2520	42.0351
 2.2510	42.1580
 2.2500	41.9861
 2.2490	42.0518
 2.2480	42.0230
 2.2470	42.0797
 2.2460	42.0602
 2.2450	42.1506
 2.2440	42.0018
 2.2430	42.1014
 2.2420	41.9046
 2.2410	42.0808
 2.2400	41.9799
 2.2390	42.0857
 2.2380	41.9193
 2.2370	41.9936
 2.2360	41.9503
 2.2350	41.9678
 2.2340	41.9599
 2.2330	42.0074
 2.2320	41.8373
 2.2310	41.9353
 2.2300	41.7785
 2.2290	41.9061
 2.2280	41.6933
 2.2270	41.7387
 2.2260	41.5892
 2.2250	41.5997
 2.2240	41.4291
 2.2230	41.4390
 2.2220	41.3753
 2.2210	41.3874
 2.2200	41.1400
 2.2190	41.2149
 2.2180	41.1123
 2.2170	41.0339
 2.2160	40.9680
 2.2150	40.9704
 2.2140	40.8440
 2.2130	40.8874
 2.2120	40.8435
 2.2110	40.8247
 2.2100	40.7501
 2.2090	40.8587
 2.2080	40.8353
 2.2070	40.8954
 2.2060	40.9077
 2.2050	41.0275
 2.2040	40.9458
 2.2030	41.0849
 2.2020	40.9794
 2.2010	41.1143
 2.2000	41.0877
 2.1990	41.1251
 2.1980	41.0423
 2.1970	41.0837
 2.1960	41.1024
 2.1950	41.1571
 2.1940	41.0644
 2.1930	41.0763
 2.1920	41.0317
 2.1910	41.0015
 2.1900	40.9796
 2.1890	41.0048
 2.1880	40.9093
 2.1870	41.0099
 2.1860	40.9359
 2.1850	41.0211
 2.1840	40.9324
 2.1830	41.0339
 2.1820	40.9559
 2.1810	41.0532
 2.1800	41.0702
 2.1790	41.1744
 2.1780	41.1049
 2.1770	41.2512
 2.1760	41.3108
 2.1750	41.3943
 2.1740	41.4012
 2.1730	41.5615
 2.1720	41.5825
 2.1710	41.8323
 2.1700	41.8087
 2.1690	42.0629
 2.1680	42.0569
 2.1670	42.2678
 2.1660	42.2632
 2.1650	42.5495
 2.1640	42.6332
 2.1630	42.7852
 2.1620	42.9518
 2.1610	43.1440
 2.1600	43.1484
 2.1590	43.3601
 2.1580	43.5597
 2.1570	43.6843
 2.1560	43.8101
 2.1550	43.9298
 2.1540	44.0038
 2.1530	44.1880
 2.1520	44.3190
 2.1510	44.3844
 2.1500	44.4846
 2.1490	44.6551
 2.1480	44.6446
 2.1470	44.7294
 2.1460	44.7139
 2.1450	44.8005
 2.1440	44.8529
 2.1430	44.9944
 2.1420	44.9558
 2.1410	44.9751
 2.1400	45.0264
 2.1390	45.0857
 2.1380	45.0184
 2.1370	45.1069
 2.1360	45.1385
 2.1350	45.1729
 2.1340	45.1173
 2.1330	45.1443
 2.1320	45.1183
 2.1310	45.1745
 2.1300	45.1061
 2.1290	45.1728
 2.1280	45.1794
 2.1270	45.1673
 2.1260	45.1300
 2.1250	45.1340
 2.1240	45.1094
 2.1230	45.0642
 2.1220	44.9927
 2.1210	45.0081
 2.1200	44.9262
 2.1190	44.9604
 2.1180	44.9428
 2.1170	44.9696
 2.1160	44.9659
 2.1150	44.9309
 2.1140	44.8892
 2.1130	44.8787
 2.1120	44.8175
 2.1110	44.8093
 2.1100	44.7454
 2.1090	44.7330
 2.1080	44.7006
 2.1070	44.7342
 2.1060	44.7012
 2.1050	44.6868
 2.1040	44.6039
 2.1030	44.6290
 2.1020	44.6438
 2.1010	44.6423
 2.1000	44.6177
 2.0990	44.5986
 2.0980	44.5945
 2.0970	44.6164
 2.0960	44.6055
 2.0950	44.6252
 2.0940	44.6251
 2.0930	44.6399
 2.0920	44.6245
 2.0910	44.6959
 2.0900	44.7025
 2.0890	44.6815
 2.0880	44.6569
 2.0870	44.6445
 2.0860	44.6552
 2.0850	44.7467
 2.0840	44.7687
 2.0830	44.7250
 2.0820	44.7747
 2.0810	44.7973
 2.0800	44.7852
 2.0790	44.7429
 2.0780	44.7526
 2.0770	44.8511
 2.0760	44.8527
 2.0750	44.8179
 2.0740	44.7900
 2.0730	44.8067
 2.0720	44.8588
 2.0710	44.8399
 2.0700	44.8499
 2.0690	44.9082
 2.0680	44.8637
 2.0670	44.8708
 2.0660	44.9136
 2.0650	44.9080
 2.0640	44.9093
 2.0630	44.9155
 2.0620	44.8931
 2.0610	44.8231
 2.0600	44.8323
 2.0590	44.8388
 2.0580	44.8780
 2.0570	44.8779
 2.0560	44.8397
 2.0550	44.8531
 2.0540	44.8998
 2.0530	44.8955
 2.0520	44.9237
 2.0510	44.8617
 2.0500	44.8425
 2.0490	44.9034
 2.0480	44.9295
 2.0470	44.9312
 2.0460	44.9248
 2.0450	44.9087
 2.0440	44.8988
 2.0430	44.8886
 2.0420	44.9139
 2.0410	44.9125
 2.0400	44.8695
 2.0390	44.8707
 2.0380	44.9125
 2.0370	44.9238
 2.0360	44.8763
 2.0350	44.8262
 2.0340	44.8228
 2.0330	44.8277
 2.0320	44.8832
 2.0310	44.9074
 2.0300	44.9551
 2.0290	44.8775
 2.0280	44.8871
 2.0270	44.8181
 2.0260	44.8759
 2.0250	44.9094
 2.0240	44.8713
 2.0230	44.8229
 2.0220	44.8823
 2.0210	44.8815
 2.0200	44.9068
 2.0190	44.8915
 2.0180	44.9139
 2.0170	44.8775
 2.0160	44.8821
 2.0150	44.8397
 2.0140	44.9049
 2.0130	44.8917
 2.0120	44.9036
 2.0110	44.8344
 2.0100	44.8617
 2.0090	44.8814
 2.0080	44.9524
 2.0070	44.8430
 2.0060	44.9006
 2.0050	44.9410
 2.0040	44.8711
 2.0030	44.8648
 2.0020	44.9596
 2.0010	44.9255
 2.0000	44.9220
 1.9990	44.8766
 1.9980	44.9464
 1.9970	44.9351
 1.9960	44.9138
 1.9950	44.8848
 1.9940	44.9090
 1.9930	44.9029
 1.9920	44.8591
 1.9910	44.8949
 1.9900	44.9137
 1.9890	44.8824
 1.9880	44.9176
 1.9870	44.9108
 1.9860	44.9231
 1.9850	44.8741
 1.9840	44.8758
 1.9830	44.7951
 1.9820	44.8692
 1.9810	44.8406
 1.9800	44.9343
 1.9790	44.8431
 1.9780	44.9191
 1.9770	44.8584
 1.9760	44.9357
 1.9750	44.8423
 1.9740	44.9274
 1.9730	44.8563
 1.9720	44.9183
 1.9710	44.9161
 1.9700	44.9717
 1.9690	44.8841
 1.9680	44.9279
 1.9670	44.8830
 1.9660	44.9507
 1.9650	44.8202
 1.9640	44.9058
 1.9630	44.9063
 1.9620	44.9293
 1.9610	44.8503
 1.9600	44.9255
 1.9590	44.8618
 1.9580	44.8671
 1.9570	44.8403
 1.9560	44.9216
 1.9550	44.8825
 1.9540	44.8948
 1.9530	44.8574
 1.9520	44.8944
 1.9510	44.9141
 1.9500	44.9507
 1.9490	44.8533
 1.9480	44.9186
 1.9470	44.8893
 1.9460	44.8754
 1.9450	44.8064
 1.9440	44.8856
 1.9430	44.8046
 1.9420	44.8933
 1.9410	44.8400
 1.9400	44.8751
 1.9390	44.8626
 1.9380	44.8608
 1.9370	44.9800
 1.9360	44.8715
 1.9350	44.8381
 1.9340	44.9895
 1.9330	44.9559
 1.9320	44.9362
 1.9310	44.9306
 1.9300	45.0013
 1.9290	44.9007
 1.9280	45.0474
 1.9270	44.9840
 1.9260	44.7949
 1.9250	44.9834
 1.9240	44.9920
 1.9230	44.9042
 1.9220	45.0530
 1.9210	45.0029
 1.9200	45.0771
 1.9190	44.9681
 1.9180	45.0602
 1.9170	44.9840
 1.9160	45.0273
 1.9150	45.0456
 1.9140	45.1306
 1.9130	45.0068
 1.9120	45.0089
 1.9110	45.0015
 1.9100	45.1233
 1.9090	45.0985
 1.9080	45.1355
 1.9070	45.0332
 1.9060	45.1611
 1.9050	45.1602
 1.9040	45.2495
 1.9030	45.1821
 1.9020	45.3166
 1.9010	45.2310
 1.9000	45.3315
 1.8990	45.3435
 1.8980	45.4008
 1.8970	45.4165
 1.8960	45.5144
 1.8950	45.4172
 1.8940	45.6091
 1.8930	45.5700
 1.8920	45.5735
 1.8910	45.6188
 1.8900	45.6840
 1.8890	45.6274
 1.8880	45.6645
 1.8870	45.7298
 1.8860	45.8048
 1.8850	45.7300
 1.8840	45.7717
 1.8830	45.7683
 1.8820	45.8604
 1.8810	45.7450
 1.8800	45.7972
 1.8790	45.7625
 1.8780	45.8708
 1.8770	45.8021
 1.8760	45.8166
 1.8750	45.7880
 1.8740	45.8539
 1.8730	45.7583
 1.8720	45.8563
 1.8710	45.8857
 1.8700	45.9487
 1.8690	45.9465
 1.8680	45.9323
 1.8670	45.9170
 1.8660	45.9798
 1.8650	46.0156
 1.8640	45.9685
 1.8630	45.9190
 1.8620	45.9800
 1.8610	45.9086
 1.8600	45.9624
 1.8590	45.9101
 1.8580	45.9946
 1.8570	45.9372
 1.8560	45.9948
 1.8550	45.9388
 1.8540	45.9567
 1.8530	45.9498
 1.8520	45.9889
 1.8510	45.8903
 1.8500	45.8887
 1.8490	45.8772
 1.8480	45.9325
 1.8470	45.8771
 1.8460	45.8970
 1.8450	45.8955
 1.8440	45.9108
 1.8430	45.8151
 1.8420	45.8432
 1.8410	45.8408
 1.8400	45.8685
 1.8390	45.8254
 1.8380	45.8235
 1.8370	45.7988
 1.8360	45.8626
 1.8350	45.8452
 1.8340	45.8820
 1.8330	45.8482
 1.8320	45.9050
 1.8310	45.9172
 1.8300	45.9386
 1.8290	45.8906
 1.8280	45.8982
 1.8270	45.8796
 1.8260	45.9255
 1.8250	45.9003
 1.8240	45.9127
 1.8230	45.8732
 1.8220	45.9346
 1.8210	45.9469
 1.8200	45.9407
 1.8190	45.9535
 1.8180	45.9617
 1.8170	45.9287
 1.8160	45.9662
 1.8150	45.9854
 1.8140	45.9571
 1.8130	45.9469
 1.8120	45.9951
 1.8110	45.9813
 1.8100	46.0081
 1.8090	46.0244
 1.8080	46.0251
 1.8070	46.0357
 1.8060	46.0458
 1.8050	46.0164
 1.8040	46.0565
 1.8030	46.0626
 1.8020	46.0703
 1.8010	46.0205
 1.8000	46.0460
 1.7990	46.0400
 1.7980	46.0562
 1.7970	46.0501
 1.7960	46.0510
 1.7950	46.0464
 1.7940	46.0379
 1.7930	46.0380
 1.7920	46.0311
 1.7910	46.0419
 1.7900	46.0709
 1.7890	46.0601
 1.7880	46.0733
 1.7870	46.1165
 1.7860	46.0910
 1.7850	46.0592
 1.7840	46.1112
 1.7830	46.0588
 1.7820	46.0505
 1.7810	46.1154
 1.7800	46.0809
 1.7790	46.0329
 1.7780	46.0388
 1.7770	46.0818
 1.7760	46.1063
 1.7750	46.0790
 1.7740	46.0818
 1.7730	46.1458
 1.7720	46.1325
 1.7710	46.1092
 1.7700	46.1099
 1.7690	46.1369
 1.7680	46.1342
 1.7670	46.1015
 1.7660	46.0493
 1.7650	46.0934
 1.7640	46.0540
 1.7630	46.0776
 1.7620	46.1306
 1.7610	46.1581
 1.7600	46.1156
 1.7590	46.1310
 1.7580	46.1306
 1.7570	46.0943
 1.7560	46.1355
 1.7550	46.1521
 1.7540	46.1007
 1.7530	46.1158
 1.7520	46.1057
 1.7510	46.1213
 1.7500	46.0780
 1.7490	46.0973
 1.7480	46.0992
 1.7470	46.1721
 1.7460	46.1582
 1.7450	46.1425
 1.7440	46.1369
 1.7430	46.1655
 1.7420	46.1306
 1.7410	46.1087
 1.7400	46.0706
 1.7390	46.1801
 1.7380	46.1882
 1.7370	46.1920
 1.7360	46.1981
 1.7350	46.1737
 1.7340	46.1743
 1.7330	46.1892
 1.7320	46.2470
 1.7310	46.2480
 1.7300	46.1857
 1.7290	46.2122
 1.7280	46.1748
 1.7270	46.2018
 1.7260	46.1754
 1.7250	46.1907
 1.7240	46.1680
 1.7230	46.1693
 1.7220	46.1380
 1.7210	46.1293
 1.7200	46.1546
 1.7190	46.1850
 1.7180	46.0829
 1.7170	46.1531
 1.7160	46.1871
 1.7150	46.1594
 1.7140	46.1708
 1.7130	46.2334
 1.7120	46.1103
 1.7110	46.1112
 1.7100	46.1184
 1.7090	46.1869
 1.7080	46.1636
 1.7070	46.2075
 1.7060	46.1320
 1.7050	46.1760
 1.7040	46.1215
 1.7030	46.1229
 1.7020	46.0355
 1.7010	46.1241
 1.7000	46.0445
 1.6990	46.1687
 1.6980	46.1221
 1.6970	46.1227
 1.6960	46.0599
 1.6950	46.1158
 1.6940	46.0695
 1.6930	46.0774
 1.6920	46.0565
 1.6910	46.0709
 1.6900	46.0400
 1.6890	46.1349
 1.6880	46.0262
 1.6870	46.0296
 1.6860	46.0859
 1.6850	46.0583
 1.6840	46.0692
 1.6830	46.1147
 1.6820	46.1060
 1.6810	46.0788
 1.6800	46.0397
 1.6790	46.0653
 1.6780	45.9668
 1.6770	46.0873
 1.6760	45.9582
 1.6750	46.0338
 1.6740	46.0487
 1.6730	46.0572
 1.6720	46.0188
 1.6710	46.0851
 1.6700	46.0240
 1.6690	46.0054
 1.6680	45.8114
 1.6670	46.1050
 1.6660	45.9834
 1.6650	46.0543
 1.6640	45.9671
 1.6630	46.0221
 1.6620	45.9598
 1.6610	45.9994
 1.6600	45.9914
 1.6590	46.0068
 1.6580	45.9853
 1.6570	46.0145
 1.6560	46.0150
 1.6550	46.0095
 1.6540	45.9505
 1.6530	45.9929
 1.6520	45.8899
 1.6510	46.0175
 1.6500	45.9025
 1.6490	46.0273
 1.6480	45.8695
 1.6470	45.9374
 1.6460	45.8937
 1.6450	45.9880
 1.6440	45.9034
 1.6430	45.9105
 1.6420	45.9275
 1.6410	45.8033
 1.6400	45.8546
 1.6390	45.8906
 1.6380	45.8326
 1.6370	45.9542
 1.6360	45.9039
 1.6350	45.9332
 1.6340	45.8502
 1.6330	45.9007
 1.6320	45.8237
 1.6310	45.8423
 1.6300	45.7906
 1.6290	45.8391
 1.6280	45.8519
 1.6270	45.8134
 1.6260	45.7465
 1.6250	45.7754
 1.6240	45.7456
 1.6230	45.8173
 1.6220	45.7942
 1.6210	45.8365
 1.6200	45.7298
 1.6190	45.8366
 1.6180	45.7909
 1.6170	45.8470
 1.6160	45.8254
 1.6150	45.7472
 1.6140	45.8123
 1.6130	45.7537
 1.6120	45.7799
 1.6110	45.7949
 1.6100	45.7684
 1.6090	45.8665
 1.6080	45.7877
 1.6070	45.8376
 1.6060	45.7231
 1.6050	45.7616
 1.6040	45.7149
 1.6030	45.7253
 1.6020	45.7388
 1.6010	45.7499
 1.6000	45.6833
 1.5990	45.7419
 1.5980	45.7123
 1.5970	45.8192
 1.5960	45.7323
 1.5950	45.7374
 1.5940	45.6830
 1.5930	45.7641
 1.5920	45.6230
 1.5910	45.7398
 1.5900	45.6440
 1.5890	45.6978
 1.5880	45.6373
 1.5870	45.7428
 1.5860	45.6467
 1.5850	45.7143
 1.5840	45.6945
 1.5830	45.7571
 1.5820	45.7167
 1.5810	45.7049
 1.5800	45.6721
 1.5790	45.7153
 1.5780	45.6431
 1.5770	45.7028
 1.5760	45.6922
 1.5750	45.7202
 1.5740	45.6647
 1.5730	45.6973
 1.5720	45.6593
 1.5710	45.7035
 1.5700	45.6621
 1.5690	45.7433
 1.5680	45.6990
 1.5670	45.6516
 1.5660	45.7085
 1.5650	45.7340
 1.5640	45.6675
 1.5630	45.7221
 1.5620	45.7010
 1.5610	45.6995
 1.5600	45.6940
 1.5590	45.7601
 1.5580	45.7175
 1.5570	45.7085
 1.5560	45.7053
 1.5550	45.8032
 1.5540	45.7667
 1.5530	45.7847
 1.5520	45.7861
 1.5510	45.7669
 1.5500	45.7381
 1.5490	45.7644
 1.5480	45.7300
 1.5470	45.7638
 1.5460	45.6947
 1.5450	45.7599
 1.5440	45.7610
 1.5430	45.7973
 1.5420	45.7259
 1.5410	45.7478
 1.5400	45.7082
 1.5390	45.7656
 1.5380	45.7301
 1.5370	45.7601
 1.5360	45.8175
 1.5350	45.7987
 1.5340	45.7162
 1.5330	45.7382
 1.5320	45.7284
 1.5310	45.7947
 1.5300	45.7464
 1.5290	45.7649
 1.5280	45.7686
 1.5270	45.7934
 1.5260	45.7650
 1.5250	45.7728
 1.5240	45.7288
 1.5230	45.7626
 1.5220	45.7385
 1.5210	45.7366
 1.5200	45.7101
 1.5190	45.6983
 1.5180	45.7618
 1.5170	45.8057
 1.5160	45.7712
 1.5150	45.7352
 1.5140	45.6873
 1.5130	45.7320
 1.5120	45.7476
 1.5110	45.7463
 1.5100	45.7016
 1.5090	45.6868
 1.5080	45.6998
 1.5070	45.6839
 1.5060	45.6650
 1.5050	45.7015
 1.5040	45.7093
 1.5030	45.6604
 1.5020	45.6087
 1.5010	45.5911
 1.5000	45.5937
 1.4990	45.6200
 1.4980	45.6251
 1.4970	45.6178
 1.4960	45.6108
 1.4950	45.5884
 1.4940	45.5753
 1.4930	45.6039
 1.4920	45.5540
 1.4910	45.5097
 1.4900	45.5268
 1.4890	45.4864
 1.4880	45.5146
 1.4870	45.5040
 1.4860	45.4813
 1.4850	45.4814
 1.4840	45.4615
 1.4830	45.4336
 1.4820	45.4648
 1.4810	45.4817
 1.4800	45.5024
 1.4790	45.4419
 1.4780	45.4418
 1.4770	45.4308
 1.4760	45.4264
 1.4750	45.4138
 1.4740	45.4137
 1.4730	45.3914
 1.4720	45.3941
 1.4710	45.3656
 1.4700	45.4033
 1.4690	45.4055
 1.4680	45.4034
 1.4670	45.3524
 1.4660	45.4080
 1.4650	45.3931
 1.4640	45.4003
 1.4630	45.4163
 1.4620	45.3740
 1.4610	45.3458
 1.4600	45.4208
 1.4590	45.3642
 1.4580	45.4103
 1.4570	45.3748
 1.4560	45.4141
 1.4550	45.3388
 1.4540	45.3960
 1.4530	45.4029
 1.4520	45.4031
 1.4510	45.2805
 1.4500	45.2975
 1.4490	45.2775
 1.4480	45.3277
 1.4470	45.2787
 1.4460	45.3236
 1.4450	45.2627
 1.4440	45.2685
 1.4430	45.2944
 1.4420	45.2791
 1.4410	45.1978
 1.4400	45.2409
 1.4390	45.2692
 1.4380	45.2361
 1.4370	45.1820
 1.4360	45.1991
 1.4350	45.1598
 1.4340	45.1842
 1.4330	45.0824
 1.4320	45.1070
 1.4310	45.0472
 1.4300	45.0828
 1.4290	45.0210
 1.4280	45.0772
 1.4270	44.9807
 1.4260	45.0133
 1.4250	44.9577
 1.4240	45.0099
 1.4230	45.0254
 1.4220	45.0479
 1.4210	44.9582
 1.4200	44.9426
 1.4190	44.8126
 1.4180	44.6927
 1.4170	44.5055
 1.4160	44.4823
 1.4150	44.3774
 1.4140	44.3551
 1.4130	44.2647
 1.4120	44.2228
 1.4110	44.2202
 1.4100	44.2236
 1.4090	44.0257
 1.4080	44.0319
 1.4070	43.8775
 1.4060	43.8306
 1.4050	43.7726
 1.4040	43.8165
 1.4030	43.7595
 1.4020	43.8807
 1.4010	43.8592
 1.4000	43.9832
 1.3990	43.9435
 1.3980	44.1423
 1.3970	44.1553
 1.3960	44.2470
 1.3950	44.2464
 1.3940	44.3798
 1.3930	44.4808
 1.3920	44.5651
 1.3910	44.5610
 1.3900	44.7389
 1.3890	44.7912
 1.3880	44.9088
 1.3870	44.9136
 1.3860	45.0633
 1.3850	45.1225
 1.3840	45.2594
 1.3830	45.2332
 1.3820	45.3335
 1.3810	45.4444
 1.3800	45.5280
 1.3790	45.4442
 1.3780	45.5746
 1.3770	45.5342
 1.3760	45.5981
 1.3750	45.5471
 1.3740	45.5344
 1.3730	45.6096
 1.3720	45.6042
 1.3710	45.5832
 1.3700	45.6496
 1.3690	45.6090
 1.3680	45.7268
 1.3670	45.5931
 1.3660	45.6918
 1.3650	45.6253
 1.3640	45.6650
 1.3630	45.6164
 1.3620	45.6506
 1.3610	45.6212
 1.3600	45.7178
 1.3590	45.6253
 1.3580	45.7073
 1.3570	45.6469
 1.3560	45.6984
 1.3550	45.5518
 1.3540	45.7004
 1.3530	45.6729
 1.3520	45.6710
 1.3510	45.6332
 1.3500	45.6693
 1.3490	45.6848
 1.3480	45.6828
 1.3470	45.5920
 1.3460	45.6771
 1.3450	45.5876
 1.3440	45.7772
 1.3430	45.6177
 1.3420	45.6918
 1.3410	45.6451
 1.3400	45.6198
 1.3390	45.5395
 1.3380	45.6487
 1.3370	45.5949
 1.3360	45.6002
 1.3350	45.5437
 1.3340	45.7289
 1.3330	45.5076
 1.3320	45.5746
 1.3310	45.5750
 1.3300	45.5297
 1.3290	45.5828
 1.3280	45.5941
 1.3270	45.5579
 1.3260	45.5976
 1.3250	45.5366
 1.3240	45.5662
 1.3230	45.5526
 1.3220	45.5737
 1.3210	45.5291
 1.3200	45.6160
 1.3190	45.5100
 1.3180	45.5629
 1.3170	45.5403
 1.3160	45.6183
 1.3150	45.5545
 1.3140	45.5396
 1.3130	45.4984
 1.3120	45.4996
 1.3110	45.5040
 1.3100	45.5564
 1.3090	45.5256
 1.3080	45.5707
 1.3070	45.5802
 1.3060	45.5240
 1.3050	45.5165
 1.3040	45.5511
 1.3030	45.5044
 1.3020	45.5429
 1.3010	45.4857
 1.3000	45.6054
 1.2990	45.5427
 1.2980	45.5677
 1.2970	45.4713
 1.2960	45.5522
 1.2950	45.4910
 1.2940	45.5646
 1.2930	45.4881
 1.2920	45.5110
 1.2910	45.4574
 1.2900	45.5047
 1.2890	45.4927
 1.2880	45.5256
 1.2870	45.4566
 1.2860	45.5464
 1.2850	45.4540
 1.2840	45.5011
 1.2830	45.5172
 1.2820	45.5296
 1.2810	45.4846
 1.2800	45.4802
 1.2790	45.4817
 1.2780	45.4774
 1.2770	45.4578
 1.2760	45.4871
 1.2750	45.4593
 1.2740	45.4553
 1.2730	45.4570
 1.2720	45.4264
 1.2710	45.3889
 1.2700	45.4598
 1.2690	45.4736
 1.2680	45.5098
 1.2670	45.3712
 1.2660	45.4277
 1.2650	45.3997
 1.2640	45.4015
 1.2630	45.3806
 1.2620	45.4055
 1.2610	45.3980
 1.2600	45.4277
 1.2590	45.3787
 1.2580	45.4261
 1.2570	45.4374
 1.2560	45.4513
 1.2550	45.4078
 1.2540	45.4301
 1.2530	45.4361
 1.2520	45.4125
 1.2510	45.3871
 1.2500	45.3890
 1.2490	45.3499
 1.2480	45.4027
 1.2470	45.3679
 1.2460	45.3900
 1.2450	45.3415
 1.2440	45.3751
 1.2430	45.3684
 1.2420	45.3882
 1.2410	45.3685
 1.2400	45.3526
 1.2390	45.3673
 1.2380	45.3548
 1.2370	45.3390
 1.2360	45.3399
 1.2350	45.3292
 1.2340	45.3238
 1.2330	45.3570
 1.2320	45.3261
 1.2310	45.3107
 1.2300	45.3207
 1.2290	45.2614
 1.2280	45.2620
 1.2270	45.2907
 1.2260	45.3164
 1.2250	45.3022
 1.2240	45.2956
 1.2230	45.3663
 1.2220	45.3547
 1.2210	45.2836
 1.2200	45.2792
 1.2190	45.2952
 1.2180	45.2731
 1.2170	45.2496
 1.2160	45.2655
 1.2150	45.2271
 1.2140	45.2034
 1.2130	45.2558
 1.2120	45.2535
 1.2110	45.2276
 1.2100	45.2677
 1.2090	45.2477
 1.2080	45.2321
 1.2070	45.2679
 1.2060	45.2952
 1.2050	45.2411
 1.2040	45.2007
 1.2030	45.2728
 1.2020	45.2120
 1.2010	45.1810
 1.2000	45.1901
 1.1990	45.2460
 1.1980	45.2381
 1.1970	45.2174
 1.1960	45.2205
 1.1950	45.2174
 1.1940	45.2042
 1.1930	45.2184
 1.1920	45.2063
 1.1910	45.1633
 1.1900	45.1990
 1.1890	45.1856
 1.1880	45.1052
 1.1870	45.2019
 1.1860	45.1636
 1.1850	45.1865
 1.1840	45.1610
 1.1830	45.1509
 1.1820	45.1464
 1.1810	45.1837
 1.1800	45.1783
 1.1790	45.1870
 1.1780	45.1262
 1.1770	45.1719
 1.1760	45.1207
 1.1750	45.0625
 1.1740	45.0278
 1.1730	45.0478
 1.1720	45.0191
 1.1710	45.0673
 1.1700	45.1084
 1.1690	45.1479
 1.1680	45.1572
 1.1670	45.1691
 1.1660	45.0815
 1.1650	45.0365
 1.1640	45.0399
 1.1630	45.0717
 1.1620	45.0638
 1.1610	45.0728
 1.1600	45.0675
 1.1590	45.0856
 1.1580	45.0419
 1.1570	45.0519
 1.1560	45.0126
 1.1550	45.0236
 1.1540	45.0261
 1.1530	45.0698
 1.1520	44.9699
 1.1510	45.0733
 1.1500	44.9583
 1.1490	44.9888
 1.1480	44.9441
 1.1470	44.9579
 1.1460	45.0057
 1.1450	45.0740
 1.1440	45.0015
 1.1430	45.0523
 1.1420	44.9623
 1.1410	44.9968
 1.1400	44.9679
 1.1390	45.0297
 1.1380	45.0491
 1.1370	44.9833
 1.1360	44.9005
 1.1350	44.8985
 1.1340	44.8863
 1.1330	44.9792
 1.1320	44.9572
 1.1310	44.9339
 1.1300	44.8526
 1.1290	44.9117
 1.1280	44.8884
 1.1270	44.9569
 1.1260	44.8755
 1.1250	44.8811
 1.1240	44.9190
 1.1230	44.9616
 1.1220	44.8480
 1.1210	44.9511
 1.1200	44.8892
 1.1190	44.8983
 1.1180	44.8017
 1.1170	44.8248
 1.1160	44.8419
 1.1150	44.9237
 1.1140	44.8563
 1.1130	44.8658
 1.1120	44.8254
 1.1110	44.8464
 1.1100	44.8250
 1.1090	44.9234
 1.1080	44.7696
 1.1070	44.8453
 1.1060	44.7141
 1.1050	44.8868
 1.1040	44.8082
 1.1030	44.8394
 1.1020	44.8404
 1.1010	44.8472
 1.1000	44.7132
 1.0990	44.7991
 1.0980	44.7324
 1.0970	44.7424
 1.0960	44.6945
 1.0950	44.7744
 1.0940	44.7272
 1.0930	44.7952
 1.0920	44.6847
 1.0910	44.7230
 1.0900	44.6238
 1.0890	44.7258
 1.0880	44.7383
 1.0870	44.7114
 1.0860	44.6944
 1.0850	44.8011
 1.0840	44.6706
 1.0830	44.7963
 1.0820	44.6689
 1.0810	44.6849
 1.0800	44.6722
 1.0790	44.6889
 1.0780	44.6696
 1.0770	44.7948
 1.0760	44.6284
 1.0750	44.6727
 1.0740	44.5944
 1.0730	44.6505
 1.0720	44.5125
 1.0710	44.7807
 1.0700	44.5226
 1.0690	44.6789
 1.0680	44.5738
 1.0670	44.6736
 1.0660	44.5793
 1.0650	44.5158
 1.0640	44.5649
 1.0630	44.5776
 1.0620	44.6119
 1.0610	44.6673
 1.0600	44.5514
 1.0590	44.5992
 1.0580	44.5864
 1.0570	44.6197
 1.0560	44.5446
 1.0550	44.6146
 1.0540	44.4681
 1.0530	44.6028
 1.0520	44.4492
 1.0510	44.5448
 1.0500	44.4213
 1.0490	44.5344
 1.0480	44.5095
 1.0470	44.5255
 1.0460	44.5113
 1.0450	44.5256
 1.0440	44.4610
 1.0430	44.5164
 1.0420	44.4115
 1.0410	44.4632
 1.0400	44.4327
 1.0390	44.4578
 1.0380	44.4202
 1.0370	44.5796
 1.0360	44.5063
 1.0350	44.4584
 1.0340	44.3572
 1.0330	44.4316
 1.0320	44.4046
 1.0310	44.4695
 1.0300	44.3928
 1.0290	44.3501
 1.0280	44.3575
 1.0270	44.4489
 1.0260	44.3622
 1.0250	44.4558
 1.0240	44.3909
 1.0230	44.4722
 1.0220	44.3602
 1.0210	44.3930
 1.0200	44.3367
 1.0190	44.4340
 1.0180	44.3092
 1.0170	44.3949
 1.0160	44.3208
 1.0150	44.4005
 1.0140	44.3195
 1.0130	44.4170
 1.0120	44.3926
 1.0110	44.3569
 1.0100	44.2737
 1.0090	44.2510
 1.0080	44.2576
 1.0070	44.3547
 1.0060	44.2950
 1.0050	44.3284
 1.0040	44.2283
 1.0030	44.2629
 1.0020	44.2429
 1.0010	44.3143
 1.0000	44.2690
 0.9990	44.2965
 0.9980	44.3141
 0.9970	44.3006
 0.9960	44.2020
 0.9950	44.2357
 0.9940	44.2305
 0.9930	44.2424
 0.9920	44.2591
 0.9910	44.2619
 0.9900	44.1936
 0.9890	44.1663
 0.9880	44.1451
 0.9870	44.2242
 0.9860	44.1957
 0.9850	44.2690
 0.9840	44.2340
 0.9830	44.1581
 0.9820	44.1732
 0.9810	44.1773
 0.9800	44.1720
 0.9790	44.2640
 0.9780	44.1976
 0.9770	44.1328
 0.9760	44.1405
 0.9750	44.1953
 0.9740	44.1801
 0.9730	44.1833
 0.9720	44.1319
 0.9710	44.1791
 0.9700	44.1195
 0.9690	44.1310
 0.9680	44.1295
 0.9670	44.1060
 0.9660	44.0702
 0.9650	44.1042
 0.9640	44.1206
 0.9630	44.0728
 0.9620	44.0672
 0.9610	44.0803
 0.9600	44.0437
 0.9590	44.0834
 0.9580	44.0380
 0.9570	44.0603
 0.9560	43.9983
 0.9550	44.0178
 0.9540	44.0549
 0.9530	44.0544
 0.9520	44.0651
 0.9510	44.0411
 0.9500	44.0166
 0.9490	44.0512
 0.9480	43.9959
 0.9470	44.0591
 0.9460	44.0704
 0.9450	43.9886
 0.9440	44.0052
 0.9430	44.0402
 0.9420	44.0031
 0.9410	44.0136
 0.9400	44.0529
 0.9390	44.0418
 0.9380	44.0286
 0.9370	44.0686
 0.9360	44.0606
 0.9350	43.9878
 0.9340	43.9984
 0.9330	44.0676
 0.9320	44.0321
 0.9310	43.9733
 0.9300	44.0047
 0.9290	44.0127
 0.9280	44.0332
 0.9270	44.0266
 0.9260	44.0026
 0.9250	44.0108
 0.9240	44.0142
 0.9230	43.9749
 0.9220	43.9412
 0.9210	43.9791
 0.9200	43.9715
 0.9190	43.9459
 0.9180	44.0168
 0.9170	44.0179
 0.9160	43.9511
 0.9150	43.8981
 0.9140	43.9348
 0.9130	44.0066
 0.9120	43.9652
 0.9110	43.9146
 0.9100	43.9111
 0.9090	43.8917
 0.9080	43.9269
 0.9070	43.9035
 0.9060	43.9488
 0.9050	43.9595
 0.9040	43.9305
 0.9030	43.8544
 0.9020	43.8317
 0.9010	43.8506
 0.9000	43.9096
 0.8990	43.9253
 0.8980	43.9389
 0.8970	43.8958
 0.8960	43.8536
 0.8950	43.8428
 0.8940	43.8999
 0.8930	43.8193
 0.8920	43.8647
 0.8910	43.8316
 0.8900	43.8713
 0.8890	43.8597
 0.8880	43.8889
 0.8870	43.8168
 0.8860	43.8910
 0.8850	43.8908
 0.8840	43.9167
 0.8830	43.9133
 0.8820	43.8530
 0.8810	43.8289
 0.8800	43.8733
 0.8790	43.8438
 0.8780	43.8624
 0.8770	43.8301
 0.8760	43.9056
 0.8750	43.8372
 0.8740	43.9007
 0.8730	43.8578
 0.8720	43.8945
 0.8710	43.8383
 0.8700	43.8750
 0.8690	43.8333
 0.8680	43.9206
 0.8670	43.8264
 0.8660	43.8729
 0.8650	43.8368
 0.8640	43.8963
 0.8630	43.8593
 0.8620	43.8913
 0.8610	43.8797
 0.8600	43.9342
 0.8590	43.9516
 0.8580	43.9593
 0.8570	44.0247
 0.8560	44.0554
 0.8550	43.9757
 0.8540	44.0425
 0.8530	44.0083
 0.8520	44.0241
 0.8510	43.9913
 0.8500	44.0219
 0.8490	44.0197
 0.8480	44.0228
 0.8470	44.0505
 0.8460	44.0603
 0.8450	44.0359
 0.8440	44.0178
 0.8430	44.0239
 0.8420	44.0446
 0.8410	44.0260
 0.8400	43.9996
 0.8390	44.0324
 0.8380	44.0296
 0.8370	44.0430
 0.8360	44.0296
 0.8350	44.0073
 0.8340	44.0260
 0.8330	44.0176
 0.8320	44.0534
 0.8310	44.0198
 0.8300	44.0050
 0.8290	44.0208
 0.8280	44.0310
 0.8270	44.0504
 0.8260	44.0512
 0.8250	44.0286
 0.8240	44.0454
 0.8230	44.0386
 0.8220	44.0515
 0.8210	44.0424
 0.8200	44.0357
 0.8190	44.0160
 0.8180	44.0325
 0.8170	44.0299
 0.8160	44.0409
 0.8150	44.0588
 0.8140	44.0451
 0.8130	44.0310
 0.8120	44.0570
 0.8110	44.0533
 0.8100	44.0746
 0.8090	44.0323
 0.8080	44.0325
 0.8070	44.0401
 0.8060	44.0395
 0.8050	44.0670
 0.8040	44.0548
 0.8030	44.0315
 0.8020	44.0265
 0.8010	44.0492
 0.8000	44.0405
 0.7990	44.0461
 0.7980	44.0456
 0.7970	44.0207
 0.7960	44.0418
 0.7950	44.0146
 0.7940	43.9878
 0.7930	43.9675
 0.7920	44.0010
 0.7910	44.0057
 0.7900	43.9839
 0.7890	43.9957
 0.7880	43.9796
 0.7870	43.9792
 0.7860	43.9576
 0.7850	43.9952
 0.7840	43.9826
 0.7830	43.9600
 0.7820	43.9714
 0.7810	43.9513
 0.7800	43.9389
 0.7790	43.9834
 0.7780	43.9314
 0.7770	43.9409
 0.7760	43.9094
 0.7750	43.9169
 0.7740	43.9138
 0.7730	43.9152
 0.7720	43.9107
 0.7710	43.9197
 0.7700	43.8883
 0.7690	43.9168
 0.7680	43.8937
 0.7670	43.8867
 0.7660	43.8889
 0.7650	43.8877
 0.7640	43.8704
 0.7630	43.8723
 0.7620	43.8642
 0.7610	43.8602
 0.7600	43.8678
 0.7590	43.8341
 0.7580	43.8294
 0.7570	43.8488
 0.7560	43.8191
 0.7550	43.8122
 0.7540	43.7999
 0.7530	43.7941
 0.7520	43.7752
 0.7510	43.7836
 0.7500	43.8110
 0.7490	43.7676
 0.7480	43.7661
 0.7470	43.7510
 0.7460	43.7418
 0.7450	43.7394
 0.7440	43.7645
 0.7430	43.7189
 0.7420	43.7197
 0.7410	43.7218
 0.7400	43.6997
 0.7390	43.6952
 0.7380	43.7059
 0.7370	43.6729
 0.7360	43.6631
 0.7350	43.6396
 0.7340	43.6538
 0.7330	43.6405
 0.7320	43.6167
 0.7310	43.6251
 0.7300	43.6128
 0.7290	43.5921
 0.7280	43.5813
 0.7270	43.5783
 0.7260	43.5573
 0.7250	43.5573
 0.7240	43.5495
 0.7230	43.5198
 0.7220	43.5132
 0.7210	43.5115
 0.7200	43.5075
 0.7190	43.4922
 0.7180	43.4773
 0.7170	43.4693
 0.7160	43.4591
 0.7150	43.4523
 0.7140	43.4267
 0.7130	43.4153
 0.7120	43.4006
 0.7110	43.3994
 0.7100	43.3833
 0.7090	43.3778
 0.7080	43.3447
 0.7070	43.3345
 0.7060	43.3332
 0.7050	43.3354
 0.7040	43.3079
 0.7030	43.2943
 0.7020	43.2824
 0.7010	43.2618
 0.7000	43.2423
 0.6990	43.2255
 0.6980	43.2257
 0.6970	43.2047
 0.6960	43.2017
 0.6950	43.1850
 0.6940	43.1812
 0.6930	43.1697
 0.6920	43.1460
 0.6910	43.1402
 0.6900	43.1367
 0.6890	43.1296
 0.6880	43.1144
 0.6870	43.0961
 0.6860	43.0763
 0.6850	43.0766
 0.6840	43.0479
 0.6830	43.0415
 0.6820	43.0397
 0.6810	43.0222
 0.6800	42.9988
 0.6790	42.9937
 0.6780	42.9775
 0.6770	42.9665
 0.6760	42.9468
 0.6750	42.9406
 0.6740	42.9276
 0.6730	42.9073
 0.6720	42.8953
 0.6710	42.8820
 0.6700	42.8777
 0.6690	42.8527
 0.6680	42.8405
 0.6670	42.8217
 0.6660	42.8055
 0.6650	42.8010
 0.6640	42.7912
 0.6630	42.7827
 0.6620	42.7675
 0.6610	42.7627
 0.6600	42.7524
 0.6590	42.7368
 0.6580	42.7340
 0.6570	42.7234
 0.6560	42.7123
 0.6550	42.6998
 0.6540	42.6749
 0.6530	42.6540
 0.6520	42.6370
 0.6510	42.6230
 0.6500	42.6116
 0.6490	42.6023
 0.6480	42.5903
 0.6470	42.5801
 0.6460	42.5736
 0.6450	42.5577
 0.6440	42.5457
 0.6430	42.5334
 0.6420	42.5209
 0.6410	42.5068
 0.6400	42.4966
 0.6390	42.4869
 0.6380	42.4677
 0.6370	42.4468
 0.6360	42.4340
 0.6350	42.4299
 0.6340	42.4196
 0.6330	42.4017
 0.6320	42.3893
 0.6310	42.3792
 0.6300	42.3648
 0.6290	42.3550
 0.6280	42.3448
 0.6270	42.3300
 0.6260	42.3103
 0.6250	42.2978
 0.6240	42.2820
 0.6230	42.2607
 0.6220	42.2464
 0.6210	42.2348
 0.6200	42.2210
 0.6190	42.2045
 0.6180	42.1953
 0.6170	42.1888
 0.6160	42.1701
 0.6150	42.1481
 0.6140	42.1324
 0.6130	42.1124
 0.6120	42.0976
 0.6110	42.0802
 0.6100	42.0579
 0.6090	42.0458
 0.6080	42.0247
 0.6070	42.0068
 0.6060	41.9892
 0.6050	41.9666
 0.6040	41.9442
 0.6030	41.9230
 0.6020	41.9051
 0.6010	41.8924
 0.6000	41.8707
 0.5990	41.8505
 0.5980	41.8353
 0.5970	41.8164
 0.5960	41.8034
 0.5950	41.7884
 0.5940	41.7621
 0.5930	41.7266
 0.5920	41.7021
 0.5910	41.6656
 0.5900	41.6417
 0.5890	41.6148
 0.5880	41.5786
 0.5870	41.5500
 0.5860	41.5151
 0.5850	41.4827
 0.5840	41.4545
 0.5830	41.4137
 0.5820	41.3690
 0.5810	41.3390
 0.5800	41.3034
 0.5790	41.2567
 0.5780	41.2153
 0.5770	41.1705
 0.5760	41.1224
 0.5750	41.0797
 0.5740	41.0360
 0.5730	40.9889
 0.5720	40.9424
 0.5710	40.8779
 0.5700	40.8247
 0.5690	40.7802
 0.5680	40.7246
 0.5670	40.6648
 0.5660	40.6129
 0.5650	40.5531
 0.5640	40.4879
 0.5630	40.4313
 0.5620	40.3591
 0.5610	40.2840
 0.5600	40.2087
 0.5590	40.1458
 0.5580	40.0696
 0.5570	39.9918
 0.5560	39.9141
 0.5550	39.8497
 0.5540	39.7710
 0.5530	39.6910
 0.5520	39.6123
 0.5510	39.5307
 0.5500	39.4461
 0.5490	39.3640
 0.5480	39.2810
 0.5470	39.1898
 0.5460	39.1061
 0.5450	39.0130
 0.5440	38.9172
 0.5430	38.8199
 0.5420	38.7284
 0.5410	38.6271
 0.5400	38.5446
 0.5390	38.4479
 0.5380	38.3473
 0.5370	38.2396
 0.5360	38.1323
 0.5350	38.0437
 0.5340	37.9357
 0.5330	37.8268
 0.5320	37.7238
 0.5310	37.6159
 0.5300	37.5013
 0.5290	37.3962
 0.5280	37.2828
 0.5270	37.1686
 0.5260	37.0608
 0.5250	36.9505
 0.5240	36.8357
 0.5230	36.7229
 0.5220	36.6159
 0.5210	36.4990
 0.5200	36.3847
 0.5190	36.2639
 0.5180	36.1502
 0.5170	36.0456
 0.5160	35.9274
 0.5150	35.8151
 0.5140	35.6845
 0.5130	35.5778
 0.5120	35.4662
 0.5110	35.3751
 0.5100	35.2632
 0.5090	35.1401
 0.5080	35.0228
 0.5070	34.9027
 0.5060	34.7799
 0.5050	34.6632
 0.5040	34.5527
 0.5030	34.4318
 0.5020	34.3138
 0.5010	34.1861
 0.5000	34.0751
 0.4990	33.9590
 0.4980	33.8295
 0.4970	33.7196
 0.4960	33.6041
 0.4950	33.4918
 0.4940	33.3623
 0.4930	33.2622
 0.4920	33.1547
 0.4910	33.0423
 0.4900	32.9509
 0.4890	32.8383
 0.4880	32.7248
 0.4870	32.6613
 0.4860	32.5680
 0.4850	32.4820
 0.4840	32.3882
 0.4830	32.3131
 0.4820	32.2330
 0.4810	32.1713
 0.4800	32.1124
 0.4790	32.0512
 0.4780	31.9970
 0.4770	31.9448
 0.4760	31.8908
 0.4750	31.8364
 0.4740	31.7888
 0.4730	31.7408
 0.4720	31.6938
 0.4710	31.6443
 0.4700	31.5937
 0.4690	31.5544
 0.4680	31.5076
 0.4670	31.4631
 0.4660	31.4239
 0.4650	31.3674
 0.4640	31.3284
 0.4630	31.2782
 0.4620	31.2382
 0.4610	31.1814
 0.4600	31.1308
 0.4590	31.0859
 0.4580	31.0298
 0.4570	30.9660
 0.4560	30.9079
 0.4550	30.8550
 0.4540	30.7810
 0.4530	30.7131
 0.4520	30.6355
 0.4510	30.5464
 0.4500	30.4496
 0.4490	30.3518
 0.4480	30.2606
 0.4470	30.1327
 0.4460	30.0160
 0.4450	29.8825
 0.4440	29.7353
 0.4430	29.5880
 0.4420	29.4311
 0.4410	29.2836
 0.4400	29.1162
 0.4390	28.9529
 0.4380	28.7793
 0.4370	28.5994
 0.4360	28.4209
 0.4350	28.2296
 0.4340	28.0369
 0.4330	27.8439
 0.4320	27.6601
 0.4310	27.4734
 0.4300	27.2848
 0.4290	27.1041
 0.4280	26.9222
 0.4270	26.7412
 0.4260	26.5688
 0.4250	26.4054
 0.4240	26.2418
 0.4230	26.0781
 0.4220	25.9223
 0.4210	25.7687
 0.4200	25.6094
 0.4190	25.4665
 0.4180	25.3247
 0.4170	25.1856
 0.4160	25.0437
 0.4150	24.9072
 0.4140	24.7688
 0.4130	24.6382
 0.4120	24.5039
 0.4110	24.3860
 0.4100	24.2574
 0.4090	24.1232
 0.4080	23.9952
 0.4070	23.8724
 0.4060	23.7387
 0.4050	23.6043
 0.4040	23.4670
 0.4030	23.3449
 0.4020	23.2095
 0.4010	23.0739
 0.4000	22.9371
