Name: Glaucophane Na_2(Mg,Fe^2+)_3Al_2Si_8O_22(OH)_2
Type: Mineral
Class: Silicate
Subclass: Inosilicate
Particle Size: Medium
Sample No.: IN-3A
Owner: JPL
Wavelength Range: VSWIR
Origin: USA, California
Collection Date: N/A
Description: Particle size was 45-125um.Collected by Ward's Original ASTER Spectral Library name was jpl.beckman.mineral.silicate.inosilicate.medium.in03a.spectrum.txt
Measurement: Hemispherical reflectance
First Column: X
Second Column: Y
X Units: Wavelength (micrometers)
Y Units:Reflectance (percent)
First X Value:  0.4000
Last X Value:  2.5000
Number of X Values: 826
Additional Information: mineral.silicate.inosilicate.medium.vswir.in-3a.jpl.beckman.ancillary.txt

 0.4000	 9.3700
 0.4010	 9.4800
 0.4020	 9.5400
 0.4030	 9.7000
 0.4040	 9.7000
 0.4050	 9.8300
 0.4060	10.0500
 0.4070	10.0500
 0.4080	10.1900
 0.4090	10.1800
 0.4100	10.3500
 0.4110	10.6000
 0.4120	10.7200
 0.4130	10.7700
 0.4140	10.8700
 0.4150	10.9300
 0.4160	11.1300
 0.4170	11.2000
 0.4180	11.3200
 0.4190	11.5400
 0.4200	11.5400
 0.4210	11.7300
 0.4220	11.7800
 0.4230	11.8900
 0.4240	12.0000
 0.4250	12.0800
 0.4260	12.0500
 0.4270	12.0600
 0.4280	12.0700
 0.4290	12.1500
 0.4300	12.1800
 0.4310	12.3300
 0.4320	12.2900
 0.4330	12.3600
 0.4340	12.3100
 0.4350	12.2300
 0.4360	12.2500
 0.4370	12.4200
 0.4380	12.3100
 0.4390	12.5700
 0.4400	12.6000
 0.4410	12.7800
 0.4420	12.8100
 0.4430	12.9100
 0.4440	13.0900
 0.4450	13.1500
 0.4460	13.0300
 0.4470	13.2100
 0.4480	13.1700
 0.4490	13.2400
 0.4500	13.2600
 0.4510	13.1400
 0.4520	13.3000
 0.4530	13.1900
 0.4540	13.2900
 0.4550	13.3900
 0.4560	13.3500
 0.4570	13.5500
 0.4580	13.6400
 0.4590	13.5500
 0.4600	13.6700
 0.4610	13.6300
 0.4620	13.7500
 0.4630	13.8200
 0.4640	13.7500
 0.4650	13.7700
 0.4660	13.7400
 0.4670	13.7800
 0.4680	13.8000
 0.4690	13.8300
 0.4700	13.8000
 0.4710	13.8000
 0.4720	13.7700
 0.4730	13.8600
 0.4740	13.8200
 0.4750	13.9200
 0.4760	13.9200
 0.4770	14.0300
 0.4780	13.9600
 0.4790	13.9600
 0.4800	14.0300
 0.4810	14.0700
 0.4820	14.1100
 0.4830	14.1500
 0.4840	14.1200
 0.4850	14.0900
 0.4860	14.1900
 0.4870	14.0700
 0.4880	14.2400
 0.4890	14.0700
 0.4900	14.1200
 0.4910	14.2300
 0.4920	14.1500
 0.4930	14.1700
 0.4940	14.3300
 0.4950	14.2500
 0.4960	14.2700
 0.4970	14.3000
 0.4980	14.2500
 0.4990	14.3000
 0.5000	14.3400
 0.5010	14.3900
 0.5020	14.2300
 0.5030	14.2100
 0.5040	14.2400
 0.5050	14.2600
 0.5060	14.2100
 0.5070	14.2200
 0.5080	14.1600
 0.5090	14.1700
 0.5100	14.1800
 0.5110	14.2600
 0.5120	14.2100
 0.5130	14.2200
 0.5140	14.2700
 0.5150	14.1100
 0.5160	14.0800
 0.5170	14.2100
 0.5180	14.1400
 0.5190	14.1800
 0.5200	14.1500
 0.5210	14.1100
 0.5220	14.2300
 0.5230	14.0800
 0.5240	14.1500
 0.5250	14.1200
 0.5260	14.1500
 0.5270	14.1000
 0.5280	14.0900
 0.5290	14.0400
 0.5300	14.1000
 0.5310	14.0600
 0.5320	14.1000
 0.5330	14.0200
 0.5340	13.9700
 0.5350	14.0800
 0.5360	13.9100
 0.5370	14.0400
 0.5380	14.0800
 0.5390	14.0900
 0.5400	14.0800
 0.5410	13.9400
 0.5420	13.9100
 0.5430	13.9500
 0.5440	13.8100
 0.5450	13.9000
 0.5460	13.9300
 0.5470	13.9000
 0.5480	13.8700
 0.5490	13.8500
 0.5500	13.9500
 0.5510	14.0000
 0.5520	14.0100
 0.5530	14.0000
 0.5540	13.9000
 0.5550	13.7800
 0.5560	13.9000
 0.5570	13.8300
 0.5580	13.9200
 0.5590	13.8400
 0.5600	13.8300
 0.5610	13.8400
 0.5620	14.0600
 0.5630	13.8500
 0.5640	13.9500
 0.5650	13.9000
 0.5660	13.8000
 0.5670	13.8700
 0.5680	13.7500
 0.5690	13.8400
 0.5700	14.0000
 0.5710	13.8300
 0.5720	13.9000
 0.5730	13.7300
 0.5740	13.7700
 0.5750	13.8800
 0.5760	13.6400
 0.5770	13.7400
 0.5780	13.7400
 0.5790	13.5400
 0.5800	13.7000
 0.5810	13.6100
 0.5820	13.6500
 0.5830	13.7600
 0.5840	13.5800
 0.5850	13.6300
 0.5860	13.4800
 0.5870	13.5100
 0.5880	13.6400
 0.5890	13.4700
 0.5900	13.5200
 0.5910	13.5600
 0.5920	13.4500
 0.5930	13.5900
 0.5940	13.4200
 0.5950	13.4600
 0.5960	13.5800
 0.5970	13.4400
 0.5980	13.4700
 0.5990	13.3300
 0.6000	13.3800
 0.6010	13.5400
 0.6020	13.4100
 0.6030	13.4800
 0.6040	13.4500
 0.6050	13.2600
 0.6060	13.4300
 0.6070	13.3000
 0.6080	13.3500
 0.6090	13.4500
 0.6100	13.3000
 0.6110	13.3100
 0.6120	13.3100
 0.6130	13.2600
 0.6140	13.3100
 0.6150	13.1700
 0.6160	13.3100
 0.6170	13.2000
 0.6180	13.1100
 0.6190	13.3000
 0.6200	13.1600
 0.6210	13.1900
 0.6220	13.3400
 0.6230	13.1800
 0.6240	13.2600
 0.6250	13.1200
 0.6260	13.1700
 0.6270	13.2600
 0.6280	13.0700
 0.6290	13.1600
 0.6300	13.1100
 0.6310	13.1000
 0.6320	13.1500
 0.6330	13.1100
 0.6340	13.2000
 0.6350	13.1500
 0.6360	13.0500
 0.6370	13.0900
 0.6380	13.0900
 0.6390	13.1400
 0.6400	13.2600
 0.6410	13.1100
 0.6420	13.1200
 0.6430	13.0100
 0.6440	13.1100
 0.6450	13.2600
 0.6460	13.0100
 0.6470	13.1500
 0.6480	13.1500
 0.6490	13.0900
 0.6500	13.2000
 0.6510	13.0600
 0.6520	13.1900
 0.6530	13.3100
 0.6540	13.1800
 0.6550	13.1400
 0.6560	13.1400
 0.6570	13.1800
 0.6580	13.3300
 0.6590	13.2600
 0.6600	13.2100
 0.6610	13.1500
 0.6620	13.2100
 0.6630	13.3600
 0.6640	13.1900
 0.6650	13.3200
 0.6660	13.3300
 0.6670	13.2300
 0.6680	13.2500
 0.6690	13.2800
 0.6700	13.3300
 0.6710	13.4200
 0.6720	13.3100
 0.6730	13.4200
 0.6740	13.3200
 0.6750	13.4300
 0.6760	13.5600
 0.6770	13.5000
 0.6780	13.5000
 0.6790	13.4500
 0.6800	13.4700
 0.6810	13.6400
 0.6820	13.4500
 0.6830	13.6000
 0.6840	13.6400
 0.6850	13.5900
 0.6860	13.7300
 0.6870	13.5300
 0.6880	13.6900
 0.6890	13.8800
 0.6900	13.7000
 0.6910	13.7900
 0.6920	13.6900
 0.6930	13.8100
 0.6940	13.9000
 0.6950	13.7100
 0.6960	13.8700
 0.6970	13.8600
 0.6980	13.8500
 0.6990	13.9300
 0.7000	13.8600
 0.7010	13.9300
 0.7020	14.0100
 0.7030	13.9600
 0.7040	14.0800
 0.7050	14.1500
 0.7060	14.0900
 0.7070	14.3900
 0.7080	14.1400
 0.7090	14.2100
 0.7100	14.2300
 0.7110	14.2500
 0.7120	14.4200
 0.7130	14.3500
 0.7140	14.3600
 0.7150	14.4400
 0.7160	14.4900
 0.7170	14.5900
 0.7180	14.4600
 0.7190	14.5500
 0.7200	14.6800
 0.7210	14.5600
 0.7220	14.7600
 0.7230	14.7500
 0.7240	14.7200
 0.7250	14.8800
 0.7260	14.7300
 0.7270	14.8500
 0.7280	14.9200
 0.7290	14.9400
 0.7300	15.0500
 0.7310	15.0100
 0.7320	14.9100
 0.7330	15.1000
 0.7340	15.2100
 0.7350	15.1400
 0.7360	15.2000
 0.7370	15.2600
 0.7380	15.2600
 0.7390	15.2900
 0.7400	15.4000
 0.7410	15.4300
 0.7420	15.4400
 0.7430	15.6000
 0.7440	15.5500
 0.7450	15.5600
 0.7460	15.6700
 0.7470	15.6300
 0.7480	15.8000
 0.7490	15.6100
 0.7500	15.7700
 0.7510	15.7600
 0.7520	15.8600
 0.7530	15.9600
 0.7540	15.8800
 0.7550	15.8500
 0.7560	15.9900
 0.7570	16.1500
 0.7580	16.0800
 0.7590	16.0700
 0.7600	16.0400
 0.7610	16.1700
 0.7620	16.1400
 0.7630	16.1200
 0.7640	16.2400
 0.7650	16.1900
 0.7660	16.3000
 0.7670	16.2100
 0.7680	16.1900
 0.7690	16.3100
 0.7700	16.3900
 0.7710	16.3200
 0.7720	16.4000
 0.7730	16.3500
 0.7740	16.4900
 0.7750	16.4000
 0.7760	16.4600
 0.7770	16.5100
 0.7780	16.4800
 0.7790	16.6100
 0.7800	16.4900
 0.7810	16.4700
 0.7820	16.5000
 0.7830	16.5900
 0.7840	16.5900
 0.7850	16.6200
 0.7860	16.4900
 0.7870	16.6500
 0.7880	16.5200
 0.7890	16.6300
 0.7900	16.6100
 0.7910	16.5600
 0.7920	16.7100
 0.7930	16.6200
 0.7940	16.6000
 0.7950	16.6900
 0.7960	16.8400
 0.7970	16.8100
 0.7980	16.9100
 0.7990	16.7900
 0.8000	16.9400
 0.8040	16.9600
 0.8080	17.0200
 0.8120	17.0000
 0.8160	17.1700
 0.8200	17.2100
 0.8240	17.1600
 0.8280	17.1900
 0.8320	17.2100
 0.8360	17.2300
 0.8400	17.2600
 0.8440	17.3400
 0.8480	17.4300
 0.8520	17.5300
 0.8560	17.4900
 0.8600	17.5500
 0.8640	17.6900
 0.8680	17.7900
 0.8720	17.8700
 0.8760	18.0100
 0.8800	18.1700
 0.8840	18.2300
 0.8880	18.3100
 0.8920	18.3600
 0.8960	18.5700
 0.9000	18.6300
 0.9040	18.8500
 0.9080	18.9000
 0.9120	19.0200
 0.9160	19.1100
 0.9200	19.2300
 0.9240	19.2700
 0.9280	19.4300
 0.9320	19.5900
 0.9360	19.7200
 0.9400	19.7900
 0.9440	19.8800
 0.9480	19.8600
 0.9520	20.0000
 0.9560	20.1000
 0.9600	20.2400
 0.9640	20.3000
 0.9680	20.4400
 0.9720	20.5200
 0.9760	20.5200
 0.9800	20.6100
 0.9840	20.5600
 0.9880	20.6400
 0.9920	20.7900
 0.9960	20.8300
 1.0000	20.9200
 1.0040	20.9800
 1.0080	21.0900
 1.0120	21.2400
 1.0160	21.3700
 1.0200	21.4900
 1.0240	21.5500
 1.0280	21.6700
 1.0320	21.7500
 1.0360	21.8800
 1.0400	21.9600
 1.0440	22.1500
 1.0480	22.2700
 1.0520	22.5300
 1.0560	22.6800
 1.0600	22.8000
 1.0640	23.0000
 1.0680	23.1000
 1.0720	23.3000
 1.0760	23.5000
 1.0800	23.7300
 1.0840	23.9900
 1.0880	24.1300
 1.0920	24.4200
 1.0960	24.6200
 1.1000	24.7500
 1.1040	25.0200
 1.1080	25.2200
 1.1120	25.4800
 1.1160	25.7000
 1.1200	26.0600
 1.1240	26.3300
 1.1280	26.5600
 1.1320	26.8900
 1.1360	27.1200
 1.1400	27.2900
 1.1440	27.5300
 1.1480	27.7900
 1.1520	28.1300
 1.1560	28.4700
 1.1600	28.7200
 1.1640	28.9900
 1.1680	29.2000
 1.1720	29.4500
 1.1760	29.6800
 1.1800	30.0100
 1.1840	30.2500
 1.1880	30.5600
 1.1920	30.8800
 1.1960	31.1700
 1.2000	31.4500
 1.2040	31.6500
 1.2080	31.9100
 1.2120	32.1600
 1.2160	32.3900
 1.2200	32.7300
 1.2240	32.9900
 1.2280	33.3000
 1.2320	33.6100
 1.2360	33.7800
 1.2400	33.9500
 1.2440	34.2400
 1.2480	34.4600
 1.2520	34.6500
 1.2560	34.8600
 1.2600	35.1800
 1.2640	35.4000
 1.2680	35.6100
 1.2720	35.8900
 1.2760	36.0800
 1.2800	36.2300
 1.2840	36.4700
 1.2880	36.6900
 1.2920	36.8800
 1.2960	37.1300
 1.3000	37.4300
 1.3040	37.5600
 1.3080	37.7900
 1.3120	37.9400
 1.3160	38.1300
 1.3200	38.3700
 1.3240	38.6500
 1.3280	38.7500
 1.3320	38.9800
 1.3360	39.1700
 1.3400	39.2900
 1.3440	39.4500
 1.3480	39.6900
 1.3520	39.9400
 1.3560	40.0900
 1.3600	40.2600
 1.3640	40.4000
 1.3680	40.5000
 1.3720	40.6900
 1.3760	40.7500
 1.3800	40.7700
 1.3840	40.5700
 1.3880	39.8000
 1.3920	38.2600
 1.3960	36.6600
 1.4000	35.7900
 1.4040	36.4000
 1.4080	38.2300
 1.4120	39.9700
 1.4160	41.2500
 1.4200	42.0000
 1.4240	42.2000
 1.4280	42.3200
 1.4320	42.4200
 1.4360	42.4200
 1.4400	42.5100
 1.4440	42.6200
 1.4480	42.7500
 1.4520	42.8000
 1.4560	42.9600
 1.4600	43.2000
 1.4640	43.3600
 1.4680	43.6100
 1.4720	43.7200
 1.4760	43.8700
 1.4800	44.0300
 1.4840	44.1900
 1.4880	44.3800
 1.4920	44.4600
 1.4960	44.6700
 1.5000	44.7500
 1.5040	44.8300
 1.5080	44.9300
 1.5120	45.0700
 1.5160	45.3300
 1.5200	45.4700
 1.5240	45.5600
 1.5280	45.6400
 1.5320	45.7300
 1.5360	45.8200
 1.5400	45.8700
 1.5440	45.9900
 1.5480	46.1400
 1.5520	46.3400
 1.5560	46.5700
 1.5600	46.7700
 1.5640	46.9500
 1.5680	47.0600
 1.5720	47.1800
 1.5760	47.2900
 1.5800	47.4700
 1.5840	47.6100
 1.5880	47.7300
 1.5920	47.9800
 1.5960	48.1600
 1.6000	48.3000
 1.6040	48.3800
 1.6080	48.5500
 1.6120	48.6700
 1.6160	48.7700
 1.6200	48.9200
 1.6240	48.9100
 1.6280	49.0200
 1.6320	49.1400
 1.6360	49.3400
 1.6400	49.3900
 1.6440	49.5600
 1.6480	49.7800
 1.6520	49.8100
 1.6560	49.9300
 1.6600	50.0600
 1.6640	50.0200
 1.6680	50.1300
 1.6720	50.3000
 1.6760	50.4400
 1.6800	50.5400
 1.6840	50.6500
 1.6880	50.7500
 1.6920	50.8600
 1.6960	50.8800
 1.7000	50.9800
 1.7040	51.2300
 1.7080	51.2700
 1.7120	51.4100
 1.7160	51.5400
 1.7200	51.6700
 1.7240	51.7600
 1.7280	51.8500
 1.7320	51.8800
 1.7360	51.9200
 1.7400	51.9800
 1.7440	52.0500
 1.7480	52.2500
 1.7520	52.3300
 1.7560	52.5200
 1.7600	52.5400
 1.7640	52.6800
 1.7680	52.6700
 1.7720	52.6800
 1.7760	52.8700
 1.7800	52.9500
 1.7840	53.0700
 1.7880	53.2200
 1.7920	53.2900
 1.7960	53.3000
 1.8000	53.3500
 1.8040	53.4000
 1.8080	53.4200
 1.8120	53.5200
 1.8160	53.5500
 1.8200	53.6400
 1.8240	53.6900
 1.8280	53.7800
 1.8320	53.7700
 1.8360	53.8700
 1.8400	53.9200
 1.8440	53.9200
 1.8480	53.9300
 1.8520	54.0300
 1.8560	54.0600
 1.8600	53.9700
 1.8640	54.0400
 1.8680	53.9800
 1.8720	53.9100
 1.8760	53.8500
 1.8800	53.7700
 1.8840	53.6800
 1.8880	53.5700
 1.8920	53.5300
 1.8960	53.3700
 1.9000	53.2400
 1.9040	53.0800
 1.9080	52.9100
 1.9120	52.7000
 1.9160	52.5500
 1.9200	52.4700
 1.9240	52.4000
 1.9280	52.2800
 1.9320	52.1800
 1.9360	52.0100
 1.9400	52.0300
 1.9440	52.0300
 1.9480	52.1100
 1.9520	52.2600
 1.9560	52.4400
 1.9600	52.6000
 1.9640	52.8100
 1.9680	52.9200
 1.9720	53.0700
 1.9760	53.0600
 1.9800	53.1300
 1.9840	53.1900
 1.9880	53.2900
 1.9920	53.3700
 1.9960	53.5000
 2.0000	53.5900
 2.0040	53.7100
 2.0080	53.7300
 2.0120	53.8900
 2.0160	54.0700
 2.0200	54.1600
 2.0240	54.3500
 2.0280	54.4000
 2.0320	54.6100
 2.0360	54.8000
 2.0400	54.9700
 2.0440	55.0700
 2.0480	55.1200
 2.0520	55.2800
 2.0560	55.3800
 2.0600	55.3700
 2.0640	55.4700
 2.0680	55.4500
 2.0720	55.6000
 2.0760	55.6700
 2.0800	55.7100
 2.0840	55.7700
 2.0880	55.8200
 2.0920	55.7400
 2.0960	55.7100
 2.1000	55.6900
 2.1040	55.6300
 2.1080	55.4600
 2.1120	55.4500
 2.1160	55.3800
 2.1200	55.3500
 2.1240	55.3500
 2.1280	55.2500
 2.1320	55.1900
 2.1360	55.0400
 2.1400	54.9200
 2.1440	54.7500
 2.1480	54.5000
 2.1520	54.2800
 2.1560	54.0000
 2.1600	53.6900
 2.1640	53.3800
 2.1680	53.2300
 2.1720	52.9800
 2.1760	52.8600
 2.1800	52.6300
 2.1840	52.5600
 2.1880	52.3000
 2.1920	52.1300
 2.1960	51.9400
 2.2000	51.7800
 2.2040	51.4800
 2.2080	51.2900
 2.2120	50.8900
 2.2160	50.4400
 2.2200	49.9000
 2.2240	49.3300
 2.2280	48.6000
 2.2320	47.7200
 2.2360	46.7100
 2.2400	45.6700
 2.2440	44.8500
 2.2480	44.0700
 2.2520	43.3900
 2.2560	42.8600
 2.2600	42.4100
 2.2640	42.0100
 2.2680	41.4800
 2.2720	40.9200
 2.2760	40.1900
 2.2800	39.2000
 2.2840	38.1400
 2.2880	36.9000
 2.2920	35.6100
 2.2960	34.2600
 2.3000	33.1700
 2.3040	32.7000
 2.3080	31.3300
 2.3120	30.9800
 2.3160	30.7900
 2.3200	30.8600
 2.3240	31.1300
 2.3280	31.6100
 2.3320	32.2100
 2.3360	32.9900
 2.3400	33.8200
 2.3440	34.7700
 2.3480	35.7800
 2.3520	36.6400
 2.3560	37.4900
 2.3600	38.1700
 2.3640	38.7600
 2.3680	39.1100
 2.3720	39.4200
 2.3760	39.6900
 2.3800	39.8900
 2.3840	40.1900
 2.3880	40.5100
 2.3920	40.8300
 2.3960	41.2000
 2.4000	41.6200
 2.4040	42.1200
 2.4080	42.5300
 2.4120	42.8900
 2.4160	43.2500
 2.4200	43.4900
 2.4240	43.6200
 2.4280	43.7100
 2.4320	43.6500
 2.4360	43.5600
 2.4400	43.3600
 2.4440	43.1100
 2.4480	42.9100
 2.4520	42.6100
 2.4560	42.1900
 2.4600	41.8700
 2.4640	41.5400
 2.4680	41.2700
 2.4720	41.1600
 2.4760	40.8300
 2.4800	40.7800
 2.4840	40.6200
 2.4880	40.5500
 2.4920	40.4900
 2.4960	40.5500
 2.5000	40.5600
