Name: Sepiolite Mg_4Si_6O_15(OH)_2.6H_2O
Type: Mineral
Class: Silicate
Subclass: Phyllosilicate
Particle Size: Medium
Sample No.: PS-5A
Owner: JPL
Wavelength Range: VSWIR
Origin: USA, Nevada, Two Crows.
Collection Date: N/A
Description: Particle size was 45-125um.Collected by:  Clay Mineral Society Original ASTER Spectral Library name was jpl.perkin.mineral.silicate.phyllosilicate.medium.ps05a.spectrum.txt
Measurement: Hemispherical reflectance
First Column: X
Second Column: Y
X Units: Wavelength (micrometers)
Y Units:Reflectance (percent)
First X Value:  2.5000
Last X Value:  0.4000
Number of X Values: 2101
Additional Information: mineral.silicate.phyllosilicate.medium.vswir.ps-5a.jpl.perkin.ancillary.txt

 2.5000	32.0954
 2.4990	31.7784
 2.4980	32.3315
 2.4970	32.4172
 2.4960	32.1889
 2.4950	32.4059
 2.4940	32.5599
 2.4930	32.6522
 2.4920	32.9320
 2.4910	32.7782
 2.4900	33.1505
 2.4890	32.9687
 2.4880	33.2876
 2.4870	33.1385
 2.4860	33.5766
 2.4850	33.3734
 2.4840	33.7331
 2.4830	33.7053
 2.4820	34.0168
 2.4810	33.9538
 2.4800	34.0168
 2.4790	34.1892
 2.4780	34.3014
 2.4770	34.4197
 2.4760	34.5557
 2.4750	34.5128
 2.4740	34.8546
 2.4730	34.8302
 2.4720	35.0047
 2.4710	35.1106
 2.4700	35.2320
 2.4690	35.2439
 2.4680	35.4030
 2.4670	35.5286
 2.4660	35.7103
 2.4650	35.6873
 2.4640	35.8693
 2.4630	35.8838
 2.4620	36.0719
 2.4610	36.1436
 2.4600	36.2816
 2.4590	36.2096
 2.4580	36.5007
 2.4570	36.4801
 2.4560	36.7067
 2.4550	36.6240
 2.4540	36.7077
 2.4530	36.8174
 2.4520	36.8867
 2.4510	36.8906
 2.4500	37.0490
 2.4490	37.0344
 2.4480	37.2055
 2.4470	37.2247
 2.4460	37.3246
 2.4450	37.2438
 2.4440	37.4361
 2.4430	37.3977
 2.4420	37.6310
 2.4410	37.5683
 2.4400	37.7369
 2.4390	37.6532
 2.4380	37.7723
 2.4370	37.7528
 2.4360	37.8838
 2.4350	37.8255
 2.4340	37.9973
 2.4330	37.9573
 2.4320	38.0444
 2.4310	38.0736
 2.4300	38.1371
 2.4290	38.1425
 2.4280	38.3448
 2.4270	38.4124
 2.4260	38.4799
 2.4250	38.5144
 2.4240	38.5356
 2.4230	38.6130
 2.4220	38.8174
 2.4210	38.8178
 2.4200	38.8395
 2.4190	38.8998
 2.4180	39.0273
 2.4170	38.9262
 2.4160	39.0050
 2.4150	39.1348
 2.4140	39.2825
 2.4130	39.2369
 2.4120	39.3845
 2.4110	39.3829
 2.4100	39.5351
 2.4090	39.5683
 2.4080	39.6809
 2.4070	39.7351
 2.4060	39.8063
 2.4050	39.8471
 2.4040	39.9293
 2.4030	39.9362
 2.4020	40.0360
 2.4010	40.0748
 2.4000	40.2044
 2.3990	40.1376
 2.3980	40.2409
 2.3970	40.2633
 2.3960	40.3479
 2.3950	40.3576
 2.3940	40.4109
 2.3930	40.3803
 2.3920	40.5102
 2.3910	40.5169
 2.3900	40.6079
 2.3890	40.6437
 2.3880	40.6992
 2.3870	40.7895
 2.3860	40.9448
 2.3850	41.0509
 2.3840	41.2034
 2.3830	41.3798
 2.3820	41.5293
 2.3810	41.7134
 2.3800	41.9682
 2.3790	42.1362
 2.3780	42.3718
 2.3770	42.5575
 2.3760	42.7780
 2.3750	43.0842
 2.3740	43.3472
 2.3730	43.5819
 2.3720	43.8397
 2.3710	44.1221
 2.3700	44.3292
 2.3690	44.5129
 2.3680	44.8264
 2.3670	45.0623
 2.3660	45.2602
 2.3650	45.4411
 2.3640	45.6283
 2.3630	45.8554
 2.3620	46.0563
 2.3610	46.2150
 2.3600	46.3860
 2.3590	46.5470
 2.3580	46.7965
 2.3570	46.9477
 2.3560	47.0623
 2.3550	47.3074
 2.3540	47.4676
 2.3530	47.5332
 2.3520	47.6654
 2.3510	47.8540
 2.3500	48.0498
 2.3490	48.2421
 2.3480	48.3482
 2.3470	48.4846
 2.3460	48.6337
 2.3450	48.8030
 2.3440	48.9588
 2.3430	49.0585
 2.3420	49.1323
 2.3410	49.2805
 2.3400	49.3634
 2.3390	49.3826
 2.3380	49.4320
 2.3370	49.5119
 2.3360	49.5004
 2.3350	49.4984
 2.3340	49.4832
 2.3330	49.4501
 2.3320	49.3588
 2.3310	49.2423
 2.3300	49.1652
 2.3290	49.0462
 2.3280	48.8373
 2.3270	48.6499
 2.3260	48.4520
 2.3250	48.2710
 2.3240	48.0018
 2.3230	47.7982
 2.3220	47.5738
 2.3210	47.4063
 2.3200	47.1645
 2.3190	46.9568
 2.3180	46.7429
 2.3170	46.6417
 2.3160	46.4702
 2.3150	46.3755
 2.3140	46.2983
 2.3130	46.3056
 2.3120	46.2826
 2.3110	46.3474
 2.3100	46.4124
 2.3090	46.5366
 2.3080	46.6034
 2.3070	46.8177
 2.3060	47.0094
 2.3050	47.1776
 2.3040	47.4603
 2.3030	47.6952
 2.3020	47.9502
 2.3010	48.2279
 2.3000	48.4224
 2.2990	48.7410
 2.2980	48.9887
 2.2970	49.1781
 2.2960	49.3255
 2.2950	49.5626
 2.2940	49.7739
 2.2930	49.9215
 2.2920	50.1000
 2.2910	50.3128
 2.2900	50.4675
 2.2890	50.7001
 2.2880	50.8590
 2.2870	51.1500
 2.2860	51.3658
 2.2850	51.6254
 2.2840	51.7964
 2.2830	52.0776
 2.2820	52.3160
 2.2810	52.5843
 2.2800	52.8789
 2.2790	53.2156
 2.2780	53.4765
 2.2770	53.7194
 2.2760	53.8980
 2.2750	54.1674
 2.2740	54.3783
 2.2730	54.5975
 2.2720	54.7787
 2.2710	54.9212
 2.2700	55.1021
 2.2690	55.3188
 2.2680	55.4109
 2.2670	55.4481
 2.2660	55.6453
 2.2650	55.7900
 2.2640	55.8854
 2.2630	56.0355
 2.2620	56.1186
 2.2610	56.2205
 2.2600	56.2812
 2.2590	56.3582
 2.2580	56.4539
 2.2570	56.6116
 2.2560	56.5837
 2.2550	56.7272
 2.2540	56.7852
 2.2530	56.8520
 2.2520	56.9222
 2.2510	57.1203
 2.2500	57.1411
 2.2490	57.2342
 2.2480	57.2309
 2.2470	57.2653
 2.2460	57.3525
 2.2450	57.4023
 2.2440	57.3910
 2.2430	57.4876
 2.2420	57.4364
 2.2410	57.5564
 2.2400	57.5198
 2.2390	57.6406
 2.2380	57.6558
 2.2370	57.6491
 2.2360	57.7304
 2.2350	57.7005
 2.2340	57.6576
 2.2330	57.8301
 2.2320	57.7847
 2.2310	57.8631
 2.2300	57.8103
 2.2290	57.8652
 2.2280	57.8741
 2.2270	57.9341
 2.2260	57.9611
 2.2250	58.0539
 2.2240	58.0927
 2.2230	58.1207
 2.2220	58.1022
 2.2210	58.2042
 2.2200	58.1673
 2.2190	58.3214
 2.2180	58.2508
 2.2170	58.4651
 2.2160	58.4776
 2.2150	58.5166
 2.2140	58.5462
 2.2130	58.6079
 2.2120	58.6332
 2.2110	58.6525
 2.2100	58.7883
 2.2090	58.8695
 2.2080	58.9316
 2.2070	58.9932
 2.2060	59.0496
 2.2050	59.1567
 2.2040	59.1733
 2.2030	59.3040
 2.2020	59.2382
 2.2010	59.3876
 2.2000	59.3518
 2.1990	59.4150
 2.1980	59.4913
 2.1970	59.5374
 2.1960	59.5537
 2.1950	59.7162
 2.1940	59.6494
 2.1930	59.6271
 2.1920	59.6345
 2.1910	59.6896
 2.1900	59.7430
 2.1890	59.8134
 2.1880	59.8046
 2.1870	59.8350
 2.1860	59.8496
 2.1850	59.8514
 2.1840	59.8761
 2.1830	59.9422
 2.1820	59.9582
 2.1810	60.0703
 2.1800	60.0962
 2.1790	60.1484
 2.1780	60.1440
 2.1770	60.1986
 2.1760	60.1791
 2.1750	60.2420
 2.1740	60.1889
 2.1730	60.2695
 2.1720	60.3497
 2.1710	60.3756
 2.1700	60.3636
 2.1690	60.4044
 2.1680	60.4117
 2.1670	60.5248
 2.1660	60.4019
 2.1650	60.5540
 2.1640	60.4415
 2.1630	60.5368
 2.1620	60.4532
 2.1610	60.5385
 2.1600	60.6029
 2.1590	60.6169
 2.1580	60.5323
 2.1570	60.5258
 2.1560	60.5526
 2.1550	60.6820
 2.1540	60.6045
 2.1530	60.6376
 2.1520	60.6410
 2.1510	60.6447
 2.1500	60.6270
 2.1490	60.5981
 2.1480	60.5726
 2.1470	60.6404
 2.1460	60.6287
 2.1450	60.6634
 2.1440	60.6317
 2.1430	60.6646
 2.1420	60.6224
 2.1410	60.6528
 2.1400	60.6595
 2.1390	60.6472
 2.1380	60.6611
 2.1370	60.6583
 2.1360	60.6393
 2.1350	60.6951
 2.1340	60.6162
 2.1330	60.6217
 2.1320	60.6256
 2.1310	60.6063
 2.1300	60.5794
 2.1290	60.4866
 2.1280	60.3747
 2.1270	60.4063
 2.1260	60.3194
 2.1250	60.2744
 2.1240	60.2599
 2.1230	60.1840
 2.1220	60.0845
 2.1210	60.0970
 2.1200	60.0007
 2.1190	59.9186
 2.1180	59.8737
 2.1170	59.8393
 2.1160	59.7662
 2.1150	59.6789
 2.1140	59.6584
 2.1130	59.6148
 2.1120	59.5106
 2.1110	59.4826
 2.1100	59.3994
 2.1090	59.3418
 2.1080	59.2743
 2.1070	59.2371
 2.1060	59.1324
 2.1050	59.0617
 2.1040	58.9659
 2.1030	58.8944
 2.1020	58.7910
 2.1010	58.7677
 2.1000	58.6636
 2.0990	58.6157
 2.0980	58.5606
 2.0970	58.4874
 2.0960	58.4371
 2.0950	58.4547
 2.0940	58.3861
 2.0930	58.3251
 2.0920	58.3002
 2.0910	58.2902
 2.0900	58.3078
 2.0890	58.2989
 2.0880	58.2344
 2.0870	58.1854
 2.0860	58.1324
 2.0850	58.1136
 2.0840	58.0797
 2.0830	58.0660
 2.0820	58.0160
 2.0810	57.9511
 2.0800	57.8931
 2.0790	57.8460
 2.0780	57.8347
 2.0770	57.8236
 2.0760	57.8483
 2.0750	57.8528
 2.0740	57.8187
 2.0730	57.7412
 2.0720	57.6656
 2.0710	57.6758
 2.0700	57.6620
 2.0690	57.6266
 2.0680	57.5866
 2.0670	57.5400
 2.0660	57.5349
 2.0650	57.4645
 2.0640	57.4095
 2.0630	57.3806
 2.0620	57.3488
 2.0610	57.2762
 2.0600	57.2557
 2.0590	57.2895
 2.0580	57.2431
 2.0570	57.1803
 2.0560	57.1633
 2.0550	57.1409
 2.0540	57.1091
 2.0530	57.0298
 2.0520	57.0302
 2.0510	56.9949
 2.0500	56.9361
 2.0490	56.8649
 2.0480	56.8399
 2.0470	56.7923
 2.0460	56.7044
 2.0450	56.6607
 2.0440	56.6375
 2.0430	56.5763
 2.0420	56.5425
 2.0410	56.4639
 2.0400	56.3629
 2.0390	56.2400
 2.0380	56.1298
 2.0370	56.0256
 2.0360	55.9952
 2.0350	55.8818
 2.0340	55.7581
 2.0330	55.6387
 2.0320	55.5528
 2.0310	55.4117
 2.0300	55.2962
 2.0290	55.1099
 2.0280	55.0262
 2.0270	54.9013
 2.0260	54.7674
 2.0250	54.5973
 2.0240	54.4463
 2.0230	54.2696
 2.0220	54.1381
 2.0210	53.9329
 2.0200	53.7964
 2.0190	53.6689
 2.0180	53.5248
 2.0170	53.3742
 2.0160	53.1674
 2.0150	52.9942
 2.0140	52.8691
 2.0130	52.6486
 2.0120	52.5229
 2.0110	52.2775
 2.0100	52.1726
 2.0090	52.0316
 2.0080	51.8682
 2.0070	51.6474
 2.0060	51.5510
 2.0050	51.3521
 2.0040	51.1558
 2.0030	50.9316
 2.0020	50.7838
 2.0010	50.5354
 2.0000	50.3775
 1.9990	50.1835
 1.9980	49.9568
 1.9970	49.7896
 1.9960	49.6234
 1.9950	49.3851
 1.9940	49.2033
 1.9930	49.0094
 1.9920	48.8662
 1.9910	48.6769
 1.9900	48.5315
 1.9890	48.3951
 1.9880	48.2900
 1.9870	48.1104
 1.9860	47.9189
 1.9850	47.7714
 1.9840	47.6465
 1.9830	47.4754
 1.9820	47.4221
 1.9810	47.2777
 1.9800	47.1730
 1.9790	47.0363
 1.9780	46.9679
 1.9770	46.8585
 1.9760	46.8290
 1.9750	46.6682
 1.9740	46.6783
 1.9730	46.5334
 1.9720	46.4643
 1.9710	46.3021
 1.9700	46.3549
 1.9690	46.2775
 1.9680	46.2113
 1.9670	46.0915
 1.9660	46.0991
 1.9650	45.9646
 1.9640	46.0195
 1.9630	45.9644
 1.9620	45.8580
 1.9610	45.7338
 1.9600	45.8659
 1.9590	45.5960
 1.9580	45.5945
 1.9570	45.3783
 1.9560	45.4196
 1.9550	45.3023
 1.9540	45.2706
 1.9530	45.1155
 1.9520	45.0730
 1.9510	44.9025
 1.9500	44.9118
 1.9490	44.6596
 1.9480	44.6502
 1.9470	44.4685
 1.9460	44.5208
 1.9450	44.2627
 1.9440	44.1455
 1.9430	43.9906
 1.9420	43.8974
 1.9410	43.6058
 1.9400	43.4853
 1.9390	43.1736
 1.9380	42.9635
 1.9370	42.6631
 1.9360	42.4051
 1.9350	41.8885
 1.9340	41.5087
 1.9330	41.1104
 1.9320	40.7111
 1.9310	40.0816
 1.9300	39.6296
 1.9290	38.9351
 1.9280	38.4376
 1.9270	37.8927
 1.9260	37.2195
 1.9250	36.7321
 1.9240	36.1739
 1.9230	35.5612
 1.9220	35.2199
 1.9210	34.7415
 1.9200	34.3868
 1.9190	34.1372
 1.9180	33.9078
 1.9170	33.6888
 1.9160	33.7827
 1.9150	33.6240
 1.9140	33.6788
 1.9130	33.7128
 1.9120	33.8559
 1.9110	33.8858
 1.9100	34.0956
 1.9090	34.1936
 1.9080	34.5372
 1.9070	34.7463
 1.9060	35.1291
 1.9050	35.4458
 1.9040	36.0718
 1.9030	36.6737
 1.9020	37.3986
 1.9010	38.0948
 1.9000	39.0468
 1.8990	39.8305
 1.8980	40.8626
 1.8970	41.7562
 1.8960	42.8794
 1.8950	43.9166
 1.8940	44.9558
 1.8930	46.0300
 1.8920	47.1856
 1.8910	48.1878
 1.8900	49.2174
 1.8890	50.1243
 1.8880	51.1806
 1.8870	52.0484
 1.8860	52.9994
 1.8850	53.7938
 1.8840	54.6666
 1.8830	55.2930
 1.8820	56.1566
 1.8810	56.8175
 1.8800	57.5792
 1.8790	58.2138
 1.8780	58.8458
 1.8770	59.4707
 1.8760	60.1588
 1.8750	60.6761
 1.8740	61.3384
 1.8730	61.8287
 1.8720	62.5053
 1.8710	63.0337
 1.8700	63.5824
 1.8690	64.0506
 1.8680	64.5549
 1.8670	64.8481
 1.8660	65.1323
 1.8650	65.3655
 1.8640	65.6322
 1.8630	65.7934
 1.8620	65.9839
 1.8610	66.1916
 1.8600	66.4151
 1.8590	66.6050
 1.8580	66.8351
 1.8570	66.9925
 1.8560	67.1338
 1.8550	67.2477
 1.8540	67.3515
 1.8530	67.3997
 1.8520	67.5692
 1.8510	67.6687
 1.8500	67.7811
 1.8490	67.8159
 1.8480	67.9309
 1.8470	68.0171
 1.8460	68.1758
 1.8450	68.1911
 1.8440	68.2198
 1.8430	68.2326
 1.8420	68.3363
 1.8410	68.3314
 1.8400	68.3817
 1.8390	68.4668
 1.8380	68.5900
 1.8370	68.6131
 1.8360	68.6750
 1.8350	68.7031
 1.8340	68.7403
 1.8330	68.7376
 1.8320	68.7975
 1.8310	68.7985
 1.8300	68.9032
 1.8290	68.9156
 1.8280	68.9253
 1.8270	68.9556
 1.8260	68.9441
 1.8250	68.9296
 1.8240	68.9453
 1.8230	69.0096
 1.8220	69.0304
 1.8210	69.0066
 1.8200	69.0572
 1.8190	69.0327
 1.8180	69.0364
 1.8170	69.0384
 1.8160	69.1018
 1.8150	69.1428
 1.8140	69.1208
 1.8130	69.1190
 1.8120	69.1095
 1.8110	69.0873
 1.8100	69.1061
 1.8090	69.0457
 1.8080	69.0173
 1.8070	69.0363
 1.8060	69.0678
 1.8050	69.0331
 1.8040	69.0877
 1.8030	69.1421
 1.8020	69.1050
 1.8010	69.0112
 1.8000	69.0256
 1.7990	69.0470
 1.7980	69.0561
 1.7970	69.0747
 1.7960	69.0489
 1.7950	68.9940
 1.7940	68.9865
 1.7930	69.0338
 1.7920	69.0780
 1.7910	69.0897
 1.7900	69.1114
 1.7890	69.0943
 1.7880	69.1579
 1.7870	69.2327
 1.7860	69.1864
 1.7850	69.1806
 1.7840	69.2252
 1.7830	69.2412
 1.7820	69.2817
 1.7810	69.3755
 1.7800	69.3751
 1.7790	69.4049
 1.7780	69.4967
 1.7770	69.4935
 1.7760	69.5420
 1.7750	69.6045
 1.7740	69.6651
 1.7730	69.6958
 1.7720	69.6761
 1.7710	69.7446
 1.7700	69.7639
 1.7690	69.8328
 1.7680	69.9113
 1.7670	69.9349
 1.7660	69.9602
 1.7650	70.0184
 1.7640	70.0313
 1.7630	70.0745
 1.7620	70.1420
 1.7610	70.2471
 1.7600	70.2703
 1.7590	70.2915
 1.7580	70.3344
 1.7570	70.3896
 1.7560	70.4243
 1.7550	70.4359
 1.7540	70.5105
 1.7530	70.5676
 1.7520	70.5720
 1.7510	70.6575
 1.7500	70.6901
 1.7490	70.7089
 1.7480	70.7183
 1.7470	70.7636
 1.7460	70.7230
 1.7450	70.7724
 1.7440	70.8660
 1.7430	70.8889
 1.7420	70.8764
 1.7410	70.9574
 1.7400	70.9946
 1.7390	71.0143
 1.7380	71.0006
 1.7370	71.0837
 1.7360	71.0786
 1.7350	71.0864
 1.7340	71.1554
 1.7330	71.1751
 1.7320	71.1940
 1.7310	71.2682
 1.7300	71.2659
 1.7290	71.2546
 1.7280	71.3010
 1.7270	71.3578
 1.7260	71.3113
 1.7250	71.3706
 1.7240	71.3908
 1.7230	71.4598
 1.7220	71.4155
 1.7210	71.4830
 1.7200	71.5680
 1.7190	71.6226
 1.7180	71.6265
 1.7170	71.6404
 1.7160	71.5850
 1.7150	71.6440
 1.7140	71.7198
 1.7130	71.7604
 1.7120	71.7523
 1.7110	71.7501
 1.7100	71.8221
 1.7090	71.9198
 1.7080	71.8710
 1.7070	71.8949
 1.7060	71.8935
 1.7050	72.0227
 1.7040	72.0125
 1.7030	71.9792
 1.7020	71.9728
 1.7010	71.9869
 1.7000	71.9834
 1.6990	72.0834
 1.6980	72.0509
 1.6970	72.0936
 1.6960	72.0727
 1.6950	72.1407
 1.6940	72.0697
 1.6930	72.1140
 1.6920	72.1373
 1.6910	72.1963
 1.6900	72.1248
 1.6890	72.2142
 1.6880	72.1656
 1.6870	72.2428
 1.6860	72.2141
 1.6850	72.2222
 1.6840	72.2025
 1.6830	72.1653
 1.6820	72.2261
 1.6810	72.2456
 1.6800	72.1410
 1.6790	72.2647
 1.6780	72.2155
 1.6770	72.2286
 1.6760	72.2263
 1.6750	72.1784
 1.6740	72.2424
 1.6730	72.2585
 1.6720	72.2419
 1.6710	72.2945
 1.6700	72.2596
 1.6690	72.2540
 1.6680	72.1957
 1.6670	72.2090
 1.6660	72.3038
 1.6650	72.2782
 1.6640	72.2058
 1.6630	72.2735
 1.6620	72.2565
 1.6610	72.2999
 1.6600	72.1532
 1.6590	72.2516
 1.6580	72.1947
 1.6570	72.2256
 1.6560	72.2915
 1.6550	72.2623
 1.6540	72.2103
 1.6530	72.2166
 1.6520	72.2506
 1.6510	72.2466
 1.6500	72.2392
 1.6490	72.2686
 1.6480	72.1592
 1.6470	72.2520
 1.6460	72.1620
 1.6450	72.1957
 1.6440	72.1985
 1.6430	72.2305
 1.6420	72.1681
 1.6410	72.1523
 1.6400	72.1972
 1.6390	72.1300
 1.6380	72.1303
 1.6370	72.0951
 1.6360	72.1320
 1.6350	72.0818
 1.6340	72.0456
 1.6330	72.1272
 1.6320	72.0693
 1.6310	72.1441
 1.6300	72.0664
 1.6290	72.1179
 1.6280	72.0325
 1.6270	72.0993
 1.6260	72.0772
 1.6250	72.1433
 1.6240	72.0528
 1.6230	72.0140
 1.6220	72.0392
 1.6210	71.9776
 1.6200	72.0135
 1.6190	71.9572
 1.6180	71.8915
 1.6170	71.9586
 1.6160	71.9353
 1.6150	72.0204
 1.6140	71.9238
 1.6130	71.9384
 1.6120	71.9161
 1.6110	71.9879
 1.6100	71.9163
 1.6090	71.9960
 1.6080	71.8316
 1.6070	71.8567
 1.6060	71.8907
 1.6050	71.8931
 1.6040	71.8527
 1.6030	71.8038
 1.6020	71.8084
 1.6010	71.7719
 1.6000	71.7437
 1.5990	71.7567
 1.5980	71.7407
 1.5970	71.7633
 1.5960	71.7313
 1.5950	71.7526
 1.5940	71.6874
 1.5930	71.6708
 1.5920	71.6960
 1.5910	71.6126
 1.5900	71.6143
 1.5890	71.5497
 1.5880	71.5592
 1.5870	71.5229
 1.5860	71.5003
 1.5850	71.5511
 1.5840	71.5269
 1.5830	71.5292
 1.5820	71.4654
 1.5810	71.4196
 1.5800	71.3704
 1.5790	71.4318
 1.5780	71.3781
 1.5770	71.3442
 1.5760	71.3698
 1.5750	71.2520
 1.5740	71.2291
 1.5730	71.2507
 1.5720	71.1475
 1.5710	71.1494
 1.5700	71.1228
 1.5690	71.0802
 1.5680	71.0891
 1.5670	71.0949
 1.5660	71.0248
 1.5650	71.0112
 1.5640	70.9631
 1.5630	70.9615
 1.5620	70.9086
 1.5610	70.8859
 1.5600	70.8383
 1.5590	70.7988
 1.5580	70.7382
 1.5570	70.7711
 1.5560	70.7200
 1.5550	70.6388
 1.5540	70.5350
 1.5530	70.5641
 1.5520	70.4827
 1.5510	70.4328
 1.5500	70.3872
 1.5490	70.3817
 1.5480	70.3068
 1.5470	70.2530
 1.5460	70.2584
 1.5450	70.1918
 1.5440	70.0929
 1.5430	70.0716
 1.5420	70.0035
 1.5410	69.9909
 1.5400	70.0128
 1.5390	69.9555
 1.5380	69.8631
 1.5370	69.7829
 1.5360	69.6885
 1.5350	69.6752
 1.5340	69.6757
 1.5330	69.6685
 1.5320	69.5653
 1.5310	69.5321
 1.5300	69.5277
 1.5290	69.5306
 1.5280	69.3903
 1.5270	69.3276
 1.5260	69.2994
 1.5250	69.2486
 1.5240	69.1557
 1.5230	69.0622
 1.5220	69.0137
 1.5210	68.9885
 1.5200	68.9296
 1.5190	68.8771
 1.5180	68.8499
 1.5170	68.7777
 1.5160	68.6876
 1.5150	68.6238
 1.5140	68.5574
 1.5130	68.4948
 1.5120	68.4133
 1.5110	68.3871
 1.5100	68.2644
 1.5090	68.1754
 1.5080	68.1177
 1.5070	68.0612
 1.5060	67.9940
 1.5050	67.8960
 1.5040	67.7470
 1.5030	67.6265
 1.5020	67.5325
 1.5010	67.4579
 1.5000	67.3686
 1.4990	67.2434
 1.4980	67.1771
 1.4970	67.0764
 1.4960	66.9553
 1.4950	66.8993
 1.4940	66.7761
 1.4930	66.6295
 1.4920	66.4772
 1.4910	66.3054
 1.4900	66.2259
 1.4890	66.0819
 1.4880	65.9886
 1.4870	65.8504
 1.4860	65.6867
 1.4850	65.5266
 1.4840	65.3422
 1.4830	65.2120
 1.4820	65.0867
 1.4810	64.9092
 1.4800	64.7443
 1.4790	64.5936
 1.4780	64.3988
 1.4770	64.2054
 1.4760	64.0835
 1.4750	63.9387
 1.4740	63.7773
 1.4730	63.5784
 1.4720	63.4787
 1.4710	63.4044
 1.4700	63.3704
 1.4690	63.2771
 1.4680	63.1889
 1.4670	63.1309
 1.4660	63.1059
 1.4650	63.0524
 1.4640	63.0037
 1.4630	62.9733
 1.4620	63.0194
 1.4610	62.9226
 1.4600	62.9196
 1.4590	62.9204
 1.4580	62.9478
 1.4570	62.8259
 1.4560	62.8123
 1.4550	62.6834
 1.4540	62.5790
 1.4530	62.4955
 1.4520	62.3734
 1.4510	62.2516
 1.4500	62.0991
 1.4490	61.9593
 1.4480	61.8075
 1.4470	61.5921
 1.4460	61.5182
 1.4450	61.4584
 1.4440	61.4562
 1.4430	61.3796
 1.4420	61.3888
 1.4410	61.3552
 1.4400	61.3577
 1.4390	61.3920
 1.4380	61.4775
 1.4370	61.5192
 1.4360	61.5204
 1.4350	61.4811
 1.4340	61.4859
 1.4330	61.4371
 1.4320	61.4690
 1.4310	61.4067
 1.4300	61.4098
 1.4290	61.3030
 1.4280	61.3186
 1.4270	61.1467
 1.4260	61.0622
 1.4250	61.0047
 1.4240	60.9370
 1.4230	60.7490
 1.4220	60.6241
 1.4210	60.4745
 1.4200	60.4695
 1.4190	60.3308
 1.4180	60.3292
 1.4170	60.1929
 1.4160	60.2467
 1.4150	60.3013
 1.4140	60.4127
 1.4130	60.5072
 1.4120	60.7634
 1.4110	60.9592
 1.4100	61.2602
 1.4090	61.5905
 1.4080	61.9450
 1.4070	62.3612
 1.4060	62.7926
 1.4050	63.3136
 1.4040	63.8121
 1.4030	64.2204
 1.4020	64.7888
 1.4010	65.3975
 1.4000	65.8777
 1.3990	66.2790
 1.3980	66.7697
 1.3970	67.2377
 1.3960	67.5804
 1.3950	67.7804
 1.3940	67.8529
 1.3930	67.8804
 1.3920	67.6962
 1.3910	67.0249
 1.3900	65.8717
 1.3890	64.1842
 1.3880	62.8240
 1.3870	62.3445
 1.3860	63.3162
 1.3850	65.3009
 1.3840	67.6892
 1.3830	69.4546
 1.3820	70.6620
 1.3810	71.3892
 1.3800	71.8441
 1.3790	72.1397
 1.3780	72.3167
 1.3770	72.5313
 1.3760	72.7581
 1.3750	72.9588
 1.3740	73.2635
 1.3730	73.3835
 1.3720	73.6639
 1.3710	73.6524
 1.3700	73.8347
 1.3690	74.0042
 1.3680	74.0688
 1.3670	74.1732
 1.3660	74.2630
 1.3650	74.1938
 1.3640	74.3441
 1.3630	74.3354
 1.3620	74.3853
 1.3610	74.4375
 1.3600	74.4925
 1.3590	74.6315
 1.3580	74.7500
 1.3570	74.7220
 1.3560	74.7235
 1.3550	74.7319
 1.3540	74.7155
 1.3530	74.7434
 1.3520	74.8135
 1.3510	74.9390
 1.3500	75.0655
 1.3490	74.9991
 1.3480	74.9951
 1.3470	75.0367
 1.3460	75.2046
 1.3450	75.1951
 1.3440	75.2636
 1.3430	75.3014
 1.3420	75.3497
 1.3410	75.3505
 1.3400	75.4933
 1.3390	75.4560
 1.3380	75.6076
 1.3370	75.5784
 1.3360	75.6776
 1.3350	75.7553
 1.3340	75.8190
 1.3330	75.7768
 1.3320	75.8952
 1.3310	76.0422
 1.3300	76.0905
 1.3290	76.0899
 1.3280	76.1185
 1.3270	76.0868
 1.3260	76.2199
 1.3250	76.1549
 1.3240	76.3654
 1.3230	76.3360
 1.3220	76.4707
 1.3210	76.4012
 1.3200	76.4350
 1.3190	76.5401
 1.3180	76.5272
 1.3170	76.6008
 1.3160	76.6506
 1.3150	76.6121
 1.3140	76.6718
 1.3130	76.5882
 1.3120	76.7297
 1.3110	76.7256
 1.3100	76.8150
 1.3090	76.8363
 1.3080	76.8981
 1.3070	76.8980
 1.3060	76.8543
 1.3050	76.8415
 1.3040	76.9830
 1.3030	76.9661
 1.3020	77.0312
 1.3010	76.9921
 1.3000	77.0512
 1.2990	77.0219
 1.2980	77.0096
 1.2970	76.9965
 1.2960	76.9936
 1.2950	76.9782
 1.2940	77.0108
 1.2930	77.0424
 1.2920	77.0797
 1.2910	77.0798
 1.2900	77.1633
 1.2890	77.1660
 1.2880	77.1632
 1.2870	77.1573
 1.2860	77.2144
 1.2850	77.1223
 1.2840	77.2249
 1.2830	77.2406
 1.2820	77.2476
 1.2810	77.2164
 1.2800	77.1886
 1.2790	77.1816
 1.2780	77.1338
 1.2770	77.0968
 1.2760	77.2346
 1.2750	77.1560
 1.2740	77.1720
 1.2730	77.1422
 1.2720	77.1590
 1.2710	77.1698
 1.2700	77.2240
 1.2690	77.2776
 1.2680	77.3021
 1.2670	77.2839
 1.2660	77.2427
 1.2650	77.2946
 1.2640	77.3213
 1.2630	77.2912
 1.2620	77.2851
 1.2610	77.2932
 1.2600	77.3272
 1.2590	77.2994
 1.2580	77.2808
 1.2570	77.2911
 1.2560	77.3552
 1.2550	77.3623
 1.2540	77.3530
 1.2530	77.3660
 1.2520	77.3771
 1.2510	77.3104
 1.2500	77.3287
 1.2490	77.2816
 1.2480	77.2436
 1.2470	77.3521
 1.2460	77.4262
 1.2450	77.3623
 1.2440	77.3641
 1.2430	77.3574
 1.2420	77.3558
 1.2410	77.3370
 1.2400	77.3530
 1.2390	77.3348
 1.2380	77.2562
 1.2370	77.3192
 1.2360	77.3650
 1.2350	77.3368
 1.2340	77.3348
 1.2330	77.3403
 1.2320	77.3477
 1.2310	77.3273
 1.2300	77.3197
 1.2290	77.3363
 1.2280	77.3505
 1.2270	77.3484
 1.2260	77.4090
 1.2250	77.4061
 1.2240	77.3922
 1.2230	77.3927
 1.2220	77.3779
 1.2210	77.3432
 1.2200	77.3259
 1.2190	77.3443
 1.2180	77.3859
 1.2170	77.3576
 1.2160	77.2971
 1.2150	77.3351
 1.2140	77.3808
 1.2130	77.3390
 1.2120	77.3546
 1.2110	77.3843
 1.2100	77.3562
 1.2090	77.3594
 1.2080	77.3449
 1.2070	77.3646
 1.2060	77.3779
 1.2050	77.3131
 1.2040	77.3182
 1.2030	77.3426
 1.2020	77.3078
 1.2010	77.3158
 1.2000	77.3467
 1.1990	77.3667
 1.1980	77.3116
 1.1970	77.3195
 1.1960	77.3055
 1.1950	77.2819
 1.1940	77.2485
 1.1930	77.2993
 1.1920	77.2983
 1.1910	77.2796
 1.1900	77.2660
 1.1890	77.2671
 1.1880	77.3129
 1.1870	77.3201
 1.1860	77.3009
 1.1850	77.3095
 1.1840	77.3215
 1.1830	77.3581
 1.1820	77.3448
 1.1810	77.3251
 1.1800	77.2835
 1.1790	77.3170
 1.1780	77.2625
 1.1770	77.2507
 1.1760	77.2056
 1.1750	77.1511
 1.1740	77.1695
 1.1730	77.1194
 1.1720	77.0313
 1.1710	77.0377
 1.1700	77.0122
 1.1690	76.9837
 1.1680	77.0426
 1.1670	76.9917
 1.1660	76.9318
 1.1650	76.9252
 1.1640	76.9363
 1.1630	76.9741
 1.1620	77.0626
 1.1610	77.0305
 1.1600	76.9945
 1.1590	77.0095
 1.1580	77.0177
 1.1570	77.0561
 1.1560	77.0252
 1.1550	77.0531
 1.1540	77.0836
 1.1530	77.0932
 1.1520	77.1341
 1.1510	77.1592
 1.1500	77.1602
 1.1490	77.2763
 1.1480	77.3346
 1.1470	77.4630
 1.1460	77.5124
 1.1450	77.6032
 1.1440	77.6493
 1.1430	77.7190
 1.1420	77.7727
 1.1410	77.8407
 1.1400	77.9153
 1.1390	77.9294
 1.1380	77.9131
 1.1370	77.9963
 1.1360	78.0093
 1.1350	78.0391
 1.1340	78.0791
 1.1330	78.1522
 1.1320	78.1089
 1.1310	78.1846
 1.1300	78.1924
 1.1290	78.2301
 1.1280	78.1824
 1.1270	78.2339
 1.1260	78.2413
 1.1250	78.2692
 1.1240	78.2387
 1.1230	78.3368
 1.1220	78.2708
 1.1210	78.3540
 1.1200	78.2875
 1.1190	78.3501
 1.1180	78.2732
 1.1170	78.3016
 1.1160	78.2545
 1.1150	78.2832
 1.1140	78.2371
 1.1130	78.3615
 1.1120	78.2799
 1.1110	78.3572
 1.1100	78.3333
 1.1090	78.3349
 1.1080	78.2923
 1.1070	78.3854
 1.1060	78.4577
 1.1050	78.3836
 1.1040	78.3671
 1.1030	78.4014
 1.1020	78.4000
 1.1010	78.3739
 1.1000	78.3881
 1.0990	78.3781
 1.0980	78.4017
 1.0970	78.3736
 1.0960	78.4170
 1.0950	78.5020
 1.0940	78.4135
 1.0930	78.5503
 1.0920	78.4733
 1.0910	78.4726
 1.0900	78.4648
 1.0890	78.4539
 1.0880	78.4564
 1.0870	78.5353
 1.0860	78.4674
 1.0850	78.4769
 1.0840	78.4555
 1.0830	78.4915
 1.0820	78.4703
 1.0810	78.5133
 1.0800	78.4474
 1.0790	78.5474
 1.0780	78.4680
 1.0770	78.5701
 1.0760	78.5600
 1.0750	78.5437
 1.0740	78.6142
 1.0730	78.6382
 1.0720	78.4789
 1.0710	78.5441
 1.0700	78.5197
 1.0690	78.6371
 1.0680	78.5716
 1.0670	78.5517
 1.0660	78.6108
 1.0650	78.6713
 1.0640	78.5771
 1.0630	78.5717
 1.0620	78.6035
 1.0610	78.6107
 1.0600	78.5728
 1.0590	78.6128
 1.0580	78.6070
 1.0570	78.5907
 1.0560	78.6034
 1.0550	78.6012
 1.0540	78.6303
 1.0530	78.6932
 1.0520	78.5807
 1.0510	78.6243
 1.0500	78.6769
 1.0490	78.6120
 1.0480	78.6103
 1.0470	78.6243
 1.0460	78.6204
 1.0450	78.5724
 1.0440	78.5892
 1.0430	78.6669
 1.0420	78.6089
 1.0410	78.6365
 1.0400	78.6066
 1.0390	78.5667
 1.0380	78.6840
 1.0370	78.7153
 1.0360	78.6118
 1.0350	78.6591
 1.0340	78.6145
 1.0330	78.7493
 1.0320	78.6649
 1.0310	78.6375
 1.0300	78.6423
 1.0290	78.6514
 1.0280	78.6005
 1.0270	78.5489
 1.0260	78.6124
 1.0250	78.6719
 1.0240	78.5957
 1.0230	78.6429
 1.0220	78.6348
 1.0210	78.7153
 1.0200	78.6542
 1.0190	78.7143
 1.0180	78.6510
 1.0170	78.6163
 1.0160	78.6135
 1.0150	78.6063
 1.0140	78.6066
 1.0130	78.6096
 1.0120	78.6097
 1.0110	78.5868
 1.0100	78.6043
 1.0090	78.6404
 1.0080	78.6654
 1.0070	78.6364
 1.0060	78.4873
 1.0050	78.5410
 1.0040	78.5893
 1.0030	78.6159
 1.0020	78.6169
 1.0010	78.5338
 1.0000	78.5554
 0.9990	78.6016
 0.9980	78.5446
 0.9970	78.5877
 0.9960	78.5080
 0.9950	78.4927
 0.9940	78.4372
 0.9930	78.4987
 0.9920	78.4940
 0.9910	78.4879
 0.9900	78.4666
 0.9890	78.4995
 0.9880	78.4118
 0.9870	78.4077
 0.9860	78.4936
 0.9850	78.5095
 0.9840	78.4838
 0.9830	78.4137
 0.9820	78.4343
 0.9810	78.5058
 0.9800	78.4993
 0.9790	78.4814
 0.9780	78.4148
 0.9770	78.3888
 0.9760	78.3286
 0.9750	78.3564
 0.9740	78.3850
 0.9730	78.4109
 0.9720	78.3744
 0.9710	78.3927
 0.9700	78.3813
 0.9690	78.4387
 0.9680	78.4863
 0.9670	78.4451
 0.9660	78.4104
 0.9650	78.4175
 0.9640	78.4268
 0.9630	78.4302
 0.9620	78.4560
 0.9610	78.4467
 0.9600	78.4337
 0.9590	78.5232
 0.9580	78.5890
 0.9570	78.5918
 0.9560	78.6384
 0.9550	78.6623
 0.9540	78.6499
 0.9530	78.6443
 0.9520	78.6854
 0.9510	78.7180
 0.9500	78.6068
 0.9490	78.5526
 0.9480	78.5047
 0.9470	78.5130
 0.9460	78.4969
 0.9450	78.5009
 0.9440	78.5788
 0.9430	78.6702
 0.9420	78.7534
 0.9410	78.8176
 0.9400	78.8529
 0.9390	78.8558
 0.9380	78.8644
 0.9370	78.9174
 0.9360	78.8987
 0.9350	78.9046
 0.9340	78.9626
 0.9330	78.9343
 0.9320	78.9497
 0.9310	78.9646
 0.9300	78.9289
 0.9290	78.9776
 0.9280	78.9661
 0.9270	78.9966
 0.9260	78.9990
 0.9250	78.9593
 0.9240	78.9970
 0.9230	78.9807
 0.9220	79.0058
 0.9210	79.0854
 0.9200	79.0992
 0.9190	79.0449
 0.9180	79.0450
 0.9170	79.0474
 0.9160	79.0436
 0.9150	79.0431
 0.9140	79.0453
 0.9130	79.0117
 0.9120	79.0348
 0.9110	79.0453
 0.9100	79.0357
 0.9090	79.0379
 0.9080	79.0451
 0.9070	79.0410
 0.9060	79.0808
 0.9050	79.0977
 0.9040	79.0984
 0.9030	79.1056
 0.9020	79.1027
 0.9010	79.1196
 0.9000	79.0402
 0.8990	79.0075
 0.8980	78.9890
 0.8970	78.9948
 0.8960	79.0534
 0.8950	79.0498
 0.8940	79.0325
 0.8930	79.0105
 0.8920	79.0351
 0.8910	79.0264
 0.8900	79.0874
 0.8890	79.0887
 0.8880	78.9985
 0.8870	78.9380
 0.8860	78.9930
 0.8850	78.9761
 0.8840	79.0318
 0.8830	79.0299
 0.8820	79.0776
 0.8810	79.0394
 0.8800	79.0143
 0.8790	78.9729
 0.8780	78.9521
 0.8770	78.9687
 0.8760	79.0173
 0.8750	78.9414
 0.8740	78.9588
 0.8730	78.9543
 0.8720	78.9622
 0.8710	78.9499
 0.8700	78.9671
 0.8690	78.9659
 0.8680	78.9900
 0.8670	78.9419
 0.8660	78.9281
 0.8650	78.9365
 0.8640	79.0191
 0.8630	78.9393
 0.8620	79.0032
 0.8610	78.9935
 0.8600	79.3021
 0.8590	79.3174
 0.8580	79.3650
 0.8570	79.4178
 0.8560	79.3961
 0.8550	79.3360
 0.8540	79.3833
 0.8530	79.3634
 0.8520	79.3770
 0.8510	79.3791
 0.8500	79.3863
 0.8490	79.3823
 0.8480	79.3853
 0.8470	79.3561
 0.8460	79.4106
 0.8450	79.3655
 0.8440	79.3123
 0.8430	79.3790
 0.8420	79.4070
 0.8410	79.4572
 0.8400	79.4459
 0.8390	79.4451
 0.8380	79.4522
 0.8370	79.4590
 0.8360	79.4536
 0.8350	79.4114
 0.8340	79.4605
 0.8330	79.5037
 0.8320	79.5092
 0.8310	79.4982
 0.8300	79.4799
 0.8290	79.4807
 0.8280	79.4920
 0.8270	79.5250
 0.8260	79.5503
 0.8250	79.5891
 0.8240	79.5401
 0.8230	79.5459
 0.8220	79.5139
 0.8210	79.5342
 0.8200	79.6031
 0.8190	79.6219
 0.8180	79.5706
 0.8170	79.6073
 0.8160	79.5605
 0.8150	79.5768
 0.8140	79.5670
 0.8130	79.6086
 0.8120	79.6183
 0.8110	79.6118
 0.8100	79.6542
 0.8090	79.5813
 0.8080	79.6186
 0.8070	79.6707
 0.8060	79.6817
 0.8050	79.7006
 0.8040	79.6390
 0.8030	79.6744
 0.8020	79.6741
 0.8010	79.6503
 0.8000	79.6421
 0.7990	79.6487
 0.7980	79.6929
 0.7970	79.6584
 0.7960	79.6031
 0.7950	79.6369
 0.7940	79.6137
 0.7930	79.6147
 0.7920	79.5788
 0.7910	79.6445
 0.7900	79.6540
 0.7890	79.6168
 0.7880	79.6351
 0.7870	79.6029
 0.7860	79.6223
 0.7850	79.6719
 0.7840	79.6852
 0.7830	79.6514
 0.7820	79.6435
 0.7810	79.6172
 0.7800	79.6405
 0.7790	79.6752
 0.7780	79.6635
 0.7770	79.5779
 0.7760	79.6536
 0.7750	79.6201
 0.7740	79.6315
 0.7730	79.6207
 0.7720	79.6131
 0.7710	79.6025
 0.7700	79.6333
 0.7690	79.6100
 0.7680	79.6166
 0.7670	79.6422
 0.7660	79.6476
 0.7650	79.6375
 0.7640	79.6068
 0.7630	79.6471
 0.7620	79.6424
 0.7610	79.6442
 0.7600	79.6469
 0.7590	79.6720
 0.7580	79.6605
 0.7570	79.6905
 0.7560	79.6499
 0.7550	79.6382
 0.7540	79.6930
 0.7530	79.6700
 0.7520	79.6451
 0.7510	79.6411
 0.7500	79.6626
 0.7490	79.6579
 0.7480	79.6502
 0.7470	79.6507
 0.7460	79.6553
 0.7450	79.6660
 0.7440	79.6610
 0.7430	79.6917
 0.7420	79.6472
 0.7410	79.6818
 0.7400	79.6537
 0.7390	79.6443
 0.7380	79.6886
 0.7370	79.6673
 0.7360	79.6503
 0.7350	79.6473
 0.7340	79.6681
 0.7330	79.6907
 0.7320	79.6904
 0.7310	79.6779
 0.7300	79.6729
 0.7290	79.6701
 0.7280	79.6630
 0.7270	79.6735
 0.7260	79.6457
 0.7250	79.6689
 0.7240	79.6911
 0.7230	79.6827
 0.7220	79.6911
 0.7210	79.7088
 0.7200	79.7038
 0.7190	79.6660
 0.7180	79.6662
 0.7170	79.6834
 0.7160	79.6855
 0.7150	79.6722
 0.7140	79.6624
 0.7130	79.6735
 0.7120	79.6817
 0.7110	79.6919
 0.7100	79.6943
 0.7090	79.6838
 0.7080	79.6835
 0.7070	79.6795
 0.7060	79.6770
 0.7050	79.6829
 0.7040	79.6920
 0.7030	79.6753
 0.7020	79.6618
 0.7010	79.6539
 0.7000	79.6679
 0.6990	79.6526
 0.6980	79.6626
 0.6970	79.6829
 0.6960	79.6714
 0.6950	79.6779
 0.6940	79.6726
 0.6930	79.6716
 0.6920	79.6897
 0.6910	79.6773
 0.6900	79.6779
 0.6890	79.6784
 0.6880	79.6645
 0.6870	79.6699
 0.6860	79.6625
 0.6850	79.6559
 0.6840	79.6632
 0.6830	79.6740
 0.6820	79.6811
 0.6810	79.6607
 0.6800	79.6511
 0.6790	79.6682
 0.6780	79.6729
 0.6770	79.6494
 0.6760	79.6431
 0.6750	79.6403
 0.6740	79.6308
 0.6730	79.6383
 0.6720	79.6252
 0.6710	79.6230
 0.6700	79.6284
 0.6690	79.6380
 0.6680	79.6288
 0.6670	79.6260
 0.6660	79.6299
 0.6650	79.6290
 0.6640	79.6329
 0.6630	79.6117
 0.6620	79.6011
 0.6610	79.6011
 0.6600	79.5884
 0.6590	79.5827
 0.6580	79.5952
 0.6570	79.5774
 0.6560	79.5786
 0.6550	79.5989
 0.6540	79.6011
 0.6530	79.5974
 0.6520	79.5781
 0.6510	79.5727
 0.6500	79.5786
 0.6490	79.5674
 0.6480	79.5544
 0.6470	79.5648
 0.6460	79.5490
 0.6450	79.5361
 0.6440	79.5405
 0.6430	79.5295
 0.6420	79.5318
 0.6410	79.5284
 0.6400	79.5314
 0.6390	79.5322
 0.6380	79.5145
 0.6370	79.5154
 0.6360	79.5167
 0.6350	79.5061
 0.6340	79.4982
 0.6330	79.4865
 0.6320	79.4909
 0.6310	79.4950
 0.6300	79.4874
 0.6290	79.4865
 0.6280	79.4732
 0.6270	79.4659
 0.6260	79.4765
 0.6250	79.4691
 0.6240	79.4533
 0.6230	79.4588
 0.6220	79.4553
 0.6210	79.4520
 0.6200	79.4464
 0.6190	79.4343
 0.6180	79.4362
 0.6170	79.4311
 0.6160	79.4132
 0.6150	79.3868
 0.6140	79.3717
 0.6130	79.3792
 0.6120	79.3814
 0.6110	79.3770
 0.6100	79.3650
 0.6090	79.3669
 0.6080	79.3500
 0.6070	79.3378
 0.6060	79.3318
 0.6050	79.3280
 0.6040	79.3159
 0.6030	79.2910
 0.6020	79.2688
 0.6010	79.2670
 0.6000	79.2618
 0.5990	79.2593
 0.5980	79.2684
 0.5970	79.2708
 0.5960	79.2707
 0.5950	79.2716
 0.5940	79.2732
 0.5930	79.2526
 0.5920	79.2269
 0.5910	79.2280
 0.5900	79.2191
 0.5890	79.1960
 0.5880	79.1693
 0.5870	79.1622
 0.5860	79.1391
 0.5850	79.1214
 0.5840	79.1045
 0.5830	79.0882
 0.5820	79.0703
 0.5810	79.0321
 0.5800	79.0253
 0.5790	79.0007
 0.5780	78.9862
 0.5770	78.9733
 0.5760	78.9523
 0.5750	78.9365
 0.5740	78.9179
 0.5730	78.8790
 0.5720	78.8528
 0.5710	78.8415
 0.5700	78.8270
 0.5690	78.7964
 0.5680	78.7679
 0.5670	78.7439
 0.5660	78.7129
 0.5650	78.6880
 0.5640	78.6644
 0.5630	78.6517
 0.5620	78.6314
 0.5610	78.6039
 0.5600	78.5744
 0.5590	78.5457
 0.5580	78.5178
 0.5570	78.4968
 0.5560	78.4790
 0.5550	78.4359
 0.5540	78.4106
 0.5530	78.4013
 0.5520	78.3742
 0.5510	78.3246
 0.5500	78.3167
 0.5490	78.2983
 0.5480	78.2658
 0.5470	78.2479
 0.5460	78.2219
 0.5450	78.1982
 0.5440	78.1635
 0.5430	78.1397
 0.5420	78.1166
 0.5410	78.0703
 0.5400	78.0465
 0.5390	78.0284
 0.5380	78.0053
 0.5370	77.9790
 0.5360	77.9515
 0.5350	77.9306
 0.5340	77.9041
 0.5330	77.8785
 0.5320	77.8629
 0.5310	77.8277
 0.5300	77.8113
 0.5290	77.7673
 0.5280	77.7444
 0.5270	77.7242
 0.5260	77.6839
 0.5250	77.6556
 0.5240	77.6347
 0.5230	77.5992
 0.5220	77.5680
 0.5210	77.5538
 0.5200	77.5085
 0.5190	77.4890
 0.5180	77.4866
 0.5170	77.4367
 0.5160	77.4100
 0.5150	77.3676
 0.5140	77.3257
 0.5130	77.3041
 0.5120	77.2934
 0.5110	77.2559
 0.5100	77.2109
 0.5090	77.1866
 0.5080	77.1416
 0.5070	77.1287
 0.5060	77.1078
 0.5050	77.0685
 0.5040	77.0435
 0.5030	76.9999
 0.5020	76.9790
 0.5010	76.9640
 0.5000	76.9348
 0.4990	76.8866
 0.4980	76.8723
 0.4970	76.8427
 0.4960	76.7898
 0.4950	76.7657
 0.4940	76.7098
 0.4930	76.6859
 0.4920	76.6643
 0.4910	76.6268
 0.4900	76.6142
 0.4890	76.5802
 0.4880	76.5632
 0.4870	76.4909
 0.4860	76.4924
 0.4850	76.4394
 0.4840	76.4192
 0.4830	76.4083
 0.4820	76.3539
 0.4810	76.3210
 0.4800	76.2815
 0.4790	76.2253
 0.4780	76.2069
 0.4770	76.1465
 0.4760	76.1044
 0.4750	76.0941
 0.4740	76.0663
 0.4730	76.0331
 0.4720	75.9844
 0.4710	75.9700
 0.4700	75.9323
 0.4690	75.8822
 0.4680	75.8710
 0.4670	75.8281
 0.4660	75.7778
 0.4650	75.7689
 0.4640	75.7294
 0.4630	75.6777
 0.4620	75.6286
 0.4610	75.5760
 0.4600	75.5731
 0.4590	75.5218
 0.4580	75.4695
 0.4570	75.4496
 0.4560	75.3689
 0.4550	75.3702
 0.4540	75.3157
 0.4530	75.2838
 0.4520	75.2381
 0.4510	75.1910
 0.4500	75.1589
 0.4490	75.1031
 0.4480	75.0490
 0.4470	75.0010
 0.4460	74.9444
 0.4450	74.9064
 0.4440	74.8577
 0.4430	74.7944
 0.4420	74.7443
 0.4410	74.6963
 0.4400	74.6233
 0.4390	74.5647
 0.4380	74.5272
 0.4370	74.4520
 0.4360	74.4164
 0.4350	74.3550
 0.4340	74.3207
 0.4330	74.2447
 0.4320	74.1871
 0.4310	74.1204
 0.4300	74.0781
 0.4290	74.0132
 0.4280	73.9653
 0.4270	73.9074
 0.4260	73.8484
 0.4250	73.8298
 0.4240	73.7545
 0.4230	73.6893
 0.4220	73.6544
 0.4210	73.6197
 0.4200	73.5698
 0.4190	73.5263
 0.4180	73.4915
 0.4170	73.4079
 0.4160	73.3714
 0.4150	73.3289
 0.4140	73.2745
 0.4130	73.2422
 0.4120	73.2213
 0.4110	73.1554
 0.4100	73.1298
 0.4090	73.0818
 0.4080	73.0335
 0.4070	73.0014
 0.4060	72.9525
 0.4050	72.9236
 0.4040	72.8820
 0.4030	72.8080
 0.4020	72.7806
 0.4010	72.7238
 0.4000	72.6861
