Name: Quartz SiO_2
Type: Mineral
Class: Silicate
Subclass: Tectosilicate
Particle Size: Fine
Sample No.: TS-1D
Owner: JPL
Wavelength Range: VSWIR
Origin: USA, Coloradi, Buffalo.
Collection Date: N/A
Description: Milky quartzParticle size was 0-45um.Collected by:  Ward's Original ASTER Spectral Library name was jpl.perkin.mineral.silicate.tectosilicate.fine.ts01d.spectrum.txt
Measurement: Hemispherical reflectance
First Column: X
Second Column: Y
X Units: Wavelength (micrometers)
Y Units:Reflectance (percent)
First X Value:  2.5000
Last X Value:  0.4000
Number of X Values: 2101
Additional Information: mineral.silicate.tectosilicate.fine.vswir.ts-1d.jpl.perkin.ancillary.txt

 2.5000	77.5283
 2.4990	77.2083
 2.4980	77.5513
 2.4970	77.5849
 2.4960	77.4002
 2.4950	77.4664
 2.4940	77.3109
 2.4930	77.3462
 2.4920	77.3090
 2.4910	77.5238
 2.4900	77.2774
 2.4890	77.4038
 2.4880	77.3106
 2.4870	77.4012
 2.4860	77.3397
 2.4850	77.2767
 2.4840	77.1542
 2.4830	77.4997
 2.4820	77.4481
 2.4810	77.4106
 2.4800	77.5178
 2.4790	77.6587
 2.4780	77.7343
 2.4770	77.4138
 2.4760	77.4287
 2.4750	77.4893
 2.4740	77.3505
 2.4730	77.4703
 2.4720	77.3785
 2.4710	77.4171
 2.4700	77.5559
 2.4690	77.5549
 2.4680	77.4970
 2.4670	77.4742
 2.4660	77.6410
 2.4650	77.5323
 2.4640	77.7383
 2.4630	77.6889
 2.4620	77.6230
 2.4610	77.6114
 2.4600	77.7325
 2.4590	77.6757
 2.4580	77.5804
 2.4570	77.6379
 2.4560	77.6474
 2.4550	77.6283
 2.4540	77.6808
 2.4530	77.5831
 2.4520	77.8286
 2.4510	77.6709
 2.4500	77.7012
 2.4490	77.7791
 2.4480	77.7897
 2.4470	77.7138
 2.4460	77.6905
 2.4450	77.6750
 2.4440	77.7507
 2.4430	77.7745
 2.4420	77.7893
 2.4410	77.7177
 2.4400	77.7864
 2.4390	77.6048
 2.4380	77.7533
 2.4370	77.7962
 2.4360	77.7528
 2.4350	77.7674
 2.4340	77.8197
 2.4330	77.8519
 2.4320	77.7899
 2.4310	77.8690
 2.4300	77.8623
 2.4290	77.8695
 2.4280	77.8854
 2.4270	77.8366
 2.4260	77.9413
 2.4250	77.9433
 2.4240	78.0445
 2.4230	77.9617
 2.4220	78.0049
 2.4210	77.9553
 2.4200	77.9690
 2.4190	78.0409
 2.4180	78.0540
 2.4170	77.9711
 2.4160	78.0181
 2.4150	78.0567
 2.4140	78.0721
 2.4130	78.0900
 2.4120	78.1965
 2.4110	78.1509
 2.4100	78.1571
 2.4090	78.1246
 2.4080	78.0285
 2.4070	78.1198
 2.4060	78.1672
 2.4050	78.1147
 2.4040	78.1564
 2.4030	78.1827
 2.4020	78.2050
 2.4010	78.2664
 2.4000	78.1632
 2.3990	78.1934
 2.3980	78.1985
 2.3970	78.2276
 2.3960	78.2767
 2.3950	78.2006
 2.3940	78.2358
 2.3930	78.2973
 2.3920	78.2477
 2.3910	78.2713
 2.3900	78.3040
 2.3890	78.2532
 2.3880	78.2796
 2.3870	78.2535
 2.3860	78.2957
 2.3850	78.3828
 2.3840	78.4055
 2.3830	78.4926
 2.3820	78.5122
 2.3810	78.5036
 2.3800	78.4859
 2.3790	78.4557
 2.3780	78.4967
 2.3770	78.4507
 2.3760	78.4066
 2.3750	78.4262
 2.3740	78.5234
 2.3730	78.5471
 2.3720	78.5648
 2.3710	78.5780
 2.3700	78.5864
 2.3690	78.6442
 2.3680	78.6480
 2.3670	78.6779
 2.3660	78.7264
 2.3650	78.6453
 2.3640	78.5820
 2.3630	78.6154
 2.3620	78.6427
 2.3610	78.6656
 2.3600	78.6761
 2.3590	78.7541
 2.3580	78.7669
 2.3570	78.7187
 2.3560	78.7401
 2.3550	78.8155
 2.3540	78.8457
 2.3530	78.7633
 2.3520	78.7399
 2.3510	78.7285
 2.3500	78.7410
 2.3490	78.8345
 2.3480	78.8557
 2.3470	78.8224
 2.3460	78.8450
 2.3450	78.8757
 2.3440	78.8449
 2.3430	78.8518
 2.3420	78.8342
 2.3410	78.8010
 2.3400	78.8149
 2.3390	78.8234
 2.3380	78.8193
 2.3370	78.8769
 2.3360	78.8713
 2.3350	78.8449
 2.3340	78.7753
 2.3330	78.7806
 2.3320	78.8016
 2.3310	78.8095
 2.3300	78.8143
 2.3290	78.8009
 2.3280	78.8015
 2.3270	78.8353
 2.3260	78.8479
 2.3250	78.8225
 2.3240	78.7927
 2.3230	78.7747
 2.3220	78.7451
 2.3210	78.7348
 2.3200	78.7492
 2.3190	78.7779
 2.3180	78.7678
 2.3170	78.7554
 2.3160	78.7439
 2.3150	78.6971
 2.3140	78.6599
 2.3130	78.6518
 2.3120	78.7217
 2.3110	78.6587
 2.3100	78.6969
 2.3090	78.6968
 2.3080	78.6757
 2.3070	78.7156
 2.3060	78.7389
 2.3050	78.7350
 2.3040	78.6927
 2.3030	78.7353
 2.3020	78.7459
 2.3010	78.7054
 2.3000	78.7007
 2.2990	78.7131
 2.2980	78.6545
 2.2970	78.7182
 2.2960	78.7101
 2.2950	78.7413
 2.2940	78.6959
 2.2930	78.6653
 2.2920	78.7027
 2.2910	78.7066
 2.2900	78.6072
 2.2890	78.6467
 2.2880	78.6421
 2.2870	78.6197
 2.2860	78.5774
 2.2850	78.5932
 2.2840	78.5997
 2.2830	78.5524
 2.2820	78.6031
 2.2810	78.6231
 2.2800	78.6275
 2.2790	78.6345
 2.2780	78.5709
 2.2770	78.6393
 2.2760	78.6193
 2.2750	78.6314
 2.2740	78.5958
 2.2730	78.6378
 2.2720	78.5648
 2.2710	78.6291
 2.2700	78.5537
 2.2690	78.5697
 2.2680	78.5952
 2.2670	78.5212
 2.2660	78.5389
 2.2650	78.5379
 2.2640	78.5126
 2.2630	78.5242
 2.2620	78.5500
 2.2610	78.6013
 2.2600	78.6317
 2.2590	78.5406
 2.2580	78.5510
 2.2570	78.6278
 2.2560	78.6049
 2.2550	78.5975
 2.2540	78.4813
 2.2530	78.4838
 2.2520	78.5640
 2.2510	78.5810
 2.2500	78.5308
 2.2490	78.5643
 2.2480	78.5244
 2.2470	78.5996
 2.2460	78.5643
 2.2450	78.5880
 2.2440	78.5295
 2.2430	78.5786
 2.2420	78.6408
 2.2410	78.5351
 2.2400	78.6290
 2.2390	78.6400
 2.2380	78.6104
 2.2370	78.6648
 2.2360	78.5910
 2.2350	78.6207
 2.2340	78.5926
 2.2330	78.6465
 2.2320	78.6294
 2.2310	78.6851
 2.2300	78.6584
 2.2290	78.6736
 2.2280	78.6402
 2.2270	78.5921
 2.2260	78.6827
 2.2250	78.6998
 2.2240	78.7367
 2.2230	78.7241
 2.2220	78.6584
 2.2210	78.7217
 2.2200	78.6556
 2.2190	78.6856
 2.2180	78.7452
 2.2170	78.7372
 2.2160	78.7174
 2.2150	78.7565
 2.2140	78.6830
 2.2130	78.8379
 2.2120	78.8468
 2.2110	78.8287
 2.2100	78.9232
 2.2090	78.7825
 2.2080	78.8498
 2.2070	78.8213
 2.2060	78.9226
 2.2050	79.0000
 2.2040	78.9844
 2.2030	78.9271
 2.2020	79.0592
 2.2010	79.0434
 2.2000	79.0955
 2.1990	79.1267
 2.1980	79.1076
 2.1970	78.9605
 2.1960	79.1115
 2.1950	79.0095
 2.1940	79.0925
 2.1930	79.0767
 2.1920	79.1127
 2.1910	79.1458
 2.1900	79.1496
 2.1890	79.2601
 2.1880	79.2024
 2.1870	79.2235
 2.1860	79.1714
 2.1850	79.2598
 2.1840	79.1615
 2.1830	79.1960
 2.1820	79.2493
 2.1810	79.3660
 2.1800	79.2764
 2.1790	79.4352
 2.1780	79.3456
 2.1770	79.3746
 2.1760	79.3816
 2.1750	79.3532
 2.1740	79.4466
 2.1730	79.4197
 2.1720	79.4692
 2.1710	79.5731
 2.1700	79.5460
 2.1690	79.5555
 2.1680	79.5585
 2.1670	79.6352
 2.1660	79.6499
 2.1650	79.6307
 2.1640	79.6237
 2.1630	79.7123
 2.1620	79.7171
 2.1610	79.8495
 2.1600	79.7981
 2.1590	79.7206
 2.1580	79.7735
 2.1570	79.8655
 2.1560	79.9228
 2.1550	79.9533
 2.1540	79.9584
 2.1530	79.8141
 2.1520	79.8709
 2.1510	79.8959
 2.1500	79.9158
 2.1490	79.9470
 2.1480	79.9286
 2.1470	79.9550
 2.1460	80.0188
 2.1450	79.9718
 2.1440	79.9722
 2.1430	80.0226
 2.1420	79.9745
 2.1410	79.9174
 2.1400	79.9755
 2.1390	79.9392
 2.1380	79.9444
 2.1370	79.9289
 2.1360	79.8564
 2.1350	79.8097
 2.1340	79.8613
 2.1330	79.8111
 2.1320	79.8231
 2.1310	79.8333
 2.1300	79.8758
 2.1290	79.7278
 2.1280	79.7527
 2.1270	79.6468
 2.1260	79.6297
 2.1250	79.6841
 2.1240	79.6308
 2.1230	79.5279
 2.1220	79.4669
 2.1210	79.4322
 2.1200	79.4221
 2.1190	79.3768
 2.1180	79.3121
 2.1170	79.2847
 2.1160	79.2733
 2.1150	79.2068
 2.1140	79.1358
 2.1130	79.1475
 2.1120	79.1279
 2.1110	79.0535
 2.1100	79.0037
 2.1090	78.9641
 2.1080	78.9134
 2.1070	78.8865
 2.1060	78.8244
 2.1050	78.7314
 2.1040	78.7157
 2.1030	78.7782
 2.1020	78.6886
 2.1010	78.6618
 2.1000	78.6188
 2.0990	78.5693
 2.0980	78.5486
 2.0970	78.5843
 2.0960	78.5857
 2.0950	78.5917
 2.0940	78.5920
 2.0930	78.6014
 2.0920	78.6791
 2.0910	78.6938
 2.0900	78.7413
 2.0890	78.7858
 2.0880	78.7777
 2.0870	78.7363
 2.0860	78.7340
 2.0850	78.7269
 2.0840	78.7498
 2.0830	78.8447
 2.0820	78.8310
 2.0810	78.7885
 2.0800	78.8327
 2.0790	78.8403
 2.0780	78.8060
 2.0770	78.8376
 2.0760	78.8766
 2.0750	78.9153
 2.0740	78.8691
 2.0730	78.8338
 2.0720	78.8769
 2.0710	78.9225
 2.0700	78.9519
 2.0690	78.9975
 2.0680	78.9996
 2.0670	78.9847
 2.0660	79.0004
 2.0650	79.0353
 2.0640	79.0193
 2.0630	78.9683
 2.0620	79.0147
 2.0610	79.0346
 2.0600	79.0329
 2.0590	79.0036
 2.0580	79.0169
 2.0570	79.0424
 2.0560	79.0607
 2.0550	79.1352
 2.0540	79.1399
 2.0530	79.0945
 2.0520	79.0968
 2.0510	79.1379
 2.0500	79.2186
 2.0490	79.2140
 2.0480	79.1916
 2.0470	79.1933
 2.0460	79.1883
 2.0450	79.1641
 2.0440	79.1852
 2.0430	79.1641
 2.0420	79.2251
 2.0410	79.2448
 2.0400	79.2785
 2.0390	79.3113
 2.0380	79.2869
 2.0370	79.2398
 2.0360	79.2365
 2.0350	79.2192
 2.0340	79.2647
 2.0330	79.2819
 2.0320	79.2221
 2.0310	79.2762
 2.0300	79.3195
 2.0290	79.3290
 2.0280	79.3282
 2.0270	79.3112
 2.0260	79.3285
 2.0250	79.2848
 2.0240	79.2571
 2.0230	79.3107
 2.0220	79.2899
 2.0210	79.3833
 2.0200	79.3892
 2.0190	79.3273
 2.0180	79.2930
 2.0170	79.2908
 2.0160	79.2947
 2.0150	79.3344
 2.0140	79.3378
 2.0130	79.2855
 2.0120	79.3479
 2.0110	79.3520
 2.0100	79.3032
 2.0090	79.2481
 2.0080	79.3099
 2.0070	79.3622
 2.0060	79.3116
 2.0050	79.3410
 2.0040	79.4024
 2.0030	79.3153
 2.0020	79.3790
 2.0010	79.3456
 2.0000	79.3905
 1.9990	79.2747
 1.9980	79.3375
 1.9970	79.3018
 1.9960	79.3007
 1.9950	79.3273
 1.9940	79.2385
 1.9930	79.1650
 1.9920	79.3024
 1.9910	79.3056
 1.9900	79.2449
 1.9890	79.1226
 1.9880	79.2310
 1.9870	79.2283
 1.9860	79.2024
 1.9850	79.1654
 1.9840	79.1283
 1.9830	79.1340
 1.9820	79.1411
 1.9810	79.1725
 1.9800	79.1497
 1.9790	79.1354
 1.9780	79.1140
 1.9770	79.1133
 1.9760	79.1018
 1.9750	79.0945
 1.9740	79.0880
 1.9730	79.0386
 1.9720	79.1320
 1.9710	79.0457
 1.9700	79.0649
 1.9690	79.1058
 1.9680	79.1330
 1.9670	79.0732
 1.9660	79.0461
 1.9650	79.0231
 1.9640	79.1003
 1.9630	78.9277
 1.9620	79.0573
 1.9610	79.0186
 1.9600	79.0681
 1.9590	79.0399
 1.9580	79.0542
 1.9570	79.1309
 1.9560	79.0426
 1.9550	79.0848
 1.9540	79.0783
 1.9530	79.0835
 1.9520	79.0432
 1.9510	79.0185
 1.9500	79.0915
 1.9490	79.0574
 1.9480	79.0445
 1.9470	79.0569
 1.9460	78.9663
 1.9450	78.9972
 1.9440	79.0230
 1.9430	79.0292
 1.9420	79.0611
 1.9410	79.0671
 1.9400	79.0113
 1.9390	79.1185
 1.9380	78.9789
 1.9370	78.9941
 1.9360	79.0867
 1.9350	79.0772
 1.9340	79.0210
 1.9330	79.2028
 1.9320	79.1868
 1.9310	79.0151
 1.9300	79.1238
 1.9290	79.0448
 1.9280	79.0653
 1.9270	79.1055
 1.9260	79.1407
 1.9250	79.0685
 1.9240	79.1934
 1.9230	79.1405
 1.9220	79.1480
 1.9210	79.0818
 1.9200	79.2906
 1.9190	79.2393
 1.9180	79.2062
 1.9170	79.2914
 1.9160	79.2581
 1.9150	79.2190
 1.9140	79.3042
 1.9130	79.2611
 1.9120	79.2947
 1.9110	79.2270
 1.9100	79.2747
 1.9090	79.3397
 1.9080	79.3180
 1.9070	79.2407
 1.9060	79.4289
 1.9050	79.3394
 1.9040	79.3670
 1.9030	79.2618
 1.9020	79.2796
 1.9010	79.3944
 1.9000	79.4387
 1.8990	79.4243
 1.8980	79.3719
 1.8970	79.4034
 1.8960	79.5537
 1.8950	79.4679
 1.8940	79.4974
 1.8930	79.4859
 1.8920	79.4046
 1.8910	79.4357
 1.8900	79.4725
 1.8890	79.4931
 1.8880	79.5461
 1.8870	79.4792
 1.8860	79.5281
 1.8850	79.5515
 1.8840	79.6216
 1.8830	79.5994
 1.8820	79.5917
 1.8810	79.5873
 1.8800	79.6150
 1.8790	79.5841
 1.8780	79.5853
 1.8770	79.5936
 1.8760	79.6019
 1.8750	79.5836
 1.8740	79.6354
 1.8730	79.6779
 1.8720	79.6300
 1.8710	79.6645
 1.8700	79.6844
 1.8690	79.7043
 1.8680	79.7037
 1.8670	79.6396
 1.8660	79.7517
 1.8650	79.7382
 1.8640	79.7488
 1.8630	79.7163
 1.8620	79.7433
 1.8610	79.7012
 1.8600	79.7274
 1.8590	79.7266
 1.8580	79.6712
 1.8570	79.6728
 1.8560	79.7552
 1.8550	79.7212
 1.8540	79.7382
 1.8530	79.7892
 1.8520	79.7505
 1.8510	79.7335
 1.8500	79.8060
 1.8490	79.7724
 1.8480	79.7872
 1.8470	79.7738
 1.8460	79.7510
 1.8450	79.7820
 1.8440	79.7660
 1.8430	79.7391
 1.8420	79.8215
 1.8410	79.8034
 1.8400	79.7795
 1.8390	79.7523
 1.8380	79.7599
 1.8370	79.7273
 1.8360	79.7611
 1.8350	79.7784
 1.8340	79.7780
 1.8330	79.7239
 1.8320	79.7256
 1.8310	79.7365
 1.8300	79.7814
 1.8290	79.8151
 1.8280	79.8053
 1.8270	79.8204
 1.8260	79.8264
 1.8250	79.7946
 1.8240	79.8453
 1.8230	79.8402
 1.8220	79.8278
 1.8210	79.8144
 1.8200	79.8394
 1.8190	79.8505
 1.8180	79.8174
 1.8170	79.8037
 1.8160	79.8291
 1.8150	79.8595
 1.8140	79.9030
 1.8130	79.8792
 1.8120	79.8827
 1.8110	79.8327
 1.8100	79.8537
 1.8090	79.8824
 1.8080	79.8900
 1.8070	79.8574
 1.8060	79.8956
 1.8050	79.9147
 1.8040	79.8518
 1.8030	79.8423
 1.8020	79.8505
 1.8010	79.8682
 1.8000	79.9173
 1.7990	79.8850
 1.7980	79.8576
 1.7970	79.8874
 1.7960	79.9108
 1.7950	79.8786
 1.7940	79.8515
 1.7930	79.8985
 1.7920	79.9159
 1.7910	79.8714
 1.7900	79.8510
 1.7890	79.8380
 1.7880	79.8476
 1.7870	79.8841
 1.7860	79.8574
 1.7850	79.8294
 1.7840	79.7871
 1.7830	79.7399
 1.7820	79.7636
 1.7810	79.8153
 1.7800	79.8452
 1.7790	79.8499
 1.7780	79.8583
 1.7770	79.8735
 1.7760	79.8240
 1.7750	79.7791
 1.7740	79.7998
 1.7730	79.8013
 1.7720	79.7661
 1.7710	79.7625
 1.7700	79.7720
 1.7690	79.7845
 1.7680	79.8137
 1.7670	79.8031
 1.7660	79.7692
 1.7650	79.8289
 1.7640	79.8120
 1.7630	79.7993
 1.7620	79.8247
 1.7610	79.8440
 1.7600	79.7855
 1.7590	79.7804
 1.7580	79.8371
 1.7570	79.8169
 1.7560	79.7415
 1.7550	79.8530
 1.7540	79.8873
 1.7530	79.8231
 1.7520	79.7914
 1.7510	79.7720
 1.7500	79.7979
 1.7490	79.8715
 1.7480	79.9118
 1.7470	79.8674
 1.7460	79.9038
 1.7450	79.8744
 1.7440	79.8418
 1.7430	79.8672
 1.7420	79.8609
 1.7410	79.8771
 1.7400	79.8617
 1.7390	79.9133
 1.7380	79.8889
 1.7370	79.8786
 1.7360	79.9050
 1.7350	79.9280
 1.7340	79.8816
 1.7330	79.8598
 1.7320	79.9358
 1.7310	79.9447
 1.7300	79.8655
 1.7290	79.9078
 1.7280	79.8984
 1.7270	79.8809
 1.7260	79.8967
 1.7250	79.9225
 1.7240	79.9477
 1.7230	79.9667
 1.7220	79.9384
 1.7210	79.9070
 1.7200	79.9580
 1.7190	79.9397
 1.7180	79.9198
 1.7170	79.9776
 1.7160	80.0142
 1.7150	79.9582
 1.7140	79.9345
 1.7130	79.8308
 1.7120	79.8904
 1.7110	79.9088
 1.7100	79.8629
 1.7090	79.9603
 1.7080	79.9213
 1.7070	79.8992
 1.7060	79.9019
 1.7050	79.9143
 1.7040	79.9241
 1.7030	79.9373
 1.7020	79.8369
 1.7010	79.8149
 1.7000	79.7951
 1.6990	79.9241
 1.6980	79.9320
 1.6970	79.9148
 1.6960	79.9063
 1.6950	79.9024
 1.6940	79.8547
 1.6930	79.8616
 1.6920	79.9003
 1.6910	79.8682
 1.6900	79.8001
 1.6890	79.8679
 1.6880	79.8247
 1.6870	79.9334
 1.6860	79.9037
 1.6850	79.8764
 1.6840	79.8559
 1.6830	79.8854
 1.6820	79.8969
 1.6810	79.8857
 1.6800	79.8485
 1.6790	79.8071
 1.6780	79.7709
 1.6770	79.8921
 1.6760	79.9029
 1.6750	79.9041
 1.6740	79.8259
 1.6730	79.9115
 1.6720	79.9549
 1.6710	79.9470
 1.6700	79.8134
 1.6690	79.8147
 1.6680	79.8907
 1.6670	79.9393
 1.6660	79.8599
 1.6650	79.8803
 1.6640	79.8475
 1.6630	79.8656
 1.6620	79.8881
 1.6610	79.8192
 1.6600	79.9017
 1.6590	79.9082
 1.6580	79.8616
 1.6570	79.8178
 1.6560	79.8190
 1.6550	79.8967
 1.6540	79.8865
 1.6530	79.8623
 1.6520	79.9000
 1.6510	79.8706
 1.6500	79.7231
 1.6490	79.7919
 1.6480	79.8547
 1.6470	79.8001
 1.6460	79.8336
 1.6450	79.9031
 1.6440	79.9640
 1.6430	79.8133
 1.6420	79.9059
 1.6410	79.7714
 1.6400	79.9256
 1.6390	79.9143
 1.6380	79.8800
 1.6370	79.9217
 1.6360	79.8243
 1.6350	79.9053
 1.6340	79.8293
 1.6330	79.8809
 1.6320	79.9358
 1.6310	79.9085
 1.6300	79.8660
 1.6290	79.8338
 1.6280	79.9403
 1.6270	79.9067
 1.6260	79.8726
 1.6250	79.8769
 1.6240	79.9221
 1.6230	79.8527
 1.6220	79.8729
 1.6210	79.7558
 1.6200	79.9489
 1.6190	79.8350
 1.6180	79.8605
 1.6170	79.9821
 1.6160	79.8769
 1.6150	79.9369
 1.6140	79.8748
 1.6130	79.9035
 1.6120	79.7861
 1.6110	79.8869
 1.6100	79.9706
 1.6090	79.8292
 1.6080	79.8758
 1.6070	79.9030
 1.6060	79.8792
 1.6050	79.9350
 1.6040	79.9176
 1.6030	79.9144
 1.6020	79.8487
 1.6010	79.8623
 1.6000	79.8547
 1.5990	79.9965
 1.5980	79.9539
 1.5970	79.8566
 1.5960	79.9510
 1.5950	79.9195
 1.5940	79.8724
 1.5930	80.0104
 1.5920	79.8776
 1.5910	79.8626
 1.5900	79.8383
 1.5890	79.9356
 1.5880	79.8702
 1.5870	79.9094
 1.5860	79.8405
 1.5850	79.8689
 1.5840	79.9243
 1.5830	79.9311
 1.5820	79.8796
 1.5810	79.8758
 1.5800	79.8877
 1.5790	79.8933
 1.5780	79.9158
 1.5770	79.8971
 1.5760	79.9354
 1.5750	79.8863
 1.5740	79.8382
 1.5730	79.8211
 1.5720	79.8938
 1.5710	79.8839
 1.5700	79.8150
 1.5690	79.9025
 1.5680	79.8503
 1.5670	79.8070
 1.5660	79.8149
 1.5650	79.8787
 1.5640	79.8692
 1.5630	79.8955
 1.5620	79.9145
 1.5610	79.8994
 1.5600	79.9608
 1.5590	79.9944
 1.5580	79.8891
 1.5570	79.9000
 1.5560	79.8676
 1.5550	79.8682
 1.5540	79.8765
 1.5530	79.9121
 1.5520	79.9556
 1.5510	79.8679
 1.5500	79.8076
 1.5490	79.8174
 1.5480	79.8108
 1.5470	79.8264
 1.5460	79.8600
 1.5450	79.8192
 1.5440	79.8411
 1.5430	79.9065
 1.5420	79.8572
 1.5410	79.8470
 1.5400	79.8077
 1.5390	79.8209
 1.5380	79.8011
 1.5370	79.7682
 1.5360	79.7906
 1.5350	79.7862
 1.5340	79.7874
 1.5330	79.8437
 1.5320	79.8654
 1.5310	79.9365
 1.5300	79.8705
 1.5290	79.8182
 1.5280	79.8015
 1.5270	79.7661
 1.5260	79.7610
 1.5250	79.7843
 1.5240	79.8001
 1.5230	79.8507
 1.5220	79.8611
 1.5210	79.8451
 1.5200	79.7999
 1.5190	79.7958
 1.5180	79.8196
 1.5170	79.8339
 1.5160	79.8252
 1.5150	79.8456
 1.5140	79.8451
 1.5130	79.8459
 1.5120	79.7741
 1.5110	79.7616
 1.5100	79.7845
 1.5090	79.8058
 1.5080	79.8181
 1.5070	79.8004
 1.5060	79.8578
 1.5050	79.8360
 1.5040	79.7688
 1.5030	79.7856
 1.5020	79.7897
 1.5010	79.8000
 1.5000	79.7800
 1.4990	79.7328
 1.4980	79.7197
 1.4970	79.8111
 1.4960	79.8148
 1.4950	79.7866
 1.4940	79.8211
 1.4930	79.7536
 1.4920	79.7713
 1.4910	79.7520
 1.4900	79.7288
 1.4890	79.7446
 1.4880	79.7976
 1.4870	79.8379
 1.4860	79.7910
 1.4850	79.7666
 1.4840	79.8145
 1.4830	79.8680
 1.4820	79.8155
 1.4810	79.7753
 1.4800	79.7691
 1.4790	79.8076
 1.4780	79.8398
 1.4770	79.7340
 1.4760	79.7421
 1.4750	79.7838
 1.4740	79.7581
 1.4730	79.8093
 1.4720	79.7472
 1.4710	79.7458
 1.4700	79.7633
 1.4690	79.7289
 1.4680	79.7304
 1.4670	79.7217
 1.4660	79.7750
 1.4650	79.7955
 1.4640	79.7525
 1.4630	79.7707
 1.4620	79.7185
 1.4610	79.7772
 1.4600	79.7885
 1.4590	79.7660
 1.4580	79.7765
 1.4570	79.8018
 1.4560	79.7720
 1.4550	79.7447
 1.4540	79.8071
 1.4530	79.7929
 1.4520	79.7207
 1.4510	79.7206
 1.4500	79.7765
 1.4490	79.7764
 1.4480	79.7708
 1.4470	79.7382
 1.4460	79.7377
 1.4450	79.7506
 1.4440	79.7411
 1.4430	79.7514
 1.4420	79.7070
 1.4410	79.6677
 1.4400	79.7773
 1.4390	79.7941
 1.4380	79.7895
 1.4370	79.7351
 1.4360	79.6943
 1.4350	79.7095
 1.4340	79.7732
 1.4330	79.8075
 1.4320	79.7725
 1.4310	79.7981
 1.4300	79.7560
 1.4290	79.7165
 1.4280	79.7679
 1.4270	79.7540
 1.4260	79.7222
 1.4250	79.6831
 1.4240	79.7626
 1.4230	79.7228
 1.4220	79.8172
 1.4210	79.7386
 1.4200	79.7061
 1.4190	79.7922
 1.4180	79.7862
 1.4170	79.7090
 1.4160	79.7348
 1.4150	79.7582
 1.4140	79.7238
 1.4130	79.7600
 1.4120	79.6816
 1.4110	79.7015
 1.4100	79.6694
 1.4090	79.7302
 1.4080	79.7543
 1.4070	79.7776
 1.4060	79.6615
 1.4050	79.7362
 1.4040	79.7983
 1.4030	79.7211
 1.4020	79.8348
 1.4010	79.7851
 1.4000	79.7827
 1.3990	79.7867
 1.3980	79.7468
 1.3970	79.7502
 1.3960	79.8086
 1.3950	79.8553
 1.3940	79.8470
 1.3930	79.7939
 1.3920	79.8378
 1.3910	79.9422
 1.3900	79.9317
 1.3890	79.8120
 1.3880	79.8324
 1.3870	79.9152
 1.3860	79.8735
 1.3850	79.8880
 1.3840	79.8066
 1.3830	79.8438
 1.3820	79.7949
 1.3810	79.7969
 1.3800	79.8023
 1.3790	79.8480
 1.3780	79.8637
 1.3770	79.7100
 1.3760	79.8195
 1.3750	79.8486
 1.3740	79.7865
 1.3730	79.8486
 1.3720	79.8033
 1.3710	79.8415
 1.3700	79.7975
 1.3690	79.8120
 1.3680	79.9228
 1.3670	79.8751
 1.3660	79.9128
 1.3650	79.8668
 1.3640	79.8238
 1.3630	79.8154
 1.3620	79.7255
 1.3610	79.8065
 1.3600	79.9070
 1.3590	79.8140
 1.3580	79.8264
 1.3570	79.8194
 1.3560	79.8054
 1.3550	79.7996
 1.3540	79.8032
 1.3530	79.7824
 1.3520	79.7931
 1.3510	79.8351
 1.3500	79.8941
 1.3490	79.7675
 1.3480	79.7484
 1.3470	79.7660
 1.3460	79.8363
 1.3450	79.7871
 1.3440	79.8073
 1.3430	79.8398
 1.3420	79.8339
 1.3410	79.8299
 1.3400	79.7699
 1.3390	79.8595
 1.3380	79.7871
 1.3370	79.7501
 1.3360	79.7877
 1.3350	79.7747
 1.3340	79.7259
 1.3330	79.7987
 1.3320	79.7987
 1.3310	79.6906
 1.3300	79.8213
 1.3290	79.8449
 1.3280	79.7934
 1.3270	79.7789
 1.3260	79.8361
 1.3250	79.8070
 1.3240	79.8324
 1.3230	79.7930
 1.3220	79.7952
 1.3210	79.8122
 1.3200	79.8311
 1.3190	79.7362
 1.3180	79.7537
 1.3170	79.8017
 1.3160	79.8315
 1.3150	79.8403
 1.3140	79.7928
 1.3130	79.7408
 1.3120	79.8455
 1.3110	79.7675
 1.3100	79.7888
 1.3090	79.7304
 1.3080	79.8294
 1.3070	79.7868
 1.3060	79.7618
 1.3050	79.7612
 1.3040	79.7552
 1.3030	79.7923
 1.3020	79.7719
 1.3010	79.7694
 1.3000	79.8280
 1.2990	79.7590
 1.2980	79.8256
 1.2970	79.7664
 1.2960	79.7137
 1.2950	79.7341
 1.2940	79.7402
 1.2930	79.7618
 1.2920	79.7697
 1.2910	79.7722
 1.2900	79.7602
 1.2890	79.7281
 1.2880	79.7190
 1.2870	79.7396
 1.2860	79.7700
 1.2850	79.7720
 1.2840	79.7323
 1.2830	79.7415
 1.2820	79.7922
 1.2810	79.8154
 1.2800	79.7667
 1.2790	79.7295
 1.2780	79.7685
 1.2770	79.7608
 1.2760	79.7275
 1.2750	79.6804
 1.2740	79.7088
 1.2730	79.7722
 1.2720	79.7420
 1.2710	79.7982
 1.2700	79.7807
 1.2690	79.7227
 1.2680	79.7338
 1.2670	79.7653
 1.2660	79.7415
 1.2650	79.7290
 1.2640	79.7432
 1.2630	79.7738
 1.2620	79.8156
 1.2610	79.7004
 1.2600	79.8185
 1.2590	79.7936
 1.2580	79.7137
 1.2570	79.7629
 1.2560	79.7753
 1.2550	79.7152
 1.2540	79.7910
 1.2530	79.7371
 1.2520	79.7540
 1.2510	79.7432
 1.2500	79.7769
 1.2490	79.7691
 1.2480	79.7607
 1.2470	79.7156
 1.2460	79.7653
 1.2450	79.7625
 1.2440	79.7245
 1.2430	79.7560
 1.2420	79.7492
 1.2410	79.6836
 1.2400	79.7337
 1.2390	79.7633
 1.2380	79.7370
 1.2370	79.7378
 1.2360	79.7404
 1.2350	79.7097
 1.2340	79.7133
 1.2330	79.7549
 1.2320	79.7738
 1.2310	79.7558
 1.2300	79.7236
 1.2290	79.6474
 1.2280	79.6704
 1.2270	79.7526
 1.2260	79.7591
 1.2250	79.7278
 1.2240	79.7237
 1.2230	79.7108
 1.2220	79.7179
 1.2210	79.7496
 1.2200	79.7840
 1.2190	79.7712
 1.2180	79.7658
 1.2170	79.7529
 1.2160	79.7478
 1.2150	79.7388
 1.2140	79.7460
 1.2130	79.7232
 1.2120	79.7237
 1.2110	79.7515
 1.2100	79.7502
 1.2090	79.7411
 1.2080	79.7268
 1.2070	79.7464
 1.2060	79.7334
 1.2050	79.7423
 1.2040	79.7245
 1.2030	79.6848
 1.2020	79.7219
 1.2010	79.7230
 1.2000	79.7059
 1.1990	79.7703
 1.1980	79.7246
 1.1970	79.6653
 1.1960	79.7522
 1.1950	79.7678
 1.1940	79.7297
 1.1930	79.7503
 1.1920	79.6953
 1.1910	79.7061
 1.1900	79.7701
 1.1890	79.7716
 1.1880	79.6937
 1.1870	79.7317
 1.1860	79.7351
 1.1850	79.7598
 1.1840	79.8683
 1.1830	79.8424
 1.1820	79.7323
 1.1810	79.8021
 1.1800	79.7780
 1.1790	79.7578
 1.1780	79.7753
 1.1770	79.7863
 1.1760	79.7237
 1.1750	79.6816
 1.1740	79.7499
 1.1730	79.7644
 1.1720	79.7397
 1.1710	79.7787
 1.1700	79.7786
 1.1690	79.7247
 1.1680	79.7959
 1.1670	79.7691
 1.1660	79.7274
 1.1650	79.7778
 1.1640	79.7819
 1.1630	79.8512
 1.1620	79.7847
 1.1610	79.8108
 1.1600	79.7810
 1.1590	79.7870
 1.1580	79.8327
 1.1570	79.7922
 1.1560	79.7485
 1.1550	79.8008
 1.1540	79.8284
 1.1530	79.8635
 1.1520	79.8078
 1.1510	79.7556
 1.1500	79.7335
 1.1490	79.7448
 1.1480	79.8356
 1.1470	79.8202
 1.1460	79.7576
 1.1450	79.7794
 1.1440	79.8132
 1.1430	79.8053
 1.1420	79.8420
 1.1410	79.8279
 1.1400	79.8151
 1.1390	79.8345
 1.1380	79.8424
 1.1370	79.8438
 1.1360	79.7638
 1.1350	79.7408
 1.1340	79.8466
 1.1330	79.8062
 1.1320	79.7912
 1.1310	79.7871
 1.1300	79.7937
 1.1290	79.8402
 1.1280	79.7837
 1.1270	79.7950
 1.1260	79.7872
 1.1250	79.7535
 1.1240	79.7636
 1.1230	79.7958
 1.1220	79.8115
 1.1210	79.8191
 1.1200	79.8101
 1.1190	79.8129
 1.1180	79.8069
 1.1170	79.8184
 1.1160	79.7854
 1.1150	79.8192
 1.1140	79.8278
 1.1130	79.8023
 1.1120	79.7970
 1.1110	79.8131
 1.1100	79.7873
 1.1090	79.8893
 1.1080	79.8017
 1.1070	79.8558
 1.1060	79.7586
 1.1050	79.8322
 1.1040	79.8442
 1.1030	79.8881
 1.1020	79.8118
 1.1010	79.8350
 1.1000	79.8764
 1.0990	79.8105
 1.0980	79.8771
 1.0970	79.8226
 1.0960	79.7165
 1.0950	79.7854
 1.0940	79.8387
 1.0930	79.7981
 1.0920	79.7487
 1.0910	79.8282
 1.0900	79.8531
 1.0890	79.8170
 1.0880	79.8533
 1.0870	79.8885
 1.0860	79.7792
 1.0850	79.9003
 1.0840	79.8817
 1.0830	79.8447
 1.0820	79.7799
 1.0810	79.8268
 1.0800	79.9044
 1.0790	79.8810
 1.0780	79.8816
 1.0770	79.8483
 1.0760	79.9384
 1.0750	79.8417
 1.0740	79.8561
 1.0730	79.8977
 1.0720	79.8489
 1.0710	79.7912
 1.0700	79.7911
 1.0690	79.8973
 1.0680	79.7244
 1.0670	79.8761
 1.0660	79.7441
 1.0650	79.8492
 1.0640	79.8060
 1.0630	79.9015
 1.0620	79.8145
 1.0610	79.9255
 1.0600	79.8414
 1.0590	79.7939
 1.0580	79.8251
 1.0570	79.9094
 1.0560	79.9512
 1.0550	79.9009
 1.0540	79.8632
 1.0530	79.8623
 1.0520	79.8430
 1.0510	79.8201
 1.0500	79.8685
 1.0490	79.8204
 1.0480	79.8169
 1.0470	79.8804
 1.0460	79.8026
 1.0450	79.8406
 1.0440	79.9162
 1.0430	79.9133
 1.0420	79.7996
 1.0410	79.8771
 1.0400	79.8397
 1.0390	79.9262
 1.0380	79.8615
 1.0370	79.8472
 1.0360	79.8370
 1.0350	79.9088
 1.0340	79.8588
 1.0330	79.8930
 1.0320	79.8581
 1.0310	79.8559
 1.0300	79.8804
 1.0290	79.9243
 1.0280	79.8321
 1.0270	79.8508
 1.0260	79.8557
 1.0250	79.9031
 1.0240	79.8551
 1.0230	79.9189
 1.0220	79.8349
 1.0210	79.8730
 1.0200	79.9081
 1.0190	79.8360
 1.0180	79.8376
 1.0170	79.9425
 1.0160	79.9243
 1.0150	79.8971
 1.0140	79.8726
 1.0130	79.8644
 1.0120	79.8661
 1.0110	79.8879
 1.0100	79.8501
 1.0090	79.8401
 1.0080	79.8113
 1.0070	79.8113
 1.0060	79.8539
 1.0050	79.8578
 1.0040	79.8300
 1.0030	79.9146
 1.0020	79.9872
 1.0010	79.9979
 1.0000	79.8847
 0.9990	79.9136
 0.9980	79.9891
 0.9970	79.9104
 0.9960	79.8359
 0.9950	79.8903
 0.9940	79.9211
 0.9930	79.9928
 0.9920	79.9618
 0.9910	79.9490
 0.9900	79.9699
 0.9890	79.9358
 0.9880	79.8950
 0.9870	79.9230
 0.9860	79.9343
 0.9850	79.8823
 0.9840	79.9223
 0.9830	79.9602
 0.9820	79.9531
 0.9810	79.9124
 0.9800	79.9107
 0.9790	79.9223
 0.9780	79.9106
 0.9770	79.9411
 0.9760	79.9056
 0.9750	79.8595
 0.9740	79.9266
 0.9730	79.9566
 0.9720	79.9616
 0.9710	79.9452
 0.9700	79.9170
 0.9690	79.9515
 0.9680	79.8961
 0.9670	79.9409
 0.9660	79.9333
 0.9650	79.9544
 0.9640	79.8752
 0.9630	79.8632
 0.9620	79.9360
 0.9610	79.9244
 0.9600	79.9439
 0.9590	79.9321
 0.9580	79.9491
 0.9570	79.9615
 0.9560	79.9665
 0.9550	79.9605
 0.9540	79.9354
 0.9530	79.9504
 0.9520	79.9445
 0.9510	79.9649
 0.9500	79.9538
 0.9490	79.9566
 0.9480	79.9206
 0.9470	79.8905
 0.9460	79.8937
 0.9450	79.8752
 0.9440	79.8697
 0.9430	79.9226
 0.9420	79.9351
 0.9410	79.9465
 0.9400	79.9672
 0.9390	79.9907
 0.9380	79.9813
 0.9370	79.9521
 0.9360	79.9273
 0.9350	79.9807
 0.9340	79.9931
 0.9330	79.9786
 0.9320	79.9486
 0.9310	79.9551
 0.9300	80.0037
 0.9290	79.9902
 0.9280	79.9445
 0.9270	79.9403
 0.9260	79.9942
 0.9250	80.0059
 0.9240	79.9586
 0.9230	79.9938
 0.9220	79.9823
 0.9210	79.9537
 0.9200	79.9676
 0.9190	79.9552
 0.9180	79.9420
 0.9170	79.9320
 0.9160	79.9821
 0.9150	79.9754
 0.9140	79.9565
 0.9130	79.9422
 0.9120	79.9174
 0.9110	79.9092
 0.9100	79.9596
 0.9090	80.0096
 0.9080	79.9589
 0.9070	79.9237
 0.9060	79.9974
 0.9050	80.0442
 0.9040	79.9734
 0.9030	79.9233
 0.9020	79.9396
 0.9010	79.9750
 0.9000	79.9919
 0.8990	79.9719
 0.8980	79.9699
 0.8970	79.9604
 0.8960	79.9105
 0.8950	79.9517
 0.8940	79.9469
 0.8930	79.9214
 0.8920	80.0139
 0.8910	79.9931
 0.8900	79.9679
 0.8890	79.9205
 0.8880	79.9191
 0.8870	79.9388
 0.8860	79.9556
 0.8850	79.9282
 0.8840	79.9646
 0.8830	79.9554
 0.8820	79.9049
 0.8810	79.9175
 0.8800	79.9906
 0.8790	80.0121
 0.8780	80.0049
 0.8770	79.9861
 0.8760	79.9968
 0.8750	80.0076
 0.8740	80.0469
 0.8730	79.9695
 0.8720	80.0364
 0.8710	80.1164
 0.8700	80.0668
 0.8690	80.0191
 0.8680	80.0536
 0.8670	80.1130
 0.8660	80.0326
 0.8650	80.0362
 0.8640	79.9649
 0.8630	79.9561
 0.8620	80.0329
 0.8610	80.0712
 0.8600	80.2889
 0.8590	80.2921
 0.8580	80.1960
 0.8570	80.1975
 0.8560	80.2865
 0.8550	80.2356
 0.8540	80.1470
 0.8530	80.2355
 0.8520	80.2166
 0.8510	80.1982
 0.8500	80.2018
 0.8490	80.1785
 0.8480	80.1714
 0.8470	80.2118
 0.8460	80.1676
 0.8450	80.2120
 0.8440	80.2401
 0.8430	80.2029
 0.8420	80.2502
 0.8410	80.2269
 0.8400	80.2887
 0.8390	80.2443
 0.8380	80.2546
 0.8370	80.2196
 0.8360	80.2403
 0.8350	80.2561
 0.8340	80.1886
 0.8330	80.1933
 0.8320	80.2237
 0.8310	80.1660
 0.8300	80.1889
 0.8290	80.2277
 0.8280	80.2062
 0.8270	80.2201
 0.8260	80.2515
 0.8250	80.2568
 0.8240	80.2733
 0.8230	80.2588
 0.8220	80.2596
 0.8210	80.2298
 0.8200	80.2448
 0.8190	80.1705
 0.8180	80.2386
 0.8170	80.2473
 0.8160	80.2209
 0.8150	80.2701
 0.8140	80.2730
 0.8130	80.2309
 0.8120	80.2017
 0.8110	80.2375
 0.8100	80.2240
 0.8090	80.2420
 0.8080	80.2285
 0.8070	80.2824
 0.8060	80.2376
 0.8050	80.2929
 0.8040	80.2493
 0.8030	80.2825
 0.8020	80.2668
 0.8010	80.2779
 0.8000	80.2788
 0.7990	80.2415
 0.7980	80.2162
 0.7970	80.2117
 0.7960	80.2222
 0.7950	80.1912
 0.7940	80.1864
 0.7930	80.1910
 0.7920	80.2091
 0.7910	80.1964
 0.7900	80.1480
 0.7890	80.1984
 0.7880	80.1309
 0.7870	80.2702
 0.7860	80.2105
 0.7850	80.2052
 0.7840	80.1990
 0.7830	80.1636
 0.7820	80.1863
 0.7810	80.1902
 0.7800	80.1891
 0.7790	80.1931
 0.7780	80.2196
 0.7770	80.1131
 0.7760	80.1520
 0.7750	80.1568
 0.7740	80.1774
 0.7730	80.1408
 0.7720	80.1526
 0.7710	80.1453
 0.7700	80.1317
 0.7690	80.1231
 0.7680	80.1689
 0.7670	80.1488
 0.7660	80.1479
 0.7650	80.1391
 0.7640	80.1487
 0.7630	80.1193
 0.7620	80.1309
 0.7610	80.1417
 0.7600	80.1475
 0.7590	80.1439
 0.7580	80.1653
 0.7570	80.1401
 0.7560	80.1546
 0.7550	80.1193
 0.7540	80.1028
 0.7530	80.1448
 0.7520	80.1677
 0.7510	80.1467
 0.7500	80.1539
 0.7490	80.1427
 0.7480	80.1583
 0.7470	80.1259
 0.7460	80.1273
 0.7450	80.1490
 0.7440	80.1282
 0.7430	80.1316
 0.7420	80.1192
 0.7410	80.1293
 0.7400	80.1113
 0.7390	80.0997
 0.7380	80.1057
 0.7370	80.1218
 0.7360	80.1097
 0.7350	80.0944
 0.7340	80.1036
 0.7330	80.1278
 0.7320	80.1061
 0.7310	80.1056
 0.7300	80.1239
 0.7290	80.0975
 0.7280	80.0987
 0.7270	80.0871
 0.7260	80.0824
 0.7250	80.1211
 0.7240	80.1195
 0.7230	80.1106
 0.7220	80.1112
 0.7210	80.0947
 0.7200	80.0972
 0.7190	80.0880
 0.7180	80.0986
 0.7170	80.0842
 0.7160	80.1119
 0.7150	80.0921
 0.7140	80.0818
 0.7130	80.0845
 0.7120	80.0831
 0.7110	80.0905
 0.7100	80.0621
 0.7090	80.0809
 0.7080	80.1112
 0.7070	80.0952
 0.7060	80.1023
 0.7050	80.0798
 0.7040	80.0602
 0.7030	80.0742
 0.7020	80.0695
 0.7010	80.0850
 0.7000	80.0839
 0.6990	80.0732
 0.6980	80.0698
 0.6970	80.0855
 0.6960	80.0784
 0.6950	80.0954
 0.6940	80.0761
 0.6930	80.0788
 0.6920	80.0800
 0.6910	80.0604
 0.6900	80.0692
 0.6890	80.0583
 0.6880	80.0605
 0.6870	80.0502
 0.6860	80.0685
 0.6850	80.0673
 0.6840	80.0315
 0.6830	80.0605
 0.6820	80.0672
 0.6810	80.0542
 0.6800	80.0459
 0.6790	80.0444
 0.6780	80.0493
 0.6770	80.0430
 0.6760	80.0516
 0.6750	80.0535
 0.6740	80.0499
 0.6730	80.0568
 0.6720	80.0470
 0.6710	80.0448
 0.6700	80.0458
 0.6690	80.0394
 0.6680	80.0352
 0.6670	80.0340
 0.6660	80.0274
 0.6650	80.0144
 0.6640	80.0161
 0.6630	80.0221
 0.6620	80.0218
 0.6610	80.0218
 0.6600	80.0259
 0.6590	80.0198
 0.6580	80.0296
 0.6570	80.0262
 0.6560	80.0062
 0.6550	80.0062
 0.6540	80.0192
 0.6530	80.0112
 0.6520	80.0143
 0.6510	80.0167
 0.6500	80.0064
 0.6490	79.9959
 0.6480	79.9802
 0.6470	79.9814
 0.6460	79.9992
 0.6450	79.9970
 0.6440	79.9934
 0.6430	79.9932
 0.6420	79.9881
 0.6410	79.9809
 0.6400	79.9828
 0.6390	79.9907
 0.6380	79.9843
 0.6370	79.9891
 0.6360	79.9718
 0.6350	79.9645
 0.6340	79.9729
 0.6330	79.9685
 0.6320	79.9489
 0.6310	79.9485
 0.6300	79.9745
 0.6290	79.9709
 0.6280	79.9500
 0.6270	79.9490
 0.6260	79.9561
 0.6250	79.9571
 0.6240	79.9518
 0.6230	79.9522
 0.6220	79.9432
 0.6210	79.9508
 0.6200	79.9552
 0.6190	79.9265
 0.6180	79.9193
 0.6170	79.9195
 0.6160	79.9084
 0.6150	79.9129
 0.6140	79.9125
 0.6130	79.9071
 0.6120	79.9141
 0.6110	79.9082
 0.6100	79.8982
 0.6090	79.8957
 0.6080	79.8968
 0.6070	79.8946
 0.6060	79.8792
 0.6050	79.8760
 0.6040	79.8741
 0.6030	79.8655
 0.6020	79.8647
 0.6010	79.8695
 0.6000	79.8572
 0.5990	79.8669
 0.5980	79.8990
 0.5970	79.8970
 0.5960	79.9052
 0.5950	79.9127
 0.5940	79.9033
 0.5930	79.9274
 0.5920	79.9231
 0.5910	79.9112
 0.5900	79.8813
 0.5890	79.8787
 0.5880	79.8787
 0.5870	79.8794
 0.5860	79.8704
 0.5850	79.8737
 0.5840	79.8608
 0.5830	79.8595
 0.5820	79.8732
 0.5810	79.8646
 0.5800	79.8645
 0.5790	79.8584
 0.5780	79.8519
 0.5770	79.8419
 0.5760	79.8163
 0.5750	79.8146
 0.5740	79.8085
 0.5730	79.8008
 0.5720	79.8015
 0.5710	79.7960
 0.5700	79.7825
 0.5690	79.7749
 0.5680	79.7733
 0.5670	79.7603
 0.5660	79.7620
 0.5650	79.7611
 0.5640	79.7406
 0.5630	79.7490
 0.5620	79.7337
 0.5610	79.7227
 0.5600	79.7038
 0.5590	79.7004
 0.5580	79.6849
 0.5570	79.6879
 0.5560	79.6907
 0.5550	79.6828
 0.5540	79.6720
 0.5530	79.6681
 0.5520	79.6559
 0.5510	79.6485
 0.5500	79.6321
 0.5490	79.6165
 0.5480	79.6126
 0.5470	79.6033
 0.5460	79.5884
 0.5450	79.5783
 0.5440	79.5702
 0.5430	79.5625
 0.5420	79.5634
 0.5410	79.5601
 0.5400	79.5363
 0.5390	79.5425
 0.5380	79.5461
 0.5370	79.5180
 0.5360	79.5220
 0.5350	79.4976
 0.5340	79.4880
 0.5330	79.4714
 0.5320	79.4785
 0.5310	79.4680
 0.5300	79.4569
 0.5290	79.4405
 0.5280	79.4389
 0.5270	79.4236
 0.5260	79.4066
 0.5250	79.4024
 0.5240	79.4069
 0.5230	79.3968
 0.5220	79.3830
 0.5210	79.3577
 0.5200	79.3347
 0.5190	79.3418
 0.5180	79.3336
 0.5170	79.3067
 0.5160	79.2855
 0.5150	79.2828
 0.5140	79.2926
 0.5130	79.2495
 0.5120	79.2535
 0.5110	79.2508
 0.5100	79.2508
 0.5090	79.2401
 0.5080	79.2088
 0.5070	79.2056
 0.5060	79.1740
 0.5050	79.1772
 0.5040	79.1555
 0.5030	79.1520
 0.5020	79.1440
 0.5010	79.1270
 0.5000	79.0864
 0.4990	79.0904
 0.4980	79.0921
 0.4970	79.0667
 0.4960	79.0543
 0.4950	79.0264
 0.4940	79.0080
 0.4930	79.0153
 0.4920	78.9877
 0.4910	78.9639
 0.4900	78.9431
 0.4890	78.9226
 0.4880	78.9223
 0.4870	78.8945
 0.4860	78.8939
 0.4850	78.8770
 0.4840	78.8350
 0.4830	78.8435
 0.4820	78.8168
 0.4810	78.8071
 0.4800	78.7858
 0.4790	78.7575
 0.4780	78.7587
 0.4770	78.7423
 0.4760	78.7327
 0.4750	78.7352
 0.4740	78.6912
 0.4730	78.6655
 0.4720	78.6724
 0.4710	78.6443
 0.4700	78.6283
 0.4690	78.6067
 0.4680	78.5984
 0.4670	78.5872
 0.4660	78.5605
 0.4650	78.5545
 0.4640	78.5216
 0.4630	78.5149
 0.4620	78.5118
 0.4610	78.4676
 0.4600	78.4237
 0.4590	78.4087
 0.4580	78.3999
 0.4570	78.3726
 0.4560	78.3335
 0.4550	78.3278
 0.4540	78.2928
 0.4530	78.2591
 0.4520	78.2337
 0.4510	78.1967
 0.4500	78.1718
 0.4490	78.1508
 0.4480	78.0996
 0.4470	78.0724
 0.4460	78.0459
 0.4450	77.9920
 0.4440	77.9390
 0.4430	77.9078
 0.4420	77.8603
 0.4410	77.8039
 0.4400	77.7726
 0.4390	77.7390
 0.4380	77.6944
 0.4370	77.6469
 0.4360	77.5922
 0.4350	77.5151
 0.4340	77.5047
 0.4330	77.4350
 0.4320	77.3904
 0.4310	77.3227
 0.4300	77.2513
 0.4290	77.2294
 0.4280	77.1855
 0.4270	77.1260
 0.4260	77.1120
 0.4250	77.0550
 0.4240	77.0217
 0.4230	76.9685
 0.4220	76.9354
 0.4210	76.9061
 0.4200	76.8789
 0.4190	76.8795
 0.4180	76.8419
 0.4170	76.8243
 0.4160	76.7916
 0.4150	76.7921
 0.4140	76.7870
 0.4130	76.7461
 0.4120	76.7429
 0.4110	76.7556
 0.4100	76.7464
 0.4090	76.7202
 0.4080	76.7114
 0.4070	76.6978
 0.4060	76.6825
 0.4050	76.6755
 0.4040	76.6530
 0.4030	76.6361
 0.4020	76.6228
 0.4010	76.6041
 0.4000	76.5761
