Name: Celestite SrSO_4
Type: Mineral
Class: Sulfate
Subclass: None
Particle Size: Fine
Sample No.: SO-5A
Owner: JPL
Wavelength Range: VSWIR
Origin: USA, Utah, Emery County
Collection Date: N/A
Description: Particle size was 0-45um.Collected by Grieger's Inc. Original ASTER Spectral Library name was jpl.beckman.mineral.sulfate.none.fine.so05a.spectrum.txt
Measurement: Hemispherical reflectance
First Column: X
Second Column: Y
X Units: Wavelength (micrometers)
Y Units:Reflectance (percent)
First X Value:  0.4000
Last X Value:  2.5000
Number of X Values: 826
Additional Information: mineral.sulfate.none.fine.vswir.so-5a.jpl.beckman.ancillary.txt

 0.4000	79.9700
 0.4010	80.3200
 0.4020	79.9700
 0.4030	79.9700
 0.4040	80.5500
 0.4050	80.9000
 0.4060	80.9000
 0.4070	80.7800
 0.4080	80.6100
 0.4090	80.6100
 0.4100	80.9000
 0.4110	81.1400
 0.4120	81.1400
 0.4130	81.0800
 0.4140	81.1400
 0.4150	81.5500
 0.4160	81.8900
 0.4170	82.0100
 0.4180	81.5500
 0.4190	81.3100
 0.4200	81.6500
 0.4210	81.7700
 0.4220	82.0100
 0.4230	81.7100
 0.4240	81.6500
 0.4250	81.8300
 0.4260	82.0600
 0.4270	82.3600
 0.4280	82.0600
 0.4290	81.7100
 0.4300	81.7700
 0.4310	82.2400
 0.4320	82.5900
 0.4330	82.3000
 0.4340	81.8900
 0.4350	81.8300
 0.4360	82.3000
 0.4370	82.5900
 0.4380	82.4700
 0.4390	82.1800
 0.4400	81.9500
 0.4410	82.2400
 0.4420	82.5300
 0.4430	82.8300
 0.4440	82.8900
 0.4450	82.6500
 0.4460	82.6500
 0.4470	82.8300
 0.4480	83.0500
 0.4490	83.1100
 0.4500	82.8300
 0.4510	82.8300
 0.4520	82.9900
 0.4530	83.1200
 0.4540	83.2400
 0.4550	82.8300
 0.4560	83.0600
 0.4570	83.1200
 0.4580	83.5400
 0.4590	83.7700
 0.4600	83.3600
 0.4610	83.4200
 0.4620	83.1300
 0.4630	83.4900
 0.4640	83.5500
 0.4650	83.2600
 0.4660	82.8500
 0.4670	83.2000
 0.4680	83.4400
 0.4690	83.6100
 0.4700	83.5500
 0.4710	83.3300
 0.4720	83.3300
 0.4730	83.5000
 0.4740	83.9100
 0.4750	83.7400
 0.4760	83.3800
 0.4770	83.3800
 0.4780	83.5700
 0.4790	83.9800
 0.4800	84.0400
 0.4810	83.9800
 0.4820	83.3400
 0.4830	83.7000
 0.4840	83.9300
 0.4850	83.6400
 0.4860	83.8100
 0.4870	83.6400
 0.4880	83.4700
 0.4890	83.8800
 0.4900	84.0600
 0.4910	84.0600
 0.4920	84.0600
 0.4930	83.8900
 0.4940	84.2900
 0.4950	84.4700
 0.4960	84.2300
 0.4970	83.9400
 0.4980	83.7800
 0.4990	84.1300
 0.5000	84.3600
 0.5010	84.5400
 0.5020	84.0100
 0.5030	83.8300
 0.5040	84.2400
 0.5050	84.6500
 0.5060	84.7100
 0.5070	84.4800
 0.5080	84.0700
 0.5090	84.1900
 0.5100	84.4800
 0.5110	84.4800
 0.5120	84.3000
 0.5130	83.9500
 0.5140	84.1900
 0.5150	84.5400
 0.5160	84.5400
 0.5170	84.3600
 0.5180	84.3000
 0.5190	84.4200
 0.5200	84.6000
 0.5210	84.7700
 0.5220	84.6000
 0.5230	84.1900
 0.5240	84.4200
 0.5250	84.5400
 0.5260	85.0100
 0.5270	84.7100
 0.5280	84.3000
 0.5290	84.4800
 0.5300	84.7100
 0.5310	85.0700
 0.5320	84.8900
 0.5330	84.4800
 0.5340	84.6000
 0.5350	85.1200
 0.5360	85.3500
 0.5370	85.1800
 0.5380	84.8900
 0.5390	84.8900
 0.5400	85.2400
 0.5410	85.4700
 0.5420	85.3000
 0.5430	84.8300
 0.5440	84.5400
 0.5450	84.8300
 0.5460	85.4100
 0.5470	85.5200
 0.5480	85.1800
 0.5490	84.7700
 0.5500	85.1200
 0.5510	85.3000
 0.5520	85.1800
 0.5530	85.0100
 0.5540	84.4800
 0.5550	84.4200
 0.5560	85.1200
 0.5570	85.3500
 0.5580	85.0700
 0.5590	84.8900
 0.5600	84.9500
 0.5610	85.3500
 0.5620	85.1200
 0.5630	85.0700
 0.5640	85.4700
 0.5650	85.5200
 0.5660	85.3500
 0.5670	85.3000
 0.5680	84.8300
 0.5690	85.0100
 0.5700	85.3500
 0.5710	85.8200
 0.5720	85.7600
 0.5730	85.3000
 0.5740	85.1800
 0.5750	85.5800
 0.5760	85.9300
 0.5770	85.8200
 0.5780	85.4700
 0.5790	85.0700
 0.5800	85.1800
 0.5810	85.5800
 0.5820	85.7600
 0.5830	85.5800
 0.5840	85.3000
 0.5850	85.0100
 0.5860	85.3000
 0.5870	85.4700
 0.5880	85.5200
 0.5890	85.3500
 0.5900	85.0100
 0.5910	85.1200
 0.5920	85.3500
 0.5930	85.4100
 0.5940	85.5200
 0.5950	85.1800
 0.5960	85.0100
 0.5970	85.3500
 0.5980	85.6400
 0.5990	85.5200
 0.6000	85.3500
 0.6010	85.1200
 0.6020	85.2400
 0.6030	85.9900
 0.6040	86.0500
 0.6050	86.0500
 0.6060	85.8800
 0.6070	85.4700
 0.6080	85.9300
 0.6090	86.0500
 0.6100	86.1700
 0.6110	86.1700
 0.6120	85.9300
 0.6130	85.8200
 0.6140	86.2900
 0.6150	86.5200
 0.6160	86.5200
 0.6170	86.3400
 0.6180	86.0500
 0.6190	86.0500
 0.6200	86.2300
 0.6210	86.2300
 0.6220	86.1700
 0.6230	85.8800
 0.6240	85.7000
 0.6250	85.9900
 0.6260	86.2300
 0.6270	86.5200
 0.6280	86.2900
 0.6290	85.8800
 0.6300	85.7600
 0.6310	86.1700
 0.6320	86.4000
 0.6330	86.3400
 0.6340	86.2300
 0.6350	85.7600
 0.6360	85.9900
 0.6370	86.5200
 0.6380	86.4000
 0.6390	86.2900
 0.6400	86.2300
 0.6410	86.0500
 0.6420	86.1700
 0.6430	86.5200
 0.6440	86.4000
 0.6450	86.2900
 0.6460	85.9900
 0.6470	86.2300
 0.6480	86.4600
 0.6490	86.7000
 0.6500	86.5200
 0.6510	86.2300
 0.6520	86.1100
 0.6530	86.5200
 0.6540	86.7600
 0.6550	86.8700
 0.6560	86.7600
 0.6570	86.1100
 0.6580	86.1700
 0.6590	86.6400
 0.6600	86.8100
 0.6610	86.8100
 0.6620	86.7600
 0.6630	86.3400
 0.6640	86.5200
 0.6650	86.8100
 0.6660	86.7000
 0.6670	86.6400
 0.6680	86.4600
 0.6690	86.5200
 0.6700	86.6400
 0.6710	86.8700
 0.6720	86.8700
 0.6730	86.6400
 0.6740	86.6400
 0.6750	86.9300
 0.6760	87.2100
 0.6770	86.9300
 0.6780	86.5200
 0.6790	86.3400
 0.6800	86.5800
 0.6810	86.7600
 0.6820	86.9800
 0.6830	86.8100
 0.6840	86.7000
 0.6850	86.5800
 0.6860	86.9800
 0.6870	86.9800
 0.6880	86.8700
 0.6890	86.7000
 0.6900	86.5800
 0.6910	86.9800
 0.6920	87.5100
 0.6930	87.2700
 0.6940	86.8700
 0.6950	86.5800
 0.6960	86.9800
 0.6970	87.1000
 0.6980	87.3300
 0.6990	87.0400
 0.7000	86.8700
 0.7010	87.4500
 0.7020	87.1000
 0.7030	86.6400
 0.7040	86.6400
 0.7050	86.9800
 0.7060	87.2100
 0.7070	87.0400
 0.7080	86.8100
 0.7090	86.6400
 0.7100	86.8700
 0.7110	87.2700
 0.7120	86.9800
 0.7130	86.6400
 0.7140	86.6400
 0.7150	86.9300
 0.7160	87.2700
 0.7170	87.1600
 0.7180	86.9800
 0.7190	86.7600
 0.7200	87.0400
 0.7210	87.2100
 0.7220	87.2100
 0.7230	86.8700
 0.7240	86.8700
 0.7250	87.0400
 0.7260	87.3300
 0.7270	87.1000
 0.7280	86.8700
 0.7290	86.7000
 0.7300	86.7600
 0.7310	87.1000
 0.7320	87.1000
 0.7330	86.8100
 0.7340	86.6400
 0.7350	86.8700
 0.7360	87.2100
 0.7370	86.9300
 0.7380	86.6400
 0.7390	86.6400
 0.7400	86.9300
 0.7410	87.2700
 0.7420	87.1000
 0.7430	86.8100
 0.7440	86.7000
 0.7450	86.8700
 0.7460	87.2100
 0.7470	86.9800
 0.7480	86.7600
 0.7490	86.5200
 0.7500	86.8100
 0.7510	87.1600
 0.7520	87.0400
 0.7530	86.7600
 0.7540	86.4600
 0.7550	86.8700
 0.7560	87.1600
 0.7570	87.0400
 0.7580	86.7000
 0.7590	86.5800
 0.7600	86.9300
 0.7610	87.2700
 0.7620	87.0400
 0.7630	86.6400
 0.7640	86.2900
 0.7650	86.7000
 0.7660	87.1000
 0.7670	87.2700
 0.7680	87.0400
 0.7690	86.6400
 0.7700	86.7000
 0.7710	86.9300
 0.7720	87.1600
 0.7730	87.2100
 0.7740	86.8700
 0.7750	86.8700
 0.7760	86.9800
 0.7770	87.2700
 0.7780	87.3300
 0.7790	86.9800
 0.7800	86.8700
 0.7810	86.9300
 0.7820	87.2100
 0.7830	87.4500
 0.7840	86.9800
 0.7850	86.7600
 0.7860	86.7600
 0.7870	87.1600
 0.7880	87.3900
 0.7890	87.0400
 0.7900	86.8100
 0.7910	86.8700
 0.7920	87.1600
 0.7930	87.2700
 0.7940	87.0400
 0.7950	86.7000
 0.7960	86.4600
 0.7970	86.8100
 0.7980	87.1000
 0.7990	86.4600
 0.8000	86.4700
 0.8040	86.5200
 0.8080	86.4600
 0.8120	86.4600
 0.8160	86.4000
 0.8200	86.5200
 0.8240	86.5800
 0.8280	86.4600
 0.8320	86.5200
 0.8360	86.5200
 0.8400	86.5200
 0.8440	86.5200
 0.8480	86.7600
 0.8520	86.5200
 0.8560	86.7000
 0.8600	86.6400
 0.8640	86.7600
 0.8680	86.7000
 0.8720	86.6400
 0.8760	86.7000
 0.8800	86.6400
 0.8840	86.7600
 0.8880	86.7000
 0.8920	86.7000
 0.8960	86.6400
 0.9000	86.6400
 0.9040	86.5200
 0.9080	86.7000
 0.9120	86.7000
 0.9160	86.7000
 0.9200	86.7000
 0.9240	86.7000
 0.9280	86.7600
 0.9320	86.5800
 0.9360	86.7600
 0.9400	86.7600
 0.9440	86.8100
 0.9480	86.7000
 0.9520	86.8100
 0.9560	86.8100
 0.9600	86.7600
 0.9640	86.7000
 0.9680	86.8100
 0.9720	86.9300
 0.9760	86.8100
 0.9800	86.8700
 0.9840	86.7600
 0.9880	86.9800
 0.9920	86.7600
 0.9960	86.8100
 1.0000	86.8100
 1.0040	86.8700
 1.0080	86.9300
 1.0120	86.8700
 1.0160	87.0400
 1.0200	86.8700
 1.0240	86.9300
 1.0280	86.8700
 1.0320	87.1000
 1.0360	87.0400
 1.0400	86.9300
 1.0440	87.0400
 1.0480	86.9300
 1.0520	86.9300
 1.0560	86.8700
 1.0600	86.9300
 1.0640	87.0400
 1.0680	86.8700
 1.0720	87.0400
 1.0760	86.9300
 1.0800	86.9800
 1.0840	86.9300
 1.0880	87.0400
 1.0920	87.0400
 1.0960	86.8700
 1.1000	87.0400
 1.1040	86.9800
 1.1080	87.0400
 1.1120	86.8700
 1.1160	86.9800
 1.1200	87.1000
 1.1240	86.9800
 1.1280	87.2100
 1.1320	86.9300
 1.1360	86.9800
 1.1400	86.8700
 1.1440	87.0400
 1.1480	87.0400
 1.1520	86.9300
 1.1560	87.0400
 1.1600	86.8500
 1.1640	87.0800
 1.1680	86.8900
 1.1720	87.1300
 1.1760	86.9400
 1.1800	86.9900
 1.1840	86.8000
 1.1880	86.9100
 1.1920	87.0300
 1.1960	86.9100
 1.2000	87.0800
 1.2040	86.9000
 1.2080	87.0800
 1.2120	86.9000
 1.2160	86.9600
 1.2200	87.0200
 1.2240	86.8400
 1.2280	86.9000
 1.2320	86.8400
 1.2360	86.9600
 1.2400	86.9600
 1.2440	87.0800
 1.2480	87.0800
 1.2520	86.7800
 1.2560	87.0700
 1.2600	86.9400
 1.2640	87.0500
 1.2680	86.8600
 1.2720	87.0900
 1.2760	86.9100
 1.2800	87.0700
 1.2840	87.0100
 1.2880	87.0100
 1.2920	87.0100
 1.2960	86.8200
 1.3000	87.0400
 1.3040	86.9200
 1.3080	86.9100
 1.3120	86.9100
 1.3160	86.7800
 1.3200	86.9500
 1.3240	86.8300
 1.3280	86.8200
 1.3320	86.7600
 1.3360	86.8100
 1.3400	86.8600
 1.3440	86.7900
 1.3480	86.8400
 1.3520	86.7200
 1.3560	86.9500
 1.3600	86.7200
 1.3640	86.9000
 1.3680	86.6000
 1.3720	86.9000
 1.3760	86.8400
 1.3800	86.7200
 1.3840	86.8400
 1.3880	86.7200
 1.3920	86.9000
 1.3960	86.6600
 1.4000	86.8400
 1.4040	86.7900
 1.4080	86.6200
 1.4120	86.8000
 1.4160	86.6300
 1.4200	86.7600
 1.4240	86.6500
 1.4280	86.8300
 1.4320	86.7200
 1.4360	86.7800
 1.4400	86.8500
 1.4440	86.8600
 1.4480	86.8700
 1.4520	86.6300
 1.4560	86.8100
 1.4600	86.6900
 1.4640	86.6300
 1.4680	86.6900
 1.4720	86.6900
 1.4760	86.8100
 1.4800	86.5800
 1.4840	86.7500
 1.4880	86.6300
 1.4920	86.6300
 1.4960	86.6900
 1.5000	86.7500
 1.5040	86.6300
 1.5080	86.6300
 1.5120	86.6900
 1.5160	86.6300
 1.5200	86.8700
 1.5240	86.6900
 1.5280	86.8100
 1.5320	86.7500
 1.5360	86.8100
 1.5400	86.8100
 1.5440	86.8100
 1.5480	86.8100
 1.5520	86.8100
 1.5560	86.8700
 1.5600	86.8100
 1.5640	86.8700
 1.5680	86.7500
 1.5720	87.0400
 1.5760	86.7500
 1.5800	87.0400
 1.5840	86.8700
 1.5880	86.9900
 1.5920	86.8100
 1.5960	86.8100
 1.6000	87.0400
 1.6040	86.8000
 1.6080	87.0200
 1.6120	86.9100
 1.6160	86.9000
 1.6200	86.8300
 1.6240	86.8300
 1.6280	86.9900
 1.6320	86.8800
 1.6360	86.9800
 1.6400	86.8000
 1.6440	87.0200
 1.6480	86.9000
 1.6520	86.9000
 1.6560	87.0600
 1.6600	86.8200
 1.6640	86.9800
 1.6680	86.8700
 1.6720	86.9700
 1.6760	86.8600
 1.6800	86.9000
 1.6840	86.9500
 1.6880	86.9400
 1.6920	87.0600
 1.6960	86.9300
 1.7000	87.0400
 1.7040	86.8600
 1.7080	87.1000
 1.7120	86.9800
 1.7160	87.1000
 1.7200	86.9800
 1.7240	86.9800
 1.7280	87.0400
 1.7320	86.7500
 1.7360	87.0400
 1.7400	86.8600
 1.7440	86.9200
 1.7480	86.9200
 1.7520	86.8100
 1.7560	86.9800
 1.7600	86.8100
 1.7640	86.9800
 1.7680	86.8100
 1.7720	86.9200
 1.7760	86.8100
 1.7800	86.9800
 1.7840	86.8600
 1.7880	86.8600
 1.7920	86.8600
 1.7960	86.7500
 1.8000	86.9200
 1.8040	86.7300
 1.8080	86.8700
 1.8120	86.7300
 1.8160	86.8700
 1.8200	86.7800
 1.8240	86.7000
 1.8280	86.7900
 1.8320	86.6300
 1.8360	86.7900
 1.8400	86.5800
 1.8440	86.6700
 1.8480	86.5900
 1.8520	86.7500
 1.8560	86.5600
 1.8600	86.4900
 1.8640	86.7200
 1.8680	86.5400
 1.8720	86.6500
 1.8760	86.4700
 1.8800	86.4600
 1.8840	86.5100
 1.8880	86.3900
 1.8920	86.4400
 1.8960	86.3200
 1.9000	86.3700
 1.9040	86.1900
 1.9080	86.1200
 1.9120	86.2400
 1.9160	86.1100
 1.9200	86.2200
 1.9240	86.2100
 1.9280	86.1400
 1.9320	86.2600
 1.9360	86.1400
 1.9400	86.1900
 1.9440	86.1800
 1.9480	86.3400
 1.9520	86.3900
 1.9560	86.3000
 1.9600	86.4000
 1.9640	86.4400
 1.9680	86.5900
 1.9720	86.4600
 1.9760	86.6600
 1.9800	86.5800
 1.9840	86.8000
 1.9880	86.6500
 1.9920	86.8100
 1.9960	86.9000
 2.0000	86.9400
 2.0040	86.8700
 2.0080	86.9700
 2.0120	87.0900
 2.0160	87.0600
 2.0200	87.1900
 2.0240	87.0600
 2.0280	87.1600
 2.0320	87.1100
 2.0360	87.2400
 2.0400	87.3200
 2.0440	87.1300
 2.0480	87.2900
 2.0520	87.3000
 2.0560	87.3200
 2.0600	87.3300
 2.0640	87.4100
 2.0680	87.3800
 2.0720	87.3400
 2.0760	87.4800
 2.0800	87.4500
 2.0840	87.4100
 2.0880	87.3200
 2.0920	87.4000
 2.0960	87.6400
 2.1000	87.5500
 2.1040	87.7300
 2.1080	87.6500
 2.1120	87.6600
 2.1160	87.8000
 2.1200	87.6500
 2.1240	87.8000
 2.1280	87.6200
 2.1320	87.7500
 2.1360	87.7500
 2.1400	87.5800
 2.1440	87.6700
 2.1480	87.3700
 2.1520	87.4800
 2.1560	87.2700
 2.1600	87.3400
 2.1640	87.2800
 2.1680	87.2200
 2.1720	87.2700
 2.1760	87.0900
 2.1800	87.1400
 2.1840	86.9900
 2.1880	87.1200
 2.1920	87.0700
 2.1960	87.0300
 2.2000	87.1000
 2.2040	86.9300
 2.2080	87.1000
 2.2120	86.8900
 2.2160	87.0400
 2.2200	86.9600
 2.2240	87.0700
 2.2280	87.0700
 2.2320	87.0000
 2.2360	87.1900
 2.2400	86.9800
 2.2440	87.2200
 2.2480	87.1600
 2.2520	87.1400
 2.2560	87.1600
 2.2600	87.1300
 2.2640	87.2900
 2.2680	87.2400
 2.2720	87.3300
 2.2760	87.3600
 2.2800	87.3200
 2.2840	87.4600
 2.2880	87.4800
 2.2920	87.4300
 2.2960	87.5200
 2.3000	87.5100
 2.3040	87.5900
 2.3080	87.7200
 2.3120	87.8000
 2.3160	87.8200
 2.3200	87.9500
 2.3240	87.8300
 2.3280	87.9200
 2.3320	88.0200
 2.3360	87.8300
 2.3400	87.8800
 2.3440	87.8400
 2.3480	87.9200
 2.3520	87.8300
 2.3560	87.8500
 2.3600	87.9200
 2.3640	87.6600
 2.3680	87.8400
 2.3720	87.6600
 2.3760	87.7200
 2.3800	87.7200
 2.3840	87.6300
 2.3880	87.6500
 2.3920	87.5700
 2.3960	87.5700
 2.4000	87.6300
 2.4040	87.4500
 2.4080	87.6100
 2.4120	87.4900
 2.4160	87.4900
 2.4200	87.4200
 2.4240	87.4100
 2.4280	87.5200
 2.4320	87.2900
 2.4360	87.4500
 2.4400	87.4400
 2.4440	87.1400
 2.4480	87.4200
 2.4520	87.1900
 2.4560	87.3600
 2.4600	87.2900
 2.4640	87.1600
 2.4680	87.2700
 2.4720	87.1600
 2.4760	87.3800
 2.4800	87.3700
 2.4840	87.3000
 2.4880	87.5700
 2.4920	87.6900
 2.4960	87.6200
 2.5000	87.7800
