Name: Prehnite Ca_2Al_2Si_3O_10(OH)_2
Type: Mineral
Class: Silicate
Subclass: Phyllosilicate
Particle Size: Medium
Sample No.: PS-21A
Owner: JPL
Wavelength Range: VSWIR
Origin: USA, Virginia, Centerville
Collection Date: N/A
Description: Particle size was 45-125um.Collected by Burminco Original ASTER Spectral Library name was jpl.beckman.mineral.silicate.phyllosilicate.medium.ps21a.spectrum.txt
Measurement: Hemispherical reflectance
First Column: X
Second Column: Y
X Units: Wavelength (micrometers)
Y Units:Reflectance (percent)
First X Value:  0.4000
Last X Value:  2.5000
Number of X Values: 826
Additional Information: mineral.silicate.phyllosilicate.medium.vswir.ps-21a.jpl.beckman.ancillary.txt

 0.4000	74.3800
 0.4010	74.5300
 0.4020	74.4800
 0.4030	74.6600
 0.4040	74.7000
 0.4050	74.7000
 0.4060	74.9100
 0.4070	74.8100
 0.4080	74.6000
 0.4090	74.6500
 0.4100	74.6900
 0.4110	74.7600
 0.4120	74.5600
 0.4130	74.4700
 0.4140	74.4000
 0.4150	74.2300
 0.4160	74.1200
 0.4170	73.8800
 0.4180	73.7500
 0.4190	73.6700
 0.4200	73.6500
 0.4210	73.3800
 0.4220	73.1500
 0.4230	73.1400
 0.4240	72.9500
 0.4250	73.0400
 0.4260	73.0600
 0.4270	72.9000
 0.4280	73.0100
 0.4290	73.2400
 0.4300	73.5600
 0.4310	73.8300
 0.4320	74.0600
 0.4330	74.5300
 0.4340	75.0900
 0.4350	75.5400
 0.4360	75.9800
 0.4370	76.0500
 0.4380	76.4900
 0.4390	76.7700
 0.4400	77.1600
 0.4410	77.4400
 0.4420	77.5400
 0.4430	77.8300
 0.4440	78.0800
 0.4450	78.4000
 0.4460	78.6900
 0.4470	78.7000
 0.4480	78.8600
 0.4490	79.1100
 0.4500	79.3500
 0.4510	79.4800
 0.4520	79.5800
 0.4530	79.7000
 0.4540	79.7200
 0.4550	79.8300
 0.4560	79.9300
 0.4570	80.0100
 0.4580	79.9900
 0.4590	80.2400
 0.4600	80.2400
 0.4610	80.2400
 0.4620	80.4800
 0.4630	80.5300
 0.4640	80.5500
 0.4650	80.7700
 0.4660	80.5700
 0.4670	80.7100
 0.4680	80.9100
 0.4690	80.9200
 0.4700	80.9600
 0.4710	80.9700
 0.4720	81.1500
 0.4730	81.2100
 0.4740	81.1900
 0.4750	81.3200
 0.4760	81.2700
 0.4770	81.3800
 0.4780	81.5100
 0.4790	81.4200
 0.4800	81.5800
 0.4810	81.5000
 0.4820	81.7300
 0.4830	81.7600
 0.4840	81.6800
 0.4850	81.8100
 0.4860	81.6500
 0.4870	81.8400
 0.4880	81.9100
 0.4890	81.7500
 0.4900	81.8300
 0.4910	81.8100
 0.4920	81.9000
 0.4930	81.9300
 0.4940	81.8400
 0.4950	82.0200
 0.4960	81.9800
 0.4970	82.1600
 0.4980	82.1200
 0.4990	82.1400
 0.5000	82.2000
 0.5010	82.2200
 0.5020	82.3300
 0.5030	82.1100
 0.5040	82.1800
 0.5050	82.2400
 0.5060	82.2300
 0.5070	82.3500
 0.5080	82.2300
 0.5090	82.2900
 0.5100	82.4400
 0.5110	82.3800
 0.5120	82.4800
 0.5130	82.3000
 0.5140	82.4200
 0.5150	82.4300
 0.5160	82.5200
 0.5170	82.5900
 0.5180	82.5100
 0.5190	82.5700
 0.5200	82.6200
 0.5210	82.5400
 0.5220	82.6500
 0.5230	82.5400
 0.5240	82.5500
 0.5250	82.5900
 0.5260	82.4800
 0.5270	82.7600
 0.5280	82.5200
 0.5290	82.5300
 0.5300	82.5400
 0.5310	82.4900
 0.5320	82.6500
 0.5330	82.4300
 0.5340	82.4600
 0.5350	82.5500
 0.5360	82.4900
 0.5370	82.6000
 0.5380	82.4300
 0.5390	82.6100
 0.5400	82.6100
 0.5410	82.4500
 0.5420	82.5200
 0.5430	82.3700
 0.5440	82.3800
 0.5450	82.4600
 0.5460	82.3700
 0.5470	82.4400
 0.5480	82.2900
 0.5490	82.3700
 0.5500	82.3800
 0.5510	82.2800
 0.5520	82.4500
 0.5530	82.2700
 0.5540	82.4300
 0.5550	82.4000
 0.5560	82.2900
 0.5570	82.2400
 0.5580	82.1000
 0.5590	82.2700
 0.5600	82.2500
 0.5610	82.5700
 0.5620	82.3900
 0.5630	82.4200
 0.5640	82.5900
 0.5650	82.3300
 0.5660	82.3600
 0.5670	82.2500
 0.5680	82.1800
 0.5690	82.3000
 0.5700	82.0000
 0.5710	82.0900
 0.5720	81.9300
 0.5730	81.9400
 0.5740	81.9900
 0.5750	81.7800
 0.5760	81.8500
 0.5770	81.7600
 0.5780	81.7600
 0.5790	81.8800
 0.5800	81.6900
 0.5810	81.7700
 0.5820	81.6100
 0.5830	81.7100
 0.5840	81.8200
 0.5850	81.5200
 0.5860	81.6900
 0.5870	81.5400
 0.5880	81.5500
 0.5890	81.6600
 0.5900	81.6300
 0.5910	81.6900
 0.5920	81.5700
 0.5930	81.5700
 0.5940	81.8100
 0.5950	81.5100
 0.5960	81.5800
 0.5970	81.5600
 0.5980	81.5300
 0.5990	81.7100
 0.6000	81.5600
 0.6010	81.7500
 0.6020	81.6900
 0.6030	81.6200
 0.6040	81.8600
 0.6050	81.7600
 0.6060	81.7500
 0.6070	81.6300
 0.6080	81.6300
 0.6090	81.8300
 0.6100	81.7700
 0.6110	81.8400
 0.6120	81.5700
 0.6130	81.5500
 0.6140	81.7300
 0.6150	81.5600
 0.6160	81.7700
 0.6170	81.6100
 0.6180	81.6500
 0.6190	81.6600
 0.6200	81.6000
 0.6210	81.7500
 0.6220	81.7400
 0.6230	81.7000
 0.6240	81.8800
 0.6250	81.6700
 0.6260	81.8400
 0.6270	81.6600
 0.6280	81.8100
 0.6290	81.8900
 0.6300	81.6700
 0.6310	81.7600
 0.6320	81.6500
 0.6330	81.9100
 0.6340	81.8400
 0.6350	81.7400
 0.6360	81.8700
 0.6370	81.8300
 0.6380	81.8700
 0.6390	81.8300
 0.6400	81.8100
 0.6410	81.8400
 0.6420	81.7900
 0.6430	82.0600
 0.6440	81.9600
 0.6450	81.8700
 0.6460	82.0100
 0.6470	81.8500
 0.6480	82.1300
 0.6490	81.9400
 0.6500	81.9600
 0.6510	82.2100
 0.6520	82.0500
 0.6530	82.1100
 0.6540	81.9400
 0.6550	82.0500
 0.6560	82.1400
 0.6570	82.0300
 0.6580	82.1700
 0.6590	82.1100
 0.6600	82.1100
 0.6610	82.3000
 0.6620	82.1200
 0.6630	82.3000
 0.6640	82.1800
 0.6650	82.2100
 0.6660	82.3400
 0.6670	82.3300
 0.6680	82.3500
 0.6690	82.2300
 0.6700	82.3200
 0.6710	82.4100
 0.6720	82.2400
 0.6730	82.3700
 0.6740	82.2700
 0.6750	82.4000
 0.6760	82.5100
 0.6770	82.3400
 0.6780	82.4900
 0.6790	82.3400
 0.6800	82.4600
 0.6810	82.5200
 0.6820	82.4700
 0.6830	82.5100
 0.6840	82.5400
 0.6850	82.6500
 0.6860	82.7200
 0.6870	82.5200
 0.6880	82.7400
 0.6890	82.6200
 0.6900	82.7400
 0.6910	82.6900
 0.6920	82.5900
 0.6930	82.7500
 0.6940	82.5800
 0.6950	82.7700
 0.6960	82.8600
 0.6970	82.6900
 0.6980	82.8500
 0.6990	82.7000
 0.7000	82.8500
 0.7010	82.7100
 0.7020	82.8500
 0.7030	82.7800
 0.7040	82.9000
 0.7050	82.8200
 0.7060	83.0100
 0.7070	82.9500
 0.7080	82.8900
 0.7090	82.9300
 0.7100	82.9400
 0.7110	83.0500
 0.7120	83.1000
 0.7130	82.9300
 0.7140	83.0300
 0.7150	82.9100
 0.7160	83.0900
 0.7170	82.9900
 0.7180	83.1300
 0.7190	83.1100
 0.7200	82.9800
 0.7210	83.1000
 0.7220	83.0100
 0.7230	83.0800
 0.7240	83.1100
 0.7250	82.8600
 0.7260	83.0900
 0.7270	83.1500
 0.7280	83.1100
 0.7290	83.1100
 0.7300	83.0600
 0.7310	83.1200
 0.7320	83.1300
 0.7330	83.0700
 0.7340	83.1100
 0.7350	83.0300
 0.7360	83.1400
 0.7370	83.2200
 0.7380	83.2000
 0.7390	83.1300
 0.7400	83.0100
 0.7410	83.0600
 0.7420	83.1300
 0.7430	83.0200
 0.7440	83.0600
 0.7450	83.0500
 0.7460	83.1200
 0.7470	83.1900
 0.7480	83.2100
 0.7490	83.2300
 0.7500	83.0100
 0.7510	83.0000
 0.7520	83.1300
 0.7530	83.0700
 0.7540	83.1600
 0.7550	82.9300
 0.7560	83.0700
 0.7570	83.0100
 0.7580	83.0800
 0.7590	83.1100
 0.7600	82.9600
 0.7610	82.9700
 0.7620	83.1300
 0.7630	82.9300
 0.7640	83.0400
 0.7650	82.9000
 0.7660	83.0200
 0.7670	82.9200
 0.7680	82.9000
 0.7690	82.9600
 0.7700	82.8000
 0.7710	82.9600
 0.7720	82.8200
 0.7730	82.7700
 0.7740	82.9700
 0.7750	82.7100
 0.7760	82.8400
 0.7770	82.6200
 0.7780	82.7800
 0.7790	82.9000
 0.7800	82.7900
 0.7810	82.8400
 0.7820	82.7300
 0.7830	82.6900
 0.7840	82.8100
 0.7850	82.6200
 0.7860	82.7300
 0.7870	82.7900
 0.7880	82.7100
 0.7890	82.9200
 0.7900	82.7200
 0.7910	82.8400
 0.7920	82.7400
 0.7930	82.7000
 0.7940	82.8400
 0.7950	82.7400
 0.7960	82.7900
 0.7970	82.7300
 0.7980	82.7200
 0.7990	82.8500
 0.8000	82.7500
 0.8040	82.6300
 0.8080	82.5900
 0.8120	82.5300
 0.8160	82.3900
 0.8200	82.3200
 0.8240	82.3000
 0.8280	82.2700
 0.8320	82.0400
 0.8360	82.0300
 0.8400	82.0300
 0.8440	81.9400
 0.8480	81.9500
 0.8520	81.8400
 0.8560	81.8900
 0.8600	81.8300
 0.8640	81.8900
 0.8680	81.8700
 0.8720	81.8300
 0.8760	81.7500
 0.8800	81.6900
 0.8840	81.7100
 0.8880	81.6800
 0.8920	81.5800
 0.8960	81.4700
 0.9000	81.4600
 0.9040	81.4100
 0.9080	81.3900
 0.9120	81.2500
 0.9160	81.1600
 0.9200	81.1800
 0.9240	81.2200
 0.9280	81.2200
 0.9320	81.1700
 0.9360	81.1900
 0.9400	81.1600
 0.9440	81.1400
 0.9480	81.2500
 0.9520	81.2900
 0.9560	81.2000
 0.9600	81.1900
 0.9640	81.2200
 0.9680	81.2000
 0.9720	81.1400
 0.9760	81.0700
 0.9800	81.0700
 0.9840	81.1100
 0.9880	81.0700
 0.9920	80.9400
 0.9960	80.7600
 1.0000	80.7000
 1.0040	80.4700
 1.0080	80.5300
 1.0120	80.7000
 1.0160	81.1700
 1.0200	81.3100
 1.0240	81.4700
 1.0280	81.7100
 1.0320	81.8300
 1.0360	81.9100
 1.0400	82.0400
 1.0440	82.0100
 1.0480	81.9700
 1.0520	82.0000
 1.0560	82.0600
 1.0600	82.0900
 1.0640	82.0800
 1.0680	82.2200
 1.0720	82.2700
 1.0760	82.3400
 1.0800	82.3400
 1.0840	82.4400
 1.0880	82.5200
 1.0920	82.5400
 1.0960	82.6500
 1.1000	82.6900
 1.1040	82.7600
 1.1080	82.7400
 1.1120	82.7800
 1.1160	82.7900
 1.1200	82.8700
 1.1240	82.9500
 1.1280	82.9400
 1.1320	82.9100
 1.1360	82.9400
 1.1400	82.8500
 1.1440	82.9400
 1.1480	82.8800
 1.1520	82.7900
 1.1560	82.8500
 1.1600	82.8500
 1.1640	82.9500
 1.1680	82.9200
 1.1720	83.0700
 1.1760	83.0200
 1.1800	83.0400
 1.1840	83.0600
 1.1880	83.0900
 1.1920	83.2200
 1.1960	83.3100
 1.2000	83.3000
 1.2040	83.2100
 1.2080	83.2000
 1.2120	83.1800
 1.2160	83.2700
 1.2200	83.2800
 1.2240	83.2100
 1.2280	83.2300
 1.2320	83.3200
 1.2360	83.3500
 1.2400	83.3300
 1.2440	83.2900
 1.2480	83.2400
 1.2520	83.3000
 1.2560	83.0800
 1.2600	82.9700
 1.2640	82.8400
 1.2680	82.5600
 1.2720	82.0000
 1.2760	81.0500
 1.2800	80.6700
 1.2840	81.0700
 1.2880	81.4900
 1.2920	81.3700
 1.2960	81.0300
 1.3000	81.3500
 1.3040	81.9900
 1.3080	82.2200
 1.3120	82.3800
 1.3160	82.4000
 1.3200	82.5100
 1.3240	82.5600
 1.3280	82.7500
 1.3320	82.9100
 1.3360	83.0300
 1.3400	83.0600
 1.3440	83.1500
 1.3480	83.0900
 1.3520	83.1300
 1.3560	82.9800
 1.3600	83.0600
 1.3640	82.9300
 1.3680	82.9200
 1.3720	82.8700
 1.3760	82.7400
 1.3800	82.5500
 1.3840	82.5000
 1.3880	82.2100
 1.3920	81.9100
 1.3960	81.6300
 1.4000	81.3700
 1.4040	81.0900
 1.4080	80.7800
 1.4120	80.4800
 1.4160	79.9300
 1.4200	78.7200
 1.4240	77.2400
 1.4280	76.1600
 1.4320	76.1800
 1.4360	76.0500
 1.4400	75.5200
 1.4440	74.5300
 1.4480	73.4900
 1.4520	72.0800
 1.4560	69.2600
 1.4600	63.7100
 1.4640	56.0100
 1.4680	49.9600
 1.4720	49.8000
 1.4760	54.5700
 1.4800	59.7000
 1.4840	63.2700
 1.4880	66.5400
 1.4920	69.9700
 1.4960	73.0800
 1.5000	74.3000
 1.5040	77.2800
 1.5080	78.5500
 1.5120	79.5000
 1.5160	80.2400
 1.5200	80.7200
 1.5240	81.0300
 1.5280	81.2700
 1.5320	81.3900
 1.5360	81.5500
 1.5400	81.7500
 1.5440	81.7800
 1.5480	81.7900
 1.5520	81.9000
 1.5560	82.0700
 1.5600	82.1400
 1.5640	82.3200
 1.5680	82.3200
 1.5720	82.4000
 1.5760	82.3800
 1.5800	82.3300
 1.5840	82.3300
 1.5880	82.4000
 1.5920	82.3900
 1.5960	82.4200
 1.6000	82.4400
 1.6040	82.5000
 1.6080	82.3500
 1.6120	82.3300
 1.6160	82.4400
 1.6200	82.4500
 1.6240	82.4900
 1.6280	82.5300
 1.6320	82.6100
 1.6360	82.6900
 1.6400	82.6100
 1.6440	82.6800
 1.6480	82.6600
 1.6520	82.7100
 1.6560	82.7000
 1.6600	82.6900
 1.6640	82.5800
 1.6680	82.4700
 1.6720	82.4200
 1.6760	82.4300
 1.6800	82.2900
 1.6840	82.1000
 1.6880	82.0700
 1.6920	81.9400
 1.6960	81.8500
 1.7000	81.7300
 1.7040	81.6400
 1.7080	81.5600
 1.7120	81.3300
 1.7160	81.1800
 1.7200	81.0000
 1.7240	80.8000
 1.7280	80.6400
 1.7320	80.5900
 1.7360	80.4700
 1.7400	80.4300
 1.7440	80.4400
 1.7480	80.4800
 1.7520	80.4400
 1.7560	80.6300
 1.7600	80.7600
 1.7640	80.7400
 1.7680	80.7600
 1.7720	80.7900
 1.7760	80.9300
 1.7800	80.9100
 1.7840	80.8700
 1.7880	80.7700
 1.7920	80.7400
 1.7960	80.6100
 1.8000	80.3400
 1.8040	80.0400
 1.8080	79.6700
 1.8120	79.1700
 1.8160	78.6300
 1.8200	78.2200
 1.8240	77.9000
 1.8280	77.6900
 1.8320	77.4800
 1.8360	77.3100
 1.8400	77.2300
 1.8440	77.1900
 1.8480	76.9700
 1.8520	76.6500
 1.8560	76.1900
 1.8600	75.4700
 1.8640	74.7000
 1.8680	74.0100
 1.8720	73.4800
 1.8760	73.1300
 1.8800	73.0700
 1.8840	72.9600
 1.8880	72.8100
 1.8920	72.5100
 1.8960	72.2900
 1.9000	72.1400
 1.9040	72.1600
 1.9080	72.3200
 1.9120	72.3400
 1.9160	72.3800
 1.9200	72.3300
 1.9240	72.3600
 1.9280	72.4100
 1.9320	72.5900
 1.9360	72.7900
 1.9400	73.1400
 1.9440	73.3500
 1.9480	73.6400
 1.9520	73.8500
 1.9560	74.0100
 1.9600	74.1900
 1.9640	74.4700
 1.9680	74.7200
 1.9720	74.7500
 1.9760	74.9300
 1.9800	74.9800
 1.9840	74.9700
 1.9880	74.7800
 1.9920	74.7500
 1.9960	74.7000
 2.0000	74.6200
 2.0040	74.5600
 2.0080	74.5800
 2.0120	74.5700
 2.0160	74.7100
 2.0200	74.8100
 2.0240	74.9100
 2.0280	75.0300
 2.0320	75.1900
 2.0360	75.3500
 2.0400	75.4000
 2.0440	75.4300
 2.0480	75.3800
 2.0520	75.3200
 2.0560	75.3200
 2.0600	75.2600
 2.0640	75.2300
 2.0680	75.1600
 2.0720	75.0600
 2.0760	74.9900
 2.0800	74.8200
 2.0840	74.6300
 2.0880	74.4200
 2.0920	74.2100
 2.0960	74.0100
 2.1000	73.8900
 2.1040	73.6700
 2.1080	73.5900
 2.1120	73.3300
 2.1160	73.2200
 2.1200	73.0500
 2.1240	72.9200
 2.1280	72.6200
 2.1320	72.4400
 2.1360	72.1500
 2.1400	71.7800
 2.1440	71.4600
 2.1480	71.1600
 2.1520	70.8300
 2.1560	70.4300
 2.1600	70.0300
 2.1640	69.6300
 2.1680	69.1700
 2.1720	68.6400
 2.1760	68.0800
 2.1800	67.5400
 2.1840	66.7000
 2.1880	65.5500
 2.1920	64.0100
 2.1960	62.2000
 2.2000	60.0300
 2.2040	57.4100
 2.2080	54.7300
 2.2120	52.1400
 2.2160	49.8500
 2.2200	47.8600
 2.2240	46.6500
 2.2280	46.1400
 2.2320	46.3600
 2.2360	47.0700
 2.2400	48.0100
 2.2440	49.0500
 2.2480	49.7500
 2.2520	49.9400
 2.2560	49.5900
 2.2600	48.8700
 2.2640	47.8700
 2.2680	47.0000
 2.2720	46.2900
 2.2760	45.9700
 2.2800	45.8900
 2.2840	46.1000
 2.2880	46.3300
 2.2920	46.2200
 2.2960	45.5300
 2.3000	44.7200
 2.3040	41.1900
 2.3080	38.4400
 2.3120	35.3600
 2.3160	32.2600
 2.3200	29.4900
 2.3240	27.2700
 2.3280	25.7300
 2.3320	24.7200
 2.3360	23.8500
 2.3400	23.0800
 2.3440	22.3200
 2.3480	21.7600
 2.3520	21.4900
 2.3560	21.4300
 2.3600	21.8500
 2.3640	22.3900
 2.3680	23.0100
 2.3720	23.5400
 2.3760	24.0900
 2.3800	24.6000
 2.3840	25.2200
 2.3880	25.9100
 2.3920	26.7900
 2.3960	27.7600
 2.4000	28.8400
 2.4040	30.0500
 2.4080	31.4900
 2.4120	32.8600
 2.4160	34.3700
 2.4200	35.7600
 2.4240	37.0200
 2.4280	38.1400
 2.4320	39.0100
 2.4360	39.7000
 2.4400	39.9900
 2.4440	40.0500
 2.4480	39.9200
 2.4520	39.6400
 2.4560	39.2200
 2.4600	38.7500
 2.4640	38.2800
 2.4680	37.8800
 2.4720	37.6700
 2.4760	37.3900
 2.4800	37.2300
 2.4840	36.9300
 2.4880	36.6300
 2.4920	36.2600
 2.4960	35.9200
 2.5000	35.5400
