Name: Antlerite Cu_3(SO_4)(OH)_4
Type: Mineral
Class: Sulfate
Subclass: None
Particle Size: Coarse
Sample No.: SO-11A
Owner: JPL
Wavelength Range: VSWIR
Origin: USA, Arizona, Greenlee County, Morenci
Collection Date: N/A
Description: Particle size was 125-500um.Collected by Burminco Original ASTER Spectral Library name was jpl.beckman.mineral.sulfate.none.coarse.so11a.spectrum.txt
Measurement: Hemispherical reflectance
First Column: X
Second Column: Y
X Units: Wavelength (micrometers)
Y Units:Reflectance (percent)
First X Value:  0.4000
Last X Value:  2.5000
Number of X Values: 826
Additional Information: mineral.sulfate.none.coarse.vswir.so-11a.jpl.beckman.ancillary.txt

 0.4000	13.5300
 0.4010	13.4400
 0.4020	13.6700
 0.4030	13.6800
 0.4040	13.7800
 0.4050	13.7600
 0.4060	13.6500
 0.4070	13.8900
 0.4080	13.8800
 0.4090	13.9300
 0.4100	13.9600
 0.4110	13.9600
 0.4120	14.0600
 0.4130	14.0000
 0.4140	14.1300
 0.4150	14.2600
 0.4160	14.1700
 0.4170	14.3400
 0.4180	14.2900
 0.4190	14.3800
 0.4200	14.4900
 0.4210	14.4800
 0.4220	14.6400
 0.4230	14.6400
 0.4240	14.5300
 0.4250	14.7600
 0.4260	14.7600
 0.4270	14.9200
 0.4280	14.9600
 0.4290	14.9500
 0.4300	15.0700
 0.4310	15.0900
 0.4320	15.2200
 0.4330	15.2900
 0.4340	15.3700
 0.4350	15.4800
 0.4360	15.5400
 0.4370	15.5500
 0.4380	15.7400
 0.4390	15.7400
 0.4400	16.0000
 0.4410	15.9500
 0.4420	15.9700
 0.4430	16.1600
 0.4440	16.2200
 0.4450	16.4000
 0.4460	16.4000
 0.4470	16.3700
 0.4480	16.5600
 0.4490	16.6400
 0.4500	16.7600
 0.4510	16.8800
 0.4520	16.9400
 0.4530	17.0800
 0.4540	17.1700
 0.4550	17.3000
 0.4560	17.4000
 0.4570	17.4600
 0.4580	17.6600
 0.4590	17.6300
 0.4600	17.7500
 0.4610	17.9500
 0.4620	18.0500
 0.4630	18.2500
 0.4640	18.3100
 0.4650	18.4000
 0.4660	18.6500
 0.4670	18.7000
 0.4680	18.8000
 0.4690	18.8500
 0.4700	19.0900
 0.4710	19.2700
 0.4720	19.3500
 0.4730	19.5100
 0.4740	19.5900
 0.4750	19.7800
 0.4760	19.9500
 0.4770	20.0600
 0.4780	20.2800
 0.4790	20.4000
 0.4800	20.5100
 0.4810	20.7600
 0.4820	20.8700
 0.4830	21.0700
 0.4840	21.3100
 0.4850	21.3700
 0.4860	21.5600
 0.4870	21.6900
 0.4880	21.9300
 0.4890	22.1800
 0.4900	22.2400
 0.4910	22.3600
 0.4920	22.5400
 0.4930	22.7700
 0.4940	23.0400
 0.4950	23.1100
 0.4960	23.2500
 0.4970	23.4000
 0.4980	23.5400
 0.4990	23.7000
 0.5000	23.7900
 0.5010	24.0000
 0.5020	24.1400
 0.5030	24.1800
 0.5040	24.4100
 0.5050	24.4500
 0.5060	24.5800
 0.5070	24.7700
 0.5080	24.8100
 0.5090	24.8800
 0.5100	24.9900
 0.5110	25.1200
 0.5120	25.3100
 0.5130	25.2800
 0.5140	25.3100
 0.5150	25.3100
 0.5160	25.4000
 0.5170	25.5500
 0.5180	25.5200
 0.5190	25.5500
 0.5200	25.5600
 0.5210	25.5700
 0.5220	25.5700
 0.5230	25.5400
 0.5240	25.5500
 0.5250	25.4900
 0.5260	25.4000
 0.5270	25.4200
 0.5280	25.3000
 0.5290	25.2700
 0.5300	25.2200
 0.5310	25.1500
 0.5320	25.0700
 0.5330	24.8300
 0.5340	24.8300
 0.5350	24.7200
 0.5360	24.5600
 0.5370	24.4600
 0.5380	24.2400
 0.5390	24.2000
 0.5400	24.0600
 0.5410	23.8100
 0.5420	23.6500
 0.5430	23.3800
 0.5440	23.1700
 0.5450	23.0300
 0.5460	22.8300
 0.5470	22.6700
 0.5480	22.4100
 0.5490	22.1600
 0.5500	22.0300
 0.5510	21.7800
 0.5520	21.6600
 0.5530	21.4300
 0.5540	21.0800
 0.5550	20.9600
 0.5560	20.6700
 0.5570	20.5500
 0.5580	20.3100
 0.5590	20.1200
 0.5600	20.1100
 0.5610	19.6000
 0.5620	19.3200
 0.5630	19.0900
 0.5640	18.7700
 0.5650	18.5700
 0.5660	18.4200
 0.5670	18.2600
 0.5680	17.9200
 0.5690	17.6300
 0.5700	17.4300
 0.5710	17.2000
 0.5720	17.0600
 0.5730	16.7700
 0.5740	16.6200
 0.5750	16.4000
 0.5760	16.1200
 0.5770	15.9200
 0.5780	15.7600
 0.5790	15.5700
 0.5800	15.4500
 0.5810	15.2100
 0.5820	14.9400
 0.5830	14.8300
 0.5840	14.6600
 0.5850	14.5000
 0.5860	14.3200
 0.5870	14.2300
 0.5880	14.0700
 0.5890	13.9100
 0.5900	13.6800
 0.5910	13.5200
 0.5920	13.4500
 0.5930	13.3900
 0.5940	13.2300
 0.5950	13.1200
 0.5960	12.9400
 0.5970	12.7600
 0.5980	12.7200
 0.5990	12.5500
 0.6000	12.5700
 0.6010	12.5000
 0.6020	12.3300
 0.6030	12.0600
 0.6040	12.0700
 0.6050	11.9200
 0.6060	11.9000
 0.6070	11.8200
 0.6080	11.7800
 0.6090	11.6800
 0.6100	11.5500
 0.6110	11.4800
 0.6120	11.3700
 0.6130	11.3200
 0.6140	11.3400
 0.6150	11.1300
 0.6160	11.0000
 0.6170	10.9700
 0.6180	10.9100
 0.6190	10.8500
 0.6200	10.7600
 0.6210	10.7800
 0.6220	10.8000
 0.6230	10.6200
 0.6240	10.5600
 0.6250	10.5300
 0.6260	10.5400
 0.6270	10.4800
 0.6280	10.4600
 0.6290	10.3900
 0.6300	10.3400
 0.6310	10.2800
 0.6320	10.2500
 0.6330	10.2300
 0.6340	10.1600
 0.6350	10.1700
 0.6360	10.0600
 0.6370	 9.9100
 0.6380	 9.9800
 0.6390	 9.9700
 0.6400	 9.9600
 0.6410	 9.8200
 0.6420	 9.8800
 0.6430	 9.8400
 0.6440	 9.7700
 0.6450	 9.7500
 0.6460	 9.6900
 0.6470	 9.7000
 0.6480	 9.6500
 0.6490	 9.6000
 0.6500	 9.5700
 0.6510	 9.5100
 0.6520	 9.5700
 0.6530	 9.5000
 0.6540	 9.4600
 0.6550	 9.4800
 0.6560	 9.5400
 0.6570	 9.4400
 0.6580	 9.3200
 0.6590	 9.3700
 0.6600	 9.3700
 0.6610	 9.4200
 0.6620	 9.3200
 0.6630	 9.2800
 0.6640	 9.2700
 0.6650	 9.2500
 0.6660	 9.2800
 0.6670	 9.2800
 0.6680	 9.2400
 0.6690	 9.2400
 0.6700	 9.1900
 0.6710	 9.1300
 0.6720	 9.1700
 0.6730	 9.1300
 0.6740	 9.1300
 0.6750	 9.0900
 0.6760	 9.1100
 0.6770	 9.1600
 0.6780	 8.9800
 0.6790	 9.0800
 0.6800	 9.0700
 0.6810	 9.0600
 0.6820	 9.1300
 0.6830	 9.0100
 0.6840	 8.9400
 0.6850	 9.0600
 0.6860	 8.9400
 0.6870	 9.0200
 0.6880	 8.9800
 0.6890	 8.9200
 0.6900	 9.0300
 0.6910	 8.9500
 0.6920	 9.0100
 0.6930	 8.9500
 0.6940	 9.0100
 0.6950	 9.0700
 0.6960	 8.9500
 0.6970	 8.8500
 0.6980	 8.9400
 0.6990	 8.9000
 0.7000	 8.9600
 0.7010	 8.9200
 0.7020	 8.9500
 0.7030	 8.9400
 0.7040	 8.8900
 0.7050	 8.8900
 0.7060	 8.9600
 0.7070	 8.9000
 0.7080	 8.8500
 0.7090	 8.9000
 0.7100	 8.8800
 0.7110	 8.8900
 0.7120	 8.8900
 0.7130	 8.8600
 0.7140	 9.0200
 0.7150	 8.9500
 0.7160	 8.8900
 0.7170	 8.9100
 0.7180	 8.8600
 0.7190	 8.9200
 0.7200	 8.9100
 0.7210	 8.8900
 0.7220	 8.9500
 0.7230	 8.8400
 0.7240	 8.8500
 0.7250	 8.9400
 0.7260	 8.8900
 0.7270	 9.0100
 0.7280	 8.8600
 0.7290	 8.9200
 0.7300	 8.8600
 0.7310	 8.8500
 0.7320	 8.9000
 0.7330	 8.8900
 0.7340	 8.9600
 0.7350	 9.0100
 0.7360	 8.9500
 0.7370	 8.9700
 0.7380	 8.9200
 0.7390	 8.8700
 0.7400	 8.9600
 0.7410	 8.8900
 0.7420	 9.0100
 0.7430	 8.8900
 0.7440	 8.9400
 0.7450	 9.0100
 0.7460	 8.9400
 0.7470	 8.9500
 0.7480	 9.0200
 0.7490	 8.9500
 0.7500	 9.0000
 0.7510	 9.0000
 0.7520	 9.0100
 0.7530	 9.0800
 0.7540	 9.0100
 0.7550	 9.0000
 0.7560	 9.0000
 0.7570	 9.0100
 0.7580	 9.1200
 0.7590	 9.0100
 0.7600	 9.0500
 0.7610	 9.0600
 0.7620	 9.0500
 0.7630	 9.1000
 0.7640	 9.0400
 0.7650	 9.1000
 0.7660	 9.0700
 0.7670	 9.0800
 0.7680	 9.0600
 0.7690	 9.0400
 0.7700	 9.0400
 0.7710	 9.1100
 0.7720	 9.0500
 0.7730	 9.0500
 0.7740	 9.0500
 0.7750	 9.0700
 0.7760	 9.0700
 0.7770	 9.0900
 0.7780	 9.1000
 0.7790	 9.1500
 0.7800	 9.1500
 0.7810	 9.1000
 0.7820	 9.0400
 0.7830	 9.0900
 0.7840	 9.1400
 0.7850	 9.1000
 0.7860	 9.0800
 0.7870	 9.0900
 0.7880	 9.0300
 0.7890	 9.1400
 0.7900	 9.0800
 0.7910	 9.1200
 0.7920	 9.1800
 0.7930	 9.1500
 0.7940	 9.2100
 0.7950	 9.1000
 0.7960	 9.1300
 0.7970	 9.3500
 0.7980	 9.3700
 0.7990	 9.4300
 0.8000	 9.4000
 0.8040	 9.4100
 0.8080	 9.4200
 0.8120	 9.3600
 0.8160	 9.3400
 0.8200	 9.4000
 0.8240	 9.3000
 0.8280	 9.2900
 0.8320	 9.2400
 0.8360	 9.2500
 0.8400	 9.2300
 0.8440	 9.2800
 0.8480	 9.1500
 0.8520	 9.1300
 0.8560	 9.0900
 0.8600	 9.0900
 0.8640	 9.0900
 0.8680	 9.1100
 0.8720	 9.0300
 0.8760	 8.9900
 0.8800	 8.9900
 0.8840	 8.9700
 0.8880	 8.9400
 0.8920	 8.8600
 0.8960	 8.8500
 0.9000	 8.8700
 0.9040	 8.9200
 0.9080	 8.9300
 0.9120	 8.8500
 0.9160	 8.8100
 0.9200	 8.8000
 0.9240	 8.7500
 0.9280	 8.8400
 0.9320	 8.8100
 0.9360	 8.7500
 0.9400	 8.8700
 0.9440	 8.8100
 0.9480	 8.8600
 0.9520	 8.8800
 0.9560	 8.8300
 0.9600	 8.9300
 0.9640	 8.8700
 0.9680	 8.9300
 0.9720	 8.9700
 0.9760	 8.9800
 0.9800	 9.0600
 0.9840	 9.0500
 0.9880	 9.0300
 0.9920	 9.0800
 0.9960	 9.1200
 1.0000	 9.1200
 1.0040	 9.1100
 1.0080	 9.1600
 1.0120	 9.2000
 1.0160	 9.2600
 1.0200	 9.3200
 1.0240	 9.3500
 1.0280	 9.3700
 1.0320	 9.3700
 1.0360	 9.4700
 1.0400	 9.5200
 1.0440	 9.5200
 1.0480	 9.5600
 1.0520	 9.6400
 1.0560	 9.6300
 1.0600	 9.7000
 1.0640	 9.7400
 1.0680	 9.7600
 1.0720	 9.7700
 1.0760	 9.9300
 1.0800	 9.9000
 1.0840	 9.9800
 1.0880	10.0000
 1.0920	10.1100
 1.0960	10.1200
 1.1000	10.1700
 1.1040	10.2500
 1.1080	10.2600
 1.1120	10.3200
 1.1160	10.4100
 1.1200	10.4500
 1.1240	10.5100
 1.1280	10.6200
 1.1320	10.6800
 1.1360	10.7300
 1.1400	10.7700
 1.1440	10.8400
 1.1480	10.9000
 1.1520	10.9300
 1.1560	11.0800
 1.1600	11.2000
 1.1640	11.3000
 1.1680	11.3900
 1.1720	11.4200
 1.1760	11.5800
 1.1800	11.6100
 1.1840	11.7100
 1.1880	11.8200
 1.1920	11.9500
 1.1960	12.1000
 1.2000	12.1900
 1.2040	12.2600
 1.2080	12.4700
 1.2120	12.5800
 1.2160	12.7500
 1.2200	12.8500
 1.2240	12.9100
 1.2280	13.0100
 1.2320	13.2700
 1.2360	13.3900
 1.2400	13.5200
 1.2440	13.7200
 1.2480	13.9200
 1.2520	14.0300
 1.2560	14.2000
 1.2600	14.3700
 1.2640	14.5600
 1.2680	14.7000
 1.2720	14.9300
 1.2760	15.1300
 1.2800	15.3500
 1.2840	15.4100
 1.2880	15.5900
 1.2920	15.8100
 1.2960	16.0700
 1.3000	16.2000
 1.3040	16.3800
 1.3080	16.5300
 1.3120	16.8100
 1.3160	17.0700
 1.3200	17.2800
 1.3240	17.6000
 1.3280	17.7200
 1.3320	17.9800
 1.3360	18.2200
 1.3400	18.4000
 1.3440	18.6300
 1.3480	18.8600
 1.3520	19.1000
 1.3560	19.2700
 1.3600	19.5500
 1.3640	19.7500
 1.3680	19.9900
 1.3720	20.2100
 1.3760	20.3300
 1.3800	20.5000
 1.3840	20.7700
 1.3880	20.7900
 1.3920	20.8300
 1.3960	20.9400
 1.4000	21.0900
 1.4040	20.9000
 1.4080	20.3100
 1.4120	20.2600
 1.4160	20.9700
 1.4200	20.7100
 1.4240	18.1900
 1.4280	15.9600
 1.4320	17.3800
 1.4360	20.4300
 1.4400	22.2500
 1.4440	22.7900
 1.4480	22.8700
 1.4520	22.6100
 1.4560	22.1000
 1.4600	21.2900
 1.4640	19.9100
 1.4680	18.2800
 1.4720	17.9800
 1.4760	19.6700
 1.4800	22.1900
 1.4840	23.9300
 1.4880	24.9200
 1.4920	25.5400
 1.4960	26.0200
 1.5000	26.3600
 1.5040	26.7500
 1.5080	27.0800
 1.5120	27.4400
 1.5160	27.6600
 1.5200	27.9800
 1.5240	28.1400
 1.5280	28.3500
 1.5320	28.6300
 1.5360	28.7100
 1.5400	28.9000
 1.5440	29.1400
 1.5480	29.2700
 1.5520	29.4300
 1.5560	29.5600
 1.5600	29.7400
 1.5640	29.7400
 1.5680	29.9500
 1.5720	30.0700
 1.5760	30.2300
 1.5800	30.3400
 1.5840	30.4100
 1.5880	30.5800
 1.5920	30.6400
 1.5960	30.8300
 1.6000	30.8500
 1.6040	31.0600
 1.6080	31.1100
 1.6120	31.1700
 1.6160	31.2300
 1.6200	31.3000
 1.6240	31.3900
 1.6280	31.4900
 1.6320	31.6300
 1.6360	31.6100
 1.6400	31.6500
 1.6440	31.7300
 1.6480	31.7800
 1.6520	31.9000
 1.6560	31.9500
 1.6600	31.9800
 1.6640	31.9000
 1.6680	31.9800
 1.6720	32.0600
 1.6760	32.0900
 1.6800	32.0900
 1.6840	32.1300
 1.6880	32.1100
 1.6920	32.1100
 1.6960	32.2300
 1.7000	32.2200
 1.7040	32.2000
 1.7080	32.2400
 1.7120	32.2200
 1.7160	32.2000
 1.7200	32.3200
 1.7240	32.3800
 1.7280	32.4500
 1.7320	32.4900
 1.7360	32.4300
 1.7400	32.5100
 1.7440	32.5700
 1.7480	32.5400
 1.7520	32.5800
 1.7560	32.5500
 1.7600	32.6100
 1.7640	32.6300
 1.7680	32.6300
 1.7720	32.7000
 1.7760	32.7200
 1.7800	32.7700
 1.7840	32.7800
 1.7880	32.8000
 1.7920	32.8400
 1.7960	32.8400
 1.8000	32.8000
 1.8040	32.6900
 1.8080	32.6800
 1.8120	32.6900
 1.8160	32.7000
 1.8200	32.7300
 1.8240	32.7200
 1.8280	32.7200
 1.8320	32.5700
 1.8360	32.5200
 1.8400	32.5200
 1.8440	32.4900
 1.8480	32.4600
 1.8520	32.4400
 1.8560	32.4000
 1.8600	32.2800
 1.8640	32.2400
 1.8680	32.1000
 1.8720	31.9200
 1.8760	31.8900
 1.8800	31.6900
 1.8840	31.5200
 1.8880	31.4000
 1.8920	31.2300
 1.8960	31.1000
 1.9000	30.7300
 1.9040	30.4200
 1.9080	30.1200
 1.9120	30.0400
 1.9160	29.9600
 1.9200	29.8200
 1.9240	29.8200
 1.9280	29.6300
 1.9320	29.5900
 1.9360	29.4900
 1.9400	29.3200
 1.9440	29.0800
 1.9480	28.8800
 1.9520	28.6900
 1.9560	28.5800
 1.9600	28.5900
 1.9640	28.7400
 1.9680	29.0000
 1.9720	29.3300
 1.9760	29.6000
 1.9800	29.9000
 1.9840	30.1400
 1.9880	30.2100
 1.9920	30.3600
 1.9960	30.5200
 2.0000	30.5500
 2.0040	30.5000
 2.0080	30.5400
 2.0120	30.6200
 2.0160	30.6400
 2.0200	30.7200
 2.0240	30.8100
 2.0280	30.8500
 2.0320	30.9300
 2.0360	30.9600
 2.0400	30.9900
 2.0440	30.9800
 2.0480	30.8800
 2.0520	30.8000
 2.0560	30.7200
 2.0600	30.5700
 2.0640	30.5200
 2.0680	30.4400
 2.0720	30.3700
 2.0760	30.2600
 2.0800	30.1900
 2.0840	29.9900
 2.0880	29.8000
 2.0920	29.4800
 2.0960	28.9500
 2.1000	28.4700
 2.1040	27.9100
 2.1080	27.5000
 2.1120	27.3000
 2.1160	27.2000
 2.1200	27.0300
 2.1240	26.9200
 2.1280	26.4800
 2.1320	25.9900
 2.1360	25.6500
 2.1400	25.1900
 2.1440	24.9000
 2.1480	24.9100
 2.1520	25.2500
 2.1560	25.6100
 2.1600	26.1500
 2.1640	26.4600
 2.1680	26.5400
 2.1720	26.3100
 2.1760	25.9100
 2.1800	25.5100
 2.1840	25.0900
 2.1880	24.9200
 2.1920	24.8300
 2.1960	24.7200
 2.2000	24.6000
 2.2040	24.1400
 2.2080	23.5400
 2.2120	22.7100
 2.2160	21.5800
 2.2200	20.2700
 2.2240	18.9000
 2.2280	17.5900
 2.2320	16.5300
 2.2360	15.8300
 2.2400	15.4700
 2.2440	15.4100
 2.2480	15.5700
 2.2520	15.8800
 2.2560	16.2100
 2.2600	16.3700
 2.2640	16.2400
 2.2680	15.8500
 2.2720	15.2900
 2.2760	14.4000
 2.2800	13.4700
 2.2840	12.3800
 2.2880	11.5000
 2.2920	10.6200
 2.2960	 9.8400
 2.3000	 9.2100
 2.3040	 8.9800
 2.3080	 8.8700
 2.3120	 8.9700
 2.3160	 9.2400
 2.3200	 9.3300
 2.3240	 9.4000
 2.3280	 9.2700
 2.3320	 9.1700
 2.3360	 8.9700
 2.3400	 8.8200
 2.3440	 8.7500
 2.3480	 8.7200
 2.3520	 8.9000
 2.3560	 9.3000
 2.3600	 9.9300
 2.3640	10.6300
 2.3680	11.2900
 2.3720	11.9600
 2.3760	12.6100
 2.3800	13.3700
 2.3840	13.8900
 2.3880	14.5400
 2.3920	15.0800
 2.3960	15.5900
 2.4000	16.0600
 2.4040	16.4100
 2.4080	16.5000
 2.4120	16.6200
 2.4160	16.5000
 2.4200	16.2900
 2.4240	15.9200
 2.4280	15.4600
 2.4320	15.0400
 2.4360	14.7100
 2.4400	14.3600
 2.4440	14.2700
 2.4480	14.2700
 2.4520	14.3500
 2.4560	14.5100
 2.4600	14.7400
 2.4640	15.0600
 2.4680	15.3500
 2.4720	15.5700
 2.4760	15.7000
 2.4800	15.7900
 2.4840	15.7900
 2.4880	15.6000
 2.4920	15.4600
 2.4960	15.2900
 2.5000	15.0200
