Name: Quartz SiO_2
Type: Mineral
Class: Silicate
Subclass: Tectosilicate
Particle Size: Medium
Sample No.: TS-1B
Owner: JPL
Wavelength Range: VSWIR
Origin: Brazil, Minas Gerais
Collection Date: N/A
Description: Smoky quartz. Particle size was 45-125um.Collected by Burminco Original ASTER Spectral Library name was jpl.beckman.mineral.silicate.tectosilicate.medium.ts01b.spectrum.txt
Measurement: Hemispherical reflectance
First Column: X
Second Column: Y
X Units: Wavelength (micrometers)
Y Units:Reflectance (percent)
First X Value:  0.4000
Last X Value:  2.5000
Number of X Values: 826
Additional Information: mineral.silicate.tectosilicate.medium.vswir.ts-1b.jpl.beckman.ancillary.txt

 0.4000	61.5500
 0.4010	61.4400
 0.4020	61.5400
 0.4030	61.5200
 0.4040	61.4400
 0.4050	61.4800
 0.4060	61.4600
 0.4070	61.6400
 0.4080	61.5000
 0.4090	61.4200
 0.4100	61.2600
 0.4110	61.5400
 0.4120	61.4400
 0.4130	61.3200
 0.4140	61.4800
 0.4150	61.4200
 0.4160	61.5600
 0.4170	61.5000
 0.4180	61.4200
 0.4190	61.3400
 0.4200	61.4800
 0.4210	61.4000
 0.4220	61.3600
 0.4230	61.3800
 0.4240	61.5600
 0.4250	61.4600
 0.4260	61.4000
 0.4270	61.2600
 0.4280	61.3100
 0.4290	61.4100
 0.4300	61.4600
 0.4310	61.2800
 0.4320	61.3700
 0.4330	61.4200
 0.4340	61.4400
 0.4350	61.4400
 0.4360	61.5000
 0.4370	61.4000
 0.4380	61.4900
 0.4390	61.5500
 0.4400	61.3200
 0.4410	61.4500
 0.4420	61.3500
 0.4430	61.5400
 0.4440	61.4000
 0.4450	61.3400
 0.4460	61.3800
 0.4470	61.5200
 0.4480	61.4400
 0.4490	61.3700
 0.4500	61.3900
 0.4510	61.4900
 0.4520	61.5100
 0.4530	61.3900
 0.4540	61.3300
 0.4550	61.3000
 0.4560	61.5400
 0.4570	61.5600
 0.4580	61.5900
 0.4590	61.5700
 0.4600	61.4600
 0.4610	61.5700
 0.4620	61.5200
 0.4630	61.5600
 0.4640	61.6200
 0.4650	61.6000
 0.4660	61.5800
 0.4670	61.5300
 0.4680	61.8100
 0.4690	61.7100
 0.4700	61.5900
 0.4710	61.7300
 0.4720	61.7700
 0.4730	61.7000
 0.4740	61.8600
 0.4750	61.6800
 0.4760	61.7400
 0.4770	61.8900
 0.4780	61.8100
 0.4790	61.8000
 0.4800	61.9200
 0.4810	62.0000
 0.4820	61.9700
 0.4830	62.0400
 0.4840	61.8700
 0.4850	61.9300
 0.4860	62.1700
 0.4870	61.9900
 0.4880	62.0900
 0.4890	62.0100
 0.4900	62.0500
 0.4910	62.1500
 0.4920	62.1900
 0.4930	62.2200
 0.4940	62.2400
 0.4950	62.4000
 0.4960	62.3800
 0.4970	62.2400
 0.4980	62.3000
 0.4990	62.4300
 0.5000	62.5100
 0.5010	62.5900
 0.5020	62.5500
 0.5030	62.5500
 0.5040	62.6500
 0.5050	62.6500
 0.5060	62.7300
 0.5070	62.6900
 0.5080	62.6900
 0.5090	62.9000
 0.5100	62.8600
 0.5110	62.8600
 0.5120	62.8200
 0.5130	63.1500
 0.5140	62.9800
 0.5150	63.1300
 0.5160	63.0400
 0.5170	63.0400
 0.5180	63.2700
 0.5190	63.1900
 0.5200	63.2500
 0.5210	63.2500
 0.5220	63.5200
 0.5230	63.4200
 0.5240	63.2900
 0.5250	63.4400
 0.5260	63.3800
 0.5270	63.4000
 0.5280	63.5200
 0.5290	63.4600
 0.5300	63.5400
 0.5310	63.6500
 0.5320	63.7500
 0.5330	63.6600
 0.5340	63.6700
 0.5350	63.8000
 0.5360	63.7400
 0.5370	63.8700
 0.5380	63.8300
 0.5390	63.8900
 0.5400	64.0000
 0.5410	64.0400
 0.5420	63.9300
 0.5430	64.0200
 0.5440	64.0600
 0.5450	64.1700
 0.5460	64.2500
 0.5470	64.3100
 0.5480	64.5000
 0.5490	64.3800
 0.5500	64.4700
 0.5510	64.4700
 0.5520	64.5400
 0.5530	64.5600
 0.5540	64.7000
 0.5550	64.6200
 0.5560	64.6000
 0.5570	64.6900
 0.5580	64.8400
 0.5590	64.7100
 0.5600	64.8200
 0.5610	65.1200
 0.5620	65.1000
 0.5630	65.1300
 0.5640	65.2200
 0.5650	65.1600
 0.5660	65.1800
 0.5670	65.1700
 0.5680	65.3100
 0.5690	65.3400
 0.5700	65.1900
 0.5710	65.1100
 0.5720	65.1300
 0.5730	65.2700
 0.5740	65.1900
 0.5750	65.0700
 0.5760	65.0800
 0.5770	65.1500
 0.5780	65.2400
 0.5790	65.0500
 0.5800	65.2300
 0.5810	65.3500
 0.5820	65.3800
 0.5830	65.2800
 0.5840	65.3200
 0.5850	65.3500
 0.5860	65.4400
 0.5870	65.4200
 0.5880	65.3400
 0.5890	65.3200
 0.5900	65.4600
 0.5910	65.3900
 0.5920	65.3600
 0.5930	65.5300
 0.5940	65.7100
 0.5950	65.6800
 0.5960	65.5800
 0.5970	65.5900
 0.5980	65.6500
 0.5990	65.7900
 0.6000	65.8100
 0.6010	65.6600
 0.6020	65.7700
 0.6030	65.9400
 0.6040	65.8800
 0.6050	65.8500
 0.6060	65.8500
 0.6070	66.0700
 0.6080	66.1300
 0.6090	65.9100
 0.6100	65.8500
 0.6110	66.0200
 0.6120	66.0400
 0.6130	65.9800
 0.6140	65.9200
 0.6150	66.0200
 0.6160	66.0700
 0.6170	65.9200
 0.6180	65.9000
 0.6190	66.0600
 0.6200	66.1100
 0.6210	66.0600
 0.6220	66.0600
 0.6230	66.1300
 0.6240	66.2900
 0.6250	66.2100
 0.6260	66.1000
 0.6270	66.1000
 0.6280	66.2400
 0.6290	66.2600
 0.6300	66.3300
 0.6310	66.2600
 0.6320	66.2900
 0.6330	66.4300
 0.6340	66.3200
 0.6350	66.2500
 0.6360	66.5600
 0.6370	66.5100
 0.6380	66.3500
 0.6390	66.3000
 0.6400	66.3400
 0.6410	66.5900
 0.6420	66.4700
 0.6430	66.5200
 0.6440	66.6200
 0.6450	66.6800
 0.6460	66.8000
 0.6470	66.5600
 0.6480	66.6300
 0.6490	66.7800
 0.6500	66.8100
 0.6510	66.8600
 0.6520	66.6500
 0.6530	66.6900
 0.6540	66.9400
 0.6550	66.9000
 0.6560	66.9500
 0.6570	66.8600
 0.6580	67.0500
 0.6590	67.1500
 0.6600	67.0200
 0.6610	66.9800
 0.6620	67.1000
 0.6630	67.2000
 0.6640	67.2900
 0.6650	67.1500
 0.6660	67.1500
 0.6670	67.2400
 0.6680	67.3600
 0.6690	67.3500
 0.6700	67.3200
 0.6710	67.3300
 0.6720	67.5900
 0.6730	67.5700
 0.6740	67.5300
 0.6750	67.5600
 0.6760	67.6200
 0.6770	67.7700
 0.6780	67.7500
 0.6790	67.5300
 0.6800	67.6500
 0.6810	67.7000
 0.6820	67.8400
 0.6830	67.8000
 0.6840	67.8100
 0.6850	67.9700
 0.6860	67.9300
 0.6870	68.0700
 0.6880	67.8500
 0.6890	67.9000
 0.6900	68.2000
 0.6910	68.2000
 0.6920	68.1700
 0.6930	68.1700
 0.6940	68.1600
 0.6950	68.2600
 0.6960	68.3100
 0.6970	68.2100
 0.6980	68.3100
 0.6990	68.3900
 0.7000	68.4800
 0.7010	68.3600
 0.7020	68.5000
 0.7030	68.5400
 0.7040	68.5800
 0.7050	68.5800
 0.7060	68.5900
 0.7070	68.6100
 0.7080	68.7400
 0.7090	68.8000
 0.7100	68.7300
 0.7110	68.7500
 0.7120	68.8100
 0.7130	69.0300
 0.7140	68.9700
 0.7150	68.9300
 0.7160	69.0100
 0.7170	69.1000
 0.7180	69.2300
 0.7190	69.2700
 0.7200	69.1400
 0.7210	69.2500
 0.7220	69.3200
 0.7230	69.3600
 0.7240	69.3200
 0.7250	69.4200
 0.7260	69.5500
 0.7270	69.5500
 0.7280	69.6200
 0.7290	69.6100
 0.7300	69.6200
 0.7310	69.7500
 0.7320	69.8100
 0.7330	69.7500
 0.7340	69.7500
 0.7350	69.8700
 0.7360	69.9200
 0.7370	70.0200
 0.7380	70.0200
 0.7390	69.9500
 0.7400	70.1000
 0.7410	70.1300
 0.7420	70.1000
 0.7430	70.1000
 0.7440	70.1800
 0.7450	70.3700
 0.7460	70.3100
 0.7470	70.2800
 0.7480	70.1700
 0.7490	70.2600
 0.7500	70.4800
 0.7510	70.4100
 0.7520	70.4000
 0.7530	70.4200
 0.7540	70.6200
 0.7550	70.6200
 0.7560	70.5900
 0.7570	70.6200
 0.7580	70.5500
 0.7590	70.9400
 0.7600	70.8900
 0.7610	70.8800
 0.7620	70.8800
 0.7630	70.8600
 0.7640	71.0100
 0.7650	70.9800
 0.7660	71.0800
 0.7670	71.0500
 0.7680	71.2500
 0.7690	71.3500
 0.7700	71.2100
 0.7710	71.3800
 0.7720	71.4100
 0.7730	71.5500
 0.7740	71.6000
 0.7750	71.3800
 0.7760	71.4000
 0.7770	71.5100
 0.7780	71.6000
 0.7790	71.5800
 0.7800	71.6400
 0.7810	71.6800
 0.7820	71.9800
 0.7830	71.9000
 0.7840	71.8400
 0.7850	71.9300
 0.7860	72.1300
 0.7870	72.1200
 0.7880	72.1000
 0.7890	72.0500
 0.7900	72.0800
 0.7910	72.3300
 0.7920	72.3200
 0.7930	72.3500
 0.7940	72.3900
 0.7950	72.4700
 0.7960	72.5100
 0.7970	72.5600
 0.7980	72.5900
 0.7990	72.6800
 0.8000	72.8900
 0.8040	73.0000
 0.8080	73.1000
 0.8120	73.3300
 0.8160	73.5600
 0.8200	73.6800
 0.8240	73.9100
 0.8280	74.0400
 0.8320	74.2700
 0.8360	74.5500
 0.8400	74.6600
 0.8440	74.7300
 0.8480	74.8800
 0.8520	75.1300
 0.8560	75.2500
 0.8600	75.4500
 0.8640	75.4800
 0.8680	75.6100
 0.8720	75.8100
 0.8760	75.9600
 0.8800	76.0200
 0.8840	76.1100
 0.8880	76.3000
 0.8920	76.3600
 0.8960	76.5100
 0.9000	76.7100
 0.9040	76.7700
 0.9080	76.9100
 0.9120	77.0100
 0.9160	77.1800
 0.9200	77.2900
 0.9240	77.3800
 0.9280	77.5100
 0.9320	77.5700
 0.9360	77.6600
 0.9400	77.7500
 0.9440	77.8500
 0.9480	77.9100
 0.9520	77.9800
 0.9560	78.1300
 0.9600	78.2400
 0.9640	78.3600
 0.9680	78.4000
 0.9720	78.4700
 0.9760	78.6400
 0.9800	78.7100
 0.9840	78.7300
 0.9880	78.8100
 0.9920	78.8600
 0.9960	79.0000
 1.0000	78.9900
 1.0040	79.1600
 1.0080	79.1800
 1.0120	79.2300
 1.0160	79.2800
 1.0200	79.4000
 1.0240	79.3500
 1.0280	79.4200
 1.0320	79.4500
 1.0360	79.5700
 1.0400	79.6200
 1.0440	79.6900
 1.0480	79.6200
 1.0520	79.6800
 1.0560	79.7700
 1.0600	79.8300
 1.0640	79.9200
 1.0680	79.9500
 1.0720	79.9500
 1.0760	79.9200
 1.0800	80.0500
 1.0840	80.0600
 1.0880	80.1500
 1.0920	80.1800
 1.0960	80.3400
 1.1000	80.3300
 1.1040	80.3500
 1.1080	80.4100
 1.1120	80.4100
 1.1160	80.3700
 1.1200	80.4500
 1.1240	80.4500
 1.1280	80.5500
 1.1320	80.5700
 1.1360	80.5400
 1.1400	80.5200
 1.1440	80.5100
 1.1480	80.5600
 1.1520	80.5800
 1.1560	80.6000
 1.1600	80.6400
 1.1640	80.7500
 1.1680	80.5800
 1.1720	80.7100
 1.1760	80.7200
 1.1800	80.7900
 1.1840	80.7400
 1.1880	80.6600
 1.1920	80.7300
 1.1960	80.6300
 1.2000	80.7300
 1.2040	80.7900
 1.2080	80.7300
 1.2120	80.6500
 1.2160	80.7500
 1.2200	80.8300
 1.2240	80.8600
 1.2280	80.8700
 1.2320	80.8600
 1.2360	80.9000
 1.2400	80.9300
 1.2440	80.9700
 1.2480	81.0400
 1.2520	81.0500
 1.2560	81.0400
 1.2600	81.0300
 1.2640	81.0600
 1.2680	80.9800
 1.2720	80.9500
 1.2760	81.0500
 1.2800	81.0900
 1.2840	81.0800
 1.2880	81.0900
 1.2920	81.0200
 1.2960	81.0600
 1.3000	81.0800
 1.3040	81.0900
 1.3080	81.1400
 1.3120	81.1100
 1.3160	81.0800
 1.3200	81.1100
 1.3240	81.0700
 1.3280	81.1100
 1.3320	81.1300
 1.3360	80.9900
 1.3400	81.0300
 1.3440	81.0500
 1.3480	81.0800
 1.3520	81.1000
 1.3560	81.1600
 1.3600	81.1900
 1.3640	81.1500
 1.3680	81.1800
 1.3720	81.1900
 1.3760	81.1800
 1.3800	81.1700
 1.3840	81.2000
 1.3880	81.0900
 1.3920	81.1500
 1.3960	81.0900
 1.4000	81.1600
 1.4040	81.1900
 1.4080	81.2000
 1.4120	81.2200
 1.4160	81.2500
 1.4200	81.2400
 1.4240	81.2600
 1.4280	81.3600
 1.4320	81.3400
 1.4360	81.3700
 1.4400	81.3800
 1.4440	81.3200
 1.4480	81.3300
 1.4520	81.2200
 1.4560	81.3100
 1.4600	81.4100
 1.4640	81.4400
 1.4680	81.3500
 1.4720	81.3400
 1.4760	81.3400
 1.4800	81.3800
 1.4840	81.3800
 1.4880	81.3600
 1.4920	81.3700
 1.4960	81.4400
 1.5000	81.4500
 1.5040	81.4200
 1.5080	81.4400
 1.5120	81.4600
 1.5160	81.5400
 1.5200	81.4400
 1.5240	81.4400
 1.5280	81.5200
 1.5320	81.5900
 1.5360	81.5200
 1.5400	81.5500
 1.5440	81.5700
 1.5480	81.5700
 1.5520	81.5200
 1.5560	81.5900
 1.5600	81.5200
 1.5640	81.4600
 1.5680	81.4600
 1.5720	81.4700
 1.5760	81.5400
 1.5800	81.5300
 1.5840	81.5200
 1.5880	81.6300
 1.5920	81.5500
 1.5960	81.6100
 1.6000	81.7000
 1.6040	81.7400
 1.6080	81.7100
 1.6120	81.7300
 1.6160	81.6700
 1.6200	81.7200
 1.6240	81.7000
 1.6280	81.6400
 1.6320	81.6900
 1.6360	81.6900
 1.6400	81.6800
 1.6440	81.7000
 1.6480	81.6700
 1.6520	81.7000
 1.6560	81.8500
 1.6600	81.7300
 1.6640	81.7500
 1.6680	81.8200
 1.6720	81.8200
 1.6760	81.8300
 1.6800	81.8500
 1.6840	81.8500
 1.6880	81.9200
 1.6920	81.9400
 1.6960	81.8800
 1.7000	81.9100
 1.7040	81.9500
 1.7080	81.9700
 1.7120	81.9500
 1.7160	81.9600
 1.7200	82.0500
 1.7240	82.0300
 1.7280	82.0500
 1.7320	82.0000
 1.7360	81.8900
 1.7400	81.8400
 1.7440	81.9000
 1.7480	81.9700
 1.7520	81.9600
 1.7560	81.9000
 1.7600	81.9300
 1.7640	81.9500
 1.7680	81.9500
 1.7720	81.8700
 1.7760	81.8900
 1.7800	81.9600
 1.7840	81.9800
 1.7880	81.9700
 1.7920	81.9100
 1.7960	81.8500
 1.8000	81.9500
 1.8040	81.9000
 1.8080	81.8600
 1.8120	81.8600
 1.8160	81.9100
 1.8200	81.9800
 1.8240	81.9200
 1.8280	81.8900
 1.8320	81.8800
 1.8360	81.9600
 1.8400	81.8900
 1.8440	82.0000
 1.8480	81.8700
 1.8520	81.9200
 1.8560	81.9400
 1.8600	81.9000
 1.8640	82.0300
 1.8680	82.0500
 1.8720	81.9800
 1.8760	81.9300
 1.8800	81.9700
 1.8840	82.0000
 1.8880	81.8900
 1.8920	81.9300
 1.8960	81.8900
 1.9000	82.0000
 1.9040	81.9300
 1.9080	81.9300
 1.9120	81.9300
 1.9160	81.9700
 1.9200	81.9800
 1.9240	81.9500
 1.9280	81.8500
 1.9320	81.7700
 1.9360	81.8700
 1.9400	81.8300
 1.9440	81.8800
 1.9480	81.8900
 1.9520	81.8800
 1.9560	81.9500
 1.9600	81.8900
 1.9640	82.0200
 1.9680	82.0800
 1.9720	82.1400
 1.9760	82.1500
 1.9800	82.2500
 1.9840	82.1900
 1.9880	82.2900
 1.9920	82.3500
 1.9960	82.3900
 2.0000	82.4100
 2.0040	82.3900
 2.0080	82.4100
 2.0120	82.4200
 2.0160	82.4500
 2.0200	82.4800
 2.0240	82.4700
 2.0280	82.5000
 2.0320	82.5600
 2.0360	82.5300
 2.0400	82.6500
 2.0440	82.6900
 2.0480	82.5600
 2.0520	82.6200
 2.0560	82.7000
 2.0600	82.6700
 2.0640	82.6900
 2.0680	82.7100
 2.0720	82.7600
 2.0760	82.8800
 2.0800	82.9100
 2.0840	82.8600
 2.0880	82.9000
 2.0920	82.9200
 2.0960	83.0400
 2.1000	83.0200
 2.1040	83.0900
 2.1080	83.1000
 2.1120	83.2300
 2.1160	83.1700
 2.1200	83.1500
 2.1240	83.2200
 2.1280	83.1600
 2.1320	83.1600
 2.1360	83.0400
 2.1400	83.0200
 2.1440	82.9600
 2.1480	82.9100
 2.1520	82.8500
 2.1560	82.8100
 2.1600	82.7900
 2.1640	82.8000
 2.1680	82.8200
 2.1720	82.7900
 2.1760	82.8700
 2.1800	82.7100
 2.1840	82.7100
 2.1880	82.6800
 2.1920	82.6700
 2.1960	82.6300
 2.2000	82.6900
 2.2040	82.6100
 2.2080	82.5700
 2.2120	82.6200
 2.2160	82.6500
 2.2200	82.6200
 2.2240	82.6100
 2.2280	82.6900
 2.2320	82.6900
 2.2360	82.6500
 2.2400	82.7000
 2.2440	82.7900
 2.2480	82.6900
 2.2520	82.7200
 2.2560	82.6800
 2.2600	82.6300
 2.2640	82.7100
 2.2680	82.6700
 2.2720	82.7900
 2.2760	82.7900
 2.2800	82.8000
 2.2840	82.6900
 2.2880	82.8600
 2.2920	82.8500
 2.2960	82.8000
 2.3000	82.8200
 2.3040	82.9600
 2.3080	83.0000
 2.3120	83.0200
 2.3160	83.2300
 2.3200	83.3100
 2.3240	83.2800
 2.3280	83.2400
 2.3320	83.1700
 2.3360	83.2600
 2.3400	83.2300
 2.3440	83.2600
 2.3480	83.3300
 2.3520	83.3300
 2.3560	83.3000
 2.3600	83.2700
 2.3640	83.3500
 2.3680	83.1600
 2.3720	83.2100
 2.3760	83.2600
 2.3800	83.2700
 2.3840	83.2900
 2.3880	83.2400
 2.3920	83.2000
 2.3960	83.3000
 2.4000	83.2600
 2.4040	83.2800
 2.4080	83.2200
 2.4120	83.3300
 2.4160	83.3600
 2.4200	83.3800
 2.4240	83.3700
 2.4280	83.3500
 2.4320	83.4100
 2.4360	83.4600
 2.4400	83.3800
 2.4440	83.3300
 2.4480	83.2800
 2.4520	83.2600
 2.4560	83.2600
 2.4600	83.2600
 2.4640	83.2300
 2.4680	83.2700
 2.4720	83.2800
 2.4760	83.2800
 2.4800	83.5500
 2.4840	83.5900
 2.4880	83.6800
 2.4920	83.8400
 2.4960	83.9700
 2.5000	84.0600
