Name: Witherite BaCO_3
Type: Mineral
Class: Carbonate
Subclass: None
Particle Size: Coarse
Sample No.: C-2A
Owner: JPL
Wavelength Range: VSWIR
Origin: United Kingdom, England.
Collection Date: N/A
Description: Particle size was 125-500um.Collected by:  Grieger's Inc. Original ASTER Spectral Library name was jpl.perkin.mineral.carbonate.none.coarse.c02a.spectrum.txt
Measurement: Hemispherical reflectance
First Column: X
Second Column: Y
X Units: Wavelength (micrometers)
Y Units:Reflectance (percent)
First X Value:  2.5000
Last X Value:  0.4000
Number of X Values: 2101
Additional Information: mineral.carbonate.none.coarse.vswir.c-2a.jpl.perkin.ancillary.txt

 2.5000	63.3107
 2.4990	63.8007
 2.4980	64.2283
 2.4970	64.6256
 2.4960	64.7382
 2.4950	65.3108
 2.4940	65.4284
 2.4930	65.6807
 2.4920	65.9783
 2.4910	66.2621
 2.4900	66.4983
 2.4890	66.7897
 2.4880	66.9687
 2.4870	67.1667
 2.4860	67.2551
 2.4850	67.5967
 2.4840	67.7783
 2.4830	68.1669
 2.4820	68.1454
 2.4810	68.3379
 2.4800	68.3095
 2.4790	68.4619
 2.4780	68.7201
 2.4770	68.7572
 2.4760	68.7661
 2.4750	68.9672
 2.4740	69.1909
 2.4730	69.3912
 2.4720	69.4367
 2.4710	69.5267
 2.4700	69.5289
 2.4690	69.6447
 2.4680	69.8093
 2.4670	69.8836
 2.4660	69.8906
 2.4650	69.9222
 2.4640	70.0561
 2.4630	70.3518
 2.4620	70.3081
 2.4610	70.3752
 2.4600	70.3378
 2.4590	70.5526
 2.4580	70.4762
 2.4570	70.4925
 2.4560	70.5871
 2.4550	70.7367
 2.4540	70.6366
 2.4530	70.6726
 2.4520	70.6462
 2.4510	70.8378
 2.4500	70.8572
 2.4490	70.7887
 2.4480	70.8225
 2.4470	70.8462
 2.4460	70.9448
 2.4450	70.8781
 2.4440	70.8069
 2.4430	70.9761
 2.4420	70.9534
 2.4410	70.9252
 2.4400	70.9729
 2.4390	70.8448
 2.4380	70.6960
 2.4370	70.8044
 2.4360	70.8351
 2.4350	70.6548
 2.4340	70.5173
 2.4330	70.3595
 2.4320	70.1820
 2.4310	70.1415
 2.4300	69.9570
 2.4290	69.7106
 2.4280	69.4591
 2.4270	69.1578
 2.4260	69.0392
 2.4250	68.8448
 2.4240	68.4339
 2.4230	68.0359
 2.4220	67.6764
 2.4210	67.2530
 2.4200	66.8214
 2.4190	66.3669
 2.4180	65.9224
 2.4170	65.4159
 2.4160	64.8126
 2.4150	64.2187
 2.4140	63.5459
 2.4130	62.8683
 2.4120	62.0244
 2.4110	61.2311
 2.4100	60.4227
 2.4090	59.4960
 2.4080	58.5949
 2.4070	57.6823
 2.4060	56.6922
 2.4050	55.6739
 2.4040	54.7117
 2.4030	53.6541
 2.4020	52.5321
 2.4010	51.5515
 2.4000	50.4667
 2.3990	49.4236
 2.3980	48.4017
 2.3970	47.3838
 2.3960	46.4969
 2.3950	45.6363
 2.3940	44.8111
 2.3930	44.1877
 2.3920	43.6056
 2.3910	43.0517
 2.3900	42.6438
 2.3890	42.3487
 2.3880	42.1398
 2.3870	42.0887
 2.3860	42.0570
 2.3850	42.1996
 2.3840	42.4800
 2.3830	42.7957
 2.3820	43.1629
 2.3810	43.6811
 2.3800	44.2073
 2.3790	44.8605
 2.3780	45.5443
 2.3770	46.2020
 2.3760	46.9333
 2.3750	47.6353
 2.3740	48.4246
 2.3730	49.1810
 2.3720	49.8817
 2.3710	50.5895
 2.3700	51.1901
 2.3690	51.7447
 2.3680	52.3195
 2.3670	52.8566
 2.3660	53.3377
 2.3650	53.8039
 2.3640	54.2495
 2.3630	54.6387
 2.3620	54.9820
 2.3610	55.3266
 2.3600	55.6301
 2.3590	55.8767
 2.3580	56.1138
 2.3570	56.4048
 2.3560	56.6591
 2.3550	56.7673
 2.3540	56.9494
 2.3530	57.1498
 2.3520	57.3248
 2.3510	57.4897
 2.3500	57.6184
 2.3490	57.7622
 2.3480	57.9083
 2.3470	58.0541
 2.3460	58.1770
 2.3450	58.2672
 2.3440	58.3555
 2.3430	58.4873
 2.3420	58.6245
 2.3410	58.7430
 2.3400	58.8482
 2.3390	58.9643
 2.3380	59.0769
 2.3370	59.2389
 2.3360	59.4664
 2.3350	59.6676
 2.3340	59.8471
 2.3330	60.0299
 2.3320	60.2315
 2.3310	60.4801
 2.3300	60.7204
 2.3290	60.9500
 2.3280	61.1997
 2.3270	61.4570
 2.3260	61.7746
 2.3250	62.0658
 2.3240	62.3891
 2.3230	62.6721
 2.3220	62.9628
 2.3210	63.2637
 2.3200	63.5470
 2.3190	63.9496
 2.3180	64.2879
 2.3170	64.5764
 2.3160	64.9324
 2.3150	65.2482
 2.3140	65.5437
 2.3130	65.8768
 2.3120	66.1693
 2.3110	66.4845
 2.3100	66.7899
 2.3090	67.0841
 2.3080	67.4090
 2.3070	67.7732
 2.3060	68.0247
 2.3050	68.3053
 2.3040	68.6863
 2.3030	68.9458
 2.3020	69.2554
 2.3010	69.5091
 2.3000	69.8381
 2.2990	70.0831
 2.2980	70.3806
 2.2970	70.6503
 2.2960	70.7983
 2.2950	71.0628
 2.2940	71.3605
 2.2930	71.6612
 2.2920	71.9556
 2.2910	72.2136
 2.2900	72.4185
 2.2890	72.6574
 2.2880	72.9005
 2.2870	73.1007
 2.2860	73.3620
 2.2850	73.5721
 2.2840	73.8059
 2.2830	74.0351
 2.2820	74.2441
 2.2810	74.4306
 2.2800	74.6588
 2.2790	74.8475
 2.2780	75.0204
 2.2770	75.2580
 2.2760	75.4958
 2.2750	75.6743
 2.2740	75.9024
 2.2730	76.0597
 2.2720	76.2398
 2.2710	76.4218
 2.2700	76.6291
 2.2690	76.8507
 2.2680	77.0066
 2.2670	77.1270
 2.2660	77.3030
 2.2650	77.5736
 2.2640	77.7736
 2.2630	77.9707
 2.2620	78.0469
 2.2610	78.3253
 2.2600	78.5072
 2.2590	78.6714
 2.2580	78.7769
 2.2570	79.0143
 2.2560	79.2444
 2.2550	79.3639
 2.2540	79.5305
 2.2530	79.6817
 2.2520	79.8837
 2.2510	79.8979
 2.2500	80.0980
 2.2490	80.2615
 2.2480	80.3232
 2.2470	80.5838
 2.2460	80.6244
 2.2450	80.6941
 2.2440	80.8376
 2.2430	80.9574
 2.2420	81.0499
 2.2410	81.1876
 2.2400	81.3005
 2.2390	81.3991
 2.2380	81.3928
 2.2370	81.5603
 2.2360	81.6230
 2.2350	81.6854
 2.2340	81.6977
 2.2330	81.7453
 2.2320	81.7250
 2.2310	81.7146
 2.2300	81.6957
 2.2290	81.6723
 2.2280	81.5249
 2.2270	81.3412
 2.2260	81.2868
 2.2250	81.1251
 2.2240	80.8213
 2.2230	80.5569
 2.2220	80.2358
 2.2210	79.9369
 2.2200	79.5335
 2.2190	79.0941
 2.2180	78.6646
 2.2170	78.2318
 2.2160	77.8170
 2.2150	77.4318
 2.2140	76.9495
 2.2130	76.5667
 2.2120	76.3730
 2.2110	75.9282
 2.2100	75.7900
 2.2090	75.6754
 2.2080	75.5884
 2.2070	75.5717
 2.2060	75.7597
 2.2050	75.7848
 2.2040	76.1257
 2.2030	76.4027
 2.2020	76.7864
 2.2010	77.2546
 2.2000	77.7505
 2.1990	78.1941
 2.1980	78.6862
 2.1970	79.1059
 2.1960	79.6524
 2.1950	80.1779
 2.1940	80.6338
 2.1930	81.0044
 2.1920	81.3755
 2.1910	81.6128
 2.1900	81.8997
 2.1890	82.2773
 2.1880	82.3756
 2.1870	82.5622
 2.1860	82.6793
 2.1850	82.9466
 2.1840	83.1699
 2.1830	83.2392
 2.1820	83.3809
 2.1810	83.5014
 2.1800	83.6254
 2.1790	83.7904
 2.1780	83.8300
 2.1770	83.9068
 2.1760	84.1243
 2.1750	84.2285
 2.1740	84.2876
 2.1730	84.3397
 2.1720	84.3425
 2.1710	84.3918
 2.1700	84.4708
 2.1690	84.5326
 2.1680	84.6135
 2.1670	84.5895
 2.1660	84.6866
 2.1650	84.7084
 2.1640	84.8249
 2.1630	84.8235
 2.1620	84.8772
 2.1610	84.9571
 2.1600	85.1167
 2.1590	85.1356
 2.1580	85.1598
 2.1570	85.1461
 2.1560	85.1684
 2.1550	85.2684
 2.1540	85.3974
 2.1530	85.4909
 2.1520	85.5308
 2.1510	85.6464
 2.1500	85.7283
 2.1490	85.8606
 2.1480	85.9327
 2.1470	85.9983
 2.1460	86.0689
 2.1450	86.1726
 2.1440	86.1733
 2.1430	86.3058
 2.1420	86.4117
 2.1410	86.4685
 2.1400	86.5413
 2.1390	86.6415
 2.1380	86.6593
 2.1370	86.7747
 2.1360	86.7209
 2.1350	86.7258
 2.1340	86.7333
 2.1330	86.8104
 2.1320	86.7564
 2.1310	86.8323
 2.1300	86.8162
 2.1290	86.7829
 2.1280	86.8172
 2.1270	86.7355
 2.1260	86.6895
 2.1250	86.7448
 2.1240	86.7397
 2.1230	86.6555
 2.1220	86.6047
 2.1210	86.5567
 2.1200	86.5268
 2.1190	86.4740
 2.1180	86.4575
 2.1170	86.4435
 2.1160	86.4631
 2.1150	86.3565
 2.1140	86.3106
 2.1130	86.3168
 2.1120	86.2442
 2.1110	86.1949
 2.1100	86.1494
 2.1090	86.0780
 2.1080	86.0370
 2.1070	85.9626
 2.1060	85.9440
 2.1050	85.9215
 2.1040	85.8786
 2.1030	85.8249
 2.1020	85.7466
 2.1010	85.6969
 2.1000	85.6571
 2.0990	85.6451
 2.0980	85.6493
 2.0970	85.6487
 2.0960	85.6423
 2.0950	85.6365
 2.0940	85.6589
 2.0930	85.6309
 2.0920	85.5996
 2.0910	85.6046
 2.0900	85.6427
 2.0890	85.6717
 2.0880	85.6547
 2.0870	85.6201
 2.0860	85.6298
 2.0850	85.6047
 2.0840	85.5444
 2.0830	85.5580
 2.0820	85.5630
 2.0810	85.5210
 2.0800	85.4589
 2.0790	85.4607
 2.0780	85.4305
 2.0770	85.3882
 2.0760	85.3555
 2.0750	85.2612
 2.0740	85.2208
 2.0730	85.1866
 2.0720	85.0958
 2.0710	85.0321
 2.0700	84.9431
 2.0690	84.8646
 2.0680	84.7638
 2.0670	84.6554
 2.0660	84.5674
 2.0650	84.3806
 2.0640	84.1477
 2.0630	83.9286
 2.0620	83.6736
 2.0610	83.3686
 2.0600	83.0070
 2.0590	82.6277
 2.0580	82.1795
 2.0570	81.6890
 2.0560	81.1252
 2.0550	80.4957
 2.0540	79.8609
 2.0530	79.1982
 2.0520	78.5421
 2.0510	77.8612
 2.0500	77.2800
 2.0490	76.8205
 2.0480	76.4387
 2.0470	76.1972
 2.0460	76.1571
 2.0450	76.2963
 2.0440	76.5779
 2.0430	76.9219
 2.0420	77.3056
 2.0410	77.7399
 2.0400	78.2518
 2.0390	78.7067
 2.0380	79.1393
 2.0370	79.5364
 2.0360	79.8958
 2.0350	80.2233
 2.0340	80.4680
 2.0330	80.7932
 2.0320	81.0076
 2.0310	81.2537
 2.0300	81.5524
 2.0290	81.7406
 2.0280	81.9073
 2.0270	82.0520
 2.0260	82.2159
 2.0250	82.3487
 2.0240	82.4533
 2.0230	82.5302
 2.0220	82.6003
 2.0210	82.6420
 2.0200	82.6831
 2.0190	82.8110
 2.0180	82.7999
 2.0170	82.8837
 2.0160	82.9097
 2.0150	82.8619
 2.0140	82.8594
 2.0130	82.9097
 2.0120	82.9151
 2.0110	82.9574
 2.0100	82.9445
 2.0090	82.9587
 2.0080	82.9498
 2.0070	83.0628
 2.0060	82.9984
 2.0050	83.0788
 2.0040	83.0965
 2.0030	83.1899
 2.0020	83.2594
 2.0010	83.2865
 2.0000	83.3872
 1.9990	83.4892
 1.9980	83.5218
 1.9970	83.6502
 1.9960	83.8128
 1.9950	83.8174
 1.9940	83.8668
 1.9930	83.9746
 1.9920	84.1044
 1.9910	84.1921
 1.9900	84.1779
 1.9890	84.2111
 1.9880	84.3466
 1.9870	84.3722
 1.9860	84.3158
 1.9850	84.3976
 1.9840	84.4152
 1.9830	84.3974
 1.9820	84.2927
 1.9810	84.4163
 1.9800	84.3613
 1.9790	84.4093
 1.9780	84.3562
 1.9770	84.3512
 1.9760	84.3119
 1.9750	84.2806
 1.9740	84.2830
 1.9730	84.2714
 1.9720	84.1706
 1.9710	84.1956
 1.9700	84.2014
 1.9690	84.0876
 1.9680	84.1033
 1.9670	84.0849
 1.9660	83.9717
 1.9650	83.9623
 1.9640	83.9636
 1.9630	83.8864
 1.9620	83.8922
 1.9610	83.8889
 1.9600	83.8440
 1.9590	83.7873
 1.9580	83.7164
 1.9570	83.6008
 1.9560	83.7943
 1.9550	83.6728
 1.9540	83.5291
 1.9530	83.5678
 1.9520	83.5614
 1.9510	83.5143
 1.9500	83.4949
 1.9490	83.3518
 1.9480	83.4283
 1.9470	83.3416
 1.9460	83.2758
 1.9450	83.3055
 1.9440	83.2132
 1.9430	83.0856
 1.9420	83.0518
 1.9410	83.0422
 1.9400	82.8903
 1.9390	82.8663
 1.9380	82.7353
 1.9370	82.6857
 1.9360	82.4647
 1.9350	82.4073
 1.9340	82.1962
 1.9330	81.9672
 1.9320	81.7651
 1.9310	81.5368
 1.9300	81.1818
 1.9290	80.7976
 1.9280	80.4928
 1.9270	80.0955
 1.9260	79.5892
 1.9250	79.2101
 1.9240	78.7721
 1.9230	78.3630
 1.9220	77.9994
 1.9210	77.6530
 1.9200	77.3823
 1.9190	77.3039
 1.9180	77.1110
 1.9170	77.2930
 1.9160	77.2814
 1.9150	77.4691
 1.9140	77.8250
 1.9130	78.2462
 1.9120	78.5679
 1.9110	79.0356
 1.9100	79.4281
 1.9090	79.8379
 1.9080	80.1941
 1.9070	80.5647
 1.9060	80.8896
 1.9050	81.2458
 1.9040	81.6267
 1.9030	81.8619
 1.9020	82.1387
 1.9010	82.4479
 1.9000	82.6532
 1.8990	82.8652
 1.8980	83.0663
 1.8970	83.2191
 1.8960	83.3957
 1.8950	83.5416
 1.8940	83.6464
 1.8930	83.8622
 1.8920	83.9195
 1.8910	84.0424
 1.8900	84.0890
 1.8890	84.2640
 1.8880	84.2812
 1.8870	84.3573
 1.8860	84.5322
 1.8850	84.5910
 1.8840	84.6077
 1.8830	84.6326
 1.8820	84.7803
 1.8810	84.8227
 1.8800	84.8964
 1.8790	85.0612
 1.8780	85.1532
 1.8770	85.1527
 1.8760	85.2084
 1.8750	85.3385
 1.8740	85.4969
 1.8730	85.6099
 1.8720	85.7110
 1.8710	85.8656
 1.8700	86.0309
 1.8690	86.1888
 1.8680	86.3444
 1.8670	86.4331
 1.8660	86.4499
 1.8650	86.5951
 1.8640	86.7046
 1.8630	86.7775
 1.8620	86.8163
 1.8610	86.9898
 1.8600	87.0549
 1.8590	87.1135
 1.8580	87.1993
 1.8570	87.2488
 1.8560	87.2985
 1.8550	87.2995
 1.8540	87.3795
 1.8530	87.4754
 1.8520	87.5323
 1.8510	87.5525
 1.8500	87.5793
 1.8490	87.6254
 1.8480	87.6770
 1.8470	87.7116
 1.8460	87.7059
 1.8450	87.7628
 1.8440	87.7648
 1.8430	87.8066
 1.8420	87.8118
 1.8410	87.8537
 1.8400	87.8673
 1.8390	87.9349
 1.8380	87.9523
 1.8370	88.0104
 1.8360	88.0230
 1.8350	88.0449
 1.8340	88.0696
 1.8330	88.1041
 1.8320	88.0857
 1.8310	88.0294
 1.8300	88.0992
 1.8290	88.0821
 1.8280	88.1542
 1.8270	88.1734
 1.8260	88.1587
 1.8250	88.1950
 1.8240	88.1582
 1.8230	88.1264
 1.8220	88.1361
 1.8210	88.1528
 1.8200	88.1771
 1.8190	88.1828
 1.8180	88.1432
 1.8170	88.1793
 1.8160	88.1504
 1.8150	88.1123
 1.8140	88.0998
 1.8130	88.0887
 1.8120	88.0352
 1.8110	87.9976
 1.8100	87.9431
 1.8090	87.8718
 1.8080	87.7250
 1.8070	87.5947
 1.8060	87.5190
 1.8050	87.4068
 1.8040	87.3181
 1.8030	87.1655
 1.8020	87.0898
 1.8010	86.9790
 1.8000	86.9151
 1.7990	86.8570
 1.7980	86.8288
 1.7970	86.8717
 1.7960	86.9178
 1.7950	86.9805
 1.7940	87.0427
 1.7930	87.0998
 1.7920	87.1855
 1.7910	87.2517
 1.7900	87.2932
 1.7890	87.3302
 1.7880	87.3699
 1.7870	87.3157
 1.7860	87.2959
 1.7850	87.3073
 1.7840	87.2850
 1.7830	87.2732
 1.7820	87.2711
 1.7810	87.2875
 1.7800	87.2935
 1.7790	87.3076
 1.7780	87.3048
 1.7770	87.2938
 1.7760	87.3013
 1.7750	87.3217
 1.7740	87.2947
 1.7730	87.2402
 1.7720	87.2289
 1.7710	87.2431
 1.7700	87.2291
 1.7690	87.2217
 1.7680	87.2471
 1.7670	87.2255
 1.7660	87.2532
 1.7650	87.2676
 1.7640	87.2777
 1.7630	87.2955
 1.7620	87.2672
 1.7610	87.2913
 1.7600	87.3022
 1.7590	87.3114
 1.7580	87.3427
 1.7570	87.3645
 1.7560	87.3314
 1.7550	87.3784
 1.7540	87.4415
 1.7530	87.4800
 1.7520	87.4834
 1.7510	87.5420
 1.7500	87.6143
 1.7490	87.5723
 1.7480	87.5610
 1.7470	87.6368
 1.7460	87.7304
 1.7450	87.7551
 1.7440	87.7793
 1.7430	87.8174
 1.7420	87.8124
 1.7410	87.8197
 1.7400	87.8986
 1.7390	87.9053
 1.7380	87.9261
 1.7370	87.9592
 1.7360	87.9575
 1.7350	88.0246
 1.7340	88.0231
 1.7330	88.0276
 1.7320	88.0319
 1.7310	88.0689
 1.7300	88.1060
 1.7290	88.1016
 1.7280	88.1115
 1.7270	88.1054
 1.7260	88.1516
 1.7250	88.1578
 1.7240	88.1997
 1.7230	88.2419
 1.7220	88.2140
 1.7210	88.1996
 1.7200	88.2181
 1.7190	88.2199
 1.7180	88.2830
 1.7170	88.2772
 1.7160	88.2738
 1.7150	88.2669
 1.7140	88.2802
 1.7130	88.3079
 1.7120	88.2382
 1.7110	88.2022
 1.7100	88.2502
 1.7090	88.3249
 1.7080	88.3628
 1.7070	88.3355
 1.7060	88.2668
 1.7050	88.2636
 1.7040	88.2995
 1.7030	88.2382
 1.7020	88.1748
 1.7010	88.2210
 1.7000	88.1309
 1.6990	88.1000
 1.6980	88.1091
 1.6970	88.0893
 1.6960	88.0334
 1.6950	87.9956
 1.6940	87.9865
 1.6930	87.9446
 1.6920	87.9834
 1.6910	87.8910
 1.6900	87.9262
 1.6890	87.9310
 1.6880	87.9853
 1.6870	88.0644
 1.6860	88.1100
 1.6850	88.1433
 1.6840	88.1542
 1.6830	88.2020
 1.6820	88.2491
 1.6810	88.2010
 1.6800	88.2621
 1.6790	88.2850
 1.6780	88.2353
 1.6770	88.2869
 1.6760	88.2688
 1.6750	88.2928
 1.6740	88.2888
 1.6730	88.3290
 1.6720	88.3611
 1.6710	88.2911
 1.6700	88.3045
 1.6690	88.3148
 1.6680	88.3234
 1.6670	88.4240
 1.6660	88.3214
 1.6650	88.2536
 1.6640	88.4072
 1.6630	88.3212
 1.6620	88.2905
 1.6610	88.4311
 1.6600	88.4316
 1.6590	88.2941
 1.6580	88.2850
 1.6570	88.2723
 1.6560	88.3107
 1.6550	88.3610
 1.6540	88.4492
 1.6530	88.4123
 1.6520	88.3755
 1.6510	88.4024
 1.6500	88.4083
 1.6490	88.4284
 1.6480	88.3845
 1.6470	88.4326
 1.6460	88.4267
 1.6450	88.4737
 1.6440	88.4275
 1.6430	88.3776
 1.6420	88.3902
 1.6410	88.4706
 1.6400	88.5338
 1.6390	88.4294
 1.6380	88.3980
 1.6370	88.3911
 1.6360	88.4119
 1.6350	88.3921
 1.6340	88.4258
 1.6330	88.4389
 1.6320	88.5174
 1.6310	88.3756
 1.6300	88.5027
 1.6290	88.5003
 1.6280	88.4257
 1.6270	88.3527
 1.6260	88.3414
 1.6250	88.4289
 1.6240	88.3902
 1.6230	88.3327
 1.6220	88.3714
 1.6210	88.3641
 1.6200	88.4026
 1.6190	88.3889
 1.6180	88.3657
 1.6170	88.3871
 1.6160	88.3280
 1.6150	88.3596
 1.6140	88.2642
 1.6130	88.2570
 1.6120	88.2099
 1.6110	88.1960
 1.6100	88.1667
 1.6090	88.1759
 1.6080	88.1085
 1.6070	88.0266
 1.6060	87.8608
 1.6050	87.9426
 1.6040	87.8649
 1.6030	88.0077
 1.6020	87.9579
 1.6010	88.0355
 1.6000	88.1138
 1.5990	88.1788
 1.5980	88.1318
 1.5970	88.2279
 1.5960	88.1307
 1.5950	88.1984
 1.5940	88.2397
 1.5930	88.2631
 1.5920	88.3035
 1.5910	88.2166
 1.5900	88.2794
 1.5890	88.2560
 1.5880	88.2668
 1.5870	88.2765
 1.5860	88.2981
 1.5850	88.2562
 1.5840	88.2394
 1.5830	88.2093
 1.5820	88.2609
 1.5810	88.2581
 1.5800	88.2354
 1.5790	88.2507
 1.5780	88.3115
 1.5770	88.3439
 1.5760	88.2516
 1.5750	88.2964
 1.5740	88.2787
 1.5730	88.2643
 1.5720	88.2811
 1.5710	88.2322
 1.5700	88.3048
 1.5690	88.2871
 1.5680	88.2341
 1.5670	88.2415
 1.5660	88.2792
 1.5650	88.2902
 1.5640	88.2883
 1.5630	88.3108
 1.5620	88.2764
 1.5610	88.3063
 1.5600	88.3455
 1.5590	88.3163
 1.5580	88.2539
 1.5570	88.2403
 1.5560	88.2791
 1.5550	88.2918
 1.5540	88.3269
 1.5530	88.2289
 1.5520	88.2600
 1.5510	88.2393
 1.5500	88.2354
 1.5490	88.2306
 1.5480	88.2255
 1.5470	88.2436
 1.5460	88.2533
 1.5450	88.2619
 1.5440	88.2227
 1.5430	88.2318
 1.5420	88.2353
 1.5410	88.2132
 1.5400	88.2292
 1.5390	88.2088
 1.5380	88.1717
 1.5370	88.1528
 1.5360	88.1820
 1.5350	88.1383
 1.5340	88.1548
 1.5330	88.1198
 1.5320	88.1366
 1.5310	88.1871
 1.5300	88.1253
 1.5290	88.1182
 1.5280	88.1078
 1.5270	88.0798
 1.5260	88.0496
 1.5250	88.0824
 1.5240	88.1301
 1.5230	88.0939
 1.5220	88.0560
 1.5210	88.0367
 1.5200	87.9889
 1.5190	87.9462
 1.5180	87.9236
 1.5170	87.9876
 1.5160	87.9976
 1.5150	87.9822
 1.5140	87.9618
 1.5130	87.9524
 1.5120	87.9849
 1.5110	88.0099
 1.5100	87.9441
 1.5090	87.8931
 1.5080	87.9544
 1.5070	87.9462
 1.5060	87.9057
 1.5050	87.8856
 1.5040	87.8919
 1.5030	87.8534
 1.5020	87.7964
 1.5010	87.7711
 1.5000	87.8438
 1.4990	87.8992
 1.4980	87.8812
 1.4970	87.8712
 1.4960	87.8417
 1.4950	87.8235
 1.4940	87.8213
 1.4930	87.7591
 1.4920	87.7425
 1.4910	87.7875
 1.4900	87.8124
 1.4890	87.8182
 1.4880	87.7583
 1.4870	87.7051
 1.4860	87.7246
 1.4850	87.7430
 1.4840	87.8012
 1.4830	87.7958
 1.4820	87.7387
 1.4810	87.6992
 1.4800	87.7012
 1.4790	87.7032
 1.4780	87.7379
 1.4770	87.7288
 1.4760	87.7017
 1.4750	87.6864
 1.4740	87.7068
 1.4730	87.7291
 1.4720	87.6629
 1.4710	87.6800
 1.4700	87.7141
 1.4690	87.6799
 1.4680	87.6391
 1.4670	87.6731
 1.4660	87.6670
 1.4650	87.6507
 1.4640	87.6272
 1.4630	87.7190
 1.4620	87.6846
 1.4610	87.6365
 1.4600	87.6792
 1.4590	87.7123
 1.4580	87.6707
 1.4570	87.6475
 1.4560	87.5819
 1.4550	87.6245
 1.4540	87.6691
 1.4530	87.6358
 1.4520	87.6197
 1.4510	87.6192
 1.4500	87.6441
 1.4490	87.6034
 1.4480	87.6125
 1.4470	87.6668
 1.4460	87.6226
 1.4450	87.6665
 1.4440	87.6577
 1.4430	87.6619
 1.4420	87.6308
 1.4410	87.6383
 1.4400	87.6850
 1.4390	87.6778
 1.4380	87.7036
 1.4370	87.6729
 1.4360	87.6569
 1.4350	87.6660
 1.4340	87.7362
 1.4330	87.7024
 1.4320	87.7091
 1.4310	87.6614
 1.4300	87.6835
 1.4290	87.6941
 1.4280	87.7170
 1.4270	87.7458
 1.4260	87.7620
 1.4250	87.7025
 1.4240	87.7010
 1.4230	87.7638
 1.4220	87.7609
 1.4210	87.7168
 1.4200	87.7533
 1.4190	87.7562
 1.4180	87.7571
 1.4170	87.7607
 1.4160	87.8302
 1.4150	87.8510
 1.4140	87.8466
 1.4130	87.8550
 1.4120	87.8341
 1.4110	87.8634
 1.4100	87.9209
 1.4090	87.8213
 1.4080	87.9656
 1.4070	87.9512
 1.4060	87.9527
 1.4050	87.9419
 1.4040	87.9708
 1.4030	87.9528
 1.4020	88.0621
 1.4010	88.0284
 1.4000	88.0270
 1.3990	88.1135
 1.3980	88.1605
 1.3970	88.0873
 1.3960	88.2037
 1.3950	88.0891
 1.3940	88.1315
 1.3930	88.1909
 1.3920	88.2171
 1.3910	88.2262
 1.3900	88.2156
 1.3890	88.2505
 1.3880	88.2389
 1.3870	88.2746
 1.3860	88.3126
 1.3850	88.3166
 1.3840	88.3057
 1.3830	88.2998
 1.3820	88.2683
 1.3810	88.2641
 1.3800	88.2744
 1.3790	88.2591
 1.3780	88.3261
 1.3770	88.2462
 1.3760	88.3297
 1.3750	88.2944
 1.3740	88.2516
 1.3730	88.2536
 1.3720	88.3040
 1.3710	88.3032
 1.3700	88.3946
 1.3690	88.3709
 1.3680	88.4248
 1.3670	88.4004
 1.3660	88.3526
 1.3650	88.3158
 1.3640	88.3302
 1.3630	88.3340
 1.3620	88.3511
 1.3610	88.2153
 1.3600	88.3229
 1.3590	88.3042
 1.3580	88.3421
 1.3570	88.3429
 1.3560	88.2625
 1.3550	88.2641
 1.3540	88.2579
 1.3530	88.2118
 1.3520	88.3459
 1.3510	88.3015
 1.3500	88.3372
 1.3490	88.3705
 1.3480	88.2406
 1.3470	88.3038
 1.3460	88.2466
 1.3450	88.3273
 1.3440	88.2663
 1.3430	88.2958
 1.3420	88.2959
 1.3410	88.2854
 1.3400	88.2942
 1.3390	88.2402
 1.3380	88.2107
 1.3370	88.2937
 1.3360	88.3640
 1.3350	88.3189
 1.3340	88.2991
 1.3330	88.2858
 1.3320	88.2643
 1.3310	88.2863
 1.3300	88.1848
 1.3290	88.2778
 1.3280	88.2576
 1.3270	88.2823
 1.3260	88.2696
 1.3250	88.2617
 1.3240	88.2792
 1.3230	88.2799
 1.3220	88.2464
 1.3210	88.3123
 1.3200	88.3188
 1.3190	88.2924
 1.3180	88.2513
 1.3170	88.2024
 1.3160	88.2655
 1.3150	88.2458
 1.3140	88.2588
 1.3130	88.2249
 1.3120	88.2587
 1.3110	88.2316
 1.3100	88.2306
 1.3090	88.2648
 1.3080	88.2301
 1.3070	88.3136
 1.3060	88.2542
 1.3050	88.2565
 1.3040	88.2291
 1.3030	88.2551
 1.3020	88.2430
 1.3010	88.2412
 1.3000	88.1265
 1.2990	88.1387
 1.2980	88.1666
 1.2970	88.1916
 1.2960	88.2017
 1.2950	88.1818
 1.2940	88.1481
 1.2930	88.1208
 1.2920	88.1359
 1.2910	88.2074
 1.2900	88.2395
 1.2890	88.2044
 1.2880	88.2829
 1.2870	88.2005
 1.2860	88.1987
 1.2850	88.1453
 1.2840	88.1308
 1.2830	88.1826
 1.2820	88.2489
 1.2810	88.2273
 1.2800	88.1606
 1.2790	88.1621
 1.2780	88.1494
 1.2770	88.1193
 1.2760	88.1451
 1.2750	88.1838
 1.2740	88.1299
 1.2730	88.1153
 1.2720	88.1833
 1.2710	88.2413
 1.2700	88.2052
 1.2690	88.1568
 1.2680	88.1159
 1.2670	88.0866
 1.2660	88.0619
 1.2650	88.1281
 1.2640	88.1521
 1.2630	88.1093
 1.2620	88.0853
 1.2610	88.1219
 1.2600	88.1223
 1.2590	88.0921
 1.2580	88.0988
 1.2570	88.1010
 1.2560	88.1051
 1.2550	88.1064
 1.2540	88.0593
 1.2530	88.0827
 1.2520	88.0687
 1.2510	88.0732
 1.2500	88.0761
 1.2490	88.0585
 1.2480	88.0087
 1.2470	88.0281
 1.2460	88.1072
 1.2450	88.1264
 1.2440	88.1096
 1.2430	88.0513
 1.2420	87.9907
 1.2410	88.0137
 1.2400	88.0596
 1.2390	88.0233
 1.2380	88.0304
 1.2370	88.0494
 1.2360	88.0408
 1.2350	88.0683
 1.2340	88.0667
 1.2330	88.0645
 1.2320	88.0707
 1.2310	88.0767
 1.2300	88.0669
 1.2290	88.0477
 1.2280	88.0469
 1.2270	88.0575
 1.2260	88.0224
 1.2250	87.9676
 1.2240	87.9940
 1.2230	87.9961
 1.2220	88.0175
 1.2210	88.0349
 1.2200	87.9916
 1.2190	87.9655
 1.2180	87.9848
 1.2170	87.9975
 1.2160	87.9616
 1.2150	87.8838
 1.2140	87.9290
 1.2130	87.9926
 1.2120	87.9032
 1.2110	87.8818
 1.2100	87.9456
 1.2090	87.9419
 1.2080	87.9425
 1.2070	87.9531
 1.2060	87.9518
 1.2050	87.9337
 1.2040	87.8616
 1.2030	87.8867
 1.2020	87.9553
 1.2010	87.8970
 1.2000	87.8804
 1.1990	87.8825
 1.1980	87.8937
 1.1970	87.9203
 1.1960	87.8651
 1.1950	87.8981
 1.1940	87.9343
 1.1930	87.9177
 1.1920	87.9155
 1.1910	87.8906
 1.1900	87.8507
 1.1890	87.9124
 1.1880	87.8942
 1.1870	87.8627
 1.1860	87.8552
 1.1850	87.8622
 1.1840	87.8492
 1.1830	87.8425
 1.1820	87.8760
 1.1810	87.8986
 1.1800	87.8563
 1.1790	87.8412
 1.1780	87.8622
 1.1770	87.8797
 1.1760	87.9038
 1.1750	87.8639
 1.1740	87.8367
 1.1730	87.8387
 1.1720	87.9067
 1.1710	87.8587
 1.1700	87.8710
 1.1690	87.8643
 1.1680	87.9533
 1.1670	87.8914
 1.1660	87.8025
 1.1650	87.8190
 1.1640	87.8374
 1.1630	87.8944
 1.1620	87.9082
 1.1610	87.8398
 1.1600	87.8583
 1.1590	87.8980
 1.1580	87.8587
 1.1570	87.8530
 1.1560	87.7773
 1.1550	87.8045
 1.1540	87.8419
 1.1530	87.8298
 1.1520	87.8452
 1.1510	87.8988
 1.1500	87.8354
 1.1490	87.7917
 1.1480	87.7928
 1.1470	87.7513
 1.1460	87.7830
 1.1450	87.8356
 1.1440	87.8489
 1.1430	87.8181
 1.1420	87.8120
 1.1410	87.8344
 1.1400	87.7859
 1.1390	87.8283
 1.1380	87.7941
 1.1370	87.8303
 1.1360	87.7824
 1.1350	87.7544
 1.1340	87.7329
 1.1330	87.7888
 1.1320	87.8621
 1.1310	87.7771
 1.1300	87.7924
 1.1290	87.8197
 1.1280	87.7988
 1.1270	87.7522
 1.1260	87.7027
 1.1250	87.7473
 1.1240	87.7281
 1.1230	87.7393
 1.1220	87.7876
 1.1210	87.7345
 1.1200	87.7859
 1.1190	87.7512
 1.1180	87.7895
 1.1170	87.7202
 1.1160	87.6878
 1.1150	87.6964
 1.1140	87.7529
 1.1130	87.6762
 1.1120	87.7428
 1.1110	87.6391
 1.1100	87.7612
 1.1090	87.7309
 1.1080	87.7668
 1.1070	87.7524
 1.1060	87.7811
 1.1050	87.6866
 1.1040	87.6845
 1.1030	87.7560
 1.1020	87.6852
 1.1010	87.6127
 1.1000	87.6594
 1.0990	87.7295
 1.0980	87.6590
 1.0970	87.7230
 1.0960	87.6936
 1.0950	87.7374
 1.0940	87.6220
 1.0930	87.6277
 1.0920	87.6173
 1.0910	87.6399
 1.0900	87.6814
 1.0890	87.6425
 1.0880	87.6987
 1.0870	87.6086
 1.0860	87.5675
 1.0850	87.7084
 1.0840	87.6161
 1.0830	87.6651
 1.0820	87.6831
 1.0810	87.6218
 1.0800	87.6138
 1.0790	87.6616
 1.0780	87.6657
 1.0770	87.6827
 1.0760	87.6742
 1.0750	87.5962
 1.0740	87.6357
 1.0730	87.5918
 1.0720	87.5613
 1.0710	87.5947
 1.0700	87.4576
 1.0690	87.5109
 1.0680	87.5511
 1.0670	87.5647
 1.0660	87.4897
 1.0650	87.6011
 1.0640	87.5832
 1.0630	87.5449
 1.0620	87.6187
 1.0610	87.6354
 1.0600	87.5986
 1.0590	87.5561
 1.0580	87.5142
 1.0570	87.4862
 1.0560	87.5258
 1.0550	87.5115
 1.0540	87.5354
 1.0530	87.5409
 1.0520	87.4930
 1.0510	87.4668
 1.0500	87.5141
 1.0490	87.3927
 1.0480	87.4521
 1.0470	87.5458
 1.0460	87.4465
 1.0450	87.4287
 1.0440	87.3925
 1.0430	87.4689
 1.0420	87.4757
 1.0410	87.5094
 1.0400	87.4345
 1.0390	87.3531
 1.0380	87.4472
 1.0370	87.4718
 1.0360	87.4446
 1.0350	87.3653
 1.0340	87.4045
 1.0330	87.3539
 1.0320	87.3531
 1.0310	87.3443
 1.0300	87.4860
 1.0290	87.3867
 1.0280	87.4337
 1.0270	87.4279
 1.0260	87.3804
 1.0250	87.3650
 1.0240	87.3534
 1.0230	87.3351
 1.0220	87.3189
 1.0210	87.3951
 1.0200	87.3948
 1.0190	87.3327
 1.0180	87.3571
 1.0170	87.3774
 1.0160	87.3825
 1.0150	87.2843
 1.0140	87.2956
 1.0130	87.3375
 1.0120	87.2627
 1.0110	87.3341
 1.0100	87.3198
 1.0090	87.2978
 1.0080	87.2972
 1.0070	87.3071
 1.0060	87.2532
 1.0050	87.2300
 1.0040	87.2561
 1.0030	87.2254
 1.0020	87.2044
 1.0010	87.2160
 1.0000	87.2401
 0.9990	87.2683
 0.9980	87.2081
 0.9970	87.2037
 0.9960	87.2395
 0.9950	87.1780
 0.9940	87.2400
 0.9930	87.1899
 0.9920	87.1248
 0.9910	87.1486
 0.9900	87.1454
 0.9890	87.1717
 0.9880	87.1377
 0.9870	87.1253
 0.9860	87.1597
 0.9850	87.1057
 0.9840	87.1322
 0.9830	87.1083
 0.9820	87.0976
 0.9810	87.1557
 0.9800	87.1295
 0.9790	87.0922
 0.9780	87.0696
 0.9770	87.0807
 0.9760	87.1413
 0.9750	87.1580
 0.9740	87.1182
 0.9730	86.9846
 0.9720	87.0008
 0.9710	87.0468
 0.9700	87.0073
 0.9690	87.0146
 0.9680	87.0636
 0.9670	87.0526
 0.9660	87.0137
 0.9650	87.0092
 0.9640	86.9939
 0.9630	86.9961
 0.9620	87.0163
 0.9610	86.9655
 0.9600	86.9472
 0.9590	87.0036
 0.9580	86.9872
 0.9570	86.9412
 0.9560	86.9524
 0.9550	86.9299
 0.9540	86.9386
 0.9530	86.8945
 0.9520	86.8731
 0.9510	86.9009
 0.9500	86.9501
 0.9490	86.8483
 0.9480	86.8575
 0.9470	86.8773
 0.9460	86.8479
 0.9450	86.9035
 0.9440	86.9278
 0.9430	86.8862
 0.9420	86.8378
 0.9410	86.8653
 0.9400	86.8521
 0.9390	86.7977
 0.9380	86.8065
 0.9370	86.8252
 0.9360	86.7919
 0.9350	86.6642
 0.9340	86.7139
 0.9330	86.7906
 0.9320	86.7251
 0.9310	86.6626
 0.9300	86.7080
 0.9290	86.7429
 0.9280	86.7209
 0.9270	86.6885
 0.9260	86.6845
 0.9250	86.7064
 0.9240	86.7060
 0.9230	86.7028
 0.9220	86.6711
 0.9210	86.6080
 0.9200	86.6302
 0.9190	86.7116
 0.9180	86.7102
 0.9170	86.6043
 0.9160	86.5970
 0.9150	86.5518
 0.9140	86.6120
 0.9130	86.6756
 0.9120	86.5648
 0.9110	86.5364
 0.9100	86.4981
 0.9090	86.4840
 0.9080	86.5211
 0.9070	86.5185
 0.9060	86.4802
 0.9050	86.4997
 0.9040	86.5076
 0.9030	86.5146
 0.9020	86.4599
 0.9010	86.4977
 0.9000	86.4882
 0.8990	86.4327
 0.8980	86.4543
 0.8970	86.4601
 0.8960	86.4395
 0.8950	86.4148
 0.8940	86.3737
 0.8930	86.3998
 0.8920	86.4154
 0.8910	86.3563
 0.8900	86.3699
 0.8890	86.3817
 0.8880	86.3202
 0.8870	86.3041
 0.8860	86.3325
 0.8850	86.3576
 0.8840	86.3324
 0.8830	86.3329
 0.8820	86.3086
 0.8810	86.3402
 0.8800	86.2647
 0.8790	86.2186
 0.8780	86.2378
 0.8770	86.2000
 0.8760	86.1903
 0.8750	86.2040
 0.8740	86.2358
 0.8730	86.2270
 0.8720	86.2039
 0.8710	86.1768
 0.8700	86.1294
 0.8690	86.1735
 0.8680	86.1289
 0.8670	86.1376
 0.8660	86.1745
 0.8650	86.1778
 0.8640	86.1541
 0.8630	86.1559
 0.8620	86.1290
 0.8610	86.1448
 0.8600	86.1539
 0.8590	86.0364
 0.8580	86.0519
 0.8570	86.1463
 0.8560	86.1186
 0.8550	86.0831
 0.8540	86.0540
 0.8530	86.0160
 0.8520	86.0991
 0.8510	86.1322
 0.8500	86.0684
 0.8490	86.0261
 0.8480	86.0321
 0.8470	86.0867
 0.8460	86.0243
 0.8450	86.0617
 0.8440	86.0910
 0.8430	86.0616
 0.8420	86.0222
 0.8410	85.9870
 0.8400	85.9680
 0.8390	85.9040
 0.8380	85.9898
 0.8370	85.9451
 0.8360	86.0092
 0.8350	85.9994
 0.8340	85.9995
 0.8330	85.9571
 0.8320	85.9392
 0.8310	85.9518
 0.8300	85.9431
 0.8290	85.9637
 0.8280	85.9433
 0.8270	85.9840
 0.8260	85.9475
 0.8250	85.9494
 0.8240	85.9399
 0.8230	85.9046
 0.8220	85.9073
 0.8210	85.8607
 0.8200	85.8438
 0.8190	85.8639
 0.8180	85.8626
 0.8170	85.8521
 0.8160	85.8890
 0.8150	85.8390
 0.8140	85.8789
 0.8130	85.8664
 0.8120	85.8445
 0.8110	85.8508
 0.8100	85.8059
 0.8090	85.8789
 0.8080	85.7968
 0.8070	85.8211
 0.8060	85.8274
 0.8050	85.8136
 0.8040	85.7924
 0.8030	85.7841
 0.8020	85.8317
 0.8010	85.8011
 0.8000	85.7545
 0.7990	85.7350
 0.7980	85.7710
 0.7970	85.7152
 0.7960	85.6691
 0.7950	85.6449
 0.7940	85.6761
 0.7930	85.6429
 0.7920	85.6256
 0.7910	85.6601
 0.7900	85.6426
 0.7890	85.6391
 0.7880	85.6278
 0.7870	85.6013
 0.7860	85.6639
 0.7850	85.5612
 0.7840	85.6189
 0.7830	85.5670
 0.7820	85.5800
 0.7810	85.5575
 0.7800	85.5426
 0.7790	85.5486
 0.7780	85.4889
 0.7770	85.4873
 0.7760	85.5006
 0.7750	85.4859
 0.7740	85.4644
 0.7730	85.4745
 0.7720	85.4775
 0.7710	85.4626
 0.7700	85.4734
 0.7690	85.4183
 0.7680	85.3892
 0.7670	85.4455
 0.7660	85.4122
 0.7650	85.3689
 0.7640	85.4136
 0.7630	85.3769
 0.7620	85.3754
 0.7610	85.3584
 0.7600	85.3286
 0.7590	85.3333
 0.7580	85.3634
 0.7570	85.3051
 0.7560	85.3271
 0.7550	85.2991
 0.7540	85.2704
 0.7530	85.2663
 0.7520	85.2151
 0.7510	85.2232
 0.7500	85.2426
 0.7490	85.2203
 0.7480	85.1940
 0.7470	85.2119
 0.7460	85.2091
 0.7450	85.1987
 0.7440	85.1808
 0.7430	85.1220
 0.7420	85.1616
 0.7410	85.1709
 0.7400	85.0865
 0.7390	85.0853
 0.7380	85.0822
 0.7370	85.0463
 0.7360	85.0607
 0.7350	85.0351
 0.7340	85.0199
 0.7330	85.0035
 0.7320	85.0078
 0.7310	85.0062
 0.7300	84.9657
 0.7290	84.9796
 0.7280	84.9893
 0.7270	84.9562
 0.7260	84.9319
 0.7250	84.9282
 0.7240	84.9079
 0.7230	84.8937
 0.7220	84.8859
 0.7210	84.8644
 0.7200	84.8219
 0.7190	84.8360
 0.7180	84.8267
 0.7170	84.8185
 0.7160	84.8041
 0.7150	84.7431
 0.7140	84.7373
 0.7130	84.7173
 0.7120	84.6911
 0.7110	84.6816
 0.7100	84.6613
 0.7090	84.6353
 0.7080	84.6302
 0.7070	84.6031
 0.7060	84.5693
 0.7050	84.5758
 0.7040	84.5755
 0.7030	84.5567
 0.7020	84.5269
 0.7010	84.5054
 0.7000	84.4783
 0.6990	84.4694
 0.6980	84.4479
 0.6970	84.4135
 0.6960	84.4165
 0.6950	84.3937
 0.6940	84.3700
 0.6930	84.3166
 0.6920	84.3025
 0.6910	84.2912
 0.6900	84.2731
 0.6890	84.2541
 0.6880	84.2353
 0.6870	84.2104
 0.6860	84.1741
 0.6850	84.1660
 0.6840	84.1483
 0.6830	84.1288
 0.6820	84.0944
 0.6810	84.0523
 0.6800	84.0367
 0.6790	84.0038
 0.6780	83.9847
 0.6770	83.9717
 0.6760	83.9429
 0.6750	83.9184
 0.6740	83.9232
 0.6730	83.8838
 0.6720	83.8406
 0.6710	83.8170
 0.6700	83.7887
 0.6690	83.7563
 0.6680	83.7352
 0.6670	83.7132
 0.6660	83.6830
 0.6650	83.6554
 0.6640	83.6290
 0.6630	83.6005
 0.6620	83.5696
 0.6610	83.5485
 0.6600	83.5208
 0.6590	83.4927
 0.6580	83.4656
 0.6570	83.4425
 0.6560	83.4098
 0.6550	83.3670
 0.6540	83.3250
 0.6530	83.3052
 0.6520	83.2726
 0.6510	83.2446
 0.6500	83.2202
 0.6490	83.1891
 0.6480	83.1693
 0.6470	83.1310
 0.6460	83.0923
 0.6450	83.0834
 0.6440	83.0547
 0.6430	83.0098
 0.6420	82.9661
 0.6410	82.9239
 0.6400	82.9001
 0.6390	82.8793
 0.6380	82.8509
 0.6370	82.8296
 0.6360	82.7983
 0.6350	82.7675
 0.6340	82.7425
 0.6330	82.7117
 0.6320	82.6919
 0.6310	82.6583
 0.6300	82.6200
 0.6290	82.5996
 0.6280	82.5638
 0.6270	82.5345
 0.6260	82.5001
 0.6250	82.4777
 0.6240	82.4606
 0.6230	82.4137
 0.6220	82.3800
 0.6210	82.3726
 0.6200	82.3454
 0.6190	82.3260
 0.6180	82.3095
 0.6170	82.2732
 0.6160	82.2462
 0.6150	82.2257
 0.6140	82.1961
 0.6130	82.1702
 0.6120	82.1434
 0.6110	82.1168
 0.6100	82.0991
 0.6090	82.0712
 0.6080	82.0500
 0.6070	82.0234
 0.6060	82.0014
 0.6050	81.9766
 0.6040	81.9374
 0.6030	81.9114
 0.6020	81.8969
 0.6010	81.8681
 0.6000	81.8393
 0.5990	81.8192
 0.5980	81.8055
 0.5970	81.7986
 0.5960	81.7818
 0.5950	81.7579
 0.5940	81.7382
 0.5930	81.7197
 0.5920	81.6743
 0.5910	81.6485
 0.5900	81.6090
 0.5890	81.5687
 0.5880	81.5277
 0.5870	81.4795
 0.5860	81.4409
 0.5850	81.4017
 0.5840	81.3691
 0.5830	81.3266
 0.5820	81.2888
 0.5810	81.2465
 0.5800	81.1968
 0.5790	81.1599
 0.5780	81.1352
 0.5770	81.1173
 0.5760	81.0758
 0.5750	81.0630
 0.5740	81.0244
 0.5730	80.9977
 0.5720	80.9521
 0.5710	80.9258
 0.5700	80.8986
 0.5690	80.8620
 0.5680	80.8208
 0.5670	80.7633
 0.5660	80.7350
 0.5650	80.7020
 0.5640	80.6424
 0.5630	80.6124
 0.5620	80.5796
 0.5610	80.5388
 0.5600	80.4877
 0.5590	80.4615
 0.5580	80.4002
 0.5570	80.3380
 0.5560	80.2816
 0.5550	80.2541
 0.5540	80.2130
 0.5530	80.1550
 0.5520	80.0930
 0.5510	80.0353
 0.5500	79.9844
 0.5490	79.9402
 0.5480	79.8825
 0.5470	79.8441
 0.5460	79.7729
 0.5450	79.7160
 0.5440	79.6673
 0.5430	79.5964
 0.5420	79.5503
 0.5410	79.4948
 0.5400	79.4340
 0.5390	79.3689
 0.5380	79.3201
 0.5370	79.2662
 0.5360	79.2047
 0.5350	79.1506
 0.5340	79.0646
 0.5330	78.9928
 0.5320	78.9447
 0.5310	78.8753
 0.5300	78.8082
 0.5290	78.7430
 0.5280	78.6877
 0.5270	78.6254
 0.5260	78.5594
 0.5250	78.4890
 0.5240	78.4236
 0.5230	78.3647
 0.5220	78.2703
 0.5210	78.2070
 0.5200	78.1501
 0.5190	78.0751
 0.5180	78.0227
 0.5170	77.9242
 0.5160	77.8695
 0.5150	77.7905
 0.5140	77.7019
 0.5130	77.6316
 0.5120	77.5501
 0.5110	77.4590
 0.5100	77.3956
 0.5090	77.3098
 0.5080	77.2313
 0.5070	77.1334
 0.5060	77.0499
 0.5050	76.9864
 0.5040	76.8956
 0.5030	76.8184
 0.5020	76.7149
 0.5010	76.6349
 0.5000	76.5546
 0.4990	76.4809
 0.4980	76.3784
 0.4970	76.2734
 0.4960	76.2056
 0.4950	76.1364
 0.4940	76.0197
 0.4930	75.9301
 0.4920	75.8237
 0.4910	75.7576
 0.4900	75.6547
 0.4890	75.5522
 0.4880	75.4698
 0.4870	75.3622
 0.4860	75.2762
 0.4850	75.1861
 0.4840	75.0886
 0.4830	74.9931
 0.4820	74.8798
 0.4810	74.8000
 0.4800	74.6959
 0.4790	74.6009
 0.4780	74.5270
 0.4770	74.4332
 0.4760	74.3361
 0.4750	74.2567
 0.4740	74.1436
 0.4730	74.0475
 0.4720	73.9612
 0.4710	73.8723
 0.4700	73.7631
 0.4690	73.6632
 0.4680	73.5590
 0.4670	73.4592
 0.4660	73.3476
 0.4650	73.2273
 0.4640	73.1453
 0.4630	73.0502
 0.4620	72.9327
 0.4610	72.8419
 0.4600	72.7139
 0.4590	72.6066
 0.4580	72.5223
 0.4570	72.3899
 0.4560	72.2745
 0.4550	72.1596
 0.4540	72.0476
 0.4530	71.9363
 0.4520	71.8089
 0.4510	71.7004
 0.4500	71.5861
 0.4490	71.4749
 0.4480	71.3509
 0.4470	71.2267
 0.4460	71.1414
 0.4450	71.0055
 0.4440	70.8956
 0.4430	70.7935
 0.4420	70.6749
 0.4410	70.5739
 0.4400	70.4526
 0.4390	70.3242
 0.4380	70.2377
 0.4370	70.1193
 0.4360	70.0178
 0.4350	69.8980
 0.4340	69.7865
 0.4330	69.6581
 0.4320	69.5486
 0.4310	69.4215
 0.4300	69.3011
 0.4290	69.1979
 0.4280	69.0610
 0.4270	68.9596
 0.4260	68.8255
 0.4250	68.7007
 0.4240	68.6007
 0.4230	68.4663
 0.4220	68.3282
 0.4210	68.2085
 0.4200	68.0756
 0.4190	67.9398
 0.4180	67.7936
 0.4170	67.6690
 0.4160	67.5204
 0.4150	67.3785
 0.4140	67.2487
 0.4130	67.1141
 0.4120	66.9808
 0.4110	66.8240
 0.4100	66.6718
 0.4090	66.5257
 0.4080	66.3575
 0.4070	66.2083
 0.4060	66.0586
 0.4050	65.8849
 0.4040	65.7177
 0.4030	65.5476
 0.4020	65.3842
 0.4010	65.1996
 0.4000	65.0228
