Name: Molybdenite MoS_2
Type: Mineral
Class: Sulfide
Subclass: None
Particle Size: Medium
Sample No.: S-11A
Owner: JPL
Wavelength Range: VSWIR
Origin: Norway, Arendal, Froland
Collection Date: N/A
Description: Particle size was 45-125um.Collected by JPL Original ASTER Spectral Library name was jpl.beckman.mineral.sulfide.none.medium.s11a.spectrum.txt
Measurement: Hemispherical reflectance
First Column: X
Second Column: Y
X Units: Wavelength (micrometers)
Y Units:Reflectance (percent)
First X Value:  0.4000
Last X Value:  2.5000
Number of X Values: 826
Additional Information: mineral.sulfide.none.medium.vswir.s-11a.jpl.beckman.ancillary.txt

 0.4000	17.2300
 0.4010	17.1700
 0.4020	17.0700
 0.4030	17.0700
 0.4040	17.2200
 0.4050	17.1600
 0.4060	17.1700
 0.4070	17.0900
 0.4080	17.0500
 0.4090	17.0900
 0.4100	17.0500
 0.4110	17.1600
 0.4120	17.1400
 0.4130	17.1000
 0.4140	17.1200
 0.4150	17.0400
 0.4160	17.0800
 0.4170	17.0800
 0.4180	17.0500
 0.4190	17.0500
 0.4200	16.9800
 0.4210	17.0600
 0.4220	17.1100
 0.4230	17.0900
 0.4240	17.0900
 0.4250	17.0200
 0.4260	17.0500
 0.4270	17.1400
 0.4280	17.1300
 0.4290	17.1400
 0.4300	17.0200
 0.4310	17.1800
 0.4320	17.1100
 0.4330	17.2100
 0.4340	17.3300
 0.4350	17.2100
 0.4360	17.2900
 0.4370	17.2800
 0.4380	17.3800
 0.4390	17.4200
 0.4400	17.3400
 0.4410	17.5000
 0.4420	17.5800
 0.4430	17.5900
 0.4440	17.6600
 0.4450	17.5800
 0.4460	17.6300
 0.4470	17.7300
 0.4480	17.6700
 0.4490	17.8000
 0.4500	17.7300
 0.4510	17.6700
 0.4520	17.7400
 0.4530	17.6800
 0.4540	17.8600
 0.4550	17.7300
 0.4560	17.6100
 0.4570	17.7300
 0.4580	17.7400
 0.4590	17.7800
 0.4600	17.7700
 0.4610	17.7000
 0.4620	17.6200
 0.4630	17.6700
 0.4640	17.5400
 0.4650	17.5500
 0.4660	17.5600
 0.4670	17.4400
 0.4680	17.5100
 0.4690	17.4300
 0.4700	17.3500
 0.4710	17.3900
 0.4720	17.3700
 0.4730	17.3700
 0.4740	17.2700
 0.4750	17.0500
 0.4760	17.1000
 0.4770	17.1300
 0.4780	17.1900
 0.4790	17.1000
 0.4800	17.0100
 0.4810	17.0000
 0.4820	16.9000
 0.4830	16.9600
 0.4840	16.8000
 0.4850	16.8600
 0.4860	16.8800
 0.4870	16.8100
 0.4880	16.7300
 0.4890	16.6400
 0.4900	16.6500
 0.4910	16.6700
 0.4920	16.5800
 0.4930	16.5500
 0.4940	16.3400
 0.4950	16.3800
 0.4960	16.3500
 0.4970	16.2700
 0.4980	16.2500
 0.4990	16.1800
 0.5000	16.0500
 0.5010	16.1400
 0.5020	16.0200
 0.5030	16.0200
 0.5040	15.9000
 0.5050	15.9000
 0.5060	15.7900
 0.5070	15.7900
 0.5080	15.8400
 0.5090	15.7100
 0.5100	15.5900
 0.5110	15.7500
 0.5120	15.6600
 0.5130	15.6800
 0.5140	15.5300
 0.5150	15.4500
 0.5160	15.4600
 0.5170	15.4200
 0.5180	15.5000
 0.5190	15.3500
 0.5200	15.2000
 0.5210	15.3400
 0.5220	15.2300
 0.5230	15.2500
 0.5240	15.2000
 0.5250	15.1200
 0.5260	15.1900
 0.5270	15.1600
 0.5280	15.1800
 0.5290	15.0100
 0.5300	14.8700
 0.5310	14.9600
 0.5320	14.9700
 0.5330	15.0200
 0.5340	14.9000
 0.5350	14.7700
 0.5360	14.9100
 0.5370	14.8500
 0.5380	14.8500
 0.5390	14.7900
 0.5400	14.6500
 0.5410	14.7500
 0.5420	14.6700
 0.5430	14.7200
 0.5440	14.6700
 0.5450	14.6000
 0.5460	14.6300
 0.5470	14.6100
 0.5480	14.6900
 0.5490	14.5900
 0.5500	14.5000
 0.5510	14.5900
 0.5520	14.4300
 0.5530	14.5800
 0.5540	14.5400
 0.5550	14.3700
 0.5560	14.4600
 0.5570	14.3700
 0.5580	14.5100
 0.5590	14.4700
 0.5600	14.4500
 0.5610	14.5600
 0.5620	14.4300
 0.5630	14.5400
 0.5640	14.4000
 0.5650	14.4500
 0.5660	14.4700
 0.5670	14.3400
 0.5680	14.4200
 0.5690	14.2900
 0.5700	14.3400
 0.5710	14.3800
 0.5720	14.2800
 0.5730	14.3800
 0.5740	14.2200
 0.5750	14.2200
 0.5760	14.2800
 0.5770	14.2000
 0.5780	14.2300
 0.5790	14.0800
 0.5800	14.2300
 0.5810	14.2100
 0.5820	14.1100
 0.5830	14.1900
 0.5840	14.0800
 0.5850	14.1000
 0.5860	14.1800
 0.5870	14.0500
 0.5880	14.0900
 0.5890	14.1000
 0.5900	14.2400
 0.5910	14.1200
 0.5920	14.0500
 0.5930	14.2000
 0.5940	14.1500
 0.5950	14.2700
 0.5960	14.3400
 0.5970	14.2400
 0.5980	14.4700
 0.5990	14.4300
 0.6000	14.5900
 0.6010	14.6100
 0.6020	14.6000
 0.6030	14.8000
 0.6040	14.7400
 0.6050	14.9300
 0.6060	14.9400
 0.6070	14.8700
 0.6080	15.0200
 0.6090	15.0400
 0.6100	15.1000
 0.6110	15.1400
 0.6120	15.1400
 0.6130	15.2400
 0.6140	15.2600
 0.6150	15.1600
 0.6160	15.2400
 0.6170	15.1800
 0.6180	15.2700
 0.6190	15.1900
 0.6200	15.2400
 0.6210	15.3400
 0.6220	15.2000
 0.6230	15.1900
 0.6240	15.1200
 0.6250	15.2400
 0.6260	15.2400
 0.6270	15.0900
 0.6280	15.1000
 0.6290	15.0300
 0.6300	15.0700
 0.6310	15.0500
 0.6320	14.9600
 0.6330	14.9700
 0.6340	14.8700
 0.6350	14.8900
 0.6360	14.8900
 0.6370	14.7700
 0.6380	14.8000
 0.6390	14.7000
 0.6400	14.6600
 0.6410	14.7000
 0.6420	14.6300
 0.6430	14.6400
 0.6440	14.5800
 0.6450	14.5300
 0.6460	14.5900
 0.6470	14.4700
 0.6480	14.5700
 0.6490	14.5400
 0.6500	14.3600
 0.6510	14.5200
 0.6520	14.4800
 0.6530	14.5300
 0.6540	14.5700
 0.6550	14.5400
 0.6560	14.7100
 0.6570	14.5400
 0.6580	14.6800
 0.6590	14.8400
 0.6600	14.8100
 0.6610	14.8600
 0.6620	14.8900
 0.6630	15.0600
 0.6640	15.2000
 0.6650	15.1400
 0.6660	15.2900
 0.6670	15.4100
 0.6680	15.6000
 0.6690	15.7800
 0.6700	15.6900
 0.6710	15.8100
 0.6720	15.9100
 0.6730	16.0400
 0.6740	16.1400
 0.6750	16.1300
 0.6760	16.2300
 0.6770	16.1900
 0.6780	16.2500
 0.6790	16.3600
 0.6800	16.2700
 0.6810	16.2400
 0.6820	16.1500
 0.6830	16.2100
 0.6840	16.2800
 0.6850	16.1200
 0.6860	16.2700
 0.6870	16.1800
 0.6880	16.2000
 0.6890	16.2900
 0.6900	16.2000
 0.6910	16.3000
 0.6920	16.2200
 0.6930	16.2300
 0.6940	16.3700
 0.6950	16.3200
 0.6960	16.3900
 0.6970	16.3500
 0.6980	16.4400
 0.6990	16.4900
 0.7000	16.4500
 0.7010	16.5100
 0.7020	16.5900
 0.7030	16.6100
 0.7040	16.7000
 0.7050	16.7700
 0.7060	16.8800
 0.7070	16.8100
 0.7080	16.8500
 0.7090	16.9100
 0.7100	16.9500
 0.7110	17.1000
 0.7120	17.0600
 0.7130	17.0700
 0.7140	17.1300
 0.7150	17.1700
 0.7160	17.2500
 0.7170	17.2200
 0.7180	17.2900
 0.7190	17.2600
 0.7200	17.3400
 0.7210	17.4400
 0.7220	17.3600
 0.7230	17.4600
 0.7240	17.4400
 0.7250	17.5400
 0.7260	17.5900
 0.7270	17.5200
 0.7280	17.6100
 0.7290	17.6400
 0.7300	17.6700
 0.7310	17.7300
 0.7320	17.6900
 0.7330	17.7100
 0.7340	17.7800
 0.7350	17.7400
 0.7360	17.8400
 0.7370	17.8000
 0.7380	17.9000
 0.7390	17.8800
 0.7400	17.8800
 0.7410	18.0300
 0.7420	17.9700
 0.7430	18.0000
 0.7440	18.0200
 0.7450	18.0100
 0.7460	18.1700
 0.7470	18.1000
 0.7480	18.1600
 0.7490	18.1700
 0.7500	18.1200
 0.7510	18.2300
 0.7520	18.2800
 0.7530	18.2800
 0.7540	18.2900
 0.7550	18.4000
 0.7560	18.4100
 0.7570	18.3200
 0.7580	18.4200
 0.7590	18.3600
 0.7600	18.4100
 0.7610	18.4900
 0.7620	18.4100
 0.7630	18.4700
 0.7640	18.5100
 0.7650	18.5700
 0.7660	18.6400
 0.7670	18.5600
 0.7680	18.6400
 0.7690	18.7100
 0.7700	18.7900
 0.7710	18.8000
 0.7720	18.7500
 0.7730	18.7700
 0.7740	18.8700
 0.7750	18.8800
 0.7760	18.9600
 0.7770	18.9400
 0.7780	18.9200
 0.7790	18.9500
 0.7800	18.9800
 0.7810	19.0500
 0.7820	19.0400
 0.7830	19.1200
 0.7840	19.1100
 0.7850	19.1500
 0.7860	19.2200
 0.7870	19.1800
 0.7880	19.2700
 0.7890	19.2400
 0.7900	19.3100
 0.7910	19.3400
 0.7920	19.2600
 0.7930	19.2800
 0.7940	19.3800
 0.7950	19.4600
 0.7960	19.4400
 0.7970	19.4700
 0.7980	19.4700
 0.7990	19.4200
 0.8000	19.9700
 0.8040	20.1000
 0.8080	20.2600
 0.8120	20.3000
 0.8160	20.3800
 0.8200	20.5800
 0.8240	20.6700
 0.8280	20.8400
 0.8320	21.0200
 0.8360	21.0800
 0.8400	21.2400
 0.8440	21.3700
 0.8480	21.5400
 0.8520	21.7500
 0.8560	21.8800
 0.8600	22.1500
 0.8640	22.3600
 0.8680	22.5300
 0.8720	22.7400
 0.8760	23.0100
 0.8800	23.3100
 0.8840	23.5600
 0.8880	23.8900
 0.8920	24.1400
 0.8960	24.4000
 0.9000	24.7600
 0.9040	24.9600
 0.9080	25.3200
 0.9120	25.5700
 0.9160	25.8700
 0.9200	26.2700
 0.9240	26.6100
 0.9280	27.0300
 0.9320	27.4400
 0.9360	27.7400
 0.9400	28.2500
 0.9440	28.5500
 0.9480	28.9300
 0.9520	29.2800
 0.9560	29.6500
 0.9600	29.9400
 0.9640	30.2800
 0.9680	30.5400
 0.9720	30.7100
 0.9760	30.9300
 0.9800	31.1300
 0.9840	31.3500
 0.9880	31.5700
 0.9920	31.6900
 0.9960	31.8100
 1.0000	31.9300
 1.0040	32.1300
 1.0080	32.2300
 1.0120	32.3800
 1.0160	32.3800
 1.0200	32.5000
 1.0240	32.5800
 1.0280	32.6400
 1.0320	32.7000
 1.0360	32.9000
 1.0400	32.9000
 1.0440	32.9800
 1.0480	33.1500
 1.0520	33.1600
 1.0560	33.2200
 1.0600	33.3200
 1.0640	33.3400
 1.0680	33.4000
 1.0720	33.5300
 1.0760	33.5600
 1.0800	33.6700
 1.0840	33.7200
 1.0880	33.6700
 1.0920	33.7900
 1.0960	33.9000
 1.1000	33.9600
 1.1040	34.0000
 1.1080	34.1000
 1.1120	34.2300
 1.1160	34.2400
 1.1200	34.3500
 1.1240	34.4700
 1.1280	34.5400
 1.1320	34.5800
 1.1360	34.7200
 1.1400	34.7100
 1.1440	34.7500
 1.1480	34.8100
 1.1520	34.9200
 1.1560	34.9600
 1.1600	35.0100
 1.1640	35.0500
 1.1680	35.1000
 1.1720	35.2100
 1.1760	35.2600
 1.1800	35.4000
 1.1840	35.5200
 1.1880	35.6600
 1.1920	35.6200
 1.1960	35.7400
 1.2000	35.8400
 1.2040	35.9100
 1.2080	35.9100
 1.2120	35.9500
 1.2160	35.9500
 1.2200	36.0300
 1.2240	36.0600
 1.2280	36.1500
 1.2320	36.2700
 1.2360	36.3100
 1.2400	36.4300
 1.2440	36.5100
 1.2480	36.5800
 1.2520	36.5700
 1.2560	36.6900
 1.2600	36.6800
 1.2640	36.7600
 1.2680	36.8500
 1.2720	36.8900
 1.2760	36.9400
 1.2800	36.9700
 1.2840	37.0600
 1.2880	37.0600
 1.2920	37.1900
 1.2960	37.2200
 1.3000	37.2600
 1.3040	37.3100
 1.3080	37.3300
 1.3120	37.4000
 1.3160	37.4700
 1.3200	37.5300
 1.3240	37.6400
 1.3280	37.7500
 1.3320	37.7900
 1.3360	37.7500
 1.3400	37.8500
 1.3440	37.8600
 1.3480	37.9200
 1.3520	38.0200
 1.3560	38.0500
 1.3600	38.0900
 1.3640	38.1100
 1.3680	38.1600
 1.3720	38.3100
 1.3760	38.3300
 1.3800	38.3300
 1.3840	38.4100
 1.3880	38.4600
 1.3920	38.4400
 1.3960	38.4700
 1.4000	38.4900
 1.4040	38.4800
 1.4080	38.4800
 1.4120	38.5500
 1.4160	38.5400
 1.4200	38.6500
 1.4240	38.7200
 1.4280	38.7600
 1.4320	38.8700
 1.4360	38.9100
 1.4400	39.0300
 1.4440	39.0300
 1.4480	39.1400
 1.4520	39.1700
 1.4560	39.2600
 1.4600	39.2300
 1.4640	39.3800
 1.4680	39.3900
 1.4720	39.4900
 1.4760	39.4800
 1.4800	39.5500
 1.4840	39.5600
 1.4880	39.6200
 1.4920	39.6700
 1.4960	39.6900
 1.5000	39.7600
 1.5040	39.9500
 1.5080	39.8800
 1.5120	40.0000
 1.5160	40.0700
 1.5200	40.1000
 1.5240	40.1200
 1.5280	40.1600
 1.5320	40.2200
 1.5360	40.2000
 1.5400	40.3200
 1.5440	40.4300
 1.5480	40.4200
 1.5520	40.4100
 1.5560	40.5400
 1.5600	40.6400
 1.5640	40.6800
 1.5680	40.7400
 1.5720	40.8600
 1.5760	40.9500
 1.5800	40.8900
 1.5840	40.9600
 1.5880	41.0300
 1.5920	41.1300
 1.5960	41.2000
 1.6000	41.1600
 1.6040	41.2200
 1.6080	41.3200
 1.6120	41.3100
 1.6160	41.4300
 1.6200	41.5100
 1.6240	41.5700
 1.6280	41.6600
 1.6320	41.6800
 1.6360	41.7900
 1.6400	41.8200
 1.6440	41.9000
 1.6480	41.9600
 1.6520	42.0000
 1.6560	42.0800
 1.6600	42.0900
 1.6640	42.1600
 1.6680	42.3000
 1.6720	42.3300
 1.6760	42.3800
 1.6800	42.4700
 1.6840	42.5500
 1.6880	42.6000
 1.6920	42.6500
 1.6960	42.7300
 1.7000	42.8900
 1.7040	42.9100
 1.7080	43.0300
 1.7120	43.1000
 1.7160	43.1600
 1.7200	43.1900
 1.7240	43.1600
 1.7280	43.2500
 1.7320	43.3100
 1.7360	43.3900
 1.7400	43.5300
 1.7440	43.5000
 1.7480	43.5600
 1.7520	43.6300
 1.7560	43.6800
 1.7600	43.8000
 1.7640	43.9200
 1.7680	43.9200
 1.7720	43.9800
 1.7760	44.0300
 1.7800	44.0800
 1.7840	44.1700
 1.7880	44.1900
 1.7920	44.2600
 1.7960	44.2900
 1.8000	44.4000
 1.8040	44.4200
 1.8080	44.4600
 1.8120	44.4600
 1.8160	44.5200
 1.8200	44.5400
 1.8240	44.6400
 1.8280	44.6800
 1.8320	44.7700
 1.8360	44.7900
 1.8400	44.8700
 1.8440	44.8000
 1.8480	44.8500
 1.8520	44.9900
 1.8560	44.9400
 1.8600	45.0200
 1.8640	45.1500
 1.8680	45.1100
 1.8720	45.1500
 1.8760	45.1300
 1.8800	45.1900
 1.8840	45.2000
 1.8880	45.1900
 1.8920	45.1900
 1.8960	45.1100
 1.9000	45.0900
 1.9040	45.1500
 1.9080	45.1000
 1.9120	45.1200
 1.9160	45.1700
 1.9200	45.2700
 1.9240	45.1800
 1.9280	45.2200
 1.9320	45.3200
 1.9360	45.3200
 1.9400	45.3400
 1.9440	45.3700
 1.9480	45.3900
 1.9520	45.5100
 1.9560	45.5200
 1.9600	45.6000
 1.9640	45.6800
 1.9680	45.7500
 1.9720	45.8300
 1.9760	45.9400
 1.9800	45.9600
 1.9840	46.0700
 1.9880	46.1300
 1.9920	46.2700
 1.9960	46.3400
 2.0000	46.4400
 2.0040	46.4300
 2.0080	46.4500
 2.0120	46.5600
 2.0160	46.6600
 2.0200	46.6100
 2.0240	46.7100
 2.0280	46.7000
 2.0320	46.7900
 2.0360	46.8000
 2.0400	46.8700
 2.0440	46.8500
 2.0480	46.8700
 2.0520	46.9300
 2.0560	46.9400
 2.0600	47.0300
 2.0640	47.0600
 2.0680	47.1000
 2.0720	47.1100
 2.0760	47.1500
 2.0800	47.2200
 2.0840	47.3400
 2.0880	47.2900
 2.0920	47.3500
 2.0960	47.3500
 2.1000	47.4000
 2.1040	47.4700
 2.1080	47.5300
 2.1120	47.6100
 2.1160	47.6200
 2.1200	47.6900
 2.1240	47.6600
 2.1280	47.6900
 2.1320	47.7900
 2.1360	47.6800
 2.1400	47.7400
 2.1440	47.7300
 2.1480	47.7200
 2.1520	47.7100
 2.1560	47.7200
 2.1600	47.6500
 2.1640	47.7000
 2.1680	47.6700
 2.1720	47.7100
 2.1760	47.6700
 2.1800	47.6700
 2.1840	47.6500
 2.1880	47.6300
 2.1920	47.5900
 2.1960	47.6600
 2.2000	47.6300
 2.2040	47.5500
 2.2080	47.5800
 2.2120	47.6800
 2.2160	47.7000
 2.2200	47.7100
 2.2240	47.7400
 2.2280	47.8200
 2.2320	47.8700
 2.2360	47.8200
 2.2400	47.8300
 2.2440	47.8600
 2.2480	48.0000
 2.2520	47.9300
 2.2560	47.9700
 2.2600	48.0300
 2.2640	48.0000
 2.2680	48.0600
 2.2720	48.0600
 2.2760	47.9700
 2.2800	47.9800
 2.2840	48.0200
 2.2880	48.1400
 2.2920	48.1300
 2.2960	48.1300
 2.3000	48.0700
 2.3040	48.0600
 2.3080	48.1700
 2.3120	48.0400
 2.3160	48.1700
 2.3200	48.2100
 2.3240	48.2300
 2.3280	48.2700
 2.3320	48.2800
 2.3360	48.2300
 2.3400	48.2200
 2.3440	48.2000
 2.3480	48.2000
 2.3520	48.2100
 2.3560	48.2800
 2.3600	48.2800
 2.3640	48.2600
 2.3680	48.2300
 2.3720	48.2300
 2.3760	48.2800
 2.3800	48.3000
 2.3840	48.2600
 2.3880	48.2400
 2.3920	48.2900
 2.3960	48.2300
 2.4000	48.2300
 2.4040	48.2800
 2.4080	48.2600
 2.4120	48.3000
 2.4160	48.2100
 2.4200	48.2200
 2.4240	48.3100
 2.4280	48.2500
 2.4320	48.1900
 2.4360	48.1900
 2.4400	48.2100
 2.4440	48.1700
 2.4480	48.2200
 2.4520	48.1700
 2.4560	48.1300
 2.4600	48.1100
 2.4640	48.0800
 2.4680	48.0500
 2.4720	48.1000
 2.4760	48.0900
 2.4800	48.1400
 2.4840	48.2700
 2.4880	48.3100
 2.4920	48.3300
 2.4960	48.4500
 2.5000	48.5900
