Name: Tschermigite (NH_4)Al(SO_4)_2.12H_2O
Type: Mineral
Class: Sulfate
Subclass: None
Particle Size: Medium
Sample No.: SO-6A
Owner: JPL
Wavelength Range: VSWIR
Origin: USA, Nevada, Esmeralda County, Silver Peak.
Collection Date: N/A
Description: Particle size was 45-125um.Collected by:  Burminco Original ASTER Spectral Library name was jpl.perkin.mineral.sulfate.none.medium.so06a.spectrum.txt
Measurement: Hemispherical reflectance
First Column: X
Second Column: Y
X Units: Wavelength (micrometers)
Y Units:Reflectance (percent)
First X Value:  2.5000
Last X Value:  0.4000
Number of X Values: 2101
Additional Information: mineral.sulfate.none.medium.vswir.so-6a.jpl.perkin.ancillary.txt

 2.5000	 5.7745
 2.4990	 5.1874
 2.4980	 5.7493
 2.4970	 5.8338
 2.4960	 5.2743
 2.4950	 5.6553
 2.4940	 5.8093
 2.4930	 5.4994
 2.4920	 5.6991
 2.4910	 5.6433
 2.4900	 5.9598
 2.4890	 5.6426
 2.4880	 5.8768
 2.4870	 5.7993
 2.4860	 5.9799
 2.4850	 5.7741
 2.4840	 6.1148
 2.4830	 5.8888
 2.4820	 6.2433
 2.4810	 5.9741
 2.4800	 6.1926
 2.4790	 6.0642
 2.4780	 6.1931
 2.4770	 6.0196
 2.4760	 6.3341
 2.4750	 6.2466
 2.4740	 6.4348
 2.4730	 6.1950
 2.4720	 6.4322
 2.4710	 6.2948
 2.4700	 6.4520
 2.4690	 6.2778
 2.4680	 6.5114
 2.4670	 6.3469
 2.4660	 6.6206
 2.4650	 6.5592
 2.4640	 6.6328
 2.4630	 6.5472
 2.4620	 6.6822
 2.4610	 6.6714
 2.4600	 6.7914
 2.4590	 6.7946
 2.4580	 6.8743
 2.4570	 6.7612
 2.4560	 6.9913
 2.4550	 6.9224
 2.4540	 6.9781
 2.4530	 6.8444
 2.4520	 6.9774
 2.4510	 7.0421
 2.4500	 7.0818
 2.4490	 7.0676
 2.4480	 7.2246
 2.4470	 7.2044
 2.4460	 7.2882
 2.4450	 7.2791
 2.4440	 7.4239
 2.4430	 7.3312
 2.4420	 7.5280
 2.4410	 7.4951
 2.4400	 7.5330
 2.4390	 7.4505
 2.4380	 7.7032
 2.4370	 7.6768
 2.4360	 7.7479
 2.4350	 7.7990
 2.4340	 7.9406
 2.4330	 7.8329
 2.4320	 7.8411
 2.4310	 7.9624
 2.4300	 8.0786
 2.4290	 7.9817
 2.4280	 8.1663
 2.4270	 8.2863
 2.4260	 8.3545
 2.4250	 8.2930
 2.4240	 8.4620
 2.4230	 8.4266
 2.4220	 8.5640
 2.4210	 8.4900
 2.4200	 8.6739
 2.4190	 8.6432
 2.4180	 8.7819
 2.4170	 8.7939
 2.4160	 8.9023
 2.4150	 8.8468
 2.4140	 9.0393
 2.4130	 8.9636
 2.4120	 9.1236
 2.4110	 9.0738
 2.4100	 9.2593
 2.4090	 9.2297
 2.4080	 9.3214
 2.4070	 9.3487
 2.4060	 9.4291
 2.4050	 9.4325
 2.4040	 9.4580
 2.4030	 9.5310
 2.4020	 9.5528
 2.4010	 9.6519
 2.4000	 9.7361
 2.3990	 9.7352
 2.3980	 9.8047
 2.3970	 9.8573
 2.3960	 9.8893
 2.3950	 9.9061
 2.3940	 9.9921
 2.3930	10.0427
 2.3920	10.1003
 2.3910	10.0869
 2.3900	10.1179
 2.3890	10.1546
 2.3880	10.2994
 2.3870	10.2653
 2.3860	10.2782
 2.3850	10.3635
 2.3840	10.3852
 2.3830	10.4151
 2.3820	10.4774
 2.3810	10.5026
 2.3800	10.6117
 2.3790	10.5646
 2.3780	10.6033
 2.3770	10.6722
 2.3760	10.6968
 2.3750	10.7198
 2.3740	10.7545
 2.3730	10.8148
 2.3720	10.8209
 2.3710	10.7776
 2.3700	10.7965
 2.3690	10.8234
 2.3680	10.8672
 2.3670	10.8755
 2.3660	10.8861
 2.3650	10.9527
 2.3640	11.0196
 2.3630	11.0048
 2.3620	10.9939
 2.3610	10.9703
 2.3600	10.9407
 2.3590	11.0035
 2.3580	11.0336
 2.3570	11.0726
 2.3560	11.1101
 2.3550	11.1265
 2.3540	11.1095
 2.3530	11.1139
 2.3520	11.1474
 2.3510	11.1159
 2.3500	11.0952
 2.3490	11.1585
 2.3480	11.1164
 2.3470	11.0968
 2.3460	11.1358
 2.3450	11.1215
 2.3440	11.0758
 2.3430	11.1011
 2.3420	11.1054
 2.3410	11.0722
 2.3400	11.0718
 2.3390	11.1172
 2.3380	11.0673
 2.3370	11.1428
 2.3360	11.1390
 2.3350	11.1215
 2.3340	11.0807
 2.3330	11.0481
 2.3320	11.0379
 2.3310	11.0345
 2.3300	10.9552
 2.3290	11.0668
 2.3280	11.0790
 2.3270	11.0205
 2.3260	10.9888
 2.3250	11.0381
 2.3240	10.9997
 2.3230	11.0089
 2.3220	10.9993
 2.3210	10.9997
 2.3200	10.9068
 2.3190	10.9194
 2.3180	10.9204
 2.3170	10.9683
 2.3160	10.9134
 2.3150	10.8979
 2.3140	10.8738
 2.3130	10.9109
 2.3120	10.9210
 2.3110	10.9007
 2.3100	10.8722
 2.3090	10.9758
 2.3080	10.9342
 2.3070	10.8784
 2.3060	10.8223
 2.3050	10.8778
 2.3040	10.8737
 2.3030	10.9111
 2.3020	10.8440
 2.3010	10.8976
 2.3000	10.8781
 2.2990	10.8749
 2.2980	10.8587
 2.2970	10.8834
 2.2960	10.9603
 2.2950	10.9399
 2.2940	10.8512
 2.2930	10.9099
 2.2920	10.9632
 2.2910	10.9174
 2.2900	10.8482
 2.2890	10.9755
 2.2880	10.8600
 2.2870	10.8666
 2.2860	10.8773
 2.2850	10.8974
 2.2840	10.8777
 2.2830	10.9635
 2.2820	10.9106
 2.2810	10.9633
 2.2800	10.8615
 2.2790	10.9728
 2.2780	10.9113
 2.2770	10.9847
 2.2760	10.9941
 2.2750	10.8582
 2.2740	10.9405
 2.2730	10.9898
 2.2720	10.9543
 2.2710	11.0138
 2.2700	10.8646
 2.2690	10.9234
 2.2680	10.9116
 2.2670	11.0055
 2.2660	10.9508
 2.2650	11.0538
 2.2640	10.9886
 2.2630	10.9892
 2.2620	10.9647
 2.2610	10.9851
 2.2600	10.9599
 2.2590	11.0436
 2.2580	10.8943
 2.2570	11.0624
 2.2560	10.9420
 2.2550	10.9111
 2.2540	10.9453
 2.2530	10.9284
 2.2520	10.9406
 2.2510	11.0007
 2.2500	10.8940
 2.2490	11.0114
 2.2480	10.8818
 2.2470	11.0132
 2.2460	10.9305
 2.2450	10.9276
 2.2440	10.9573
 2.2430	10.8943
 2.2420	10.9085
 2.2410	10.9763
 2.2400	10.8707
 2.2390	10.8465
 2.2380	10.8360
 2.2370	10.9254
 2.2360	10.8465
 2.2350	10.8546
 2.2340	10.8487
 2.2330	10.9589
 2.2320	10.8070
 2.2310	10.9024
 2.2300	10.7591
 2.2290	10.9255
 2.2280	10.8425
 2.2270	10.9259
 2.2260	10.7995
 2.2250	10.8382
 2.2240	10.8277
 2.2230	10.8494
 2.2220	10.8022
 2.2210	10.8147
 2.2200	10.7894
 2.2190	10.7936
 2.2180	10.7159
 2.2170	10.8187
 2.2160	10.6945
 2.2150	10.8511
 2.2140	10.7136
 2.2130	10.8762
 2.2120	10.9089
 2.2110	10.6964
 2.2100	10.8263
 2.2090	10.7910
 2.2080	10.6811
 2.2070	10.8427
 2.2060	10.6810
 2.2050	10.7522
 2.2040	10.7870
 2.2030	10.7630
 2.2020	10.7706
 2.2010	10.7038
 2.2000	10.7315
 2.1990	10.7639
 2.1980	10.6549
 2.1970	10.7560
 2.1960	10.6280
 2.1950	10.7128
 2.1940	10.7405
 2.1930	10.7491
 2.1920	10.6555
 2.1910	10.7571
 2.1900	10.6075
 2.1890	10.7429
 2.1880	10.6229
 2.1870	10.6524
 2.1860	10.6175
 2.1850	10.6485
 2.1840	10.6114
 2.1830	10.5866
 2.1820	10.6235
 2.1810	10.6604
 2.1800	10.5535
 2.1790	10.6603
 2.1780	10.6015
 2.1770	10.6318
 2.1760	10.5560
 2.1750	10.5393
 2.1740	10.5892
 2.1730	10.6738
 2.1720	10.5130
 2.1710	10.5916
 2.1700	10.5741
 2.1690	10.6134
 2.1680	10.5787
 2.1670	10.5555
 2.1660	10.5555
 2.1650	10.5838
 2.1640	10.5568
 2.1630	10.5618
 2.1620	10.5357
 2.1610	10.5977
 2.1600	10.5247
 2.1590	10.5532
 2.1580	10.5484
 2.1570	10.5582
 2.1560	10.5122
 2.1550	10.6457
 2.1540	10.6107
 2.1530	10.5582
 2.1520	10.5412
 2.1510	10.6130
 2.1500	10.5627
 2.1490	10.5583
 2.1480	10.5921
 2.1470	10.6371
 2.1460	10.5862
 2.1450	10.6849
 2.1440	10.6236
 2.1430	10.6564
 2.1420	10.7008
 2.1410	10.6723
 2.1400	10.6407
 2.1390	10.7084
 2.1380	10.6959
 2.1370	10.7768
 2.1360	10.7485
 2.1350	10.7426
 2.1340	10.7530
 2.1330	10.8116
 2.1320	10.7733
 2.1310	10.8272
 2.1300	10.8011
 2.1290	10.8414
 2.1280	10.7918
 2.1270	10.8764
 2.1260	10.8666
 2.1250	10.9522
 2.1240	10.9045
 2.1230	10.8784
 2.1220	10.8798
 2.1210	10.9660
 2.1200	10.9667
 2.1190	10.9977
 2.1180	10.9406
 2.1170	10.9992
 2.1160	11.0137
 2.1150	11.0302
 2.1140	11.0089
 2.1130	11.0457
 2.1120	11.0059
 2.1110	11.0154
 2.1100	11.0820
 2.1090	11.1069
 2.1080	11.0851
 2.1070	11.0822
 2.1060	11.0865
 2.1050	11.1249
 2.1040	11.1020
 2.1030	11.1501
 2.1020	11.1489
 2.1010	11.1995
 2.1000	11.1457
 2.0990	11.1211
 2.0980	11.1744
 2.0970	11.2509
 2.0960	11.2033
 2.0950	11.1273
 2.0940	11.1936
 2.0930	11.2669
 2.0920	11.2718
 2.0910	11.2872
 2.0900	11.3207
 2.0890	11.3071
 2.0880	11.2822
 2.0870	11.3245
 2.0860	11.3336
 2.0850	11.3214
 2.0840	11.3373
 2.0830	11.3568
 2.0820	11.3569
 2.0810	11.3111
 2.0800	11.2870
 2.0790	11.3363
 2.0780	11.3276
 2.0770	11.3691
 2.0760	11.3654
 2.0750	11.3883
 2.0740	11.4407
 2.0730	11.4011
 2.0720	11.3866
 2.0710	11.3958
 2.0700	11.3631
 2.0690	11.3548
 2.0680	11.3653
 2.0670	11.4048
 2.0660	11.3983
 2.0650	11.3741
 2.0640	11.4039
 2.0630	11.3662
 2.0620	11.3501
 2.0610	11.3944
 2.0600	11.3766
 2.0590	11.2977
 2.0580	11.3118
 2.0570	11.3893
 2.0560	11.3567
 2.0550	11.3111
 2.0540	11.2942
 2.0530	11.2505
 2.0520	11.3160
 2.0510	11.2826
 2.0500	11.2477
 2.0490	11.2104
 2.0480	11.1580
 2.0470	11.1108
 2.0460	11.0692
 2.0450	11.0677
 2.0440	11.0603
 2.0430	10.9778
 2.0420	10.9253
 2.0410	10.9032
 2.0400	10.9214
 2.0390	10.8303
 2.0380	10.7422
 2.0370	10.7397
 2.0360	10.6232
 2.0350	10.5461
 2.0340	10.5144
 2.0330	10.4350
 2.0320	10.3277
 2.0310	10.2887
 2.0300	10.2594
 2.0290	10.1456
 2.0280	10.0881
 2.0270	 9.9712
 2.0260	 9.8932
 2.0250	 9.8228
 2.0240	 9.8045
 2.0230	 9.7021
 2.0220	 9.6311
 2.0210	 9.5146
 2.0200	 9.4437
 2.0190	 9.3112
 2.0180	 9.3270
 2.0170	 9.2002
 2.0160	 9.1411
 2.0150	 9.0005
 2.0140	 8.8894
 2.0130	 8.7665
 2.0120	 8.7738
 2.0110	 8.6797
 2.0100	 8.6149
 2.0090	 8.4839
 2.0080	 8.4424
 2.0070	 8.3109
 2.0060	 8.3006
 2.0050	 8.1775
 2.0040	 8.0803
 2.0030	 8.0592
 2.0020	 8.1187
 2.0010	 7.9349
 2.0000	 7.9198
 1.9990	 7.8653
 1.9980	 7.7814
 1.9970	 7.7734
 1.9960	 7.7575
 1.9950	 7.6060
 1.9940	 7.6419
 1.9930	 7.5777
 1.9920	 7.6124
 1.9910	 7.5728
 1.9900	 7.5213
 1.9890	 7.5164
 1.9880	 7.5649
 1.9870	 7.4435
 1.9860	 7.4586
 1.9850	 7.3779
 1.9840	 7.5228
 1.9830	 7.4724
 1.9820	 7.4570
 1.9810	 7.4014
 1.9800	 7.4415
 1.9790	 7.4391
 1.9780	 7.4686
 1.9770	 7.4927
 1.9760	 7.5578
 1.9750	 7.5130
 1.9740	 7.5195
 1.9730	 7.5475
 1.9720	 7.5853
 1.9710	 7.5285
 1.9700	 7.6367
 1.9690	 7.6566
 1.9680	 7.7390
 1.9670	 7.6754
 1.9660	 7.6540
 1.9650	 7.7322
 1.9640	 7.8331
 1.9630	 7.7360
 1.9620	 7.8253
 1.9610	 7.7766
 1.9600	 7.9269
 1.9590	 7.9055
 1.9580	 8.0613
 1.9570	 7.9770
 1.9560	 8.0416
 1.9550	 7.9946
 1.9540	 8.1877
 1.9530	 8.0690
 1.9520	 8.2744
 1.9510	 8.2362
 1.9500	 8.3141
 1.9490	 8.3271
 1.9480	 8.3693
 1.9470	 8.4462
 1.9460	 8.6495
 1.9450	 8.5545
 1.9440	 8.6913
 1.9430	 8.7551
 1.9420	 8.8498
 1.9410	 8.8777
 1.9400	 8.9793
 1.9390	 8.9831
 1.9380	 9.2387
 1.9370	 9.0663
 1.9360	 9.3529
 1.9350	 9.2626
 1.9340	 9.6101
 1.9330	 9.5900
 1.9320	 9.7733
 1.9310	 9.8224
 1.9300	 9.9611
 1.9290	 9.9838
 1.9280	10.1634
 1.9270	10.3763
 1.9260	10.3875
 1.9250	10.6421
 1.9240	10.6965
 1.9230	10.9291
 1.9220	11.0086
 1.9210	11.1596
 1.9200	11.3514
 1.9190	11.3158
 1.9180	11.7036
 1.9170	11.7728
 1.9160	11.9900
 1.9150	12.0221
 1.9140	12.2747
 1.9130	12.3505
 1.9120	12.5933
 1.9110	12.6956
 1.9100	12.8771
 1.9090	13.0334
 1.9080	13.1614
 1.9070	13.2502
 1.9060	13.5129
 1.9050	13.6130
 1.9040	13.8560
 1.9030	14.0205
 1.9020	14.1654
 1.9010	14.1674
 1.9000	14.5061
 1.8990	14.5437
 1.8980	14.7983
 1.8970	14.8140
 1.8960	15.0837
 1.8950	15.1877
 1.8940	15.3943
 1.8930	15.4275
 1.8920	15.6160
 1.8910	15.6587
 1.8900	15.7786
 1.8890	15.8741
 1.8880	16.0449
 1.8870	16.0614
 1.8860	16.1907
 1.8850	16.2827
 1.8840	16.4075
 1.8830	16.4403
 1.8820	16.6606
 1.8810	16.6439
 1.8800	16.7814
 1.8790	16.8497
 1.8780	17.0019
 1.8770	17.0123
 1.8760	17.1404
 1.8750	17.2059
 1.8740	17.2893
 1.8730	17.3154
 1.8720	17.4449
 1.8710	17.3998
 1.8700	17.5711
 1.8690	17.5994
 1.8680	17.6751
 1.8670	17.7228
 1.8660	17.7842
 1.8650	17.8807
 1.8640	17.9202
 1.8630	17.9517
 1.8620	18.0363
 1.8610	18.0808
 1.8600	18.1737
 1.8590	18.1459
 1.8580	18.2541
 1.8570	18.2711
 1.8560	18.3757
 1.8550	18.3702
 1.8540	18.4094
 1.8530	18.4510
 1.8520	18.5421
 1.8510	18.5376
 1.8500	18.5870
 1.8490	18.5691
 1.8480	18.6325
 1.8470	18.6650
 1.8460	18.7127
 1.8450	18.7189
 1.8440	18.7593
 1.8430	18.8079
 1.8420	18.8017
 1.8410	18.7940
 1.8400	18.8797
 1.8390	18.8598
 1.8380	18.9116
 1.8370	18.8983
 1.8360	18.9208
 1.8350	18.8986
 1.8340	18.9162
 1.8330	18.9621
 1.8320	18.9538
 1.8310	18.9198
 1.8300	18.9805
 1.8290	19.0098
 1.8280	19.0189
 1.8270	18.9535
 1.8260	19.0297
 1.8250	19.0731
 1.8240	19.0487
 1.8230	19.0285
 1.8220	19.0027
 1.8210	19.0444
 1.8200	19.0629
 1.8190	19.0567
 1.8180	19.1239
 1.8170	19.0617
 1.8160	19.1158
 1.8150	19.1083
 1.8140	19.1247
 1.8130	19.1013
 1.8120	19.1184
 1.8110	19.1645
 1.8100	19.1540
 1.8090	19.1568
 1.8080	19.1533
 1.8070	19.1361
 1.8060	19.1951
 1.8050	19.2344
 1.8040	19.2481
 1.8030	19.2050
 1.8020	19.2466
 1.8010	19.2774
 1.8000	19.3471
 1.7990	19.4256
 1.7980	19.3763
 1.7970	19.3598
 1.7960	19.4182
 1.7950	19.4498
 1.7940	19.4509
 1.7930	19.4844
 1.7920	19.5457
 1.7910	19.6112
 1.7900	19.6734
 1.7890	19.6942
 1.7880	19.7524
 1.7870	19.7486
 1.7860	19.7834
 1.7850	19.8495
 1.7840	19.9191
 1.7830	20.0057
 1.7820	20.0375
 1.7810	20.0178
 1.7800	20.0677
 1.7790	20.1951
 1.7780	20.2304
 1.7770	20.2813
 1.7760	20.3648
 1.7750	20.4224
 1.7740	20.4971
 1.7730	20.5624
 1.7720	20.5579
 1.7710	20.6331
 1.7700	20.6881
 1.7690	20.7766
 1.7680	20.8077
 1.7670	20.8675
 1.7660	20.9609
 1.7650	21.0065
 1.7640	21.0433
 1.7630	21.1765
 1.7620	21.2414
 1.7610	21.2832
 1.7600	21.3696
 1.7590	21.4410
 1.7580	21.4630
 1.7570	21.5584
 1.7560	21.6243
 1.7550	21.7144
 1.7540	21.7710
 1.7530	21.9005
 1.7520	21.9177
 1.7510	21.9913
 1.7500	22.0825
 1.7490	22.1464
 1.7480	22.1933
 1.7470	22.3319
 1.7460	22.3389
 1.7450	22.3697
 1.7440	22.4355
 1.7430	22.5742
 1.7420	22.6927
 1.7410	22.7539
 1.7400	22.7627
 1.7390	22.8245
 1.7380	22.9364
 1.7370	23.0070
 1.7360	23.0329
 1.7350	23.1098
 1.7340	23.1330
 1.7330	23.2563
 1.7320	23.3669
 1.7310	23.4533
 1.7300	23.5076
 1.7290	23.6024
 1.7280	23.6591
 1.7270	23.7738
 1.7260	23.8434
 1.7250	23.9124
 1.7240	23.9699
 1.7230	24.0734
 1.7220	24.1708
 1.7210	24.2960
 1.7200	24.3263
 1.7190	24.4024
 1.7180	24.3831
 1.7170	24.5305
 1.7160	24.5816
 1.7150	24.7418
 1.7140	24.8011
 1.7130	24.9468
 1.7120	24.9898
 1.7110	25.0522
 1.7100	25.1052
 1.7090	25.2842
 1.7080	25.4125
 1.7070	25.4585
 1.7060	25.4882
 1.7050	25.6028
 1.7040	25.6336
 1.7030	25.7917
 1.7020	25.9014
 1.7010	26.0154
 1.7000	26.0043
 1.6990	26.1672
 1.6980	26.1440
 1.6970	26.3781
 1.6960	26.3902
 1.6950	26.5524
 1.6940	26.5999
 1.6930	26.6752
 1.6920	26.7379
 1.6910	26.8830
 1.6900	26.9831
 1.6890	27.1135
 1.6880	27.1559
 1.6870	27.2901
 1.6860	27.3485
 1.6850	27.5102
 1.6840	27.4920
 1.6830	27.6077
 1.6820	27.7299
 1.6810	27.7893
 1.6800	27.8268
 1.6790	28.0076
 1.6780	28.0364
 1.6770	28.1672
 1.6760	28.1784
 1.6750	28.3471
 1.6740	28.3530
 1.6730	28.4573
 1.6720	28.4352
 1.6710	28.6570
 1.6700	28.7686
 1.6690	28.9041
 1.6680	28.7041
 1.6670	29.0362
 1.6660	28.9063
 1.6650	29.1264
 1.6640	29.0594
 1.6630	29.2510
 1.6620	29.3198
 1.6610	29.4228
 1.6600	29.3575
 1.6590	29.5539
 1.6580	29.4938
 1.6570	29.6180
 1.6560	29.6509
 1.6550	29.7652
 1.6540	29.7024
 1.6530	29.9654
 1.6520	29.9074
 1.6510	29.9916
 1.6500	30.0016
 1.6490	30.1031
 1.6480	30.0625
 1.6470	30.1408
 1.6460	30.2551
 1.6450	30.3375
 1.6440	30.2208
 1.6430	30.4148
 1.6420	30.5823
 1.6410	30.4142
 1.6400	30.5310
 1.6390	30.5761
 1.6380	30.6016
 1.6370	30.7089
 1.6360	30.5919
 1.6350	30.7983
 1.6340	30.7438
 1.6330	30.8619
 1.6320	30.9059
 1.6310	30.9493
 1.6300	30.9802
 1.6290	30.9716
 1.6280	30.9515
 1.6270	31.0217
 1.6260	31.0782
 1.6250	31.1657
 1.6240	31.1171
 1.6230	31.2259
 1.6220	31.2067
 1.6210	31.3051
 1.6200	31.2450
 1.6190	31.3092
 1.6180	31.2847
 1.6170	31.3923
 1.6160	31.3544
 1.6150	31.4278
 1.6140	31.3828
 1.6130	31.5440
 1.6120	31.4204
 1.6110	31.5633
 1.6100	31.4816
 1.6090	31.6011
 1.6080	31.5206
 1.6070	31.6047
 1.6060	31.5507
 1.6050	31.6408
 1.6040	31.6764
 1.6030	31.6909
 1.6020	31.7202
 1.6010	31.6570
 1.6000	31.6918
 1.5990	31.7146
 1.5980	31.7227
 1.5970	31.7371
 1.5960	31.7218
 1.5950	31.8472
 1.5940	31.8093
 1.5930	31.8152
 1.5920	31.7671
 1.5910	31.8546
 1.5900	31.7558
 1.5890	31.8074
 1.5880	31.8180
 1.5870	31.8992
 1.5860	31.8312
 1.5850	31.9010
 1.5840	31.9236
 1.5830	31.9288
 1.5820	31.8608
 1.5810	31.8513
 1.5800	31.8580
 1.5790	31.9027
 1.5780	31.9792
 1.5770	31.9440
 1.5760	31.9830
 1.5750	32.0233
 1.5740	31.9891
 1.5730	32.0334
 1.5720	32.0437
 1.5710	32.0808
 1.5700	31.9875
 1.5690	32.0572
 1.5680	31.9776
 1.5670	32.1537
 1.5660	32.1439
 1.5650	32.1760
 1.5640	32.1020
 1.5630	32.1532
 1.5620	32.1587
 1.5610	32.2448
 1.5600	32.2530
 1.5590	32.3262
 1.5580	32.3695
 1.5570	32.4291
 1.5560	32.3872
 1.5550	32.4864
 1.5540	32.6010
 1.5530	32.6328
 1.5520	32.6637
 1.5510	32.7354
 1.5500	32.7597
 1.5490	32.7892
 1.5480	32.8576
 1.5470	32.9709
 1.5460	33.0239
 1.5450	33.0894
 1.5440	33.1739
 1.5430	33.3110
 1.5420	33.3459
 1.5410	33.4203
 1.5400	33.4699
 1.5390	33.5645
 1.5380	33.6225
 1.5370	33.7211
 1.5360	33.7666
 1.5350	33.8536
 1.5340	33.9715
 1.5330	34.1186
 1.5320	34.1790
 1.5310	34.3185
 1.5300	34.4180
 1.5290	34.4927
 1.5280	34.5654
 1.5270	34.6846
 1.5260	34.7434
 1.5250	34.8646
 1.5240	34.9315
 1.5230	35.0014
 1.5220	35.1303
 1.5210	35.2302
 1.5200	35.3071
 1.5190	35.3474
 1.5180	35.4303
 1.5170	35.5427
 1.5160	35.6527
 1.5150	35.7481
 1.5140	35.8448
 1.5130	35.9563
 1.5120	35.9761
 1.5110	35.9744
 1.5100	36.0508
 1.5090	36.1114
 1.5080	36.1181
 1.5070	36.1618
 1.5060	36.1678
 1.5050	36.2099
 1.5040	36.2373
 1.5030	36.2541
 1.5020	36.2815
 1.5010	36.3066
 1.5000	36.2878
 1.4990	36.2548
 1.4980	36.2465
 1.4970	36.1821
 1.4960	36.1149
 1.4950	36.1054
 1.4940	36.1043
 1.4930	36.0476
 1.4920	35.9973
 1.4910	35.9554
 1.4900	35.9101
 1.4890	35.8536
 1.4880	35.8579
 1.4870	35.8073
 1.4860	35.7715
 1.4850	35.8058
 1.4840	35.8563
 1.4830	35.8031
 1.4820	35.7853
 1.4810	35.7772
 1.4800	35.8400
 1.4790	35.8998
 1.4780	35.9352
 1.4770	36.0126
 1.4760	36.0865
 1.4750	36.2072
 1.4740	36.3551
 1.4730	36.4225
 1.4720	36.4758
 1.4710	36.5739
 1.4700	36.7503
 1.4690	36.8601
 1.4680	37.0423
 1.4670	37.1860
 1.4660	37.3387
 1.4650	37.5247
 1.4640	37.6401
 1.4630	37.7782
 1.4620	38.0103
 1.4610	38.2524
 1.4600	38.4331
 1.4590	38.6297
 1.4580	38.9074
 1.4570	39.1464
 1.4560	39.3446
 1.4550	39.5563
 1.4540	39.8364
 1.4530	40.1806
 1.4520	40.4894
 1.4510	40.7949
 1.4500	41.1524
 1.4490	41.5478
 1.4480	41.9362
 1.4470	42.2775
 1.4460	42.7601
 1.4450	43.1914
 1.4440	43.6980
 1.4430	44.1243
 1.4420	44.6171
 1.4410	45.1246
 1.4400	45.6521
 1.4390	46.1468
 1.4380	46.6433
 1.4370	47.1234
 1.4360	47.6903
 1.4350	48.1782
 1.4340	48.6997
 1.4330	49.2557
 1.4320	49.8561
 1.4310	50.4108
 1.4300	51.0214
 1.4290	51.4634
 1.4280	51.9597
 1.4270	52.4986
 1.4260	53.0339
 1.4250	53.5238
 1.4240	54.0641
 1.4230	54.5689
 1.4220	55.0539
 1.4210	55.5187
 1.4200	56.1341
 1.4190	56.4899
 1.4180	56.9602
 1.4170	57.4567
 1.4160	57.9074
 1.4150	58.3358
 1.4140	58.7924
 1.4130	59.2242
 1.4120	59.5862
 1.4110	59.9564
 1.4100	60.4213
 1.4090	60.8136
 1.4080	61.0658
 1.4070	61.4274
 1.4060	61.7540
 1.4050	62.0243
 1.4040	62.4332
 1.4030	62.7635
 1.4020	62.9739
 1.4010	63.2469
 1.4000	63.4695
 1.3990	63.6583
 1.3980	63.8975
 1.3970	64.1650
 1.3960	64.3810
 1.3950	64.4975
 1.3940	64.7851
 1.3930	64.8172
 1.3920	65.0130
 1.3910	65.1987
 1.3900	65.3282
 1.3890	65.4588
 1.3880	65.5449
 1.3870	65.6317
 1.3860	65.7518
 1.3850	65.7121
 1.3840	65.9184
 1.3830	65.9613
 1.3820	66.0494
 1.3810	66.0999
 1.3800	66.2344
 1.3790	66.2788
 1.3780	66.4158
 1.3770	66.4393
 1.3760	66.5093
 1.3750	66.5157
 1.3740	66.6609
 1.3730	66.6383
 1.3720	66.7111
 1.3710	66.7875
 1.3700	66.8182
 1.3690	66.9080
 1.3680	67.0155
 1.3670	67.0890
 1.3660	67.2459
 1.3650	67.2349
 1.3640	67.2730
 1.3630	67.4476
 1.3620	67.5450
 1.3610	67.6040
 1.3600	67.6785
 1.3590	67.8611
 1.3580	68.0039
 1.3570	68.0599
 1.3560	68.1021
 1.3550	68.2002
 1.3540	68.3390
 1.3530	68.4522
 1.3520	68.5710
 1.3510	68.6459
 1.3500	68.7024
 1.3490	68.8242
 1.3480	68.9856
 1.3470	69.1429
 1.3460	69.3265
 1.3450	69.3569
 1.3440	69.5597
 1.3430	69.5516
 1.3420	69.8082
 1.3410	69.8596
 1.3400	69.9963
 1.3390	70.1422
 1.3380	70.3261
 1.3370	70.3755
 1.3360	70.5427
 1.3350	70.6653
 1.3340	70.8329
 1.3330	71.0061
 1.3320	71.1174
 1.3310	71.2701
 1.3300	71.3734
 1.3290	71.4527
 1.3280	71.7022
 1.3270	71.7821
 1.3260	71.9064
 1.3250	72.0717
 1.3240	72.2389
 1.3230	72.2940
 1.3220	72.4882
 1.3210	72.5247
 1.3200	72.6035
 1.3190	72.7108
 1.3180	72.9122
 1.3170	73.0555
 1.3160	73.1212
 1.3150	73.1936
 1.3140	73.3499
 1.3130	73.4108
 1.3120	73.4846
 1.3110	73.4868
 1.3100	73.6175
 1.3090	73.6338
 1.3080	73.7906
 1.3070	73.7957
 1.3060	73.9417
 1.3050	74.0791
 1.3040	74.1132
 1.3030	74.1156
 1.3020	74.1149
 1.3010	74.1984
 1.3000	74.2591
 1.2990	74.2561
 1.2980	74.2411
 1.2970	74.3594
 1.2960	74.3513
 1.2950	74.3883
 1.2940	74.4634
 1.2930	74.4297
 1.2920	74.5152
 1.2910	74.5839
 1.2900	74.5317
 1.2890	74.4756
 1.2880	74.5346
 1.2870	74.5710
 1.2860	74.5847
 1.2850	74.6265
 1.2840	74.6753
 1.2830	74.6526
 1.2820	74.6899
 1.2810	74.6606
 1.2800	74.6531
 1.2790	74.6103
 1.2780	74.6074
 1.2770	74.5912
 1.2760	74.6067
 1.2750	74.5861
 1.2740	74.6406
 1.2730	74.5955
 1.2720	74.5941
 1.2710	74.5363
 1.2700	74.4721
 1.2690	74.5169
 1.2680	74.4903
 1.2670	74.4839
 1.2660	74.5042
 1.2650	74.4687
 1.2640	74.3965
 1.2630	74.3684
 1.2620	74.3489
 1.2610	74.3495
 1.2600	74.3858
 1.2590	74.3154
 1.2580	74.3535
 1.2570	74.3558
 1.2560	74.4022
 1.2550	74.3844
 1.2540	74.3663
 1.2530	74.3107
 1.2520	74.3498
 1.2510	74.3279
 1.2500	74.2584
 1.2490	74.3473
 1.2480	74.3414
 1.2470	74.3382
 1.2460	74.3625
 1.2450	74.4109
 1.2440	74.4965
 1.2430	74.4995
 1.2420	74.4301
 1.2410	74.4728
 1.2400	74.5920
 1.2390	74.5775
 1.2380	74.6316
 1.2370	74.6721
 1.2360	74.6796
 1.2350	74.6832
 1.2340	74.7013
 1.2330	74.7574
 1.2320	74.7978
 1.2310	74.8278
 1.2300	74.8925
 1.2290	74.9006
 1.2280	74.9265
 1.2270	74.9902
 1.2260	75.0136
 1.2250	75.0663
 1.2240	75.1126
 1.2230	75.1022
 1.2220	75.1489
 1.2210	75.2256
 1.2200	75.2399
 1.2190	75.2776
 1.2180	75.3038
 1.2170	75.3288
 1.2160	75.4195
 1.2150	75.4904
 1.2140	75.5635
 1.2130	75.6351
 1.2120	75.6563
 1.2110	75.7134
 1.2100	75.7862
 1.2090	75.8689
 1.2080	75.9219
 1.2070	75.9617
 1.2060	76.0370
 1.2050	76.1056
 1.2040	76.1918
 1.2030	76.2914
 1.2020	76.3717
 1.2010	76.4164
 1.2000	76.5049
 1.1990	76.6004
 1.1980	76.6787
 1.1970	76.7926
 1.1960	76.8418
 1.1950	76.9696
 1.1940	77.0204
 1.1930	77.1164
 1.1920	77.2653
 1.1910	77.3380
 1.1900	77.3785
 1.1890	77.4691
 1.1880	77.5852
 1.1870	77.6736
 1.1860	77.7287
 1.1850	77.8416
 1.1840	77.9337
 1.1830	78.0075
 1.1820	78.1295
 1.1810	78.2872
 1.1800	78.3109
 1.1790	78.3725
 1.1780	78.5769
 1.1770	78.6820
 1.1760	78.7617
 1.1750	78.8416
 1.1740	78.9379
 1.1730	79.1448
 1.1720	79.2937
 1.1710	79.3931
 1.1700	79.4994
 1.1690	79.7397
 1.1680	79.9569
 1.1670	80.1595
 1.1660	80.2605
 1.1650	80.4138
 1.1640	80.5301
 1.1630	80.7315
 1.1620	80.8427
 1.1610	81.0557
 1.1600	81.2076
 1.1590	81.3297
 1.1580	81.5144
 1.1570	81.7028
 1.1560	81.8024
 1.1550	81.9321
 1.1540	82.0207
 1.1530	82.1831
 1.1520	82.3597
 1.1510	82.5173
 1.1500	82.5901
 1.1490	82.7013
 1.1480	82.7629
 1.1470	82.8585
 1.1460	82.9985
 1.1450	83.1248
 1.1440	83.2189
 1.1430	83.2594
 1.1420	83.2763
 1.1410	83.3912
 1.1400	83.3617
 1.1390	83.4841
 1.1380	83.5561
 1.1370	83.6900
 1.1360	83.6601
 1.1350	83.7486
 1.1340	83.7312
 1.1330	83.8896
 1.1320	83.8389
 1.1310	83.9422
 1.1300	83.9503
 1.1290	83.9928
 1.1280	84.0282
 1.1270	84.0226
 1.1260	84.1380
 1.1250	84.1850
 1.1240	84.1595
 1.1230	84.2327
 1.1220	84.2475
 1.1210	84.1930
 1.1200	84.3308
 1.1190	84.4386
 1.1180	84.3857
 1.1170	84.4246
 1.1160	84.3923
 1.1150	84.5065
 1.1140	84.5749
 1.1130	84.5423
 1.1120	84.5841
 1.1110	84.6365
 1.1100	84.6490
 1.1090	84.8098
 1.1080	84.7394
 1.1070	84.7460
 1.1060	84.8921
 1.1050	84.9257
 1.1040	84.8588
 1.1030	84.9273
 1.1020	84.9638
 1.1010	85.0586
 1.1000	84.9992
 1.0990	85.0761
 1.0980	85.1003
 1.0970	85.1422
 1.0960	85.1438
 1.0950	85.2728
 1.0940	85.2590
 1.0930	85.3841
 1.0920	85.3711
 1.0910	85.2898
 1.0900	85.3686
 1.0890	85.3645
 1.0880	85.4030
 1.0870	85.4594
 1.0860	85.4451
 1.0850	85.5211
 1.0840	85.5325
 1.0830	85.5596
 1.0820	85.5621
 1.0810	85.5039
 1.0800	85.5043
 1.0790	85.6241
 1.0780	85.6157
 1.0770	85.6987
 1.0760	85.6144
 1.0750	85.7592
 1.0740	85.5763
 1.0730	85.6212
 1.0720	85.7672
 1.0710	85.6126
 1.0700	85.7367
 1.0690	85.7354
 1.0680	85.6997
 1.0670	85.8080
 1.0660	85.6585
 1.0650	85.7159
 1.0640	85.8913
 1.0630	85.7154
 1.0620	85.7616
 1.0610	85.6636
 1.0600	85.7858
 1.0590	85.7463
 1.0580	85.7071
 1.0570	85.7550
 1.0560	85.7798
 1.0550	85.6656
 1.0540	85.8107
 1.0530	85.6714
 1.0520	85.6277
 1.0510	85.6323
 1.0500	85.7028
 1.0490	85.7265
 1.0480	85.5885
 1.0470	85.7077
 1.0460	85.4958
 1.0450	85.6132
 1.0440	85.4471
 1.0430	85.4963
 1.0420	85.4507
 1.0410	85.5177
 1.0400	85.4383
 1.0390	85.4290
 1.0380	85.3154
 1.0370	85.3612
 1.0360	85.3314
 1.0350	85.3047
 1.0340	85.2560
 1.0330	85.2357
 1.0320	85.2443
 1.0310	85.3165
 1.0300	85.1705
 1.0290	85.1303
 1.0280	85.1425
 1.0270	85.1704
 1.0260	85.0087
 1.0250	85.0458
 1.0240	84.9482
 1.0230	85.0000
 1.0220	84.9217
 1.0210	84.9615
 1.0200	84.9263
 1.0190	84.8124
 1.0180	84.8339
 1.0170	84.9493
 1.0160	84.8990
 1.0150	84.8382
 1.0140	84.7015
 1.0130	84.8248
 1.0120	84.8056
 1.0110	84.7354
 1.0100	84.8428
 1.0090	84.8192
 1.0080	84.8150
 1.0070	84.7983
 1.0060	84.7337
 1.0050	84.8155
 1.0040	84.8184
 1.0030	84.7533
 1.0020	84.7862
 1.0010	84.8170
 1.0000	84.8774
 0.9990	84.9841
 0.9980	84.8883
 0.9970	84.8920
 0.9960	84.9665
 0.9950	85.0352
 0.9940	85.0904
 0.9930	85.0359
 0.9920	85.0294
 0.9910	85.1017
 0.9900	85.2045
 0.9890	85.2166
 0.9880	85.2521
 0.9870	85.3180
 0.9860	85.3894
 0.9850	85.5070
 0.9840	85.5112
 0.9830	85.5576
 0.9820	85.6199
 0.9810	85.7132
 0.9800	85.8670
 0.9790	85.9146
 0.9780	85.9905
 0.9770	86.0389
 0.9760	86.0765
 0.9750	86.1177
 0.9740	86.1864
 0.9730	86.2850
 0.9720	86.3741
 0.9710	86.3944
 0.9700	86.5388
 0.9690	86.6194
 0.9680	86.6937
 0.9670	86.8294
 0.9660	86.8483
 0.9650	86.8869
 0.9640	86.9879
 0.9630	87.1425
 0.9620	87.1424
 0.9610	87.1409
 0.9600	87.2009
 0.9590	87.2170
 0.9580	87.2357
 0.9570	87.3166
 0.9560	87.3574
 0.9550	87.4220
 0.9540	87.4395
 0.9530	87.4806
 0.9520	87.5413
 0.9510	87.5712
 0.9500	87.6200
 0.9490	87.6404
 0.9480	87.6717
 0.9470	87.6947
 0.9460	87.7521
 0.9450	87.7209
 0.9440	87.7890
 0.9430	87.8448
 0.9420	87.8570
 0.9410	87.9020
 0.9400	87.8656
 0.9390	87.9001
 0.9380	87.9228
 0.9370	87.9569
 0.9360	88.0205
 0.9350	88.0059
 0.9340	88.0573
 0.9330	88.0959
 0.9320	88.0662
 0.9310	88.0672
 0.9300	88.0974
 0.9290	88.1401
 0.9280	88.2002
 0.9270	88.1952
 0.9260	88.1440
 0.9250	88.1622
 0.9240	88.2260
 0.9230	88.2779
 0.9220	88.2660
 0.9210	88.2740
 0.9200	88.3208
 0.9190	88.3341
 0.9180	88.2957
 0.9170	88.3331
 0.9160	88.3689
 0.9150	88.3786
 0.9140	88.3756
 0.9130	88.3466
 0.9120	88.4521
 0.9110	88.5127
 0.9100	88.4699
 0.9090	88.4443
 0.9080	88.4495
 0.9070	88.4307
 0.9060	88.4278
 0.9050	88.4104
 0.9040	88.5004
 0.9030	88.6284
 0.9020	88.5928
 0.9010	88.5297
 0.9000	88.5342
 0.8990	88.5230
 0.8980	88.5898
 0.8970	88.5987
 0.8960	88.6175
 0.8950	88.6529
 0.8940	88.6069
 0.8930	88.6036
 0.8920	88.6275
 0.8910	88.6572
 0.8900	88.6553
 0.8890	88.6722
 0.8880	88.7424
 0.8870	88.7535
 0.8860	88.8201
 0.8850	88.7623
 0.8840	88.7856
 0.8830	88.9054
 0.8820	88.8398
 0.8810	88.8320
 0.8800	88.7340
 0.8790	88.8557
 0.8780	88.9144
 0.8770	88.9287
 0.8760	88.8726
 0.8750	88.8722
 0.8740	88.9289
 0.8730	88.9303
 0.8720	88.9037
 0.8710	88.9298
 0.8700	88.9558
 0.8690	88.9412
 0.8680	88.9417
 0.8670	88.9654
 0.8660	89.0370
 0.8650	89.0234
 0.8640	89.0367
 0.8630	88.9618
 0.8620	89.0964
 0.8610	89.0530
 0.8600	89.2146
 0.8590	89.2657
 0.8580	89.3218
 0.8570	89.3472
 0.8560	89.3292
 0.8550	89.3742
 0.8540	89.3691
 0.8530	89.2512
 0.8520	89.2886
 0.8510	89.3910
 0.8500	89.3542
 0.8490	89.3827
 0.8480	89.3758
 0.8470	89.4145
 0.8460	89.4103
 0.8450	89.3498
 0.8440	89.4269
 0.8430	89.3980
 0.8420	89.4274
 0.8410	89.4576
 0.8400	89.4568
 0.8390	89.5060
 0.8380	89.5474
 0.8370	89.5135
 0.8360	89.4561
 0.8350	89.5335
 0.8340	89.4966
 0.8330	89.5500
 0.8320	89.5079
 0.8310	89.5551
 0.8300	89.5315
 0.8290	89.5550
 0.8280	89.5726
 0.8270	89.5802
 0.8260	89.5688
 0.8250	89.5387
 0.8240	89.5904
 0.8230	89.6213
 0.8220	89.5662
 0.8210	89.5462
 0.8200	89.5876
 0.8190	89.6113
 0.8180	89.5770
 0.8170	89.5494
 0.8160	89.6321
 0.8150	89.6501
 0.8140	89.5703
 0.8130	89.6398
 0.8120	89.5821
 0.8110	89.5644
 0.8100	89.6161
 0.8090	89.6294
 0.8080	89.6648
 0.8070	89.6417
 0.8060	89.6302
 0.8050	89.6343
 0.8040	89.6288
 0.8030	89.7242
 0.8020	89.6352
 0.8010	89.6813
 0.8000	89.6692
 0.7990	89.6291
 0.7980	89.6271
 0.7970	89.5971
 0.7960	89.5712
 0.7950	89.5351
 0.7940	89.5266
 0.7930	89.5623
 0.7920	89.5657
 0.7910	89.5946
 0.7900	89.6019
 0.7890	89.6155
 0.7880	89.5800
 0.7870	89.5699
 0.7860	89.5665
 0.7850	89.6127
 0.7840	89.6090
 0.7830	89.6189
 0.7820	89.5942
 0.7810	89.5761
 0.7800	89.6242
 0.7790	89.5707
 0.7780	89.6250
 0.7770	89.5819
 0.7760	89.5950
 0.7750	89.5346
 0.7740	89.5589
 0.7730	89.6263
 0.7720	89.5881
 0.7710	89.6007
 0.7700	89.5639
 0.7690	89.5650
 0.7680	89.5603
 0.7670	89.5551
 0.7660	89.5956
 0.7650	89.6090
 0.7640	89.6324
 0.7630	89.6262
 0.7620	89.6326
 0.7610	89.6424
 0.7600	89.6235
 0.7590	89.6481
 0.7580	89.6694
 0.7570	89.6263
 0.7560	89.6950
 0.7550	89.6793
 0.7540	89.6917
 0.7530	89.6884
 0.7520	89.7014
 0.7510	89.7105
 0.7500	89.7229
 0.7490	89.6972
 0.7480	89.7075
 0.7470	89.7386
 0.7460	89.7340
 0.7450	89.7981
 0.7440	89.7871
 0.7430	89.7995
 0.7420	89.7831
 0.7410	89.7941
 0.7400	89.7576
 0.7390	89.7674
 0.7380	89.7756
 0.7370	89.8003
 0.7360	89.8142
 0.7350	89.7986
 0.7340	89.8241
 0.7330	89.8254
 0.7320	89.8301
 0.7310	89.8271
 0.7300	89.8570
 0.7290	89.8385
 0.7280	89.8359
 0.7270	89.8345
 0.7260	89.8591
 0.7250	89.8779
 0.7240	89.8649
 0.7230	89.8463
 0.7220	89.8623
 0.7210	89.8671
 0.7200	89.8736
 0.7190	89.8896
 0.7180	89.8822
 0.7170	89.8557
 0.7160	89.8701
 0.7150	89.8779
 0.7140	89.8834
 0.7130	89.8919
 0.7120	89.9128
 0.7110	89.8875
 0.7100	89.8906
 0.7090	89.8762
 0.7080	89.8600
 0.7070	89.8950
 0.7060	89.8869
 0.7050	89.9063
 0.7040	89.9124
 0.7030	89.9059
 0.7020	89.8895
 0.7010	89.9165
 0.7000	89.9124
 0.6990	89.9064
 0.6980	89.9098
 0.6970	89.9210
 0.6960	89.9149
 0.6950	89.8997
 0.6940	89.8954
 0.6930	89.8927
 0.6920	89.9112
 0.6910	89.8928
 0.6900	89.9081
 0.6890	89.9137
 0.6880	89.9196
 0.6870	89.9245
 0.6860	89.8948
 0.6850	89.9010
 0.6840	89.9106
 0.6830	89.9194
 0.6820	89.8930
 0.6810	89.8746
 0.6800	89.8921
 0.6790	89.9160
 0.6780	89.9154
 0.6770	89.8800
 0.6760	89.8766
 0.6750	89.8986
 0.6740	89.8861
 0.6730	89.8912
 0.6720	89.8843
 0.6710	89.8892
 0.6700	89.9162
 0.6690	89.8917
 0.6680	89.8884
 0.6670	89.8964
 0.6660	89.8827
 0.6650	89.8749
 0.6640	89.8717
 0.6630	89.8632
 0.6620	89.8715
 0.6610	89.8747
 0.6600	89.8684
 0.6590	89.8569
 0.6580	89.8591
 0.6570	89.8603
 0.6560	89.8710
 0.6550	89.8794
 0.6540	89.8601
 0.6530	89.8564
 0.6520	89.8691
 0.6510	89.8723
 0.6500	89.8685
 0.6490	89.8547
 0.6480	89.8553
 0.6470	89.8560
 0.6460	89.8527
 0.6450	89.8390
 0.6440	89.8312
 0.6430	89.8343
 0.6420	89.8453
 0.6410	89.8473
 0.6400	89.8450
 0.6390	89.8446
 0.6380	89.8335
 0.6370	89.8287
 0.6360	89.8214
 0.6350	89.8095
 0.6340	89.8071
 0.6330	89.8083
 0.6320	89.7954
 0.6310	89.7858
 0.6300	89.7958
 0.6290	89.7854
 0.6280	89.8062
 0.6270	89.8460
 0.6260	89.8449
 0.6250	89.8543
 0.6240	89.8586
 0.6230	89.8530
 0.6220	89.8487
 0.6210	89.8302
 0.6200	89.8266
 0.6190	89.8281
 0.6180	89.8075
 0.6170	89.7966
 0.6160	89.7995
 0.6150	89.8032
 0.6140	89.8020
 0.6130	89.8030
 0.6120	89.8002
 0.6110	89.7946
 0.6100	89.7869
 0.6090	89.7730
 0.6080	89.7668
 0.6070	89.7732
 0.6060	89.7710
 0.6050	89.7600
 0.6040	89.7414
 0.6030	89.7433
 0.6020	89.7349
 0.6010	89.7224
 0.6000	89.7222
 0.5990	89.7390
 0.5980	89.7661
 0.5970	89.7779
 0.5960	89.7924
 0.5950	89.8031
 0.5940	89.7929
 0.5930	89.7799
 0.5920	89.7686
 0.5910	89.7763
 0.5900	89.7675
 0.5890	89.7623
 0.5880	89.7508
 0.5870	89.7484
 0.5860	89.7472
 0.5850	89.7373
 0.5840	89.7488
 0.5830	89.7373
 0.5820	89.7228
 0.5810	89.7242
 0.5800	89.7108
 0.5790	89.7103
 0.5780	89.7055
 0.5770	89.6929
 0.5760	89.6793
 0.5750	89.6858
 0.5740	89.6832
 0.5730	89.6634
 0.5720	89.6658
 0.5710	89.6710
 0.5700	89.6609
 0.5690	89.6520
 0.5680	89.6415
 0.5670	89.6366
 0.5660	89.6366
 0.5650	89.6138
 0.5640	89.6105
 0.5630	89.6111
 0.5620	89.6075
 0.5610	89.5986
 0.5600	89.5983
 0.5590	89.5868
 0.5580	89.5761
 0.5570	89.5847
 0.5560	89.5781
 0.5550	89.5613
 0.5540	89.5531
 0.5530	89.5385
 0.5520	89.5344
 0.5510	89.5197
 0.5500	89.5312
 0.5490	89.5169
 0.5480	89.5085
 0.5470	89.5100
 0.5460	89.5087
 0.5450	89.5151
 0.5440	89.5190
 0.5430	89.5075
 0.5420	89.4996
 0.5410	89.4939
 0.5400	89.4842
 0.5390	89.4809
 0.5380	89.4597
 0.5370	89.4565
 0.5360	89.4529
 0.5350	89.4507
 0.5340	89.4415
 0.5330	89.4446
 0.5320	89.4344
 0.5310	89.4268
 0.5300	89.4244
 0.5290	89.4134
 0.5280	89.4009
 0.5270	89.3873
 0.5260	89.3997
 0.5250	89.3911
 0.5240	89.3526
 0.5230	89.3442
 0.5220	89.3453
 0.5210	89.3559
 0.5200	89.3466
 0.5190	89.3344
 0.5180	89.3406
 0.5170	89.3153
 0.5160	89.3204
 0.5150	89.3021
 0.5140	89.3063
 0.5130	89.2879
 0.5120	89.2683
 0.5110	89.2449
 0.5100	89.2650
 0.5090	89.2463
 0.5080	89.2737
 0.5070	89.2266
 0.5060	89.2289
 0.5050	89.2165
 0.5040	89.2202
 0.5030	89.1949
 0.5020	89.2067
 0.5010	89.1880
 0.5000	89.1757
 0.4990	89.1591
 0.4980	89.1691
 0.4970	89.1139
 0.4960	89.1087
 0.4950	89.0947
 0.4940	89.0733
 0.4930	89.0792
 0.4920	89.0556
 0.4910	89.0467
 0.4900	89.0362
 0.4890	89.0103
 0.4880	88.9892
 0.4870	89.0003
 0.4860	89.0194
 0.4850	88.9796
 0.4840	88.9539
 0.4830	88.9517
 0.4820	88.9314
 0.4810	88.9170
 0.4800	88.8833
 0.4790	88.8615
 0.4780	88.8660
 0.4770	88.8458
 0.4760	88.8086
 0.4750	88.7982
 0.4740	88.7933
 0.4730	88.7674
 0.4720	88.7749
 0.4710	88.7320
 0.4700	88.7345
 0.4690	88.6769
 0.4680	88.6685
 0.4670	88.6390
 0.4660	88.6101
 0.4650	88.5787
 0.4640	88.5708
 0.4630	88.5502
 0.4620	88.5219
 0.4610	88.5044
 0.4600	88.5002
 0.4590	88.4626
 0.4580	88.4295
 0.4570	88.4215
 0.4560	88.3765
 0.4550	88.3286
 0.4540	88.3361
 0.4530	88.2965
 0.4520	88.2536
 0.4510	88.2405
 0.4500	88.1999
 0.4490	88.1823
 0.4480	88.1513
 0.4470	88.1069
 0.4460	88.0944
 0.4450	88.0419
 0.4440	88.0037
 0.4430	87.9910
 0.4420	87.9364
 0.4410	87.9327
 0.4400	87.8633
 0.4390	87.8360
 0.4380	87.7653
 0.4370	87.7353
 0.4360	87.6822
 0.4350	87.6627
 0.4340	87.5913
 0.4330	87.5531
 0.4320	87.5235
 0.4310	87.4998
 0.4300	87.4858
 0.4290	87.4664
 0.4280	87.4335
 0.4270	87.4470
 0.4260	87.4265
 0.4250	87.4015
 0.4240	87.3777
 0.4230	87.3447
 0.4220	87.3020
 0.4210	87.2597
 0.4200	87.2217
 0.4190	87.1598
 0.4180	87.0923
 0.4170	87.0311
 0.4160	86.9703
 0.4150	86.9032
 0.4140	86.8377
 0.4130	86.7704
 0.4120	86.6910
 0.4110	86.6132
 0.4100	86.5347
 0.4090	86.4739
 0.4080	86.3712
 0.4070	86.2997
 0.4060	86.2303
 0.4050	86.1281
 0.4040	86.0641
 0.4030	85.9889
 0.4020	85.8863
 0.4010	85.8034
 0.4000	85.7282
