Name: Dolomite CaMg(CO_3)_2
Type: Mineral
Class: Carbonate
Subclass: None
Particle Size: Coarse
Sample No.: C-5A
Owner: JPL
Wavelength Range: VSWIR
Origin: USA, Colorado.
Collection Date: N/A
Description: Red banded dolomite.Particle size was 125-500um.Collected by:  Ward's Original ASTER Spectral Library name was jpl.perkin.mineral.carbonate.none.coarse.c05a.spectrum.txt
Measurement: Hemispherical reflectance
First Column: X
Second Column: Y
X Units: Wavelength (micrometers)
Y Units:Reflectance (percent)
First X Value:  2.5000
Last X Value:  0.4000
Number of X Values: 2101
Additional Information: mineral.carbonate.none.coarse.vswir.c-5a.jpl.perkin.ancillary.txt

 2.5000	32.8336
 2.4990	32.6349
 2.4980	33.1425
 2.4970	33.3015
 2.4960	33.1707
 2.4950	33.7108
 2.4940	33.8609
 2.4930	33.9491
 2.4920	34.2270
 2.4910	34.4881
 2.4900	34.9052
 2.4890	34.9268
 2.4880	35.2005
 2.4870	35.3470
 2.4860	35.7480
 2.4850	35.8235
 2.4840	36.1800
 2.4830	36.3186
 2.4820	36.6729
 2.4810	36.7030
 2.4800	37.1745
 2.4790	37.2932
 2.4780	37.4755
 2.4770	37.5584
 2.4760	37.8817
 2.4750	37.9240
 2.4740	38.1909
 2.4730	38.1402
 2.4720	38.3969
 2.4710	38.4572
 2.4700	38.5932
 2.4690	38.6888
 2.4680	38.8741
 2.4670	38.8477
 2.4660	39.0614
 2.4650	39.0659
 2.4640	39.3094
 2.4630	39.1921
 2.4620	39.4831
 2.4610	39.4276
 2.4600	39.7178
 2.4590	39.8264
 2.4580	39.9014
 2.4570	40.0859
 2.4560	40.3267
 2.4550	40.3966
 2.4540	40.6794
 2.4530	40.7983
 2.4520	41.0142
 2.4510	41.1872
 2.4500	41.5277
 2.4490	41.7482
 2.4480	41.9642
 2.4470	42.2342
 2.4460	42.5309
 2.4450	42.8125
 2.4440	43.1291
 2.4430	43.3431
 2.4420	43.7237
 2.4410	44.0091
 2.4400	44.3796
 2.4390	44.5939
 2.4380	44.9070
 2.4370	45.2485
 2.4360	45.4774
 2.4350	45.8055
 2.4340	46.1969
 2.4330	46.4589
 2.4320	46.7672
 2.4310	46.9605
 2.4300	47.3927
 2.4290	47.6206
 2.4280	47.8001
 2.4270	48.1216
 2.4260	48.4655
 2.4250	48.6935
 2.4240	48.9628
 2.4230	49.1640
 2.4220	49.4534
 2.4210	49.7170
 2.4200	49.9894
 2.4190	50.2296
 2.4180	50.4662
 2.4170	50.6865
 2.4160	50.9039
 2.4150	51.0844
 2.4140	51.2844
 2.4130	51.3632
 2.4120	51.5485
 2.4110	51.7286
 2.4100	51.9496
 2.4090	52.0475
 2.4080	52.2498
 2.4070	52.2890
 2.4060	52.5009
 2.4050	52.5929
 2.4040	52.6863
 2.4030	52.7977
 2.4020	52.9714
 2.4010	53.0424
 2.4000	53.1055
 2.3990	53.2074
 2.3980	53.3769
 2.3970	53.4213
 2.3960	53.5341
 2.3950	53.6371
 2.3940	53.7614
 2.3930	53.8859
 2.3920	53.9201
 2.3910	53.9973
 2.3900	54.1145
 2.3890	54.1791
 2.3880	54.2679
 2.3870	54.3860
 2.3860	54.5275
 2.3850	54.5705
 2.3840	54.6374
 2.3830	54.7505
 2.3820	54.8246
 2.3810	54.9549
 2.3800	55.0485
 2.3790	55.1117
 2.3780	55.2388
 2.3770	55.2791
 2.3760	55.3133
 2.3750	55.4648
 2.3740	55.5799
 2.3730	55.5744
 2.3720	55.6772
 2.3710	55.7453
 2.3700	55.7749
 2.3690	55.7850
 2.3680	55.8235
 2.3670	55.8565
 2.3660	55.8647
 2.3650	55.8729
 2.3640	55.8779
 2.3630	55.8218
 2.3620	55.8070
 2.3610	55.7689
 2.3600	55.6766
 2.3590	55.5073
 2.3580	55.3978
 2.3570	55.2941
 2.3560	55.1153
 2.3550	54.9196
 2.3540	54.7137
 2.3530	54.5168
 2.3520	54.2402
 2.3510	53.9849
 2.3500	53.6668
 2.3490	53.3808
 2.3480	53.0250
 2.3470	52.5911
 2.3460	52.2067
 2.3450	51.7884
 2.3440	51.3483
 2.3430	50.8863
 2.3420	50.3856
 2.3410	49.9110
 2.3400	49.4349
 2.3390	49.0097
 2.3380	48.4837
 2.3370	47.9975
 2.3360	47.5541
 2.3350	47.0669
 2.3340	46.6315
 2.3330	46.2160
 2.3320	45.8034
 2.3310	45.4729
 2.3300	45.0697
 2.3290	44.7333
 2.3280	44.4465
 2.3270	44.1830
 2.3260	43.8858
 2.3250	43.6659
 2.3240	43.4609
 2.3230	43.3265
 2.3220	43.1919
 2.3210	43.1022
 2.3200	43.0242
 2.3190	42.9680
 2.3180	42.9781
 2.3170	42.9673
 2.3160	42.9590
 2.3150	42.9746
 2.3140	43.0134
 2.3130	43.1186
 2.3120	43.2063
 2.3110	43.3291
 2.3100	43.4158
 2.3090	43.5659
 2.3080	43.6733
 2.3070	43.8067
 2.3060	43.9001
 2.3050	44.0831
 2.3040	44.2370
 2.3030	44.3853
 2.3020	44.5280
 2.3010	44.7101
 2.3000	44.8075
 2.2990	44.9533
 2.2980	45.0714
 2.2970	45.2392
 2.2960	45.3930
 2.2950	45.5831
 2.2940	45.7345
 2.2930	45.8926
 2.2920	46.0263
 2.2910	46.1538
 2.2900	46.2831
 2.2890	46.4672
 2.2880	46.5660
 2.2870	46.7616
 2.2860	46.7841
 2.2850	46.9648
 2.2840	47.0573
 2.2830	47.1656
 2.2820	47.3076
 2.2810	47.3990
 2.2800	47.4382
 2.2790	47.6032
 2.2780	47.6252
 2.2770	47.7126
 2.2760	47.7759
 2.2750	47.9172
 2.2740	47.9741
 2.2730	48.0793
 2.2720	48.1402
 2.2710	48.2934
 2.2700	48.2977
 2.2690	48.4875
 2.2680	48.5862
 2.2670	48.7338
 2.2660	48.7852
 2.2650	49.0365
 2.2640	49.1038
 2.2630	49.3264
 2.2620	49.4521
 2.2610	49.7018
 2.2600	49.8464
 2.2590	50.0396
 2.2580	50.2437
 2.2570	50.5843
 2.2560	50.7352
 2.2550	50.9496
 2.2540	51.2085
 2.2530	51.4078
 2.2520	51.6131
 2.2510	51.8188
 2.2500	52.0784
 2.2490	52.2967
 2.2480	52.5361
 2.2470	52.7202
 2.2460	52.8621
 2.2450	53.0814
 2.2440	53.2548
 2.2430	53.4901
 2.2420	53.5800
 2.2410	53.8030
 2.2400	53.9705
 2.2390	54.1512
 2.2380	54.2452
 2.2370	54.4321
 2.2360	54.5279
 2.2350	54.6582
 2.2340	54.6885
 2.2330	54.9248
 2.2320	54.9730
 2.2310	55.1303
 2.2300	55.1994
 2.2290	55.3264
 2.2280	55.3795
 2.2270	55.4685
 2.2260	55.5097
 2.2250	55.6540
 2.2240	55.5412
 2.2230	55.7310
 2.2220	55.7843
 2.2210	55.8826
 2.2200	55.9354
 2.2190	55.8943
 2.2180	56.0141
 2.2170	56.0397
 2.2160	56.0914
 2.2150	56.2319
 2.2140	56.1603
 2.2130	56.2917
 2.2120	56.2852
 2.2110	56.2957
 2.2100	56.4185
 2.2090	56.4589
 2.2080	56.5735
 2.2070	56.6097
 2.2060	56.6705
 2.2050	56.8485
 2.2040	56.8718
 2.2030	57.0416
 2.2020	57.0689
 2.2010	57.2908
 2.2000	57.3423
 2.1990	57.3498
 2.1980	57.4710
 2.1970	57.5743
 2.1960	57.6144
 2.1950	57.7664
 2.1940	57.7701
 2.1930	57.9403
 2.1920	57.9880
 2.1910	58.0845
 2.1900	58.1269
 2.1890	58.2344
 2.1880	58.2417
 2.1870	58.3470
 2.1860	58.3428
 2.1850	58.4400
 2.1840	58.4728
 2.1830	58.6222
 2.1820	58.6473
 2.1810	58.7252
 2.1800	58.7720
 2.1790	58.7832
 2.1780	58.7612
 2.1770	58.8938
 2.1760	58.8600
 2.1750	58.9265
 2.1740	58.9135
 2.1730	58.9596
 2.1720	59.0182
 2.1710	59.0184
 2.1700	58.9971
 2.1690	59.0982
 2.1680	59.0884
 2.1670	59.1631
 2.1660	59.1262
 2.1650	59.1867
 2.1640	59.1587
 2.1630	59.1438
 2.1620	59.1324
 2.1610	59.1934
 2.1600	59.1976
 2.1590	59.2078
 2.1580	59.2246
 2.1570	59.2367
 2.1560	59.2283
 2.1550	59.1672
 2.1540	59.1263
 2.1530	59.1878
 2.1520	59.0900
 2.1510	59.1308
 2.1500	59.1002
 2.1490	59.1870
 2.1480	59.0381
 2.1470	59.0600
 2.1460	59.0297
 2.1450	59.0328
 2.1440	59.0757
 2.1430	58.9905
 2.1420	58.9575
 2.1410	58.9845
 2.1400	58.9858
 2.1390	58.9787
 2.1380	58.9226
 2.1370	58.9873
 2.1360	58.9882
 2.1350	58.9961
 2.1340	58.9228
 2.1330	58.9538
 2.1320	58.9254
 2.1310	58.9183
 2.1300	58.9681
 2.1290	59.0334
 2.1280	58.9916
 2.1270	58.9873
 2.1260	58.9217
 2.1250	58.9404
 2.1240	58.9856
 2.1230	59.0409
 2.1220	58.9827
 2.1210	58.9915
 2.1200	58.9655
 2.1190	58.9870
 2.1180	58.9948
 2.1170	59.0072
 2.1160	58.9373
 2.1150	58.9384
 2.1140	58.9273
 2.1130	58.9591
 2.1120	58.9122
 2.1110	58.8934
 2.1100	58.8985
 2.1090	58.8793
 2.1080	58.8484
 2.1070	58.8551
 2.1060	58.8299
 2.1050	58.8224
 2.1040	58.7813
 2.1030	58.7426
 2.1020	58.7576
 2.1010	58.7744
 2.1000	58.7147
 2.0990	58.7200
 2.0980	58.7170
 2.0970	58.7434
 2.0960	58.7600
 2.0950	58.7718
 2.0940	58.7022
 2.0930	58.7395
 2.0920	58.7546
 2.0910	58.7413
 2.0900	58.7329
 2.0890	58.7567
 2.0880	58.7407
 2.0870	58.8197
 2.0860	58.8566
 2.0850	58.8068
 2.0840	58.7943
 2.0830	58.8392
 2.0820	58.8391
 2.0810	58.8641
 2.0800	58.8512
 2.0790	58.8225
 2.0780	58.8313
 2.0770	58.8117
 2.0760	58.7753
 2.0750	58.7834
 2.0740	58.8053
 2.0730	58.8568
 2.0720	58.9026
 2.0710	58.8773
 2.0700	58.8286
 2.0690	58.7904
 2.0680	58.8256
 2.0670	58.8478
 2.0660	58.8363
 2.0650	58.8404
 2.0640	58.8557
 2.0630	58.7911
 2.0620	58.7935
 2.0610	58.8341
 2.0600	58.8654
 2.0590	58.8440
 2.0580	58.8002
 2.0570	58.8165
 2.0560	58.7965
 2.0550	58.7690
 2.0540	58.7401
 2.0530	58.7045
 2.0520	58.7207
 2.0510	58.6633
 2.0500	58.6760
 2.0490	58.7006
 2.0480	58.6784
 2.0470	58.6465
 2.0460	58.6553
 2.0450	58.6335
 2.0440	58.6049
 2.0430	58.5774
 2.0420	58.5597
 2.0410	58.5291
 2.0400	58.5268
 2.0390	58.5098
 2.0380	58.5127
 2.0370	58.5106
 2.0360	58.4670
 2.0350	58.4585
 2.0340	58.4285
 2.0330	58.3494
 2.0320	58.2969
 2.0310	58.3064
 2.0300	58.3101
 2.0290	58.2707
 2.0280	58.1976
 2.0270	58.1456
 2.0260	58.1512
 2.0250	58.1027
 2.0240	58.0798
 2.0230	57.9614
 2.0220	57.9675
 2.0210	57.9398
 2.0200	57.8907
 2.0190	57.8201
 2.0180	57.7957
 2.0170	57.7391
 2.0160	57.7521
 2.0150	57.7119
 2.0140	57.5765
 2.0130	57.5032
 2.0120	57.5243
 2.0110	57.4453
 2.0100	57.4002
 2.0090	57.3229
 2.0080	57.2575
 2.0070	57.1279
 2.0060	57.1331
 2.0050	57.0144
 2.0040	56.9651
 2.0030	56.9146
 2.0020	56.8672
 2.0010	56.7952
 2.0000	56.6972
 1.9990	56.6182
 1.9980	56.5210
 1.9970	56.3885
 1.9960	56.3284
 1.9950	56.1771
 1.9940	56.1756
 1.9930	56.0786
 1.9920	55.9381
 1.9910	55.8368
 1.9900	55.7188
 1.9890	55.5292
 1.9880	55.4931
 1.9870	55.3569
 1.9860	55.3397
 1.9850	55.2424
 1.9840	55.1410
 1.9830	55.0934
 1.9820	55.0549
 1.9810	54.9669
 1.9800	54.9004
 1.9790	54.7890
 1.9780	54.8086
 1.9770	54.7658
 1.9760	54.7698
 1.9750	54.6678
 1.9740	54.6879
 1.9730	54.6078
 1.9720	54.6131
 1.9710	54.6328
 1.9700	54.6028
 1.9690	54.5871
 1.9680	54.5292
 1.9670	54.5039
 1.9660	54.4572
 1.9650	54.4302
 1.9640	54.4805
 1.9630	54.4207
 1.9620	54.4446
 1.9610	54.2820
 1.9600	54.4503
 1.9590	54.3580
 1.9580	54.4621
 1.9570	54.3480
 1.9560	54.3469
 1.9550	54.2567
 1.9540	54.3128
 1.9530	54.2429
 1.9520	54.3341
 1.9510	54.1144
 1.9500	54.2017
 1.9490	54.1460
 1.9480	54.1698
 1.9470	53.9866
 1.9460	54.1474
 1.9450	54.0741
 1.9440	54.0632
 1.9430	54.0339
 1.9420	54.0266
 1.9410	53.9871
 1.9400	54.0235
 1.9390	53.9814
 1.9380	54.0304
 1.9370	54.0029
 1.9360	54.0031
 1.9350	53.9874
 1.9340	53.9956
 1.9330	54.0057
 1.9320	54.0537
 1.9310	53.9904
 1.9300	54.0804
 1.9290	54.0559
 1.9280	54.1384
 1.9270	54.1110
 1.9260	54.0957
 1.9250	54.1677
 1.9240	54.2343
 1.9230	54.1514
 1.9220	54.2445
 1.9210	54.2134
 1.9200	54.2992
 1.9190	54.4470
 1.9180	54.4438
 1.9170	54.4851
 1.9160	54.4801
 1.9150	54.5942
 1.9140	54.7451
 1.9130	54.7146
 1.9120	54.7640
 1.9110	54.9019
 1.9100	54.9681
 1.9090	55.0187
 1.9080	55.2590
 1.9070	55.2364
 1.9060	55.3962
 1.9050	55.4575
 1.9040	55.5890
 1.9030	55.7988
 1.9020	55.9705
 1.9010	56.1275
 1.9000	56.2782
 1.8990	56.5217
 1.8980	56.6175
 1.8970	56.7425
 1.8960	56.9958
 1.8950	57.0879
 1.8940	57.2528
 1.8930	57.3393
 1.8920	57.5426
 1.8910	57.6991
 1.8900	57.8154
 1.8890	57.9122
 1.8880	58.0769
 1.8870	58.1696
 1.8860	58.2459
 1.8850	58.3864
 1.8840	58.4436
 1.8830	58.4892
 1.8820	58.5781
 1.8810	58.6391
 1.8800	58.7199
 1.8790	58.7307
 1.8780	58.8092
 1.8770	58.8104
 1.8760	58.8611
 1.8750	58.7913
 1.8740	58.8149
 1.8730	58.7947
 1.8720	58.7490
 1.8710	58.6911
 1.8700	58.6077
 1.8690	58.5469
 1.8680	58.5399
 1.8670	58.4526
 1.8660	58.4698
 1.8650	58.4609
 1.8640	58.4388
 1.8630	58.4681
 1.8620	58.4306
 1.8610	58.3924
 1.8600	58.4470
 1.8590	58.4171
 1.8580	58.5258
 1.8570	58.4825
 1.8560	58.5180
 1.8550	58.5702
 1.8540	58.6319
 1.8530	58.6766
 1.8520	58.7014
 1.8510	58.6917
 1.8500	58.7437
 1.8490	58.7865
 1.8480	58.8438
 1.8470	58.8267
 1.8460	58.8918
 1.8450	58.9134
 1.8440	58.9781
 1.8430	59.0100
 1.8420	59.0123
 1.8410	58.9977
 1.8400	59.0206
 1.8390	59.0764
 1.8380	59.1143
 1.8370	59.0869
 1.8360	59.1185
 1.8350	59.1259
 1.8340	59.1649
 1.8330	59.1799
 1.8320	59.1607
 1.8310	59.1870
 1.8300	59.2313
 1.8290	59.2172
 1.8280	59.1866
 1.8270	59.1819
 1.8260	59.2214
 1.8250	59.2266
 1.8240	59.2193
 1.8230	59.1988
 1.8220	59.1865
 1.8210	59.2285
 1.8200	59.2655
 1.8190	59.2452
 1.8180	59.2450
 1.8170	59.2761
 1.8160	59.3170
 1.8150	59.3080
 1.8140	59.3428
 1.8130	59.3304
 1.8120	59.3469
 1.8110	59.3569
 1.8100	59.3867
 1.8090	59.3481
 1.8080	59.3649
 1.8070	59.4088
 1.8060	59.4051
 1.8050	59.4191
 1.8040	59.4501
 1.8030	59.4402
 1.8020	59.4229
 1.8010	59.4088
 1.8000	59.4435
 1.7990	59.4323
 1.7980	59.4133
 1.7970	59.4048
 1.7960	59.4419
 1.7950	59.4373
 1.7940	59.4116
 1.7930	59.1338
 1.7920	59.1318
 1.7910	59.4505
 1.7900	59.4289
 1.7890	59.3700
 1.7880	59.3885
 1.7870	59.4259
 1.7860	59.4054
 1.7850	59.4364
 1.7840	59.4448
 1.7830	59.3793
 1.7820	59.3639
 1.7810	59.3982
 1.7800	59.3779
 1.7790	59.3486
 1.7780	59.3685
 1.7770	59.3809
 1.7760	59.3446
 1.7750	59.3686
 1.7740	59.3489
 1.7730	59.3349
 1.7720	59.3385
 1.7710	59.3373
 1.7700	59.3407
 1.7690	59.3763
 1.7680	59.3550
 1.7670	59.3343
 1.7660	59.3452
 1.7650	59.3098
 1.7640	59.3024
 1.7630	59.2890
 1.7620	59.2683
 1.7610	59.2844
 1.7600	59.2869
 1.7590	59.2656
 1.7580	59.2763
 1.7570	59.2898
 1.7560	59.2227
 1.7550	59.2708
 1.7540	59.2777
 1.7530	59.1988
 1.7520	59.1642
 1.7510	59.1769
 1.7500	59.2340
 1.7490	59.2510
 1.7480	59.1921
 1.7470	59.1301
 1.7460	59.1452
 1.7450	59.1929
 1.7440	59.1440
 1.7430	59.1879
 1.7420	59.1892
 1.7410	59.1934
 1.7400	59.1664
 1.7390	59.1719
 1.7380	59.1463
 1.7370	59.1477
 1.7360	59.1138
 1.7350	59.1093
 1.7340	59.1020
 1.7330	59.1530
 1.7320	59.1510
 1.7310	59.1327
 1.7300	59.0429
 1.7290	59.1085
 1.7280	59.1270
 1.7270	59.1531
 1.7260	59.1156
 1.7250	59.1482
 1.7240	59.1461
 1.7230	59.1429
 1.7220	59.0734
 1.7210	59.0778
 1.7200	59.1014
 1.7190	59.1053
 1.7180	59.0500
 1.7170	59.0804
 1.7160	59.0569
 1.7150	59.0994
 1.7140	59.0509
 1.7130	59.0557
 1.7120	59.0651
 1.7110	59.0600
 1.7100	59.0226
 1.7090	59.0862
 1.7080	59.0181
 1.7070	59.0579
 1.7060	59.0518
 1.7050	59.0781
 1.7040	59.0485
 1.7030	59.0579
 1.7020	58.9744
 1.7010	59.0505
 1.7000	59.0144
 1.6990	59.0701
 1.6980	58.9797
 1.6970	59.0710
 1.6960	59.0613
 1.6950	59.0550
 1.6940	59.0077
 1.6930	58.9996
 1.6920	58.9501
 1.6910	59.0291
 1.6900	58.9920
 1.6890	59.0554
 1.6880	58.9636
 1.6870	59.0808
 1.6860	59.0285
 1.6850	59.0795
 1.6840	59.0618
 1.6830	59.0476
 1.6820	58.9722
 1.6810	58.9489
 1.6800	58.9883
 1.6790	59.0465
 1.6780	58.9976
 1.6770	58.9711
 1.6760	58.9476
 1.6750	59.0473
 1.6740	58.9773
 1.6730	58.9736
 1.6720	59.0011
 1.6710	58.9890
 1.6700	58.9912
 1.6690	59.0101
 1.6680	58.8920
 1.6670	58.9920
 1.6660	58.9477
 1.6650	58.9758
 1.6640	58.9356
 1.6630	58.9190
 1.6620	58.9254
 1.6610	58.9791
 1.6600	58.9480
 1.6590	58.9488
 1.6580	58.9313
 1.6570	58.9766
 1.6560	58.9611
 1.6550	58.9709
 1.6540	58.8470
 1.6530	58.9424
 1.6520	58.8172
 1.6510	58.9193
 1.6500	58.9433
 1.6490	58.9416
 1.6480	58.8762
 1.6470	58.8824
 1.6460	58.8073
 1.6450	58.8407
 1.6440	58.8763
 1.6430	58.8322
 1.6420	58.8619
 1.6410	58.7823
 1.6400	58.8956
 1.6390	58.8145
 1.6380	58.8567
 1.6370	58.8769
 1.6360	58.7599
 1.6350	58.7505
 1.6340	58.7838
 1.6330	58.9298
 1.6320	58.8115
 1.6310	58.8463
 1.6300	58.7440
 1.6290	58.7593
 1.6280	58.7946
 1.6270	58.8128
 1.6260	58.7188
 1.6250	58.8026
 1.6240	58.7400
 1.6230	58.7699
 1.6220	58.7449
 1.6210	58.7961
 1.6200	58.7623
 1.6190	58.7665
 1.6180	58.7172
 1.6170	58.7530
 1.6160	58.7375
 1.6150	58.7488
 1.6140	58.6842
 1.6130	58.7593
 1.6120	58.6967
 1.6110	58.6986
 1.6100	58.6606
 1.6090	58.7745
 1.6080	58.6341
 1.6070	58.6904
 1.6060	58.6548
 1.6050	58.6466
 1.6040	58.6429
 1.6030	58.7434
 1.6020	58.6485
 1.6010	58.6806
 1.6000	58.6147
 1.5990	58.6361
 1.5980	58.6552
 1.5970	58.6694
 1.5960	58.6518
 1.5950	58.6275
 1.5940	58.5931
 1.5930	58.6100
 1.5920	58.6060
 1.5910	58.6378
 1.5900	58.5340
 1.5890	58.5728
 1.5880	58.5540
 1.5870	58.5958
 1.5860	58.5577
 1.5850	58.5806
 1.5840	58.5289
 1.5830	58.5515
 1.5820	58.5966
 1.5810	58.5351
 1.5800	58.5384
 1.5790	58.5255
 1.5780	58.4931
 1.5770	58.5284
 1.5760	58.4981
 1.5750	58.5482
 1.5740	58.4622
 1.5730	58.4553
 1.5720	58.3835
 1.5710	58.3928
 1.5700	58.3835
 1.5690	58.4202
 1.5680	58.4598
 1.5670	58.4120
 1.5660	58.3746
 1.5650	58.4086
 1.5640	58.3757
 1.5630	58.3838
 1.5620	58.3969
 1.5610	58.3918
 1.5600	58.3139
 1.5590	58.3765
 1.5580	58.3470
 1.5570	58.2867
 1.5560	58.2748
 1.5550	58.2840
 1.5540	58.2697
 1.5530	58.2733
 1.5520	58.2672
 1.5510	58.3050
 1.5500	58.2492
 1.5490	58.1936
 1.5480	58.1370
 1.5470	58.2142
 1.5460	58.1853
 1.5450	58.2348
 1.5440	58.2088
 1.5430	58.2308
 1.5420	58.2314
 1.5410	58.2314
 1.5400	58.1324
 1.5390	58.1649
 1.5380	58.1481
 1.5370	58.1352
 1.5360	58.1389
 1.5350	58.1180
 1.5340	58.0757
 1.5330	58.1164
 1.5320	58.0732
 1.5310	58.0043
 1.5300	57.9885
 1.5290	58.0121
 1.5280	58.0088
 1.5270	58.0581
 1.5260	57.9988
 1.5250	57.9886
 1.5240	58.0107
 1.5230	58.0461
 1.5220	58.0124
 1.5210	57.9727
 1.5200	57.9580
 1.5190	57.9154
 1.5180	57.8618
 1.5170	57.8984
 1.5160	57.9561
 1.5150	57.9650
 1.5140	57.8960
 1.5130	57.8462
 1.5120	57.8100
 1.5110	57.8348
 1.5100	57.8093
 1.5090	57.7818
 1.5080	57.7974
 1.5070	57.7714
 1.5060	57.7359
 1.5050	57.7426
 1.5040	57.7292
 1.5030	57.7302
 1.5020	57.7449
 1.5010	57.7081
 1.5000	57.6701
 1.4990	57.6244
 1.4980	57.6235
 1.4970	57.6589
 1.4960	57.6349
 1.4950	57.5926
 1.4940	57.6024
 1.4930	57.5704
 1.4920	57.5166
 1.4910	57.5065
 1.4900	57.5690
 1.4890	57.5909
 1.4880	57.5474
 1.4870	57.4865
 1.4860	57.4418
 1.4850	57.4526
 1.4840	57.4613
 1.4830	57.4285
 1.4820	57.4362
 1.4810	57.4101
 1.4800	57.3966
 1.4790	57.3679
 1.4780	57.3587
 1.4770	57.3477
 1.4760	57.3362
 1.4750	57.3234
 1.4740	57.3013
 1.4730	57.2703
 1.4720	57.2588
 1.4710	57.2382
 1.4700	57.2649
 1.4690	57.2070
 1.4680	57.1902
 1.4670	57.1587
 1.4660	57.1731
 1.4650	57.1347
 1.4640	57.1130
 1.4630	57.0872
 1.4620	57.0963
 1.4610	57.1234
 1.4600	57.1126
 1.4590	57.1018
 1.4580	57.1491
 1.4570	57.1077
 1.4560	57.0726
 1.4550	57.0665
 1.4540	57.0631
 1.4530	57.0066
 1.4520	57.0314
 1.4510	57.0273
 1.4500	57.0336
 1.4490	56.9924
 1.4480	56.9942
 1.4470	56.9954
 1.4460	57.0473
 1.4450	56.9765
 1.4440	56.9887
 1.4430	57.0199
 1.4420	56.9980
 1.4410	56.9731
 1.4400	57.0224
 1.4390	56.9569
 1.4380	56.9619
 1.4370	56.9111
 1.4360	56.9596
 1.4350	56.9461
 1.4340	56.9293
 1.4330	56.8993
 1.4320	56.9607
 1.4310	56.8746
 1.4300	56.9120
 1.4290	56.8819
 1.4280	56.8835
 1.4270	56.8504
 1.4260	56.8732
 1.4250	56.8306
 1.4240	56.8274
 1.4230	56.8549
 1.4220	56.8117
 1.4210	56.7611
 1.4200	56.7456
 1.4190	56.6497
 1.4180	56.6251
 1.4170	56.5745
 1.4160	56.5597
 1.4150	56.5992
 1.4140	56.6692
 1.4130	56.6095
 1.4120	56.7477
 1.4110	56.7701
 1.4100	56.8983
 1.4090	56.8007
 1.4080	56.9543
 1.4070	56.9558
 1.4060	57.0415
 1.4050	57.0001
 1.4040	57.1256
 1.4030	57.0694
 1.4020	57.1592
 1.4010	57.1664
 1.4000	57.2020
 1.3990	57.2470
 1.3980	57.3220
 1.3970	57.3477
 1.3960	57.4685
 1.3950	57.4007
 1.3940	57.4881
 1.3930	57.4897
 1.3920	57.6476
 1.3910	57.6336
 1.3900	57.6168
 1.3890	57.6700
 1.3880	57.7690
 1.3870	57.6651
 1.3860	57.7541
 1.3850	57.7762
 1.3840	57.8300
 1.3830	57.7956
 1.3820	57.8073
 1.3810	57.8147
 1.3800	57.9060
 1.3790	57.8878
 1.3780	57.9147
 1.3770	57.9274
 1.3760	57.9252
 1.3750	57.9588
 1.3740	57.9656
 1.3730	57.9102
 1.3720	57.9708
 1.3710	57.8446
 1.3700	57.9608
 1.3690	57.9410
 1.3680	57.9825
 1.3670	57.9543
 1.3660	58.0324
 1.3650	57.8783
 1.3640	57.9567
 1.3630	58.0073
 1.3620	57.9508
 1.3610	57.9438
 1.3600	57.9926
 1.3590	57.9053
 1.3580	57.9991
 1.3570	57.9587
 1.3560	58.0525
 1.3550	57.8870
 1.3540	57.9692
 1.3530	57.9549
 1.3520	57.9647
 1.3510	57.9817
 1.3500	58.0114
 1.3490	57.9862
 1.3480	58.0295
 1.3470	57.9826
 1.3460	57.9994
 1.3450	57.9879
 1.3440	58.0425
 1.3430	57.9443
 1.3420	57.8953
 1.3410	57.9256
 1.3400	57.9406
 1.3390	58.0159
 1.3380	58.0088
 1.3370	57.9680
 1.3360	58.0173
 1.3350	58.0345
 1.3340	58.0464
 1.3330	58.0137
 1.3320	57.9346
 1.3310	58.0370
 1.3300	58.0124
 1.3290	57.9512
 1.3280	58.0148
 1.3270	57.9938
 1.3260	58.0208
 1.3250	57.9776
 1.3240	58.0420
 1.3230	58.0217
 1.3220	58.0677
 1.3210	58.0301
 1.3200	58.0145
 1.3190	58.0382
 1.3180	58.0500
 1.3170	57.9980
 1.3160	58.0783
 1.3150	58.0224
 1.3140	58.0211
 1.3130	57.9924
 1.3120	58.0653
 1.3110	57.9861
 1.3100	58.0555
 1.3090	58.0267
 1.3080	58.0511
 1.3070	58.0587
 1.3060	58.0299
 1.3050	58.0865
 1.3040	58.1059
 1.3030	58.0630
 1.3020	58.0436
 1.3010	58.0400
 1.3000	58.0586
 1.2990	58.0309
 1.2980	58.0638
 1.2970	57.9827
 1.2960	58.0486
 1.2950	58.0318
 1.2940	58.0623
 1.2930	58.0897
 1.2920	58.0539
 1.2910	58.1160
 1.2900	58.0757
 1.2890	58.1327
 1.2880	58.0992
 1.2870	58.0738
 1.2860	58.1766
 1.2850	58.1537
 1.2840	58.1106
 1.2830	58.1119
 1.2820	58.0909
 1.2810	58.0840
 1.2800	58.0975
 1.2790	58.1053
 1.2780	58.1446
 1.2770	58.0838
 1.2760	58.1287
 1.2750	58.1147
 1.2740	58.1121
 1.2730	58.0874
 1.2720	58.1399
 1.2710	58.0864
 1.2700	58.1371
 1.2690	58.1776
 1.2680	58.1828
 1.2670	58.1811
 1.2660	58.1837
 1.2650	58.1143
 1.2640	58.1496
 1.2630	58.1574
 1.2620	58.1282
 1.2610	58.1302
 1.2600	58.1428
 1.2590	58.1201
 1.2580	58.1535
 1.2570	58.1790
 1.2560	58.2235
 1.2550	58.2401
 1.2540	58.1844
 1.2530	58.1588
 1.2520	58.2286
 1.2510	58.2166
 1.2500	58.2350
 1.2490	58.1845
 1.2480	58.2057
 1.2470	58.2016
 1.2460	58.1904
 1.2450	58.2385
 1.2440	58.2100
 1.2430	58.1620
 1.2420	58.2093
 1.2410	58.2911
 1.2400	58.2623
 1.2390	58.2378
 1.2380	58.2345
 1.2370	58.2618
 1.2360	58.3057
 1.2350	58.2896
 1.2340	58.2915
 1.2330	58.2849
 1.2320	58.2363
 1.2310	58.2009
 1.2300	58.2278
 1.2290	58.2377
 1.2280	58.2584
 1.2270	58.2641
 1.2260	58.2461
 1.2250	58.2606
 1.2240	58.2887
 1.2230	58.3097
 1.2220	58.3273
 1.2210	58.3309
 1.2200	58.3448
 1.2190	58.3059
 1.2180	58.2998
 1.2170	58.3187
 1.2160	58.3265
 1.2150	58.3374
 1.2140	58.3469
 1.2130	58.3358
 1.2120	58.3282
 1.2110	58.3253
 1.2100	58.3227
 1.2090	58.3487
 1.2080	58.3363
 1.2070	58.3339
 1.2060	58.3384
 1.2050	58.3513
 1.2040	58.3665
 1.2030	58.4064
 1.2020	58.3970
 1.2010	58.3705
 1.2000	58.3791
 1.1990	58.3664
 1.1980	58.3792
 1.1970	58.4051
 1.1960	58.3818
 1.1950	58.3748
 1.1940	58.3421
 1.1930	58.3825
 1.1920	58.4114
 1.1910	58.4186
 1.1900	58.3952
 1.1890	58.3999
 1.1880	58.3366
 1.1870	58.4368
 1.1860	58.4551
 1.1850	58.4281
 1.1840	58.4069
 1.1830	58.4421
 1.1820	58.4270
 1.1810	58.4502
 1.1800	58.4074
 1.1790	58.4767
 1.1780	58.4554
 1.1770	58.4443
 1.1760	58.4370
 1.1750	58.4171
 1.1740	58.4447
 1.1730	58.4890
 1.1720	58.4577
 1.1710	58.4337
 1.1700	58.4302
 1.1690	58.4676
 1.1680	58.4715
 1.1670	58.4540
 1.1660	58.4390
 1.1650	58.4631
 1.1640	58.4370
 1.1630	58.5295
 1.1620	58.5256
 1.1610	58.5223
 1.1600	58.5340
 1.1590	58.5132
 1.1580	58.4824
 1.1570	58.4855
 1.1560	58.4646
 1.1550	58.4995
 1.1540	58.4971
 1.1530	58.5497
 1.1520	58.5265
 1.1510	58.5145
 1.1500	58.4862
 1.1490	58.5357
 1.1480	58.4809
 1.1470	58.4774
 1.1460	58.4559
 1.1450	58.5206
 1.1440	58.4679
 1.1430	58.4700
 1.1420	58.4908
 1.1410	58.5261
 1.1400	58.4405
 1.1390	58.4790
 1.1380	58.4857
 1.1370	58.4968
 1.1360	58.4713
 1.1350	58.4622
 1.1340	58.4275
 1.1330	58.4373
 1.1320	58.4359
 1.1310	58.5217
 1.1300	58.4449
 1.1290	58.4926
 1.1280	58.4806
 1.1270	58.4725
 1.1260	58.4207
 1.1250	58.5383
 1.1240	58.3836
 1.1230	58.4127
 1.1220	58.3899
 1.1210	58.4580
 1.1200	58.3765
 1.1190	58.4308
 1.1180	58.4038
 1.1170	58.4366
 1.1160	58.3908
 1.1150	58.4168
 1.1140	58.3338
 1.1130	58.4360
 1.1120	58.3314
 1.1110	58.3400
 1.1100	58.3402
 1.1090	58.3313
 1.1080	58.2601
 1.1070	58.2861
 1.1060	58.2979
 1.1050	58.3200
 1.1040	58.3016
 1.1030	58.2421
 1.1020	58.2280
 1.1010	58.3176
 1.1000	58.2861
 1.0990	58.3069
 1.0980	58.2313
 1.0970	58.2273
 1.0960	58.2365
 1.0950	58.2702
 1.0940	58.1960
 1.0930	58.3064
 1.0920	58.1778
 1.0910	58.1519
 1.0900	58.2188
 1.0890	58.1443
 1.0880	58.0934
 1.0870	58.1615
 1.0860	58.0343
 1.0850	58.1662
 1.0840	58.0913
 1.0830	58.1344
 1.0820	58.0461
 1.0810	58.0800
 1.0800	57.9989
 1.0790	57.9838
 1.0780	57.9782
 1.0770	58.0618
 1.0760	57.9878
 1.0750	58.0506
 1.0740	57.9495
 1.0730	57.9524
 1.0720	57.9056
 1.0710	57.9308
 1.0700	57.7868
 1.0690	57.9569
 1.0680	57.8889
 1.0670	57.8864
 1.0660	57.9041
 1.0650	57.8303
 1.0640	57.7438
 1.0630	57.8102
 1.0620	57.8278
 1.0610	57.7889
 1.0600	57.7596
 1.0590	57.7146
 1.0580	57.7547
 1.0570	57.7379
 1.0560	57.6723
 1.0550	57.7095
 1.0540	57.6597
 1.0530	57.6832
 1.0520	57.6358
 1.0510	57.5627
 1.0500	57.5735
 1.0490	57.5414
 1.0480	57.5429
 1.0470	57.5787
 1.0460	57.5176
 1.0450	57.5055
 1.0440	57.5286
 1.0430	57.4586
 1.0420	57.4811
 1.0410	57.4331
 1.0400	57.3722
 1.0390	57.4102
 1.0380	57.2953
 1.0370	57.4115
 1.0360	57.3326
 1.0350	57.2907
 1.0340	57.2024
 1.0330	57.2130
 1.0320	57.2044
 1.0310	57.1758
 1.0300	57.0839
 1.0290	57.1396
 1.0280	57.0329
 1.0270	57.0883
 1.0260	56.9816
 1.0250	57.0323
 1.0240	56.9079
 1.0230	56.9707
 1.0220	56.9280
 1.0210	56.8125
 1.0200	56.8461
 1.0190	56.8582
 1.0180	56.7508
 1.0170	56.7873
 1.0160	56.6645
 1.0150	56.5965
 1.0140	56.5869
 1.0130	56.6675
 1.0120	56.5747
 1.0110	56.5934
 1.0100	56.4738
 1.0090	56.4122
 1.0080	56.3567
 1.0070	56.3774
 1.0060	56.3014
 1.0050	56.2658
 1.0040	56.2790
 1.0030	56.2362
 1.0020	56.1126
 1.0010	56.1037
 1.0000	56.0846
 0.9990	56.0348
 0.9980	55.9347
 0.9970	55.8874
 0.9960	55.8439
 0.9950	55.8334
 0.9940	55.7432
 0.9930	55.7510
 0.9920	55.7023
 0.9910	55.6361
 0.9900	55.5900
 0.9890	55.5760
 0.9880	55.4297
 0.9870	55.3673
 0.9860	55.2707
 0.9850	55.2464
 0.9840	55.2785
 0.9830	55.2318
 0.9820	55.0993
 0.9810	55.0476
 0.9800	54.9473
 0.9790	54.8929
 0.9780	54.8980
 0.9770	54.8127
 0.9760	54.7272
 0.9750	54.6209
 0.9740	54.5926
 0.9730	54.5799
 0.9720	54.4687
 0.9710	54.3912
 0.9700	54.2933
 0.9690	54.3058
 0.9680	54.1744
 0.9670	54.1031
 0.9660	54.0390
 0.9650	53.9872
 0.9640	53.8784
 0.9630	53.8345
 0.9620	53.7967
 0.9610	53.7023
 0.9600	53.6186
 0.9590	53.5534
 0.9580	53.4769
 0.9570	53.3845
 0.9560	53.2942
 0.9550	53.2154
 0.9540	53.1255
 0.9530	53.1222
 0.9520	53.0215
 0.9510	52.9467
 0.9500	52.8602
 0.9490	52.8434
 0.9480	52.7301
 0.9470	52.6049
 0.9460	52.5505
 0.9450	52.5038
 0.9440	52.3935
 0.9430	52.3464
 0.9420	52.2571
 0.9410	52.1412
 0.9400	52.0520
 0.9390	51.9688
 0.9380	51.9363
 0.9370	51.8898
 0.9360	51.7928
 0.9350	51.6833
 0.9340	51.5928
 0.9330	51.5183
 0.9320	51.4942
 0.9310	51.4529
 0.9300	51.3062
 0.9290	51.2417
 0.9280	51.2045
 0.9270	51.0705
 0.9260	50.9828
 0.9250	50.9786
 0.9240	50.9419
 0.9230	50.8265
 0.9220	50.7499
 0.9210	50.6989
 0.9200	50.6001
 0.9190	50.4904
 0.9180	50.4722
 0.9170	50.4072
 0.9160	50.2904
 0.9150	50.2160
 0.9140	50.2185
 0.9130	50.1428
 0.9120	50.0611
 0.9110	49.9961
 0.9100	49.9534
 0.9090	49.9074
 0.9080	49.8245
 0.9070	49.7014
 0.9060	49.6919
 0.9050	49.5786
 0.9040	49.5321
 0.9030	49.5052
 0.9020	49.4425
 0.9010	49.3853
 0.9000	49.3150
 0.8990	49.2406
 0.8980	49.1902
 0.8970	49.1391
 0.8960	49.0659
 0.8950	49.0288
 0.8940	49.0669
 0.8930	48.9307
 0.8920	48.8841
 0.8910	48.8081
 0.8900	48.7637
 0.8890	48.7112
 0.8880	48.7220
 0.8870	48.6559
 0.8860	48.6181
 0.8850	48.5584
 0.8840	48.5595
 0.8830	48.4782
 0.8820	48.4353
 0.8810	48.3816
 0.8800	48.4065
 0.8790	48.3374
 0.8780	48.2814
 0.8770	48.1946
 0.8760	48.1856
 0.8750	48.1421
 0.8740	48.0936
 0.8730	47.9888
 0.8720	48.0048
 0.8710	47.9670
 0.8700	47.9632
 0.8690	47.8873
 0.8680	47.9190
 0.8670	47.8286
 0.8660	47.8562
 0.8650	47.8163
 0.8640	47.8188
 0.8630	47.7138
 0.8620	47.6648
 0.8610	47.6551
 0.8600	47.6943
 0.8590	47.7199
 0.8580	47.7079
 0.8570	47.6775
 0.8560	47.6617
 0.8550	47.6382
 0.8540	47.6052
 0.8530	47.5958
 0.8520	47.5822
 0.8510	47.5672
 0.8500	47.5451
 0.8490	47.5728
 0.8480	47.5621
 0.8470	47.5594
 0.8460	47.5305
 0.8450	47.5186
 0.8440	47.5427
 0.8430	47.5249
 0.8420	47.5552
 0.8410	47.5416
 0.8400	47.5077
 0.8390	47.5116
 0.8380	47.4712
 0.8370	47.4999
 0.8360	47.4991
 0.8350	47.5229
 0.8340	47.5103
 0.8330	47.4945
 0.8320	47.4475
 0.8310	47.4860
 0.8300	47.5177
 0.8290	47.4860
 0.8280	47.5255
 0.8270	47.5086
 0.8260	47.4989
 0.8250	47.4885
 0.8240	47.5105
 0.8230	47.5486
 0.8220	47.5276
 0.8210	47.5382
 0.8200	47.5630
 0.8190	47.5623
 0.8180	47.5659
 0.8170	47.5615
 0.8160	47.5385
 0.8150	47.5840
 0.8140	47.5761
 0.8130	47.6064
 0.8120	47.6275
 0.8110	47.6046
 0.8100	47.6132
 0.8090	47.6190
 0.8080	47.6441
 0.8070	47.6766
 0.8060	47.6575
 0.8050	47.6667
 0.8040	47.6751
 0.8030	47.6873
 0.8020	47.6763
 0.8010	47.6892
 0.8000	47.6868
 0.7990	47.7175
 0.7980	47.7137
 0.7970	47.6833
 0.7960	47.6781
 0.7950	47.7073
 0.7940	47.6626
 0.7930	47.7035
 0.7920	47.7095
 0.7910	47.7341
 0.7900	47.7484
 0.7890	47.7215
 0.7880	47.7405
 0.7870	47.7416
 0.7860	47.7495
 0.7850	47.7444
 0.7840	47.7336
 0.7830	47.7416
 0.7820	47.7398
 0.7810	47.7204
 0.7800	47.7376
 0.7790	47.7400
 0.7780	47.7104
 0.7770	47.6959
 0.7760	47.6785
 0.7750	47.6783
 0.7740	47.6527
 0.7730	47.6493
 0.7720	47.6271
 0.7710	47.6025
 0.7700	47.6099
 0.7690	47.5833
 0.7680	47.5834
 0.7670	47.5524
 0.7660	47.5381
 0.7650	47.5073
 0.7640	47.5048
 0.7630	47.4651
 0.7620	47.4401
 0.7610	47.4077
 0.7600	47.4033
 0.7590	47.3473
 0.7580	47.3185
 0.7570	47.2914
 0.7560	47.2445
 0.7550	47.2066
 0.7540	47.1781
 0.7530	47.1359
 0.7520	47.0979
 0.7510	47.0421
 0.7500	47.0006
 0.7490	46.9399
 0.7480	46.9030
 0.7470	46.8477
 0.7460	46.7937
 0.7450	46.7347
 0.7440	46.6711
 0.7430	46.6007
 0.7420	46.5681
 0.7410	46.4888
 0.7400	46.4266
 0.7390	46.3665
 0.7380	46.2922
 0.7370	46.2238
 0.7360	46.1608
 0.7350	46.0903
 0.7340	45.9935
 0.7330	45.9228
 0.7320	45.8554
 0.7310	45.7638
 0.7300	45.6773
 0.7290	45.5949
 0.7280	45.4907
 0.7270	45.4061
 0.7260	45.3253
 0.7250	45.2296
 0.7240	45.1222
 0.7230	45.0411
 0.7220	44.9531
 0.7210	44.8528
 0.7200	44.7584
 0.7190	44.6483
 0.7180	44.5505
 0.7170	44.4471
 0.7160	44.3433
 0.7150	44.2540
 0.7140	44.1369
 0.7130	44.0277
 0.7120	43.9261
 0.7110	43.8108
 0.7100	43.7039
 0.7090	43.5901
 0.7080	43.4875
 0.7070	43.3714
 0.7060	43.2429
 0.7050	43.1393
 0.7040	43.0284
 0.7030	42.8923
 0.7020	42.7970
 0.7010	42.6872
 0.7000	42.5566
 0.6990	42.4373
 0.6980	42.3170
 0.6970	42.2134
 0.6960	42.1107
 0.6950	41.9894
 0.6940	41.8684
 0.6930	41.7534
 0.6920	41.6236
 0.6910	41.5135
 0.6900	41.4057
 0.6890	41.2858
 0.6880	41.1716
 0.6870	41.0647
 0.6860	40.9432
 0.6850	40.8288
 0.6840	40.7119
 0.6830	40.5971
 0.6820	40.4866
 0.6810	40.3672
 0.6800	40.2647
 0.6790	40.1485
 0.6780	40.0343
 0.6770	39.9208
 0.6760	39.8135
 0.6750	39.7120
 0.6740	39.5995
 0.6730	39.4781
 0.6720	39.3653
 0.6710	39.2606
 0.6700	39.1442
 0.6690	39.0380
 0.6680	38.9315
 0.6670	38.8160
 0.6660	38.7185
 0.6650	38.6233
 0.6640	38.5165
 0.6630	38.4079
 0.6620	38.2975
 0.6610	38.1882
 0.6600	38.0943
 0.6590	37.9861
 0.6580	37.8810
 0.6570	37.7804
 0.6560	37.6817
 0.6550	37.5842
 0.6540	37.4823
 0.6530	37.3849
 0.6520	37.2877
 0.6510	37.1896
 0.6500	37.0932
 0.6490	36.9897
 0.6480	36.8927
 0.6470	36.7939
 0.6460	36.6965
 0.6450	36.6023
 0.6440	36.4959
 0.6430	36.4027
 0.6420	36.3107
 0.6410	36.2113
 0.6400	36.1173
 0.6390	36.0221
 0.6380	35.9214
 0.6370	35.8166
 0.6360	35.7189
 0.6350	35.6466
 0.6340	35.5674
 0.6330	35.4662
 0.6320	35.3650
 0.6310	35.2624
 0.6300	35.1592
 0.6290	35.0495
 0.6280	34.9479
 0.6270	34.8354
 0.6260	34.7230
 0.6250	34.6201
 0.6240	34.5057
 0.6230	34.3956
 0.6220	34.2842
 0.6210	34.1650
 0.6200	34.0431
 0.6190	33.9149
 0.6180	33.7774
 0.6170	33.6456
 0.6160	33.5102
 0.6150	33.3695
 0.6140	33.2280
 0.6130	33.0784
 0.6120	32.9273
 0.6110	32.7723
 0.6100	32.6102
 0.6090	32.4415
 0.6080	32.2930
 0.6070	32.1333
 0.6060	31.9525
 0.6050	31.7629
 0.6040	31.5653
 0.6030	31.3572
 0.6020	31.1427
 0.6010	30.9277
 0.6000	30.7016
 0.5990	30.4761
 0.5980	30.2447
 0.5970	30.0023
 0.5960	29.7561
 0.5950	29.5016
 0.5940	29.2358
 0.5930	28.9593
 0.5920	28.6732
 0.5910	28.3840
 0.5900	28.0880
 0.5890	27.7880
 0.5880	27.4725
 0.5870	27.1554
 0.5860	26.8401
 0.5850	26.5194
 0.5840	26.1858
 0.5830	25.8549
 0.5820	25.5262
 0.5810	25.1830
 0.5800	24.8363
 0.5790	24.4916
 0.5780	24.1531
 0.5770	23.8127
 0.5760	23.4762
 0.5750	23.1356
 0.5740	22.7993
 0.5730	22.4553
 0.5720	22.1256
 0.5710	21.7963
 0.5700	21.4785
 0.5690	21.1496
 0.5680	20.8401
 0.5670	20.5384
 0.5660	20.2429
 0.5650	19.9435
 0.5640	19.6598
 0.5630	19.3791
 0.5620	19.1176
 0.5610	18.8319
 0.5600	18.5625
 0.5590	18.3157
 0.5580	18.0822
 0.5570	17.8595
 0.5560	17.6412
 0.5550	17.4355
 0.5540	17.2648
 0.5530	17.0776
 0.5520	16.8938
 0.5510	16.7255
 0.5500	16.5586
 0.5490	16.4011
 0.5480	16.2498
 0.5470	16.1112
 0.5460	15.9719
 0.5450	15.8479
 0.5440	15.7235
 0.5430	15.6037
 0.5420	15.4965
 0.5410	15.3906
 0.5400	15.2900
 0.5390	15.1946
 0.5380	15.1112
 0.5370	15.0280
 0.5360	14.9471
 0.5350	14.8694
 0.5340	14.7918
 0.5330	14.7287
 0.5320	14.6621
 0.5310	14.6006
 0.5300	14.5422
 0.5290	14.4886
 0.5280	14.4310
 0.5270	14.3849
 0.5260	14.3374
 0.5250	14.2887
 0.5240	14.2442
 0.5230	14.1995
 0.5220	14.1605
 0.5210	14.1235
 0.5200	14.0763
 0.5190	14.0384
 0.5180	14.0070
 0.5170	13.9685
 0.5160	13.9353
 0.5150	13.9004
 0.5140	13.8686
 0.5130	13.8344
 0.5120	13.8029
 0.5110	13.7715
 0.5100	13.7385
 0.5090	13.7027
 0.5080	13.6681
 0.5070	13.6374
 0.5060	13.6037
 0.5050	13.5748
 0.5040	13.5392
 0.5030	13.5047
 0.5020	13.4702
 0.5010	13.4402
 0.5000	13.4018
 0.4990	13.3721
 0.4980	13.3375
 0.4970	13.2951
 0.4960	13.2571
 0.4950	13.2287
 0.4940	13.1860
 0.4930	13.1550
 0.4920	13.1209
 0.4910	13.0864
 0.4900	13.0480
 0.4890	13.0215
 0.4880	12.9872
 0.4870	12.9547
 0.4860	12.9262
 0.4850	12.8981
 0.4840	12.8681
 0.4830	12.8343
 0.4820	12.8104
 0.4810	12.7850
 0.4800	12.7663
 0.4790	12.7424
 0.4780	12.7218
 0.4770	12.7041
 0.4760	12.6800
 0.4750	12.6565
 0.4740	12.6373
 0.4730	12.6076
 0.4720	12.5883
 0.4710	12.5582
 0.4700	12.5356
 0.4690	12.5097
 0.4680	12.4902
 0.4670	12.4668
 0.4660	12.4452
 0.4650	12.4255
 0.4640	12.3968
 0.4630	12.3649
 0.4620	12.3406
 0.4610	12.3186
 0.4600	12.2895
 0.4590	12.2661
 0.4580	12.2387
 0.4570	12.2147
 0.4560	12.1917
 0.4550	12.1620
 0.4540	12.1342
 0.4530	12.1066
 0.4520	12.0731
 0.4510	12.0434
 0.4500	12.0191
 0.4490	11.9866
 0.4480	11.9591
 0.4470	11.9251
 0.4460	11.8954
 0.4450	11.8598
 0.4440	11.8266
 0.4430	11.7968
 0.4420	11.7611
 0.4410	11.7300
 0.4400	11.7016
 0.4390	11.6642
 0.4380	11.6337
 0.4370	11.6077
 0.4360	11.5746
 0.4350	11.5433
 0.4340	11.5109
 0.4330	11.4800
 0.4320	11.4519
 0.4310	11.4252
 0.4300	11.3974
 0.4290	11.3647
 0.4280	11.3420
 0.4270	11.3178
 0.4260	11.2919
 0.4250	11.2702
 0.4240	11.2448
 0.4230	11.2238
 0.4220	11.2071
 0.4210	11.1845
 0.4200	11.1630
 0.4190	11.1478
 0.4180	11.1310
 0.4170	11.1122
 0.4160	11.0900
 0.4150	11.0738
 0.4140	11.0583
 0.4130	11.0459
 0.4120	11.0323
 0.4110	11.0160
 0.4100	11.0055
 0.4090	10.9896
 0.4080	10.9775
 0.4070	10.9683
 0.4060	10.9524
 0.4050	10.9324
 0.4040	10.9245
 0.4030	10.9104
 0.4020	10.8983
 0.4010	10.8855
 0.4000	10.8790
