Name: Muscovite KAl_2(Si_3Al)O_10(OH,F)_2
Type: Mineral
Class: Silicate
Subclass: Phyllosilicate
Particle Size: Coarse
Sample No.: PS-16A
Owner: JPL
Wavelength Range: VSWIR
Origin: USA, Connecticut.
Collection Date: N/A
Description: Particle size was 125-500um.Collected by:  Ward's Original ASTER Spectral Library name was jpl.perkin.mineral.silicate.phyllosilicate.coarse.ps16a.spectrum.txt
Measurement: Hemispherical reflectance
First Column: X
Second Column: Y
X Units: Wavelength (micrometers)
Y Units:Reflectance (percent)
First X Value:  2.5000
Last X Value:  0.4000
Number of X Values: 2101
Additional Information: mineral.silicate.phyllosilicate.coarse.vswir.ps-16a.jpl.perkin.ancillary.txt

 2.5000	38.3048
 2.4990	38.1264
 2.4980	38.2300
 2.4970	38.0374
 2.4960	37.7822
 2.4950	37.8977
 2.4940	37.7522
 2.4930	37.6097
 2.4920	37.7659
 2.4910	37.5860
 2.4900	37.5025
 2.4890	37.4254
 2.4880	37.5651
 2.4870	37.3642
 2.4860	37.4951
 2.4850	37.1921
 2.4840	37.3983
 2.4830	37.0913
 2.4820	37.2283
 2.4810	36.9837
 2.4800	37.1172
 2.4790	36.9750
 2.4780	37.0751
 2.4770	36.7935
 2.4760	36.8328
 2.4750	36.7696
 2.4740	36.8893
 2.4730	36.4982
 2.4720	36.7453
 2.4710	36.3043
 2.4700	36.3237
 2.4690	36.1897
 2.4680	36.2903
 2.4670	35.9851
 2.4660	35.9903
 2.4650	35.8538
 2.4640	35.9725
 2.4630	35.6014
 2.4620	35.6557
 2.4610	35.4719
 2.4600	35.4591
 2.4590	35.3608
 2.4580	35.2299
 2.4570	35.0846
 2.4560	35.1792
 2.4550	34.9582
 2.4540	34.8935
 2.4530	34.7823
 2.4520	34.6568
 2.4510	34.4790
 2.4500	34.5235
 2.4490	34.3049
 2.4480	34.3716
 2.4470	34.2950
 2.4460	34.3851
 2.4450	34.1781
 2.4440	34.1068
 2.4430	34.0336
 2.4420	34.0716
 2.4410	33.9829
 2.4400	33.9835
 2.4390	33.9463
 2.4380	33.9157
 2.4370	33.9710
 2.4360	33.9546
 2.4350	33.9728
 2.4340	33.9471
 2.4330	34.0664
 2.4320	34.0987
 2.4310	34.0668
 2.4300	34.1592
 2.4290	34.2164
 2.4280	34.3569
 2.4270	34.4022
 2.4260	34.5515
 2.4250	34.6833
 2.4240	34.8319
 2.4230	34.9358
 2.4220	35.0296
 2.4210	35.1408
 2.4200	35.2914
 2.4190	35.4531
 2.4180	35.6348
 2.4170	35.7666
 2.4160	36.0134
 2.4150	36.2075
 2.4140	36.3698
 2.4130	36.4918
 2.4120	36.7221
 2.4110	36.8665
 2.4100	37.0788
 2.4090	37.2797
 2.4080	37.4669
 2.4070	37.6587
 2.4060	37.8309
 2.4050	37.9425
 2.4040	38.1563
 2.4030	38.2413
 2.4020	38.4493
 2.4010	38.4748
 2.4000	38.6143
 2.3990	38.6952
 2.3980	38.7953
 2.3970	38.9025
 2.3960	39.0125
 2.3950	38.9734
 2.3940	39.0424
 2.3930	39.1502
 2.3920	39.2664
 2.3910	39.2251
 2.3900	39.2581
 2.3890	39.2679
 2.3880	39.2694
 2.3870	39.2447
 2.3860	39.2844
 2.3850	39.2501
 2.3840	39.2623
 2.3830	39.2550
 2.3820	39.2744
 2.3810	39.2771
 2.3800	39.2832
 2.3790	39.3063
 2.3780	39.3236
 2.3770	39.2998
 2.3760	39.3202
 2.3750	39.3236
 2.3740	39.2977
 2.3730	39.2875
 2.3720	39.3212
 2.3710	39.3242
 2.3700	39.3565
 2.3690	39.3024
 2.3680	39.2717
 2.3670	39.2743
 2.3660	39.2627
 2.3650	39.1869
 2.3640	39.0960
 2.3630	39.0638
 2.3620	39.0091
 2.3610	38.9196
 2.3600	38.8794
 2.3590	38.8367
 2.3580	38.6675
 2.3570	38.5219
 2.3560	38.4982
 2.3550	38.4412
 2.3540	38.3761
 2.3530	38.3516
 2.3520	38.2531
 2.3510	38.1675
 2.3500	38.1278
 2.3490	38.1021
 2.3480	38.0404
 2.3470	38.0331
 2.3460	38.0644
 2.3450	38.0619
 2.3440	38.0750
 2.3430	38.1800
 2.3420	38.2978
 2.3410	38.3843
 2.3400	38.5002
 2.3390	38.6484
 2.3380	38.8051
 2.3370	39.0169
 2.3360	39.1808
 2.3350	39.3982
 2.3340	39.6006
 2.3330	39.8670
 2.3320	40.1715
 2.3310	40.4677
 2.3300	40.6589
 2.3290	40.9425
 2.3280	41.2392
 2.3270	41.6035
 2.3260	41.8440
 2.3250	42.1990
 2.3240	42.5588
 2.3230	42.9285
 2.3220	43.2342
 2.3210	43.6018
 2.3200	43.8892
 2.3190	44.2476
 2.3180	44.5926
 2.3170	44.9620
 2.3160	45.2938
 2.3150	45.6284
 2.3140	45.9342
 2.3130	46.2888
 2.3120	46.6483
 2.3110	47.0320
 2.3100	47.3145
 2.3090	47.6156
 2.3080	47.9442
 2.3070	48.3935
 2.3060	48.6572
 2.3050	48.9791
 2.3040	49.2876
 2.3030	49.6430
 2.3020	49.9042
 2.3010	50.3347
 2.3000	50.5921
 2.2990	50.8859
 2.2980	51.0722
 2.2970	51.3442
 2.2960	51.6306
 2.2950	51.8764
 2.2940	51.9648
 2.2930	52.2275
 2.2920	52.3941
 2.2910	52.5898
 2.2900	52.8476
 2.2890	53.0373
 2.2880	53.1427
 2.2870	53.3166
 2.2860	53.3795
 2.2850	53.5442
 2.2840	53.6374
 2.2830	53.7289
 2.2820	53.7935
 2.2810	53.8873
 2.2800	53.9077
 2.2790	54.0088
 2.2780	54.0963
 2.2770	54.1302
 2.2760	54.1262
 2.2750	54.1944
 2.2740	54.1877
 2.2730	54.2877
 2.2720	54.3019
 2.2710	54.2854
 2.2700	54.2025
 2.2690	54.2127
 2.2680	54.1645
 2.2670	54.1989
 2.2660	54.0786
 2.2650	54.0554
 2.2640	53.9529
 2.2630	53.9301
 2.2620	53.8390
 2.2610	53.7802
 2.2600	53.6632
 2.2590	53.5759
 2.2580	53.4529
 2.2570	53.3166
 2.2560	53.1316
 2.2550	53.1407
 2.2540	52.9551
 2.2530	52.8451
 2.2520	52.6725
 2.2510	52.5827
 2.2500	52.3807
 2.2490	52.1918
 2.2480	52.0058
 2.2470	51.9033
 2.2460	51.5682
 2.2450	51.5235
 2.2440	51.2683
 2.2430	51.1149
 2.2420	50.9635
 2.2410	50.7075
 2.2400	50.5236
 2.2390	50.3448
 2.2380	50.0285
 2.2370	49.9079
 2.2360	49.6039
 2.2350	49.3429
 2.2340	49.1921
 2.2330	48.9392
 2.2320	48.6472
 2.2310	48.3505
 2.2300	47.9874
 2.2290	47.8373
 2.2280	47.4132
 2.2270	47.1752
 2.2260	46.7056
 2.2250	46.4236
 2.2240	45.8324
 2.2230	45.3871
 2.2220	44.8467
 2.2210	44.3147
 2.2200	43.6315
 2.2190	43.1078
 2.2180	42.4375
 2.2170	41.8075
 2.2160	41.0860
 2.2150	40.4525
 2.2140	39.7233
 2.2130	39.0352
 2.2120	38.3940
 2.2110	37.6564
 2.2100	36.9932
 2.2090	36.4171
 2.2080	35.8794
 2.2070	35.3108
 2.2060	34.6758
 2.2050	34.2716
 2.2040	33.8419
 2.2030	33.4392
 2.2020	33.0928
 2.2010	32.9212
 2.2000	32.6772
 2.1990	32.5835
 2.1980	32.4469
 2.1970	32.5026
 2.1960	32.4981
 2.1950	32.7363
 2.1940	32.8556
 2.1930	33.2720
 2.1920	33.5220
 2.1910	34.0713
 2.1900	34.5308
 2.1890	35.1647
 2.1880	35.7473
 2.1870	36.5993
 2.1860	37.2793
 2.1850	38.1337
 2.1840	38.9671
 2.1830	39.9257
 2.1820	40.7836
 2.1810	41.7663
 2.1800	42.6387
 2.1790	43.5286
 2.1780	44.3955
 2.1770	45.3895
 2.1760	46.2000
 2.1750	47.0123
 2.1740	47.8028
 2.1730	48.6298
 2.1720	49.3103
 2.1710	50.1342
 2.1700	50.7788
 2.1690	51.4557
 2.1680	52.0303
 2.1670	52.5859
 2.1660	53.1098
 2.1650	53.6709
 2.1640	54.1411
 2.1630	54.5948
 2.1620	55.0284
 2.1610	55.4541
 2.1600	55.8349
 2.1590	56.2111
 2.1580	56.5327
 2.1570	56.8713
 2.1560	57.1792
 2.1550	57.5710
 2.1540	57.7306
 2.1530	58.0126
 2.1520	58.3027
 2.1510	58.5328
 2.1500	58.7836
 2.1490	58.9150
 2.1480	59.0919
 2.1470	59.3180
 2.1460	59.5071
 2.1450	59.6340
 2.1440	59.7428
 2.1430	59.9062
 2.1420	60.0053
 2.1410	60.1133
 2.1400	60.1376
 2.1390	60.2578
 2.1380	60.2781
 2.1370	60.2763
 2.1360	60.3138
 2.1350	60.4188
 2.1340	60.3686
 2.1330	60.3766
 2.1320	60.2911
 2.1310	60.3105
 2.1300	60.2351
 2.1290	60.2106
 2.1280	60.1791
 2.1270	60.1732
 2.1260	60.0198
 2.1250	60.0628
 2.1240	60.0192
 2.1230	59.9793
 2.1220	59.9471
 2.1210	59.9418
 2.1200	59.9459
 2.1190	59.9244
 2.1180	59.8992
 2.1170	60.0050
 2.1160	60.0759
 2.1150	60.2263
 2.1140	60.2377
 2.1130	60.3691
 2.1120	60.4425
 2.1110	60.5450
 2.1100	60.6304
 2.1090	60.7408
 2.1080	60.8987
 2.1070	61.0437
 2.1060	61.1556
 2.1050	61.3515
 2.1040	61.4355
 2.1030	61.6170
 2.1020	61.7557
 2.1010	61.8845
 2.1000	62.0106
 2.0990	62.2339
 2.0980	62.4883
 2.0970	62.7370
 2.0960	62.8900
 2.0950	63.0807
 2.0940	63.2520
 2.0930	63.4409
 2.0920	63.6379
 2.0910	63.8321
 2.0900	64.0086
 2.0890	64.1748
 2.0880	64.3617
 2.0870	64.4938
 2.0860	64.6381
 2.0850	64.8151
 2.0840	64.9233
 2.0830	65.0508
 2.0820	65.1873
 2.0810	65.2090
 2.0800	65.2972
 2.0790	65.5000
 2.0780	65.5478
 2.0770	65.5905
 2.0760	65.6961
 2.0750	65.7933
 2.0740	65.8553
 2.0730	65.9228
 2.0720	65.9001
 2.0710	65.9186
 2.0700	66.0016
 2.0690	66.0408
 2.0680	66.0899
 2.0670	66.1820
 2.0660	66.2208
 2.0650	66.1878
 2.0640	66.2405
 2.0630	66.3238
 2.0620	66.3999
 2.0610	66.4263
 2.0600	66.3887
 2.0590	66.4095
 2.0580	66.4395
 2.0570	66.4708
 2.0560	66.5220
 2.0550	66.5207
 2.0540	66.5758
 2.0530	66.6611
 2.0520	66.6349
 2.0510	66.6179
 2.0500	66.7327
 2.0490	66.7054
 2.0480	66.6750
 2.0470	66.7002
 2.0460	66.7297
 2.0450	66.7548
 2.0440	66.7998
 2.0430	66.8164
 2.0420	66.8688
 2.0410	66.8658
 2.0400	66.9038
 2.0390	66.9500
 2.0380	66.9551
 2.0370	67.0084
 2.0360	66.9990
 2.0350	66.9891
 2.0340	67.0470
 2.0330	67.0548
 2.0320	67.1336
 2.0310	67.1383
 2.0300	67.1752
 2.0290	67.1938
 2.0280	67.2029
 2.0270	67.1398
 2.0260	67.1771
 2.0250	67.1659
 2.0240	67.1389
 2.0230	67.1744
 2.0220	67.1948
 2.0210	67.2082
 2.0200	67.2519
 2.0190	67.2530
 2.0180	67.2863
 2.0170	67.2505
 2.0160	67.2657
 2.0150	67.2509
 2.0140	67.2723
 2.0130	67.2476
 2.0120	67.3445
 2.0110	67.2608
 2.0100	67.2812
 2.0090	67.2925
 2.0080	67.3029
 2.0070	67.2830
 2.0060	67.3371
 2.0050	67.3187
 2.0040	67.2452
 2.0030	67.2566
 2.0020	67.3075
 2.0010	67.3286
 2.0000	67.3833
 1.9990	67.4057
 1.9980	67.4031
 1.9970	67.3064
 1.9960	67.3489
 1.9950	67.2081
 1.9940	67.2849
 1.9930	67.2528
 1.9920	67.1773
 1.9910	67.1989
 1.9900	67.2253
 1.9890	67.1457
 1.9880	67.2796
 1.9870	67.2215
 1.9860	67.1929
 1.9850	67.2368
 1.9840	67.2587
 1.9830	67.2418
 1.9820	67.2455
 1.9810	67.2377
 1.9800	67.1864
 1.9790	67.1823
 1.9780	67.1969
 1.9770	67.1363
 1.9760	67.2569
 1.9750	67.1487
 1.9740	67.2918
 1.9730	67.1944
 1.9720	67.2962
 1.9710	67.1793
 1.9700	67.2449
 1.9690	67.2003
 1.9680	67.2415
 1.9670	67.2932
 1.9660	67.2410
 1.9650	67.1866
 1.9640	67.2306
 1.9630	67.2359
 1.9620	67.3516
 1.9610	67.2145
 1.9600	67.2617
 1.9590	67.2855
 1.9580	67.2594
 1.9570	67.2349
 1.9560	67.3342
 1.9550	67.2568
 1.9540	67.2835
 1.9530	67.2366
 1.9520	67.3049
 1.9510	67.4047
 1.9500	67.2806
 1.9490	67.2289
 1.9480	67.3035
 1.9470	67.3278
 1.9460	67.3484
 1.9450	67.3474
 1.9440	67.3115
 1.9430	67.3408
 1.9420	67.3492
 1.9410	67.3320
 1.9400	67.3086
 1.9390	67.2698
 1.9380	67.3148
 1.9370	67.4243
 1.9360	67.2604
 1.9350	67.2078
 1.9340	67.4018
 1.9330	67.3137
 1.9320	67.3121
 1.9310	67.3505
 1.9300	67.2844
 1.9290	67.3646
 1.9280	67.2112
 1.9270	67.3536
 1.9260	67.2149
 1.9250	67.3145
 1.9240	67.2701
 1.9230	67.2827
 1.9220	67.3544
 1.9210	67.2762
 1.9200	67.3498
 1.9190	67.2969
 1.9180	67.3951
 1.9170	67.2599
 1.9160	67.3560
 1.9150	67.4881
 1.9140	67.5363
 1.9130	67.6439
 1.9120	67.5535
 1.9110	67.5648
 1.9100	67.6807
 1.9090	67.6605
 1.9080	67.7897
 1.9070	67.8282
 1.9060	67.9696
 1.9050	67.8872
 1.9040	68.0664
 1.9030	68.0430
 1.9020	68.1088
 1.9010	68.1568
 1.9000	68.3027
 1.8990	68.3490
 1.8980	68.4506
 1.8970	68.5201
 1.8960	68.5370
 1.8950	68.6248
 1.8940	68.7312
 1.8930	68.6752
 1.8920	68.8011
 1.8910	68.7933
 1.8900	68.9351
 1.8890	68.9765
 1.8880	69.0298
 1.8870	69.0053
 1.8860	69.1354
 1.8850	69.1120
 1.8840	69.1601
 1.8830	69.2528
 1.8820	69.2780
 1.8810	69.1918
 1.8800	69.2564
 1.8790	69.4017
 1.8780	69.3806
 1.8770	69.3516
 1.8760	69.4191
 1.8750	69.4813
 1.8740	69.4207
 1.8730	69.5018
 1.8720	69.5100
 1.8710	69.5101
 1.8700	69.5718
 1.8690	69.5158
 1.8680	69.6080
 1.8670	69.6273
 1.8660	69.6019
 1.8650	69.5288
 1.8640	69.5583
 1.8630	69.6182
 1.8620	69.6092
 1.8610	69.6029
 1.8600	69.5973
 1.8590	69.5160
 1.8580	69.5265
 1.8570	69.5217
 1.8560	69.5605
 1.8550	69.5259
 1.8540	69.5186
 1.8530	69.4232
 1.8520	69.3831
 1.8510	69.3687
 1.8500	69.3469
 1.8490	69.3332
 1.8480	69.3334
 1.8470	69.2554
 1.8460	69.2510
 1.8450	69.2073
 1.8440	69.1763
 1.8430	69.2185
 1.8420	69.2605
 1.8410	69.1641
 1.8400	69.1661
 1.8390	69.1604
 1.8380	69.1652
 1.8370	69.1232
 1.8360	69.2066
 1.8350	69.2605
 1.8340	69.2612
 1.8330	69.2995
 1.8320	69.3602
 1.8310	69.3009
 1.8300	69.4070
 1.8290	69.4381
 1.8280	69.4995
 1.8270	69.5475
 1.8260	69.5881
 1.8250	69.5613
 1.8240	69.6009
 1.8230	69.6430
 1.8220	69.6977
 1.8210	69.7340
 1.8200	69.7623
 1.8190	69.7705
 1.8180	69.8257
 1.8170	69.8484
 1.8160	69.8795
 1.8150	69.8713
 1.8140	69.9178
 1.8130	69.9071
 1.8120	69.8883
 1.8110	69.9133
 1.8100	69.9248
 1.8090	69.9680
 1.8080	70.0260
 1.8070	69.9882
 1.8060	69.9897
 1.8050	70.0194
 1.8040	70.0166
 1.8030	70.0121
 1.8020	70.0146
 1.8010	70.0915
 1.8000	70.1253
 1.7990	70.0629
 1.7980	70.0783
 1.7970	70.0404
 1.7960	70.0068
 1.7950	70.0477
 1.7940	70.0491
 1.7930	70.0374
 1.7920	70.0620
 1.7910	70.0665
 1.7900	70.0541
 1.7890	70.0450
 1.7880	70.0021
 1.7870	70.0346
 1.7860	70.0090
 1.7850	69.9813
 1.7840	69.9880
 1.7830	69.9426
 1.7820	69.9083
 1.7810	69.8996
 1.7800	69.9385
 1.7790	69.9062
 1.7780	69.9227
 1.7770	69.9825
 1.7760	69.9311
 1.7750	69.9175
 1.7740	69.8911
 1.7730	69.8934
 1.7720	69.9315
 1.7710	69.9173
 1.7700	69.9118
 1.7690	69.9814
 1.7680	69.9227
 1.7670	69.8887
 1.7660	69.9366
 1.7650	69.9514
 1.7640	69.9149
 1.7630	69.9160
 1.7620	69.9140
 1.7610	69.9338
 1.7600	69.9292
 1.7590	69.9144
 1.7580	69.9566
 1.7570	70.0237
 1.7560	69.9989
 1.7550	69.9937
 1.7540	70.0157
 1.7530	69.9979
 1.7520	69.9858
 1.7510	70.0221
 1.7500	70.1256
 1.7490	70.1031
 1.7480	70.0421
 1.7470	70.0574
 1.7460	70.0935
 1.7450	70.1210
 1.7440	70.1124
 1.7430	70.1776
 1.7420	70.1065
 1.7410	70.0788
 1.7400	70.0671
 1.7390	70.1088
 1.7380	70.1164
 1.7370	70.1492
 1.7360	70.1365
 1.7350	70.1726
 1.7340	70.1774
 1.7330	70.1563
 1.7320	70.1233
 1.7310	70.2307
 1.7300	70.1887
 1.7290	70.1812
 1.7280	70.2431
 1.7270	70.1825
 1.7260	70.1767
 1.7250	70.1405
 1.7240	70.1497
 1.7230	70.1788
 1.7220	70.2372
 1.7210	70.2094
 1.7200	70.1569
 1.7190	70.1950
 1.7180	70.1791
 1.7170	70.2342
 1.7160	70.2013
 1.7150	70.1884
 1.7140	70.1483
 1.7130	70.2331
 1.7120	70.1698
 1.7110	70.2071
 1.7100	70.1000
 1.7090	70.1307
 1.7080	70.0949
 1.7070	70.0947
 1.7060	70.1203
 1.7050	70.1911
 1.7040	70.1800
 1.7030	70.2203
 1.7020	70.1766
 1.7010	70.1742
 1.7000	70.1774
 1.6990	70.1892
 1.6980	70.1305
 1.6970	70.2139
 1.6960	70.2251
 1.6950	70.1573
 1.6940	70.1494
 1.6930	70.2195
 1.6920	70.2049
 1.6910	70.2162
 1.6900	70.1974
 1.6890	70.2068
 1.6880	70.1516
 1.6870	70.2085
 1.6860	70.2219
 1.6850	70.1748
 1.6840	70.1970
 1.6830	70.2470
 1.6820	70.1267
 1.6810	70.2353
 1.6800	70.1886
 1.6790	70.2450
 1.6780	70.1969
 1.6770	70.2166
 1.6760	70.1744
 1.6750	70.2039
 1.6740	70.1262
 1.6730	70.2266
 1.6720	70.2023
 1.6710	70.1928
 1.6700	70.2746
 1.6690	70.2511
 1.6680	70.1658
 1.6670	70.2454
 1.6660	70.1114
 1.6650	70.2499
 1.6640	70.1826
 1.6630	70.2800
 1.6620	70.2395
 1.6610	70.2501
 1.6600	70.1896
 1.6590	70.2251
 1.6580	70.1786
 1.6570	70.2485
 1.6560	70.2104
 1.6550	70.2285
 1.6540	70.1922
 1.6530	70.2659
 1.6520	70.0766
 1.6510	70.1919
 1.6500	70.1320
 1.6490	70.2754
 1.6480	70.2076
 1.6470	70.2480
 1.6460	70.2459
 1.6450	70.2550
 1.6440	70.2180
 1.6430	70.2216
 1.6420	70.2172
 1.6410	70.2256
 1.6400	70.2557
 1.6390	70.2545
 1.6380	70.1400
 1.6370	70.2201
 1.6360	70.2118
 1.6350	70.2464
 1.6340	70.2204
 1.6330	70.3224
 1.6320	70.1766
 1.6310	70.2344
 1.6300	70.2584
 1.6290	70.2556
 1.6280	70.2130
 1.6270	70.3453
 1.6260	70.2532
 1.6250	70.2501
 1.6240	70.2501
 1.6230	70.3001
 1.6220	70.2842
 1.6210	70.3116
 1.6200	70.3268
 1.6190	70.3109
 1.6180	70.2911
 1.6170	70.2880
 1.6160	70.1575
 1.6150	70.2755
 1.6140	70.1316
 1.6130	70.2579
 1.6120	70.3176
 1.6110	70.2757
 1.6100	70.2764
 1.6090	70.3303
 1.6080	70.2586
 1.6070	70.3078
 1.6060	70.3288
 1.6050	70.3520
 1.6040	70.3039
 1.6030	70.2763
 1.6020	70.2525
 1.6010	70.3288
 1.6000	70.2578
 1.5990	70.3094
 1.5980	70.2574
 1.5970	70.2336
 1.5960	70.2246
 1.5950	70.2844
 1.5940	70.2320
 1.5930	70.2726
 1.5920	70.2250
 1.5910	70.2067
 1.5900	70.1992
 1.5890	70.2565
 1.5880	70.2243
 1.5870	70.2035
 1.5860	70.2339
 1.5850	70.2306
 1.5840	70.1902
 1.5830	70.2337
 1.5820	70.1634
 1.5810	70.1720
 1.5800	70.1465
 1.5790	70.1135
 1.5780	70.1628
 1.5770	70.2419
 1.5760	70.1498
 1.5750	70.2141
 1.5740	70.2215
 1.5730	70.1783
 1.5720	70.0286
 1.5710	70.1657
 1.5700	70.1577
 1.5690	70.1397
 1.5680	70.0188
 1.5670	70.0751
 1.5660	70.0569
 1.5650	70.1202
 1.5640	70.1039
 1.5630	70.1367
 1.5620	70.1030
 1.5610	70.0436
 1.5600	70.0474
 1.5590	70.0665
 1.5580	70.0231
 1.5570	69.9802
 1.5560	70.0214
 1.5550	70.0495
 1.5540	70.0486
 1.5530	70.0457
 1.5520	69.9909
 1.5510	69.9946
 1.5500	70.0151
 1.5490	70.0453
 1.5480	69.9638
 1.5470	69.9626
 1.5460	69.9921
 1.5450	69.9428
 1.5440	69.9603
 1.5430	69.9953
 1.5420	69.9799
 1.5410	69.9667
 1.5400	69.9023
 1.5390	69.8678
 1.5380	69.9183
 1.5370	69.9533
 1.5360	69.8742
 1.5350	69.9061
 1.5340	69.9471
 1.5330	69.8963
 1.5320	69.8110
 1.5310	69.8653
 1.5300	69.8295
 1.5290	69.7832
 1.5280	69.8043
 1.5270	69.8268
 1.5260	69.8542
 1.5250	69.8246
 1.5240	69.7361
 1.5230	69.7398
 1.5220	69.7286
 1.5210	69.7180
 1.5200	69.6881
 1.5190	69.7049
 1.5180	69.7110
 1.5170	69.6662
 1.5160	69.6986
 1.5150	69.6709
 1.5140	69.5967
 1.5130	69.6202
 1.5120	69.6024
 1.5110	69.5746
 1.5100	69.5565
 1.5090	69.5580
 1.5080	69.5694
 1.5070	69.5425
 1.5060	69.5112
 1.5050	69.4961
 1.5040	69.4930
 1.5030	69.4661
 1.5020	69.4675
 1.5010	69.5320
 1.5000	69.4986
 1.4990	69.4450
 1.4980	69.4625
 1.4970	69.4213
 1.4960	69.3534
 1.4950	69.3734
 1.4940	69.3883
 1.4930	69.3373
 1.4920	69.3381
 1.4910	69.3427
 1.4900	69.3049
 1.4890	69.2623
 1.4880	69.2731
 1.4870	69.3044
 1.4860	69.3057
 1.4850	69.2774
 1.4840	69.2304
 1.4830	69.1473
 1.4820	69.1883
 1.4810	69.1886
 1.4800	69.1791
 1.4790	69.1908
 1.4780	69.1305
 1.4770	69.0356
 1.4760	69.0584
 1.4750	69.0089
 1.4740	69.0292
 1.4730	69.0303
 1.4720	69.0235
 1.4710	69.0909
 1.4700	69.0539
 1.4690	68.9252
 1.4680	68.8967
 1.4670	68.9048
 1.4660	68.9250
 1.4650	68.8642
 1.4640	68.7935
 1.4630	68.7140
 1.4620	68.7073
 1.4610	68.6815
 1.4600	68.6711
 1.4590	68.5717
 1.4580	68.5219
 1.4570	68.5197
 1.4560	68.5407
 1.4550	68.4382
 1.4540	68.3804
 1.4530	68.2944
 1.4520	68.2392
 1.4510	68.1598
 1.4500	68.1369
 1.4490	68.0750
 1.4480	68.0573
 1.4470	67.9566
 1.4460	67.9606
 1.4450	67.8507
 1.4440	67.8090
 1.4430	67.6728
 1.4420	67.5759
 1.4410	67.4458
 1.4400	67.3051
 1.4390	67.1079
 1.4380	66.9953
 1.4370	66.7284
 1.4360	66.3871
 1.4350	66.0395
 1.4340	65.6819
 1.4330	65.1289
 1.4320	64.5955
 1.4310	63.9992
 1.4300	63.2935
 1.4290	62.4648
 1.4280	61.4917
 1.4270	60.5102
 1.4260	59.4675
 1.4250	58.2378
 1.4240	57.0128
 1.4230	55.6801
 1.4220	54.2431
 1.4210	52.7170
 1.4200	51.1067
 1.4190	49.3348
 1.4180	47.7093
 1.4170	46.2102
 1.4160	44.8479
 1.4150	43.5640
 1.4140	42.7663
 1.4130	42.0864
 1.4120	42.1130
 1.4110	42.1919
 1.4100	42.4738
 1.4090	42.8332
 1.4080	43.4262
 1.4070	43.8396
 1.4060	44.3419
 1.4050	44.7454
 1.4040	45.4100
 1.4030	45.9738
 1.4020	46.8088
 1.4010	47.8220
 1.4000	48.9665
 1.3990	50.2503
 1.3980	51.7678
 1.3970	53.3559
 1.3960	55.3355
 1.3950	57.0544
 1.3940	58.7881
 1.3930	60.2784
 1.3920	61.6227
 1.3910	62.7456
 1.3900	63.6858
 1.3890	64.1596
 1.3880	64.7077
 1.3870	65.1311
 1.3860	65.3806
 1.3850	65.4759
 1.3840	65.6783
 1.3830	65.8139
 1.3820	65.8191
 1.3810	65.8815
 1.3800	66.0280
 1.3790	66.0358
 1.3780	66.0761
 1.3770	66.2170
 1.3760	66.2586
 1.3750	66.2674
 1.3740	66.3228
 1.3730	66.3228
 1.3720	66.4103
 1.3710	66.3283
 1.3700	66.3545
 1.3690	66.4384
 1.3680	66.6220
 1.3670	66.5037
 1.3660	66.6579
 1.3650	66.6472
 1.3640	66.6788
 1.3630	66.7705
 1.3620	66.7463
 1.3610	66.7308
 1.3600	66.8143
 1.3590	66.8291
 1.3580	66.8716
 1.3570	66.8349
 1.3560	66.8985
 1.3550	66.7315
 1.3540	66.8618
 1.3530	66.7361
 1.3520	66.7970
 1.3510	66.7897
 1.3500	66.7586
 1.3490	66.6525
 1.3480	66.6874
 1.3470	66.5785
 1.3460	66.6708
 1.3450	66.5689
 1.3440	66.5234
 1.3430	66.5100
 1.3420	66.4708
 1.3410	66.3997
 1.3400	66.2767
 1.3390	66.2707
 1.3380	66.2144
 1.3370	66.1472
 1.3360	66.2150
 1.3350	66.0784
 1.3340	66.0961
 1.3330	66.0738
 1.3320	65.9872
 1.3310	66.0277
 1.3300	65.9791
 1.3290	65.9301
 1.3280	65.9085
 1.3270	65.8368
 1.3260	65.8166
 1.3250	65.8073
 1.3240	65.8005
 1.3230	65.7270
 1.3220	65.7417
 1.3210	65.7783
 1.3200	65.7116
 1.3190	65.6922
 1.3180	65.6503
 1.3170	65.5916
 1.3160	65.6391
 1.3150	65.5955
 1.3140	65.6267
 1.3130	65.6760
 1.3120	65.5580
 1.3110	65.6243
 1.3100	65.5765
 1.3090	65.4950
 1.3080	65.5956
 1.3070	65.5646
 1.3060	65.5683
 1.3050	65.5793
 1.3040	65.6074
 1.3030	65.5214
 1.3020	65.5284
 1.3010	65.5379
 1.3000	65.5961
 1.2990	65.5150
 1.2980	65.5363
 1.2970	65.5278
 1.2960	65.5956
 1.2950	65.5058
 1.2940	65.5253
 1.2930	65.5954
 1.2920	65.5924
 1.2910	65.5458
 1.2900	65.5857
 1.2890	65.5690
 1.2880	65.6068
 1.2870	65.5755
 1.2860	65.5498
 1.2850	65.5562
 1.2840	65.6219
 1.2830	65.5836
 1.2820	65.5770
 1.2810	65.5984
 1.2800	65.5783
 1.2790	65.5113
 1.2780	65.5792
 1.2770	65.5405
 1.2760	65.4917
 1.2750	65.4162
 1.2740	65.4304
 1.2730	65.4368
 1.2720	65.4122
 1.2710	65.3747
 1.2700	65.3539
 1.2690	65.3827
 1.2680	65.3464
 1.2670	65.2787
 1.2660	65.2685
 1.2650	65.2622
 1.2640	65.2083
 1.2630	65.1556
 1.2620	65.1524
 1.2610	65.0606
 1.2600	65.0588
 1.2590	64.9949
 1.2580	64.9965
 1.2570	64.9319
 1.2560	64.8922
 1.2550	64.8090
 1.2540	64.7624
 1.2530	64.7480
 1.2520	64.7516
 1.2510	64.6598
 1.2500	64.5876
 1.2490	64.5824
 1.2480	64.6330
 1.2470	64.5834
 1.2460	64.4883
 1.2450	64.5544
 1.2440	64.5525
 1.2430	64.5060
 1.2420	64.5113
 1.2410	64.4926
 1.2400	64.5354
 1.2390	64.5066
 1.2380	64.4592
 1.2370	64.4718
 1.2360	64.5156
 1.2350	64.4623
 1.2340	64.3645
 1.2330	64.4030
 1.2320	64.4344
 1.2310	64.4041
 1.2300	64.3573
 1.2290	64.3124
 1.2280	64.3063
 1.2270	64.2455
 1.2260	64.2206
 1.2250	64.2210
 1.2240	64.2064
 1.2230	64.2008
 1.2220	64.1737
 1.2210	64.1267
 1.2200	64.0799
 1.2190	64.0515
 1.2180	64.0552
 1.2170	64.0030
 1.2160	63.9977
 1.2150	64.0002
 1.2140	63.9854
 1.2130	63.9605
 1.2120	63.8771
 1.2110	63.8446
 1.2100	63.8664
 1.2090	63.8727
 1.2080	63.8458
 1.2070	63.7864
 1.2060	63.7697
 1.2050	63.7400
 1.2040	63.6931
 1.2030	63.6370
 1.2020	63.6473
 1.2010	63.6832
 1.2000	63.5965
 1.1990	63.5770
 1.1980	63.5717
 1.1970	63.5709
 1.1960	63.5516
 1.1950	63.4509
 1.1940	63.4336
 1.1930	63.4195
 1.1920	63.3763
 1.1910	63.3720
 1.1900	63.3538
 1.1890	63.2991
 1.1880	63.2112
 1.1870	63.2394
 1.1860	63.2432
 1.1850	63.2403
 1.1840	63.2138
 1.1830	63.1587
 1.1820	63.0988
 1.1810	63.0803
 1.1800	63.0479
 1.1790	63.0685
 1.1780	63.0356
 1.1770	62.9669
 1.1760	62.9781
 1.1750	62.9279
 1.1740	62.9646
 1.1730	62.9058
 1.1720	62.8718
 1.1710	62.8667
 1.1700	62.8368
 1.1690	62.8257
 1.1680	62.7702
 1.1670	62.7315
 1.1660	62.6895
 1.1650	62.7202
 1.1640	62.6982
 1.1630	62.6649
 1.1620	62.6699
 1.1610	62.6867
 1.1600	62.6431
 1.1590	62.6217
 1.1580	62.5851
 1.1570	62.6152
 1.1560	62.5648
 1.1550	62.5862
 1.1540	62.5138
 1.1530	62.5612
 1.1520	62.4764
 1.1510	62.4502
 1.1500	62.4220
 1.1490	62.4204
 1.1480	62.3871
 1.1470	62.3677
 1.1460	62.3178
 1.1450	62.2725
 1.1440	62.2642
 1.1430	62.2355
 1.1420	62.2406
 1.1410	62.2928
 1.1400	62.2297
 1.1390	62.2061
 1.1380	62.1694
 1.1370	62.2978
 1.1360	62.1862
 1.1350	62.1594
 1.1340	62.0764
 1.1330	62.0815
 1.1320	62.1000
 1.1310	62.1264
 1.1300	62.0259
 1.1290	62.0025
 1.1280	61.9725
 1.1270	61.9530
 1.1260	62.0726
 1.1250	62.0595
 1.1240	61.9870
 1.1230	61.9603
 1.1220	61.9316
 1.1210	61.8830
 1.1200	61.8616
 1.1190	61.8826
 1.1180	61.7827
 1.1170	61.8713
 1.1160	61.8052
 1.1150	61.7974
 1.1140	61.7877
 1.1130	61.8562
 1.1120	61.7228
 1.1110	61.7768
 1.1100	61.6791
 1.1090	61.7262
 1.1080	61.6476
 1.1070	61.7425
 1.1060	61.6764
 1.1050	61.7326
 1.1040	61.6847
 1.1030	61.6901
 1.1020	61.6580
 1.1010	61.6734
 1.1000	61.6136
 1.0990	61.7309
 1.0980	61.5677
 1.0970	61.6126
 1.0960	61.6220
 1.0950	61.6829
 1.0940	61.5701
 1.0930	61.6071
 1.0920	61.4935
 1.0910	61.5589
 1.0900	61.5068
 1.0890	61.5797
 1.0880	61.6082
 1.0870	61.5544
 1.0860	61.5048
 1.0850	61.6220
 1.0840	61.4928
 1.0830	61.5131
 1.0820	61.3992
 1.0810	61.5159
 1.0800	61.4613
 1.0790	61.5116
 1.0780	61.4796
 1.0770	61.5937
 1.0760	61.4402
 1.0750	61.5592
 1.0740	61.4758
 1.0730	61.4668
 1.0720	61.3577
 1.0710	61.5915
 1.0700	61.3787
 1.0690	61.5226
 1.0680	61.4297
 1.0670	61.5213
 1.0660	61.3519
 1.0650	61.3592
 1.0640	61.4014
 1.0630	61.4458
 1.0620	61.3565
 1.0610	61.4353
 1.0600	61.3085
 1.0590	61.3960
 1.0580	61.3946
 1.0570	61.3665
 1.0560	61.3775
 1.0550	61.3849
 1.0540	61.3812
 1.0530	61.3620
 1.0520	61.3277
 1.0510	61.2918
 1.0500	61.2958
 1.0490	61.3905
 1.0480	61.3032
 1.0470	61.3676
 1.0460	61.3572
 1.0450	61.3320
 1.0440	61.2333
 1.0430	61.2937
 1.0420	61.2709
 1.0410	61.2979
 1.0400	61.1909
 1.0390	61.2009
 1.0380	61.3055
 1.0370	61.2749
 1.0360	61.2860
 1.0350	61.3033
 1.0340	61.2115
 1.0330	61.2328
 1.0320	61.2897
 1.0310	61.2292
 1.0300	61.1500
 1.0290	61.2597
 1.0280	61.1628
 1.0270	61.1661
 1.0260	61.0784
 1.0250	61.1304
 1.0240	61.0809
 1.0230	61.1061
 1.0220	61.0396
 1.0210	61.0667
 1.0200	61.0417
 1.0190	61.1076
 1.0180	60.9979
 1.0170	61.0312
 1.0160	61.0161
 1.0150	61.0774
 1.0140	60.9836
 1.0130	61.0062
 1.0120	61.0293
 1.0110	60.9722
 1.0100	60.9226
 1.0090	60.9677
 1.0080	60.9666
 1.0070	60.9469
 1.0060	60.9747
 1.0050	60.9367
 1.0040	60.8791
 1.0030	60.9628
 1.0020	60.8785
 1.0010	60.8805
 1.0000	60.7689
 0.9990	60.8133
 0.9980	60.7808
 0.9970	60.7598
 0.9960	60.7689
 0.9950	60.7641
 0.9940	60.7454
 0.9930	60.7316
 0.9920	60.7242
 0.9910	60.7333
 0.9900	60.6366
 0.9890	60.6258
 0.9880	60.5712
 0.9870	60.5350
 0.9860	60.5438
 0.9850	60.6065
 0.9840	60.5028
 0.9830	60.4459
 0.9820	60.4411
 0.9810	60.4209
 0.9800	60.3224
 0.9790	60.3119
 0.9780	60.2755
 0.9770	60.2098
 0.9760	60.1465
 0.9750	60.1172
 0.9740	60.0809
 0.9730	60.0028
 0.9720	59.8196
 0.9710	59.7218
 0.9700	59.5428
 0.9690	59.4283
 0.9680	59.3399
 0.9670	59.2715
 0.9660	59.1732
 0.9650	59.1032
 0.9640	59.0970
 0.9630	59.0576
 0.9620	59.0491
 0.9610	59.0818
 0.9600	59.0537
 0.9590	59.1211
 0.9580	59.1474
 0.9570	59.1723
 0.9560	59.2547
 0.9550	59.3257
 0.9540	59.3166
 0.9530	59.3892
 0.9520	59.4795
 0.9510	59.4822
 0.9500	59.4388
 0.9490	59.4609
 0.9480	59.4698
 0.9470	59.4274
 0.9460	59.4228
 0.9450	59.5193
 0.9440	59.4600
 0.9430	59.3475
 0.9420	59.3236
 0.9410	59.3182
 0.9400	59.3175
 0.9390	59.2740
 0.9380	59.2503
 0.9370	59.2893
 0.9360	59.2007
 0.9350	59.1482
 0.9340	59.1235
 0.9330	59.0843
 0.9320	59.0865
 0.9310	59.0436
 0.9300	59.0299
 0.9290	58.9901
 0.9280	58.9611
 0.9270	58.9758
 0.9260	58.9261
 0.9250	58.8419
 0.9240	58.8460
 0.9230	58.8379
 0.9220	58.8003
 0.9210	58.7684
 0.9200	58.7866
 0.9190	58.7440
 0.9180	58.6903
 0.9170	58.6743
 0.9160	58.6721
 0.9150	58.6604
 0.9140	58.5820
 0.9130	58.5529
 0.9120	58.6159
 0.9110	58.6202
 0.9100	58.5906
 0.9090	58.5230
 0.9080	58.5737
 0.9070	58.5531
 0.9060	58.5626
 0.9050	58.5033
 0.9040	58.4569
 0.9030	58.4696
 0.9020	58.5013
 0.9010	58.4511
 0.9000	58.4717
 0.8990	58.4479
 0.8980	58.4340
 0.8970	58.3595
 0.8960	58.3952
 0.8950	58.3578
 0.8940	58.4391
 0.8930	58.4359
 0.8920	58.4128
 0.8910	58.3902
 0.8900	58.3960
 0.8890	58.4620
 0.8880	58.4598
 0.8870	58.3755
 0.8860	58.4205
 0.8850	58.4754
 0.8840	58.4801
 0.8830	58.4518
 0.8820	58.4427
 0.8810	58.4757
 0.8800	58.4355
 0.8790	58.4343
 0.8780	58.4495
 0.8770	58.4380
 0.8760	58.4504
 0.8750	58.4687
 0.8740	58.5048
 0.8730	58.4184
 0.8720	58.5221
 0.8710	58.4583
 0.8700	58.4780
 0.8690	58.5278
 0.8680	58.5280
 0.8670	58.5955
 0.8660	58.5744
 0.8650	58.6119
 0.8640	58.6142
 0.8630	58.5837
 0.8620	58.5623
 0.8610	58.6379
 0.8600	58.9290
 0.8590	59.0472
 0.8580	58.9933
 0.8570	59.0717
 0.8560	59.0874
 0.8550	59.0960
 0.8540	59.1651
 0.8530	59.1663
 0.8520	59.2306
 0.8510	59.2388
 0.8500	59.2623
 0.8490	59.2989
 0.8480	59.3473
 0.8470	59.3796
 0.8460	59.3914
 0.8450	59.4211
 0.8440	59.4658
 0.8430	59.4324
 0.8420	59.4868
 0.8410	59.5358
 0.8400	59.5560
 0.8390	59.6165
 0.8380	59.6706
 0.8370	59.6751
 0.8360	59.7014
 0.8350	59.7722
 0.8340	59.8102
 0.8330	59.8400
 0.8320	59.8861
 0.8310	59.9076
 0.8300	59.9499
 0.8290	60.0041
 0.8280	60.0017
 0.8270	60.0590
 0.8260	60.1122
 0.8250	60.1081
 0.8240	60.1477
 0.8230	60.1823
 0.8220	60.1985
 0.8210	60.2577
 0.8200	60.3130
 0.8190	60.3367
 0.8180	60.3605
 0.8170	60.3765
 0.8160	60.4365
 0.8150	60.4531
 0.8140	60.5060
 0.8130	60.5112
 0.8120	60.5426
 0.8110	60.6021
 0.8100	60.6154
 0.8090	60.6583
 0.8080	60.6611
 0.8070	60.7049
 0.8060	60.7497
 0.8050	60.7763
 0.8040	60.7823
 0.8030	60.8339
 0.8020	60.8582
 0.8010	60.8773
 0.8000	60.9102
 0.7990	60.9312
 0.7980	60.9351
 0.7970	60.9270
 0.7960	60.9625
 0.7950	60.9595
 0.7940	61.0016
 0.7930	61.0227
 0.7920	61.0400
 0.7910	61.0450
 0.7900	61.1175
 0.7890	61.1149
 0.7880	61.1420
 0.7870	61.1134
 0.7860	61.1636
 0.7850	61.1807
 0.7840	61.2081
 0.7830	61.2085
 0.7820	61.2243
 0.7810	61.2706
 0.7800	61.2197
 0.7790	61.2964
 0.7780	61.2747
 0.7770	61.3213
 0.7760	61.3097
 0.7750	61.3218
 0.7740	61.3458
 0.7730	61.3432
 0.7720	61.3497
 0.7710	61.3473
 0.7700	61.3526
 0.7690	61.3687
 0.7680	61.4085
 0.7670	61.4111
 0.7660	61.4240
 0.7650	61.4220
 0.7640	61.4335
 0.7630	61.4274
 0.7620	61.4628
 0.7610	61.4446
 0.7600	61.4406
 0.7590	61.4775
 0.7580	61.4827
 0.7570	61.4856
 0.7560	61.4848
 0.7550	61.4757
 0.7540	61.4645
 0.7530	61.4860
 0.7520	61.4804
 0.7510	61.4822
 0.7500	61.4743
 0.7490	61.4805
 0.7480	61.4781
 0.7470	61.4568
 0.7460	61.4567
 0.7450	61.4179
 0.7440	61.3773
 0.7430	61.3782
 0.7420	61.4129
 0.7410	61.3646
 0.7400	61.3548
 0.7390	61.3568
 0.7380	61.3773
 0.7370	61.3608
 0.7360	61.3412
 0.7350	61.3096
 0.7340	61.3500
 0.7330	61.3433
 0.7320	61.3378
 0.7310	61.2965
 0.7300	61.3061
 0.7290	61.3073
 0.7280	61.2894
 0.7270	61.2389
 0.7260	61.2490
 0.7250	61.2359
 0.7240	61.2171
 0.7230	61.2031
 0.7220	61.1626
 0.7210	61.1476
 0.7200	61.1268
 0.7190	61.0959
 0.7180	61.0709
 0.7170	61.0197
 0.7160	60.9984
 0.7150	60.9660
 0.7140	60.9502
 0.7130	60.9142
 0.7120	60.8852
 0.7110	60.8534
 0.7100	60.8124
 0.7090	60.7919
 0.7080	60.7602
 0.7070	60.7210
 0.7060	60.7033
 0.7050	60.6633
 0.7040	60.6402
 0.7030	60.6177
 0.7020	60.5882
 0.7010	60.5595
 0.7000	60.5269
 0.6990	60.5072
 0.6980	60.4683
 0.6970	60.4481
 0.6960	60.4153
 0.6950	60.3658
 0.6940	60.3385
 0.6930	60.3151
 0.6920	60.2588
 0.6910	60.2310
 0.6900	60.1986
 0.6890	60.1633
 0.6880	60.1249
 0.6870	60.0791
 0.6860	60.0450
 0.6850	60.0063
 0.6840	59.9685
 0.6830	59.9459
 0.6820	59.9028
 0.6810	59.8641
 0.6800	59.8278
 0.6790	59.7832
 0.6780	59.7420
 0.6770	59.7084
 0.6760	59.6758
 0.6750	59.6488
 0.6740	59.6061
 0.6730	59.5654
 0.6720	59.5353
 0.6710	59.4919
 0.6700	59.4619
 0.6690	59.4101
 0.6680	59.3598
 0.6670	59.3164
 0.6660	59.2779
 0.6650	59.2468
 0.6640	59.2004
 0.6630	59.1663
 0.6620	59.1358
 0.6610	59.0934
 0.6600	59.0538
 0.6590	59.0002
 0.6580	58.9464
 0.6570	58.9121
 0.6560	58.8820
 0.6550	58.8512
 0.6540	58.7930
 0.6530	58.7506
 0.6520	58.7242
 0.6510	58.6891
 0.6500	58.6440
 0.6490	58.5938
 0.6480	58.5571
 0.6470	58.5159
 0.6460	58.4736
 0.6450	58.4235
 0.6440	58.3802
 0.6430	58.3266
 0.6420	58.2780
 0.6410	58.2392
 0.6400	58.1936
 0.6390	58.1498
 0.6380	58.0867
 0.6370	58.0320
 0.6360	57.9892
 0.6350	57.9495
 0.6340	57.9093
 0.6330	57.8522
 0.6320	57.8125
 0.6310	57.7722
 0.6300	57.7074
 0.6290	57.6693
 0.6280	57.6315
 0.6270	57.5884
 0.6260	57.5408
 0.6250	57.4876
 0.6240	57.4353
 0.6230	57.3758
 0.6220	57.3267
 0.6210	57.2780
 0.6200	57.2267
 0.6190	57.1652
 0.6180	57.0999
 0.6170	57.0540
 0.6160	57.0111
 0.6150	56.9534
 0.6140	56.8897
 0.6130	56.8281
 0.6120	56.7766
 0.6110	56.7314
 0.6100	56.6677
 0.6090	56.6033
 0.6080	56.5445
 0.6070	56.4873
 0.6060	56.4232
 0.6050	56.3594
 0.6040	56.3135
 0.6030	56.2463
 0.6020	56.1867
 0.6010	56.1210
 0.6000	56.0602
 0.5990	56.0049
 0.5980	55.9409
 0.5970	55.8799
 0.5960	55.8110
 0.5950	55.7596
 0.5940	55.6927
 0.5930	55.6306
 0.5920	55.5452
 0.5910	55.4783
 0.5900	55.4082
 0.5890	55.3332
 0.5880	55.2559
 0.5870	55.1717
 0.5860	55.0967
 0.5850	55.0201
 0.5840	54.9323
 0.5830	54.8424
 0.5820	54.7601
 0.5810	54.6913
 0.5800	54.6199
 0.5790	54.5521
 0.5780	54.4816
 0.5770	54.4051
 0.5760	54.3191
 0.5750	54.2496
 0.5740	54.1770
 0.5730	54.1049
 0.5720	54.0460
 0.5710	53.9697
 0.5700	53.8972
 0.5690	53.8211
 0.5680	53.7593
 0.5670	53.6913
 0.5660	53.6267
 0.5650	53.5550
 0.5640	53.4819
 0.5630	53.4114
 0.5620	53.3386
 0.5610	53.2226
 0.5600	53.1248
 0.5590	53.0474
 0.5580	52.9652
 0.5570	52.8728
 0.5560	52.7932
 0.5550	52.6936
 0.5540	52.6057
 0.5530	52.5090
 0.5520	52.4113
 0.5510	52.2992
 0.5500	52.2062
 0.5490	52.0977
 0.5480	51.9835
 0.5470	51.8785
 0.5460	51.7647
 0.5450	51.6510
 0.5440	51.5329
 0.5430	51.4185
 0.5420	51.2974
 0.5410	51.1796
 0.5400	51.0501
 0.5390	50.9399
 0.5380	50.8202
 0.5370	50.7001
 0.5360	50.5759
 0.5350	50.4569
 0.5340	50.3248
 0.5330	50.1997
 0.5320	50.0786
 0.5310	49.9517
 0.5300	49.8266
 0.5290	49.6978
 0.5280	49.5748
 0.5270	49.4463
 0.5260	49.3227
 0.5250	49.2040
 0.5240	49.0788
 0.5230	48.9697
 0.5220	48.8534
 0.5210	48.7176
 0.5200	48.5806
 0.5190	48.4578
 0.5180	48.3264
 0.5170	48.1957
 0.5160	48.0550
 0.5150	47.9351
 0.5140	47.7861
 0.5130	47.6540
 0.5120	47.5350
 0.5110	47.4042
 0.5100	47.2651
 0.5090	47.1615
 0.5080	47.0233
 0.5070	46.8992
 0.5060	46.7905
 0.5050	46.6747
 0.5040	46.5755
 0.5030	46.4506
 0.5020	46.3607
 0.5010	46.2731
 0.5000	46.1737
 0.4990	46.0731
 0.4980	45.9753
 0.4970	45.9056
 0.4960	45.8247
 0.4950	45.7186
 0.4940	45.6209
 0.4930	45.5337
 0.4920	45.4254
 0.4910	45.3078
 0.4900	45.1718
 0.4890	45.0562
 0.4880	44.9196
 0.4870	44.8002
 0.4860	44.6723
 0.4850	44.5395
 0.4840	44.4127
 0.4830	44.2770
 0.4820	44.1855
 0.4810	44.1025
 0.4800	44.0086
 0.4790	43.9201
 0.4780	43.8274
 0.4770	43.7386
 0.4760	43.6351
 0.4750	43.5240
 0.4740	43.4024
 0.4730	43.3061
 0.4720	43.2138
 0.4710	43.1250
 0.4700	43.0313
 0.4690	42.9541
 0.4680	42.8685
 0.4670	42.8075
 0.4660	42.7253
 0.4650	42.6410
 0.4640	42.5676
 0.4630	42.4685
 0.4620	42.3666
 0.4610	42.2594
 0.4600	42.1617
 0.4590	42.0395
 0.4580	41.9286
 0.4570	41.8188
 0.4560	41.6747
 0.4550	41.5358
 0.4540	41.3900
 0.4530	41.2392
 0.4520	41.0785
 0.4510	40.9143
 0.4500	40.7567
 0.4490	40.5746
 0.4480	40.3870
 0.4470	40.1916
 0.4460	39.9601
 0.4450	39.7636
 0.4440	39.5467
 0.4430	39.3340
 0.4420	39.1488
 0.4410	38.9667
 0.4400	38.7903
 0.4390	38.6251
 0.4380	38.4613
 0.4370	38.2832
 0.4360	38.1222
 0.4350	37.9502
 0.4340	37.7476
 0.4330	37.5757
 0.4320	37.3926
 0.4310	37.2034
 0.4300	37.0498
 0.4290	36.8601
 0.4280	36.6767
 0.4270	36.4908
 0.4260	36.3035
 0.4250	36.1164
 0.4240	35.9242
 0.4230	35.7550
 0.4220	35.5753
 0.4210	35.3837
 0.4200	35.2147
 0.4190	35.0197
 0.4180	34.8497
 0.4170	34.6770
 0.4160	34.5243
 0.4150	34.3876
 0.4140	34.2141
 0.4130	34.0432
 0.4120	33.8709
 0.4110	33.6961
 0.4100	33.5335
 0.4090	33.3656
 0.4080	33.1870
 0.4070	33.0066
 0.4060	32.8217
 0.4050	32.6455
 0.4040	32.4677
 0.4030	32.2714
 0.4020	32.0977
 0.4010	31.9090
 0.4000	31.7166
