Name: Natrolite Na_2Al_2Si_3O_10.2H_2O
Type: Mineral
Class: Silicate
Subclass: Tectosilicate
Particle Size: Medium
Sample No.: TS-8A
Owner: JPL
Wavelength Range: VSWIR
Origin: India, Maharashtra, Poona
Collection Date: N/A
Description: Particle size was 45-125um.Collected by Ward's Original ASTER Spectral Library name was jpl.beckman.mineral.silicate.tectosilicate.medium.ts08a.spectrum.txt
Measurement: Hemispherical reflectance
First Column: X
Second Column: Y
X Units: Wavelength (micrometers)
Y Units:Reflectance (percent)
First X Value:  0.4000
Last X Value:  2.5000
Number of X Values: 826
Additional Information: mineral.silicate.tectosilicate.medium.vswir.ts-8a.jpl.beckman.ancillary.txt

 0.4000	75.8000
 0.4010	75.7800
 0.4020	75.8700
 0.4030	75.9300
 0.4040	76.0400
 0.4050	76.0900
 0.4060	76.0500
 0.4070	76.1100
 0.4080	76.2200
 0.4090	76.3200
 0.4100	76.3300
 0.4110	76.3700
 0.4120	76.4000
 0.4130	76.5500
 0.4140	76.5400
 0.4150	76.5700
 0.4160	76.5200
 0.4170	76.4900
 0.4180	76.4700
 0.4190	76.6400
 0.4200	76.6200
 0.4210	76.6700
 0.4220	76.7600
 0.4230	76.9000
 0.4240	76.9300
 0.4250	76.8600
 0.4260	76.8700
 0.4270	76.9300
 0.4280	77.0500
 0.4290	77.0500
 0.4300	77.1200
 0.4310	77.0800
 0.4320	77.2000
 0.4330	77.2700
 0.4340	77.3400
 0.4350	77.3800
 0.4360	77.3800
 0.4370	77.4200
 0.4380	77.5500
 0.4390	77.6700
 0.4400	77.6000
 0.4410	77.7500
 0.4420	77.7200
 0.4430	77.8400
 0.4440	77.8000
 0.4450	77.8500
 0.4460	77.7300
 0.4470	77.8200
 0.4480	78.0100
 0.4490	78.0600
 0.4500	78.0600
 0.4510	78.0600
 0.4520	78.2100
 0.4530	78.4000
 0.4540	78.3800
 0.4550	78.3100
 0.4560	78.3900
 0.4570	78.4400
 0.4580	78.6000
 0.4590	78.6200
 0.4600	78.7500
 0.4610	78.7300
 0.4620	78.7900
 0.4630	78.8900
 0.4640	78.9100
 0.4650	78.9100
 0.4660	79.0000
 0.4670	79.1600
 0.4680	79.1800
 0.4690	79.1000
 0.4700	79.1500
 0.4710	79.1700
 0.4720	79.3100
 0.4730	79.3600
 0.4740	79.4200
 0.4750	79.4800
 0.4760	79.5200
 0.4770	79.6800
 0.4780	79.7100
 0.4790	79.7400
 0.4800	79.6600
 0.4810	79.7900
 0.4820	80.0000
 0.4830	80.0600
 0.4840	80.0300
 0.4850	79.9700
 0.4860	80.0500
 0.4870	80.1100
 0.4880	80.2500
 0.4890	80.2300
 0.4900	80.3200
 0.4910	80.4700
 0.4920	80.5700
 0.4930	80.6000
 0.4940	80.5100
 0.4950	80.6500
 0.4960	80.7200
 0.4970	80.7900
 0.4980	80.9200
 0.4990	80.8800
 0.5000	80.9600
 0.5010	80.9700
 0.5020	81.1600
 0.5030	81.1600
 0.5040	81.2700
 0.5050	81.3300
 0.5060	81.4000
 0.5070	81.5100
 0.5080	81.3900
 0.5090	81.4300
 0.5100	81.6000
 0.5110	81.6500
 0.5120	81.8100
 0.5130	81.8000
 0.5140	81.8100
 0.5150	81.8000
 0.5160	81.9400
 0.5170	82.0800
 0.5180	82.0100
 0.5190	82.0500
 0.5200	82.0600
 0.5210	82.1500
 0.5220	82.2000
 0.5230	82.1900
 0.5240	82.2800
 0.5250	82.3500
 0.5260	82.5600
 0.5270	82.5600
 0.5280	82.5100
 0.5290	82.4900
 0.5300	82.5100
 0.5310	82.6700
 0.5320	82.6300
 0.5330	82.6900
 0.5340	82.7900
 0.5350	82.8200
 0.5360	82.9800
 0.5370	82.8600
 0.5380	82.8600
 0.5390	82.9900
 0.5400	83.0000
 0.5410	83.1300
 0.5420	83.0300
 0.5430	83.0900
 0.5440	83.1000
 0.5450	83.1700
 0.5460	83.3600
 0.5470	83.2700
 0.5480	83.2800
 0.5490	83.3600
 0.5500	83.5100
 0.5510	83.5300
 0.5520	83.5600
 0.5530	83.6200
 0.5540	83.6700
 0.5550	83.8200
 0.5560	83.6900
 0.5570	83.6900
 0.5580	83.6000
 0.5590	83.6000
 0.5600	83.8400
 0.5610	84.3700
 0.5620	84.2000
 0.5630	84.2100
 0.5640	84.2300
 0.5650	84.2400
 0.5660	84.3100
 0.5670	84.2500
 0.5680	84.3100
 0.5690	84.3600
 0.5700	84.2400
 0.5710	84.1200
 0.5720	84.1200
 0.5730	84.1400
 0.5740	84.1000
 0.5750	84.0800
 0.5760	84.0400
 0.5770	84.1400
 0.5780	84.1200
 0.5790	84.1500
 0.5800	84.1600
 0.5810	84.0600
 0.5820	84.1200
 0.5830	84.2400
 0.5840	84.1700
 0.5850	84.1500
 0.5860	84.0300
 0.5870	84.0900
 0.5880	84.2600
 0.5890	84.3300
 0.5900	84.2700
 0.5910	84.3200
 0.5920	84.3900
 0.5930	84.5200
 0.5940	84.3500
 0.5950	84.2900
 0.5960	84.4100
 0.5970	84.5300
 0.5980	84.5100
 0.5990	84.5000
 0.6000	84.5200
 0.6010	84.5900
 0.6020	84.6800
 0.6030	84.7500
 0.6040	84.6400
 0.6050	84.5900
 0.6060	84.6200
 0.6070	84.6600
 0.6080	84.6600
 0.6090	84.5700
 0.6100	84.6700
 0.6110	84.6900
 0.6120	84.6200
 0.6130	84.6200
 0.6140	84.6600
 0.6150	84.6400
 0.6160	84.7000
 0.6170	84.7100
 0.6180	84.6200
 0.6190	84.6300
 0.6200	84.6300
 0.6210	84.7300
 0.6220	84.6800
 0.6230	84.6400
 0.6240	84.6300
 0.6250	84.7300
 0.6260	84.6000
 0.6270	84.6000
 0.6280	84.7400
 0.6290	84.7500
 0.6300	84.9200
 0.6310	84.8000
 0.6320	84.6100
 0.6330	84.7400
 0.6340	84.8000
 0.6350	84.8500
 0.6360	84.6800
 0.6370	84.6700
 0.6380	84.8200
 0.6390	84.8800
 0.6400	84.7100
 0.6410	84.7300
 0.6420	84.6800
 0.6430	84.7400
 0.6440	84.9000
 0.6450	84.9200
 0.6460	84.8600
 0.6470	84.7600
 0.6480	84.8100
 0.6490	84.7900
 0.6500	84.8400
 0.6510	84.7600
 0.6520	84.7700
 0.6530	84.9500
 0.6540	84.8500
 0.6550	84.8500
 0.6560	84.7900
 0.6570	84.8400
 0.6580	84.8500
 0.6590	84.9700
 0.6600	84.9800
 0.6610	84.8100
 0.6620	84.9200
 0.6630	84.8900
 0.6640	85.0000
 0.6650	84.9400
 0.6660	84.9000
 0.6670	84.8700
 0.6680	85.0400
 0.6690	84.9700
 0.6700	84.9000
 0.6710	85.0400
 0.6720	84.9700
 0.6730	85.1400
 0.6740	85.0300
 0.6750	84.9500
 0.6760	85.0600
 0.6770	85.0100
 0.6780	85.0200
 0.6790	85.0400
 0.6800	85.0400
 0.6810	85.0300
 0.6820	85.0200
 0.6830	85.0800
 0.6840	85.0300
 0.6850	85.1100
 0.6860	85.1600
 0.6870	85.2000
 0.6880	85.2400
 0.6890	85.0600
 0.6900	85.0800
 0.6910	85.2100
 0.6920	85.2100
 0.6930	85.0900
 0.6940	85.0900
 0.6950	85.1500
 0.6960	85.1000
 0.6970	85.2000
 0.6980	85.0600
 0.6990	85.0100
 0.7000	85.1600
 0.7010	85.1100
 0.7020	84.9700
 0.7030	84.9700
 0.7040	85.0300
 0.7050	85.0400
 0.7060	85.0300
 0.7070	85.1400
 0.7080	85.0700
 0.7090	85.1300
 0.7100	84.9800
 0.7110	85.0500
 0.7120	85.1500
 0.7130	84.9800
 0.7140	85.0900
 0.7150	85.0300
 0.7160	85.1600
 0.7170	85.2700
 0.7180	85.1400
 0.7190	85.1400
 0.7200	85.0900
 0.7210	85.1700
 0.7220	85.2800
 0.7230	85.1600
 0.7240	85.0400
 0.7250	85.1100
 0.7260	85.2300
 0.7270	85.1100
 0.7280	85.1600
 0.7290	85.1400
 0.7300	85.1400
 0.7310	85.2100
 0.7320	85.2100
 0.7330	85.2100
 0.7340	85.1600
 0.7350	85.2200
 0.7360	85.2300
 0.7370	85.3300
 0.7380	85.2100
 0.7390	85.1400
 0.7400	85.2600
 0.7410	85.2200
 0.7420	85.1800
 0.7430	85.0600
 0.7440	85.1200
 0.7450	85.1800
 0.7460	85.2300
 0.7470	85.1700
 0.7480	85.1600
 0.7490	85.2100
 0.7500	85.1100
 0.7510	85.1800
 0.7520	85.0100
 0.7530	85.0600
 0.7540	85.2300
 0.7550	85.1200
 0.7560	85.1200
 0.7570	84.9500
 0.7580	85.0500
 0.7590	85.1700
 0.7600	85.1200
 0.7610	85.0700
 0.7620	85.1800
 0.7630	85.2500
 0.7640	85.3200
 0.7650	85.1500
 0.7660	85.1400
 0.7670	85.2400
 0.7680	85.3500
 0.7690	85.3600
 0.7700	85.3500
 0.7710	85.2000
 0.7720	85.2000
 0.7730	85.4300
 0.7740	85.4200
 0.7750	85.3000
 0.7760	85.2900
 0.7770	85.4100
 0.7780	85.5400
 0.7790	85.4800
 0.7800	85.3600
 0.7810	85.5400
 0.7820	85.6000
 0.7830	85.4300
 0.7840	85.4700
 0.7850	85.3600
 0.7860	85.4300
 0.7870	85.5500
 0.7880	85.6500
 0.7890	85.5900
 0.7900	85.4700
 0.7910	85.5500
 0.7920	85.6100
 0.7930	85.6600
 0.7940	85.5300
 0.7950	85.6400
 0.7960	85.7600
 0.7970	85.5800
 0.7980	85.6700
 0.7990	85.5400
 0.8000	85.7200
 0.8040	85.8300
 0.8080	85.8200
 0.8120	85.8300
 0.8160	85.9300
 0.8200	85.9100
 0.8240	85.9300
 0.8280	85.7800
 0.8320	85.9000
 0.8360	85.8600
 0.8400	85.8500
 0.8440	85.8900
 0.8480	85.8900
 0.8520	86.0000
 0.8560	85.9600
 0.8600	86.0500
 0.8640	86.1000
 0.8680	86.0600
 0.8720	86.0900
 0.8760	86.1000
 0.8800	85.9900
 0.8840	85.9200
 0.8880	85.9300
 0.8920	86.0500
 0.8960	86.0300
 0.9000	86.0400
 0.9040	85.9800
 0.9080	85.9300
 0.9120	85.9200
 0.9160	85.8700
 0.9200	85.8200
 0.9240	85.7500
 0.9280	85.6200
 0.9320	85.6900
 0.9360	85.6800
 0.9400	85.6400
 0.9440	85.6300
 0.9480	85.5500
 0.9520	85.3200
 0.9560	85.0900
 0.9600	84.8000
 0.9640	84.5300
 0.9680	84.4900
 0.9720	84.3000
 0.9760	84.1400
 0.9800	84.1400
 0.9840	84.2000
 0.9880	84.3300
 0.9920	84.4900
 0.9960	84.6600
 1.0000	84.8000
 1.0040	85.1600
 1.0080	85.2700
 1.0120	85.3200
 1.0160	85.4900
 1.0200	85.5800
 1.0240	85.6800
 1.0280	85.9300
 1.0320	85.9900
 1.0360	86.0800
 1.0400	86.1500
 1.0440	86.2300
 1.0480	86.1500
 1.0520	86.1800
 1.0560	86.3000
 1.0600	86.2500
 1.0640	86.4000
 1.0680	86.4300
 1.0720	86.4300
 1.0760	86.3600
 1.0800	86.3400
 1.0840	86.3200
 1.0880	86.2900
 1.0920	86.2400
 1.0960	86.2400
 1.1000	86.2900
 1.1040	86.3300
 1.1080	86.3500
 1.1120	86.3500
 1.1160	86.3600
 1.1200	86.4500
 1.1240	86.4400
 1.1280	86.2800
 1.1320	86.2200
 1.1360	85.8900
 1.1400	85.7400
 1.1440	85.3500
 1.1480	84.9800
 1.1520	84.3900
 1.1560	83.7800
 1.1600	83.3000
 1.1640	82.9300
 1.1680	82.6400
 1.1720	82.2300
 1.1760	81.7100
 1.1800	81.7600
 1.1840	82.2600
 1.1880	82.9200
 1.1920	83.2500
 1.1960	83.2000
 1.2000	83.1400
 1.2040	82.9500
 1.2080	83.0300
 1.2120	83.1800
 1.2160	83.2900
 1.2200	83.3600
 1.2240	83.2400
 1.2280	83.2400
 1.2320	83.1600
 1.2360	83.1400
 1.2400	83.0700
 1.2440	83.0300
 1.2480	83.1100
 1.2520	83.2300
 1.2560	83.3400
 1.2600	83.4100
 1.2640	83.3800
 1.2680	83.5300
 1.2720	83.5600
 1.2760	83.6900
 1.2800	83.6600
 1.2840	83.6900
 1.2880	83.7100
 1.2920	83.6000
 1.2960	83.4900
 1.3000	83.4400
 1.3040	83.2700
 1.3080	82.9500
 1.3120	82.4800
 1.3160	81.7700
 1.3200	80.9000
 1.3240	79.6100
 1.3280	78.2600
 1.3320	77.3600
 1.3360	77.2000
 1.3400	77.3400
 1.3440	77.3200
 1.3480	77.1000
 1.3520	76.9300
 1.3560	77.0900
 1.3600	77.4600
 1.3640	77.6500
 1.3680	77.6700
 1.3720	77.4900
 1.3760	77.0700
 1.3800	76.6400
 1.3840	75.9100
 1.3880	75.3200
 1.3920	74.2900
 1.3960	72.8800
 1.4000	71.2700
 1.4040	69.1100
 1.4080	66.9100
 1.4120	64.5900
 1.4160	62.4300
 1.4200	60.5800
 1.4240	59.0000
 1.4280	58.0000
 1.4320	57.2500
 1.4360	56.6900
 1.4400	55.6400
 1.4440	53.8400
 1.4480	51.5000
 1.4520	49.9300
 1.4560	50.5500
 1.4600	53.2200
 1.4640	56.4700
 1.4680	58.8400
 1.4720	60.1500
 1.4760	60.1900
 1.4800	59.3800
 1.4840	58.9000
 1.4880	59.6000
 1.4920	61.3700
 1.4960	63.2100
 1.5000	64.4500
 1.5040	65.3900
 1.5080	66.0000
 1.5120	66.4300
 1.5160	66.7300
 1.5200	67.0500
 1.5240	67.1300
 1.5280	67.1800
 1.5320	67.1100
 1.5360	66.8800
 1.5400	66.6200
 1.5440	66.3400
 1.5480	65.9800
 1.5520	65.8000
 1.5560	65.6900
 1.5600	65.6200
 1.5640	65.7700
 1.5680	65.9800
 1.5720	66.0100
 1.5760	66.1100
 1.5800	66.0800
 1.5840	65.9100
 1.5880	65.9000
 1.5920	65.8100
 1.5960	65.7500
 1.6000	65.7800
 1.6040	65.8900
 1.6080	66.1400
 1.6120	66.2600
 1.6160	66.5800
 1.6200	66.8000
 1.6240	67.0900
 1.6280	67.3200
 1.6320	67.5700
 1.6360	67.8600
 1.6400	68.2500
 1.6440	68.6200
 1.6480	68.9000
 1.6520	69.2800
 1.6560	69.6900
 1.6600	70.0800
 1.6640	70.4500
 1.6680	70.8100
 1.6720	71.0200
 1.6760	71.3700
 1.6800	71.7300
 1.6840	71.9100
 1.6880	72.0900
 1.6920	72.2700
 1.6960	72.4100
 1.7000	72.5400
 1.7040	72.7200
 1.7080	72.7100
 1.7120	72.9300
 1.7160	73.0400
 1.7200	72.9400
 1.7240	72.8100
 1.7280	72.5600
 1.7320	72.3600
 1.7360	72.2900
 1.7400	72.2600
 1.7440	72.1800
 1.7480	71.9300
 1.7520	71.1800
 1.7560	70.3700
 1.7600	69.5400
 1.7640	69.1800
 1.7680	69.1100
 1.7720	69.6100
 1.7760	70.0400
 1.7800	70.5200
 1.7840	70.7500
 1.7880	70.6600
 1.7920	70.5000
 1.7960	70.1500
 1.8000	69.5300
 1.8040	68.9500
 1.8080	68.3700
 1.8120	68.0600
 1.8160	67.9700
 1.8200	68.1800
 1.8240	68.5700
 1.8280	69.1300
 1.8320	69.5000
 1.8360	69.7800
 1.8400	69.9200
 1.8440	69.7800
 1.8480	69.4600
 1.8520	68.9300
 1.8560	68.1700
 1.8600	67.1000
 1.8640	65.6100
 1.8680	63.5200
 1.8720	60.9900
 1.8760	57.8100
 1.8800	54.3300
 1.8840	50.5000
 1.8880	46.6700
 1.8920	42.9000
 1.8960	39.2500
 1.9000	35.9300
 1.9040	32.9400
 1.9080	30.1200
 1.9120	27.3100
 1.9160	24.4600
 1.9200	21.5000
 1.9240	18.4800
 1.9280	15.6700
 1.9320	13.6800
 1.9360	12.8000
 1.9400	13.2200
 1.9440	15.1800
 1.9480	18.2100
 1.9520	21.5800
 1.9560	24.8200
 1.9600	27.5600
 1.9640	29.4500
 1.9680	30.5400
 1.9720	30.9200
 1.9760	30.8300
 1.9800	30.2800
 1.9840	29.6100
 1.9880	28.8300
 1.9920	28.1100
 1.9960	27.4700
 2.0000	27.1400
 2.0040	27.0100
 2.0080	27.1900
 2.0120	27.8100
 2.0160	28.7800
 2.0200	30.1100
 2.0240	31.5700
 2.0280	33.1800
 2.0320	34.7600
 2.0360	36.3200
 2.0400	37.6300
 2.0440	38.7800
 2.0480	39.5300
 2.0520	40.0900
 2.0560	40.4300
 2.0600	40.5000
 2.0640	40.4200
 2.0680	40.3800
 2.0720	40.2700
 2.0760	40.2800
 2.0800	40.5000
 2.0840	40.8400
 2.0880	41.5400
 2.0920	42.5600
 2.0960	43.6800
 2.1000	44.9500
 2.1040	46.2500
 2.1080	47.4500
 2.1120	48.5000
 2.1160	49.4700
 2.1200	50.1200
 2.1240	50.6900
 2.1280	51.0200
 2.1320	51.2200
 2.1360	51.2900
 2.1400	51.2600
 2.1440	51.0600
 2.1480	50.8300
 2.1520	50.5100
 2.1560	50.1700
 2.1600	49.9900
 2.1640	49.6700
 2.1680	49.5000
 2.1720	49.0500
 2.1760	48.4100
 2.1800	47.8800
 2.1840	47.2500
 2.1880	46.6900
 2.1920	46.4800
 2.1960	46.5700
 2.2000	47.2000
 2.2040	48.0500
 2.2080	49.2900
 2.2120	50.5600
 2.2160	52.0300
 2.2200	53.3100
 2.2240	54.4400
 2.2280	55.3500
 2.2320	56.1300
 2.2360	56.6300
 2.2400	57.1900
 2.2440	57.4400
 2.2480	57.5500
 2.2520	57.5800
 2.2560	57.4700
 2.2600	57.3900
 2.2640	57.2000
 2.2680	57.1000
 2.2720	57.0700
 2.2760	57.1500
 2.2800	57.2800
 2.2840	57.4400
 2.2880	57.6600
 2.2920	57.6700
 2.2960	57.6800
 2.3000	57.5900
 2.3040	57.4400
 2.3080	56.8400
 2.3120	56.3400
 2.3160	55.8400
 2.3200	55.2800
 2.3240	54.5200
 2.3280	53.7300
 2.3320	52.9900
 2.3360	52.3300
 2.3400	51.5700
 2.3440	50.9100
 2.3480	50.1500
 2.3520	49.4200
 2.3560	48.6400
 2.3600	47.7900
 2.3640	47.0000
 2.3680	46.0900
 2.3720	45.3700
 2.3760	44.6400
 2.3800	43.6800
 2.3840	42.7700
 2.3880	41.6500
 2.3920	40.3600
 2.3960	38.8000
 2.4000	37.1300
 2.4040	35.2200
 2.4080	33.3800
 2.4120	31.4900
 2.4160	29.9800
 2.4200	28.6400
 2.4240	27.6700
 2.4280	27.2000
 2.4320	26.8800
 2.4360	26.9400
 2.4400	27.1900
 2.4440	27.5400
 2.4480	28.1000
 2.4520	28.7000
 2.4560	29.4200
 2.4600	30.3500
 2.4640	31.2100
 2.4680	32.2400
 2.4720	33.2400
 2.4760	34.3400
 2.4800	35.3900
 2.4840	36.3800
 2.4880	37.2500
 2.4920	38.0600
 2.4960	38.6900
 2.5000	39.3100
