Name: Tincalconite Na_2B_4O_5(OH)_4.3H_2O
Type: Mineral
Class: Borate
Subclass: None
Particle Size: Medium
Sample No.: B-4A
Owner: JPL
Wavelength Range: VSWIR
Origin: USA, California, Kern County, Boron
Collection Date: N/A
Description: Particle size was 45-125um.Collected by Burminco Original ASTER Spectral Library name was jpl.beckman.mineral.borate.none.medium.b04.spectrum.txt
Measurement: Hemispherical reflectance
First Column: X
Second Column: Y
X Units: Wavelength (micrometers)
Y Units:Reflectance (percent)
First X Value:  0.4000
Last X Value:  2.5000
Number of X Values: 826
Additional Information: mineral.borate.none.medium.vswir.b-4a.jpl.beckman.ancillary.txt

 0.4000	89.1500
 0.4010	89.3300
 0.4020	89.3900
 0.4030	89.3300
 0.4040	89.4500
 0.4050	89.6800
 0.4060	89.8600
 0.4070	89.9200
 0.4080	89.9200
 0.4090	90.1400
 0.4100	90.4300
 0.4110	90.3200
 0.4120	90.2600
 0.4130	90.4300
 0.4140	90.3200
 0.4150	90.4900
 0.4160	90.7300
 0.4170	90.6100
 0.4180	90.5500
 0.4190	90.7300
 0.4200	90.9600
 0.4210	91.3200
 0.4220	91.3200
 0.4230	91.0200
 0.4240	90.8500
 0.4250	91.0200
 0.4260	91.1400
 0.4270	91.2000
 0.4280	91.0800
 0.4290	91.0800
 0.4300	91.0800
 0.4310	91.3200
 0.4320	91.3700
 0.4330	91.2600
 0.4340	91.2600
 0.4350	91.2000
 0.4360	91.4900
 0.4370	91.5400
 0.4380	91.6600
 0.4390	91.4300
 0.4400	91.4300
 0.4410	91.6600
 0.4420	91.6600
 0.4430	91.7200
 0.4440	91.5400
 0.4450	91.6000
 0.4460	92.0100
 0.4470	92.0700
 0.4480	92.1900
 0.4490	91.8900
 0.4500	91.8900
 0.4510	92.1900
 0.4520	92.3600
 0.4530	92.3700
 0.4540	92.2500
 0.4550	92.1400
 0.4560	92.6100
 0.4570	92.7200
 0.4580	92.8400
 0.4590	92.7300
 0.4600	92.6200
 0.4610	92.2100
 0.4620	92.3800
 0.4630	92.6300
 0.4640	92.7300
 0.4650	92.7300
 0.4660	92.3900
 0.4670	92.5100
 0.4680	92.8000
 0.4690	92.8600
 0.4700	92.6300
 0.4710	92.4600
 0.4720	92.8000
 0.4730	93.1100
 0.4740	93.1600
 0.4750	93.0500
 0.4760	92.8100
 0.4770	93.0500
 0.4780	93.0600
 0.4790	93.2300
 0.4800	93.1200
 0.4810	92.7600
 0.4820	92.9400
 0.4830	93.4800
 0.4840	93.5400
 0.4850	93.4200
 0.4860	93.3000
 0.4870	93.6000
 0.4880	93.7200
 0.4890	93.6100
 0.4900	93.3700
 0.4910	93.1400
 0.4920	93.1900
 0.4930	93.5600
 0.4940	93.7800
 0.4950	93.7800
 0.4960	93.6700
 0.4970	93.7200
 0.4980	93.8500
 0.4990	94.0300
 0.5000	94.1400
 0.5010	94.0300
 0.5020	93.7300
 0.5030	93.8500
 0.5040	93.9100
 0.5050	94.0800
 0.5060	94.0300
 0.5070	93.9100
 0.5080	94.1400
 0.5090	94.2600
 0.5100	94.2600
 0.5110	94.0800
 0.5120	93.7900
 0.5130	94.0300
 0.5140	94.3200
 0.5150	94.4400
 0.5160	94.1400
 0.5170	93.9100
 0.5180	93.7300
 0.5190	94.1400
 0.5200	94.5000
 0.5210	94.3800
 0.5220	94.1400
 0.5230	93.9100
 0.5240	94.1400
 0.5250	94.3800
 0.5260	94.6100
 0.5270	94.3800
 0.5280	94.3800
 0.5290	94.6100
 0.5300	94.6100
 0.5310	94.8500
 0.5320	94.6700
 0.5330	94.4400
 0.5340	94.3800
 0.5350	94.7300
 0.5360	95.0800
 0.5370	95.0200
 0.5380	94.7900
 0.5390	94.7300
 0.5400	94.7900
 0.5410	94.8500
 0.5420	94.7300
 0.5430	94.4400
 0.5440	94.5500
 0.5450	94.6700
 0.5460	94.6700
 0.5470	94.8500
 0.5480	94.6100
 0.5490	94.5000
 0.5500	94.7900
 0.5510	94.9600
 0.5520	94.9600
 0.5530	94.7300
 0.5540	94.6100
 0.5550	94.8500
 0.5560	94.9100
 0.5570	95.0800
 0.5580	94.6700
 0.5590	94.7900
 0.5600	95.2600
 0.5610	95.1400
 0.5620	95.1400
 0.5630	95.1400
 0.5640	95.4200
 0.5650	95.2600
 0.5660	95.2000
 0.5670	94.8500
 0.5680	95.2600
 0.5690	95.3700
 0.5700	95.3700
 0.5710	95.2000
 0.5720	94.8500
 0.5730	95.1400
 0.5740	95.4800
 0.5750	95.2600
 0.5760	95.2600
 0.5770	95.2600
 0.5780	95.3700
 0.5790	95.6000
 0.5800	95.4200
 0.5810	95.3100
 0.5820	95.0800
 0.5830	95.1400
 0.5840	95.3100
 0.5850	95.0800
 0.5860	95.1400
 0.5870	95.0200
 0.5880	94.9600
 0.5890	95.2000
 0.5900	95.2600
 0.5910	95.2000
 0.5920	95.0800
 0.5930	95.3100
 0.5940	95.3700
 0.5950	95.1400
 0.5960	95.0200
 0.5970	94.9600
 0.5980	95.0800
 0.5990	95.3700
 0.6000	95.4200
 0.6010	95.7200
 0.6020	95.6600
 0.6030	95.6600
 0.6040	95.7800
 0.6050	95.7800
 0.6060	95.8900
 0.6070	95.5400
 0.6080	95.8400
 0.6090	96.0700
 0.6100	96.0100
 0.6110	96.1900
 0.6120	95.8900
 0.6130	96.0100
 0.6140	96.3600
 0.6150	96.3600
 0.6160	96.1900
 0.6170	96.0700
 0.6180	96.3000
 0.6190	96.1900
 0.6200	96.1300
 0.6210	95.9500
 0.6220	95.7800
 0.6230	95.8900
 0.6240	96.0700
 0.6250	96.0100
 0.6260	95.8900
 0.6270	95.8900
 0.6280	96.0100
 0.6290	96.3600
 0.6300	96.2500
 0.6310	95.9500
 0.6320	96.0100
 0.6330	96.0700
 0.6340	96.2500
 0.6350	96.1300
 0.6360	96.0100
 0.6370	96.0700
 0.6380	96.1300
 0.6390	96.3000
 0.6400	96.3000
 0.6410	96.0700
 0.6420	96.2500
 0.6430	96.2500
 0.6440	96.6600
 0.6450	96.5400
 0.6460	96.3000
 0.6470	96.5400
 0.6480	96.4800
 0.6490	96.7200
 0.6500	96.3000
 0.6510	96.2500
 0.6520	96.3600
 0.6530	96.4200
 0.6540	96.7200
 0.6550	96.3000
 0.6560	96.1900
 0.6570	96.3000
 0.6580	96.3600
 0.6590	96.4800
 0.6600	96.4200
 0.6610	96.3600
 0.6620	96.1900
 0.6630	96.4200
 0.6640	96.5400
 0.6650	96.5400
 0.6660	96.4800
 0.6670	96.2500
 0.6680	96.5400
 0.6690	96.7200
 0.6700	96.3600
 0.6710	96.3000
 0.6720	96.1300
 0.6730	96.3600
 0.6740	96.7700
 0.6750	96.4200
 0.6760	96.1300
 0.6770	96.0100
 0.6780	96.3000
 0.6790	96.6600
 0.6800	96.5400
 0.6810	96.4200
 0.6820	96.2500
 0.6830	96.4800
 0.6840	96.5400
 0.6850	96.4800
 0.6860	96.4800
 0.6870	96.3600
 0.6880	96.5400
 0.6890	96.9400
 0.6900	96.5400
 0.6910	96.4200
 0.6920	96.3000
 0.6930	96.5400
 0.6940	96.7200
 0.6950	96.8300
 0.6960	96.5400
 0.6970	96.4800
 0.6980	96.4200
 0.6990	96.5400
 0.7000	96.2500
 0.7010	96.0100
 0.7020	96.3000
 0.7030	96.5400
 0.7040	96.3600
 0.7050	96.5400
 0.7060	96.4800
 0.7070	96.3600
 0.7080	96.5400
 0.7090	96.3600
 0.7100	96.3600
 0.7110	96.2500
 0.7120	96.4800
 0.7130	96.6600
 0.7140	96.8300
 0.7150	96.4200
 0.7160	96.1300
 0.7170	96.3000
 0.7180	96.3600
 0.7190	96.5400
 0.7200	96.5400
 0.7210	96.1900
 0.7220	96.2500
 0.7230	96.2500
 0.7240	96.4800
 0.7250	96.4800
 0.7260	96.5400
 0.7270	96.4200
 0.7280	96.3600
 0.7290	96.3600
 0.7300	96.3600
 0.7310	96.2500
 0.7320	96.0700
 0.7330	96.1900
 0.7340	96.4200
 0.7350	96.6600
 0.7360	96.3600
 0.7370	96.1300
 0.7380	96.3600
 0.7390	96.2500
 0.7400	96.2500
 0.7410	96.0700
 0.7420	95.8900
 0.7430	95.9500
 0.7440	96.3000
 0.7450	96.1900
 0.7460	95.8900
 0.7470	95.7200
 0.7480	95.6600
 0.7490	96.0100
 0.7500	96.0100
 0.7510	95.8400
 0.7520	96.0100
 0.7530	95.7800
 0.7540	95.8900
 0.7550	96.0700
 0.7560	96.2500
 0.7570	96.0700
 0.7580	95.7200
 0.7590	96.0700
 0.7600	96.1900
 0.7610	96.0100
 0.7620	95.6000
 0.7630	95.5400
 0.7640	96.0100
 0.7650	96.2500
 0.7660	96.1900
 0.7670	96.1300
 0.7680	96.0100
 0.7690	96.1900
 0.7700	96.0700
 0.7710	95.8900
 0.7720	95.6600
 0.7730	95.6600
 0.7740	96.0100
 0.7750	96.2500
 0.7760	96.1300
 0.7770	95.9500
 0.7780	95.8400
 0.7790	96.0100
 0.7800	96.4800
 0.7810	96.4200
 0.7820	96.1300
 0.7830	95.7800
 0.7840	96.0100
 0.7850	96.1300
 0.7860	96.3000
 0.7870	96.1300
 0.7880	95.8900
 0.7890	96.0100
 0.7900	96.1900
 0.7910	96.2500
 0.7920	96.0700
 0.7930	95.8400
 0.7940	96.0700
 0.7950	96.1300
 0.7960	96.1300
 0.7970	95.9500
 0.7980	95.6600
 0.7990	95.3700
 0.8000	95.3500
 0.8040	95.3100
 0.8080	95.2600
 0.8120	95.2600
 0.8160	95.2000
 0.8200	95.1400
 0.8240	95.2000
 0.8280	95.2000
 0.8320	95.1400
 0.8360	95.0200
 0.8400	94.9100
 0.8440	95.0200
 0.8480	95.0800
 0.8520	95.0200
 0.8560	95.0200
 0.8600	95.2600
 0.8640	95.0200
 0.8680	95.0200
 0.8720	95.1400
 0.8760	95.0800
 0.8800	94.9600
 0.8840	94.9100
 0.8880	95.0200
 0.8920	94.9600
 0.8960	94.9600
 0.9000	94.9100
 0.9040	94.9600
 0.9080	94.7900
 0.9120	94.7900
 0.9160	94.8500
 0.9200	94.7300
 0.9240	94.6700
 0.9280	94.6700
 0.9320	94.7300
 0.9360	94.5500
 0.9400	94.3200
 0.9440	94.5000
 0.9480	94.2000
 0.9520	94.0300
 0.9560	93.8500
 0.9600	93.6700
 0.9640	93.2100
 0.9680	92.7400
 0.9720	92.6900
 0.9760	92.5700
 0.9800	92.6300
 0.9840	92.6300
 0.9880	92.8000
 0.9920	92.6900
 0.9960	92.8600
 1.0000	92.8600
 1.0040	92.8000
 1.0080	92.9800
 1.0120	93.1600
 1.0160	93.1600
 1.0200	93.2100
 1.0240	93.3300
 1.0280	93.4500
 1.0320	93.5100
 1.0360	93.6200
 1.0400	93.6700
 1.0440	93.8500
 1.0480	93.9100
 1.0520	93.9700
 1.0560	94.0300
 1.0600	94.0800
 1.0640	94.0300
 1.0680	94.0800
 1.0720	94.1400
 1.0760	94.0300
 1.0800	93.9100
 1.0840	93.9700
 1.0880	93.9700
 1.0920	93.7900
 1.0960	93.7300
 1.1000	93.6200
 1.1040	93.6700
 1.1080	93.3900
 1.1120	93.2700
 1.1160	93.2700
 1.1200	93.2100
 1.1240	93.0400
 1.1280	92.9800
 1.1320	92.8600
 1.1360	92.6900
 1.1400	92.2200
 1.1440	91.8700
 1.1480	91.1100
 1.1520	90.1800
 1.1560	89.1800
 1.1600	88.8200
 1.1640	88.7000
 1.1680	88.8000
 1.1720	88.7400
 1.1760	88.8500
 1.1800	88.7800
 1.1840	88.9500
 1.1880	88.7000
 1.1920	88.6500
 1.1960	88.6900
 1.2000	88.7400
 1.2040	88.6800
 1.2080	88.6800
 1.2120	88.6800
 1.2160	88.5800
 1.2200	88.4000
 1.2240	88.4600
 1.2280	88.4000
 1.2320	88.2800
 1.2360	88.2200
 1.2400	88.1700
 1.2440	88.1700
 1.2480	88.1100
 1.2520	87.9300
 1.2560	87.9200
 1.2600	87.9700
 1.2640	87.7800
 1.2680	87.7300
 1.2720	87.7300
 1.2760	87.7200
 1.2800	87.3500
 1.2840	87.4000
 1.2880	87.4500
 1.2920	87.7400
 1.2960	87.7900
 1.3000	87.9000
 1.3040	87.9500
 1.3080	87.8800
 1.3120	87.7600
 1.3160	87.5900
 1.3200	87.2200
 1.3240	86.9200
 1.3280	86.4500
 1.3320	86.0400
 1.3360	85.5100
 1.3400	85.0400
 1.3440	84.3900
 1.3480	84.0400
 1.3520	83.5100
 1.3560	83.0500
 1.3600	82.5200
 1.3640	82.2300
 1.3680	81.7100
 1.3720	81.1800
 1.3760	80.6000
 1.3800	80.1300
 1.3840	79.4400
 1.3880	78.4500
 1.3920	77.3500
 1.3960	76.0700
 1.4000	74.4900
 1.4040	72.8200
 1.4080	70.6100
 1.4120	68.1600
 1.4160	65.5500
 1.4200	63.4700
 1.4240	62.0800
 1.4280	61.9700
 1.4320	62.2000
 1.4360	62.5600
 1.4400	62.4400
 1.4440	62.1600
 1.4480	61.7600
 1.4520	61.1800
 1.4560	60.4800
 1.4600	59.9000
 1.4640	59.2000
 1.4680	58.6800
 1.4720	58.2100
 1.4760	58.0300
 1.4800	58.0300
 1.4840	58.1500
 1.4880	58.5600
 1.4920	59.2000
 1.4960	59.9000
 1.5000	60.2400
 1.5040	61.3000
 1.5080	61.7000
 1.5120	62.0500
 1.5160	62.0500
 1.5200	62.0000
 1.5240	61.8200
 1.5280	61.8200
 1.5320	61.4100
 1.5360	61.1200
 1.5400	60.8900
 1.5440	60.5400
 1.5480	60.2400
 1.5520	60.0200
 1.5560	60.0800
 1.5600	59.9600
 1.5640	60.0800
 1.5680	60.0200
 1.5720	60.3000
 1.5760	60.2400
 1.5800	60.2400
 1.5840	60.3000
 1.5880	60.4200
 1.5920	60.2400
 1.5960	60.1900
 1.6000	60.1400
 1.6040	60.0700
 1.6080	59.8800
 1.6120	59.6600
 1.6160	59.5300
 1.6200	59.3500
 1.6240	59.0500
 1.6280	58.8700
 1.6320	58.7600
 1.6360	58.4600
 1.6400	58.2200
 1.6440	57.9300
 1.6480	57.7500
 1.6520	57.5100
 1.6560	57.2100
 1.6600	56.9800
 1.6640	56.8600
 1.6680	56.5000
 1.6720	56.3800
 1.6760	56.1500
 1.6800	56.0900
 1.6840	55.8400
 1.6880	55.7200
 1.6920	55.6700
 1.6960	55.5400
 1.7000	55.4200
 1.7040	55.4200
 1.7080	55.3000
 1.7120	55.3600
 1.7160	55.3000
 1.7200	55.3000
 1.7240	55.3600
 1.7280	55.3000
 1.7320	55.3600
 1.7360	55.2400
 1.7400	55.3000
 1.7440	55.1900
 1.7480	55.1300
 1.7520	54.9500
 1.7560	54.8400
 1.7600	54.6100
 1.7640	54.3700
 1.7680	54.2000
 1.7720	54.0200
 1.7760	53.6200
 1.7800	53.3300
 1.7840	53.1500
 1.7880	53.0300
 1.7920	52.6900
 1.7960	52.5200
 1.8000	52.2800
 1.8040	52.2100
 1.8080	51.9000
 1.8120	51.7600
 1.8160	51.5800
 1.8200	51.5100
 1.8240	51.1900
 1.8280	51.0700
 1.8320	50.8700
 1.8360	50.8000
 1.8400	50.4900
 1.8440	50.3600
 1.8480	50.0000
 1.8520	49.7500
 1.8560	49.3400
 1.8600	48.9400
 1.8640	48.4700
 1.8680	47.8300
 1.8720	46.9000
 1.8760	45.8000
 1.8800	44.6400
 1.8840	43.1300
 1.8880	41.3900
 1.8920	39.4300
 1.8960	37.1700
 1.9000	34.9700
 1.9040	32.9400
 1.9080	31.0900
 1.9120	29.8200
 1.9160	28.8900
 1.9200	28.2500
 1.9240	28.0200
 1.9280	27.9600
 1.9320	27.9000
 1.9360	28.0700
 1.9400	28.3500
 1.9440	28.9300
 1.9480	29.3300
 1.9520	29.8500
 1.9560	30.2500
 1.9600	30.8100
 1.9640	31.0400
 1.9680	31.3700
 1.9720	31.7100
 1.9760	31.9400
 1.9800	32.1000
 1.9840	32.3900
 1.9880	32.6000
 1.9920	32.7700
 1.9960	32.9900
 2.0000	33.2800
 2.0040	33.5300
 2.0080	33.6700
 2.0120	33.8300
 2.0160	34.1000
 2.0200	34.3200
 2.0240	34.5100
 2.0280	34.7200
 2.0320	34.8200
 2.0360	34.9700
 2.0400	35.1300
 2.0440	35.2700
 2.0480	35.4100
 2.0520	35.6700
 2.0560	35.7700
 2.0600	35.8800
 2.0640	35.9800
 2.0680	36.1900
 2.0720	36.1700
 2.0760	36.3300
 2.0800	36.3200
 2.0840	36.4700
 2.0880	36.4500
 2.0920	36.4400
 2.0960	36.4800
 2.1000	36.6400
 2.1040	36.6800
 2.1080	36.6100
 2.1120	36.6500
 2.1160	36.8000
 2.1200	36.7900
 2.1240	36.7000
 2.1280	36.4400
 2.1320	36.2600
 2.1360	35.9200
 2.1400	35.5200
 2.1440	35.2600
 2.1480	35.1000
 2.1520	34.8400
 2.1560	34.9300
 2.1600	35.0600
 2.1640	35.4500
 2.1680	35.7800
 2.1720	36.1600
 2.1760	36.5500
 2.1800	36.8900
 2.1840	37.0800
 2.1880	37.2300
 2.1920	37.2600
 2.1960	37.3500
 2.2000	37.2600
 2.2040	37.0900
 2.2080	36.9800
 2.2120	36.8100
 2.2160	36.6600
 2.2200	36.5600
 2.2240	36.3800
 2.2280	36.2600
 2.2320	36.1500
 2.2360	36.0800
 2.2400	36.0000
 2.2440	35.9400
 2.2480	35.8900
 2.2520	35.8200
 2.2560	35.7500
 2.2600	35.7300
 2.2640	35.7300
 2.2680	35.7300
 2.2720	35.7800
 2.2760	35.7700
 2.2800	35.7500
 2.2840	35.7400
 2.2880	35.7200
 2.2920	35.6400
 2.2960	35.7900
 2.3000	35.8200
 2.3040	35.8600
 2.3080	35.9100
 2.3120	35.8300
 2.3160	35.8800
 2.3200	35.8600
 2.3240	35.7700
 2.3280	35.8000
 2.3320	35.7100
 2.3360	35.6300
 2.3400	35.5400
 2.3440	35.4100
 2.3480	35.2300
 2.3520	35.1000
 2.3560	34.8600
 2.3600	34.5000
 2.3640	34.2100
 2.3680	33.8600
 2.3720	33.4500
 2.3760	32.9400
 2.3800	32.4900
 2.3840	31.9100
 2.3880	31.4400
 2.3920	30.7600
 2.3960	30.2500
 2.4000	29.7500
 2.4040	29.1800
 2.4080	28.6100
 2.4120	27.9900
 2.4160	27.5900
 2.4200	27.0800
 2.4240	26.7400
 2.4280	26.1800
 2.4320	25.8900
 2.4360	25.6100
 2.4400	25.3800
 2.4440	25.0900
 2.4480	24.8700
 2.4520	24.5800
 2.4560	24.3600
 2.4600	24.0700
 2.4640	23.7300
 2.4680	23.3900
 2.4720	23.0500
 2.4760	22.6000
 2.4800	22.1500
 2.4840	21.7500
 2.4880	21.3500
 2.4920	20.9000
 2.4960	20.3900
 2.5000	19.9400
