Name: Vesuvianite Ca_10(Mg,Fe^2+)_2Al_4(Si_2O_7)_2(SiO_4)_5(OH,F)_4
Type: Mineral
Class: Silicate
Subclass: Sorosilicate
Particle Size: Medium
Sample No.: SS-3A
Owner: JPL
Wavelength Range: VSWIR
Origin: USA, California, Riverside County, Crestmore Quarry
Collection Date: N/A
Description: Particle size was 45-125um.Collected by Burminco Original ASTER Spectral Library name was jpl.beckman.mineral.silicate.sorosilicate.medium.ss03a.spectrum.txt
Measurement: Hemispherical reflectance
First Column: X
Second Column: Y
X Units: Wavelength (micrometers)
Y Units:Reflectance (percent)
First X Value:  0.4000
Last X Value:  2.5000
Number of X Values: 826
Additional Information: mineral.silicate.sorosilicate.medium.vswir.ss-3a.jpl.beckman.ancillary.txt

 0.4000	32.6900
 0.4010	33.1700
 0.4020	33.4600
 0.4030	33.9400
 0.4040	34.2000
 0.4050	34.5800
 0.4060	35.0200
 0.4070	35.1300
 0.4080	35.5100
 0.4090	35.8100
 0.4100	35.9300
 0.4110	36.3500
 0.4120	36.4800
 0.4130	36.7900
 0.4140	37.1900
 0.4150	37.2600
 0.4160	37.5300
 0.4170	37.7800
 0.4180	38.1800
 0.4190	38.6100
 0.4200	38.7800
 0.4210	39.1200
 0.4220	39.4400
 0.4230	39.7900
 0.4240	40.2800
 0.4250	40.5500
 0.4260	40.9100
 0.4270	41.2100
 0.4280	41.3300
 0.4290	41.8400
 0.4300	41.9200
 0.4310	42.2800
 0.4320	42.5800
 0.4330	42.7400
 0.4340	43.0700
 0.4350	43.2700
 0.4360	43.6200
 0.4370	44.0100
 0.4380	44.1400
 0.4390	44.4300
 0.4400	44.7200
 0.4410	45.1100
 0.4420	45.5600
 0.4430	45.8400
 0.4440	46.2800
 0.4450	46.5500
 0.4460	46.9300
 0.4470	47.5500
 0.4480	47.8500
 0.4490	48.2700
 0.4500	48.7000
 0.4510	49.0700
 0.4520	49.5300
 0.4530	49.7900
 0.4540	50.2300
 0.4550	50.5800
 0.4560	50.7100
 0.4570	51.0000
 0.4580	50.9300
 0.4590	50.9200
 0.4600	50.8800
 0.4610	51.1500
 0.4620	51.9100
 0.4630	53.0200
 0.4640	53.7900
 0.4650	54.7500
 0.4660	55.2800
 0.4670	55.8600
 0.4680	56.5300
 0.4690	56.9600
 0.4700	57.4800
 0.4710	57.9500
 0.4720	58.2200
 0.4730	58.6300
 0.4740	59.0400
 0.4750	59.4800
 0.4760	59.7700
 0.4770	59.8300
 0.4780	60.2300
 0.4790	60.4600
 0.4800	60.8000
 0.4810	60.9800
 0.4820	61.0800
 0.4830	61.5100
 0.4840	61.5500
 0.4850	61.7200
 0.4860	62.0200
 0.4870	62.1400
 0.4880	62.4300
 0.4890	62.5300
 0.4900	62.5500
 0.4910	62.8500
 0.4920	62.9700
 0.4930	63.2600
 0.4940	63.4600
 0.4950	63.4500
 0.4960	63.7500
 0.4970	63.6800
 0.4980	63.8400
 0.4990	64.0900
 0.5000	64.2100
 0.5010	64.3200
 0.5020	64.3600
 0.5030	64.2400
 0.5040	64.5500
 0.5050	64.5900
 0.5060	64.7100
 0.5070	64.8100
 0.5080	64.6900
 0.5090	64.8500
 0.5100	64.7300
 0.5110	64.8500
 0.5120	64.8100
 0.5130	64.9100
 0.5140	64.9200
 0.5150	64.8200
 0.5160	64.8000
 0.5170	64.8800
 0.5180	64.9000
 0.5190	64.8800
 0.5200	64.7400
 0.5210	64.6500
 0.5220	64.8000
 0.5230	64.7400
 0.5240	64.7400
 0.5250	64.7800
 0.5260	64.6400
 0.5270	64.7600
 0.5280	64.6800
 0.5290	64.7300
 0.5300	65.0000
 0.5310	64.8700
 0.5320	64.9700
 0.5330	65.1100
 0.5340	65.0500
 0.5350	65.1600
 0.5360	65.2900
 0.5370	65.4300
 0.5380	65.5300
 0.5390	65.4800
 0.5400	65.6100
 0.5410	65.6900
 0.5420	65.9100
 0.5430	65.8700
 0.5440	65.8900
 0.5450	66.0800
 0.5460	66.0700
 0.5470	66.1900
 0.5480	66.2400
 0.5490	66.1300
 0.5500	66.4400
 0.5510	66.4600
 0.5520	66.5900
 0.5530	66.7100
 0.5540	66.6500
 0.5550	66.8700
 0.5560	66.7800
 0.5570	66.6900
 0.5580	66.8000
 0.5590	66.8700
 0.5600	66.9900
 0.5610	67.2600
 0.5620	67.5300
 0.5630	67.4800
 0.5640	67.6500
 0.5650	67.5500
 0.5660	67.5000
 0.5670	67.6900
 0.5680	67.5700
 0.5690	67.7800
 0.5700	67.7200
 0.5710	67.6400
 0.5720	67.7500
 0.5730	67.7400
 0.5740	67.8300
 0.5750	67.7800
 0.5760	67.6600
 0.5770	67.7900
 0.5780	67.8200
 0.5790	67.8900
 0.5800	67.9300
 0.5810	67.8300
 0.5820	67.9200
 0.5830	67.8500
 0.5840	67.9300
 0.5850	68.1800
 0.5860	67.9600
 0.5870	68.0900
 0.5880	68.0600
 0.5890	68.1900
 0.5900	68.3400
 0.5910	68.3300
 0.5920	68.3400
 0.5930	68.1400
 0.5940	68.1800
 0.5950	68.3300
 0.5960	68.2600
 0.5970	68.3500
 0.5980	68.3900
 0.5990	68.3600
 0.6000	68.4700
 0.6010	68.5200
 0.6020	68.6400
 0.6030	68.6300
 0.6040	68.5100
 0.6050	68.7100
 0.6060	68.7000
 0.6070	68.6300
 0.6080	68.6500
 0.6090	68.5800
 0.6100	68.7200
 0.6110	68.6100
 0.6120	68.6600
 0.6130	68.6900
 0.6140	68.6000
 0.6150	68.6800
 0.6160	68.6700
 0.6170	68.7200
 0.6180	68.6800
 0.6190	68.5600
 0.6200	68.6200
 0.6210	68.6100
 0.6220	68.7600
 0.6230	68.8600
 0.6240	68.6600
 0.6250	68.8500
 0.6260	68.8300
 0.6270	68.9100
 0.6280	69.0300
 0.6290	68.9400
 0.6300	69.1000
 0.6310	69.0600
 0.6320	69.1000
 0.6330	69.2300
 0.6340	69.1600
 0.6350	69.2200
 0.6360	69.2900
 0.6370	69.3300
 0.6380	69.5900
 0.6390	69.4800
 0.6400	69.6000
 0.6410	69.5700
 0.6420	69.6200
 0.6430	69.8100
 0.6440	69.6800
 0.6450	69.7700
 0.6460	69.8600
 0.6470	69.8600
 0.6480	69.9900
 0.6490	70.0000
 0.6500	70.1400
 0.6510	70.1000
 0.6520	70.0400
 0.6530	70.2800
 0.6540	70.3000
 0.6550	70.3900
 0.6560	70.4400
 0.6570	70.2900
 0.6580	70.5000
 0.6590	70.4400
 0.6600	70.6000
 0.6610	70.7100
 0.6620	70.7000
 0.6630	70.8900
 0.6640	70.8000
 0.6650	70.8000
 0.6660	70.9700
 0.6670	70.8700
 0.6680	71.1500
 0.6690	71.0800
 0.6700	71.0500
 0.6710	71.2500
 0.6720	71.2400
 0.6730	71.3900
 0.6740	71.4000
 0.6750	71.3300
 0.6760	71.4700
 0.6770	71.4400
 0.6780	71.5500
 0.6790	71.5500
 0.6800	71.5500
 0.6810	71.7400
 0.6820	71.7700
 0.6830	71.9000
 0.6840	71.8700
 0.6850	71.8700
 0.6860	72.0100
 0.6870	72.0500
 0.6880	71.9600
 0.6890	72.2000
 0.6900	72.0700
 0.6910	72.2400
 0.6920	72.2400
 0.6930	72.2500
 0.6940	72.4900
 0.6950	72.3700
 0.6960	72.4400
 0.6970	72.4600
 0.6980	72.3100
 0.6990	72.4800
 0.7000	72.4000
 0.7010	72.5600
 0.7020	72.7300
 0.7030	72.6700
 0.7040	72.6400
 0.7050	72.8100
 0.7060	72.8900
 0.7070	72.9400
 0.7080	72.8600
 0.7090	72.9100
 0.7100	72.9000
 0.7110	72.9100
 0.7120	73.0300
 0.7130	73.0600
 0.7140	73.0400
 0.7150	73.1300
 0.7160	73.0900
 0.7170	73.1100
 0.7180	73.1700
 0.7190	73.1900
 0.7200	73.2300
 0.7210	73.1700
 0.7220	73.1600
 0.7230	73.3600
 0.7240	73.3500
 0.7250	73.2900
 0.7260	73.2400
 0.7270	73.2600
 0.7280	73.3000
 0.7290	73.2200
 0.7300	73.3600
 0.7310	73.3700
 0.7320	73.2200
 0.7330	73.3300
 0.7340	73.2300
 0.7350	73.2900
 0.7360	73.4200
 0.7370	73.2600
 0.7380	73.3900
 0.7390	73.2500
 0.7400	73.2300
 0.7410	73.4200
 0.7420	73.4300
 0.7430	73.3900
 0.7440	73.4300
 0.7450	73.3300
 0.7460	73.3000
 0.7470	73.3800
 0.7480	73.5300
 0.7490	73.5000
 0.7500	73.3700
 0.7510	73.4900
 0.7520	73.4800
 0.7530	73.4900
 0.7540	73.5600
 0.7550	73.4900
 0.7560	73.6100
 0.7570	73.5700
 0.7580	73.4900
 0.7590	73.5800
 0.7600	73.5700
 0.7610	73.5900
 0.7620	73.5600
 0.7630	73.5000
 0.7640	73.5700
 0.7650	73.5500
 0.7660	73.6400
 0.7670	73.6600
 0.7680	73.6700
 0.7690	73.6600
 0.7700	73.6600
 0.7710	73.6300
 0.7720	73.6500
 0.7730	73.6400
 0.7740	73.6600
 0.7750	73.6400
 0.7760	73.6600
 0.7770	73.7800
 0.7780	73.7800
 0.7790	73.6700
 0.7800	73.6000
 0.7810	73.6300
 0.7820	73.6300
 0.7830	73.7300
 0.7840	73.8400
 0.7850	73.8600
 0.7860	73.7000
 0.7870	73.7800
 0.7880	73.7600
 0.7890	73.8600
 0.7900	73.8300
 0.7910	73.8200
 0.7920	73.8400
 0.7930	73.8500
 0.7940	73.7800
 0.7950	73.9400
 0.7960	73.9000
 0.7970	73.9500
 0.7980	73.8900
 0.7990	73.9000
 0.8000	74.1700
 0.8040	74.1600
 0.8080	74.1700
 0.8120	74.1100
 0.8160	74.0400
 0.8200	74.0200
 0.8240	74.0400
 0.8280	73.9900
 0.8320	73.9500
 0.8360	74.0100
 0.8400	73.8700
 0.8440	73.7400
 0.8480	73.5900
 0.8520	73.3800
 0.8560	73.2900
 0.8600	73.2400
 0.8640	73.1300
 0.8680	72.9400
 0.8720	72.7900
 0.8760	72.5300
 0.8800	72.2700
 0.8840	71.9300
 0.8880	71.6300
 0.8920	71.3100
 0.8960	70.8900
 0.9000	70.4700
 0.9040	70.1200
 0.9080	69.7000
 0.9120	69.3300
 0.9160	68.8800
 0.9200	68.5200
 0.9240	68.1200
 0.9280	68.0000
 0.9320	67.8600
 0.9360	68.1000
 0.9400	68.7100
 0.9440	69.3900
 0.9480	70.1700
 0.9520	70.8300
 0.9560	71.6200
 0.9600	72.2900
 0.9640	73.0300
 0.9680	73.6100
 0.9720	73.9800
 0.9760	74.3500
 0.9800	74.7200
 0.9840	75.1200
 0.9880	75.3100
 0.9920	75.4100
 0.9960	75.4600
 1.0000	75.6400
 1.0040	75.8700
 1.0080	75.8900
 1.0120	76.0500
 1.0160	76.1500
 1.0200	76.2400
 1.0240	76.3700
 1.0280	76.4300
 1.0320	76.5300
 1.0360	76.6000
 1.0400	76.6500
 1.0440	76.7200
 1.0480	76.6600
 1.0520	76.7700
 1.0560	76.8000
 1.0600	77.0000
 1.0640	77.1000
 1.0680	77.0900
 1.0720	77.0900
 1.0760	77.1500
 1.0800	77.2600
 1.0840	77.2900
 1.0880	77.4000
 1.0920	77.5400
 1.0960	77.6600
 1.1000	77.7400
 1.1040	77.7900
 1.1080	77.8600
 1.1120	77.8900
 1.1160	78.0400
 1.1200	78.1100
 1.1240	78.2700
 1.1280	78.3200
 1.1320	78.4200
 1.1360	78.5300
 1.1400	78.6300
 1.1440	78.6900
 1.1480	78.7900
 1.1520	78.8600
 1.1560	78.9300
 1.1600	79.0100
 1.1640	79.1100
 1.1680	79.2800
 1.1720	79.3900
 1.1760	79.5200
 1.1800	79.5700
 1.1840	79.6100
 1.1880	79.7000
 1.1920	79.8200
 1.1960	79.9100
 1.2000	80.1300
 1.2040	80.1500
 1.2080	80.3100
 1.2120	80.3100
 1.2160	80.4100
 1.2200	80.4500
 1.2240	80.5900
 1.2280	80.6500
 1.2320	80.6700
 1.2360	80.7700
 1.2400	80.8600
 1.2440	80.7900
 1.2480	80.7500
 1.2520	80.7700
 1.2560	80.7900
 1.2600	80.8900
 1.2640	81.0300
 1.2680	81.0200
 1.2720	81.1500
 1.2760	81.1800
 1.2800	81.1900
 1.2840	81.2100
 1.2880	81.2800
 1.2920	81.3300
 1.2960	81.3600
 1.3000	81.3800
 1.3040	81.4000
 1.3080	81.3000
 1.3120	81.3200
 1.3160	81.2900
 1.3200	81.2700
 1.3240	81.2200
 1.3280	81.2200
 1.3320	81.2500
 1.3360	81.2200
 1.3400	81.1800
 1.3440	81.2100
 1.3480	81.0500
 1.3520	80.9600
 1.3560	80.8200
 1.3600	80.6500
 1.3640	80.4200
 1.3680	80.0500
 1.3720	79.6000
 1.3760	78.6600
 1.3800	76.9600
 1.3840	74.4200
 1.3880	72.0400
 1.3920	70.6600
 1.3960	70.3600
 1.4000	70.4300
 1.4040	70.7500
 1.4080	71.6700
 1.4120	73.0600
 1.4160	74.3200
 1.4200	74.5200
 1.4240	73.8400
 1.4280	72.9000
 1.4320	72.5700
 1.4360	73.2400
 1.4400	74.1900
 1.4440	74.9600
 1.4480	75.4100
 1.4520	75.7300
 1.4560	75.9000
 1.4600	76.1600
 1.4640	76.4000
 1.4680	76.5800
 1.4720	76.8000
 1.4760	77.0500
 1.4800	77.3100
 1.4840	77.5400
 1.4880	77.8100
 1.4920	77.9800
 1.4960	78.1500
 1.5000	78.2200
 1.5040	78.3900
 1.5080	78.5200
 1.5120	78.6800
 1.5160	78.8100
 1.5200	78.8000
 1.5240	78.7900
 1.5280	78.8600
 1.5320	78.8900
 1.5360	78.9600
 1.5400	78.9900
 1.5440	79.0200
 1.5480	79.0700
 1.5520	79.0300
 1.5560	78.9900
 1.5600	78.9300
 1.5640	78.9700
 1.5680	78.9200
 1.5720	78.9600
 1.5760	78.9300
 1.5800	78.8600
 1.5840	78.7700
 1.5880	78.7900
 1.5920	78.7300
 1.5960	78.7300
 1.6000	78.6800
 1.6040	78.6800
 1.6080	78.6000
 1.6120	78.4900
 1.6160	78.3800
 1.6200	78.3100
 1.6240	78.2200
 1.6280	78.1700
 1.6320	78.1100
 1.6360	77.9300
 1.6400	77.8000
 1.6440	77.7200
 1.6480	77.6500
 1.6520	77.5800
 1.6560	77.5000
 1.6600	77.3900
 1.6640	77.3200
 1.6680	77.2700
 1.6720	77.1700
 1.6760	77.1500
 1.6800	77.1100
 1.6840	76.9900
 1.6880	76.8900
 1.6920	76.7900
 1.6960	76.7500
 1.7000	76.6700
 1.7040	76.7200
 1.7080	76.6800
 1.7120	76.6400
 1.7160	76.6000
 1.7200	76.5300
 1.7240	76.4300
 1.7280	76.3900
 1.7320	76.3900
 1.7360	76.3600
 1.7400	76.3000
 1.7440	76.2600
 1.7480	76.1500
 1.7520	76.0000
 1.7560	76.0500
 1.7600	75.9800
 1.7640	76.0200
 1.7680	75.9800
 1.7720	75.9700
 1.7760	75.8400
 1.7800	75.8300
 1.7840	75.7600
 1.7880	75.7600
 1.7920	75.7600
 1.7960	75.7100
 1.8000	75.6300
 1.8040	75.5700
 1.8080	75.3900
 1.8120	75.3600
 1.8160	75.1900
 1.8200	75.1400
 1.8240	75.0500
 1.8280	74.9500
 1.8320	74.8100
 1.8360	74.6500
 1.8400	74.5700
 1.8440	74.4200
 1.8480	74.3900
 1.8520	74.3600
 1.8560	74.0800
 1.8600	73.9600
 1.8640	73.7500
 1.8680	73.5600
 1.8720	73.3900
 1.8760	73.2400
 1.8800	73.0500
 1.8840	72.8200
 1.8880	72.5000
 1.8920	72.2500
 1.8960	72.0600
 1.9000	71.8300
 1.9040	71.5700
 1.9080	71.4500
 1.9120	71.2200
 1.9160	71.1200
 1.9200	71.0500
 1.9240	70.9600
 1.9280	70.8000
 1.9320	70.6700
 1.9360	70.4600
 1.9400	70.2700
 1.9440	70.0900
 1.9480	69.7800
 1.9520	69.4800
 1.9560	69.1300
 1.9600	68.8600
 1.9640	68.4600
 1.9680	68.1500
 1.9720	67.7600
 1.9760	67.5600
 1.9800	67.4000
 1.9840	67.3100
 1.9880	67.5500
 1.9920	67.8100
 1.9960	68.1400
 2.0000	68.3300
 2.0040	68.4900
 2.0080	68.6800
 2.0120	68.8300
 2.0160	68.9300
 2.0200	69.1800
 2.0240	69.1600
 2.0280	69.2000
 2.0320	69.2800
 2.0360	69.3800
 2.0400	69.2900
 2.0440	69.2000
 2.0480	68.9700
 2.0520	68.9200
 2.0560	68.8600
 2.0600	68.8600
 2.0640	68.7400
 2.0680	68.5800
 2.0720	68.4200
 2.0760	68.2400
 2.0800	68.0300
 2.0840	67.8300
 2.0880	67.2900
 2.0920	66.9700
 2.0960	66.4800
 2.1000	65.8800
 2.1040	65.3600
 2.1080	64.7500
 2.1120	64.1800
 2.1160	63.5400
 2.1200	62.7700
 2.1240	62.1600
 2.1280	61.3800
 2.1320	60.6900
 2.1360	60.0900
 2.1400	59.6000
 2.1440	59.2300
 2.1480	59.0800
 2.1520	58.9000
 2.1560	58.8200
 2.1600	58.6500
 2.1640	58.6200
 2.1680	58.4500
 2.1720	58.2000
 2.1760	57.9500
 2.1800	57.6400
 2.1840	57.2800
 2.1880	56.7100
 2.1920	56.0200
 2.1960	55.3000
 2.2000	54.5200
 2.2040	53.8300
 2.2080	53.2700
 2.2120	52.8300
 2.2160	52.4500
 2.2200	52.2000
 2.2240	51.9900
 2.2280	51.6300
 2.2320	51.3300
 2.2360	50.9300
 2.2400	50.4300
 2.2440	50.0600
 2.2480	49.4700
 2.2520	48.9400
 2.2560	48.2800
 2.2600	47.6500
 2.2640	47.1700
 2.2680	46.8300
 2.2720	46.2600
 2.2760	45.7700
 2.2800	45.2700
 2.2840	44.6900
 2.2880	44.0800
 2.2920	43.4600
 2.2960	42.8900
 2.3000	42.4300
 2.3040	41.7100
 2.3080	41.2100
 2.3120	40.7700
 2.3160	40.4200
 2.3200	39.9300
 2.3240	39.5300
 2.3280	38.9800
 2.3320	38.4300
 2.3360	37.9300
 2.3400	37.4800
 2.3440	37.1500
 2.3480	36.9200
 2.3520	37.0000
 2.3560	37.0700
 2.3600	37.3400
 2.3640	37.6900
 2.3680	37.8900
 2.3720	38.1300
 2.3760	38.3700
 2.3800	38.4300
 2.3840	38.4700
 2.3880	38.3200
 2.3920	38.2200
 2.3960	38.1700
 2.4000	38.0600
 2.4040	37.9500
 2.4080	37.9400
 2.4120	37.8900
 2.4160	37.8800
 2.4200	37.8700
 2.4240	37.7900
 2.4280	37.8100
 2.4320	37.7900
 2.4360	37.8800
 2.4400	37.9500
 2.4440	38.0300
 2.4480	38.0500
 2.4520	38.1700
 2.4560	38.2100
 2.4600	38.1900
 2.4640	38.1900
 2.4680	38.2300
 2.4720	38.2500
 2.4760	38.3300
 2.4800	38.4100
 2.4840	38.4100
 2.4880	38.3900
 2.4920	38.3400
 2.4960	38.3500
 2.5000	38.4400
