Name: Wollastonite CaSiO_3
Type: Mineral
Class: Silicate
Subclass: Inosilicate
Particle Size: Medium
Sample No.: IN-2A
Owner: JPL
Wavelength Range: VSWIR
Origin: USA, California, Inyo County, Panamint Mountains.
Collection Date: N/A
Description: Particle size was 45-125um.Collected by:  Burminco Original ASTER Spectral Library name was jpl.perkin.mineral.silicate.inosilicate.medium.in02a.spectrum.txt
Measurement: Hemispherical reflectance
First Column: X
Second Column: Y
X Units: Wavelength (micrometers)
Y Units:Reflectance (percent)
First X Value:  2.5000
Last X Value:  0.4000
Number of X Values: 2101
Additional Information: mineral.silicate.inosilicate.medium.vswir.in-2a.jpl.perkin.ancillary.txt

 2.5000	73.6357
 2.4990	73.4527
 2.4980	73.6409
 2.4970	73.8193
 2.4960	73.6330
 2.4950	73.7030
 2.4940	73.6988
 2.4930	73.6916
 2.4920	73.7537
 2.4910	73.6327
 2.4900	73.8051
 2.4890	73.8606
 2.4880	73.7483
 2.4870	73.8145
 2.4860	73.8262
 2.4850	73.7979
 2.4840	73.6417
 2.4830	73.8658
 2.4820	73.8449
 2.4810	74.0309
 2.4800	73.8366
 2.4790	74.0548
 2.4780	73.9178
 2.4770	74.0720
 2.4760	73.9047
 2.4750	73.9063
 2.4740	74.0193
 2.4730	74.2011
 2.4720	73.9517
 2.4710	74.0620
 2.4700	74.0317
 2.4690	74.1631
 2.4680	74.1708
 2.4670	74.2984
 2.4660	74.2809
 2.4650	74.4248
 2.4640	74.2918
 2.4630	74.4805
 2.4620	74.6312
 2.4610	74.5384
 2.4600	74.5619
 2.4590	74.6194
 2.4580	74.7102
 2.4570	74.7335
 2.4560	74.7052
 2.4550	74.7958
 2.4540	74.7210
 2.4530	74.8542
 2.4520	74.8463
 2.4510	74.8373
 2.4500	74.9085
 2.4490	75.0730
 2.4480	75.1973
 2.4470	75.1119
 2.4460	75.0547
 2.4450	75.1357
 2.4440	75.0827
 2.4430	75.1541
 2.4420	75.1555
 2.4410	75.2106
 2.4400	75.1645
 2.4390	75.2944
 2.4380	75.2790
 2.4370	75.2528
 2.4360	75.3091
 2.4350	75.2816
 2.4340	75.3378
 2.4330	75.2657
 2.4320	75.2640
 2.4310	75.2637
 2.4300	75.2294
 2.4290	75.2527
 2.4280	75.2403
 2.4270	75.2414
 2.4260	75.2112
 2.4250	75.3457
 2.4240	75.3538
 2.4230	75.3308
 2.4220	75.3082
 2.4210	75.2700
 2.4200	75.2844
 2.4190	75.2045
 2.4180	75.1299
 2.4170	75.2120
 2.4160	75.2449
 2.4150	75.2258
 2.4140	75.1878
 2.4130	75.2625
 2.4120	75.1780
 2.4110	75.0838
 2.4100	75.0205
 2.4090	74.9976
 2.4080	75.0091
 2.4070	75.0374
 2.4060	74.9901
 2.4050	74.9480
 2.4040	74.9356
 2.4030	74.9862
 2.4020	74.9189
 2.4010	74.8678
 2.4000	74.8299
 2.3990	74.8094
 2.3980	74.8136
 2.3970	74.7638
 2.3960	74.7203
 2.3950	74.6842
 2.3940	74.6548
 2.3930	74.6602
 2.3920	74.6699
 2.3910	74.6022
 2.3900	74.5955
 2.3890	74.6418
 2.3880	74.5513
 2.3870	74.5033
 2.3860	74.6028
 2.3850	74.6278
 2.3840	74.5775
 2.3830	74.6250
 2.3820	74.6022
 2.3810	74.6287
 2.3800	74.6022
 2.3790	74.5693
 2.3780	74.6553
 2.3770	74.6558
 2.3760	74.5977
 2.3750	74.6312
 2.3740	74.6207
 2.3730	74.5289
 2.3720	74.4852
 2.3710	74.4024
 2.3700	74.3747
 2.3690	74.4099
 2.3680	74.3264
 2.3670	74.2656
 2.3660	74.2321
 2.3650	74.1879
 2.3640	74.1768
 2.3630	74.1064
 2.3620	74.0501
 2.3610	74.0176
 2.3600	73.9536
 2.3590	73.9389
 2.3580	73.9228
 2.3570	73.8724
 2.3560	73.8297
 2.3550	73.8468
 2.3540	73.9128
 2.3530	73.9249
 2.3520	73.9085
 2.3510	73.8906
 2.3500	73.9551
 2.3490	73.9788
 2.3480	74.0456
 2.3470	74.1268
 2.3460	74.1876
 2.3450	74.2373
 2.3440	74.2662
 2.3430	74.3439
 2.3420	74.3826
 2.3410	74.3826
 2.3400	74.4641
 2.3390	74.5209
 2.3380	74.5551
 2.3370	74.5871
 2.3360	74.6954
 2.3350	74.7776
 2.3340	74.8166
 2.3330	74.8713
 2.3320	74.9431
 2.3310	75.0515
 2.3300	75.1718
 2.3290	75.3329
 2.3280	75.4181
 2.3270	75.4898
 2.3260	75.6134
 2.3250	75.7719
 2.3240	75.9534
 2.3230	76.1284
 2.3220	76.1871
 2.3210	76.3402
 2.3200	76.4933
 2.3190	76.6420
 2.3180	76.7514
 2.3170	76.8170
 2.3160	77.0021
 2.3150	77.0949
 2.3140	77.1802
 2.3130	77.3046
 2.3120	77.3535
 2.3110	77.3896
 2.3100	77.4997
 2.3090	77.5318
 2.3080	77.5461
 2.3070	77.5596
 2.3060	77.5748
 2.3050	77.5891
 2.3040	77.5467
 2.3030	77.5817
 2.3020	77.6083
 2.3010	77.5913
 2.3000	77.6000
 2.2990	77.5130
 2.2980	77.4822
 2.2970	77.4907
 2.2960	77.4934
 2.2950	77.4473
 2.2940	77.3869
 2.2930	77.3527
 2.2920	77.3850
 2.2910	77.3593
 2.2900	77.3629
 2.2890	77.3215
 2.2880	77.3634
 2.2870	77.3118
 2.2860	77.3147
 2.2850	77.3040
 2.2840	77.3698
 2.2830	77.3472
 2.2820	77.3224
 2.2810	77.3860
 2.2800	77.3790
 2.2790	77.4219
 2.2780	77.4632
 2.2770	77.4505
 2.2760	77.5250
 2.2750	77.4957
 2.2740	77.5908
 2.2730	77.5638
 2.2720	77.5461
 2.2710	77.5982
 2.2700	77.7011
 2.2690	77.6078
 2.2680	77.7624
 2.2670	77.7749
 2.2660	77.7368
 2.2650	77.7643
 2.2640	77.7592
 2.2630	77.7505
 2.2620	77.7468
 2.2610	77.7598
 2.2600	77.8585
 2.2590	77.8030
 2.2580	77.7953
 2.2570	77.8060
 2.2560	77.8138
 2.2550	77.7575
 2.2540	77.8426
 2.2530	77.7832
 2.2520	77.7280
 2.2510	77.7806
 2.2500	77.7302
 2.2490	77.7330
 2.2480	77.6909
 2.2470	77.6741
 2.2460	77.6643
 2.2450	77.6607
 2.2440	77.6032
 2.2430	77.5825
 2.2420	77.5733
 2.2410	77.5707
 2.2400	77.4930
 2.2390	77.4502
 2.2380	77.5115
 2.2370	77.4981
 2.2360	77.5333
 2.2350	77.4680
 2.2340	77.4801
 2.2330	77.5536
 2.2320	77.5108
 2.2310	77.5768
 2.2300	77.6055
 2.2290	77.5648
 2.2280	77.6408
 2.2270	77.6294
 2.2260	77.7333
 2.2250	77.7289
 2.2240	77.8328
 2.2230	77.8342
 2.2220	77.9134
 2.2210	77.9564
 2.2200	78.0444
 2.2190	78.0135
 2.2180	78.0895
 2.2170	78.1468
 2.2160	78.1724
 2.2150	78.1378
 2.2140	78.2951
 2.2130	78.3121
 2.2120	78.4407
 2.2110	78.3585
 2.2100	78.5554
 2.2090	78.4855
 2.2080	78.4797
 2.2070	78.5551
 2.2060	78.6556
 2.2050	78.7641
 2.2040	78.7806
 2.2030	78.8368
 2.2020	78.8301
 2.2010	78.8342
 2.2000	78.9642
 2.1990	78.9158
 2.1980	78.9505
 2.1970	78.9443
 2.1960	79.0069
 2.1950	78.9851
 2.1940	79.0134
 2.1930	79.1153
 2.1920	79.1019
 2.1910	78.9877
 2.1900	79.0836
 2.1890	79.0852
 2.1880	79.1324
 2.1870	79.1579
 2.1860	79.1924
 2.1850	79.1747
 2.1840	79.1492
 2.1830	79.1769
 2.1820	79.2917
 2.1810	79.2861
 2.1800	79.3831
 2.1790	79.3894
 2.1780	79.3759
 2.1770	79.3507
 2.1760	79.3679
 2.1750	79.3952
 2.1740	79.4451
 2.1730	79.4263
 2.1720	79.4956
 2.1710	79.5671
 2.1700	79.5503
 2.1690	79.5526
 2.1680	79.5385
 2.1670	79.5927
 2.1660	79.6314
 2.1650	79.6421
 2.1640	79.7335
 2.1630	79.7223
 2.1620	79.7906
 2.1610	79.8243
 2.1600	79.8223
 2.1590	79.8385
 2.1580	79.8707
 2.1570	79.8539
 2.1560	79.8599
 2.1550	79.9055
 2.1540	79.9807
 2.1530	79.9156
 2.1520	79.9925
 2.1510	79.9160
 2.1500	79.9563
 2.1490	79.9343
 2.1480	79.9472
 2.1470	79.9452
 2.1460	79.9979
 2.1450	79.9867
 2.1440	79.9902
 2.1430	79.9756
 2.1420	80.0289
 2.1410	79.9587
 2.1400	80.0153
 2.1390	79.9996
 2.1380	79.9455
 2.1370	79.9466
 2.1360	79.9650
 2.1350	79.8683
 2.1340	79.8547
 2.1330	79.8358
 2.1320	79.8411
 2.1310	79.8326
 2.1300	79.8258
 2.1290	79.7974
 2.1280	79.7340
 2.1270	79.6961
 2.1260	79.6564
 2.1250	79.6374
 2.1240	79.5929
 2.1230	79.5003
 2.1220	79.4509
 2.1210	79.5032
 2.1200	79.4565
 2.1190	79.4047
 2.1180	79.3694
 2.1170	79.3020
 2.1160	79.2556
 2.1150	79.2445
 2.1140	79.1449
 2.1130	79.1320
 2.1120	79.1305
 2.1110	79.0201
 2.1100	78.9451
 2.1090	78.8893
 2.1080	78.8982
 2.1070	78.8686
 2.1060	78.8337
 2.1050	78.7713
 2.1040	78.7188
 2.1030	78.7323
 2.1020	78.7003
 2.1010	78.6144
 2.1000	78.5954
 2.0990	78.5958
 2.0980	78.6188
 2.0970	78.6457
 2.0960	78.6658
 2.0950	78.6309
 2.0940	78.6744
 2.0930	78.7282
 2.0920	78.6717
 2.0910	78.6547
 2.0900	78.6895
 2.0890	78.6737
 2.0880	78.7175
 2.0870	78.7693
 2.0860	78.7465
 2.0850	78.7435
 2.0840	78.7454
 2.0830	78.7233
 2.0820	78.7543
 2.0810	78.7943
 2.0800	78.7951
 2.0790	78.7853
 2.0780	78.7723
 2.0770	78.8039
 2.0760	78.8110
 2.0750	78.7972
 2.0740	78.8045
 2.0730	78.8233
 2.0720	78.8454
 2.0710	78.8348
 2.0700	78.8448
 2.0690	78.8244
 2.0680	78.7848
 2.0670	78.8550
 2.0660	78.9376
 2.0650	78.9088
 2.0640	78.9287
 2.0630	78.9547
 2.0620	78.9751
 2.0610	78.9930
 2.0600	78.9137
 2.0590	78.8759
 2.0580	78.9562
 2.0570	78.9849
 2.0560	78.9784
 2.0550	78.9664
 2.0540	78.9207
 2.0530	78.9460
 2.0520	78.9717
 2.0510	78.9963
 2.0500	78.9741
 2.0490	78.9677
 2.0480	79.0024
 2.0470	79.0280
 2.0460	78.9968
 2.0450	78.9533
 2.0440	78.9766
 2.0430	79.0235
 2.0420	79.0226
 2.0410	79.0489
 2.0400	78.9789
 2.0390	79.0404
 2.0380	79.0611
 2.0370	79.0090
 2.0360	79.0198
 2.0350	79.0616
 2.0340	79.0264
 2.0330	79.0546
 2.0320	79.0595
 2.0310	78.9701
 2.0300	78.9253
 2.0290	79.0147
 2.0280	78.9715
 2.0270	78.9633
 2.0260	78.9595
 2.0250	78.9904
 2.0240	78.8827
 2.0230	78.8658
 2.0220	78.9002
 2.0210	78.9346
 2.0200	78.8711
 2.0190	78.8380
 2.0180	78.8800
 2.0170	78.9093
 2.0160	78.8756
 2.0150	78.8209
 2.0140	78.8324
 2.0130	78.8363
 2.0120	78.8421
 2.0110	78.8294
 2.0100	78.7391
 2.0090	78.6991
 2.0080	78.7600
 2.0070	78.7823
 2.0060	78.7361
 2.0050	78.7422
 2.0040	78.7519
 2.0030	78.7180
 2.0020	78.7243
 2.0010	78.7336
 2.0000	78.6518
 1.9990	78.6484
 1.9980	78.6204
 1.9970	78.6043
 1.9960	78.5722
 1.9950	78.5412
 1.9940	78.5020
 1.9930	78.4949
 1.9920	78.4339
 1.9910	78.4735
 1.9900	78.3901
 1.9890	78.4004
 1.9880	78.3634
 1.9870	78.4071
 1.9860	78.3617
 1.9850	78.3460
 1.9840	78.3084
 1.9830	78.2411
 1.9820	78.1844
 1.9810	78.2014
 1.9800	78.1154
 1.9790	78.1905
 1.9780	78.1218
 1.9770	78.1062
 1.9760	78.0681
 1.9750	78.1281
 1.9740	78.0800
 1.9730	78.0327
 1.9720	77.9712
 1.9710	77.9830
 1.9700	78.0240
 1.9690	77.9350
 1.9680	77.9598
 1.9670	77.9769
 1.9660	77.8945
 1.9650	77.9221
 1.9640	77.8408
 1.9630	77.8927
 1.9620	77.8385
 1.9610	77.8561
 1.9600	77.7958
 1.9590	77.7631
 1.9580	77.7123
 1.9570	77.7603
 1.9560	77.7953
 1.9550	77.7131
 1.9540	77.6943
 1.9530	77.7298
 1.9520	77.7215
 1.9510	77.6856
 1.9500	77.6635
 1.9490	77.6111
 1.9480	77.5820
 1.9470	77.5272
 1.9460	77.6100
 1.9450	77.5925
 1.9440	77.5272
 1.9430	77.5731
 1.9420	77.5511
 1.9410	77.5276
 1.9400	77.4608
 1.9390	77.5538
 1.9380	77.4886
 1.9370	77.5047
 1.9360	77.4456
 1.9350	77.3408
 1.9340	77.3536
 1.9330	77.4433
 1.9320	77.3089
 1.9310	77.4302
 1.9300	77.3619
 1.9290	77.3937
 1.9280	77.3321
 1.9270	77.3286
 1.9260	77.3582
 1.9250	77.3690
 1.9240	77.2444
 1.9230	77.3248
 1.9220	77.2639
 1.9210	77.2086
 1.9200	77.2644
 1.9190	77.2494
 1.9180	77.2600
 1.9170	77.2758
 1.9160	77.3284
 1.9150	77.4159
 1.9140	77.3712
 1.9130	77.3886
 1.9120	77.3981
 1.9110	77.4395
 1.9100	77.4796
 1.9090	77.6711
 1.9080	77.7346
 1.9070	77.7886
 1.9060	77.8314
 1.9050	77.9854
 1.9040	78.0064
 1.9030	78.0969
 1.9020	78.2768
 1.9010	78.3028
 1.9000	78.4504
 1.8990	78.4711
 1.8980	78.5140
 1.8970	78.7294
 1.8960	78.7152
 1.8950	78.8337
 1.8940	78.9221
 1.8930	78.9562
 1.8920	79.0953
 1.8910	79.1558
 1.8900	79.2456
 1.8890	79.2639
 1.8880	79.2958
 1.8870	79.3187
 1.8860	79.3655
 1.8850	79.5014
 1.8840	79.5084
 1.8830	79.5852
 1.8820	79.5654
 1.8810	79.6382
 1.8800	79.6801
 1.8790	79.6949
 1.8780	79.6760
 1.8770	79.6976
 1.8760	79.7856
 1.8750	79.8055
 1.8740	79.7963
 1.8730	79.8274
 1.8720	79.8308
 1.8710	79.8755
 1.8700	79.9697
 1.8690	79.9706
 1.8680	79.9762
 1.8670	80.0550
 1.8660	79.9701
 1.8650	80.0376
 1.8640	80.0774
 1.8630	80.0826
 1.8620	80.0196
 1.8610	80.0923
 1.8600	80.0517
 1.8590	80.0488
 1.8580	80.1001
 1.8570	80.0902
 1.8560	80.1550
 1.8550	80.1382
 1.8540	80.1618
 1.8530	80.1325
 1.8520	80.1485
 1.8510	80.2179
 1.8500	80.1826
 1.8490	80.1710
 1.8480	80.1250
 1.8470	80.1669
 1.8460	80.1588
 1.8450	80.1419
 1.8440	80.1791
 1.8430	80.1641
 1.8420	80.1966
 1.8410	80.2054
 1.8400	80.1958
 1.8390	80.2406
 1.8380	80.2060
 1.8370	80.1156
 1.8360	80.1279
 1.8350	80.1036
 1.8340	80.1185
 1.8330	80.1650
 1.8320	80.2017
 1.8310	80.1923
 1.8300	80.1343
 1.8290	80.1909
 1.8280	80.2127
 1.8270	80.1872
 1.8260	80.1643
 1.8250	80.1997
 1.8240	80.2101
 1.8230	80.2084
 1.8220	80.1991
 1.8210	80.2165
 1.8200	80.1688
 1.8190	80.1950
 1.8180	80.1889
 1.8170	80.1686
 1.8160	80.2293
 1.8150	80.2685
 1.8140	80.1735
 1.8130	80.2171
 1.8120	80.2544
 1.8110	80.2298
 1.8100	80.2207
 1.8090	80.2986
 1.8080	80.2167
 1.8070	80.1630
 1.8060	80.2174
 1.8050	80.2210
 1.8040	80.2300
 1.8030	80.2236
 1.8020	80.2082
 1.8010	80.1927
 1.8000	80.2124
 1.7990	80.2455
 1.7980	80.2392
 1.7970	80.1636
 1.7960	80.1199
 1.7950	80.1592
 1.7940	80.1580
 1.7930	80.1760
 1.7920	80.2186
 1.7910	80.2197
 1.7900	80.2618
 1.7890	80.2309
 1.7880	80.2134
 1.7870	80.2244
 1.7860	80.1897
 1.7850	80.1920
 1.7840	80.2108
 1.7830	80.2120
 1.7820	80.1716
 1.7810	80.1128
 1.7800	80.1255
 1.7790	80.1208
 1.7780	80.0928
 1.7770	80.0995
 1.7760	80.1264
 1.7750	80.1094
 1.7740	80.0629
 1.7730	80.0662
 1.7720	80.0928
 1.7710	80.1047
 1.7700	80.1199
 1.7690	80.0423
 1.7680	80.0815
 1.7670	80.1092
 1.7660	80.0923
 1.7650	80.1019
 1.7640	80.0835
 1.7630	80.0936
 1.7620	80.0672
 1.7610	80.0403
 1.7600	80.0689
 1.7590	80.0839
 1.7580	80.0873
 1.7570	80.1129
 1.7560	80.0864
 1.7550	80.0816
 1.7540	80.0731
 1.7530	80.0663
 1.7520	80.0927
 1.7510	80.0522
 1.7500	80.0637
 1.7490	80.0709
 1.7480	80.0389
 1.7470	80.0251
 1.7460	80.0273
 1.7450	80.0413
 1.7440	80.0457
 1.7430	80.0658
 1.7420	80.0782
 1.7410	80.0674
 1.7400	80.0908
 1.7390	80.0531
 1.7380	80.0798
 1.7370	80.0322
 1.7360	80.0251
 1.7350	80.0484
 1.7340	80.0966
 1.7330	80.0517
 1.7320	80.0469
 1.7310	80.1029
 1.7300	80.0951
 1.7290	80.0820
 1.7280	80.1308
 1.7270	80.1098
 1.7260	80.1200
 1.7250	80.0702
 1.7240	80.1016
 1.7230	80.1415
 1.7220	80.0738
 1.7210	80.0530
 1.7200	80.0571
 1.7190	80.0605
 1.7180	80.0478
 1.7170	80.1062
 1.7160	80.0891
 1.7150	80.0437
 1.7140	80.0553
 1.7130	80.0586
 1.7120	80.0023
 1.7110	79.9912
 1.7100	80.0270
 1.7090	79.9593
 1.7080	80.0113
 1.7070	79.9635
 1.7060	80.0052
 1.7050	79.9398
 1.7040	79.9863
 1.7030	79.9473
 1.7020	79.9717
 1.7010	79.9737
 1.7000	79.9744
 1.6990	79.9076
 1.6980	79.9384
 1.6970	79.8852
 1.6960	79.8581
 1.6950	79.8792
 1.6940	79.8405
 1.6930	79.8440
 1.6920	79.9052
 1.6910	79.8856
 1.6900	79.9225
 1.6890	79.7943
 1.6880	79.8194
 1.6870	79.8312
 1.6860	79.8666
 1.6850	79.8323
 1.6840	79.8286
 1.6830	79.8380
 1.6820	79.8639
 1.6810	79.7954
 1.6800	79.7850
 1.6790	79.8341
 1.6780	79.8455
 1.6770	79.8104
 1.6760	79.9235
 1.6750	79.7629
 1.6740	79.8260
 1.6730	79.8127
 1.6720	79.7221
 1.6710	79.6902
 1.6700	79.8838
 1.6690	79.7757
 1.6680	79.6746
 1.6670	79.7539
 1.6660	79.7266
 1.6650	79.7243
 1.6640	79.7535
 1.6630	79.6711
 1.6620	79.7537
 1.6610	79.7492
 1.6600	79.7506
 1.6590	79.6816
 1.6580	79.6900
 1.6570	79.6279
 1.6560	79.7812
 1.6550	79.6667
 1.6540	79.6406
 1.6530	79.6662
 1.6520	79.6619
 1.6510	79.6934
 1.6500	79.7038
 1.6490	79.6628
 1.6480	79.6328
 1.6470	79.6599
 1.6460	79.5893
 1.6450	79.6095
 1.6440	79.6357
 1.6430	79.6488
 1.6420	79.6598
 1.6410	79.5568
 1.6400	79.6394
 1.6390	79.5931
 1.6380	79.5821
 1.6370	79.5968
 1.6360	79.6478
 1.6350	79.5121
 1.6340	79.6152
 1.6330	79.6461
 1.6320	79.5501
 1.6310	79.5322
 1.6300	79.5758
 1.6290	79.5762
 1.6280	79.6081
 1.6270	79.5552
 1.6260	79.5428
 1.6250	79.5672
 1.6240	79.5653
 1.6230	79.5383
 1.6220	79.5931
 1.6210	79.5268
 1.6200	79.4749
 1.6190	79.5877
 1.6180	79.4963
 1.6170	79.5237
 1.6160	79.5945
 1.6150	79.5477
 1.6140	79.5369
 1.6130	79.5356
 1.6120	79.4606
 1.6110	79.4365
 1.6100	79.5043
 1.6090	79.4973
 1.6080	79.5425
 1.6070	79.4365
 1.6060	79.4674
 1.6050	79.5490
 1.6040	79.5517
 1.6030	79.4293
 1.6020	79.4464
 1.6010	79.4183
 1.6000	79.4628
 1.5990	79.4763
 1.5980	79.4401
 1.5970	79.4089
 1.5960	79.4671
 1.5950	79.4151
 1.5940	79.4848
 1.5930	79.4865
 1.5920	79.4161
 1.5910	79.4382
 1.5900	79.4274
 1.5890	79.4171
 1.5880	79.4260
 1.5870	79.4187
 1.5860	79.3491
 1.5850	79.3956
 1.5840	79.3459
 1.5830	79.3971
 1.5820	79.4340
 1.5810	79.3041
 1.5800	79.3815
 1.5790	79.3622
 1.5780	79.3709
 1.5770	79.3193
 1.5760	79.3776
 1.5750	79.3565
 1.5740	79.3745
 1.5730	79.2579
 1.5720	79.3679
 1.5710	79.3136
 1.5700	79.2520
 1.5690	79.2908
 1.5680	79.2792
 1.5670	79.3186
 1.5660	79.3635
 1.5650	79.2874
 1.5640	79.3623
 1.5630	79.3233
 1.5620	79.3388
 1.5610	79.2775
 1.5600	79.2120
 1.5590	79.2889
 1.5580	79.3247
 1.5570	79.2137
 1.5560	79.2286
 1.5550	79.2472
 1.5540	79.2262
 1.5530	79.2652
 1.5520	79.2325
 1.5510	79.1771
 1.5500	79.2430
 1.5490	79.2190
 1.5480	79.1871
 1.5470	79.2161
 1.5460	79.2455
 1.5450	79.1805
 1.5440	79.2025
 1.5430	79.2619
 1.5420	79.2143
 1.5410	79.1847
 1.5400	79.2086
 1.5390	79.1817
 1.5380	79.1707
 1.5370	79.2103
 1.5360	79.2453
 1.5350	79.1982
 1.5340	79.1539
 1.5330	79.1212
 1.5320	79.0967
 1.5310	79.1123
 1.5300	79.1141
 1.5290	79.1278
 1.5280	79.1455
 1.5270	79.1031
 1.5260	79.1386
 1.5250	79.1579
 1.5240	79.1023
 1.5230	79.1134
 1.5220	79.1301
 1.5210	79.1236
 1.5200	79.1076
 1.5190	79.0849
 1.5180	79.0632
 1.5170	79.0354
 1.5160	79.0430
 1.5150	79.0652
 1.5140	79.1000
 1.5130	79.1001
 1.5120	79.0398
 1.5110	79.0179
 1.5100	79.0521
 1.5090	79.0701
 1.5080	79.0552
 1.5070	79.0525
 1.5060	79.0254
 1.5050	78.9787
 1.5040	78.9844
 1.5030	78.9987
 1.5020	78.9712
 1.5010	78.9597
 1.5000	79.0089
 1.4990	79.0067
 1.4980	78.9696
 1.4970	78.9587
 1.4960	78.9057
 1.4950	78.8631
 1.4940	78.8840
 1.4930	78.8868
 1.4920	78.8188
 1.4910	78.7219
 1.4900	78.6741
 1.4890	78.6378
 1.4880	78.6097
 1.4870	78.6101
 1.4860	78.5636
 1.4850	78.4919
 1.4840	78.3717
 1.4830	78.3076
 1.4820	78.2650
 1.4810	78.1825
 1.4800	78.1582
 1.4790	78.1102
 1.4780	78.0752
 1.4770	78.1311
 1.4760	78.1495
 1.4750	78.1293
 1.4740	78.2049
 1.4730	78.3096
 1.4720	78.3793
 1.4710	78.4557
 1.4700	78.5023
 1.4690	78.5224
 1.4680	78.5632
 1.4670	78.6416
 1.4660	78.6678
 1.4650	78.6803
 1.4640	78.6771
 1.4630	78.7129
 1.4620	78.7386
 1.4610	78.6926
 1.4600	78.7085
 1.4590	78.7585
 1.4580	78.7609
 1.4570	78.7229
 1.4560	78.6759
 1.4550	78.7333
 1.4540	78.7391
 1.4530	78.6952
 1.4520	78.7068
 1.4510	78.7273
 1.4500	78.7290
 1.4490	78.7020
 1.4480	78.7073
 1.4470	78.7295
 1.4460	78.7831
 1.4450	78.7630
 1.4440	78.7073
 1.4430	78.7311
 1.4420	78.7326
 1.4410	78.7333
 1.4400	78.7044
 1.4390	78.6753
 1.4380	78.6927
 1.4370	78.7265
 1.4360	78.7295
 1.4350	78.7497
 1.4340	78.7168
 1.4330	78.7067
 1.4320	78.6789
 1.4310	78.7073
 1.4300	78.6953
 1.4290	78.6988
 1.4280	78.7022
 1.4270	78.6944
 1.4260	78.6921
 1.4250	78.7998
 1.4240	78.7263
 1.4230	78.7027
 1.4220	78.7321
 1.4210	78.7769
 1.4200	78.7688
 1.4190	78.7754
 1.4180	78.7113
 1.4170	78.7498
 1.4160	78.7314
 1.4150	78.8479
 1.4140	78.8022
 1.4130	78.7581
 1.4120	78.7813
 1.4110	78.8321
 1.4100	78.7760
 1.4090	78.8939
 1.4080	78.9390
 1.4070	78.9088
 1.4060	78.8136
 1.4050	78.9026
 1.4040	78.8738
 1.4030	78.9283
 1.4020	78.9422
 1.4010	79.0053
 1.4000	78.9182
 1.3990	78.9343
 1.3980	79.0393
 1.3970	79.1107
 1.3960	79.0222
 1.3950	79.1311
 1.3940	79.0770
 1.3930	79.0972
 1.3920	79.1256
 1.3910	79.1491
 1.3900	79.1495
 1.3890	79.1682
 1.3880	79.1301
 1.3870	79.1291
 1.3860	79.1686
 1.3850	79.1501
 1.3840	79.0861
 1.3830	79.1740
 1.3820	79.0331
 1.3810	79.1228
 1.3800	79.1360
 1.3790	79.2180
 1.3780	79.0910
 1.3770	79.2268
 1.3760	79.2118
 1.3750	79.1285
 1.3740	79.1500
 1.3730	79.1078
 1.3720	79.1275
 1.3710	79.1568
 1.3700	79.0902
 1.3690	79.1812
 1.3680	79.1680
 1.3670	79.1976
 1.3660	79.0756
 1.3650	79.1202
 1.3640	79.1227
 1.3630	79.1494
 1.3620	79.0610
 1.3610	79.0731
 1.3600	78.9474
 1.3590	79.0461
 1.3580	79.0951
 1.3570	79.0911
 1.3560	79.0777
 1.3550	79.0961
 1.3540	79.0843
 1.3530	79.0609
 1.3520	79.0522
 1.3510	78.9858
 1.3500	79.0328
 1.3490	78.9454
 1.3480	79.0032
 1.3470	79.0063
 1.3460	78.8750
 1.3450	78.9376
 1.3440	78.9767
 1.3430	78.9203
 1.3420	78.9157
 1.3410	78.9269
 1.3400	78.8511
 1.3390	78.9587
 1.3380	78.8895
 1.3370	78.9251
 1.3360	78.8641
 1.3350	78.9692
 1.3340	78.8670
 1.3330	78.9236
 1.3320	78.8215
 1.3310	78.9126
 1.3300	78.9531
 1.3290	78.8380
 1.3280	78.8268
 1.3270	78.8825
 1.3260	78.8112
 1.3250	78.8410
 1.3240	78.7568
 1.3230	78.8071
 1.3220	78.7941
 1.3210	78.8063
 1.3200	78.7559
 1.3190	78.7657
 1.3180	78.7331
 1.3170	78.7509
 1.3160	78.6587
 1.3150	78.8024
 1.3140	78.7956
 1.3130	78.7947
 1.3120	78.6699
 1.3110	78.6764
 1.3100	78.6690
 1.3090	78.6472
 1.3080	78.6048
 1.3070	78.5498
 1.3060	78.6087
 1.3050	78.5527
 1.3040	78.6218
 1.3030	78.6125
 1.3020	78.5526
 1.3010	78.5598
 1.3000	78.5413
 1.2990	78.5037
 1.2980	78.5043
 1.2970	78.4627
 1.2960	78.5630
 1.2950	78.5398
 1.2940	78.4353
 1.2930	78.5063
 1.2920	78.4381
 1.2910	78.4536
 1.2900	78.4652
 1.2890	78.4497
 1.2880	78.4084
 1.2870	78.4474
 1.2860	78.4095
 1.2850	78.3361
 1.2840	78.3191
 1.2830	78.3627
 1.2820	78.3407
 1.2810	78.3073
 1.2800	78.3350
 1.2790	78.3287
 1.2780	78.3151
 1.2770	78.2512
 1.2760	78.2479
 1.2750	78.2524
 1.2740	78.2241
 1.2730	78.2085
 1.2720	78.1738
 1.2710	78.1787
 1.2700	78.2000
 1.2690	78.1947
 1.2680	78.1721
 1.2670	78.1862
 1.2660	78.0747
 1.2650	78.0949
 1.2640	78.0785
 1.2630	78.0987
 1.2620	78.1336
 1.2610	78.1144
 1.2600	78.1222
 1.2590	78.0611
 1.2580	77.9668
 1.2570	77.9708
 1.2560	77.9720
 1.2550	77.9940
 1.2540	77.9687
 1.2530	77.9337
 1.2520	77.9237
 1.2510	77.9626
 1.2500	77.8735
 1.2490	77.8694
 1.2480	77.9048
 1.2470	77.8454
 1.2460	77.7719
 1.2450	77.7431
 1.2440	77.7860
 1.2430	77.8255
 1.2420	77.8257
 1.2410	77.7879
 1.2400	77.7520
 1.2390	77.8032
 1.2380	77.7717
 1.2370	77.7153
 1.2360	77.6934
 1.2350	77.6673
 1.2340	77.6655
 1.2330	77.6444
 1.2320	77.6211
 1.2310	77.6290
 1.2300	77.6003
 1.2290	77.5546
 1.2280	77.5421
 1.2270	77.5640
 1.2260	77.5891
 1.2250	77.5727
 1.2240	77.5369
 1.2230	77.5277
 1.2220	77.5008
 1.2210	77.4749
 1.2200	77.4388
 1.2190	77.4272
 1.2180	77.4457
 1.2170	77.4310
 1.2160	77.4331
 1.2150	77.4123
 1.2140	77.3539
 1.2130	77.3534
 1.2120	77.3518
 1.2110	77.3375
 1.2100	77.3854
 1.2090	77.3405
 1.2080	77.2814
 1.2070	77.3070
 1.2060	77.2949
 1.2050	77.2562
 1.2040	77.2838
 1.2030	77.2635
 1.2020	77.1728
 1.2010	77.1735
 1.2000	77.1813
 1.1990	77.1792
 1.1980	77.1977
 1.1970	77.1042
 1.1960	77.1002
 1.1950	77.1018
 1.1940	77.1340
 1.1930	77.1443
 1.1920	77.1139
 1.1910	77.1288
 1.1900	77.0938
 1.1890	77.1219
 1.1880	77.0881
 1.1870	77.0158
 1.1860	77.0406
 1.1850	77.0565
 1.1840	77.1110
 1.1830	77.0598
 1.1820	77.0437
 1.1810	77.0272
 1.1800	76.9981
 1.1790	76.9685
 1.1780	76.9239
 1.1770	76.9661
 1.1760	76.9364
 1.1750	76.9053
 1.1740	76.9469
 1.1730	76.9682
 1.1720	76.9563
 1.1710	76.8900
 1.1700	76.9394
 1.1690	76.9430
 1.1680	76.9247
 1.1670	76.9885
 1.1660	76.9236
 1.1650	76.9231
 1.1640	76.9514
 1.1630	76.9105
 1.1620	76.9103
 1.1610	76.9114
 1.1600	76.8689
 1.1590	76.9147
 1.1580	76.9354
 1.1570	76.8798
 1.1560	76.8687
 1.1550	76.8597
 1.1540	76.8254
 1.1530	76.7808
 1.1520	76.8516
 1.1510	76.8306
 1.1500	76.8316
 1.1490	76.7874
 1.1480	76.8062
 1.1470	76.7977
 1.1460	76.8360
 1.1450	76.8546
 1.1440	76.8451
 1.1430	76.8177
 1.1420	76.8893
 1.1410	76.8382
 1.1400	76.8280
 1.1390	76.8906
 1.1380	76.8611
 1.1370	76.8333
 1.1360	76.8345
 1.1350	76.8027
 1.1340	76.7988
 1.1330	76.8335
 1.1320	76.8868
 1.1310	76.8621
 1.1300	76.8844
 1.1290	76.8564
 1.1280	76.8924
 1.1270	76.8531
 1.1260	76.8345
 1.1250	76.8680
 1.1240	76.8871
 1.1230	76.8554
 1.1220	76.8632
 1.1210	76.8907
 1.1200	76.8645
 1.1190	76.8132
 1.1180	76.8557
 1.1170	76.8511
 1.1160	76.8665
 1.1150	76.8759
 1.1140	76.8407
 1.1130	76.8315
 1.1120	76.8858
 1.1110	76.8182
 1.1100	76.8420
 1.1090	76.8271
 1.1080	76.9171
 1.1070	76.8286
 1.1060	76.8601
 1.1050	76.8727
 1.1040	76.9369
 1.1030	76.8990
 1.1020	76.9129
 1.1010	76.9263
 1.1000	76.9446
 1.0990	76.9109
 1.0980	76.9765
 1.0970	76.8825
 1.0960	76.9118
 1.0950	76.9737
 1.0940	76.9163
 1.0930	76.9714
 1.0920	76.9211
 1.0910	76.9990
 1.0900	76.9675
 1.0890	76.9168
 1.0880	76.9752
 1.0870	76.8972
 1.0860	76.9626
 1.0850	76.9500
 1.0840	76.9707
 1.0830	76.9343
 1.0820	77.0199
 1.0810	76.9655
 1.0800	76.9777
 1.0790	77.0515
 1.0780	76.9860
 1.0770	77.0933
 1.0760	77.0023
 1.0750	77.0372
 1.0740	77.0765
 1.0730	76.9802
 1.0720	77.0420
 1.0710	77.0492
 1.0700	76.9510
 1.0690	77.0097
 1.0680	77.0931
 1.0670	77.0674
 1.0660	77.0438
 1.0650	77.0266
 1.0640	77.1205
 1.0630	77.0860
 1.0620	77.1726
 1.0610	77.0667
 1.0600	77.2183
 1.0590	77.1115
 1.0580	77.0974
 1.0570	77.1542
 1.0560	77.0802
 1.0550	77.0963
 1.0540	77.1064
 1.0530	77.0973
 1.0520	77.2006
 1.0510	77.1343
 1.0500	77.2063
 1.0490	77.1589
 1.0480	77.2537
 1.0470	77.0677
 1.0460	77.1458
 1.0450	77.1494
 1.0440	77.2335
 1.0430	77.1313
 1.0420	77.1971
 1.0410	77.2702
 1.0400	77.2415
 1.0390	77.2200
 1.0380	77.3162
 1.0370	77.2688
 1.0360	77.2578
 1.0350	77.2599
 1.0340	77.2848
 1.0330	77.1912
 1.0320	77.2077
 1.0310	77.2089
 1.0300	77.3084
 1.0290	77.1858
 1.0280	77.1771
 1.0270	77.2533
 1.0260	77.3029
 1.0250	77.2563
 1.0240	77.3393
 1.0230	77.3001
 1.0220	77.3046
 1.0210	77.2840
 1.0200	77.2627
 1.0190	77.2553
 1.0180	77.3081
 1.0170	77.2689
 1.0160	77.3094
 1.0150	77.2458
 1.0140	77.3489
 1.0130	77.2973
 1.0120	77.2935
 1.0110	77.2852
 1.0100	77.3037
 1.0090	77.3050
 1.0080	77.3342
 1.0070	77.2313
 1.0060	77.2614
 1.0050	77.3120
 1.0040	77.3279
 1.0030	77.3456
 1.0020	77.3824
 1.0010	77.3022
 1.0000	77.4208
 0.9990	77.3615
 0.9980	77.3472
 0.9970	77.2826
 0.9960	77.3421
 0.9950	77.3415
 0.9940	77.3010
 0.9930	77.3097
 0.9920	77.3649
 0.9910	77.3538
 0.9900	77.3515
 0.9890	77.3369
 0.9880	77.3619
 0.9870	77.3514
 0.9860	77.4182
 0.9850	77.3893
 0.9840	77.3645
 0.9830	77.3526
 0.9820	77.3724
 0.9810	77.3264
 0.9800	77.4154
 0.9790	77.4255
 0.9780	77.3844
 0.9770	77.3902
 0.9760	77.3947
 0.9750	77.3982
 0.9740	77.4420
 0.9730	77.4070
 0.9720	77.4071
 0.9710	77.4317
 0.9700	77.4711
 0.9690	77.4872
 0.9680	77.5045
 0.9670	77.4698
 0.9660	77.4804
 0.9650	77.4710
 0.9640	77.4739
 0.9630	77.5108
 0.9620	77.5616
 0.9610	77.5641
 0.9600	77.5439
 0.9590	77.4839
 0.9580	77.5521
 0.9570	77.5910
 0.9560	77.5386
 0.9550	77.5927
 0.9540	77.6754
 0.9530	77.6608
 0.9520	77.6437
 0.9510	77.6766
 0.9500	77.6196
 0.9490	77.6152
 0.9480	77.7105
 0.9470	77.7203
 0.9460	77.7334
 0.9450	77.7841
 0.9440	77.7711
 0.9430	77.7775
 0.9420	77.8523
 0.9410	77.8750
 0.9400	77.8518
 0.9390	77.8116
 0.9380	77.8017
 0.9370	77.7991
 0.9360	77.8445
 0.9350	77.8637
 0.9340	77.8981
 0.9330	77.9583
 0.9320	78.0017
 0.9310	77.9840
 0.9300	77.9831
 0.9290	78.0641
 0.9280	78.0623
 0.9270	77.9913
 0.9260	78.0488
 0.9250	78.1496
 0.9240	78.1519
 0.9230	78.1417
 0.9220	78.1903
 0.9210	78.1626
 0.9200	78.1694
 0.9190	78.2411
 0.9180	78.2330
 0.9170	78.2689
 0.9160	78.3031
 0.9150	78.3168
 0.9140	78.3275
 0.9130	78.3731
 0.9120	78.4222
 0.9110	78.4773
 0.9100	78.4967
 0.9090	78.5493
 0.9080	78.5453
 0.9070	78.5715
 0.9060	78.6326
 0.9050	78.6595
 0.9040	78.6906
 0.9030	78.7413
 0.9020	78.7344
 0.9010	78.7727
 0.9000	78.8314
 0.8990	78.8177
 0.8980	78.7926
 0.8970	78.8761
 0.8960	78.8951
 0.8950	78.9459
 0.8940	78.8930
 0.8930	78.9404
 0.8920	79.0005
 0.8910	78.9919
 0.8900	78.9760
 0.8890	79.1092
 0.8880	79.1403
 0.8870	79.1188
 0.8860	79.1737
 0.8850	79.2606
 0.8840	79.2267
 0.8830	79.3426
 0.8820	79.3412
 0.8810	79.3402
 0.8800	79.3432
 0.8790	79.3878
 0.8780	79.4305
 0.8770	79.5144
 0.8760	79.5312
 0.8750	79.5897
 0.8740	79.5892
 0.8730	79.5960
 0.8720	79.5921
 0.8710	79.6477
 0.8700	79.7271
 0.8690	79.7459
 0.8680	79.7573
 0.8670	79.7739
 0.8660	79.7913
 0.8650	79.8418
 0.8640	79.8289
 0.8630	79.8906
 0.8620	79.8939
 0.8610	80.0522
 0.8600	80.0666
 0.8590	80.0475
 0.8580	80.0175
 0.8570	79.9831
 0.8560	80.1678
 0.8550	80.1730
 0.8540	80.1770
 0.8530	80.2049
 0.8520	80.2146
 0.8510	80.2838
 0.8500	80.3021
 0.8490	80.3059
 0.8480	80.3174
 0.8470	80.3866
 0.8460	80.3659
 0.8450	80.4567
 0.8440	80.4383
 0.8430	80.4830
 0.8420	80.4967
 0.8410	80.5455
 0.8400	80.6048
 0.8390	80.6512
 0.8380	80.6806
 0.8370	80.6614
 0.8360	80.6719
 0.8350	80.7703
 0.8340	80.7706
 0.8330	80.7746
 0.8320	80.8539
 0.8310	80.8500
 0.8300	80.8955
 0.8290	80.9104
 0.8280	80.9696
 0.8270	80.9047
 0.8260	80.9515
 0.8250	80.9604
 0.8240	81.0107
 0.8230	80.9752
 0.8220	81.1024
 0.8210	81.0888
 0.8200	81.1309
 0.8190	81.0988
 0.8180	81.1890
 0.8170	81.2281
 0.8160	81.2225
 0.8150	81.2653
 0.8140	81.2477
 0.8130	81.2513
 0.8120	81.3034
 0.8110	81.2661
 0.8100	81.3092
 0.8090	81.3186
 0.8080	81.3512
 0.8070	81.3588
 0.8060	81.3890
 0.8050	81.4117
 0.8040	81.4237
 0.8030	81.4969
 0.8020	81.5206
 0.8010	81.4538
 0.8000	81.5361
 0.7990	81.4795
 0.7980	81.5062
 0.7970	81.4770
 0.7960	81.4768
 0.7950	81.4419
 0.7940	81.4987
 0.7930	81.4995
 0.7920	81.5465
 0.7910	81.5612
 0.7900	81.5558
 0.7890	81.5881
 0.7880	81.5705
 0.7870	81.6094
 0.7860	81.6004
 0.7850	81.6213
 0.7840	81.6038
 0.7830	81.6117
 0.7820	81.6907
 0.7810	81.6752
 0.7800	81.6599
 0.7790	81.7098
 0.7780	81.6811
 0.7770	81.6792
 0.7760	81.6985
 0.7750	81.6713
 0.7740	81.6777
 0.7730	81.7026
 0.7720	81.7226
 0.7710	81.6809
 0.7700	81.7260
 0.7690	81.7599
 0.7680	81.7660
 0.7670	81.7451
 0.7660	81.7619
 0.7650	81.7425
 0.7640	81.7725
 0.7630	81.7713
 0.7620	81.7485
 0.7610	81.7997
 0.7600	81.7940
 0.7590	81.7773
 0.7580	81.7826
 0.7570	81.7799
 0.7560	81.7768
 0.7550	81.8046
 0.7540	81.7863
 0.7530	81.8235
 0.7520	81.8120
 0.7510	81.8302
 0.7500	81.8033
 0.7490	81.8310
 0.7480	81.7744
 0.7470	81.8211
 0.7460	81.7889
 0.7450	81.7948
 0.7440	81.8023
 0.7430	81.8153
 0.7420	81.8182
 0.7410	81.7940
 0.7400	81.7579
 0.7390	81.8081
 0.7380	81.8005
 0.7370	81.8075
 0.7360	81.7799
 0.7350	81.7778
 0.7340	81.7886
 0.7330	81.7909
 0.7320	81.7727
 0.7310	81.7777
 0.7300	81.7836
 0.7290	81.7691
 0.7280	81.7393
 0.7270	81.7448
 0.7260	81.7359
 0.7250	81.7455
 0.7240	81.7547
 0.7230	81.7610
 0.7220	81.7522
 0.7210	81.7073
 0.7200	81.7420
 0.7190	81.7242
 0.7180	81.7035
 0.7170	81.6974
 0.7160	81.6881
 0.7150	81.6676
 0.7140	81.6528
 0.7130	81.6616
 0.7120	81.6555
 0.7110	81.6655
 0.7100	81.6276
 0.7090	81.6190
 0.7080	81.6177
 0.7070	81.6131
 0.7060	81.5993
 0.7050	81.5869
 0.7040	81.6040
 0.7030	81.5722
 0.7020	81.5148
 0.7010	81.5428
 0.7000	81.5426
 0.6990	81.5030
 0.6980	81.4840
 0.6970	81.4795
 0.6960	81.4670
 0.6950	81.4387
 0.6940	81.4480
 0.6930	81.4471
 0.6920	81.4402
 0.6910	81.4405
 0.6900	81.4266
 0.6890	81.4028
 0.6880	81.3858
 0.6870	81.3935
 0.6860	81.3924
 0.6850	81.3996
 0.6840	81.4126
 0.6830	81.4338
 0.6820	81.4337
 0.6810	81.4387
 0.6800	81.4426
 0.6790	81.4415
 0.6780	81.4247
 0.6770	81.4126
 0.6760	81.4054
 0.6750	81.3971
 0.6740	81.3744
 0.6730	81.3589
 0.6720	81.3458
 0.6710	81.3300
 0.6700	81.3215
 0.6690	81.3251
 0.6680	81.3171
 0.6670	81.3019
 0.6660	81.2898
 0.6650	81.2719
 0.6640	81.2672
 0.6630	81.2750
 0.6620	81.2733
 0.6610	81.2554
 0.6600	81.2531
 0.6590	81.2552
 0.6580	81.2425
 0.6570	81.2327
 0.6560	81.2378
 0.6550	81.2413
 0.6540	81.2333
 0.6530	81.2239
 0.6520	81.2295
 0.6510	81.2288
 0.6500	81.2319
 0.6490	81.2601
 0.6480	81.2615
 0.6470	81.2416
 0.6460	81.2555
 0.6450	81.2653
 0.6440	81.2520
 0.6430	81.2434
 0.6420	81.2404
 0.6410	81.2483
 0.6400	81.2371
 0.6390	81.2185
 0.6380	81.2263
 0.6370	81.2393
 0.6360	81.2343
 0.6350	81.2308
 0.6340	81.2467
 0.6330	81.2403
 0.6320	81.2347
 0.6310	81.2308
 0.6300	81.2507
 0.6290	81.2616
 0.6280	81.2535
 0.6270	81.2698
 0.6260	81.2752
 0.6250	81.2754
 0.6240	81.2830
 0.6230	81.2904
 0.6220	81.2978
 0.6210	81.3033
 0.6200	81.3005
 0.6190	81.3085
 0.6180	81.3283
 0.6170	81.3320
 0.6160	81.3276
 0.6150	81.3486
 0.6140	81.3515
 0.6130	81.3575
 0.6120	81.3737
 0.6110	81.3765
 0.6100	81.3949
 0.6090	81.4052
 0.6080	81.4034
 0.6070	81.4209
 0.6060	81.4196
 0.6050	81.4020
 0.6040	81.4266
 0.6030	81.4380
 0.6020	81.4296
 0.6010	81.4271
 0.6000	81.4379
 0.5990	81.4651
 0.5980	81.4929
 0.5970	81.5084
 0.5960	81.5234
 0.5950	81.5328
 0.5940	81.5440
 0.5930	81.5524
 0.5920	81.5638
 0.5910	81.5751
 0.5900	81.5829
 0.5890	81.5678
 0.5880	81.5702
 0.5870	81.5855
 0.5860	81.5838
 0.5850	81.5802
 0.5840	81.5858
 0.5830	81.5825
 0.5820	81.5890
 0.5810	81.5879
 0.5800	81.5865
 0.5790	81.5784
 0.5780	81.5998
 0.5770	81.5936
 0.5760	81.5925
 0.5750	81.5933
 0.5740	81.5785
 0.5730	81.5723
 0.5720	81.5664
 0.5710	81.5771
 0.5700	81.5865
 0.5690	81.5872
 0.5680	81.5631
 0.5670	81.5705
 0.5660	81.5578
 0.5650	81.5472
 0.5640	81.5527
 0.5630	81.5496
 0.5620	81.5479
 0.5610	81.5190
 0.5600	81.5025
 0.5590	81.5006
 0.5580	81.4884
 0.5570	81.4602
 0.5560	81.4578
 0.5550	81.4673
 0.5540	81.4327
 0.5530	81.4252
 0.5520	81.4113
 0.5510	81.3998
 0.5500	81.3934
 0.5490	81.3765
 0.5480	81.3686
 0.5470	81.3379
 0.5460	81.3290
 0.5450	81.3144
 0.5440	81.3026
 0.5430	81.2799
 0.5420	81.2808
 0.5410	81.2552
 0.5400	81.2368
 0.5390	81.2129
 0.5380	81.1940
 0.5370	81.1744
 0.5360	81.1515
 0.5350	81.1423
 0.5340	81.1278
 0.5330	81.1105
 0.5320	81.0605
 0.5310	81.0506
 0.5300	81.0241
 0.5290	80.9996
 0.5280	80.9807
 0.5270	80.9397
 0.5260	80.9176
 0.5250	80.8995
 0.5240	80.8771
 0.5230	80.8446
 0.5220	80.8365
 0.5210	80.7925
 0.5200	80.7639
 0.5190	80.7417
 0.5180	80.6985
 0.5170	80.6808
 0.5160	80.6571
 0.5150	80.6236
 0.5140	80.6000
 0.5130	80.5686
 0.5120	80.5244
 0.5110	80.4944
 0.5100	80.4840
 0.5090	80.4260
 0.5080	80.3894
 0.5070	80.3594
 0.5060	80.3094
 0.5050	80.2683
 0.5040	80.2293
 0.5030	80.2090
 0.5020	80.1617
 0.5010	80.1431
 0.5000	80.0927
 0.4990	80.0665
 0.4980	80.0070
 0.4970	79.9752
 0.4960	79.9186
 0.4950	79.8595
 0.4940	79.8157
 0.4930	79.7635
 0.4920	79.7155
 0.4910	79.6795
 0.4900	79.6160
 0.4890	79.5643
 0.4880	79.5122
 0.4870	79.4457
 0.4860	79.4275
 0.4850	79.3781
 0.4840	79.3080
 0.4830	79.3156
 0.4820	79.2545
 0.4810	79.2245
 0.4800	79.1855
 0.4790	79.1468
 0.4780	79.0933
 0.4770	79.0833
 0.4760	79.0471
 0.4750	78.9858
 0.4740	78.9440
 0.4730	78.9191
 0.4720	78.8666
 0.4710	78.8075
 0.4700	78.7805
 0.4690	78.7030
 0.4680	78.6844
 0.4670	78.6543
 0.4660	78.5909
 0.4650	78.5470
 0.4640	78.5145
 0.4630	78.4475
 0.4620	78.3894
 0.4610	78.3567
 0.4600	78.3011
 0.4590	78.2512
 0.4580	78.2037
 0.4570	78.1587
 0.4560	78.1076
 0.4550	78.0674
 0.4540	78.0107
 0.4530	77.9688
 0.4520	77.9244
 0.4510	77.8801
 0.4500	77.8440
 0.4490	77.7892
 0.4480	77.7261
 0.4470	77.7199
 0.4460	77.6606
 0.4450	77.6231
 0.4440	77.5732
 0.4430	77.5201
 0.4420	77.4933
 0.4410	77.4610
 0.4400	77.4144
 0.4390	77.3988
 0.4380	77.3315
 0.4370	77.3041
 0.4360	77.2612
 0.4350	77.2259
 0.4340	77.1751
 0.4330	77.1358
 0.4320	77.1106
 0.4310	77.0848
 0.4300	77.0459
 0.4290	76.9820
 0.4280	76.9664
 0.4270	76.9111
 0.4260	76.8834
 0.4250	76.8534
 0.4240	76.8000
 0.4230	76.7829
 0.4220	76.7468
 0.4210	76.7228
 0.4200	76.6607
 0.4190	76.6340
 0.4180	76.6257
 0.4170	76.5777
 0.4160	76.5492
 0.4150	76.4967
 0.4140	76.4417
 0.4130	76.4305
 0.4120	76.3912
 0.4110	76.3535
 0.4100	76.3141
 0.4090	76.2752
 0.4080	76.2422
 0.4070	76.2042
 0.4060	76.1609
 0.4050	76.1300
 0.4040	76.0899
 0.4030	76.0442
 0.4020	75.9869
 0.4010	75.9759
 0.4000	75.9425
