Name: Vermiculite (Mg,Fe^2+,Al)_3(Al,Si)_4O_10(OH)_2.4H_2O
Type: Mineral
Class: Silicate
Subclass: Phyllosilicate
Particle Size: Medium
Sample No.: PS-18A
Owner: JPL
Wavelength Range: VSWIR
Origin: USA, Texas, Llano County, Llano
Collection Date: N/A
Description: Particle size was 45-125um.Collected by Clay Mineral Society Original ASTER Spectral Library name was jpl.beckman.mineral.silicate.phyllosilicate.medium.ps18a.spectrum.txt
Measurement: Hemispherical reflectance
First Column: X
Second Column: Y
X Units: Wavelength (micrometers)
Y Units:Reflectance (percent)
First X Value:  0.4000
Last X Value:  2.5000
Number of X Values: 826
Additional Information: mineral.silicate.phyllosilicate.medium.vswir.ps-18a.jpl.beckman.ancillary.txt

 0.4000	43.7400
 0.4010	44.0300
 0.4020	44.3700
 0.4030	44.7100
 0.4040	44.8800
 0.4050	44.7100
 0.4060	44.8800
 0.4070	45.2800
 0.4080	45.5100
 0.4090	45.5700
 0.4100	45.5700
 0.4110	45.6800
 0.4120	46.0300
 0.4130	46.3000
 0.4140	46.3600
 0.4150	46.4200
 0.4160	46.4200
 0.4170	46.7100
 0.4180	46.9900
 0.4190	46.9400
 0.4200	47.0500
 0.4210	47.1700
 0.4220	47.4000
 0.4230	47.5600
 0.4240	47.8500
 0.4250	47.8500
 0.4260	47.8500
 0.4270	47.9000
 0.4280	48.1900
 0.4290	48.5900
 0.4300	48.6500
 0.4310	48.5900
 0.4320	48.7100
 0.4330	48.9400
 0.4340	49.2700
 0.4350	49.3300
 0.4360	49.3300
 0.4370	49.5000
 0.4380	49.6700
 0.4390	50.0200
 0.4400	50.1300
 0.4410	50.1900
 0.4420	50.0800
 0.4430	50.3600
 0.4440	50.8100
 0.4450	50.9300
 0.4460	50.9300
 0.4470	50.9300
 0.4480	51.1000
 0.4490	51.4400
 0.4500	51.6700
 0.4510	51.6700
 0.4520	51.6200
 0.4530	51.8500
 0.4540	52.0800
 0.4550	52.4200
 0.4560	52.3100
 0.4570	52.0800
 0.4580	52.2500
 0.4590	52.4800
 0.4600	52.5900
 0.4610	52.7700
 0.4620	52.7700
 0.4630	52.8800
 0.4640	53.1700
 0.4650	53.4000
 0.4660	53.4000
 0.4670	53.2800
 0.4680	53.4500
 0.4690	53.7400
 0.4700	53.9700
 0.4710	53.9700
 0.4720	53.9100
 0.4730	53.9800
 0.4740	54.2600
 0.4750	54.4900
 0.4760	54.6000
 0.4770	54.5500
 0.4780	54.5600
 0.4790	54.8400
 0.4800	55.0200
 0.4810	55.0200
 0.4820	55.0700
 0.4830	55.0700
 0.4840	55.3600
 0.4850	55.5900
 0.4860	55.6500
 0.4870	55.6500
 0.4880	55.6500
 0.4890	55.8800
 0.4900	56.1600
 0.4910	56.2200
 0.4920	56.2200
 0.4930	56.2800
 0.4940	56.5700
 0.4950	56.8500
 0.4960	56.8500
 0.4970	56.8000
 0.4980	56.9200
 0.4990	56.9800
 0.5000	57.3100
 0.5010	57.4900
 0.5020	57.6000
 0.5030	57.6000
 0.5040	57.7700
 0.5050	58.0000
 0.5060	58.2900
 0.5070	58.2900
 0.5080	58.2300
 0.5090	58.3500
 0.5100	58.5200
 0.5110	58.8100
 0.5120	58.8100
 0.5130	58.8100
 0.5140	58.9100
 0.5150	59.1400
 0.5160	59.4900
 0.5170	59.4900
 0.5180	59.4300
 0.5190	59.4300
 0.5200	59.6600
 0.5210	60.0600
 0.5220	60.1200
 0.5230	59.9500
 0.5240	60.0000
 0.5250	60.1700
 0.5260	60.4000
 0.5270	60.5700
 0.5280	60.4000
 0.5290	60.4600
 0.5300	60.6200
 0.5310	60.9100
 0.5320	61.0300
 0.5330	60.9100
 0.5340	60.8500
 0.5350	60.8500
 0.5360	61.0800
 0.5370	61.4300
 0.5380	61.4900
 0.5390	61.4900
 0.5400	61.5400
 0.5410	61.7700
 0.5420	61.8300
 0.5430	61.7200
 0.5440	61.7200
 0.5450	61.7700
 0.5460	62.0600
 0.5470	62.2800
 0.5480	62.2800
 0.5490	62.2800
 0.5500	62.3400
 0.5510	62.5700
 0.5520	62.6800
 0.5530	62.7400
 0.5540	62.6800
 0.5550	62.6800
 0.5560	62.9700
 0.5570	63.1400
 0.5580	63.2000
 0.5590	63.0800
 0.5600	63.3700
 0.5610	63.6000
 0.5620	63.6000
 0.5630	63.5400
 0.5640	63.4900
 0.5650	63.6600
 0.5660	63.9400
 0.5670	63.9400
 0.5680	63.7700
 0.5690	63.5400
 0.5700	63.7700
 0.5710	64.0500
 0.5720	64.0500
 0.5730	63.9400
 0.5740	63.6600
 0.5750	63.7200
 0.5760	64.1100
 0.5770	64.0500
 0.5780	63.9900
 0.5790	63.8800
 0.5800	64.1100
 0.5810	64.4500
 0.5820	64.4000
 0.5830	64.3400
 0.5840	64.1700
 0.5850	64.2800
 0.5860	64.5100
 0.5870	64.8000
 0.5880	64.6300
 0.5890	64.5100
 0.5900	64.6300
 0.5910	64.8000
 0.5920	65.0300
 0.5930	64.9700
 0.5940	64.8000
 0.5950	64.7400
 0.5960	64.8500
 0.5970	65.1400
 0.5980	65.1400
 0.5990	64.9700
 0.6000	64.9700
 0.6010	65.0800
 0.6020	65.3700
 0.6030	65.2600
 0.6040	65.1400
 0.6050	65.0300
 0.6060	65.2600
 0.6070	65.5900
 0.6080	65.5300
 0.6090	65.3100
 0.6100	65.2000
 0.6110	65.2600
 0.6120	65.5900
 0.6130	65.6500
 0.6140	65.5900
 0.6150	65.4300
 0.6160	65.5300
 0.6170	65.7600
 0.6180	65.9900
 0.6190	65.8200
 0.6200	65.6500
 0.6210	65.6500
 0.6220	65.8200
 0.6230	66.1700
 0.6240	65.9900
 0.6250	65.9900
 0.6260	66.0500
 0.6270	66.1700
 0.6280	66.5100
 0.6290	66.4500
 0.6300	66.4000
 0.6310	66.2800
 0.6320	66.3400
 0.6330	66.6300
 0.6340	66.6800
 0.6350	66.5700
 0.6360	66.4500
 0.6370	66.5100
 0.6380	66.9100
 0.6390	66.8000
 0.6400	66.7400
 0.6410	66.5700
 0.6420	66.6800
 0.6430	67.0300
 0.6440	67.0300
 0.6450	67.0300
 0.6460	66.7400
 0.6470	66.9100
 0.6480	67.1300
 0.6490	67.1900
 0.6500	67.3000
 0.6510	67.0300
 0.6520	67.0800
 0.6530	67.1900
 0.6540	67.4800
 0.6550	67.4200
 0.6560	67.0800
 0.6570	67.1300
 0.6580	67.4200
 0.6590	67.6500
 0.6600	67.6500
 0.6610	67.4200
 0.6620	67.4800
 0.6630	67.6500
 0.6640	67.7600
 0.6650	67.7100
 0.6660	67.5900
 0.6670	67.5900
 0.6680	67.6500
 0.6690	67.8800
 0.6700	67.9400
 0.6710	67.7600
 0.6720	67.7100
 0.6730	67.8200
 0.6740	68.1100
 0.6750	68.1100
 0.6760	67.9900
 0.6770	67.9400
 0.6780	67.9900
 0.6790	68.2800
 0.6800	68.4000
 0.6810	68.2200
 0.6820	68.1700
 0.6830	68.2200
 0.6840	68.3400
 0.6850	68.4500
 0.6860	68.2800
 0.6870	68.2200
 0.6880	68.3400
 0.6890	68.5100
 0.6900	68.7900
 0.6910	68.7400
 0.6920	68.6300
 0.6930	68.5700
 0.6940	68.6300
 0.6950	68.7400
 0.6960	68.7400
 0.6970	68.6300
 0.6980	68.5700
 0.6990	68.6300
 0.7000	68.4000
 0.7010	68.6300
 0.7020	68.8500
 0.7030	68.7400
 0.7040	68.6300
 0.7050	68.6300
 0.7060	68.6800
 0.7070	69.0200
 0.7080	68.9600
 0.7090	68.7900
 0.7100	68.8500
 0.7110	68.9000
 0.7120	69.2500
 0.7130	69.1300
 0.7140	69.0200
 0.7150	69.0200
 0.7160	69.0200
 0.7170	69.2500
 0.7180	69.3600
 0.7190	69.1300
 0.7200	69.1300
 0.7210	69.1300
 0.7220	69.4200
 0.7230	69.4200
 0.7240	69.3600
 0.7250	69.3100
 0.7260	69.2500
 0.7270	69.4200
 0.7280	69.4800
 0.7290	69.4200
 0.7300	69.3600
 0.7310	69.3600
 0.7320	69.7600
 0.7330	69.8200
 0.7340	69.7100
 0.7350	69.5900
 0.7360	69.5300
 0.7370	69.7100
 0.7380	69.8800
 0.7390	69.8200
 0.7400	69.6500
 0.7410	69.4800
 0.7420	69.5900
 0.7430	69.7600
 0.7440	69.6500
 0.7450	69.5900
 0.7460	69.3600
 0.7470	69.4800
 0.7480	69.7600
 0.7490	69.8200
 0.7500	69.7100
 0.7510	69.4800
 0.7520	69.7100
 0.7530	69.9900
 0.7540	70.1700
 0.7550	70.0500
 0.7560	69.8200
 0.7570	69.8800
 0.7580	70.1100
 0.7590	70.1700
 0.7600	69.9400
 0.7610	69.7600
 0.7620	69.8200
 0.7630	70.1100
 0.7640	70.2800
 0.7650	69.9900
 0.7660	69.7600
 0.7670	69.9400
 0.7680	70.1100
 0.7690	70.2200
 0.7700	70.1700
 0.7710	69.9900
 0.7720	70.1100
 0.7730	70.2200
 0.7740	70.4400
 0.7750	70.3400
 0.7760	70.1700
 0.7770	70.1100
 0.7780	70.1700
 0.7790	70.4400
 0.7800	70.5600
 0.7810	70.3400
 0.7820	70.2800
 0.7830	70.2200
 0.7840	70.4000
 0.7850	70.5000
 0.7860	70.3400
 0.7870	70.2200
 0.7880	70.2200
 0.7890	70.5000
 0.7900	70.5000
 0.7910	70.5000
 0.7920	70.4400
 0.7930	70.2800
 0.7940	70.5000
 0.7950	70.6700
 0.7960	70.7300
 0.7970	70.6700
 0.7980	70.5000
 0.7990	70.9600
 0.8000	70.9600
 0.8040	70.9600
 0.8080	70.9600
 0.8120	71.0800
 0.8160	70.9600
 0.8200	71.0200
 0.8240	71.0200
 0.8280	71.0200
 0.8320	71.1900
 0.8360	71.1300
 0.8400	71.1900
 0.8440	71.1900
 0.8480	71.3100
 0.8520	71.1900
 0.8560	71.3100
 0.8600	71.2500
 0.8640	71.2500
 0.8680	71.2500
 0.8720	71.2500
 0.8760	71.1900
 0.8800	71.0800
 0.8840	71.2500
 0.8880	71.1900
 0.8920	71.2500
 0.8960	71.2500
 0.9000	71.1900
 0.9040	71.2500
 0.9080	71.0800
 0.9120	71.3100
 0.9160	71.1900
 0.9200	71.2500
 0.9240	71.1900
 0.9280	71.0800
 0.9320	70.9000
 0.9360	70.7300
 0.9400	70.7900
 0.9440	70.6200
 0.9480	70.7300
 0.9520	70.9000
 0.9560	71.0800
 0.9600	71.1300
 0.9640	71.2500
 0.9680	71.4800
 0.9720	71.2500
 0.9760	71.2500
 0.9800	71.1900
 0.9840	71.3600
 0.9880	71.3600
 0.9920	71.3600
 0.9960	71.4200
 1.0000	71.4200
 1.0040	71.5900
 1.0080	71.5400
 1.0120	71.5400
 1.0160	71.6500
 1.0200	71.6500
 1.0240	71.7100
 1.0280	71.7600
 1.0320	71.7600
 1.0360	71.8800
 1.0400	71.9900
 1.0440	71.9400
 1.0480	71.9900
 1.0520	71.9900
 1.0560	71.9400
 1.0600	72.1000
 1.0640	72.0500
 1.0680	72.1000
 1.0720	72.1600
 1.0760	72.2100
 1.0800	72.1600
 1.0840	72.2100
 1.0880	72.2700
 1.0920	72.2100
 1.0960	72.3900
 1.1000	72.4400
 1.1040	72.4400
 1.1080	72.4400
 1.1120	72.4400
 1.1160	72.5600
 1.1200	72.5000
 1.1240	72.5000
 1.1280	72.6200
 1.1320	72.5600
 1.1360	72.5000
 1.1400	72.5000
 1.1440	72.6200
 1.1480	72.5000
 1.1520	72.5600
 1.1560	72.6600
 1.1600	72.5500
 1.1640	72.6500
 1.1680	72.4700
 1.1720	72.6400
 1.1760	72.5900
 1.1800	72.6900
 1.1840	72.8500
 1.1880	72.9000
 1.1920	72.8400
 1.1960	72.7800
 1.2000	73.0100
 1.2040	72.9500
 1.2080	72.8900
 1.2120	72.8900
 1.2160	73.0600
 1.2200	72.9500
 1.2240	73.0600
 1.2280	73.2300
 1.2320	73.2800
 1.2360	73.1100
 1.2400	73.1700
 1.2440	73.2300
 1.2480	73.1700
 1.2520	73.1700
 1.2560	73.0500
 1.2600	73.0400
 1.2640	72.8600
 1.2680	72.7500
 1.2720	72.6900
 1.2760	72.6200
 1.2800	72.5000
 1.2840	72.8900
 1.2880	73.0600
 1.2920	73.3400
 1.2960	73.4000
 1.3000	73.4400
 1.3040	73.5500
 1.3080	73.4200
 1.3120	73.4800
 1.3160	73.4200
 1.3200	73.6400
 1.3240	73.4000
 1.3280	73.4500
 1.3320	73.3400
 1.3360	73.3400
 1.3400	73.1000
 1.3440	72.4600
 1.3480	71.7200
 1.3520	71.0900
 1.3560	70.7500
 1.3600	70.8100
 1.3640	70.7500
 1.3680	69.3200
 1.3720	65.4600
 1.3760	59.9400
 1.3800	56.3500
 1.3840	55.1500
 1.3880	55.7700
 1.3920	58.2200
 1.3960	60.8500
 1.4000	63.0700
 1.4040	64.8900
 1.4080	66.2100
 1.4120	66.7800
 1.4160	66.8900
 1.4200	67.0200
 1.4240	67.3600
 1.4280	67.4300
 1.4320	67.5500
 1.4360	67.7800
 1.4400	67.9000
 1.4440	68.0700
 1.4480	68.2000
 1.4520	68.3100
 1.4560	68.5400
 1.4600	68.6600
 1.4640	68.8200
 1.4680	69.0500
 1.4720	69.0500
 1.4760	69.3400
 1.4800	69.5700
 1.4840	69.8000
 1.4880	69.8000
 1.4920	69.9100
 1.4960	70.1900
 1.5000	70.3000
 1.5040	70.5300
 1.5080	70.7100
 1.5120	70.7100
 1.5160	70.9900
 1.5200	71.0500
 1.5240	71.2200
 1.5280	71.2800
 1.5320	71.3900
 1.5360	71.3300
 1.5400	71.4400
 1.5440	71.6100
 1.5480	71.7300
 1.5520	71.9000
 1.5560	71.9000
 1.5600	71.9600
 1.5640	71.9600
 1.5680	71.9600
 1.5720	72.1300
 1.5760	72.0700
 1.5800	72.1900
 1.5840	72.1300
 1.5880	72.2500
 1.5920	72.1900
 1.5960	72.3600
 1.6000	72.1300
 1.6040	72.1800
 1.6080	72.2300
 1.6120	72.1100
 1.6160	72.1700
 1.6200	72.2200
 1.6240	72.2100
 1.6280	72.1400
 1.6320	72.1400
 1.6360	72.2000
 1.6400	72.0700
 1.6440	71.8900
 1.6480	72.0600
 1.6520	72.0000
 1.6560	71.9900
 1.6600	71.9300
 1.6640	71.8700
 1.6680	71.9200
 1.6720	71.8000
 1.6760	71.7900
 1.6800	71.5600
 1.6840	71.6100
 1.6880	71.4300
 1.6920	71.4300
 1.6960	71.3700
 1.7000	71.4700
 1.7040	71.3000
 1.7080	71.3600
 1.7120	71.2500
 1.7160	71.2500
 1.7200	71.2500
 1.7240	71.1300
 1.7280	71.1300
 1.7320	70.9600
 1.7360	70.9600
 1.7400	70.9000
 1.7440	70.8400
 1.7480	70.7900
 1.7520	70.7400
 1.7560	70.7900
 1.7600	70.6800
 1.7640	70.7400
 1.7680	70.5700
 1.7720	70.6200
 1.7760	70.5100
 1.7800	70.5100
 1.7840	70.5700
 1.7880	70.3900
 1.7920	70.3900
 1.7960	70.2800
 1.8000	70.3400
 1.8040	70.0900
 1.8080	70.1800
 1.8120	70.0400
 1.8160	70.0200
 1.8200	70.0500
 1.8240	69.8000
 1.8280	69.7800
 1.8320	69.5800
 1.8360	69.4500
 1.8400	69.3100
 1.8440	69.1200
 1.8480	68.9400
 1.8520	68.6900
 1.8560	68.4600
 1.8600	67.9400
 1.8640	67.3100
 1.8680	66.6300
 1.8720	65.7200
 1.8760	64.7500
 1.8800	63.6700
 1.8840	62.4200
 1.8880	60.7700
 1.8920	59.4700
 1.8960	57.9900
 1.9000	56.8000
 1.9040	55.6100
 1.9080	54.7500
 1.9120	54.2400
 1.9160	53.7800
 1.9200	53.6600
 1.9240	53.7100
 1.9280	53.7100
 1.9320	53.7700
 1.9360	54.0500
 1.9400	54.3200
 1.9440	54.2600
 1.9480	54.5300
 1.9520	54.6500
 1.9560	54.8000
 1.9600	55.0100
 1.9640	55.1700
 1.9680	55.3200
 1.9720	55.4800
 1.9760	55.8600
 1.9800	56.1300
 1.9840	56.4600
 1.9880	56.7200
 1.9920	57.1000
 1.9960	57.4200
 2.0000	57.6300
 2.0040	58.2100
 2.0080	58.5600
 2.0120	58.6900
 2.0160	59.0600
 2.0200	59.4200
 2.0240	59.6600
 2.0280	59.8900
 2.0320	60.2500
 2.0360	60.6700
 2.0400	60.8700
 2.0440	61.1000
 2.0480	61.2800
 2.0520	61.4600
 2.0560	61.6000
 2.0600	61.9100
 2.0640	61.7700
 2.0680	61.8100
 2.0720	61.7200
 2.0760	61.6400
 2.0800	61.4500
 2.0840	61.3100
 2.0880	61.2300
 2.0920	61.1500
 2.0960	61.1800
 2.1000	61.1000
 2.1040	61.1800
 2.1080	61.3300
 2.1120	61.2500
 2.1160	61.4400
 2.1200	61.4800
 2.1240	61.5300
 2.1280	61.6400
 2.1320	61.9600
 2.1360	62.2800
 2.1400	62.5600
 2.1440	62.5300
 2.1480	62.8400
 2.1520	62.9800
 2.1560	63.1500
 2.1600	63.3100
 2.1640	63.3900
 2.1680	63.3000
 2.1720	63.2700
 2.1760	63.2900
 2.1800	63.2600
 2.1840	63.0900
 2.1880	62.8000
 2.1920	62.6900
 2.1960	62.4600
 2.2000	62.0600
 2.2040	61.6700
 2.2080	61.1100
 2.2120	60.5600
 2.2160	59.8000
 2.2200	59.0900
 2.2240	58.3100
 2.2280	57.4100
 2.2320	56.5600
 2.2360	55.7400
 2.2400	54.9400
 2.2440	53.9800
 2.2480	53.3100
 2.2520	52.5600
 2.2560	51.8800
 2.2600	50.9600
 2.2640	50.3300
 2.2680	49.6700
 2.2720	48.9300
 2.2760	48.1800
 2.2800	47.4300
 2.2840	46.5700
 2.2880	45.6000
 2.2920	44.6800
 2.2960	43.8500
 2.3000	42.7600
 2.3040	42.1300
 2.3080	41.5600
 2.3120	41.3700
 2.3160	41.4100
 2.3200	41.4500
 2.3240	42.0200
 2.3280	42.4900
 2.3320	43.4500
 2.3360	44.4200
 2.3400	45.5500
 2.3440	46.5300
 2.3480	47.2900
 2.3520	47.9300
 2.3560	48.3600
 2.3600	48.3300
 2.3640	48.1500
 2.3680	48.0700
 2.3720	47.6200
 2.3760	47.2800
 2.3800	46.7300
 2.3840	46.4400
 2.3880	45.9300
 2.3920	45.6900
 2.3960	45.1400
 2.4000	44.9700
 2.4040	44.5300
 2.4080	44.1400
 2.4120	43.8000
 2.4160	43.4100
 2.4200	43.0200
 2.4240	42.5200
 2.4280	42.2400
 2.4320	41.7400
 2.4360	41.4600
 2.4400	41.0700
 2.4440	40.7300
 2.4480	40.1800
 2.4520	39.7400
 2.4560	39.5100
 2.4600	38.9000
 2.4640	38.4600
 2.4680	37.9500
 2.4720	37.4600
 2.4760	37.0200
 2.4800	36.6800
 2.4840	36.1700
 2.4880	35.8400
 2.4920	35.4600
 2.4960	35.4000
 2.5000	42.7300
