Name: Tremolite Ca_2(Mg,Fe^2+)_5Si_8O_22(OH)_2
Type: Mineral
Class: Silicate
Subclass: Inosilicate
Particle Size: Coarse
Sample No.: IN-5A
Owner: JPL
Wavelength Range: VSWIR
Origin: 
Collection Date: N/A
Description: Particle size was 125-500um.Collected by JPL Original ASTER Spectral Library name was jpl.beckman.mineral.silicate.inosilicate.coarse.in05a.spectrum.txt
Measurement: Hemispherical reflectance
First Column: X
Second Column: Y
X Units: Wavelength (micrometers)
Y Units:Reflectance (percent)
First X Value:  0.4000
Last X Value:  2.5000
Number of X Values: 826
Additional Information: mineral.silicate.inosilicate.coarse.vswir.in-5a.jpl.beckman.ancillary.txt

 0.4000	61.4500
 0.4010	61.8500
 0.4020	62.0300
 0.4030	62.2100
 0.4040	62.3500
 0.4050	62.3900
 0.4060	62.5100
 0.4070	62.7000
 0.4080	62.7200
 0.4090	62.9600
 0.4100	63.0600
 0.4110	63.1900
 0.4120	63.2500
 0.4130	63.5100
 0.4140	63.5700
 0.4150	63.6500
 0.4160	63.8300
 0.4170	64.0300
 0.4180	64.1700
 0.4190	64.2300
 0.4200	64.2900
 0.4210	64.4100
 0.4220	64.4900
 0.4230	64.5300
 0.4240	64.6800
 0.4250	64.7400
 0.4260	64.7800
 0.4270	64.8800
 0.4280	65.0800
 0.4290	65.2600
 0.4300	65.3700
 0.4310	65.4500
 0.4320	65.5700
 0.4330	65.6600
 0.4340	65.7800
 0.4350	65.9600
 0.4360	66.0200
 0.4370	66.0800
 0.4380	66.0800
 0.4390	66.1900
 0.4400	66.2200
 0.4410	66.3700
 0.4420	66.5700
 0.4430	66.7400
 0.4440	66.7500
 0.4450	66.8300
 0.4460	66.9400
 0.4470	67.0100
 0.4480	67.1200
 0.4490	67.2300
 0.4500	67.3300
 0.4510	67.4300
 0.4520	67.3800
 0.4530	67.4600
 0.4540	67.5400
 0.4550	67.6000
 0.4560	67.7400
 0.4570	67.8100
 0.4580	67.8600
 0.4590	67.9400
 0.4600	67.9600
 0.4610	68.1800
 0.4620	68.2600
 0.4630	68.3000
 0.4640	68.3200
 0.4650	68.3800
 0.4660	68.5500
 0.4670	68.5200
 0.4680	68.6300
 0.4690	68.6100
 0.4700	68.7300
 0.4710	68.7100
 0.4720	68.7000
 0.4730	68.7300
 0.4740	68.9500
 0.4750	68.9900
 0.4760	68.9900
 0.4770	69.1700
 0.4780	69.2900
 0.4790	69.4700
 0.4800	69.5600
 0.4810	69.6300
 0.4820	69.5700
 0.4830	69.5300
 0.4840	69.6000
 0.4850	69.5700
 0.4860	69.5900
 0.4870	69.6600
 0.4880	69.7900
 0.4890	69.8500
 0.4900	69.8900
 0.4910	70.0100
 0.4920	70.1300
 0.4930	70.2900
 0.4940	70.2900
 0.4950	70.3200
 0.4960	70.4000
 0.4970	70.4500
 0.4980	70.5200
 0.4990	70.6100
 0.5000	70.5800
 0.5010	70.5300
 0.5020	70.4500
 0.5030	70.4800
 0.5040	70.6900
 0.5050	70.7600
 0.5060	70.8800
 0.5070	71.0400
 0.5080	71.1000
 0.5090	71.2900
 0.5100	71.3300
 0.5110	71.3300
 0.5120	71.4200
 0.5130	71.3900
 0.5140	71.3800
 0.5150	71.3600
 0.5160	71.4700
 0.5170	71.4800
 0.5180	71.6800
 0.5190	71.7000
 0.5200	71.7700
 0.5210	71.8400
 0.5220	71.9000
 0.5230	72.0500
 0.5240	72.1300
 0.5250	72.1100
 0.5260	72.1200
 0.5270	72.2400
 0.5280	72.1500
 0.5290	72.3400
 0.5300	72.2700
 0.5310	72.1800
 0.5320	72.3000
 0.5330	72.2400
 0.5340	72.2600
 0.5350	72.2100
 0.5360	72.2300
 0.5370	72.3500
 0.5380	72.4100
 0.5390	72.4700
 0.5400	72.5800
 0.5410	72.5600
 0.5420	72.6400
 0.5430	72.6200
 0.5440	72.5900
 0.5450	72.5900
 0.5460	72.6300
 0.5470	72.6100
 0.5480	72.7500
 0.5490	72.8000
 0.5500	72.9000
 0.5510	72.9200
 0.5520	73.0300
 0.5530	73.1400
 0.5540	73.2100
 0.5550	73.2100
 0.5560	73.2400
 0.5570	73.2600
 0.5580	73.3300
 0.5590	73.3300
 0.5600	73.3300
 0.5610	73.6700
 0.5620	73.7700
 0.5630	73.9800
 0.5640	73.8200
 0.5650	73.7700
 0.5660	73.8100
 0.5670	73.7900
 0.5680	73.8000
 0.5690	73.6900
 0.5700	73.7200
 0.5710	73.6900
 0.5720	73.6000
 0.5730	73.6500
 0.5740	73.6300
 0.5750	73.7200
 0.5760	73.7400
 0.5770	73.7900
 0.5780	73.8300
 0.5790	73.8100
 0.5800	73.6900
 0.5810	73.7300
 0.5820	73.8500
 0.5830	73.7000
 0.5840	73.7300
 0.5850	73.6800
 0.5860	73.7400
 0.5870	73.8600
 0.5880	73.7500
 0.5890	73.7600
 0.5900	73.8700
 0.5910	73.9200
 0.5920	73.9900
 0.5930	74.1600
 0.5940	74.2200
 0.5950	74.1000
 0.5960	74.2000
 0.5970	74.2200
 0.5980	74.2300
 0.5990	74.1100
 0.6000	74.2300
 0.6010	74.2500
 0.6020	74.3300
 0.6030	74.3200
 0.6040	74.5500
 0.6050	74.5400
 0.6060	74.6000
 0.6070	74.5700
 0.6080	74.4600
 0.6090	74.5500
 0.6100	74.6200
 0.6110	74.6500
 0.6120	74.6100
 0.6130	74.6000
 0.6140	74.6400
 0.6150	74.6000
 0.6160	74.6100
 0.6170	74.5800
 0.6180	74.5100
 0.6190	74.6400
 0.6200	74.6600
 0.6210	74.8200
 0.6220	74.8900
 0.6230	74.8900
 0.6240	74.8300
 0.6250	74.7700
 0.6260	74.7700
 0.6270	74.8000
 0.6280	74.6600
 0.6290	74.5800
 0.6300	74.6700
 0.6310	74.7200
 0.6320	74.8300
 0.6330	75.0300
 0.6340	74.9800
 0.6350	74.9800
 0.6360	75.0900
 0.6370	75.0900
 0.6380	75.0100
 0.6390	74.9800
 0.6400	75.0500
 0.6410	74.9600
 0.6420	74.9600
 0.6430	74.9600
 0.6440	74.9700
 0.6450	74.9400
 0.6460	74.9600
 0.6470	75.0200
 0.6480	74.9700
 0.6490	74.9100
 0.6500	75.0500
 0.6510	75.1800
 0.6520	75.1700
 0.6530	75.2500
 0.6540	75.2400
 0.6550	75.2800
 0.6560	75.2300
 0.6570	75.2400
 0.6580	75.2100
 0.6590	75.0200
 0.6600	75.1200
 0.6610	75.2000
 0.6620	75.1900
 0.6630	75.1100
 0.6640	75.1300
 0.6650	75.2700
 0.6660	75.3500
 0.6670	75.3800
 0.6680	75.4100
 0.6690	75.4700
 0.6700	75.4200
 0.6710	75.4000
 0.6720	75.4200
 0.6730	75.4300
 0.6740	75.5200
 0.6750	75.3600
 0.6760	75.3800
 0.6770	75.4600
 0.6780	75.3600
 0.6790	75.3800
 0.6800	75.5800
 0.6810	75.4800
 0.6820	75.3700
 0.6830	75.4700
 0.6840	75.5400
 0.6850	75.5700
 0.6860	75.7200
 0.6870	75.6300
 0.6880	75.6900
 0.6890	75.6600
 0.6900	75.7000
 0.6910	75.6100
 0.6920	75.4700
 0.6930	75.6000
 0.6940	75.6400
 0.6950	75.6300
 0.6960	75.6400
 0.6970	75.6700
 0.6980	75.6000
 0.6990	75.6700
 0.7000	75.6800
 0.7010	75.6000
 0.7020	75.6500
 0.7030	75.7500
 0.7040	75.7800
 0.7050	75.7200
 0.7060	75.6600
 0.7070	75.7100
 0.7080	75.7100
 0.7090	75.8100
 0.7100	75.7100
 0.7110	75.6300
 0.7120	75.7200
 0.7130	75.7500
 0.7140	75.7900
 0.7150	75.7600
 0.7160	75.7500
 0.7170	75.7600
 0.7180	75.8200
 0.7190	75.9000
 0.7200	75.8900
 0.7210	75.6900
 0.7220	75.7800
 0.7230	75.7000
 0.7240	75.5800
 0.7250	75.5300
 0.7260	75.5500
 0.7270	75.3200
 0.7280	75.3600
 0.7290	75.6100
 0.7300	75.8600
 0.7310	75.9700
 0.7320	75.9900
 0.7330	75.9500
 0.7340	76.0400
 0.7350	75.9300
 0.7360	75.9000
 0.7370	75.8700
 0.7380	75.7900
 0.7390	75.8200
 0.7400	75.8400
 0.7410	75.8000
 0.7420	75.9000
 0.7430	75.9000
 0.7440	75.8600
 0.7450	75.8500
 0.7460	75.7600
 0.7470	75.8800
 0.7480	75.8600
 0.7490	75.9300
 0.7500	75.9300
 0.7510	75.9200
 0.7520	75.7000
 0.7530	75.7000
 0.7540	75.7400
 0.7550	75.7400
 0.7560	75.7000
 0.7570	75.7600
 0.7580	75.7900
 0.7590	75.8400
 0.7600	75.9500
 0.7610	75.9800
 0.7620	75.8400
 0.7630	75.8800
 0.7640	75.8200
 0.7650	75.8700
 0.7660	75.8100
 0.7670	75.8200
 0.7680	75.8000
 0.7690	75.6500
 0.7700	75.6700
 0.7710	75.7400
 0.7720	75.7400
 0.7730	75.9000
 0.7740	75.8700
 0.7750	75.9200
 0.7760	75.9200
 0.7770	75.7900
 0.7780	75.8200
 0.7790	75.8100
 0.7800	75.7100
 0.7810	75.6400
 0.7820	75.5800
 0.7830	75.6500
 0.7840	75.7600
 0.7850	75.7900
 0.7860	75.7500
 0.7870	75.8300
 0.7880	75.8200
 0.7890	75.8100
 0.7900	75.8600
 0.7910	75.8100
 0.7920	75.7800
 0.7930	75.7200
 0.7940	75.7000
 0.7950	75.7300
 0.7960	75.6900
 0.7970	75.7900
 0.7980	75.6600
 0.7990	75.6200
 0.8000	75.6900
 0.8040	75.5400
 0.8080	75.4500
 0.8120	75.4700
 0.8160	75.3700
 0.8200	75.3600
 0.8240	75.2800
 0.8280	75.1900
 0.8320	75.1000
 0.8360	75.0900
 0.8400	74.9700
 0.8440	74.9300
 0.8480	74.8000
 0.8520	74.6400
 0.8560	74.6600
 0.8600	74.5000
 0.8640	74.4300
 0.8680	74.3000
 0.8720	74.1800
 0.8760	74.0600
 0.8800	73.8600
 0.8840	73.7000
 0.8880	73.6300
 0.8920	73.3600
 0.8960	73.1800
 0.9000	73.0100
 0.9040	72.8000
 0.9080	72.6300
 0.9120	72.3700
 0.9160	72.2200
 0.9200	71.8500
 0.9240	71.6200
 0.9280	71.3300
 0.9320	70.9600
 0.9360	70.4900
 0.9400	69.5700
 0.9440	68.5100
 0.9480	68.0100
 0.9520	68.3700
 0.9560	68.7000
 0.9600	68.5700
 0.9640	68.2000
 0.9680	67.7900
 0.9720	67.3500
 0.9760	66.9200
 0.9800	66.3800
 0.9840	66.0900
 0.9880	65.6200
 0.9920	65.3100
 0.9960	64.9800
 1.0000	64.7500
 1.0040	64.2800
 1.0080	63.9000
 1.0120	63.7300
 1.0160	63.4100
 1.0200	63.1900
 1.0240	63.0500
 1.0280	62.9100
 1.0320	62.8900
 1.0360	62.8700
 1.0400	63.0300
 1.0440	63.0700
 1.0480	63.2700
 1.0520	63.4900
 1.0560	63.8400
 1.0600	64.2300
 1.0640	64.7700
 1.0680	65.2800
 1.0720	65.9900
 1.0760	66.4700
 1.0800	67.0900
 1.0840	67.6900
 1.0880	68.3500
 1.0920	68.8300
 1.0960	69.4700
 1.1000	70.0100
 1.1040	70.5800
 1.1080	70.9700
 1.1120	71.5200
 1.1160	71.8300
 1.1200	72.3300
 1.1240	72.6000
 1.1280	73.0700
 1.1320	73.2700
 1.1360	73.5800
 1.1400	73.7900
 1.1440	74.0300
 1.1480	74.2300
 1.1520	74.4300
 1.1560	74.6300
 1.1600	74.7600
 1.1640	75.1000
 1.1680	75.0200
 1.1720	75.2000
 1.1760	75.3000
 1.1800	75.5200
 1.1840	75.6500
 1.1880	75.8300
 1.1920	75.8600
 1.1960	75.9600
 1.2000	76.0700
 1.2040	76.1700
 1.2080	76.2000
 1.2120	76.2200
 1.2160	76.3800
 1.2200	76.3600
 1.2240	76.6100
 1.2280	76.5300
 1.2320	76.7800
 1.2360	76.7400
 1.2400	76.9500
 1.2440	76.8900
 1.2480	76.9200
 1.2520	76.9700
 1.2560	77.0000
 1.2600	76.9300
 1.2640	76.6700
 1.2680	76.3300
 1.2720	76.0600
 1.2760	76.4000
 1.2800	76.9000
 1.2840	77.2200
 1.2880	77.0400
 1.2920	76.6600
 1.2960	76.4600
 1.3000	77.0500
 1.3040	77.3200
 1.3080	77.3800
 1.3120	77.1700
 1.3160	77.1700
 1.3200	77.1300
 1.3240	77.1600
 1.3280	77.1600
 1.3320	77.3600
 1.3360	77.3000
 1.3400	77.4800
 1.3440	77.4600
 1.3480	77.4400
 1.3520	77.3900
 1.3560	77.2800
 1.3600	77.0500
 1.3640	76.5500
 1.3680	75.6900
 1.3720	74.6200
 1.3760	74.2800
 1.3800	71.6000
 1.3840	61.9100
 1.3880	52.5100
 1.3920	55.3600
 1.3960	66.1900
 1.4000	73.9700
 1.4040	76.4200
 1.4080	76.9000
 1.4120	77.0800
 1.4160	77.0900
 1.4200	77.2700
 1.4240	77.2700
 1.4280	77.4600
 1.4320	77.3700
 1.4360	77.5800
 1.4400	77.5000
 1.4440	77.6700
 1.4480	77.6000
 1.4520	77.6600
 1.4560	77.6000
 1.4600	77.5300
 1.4640	77.4000
 1.4680	77.2700
 1.4720	77.4600
 1.4760	77.6200
 1.4800	77.7800
 1.4840	77.9400
 1.4880	77.8800
 1.4920	77.9200
 1.4960	77.9100
 1.5000	77.9000
 1.5040	77.9500
 1.5080	78.0700
 1.5120	78.1100
 1.5160	78.1700
 1.5200	78.0700
 1.5240	77.9600
 1.5280	77.9000
 1.5320	77.7700
 1.5360	77.8300
 1.5400	77.9300
 1.5440	78.0900
 1.5480	78.1600
 1.5520	78.2200
 1.5560	78.3200
 1.5600	78.2300
 1.5640	78.3200
 1.5680	78.2200
 1.5720	78.3300
 1.5760	78.2700
 1.5800	78.2900
 1.5840	78.3200
 1.5880	78.3700
 1.5920	78.3600
 1.5960	78.2900
 1.6000	78.2900
 1.6040	78.3600
 1.6080	78.3000
 1.6120	78.2300
 1.6160	78.3300
 1.6200	78.2900
 1.6240	78.2800
 1.6280	78.3000
 1.6320	78.3500
 1.6360	78.3100
 1.6400	78.3700
 1.6440	78.3400
 1.6480	78.2900
 1.6520	78.3600
 1.6560	78.4000
 1.6600	78.3900
 1.6640	78.3900
 1.6680	78.3900
 1.6720	78.4300
 1.6760	78.3800
 1.6800	78.4100
 1.6840	78.3800
 1.6880	78.3700
 1.6920	78.4100
 1.6960	78.3100
 1.7000	78.3700
 1.7040	78.3000
 1.7080	78.3200
 1.7120	78.2900
 1.7160	78.3100
 1.7200	78.3000
 1.7240	78.2000
 1.7280	78.1300
 1.7320	78.1600
 1.7360	78.2000
 1.7400	78.0600
 1.7440	78.0000
 1.7480	78.0200
 1.7520	77.9400
 1.7560	77.9600
 1.7600	78.0400
 1.7640	77.9700
 1.7680	77.9500
 1.7720	77.9400
 1.7760	77.9200
 1.7800	78.0100
 1.7840	77.8900
 1.7880	77.9500
 1.7920	77.9100
 1.7960	77.8300
 1.8000	77.8300
 1.8040	77.6900
 1.8080	77.6200
 1.8120	77.4600
 1.8160	77.3500
 1.8200	77.1300
 1.8240	77.0800
 1.8280	76.8600
 1.8320	76.7600
 1.8360	76.5800
 1.8400	76.3800
 1.8440	76.2500
 1.8480	76.0900
 1.8520	76.0000
 1.8560	75.8600
 1.8600	75.8300
 1.8640	75.8900
 1.8680	75.9000
 1.8720	75.8300
 1.8760	75.7100
 1.8800	75.5900
 1.8840	75.4800
 1.8880	75.3800
 1.8920	75.1100
 1.8960	74.8200
 1.9000	74.5900
 1.9040	74.5100
 1.9080	74.4400
 1.9120	74.3300
 1.9160	74.3600
 1.9200	74.3800
 1.9240	74.4400
 1.9280	74.4500
 1.9320	74.4500
 1.9360	74.4800
 1.9400	74.4400
 1.9440	74.4200
 1.9480	74.3300
 1.9520	74.2600
 1.9560	74.0600
 1.9600	73.8900
 1.9640	73.7200
 1.9680	73.4100
 1.9720	73.1100
 1.9760	72.7400
 1.9800	72.4100
 1.9840	72.1700
 1.9880	71.8500
 1.9920	71.7000
 1.9960	71.5500
 2.0000	71.4800
 2.0040	71.4200
 2.0080	71.5300
 2.0120	71.7000
 2.0160	72.0500
 2.0200	72.2500
 2.0240	72.2900
 2.0280	72.2000
 2.0320	71.9600
 2.0360	71.7400
 2.0400	71.2800
 2.0440	70.8100
 2.0480	70.3600
 2.0520	70.0200
 2.0560	69.6400
 2.0600	69.4100
 2.0640	69.2000
 2.0680	68.9500
 2.0720	68.8200
 2.0760	68.5100
 2.0800	68.3000
 2.0840	67.9400
 2.0880	67.3900
 2.0920	66.6600
 2.0960	65.7900
 2.1000	64.7100
 2.1040	63.7400
 2.1080	63.0600
 2.1120	62.6100
 2.1160	62.5600
 2.1200	62.5800
 2.1240	62.8500
 2.1280	63.4800
 2.1320	64.0900
 2.1360	64.6700
 2.1400	65.1500
 2.1440	65.6900
 2.1480	66.1900
 2.1520	66.5500
 2.1560	66.8900
 2.1600	67.1900
 2.1640	67.4000
 2.1680	67.5500
 2.1720	67.5200
 2.1760	67.7200
 2.1800	67.7900
 2.1840	67.8700
 2.1880	67.9200
 2.1920	68.0600
 2.1960	68.1800
 2.2000	68.2300
 2.2040	68.1900
 2.2080	68.0700
 2.2120	68.0700
 2.2160	68.0000
 2.2200	67.7800
 2.2240	67.4600
 2.2280	67.1700
 2.2320	66.6400
 2.2360	65.8300
 2.2400	64.8400
 2.2440	63.4800
 2.2480	61.7900
 2.2520	59.7200
 2.2560	57.2100
 2.2600	54.2600
 2.2640	51.2200
 2.2680	47.9900
 2.2720	44.9400
 2.2760	41.8300
 2.2800	38.9300
 2.2840	36.1100
 2.2880	33.5000
 2.2920	31.3900
 2.2960	29.9800
 2.3000	29.5900
 2.3040	30.4800
 2.3080	31.9000
 2.3120	33.9700
 2.3160	36.8300
 2.3200	40.2600
 2.3240	43.7300
 2.3280	47.1400
 2.3320	49.9100
 2.3360	52.0000
 2.3400	53.0000
 2.3440	53.0800
 2.3480	52.2500
 2.3520	50.8300
 2.3560	48.6500
 2.3600	46.3100
 2.3640	43.6600
 2.3680	41.2400
 2.3720	39.1700
 2.3760	37.6900
 2.3800	37.0300
 2.3840	37.0900
 2.3880	37.8700
 2.3920	39.1900
 2.3960	40.9100
 2.4000	42.5700
 2.4040	44.2800
 2.4080	45.5600
 2.4120	46.7000
 2.4160	47.5200
 2.4200	48.0600
 2.4240	48.0500
 2.4280	47.8900
 2.4320	47.3900
 2.4360	46.7500
 2.4400	46.3900
 2.4440	45.9100
 2.4480	45.5500
 2.4520	45.1400
 2.4560	44.8600
 2.4600	44.6100
 2.4640	44.4100
 2.4680	44.4300
 2.4720	44.4400
 2.4760	44.7300
 2.4800	45.0300
 2.4840	45.4400
 2.4880	45.9000
 2.4920	46.2900
 2.4960	46.6900
 2.5000	47.1300
