Name: Calcite CaCO_3
Type: Mineral
Class: Carbonate
Subclass: None
Particle Size: Medium
Sample No.: C-3A
Owner: JPL
Wavelength Range: VSWIR
Origin: Italy
Collection Date: N/A
Description: Travertine. Particle size was 45-125um.Collected by Ward's Original ASTER Spectral Library name was jpl.beckman.mineral.carbonate.none.medium.c03a.spectrum.txt
Measurement: Hemispherical reflectance
First Column: X
Second Column: Y
X Units: Wavelength (micrometers)
Y Units:Reflectance (percent)
First X Value:  0.4000
Last X Value:  2.5000
Number of X Values: 826
Additional Information: mineral.carbonate.none.medium.vswir.c-3a.jpl.beckman.ancillary.txt

 0.4000	56.0500
 0.4010	56.1000
 0.4020	56.2200
 0.4030	56.5100
 0.4040	56.8500
 0.4050	57.2000
 0.4060	57.4300
 0.4070	57.3100
 0.4080	57.4800
 0.4090	57.6500
 0.4100	58.0000
 0.4110	58.2800
 0.4120	58.2300
 0.4130	58.4000
 0.4140	58.6300
 0.4150	58.8000
 0.4160	59.0200
 0.4170	59.1400
 0.4180	59.1900
 0.4190	59.3100
 0.4200	59.6000
 0.4210	59.8900
 0.4220	59.8900
 0.4230	60.0000
 0.4240	60.1700
 0.4250	60.3900
 0.4260	60.6200
 0.4270	60.6800
 0.4280	60.7400
 0.4290	60.8600
 0.4300	61.0900
 0.4310	61.3200
 0.4320	61.4300
 0.4330	61.3700
 0.4340	61.4300
 0.4350	61.7700
 0.4360	62.1100
 0.4370	62.1100
 0.4380	62.2300
 0.4390	62.2300
 0.4400	62.4600
 0.4410	62.8000
 0.4420	62.9200
 0.4430	63.0300
 0.4440	62.9200
 0.4450	63.1400
 0.4460	63.5400
 0.4470	63.6000
 0.4480	63.7200
 0.4490	63.5400
 0.4500	63.6600
 0.4510	64.0600
 0.4520	64.0600
 0.4530	64.1200
 0.4540	64.0600
 0.4550	64.2300
 0.4560	64.5200
 0.4570	64.7500
 0.4580	64.8800
 0.4590	64.8200
 0.4600	64.8800
 0.4610	64.9400
 0.4620	65.2700
 0.4630	65.4000
 0.4640	65.2800
 0.4650	65.2200
 0.4660	65.4500
 0.4670	65.6800
 0.4680	65.8000
 0.4690	65.9100
 0.4700	65.9700
 0.4710	65.8600
 0.4720	66.0300
 0.4730	66.2700
 0.4740	66.3900
 0.4750	66.3900
 0.4760	66.2700
 0.4770	66.5500
 0.4780	66.7900
 0.4790	67.0200
 0.4800	66.9600
 0.4810	66.9000
 0.4820	67.0200
 0.4830	67.1900
 0.4840	67.5900
 0.4850	67.5400
 0.4860	67.4800
 0.4870	67.5900
 0.4880	67.7800
 0.4890	68.0700
 0.4900	68.0700
 0.4910	67.8900
 0.4920	67.9500
 0.4930	68.1200
 0.4940	68.4100
 0.4950	68.6400
 0.4960	68.5800
 0.4970	68.4700
 0.4980	68.5900
 0.4990	68.7600
 0.5000	69.1600
 0.5010	69.1600
 0.5020	68.9900
 0.5030	69.1000
 0.5040	69.3300
 0.5050	69.5100
 0.5060	69.5600
 0.5070	69.5600
 0.5080	69.4500
 0.5090	69.6800
 0.5100	69.7900
 0.5110	70.0800
 0.5120	70.0200
 0.5130	70.0800
 0.5140	70.2000
 0.5150	70.3100
 0.5160	70.5900
 0.5170	70.6500
 0.5180	70.4200
 0.5190	70.5300
 0.5200	70.7100
 0.5210	71.0500
 0.5220	70.8800
 0.5230	70.8800
 0.5240	71.0500
 0.5250	71.1700
 0.5260	71.5100
 0.5270	71.5700
 0.5280	71.4500
 0.5290	71.4500
 0.5300	71.5700
 0.5310	71.8600
 0.5320	72.0800
 0.5330	71.8600
 0.5340	71.7400
 0.5350	71.9200
 0.5360	72.1400
 0.5370	72.3100
 0.5380	72.2500
 0.5390	72.1900
 0.5400	72.3100
 0.5410	72.4800
 0.5420	72.5400
 0.5430	72.4800
 0.5440	72.4200
 0.5450	72.5400
 0.5460	72.8300
 0.5470	72.9400
 0.5480	72.8800
 0.5490	72.9400
 0.5500	72.8800
 0.5510	73.1700
 0.5520	73.4000
 0.5530	73.4600
 0.5540	73.5200
 0.5550	73.4600
 0.5560	73.6900
 0.5570	73.7400
 0.5580	73.8000
 0.5590	73.8000
 0.5600	73.7400
 0.5610	74.1400
 0.5620	74.0300
 0.5630	74.2000
 0.5640	74.3700
 0.5650	74.4900
 0.5660	74.3700
 0.5670	74.2600
 0.5680	74.3700
 0.5690	74.5500
 0.5700	74.6600
 0.5710	74.5400
 0.5720	74.4300
 0.5730	74.5500
 0.5740	74.6600
 0.5750	74.8300
 0.5760	74.7200
 0.5770	74.6000
 0.5780	74.7800
 0.5790	74.8900
 0.5800	75.2400
 0.5810	74.9500
 0.5820	74.7200
 0.5830	74.9500
 0.5840	75.0100
 0.5850	75.2900
 0.5860	75.1800
 0.5870	75.0600
 0.5880	75.2400
 0.5890	75.2900
 0.5900	75.5100
 0.5910	75.5700
 0.5920	75.4600
 0.5930	75.5700
 0.5940	75.6900
 0.5950	75.9200
 0.5960	75.8600
 0.5970	75.7400
 0.5980	75.8000
 0.5990	75.9200
 0.6000	76.0900
 0.6010	76.0900
 0.6020	76.1500
 0.6030	76.0900
 0.6040	76.1500
 0.6050	76.3800
 0.6060	76.3800
 0.6070	76.3200
 0.6080	76.3200
 0.6090	76.3200
 0.6100	76.4900
 0.6110	76.4900
 0.6120	76.6100
 0.6130	76.5500
 0.6140	76.4900
 0.6150	76.7800
 0.6160	76.8400
 0.6170	76.8400
 0.6180	76.7200
 0.6190	76.5500
 0.6200	76.5500
 0.6210	76.9000
 0.6220	76.9500
 0.6230	76.9000
 0.6240	76.7200
 0.6250	76.9500
 0.6260	77.2300
 0.6270	77.2300
 0.6280	77.1200
 0.6290	76.9500
 0.6300	77.1700
 0.6310	77.4600
 0.6320	77.3500
 0.6330	77.2900
 0.6340	77.2300
 0.6350	77.3500
 0.6360	77.5800
 0.6370	77.5800
 0.6380	77.4100
 0.6390	77.4100
 0.6400	77.5200
 0.6410	77.7500
 0.6420	77.6900
 0.6430	77.5200
 0.6440	77.4100
 0.6450	77.6900
 0.6460	77.9200
 0.6470	77.8100
 0.6480	77.7500
 0.6490	77.6400
 0.6500	77.8700
 0.6510	78.0400
 0.6520	78.0400
 0.6530	77.9200
 0.6540	77.6900
 0.6550	77.9800
 0.6560	78.2700
 0.6570	78.3800
 0.6580	78.1500
 0.6590	77.9800
 0.6600	78.0400
 0.6610	78.2700
 0.6620	78.5600
 0.6630	78.3300
 0.6640	78.1500
 0.6650	78.2700
 0.6660	78.3300
 0.6670	78.6100
 0.6680	78.6100
 0.6690	78.4400
 0.6700	78.6100
 0.6710	78.7200
 0.6720	79.0100
 0.6730	78.9500
 0.6740	78.7200
 0.6750	78.6700
 0.6760	78.7800
 0.6770	78.9500
 0.6780	78.9500
 0.6790	78.7200
 0.6800	78.9500
 0.6810	79.0100
 0.6820	79.1800
 0.6830	79.0700
 0.6840	79.0700
 0.6850	79.0700
 0.6860	79.1800
 0.6870	79.3500
 0.6880	79.4100
 0.6890	79.1800
 0.6900	79.1200
 0.6910	79.1800
 0.6920	79.3000
 0.6930	79.4700
 0.6940	79.4100
 0.6950	79.3500
 0.6960	79.2400
 0.6970	79.3500
 0.6980	79.5800
 0.6990	79.5300
 0.7000	79.4100
 0.7010	79.4700
 0.7020	79.6400
 0.7030	79.5300
 0.7040	79.4100
 0.7050	79.3500
 0.7060	79.5800
 0.7070	79.7600
 0.7080	79.7600
 0.7090	79.6400
 0.7100	79.5300
 0.7110	79.7000
 0.7120	79.7600
 0.7130	80.0400
 0.7140	79.9900
 0.7150	79.8100
 0.7160	79.8100
 0.7170	79.9300
 0.7180	80.2800
 0.7190	80.2800
 0.7200	79.9900
 0.7210	79.9900
 0.7220	79.8700
 0.7230	80.1600
 0.7240	80.2800
 0.7250	80.2200
 0.7260	80.1000
 0.7270	80.1600
 0.7280	80.2200
 0.7290	80.3300
 0.7300	80.3300
 0.7310	80.1600
 0.7320	80.2200
 0.7330	80.2200
 0.7340	80.3300
 0.7350	80.4400
 0.7360	80.3800
 0.7370	80.2800
 0.7380	80.3800
 0.7390	80.5000
 0.7400	80.6100
 0.7410	80.5000
 0.7420	80.3300
 0.7430	80.2200
 0.7440	80.5000
 0.7450	80.6700
 0.7460	80.6100
 0.7470	80.3800
 0.7480	80.3300
 0.7490	80.5000
 0.7500	80.7800
 0.7510	80.7300
 0.7520	80.5000
 0.7530	80.6100
 0.7540	80.7300
 0.7550	80.9000
 0.7560	81.0700
 0.7570	80.9000
 0.7580	80.6700
 0.7590	80.6700
 0.7600	80.7800
 0.7610	80.9000
 0.7620	80.9000
 0.7630	80.8400
 0.7640	80.7800
 0.7650	80.8400
 0.7660	80.9600
 0.7670	81.0100
 0.7680	81.0100
 0.7690	80.8400
 0.7700	80.9600
 0.7710	81.0700
 0.7720	81.2400
 0.7730	81.1300
 0.7740	81.0100
 0.7750	81.0100
 0.7760	81.1300
 0.7770	81.4200
 0.7780	81.3600
 0.7790	81.0700
 0.7800	81.1900
 0.7810	81.2400
 0.7820	81.3600
 0.7830	81.4200
 0.7840	81.3000
 0.7850	81.1300
 0.7860	81.1300
 0.7870	81.1900
 0.7880	81.3600
 0.7890	81.1900
 0.7900	81.1300
 0.7910	81.0700
 0.7920	81.2400
 0.7930	81.4200
 0.7940	81.3600
 0.7950	81.2400
 0.7960	81.1300
 0.7970	81.1900
 0.7980	81.3000
 0.7990	81.7600
 0.8000	81.7700
 0.8040	81.8200
 0.8080	81.7600
 0.8120	81.8200
 0.8160	81.7600
 0.8200	81.8800
 0.8240	81.8200
 0.8280	81.9400
 0.8320	82.0400
 0.8360	81.9900
 0.8400	81.8200
 0.8440	81.9900
 0.8480	82.2100
 0.8520	82.1000
 0.8560	82.1000
 0.8600	82.1600
 0.8640	82.2700
 0.8680	82.0400
 0.8720	82.1600
 0.8760	82.2100
 0.8800	82.1600
 0.8840	82.1600
 0.8880	82.1600
 0.8920	82.1000
 0.8960	82.1000
 0.9000	82.2700
 0.9040	82.2100
 0.9080	82.2100
 0.9120	82.1600
 0.9160	82.1000
 0.9200	82.1000
 0.9240	82.1600
 0.9280	82.2700
 0.9320	82.2100
 0.9360	82.3300
 0.9400	82.2100
 0.9440	82.3900
 0.9480	82.3300
 0.9520	82.3900
 0.9560	82.3900
 0.9600	82.2700
 0.9640	82.3300
 0.9680	82.3300
 0.9720	82.3900
 0.9760	82.4400
 0.9800	82.1600
 0.9840	82.3300
 0.9880	82.3900
 0.9920	82.3900
 0.9960	82.3900
 1.0000	82.3900
 1.0040	82.3900
 1.0080	82.3300
 1.0120	82.3300
 1.0160	82.4400
 1.0200	82.3900
 1.0240	82.5600
 1.0280	82.3900
 1.0320	82.5600
 1.0360	82.4400
 1.0400	82.5000
 1.0440	82.5000
 1.0480	82.5600
 1.0520	82.5000
 1.0560	82.5000
 1.0600	82.3900
 1.0640	82.5000
 1.0680	82.5000
 1.0720	82.4400
 1.0760	82.3900
 1.0800	82.3900
 1.0840	82.4400
 1.0880	82.5000
 1.0920	82.5600
 1.0960	82.5000
 1.1000	82.5000
 1.1040	82.4400
 1.1080	82.4400
 1.1120	82.5000
 1.1160	82.5000
 1.1200	82.5000
 1.1240	82.5000
 1.1280	82.5000
 1.1320	82.6200
 1.1360	82.5000
 1.1400	82.6700
 1.1440	82.5000
 1.1480	82.5600
 1.1520	82.3300
 1.1560	82.5500
 1.1600	82.6000
 1.1640	82.4800
 1.1680	82.5300
 1.1720	82.4700
 1.1760	82.5200
 1.1800	82.3900
 1.1840	82.5600
 1.1880	82.4400
 1.1920	82.4400
 1.1960	82.3700
 1.2000	82.4200
 1.2040	82.5400
 1.2080	82.4800
 1.2120	82.5900
 1.2160	82.4200
 1.2200	82.5900
 1.2240	82.4200
 1.2280	82.5400
 1.2320	82.4800
 1.2360	82.5400
 1.2400	82.5900
 1.2440	82.5400
 1.2480	82.5400
 1.2520	82.5400
 1.2560	82.5800
 1.2600	82.5700
 1.2640	82.3900
 1.2680	82.5500
 1.2720	82.5000
 1.2760	82.5500
 1.2800	82.7200
 1.2840	82.4800
 1.2880	82.4700
 1.2920	82.5200
 1.2960	82.5700
 1.3000	82.5600
 1.3040	82.6200
 1.3080	82.5500
 1.3120	82.5500
 1.3160	82.5400
 1.3200	82.3600
 1.3240	82.5800
 1.3280	82.4100
 1.3320	82.4100
 1.3360	82.5700
 1.3400	82.4400
 1.3440	82.3800
 1.3480	82.3100
 1.3520	82.4200
 1.3560	82.3100
 1.3600	82.3700
 1.3640	82.4200
 1.3680	82.4200
 1.3720	82.2500
 1.3760	82.1900
 1.3800	82.1900
 1.3840	82.0800
 1.3880	82.0300
 1.3920	81.9200
 1.3960	81.7400
 1.4000	81.7400
 1.4040	81.4700
 1.4080	81.4200
 1.4120	81.3600
 1.4160	81.2000
 1.4200	81.2700
 1.4240	81.0400
 1.4280	80.9900
 1.4320	80.9300
 1.4360	80.9400
 1.4400	80.9500
 1.4440	80.7900
 1.4480	80.9700
 1.4520	80.9100
 1.4560	80.8500
 1.4600	80.9100
 1.4640	80.9100
 1.4680	80.9700
 1.4720	81.0300
 1.4760	81.0800
 1.4800	81.1400
 1.4840	81.2000
 1.4880	81.1400
 1.4920	81.3600
 1.4960	81.3100
 1.5000	81.3600
 1.5040	81.4200
 1.5080	81.4800
 1.5120	81.5400
 1.5160	81.6500
 1.5200	81.7700
 1.5240	81.7100
 1.5280	81.6500
 1.5320	81.5900
 1.5360	81.8200
 1.5400	81.8200
 1.5440	81.8800
 1.5480	81.7700
 1.5520	81.8200
 1.5560	81.7100
 1.5600	81.7700
 1.5640	81.8200
 1.5680	81.8800
 1.5720	81.8800
 1.5760	81.8200
 1.5800	81.9400
 1.5840	82.0000
 1.5880	81.9400
 1.5920	81.9400
 1.5960	82.1100
 1.6000	82.0500
 1.6040	81.8100
 1.6080	82.0900
 1.6120	81.9200
 1.6160	81.8500
 1.6200	81.9700
 1.6240	81.9600
 1.6280	81.9500
 1.6320	81.7200
 1.6360	81.9400
 1.6400	81.8100
 1.6440	81.8100
 1.6480	81.7400
 1.6520	81.6900
 1.6560	81.7300
 1.6600	81.6700
 1.6640	81.7100
 1.6680	81.8200
 1.6720	81.7600
 1.6760	81.6500
 1.6800	81.6900
 1.6840	81.6800
 1.6880	81.6700
 1.6920	81.6200
 1.6960	81.6100
 1.7000	81.6600
 1.7040	81.4900
 1.7080	81.4300
 1.7120	81.4300
 1.7160	81.2600
 1.7200	81.2600
 1.7240	81.2000
 1.7280	81.3200
 1.7320	81.0300
 1.7360	81.0900
 1.7400	81.1500
 1.7440	81.0300
 1.7480	80.9100
 1.7520	80.9700
 1.7560	81.0900
 1.7600	80.9100
 1.7640	81.0900
 1.7680	81.1500
 1.7720	81.1500
 1.7760	81.3200
 1.7800	81.3800
 1.7840	81.4300
 1.7880	81.1500
 1.7920	81.2000
 1.7960	81.2000
 1.8000	81.1500
 1.8040	81.0100
 1.8080	81.1000
 1.8120	81.0100
 1.8160	80.8100
 1.8200	80.7800
 1.8240	80.7600
 1.8280	80.4600
 1.8320	80.3600
 1.8360	80.1700
 1.8400	80.0300
 1.8440	79.7200
 1.8480	79.5300
 1.8520	79.2800
 1.8560	78.9900
 1.8600	78.5900
 1.8640	78.3500
 1.8680	77.9400
 1.8720	77.6100
 1.8760	77.5400
 1.8800	77.4200
 1.8840	77.4600
 1.8880	77.3500
 1.8920	77.2900
 1.8960	77.0500
 1.9000	76.7600
 1.9040	76.4700
 1.9080	76.0700
 1.9120	75.7800
 1.9160	75.6100
 1.9200	75.3700
 1.9240	75.1400
 1.9280	74.7400
 1.9320	74.7800
 1.9360	74.7300
 1.9400	74.6600
 1.9440	74.6500
 1.9480	74.5900
 1.9520	74.7000
 1.9560	74.5600
 1.9600	74.6600
 1.9640	74.6400
 1.9680	74.5600
 1.9720	74.5500
 1.9760	74.6300
 1.9800	74.5700
 1.9840	74.5500
 1.9880	74.5300
 1.9920	74.7400
 1.9960	74.8300
 2.0000	75.1500
 2.0040	75.3800
 2.0080	75.7100
 2.0120	76.1100
 2.0160	76.4700
 2.0200	76.8400
 2.0240	77.0500
 2.0280	77.1100
 2.0320	77.5100
 2.0360	77.5900
 2.0400	77.6100
 2.0440	77.8300
 2.0480	77.9300
 2.0520	77.9400
 2.0560	78.0300
 2.0600	78.0400
 2.0640	78.1800
 2.0680	78.1500
 2.0720	78.2300
 2.0760	78.2500
 2.0800	78.2800
 2.0840	78.1300
 2.0880	78.2100
 2.0920	78.2900
 2.0960	78.3100
 2.1000	78.2800
 2.1040	78.1400
 2.1080	78.2200
 2.1120	78.0800
 2.1160	78.2100
 2.1200	78.1800
 2.1240	78.0600
 2.1280	77.6500
 2.1320	77.5200
 2.1360	77.4000
 2.1400	77.2900
 2.1440	76.9400
 2.1480	76.8600
 2.1520	76.6800
 2.1560	76.5200
 2.1600	76.8100
 2.1640	76.8500
 2.1680	77.0600
 2.1720	76.9900
 2.1760	77.2500
 2.1800	77.2900
 2.1840	77.2900
 2.1880	77.3100
 2.1920	77.4200
 2.1960	77.1500
 2.2000	77.0400
 2.2040	76.9300
 2.2080	76.8700
 2.2120	76.5500
 2.2160	76.1400
 2.2200	75.8800
 2.2240	75.6000
 2.2280	75.3200
 2.2320	74.7400
 2.2360	74.4300
 2.2400	73.8300
 2.2440	73.1600
 2.2480	72.6500
 2.2520	72.1300
 2.2560	71.3200
 2.2600	70.6600
 2.2640	69.8800
 2.2680	69.0300
 2.2720	68.0600
 2.2760	67.2500
 2.2800	66.4900
 2.2840	65.5100
 2.2880	64.8100
 2.2920	63.9800
 2.2960	63.1000
 2.3000	62.4200
 2.3040	61.7800
 2.3080	61.3700
 2.3120	60.1700
 2.3160	59.5800
 2.3200	58.8900
 2.3240	58.3900
 2.3280	58.0100
 2.3320	57.4600
 2.3360	57.5800
 2.3400	58.0900
 2.3440	58.9000
 2.3480	60.1500
 2.3520	61.5700
 2.3560	63.3200
 2.3600	64.9100
 2.3640	66.4400
 2.3680	68.0200
 2.3720	69.2800
 2.3760	70.3400
 2.3800	71.1100
 2.3840	71.6900
 2.3880	71.8300
 2.3920	72.0300
 2.3960	72.1500
 2.4000	72.0900
 2.4040	71.8600
 2.4080	71.6300
 2.4120	71.3000
 2.4160	70.7900
 2.4200	70.5000
 2.4240	69.8900
 2.4280	69.2200
 2.4320	68.4400
 2.4360	67.6100
 2.4400	66.7700
 2.4440	65.7700
 2.4480	64.8200
 2.4520	63.6600
 2.4560	62.6500
 2.4600	61.3200
 2.4640	60.2100
 2.4680	59.0400
 2.4720	57.9300
 2.4760	56.7700
 2.4800	55.6500
 2.4840	54.7600
 2.4880	53.4800
 2.4920	52.6000
 2.4960	51.7600
 2.5000	50.9900
