Name: Orthoclase (Feldspar) (K,Na)AlSi_3O_8
Type: Mineral
Class: Silicate
Subclass: Tectosilicate
Particle Size: Coarse
Sample No.: TS-12A
Owner: JPL
Wavelength Range: VSWIR
Origin: India.
Collection Date: N/A
Description: Particle size was 125-500um.Collected by:  Burminco Original ASTER Spectral Library name was jpl.perkin.mineral.silicate.tectosilicate.coarse.ts12a.spectrum.txt
Measurement: Hemispherical reflectance
First Column: X
Second Column: Y
X Units: Wavelength (micrometers)
Y Units:Reflectance (percent)
First X Value:  2.5000
Last X Value:  0.4000
Number of X Values: 2101
Additional Information: mineral.silicate.tectosilicate.coarse.vswir.ts-12a.jpl.perkin.ancillary.txt

 2.5000	72.9899
 2.4990	72.8447
 2.4980	73.1105
 2.4970	72.9061
 2.4960	73.0690
 2.4950	73.0109
 2.4940	73.0385
 2.4930	73.0036
 2.4920	72.8019
 2.4910	72.8798
 2.4900	73.0311
 2.4890	72.9065
 2.4880	72.9811
 2.4870	72.9918
 2.4860	72.9662
 2.4850	73.0425
 2.4840	73.1419
 2.4830	73.2128
 2.4820	73.0831
 2.4810	73.2598
 2.4800	73.4170
 2.4790	73.0991
 2.4780	73.3465
 2.4770	73.0848
 2.4760	73.3639
 2.4750	73.2904
 2.4740	73.2411
 2.4730	73.3917
 2.4720	73.4468
 2.4710	73.3143
 2.4700	73.3686
 2.4690	73.3546
 2.4680	73.4313
 2.4670	73.4194
 2.4660	73.4314
 2.4650	73.3489
 2.4640	73.4871
 2.4630	73.5175
 2.4620	73.6896
 2.4610	73.4635
 2.4600	73.5448
 2.4590	73.4914
 2.4580	73.7726
 2.4570	73.7940
 2.4560	73.7575
 2.4550	73.6630
 2.4540	73.6127
 2.4530	73.5804
 2.4520	73.6821
 2.4510	73.6393
 2.4500	73.7717
 2.4490	73.6868
 2.4480	73.7428
 2.4470	73.7510
 2.4460	73.7980
 2.4450	73.7588
 2.4440	73.8666
 2.4430	73.7839
 2.4420	73.8232
 2.4410	73.8561
 2.4400	73.9081
 2.4390	73.9541
 2.4380	73.9232
 2.4370	73.9936
 2.4360	73.9579
 2.4350	73.8114
 2.4340	73.8742
 2.4330	73.8710
 2.4320	73.9232
 2.4310	74.0489
 2.4300	73.9429
 2.4290	73.9285
 2.4280	73.9579
 2.4270	73.9627
 2.4260	74.0090
 2.4250	73.9621
 2.4240	74.1186
 2.4230	74.1526
 2.4220	74.1878
 2.4210	74.1379
 2.4200	74.1600
 2.4190	74.2158
 2.4180	74.0974
 2.4170	74.1685
 2.4160	74.4048
 2.4150	74.3270
 2.4140	74.2446
 2.4130	74.2393
 2.4120	74.3968
 2.4110	74.3955
 2.4100	74.3577
 2.4090	74.2751
 2.4080	74.2966
 2.4070	74.4098
 2.4060	74.3995
 2.4050	74.3238
 2.4040	74.3713
 2.4030	74.4170
 2.4020	74.3963
 2.4010	74.4416
 2.4000	74.5602
 2.3990	74.5099
 2.3980	74.4174
 2.3970	74.4347
 2.3960	74.5123
 2.3950	74.5527
 2.3940	74.5732
 2.3930	74.6210
 2.3920	74.6871
 2.3910	74.6738
 2.3900	74.6644
 2.3890	74.6260
 2.3880	74.6206
 2.3870	74.6743
 2.3860	74.7102
 2.3850	74.7223
 2.3840	74.7646
 2.3830	74.8403
 2.3820	74.8550
 2.3810	74.7933
 2.3800	74.8009
 2.3790	74.8326
 2.3780	74.8920
 2.3770	74.9168
 2.3760	74.8988
 2.3750	74.8907
 2.3740	74.9183
 2.3730	74.9065
 2.3720	74.9876
 2.3710	75.0079
 2.3700	74.9987
 2.3690	75.0184
 2.3680	75.0019
 2.3670	74.9824
 2.3660	75.0635
 2.3650	75.1232
 2.3640	75.1002
 2.3630	75.1173
 2.3620	75.1416
 2.3610	75.1489
 2.3600	75.1937
 2.3590	75.2553
 2.3580	75.1959
 2.3570	75.1264
 2.3560	75.1410
 2.3550	75.1810
 2.3540	75.3029
 2.3530	75.2978
 2.3520	75.2080
 2.3510	75.2088
 2.3500	75.2119
 2.3490	75.2158
 2.3480	75.2415
 2.3470	75.2899
 2.3460	75.2916
 2.3450	75.3235
 2.3440	75.3059
 2.3430	75.2522
 2.3420	75.2667
 2.3410	75.2869
 2.3400	75.2966
 2.3390	75.3035
 2.3380	75.2545
 2.3370	75.1855
 2.3360	75.2114
 2.3350	75.3125
 2.3340	75.3379
 2.3330	75.3026
 2.3320	75.2256
 2.3310	75.2033
 2.3300	75.2208
 2.3290	75.2133
 2.3280	75.2233
 2.3270	75.2410
 2.3260	75.2740
 2.3250	75.1683
 2.3240	75.1107
 2.3230	75.1347
 2.3220	75.1965
 2.3210	75.1718
 2.3200	75.1119
 2.3190	75.1656
 2.3180	75.1606
 2.3170	75.1410
 2.3160	75.1138
 2.3150	75.1179
 2.3140	75.0930
 2.3130	75.1935
 2.3120	75.1942
 2.3110	75.0863
 2.3100	75.1598
 2.3090	75.1188
 2.3080	75.0908
 2.3070	75.1699
 2.3060	75.1326
 2.3050	75.0858
 2.3040	75.0660
 2.3030	75.0234
 2.3020	75.0152
 2.3010	75.0811
 2.3000	75.1209
 2.2990	75.1287
 2.2980	75.1042
 2.2970	75.1356
 2.2960	75.1195
 2.2950	75.1448
 2.2940	75.1102
 2.2930	75.1517
 2.2920	75.1376
 2.2910	75.1951
 2.2900	75.0490
 2.2890	75.0256
 2.2880	75.0279
 2.2870	75.0472
 2.2860	75.0488
 2.2850	75.1422
 2.2840	75.0396
 2.2830	75.1364
 2.2820	75.0712
 2.2810	75.1024
 2.2800	75.1172
 2.2790	75.0011
 2.2780	75.0576
 2.2770	75.0488
 2.2760	74.9922
 2.2750	75.0665
 2.2740	75.0049
 2.2730	75.1037
 2.2720	75.0492
 2.2710	75.0432
 2.2700	75.0396
 2.2690	75.1017
 2.2680	75.0622
 2.2670	75.0668
 2.2660	75.0349
 2.2650	75.0704
 2.2640	75.0016
 2.2630	75.0487
 2.2620	75.0182
 2.2610	75.0237
 2.2600	74.9849
 2.2590	75.1054
 2.2580	75.1007
 2.2570	74.9728
 2.2560	75.0071
 2.2550	75.0645
 2.2540	75.0021
 2.2530	75.0145
 2.2520	75.1000
 2.2510	75.0772
 2.2500	75.0327
 2.2490	75.0652
 2.2480	75.0139
 2.2470	75.0626
 2.2460	74.9819
 2.2450	75.0515
 2.2440	74.9252
 2.2430	75.0403
 2.2420	75.0598
 2.2410	75.0844
 2.2400	74.9513
 2.2390	75.0512
 2.2380	75.0099
 2.2370	75.0560
 2.2360	75.0821
 2.2350	75.0637
 2.2340	75.0936
 2.2330	75.1255
 2.2320	75.0558
 2.2310	75.0415
 2.2300	75.1122
 2.2290	75.0558
 2.2280	75.2061
 2.2270	75.1356
 2.2260	75.0516
 2.2250	75.1521
 2.2240	75.1168
 2.2230	75.1359
 2.2220	75.2824
 2.2210	75.1704
 2.2200	75.1510
 2.2190	75.2546
 2.2180	75.1992
 2.2170	75.3142
 2.2160	75.2441
 2.2150	75.3100
 2.2140	75.2067
 2.2130	75.3092
 2.2120	75.2984
 2.2110	75.1566
 2.2100	75.2534
 2.2090	75.2313
 2.2080	75.2711
 2.2070	75.3434
 2.2060	75.2823
 2.2050	75.2514
 2.2040	75.3155
 2.2030	75.4766
 2.2020	75.4209
 2.2010	75.4881
 2.2000	75.4986
 2.1990	75.5067
 2.1980	75.5201
 2.1970	75.4827
 2.1960	75.4800
 2.1950	75.5146
 2.1940	75.5367
 2.1930	75.6281
 2.1920	75.6295
 2.1910	75.6210
 2.1900	75.6365
 2.1890	75.7122
 2.1880	75.5910
 2.1870	75.6270
 2.1860	75.7118
 2.1850	75.6864
 2.1840	75.7182
 2.1830	75.8330
 2.1820	75.7270
 2.1810	75.8197
 2.1800	75.7170
 2.1790	75.8291
 2.1780	75.8326
 2.1770	75.8889
 2.1760	75.9437
 2.1750	75.9114
 2.1740	75.8658
 2.1730	75.9048
 2.1720	75.9883
 2.1710	76.0180
 2.1700	75.9781
 2.1690	76.0335
 2.1680	76.1164
 2.1670	76.1155
 2.1660	76.0368
 2.1650	76.1512
 2.1640	76.0630
 2.1630	76.2612
 2.1620	76.2038
 2.1610	76.2355
 2.1600	76.2672
 2.1590	76.3750
 2.1580	76.3721
 2.1570	76.4388
 2.1560	76.2735
 2.1550	76.3877
 2.1540	76.3138
 2.1530	76.3559
 2.1520	76.3919
 2.1510	76.3559
 2.1500	76.4435
 2.1490	76.3889
 2.1480	76.4904
 2.1470	76.3929
 2.1460	76.3712
 2.1450	76.3459
 2.1440	76.4197
 2.1430	76.4970
 2.1420	76.4526
 2.1410	76.4333
 2.1400	76.4729
 2.1390	76.4755
 2.1380	76.4084
 2.1370	76.4062
 2.1360	76.2845
 2.1350	76.3521
 2.1340	76.3074
 2.1330	76.3063
 2.1320	76.2242
 2.1310	76.1376
 2.1300	76.2202
 2.1290	76.2391
 2.1280	76.1960
 2.1270	76.2075
 2.1260	76.2062
 2.1250	76.0871
 2.1240	76.0562
 2.1230	76.0431
 2.1220	75.9407
 2.1210	75.9263
 2.1200	75.8388
 2.1190	75.8256
 2.1180	75.8519
 2.1170	75.7654
 2.1160	75.7335
 2.1150	75.6838
 2.1140	75.6159
 2.1130	75.5954
 2.1120	75.5748
 2.1110	75.5553
 2.1100	75.4955
 2.1090	75.3947
 2.1080	75.3391
 2.1070	75.3554
 2.1060	75.3263
 2.1050	75.2317
 2.1040	75.1578
 2.1030	75.2691
 2.1020	75.2174
 2.1010	75.1282
 2.1000	75.0818
 2.0990	75.0715
 2.0980	75.0333
 2.0970	75.0708
 2.0960	75.0593
 2.0950	75.0970
 2.0940	75.1443
 2.0930	75.1885
 2.0920	75.1502
 2.0910	75.1275
 2.0900	75.1602
 2.0890	75.2282
 2.0880	75.1899
 2.0870	75.1362
 2.0860	75.1697
 2.0850	75.1827
 2.0840	75.2092
 2.0830	75.2204
 2.0820	75.2328
 2.0810	75.2616
 2.0800	75.2316
 2.0790	75.2402
 2.0780	75.2555
 2.0770	75.2573
 2.0760	75.3166
 2.0750	75.3366
 2.0740	75.3165
 2.0730	75.2904
 2.0720	75.2741
 2.0710	75.2919
 2.0700	75.3400
 2.0690	75.3163
 2.0680	75.2969
 2.0670	75.3114
 2.0660	75.2776
 2.0650	75.2850
 2.0640	75.3399
 2.0630	75.3335
 2.0620	75.3535
 2.0610	75.3871
 2.0600	75.3878
 2.0590	75.4223
 2.0580	75.4505
 2.0570	75.4349
 2.0560	75.4033
 2.0550	75.3765
 2.0540	75.3880
 2.0530	75.3851
 2.0520	75.3817
 2.0510	75.3757
 2.0500	75.4638
 2.0490	75.4677
 2.0480	75.4570
 2.0470	75.4415
 2.0460	75.4834
 2.0450	75.5322
 2.0440	75.5310
 2.0430	75.4414
 2.0420	75.4497
 2.0410	75.4918
 2.0400	75.5041
 2.0390	75.4224
 2.0380	75.3959
 2.0370	75.5062
 2.0360	75.4700
 2.0350	75.5277
 2.0340	75.5091
 2.0330	75.4091
 2.0320	75.4263
 2.0310	75.4858
 2.0300	75.4843
 2.0290	75.4647
 2.0280	75.4511
 2.0270	75.4140
 2.0260	75.4265
 2.0250	75.4692
 2.0240	75.5107
 2.0230	75.4484
 2.0220	75.3374
 2.0210	75.4415
 2.0200	75.4735
 2.0190	75.4124
 2.0180	75.4493
 2.0170	75.4384
 2.0160	75.4120
 2.0150	75.3976
 2.0140	75.4029
 2.0130	75.3743
 2.0120	75.3613
 2.0110	75.3717
 2.0100	75.3899
 2.0090	75.3599
 2.0080	75.3184
 2.0070	75.3052
 2.0060	75.3368
 2.0050	75.3540
 2.0040	75.3710
 2.0030	75.2971
 2.0020	75.2780
 2.0010	75.2851
 2.0000	75.2368
 1.9990	75.2402
 1.9980	75.3037
 1.9970	75.2937
 1.9960	75.2455
 1.9950	75.2125
 1.9940	75.2255
 1.9930	75.2109
 1.9920	75.2208
 1.9910	75.1771
 1.9900	75.1690
 1.9890	75.0880
 1.9880	75.2130
 1.9870	75.1271
 1.9860	75.1587
 1.9850	75.0955
 1.9840	75.0386
 1.9830	75.0550
 1.9820	74.9784
 1.9810	74.9133
 1.9800	75.0008
 1.9790	74.8903
 1.9780	74.9656
 1.9770	74.9527
 1.9760	74.8964
 1.9750	74.8539
 1.9740	74.9075
 1.9730	74.8307
 1.9720	74.7619
 1.9710	74.8715
 1.9700	74.9422
 1.9690	74.7997
 1.9680	74.7873
 1.9670	74.7881
 1.9660	74.7952
 1.9650	74.7643
 1.9640	74.7793
 1.9630	74.7917
 1.9620	74.7852
 1.9610	74.8390
 1.9600	74.7586
 1.9590	74.6246
 1.9580	74.6255
 1.9570	74.6889
 1.9560	74.6821
 1.9550	74.6298
 1.9540	74.5759
 1.9530	74.6277
 1.9520	74.5273
 1.9510	74.6753
 1.9500	74.6511
 1.9490	74.5927
 1.9480	74.6252
 1.9470	74.6752
 1.9460	74.6718
 1.9450	74.5133
 1.9440	74.6518
 1.9430	74.5745
 1.9420	74.6447
 1.9410	74.6092
 1.9400	74.6556
 1.9390	74.4717
 1.9380	74.5769
 1.9370	74.5502
 1.9360	74.5939
 1.9350	74.5215
 1.9340	74.4452
 1.9330	74.5087
 1.9320	74.4545
 1.9310	74.4609
 1.9300	74.5219
 1.9290	74.5493
 1.9280	74.4634
 1.9270	74.5778
 1.9260	74.4149
 1.9250	74.4615
 1.9240	74.4477
 1.9230	74.4274
 1.9220	74.4204
 1.9210	74.3443
 1.9200	74.3968
 1.9190	74.4421
 1.9180	74.3818
 1.9170	74.2888
 1.9160	74.4541
 1.9150	74.3556
 1.9140	74.4189
 1.9130	74.4180
 1.9120	74.5251
 1.9110	74.4968
 1.9100	74.6442
 1.9090	74.5675
 1.9080	74.6236
 1.9070	74.5839
 1.9060	74.5808
 1.9050	74.6356
 1.9040	74.7299
 1.9030	74.6589
 1.9020	74.7559
 1.9010	74.8381
 1.9000	74.8608
 1.8990	74.9653
 1.8980	74.9509
 1.8970	74.9668
 1.8960	75.0645
 1.8950	75.0271
 1.8940	75.1126
 1.8930	75.1765
 1.8920	75.2046
 1.8910	75.2415
 1.8900	75.2236
 1.8890	75.1570
 1.8880	75.3038
 1.8870	75.3005
 1.8860	75.3448
 1.8850	75.3703
 1.8840	75.3791
 1.8830	75.3457
 1.8820	75.4028
 1.8810	75.3894
 1.8800	75.5629
 1.8790	75.4665
 1.8780	75.5034
 1.8770	75.5258
 1.8760	75.7242
 1.8750	75.7462
 1.8740	75.5955
 1.8730	75.5706
 1.8720	75.5636
 1.8710	75.5609
 1.8700	75.4981
 1.8690	75.5540
 1.8680	75.5035
 1.8670	75.4560
 1.8660	75.5791
 1.8650	75.5773
 1.8640	75.5732
 1.8630	75.5984
 1.8620	75.6387
 1.8610	75.6007
 1.8600	75.6104
 1.8590	75.5747
 1.8580	75.6522
 1.8570	75.6194
 1.8560	75.6258
 1.8550	75.5654
 1.8540	75.6022
 1.8530	75.6779
 1.8520	75.6927
 1.8510	75.5974
 1.8500	75.6570
 1.8490	75.6444
 1.8480	75.6529
 1.8470	75.6292
 1.8460	75.6610
 1.8450	75.6690
 1.8440	75.6336
 1.8430	75.6334
 1.8420	75.7196
 1.8410	75.6875
 1.8400	75.6928
 1.8390	75.6395
 1.8380	75.6796
 1.8370	75.6259
 1.8360	75.6247
 1.8350	75.5900
 1.8340	75.5946
 1.8330	75.6174
 1.8320	75.5675
 1.8310	75.5169
 1.8300	75.5934
 1.8290	75.5599
 1.8280	75.5381
 1.8270	75.5763
 1.8260	75.5632
 1.8250	75.5862
 1.8240	75.6494
 1.8230	75.6129
 1.8220	75.6632
 1.8210	75.5974
 1.8200	75.5386
 1.8190	75.4955
 1.8180	75.5365
 1.8170	75.5667
 1.8160	75.5596
 1.8150	75.5282
 1.8140	75.5211
 1.8130	75.4928
 1.8120	75.4750
 1.8110	75.4618
 1.8100	75.5680
 1.8090	75.5556
 1.8080	75.5241
 1.8070	75.5380
 1.8060	75.5274
 1.8050	75.4473
 1.8040	75.5351
 1.8030	75.5727
 1.8020	75.5205
 1.8010	75.5119
 1.8000	75.5428
 1.7990	75.5716
 1.7980	75.5324
 1.7970	75.4769
 1.7960	75.5494
 1.7950	75.6341
 1.7940	75.5833
 1.7930	75.4730
 1.7920	75.4566
 1.7910	75.4557
 1.7900	75.4968
 1.7890	75.4885
 1.7880	75.4086
 1.7870	75.4254
 1.7860	75.4786
 1.7850	75.4476
 1.7840	75.4746
 1.7830	75.4532
 1.7820	75.3631
 1.7810	75.4064
 1.7800	75.4261
 1.7790	75.4087
 1.7780	75.4251
 1.7770	75.4085
 1.7760	75.3636
 1.7750	75.3573
 1.7740	75.3699
 1.7730	75.4106
 1.7720	75.4347
 1.7710	75.4715
 1.7700	75.4422
 1.7690	75.4445
 1.7680	75.4207
 1.7670	75.3547
 1.7660	75.3977
 1.7650	75.4798
 1.7640	75.4076
 1.7630	75.3649
 1.7620	75.4266
 1.7610	75.4421
 1.7600	75.3916
 1.7590	75.4020
 1.7580	75.3754
 1.7570	75.3094
 1.7560	75.3214
 1.7550	75.3372
 1.7540	75.3021
 1.7530	75.3563
 1.7520	75.3429
 1.7510	75.3919
 1.7500	75.4107
 1.7490	75.3315
 1.7480	75.3724
 1.7470	75.4539
 1.7460	75.3732
 1.7450	75.3626
 1.7440	75.3029
 1.7430	75.2930
 1.7420	75.3442
 1.7410	75.3383
 1.7400	75.3430
 1.7390	75.3982
 1.7380	75.3557
 1.7370	75.3376
 1.7360	75.3972
 1.7350	75.3368
 1.7340	75.3261
 1.7330	75.3894
 1.7320	75.4040
 1.7310	75.3745
 1.7300	75.3327
 1.7290	75.3860
 1.7280	75.3541
 1.7270	75.3876
 1.7260	75.3760
 1.7250	75.3414
 1.7240	75.3423
 1.7230	75.2931
 1.7220	75.3031
 1.7210	75.3521
 1.7200	75.3560
 1.7190	75.3503
 1.7180	75.3722
 1.7170	75.3543
 1.7160	75.2799
 1.7150	75.2346
 1.7140	75.3101
 1.7130	75.2406
 1.7120	75.2529
 1.7110	75.2613
 1.7100	75.2209
 1.7090	75.2589
 1.7080	75.2966
 1.7070	75.2903
 1.7060	75.2891
 1.7050	75.2862
 1.7040	75.2727
 1.7030	75.2805
 1.7020	75.2452
 1.7010	75.2905
 1.7000	75.2392
 1.6990	75.3136
 1.6980	75.2190
 1.6970	75.2435
 1.6960	75.2387
 1.6950	75.2557
 1.6940	75.2834
 1.6930	75.1817
 1.6920	75.2386
 1.6910	75.2705
 1.6900	75.1700
 1.6890	75.1790
 1.6880	75.1668
 1.6870	75.1356
 1.6860	75.1135
 1.6850	75.2527
 1.6840	75.2079
 1.6830	75.2313
 1.6820	75.1865
 1.6810	75.1583
 1.6800	75.1302
 1.6790	75.1769
 1.6780	75.1333
 1.6770	75.1224
 1.6760	75.0837
 1.6750	75.1733
 1.6740	75.0656
 1.6730	75.1255
 1.6720	75.0978
 1.6710	75.1103
 1.6700	75.1492
 1.6690	75.1036
 1.6680	75.1047
 1.6670	75.0638
 1.6660	75.1004
 1.6650	75.1354
 1.6640	75.1024
 1.6630	75.0787
 1.6620	75.1151
 1.6610	75.1261
 1.6600	75.0494
 1.6590	75.1157
 1.6580	75.0347
 1.6570	75.0765
 1.6560	75.1058
 1.6550	75.0034
 1.6540	75.0534
 1.6530	75.0715
 1.6520	75.0474
 1.6510	75.0885
 1.6500	74.9652
 1.6490	75.0644
 1.6480	74.9988
 1.6470	75.0629
 1.6460	75.1172
 1.6450	75.0616
 1.6440	75.0167
 1.6430	75.0532
 1.6420	74.9346
 1.6410	74.9825
 1.6400	75.0899
 1.6390	75.0091
 1.6380	74.9458
 1.6370	75.0638
 1.6360	74.9170
 1.6350	75.0767
 1.6340	74.9146
 1.6330	75.0176
 1.6320	75.0521
 1.6310	75.0315
 1.6300	74.9355
 1.6290	75.0181
 1.6280	74.9843
 1.6270	74.9991
 1.6260	74.9374
 1.6250	74.9848
 1.6240	74.8974
 1.6230	75.0232
 1.6220	74.9316
 1.6210	75.0426
 1.6200	74.8554
 1.6190	74.9509
 1.6180	74.9275
 1.6170	74.9247
 1.6160	74.8939
 1.6150	74.9956
 1.6140	74.9338
 1.6130	74.9138
 1.6120	74.9773
 1.6110	74.9946
 1.6100	74.9932
 1.6090	74.9137
 1.6080	74.8690
 1.6070	74.9577
 1.6060	74.9726
 1.6050	74.9629
 1.6040	74.9436
 1.6030	74.9499
 1.6020	74.9312
 1.6010	74.9010
 1.6000	74.9582
 1.5990	74.8979
 1.5980	74.9548
 1.5970	74.9208
 1.5960	74.8715
 1.5950	74.8757
 1.5940	74.9410
 1.5930	74.9045
 1.5920	74.8318
 1.5910	74.8643
 1.5900	74.8778
 1.5890	74.9158
 1.5880	74.8150
 1.5870	74.8220
 1.5860	74.7576
 1.5850	74.7937
 1.5840	74.8990
 1.5830	74.8806
 1.5820	74.8101
 1.5810	74.8596
 1.5800	74.7914
 1.5790	74.8150
 1.5780	74.7974
 1.5770	74.8155
 1.5760	74.8268
 1.5750	74.7810
 1.5740	74.8412
 1.5730	74.8055
 1.5720	74.7792
 1.5710	74.8000
 1.5700	74.7623
 1.5690	74.7000
 1.5680	74.7350
 1.5670	74.7372
 1.5660	74.7235
 1.5650	74.7582
 1.5640	74.7491
 1.5630	74.7779
 1.5620	74.7053
 1.5610	74.7270
 1.5600	74.7185
 1.5590	74.7840
 1.5580	74.6820
 1.5570	74.6466
 1.5560	74.7380
 1.5550	74.7061
 1.5540	74.6947
 1.5530	74.7382
 1.5520	74.6766
 1.5510	74.7032
 1.5500	74.6742
 1.5490	74.6379
 1.5480	74.5110
 1.5470	74.5817
 1.5460	74.6992
 1.5450	74.7209
 1.5440	74.7258
 1.5430	74.6538
 1.5420	74.6074
 1.5410	74.6625
 1.5400	74.6041
 1.5390	74.5632
 1.5380	74.6463
 1.5370	74.7037
 1.5360	74.6194
 1.5350	74.6148
 1.5340	74.5801
 1.5330	74.5698
 1.5320	74.5330
 1.5310	74.5599
 1.5300	74.5517
 1.5290	74.5161
 1.5280	74.5777
 1.5270	74.5691
 1.5260	74.5322
 1.5250	74.5484
 1.5240	74.5326
 1.5230	74.4986
 1.5220	74.4207
 1.5210	74.4648
 1.5200	74.5040
 1.5190	74.4814
 1.5180	74.4487
 1.5170	74.3972
 1.5160	74.3956
 1.5150	74.3789
 1.5140	74.4441
 1.5130	74.4502
 1.5120	74.3758
 1.5110	74.3730
 1.5100	74.3915
 1.5090	74.4406
 1.5080	74.4604
 1.5070	74.4469
 1.5060	74.4229
 1.5050	74.3883
 1.5040	74.3653
 1.5030	74.4241
 1.5020	74.3727
 1.5010	74.3242
 1.5000	74.3745
 1.4990	74.3517
 1.4980	74.3515
 1.4970	74.2977
 1.4960	74.3173
 1.4950	74.3637
 1.4940	74.3286
 1.4930	74.3513
 1.4920	74.4067
 1.4910	74.3607
 1.4900	74.2664
 1.4890	74.2110
 1.4880	74.2834
 1.4870	74.3463
 1.4860	74.3234
 1.4850	74.2441
 1.4840	74.2554
 1.4830	74.2600
 1.4820	74.2302
 1.4810	74.2278
 1.4800	74.2971
 1.4790	74.2430
 1.4780	74.2016
 1.4770	74.2066
 1.4760	74.2052
 1.4750	74.1673
 1.4740	74.1888
 1.4730	74.1562
 1.4720	74.0948
 1.4710	74.0653
 1.4700	74.1495
 1.4690	74.1117
 1.4680	74.0859
 1.4670	74.0969
 1.4660	74.0864
 1.4650	74.1304
 1.4640	74.1267
 1.4630	74.1610
 1.4620	74.1566
 1.4610	74.0877
 1.4600	74.1116
 1.4590	74.0733
 1.4580	74.0288
 1.4570	74.0313
 1.4560	74.0583
 1.4550	74.0302
 1.4540	74.0305
 1.4530	74.0772
 1.4520	74.0973
 1.4510	74.0508
 1.4500	74.0694
 1.4490	73.9876
 1.4480	74.0223
 1.4470	74.0646
 1.4460	74.0634
 1.4450	74.0430
 1.4440	73.9746
 1.4430	73.9419
 1.4420	73.9398
 1.4410	73.8716
 1.4400	73.9685
 1.4390	73.9045
 1.4380	73.9395
 1.4370	73.9296
 1.4360	73.9451
 1.4350	73.8610
 1.4340	73.9275
 1.4330	73.8705
 1.4320	73.9046
 1.4310	73.8514
 1.4300	73.9229
 1.4290	73.8905
 1.4280	73.8531
 1.4270	73.7953
 1.4260	73.8216
 1.4250	73.8060
 1.4240	73.8791
 1.4230	73.7886
 1.4220	73.9336
 1.4210	73.8338
 1.4200	73.8508
 1.4190	73.7594
 1.4180	73.7869
 1.4170	73.7817
 1.4160	73.7524
 1.4150	73.7871
 1.4140	73.7742
 1.4130	73.7599
 1.4120	73.8245
 1.4110	73.8193
 1.4100	73.8431
 1.4090	73.7643
 1.4080	73.8073
 1.4070	73.8075
 1.4060	73.7474
 1.4050	73.7157
 1.4040	73.8593
 1.4030	73.7815
 1.4020	73.8497
 1.4010	73.7944
 1.4000	73.7804
 1.3990	73.8647
 1.3980	73.8907
 1.3970	73.9611
 1.3960	73.9347
 1.3950	73.8144
 1.3940	73.7887
 1.3930	73.8790
 1.3920	73.8905
 1.3910	73.8871
 1.3900	73.9938
 1.3890	73.8822
 1.3880	73.9923
 1.3870	73.8554
 1.3860	73.8867
 1.3850	73.9714
 1.3840	73.9367
 1.3830	73.8278
 1.3820	73.8426
 1.3810	73.8238
 1.3800	73.9212
 1.3790	73.8408
 1.3780	73.9239
 1.3770	73.8106
 1.3760	73.8036
 1.3750	73.8584
 1.3740	73.8089
 1.3730	73.8023
 1.3720	73.9167
 1.3710	73.8053
 1.3700	73.8275
 1.3690	73.8014
 1.3680	73.8426
 1.3670	73.9213
 1.3660	73.8341
 1.3650	73.7594
 1.3640	73.8818
 1.3630	73.7375
 1.3620	73.6618
 1.3610	73.7336
 1.3600	73.7950
 1.3590	73.7972
 1.3580	73.7707
 1.3570	73.7445
 1.3560	73.7978
 1.3550	73.6624
 1.3540	73.7626
 1.3530	73.6697
 1.3520	73.7185
 1.3510	73.7023
 1.3500	73.6342
 1.3490	73.7208
 1.3480	73.7202
 1.3470	73.7258
 1.3460	73.6877
 1.3450	73.6497
 1.3440	73.6601
 1.3430	73.5596
 1.3420	73.5600
 1.3410	73.6089
 1.3400	73.5382
 1.3390	73.6056
 1.3380	73.5701
 1.3370	73.6328
 1.3360	73.7089
 1.3350	73.6519
 1.3340	73.5426
 1.3330	73.5663
 1.3320	73.5660
 1.3310	73.5816
 1.3300	73.5524
 1.3290	73.5650
 1.3280	73.5732
 1.3270	73.5356
 1.3260	73.5365
 1.3250	73.5451
 1.3240	73.5535
 1.3230	73.5320
 1.3220	73.5438
 1.3210	73.4916
 1.3200	73.4515
 1.3190	73.4754
 1.3180	73.4257
 1.3170	73.4633
 1.3160	73.4423
 1.3150	73.4542
 1.3140	73.4385
 1.3130	73.4133
 1.3120	73.4738
 1.3110	73.4163
 1.3100	73.4367
 1.3090	73.4336
 1.3080	73.4230
 1.3070	73.2774
 1.3060	73.3668
 1.3050	73.4259
 1.3040	73.4080
 1.3030	73.3287
 1.3020	73.4423
 1.3010	73.3321
 1.3000	73.3982
 1.2990	73.3822
 1.2980	73.3637
 1.2970	73.3491
 1.2960	73.4051
 1.2950	73.3094
 1.2940	73.3268
 1.2930	73.3172
 1.2920	73.3380
 1.2910	73.3124
 1.2900	73.2926
 1.2890	73.2784
 1.2880	73.2874
 1.2870	73.2975
 1.2860	73.2988
 1.2850	73.2830
 1.2840	73.1991
 1.2830	73.1898
 1.2820	73.2301
 1.2810	73.2236
 1.2800	73.2752
 1.2790	73.2929
 1.2780	73.1753
 1.2770	73.1444
 1.2760	73.2376
 1.2750	73.1995
 1.2740	73.2385
 1.2730	73.2060
 1.2720	73.2700
 1.2710	73.1708
 1.2700	73.1409
 1.2690	73.1056
 1.2680	73.1199
 1.2670	73.1225
 1.2660	73.1125
 1.2650	73.1508
 1.2640	73.1338
 1.2630	73.0888
 1.2620	73.0418
 1.2610	73.1071
 1.2600	73.0725
 1.2590	73.0097
 1.2580	73.0469
 1.2570	73.0871
 1.2560	73.0564
 1.2550	73.0108
 1.2540	73.0386
 1.2530	73.0009
 1.2520	72.9314
 1.2510	72.9404
 1.2500	72.9978
 1.2490	72.9643
 1.2480	72.9390
 1.2470	72.9655
 1.2460	72.9869
 1.2450	73.0302
 1.2440	73.0141
 1.2430	72.9225
 1.2420	72.9250
 1.2410	72.9308
 1.2400	72.9585
 1.2390	72.9724
 1.2380	72.9684
 1.2370	72.9215
 1.2360	72.9095
 1.2350	72.8966
 1.2340	72.9126
 1.2330	72.9051
 1.2320	72.8954
 1.2310	72.8689
 1.2300	72.8246
 1.2290	72.8442
 1.2280	72.8885
 1.2270	72.8434
 1.2260	72.8721
 1.2250	72.8121
 1.2240	72.7799
 1.2230	72.8084
 1.2220	72.8544
 1.2210	72.8179
 1.2200	72.7829
 1.2190	72.8201
 1.2180	72.8551
 1.2170	72.8346
 1.2160	72.7958
 1.2150	72.7546
 1.2140	72.7238
 1.2130	72.7456
 1.2120	72.7565
 1.2110	72.7373
 1.2100	72.6951
 1.2090	72.7003
 1.2080	72.7171
 1.2070	72.6979
 1.2060	72.7170
 1.2050	72.7195
 1.2040	72.6751
 1.2030	72.6457
 1.2020	72.6543
 1.2010	72.7005
 1.2000	72.7021
 1.1990	72.7014
 1.1980	72.6607
 1.1970	72.6634
 1.1960	72.6581
 1.1950	72.6202
 1.1940	72.6286
 1.1930	72.6521
 1.1920	72.6608
 1.1910	72.6179
 1.1900	72.5842
 1.1890	72.5907
 1.1880	72.5971
 1.1870	72.6510
 1.1860	72.6671
 1.1850	72.6705
 1.1840	72.5992
 1.1830	72.6685
 1.1820	72.5949
 1.1810	72.5407
 1.1800	72.6150
 1.1790	72.5774
 1.1780	72.5162
 1.1770	72.5251
 1.1760	72.5817
 1.1750	72.5875
 1.1740	72.5234
 1.1730	72.5220
 1.1720	72.5290
 1.1710	72.5682
 1.1700	72.5383
 1.1690	72.5323
 1.1680	72.4952
 1.1670	72.5724
 1.1660	72.4975
 1.1650	72.5566
 1.1640	72.4969
 1.1630	72.5313
 1.1620	72.5133
 1.1610	72.5064
 1.1600	72.4980
 1.1590	72.4798
 1.1580	72.4794
 1.1570	72.5097
 1.1560	72.5374
 1.1550	72.4647
 1.1540	72.5014
 1.1530	72.5378
 1.1520	72.4510
 1.1510	72.4906
 1.1500	72.4357
 1.1490	72.5198
 1.1480	72.5138
 1.1470	72.5079
 1.1460	72.4555
 1.1450	72.4252
 1.1440	72.4935
 1.1430	72.5359
 1.1420	72.4517
 1.1410	72.4672
 1.1400	72.4249
 1.1390	72.4559
 1.1380	72.4237
 1.1370	72.4355
 1.1360	72.3762
 1.1350	72.4713
 1.1340	72.4409
 1.1330	72.4379
 1.1320	72.3841
 1.1310	72.4661
 1.1300	72.4691
 1.1290	72.3857
 1.1280	72.3483
 1.1270	72.4306
 1.1260	72.3899
 1.1250	72.3901
 1.1240	72.4164
 1.1230	72.3720
 1.1220	72.4060
 1.1210	72.4317
 1.1200	72.3764
 1.1190	72.4310
 1.1180	72.4945
 1.1170	72.3782
 1.1160	72.4307
 1.1150	72.4431
 1.1140	72.4201
 1.1130	72.4685
 1.1120	72.2921
 1.1110	72.4067
 1.1100	72.3331
 1.1090	72.3702
 1.1080	72.2904
 1.1070	72.3235
 1.1060	72.3679
 1.1050	72.3456
 1.1040	72.3650
 1.1030	72.3941
 1.1020	72.3843
 1.1010	72.4466
 1.1000	72.3670
 1.0990	72.4135
 1.0980	72.3055
 1.0970	72.3889
 1.0960	72.3666
 1.0950	72.4259
 1.0940	72.4238
 1.0930	72.3672
 1.0920	72.3876
 1.0910	72.3737
 1.0900	72.3521
 1.0890	72.4127
 1.0880	72.3636
 1.0870	72.4243
 1.0860	72.3424
 1.0850	72.3817
 1.0840	72.4055
 1.0830	72.4030
 1.0820	72.2474
 1.0810	72.3518
 1.0800	72.4623
 1.0790	72.3870
 1.0780	72.3649
 1.0770	72.4279
 1.0760	72.3960
 1.0750	72.3195
 1.0740	72.3259
 1.0730	72.3800
 1.0720	72.3193
 1.0710	72.3372
 1.0700	72.3778
 1.0690	72.3993
 1.0680	72.3430
 1.0670	72.4576
 1.0660	72.3717
 1.0650	72.3581
 1.0640	72.3614
 1.0630	72.3646
 1.0620	72.3410
 1.0610	72.3663
 1.0600	72.4084
 1.0590	72.4367
 1.0580	72.3538
 1.0570	72.4422
 1.0560	72.3865
 1.0550	72.3979
 1.0540	72.3372
 1.0530	72.4383
 1.0520	72.3182
 1.0510	72.4040
 1.0500	72.5185
 1.0490	72.4118
 1.0480	72.4326
 1.0470	72.3929
 1.0460	72.4917
 1.0450	72.3551
 1.0440	72.4245
 1.0430	72.4324
 1.0420	72.4379
 1.0410	72.4097
 1.0400	72.3953
 1.0390	72.4397
 1.0380	72.4367
 1.0370	72.3875
 1.0360	72.4768
 1.0350	72.4592
 1.0340	72.4866
 1.0330	72.4837
 1.0320	72.3426
 1.0310	72.3953
 1.0300	72.4045
 1.0290	72.3678
 1.0280	72.4092
 1.0270	72.4405
 1.0260	72.4733
 1.0250	72.4161
 1.0240	72.4139
 1.0230	72.5463
 1.0220	72.4335
 1.0210	72.4762
 1.0200	72.4376
 1.0190	72.5069
 1.0180	72.5033
 1.0170	72.4704
 1.0160	72.5252
 1.0150	72.4431
 1.0140	72.4215
 1.0130	72.4927
 1.0120	72.4924
 1.0110	72.4862
 1.0100	72.4328
 1.0090	72.5462
 1.0080	72.4887
 1.0070	72.5556
 1.0060	72.5109
 1.0050	72.5857
 1.0040	72.5080
 1.0030	72.5656
 1.0020	72.5082
 1.0010	72.5721
 1.0000	72.5225
 0.9990	72.4684
 0.9980	72.5311
 0.9970	72.5714
 0.9960	72.5670
 0.9950	72.5379
 0.9940	72.5640
 0.9930	72.5276
 0.9920	72.5367
 0.9910	72.5310
 0.9900	72.5234
 0.9890	72.6341
 0.9880	72.5680
 0.9870	72.5432
 0.9860	72.5395
 0.9850	72.6152
 0.9840	72.6437
 0.9830	72.6801
 0.9820	72.5729
 0.9810	72.5542
 0.9800	72.5479
 0.9790	72.5851
 0.9780	72.6185
 0.9770	72.5643
 0.9760	72.5350
 0.9750	72.6119
 0.9740	72.6490
 0.9730	72.6716
 0.9720	72.6485
 0.9710	72.6927
 0.9700	72.6583
 0.9690	72.6516
 0.9680	72.6679
 0.9670	72.6562
 0.9660	72.6074
 0.9650	72.5450
 0.9640	72.5809
 0.9630	72.6021
 0.9620	72.6911
 0.9610	72.7211
 0.9600	72.6562
 0.9590	72.6688
 0.9580	72.6349
 0.9570	72.6624
 0.9560	72.6923
 0.9550	72.7215
 0.9540	72.7126
 0.9530	72.7557
 0.9520	72.7973
 0.9510	72.7209
 0.9500	72.7079
 0.9490	72.7017
 0.9480	72.6843
 0.9470	72.6205
 0.9460	72.6606
 0.9450	72.7445
 0.9440	72.7175
 0.9430	72.6611
 0.9420	72.6129
 0.9410	72.7451
 0.9400	72.7649
 0.9390	72.7407
 0.9380	72.7815
 0.9370	72.7403
 0.9360	72.6997
 0.9350	72.7715
 0.9340	72.7848
 0.9330	72.7382
 0.9320	72.7573
 0.9310	72.7471
 0.9300	72.7460
 0.9290	72.8356
 0.9280	72.7587
 0.9270	72.6908
 0.9260	72.7708
 0.9250	72.8148
 0.9240	72.7951
 0.9230	72.7873
 0.9220	72.7838
 0.9210	72.7577
 0.9200	72.7802
 0.9190	72.8232
 0.9180	72.8316
 0.9170	72.8194
 0.9160	72.7445
 0.9150	72.7116
 0.9140	72.7843
 0.9130	72.8440
 0.9120	72.8677
 0.9110	72.7779
 0.9100	72.7582
 0.9090	72.7797
 0.9080	72.7847
 0.9070	72.8015
 0.9060	72.8841
 0.9050	72.8047
 0.9040	72.8152
 0.9030	72.8479
 0.9020	72.8642
 0.9010	72.8736
 0.9000	72.8539
 0.8990	72.8234
 0.8980	72.8811
 0.8970	72.8552
 0.8960	72.8512
 0.8950	72.8397
 0.8940	72.8014
 0.8930	72.7799
 0.8920	72.8508
 0.8910	72.8181
 0.8900	72.8342
 0.8890	72.7890
 0.8880	72.8320
 0.8870	72.8456
 0.8860	72.9514
 0.8850	72.9267
 0.8840	72.8690
 0.8830	72.9237
 0.8820	72.9263
 0.8810	72.9187
 0.8800	72.9087
 0.8790	72.9121
 0.8780	72.9176
 0.8770	72.9245
 0.8760	72.9142
 0.8750	72.8621
 0.8740	72.8458
 0.8730	72.8834
 0.8720	72.9348
 0.8710	72.8712
 0.8700	72.9218
 0.8690	72.9108
 0.8680	72.8798
 0.8670	72.8682
 0.8660	72.9121
 0.8650	72.8860
 0.8640	72.8348
 0.8630	72.8401
 0.8620	72.8640
 0.8610	72.8479
 0.8600	72.4787
 0.8590	72.1761
 0.8580	72.1580
 0.8570	72.2398
 0.8560	72.2169
 0.8550	72.2046
 0.8540	72.2467
 0.8530	72.1922
 0.8520	72.1895
 0.8510	72.2535
 0.8500	72.3179
 0.8490	72.3258
 0.8480	72.2596
 0.8470	72.3108
 0.8460	72.3033
 0.8450	72.3121
 0.8440	72.3745
 0.8430	72.3356
 0.8420	72.3615
 0.8410	72.3279
 0.8400	72.3411
 0.8390	72.3249
 0.8380	72.3566
 0.8370	72.3570
 0.8360	72.3818
 0.8350	72.3933
 0.8340	72.4096
 0.8330	72.3598
 0.8320	72.4482
 0.8310	72.4232
 0.8300	72.4414
 0.8290	72.4792
 0.8280	72.4545
 0.8270	72.4350
 0.8260	72.4721
 0.8250	72.4888
 0.8240	72.4568
 0.8230	72.4949
 0.8220	72.4781
 0.8210	72.4793
 0.8200	72.5344
 0.8190	72.5038
 0.8180	72.5273
 0.8170	72.5079
 0.8160	72.5022
 0.8150	72.5218
 0.8140	72.5641
 0.8130	72.5459
 0.8120	72.5176
 0.8110	72.5304
 0.8100	72.6000
 0.8090	72.5092
 0.8080	72.5049
 0.8070	72.5297
 0.8060	72.5432
 0.8050	72.5445
 0.8040	72.5712
 0.8030	72.5324
 0.8020	72.5802
 0.8010	72.5455
 0.8000	72.5636
 0.7990	72.5317
 0.7980	72.5472
 0.7970	72.4978
 0.7960	72.5456
 0.7950	72.4730
 0.7940	72.5116
 0.7930	72.4846
 0.7920	72.4886
 0.7910	72.4929
 0.7900	72.4613
 0.7890	72.4980
 0.7880	72.5417
 0.7870	72.5428
 0.7860	72.4969
 0.7850	72.5197
 0.7840	72.5158
 0.7830	72.5302
 0.7820	72.5265
 0.7810	72.5502
 0.7800	72.5090
 0.7790	72.5023
 0.7780	72.4668
 0.7770	72.5119
 0.7760	72.4927
 0.7750	72.5082
 0.7740	72.4909
 0.7730	72.4691
 0.7720	72.4921
 0.7710	72.4781
 0.7700	72.5329
 0.7690	72.4802
 0.7680	72.4965
 0.7670	72.4817
 0.7660	72.4905
 0.7650	72.5390
 0.7640	72.4813
 0.7630	72.4886
 0.7620	72.4970
 0.7610	72.4874
 0.7600	72.4718
 0.7590	72.5029
 0.7580	72.4952
 0.7570	72.4709
 0.7560	72.4939
 0.7550	72.4907
 0.7540	72.4416
 0.7530	72.4785
 0.7520	72.4644
 0.7510	72.5081
 0.7500	72.4783
 0.7490	72.4693
 0.7480	72.4935
 0.7470	72.4706
 0.7460	72.4607
 0.7450	72.4395
 0.7440	72.4810
 0.7430	72.4443
 0.7420	72.4716
 0.7410	72.4672
 0.7400	72.4479
 0.7390	72.4637
 0.7380	72.4598
 0.7370	72.4721
 0.7360	72.4684
 0.7350	72.4500
 0.7340	72.4668
 0.7330	72.4523
 0.7320	72.4453
 0.7310	72.4271
 0.7300	72.4508
 0.7290	72.4475
 0.7280	72.4429
 0.7270	72.4596
 0.7260	72.4425
 0.7250	72.4077
 0.7240	72.4433
 0.7230	72.4389
 0.7220	72.4169
 0.7210	72.4241
 0.7200	72.4187
 0.7190	72.4201
 0.7180	72.4283
 0.7170	72.4168
 0.7160	72.4049
 0.7150	72.4066
 0.7140	72.3947
 0.7130	72.3804
 0.7120	72.3741
 0.7110	72.3872
 0.7100	72.3853
 0.7090	72.3613
 0.7080	72.3711
 0.7070	72.3629
 0.7060	72.3557
 0.7050	72.3696
 0.7040	72.3593
 0.7030	72.3424
 0.7020	72.3429
 0.7010	72.3571
 0.7000	72.3485
 0.6990	72.3454
 0.6980	72.3604
 0.6970	72.3464
 0.6960	72.3332
 0.6950	72.3318
 0.6940	72.3336
 0.6930	72.3351
 0.6920	72.3141
 0.6910	72.3135
 0.6900	72.3223
 0.6890	72.3096
 0.6880	72.2993
 0.6870	72.2966
 0.6860	72.2843
 0.6850	72.2937
 0.6840	72.2930
 0.6830	72.2808
 0.6820	72.2801
 0.6810	72.2818
 0.6800	72.2660
 0.6790	72.2712
 0.6780	72.2690
 0.6770	72.2589
 0.6760	72.2668
 0.6750	72.2692
 0.6740	72.2626
 0.6730	72.2688
 0.6720	72.2627
 0.6710	72.2511
 0.6700	72.2548
 0.6690	72.2421
 0.6680	72.2344
 0.6670	72.2264
 0.6660	72.2171
 0.6650	72.2152
 0.6640	72.2210
 0.6630	72.2147
 0.6620	72.2133
 0.6610	72.2179
 0.6600	72.2152
 0.6590	72.2208
 0.6580	72.2061
 0.6570	72.1986
 0.6560	72.2072
 0.6550	72.2205
 0.6540	72.2248
 0.6530	72.2100
 0.6520	72.2044
 0.6510	72.2078
 0.6500	72.1894
 0.6490	72.1773
 0.6480	72.1846
 0.6470	72.1834
 0.6460	72.1791
 0.6450	72.1784
 0.6440	72.1735
 0.6430	72.1781
 0.6420	72.1845
 0.6410	72.1791
 0.6400	72.1705
 0.6390	72.1616
 0.6380	72.1613
 0.6370	72.1541
 0.6360	72.1404
 0.6350	72.1475
 0.6340	72.1543
 0.6330	72.1544
 0.6320	72.1526
 0.6310	72.1434
 0.6300	72.1459
 0.6290	72.1531
 0.6280	72.1380
 0.6270	72.1494
 0.6260	72.1517
 0.6250	72.1307
 0.6240	72.1244
 0.6230	72.1263
 0.6220	72.1132
 0.6210	72.1073
 0.6200	72.1114
 0.6190	72.1016
 0.6180	72.0938
 0.6170	72.0974
 0.6160	72.1038
 0.6150	72.1019
 0.6140	72.0905
 0.6130	72.0963
 0.6120	72.1001
 0.6110	72.0889
 0.6100	72.0717
 0.6090	72.0654
 0.6080	72.0670
 0.6070	72.0556
 0.6060	72.0603
 0.6050	72.0622
 0.6040	72.0394
 0.6030	72.0336
 0.6020	72.0401
 0.6010	72.0355
 0.6000	72.0270
 0.5990	72.0369
 0.5980	72.0426
 0.5970	72.0588
 0.5960	72.0718
 0.5950	72.0600
 0.5940	72.0451
 0.5930	72.0413
 0.5920	72.0361
 0.5910	72.0295
 0.5900	72.0180
 0.5890	71.9928
 0.5880	71.9749
 0.5870	71.9753
 0.5860	71.9548
 0.5850	71.9447
 0.5840	71.9419
 0.5830	71.9230
 0.5820	71.9087
 0.5810	71.8939
 0.5800	71.8765
 0.5790	71.8557
 0.5780	71.8289
 0.5770	71.8158
 0.5760	71.8003
 0.5750	71.7632
 0.5740	71.7450
 0.5730	71.7365
 0.5720	71.7269
 0.5710	71.7131
 0.5700	71.6694
 0.5690	71.6578
 0.5680	71.6272
 0.5670	71.6078
 0.5660	71.5847
 0.5650	71.5572
 0.5640	71.5341
 0.5630	71.5192
 0.5620	71.5000
 0.5610	71.3934
 0.5600	71.3360
 0.5590	71.3209
 0.5580	71.2842
 0.5570	71.2517
 0.5560	71.2246
 0.5550	71.1942
 0.5540	71.1762
 0.5530	71.1378
 0.5520	71.1032
 0.5510	71.0775
 0.5500	71.0683
 0.5490	71.0131
 0.5480	70.9782
 0.5470	70.9437
 0.5460	70.9087
 0.5450	70.8904
 0.5440	70.8660
 0.5430	70.8269
 0.5420	70.8087
 0.5410	70.7752
 0.5400	70.7382
 0.5390	70.7240
 0.5380	70.6892
 0.5370	70.6600
 0.5360	70.6313
 0.5350	70.5947
 0.5340	70.5720
 0.5330	70.5544
 0.5320	70.5123
 0.5310	70.4982
 0.5300	70.4674
 0.5290	70.4285
 0.5280	70.4110
 0.5270	70.3903
 0.5260	70.3729
 0.5250	70.3313
 0.5240	70.2955
 0.5230	70.2676
 0.5220	70.2350
 0.5210	70.2079
 0.5200	70.1807
 0.5190	70.1472
 0.5180	70.1293
 0.5170	70.0958
 0.5160	70.0429
 0.5150	70.0040
 0.5140	69.9670
 0.5130	69.9237
 0.5120	69.8904
 0.5110	69.8530
 0.5100	69.7957
 0.5090	69.7470
 0.5080	69.7078
 0.5070	69.6543
 0.5060	69.6038
 0.5050	69.5768
 0.5040	69.5159
 0.5030	69.4550
 0.5020	69.4140
 0.5010	69.3479
 0.5000	69.2788
 0.4990	69.2141
 0.4980	69.1658
 0.4970	69.1095
 0.4960	69.0291
 0.4950	68.9713
 0.4940	68.8914
 0.4930	68.8441
 0.4920	68.7649
 0.4910	68.6906
 0.4900	68.6196
 0.4890	68.5405
 0.4880	68.4543
 0.4870	68.3656
 0.4860	68.3128
 0.4850	68.2291
 0.4840	68.1564
 0.4830	68.0861
 0.4820	68.0564
 0.4810	68.0267
 0.4800	68.0342
 0.4790	68.0199
 0.4780	68.0101
 0.4770	67.9895
 0.4760	67.9598
 0.4750	67.9127
 0.4740	67.8718
 0.4730	67.8077
 0.4720	67.7591
 0.4710	67.7211
 0.4700	67.6637
 0.4690	67.6191
 0.4680	67.5627
 0.4670	67.5129
 0.4660	67.4403
 0.4650	67.3706
 0.4640	67.3220
 0.4630	67.2399
 0.4620	67.1775
 0.4610	67.0804
 0.4600	67.0060
 0.4590	66.9231
 0.4580	66.8287
 0.4570	66.7482
 0.4560	66.6336
 0.4550	66.5412
 0.4540	66.4602
 0.4530	66.3454
 0.4520	66.2263
 0.4510	66.0880
 0.4500	65.9943
 0.4490	65.8425
 0.4480	65.7533
 0.4470	65.6275
 0.4460	65.5228
 0.4450	65.3956
 0.4440	65.2878
 0.4430	65.1887
 0.4420	65.1091
 0.4410	65.0179
 0.4400	64.9263
 0.4390	64.8356
 0.4380	64.7268
 0.4370	64.6521
 0.4360	64.5261
 0.4350	64.4399
 0.4340	64.3171
 0.4330	64.2264
 0.4320	64.1255
 0.4310	64.0121
 0.4300	63.9067
 0.4290	63.7832
 0.4280	63.6808
 0.4270	63.5772
 0.4260	63.4615
 0.4250	63.3339
 0.4240	63.2146
 0.4230	63.1193
 0.4220	62.9986
 0.4210	62.8953
 0.4200	62.8099
 0.4190	62.7127
 0.4180	62.6209
 0.4170	62.5473
 0.4160	62.4764
 0.4150	62.4262
 0.4140	62.3729
 0.4130	62.3129
 0.4120	62.2615
 0.4110	62.2092
 0.4100	62.1614
 0.4090	62.0831
 0.4080	62.0236
 0.4070	61.9713
 0.4060	61.8936
 0.4050	61.8169
 0.4040	61.7096
 0.4030	61.6254
 0.4020	61.5318
 0.4010	61.4412
 0.4000	61.3143
