Name: Plumbojarosite PbFe_3^3+(SO_4)_4(OH)_12
Type: Mineral
Class: Sulfate
Subclass: None
Particle Size: Medium
Sample No.: SO-7B
Owner: JPL
Wavelength Range: VSWIR
Origin: Mexico, Hidalgo, Zimapan, Lomo De Toro Mine
Collection Date: N/A
Description: Particle size was 45-125um.Collected by Burminco Original ASTER Spectral Library name was jpl.beckman.mineral.sulfate.none.medium.so07b.spectrum.txt
Measurement: Hemispherical reflectance
First Column: X
Second Column: Y
X Units: Wavelength (micrometers)
Y Units:Reflectance (percent)
First X Value:  0.4000
Last X Value:  2.5000
Number of X Values: 826
Additional Information: mineral.sulfate.none.medium.vswir.so-7b.jpl.beckman.ancillary.txt

 0.4000	 4.6700
 0.4010	 4.7500
 0.4020	 4.8700
 0.4030	 5.0300
 0.4040	 4.9700
 0.4050	 5.0900
 0.4060	 5.2600
 0.4070	 5.3800
 0.4080	 5.5100
 0.4090	 5.5700
 0.4100	 5.6200
 0.4110	 5.8100
 0.4120	 5.8700
 0.4130	 5.9800
 0.4140	 6.0300
 0.4150	 6.1000
 0.4160	 6.2900
 0.4170	 6.3600
 0.4180	 6.4600
 0.4190	 6.5100
 0.4200	 6.5700
 0.4210	 6.7000
 0.4220	 6.7000
 0.4230	 6.8700
 0.4240	 6.8600
 0.4250	 6.9100
 0.4260	 6.9800
 0.4270	 6.9900
 0.4280	 7.0600
 0.4290	 7.1800
 0.4300	 7.1800
 0.4310	 7.2400
 0.4320	 7.3400
 0.4330	 7.3500
 0.4340	 7.4600
 0.4350	 7.4600
 0.4360	 7.5300
 0.4370	 7.5900
 0.4380	 7.6500
 0.4390	 7.8900
 0.4400	 7.8800
 0.4410	 8.1200
 0.4420	 8.2300
 0.4430	 8.3900
 0.4440	 8.5700
 0.4450	 8.6300
 0.4460	 8.8800
 0.4470	 9.0000
 0.4480	 9.1300
 0.4490	 9.3500
 0.4500	 9.4900
 0.4510	 9.6700
 0.4520	 9.7300
 0.4530	 9.8400
 0.4540	10.0600
 0.4550	10.1600
 0.4560	10.3000
 0.4570	10.3800
 0.4580	10.4100
 0.4590	10.5200
 0.4600	10.5700
 0.4610	10.7600
 0.4620	10.9000
 0.4630	10.9600
 0.4640	11.0400
 0.4650	11.1300
 0.4660	11.1500
 0.4670	11.2600
 0.4680	11.3300
 0.4690	11.3600
 0.4700	11.4600
 0.4710	11.5700
 0.4720	11.6900
 0.4730	11.7900
 0.4740	11.9100
 0.4750	11.9900
 0.4760	12.0200
 0.4770	12.2000
 0.4780	12.2300
 0.4790	12.3800
 0.4800	12.5300
 0.4810	12.5600
 0.4820	12.7300
 0.4830	12.8500
 0.4840	12.9800
 0.4850	13.0800
 0.4860	13.1600
 0.4870	13.3300
 0.4880	13.4500
 0.4890	13.5600
 0.4900	13.7100
 0.4910	13.7400
 0.4920	13.9800
 0.4930	14.0800
 0.4940	14.2300
 0.4950	14.3900
 0.4960	14.4800
 0.4970	14.6500
 0.4980	14.8200
 0.4990	14.9700
 0.5000	15.1400
 0.5010	15.2400
 0.5020	15.5200
 0.5030	15.6900
 0.5040	15.7800
 0.5050	16.0000
 0.5060	16.0700
 0.5070	16.3400
 0.5080	16.5300
 0.5090	16.6500
 0.5100	16.9000
 0.5110	17.0800
 0.5120	17.2700
 0.5130	17.4500
 0.5140	17.6700
 0.5150	17.8800
 0.5160	18.0600
 0.5170	18.3700
 0.5180	18.5700
 0.5190	18.7100
 0.5200	18.9700
 0.5210	19.1100
 0.5220	19.4600
 0.5230	19.7000
 0.5240	19.8900
 0.5250	20.1700
 0.5260	20.3400
 0.5270	20.6100
 0.5280	20.9300
 0.5290	21.0700
 0.5300	21.3400
 0.5310	21.5600
 0.5320	21.9000
 0.5330	22.0900
 0.5340	22.3000
 0.5350	22.5800
 0.5360	22.8300
 0.5370	23.1300
 0.5380	23.4300
 0.5390	23.6200
 0.5400	23.9600
 0.5410	24.1900
 0.5420	24.5000
 0.5430	24.7700
 0.5440	25.0300
 0.5450	25.3400
 0.5460	25.5700
 0.5470	25.8800
 0.5480	26.1200
 0.5490	26.3100
 0.5500	26.6900
 0.5510	26.8700
 0.5520	27.2000
 0.5530	27.4600
 0.5540	27.6900
 0.5550	28.0100
 0.5560	28.1900
 0.5570	28.4000
 0.5580	28.7200
 0.5590	28.6700
 0.5600	28.8200
 0.5610	29.6000
 0.5620	29.8900
 0.5630	30.0100
 0.5640	30.3200
 0.5650	30.4900
 0.5660	30.6800
 0.5670	30.9700
 0.5680	31.1200
 0.5690	31.3600
 0.5700	31.6100
 0.5710	31.7400
 0.5720	32.0200
 0.5730	32.1000
 0.5740	32.2800
 0.5750	32.4100
 0.5760	32.6200
 0.5770	32.9000
 0.5780	33.0000
 0.5790	33.2100
 0.5800	33.3500
 0.5810	33.5400
 0.5820	33.6900
 0.5830	33.8000
 0.5840	34.0200
 0.5850	34.1800
 0.5860	34.3000
 0.5870	34.4700
 0.5880	34.6500
 0.5890	34.7500
 0.5900	34.8000
 0.5910	34.9800
 0.5920	35.1700
 0.5930	35.3000
 0.5940	35.5100
 0.5950	35.5900
 0.5960	35.6200
 0.5970	35.8500
 0.5980	36.0800
 0.5990	36.1100
 0.6000	36.2500
 0.6010	36.3900
 0.6020	36.5800
 0.6030	36.6900
 0.6040	36.7600
 0.6050	37.0100
 0.6060	37.0300
 0.6070	37.1900
 0.6080	37.3200
 0.6090	37.4100
 0.6100	37.5900
 0.6110	37.6300
 0.6120	37.8000
 0.6130	37.9000
 0.6140	37.9500
 0.6150	38.1100
 0.6160	38.1700
 0.6170	38.3300
 0.6180	38.4300
 0.6190	38.4400
 0.6200	38.6600
 0.6210	38.6500
 0.6220	38.8600
 0.6230	38.9500
 0.6240	39.0400
 0.6250	39.2600
 0.6260	39.3300
 0.6270	39.4200
 0.6280	39.5300
 0.6290	39.5800
 0.6300	39.7100
 0.6310	39.8100
 0.6320	39.9600
 0.6330	40.0600
 0.6340	40.0600
 0.6350	40.3000
 0.6360	40.4400
 0.6370	40.5500
 0.6380	40.6100
 0.6390	40.6900
 0.6400	40.7800
 0.6410	40.9200
 0.6420	41.0100
 0.6430	41.1100
 0.6440	41.1500
 0.6450	41.2400
 0.6460	41.4500
 0.6470	41.5500
 0.6480	41.7400
 0.6490	41.7400
 0.6500	41.8200
 0.6510	42.0000
 0.6520	42.0400
 0.6530	42.1800
 0.6540	42.1200
 0.6550	42.3000
 0.6560	42.4900
 0.6570	42.6700
 0.6580	42.7000
 0.6590	42.7100
 0.6600	42.8600
 0.6610	43.0300
 0.6620	43.2400
 0.6630	43.3000
 0.6640	43.3000
 0.6650	43.4200
 0.6660	43.5300
 0.6670	43.7300
 0.6680	43.7800
 0.6690	43.8700
 0.6700	43.9700
 0.6710	44.0000
 0.6720	44.1800
 0.6730	44.3000
 0.6740	44.3600
 0.6750	44.5600
 0.6760	44.6800
 0.6770	44.7300
 0.6780	44.7900
 0.6790	44.8500
 0.6800	45.0500
 0.6810	45.1100
 0.6820	45.3700
 0.6830	45.3400
 0.6840	45.3700
 0.6850	45.5700
 0.6860	45.6200
 0.6870	45.7700
 0.6880	45.8800
 0.6890	45.9400
 0.6900	46.0900
 0.6910	46.1100
 0.6920	46.2900
 0.6930	46.3200
 0.6940	46.4300
 0.6950	46.5800
 0.6960	46.6300
 0.6970	46.6900
 0.6980	46.9200
 0.6990	46.9800
 0.7000	47.0100
 0.7010	47.0400
 0.7020	47.4100
 0.7030	47.4600
 0.7040	47.6100
 0.7050	47.6400
 0.7060	47.6900
 0.7070	47.9000
 0.7080	47.9500
 0.7090	48.0700
 0.7100	48.0700
 0.7110	48.2100
 0.7120	48.2800
 0.7130	48.3300
 0.7140	48.5900
 0.7150	48.5900
 0.7160	48.7300
 0.7170	48.8200
 0.7180	48.7600
 0.7190	48.8500
 0.7200	48.9300
 0.7210	49.1000
 0.7220	49.1900
 0.7230	49.1600
 0.7240	49.2200
 0.7250	49.1600
 0.7260	49.3000
 0.7270	49.4200
 0.7280	49.4500
 0.7290	49.5100
 0.7300	49.5100
 0.7310	49.5600
 0.7320	49.5900
 0.7330	49.6800
 0.7340	49.6600
 0.7350	49.6200
 0.7360	49.7400
 0.7370	49.7400
 0.7380	49.7600
 0.7390	49.6500
 0.7400	49.6500
 0.7410	49.8500
 0.7420	49.8200
 0.7430	49.8000
 0.7440	49.7700
 0.7450	49.7700
 0.7460	49.8200
 0.7470	49.7600
 0.7480	49.7900
 0.7490	49.7300
 0.7500	49.7000
 0.7510	49.7300
 0.7520	49.5900
 0.7530	49.6200
 0.7540	49.5600
 0.7550	49.5300
 0.7560	49.5000
 0.7570	49.4200
 0.7580	49.4200
 0.7590	49.3600
 0.7600	49.2400
 0.7610	49.2200
 0.7620	49.0400
 0.7630	49.0400
 0.7640	49.0100
 0.7650	48.8900
 0.7660	48.8500
 0.7670	48.7300
 0.7680	48.7000
 0.7690	48.6400
 0.7700	48.5600
 0.7710	48.5900
 0.7720	48.3600
 0.7730	48.2700
 0.7740	48.1800
 0.7750	48.0100
 0.7760	47.9500
 0.7770	47.8900
 0.7780	47.8100
 0.7790	47.7200
 0.7800	47.5500
 0.7810	47.4900
 0.7820	47.3500
 0.7830	47.3200
 0.7840	47.2300
 0.7850	47.1000
 0.7860	47.0100
 0.7870	46.9000
 0.7880	46.8100
 0.7890	46.6400
 0.7900	46.4700
 0.7910	46.4700
 0.7920	46.2900
 0.7930	46.2000
 0.7940	46.0900
 0.7950	45.8600
 0.7960	45.8600
 0.7970	45.6900
 0.7980	45.6500
 0.7990	45.5900
 0.8000	45.6800
 0.8040	45.2100
 0.8080	44.7900
 0.8120	44.3100
 0.8160	43.9000
 0.8200	43.4600
 0.8240	43.0400
 0.8280	42.5800
 0.8320	42.2300
 0.8360	41.8300
 0.8400	41.4600
 0.8440	41.1100
 0.8480	40.8600
 0.8520	40.5800
 0.8560	40.2400
 0.8600	40.0600
 0.8640	39.7600
 0.8680	39.5400
 0.8720	39.3300
 0.8760	39.1200
 0.8800	38.9400
 0.8840	38.7200
 0.8880	38.6400
 0.8920	38.4800
 0.8960	38.3700
 0.9000	38.2500
 0.9040	38.1800
 0.9080	38.1800
 0.9120	38.0700
 0.9160	38.0300
 0.9200	38.0100
 0.9240	37.9700
 0.9280	37.9500
 0.9320	38.0200
 0.9360	38.0300
 0.9400	38.0600
 0.9440	38.0600
 0.9480	38.1800
 0.9520	38.1800
 0.9560	38.3000
 0.9600	38.3600
 0.9640	38.4200
 0.9680	38.6000
 0.9720	38.6600
 0.9760	38.7700
 0.9800	38.8800
 0.9840	39.0200
 0.9880	39.1600
 0.9920	39.3600
 0.9960	39.5100
 1.0000	39.6800
 1.0040	39.9800
 1.0080	40.2100
 1.0120	40.4300
 1.0160	40.6500
 1.0200	40.9800
 1.0240	41.2000
 1.0280	41.4900
 1.0320	41.7300
 1.0360	42.0300
 1.0400	42.3300
 1.0440	42.6700
 1.0480	42.9700
 1.0520	43.2700
 1.0560	43.6000
 1.0600	44.0000
 1.0640	44.2600
 1.0680	44.6900
 1.0720	45.0600
 1.0760	45.4500
 1.0800	45.8300
 1.0840	46.1900
 1.0880	46.6000
 1.0920	46.9800
 1.0960	47.3800
 1.1000	47.7900
 1.1040	48.2200
 1.1080	48.6600
 1.1120	49.1200
 1.1160	49.5700
 1.1200	50.1200
 1.1240	50.5500
 1.1280	51.0400
 1.1320	51.4400
 1.1360	51.9000
 1.1400	52.4000
 1.1440	52.8700
 1.1480	53.3500
 1.1520	53.8400
 1.1560	54.2800
 1.1600	54.7100
 1.1640	55.1700
 1.1680	55.6600
 1.1720	56.1500
 1.1760	56.5800
 1.1800	57.1500
 1.1840	57.5600
 1.1880	58.0200
 1.1920	58.3900
 1.1960	58.8300
 1.2000	59.3200
 1.2040	59.8400
 1.2080	60.1700
 1.2120	60.6000
 1.2160	61.0200
 1.2200	61.3400
 1.2240	61.8100
 1.2280	62.2000
 1.2320	62.6400
 1.2360	62.9900
 1.2400	63.2100
 1.2440	63.6300
 1.2480	64.0800
 1.2520	64.4000
 1.2560	64.7600
 1.2600	65.0800
 1.2640	65.3800
 1.2680	65.7300
 1.2720	65.9600
 1.2760	66.1600
 1.2800	66.6200
 1.2840	66.8400
 1.2880	67.1600
 1.2920	67.3300
 1.2960	67.6700
 1.3000	67.8700
 1.3040	68.1500
 1.3080	68.4300
 1.3120	68.5600
 1.3160	68.8200
 1.3200	69.0600
 1.3240	69.2600
 1.3280	69.3800
 1.3320	69.6700
 1.3360	69.8400
 1.3400	70.0100
 1.3440	70.2400
 1.3480	70.3400
 1.3520	70.5900
 1.3560	70.7200
 1.3600	70.8400
 1.3640	70.9700
 1.3680	71.0800
 1.3720	71.2500
 1.3760	71.3400
 1.3800	71.3900
 1.3840	71.5500
 1.3880	71.5800
 1.3920	71.6500
 1.3960	71.6200
 1.4000	71.5600
 1.4040	71.5300
 1.4080	71.5200
 1.4120	71.4700
 1.4160	71.3800
 1.4200	71.4000
 1.4240	71.2900
 1.4280	71.2400
 1.4320	71.1800
 1.4360	71.0900
 1.4400	70.8400
 1.4440	70.6800
 1.4480	70.4400
 1.4520	70.1400
 1.4560	69.9100
 1.4600	69.5500
 1.4640	69.4100
 1.4680	69.3100
 1.4720	69.2100
 1.4760	69.2500
 1.4800	69.3100
 1.4840	69.5800
 1.4880	69.9600
 1.4920	70.2100
 1.4960	70.4100
 1.5000	70.6200
 1.5040	70.6600
 1.5080	70.8100
 1.5120	70.8200
 1.5160	70.8800
 1.5200	70.8600
 1.5240	70.9100
 1.5280	70.8600
 1.5320	70.9800
 1.5360	71.0700
 1.5400	71.1400
 1.5440	71.1100
 1.5480	71.2400
 1.5520	71.3000
 1.5560	71.4300
 1.5600	71.4900
 1.5640	71.6200
 1.5680	71.7600
 1.5720	71.8800
 1.5760	71.9600
 1.5800	72.0100
 1.5840	72.0000
 1.5880	72.1700
 1.5920	72.1800
 1.5960	72.2400
 1.6000	72.3300
 1.6040	72.4000
 1.6080	72.3500
 1.6120	72.3900
 1.6160	72.4200
 1.6200	72.4600
 1.6240	72.4400
 1.6280	72.5500
 1.6320	72.5300
 1.6360	72.5300
 1.6400	72.6100
 1.6440	72.6200
 1.6480	72.6600
 1.6520	72.6900
 1.6560	72.6600
 1.6600	72.7500
 1.6640	72.8100
 1.6680	72.7900
 1.6720	72.8500
 1.6760	72.8200
 1.6800	72.8100
 1.6840	72.8200
 1.6880	72.8100
 1.6920	72.8300
 1.6960	72.9000
 1.7000	72.8600
 1.7040	72.8700
 1.7080	72.8700
 1.7120	72.8700
 1.7160	72.8900
 1.7200	72.8300
 1.7240	72.8500
 1.7280	72.7900
 1.7320	72.7100
 1.7360	72.6800
 1.7400	72.6500
 1.7440	72.6000
 1.7480	72.5000
 1.7520	72.4800
 1.7560	72.4400
 1.7600	72.3900
 1.7640	72.3500
 1.7680	72.2800
 1.7720	72.2000
 1.7760	72.1900
 1.7800	72.1500
 1.7840	72.0300
 1.7880	72.0100
 1.7920	71.9500
 1.7960	71.9400
 1.8000	71.8000
 1.8040	71.6800
 1.8080	71.5500
 1.8120	71.3500
 1.8160	71.1000
 1.8200	70.7400
 1.8240	70.3200
 1.8280	69.9500
 1.8320	69.5700
 1.8360	69.3700
 1.8400	69.2600
 1.8440	69.3100
 1.8480	69.3900
 1.8520	69.3000
 1.8560	69.3300
 1.8600	69.3200
 1.8640	69.2300
 1.8680	69.2400
 1.8720	69.3100
 1.8760	69.3000
 1.8800	69.4000
 1.8840	69.4800
 1.8880	69.4800
 1.8920	69.5600
 1.8960	69.5200
 1.9000	69.3000
 1.9040	69.1200
 1.9080	68.8700
 1.9120	68.5700
 1.9160	68.2800
 1.9200	68.0200
 1.9240	67.8400
 1.9280	67.6300
 1.9320	67.4900
 1.9360	67.4400
 1.9400	67.3900
 1.9440	67.2700
 1.9480	67.3600
 1.9520	67.4100
 1.9560	67.3900
 1.9600	67.5000
 1.9640	67.5100
 1.9680	67.5400
 1.9720	67.6400
 1.9760	67.6600
 1.9800	67.6300
 1.9840	67.7800
 1.9880	67.8200
 1.9920	67.8400
 1.9960	67.8900
 2.0000	67.9300
 2.0040	67.8600
 2.0080	67.7800
 2.0120	67.8200
 2.0160	67.8000
 2.0200	67.7400
 2.0240	67.6300
 2.0280	67.6100
 2.0320	67.6300
 2.0360	67.6700
 2.0400	67.6400
 2.0440	67.5600
 2.0480	67.5800
 2.0520	67.5500
 2.0560	67.6400
 2.0600	67.7100
 2.0640	67.7300
 2.0680	67.8600
 2.0720	67.9000
 2.0760	67.9600
 2.0800	67.9900
 2.0840	68.0600
 2.0880	68.0200
 2.0920	68.0300
 2.0960	68.0300
 2.1000	67.9400
 2.1040	67.9600
 2.1080	67.9900
 2.1120	68.0000
 2.1160	67.9100
 2.1200	67.9300
 2.1240	67.7800
 2.1280	67.6600
 2.1320	67.5200
 2.1360	67.3100
 2.1400	67.1300
 2.1440	66.9200
 2.1480	66.7100
 2.1520	66.3900
 2.1560	66.2100
 2.1600	65.8500
 2.1640	65.6200
 2.1680	65.3200
 2.1720	65.0200
 2.1760	64.7600
 2.1800	64.3700
 2.1840	63.9300
 2.1880	63.5000
 2.1920	63.1400
 2.1960	62.7700
 2.2000	62.4300
 2.2040	61.8500
 2.2080	61.4100
 2.2120	60.8700
 2.2160	60.3000
 2.2200	59.6900
 2.2240	59.0100
 2.2280	58.3900
 2.2320	57.5000
 2.2360	56.7300
 2.2400	55.9800
 2.2440	55.4300
 2.2480	54.8400
 2.2520	54.4500
 2.2560	54.0800
 2.2600	53.7900
 2.2640	53.5000
 2.2680	53.2600
 2.2720	53.1000
 2.2760	52.9500
 2.2800	52.8500
 2.2840	52.8200
 2.2880	53.0000
 2.2920	53.2500
 2.2960	53.5200
 2.3000	53.8500
 2.3040	54.1700
 2.3080	54.6900
 2.3120	55.0900
 2.3160	55.5100
 2.3200	55.8300
 2.3240	56.1000
 2.3280	56.4300
 2.3320	56.6400
 2.3360	56.7600
 2.3400	56.8200
 2.3440	56.7700
 2.3480	56.6600
 2.3520	56.4400
 2.3560	56.2100
 2.3600	55.8800
 2.3640	55.5000
 2.3680	55.0500
 2.3720	54.5400
 2.3760	54.0600
 2.3800	53.4800
 2.3840	52.8900
 2.3880	52.3500
 2.3920	51.8200
 2.3960	51.3100
 2.4000	50.9500
 2.4040	50.6800
 2.4080	50.3800
 2.4120	50.2500
 2.4160	50.1300
 2.4200	50.0900
 2.4240	50.0800
 2.4280	50.1800
 2.4320	50.2900
 2.4360	50.4500
 2.4400	50.5200
 2.4440	50.7000
 2.4480	50.8500
 2.4520	51.0000
 2.4560	51.0900
 2.4600	51.1600
 2.4640	51.2600
 2.4680	51.2500
 2.4720	51.1700
 2.4760	51.0300
 2.4800	51.0100
 2.4840	50.7600
 2.4880	50.5300
 2.4920	50.2800
 2.4960	50.0400
 2.5000	49.8100
