Name: Scorodite Fe^3+AsO_4.2H_2O
Type: Mineral
Class: Arsenate
Subclass: None
Particle Size: Medium
Sample No.: A-2A
Owner: JPL
Wavelength Range: VSWIR
Origin: USA, Utah, Tooele County, Gold Hill.
Collection Date: N/A
Description: Particle size was 45-125um.Collected by:  Ward's Original ASTER Spectral Library name was jpl.perkin.mineral.arsenate.none.medium.a02a.spectrum.txt
Measurement: Hemispherical reflectance
First Column: X
Second Column: Y
X Units: Wavelength (micrometers)
Y Units:Reflectance (percent)
First X Value:  2.5000
Last X Value:  0.4000
Number of X Values: 2101
Additional Information: mineral.arsenate.none.medium.vswir.a-2a.jpl.perkin.ancillary.txt

 2.5000	 7.4325
 2.4990	 7.2119
 2.4980	 7.7938
 2.4970	 7.6618
 2.4960	 7.6050
 2.4950	 7.9949
 2.4940	 7.9624
 2.4930	 8.0549
 2.4920	 8.4714
 2.4910	 8.2732
 2.4900	 8.5886
 2.4890	 8.4950
 2.4880	 8.8485
 2.4870	 8.8014
 2.4860	 9.0547
 2.4850	 9.1355
 2.4840	 9.3438
 2.4830	 9.2631
 2.4820	 9.5670
 2.4810	 9.5275
 2.4800	 9.7326
 2.4790	 9.7669
 2.4780	10.0901
 2.4770	 9.9760
 2.4760	10.2398
 2.4750	10.2004
 2.4740	10.5228
 2.4730	10.5460
 2.4720	10.6119
 2.4710	10.7487
 2.4700	10.9457
 2.4690	10.8984
 2.4680	11.2424
 2.4670	11.0925
 2.4660	11.4140
 2.4650	11.3309
 2.4640	11.6845
 2.4630	11.6102
 2.4620	11.8454
 2.4610	11.7554
 2.4600	11.9709
 2.4590	11.9642
 2.4580	12.1938
 2.4570	12.2312
 2.4560	12.4141
 2.4550	12.4556
 2.4540	12.4641
 2.4530	12.5165
 2.4520	12.6836
 2.4510	12.6171
 2.4500	12.8640
 2.4490	12.8136
 2.4480	13.1233
 2.4470	13.0383
 2.4460	13.2044
 2.4450	13.1806
 2.4440	13.3654
 2.4430	13.3085
 2.4420	13.5073
 2.4410	13.4445
 2.4400	13.6336
 2.4390	13.6019
 2.4380	13.8129
 2.4370	13.7089
 2.4360	13.8998
 2.4350	13.8927
 2.4340	13.9945
 2.4330	13.9622
 2.4320	14.1205
 2.4310	14.1178
 2.4300	14.3352
 2.4290	14.2320
 2.4280	14.4029
 2.4270	14.3865
 2.4260	14.5446
 2.4250	14.5873
 2.4240	14.7132
 2.4230	14.7406
 2.4220	14.8526
 2.4210	14.8296
 2.4200	14.9512
 2.4190	14.9533
 2.4180	15.1165
 2.4170	15.1773
 2.4160	15.3266
 2.4150	15.2662
 2.4140	15.3864
 2.4130	15.4260
 2.4120	15.4551
 2.4110	15.5472
 2.4100	15.6949
 2.4090	15.6851
 2.4080	15.7516
 2.4070	15.7998
 2.4060	15.9034
 2.4050	15.9101
 2.4040	16.0942
 2.4030	16.0389
 2.4020	16.1662
 2.4010	16.2083
 2.4000	16.2482
 2.3990	16.3284
 2.3980	16.4616
 2.3970	16.4071
 2.3960	16.5565
 2.3950	16.5988
 2.3940	16.6565
 2.3930	16.6772
 2.3920	16.8060
 2.3910	16.8420
 2.3900	16.9320
 2.3890	16.9671
 2.3880	17.0622
 2.3870	17.0797
 2.3860	17.1342
 2.3850	17.1464
 2.3840	17.2459
 2.3830	17.2474
 2.3820	17.2763
 2.3810	17.3774
 2.3800	17.4662
 2.3790	17.4880
 2.3780	17.5703
 2.3770	17.6127
 2.3760	17.7010
 2.3750	17.7050
 2.3740	17.7089
 2.3730	17.7683
 2.3720	17.8640
 2.3710	17.8347
 2.3700	17.8820
 2.3690	17.9378
 2.3680	17.9870
 2.3670	17.9892
 2.3660	18.0219
 2.3650	18.0294
 2.3640	18.0119
 2.3630	18.0502
 2.3620	18.1740
 2.3610	18.2058
 2.3600	18.1560
 2.3590	18.1106
 2.3580	18.1449
 2.3570	18.1487
 2.3560	18.1501
 2.3550	18.1631
 2.3540	18.1051
 2.3530	18.1407
 2.3520	18.1805
 2.3510	18.1537
 2.3500	18.1726
 2.3490	18.2001
 2.3480	18.1627
 2.3470	18.1183
 2.3460	18.0689
 2.3450	18.0787
 2.3440	18.0359
 2.3430	18.0308
 2.3420	18.0048
 2.3410	17.9849
 2.3400	17.9117
 2.3390	17.8508
 2.3380	17.8024
 2.3370	17.8390
 2.3360	17.8021
 2.3350	17.8508
 2.3340	17.8590
 2.3330	17.8313
 2.3320	17.8092
 2.3310	17.7630
 2.3300	17.7681
 2.3290	17.8039
 2.3280	17.8145
 2.3270	17.8773
 2.3260	17.8862
 2.3250	17.9141
 2.3240	17.9252
 2.3230	18.0443
 2.3220	18.0417
 2.3210	18.0684
 2.3200	18.1228
 2.3190	18.2326
 2.3180	18.3023
 2.3170	18.4080
 2.3160	18.4362
 2.3150	18.4716
 2.3140	18.5812
 2.3130	18.7225
 2.3120	18.8197
 2.3110	18.9939
 2.3100	19.0187
 2.3090	19.1487
 2.3080	19.2152
 2.3070	19.3413
 2.3060	19.4062
 2.3050	19.5247
 2.3040	19.6055
 2.3030	19.7085
 2.3020	19.8144
 2.3010	19.9403
 2.3000	20.0185
 2.2990	20.1582
 2.2980	20.2259
 2.2970	20.3292
 2.2960	20.3768
 2.2950	20.4977
 2.2940	20.5827
 2.2930	20.7244
 2.2920	20.7431
 2.2910	20.8873
 2.2900	20.8161
 2.2890	20.9229
 2.2880	20.9652
 2.2870	21.0238
 2.2860	21.0027
 2.2850	21.0696
 2.2840	21.1330
 2.2830	21.2579
 2.2820	21.1772
 2.2810	21.2962
 2.2800	21.2665
 2.2790	21.3270
 2.2780	21.2556
 2.2770	21.3687
 2.2760	21.3050
 2.2750	21.3883
 2.2740	21.2817
 2.2730	21.4114
 2.2720	21.3210
 2.2710	21.3609
 2.2700	21.3120
 2.2690	21.4296
 2.2680	21.3708
 2.2670	21.4427
 2.2660	21.3231
 2.2650	21.4326
 2.2640	21.3915
 2.2630	21.4684
 2.2620	21.4171
 2.2610	21.4901
 2.2600	21.4248
 2.2590	21.4525
 2.2580	21.3585
 2.2570	21.5018
 2.2560	21.4163
 2.2550	21.5091
 2.2540	21.4265
 2.2530	21.4896
 2.2520	21.3103
 2.2510	21.4348
 2.2500	21.3709
 2.2490	21.3951
 2.2480	21.3420
 2.2470	21.4574
 2.2460	21.3427
 2.2450	21.3591
 2.2440	21.2771
 2.2430	21.3401
 2.2420	21.2342
 2.2410	21.3286
 2.2400	21.2147
 2.2390	21.1399
 2.2380	21.1281
 2.2370	21.1263
 2.2360	21.0182
 2.2350	21.1206
 2.2340	20.9472
 2.2330	20.9728
 2.2320	20.8110
 2.2310	20.8773
 2.2300	20.7314
 2.2290	20.8591
 2.2280	20.5999
 2.2270	20.6572
 2.2260	20.5161
 2.2250	20.5581
 2.2240	20.3929
 2.2230	20.4828
 2.2220	20.3109
 2.2210	20.4578
 2.2200	20.2775
 2.2190	20.3172
 2.2180	20.2079
 2.2170	20.1827
 2.2160	20.0143
 2.2150	20.1473
 2.2140	19.9763
 2.2130	19.9571
 2.2120	20.0774
 2.2110	19.7847
 2.2100	19.9412
 2.2090	19.8228
 2.2080	19.6659
 2.2070	19.8176
 2.2060	19.5966
 2.2050	19.7151
 2.2040	19.5133
 2.2030	19.6406
 2.2020	19.4623
 2.2010	19.4479
 2.2000	19.4453
 2.1990	19.4274
 2.1980	19.3060
 2.1970	19.3716
 2.1960	19.2281
 2.1950	19.2210
 2.1940	19.0944
 2.1930	19.1676
 2.1920	18.9798
 2.1910	19.0205
 2.1900	18.8876
 2.1890	19.0478
 2.1880	18.7881
 2.1870	18.8718
 2.1860	18.6830
 2.1850	18.7420
 2.1840	18.6372
 2.1830	18.7086
 2.1820	18.5615
 2.1810	18.6201
 2.1800	18.5422
 2.1790	18.4456
 2.1780	18.3892
 2.1770	18.4537
 2.1760	18.3172
 2.1750	18.3643
 2.1740	18.2784
 2.1730	18.3260
 2.1720	18.2108
 2.1710	18.2722
 2.1700	18.1232
 2.1690	18.1673
 2.1680	18.0614
 2.1670	18.1124
 2.1660	17.9789
 2.1650	18.0145
 2.1640	17.8569
 2.1630	17.9500
 2.1620	17.8779
 2.1610	17.8442
 2.1600	17.7558
 2.1590	17.8421
 2.1580	17.7286
 2.1570	17.7274
 2.1560	17.6794
 2.1550	17.6898
 2.1540	17.5579
 2.1530	17.6557
 2.1520	17.5835
 2.1510	17.5780
 2.1500	17.4491
 2.1490	17.4476
 2.1480	17.4500
 2.1470	17.4591
 2.1460	17.3045
 2.1450	17.2873
 2.1440	17.2614
 2.1430	17.2440
 2.1420	17.2047
 2.1410	17.1636
 2.1400	17.0653
 2.1390	17.0464
 2.1380	17.0027
 2.1370	17.0000
 2.1360	16.9343
 2.1350	16.9553
 2.1340	16.8707
 2.1330	16.8643
 2.1320	16.7572
 2.1310	16.8152
 2.1300	16.7389
 2.1290	16.7077
 2.1280	16.6160
 2.1270	16.6326
 2.1260	16.5680
 2.1250	16.5634
 2.1240	16.5194
 2.1230	16.4464
 2.1220	16.3803
 2.1210	16.3790
 2.1200	16.3178
 2.1190	16.2848
 2.1180	16.2518
 2.1170	16.2954
 2.1160	16.2533
 2.1150	16.2715
 2.1140	16.1583
 2.1130	16.1477
 2.1120	16.0507
 2.1110	16.0436
 2.1100	16.0079
 2.1090	15.9848
 2.1080	15.9257
 2.1070	15.9202
 2.1060	15.9059
 2.1050	15.9472
 2.1040	15.8634
 2.1030	15.8386
 2.1020	15.8616
 2.1010	15.8772
 2.1000	15.8216
 2.0990	15.7635
 2.0980	15.7384
 2.0970	15.8411
 2.0960	15.8065
 2.0950	15.7872
 2.0940	15.7991
 2.0930	15.8459
 2.0920	15.8149
 2.0910	15.8081
 2.0900	15.7839
 2.0890	15.8157
 2.0880	15.8040
 2.0870	15.7859
 2.0860	15.7775
 2.0850	15.8196
 2.0840	15.8042
 2.0830	15.8255
 2.0820	15.8562
 2.0810	15.8850
 2.0800	15.8671
 2.0790	15.8644
 2.0780	15.8463
 2.0770	15.8602
 2.0760	15.8511
 2.0750	15.8757
 2.0740	15.8894
 2.0730	15.8928
 2.0720	15.8738
 2.0710	15.8788
 2.0700	15.9140
 2.0690	15.8870
 2.0680	15.9044
 2.0670	15.9203
 2.0660	15.9176
 2.0650	15.9635
 2.0640	15.9957
 2.0630	15.9580
 2.0620	15.9540
 2.0610	15.9374
 2.0600	15.9797
 2.0590	16.0313
 2.0580	16.0395
 2.0570	16.0451
 2.0560	16.0460
 2.0550	16.1143
 2.0540	16.1500
 2.0530	16.0952
 2.0520	16.1214
 2.0510	16.1239
 2.0500	16.1551
 2.0490	16.1789
 2.0480	16.2193
 2.0470	16.1710
 2.0460	16.1773
 2.0450	16.2230
 2.0440	16.2539
 2.0430	16.2621
 2.0420	16.3192
 2.0410	16.2565
 2.0400	16.2506
 2.0390	16.2544
 2.0380	16.2972
 2.0370	16.2388
 2.0360	16.3176
 2.0350	16.3290
 2.0340	16.3054
 2.0330	16.2551
 2.0320	16.2839
 2.0310	16.2138
 2.0300	16.1972
 2.0290	16.1725
 2.0280	16.1804
 2.0270	16.1458
 2.0260	16.2029
 2.0250	16.0991
 2.0240	15.9867
 2.0230	15.9027
 2.0220	15.9832
 2.0210	15.8950
 2.0200	15.8582
 2.0190	15.7632
 2.0180	15.7402
 2.0170	15.5943
 2.0160	15.5167
 2.0150	15.3780
 2.0140	15.3357
 2.0130	15.1404
 2.0120	15.0604
 2.0110	14.9048
 2.0100	14.9048
 2.0090	14.7353
 2.0080	14.6052
 2.0070	14.4363
 2.0060	14.3893
 2.0050	14.2306
 2.0040	14.1574
 2.0030	14.0067
 2.0020	13.9889
 2.0010	13.8395
 2.0000	13.8495
 1.9990	13.7603
 1.9980	13.7303
 1.9970	13.6595
 1.9960	13.6363
 1.9950	13.5863
 1.9940	13.5996
 1.9930	13.6078
 1.9920	13.6442
 1.9910	13.5830
 1.9900	13.6795
 1.9890	13.6403
 1.9880	13.6820
 1.9870	13.5965
 1.9860	13.6658
 1.9850	13.6254
 1.9840	13.6575
 1.9830	13.5586
 1.9820	13.6615
 1.9810	13.4989
 1.9800	13.5797
 1.9790	13.4637
 1.9780	13.5000
 1.9770	13.3665
 1.9760	13.3823
 1.9750	13.2200
 1.9740	13.3070
 1.9730	13.2026
 1.9720	13.0656
 1.9710	12.9720
 1.9700	12.9207
 1.9690	12.8190
 1.9680	12.8984
 1.9670	12.6914
 1.9660	12.7811
 1.9650	12.5948
 1.9640	12.6963
 1.9630	12.5890
 1.9620	12.6304
 1.9610	12.6106
 1.9600	12.7815
 1.9590	12.8374
 1.9580	12.9789
 1.9570	12.9968
 1.9560	13.2245
 1.9550	13.2355
 1.9540	13.5082
 1.9530	13.7020
 1.9520	13.9588
 1.9510	14.0776
 1.9500	14.3524
 1.9490	14.4698
 1.9480	14.7723
 1.9470	14.9395
 1.9460	15.2920
 1.9450	15.5259
 1.9440	15.8480
 1.9430	15.9886
 1.9420	16.3283
 1.9410	16.4387
 1.9400	16.9205
 1.9390	16.9157
 1.9380	17.3229
 1.9370	17.3952
 1.9360	17.7566
 1.9350	17.8683
 1.9340	18.2116
 1.9330	18.3676
 1.9320	18.6647
 1.9310	18.7199
 1.9300	19.0769
 1.9290	19.2354
 1.9280	19.5224
 1.9270	19.6636
 1.9260	19.7128
 1.9250	19.9822
 1.9240	20.1526
 1.9230	20.2463
 1.9220	20.6362
 1.9210	20.6261
 1.9200	20.8505
 1.9190	20.8937
 1.9180	21.1479
 1.9170	21.3073
 1.9160	21.5612
 1.9150	21.4828
 1.9140	21.8048
 1.9130	21.7867
 1.9120	22.0308
 1.9110	22.0944
 1.9100	22.3058
 1.9090	22.4024
 1.9080	22.5790
 1.9070	22.6335
 1.9060	22.7325
 1.9050	22.7715
 1.9040	22.9698
 1.9030	22.9951
 1.9020	23.1252
 1.9010	23.1251
 1.9000	23.3629
 1.8990	23.2492
 1.8980	23.4777
 1.8970	23.4600
 1.8960	23.6486
 1.8950	23.5331
 1.8940	23.8307
 1.8930	23.7262
 1.8920	23.8457
 1.8910	23.8691
 1.8900	23.9659
 1.8890	23.9731
 1.8880	24.1116
 1.8870	24.0547
 1.8860	24.2276
 1.8850	24.1853
 1.8840	24.2769
 1.8830	24.1805
 1.8820	24.4521
 1.8810	24.3963
 1.8800	24.4806
 1.8790	24.4138
 1.8780	24.5086
 1.8770	24.4593
 1.8760	24.5362
 1.8750	24.5296
 1.8740	24.5780
 1.8730	24.5348
 1.8720	24.5800
 1.8710	24.5034
 1.8700	24.5880
 1.8690	24.5392
 1.8680	24.5637
 1.8670	24.6060
 1.8660	24.6834
 1.8650	24.6933
 1.8640	24.8617
 1.8630	24.8513
 1.8620	24.8508
 1.8610	24.7912
 1.8600	24.8696
 1.8590	24.8653
 1.8580	24.8389
 1.8570	24.7790
 1.8560	24.8364
 1.8550	24.8070
 1.8540	24.8498
 1.8530	24.8378
 1.8520	24.9255
 1.8510	24.9039
 1.8500	24.9019
 1.8490	24.8864
 1.8480	24.9517
 1.8470	24.8462
 1.8460	24.8879
 1.8450	24.8670
 1.8440	24.8520
 1.8430	24.8417
 1.8420	24.9868
 1.8410	24.8799
 1.8400	24.9175
 1.8390	24.8631
 1.8380	24.8750
 1.8370	24.8406
 1.8360	24.8145
 1.8350	24.8342
 1.8340	24.9115
 1.8330	24.9039
 1.8320	24.9626
 1.8310	24.9317
 1.8300	24.8867
 1.8290	24.9056
 1.8280	24.9590
 1.8270	24.9208
 1.8260	24.9586
 1.8250	24.9591
 1.8240	24.9941
 1.8230	24.9140
 1.8220	24.9720
 1.8210	25.0199
 1.8200	24.9864
 1.8190	24.9760
 1.8180	25.0487
 1.8170	25.0607
 1.8160	25.0753
 1.8150	25.0508
 1.8140	25.0785
 1.8130	25.0317
 1.8120	25.0742
 1.8110	25.0755
 1.8100	25.1239
 1.8090	25.1259
 1.8080	25.1633
 1.8070	25.1763
 1.8060	25.2123
 1.8050	25.2344
 1.8040	25.2780
 1.8030	25.2950
 1.8020	25.2849
 1.8010	25.2803
 1.8000	25.3184
 1.7990	25.2719
 1.7980	25.3367
 1.7970	25.3910
 1.7960	25.4326
 1.7950	25.4488
 1.7940	25.4602
 1.7930	25.4916
 1.7920	25.5229
 1.7910	25.5385
 1.7900	25.5547
 1.7890	25.6038
 1.7880	25.6127
 1.7870	25.6192
 1.7860	25.6497
 1.7850	25.6590
 1.7840	25.6277
 1.7830	25.6539
 1.7820	25.6828
 1.7810	25.7320
 1.7800	25.7608
 1.7790	25.7714
 1.7780	25.8427
 1.7770	25.8609
 1.7760	25.8605
 1.7750	25.9387
 1.7740	25.9450
 1.7730	25.9245
 1.7720	25.9712
 1.7710	26.0321
 1.7700	26.0100
 1.7690	26.0598
 1.7680	26.0638
 1.7670	26.0861
 1.7660	26.1302
 1.7650	26.1783
 1.7640	26.1847
 1.7630	26.2197
 1.7620	26.2254
 1.7610	26.2689
 1.7600	26.2670
 1.7590	26.3545
 1.7580	26.3553
 1.7570	26.4207
 1.7560	26.3985
 1.7550	26.4529
 1.7540	26.4727
 1.7530	26.5654
 1.7520	26.4955
 1.7510	26.4992
 1.7500	26.5610
 1.7490	26.6344
 1.7480	26.6701
 1.7470	26.7364
 1.7460	26.6726
 1.7450	26.7363
 1.7440	26.7264
 1.7430	26.8244
 1.7420	26.8312
 1.7410	26.8598
 1.7400	26.8936
 1.7390	27.0149
 1.7380	27.0000
 1.7370	27.0220
 1.7360	26.9724
 1.7350	27.0559
 1.7340	27.0951
 1.7330	27.1535
 1.7320	27.1270
 1.7310	27.1977
 1.7300	27.1850
 1.7290	27.2740
 1.7280	27.2870
 1.7270	27.4158
 1.7260	27.3696
 1.7250	27.4366
 1.7240	27.4478
 1.7230	27.5490
 1.7220	27.5504
 1.7210	27.6517
 1.7200	27.6108
 1.7190	27.7466
 1.7180	27.8059
 1.7170	27.8297
 1.7160	27.7653
 1.7150	27.9019
 1.7140	27.9112
 1.7130	28.0131
 1.7120	28.0013
 1.7110	28.0960
 1.7100	28.0794
 1.7090	28.2006
 1.7080	28.2180
 1.7070	28.3549
 1.7060	28.3262
 1.7050	28.4646
 1.7040	28.4821
 1.7030	28.5864
 1.7020	28.5941
 1.7010	28.7273
 1.7000	28.6952
 1.6990	28.8172
 1.6980	28.8999
 1.6970	28.9887
 1.6960	29.0630
 1.6950	29.2098
 1.6940	29.1918
 1.6930	29.2568
 1.6920	29.2848
 1.6910	29.4676
 1.6900	29.5286
 1.6890	29.6302
 1.6880	29.6354
 1.6870	29.7809
 1.6860	29.8502
 1.6850	29.9498
 1.6840	30.0129
 1.6830	30.2302
 1.6820	30.2809
 1.6810	30.3885
 1.6800	30.4133
 1.6790	30.5772
 1.6780	30.6039
 1.6770	30.7658
 1.6760	30.8082
 1.6750	30.9692
 1.6740	31.0063
 1.6730	31.0888
 1.6720	31.1669
 1.6710	31.3613
 1.6700	31.4919
 1.6690	31.6192
 1.6680	31.6059
 1.6670	31.9307
 1.6660	31.8429
 1.6650	32.0794
 1.6640	32.1045
 1.6630	32.2876
 1.6620	32.3061
 1.6610	32.4820
 1.6600	32.5548
 1.6590	32.7219
 1.6580	32.8194
 1.6570	32.9435
 1.6560	33.0424
 1.6550	33.2873
 1.6540	33.2835
 1.6530	33.4491
 1.6520	33.5219
 1.6510	33.6434
 1.6500	33.7956
 1.6490	33.8841
 1.6480	33.9649
 1.6470	34.2189
 1.6460	34.2359
 1.6450	34.4764
 1.6440	34.4218
 1.6430	34.7155
 1.6420	34.8303
 1.6410	34.8425
 1.6400	34.9434
 1.6390	35.2224
 1.6380	35.1933
 1.6370	35.5215
 1.6360	35.5065
 1.6350	35.6805
 1.6340	35.6997
 1.6330	35.9254
 1.6320	35.9848
 1.6310	36.2358
 1.6300	36.2296
 1.6290	36.5376
 1.6280	36.4972
 1.6270	36.7705
 1.6260	36.7412
 1.6250	36.9768
 1.6240	37.0811
 1.6230	37.2259
 1.6220	37.3696
 1.6210	37.5393
 1.6200	37.6888
 1.6190	37.8536
 1.6180	37.9149
 1.6170	38.0784
 1.6160	38.2170
 1.6150	38.4043
 1.6140	38.3803
 1.6130	38.5363
 1.6120	38.7092
 1.6110	38.8540
 1.6100	38.9363
 1.6090	39.1434
 1.6080	39.1950
 1.6070	39.4232
 1.6060	39.5311
 1.6050	39.6934
 1.6040	39.8174
 1.6030	39.9484
 1.6020	40.0643
 1.6010	40.2793
 1.6000	40.3391
 1.5990	40.5034
 1.5980	40.6589
 1.5970	40.8330
 1.5960	40.9204
 1.5950	41.0150
 1.5940	41.1542
 1.5930	41.3735
 1.5920	41.4925
 1.5910	41.6016
 1.5900	41.7347
 1.5890	41.9044
 1.5880	42.0036
 1.5870	42.1389
 1.5860	42.2189
 1.5850	42.4061
 1.5840	42.5575
 1.5830	42.7056
 1.5820	42.8278
 1.5810	43.0899
 1.5800	43.1056
 1.5790	43.3180
 1.5780	43.3874
 1.5770	43.4840
 1.5760	43.5975
 1.5750	43.8249
 1.5740	43.9220
 1.5730	44.1492
 1.5720	44.2076
 1.5710	44.3557
 1.5700	44.4275
 1.5690	44.5787
 1.5680	44.7302
 1.5670	44.8766
 1.5660	44.9287
 1.5650	45.0816
 1.5640	45.1700
 1.5630	45.3030
 1.5620	45.3595
 1.5610	45.5241
 1.5600	45.5668
 1.5590	45.6657
 1.5580	45.7400
 1.5570	45.7307
 1.5560	45.7958
 1.5550	45.9217
 1.5540	46.0171
 1.5530	46.0773
 1.5520	45.9906
 1.5510	46.0250
 1.5500	46.0375
 1.5490	46.0831
 1.5480	46.0032
 1.5470	45.9572
 1.5460	45.8848
 1.5450	45.8358
 1.5440	45.7723
 1.5430	45.7032
 1.5420	45.5596
 1.5410	45.4449
 1.5400	45.3184
 1.5390	45.2189
 1.5380	45.0778
 1.5370	45.0435
 1.5360	44.8959
 1.5350	44.8610
 1.5340	44.8057
 1.5330	44.8038
 1.5320	44.7902
 1.5310	44.8848
 1.5300	44.9519
 1.5290	44.9690
 1.5280	45.0911
 1.5270	45.2345
 1.5260	45.3202
 1.5250	45.4649
 1.5240	45.6506
 1.5230	45.7567
 1.5220	45.8912
 1.5210	46.0596
 1.5200	46.1873
 1.5190	46.3678
 1.5180	46.4293
 1.5170	46.6143
 1.5160	46.7256
 1.5150	46.7913
 1.5140	46.8679
 1.5130	47.0054
 1.5120	47.1028
 1.5110	47.1476
 1.5100	47.1953
 1.5090	47.2249
 1.5080	47.3085
 1.5070	47.4059
 1.5060	47.4553
 1.5050	47.4712
 1.5040	47.4429
 1.5030	47.4762
 1.5020	47.4997
 1.5010	47.4915
 1.5000	47.4722
 1.4990	47.4950
 1.4980	47.4900
 1.4970	47.4597
 1.4960	47.4264
 1.4950	47.3789
 1.4940	47.3351
 1.4930	47.2864
 1.4920	47.1775
 1.4910	47.0261
 1.4900	46.9765
 1.4890	46.9150
 1.4880	46.8063
 1.4870	46.6658
 1.4860	46.5764
 1.4850	46.4746
 1.4840	46.3166
 1.4830	46.1268
 1.4820	45.9684
 1.4810	45.8087
 1.4800	45.6465
 1.4790	45.4512
 1.4780	45.1867
 1.4770	44.9706
 1.4760	44.8076
 1.4750	44.4759
 1.4740	44.1907
 1.4730	43.8528
 1.4720	43.5035
 1.4710	43.0458
 1.4700	42.5886
 1.4690	42.1055
 1.4680	41.6875
 1.4670	41.1653
 1.4660	40.6381
 1.4650	40.0522
 1.4640	39.5322
 1.4630	39.1175
 1.4620	38.7409
 1.4610	38.3743
 1.4600	38.2145
 1.4590	38.0921
 1.4580	38.0366
 1.4570	37.9879
 1.4560	38.0690
 1.4550	38.2201
 1.4540	38.4663
 1.4530	38.6898
 1.4520	39.0805
 1.4510	39.4530
 1.4500	39.9058
 1.4490	40.3832
 1.4480	40.9772
 1.4470	41.4960
 1.4460	42.1387
 1.4450	42.7338
 1.4440	43.3960
 1.4430	43.9889
 1.4420	44.6963
 1.4410	45.3614
 1.4400	46.0086
 1.4390	46.6510
 1.4380	47.2524
 1.4370	47.8473
 1.4360	48.4995
 1.4350	49.0681
 1.4340	49.6144
 1.4330	50.0791
 1.4320	50.5682
 1.4310	50.9969
 1.4300	51.4474
 1.4290	51.8276
 1.4280	52.1705
 1.4270	52.5057
 1.4260	52.8723
 1.4250	53.1228
 1.4240	53.5296
 1.4230	53.8567
 1.4220	54.2657
 1.4210	54.5657
 1.4200	54.9392
 1.4190	55.1825
 1.4180	55.5206
 1.4170	55.7954
 1.4160	56.1283
 1.4150	56.3811
 1.4140	56.6207
 1.4130	56.8313
 1.4120	57.1210
 1.4110	57.3255
 1.4100	57.6636
 1.4090	57.8314
 1.4080	58.0301
 1.4070	58.2408
 1.4060	58.5396
 1.4050	58.5609
 1.4040	58.8528
 1.4030	59.0512
 1.4020	59.1519
 1.4010	59.2682
 1.4000	59.4089
 1.3990	59.5756
 1.3980	59.7959
 1.3970	59.9259
 1.3960	60.0366
 1.3950	60.0848
 1.3940	60.2152
 1.3930	60.3198
 1.3920	60.4026
 1.3910	60.5635
 1.3900	60.6744
 1.3890	60.6828
 1.3880	60.7684
 1.3870	60.8459
 1.3860	60.8703
 1.3850	60.8877
 1.3840	60.9374
 1.3830	60.8753
 1.3820	60.8906
 1.3810	60.9142
 1.3800	60.9655
 1.3790	61.0806
 1.3780	61.0353
 1.3770	61.0538
 1.3760	61.0190
 1.3750	61.1492
 1.3740	61.0850
 1.3730	61.0930
 1.3720	61.1291
 1.3710	61.1102
 1.3700	61.2055
 1.3690	61.2659
 1.3680	61.3059
 1.3670	61.2656
 1.3660	61.4385
 1.3650	61.4992
 1.3640	61.6631
 1.3630	61.7512
 1.3620	61.6782
 1.3610	61.7234
 1.3600	61.8962
 1.3590	61.9992
 1.3580	62.2326
 1.3570	62.1091
 1.3560	62.2783
 1.3550	62.2116
 1.3540	62.2967
 1.3530	62.4103
 1.3520	62.4130
 1.3510	62.4272
 1.3500	62.5268
 1.3490	62.5905
 1.3480	62.6406
 1.3470	62.5480
 1.3460	62.6011
 1.3450	62.5858
 1.3440	62.6809
 1.3430	62.6549
 1.3420	62.7210
 1.3410	62.6339
 1.3400	62.6650
 1.3390	62.7232
 1.3380	62.7869
 1.3370	62.6858
 1.3360	62.6894
 1.3350	62.6146
 1.3340	62.7005
 1.3330	62.7073
 1.3320	62.7034
 1.3310	62.7110
 1.3300	62.6860
 1.3290	62.7220
 1.3280	62.7758
 1.3270	62.7746
 1.3260	62.7887
 1.3250	62.7040
 1.3240	62.7433
 1.3230	62.6998
 1.3220	62.7137
 1.3210	62.7598
 1.3200	62.7013
 1.3190	62.6597
 1.3180	62.7311
 1.3170	62.6640
 1.3160	62.7504
 1.3150	62.6947
 1.3140	62.7219
 1.3130	62.7015
 1.3120	62.7240
 1.3110	62.6612
 1.3100	62.7336
 1.3090	62.7162
 1.3080	62.7149
 1.3070	62.6455
 1.3060	62.6882
 1.3050	62.7135
 1.3040	62.7439
 1.3030	62.7260
 1.3020	62.7533
 1.3010	62.7724
 1.3000	62.7633
 1.2990	62.7739
 1.2980	62.8140
 1.2970	62.8061
 1.2960	62.8405
 1.2950	62.7947
 1.2940	62.8460
 1.2930	62.8319
 1.2920	62.8475
 1.2910	62.8595
 1.2900	62.9342
 1.2890	62.9273
 1.2880	62.9033
 1.2870	62.8092
 1.2860	62.9060
 1.2850	62.9375
 1.2840	62.9481
 1.2830	62.9651
 1.2820	62.9900
 1.2810	62.8775
 1.2800	62.9165
 1.2790	62.8936
 1.2780	62.9182
 1.2770	62.8687
 1.2760	62.8320
 1.2750	62.8666
 1.2740	62.8589
 1.2730	62.8156
 1.2720	62.7896
 1.2710	62.7608
 1.2700	62.7673
 1.2690	62.8011
 1.2680	62.8249
 1.2670	62.7704
 1.2660	62.8036
 1.2650	62.7608
 1.2640	62.6991
 1.2630	62.6788
 1.2620	62.7334
 1.2610	62.6707
 1.2600	62.6724
 1.2590	62.6449
 1.2580	62.6460
 1.2570	62.5923
 1.2560	62.5364
 1.2550	62.5750
 1.2540	62.5065
 1.2530	62.4488
 1.2520	62.4216
 1.2510	62.4418
 1.2500	62.4568
 1.2490	62.4264
 1.2480	62.3622
 1.2470	62.2910
 1.2460	62.3446
 1.2450	62.2606
 1.2440	62.2414
 1.2430	62.2606
 1.2420	62.2057
 1.2410	62.1639
 1.2400	62.1713
 1.2390	62.1322
 1.2380	62.0552
 1.2370	61.9896
 1.2360	61.9991
 1.2350	61.9783
 1.2340	61.9162
 1.2330	61.8945
 1.2320	61.9126
 1.2310	61.8897
 1.2300	61.8118
 1.2290	61.7998
 1.2280	61.8216
 1.2270	61.7823
 1.2260	61.7750
 1.2250	61.6696
 1.2240	61.5941
 1.2230	61.5506
 1.2220	61.5418
 1.2210	61.5041
 1.2200	61.4219
 1.2190	61.4006
 1.2180	61.3462
 1.2170	61.3178
 1.2160	61.3093
 1.2150	61.2565
 1.2140	61.1929
 1.2130	61.1568
 1.2120	61.1095
 1.2110	61.0273
 1.2100	60.9302
 1.2090	60.8967
 1.2080	60.8945
 1.2070	60.8072
 1.2060	60.7131
 1.2050	60.6162
 1.2040	60.4969
 1.2030	60.4882
 1.2020	60.4946
 1.2010	60.4156
 1.2000	60.3428
 1.1990	60.3185
 1.1980	60.2600
 1.1970	60.2857
 1.1960	60.2022
 1.1950	60.1533
 1.1940	60.1084
 1.1930	60.0793
 1.1920	60.0493
 1.1910	60.0338
 1.1900	59.9857
 1.1890	60.0137
 1.1880	59.9679
 1.1870	60.0010
 1.1860	60.0033
 1.1850	60.0291
 1.1840	60.0764
 1.1830	60.0071
 1.1820	59.9743
 1.1810	60.0529
 1.1800	60.0937
 1.1790	60.1444
 1.1780	60.0782
 1.1770	60.0890
 1.1760	60.0722
 1.1750	60.0936
 1.1740	60.1441
 1.1730	60.1546
 1.1720	60.1862
 1.1710	60.2426
 1.1700	60.2012
 1.1690	60.2324
 1.1680	60.1577
 1.1670	60.1481
 1.1660	60.1608
 1.1650	60.2181
 1.1640	60.1789
 1.1630	60.1554
 1.1620	60.0941
 1.1610	60.1030
 1.1600	60.0993
 1.1590	60.0604
 1.1580	59.9755
 1.1570	60.0677
 1.1560	60.0173
 1.1550	60.0523
 1.1540	59.9532
 1.1530	59.9993
 1.1520	59.9270
 1.1510	59.8997
 1.1500	59.9257
 1.1490	59.9009
 1.1480	59.8431
 1.1470	59.7907
 1.1460	59.7188
 1.1450	59.7815
 1.1440	59.7736
 1.1430	59.7646
 1.1420	59.6968
 1.1410	59.7120
 1.1400	59.6126
 1.1390	59.5848
 1.1380	59.6382
 1.1370	59.6069
 1.1360	59.4934
 1.1350	59.4387
 1.1340	59.4209
 1.1330	59.4509
 1.1320	59.4689
 1.1310	59.4125
 1.1300	59.3433
 1.1290	59.3315
 1.1280	59.3092
 1.1270	59.2808
 1.1260	59.1921
 1.1250	59.2520
 1.1240	59.1688
 1.1230	59.2224
 1.1220	59.1534
 1.1210	59.1330
 1.1200	59.1886
 1.1190	59.1127
 1.1180	59.1484
 1.1170	59.0919
 1.1160	58.9971
 1.1150	59.0015
 1.1140	58.9693
 1.1130	58.9399
 1.1120	58.9265
 1.1110	58.8862
 1.1100	58.7451
 1.1090	58.9087
 1.1080	58.7399
 1.1070	58.7416
 1.1060	58.7559
 1.1050	58.7772
 1.1040	58.6317
 1.1030	58.7287
 1.1020	58.5779
 1.1010	58.6561
 1.1000	58.5255
 1.0990	58.5471
 1.0980	58.5242
 1.0970	58.4854
 1.0960	58.5292
 1.0950	58.5378
 1.0940	58.4018
 1.0930	58.4522
 1.0920	58.3254
 1.0910	58.3833
 1.0900	58.3420
 1.0890	58.3444
 1.0880	58.2332
 1.0870	58.3160
 1.0860	58.2176
 1.0850	58.2400
 1.0840	58.1528
 1.0830	58.2243
 1.0820	58.0565
 1.0810	58.1416
 1.0800	58.0376
 1.0790	57.9847
 1.0780	57.9689
 1.0770	57.9767
 1.0760	57.9962
 1.0750	57.9628
 1.0740	57.9363
 1.0730	57.8529
 1.0720	57.8392
 1.0710	58.0057
 1.0700	57.7957
 1.0690	57.8137
 1.0680	57.7402
 1.0670	57.7725
 1.0660	57.7054
 1.0650	57.7642
 1.0640	57.6918
 1.0630	57.6238
 1.0620	57.5442
 1.0610	57.6147
 1.0600	57.5032
 1.0590	57.5456
 1.0580	57.4868
 1.0570	57.5693
 1.0560	57.4164
 1.0550	57.3642
 1.0540	57.2851
 1.0530	57.4013
 1.0520	57.3080
 1.0510	57.2561
 1.0500	57.2593
 1.0490	57.2640
 1.0480	57.1757
 1.0470	57.1363
 1.0460	57.1349
 1.0450	57.0415
 1.0440	56.9883
 1.0430	57.0572
 1.0420	56.9158
 1.0410	56.9642
 1.0400	56.8090
 1.0390	56.8511
 1.0380	56.8037
 1.0370	56.7707
 1.0360	56.7647
 1.0350	56.7114
 1.0340	56.6439
 1.0330	56.6540
 1.0320	56.5332
 1.0310	56.5210
 1.0300	56.5377
 1.0290	56.4094
 1.0280	56.4083
 1.0270	56.4095
 1.0260	56.3395
 1.0250	56.3857
 1.0240	56.3018
 1.0230	56.1384
 1.0220	56.1615
 1.0210	56.0919
 1.0200	55.9647
 1.0190	56.0104
 1.0180	55.9070
 1.0170	55.8962
 1.0160	55.8656
 1.0150	55.8220
 1.0140	55.7249
 1.0130	55.6921
 1.0120	55.5308
 1.0110	55.6274
 1.0100	55.5339
 1.0090	55.4050
 1.0080	55.3839
 1.0070	55.3268
 1.0060	55.3019
 1.0050	55.2172
 1.0040	55.0494
 1.0030	55.0833
 1.0020	55.0239
 1.0010	55.0004
 1.0000	54.7916
 0.9990	54.7971
 0.9980	54.6750
 0.9970	54.6422
 0.9960	54.5985
 0.9950	54.5366
 0.9940	54.5027
 0.9930	54.5152
 0.9920	54.4573
 0.9910	54.3973
 0.9900	54.3391
 0.9890	54.3621
 0.9880	54.3416
 0.9870	54.3615
 0.9860	54.3065
 0.9850	54.3318
 0.9840	54.2912
 0.9830	54.3363
 0.9820	54.1658
 0.9810	54.2593
 0.9800	54.2571
 0.9790	54.1989
 0.9780	54.1823
 0.9770	54.1918
 0.9760	54.1825
 0.9750	54.2037
 0.9740	54.0829
 0.9730	54.0440
 0.9720	54.0031
 0.9710	54.0159
 0.9700	53.9009
 0.9690	53.8976
 0.9680	53.8088
 0.9670	53.8296
 0.9660	53.7652
 0.9650	53.6762
 0.9640	53.6157
 0.9630	53.6209
 0.9620	53.5408
 0.9610	53.4990
 0.9600	53.4161
 0.9590	53.3965
 0.9580	53.3357
 0.9570	53.2117
 0.9560	53.1207
 0.9550	53.1174
 0.9540	53.0999
 0.9530	53.0075
 0.9520	52.9311
 0.9510	52.8776
 0.9500	52.7855
 0.9490	52.7144
 0.9480	52.7032
 0.9470	52.6627
 0.9460	52.5134
 0.9450	52.4420
 0.9440	52.3636
 0.9430	52.3372
 0.9420	52.3092
 0.9410	52.2169
 0.9400	52.1616
 0.9390	52.1252
 0.9380	52.0551
 0.9370	51.9976
 0.9360	51.9070
 0.9350	51.8328
 0.9340	51.7712
 0.9330	51.7393
 0.9320	51.6620
 0.9310	51.5415
 0.9300	51.4536
 0.9290	51.3858
 0.9280	51.3469
 0.9270	51.3501
 0.9260	51.2625
 0.9250	51.1758
 0.9240	51.0818
 0.9230	50.9807
 0.9220	50.9623
 0.9210	50.9536
 0.9200	50.8837
 0.9190	50.7836
 0.9180	50.7174
 0.9170	50.6317
 0.9160	50.5624
 0.9150	50.5253
 0.9140	50.4635
 0.9130	50.3942
 0.9120	50.3323
 0.9110	50.2194
 0.9100	50.1643
 0.9090	50.0179
 0.9080	49.9912
 0.9070	49.9495
 0.9060	49.8957
 0.9050	49.8448
 0.9040	49.7976
 0.9030	49.6769
 0.9020	49.6447
 0.9010	49.5485
 0.9000	49.4622
 0.8990	49.4383
 0.8980	49.3840
 0.8970	49.3209
 0.8960	49.2884
 0.8950	49.1620
 0.8940	49.0801
 0.8930	49.0119
 0.8920	49.0124
 0.8910	48.8805
 0.8900	48.8604
 0.8890	48.7853
 0.8880	48.7265
 0.8870	48.6444
 0.8860	48.6200
 0.8850	48.5067
 0.8840	48.4518
 0.8830	48.4217
 0.8820	48.4119
 0.8810	48.2578
 0.8800	48.2265
 0.8790	48.1799
 0.8780	48.1011
 0.8770	48.0270
 0.8760	47.9698
 0.8750	47.8863
 0.8740	47.9128
 0.8730	47.8173
 0.8720	47.7531
 0.8710	47.6352
 0.8700	47.6588
 0.8690	47.5365
 0.8680	47.5332
 0.8670	47.4759
 0.8660	47.4570
 0.8650	47.3683
 0.8640	47.2897
 0.8630	47.1886
 0.8620	47.2008
 0.8610	47.1292
 0.8600	46.9256
 0.8590	46.7356
 0.8580	46.7403
 0.8570	46.7414
 0.8560	46.5984
 0.8550	46.5911
 0.8540	46.5678
 0.8530	46.4884
 0.8520	46.4361
 0.8510	46.4811
 0.8500	46.4232
 0.8490	46.3591
 0.8480	46.3009
 0.8470	46.2480
 0.8460	46.2207
 0.8450	46.1788
 0.8440	46.1546
 0.8430	46.0761
 0.8420	46.0745
 0.8410	46.0307
 0.8400	45.9978
 0.8390	46.0068
 0.8380	45.9200
 0.8370	45.8789
 0.8360	45.8700
 0.8350	45.8532
 0.8340	45.8256
 0.8330	45.7996
 0.8320	45.7239
 0.8310	45.7144
 0.8300	45.7153
 0.8290	45.6600
 0.8280	45.6339
 0.8270	45.6479
 0.8260	45.6016
 0.8250	45.5541
 0.8240	45.5707
 0.8230	45.5439
 0.8220	45.5268
 0.8210	45.5138
 0.8200	45.4933
 0.8190	45.4505
 0.8180	45.4570
 0.8170	45.4085
 0.8160	45.4476
 0.8150	45.4823
 0.8140	45.3905
 0.8130	45.4476
 0.8120	45.4292
 0.8110	45.3980
 0.8100	45.3960
 0.8090	45.3862
 0.8080	45.3665
 0.8070	45.3553
 0.8060	45.3859
 0.8050	45.3534
 0.8040	45.3508
 0.8030	45.3490
 0.8020	45.3947
 0.8010	45.3890
 0.8000	45.4034
 0.7990	45.3939
 0.7980	45.3748
 0.7970	45.3988
 0.7960	45.3742
 0.7950	45.3808
 0.7940	45.3980
 0.7930	45.4078
 0.7920	45.4148
 0.7910	45.4487
 0.7900	45.4498
 0.7890	45.4616
 0.7880	45.4909
 0.7870	45.5094
 0.7860	45.5515
 0.7850	45.5836
 0.7840	45.5669
 0.7830	45.5789
 0.7820	45.6405
 0.7810	45.6773
 0.7800	45.6789
 0.7790	45.7081
 0.7780	45.7504
 0.7770	45.7502
 0.7760	45.7856
 0.7750	45.8172
 0.7740	45.8355
 0.7730	45.8928
 0.7720	45.9172
 0.7710	45.9411
 0.7700	45.9634
 0.7690	46.0004
 0.7680	46.0428
 0.7670	46.0831
 0.7660	46.0889
 0.7650	46.1433
 0.7640	46.1783
 0.7630	46.2047
 0.7620	46.2495
 0.7610	46.3051
 0.7600	46.3180
 0.7590	46.3783
 0.7580	46.4317
 0.7570	46.4386
 0.7560	46.5022
 0.7550	46.5259
 0.7540	46.5631
 0.7530	46.6324
 0.7520	46.6651
 0.7510	46.6998
 0.7500	46.7215
 0.7490	46.7881
 0.7480	46.8022
 0.7470	46.8419
 0.7460	46.8720
 0.7450	46.9216
 0.7440	46.9579
 0.7430	46.9865
 0.7420	47.0175
 0.7410	47.0685
 0.7400	47.0917
 0.7390	47.1339
 0.7380	47.1758
 0.7370	47.1729
 0.7360	47.1961
 0.7350	47.2121
 0.7340	47.2652
 0.7330	47.2674
 0.7320	47.2861
 0.7310	47.3083
 0.7300	47.3291
 0.7290	47.3426
 0.7280	47.3719
 0.7270	47.3906
 0.7260	47.4042
 0.7250	47.3832
 0.7240	47.3885
 0.7230	47.4091
 0.7220	47.3998
 0.7210	47.3996
 0.7200	47.4006
 0.7190	47.4185
 0.7180	47.3937
 0.7170	47.3878
 0.7160	47.3858
 0.7150	47.3668
 0.7140	47.3498
 0.7130	47.3352
 0.7120	47.3209
 0.7110	47.2989
 0.7100	47.2770
 0.7090	47.2369
 0.7080	47.2037
 0.7070	47.1689
 0.7060	47.1409
 0.7050	47.0969
 0.7040	47.0500
 0.7030	47.0165
 0.7020	46.9732
 0.7010	46.9050
 0.7000	46.8501
 0.6990	46.8051
 0.6980	46.7403
 0.6970	46.6768
 0.6960	46.6071
 0.6950	46.5508
 0.6940	46.4602
 0.6930	46.3825
 0.6920	46.2986
 0.6910	46.2109
 0.6900	46.1250
 0.6890	46.0347
 0.6880	45.9424
 0.6870	45.8323
 0.6860	45.7255
 0.6850	45.6257
 0.6840	45.5219
 0.6830	45.4111
 0.6820	45.2882
 0.6810	45.1716
 0.6800	45.0529
 0.6790	44.9266
 0.6780	44.7982
 0.6770	44.6628
 0.6760	44.5155
 0.6750	44.3788
 0.6740	44.2294
 0.6730	44.0815
 0.6720	43.9428
 0.6710	43.7917
 0.6700	43.6296
 0.6690	43.4705
 0.6680	43.3148
 0.6670	43.1553
 0.6660	43.0010
 0.6650	42.8458
 0.6640	42.6687
 0.6630	42.4904
 0.6620	42.3287
 0.6610	42.1634
 0.6600	41.9741
 0.6590	41.7985
 0.6580	41.6190
 0.6570	41.4409
 0.6560	41.2564
 0.6550	41.0706
 0.6540	40.8847
 0.6530	40.7044
 0.6520	40.5266
 0.6510	40.3442
 0.6500	40.1529
 0.6490	39.9665
 0.6480	39.7782
 0.6470	39.5903
 0.6460	39.4133
 0.6450	39.2310
 0.6440	39.0413
 0.6430	38.8584
 0.6420	38.6768
 0.6410	38.4932
 0.6400	38.3163
 0.6390	38.1282
 0.6380	37.9347
 0.6370	37.7570
 0.6360	37.5753
 0.6350	37.3893
 0.6340	37.2184
 0.6330	37.0411
 0.6320	36.8596
 0.6310	36.6892
 0.6300	36.5196
 0.6290	36.3527
 0.6280	36.1821
 0.6270	36.0144
 0.6260	35.8669
 0.6250	35.7227
 0.6240	35.5670
 0.6230	35.4043
 0.6220	35.2482
 0.6210	35.0989
 0.6200	34.9354
 0.6190	34.7796
 0.6180	34.6376
 0.6170	34.4883
 0.6160	34.3455
 0.6150	34.2074
 0.6140	34.0690
 0.6130	33.9376
 0.6120	33.8071
 0.6110	33.6758
 0.6100	33.5481
 0.6090	33.4268
 0.6080	33.3029
 0.6070	33.1817
 0.6060	33.0638
 0.6050	32.9496
 0.6040	32.8312
 0.6030	32.7219
 0.6020	32.6168
 0.6010	32.5361
 0.6000	32.4566
 0.5990	32.3656
 0.5980	32.2702
 0.5970	32.1838
 0.5960	32.0994
 0.5950	32.0156
 0.5940	31.9213
 0.5930	31.8308
 0.5920	31.7411
 0.5910	31.6563
 0.5900	31.5810
 0.5890	31.5039
 0.5880	31.4254
 0.5870	31.3509
 0.5860	31.2756
 0.5850	31.1986
 0.5840	31.1382
 0.5830	31.0684
 0.5820	30.9959
 0.5810	30.9379
 0.5800	30.8799
 0.5790	30.8157
 0.5780	30.7549
 0.5770	30.7007
 0.5760	30.6410
 0.5750	30.5884
 0.5740	30.5392
 0.5730	30.4901
 0.5720	30.4425
 0.5710	30.3959
 0.5700	30.3504
 0.5690	30.3079
 0.5680	30.2664
 0.5670	30.2233
 0.5660	30.1934
 0.5650	30.1593
 0.5640	30.1177
 0.5630	30.0824
 0.5620	30.0558
 0.5610	30.0004
 0.5600	29.9613
 0.5590	29.9353
 0.5580	29.9080
 0.5570	29.8806
 0.5560	29.8573
 0.5550	29.8291
 0.5540	29.8069
 0.5530	29.7878
 0.5520	29.7650
 0.5510	29.7424
 0.5500	29.7291
 0.5490	29.7069
 0.5480	29.6916
 0.5470	29.6773
 0.5460	29.6467
 0.5450	29.6365
 0.5440	29.6161
 0.5430	29.6005
 0.5420	29.5808
 0.5410	29.5622
 0.5400	29.5451
 0.5390	29.5182
 0.5380	29.4948
 0.5370	29.4640
 0.5360	29.4472
 0.5350	29.4145
 0.5340	29.3804
 0.5330	29.3464
 0.5320	29.3164
 0.5310	29.2725
 0.5300	29.2440
 0.5290	29.1857
 0.5280	29.1317
 0.5270	29.0813
 0.5260	29.0251
 0.5250	28.9603
 0.5240	28.8926
 0.5230	28.8233
 0.5220	28.7548
 0.5210	28.6826
 0.5200	28.5829
 0.5190	28.4853
 0.5180	28.3936
 0.5170	28.2812
 0.5160	28.1649
 0.5150	28.0480
 0.5140	27.9260
 0.5130	27.7913
 0.5120	27.6384
 0.5110	27.4901
 0.5100	27.3394
 0.5090	27.1603
 0.5080	26.9827
 0.5070	26.7982
 0.5060	26.5901
 0.5050	26.3793
 0.5040	26.1763
 0.5030	25.9390
 0.5020	25.6963
 0.5010	25.4537
 0.5000	25.2012
 0.4990	24.9341
 0.4980	24.6568
 0.4970	24.3787
 0.4960	24.0904
 0.4950	23.7798
 0.4940	23.4802
 0.4930	23.1730
 0.4920	22.8652
 0.4910	22.5497
 0.4900	22.2322
 0.4890	21.9085
 0.4880	21.5912
 0.4870	21.2673
 0.4860	20.9529
 0.4850	20.6568
 0.4840	20.3597
 0.4830	20.0741
 0.4820	19.8151
 0.4810	19.5654
 0.4800	19.3335
 0.4790	19.1134
 0.4780	18.8986
 0.4770	18.6968
 0.4760	18.5010
 0.4750	18.3080
 0.4740	18.1237
 0.4730	17.9439
 0.4720	17.8178
 0.4710	17.6595
 0.4700	17.5218
 0.4690	17.3835
 0.4680	17.2491
 0.4670	17.1211
 0.4660	17.0028
 0.4650	16.8858
 0.4640	16.7720
 0.4630	16.6689
 0.4620	16.5662
 0.4610	16.4652
 0.4600	16.3630
 0.4590	16.2782
 0.4580	16.1748
 0.4570	16.0822
 0.4560	15.9738
 0.4550	15.8517
 0.4540	15.7282
 0.4530	15.5945
 0.4520	15.4352
 0.4510	15.2705
 0.4500	15.0848
 0.4490	14.8754
 0.4480	14.6461
 0.4470	14.3731
 0.4460	14.0802
 0.4450	13.7575
 0.4440	13.3886
 0.4430	12.9909
 0.4420	12.5290
 0.4410	11.9922
 0.4400	11.3665
 0.4390	10.6812
 0.4380	10.0060
 0.4370	 9.4517
 0.4360	 9.0948
 0.4350	 8.9399
 0.4340	 8.9652
 0.4330	 9.0692
 0.4320	 9.1495
 0.4310	 9.1740
 0.4300	 9.1620
 0.4290	 9.1500
 0.4280	 9.1595
 0.4270	 9.1929
 0.4260	 9.2492
 0.4250	 9.3223
 0.4240	 9.4130
 0.4230	 9.4951
 0.4220	 9.5566
 0.4210	 9.6030
 0.4200	 9.6439
 0.4190	 9.6724
 0.4180	 9.7010
 0.4170	 9.7178
 0.4160	 9.7205
 0.4150	 9.7115
 0.4140	 9.6928
 0.4130	 9.6664
 0.4120	 9.6385
 0.4110	 9.6096
 0.4100	 9.5793
 0.4090	 9.5399
 0.4080	 9.5042
 0.4070	 9.4640
 0.4060	 9.4168
 0.4050	 9.3563
 0.4040	 9.2845
 0.4030	 9.2091
 0.4020	 9.1241
 0.4010	 9.0351
 0.4000	 8.9312
