Name: Ferroaxinite Ca_2Fe^2+Al_2BSi_4O_15(OH)
Type: Mineral
Class: Silicate
Subclass: Cyclosilicate
Particle Size: Medium
Sample No.: CS-4A
Owner: JPL
Wavelength Range: VSWIR
Origin: Mexico, Baja California Norte, Los Gavelontos.
Collection Date: N/A
Description: Particle size was 45-125um.Collected by:  Ward's Original ASTER Spectral Library name was jpl.perkin.mineral.silicate.cyclosilicate.medium.cs04a.spectrum.txt
Measurement: Hemispherical reflectance
First Column: X
Second Column: Y
X Units: Wavelength (micrometers)
Y Units:Reflectance (percent)
First X Value:  2.5000
Last X Value:  0.4000
Number of X Values: 2101
Additional Information: mineral.silicate.cyclosilicate.medium.vswir.cs-4a.jpl.perkin.ancillary.txt

 2.5000	30.4516
 2.4990	30.4367
 2.4980	30.4631
 2.4970	30.4875
 2.4960	29.8901
 2.4950	30.4621
 2.4940	30.1575
 2.4930	30.2066
 2.4920	30.0970
 2.4910	30.1981
 2.4900	29.9499
 2.4890	30.1532
 2.4880	30.0660
 2.4870	30.0750
 2.4860	29.8734
 2.4850	30.2221
 2.4840	29.8897
 2.4830	30.1179
 2.4820	29.8460
 2.4810	29.9823
 2.4800	29.9080
 2.4790	30.0509
 2.4780	29.8258
 2.4770	29.8615
 2.4760	29.7416
 2.4750	29.9119
 2.4740	29.7364
 2.4730	29.8113
 2.4720	29.6851
 2.4710	29.6617
 2.4700	29.6004
 2.4690	29.5602
 2.4680	29.3846
 2.4670	29.3999
 2.4660	29.2964
 2.4650	29.3074
 2.4640	29.2068
 2.4630	29.2278
 2.4620	29.0696
 2.4610	28.9838
 2.4600	28.8497
 2.4590	28.8577
 2.4580	28.7071
 2.4570	28.7139
 2.4560	28.5371
 2.4550	28.4522
 2.4540	28.4316
 2.4530	28.3161
 2.4520	28.2343
 2.4510	28.2549
 2.4500	28.0410
 2.4490	27.9082
 2.4480	27.7813
 2.4470	27.8197
 2.4460	27.7106
 2.4450	27.6874
 2.4440	27.5441
 2.4430	27.4408
 2.4420	27.2728
 2.4410	27.3082
 2.4400	27.0996
 2.4390	27.0765
 2.4380	26.9140
 2.4370	26.8146
 2.4360	26.7489
 2.4350	26.7090
 2.4340	26.4547
 2.4330	26.5163
 2.4320	26.3776
 2.4310	26.2713
 2.4300	26.1052
 2.4290	26.1312
 2.4280	25.9365
 2.4270	25.8734
 2.4260	25.7388
 2.4250	25.6604
 2.4240	25.5498
 2.4230	25.5339
 2.4220	25.3494
 2.4210	25.2213
 2.4200	25.1329
 2.4190	25.0363
 2.4180	24.8954
 2.4170	24.8030
 2.4160	24.6214
 2.4150	24.5901
 2.4140	24.4392
 2.4130	24.3620
 2.4120	24.1266
 2.4110	24.0307
 2.4100	23.9393
 2.4090	23.9166
 2.4080	23.7394
 2.4070	23.7439
 2.4060	23.5089
 2.4050	23.3342
 2.4040	23.1804
 2.4030	23.1456
 2.4020	22.9840
 2.4010	22.8857
 2.4000	22.7419
 2.3990	22.6214
 2.3980	22.5138
 2.3970	22.4164
 2.3960	22.2184
 2.3950	22.0533
 2.3940	21.8892
 2.3930	21.7323
 2.3920	21.5457
 2.3910	21.4008
 2.3900	21.2351
 2.3890	21.0170
 2.3880	20.7675
 2.3870	20.5721
 2.3860	20.3335
 2.3850	20.1325
 2.3840	19.8696
 2.3830	19.6194
 2.3820	19.3735
 2.3810	19.1555
 2.3800	18.8359
 2.3790	18.6053
 2.3780	18.3829
 2.3770	18.1787
 2.3760	17.8990
 2.3750	17.6644
 2.3740	17.3949
 2.3730	17.2710
 2.3720	17.1537
 2.3710	16.9713
 2.3700	16.8320
 2.3690	16.7485
 2.3680	16.6615
 2.3670	16.5749
 2.3660	16.4512
 2.3650	16.4114
 2.3640	16.3938
 2.3630	16.4049
 2.3620	16.3714
 2.3610	16.3664
 2.3600	16.3558
 2.3590	16.3768
 2.3580	16.4220
 2.3570	16.4301
 2.3560	16.4021
 2.3550	16.4309
 2.3540	16.4123
 2.3530	16.3767
 2.3520	16.3790
 2.3510	16.3461
 2.3500	16.3123
 2.3490	16.2352
 2.3480	16.1185
 2.3470	15.9825
 2.3460	15.8994
 2.3450	15.7697
 2.3440	15.6134
 2.3430	15.5263
 2.3420	15.4212
 2.3410	15.1926
 2.3400	15.0274
 2.3390	14.8380
 2.3380	14.6360
 2.3370	14.4241
 2.3360	14.2195
 2.3350	13.9576
 2.3340	13.7754
 2.3330	13.5263
 2.3320	13.3112
 2.3310	13.1134
 2.3300	12.9088
 2.3290	12.7076
 2.3280	12.6096
 2.3270	12.3912
 2.3260	12.2410
 2.3250	12.1195
 2.3240	12.0497
 2.3230	11.8980
 2.3220	11.8663
 2.3210	11.7266
 2.3200	11.7048
 2.3190	11.7231
 2.3180	11.6944
 2.3170	11.6128
 2.3160	11.6897
 2.3150	11.6788
 2.3140	11.7458
 2.3130	11.7116
 2.3120	11.7816
 2.3110	11.8090
 2.3100	11.8415
 2.3090	11.7790
 2.3080	11.9028
 2.3070	11.9194
 2.3060	11.9995
 2.3050	11.9847
 2.3040	12.0483
 2.3030	12.0270
 2.3020	12.1537
 2.3010	12.1395
 2.3000	12.1416
 2.2990	12.1834
 2.2980	12.2756
 2.2970	12.2518
 2.2960	12.3594
 2.2950	12.3420
 2.2940	12.3924
 2.2930	12.4575
 2.2920	12.5286
 2.2910	12.6153
 2.2900	12.6823
 2.2890	12.6997
 2.2880	12.7784
 2.2870	12.7912
 2.2860	12.8762
 2.2850	12.8638
 2.2840	12.9070
 2.2830	12.9554
 2.2820	13.0242
 2.2810	12.9653
 2.2800	13.0860
 2.2790	13.0119
 2.2780	13.0552
 2.2770	13.0103
 2.2760	13.1304
 2.2750	13.0658
 2.2740	13.1648
 2.2730	13.0888
 2.2720	13.1295
 2.2710	13.0823
 2.2700	13.1829
 2.2690	13.0968
 2.2680	13.1933
 2.2670	13.1543
 2.2660	13.2088
 2.2650	13.2097
 2.2640	13.2515
 2.2630	13.1713
 2.2620	13.2770
 2.2610	13.2498
 2.2600	13.3817
 2.2590	13.3458
 2.2580	13.3744
 2.2570	13.4234
 2.2560	13.4903
 2.2550	13.4734
 2.2540	13.5469
 2.2530	13.4551
 2.2520	13.5906
 2.2510	13.5313
 2.2500	13.6355
 2.2490	13.5498
 2.2480	13.6738
 2.2470	13.5084
 2.2460	13.6089
 2.2450	13.6500
 2.2440	13.6611
 2.2430	13.5909
 2.2420	13.5932
 2.2410	13.5253
 2.2400	13.6171
 2.2390	13.4910
 2.2380	13.6166
 2.2370	13.5696
 2.2360	13.5939
 2.2350	13.4795
 2.2340	13.5197
 2.2330	13.4704
 2.2320	13.5181
 2.2310	13.4538
 2.2300	13.6359
 2.2290	13.3381
 2.2280	13.4141
 2.2270	13.3919
 2.2260	13.5412
 2.2250	13.3710
 2.2240	13.4265
 2.2230	13.2307
 2.2220	13.4505
 2.2210	13.2956
 2.2200	13.3587
 2.2190	13.2374
 2.2180	13.3154
 2.2170	13.2129
 2.2160	13.3275
 2.2150	13.2267
 2.2140	13.3017
 2.2130	13.0923
 2.2120	13.4022
 2.2110	12.9379
 2.2100	13.2648
 2.2090	13.0043
 2.2080	13.2181
 2.2070	13.0396
 2.2060	13.1283
 2.2050	13.0508
 2.2040	13.0731
 2.2030	12.9067
 2.2020	13.1487
 2.2010	12.8711
 2.2000	13.0543
 2.1990	12.9490
 2.1980	12.9685
 2.1970	12.8463
 2.1960	13.0045
 2.1950	12.8123
 2.1940	12.9048
 2.1930	12.8193
 2.1920	12.8984
 2.1910	12.7464
 2.1900	12.8801
 2.1890	12.7731
 2.1880	12.8755
 2.1870	12.7545
 2.1860	12.7961
 2.1850	12.7141
 2.1840	12.7696
 2.1830	12.6998
 2.1820	12.8172
 2.1810	12.6960
 2.1800	12.7395
 2.1790	12.6467
 2.1780	12.6529
 2.1770	12.6451
 2.1760	12.7246
 2.1750	12.5831
 2.1740	12.5892
 2.1730	12.5738
 2.1720	12.6176
 2.1710	12.5673
 2.1700	12.5907
 2.1690	12.5632
 2.1680	12.6146
 2.1670	12.5039
 2.1660	12.5686
 2.1650	12.5184
 2.1640	12.5420
 2.1630	12.4645
 2.1620	12.5389
 2.1610	12.5004
 2.1600	12.4993
 2.1590	12.4584
 2.1580	12.5543
 2.1570	12.4649
 2.1560	12.4349
 2.1550	12.4299
 2.1540	12.5359
 2.1530	12.3785
 2.1520	12.4113
 2.1510	12.3785
 2.1500	12.4412
 2.1490	12.3593
 2.1480	12.3526
 2.1470	12.2634
 2.1460	12.4481
 2.1450	12.3561
 2.1440	12.4341
 2.1430	12.3120
 2.1420	12.3089
 2.1410	12.2308
 2.1400	12.3618
 2.1390	12.2583
 2.1380	12.2578
 2.1370	12.2611
 2.1360	12.2984
 2.1350	12.2337
 2.1340	12.2574
 2.1330	12.1344
 2.1320	12.2127
 2.1310	12.2025
 2.1300	12.2308
 2.1290	12.1427
 2.1280	12.1818
 2.1270	12.0962
 2.1260	12.1881
 2.1250	12.0796
 2.1240	12.0920
 2.1230	12.0841
 2.1220	12.0936
 2.1210	12.0140
 2.1200	12.0844
 2.1190	12.0116
 2.1180	12.0910
 2.1170	11.9981
 2.1160	12.0249
 2.1150	11.9852
 2.1140	12.0323
 2.1130	11.9843
 2.1120	11.9855
 2.1110	11.9511
 2.1100	11.9972
 2.1090	11.9447
 2.1080	11.9088
 2.1070	11.8922
 2.1060	11.8879
 2.1050	11.8970
 2.1040	11.9130
 2.1030	11.8395
 2.1020	11.8799
 2.1010	11.8675
 2.1000	11.8998
 2.0990	11.8351
 2.0980	11.8389
 2.0970	11.7853
 2.0960	11.8082
 2.0950	11.7844
 2.0940	11.8333
 2.0930	11.8450
 2.0920	11.8702
 2.0910	11.8285
 2.0900	11.8165
 2.0890	11.8257
 2.0880	11.8396
 2.0870	11.8420
 2.0860	11.8504
 2.0850	11.8453
 2.0840	11.7915
 2.0830	11.8052
 2.0820	11.8428
 2.0810	11.8005
 2.0800	11.8518
 2.0790	11.8454
 2.0780	11.8467
 2.0770	11.8490
 2.0760	11.8648
 2.0750	11.8621
 2.0740	11.8289
 2.0730	11.8172
 2.0720	11.8290
 2.0710	11.8293
 2.0700	11.8590
 2.0690	11.9286
 2.0680	11.8717
 2.0670	11.8726
 2.0660	11.8995
 2.0650	11.8993
 2.0640	11.9095
 2.0630	11.9093
 2.0620	11.8726
 2.0610	11.8915
 2.0600	11.8713
 2.0590	11.8669
 2.0580	11.8737
 2.0570	11.9238
 2.0560	11.9218
 2.0550	11.9519
 2.0540	11.9547
 2.0530	11.9507
 2.0520	11.9012
 2.0510	11.9179
 2.0500	11.9525
 2.0490	12.0007
 2.0480	11.9754
 2.0470	11.9857
 2.0460	11.9741
 2.0450	11.9688
 2.0440	11.9738
 2.0430	12.0315
 2.0420	12.0001
 2.0410	12.0363
 2.0400	11.9993
 2.0390	12.0076
 2.0380	11.9951
 2.0370	12.0719
 2.0360	12.0414
 2.0350	12.0460
 2.0340	12.0908
 2.0330	12.0769
 2.0320	12.0233
 2.0310	12.1146
 2.0300	12.0785
 2.0290	12.1140
 2.0280	12.0685
 2.0270	12.1000
 2.0260	12.1081
 2.0250	12.1408
 2.0240	12.1018
 2.0230	12.1633
 2.0220	12.1485
 2.0210	12.1100
 2.0200	12.1196
 2.0190	12.1809
 2.0180	12.1531
 2.0170	12.2087
 2.0160	12.1648
 2.0150	12.2025
 2.0140	12.1527
 2.0130	12.2378
 2.0120	12.2057
 2.0110	12.2508
 2.0100	12.1949
 2.0090	12.2506
 2.0080	12.2117
 2.0070	12.2764
 2.0060	12.2202
 2.0050	12.3377
 2.0040	12.2748
 2.0030	12.3769
 2.0020	12.3552
 2.0010	12.3763
 2.0000	12.3237
 1.9990	12.4371
 1.9980	12.3610
 1.9970	12.4457
 1.9960	12.3950
 1.9950	12.3858
 1.9940	12.4041
 1.9930	12.4794
 1.9920	12.3907
 1.9910	12.5346
 1.9900	12.4274
 1.9890	12.4886
 1.9880	12.4385
 1.9870	12.5326
 1.9860	12.4942
 1.9850	12.5694
 1.9840	12.4543
 1.9830	12.5734
 1.9820	12.5179
 1.9810	12.6060
 1.9800	12.5607
 1.9790	12.6415
 1.9780	12.5252
 1.9770	12.6617
 1.9760	12.5973
 1.9750	12.6003
 1.9740	12.6398
 1.9730	12.6912
 1.9720	12.6558
 1.9710	12.7227
 1.9700	12.6915
 1.9690	12.7491
 1.9680	12.7111
 1.9670	12.7777
 1.9660	12.6943
 1.9650	12.7956
 1.9640	12.7674
 1.9630	12.7969
 1.9620	12.7975
 1.9610	12.9123
 1.9600	12.7236
 1.9590	12.8722
 1.9580	12.8276
 1.9570	12.9804
 1.9560	12.8734
 1.9550	13.0190
 1.9540	12.8884
 1.9530	13.0339
 1.9520	12.9390
 1.9510	12.9879
 1.9500	13.0277
 1.9490	13.0813
 1.9480	12.9776
 1.9470	13.1386
 1.9460	13.0374
 1.9450	13.1912
 1.9440	13.0403
 1.9430	13.2210
 1.9420	13.0418
 1.9410	13.2376
 1.9400	13.1108
 1.9390	13.2168
 1.9380	13.2531
 1.9370	13.2930
 1.9360	13.1399
 1.9350	13.3745
 1.9340	13.2461
 1.9330	13.4116
 1.9320	13.2938
 1.9310	13.4461
 1.9300	13.3716
 1.9290	13.5337
 1.9280	13.3872
 1.9270	13.6545
 1.9260	13.2372
 1.9250	13.6091
 1.9240	13.3800
 1.9230	13.6140
 1.9220	13.4949
 1.9210	13.5854
 1.9200	13.5716
 1.9190	13.6852
 1.9180	13.5947
 1.9170	13.7328
 1.9160	13.6672
 1.9150	13.7296
 1.9140	13.7059
 1.9130	13.8638
 1.9120	13.7674
 1.9110	13.9137
 1.9100	13.9063
 1.9090	13.9760
 1.9080	13.9324
 1.9070	14.0339
 1.9060	13.9720
 1.9050	14.1107
 1.9040	14.0366
 1.9030	14.1894
 1.9020	14.0549
 1.9010	14.1916
 1.9000	14.2131
 1.8990	14.2850
 1.8980	14.2339
 1.8970	14.3973
 1.8960	14.3158
 1.8950	14.4651
 1.8940	14.3778
 1.8930	14.5105
 1.8920	14.3658
 1.8910	14.5283
 1.8900	14.4851
 1.8890	14.6621
 1.8880	14.5603
 1.8870	14.6940
 1.8860	14.6873
 1.8850	14.7715
 1.8840	14.6946
 1.8830	14.8549
 1.8820	14.8424
 1.8810	14.9171
 1.8800	14.8299
 1.8790	15.0112
 1.8780	15.0348
 1.8770	15.1047
 1.8760	15.0067
 1.8750	15.0907
 1.8740	15.1046
 1.8730	15.1912
 1.8720	15.1776
 1.8710	15.2846
 1.8700	15.2932
 1.8690	15.3565
 1.8680	15.3598
 1.8670	15.4766
 1.8660	15.3969
 1.8650	15.5743
 1.8640	15.5540
 1.8630	15.6708
 1.8620	15.6119
 1.8610	15.7242
 1.8600	15.6792
 1.8590	15.7167
 1.8580	15.7690
 1.8570	15.8556
 1.8560	15.8058
 1.8550	15.9383
 1.8540	15.9229
 1.8530	16.0433
 1.8520	16.0610
 1.8510	16.1195
 1.8500	16.0840
 1.8490	16.1553
 1.8480	16.2150
 1.8470	16.2864
 1.8460	16.2819
 1.8450	16.3867
 1.8440	16.3476
 1.8430	16.4541
 1.8420	16.4241
 1.8410	16.5288
 1.8400	16.5186
 1.8390	16.5828
 1.8380	16.6085
 1.8370	16.7117
 1.8360	16.7063
 1.8350	16.9496
 1.8340	17.4080
 1.8330	17.7076
 1.8320	17.5842
 1.8310	17.5841
 1.8300	17.5172
 1.8290	17.5505
 1.8280	17.5824
 1.8270	17.6471
 1.8260	17.5867
 1.8250	17.5363
 1.8240	17.5578
 1.8230	17.6373
 1.8220	17.6046
 1.8210	17.7098
 1.8200	17.7018
 1.8190	17.7412
 1.8180	17.7587
 1.8170	17.8589
 1.8160	17.8857
 1.8150	17.9349
 1.8140	17.9263
 1.8130	18.0085
 1.8120	18.0321
 1.8110	18.0409
 1.8100	18.0768
 1.8090	18.1723
 1.8080	18.1788
 1.8070	18.2534
 1.8060	18.3183
 1.8050	18.3702
 1.8040	18.4230
 1.8030	18.4003
 1.8020	18.4458
 1.8010	18.5535
 1.8000	18.5701
 1.7990	18.6867
 1.7980	18.7092
 1.7970	18.7715
 1.7960	18.8208
 1.7950	18.8629
 1.7940	18.9205
 1.7930	18.9586
 1.7920	19.0405
 1.7910	19.0669
 1.7900	19.0875
 1.7890	19.1911
 1.7880	19.2457
 1.7870	19.2800
 1.7860	19.3114
 1.7850	19.4290
 1.7840	19.4900
 1.7830	19.5207
 1.7820	19.6023
 1.7810	19.6450
 1.7800	19.7054
 1.7790	19.7828
 1.7780	19.8400
 1.7770	19.9109
 1.7760	19.9684
 1.7750	19.9976
 1.7740	20.0942
 1.7730	20.1299
 1.7720	20.1953
 1.7710	20.3039
 1.7700	20.3811
 1.7690	20.4213
 1.7680	20.4993
 1.7670	20.5361
 1.7660	20.5825
 1.7650	20.6445
 1.7640	20.7521
 1.7630	20.7853
 1.7620	20.8963
 1.7610	20.9752
 1.7600	21.0475
 1.7590	21.0438
 1.7580	21.1146
 1.7570	21.1760
 1.7560	21.2419
 1.7550	21.2701
 1.7540	21.3880
 1.7530	21.4518
 1.7520	21.5170
 1.7510	21.5737
 1.7500	21.7037
 1.7490	21.7398
 1.7480	21.8463
 1.7470	21.9178
 1.7460	22.0375
 1.7450	22.0002
 1.7440	22.1060
 1.7430	22.2277
 1.7420	22.2623
 1.7410	22.3206
 1.7400	22.4917
 1.7390	22.5034
 1.7380	22.5719
 1.7370	22.5989
 1.7360	22.7380
 1.7350	22.8342
 1.7340	22.9104
 1.7330	22.9432
 1.7320	23.0486
 1.7310	23.0976
 1.7300	23.2791
 1.7290	23.2582
 1.7280	23.3917
 1.7270	23.4261
 1.7260	23.5833
 1.7250	23.5634
 1.7240	23.6844
 1.7230	23.7403
 1.7220	23.8322
 1.7210	23.8577
 1.7200	24.0332
 1.7190	24.0904
 1.7180	24.1554
 1.7170	24.1393
 1.7160	24.3327
 1.7150	24.3625
 1.7140	24.4918
 1.7130	24.4904
 1.7120	24.6621
 1.7110	24.7055
 1.7100	24.8171
 1.7090	24.9037
 1.7080	24.9804
 1.7070	25.0657
 1.7060	25.1633
 1.7050	25.2014
 1.7040	25.3061
 1.7030	25.3203
 1.7020	25.4536
 1.7010	25.5630
 1.7000	25.6011
 1.6990	25.6962
 1.6980	25.7734
 1.6970	25.7694
 1.6960	26.0014
 1.6950	25.9747
 1.6940	26.2290
 1.6930	26.1940
 1.6920	26.3352
 1.6910	26.3361
 1.6900	26.4192
 1.6890	26.5407
 1.6880	26.6796
 1.6870	26.7005
 1.6860	26.8625
 1.6850	26.9010
 1.6840	27.0205
 1.6830	27.0581
 1.6820	27.2257
 1.6810	27.2613
 1.6800	27.3559
 1.6790	27.3492
 1.6780	27.5733
 1.6770	27.5596
 1.6760	27.7370
 1.6750	27.7842
 1.6740	27.9697
 1.6730	27.9690
 1.6720	28.1825
 1.6710	28.1289
 1.6700	28.3997
 1.6690	28.5445
 1.6680	28.4116
 1.6670	28.5342
 1.6660	28.7392
 1.6650	28.6782
 1.6640	28.8736
 1.6630	28.9098
 1.6620	29.1006
 1.6610	29.1101
 1.6600	29.3266
 1.6590	29.3004
 1.6580	29.4594
 1.6570	29.5714
 1.6560	29.6525
 1.6550	29.6731
 1.6540	29.8265
 1.6530	29.8419
 1.6520	30.1089
 1.6510	29.9510
 1.6500	30.2763
 1.6490	30.2191
 1.6480	30.3947
 1.6470	30.4276
 1.6460	30.6471
 1.6450	30.6560
 1.6440	30.7614
 1.6430	30.8622
 1.6420	31.1101
 1.6410	30.9399
 1.6400	31.2430
 1.6390	31.2952
 1.6380	31.4099
 1.6370	31.3935
 1.6360	31.6676
 1.6350	31.6746
 1.6340	31.8590
 1.6330	31.8623
 1.6320	31.9804
 1.6310	32.0660
 1.6300	32.2167
 1.6290	32.2218
 1.6280	32.3568
 1.6270	32.4127
 1.6260	32.6640
 1.6250	32.6599
 1.6240	32.7766
 1.6230	32.8207
 1.6220	32.9796
 1.6210	33.1193
 1.6200	33.2149
 1.6190	33.1644
 1.6180	33.4476
 1.6170	33.4565
 1.6160	33.5971
 1.6150	33.6067
 1.6140	33.7308
 1.6130	33.8616
 1.6120	34.0400
 1.6110	34.0230
 1.6100	34.2045
 1.6090	34.1401
 1.6080	34.3573
 1.6070	34.3757
 1.6060	34.5223
 1.6050	34.5447
 1.6040	34.7395
 1.6030	34.7718
 1.6020	34.9542
 1.6010	34.9190
 1.6000	35.1210
 1.5990	35.1434
 1.5980	35.2948
 1.5970	35.2811
 1.5960	35.4211
 1.5950	35.5196
 1.5940	35.6429
 1.5930	35.6452
 1.5920	35.7847
 1.5910	35.8638
 1.5900	36.0425
 1.5890	36.0049
 1.5880	36.1313
 1.5870	36.1766
 1.5860	36.2935
 1.5850	36.3234
 1.5840	36.4852
 1.5830	36.4730
 1.5820	36.5707
 1.5810	36.6436
 1.5800	36.7284
 1.5790	36.7732
 1.5780	36.9123
 1.5770	36.8747
 1.5760	37.0079
 1.5750	37.0687
 1.5740	37.0989
 1.5730	37.1629
 1.5720	37.2387
 1.5710	37.2462
 1.5700	37.3175
 1.5690	37.3653
 1.5680	37.4302
 1.5670	37.4780
 1.5660	37.5062
 1.5650	37.5152
 1.5640	37.6230
 1.5630	37.5699
 1.5620	37.6368
 1.5610	37.5989
 1.5600	37.6939
 1.5590	37.6796
 1.5580	37.7794
 1.5570	37.7092
 1.5560	37.7915
 1.5550	37.7650
 1.5540	37.8338
 1.5530	37.8718
 1.5520	37.9408
 1.5510	37.9215
 1.5500	37.9872
 1.5490	38.0084
 1.5480	37.9969
 1.5470	38.0603
 1.5460	38.1770
 1.5450	38.1427
 1.5440	38.2596
 1.5430	38.2396
 1.5420	38.2890
 1.5410	38.3444
 1.5400	38.4221
 1.5390	38.4461
 1.5380	38.5303
 1.5370	38.6177
 1.5360	38.6499
 1.5350	38.6811
 1.5340	38.7382
 1.5330	38.7902
 1.5320	38.9239
 1.5310	39.0144
 1.5300	39.0127
 1.5290	39.0095
 1.5280	39.0725
 1.5270	39.1390
 1.5260	39.1811
 1.5250	39.2315
 1.5240	39.3405
 1.5230	39.4094
 1.5220	39.4424
 1.5210	39.4590
 1.5200	39.4863
 1.5190	39.4978
 1.5180	39.5718
 1.5170	39.6197
 1.5160	39.6693
 1.5150	39.6843
 1.5140	39.7318
 1.5130	39.7383
 1.5120	39.7610
 1.5110	39.7975
 1.5100	39.8253
 1.5090	39.8531
 1.5080	39.8259
 1.5070	39.8064
 1.5060	39.8348
 1.5050	39.8576
 1.5040	39.8341
 1.5030	39.8290
 1.5020	39.8248
 1.5010	39.8250
 1.5000	39.8179
 1.4990	39.8202
 1.4980	39.8106
 1.4970	39.7388
 1.4960	39.7012
 1.4950	39.6571
 1.4940	39.5870
 1.4930	39.5315
 1.4920	39.4712
 1.4910	39.4520
 1.4900	39.3851
 1.4890	39.3139
 1.4880	39.2703
 1.4870	39.1950
 1.4860	39.0789
 1.4850	39.0077
 1.4840	38.9269
 1.4830	38.8470
 1.4820	38.7527
 1.4810	38.6587
 1.4800	38.5274
 1.4790	38.4395
 1.4780	38.3399
 1.4770	38.2015
 1.4760	38.0459
 1.4750	38.0194
 1.4740	37.9037
 1.4730	37.7640
 1.4720	37.6033
 1.4710	37.4754
 1.4700	37.2972
 1.4690	37.1911
 1.4680	37.0541
 1.4670	36.8756
 1.4660	36.7731
 1.4650	36.6473
 1.4640	36.4037
 1.4630	36.2312
 1.4620	36.0716
 1.4610	35.9019
 1.4600	35.7397
 1.4590	35.5929
 1.4580	35.3556
 1.4570	35.1839
 1.4560	35.0089
 1.4550	34.8262
 1.4540	34.6046
 1.4530	34.4252
 1.4520	34.2259
 1.4510	34.0721
 1.4500	33.8030
 1.4490	33.6183
 1.4480	33.4368
 1.4470	33.2403
 1.4460	33.0371
 1.4450	32.8213
 1.4440	32.5573
 1.4430	32.3567
 1.4420	32.1525
 1.4410	31.9817
 1.4400	31.7000
 1.4390	31.5183
 1.4380	31.2239
 1.4370	31.0512
 1.4360	30.7644
 1.4350	30.5487
 1.4340	30.2923
 1.4330	30.0704
 1.4320	29.7877
 1.4310	29.6416
 1.4300	29.3612
 1.4290	29.1199
 1.4280	28.9414
 1.4270	28.6739
 1.4260	28.3664
 1.4250	28.2236
 1.4240	27.8583
 1.4230	27.6915
 1.4220	27.5116
 1.4210	27.2869
 1.4200	26.9662
 1.4190	26.7132
 1.4180	26.5129
 1.4170	26.3025
 1.4160	26.0136
 1.4150	25.9111
 1.4140	25.5761
 1.4130	25.3294
 1.4120	25.1182
 1.4110	25.0140
 1.4100	24.7032
 1.4090	24.4650
 1.4080	24.2029
 1.4070	23.9458
 1.4060	23.6825
 1.4050	23.5027
 1.4040	23.2868
 1.4030	23.1372
 1.4020	22.8467
 1.4010	22.6278
 1.4000	22.3189
 1.3990	22.1935
 1.3980	21.9097
 1.3970	21.7567
 1.3960	21.5970
 1.3950	21.3285
 1.3940	21.0255
 1.3930	20.8481
 1.3920	20.6648
 1.3910	20.5627
 1.3900	20.2573
 1.3890	20.0520
 1.3880	19.9071
 1.3870	19.7197
 1.3860	19.4204
 1.3850	19.2991
 1.3840	19.0740
 1.3830	18.8276
 1.3820	18.4788
 1.3810	18.3823
 1.3800	18.1134
 1.3790	18.1066
 1.3780	17.7667
 1.3770	17.8068
 1.3760	17.4406
 1.3750	17.3452
 1.3740	17.1184
 1.3730	17.0006
 1.3720	16.7600
 1.3710	16.7410
 1.3700	16.3787
 1.3690	16.3523
 1.3680	16.0856
 1.3670	15.9886
 1.3660	15.7322
 1.3650	15.6884
 1.3640	15.4411
 1.3630	15.3753
 1.3620	15.0073
 1.3610	15.0341
 1.3600	14.7895
 1.3590	14.6603
 1.3580	14.5254
 1.3570	14.4746
 1.3560	14.2551
 1.3550	13.9470
 1.3540	13.9364
 1.3530	13.8135
 1.3520	13.6550
 1.3510	13.6580
 1.3500	13.3522
 1.3490	13.3856
 1.3480	13.0138
 1.3470	13.1069
 1.3460	12.8568
 1.3450	12.8345
 1.3440	12.6405
 1.3430	12.6065
 1.3420	12.5106
 1.3410	12.4487
 1.3400	12.2235
 1.3390	12.1466
 1.3380	12.0122
 1.3370	11.9816
 1.3360	11.7540
 1.3350	11.7707
 1.3340	11.5722
 1.3330	11.5384
 1.3320	11.3788
 1.3310	11.3653
 1.3300	11.1102
 1.3290	11.1380
 1.3280	11.0400
 1.3270	10.9656
 1.3260	10.8002
 1.3250	10.7831
 1.3240	10.6381
 1.3230	10.6068
 1.3220	10.4555
 1.3210	10.4045
 1.3200	10.3491
 1.3190	10.2951
 1.3180	10.1535
 1.3170	10.1666
 1.3160	10.0308
 1.3150	 9.9262
 1.3140	 9.9079
 1.3130	 9.8391
 1.3120	 9.7684
 1.3110	 9.6982
 1.3100	 9.5547
 1.3090	 9.5020
 1.3080	 9.4549
 1.3070	 9.4809
 1.3060	 9.2579
 1.3050	 9.3815
 1.3040	 9.2339
 1.3030	 9.2111
 1.3020	 9.0590
 1.3010	 9.0746
 1.3000	 8.8693
 1.2990	 8.9075
 1.2980	 8.8169
 1.2970	 8.8145
 1.2960	 8.7114
 1.2950	 8.7194
 1.2940	 8.6276
 1.2930	 8.6252
 1.2920	 8.5101
 1.2910	 8.5413
 1.2900	 8.4711
 1.2890	 8.4450
 1.2880	 8.3488
 1.2870	 8.3206
 1.2860	 8.2452
 1.2850	 8.2424
 1.2840	 8.1822
 1.2830	 8.1664
 1.2820	 8.0897
 1.2810	 8.0551
 1.2800	 7.9700
 1.2790	 8.0302
 1.2780	 7.8812
 1.2770	 7.8779
 1.2760	 7.8156
 1.2750	 7.8627
 1.2740	 7.8170
 1.2730	 7.7469
 1.2720	 7.6872
 1.2710	 7.6615
 1.2700	 7.6002
 1.2690	 7.6497
 1.2680	 7.5926
 1.2670	 7.5267
 1.2660	 7.5053
 1.2650	 7.4856
 1.2640	 7.4461
 1.2630	 7.4635
 1.2620	 7.3924
 1.2610	 7.4174
 1.2600	 7.3491
 1.2590	 7.3424
 1.2580	 7.3028
 1.2570	 7.3174
 1.2560	 7.1925
 1.2550	 7.2284
 1.2540	 7.1845
 1.2530	 7.1424
 1.2520	 7.0910
 1.2510	 7.1141
 1.2500	 7.1386
 1.2490	 7.1503
 1.2480	 7.0349
 1.2470	 7.0214
 1.2460	 6.9530
 1.2450	 6.9649
 1.2440	 6.9659
 1.2430	 6.9279
 1.2420	 6.9249
 1.2410	 6.9473
 1.2400	 6.8568
 1.2390	 6.8697
 1.2380	 6.8130
 1.2370	 6.8019
 1.2360	 6.7993
 1.2350	 6.8166
 1.2340	 6.7932
 1.2330	 6.7999
 1.2320	 6.7589
 1.2310	 6.7471
 1.2300	 6.6887
 1.2290	 6.6746
 1.2280	 6.6487
 1.2270	 6.6527
 1.2260	 6.6621
 1.2250	 6.6378
 1.2240	 6.5826
 1.2230	 6.5776
 1.2220	 6.5938
 1.2210	 6.5844
 1.2200	 6.5440
 1.2190	 6.5667
 1.2180	 6.5133
 1.2170	 6.4879
 1.2160	 6.5176
 1.2150	 6.4972
 1.2140	 6.4652
 1.2130	 6.4536
 1.2120	 6.4504
 1.2110	 6.4407
 1.2100	 6.4286
 1.2090	 6.4090
 1.2080	 6.4304
 1.2070	 6.4053
 1.2060	 6.3950
 1.2050	 6.4108
 1.2040	 6.4353
 1.2030	 6.3668
 1.2020	 6.3522
 1.2010	 6.3409
 1.2000	 6.3153
 1.1990	 6.3148
 1.1980	 6.2799
 1.1970	 6.2656
 1.1960	 6.3489
 1.1950	 6.3413
 1.1940	 6.3446
 1.1930	 6.3054
 1.1920	 6.2782
 1.1910	 6.2499
 1.1900	 6.2831
 1.1890	 6.3781
 1.1880	 6.2011
 1.1870	 6.2112
 1.1860	 6.3069
 1.1850	 6.2477
 1.1840	 6.2602
 1.1830	 6.2396
 1.1820	 6.2284
 1.1810	 6.2481
 1.1800	 6.3196
 1.1790	 6.1932
 1.1780	 6.2125
 1.1770	 6.2214
 1.1760	 6.2186
 1.1750	 6.2006
 1.1740	 6.2458
 1.1730	 6.1977
 1.1720	 6.2278
 1.1710	 6.2120
 1.1700	 6.2549
 1.1690	 6.2127
 1.1680	 6.2243
 1.1670	 6.2092
 1.1660	 6.2345
 1.1650	 6.1591
 1.1640	 6.1989
 1.1630	 6.1506
 1.1620	 6.1989
 1.1610	 6.2009
 1.1600	 6.2315
 1.1590	 6.1719
 1.1580	 6.1896
 1.1570	 6.1886
 1.1560	 6.2135
 1.1550	 6.2237
 1.1540	 6.2628
 1.1530	 6.2126
 1.1520	 6.2625
 1.1510	 6.2336
 1.1500	 6.2676
 1.1490	 6.1759
 1.1480	 6.2596
 1.1470	 6.2124
 1.1460	 6.2624
 1.1450	 6.2089
 1.1440	 6.2829
 1.1430	 6.1956
 1.1420	 6.2440
 1.1410	 6.2506
 1.1400	 6.2891
 1.1390	 6.1964
 1.1380	 6.2228
 1.1370	 6.2605
 1.1360	 6.3163
 1.1350	 6.2572
 1.1340	 6.3008
 1.1330	 6.2691
 1.1320	 6.3472
 1.1310	 6.2789
 1.1300	 6.3816
 1.1290	 6.3144
 1.1280	 6.3838
 1.1270	 6.3276
 1.1260	 6.3977
 1.1250	 6.3427
 1.1240	 6.4414
 1.1230	 6.3632
 1.1220	 6.3738
 1.1210	 6.3473
 1.1200	 6.4792
 1.1190	 6.3508
 1.1180	 6.4665
 1.1170	 6.3621
 1.1160	 6.4892
 1.1150	 6.4510
 1.1140	 6.5611
 1.1130	 6.4678
 1.1120	 6.5317
 1.1110	 6.4605
 1.1100	 6.6149
 1.1090	 6.4898
 1.1080	 6.5674
 1.1070	 6.4831
 1.1060	 6.6029
 1.1050	 6.5728
 1.1040	 6.6137
 1.1030	 6.5590
 1.1020	 6.7181
 1.1010	 6.6736
 1.1000	 6.6843
 1.0990	 6.6053
 1.0980	 6.6795
 1.0970	 6.6864
 1.0960	 6.7605
 1.0950	 6.6483
 1.0940	 6.7802
 1.0930	 6.7685
 1.0920	 6.8234
 1.0910	 6.7425
 1.0900	 6.8929
 1.0890	 6.8029
 1.0880	 6.9796
 1.0870	 6.8661
 1.0860	 7.0770
 1.0850	 6.9089
 1.0840	 7.0510
 1.0830	 6.9543
 1.0820	 7.0878
 1.0810	 6.9873
 1.0800	 7.1014
 1.0790	 6.9952
 1.0780	 7.1493
 1.0770	 7.0793
 1.0760	 7.2129
 1.0750	 7.1071
 1.0740	 7.2577
 1.0730	 7.1317
 1.0720	 7.3235
 1.0710	 7.3976
 1.0700	 7.2282
 1.0690	 7.3649
 1.0680	 7.3672
 1.0670	 7.4010
 1.0660	 7.5425
 1.0650	 7.4364
 1.0640	 7.6317
 1.0630	 7.5148
 1.0620	 7.7224
 1.0610	 7.6342
 1.0600	 7.7596
 1.0590	 7.6034
 1.0580	 7.8293
 1.0570	 7.7043
 1.0560	 7.8412
 1.0550	 7.7620
 1.0540	 7.9704
 1.0530	 7.8886
 1.0520	 8.0868
 1.0510	 7.9799
 1.0500	 8.0422
 1.0490	 7.9987
 1.0480	 8.2602
 1.0470	 8.1099
 1.0460	 8.2524
 1.0450	 8.1869
 1.0440	 8.3977
 1.0430	 8.3080
 1.0420	 8.5023
 1.0410	 8.4754
 1.0400	 8.5181
 1.0390	 8.5285
 1.0380	 8.6584
 1.0370	 8.6276
 1.0360	 8.7840
 1.0350	 8.7388
 1.0340	 8.8899
 1.0330	 8.7984
 1.0320	 9.0573
 1.0310	 8.9425
 1.0300	 9.0786
 1.0290	 9.1474
 1.0280	 9.1871
 1.0270	 9.2129
 1.0260	 9.4035
 1.0250	 9.4056
 1.0240	 9.4612
 1.0230	 9.4847
 1.0220	 9.6277
 1.0210	 9.6230
 1.0200	 9.7271
 1.0190	 9.8170
 1.0180	10.0266
 1.0170	 9.9871
 1.0160	10.1442
 1.0150	10.0353
 1.0140	10.1770
 1.0130	10.3259
 1.0120	10.3902
 1.0110	10.4330
 1.0100	10.6646
 1.0090	10.6427
 1.0080	10.7338
 1.0070	10.7963
 1.0060	10.9673
 1.0050	11.0340
 1.0040	11.0978
 1.0030	11.1343
 1.0020	11.3072
 1.0010	11.4048
 1.0000	11.5428
 0.9990	11.6146
 0.9980	11.7273
 0.9970	11.8486
 0.9960	12.0334
 0.9950	12.0842
 0.9940	12.1352
 0.9930	12.2339
 0.9920	12.4532
 0.9910	12.5407
 0.9900	12.6232
 0.9890	12.6435
 0.9880	12.8539
 0.9870	13.0151
 0.9860	13.2235
 0.9850	13.2700
 0.9840	13.4082
 0.9830	13.5364
 0.9820	13.7337
 0.9810	13.8240
 0.9800	14.0212
 0.9790	14.0889
 0.9780	14.3273
 0.9770	14.4307
 0.9760	14.6311
 0.9750	14.7458
 0.9740	14.8958
 0.9730	15.0400
 0.9720	15.2230
 0.9710	15.3817
 0.9700	15.5649
 0.9690	15.7026
 0.9680	15.9020
 0.9670	16.0310
 0.9660	16.2073
 0.9650	16.3697
 0.9640	16.6423
 0.9630	16.7999
 0.9620	16.9760
 0.9610	17.1677
 0.9600	17.4073
 0.9590	17.6152
 0.9580	17.7846
 0.9570	17.9938
 0.9560	18.2556
 0.9550	18.4363
 0.9540	18.6852
 0.9530	18.8783
 0.9520	19.0662
 0.9510	19.2756
 0.9500	19.5240
 0.9490	19.7264
 0.9480	19.9690
 0.9470	20.1756
 0.9460	20.4622
 0.9450	20.7175
 0.9440	20.9231
 0.9430	21.1430
 0.9420	21.4078
 0.9410	21.6758
 0.9400	21.9175
 0.9390	22.1880
 0.9380	22.4489
 0.9370	22.6940
 0.9360	22.9778
 0.9350	23.2328
 0.9340	23.4967
 0.9330	23.7715
 0.9320	24.0419
 0.9310	24.3235
 0.9300	24.6332
 0.9290	24.8967
 0.9280	25.1335
 0.9270	25.4246
 0.9260	25.7226
 0.9250	26.0455
 0.9240	26.3343
 0.9230	26.6351
 0.9220	26.8963
 0.9210	27.1995
 0.9200	27.4935
 0.9190	27.7942
 0.9180	28.0737
 0.9170	28.3870
 0.9160	28.7008
 0.9150	28.9693
 0.9140	29.2656
 0.9130	29.6250
 0.9120	29.9356
 0.9110	30.2663
 0.9100	30.5592
 0.9090	30.9178
 0.9080	31.2092
 0.9070	31.5535
 0.9060	31.9038
 0.9050	32.1990
 0.9040	32.4805
 0.9030	32.8603
 0.9020	33.1736
 0.9010	33.5067
 0.9000	33.7719
 0.8990	34.1223
 0.8980	34.5044
 0.8970	34.8696
 0.8960	35.1912
 0.8950	35.5093
 0.8940	35.8088
 0.8930	36.1693
 0.8920	36.4345
 0.8910	36.8042
 0.8900	37.1211
 0.8890	37.4113
 0.8880	37.6824
 0.8870	38.0631
 0.8860	38.3737
 0.8850	38.7198
 0.8840	39.0324
 0.8830	39.4375
 0.8820	39.7135
 0.8810	39.9846
 0.8800	40.2903
 0.8790	40.6402
 0.8780	40.8772
 0.8770	41.2050
 0.8760	41.4962
 0.8750	41.8272
 0.8740	42.0670
 0.8730	42.4277
 0.8720	42.6879
 0.8710	43.0615
 0.8700	43.2641
 0.8690	43.5280
 0.8680	43.8153
 0.8670	44.1530
 0.8660	44.3948
 0.8650	44.7019
 0.8640	44.9509
 0.8630	45.2680
 0.8620	45.4892
 0.8610	45.8078
 0.8600	46.3877
 0.8590	46.7981
 0.8580	47.0122
 0.8570	47.2743
 0.8560	47.6286
 0.8550	47.8261
 0.8540	48.0931
 0.8530	48.3868
 0.8520	48.5561
 0.8510	48.7996
 0.8500	49.0417
 0.8490	49.2507
 0.8480	49.4396
 0.8470	49.6850
 0.8460	49.9260
 0.8450	50.0893
 0.8440	50.3252
 0.8430	50.5893
 0.8420	50.7185
 0.8410	50.9164
 0.8400	51.1209
 0.8390	51.2859
 0.8380	51.4777
 0.8370	51.6387
 0.8360	51.7734
 0.8350	51.9479
 0.8340	52.1256
 0.8330	52.2830
 0.8320	52.4237
 0.8310	52.5496
 0.8300	52.7074
 0.8290	52.8233
 0.8280	52.9710
 0.8270	53.0854
 0.8260	53.1852
 0.8250	53.2778
 0.8240	53.4281
 0.8230	53.5130
 0.8220	53.5823
 0.8210	53.6884
 0.8200	53.7787
 0.8190	53.8709
 0.8180	53.9297
 0.8170	54.0137
 0.8160	54.1100
 0.8150	54.1499
 0.8140	54.1991
 0.8130	54.2572
 0.8120	54.3200
 0.8110	54.3855
 0.8100	54.3868
 0.8090	54.4588
 0.8080	54.4782
 0.8070	54.4599
 0.8060	54.5389
 0.8050	54.5248
 0.8040	54.5354
 0.8030	54.6226
 0.8020	54.5836
 0.8010	54.6065
 0.8000	54.6063
 0.7990	54.5885
 0.7980	54.5782
 0.7970	54.5886
 0.7960	54.5430
 0.7950	54.4885
 0.7940	54.4750
 0.7930	54.4547
 0.7920	54.3930
 0.7910	54.3933
 0.7900	54.3698
 0.7890	54.3131
 0.7880	54.3084
 0.7870	54.2577
 0.7860	54.2298
 0.7850	54.1733
 0.7840	54.1194
 0.7830	54.0517
 0.7820	54.0453
 0.7810	53.9792
 0.7800	53.8918
 0.7790	53.8107
 0.7780	53.7602
 0.7770	53.6370
 0.7760	53.6222
 0.7750	53.5847
 0.7740	53.4538
 0.7730	53.3861
 0.7720	53.2983
 0.7710	53.2084
 0.7700	53.1551
 0.7690	53.0841
 0.7680	52.9954
 0.7670	52.9037
 0.7660	52.8152
 0.7650	52.7172
 0.7640	52.6364
 0.7630	52.5261
 0.7620	52.4687
 0.7610	52.3348
 0.7600	52.2561
 0.7590	52.1600
 0.7580	52.0481
 0.7570	51.9640
 0.7560	51.8564
 0.7550	51.7473
 0.7540	51.6624
 0.7530	51.5212
 0.7520	51.4418
 0.7510	51.3334
 0.7500	51.2113
 0.7490	51.0903
 0.7480	50.9862
 0.7470	50.8733
 0.7460	50.7587
 0.7450	50.6541
 0.7440	50.5517
 0.7430	50.4251
 0.7420	50.3166
 0.7410	50.2255
 0.7400	50.1136
 0.7390	49.9652
 0.7380	49.8545
 0.7370	49.7435
 0.7360	49.6026
 0.7350	49.4842
 0.7340	49.3745
 0.7330	49.2604
 0.7320	49.1125
 0.7310	48.9995
 0.7300	48.8906
 0.7290	48.7574
 0.7280	48.6241
 0.7270	48.5083
 0.7260	48.3607
 0.7250	48.2734
 0.7240	48.1382
 0.7230	47.9948
 0.7220	47.8607
 0.7210	47.7465
 0.7200	47.6201
 0.7190	47.4638
 0.7180	47.3517
 0.7170	47.2121
 0.7160	47.1032
 0.7150	46.9659
 0.7140	46.8408
 0.7130	46.7056
 0.7120	46.5980
 0.7110	46.4541
 0.7100	46.3331
 0.7090	46.1833
 0.7080	46.0373
 0.7070	45.9150
 0.7060	45.7801
 0.7050	45.6368
 0.7040	45.4955
 0.7030	45.3625
 0.7020	45.2276
 0.7010	45.0965
 0.7000	44.9599
 0.6990	44.8402
 0.6980	44.7040
 0.6970	44.5568
 0.6960	44.4342
 0.6950	44.2903
 0.6940	44.1462
 0.6930	44.0133
 0.6920	43.8726
 0.6910	43.7406
 0.6900	43.5994
 0.6890	43.4521
 0.6880	43.3093
 0.6870	43.1866
 0.6860	43.0467
 0.6850	42.9119
 0.6840	42.7803
 0.6830	42.6370
 0.6820	42.4850
 0.6810	42.3402
 0.6800	42.2075
 0.6790	42.0829
 0.6780	41.9289
 0.6770	41.7824
 0.6760	41.6642
 0.6750	41.5283
 0.6740	41.3799
 0.6730	41.2366
 0.6720	41.1039
 0.6710	40.9729
 0.6700	40.8478
 0.6690	40.7144
 0.6680	40.5719
 0.6670	40.4327
 0.6660	40.3026
 0.6650	40.1650
 0.6640	40.0311
 0.6630	39.8921
 0.6620	39.7661
 0.6610	39.6449
 0.6600	39.5085
 0.6590	39.3739
 0.6580	39.2451
 0.6570	39.1158
 0.6560	38.9845
 0.6550	38.8637
 0.6540	38.7294
 0.6530	38.5936
 0.6520	38.4710
 0.6510	38.3517
 0.6500	38.2258
 0.6490	38.0944
 0.6480	37.9653
 0.6470	37.8377
 0.6460	37.7186
 0.6450	37.6002
 0.6440	37.4717
 0.6430	37.3449
 0.6420	37.2257
 0.6410	37.1028
 0.6400	36.9817
 0.6390	36.8615
 0.6380	36.7388
 0.6370	36.6156
 0.6360	36.4956
 0.6350	36.3807
 0.6340	36.2645
 0.6330	36.1367
 0.6320	36.0197
 0.6310	35.9101
 0.6300	35.7951
 0.6290	35.6775
 0.6280	35.5723
 0.6270	35.4772
 0.6260	35.3720
 0.6250	35.2616
 0.6240	35.1428
 0.6230	35.0242
 0.6220	34.9134
 0.6210	34.7962
 0.6200	34.6839
 0.6190	34.5705
 0.6180	34.4524
 0.6170	34.3422
 0.6160	34.2261
 0.6150	34.1185
 0.6140	34.0078
 0.6130	33.8949
 0.6120	33.7835
 0.6110	33.6699
 0.6100	33.5546
 0.6090	33.4393
 0.6080	33.3288
 0.6070	33.2139
 0.6060	33.1028
 0.6050	32.9919
 0.6040	32.8865
 0.6030	32.7774
 0.6020	32.6633
 0.6010	32.5503
 0.6000	32.4395
 0.5990	32.3399
 0.5980	32.2563
 0.5970	32.1766
 0.5960	32.0835
 0.5950	31.9904
 0.5940	31.8827
 0.5930	31.7785
 0.5920	31.6777
 0.5910	31.5698
 0.5900	31.4728
 0.5890	31.3760
 0.5880	31.2759
 0.5870	31.1832
 0.5860	31.0824
 0.5850	30.9860
 0.5840	30.8933
 0.5830	30.8032
 0.5820	30.7106
 0.5810	30.6158
 0.5800	30.5263
 0.5790	30.4403
 0.5780	30.3570
 0.5770	30.2704
 0.5760	30.1861
 0.5750	30.1107
 0.5740	30.0245
 0.5730	29.9428
 0.5720	29.8658
 0.5710	29.7788
 0.5700	29.7017
 0.5690	29.6251
 0.5680	29.5536
 0.5670	29.4789
 0.5660	29.4065
 0.5650	29.3338
 0.5640	29.2592
 0.5630	29.1935
 0.5620	29.1293
 0.5610	29.0508
 0.5600	28.9729
 0.5590	28.9076
 0.5580	28.8455
 0.5570	28.7772
 0.5560	28.7264
 0.5550	28.6668
 0.5540	28.6119
 0.5530	28.5518
 0.5520	28.5034
 0.5510	28.4577
 0.5500	28.4115
 0.5490	28.3638
 0.5480	28.3154
 0.5470	28.2781
 0.5460	28.2434
 0.5450	28.2064
 0.5440	28.1808
 0.5430	28.1464
 0.5420	28.1161
 0.5410	28.0909
 0.5400	28.0712
 0.5390	28.0447
 0.5380	28.0255
 0.5370	28.0054
 0.5360	27.9965
 0.5350	27.9785
 0.5340	27.9609
 0.5330	27.9558
 0.5320	27.9468
 0.5310	27.9378
 0.5300	27.9255
 0.5290	27.9313
 0.5280	27.9347
 0.5270	27.9200
 0.5260	27.9268
 0.5250	27.9304
 0.5240	27.9315
 0.5230	27.9244
 0.5220	27.9235
 0.5210	27.9141
 0.5200	27.9053
 0.5190	27.8897
 0.5180	27.8760
 0.5170	27.8484
 0.5160	27.8323
 0.5150	27.8103
 0.5140	27.7916
 0.5130	27.8024
 0.5120	27.8099
 0.5110	27.8338
 0.5100	27.8747
 0.5090	27.9091
 0.5080	27.9392
 0.5070	27.9753
 0.5060	28.0015
 0.5050	28.0272
 0.5040	28.0370
 0.5030	28.0276
 0.5020	28.0309
 0.5010	28.0288
 0.5000	28.0114
 0.4990	28.0085
 0.4980	28.0133
 0.4970	28.0146
 0.4960	28.0248
 0.4950	28.0430
 0.4940	28.0773
 0.4930	28.0918
 0.4920	28.1320
 0.4910	28.1585
 0.4900	28.1932
 0.4890	28.2353
 0.4880	28.2761
 0.4870	28.3431
 0.4860	28.3877
 0.4850	28.4446
 0.4840	28.4831
 0.4830	28.5379
 0.4820	28.5746
 0.4810	28.6014
 0.4800	28.6003
 0.4790	28.6037
 0.4780	28.5990
 0.4770	28.5636
 0.4760	28.5254
 0.4750	28.4703
 0.4740	28.4056
 0.4730	28.3389
 0.4720	28.2616
 0.4710	28.2091
 0.4700	28.1509
 0.4690	28.1038
 0.4680	28.0535
 0.4670	28.0136
 0.4660	27.9803
 0.4650	27.9466
 0.4640	27.9093
 0.4630	27.8915
 0.4620	27.8540
 0.4610	27.8115
 0.4600	27.7605
 0.4590	27.6928
 0.4580	27.6135
 0.4570	27.5225
 0.4560	27.4165
 0.4550	27.3087
 0.4540	27.1846
 0.4530	27.0533
 0.4520	26.9110
 0.4510	26.7739
 0.4500	26.6082
 0.4490	26.4413
 0.4480	26.2600
 0.4470	26.0713
 0.4460	25.8378
 0.4450	25.6171
 0.4440	25.3530
 0.4430	25.0845
 0.4420	24.8338
 0.4410	24.5824
 0.4400	24.3707
 0.4390	24.2179
 0.4380	24.1175
 0.4370	24.1085
 0.4360	24.1480
 0.4350	24.2026
 0.4340	24.2612
 0.4330	24.3156
 0.4320	24.3178
 0.4310	24.3083
 0.4300	24.3056
 0.4290	24.3071
 0.4280	24.3018
 0.4270	24.3223
 0.4260	24.3306
 0.4250	24.3554
 0.4240	24.3805
 0.4230	24.3734
 0.4220	24.3201
 0.4210	24.2033
 0.4200	24.0059
 0.4190	23.6977
 0.4180	23.3026
 0.4170	22.8714
 0.4160	22.4958
 0.4150	22.3064
 0.4140	22.4564
 0.4130	23.0094
 0.4120	23.8978
 0.4110	24.9187
 0.4100	25.8456
 0.4090	26.4760
 0.4080	26.7512
 0.4070	26.7389
 0.4060	26.5912
 0.4050	26.3916
 0.4040	26.1493
 0.4030	25.8750
 0.4020	25.5333
 0.4010	25.1209
 0.4000	24.6725
