Name: Kernite Na_2B_4O_6(OH)_2.3H_2O
Type: Mineral
Class: Borate
Subclass: None
Particle Size: Coarse
Sample No.: B-2A
Owner: JPL
Wavelength Range: VSWIR
Origin: USA, California, Kern County, Boron.
Collection Date: N/A
Description: Particle size was 125-500um.Collected by:  JPL Original ASTER Spectral Library name was jpl.perkin.mineral.borate.none.coarse.b02a.spectrum.txt
Measurement: Hemispherical reflectance
First Column: X
Second Column: Y
X Units: Wavelength (micrometers)
Y Units:Reflectance (percent)
First X Value:  2.5000
Last X Value:  0.4000
Number of X Values: 2101
Additional Information: mineral.borate.none.coarse.vswir.b-2a.jpl.perkin.ancillary.txt

 2.5000	22.2786
 2.4990	21.9161
 2.4980	22.2342
 2.4970	22.4011
 2.4960	22.0572
 2.4950	22.2417
 2.4940	22.3361
 2.4930	22.0021
 2.4920	22.2833
 2.4910	22.1247
 2.4900	22.2503
 2.4890	22.1394
 2.4880	22.3722
 2.4870	21.9971
 2.4860	22.3400
 2.4850	22.2881
 2.4840	22.4637
 2.4830	22.3426
 2.4820	22.3895
 2.4810	22.2733
 2.4800	22.3517
 2.4790	22.2685
 2.4780	22.4548
 2.4770	22.2348
 2.4760	22.4767
 2.4750	22.3413
 2.4740	22.4378
 2.4730	22.3395
 2.4720	22.5525
 2.4710	22.4875
 2.4700	22.4058
 2.4690	22.4365
 2.4680	22.6177
 2.4670	22.4268
 2.4660	22.5425
 2.4650	22.4241
 2.4640	22.5770
 2.4630	22.5201
 2.4620	22.6188
 2.4610	22.4825
 2.4600	22.6299
 2.4590	22.5232
 2.4580	22.6853
 2.4570	22.5593
 2.4560	22.6326
 2.4550	22.6017
 2.4540	22.7899
 2.4530	22.6881
 2.4520	22.8625
 2.4510	22.5945
 2.4500	22.8483
 2.4490	22.6120
 2.4480	22.7322
 2.4470	22.6388
 2.4460	22.7396
 2.4450	22.6133
 2.4440	22.7895
 2.4430	22.6610
 2.4420	22.7332
 2.4410	22.6408
 2.4400	22.7620
 2.4390	22.7166
 2.4380	22.7946
 2.4370	22.7022
 2.4360	22.8050
 2.4350	22.7167
 2.4340	22.9270
 2.4330	22.8575
 2.4320	22.9410
 2.4310	22.9008
 2.4300	22.9000
 2.4290	22.9348
 2.4280	23.0244
 2.4270	23.0059
 2.4260	23.1771
 2.4250	23.1794
 2.4240	23.3099
 2.4230	23.3778
 2.4220	23.3961
 2.4210	23.3429
 2.4200	23.5221
 2.4190	23.6051
 2.4180	23.6959
 2.4170	23.7450
 2.4160	23.8489
 2.4150	23.9273
 2.4140	24.0786
 2.4130	24.0274
 2.4120	24.1696
 2.4110	24.2406
 2.4100	24.3775
 2.4090	24.3842
 2.4080	24.4781
 2.4070	24.5822
 2.4060	24.7163
 2.4050	24.7028
 2.4040	24.8863
 2.4030	24.9319
 2.4020	24.9814
 2.4010	25.0699
 2.4000	25.2604
 2.3990	25.3588
 2.3980	25.4460
 2.3970	25.5479
 2.3960	25.5848
 2.3950	25.6919
 2.3940	25.9398
 2.3930	26.0653
 2.3920	26.2311
 2.3910	26.3596
 2.3900	26.5363
 2.3890	26.6983
 2.3880	26.8524
 2.3870	26.9710
 2.3860	27.1889
 2.3850	27.3601
 2.3840	27.5485
 2.3830	27.7331
 2.3820	27.9184
 2.3810	28.0743
 2.3800	28.3248
 2.3790	28.5250
 2.3780	28.7382
 2.3770	28.9578
 2.3760	29.1630
 2.3750	29.2990
 2.3740	29.5639
 2.3730	29.7715
 2.3720	29.9042
 2.3710	30.0937
 2.3700	30.3286
 2.3690	30.4867
 2.3680	30.6902
 2.3670	30.8883
 2.3660	31.0589
 2.3650	31.1625
 2.3640	31.2764
 2.3630	31.4474
 2.3620	31.7005
 2.3610	31.7975
 2.3600	31.8699
 2.3590	32.0605
 2.3580	32.2256
 2.3570	32.3498
 2.3560	32.4698
 2.3550	32.6055
 2.3540	32.7087
 2.3530	32.8461
 2.3520	32.9674
 2.3510	33.0784
 2.3500	33.2234
 2.3490	33.3146
 2.3480	33.4093
 2.3470	33.5758
 2.3460	33.7359
 2.3450	33.8272
 2.3440	33.9032
 2.3430	34.0648
 2.3420	34.1842
 2.3410	34.2971
 2.3400	34.4614
 2.3390	34.5937
 2.3380	34.6876
 2.3370	34.8459
 2.3360	34.9451
 2.3350	35.0636
 2.3340	35.1983
 2.3330	35.3757
 2.3320	35.4938
 2.3310	35.5954
 2.3300	35.6820
 2.3290	35.8116
 2.3280	35.8906
 2.3270	35.9808
 2.3260	36.0603
 2.3250	36.1720
 2.3240	36.2498
 2.3230	36.3901
 2.3220	36.4891
 2.3210	36.5325
 2.3200	36.5525
 2.3190	36.6075
 2.3180	36.6531
 2.3170	36.7167
 2.3160	36.7338
 2.3150	36.7801
 2.3140	36.7624
 2.3130	36.8227
 2.3120	36.8116
 2.3110	36.8533
 2.3100	36.8352
 2.3090	36.8380
 2.3080	36.7942
 2.3070	36.7585
 2.3060	36.6962
 2.3050	36.6822
 2.3040	36.5789
 2.3030	36.5293
 2.3020	36.4948
 2.3010	36.4706
 2.3000	36.3807
 2.2990	36.3383
 2.2980	36.2064
 2.2970	36.1447
 2.2960	36.0292
 2.2950	35.8996
 2.2940	35.7648
 2.2930	35.6879
 2.2920	35.5245
 2.2910	35.4810
 2.2900	35.2805
 2.2890	35.2356
 2.2880	35.1337
 2.2870	34.9972
 2.2860	34.8337
 2.2850	34.8172
 2.2840	34.6655
 2.2830	34.5741
 2.2820	34.4388
 2.2810	34.3792
 2.2800	34.2781
 2.2790	34.1582
 2.2780	34.1176
 2.2770	34.0661
 2.2760	34.0078
 2.2750	33.9565
 2.2740	33.9141
 2.2730	33.9117
 2.2720	33.7743
 2.2710	33.7675
 2.2700	33.7351
 2.2690	33.7164
 2.2680	33.6332
 2.2670	33.6656
 2.2660	33.5315
 2.2650	33.5701
 2.2640	33.4387
 2.2630	33.4925
 2.2620	33.3597
 2.2610	33.3275
 2.2600	33.2521
 2.2590	33.2398
 2.2580	33.1486
 2.2570	33.1977
 2.2560	33.1003
 2.2550	33.0814
 2.2540	33.0503
 2.2530	32.9819
 2.2520	32.9487
 2.2510	32.9148
 2.2500	32.8414
 2.2490	32.9209
 2.2480	32.7490
 2.2470	32.8364
 2.2460	32.5738
 2.2450	32.6756
 2.2440	32.5600
 2.2430	32.5268
 2.2420	32.3483
 2.2410	32.3152
 2.2400	32.1284
 2.2390	32.0540
 2.2380	31.9266
 2.2370	31.7125
 2.2360	31.5137
 2.2350	31.4660
 2.2340	31.2387
 2.2330	31.0757
 2.2320	30.8938
 2.2310	30.6814
 2.2300	30.5203
 2.2290	30.3527
 2.2280	30.1501
 2.2270	30.1248
 2.2260	29.8341
 2.2250	29.7551
 2.2240	29.4711
 2.2230	29.4298
 2.2220	29.1592
 2.2210	28.9907
 2.2200	28.7738
 2.2190	28.6159
 2.2180	28.3645
 2.2170	28.2469
 2.2160	27.9102
 2.2150	27.7085
 2.2140	27.4444
 2.2130	27.3410
 2.2120	27.0675
 2.2110	26.7743
 2.2100	26.5489
 2.2090	26.2468
 2.2080	25.9540
 2.2070	25.7875
 2.2060	25.4651
 2.2050	25.2267
 2.2040	24.8465
 2.2030	24.5634
 2.2020	24.1167
 2.2010	23.9080
 2.2000	23.4355
 2.1990	23.1256
 2.1980	22.7027
 2.1970	22.3590
 2.1960	21.9650
 2.1950	21.8559
 2.1940	21.4053
 2.1930	21.2470
 2.1920	20.8470
 2.1910	20.8695
 2.1900	20.6909
 2.1890	20.7636
 2.1880	20.7131
 2.1870	20.9303
 2.1860	20.9967
 2.1850	21.3195
 2.1840	21.5647
 2.1830	22.0200
 2.1820	22.3345
 2.1810	22.8478
 2.1800	23.2233
 2.1790	23.7677
 2.1780	24.2175
 2.1770	24.7147
 2.1760	25.1502
 2.1750	25.7116
 2.1740	26.0867
 2.1730	26.6875
 2.1720	27.0883
 2.1710	27.4918
 2.1700	27.8837
 2.1690	28.2616
 2.1680	28.5341
 2.1670	28.8977
 2.1660	29.0738
 2.1650	29.4102
 2.1640	29.5249
 2.1630	29.7937
 2.1620	29.9358
 2.1610	30.0651
 2.1600	30.2057
 2.1590	30.3187
 2.1580	30.3935
 2.1570	30.5575
 2.1560	30.5300
 2.1550	30.6369
 2.1540	30.8056
 2.1530	30.9100
 2.1520	30.9266
 2.1510	30.9898
 2.1500	31.0194
 2.1490	31.1449
 2.1480	31.2067
 2.1470	31.2687
 2.1460	31.3071
 2.1450	31.4166
 2.1440	31.3968
 2.1430	31.4791
 2.1420	31.5071
 2.1410	31.5809
 2.1400	31.6029
 2.1390	31.6549
 2.1380	31.6757
 2.1370	31.7112
 2.1360	31.7824
 2.1350	31.8497
 2.1340	31.8421
 2.1330	31.8845
 2.1320	31.8919
 2.1310	31.9730
 2.1300	31.9765
 2.1290	32.0171
 2.1280	32.0103
 2.1270	32.0753
 2.1260	32.0090
 2.1250	32.0067
 2.1240	31.9938
 2.1230	32.0269
 2.1220	31.9331
 2.1210	31.9422
 2.1200	31.8670
 2.1190	31.8645
 2.1180	31.8043
 2.1170	31.8470
 2.1160	31.6902
 2.1150	31.6813
 2.1140	31.6167
 2.1130	31.6118
 2.1120	31.5450
 2.1110	31.5382
 2.1100	31.4688
 2.1090	31.3474
 2.1080	31.2378
 2.1070	31.1645
 2.1060	31.1387
 2.1050	31.1479
 2.1040	30.9940
 2.1030	30.9002
 2.1020	30.8078
 2.1010	30.7992
 2.1000	30.7041
 2.0990	30.6327
 2.0980	30.5892
 2.0970	30.5813
 2.0960	30.4881
 2.0950	30.3987
 2.0940	30.3333
 2.0930	30.3527
 2.0920	30.2766
 2.0910	30.1764
 2.0900	30.0813
 2.0890	30.0159
 2.0880	29.9155
 2.0870	29.8520
 2.0860	29.8016
 2.0850	29.6938
 2.0840	29.6522
 2.0830	29.5950
 2.0820	29.4730
 2.0810	29.3880
 2.0800	29.2844
 2.0790	29.1994
 2.0780	29.1073
 2.0770	29.0581
 2.0760	28.9499
 2.0750	28.8173
 2.0740	28.7597
 2.0730	28.6745
 2.0720	28.5325
 2.0710	28.4138
 2.0700	28.3109
 2.0690	28.1989
 2.0680	28.0455
 2.0670	27.9128
 2.0660	27.8251
 2.0650	27.6469
 2.0640	27.4248
 2.0630	27.2431
 2.0620	27.0863
 2.0610	26.8855
 2.0600	26.6806
 2.0590	26.4667
 2.0580	26.2428
 2.0570	26.0008
 2.0560	25.7937
 2.0550	25.5928
 2.0540	25.4480
 2.0530	25.3097
 2.0520	25.1554
 2.0510	25.0148
 2.0500	25.0028
 2.0490	24.9665
 2.0480	24.9698
 2.0470	24.9505
 2.0460	24.9817
 2.0450	25.0054
 2.0440	25.0735
 2.0430	25.0401
 2.0420	25.0742
 2.0410	25.0903
 2.0400	25.0873
 2.0390	25.0537
 2.0380	25.0430
 2.0370	24.9788
 2.0360	24.9901
 2.0350	24.9020
 2.0340	24.9461
 2.0330	24.8805
 2.0320	24.8582
 2.0310	24.8675
 2.0300	24.8526
 2.0290	24.8283
 2.0280	24.7764
 2.0270	24.7565
 2.0260	24.7526
 2.0250	24.7361
 2.0240	24.7206
 2.0230	24.6307
 2.0220	24.6156
 2.0210	24.5514
 2.0200	24.4244
 2.0190	24.2928
 2.0180	24.2574
 2.0170	24.1264
 2.0160	24.0712
 2.0150	23.9211
 2.0140	23.8865
 2.0130	23.7316
 2.0120	23.6160
 2.0110	23.4977
 2.0100	23.4816
 2.0090	23.3550
 2.0080	23.3870
 2.0070	23.2632
 2.0060	23.2634
 2.0050	23.1499
 2.0040	23.1164
 2.0030	23.0140
 2.0020	23.0062
 2.0010	22.9687
 2.0000	22.9184
 1.9990	22.8340
 1.9980	22.8242
 1.9970	22.6895
 1.9960	22.7128
 1.9950	22.6422
 1.9940	22.6212
 1.9930	22.5537
 1.9920	22.5435
 1.9910	22.4817
 1.9900	22.5370
 1.9890	22.3773
 1.9880	22.4627
 1.9870	22.3977
 1.9860	22.4087
 1.9850	22.4177
 1.9840	22.4134
 1.9830	22.3104
 1.9820	22.4118
 1.9810	22.3703
 1.9800	22.3588
 1.9790	22.2833
 1.9780	22.4392
 1.9770	22.3585
 1.9760	22.4818
 1.9750	22.3717
 1.9740	22.4027
 1.9730	22.4658
 1.9720	22.4699
 1.9710	22.5468
 1.9700	22.5810
 1.9690	22.6096
 1.9680	22.7404
 1.9670	22.6843
 1.9660	22.8920
 1.9650	22.9933
 1.9640	23.1134
 1.9630	23.1237
 1.9620	23.3468
 1.9610	23.3436
 1.9600	23.6457
 1.9590	23.8207
 1.9580	23.9700
 1.9570	24.0818
 1.9560	24.3716
 1.9550	24.5462
 1.9540	24.8311
 1.9530	24.9433
 1.9520	25.3485
 1.9510	25.4116
 1.9500	25.7969
 1.9490	26.0167
 1.9480	26.2836
 1.9470	26.4844
 1.9460	26.8757
 1.9450	27.0503
 1.9440	27.3924
 1.9430	27.5717
 1.9420	28.0319
 1.9410	28.1514
 1.9400	28.5543
 1.9390	28.8416
 1.9380	29.1023
 1.9370	29.3931
 1.9360	29.7750
 1.9350	30.0079
 1.9340	30.3781
 1.9330	30.6541
 1.9320	31.1015
 1.9310	31.2787
 1.9300	31.6716
 1.9290	31.9031
 1.9280	32.2842
 1.9270	32.5082
 1.9260	32.7464
 1.9250	33.1279
 1.9240	33.5212
 1.9230	33.7604
 1.9220	34.0631
 1.9210	34.3725
 1.9200	34.7391
 1.9190	34.9244
 1.9180	35.3570
 1.9170	35.6279
 1.9160	35.9598
 1.9150	36.3019
 1.9140	36.5748
 1.9130	36.8499
 1.9120	37.1877
 1.9110	37.4755
 1.9100	37.8089
 1.9090	38.0549
 1.9080	38.3861
 1.9070	38.6927
 1.9060	39.0647
 1.9050	39.2585
 1.9040	39.6638
 1.9030	39.9875
 1.9020	40.4224
 1.9010	40.7010
 1.9000	41.1338
 1.8990	41.3988
 1.8980	41.7933
 1.8970	42.1649
 1.8960	42.5330
 1.8950	42.8654
 1.8940	43.2292
 1.8930	43.5420
 1.8920	43.8829
 1.8910	44.1817
 1.8900	44.5984
 1.8890	44.7624
 1.8880	45.1514
 1.8870	45.3347
 1.8860	45.6566
 1.8850	45.8933
 1.8840	46.1786
 1.8830	46.4353
 1.8820	46.5848
 1.8810	46.7498
 1.8800	46.9979
 1.8790	47.1853
 1.8780	47.3721
 1.8770	47.4732
 1.8760	47.7265
 1.8750	47.8151
 1.8740	48.0568
 1.8730	48.1783
 1.8720	48.3093
 1.8710	48.4081
 1.8700	48.5764
 1.8690	48.6903
 1.8680	48.8027
 1.8670	48.8602
 1.8660	48.9857
 1.8650	49.0291
 1.8640	49.1191
 1.8630	49.1676
 1.8620	49.2263
 1.8610	49.2943
 1.8600	49.3806
 1.8590	49.3584
 1.8580	49.4433
 1.8570	49.5314
 1.8560	49.6208
 1.8550	49.5818
 1.8540	49.6257
 1.8530	49.6293
 1.8520	49.6434
 1.8510	49.6418
 1.8500	49.7192
 1.8490	49.6831
 1.8480	49.7639
 1.8470	49.7478
 1.8460	49.7215
 1.8450	49.6945
 1.8440	49.7334
 1.8430	49.7093
 1.8420	49.7395
 1.8410	49.7026
 1.8400	49.7099
 1.8390	49.6838
 1.8380	49.6732
 1.8370	49.6642
 1.8360	49.6669
 1.8350	49.5882
 1.8340	49.6296
 1.8330	49.5952
 1.8320	49.5353
 1.8310	49.4429
 1.8300	49.4163
 1.8290	49.3488
 1.8280	49.3807
 1.8270	49.3493
 1.8260	49.3008
 1.8250	49.2208
 1.8240	49.2223
 1.8230	49.1320
 1.8220	49.1104
 1.8210	49.0628
 1.8200	49.0362
 1.8190	48.9788
 1.8180	48.9607
 1.8170	48.8992
 1.8160	48.8769
 1.8150	48.7962
 1.8140	48.7426
 1.8130	48.6876
 1.8120	48.6621
 1.8110	48.6546
 1.8100	48.5983
 1.8090	48.5170
 1.8080	48.4761
 1.8070	48.4158
 1.8060	48.3833
 1.8050	48.3211
 1.8040	48.2655
 1.8030	48.1973
 1.8020	48.1783
 1.8010	48.1874
 1.8000	48.1284
 1.7990	48.0572
 1.7980	48.0166
 1.7970	47.9415
 1.7960	47.9375
 1.7950	47.9047
 1.7940	47.8669
 1.7930	47.8867
 1.7920	47.8721
 1.7910	47.8662
 1.7900	47.8834
 1.7890	47.8457
 1.7880	47.8573
 1.7870	47.8505
 1.7860	47.8674
 1.7850	47.9212
 1.7840	47.9598
 1.7830	47.9793
 1.7820	47.9564
 1.7810	47.9884
 1.7800	48.0661
 1.7790	48.1525
 1.7780	48.2091
 1.7770	48.2274
 1.7760	48.2447
 1.7750	48.3031
 1.7740	48.3818
 1.7730	48.4667
 1.7720	48.4943
 1.7710	48.5311
 1.7700	48.5710
 1.7690	48.6506
 1.7680	48.7334
 1.7670	48.8501
 1.7660	48.8827
 1.7650	48.8885
 1.7640	48.9375
 1.7630	49.0221
 1.7620	49.0928
 1.7610	49.1631
 1.7600	49.1791
 1.7590	49.2644
 1.7580	49.3268
 1.7570	49.3760
 1.7560	49.4127
 1.7550	49.4942
 1.7540	49.5675
 1.7530	49.5877
 1.7520	49.6393
 1.7510	49.7145
 1.7500	49.7177
 1.7490	49.7391
 1.7480	49.7765
 1.7470	49.8371
 1.7460	49.8279
 1.7450	49.8148
 1.7440	49.8593
 1.7430	49.9510
 1.7420	50.0495
 1.7410	50.0824
 1.7400	50.0703
 1.7390	50.1347
 1.7380	50.1962
 1.7370	50.3021
 1.7360	50.3420
 1.7350	50.3763
 1.7340	50.3500
 1.7330	50.4001
 1.7320	50.4899
 1.7310	50.4884
 1.7300	50.5461
 1.7290	50.6061
 1.7280	50.5622
 1.7270	50.6229
 1.7260	50.6811
 1.7250	50.7482
 1.7240	50.8130
 1.7230	50.8912
 1.7220	50.8591
 1.7210	50.9124
 1.7200	50.9404
 1.7190	51.0377
 1.7180	51.1022
 1.7170	51.1015
 1.7160	51.1105
 1.7150	51.2155
 1.7140	51.2114
 1.7130	51.2335
 1.7120	51.3053
 1.7110	51.3983
 1.7100	51.3388
 1.7090	51.4495
 1.7080	51.4075
 1.7070	51.4434
 1.7060	51.4959
 1.7050	51.5588
 1.7040	51.5088
 1.7030	51.5569
 1.7020	51.5556
 1.7010	51.6132
 1.7000	51.6338
 1.6990	51.6217
 1.6980	51.6603
 1.6970	51.6786
 1.6960	51.6795
 1.6950	51.6901
 1.6940	51.7348
 1.6930	51.7417
 1.6920	51.7213
 1.6910	51.7971
 1.6900	51.8174
 1.6890	51.8257
 1.6880	51.7972
 1.6870	51.8754
 1.6860	51.8389
 1.6850	51.9543
 1.6840	51.9272
 1.6830	51.9159
 1.6820	51.9050
 1.6810	51.9303
 1.6800	51.9452
 1.6790	51.9881
 1.6780	51.9277
 1.6770	51.9365
 1.6760	51.8937
 1.6750	51.9518
 1.6740	51.8629
 1.6730	51.9441
 1.6720	51.9082
 1.6710	51.9231
 1.6700	51.8278
 1.6690	51.9038
 1.6680	51.7324
 1.6670	51.9195
 1.6660	51.7667
 1.6650	51.8857
 1.6640	51.6973
 1.6630	51.8040
 1.6620	51.6994
 1.6610	51.6890
 1.6600	51.7291
 1.6590	51.7409
 1.6580	51.6369
 1.6570	51.6562
 1.6560	51.6040
 1.6550	51.5920
 1.6540	51.5348
 1.6530	51.4913
 1.6520	51.4124
 1.6510	51.3905
 1.6500	51.2818
 1.6490	51.3663
 1.6480	51.2828
 1.6470	51.2517
 1.6460	51.1685
 1.6450	51.1604
 1.6440	51.0590
 1.6430	51.1063
 1.6420	50.9657
 1.6410	50.8711
 1.6400	50.8597
 1.6390	50.8929
 1.6380	50.7476
 1.6370	50.7803
 1.6360	50.5955
 1.6350	50.6028
 1.6340	50.5320
 1.6330	50.4834
 1.6320	50.3611
 1.6310	50.4077
 1.6300	50.1901
 1.6290	50.2500
 1.6280	50.1362
 1.6270	50.1228
 1.6260	50.0377
 1.6250	49.9265
 1.6240	49.7992
 1.6230	49.8596
 1.6220	49.7727
 1.6210	49.6653
 1.6200	49.5304
 1.6190	49.6074
 1.6180	49.4490
 1.6170	49.4396
 1.6160	49.3290
 1.6150	49.3318
 1.6140	49.2290
 1.6130	49.1606
 1.6120	49.0815
 1.6110	49.0901
 1.6100	48.9472
 1.6090	48.9699
 1.6080	48.8798
 1.6070	48.8424
 1.6060	48.6988
 1.6050	48.7799
 1.6040	48.6602
 1.6030	48.6644
 1.6020	48.5263
 1.6010	48.5815
 1.6000	48.4347
 1.5990	48.4808
 1.5980	48.4183
 1.5970	48.3601
 1.5960	48.2900
 1.5950	48.2535
 1.5940	48.1694
 1.5930	48.1922
 1.5920	48.0360
 1.5910	48.0574
 1.5900	47.9606
 1.5890	47.9964
 1.5880	47.9643
 1.5870	47.9335
 1.5860	47.8078
 1.5850	47.8652
 1.5840	47.7546
 1.5830	47.7398
 1.5820	47.6478
 1.5810	47.6117
 1.5800	47.5005
 1.5790	47.5110
 1.5780	47.5358
 1.5770	47.4687
 1.5760	47.4390
 1.5750	47.5205
 1.5740	47.3993
 1.5730	47.4121
 1.5720	47.3087
 1.5710	47.3419
 1.5700	47.3703
 1.5690	47.4000
 1.5680	47.3205
 1.5670	47.3653
 1.5660	47.3140
 1.5650	47.3183
 1.5640	47.2800
 1.5630	47.3323
 1.5620	47.2954
 1.5610	47.3513
 1.5600	47.3270
 1.5590	47.2874
 1.5580	47.2828
 1.5570	47.3330
 1.5560	47.2506
 1.5550	47.2973
 1.5540	47.2856
 1.5530	47.2555
 1.5520	47.2211
 1.5510	47.2896
 1.5500	47.2722
 1.5490	47.2528
 1.5480	47.2858
 1.5470	47.3242
 1.5460	47.3034
 1.5450	47.3034
 1.5440	47.3404
 1.5430	47.3803
 1.5420	47.4061
 1.5410	47.3973
 1.5400	47.4081
 1.5390	47.4668
 1.5380	47.4897
 1.5370	47.4905
 1.5360	47.4624
 1.5350	47.4457
 1.5340	47.4778
 1.5330	47.4664
 1.5320	47.4163
 1.5310	47.3965
 1.5300	47.3143
 1.5290	47.3051
 1.5280	47.2528
 1.5270	47.1839
 1.5260	47.1291
 1.5250	47.0895
 1.5240	47.0189
 1.5230	46.9345
 1.5220	46.8541
 1.5210	46.7385
 1.5200	46.6411
 1.5190	46.5961
 1.5180	46.5651
 1.5170	46.4290
 1.5160	46.3088
 1.5150	46.3094
 1.5140	46.2185
 1.5130	46.1090
 1.5120	46.0050
 1.5110	45.9537
 1.5100	45.9353
 1.5090	45.8570
 1.5080	45.7400
 1.5070	45.6719
 1.5060	45.6542
 1.5050	45.6678
 1.5040	45.6104
 1.5030	45.5864
 1.5020	45.5492
 1.5010	45.4857
 1.5000	45.4885
 1.4990	45.4685
 1.4980	45.4354
 1.4970	45.4342
 1.4960	45.4517
 1.4950	45.4676
 1.4940	45.4873
 1.4930	45.5586
 1.4920	45.6105
 1.4910	45.6303
 1.4900	45.6954
 1.4890	45.7442
 1.4880	45.8281
 1.4870	45.8980
 1.4860	45.9439
 1.4850	46.0072
 1.4840	46.0842
 1.4830	46.1419
 1.4820	46.2960
 1.4810	46.3807
 1.4800	46.4736
 1.4790	46.6187
 1.4780	46.7395
 1.4770	46.8788
 1.4760	47.0955
 1.4750	47.2636
 1.4740	47.4493
 1.4730	47.6852
 1.4720	47.9255
 1.4710	48.0703
 1.4700	48.2215
 1.4690	48.3678
 1.4680	48.5218
 1.4670	48.6877
 1.4660	48.7834
 1.4650	48.7923
 1.4640	48.8935
 1.4630	48.9272
 1.4620	48.9965
 1.4610	49.0485
 1.4600	49.0869
 1.4590	49.0156
 1.4580	48.9776
 1.4570	48.8926
 1.4560	48.7704
 1.4550	48.5156
 1.4540	48.1973
 1.4530	47.7685
 1.4520	47.3148
 1.4510	46.5409
 1.4500	45.7118
 1.4490	44.8421
 1.4480	44.0248
 1.4470	43.2494
 1.4460	42.6040
 1.4450	41.9642
 1.4440	41.6337
 1.4430	41.4198
 1.4420	41.4051
 1.4410	41.4794
 1.4400	41.6887
 1.4390	42.0196
 1.4380	42.5922
 1.4370	43.2474
 1.4360	44.0295
 1.4350	44.8430
 1.4340	45.8745
 1.4330	46.9365
 1.4320	48.0566
 1.4310	49.1114
 1.4300	50.2098
 1.4290	51.3943
 1.4280	52.4987
 1.4270	53.6048
 1.4260	54.7160
 1.4250	55.7620
 1.4240	56.8312
 1.4230	57.9107
 1.4220	58.8537
 1.4210	59.7838
 1.4200	60.7453
 1.4190	61.5814
 1.4180	62.4736
 1.4170	63.1467
 1.4160	63.8689
 1.4150	64.5318
 1.4140	65.1083
 1.4130	65.5521
 1.4120	65.8703
 1.4110	66.0944
 1.4100	66.3108
 1.4090	66.6100
 1.4080	67.1550
 1.4070	67.6427
 1.4060	68.3365
 1.4050	68.8874
 1.4040	69.4606
 1.4030	69.8800
 1.4020	70.2200
 1.4010	70.5925
 1.4000	70.8984
 1.3990	71.1332
 1.3980	71.3560
 1.3970	71.5781
 1.3960	71.9259
 1.3950	72.1323
 1.3940	72.2972
 1.3930	72.4929
 1.3920	72.6773
 1.3910	72.8110
 1.3900	72.8715
 1.3890	73.0468
 1.3880	73.1554
 1.3870	73.2406
 1.3860	73.3970
 1.3850	73.4000
 1.3840	73.5772
 1.3830	73.5896
 1.3820	73.6585
 1.3810	73.7287
 1.3800	73.7990
 1.3790	73.9440
 1.3780	73.9751
 1.3770	74.0332
 1.3760	74.0919
 1.3750	74.1563
 1.3740	74.2600
 1.3730	74.2748
 1.3720	74.2918
 1.3710	74.2848
 1.3700	74.5487
 1.3690	74.5839
 1.3680	74.6919
 1.3670	74.7081
 1.3660	74.7633
 1.3650	74.8236
 1.3640	74.8688
 1.3630	74.8297
 1.3620	74.9832
 1.3610	75.0113
 1.3600	75.0882
 1.3590	75.0857
 1.3580	75.2143
 1.3570	75.2102
 1.3560	75.3584
 1.3550	75.3353
 1.3540	75.3718
 1.3530	75.4168
 1.3520	75.5023
 1.3510	75.5265
 1.3500	75.6846
 1.3490	75.6979
 1.3480	75.6451
 1.3470	75.7433
 1.3460	75.8202
 1.3450	75.8457
 1.3440	75.8841
 1.3430	75.7945
 1.3420	76.0111
 1.3410	76.0027
 1.3400	76.0137
 1.3390	76.0835
 1.3380	76.1734
 1.3370	76.1260
 1.3360	76.1253
 1.3350	76.1171
 1.3340	76.1485
 1.3330	76.0871
 1.3320	76.2144
 1.3310	76.1705
 1.3300	76.1063
 1.3290	76.0801
 1.3280	76.0616
 1.3270	75.9968
 1.3260	76.0055
 1.3250	75.9606
 1.3240	75.9236
 1.3230	75.7982
 1.3220	75.7907
 1.3210	75.7124
 1.3200	75.7632
 1.3190	75.7509
 1.3180	75.7861
 1.3170	75.7290
 1.3160	75.8030
 1.3150	75.8799
 1.3140	75.9548
 1.3130	76.0413
 1.3120	76.0908
 1.3110	76.2475
 1.3100	76.3385
 1.3090	76.4900
 1.3080	76.5554
 1.3070	76.5958
 1.3060	76.6455
 1.3050	76.7613
 1.3040	76.8431
 1.3030	76.8841
 1.3020	76.9945
 1.3010	76.9643
 1.3000	77.0773
 1.2990	77.0239
 1.2980	77.0925
 1.2970	77.1353
 1.2960	77.0441
 1.2950	77.1080
 1.2940	77.1278
 1.2930	77.1817
 1.2920	77.1771
 1.2910	77.1720
 1.2900	77.1919
 1.2890	77.1870
 1.2880	77.2206
 1.2870	77.2017
 1.2860	77.2014
 1.2850	77.2292
 1.2840	77.2761
 1.2830	77.1981
 1.2820	77.1868
 1.2810	77.1306
 1.2800	77.0857
 1.2790	77.0849
 1.2780	77.0335
 1.2770	76.9534
 1.2760	76.8883
 1.2750	76.7925
 1.2740	76.7849
 1.2730	76.7378
 1.2720	76.5676
 1.2710	76.4087
 1.2700	76.2853
 1.2690	76.1639
 1.2680	76.0791
 1.2670	75.9820
 1.2660	75.9116
 1.2650	75.7586
 1.2640	75.6496
 1.2630	75.5626
 1.2620	75.5212
 1.2610	75.4264
 1.2600	75.4528
 1.2590	75.4863
 1.2580	75.5565
 1.2570	75.6071
 1.2560	75.7155
 1.2550	75.8217
 1.2540	75.8602
 1.2530	75.9218
 1.2520	76.1096
 1.2510	76.1614
 1.2500	76.1813
 1.2490	76.2714
 1.2480	76.3914
 1.2470	76.4592
 1.2460	76.5084
 1.2450	76.5384
 1.2440	76.5995
 1.2430	76.6503
 1.2420	76.7571
 1.2410	76.8190
 1.2400	76.9147
 1.2390	76.9549
 1.2380	77.0156
 1.2370	77.0870
 1.2360	77.1521
 1.2350	77.2555
 1.2340	77.3155
 1.2330	77.3868
 1.2320	77.4770
 1.2310	77.4686
 1.2300	77.4658
 1.2290	77.4778
 1.2280	77.5637
 1.2270	77.6647
 1.2260	77.6660
 1.2250	77.6965
 1.2240	77.7476
 1.2230	77.7788
 1.2220	77.8249
 1.2210	77.8728
 1.2200	77.8662
 1.2190	77.8982
 1.2180	77.9243
 1.2170	77.9503
 1.2160	78.0335
 1.2150	78.0933
 1.2140	78.0560
 1.2130	78.0011
 1.2120	78.0775
 1.2110	78.1779
 1.2100	78.2209
 1.2090	78.2509
 1.2080	78.3037
 1.2070	78.3465
 1.2060	78.3806
 1.2050	78.4064
 1.2040	78.4173
 1.2030	78.5119
 1.2020	78.6037
 1.2010	78.6385
 1.2000	78.6907
 1.1990	78.8022
 1.1980	78.8223
 1.1970	78.9171
 1.1960	79.0122
 1.1950	79.0973
 1.1940	79.1901
 1.1930	79.2903
 1.1920	79.4033
 1.1910	79.4819
 1.1900	79.5581
 1.1890	79.6361
 1.1880	79.6675
 1.1870	79.8260
 1.1860	79.8971
 1.1850	79.9539
 1.1840	80.0536
 1.1830	80.1269
 1.1820	80.2113
 1.1810	80.2717
 1.1800	80.3418
 1.1790	80.4303
 1.1780	80.5259
 1.1770	80.6679
 1.1760	80.7230
 1.1750	80.7916
 1.1740	80.8239
 1.1730	80.8723
 1.1720	80.9664
 1.1710	80.9932
 1.1700	81.0297
 1.1690	81.1436
 1.1680	81.2087
 1.1670	81.2562
 1.1660	81.3010
 1.1650	81.3640
 1.1640	81.4618
 1.1630	81.4742
 1.1620	81.4577
 1.1610	81.5068
 1.1600	81.5376
 1.1590	81.6313
 1.1580	81.6725
 1.1570	81.7331
 1.1560	81.7749
 1.1550	81.8449
 1.1540	81.8604
 1.1530	81.8803
 1.1520	81.9358
 1.1510	81.9029
 1.1500	81.9220
 1.1490	81.9755
 1.1480	81.9819
 1.1470	81.9968
 1.1460	82.1019
 1.1450	82.0922
 1.1440	82.0545
 1.1430	82.0851
 1.1420	82.0953
 1.1410	82.1178
 1.1400	82.2061
 1.1390	82.2195
 1.1380	82.1970
 1.1370	82.1965
 1.1360	82.2433
 1.1350	82.2925
 1.1340	82.2847
 1.1330	82.2466
 1.1320	82.3277
 1.1310	82.3145
 1.1300	82.3147
 1.1290	82.3877
 1.1280	82.3784
 1.1270	82.3723
 1.1260	82.3754
 1.1250	82.4173
 1.1240	82.3623
 1.1230	82.3892
 1.1220	82.3373
 1.1210	82.3758
 1.1200	82.3460
 1.1190	82.4009
 1.1180	82.4609
 1.1170	82.4580
 1.1160	82.4424
 1.1150	82.4336
 1.1140	82.3360
 1.1130	82.4960
 1.1120	82.4334
 1.1110	82.4259
 1.1100	82.4230
 1.1090	82.5092
 1.1080	82.4865
 1.1070	82.4826
 1.1060	82.5204
 1.1050	82.5661
 1.1040	82.4736
 1.1030	82.4882
 1.1020	82.5627
 1.1010	82.6098
 1.1000	82.5894
 1.0990	82.6008
 1.0980	82.5358
 1.0970	82.6318
 1.0960	82.6535
 1.0950	82.6129
 1.0940	82.5860
 1.0930	82.6314
 1.0920	82.5426
 1.0910	82.5790
 1.0900	82.7017
 1.0890	82.6969
 1.0880	82.6215
 1.0870	82.6188
 1.0860	82.6423
 1.0850	82.6691
 1.0840	82.5724
 1.0830	82.6725
 1.0820	82.6273
 1.0810	82.6991
 1.0800	82.5779
 1.0790	82.6743
 1.0780	82.6870
 1.0770	82.6540
 1.0760	82.6993
 1.0750	82.6824
 1.0740	82.7304
 1.0730	82.6473
 1.0720	82.6103
 1.0710	82.7392
 1.0700	82.7125
 1.0690	82.6635
 1.0680	82.6834
 1.0670	82.7452
 1.0660	82.6394
 1.0650	82.6796
 1.0640	82.6806
 1.0630	82.6031
 1.0620	82.5520
 1.0610	82.6580
 1.0600	82.6208
 1.0590	82.6677
 1.0580	82.6203
 1.0570	82.6417
 1.0560	82.5497
 1.0550	82.6033
 1.0540	82.6380
 1.0530	82.5885
 1.0520	82.6349
 1.0510	82.6221
 1.0500	82.5506
 1.0490	82.5527
 1.0480	82.5290
 1.0470	82.5748
 1.0460	82.5226
 1.0450	82.4635
 1.0440	82.4950
 1.0430	82.4835
 1.0420	82.4336
 1.0410	82.4593
 1.0400	82.4105
 1.0390	82.3454
 1.0380	82.3578
 1.0370	82.3578
 1.0360	82.2624
 1.0350	82.3367
 1.0340	82.3290
 1.0330	82.3000
 1.0320	82.3033
 1.0310	82.2472
 1.0300	82.2425
 1.0290	82.2695
 1.0280	82.2180
 1.0270	82.1971
 1.0260	82.1985
 1.0250	82.2669
 1.0240	82.2134
 1.0230	82.2409
 1.0220	82.2612
 1.0210	82.1695
 1.0200	82.1283
 1.0190	82.1336
 1.0180	82.1282
 1.0170	82.1441
 1.0160	82.1202
 1.0150	82.0286
 1.0140	82.0697
 1.0130	82.0366
 1.0120	81.9706
 1.0110	81.9800
 1.0100	81.9839
 1.0090	81.9454
 1.0080	81.8577
 1.0070	81.8941
 1.0060	81.7929
 1.0050	81.7249
 1.0040	81.6612
 1.0030	81.6430
 1.0020	81.5656
 1.0010	81.4557
 1.0000	81.3917
 0.9990	81.2756
 0.9980	81.0848
 0.9970	81.0367
 0.9960	80.8918
 0.9950	80.7679
 0.9940	80.5551
 0.9930	80.3771
 0.9920	80.1986
 0.9910	79.9961
 0.9900	79.7835
 0.9890	79.6444
 0.9880	79.5808
 0.9870	79.6258
 0.9860	79.6667
 0.9850	79.7471
 0.9840	79.8771
 0.9830	80.0970
 0.9820	80.2497
 0.9810	80.4840
 0.9800	80.8034
 0.9790	81.0535
 0.9780	81.2808
 0.9770	81.4650
 0.9760	81.6810
 0.9750	81.8317
 0.9740	82.0195
 0.9730	82.1815
 0.9720	82.3530
 0.9710	82.4469
 0.9700	82.5137
 0.9690	82.6360
 0.9680	82.7697
 0.9670	82.8506
 0.9660	82.9805
 0.9650	82.9887
 0.9640	83.0159
 0.9630	83.1376
 0.9620	83.1437
 0.9610	83.1699
 0.9600	83.2140
 0.9590	83.2463
 0.9580	83.2672
 0.9570	83.2898
 0.9560	83.3638
 0.9550	83.3726
 0.9540	83.3149
 0.9530	83.3994
 0.9520	83.3721
 0.9510	83.3439
 0.9500	83.3982
 0.9490	83.5007
 0.9480	83.4384
 0.9470	83.4204
 0.9460	83.5024
 0.9450	83.5125
 0.9440	83.5323
 0.9430	83.5153
 0.9420	83.4755
 0.9410	83.4652
 0.9400	83.4467
 0.9390	83.4689
 0.9380	83.5369
 0.9370	83.5565
 0.9360	83.5416
 0.9350	83.5960
 0.9340	83.6030
 0.9330	83.5855
 0.9320	83.6193
 0.9310	83.6301
 0.9300	83.6430
 0.9290	83.6392
 0.9280	83.5940
 0.9270	83.6211
 0.9260	83.5955
 0.9250	83.6007
 0.9240	83.6117
 0.9230	83.6166
 0.9220	83.6680
 0.9210	83.6428
 0.9200	83.6207
 0.9190	83.6296
 0.9180	83.6498
 0.9170	83.6940
 0.9160	83.6775
 0.9150	83.6322
 0.9140	83.6457
 0.9130	83.6774
 0.9120	83.6769
 0.9110	83.6861
 0.9100	83.7123
 0.9090	83.6975
 0.9080	83.6672
 0.9070	83.6680
 0.9060	83.7114
 0.9050	83.7363
 0.9040	83.6898
 0.9030	83.6589
 0.9020	83.7054
 0.9010	83.7025
 0.9000	83.7414
 0.8990	83.7428
 0.8980	83.6986
 0.8970	83.7201
 0.8960	83.7634
 0.8950	83.7869
 0.8940	83.8321
 0.8930	83.8235
 0.8920	83.8074
 0.8910	83.8469
 0.8900	83.8591
 0.8890	83.8938
 0.8880	83.9049
 0.8870	83.9131
 0.8860	83.9210
 0.8850	83.9585
 0.8840	83.9449
 0.8830	83.8966
 0.8820	83.9486
 0.8810	83.9964
 0.8800	84.0889
 0.8790	84.0551
 0.8780	84.1012
 0.8770	84.1202
 0.8760	84.0856
 0.8750	84.0581
 0.8740	84.0592
 0.8730	84.0461
 0.8720	84.1373
 0.8710	84.1027
 0.8700	84.1145
 0.8690	84.1322
 0.8680	84.1798
 0.8670	84.2085
 0.8660	84.1992
 0.8650	84.2167
 0.8640	84.2173
 0.8630	84.2330
 0.8620	84.2696
 0.8610	84.2201
 0.8600	84.4042
 0.8590	84.5356
 0.8580	84.2898
 0.8570	84.3656
 0.8560	84.5641
 0.8550	84.3205
 0.8540	84.2641
 0.8530	84.5641
 0.8520	84.4265
 0.8510	84.3519
 0.8500	84.4517
 0.8490	84.4766
 0.8480	84.3985
 0.8470	84.4617
 0.8460	84.4539
 0.8450	84.4130
 0.8440	84.4107
 0.8430	84.4869
 0.8420	84.4611
 0.8410	84.4473
 0.8400	84.4645
 0.8390	84.4240
 0.8380	84.5312
 0.8370	84.4705
 0.8360	84.4865
 0.8350	84.4301
 0.8340	84.4371
 0.8330	84.5133
 0.8320	84.4624
 0.8310	84.5256
 0.8300	84.4435
 0.8290	84.5217
 0.8280	84.5654
 0.8270	84.4954
 0.8260	84.4811
 0.8250	84.4729
 0.8240	84.4357
 0.8230	84.4530
 0.8220	84.5035
 0.8210	84.5407
 0.8200	84.5103
 0.8190	84.5013
 0.8180	84.5015
 0.8170	84.5203
 0.8160	84.4712
 0.8150	84.4887
 0.8140	84.5037
 0.8130	84.4732
 0.8120	84.5217
 0.8110	84.5013
 0.8100	84.5126
 0.8090	84.5213
 0.8080	84.5539
 0.8070	84.4904
 0.8060	84.5242
 0.8050	84.5360
 0.8040	84.4963
 0.8030	84.5319
 0.8020	84.5511
 0.8010	84.4854
 0.8000	84.4445
 0.7990	84.4810
 0.7980	84.4928
 0.7970	84.4766
 0.7960	84.4117
 0.7950	84.4215
 0.7940	84.3854
 0.7930	84.4056
 0.7920	84.4262
 0.7910	84.4131
 0.7900	84.3960
 0.7890	84.4310
 0.7880	84.4473
 0.7870	84.3839
 0.7860	84.4364
 0.7850	84.4001
 0.7840	84.3526
 0.7830	84.4489
 0.7820	84.4066
 0.7810	84.4283
 0.7800	84.4063
 0.7790	84.4155
 0.7780	84.3787
 0.7770	84.3470
 0.7760	84.3464
 0.7750	84.3285
 0.7740	84.3261
 0.7730	84.3247
 0.7720	84.2945
 0.7710	84.2757
 0.7700	84.2895
 0.7690	84.2749
 0.7680	84.2750
 0.7670	84.2949
 0.7660	84.2274
 0.7650	84.2176
 0.7640	84.2055
 0.7630	84.1669
 0.7620	84.1808
 0.7610	84.1663
 0.7600	84.2236
 0.7590	84.1765
 0.7580	84.1355
 0.7570	84.1631
 0.7560	84.1790
 0.7550	84.2231
 0.7540	84.1830
 0.7530	84.2439
 0.7520	84.2579
 0.7510	84.2560
 0.7500	84.2954
 0.7490	84.3110
 0.7480	84.3120
 0.7470	84.3257
 0.7460	84.3473
 0.7450	84.3465
 0.7440	84.3608
 0.7430	84.3475
 0.7420	84.3577
 0.7410	84.3777
 0.7400	84.3550
 0.7390	84.3632
 0.7380	84.3244
 0.7370	84.3570
 0.7360	84.3480
 0.7350	84.3637
 0.7340	84.3481
 0.7330	84.3776
 0.7320	84.3421
 0.7310	84.3764
 0.7300	84.3835
 0.7290	84.3359
 0.7280	84.3518
 0.7270	84.3527
 0.7260	84.3776
 0.7250	84.3647
 0.7240	84.3641
 0.7230	84.3564
 0.7220	84.3414
 0.7210	84.3494
 0.7200	84.3300
 0.7190	84.3602
 0.7180	84.3543
 0.7170	84.3562
 0.7160	84.3857
 0.7150	84.3588
 0.7140	84.3468
 0.7130	84.3514
 0.7120	84.3632
 0.7110	84.3413
 0.7100	84.3698
 0.7090	84.3569
 0.7080	84.3545
 0.7070	84.3553
 0.7060	84.3419
 0.7050	84.3503
 0.7040	84.3705
 0.7030	84.3649
 0.7020	84.3346
 0.7010	84.3381
 0.7000	84.3515
 0.6990	84.3648
 0.6980	84.3558
 0.6970	84.3438
 0.6960	84.3594
 0.6950	84.3552
 0.6940	84.3724
 0.6930	84.3493
 0.6920	84.3471
 0.6910	84.3513
 0.6900	84.3637
 0.6890	84.3694
 0.6880	84.3536
 0.6870	84.3285
 0.6860	84.3197
 0.6850	84.3273
 0.6840	84.3572
 0.6830	84.3525
 0.6820	84.3712
 0.6810	84.3442
 0.6800	84.3403
 0.6790	84.3487
 0.6780	84.3380
 0.6770	84.3507
 0.6760	84.3562
 0.6750	84.3520
 0.6740	84.3551
 0.6730	84.3409
 0.6720	84.3216
 0.6710	84.3298
 0.6700	84.3326
 0.6690	84.3223
 0.6680	84.3444
 0.6670	84.3526
 0.6660	84.3530
 0.6650	84.3597
 0.6640	84.3515
 0.6630	84.3515
 0.6620	84.3409
 0.6610	84.3481
 0.6600	84.3525
 0.6590	84.3440
 0.6580	84.3523
 0.6570	84.3482
 0.6560	84.3409
 0.6550	84.3346
 0.6540	84.3414
 0.6530	84.3286
 0.6520	84.3212
 0.6510	84.3270
 0.6500	84.3340
 0.6490	84.3319
 0.6480	84.3285
 0.6470	84.3309
 0.6460	84.3147
 0.6450	84.3077
 0.6440	84.3082
 0.6430	84.3117
 0.6420	84.3225
 0.6410	84.3315
 0.6400	84.3256
 0.6390	84.3121
 0.6380	84.2938
 0.6370	84.2868
 0.6360	84.2814
 0.6350	84.2940
 0.6340	84.3045
 0.6330	84.3079
 0.6320	84.3177
 0.6310	84.2977
 0.6300	84.2910
 0.6290	84.2954
 0.6280	84.2835
 0.6270	84.2728
 0.6260	84.2812
 0.6250	84.2861
 0.6240	84.2743
 0.6230	84.2665
 0.6220	84.2504
 0.6210	84.2561
 0.6200	84.2731
 0.6190	84.2690
 0.6180	84.2702
 0.6170	84.2670
 0.6160	84.2652
 0.6150	84.2542
 0.6140	84.2570
 0.6130	84.2722
 0.6120	84.2622
 0.6110	84.2528
 0.6100	84.2349
 0.6090	84.2329
 0.6080	84.2553
 0.6070	84.2508
 0.6060	84.2463
 0.6050	84.2426
 0.6040	84.2528
 0.6030	84.2555
 0.6020	84.2488
 0.6010	84.2491
 0.6000	84.2410
 0.5990	84.2350
 0.5980	84.2444
 0.5970	84.2727
 0.5960	84.2762
 0.5950	84.2907
 0.5940	84.2906
 0.5930	84.2891
 0.5920	84.3024
 0.5910	84.2845
 0.5900	84.2731
 0.5890	84.2772
 0.5880	84.2671
 0.5870	84.2667
 0.5860	84.2425
 0.5850	84.2439
 0.5840	84.2541
 0.5830	84.2499
 0.5820	84.2354
 0.5810	84.2384
 0.5800	84.2135
 0.5790	84.2234
 0.5780	84.2122
 0.5770	84.2030
 0.5760	84.1993
 0.5750	84.2153
 0.5740	84.2056
 0.5730	84.1998
 0.5720	84.1710
 0.5710	84.1839
 0.5700	84.1667
 0.5690	84.1684
 0.5680	84.1556
 0.5670	84.1505
 0.5660	84.1366
 0.5650	84.1038
 0.5640	84.0959
 0.5630	84.1167
 0.5620	84.1005
 0.5610	84.0841
 0.5600	84.0667
 0.5590	84.0667
 0.5580	84.0536
 0.5570	84.0475
 0.5560	84.0414
 0.5550	84.0389
 0.5540	84.0117
 0.5530	84.0035
 0.5520	83.9938
 0.5510	83.9828
 0.5500	84.0050
 0.5490	83.9704
 0.5480	83.9521
 0.5470	83.9417
 0.5460	83.9373
 0.5450	83.9210
 0.5440	83.9105
 0.5430	83.8779
 0.5420	83.8682
 0.5410	83.8450
 0.5400	83.8227
 0.5390	83.8257
 0.5380	83.7978
 0.5370	83.7877
 0.5360	83.7777
 0.5350	83.7663
 0.5340	83.7654
 0.5330	83.7304
 0.5320	83.7271
 0.5310	83.6793
 0.5300	83.6596
 0.5290	83.6574
 0.5280	83.6259
 0.5270	83.6274
 0.5260	83.6131
 0.5250	83.5785
 0.5240	83.5424
 0.5230	83.5331
 0.5220	83.5052
 0.5210	83.4856
 0.5200	83.4633
 0.5190	83.4469
 0.5180	83.4231
 0.5170	83.4173
 0.5160	83.3601
 0.5150	83.3495
 0.5140	83.3176
 0.5130	83.2932
 0.5120	83.2624
 0.5110	83.2341
 0.5100	83.1796
 0.5090	83.1523
 0.5080	83.1169
 0.5070	83.1311
 0.5060	83.0657
 0.5050	83.0491
 0.5040	83.0414
 0.5030	82.9959
 0.5020	82.9678
 0.5010	82.9435
 0.5000	82.9041
 0.4990	82.8407
 0.4980	82.8256
 0.4970	82.8081
 0.4960	82.7675
 0.4950	82.7202
 0.4940	82.6988
 0.4930	82.6577
 0.4920	82.6347
 0.4910	82.5949
 0.4900	82.5771
 0.4890	82.5272
 0.4880	82.5003
 0.4870	82.4481
 0.4860	82.4127
 0.4850	82.4112
 0.4840	82.3746
 0.4830	82.3239
 0.4820	82.2832
 0.4810	82.2297
 0.4800	82.2220
 0.4790	82.1500
 0.4780	82.1866
 0.4770	82.1304
 0.4760	82.0901
 0.4750	82.0669
 0.4740	82.0196
 0.4730	81.9909
 0.4720	81.9727
 0.4710	81.9400
 0.4700	81.8933
 0.4690	81.8766
 0.4680	81.8133
 0.4670	81.8121
 0.4660	81.7669
 0.4650	81.7540
 0.4640	81.7124
 0.4630	81.6889
 0.4620	81.6776
 0.4610	81.6400
 0.4600	81.6030
 0.4590	81.5697
 0.4580	81.5531
 0.4570	81.4821
 0.4560	81.4645
 0.4550	81.4384
 0.4540	81.4326
 0.4530	81.3772
 0.4520	81.3669
 0.4510	81.3329
 0.4500	81.2937
 0.4490	81.2791
 0.4480	81.2561
 0.4470	81.2337
 0.4460	81.2045
 0.4450	81.1766
 0.4440	81.1401
 0.4430	81.1230
 0.4420	81.1172
 0.4410	81.0728
 0.4400	81.0337
 0.4390	81.0103
 0.4380	80.9892
 0.4370	80.9759
 0.4360	80.9519
 0.4350	80.9285
 0.4340	80.8902
 0.4330	80.8801
 0.4320	80.8745
 0.4310	80.8441
 0.4300	80.8209
 0.4290	80.8048
 0.4280	80.7953
 0.4270	80.7500
 0.4260	80.7641
 0.4250	80.7164
 0.4240	80.6957
 0.4230	80.6854
 0.4220	80.6885
 0.4210	80.6600
 0.4200	80.6265
 0.4190	80.6277
 0.4180	80.6190
 0.4170	80.5747
 0.4160	80.5480
 0.4150	80.5633
 0.4140	80.5462
 0.4130	80.5238
 0.4120	80.5205
 0.4110	80.4866
 0.4100	80.4697
 0.4090	80.4543
 0.4080	80.4431
 0.4070	80.4453
 0.4060	80.4221
 0.4050	80.4095
 0.4040	80.3994
 0.4030	80.3705
 0.4020	80.3347
 0.4010	80.3249
 0.4000	80.3091
