Name: Quartz SiO_2
Type: Mineral
Class: Silicate
Subclass: Tectosilicate
Particle Size: Coarse
Sample No.: TS-1B
Owner: JPL
Wavelength Range: VSWIR
Origin: Brazil, Minas Gerais.
Collection Date: N/A
Description: Smoky quartzParticle size was 125-500um.Collected by:  Burminco Original ASTER Spectral Library name was jpl.perkin.mineral.silicate.tectosilicate.coarse.ts01b.spectrum.txt
Measurement: Hemispherical reflectance
First Column: X
Second Column: Y
X Units: Wavelength (micrometers)
Y Units:Reflectance (percent)
First X Value:  2.5000
Last X Value:  0.4000
Number of X Values: 2101
Additional Information: mineral.silicate.tectosilicate.coarse.vswir.ts-1b.jpl.perkin.ancillary.txt

 2.5000	76.4268
 2.4990	76.3622
 2.4980	76.1851
 2.4970	76.3661
 2.4960	76.1395
 2.4950	76.2681
 2.4940	76.1502
 2.4930	76.1879
 2.4920	76.2069
 2.4910	76.1287
 2.4900	76.2014
 2.4890	76.3389
 2.4880	76.2831
 2.4870	76.2820
 2.4860	76.3920
 2.4850	76.1942
 2.4840	76.2349
 2.4830	76.2035
 2.4820	76.3435
 2.4810	76.4077
 2.4800	76.2036
 2.4790	76.4320
 2.4780	76.3759
 2.4770	76.3114
 2.4760	76.4787
 2.4750	76.5844
 2.4740	76.3713
 2.4730	76.3848
 2.4720	76.4467
 2.4710	76.6534
 2.4700	76.5157
 2.4690	76.5074
 2.4680	76.4476
 2.4670	76.5282
 2.4660	76.4509
 2.4650	76.5454
 2.4640	76.5552
 2.4630	76.5929
 2.4620	76.5398
 2.4610	76.6999
 2.4600	76.5650
 2.4590	76.5858
 2.4580	76.5746
 2.4570	76.6052
 2.4560	76.5471
 2.4550	76.5593
 2.4540	76.6228
 2.4530	76.6549
 2.4520	76.5488
 2.4510	76.5632
 2.4500	76.6420
 2.4490	76.6204
 2.4480	76.5402
 2.4470	76.6566
 2.4460	76.5236
 2.4450	76.6506
 2.4440	76.6059
 2.4430	76.6288
 2.4420	76.5722
 2.4410	76.6511
 2.4400	76.6966
 2.4390	76.6428
 2.4380	76.6582
 2.4370	76.6413
 2.4360	76.6128
 2.4350	76.6430
 2.4340	76.6852
 2.4330	76.7357
 2.4320	76.7460
 2.4310	76.7492
 2.4300	76.7504
 2.4290	76.6884
 2.4280	76.7000
 2.4270	76.6951
 2.4260	76.7854
 2.4250	76.7724
 2.4240	76.7352
 2.4230	76.7781
 2.4220	76.8550
 2.4210	76.7732
 2.4200	76.7940
 2.4190	76.9082
 2.4180	76.9124
 2.4170	76.8755
 2.4160	76.8869
 2.4150	76.9354
 2.4140	76.8353
 2.4130	76.8713
 2.4120	77.0598
 2.4110	77.0795
 2.4100	76.9038
 2.4090	76.9273
 2.4080	76.9312
 2.4070	76.9454
 2.4060	76.9653
 2.4050	76.9907
 2.4040	77.0448
 2.4030	77.0045
 2.4020	76.9113
 2.4010	77.0264
 2.4000	77.0765
 2.3990	77.0185
 2.3980	76.9876
 2.3970	77.0809
 2.3960	77.1127
 2.3950	77.1420
 2.3940	77.0856
 2.3930	77.1215
 2.3920	77.1546
 2.3910	77.1015
 2.3900	77.0517
 2.3890	77.1634
 2.3880	77.1811
 2.3870	77.2451
 2.3860	77.2346
 2.3850	77.2036
 2.3840	77.1707
 2.3830	77.2799
 2.3820	77.3127
 2.3810	77.2301
 2.3800	77.2082
 2.3790	77.2928
 2.3780	77.2794
 2.3770	77.2582
 2.3760	77.2941
 2.3750	77.3198
 2.3740	77.3468
 2.3730	77.4227
 2.3720	77.3801
 2.3710	77.4002
 2.3700	77.4420
 2.3690	77.4431
 2.3680	77.4211
 2.3670	77.4852
 2.3660	77.5460
 2.3650	77.4993
 2.3640	77.4977
 2.3630	77.5329
 2.3620	77.5045
 2.3610	77.5024
 2.3600	77.5342
 2.3590	77.5364
 2.3580	77.5740
 2.3570	77.5454
 2.3560	77.5450
 2.3550	77.5924
 2.3540	77.6229
 2.3530	77.6013
 2.3520	77.5535
 2.3510	77.5185
 2.3500	77.5682
 2.3490	77.6487
 2.3480	77.6822
 2.3470	77.6630
 2.3460	77.6214
 2.3450	77.6412
 2.3440	77.6968
 2.3430	77.6722
 2.3420	77.6193
 2.3410	77.6249
 2.3400	77.6288
 2.3390	77.6598
 2.3380	77.6485
 2.3370	77.6656
 2.3360	77.6385
 2.3350	77.6168
 2.3340	77.6574
 2.3330	77.6516
 2.3320	77.6353
 2.3310	77.6314
 2.3300	77.6310
 2.3290	77.6665
 2.3280	77.6657
 2.3270	77.5848
 2.3260	77.5743
 2.3250	77.6119
 2.3240	77.6089
 2.3230	77.5695
 2.3220	77.5536
 2.3210	77.5210
 2.3200	77.5242
 2.3190	77.5155
 2.3180	77.5503
 2.3170	77.5169
 2.3160	77.5298
 2.3150	77.5577
 2.3140	77.5491
 2.3130	77.5144
 2.3120	77.5780
 2.3110	77.5193
 2.3100	77.5299
 2.3090	77.5106
 2.3080	77.5204
 2.3070	77.5199
 2.3060	77.5020
 2.3050	77.5422
 2.3040	77.5475
 2.3030	77.4961
 2.3020	77.5717
 2.3010	77.5260
 2.3000	77.4699
 2.2990	77.4798
 2.2980	77.4910
 2.2970	77.4941
 2.2960	77.5745
 2.2950	77.5345
 2.2940	77.5167
 2.2930	77.4849
 2.2920	77.4318
 2.2910	77.4693
 2.2900	77.4293
 2.2890	77.4227
 2.2880	77.3569
 2.2870	77.3964
 2.2860	77.4263
 2.2850	77.4221
 2.2840	77.2935
 2.2830	77.3216
 2.2820	77.3867
 2.2810	77.3676
 2.2800	77.4008
 2.2790	77.3631
 2.2780	77.4146
 2.2770	77.3745
 2.2760	77.3917
 2.2750	77.3125
 2.2740	77.3647
 2.2730	77.3694
 2.2720	77.3751
 2.2710	77.3094
 2.2700	77.3414
 2.2690	77.3043
 2.2680	77.3288
 2.2670	77.3178
 2.2660	77.3925
 2.2650	77.3429
 2.2640	77.3337
 2.2630	77.3547
 2.2620	77.4053
 2.2610	77.2274
 2.2600	77.2092
 2.2590	77.2574
 2.2580	77.3044
 2.2570	77.3927
 2.2560	77.3786
 2.2550	77.3028
 2.2540	77.2323
 2.2530	77.2986
 2.2520	77.2626
 2.2510	77.2429
 2.2500	77.1906
 2.2490	77.1978
 2.2480	77.1917
 2.2470	77.2577
 2.2460	77.3433
 2.2450	77.2260
 2.2440	77.2631
 2.2430	77.3148
 2.2420	77.2958
 2.2410	77.2450
 2.2400	77.3329
 2.2390	77.3033
 2.2380	77.2580
 2.2370	77.2165
 2.2360	77.2422
 2.2350	77.2912
 2.2340	77.3551
 2.2330	77.3404
 2.2320	77.2649
 2.2310	77.2388
 2.2300	77.2757
 2.2290	77.2657
 2.2280	77.2873
 2.2270	77.2973
 2.2260	77.2893
 2.2250	77.1879
 2.2240	77.3505
 2.2230	77.3624
 2.2220	77.3754
 2.2210	77.3870
 2.2200	77.3308
 2.2190	77.3397
 2.2180	77.4031
 2.2170	77.4087
 2.2160	77.4948
 2.2150	77.3612
 2.2140	77.4839
 2.2130	77.4127
 2.2120	77.4608
 2.2110	77.3956
 2.2100	77.5238
 2.2090	77.5301
 2.2080	77.4890
 2.2070	77.4524
 2.2060	77.5783
 2.2050	77.5086
 2.2040	77.5669
 2.2030	77.5764
 2.2020	77.6364
 2.2010	77.6568
 2.2000	77.7090
 2.1990	77.6863
 2.1980	77.6873
 2.1970	77.6351
 2.1960	77.6882
 2.1950	77.7383
 2.1940	77.6699
 2.1930	77.7015
 2.1920	77.7359
 2.1910	77.6598
 2.1900	77.8116
 2.1890	77.7636
 2.1880	77.7611
 2.1870	77.7552
 2.1860	77.7840
 2.1850	77.8563
 2.1840	77.9085
 2.1830	77.8367
 2.1820	77.8912
 2.1810	77.8814
 2.1800	77.8787
 2.1790	77.8485
 2.1780	77.9401
 2.1770	77.8748
 2.1760	77.9190
 2.1750	77.9122
 2.1740	77.9778
 2.1730	77.9864
 2.1720	78.0271
 2.1710	78.0986
 2.1700	78.0230
 2.1690	78.1117
 2.1680	78.1601
 2.1670	78.1335
 2.1660	78.1635
 2.1650	78.1697
 2.1640	78.1915
 2.1630	78.1956
 2.1620	78.2183
 2.1610	78.2730
 2.1600	78.3335
 2.1590	78.3503
 2.1580	78.3237
 2.1570	78.3935
 2.1560	78.3440
 2.1550	78.3433
 2.1540	78.3447
 2.1530	78.4452
 2.1520	78.3709
 2.1510	78.4030
 2.1500	78.4760
 2.1490	78.4738
 2.1480	78.4526
 2.1470	78.5003
 2.1460	78.5189
 2.1450	78.4675
 2.1440	78.4733
 2.1430	78.4657
 2.1420	78.4278
 2.1410	78.4665
 2.1400	78.4822
 2.1390	78.3974
 2.1380	78.3366
 2.1370	78.4006
 2.1360	78.3187
 2.1350	78.3573
 2.1340	78.3766
 2.1330	78.2791
 2.1320	78.2320
 2.1310	78.2819
 2.1300	78.2816
 2.1290	78.2004
 2.1280	78.1626
 2.1270	78.1593
 2.1260	78.0748
 2.1250	78.0364
 2.1240	78.0567
 2.1230	77.9854
 2.1220	77.8982
 2.1210	77.8180
 2.1200	77.8460
 2.1190	77.8464
 2.1180	77.7906
 2.1170	77.7815
 2.1160	77.7501
 2.1150	77.6627
 2.1140	77.5824
 2.1130	77.5429
 2.1120	77.5466
 2.1110	77.4784
 2.1100	77.3762
 2.1090	77.3303
 2.1080	77.2960
 2.1070	77.2776
 2.1060	77.2271
 2.1050	77.1938
 2.1040	77.1902
 2.1030	77.1472
 2.1020	77.1019
 2.1010	77.0522
 2.1000	77.0398
 2.0990	77.0660
 2.0980	77.1091
 2.0970	77.1325
 2.0960	77.0889
 2.0950	76.9954
 2.0940	77.0594
 2.0930	77.1208
 2.0920	77.0932
 2.0910	77.0913
 2.0900	77.0994
 2.0890	77.1094
 2.0880	77.1421
 2.0870	77.1294
 2.0860	77.1131
 2.0850	77.1282
 2.0840	77.2000
 2.0830	77.2396
 2.0820	77.2135
 2.0810	77.1826
 2.0800	77.1863
 2.0790	77.1900
 2.0780	77.1889
 2.0770	77.2173
 2.0760	77.2110
 2.0750	77.2166
 2.0740	77.2102
 2.0730	77.2239
 2.0720	77.2306
 2.0710	77.2267
 2.0700	77.2649
 2.0690	77.2931
 2.0680	77.3009
 2.0670	77.3380
 2.0660	77.3138
 2.0650	77.3052
 2.0640	77.3722
 2.0630	77.3526
 2.0620	77.3619
 2.0610	77.3791
 2.0600	77.3453
 2.0590	77.3508
 2.0580	77.3858
 2.0570	77.3836
 2.0560	77.3225
 2.0550	77.3240
 2.0540	77.3450
 2.0530	77.3146
 2.0520	77.4231
 2.0510	77.4773
 2.0500	77.4249
 2.0490	77.4073
 2.0480	77.3815
 2.0470	77.4320
 2.0460	77.4320
 2.0450	77.4297
 2.0440	77.4956
 2.0430	77.4947
 2.0420	77.5117
 2.0410	77.5364
 2.0400	77.5488
 2.0390	77.5761
 2.0380	77.5090
 2.0370	77.5172
 2.0360	77.5062
 2.0350	77.5489
 2.0340	77.5622
 2.0330	77.5426
 2.0320	77.5790
 2.0310	77.5571
 2.0300	77.5171
 2.0290	77.5140
 2.0280	77.5338
 2.0270	77.5251
 2.0260	77.5167
 2.0250	77.5299
 2.0240	77.5432
 2.0230	77.4980
 2.0220	77.5767
 2.0210	77.5970
 2.0200	77.5386
 2.0190	77.5199
 2.0180	77.5245
 2.0170	77.5551
 2.0160	77.5063
 2.0150	77.5126
 2.0140	77.4960
 2.0130	77.4829
 2.0120	77.4675
 2.0110	77.4813
 2.0100	77.5148
 2.0090	77.5358
 2.0080	77.5155
 2.0070	77.5448
 2.0060	77.4738
 2.0050	77.4640
 2.0040	77.5157
 2.0030	77.5477
 2.0020	77.4961
 2.0010	77.5854
 2.0000	77.5102
 1.9990	77.4668
 1.9980	77.4132
 1.9970	77.4542
 1.9960	77.4068
 1.9950	77.4516
 1.9940	77.4578
 1.9930	77.3808
 1.9920	77.4112
 1.9910	77.3998
 1.9900	77.3646
 1.9890	77.3931
 1.9880	77.3532
 1.9870	77.3250
 1.9860	77.3568
 1.9850	77.3620
 1.9840	77.3098
 1.9830	77.2939
 1.9820	77.2213
 1.9810	77.2571
 1.9800	77.2810
 1.9790	77.3062
 1.9780	77.2440
 1.9770	77.3008
 1.9760	77.2590
 1.9750	77.2793
 1.9740	77.2089
 1.9730	77.2699
 1.9720	77.2713
 1.9710	77.2522
 1.9700	77.1557
 1.9690	77.2226
 1.9680	77.3119
 1.9670	77.2286
 1.9660	77.2842
 1.9650	77.2473
 1.9640	77.2613
 1.9630	77.2201
 1.9620	77.2031
 1.9610	77.2069
 1.9600	77.1864
 1.9590	77.1500
 1.9580	77.2345
 1.9570	77.2273
 1.9560	77.1619
 1.9550	77.2669
 1.9540	77.1105
 1.9530	77.2162
 1.9520	77.1502
 1.9510	77.1994
 1.9500	77.1939
 1.9490	77.1769
 1.9480	77.1425
 1.9470	77.2329
 1.9460	77.2262
 1.9450	77.1293
 1.9440	77.1711
 1.9430	77.2503
 1.9420	77.1688
 1.9410	77.2971
 1.9400	77.1778
 1.9390	77.1907
 1.9380	77.1920
 1.9370	77.2033
 1.9360	77.2632
 1.9350	77.1888
 1.9340	77.1729
 1.9330	77.2657
 1.9320	77.2537
 1.9310	77.2432
 1.9300	77.2903
 1.9290	77.2865
 1.9280	77.3125
 1.9270	77.2664
 1.9260	77.2063
 1.9250	77.2869
 1.9240	77.2162
 1.9230	77.2992
 1.9220	77.2274
 1.9210	77.3019
 1.9200	77.3538
 1.9190	77.2770
 1.9180	77.2694
 1.9170	77.3369
 1.9160	77.3457
 1.9150	77.2942
 1.9140	77.3419
 1.9130	77.3474
 1.9120	77.2957
 1.9110	77.3916
 1.9100	77.3855
 1.9090	77.4143
 1.9080	77.3769
 1.9070	77.3188
 1.9060	77.3399
 1.9050	77.4001
 1.9040	77.4109
 1.9030	77.4748
 1.9020	77.4310
 1.9010	77.4077
 1.9000	77.4442
 1.8990	77.3928
 1.8980	77.4080
 1.8970	77.5101
 1.8960	77.4312
 1.8950	77.5252
 1.8940	77.4935
 1.8930	77.5162
 1.8920	77.4241
 1.8910	77.4894
 1.8900	77.5621
 1.8890	77.4735
 1.8880	77.5020
 1.8870	77.5334
 1.8860	77.5506
 1.8850	77.5703
 1.8840	77.5436
 1.8830	77.5309
 1.8820	77.5717
 1.8810	77.5628
 1.8800	77.6075
 1.8790	77.6402
 1.8780	77.5999
 1.8770	77.5804
 1.8760	77.6553
 1.8750	77.5792
 1.8740	77.6210
 1.8730	77.6698
 1.8720	77.6054
 1.8710	77.6126
 1.8700	77.6132
 1.8690	77.5997
 1.8680	77.5723
 1.8670	77.5943
 1.8660	77.6398
 1.8650	77.6787
 1.8640	77.7265
 1.8630	77.6230
 1.8620	77.6384
 1.8610	77.6521
 1.8600	77.6989
 1.8590	77.5935
 1.8580	77.6186
 1.8570	77.6504
 1.8560	77.6428
 1.8550	77.6546
 1.8540	77.6249
 1.8530	77.5726
 1.8520	77.6234
 1.8510	77.6490
 1.8500	77.5987
 1.8490	77.6330
 1.8480	77.5775
 1.8470	77.6544
 1.8460	77.6759
 1.8450	77.7003
 1.8440	77.7123
 1.8430	77.6894
 1.8420	77.6917
 1.8410	77.6858
 1.8400	77.7024
 1.8390	77.6270
 1.8380	77.6304
 1.8370	77.6781
 1.8360	77.6195
 1.8350	77.6143
 1.8340	77.6221
 1.8330	77.6569
 1.8320	77.5813
 1.8310	77.6530
 1.8300	77.6024
 1.8290	77.6410
 1.8280	77.6443
 1.8270	77.6646
 1.8260	77.5856
 1.8250	77.6206
 1.8240	77.6866
 1.8230	77.6991
 1.8220	77.6665
 1.8210	77.6584
 1.8200	77.6466
 1.8190	77.6395
 1.8180	77.6328
 1.8170	77.6548
 1.8160	77.6776
 1.8150	77.6435
 1.8140	77.6313
 1.8130	77.6526
 1.8120	77.6344
 1.8110	77.6733
 1.8100	77.6310
 1.8090	77.6855
 1.8080	77.6821
 1.8070	77.6509
 1.8060	77.6490
 1.8050	77.6354
 1.8040	77.6910
 1.8030	77.6790
 1.8020	77.6034
 1.8010	77.6458
 1.8000	77.6684
 1.7990	77.6991
 1.7980	77.6795
 1.7970	77.6737
 1.7960	77.6780
 1.7950	77.6858
 1.7940	77.6659
 1.7930	77.6022
 1.7920	77.6796
 1.7910	77.6951
 1.7900	77.6408
 1.7890	77.6408
 1.7880	77.6503
 1.7870	77.6667
 1.7860	77.6359
 1.7850	77.5429
 1.7840	77.5461
 1.7830	77.6007
 1.7820	77.6617
 1.7810	77.6180
 1.7800	77.5407
 1.7790	77.6117
 1.7780	77.6187
 1.7770	77.5928
 1.7760	77.6176
 1.7750	77.6241
 1.7740	77.6085
 1.7730	77.5785
 1.7720	77.5374
 1.7710	77.5322
 1.7700	77.5402
 1.7690	77.5544
 1.7680	77.5270
 1.7670	77.5297
 1.7660	77.5918
 1.7650	77.5682
 1.7640	77.5452
 1.7630	77.5591
 1.7620	77.5616
 1.7610	77.5521
 1.7600	77.5197
 1.7590	77.5134
 1.7580	77.5480
 1.7570	77.5726
 1.7560	77.5568
 1.7550	77.5351
 1.7540	77.5251
 1.7530	77.5182
 1.7520	77.5265
 1.7510	77.5312
 1.7500	77.6226
 1.7490	77.5995
 1.7480	77.5232
 1.7470	77.5469
 1.7460	77.5841
 1.7450	77.5737
 1.7440	77.6301
 1.7430	77.5740
 1.7420	77.5462
 1.7410	77.5893
 1.7400	77.5668
 1.7390	77.5407
 1.7380	77.5683
 1.7370	77.5746
 1.7360	77.5622
 1.7350	77.5589
 1.7340	77.5886
 1.7330	77.6394
 1.7320	77.6150
 1.7310	77.5665
 1.7300	77.5919
 1.7290	77.6281
 1.7280	77.6178
 1.7270	77.6028
 1.7260	77.5823
 1.7250	77.5936
 1.7240	77.5584
 1.7230	77.5708
 1.7220	77.6257
 1.7210	77.6273
 1.7200	77.5436
 1.7190	77.5737
 1.7180	77.5917
 1.7170	77.6599
 1.7160	77.6299
 1.7150	77.5631
 1.7140	77.5762
 1.7130	77.5186
 1.7120	77.5687
 1.7110	77.5355
 1.7100	77.5288
 1.7090	77.5184
 1.7080	77.5199
 1.7070	77.5565
 1.7060	77.6091
 1.7050	77.6032
 1.7040	77.5245
 1.7030	77.4942
 1.7020	77.5387
 1.7010	77.5916
 1.7000	77.5768
 1.6990	77.4849
 1.6980	77.4165
 1.6970	77.4757
 1.6960	77.5242
 1.6950	77.4508
 1.6940	77.4787
 1.6930	77.4772
 1.6920	77.4889
 1.6910	77.4663
 1.6900	77.4977
 1.6890	77.4996
 1.6880	77.4904
 1.6870	77.4270
 1.6860	77.4871
 1.6850	77.4749
 1.6840	77.4653
 1.6830	77.4213
 1.6820	77.4790
 1.6810	77.4847
 1.6800	77.4666
 1.6790	77.4929
 1.6780	77.5259
 1.6770	77.4574
 1.6760	77.4229
 1.6750	77.5265
 1.6740	77.4488
 1.6730	77.4442
 1.6720	77.4693
 1.6710	77.4377
 1.6700	77.5000
 1.6690	77.4787
 1.6680	77.4041
 1.6670	77.3632
 1.6660	77.4050
 1.6650	77.3531
 1.6640	77.3714
 1.6630	77.3587
 1.6620	77.3718
 1.6610	77.4721
 1.6600	77.4933
 1.6590	77.3247
 1.6580	77.4349
 1.6570	77.4844
 1.6560	77.4168
 1.6550	77.4994
 1.6540	77.4775
 1.6530	77.3973
 1.6520	77.3740
 1.6510	77.3641
 1.6500	77.4536
 1.6490	77.4483
 1.6480	77.3992
 1.6470	77.3573
 1.6460	77.3788
 1.6450	77.4834
 1.6440	77.3271
 1.6430	77.3217
 1.6420	77.4185
 1.6410	77.3782
 1.6400	77.3730
 1.6390	77.4202
 1.6380	77.4581
 1.6370	77.3051
 1.6360	77.4315
 1.6350	77.2950
 1.6340	77.3712
 1.6330	77.3411
 1.6320	77.3749
 1.6310	77.3167
 1.6300	77.3773
 1.6290	77.3337
 1.6280	77.2692
 1.6270	77.3250
 1.6260	77.3671
 1.6250	77.3874
 1.6240	77.3439
 1.6230	77.3516
 1.6220	77.4182
 1.6210	77.3043
 1.6200	77.3167
 1.6190	77.3142
 1.6180	77.3612
 1.6170	77.2934
 1.6160	77.3029
 1.6150	77.3446
 1.6140	77.3170
 1.6130	77.2613
 1.6120	77.3011
 1.6110	77.3360
 1.6100	77.3589
 1.6090	77.3209
 1.6080	77.3374
 1.6070	77.3561
 1.6060	77.3705
 1.6050	77.3263
 1.6040	77.3741
 1.6030	77.4252
 1.6020	77.3303
 1.6010	77.3601
 1.6000	77.4046
 1.5990	77.3242
 1.5980	77.3687
 1.5970	77.3116
 1.5960	77.2830
 1.5950	77.2449
 1.5940	77.3536
 1.5930	77.2708
 1.5920	77.3222
 1.5910	77.3015
 1.5900	77.3417
 1.5890	77.3444
 1.5880	77.3215
 1.5870	77.3107
 1.5860	77.2856
 1.5850	77.2881
 1.5840	77.3401
 1.5830	77.2962
 1.5820	77.2362
 1.5810	77.2190
 1.5800	77.2689
 1.5790	77.2865
 1.5780	77.2705
 1.5770	77.3029
 1.5760	77.3174
 1.5750	77.2363
 1.5740	77.2227
 1.5730	77.2179
 1.5720	77.2428
 1.5710	77.2294
 1.5700	77.2224
 1.5690	77.2008
 1.5680	77.2392
 1.5670	77.1433
 1.5660	77.2607
 1.5650	77.2623
 1.5640	77.2799
 1.5630	77.2433
 1.5620	77.1947
 1.5610	77.1722
 1.5600	77.1632
 1.5590	77.1825
 1.5580	77.1986
 1.5570	77.1729
 1.5560	77.1319
 1.5550	77.1196
 1.5540	77.1402
 1.5530	77.1657
 1.5520	77.1774
 1.5510	77.1609
 1.5500	77.1989
 1.5490	77.2083
 1.5480	77.1527
 1.5470	77.1446
 1.5460	77.1367
 1.5450	77.1262
 1.5440	77.1722
 1.5430	77.1951
 1.5420	77.1836
 1.5410	77.1680
 1.5400	77.1987
 1.5390	77.1393
 1.5380	77.1146
 1.5370	77.0944
 1.5360	77.1099
 1.5350	77.1358
 1.5340	77.1814
 1.5330	77.1338
 1.5320	77.1018
 1.5310	77.0622
 1.5300	77.0981
 1.5290	77.0640
 1.5280	77.0877
 1.5270	77.0384
 1.5260	77.0556
 1.5250	77.0764
 1.5240	77.1061
 1.5230	77.1017
 1.5220	77.1037
 1.5210	77.0936
 1.5200	77.1075
 1.5190	77.1173
 1.5180	77.1047
 1.5170	77.0982
 1.5160	77.0836
 1.5150	77.1055
 1.5140	77.0969
 1.5130	77.0387
 1.5120	77.0362
 1.5110	77.0961
 1.5100	77.0539
 1.5090	77.0110
 1.5080	77.0370
 1.5070	77.0631
 1.5060	77.0265
 1.5050	77.0050
 1.5040	77.0247
 1.5030	76.9897
 1.5020	77.0087
 1.5010	77.0469
 1.5000	77.0029
 1.4990	76.9896
 1.4980	77.0163
 1.4970	77.0070
 1.4960	76.9603
 1.4950	76.9619
 1.4940	76.9623
 1.4930	76.9696
 1.4920	76.9903
 1.4910	76.9928
 1.4900	77.0093
 1.4890	76.9802
 1.4880	76.9561
 1.4870	76.9595
 1.4860	76.9399
 1.4850	76.9544
 1.4840	76.9865
 1.4830	76.9800
 1.4820	76.9497
 1.4810	76.9400
 1.4800	76.8997
 1.4790	76.8955
 1.4780	76.9358
 1.4770	76.9597
 1.4760	76.9551
 1.4750	76.9764
 1.4740	76.9677
 1.4730	76.9776
 1.4720	76.9244
 1.4710	76.9119
 1.4700	76.9103
 1.4690	76.9200
 1.4680	76.9133
 1.4670	76.9063
 1.4660	76.8789
 1.4650	76.8547
 1.4640	76.8304
 1.4630	76.8793
 1.4620	76.8931
 1.4610	76.8763
 1.4600	76.8035
 1.4590	76.8820
 1.4580	76.9030
 1.4570	76.8411
 1.4560	76.8575
 1.4550	76.8606
 1.4540	76.8259
 1.4530	76.8753
 1.4520	76.8665
 1.4510	76.8606
 1.4500	76.8031
 1.4490	76.8480
 1.4480	76.8693
 1.4470	76.8537
 1.4460	76.8256
 1.4450	76.9230
 1.4440	76.9310
 1.4430	76.9377
 1.4420	76.8818
 1.4410	76.9275
 1.4400	76.8810
 1.4390	76.8537
 1.4380	76.7713
 1.4370	76.8197
 1.4360	76.8307
 1.4350	76.8480
 1.4340	76.8957
 1.4330	76.8755
 1.4320	76.8272
 1.4310	76.8177
 1.4300	76.8236
 1.4290	76.8234
 1.4280	76.8034
 1.4270	76.7905
 1.4260	76.8555
 1.4250	76.7848
 1.4240	76.7371
 1.4230	76.7899
 1.4220	76.7880
 1.4210	76.7426
 1.4200	76.7224
 1.4190	76.7650
 1.4180	76.7899
 1.4170	76.8605
 1.4160	76.7969
 1.4150	76.6702
 1.4140	76.7188
 1.4130	76.7690
 1.4120	76.7268
 1.4110	76.7636
 1.4100	76.6583
 1.4090	76.7906
 1.4080	76.6923
 1.4070	76.6873
 1.4060	76.6611
 1.4050	76.7387
 1.4040	76.7235
 1.4030	76.7474
 1.4020	76.6981
 1.4010	76.8168
 1.4000	76.7331
 1.3990	76.6763
 1.3980	76.7791
 1.3970	76.7681
 1.3960	76.7922
 1.3950	76.8334
 1.3940	76.7235
 1.3930	76.8165
 1.3920	76.7300
 1.3910	76.7038
 1.3900	76.7546
 1.3890	76.7771
 1.3880	76.8345
 1.3870	76.7797
 1.3860	76.7279
 1.3850	76.7297
 1.3840	76.7053
 1.3830	76.8161
 1.3820	76.6727
 1.3810	76.7240
 1.3800	76.6869
 1.3790	76.7603
 1.3780	76.6860
 1.3770	76.7416
 1.3760	76.6890
 1.3750	76.7200
 1.3740	76.7570
 1.3730	76.6520
 1.3720	76.6938
 1.3710	76.7124
 1.3700	76.6458
 1.3690	76.8167
 1.3680	76.6743
 1.3670	76.6852
 1.3660	76.6503
 1.3650	76.6785
 1.3640	76.5974
 1.3630	76.6148
 1.3620	76.7718
 1.3610	76.7020
 1.3600	76.6364
 1.3590	76.6281
 1.3580	76.6282
 1.3570	76.6815
 1.3560	76.6245
 1.3550	76.6310
 1.3540	76.6049
 1.3530	76.6109
 1.3520	76.5095
 1.3510	76.5507
 1.3500	76.6054
 1.3490	76.5632
 1.3480	76.5858
 1.3470	76.5923
 1.3460	76.5143
 1.3450	76.5674
 1.3440	76.5328
 1.3430	76.4519
 1.3420	76.5560
 1.3410	76.5564
 1.3400	76.5457
 1.3390	76.5632
 1.3380	76.5581
 1.3370	76.5021
 1.3360	76.5944
 1.3350	76.5674
 1.3340	76.5316
 1.3330	76.5537
 1.3320	76.5386
 1.3310	76.5155
 1.3300	76.4289
 1.3290	76.4915
 1.3280	76.4950
 1.3270	76.5288
 1.3260	76.4885
 1.3250	76.5809
 1.3240	76.5505
 1.3230	76.4770
 1.3220	76.4875
 1.3210	76.4880
 1.3200	76.4935
 1.3190	76.3973
 1.3180	76.4644
 1.3170	76.4517
 1.3160	76.4973
 1.3150	76.3991
 1.3140	76.3753
 1.3130	76.4640
 1.3120	76.4083
 1.3110	76.4493
 1.3100	76.4066
 1.3090	76.4032
 1.3080	76.4596
 1.3070	76.3819
 1.3060	76.4021
 1.3050	76.3567
 1.3040	76.4122
 1.3030	76.4022
 1.3020	76.3452
 1.3010	76.3373
 1.3000	76.3305
 1.2990	76.3793
 1.2980	76.3717
 1.2970	76.2841
 1.2960	76.2670
 1.2950	76.2425
 1.2940	76.3126
 1.2930	76.3386
 1.2920	76.3558
 1.2910	76.3170
 1.2900	76.2360
 1.2890	76.2897
 1.2880	76.2785
 1.2870	76.2792
 1.2860	76.2886
 1.2850	76.3219
 1.2840	76.2454
 1.2830	76.2178
 1.2820	76.2081
 1.2810	76.2792
 1.2800	76.2683
 1.2790	76.2453
 1.2780	76.2701
 1.2770	76.2611
 1.2760	76.2752
 1.2750	76.2491
 1.2740	76.2494
 1.2730	76.1902
 1.2720	76.1491
 1.2710	76.1789
 1.2700	76.1896
 1.2690	76.2258
 1.2680	76.1703
 1.2670	76.1152
 1.2660	76.1705
 1.2650	76.1258
 1.2640	76.1594
 1.2630	76.1627
 1.2620	76.1328
 1.2610	76.1063
 1.2600	76.1508
 1.2590	76.1403
 1.2580	76.0966
 1.2570	76.1073
 1.2560	76.0744
 1.2550	76.0437
 1.2540	76.0428
 1.2530	76.1027
 1.2520	76.0832
 1.2510	76.0546
 1.2500	76.0563
 1.2490	76.0675
 1.2480	76.0935
 1.2470	76.0563
 1.2460	75.9944
 1.2450	75.9631
 1.2440	76.0040
 1.2430	75.9826
 1.2420	75.9662
 1.2410	75.9782
 1.2400	75.9928
 1.2390	76.0156
 1.2380	75.9665
 1.2370	75.9633
 1.2360	75.9529
 1.2350	75.9496
 1.2340	75.9461
 1.2330	75.9435
 1.2320	75.9488
 1.2310	75.9371
 1.2300	75.9245
 1.2290	75.9254
 1.2280	75.9347
 1.2270	75.8927
 1.2260	75.9104
 1.2250	75.9531
 1.2240	75.8711
 1.2230	75.8827
 1.2220	75.9266
 1.2210	75.8783
 1.2200	75.8672
 1.2190	75.8858
 1.2180	75.8070
 1.2170	75.8075
 1.2160	75.8412
 1.2150	75.8308
 1.2140	75.7789
 1.2130	75.7740
 1.2120	75.8037
 1.2110	75.7819
 1.2100	75.7448
 1.2090	75.7650
 1.2080	75.7921
 1.2070	75.8068
 1.2060	75.7999
 1.2050	75.7446
 1.2040	75.7893
 1.2030	75.7592
 1.2020	75.7213
 1.2010	75.7217
 1.2000	75.7135
 1.1990	75.6546
 1.1980	75.6322
 1.1970	75.6376
 1.1960	75.6491
 1.1950	75.6742
 1.1940	75.7160
 1.1930	75.6946
 1.1920	75.6558
 1.1910	75.6671
 1.1900	75.6944
 1.1890	75.7181
 1.1880	75.6597
 1.1870	75.6153
 1.1860	75.6457
 1.1850	75.6208
 1.1840	75.5912
 1.1830	75.5929
 1.1820	75.5469
 1.1810	75.5219
 1.1800	75.5759
 1.1790	75.5722
 1.1780	75.5600
 1.1770	75.5193
 1.1760	75.5459
 1.1750	75.5195
 1.1740	75.4963
 1.1730	75.4805
 1.1720	75.5136
 1.1710	75.4420
 1.1700	75.4289
 1.1690	75.4385
 1.1680	75.4417
 1.1670	75.4051
 1.1660	75.4296
 1.1650	75.4197
 1.1640	75.4234
 1.1630	75.3902
 1.1620	75.3926
 1.1610	75.4219
 1.1600	75.3818
 1.1590	75.3928
 1.1580	75.3582
 1.1570	75.3551
 1.1560	75.4206
 1.1550	75.3605
 1.1540	75.3362
 1.1530	75.3228
 1.1520	75.3785
 1.1510	75.3288
 1.1500	75.2822
 1.1490	75.3015
 1.1480	75.3183
 1.1470	75.2758
 1.1460	75.2907
 1.1450	75.2333
 1.1440	75.2395
 1.1430	75.2053
 1.1420	75.2602
 1.1410	75.2311
 1.1400	75.2456
 1.1390	75.1445
 1.1380	75.2124
 1.1370	75.2481
 1.1360	75.2256
 1.1350	75.2712
 1.1340	75.1730
 1.1330	75.0989
 1.1320	75.1530
 1.1310	75.0592
 1.1300	75.1106
 1.1290	75.0669
 1.1280	75.1494
 1.1270	75.0847
 1.1260	75.0267
 1.1250	75.0424
 1.1240	75.1348
 1.1230	75.0276
 1.1220	75.0309
 1.1210	74.9713
 1.1200	75.0029
 1.1190	74.9345
 1.1180	74.9550
 1.1170	74.8848
 1.1160	74.9341
 1.1150	74.9699
 1.1140	74.9408
 1.1130	74.9018
 1.1120	74.8660
 1.1110	74.8259
 1.1100	74.8770
 1.1090	74.8344
 1.1080	74.8707
 1.1070	74.7894
 1.1060	74.7732
 1.1050	74.7922
 1.1040	74.7693
 1.1030	74.8462
 1.1020	74.7944
 1.1010	74.7937
 1.1000	74.7278
 1.0990	74.7564
 1.0980	74.7023
 1.0970	74.7152
 1.0960	74.6935
 1.0950	74.6262
 1.0940	74.5926
 1.0930	74.6205
 1.0920	74.6187
 1.0910	74.6005
 1.0900	74.6555
 1.0890	74.5731
 1.0880	74.6327
 1.0870	74.5649
 1.0860	74.5723
 1.0850	74.5938
 1.0840	74.5804
 1.0830	74.4908
 1.0820	74.4624
 1.0810	74.3974
 1.0800	74.4540
 1.0790	74.4306
 1.0780	74.3711
 1.0770	74.3496
 1.0760	74.4008
 1.0750	74.3564
 1.0740	74.3787
 1.0730	74.3088
 1.0720	74.3527
 1.0710	74.3731
 1.0700	74.2246
 1.0690	74.2812
 1.0680	74.2065
 1.0670	74.1933
 1.0660	74.2503
 1.0650	74.2376
 1.0640	74.2059
 1.0630	74.1988
 1.0620	74.2282
 1.0610	74.1099
 1.0600	74.0898
 1.0590	74.1594
 1.0580	74.0439
 1.0570	74.0056
 1.0560	74.1044
 1.0550	74.0220
 1.0540	74.0109
 1.0530	73.9641
 1.0520	73.9003
 1.0510	73.9242
 1.0500	73.9743
 1.0490	73.9986
 1.0480	73.8690
 1.0470	73.8711
 1.0460	73.8122
 1.0450	73.7393
 1.0440	73.8100
 1.0430	73.7393
 1.0420	73.7789
 1.0410	73.7395
 1.0400	73.8090
 1.0390	73.7075
 1.0380	73.7483
 1.0370	73.6530
 1.0360	73.6766
 1.0350	73.6548
 1.0340	73.6343
 1.0330	73.5322
 1.0320	73.6119
 1.0310	73.4924
 1.0300	73.5477
 1.0290	73.5419
 1.0280	73.4570
 1.0270	73.3985
 1.0260	73.3960
 1.0250	73.4188
 1.0240	73.3482
 1.0230	73.3826
 1.0220	73.3336
 1.0210	73.2978
 1.0200	73.3263
 1.0190	73.1865
 1.0180	73.2732
 1.0170	73.1862
 1.0160	73.1423
 1.0150	73.1499
 1.0140	73.1790
 1.0130	73.1094
 1.0120	73.0928
 1.0110	73.0586
 1.0100	73.0464
 1.0090	73.0425
 1.0080	73.0266
 1.0070	72.9636
 1.0060	73.0198
 1.0050	72.9647
 1.0040	72.8963
 1.0030	72.8675
 1.0020	72.8461
 1.0010	72.7903
 1.0000	72.7832
 0.9990	72.7392
 0.9980	72.7548
 0.9970	72.6763
 0.9960	72.7349
 0.9950	72.6534
 0.9940	72.6099
 0.9930	72.5458
 0.9920	72.5369
 0.9910	72.5345
 0.9900	72.5310
 0.9890	72.5122
 0.9880	72.5210
 0.9870	72.4289
 0.9860	72.3900
 0.9850	72.3693
 0.9840	72.3012
 0.9830	72.2822
 0.9820	72.2452
 0.9810	72.1520
 0.9800	72.2228
 0.9790	72.2018
 0.9780	72.1464
 0.9770	72.1072
 0.9760	72.1222
 0.9750	72.0647
 0.9740	72.0538
 0.9730	71.9399
 0.9720	71.9752
 0.9710	71.9715
 0.9700	71.9225
 0.9690	71.8485
 0.9680	71.8106
 0.9670	71.7827
 0.9660	71.7668
 0.9650	71.8254
 0.9640	71.7804
 0.9630	71.7288
 0.9620	71.6625
 0.9610	71.5918
 0.9600	71.5422
 0.9590	71.5820
 0.9580	71.5431
 0.9570	71.4912
 0.9560	71.4764
 0.9550	71.4411
 0.9540	71.4052
 0.9530	71.3743
 0.9520	71.3084
 0.9510	71.2761
 0.9500	71.2442
 0.9490	71.1785
 0.9480	71.1404
 0.9470	71.0822
 0.9460	71.0824
 0.9450	71.0849
 0.9440	71.0245
 0.9430	70.9563
 0.9420	70.9687
 0.9410	70.9706
 0.9400	70.9233
 0.9390	70.8234
 0.9380	70.7705
 0.9370	70.7449
 0.9360	70.7516
 0.9350	70.7299
 0.9340	70.6703
 0.9330	70.5805
 0.9320	70.5476
 0.9310	70.4923
 0.9300	70.4757
 0.9290	70.5070
 0.9280	70.4245
 0.9270	70.3468
 0.9260	70.3151
 0.9250	70.2905
 0.9240	70.2596
 0.9230	70.2671
 0.9220	70.2053
 0.9210	70.1196
 0.9200	70.0813
 0.9190	70.0419
 0.9180	70.0138
 0.9170	70.0191
 0.9160	69.9605
 0.9150	69.8882
 0.9140	69.8475
 0.9130	69.7858
 0.9120	69.6977
 0.9110	69.7182
 0.9100	69.7405
 0.9090	69.6434
 0.9080	69.5891
 0.9070	69.5441
 0.9060	69.4944
 0.9050	69.5082
 0.9040	69.3728
 0.9030	69.3309
 0.9020	69.3288
 0.9010	69.2196
 0.9000	69.1588
 0.8990	69.1808
 0.8980	69.1082
 0.8970	69.0912
 0.8960	69.0244
 0.8950	68.9914
 0.8940	68.9507
 0.8930	68.9138
 0.8920	68.8797
 0.8910	68.8835
 0.8900	68.8571
 0.8890	68.7773
 0.8880	68.7362
 0.8870	68.7349
 0.8860	68.6147
 0.8850	68.5931
 0.8840	68.5390
 0.8830	68.4791
 0.8820	68.4219
 0.8810	68.4175
 0.8800	68.3774
 0.8790	68.2865
 0.8780	68.2216
 0.8770	68.1882
 0.8760	68.0882
 0.8750	68.0784
 0.8740	68.0559
 0.8730	68.0448
 0.8720	67.9343
 0.8710	67.9331
 0.8700	67.9119
 0.8690	67.8797
 0.8680	67.8262
 0.8670	67.7737
 0.8660	67.6450
 0.8650	67.5998
 0.8640	67.5613
 0.8630	67.5327
 0.8620	67.4326
 0.8610	67.4567
 0.8600	67.5060
 0.8590	67.3902
 0.8580	67.3986
 0.8570	67.4047
 0.8560	67.2924
 0.8550	67.2695
 0.8540	67.2292
 0.8530	67.1431
 0.8520	67.0782
 0.8510	67.0636
 0.8500	66.9716
 0.8490	66.9800
 0.8480	66.9314
 0.8470	66.9031
 0.8460	66.8105
 0.8450	66.6986
 0.8440	66.6839
 0.8430	66.6410
 0.8420	66.5931
 0.8410	66.5091
 0.8400	66.4295
 0.8390	66.3671
 0.8380	66.3450
 0.8370	66.3041
 0.8360	66.2312
 0.8350	66.1695
 0.8340	66.1243
 0.8330	66.0746
 0.8320	65.9972
 0.8310	65.9525
 0.8300	65.8886
 0.8290	65.8464
 0.8280	65.7961
 0.8270	65.7591
 0.8260	65.7330
 0.8250	65.6405
 0.8240	65.5809
 0.8230	65.4902
 0.8220	65.4622
 0.8210	65.4161
 0.8200	65.3383
 0.8190	65.2546
 0.8180	65.2221
 0.8170	65.1388
 0.8160	65.0786
 0.8150	65.0498
 0.8140	64.9999
 0.8130	64.9095
 0.8120	64.8755
 0.8110	64.8047
 0.8100	64.7370
 0.8090	64.7087
 0.8080	64.6430
 0.8070	64.6253
 0.8060	64.5188
 0.8050	64.4389
 0.8040	64.4178
 0.8030	64.3238
 0.8020	64.3018
 0.8010	64.2240
 0.8000	64.1713
 0.7990	64.1099
 0.7980	64.0624
 0.7970	63.9758
 0.7960	63.8806
 0.7950	63.7973
 0.7940	63.7509
 0.7930	63.6348
 0.7920	63.6016
 0.7910	63.5270
 0.7900	63.4739
 0.7890	63.4340
 0.7880	63.3453
 0.7870	63.3141
 0.7860	63.2740
 0.7850	63.1901
 0.7840	63.1305
 0.7830	63.0933
 0.7820	62.9971
 0.7810	62.9583
 0.7800	62.8719
 0.7790	62.8105
 0.7780	62.7623
 0.7770	62.6985
 0.7760	62.5940
 0.7750	62.5172
 0.7740	62.4566
 0.7730	62.4180
 0.7720	62.3608
 0.7710	62.3089
 0.7700	62.2194
 0.7690	62.1686
 0.7680	62.0922
 0.7670	62.0493
 0.7660	61.9713
 0.7650	61.8987
 0.7640	61.8763
 0.7630	61.7779
 0.7620	61.7302
 0.7610	61.6624
 0.7600	61.6064
 0.7590	61.5534
 0.7580	61.4812
 0.7570	61.4159
 0.7560	61.3584
 0.7550	61.3022
 0.7540	61.2231
 0.7530	61.1502
 0.7520	61.1059
 0.7510	61.0364
 0.7500	60.9836
 0.7490	60.9153
 0.7480	60.8558
 0.7470	60.8025
 0.7460	60.7231
 0.7450	60.6876
 0.7440	60.6222
 0.7430	60.5404
 0.7420	60.4848
 0.7410	60.4431
 0.7400	60.3991
 0.7390	60.3070
 0.7380	60.2683
 0.7370	60.1805
 0.7360	60.1258
 0.7350	60.0957
 0.7340	60.0212
 0.7330	59.9597
 0.7320	59.8932
 0.7310	59.8293
 0.7300	59.7679
 0.7290	59.7053
 0.7280	59.6694
 0.7270	59.6013
 0.7260	59.5184
 0.7250	59.4752
 0.7240	59.4233
 0.7230	59.3507
 0.7220	59.3119
 0.7210	59.2492
 0.7200	59.1711
 0.7190	59.0936
 0.7180	59.0638
 0.7170	59.0095
 0.7160	58.9520
 0.7150	58.8951
 0.7140	58.8382
 0.7130	58.8019
 0.7120	58.7362
 0.7110	58.6690
 0.7100	58.6086
 0.7090	58.5725
 0.7080	58.5112
 0.7070	58.4372
 0.7060	58.3768
 0.7050	58.3430
 0.7040	58.2669
 0.7030	58.2183
 0.7020	58.1609
 0.7010	58.1008
 0.7000	58.0517
 0.6990	58.0215
 0.6980	57.9772
 0.6970	57.9177
 0.6960	57.8614
 0.6950	57.7979
 0.6940	57.7581
 0.6930	57.7141
 0.6920	57.6551
 0.6910	57.6015
 0.6900	57.5411
 0.6890	57.4886
 0.6880	57.4341
 0.6870	57.3821
 0.6860	57.3384
 0.6850	57.2916
 0.6840	57.2529
 0.6830	57.1894
 0.6820	57.1388
 0.6810	57.0925
 0.6800	57.0386
 0.6790	56.9982
 0.6780	56.9533
 0.6770	56.9071
 0.6760	56.8677
 0.6750	56.8157
 0.6740	56.7682
 0.6730	56.7167
 0.6720	56.6666
 0.6710	56.6275
 0.6700	56.5810
 0.6690	56.5422
 0.6680	56.5010
 0.6670	56.4500
 0.6660	56.4079
 0.6650	56.3806
 0.6640	56.3297
 0.6630	56.2859
 0.6620	56.2381
 0.6610	56.1901
 0.6600	56.1540
 0.6590	56.1194
 0.6580	56.0698
 0.6570	56.0360
 0.6560	56.0099
 0.6550	55.9627
 0.6540	55.9188
 0.6530	55.8912
 0.6520	55.8493
 0.6510	55.8056
 0.6500	55.7674
 0.6490	55.7265
 0.6480	55.6918
 0.6470	55.6562
 0.6460	55.6228
 0.6450	55.5774
 0.6440	55.5429
 0.6430	55.5189
 0.6420	55.4820
 0.6410	55.4464
 0.6400	55.4097
 0.6390	55.3730
 0.6380	55.3421
 0.6370	55.3050
 0.6360	55.2724
 0.6350	55.2347
 0.6340	55.1990
 0.6330	55.1757
 0.6320	55.1501
 0.6310	55.1155
 0.6300	55.0839
 0.6290	55.0550
 0.6280	55.0214
 0.6270	54.9903
 0.6260	54.9588
 0.6250	54.9311
 0.6240	54.9042
 0.6230	54.8720
 0.6220	54.8406
 0.6210	54.8145
 0.6200	54.7844
 0.6190	54.7499
 0.6180	54.7186
 0.6170	54.6917
 0.6160	54.6606
 0.6150	54.6320
 0.6140	54.6009
 0.6130	54.5709
 0.6120	54.5454
 0.6110	54.5157
 0.6100	54.4901
 0.6090	54.4697
 0.6080	54.4422
 0.6070	54.4016
 0.6060	54.3754
 0.6050	54.3471
 0.6040	54.3203
 0.6030	54.2932
 0.6020	54.2670
 0.6010	54.2433
 0.6000	54.2155
 0.5990	54.1889
 0.5980	54.1747
 0.5970	54.1587
 0.5960	54.1395
 0.5950	54.1236
 0.5940	54.1013
 0.5930	54.0617
 0.5920	54.0264
 0.5910	53.9907
 0.5900	53.9679
 0.5890	53.9395
 0.5880	53.9029
 0.5870	53.8780
 0.5860	53.8492
 0.5850	53.8204
 0.5840	53.7839
 0.5830	53.7479
 0.5820	53.7167
 0.5810	53.6858
 0.5800	53.6518
 0.5790	53.6236
 0.5780	53.5821
 0.5770	53.5372
 0.5760	53.5054
 0.5750	53.4658
 0.5740	53.4420
 0.5730	53.4056
 0.5720	53.3630
 0.5710	53.3206
 0.5700	53.2919
 0.5690	53.2518
 0.5680	53.2205
 0.5670	53.1806
 0.5660	53.1437
 0.5650	53.0983
 0.5640	53.0536
 0.5630	53.0237
 0.5620	52.9851
 0.5610	52.9201
 0.5600	52.8732
 0.5590	52.8369
 0.5580	52.7926
 0.5570	52.7395
 0.5560	52.6984
 0.5550	52.6591
 0.5540	52.6139
 0.5530	52.5617
 0.5520	52.5187
 0.5510	52.4633
 0.5500	52.4214
 0.5490	52.3799
 0.5480	52.3299
 0.5470	52.2770
 0.5460	52.2293
 0.5450	52.1816
 0.5440	52.1278
 0.5430	52.0788
 0.5420	52.0409
 0.5410	51.9978
 0.5400	51.9462
 0.5390	51.8888
 0.5380	51.8414
 0.5370	51.7866
 0.5360	51.7359
 0.5350	51.6784
 0.5340	51.6310
 0.5330	51.5761
 0.5320	51.5217
 0.5310	51.4812
 0.5300	51.4457
 0.5290	51.3968
 0.5280	51.3341
 0.5270	51.2811
 0.5260	51.2440
 0.5250	51.1757
 0.5240	51.1311
 0.5230	51.0857
 0.5220	51.0328
 0.5210	50.9777
 0.5200	50.9337
 0.5190	50.8688
 0.5180	50.8199
 0.5170	50.7729
 0.5160	50.7370
 0.5150	50.6838
 0.5140	50.6349
 0.5130	50.5870
 0.5120	50.5314
 0.5110	50.4834
 0.5100	50.4285
 0.5090	50.3858
 0.5080	50.3366
 0.5070	50.2887
 0.5060	50.2471
 0.5050	50.2028
 0.5040	50.1444
 0.5030	50.1077
 0.5020	50.0829
 0.5010	50.0108
 0.5000	49.9732
 0.4990	49.9188
 0.4980	49.8868
 0.4970	49.8354
 0.4960	49.7792
 0.4950	49.7492
 0.4940	49.7115
 0.4930	49.6694
 0.4920	49.6287
 0.4910	49.5932
 0.4900	49.5511
 0.4890	49.5292
 0.4880	49.4758
 0.4870	49.4394
 0.4860	49.4229
 0.4850	49.3720
 0.4840	49.3426
 0.4830	49.3078
 0.4820	49.2563
 0.4810	49.2524
 0.4800	49.2198
 0.4790	49.2075
 0.4780	49.1878
 0.4770	49.1588
 0.4760	49.1450
 0.4750	49.1338
 0.4740	49.1042
 0.4730	49.0867
 0.4720	49.0637
 0.4710	49.0566
 0.4700	49.0444
 0.4690	49.0321
 0.4680	49.0025
 0.4670	48.9960
 0.4660	48.9776
 0.4650	48.9544
 0.4640	48.9524
 0.4630	48.9307
 0.4620	48.9281
 0.4610	48.9090
 0.4600	48.8803
 0.4590	48.8782
 0.4580	48.8705
 0.4570	48.8857
 0.4560	48.8494
 0.4550	48.8625
 0.4540	48.8356
 0.4530	48.8277
 0.4520	48.8234
 0.4510	48.8193
 0.4500	48.7891
 0.4490	48.7996
 0.4480	48.8001
 0.4470	48.8090
 0.4460	48.7980
 0.4450	48.7904
 0.4440	48.7784
 0.4430	48.7842
 0.4420	48.7745
 0.4410	48.7773
 0.4400	48.7789
 0.4390	48.7909
 0.4380	48.7734
 0.4370	48.7616
 0.4360	48.7734
 0.4350	48.7601
 0.4340	48.7779
 0.4330	48.7744
 0.4320	48.7637
 0.4310	48.7842
 0.4300	48.7745
 0.4290	48.7651
 0.4280	48.7690
 0.4270	48.7827
 0.4260	48.7889
 0.4250	48.7893
 0.4240	48.7872
 0.4230	48.7969
 0.4220	48.8129
 0.4210	48.8207
 0.4200	48.8253
 0.4190	48.8252
 0.4180	48.8336
 0.4170	48.8521
 0.4160	48.8661
 0.4150	48.8789
 0.4140	48.8876
 0.4130	48.9035
 0.4120	48.9162
 0.4110	48.9269
 0.4100	48.9421
 0.4090	48.9413
 0.4080	48.9628
 0.4070	48.9782
 0.4060	48.9879
 0.4050	49.0099
 0.4040	49.0175
 0.4030	49.0308
 0.4020	49.0454
 0.4010	49.0577
 0.4000	49.0922
