Name: Trona Na_3(CO_3)(HCO_3).2H_2O
Type: Mineral
Class: Carbonate
Subclass: None
Particle Size: Fine
Sample No.: C-4A
Owner: JPL
Wavelength Range: VSWIR
Origin: USA, Wyoming, Sweetwater County.
Collection Date: N/A
Description: Particle size was 0-45um.Collected by:  Ward's Original ASTER Spectral Library name was jpl.perkin.mineral.carbonate.none.fine.c04a.spectrum.txt
Measurement: Hemispherical reflectance
First Column: X
Second Column: Y
X Units: Wavelength (micrometers)
Y Units:Reflectance (percent)
First X Value:  2.5000
Last X Value:  0.4000
Number of X Values: 2101
Additional Information: mineral.carbonate.none.fine.vswir.c-4a.jpl.perkin.ancillary.txt

 2.5000	24.2564
 2.4990	24.0932
 2.4980	24.2475
 2.4970	24.3920
 2.4960	23.9248
 2.4950	24.5327
 2.4940	24.3222
 2.4930	24.2855
 2.4920	24.4275
 2.4910	24.3375
 2.4900	24.3665
 2.4890	24.4142
 2.4880	24.3249
 2.4870	24.5690
 2.4860	24.2783
 2.4850	24.5134
 2.4840	24.5252
 2.4830	24.4325
 2.4820	24.4397
 2.4810	24.6410
 2.4800	24.6774
 2.4790	24.5946
 2.4780	24.4550
 2.4770	24.5569
 2.4760	24.5826
 2.4750	24.5695
 2.4740	24.5855
 2.4730	24.7111
 2.4720	24.6770
 2.4710	24.7862
 2.4700	24.6247
 2.4690	24.7020
 2.4680	24.6686
 2.4670	24.7405
 2.4660	24.7517
 2.4650	24.8247
 2.4640	24.7481
 2.4630	24.7187
 2.4620	24.8058
 2.4610	24.8267
 2.4600	24.7708
 2.4590	24.8674
 2.4580	24.8274
 2.4570	24.8329
 2.4560	24.8190
 2.4550	24.8029
 2.4540	24.8484
 2.4530	24.8904
 2.4520	24.8105
 2.4510	24.9232
 2.4500	24.9708
 2.4490	25.0598
 2.4480	24.9745
 2.4470	25.0323
 2.4460	25.0129
 2.4450	24.9249
 2.4440	24.9197
 2.4430	24.9880
 2.4420	25.0125
 2.4410	25.0556
 2.4400	25.0333
 2.4390	24.9984
 2.4380	25.0458
 2.4370	25.0578
 2.4360	25.1969
 2.4350	25.1452
 2.4340	25.1759
 2.4330	25.1690
 2.4320	25.1896
 2.4310	25.3195
 2.4300	25.2004
 2.4290	25.3439
 2.4280	25.2607
 2.4270	25.2147
 2.4260	25.1522
 2.4250	25.2936
 2.4240	25.3254
 2.4230	25.3260
 2.4220	25.2766
 2.4210	25.2663
 2.4200	25.3799
 2.4190	25.3936
 2.4180	25.4489
 2.4170	25.4116
 2.4160	25.3853
 2.4150	25.3789
 2.4140	25.4302
 2.4130	25.3808
 2.4120	25.3574
 2.4110	25.4727
 2.4100	25.4367
 2.4090	25.4141
 2.4080	25.4264
 2.4070	25.4470
 2.4060	25.4072
 2.4050	25.4444
 2.4040	25.3995
 2.4030	25.4872
 2.4020	25.5479
 2.4010	25.5312
 2.4000	25.5815
 2.3990	25.5957
 2.3980	25.6076
 2.3970	25.6737
 2.3960	25.6063
 2.3950	25.6915
 2.3940	25.7030
 2.3930	25.7483
 2.3920	25.7871
 2.3910	25.7955
 2.3900	25.8873
 2.3890	25.9414
 2.3880	25.9625
 2.3870	25.9939
 2.3860	26.0978
 2.3850	26.1960
 2.3840	26.2514
 2.3830	26.3574
 2.3820	26.4427
 2.3810	26.5351
 2.3800	26.5894
 2.3790	26.6699
 2.3780	26.7602
 2.3770	26.8715
 2.3760	26.9706
 2.3750	27.0159
 2.3740	27.1411
 2.3730	27.2640
 2.3720	27.3146
 2.3710	27.4299
 2.3700	27.5082
 2.3690	27.6400
 2.3680	27.6948
 2.3670	27.7142
 2.3660	27.8418
 2.3650	27.9689
 2.3640	28.0218
 2.3630	28.1218
 2.3620	28.1583
 2.3610	28.2518
 2.3600	28.3444
 2.3590	28.4210
 2.3580	28.4522
 2.3570	28.5636
 2.3560	28.7031
 2.3550	28.7322
 2.3540	28.7635
 2.3530	28.8512
 2.3520	28.9410
 2.3510	28.9963
 2.3500	29.1024
 2.3490	29.1432
 2.3480	29.2014
 2.3470	29.2672
 2.3460	29.3066
 2.3450	29.3083
 2.3440	29.4527
 2.3430	29.5172
 2.3420	29.5091
 2.3410	29.5712
 2.3400	29.6109
 2.3390	29.6817
 2.3380	29.7871
 2.3370	29.8430
 2.3360	29.8862
 2.3350	29.9528
 2.3340	29.9867
 2.3330	30.0278
 2.3320	30.0631
 2.3310	30.1360
 2.3300	30.2413
 2.3290	30.2948
 2.3280	30.3950
 2.3270	30.3758
 2.3260	30.3846
 2.3250	30.4310
 2.3240	30.5099
 2.3230	30.5589
 2.3220	30.6134
 2.3210	30.6649
 2.3200	30.7113
 2.3190	30.7653
 2.3180	30.8543
 2.3170	30.8881
 2.3160	30.9244
 2.3150	30.9784
 2.3140	31.0428
 2.3130	31.0747
 2.3120	31.1487
 2.3110	31.2233
 2.3100	31.2573
 2.3090	31.2608
 2.3080	31.3618
 2.3070	31.3870
 2.3060	31.4816
 2.3050	31.4985
 2.3040	31.5700
 2.3030	31.6095
 2.3020	31.7035
 2.3010	31.7479
 2.3000	31.8503
 2.2990	31.8446
 2.2980	31.8645
 2.2970	31.8826
 2.2960	31.9583
 2.2950	31.9507
 2.2940	32.0619
 2.2930	32.0845
 2.2920	32.1392
 2.2910	32.1751
 2.2900	32.2052
 2.2890	32.2844
 2.2880	32.3969
 2.2870	32.3394
 2.2860	32.3792
 2.2850	32.4380
 2.2840	32.5040
 2.2830	32.4575
 2.2820	32.5460
 2.2810	32.5560
 2.2800	32.5933
 2.2790	32.6644
 2.2780	32.6801
 2.2770	32.7301
 2.2760	32.8499
 2.2750	32.8191
 2.2740	32.7956
 2.2730	32.8042
 2.2720	32.9239
 2.2710	32.8436
 2.2700	32.9287
 2.2690	32.9608
 2.2680	33.0275
 2.2670	32.9678
 2.2660	33.0547
 2.2650	33.0619
 2.2640	33.0233
 2.2630	33.0603
 2.2620	33.1200
 2.2610	33.1012
 2.2600	33.1348
 2.2590	33.1059
 2.2580	33.1623
 2.2570	33.1192
 2.2560	33.2010
 2.2550	33.1744
 2.2540	33.2085
 2.2530	33.1825
 2.2520	33.2216
 2.2510	33.2501
 2.2500	33.2623
 2.2490	33.2829
 2.2480	33.2454
 2.2470	33.2255
 2.2460	33.2805
 2.2450	33.2236
 2.2440	33.2120
 2.2430	33.1423
 2.2420	33.2433
 2.2410	33.1676
 2.2400	33.1242
 2.2390	33.1304
 2.2380	33.0240
 2.2370	32.9711
 2.2360	33.0165
 2.2350	32.9120
 2.2340	32.8860
 2.2330	32.7571
 2.2320	32.7624
 2.2310	32.6879
 2.2300	32.6761
 2.2290	32.5153
 2.2280	32.5027
 2.2270	32.4987
 2.2260	32.4553
 2.2250	32.3928
 2.2240	32.3561
 2.2230	32.3498
 2.2220	32.2963
 2.2210	32.3235
 2.2200	32.3341
 2.2190	32.2565
 2.2180	32.3822
 2.2170	32.3416
 2.2160	32.3786
 2.2150	32.4538
 2.2140	32.5540
 2.2130	32.6053
 2.2120	32.6251
 2.2110	32.4850
 2.2100	32.7371
 2.2090	32.6884
 2.2080	32.7896
 2.2070	32.8043
 2.2060	32.8807
 2.2050	32.8254
 2.2040	32.9474
 2.2030	32.9247
 2.2020	32.9956
 2.2010	33.0230
 2.2000	33.0573
 2.1990	33.0153
 2.1980	33.0673
 2.1970	33.1812
 2.1960	33.0626
 2.1950	33.0767
 2.1940	33.1133
 2.1930	33.1598
 2.1920	33.1947
 2.1910	33.1760
 2.1900	33.1989
 2.1890	33.1910
 2.1880	33.2541
 2.1870	33.2769
 2.1860	33.3877
 2.1850	33.3148
 2.1840	33.2834
 2.1830	33.3402
 2.1820	33.4350
 2.1810	33.3631
 2.1800	33.4463
 2.1790	33.4573
 2.1780	33.5049
 2.1770	33.4846
 2.1760	33.4937
 2.1750	33.5385
 2.1740	33.5467
 2.1730	33.5457
 2.1720	33.5449
 2.1710	33.5249
 2.1700	33.5752
 2.1690	33.5941
 2.1680	33.6424
 2.1670	33.6192
 2.1660	33.6862
 2.1650	33.6085
 2.1640	33.6215
 2.1630	33.6208
 2.1620	33.6544
 2.1610	33.6294
 2.1600	33.6474
 2.1590	33.6528
 2.1580	33.5808
 2.1570	33.6373
 2.1560	33.5889
 2.1550	33.6033
 2.1540	33.5878
 2.1530	33.5729
 2.1520	33.5650
 2.1510	33.5198
 2.1500	33.5134
 2.1490	33.4574
 2.1480	33.4829
 2.1470	33.4416
 2.1460	33.4705
 2.1450	33.4272
 2.1440	33.3991
 2.1430	33.3340
 2.1420	33.3389
 2.1410	33.3261
 2.1400	33.3089
 2.1390	33.2404
 2.1380	33.2447
 2.1370	33.1454
 2.1360	33.1920
 2.1350	33.1147
 2.1340	33.0883
 2.1330	33.0632
 2.1320	33.0452
 2.1310	33.0112
 2.1300	33.0319
 2.1290	32.8638
 2.1280	32.8591
 2.1270	32.8335
 2.1260	32.7752
 2.1250	32.7055
 2.1240	32.7057
 2.1230	32.6673
 2.1220	32.6110
 2.1210	32.5234
 2.1200	32.4317
 2.1190	32.3748
 2.1180	32.2929
 2.1170	32.2034
 2.1160	32.1653
 2.1150	32.1198
 2.1140	32.0699
 2.1130	32.0000
 2.1120	31.9344
 2.1110	31.8503
 2.1100	31.7448
 2.1090	31.7002
 2.1080	31.6246
 2.1070	31.5618
 2.1060	31.5173
 2.1050	31.4314
 2.1040	31.3548
 2.1030	31.2164
 2.1020	31.1300
 2.1010	31.0586
 2.1000	31.0202
 2.0990	30.9001
 2.0980	30.8760
 2.0970	30.8620
 2.0960	30.7705
 2.0950	30.6807
 2.0940	30.6281
 2.0930	30.5751
 2.0920	30.5033
 2.0910	30.4030
 2.0900	30.3460
 2.0890	30.3114
 2.0880	30.2086
 2.0870	30.1665
 2.0860	30.1612
 2.0850	30.0588
 2.0840	29.9420
 2.0830	29.8631
 2.0820	29.8554
 2.0810	29.8352
 2.0800	29.7482
 2.0790	29.6414
 2.0780	29.5975
 2.0770	29.5418
 2.0760	29.5020
 2.0750	29.4751
 2.0740	29.3886
 2.0730	29.2881
 2.0720	29.2185
 2.0710	29.2082
 2.0700	29.1334
 2.0690	29.0450
 2.0680	28.9688
 2.0670	28.9157
 2.0660	28.8624
 2.0650	28.8341
 2.0640	28.7858
 2.0630	28.7149
 2.0620	28.7005
 2.0610	28.6226
 2.0600	28.5678
 2.0590	28.5119
 2.0580	28.4676
 2.0570	28.4432
 2.0560	28.3815
 2.0550	28.3525
 2.0540	28.2797
 2.0530	28.2565
 2.0520	28.2740
 2.0510	28.2711
 2.0500	28.2057
 2.0490	28.1225
 2.0480	28.0972
 2.0470	28.1161
 2.0460	28.0944
 2.0450	28.0770
 2.0440	28.1139
 2.0430	28.1149
 2.0420	28.1063
 2.0410	28.1376
 2.0400	28.1275
 2.0390	28.1969
 2.0380	28.2501
 2.0370	28.2499
 2.0360	28.2521
 2.0350	28.3275
 2.0340	28.3515
 2.0330	28.4265
 2.0320	28.5475
 2.0310	28.6845
 2.0300	28.7100
 2.0290	28.7730
 2.0280	28.8711
 2.0270	28.9969
 2.0260	29.1111
 2.0250	29.2280
 2.0240	29.3061
 2.0230	29.4175
 2.0220	29.5200
 2.0210	29.6715
 2.0200	29.7249
 2.0190	29.8798
 2.0180	29.9713
 2.0170	30.0626
 2.0160	30.1160
 2.0150	30.2382
 2.0140	30.3347
 2.0130	30.4380
 2.0120	30.5346
 2.0110	30.6060
 2.0100	30.6121
 2.0090	30.6946
 2.0080	30.7379
 2.0070	30.8198
 2.0060	30.9265
 2.0050	31.0137
 2.0040	31.0267
 2.0030	31.0499
 2.0020	31.1162
 2.0010	31.1635
 2.0000	31.2060
 1.9990	31.2245
 1.9980	31.2599
 1.9970	31.2878
 1.9960	31.2847
 1.9950	31.3153
 1.9940	31.2984
 1.9930	31.2935
 1.9920	31.2679
 1.9910	31.2691
 1.9900	31.2106
 1.9890	31.2607
 1.9880	31.2397
 1.9870	31.1651
 1.9860	31.1065
 1.9850	31.1367
 1.9840	31.0252
 1.9830	31.0418
 1.9820	30.9449
 1.9810	30.8990
 1.9800	30.8171
 1.9790	30.7632
 1.9780	30.6922
 1.9770	30.5591
 1.9760	30.4895
 1.9750	30.3968
 1.9740	30.3407
 1.9730	30.2208
 1.9720	30.0702
 1.9710	29.9994
 1.9700	29.8499
 1.9690	29.6999
 1.9680	29.5311
 1.9670	29.3731
 1.9660	29.1685
 1.9650	29.0647
 1.9640	28.8689
 1.9630	28.6871
 1.9620	28.4390
 1.9610	28.3657
 1.9600	28.0346
 1.9590	27.8251
 1.9580	27.6070
 1.9570	27.5632
 1.9560	27.2212
 1.9550	27.0931
 1.9540	26.8861
 1.9530	26.8439
 1.9520	26.6119
 1.9510	26.5411
 1.9500	26.3955
 1.9490	26.3698
 1.9480	26.2600
 1.9470	26.2218
 1.9460	26.1221
 1.9450	26.1181
 1.9440	26.1836
 1.9430	26.2000
 1.9420	26.2341
 1.9410	26.3305
 1.9400	26.4237
 1.9390	26.5917
 1.9380	26.6106
 1.9370	26.7922
 1.9360	27.0092
 1.9350	27.3125
 1.9340	27.5586
 1.9330	27.8306
 1.9320	28.1960
 1.9310	28.4557
 1.9300	28.8570
 1.9290	29.2357
 1.9280	29.6368
 1.9270	30.1997
 1.9260	30.4233
 1.9250	31.0935
 1.9240	31.4059
 1.9230	31.9438
 1.9220	32.4367
 1.9210	32.9440
 1.9200	33.3990
 1.9190	33.9479
 1.9180	34.3070
 1.9170	34.7409
 1.9160	35.1941
 1.9150	35.6368
 1.9140	36.0595
 1.9130	36.5379
 1.9120	36.8679
 1.9110	37.2337
 1.9100	37.7532
 1.9090	38.1030
 1.9080	38.5059
 1.9070	38.8561
 1.9060	39.2527
 1.9050	39.5754
 1.9040	40.0698
 1.9030	40.4684
 1.9020	40.8057
 1.9010	41.2044
 1.9000	41.5553
 1.8990	41.9161
 1.8980	42.1778
 1.8970	42.5680
 1.8960	42.7834
 1.8950	43.1335
 1.8940	43.3957
 1.8930	43.7176
 1.8920	43.9074
 1.8910	44.1001
 1.8900	44.3063
 1.8890	44.6182
 1.8880	44.7981
 1.8870	45.0605
 1.8860	45.2832
 1.8850	45.5497
 1.8840	45.6919
 1.8830	45.8962
 1.8820	46.0533
 1.8810	46.2125
 1.8800	46.3937
 1.8790	46.4856
 1.8780	46.7037
 1.8770	46.8458
 1.8760	46.9367
 1.8750	47.0923
 1.8740	47.2707
 1.8730	47.4200
 1.8720	47.5938
 1.8710	47.7091
 1.8700	47.8508
 1.8690	47.9926
 1.8680	48.1731
 1.8670	48.2635
 1.8660	48.3939
 1.8650	48.4826
 1.8640	48.5855
 1.8630	48.6472
 1.8620	48.7470
 1.8610	48.9070
 1.8600	48.9968
 1.8590	49.0591
 1.8580	49.2082
 1.8570	49.3491
 1.8560	49.3895
 1.8550	49.4521
 1.8540	49.5568
 1.8530	49.6194
 1.8520	49.7032
 1.8510	49.8138
 1.8500	49.8733
 1.8490	49.9275
 1.8480	49.9997
 1.8470	50.0512
 1.8460	50.0854
 1.8450	50.1915
 1.8440	50.2708
 1.8430	50.3616
 1.8420	50.3624
 1.8410	50.3913
 1.8400	50.4389
 1.8390	50.4743
 1.8380	50.5349
 1.8370	50.5886
 1.8360	50.6042
 1.8350	50.6849
 1.8340	50.7125
 1.8330	50.7522
 1.8320	50.7306
 1.8310	50.7370
 1.8300	50.7871
 1.8290	50.7993
 1.8280	50.8389
 1.8270	50.9213
 1.8260	50.8930
 1.8250	50.8478
 1.8240	50.9082
 1.8230	50.9826
 1.8220	50.9770
 1.8210	50.9732
 1.8200	50.9926
 1.8190	51.0444
 1.8180	51.0299
 1.8170	51.0188
 1.8160	51.1077
 1.8150	51.1441
 1.8140	51.1162
 1.8130	51.0843
 1.8120	51.1210
 1.8110	51.1326
 1.8100	51.1445
 1.8090	51.1751
 1.8080	51.2184
 1.8070	51.2269
 1.8060	51.2453
 1.8050	51.2557
 1.8040	51.2634
 1.8030	51.2630
 1.8020	51.2972
 1.8010	51.3600
 1.8000	51.3388
 1.7990	51.3484
 1.7980	51.3513
 1.7970	51.3031
 1.7960	51.3445
 1.7950	51.3735
 1.7940	51.3807
 1.7930	51.3969
 1.7920	51.4169
 1.7910	51.4617
 1.7900	51.4694
 1.7890	51.4806
 1.7880	51.4829
 1.7870	51.4488
 1.7860	51.4733
 1.7850	51.5027
 1.7840	51.5044
 1.7830	51.5401
 1.7820	51.5598
 1.7810	51.5645
 1.7800	51.5622
 1.7790	51.5690
 1.7780	51.5854
 1.7770	51.6293
 1.7760	51.6454
 1.7750	51.6424
 1.7740	51.6649
 1.7730	51.6315
 1.7720	51.6494
 1.7710	51.6680
 1.7700	51.6823
 1.7690	51.6615
 1.7680	51.6580
 1.7670	51.6994
 1.7660	51.6917
 1.7650	51.7139
 1.7640	51.7411
 1.7630	51.7105
 1.7620	51.6423
 1.7610	51.6056
 1.7600	51.6918
 1.7590	51.7359
 1.7580	51.7156
 1.7570	51.6989
 1.7560	51.7439
 1.7550	51.7297
 1.7540	51.7273
 1.7530	51.7599
 1.7520	51.7637
 1.7510	51.8205
 1.7500	51.8253
 1.7490	51.7780
 1.7480	51.8130
 1.7470	51.8643
 1.7460	51.8750
 1.7450	51.8879
 1.7440	51.9214
 1.7430	51.9712
 1.7420	52.0900
 1.7410	52.0780
 1.7400	52.0994
 1.7390	52.1476
 1.7380	52.1972
 1.7370	52.2557
 1.7360	52.3602
 1.7350	52.3727
 1.7340	52.4643
 1.7330	52.5369
 1.7320	52.6103
 1.7310	52.6547
 1.7300	52.7616
 1.7290	52.7994
 1.7280	52.9335
 1.7270	52.9673
 1.7260	53.0597
 1.7250	53.1073
 1.7240	53.2471
 1.7230	53.3626
 1.7220	53.4508
 1.7210	53.5448
 1.7200	53.6080
 1.7190	53.7621
 1.7180	53.8213
 1.7170	53.8439
 1.7160	54.0172
 1.7150	54.1331
 1.7140	54.1560
 1.7130	54.2335
 1.7120	54.3368
 1.7110	54.3820
 1.7100	54.4910
 1.7090	54.5299
 1.7080	54.6797
 1.7070	54.7797
 1.7060	54.8269
 1.7050	54.9692
 1.7040	55.1006
 1.7030	55.0938
 1.7020	55.1806
 1.7010	55.2662
 1.7000	55.3589
 1.6990	55.4086
 1.6980	55.5276
 1.6970	55.5653
 1.6960	55.7199
 1.6950	55.7539
 1.6940	55.8801
 1.6930	55.9800
 1.6920	55.9747
 1.6910	56.0904
 1.6900	56.2496
 1.6890	56.3044
 1.6880	56.4002
 1.6870	56.5128
 1.6860	56.5676
 1.6850	56.6893
 1.6840	56.7380
 1.6830	56.8897
 1.6820	56.9807
 1.6810	57.0665
 1.6800	57.1525
 1.6790	57.2423
 1.6780	57.4052
 1.6770	57.5347
 1.6760	57.5630
 1.6750	57.6577
 1.6740	57.7849
 1.6730	57.8787
 1.6720	58.0102
 1.6710	58.0941
 1.6700	58.2439
 1.6690	58.3840
 1.6680	58.2879
 1.6670	58.5062
 1.6660	58.6274
 1.6650	58.6613
 1.6640	58.7870
 1.6630	58.9222
 1.6620	59.0169
 1.6610	59.0569
 1.6600	59.2310
 1.6590	59.3987
 1.6580	59.3823
 1.6570	59.5000
 1.6560	59.7025
 1.6550	59.6573
 1.6540	59.8905
 1.6530	59.9087
 1.6520	60.1092
 1.6510	60.1515
 1.6500	60.2694
 1.6490	60.3419
 1.6480	60.4301
 1.6470	60.5457
 1.6460	60.6223
 1.6450	60.6789
 1.6440	60.8037
 1.6430	60.8318
 1.6420	61.0261
 1.6410	60.9595
 1.6400	61.2152
 1.6390	61.1865
 1.6380	61.3311
 1.6370	61.3533
 1.6360	61.4613
 1.6350	61.5806
 1.6340	61.6217
 1.6330	61.6355
 1.6320	61.7951
 1.6310	61.8599
 1.6300	61.9098
 1.6290	61.9599
 1.6280	62.0640
 1.6270	62.1213
 1.6260	62.1562
 1.6250	62.3112
 1.6240	62.3913
 1.6230	62.5097
 1.6220	62.5632
 1.6210	62.5663
 1.6200	62.6946
 1.6190	62.7517
 1.6180	63.3938
 1.6170	62.9194
 1.6160	62.9586
 1.6150	62.9741
 1.6140	63.1019
 1.6130	63.1805
 1.6120	63.1532
 1.6110	63.2551
 1.6100	63.3257
 1.6090	63.3910
 1.6080	63.3807
 1.6070	63.5289
 1.6060	63.5489
 1.6050	63.5843
 1.6040	63.6838
 1.6030	63.6850
 1.6020	63.7851
 1.6010	63.8864
 1.6000	63.9073
 1.5990	63.9288
 1.5980	63.9927
 1.5970	64.0602
 1.5960	64.0699
 1.5950	64.1116
 1.5940	64.1333
 1.5930	64.2039
 1.5920	64.2733
 1.5910	64.2868
 1.5900	64.3243
 1.5890	64.4050
 1.5880	64.4153
 1.5870	64.4074
 1.5860	64.4354
 1.5850	64.5214
 1.5840	64.4711
 1.5830	64.5153
 1.5820	64.5395
 1.5810	64.5674
 1.5800	64.4974
 1.5790	64.5450
 1.5780	64.5212
 1.5770	64.5493
 1.5760	64.5175
 1.5750	64.4983
 1.5740	64.5286
 1.5730	64.4972
 1.5720	64.4934
 1.5710	64.4638
 1.5700	64.4192
 1.5690	64.3642
 1.5680	64.3192
 1.5670	64.2553
 1.5660	64.2658
 1.5650	64.2069
 1.5640	64.1199
 1.5630	64.1013
 1.5620	64.0330
 1.5610	63.9501
 1.5600	63.8482
 1.5590	63.7120
 1.5580	63.6429
 1.5570	63.4777
 1.5560	63.4330
 1.5550	63.3522
 1.5540	63.2046
 1.5530	63.0336
 1.5520	62.9253
 1.5510	62.7963
 1.5500	62.6796
 1.5490	62.4788
 1.5480	62.3359
 1.5470	62.2055
 1.5460	62.0497
 1.5450	61.8990
 1.5440	61.7609
 1.5430	61.6028
 1.5420	61.3892
 1.5410	61.2667
 1.5400	61.0493
 1.5390	60.8999
 1.5380	60.7618
 1.5370	60.6329
 1.5360	60.5151
 1.5350	60.4385
 1.5340	60.3198
 1.5330	60.2379
 1.5320	60.1954
 1.5310	60.1146
 1.5300	60.0875
 1.5290	60.0389
 1.5280	60.0502
 1.5270	60.0476
 1.5260	60.1195
 1.5250	60.1329
 1.5240	60.1121
 1.5230	60.1786
 1.5220	60.2424
 1.5210	60.2703
 1.5200	60.2663
 1.5190	60.2718
 1.5180	60.3687
 1.5170	60.3713
 1.5160	60.3421
 1.5150	60.4129
 1.5140	60.4887
 1.5130	60.4975
 1.5120	60.4986
 1.5110	60.5846
 1.5100	60.6393
 1.5090	60.6829
 1.5080	60.7403
 1.5070	60.7966
 1.5060	60.8805
 1.5050	60.9295
 1.5040	60.9809
 1.5030	61.0873
 1.5020	61.1894
 1.5010	61.2609
 1.5000	61.3582
 1.4990	61.4576
 1.4980	61.5447
 1.4970	61.6484
 1.4960	61.7763
 1.4950	61.8844
 1.4940	62.0004
 1.4930	62.1233
 1.4920	62.2160
 1.4910	62.3164
 1.4900	62.4572
 1.4890	62.6230
 1.4880	62.7313
 1.4870	62.9178
 1.4860	63.0586
 1.4850	63.1930
 1.4840	63.3463
 1.4830	63.4996
 1.4820	63.6738
 1.4810	63.8717
 1.4800	64.0302
 1.4790	64.2172
 1.4780	64.3738
 1.4770	64.5574
 1.4760	64.7427
 1.4750	64.8967
 1.4740	65.1458
 1.4730	65.3230
 1.4720	65.4824
 1.4710	65.6410
 1.4700	65.8733
 1.4690	66.1237
 1.4680	66.2501
 1.4670	66.4892
 1.4660	66.7316
 1.4650	66.9250
 1.4640	67.1072
 1.4630	67.3258
 1.4620	67.5410
 1.4610	67.7923
 1.4600	68.0096
 1.4590	68.2377
 1.4580	68.4315
 1.4570	68.6084
 1.4560	68.8033
 1.4550	69.0001
 1.4540	69.1687
 1.4530	69.4260
 1.4520	69.6254
 1.4510	69.8671
 1.4500	70.1000
 1.4490	70.3626
 1.4480	70.6171
 1.4470	70.8746
 1.4460	71.1459
 1.4450	71.3824
 1.4440	71.6865
 1.4430	71.9934
 1.4420	72.2797
 1.4410	72.5016
 1.4400	72.7752
 1.4390	73.0704
 1.4380	73.3097
 1.4370	73.6446
 1.4360	73.9615
 1.4350	74.2248
 1.4340	74.5089
 1.4330	74.7240
 1.4320	75.0052
 1.4310	75.3544
 1.4300	75.5907
 1.4290	75.8518
 1.4280	76.1136
 1.4270	76.3998
 1.4260	76.6025
 1.4250	76.8578
 1.4240	77.0248
 1.4230	77.1993
 1.4220	77.3937
 1.4210	77.6351
 1.4200	77.8952
 1.4190	78.0249
 1.4180	78.1218
 1.4170	78.3262
 1.4160	78.4601
 1.4150	78.6578
 1.4140	78.8222
 1.4130	78.9924
 1.4120	79.0716
 1.4110	79.2042
 1.4100	79.4241
 1.4090	79.4797
 1.4080	79.6173
 1.4070	79.7684
 1.4060	79.7960
 1.4050	79.9447
 1.4040	80.0053
 1.4030	80.1295
 1.4020	80.1837
 1.4010	80.2363
 1.4000	80.3074
 1.3990	80.4997
 1.3980	80.5580
 1.3970	80.5761
 1.3960	80.7103
 1.3950	80.8494
 1.3940	80.9009
 1.3930	80.9206
 1.3920	80.9760
 1.3910	81.0119
 1.3900	81.0755
 1.3890	81.0988
 1.3880	81.0399
 1.3870	81.2065
 1.3860	81.1645
 1.3850	81.2037
 1.3840	81.2776
 1.3830	81.3429
 1.3820	81.2990
 1.3810	81.3716
 1.3800	81.4523
 1.3790	81.3946
 1.3780	81.3860
 1.3770	81.4916
 1.3760	81.4715
 1.3750	81.5042
 1.3740	81.5669
 1.3730	81.4223
 1.3720	81.6149
 1.3710	81.5867
 1.3700	81.6630
 1.3690	81.7028
 1.3680	81.5902
 1.3670	81.7291
 1.3660	81.7861
 1.3650	81.6672
 1.3640	81.7062
 1.3630	81.7846
 1.3620	81.6860
 1.3610	81.8952
 1.3600	81.7639
 1.3590	81.7605
 1.3580	81.7984
 1.3570	81.8446
 1.3560	81.9485
 1.3550	81.8435
 1.3540	81.8209
 1.3530	81.8428
 1.3520	81.8265
 1.3510	81.9181
 1.3500	81.9653
 1.3490	81.9353
 1.3480	81.9729
 1.3470	81.9324
 1.3460	81.9394
 1.3450	82.0328
 1.3440	82.0320
 1.3430	82.0465
 1.3420	82.0830
 1.3410	82.0736
 1.3400	82.1033
 1.3390	82.1475
 1.3380	82.2036
 1.3370	82.2663
 1.3360	82.2956
 1.3350	82.3377
 1.3340	82.4014
 1.3330	82.4336
 1.3320	82.4179
 1.3310	82.4957
 1.3300	82.5534
 1.3290	82.5909
 1.3280	82.6893
 1.3270	82.7427
 1.3260	82.7274
 1.3250	82.6798
 1.3240	82.6888
 1.3230	82.7977
 1.3220	82.8806
 1.3210	82.9216
 1.3200	82.9350
 1.3190	83.0104
 1.3180	82.9607
 1.3170	83.0031
 1.3160	83.0185
 1.3150	83.0998
 1.3140	83.1389
 1.3130	83.1811
 1.3120	83.2008
 1.3110	83.2368
 1.3100	83.3123
 1.3090	83.3181
 1.3080	83.3575
 1.3070	83.3605
 1.3060	83.4183
 1.3050	83.4563
 1.3040	83.5633
 1.3030	83.5262
 1.3020	83.5945
 1.3010	83.6379
 1.3000	83.6212
 1.2990	83.7173
 1.2980	83.7249
 1.2970	83.7251
 1.2960	83.7473
 1.2950	83.7904
 1.2940	83.7937
 1.2930	83.7647
 1.2920	83.7817
 1.2910	83.8076
 1.2900	83.8692
 1.2890	83.9519
 1.2880	84.0148
 1.2870	83.9865
 1.2860	83.9093
 1.2850	83.8903
 1.2840	83.9215
 1.2830	83.9257
 1.2820	83.9815
 1.2810	84.0112
 1.2800	83.9464
 1.2790	83.9628
 1.2780	83.9771
 1.2770	83.9467
 1.2760	83.9016
 1.2750	83.9644
 1.2740	83.9855
 1.2730	83.9639
 1.2720	83.9521
 1.2710	83.8859
 1.2700	83.9102
 1.2690	83.9173
 1.2680	83.9398
 1.2670	83.8980
 1.2660	83.8232
 1.2650	83.7810
 1.2640	83.8518
 1.2630	83.8364
 1.2620	83.7588
 1.2610	83.8172
 1.2600	83.7957
 1.2590	83.7516
 1.2580	83.7738
 1.2570	83.7001
 1.2560	83.6424
 1.2550	83.6818
 1.2540	83.6961
 1.2530	83.6168
 1.2520	83.6164
 1.2510	83.6164
 1.2500	83.5860
 1.2490	83.6106
 1.2480	83.5963
 1.2470	83.5315
 1.2460	83.5269
 1.2450	83.5159
 1.2440	83.5094
 1.2430	83.4841
 1.2420	83.4882
 1.2410	83.5393
 1.2400	83.5031
 1.2390	83.4907
 1.2380	83.5265
 1.2370	83.4824
 1.2360	83.4568
 1.2350	83.4851
 1.2340	83.4774
 1.2330	83.4474
 1.2320	83.4631
 1.2310	83.4853
 1.2300	83.5129
 1.2290	83.5285
 1.2280	83.5180
 1.2270	83.5372
 1.2260	83.5400
 1.2250	83.5219
 1.2240	83.5183
 1.2230	83.5866
 1.2220	83.6432
 1.2210	83.6271
 1.2200	83.5884
 1.2190	83.6052
 1.2180	83.6202
 1.2170	83.6449
 1.2160	83.6463
 1.2150	83.6724
 1.2140	83.7132
 1.2130	83.6847
 1.2120	83.6776
 1.2110	83.6833
 1.2100	83.7028
 1.2090	83.7774
 1.2080	83.8032
 1.2070	83.7673
 1.2060	83.7835
 1.2050	83.7840
 1.2040	83.8076
 1.2030	83.8384
 1.2020	83.8210
 1.2010	83.8646
 1.2000	83.9466
 1.1990	83.9464
 1.1980	83.9896
 1.1970	84.0692
 1.1960	84.1128
 1.1950	84.0807
 1.1940	84.0488
 1.1930	84.1511
 1.1920	84.2377
 1.1910	84.2011
 1.1900	84.2236
 1.1890	84.3474
 1.1880	84.3587
 1.1870	84.3686
 1.1860	84.4633
 1.1850	84.5345
 1.1840	84.5950
 1.1830	84.6845
 1.1820	84.7928
 1.1810	84.7235
 1.1800	84.7850
 1.1790	84.8829
 1.1780	84.9052
 1.1770	84.9907
 1.1760	85.0823
 1.1750	85.1102
 1.1740	85.1944
 1.1730	85.2362
 1.1720	85.3462
 1.1710	85.3840
 1.1700	85.3485
 1.1690	85.4893
 1.1680	85.5610
 1.1670	85.6276
 1.1660	85.6992
 1.1650	85.7692
 1.1640	85.7853
 1.1630	85.9287
 1.1620	86.0340
 1.1610	86.0507
 1.1600	86.0925
 1.1590	86.1681
 1.1580	86.2401
 1.1570	86.3141
 1.1560	86.3093
 1.1550	86.3629
 1.1540	86.3808
 1.1530	86.4891
 1.1520	86.5422
 1.1510	86.5661
 1.1500	86.5725
 1.1490	86.6031
 1.1480	86.6779
 1.1470	86.7477
 1.1460	86.7762
 1.1450	86.7937
 1.1440	86.8640
 1.1430	86.8695
 1.1420	86.8834
 1.1410	86.9026
 1.1400	86.8872
 1.1390	86.9449
 1.1380	86.9752
 1.1370	87.0112
 1.1360	87.0774
 1.1350	87.0412
 1.1340	86.9874
 1.1330	86.9653
 1.1320	87.0746
 1.1310	87.0500
 1.1300	87.0843
 1.1290	87.0399
 1.1280	87.1228
 1.1270	87.1577
 1.1260	87.1806
 1.1250	87.1094
 1.1240	87.1529
 1.1230	87.1629
 1.1220	87.1811
 1.1210	87.0937
 1.1200	87.1534
 1.1190	87.1615
 1.1180	87.1694
 1.1170	87.1668
 1.1160	87.0959
 1.1150	87.1884
 1.1140	87.1976
 1.1130	87.2058
 1.1120	87.2163
 1.1110	87.1510
 1.1100	87.2202
 1.1090	87.1693
 1.1080	87.2428
 1.1070	87.2240
 1.1060	87.3333
 1.1050	87.2175
 1.1040	87.2514
 1.1030	87.2603
 1.1020	87.1875
 1.1010	87.1952
 1.1000	87.2378
 1.0990	87.2400
 1.0980	87.2506
 1.0970	87.2632
 1.0960	87.2989
 1.0950	87.2205
 1.0940	87.3031
 1.0930	87.2477
 1.0920	87.3220
 1.0910	87.1964
 1.0900	87.2894
 1.0890	87.2687
 1.0880	87.3183
 1.0870	87.2286
 1.0860	87.2276
 1.0850	87.2383
 1.0840	87.2573
 1.0830	87.2921
 1.0820	87.2628
 1.0810	87.2801
 1.0800	87.3073
 1.0790	87.3217
 1.0780	87.2452
 1.0770	87.2031
 1.0760	87.2927
 1.0750	87.2556
 1.0740	87.2605
 1.0730	87.1735
 1.0720	87.1460
 1.0710	87.2948
 1.0700	87.2602
 1.0690	87.2315
 1.0680	87.2293
 1.0670	87.2247
 1.0660	87.2301
 1.0650	87.2728
 1.0640	87.2022
 1.0630	87.1495
 1.0620	87.2460
 1.0610	87.1641
 1.0600	87.2206
 1.0590	87.1650
 1.0580	87.2562
 1.0570	87.2779
 1.0560	87.0841
 1.0550	87.1560
 1.0540	87.2536
 1.0530	87.1457
 1.0520	87.1625
 1.0510	87.2375
 1.0500	87.1813
 1.0490	87.0740
 1.0480	87.1220
 1.0470	87.0705
 1.0460	87.1084
 1.0450	87.0446
 1.0440	87.0595
 1.0430	87.0478
 1.0420	87.0362
 1.0410	87.0445
 1.0400	87.0189
 1.0390	87.0007
 1.0380	86.9753
 1.0370	87.0107
 1.0360	87.0550
 1.0350	86.8914
 1.0340	86.9273
 1.0330	87.0088
 1.0320	86.9586
 1.0310	86.9364
 1.0300	86.9063
 1.0290	86.8924
 1.0280	86.9097
 1.0270	86.8491
 1.0260	86.8302
 1.0250	86.8616
 1.0240	86.8873
 1.0230	86.8629
 1.0220	86.8617
 1.0210	86.7886
 1.0200	86.8735
 1.0190	86.8280
 1.0180	86.8980
 1.0170	86.9048
 1.0160	86.8046
 1.0150	86.7288
 1.0140	86.8219
 1.0130	86.7957
 1.0120	86.8132
 1.0110	86.8147
 1.0100	86.8882
 1.0090	86.8825
 1.0080	86.8356
 1.0070	86.7696
 1.0060	86.8492
 1.0050	86.8247
 1.0040	86.7914
 1.0030	86.7406
 1.0020	86.8524
 1.0010	86.8531
 1.0000	86.9093
 0.9990	86.8576
 0.9980	86.9281
 0.9970	86.9164
 0.9960	86.8617
 0.9950	86.8464
 0.9940	86.8661
 0.9930	86.9620
 0.9920	86.9597
 0.9910	86.8802
 0.9900	86.8591
 0.9890	86.8955
 0.9880	86.9122
 0.9870	86.9231
 0.9860	86.9751
 0.9850	87.0162
 0.9840	87.0543
 0.9830	87.0031
 0.9820	87.0478
 0.9810	87.0265
 0.9800	87.0769
 0.9790	87.0343
 0.9780	87.0506
 0.9770	87.0728
 0.9760	87.0465
 0.9750	87.0695
 0.9740	87.1281
 0.9730	87.1637
 0.9720	87.1123
 0.9710	87.0857
 0.9700	87.1398
 0.9690	87.1395
 0.9680	87.1778
 0.9670	87.1963
 0.9660	87.2131
 0.9650	87.2474
 0.9640	87.2827
 0.9630	87.2572
 0.9620	87.2840
 0.9610	87.2831
 0.9600	87.3109
 0.9590	87.2466
 0.9580	87.2735
 0.9570	87.2942
 0.9560	87.2476
 0.9550	87.2740
 0.9540	87.3093
 0.9530	87.2992
 0.9520	87.3199
 0.9510	87.3017
 0.9500	87.2850
 0.9490	87.2643
 0.9480	87.2710
 0.9470	87.2827
 0.9460	87.2734
 0.9450	87.2574
 0.9440	87.2861
 0.9430	87.2925
 0.9420	87.2760
 0.9410	87.3019
 0.9400	87.3481
 0.9390	87.3631
 0.9380	87.2845
 0.9370	87.3018
 0.9360	87.2690
 0.9350	87.2404
 0.9340	87.2862
 0.9330	87.2636
 0.9320	87.2892
 0.9310	87.3162
 0.9300	87.2987
 0.9290	87.2992
 0.9280	87.2494
 0.9270	87.2350
 0.9260	87.2795
 0.9250	87.2789
 0.9240	87.2486
 0.9230	87.2567
 0.9220	87.2352
 0.9210	87.2356
 0.9200	87.2045
 0.9190	87.2008
 0.9180	87.2015
 0.9170	87.1794
 0.9160	87.2144
 0.9150	87.2614
 0.9140	87.2542
 0.9130	87.1911
 0.9120	87.1980
 0.9110	87.2278
 0.9100	87.1784
 0.9090	87.1420
 0.9080	87.1394
 0.9070	87.1937
 0.9060	87.2162
 0.9050	87.1330
 0.9040	87.1195
 0.9030	87.1417
 0.9020	87.0980
 0.9010	87.0704
 0.9000	87.0614
 0.8990	87.1134
 0.8980	87.1475
 0.8970	87.1182
 0.8960	87.0808
 0.8950	87.1070
 0.8940	87.1069
 0.8930	87.0471
 0.8920	86.9705
 0.8910	87.0265
 0.8900	87.0211
 0.8890	87.0564
 0.8880	87.0643
 0.8870	86.9829
 0.8860	87.0336
 0.8850	87.0424
 0.8840	86.9505
 0.8830	86.9799
 0.8820	87.0559
 0.8810	87.0002
 0.8800	86.9506
 0.8790	86.9970
 0.8780	86.9736
 0.8770	87.0169
 0.8760	86.9817
 0.8750	87.0077
 0.8740	86.9423
 0.8730	86.8847
 0.8720	86.9310
 0.8710	86.9788
 0.8700	86.9288
 0.8690	87.0161
 0.8680	86.9960
 0.8670	86.9835
 0.8660	87.0875
 0.8650	87.0549
 0.8640	87.1076
 0.8630	87.0726
 0.8620	87.0403
 0.8610	87.0298
 0.8600	87.2187
 0.8590	87.3632
 0.8580	87.3853
 0.8570	87.1930
 0.8560	87.3226
 0.8550	87.4399
 0.8540	87.2976
 0.8530	87.3255
 0.8520	87.3569
 0.8510	87.2579
 0.8500	87.2221
 0.8490	87.3171
 0.8480	87.2698
 0.8470	87.2578
 0.8460	87.2858
 0.8450	87.3690
 0.8440	87.3413
 0.8430	87.2710
 0.8420	87.2838
 0.8410	87.2780
 0.8400	87.2589
 0.8390	87.2454
 0.8380	87.2625
 0.8370	87.2742
 0.8360	87.2768
 0.8350	87.2608
 0.8340	87.2177
 0.8330	87.2628
 0.8320	87.3029
 0.8310	87.2159
 0.8300	87.2730
 0.8290	87.2741
 0.8280	87.2369
 0.8270	87.2415
 0.8260	87.2376
 0.8250	87.2079
 0.8240	87.2064
 0.8230	87.1977
 0.8220	87.2195
 0.8210	87.1764
 0.8200	87.1784
 0.8190	87.1823
 0.8180	87.1839
 0.8170	87.1427
 0.8160	87.1484
 0.8150	87.1724
 0.8140	87.1525
 0.8130	87.1975
 0.8120	87.1810
 0.8110	87.0618
 0.8100	87.1577
 0.8090	87.1241
 0.8080	87.1457
 0.8070	87.1357
 0.8060	87.1019
 0.8050	87.1144
 0.8040	87.0903
 0.8030	87.0869
 0.8020	87.0754
 0.8010	87.0675
 0.8000	87.0778
 0.7990	87.0546
 0.7980	87.0504
 0.7970	86.9740
 0.7960	86.9190
 0.7950	86.9470
 0.7940	86.9440
 0.7930	86.8818
 0.7920	86.9099
 0.7910	86.8969
 0.7900	86.8544
 0.7890	86.8852
 0.7880	86.8778
 0.7870	86.8513
 0.7860	86.7857
 0.7850	86.8424
 0.7840	86.7932
 0.7830	86.7907
 0.7820	86.8308
 0.7810	86.7767
 0.7800	86.8007
 0.7790	86.7474
 0.7780	86.7187
 0.7770	86.7133
 0.7760	86.6696
 0.7750	86.6820
 0.7740	86.6468
 0.7730	86.6520
 0.7720	86.6806
 0.7710	86.6681
 0.7700	86.6311
 0.7690	86.6373
 0.7680	86.6392
 0.7670	86.6160
 0.7660	86.6014
 0.7650	86.6106
 0.7640	86.5522
 0.7630	86.5352
 0.7620	86.5326
 0.7610	86.5497
 0.7600	86.4963
 0.7590	86.5005
 0.7580	86.4988
 0.7570	86.4894
 0.7560	86.5024
 0.7550	86.4486
 0.7540	86.4698
 0.7530	86.4405
 0.7520	86.4435
 0.7510	86.4002
 0.7500	86.4084
 0.7490	86.4188
 0.7480	86.4103
 0.7470	86.3867
 0.7460	86.3984
 0.7450	86.3649
 0.7440	86.3426
 0.7430	86.3465
 0.7420	86.3232
 0.7410	86.3176
 0.7400	86.3129
 0.7390	86.2654
 0.7380	86.2902
 0.7370	86.2653
 0.7360	86.2670
 0.7350	86.2631
 0.7340	86.2334
 0.7330	86.2069
 0.7320	86.2107
 0.7310	86.1755
 0.7300	86.1910
 0.7290	86.1832
 0.7280	86.1543
 0.7270	86.1236
 0.7260	86.1404
 0.7250	86.1137
 0.7240	86.0934
 0.7230	86.1043
 0.7220	86.0726
 0.7210	86.0595
 0.7200	86.0677
 0.7190	86.0255
 0.7180	86.0222
 0.7170	86.0036
 0.7160	85.9863
 0.7150	85.9841
 0.7140	85.9726
 0.7130	85.9580
 0.7120	85.9223
 0.7110	85.8976
 0.7100	85.8836
 0.7090	85.8899
 0.7080	85.8595
 0.7070	85.8346
 0.7060	85.8302
 0.7050	85.8174
 0.7040	85.8017
 0.7030	85.7978
 0.7020	85.7805
 0.7010	85.7707
 0.7000	85.7546
 0.6990	85.7417
 0.6980	85.7082
 0.6970	85.7017
 0.6960	85.6860
 0.6950	85.6459
 0.6940	85.6289
 0.6930	85.6124
 0.6920	85.6094
 0.6910	85.6046
 0.6900	85.5739
 0.6890	85.5532
 0.6880	85.5476
 0.6870	85.5472
 0.6860	85.5130
 0.6850	85.4821
 0.6840	85.4877
 0.6830	85.4673
 0.6820	85.4279
 0.6810	85.4236
 0.6800	85.4013
 0.6790	85.3712
 0.6780	85.3557
 0.6770	85.3524
 0.6760	85.3246
 0.6750	85.3014
 0.6740	85.2850
 0.6730	85.2757
 0.6720	85.2612
 0.6710	85.2423
 0.6700	85.2161
 0.6690	85.1882
 0.6680	85.1766
 0.6670	85.1665
 0.6660	85.1342
 0.6650	85.1095
 0.6640	85.1078
 0.6630	85.0892
 0.6620	85.0493
 0.6610	85.0236
 0.6600	85.0033
 0.6590	84.9951
 0.6580	84.9705
 0.6570	84.9329
 0.6560	84.9069
 0.6550	84.8890
 0.6540	84.8662
 0.6530	84.8342
 0.6520	84.8279
 0.6510	84.7999
 0.6500	84.7701
 0.6490	84.7595
 0.6480	84.7310
 0.6470	84.7035
 0.6460	84.6869
 0.6450	84.6482
 0.6440	84.6163
 0.6430	84.6004
 0.6420	84.5689
 0.6410	84.5414
 0.6400	84.5169
 0.6390	84.4929
 0.6380	84.4637
 0.6370	84.4361
 0.6360	84.4106
 0.6350	84.3804
 0.6340	84.3606
 0.6330	84.3234
 0.6320	84.2796
 0.6310	84.2527
 0.6300	84.2275
 0.6290	84.2035
 0.6280	84.1808
 0.6270	84.1501
 0.6260	84.1198
 0.6250	84.0948
 0.6240	84.0763
 0.6230	84.0254
 0.6220	83.9981
 0.6210	83.9746
 0.6200	83.9369
 0.6190	83.9042
 0.6180	83.8585
 0.6170	83.8260
 0.6160	83.8202
 0.6150	83.7800
 0.6140	83.7381
 0.6130	83.7211
 0.6120	83.6929
 0.6110	83.6396
 0.6100	83.5957
 0.6090	83.5583
 0.6080	83.5377
 0.6070	83.4962
 0.6060	83.4743
 0.6050	83.4592
 0.6040	83.4197
 0.6030	83.3675
 0.6020	83.3286
 0.6010	83.3012
 0.6000	83.2605
 0.5990	83.2487
 0.5980	83.2060
 0.5970	83.1963
 0.5960	83.1855
 0.5950	83.1598
 0.5940	83.1169
 0.5930	83.0715
 0.5920	83.0256
 0.5910	82.9914
 0.5900	82.9576
 0.5890	82.9000
 0.5880	82.8611
 0.5870	82.8306
 0.5860	82.7849
 0.5850	82.7224
 0.5840	82.6754
 0.5830	82.6518
 0.5820	82.6224
 0.5810	82.5641
 0.5800	82.5186
 0.5790	82.4738
 0.5780	82.4134
 0.5770	82.3592
 0.5760	82.3207
 0.5750	82.2669
 0.5740	82.2180
 0.5730	82.1765
 0.5720	82.1158
 0.5710	82.0573
 0.5700	82.0009
 0.5690	81.9593
 0.5680	81.9192
 0.5670	81.8649
 0.5660	81.8193
 0.5650	81.7613
 0.5640	81.6964
 0.5630	81.6421
 0.5620	81.6050
 0.5610	81.5378
 0.5600	81.4766
 0.5590	81.4286
 0.5580	81.3608
 0.5570	81.3087
 0.5560	81.2611
 0.5550	81.2144
 0.5540	81.1562
 0.5530	81.0911
 0.5520	81.0290
 0.5510	80.9889
 0.5500	80.9345
 0.5490	80.8692
 0.5480	80.8123
 0.5470	80.7637
 0.5460	80.7098
 0.5450	80.6543
 0.5440	80.5895
 0.5430	80.5346
 0.5420	80.4993
 0.5410	80.4398
 0.5400	80.3768
 0.5390	80.3074
 0.5380	80.2536
 0.5370	80.1803
 0.5360	80.1125
 0.5350	80.0798
 0.5340	79.9988
 0.5330	79.9376
 0.5320	79.8743
 0.5310	79.8044
 0.5300	79.7435
 0.5290	79.6594
 0.5280	79.5980
 0.5270	79.5358
 0.5260	79.4758
 0.5250	79.3932
 0.5240	79.3250
 0.5230	79.2786
 0.5220	79.2018
 0.5210	79.1334
 0.5200	79.0558
 0.5190	78.9761
 0.5180	78.9159
 0.5170	78.8623
 0.5160	78.7762
 0.5150	78.7103
 0.5140	78.6388
 0.5130	78.5746
 0.5120	78.4946
 0.5110	78.4181
 0.5100	78.3364
 0.5090	78.2546
 0.5080	78.1800
 0.5070	78.1122
 0.5060	78.0329
 0.5050	77.9476
 0.5040	77.8608
 0.5030	77.7626
 0.5020	77.6804
 0.5010	77.6195
 0.5000	77.5165
 0.4990	77.4242
 0.4980	77.3603
 0.4970	77.2668
 0.4960	77.1835
 0.4950	77.0912
 0.4940	77.0076
 0.4930	76.8889
 0.4920	76.7958
 0.4910	76.7105
 0.4900	76.6407
 0.4890	76.5455
 0.4880	76.4502
 0.4870	76.3396
 0.4860	76.2659
 0.4850	76.1627
 0.4840	76.0583
 0.4830	75.9745
 0.4820	75.8700
 0.4810	75.7602
 0.4800	75.6540
 0.4790	75.5682
 0.4780	75.5165
 0.4770	75.4270
 0.4760	75.3203
 0.4750	75.2374
 0.4740	75.1504
 0.4730	75.0772
 0.4720	74.9525
 0.4710	74.8756
 0.4700	74.7899
 0.4690	74.6896
 0.4680	74.5713
 0.4670	74.4795
 0.4660	74.3920
 0.4650	74.2812
 0.4640	74.1958
 0.4630	74.0902
 0.4620	73.9605
 0.4610	73.8793
 0.4600	73.7646
 0.4590	73.6595
 0.4580	73.5674
 0.4570	73.4499
 0.4560	73.3326
 0.4550	73.2262
 0.4540	73.1068
 0.4530	72.9922
 0.4520	72.8766
 0.4510	72.7589
 0.4500	72.6343
 0.4490	72.5151
 0.4480	72.4021
 0.4470	72.2732
 0.4460	72.1361
 0.4450	72.0152
 0.4440	71.8747
 0.4430	71.7265
 0.4420	71.6049
 0.4410	71.4685
 0.4400	71.3308
 0.4390	71.2092
 0.4380	71.0840
 0.4370	70.9455
 0.4360	70.8154
 0.4350	70.6782
 0.4340	70.5245
 0.4330	70.3953
 0.4320	70.2608
 0.4310	70.1040
 0.4300	69.9752
 0.4290	69.8545
 0.4280	69.6995
 0.4270	69.5482
 0.4260	69.4051
 0.4250	69.2771
 0.4240	69.1183
 0.4230	68.9893
 0.4220	68.8566
 0.4210	68.6945
 0.4200	68.5466
 0.4190	68.4225
 0.4180	68.2731
 0.4170	68.1374
 0.4160	68.0131
 0.4150	67.8316
 0.4140	67.7100
 0.4130	67.5705
 0.4120	67.4126
 0.4110	67.2822
 0.4100	67.1531
 0.4090	67.0081
 0.4080	66.8803
 0.4070	66.7411
 0.4060	66.5946
 0.4050	66.4747
 0.4040	66.3541
 0.4030	66.2223
 0.4020	66.0906
 0.4010	65.9495
 0.4000	65.8193
