Name: Sphalerite (Zn,Fe)S
Type: Mineral
Class: Sulfide
Subclass: None
Particle Size: Fine
Sample No.: S-1A
Owner: JPL
Wavelength Range: VSWIR
Origin: USA, Oklahoma, Ottawa County, Picher.
Collection Date: N/A
Description: Particle size was 0-45um. Collected by:  JPL Original ASTER Spectral Library name was jpl.perkin.mineral.sulfide.none.fine.s01a.spectrum.txt
Measurement: Hemispherical reflectance
First Column: X
Second Column: Y
X Units: Wavelength (micrometers)
Y Units:Reflectance (percent)
First X Value:  2.5000
Last X Value:  0.4000
Number of X Values: 2101
Additional Information: mineral.sulfide.none.fine.vswir.s-1a.jpl.perkin.ancillary.txt

 2.5000	14.6758
 2.4990	14.2225
 2.4980	14.5983
 2.4970	14.9198
 2.4960	14.0615
 2.4950	14.8055
 2.4940	14.4025
 2.4930	14.6857
 2.4920	14.5664
 2.4910	14.7837
 2.4900	14.6931
 2.4890	14.8531
 2.4880	14.6438
 2.4870	15.1069
 2.4860	14.7424
 2.4850	15.0224
 2.4840	14.7388
 2.4830	14.9594
 2.4820	14.9988
 2.4810	14.9931
 2.4800	14.8962
 2.4790	15.2098
 2.4780	14.9565
 2.4770	15.0565
 2.4760	14.9310
 2.4750	15.3552
 2.4740	14.9316
 2.4730	15.1744
 2.4720	15.0641
 2.4710	15.3714
 2.4700	15.1255
 2.4690	15.2965
 2.4680	15.3279
 2.4670	15.3318
 2.4660	15.2996
 2.4650	15.4716
 2.4640	15.3688
 2.4630	15.5399
 2.4620	15.4295
 2.4610	15.5774
 2.4600	15.4577
 2.4590	15.6234
 2.4580	15.4776
 2.4570	15.8214
 2.4560	15.6247
 2.4550	15.7920
 2.4540	15.7376
 2.4530	15.7553
 2.4520	15.8271
 2.4510	15.9994
 2.4500	15.8484
 2.4490	15.9889
 2.4480	15.9346
 2.4470	15.9704
 2.4460	15.9512
 2.4450	16.0923
 2.4440	16.0319
 2.4430	16.1732
 2.4420	16.1600
 2.4410	16.2674
 2.4400	16.1382
 2.4390	16.3447
 2.4380	16.1805
 2.4370	16.2956
 2.4360	16.3397
 2.4350	16.4528
 2.4340	16.3042
 2.4330	16.4812
 2.4320	16.3995
 2.4310	16.5560
 2.4300	16.4598
 2.4290	16.5533
 2.4280	16.5954
 2.4270	16.6262
 2.4260	16.6814
 2.4250	16.7733
 2.4240	16.7136
 2.4230	16.8938
 2.4220	16.8288
 2.4210	16.9454
 2.4200	16.9181
 2.4190	16.9367
 2.4180	16.8611
 2.4170	17.0655
 2.4160	17.0350
 2.4150	17.1222
 2.4140	17.0549
 2.4130	17.1452
 2.4120	17.1257
 2.4110	17.2345
 2.4100	17.1919
 2.4090	17.2740
 2.4080	17.2600
 2.4070	17.3342
 2.4060	17.3144
 2.4050	17.4223
 2.4040	17.4621
 2.4030	17.5639
 2.4020	17.5732
 2.4010	17.6041
 2.4000	17.5527
 2.3990	17.6885
 2.3980	17.6521
 2.3970	17.7553
 2.3960	17.7940
 2.3950	17.8508
 2.3940	17.8537
 2.3930	17.9228
 2.3920	17.9660
 2.3910	18.0092
 2.3900	18.0208
 2.3890	18.0733
 2.3880	18.0794
 2.3870	18.1166
 2.3860	18.1313
 2.3850	18.2647
 2.3840	18.3281
 2.3830	18.4218
 2.3820	18.4175
 2.3810	18.4379
 2.3800	18.4251
 2.3790	18.4973
 2.3780	18.5638
 2.3770	18.6263
 2.3760	18.6566
 2.3750	18.7275
 2.3740	18.7745
 2.3730	18.7674
 2.3720	18.8030
 2.3710	18.9261
 2.3700	18.9488
 2.3690	18.9967
 2.3680	18.9922
 2.3670	19.0321
 2.3660	19.1081
 2.3650	19.1629
 2.3640	19.1996
 2.3630	19.2956
 2.3620	19.3378
 2.3610	19.3845
 2.3600	19.4339
 2.3590	19.4810
 2.3580	19.5091
 2.3570	19.5417
 2.3560	19.6701
 2.3550	19.7211
 2.3540	19.6988
 2.3530	19.7703
 2.3520	19.8045
 2.3510	19.8404
 2.3500	19.9187
 2.3490	19.9668
 2.3480	20.0056
 2.3470	20.0212
 2.3460	20.1122
 2.3450	20.2099
 2.3440	20.2129
 2.3430	20.2656
 2.3420	20.3324
 2.3410	20.3862
 2.3400	20.4693
 2.3390	20.4968
 2.3380	20.5486
 2.3370	20.5680
 2.3360	20.6410
 2.3350	20.6833
 2.3340	20.7595
 2.3330	20.7857
 2.3320	20.8588
 2.3310	20.9225
 2.3300	20.9954
 2.3290	21.0098
 2.3280	21.0288
 2.3270	21.0798
 2.3260	21.1546
 2.3250	21.2162
 2.3240	21.2978
 2.3230	21.3158
 2.3220	21.4121
 2.3210	21.4214
 2.3200	21.5472
 2.3190	21.5442
 2.3180	21.6133
 2.3170	21.6722
 2.3160	21.7669
 2.3150	21.7913
 2.3140	21.8743
 2.3130	21.9268
 2.3120	21.9662
 2.3110	22.0324
 2.3100	22.1795
 2.3090	22.1288
 2.3080	22.2412
 2.3070	22.2784
 2.3060	22.3286
 2.3050	22.3787
 2.3040	22.4932
 2.3030	22.4944
 2.3020	22.5825
 2.3010	22.6637
 2.3000	22.7436
 2.2990	22.8059
 2.2980	22.8826
 2.2970	22.9380
 2.2960	22.9565
 2.2950	23.0328
 2.2940	23.1085
 2.2930	23.1456
 2.2920	23.2728
 2.2910	23.2803
 2.2900	23.3407
 2.2890	23.3996
 2.2880	23.5399
 2.2870	23.5632
 2.2860	23.6335
 2.2850	23.7098
 2.2840	23.8112
 2.2830	23.8498
 2.2820	23.9375
 2.2810	23.9928
 2.2800	24.0863
 2.2790	24.0528
 2.2780	24.2422
 2.2770	24.2299
 2.2760	24.2947
 2.2750	24.3848
 2.2740	24.5256
 2.2730	24.5039
 2.2720	24.6567
 2.2710	24.6784
 2.2700	24.7898
 2.2690	24.7852
 2.2680	24.9419
 2.2670	24.8550
 2.2660	25.0449
 2.2650	25.1435
 2.2640	25.2261
 2.2630	25.1629
 2.2620	25.3296
 2.2610	25.3608
 2.2600	25.4752
 2.2590	25.4481
 2.2580	25.6649
 2.2570	25.6237
 2.2560	25.7849
 2.2550	25.8037
 2.2540	25.9305
 2.2530	25.9202
 2.2520	26.1029
 2.2510	26.0640
 2.2500	26.2024
 2.2490	26.2261
 2.2480	26.4190
 2.2470	26.4235
 2.2460	26.6371
 2.2450	26.4992
 2.2440	26.6597
 2.2430	26.6999
 2.2420	26.8728
 2.2410	26.8766
 2.2400	27.0742
 2.2390	27.0366
 2.2380	27.1687
 2.2370	27.1907
 2.2360	27.4533
 2.2350	27.3276
 2.2340	27.5491
 2.2330	27.5129
 2.2320	27.6484
 2.2310	27.6055
 2.2300	27.7806
 2.2290	27.8758
 2.2280	28.0469
 2.2270	28.0278
 2.2260	28.1403
 2.2250	28.1263
 2.2240	28.3547
 2.2230	28.3833
 2.2220	28.6099
 2.2210	28.5668
 2.2200	28.6992
 2.2190	28.6824
 2.2180	28.8787
 2.2170	28.8941
 2.2160	29.1493
 2.2150	29.0871
 2.2140	29.2368
 2.2130	29.2670
 2.2120	29.4951
 2.2110	29.2130
 2.2100	29.7139
 2.2090	29.5727
 2.2080	29.8671
 2.2070	29.7485
 2.2060	30.0289
 2.2050	29.9840
 2.2040	30.1490
 2.2030	30.1879
 2.2020	30.3344
 2.2010	30.3388
 2.2000	30.5661
 2.1990	30.5187
 2.1980	30.7112
 2.1970	30.7364
 2.1960	30.8825
 2.1950	30.8868
 2.1940	31.1398
 2.1930	31.1775
 2.1920	31.2305
 2.1910	31.2948
 2.1900	31.4580
 2.1890	31.4927
 2.1880	31.6841
 2.1870	31.6545
 2.1860	32.0073
 2.1850	31.8106
 2.1840	32.0459
 2.1830	32.1226
 2.1820	32.2306
 2.1810	32.2550
 2.1800	32.4077
 2.1790	32.5174
 2.1780	32.6199
 2.1770	32.6461
 2.1760	32.8785
 2.1750	32.8525
 2.1740	33.0213
 2.1730	33.0624
 2.1720	33.2583
 2.1710	33.3349
 2.1700	33.4274
 2.1690	33.4835
 2.1680	33.6614
 2.1670	33.7179
 2.1660	33.9056
 2.1650	33.8894
 2.1640	34.0093
 2.1630	34.1052
 2.1620	34.2774
 2.1610	34.3628
 2.1600	34.5299
 2.1590	34.5418
 2.1580	34.6863
 2.1570	34.7334
 2.1560	34.8829
 2.1550	34.9828
 2.1540	35.1138
 2.1530	35.1838
 2.1520	35.3165
 2.1510	35.3477
 2.1500	35.5206
 2.1490	35.5412
 2.1480	35.7051
 2.1470	35.7828
 2.1460	35.9120
 2.1450	35.9882
 2.1440	36.0832
 2.1430	36.1204
 2.1420	36.3032
 2.1410	36.3403
 2.1400	36.4503
 2.1390	36.4911
 2.1380	36.6716
 2.1370	36.6975
 2.1360	36.8526
 2.1350	36.8901
 2.1340	37.0637
 2.1330	37.0738
 2.1320	37.2124
 2.1310	37.2611
 2.1300	37.3566
 2.1290	37.4743
 2.1280	37.5877
 2.1270	37.6476
 2.1260	37.7273
 2.1250	37.7322
 2.1240	37.8467
 2.1230	37.9562
 2.1220	38.0943
 2.1210	38.1014
 2.1200	38.2209
 2.1190	38.3037
 2.1180	38.3895
 2.1170	38.4535
 2.1160	38.5020
 2.1150	38.5167
 2.1140	38.6930
 2.1130	38.7606
 2.1120	38.8632
 2.1110	38.8976
 2.1100	38.9233
 2.1090	38.9932
 2.1080	39.0961
 2.1070	39.1599
 2.1060	39.2866
 2.1050	39.3788
 2.1040	39.4347
 2.1030	39.4554
 2.1020	39.5903
 2.1010	39.6962
 2.1000	39.7663
 2.0990	39.8459
 2.0980	39.8937
 2.0970	39.9603
 2.0960	40.1320
 2.0950	40.1619
 2.0940	40.3850
 2.0930	40.5020
 2.0920	40.5436
 2.0910	40.6408
 2.0900	40.7277
 2.0890	40.7935
 2.0880	40.9028
 2.0870	41.0386
 2.0860	41.1231
 2.0850	41.2323
 2.0840	41.3582
 2.0830	41.4203
 2.0820	41.5251
 2.0810	41.6218
 2.0800	41.7347
 2.0790	41.7968
 2.0780	41.8949
 2.0770	42.0174
 2.0760	42.0836
 2.0750	42.1705
 2.0740	42.2952
 2.0730	42.3900
 2.0720	42.5101
 2.0710	42.6127
 2.0700	42.6541
 2.0690	42.7579
 2.0680	42.8654
 2.0670	42.9670
 2.0660	43.0969
 2.0650	43.1799
 2.0640	43.2567
 2.0630	43.3840
 2.0620	43.4330
 2.0610	43.5297
 2.0600	43.6602
 2.0590	43.7043
 2.0580	43.8131
 2.0570	43.9547
 2.0560	43.9794
 2.0550	44.0762
 2.0540	44.2045
 2.0530	44.2931
 2.0520	44.3607
 2.0510	44.4634
 2.0500	44.5524
 2.0490	44.6386
 2.0480	44.7221
 2.0470	44.9014
 2.0460	44.9806
 2.0450	45.0233
 2.0440	45.0471
 2.0430	45.1709
 2.0420	45.2575
 2.0410	45.3624
 2.0400	45.4877
 2.0390	45.5482
 2.0380	45.6148
 2.0370	45.7353
 2.0360	45.7633
 2.0350	45.8402
 2.0340	45.9300
 2.0330	46.0453
 2.0320	46.1075
 2.0310	46.1986
 2.0300	46.2449
 2.0290	46.3240
 2.0280	46.3880
 2.0270	46.4878
 2.0260	46.5927
 2.0250	46.6123
 2.0240	46.7029
 2.0230	46.8697
 2.0220	46.8748
 2.0210	46.9421
 2.0200	47.0153
 2.0190	47.1106
 2.0180	47.1787
 2.0170	47.2277
 2.0160	47.2829
 2.0150	47.3879
 2.0140	47.4420
 2.0130	47.5463
 2.0120	47.6200
 2.0110	47.7455
 2.0100	47.7225
 2.0090	47.8201
 2.0080	47.8730
 2.0070	47.9876
 2.0060	47.9971
 2.0050	48.0838
 2.0040	48.0774
 2.0030	48.2031
 2.0020	48.2543
 2.0010	48.2916
 2.0000	48.3596
 1.9990	48.4837
 1.9980	48.5271
 1.9970	48.6183
 1.9960	48.5867
 1.9950	48.6152
 1.9940	48.6672
 1.9930	48.6890
 1.9920	48.8265
 1.9910	48.9674
 1.9900	48.9613
 1.9890	49.0564
 1.9880	49.0426
 1.9870	49.1715
 1.9860	49.1367
 1.9850	49.2350
 1.9840	49.2679
 1.9830	49.3429
 1.9820	49.3388
 1.9810	49.4771
 1.9800	49.5082
 1.9790	49.5396
 1.9780	49.5455
 1.9770	49.6670
 1.9760	49.6803
 1.9750	49.6601
 1.9740	49.6996
 1.9730	49.7990
 1.9720	49.8072
 1.9710	49.9254
 1.9700	49.9987
 1.9690	50.0114
 1.9680	50.0230
 1.9670	50.1607
 1.9660	50.1261
 1.9650	50.2438
 1.9640	50.1849
 1.9630	50.2631
 1.9620	50.3681
 1.9610	50.4365
 1.9600	50.4114
 1.9590	50.4780
 1.9580	50.4871
 1.9570	50.5326
 1.9560	50.5739
 1.9550	50.6806
 1.9540	50.6752
 1.9530	50.7361
 1.9520	50.7509
 1.9510	50.9105
 1.9500	50.7826
 1.9490	50.9229
 1.9480	50.9691
 1.9470	50.8911
 1.9460	50.8986
 1.9450	51.0666
 1.9440	51.0754
 1.9430	51.1190
 1.9420	51.0763
 1.9410	51.2404
 1.9400	51.2510
 1.9390	51.3344
 1.9380	51.3381
 1.9370	51.3960
 1.9360	51.3099
 1.9350	51.5583
 1.9340	51.4551
 1.9330	51.5917
 1.9320	51.4808
 1.9310	51.5919
 1.9300	51.7002
 1.9290	51.7011
 1.9280	51.7184
 1.9270	51.8395
 1.9260	51.7092
 1.9250	51.9414
 1.9240	51.8980
 1.9230	51.9493
 1.9220	51.8968
 1.9210	51.9942
 1.9200	51.9979
 1.9190	51.9791
 1.9180	51.9754
 1.9170	52.1410
 1.9160	51.9798
 1.9150	52.1893
 1.9140	52.1383
 1.9130	52.2676
 1.9120	52.2468
 1.9110	52.3430
 1.9100	52.2592
 1.9090	52.3566
 1.9080	52.3774
 1.9070	52.5033
 1.9060	52.4326
 1.9050	52.4933
 1.9040	52.4057
 1.9030	52.5176
 1.9020	52.5607
 1.9010	52.5812
 1.9000	52.5457
 1.8990	52.5944
 1.8980	52.5853
 1.8970	52.7036
 1.8960	52.6280
 1.8950	52.7297
 1.8940	52.7462
 1.8930	52.7876
 1.8920	52.7982
 1.8910	52.8280
 1.8900	52.7961
 1.8890	52.8982
 1.8880	52.9028
 1.8870	52.8642
 1.8860	52.9208
 1.8850	52.9722
 1.8840	53.0128
 1.8830	53.0015
 1.8820	52.9630
 1.8810	53.0392
 1.8800	53.0307
 1.8790	53.1612
 1.8780	53.1094
 1.8770	53.1030
 1.8760	53.1389
 1.8750	53.1845
 1.8740	53.1086
 1.8730	53.1442
 1.8720	53.0640
 1.8710	53.1313
 1.8700	53.1012
 1.8690	53.1941
 1.8680	53.1436
 1.8670	53.1919
 1.8660	53.1438
 1.8650	53.2110
 1.8640	53.2046
 1.8630	53.3028
 1.8620	53.3290
 1.8610	53.3212
 1.8600	53.3236
 1.8590	53.3077
 1.8580	53.2543
 1.8570	53.2757
 1.8560	53.2786
 1.8550	53.3330
 1.8540	53.3288
 1.8530	53.2754
 1.8520	53.2999
 1.8510	53.2688
 1.8500	53.2909
 1.8490	53.3222
 1.8480	53.2936
 1.8470	53.3018
 1.8460	53.2985
 1.8450	53.3107
 1.8440	53.3176
 1.8430	53.3750
 1.8420	53.3176
 1.8410	53.4078
 1.8400	53.3466
 1.8390	53.3501
 1.8380	53.3083
 1.8370	53.3110
 1.8360	53.3021
 1.8350	53.2959
 1.8340	53.2682
 1.8330	53.3087
 1.8320	53.3491
 1.8310	53.3627
 1.8300	53.3625
 1.8290	53.3633
 1.8280	53.3013
 1.8270	53.2416
 1.8260	53.3031
 1.8250	53.2912
 1.8240	53.2824
 1.8230	53.3314
 1.8220	53.2799
 1.8210	53.3478
 1.8200	53.3230
 1.8190	53.2897
 1.8180	53.2945
 1.8170	53.3276
 1.8160	53.3182
 1.8150	53.3167
 1.8140	53.3042
 1.8130	53.3138
 1.8120	53.2689
 1.8110	53.2638
 1.8100	53.2464
 1.8090	53.2601
 1.8080	53.2310
 1.8070	53.2043
 1.8060	53.2487
 1.8050	53.3009
 1.8040	53.2707
 1.8030	53.2095
 1.8020	53.1907
 1.8010	53.2113
 1.8000	53.2243
 1.7990	53.2326
 1.7980	53.2099
 1.7970	53.2044
 1.7960	53.1329
 1.7950	53.0984
 1.7940	53.1478
 1.7930	53.1637
 1.7920	53.1142
 1.7910	53.1425
 1.7900	53.1468
 1.7890	53.0848
 1.7880	53.1075
 1.7870	53.1102
 1.7860	53.0528
 1.7850	53.0584
 1.7840	53.1201
 1.7830	53.0429
 1.7820	53.0227
 1.7810	53.0624
 1.7800	53.0311
 1.7790	52.9622
 1.7780	52.9440
 1.7770	52.9882
 1.7760	52.9473
 1.7750	52.9056
 1.7740	52.9145
 1.7730	52.8855
 1.7720	52.8441
 1.7710	52.7776
 1.7700	52.8196
 1.7690	52.8241
 1.7680	52.8115
 1.7670	52.8051
 1.7660	52.7967
 1.7650	52.7638
 1.7640	52.7739
 1.7630	52.7602
 1.7620	52.7236
 1.7610	52.7193
 1.7600	52.7449
 1.7590	52.7008
 1.7580	52.6770
 1.7570	52.6777
 1.7560	52.6821
 1.7550	52.6498
 1.7540	52.6630
 1.7530	52.6296
 1.7520	52.5997
 1.7510	52.5918
 1.7500	52.5931
 1.7490	52.5376
 1.7480	52.5410
 1.7470	52.5049
 1.7460	52.4829
 1.7450	52.4819
 1.7440	52.5334
 1.7430	52.4798
 1.7420	52.4661
 1.7410	52.4179
 1.7400	52.4500
 1.7390	52.4551
 1.7380	52.4456
 1.7370	52.4336
 1.7360	52.4582
 1.7350	52.3860
 1.7340	52.3769
 1.7330	52.3718
 1.7320	52.3723
 1.7310	52.3832
 1.7300	52.3274
 1.7290	52.2748
 1.7280	52.3263
 1.7270	52.2766
 1.7260	52.3078
 1.7250	52.3464
 1.7240	52.3102
 1.7230	52.2152
 1.7220	52.2097
 1.7210	52.2026
 1.7200	52.2913
 1.7190	52.1636
 1.7180	52.1523
 1.7170	52.1453
 1.7160	52.0882
 1.7150	52.1409
 1.7140	52.1432
 1.7130	52.1357
 1.7120	52.1277
 1.7110	52.0571
 1.7100	52.0306
 1.7090	52.0675
 1.7080	52.0643
 1.7070	51.9466
 1.7060	52.0201
 1.7050	51.9394
 1.7040	51.9941
 1.7030	51.9852
 1.7020	51.9547
 1.7010	51.9500
 1.7000	51.9325
 1.6990	51.9010
 1.6980	51.8669
 1.6970	51.7627
 1.6960	51.9318
 1.6950	51.8084
 1.6940	51.9109
 1.6930	51.8022
 1.6920	51.8308
 1.6910	51.7979
 1.6900	51.7442
 1.6890	51.7498
 1.6880	51.7755
 1.6870	51.6751
 1.6860	51.7246
 1.6850	51.6951
 1.6840	51.7621
 1.6830	51.7181
 1.6820	51.7348
 1.6810	51.7493
 1.6800	51.7163
 1.6790	51.6607
 1.6780	51.7011
 1.6770	51.6179
 1.6760	51.7048
 1.6750	51.7053
 1.6740	51.6510
 1.6730	51.5924
 1.6720	51.6811
 1.6710	51.6515
 1.6700	51.6980
 1.6690	51.7308
 1.6680	51.5892
 1.6670	51.6190
 1.6660	51.7092
 1.6650	51.6744
 1.6640	51.6910
 1.6630	51.5741
 1.6620	51.6697
 1.6610	51.5706
 1.6600	51.6310
 1.6590	51.5523
 1.6580	51.5642
 1.6570	51.6334
 1.6560	51.5833
 1.6550	51.5488
 1.6540	51.5520
 1.6530	51.5717
 1.6520	51.6506
 1.6510	51.5608
 1.6500	51.6136
 1.6490	51.5681
 1.6480	51.6197
 1.6470	51.5712
 1.6460	51.5956
 1.6450	51.5435
 1.6440	51.6054
 1.6430	51.5351
 1.6420	51.6634
 1.6410	51.4413
 1.6400	51.5942
 1.6390	51.5598
 1.6380	51.5605
 1.6370	51.6143
 1.6360	51.5937
 1.6350	51.5220
 1.6340	51.5699
 1.6330	51.5225
 1.6320	51.5531
 1.6310	51.6073
 1.6300	51.5043
 1.6290	51.4857
 1.6280	51.5827
 1.6270	51.5539
 1.6260	51.6061
 1.6250	51.6075
 1.6240	51.5455
 1.6230	51.5286
 1.6220	51.5365
 1.6210	51.5162
 1.6200	51.5398
 1.6190	51.5178
 1.6180	51.5868
 1.6170	51.5776
 1.6160	51.5520
 1.6150	51.5145
 1.6140	51.5544
 1.6130	51.5166
 1.6120	51.5443
 1.6110	51.5910
 1.6100	51.5584
 1.6090	51.5752
 1.6080	51.6182
 1.6070	51.4657
 1.6060	51.4968
 1.6050	51.5074
 1.6040	51.5384
 1.6030	51.4905
 1.6020	51.5293
 1.6010	51.4947
 1.6000	51.5616
 1.5990	51.5908
 1.5980	51.6315
 1.5970	51.5050
 1.5960	51.5174
 1.5950	51.5258
 1.5940	51.6296
 1.5930	51.4931
 1.5920	51.5288
 1.5910	51.5513
 1.5900	51.5709
 1.5890	51.5027
 1.5880	51.5368
 1.5870	51.5257
 1.5860	51.5385
 1.5850	51.4621
 1.5840	51.4750
 1.5830	51.4926
 1.5820	51.5497
 1.5810	51.4640
 1.5800	51.5053
 1.5790	51.4382
 1.5780	51.5191
 1.5770	51.4711
 1.5760	51.5195
 1.5750	51.4700
 1.5740	51.5211
 1.5730	51.4846
 1.5720	51.5062
 1.5710	51.4882
 1.5700	51.5593
 1.5690	51.4943
 1.5680	51.4892
 1.5670	51.4985
 1.5660	51.5245
 1.5650	51.4840
 1.5640	51.5057
 1.5630	51.4860
 1.5620	51.5140
 1.5610	51.4992
 1.5600	51.5101
 1.5590	51.4487
 1.5580	51.4321
 1.5570	51.4592
 1.5560	51.5026
 1.5550	51.4299
 1.5540	51.4446
 1.5530	51.4259
 1.5520	51.4724
 1.5510	51.4751
 1.5500	51.4845
 1.5490	51.4685
 1.5480	51.4627
 1.5470	51.4234
 1.5460	51.4649
 1.5450	51.4847
 1.5440	51.4931
 1.5430	51.4261
 1.5420	51.4890
 1.5410	51.4867
 1.5400	51.4512
 1.5390	51.4549
 1.5380	51.5011
 1.5370	51.5236
 1.5360	51.5191
 1.5350	51.4585
 1.5340	51.4959
 1.5330	51.5098
 1.5320	51.5090
 1.5310	51.4323
 1.5300	51.4151
 1.5290	51.4268
 1.5280	51.4662
 1.5270	51.4778
 1.5260	51.4824
 1.5250	51.4539
 1.5240	51.4196
 1.5230	51.4149
 1.5220	51.4881
 1.5210	51.4799
 1.5200	51.4485
 1.5190	51.4004
 1.5180	51.3761
 1.5170	51.4102
 1.5160	51.4742
 1.5150	51.4661
 1.5140	51.4615
 1.5130	51.4434
 1.5120	51.4410
 1.5110	51.4413
 1.5100	51.4109
 1.5090	51.4239
 1.5080	51.4589
 1.5070	51.4595
 1.5060	51.4342
 1.5050	51.4155
 1.5040	51.4185
 1.5030	51.4240
 1.5020	51.4385
 1.5010	51.4456
 1.5000	51.4180
 1.4990	51.3826
 1.4980	51.4278
 1.4970	51.4757
 1.4960	51.4533
 1.4950	51.4568
 1.4940	51.4349
 1.4930	51.3839
 1.4920	51.4212
 1.4910	51.4535
 1.4900	51.4385
 1.4890	51.4171
 1.4880	51.4011
 1.4870	51.4094
 1.4860	51.3964
 1.4850	51.3879
 1.4840	51.3185
 1.4830	51.3633
 1.4820	51.4068
 1.4810	51.4286
 1.4800	51.4278
 1.4790	51.3878
 1.4780	51.3921
 1.4770	51.4484
 1.4760	51.4698
 1.4750	51.4471
 1.4740	51.3797
 1.4730	51.4536
 1.4720	51.4666
 1.4710	51.3909
 1.4700	51.3589
 1.4690	51.3755
 1.4680	51.3646
 1.4670	51.4214
 1.4660	51.3925
 1.4650	51.3864
 1.4640	51.3701
 1.4630	51.4010
 1.4620	51.4142
 1.4610	51.3765
 1.4600	51.4013
 1.4590	51.3752
 1.4580	51.3481
 1.4570	51.3827
 1.4560	51.3595
 1.4550	51.4448
 1.4540	51.3256
 1.4530	51.3380
 1.4520	51.3376
 1.4510	51.3764
 1.4500	51.4069
 1.4490	51.4197
 1.4480	51.3753
 1.4470	51.4336
 1.4460	51.3524
 1.4450	51.3954
 1.4440	51.3742
 1.4430	51.4023
 1.4420	51.4225
 1.4410	51.4678
 1.4400	51.3832
 1.4390	51.4131
 1.4380	51.3719
 1.4370	51.3819
 1.4360	51.2992
 1.4350	51.3253
 1.4340	51.3460
 1.4330	51.4232
 1.4320	51.4342
 1.4310	51.4641
 1.4300	51.4474
 1.4290	51.4062
 1.4280	51.3206
 1.4270	51.4245
 1.4260	51.3687
 1.4250	51.3784
 1.4240	51.4043
 1.4230	51.4288
 1.4220	51.3250
 1.4210	51.4084
 1.4200	51.3372
 1.4190	51.3813
 1.4180	51.3712
 1.4170	51.4069
 1.4160	51.3747
 1.4150	51.4355
 1.4140	51.3510
 1.4130	51.3973
 1.4120	51.3791
 1.4110	51.4148
 1.4100	51.3994
 1.4090	51.4263
 1.4080	51.3515
 1.4070	51.3480
 1.4060	51.3777
 1.4050	51.4665
 1.4040	51.3918
 1.4030	51.4425
 1.4020	51.3750
 1.4010	51.3839
 1.4000	51.4167
 1.3990	51.4255
 1.3980	51.4415
 1.3970	51.5117
 1.3960	51.4101
 1.3950	51.4689
 1.3940	51.4402
 1.3930	51.4073
 1.3920	51.4007
 1.3910	51.5798
 1.3900	51.4369
 1.3890	51.4792
 1.3880	51.4388
 1.3870	51.5944
 1.3860	51.4405
 1.3850	51.4870
 1.3840	51.5182
 1.3830	51.5707
 1.3820	51.4319
 1.3810	51.4251
 1.3800	51.3556
 1.3790	51.4711
 1.3780	51.4335
 1.3770	51.5486
 1.3760	51.4565
 1.3750	51.5680
 1.3740	51.4574
 1.3730	51.5077
 1.3720	51.3975
 1.3710	51.5211
 1.3700	51.4352
 1.3690	51.4800
 1.3680	51.4630
 1.3670	51.5504
 1.3660	51.4535
 1.3650	51.5725
 1.3640	51.4365
 1.3630	51.5130
 1.3620	51.4582
 1.3610	51.4924
 1.3600	51.3635
 1.3590	51.4472
 1.3580	51.4726
 1.3570	51.5891
 1.3560	51.4919
 1.3550	51.4352
 1.3540	51.3014
 1.3530	51.4253
 1.3520	51.4611
 1.3510	51.5182
 1.3500	51.4072
 1.3490	51.5409
 1.3480	51.4081
 1.3470	51.4935
 1.3460	51.4553
 1.3450	51.4947
 1.3440	51.4992
 1.3430	51.5011
 1.3420	51.4443
 1.3410	51.4799
 1.3400	51.4472
 1.3390	51.4776
 1.3380	51.4961
 1.3370	51.4961
 1.3360	51.4129
 1.3350	51.4753
 1.3340	51.4928
 1.3330	51.5537
 1.3320	51.4076
 1.3310	51.4493
 1.3300	51.4110
 1.3290	51.4233
 1.3280	51.4455
 1.3270	51.4987
 1.3260	51.4775
 1.3250	51.4778
 1.3240	51.4693
 1.3230	51.4925
 1.3220	51.4123
 1.3210	51.4597
 1.3200	51.4224
 1.3190	51.5053
 1.3180	51.5262
 1.3170	51.4917
 1.3160	51.4814
 1.3150	51.4538
 1.3140	51.4456
 1.3130	51.4980
 1.3120	51.5096
 1.3110	51.5391
 1.3100	51.4791
 1.3090	51.5304
 1.3080	51.4220
 1.3070	51.4422
 1.3060	51.4523
 1.3050	51.4849
 1.3040	51.5055
 1.3030	51.5080
 1.3020	51.3960
 1.3010	51.5158
 1.3000	51.5320
 1.2990	51.5333
 1.2980	51.4933
 1.2970	51.5009
 1.2960	51.5173
 1.2950	51.5127
 1.2940	51.4331
 1.2930	51.4819
 1.2920	51.5387
 1.2910	51.5145
 1.2900	51.4539
 1.2890	51.5080
 1.2880	51.4641
 1.2870	51.5162
 1.2860	51.5197
 1.2850	51.5047
 1.2840	51.4810
 1.2830	51.4978
 1.2820	51.4294
 1.2810	51.5413
 1.2800	51.4923
 1.2790	51.4930
 1.2780	51.4572
 1.2770	51.4942
 1.2760	51.5087
 1.2750	51.5089
 1.2740	51.4865
 1.2730	51.4642
 1.2720	51.4920
 1.2710	51.5269
 1.2700	51.4524
 1.2690	51.4926
 1.2680	51.4580
 1.2670	51.5132
 1.2660	51.4777
 1.2650	51.4790
 1.2640	51.5123
 1.2630	51.5194
 1.2620	51.4650
 1.2610	51.5049
 1.2600	51.5174
 1.2590	51.5386
 1.2580	51.4565
 1.2570	51.5065
 1.2560	51.4886
 1.2550	51.4922
 1.2540	51.4632
 1.2530	51.5086
 1.2520	51.4859
 1.2510	51.4548
 1.2500	51.4464
 1.2490	51.4798
 1.2480	51.4546
 1.2470	51.4883
 1.2460	51.4795
 1.2450	51.4864
 1.2440	51.4627
 1.2430	51.4789
 1.2420	51.4720
 1.2410	51.5106
 1.2400	51.5254
 1.2390	51.5013
 1.2380	51.4544
 1.2370	51.5131
 1.2360	51.4844
 1.2350	51.5149
 1.2340	51.5182
 1.2330	51.5209
 1.2320	51.5154
 1.2310	51.4793
 1.2300	51.4920
 1.2290	51.4846
 1.2280	51.4974
 1.2270	51.5397
 1.2260	51.5086
 1.2250	51.5111
 1.2240	51.5113
 1.2230	51.5114
 1.2220	51.4841
 1.2210	51.4639
 1.2200	51.5125
 1.2190	51.5791
 1.2180	51.5459
 1.2170	51.5047
 1.2160	51.5234
 1.2150	51.5023
 1.2140	51.4596
 1.2130	51.4986
 1.2120	51.4954
 1.2110	51.4497
 1.2100	51.4783
 1.2090	51.4637
 1.2080	51.4812
 1.2070	51.5062
 1.2060	51.4723
 1.2050	51.5078
 1.2040	51.5466
 1.2030	51.4954
 1.2020	51.5105
 1.2010	51.5429
 1.2000	51.5330
 1.1990	51.5034
 1.1980	51.4658
 1.1970	51.4538
 1.1960	51.5062
 1.1950	51.4747
 1.1940	51.4499
 1.1930	51.4886
 1.1920	51.4912
 1.1910	51.4504
 1.1900	51.4803
 1.1890	51.5201
 1.1880	51.4890
 1.1870	51.5451
 1.1860	51.5358
 1.1850	51.4829
 1.1840	51.4774
 1.1830	51.4746
 1.1820	51.4700
 1.1810	51.5075
 1.1800	51.5249
 1.1790	51.5014
 1.1780	51.5064
 1.1770	51.4537
 1.1760	51.4971
 1.1750	51.4924
 1.1740	51.5154
 1.1730	51.4763
 1.1720	51.4769
 1.1710	51.4820
 1.1700	51.4961
 1.1690	51.4712
 1.1680	51.5256
 1.1670	51.5310
 1.1660	51.4864
 1.1650	51.4899
 1.1640	51.4872
 1.1630	51.5034
 1.1620	51.4845
 1.1610	51.4526
 1.1600	51.4547
 1.1590	51.4446
 1.1580	51.5377
 1.1570	51.5413
 1.1560	51.5501
 1.1550	51.4478
 1.1540	51.4912
 1.1530	51.4639
 1.1520	51.4488
 1.1510	51.5351
 1.1500	51.5312
 1.1490	51.4265
 1.1480	51.5361
 1.1470	51.4607
 1.1460	51.4785
 1.1450	51.5230
 1.1440	51.5280
 1.1430	51.4781
 1.1420	51.5307
 1.1410	51.5158
 1.1400	51.5991
 1.1390	51.5080
 1.1380	51.5055
 1.1370	51.5210
 1.1360	51.5527
 1.1350	51.4937
 1.1340	51.4654
 1.1330	51.4522
 1.1320	51.5414
 1.1310	51.5470
 1.1300	51.5003
 1.1290	51.4408
 1.1280	51.5740
 1.1270	51.4298
 1.1260	51.5165
 1.1250	51.4811
 1.1240	51.5026
 1.1230	51.4654
 1.1220	51.4925
 1.1210	51.4349
 1.1200	51.4892
 1.1190	51.4931
 1.1180	51.5249
 1.1170	51.4999
 1.1160	51.5070
 1.1150	51.4268
 1.1140	51.5213
 1.1130	51.4416
 1.1120	51.5343
 1.1110	51.5248
 1.1100	51.5439
 1.1090	51.4615
 1.1080	51.5214
 1.1070	51.5016
 1.1060	51.5169
 1.1050	51.4935
 1.1040	51.5224
 1.1030	51.4448
 1.1020	51.5215
 1.1010	51.4493
 1.1000	51.4718
 1.0990	51.4865
 1.0980	51.4810
 1.0970	51.4268
 1.0960	51.4764
 1.0950	51.4334
 1.0940	51.4495
 1.0930	51.4499
 1.0920	51.4208
 1.0910	51.4472
 1.0900	51.5152
 1.0890	51.4251
 1.0880	51.4232
 1.0870	51.3887
 1.0860	51.4591
 1.0850	51.4220
 1.0840	51.5279
 1.0830	51.4182
 1.0820	51.4357
 1.0810	51.4634
 1.0800	51.4907
 1.0790	51.4647
 1.0780	51.5028
 1.0770	51.3556
 1.0760	51.4975
 1.0750	51.4833
 1.0740	51.5434
 1.0730	51.3686
 1.0720	51.4776
 1.0710	51.4923
 1.0700	51.3284
 1.0690	51.3885
 1.0680	51.4659
 1.0670	51.4594
 1.0660	51.3697
 1.0650	51.3813
 1.0640	51.3923
 1.0630	51.3989
 1.0620	51.3876
 1.0610	51.4078
 1.0600	51.4374
 1.0590	51.5493
 1.0580	51.4402
 1.0570	51.4116
 1.0560	51.4378
 1.0550	51.4114
 1.0540	51.4106
 1.0530	51.4423
 1.0520	51.4213
 1.0510	51.4564
 1.0500	51.4935
 1.0490	51.4084
 1.0480	51.3762
 1.0470	51.3775
 1.0460	51.4317
 1.0450	51.4322
 1.0440	51.3826
 1.0430	51.3492
 1.0420	51.4091
 1.0410	51.4431
 1.0400	51.3975
 1.0390	51.3468
 1.0380	51.3303
 1.0370	51.3372
 1.0360	51.4119
 1.0350	51.3365
 1.0340	51.4299
 1.0330	51.4031
 1.0320	51.3930
 1.0310	51.3161
 1.0300	51.3821
 1.0290	51.3181
 1.0280	51.3765
 1.0270	51.3651
 1.0260	51.3456
 1.0250	51.3385
 1.0240	51.4584
 1.0230	51.3226
 1.0220	51.4310
 1.0210	51.3392
 1.0200	51.3834
 1.0190	51.3220
 1.0180	51.4026
 1.0170	51.3491
 1.0160	51.3865
 1.0150	51.3457
 1.0140	51.2940
 1.0130	51.3044
 1.0120	51.3545
 1.0110	51.3118
 1.0100	51.3417
 1.0090	51.3614
 1.0080	51.2970
 1.0070	51.3026
 1.0060	51.3472
 1.0050	51.3172
 1.0040	51.3241
 1.0030	51.1894
 1.0020	51.2999
 1.0010	51.2746
 1.0000	51.3159
 0.9990	51.2974
 0.9980	51.2357
 0.9970	51.2611
 0.9960	51.2911
 0.9950	51.2418
 0.9940	51.2619
 0.9930	51.2531
 0.9920	51.2730
 0.9910	51.2689
 0.9900	51.2889
 0.9890	51.2110
 0.9880	51.1949
 0.9870	51.1989
 0.9860	51.2440
 0.9850	51.2134
 0.9840	51.1991
 0.9830	51.1668
 0.9820	51.2317
 0.9810	51.1707
 0.9800	51.2020
 0.9790	51.2166
 0.9780	51.2203
 0.9770	51.1846
 0.9760	51.1247
 0.9750	51.1353
 0.9740	51.1690
 0.9730	51.1461
 0.9720	51.1939
 0.9710	51.1752
 0.9700	51.0809
 0.9690	51.0808
 0.9680	51.1175
 0.9670	51.0938
 0.9660	51.1180
 0.9650	51.0582
 0.9640	51.0544
 0.9630	51.0655
 0.9620	51.0503
 0.9610	51.0800
 0.9600	51.0882
 0.9590	51.0838
 0.9580	51.1018
 0.9570	51.0520
 0.9560	51.0368
 0.9550	50.9885
 0.9540	51.0225
 0.9530	50.9863
 0.9520	50.9796
 0.9510	50.9586
 0.9500	51.0135
 0.9490	51.0324
 0.9480	50.9891
 0.9470	50.9449
 0.9460	50.9733
 0.9450	50.9697
 0.9440	50.9601
 0.9430	50.9177
 0.9420	50.9005
 0.9410	50.8611
 0.9400	50.8755
 0.9390	50.9379
 0.9380	50.8668
 0.9370	50.8118
 0.9360	50.8159
 0.9350	50.8730
 0.9340	50.9068
 0.9330	50.8239
 0.9320	50.7762
 0.9310	50.7352
 0.9300	50.7777
 0.9290	50.8194
 0.9280	50.7605
 0.9270	50.7086
 0.9260	50.7219
 0.9250	50.7008
 0.9240	50.6689
 0.9230	50.6773
 0.9220	50.6364
 0.9210	50.6482
 0.9200	50.6267
 0.9190	50.6091
 0.9180	50.5703
 0.9170	50.4851
 0.9160	50.5355
 0.9150	50.5758
 0.9140	50.5075
 0.9130	50.4871
 0.9120	50.4547
 0.9110	50.4690
 0.9100	50.4884
 0.9090	50.4800
 0.9080	50.4180
 0.9070	50.3787
 0.9060	50.4246
 0.9050	50.4433
 0.9040	50.3194
 0.9030	50.3009
 0.9020	50.3254
 0.9010	50.2902
 0.9000	50.2779
 0.8990	50.2610
 0.8980	50.2354
 0.8970	50.2674
 0.8960	50.2297
 0.8950	50.1927
 0.8940	50.1270
 0.8930	50.1553
 0.8920	50.1591
 0.8910	50.1153
 0.8900	50.0902
 0.8890	50.1285
 0.8880	50.0491
 0.8870	50.0018
 0.8860	50.0050
 0.8850	49.9533
 0.8840	49.9552
 0.8830	49.9539
 0.8820	49.8956
 0.8810	49.9274
 0.8800	49.8988
 0.8790	49.8717
 0.8780	49.8706
 0.8770	49.8602
 0.8760	49.7050
 0.8750	49.7749
 0.8740	49.7441
 0.8730	49.6984
 0.8720	49.7075
 0.8710	49.7044
 0.8700	49.6180
 0.8690	49.6214
 0.8680	49.5231
 0.8670	49.5050
 0.8660	49.5007
 0.8650	49.5023
 0.8640	49.4536
 0.8630	49.5047
 0.8620	49.4549
 0.8610	49.4178
 0.8600	49.3512
 0.8590	49.2531
 0.8580	49.2396
 0.8570	49.1302
 0.8560	49.1282
 0.8550	49.1416
 0.8540	49.1231
 0.8530	49.1357
 0.8520	49.1153
 0.8510	49.0568
 0.8500	49.0800
 0.8490	49.0899
 0.8480	49.0317
 0.8470	49.0107
 0.8460	49.0162
 0.8450	48.9643
 0.8440	48.9993
 0.8430	48.9870
 0.8420	48.9127
 0.8410	48.9348
 0.8400	48.9230
 0.8390	48.8454
 0.8380	48.8835
 0.8370	48.8731
 0.8360	48.8435
 0.8350	48.8549
 0.8340	48.8376
 0.8330	48.8141
 0.8320	48.7813
 0.8310	48.7667
 0.8300	48.7504
 0.8290	48.7355
 0.8280	48.7331
 0.8270	48.6582
 0.8260	48.6478
 0.8250	48.6525
 0.8240	48.6444
 0.8230	48.5921
 0.8220	48.5974
 0.8210	48.5705
 0.8200	48.5429
 0.8190	48.5395
 0.8180	48.5090
 0.8170	48.4611
 0.8160	48.4709
 0.8150	48.4815
 0.8140	48.3791
 0.8130	48.4466
 0.8120	48.4315
 0.8110	48.3717
 0.8100	48.3839
 0.8090	48.3663
 0.8080	48.3170
 0.8070	48.2980
 0.8060	48.2810
 0.8050	48.2130
 0.8040	48.2572
 0.8030	48.1980
 0.8020	48.1647
 0.8010	48.1819
 0.8000	48.1794
 0.7990	48.0924
 0.7980	48.0876
 0.7970	48.0963
 0.7960	47.9951
 0.7950	48.0049
 0.7940	47.9607
 0.7930	47.9041
 0.7920	47.9370
 0.7910	47.8702
 0.7900	47.8379
 0.7890	47.8349
 0.7880	47.8370
 0.7870	47.7691
 0.7860	47.7791
 0.7850	47.7402
 0.7840	47.6746
 0.7830	47.6775
 0.7820	47.6598
 0.7810	47.6146
 0.7800	47.5797
 0.7790	47.5751
 0.7780	47.5237
 0.7770	47.5163
 0.7760	47.4817
 0.7750	47.4206
 0.7740	47.4149
 0.7730	47.3705
 0.7720	47.3258
 0.7710	47.3201
 0.7700	47.3132
 0.7690	47.2627
 0.7680	47.2242
 0.7670	47.2004
 0.7660	47.1699
 0.7650	47.1392
 0.7640	47.1168
 0.7630	47.0690
 0.7620	47.0227
 0.7610	47.0122
 0.7600	46.9683
 0.7590	46.9031
 0.7580	46.8649
 0.7570	46.8489
 0.7560	46.8064
 0.7550	46.7686
 0.7540	46.7294
 0.7530	46.6754
 0.7520	46.6430
 0.7510	46.6036
 0.7500	46.5528
 0.7490	46.5091
 0.7480	46.4738
 0.7470	46.4034
 0.7460	46.3574
 0.7450	46.3187
 0.7440	46.2592
 0.7430	46.2024
 0.7420	46.1835
 0.7410	46.1066
 0.7400	46.0350
 0.7390	45.9910
 0.7380	45.9231
 0.7370	45.8618
 0.7360	45.7984
 0.7350	45.7477
 0.7340	45.6653
 0.7330	45.6155
 0.7320	45.5455
 0.7310	45.4692
 0.7300	45.3894
 0.7290	45.3452
 0.7280	45.2470
 0.7270	45.1839
 0.7260	45.1261
 0.7250	45.0445
 0.7240	44.9756
 0.7230	44.9016
 0.7220	44.8073
 0.7210	44.7364
 0.7200	44.6560
 0.7190	44.5671
 0.7180	44.4825
 0.7170	44.4194
 0.7160	44.3179
 0.7150	44.2286
 0.7140	44.1603
 0.7130	44.0585
 0.7120	43.9934
 0.7110	43.9084
 0.7100	43.8372
 0.7090	43.7383
 0.7080	43.6514
 0.7070	43.5690
 0.7060	43.4724
 0.7050	43.3886
 0.7040	43.3140
 0.7030	43.2118
 0.7020	43.1350
 0.7010	43.0471
 0.7000	42.9643
 0.6990	42.8984
 0.6980	42.8233
 0.6970	42.7291
 0.6960	42.6523
 0.6950	42.5996
 0.6940	42.5292
 0.6930	42.4415
 0.6920	42.3724
 0.6910	42.3105
 0.6900	42.2324
 0.6890	42.1618
 0.6880	42.0912
 0.6870	42.0249
 0.6860	41.9684
 0.6850	41.9005
 0.6840	41.8328
 0.6830	41.7675
 0.6820	41.7061
 0.6810	41.6400
 0.6800	41.5784
 0.6790	41.5073
 0.6780	41.4489
 0.6770	41.3884
 0.6760	41.3341
 0.6750	41.2628
 0.6740	41.1949
 0.6730	41.1451
 0.6720	41.0818
 0.6710	41.0268
 0.6700	40.9768
 0.6690	40.9110
 0.6680	40.8459
 0.6670	40.7956
 0.6660	40.7399
 0.6650	40.6706
 0.6640	40.6050
 0.6630	40.5443
 0.6620	40.4858
 0.6610	40.4296
 0.6600	40.3659
 0.6590	40.3099
 0.6580	40.2523
 0.6570	40.1910
 0.6560	40.1267
 0.6550	40.0618
 0.6540	40.0066
 0.6530	39.9520
 0.6520	39.8949
 0.6510	39.8394
 0.6500	39.7810
 0.6490	39.7188
 0.6480	39.6566
 0.6470	39.5970
 0.6460	39.5506
 0.6450	39.4981
 0.6440	39.4382
 0.6430	39.3964
 0.6420	39.3359
 0.6410	39.2772
 0.6400	39.2337
 0.6390	39.1867
 0.6380	39.1449
 0.6370	39.1117
 0.6360	39.0753
 0.6350	39.0331
 0.6340	38.9850
 0.6330	38.9475
 0.6320	38.9177
 0.6310	38.8787
 0.6300	38.8417
 0.6290	38.8069
 0.6280	38.7764
 0.6270	38.7484
 0.6260	38.7148
 0.6250	38.6861
 0.6240	38.6655
 0.6230	38.6372
 0.6220	38.6043
 0.6210	38.5730
 0.6200	38.5401
 0.6190	38.5150
 0.6180	38.4841
 0.6170	38.4477
 0.6160	38.4211
 0.6150	38.3825
 0.6140	38.3494
 0.6130	38.3181
 0.6120	38.2829
 0.6110	38.2431
 0.6100	38.1986
 0.6090	38.1519
 0.6080	38.0998
 0.6070	38.0547
 0.6060	38.0045
 0.6050	37.9494
 0.6040	37.8979
 0.6030	37.8412
 0.6020	37.7751
 0.6010	37.7126
 0.6000	37.6496
 0.5990	37.5948
 0.5980	37.5376
 0.5970	37.4907
 0.5960	37.4366
 0.5950	37.3829
 0.5940	37.3177
 0.5930	37.2549
 0.5920	37.1886
 0.5910	37.1231
 0.5900	37.0489
 0.5890	36.9774
 0.5880	36.9075
 0.5870	36.8292
 0.5860	36.7604
 0.5850	36.6805
 0.5840	36.6030
 0.5830	36.5241
 0.5820	36.4416
 0.5810	36.3599
 0.5800	36.2788
 0.5790	36.2008
 0.5780	36.1227
 0.5770	36.0403
 0.5760	35.9565
 0.5750	35.8681
 0.5740	35.7758
 0.5730	35.6998
 0.5720	35.6114
 0.5710	35.5271
 0.5700	35.4473
 0.5690	35.3470
 0.5680	35.2622
 0.5670	35.1826
 0.5660	35.1121
 0.5650	35.0239
 0.5640	34.9321
 0.5630	34.8293
 0.5620	34.7357
 0.5610	34.6169
 0.5600	34.4917
 0.5590	34.3822
 0.5580	34.2779
 0.5570	34.1629
 0.5560	34.0509
 0.5550	33.9372
 0.5540	33.8144
 0.5530	33.6962
 0.5520	33.5843
 0.5510	33.4581
 0.5500	33.3368
 0.5490	33.2115
 0.5480	33.0960
 0.5470	32.9731
 0.5460	32.8524
 0.5450	32.7261
 0.5440	32.6097
 0.5430	32.4819
 0.5420	32.3615
 0.5410	32.2375
 0.5400	32.1299
 0.5390	32.0296
 0.5380	31.9060
 0.5370	31.7815
 0.5360	31.6570
 0.5350	31.5282
 0.5340	31.4011
 0.5330	31.2671
 0.5320	31.1283
 0.5310	31.0004
 0.5300	30.8600
 0.5290	30.7172
 0.5280	30.5871
 0.5270	30.4534
 0.5260	30.3231
 0.5250	30.1863
 0.5240	30.0476
 0.5230	29.9175
 0.5220	29.7776
 0.5210	29.6434
 0.5200	29.5109
 0.5190	29.3748
 0.5180	29.2397
 0.5170	29.1019
 0.5160	28.9556
 0.5150	28.8218
 0.5140	28.6853
 0.5130	28.5450
 0.5120	28.4044
 0.5110	28.2542
 0.5100	28.1077
 0.5090	27.9602
 0.5080	27.8087
 0.5070	27.6551
 0.5060	27.5102
 0.5050	27.3701
 0.5040	27.1994
 0.5030	27.0463
 0.5020	26.8976
 0.5010	26.7446
 0.5000	26.5954
 0.4990	26.4576
 0.4980	26.3150
 0.4970	26.1862
 0.4960	26.0522
 0.4950	25.9254
 0.4940	25.8003
 0.4930	25.6796
 0.4920	25.5621
 0.4910	25.4419
 0.4900	25.3468
 0.4890	25.2264
 0.4880	25.1123
 0.4870	25.0055
 0.4860	24.8865
 0.4850	24.7685
 0.4840	24.6489
 0.4830	24.5298
 0.4820	24.4100
 0.4810	24.2897
 0.4800	24.1634
 0.4790	24.0351
 0.4780	23.8968
 0.4770	23.7545
 0.4760	23.6029
 0.4750	23.4510
 0.4740	23.2971
 0.4730	23.1440
 0.4720	22.9858
 0.4710	22.8384
 0.4700	22.7010
 0.4690	22.5596
 0.4680	22.4309
 0.4670	22.2941
 0.4660	22.1754
 0.4650	22.0685
 0.4640	21.9689
 0.4630	21.8669
 0.4620	21.7778
 0.4610	21.6774
 0.4600	21.5892
 0.4590	21.4973
 0.4580	21.3934
 0.4570	21.2868
 0.4560	21.1729
 0.4550	21.0564
 0.4540	20.9344
 0.4530	20.8008
 0.4520	20.6636
 0.4510	20.5377
 0.4500	20.3930
 0.4490	20.2422
 0.4480	20.1081
 0.4470	19.9566
 0.4460	19.8064
 0.4450	19.6619
 0.4440	19.5209
 0.4430	19.3807
 0.4420	19.2508
 0.4410	19.1247
 0.4400	19.0038
 0.4390	18.8889
 0.4380	18.7738
 0.4370	18.6589
 0.4360	18.5546
 0.4350	18.4448
 0.4340	18.3504
 0.4330	18.2695
 0.4320	18.1676
 0.4310	18.0684
 0.4300	17.9784
 0.4290	17.8830
 0.4280	17.7879
 0.4270	17.6917
 0.4260	17.6030
 0.4250	17.5068
 0.4240	17.4155
 0.4230	17.3193
 0.4220	17.2276
 0.4210	17.1280
 0.4200	17.0256
 0.4190	16.9079
 0.4180	16.7896
 0.4170	16.6739
 0.4160	16.5437
 0.4150	16.4059
 0.4140	16.2596
 0.4130	16.1146
 0.4120	15.9618
 0.4110	15.8003
 0.4100	15.6475
 0.4090	15.4803
 0.4080	15.3072
 0.4070	15.1388
 0.4060	14.9624
 0.4050	14.7810
 0.4040	14.6039
 0.4030	14.4248
 0.4020	14.2424
 0.4010	14.0652
 0.4000	13.8850
