Name: Cummingtonite (Mg,Fe^2+)_7Si_8O_22(OH)_2
Type: Mineral
Class: Silicate
Subclass: Inosilicate
Particle Size: Fine
Sample No.: IN-6A
Owner: JPL
Wavelength Range: VSWIR
Origin: USA, South Dakota.
Collection Date: N/A
Description: Particle size was 0-45um.Collected by:  Ward's Original ASTER Spectral Library name was jpl.perkin.mineral.silicate.inosilicate.fine.in06a.spectrum.txt
Measurement: Hemispherical reflectance
First Column: X
Second Column: Y
X Units: Wavelength (micrometers)
Y Units:Reflectance (percent)
First X Value:  2.5000
Last X Value:  0.4000
Number of X Values: 2101
Additional Information: mineral.silicate.inosilicate.fine.vswir.in-6a.jpl.perkin.ancillary.txt

 2.5000	16.8880
 2.4990	16.8294
 2.4980	16.8961
 2.4970	16.9914
 2.4960	16.5120
 2.4950	17.0225
 2.4940	16.7139
 2.4930	17.0121
 2.4920	16.8608
 2.4910	16.8828
 2.4900	16.7546
 2.4890	16.8483
 2.4880	16.7011
 2.4870	17.0710
 2.4860	16.8161
 2.4850	17.0195
 2.4840	16.8628
 2.4830	17.0838
 2.4820	16.8992
 2.4810	17.0715
 2.4800	16.8172
 2.4790	17.1594
 2.4780	16.6888
 2.4770	17.0750
 2.4760	16.9362
 2.4750	17.0252
 2.4740	17.0660
 2.4730	17.0292
 2.4720	17.0357
 2.4710	17.1916
 2.4700	17.0417
 2.4690	17.0899
 2.4680	17.0858
 2.4670	17.1472
 2.4660	17.0688
 2.4650	17.1238
 2.4640	17.0055
 2.4630	17.2318
 2.4620	17.0712
 2.4610	17.1692
 2.4600	17.0848
 2.4590	17.2626
 2.4580	17.1149
 2.4570	17.2478
 2.4560	17.1611
 2.4550	17.4112
 2.4540	17.1389
 2.4530	17.2507
 2.4520	17.1353
 2.4510	17.2816
 2.4500	17.1890
 2.4490	17.3541
 2.4480	17.3316
 2.4470	17.3343
 2.4460	17.2039
 2.4450	17.3846
 2.4440	17.2628
 2.4430	17.3689
 2.4420	17.1814
 2.4410	17.3682
 2.4400	17.2163
 2.4390	17.3320
 2.4380	17.3080
 2.4370	17.3351
 2.4360	17.2465
 2.4350	17.4295
 2.4340	17.3370
 2.4330	17.3314
 2.4320	17.2800
 2.4310	17.3187
 2.4300	17.3259
 2.4290	17.4055
 2.4280	17.3125
 2.4270	17.4545
 2.4260	17.3749
 2.4250	17.4610
 2.4240	17.3797
 2.4230	17.4617
 2.4220	17.4434
 2.4210	17.5233
 2.4200	17.4232
 2.4190	17.4446
 2.4180	17.4337
 2.4170	17.4459
 2.4160	17.4497
 2.4150	17.5000
 2.4140	17.4897
 2.4130	17.4864
 2.4120	17.4057
 2.4110	17.3882
 2.4100	17.4216
 2.4090	17.5099
 2.4080	17.4012
 2.4070	17.5032
 2.4060	17.4864
 2.4050	17.4971
 2.4040	17.4632
 2.4030	17.5267
 2.4020	17.5232
 2.4010	17.5614
 2.4000	17.5748
 2.3990	17.6119
 2.3980	17.5796
 2.3970	17.6206
 2.3960	17.5755
 2.3950	17.5840
 2.3940	17.6225
 2.3930	17.6158
 2.3920	17.5863
 2.3910	17.6728
 2.3900	17.6619
 2.3890	17.7114
 2.3880	17.7005
 2.3870	17.7007
 2.3860	17.7048
 2.3850	17.7481
 2.3840	17.7572
 2.3830	17.7893
 2.3820	17.7368
 2.3810	17.7438
 2.3800	17.7782
 2.3790	17.7964
 2.3780	17.7288
 2.3770	17.7996
 2.3760	17.7996
 2.3750	17.7907
 2.3740	17.7903
 2.3730	17.8524
 2.3720	17.8121
 2.3710	17.8247
 2.3700	17.8493
 2.3690	17.8603
 2.3680	17.8325
 2.3670	17.8252
 2.3660	17.8612
 2.3650	17.8763
 2.3640	17.8698
 2.3630	17.8579
 2.3620	17.8747
 2.3610	17.9329
 2.3600	17.8943
 2.3590	17.9168
 2.3580	17.9481
 2.3570	17.9159
 2.3560	17.8876
 2.3550	17.8918
 2.3540	17.9034
 2.3530	17.8989
 2.3520	17.8889
 2.3510	17.8935
 2.3500	17.9350
 2.3490	17.9664
 2.3480	17.9298
 2.3470	17.9133
 2.3460	17.8907
 2.3450	17.9171
 2.3440	17.9729
 2.3430	17.9395
 2.3420	17.9705
 2.3410	17.8954
 2.3400	17.8766
 2.3390	17.9361
 2.3380	17.9677
 2.3370	17.9328
 2.3360	17.9649
 2.3350	17.9378
 2.3340	17.9499
 2.3330	17.9012
 2.3320	17.9711
 2.3310	17.9374
 2.3300	17.9187
 2.3290	17.9505
 2.3280	17.9966
 2.3270	17.9800
 2.3260	17.9949
 2.3250	17.9852
 2.3240	18.0435
 2.3230	17.9926
 2.3220	18.0345
 2.3210	18.0543
 2.3200	18.0683
 2.3190	18.0221
 2.3180	18.0731
 2.3170	18.0756
 2.3160	18.1051
 2.3150	18.0685
 2.3140	18.1179
 2.3130	18.1471
 2.3120	18.2319
 2.3110	18.1503
 2.3100	18.2151
 2.3090	18.1391
 2.3080	18.2193
 2.3070	18.2000
 2.3060	18.2859
 2.3050	18.2361
 2.3040	18.3063
 2.3030	18.2641
 2.3020	18.2523
 2.3010	18.2726
 2.3000	18.3438
 2.2990	18.3525
 2.2980	18.4130
 2.2970	18.3805
 2.2960	18.3753
 2.2950	18.3942
 2.2940	18.4221
 2.2930	18.4357
 2.2920	18.4866
 2.2910	18.4531
 2.2900	18.4525
 2.2890	18.4986
 2.2880	18.5846
 2.2870	18.5003
 2.2860	18.5788
 2.2850	18.5612
 2.2840	18.6260
 2.2830	18.5158
 2.2820	18.5405
 2.2810	18.5667
 2.2800	18.5731
 2.2790	18.5014
 2.2780	18.5580
 2.2770	18.5967
 2.2760	18.6815
 2.2750	18.5737
 2.2740	18.7202
 2.2730	18.5718
 2.2720	18.6520
 2.2710	18.5938
 2.2700	18.6954
 2.2690	18.5774
 2.2680	18.6784
 2.2670	18.5981
 2.2660	18.6642
 2.2650	18.6427
 2.2640	18.7311
 2.2630	18.6682
 2.2620	18.7458
 2.2610	18.6528
 2.2600	18.7009
 2.2590	18.6562
 2.2580	18.7840
 2.2570	18.6809
 2.2560	18.7845
 2.2550	18.7232
 2.2540	18.8109
 2.2530	18.7608
 2.2520	18.8160
 2.2510	18.7661
 2.2500	18.7986
 2.2490	18.7789
 2.2480	18.8218
 2.2470	18.8580
 2.2460	18.8397
 2.2450	18.8111
 2.2440	18.9313
 2.2430	18.8680
 2.2420	18.9245
 2.2410	18.9106
 2.2400	18.9414
 2.2390	18.9112
 2.2380	18.9797
 2.2370	18.9211
 2.2360	19.0206
 2.2350	18.8867
 2.2340	19.0350
 2.2330	19.0327
 2.2320	19.0560
 2.2310	18.9949
 2.2300	19.0311
 2.2290	19.0518
 2.2280	19.1765
 2.2270	18.9970
 2.2260	19.0840
 2.2250	19.0690
 2.2240	19.2216
 2.2230	19.0786
 2.2220	19.1630
 2.2210	19.1088
 2.2200	19.1362
 2.2190	19.1467
 2.2180	19.1622
 2.2170	19.1207
 2.2160	19.1747
 2.2150	19.1952
 2.2140	19.2676
 2.2130	19.1750
 2.2120	19.3282
 2.2110	19.0702
 2.2100	19.3218
 2.2090	19.2843
 2.2080	19.3382
 2.2070	19.2686
 2.2060	19.3851
 2.2050	19.3171
 2.2040	19.3621
 2.2030	19.3050
 2.2020	19.3668
 2.2010	19.2999
 2.2000	19.4871
 2.1990	19.4021
 2.1980	19.4136
 2.1970	19.3438
 2.1960	19.4414
 2.1950	19.3736
 2.1940	19.4216
 2.1930	19.3670
 2.1920	19.5123
 2.1910	19.4067
 2.1900	19.4978
 2.1890	19.4293
 2.1880	19.5466
 2.1870	19.4296
 2.1860	19.5336
 2.1850	19.4276
 2.1840	19.5945
 2.1830	19.5223
 2.1820	19.6048
 2.1810	19.4947
 2.1800	19.6413
 2.1790	19.5177
 2.1780	19.5931
 2.1770	19.5993
 2.1760	19.6281
 2.1750	19.5689
 2.1740	19.7158
 2.1730	19.5908
 2.1720	19.6823
 2.1710	19.6022
 2.1700	19.7043
 2.1690	19.6180
 2.1680	19.7388
 2.1670	19.7145
 2.1660	19.7605
 2.1650	19.6792
 2.1640	19.7460
 2.1630	19.7194
 2.1620	19.7776
 2.1610	19.7604
 2.1600	19.8207
 2.1590	19.7649
 2.1580	19.8714
 2.1570	19.7862
 2.1560	19.8788
 2.1550	19.8427
 2.1540	19.8924
 2.1530	19.7988
 2.1520	19.9169
 2.1510	19.8277
 2.1500	19.9264
 2.1490	19.8690
 2.1480	19.9221
 2.1470	19.8824
 2.1460	19.9569
 2.1450	19.8528
 2.1440	19.9470
 2.1430	19.9397
 2.1420	19.9342
 2.1410	19.9125
 2.1400	19.9408
 2.1390	19.8829
 2.1380	19.9868
 2.1370	19.9543
 2.1360	19.9310
 2.1350	19.9259
 2.1340	19.9673
 2.1330	19.9155
 2.1320	20.0143
 2.1310	19.9340
 2.1300	19.9551
 2.1290	19.9671
 2.1280	19.9413
 2.1270	19.9358
 2.1260	20.0084
 2.1250	19.9085
 2.1240	19.9227
 2.1230	19.9217
 2.1220	19.9160
 2.1210	19.8679
 2.1200	19.8892
 2.1190	19.8796
 2.1180	19.9097
 2.1170	19.9074
 2.1160	19.8933
 2.1150	19.8410
 2.1140	19.8569
 2.1130	19.8115
 2.1120	19.8151
 2.1110	19.8044
 2.1100	19.8143
 2.1090	19.7227
 2.1080	19.7583
 2.1070	19.8031
 2.1060	19.7961
 2.1050	19.7777
 2.1040	19.8073
 2.1030	19.7633
 2.1020	19.7677
 2.1010	19.7150
 2.1000	19.7548
 2.0990	19.7301
 2.0980	19.7621
 2.0970	19.7890
 2.0960	19.8179
 2.0950	19.8364
 2.0940	19.8345
 2.0930	19.7729
 2.0920	19.8055
 2.0910	19.7781
 2.0900	19.8090
 2.0890	19.8084
 2.0880	19.8346
 2.0870	19.8393
 2.0860	19.8677
 2.0850	19.8661
 2.0840	19.9011
 2.0830	19.8459
 2.0820	19.8382
 2.0810	19.8207
 2.0800	19.8412
 2.0790	19.8774
 2.0780	19.9234
 2.0770	19.9179
 2.0760	19.8701
 2.0750	19.8639
 2.0740	19.8951
 2.0730	19.9141
 2.0720	19.9230
 2.0710	19.9158
 2.0700	19.9153
 2.0690	19.9166
 2.0680	19.9204
 2.0670	19.9414
 2.0660	19.9205
 2.0650	19.9334
 2.0640	19.9156
 2.0630	19.9385
 2.0620	19.9781
 2.0610	19.9721
 2.0600	19.9362
 2.0590	19.9686
 2.0580	20.0070
 2.0570	20.0059
 2.0560	19.9423
 2.0550	19.9634
 2.0540	20.0086
 2.0530	20.0551
 2.0520	20.0284
 2.0510	20.0315
 2.0500	20.0228
 2.0490	20.0534
 2.0480	20.0160
 2.0470	20.0152
 2.0460	20.0291
 2.0450	20.0561
 2.0440	20.0091
 2.0430	20.0515
 2.0420	20.0539
 2.0410	20.0529
 2.0400	20.0676
 2.0390	20.0912
 2.0380	20.0298
 2.0370	20.0932
 2.0360	20.1100
 2.0350	20.1170
 2.0340	20.0549
 2.0330	20.0930
 2.0320	20.0864
 2.0310	20.1176
 2.0300	20.1159
 2.0290	20.0836
 2.0280	20.0958
 2.0270	20.1003
 2.0260	20.0769
 2.0250	20.1349
 2.0240	20.1445
 2.0230	20.1457
 2.0220	20.0744
 2.0210	20.1309
 2.0200	20.1231
 2.0190	20.1439
 2.0180	20.1162
 2.0170	20.1572
 2.0160	20.1601
 2.0150	20.1754
 2.0140	20.0818
 2.0130	20.1714
 2.0120	20.1029
 2.0110	20.1306
 2.0100	20.0554
 2.0090	20.1409
 2.0080	20.1007
 2.0070	20.1667
 2.0060	20.1525
 2.0050	20.1413
 2.0040	20.1105
 2.0030	20.1624
 2.0020	20.1044
 2.0010	20.1091
 2.0000	20.1167
 1.9990	20.1711
 1.9980	20.1672
 1.9970	20.2448
 1.9960	20.1407
 1.9950	20.1453
 1.9940	20.2190
 1.9930	20.2422
 1.9920	20.1634
 1.9910	20.2454
 1.9900	20.1369
 1.9890	20.2230
 1.9880	20.1316
 1.9870	20.2369
 1.9860	20.1279
 1.9850	20.1678
 1.9840	20.1411
 1.9830	20.1816
 1.9820	20.1254
 1.9810	20.2074
 1.9800	20.0980
 1.9790	20.1713
 1.9780	20.1690
 1.9770	20.1926
 1.9760	20.1078
 1.9750	20.1792
 1.9740	20.1159
 1.9730	20.1586
 1.9720	20.1524
 1.9710	20.2459
 1.9700	20.1340
 1.9690	20.1654
 1.9680	20.1210
 1.9670	20.1605
 1.9660	20.1362
 1.9650	20.2333
 1.9640	20.1455
 1.9630	20.2984
 1.9620	20.1754
 1.9610	20.2656
 1.9600	20.1874
 1.9590	20.1597
 1.9580	20.1785
 1.9570	20.2088
 1.9560	20.1365
 1.9550	20.1960
 1.9540	20.1586
 1.9530	20.2974
 1.9520	20.1342
 1.9510	20.2531
 1.9500	20.1761
 1.9490	20.2407
 1.9480	20.1981
 1.9470	20.2911
 1.9460	20.1734
 1.9450	20.2286
 1.9440	20.1641
 1.9430	20.2524
 1.9420	20.1895
 1.9410	20.2355
 1.9400	20.2031
 1.9390	20.2818
 1.9380	20.1484
 1.9370	20.3060
 1.9360	20.2299
 1.9350	20.2613
 1.9340	20.2290
 1.9330	20.3064
 1.9320	20.2095
 1.9310	20.3131
 1.9300	20.2347
 1.9290	20.4100
 1.9280	20.2253
 1.9270	20.4630
 1.9260	20.0886
 1.9250	20.4306
 1.9240	20.2021
 1.9230	20.3613
 1.9220	20.2990
 1.9210	20.3288
 1.9200	20.2457
 1.9190	20.3352
 1.9180	20.3113
 1.9170	20.2820
 1.9160	20.2659
 1.9150	20.3554
 1.9140	20.3526
 1.9130	20.4183
 1.9120	20.2841
 1.9110	20.4508
 1.9100	20.2870
 1.9090	20.3718
 1.9080	20.3386
 1.9070	20.4304
 1.9060	20.3412
 1.9050	20.3422
 1.9040	20.3307
 1.9030	20.3763
 1.9020	20.3133
 1.9010	20.4202
 1.9000	20.2997
 1.8990	20.4492
 1.8980	20.3288
 1.8970	20.4026
 1.8960	20.3454
 1.8950	20.4603
 1.8940	20.3654
 1.8930	20.4424
 1.8920	20.3906
 1.8910	20.4371
 1.8900	20.3122
 1.8890	20.4004
 1.8880	20.4089
 1.8870	20.4718
 1.8860	20.4151
 1.8850	20.4560
 1.8840	20.3545
 1.8830	20.3903
 1.8820	20.3908
 1.8810	20.4490
 1.8800	20.3887
 1.8790	20.4902
 1.8780	20.4293
 1.8770	20.4622
 1.8760	20.3919
 1.8750	20.5192
 1.8740	20.3453
 1.8730	20.5266
 1.8720	20.4275
 1.8710	20.5235
 1.8700	20.4338
 1.8690	20.4576
 1.8680	20.4503
 1.8670	20.5129
 1.8660	20.4408
 1.8650	20.4408
 1.8640	20.4741
 1.8630	20.5033
 1.8620	20.4094
 1.8610	20.4817
 1.8600	20.3794
 1.8590	20.5268
 1.8580	20.4095
 1.8570	20.4603
 1.8560	20.4709
 1.8550	20.4802
 1.8540	20.4324
 1.8530	20.4610
 1.8520	20.4947
 1.8510	20.4901
 1.8500	20.4898
 1.8490	20.5231
 1.8480	20.4524
 1.8470	20.4696
 1.8460	20.4247
 1.8450	20.4830
 1.8440	20.4393
 1.8430	20.4928
 1.8420	20.4504
 1.8410	20.4993
 1.8400	20.4675
 1.8390	20.5065
 1.8380	20.4457
 1.8370	20.4522
 1.8360	20.4242
 1.8350	20.4434
 1.8340	20.4642
 1.8330	20.5209
 1.8320	20.4721
 1.8310	20.5377
 1.8300	20.4450
 1.8290	20.4530
 1.8280	20.4341
 1.8270	20.4576
 1.8260	20.3978
 1.8250	20.4585
 1.8240	20.4430
 1.8230	20.5160
 1.8220	20.5079
 1.8210	20.4394
 1.8200	20.4123
 1.8190	20.4828
 1.8180	20.4747
 1.8170	20.4451
 1.8160	20.3953
 1.8150	20.4415
 1.8140	20.4361
 1.8130	20.4195
 1.8120	20.4439
 1.8110	20.4787
 1.8100	20.4275
 1.8090	20.3927
 1.8080	20.4244
 1.8070	20.4456
 1.8060	20.3941
 1.8050	20.4270
 1.8040	20.4443
 1.8030	20.4692
 1.8020	20.4423
 1.8010	20.4511
 1.8000	20.4849
 1.7990	20.4859
 1.7980	20.4586
 1.7970	20.4552
 1.7960	20.4538
 1.7950	20.4651
 1.7940	20.4313
 1.7930	20.4474
 1.7920	20.4168
 1.7910	20.4305
 1.7900	20.4132
 1.7890	20.4032
 1.7880	20.4458
 1.7870	20.4322
 1.7860	20.4236
 1.7850	20.4624
 1.7840	20.4293
 1.7830	20.4289
 1.7820	20.4059
 1.7810	20.3617
 1.7800	20.4208
 1.7790	20.4524
 1.7780	20.3886
 1.7770	20.4027
 1.7760	20.4499
 1.7750	20.4364
 1.7740	20.4679
 1.7730	20.4093
 1.7720	20.4221
 1.7710	20.4278
 1.7700	20.4484
 1.7690	20.4129
 1.7680	20.4060
 1.7670	20.3831
 1.7660	20.4306
 1.7650	20.4071
 1.7640	20.3801
 1.7630	20.4363
 1.7620	20.4923
 1.7610	20.4470
 1.7600	20.4192
 1.7590	20.4154
 1.7580	20.4618
 1.7570	20.4096
 1.7560	20.4016
 1.7550	20.4137
 1.7540	20.4689
 1.7530	20.4765
 1.7520	20.4652
 1.7510	20.4270
 1.7500	20.4550
 1.7490	20.4532
 1.7480	20.4258
 1.7470	20.3992
 1.7460	20.4678
 1.7450	20.4201
 1.7440	20.3945
 1.7430	20.3934
 1.7420	20.3952
 1.7410	20.3811
 1.7400	20.4235
 1.7390	20.4345
 1.7380	20.4601
 1.7370	20.4094
 1.7360	20.3947
 1.7350	20.3894
 1.7340	20.4292
 1.7330	20.4043
 1.7320	20.4466
 1.7310	20.3534
 1.7300	20.4041
 1.7290	20.3458
 1.7280	20.4002
 1.7270	20.4309
 1.7260	20.4248
 1.7250	20.3701
 1.7240	20.4480
 1.7230	20.4117
 1.7220	20.4430
 1.7210	20.3919
 1.7200	20.4282
 1.7190	20.4173
 1.7180	20.4685
 1.7170	20.4127
 1.7160	20.4057
 1.7150	20.3458
 1.7140	20.3784
 1.7130	20.4194
 1.7120	20.3995
 1.7110	20.3577
 1.7100	20.4017
 1.7090	20.3810
 1.7080	20.4137
 1.7070	20.4004
 1.7060	20.3311
 1.7050	20.2930
 1.7040	20.3807
 1.7030	20.3658
 1.7020	20.3476
 1.7010	20.3320
 1.7000	20.3310
 1.6990	20.3339
 1.6980	20.4201
 1.6970	20.3346
 1.6960	20.3347
 1.6950	20.2971
 1.6940	20.3781
 1.6930	20.3214
 1.6920	20.3491
 1.6910	20.3191
 1.6900	20.3604
 1.6890	20.2752
 1.6880	20.3581
 1.6870	20.2756
 1.6860	20.3713
 1.6850	20.3304
 1.6840	20.4065
 1.6830	20.3063
 1.6820	20.2568
 1.6810	20.2436
 1.6800	20.3347
 1.6790	20.3582
 1.6780	20.2945
 1.6770	20.2688
 1.6760	20.4054
 1.6750	20.2836
 1.6740	20.3095
 1.6730	20.2633
 1.6720	20.2990
 1.6710	20.2457
 1.6700	20.3201
 1.6690	20.4634
 1.6680	20.1289
 1.6670	20.2506
 1.6660	20.3736
 1.6650	20.1896
 1.6640	20.3475
 1.6630	20.2245
 1.6620	20.3396
 1.6610	20.3057
 1.6600	20.2604
 1.6590	20.2427
 1.6580	20.3246
 1.6570	20.1039
 1.6560	20.2900
 1.6550	20.2518
 1.6540	20.2974
 1.6530	20.2284
 1.6520	20.3035
 1.6510	20.1917
 1.6500	20.3017
 1.6490	20.2355
 1.6480	20.2378
 1.6470	20.2806
 1.6460	20.2445
 1.6450	20.1903
 1.6440	20.2844
 1.6430	20.1819
 1.6420	20.3863
 1.6410	20.1235
 1.6400	20.3471
 1.6390	20.2244
 1.6380	20.2980
 1.6370	20.1955
 1.6360	20.3123
 1.6350	20.2256
 1.6340	20.2542
 1.6330	20.1914
 1.6320	20.2216
 1.6310	20.0806
 1.6300	20.2608
 1.6290	20.1698
 1.6280	20.1935
 1.6270	20.1704
 1.6260	20.2625
 1.6250	20.1978
 1.6240	20.1693
 1.6230	20.1824
 1.6220	20.3070
 1.6210	20.0977
 1.6200	20.2498
 1.6190	20.2180
 1.6180	20.2658
 1.6170	20.1855
 1.6160	20.2728
 1.6150	20.1766
 1.6140	20.2088
 1.6130	20.2206
 1.6120	20.2712
 1.6110	20.1594
 1.6100	20.2435
 1.6090	20.1407
 1.6080	20.2008
 1.6070	20.1499
 1.6060	20.2284
 1.6050	20.0805
 1.6040	20.2258
 1.6030	20.1549
 1.6020	20.1937
 1.6010	20.0866
 1.6000	20.1117
 1.5990	20.1439
 1.5980	20.2054
 1.5970	20.1757
 1.5960	20.1226
 1.5950	20.1391
 1.5940	20.1742
 1.5930	20.0811
 1.5920	20.1764
 1.5910	20.1265
 1.5900	20.1411
 1.5890	20.0963
 1.5880	20.1398
 1.5870	20.0555
 1.5860	20.1466
 1.5850	20.1163
 1.5840	20.1236
 1.5830	20.0340
 1.5820	20.1125
 1.5810	20.0531
 1.5800	20.1170
 1.5790	20.0191
 1.5780	20.1298
 1.5770	20.1338
 1.5760	20.0868
 1.5750	20.0377
 1.5740	20.1041
 1.5730	20.1033
 1.5720	20.0324
 1.5710	20.0576
 1.5700	20.0788
 1.5690	20.0363
 1.5680	20.0881
 1.5670	20.0924
 1.5660	20.0455
 1.5650	20.0096
 1.5640	20.0446
 1.5630	20.0599
 1.5620	20.0852
 1.5610	20.0350
 1.5600	20.1051
 1.5590	20.0509
 1.5580	20.0294
 1.5570	20.0463
 1.5560	20.0527
 1.5550	20.0249
 1.5540	20.0271
 1.5530	19.9918
 1.5520	19.9997
 1.5510	19.9535
 1.5500	20.0391
 1.5490	19.9862
 1.5480	20.0310
 1.5470	20.0206
 1.5460	20.0230
 1.5450	19.9617
 1.5440	20.0135
 1.5430	19.9650
 1.5420	19.9656
 1.5410	19.9501
 1.5400	19.9512
 1.5390	19.9483
 1.5380	20.0008
 1.5370	19.9598
 1.5360	19.9806
 1.5350	19.9430
 1.5340	19.9223
 1.5330	19.8978
 1.5320	19.9663
 1.5310	19.9519
 1.5300	19.9657
 1.5290	19.9657
 1.5280	19.9705
 1.5270	19.9190
 1.5260	19.9150
 1.5250	19.9083
 1.5240	19.8913
 1.5230	19.9130
 1.5220	19.9551
 1.5210	19.9396
 1.5200	19.8956
 1.5190	19.8598
 1.5180	19.8895
 1.5170	19.8791
 1.5160	19.8884
 1.5150	19.8913
 1.5140	19.8790
 1.5130	19.8765
 1.5120	19.8779
 1.5110	19.8168
 1.5100	19.8410
 1.5090	19.8376
 1.5080	19.8391
 1.5070	19.8284
 1.5060	19.8433
 1.5050	19.8725
 1.5040	19.8855
 1.5030	19.7895
 1.5020	19.7462
 1.5010	19.8221
 1.5000	19.8459
 1.4990	19.8209
 1.4980	19.7853
 1.4970	19.7873
 1.4960	19.7602
 1.4950	19.7469
 1.4940	19.7938
 1.4930	19.8331
 1.4920	19.7920
 1.4910	19.7708
 1.4900	19.7314
 1.4890	19.7330
 1.4880	19.7482
 1.4870	19.7324
 1.4860	19.7035
 1.4850	19.6898
 1.4840	19.7440
 1.4830	19.7623
 1.4820	19.7591
 1.4810	19.7307
 1.4800	19.6261
 1.4790	19.6440
 1.4780	19.6887
 1.4770	19.7102
 1.4760	19.7153
 1.4750	19.7089
 1.4740	19.6909
 1.4730	19.6944
 1.4720	19.6831
 1.4710	19.6819
 1.4700	19.6416
 1.4690	19.6747
 1.4680	19.6311
 1.4670	19.6286
 1.4660	19.6261
 1.4650	19.6213
 1.4640	19.6333
 1.4630	19.5940
 1.4620	19.5971
 1.4610	19.5841
 1.4600	19.5961
 1.4590	19.6325
 1.4580	19.5893
 1.4570	19.5819
 1.4560	19.5750
 1.4550	19.5809
 1.4540	19.4738
 1.4530	19.5795
 1.4520	19.5490
 1.4510	19.4771
 1.4500	19.4790
 1.4490	19.5290
 1.4480	19.5104
 1.4470	19.5521
 1.4460	19.4645
 1.4450	19.5028
 1.4440	19.4825
 1.4430	19.4865
 1.4420	19.4005
 1.4410	19.4577
 1.4400	19.4162
 1.4390	19.4119
 1.4380	19.4579
 1.4370	19.4857
 1.4360	19.3967
 1.4350	19.4367
 1.4340	19.3822
 1.4330	19.4306
 1.4320	19.3604
 1.4310	19.4245
 1.4300	19.4234
 1.4290	19.4107
 1.4280	19.3555
 1.4270	19.4077
 1.4260	19.3104
 1.4250	19.3517
 1.4240	19.3205
 1.4230	19.3435
 1.4220	19.3000
 1.4210	19.3740
 1.4200	19.2577
 1.4190	19.1905
 1.4180	19.0093
 1.4170	18.9980
 1.4160	18.9323
 1.4150	18.9529
 1.4140	18.9485
 1.4130	19.1492
 1.4120	19.1113
 1.4110	19.0636
 1.4100	18.9270
 1.4090	18.8769
 1.4080	18.7324
 1.4070	18.8083
 1.4060	18.9057
 1.4050	19.0581
 1.4040	19.0931
 1.4030	19.1147
 1.4020	19.0226
 1.4010	19.0390
 1.4000	18.9322
 1.3990	19.0880
 1.3980	19.0519
 1.3970	19.1348
 1.3960	19.2033
 1.3950	19.2103
 1.3940	19.0656
 1.3930	19.1450
 1.3920	19.1915
 1.3910	19.2371
 1.3900	19.1759
 1.3890	19.1898
 1.3880	19.1540
 1.3870	19.2001
 1.3860	19.0915
 1.3850	19.1327
 1.3840	19.0886
 1.3830	19.2144
 1.3820	19.0284
 1.3810	19.1451
 1.3800	18.9846
 1.3790	19.1278
 1.3780	19.0875
 1.3770	19.1711
 1.3760	19.0032
 1.3750	19.1149
 1.3740	18.9906
 1.3730	19.0733
 1.3720	18.9451
 1.3710	19.0366
 1.3700	18.9380
 1.3690	19.0169
 1.3680	18.9426
 1.3670	19.0072
 1.3660	18.9361
 1.3650	19.0702
 1.3640	18.9665
 1.3630	19.0232
 1.3620	18.8748
 1.3610	18.9420
 1.3600	18.8794
 1.3590	19.0690
 1.3580	18.8853
 1.3570	18.9370
 1.3560	18.8403
 1.3550	18.8763
 1.3540	18.8458
 1.3530	18.9484
 1.3520	18.8033
 1.3510	18.8955
 1.3500	18.7888
 1.3490	18.8039
 1.3480	18.7459
 1.3470	18.8524
 1.3460	18.7203
 1.3450	18.7733
 1.3440	18.6568
 1.3430	18.7700
 1.3420	18.6744
 1.3410	18.8065
 1.3400	18.6265
 1.3390	18.7877
 1.3380	18.7302
 1.3370	18.7574
 1.3360	18.6841
 1.3350	18.6639
 1.3340	18.6621
 1.3330	18.6986
 1.3320	18.5521
 1.3310	18.6930
 1.3300	18.5758
 1.3290	18.6625
 1.3280	18.5264
 1.3270	18.6242
 1.3260	18.5232
 1.3250	18.6709
 1.3240	18.4829
 1.3230	18.5928
 1.3220	18.5310
 1.3210	18.5619
 1.3200	18.4794
 1.3190	18.5308
 1.3180	18.4191
 1.3170	18.4626
 1.3160	18.5151
 1.3150	18.5143
 1.3140	18.4075
 1.3130	18.4730
 1.3120	18.4259
 1.3110	18.3968
 1.3100	18.3928
 1.3090	18.4676
 1.3080	18.3954
 1.3070	18.4059
 1.3060	18.3603
 1.3050	18.3997
 1.3040	18.3442
 1.3030	18.3708
 1.3020	18.3075
 1.3010	18.3404
 1.3000	18.2832
 1.2990	18.3930
 1.2980	18.2358
 1.2970	18.3434
 1.2960	18.2760
 1.2950	18.3361
 1.2940	18.2422
 1.2930	18.3063
 1.2920	18.2203
 1.2910	18.2701
 1.2900	18.2084
 1.2890	18.2429
 1.2880	18.1298
 1.2870	18.2323
 1.2860	18.1824
 1.2850	18.2692
 1.2840	18.1264
 1.2830	18.1863
 1.2820	18.1299
 1.2810	18.1487
 1.2800	18.1585
 1.2790	18.1358
 1.2780	18.0911
 1.2770	18.1190
 1.2760	18.1063
 1.2750	18.0994
 1.2740	18.0473
 1.2730	18.0951
 1.2720	18.0401
 1.2710	18.0158
 1.2700	17.9679
 1.2690	18.0445
 1.2680	17.9786
 1.2670	17.9610
 1.2660	18.0081
 1.2650	17.9955
 1.2640	17.9342
 1.2630	17.9929
 1.2620	17.9664
 1.2610	17.9120
 1.2600	17.8957
 1.2590	17.9450
 1.2580	17.8787
 1.2570	17.8821
 1.2560	17.8575
 1.2550	17.9387
 1.2540	17.8964
 1.2530	17.8635
 1.2520	17.8927
 1.2510	17.8418
 1.2500	17.7965
 1.2490	17.8598
 1.2480	17.7863
 1.2470	17.7628
 1.2460	17.7735
 1.2450	17.7703
 1.2440	17.7382
 1.2430	17.7633
 1.2420	17.7520
 1.2410	17.7049
 1.2400	17.6562
 1.2390	17.6933
 1.2380	17.6759
 1.2370	17.6714
 1.2360	17.7022
 1.2350	17.6848
 1.2340	17.6373
 1.2330	17.6562
 1.2320	17.6045
 1.2310	17.6119
 1.2300	17.6157
 1.2290	17.5986
 1.2280	17.5953
 1.2270	17.6132
 1.2260	17.5261
 1.2250	17.5412
 1.2240	17.5807
 1.2230	17.5937
 1.2220	17.5527
 1.2210	17.5515
 1.2200	17.5268
 1.2190	17.5091
 1.2180	17.4747
 1.2170	17.4695
 1.2160	17.5071
 1.2150	17.4596
 1.2140	17.4720
 1.2130	17.4503
 1.2120	17.4151
 1.2110	17.4246
 1.2100	17.4229
 1.2090	17.4170
 1.2080	17.4171
 1.2070	17.4131
 1.2060	17.3303
 1.2050	17.3521
 1.2040	17.4453
 1.2030	17.3911
 1.2020	17.3123
 1.2010	17.2929
 1.2000	17.3542
 1.1990	17.3274
 1.1980	17.3275
 1.1970	17.3455
 1.1960	17.3421
 1.1950	17.2767
 1.1940	17.2559
 1.1930	17.2718
 1.1920	17.2494
 1.1910	17.2489
 1.1900	17.2351
 1.1890	17.2774
 1.1880	17.2057
 1.1870	17.2247
 1.1860	17.2433
 1.1850	17.2135
 1.1840	17.2132
 1.1830	17.1423
 1.1820	17.1742
 1.1810	17.1715
 1.1800	17.2030
 1.1790	17.1769
 1.1780	17.2073
 1.1770	17.1245
 1.1760	17.1855
 1.1750	17.1613
 1.1740	17.1853
 1.1730	17.1047
 1.1720	17.1194
 1.1710	17.1063
 1.1700	17.0992
 1.1690	17.0898
 1.1680	17.1402
 1.1670	17.0586
 1.1660	17.1276
 1.1650	17.0626
 1.1640	17.1377
 1.1630	17.0102
 1.1620	17.1109
 1.1610	17.0477
 1.1600	17.0417
 1.1590	16.9979
 1.1580	17.0087
 1.1570	16.9613
 1.1560	17.0073
 1.1550	16.9326
 1.1540	17.0069
 1.1530	16.9442
 1.1520	16.9736
 1.1510	16.9453
 1.1500	16.9759
 1.1490	16.8906
 1.1480	16.9594
 1.1470	16.9233
 1.1460	16.8871
 1.1450	16.9001
 1.1440	16.9552
 1.1430	16.8675
 1.1420	16.9427
 1.1410	16.8728
 1.1400	16.8700
 1.1390	16.8506
 1.1380	16.8825
 1.1370	16.8693
 1.1360	16.9123
 1.1350	16.7897
 1.1340	16.8675
 1.1330	16.8080
 1.1320	16.8835
 1.1310	16.8095
 1.1300	16.8250
 1.1290	16.8001
 1.1280	16.8135
 1.1270	16.8020
 1.1260	16.8363
 1.1250	16.7649
 1.1240	16.8200
 1.1230	16.7088
 1.1220	16.8314
 1.1210	16.7711
 1.1200	16.7570
 1.1190	16.7033
 1.1180	16.7804
 1.1170	16.6393
 1.1160	16.6916
 1.1150	16.6561
 1.1140	16.6737
 1.1130	16.6227
 1.1120	16.6974
 1.1110	16.6524
 1.1100	16.6548
 1.1090	16.6093
 1.1080	16.5898
 1.1070	16.5138
 1.1060	16.6068
 1.1050	16.5517
 1.1040	16.5434
 1.1030	16.4369
 1.1020	16.5309
 1.1010	16.4520
 1.1000	16.5030
 1.0990	16.4110
 1.0980	16.4667
 1.0970	16.3155
 1.0960	16.3933
 1.0950	16.3090
 1.0940	16.3892
 1.0930	16.3095
 1.0920	16.3921
 1.0910	16.1252
 1.0900	16.2352
 1.0890	16.1829
 1.0880	16.1286
 1.0870	16.1276
 1.0860	16.1524
 1.0850	16.0672
 1.0840	16.0363
 1.0830	15.9748
 1.0820	16.0781
 1.0810	15.9604
 1.0800	15.8844
 1.0790	15.9027
 1.0780	15.8678
 1.0770	15.8742
 1.0760	15.8050
 1.0750	15.7532
 1.0740	15.7159
 1.0730	15.6084
 1.0720	15.7315
 1.0710	15.6963
 1.0700	15.4667
 1.0690	15.5670
 1.0680	15.4990
 1.0670	15.3731
 1.0660	15.4684
 1.0650	15.3295
 1.0640	15.3712
 1.0630	15.2138
 1.0620	15.2252
 1.0610	15.1267
 1.0600	15.1346
 1.0590	15.0249
 1.0580	15.0291
 1.0570	14.9811
 1.0560	14.9157
 1.0550	14.7512
 1.0540	14.8764
 1.0530	14.7121
 1.0520	14.7867
 1.0510	14.5221
 1.0500	14.5747
 1.0490	14.4841
 1.0480	14.5305
 1.0470	14.3383
 1.0460	14.2982
 1.0450	14.2109
 1.0440	14.3391
 1.0430	14.1252
 1.0420	14.1360
 1.0410	13.9509
 1.0400	14.1025
 1.0390	13.8695
 1.0380	13.9551
 1.0370	13.7004
 1.0360	13.7821
 1.0350	13.6250
 1.0340	13.7300
 1.0330	13.5274
 1.0320	13.6348
 1.0310	13.4175
 1.0300	13.4308
 1.0290	13.3159
 1.0280	13.3551
 1.0270	13.2260
 1.0260	13.1934
 1.0250	13.1682
 1.0240	13.0711
 1.0230	12.9651
 1.0220	12.9948
 1.0210	12.8590
 1.0200	12.9370
 1.0190	12.8242
 1.0180	12.8059
 1.0170	12.6826
 1.0160	12.7233
 1.0150	12.6077
 1.0140	12.6378
 1.0130	12.4881
 1.0120	12.5502
 1.0110	12.4692
 1.0100	12.4717
 1.0090	12.3748
 1.0080	12.3955
 1.0070	12.3073
 1.0060	12.3522
 1.0050	12.1929
 1.0040	12.3010
 1.0030	12.1712
 1.0020	12.1766
 1.0010	12.1513
 1.0000	12.1394
 0.9990	12.1326
 0.9980	12.1318
 0.9970	12.0110
 0.9960	12.0610
 0.9950	12.0163
 0.9940	12.0747
 0.9930	12.0116
 0.9920	11.9921
 0.9910	11.9033
 0.9900	11.9819
 0.9890	11.9158
 0.9880	12.0085
 0.9870	11.9517
 0.9860	11.9763
 0.9850	11.9591
 0.9840	11.9578
 0.9830	11.9253
 0.9820	11.9310
 0.9810	11.8688
 0.9800	11.9207
 0.9790	11.8758
 0.9780	11.9467
 0.9770	11.9055
 0.9760	11.9117
 0.9750	11.9235
 0.9740	11.9642
 0.9730	11.9311
 0.9720	11.9633
 0.9710	11.8799
 0.9700	11.9216
 0.9690	11.9279
 0.9680	11.9258
 0.9670	11.8921
 0.9660	11.9364
 0.9650	11.9656
 0.9640	11.9404
 0.9630	11.9328
 0.9620	12.0241
 0.9610	12.0134
 0.9600	12.0806
 0.9590	12.0273
 0.9580	12.0848
 0.9570	12.0662
 0.9560	12.1148
 0.9550	12.0918
 0.9540	12.1242
 0.9530	12.0893
 0.9520	12.1310
 0.9510	12.1271
 0.9500	12.2168
 0.9490	12.2211
 0.9480	12.1671
 0.9470	12.1589
 0.9460	12.2561
 0.9450	12.3399
 0.9440	12.3733
 0.9430	12.3232
 0.9420	12.3340
 0.9410	12.3574
 0.9400	12.4112
 0.9390	12.4474
 0.9380	12.4334
 0.9370	12.5072
 0.9360	12.5879
 0.9350	12.5258
 0.9340	12.5624
 0.9330	12.6176
 0.9320	12.6747
 0.9310	12.6915
 0.9300	12.6821
 0.9290	12.7053
 0.9280	12.7455
 0.9270	12.7989
 0.9260	12.8358
 0.9250	12.8410
 0.9240	12.8955
 0.9230	12.9436
 0.9220	12.9140
 0.9210	13.0143
 0.9200	13.0770
 0.9190	13.0967
 0.9180	13.1160
 0.9170	13.1611
 0.9160	13.1795
 0.9150	13.1798
 0.9140	13.1996
 0.9130	13.3018
 0.9120	13.3392
 0.9110	13.3514
 0.9100	13.3595
 0.9090	13.4253
 0.9080	13.4663
 0.9070	13.5298
 0.9060	13.5255
 0.9050	13.5739
 0.9040	13.6112
 0.9030	13.7008
 0.9020	13.7185
 0.9010	13.7461
 0.9000	13.7847
 0.8990	13.8291
 0.8980	13.8596
 0.8970	13.9182
 0.8960	13.9385
 0.8950	14.0162
 0.8940	14.0174
 0.8930	14.1171
 0.8920	14.1257
 0.8910	14.2067
 0.8900	14.1947
 0.8890	14.2974
 0.8880	14.2931
 0.8870	14.3746
 0.8860	14.3256
 0.8850	14.4081
 0.8840	14.4339
 0.8830	14.5083
 0.8820	14.5181
 0.8810	14.6258
 0.8800	14.6357
 0.8790	14.6613
 0.8780	14.6920
 0.8770	14.7930
 0.8760	14.8391
 0.8750	14.9266
 0.8740	14.8202
 0.8730	14.9643
 0.8720	14.9659
 0.8710	15.0425
 0.8700	15.0180
 0.8690	15.1584
 0.8680	15.1483
 0.8670	15.1735
 0.8660	15.2293
 0.8650	15.3278
 0.8640	15.2852
 0.8630	15.3989
 0.8620	15.4071
 0.8610	15.4570
 0.8600	15.8909
 0.8590	16.0252
 0.8580	16.0576
 0.8570	16.1020
 0.8560	16.1607
 0.8550	16.1967
 0.8540	16.2239
 0.8530	16.2593
 0.8520	16.2831
 0.8510	16.3343
 0.8500	16.3758
 0.8490	16.3910
 0.8480	16.4528
 0.8470	16.4857
 0.8460	16.5028
 0.8450	16.5305
 0.8440	16.5604
 0.8430	16.6031
 0.8420	16.6407
 0.8410	16.6795
 0.8400	16.7098
 0.8390	16.7283
 0.8380	16.7614
 0.8370	16.7937
 0.8360	16.8193
 0.8350	16.8547
 0.8340	16.8804
 0.8330	16.9151
 0.8320	16.9145
 0.8310	16.9609
 0.8300	16.9670
 0.8290	17.0105
 0.8280	17.0251
 0.8270	17.0555
 0.8260	17.0911
 0.8250	17.1018
 0.8240	17.1303
 0.8230	17.1318
 0.8220	17.1652
 0.8210	17.1808
 0.8200	17.1958
 0.8190	17.2078
 0.8180	17.2335
 0.8170	17.2382
 0.8160	17.2589
 0.8150	17.2805
 0.8140	17.2754
 0.8130	17.3113
 0.8120	17.3206
 0.8110	17.3311
 0.8100	17.3442
 0.8090	17.3637
 0.8080	17.3624
 0.8070	17.3718
 0.8060	17.3910
 0.8050	17.3982
 0.8040	17.4199
 0.8030	17.4203
 0.8020	17.4191
 0.8010	17.4372
 0.8000	17.4446
 0.7990	17.4452
 0.7980	17.4384
 0.7970	17.4417
 0.7960	17.4430
 0.7950	17.4430
 0.7940	17.4407
 0.7930	17.4541
 0.7920	17.4500
 0.7910	17.4468
 0.7900	17.4410
 0.7890	17.4416
 0.7880	17.4492
 0.7870	17.4453
 0.7860	17.4421
 0.7850	17.4456
 0.7840	17.4274
 0.7830	17.4390
 0.7820	17.4320
 0.7810	17.4316
 0.7800	17.4367
 0.7790	17.4339
 0.7780	17.4112
 0.7770	17.4143
 0.7760	17.4288
 0.7750	17.4156
 0.7740	17.4050
 0.7730	17.3895
 0.7720	17.3994
 0.7710	17.3954
 0.7700	17.3879
 0.7690	17.3776
 0.7680	17.3766
 0.7670	17.3657
 0.7660	17.3653
 0.7650	17.3618
 0.7640	17.3597
 0.7630	17.3514
 0.7620	17.3407
 0.7610	17.3415
 0.7600	17.3310
 0.7590	17.3257
 0.7580	17.3128
 0.7570	17.3152
 0.7560	17.3156
 0.7550	17.3078
 0.7540	17.3049
 0.7530	17.2922
 0.7520	17.2889
 0.7510	17.2763
 0.7500	17.2851
 0.7490	17.2851
 0.7480	17.2684
 0.7470	17.2721
 0.7460	17.2553
 0.7450	17.2492
 0.7440	17.2597
 0.7430	17.2462
 0.7420	17.2446
 0.7410	17.2416
 0.7400	17.2332
 0.7390	17.2270
 0.7380	17.2248
 0.7370	17.2186
 0.7360	17.2139
 0.7350	17.2129
 0.7340	17.2063
 0.7330	17.2033
 0.7320	17.1947
 0.7310	17.1974
 0.7300	17.1904
 0.7290	17.1959
 0.7280	17.1956
 0.7270	17.1973
 0.7260	17.1905
 0.7250	17.1975
 0.7240	17.1897
 0.7230	17.1916
 0.7220	17.1907
 0.7210	17.1876
 0.7200	17.1828
 0.7190	17.1830
 0.7180	17.1804
 0.7170	17.1760
 0.7160	17.1763
 0.7150	17.1844
 0.7140	17.1916
 0.7130	17.1820
 0.7120	17.1893
 0.7110	17.1891
 0.7100	17.1925
 0.7090	17.1958
 0.7080	17.1983
 0.7070	17.1984
 0.7060	17.2025
 0.7050	17.1995
 0.7040	17.2028
 0.7030	17.2074
 0.7020	17.2140
 0.7010	17.2179
 0.7000	17.2148
 0.6990	17.2219
 0.6980	17.2283
 0.6970	17.2271
 0.6960	17.2297
 0.6950	17.2326
 0.6940	17.2367
 0.6930	17.2403
 0.6920	17.2442
 0.6910	17.2530
 0.6900	17.2626
 0.6890	17.2588
 0.6880	17.2655
 0.6870	17.2721
 0.6860	17.2717
 0.6850	17.2803
 0.6840	17.2901
 0.6830	17.2927
 0.6820	17.2986
 0.6810	17.3086
 0.6800	17.3152
 0.6790	17.3198
 0.6780	17.3230
 0.6770	17.3312
 0.6760	17.3363
 0.6750	17.3431
 0.6740	17.3522
 0.6730	17.3620
 0.6720	17.3695
 0.6710	17.3735
 0.6700	17.3752
 0.6690	17.3847
 0.6680	17.4010
 0.6670	17.4054
 0.6660	17.4090
 0.6650	17.4191
 0.6640	17.4265
 0.6630	17.4288
 0.6620	17.4351
 0.6610	17.4434
 0.6600	17.4482
 0.6590	17.4545
 0.6580	17.4640
 0.6570	17.4720
 0.6560	17.4801
 0.6550	17.4860
 0.6540	17.4961
 0.6530	17.5066
 0.6520	17.5120
 0.6510	17.5188
 0.6500	17.5261
 0.6490	17.5357
 0.6480	17.5418
 0.6470	17.5506
 0.6460	17.5555
 0.6450	17.5614
 0.6440	17.5683
 0.6430	17.5736
 0.6420	17.5836
 0.6410	17.5939
 0.6400	17.6015
 0.6390	17.6077
 0.6380	17.6145
 0.6370	17.6184
 0.6360	17.6258
 0.6350	17.6332
 0.6340	17.6374
 0.6330	17.6471
 0.6320	17.6553
 0.6310	17.6569
 0.6300	17.6567
 0.6290	17.6548
 0.6280	17.6470
 0.6270	17.6457
 0.6260	17.6493
 0.6250	17.6603
 0.6240	17.6698
 0.6230	17.6717
 0.6220	17.6754
 0.6210	17.6818
 0.6200	17.6872
 0.6190	17.6928
 0.6180	17.7013
 0.6170	17.7051
 0.6160	17.7122
 0.6150	17.7166
 0.6140	17.7242
 0.6130	17.7306
 0.6120	17.7354
 0.6110	17.7418
 0.6100	17.7451
 0.6090	17.7481
 0.6080	17.7551
 0.6070	17.7600
 0.6060	17.7657
 0.6050	17.7683
 0.6040	17.7701
 0.6030	17.7765
 0.6020	17.7751
 0.6010	17.7836
 0.6000	17.7929
 0.5990	17.7961
 0.5980	17.8029
 0.5970	17.8115
 0.5960	17.8152
 0.5950	17.8198
 0.5940	17.8263
 0.5930	17.8267
 0.5920	17.8277
 0.5910	17.8268
 0.5900	17.8272
 0.5890	17.8259
 0.5880	17.8275
 0.5870	17.8265
 0.5860	17.8244
 0.5850	17.8232
 0.5840	17.8286
 0.5830	17.8275
 0.5820	17.8256
 0.5810	17.8204
 0.5800	17.8214
 0.5790	17.8164
 0.5780	17.8085
 0.5770	17.8072
 0.5760	17.7996
 0.5750	17.7980
 0.5740	17.7960
 0.5730	17.7866
 0.5720	17.7787
 0.5710	17.7714
 0.5700	17.7703
 0.5690	17.7613
 0.5680	17.7562
 0.5670	17.7429
 0.5660	17.7289
 0.5650	17.7184
 0.5640	17.7090
 0.5630	17.6956
 0.5620	17.6779
 0.5610	17.6538
 0.5600	17.6268
 0.5590	17.6065
 0.5580	17.5861
 0.5570	17.5611
 0.5560	17.5321
 0.5550	17.5106
 0.5540	17.4905
 0.5530	17.4730
 0.5520	17.4544
 0.5510	17.4437
 0.5500	17.4352
 0.5490	17.4256
 0.5480	17.4136
 0.5470	17.4097
 0.5460	17.4038
 0.5450	17.3971
 0.5440	17.3889
 0.5430	17.3785
 0.5420	17.3786
 0.5410	17.3780
 0.5400	17.3721
 0.5390	17.3585
 0.5380	17.3339
 0.5370	17.3146
 0.5360	17.2954
 0.5350	17.2710
 0.5340	17.2421
 0.5330	17.2148
 0.5320	17.1893
 0.5310	17.1667
 0.5300	17.1364
 0.5290	17.1072
 0.5280	17.0779
 0.5270	17.0461
 0.5260	17.0159
 0.5250	16.9869
 0.5240	16.9530
 0.5230	16.9255
 0.5220	16.8869
 0.5210	16.8437
 0.5200	16.8096
 0.5190	16.7585
 0.5180	16.7135
 0.5170	16.6620
 0.5160	16.6134
 0.5150	16.5588
 0.5140	16.4968
 0.5130	16.4495
 0.5120	16.3952
 0.5110	16.3474
 0.5100	16.3110
 0.5090	16.2736
 0.5080	16.2544
 0.5070	16.2369
 0.5060	16.2206
 0.5050	16.1981
 0.5040	16.1634
 0.5030	16.1371
 0.5020	16.1136
 0.5010	16.0719
 0.5000	16.0344
 0.4990	15.9978
 0.4980	15.9565
 0.4970	15.9095
 0.4960	15.8668
 0.4950	15.8219
 0.4940	15.7796
 0.4930	15.7334
 0.4920	15.6853
 0.4910	15.6516
 0.4900	15.6018
 0.4890	15.5604
 0.4880	15.5251
 0.4870	15.4856
 0.4860	15.4408
 0.4850	15.3979
 0.4840	15.3580
 0.4830	15.3038
 0.4820	15.2692
 0.4810	15.2242
 0.4800	15.1808
 0.4790	15.1420
 0.4780	15.1006
 0.4770	15.0741
 0.4760	15.0342
 0.4750	14.9928
 0.4740	14.9555
 0.4730	14.9313
 0.4720	14.8948
 0.4710	14.8682
 0.4700	14.8338
 0.4690	14.8052
 0.4680	14.7691
 0.4670	14.7355
 0.4660	14.7034
 0.4650	14.6613
 0.4640	14.6251
 0.4630	14.5884
 0.4620	14.5529
 0.4610	14.5176
 0.4600	14.4746
 0.4590	14.4358
 0.4580	14.3995
 0.4570	14.3607
 0.4560	14.3239
 0.4550	14.2813
 0.4540	14.2411
 0.4530	14.2013
 0.4520	14.1595
 0.4510	14.1153
 0.4500	14.0687
 0.4490	14.0243
 0.4480	13.9775
 0.4470	13.9286
 0.4460	13.8722
 0.4450	13.8251
 0.4440	13.7721
 0.4430	13.7127
 0.4420	13.6542
 0.4410	13.5960
 0.4400	13.5430
 0.4390	13.4839
 0.4380	13.4284
 0.4370	13.3669
 0.4360	13.3132
 0.4350	13.2560
 0.4340	13.2013
 0.4330	13.1434
 0.4320	13.0882
 0.4310	13.0359
 0.4300	12.9736
 0.4290	12.9193
 0.4280	12.8587
 0.4270	12.8039
 0.4260	12.7473
 0.4250	12.6892
 0.4240	12.6256
 0.4230	12.5605
 0.4220	12.5029
 0.4210	12.4483
 0.4200	12.3901
 0.4190	12.3390
 0.4180	12.2843
 0.4170	12.2383
 0.4160	12.1830
 0.4150	12.1293
 0.4140	12.0704
 0.4130	12.0235
 0.4120	11.9718
 0.4110	11.9192
 0.4100	11.8626
 0.4090	11.8077
 0.4080	11.7555
 0.4070	11.7039
 0.4060	11.6462
 0.4050	11.5885
 0.4040	11.5352
 0.4030	11.4757
 0.4020	11.4189
 0.4010	11.3553
 0.4000	11.2941
