Name: Chlorite
Type: Mineral
Class: Silicate
Subclass: Phyllosilicate
Particle Size: Medium
Sample No.: PS-12F
Owner: JPL
Wavelength Range: VSWIR
Origin: USA, New Mexico.
Collection Date: N/A
Description: Particle size was 45-125um.Collected by:  Ward's Original ASTER Spectral Library name was jpl.perkin.mineral.silicate.phyllosilicate.medium.ps12f.spectrum.txt
Measurement: Hemispherical reflectance
First Column: X
Second Column: Y
X Units: Wavelength (micrometers)
Y Units:Reflectance (percent)
First X Value:  2.5000
Last X Value:  0.4000
Number of X Values: 2101
Additional Information: mineral.silicate.phyllosilicate.medium.vswir.ps-12f.jpl.perkin.ancillary.txt

 2.5000	32.4054
 2.4990	32.3591
 2.4980	32.4089
 2.4970	32.4820
 2.4960	32.3147
 2.4950	32.6843
 2.4940	32.7560
 2.4930	32.6276
 2.4920	32.9545
 2.4910	32.7461
 2.4900	33.1334
 2.4890	33.1469
 2.4880	33.2892
 2.4870	33.2647
 2.4860	33.4554
 2.4850	33.3907
 2.4840	33.6208
 2.4830	33.6651
 2.4820	33.7011
 2.4810	33.8292
 2.4800	34.0820
 2.4790	34.0974
 2.4780	34.1738
 2.4770	34.2259
 2.4760	34.2881
 2.4750	34.4859
 2.4740	34.5391
 2.4730	34.7386
 2.4720	34.8917
 2.4710	34.8198
 2.4700	35.0898
 2.4690	35.1533
 2.4680	35.3344
 2.4670	35.2480
 2.4660	35.4835
 2.4650	35.5988
 2.4640	35.6289
 2.4630	35.7214
 2.4620	35.8838
 2.4610	35.8106
 2.4600	35.9749
 2.4590	36.0852
 2.4580	36.1767
 2.4570	36.1188
 2.4560	36.2929
 2.4550	36.2434
 2.4540	36.3117
 2.4530	36.4026
 2.4520	36.4966
 2.4510	36.5972
 2.4500	36.6022
 2.4490	36.6483
 2.4480	36.6872
 2.4470	36.7045
 2.4460	36.7622
 2.4450	36.7348
 2.4440	36.8232
 2.4430	36.7800
 2.4420	36.8666
 2.4410	36.8500
 2.4400	36.8979
 2.4390	36.8940
 2.4380	37.0181
 2.4370	36.8462
 2.4360	36.9187
 2.4350	36.8987
 2.4340	36.9657
 2.4330	36.9746
 2.4320	36.9994
 2.4310	36.8980
 2.4300	37.0765
 2.4290	36.9635
 2.4280	37.0849
 2.4270	37.0315
 2.4260	36.9163
 2.4250	36.9567
 2.4240	37.0662
 2.4230	37.0321
 2.4220	37.0251
 2.4210	37.0410
 2.4200	37.1239
 2.4190	37.0297
 2.4180	37.1269
 2.4170	37.0639
 2.4160	37.0649
 2.4150	37.0478
 2.4140	37.1035
 2.4130	37.0319
 2.4120	37.0438
 2.4110	37.0344
 2.4100	36.9847
 2.4090	36.9226
 2.4080	36.9868
 2.4070	36.8672
 2.4060	36.8901
 2.4050	36.8391
 2.4040	36.7832
 2.4030	36.7008
 2.4020	36.6526
 2.4010	36.4675
 2.4000	36.4182
 2.3990	36.3384
 2.3980	36.2937
 2.3970	36.1917
 2.3960	36.0332
 2.3950	35.8886
 2.3940	35.8157
 2.3930	35.6528
 2.3920	35.4974
 2.3910	35.2935
 2.3900	35.0882
 2.3890	34.9419
 2.3880	34.7678
 2.3870	34.5306
 2.3860	34.2835
 2.3850	34.0880
 2.3840	33.8532
 2.3830	33.6311
 2.3820	33.4462
 2.3810	33.1647
 2.3800	32.9096
 2.3790	32.6719
 2.3780	32.4338
 2.3770	32.2186
 2.3760	32.0591
 2.3750	31.8535
 2.3740	31.5650
 2.3730	31.3294
 2.3720	31.1132
 2.3710	30.9310
 2.3700	30.7579
 2.3690	30.5838
 2.3680	30.4724
 2.3670	30.3189
 2.3660	30.1994
 2.3650	30.0258
 2.3640	29.8918
 2.3630	29.7979
 2.3620	29.7107
 2.3610	29.6365
 2.3600	29.5964
 2.3590	29.5611
 2.3580	29.5287
 2.3570	29.4965
 2.3560	29.4823
 2.3550	29.4886
 2.3540	29.4951
 2.3530	29.5159
 2.3520	29.5918
 2.3510	29.6340
 2.3500	29.7146
 2.3490	29.8029
 2.3480	29.8311
 2.3470	29.9658
 2.3460	30.1030
 2.3450	30.2113
 2.3440	30.2837
 2.3430	30.4669
 2.3420	30.6194
 2.3410	30.7311
 2.3400	30.9053
 2.3390	31.0625
 2.3380	31.1700
 2.3370	31.3333
 2.3360	31.4701
 2.3350	31.6659
 2.3340	31.8298
 2.3330	31.9407
 2.3320	32.0964
 2.3310	32.2890
 2.3300	32.4026
 2.3290	32.5953
 2.3280	32.7650
 2.3270	32.8464
 2.3260	33.0013
 2.3250	33.1373
 2.3240	33.3036
 2.3230	33.4604
 2.3220	33.5610
 2.3210	33.7375
 2.3200	33.8489
 2.3190	33.9717
 2.3180	34.1505
 2.3170	34.3367
 2.3160	34.4728
 2.3150	34.5986
 2.3140	34.7059
 2.3130	34.7903
 2.3120	34.9029
 2.3110	35.1126
 2.3100	35.2326
 2.3090	35.3240
 2.3080	35.4932
 2.3070	35.5946
 2.3060	35.7218
 2.3050	35.8729
 2.3040	35.9238
 2.3030	36.0590
 2.3020	36.1206
 2.3010	36.2662
 2.3000	36.3289
 2.2990	36.3923
 2.2980	36.4449
 2.2970	36.5337
 2.2960	36.5981
 2.2950	36.6303
 2.2940	36.5917
 2.2930	36.6782
 2.2920	36.7388
 2.2910	36.7504
 2.2900	36.6885
 2.2890	36.6601
 2.2880	36.6165
 2.2870	36.6156
 2.2860	36.4948
 2.2850	36.4712
 2.2840	36.3946
 2.2830	36.3310
 2.2820	36.1264
 2.2810	36.0325
 2.2800	35.9256
 2.2790	35.7635
 2.2780	35.4731
 2.2770	35.3432
 2.2760	35.1264
 2.2750	34.9062
 2.2740	34.7111
 2.2730	34.4277
 2.2720	34.1731
 2.2710	33.9629
 2.2700	33.6059
 2.2690	33.3607
 2.2680	33.0494
 2.2670	32.8964
 2.2660	32.6243
 2.2650	32.5033
 2.2640	32.2963
 2.2630	32.0954
 2.2620	31.9298
 2.2610	31.9258
 2.2600	31.8959
 2.2590	31.8588
 2.2580	31.9118
 2.2570	32.1311
 2.2560	32.2169
 2.2550	32.3246
 2.2540	32.6854
 2.2530	33.0207
 2.2520	33.3143
 2.2510	33.7592
 2.2500	34.1279
 2.2490	34.6004
 2.2480	35.0703
 2.2470	35.6027
 2.2460	36.0499
 2.2450	36.6291
 2.2440	37.0188
 2.2430	37.6970
 2.2420	38.1429
 2.2410	38.7579
 2.2400	39.1820
 2.2390	39.6451
 2.2380	40.2637
 2.2370	40.6710
 2.2360	41.1439
 2.2350	41.4988
 2.2340	41.9053
 2.2330	42.2655
 2.2320	42.5240
 2.2310	42.9950
 2.2300	43.2375
 2.2290	43.5359
 2.2280	43.8369
 2.2270	44.1069
 2.2260	44.3240
 2.2250	44.5935
 2.2240	44.7784
 2.2230	45.0775
 2.2220	45.0917
 2.2210	45.3530
 2.2200	45.4877
 2.2190	45.7261
 2.2180	45.8617
 2.2170	45.9795
 2.2160	46.0373
 2.2150	46.3061
 2.2140	46.3298
 2.2130	46.4129
 2.2120	46.5718
 2.2110	46.6448
 2.2100	46.8774
 2.2090	46.8934
 2.2080	46.9625
 2.2070	47.1201
 2.2060	47.1289
 2.2050	47.3006
 2.2040	47.3500
 2.2030	47.5051
 2.2020	47.5325
 2.2010	47.6367
 2.2000	47.6524
 2.1990	47.8100
 2.1980	47.8340
 2.1970	47.9234
 2.1960	47.9811
 2.1950	48.0713
 2.1940	48.1812
 2.1930	48.1683
 2.1920	48.1858
 2.1910	48.3716
 2.1900	48.3468
 2.1890	48.4282
 2.1880	48.4213
 2.1870	48.5526
 2.1860	48.5907
 2.1850	48.6135
 2.1840	48.5938
 2.1830	48.6210
 2.1820	48.7046
 2.1810	48.7652
 2.1800	48.7563
 2.1790	48.7778
 2.1780	48.7859
 2.1770	48.8705
 2.1760	48.8839
 2.1750	48.9522
 2.1740	48.9827
 2.1730	48.9557
 2.1720	48.9747
 2.1710	49.0580
 2.1700	48.9788
 2.1690	49.1054
 2.1680	49.0939
 2.1670	49.1753
 2.1660	49.1224
 2.1650	49.1541
 2.1640	49.1651
 2.1630	49.2415
 2.1620	49.2353
 2.1610	49.3203
 2.1600	49.2991
 2.1590	49.3137
 2.1580	49.2543
 2.1570	49.4182
 2.1560	49.3597
 2.1550	49.3597
 2.1540	49.3236
 2.1530	49.3378
 2.1520	49.3450
 2.1510	49.4457
 2.1500	49.3349
 2.1490	49.4240
 2.1480	49.3714
 2.1470	49.4116
 2.1460	49.4297
 2.1450	49.4189
 2.1440	49.3783
 2.1430	49.3471
 2.1420	49.3703
 2.1410	49.4018
 2.1400	49.2900
 2.1390	49.3301
 2.1380	49.3247
 2.1370	49.2812
 2.1360	49.2532
 2.1350	49.2846
 2.1340	49.2454
 2.1330	49.2467
 2.1320	49.2185
 2.1310	49.2289
 2.1300	49.1995
 2.1290	49.1711
 2.1280	49.1089
 2.1270	49.0974
 2.1260	49.0968
 2.1250	49.0976
 2.1240	49.0485
 2.1230	49.0888
 2.1220	49.0878
 2.1210	49.0397
 2.1200	49.0676
 2.1190	49.0716
 2.1180	49.0218
 2.1170	49.0841
 2.1160	49.0429
 2.1150	49.0394
 2.1140	49.0114
 2.1130	49.0004
 2.1120	48.9302
 2.1110	48.9636
 2.1100	48.9264
 2.1090	48.9116
 2.1080	48.9259
 2.1070	48.8971
 2.1060	48.8548
 2.1050	48.8162
 2.1040	48.7293
 2.1030	48.7418
 2.1020	48.6446
 2.1010	48.5996
 2.1000	48.5689
 2.0990	48.6132
 2.0980	48.6161
 2.0970	48.5750
 2.0960	48.4974
 2.0950	48.4455
 2.0940	48.4215
 2.0930	48.4152
 2.0920	48.3875
 2.0910	48.3861
 2.0900	48.3739
 2.0890	48.3482
 2.0880	48.2912
 2.0870	48.2315
 2.0860	48.1894
 2.0850	48.1480
 2.0840	48.0819
 2.0830	48.0645
 2.0820	48.0535
 2.0810	48.0102
 2.0800	47.9736
 2.0790	47.9603
 2.0780	47.9065
 2.0770	47.9196
 2.0760	47.8450
 2.0750	47.7361
 2.0740	47.6616
 2.0730	47.6590
 2.0720	47.6146
 2.0710	47.5714
 2.0700	47.5578
 2.0690	47.4932
 2.0680	47.4254
 2.0670	47.3422
 2.0660	47.3039
 2.0650	47.2639
 2.0640	47.2028
 2.0630	47.1391
 2.0620	47.1097
 2.0610	47.0380
 2.0600	46.9479
 2.0590	46.8525
 2.0580	46.8219
 2.0570	46.7876
 2.0560	46.7398
 2.0550	46.6234
 2.0540	46.5002
 2.0530	46.3815
 2.0520	46.3476
 2.0510	46.2578
 2.0500	46.0781
 2.0490	46.0089
 2.0480	45.9815
 2.0470	45.8924
 2.0460	45.7927
 2.0450	45.6471
 2.0440	45.6083
 2.0430	45.4281
 2.0420	45.3424
 2.0410	45.2401
 2.0400	45.1163
 2.0390	44.9553
 2.0380	44.8894
 2.0370	44.8039
 2.0360	44.6480
 2.0350	44.5024
 2.0340	44.3756
 2.0330	44.2445
 2.0320	44.1282
 2.0310	44.0242
 2.0300	43.9410
 2.0290	43.8160
 2.0280	43.7107
 2.0270	43.5547
 2.0260	43.4870
 2.0250	43.3567
 2.0240	43.3129
 2.0230	43.1828
 2.0220	43.0415
 2.0210	42.9480
 2.0200	42.8833
 2.0190	42.8025
 2.0180	42.7872
 2.0170	42.6662
 2.0160	42.6100
 2.0150	42.5438
 2.0140	42.5128
 2.0130	42.4375
 2.0120	42.4635
 2.0110	42.3847
 2.0100	42.3482
 2.0090	42.2790
 2.0080	42.2546
 2.0070	42.2625
 2.0060	42.2245
 2.0050	42.2133
 2.0040	42.2699
 2.0030	42.2738
 2.0020	42.2487
 2.0010	42.2863
 2.0000	42.2851
 1.9990	42.2514
 1.9980	42.3409
 1.9970	42.3312
 1.9960	42.3349
 1.9950	42.3652
 1.9940	42.3679
 1.9930	42.4528
 1.9920	42.4676
 1.9910	42.5047
 1.9900	42.5054
 1.9890	42.5488
 1.9880	42.5865
 1.9870	42.6768
 1.9860	42.7209
 1.9850	42.6893
 1.9840	42.8084
 1.9830	42.8258
 1.9820	42.9333
 1.9810	42.9883
 1.9800	43.0260
 1.9790	43.0306
 1.9780	43.0762
 1.9770	43.0815
 1.9760	43.1126
 1.9750	43.1268
 1.9740	43.1975
 1.9730	43.1653
 1.9720	43.1803
 1.9710	43.1751
 1.9700	43.2126
 1.9690	43.2750
 1.9680	43.2964
 1.9670	43.2375
 1.9660	43.2428
 1.9650	43.2597
 1.9640	43.4045
 1.9630	43.3295
 1.9620	43.3989
 1.9610	43.3558
 1.9600	43.3299
 1.9590	43.3625
 1.9580	43.3199
 1.9570	43.3573
 1.9560	43.3610
 1.9550	43.3459
 1.9540	43.3785
 1.9530	43.4722
 1.9520	43.4405
 1.9510	43.4150
 1.9500	43.3992
 1.9490	43.4993
 1.9480	43.5774
 1.9470	43.4729
 1.9460	43.5235
 1.9450	43.5533
 1.9440	43.6109
 1.9430	43.5022
 1.9420	43.6110
 1.9410	43.4840
 1.9400	43.6006
 1.9390	43.4999
 1.9380	43.5780
 1.9370	43.4841
 1.9360	43.5110
 1.9350	43.5222
 1.9340	43.4849
 1.9330	43.5265
 1.9320	43.4472
 1.9310	43.4704
 1.9300	43.4910
 1.9290	43.3943
 1.9280	43.4238
 1.9270	43.3514
 1.9260	43.2010
 1.9250	43.3342
 1.9240	43.2395
 1.9230	43.1900
 1.9220	43.2318
 1.9210	43.2329
 1.9200	43.1807
 1.9190	43.1356
 1.9180	43.0995
 1.9170	43.0950
 1.9160	43.0875
 1.9150	43.0304
 1.9140	43.0159
 1.9130	42.9657
 1.9120	42.8892
 1.9110	42.8818
 1.9100	42.9226
 1.9090	42.8370
 1.9080	42.8416
 1.9070	42.7959
 1.9060	42.7805
 1.9050	42.6845
 1.9040	42.7960
 1.9030	42.7299
 1.9020	42.7993
 1.9010	42.7888
 1.9000	42.7069
 1.8990	42.6646
 1.8980	42.6610
 1.8970	42.6455
 1.8960	42.6347
 1.8950	42.6098
 1.8940	42.6783
 1.8930	42.5655
 1.8920	42.5993
 1.8910	42.6168
 1.8900	42.5826
 1.8890	42.5152
 1.8880	42.5561
 1.8870	42.5339
 1.8860	42.5190
 1.8850	42.4879
 1.8840	42.4821
 1.8830	42.4554
 1.8820	42.4419
 1.8810	42.4267
 1.8800	42.4602
 1.8790	42.4241
 1.8780	42.4343
 1.8770	42.3514
 1.8760	42.4886
 1.8750	42.3156
 1.8740	42.3700
 1.8730	42.3235
 1.8720	42.4537
 1.8710	42.3831
 1.8700	42.3769
 1.8690	42.3779
 1.8680	42.4506
 1.8670	42.3720
 1.8660	42.3815
 1.8650	42.4139
 1.8640	42.4315
 1.8630	42.3955
 1.8620	42.3937
 1.8610	42.3504
 1.8600	42.3316
 1.8590	42.2774
 1.8580	42.3274
 1.8570	42.3710
 1.8560	42.3290
 1.8550	42.3531
 1.8540	42.3313
 1.8530	42.2773
 1.8520	42.2931
 1.8510	42.3174
 1.8500	42.3279
 1.8490	42.2544
 1.8480	42.2458
 1.8470	42.2057
 1.8460	42.2325
 1.8450	42.1835
 1.8440	42.2507
 1.8430	42.1746
 1.8420	42.1773
 1.8410	42.1250
 1.8400	42.0650
 1.8390	42.0792
 1.8380	42.0604
 1.8370	42.0008
 1.8360	42.0217
 1.8350	41.9577
 1.8340	41.9180
 1.8330	41.8958
 1.8320	41.9476
 1.8310	41.8572
 1.8300	41.8139
 1.8290	41.8042
 1.8280	41.7947
 1.8270	41.7297
 1.8260	41.7169
 1.8250	41.7056
 1.8240	41.6947
 1.8230	41.6460
 1.8220	41.6768
 1.8210	41.5299
 1.8200	41.4702
 1.8190	41.5003
 1.8180	41.5338
 1.8170	41.5347
 1.8160	41.4921
 1.8150	41.4409
 1.8140	41.4263
 1.8130	41.3627
 1.8120	41.3970
 1.8110	41.3453
 1.8100	41.2614
 1.8090	41.2684
 1.8080	41.2733
 1.8070	41.2076
 1.8060	41.1856
 1.8050	41.1847
 1.8040	41.1207
 1.8030	41.0895
 1.8020	41.0559
 1.8010	41.0433
 1.8000	41.0557
 1.7990	41.0079
 1.7980	40.9481
 1.7970	40.9539
 1.7960	40.9250
 1.7950	40.8600
 1.7940	40.7982
 1.7930	40.7230
 1.7920	40.7244
 1.7910	40.7650
 1.7900	40.7272
 1.7890	40.6312
 1.7880	40.5700
 1.7870	40.5459
 1.7860	40.5382
 1.7850	40.4939
 1.7840	40.4141
 1.7830	40.4181
 1.7820	40.4395
 1.7810	40.3439
 1.7800	40.2884
 1.7790	40.2373
 1.7780	40.1880
 1.7770	40.1630
 1.7760	40.0958
 1.7750	40.0557
 1.7740	40.0127
 1.7730	40.0088
 1.7720	39.9573
 1.7710	39.9115
 1.7700	39.8791
 1.7690	39.8398
 1.7680	39.7938
 1.7670	39.7589
 1.7660	39.7083
 1.7650	39.7146
 1.7640	39.6294
 1.7630	39.5936
 1.7620	39.5819
 1.7610	39.5512
 1.7600	39.4689
 1.7590	39.4185
 1.7580	39.3867
 1.7570	39.3524
 1.7560	39.2897
 1.7550	39.2542
 1.7540	39.1765
 1.7530	39.1779
 1.7520	39.1204
 1.7510	39.0595
 1.7500	39.0206
 1.7490	39.0106
 1.7480	38.9957
 1.7470	38.9057
 1.7460	38.8593
 1.7450	38.8511
 1.7440	38.7494
 1.7430	38.6984
 1.7420	38.6439
 1.7410	38.6719
 1.7400	38.6184
 1.7390	38.5237
 1.7380	38.5062
 1.7370	38.5032
 1.7360	38.4700
 1.7350	38.4579
 1.7340	38.3333
 1.7330	38.2687
 1.7320	38.2277
 1.7310	38.1955
 1.7300	38.1683
 1.7290	38.0855
 1.7280	38.0278
 1.7270	38.0499
 1.7260	38.0085
 1.7250	37.9084
 1.7240	37.8756
 1.7230	37.8534
 1.7220	37.7625
 1.7210	37.7467
 1.7200	37.6386
 1.7190	37.6572
 1.7180	37.5791
 1.7170	37.5019
 1.7160	37.4874
 1.7150	37.4883
 1.7140	37.3643
 1.7130	37.3687
 1.7120	37.3459
 1.7110	37.2908
 1.7100	37.2068
 1.7090	37.1906
 1.7080	37.0966
 1.7070	37.0937
 1.7060	36.9881
 1.7050	36.9103
 1.7040	36.8965
 1.7030	36.8282
 1.7020	36.7752
 1.7010	36.7378
 1.7000	36.6843
 1.6990	36.6283
 1.6980	36.5827
 1.6970	36.5328
 1.6960	36.4918
 1.6950	36.4299
 1.6940	36.3565
 1.6930	36.3431
 1.6920	36.2355
 1.6910	36.1863
 1.6900	36.1155
 1.6890	36.1491
 1.6880	36.0058
 1.6870	35.9486
 1.6860	35.9098
 1.6850	35.9124
 1.6840	35.7728
 1.6830	35.8437
 1.6820	35.7642
 1.6810	35.7119
 1.6800	35.5957
 1.6790	35.6028
 1.6780	35.4950
 1.6770	35.4655
 1.6760	35.3893
 1.6750	35.3772
 1.6740	35.2768
 1.6730	35.2301
 1.6720	35.1110
 1.6710	35.2196
 1.6700	35.0299
 1.6690	35.0908
 1.6680	34.9293
 1.6670	34.9871
 1.6660	34.8709
 1.6650	34.7992
 1.6640	34.7655
 1.6630	34.7420
 1.6620	34.6235
 1.6610	34.5337
 1.6600	34.5239
 1.6590	34.5044
 1.6580	34.3811
 1.6570	34.3817
 1.6560	34.2925
 1.6550	34.2926
 1.6540	34.1181
 1.6530	34.2209
 1.6520	34.0785
 1.6510	34.0866
 1.6500	33.9766
 1.6490	33.9578
 1.6480	33.8187
 1.6470	33.8218
 1.6460	33.6559
 1.6450	33.7182
 1.6440	33.6040
 1.6430	33.6276
 1.6420	33.5178
 1.6410	33.3748
 1.6400	33.3679
 1.6390	33.3837
 1.6380	33.2824
 1.6370	33.2057
 1.6360	33.1940
 1.6350	33.1004
 1.6340	33.0194
 1.6330	33.0889
 1.6320	32.9338
 1.6310	32.8816
 1.6300	32.7891
 1.6290	32.8085
 1.6280	32.6898
 1.6270	32.7223
 1.6260	32.5900
 1.6250	32.5220
 1.6240	32.4547
 1.6230	32.4204
 1.6220	32.3314
 1.6210	32.3068
 1.6200	32.2017
 1.6190	32.2276
 1.6180	32.0620
 1.6170	32.0733
 1.6160	31.9821
 1.6150	31.9461
 1.6140	31.8262
 1.6130	31.8166
 1.6120	31.7053
 1.6110	31.7247
 1.6100	31.6331
 1.6090	31.5864
 1.6080	31.5058
 1.6070	31.4597
 1.6060	31.4434
 1.6050	31.3874
 1.6040	31.2469
 1.6030	31.1641
 1.6020	31.0883
 1.6010	31.1429
 1.6000	30.9909
 1.5990	31.0286
 1.5980	30.9424
 1.5970	30.9507
 1.5960	30.7936
 1.5950	30.7802
 1.5940	30.7267
 1.5930	30.6626
 1.5920	30.5421
 1.5910	30.5227
 1.5900	30.4730
 1.5890	30.4096
 1.5880	30.3448
 1.5870	30.3478
 1.5860	30.2655
 1.5850	30.1752
 1.5840	30.1022
 1.5830	30.1339
 1.5820	30.0648
 1.5810	29.9548
 1.5800	29.8872
 1.5790	29.8354
 1.5780	29.7579
 1.5770	29.8086
 1.5760	29.6660
 1.5750	29.6187
 1.5740	29.6182
 1.5730	29.5503
 1.5720	29.4512
 1.5710	29.4601
 1.5700	29.4176
 1.5690	29.3125
 1.5680	29.2671
 1.5670	29.2994
 1.5660	29.1830
 1.5650	29.1212
 1.5640	29.0469
 1.5630	29.0743
 1.5620	28.9852
 1.5610	28.9401
 1.5600	28.8978
 1.5590	28.8513
 1.5580	28.7839
 1.5570	28.7979
 1.5560	28.6981
 1.5550	28.6304
 1.5540	28.6167
 1.5530	28.5651
 1.5520	28.5506
 1.5510	28.4801
 1.5500	28.4316
 1.5490	28.4136
 1.5480	28.2788
 1.5470	28.2850
 1.5460	28.2406
 1.5450	28.2127
 1.5440	28.2098
 1.5430	28.1847
 1.5420	28.0532
 1.5410	28.0574
 1.5400	28.0745
 1.5390	27.9897
 1.5380	27.8849
 1.5370	27.8629
 1.5360	27.8383
 1.5350	27.8090
 1.5340	27.7837
 1.5330	27.7970
 1.5320	27.7585
 1.5310	27.7176
 1.5300	27.7054
 1.5290	27.6489
 1.5280	27.6088
 1.5270	27.5745
 1.5260	27.5197
 1.5250	27.4921
 1.5240	27.4680
 1.5230	27.3956
 1.5220	27.3444
 1.5210	27.3584
 1.5200	27.2843
 1.5190	27.2693
 1.5180	27.2699
 1.5170	27.2226
 1.5160	27.2299
 1.5150	27.1553
 1.5140	27.0931
 1.5130	27.0496
 1.5120	26.9885
 1.5110	27.0035
 1.5100	26.9716
 1.5090	26.9118
 1.5080	26.8672
 1.5070	26.8508
 1.5060	26.8657
 1.5050	26.8452
 1.5040	26.7414
 1.5030	26.6991
 1.5020	26.6677
 1.5010	26.6122
 1.5000	26.5446
 1.4990	26.4995
 1.4980	26.4751
 1.4970	26.4722
 1.4960	26.4271
 1.4950	26.3667
 1.4940	26.3108
 1.4930	26.2450
 1.4920	26.2378
 1.4910	26.2143
 1.4900	26.1883
 1.4890	26.1612
 1.4880	26.1132
 1.4870	26.0048
 1.4860	25.9124
 1.4850	25.9153
 1.4840	25.8945
 1.4830	25.8244
 1.4820	25.7879
 1.4810	25.7297
 1.4800	25.6929
 1.4790	25.6507
 1.4780	25.5760
 1.4770	25.4966
 1.4760	25.4909
 1.4750	25.4234
 1.4740	25.3580
 1.4730	25.3072
 1.4720	25.2574
 1.4710	25.1835
 1.4700	25.1020
 1.4690	25.0787
 1.4680	25.0201
 1.4670	24.9565
 1.4660	24.9534
 1.4650	24.9122
 1.4640	24.8021
 1.4630	24.6915
 1.4620	24.7025
 1.4610	24.6464
 1.4600	24.5859
 1.4590	24.5287
 1.4580	24.4717
 1.4570	24.3981
 1.4560	24.3273
 1.4550	24.2689
 1.4540	24.2571
 1.4530	24.2422
 1.4520	24.1740
 1.4510	24.1000
 1.4500	24.0001
 1.4490	23.9758
 1.4480	23.9884
 1.4470	23.9337
 1.4460	23.9089
 1.4450	23.8485
 1.4440	23.8045
 1.4430	23.7283
 1.4420	23.7419
 1.4410	23.6678
 1.4400	23.7289
 1.4390	23.6268
 1.4380	23.6386
 1.4370	23.5489
 1.4360	23.5640
 1.4350	23.5111
 1.4340	23.5804
 1.4330	23.5219
 1.4320	23.4768
 1.4310	23.3455
 1.4300	23.3914
 1.4290	23.3335
 1.4280	23.2409
 1.4270	23.1244
 1.4260	23.0977
 1.4250	22.9162
 1.4240	22.7749
 1.4230	22.6639
 1.4220	22.4816
 1.4210	22.1043
 1.4200	21.7188
 1.4190	21.2559
 1.4180	20.9454
 1.4170	20.4609
 1.4160	20.1132
 1.4150	19.8010
 1.4140	19.6018
 1.4130	19.5534
 1.4120	19.7160
 1.4110	19.8521
 1.4100	20.1047
 1.4090	20.1625
 1.4080	20.2536
 1.4070	20.3273
 1.4060	20.5065
 1.4050	20.6235
 1.4040	20.7938
 1.4030	20.9859
 1.4020	21.2385
 1.4010	21.4439
 1.4000	21.5515
 1.3990	21.6255
 1.3980	21.8236
 1.3970	21.8617
 1.3960	21.9245
 1.3950	21.9324
 1.3940	21.9502
 1.3930	21.9512
 1.3920	21.9329
 1.3910	21.9169
 1.3900	21.9754
 1.3890	21.8975
 1.3880	21.9640
 1.3870	21.8522
 1.3860	21.9014
 1.3850	21.6789
 1.3840	21.8128
 1.3830	21.5736
 1.3820	21.5930
 1.3810	21.5198
 1.3800	21.5438
 1.3790	21.4454
 1.3780	21.4391
 1.3770	21.4299
 1.3760	21.3875
 1.3750	21.3449
 1.3740	21.3270
 1.3730	21.1485
 1.3720	21.1073
 1.3710	21.1200
 1.3700	20.9869
 1.3690	21.0170
 1.3680	20.9151
 1.3670	20.8023
 1.3660	20.8227
 1.3650	20.7425
 1.3640	20.6377
 1.3630	20.6253
 1.3620	20.6243
 1.3610	20.3950
 1.3600	20.5146
 1.3590	20.4045
 1.3580	20.4644
 1.3570	20.3974
 1.3560	20.3876
 1.3550	19.9419
 1.3540	20.2189
 1.3530	20.0438
 1.3520	20.1200
 1.3510	20.0185
 1.3500	19.9716
 1.3490	19.9304
 1.3480	19.8683
 1.3470	19.7672
 1.3460	19.8257
 1.3450	19.7315
 1.3440	19.6621
 1.3430	19.6048
 1.3420	19.5570
 1.3410	19.4858
 1.3400	19.3747
 1.3390	19.4065
 1.3380	19.4134
 1.3370	19.2131
 1.3360	19.2651
 1.3350	19.1045
 1.3340	19.1227
 1.3330	18.9906
 1.3320	18.9237
 1.3310	18.9591
 1.3300	18.8946
 1.3290	18.8653
 1.3280	18.8653
 1.3270	18.7204
 1.3260	18.7403
 1.3250	18.6270
 1.3240	18.5661
 1.3230	18.4500
 1.3220	18.4941
 1.3210	18.3811
 1.3200	18.3557
 1.3190	18.3050
 1.3180	18.2788
 1.3170	18.1856
 1.3160	18.1672
 1.3150	18.1180
 1.3140	18.0954
 1.3130	18.0316
 1.3120	17.9687
 1.3110	17.8768
 1.3100	17.8658
 1.3090	17.8246
 1.3080	17.7586
 1.3070	17.6882
 1.3060	17.7235
 1.3050	17.5683
 1.3040	17.6249
 1.3030	17.5182
 1.3020	17.4108
 1.3010	17.4174
 1.3000	17.3314
 1.2990	17.2902
 1.2980	17.2527
 1.2970	17.2475
 1.2960	17.1439
 1.2950	17.0601
 1.2940	17.0450
 1.2930	17.0137
 1.2920	16.9564
 1.2910	16.8697
 1.2900	16.8588
 1.2890	16.8352
 1.2880	16.8018
 1.2870	16.7661
 1.2860	16.6628
 1.2850	16.6900
 1.2840	16.6273
 1.2830	16.5806
 1.2820	16.5352
 1.2810	16.4044
 1.2800	16.3860
 1.2790	16.3321
 1.2780	16.3758
 1.2770	16.1897
 1.2760	16.2010
 1.2750	16.1029
 1.2740	16.1137
 1.2730	15.9994
 1.2720	15.9779
 1.2710	15.9780
 1.2700	15.9438
 1.2690	15.8090
 1.2680	15.7754
 1.2670	15.7709
 1.2660	15.7239
 1.2650	15.6188
 1.2640	15.6348
 1.2630	15.5626
 1.2620	15.5794
 1.2610	15.5083
 1.2600	15.4956
 1.2590	15.4104
 1.2580	15.3685
 1.2570	15.3265
 1.2560	15.2939
 1.2550	15.2353
 1.2540	15.2247
 1.2530	15.1300
 1.2520	15.0627
 1.2510	15.0518
 1.2500	15.0261
 1.2490	15.0044
 1.2480	14.9400
 1.2470	14.8200
 1.2460	14.8638
 1.2450	14.8212
 1.2440	14.8129
 1.2430	14.7152
 1.2420	14.6928
 1.2410	14.6128
 1.2400	14.5840
 1.2390	14.5305
 1.2380	14.4781
 1.2370	14.4544
 1.2360	14.4728
 1.2350	14.4053
 1.2340	14.3129
 1.2330	14.2783
 1.2320	14.2374
 1.2310	14.2242
 1.2300	14.1654
 1.2290	14.1073
 1.2280	14.1065
 1.2270	14.1044
 1.2260	14.0515
 1.2250	13.9674
 1.2240	13.9020
 1.2230	13.8773
 1.2220	13.8772
 1.2210	13.8426
 1.2200	13.7876
 1.2190	13.7310
 1.2180	13.7216
 1.2170	13.6775
 1.2160	13.6138
 1.2150	13.5787
 1.2140	13.5647
 1.2130	13.5268
 1.2120	13.4559
 1.2110	13.4597
 1.2100	13.4412
 1.2090	13.4212
 1.2080	13.3691
 1.2070	13.3085
 1.2060	13.2791
 1.2050	13.2752
 1.2040	13.2178
 1.2030	13.1886
 1.2020	13.1198
 1.2010	13.1136
 1.2000	13.0758
 1.1990	13.0737
 1.1980	13.0462
 1.1970	12.9822
 1.1960	12.9365
 1.1950	12.9435
 1.1940	12.9138
 1.1930	12.8840
 1.1920	12.8218
 1.1910	12.8189
 1.1900	12.8214
 1.1890	12.8248
 1.1880	12.6936
 1.1870	12.7198
 1.1860	12.6893
 1.1850	12.6576
 1.1840	12.6388
 1.1830	12.5943
 1.1820	12.5547
 1.1810	12.5302
 1.1800	12.4748
 1.1790	12.5319
 1.1780	12.4593
 1.1770	12.4049
 1.1760	12.4305
 1.1750	12.4416
 1.1740	12.3423
 1.1730	12.3279
 1.1720	12.2986
 1.1710	12.2916
 1.1700	12.2590
 1.1690	12.2779
 1.1680	12.2101
 1.1670	12.2202
 1.1660	12.1621
 1.1650	12.1550
 1.1640	12.1413
 1.1630	12.0945
 1.1620	12.0438
 1.1610	12.0625
 1.1600	12.0386
 1.1590	12.0108
 1.1580	11.9546
 1.1570	11.9512
 1.1560	11.9594
 1.1550	11.9521
 1.1540	11.8850
 1.1530	11.8624
 1.1520	11.8155
 1.1510	11.8337
 1.1500	11.7530
 1.1490	11.8233
 1.1480	11.7164
 1.1470	11.7634
 1.1460	11.7386
 1.1450	11.7456
 1.1440	11.7208
 1.1430	11.6982
 1.1420	11.6450
 1.1410	11.6759
 1.1400	11.6114
 1.1390	11.6439
 1.1380	11.6089
 1.1370	11.6649
 1.1360	11.5331
 1.1350	11.5689
 1.1340	11.5622
 1.1330	11.5384
 1.1320	11.5472
 1.1310	11.6872
 1.1300	11.4847
 1.1290	11.4723
 1.1280	11.4445
 1.1270	11.5119
 1.1260	11.3718
 1.1250	11.4663
 1.1240	11.3311
 1.1230	11.4331
 1.1220	11.3811
 1.1210	11.3774
 1.1200	11.2860
 1.1190	11.3598
 1.1180	11.2868
 1.1170	11.3604
 1.1160	11.3029
 1.1150	11.3096
 1.1140	11.3380
 1.1130	11.2750
 1.1120	11.2462
 1.1110	11.2662
 1.1100	11.2830
 1.1090	11.2447
 1.1080	11.1755
 1.1070	11.3058
 1.1060	11.2794
 1.1050	11.1930
 1.1040	11.1313
 1.1030	11.2113
 1.1020	11.1680
 1.1010	11.1820
 1.1000	11.1906
 1.0990	11.1894
 1.0980	11.1176
 1.0970	11.2146
 1.0960	11.1471
 1.0950	11.1686
 1.0940	11.0699
 1.0930	11.1956
 1.0920	11.0953
 1.0910	11.1946
 1.0900	11.1444
 1.0890	11.1523
 1.0880	11.0953
 1.0870	11.1807
 1.0860	11.0647
 1.0850	11.0927
 1.0840	11.0797
 1.0830	11.1412
 1.0820	11.1340
 1.0810	11.1611
 1.0800	11.1071
 1.0790	11.1902
 1.0780	10.9510
 1.0770	11.0903
 1.0760	11.0381
 1.0750	11.1745
 1.0740	11.0177
 1.0730	11.0819
 1.0720	11.0289
 1.0710	11.1148
 1.0700	10.8829
 1.0690	11.2622
 1.0680	11.0321
 1.0670	11.1769
 1.0660	10.9638
 1.0650	11.0700
 1.0640	11.0540
 1.0630	11.1563
 1.0620	10.8878
 1.0610	11.1257
 1.0600	11.0532
 1.0590	11.1116
 1.0580	11.0539
 1.0570	11.0795
 1.0560	11.0364
 1.0550	11.0264
 1.0540	11.0091
 1.0530	11.1196
 1.0520	11.0148
 1.0510	11.0449
 1.0500	11.0196
 1.0490	11.0925
 1.0480	11.0619
 1.0470	11.1054
 1.0460	10.9769
 1.0450	11.0235
 1.0440	11.0079
 1.0430	11.0628
 1.0420	11.0115
 1.0410	11.0390
 1.0400	11.0305
 1.0390	11.0817
 1.0380	10.9976
 1.0370	11.0257
 1.0360	11.0198
 1.0350	11.0187
 1.0340	10.9848
 1.0330	11.0161
 1.0320	10.9651
 1.0310	11.0430
 1.0300	10.9609
 1.0290	11.0964
 1.0280	10.9435
 1.0270	11.0348
 1.0260	10.9193
 1.0250	11.0591
 1.0240	10.9753
 1.0230	11.0371
 1.0220	11.0228
 1.0210	11.0311
 1.0200	10.9372
 1.0190	10.9710
 1.0180	10.9295
 1.0170	11.0661
 1.0160	11.0405
 1.0150	10.9262
 1.0140	10.9649
 1.0130	11.0028
 1.0120	10.9701
 1.0110	11.0074
 1.0100	10.9834
 1.0090	10.9773
 1.0080	10.8999
 1.0070	10.9029
 1.0060	10.8437
 1.0050	10.9375
 1.0040	10.8586
 1.0030	10.8764
 1.0020	10.8088
 1.0010	10.8600
 1.0000	10.8227
 0.9990	10.8929
 0.9980	10.8442
 0.9970	10.8610
 0.9960	10.7824
 0.9950	10.8215
 0.9940	10.8470
 0.9930	10.8787
 0.9920	10.8554
 0.9910	10.8006
 0.9900	10.7806
 0.9890	10.8050
 0.9880	10.7349
 0.9870	10.8437
 0.9860	10.7563
 0.9850	10.7050
 0.9840	10.6539
 0.9830	10.7143
 0.9820	10.6629
 0.9810	10.6692
 0.9800	10.6742
 0.9790	10.6678
 0.9780	10.6443
 0.9770	10.6210
 0.9760	10.5499
 0.9750	10.5645
 0.9740	10.5304
 0.9730	10.6008
 0.9720	10.5562
 0.9710	10.5805
 0.9700	10.5367
 0.9690	10.4753
 0.9680	10.4362
 0.9670	10.4579
 0.9660	10.4777
 0.9650	10.4423
 0.9640	10.4542
 0.9630	10.4083
 0.9620	10.3069
 0.9610	10.3549
 0.9600	10.3336
 0.9590	10.3166
 0.9580	10.3294
 0.9570	10.3226
 0.9560	10.3293
 0.9550	10.3147
 0.9540	10.1809
 0.9530	10.2437
 0.9520	10.2365
 0.9510	10.2093
 0.9500	10.1995
 0.9490	10.1937
 0.9480	10.1536
 0.9470	10.1538
 0.9460	10.1437
 0.9450	10.1237
 0.9440	10.0856
 0.9430	10.0649
 0.9420	10.0837
 0.9410	10.1124
 0.9400	10.0689
 0.9390	10.0728
 0.9380	10.0850
 0.9370	10.0502
 0.9360	10.0171
 0.9350	10.0090
 0.9340	10.0005
 0.9330	10.0134
 0.9320	 9.9333
 0.9310	 9.9289
 0.9300	 9.9624
 0.9290	 9.8940
 0.9280	 9.8688
 0.9270	 9.8498
 0.9260	 9.8562
 0.9250	 9.9037
 0.9240	 9.8743
 0.9230	 9.8638
 0.9220	 9.8379
 0.9210	 9.8152
 0.9200	 9.8555
 0.9190	 9.8054
 0.9180	 9.7948
 0.9170	 9.7974
 0.9160	 9.7887
 0.9150	 9.7580
 0.9140	 9.7731
 0.9130	 9.7924
 0.9120	 9.7797
 0.9110	 9.7317
 0.9100	 9.7373
 0.9090	 9.7123
 0.9080	 9.7054
 0.9070	 9.7772
 0.9060	 9.7565
 0.9050	 9.6824
 0.9040	 9.6884
 0.9030	 9.6710
 0.9020	 9.7249
 0.9010	 9.7168
 0.9000	 9.7083
 0.8990	 9.6931
 0.8980	 9.6871
 0.8970	 9.6791
 0.8960	 9.7105
 0.8950	 9.6884
 0.8940	 9.6951
 0.8930	 9.6904
 0.8920	 9.7083
 0.8910	 9.7006
 0.8900	 9.7332
 0.8890	 9.6486
 0.8880	 9.6818
 0.8870	 9.6742
 0.8860	 9.7199
 0.8850	 9.7047
 0.8840	 9.7514
 0.8830	 9.7648
 0.8820	 9.7685
 0.8810	 9.6957
 0.8800	 9.7120
 0.8790	 9.6885
 0.8780	 9.7320
 0.8770	 9.7513
 0.8760	 9.7865
 0.8750	 9.7609
 0.8740	 9.7786
 0.8730	 9.8269
 0.8720	 9.8180
 0.8710	 9.7408
 0.8700	 9.7689
 0.8690	 9.8077
 0.8680	 9.8285
 0.8670	 9.7481
 0.8660	 9.8702
 0.8650	 9.8385
 0.8640	 9.8952
 0.8630	 9.8400
 0.8620	 9.8799
 0.8610	 9.8455
 0.8600	10.1115
 0.8590	10.1889
 0.8580	10.2092
 0.8570	10.2323
 0.8560	10.2459
 0.8550	10.2433
 0.8540	10.2753
 0.8530	10.2957
 0.8520	10.2960
 0.8510	10.3140
 0.8500	10.3138
 0.8490	10.3333
 0.8480	10.3528
 0.8470	10.3438
 0.8460	10.3642
 0.8450	10.3870
 0.8440	10.3891
 0.8430	10.4094
 0.8420	10.4151
 0.8410	10.4362
 0.8400	10.4463
 0.8390	10.4597
 0.8380	10.4733
 0.8370	10.4850
 0.8360	10.4968
 0.8350	10.4974
 0.8340	10.5212
 0.8330	10.5281
 0.8320	10.5337
 0.8310	10.5482
 0.8300	10.5639
 0.8290	10.5819
 0.8280	10.6053
 0.8270	10.6099
 0.8260	10.6236
 0.8250	10.6270
 0.8240	10.6463
 0.8230	10.6525
 0.8220	10.6620
 0.8210	10.6804
 0.8200	10.6879
 0.8190	10.6983
 0.8180	10.6971
 0.8170	10.7230
 0.8160	10.7134
 0.8150	10.7254
 0.8140	10.7490
 0.8130	10.7473
 0.8120	10.7532
 0.8110	10.7604
 0.8100	10.7686
 0.8090	10.7715
 0.8080	10.7847
 0.8070	10.7881
 0.8060	10.7855
 0.8050	10.8028
 0.8040	10.8099
 0.8030	10.8048
 0.8020	10.8127
 0.8010	10.8134
 0.8000	10.8138
 0.7990	10.8152
 0.7980	10.8171
 0.7970	10.8163
 0.7960	10.8123
 0.7950	10.8061
 0.7940	10.8021
 0.7930	10.8114
 0.7920	10.8003
 0.7910	10.8029
 0.7900	10.8090
 0.7890	10.8158
 0.7880	10.8058
 0.7870	10.8053
 0.7860	10.7989
 0.7850	10.8005
 0.7840	10.7961
 0.7830	10.7947
 0.7820	10.7845
 0.7810	10.7860
 0.7800	10.7771
 0.7790	10.7687
 0.7780	10.7574
 0.7770	10.7594
 0.7760	10.7538
 0.7750	10.7406
 0.7740	10.7510
 0.7730	10.7434
 0.7720	10.7285
 0.7710	10.7279
 0.7700	10.7186
 0.7690	10.7191
 0.7680	10.7091
 0.7670	10.7117
 0.7660	10.6956
 0.7650	10.6876
 0.7640	10.6903
 0.7630	10.6847
 0.7620	10.6765
 0.7610	10.6745
 0.7600	10.6568
 0.7590	10.6524
 0.7580	10.6559
 0.7570	10.6534
 0.7560	10.6488
 0.7550	10.6384
 0.7540	10.6306
 0.7530	10.6303
 0.7520	10.6254
 0.7510	10.6217
 0.7500	10.6163
 0.7490	10.6115
 0.7480	10.6059
 0.7470	10.6116
 0.7460	10.5998
 0.7450	10.5988
 0.7440	10.5960
 0.7430	10.5993
 0.7420	10.5906
 0.7410	10.5905
 0.7400	10.5873
 0.7390	10.5779
 0.7380	10.5808
 0.7370	10.5836
 0.7360	10.5815
 0.7350	10.5817
 0.7340	10.5799
 0.7330	10.5792
 0.7320	10.5835
 0.7310	10.5818
 0.7300	10.5800
 0.7290	10.5864
 0.7280	10.5847
 0.7270	10.5844
 0.7260	10.5868
 0.7250	10.5962
 0.7240	10.5856
 0.7230	10.5940
 0.7220	10.5985
 0.7210	10.5941
 0.7200	10.6049
 0.7190	10.6034
 0.7180	10.6100
 0.7170	10.6180
 0.7160	10.6208
 0.7150	10.6228
 0.7140	10.6313
 0.7130	10.6397
 0.7120	10.6436
 0.7110	10.6485
 0.7100	10.6504
 0.7090	10.6678
 0.7080	10.6748
 0.7070	10.6815
 0.7060	10.6865
 0.7050	10.7030
 0.7040	10.7070
 0.7030	10.7218
 0.7020	10.7255
 0.7010	10.7386
 0.7000	10.7501
 0.6990	10.7610
 0.6980	10.7724
 0.6970	10.7819
 0.6960	10.7929
 0.6950	10.8032
 0.6940	10.8117
 0.6930	10.8314
 0.6920	10.8474
 0.6910	10.8565
 0.6900	10.8679
 0.6890	10.8840
 0.6880	10.8979
 0.6870	10.9161
 0.6860	10.9270
 0.6850	10.9396
 0.6840	10.9554
 0.6830	10.9716
 0.6820	10.9888
 0.6810	11.0034
 0.6800	11.0190
 0.6790	11.0381
 0.6780	11.0562
 0.6770	11.0680
 0.6760	11.0865
 0.6750	11.1070
 0.6740	11.1204
 0.6730	11.1400
 0.6720	11.1594
 0.6710	11.1748
 0.6700	11.1954
 0.6690	11.2124
 0.6680	11.2323
 0.6670	11.2514
 0.6660	11.2698
 0.6650	11.2870
 0.6640	11.3073
 0.6630	11.3278
 0.6620	11.3468
 0.6610	11.3647
 0.6600	11.3862
 0.6590	11.4101
 0.6580	11.4348
 0.6570	11.4530
 0.6560	11.4721
 0.6550	11.4927
 0.6540	11.5121
 0.6530	11.5333
 0.6520	11.5555
 0.6510	11.5796
 0.6500	11.6010
 0.6490	11.6208
 0.6480	11.6435
 0.6470	11.6639
 0.6460	11.6860
 0.6450	11.7097
 0.6440	11.7301
 0.6430	11.7491
 0.6420	11.7744
 0.6410	11.7965
 0.6400	11.8168
 0.6390	11.8410
 0.6380	11.8641
 0.6370	11.8886
 0.6360	11.9121
 0.6350	11.9343
 0.6340	11.9565
 0.6330	11.9788
 0.6320	12.0007
 0.6310	12.0229
 0.6300	12.0459
 0.6290	12.0697
 0.6280	12.0928
 0.6270	12.1144
 0.6260	12.1365
 0.6250	12.1593
 0.6240	12.1837
 0.6230	12.2074
 0.6220	12.2325
 0.6210	12.2578
 0.6200	12.2788
 0.6190	12.3016
 0.6180	12.3246
 0.6170	12.3473
 0.6160	12.3715
 0.6150	12.3969
 0.6140	12.4206
 0.6130	12.4452
 0.6120	12.4697
 0.6110	12.4905
 0.6100	12.5124
 0.6090	12.5375
 0.6080	12.5614
 0.6070	12.5845
 0.6060	12.6077
 0.6050	12.6312
 0.6040	12.6519
 0.6030	12.6759
 0.6020	12.6971
 0.6010	12.7201
 0.6000	12.7423
 0.5990	12.7704
 0.5980	12.7957
 0.5970	12.8206
 0.5960	12.8463
 0.5950	12.8675
 0.5940	12.8879
 0.5930	12.9066
 0.5920	12.9249
 0.5910	12.9487
 0.5900	12.9713
 0.5890	12.9900
 0.5880	13.0108
 0.5870	13.0317
 0.5860	13.0514
 0.5850	13.0690
 0.5840	13.0894
 0.5830	13.1076
 0.5820	13.1291
 0.5810	13.1436
 0.5800	13.1613
 0.5790	13.1817
 0.5780	13.1975
 0.5770	13.2123
 0.5760	13.2276
 0.5750	13.2367
 0.5740	13.2556
 0.5730	13.2708
 0.5720	13.2837
 0.5710	13.2928
 0.5700	13.3061
 0.5690	13.3174
 0.5680	13.3232
 0.5670	13.3310
 0.5660	13.3400
 0.5650	13.3491
 0.5640	13.3528
 0.5630	13.3575
 0.5620	13.3613
 0.5610	13.3673
 0.5600	13.3699
 0.5590	13.3731
 0.5580	13.3704
 0.5570	13.3692
 0.5560	13.3679
 0.5550	13.3646
 0.5540	13.3609
 0.5530	13.3538
 0.5520	13.3528
 0.5510	13.3443
 0.5500	13.3367
 0.5490	13.3276
 0.5480	13.3175
 0.5470	13.3049
 0.5460	13.2966
 0.5450	13.2825
 0.5440	13.2683
 0.5430	13.2476
 0.5420	13.2322
 0.5410	13.2136
 0.5400	13.2010
 0.5390	13.1784
 0.5380	13.1584
 0.5370	13.1384
 0.5360	13.1173
 0.5350	13.1009
 0.5340	13.0768
 0.5330	13.0537
 0.5320	13.0360
 0.5310	13.0110
 0.5300	12.9905
 0.5290	12.9660
 0.5280	12.9430
 0.5270	12.9170
 0.5260	12.8967
 0.5250	12.8715
 0.5240	12.8427
 0.5230	12.8166
 0.5220	12.7871
 0.5210	12.7579
 0.5200	12.7247
 0.5190	12.6968
 0.5180	12.6580
 0.5170	12.6221
 0.5160	12.5839
 0.5150	12.5420
 0.5140	12.5017
 0.5130	12.4623
 0.5120	12.4196
 0.5110	12.3752
 0.5100	12.3300
 0.5090	12.2892
 0.5080	12.2376
 0.5070	12.1838
 0.5060	12.1410
 0.5050	12.0883
 0.5040	12.0351
 0.5030	11.9849
 0.5020	11.9317
 0.5010	11.8764
 0.5000	11.8209
 0.4990	11.7619
 0.4980	11.7013
 0.4970	11.6447
 0.4960	11.5916
 0.4950	11.5426
 0.4940	11.5058
 0.4930	11.4709
 0.4920	11.4437
 0.4910	11.4122
 0.4900	11.3833
 0.4890	11.3498
 0.4880	11.3217
 0.4870	11.2750
 0.4860	11.2288
 0.4850	11.1829
 0.4840	11.1315
 0.4830	11.0843
 0.4820	11.0354
 0.4810	10.9795
 0.4800	10.9404
 0.4790	10.8889
 0.4780	10.8400
 0.4770	10.7944
 0.4760	10.7451
 0.4750	10.6968
 0.4740	10.6529
 0.4730	10.6092
 0.4720	10.5611
 0.4710	10.5198
 0.4700	10.4784
 0.4690	10.4342
 0.4680	10.3928
 0.4670	10.3535
 0.4660	10.3232
 0.4650	10.2844
 0.4640	10.2451
 0.4630	10.2141
 0.4620	10.1814
 0.4610	10.1483
 0.4600	10.1133
 0.4590	10.0902
 0.4580	10.0568
 0.4570	10.0246
 0.4560	 9.9973
 0.4550	 9.9693
 0.4540	 9.9434
 0.4530	 9.9243
 0.4520	 9.8916
 0.4510	 9.8702
 0.4500	 9.8404
 0.4490	 9.8075
 0.4480	 9.7789
 0.4470	 9.7463
 0.4460	 9.7080
 0.4450	 9.6659
 0.4440	 9.6237
 0.4430	 9.5765
 0.4420	 9.5223
 0.4410	 9.4783
 0.4400	 9.4257
 0.4390	 9.3690
 0.4380	 9.3153
 0.4370	 9.2621
 0.4360	 9.2090
 0.4350	 9.1499
 0.4340	 9.0952
 0.4330	 9.0520
 0.4320	 8.9977
 0.4310	 8.9408
 0.4300	 8.8858
 0.4290	 8.8323
 0.4280	 8.7764
 0.4270	 8.7203
 0.4260	 8.6681
 0.4250	 8.6155
 0.4240	 8.5589
 0.4230	 8.5084
 0.4220	 8.4598
 0.4210	 8.4122
 0.4200	 8.3630
 0.4190	 8.3190
 0.4180	 8.2757
 0.4170	 8.2344
 0.4160	 8.1867
 0.4150	 8.1492
 0.4140	 8.1066
 0.4130	 8.0674
 0.4120	 8.0278
 0.4110	 7.9888
 0.4100	 7.9514
 0.4090	 7.9166
 0.4080	 7.8875
 0.4070	 7.8559
 0.4060	 7.8253
 0.4050	 7.7920
 0.4040	 7.7600
 0.4030	 7.7322
 0.4020	 7.7025
 0.4010	 7.6762
 0.4000	 7.6479
