Name: Nontronite Na_0.33Fe_2^3+(Si,Al)_4O_10(OH)_2.H_2O
Type: Mineral
Class: Silicate
Subclass: Phyllosilicate
Particle Size: Coarse
Sample No.: PS-6B
Owner: JPL
Wavelength Range: VSWIR
Origin: Germany, Westphalia, Hohen Hagen
Collection Date: N/A
Description: Particle size was 125-500um.Collected by Clay Mineral Society Original ASTER Spectral Library name was jpl.beckman.mineral.silicate.phyllosilicate.coarse.ps06b.spectrum.txt
Measurement: Hemispherical reflectance
First Column: X
Second Column: Y
X Units: Wavelength (micrometers)
Y Units:Reflectance (percent)
First X Value:  0.4000
Last X Value:  2.5000
Number of X Values: 826
Additional Information: mineral.silicate.phyllosilicate.coarse.vswir.ps-6b.jpl.beckman.ancillary.txt

 0.4000	 6.7900
 0.4010	 6.9300
 0.4020	 7.0400
 0.4030	 7.1700
 0.4040	 7.0500
 0.4050	 7.0400
 0.4060	 7.0900
 0.4070	 7.2200
 0.4080	 7.3300
 0.4090	 7.3100
 0.4100	 7.2700
 0.4110	 7.3300
 0.4120	 7.3900
 0.4130	 7.5000
 0.4140	 7.4400
 0.4150	 7.4000
 0.4160	 7.4500
 0.4170	 7.5600
 0.4180	 7.8000
 0.4190	 7.7400
 0.4200	 7.7500
 0.4210	 7.6300
 0.4220	 7.6900
 0.4230	 7.8400
 0.4240	 7.7900
 0.4250	 7.8000
 0.4260	 7.8500
 0.4270	 7.9700
 0.4280	 7.9700
 0.4290	 8.0800
 0.4300	 8.1300
 0.4310	 8.1200
 0.4320	 8.2500
 0.4330	 8.3300
 0.4340	 8.3800
 0.4350	 8.3900
 0.4360	 8.3300
 0.4370	 8.4500
 0.4380	 8.5700
 0.4390	 8.6800
 0.4400	 8.6100
 0.4410	 8.6000
 0.4420	 8.7400
 0.4430	 8.8400
 0.4440	 8.8400
 0.4450	 8.8700
 0.4460	 8.9200
 0.4470	 9.0900
 0.4480	 9.1600
 0.4490	 9.1600
 0.4500	 9.2200
 0.4510	 9.2600
 0.4520	 9.4300
 0.4530	 9.6500
 0.4540	 9.5700
 0.4550	 9.6000
 0.4560	 9.6700
 0.4570	 9.7600
 0.4580	 9.9100
 0.4590	 9.8900
 0.4600	10.0100
 0.4610	10.0000
 0.4620	10.0800
 0.4630	10.2200
 0.4640	10.2900
 0.4650	10.4500
 0.4660	10.4500
 0.4670	10.5500
 0.4680	10.7300
 0.4690	10.8500
 0.4700	10.9400
 0.4710	10.9800
 0.4720	11.0600
 0.4730	11.2400
 0.4740	11.3600
 0.4750	11.4400
 0.4760	11.4800
 0.4770	11.4600
 0.4780	11.6400
 0.4790	11.7900
 0.4800	11.8600
 0.4810	11.8900
 0.4820	11.8700
 0.4830	12.0200
 0.4840	12.1900
 0.4850	12.2200
 0.4860	12.3000
 0.4870	12.4000
 0.4880	12.6400
 0.4890	12.7600
 0.4900	12.7300
 0.4910	12.8000
 0.4920	12.8600
 0.4930	13.0100
 0.4940	13.2300
 0.4950	13.2500
 0.4960	13.4700
 0.4970	13.4400
 0.4980	13.5000
 0.4990	13.7200
 0.5000	13.8200
 0.5010	13.9400
 0.5020	13.9800
 0.5030	14.1000
 0.5040	14.2700
 0.5050	14.4800
 0.5060	14.7100
 0.5070	14.6800
 0.5080	14.8300
 0.5090	15.0500
 0.5100	15.0900
 0.5110	15.2400
 0.5120	15.3400
 0.5130	15.5400
 0.5140	15.9200
 0.5150	15.9200
 0.5160	16.1700
 0.5170	16.2700
 0.5180	16.5300
 0.5190	16.6100
 0.5200	16.8800
 0.5210	17.1800
 0.5220	17.3100
 0.5230	17.5900
 0.5240	17.7800
 0.5250	18.0300
 0.5260	18.3200
 0.5270	18.4400
 0.5280	18.7700
 0.5290	18.9100
 0.5300	19.3000
 0.5310	19.5600
 0.5320	19.7400
 0.5330	20.1700
 0.5340	20.4400
 0.5350	20.6200
 0.5360	20.9500
 0.5370	21.2400
 0.5380	21.6100
 0.5390	21.8800
 0.5400	22.0700
 0.5410	22.3600
 0.5420	22.6700
 0.5430	23.0300
 0.5440	23.2700
 0.5450	23.5200
 0.5460	24.0000
 0.5470	24.2100
 0.5480	24.4500
 0.5490	24.6900
 0.5500	25.0400
 0.5510	25.4400
 0.5520	25.6900
 0.5530	25.9000
 0.5540	26.2000
 0.5550	26.4500
 0.5560	26.8000
 0.5570	26.9400
 0.5580	27.1300
 0.5590	27.2800
 0.5600	27.3400
 0.5610	28.2300
 0.5620	28.4000
 0.5630	28.6300
 0.5640	28.8000
 0.5650	28.9400
 0.5660	29.1700
 0.5670	29.3200
 0.5680	29.5100
 0.5690	29.8000
 0.5700	29.7600
 0.5710	30.0300
 0.5720	30.0900
 0.5730	30.3200
 0.5740	30.5000
 0.5750	30.5100
 0.5760	30.7000
 0.5770	30.7800
 0.5780	30.9000
 0.5790	31.1400
 0.5800	31.1800
 0.5810	31.3100
 0.5820	31.2900
 0.5830	31.3900
 0.5840	31.6900
 0.5850	31.6300
 0.5860	31.8300
 0.5870	31.8700
 0.5880	32.0100
 0.5890	32.1100
 0.5900	32.0700
 0.5910	32.2300
 0.5920	32.1700
 0.5930	32.2900
 0.5940	32.3800
 0.5950	32.3100
 0.5960	32.4200
 0.5970	32.4400
 0.5980	32.5400
 0.5990	32.6100
 0.6000	32.5300
 0.6010	32.6800
 0.6020	32.6700
 0.6030	32.7600
 0.6040	32.8000
 0.6050	32.7000
 0.6060	32.9300
 0.6070	32.8500
 0.6080	32.8100
 0.6090	32.8300
 0.6100	32.7300
 0.6110	32.9600
 0.6120	32.8100
 0.6130	32.9000
 0.6140	32.9000
 0.6150	32.8100
 0.6160	32.9900
 0.6170	33.0000
 0.6180	32.9800
 0.6190	32.9600
 0.6200	32.7900
 0.6210	32.9800
 0.6220	32.9400
 0.6230	33.0400
 0.6240	33.0900
 0.6250	32.9400
 0.6260	33.1200
 0.6270	33.0300
 0.6280	33.0600
 0.6290	33.1000
 0.6300	32.9800
 0.6310	33.1300
 0.6320	33.0600
 0.6330	33.1800
 0.6340	33.2700
 0.6350	33.1500
 0.6360	33.2500
 0.6370	33.2000
 0.6380	33.2200
 0.6390	33.4300
 0.6400	33.4500
 0.6410	33.4800
 0.6420	33.4800
 0.6430	33.5800
 0.6440	33.6300
 0.6450	33.5000
 0.6460	33.5200
 0.6470	33.5400
 0.6480	33.6300
 0.6490	33.7700
 0.6500	33.6900
 0.6510	33.7600
 0.6520	33.7800
 0.6530	33.8700
 0.6540	33.9500
 0.6550	33.9200
 0.6560	33.9700
 0.6570	34.0100
 0.6580	34.0900
 0.6590	34.2400
 0.6600	34.1100
 0.6610	34.2800
 0.6620	34.3400
 0.6630	34.3800
 0.6640	34.5000
 0.6650	34.4200
 0.6660	34.6500
 0.6670	34.6200
 0.6680	34.6400
 0.6690	34.8600
 0.6700	34.8800
 0.6710	34.9700
 0.6720	34.9100
 0.6730	34.9900
 0.6740	35.1400
 0.6750	35.1600
 0.6760	35.3900
 0.6770	35.3900
 0.6780	35.3100
 0.6790	35.5800
 0.6800	35.6200
 0.6810	35.6900
 0.6820	35.7800
 0.6830	35.7800
 0.6840	36.0100
 0.6850	35.9500
 0.6860	36.1500
 0.6870	36.2600
 0.6880	36.2500
 0.6890	36.3500
 0.6900	36.4100
 0.6910	36.5800
 0.6920	36.6700
 0.6930	36.7000
 0.6940	36.8800
 0.6950	36.8100
 0.6960	37.0800
 0.6970	37.2200
 0.6980	37.1100
 0.6990	37.2200
 0.7000	37.2600
 0.7010	37.2600
 0.7020	37.4500
 0.7030	37.7000
 0.7040	37.6800
 0.7050	37.8300
 0.7060	37.9300
 0.7070	38.0000
 0.7080	38.1800
 0.7090	38.2000
 0.7100	38.3000
 0.7110	38.3200
 0.7120	38.4300
 0.7130	38.5700
 0.7140	38.7200
 0.7150	38.8300
 0.7160	38.7600
 0.7170	38.8300
 0.7180	38.9100
 0.7190	39.0300
 0.7200	39.1100
 0.7210	39.0700
 0.7220	39.1100
 0.7230	39.2900
 0.7240	39.3200
 0.7250	39.4000
 0.7260	39.4300
 0.7270	39.5300
 0.7280	39.6900
 0.7290	39.5900
 0.7300	39.8300
 0.7310	39.8200
 0.7320	39.8900
 0.7330	39.9400
 0.7340	39.9500
 0.7350	40.0500
 0.7360	40.1200
 0.7370	40.0700
 0.7380	40.1800
 0.7390	40.1400
 0.7400	40.3900
 0.7410	40.3700
 0.7420	40.2700
 0.7430	40.4000
 0.7440	40.3800
 0.7450	40.5600
 0.7460	40.5000
 0.7470	40.4900
 0.7480	40.5500
 0.7490	40.5400
 0.7500	40.7600
 0.7510	40.7100
 0.7520	40.6000
 0.7530	40.7100
 0.7540	40.7100
 0.7550	40.7700
 0.7560	40.8300
 0.7570	40.7400
 0.7580	40.7900
 0.7590	40.7900
 0.7600	40.8900
 0.7610	40.8700
 0.7620	40.7900
 0.7630	40.8000
 0.7640	40.8900
 0.7650	40.8100
 0.7660	40.8100
 0.7670	40.9400
 0.7680	40.9800
 0.7690	40.8100
 0.7700	40.9000
 0.7710	40.8900
 0.7720	40.8400
 0.7730	40.9500
 0.7740	40.9300
 0.7750	40.8700
 0.7760	40.7700
 0.7770	40.8900
 0.7780	40.9200
 0.7790	40.8200
 0.7800	40.7600
 0.7810	40.7900
 0.7820	40.7900
 0.7830	40.8300
 0.7840	40.7100
 0.7850	40.6400
 0.7860	40.7000
 0.7870	40.6800
 0.7880	40.7100
 0.7890	40.5300
 0.7900	40.4900
 0.7910	40.5800
 0.7920	40.6000
 0.7930	40.5700
 0.7940	40.3900
 0.7950	40.4000
 0.7960	40.4900
 0.7970	40.4400
 0.7980	40.3600
 0.7990	40.3700
 0.8000	40.3500
 0.8040	40.2800
 0.8080	40.1800
 0.8120	39.9500
 0.8160	39.8400
 0.8200	39.7100
 0.8240	39.5400
 0.8280	39.3600
 0.8320	39.2400
 0.8360	39.1500
 0.8400	39.0500
 0.8440	38.9100
 0.8480	38.7400
 0.8520	38.7500
 0.8560	38.6500
 0.8600	38.5800
 0.8640	38.4600
 0.8680	38.4500
 0.8720	38.3500
 0.8760	38.2800
 0.8800	38.2300
 0.8840	38.2200
 0.8880	38.1700
 0.8920	38.2200
 0.8960	38.2200
 0.9000	38.2100
 0.9040	38.2500
 0.9080	38.2500
 0.9120	38.2700
 0.9160	38.3300
 0.9200	38.4600
 0.9240	38.4600
 0.9280	38.5800
 0.9320	38.7100
 0.9360	38.8000
 0.9400	38.9000
 0.9440	39.0700
 0.9480	39.0700
 0.9520	39.2200
 0.9560	39.3800
 0.9600	39.4900
 0.9640	39.6900
 0.9680	39.8100
 0.9720	39.8300
 0.9760	40.0800
 0.9800	40.3000
 0.9840	40.3900
 0.9880	40.5700
 0.9920	40.7900
 0.9960	40.9500
 1.0000	41.0200
 1.0040	41.4300
 1.0080	41.5800
 1.0120	41.7600
 1.0160	41.9900
 1.0200	42.2400
 1.0240	42.4500
 1.0280	42.6500
 1.0320	42.8800
 1.0360	43.1800
 1.0400	43.4900
 1.0440	43.7000
 1.0480	43.9000
 1.0520	44.1700
 1.0560	44.4400
 1.0600	44.7100
 1.0640	44.9500
 1.0680	45.2500
 1.0720	45.4400
 1.0760	45.7300
 1.0800	46.0000
 1.0840	46.2400
 1.0880	46.5100
 1.0920	46.7400
 1.0960	47.0100
 1.1000	47.2900
 1.1040	47.5500
 1.1080	47.8400
 1.1120	48.0800
 1.1160	48.3700
 1.1200	48.5600
 1.1240	48.7600
 1.1280	49.0800
 1.1320	49.3100
 1.1360	49.4400
 1.1400	49.5900
 1.1440	49.8800
 1.1480	50.0300
 1.1520	50.1900
 1.1560	50.3900
 1.1600	50.6100
 1.1640	50.7900
 1.1680	51.0000
 1.1720	51.1800
 1.1760	51.3800
 1.1800	51.5900
 1.1840	51.6700
 1.1880	51.8800
 1.1920	51.9500
 1.1960	52.1300
 1.2000	52.1900
 1.2040	52.3200
 1.2080	52.3600
 1.2120	52.4700
 1.2160	52.5500
 1.2200	52.6200
 1.2240	52.7100
 1.2280	52.8100
 1.2320	52.8700
 1.2360	52.9100
 1.2400	52.9500
 1.2440	53.0800
 1.2480	53.1800
 1.2520	53.2600
 1.2560	53.2200
 1.2600	53.3300
 1.2640	53.4000
 1.2680	53.4300
 1.2720	53.6200
 1.2760	53.5900
 1.2800	53.5700
 1.2840	53.6700
 1.2880	53.7100
 1.2920	53.7200
 1.2960	53.8000
 1.3000	53.8400
 1.3040	53.8800
 1.3080	53.8200
 1.3120	53.8600
 1.3160	53.8400
 1.3200	53.8200
 1.3240	53.8400
 1.3280	53.9000
 1.3320	53.8400
 1.3360	53.9000
 1.3400	53.8100
 1.3440	53.7800
 1.3480	53.7900
 1.3520	53.7400
 1.3560	53.7900
 1.3600	53.7800
 1.3640	53.7200
 1.3680	53.6500
 1.3720	53.5800
 1.3760	53.4000
 1.3800	53.0900
 1.3840	52.7200
 1.3880	52.2400
 1.3920	51.7000
 1.3960	50.9400
 1.4000	50.2900
 1.4040	49.6000
 1.4080	49.2000
 1.4120	48.8900
 1.4160	48.8000
 1.4200	48.7600
 1.4240	48.7600
 1.4280	48.7700
 1.4320	48.8300
 1.4360	49.1700
 1.4400	49.7200
 1.4440	50.1900
 1.4480	50.4800
 1.4520	50.6600
 1.4560	50.7200
 1.4600	50.8400
 1.4640	50.9300
 1.4680	51.1900
 1.4720	51.3400
 1.4760	51.5900
 1.4800	51.7900
 1.4840	51.8500
 1.4880	52.0600
 1.4920	52.2700
 1.4960	52.3800
 1.5000	52.5000
 1.5040	52.5800
 1.5080	52.7900
 1.5120	52.8900
 1.5160	52.9900
 1.5200	52.9700
 1.5240	53.1400
 1.5280	53.2600
 1.5320	53.2900
 1.5360	53.4000
 1.5400	53.4600
 1.5440	53.5600
 1.5480	53.6400
 1.5520	53.7100
 1.5560	53.7400
 1.5600	53.9000
 1.5640	53.8800
 1.5680	53.8700
 1.5720	53.9900
 1.5760	53.9400
 1.5800	54.0400
 1.5840	54.0700
 1.5880	54.1300
 1.5920	54.1700
 1.5960	54.1800
 1.6000	54.1900
 1.6040	54.1400
 1.6080	54.2700
 1.6120	54.2300
 1.6160	54.2700
 1.6200	54.3200
 1.6240	54.2800
 1.6280	54.3800
 1.6320	54.3000
 1.6360	54.3100
 1.6400	54.3000
 1.6440	54.3000
 1.6480	54.3700
 1.6520	54.3600
 1.6560	54.3300
 1.6600	54.3700
 1.6640	54.4000
 1.6680	54.4200
 1.6720	54.4400
 1.6760	54.4400
 1.6800	54.5200
 1.6840	54.5500
 1.6880	54.5600
 1.6920	54.5600
 1.6960	54.6200
 1.7000	54.6400
 1.7040	54.6500
 1.7080	54.6800
 1.7120	54.6900
 1.7160	54.6200
 1.7200	54.5700
 1.7240	54.6500
 1.7280	54.5600
 1.7320	54.5500
 1.7360	54.5800
 1.7400	54.5000
 1.7440	54.4700
 1.7480	54.4300
 1.7520	54.3200
 1.7560	54.3300
 1.7600	54.3400
 1.7640	54.2900
 1.7680	54.2000
 1.7720	54.2600
 1.7760	54.1600
 1.7800	54.1700
 1.7840	54.1400
 1.7880	54.2100
 1.7920	54.2000
 1.7960	54.2300
 1.8000	54.2000
 1.8040	54.2800
 1.8080	54.2700
 1.8120	54.3400
 1.8160	54.2400
 1.8200	54.2300
 1.8240	54.3000
 1.8280	54.2300
 1.8320	54.2800
 1.8360	54.2300
 1.8400	54.2600
 1.8440	54.1200
 1.8480	53.9600
 1.8520	53.8100
 1.8560	53.5700
 1.8600	53.3200
 1.8640	52.9500
 1.8680	52.3600
 1.8720	51.6600
 1.8760	50.6300
 1.8800	49.5100
 1.8840	48.1000
 1.8880	46.5000
 1.8920	44.8000
 1.8960	43.2100
 1.9000	41.9500
 1.9040	41.1600
 1.9080	40.8600
 1.9120	40.9200
 1.9160	41.2400
 1.9200	41.6600
 1.9240	42.0500
 1.9280	42.4600
 1.9320	42.8300
 1.9360	43.1800
 1.9400	43.4100
 1.9440	43.7200
 1.9480	44.0200
 1.9520	44.2900
 1.9560	44.5000
 1.9600	44.7300
 1.9640	45.0800
 1.9680	45.4100
 1.9720	45.6700
 1.9760	46.0500
 1.9800	46.4500
 1.9840	46.7800
 1.9880	47.1300
 1.9920	47.4700
 1.9960	47.9100
 2.0000	48.1800
 2.0040	48.4500
 2.0080	48.7300
 2.0120	49.0500
 2.0160	49.4400
 2.0200	49.6400
 2.0240	49.8600
 2.0280	50.0900
 2.0320	50.3100
 2.0360	50.5200
 2.0400	50.6500
 2.0440	50.7900
 2.0480	50.9900
 2.0520	51.0700
 2.0560	51.1700
 2.0600	51.3600
 2.0640	51.4200
 2.0680	51.5600
 2.0720	51.6800
 2.0760	51.7900
 2.0800	51.8500
 2.0840	51.9700
 2.0880	52.0800
 2.0920	52.1800
 2.0960	52.2500
 2.1000	52.3600
 2.1040	52.5000
 2.1080	52.5700
 2.1120	52.7400
 2.1160	52.8300
 2.1200	52.8100
 2.1240	52.8800
 2.1280	52.8900
 2.1320	52.8900
 2.1360	52.8200
 2.1400	52.7700
 2.1440	52.6600
 2.1480	52.5900
 2.1520	52.4300
 2.1560	52.3200
 2.1600	52.0800
 2.1640	51.9100
 2.1680	51.7200
 2.1720	51.4400
 2.1760	51.1500
 2.1800	50.8500
 2.1840	50.6100
 2.1880	50.3000
 2.1920	50.0800
 2.1960	49.9000
 2.2000	49.7300
 2.2040	49.5900
 2.2080	49.4900
 2.2120	49.4000
 2.2160	49.4400
 2.2200	49.3800
 2.2240	49.4200
 2.2280	49.4700
 2.2320	49.3700
 2.2360	49.3200
 2.2400	49.2400
 2.2440	49.1600
 2.2480	48.9200
 2.2520	48.7300
 2.2560	48.3400
 2.2600	48.0100
 2.2640	47.5300
 2.2680	47.0200
 2.2720	46.6500
 2.2760	46.2600
 2.2800	46.0500
 2.2840	45.9400
 2.2880	46.1000
 2.2920	46.2100
 2.2960	46.6800
 2.3000	47.1300
 2.3040	47.2000
 2.3080	47.8000
 2.3120	48.1600
 2.3160	48.2900
 2.3200	48.4100
 2.3240	48.4000
 2.3280	48.4200
 2.3320	48.3400
 2.3360	48.3200
 2.3400	48.1700
 2.3440	48.0800
 2.3480	47.9200
 2.3520	47.7700
 2.3560	47.5400
 2.3600	47.3000
 2.3640	47.1000
 2.3680	46.8300
 2.3720	46.4800
 2.3760	46.1500
 2.3800	45.7900
 2.3840	45.4600
 2.3880	45.1700
 2.3920	44.8800
 2.3960	44.6600
 2.4000	44.4200
 2.4040	44.3500
 2.4080	44.1800
 2.4120	44.0400
 2.4160	43.8400
 2.4200	43.6800
 2.4240	43.5300
 2.4280	43.3400
 2.4320	43.1100
 2.4360	42.8900
 2.4400	42.6700
 2.4440	42.4300
 2.4480	42.1800
 2.4520	41.8300
 2.4560	41.5500
 2.4600	41.3200
 2.4640	41.0500
 2.4680	40.7200
 2.4720	40.4400
 2.4760	40.1700
 2.4800	39.9100
 2.4840	39.7300
 2.4880	39.5100
 2.4920	39.3900
 2.4960	39.1600
 2.5000	39.1100
