Name: Actinolite Ca_2(Mg,Fe^2+)_5Si_8O_22(OH)_2
Type: Mineral
Class: Silicate
Subclass: Inosilicate
Particle Size: Medium
Sample No.: IN-4A
Owner: JPL
Wavelength Range: VSWIR
Origin: USA, California, San Bernadino County, Wrightwood
Collection Date: N/A
Description: Particle size was 45-125um.Collected by Burminco Original ASTER Spectral Library name was jpl.beckman.mineral.silicate.inosilicate.medium.in04a.spectrum.txt
Measurement: Hemispherical reflectance
First Column: X
Second Column: Y
X Units: Wavelength (micrometers)
Y Units:Reflectance (percent)
First X Value:  0.4000
Last X Value:  2.5000
Number of X Values: 826
Additional Information: mineral.silicate.inosilicate.medium.vswir.in-4a.jpl.beckman.ancillary.txt

 0.4000	25.2900
 0.4010	25.4500
 0.4020	25.6700
 0.4030	25.7300
 0.4040	25.8200
 0.4050	26.0100
 0.4060	26.1200
 0.4070	26.1700
 0.4080	26.2400
 0.4090	26.3100
 0.4100	26.4800
 0.4110	26.5200
 0.4120	26.6600
 0.4130	26.8700
 0.4140	27.0200
 0.4150	27.1500
 0.4160	27.2700
 0.4170	27.4200
 0.4180	27.4800
 0.4190	27.6700
 0.4200	27.8500
 0.4210	27.9400
 0.4220	28.0600
 0.4230	28.1400
 0.4240	28.3200
 0.4250	28.4200
 0.4260	28.6600
 0.4270	28.7900
 0.4280	28.8300
 0.4290	28.9800
 0.4300	29.0400
 0.4310	29.1100
 0.4320	29.1500
 0.4330	29.1500
 0.4340	29.1300
 0.4350	29.2800
 0.4360	29.2100
 0.4370	29.3500
 0.4380	29.2800
 0.4390	29.3100
 0.4400	29.3100
 0.4410	29.4100
 0.4420	29.5100
 0.4430	29.5700
 0.4440	29.6700
 0.4450	29.6400
 0.4460	29.7800
 0.4470	29.8800
 0.4480	30.0000
 0.4490	30.1200
 0.4500	30.2400
 0.4510	30.2600
 0.4520	30.3400
 0.4530	30.5400
 0.4540	30.6200
 0.4550	30.7000
 0.4560	30.9000
 0.4570	30.9900
 0.4580	31.1400
 0.4590	31.2800
 0.4600	31.2600
 0.4610	31.5200
 0.4620	31.6000
 0.4630	31.7100
 0.4640	31.8300
 0.4650	32.1000
 0.4660	32.2400
 0.4670	32.3800
 0.4680	32.4800
 0.4690	32.4800
 0.4700	32.6800
 0.4710	32.7600
 0.4720	32.8600
 0.4730	32.9700
 0.4740	33.1500
 0.4750	33.4200
 0.4760	33.5400
 0.4770	33.6600
 0.4780	33.8400
 0.4790	34.0200
 0.4800	34.2000
 0.4810	34.4000
 0.4820	34.5000
 0.4830	34.6000
 0.4840	34.7200
 0.4850	34.8100
 0.4860	35.0200
 0.4870	35.0500
 0.4880	35.2300
 0.4890	35.1800
 0.4900	35.2800
 0.4910	35.4500
 0.4920	35.4200
 0.4930	35.5900
 0.4940	35.6800
 0.4950	35.7900
 0.4960	35.9800
 0.4970	36.2700
 0.4980	36.4000
 0.4990	36.5300
 0.5000	36.6300
 0.5010	36.7300
 0.5020	36.8500
 0.5030	36.9700
 0.5040	36.9200
 0.5050	37.0200
 0.5060	36.9800
 0.5070	36.9800
 0.5080	37.0300
 0.5090	37.1700
 0.5100	37.3300
 0.5110	37.4700
 0.5120	37.7400
 0.5130	37.8700
 0.5140	38.0300
 0.5150	38.0800
 0.5160	38.2400
 0.5170	38.3000
 0.5180	38.3800
 0.5190	38.3900
 0.5200	38.4800
 0.5210	38.4800
 0.5220	38.4900
 0.5230	38.5300
 0.5240	38.5900
 0.5250	38.6300
 0.5260	38.5300
 0.5270	38.6400
 0.5280	38.7300
 0.5290	38.6900
 0.5300	38.7000
 0.5310	38.6600
 0.5320	38.7200
 0.5330	38.7800
 0.5340	38.7500
 0.5350	38.6900
 0.5360	38.7900
 0.5370	38.7000
 0.5380	38.7900
 0.5390	38.7900
 0.5400	38.8200
 0.5410	38.7100
 0.5420	38.6600
 0.5430	38.6100
 0.5440	38.4500
 0.5450	38.3800
 0.5460	38.3900
 0.5470	38.3500
 0.5480	38.4800
 0.5490	38.4700
 0.5500	38.4800
 0.5510	38.4900
 0.5520	38.5000
 0.5530	38.5600
 0.5540	38.4900
 0.5550	38.5300
 0.5560	38.5100
 0.5570	38.5100
 0.5580	38.3400
 0.5590	38.4100
 0.5600	38.3400
 0.5610	38.2600
 0.5620	38.2900
 0.5630	38.2500
 0.5640	38.1700
 0.5650	38.2400
 0.5660	38.2100
 0.5670	38.0700
 0.5680	37.9600
 0.5690	37.9500
 0.5700	37.7500
 0.5710	37.6700
 0.5720	37.5500
 0.5730	37.4500
 0.5740	37.2200
 0.5750	37.0800
 0.5760	37.0500
 0.5770	37.0300
 0.5780	37.0400
 0.5790	36.8600
 0.5800	36.7700
 0.5810	36.6700
 0.5820	36.5700
 0.5830	36.4900
 0.5840	36.3000
 0.5850	36.3000
 0.5860	36.2500
 0.5870	36.2500
 0.5880	36.1700
 0.5890	36.1200
 0.5900	35.9800
 0.5910	35.7900
 0.5920	35.6800
 0.5930	35.4400
 0.5940	35.4400
 0.5950	35.5000
 0.5960	35.4000
 0.5970	35.3300
 0.5980	35.2500
 0.5990	35.2900
 0.6000	35.2500
 0.6010	35.0900
 0.6020	35.0700
 0.6030	34.9100
 0.6040	34.7000
 0.6050	34.6200
 0.6060	34.4600
 0.6070	34.4300
 0.6080	34.3400
 0.6090	34.2900
 0.6100	34.2200
 0.6110	34.1100
 0.6120	34.0100
 0.6130	33.9700
 0.6140	33.8900
 0.6150	33.7900
 0.6160	33.7400
 0.6170	33.6300
 0.6180	33.5300
 0.6190	33.4900
 0.6200	33.4100
 0.6210	33.2900
 0.6220	33.1700
 0.6230	32.9800
 0.6240	32.8800
 0.6250	32.9400
 0.6260	32.8700
 0.6270	32.8100
 0.6280	32.7100
 0.6290	32.8100
 0.6300	32.8500
 0.6310	32.7500
 0.6320	32.6300
 0.6330	32.5800
 0.6340	32.5000
 0.6350	32.4400
 0.6360	32.2600
 0.6370	32.2800
 0.6380	32.1800
 0.6390	32.2000
 0.6400	32.0700
 0.6410	32.1100
 0.6420	32.0900
 0.6430	32.1100
 0.6440	32.0800
 0.6450	31.9900
 0.6460	32.0500
 0.6470	31.9700
 0.6480	32.0900
 0.6490	32.0300
 0.6500	31.9900
 0.6510	31.9300
 0.6520	32.0500
 0.6530	31.9700
 0.6540	31.9300
 0.6550	31.8400
 0.6560	31.8000
 0.6570	31.7800
 0.6580	31.7000
 0.6590	31.6000
 0.6600	31.6400
 0.6610	31.7600
 0.6620	31.7600
 0.6630	31.8000
 0.6640	31.9300
 0.6650	32.0500
 0.6660	32.0500
 0.6670	31.9500
 0.6680	31.9100
 0.6690	31.9900
 0.6700	32.0100
 0.6710	31.9700
 0.6720	31.9700
 0.6730	32.0100
 0.6740	32.0800
 0.6750	32.0600
 0.6760	32.1200
 0.6770	32.1800
 0.6780	32.2400
 0.6790	32.2800
 0.6800	32.2600
 0.6810	32.3400
 0.6820	32.4400
 0.6830	32.4000
 0.6840	32.4400
 0.6850	32.3600
 0.6860	32.5000
 0.6870	32.4600
 0.6880	32.4600
 0.6890	32.4000
 0.6900	32.2400
 0.6910	32.2200
 0.6920	32.0900
 0.6930	32.1600
 0.6940	32.2600
 0.6950	32.3400
 0.6960	32.3100
 0.6970	32.4000
 0.6980	32.5000
 0.6990	32.6700
 0.7000	32.5400
 0.7010	32.5200
 0.7020	32.6700
 0.7030	32.7100
 0.7040	32.7100
 0.7050	32.8000
 0.7060	32.8600
 0.7070	32.8400
 0.7080	32.9400
 0.7090	33.0400
 0.7100	33.1200
 0.7110	33.2500
 0.7120	33.3500
 0.7130	33.4000
 0.7140	33.3800
 0.7150	33.3600
 0.7160	33.4400
 0.7170	33.5000
 0.7180	33.4900
 0.7190	33.4800
 0.7200	33.5300
 0.7210	33.6200
 0.7220	33.6300
 0.7230	33.6900
 0.7240	33.7800
 0.7250	33.8400
 0.7260	33.9900
 0.7270	33.9400
 0.7280	33.9400
 0.7290	33.9800
 0.7300	34.0700
 0.7310	34.0400
 0.7320	34.1100
 0.7330	34.1400
 0.7340	34.1400
 0.7350	34.2200
 0.7360	34.2500
 0.7370	34.3200
 0.7380	34.3300
 0.7390	34.3100
 0.7400	34.3300
 0.7410	34.3000
 0.7420	34.4000
 0.7430	34.4100
 0.7440	34.4800
 0.7450	34.4400
 0.7460	34.6000
 0.7470	34.6100
 0.7480	34.8000
 0.7490	34.7900
 0.7500	34.7700
 0.7510	34.8000
 0.7520	34.8100
 0.7530	34.8100
 0.7540	34.8600
 0.7550	34.8300
 0.7560	34.8400
 0.7570	34.9000
 0.7580	34.9400
 0.7590	34.9000
 0.7600	34.9400
 0.7610	35.0600
 0.7620	35.0500
 0.7630	35.1300
 0.7640	35.2500
 0.7650	35.1900
 0.7660	35.2400
 0.7670	35.1600
 0.7680	35.3000
 0.7690	35.3000
 0.7700	35.3000
 0.7710	35.3200
 0.7720	35.3900
 0.7730	35.4300
 0.7740	35.3900
 0.7750	35.4300
 0.7760	35.3700
 0.7770	35.4600
 0.7780	35.3800
 0.7790	35.4400
 0.7800	35.5300
 0.7810	35.6000
 0.7820	35.7300
 0.7830	35.7000
 0.7840	35.6500
 0.7850	35.6500
 0.7860	35.6300
 0.7870	35.5700
 0.7880	35.5100
 0.7890	35.5300
 0.7900	35.4800
 0.7910	35.6200
 0.7920	35.5100
 0.7930	35.5600
 0.7940	35.6000
 0.7950	35.5800
 0.7960	35.5900
 0.7970	35.6600
 0.7980	35.6200
 0.7990	35.6500
 0.8000	35.8400
 0.8040	35.7200
 0.8080	35.6400
 0.8120	35.4600
 0.8160	35.3000
 0.8200	35.1100
 0.8240	34.9700
 0.8280	34.6900
 0.8320	34.5700
 0.8360	34.3900
 0.8400	34.1300
 0.8440	33.8400
 0.8480	33.6700
 0.8520	33.4100
 0.8560	33.1800
 0.8600	33.0100
 0.8640	32.8000
 0.8680	32.6000
 0.8720	32.3800
 0.8760	32.1300
 0.8800	31.9700
 0.8840	31.7500
 0.8880	31.6100
 0.8920	31.4300
 0.8960	31.2200
 0.9000	31.0400
 0.9040	30.8200
 0.9080	30.6500
 0.9120	30.3300
 0.9160	30.2100
 0.9200	30.0100
 0.9240	29.7900
 0.9280	29.5300
 0.9320	29.3300
 0.9360	29.0500
 0.9400	28.8300
 0.9440	28.4600
 0.9480	28.0600
 0.9520	27.9000
 0.9560	27.6000
 0.9600	27.3300
 0.9640	27.0400
 0.9680	26.6900
 0.9720	26.3900
 0.9760	25.9900
 0.9800	25.6700
 0.9840	25.3400
 0.9880	25.0300
 0.9920	24.7700
 0.9960	24.5300
 1.0000	24.4500
 1.0040	24.0900
 1.0080	23.9200
 1.0120	23.8200
 1.0160	23.6800
 1.0200	23.6700
 1.0240	23.6100
 1.0280	23.6200
 1.0320	23.6200
 1.0360	23.8200
 1.0400	23.9600
 1.0440	24.2200
 1.0480	24.5000
 1.0520	24.8900
 1.0560	25.2700
 1.0600	25.8000
 1.0640	26.3600
 1.0680	26.9700
 1.0720	27.5600
 1.0760	28.2100
 1.0800	28.9200
 1.0840	29.5300
 1.0880	30.2000
 1.0920	30.8300
 1.0960	31.5500
 1.1000	32.1500
 1.1040	32.7200
 1.1080	33.2200
 1.1120	33.8000
 1.1160	34.2900
 1.1200	34.8600
 1.1240	35.3600
 1.1280	35.8100
 1.1320	36.2900
 1.1360	36.6900
 1.1400	37.1600
 1.1440	37.5300
 1.1480	37.9000
 1.1520	38.2700
 1.1560	38.6600
 1.1600	39.0900
 1.1640	39.4000
 1.1680	39.8300
 1.1720	40.2000
 1.1760	40.6100
 1.1800	40.9500
 1.1840	41.4000
 1.1880	41.8400
 1.1920	42.2300
 1.1960	42.5400
 1.2000	42.9700
 1.2040	43.3500
 1.2080	43.7900
 1.2120	44.1200
 1.2160	44.6300
 1.2200	45.0400
 1.2240	45.4200
 1.2280	45.9000
 1.2320	46.3400
 1.2360	46.8100
 1.2400	47.2200
 1.2440	47.6800
 1.2480	48.0300
 1.2520	48.5500
 1.2560	48.9800
 1.2600	49.3800
 1.2640	49.8100
 1.2680	50.2100
 1.2720	50.6100
 1.2760	51.0200
 1.2800	51.5800
 1.2840	52.0500
 1.2880	52.4400
 1.2920	52.8600
 1.2960	53.1900
 1.3000	53.7600
 1.3040	54.1500
 1.3080	54.6200
 1.3120	55.0100
 1.3160	55.3100
 1.3200	55.6900
 1.3240	55.9800
 1.3280	56.4300
 1.3320	56.8900
 1.3360	57.2400
 1.3400	57.5900
 1.3440	58.0100
 1.3480	58.2800
 1.3520	58.6300
 1.3560	59.0100
 1.3600	59.2200
 1.3640	59.4400
 1.3680	59.5700
 1.3720	59.5400
 1.3760	59.6700
 1.3800	59.0400
 1.3840	55.4000
 1.3880	49.5300
 1.3920	46.0900
 1.3960	47.1200
 1.4000	51.6100
 1.4040	55.5100
 1.4080	58.5400
 1.4120	60.3800
 1.4160	61.6800
 1.4200	62.6500
 1.4240	63.2700
 1.4280	63.5000
 1.4320	63.8300
 1.4360	64.1000
 1.4400	64.3200
 1.4440	64.5600
 1.4480	64.7700
 1.4520	64.9400
 1.4560	65.1800
 1.4600	65.3600
 1.4640	65.5900
 1.4680	65.7700
 1.4720	66.0200
 1.4760	66.2200
 1.4800	66.3100
 1.4840	66.5400
 1.4880	66.7300
 1.4920	66.9000
 1.4960	67.0300
 1.5000	67.1300
 1.5040	67.2300
 1.5080	67.5200
 1.5120	67.5600
 1.5160	67.6900
 1.5200	67.8300
 1.5240	67.9400
 1.5280	67.9000
 1.5320	68.1300
 1.5360	68.2000
 1.5400	68.3300
 1.5440	68.5100
 1.5480	68.6500
 1.5520	68.7700
 1.5560	68.9600
 1.5600	69.0000
 1.5640	69.1400
 1.5680	69.2800
 1.5720	69.4200
 1.5760	69.4800
 1.5800	69.6800
 1.5840	69.7200
 1.5880	69.9300
 1.5920	69.9700
 1.5960	70.1300
 1.6000	70.2100
 1.6040	70.3200
 1.6080	70.4600
 1.6120	70.5000
 1.6160	70.5800
 1.6200	70.6200
 1.6240	70.7200
 1.6280	70.8200
 1.6320	70.9900
 1.6360	70.9600
 1.6400	71.1300
 1.6440	71.2200
 1.6480	71.2900
 1.6520	71.3000
 1.6560	71.4200
 1.6600	71.4800
 1.6640	71.5500
 1.6680	71.5500
 1.6720	71.7400
 1.6760	71.7500
 1.6800	71.8100
 1.6840	71.8000
 1.6880	71.9900
 1.6920	71.9100
 1.6960	72.0200
 1.7000	72.0400
 1.7040	72.0800
 1.7080	72.0800
 1.7120	72.2100
 1.7160	72.2100
 1.7200	72.1900
 1.7240	72.1500
 1.7280	72.2000
 1.7320	72.1200
 1.7360	72.1800
 1.7400	72.1300
 1.7440	72.1500
 1.7480	72.1800
 1.7520	72.0800
 1.7560	72.1600
 1.7600	72.1400
 1.7640	72.2100
 1.7680	72.1700
 1.7720	72.1300
 1.7760	72.0700
 1.7800	72.1500
 1.7840	72.0200
 1.7880	72.0200
 1.7920	72.0500
 1.7960	72.0400
 1.8000	72.0400
 1.8040	71.9200
 1.8080	71.8800
 1.8120	71.6500
 1.8160	71.6800
 1.8200	71.5800
 1.8240	71.5300
 1.8280	71.4100
 1.8320	71.3200
 1.8360	71.1200
 1.8400	71.1300
 1.8440	70.9000
 1.8480	70.8000
 1.8520	70.6400
 1.8560	70.6000
 1.8600	70.4900
 1.8640	70.4600
 1.8680	70.3600
 1.8720	70.2100
 1.8760	70.1100
 1.8800	69.8900
 1.8840	69.8100
 1.8880	69.6700
 1.8920	69.6400
 1.8960	69.5100
 1.9000	69.3700
 1.9040	69.2000
 1.9080	69.0900
 1.9120	68.9500
 1.9160	68.8700
 1.9200	68.6600
 1.9240	68.7000
 1.9280	68.5100
 1.9320	68.3000
 1.9360	68.1400
 1.9400	67.9900
 1.9440	67.8000
 1.9480	67.7300
 1.9520	67.5300
 1.9560	67.3400
 1.9600	67.1300
 1.9640	67.0200
 1.9680	66.7600
 1.9720	66.7100
 1.9760	66.4700
 1.9800	66.1700
 1.9840	65.9500
 1.9880	65.8500
 1.9920	65.7100
 1.9960	65.5600
 2.0000	65.5000
 2.0040	65.2200
 2.0080	65.2600
 2.0120	65.1100
 2.0160	65.1600
 2.0200	65.0900
 2.0240	65.0600
 2.0280	65.0300
 2.0320	64.9400
 2.0360	64.8200
 2.0400	64.6000
 2.0440	64.4300
 2.0480	64.2600
 2.0520	64.0200
 2.0560	63.7600
 2.0600	63.6100
 2.0640	63.3800
 2.0680	63.1800
 2.0720	62.8900
 2.0760	62.8600
 2.0800	62.6100
 2.0840	62.4200
 2.0880	61.9300
 2.0920	61.7200
 2.0960	61.3400
 2.1000	60.9300
 2.1040	60.4400
 2.1080	60.1000
 2.1120	59.8100
 2.1160	59.5900
 2.1200	59.4200
 2.1240	59.2500
 2.1280	59.2500
 2.1320	59.1600
 2.1360	59.2500
 2.1400	59.2100
 2.1440	59.2000
 2.1480	59.1500
 2.1520	59.1800
 2.1560	59.0800
 2.1600	59.0600
 2.1640	58.9100
 2.1680	58.8900
 2.1720	58.7600
 2.1760	58.6800
 2.1800	58.5600
 2.1840	58.3300
 2.1880	58.2600
 2.1920	58.0100
 2.1960	57.9100
 2.2000	57.6800
 2.2040	57.5600
 2.2080	57.2200
 2.2120	57.1300
 2.2160	56.7500
 2.2200	56.4000
 2.2240	55.8900
 2.2280	55.3700
 2.2320	54.7000
 2.2360	54.1300
 2.2400	53.5300
 2.2440	52.9000
 2.2480	52.2700
 2.2520	51.6100
 2.2560	50.9000
 2.2600	50.0000
 2.2640	49.0700
 2.2680	47.8500
 2.2720	46.7000
 2.2760	45.2600
 2.2800	43.7900
 2.2840	42.2800
 2.2880	40.6200
 2.2920	39.0300
 2.2960	37.7200
 2.3000	36.8200
 2.3040	36.6400
 2.3080	36.3200
 2.3120	36.6900
 2.3160	37.5100
 2.3200	38.5800
 2.3240	39.9100
 2.3280	41.4000
 2.3320	42.8900
 2.3360	44.2300
 2.3400	45.4000
 2.3440	46.1700
 2.3480	46.6100
 2.3520	46.6200
 2.3560	46.3200
 2.3600	45.6600
 2.3640	44.8200
 2.3680	43.7300
 2.3720	42.7400
 2.3760	41.8500
 2.3800	41.1800
 2.3840	40.8000
 2.3880	40.8100
 2.3920	41.0300
 2.3960	41.6100
 2.4000	42.1700
 2.4040	42.9500
 2.4080	43.6400
 2.4120	44.3500
 2.4160	44.9000
 2.4200	45.3600
 2.4240	45.6300
 2.4280	45.9100
 2.4320	45.9000
 2.4360	45.9200
 2.4400	45.7800
 2.4440	45.8100
 2.4480	45.5200
 2.4520	45.5500
 2.4560	45.3300
 2.4600	45.2400
 2.4640	45.1200
 2.4680	45.1800
 2.4720	45.0700
 2.4760	45.0900
 2.4800	45.2500
 2.4840	45.3500
 2.4880	45.4400
 2.4920	45.6000
 2.4960	45.7300
 2.5000	46.0000
