Name: Tourmaline Na(Mg_3,Fe_3^2+)Al_6(BO_3)_3Si_6O_18(OH)_4
Type: Mineral
Class: Silicate
Subclass: Cyclosilicate
Particle Size: Medium
Sample No.: CS-1A
Owner: JPL
Wavelength Range: VSWIR
Origin: USA, New York, Overlook
Collection Date: N/A
Description: Particle size was 45-125um.Collected by Ward's Original ASTER Spectral Library name was jpl.beckman.mineral.silicate.cyclosilicate.medium.cs01a.spectrum.txt
Measurement: Hemispherical reflectance
First Column: X
Second Column: Y
X Units: Wavelength (micrometers)
Y Units:Reflectance (percent)
First X Value:  0.4000
Last X Value:  2.5000
Number of X Values: 826
Additional Information: mineral.silicate.cyclosilicate.medium.vswir.cs-1a.jpl.beckman.ancillary.txt

 0.4000	 1.9800
 0.4010	 1.9200
 0.4020	 2.0400
 0.4030	 1.9200
 0.4040	 1.8600
 0.4050	 1.9800
 0.4060	 1.8600
 0.4070	 1.9800
 0.4080	 1.9200
 0.4090	 1.8500
 0.4100	 1.9700
 0.4110	 1.8600
 0.4120	 1.9200
 0.4130	 1.8600
 0.4140	 1.8600
 0.4150	 1.9200
 0.4160	 1.9200
 0.4170	 1.9100
 0.4180	 1.9100
 0.4190	 1.7300
 0.4200	 1.9800
 0.4210	 1.8000
 0.4220	 1.9200
 0.4230	 1.9100
 0.4240	 1.7900
 0.4250	 1.9100
 0.4260	 1.8600
 0.4270	 1.9700
 0.4280	 1.8500
 0.4290	 1.7300
 0.4300	 1.9100
 0.4310	 1.9100
 0.4320	 1.9100
 0.4330	 1.8500
 0.4340	 1.7900
 0.4350	 1.9100
 0.4360	 1.8500
 0.4370	 1.9200
 0.4380	 1.8000
 0.4390	 1.7300
 0.4400	 1.8500
 0.4410	 1.7900
 0.4420	 1.7900
 0.4430	 1.9100
 0.4440	 1.6700
 0.4450	 1.8500
 0.4460	 1.7900
 0.4470	 1.8500
 0.4480	 1.8500
 0.4490	 1.7300
 0.4500	 1.7900
 0.4510	 1.6700
 0.4520	 1.7900
 0.4530	 1.7900
 0.4540	 1.7200
 0.4550	 1.8400
 0.4560	 1.7700
 0.4570	 1.7700
 0.4580	 1.7600
 0.4590	 1.7000
 0.4600	 1.7700
 0.4610	 1.6700
 0.4620	 1.7200
 0.4630	 1.7300
 0.4640	 1.6700
 0.4650	 1.7900
 0.4660	 1.6700
 0.4670	 1.7300
 0.4680	 1.7300
 0.4690	 1.6700
 0.4700	 1.7900
 0.4710	 1.7300
 0.4720	 1.7300
 0.4730	 1.7300
 0.4740	 1.6600
 0.4750	 1.7900
 0.4760	 1.7200
 0.4770	 1.6600
 0.4780	 1.7800
 0.4790	 1.7200
 0.4800	 1.7800
 0.4810	 1.6600
 0.4820	 1.6600
 0.4830	 1.6600
 0.4840	 1.6600
 0.4850	 1.7100
 0.4860	 1.6500
 0.4870	 1.5300
 0.4880	 1.7700
 0.4890	 1.7100
 0.4900	 1.7700
 0.4910	 1.6500
 0.4920	 1.5800
 0.4930	 1.7000
 0.4940	 1.6400
 0.4950	 1.7500
 0.4960	 1.5700
 0.4970	 1.6300
 0.4980	 1.6300
 0.4990	 1.6300
 0.5000	 1.7500
 0.5010	 1.6800
 0.5020	 1.6800
 0.5030	 1.6800
 0.5040	 1.5700
 0.5050	 1.7400
 0.5060	 1.6800
 0.5070	 1.6800
 0.5080	 1.6800
 0.5090	 1.5500
 0.5100	 1.7300
 0.5110	 1.6700
 0.5120	 1.6100
 0.5130	 1.5600
 0.5140	 1.5000
 0.5150	 1.6200
 0.5160	 1.6200
 0.5170	 1.6700
 0.5180	 1.6800
 0.5190	 1.6200
 0.5200	 1.6800
 0.5210	 1.6100
 0.5220	 1.6100
 0.5230	 1.7300
 0.5240	 1.6700
 0.5250	 1.5000
 0.5260	 1.6800
 0.5270	 1.6800
 0.5280	 1.6800
 0.5290	 1.5600
 0.5300	 1.5600
 0.5310	 1.6300
 0.5320	 1.5700
 0.5330	 1.6300
 0.5340	 1.5900
 0.5350	 1.5900
 0.5360	 1.5900
 0.5370	 1.4700
 0.5380	 1.6500
 0.5390	 1.6600
 0.5400	 1.5900
 0.5410	 1.6000
 0.5420	 1.4700
 0.5430	 1.6500
 0.5440	 1.5900
 0.5450	 1.5800
 0.5460	 1.6400
 0.5470	 1.5200
 0.5480	 1.5800
 0.5490	 1.5700
 0.5500	 1.6900
 0.5510	 1.6900
 0.5520	 1.5700
 0.5530	 1.6300
 0.5540	 1.6300
 0.5550	 1.5700
 0.5560	 1.6800
 0.5570	 1.5700
 0.5580	 1.5800
 0.5590	 1.5900
 0.5600	 1.5600
 0.5610	 1.6700
 0.5620	 1.4400
 0.5630	 1.6700
 0.5640	 1.6100
 0.5650	 1.5500
 0.5660	 1.5600
 0.5670	 1.5000
 0.5680	 1.6100
 0.5690	 1.6100
 0.5700	 1.5500
 0.5710	 1.5600
 0.5720	 1.3900
 0.5730	 1.5700
 0.5740	 1.4700
 0.5750	 1.4800
 0.5760	 1.4900
 0.5770	 1.3700
 0.5780	 1.6100
 0.5790	 1.4900
 0.5800	 1.4900
 0.5810	 1.4900
 0.5820	 1.4300
 0.5830	 1.6100
 0.5840	 1.6100
 0.5850	 1.5500
 0.5860	 1.5500
 0.5870	 1.4900
 0.5880	 1.4900
 0.5890	 1.4900
 0.5900	 1.4900
 0.5910	 1.4900
 0.5920	 1.4300
 0.5930	 1.4900
 0.5940	 1.5500
 0.5950	 1.4800
 0.5960	 1.4800
 0.5970	 1.4800
 0.5980	 1.5300
 0.5990	 1.5300
 0.6000	 1.5200
 0.6010	 1.5700
 0.6020	 1.5600
 0.6030	 1.5600
 0.6040	 1.5600
 0.6050	 1.5000
 0.6060	 1.5500
 0.6070	 1.6100
 0.6080	 1.5500
 0.6090	 1.5500
 0.6100	 1.4900
 0.6110	 1.6100
 0.6120	 1.6100
 0.6130	 1.4400
 0.6140	 1.5500
 0.6150	 1.5500
 0.6160	 1.5500
 0.6170	 1.4900
 0.6180	 1.3800
 0.6190	 1.4900
 0.6200	 1.6100
 0.6210	 1.5500
 0.6220	 1.4900
 0.6230	 1.4400
 0.6240	 1.5500
 0.6250	 1.3800
 0.6260	 1.6100
 0.6270	 1.4900
 0.6280	 1.3200
 0.6290	 1.4900
 0.6300	 1.4900
 0.6310	 1.5500
 0.6320	 1.4300
 0.6330	 1.4300
 0.6340	 1.5000
 0.6350	 1.3200
 0.6360	 1.5600
 0.6370	 1.5000
 0.6380	 1.3800
 0.6390	 1.4900
 0.6400	 1.4300
 0.6410	 1.4900
 0.6420	 1.5500
 0.6430	 1.4300
 0.6440	 1.4900
 0.6450	 1.3200
 0.6460	 1.5500
 0.6470	 1.4400
 0.6480	 1.4400
 0.6490	 1.5000
 0.6500	 1.3800
 0.6510	 1.5500
 0.6520	 1.4900
 0.6530	 1.3800
 0.6540	 1.5500
 0.6550	 1.4400
 0.6560	 1.5500
 0.6570	 1.4900
 0.6580	 1.4900
 0.6590	 1.4900
 0.6600	 1.3800
 0.6610	 1.6100
 0.6620	 1.5500
 0.6630	 1.4900
 0.6640	 1.4900
 0.6650	 1.4300
 0.6660	 1.5500
 0.6670	 1.4400
 0.6680	 1.4300
 0.6690	 1.5500
 0.6700	 1.3700
 0.6710	 1.4900
 0.6720	 1.4400
 0.6730	 1.4400
 0.6740	 1.5600
 0.6750	 1.3200
 0.6760	 1.6100
 0.6770	 1.4900
 0.6780	 1.4300
 0.6790	 1.4300
 0.6800	 1.3700
 0.6810	 1.6100
 0.6820	 1.4900
 0.6830	 1.4300
 0.6840	 1.4900
 0.6850	 1.3200
 0.6860	 1.5500
 0.6870	 1.5500
 0.6880	 1.4900
 0.6890	 1.4900
 0.6900	 1.4300
 0.6910	 1.6100
 0.6920	 1.5500
 0.6930	 1.4900
 0.6940	 1.4300
 0.6950	 1.3700
 0.6960	 1.5500
 0.6970	 1.5000
 0.6980	 1.3900
 0.6990	 1.4600
 0.7000	 1.4600
 0.7010	 1.6000
 0.7020	 1.5400
 0.7030	 1.4300
 0.7040	 1.5500
 0.7050	 1.5500
 0.7060	 1.5500
 0.7070	 1.4900
 0.7080	 1.4900
 0.7090	 1.4900
 0.7100	 1.4900
 0.7110	 1.5500
 0.7120	 1.5500
 0.7130	 1.4900
 0.7140	 1.5500
 0.7150	 1.6100
 0.7160	 1.6100
 0.7170	 1.5500
 0.7180	 1.4300
 0.7190	 1.5500
 0.7200	 1.6000
 0.7210	 1.6100
 0.7220	 1.6000
 0.7230	 1.4900
 0.7240	 1.6000
 0.7250	 1.6100
 0.7260	 1.6100
 0.7270	 1.5500
 0.7280	 1.4900
 0.7290	 1.6000
 0.7300	 1.6000
 0.7310	 1.5500
 0.7320	 1.6100
 0.7330	 1.4300
 0.7340	 1.6000
 0.7350	 1.5500
 0.7360	 1.5500
 0.7370	 1.5500
 0.7380	 1.3800
 0.7390	 1.6600
 0.7400	 1.5500
 0.7410	 1.6000
 0.7420	 1.5500
 0.7430	 1.4300
 0.7440	 1.6600
 0.7450	 1.4900
 0.7460	 1.4900
 0.7470	 1.5500
 0.7480	 1.4300
 0.7490	 1.6000
 0.7500	 1.5400
 0.7510	 1.6600
 0.7520	 1.7200
 0.7530	 1.7200
 0.7540	 1.8900
 0.7550	 1.8400
 0.7560	 1.9000
 0.7570	 1.8300
 0.7580	 1.6000
 0.7590	 1.6600
 0.7600	 1.6000
 0.7610	 1.6000
 0.7620	 1.5400
 0.7630	 1.4800
 0.7640	 1.6000
 0.7650	 1.5500
 0.7660	 1.6600
 0.7670	 1.6600
 0.7680	 1.5400
 0.7690	 1.6000
 0.7700	 1.5400
 0.7710	 1.6000
 0.7720	 1.7100
 0.7730	 1.5500
 0.7740	 1.7200
 0.7750	 1.6600
 0.7760	 1.6600
 0.7770	 1.7200
 0.7780	 1.6000
 0.7790	 1.8300
 0.7800	 1.9400
 0.7810	 1.8900
 0.7820	 1.8300
 0.7830	 1.7200
 0.7840	 1.7700
 0.7850	 1.8300
 0.7860	 1.8300
 0.7870	 1.8900
 0.7880	 1.7700
 0.7890	 1.7700
 0.7900	 1.7100
 0.7910	 1.7700
 0.7920	 1.8900
 0.7930	 1.8300
 0.7940	 1.7100
 0.7950	 1.7200
 0.7960	 1.7200
 0.7970	 1.8400
 0.7980	 1.7800
 0.7990	 1.8500
 0.8000	 2.2300
 0.8040	 2.1800
 0.8080	 2.1900
 0.8120	 2.1900
 0.8160	 2.2400
 0.8200	 2.2000
 0.8240	 2.2500
 0.8280	 2.2500
 0.8320	 2.2500
 0.8360	 2.3100
 0.8400	 2.2500
 0.8440	 2.3100
 0.8480	 2.3200
 0.8520	 2.2600
 0.8560	 2.3200
 0.8600	 2.2600
 0.8640	 2.3200
 0.8680	 2.3800
 0.8720	 2.3200
 0.8760	 2.3200
 0.8800	 2.3800
 0.8840	 2.3800
 0.8880	 2.3200
 0.8920	 2.3200
 0.8960	 2.3200
 0.9000	 2.2600
 0.9040	 2.3200
 0.9080	 2.2600
 0.9120	 2.3200
 0.9160	 2.3800
 0.9200	 2.3200
 0.9240	 2.3800
 0.9280	 2.3800
 0.9320	 2.3900
 0.9360	 2.3800
 0.9400	 2.3800
 0.9440	 2.3200
 0.9480	 2.3200
 0.9520	 2.3300
 0.9560	 2.3300
 0.9600	 2.3800
 0.9640	 2.2700
 0.9680	 2.3200
 0.9720	 2.3200
 0.9760	 2.3300
 0.9800	 2.2600
 0.9840	 2.2600
 0.9880	 2.2000
 0.9920	 2.1900
 0.9960	 2.1700
 1.0000	 2.2100
 1.0040	 2.2100
 1.0080	 2.2000
 1.0120	 2.2000
 1.0160	 2.1400
 1.0200	 2.1400
 1.0240	 2.1400
 1.0280	 2.1500
 1.0320	 2.1500
 1.0360	 2.2100
 1.0400	 2.1400
 1.0440	 2.1400
 1.0480	 2.1400
 1.0520	 2.2000
 1.0560	 2.2000
 1.0600	 2.1400
 1.0640	 2.2000
 1.0680	 2.1800
 1.0720	 2.2400
 1.0760	 2.2300
 1.0800	 2.1600
 1.0840	 2.1500
 1.0880	 2.1500
 1.0920	 2.2000
 1.0960	 2.2000
 1.1000	 2.2500
 1.1040	 2.1900
 1.1080	 2.2600
 1.1120	 2.2600
 1.1160	 2.2700
 1.1200	 2.2200
 1.1240	 2.1600
 1.1280	 2.1100
 1.1320	 2.1700
 1.1360	 2.1700
 1.1400	 2.1800
 1.1440	 2.1900
 1.1480	 2.1300
 1.1520	 2.1300
 1.1560	 2.1900
 1.1600	 2.1400
 1.1640	 2.0800
 1.1680	 2.1400
 1.1720	 2.1400
 1.1760	 2.1400
 1.1800	 2.2000
 1.1840	 2.2000
 1.1880	 2.1400
 1.1920	 2.1900
 1.1960	 2.1900
 1.2000	 2.2400
 1.2040	 2.1800
 1.2080	 2.1800
 1.2120	 2.1300
 1.2160	 2.1300
 1.2200	 2.1200
 1.2240	 2.1700
 1.2280	 2.1700
 1.2320	 2.2200
 1.2360	 2.1600
 1.2400	 2.2100
 1.2440	 2.2000
 1.2480	 2.2000
 1.2520	 2.2000
 1.2560	 2.1900
 1.2600	 2.2300
 1.2640	 2.2400
 1.2680	 2.3000
 1.2720	 2.2400
 1.2760	 2.2400
 1.2800	 2.2500
 1.2840	 2.1200
 1.2880	 2.1800
 1.2920	 2.1800
 1.2960	 2.2300
 1.3000	 2.2400
 1.3040	 2.1800
 1.3080	 2.2500
 1.3120	 2.2500
 1.3160	 2.1900
 1.3200	 2.2400
 1.3240	 2.2300
 1.3280	 2.2900
 1.3320	 2.2900
 1.3360	 2.2400
 1.3400	 2.3000
 1.3440	 2.2900
 1.3480	 2.2400
 1.3520	 2.2900
 1.3560	 2.2800
 1.3600	 2.3000
 1.3640	 2.2900
 1.3680	 2.3600
 1.3720	 2.3500
 1.3760	 2.3900
 1.3800	 2.3600
 1.3840	 2.4200
 1.3880	 2.3500
 1.3920	 2.4100
 1.3960	 2.3600
 1.4000	 2.4200
 1.4040	 2.4200
 1.4080	 2.4200
 1.4120	 2.4700
 1.4160	 2.4100
 1.4200	 2.3500
 1.4240	 2.4100
 1.4280	 2.4200
 1.4320	 2.4200
 1.4360	 2.4100
 1.4400	 2.4700
 1.4440	 2.4100
 1.4480	 2.5300
 1.4520	 2.5200
 1.4560	 2.4800
 1.4600	 2.5900
 1.4640	 2.5400
 1.4680	 2.5500
 1.4720	 2.6000
 1.4760	 2.5400
 1.4800	 2.6000
 1.4840	 2.6000
 1.4880	 2.5900
 1.4920	 2.6500
 1.4960	 2.7100
 1.5000	 2.6000
 1.5040	 2.7000
 1.5080	 2.7000
 1.5120	 2.7000
 1.5160	 2.7100
 1.5200	 2.7100
 1.5240	 2.8200
 1.5280	 2.7600
 1.5320	 2.8200
 1.5360	 2.8200
 1.5400	 2.7600
 1.5440	 2.8800
 1.5480	 2.9300
 1.5520	 2.8800
 1.5560	 2.8800
 1.5600	 2.8900
 1.5640	 2.9500
 1.5680	 3.0000
 1.5720	 3.1100
 1.5760	 3.1000
 1.5800	 3.1000
 1.5840	 3.1500
 1.5880	 3.2100
 1.5920	 3.1500
 1.5960	 3.2700
 1.6000	 3.2200
 1.6040	 3.2800
 1.6080	 3.3400
 1.6120	 3.3300
 1.6160	 3.4000
 1.6200	 3.4600
 1.6240	 3.4500
 1.6280	 3.5000
 1.6320	 3.5700
 1.6360	 3.5700
 1.6400	 3.5500
 1.6440	 3.6200
 1.6480	 3.6200
 1.6520	 3.6900
 1.6560	 3.7400
 1.6600	 3.7400
 1.6640	 3.8300
 1.6680	 3.8300
 1.6720	 3.8300
 1.6760	 3.9000
 1.6800	 3.8900
 1.6840	 3.9600
 1.6880	 4.0000
 1.6920	 4.0600
 1.6960	 4.1300
 1.7000	 4.1300
 1.7040	 4.2300
 1.7080	 4.2800
 1.7120	 4.3500
 1.7160	 4.3600
 1.7200	 4.4600
 1.7240	 4.4500
 1.7280	 4.5200
 1.7320	 4.5600
 1.7360	 4.6300
 1.7400	 4.6200
 1.7440	 4.8100
 1.7480	 4.8200
 1.7520	 4.8800
 1.7560	 4.9600
 1.7600	 5.0000
 1.7640	 5.0600
 1.7680	 5.1800
 1.7720	 5.2800
 1.7760	 5.3800
 1.7800	 5.4500
 1.7840	 5.4800
 1.7880	 5.5900
 1.7920	 5.6500
 1.7960	 5.7400
 1.8000	 5.7200
 1.8040	 5.7700
 1.8080	 5.9500
 1.8120	 5.9900
 1.8160	 6.0100
 1.8200	 6.1800
 1.8240	 6.3200
 1.8280	 6.3900
 1.8320	 6.5700
 1.8360	 6.5900
 1.8400	 6.6700
 1.8440	 6.7400
 1.8480	 6.8700
 1.8520	 6.8900
 1.8560	 6.9900
 1.8600	 7.1000
 1.8640	 7.1800
 1.8680	 7.1900
 1.8720	 7.3100
 1.8760	 7.3600
 1.8800	 7.5000
 1.8840	 7.6000
 1.8880	 7.6900
 1.8920	 7.7600
 1.8960	 7.8600
 1.9000	 7.9300
 1.9040	 8.0400
 1.9080	 8.1900
 1.9120	 8.2100
 1.9160	 8.3500
 1.9200	 8.4100
 1.9240	 8.5500
 1.9280	 8.6400
 1.9320	 8.7400
 1.9360	 8.8300
 1.9400	 8.9500
 1.9440	 9.0300
 1.9480	 9.1500
 1.9520	 9.3700
 1.9560	 9.4000
 1.9600	 9.5400
 1.9640	 9.6900
 1.9680	 9.7300
 1.9720	 9.8800
 1.9760	10.0300
 1.9800	10.1500
 1.9840	10.1900
 1.9880	10.2700
 1.9920	10.4300
 1.9960	10.5300
 2.0000	10.5900
 2.0040	10.7800
 2.0080	10.8700
 2.0120	10.9800
 2.0160	11.1400
 2.0200	11.2400
 2.0240	11.4100
 2.0280	11.4500
 2.0320	11.5500
 2.0360	11.7000
 2.0400	11.8400
 2.0440	11.9400
 2.0480	11.9900
 2.0520	12.1700
 2.0560	12.2100
 2.0600	12.3700
 2.0640	12.4500
 2.0680	12.6000
 2.0720	12.7300
 2.0760	12.8600
 2.0800	12.9900
 2.0840	13.1500
 2.0880	13.3400
 2.0920	13.4800
 2.0960	13.5900
 2.1000	13.7000
 2.1040	13.8700
 2.1080	13.9300
 2.1120	14.0900
 2.1160	14.1500
 2.1200	14.3300
 2.1240	14.3600
 2.1280	14.5100
 2.1320	14.5700
 2.1360	14.6500
 2.1400	14.7500
 2.1440	14.8800
 2.1480	14.9000
 2.1520	15.0200
 2.1560	15.1200
 2.1600	15.1100
 2.1640	15.2600
 2.1680	15.2700
 2.1720	15.2400
 2.1760	15.3100
 2.1800	15.1700
 2.1840	15.0300
 2.1880	14.8000
 2.1920	14.5700
 2.1960	14.3600
 2.2000	14.2400
 2.2040	14.2700
 2.2080	14.4400
 2.2120	14.7700
 2.2160	15.0400
 2.2200	15.3400
 2.2240	15.4600
 2.2280	15.5400
 2.2320	15.5400
 2.2360	15.6000
 2.2400	15.7100
 2.2440	15.9500
 2.2480	16.2900
 2.2520	16.6200
 2.2560	17.0100
 2.2600	17.3400
 2.2640	17.6100
 2.2680	17.7300
 2.2720	17.7200
 2.2760	17.7500
 2.2800	17.6600
 2.2840	17.6600
 2.2880	17.5700
 2.2920	17.4700
 2.2960	17.5400
 2.3000	17.5700
 2.3040	17.5000
 2.3080	17.5200
 2.3120	17.4500
 2.3160	17.4600
 2.3200	17.3900
 2.3240	17.2800
 2.3280	17.1100
 2.3320	16.9900
 2.3360	16.7400
 2.3400	16.4100
 2.3440	16.2000
 2.3480	15.9200
 2.3520	15.7700
 2.3560	15.6500
 2.3600	15.7300
 2.3640	15.9400
 2.3680	16.2600
 2.3720	16.7100
 2.3760	17.1000
 2.3800	17.6500
 2.3840	18.1700
 2.3880	18.5400
 2.3920	18.8700
 2.3960	19.1200
 2.4000	19.3400
 2.4040	19.4100
 2.4080	19.6100
 2.4120	19.5800
 2.4160	19.6600
 2.4200	19.6300
 2.4240	19.6200
 2.4280	19.6000
 2.4320	19.5800
 2.4360	19.5600
 2.4400	19.5400
 2.4440	19.5100
 2.4480	19.3800
 2.4520	19.3700
 2.4560	19.3300
 2.4600	19.2200
 2.4640	19.1900
 2.4680	19.1400
 2.4720	19.1000
 2.4760	19.0900
 2.4800	19.1800
 2.4840	19.1700
 2.4880	19.1800
 2.4920	19.2500
 2.4960	19.3600
 2.5000	19.3900
