Name: Magnetite Fe^2+Fe_2^3+O_4
Type: Mineral
Class: Oxide
Subclass: None
Particle Size: Fine
Sample No.: O-4A
Owner: JPL
Wavelength Range: VSWIR
Origin: Canada, Ontario, Haliburton County, Wilberforce
Collection Date: N/A
Description: Particle size was 0-45um.Collected by Ward's Original ASTER Spectral Library name was jpl.beckman.mineral.oxide.none.fine.o04a.spectrum.txt
Measurement: Hemispherical reflectance
First Column: X
Second Column: Y
X Units: Wavelength (micrometers)
Y Units:Reflectance (percent)
First X Value:  0.4000
Last X Value:  2.5000
Number of X Values: 826
Additional Information: mineral.oxide.none.fine.vswir.o-4a.jpl.beckman.ancillary.txt

 0.4000	 4.5900
 0.4010	 4.5500
 0.4020	 4.4800
 0.4030	 4.5400
 0.4040	 4.4700
 0.4050	 4.5300
 0.4060	 4.5900
 0.4070	 4.4100
 0.4080	 4.4700
 0.4090	 4.4100
 0.4100	 4.4700
 0.4110	 4.5300
 0.4120	 4.4100
 0.4130	 4.4700
 0.4140	 4.4000
 0.4150	 4.5300
 0.4160	 4.5300
 0.4170	 4.4200
 0.4180	 4.4700
 0.4190	 4.3400
 0.4200	 4.4100
 0.4210	 4.4100
 0.4220	 4.3500
 0.4230	 4.4600
 0.4240	 4.4500
 0.4250	 4.4500
 0.4260	 4.4500
 0.4270	 4.4000
 0.4280	 4.4700
 0.4290	 4.4100
 0.4300	 4.4600
 0.4310	 4.4000
 0.4320	 4.3300
 0.4330	 4.4600
 0.4340	 4.3900
 0.4350	 4.3400
 0.4360	 4.2800
 0.4370	 4.4000
 0.4380	 4.4700
 0.4390	 4.2800
 0.4400	 4.3400
 0.4410	 4.3300
 0.4420	 4.4400
 0.4430	 4.4300
 0.4440	 4.3200
 0.4450	 4.3900
 0.4460	 4.2600
 0.4470	 4.3300
 0.4480	 4.3900
 0.4490	 4.2700
 0.4500	 4.3300
 0.4510	 4.2800
 0.4520	 4.3900
 0.4530	 4.3300
 0.4540	 4.2000
 0.4550	 4.3000
 0.4560	 4.2800
 0.4570	 4.3300
 0.4580	 4.3200
 0.4590	 4.2500
 0.4600	 4.3100
 0.4610	 4.2000
 0.4620	 4.2600
 0.4630	 4.2600
 0.4640	 4.2000
 0.4650	 4.2700
 0.4660	 4.2100
 0.4670	 4.2700
 0.4680	 4.3300
 0.4690	 4.2100
 0.4700	 4.2600
 0.4710	 4.1500
 0.4720	 4.2800
 0.4730	 4.3300
 0.4740	 4.2000
 0.4750	 4.3300
 0.4760	 4.2100
 0.4770	 4.2000
 0.4780	 4.2700
 0.4790	 4.2100
 0.4800	 4.2600
 0.4810	 4.2500
 0.4820	 4.3000
 0.4830	 4.2500
 0.4840	 4.0800
 0.4850	 4.2500
 0.4860	 4.1800
 0.4870	 4.2900
 0.4880	 4.1700
 0.4890	 4.1700
 0.4900	 4.2800
 0.4910	 4.2100
 0.4920	 4.3200
 0.4930	 4.2600
 0.4940	 4.1900
 0.4950	 4.1800
 0.4960	 4.2400
 0.4970	 4.2300
 0.4980	 4.1700
 0.4990	 4.2200
 0.5000	 4.2200
 0.5010	 4.3300
 0.5020	 4.2700
 0.5030	 4.1500
 0.5040	 4.2700
 0.5050	 4.2700
 0.5060	 4.2100
 0.5070	 4.2100
 0.5080	 4.1500
 0.5090	 4.1500
 0.5100	 4.1600
 0.5110	 4.1600
 0.5120	 4.2200
 0.5130	 4.2100
 0.5140	 4.2700
 0.5150	 4.2100
 0.5160	 4.1500
 0.5170	 4.1500
 0.5180	 4.1500
 0.5190	 4.1400
 0.5200	 4.2000
 0.5210	 4.0800
 0.5220	 4.1800
 0.5230	 4.1900
 0.5240	 4.2000
 0.5250	 4.1900
 0.5260	 4.2400
 0.5270	 4.2900
 0.5280	 4.2400
 0.5290	 4.2500
 0.5300	 4.1400
 0.5310	 4.2600
 0.5320	 4.3200
 0.5330	 4.1200
 0.5340	 4.1400
 0.5350	 4.0600
 0.5360	 4.1800
 0.5370	 4.1800
 0.5380	 4.0700
 0.5390	 4.1900
 0.5400	 4.1900
 0.5410	 4.2500
 0.5420	 4.1800
 0.5430	 4.0600
 0.5440	 4.1600
 0.5450	 4.1600
 0.5460	 4.1500
 0.5470	 4.0900
 0.5480	 4.1400
 0.5490	 4.1800
 0.5500	 4.2300
 0.5510	 4.2200
 0.5520	 4.2200
 0.5530	 4.1600
 0.5540	 4.2600
 0.5550	 4.2000
 0.5560	 4.2100
 0.5570	 4.1300
 0.5580	 4.0900
 0.5590	 4.1600
 0.5600	 4.1700
 0.5610	 4.2000
 0.5620	 4.2500
 0.5630	 4.2400
 0.5640	 4.3000
 0.5650	 4.1400
 0.5660	 4.1400
 0.5670	 4.1400
 0.5680	 4.1400
 0.5690	 4.2000
 0.5700	 4.1400
 0.5710	 4.2400
 0.5720	 4.1900
 0.5730	 4.2600
 0.5740	 4.1800
 0.5750	 4.0500
 0.5760	 4.1800
 0.5770	 4.1400
 0.5780	 4.2000
 0.5790	 4.1500
 0.5800	 4.1100
 0.5810	 4.2200
 0.5820	 4.1100
 0.5830	 4.1100
 0.5840	 4.0500
 0.5850	 4.1000
 0.5860	 4.1000
 0.5870	 4.0500
 0.5880	 4.1100
 0.5890	 4.1100
 0.5900	 4.1100
 0.5910	 4.2100
 0.5920	 4.1100
 0.5930	 4.1100
 0.5940	 4.1200
 0.5950	 4.1600
 0.5960	 4.1600
 0.5970	 4.1000
 0.5980	 4.1400
 0.5990	 4.1800
 0.6000	 4.1500
 0.6010	 4.3000
 0.6020	 4.1600
 0.6030	 4.1500
 0.6040	 4.1500
 0.6050	 4.1500
 0.6060	 4.1400
 0.6070	 4.0800
 0.6080	 4.1400
 0.6090	 4.2400
 0.6100	 4.2400
 0.6110	 4.1700
 0.6120	 4.1200
 0.6130	 4.2300
 0.6140	 4.1700
 0.6150	 4.1700
 0.6160	 4.1200
 0.6170	 4.1200
 0.6180	 4.2400
 0.6190	 4.1400
 0.6200	 4.1400
 0.6210	 4.1300
 0.6220	 4.1700
 0.6230	 4.2800
 0.6240	 4.1600
 0.6250	 4.1200
 0.6260	 4.1200
 0.6270	 4.1700
 0.6280	 4.2300
 0.6290	 4.1200
 0.6300	 4.1300
 0.6310	 4.1400
 0.6320	 4.1300
 0.6330	 4.1300
 0.6340	 4.1200
 0.6350	 4.1700
 0.6360	 4.1800
 0.6370	 4.1800
 0.6380	 4.2400
 0.6390	 4.1200
 0.6400	 4.1700
 0.6410	 4.1200
 0.6420	 4.1300
 0.6430	 4.1800
 0.6440	 4.0700
 0.6450	 4.1800
 0.6460	 4.1200
 0.6470	 4.1200
 0.6480	 4.1200
 0.6490	 4.1300
 0.6500	 4.2200
 0.6510	 4.1600
 0.6520	 4.1600
 0.6530	 4.1700
 0.6540	 4.1700
 0.6550	 4.1900
 0.6560	 4.0800
 0.6570	 4.1400
 0.6580	 4.1300
 0.6590	 4.1200
 0.6600	 4.1200
 0.6610	 4.0600
 0.6620	 4.1300
 0.6630	 4.1200
 0.6640	 4.1600
 0.6650	 4.0600
 0.6660	 4.0100
 0.6670	 4.1800
 0.6680	 4.0800
 0.6690	 4.1400
 0.6700	 4.1300
 0.6710	 4.1200
 0.6720	 4.2800
 0.6730	 4.1700
 0.6740	 4.0600
 0.6750	 4.1300
 0.6760	 4.1700
 0.6770	 4.2200
 0.6780	 4.0700
 0.6790	 4.1700
 0.6800	 4.1300
 0.6810	 4.1300
 0.6820	 4.1300
 0.6830	 4.0600
 0.6840	 4.1600
 0.6850	 4.1100
 0.6860	 4.1600
 0.6870	 4.0600
 0.6880	 4.0600
 0.6890	 4.1600
 0.6900	 4.0500
 0.6910	 4.1100
 0.6920	 4.0100
 0.6930	 4.0700
 0.6940	 4.1700
 0.6950	 4.0000
 0.6960	 4.0600
 0.6970	 4.0700
 0.6980	 4.1300
 0.6990	 4.1600
 0.7000	 4.0300
 0.7010	 4.0700
 0.7020	 4.1700
 0.7030	 4.1600
 0.7040	 4.1600
 0.7050	 4.0500
 0.7060	 4.1100
 0.7070	 4.1600
 0.7080	 4.0500
 0.7090	 4.0000
 0.7100	 4.0000
 0.7110	 4.1200
 0.7120	 4.0600
 0.7130	 4.1100
 0.7140	 4.0500
 0.7150	 4.1100
 0.7160	 4.1700
 0.7170	 4.0600
 0.7180	 4.1200
 0.7190	 4.1300
 0.7200	 4.0600
 0.7210	 4.1100
 0.7220	 4.0100
 0.7230	 4.0700
 0.7240	 4.1200
 0.7250	 4.0600
 0.7260	 4.1100
 0.7270	 3.9400
 0.7280	 4.0600
 0.7290	 4.1100
 0.7300	 4.0500
 0.7310	 4.0600
 0.7320	 3.9500
 0.7330	 4.0700
 0.7340	 4.0700
 0.7350	 4.0100
 0.7360	 4.0600
 0.7370	 4.0600
 0.7380	 4.0600
 0.7390	 4.0000
 0.7400	 4.0600
 0.7410	 4.1200
 0.7420	 4.0700
 0.7430	 4.0100
 0.7440	 3.9400
 0.7450	 3.9900
 0.7460	 4.0500
 0.7470	 4.0500
 0.7480	 4.0500
 0.7490	 4.0000
 0.7500	 4.0000
 0.7510	 4.0600
 0.7520	 4.0000
 0.7530	 4.0600
 0.7540	 3.8800
 0.7550	 3.9400
 0.7560	 4.0000
 0.7570	 3.9500
 0.7580	 4.0000
 0.7590	 3.9400
 0.7600	 4.0000
 0.7610	 4.0100
 0.7620	 4.0000
 0.7630	 4.0000
 0.7640	 3.8800
 0.7650	 4.0000
 0.7660	 3.9900
 0.7670	 3.9900
 0.7680	 3.9900
 0.7690	 4.0500
 0.7700	 4.1200
 0.7710	 3.9400
 0.7720	 3.9900
 0.7730	 4.0500
 0.7740	 3.9300
 0.7750	 4.0500
 0.7760	 3.9300
 0.7770	 4.0500
 0.7780	 4.1100
 0.7790	 4.0000
 0.7800	 3.9900
 0.7810	 3.9300
 0.7820	 3.9800
 0.7830	 4.1100
 0.7840	 4.0400
 0.7850	 4.0400
 0.7860	 3.9800
 0.7870	 4.1000
 0.7880	 4.0500
 0.7890	 4.1000
 0.7900	 4.0400
 0.7910	 4.1000
 0.7920	 4.1000
 0.7930	 3.9900
 0.7940	 4.0300
 0.7950	 3.9800
 0.7960	 4.0400
 0.7970	 4.0500
 0.7980	 3.9400
 0.7990	 4.0000
 0.8000	 4.1800
 0.8040	 4.1900
 0.8080	 4.1300
 0.8120	 4.2000
 0.8160	 4.1400
 0.8200	 4.1400
 0.8240	 4.1400
 0.8280	 4.1400
 0.8320	 4.0900
 0.8360	 4.0800
 0.8400	 4.1000
 0.8440	 4.1000
 0.8480	 4.1000
 0.8520	 4.1000
 0.8560	 4.0500
 0.8600	 4.1000
 0.8640	 4.0500
 0.8680	 4.0400
 0.8720	 4.0500
 0.8760	 3.9300
 0.8800	 3.9800
 0.8840	 3.9900
 0.8880	 3.9300
 0.8920	 3.9200
 0.8960	 3.9900
 0.9000	 3.8700
 0.9040	 3.8700
 0.9080	 3.8700
 0.9120	 3.8100
 0.9160	 3.8100
 0.9200	 3.8000
 0.9240	 3.7500
 0.9280	 3.8100
 0.9320	 3.7500
 0.9360	 3.7500
 0.9400	 3.7400
 0.9440	 3.7600
 0.9480	 3.8200
 0.9520	 3.7500
 0.9560	 3.7600
 0.9600	 3.8100
 0.9640	 3.8000
 0.9680	 3.8200
 0.9720	 3.7600
 0.9760	 3.7500
 0.9800	 3.7500
 0.9840	 3.7500
 0.9880	 3.8100
 0.9920	 3.7300
 0.9960	 3.7600
 1.0000	 3.7000
 1.0040	 3.6900
 1.0080	 3.7000
 1.0120	 3.7000
 1.0160	 3.6300
 1.0200	 3.6900
 1.0240	 3.6300
 1.0280	 3.7000
 1.0320	 3.7000
 1.0360	 3.6400
 1.0400	 3.6300
 1.0440	 3.6800
 1.0480	 3.6200
 1.0520	 3.6200
 1.0560	 3.5700
 1.0600	 3.6300
 1.0640	 3.5800
 1.0680	 3.6200
 1.0720	 3.6200
 1.0760	 3.5900
 1.0800	 3.6300
 1.0840	 3.6100
 1.0880	 3.6600
 1.0920	 3.6500
 1.0960	 3.6500
 1.1000	 3.6500
 1.1040	 3.6500
 1.1080	 3.7000
 1.1120	 3.7000
 1.1160	 3.7700
 1.1200	 3.8000
 1.1240	 3.7500
 1.1280	 3.7600
 1.1320	 3.8500
 1.1360	 3.7500
 1.1400	 3.7100
 1.1440	 3.7300
 1.1480	 3.7300
 1.1520	 3.7400
 1.1560	 3.6800
 1.1600	 3.7500
 1.1640	 3.7500
 1.1680	 3.7400
 1.1720	 3.7400
 1.1760	 3.6800
 1.1800	 3.6700
 1.1840	 3.7000
 1.1880	 3.7500
 1.1920	 3.6800
 1.1960	 3.7400
 1.2000	 3.7500
 1.2040	 3.7400
 1.2080	 3.8000
 1.2120	 3.7900
 1.2160	 3.7100
 1.2200	 3.8300
 1.2240	 3.8200
 1.2280	 3.8600
 1.2320	 3.9000
 1.2360	 3.9500
 1.2400	 3.9400
 1.2440	 3.9800
 1.2480	 3.9200
 1.2520	 3.9200
 1.2560	 3.9100
 1.2600	 3.9700
 1.2640	 3.9700
 1.2680	 3.9200
 1.2720	 3.9300
 1.2760	 3.9700
 1.2800	 3.9700
 1.2840	 3.9100
 1.2880	 3.9700
 1.2920	 3.9700
 1.2960	 4.0100
 1.3000	 3.9700
 1.3040	 3.9700
 1.3080	 4.0300
 1.3120	 4.0300
 1.3160	 4.0800
 1.3200	 4.0200
 1.3240	 4.0800
 1.3280	 4.0700
 1.3320	 4.0800
 1.3360	 4.0900
 1.3400	 4.0800
 1.3440	 4.1800
 1.3480	 4.1800
 1.3520	 4.1900
 1.3560	 4.2200
 1.3600	 4.2400
 1.3640	 4.2700
 1.3680	 4.2700
 1.3720	 4.2400
 1.3760	 4.2600
 1.3800	 4.2500
 1.3840	 4.3300
 1.3880	 4.2500
 1.3920	 4.3000
 1.3960	 4.3100
 1.4000	 4.2500
 1.4040	 4.2500
 1.4080	 4.2600
 1.4120	 4.2600
 1.4160	 4.2700
 1.4200	 4.3200
 1.4240	 4.2600
 1.4280	 4.3200
 1.4320	 4.3100
 1.4360	 4.4200
 1.4400	 4.3600
 1.4440	 4.3600
 1.4480	 4.3800
 1.4520	 4.4100
 1.4560	 4.4300
 1.4600	 4.4100
 1.4640	 4.4200
 1.4680	 4.4800
 1.4720	 4.4700
 1.4760	 4.4900
 1.4800	 4.4900
 1.4840	 4.5400
 1.4880	 4.5400
 1.4920	 4.5500
 1.4960	 4.5900
 1.5000	 4.6100
 1.5040	 4.5500
 1.5080	 4.5500
 1.5120	 4.5600
 1.5160	 4.5600
 1.5200	 4.6100
 1.5240	 4.6100
 1.5280	 4.6100
 1.5320	 4.5900
 1.5360	 4.6000
 1.5400	 4.6500
 1.5440	 4.6300
 1.5480	 4.6500
 1.5520	 4.7000
 1.5560	 4.7100
 1.5600	 4.7700
 1.5640	 4.7700
 1.5680	 4.7700
 1.5720	 4.8200
 1.5760	 4.7800
 1.5800	 4.7700
 1.5840	 4.7700
 1.5880	 4.7700
 1.5920	 4.7800
 1.5960	 4.7800
 1.6000	 4.7900
 1.6040	 4.8500
 1.6080	 4.7800
 1.6120	 4.8400
 1.6160	 4.7800
 1.6200	 4.8300
 1.6240	 4.8800
 1.6280	 4.8700
 1.6320	 4.9300
 1.6360	 4.9400
 1.6400	 5.0400
 1.6440	 5.0000
 1.6480	 4.9500
 1.6520	 4.9500
 1.6560	 4.9300
 1.6600	 4.9300
 1.6640	 4.9300
 1.6680	 4.9300
 1.6720	 4.9300
 1.6760	 4.9400
 1.6800	 4.9400
 1.6840	 5.0500
 1.6880	 5.0400
 1.6920	 5.0400
 1.6960	 5.0400
 1.7000	 5.1000
 1.7040	 5.0900
 1.7080	 5.1400
 1.7120	 5.1100
 1.7160	 5.1800
 1.7200	 5.1800
 1.7240	 5.1800
 1.7280	 5.1800
 1.7320	 5.1300
 1.7360	 5.1600
 1.7400	 5.1700
 1.7440	 5.0900
 1.7480	 5.1000
 1.7520	 5.1600
 1.7560	 5.2100
 1.7600	 5.1700
 1.7640	 5.1600
 1.7680	 5.1700
 1.7720	 5.2100
 1.7760	 5.1700
 1.7800	 5.2100
 1.7840	 5.2100
 1.7880	 5.2800
 1.7920	 5.2300
 1.7960	 5.2300
 1.8000	 5.2800
 1.8040	 5.3100
 1.8080	 5.3600
 1.8120	 5.3200
 1.8160	 5.3100
 1.8200	 5.3100
 1.8240	 5.3800
 1.8280	 5.3600
 1.8320	 5.4200
 1.8360	 5.4400
 1.8400	 5.4600
 1.8440	 5.4100
 1.8480	 5.3900
 1.8520	 5.4600
 1.8560	 5.4600
 1.8600	 5.4500
 1.8640	 5.4200
 1.8680	 5.4200
 1.8720	 5.4500
 1.8760	 5.4400
 1.8800	 5.4100
 1.8840	 5.4600
 1.8880	 5.5000
 1.8920	 5.4300
 1.8960	 5.5100
 1.9000	 5.4300
 1.9040	 5.4500
 1.9080	 5.4200
 1.9120	 5.4200
 1.9160	 5.4600
 1.9200	 5.5200
 1.9240	 5.4700
 1.9280	 5.5300
 1.9320	 5.5300
 1.9360	 5.4900
 1.9400	 5.5400
 1.9440	 5.5700
 1.9480	 5.5600
 1.9520	 5.5800
 1.9560	 5.6500
 1.9600	 5.6400
 1.9640	 5.6200
 1.9680	 5.6600
 1.9720	 5.6400
 1.9760	 5.6800
 1.9800	 5.6700
 1.9840	 5.7300
 1.9880	 5.7100
 1.9920	 5.7100
 1.9960	 5.6600
 2.0000	 5.6600
 2.0040	 5.7200
 2.0080	 5.7700
 2.0120	 5.8100
 2.0160	 5.7700
 2.0200	 5.8100
 2.0240	 5.8000
 2.0280	 5.8000
 2.0320	 5.7900
 2.0360	 5.7800
 2.0400	 5.7300
 2.0440	 5.7300
 2.0480	 5.6800
 2.0520	 5.6900
 2.0560	 5.7300
 2.0600	 5.7700
 2.0640	 5.7700
 2.0680	 5.8200
 2.0720	 5.8100
 2.0760	 5.8300
 2.0800	 5.7700
 2.0840	 5.7800
 2.0880	 5.7800
 2.0920	 5.7900
 2.0960	 5.8200
 2.1000	 5.8500
 2.1040	 5.8500
 2.1080	 5.8600
 2.1120	 5.7900
 2.1160	 5.8800
 2.1200	 5.8400
 2.1240	 5.9200
 2.1280	 5.8700
 2.1320	 5.8900
 2.1360	 5.9000
 2.1400	 5.9100
 2.1440	 5.8500
 2.1480	 5.8600
 2.1520	 5.8700
 2.1560	 5.8800
 2.1600	 5.8800
 2.1640	 5.8900
 2.1680	 5.9300
 2.1720	 5.9600
 2.1760	 5.9600
 2.1800	 5.9100
 2.1840	 5.8900
 2.1880	 5.9800
 2.1920	 5.9300
 2.1960	 5.9500
 2.2000	 5.9600
 2.2040	 5.9600
 2.2080	 5.9600
 2.2120	 6.0200
 2.2160	 6.0100
 2.2200	 6.0200
 2.2240	 6.0300
 2.2280	 5.9900
 2.2320	 5.9700
 2.2360	 6.0800
 2.2400	 6.0100
 2.2440	 6.0100
 2.2480	 6.0800
 2.2520	 6.0300
 2.2560	 6.1100
 2.2600	 6.0500
 2.2640	 6.0700
 2.2680	 6.1200
 2.2720	 6.1100
 2.2760	 6.1100
 2.2800	 6.0900
 2.2840	 6.1000
 2.2880	 6.1300
 2.2920	 6.1500
 2.2960	 6.2200
 2.3000	 6.1900
 2.3040	 6.1200
 2.3080	 6.1200
 2.3120	 6.1200
 2.3160	 6.1300
 2.3200	 6.1200
 2.3240	 6.1100
 2.3280	 6.1000
 2.3320	 6.1400
 2.3360	 6.2200
 2.3400	 6.2600
 2.3440	 6.2700
 2.3480	 6.2800
 2.3520	 6.2700
 2.3560	 6.2600
 2.3600	 6.2600
 2.3640	 6.2700
 2.3680	 6.2700
 2.3720	 6.2500
 2.3760	 6.2500
 2.3800	 6.2700
 2.3840	 6.2800
 2.3880	 6.3000
 2.3920	 6.3000
 2.3960	 6.3500
 2.4000	 6.3400
 2.4040	 6.2900
 2.4080	 6.3100
 2.4120	 6.3000
 2.4160	 6.2800
 2.4200	 6.3500
 2.4240	 6.3400
 2.4280	 6.3400
 2.4320	 6.4100
 2.4360	 6.3300
 2.4400	 6.3200
 2.4440	 6.3400
 2.4480	 6.3400
 2.4520	 6.3200
 2.4560	 6.3400
 2.4600	 6.3400
 2.4640	 6.3300
 2.4680	 6.4000
 2.4720	 6.3300
 2.4760	 6.3700
 2.4800	 6.4000
 2.4840	 6.4600
 2.4880	 6.4900
 2.4920	 6.4900
 2.4960	 6.4900
 2.5000	 6.4800
