Name: Chlorite
Type: Mineral
Class: Silicate
Subclass: Phyllosilicate
Particle Size: Coarse
Sample No.: PS-12F
Owner: JPL
Wavelength Range: VSWIR
Origin: USA, New Mexico.
Collection Date: N/A
Description: Particle size was 125-500um.Collected by:  Ward's Original ASTER Spectral Library name was jpl.perkin.mineral.silicate.phyllosilicate.coarse.ps12fc.spectrum.txt
Measurement: Hemispherical reflectance
First Column: X
Second Column: Y
X Units: Wavelength (micrometers)
Y Units:Reflectance (percent)
First X Value:  2.5000
Last X Value:  0.4000
Number of X Values: 2101
Additional Information: None

 2.5000	19.7856
 2.4990	19.3550
 2.4980	19.8917
 2.4970	19.6365
 2.4960	19.5865
 2.4950	19.8907
 2.4940	19.6972
 2.4930	19.8971
 2.4920	20.0571
 2.4910	19.8246
 2.4900	20.1806
 2.4890	19.9677
 2.4880	20.3392
 2.4870	20.2263
 2.4860	20.3560
 2.4850	20.3339
 2.4840	20.5782
 2.4830	20.5467
 2.4820	20.7718
 2.4810	20.6896
 2.4800	20.8640
 2.4790	20.9982
 2.4780	21.0277
 2.4770	21.0492
 2.4760	21.2259
 2.4750	21.2509
 2.4740	21.3749
 2.4730	21.2396
 2.4720	21.5583
 2.4710	21.5447
 2.4700	21.6918
 2.4690	21.7074
 2.4680	21.8703
 2.4670	21.8748
 2.4660	22.0601
 2.4650	21.9952
 2.4640	22.1560
 2.4630	22.2055
 2.4620	22.3086
 2.4610	22.3069
 2.4600	22.4498
 2.4590	22.4684
 2.4580	22.5618
 2.4570	22.4628
 2.4560	22.6485
 2.4550	22.6490
 2.4540	22.6839
 2.4530	22.7108
 2.4520	22.7762
 2.4510	22.7312
 2.4500	22.8843
 2.4490	22.9079
 2.4480	22.9714
 2.4470	22.9894
 2.4460	23.0743
 2.4450	22.9936
 2.4440	23.0952
 2.4430	23.1047
 2.4420	23.1359
 2.4410	23.0852
 2.4400	23.1435
 2.4390	23.0682
 2.4380	23.1844
 2.4370	23.1065
 2.4360	23.1979
 2.4350	23.1704
 2.4340	23.2855
 2.4330	23.1740
 2.4320	23.3133
 2.4310	23.2446
 2.4300	23.3570
 2.4290	23.2334
 2.4280	23.3577
 2.4270	23.3343
 2.4260	23.3589
 2.4250	23.2988
 2.4240	23.3882
 2.4230	23.3803
 2.4220	23.3575
 2.4210	23.3417
 2.4200	23.3903
 2.4190	23.4302
 2.4180	23.4287
 2.4170	23.3823
 2.4160	23.3586
 2.4150	23.3988
 2.4140	23.4422
 2.4130	23.3245
 2.4120	23.4165
 2.4110	23.3638
 2.4100	23.3089
 2.4090	23.2410
 2.4080	23.2710
 2.4070	23.1272
 2.4060	23.1417
 2.4050	23.1327
 2.4040	23.1598
 2.4030	23.0692
 2.4020	22.9693
 2.4010	22.9553
 2.4000	22.8331
 2.3990	22.7386
 2.3980	22.7322
 2.3970	22.6244
 2.3960	22.5601
 2.3950	22.3979
 2.3940	22.3221
 2.3930	22.1393
 2.3920	21.9867
 2.3910	21.8593
 2.3900	21.7397
 2.3890	21.5480
 2.3880	21.4032
 2.3870	21.2482
 2.3860	21.1048
 2.3850	20.8637
 2.3840	20.6835
 2.3830	20.5139
 2.3820	20.2966
 2.3810	20.1149
 2.3800	19.9865
 2.3790	19.7876
 2.3780	19.5967
 2.3770	19.4000
 2.3760	19.2301
 2.3750	19.0768
 2.3740	18.8996
 2.3730	18.7292
 2.3720	18.5843
 2.3710	18.4041
 2.3700	18.2126
 2.3690	18.1392
 2.3680	18.1000
 2.3670	17.9407
 2.3660	17.8276
 2.3650	17.7452
 2.3640	17.6720
 2.3630	17.6272
 2.3620	17.5631
 2.3610	17.4372
 2.3600	17.3964
 2.3590	17.4164
 2.3580	17.3946
 2.3570	17.3432
 2.3560	17.3786
 2.3550	17.3968
 2.3540	17.3923
 2.3530	17.4063
 2.3520	17.4416
 2.3510	17.5189
 2.3500	17.5533
 2.3490	17.5797
 2.3480	17.6180
 2.3470	17.7493
 2.3460	17.8687
 2.3450	17.9483
 2.3440	18.0151
 2.3430	18.1407
 2.3420	18.2710
 2.3410	18.3843
 2.3400	18.4773
 2.3390	18.5630
 2.3380	18.6346
 2.3370	18.7973
 2.3360	18.9110
 2.3350	19.0631
 2.3340	19.1990
 2.3330	19.3083
 2.3320	19.3979
 2.3310	19.5567
 2.3300	19.6970
 2.3290	19.8461
 2.3280	19.9304
 2.3270	20.0224
 2.3260	20.1348
 2.3250	20.2525
 2.3240	20.3218
 2.3230	20.4619
 2.3220	20.5527
 2.3210	20.6346
 2.3200	20.7135
 2.3190	20.8532
 2.3180	20.9778
 2.3170	21.1225
 2.3160	21.2101
 2.3150	21.2737
 2.3140	21.3775
 2.3130	21.5778
 2.3120	21.6707
 2.3110	21.7978
 2.3100	21.8815
 2.3090	21.9246
 2.3080	21.9710
 2.3070	22.1421
 2.3060	22.2395
 2.3050	22.3539
 2.3040	22.4631
 2.3030	22.5696
 2.3020	22.5460
 2.3010	22.6277
 2.3000	22.7058
 2.2990	22.8083
 2.2980	22.8994
 2.2970	23.0145
 2.2960	23.0163
 2.2950	23.0305
 2.2940	23.0298
 2.2930	23.0567
 2.2920	23.0168
 2.2910	23.0819
 2.2900	23.0055
 2.2890	23.0522
 2.2880	22.9807
 2.2870	22.9894
 2.2860	22.9181
 2.2850	22.9074
 2.2840	22.8019
 2.2830	22.7569
 2.2820	22.6256
 2.2810	22.4738
 2.2800	22.3273
 2.2790	22.2290
 2.2780	22.0550
 2.2770	21.9582
 2.2760	21.7586
 2.2750	21.6217
 2.2740	21.4218
 2.2730	21.2490
 2.2720	21.0311
 2.2710	20.8620
 2.2700	20.5914
 2.2690	20.4627
 2.2680	20.2334
 2.2670	20.1055
 2.2660	19.8883
 2.2650	19.7954
 2.2640	19.6211
 2.2630	19.5114
 2.2620	19.3846
 2.2610	19.3414
 2.2600	19.2870
 2.2590	19.3226
 2.2580	19.3197
 2.2570	19.4095
 2.2560	19.5139
 2.2550	19.7129
 2.2540	19.9093
 2.2530	20.1684
 2.2520	20.3587
 2.2510	20.7137
 2.2500	20.9847
 2.2490	21.3193
 2.2480	21.6213
 2.2470	22.1602
 2.2460	22.4904
 2.2450	22.9227
 2.2440	23.3611
 2.2430	23.7741
 2.2420	24.1546
 2.2410	24.6041
 2.2400	25.0514
 2.2390	25.4131
 2.2380	25.8435
 2.2370	26.1705
 2.2360	26.5100
 2.2350	26.9336
 2.2340	27.2802
 2.2330	27.6204
 2.2320	27.8937
 2.2310	28.2711
 2.2300	28.3943
 2.2290	28.8068
 2.2280	28.9805
 2.2270	29.2855
 2.2260	29.4179
 2.2250	29.7425
 2.2240	29.9319
 2.2230	30.1088
 2.2220	30.1929
 2.2210	30.4373
 2.2200	30.4766
 2.2190	30.7288
 2.2180	30.8447
 2.2170	30.9814
 2.2160	31.0532
 2.2150	31.2901
 2.2140	31.2794
 2.2130	31.4594
 2.2120	31.5630
 2.2110	31.4817
 2.2100	31.8050
 2.2090	31.8351
 2.2080	31.8254
 2.2070	32.0032
 2.2060	32.1024
 2.2050	32.2476
 2.2040	32.3034
 2.2030	32.3397
 2.2020	32.4411
 2.2010	32.5536
 2.2000	32.6097
 2.1990	32.8606
 2.1980	32.7032
 2.1970	32.8646
 2.1960	32.8736
 2.1950	32.9801
 2.1940	32.9840
 2.1930	33.1115
 2.1920	33.1298
 2.1910	33.1753
 2.1900	33.2497
 2.1890	33.3037
 2.1880	33.2899
 2.1870	33.4379
 2.1860	33.4191
 2.1850	33.5058
 2.1840	33.4626
 2.1830	33.5242
 2.1820	33.5378
 2.1810	33.5662
 2.1800	33.6668
 2.1790	33.6807
 2.1780	33.6357
 2.1770	33.7108
 2.1760	33.7974
 2.1750	33.8426
 2.1740	33.7962
 2.1730	33.8561
 2.1720	33.8008
 2.1710	33.8598
 2.1700	33.8459
 2.1690	33.9249
 2.1680	33.9600
 2.1670	33.9330
 2.1660	33.8816
 2.1650	33.9532
 2.1640	33.9670
 2.1630	34.0401
 2.1620	34.0484
 2.1610	34.0080
 2.1600	34.0269
 2.1590	34.0965
 2.1580	34.0351
 2.1570	34.1241
 2.1560	34.1555
 2.1550	34.1711
 2.1540	34.1402
 2.1530	34.2267
 2.1520	34.1530
 2.1510	34.1980
 2.1500	34.1110
 2.1490	34.1888
 2.1480	34.1861
 2.1470	34.1822
 2.1460	34.1534
 2.1450	34.1767
 2.1440	34.1135
 2.1430	34.1118
 2.1420	34.1002
 2.1410	34.1189
 2.1400	34.0529
 2.1390	34.0874
 2.1380	34.0952
 2.1370	34.0690
 2.1360	34.0586
 2.1350	34.0679
 2.1340	34.0015
 2.1330	34.0296
 2.1320	34.0054
 2.1310	33.9892
 2.1300	33.9464
 2.1290	33.9913
 2.1280	34.0105
 2.1270	34.0043
 2.1260	33.9549
 2.1250	33.9187
 2.1240	33.9188
 2.1230	33.9333
 2.1220	33.9588
 2.1210	33.9201
 2.1200	33.9581
 2.1190	34.0006
 2.1180	33.9656
 2.1170	34.0025
 2.1160	33.9804
 2.1150	33.9789
 2.1140	33.9604
 2.1130	33.9772
 2.1120	33.9185
 2.1110	33.9199
 2.1100	33.9086
 2.1090	33.9188
 2.1080	33.9330
 2.1070	33.9435
 2.1060	33.8781
 2.1050	33.8129
 2.1040	33.7854
 2.1030	33.7719
 2.1020	33.7259
 2.1010	33.7417
 2.1000	33.7041
 2.0990	33.6865
 2.0980	33.6565
 2.0970	33.6325
 2.0960	33.6083
 2.0950	33.5481
 2.0940	33.4721
 2.0930	33.4870
 2.0920	33.4751
 2.0910	33.4538
 2.0900	33.4201
 2.0890	33.4470
 2.0880	33.4423
 2.0870	33.3895
 2.0860	33.3028
 2.0850	33.2846
 2.0840	33.2351
 2.0830	33.2024
 2.0820	33.1438
 2.0810	33.1236
 2.0800	33.0861
 2.0790	33.0435
 2.0780	32.9884
 2.0770	32.9635
 2.0760	32.9644
 2.0750	32.9168
 2.0740	32.8332
 2.0730	32.7920
 2.0720	32.7775
 2.0710	32.7054
 2.0700	32.6591
 2.0690	32.6082
 2.0680	32.5933
 2.0670	32.5123
 2.0660	32.4451
 2.0650	32.4310
 2.0640	32.3190
 2.0630	32.2561
 2.0620	32.2298
 2.0610	32.1438
 2.0600	32.0399
 2.0590	31.9478
 2.0580	31.9271
 2.0570	31.8779
 2.0560	31.8322
 2.0550	31.7234
 2.0540	31.6811
 2.0530	31.5947
 2.0520	31.5343
 2.0510	31.4471
 2.0500	31.3271
 2.0490	31.1996
 2.0480	31.1267
 2.0470	31.0701
 2.0460	31.0185
 2.0450	30.9212
 2.0440	30.8383
 2.0430	30.6844
 2.0420	30.5693
 2.0410	30.5037
 2.0400	30.4162
 2.0390	30.2602
 2.0380	30.1968
 2.0370	30.0435
 2.0360	29.9286
 2.0350	29.8282
 2.0340	29.7722
 2.0330	29.5822
 2.0320	29.4178
 2.0310	29.3212
 2.0300	29.2948
 2.0290	29.1556
 2.0280	29.0605
 2.0270	28.9469
 2.0260	28.9211
 2.0250	28.7973
 2.0240	28.7290
 2.0230	28.6157
 2.0220	28.5322
 2.0210	28.4507
 2.0200	28.4132
 2.0190	28.2881
 2.0180	28.3022
 2.0170	28.1867
 2.0160	28.1201
 2.0150	28.0652
 2.0140	28.0251
 2.0130	27.9949
 2.0120	28.0032
 2.0110	27.9227
 2.0100	27.9370
 2.0090	27.8690
 2.0080	27.9160
 2.0070	27.8102
 2.0060	27.8169
 2.0050	27.7867
 2.0040	27.8602
 2.0030	27.8127
 2.0020	27.8085
 2.0010	27.8481
 2.0000	27.8639
 1.9990	27.8390
 1.9980	27.9250
 1.9970	27.9014
 1.9960	27.9429
 1.9950	27.9604
 1.9940	28.0078
 1.9930	28.0203
 1.9920	28.0719
 1.9910	28.0791
 1.9900	28.1024
 1.9890	28.0916
 1.9880	28.1860
 1.9870	28.2245
 1.9860	28.3171
 1.9850	28.3064
 1.9840	28.3719
 1.9830	28.3987
 1.9820	28.4278
 1.9810	28.4664
 1.9800	28.5633
 1.9790	28.5732
 1.9780	28.5790
 1.9770	28.5738
 1.9760	28.6374
 1.9750	28.6326
 1.9740	28.7502
 1.9730	28.6465
 1.9720	28.7151
 1.9710	28.6633
 1.9700	28.7516
 1.9690	28.7175
 1.9680	28.7589
 1.9670	28.7501
 1.9660	28.7796
 1.9650	28.6718
 1.9640	28.7503
 1.9630	28.6850
 1.9620	28.8837
 1.9610	28.7692
 1.9600	28.8068
 1.9590	28.7770
 1.9580	28.7637
 1.9570	28.7164
 1.9560	28.8355
 1.9550	28.8225
 1.9540	28.8309
 1.9530	28.8656
 1.9520	28.8791
 1.9510	28.8376
 1.9500	28.9551
 1.9490	28.8265
 1.9480	28.8992
 1.9470	28.9710
 1.9460	28.9366
 1.9450	28.8873
 1.9440	29.0026
 1.9430	28.9161
 1.9420	28.9794
 1.9410	28.9335
 1.9400	29.0112
 1.9390	28.9056
 1.9380	29.0925
 1.9370	28.9213
 1.9360	28.9583
 1.9350	28.8557
 1.9340	28.9000
 1.9330	28.8935
 1.9320	28.8672
 1.9310	28.8517
 1.9300	28.7974
 1.9290	28.7640
 1.9280	28.8941
 1.9270	28.8208
 1.9260	28.6686
 1.9250	28.7191
 1.9240	28.6924
 1.9230	28.6351
 1.9220	28.6536
 1.9210	28.6331
 1.9200	28.5597
 1.9190	28.5118
 1.9180	28.5208
 1.9170	28.5107
 1.9160	28.5344
 1.9150	28.3782
 1.9140	28.4519
 1.9130	28.4020
 1.9120	28.4383
 1.9110	28.3533
 1.9100	28.3886
 1.9090	28.3082
 1.9080	28.3656
 1.9070	28.2598
 1.9060	28.2417
 1.9050	28.2658
 1.9040	28.2256
 1.9030	28.2253
 1.9020	28.1886
 1.9010	28.1261
 1.9000	28.1313
 1.8990	28.1119
 1.8980	28.1966
 1.8970	28.1542
 1.8960	28.1689
 1.8950	28.0734
 1.8940	28.1315
 1.8930	28.0539
 1.8920	28.1131
 1.8910	28.0438
 1.8900	28.0928
 1.8890	28.0261
 1.8880	28.1213
 1.8870	28.0968
 1.8860	28.1103
 1.8850	28.0545
 1.8840	28.0628
 1.8830	28.0461
 1.8820	28.0089
 1.8810	28.0563
 1.8800	28.0379
 1.8790	27.9990
 1.8780	27.9679
 1.8770	27.9641
 1.8760	27.9606
 1.8750	27.9109
 1.8740	27.9250
 1.8730	27.8756
 1.8720	27.9288
 1.8710	27.9532
 1.8700	27.9806
 1.8690	27.9132
 1.8680	27.9427
 1.8670	27.9545
 1.8660	28.0166
 1.8650	28.0003
 1.8640	27.9880
 1.8630	27.8953
 1.8620	27.9508
 1.8610	27.9054
 1.8600	27.9300
 1.8590	27.9093
 1.8580	27.9524
 1.8570	27.9184
 1.8560	27.9114
 1.8550	27.9628
 1.8540	27.9785
 1.8530	27.9180
 1.8520	27.9047
 1.8510	27.8920
 1.8500	27.8708
 1.8490	27.8624
 1.8480	27.8692
 1.8470	27.8235
 1.8460	27.8240
 1.8450	27.8399
 1.8440	27.8355
 1.8430	27.7549
 1.8420	27.7651
 1.8410	27.7132
 1.8400	27.7661
 1.8390	27.7469
 1.8380	27.6823
 1.8370	27.6535
 1.8360	27.6577
 1.8350	27.6010
 1.8340	27.5986
 1.8330	27.6503
 1.8320	27.6171
 1.8310	27.5236
 1.8300	27.5220
 1.8290	27.5042
 1.8280	27.5391
 1.8270	27.4972
 1.8260	27.4043
 1.8250	27.3758
 1.8240	27.4044
 1.8230	27.3693
 1.8220	27.3694
 1.8210	27.3479
 1.8200	27.3389
 1.8190	27.2530
 1.8180	27.2422
 1.8170	27.2752
 1.8160	27.2519
 1.8150	27.1828
 1.8140	27.2216
 1.8130	27.1580
 1.8120	27.1475
 1.8110	27.1079
 1.8100	27.1005
 1.8090	27.0808
 1.8080	27.0599
 1.8070	27.0175
 1.8060	26.9814
 1.8050	26.9632
 1.8040	26.9504
 1.8030	26.9130
 1.8020	26.8851
 1.8010	26.8799
 1.8000	26.8767
 1.7990	26.8517
 1.7980	26.8218
 1.7970	26.7828
 1.7960	26.7287
 1.7950	26.7081
 1.7940	26.6929
 1.7930	26.6126
 1.7920	26.6094
 1.7910	26.6016
 1.7900	26.5817
 1.7890	26.5583
 1.7880	26.5500
 1.7870	26.5211
 1.7860	26.5141
 1.7850	26.4416
 1.7840	26.3811
 1.7830	26.3753
 1.7820	26.3482
 1.7810	26.3635
 1.7800	26.2554
 1.7790	26.2091
 1.7780	26.2379
 1.7770	26.2065
 1.7760	26.1675
 1.7750	26.0921
 1.7740	26.0224
 1.7730	26.0181
 1.7720	26.0060
 1.7710	26.0042
 1.7700	25.9370
 1.7690	25.8730
 1.7680	25.8898
 1.7670	25.8836
 1.7660	25.8203
 1.7650	25.7899
 1.7640	25.7587
 1.7630	25.7388
 1.7620	25.7279
 1.7610	25.7069
 1.7600	25.6615
 1.7590	25.6269
 1.7580	25.5449
 1.7570	25.5357
 1.7560	25.4931
 1.7550	25.4772
 1.7540	25.4439
 1.7530	25.3933
 1.7520	25.3578
 1.7510	25.3258
 1.7500	25.2831
 1.7490	25.2644
 1.7480	25.2508
 1.7470	25.1985
 1.7460	25.1325
 1.7450	25.1048
 1.7440	25.0591
 1.7430	25.0404
 1.7420	25.0027
 1.7410	25.0556
 1.7400	24.9695
 1.7390	24.9705
 1.7380	24.8864
 1.7370	24.8458
 1.7360	24.8312
 1.7350	24.7982
 1.7340	24.6934
 1.7330	24.6969
 1.7320	24.6480
 1.7310	24.6256
 1.7300	24.5449
 1.7290	24.5746
 1.7280	24.4546
 1.7270	24.4617
 1.7260	24.3957
 1.7250	24.3891
 1.7240	24.3409
 1.7230	24.3243
 1.7220	24.2992
 1.7210	24.2915
 1.7200	24.2349
 1.7190	24.1899
 1.7180	24.1227
 1.7170	24.0939
 1.7160	24.0535
 1.7150	24.0205
 1.7140	23.9888
 1.7130	23.9493
 1.7120	23.8924
 1.7110	23.8926
 1.7100	23.7944
 1.7090	23.8455
 1.7080	23.7082
 1.7070	23.7098
 1.7060	23.6254
 1.7050	23.5873
 1.7040	23.5871
 1.7030	23.5396
 1.7020	23.4811
 1.7010	23.5119
 1.7000	23.4450
 1.6990	23.3798
 1.6980	23.2957
 1.6970	23.3125
 1.6960	23.1987
 1.6950	23.2607
 1.6940	23.1838
 1.6930	23.1701
 1.6920	23.1064
 1.6910	23.1074
 1.6900	22.9870
 1.6890	22.9472
 1.6880	22.9161
 1.6870	22.9555
 1.6860	22.8640
 1.6850	22.8042
 1.6840	22.7598
 1.6830	22.7471
 1.6820	22.7232
 1.6810	22.7022
 1.6800	22.6193
 1.6790	22.6585
 1.6780	22.5721
 1.6770	22.5503
 1.6760	22.4343
 1.6750	22.4744
 1.6740	22.4220
 1.6730	22.3321
 1.6720	22.3040
 1.6710	22.2822
 1.6700	22.1601
 1.6690	22.2208
 1.6680	22.0364
 1.6670	22.1667
 1.6660	22.0013
 1.6650	22.1319
 1.6640	21.8909
 1.6630	21.9571
 1.6620	21.8152
 1.6610	21.8413
 1.6600	21.7537
 1.6590	21.7855
 1.6580	21.6717
 1.6570	21.7502
 1.6560	21.5880
 1.6550	21.5909
 1.6540	21.5152
 1.6530	21.5449
 1.6520	21.5005
 1.6510	21.4961
 1.6500	21.4452
 1.6490	21.3233
 1.6480	21.3142
 1.6470	21.3091
 1.6460	21.2195
 1.6450	21.2196
 1.6440	21.1736
 1.6430	21.1168
 1.6420	21.0592
 1.6410	20.9062
 1.6400	20.9863
 1.6390	20.9957
 1.6380	20.8764
 1.6370	20.9223
 1.6360	20.7106
 1.6350	20.8029
 1.6340	20.6869
 1.6330	20.7481
 1.6320	20.6290
 1.6310	20.6676
 1.6300	20.4902
 1.6290	20.5373
 1.6280	20.4600
 1.6270	20.4381
 1.6260	20.3385
 1.6250	20.3462
 1.6240	20.2741
 1.6230	20.2782
 1.6220	20.2016
 1.6210	20.2344
 1.6200	20.1917
 1.6190	20.1983
 1.6180	19.9824
 1.6170	20.0127
 1.6160	19.8928
 1.6150	19.8887
 1.6140	19.8601
 1.6130	19.8629
 1.6120	19.7602
 1.6110	19.7332
 1.6100	19.6884
 1.6090	19.6736
 1.6080	19.5798
 1.6070	19.6639
 1.6060	19.5391
 1.6050	19.6091
 1.6040	19.3421
 1.6030	19.3934
 1.6020	19.3620
 1.6010	19.3680
 1.6000	19.2512
 1.5990	19.2929
 1.5980	19.2202
 1.5970	19.2475
 1.5960	19.1319
 1.5950	19.1442
 1.5940	19.0511
 1.5930	19.0110
 1.5920	18.9263
 1.5910	18.9851
 1.5900	18.9159
 1.5890	18.9022
 1.5880	18.7789
 1.5870	18.8203
 1.5860	18.7542
 1.5850	18.7587
 1.5840	18.6717
 1.5830	18.6706
 1.5820	18.6051
 1.5810	18.5798
 1.5800	18.5106
 1.5790	18.4972
 1.5780	18.4038
 1.5770	18.4231
 1.5760	18.3539
 1.5750	18.3550
 1.5740	18.3455
 1.5730	18.2439
 1.5720	18.1756
 1.5710	18.1969
 1.5700	18.1393
 1.5690	18.1576
 1.5680	18.0445
 1.5670	18.0487
 1.5660	17.9658
 1.5650	17.9974
 1.5640	17.9625
 1.5630	17.8855
 1.5620	17.8617
 1.5610	17.8155
 1.5600	17.8203
 1.5590	17.7788
 1.5580	17.7655
 1.5570	17.7741
 1.5560	17.6911
 1.5550	17.6364
 1.5540	17.6436
 1.5530	17.6644
 1.5520	17.5752
 1.5510	17.5309
 1.5500	17.4788
 1.5490	17.5103
 1.5480	17.4327
 1.5470	17.4485
 1.5460	17.4240
 1.5450	17.4366
 1.5440	17.3503
 1.5430	17.3265
 1.5420	17.3164
 1.5410	17.3088
 1.5400	17.2812
 1.5390	17.2717
 1.5380	17.2236
 1.5370	17.1617
 1.5360	17.1546
 1.5350	17.1540
 1.5340	17.1266
 1.5330	17.1422
 1.5320	17.0972
 1.5310	17.0661
 1.5300	17.0242
 1.5290	17.0126
 1.5280	16.9499
 1.5270	16.9822
 1.5260	16.9527
 1.5250	16.9084
 1.5240	16.8797
 1.5230	16.8456
 1.5220	16.8088
 1.5210	16.8231
 1.5200	16.7782
 1.5190	16.7497
 1.5180	16.7430
 1.5170	16.7859
 1.5160	16.7180
 1.5150	16.6705
 1.5140	16.6228
 1.5130	16.6176
 1.5120	16.5763
 1.5110	16.6038
 1.5100	16.6101
 1.5090	16.5540
 1.5080	16.5389
 1.5070	16.4915
 1.5060	16.4883
 1.5050	16.4936
 1.5040	16.4338
 1.5030	16.4531
 1.5020	16.4234
 1.5010	16.3336
 1.5000	16.2899
 1.4990	16.3086
 1.4980	16.2796
 1.4970	16.2163
 1.4960	16.2521
 1.4950	16.1967
 1.4940	16.1645
 1.4930	16.1683
 1.4920	16.1525
 1.4910	16.0808
 1.4900	16.0329
 1.4890	16.0309
 1.4880	16.0041
 1.4870	15.9773
 1.4860	15.9536
 1.4850	15.8973
 1.4840	15.9016
 1.4830	15.8487
 1.4820	15.8073
 1.4810	15.7602
 1.4800	15.7199
 1.4790	15.6541
 1.4780	15.6542
 1.4770	15.6542
 1.4760	15.6312
 1.4750	15.5895
 1.4740	15.6140
 1.4730	15.5704
 1.4720	15.4737
 1.4710	15.4357
 1.4700	15.4300
 1.4690	15.3784
 1.4680	15.3437
 1.4670	15.2748
 1.4660	15.3413
 1.4650	15.2590
 1.4640	15.2644
 1.4630	15.1944
 1.4620	15.1542
 1.4610	15.1100
 1.4600	15.0470
 1.4590	15.0020
 1.4580	14.9970
 1.4570	14.9638
 1.4560	14.9819
 1.4550	14.9164
 1.4540	14.9578
 1.4530	14.8706
 1.4520	14.8436
 1.4510	14.7171
 1.4500	14.7515
 1.4490	14.7094
 1.4480	14.6710
 1.4470	14.6564
 1.4460	14.6520
 1.4450	14.6221
 1.4440	14.6250
 1.4430	14.5634
 1.4420	14.5670
 1.4410	14.4936
 1.4400	14.5457
 1.4390	14.5328
 1.4380	14.5187
 1.4370	14.4462
 1.4360	14.4476
 1.4350	14.4607
 1.4340	14.4819
 1.4330	14.4514
 1.4320	14.4045
 1.4310	14.3616
 1.4300	14.3931
 1.4290	14.3449
 1.4280	14.3132
 1.4270	14.2474
 1.4260	14.1843
 1.4250	14.1358
 1.4240	14.0598
 1.4230	13.8794
 1.4220	13.7415
 1.4210	13.5677
 1.4200	13.3989
 1.4190	13.1647
 1.4180	12.9102
 1.4170	12.6723
 1.4160	12.4267
 1.4150	12.2864
 1.4140	12.1396
 1.4130	12.1380
 1.4120	12.2789
 1.4110	12.2562
 1.4100	12.4619
 1.4090	12.4032
 1.4080	12.5354
 1.4070	12.5053
 1.4060	12.6447
 1.4050	12.7195
 1.4040	12.9224
 1.4030	13.0172
 1.4020	13.1280
 1.4010	13.1027
 1.4000	13.2997
 1.3990	13.3825
 1.3980	13.5201
 1.3970	13.4737
 1.3960	13.5536
 1.3950	13.4900
 1.3940	13.5766
 1.3930	13.5363
 1.3920	13.6231
 1.3910	13.5822
 1.3900	13.6757
 1.3890	13.5804
 1.3880	13.5463
 1.3870	13.4570
 1.3860	13.5774
 1.3850	13.4465
 1.3840	13.4907
 1.3830	13.3748
 1.3820	13.3650
 1.3810	13.2197
 1.3800	13.3697
 1.3790	13.2454
 1.3780	13.3998
 1.3770	13.2808
 1.3760	13.3586
 1.3750	13.2102
 1.3740	13.2353
 1.3730	13.1461
 1.3720	13.1215
 1.3710	13.1577
 1.3700	13.1133
 1.3690	12.9541
 1.3680	12.9671
 1.3670	12.9538
 1.3660	13.0480
 1.3650	12.9005
 1.3640	12.9733
 1.3630	12.8839
 1.3620	12.7656
 1.3610	12.7100
 1.3600	12.6803
 1.3590	12.7365
 1.3580	12.7753
 1.3570	12.6063
 1.3560	12.7185
 1.3550	12.4115
 1.3540	12.7228
 1.3530	12.5601
 1.3520	12.5672
 1.3510	12.5620
 1.3500	12.5104
 1.3490	12.3838
 1.3480	12.5149
 1.3470	12.3329
 1.3460	12.3925
 1.3450	12.3430
 1.3440	12.3908
 1.3430	12.2102
 1.3420	12.2864
 1.3410	12.2014
 1.3400	12.1793
 1.3390	12.1202
 1.3380	12.1375
 1.3370	12.0597
 1.3360	12.1142
 1.3350	12.0225
 1.3340	12.0607
 1.3330	11.9321
 1.3320	11.9756
 1.3310	11.8880
 1.3300	11.9654
 1.3290	11.8203
 1.3280	11.8685
 1.3270	11.7517
 1.3260	11.8786
 1.3250	11.7300
 1.3240	11.7899
 1.3230	11.6928
 1.3220	11.7424
 1.3210	11.5978
 1.3200	11.6625
 1.3190	11.5946
 1.3180	11.5527
 1.3170	11.4593
 1.3160	11.5251
 1.3150	11.4524
 1.3140	11.5229
 1.3130	11.4351
 1.3120	11.4733
 1.3110	11.3395
 1.3100	11.3802
 1.3090	11.2743
 1.3080	11.4076
 1.3070	11.2645
 1.3060	11.2748
 1.3050	11.1408
 1.3040	11.1922
 1.3030	11.1391
 1.3020	11.0968
 1.3010	11.0446
 1.3000	11.0259
 1.2990	11.0604
 1.2980	11.0486
 1.2970	11.0204
 1.2960	11.0014
 1.2950	10.8726
 1.2940	10.9809
 1.2930	10.9014
 1.2920	10.8521
 1.2910	10.8323
 1.2900	10.8274
 1.2890	10.7823
 1.2880	10.7966
 1.2870	10.6581
 1.2860	10.7291
 1.2850	10.6942
 1.2840	10.6712
 1.2830	10.5880
 1.2820	10.5731
 1.2810	10.5790
 1.2800	10.5263
 1.2790	10.5626
 1.2780	10.5841
 1.2770	10.4573
 1.2760	10.4690
 1.2750	10.4231
 1.2740	10.4203
 1.2730	10.4067
 1.2720	10.3300
 1.2710	10.2485
 1.2700	10.3135
 1.2690	10.2997
 1.2680	10.3038
 1.2670	10.2140
 1.2660	10.2173
 1.2650	10.1778
 1.2640	10.1661
 1.2630	10.1110
 1.2620	10.1099
 1.2610	10.0722
 1.2600	10.1126
 1.2590	10.0635
 1.2580	10.0096
 1.2570	 9.9457
 1.2560	 9.9771
 1.2550	 9.9422
 1.2540	 9.9762
 1.2530	 9.9066
 1.2520	 9.9567
 1.2510	 9.8813
 1.2500	 9.9203
 1.2490	 9.8693
 1.2480	 9.7926
 1.2470	 9.7695
 1.2460	 9.7909
 1.2450	 9.7723
 1.2440	 9.7673
 1.2430	 9.6873
 1.2420	 9.6843
 1.2410	 9.6607
 1.2400	 9.6556
 1.2390	 9.5838
 1.2380	 9.6020
 1.2370	 9.5673
 1.2360	 9.5662
 1.2350	 9.5106
 1.2340	 9.5070
 1.2330	 9.4579
 1.2320	 9.4942
 1.2310	 9.4787
 1.2300	 9.4129
 1.2290	 9.3941
 1.2280	 9.4425
 1.2270	 9.3969
 1.2260	 9.4113
 1.2250	 9.3662
 1.2240	 9.3130
 1.2230	 9.3240
 1.2220	 9.3184
 1.2210	 9.2622
 1.2200	 9.2744
 1.2190	 9.2450
 1.2180	 9.1667
 1.2170	 9.2196
 1.2160	 9.2288
 1.2150	 9.1648
 1.2140	 9.1343
 1.2130	 9.1395
 1.2120	 9.1423
 1.2110	 9.1081
 1.2100	 9.0950
 1.2090	 9.1212
 1.2080	 9.0608
 1.2070	 8.9817
 1.2060	 8.9997
 1.2050	 9.0138
 1.2040	 8.9570
 1.2030	 8.9501
 1.2020	 8.9313
 1.2010	 8.9244
 1.2000	 8.9036
 1.1990	 8.9005
 1.1980	 8.8884
 1.1970	 8.8659
 1.1960	 8.8384
 1.1950	 8.8537
 1.1940	 8.8204
 1.1930	 8.8126
 1.1920	 8.8003
 1.1910	 8.7996
 1.1900	 8.7804
 1.1890	 8.8157
 1.1880	 8.6912
 1.1870	 8.7513
 1.1860	 8.7054
 1.1850	 8.7288
 1.1840	 8.7130
 1.1830	 8.6799
 1.1820	 8.6612
 1.1810	 8.6490
 1.1800	 8.6339
 1.1790	 8.6465
 1.1780	 8.6310
 1.1770	 8.6302
 1.1760	 8.5792
 1.1750	 8.5934
 1.1740	 8.5519
 1.1730	 8.5387
 1.1720	 8.5075
 1.1710	 8.5524
 1.1700	 8.5459
 1.1690	 8.5526
 1.1680	 8.5159
 1.1670	 8.5036
 1.1660	 8.4540
 1.1650	 8.4739
 1.1640	 8.4488
 1.1630	 8.5190
 1.1620	 8.4669
 1.1610	 8.4844
 1.1600	 8.4379
 1.1590	 8.4373
 1.1580	 8.3818
 1.1570	 8.3829
 1.1560	 8.3538
 1.1550	 8.3941
 1.1540	 8.3330
 1.1530	 8.4089
 1.1520	 8.3673
 1.1510	 8.4081
 1.1500	 8.3071
 1.1490	 8.3697
 1.1480	 8.2908
 1.1470	 8.2745
 1.1460	 8.2500
 1.1450	 8.2893
 1.1440	 8.2282
 1.1430	 8.2811
 1.1420	 8.1927
 1.1410	 8.2370
 1.1400	 8.2394
 1.1390	 8.2538
 1.1380	 8.2067
 1.1370	 8.2836
 1.1360	 8.1904
 1.1350	 8.1811
 1.1340	 8.2111
 1.1330	 8.1882
 1.1320	 8.1863
 1.1310	 8.3046
 1.1300	 8.2244
 1.1290	 8.1895
 1.1280	 8.0698
 1.1270	 8.1143
 1.1260	 8.0803
 1.1250	 8.1156
 1.1240	 8.1133
 1.1230	 8.2335
 1.1220	 8.0981
 1.1210	 8.0645
 1.1200	 8.0877
 1.1190	 8.1904
 1.1180	 8.1261
 1.1170	 8.1671
 1.1160	 8.0682
 1.1150	 8.0846
 1.1140	 8.0760
 1.1130	 8.1863
 1.1120	 8.0932
 1.1110	 8.1405
 1.1100	 8.0836
 1.1090	 8.1172
 1.1080	 8.1475
 1.1070	 8.0572
 1.1060	 8.0958
 1.1050	 8.1348
 1.1040	 8.0931
 1.1030	 8.0934
 1.1020	 8.0643
 1.1010	 8.1423
 1.1000	 8.0584
 1.0990	 8.1677
 1.0980	 8.0973
 1.0970	 8.0849
 1.0960	 8.0905
 1.0950	 8.1899
 1.0940	 8.0229
 1.0930	 8.0121
 1.0920	 8.0759
 1.0910	 8.0447
 1.0900	 8.0758
 1.0890	 8.0895
 1.0880	 8.0567
 1.0870	 8.1102
 1.0860	 8.0321
 1.0850	 8.1062
 1.0840	 7.9569
 1.0830	 8.0280
 1.0820	 8.0866
 1.0810	 8.0789
 1.0800	 8.0571
 1.0790	 8.1580
 1.0780	 8.0311
 1.0770	 8.0641
 1.0760	 8.0416
 1.0750	 8.0464
 1.0740	 8.0058
 1.0730	 8.0991
 1.0720	 8.0708
 1.0710	 8.1832
 1.0700	 7.8879
 1.0690	 8.1346
 1.0680	 7.9305
 1.0670	 8.0074
 1.0660	 8.0333
 1.0650	 8.1451
 1.0640	 8.0759
 1.0630	 8.0862
 1.0620	 8.0825
 1.0610	 8.1301
 1.0600	 7.9965
 1.0590	 8.0609
 1.0580	 8.0448
 1.0570	 8.1256
 1.0560	 8.0916
 1.0550	 8.0998
 1.0540	 8.0280
 1.0530	 8.1275
 1.0520	 8.0727
 1.0510	 8.1320
 1.0500	 8.1272
 1.0490	 8.0312
 1.0480	 8.1253
 1.0470	 8.1362
 1.0460	 8.0908
 1.0450	 8.0959
 1.0440	 8.0918
 1.0430	 8.1989
 1.0420	 8.0829
 1.0410	 8.1427
 1.0400	 8.0931
 1.0390	 8.1716
 1.0380	 8.1487
 1.0370	 8.1313
 1.0360	 8.0425
 1.0350	 8.1347
 1.0340	 8.0605
 1.0330	 8.1224
 1.0320	 8.0792
 1.0310	 8.1532
 1.0300	 7.9971
 1.0290	 8.1610
 1.0280	 8.0229
 1.0270	 8.0530
 1.0260	 8.1416
 1.0250	 8.1373
 1.0240	 8.0535
 1.0230	 8.1075
 1.0220	 8.0516
 1.0210	 8.1466
 1.0200	 8.1184
 1.0190	 8.1349
 1.0180	 8.0834
 1.0170	 8.1470
 1.0160	 8.0470
 1.0150	 8.0816
 1.0140	 8.0722
 1.0130	 8.1095
 1.0120	 8.1273
 1.0110	 8.1410
 1.0100	 8.0139
 1.0090	 8.0189
 1.0080	 8.0848
 1.0070	 8.1541
 1.0060	 8.0627
 1.0050	 8.0822
 1.0040	 7.9763
 1.0030	 8.1350
 1.0020	 8.0578
 1.0010	 8.1132
 1.0000	 8.1078
 0.9990	 8.0993
 0.9980	 8.0303
 0.9970	 8.1400
 0.9960	 8.0239
 0.9950	 8.0959
 0.9940	 8.0465
 0.9930	 8.0356
 0.9920	 8.0380
 0.9910	 8.0909
 0.9900	 8.0068
 0.9890	 8.1219
 0.9880	 8.0661
 0.9870	 8.0237
 0.9860	 8.0337
 0.9850	 8.0731
 0.9840	 8.0051
 0.9830	 8.0501
 0.9820	 8.0092
 0.9810	 7.9483
 0.9800	 7.9909
 0.9790	 8.0048
 0.9780	 7.9768
 0.9770	 7.9994
 0.9760	 7.9488
 0.9750	 7.9101
 0.9740	 7.9004
 0.9730	 8.0142
 0.9720	 7.9975
 0.9710	 7.9725
 0.9700	 7.9172
 0.9690	 7.9210
 0.9680	 7.9330
 0.9670	 7.9341
 0.9660	 7.9273
 0.9650	 7.9036
 0.9640	 7.8492
 0.9630	 7.8946
 0.9620	 7.8738
 0.9610	 7.8423
 0.9600	 7.8320
 0.9590	 7.8626
 0.9580	 7.7908
 0.9570	 7.8208
 0.9560	 7.8618
 0.9550	 7.8058
 0.9540	 7.8107
 0.9530	 7.7882
 0.9520	 7.7747
 0.9510	 7.7805
 0.9500	 7.7950
 0.9490	 7.8157
 0.9480	 7.7700
 0.9470	 7.7652
 0.9460	 7.7515
 0.9450	 7.7909
 0.9440	 7.7744
 0.9430	 7.6818
 0.9420	 7.6938
 0.9410	 7.6976
 0.9400	 7.6591
 0.9390	 7.7393
 0.9380	 7.6765
 0.9370	 7.6403
 0.9360	 7.6445
 0.9350	 7.6340
 0.9340	 7.6315
 0.9330	 7.6688
 0.9320	 7.6863
 0.9310	 7.6011
 0.9300	 7.6067
 0.9290	 7.6786
 0.9280	 7.6899
 0.9270	 7.6454
 0.9260	 7.6269
 0.9250	 7.6347
 0.9240	 7.6141
 0.9230	 7.5937
 0.9220	 7.6121
 0.9210	 7.5842
 0.9200	 7.5931
 0.9190	 7.6210
 0.9180	 7.6170
 0.9170	 7.5565
 0.9160	 7.5606
 0.9150	 7.5811
 0.9140	 7.5907
 0.9130	 7.5885
 0.9120	 7.5683
 0.9110	 7.5565
 0.9100	 7.6023
 0.9090	 7.5326
 0.9080	 7.5618
 0.9070	 7.5646
 0.9060	 7.5571
 0.9050	 7.6163
 0.9040	 7.5238
 0.9030	 7.4938
 0.9020	 7.4655
 0.9010	 7.4580
 0.9000	 7.5569
 0.8990	 7.5816
 0.8980	 7.5527
 0.8970	 7.5079
 0.8960	 7.5678
 0.8950	 7.5679
 0.8940	 7.5364
 0.8930	 7.5187
 0.8920	 7.5430
 0.8910	 7.5675
 0.8900	 7.5816
 0.8890	 7.5180
 0.8880	 7.5048
 0.8870	 7.5172
 0.8860	 7.5788
 0.8850	 7.5622
 0.8840	 7.5453
 0.8830	 7.5110
 0.8820	 7.5857
 0.8810	 7.5605
 0.8800	 7.6446
 0.8790	 7.5420
 0.8780	 7.5880
 0.8770	 7.5989
 0.8760	 7.6301
 0.8750	 7.5548
 0.8740	 7.6323
 0.8730	 7.5631
 0.8720	 7.6083
 0.8710	 7.6359
 0.8700	 7.7099
 0.8690	 7.6459
 0.8680	 7.6331
 0.8670	 7.6145
 0.8660	 7.6406
 0.8650	 7.6427
 0.8640	 7.7040
 0.8630	 7.6156
 0.8620	 7.6584
 0.8610	 7.6510
 0.8600	 7.9177
 0.8590	 8.0028
 0.8580	 8.0062
 0.8570	 8.0149
 0.8560	 8.0395
 0.8550	 8.0316
 0.8540	 8.0452
 0.8530	 8.0714
 0.8520	 8.0683
 0.8510	 8.0771
 0.8500	 8.0902
 0.8490	 8.1131
 0.8480	 8.1194
 0.8470	 8.1190
 0.8460	 8.1226
 0.8450	 8.1435
 0.8440	 8.1590
 0.8430	 8.1556
 0.8420	 8.1544
 0.8410	 8.1680
 0.8400	 8.1831
 0.8390	 8.1806
 0.8380	 8.2026
 0.8370	 8.2051
 0.8360	 8.2203
 0.8350	 8.2202
 0.8340	 8.2348
 0.8330	 8.2459
 0.8320	 8.2558
 0.8310	 8.2536
 0.8300	 8.2555
 0.8290	 8.2720
 0.8280	 8.2928
 0.8270	 8.2961
 0.8260	 8.3021
 0.8250	 8.3069
 0.8240	 8.3238
 0.8230	 8.3263
 0.8220	 8.3350
 0.8210	 8.3430
 0.8200	 8.3480
 0.8190	 8.3590
 0.8180	 8.3683
 0.8170	 8.3744
 0.8160	 8.3699
 0.8150	 8.3818
 0.8140	 8.3893
 0.8130	 8.4035
 0.8120	 8.4069
 0.8110	 8.3924
 0.8100	 8.4156
 0.8090	 8.4217
 0.8080	 8.4170
 0.8070	 8.4247
 0.8060	 8.4222
 0.8050	 8.4344
 0.8040	 8.4440
 0.8030	 8.4510
 0.8020	 8.4508
 0.8010	 8.4550
 0.8000	 8.4522
 0.7990	 8.4602
 0.7980	 8.4627
 0.7970	 8.4584
 0.7960	 8.4575
 0.7950	 8.4562
 0.7940	 8.4617
 0.7930	 8.4647
 0.7920	 8.4600
 0.7910	 8.4672
 0.7900	 8.4669
 0.7890	 8.4700
 0.7880	 8.4602
 0.7870	 8.4634
 0.7860	 8.4617
 0.7850	 8.4715
 0.7840	 8.4591
 0.7830	 8.4666
 0.7820	 8.4651
 0.7810	 8.4744
 0.7800	 8.4571
 0.7790	 8.4548
 0.7780	 8.4531
 0.7770	 8.4601
 0.7760	 8.4556
 0.7750	 8.4490
 0.7740	 8.4514
 0.7730	 8.4505
 0.7720	 8.4401
 0.7710	 8.4370
 0.7700	 8.4456
 0.7690	 8.4403
 0.7680	 8.4368
 0.7670	 8.4337
 0.7660	 8.4351
 0.7650	 8.4356
 0.7640	 8.4291
 0.7630	 8.4298
 0.7620	 8.4247
 0.7610	 8.4290
 0.7600	 8.4260
 0.7590	 8.4235
 0.7580	 8.4204
 0.7570	 8.4163
 0.7560	 8.4147
 0.7550	 8.4115
 0.7540	 8.4184
 0.7530	 8.4157
 0.7520	 8.4159
 0.7510	 8.4129
 0.7500	 8.4100
 0.7490	 8.4044
 0.7480	 8.4033
 0.7470	 8.4061
 0.7460	 8.4061
 0.7450	 8.4050
 0.7440	 8.4085
 0.7430	 8.4081
 0.7420	 8.4118
 0.7410	 8.4096
 0.7400	 8.4058
 0.7390	 8.4064
 0.7380	 8.4082
 0.7370	 8.4100
 0.7360	 8.4125
 0.7350	 8.4159
 0.7340	 8.4124
 0.7330	 8.4156
 0.7320	 8.4232
 0.7310	 8.4192
 0.7300	 8.4213
 0.7290	 8.4291
 0.7280	 8.4261
 0.7270	 8.4288
 0.7260	 8.4317
 0.7250	 8.4391
 0.7240	 8.4413
 0.7230	 8.4454
 0.7220	 8.4501
 0.7210	 8.4463
 0.7200	 8.4550
 0.7190	 8.4573
 0.7180	 8.4598
 0.7170	 8.4669
 0.7160	 8.4698
 0.7150	 8.4800
 0.7140	 8.4849
 0.7130	 8.4925
 0.7120	 8.4944
 0.7110	 8.4988
 0.7100	 8.5098
 0.7090	 8.5147
 0.7080	 8.5227
 0.7070	 8.5279
 0.7060	 8.5288
 0.7050	 8.5416
 0.7040	 8.5476
 0.7030	 8.5581
 0.7020	 8.5621
 0.7010	 8.5742
 0.7000	 8.5812
 0.6990	 8.5903
 0.6980	 8.5999
 0.6970	 8.6081
 0.6960	 8.6194
 0.6950	 8.6243
 0.6940	 8.6315
 0.6930	 8.6395
 0.6920	 8.6549
 0.6910	 8.6639
 0.6900	 8.6724
 0.6890	 8.6803
 0.6880	 8.6966
 0.6870	 8.7149
 0.6860	 8.7244
 0.6850	 8.7286
 0.6840	 8.7434
 0.6830	 8.7550
 0.6820	 8.7645
 0.6810	 8.7747
 0.6800	 8.7893
 0.6790	 8.8027
 0.6780	 8.8139
 0.6770	 8.8250
 0.6760	 8.8388
 0.6750	 8.8515
 0.6740	 8.8645
 0.6730	 8.8756
 0.6720	 8.8861
 0.6710	 8.8896
 0.6700	 8.8946
 0.6690	 8.9091
 0.6680	 8.9273
 0.6670	 8.9432
 0.6660	 8.9532
 0.6650	 8.9644
 0.6640	 8.9793
 0.6630	 8.9958
 0.6620	 9.0112
 0.6610	 9.0245
 0.6600	 9.0405
 0.6590	 9.0572
 0.6580	 9.0711
 0.6570	 9.0863
 0.6560	 9.1022
 0.6550	 9.1167
 0.6540	 9.1318
 0.6530	 9.1469
 0.6520	 9.1603
 0.6510	 9.1762
 0.6500	 9.1926
 0.6490	 9.2083
 0.6480	 9.2230
 0.6470	 9.2382
 0.6460	 9.2550
 0.6450	 9.2716
 0.6440	 9.2856
 0.6430	 9.3016
 0.6420	 9.3209
 0.6410	 9.3371
 0.6400	 9.3504
 0.6390	 9.3686
 0.6380	 9.3866
 0.6370	 9.4023
 0.6360	 9.4181
 0.6350	 9.4349
 0.6340	 9.4517
 0.6330	 9.4678
 0.6320	 9.4849
 0.6310	 9.5024
 0.6300	 9.5181
 0.6290	 9.5322
 0.6280	 9.5487
 0.6270	 9.5682
 0.6260	 9.5853
 0.6250	 9.6017
 0.6240	 9.6192
 0.6230	 9.6339
 0.6220	 9.6467
 0.6210	 9.6676
 0.6200	 9.6861
 0.6190	 9.7011
 0.6180	 9.7187
 0.6170	 9.7373
 0.6160	 9.7539
 0.6150	 9.7725
 0.6140	 9.7890
 0.6130	 9.8034
 0.6120	 9.8230
 0.6110	 9.8408
 0.6100	 9.8584
 0.6090	 9.8755
 0.6080	 9.8901
 0.6070	 9.9063
 0.6060	 9.9248
 0.6050	 9.9409
 0.6040	 9.9570
 0.6030	 9.9742
 0.6020	 9.9900
 0.6010	10.0076
 0.6000	10.0243
 0.5990	10.0448
 0.5980	10.0634
 0.5970	10.0813
 0.5960	10.0994
 0.5950	10.1167
 0.5940	10.1324
 0.5930	10.1504
 0.5920	10.1650
 0.5910	10.1776
 0.5900	10.1934
 0.5890	10.2085
 0.5880	10.2236
 0.5870	10.2377
 0.5860	10.2545
 0.5850	10.2687
 0.5840	10.2835
 0.5830	10.2979
 0.5820	10.3099
 0.5810	10.3227
 0.5800	10.3381
 0.5790	10.3511
 0.5780	10.3620
 0.5770	10.3753
 0.5760	10.3857
 0.5750	10.3939
 0.5740	10.4061
 0.5730	10.4181
 0.5720	10.4289
 0.5710	10.4391
 0.5700	10.4521
 0.5690	10.4591
 0.5680	10.4629
 0.5670	10.4703
 0.5660	10.4773
 0.5650	10.4857
 0.5640	10.4872
 0.5630	10.4928
 0.5620	10.4976
 0.5610	10.5090
 0.5600	10.5113
 0.5590	10.5148
 0.5580	10.5201
 0.5570	10.5150
 0.5560	10.5194
 0.5550	10.5147
 0.5540	10.5131
 0.5530	10.5140
 0.5520	10.5104
 0.5510	10.5100
 0.5500	10.5008
 0.5490	10.4964
 0.5480	10.4926
 0.5470	10.4852
 0.5460	10.4828
 0.5450	10.4729
 0.5440	10.4667
 0.5430	10.4577
 0.5420	10.4457
 0.5410	10.4359
 0.5400	10.4274
 0.5390	10.4151
 0.5380	10.4012
 0.5370	10.3901
 0.5360	10.3761
 0.5350	10.3670
 0.5340	10.3502
 0.5330	10.3381
 0.5320	10.3248
 0.5310	10.3072
 0.5300	10.2949
 0.5290	10.2784
 0.5280	10.2630
 0.5270	10.2500
 0.5260	10.2352
 0.5250	10.2178
 0.5240	10.2006
 0.5230	10.1851
 0.5220	10.1611
 0.5210	10.1450
 0.5200	10.1234
 0.5190	10.0994
 0.5180	10.0832
 0.5170	10.0571
 0.5160	10.0328
 0.5150	10.0091
 0.5140	 9.9809
 0.5130	 9.9540
 0.5120	 9.9268
 0.5110	 9.8970
 0.5100	 9.8679
 0.5090	 9.8426
 0.5080	 9.8127
 0.5070	 9.7833
 0.5060	 9.7520
 0.5050	 9.7218
 0.5040	 9.6880
 0.5030	 9.6537
 0.5020	 9.6231
 0.5010	 9.5839
 0.5000	 9.5504
 0.4990	 9.5172
 0.4980	 9.4815
 0.4970	 9.4458
 0.4960	 9.4139
 0.4950	 9.3781
 0.4940	 9.3602
 0.4930	 9.3320
 0.4920	 9.3165
 0.4910	 9.2966
 0.4900	 9.2817
 0.4890	 9.2621
 0.4880	 9.2384
 0.4870	 9.2125
 0.4860	 9.1814
 0.4850	 9.1542
 0.4840	 9.1266
 0.4830	 9.0951
 0.4820	 9.0667
 0.4810	 9.0317
 0.4800	 9.0034
 0.4790	 8.9706
 0.4780	 8.9404
 0.4770	 8.9129
 0.4760	 8.8815
 0.4750	 8.8537
 0.4740	 8.8264
 0.4730	 8.8045
 0.4720	 8.7764
 0.4710	 8.7567
 0.4700	 8.7476
 0.4690	 8.7231
 0.4680	 8.6998
 0.4670	 8.6780
 0.4660	 8.6561
 0.4650	 8.6358
 0.4640	 8.6185
 0.4630	 8.5959
 0.4620	 8.5804
 0.4610	 8.5637
 0.4600	 8.5465
 0.4590	 8.5309
 0.4580	 8.5104
 0.4570	 8.4938
 0.4560	 8.4829
 0.4550	 8.4685
 0.4540	 8.4533
 0.4530	 8.4426
 0.4520	 8.4266
 0.4510	 8.4095
 0.4500	 8.3905
 0.4490	 8.3751
 0.4480	 8.3540
 0.4470	 8.3365
 0.4460	 8.3128
 0.4450	 8.2818
 0.4440	 8.2568
 0.4430	 8.2255
 0.4420	 8.1904
 0.4410	 8.1534
 0.4400	 8.1181
 0.4390	 8.0821
 0.4380	 8.0419
 0.4370	 8.0029
 0.4360	 7.9613
 0.4350	 7.9240
 0.4340	 7.8788
 0.4330	 7.8370
 0.4320	 7.7935
 0.4310	 7.7570
 0.4300	 7.7150
 0.4290	 7.6727
 0.4280	 7.6354
 0.4270	 7.5937
 0.4260	 7.5534
 0.4250	 7.5167
 0.4240	 7.4771
 0.4230	 7.4391
 0.4220	 7.4028
 0.4210	 7.3692
 0.4200	 7.3351
 0.4190	 7.3014
 0.4180	 7.2732
 0.4170	 7.2390
 0.4160	 7.2074
 0.4150	 7.1765
 0.4140	 7.1462
 0.4130	 7.1179
 0.4120	 7.0871
 0.4110	 7.0577
 0.4100	 7.0369
 0.4090	 7.0113
 0.4080	 6.9842
 0.4070	 6.9612
 0.4060	 6.9406
 0.4050	 6.9125
 0.4040	 6.8928
 0.4030	 6.8764
 0.4020	 6.8539
 0.4010	 6.8334
 0.4000	 6.8141
