Name: Howlite Ca_2B_5SiO_9(OH)_5
Type: Mineral
Class: Borate
Subclass: None
Particle Size: Fine
Sample No.: B-5A
Owner: JPL
Wavelength Range: VSWIR
Origin: USA, California, San Gabriel Mountains, Tick Canyon.
Collection Date: N/A
Description: Particle size was 0-45um.Collected by:  Burminco Original ASTER Spectral Library name was jpl.perkin.mineral.borate.none.fine.b05a.spectrum.txt
Measurement: Hemispherical reflectance
First Column: X
Second Column: Y
X Units: Wavelength (micrometers)
Y Units:Reflectance (percent)
First X Value:  2.5000
Last X Value:  0.4000
Number of X Values: 2101
Additional Information: mineral.borate.none.fine.vswir.b-5a.jpl.perkin.ancillary.txt

 2.5000	52.4638
 2.4990	52.1727
 2.4980	51.9892
 2.4970	51.8861
 2.4960	51.2569
 2.4950	51.4587
 2.4940	50.9498
 2.4930	51.0285
 2.4920	50.5058
 2.4910	50.4651
 2.4900	49.9792
 2.4890	49.8995
 2.4880	49.5702
 2.4870	49.3186
 2.4860	48.8093
 2.4850	48.5495
 2.4840	48.2946
 2.4830	48.1161
 2.4820	47.6991
 2.4810	47.4230
 2.4800	46.9577
 2.4790	46.5926
 2.4780	46.1994
 2.4770	45.8477
 2.4760	45.4647
 2.4750	45.1744
 2.4740	44.6647
 2.4730	44.2288
 2.4720	43.8565
 2.4710	43.5440
 2.4700	43.0641
 2.4690	42.7732
 2.4680	42.3448
 2.4670	42.1308
 2.4660	41.7880
 2.4650	41.4754
 2.4640	41.2220
 2.4630	41.0378
 2.4620	40.6479
 2.4610	40.7066
 2.4600	40.4689
 2.4590	40.4359
 2.4580	40.3565
 2.4570	40.4197
 2.4560	40.4388
 2.4550	40.5839
 2.4540	40.6207
 2.4530	40.9272
 2.4520	40.8846
 2.4510	41.2566
 2.4500	41.5147
 2.4490	41.7378
 2.4480	41.9968
 2.4470	42.3559
 2.4460	42.5265
 2.4450	42.8501
 2.4440	43.1449
 2.4430	43.4895
 2.4420	43.7261
 2.4410	44.0904
 2.4400	44.2322
 2.4390	44.6062
 2.4380	44.8972
 2.4370	45.1668
 2.4360	45.3081
 2.4350	45.6789
 2.4340	45.8531
 2.4330	46.0816
 2.4320	46.2825
 2.4310	46.5373
 2.4300	46.6985
 2.4290	46.9582
 2.4280	47.1792
 2.4270	47.5026
 2.4260	47.7571
 2.4250	48.0578
 2.4240	48.2804
 2.4230	48.6800
 2.4220	49.0148
 2.4210	49.3474
 2.4200	49.5911
 2.4190	49.9886
 2.4180	50.3865
 2.4170	50.8171
 2.4160	51.1711
 2.4150	51.5965
 2.4140	51.9787
 2.4130	52.4386
 2.4120	52.9182
 2.4110	53.3685
 2.4100	53.7789
 2.4090	54.2710
 2.4080	54.6493
 2.4070	55.0497
 2.4060	55.4337
 2.4050	55.9315
 2.4040	56.3113
 2.4030	56.7143
 2.4020	57.0687
 2.4010	57.4142
 2.4000	57.7477
 2.3990	58.1941
 2.3980	58.5550
 2.3970	58.8839
 2.3960	59.2470
 2.3950	59.6054
 2.3940	59.8727
 2.3930	60.2066
 2.3920	60.4414
 2.3910	60.7206
 2.3900	60.9797
 2.3890	61.3101
 2.3880	61.6202
 2.3870	61.8299
 2.3860	62.1080
 2.3850	62.4429
 2.3840	62.6553
 2.3830	62.9408
 2.3820	63.1676
 2.3810	63.3501
 2.3800	63.4612
 2.3790	63.6590
 2.3780	63.8863
 2.3770	64.1072
 2.3760	64.2443
 2.3750	64.3919
 2.3740	64.5293
 2.3730	64.6603
 2.3720	64.8246
 2.3710	64.9593
 2.3700	65.0730
 2.3690	65.1760
 2.3680	65.2424
 2.3670	65.3568
 2.3660	65.4338
 2.3650	65.4612
 2.3640	65.5241
 2.3630	65.5765
 2.3620	65.6523
 2.3610	65.6965
 2.3600	65.7646
 2.3590	65.8839
 2.3580	65.9137
 2.3570	65.9066
 2.3560	65.9310
 2.3550	66.0165
 2.3540	66.0980
 2.3530	66.1951
 2.3520	66.3020
 2.3510	66.3795
 2.3500	66.4936
 2.3490	66.5859
 2.3480	66.6148
 2.3470	66.7327
 2.3460	66.9143
 2.3450	67.0111
 2.3440	67.1078
 2.3430	67.1423
 2.3420	67.2281
 2.3410	67.3316
 2.3400	67.3541
 2.3390	67.4193
 2.3380	67.4960
 2.3370	67.4763
 2.3360	67.4473
 2.3350	67.3760
 2.3340	67.3551
 2.3330	67.2930
 2.3320	67.2351
 2.3310	67.1441
 2.3300	67.0612
 2.3290	66.9797
 2.3280	66.8969
 2.3270	66.7664
 2.3260	66.6012
 2.3250	66.4721
 2.3240	66.3763
 2.3230	66.2505
 2.3220	66.0976
 2.3210	65.9367
 2.3200	65.8319
 2.3190	65.7439
 2.3180	65.6273
 2.3170	65.5079
 2.3160	65.4117
 2.3150	65.2710
 2.3140	65.1705
 2.3130	65.0536
 2.3120	64.9856
 2.3110	64.9160
 2.3100	64.8343
 2.3090	64.7819
 2.3080	64.6522
 2.3070	64.5121
 2.3060	64.4518
 2.3050	64.4370
 2.3040	64.3737
 2.3030	64.2199
 2.3020	64.1687
 2.3010	64.1162
 2.3000	64.1473
 2.2990	64.0759
 2.2980	64.1072
 2.2970	64.1188
 2.2960	64.1196
 2.2950	64.1118
 2.2940	64.1864
 2.2930	64.2143
 2.2920	64.2084
 2.2910	64.2063
 2.2900	64.2831
 2.2890	64.3045
 2.2880	64.3220
 2.2870	64.3570
 2.2860	64.3596
 2.2850	64.3766
 2.2840	64.4680
 2.2830	64.4242
 2.2820	64.4689
 2.2810	64.4253
 2.2800	64.4362
 2.2790	64.3351
 2.2780	64.3554
 2.2770	64.3304
 2.2760	64.2131
 2.2750	64.1043
 2.2740	64.1309
 2.2730	64.0031
 2.2720	63.8875
 2.2710	63.7300
 2.2700	63.6450
 2.2690	63.4588
 2.2680	63.2509
 2.2670	63.1283
 2.2660	62.9907
 2.2650	62.7441
 2.2640	62.6815
 2.2630	62.3393
 2.2620	62.1955
 2.2610	61.9344
 2.2600	61.6885
 2.2590	61.4495
 2.2580	61.1911
 2.2570	60.9848
 2.2560	60.8838
 2.2550	60.5791
 2.2540	60.4297
 2.2530	60.1959
 2.2520	60.0744
 2.2510	59.9160
 2.2500	59.7412
 2.2490	59.5539
 2.2480	59.4664
 2.2470	59.2768
 2.2460	59.2301
 2.2450	59.1032
 2.2440	59.1190
 2.2430	59.0353
 2.2420	59.0937
 2.2410	59.0439
 2.2400	59.0793
 2.2390	59.0534
 2.2380	59.1753
 2.2370	59.1534
 2.2360	59.2990
 2.2350	59.4062
 2.2340	59.5273
 2.2330	59.5654
 2.2320	59.6882
 2.2310	59.8486
 2.2300	59.9452
 2.2290	60.0600
 2.2280	60.2766
 2.2270	60.3014
 2.2260	60.5048
 2.2250	60.6249
 2.2240	60.8179
 2.2230	60.8746
 2.2220	61.0302
 2.2210	61.1564
 2.2200	61.3265
 2.2190	61.4035
 2.2180	61.5388
 2.2170	61.6244
 2.2160	61.7603
 2.2150	61.8614
 2.2140	61.9283
 2.2130	61.9180
 2.2120	62.0261
 2.2110	61.9768
 2.2100	62.2136
 2.2090	62.1870
 2.2080	62.2464
 2.2070	62.2862
 2.2060	62.4384
 2.2050	62.3636
 2.2040	62.3939
 2.2030	62.4017
 2.2020	62.4427
 2.2010	62.4590
 2.2000	62.4102
 2.1990	62.3808
 2.1980	62.3165
 2.1970	62.1631
 2.1960	62.0965
 2.1950	61.9502
 2.1940	61.8507
 2.1930	61.6450
 2.1920	61.5062
 2.1910	61.3479
 2.1900	61.1317
 2.1890	60.8763
 2.1880	60.7799
 2.1870	60.5355
 2.1860	60.2948
 2.1850	60.0863
 2.1840	59.8708
 2.1830	59.6116
 2.1820	59.4579
 2.1810	59.1056
 2.1800	58.8963
 2.1790	58.6131
 2.1780	58.3866
 2.1770	58.0762
 2.1760	57.8880
 2.1750	57.5253
 2.1740	57.2756
 2.1730	56.9276
 2.1720	56.7078
 2.1710	56.3581
 2.1700	56.1534
 2.1690	55.8598
 2.1680	55.6696
 2.1670	55.4082
 2.1660	55.2805
 2.1650	55.0353
 2.1640	54.9433
 2.1630	54.8984
 2.1620	54.8485
 2.1610	54.7889
 2.1600	54.8467
 2.1590	54.8939
 2.1580	55.0241
 2.1570	55.1497
 2.1560	55.3367
 2.1550	55.5153
 2.1540	55.7377
 2.1530	55.9435
 2.1520	56.1753
 2.1510	56.3247
 2.1500	56.5930
 2.1490	56.7739
 2.1480	56.9444
 2.1470	57.0045
 2.1460	57.0856
 2.1450	57.1035
 2.1440	57.1268
 2.1430	57.0379
 2.1420	56.9651
 2.1410	56.8129
 2.1400	56.5972
 2.1390	56.3793
 2.1380	56.1599
 2.1370	55.8506
 2.1360	55.5808
 2.1350	55.2551
 2.1340	55.0572
 2.1330	54.7742
 2.1320	54.5974
 2.1310	54.3467
 2.1300	54.0959
 2.1290	54.1179
 2.1280	54.1392
 2.1270	54.2797
 2.1260	54.4252
 2.1250	54.6400
 2.1240	54.9513
 2.1230	55.3020
 2.1220	55.6434
 2.1210	56.0276
 2.1200	56.4983
 2.1190	56.9654
 2.1180	57.4016
 2.1170	57.8872
 2.1160	58.3735
 2.1150	58.7918
 2.1140	59.2710
 2.1130	59.5859
 2.1120	59.9087
 2.1110	60.2142
 2.1100	60.4877
 2.1090	60.8093
 2.1080	61.0637
 2.1070	61.2990
 2.1060	61.5412
 2.1050	61.7054
 2.1040	61.9072
 2.1030	62.1377
 2.1020	62.2839
 2.1010	62.5290
 2.1000	62.7994
 2.0990	63.0785
 2.0980	63.3792
 2.0970	63.6984
 2.0960	64.0396
 2.0950	64.4345
 2.0940	64.8560
 2.0930	65.2829
 2.0920	65.6775
 2.0910	66.0051
 2.0900	66.3562
 2.0890	66.7872
 2.0880	67.2082
 2.0870	67.6488
 2.0860	68.0737
 2.0850	68.5249
 2.0840	68.9511
 2.0830	69.4007
 2.0820	69.8229
 2.0810	70.2798
 2.0800	70.7852
 2.0790	71.1838
 2.0780	71.5988
 2.0770	72.1068
 2.0760	72.6290
 2.0750	73.0514
 2.0740	73.4938
 2.0730	73.8992
 2.0720	74.3175
 2.0710	74.7263
 2.0700	75.0624
 2.0690	75.4029
 2.0680	75.7144
 2.0670	76.0836
 2.0660	76.3395
 2.0650	76.5738
 2.0640	76.8831
 2.0630	77.0750
 2.0620	77.1763
 2.0610	77.3404
 2.0600	77.5507
 2.0590	77.6884
 2.0580	77.8684
 2.0570	77.9799
 2.0560	78.1285
 2.0550	78.2969
 2.0540	78.3495
 2.0530	78.4328
 2.0520	78.5119
 2.0510	78.6292
 2.0500	78.7235
 2.0490	78.7661
 2.0480	78.8420
 2.0470	78.8986
 2.0460	78.9268
 2.0450	78.8948
 2.0440	78.9086
 2.0430	78.9387
 2.0420	78.9162
 2.0410	78.8816
 2.0400	78.8079
 2.0390	78.7544
 2.0380	78.2137
 2.0370	78.2579
 2.0360	78.4439
 2.0350	78.4063
 2.0340	78.2867
 2.0330	78.1553
 2.0320	78.0869
 2.0310	78.0690
 2.0300	78.0552
 2.0290	78.1448
 2.0280	78.2467
 2.0270	78.3591
 2.0260	78.4329
 2.0250	78.6618
 2.0240	78.7854
 2.0230	79.0186
 2.0220	79.1996
 2.0210	79.2942
 2.0200	79.4275
 2.0190	79.5424
 2.0180	79.6659
 2.0170	79.6856
 2.0160	79.7375
 2.0150	79.7570
 2.0140	79.7037
 2.0130	79.7113
 2.0120	79.7559
 2.0110	79.8144
 2.0100	79.7809
 2.0090	79.7872
 2.0080	79.8175
 2.0070	79.8894
 2.0060	79.9972
 2.0050	80.0997
 2.0040	80.1854
 2.0030	80.2454
 2.0020	80.2668
 2.0010	80.3509
 2.0000	80.4113
 1.9990	80.5121
 1.9980	80.5340
 1.9970	80.6377
 1.9960	80.6814
 1.9950	80.6998
 1.9940	80.7827
 1.9930	80.8832
 1.9920	80.9320
 1.9910	80.9756
 1.9900	80.9701
 1.9890	81.0637
 1.9880	81.1889
 1.9870	81.2142
 1.9860	81.2225
 1.9850	81.3467
 1.9840	81.3999
 1.9830	81.4523
 1.9820	81.4866
 1.9810	81.4753
 1.9800	81.5249
 1.9790	81.5652
 1.9780	81.5999
 1.9770	81.6146
 1.9760	81.6594
 1.9750	81.6668
 1.9740	81.7163
 1.9730	81.6708
 1.9720	81.7481
 1.9710	81.7247
 1.9700	81.7689
 1.9690	81.8862
 1.9680	81.8432
 1.9670	81.8762
 1.9660	81.8772
 1.9650	81.7989
 1.9640	81.7536
 1.9630	81.8943
 1.9620	81.9420
 1.9610	81.9339
 1.9600	81.9328
 1.9590	81.9306
 1.9580	81.9554
 1.9570	81.9955
 1.9560	82.0294
 1.9550	82.0429
 1.9540	82.0659
 1.9530	82.1656
 1.9520	82.1322
 1.9510	82.1646
 1.9500	82.2701
 1.9490	82.2436
 1.9480	82.2774
 1.9470	82.2803
 1.9460	82.3022
 1.9450	82.2502
 1.9440	82.2997
 1.9430	82.3271
 1.9420	82.4889
 1.9410	82.4471
 1.9400	82.4228
 1.9390	82.3964
 1.9380	82.4449
 1.9370	82.5484
 1.9360	82.4380
 1.9350	82.5671
 1.9340	82.6057
 1.9330	82.5517
 1.9320	82.5816
 1.9310	82.6034
 1.9300	82.6642
 1.9290	82.6172
 1.9280	82.6820
 1.9270	82.7347
 1.9260	82.7100
 1.9250	82.7640
 1.9240	82.7578
 1.9230	82.9164
 1.9220	82.8410
 1.9210	82.9552
 1.9200	82.9077
 1.9190	82.9271
 1.9180	82.8951
 1.9170	83.0256
 1.9160	82.9899
 1.9150	83.1903
 1.9140	83.1875
 1.9130	83.2538
 1.9120	83.1744
 1.9110	83.3270
 1.9100	83.2948
 1.9090	83.3166
 1.9080	83.3275
 1.9070	83.2837
 1.9060	83.3900
 1.9050	83.5367
 1.9040	83.4124
 1.9030	83.4861
 1.9020	83.5357
 1.9010	83.6695
 1.9000	83.6157
 1.8990	83.6141
 1.8980	83.6664
 1.8970	83.6818
 1.8960	83.6874
 1.8950	83.6724
 1.8940	83.7128
 1.8930	83.7637
 1.8920	83.6919
 1.8910	83.7759
 1.8900	83.8040
 1.8890	83.8944
 1.8880	83.8770
 1.8870	83.9130
 1.8860	83.9275
 1.8850	83.9317
 1.8840	83.9611
 1.8830	83.9523
 1.8820	84.0233
 1.8810	84.0204
 1.8800	84.0478
 1.8790	84.1107
 1.8780	84.1368
 1.8770	84.0561
 1.8760	84.0856
 1.8750	84.1421
 1.8740	84.2299
 1.8730	84.2408
 1.8720	84.1669
 1.8710	84.2561
 1.8700	84.3173
 1.8690	84.3619
 1.8680	84.3066
 1.8670	84.3044
 1.8660	84.3098
 1.8650	84.4510
 1.8640	84.4620
 1.8630	84.4161
 1.8620	84.4567
 1.8610	84.5181
 1.8600	84.4994
 1.8590	84.5003
 1.8580	84.4630
 1.8570	84.5923
 1.8560	84.5938
 1.8550	84.5642
 1.8540	84.5500
 1.8530	84.5274
 1.8520	84.6305
 1.8510	84.6501
 1.8500	84.6358
 1.8490	84.7459
 1.8480	84.6743
 1.8470	84.6929
 1.8460	84.6317
 1.8450	84.6629
 1.8440	84.6556
 1.8430	84.6809
 1.8420	84.6608
 1.8410	84.6777
 1.8400	84.6901
 1.8390	84.7264
 1.8380	84.7311
 1.8370	84.6940
 1.8360	84.6187
 1.8350	84.6645
 1.8340	84.6871
 1.8330	84.6716
 1.8320	84.6498
 1.8310	84.6445
 1.8300	84.6800
 1.8290	84.6809
 1.8280	84.6724
 1.8270	84.6053
 1.8260	84.6410
 1.8250	84.6321
 1.8240	84.6340
 1.8230	84.5974
 1.8220	84.5791
 1.8210	84.6013
 1.8200	84.5847
 1.8190	84.6130
 1.8180	84.6413
 1.8170	84.6624
 1.8160	84.6683
 1.8150	84.6416
 1.8140	84.6251
 1.8130	84.6125
 1.8120	84.6253
 1.8110	84.6192
 1.8100	84.5640
 1.8090	84.5681
 1.8080	84.6165
 1.8070	84.6494
 1.8060	84.6316
 1.8050	84.6145
 1.8040	84.6083
 1.8030	84.6514
 1.8020	84.6629
 1.8010	84.6786
 1.8000	84.6156
 1.7990	84.5719
 1.7980	84.5889
 1.7970	84.6382
 1.7960	84.6372
 1.7950	84.5803
 1.7940	84.5626
 1.7930	84.5370
 1.7920	84.5308
 1.7910	84.5593
 1.7900	84.5518
 1.7890	84.5364
 1.7880	84.5336
 1.7870	84.5367
 1.7860	84.5038
 1.7850	84.4888
 1.7840	84.4942
 1.7830	84.4716
 1.7820	84.4504
 1.7810	84.4211
 1.7800	84.4516
 1.7790	84.4434
 1.7780	84.3497
 1.7770	84.3650
 1.7760	84.3414
 1.7750	84.3329
 1.7740	84.3490
 1.7730	84.2960
 1.7720	84.2870
 1.7710	84.2541
 1.7700	84.2268
 1.7690	84.2445
 1.7680	84.2861
 1.7670	84.2550
 1.7660	84.2185
 1.7650	84.1697
 1.7640	84.1651
 1.7630	84.1717
 1.7620	84.1843
 1.7610	84.1612
 1.7600	84.1568
 1.7590	84.1374
 1.7580	84.0873
 1.7570	84.0485
 1.7560	84.0914
 1.7550	84.1453
 1.7540	84.1511
 1.7530	84.0557
 1.7520	84.0014
 1.7510	83.9915
 1.7500	83.9828
 1.7490	83.9856
 1.7480	83.9584
 1.7470	83.9083
 1.7460	83.9557
 1.7450	83.9715
 1.7440	83.9011
 1.7430	83.8592
 1.7420	83.8485
 1.7410	83.8306
 1.7400	83.8322
 1.7390	83.7999
 1.7380	83.7827
 1.7370	83.7334
 1.7360	83.7633
 1.7350	83.7032
 1.7340	83.7206
 1.7330	83.6393
 1.7320	83.6117
 1.7310	83.5860
 1.7300	83.5941
 1.7290	83.5291
 1.7280	83.5204
 1.7270	83.5092
 1.7260	83.5169
 1.7250	83.5219
 1.7240	83.4060
 1.7230	83.3432
 1.7220	83.3368
 1.7210	83.3834
 1.7200	83.3910
 1.7190	83.2497
 1.7180	83.2511
 1.7170	83.2584
 1.7160	83.2328
 1.7150	83.1986
 1.7140	83.1872
 1.7130	83.1546
 1.7120	83.1312
 1.7110	83.0871
 1.7100	83.1247
 1.7090	83.0989
 1.7080	83.1275
 1.7070	83.0840
 1.7060	83.1117
 1.7050	83.0584
 1.7040	83.0457
 1.7030	82.9466
 1.7020	82.8796
 1.7010	82.8797
 1.7000	82.9496
 1.6990	82.8024
 1.6980	82.8758
 1.6970	82.8522
 1.6960	82.7995
 1.6950	82.7700
 1.6940	82.7774
 1.6930	82.7608
 1.6920	82.7609
 1.6910	82.6626
 1.6900	82.6886
 1.6890	82.7188
 1.6880	82.6561
 1.6870	82.6127
 1.6860	82.5868
 1.6850	82.5911
 1.6840	82.5796
 1.6830	82.4795
 1.6820	82.4529
 1.6810	82.4345
 1.6800	82.4345
 1.6790	82.4612
 1.6780	82.4093
 1.6770	82.3371
 1.6760	82.3052
 1.6750	82.2748
 1.6740	82.3030
 1.6730	82.2623
 1.6720	82.2234
 1.6710	82.2505
 1.6700	82.1644
 1.6690	82.1668
 1.6680	82.0539
 1.6670	82.0642
 1.6660	82.0414
 1.6650	82.1095
 1.6640	82.0413
 1.6630	82.0569
 1.6620	81.9718
 1.6610	82.0692
 1.6600	81.9857
 1.6590	81.9352
 1.6580	81.9439
 1.6570	81.8319
 1.6560	81.8230
 1.6550	81.8417
 1.6540	81.8862
 1.6530	81.8125
 1.6520	81.8581
 1.6510	81.8450
 1.6500	81.8423
 1.6490	81.7704
 1.6480	81.8567
 1.6470	81.8620
 1.6460	81.8066
 1.6450	81.8000
 1.6440	81.8371
 1.6430	81.7566
 1.6420	81.7754
 1.6410	81.7328
 1.6400	81.7825
 1.6390	81.8149
 1.6380	81.7665
 1.6370	81.7447
 1.6360	81.7260
 1.6350	81.7205
 1.6340	81.7381
 1.6330	81.7482
 1.6320	81.8291
 1.6310	81.8636
 1.6300	81.8713
 1.6290	81.8061
 1.6280	81.8923
 1.6270	81.8737
 1.6260	81.9274
 1.6250	81.9301
 1.6240	81.9153
 1.6230	82.0146
 1.6220	82.0964
 1.6210	82.0367
 1.6200	82.0776
 1.6190	82.0976
 1.6180	82.0999
 1.6170	82.1985
 1.6160	82.2239
 1.6150	82.1968
 1.6140	82.2594
 1.6130	82.3273
 1.6120	82.3574
 1.6110	82.3800
 1.6100	82.3884
 1.6090	82.4108
 1.6080	82.4571
 1.6070	82.4683
 1.6060	82.5116
 1.6050	82.5410
 1.6040	82.6397
 1.6030	82.6538
 1.6020	82.6551
 1.6010	82.7532
 1.6000	82.7638
 1.5990	82.7668
 1.5980	82.8519
 1.5970	82.8970
 1.5960	82.9119
 1.5950	82.9936
 1.5940	83.0907
 1.5930	83.1132
 1.5920	83.1655
 1.5910	83.1479
 1.5900	83.3246
 1.5890	83.3370
 1.5880	83.3737
 1.5870	83.4031
 1.5860	83.4969
 1.5850	83.5323
 1.5840	83.6022
 1.5830	83.6536
 1.5820	83.7196
 1.5810	83.8193
 1.5800	83.8208
 1.5790	83.9088
 1.5780	83.9358
 1.5770	83.9067
 1.5760	84.0385
 1.5750	84.0792
 1.5740	84.1339
 1.5730	84.1829
 1.5720	84.2298
 1.5710	84.2156
 1.5700	84.2778
 1.5690	84.2852
 1.5680	84.3994
 1.5670	84.3928
 1.5660	84.4383
 1.5650	84.4771
 1.5640	84.5178
 1.5630	84.5416
 1.5620	84.4998
 1.5610	84.5177
 1.5600	84.5780
 1.5590	84.6018
 1.5580	84.6048
 1.5570	84.6578
 1.5560	84.6269
 1.5550	84.6411
 1.5540	84.6842
 1.5530	84.6202
 1.5520	84.6051
 1.5510	84.6020
 1.5500	84.6462
 1.5490	84.6132
 1.5480	84.5868
 1.5470	84.5812
 1.5460	84.5433
 1.5450	84.4737
 1.5440	84.4526
 1.5430	84.3932
 1.5420	84.3726
 1.5410	84.3714
 1.5400	84.2942
 1.5390	84.1627
 1.5380	84.1094
 1.5370	84.0161
 1.5360	83.8939
 1.5350	83.7670
 1.5340	83.6190
 1.5330	83.4648
 1.5320	83.3343
 1.5310	83.1124
 1.5300	82.8588
 1.5290	82.6543
 1.5280	82.4776
 1.5270	82.2329
 1.5260	82.0145
 1.5250	81.7523
 1.5240	81.5657
 1.5230	81.4097
 1.5220	81.3557
 1.5210	81.3175
 1.5200	81.3158
 1.5190	81.3313
 1.5180	81.3476
 1.5170	81.3928
 1.5160	81.4404
 1.5150	81.5041
 1.5140	81.5955
 1.5130	81.6477
 1.5120	81.7216
 1.5110	81.8403
 1.5100	81.9079
 1.5090	81.9754
 1.5080	82.0260
 1.5070	82.0414
 1.5060	82.0950
 1.5050	82.1439
 1.5040	82.1877
 1.5030	82.1547
 1.5020	82.1314
 1.5010	82.1751
 1.5000	82.1731
 1.4990	82.1569
 1.4980	82.2061
 1.4970	82.3036
 1.4960	82.3415
 1.4950	82.3702
 1.4940	82.3921
 1.4930	82.4239
 1.4920	82.4951
 1.4910	82.5304
 1.4900	82.5149
 1.4890	82.4801
 1.4880	82.4181
 1.4870	82.3664
 1.4860	82.3524
 1.4850	82.2348
 1.4840	82.1583
 1.4830	82.1231
 1.4820	81.9687
 1.4810	81.8915
 1.4800	81.8243
 1.4790	81.7173
 1.4780	81.5922
 1.4770	81.5693
 1.4760	81.4812
 1.4750	81.3521
 1.4740	81.3150
 1.4730	81.2688
 1.4720	81.2899
 1.4710	81.3932
 1.4700	81.4504
 1.4690	81.4915
 1.4680	81.5321
 1.4670	81.5889
 1.4660	81.6319
 1.4650	81.6474
 1.4640	81.6637
 1.4630	81.6750
 1.4620	81.6328
 1.4610	81.6753
 1.4600	81.6696
 1.4590	81.6118
 1.4580	81.5804
 1.4570	81.4893
 1.4560	81.3524
 1.4550	81.1895
 1.4540	80.9719
 1.4530	80.4912
 1.4520	79.8418
 1.4510	78.9143
 1.4500	77.6802
 1.4490	76.1573
 1.4480	74.5590
 1.4470	73.3260
 1.4460	72.4499
 1.4450	72.1719
 1.4440	72.4399
 1.4430	73.1593
 1.4420	74.0841
 1.4410	75.0769
 1.4400	76.0801
 1.4390	76.9362
 1.4380	77.6520
 1.4370	78.0802
 1.4360	78.0452
 1.4350	77.4712
 1.4340	76.5542
 1.4330	75.6249
 1.4320	75.2931
 1.4310	75.8536
 1.4300	77.0732
 1.4290	78.4266
 1.4280	79.4600
 1.4270	80.1227
 1.4260	80.5615
 1.4250	80.9992
 1.4240	81.2829
 1.4230	81.5418
 1.4220	81.7819
 1.4210	81.9301
 1.4200	81.9894
 1.4190	82.0684
 1.4180	82.1283
 1.4170	82.1961
 1.4160	82.2100
 1.4150	82.2670
 1.4140	82.3869
 1.4130	82.4600
 1.4120	82.4920
 1.4110	82.7432
 1.4100	82.8065
 1.4090	82.9381
 1.4080	83.0186
 1.4070	83.2356
 1.4060	83.4628
 1.4050	83.6338
 1.4040	83.7746
 1.4030	83.9619
 1.4020	84.1392
 1.4010	84.3777
 1.4000	84.5821
 1.3990	84.8664
 1.3980	85.1111
 1.3970	85.3709
 1.3960	85.5861
 1.3950	85.8732
 1.3940	86.0646
 1.3930	86.2198
 1.3920	86.4272
 1.3910	86.6113
 1.3900	86.7436
 1.3890	86.9661
 1.3880	87.2394
 1.3870	87.3495
 1.3860	87.3697
 1.3850	87.4910
 1.3840	87.6689
 1.3830	87.8152
 1.3820	87.8991
 1.3810	87.9847
 1.3800	88.0521
 1.3790	88.2066
 1.3780	88.2171
 1.3770	88.3882
 1.3760	88.3919
 1.3750	88.5066
 1.3740	88.5581
 1.3730	88.5871
 1.3720	88.7058
 1.3710	88.6701
 1.3700	88.8019
 1.3690	88.8901
 1.3680	88.8949
 1.3670	88.9229
 1.3660	88.9095
 1.3650	89.0107
 1.3640	89.0194
 1.3630	88.9982
 1.3620	88.9852
 1.3610	89.0616
 1.3600	89.0574
 1.3590	88.9439
 1.3580	88.9323
 1.3570	88.9175
 1.3560	88.8713
 1.3550	88.8314
 1.3540	88.7306
 1.3530	88.6180
 1.3520	88.5115
 1.3510	88.4620
 1.3500	88.3597
 1.3490	88.3582
 1.3480	88.3558
 1.3470	88.3090
 1.3460	88.3149
 1.3450	88.3632
 1.3440	88.4257
 1.3430	88.3738
 1.3420	88.2797
 1.3410	88.3875
 1.3400	88.3142
 1.3390	88.1892
 1.3380	88.0524
 1.3370	87.9230
 1.3360	88.0264
 1.3350	88.1334
 1.3340	88.3619
 1.3330	88.7002
 1.3320	88.8365
 1.3310	89.1681
 1.3300	89.3174
 1.3290	89.4874
 1.3280	89.6068
 1.3270	89.5831
 1.3260	89.7681
 1.3250	89.9129
 1.3240	89.9699
 1.3230	89.8945
 1.3220	90.0702
 1.3210	90.0344
 1.3200	90.0951
 1.3190	90.1964
 1.3180	90.2204
 1.3170	90.2761
 1.3160	90.2727
 1.3150	90.2717
 1.3140	90.3903
 1.3130	90.4716
 1.3120	90.5065
 1.3110	90.5560
 1.3100	90.5192
 1.3090	90.5363
 1.3080	90.6229
 1.3070	90.6743
 1.3060	90.6346
 1.3050	90.6298
 1.3040	90.6572
 1.3030	90.7243
 1.3020	90.6996
 1.3010	90.7486
 1.3000	90.7683
 1.2990	90.7903
 1.2980	90.7543
 1.2970	90.7522
 1.2960	90.7372
 1.2950	90.7706
 1.2940	90.7751
 1.2930	90.8224
 1.2920	90.7621
 1.2910	90.8010
 1.2900	90.8039
 1.2890	90.8321
 1.2880	90.7754
 1.2870	90.7600
 1.2860	90.7677
 1.2850	90.7701
 1.2840	90.7833
 1.2830	90.7576
 1.2820	90.7270
 1.2810	90.6801
 1.2800	90.6417
 1.2790	90.7204
 1.2780	90.7129
 1.2770	90.7154
 1.2760	90.7132
 1.2750	90.7212
 1.2740	90.7282
 1.2730	90.6628
 1.2720	90.6671
 1.2710	90.6477
 1.2700	90.6689
 1.2690	90.6960
 1.2680	90.6710
 1.2670	90.7020
 1.2660	90.6100
 1.2650	90.5953
 1.2640	90.6038
 1.2630	90.6003
 1.2620	90.5764
 1.2610	90.5122
 1.2600	90.5144
 1.2590	90.5199
 1.2580	90.4775
 1.2570	90.4285
 1.2560	90.4260
 1.2550	90.4630
 1.2540	90.4892
 1.2530	90.5292
 1.2520	90.4794
 1.2510	90.4997
 1.2500	90.4921
 1.2490	90.4410
 1.2480	90.4886
 1.2470	90.5487
 1.2460	90.4742
 1.2450	90.4628
 1.2440	90.4625
 1.2430	90.4214
 1.2420	90.4454
 1.2410	90.5274
 1.2400	90.5540
 1.2390	90.5122
 1.2380	90.4782
 1.2370	90.5283
 1.2360	90.5254
 1.2350	90.4967
 1.2340	90.5595
 1.2330	90.6057
 1.2320	90.6078
 1.2310	90.6435
 1.2300	90.6591
 1.2290	90.7344
 1.2280	90.7687
 1.2270	90.8297
 1.2260	90.8506
 1.2250	90.9029
 1.2240	90.9686
 1.2230	90.9692
 1.2220	91.0005
 1.2210	91.0557
 1.2200	91.0541
 1.2190	91.0592
 1.2180	91.0852
 1.2170	91.0956
 1.2160	91.1121
 1.2150	91.1128
 1.2140	91.1195
 1.2130	91.1411
 1.2120	91.1091
 1.2110	91.1378
 1.2100	91.1984
 1.2090	91.2099
 1.2080	91.2241
 1.2070	91.2287
 1.2060	91.2148
 1.2050	91.2755
 1.2040	91.3303
 1.2030	91.3108
 1.2020	91.3310
 1.2010	91.3155
 1.2000	91.3064
 1.1990	91.3080
 1.1980	91.2926
 1.1970	91.2977
 1.1960	91.3384
 1.1950	91.3607
 1.1940	91.3433
 1.1930	91.3623
 1.1920	91.3647
 1.1910	91.3492
 1.1900	91.3060
 1.1890	91.3856
 1.1880	91.4317
 1.1870	91.3895
 1.1860	91.4421
 1.1850	91.4194
 1.1840	91.3958
 1.1830	91.3850
 1.1820	91.3967
 1.1810	91.3877
 1.1800	91.3879
 1.1790	91.3949
 1.1780	91.4429
 1.1770	91.4749
 1.1760	91.4474
 1.1750	91.4003
 1.1740	91.4520
 1.1730	91.4885
 1.1720	91.4494
 1.1710	91.4503
 1.1700	91.4940
 1.1690	91.5007
 1.1680	91.4554
 1.1670	91.4567
 1.1660	91.4893
 1.1650	91.5416
 1.1640	91.5065
 1.1630	91.4841
 1.1620	91.5154
 1.1610	91.5306
 1.1600	91.5235
 1.1590	91.5162
 1.1580	91.5267
 1.1570	91.4860
 1.1560	91.5373
 1.1550	91.5196
 1.1540	91.5268
 1.1530	91.4924
 1.1520	91.5615
 1.1510	91.5392
 1.1500	91.4997
 1.1490	91.4931
 1.1480	91.4972
 1.1470	91.5223
 1.1460	91.5318
 1.1450	91.5678
 1.1440	91.5704
 1.1430	91.5411
 1.1420	91.5715
 1.1410	91.5601
 1.1400	91.5345
 1.1390	91.4434
 1.1380	91.5625
 1.1370	91.5833
 1.1360	91.6128
 1.1350	91.5698
 1.1340	91.5790
 1.1330	91.6005
 1.1320	91.5531
 1.1310	91.4973
 1.1300	91.6015
 1.1290	91.6093
 1.1280	91.5804
 1.1270	91.5809
 1.1260	91.5865
 1.1250	91.6584
 1.1240	91.6647
 1.1230	91.5666
 1.1220	91.5937
 1.1210	91.5784
 1.1200	91.5760
 1.1190	91.6478
 1.1180	91.6178
 1.1170	91.4991
 1.1160	91.5611
 1.1150	91.6130
 1.1140	91.6384
 1.1130	91.5583
 1.1120	91.5936
 1.1110	91.6279
 1.1100	91.5187
 1.1090	91.5819
 1.1080	91.6274
 1.1070	91.5907
 1.1060	91.5416
 1.1050	91.6184
 1.1040	91.5509
 1.1030	91.5669
 1.1020	91.6291
 1.1010	91.5584
 1.1000	91.5634
 1.0990	91.5674
 1.0980	91.5339
 1.0970	91.5531
 1.0960	91.4840
 1.0950	91.4062
 1.0940	91.6524
 1.0930	91.5890
 1.0920	91.5168
 1.0910	91.5718
 1.0900	91.5414
 1.0890	91.6136
 1.0880	91.5982
 1.0870	91.5887
 1.0860	91.6401
 1.0850	91.5943
 1.0840	91.5786
 1.0830	91.5369
 1.0820	91.6434
 1.0810	91.6148
 1.0800	91.5624
 1.0790	91.5743
 1.0780	91.5036
 1.0770	91.6126
 1.0760	91.6165
 1.0750	91.6011
 1.0740	91.5329
 1.0730	91.6369
 1.0720	91.5964
 1.0710	91.6218
 1.0700	91.6188
 1.0690	91.5604
 1.0680	91.6810
 1.0670	91.6618
 1.0660	91.6613
 1.0650	91.6166
 1.0640	91.6085
 1.0630	91.6294
 1.0620	91.6818
 1.0610	91.7031
 1.0600	91.6922
 1.0590	91.5820
 1.0580	91.7091
 1.0570	91.6557
 1.0560	91.6768
 1.0550	91.6353
 1.0540	91.6267
 1.0530	91.6176
 1.0520	91.6459
 1.0510	91.6162
 1.0500	91.6311
 1.0490	91.6096
 1.0480	91.6349
 1.0470	91.7124
 1.0460	91.5703
 1.0450	91.5060
 1.0440	91.5766
 1.0430	91.5522
 1.0420	91.6876
 1.0410	91.6005
 1.0400	91.6916
 1.0390	91.5941
 1.0380	91.6537
 1.0370	91.5465
 1.0360	91.5237
 1.0350	91.5907
 1.0340	91.5440
 1.0330	91.5900
 1.0320	91.5835
 1.0310	91.5999
 1.0300	91.4993
 1.0290	91.5406
 1.0280	91.5563
 1.0270	91.5165
 1.0260	91.6040
 1.0250	91.5515
 1.0240	91.5724
 1.0230	91.4498
 1.0220	91.5123
 1.0210	91.6002
 1.0200	91.4246
 1.0190	91.5533
 1.0180	91.5373
 1.0170	91.5602
 1.0160	91.6049
 1.0150	91.5216
 1.0140	91.5455
 1.0130	91.5274
 1.0120	91.5150
 1.0110	91.5374
 1.0100	91.5151
 1.0090	91.4450
 1.0080	91.5387
 1.0070	91.4798
 1.0060	91.5168
 1.0050	91.4662
 1.0040	91.4379
 1.0030	91.4273
 1.0020	91.3965
 1.0010	91.3365
 1.0000	91.3478
 0.9990	91.2431
 0.9980	91.2542
 0.9970	91.2778
 0.9960	91.2212
 0.9950	91.0837
 0.9940	91.0106
 0.9930	90.9525
 0.9920	90.9246
 0.9910	90.9011
 0.9900	90.8555
 0.9890	90.7219
 0.9880	90.7818
 0.9870	90.8159
 0.9860	90.7842
 0.9850	90.7589
 0.9840	90.7942
 0.9830	90.7989
 0.9820	90.7952
 0.9810	90.7856
 0.9800	90.7849
 0.9790	90.7504
 0.9780	90.8662
 0.9770	90.9232
 0.9760	90.9650
 0.9750	91.0996
 0.9740	91.1426
 0.9730	91.1125
 0.9720	91.2093
 0.9710	91.2247
 0.9700	91.2209
 0.9690	91.2654
 0.9680	91.2854
 0.9670	91.2937
 0.9660	91.2710
 0.9650	91.2516
 0.9640	91.2601
 0.9630	91.2438
 0.9620	91.2596
 0.9610	91.2532
 0.9600	91.2301
 0.9590	91.2428
 0.9580	91.3644
 0.9570	91.3788
 0.9560	91.3404
 0.9550	91.3898
 0.9540	91.3831
 0.9530	91.4253
 0.9520	91.4019
 0.9510	91.4500
 0.9500	91.5359
 0.9490	91.4789
 0.9480	91.5452
 0.9470	91.5890
 0.9460	91.5460
 0.9450	91.5790
 0.9440	91.6012
 0.9430	91.6139
 0.9420	91.6191
 0.9410	91.6663
 0.9400	91.6544
 0.9390	91.6113
 0.9380	91.5875
 0.9370	91.6217
 0.9360	91.6806
 0.9350	91.7163
 0.9340	91.7172
 0.9330	91.7282
 0.9320	91.7231
 0.9310	91.7028
 0.9300	91.7550
 0.9290	91.7220
 0.9280	91.6641
 0.9270	91.7144
 0.9260	91.7708
 0.9250	91.7823
 0.9240	91.7903
 0.9230	91.7876
 0.9220	91.7816
 0.9210	91.8093
 0.9200	91.8609
 0.9190	91.8662
 0.9180	91.7816
 0.9170	91.7724
 0.9160	91.8459
 0.9150	91.8873
 0.9140	91.9148
 0.9130	91.8929
 0.9120	91.8476
 0.9110	91.8160
 0.9100	91.8227
 0.9090	91.8608
 0.9080	91.8312
 0.9070	91.8382
 0.9060	91.8460
 0.9050	91.8157
 0.9040	91.8981
 0.9030	91.8683
 0.9020	91.7565
 0.9010	91.7426
 0.9000	91.7382
 0.8990	91.7989
 0.8980	91.7477
 0.8970	91.7529
 0.8960	91.8101
 0.8950	91.8721
 0.8940	91.9253
 0.8930	91.8434
 0.8920	91.8020
 0.8910	91.8058
 0.8900	91.9112
 0.8890	91.9584
 0.8880	91.8988
 0.8870	91.8607
 0.8860	91.8143
 0.8850	91.7936
 0.8840	91.8443
 0.8830	91.8655
 0.8820	91.9630
 0.8810	91.9385
 0.8800	91.9282
 0.8790	91.8645
 0.8780	91.9367
 0.8770	91.8493
 0.8760	91.8581
 0.8750	91.7976
 0.8740	91.8363
 0.8730	91.8998
 0.8720	91.9340
 0.8710	91.9399
 0.8700	91.9011
 0.8690	91.9230
 0.8680	91.9087
 0.8670	91.9502
 0.8660	91.9308
 0.8650	91.9258
 0.8640	91.8762
 0.8630	91.8489
 0.8620	91.9013
 0.8610	91.8984
 0.8600	91.8508
 0.8590	91.9750
 0.8580	91.8277
 0.8570	91.8541
 0.8560	91.9830
 0.8550	91.9738
 0.8540	91.9208
 0.8530	91.9550
 0.8520	92.0086
 0.8510	92.0066
 0.8500	92.0957
 0.8490	92.0689
 0.8480	91.8966
 0.8470	91.9452
 0.8460	92.0188
 0.8450	91.9768
 0.8440	92.0012
 0.8430	92.0337
 0.8420	91.9889
 0.8410	91.8913
 0.8400	91.9172
 0.8390	91.9205
 0.8380	91.9377
 0.8370	91.9528
 0.8360	91.9433
 0.8350	91.9993
 0.8340	91.9482
 0.8330	91.9918
 0.8320	91.9410
 0.8310	91.9173
 0.8300	91.9192
 0.8290	91.9023
 0.8280	91.9302
 0.8270	92.0271
 0.8260	91.9818
 0.8250	91.9927
 0.8240	92.0271
 0.8230	91.9589
 0.8220	91.9099
 0.8210	91.9310
 0.8200	91.8517
 0.8190	91.9258
 0.8180	91.8809
 0.8170	91.8824
 0.8160	91.8412
 0.8150	91.9196
 0.8140	91.9296
 0.8130	91.9691
 0.8120	92.0349
 0.8110	91.9339
 0.8100	91.9002
 0.8090	91.9543
 0.8080	91.9155
 0.8070	91.9260
 0.8060	92.0027
 0.8050	92.0296
 0.8040	91.9665
 0.8030	91.9548
 0.8020	91.8848
 0.8010	91.8653
 0.8000	91.9415
 0.7990	91.8920
 0.7980	91.9179
 0.7970	91.9465
 0.7960	91.9365
 0.7950	91.8949
 0.7940	91.9460
 0.7930	91.8570
 0.7920	91.8875
 0.7910	91.8959
 0.7900	91.9231
 0.7890	91.9002
 0.7880	91.8576
 0.7870	91.8552
 0.7860	91.8070
 0.7850	91.6974
 0.7840	91.8328
 0.7830	91.8376
 0.7820	91.8113
 0.7810	91.8221
 0.7800	91.7848
 0.7790	91.6887
 0.7780	91.7918
 0.7770	91.8285
 0.7760	91.7695
 0.7750	91.8127
 0.7740	91.8432
 0.7730	91.8417
 0.7720	91.8708
 0.7710	91.8112
 0.7700	91.7436
 0.7690	91.7422
 0.7680	91.7370
 0.7670	91.7737
 0.7660	91.7640
 0.7650	91.7365
 0.7640	91.7298
 0.7630	91.8442
 0.7620	91.7954
 0.7610	91.7492
 0.7600	91.7654
 0.7590	91.6883
 0.7580	91.6847
 0.7570	91.6697
 0.7560	91.7956
 0.7550	91.7358
 0.7540	91.7285
 0.7530	91.7299
 0.7520	91.7169
 0.7510	91.7028
 0.7500	91.6758
 0.7490	91.7491
 0.7480	91.7340
 0.7470	91.7536
 0.7460	91.7734
 0.7450	91.7129
 0.7440	91.7299
 0.7430	91.7199
 0.7420	91.7125
 0.7410	91.7535
 0.7400	91.7300
 0.7390	91.7191
 0.7380	91.7068
 0.7370	91.7125
 0.7360	91.6962
 0.7350	91.6982
 0.7340	91.6939
 0.7330	91.7202
 0.7320	91.6886
 0.7310	91.7220
 0.7300	91.7260
 0.7290	91.7308
 0.7280	91.7203
 0.7270	91.7116
 0.7260	91.7311
 0.7250	91.7355
 0.7240	91.6930
 0.7230	91.7110
 0.7220	91.7279
 0.7210	91.7370
 0.7200	91.7119
 0.7190	91.7120
 0.7180	91.7177
 0.7170	91.6899
 0.7160	91.6817
 0.7150	91.6857
 0.7140	91.7223
 0.7130	91.6897
 0.7120	91.6882
 0.7110	91.6800
 0.7100	91.6915
 0.7090	91.6886
 0.7080	91.6787
 0.7070	91.6729
 0.7060	91.7001
 0.7050	91.6912
 0.7040	91.7021
 0.7030	91.7047
 0.7020	91.6828
 0.7010	91.6722
 0.7000	91.6835
 0.6990	91.6739
 0.6980	91.6696
 0.6970	91.6621
 0.6960	91.6742
 0.6950	91.6509
 0.6940	91.6544
 0.6930	91.6613
 0.6920	91.6430
 0.6910	91.6715
 0.6900	91.6659
 0.6890	91.6684
 0.6880	91.6719
 0.6870	91.6618
 0.6860	91.6574
 0.6850	91.6516
 0.6840	91.6387
 0.6830	91.6592
 0.6820	91.6317
 0.6810	91.6299
 0.6800	91.6428
 0.6790	91.6440
 0.6780	91.6329
 0.6770	91.6400
 0.6760	91.6568
 0.6750	91.6704
 0.6740	91.6842
 0.6730	91.6844
 0.6720	91.6788
 0.6710	91.6776
 0.6700	91.6962
 0.6690	91.6975
 0.6680	91.6965
 0.6670	91.6972
 0.6660	91.7071
 0.6650	91.6852
 0.6640	91.6848
 0.6630	91.6991
 0.6620	91.6910
 0.6610	91.6664
 0.6600	91.6718
 0.6590	91.6605
 0.6580	91.6574
 0.6570	91.6809
 0.6560	91.6762
 0.6550	91.6519
 0.6540	91.6525
 0.6530	91.6501
 0.6520	91.6466
 0.6510	91.6592
 0.6500	91.6563
 0.6490	91.6587
 0.6480	91.6454
 0.6470	91.6306
 0.6460	91.6342
 0.6450	91.6197
 0.6440	91.6097
 0.6430	91.6236
 0.6420	91.6180
 0.6410	91.6176
 0.6400	91.6267
 0.6390	91.6191
 0.6380	91.6092
 0.6370	91.6022
 0.6360	91.6032
 0.6350	91.6015
 0.6340	91.6006
 0.6330	91.6005
 0.6320	91.5909
 0.6310	91.5934
 0.6300	91.5876
 0.6290	91.5727
 0.6280	91.5563
 0.6270	91.5585
 0.6260	91.5519
 0.6250	91.5533
 0.6240	91.5559
 0.6230	91.5592
 0.6220	91.5567
 0.6210	91.5567
 0.6200	91.5688
 0.6190	91.5550
 0.6180	91.5453
 0.6170	91.5562
 0.6160	91.5402
 0.6150	91.5362
 0.6140	91.5343
 0.6130	91.5348
 0.6120	91.5368
 0.6110	91.5175
 0.6100	91.5079
 0.6090	91.5018
 0.6080	91.4986
 0.6070	91.4865
 0.6060	91.4923
 0.6050	91.5105
 0.6040	91.4945
 0.6030	91.4887
 0.6020	91.4802
 0.6010	91.4451
 0.6000	91.4480
 0.5990	91.4890
 0.5980	91.5022
 0.5970	91.5096
 0.5960	91.5237
 0.5950	91.5274
 0.5940	91.5333
 0.5930	91.5405
 0.5920	91.5372
 0.5910	91.5326
 0.5900	91.5148
 0.5890	91.4845
 0.5880	91.4795
 0.5870	91.4794
 0.5860	91.4616
 0.5850	91.4659
 0.5840	91.4668
 0.5830	91.4682
 0.5820	91.4713
 0.5810	91.4437
 0.5800	91.4418
 0.5790	91.4376
 0.5780	91.4470
 0.5770	91.4392
 0.5760	91.4231
 0.5750	91.4224
 0.5740	91.3993
 0.5730	91.3777
 0.5720	91.3749
 0.5710	91.3659
 0.5700	91.3806
 0.5690	91.3643
 0.5680	91.3616
 0.5670	91.3438
 0.5660	91.3431
 0.5650	91.3285
 0.5640	91.2755
 0.5630	91.2701
 0.5620	91.3187
 0.5610	91.2457
 0.5600	91.2015
 0.5590	91.2468
 0.5580	91.3069
 0.5570	91.2394
 0.5560	91.1782
 0.5550	91.2269
 0.5540	91.2161
 0.5530	91.1526
 0.5520	91.1978
 0.5510	91.1832
 0.5500	91.0992
 0.5490	91.1232
 0.5480	91.1916
 0.5470	91.1313
 0.5460	91.0385
 0.5450	91.0577
 0.5440	91.0920
 0.5430	91.0555
 0.5420	91.0106
 0.5410	91.0567
 0.5400	91.0859
 0.5390	91.0591
 0.5380	90.9720
 0.5370	90.9397
 0.5360	90.9074
 0.5350	90.8636
 0.5340	90.8514
 0.5330	90.8582
 0.5320	90.8665
 0.5310	90.9146
 0.5300	90.9088
 0.5290	90.8685
 0.5280	90.8509
 0.5270	90.8038
 0.5260	90.7578
 0.5250	90.7196
 0.5240	90.7008
 0.5230	90.6738
 0.5220	90.6415
 0.5210	90.6178
 0.5200	90.5875
 0.5190	90.5611
 0.5180	90.5608
 0.5170	90.6025
 0.5160	90.6291
 0.5150	90.6189
 0.5140	90.6130
 0.5130	90.5512
 0.5120	90.5329
 0.5110	90.4899
 0.5100	90.4795
 0.5090	90.4241
 0.5080	90.4097
 0.5070	90.4131
 0.5060	90.3753
 0.5050	90.3810
 0.5040	90.3246
 0.5030	90.3224
 0.5020	90.2921
 0.5010	90.2265
 0.5000	90.2248
 0.4990	90.2079
 0.4980	90.1536
 0.4970	90.1407
 0.4960	90.0987
 0.4950	90.0243
 0.4940	90.0162
 0.4930	90.0184
 0.4920	89.9760
 0.4910	89.9372
 0.4900	89.8850
 0.4890	89.8544
 0.4880	89.8584
 0.4870	89.8327
 0.4860	89.8266
 0.4850	89.8107
 0.4840	89.7961
 0.4830	89.7324
 0.4820	89.6954
 0.4810	89.6811
 0.4800	89.6033
 0.4790	89.5997
 0.4780	89.5339
 0.4770	89.5600
 0.4760	89.5312
 0.4750	89.4876
 0.4740	89.4154
 0.4730	89.3926
 0.4720	89.3403
 0.4710	89.2777
 0.4700	89.2335
 0.4690	89.2024
 0.4680	89.1520
 0.4670	89.1191
 0.4660	89.0794
 0.4650	89.0603
 0.4640	89.0157
 0.4630	88.9959
 0.4620	88.9458
 0.4610	88.9200
 0.4600	88.8627
 0.4590	88.8278
 0.4580	88.8395
 0.4570	88.8740
 0.4560	88.8461
 0.4550	88.7652
 0.4540	88.6898
 0.4530	88.6623
 0.4520	88.6968
 0.4510	88.6910
 0.4500	88.5839
 0.4490	88.5590
 0.4480	88.5573
 0.4470	88.5077
 0.4460	88.4081
 0.4450	88.4131
 0.4440	88.4580
 0.4430	88.3683
 0.4420	88.2733
 0.4410	88.3263
 0.4400	88.3059
 0.4390	88.2090
 0.4380	88.2097
 0.4370	88.2270
 0.4360	88.1251
 0.4350	88.0966
 0.4340	88.1347
 0.4330	88.0196
 0.4320	87.9587
 0.4310	88.0233
 0.4300	87.9818
 0.4290	87.8842
 0.4280	87.8157
 0.4270	87.8053
 0.4260	87.8041
 0.4250	87.8371
 0.4240	87.8395
 0.4230	87.7618
 0.4220	87.6578
 0.4210	87.6087
 0.4200	87.5596
 0.4190	87.5249
 0.4180	87.5303
 0.4170	87.5534
 0.4160	87.5332
 0.4150	87.4302
 0.4140	87.3559
 0.4130	87.3406
 0.4120	87.3507
 0.4110	87.3333
 0.4100	87.2490
 0.4090	87.1834
 0.4080	87.1977
 0.4070	87.1477
 0.4060	87.0458
 0.4050	87.0401
 0.4040	87.0485
 0.4030	86.9686
 0.4020	86.9173
 0.4010	86.9181
 0.4000	86.8445
