Name: Microcline (Feldspar) (K,Na)AlSi_3O_8
Type: Mineral
Class: Silicate
Subclass: Tectosilicate
Particle Size: Coarse
Sample No.: TS-17A
Owner: JPL
Wavelength Range: VSWIR
Origin: Unknown.
Collection Date: N/A
Description: Particle size was 125-500um. Collected by:  JPL Original ASTER Spectral Library name was jpl.perkin.mineral.silicate.tectosilicate.coarse.ts17a.spectrum.txt
Measurement: Hemispherical reflectance
First Column: X
Second Column: Y
X Units: Wavelength (micrometers)
Y Units:Reflectance (percent)
First X Value:  2.5000
Last X Value:  0.4000
Number of X Values: 2101
Additional Information: mineral.silicate.tectosilicate.coarse.vswir.ts-17a.jpl.perkin.ancillary.txt

 2.5000	58.7270
 2.4990	58.6170
 2.4980	58.4821
 2.4970	58.6256
 2.4960	58.3582
 2.4950	58.5892
 2.4940	58.3358
 2.4930	58.4223
 2.4920	58.3302
 2.4910	58.4177
 2.4900	58.4297
 2.4890	58.5173
 2.4880	58.5222
 2.4870	58.5551
 2.4860	58.4332
 2.4850	58.5838
 2.4840	58.5803
 2.4830	58.7018
 2.4820	58.5571
 2.4810	58.6430
 2.4800	58.6590
 2.4790	58.7254
 2.4780	58.7076
 2.4770	58.7924
 2.4760	58.7002
 2.4750	58.8062
 2.4740	58.6224
 2.4730	58.5986
 2.4720	58.8112
 2.4710	58.8978
 2.4700	58.8026
 2.4690	58.8268
 2.4680	58.9425
 2.4670	58.9751
 2.4660	58.9035
 2.4650	58.8654
 2.4640	58.8188
 2.4630	58.9302
 2.4620	58.8475
 2.4610	58.8984
 2.4600	58.7757
 2.4590	58.9416
 2.4580	58.8696
 2.4570	58.9245
 2.4560	58.9069
 2.4550	58.8613
 2.4540	58.9219
 2.4530	58.8522
 2.4520	58.7998
 2.4510	58.8573
 2.4500	58.7307
 2.4490	58.8567
 2.4480	58.7676
 2.4470	58.9812
 2.4460	58.8368
 2.4450	58.7801
 2.4440	58.8068
 2.4430	58.8654
 2.4420	58.7906
 2.4410	58.9602
 2.4400	58.9264
 2.4390	58.9587
 2.4380	58.9083
 2.4370	59.1338
 2.4360	59.0773
 2.4350	59.0954
 2.4340	59.1268
 2.4330	59.3329
 2.4320	59.4268
 2.4310	59.5447
 2.4300	59.4895
 2.4290	59.7011
 2.4280	59.7087
 2.4270	59.8344
 2.4260	60.0152
 2.4250	60.1238
 2.4240	60.2411
 2.4230	60.3600
 2.4220	60.4810
 2.4210	60.6589
 2.4200	60.8030
 2.4190	60.8241
 2.4180	61.0005
 2.4170	61.2058
 2.4160	61.3820
 2.4150	61.5510
 2.4140	61.6981
 2.4130	61.8115
 2.4120	61.9021
 2.4110	62.0370
 2.4100	62.2261
 2.4090	62.3685
 2.4080	62.4143
 2.4070	62.5421
 2.4060	62.6749
 2.4050	62.8269
 2.4040	63.0095
 2.4030	63.1163
 2.4020	63.2419
 2.4010	63.2955
 2.4000	63.3792
 2.3990	63.4680
 2.3980	63.4729
 2.3970	63.5959
 2.3960	63.7535
 2.3950	63.8216
 2.3940	63.9064
 2.3930	63.8773
 2.3920	63.9476
 2.3910	63.9864
 2.3900	63.9636
 2.3890	64.0501
 2.3880	64.1399
 2.3870	64.1355
 2.3860	64.1208
 2.3850	64.1954
 2.3840	64.2674
 2.3830	64.2684
 2.3820	64.3248
 2.3810	64.3266
 2.3800	64.3063
 2.3790	64.3588
 2.3780	64.3994
 2.3770	64.4843
 2.3760	64.5231
 2.3750	64.4897
 2.3740	64.5080
 2.3730	64.5258
 2.3720	64.5753
 2.3710	64.5917
 2.3700	64.5143
 2.3690	64.5333
 2.3680	64.5890
 2.3670	64.5905
 2.3660	64.5602
 2.3650	64.5841
 2.3640	64.5147
 2.3630	64.4704
 2.3620	64.4713
 2.3610	64.4108
 2.3600	64.3430
 2.3590	64.2752
 2.3580	64.1925
 2.3570	64.1958
 2.3560	64.0977
 2.3550	64.0115
 2.3540	63.9801
 2.3530	63.9193
 2.3520	63.8420
 2.3510	63.7667
 2.3500	63.6837
 2.3490	63.6242
 2.3480	63.6203
 2.3470	63.5678
 2.3460	63.5455
 2.3450	63.5453
 2.3440	63.5797
 2.3430	63.5830
 2.3420	63.6466
 2.3410	63.7152
 2.3400	63.7755
 2.3390	63.8753
 2.3380	63.9831
 2.3370	64.0473
 2.3360	64.0816
 2.3350	64.1617
 2.3340	64.3249
 2.3330	64.4947
 2.3320	64.6664
 2.3310	64.8154
 2.3300	64.9869
 2.3290	65.1265
 2.3280	65.3098
 2.3270	65.5120
 2.3260	65.6226
 2.3250	65.7609
 2.3240	66.0020
 2.3230	66.2056
 2.3220	66.4135
 2.3210	66.5237
 2.3200	66.7434
 2.3190	66.9747
 2.3180	67.1449
 2.3170	67.3245
 2.3160	67.4924
 2.3150	67.6775
 2.3140	67.8374
 2.3130	68.0266
 2.3120	68.2275
 2.3110	68.3648
 2.3100	68.5427
 2.3090	68.7347
 2.3080	68.8770
 2.3070	69.0235
 2.3060	69.2493
 2.3050	69.4080
 2.3040	69.5787
 2.3030	69.6822
 2.3020	69.8457
 2.3010	69.9493
 2.3000	70.1009
 2.2990	70.2318
 2.2980	70.3491
 2.2970	70.5394
 2.2960	70.5997
 2.2950	70.7031
 2.2940	70.8052
 2.2930	70.8760
 2.2920	71.0634
 2.2910	71.1047
 2.2900	71.2447
 2.2890	71.2590
 2.2880	71.3521
 2.2870	71.4269
 2.2860	71.5221
 2.2850	71.5586
 2.2840	71.7025
 2.2830	71.7386
 2.2820	71.6935
 2.2810	71.7123
 2.2800	71.8022
 2.2790	71.8602
 2.2780	71.9592
 2.2770	71.9555
 2.2760	71.9937
 2.2750	71.9179
 2.2740	72.0179
 2.2730	72.0268
 2.2720	72.0083
 2.2710	71.9876
 2.2700	72.0022
 2.2690	71.9701
 2.2680	71.9936
 2.2670	72.0525
 2.2660	71.9818
 2.2650	71.9534
 2.2640	71.9425
 2.2630	71.8363
 2.2620	71.8019
 2.2610	71.8033
 2.2600	71.7480
 2.2590	71.6458
 2.2580	71.6958
 2.2570	71.5866
 2.2560	71.6509
 2.2550	71.4554
 2.2540	71.4663
 2.2530	71.5046
 2.2520	71.3612
 2.2510	71.3646
 2.2500	71.2894
 2.2490	71.2438
 2.2480	71.1377
 2.2470	71.1384
 2.2460	71.1858
 2.2450	71.0558
 2.2440	71.0395
 2.2430	70.9563
 2.2420	70.9761
 2.2410	70.9259
 2.2400	70.8950
 2.2390	70.8262
 2.2380	70.7086
 2.2370	70.6543
 2.2360	70.5459
 2.2350	70.4295
 2.2340	70.4045
 2.2330	70.3360
 2.2320	70.2037
 2.2310	70.0417
 2.2300	69.9843
 2.2290	69.7902
 2.2280	69.7100
 2.2270	69.5775
 2.2260	69.3327
 2.2250	69.2512
 2.2240	68.9864
 2.2230	68.7467
 2.2220	68.6243
 2.2210	68.4160
 2.2200	68.1771
 2.2190	67.8001
 2.2180	67.4470
 2.2170	67.0355
 2.2160	66.8793
 2.2150	66.4175
 2.2140	66.0212
 2.2130	65.5808
 2.2120	65.2897
 2.2110	64.7641
 2.2100	64.5639
 2.2090	64.0751
 2.2080	63.8999
 2.2070	63.5283
 2.2060	63.1738
 2.2050	62.8207
 2.2040	62.6758
 2.2030	62.4537
 2.2020	62.2740
 2.2010	62.1920
 2.2000	62.0090
 2.1990	61.9279
 2.1980	61.9662
 2.1970	61.9290
 2.1960	62.0075
 2.1950	62.0662
 2.1940	62.2402
 2.1930	62.3860
 2.1920	62.6023
 2.1910	62.8876
 2.1900	63.2410
 2.1890	63.5499
 2.1880	63.9531
 2.1870	64.2775
 2.1860	64.7962
 2.1850	65.1927
 2.1840	65.8031
 2.1830	66.2186
 2.1820	66.6583
 2.1810	67.1528
 2.1800	67.6586
 2.1790	68.0322
 2.1780	68.4442
 2.1770	68.9248
 2.1760	69.3076
 2.1750	69.7584
 2.1740	70.1237
 2.1730	70.4801
 2.1720	70.7824
 2.1710	71.1452
 2.1700	71.4652
 2.1690	71.6879
 2.1680	72.0002
 2.1670	72.2141
 2.1660	72.5222
 2.1650	72.7595
 2.1640	72.9664
 2.1630	73.1391
 2.1620	73.3206
 2.1610	73.5536
 2.1600	73.6971
 2.1590	73.8275
 2.1580	74.0700
 2.1570	74.2060
 2.1560	74.4589
 2.1550	74.4940
 2.1540	74.6295
 2.1530	74.7332
 2.1520	74.8974
 2.1510	75.0240
 2.1500	75.1484
 2.1490	75.2615
 2.1480	75.3341
 2.1470	75.4511
 2.1460	75.5868
 2.1450	75.5569
 2.1440	75.6641
 2.1430	75.6587
 2.1420	75.7495
 2.1410	75.7941
 2.1400	75.8701
 2.1390	75.8477
 2.1380	75.9149
 2.1370	75.9124
 2.1360	75.9154
 2.1350	75.9056
 2.1340	76.0126
 2.1330	76.0045
 2.1320	75.9266
 2.1310	75.8401
 2.1300	75.8666
 2.1290	75.9071
 2.1280	75.8304
 2.1270	75.7495
 2.1260	75.8033
 2.1250	75.7163
 2.1240	75.6220
 2.1230	75.5915
 2.1220	75.5792
 2.1210	75.5056
 2.1200	75.4755
 2.1190	75.4741
 2.1180	75.4470
 2.1170	75.3696
 2.1160	75.2925
 2.1150	75.2424
 2.1140	75.3021
 2.1130	75.2538
 2.1120	75.2834
 2.1110	75.2919
 2.1100	75.2035
 2.1090	75.1703
 2.1080	75.1611
 2.1070	75.1032
 2.1060	75.1107
 2.1050	75.1609
 2.1040	75.1992
 2.1030	75.1192
 2.1020	75.1034
 2.1010	75.1554
 2.1000	75.1644
 2.0990	75.1424
 2.0980	75.1495
 2.0970	75.1846
 2.0960	75.2014
 2.0950	75.3039
 2.0940	75.4178
 2.0930	75.4118
 2.0920	75.4794
 2.0910	75.5467
 2.0900	75.5266
 2.0890	75.5173
 2.0880	75.5718
 2.0870	75.6673
 2.0860	75.7046
 2.0850	75.6970
 2.0840	75.6840
 2.0830	75.6749
 2.0820	75.7492
 2.0810	75.7517
 2.0800	75.7480
 2.0790	75.8066
 2.0780	75.8282
 2.0770	75.7573
 2.0760	75.7486
 2.0750	75.7986
 2.0740	75.8411
 2.0730	75.8397
 2.0720	75.7843
 2.0710	75.7715
 2.0700	75.8039
 2.0690	75.7619
 2.0680	75.7787
 2.0670	75.8059
 2.0660	75.8100
 2.0650	75.8078
 2.0640	75.8123
 2.0630	75.8649
 2.0620	75.8024
 2.0610	75.7737
 2.0600	75.7832
 2.0590	75.7641
 2.0580	75.8043
 2.0570	75.7924
 2.0560	75.7295
 2.0550	75.6964
 2.0540	75.6666
 2.0530	75.6182
 2.0520	75.5852
 2.0510	75.5834
 2.0500	75.5817
 2.0490	75.5715
 2.0480	75.5096
 2.0470	75.4646
 2.0460	75.4424
 2.0450	75.4636
 2.0440	75.4460
 2.0430	75.4226
 2.0420	75.3679
 2.0410	75.3243
 2.0400	75.3192
 2.0390	75.3138
 2.0380	75.2169
 2.0370	75.2150
 2.0360	75.1614
 2.0350	75.1238
 2.0340	75.0867
 2.0330	75.0167
 2.0320	74.9878
 2.0310	74.9517
 2.0300	74.8807
 2.0290	74.8139
 2.0280	74.7173
 2.0270	74.7570
 2.0260	74.7029
 2.0250	74.5932
 2.0240	74.5496
 2.0230	74.5245
 2.0220	74.4589
 2.0210	74.4181
 2.0200	74.3093
 2.0190	74.2486
 2.0180	74.1497
 2.0170	74.1474
 2.0160	74.0694
 2.0150	73.9685
 2.0140	73.8863
 2.0130	73.8023
 2.0120	73.7091
 2.0110	73.5973
 2.0100	73.5423
 2.0090	73.5065
 2.0080	73.4240
 2.0070	73.3554
 2.0060	73.3448
 2.0050	73.2232
 2.0040	73.0678
 2.0030	73.0318
 2.0020	72.9010
 2.0010	72.9072
 2.0000	72.7702
 1.9990	72.7251
 1.9980	72.6400
 1.9970	72.4761
 1.9960	72.4587
 1.9950	72.4266
 1.9940	72.2712
 1.9930	72.1310
 1.9920	72.0243
 1.9910	72.0152
 1.9900	71.8735
 1.9890	71.7785
 1.9880	71.7314
 1.9870	71.6558
 1.9860	71.5514
 1.9850	71.4213
 1.9840	71.3746
 1.9830	71.3275
 1.9820	71.2267
 1.9810	71.0879
 1.9800	70.9790
 1.9790	70.8658
 1.9780	70.7813
 1.9770	70.7203
 1.9760	70.7085
 1.9750	70.5680
 1.9740	70.5584
 1.9730	70.4972
 1.9720	70.3816
 1.9710	70.3169
 1.9700	70.1930
 1.9690	70.1780
 1.9680	70.0626
 1.9670	69.9951
 1.9660	69.8573
 1.9650	69.9099
 1.9640	69.8263
 1.9630	69.7749
 1.9620	69.6914
 1.9610	69.6673
 1.9600	69.5618
 1.9590	69.5386
 1.9580	69.4365
 1.9570	69.4706
 1.9560	69.3971
 1.9550	69.2937
 1.9540	69.1934
 1.9530	69.1945
 1.9520	69.0905
 1.9510	69.1077
 1.9500	69.0182
 1.9490	69.0372
 1.9480	68.9699
 1.9470	68.9768
 1.9460	68.8954
 1.9450	68.8680
 1.9440	68.7195
 1.9430	68.7701
 1.9420	68.7481
 1.9410	68.7641
 1.9400	68.7754
 1.9390	68.7866
 1.9380	68.6667
 1.9370	68.6890
 1.9360	68.6612
 1.9350	68.6923
 1.9340	68.7356
 1.9330	68.6863
 1.9320	68.6745
 1.9310	68.6707
 1.9300	68.5947
 1.9290	68.6957
 1.9280	68.8026
 1.9270	68.6883
 1.9260	68.7591
 1.9250	68.7829
 1.9240	68.7633
 1.9230	68.8087
 1.9220	68.8717
 1.9210	68.8965
 1.9200	68.8494
 1.9190	68.9843
 1.9180	69.0092
 1.9170	69.1307
 1.9160	69.1779
 1.9150	69.3414
 1.9140	69.4134
 1.9130	69.5651
 1.9120	69.6332
 1.9110	69.8628
 1.9100	69.9192
 1.9090	70.1990
 1.9080	70.3945
 1.9070	70.5611
 1.9060	70.8008
 1.9050	71.0399
 1.9040	71.3876
 1.9030	71.6950
 1.9020	71.9938
 1.9010	72.3741
 1.9000	72.5972
 1.8990	72.9649
 1.8980	73.3849
 1.8970	73.6269
 1.8960	73.8790
 1.8950	74.2935
 1.8940	74.5072
 1.8930	74.9520
 1.8920	75.1805
 1.8910	75.5566
 1.8900	75.6777
 1.8890	76.0089
 1.8880	76.2952
 1.8870	76.5227
 1.8860	76.7119
 1.8850	76.9224
 1.8840	77.1036
 1.8830	77.2533
 1.8820	77.4562
 1.8810	77.5351
 1.8800	77.7273
 1.8790	77.8671
 1.8780	78.0354
 1.8770	78.1805
 1.8760	78.3260
 1.8750	78.4029
 1.8740	78.4634
 1.8730	78.6417
 1.8720	78.7261
 1.8710	78.7457
 1.8700	78.7088
 1.8690	78.9413
 1.8680	78.9942
 1.8670	79.0422
 1.8660	79.1773
 1.8650	79.1757
 1.8640	79.2849
 1.8630	79.2734
 1.8620	79.2917
 1.8610	79.3501
 1.8600	79.4243
 1.8590	79.4023
 1.8580	79.4488
 1.8570	79.4230
 1.8560	79.4395
 1.8550	79.4955
 1.8540	79.4774
 1.8530	79.5177
 1.8520	79.5195
 1.8510	79.5493
 1.8500	79.5185
 1.8490	79.4939
 1.8480	79.5500
 1.8470	79.6223
 1.8460	79.5491
 1.8450	79.6125
 1.8440	79.6054
 1.8430	79.5877
 1.8420	79.5993
 1.8410	79.6430
 1.8400	79.6449
 1.8390	79.6726
 1.8380	79.6047
 1.8370	79.6419
 1.8360	79.6272
 1.8350	79.6209
 1.8340	79.5796
 1.8330	79.6203
 1.8320	79.6529
 1.8310	79.6866
 1.8300	79.6765
 1.8290	79.6912
 1.8280	79.6303
 1.8270	79.6424
 1.8260	79.7313
 1.8250	79.7787
 1.8240	79.7295
 1.8230	79.7553
 1.8220	79.7641
 1.8210	79.7192
 1.8200	79.6850
 1.8190	79.7375
 1.8180	79.7301
 1.8170	79.7164
 1.8160	79.7125
 1.8150	79.7872
 1.8140	79.7629
 1.8130	79.7049
 1.8120	79.7360
 1.8110	79.7900
 1.8100	79.7476
 1.8090	79.7553
 1.8080	79.7453
 1.8070	79.7622
 1.8060	79.7993
 1.8050	79.7698
 1.8040	79.7507
 1.8030	79.8037
 1.8020	79.8481
 1.8010	79.9108
 1.8000	79.8881
 1.7990	79.8247
 1.7980	79.8165
 1.7970	79.8332
 1.7960	79.8107
 1.7950	79.8129
 1.7940	79.8110
 1.7930	79.8152
 1.7920	79.8604
 1.7910	79.8694
 1.7900	79.8197
 1.7890	79.8139
 1.7880	79.8220
 1.7870	79.8319
 1.7860	79.8404
 1.7850	79.8330
 1.7840	79.7821
 1.7830	79.7415
 1.7820	79.7994
 1.7810	79.7957
 1.7800	79.7767
 1.7790	79.8605
 1.7780	79.8851
 1.7770	79.8219
 1.7760	79.7808
 1.7750	79.8137
 1.7740	79.7923
 1.7730	79.8522
 1.7720	79.9107
 1.7710	79.8493
 1.7700	79.8249
 1.7690	79.8631
 1.7680	79.8465
 1.7670	79.8432
 1.7660	79.8461
 1.7650	79.9067
 1.7640	79.8556
 1.7630	79.7955
 1.7620	79.8116
 1.7610	79.8474
 1.7600	79.8813
 1.7590	79.9009
 1.7580	79.9293
 1.7570	79.9346
 1.7560	79.9445
 1.7550	79.8901
 1.7540	79.8993
 1.7530	79.9447
 1.7520	79.8929
 1.7510	79.8316
 1.7500	79.9267
 1.7490	80.0093
 1.7480	79.9737
 1.7470	79.9713
 1.7460	80.0116
 1.7450	79.9847
 1.7440	80.0050
 1.7430	80.0447
 1.7420	80.0629
 1.7410	80.0350
 1.7400	80.0501
 1.7390	80.0458
 1.7380	80.0428
 1.7370	80.0176
 1.7360	80.0122
 1.7350	79.9860
 1.7340	80.0379
 1.7330	80.1206
 1.7320	80.1069
 1.7310	80.0726
 1.7300	80.0508
 1.7290	80.1355
 1.7280	80.1803
 1.7270	80.1138
 1.7260	80.1165
 1.7250	80.0509
 1.7240	80.0433
 1.7230	80.1172
 1.7220	80.0927
 1.7210	80.0542
 1.7200	80.1200
 1.7190	80.0789
 1.7180	80.1025
 1.7170	80.0743
 1.7160	80.1546
 1.7150	80.0672
 1.7140	80.0839
 1.7130	80.0501
 1.7120	80.1953
 1.7110	80.1423
 1.7100	80.0831
 1.7090	80.1049
 1.7080	80.0932
 1.7070	80.0742
 1.7060	80.0690
 1.7050	80.0293
 1.7040	80.1370
 1.7030	80.0327
 1.7020	80.1078
 1.7010	80.0880
 1.7000	80.1622
 1.6990	80.0582
 1.6980	80.0705
 1.6970	80.1151
 1.6960	80.0723
 1.6950	80.1276
 1.6940	80.0575
 1.6930	80.0815
 1.6920	80.0514
 1.6910	80.0564
 1.6900	80.1114
 1.6890	80.0448
 1.6880	80.0133
 1.6870	80.0008
 1.6860	80.0842
 1.6850	79.9933
 1.6840	80.0522
 1.6830	80.1002
 1.6820	80.1057
 1.6810	79.9912
 1.6800	80.1010
 1.6790	79.9925
 1.6780	80.0368
 1.6770	79.9979
 1.6760	80.0592
 1.6750	79.8846
 1.6740	79.9933
 1.6730	79.9229
 1.6720	79.9885
 1.6710	79.9505
 1.6700	80.0470
 1.6690	79.9882
 1.6680	79.9118
 1.6670	79.9650
 1.6660	79.9179
 1.6650	79.9298
 1.6640	79.9167
 1.6630	79.8683
 1.6620	79.8154
 1.6610	79.9446
 1.6600	79.8869
 1.6590	79.9823
 1.6580	80.0228
 1.6570	79.9993
 1.6560	79.9780
 1.6550	79.9672
 1.6540	79.9218
 1.6530	79.9758
 1.6520	79.9220
 1.6510	79.9075
 1.6500	79.9320
 1.6490	79.9909
 1.6480	79.9730
 1.6470	79.8374
 1.6460	79.8611
 1.6450	79.8115
 1.6440	79.8104
 1.6430	79.9733
 1.6420	79.8651
 1.6410	79.7558
 1.6400	79.9984
 1.6390	79.8312
 1.6380	79.9026
 1.6370	79.7661
 1.6360	79.7952
 1.6350	79.8925
 1.6340	79.8253
 1.6330	79.8208
 1.6320	79.7440
 1.6310	79.7734
 1.6300	79.7753
 1.6290	79.6440
 1.6280	79.7842
 1.6270	79.8016
 1.6260	79.6921
 1.6250	79.6564
 1.6240	79.7751
 1.6230	79.7122
 1.6220	79.7527
 1.6210	79.7370
 1.6200	79.6898
 1.6190	79.7178
 1.6180	79.7258
 1.6170	79.6897
 1.6160	79.7154
 1.6150	79.7339
 1.6140	79.6898
 1.6130	79.6236
 1.6120	79.7084
 1.6110	79.6901
 1.6100	79.6763
 1.6090	79.6215
 1.6080	79.6280
 1.6070	79.6377
 1.6060	79.6291
 1.6050	79.5974
 1.6040	79.5942
 1.6030	79.6417
 1.6020	79.7274
 1.6010	79.6189
 1.6000	79.5721
 1.5990	79.5083
 1.5980	79.5562
 1.5970	79.5740
 1.5960	79.4893
 1.5950	79.5143
 1.5940	79.5660
 1.5930	79.4880
 1.5920	79.4488
 1.5910	79.5445
 1.5900	79.4829
 1.5890	79.4931
 1.5880	79.4710
 1.5870	79.4118
 1.5860	79.3985
 1.5850	79.3939
 1.5840	79.4623
 1.5830	79.4334
 1.5820	79.4371
 1.5810	79.3732
 1.5800	79.4573
 1.5790	79.3724
 1.5780	79.3875
 1.5770	79.4508
 1.5760	79.3617
 1.5750	79.3496
 1.5740	79.3460
 1.5730	79.2833
 1.5720	79.1712
 1.5710	79.2250
 1.5700	79.2299
 1.5690	79.2667
 1.5680	79.2417
 1.5670	79.1796
 1.5660	79.1595
 1.5650	79.1319
 1.5640	79.1322
 1.5630	79.1935
 1.5620	79.1848
 1.5610	79.1639
 1.5600	79.1446
 1.5590	79.0788
 1.5580	79.0254
 1.5570	79.0532
 1.5560	79.0933
 1.5550	79.0756
 1.5540	79.0444
 1.5530	78.9741
 1.5520	78.9808
 1.5510	78.9133
 1.5500	78.9475
 1.5490	78.9112
 1.5480	78.9082
 1.5470	78.8574
 1.5460	78.8679
 1.5450	78.8568
 1.5440	78.8790
 1.5430	78.8800
 1.5420	78.8320
 1.5410	78.8211
 1.5400	78.7986
 1.5390	78.7839
 1.5380	78.7283
 1.5370	78.6894
 1.5360	78.6745
 1.5350	78.6881
 1.5340	78.6799
 1.5330	78.5944
 1.5320	78.6041
 1.5310	78.6146
 1.5300	78.6291
 1.5290	78.6147
 1.5280	78.5493
 1.5270	78.5468
 1.5260	78.5237
 1.5250	78.4675
 1.5240	78.4863
 1.5230	78.4392
 1.5220	78.3906
 1.5210	78.3601
 1.5200	78.3196
 1.5190	78.3170
 1.5180	78.2909
 1.5170	78.2763
 1.5160	78.2552
 1.5150	78.2056
 1.5140	78.2015
 1.5130	78.1323
 1.5120	78.1084
 1.5110	78.1185
 1.5100	78.0836
 1.5090	78.0403
 1.5080	77.9839
 1.5070	77.9793
 1.5060	77.9733
 1.5050	77.9241
 1.5040	77.8966
 1.5030	77.8650
 1.5020	77.8682
 1.5010	77.8433
 1.5000	77.7610
 1.4990	77.6987
 1.4980	77.6649
 1.4970	77.6459
 1.4960	77.6508
 1.4950	77.5972
 1.4940	77.5201
 1.4930	77.4871
 1.4920	77.4844
 1.4910	77.5019
 1.4900	77.4641
 1.4890	77.3836
 1.4880	77.3757
 1.4870	77.3794
 1.4860	77.3496
 1.4850	77.3152
 1.4840	77.2233
 1.4830	77.1514
 1.4820	77.1353
 1.4810	77.1046
 1.4800	77.0717
 1.4790	77.0234
 1.4780	76.9723
 1.4770	76.9326
 1.4760	76.8727
 1.4750	76.8851
 1.4740	76.8068
 1.4730	76.8051
 1.4720	76.7912
 1.4710	76.7519
 1.4700	76.7794
 1.4690	76.7293
 1.4680	76.6803
 1.4670	76.6684
 1.4660	76.5980
 1.4650	76.5713
 1.4640	76.5225
 1.4630	76.5084
 1.4620	76.4849
 1.4610	76.4871
 1.4600	76.4707
 1.4590	76.4220
 1.4580	76.3275
 1.4570	76.2903
 1.4560	76.3816
 1.4550	76.3194
 1.4540	76.2322
 1.4530	76.2594
 1.4520	76.2956
 1.4510	76.2808
 1.4500	76.2017
 1.4490	76.1980
 1.4480	76.1991
 1.4470	76.0903
 1.4460	76.0201
 1.4450	75.9755
 1.4440	75.9722
 1.4430	75.9900
 1.4420	75.9034
 1.4410	75.8798
 1.4400	75.8844
 1.4390	75.8683
 1.4380	75.7180
 1.4370	75.6573
 1.4360	75.5584
 1.4350	75.5093
 1.4340	75.3819
 1.4330	75.3185
 1.4320	75.1728
 1.4310	74.9669
 1.4300	74.8219
 1.4290	74.6749
 1.4280	74.5089
 1.4270	74.2717
 1.4260	73.9363
 1.4250	73.5753
 1.4240	73.1666
 1.4230	72.8139
 1.4220	72.3359
 1.4210	71.8074
 1.4200	71.1660
 1.4190	70.4652
 1.4180	69.7530
 1.4170	69.1262
 1.4160	68.5636
 1.4150	68.0342
 1.4140	67.7249
 1.4130	67.7165
 1.4120	67.5638
 1.4110	67.7830
 1.4100	67.8413
 1.4090	68.0550
 1.4080	68.2519
 1.4070	68.6063
 1.4060	68.8546
 1.4050	69.1835
 1.4040	69.4178
 1.4030	69.8422
 1.4020	70.1114
 1.4010	70.5894
 1.4000	71.0056
 1.3990	71.5371
 1.3980	71.9936
 1.3970	72.6782
 1.3960	73.2031
 1.3950	73.8893
 1.3940	74.3674
 1.3930	74.8861
 1.3920	75.4204
 1.3910	75.8396
 1.3900	76.2791
 1.3890	76.4918
 1.3880	76.7587
 1.3870	76.9164
 1.3860	77.0229
 1.3850	77.1321
 1.3840	77.2701
 1.3830	77.3130
 1.3820	77.3781
 1.3810	77.4440
 1.3800	77.5277
 1.3790	77.6281
 1.3780	77.5934
 1.3770	77.7482
 1.3760	77.6290
 1.3750	77.6623
 1.3740	77.7048
 1.3730	77.7637
 1.3720	77.7668
 1.3710	77.6458
 1.3700	77.8074
 1.3690	77.7899
 1.3680	77.8092
 1.3670	77.8032
 1.3660	77.8203
 1.3650	77.8632
 1.3640	77.8969
 1.3630	77.8949
 1.3620	77.8064
 1.3610	77.8788
 1.3600	77.8038
 1.3590	77.7850
 1.3580	77.8448
 1.3570	77.8886
 1.3560	77.8910
 1.3550	77.7752
 1.3540	77.9159
 1.3530	77.8313
 1.3520	77.7863
 1.3510	77.8207
 1.3500	77.7739
 1.3490	77.7577
 1.3480	77.8055
 1.3470	77.8329
 1.3460	77.8132
 1.3450	77.8282
 1.3440	77.8147
 1.3430	77.8164
 1.3420	77.8263
 1.3410	77.7565
 1.3400	77.7402
 1.3390	77.7742
 1.3380	77.7531
 1.3370	77.6949
 1.3360	77.6231
 1.3350	77.6994
 1.3340	77.6486
 1.3330	77.6240
 1.3320	77.6713
 1.3310	77.6439
 1.3300	77.6986
 1.3290	77.6651
 1.3280	77.6419
 1.3270	77.6530
 1.3260	77.5903
 1.3250	77.6915
 1.3240	77.5618
 1.3230	77.5710
 1.3220	77.5790
 1.3210	77.5323
 1.3200	77.5637
 1.3190	77.4912
 1.3180	77.5717
 1.3170	77.5490
 1.3160	77.5606
 1.3150	77.5262
 1.3140	77.5566
 1.3130	77.4430
 1.3120	77.4615
 1.3110	77.4792
 1.3100	77.4830
 1.3090	77.4234
 1.3080	77.5288
 1.3070	77.4866
 1.3060	77.4711
 1.3050	77.4315
 1.3040	77.3664
 1.3030	77.4539
 1.3020	77.4330
 1.3010	77.4012
 1.3000	77.4601
 1.2990	77.4300
 1.2980	77.3637
 1.2970	77.3749
 1.2960	77.4137
 1.2950	77.4070
 1.2940	77.4127
 1.2930	77.3889
 1.2920	77.2781
 1.2910	77.3565
 1.2900	77.4001
 1.2890	77.4160
 1.2880	77.4375
 1.2870	77.3719
 1.2860	77.3582
 1.2850	77.3654
 1.2840	77.3446
 1.2830	77.2912
 1.2820	77.2938
 1.2810	77.3415
 1.2800	77.2406
 1.2790	77.2698
 1.2780	77.2880
 1.2770	77.2985
 1.2760	77.2388
 1.2750	77.1877
 1.2740	77.1921
 1.2730	77.2028
 1.2720	77.2260
 1.2710	77.1881
 1.2700	77.2288
 1.2690	77.2215
 1.2680	77.1885
 1.2670	77.1347
 1.2660	77.0922
 1.2650	77.0402
 1.2640	77.0613
 1.2630	77.1030
 1.2620	77.1087
 1.2610	77.1175
 1.2600	77.0746
 1.2590	77.0806
 1.2580	77.0721
 1.2570	77.0407
 1.2560	77.0015
 1.2550	76.9494
 1.2540	76.9631
 1.2530	76.9276
 1.2520	76.9087
 1.2510	76.8806
 1.2500	76.8728
 1.2490	76.8517
 1.2480	76.8344
 1.2470	76.8458
 1.2460	76.8230
 1.2450	76.7987
 1.2440	76.7805
 1.2430	76.7878
 1.2420	76.7803
 1.2410	76.7838
 1.2400	76.7686
 1.2390	76.7483
 1.2380	76.7265
 1.2370	76.7061
 1.2360	76.6961
 1.2350	76.7039
 1.2340	76.6692
 1.2330	76.6140
 1.2320	76.6098
 1.2310	76.6504
 1.2300	76.5988
 1.2290	76.6217
 1.2280	76.5993
 1.2270	76.5104
 1.2260	76.5128
 1.2250	76.5453
 1.2240	76.5373
 1.2230	76.4538
 1.2220	76.4315
 1.2210	76.4430
 1.2200	76.4266
 1.2190	76.4068
 1.2180	76.4087
 1.2170	76.4639
 1.2160	76.4556
 1.2150	76.3382
 1.2140	76.3295
 1.2130	76.3967
 1.2120	76.3374
 1.2110	76.2956
 1.2100	76.3440
 1.2090	76.3318
 1.2080	76.2629
 1.2070	76.2000
 1.2060	76.1854
 1.2050	76.2190
 1.2040	76.1975
 1.2030	76.1787
 1.2020	76.1342
 1.2010	76.1468
 1.2000	76.1868
 1.1990	76.1341
 1.1980	76.0857
 1.1970	76.1133
 1.1960	76.0935
 1.1950	76.0319
 1.1940	76.0593
 1.1930	76.0661
 1.1920	76.0426
 1.1910	76.0407
 1.1900	76.0177
 1.1890	75.9920
 1.1880	75.9253
 1.1870	75.9360
 1.1860	75.9347
 1.1850	75.9326
 1.1840	75.9299
 1.1830	75.8876
 1.1820	75.9040
 1.1810	75.8764
 1.1800	75.8439
 1.1790	75.8203
 1.1780	75.8413
 1.1770	75.8769
 1.1760	75.8408
 1.1750	75.7408
 1.1740	75.7391
 1.1730	75.7292
 1.1720	75.7437
 1.1710	75.7121
 1.1700	75.6966
 1.1690	75.6226
 1.1680	75.6749
 1.1670	75.6858
 1.1660	75.7077
 1.1650	75.6551
 1.1640	75.6188
 1.1630	75.6201
 1.1620	75.6175
 1.1610	75.6166
 1.1600	75.5726
 1.1590	75.5862
 1.1580	75.5997
 1.1570	75.5582
 1.1560	75.5525
 1.1550	75.5195
 1.1540	75.5565
 1.1530	75.4644
 1.1520	75.5301
 1.1510	75.4551
 1.1500	75.4742
 1.1490	75.4301
 1.1480	75.3630
 1.1470	75.4333
 1.1460	75.3742
 1.1450	75.3514
 1.1440	75.3981
 1.1430	75.3308
 1.1420	75.3079
 1.1410	75.3362
 1.1400	75.4211
 1.1390	75.3310
 1.1380	75.3499
 1.1370	75.3546
 1.1360	75.3568
 1.1350	75.2647
 1.1340	75.2378
 1.1330	75.2151
 1.1320	75.3220
 1.1310	75.2572
 1.1300	75.2747
 1.1290	75.2069
 1.1280	75.1833
 1.1270	75.2131
 1.1260	75.2866
 1.1250	75.2450
 1.1240	75.1856
 1.1230	75.1786
 1.1220	75.1231
 1.1210	75.0976
 1.1200	75.1117
 1.1190	75.1006
 1.1180	75.0295
 1.1170	75.0879
 1.1160	75.0950
 1.1150	75.0501
 1.1140	75.1020
 1.1130	74.9929
 1.1120	74.9355
 1.1110	74.9739
 1.1100	74.9256
 1.1090	74.9096
 1.1080	74.9917
 1.1070	74.9440
 1.1060	75.0033
 1.1050	74.9358
 1.1040	74.9096
 1.1030	74.8929
 1.1020	74.9393
 1.1010	74.8548
 1.1000	74.8461
 1.0990	74.8477
 1.0980	74.7965
 1.0970	74.7886
 1.0960	74.8382
 1.0950	74.7600
 1.0940	74.7432
 1.0930	74.7907
 1.0920	74.8140
 1.0910	74.7500
 1.0900	74.7709
 1.0890	74.7366
 1.0880	74.7937
 1.0870	74.7172
 1.0860	74.7703
 1.0850	74.8240
 1.0840	74.7235
 1.0830	74.6760
 1.0820	74.7390
 1.0810	74.7505
 1.0800	74.6648
 1.0790	74.6458
 1.0780	74.5689
 1.0770	74.5672
 1.0760	74.7707
 1.0750	74.6333
 1.0740	74.7060
 1.0730	74.5441
 1.0720	74.6662
 1.0710	74.6320
 1.0700	74.6353
 1.0690	74.5717
 1.0680	74.6108
 1.0670	74.4534
 1.0660	74.5148
 1.0650	74.5851
 1.0640	74.5251
 1.0630	74.4875
 1.0620	74.4749
 1.0610	74.5174
 1.0600	74.5076
 1.0590	74.4912
 1.0580	74.3815
 1.0570	74.4430
 1.0560	74.5462
 1.0550	74.4532
 1.0540	74.3883
 1.0530	74.4680
 1.0520	74.3554
 1.0510	74.3662
 1.0500	74.4382
 1.0490	74.3224
 1.0480	74.3249
 1.0470	74.3039
 1.0460	74.3405
 1.0450	74.3297
 1.0440	74.3131
 1.0430	74.3253
 1.0420	74.3467
 1.0410	74.3238
 1.0400	74.3640
 1.0390	74.2667
 1.0380	74.2572
 1.0370	74.2385
 1.0360	74.2630
 1.0350	74.2478
 1.0340	74.2095
 1.0330	74.1344
 1.0320	74.1813
 1.0310	74.1801
 1.0300	74.1234
 1.0290	74.1522
 1.0280	74.1803
 1.0270	74.1294
 1.0260	74.0932
 1.0250	74.1044
 1.0240	74.1568
 1.0230	74.0691
 1.0220	74.0181
 1.0210	74.0088
 1.0200	74.0843
 1.0190	73.9949
 1.0180	73.9886
 1.0170	74.0459
 1.0160	74.1066
 1.0150	74.0030
 1.0140	74.0377
 1.0130	73.9621
 1.0120	73.9865
 1.0110	73.9550
 1.0100	73.9109
 1.0090	73.8797
 1.0080	73.9093
 1.0070	73.8528
 1.0060	73.9334
 1.0050	73.9034
 1.0040	73.8289
 1.0030	73.8039
 1.0020	73.8112
 1.0010	73.7939
 1.0000	73.8141
 0.9990	73.8228
 0.9980	73.8121
 0.9970	73.7921
 0.9960	73.7852
 0.9950	73.6955
 0.9940	73.7207
 0.9930	73.7156
 0.9920	73.6720
 0.9910	73.6647
 0.9900	73.6014
 0.9890	73.5726
 0.9880	73.6189
 0.9870	73.5498
 0.9860	73.6080
 0.9850	73.5593
 0.9840	73.5515
 0.9830	73.4776
 0.9820	73.5089
 0.9810	73.4801
 0.9800	73.4619
 0.9790	73.4049
 0.9780	73.3837
 0.9770	73.3393
 0.9760	73.3677
 0.9750	73.3253
 0.9740	73.2800
 0.9730	73.2244
 0.9720	73.1301
 0.9710	73.1232
 0.9700	73.0920
 0.9690	73.0754
 0.9680	73.0410
 0.9670	72.9875
 0.9660	73.0186
 0.9650	72.9594
 0.9640	72.8991
 0.9630	72.8242
 0.9620	72.8266
 0.9610	72.8532
 0.9600	72.8064
 0.9590	72.8009
 0.9580	72.8526
 0.9570	72.8585
 0.9560	72.8669
 0.9550	72.8419
 0.9540	72.8618
 0.9530	72.8585
 0.9520	72.8574
 0.9510	72.7991
 0.9500	72.8190
 0.9490	72.8191
 0.9480	72.8078
 0.9470	72.7923
 0.9460	72.8002
 0.9450	72.7667
 0.9440	72.7444
 0.9430	72.7773
 0.9420	72.7659
 0.9410	72.6996
 0.9400	72.5937
 0.9390	72.5923
 0.9380	72.6386
 0.9370	72.6354
 0.9360	72.6436
 0.9350	72.5418
 0.9340	72.4833
 0.9330	72.5009
 0.9320	72.5063
 0.9310	72.5052
 0.9300	72.4898
 0.9290	72.4417
 0.9280	72.3984
 0.9270	72.3731
 0.9260	72.4202
 0.9250	72.4253
 0.9240	72.4215
 0.9230	72.4343
 0.9220	72.3244
 0.9210	72.2499
 0.9200	72.2150
 0.9190	72.2225
 0.9180	72.2233
 0.9170	72.2590
 0.9160	72.2477
 0.9150	72.2041
 0.9140	72.1634
 0.9130	72.1461
 0.9120	72.1527
 0.9110	72.1210
 0.9100	72.1089
 0.9090	72.1122
 0.9080	72.1029
 0.9070	72.1364
 0.9060	72.0300
 0.9050	72.0125
 0.9040	72.0338
 0.9030	72.0781
 0.9020	72.0687
 0.9010	72.0055
 0.9000	71.9731
 0.8990	71.9480
 0.8980	71.9160
 0.8970	71.9997
 0.8960	71.9717
 0.8950	71.9791
 0.8940	71.9277
 0.8930	71.9463
 0.8920	71.8767
 0.8910	71.8532
 0.8900	71.8630
 0.8890	71.8571
 0.8880	71.8346
 0.8870	71.8520
 0.8860	71.8719
 0.8850	71.8804
 0.8840	71.8150
 0.8830	71.8657
 0.8820	71.8024
 0.8810	71.7658
 0.8800	71.7690
 0.8790	71.8072
 0.8780	71.7714
 0.8770	71.7573
 0.8760	71.7584
 0.8750	71.8065
 0.8740	71.7149
 0.8730	71.7122
 0.8720	71.7098
 0.8710	71.7332
 0.8700	71.6931
 0.8690	71.7259
 0.8680	71.7421
 0.8670	71.7307
 0.8660	71.6943
 0.8650	71.7134
 0.8640	71.7419
 0.8630	71.7370
 0.8620	71.6662
 0.8610	71.7131
 0.8600	71.8235
 0.8590	71.9054
 0.8580	71.9815
 0.8570	71.9248
 0.8560	71.9085
 0.8550	71.9741
 0.8540	71.9130
 0.8530	71.8814
 0.8520	71.9101
 0.8510	71.8649
 0.8500	71.8640
 0.8490	71.8686
 0.8480	71.8937
 0.8470	71.8946
 0.8460	71.8706
 0.8450	71.8693
 0.8440	71.8672
 0.8430	71.8922
 0.8420	71.8848
 0.8410	71.8833
 0.8400	71.9054
 0.8390	71.8756
 0.8380	71.9069
 0.8370	71.8655
 0.8360	71.8841
 0.8350	71.8685
 0.8340	71.9119
 0.8330	71.8890
 0.8320	71.8431
 0.8310	71.8975
 0.8300	71.8834
 0.8290	71.8941
 0.8280	71.9054
 0.8270	71.8760
 0.8260	71.8896
 0.8250	71.8641
 0.8240	71.8806
 0.8230	71.8624
 0.8220	71.9292
 0.8210	71.8589
 0.8200	71.8536
 0.8190	71.8630
 0.8180	71.8973
 0.8170	71.8850
 0.8160	71.8737
 0.8150	71.8663
 0.8140	71.8729
 0.8130	71.8754
 0.8120	71.8247
 0.8110	71.8997
 0.8100	71.8620
 0.8090	71.8474
 0.8080	71.8305
 0.8070	71.8706
 0.8060	71.8421
 0.8050	71.8610
 0.8040	71.8343
 0.8030	71.8656
 0.8020	71.8469
 0.8010	71.8359
 0.8000	71.7984
 0.7990	71.8176
 0.7980	71.7381
 0.7970	71.7583
 0.7960	71.7336
 0.7950	71.7260
 0.7940	71.7367
 0.7930	71.6844
 0.7920	71.7120
 0.7910	71.6981
 0.7900	71.7220
 0.7890	71.6901
 0.7880	71.6890
 0.7870	71.6774
 0.7860	71.6788
 0.7850	71.6216
 0.7840	71.6471
 0.7830	71.6213
 0.7820	71.6168
 0.7810	71.5794
 0.7800	71.5620
 0.7790	71.5677
 0.7780	71.5446
 0.7770	71.5318
 0.7760	71.5444
 0.7750	71.4789
 0.7740	71.5133
 0.7730	71.5072
 0.7720	71.4801
 0.7710	71.4668
 0.7700	71.4650
 0.7690	71.4541
 0.7680	71.4306
 0.7670	71.4157
 0.7660	71.4203
 0.7650	71.4167
 0.7640	71.3853
 0.7630	71.3509
 0.7620	71.3648
 0.7610	71.3536
 0.7600	71.2926
 0.7590	71.3060
 0.7580	71.2744
 0.7570	71.2851
 0.7560	71.2582
 0.7550	71.2560
 0.7540	71.2445
 0.7530	71.2422
 0.7520	71.2166
 0.7510	71.1980
 0.7500	71.1890
 0.7490	71.1700
 0.7480	71.1525
 0.7470	71.1332
 0.7460	71.1410
 0.7450	71.0748
 0.7440	71.0640
 0.7430	71.0757
 0.7420	71.0595
 0.7410	71.0256
 0.7400	71.0212
 0.7390	71.0231
 0.7380	70.9770
 0.7370	70.9650
 0.7360	70.9183
 0.7350	70.9017
 0.7340	70.8834
 0.7330	70.8630
 0.7320	70.8709
 0.7310	70.8365
 0.7300	70.8081
 0.7290	70.7901
 0.7280	70.7697
 0.7270	70.7433
 0.7260	70.7339
 0.7250	70.7218
 0.7240	70.6780
 0.7230	70.6580
 0.7220	70.6236
 0.7210	70.6022
 0.7200	70.5908
 0.7190	70.5544
 0.7180	70.5187
 0.7170	70.5120
 0.7160	70.4933
 0.7150	70.4559
 0.7140	70.4379
 0.7130	70.4040
 0.7120	70.3723
 0.7110	70.3242
 0.7100	70.3188
 0.7090	70.2896
 0.7080	70.2678
 0.7070	70.2388
 0.7060	70.1931
 0.7050	70.1655
 0.7040	70.1492
 0.7030	70.1064
 0.7020	70.0764
 0.7010	70.0483
 0.7000	70.0037
 0.6990	69.9978
 0.6980	69.9873
 0.6970	69.9342
 0.6960	69.8977
 0.6950	69.8738
 0.6940	69.8467
 0.6930	69.8089
 0.6920	69.7927
 0.6910	69.7506
 0.6900	69.7150
 0.6890	69.6801
 0.6880	69.6531
 0.6870	69.6211
 0.6860	69.5920
 0.6850	69.5603
 0.6840	69.5138
 0.6830	69.4919
 0.6820	69.4712
 0.6810	69.4323
 0.6800	69.4017
 0.6790	69.3753
 0.6780	69.3460
 0.6770	69.3151
 0.6760	69.2858
 0.6750	69.2528
 0.6740	69.2145
 0.6730	69.1735
 0.6720	69.1382
 0.6710	69.1386
 0.6700	69.0995
 0.6690	69.0771
 0.6680	69.0476
 0.6670	69.0224
 0.6660	68.9757
 0.6650	68.9548
 0.6640	68.9476
 0.6630	68.9069
 0.6620	68.8610
 0.6610	68.8265
 0.6600	68.8032
 0.6590	68.7777
 0.6580	68.7400
 0.6570	68.7076
 0.6560	68.6835
 0.6550	68.6643
 0.6540	68.6308
 0.6530	68.6006
 0.6520	68.5797
 0.6510	68.5556
 0.6500	68.5384
 0.6490	68.5156
 0.6480	68.4773
 0.6470	68.4412
 0.6460	68.4086
 0.6450	68.3757
 0.6440	68.3396
 0.6430	68.3177
 0.6420	68.2946
 0.6410	68.2533
 0.6400	68.2283
 0.6390	68.2091
 0.6380	68.1692
 0.6370	68.1484
 0.6360	68.1317
 0.6350	68.0908
 0.6340	68.0561
 0.6330	68.0230
 0.6320	67.9866
 0.6310	67.9576
 0.6300	67.9269
 0.6290	67.8825
 0.6280	67.8440
 0.6270	67.8129
 0.6260	67.7763
 0.6250	67.7380
 0.6240	67.7043
 0.6230	67.6557
 0.6220	67.6111
 0.6210	67.5776
 0.6200	67.5415
 0.6190	67.5013
 0.6180	67.4483
 0.6170	67.4019
 0.6160	67.3631
 0.6150	67.3069
 0.6140	67.2428
 0.6130	67.1805
 0.6120	67.1248
 0.6110	67.0589
 0.6100	66.9918
 0.6090	66.9266
 0.6080	66.8525
 0.6070	66.7864
 0.6060	66.7098
 0.6050	66.6247
 0.6040	66.5450
 0.6030	66.4618
 0.6020	66.3670
 0.6010	66.2854
 0.6000	66.1865
 0.5990	66.0883
 0.5980	65.9910
 0.5970	65.8810
 0.5960	65.7682
 0.5950	65.6501
 0.5940	65.5205
 0.5930	65.3880
 0.5920	65.2405
 0.5910	65.1055
 0.5900	64.9453
 0.5890	64.7888
 0.5880	64.6350
 0.5870	64.4678
 0.5860	64.2741
 0.5850	64.0942
 0.5840	63.9168
 0.5830	63.7273
 0.5820	63.5263
 0.5810	63.3246
 0.5800	63.1012
 0.5790	62.8821
 0.5780	62.6772
 0.5770	62.4514
 0.5760	62.2152
 0.5750	61.9860
 0.5740	61.7526
 0.5730	61.5193
 0.5720	61.2869
 0.5710	61.0479
 0.5700	60.7983
 0.5690	60.5472
 0.5680	60.2920
 0.5670	60.0532
 0.5660	59.7954
 0.5650	59.5437
 0.5640	59.2950
 0.5630	59.0362
 0.5620	58.7844
 0.5610	58.5189
 0.5600	58.2628
 0.5590	58.0196
 0.5580	57.7656
 0.5570	57.5260
 0.5560	57.2994
 0.5550	57.0541
 0.5540	56.8109
 0.5530	56.5755
 0.5520	56.3393
 0.5510	56.1169
 0.5500	55.8894
 0.5490	55.6719
 0.5480	55.4630
 0.5470	55.2402
 0.5460	55.0424
 0.5450	54.8336
 0.5440	54.6307
 0.5430	54.4357
 0.5420	54.2403
 0.5410	54.0423
 0.5400	53.8582
 0.5390	53.6705
 0.5380	53.4867
 0.5370	53.3096
 0.5360	53.1305
 0.5350	52.9419
 0.5340	52.7659
 0.5330	52.5929
 0.5320	52.4273
 0.5310	52.2554
 0.5300	52.0897
 0.5290	51.9207
 0.5280	51.7626
 0.5270	51.6052
 0.5260	51.4447
 0.5250	51.2827
 0.5240	51.1252
 0.5230	50.9764
 0.5220	50.8215
 0.5210	50.6587
 0.5200	50.5042
 0.5190	50.3568
 0.5180	50.1960
 0.5170	50.0587
 0.5160	49.9130
 0.5150	49.7721
 0.5140	49.6184
 0.5130	49.4898
 0.5120	49.3418
 0.5110	49.1833
 0.5100	49.0273
 0.5090	48.8906
 0.5080	48.7543
 0.5070	48.5936
 0.5060	48.4462
 0.5050	48.3134
 0.5040	48.1559
 0.5030	48.0014
 0.5020	47.8686
 0.5010	47.7133
 0.5000	47.5742
 0.4990	47.4067
 0.4980	47.2575
 0.4970	47.1036
 0.4960	46.9639
 0.4950	46.8243
 0.4940	46.6723
 0.4930	46.5270
 0.4920	46.3883
 0.4910	46.2394
 0.4900	46.1140
 0.4890	45.9509
 0.4880	45.8237
 0.4870	45.7060
 0.4860	45.5417
 0.4850	45.4270
 0.4840	45.3011
 0.4830	45.1869
 0.4820	45.0851
 0.4810	44.9522
 0.4800	44.8655
 0.4790	44.7661
 0.4780	44.6759
 0.4770	44.5817
 0.4760	44.4788
 0.4750	44.3834
 0.4740	44.2719
 0.4730	44.1873
 0.4720	44.0984
 0.4710	43.9993
 0.4700	43.9071
 0.4690	43.8127
 0.4680	43.7245
 0.4670	43.6203
 0.4660	43.5332
 0.4650	43.4399
 0.4640	43.3323
 0.4630	43.2380
 0.4620	43.1405
 0.4610	43.0408
 0.4600	42.9422
 0.4590	42.8315
 0.4580	42.7177
 0.4570	42.6062
 0.4560	42.4996
 0.4550	42.3714
 0.4540	42.2508
 0.4530	42.1179
 0.4520	41.9745
 0.4510	41.8307
 0.4500	41.6816
 0.4490	41.5221
 0.4480	41.3707
 0.4470	41.2013
 0.4460	41.0228
 0.4450	40.8199
 0.4440	40.6296
 0.4430	40.4404
 0.4420	40.2433
 0.4410	40.0368
 0.4400	39.8370
 0.4390	39.6254
 0.4380	39.4176
 0.4370	39.1946
 0.4360	38.9723
 0.4350	38.7531
 0.4340	38.5271
 0.4330	38.2953
 0.4320	38.0808
 0.4310	37.8671
 0.4300	37.6419
 0.4290	37.4345
 0.4280	37.2391
 0.4270	37.0768
 0.4260	36.8736
 0.4250	36.6726
 0.4240	36.4736
 0.4230	36.2817
 0.4220	36.1023
 0.4210	35.9144
 0.4200	35.7386
 0.4190	35.5634
 0.4180	35.3933
 0.4170	35.2207
 0.4160	35.0608
 0.4150	34.8927
 0.4140	34.7259
 0.4130	34.5830
 0.4120	34.4499
 0.4110	34.2972
 0.4100	34.1420
 0.4090	33.9812
 0.4080	33.8280
 0.4070	33.6753
 0.4060	33.5112
 0.4050	33.3505
 0.4040	33.1893
 0.4030	33.0249
 0.4020	32.8704
 0.4010	32.7074
 0.4000	32.5537
