Name: Muscovite KAl_2(Si_3Al)O_10(OH,F)_2
Type: Mineral
Class: Silicate
Subclass: Phyllosilicate
Particle Size: Fine
Sample No.: PS-16A
Owner: JPL
Wavelength Range: VSWIR
Origin: USA, Connecticut
Collection Date: N/A
Description: Particle size was 0-45um.Collected by Ward's Original ASTER Spectral Library name was jpl.beckman.mineral.silicate.phyllosilicate.fine.ps16a.spectrum.txt
Measurement: Hemispherical reflectance
First Column: X
Second Column: Y
X Units: Wavelength (micrometers)
Y Units:Reflectance (percent)
First X Value:  0.4000
Last X Value:  2.5000
Number of X Values: 826
Additional Information: mineral.silicate.phyllosilicate.fine.vswir.ps-16a.jpl.beckman.ancillary.txt

 0.4000	53.3800
 0.4010	54.0700
 0.4020	54.2400
 0.4030	54.2400
 0.4040	54.0100
 0.4050	54.0700
 0.4060	54.3500
 0.4070	54.5300
 0.4080	54.5800
 0.4090	54.4100
 0.4100	54.6900
 0.4110	55.0300
 0.4120	55.1500
 0.4130	55.0300
 0.4140	54.9800
 0.4150	55.2100
 0.4160	55.4300
 0.4170	55.4900
 0.4180	55.3800
 0.4190	55.4300
 0.4200	55.6600
 0.4210	55.8400
 0.4220	55.8900
 0.4230	55.7800
 0.4240	56.0100
 0.4250	56.0600
 0.4260	56.2900
 0.4270	56.1700
 0.4280	56.1700
 0.4290	56.3400
 0.4300	56.6900
 0.4310	56.6900
 0.4320	56.6300
 0.4330	56.5700
 0.4340	56.8000
 0.4350	57.0300
 0.4360	57.0300
 0.4370	56.8600
 0.4380	57.0300
 0.4390	57.3200
 0.4400	57.4400
 0.4410	57.3200
 0.4420	57.1500
 0.4430	57.3200
 0.4440	57.5400
 0.4450	57.7100
 0.4460	57.6600
 0.4470	57.4400
 0.4480	57.7100
 0.4490	57.9400
 0.4500	57.8300
 0.4510	57.8300
 0.4520	57.7700
 0.4530	57.9500
 0.4540	58.1800
 0.4550	58.1800
 0.4560	58.0100
 0.4570	58.0100
 0.4580	58.3000
 0.4590	58.3500
 0.4600	58.1800
 0.4610	58.3500
 0.4620	58.0700
 0.4630	58.3600
 0.4640	58.4800
 0.4650	58.4800
 0.4660	58.3600
 0.4670	58.2500
 0.4680	58.4200
 0.4690	58.5900
 0.4700	58.6500
 0.4710	58.4800
 0.4720	58.3600
 0.4730	58.6000
 0.4740	58.8300
 0.4750	58.7200
 0.4760	58.5500
 0.4770	58.6600
 0.4780	58.9500
 0.4790	59.0100
 0.4800	58.8900
 0.4810	58.7800
 0.4820	58.9500
 0.4830	59.0700
 0.4840	59.1300
 0.4850	59.0700
 0.4860	58.9600
 0.4870	59.1300
 0.4880	59.3000
 0.4890	59.3600
 0.4900	59.1300
 0.4910	59.1900
 0.4920	59.3000
 0.4930	59.4800
 0.4940	59.4800
 0.4950	59.2600
 0.4960	59.3100
 0.4970	59.5300
 0.4980	59.6600
 0.4990	59.6600
 0.5000	59.5400
 0.5010	59.6000
 0.5020	59.8900
 0.5030	59.8900
 0.5040	59.8900
 0.5050	59.6600
 0.5060	59.7700
 0.5070	59.8300
 0.5080	59.9500
 0.5090	59.7700
 0.5100	59.6000
 0.5110	59.7700
 0.5120	60.0000
 0.5130	60.0600
 0.5140	60.0600
 0.5150	60.0000
 0.5160	60.2300
 0.5170	60.5100
 0.5180	60.5100
 0.5190	60.4000
 0.5200	60.1700
 0.5210	60.2900
 0.5220	60.6800
 0.5230	60.6800
 0.5240	60.6200
 0.5250	60.4600
 0.5260	60.6800
 0.5270	60.8000
 0.5280	60.7400
 0.5290	60.6200
 0.5300	60.4600
 0.5310	60.6200
 0.5320	60.8500
 0.5330	60.6200
 0.5340	60.2900
 0.5350	60.4000
 0.5360	60.6200
 0.5370	60.6800
 0.5380	60.6200
 0.5390	60.4000
 0.5400	60.6800
 0.5410	60.6800
 0.5420	60.7400
 0.5430	60.6800
 0.5440	60.5700
 0.5450	60.6800
 0.5460	60.8000
 0.5470	60.7400
 0.5480	60.6800
 0.5490	60.5700
 0.5500	60.7400
 0.5510	61.0300
 0.5520	61.2000
 0.5530	60.9700
 0.5540	60.8000
 0.5550	60.9700
 0.5560	61.0800
 0.5570	61.2000
 0.5580	61.0800
 0.5590	61.0800
 0.5600	60.9700
 0.5610	61.1400
 0.5620	61.3700
 0.5630	61.3100
 0.5640	61.2000
 0.5650	61.0300
 0.5660	61.1400
 0.5670	61.3100
 0.5680	61.4300
 0.5690	61.3100
 0.5700	61.0800
 0.5710	61.0300
 0.5720	61.3100
 0.5730	61.2600
 0.5740	61.0800
 0.5750	60.9100
 0.5760	60.9700
 0.5770	61.3700
 0.5780	61.2600
 0.5790	61.1400
 0.5800	60.8000
 0.5810	61.0300
 0.5820	61.2000
 0.5830	61.2000
 0.5840	61.1400
 0.5850	61.0300
 0.5860	61.0800
 0.5870	61.4300
 0.5880	61.4900
 0.5890	61.2000
 0.5900	61.1400
 0.5910	61.2000
 0.5920	61.3100
 0.5930	61.4900
 0.5940	61.2600
 0.5950	61.0800
 0.5960	61.1400
 0.5970	61.2000
 0.5980	61.4900
 0.5990	61.3100
 0.6000	61.2600
 0.6010	61.3100
 0.6020	61.3700
 0.6030	61.4900
 0.6040	61.5400
 0.6050	61.3700
 0.6060	61.3700
 0.6070	61.4300
 0.6080	61.6600
 0.6090	61.6000
 0.6100	61.4900
 0.6110	61.3700
 0.6120	61.2600
 0.6130	61.4900
 0.6140	61.6000
 0.6150	61.4900
 0.6160	61.3100
 0.6170	61.2600
 0.6180	61.4300
 0.6190	61.3700
 0.6200	61.3700
 0.6210	61.3100
 0.6220	61.3100
 0.6230	61.4900
 0.6240	61.6000
 0.6250	61.5400
 0.6260	61.4300
 0.6270	61.2600
 0.6280	61.3700
 0.6290	61.6000
 0.6300	61.5400
 0.6310	61.3700
 0.6320	61.2000
 0.6330	61.3700
 0.6340	61.7200
 0.6350	61.5400
 0.6360	61.3700
 0.6370	61.2000
 0.6380	61.3700
 0.6390	61.6600
 0.6400	61.6000
 0.6410	61.4300
 0.6420	61.2600
 0.6430	61.4300
 0.6440	61.6000
 0.6450	61.6600
 0.6460	61.5400
 0.6470	61.3100
 0.6480	61.4300
 0.6490	61.6000
 0.6500	61.5400
 0.6510	61.4300
 0.6520	61.3100
 0.6530	61.3700
 0.6540	61.7200
 0.6550	61.7200
 0.6560	61.4900
 0.6570	61.3100
 0.6580	61.3700
 0.6590	61.4900
 0.6600	61.7200
 0.6610	61.4900
 0.6620	61.4300
 0.6630	61.4300
 0.6640	61.4900
 0.6650	61.6600
 0.6660	61.6000
 0.6670	61.4900
 0.6680	61.4300
 0.6690	61.5400
 0.6700	61.8300
 0.6710	61.7700
 0.6720	61.4900
 0.6730	61.4900
 0.6740	61.5400
 0.6750	61.7200
 0.6760	61.6000
 0.6770	61.4900
 0.6780	61.4900
 0.6790	61.5400
 0.6800	61.7700
 0.6810	61.7200
 0.6820	61.4900
 0.6830	61.4900
 0.6840	61.5400
 0.6850	61.7700
 0.6860	61.7200
 0.6870	61.4900
 0.6880	61.4300
 0.6890	61.5400
 0.6900	61.8300
 0.6910	61.7200
 0.6920	61.5400
 0.6930	61.4900
 0.6940	61.6000
 0.6950	61.8300
 0.6960	61.7700
 0.6970	61.5400
 0.6980	61.5400
 0.6990	61.4900
 0.7000	61.2600
 0.7010	61.4900
 0.7020	61.6600
 0.7030	61.6000
 0.7040	61.5400
 0.7050	61.3700
 0.7060	61.3700
 0.7070	61.7200
 0.7080	61.7200
 0.7090	61.6600
 0.7100	61.4300
 0.7110	61.4900
 0.7120	61.7200
 0.7130	61.7700
 0.7140	61.7200
 0.7150	61.5400
 0.7160	61.6600
 0.7170	61.8300
 0.7180	61.8900
 0.7190	61.7700
 0.7200	61.5400
 0.7210	61.6000
 0.7220	61.8900
 0.7230	61.7700
 0.7240	61.6600
 0.7250	61.4900
 0.7260	61.5400
 0.7270	61.7200
 0.7280	61.7200
 0.7290	61.6600
 0.7300	61.6000
 0.7310	61.6000
 0.7320	61.8300
 0.7330	61.7200
 0.7340	61.6000
 0.7350	61.5400
 0.7360	61.6600
 0.7370	61.8900
 0.7380	61.7200
 0.7390	61.6000
 0.7400	61.4300
 0.7410	61.5400
 0.7420	61.7700
 0.7430	61.6600
 0.7440	61.5400
 0.7450	61.4300
 0.7460	61.6000
 0.7470	61.9500
 0.7480	61.7200
 0.7490	61.6000
 0.7500	61.5400
 0.7510	61.6000
 0.7520	61.7200
 0.7530	61.6000
 0.7540	61.6000
 0.7550	61.7700
 0.7560	61.9500
 0.7570	61.9500
 0.7580	61.8300
 0.7590	61.8300
 0.7600	61.8900
 0.7610	62.0000
 0.7620	62.0000
 0.7630	61.8300
 0.7640	61.7700
 0.7650	61.9500
 0.7660	62.2200
 0.7670	62.0600
 0.7680	61.9500
 0.7690	61.7700
 0.7700	61.9500
 0.7710	62.1700
 0.7720	62.0000
 0.7730	61.8900
 0.7740	61.7200
 0.7750	61.9500
 0.7760	62.0000
 0.7770	61.9500
 0.7780	61.8300
 0.7790	61.6600
 0.7800	61.8900
 0.7810	62.0000
 0.7820	61.9500
 0.7830	61.6600
 0.7840	61.6000
 0.7850	61.8900
 0.7860	61.8900
 0.7870	61.7700
 0.7880	61.6600
 0.7890	61.6600
 0.7900	62.0000
 0.7910	62.0000
 0.7920	61.8900
 0.7930	61.5400
 0.7940	61.4900
 0.7950	61.7700
 0.7960	61.8300
 0.7970	61.7700
 0.7980	61.5400
 0.7990	62.0000
 0.8000	62.0100
 0.8040	62.0600
 0.8080	62.0000
 0.8120	61.9500
 0.8160	61.8300
 0.8200	62.0000
 0.8240	61.8900
 0.8280	61.7700
 0.8320	61.7700
 0.8360	61.8900
 0.8400	61.8300
 0.8440	61.7700
 0.8480	61.7700
 0.8520	61.6600
 0.8560	61.7700
 0.8600	61.5400
 0.8640	61.6000
 0.8680	61.6600
 0.8720	61.6000
 0.8760	61.5400
 0.8800	61.5400
 0.8840	61.4300
 0.8880	61.5400
 0.8920	61.3100
 0.8960	61.4900
 0.9000	61.3100
 0.9040	61.3100
 0.9080	61.2600
 0.9120	61.4300
 0.9160	61.2600
 0.9200	61.2000
 0.9240	61.1400
 0.9280	61.3700
 0.9320	61.2600
 0.9360	61.3100
 0.9400	61.0800
 0.9440	61.3100
 0.9480	61.0800
 0.9520	61.0300
 0.9560	61.0800
 0.9600	61.1400
 0.9640	61.0300
 0.9680	61.1400
 0.9720	61.0800
 0.9760	61.2000
 0.9800	61.0300
 0.9840	61.0300
 0.9880	60.9700
 0.9920	61.0800
 0.9960	60.9700
 1.0000	61.0300
 1.0040	61.0300
 1.0080	61.1400
 1.0120	60.9100
 1.0160	61.0300
 1.0200	60.8500
 1.0240	60.9100
 1.0280	60.9100
 1.0320	60.9100
 1.0360	60.8500
 1.0400	60.8500
 1.0440	60.8500
 1.0480	60.8500
 1.0520	60.6800
 1.0560	60.7400
 1.0600	60.8500
 1.0640	60.7400
 1.0680	60.8500
 1.0720	60.6800
 1.0760	60.6200
 1.0800	60.8000
 1.0840	60.7400
 1.0880	60.5700
 1.0920	60.6200
 1.0960	60.6200
 1.1000	60.6800
 1.1040	60.6200
 1.1080	60.6800
 1.1120	60.5100
 1.1160	60.5700
 1.1200	60.5700
 1.1240	60.4600
 1.1280	60.4600
 1.1320	60.6200
 1.1360	60.5100
 1.1400	60.4000
 1.1440	60.4000
 1.1480	60.5100
 1.1520	60.4600
 1.1560	60.4500
 1.1600	60.5000
 1.1640	60.4400
 1.1680	60.4300
 1.1720	60.3200
 1.1760	60.4200
 1.1800	60.4200
 1.1840	60.3000
 1.1880	60.4100
 1.1920	60.3000
 1.1960	60.2900
 1.2000	60.3900
 1.2040	60.2900
 1.2080	60.2900
 1.2120	60.2900
 1.2160	60.2300
 1.2200	60.1700
 1.2240	60.2300
 1.2280	60.1700
 1.2320	60.2300
 1.2360	60.0600
 1.2400	60.1700
 1.2440	60.1100
 1.2480	60.0600
 1.2520	60.0000
 1.2560	60.1600
 1.2600	59.9800
 1.2640	60.0400
 1.2680	59.8600
 1.2720	60.0300
 1.2760	59.9700
 1.2800	60.0200
 1.2840	60.0100
 1.2880	60.0100
 1.2920	59.9500
 1.2960	59.9400
 1.3000	59.8300
 1.3040	59.9300
 1.3080	59.8200
 1.3120	59.8200
 1.3160	59.6900
 1.3200	59.8500
 1.3240	59.7400
 1.3280	59.7900
 1.3320	59.7300
 1.3360	59.8300
 1.3400	59.7200
 1.3440	59.6500
 1.3480	59.7100
 1.3520	59.5900
 1.3560	59.7100
 1.3600	59.5400
 1.3640	59.5900
 1.3680	59.5400
 1.3720	59.4800
 1.3760	59.4200
 1.3800	59.3600
 1.3840	59.2500
 1.3880	58.9600
 1.3920	58.5100
 1.3960	58.0500
 1.4000	57.6000
 1.4040	57.2100
 1.4080	57.1000
 1.4120	57.5600
 1.4160	57.9600
 1.4200	58.4200
 1.4240	58.8300
 1.4280	58.9400
 1.4320	58.9400
 1.4360	59.0700
 1.4400	59.2400
 1.4440	59.1900
 1.4480	59.1900
 1.4520	59.0800
 1.4560	59.3100
 1.4600	59.1900
 1.4640	59.2500
 1.4680	59.1900
 1.4720	59.4200
 1.4760	59.3100
 1.4800	59.3100
 1.4840	59.1900
 1.4880	59.4200
 1.4920	59.3700
 1.4960	59.1900
 1.5000	59.2500
 1.5040	59.4800
 1.5080	59.2500
 1.5120	59.3100
 1.5160	59.3100
 1.5200	59.4200
 1.5240	59.2500
 1.5280	59.3100
 1.5320	59.3100
 1.5360	59.2500
 1.5400	59.1900
 1.5440	59.1900
 1.5480	59.0800
 1.5520	59.3100
 1.5560	59.0800
 1.5600	59.1400
 1.5640	58.9600
 1.5680	59.1900
 1.5720	59.0800
 1.5760	59.0800
 1.5800	58.9100
 1.5840	59.0800
 1.5880	58.9600
 1.5920	58.9100
 1.5960	59.0200
 1.6000	58.9600
 1.6040	59.0200
 1.6080	58.9500
 1.6120	58.9500
 1.6160	58.8400
 1.6200	58.8300
 1.6240	58.8300
 1.6280	58.7600
 1.6320	58.7600
 1.6360	58.7500
 1.6400	58.7500
 1.6440	58.8600
 1.6480	58.6800
 1.6520	58.6800
 1.6560	58.7300
 1.6600	58.6700
 1.6640	58.6600
 1.6680	58.6000
 1.6720	58.6000
 1.6760	58.7100
 1.6800	58.5300
 1.6840	58.5300
 1.6880	58.5200
 1.6920	58.5200
 1.6960	58.5100
 1.7000	58.5100
 1.7040	58.5100
 1.7080	58.5100
 1.7120	58.4500
 1.7160	58.4500
 1.7200	58.5100
 1.7240	58.3900
 1.7280	58.3400
 1.7320	58.2800
 1.7360	58.3400
 1.7400	58.3900
 1.7440	58.2200
 1.7480	58.1600
 1.7520	58.1100
 1.7560	58.2200
 1.7600	58.1600
 1.7640	58.1600
 1.7680	58.1100
 1.7720	58.1600
 1.7760	58.1100
 1.7800	58.0500
 1.7840	58.0500
 1.7880	58.1600
 1.7920	58.1100
 1.7960	57.9300
 1.8000	57.9900
 1.8040	58.2600
 1.8080	58.0200
 1.8120	57.9900
 1.8160	57.8600
 1.8200	57.9000
 1.8240	57.7700
 1.8280	57.8100
 1.8320	57.7300
 1.8360	57.7700
 1.8400	57.8100
 1.8440	57.7300
 1.8480	57.7100
 1.8520	57.8200
 1.8560	57.5900
 1.8600	57.5800
 1.8640	57.5200
 1.8680	57.4000
 1.8720	57.3400
 1.8760	57.2300
 1.8800	57.1600
 1.8840	57.1000
 1.8880	56.8100
 1.8920	56.6400
 1.8960	56.6300
 1.9000	56.4600
 1.9040	56.3400
 1.9080	56.1600
 1.9120	56.2200
 1.9160	55.9900
 1.9200	56.0900
 1.9240	56.0400
 1.9280	56.1400
 1.9320	56.0300
 1.9360	56.2500
 1.9400	56.1300
 1.9440	56.2400
 1.9480	56.1800
 1.9520	56.2800
 1.9560	56.2600
 1.9600	56.4800
 1.9640	56.4200
 1.9680	56.4000
 1.9720	56.5000
 1.9760	56.5400
 1.9800	56.6300
 1.9840	56.6200
 1.9880	56.5600
 1.9920	56.7700
 1.9960	56.7500
 2.0000	56.7400
 2.0040	56.8000
 2.0080	56.8700
 2.0120	56.8400
 2.0160	56.7600
 2.0200	56.7900
 2.0240	56.9600
 2.0280	56.9700
 2.0320	56.8300
 2.0360	56.8600
 2.0400	56.9500
 2.0440	56.8400
 2.0480	56.7400
 2.0520	56.8200
 2.0560	56.8600
 2.0600	56.8300
 2.0640	56.8100
 2.0680	56.8300
 2.0720	56.7600
 2.0760	56.8500
 2.0800	56.7600
 2.0840	56.9600
 2.0880	56.7800
 2.0920	56.6500
 2.0960	56.6200
 2.1000	56.7100
 2.1040	56.6800
 2.1080	56.6000
 2.1120	56.8000
 2.1160	56.6100
 2.1200	56.7000
 2.1240	56.5400
 2.1280	56.6600
 2.1320	56.4100
 2.1360	56.3700
 2.1400	56.3100
 2.1440	56.2100
 2.1480	56.0300
 2.1520	55.7200
 2.1560	55.5500
 2.1600	55.4300
 2.1640	54.9900
 2.1680	54.6700
 2.1720	54.0700
 2.1760	53.7500
 2.1800	53.1500
 2.1840	52.5800
 2.1880	52.2800
 2.1920	51.9900
 2.1960	51.9100
 2.2000	52.0700
 2.2040	52.3500
 2.2080	52.5700
 2.2120	52.7600
 2.2160	53.2300
 2.2200	53.6400
 2.2240	53.8100
 2.2280	53.9800
 2.2320	54.2500
 2.2360	54.2300
 2.2400	54.4300
 2.2440	54.3700
 2.2480	54.5900
 2.2520	54.5800
 2.2560	54.6200
 2.2600	54.6600
 2.2640	54.7600
 2.2680	54.6600
 2.2720	54.6400
 2.2760	54.7300
 2.2800	54.6000
 2.2840	54.4600
 2.2880	54.5600
 2.2920	54.4600
 2.2960	54.4200
 2.3000	54.3200
 2.3040	54.2300
 2.3080	54.2100
 2.3120	54.1400
 2.3160	54.1200
 2.3200	53.8700
 2.3240	53.7700
 2.3280	53.6200
 2.3320	53.4000
 2.3360	53.1900
 2.3400	53.2100
 2.3440	53.0700
 2.3480	53.0500
 2.3520	52.9800
 2.3560	53.0600
 2.3600	52.8800
 2.3640	52.8500
 2.3680	52.8900
 2.3720	52.8200
 2.3760	52.7600
 2.3800	52.7000
 2.3840	52.6300
 2.3880	52.5000
 2.3920	52.4900
 2.3960	52.2700
 2.4000	52.2100
 2.4040	51.9300
 2.4080	51.9300
 2.4120	51.8700
 2.4160	51.6400
 2.4200	51.3100
 2.4240	51.3100
 2.4280	51.0800
 2.4320	51.0800
 2.4360	50.9600
 2.4400	50.9500
 2.4440	50.7800
 2.4480	50.7200
 2.4520	50.6600
 2.4560	50.5500
 2.4600	50.7100
 2.4640	50.4800
 2.4680	50.5900
 2.4720	50.4800
 2.4760	50.4200
 2.4800	50.4700
 2.4840	50.4600
 2.4880	50.4000
 2.4920	50.3000
 2.4960	50.3500
 2.5000	50.3400
