Name: Cummingtonite (Mg,Fe^2+)_7Si_8O_22(OH)_2
Type: Mineral
Class: Silicate
Subclass: Inosilicate
Particle Size: Medium
Sample No.: IN-6A
Owner: JPL
Wavelength Range: VSWIR
Origin: USA, South Dakota.
Collection Date: N/A
Description: Particle size was 45-125um.Collected by:  Ward's Original ASTER Spectral Library name was jpl.perkin.mineral.silicate.inosilicate.medium.in06a.spectrum.txt
Measurement: Hemispherical reflectance
First Column: X
Second Column: Y
X Units: Wavelength (micrometers)
Y Units:Reflectance (percent)
First X Value:  2.5000
Last X Value:  0.4000
Number of X Values: 2101
Additional Information: mineral.silicate.inosilicate.medium.vswir.in-6a.jpl.perkin.ancillary.txt

 2.5000	 7.1927
 2.4990	 7.2744
 2.4980	 7.2710
 2.4970	 7.5517
 2.4960	 7.0519
 2.4950	 7.5642
 2.4940	 7.1718
 2.4930	 7.2702
 2.4920	 7.2279
 2.4910	 7.3610
 2.4900	 7.3056
 2.4890	 7.3295
 2.4880	 7.0577
 2.4870	 7.5481
 2.4860	 7.2488
 2.4850	 7.5267
 2.4840	 7.1742
 2.4830	 7.4457
 2.4820	 7.2314
 2.4810	 7.4602
 2.4800	 7.3250
 2.4790	 7.4728
 2.4780	 7.2524
 2.4770	 7.5108
 2.4760	 7.2174
 2.4750	 7.5792
 2.4740	 7.2478
 2.4730	 7.5045
 2.4720	 7.3573
 2.4710	 7.4631
 2.4700	 7.2810
 2.4690	 7.5498
 2.4680	 7.3097
 2.4670	 7.5057
 2.4660	 7.3147
 2.4650	 7.5203
 2.4640	 7.4162
 2.4630	 7.5690
 2.4620	 7.3992
 2.4610	 7.5090
 2.4600	 7.3218
 2.4590	 7.4155
 2.4580	 7.4185
 2.4570	 7.5200
 2.4560	 7.4907
 2.4550	 7.5739
 2.4540	 7.4475
 2.4530	 7.5369
 2.4520	 7.4506
 2.4510	 7.6585
 2.4500	 7.5384
 2.4490	 7.6921
 2.4480	 7.4176
 2.4470	 7.4968
 2.4460	 7.4364
 2.4450	 7.5339
 2.4440	 7.4360
 2.4430	 7.6251
 2.4420	 7.5872
 2.4410	 7.6356
 2.4400	 7.3787
 2.4390	 7.5403
 2.4380	 7.4273
 2.4370	 7.5594
 2.4360	 7.4885
 2.4350	 7.5622
 2.4340	 7.4867
 2.4330	 7.6510
 2.4320	 7.5078
 2.4310	 7.6419
 2.4300	 7.6296
 2.4290	 7.5770
 2.4280	 7.4893
 2.4270	 7.6439
 2.4260	 7.5720
 2.4250	 7.6389
 2.4240	 7.5492
 2.4230	 7.7004
 2.4220	 7.5792
 2.4210	 7.7043
 2.4200	 7.6278
 2.4190	 7.6500
 2.4180	 7.5235
 2.4170	 7.7309
 2.4160	 7.6109
 2.4150	 7.6293
 2.4140	 7.5686
 2.4130	 7.6731
 2.4120	 7.5305
 2.4110	 7.6359
 2.4100	 7.6761
 2.4090	 7.6396
 2.4080	 7.5766
 2.4070	 7.6825
 2.4060	 7.6725
 2.4050	 7.7440
 2.4040	 7.7035
 2.4030	 7.7430
 2.4020	 7.6564
 2.4010	 7.6948
 2.4000	 7.6670
 2.3990	 7.6541
 2.3980	 7.6431
 2.3970	 7.7078
 2.3960	 7.5944
 2.3950	 7.7056
 2.3940	 7.6981
 2.3930	 7.7389
 2.3920	 7.6867
 2.3910	 7.7080
 2.3900	 7.7286
 2.3890	 7.7670
 2.3880	 7.6926
 2.3870	 7.7557
 2.3860	 7.7601
 2.3850	 7.7345
 2.3840	 7.7477
 2.3830	 7.8106
 2.3820	 7.7996
 2.3810	 7.8388
 2.3800	 7.7380
 2.3790	 7.7177
 2.3780	 7.7558
 2.3770	 7.7599
 2.3760	 7.7602
 2.3750	 7.8399
 2.3740	 7.7907
 2.3730	 7.7798
 2.3720	 7.7576
 2.3710	 7.8049
 2.3700	 7.8132
 2.3690	 7.8022
 2.3680	 7.7917
 2.3670	 7.7915
 2.3660	 7.7833
 2.3650	 7.7335
 2.3640	 7.7365
 2.3630	 7.8276
 2.3620	 7.7885
 2.3610	 7.7833
 2.3600	 7.8143
 2.3590	 7.8017
 2.3580	 7.7658
 2.3570	 7.7752
 2.3560	 7.8146
 2.3550	 7.7743
 2.3540	 7.7784
 2.3530	 7.8158
 2.3520	 7.8245
 2.3510	 7.8083
 2.3500	 7.8068
 2.3490	 7.8071
 2.3480	 7.7713
 2.3470	 7.7580
 2.3460	 7.8049
 2.3450	 7.7393
 2.3440	 7.7145
 2.3430	 7.7729
 2.3420	 7.8033
 2.3410	 7.7801
 2.3400	 7.8001
 2.3390	 7.7795
 2.3380	 7.7855
 2.3370	 7.8104
 2.3360	 7.7550
 2.3350	 7.7386
 2.3340	 7.8002
 2.3330	 7.7983
 2.3320	 7.8148
 2.3310	 7.7943
 2.3300	 7.8503
 2.3290	 7.8113
 2.3280	 7.7933
 2.3270	 7.7851
 2.3260	 7.8310
 2.3250	 7.8213
 2.3240	 7.8256
 2.3230	 7.8519
 2.3220	 7.9274
 2.3210	 7.8637
 2.3200	 7.8977
 2.3190	 7.8771
 2.3180	 7.9119
 2.3170	 7.8915
 2.3160	 7.9670
 2.3150	 7.9625
 2.3140	 8.0065
 2.3130	 7.9833
 2.3120	 8.0377
 2.3110	 8.0080
 2.3100	 7.9546
 2.3090	 8.0125
 2.3080	 8.0869
 2.3070	 8.0652
 2.3060	 8.0541
 2.3050	 8.0430
 2.3040	 8.0469
 2.3030	 8.0748
 2.3020	 8.1210
 2.3010	 8.1244
 2.3000	 8.1948
 2.2990	 8.1799
 2.2980	 8.1518
 2.2970	 8.1788
 2.2960	 8.2081
 2.2950	 8.1649
 2.2940	 8.2585
 2.2930	 8.2000
 2.2920	 8.2660
 2.2910	 8.2972
 2.2900	 8.3121
 2.2890	 8.2542
 2.2880	 8.3076
 2.2870	 8.2166
 2.2860	 8.3050
 2.2850	 8.2416
 2.2840	 8.3387
 2.2830	 8.2451
 2.2820	 8.3474
 2.2810	 8.2789
 2.2800	 8.4085
 2.2790	 8.3117
 2.2780	 8.3843
 2.2770	 8.3720
 2.2760	 8.3678
 2.2750	 8.3723
 2.2740	 8.4037
 2.2730	 8.3120
 2.2720	 8.3993
 2.2710	 8.2863
 2.2700	 8.3103
 2.2690	 8.3540
 2.2680	 8.3072
 2.2670	 8.3277
 2.2660	 8.3930
 2.2650	 8.3056
 2.2640	 8.4260
 2.2630	 8.3545
 2.2620	 8.3565
 2.2610	 8.3875
 2.2600	 8.4751
 2.2590	 8.3430
 2.2580	 8.4553
 2.2570	 8.4119
 2.2560	 8.4539
 2.2550	 8.4027
 2.2540	 8.5617
 2.2530	 8.3872
 2.2520	 8.4659
 2.2510	 8.4035
 2.2500	 8.4499
 2.2490	 8.4929
 2.2480	 8.5254
 2.2470	 8.4589
 2.2460	 8.6035
 2.2450	 8.3837
 2.2440	 8.5767
 2.2430	 8.5063
 2.2420	 8.6050
 2.2410	 8.6118
 2.2400	 8.7085
 2.2390	 8.6080
 2.2380	 8.7322
 2.2370	 8.5972
 2.2360	 8.7012
 2.2350	 8.6373
 2.2340	 8.7845
 2.2330	 8.6435
 2.2320	 8.7183
 2.2310	 8.6595
 2.2300	 8.7888
 2.2290	 8.6909
 2.2280	 8.8199
 2.2270	 8.7478
 2.2260	 8.7727
 2.2250	 8.7199
 2.2240	 8.8540
 2.2230	 8.7267
 2.2220	 8.8014
 2.2210	 8.8098
 2.2200	 8.8125
 2.2190	 8.7802
 2.2180	 8.9056
 2.2170	 8.7485
 2.2160	 8.8978
 2.2150	 8.8010
 2.2140	 8.8795
 2.2130	 8.7905
 2.2120	 9.0003
 2.2110	 8.7527
 2.2100	 9.0119
 2.2090	 8.8199
 2.2080	 9.0002
 2.2070	 8.8567
 2.2060	 8.9796
 2.2050	 8.8472
 2.2040	 8.9823
 2.2030	 8.8604
 2.2020	 9.0571
 2.2010	 8.9560
 2.2000	 8.9468
 2.1990	 8.9475
 2.1980	 9.0538
 2.1970	 8.9087
 2.1960	 8.9875
 2.1950	 8.9511
 2.1940	 8.9635
 2.1930	 8.9969
 2.1920	 9.0108
 2.1910	 8.9957
 2.1900	 9.0671
 2.1890	 8.9396
 2.1880	 9.0984
 2.1870	 9.0018
 2.1860	 9.1066
 2.1850	 9.0124
 2.1840	 9.0606
 2.1830	 9.0246
 2.1820	 9.1404
 2.1810	 9.0298
 2.1800	 9.1060
 2.1790	 9.0970
 2.1780	 9.1006
 2.1770	 9.0625
 2.1760	 9.1987
 2.1750	 9.0945
 2.1740	 9.2184
 2.1730	 9.1122
 2.1720	 9.2730
 2.1710	 9.1182
 2.1700	 9.2633
 2.1690	 9.1775
 2.1680	 9.1751
 2.1670	 9.2089
 2.1660	 9.2796
 2.1650	 9.1525
 2.1640	 9.2085
 2.1630	 9.2358
 2.1620	 9.2340
 2.1610	 9.2332
 2.1600	 9.3276
 2.1590	 9.2619
 2.1580	 9.2850
 2.1570	 9.1660
 2.1560	 9.2695
 2.1550	 9.2589
 2.1540	 9.3911
 2.1530	 9.2996
 2.1520	 9.3558
 2.1510	 9.3078
 2.1500	 9.3310
 2.1490	 9.2214
 2.1480	 9.3581
 2.1470	 9.3185
 2.1460	 9.3564
 2.1450	 9.2976
 2.1440	 9.3539
 2.1430	 9.2893
 2.1420	 9.4210
 2.1410	 9.3301
 2.1400	 9.4147
 2.1390	 9.3496
 2.1380	 9.3871
 2.1370	 9.3368
 2.1360	 9.3676
 2.1350	 9.3396
 2.1340	 9.3981
 2.1330	 9.2819
 2.1320	 9.4019
 2.1310	 9.3537
 2.1300	 9.3620
 2.1290	 9.3262
 2.1280	 9.3857
 2.1270	 9.2976
 2.1260	 9.3060
 2.1250	 9.3217
 2.1240	 9.4067
 2.1230	 9.3554
 2.1220	 9.4034
 2.1210	 9.3584
 2.1200	 9.4706
 2.1190	 9.3486
 2.1180	 9.4368
 2.1170	 9.3850
 2.1160	 9.3906
 2.1150	 9.3597
 2.1140	 9.3880
 2.1130	 9.3408
 2.1120	 9.3774
 2.1110	 9.3506
 2.1100	 9.3744
 2.1090	 9.3535
 2.1080	 9.3266
 2.1070	 9.3519
 2.1060	 9.3214
 2.1050	 9.2530
 2.1040	 9.3197
 2.1030	 9.3449
 2.1020	 9.3472
 2.1010	 9.2820
 2.1000	 9.3934
 2.0990	 9.3662
 2.0980	 9.3377
 2.0970	 9.3132
 2.0960	 9.3399
 2.0950	 9.3097
 2.0940	 9.3438
 2.0930	 9.3630
 2.0920	 9.3841
 2.0910	 9.3280
 2.0900	 9.3913
 2.0890	 9.3831
 2.0880	 9.4122
 2.0870	 9.4320
 2.0860	 9.4357
 2.0850	 9.4526
 2.0840	 9.4075
 2.0830	 9.3541
 2.0820	 9.3962
 2.0810	 9.3747
 2.0800	 9.4309
 2.0790	 9.4130
 2.0780	 9.3668
 2.0770	 9.4060
 2.0760	 9.4187
 2.0750	 9.4146
 2.0740	 9.4396
 2.0730	 9.4457
 2.0720	 9.3839
 2.0710	 9.4173
 2.0700	 9.4546
 2.0690	 9.4547
 2.0680	 9.4616
 2.0670	 9.4406
 2.0660	 9.4525
 2.0650	 9.4584
 2.0640	 9.4916
 2.0630	 9.5339
 2.0620	 9.4937
 2.0610	 9.4750
 2.0600	 9.4959
 2.0590	 9.4613
 2.0580	 9.4606
 2.0570	 9.5087
 2.0560	 9.4567
 2.0550	 9.4608
 2.0540	 9.4913
 2.0530	 9.5389
 2.0520	 9.4862
 2.0510	 9.4810
 2.0500	 9.5518
 2.0490	 9.5495
 2.0480	 9.4988
 2.0470	 9.5117
 2.0460	 9.4918
 2.0450	 9.5529
 2.0440	 9.5229
 2.0430	 9.5246
 2.0420	 9.5202
 2.0410	 9.5631
 2.0400	 9.5331
 2.0390	 9.5629
 2.0380	 9.5581
 2.0370	 9.6137
 2.0360	 9.5405
 2.0350	 9.5706
 2.0340	 9.5175
 2.0330	 9.5404
 2.0320	 9.5467
 2.0310	 9.5842
 2.0300	 9.5408
 2.0290	 9.5415
 2.0280	 9.5839
 2.0270	 9.5918
 2.0260	 9.4914
 2.0250	 9.4980
 2.0240	 9.5255
 2.0230	 9.6034
 2.0220	 9.5712
 2.0210	 9.5863
 2.0200	 9.4995
 2.0190	 9.5314
 2.0180	 9.5351
 2.0170	 9.6370
 2.0160	 9.5126
 2.0150	 9.5771
 2.0140	 9.5508
 2.0130	 9.6158
 2.0120	 9.5181
 2.0110	 9.5810
 2.0100	 9.5652
 2.0090	 9.6297
 2.0080	 9.5442
 2.0070	 9.6003
 2.0060	 9.5494
 2.0050	 9.5343
 2.0040	 9.5695
 2.0030	 9.5712
 2.0020	 9.5728
 2.0010	 9.6424
 2.0000	 9.6060
 1.9990	 9.6132
 1.9980	 9.5476
 1.9970	 9.6138
 1.9960	 9.6336
 1.9950	 9.5747
 1.9940	 9.5505
 1.9930	 9.6075
 1.9920	 9.5634
 1.9910	 9.6609
 1.9900	 9.6127
 1.9890	 9.6552
 1.9880	 9.6000
 1.9870	 9.6670
 1.9860	 9.5043
 1.9850	 9.6593
 1.9840	 9.6526
 1.9830	 9.5932
 1.9820	 9.5687
 1.9810	 9.6063
 1.9800	 9.6682
 1.9790	 9.6453
 1.9780	 9.5540
 1.9770	 9.6292
 1.9760	 9.5797
 1.9750	 9.6910
 1.9740	 9.5056
 1.9730	 9.6403
 1.9720	 9.5704
 1.9710	 9.6238
 1.9700	 9.6402
 1.9690	 9.6238
 1.9680	 9.5358
 1.9670	 9.6728
 1.9660	 9.6498
 1.9650	 9.6247
 1.9640	 9.5934
 1.9630	 9.6603
 1.9620	 9.5984
 1.9610	 9.6837
 1.9600	 9.5588
 1.9590	 9.6147
 1.9580	 9.5738
 1.9570	 9.7206
 1.9560	 9.5705
 1.9550	 9.6605
 1.9540	 9.5436
 1.9530	 9.6625
 1.9520	 9.6790
 1.9510	 9.7124
 1.9500	 9.5288
 1.9490	 9.6564
 1.9480	 9.6050
 1.9470	 9.6916
 1.9460	 9.5642
 1.9450	 9.6655
 1.9440	 9.6072
 1.9430	 9.7020
 1.9420	 9.6648
 1.9410	 9.7237
 1.9400	 9.6351
 1.9390	 9.7354
 1.9380	 9.5354
 1.9370	 9.7355
 1.9360	 9.6152
 1.9350	 9.7177
 1.9340	 9.5980
 1.9330	 9.7802
 1.9320	 9.6540
 1.9310	 9.7266
 1.9300	 9.6253
 1.9290	 9.7587
 1.9280	 9.6890
 1.9270	 9.8190
 1.9260	 9.5236
 1.9250	 9.7703
 1.9240	 9.6444
 1.9230	 9.7350
 1.9220	 9.6843
 1.9210	 9.7029
 1.9200	 9.7199
 1.9190	 9.6520
 1.9180	 9.6808
 1.9170	 9.7275
 1.9160	 9.6013
 1.9150	 9.7916
 1.9140	 9.6187
 1.9130	 9.7675
 1.9120	 9.6360
 1.9110	 9.6872
 1.9100	 9.6593
 1.9090	 9.7004
 1.9080	 9.5962
 1.9070	 9.7806
 1.9060	 9.6747
 1.9050	 9.7389
 1.9040	 9.6135
 1.9030	 9.7606
 1.9020	 9.6834
 1.9010	 9.8079
 1.9000	 9.7186
 1.8990	 9.7431
 1.8980	 9.6377
 1.8970	 9.7212
 1.8960	 9.7050
 1.8950	 9.8319
 1.8940	 9.6708
 1.8930	 9.7398
 1.8920	 9.6654
 1.8910	 9.7787
 1.8900	 9.6591
 1.8890	 9.6799
 1.8880	 9.7048
 1.8870	 9.7982
 1.8860	 9.6757
 1.8850	 9.7797
 1.8840	 9.6642
 1.8830	 9.8117
 1.8820	 9.7102
 1.8810	 9.7556
 1.8800	 9.7012
 1.8790	 9.7456
 1.8780	 9.7198
 1.8770	 9.7192
 1.8760	 9.6554
 1.8750	 9.7210
 1.8740	 9.6689
 1.8730	 9.7362
 1.8720	 9.7376
 1.8710	 9.8261
 1.8700	 9.7490
 1.8690	 9.8086
 1.8680	 9.7429
 1.8670	 9.7853
 1.8660	 9.7249
 1.8650	 9.7787
 1.8640	 9.7277
 1.8630	 9.7787
 1.8620	 9.7091
 1.8610	 9.7850
 1.8600	 9.6986
 1.8590	 9.7033
 1.8580	 9.6000
 1.8570	 9.7263
 1.8560	 9.7250
 1.8550	 9.7397
 1.8540	 9.6955
 1.8530	 9.7606
 1.8520	 9.7815
 1.8510	 9.7853
 1.8500	 9.7105
 1.8490	 9.8154
 1.8480	 9.6977
 1.8470	 9.6801
 1.8460	 9.6617
 1.8450	 9.7650
 1.8440	 9.7316
 1.8430	 9.7538
 1.8420	 9.6647
 1.8410	 9.7420
 1.8400	 9.7384
 1.8390	 9.7625
 1.8380	 9.6987
 1.8370	 9.7016
 1.8360	 9.6386
 1.8350	 9.7439
 1.8340	 9.7018
 1.8330	 9.7455
 1.8320	 9.7376
 1.8310	 9.7132
 1.8300	 9.6481
 1.8290	 9.7241
 1.8280	 9.7070
 1.8270	 9.7082
 1.8260	 9.6653
 1.8250	 9.7212
 1.8240	 9.7011
 1.8230	 9.7385
 1.8220	 9.7022
 1.8210	 9.7223
 1.8200	 9.6966
 1.8190	 9.7081
 1.8180	 9.6301
 1.8170	 9.6628
 1.8160	 9.6736
 1.8150	 9.7118
 1.8140	 9.7398
 1.8130	 9.6854
 1.8120	 9.6256
 1.8110	 9.6756
 1.8100	 9.6897
 1.8090	 9.7167
 1.8080	 9.7025
 1.8070	 9.6727
 1.8060	 9.6354
 1.8050	 9.6672
 1.8040	 9.6802
 1.8030	 9.6783
 1.8020	 9.7079
 1.8010	 9.7192
 1.8000	 9.6798
 1.7990	 9.7231
 1.7980	 9.6908
 1.7970	 9.6615
 1.7960	 9.6864
 1.7950	 9.6740
 1.7940	 9.6717
 1.7930	 9.6572
 1.7920	 9.6172
 1.7910	 9.6572
 1.7900	 9.6623
 1.7890	 9.6753
 1.7880	 9.6542
 1.7870	 9.5997
 1.7860	 9.6297
 1.7850	 9.6391
 1.7840	 9.6379
 1.7830	 9.6759
 1.7820	 9.6657
 1.7810	 9.6591
 1.7800	 9.6165
 1.7790	 9.6266
 1.7780	 9.6509
 1.7770	 9.6215
 1.7760	 9.6601
 1.7750	 9.6276
 1.7740	 9.5919
 1.7730	 9.5921
 1.7720	 9.6217
 1.7710	 9.6172
 1.7700	 9.6055
 1.7690	 9.6238
 1.7680	 9.6809
 1.7670	 9.6138
 1.7660	 9.5873
 1.7650	 9.5804
 1.7640	 9.6307
 1.7630	 9.6354
 1.7620	 9.6577
 1.7610	 9.6031
 1.7600	 9.6223
 1.7590	 9.6073
 1.7580	 9.6358
 1.7570	 9.6250
 1.7560	 9.6184
 1.7550	 9.5692
 1.7540	 9.6010
 1.7530	 9.5624
 1.7520	 9.5718
 1.7510	 9.5578
 1.7500	 9.5976
 1.7490	 9.5922
 1.7480	 9.6208
 1.7470	 9.6008
 1.7460	 9.5767
 1.7450	 9.5236
 1.7440	 9.6023
 1.7430	 9.5733
 1.7420	 9.6226
 1.7410	 9.6044
 1.7400	 9.6127
 1.7390	 9.5488
 1.7380	 9.5460
 1.7370	 9.5463
 1.7360	 9.5532
 1.7350	 9.5439
 1.7340	 9.5996
 1.7330	 9.5650
 1.7320	 9.5853
 1.7310	 9.5125
 1.7300	 9.6062
 1.7290	 9.5576
 1.7280	 9.6027
 1.7270	 9.5626
 1.7260	 9.5447
 1.7250	 9.5672
 1.7240	 9.6114
 1.7230	 9.5499
 1.7220	 9.5638
 1.7210	 9.5190
 1.7200	 9.5769
 1.7190	 9.5143
 1.7180	 9.5445
 1.7170	 9.5177
 1.7160	 9.5827
 1.7150	 9.5145
 1.7140	 9.5472
 1.7130	 9.5064
 1.7120	 9.5666
 1.7110	 9.4704
 1.7100	 9.5403
 1.7090	 9.5469
 1.7080	 9.6043
 1.7070	 9.5203
 1.7060	 9.5533
 1.7050	 9.5135
 1.7040	 9.5828
 1.7030	 9.5064
 1.7020	 9.5237
 1.7010	 9.4774
 1.7000	 9.5577
 1.6990	 9.5156
 1.6980	 9.5446
 1.6970	 9.4763
 1.6960	 9.5047
 1.6950	 9.4413
 1.6940	 9.5529
 1.6930	 9.4957
 1.6920	 9.5549
 1.6910	 9.4339
 1.6900	 9.4880
 1.6890	 9.4176
 1.6880	 9.4750
 1.6870	 9.4028
 1.6860	 9.4573
 1.6850	 9.4622
 1.6840	 9.5390
 1.6830	 9.4002
 1.6820	 9.5215
 1.6810	 9.3911
 1.6800	 9.4783
 1.6790	 9.4204
 1.6780	 9.5322
 1.6770	 9.4343
 1.6760	 9.5072
 1.6750	 9.4283
 1.6740	 9.5425
 1.6730	 9.3732
 1.6720	 9.5278
 1.6710	 9.4501
 1.6700	 9.5237
 1.6690	 9.5537
 1.6680	 9.3143
 1.6670	 9.4811
 1.6660	 9.5090
 1.6650	 9.3852
 1.6640	 9.4569
 1.6630	 9.3453
 1.6620	 9.5519
 1.6610	 9.3484
 1.6600	 9.4970
 1.6590	 9.2862
 1.6580	 9.4409
 1.6570	 9.3416
 1.6560	 9.4469
 1.6550	 9.3929
 1.6540	 9.3872
 1.6530	 9.4169
 1.6520	 9.4573
 1.6510	 9.3625
 1.6500	 9.3894
 1.6490	 9.3501
 1.6480	 9.4996
 1.6470	 9.2862
 1.6460	 9.4096
 1.6450	 9.4015
 1.6440	 9.4309
 1.6430	 9.3753
 1.6420	 9.5232
 1.6410	 9.2548
 1.6400	 9.5880
 1.6390	 9.2483
 1.6380	 9.3708
 1.6370	 9.2798
 1.6360	 9.4447
 1.6350	 9.3062
 1.6340	 9.4533
 1.6330	 9.2429
 1.6320	 9.3736
 1.6310	 9.3404
 1.6300	 9.4324
 1.6290	 9.2900
 1.6280	 9.3408
 1.6270	 9.3206
 1.6260	 9.4129
 1.6250	 9.3368
 1.6240	 9.3506
 1.6230	 9.2774
 1.6220	 9.3516
 1.6210	 9.3344
 1.6200	 9.4167
 1.6190	 9.3093
 1.6180	 9.3193
 1.6170	 9.3128
 1.6160	 9.3714
 1.6150	 9.2810
 1.6140	 9.3794
 1.6130	 9.2356
 1.6120	 9.3430
 1.6110	 9.2283
 1.6100	 9.3742
 1.6090	 9.2317
 1.6080	 9.3720
 1.6070	 9.1943
 1.6060	 9.3563
 1.6050	 9.2240
 1.6040	 9.3012
 1.6030	 9.2769
 1.6020	 9.3124
 1.6010	 9.2620
 1.6000	 9.3127
 1.5990	 9.1916
 1.5980	 9.2997
 1.5970	 9.2659
 1.5960	 9.3445
 1.5950	 9.2011
 1.5940	 9.3072
 1.5930	 9.2564
 1.5920	 9.2698
 1.5910	 9.2293
 1.5900	 9.3131
 1.5890	 9.2076
 1.5880	 9.2712
 1.5870	 9.2272
 1.5860	 9.2196
 1.5850	 9.1799
 1.5840	 9.2918
 1.5830	 9.1603
 1.5820	 9.2716
 1.5810	 9.1987
 1.5800	 9.2830
 1.5790	 9.2226
 1.5780	 9.2524
 1.5770	 9.2280
 1.5760	 9.3069
 1.5750	 9.1902
 1.5740	 9.2246
 1.5730	 9.1583
 1.5720	 9.2141
 1.5710	 9.1783
 1.5700	 9.2064
 1.5690	 9.2312
 1.5680	 9.2509
 1.5670	 9.1537
 1.5660	 9.1697
 1.5650	 9.1686
 1.5640	 9.1958
 1.5630	 9.1311
 1.5620	 9.1890
 1.5610	 9.1552
 1.5600	 9.2242
 1.5590	 9.1448
 1.5580	 9.2128
 1.5570	 9.1179
 1.5560	 9.1088
 1.5550	 9.1177
 1.5540	 9.1234
 1.5530	 9.1324
 1.5520	 9.2021
 1.5510	 9.1443
 1.5500	 9.1629
 1.5490	 9.1413
 1.5480	 9.1279
 1.5470	 9.0630
 1.5460	 9.1094
 1.5450	 9.1224
 1.5440	 9.1283
 1.5430	 9.0857
 1.5420	 9.0853
 1.5410	 9.0541
 1.5400	 9.1525
 1.5390	 9.1030
 1.5380	 9.0915
 1.5370	 9.0540
 1.5360	 9.0435
 1.5350	 9.0433
 1.5340	 9.0898
 1.5330	 9.0487
 1.5320	 9.0589
 1.5310	 9.0122
 1.5300	 9.0416
 1.5290	 9.0121
 1.5280	 9.0396
 1.5270	 9.0269
 1.5260	 9.0457
 1.5250	 9.0519
 1.5240	 9.0805
 1.5230	 9.0695
 1.5220	 9.0507
 1.5210	 8.9805
 1.5200	 9.0193
 1.5190	 9.0180
 1.5180	 9.0288
 1.5170	 8.9823
 1.5160	 9.0167
 1.5150	 9.0086
 1.5140	 9.0264
 1.5130	 9.0415
 1.5120	 8.9862
 1.5110	 8.9612
 1.5100	 8.9897
 1.5090	 9.0052
 1.5080	 8.9852
 1.5070	 8.9174
 1.5060	 8.9543
 1.5050	 8.9668
 1.5040	 8.9161
 1.5030	 8.9391
 1.5020	 8.9633
 1.5010	 8.9505
 1.5000	 8.9564
 1.4990	 8.9420
 1.4980	 8.9028
 1.4970	 8.8916
 1.4960	 8.9075
 1.4950	 8.8982
 1.4940	 8.9092
 1.4930	 8.9201
 1.4920	 8.9104
 1.4910	 8.9282
 1.4900	 8.9132
 1.4890	 8.9269
 1.4880	 8.9051
 1.4870	 8.8976
 1.4860	 8.9025
 1.4850	 8.9227
 1.4840	 8.8567
 1.4830	 8.8801
 1.4820	 8.8662
 1.4810	 8.8429
 1.4800	 8.8161
 1.4790	 8.8508
 1.4780	 8.8529
 1.4770	 8.8534
 1.4760	 8.8661
 1.4750	 8.8872
 1.4740	 8.8567
 1.4730	 8.8552
 1.4720	 8.8141
 1.4710	 8.8164
 1.4700	 8.7830
 1.4690	 8.8180
 1.4680	 8.7729
 1.4670	 8.7872
 1.4660	 8.7890
 1.4650	 8.7873
 1.4640	 8.7398
 1.4630	 8.7746
 1.4620	 8.7308
 1.4610	 8.8244
 1.4600	 8.7807
 1.4590	 8.7506
 1.4580	 8.7280
 1.4570	 8.7585
 1.4560	 8.7483
 1.4550	 8.7544
 1.4540	 8.6822
 1.4530	 8.7662
 1.4520	 8.6770
 1.4510	 8.7398
 1.4500	 8.6388
 1.4490	 8.7058
 1.4480	 8.6639
 1.4470	 8.7259
 1.4460	 8.6594
 1.4450	 8.6916
 1.4440	 8.6532
 1.4430	 8.7118
 1.4420	 8.5768
 1.4410	 8.6850
 1.4400	 8.6331
 1.4390	 8.6995
 1.4380	 8.6625
 1.4370	 8.6586
 1.4360	 8.6277
 1.4350	 8.6718
 1.4340	 8.5668
 1.4330	 8.5972
 1.4320	 8.5545
 1.4310	 8.6387
 1.4300	 8.5544
 1.4290	 8.5870
 1.4280	 8.5226
 1.4270	 8.5631
 1.4260	 8.4804
 1.4250	 8.5891
 1.4240	 8.5394
 1.4230	 8.5881
 1.4220	 8.4703
 1.4210	 8.5352
 1.4200	 8.4309
 1.4190	 8.3639
 1.4180	 8.2646
 1.4170	 8.2966
 1.4160	 8.2302
 1.4150	 8.2207
 1.4140	 8.2419
 1.4130	 8.3087
 1.4120	 8.2429
 1.4110	 8.3451
 1.4100	 8.1227
 1.4090	 8.0786
 1.4080	 8.0052
 1.4070	 8.1113
 1.4060	 8.1059
 1.4050	 8.2503
 1.4040	 8.2454
 1.4030	 8.2956
 1.4020	 8.2889
 1.4010	 8.2239
 1.4000	 8.1519
 1.3990	 8.2813
 1.3980	 8.2509
 1.3970	 8.4011
 1.3960	 8.3245
 1.3950	 8.3368
 1.3940	 8.2862
 1.3930	 8.3144
 1.3920	 8.2723
 1.3910	 8.4242
 1.3900	 8.3512
 1.3890	 8.3863
 1.3880	 8.2446
 1.3870	 8.3084
 1.3860	 8.2804
 1.3850	 8.3584
 1.3840	 8.2853
 1.3830	 8.2862
 1.3820	 8.2293
 1.3810	 8.2616
 1.3800	 8.1623
 1.3790	 8.3835
 1.3780	 8.2705
 1.3770	 8.3469
 1.3760	 8.1932
 1.3750	 8.2522
 1.3740	 8.2652
 1.3730	 8.3004
 1.3720	 8.0908
 1.3710	 8.3197
 1.3700	 8.1994
 1.3690	 8.2601
 1.3680	 8.0979
 1.3670	 8.2450
 1.3660	 8.1529
 1.3650	 8.2781
 1.3640	 8.1087
 1.3630	 8.2955
 1.3620	 8.0227
 1.3610	 8.2155
 1.3600	 8.1373
 1.3590	 8.1890
 1.3580	 8.1032
 1.3570	 8.1714
 1.3560	 8.2568
 1.3550	 8.0436
 1.3540	 8.0788
 1.3530	 8.1217
 1.3520	 8.0242
 1.3510	 8.1804
 1.3500	 8.0684
 1.3490	 8.1421
 1.3480	 7.9684
 1.3470	 8.1278
 1.3460	 8.0553
 1.3450	 8.0591
 1.3440	 8.0069
 1.3430	 8.1061
 1.3420	 8.0224
 1.3410	 8.0920
 1.3400	 8.0348
 1.3390	 7.9864
 1.3380	 7.9632
 1.3370	 8.0499
 1.3360	 7.9644
 1.3350	 7.9517
 1.3340	 7.8930
 1.3330	 8.0851
 1.3320	 7.9305
 1.3310	 7.9897
 1.3300	 7.9472
 1.3290	 7.8822
 1.3280	 7.8623
 1.3270	 7.9729
 1.3260	 7.9057
 1.3250	 7.9784
 1.3240	 7.8048
 1.3230	 7.9470
 1.3220	 7.8283
 1.3210	 7.9448
 1.3200	 7.8453
 1.3190	 7.8837
 1.3180	 7.8554
 1.3170	 7.9167
 1.3160	 7.7450
 1.3150	 7.8932
 1.3140	 7.7755
 1.3130	 7.8748
 1.3120	 7.8352
 1.3110	 7.8408
 1.3100	 7.7801
 1.3090	 7.8097
 1.3080	 7.8029
 1.3070	 7.8135
 1.3060	 7.7600
 1.3050	 7.7781
 1.3040	 7.7507
 1.3030	 7.7651
 1.3020	 7.6727
 1.3010	 7.7315
 1.3000	 7.7277
 1.2990	 7.7575
 1.2980	 7.6606
 1.2970	 7.7525
 1.2960	 7.6598
 1.2950	 7.6894
 1.2940	 7.6313
 1.2930	 7.6750
 1.2920	 7.5779
 1.2910	 7.6503
 1.2900	 7.6426
 1.2890	 7.6263
 1.2880	 7.5226
 1.2870	 7.5961
 1.2860	 7.5899
 1.2850	 7.5706
 1.2840	 7.5910
 1.2830	 7.6222
 1.2820	 7.5850
 1.2810	 7.6158
 1.2800	 7.4605
 1.2790	 7.6004
 1.2780	 7.5725
 1.2770	 7.5399
 1.2760	 7.5210
 1.2750	 7.5279
 1.2740	 7.4838
 1.2730	 7.5478
 1.2720	 7.4558
 1.2710	 7.5172
 1.2700	 7.4751
 1.2690	 7.5214
 1.2680	 7.4172
 1.2670	 7.4927
 1.2660	 7.4645
 1.2650	 7.4973
 1.2640	 7.4174
 1.2630	 7.4391
 1.2620	 7.4236
 1.2610	 7.4797
 1.2600	 7.4264
 1.2590	 7.4594
 1.2580	 7.3496
 1.2570	 7.4216
 1.2560	 7.4124
 1.2550	 7.3908
 1.2540	 7.4004
 1.2530	 7.4179
 1.2520	 7.3203
 1.2510	 7.3628
 1.2500	 7.3051
 1.2490	 7.3114
 1.2480	 7.3288
 1.2470	 7.3574
 1.2460	 7.3134
 1.2450	 7.3134
 1.2440	 7.2500
 1.2430	 7.3046
 1.2420	 7.3197
 1.2410	 7.2954
 1.2400	 7.2715
 1.2390	 7.3015
 1.2380	 7.2440
 1.2370	 7.2041
 1.2360	 7.1883
 1.2350	 7.2219
 1.2340	 7.2020
 1.2330	 7.2187
 1.2320	 7.1994
 1.2310	 7.1796
 1.2300	 7.1718
 1.2290	 7.1650
 1.2280	 7.1424
 1.2270	 7.1938
 1.2260	 7.1985
 1.2250	 7.2011
 1.2240	 7.1533
 1.2230	 7.2046
 1.2220	 7.1315
 1.2210	 7.1124
 1.2200	 7.1374
 1.2190	 7.1293
 1.2180	 7.1372
 1.2170	 7.0978
 1.2160	 7.0902
 1.2150	 7.1225
 1.2140	 7.1193
 1.2130	 7.1215
 1.2120	 7.1078
 1.2110	 7.0405
 1.2100	 7.0640
 1.2090	 7.0623
 1.2080	 7.0457
 1.2070	 7.0614
 1.2060	 7.0858
 1.2050	 7.0670
 1.2040	 7.0612
 1.2030	 7.0179
 1.2020	 7.0269
 1.2010	 7.0120
 1.2000	 7.0042
 1.1990	 7.0176
 1.1980	 7.0631
 1.1970	 6.9986
 1.1960	 6.9780
 1.1950	 6.9846
 1.1940	 6.9996
 1.1930	 7.0035
 1.1920	 7.0216
 1.1910	 6.9786
 1.1900	 6.9758
 1.1890	 7.0567
 1.1880	 6.8741
 1.1870	 6.9144
 1.1860	 6.9816
 1.1850	 6.9213
 1.1840	 6.9514
 1.1830	 6.9422
 1.1820	 6.9572
 1.1810	 6.9285
 1.1800	 6.9240
 1.1790	 6.9463
 1.1780	 6.9718
 1.1770	 6.9089
 1.1760	 6.8841
 1.1750	 6.8555
 1.1740	 6.9224
 1.1730	 6.8620
 1.1720	 6.9189
 1.1710	 6.8763
 1.1700	 6.8842
 1.1690	 6.9042
 1.1680	 6.9313
 1.1670	 6.8746
 1.1660	 6.9376
 1.1650	 6.8842
 1.1640	 6.8963
 1.1630	 6.8113
 1.1620	 6.8879
 1.1610	 6.8689
 1.1600	 6.8411
 1.1590	 6.7946
 1.1580	 6.8928
 1.1570	 6.8113
 1.1560	 6.9018
 1.1550	 6.7958
 1.1540	 6.9307
 1.1530	 6.7669
 1.1520	 6.8229
 1.1510	 6.7598
 1.1500	 6.8263
 1.1490	 6.8469
 1.1480	 6.8272
 1.1470	 6.7650
 1.1460	 6.7885
 1.1450	 6.7617
 1.1440	 6.7937
 1.1430	 6.7371
 1.1420	 6.8546
 1.1410	 6.7003
 1.1400	 6.7723
 1.1390	 6.6958
 1.1380	 6.7659
 1.1370	 6.7714
 1.1360	 6.7168
 1.1350	 6.6658
 1.1340	 6.7676
 1.1330	 6.7348
 1.1320	 6.8673
 1.1310	 6.7739
 1.1300	 6.8112
 1.1290	 6.6903
 1.1280	 6.6887
 1.1270	 6.6028
 1.1260	 6.7358
 1.1250	 6.6497
 1.1240	 6.7531
 1.1230	 6.6589
 1.1220	 6.7928
 1.1210	 6.5940
 1.1200	 6.6260
 1.1190	 6.5739
 1.1180	 6.6588
 1.1170	 6.5444
 1.1160	 6.5884
 1.1150	 6.6231
 1.1140	 6.7165
 1.1130	 6.6083
 1.1120	 6.6173
 1.1110	 6.4954
 1.1100	 6.6307
 1.1090	 6.5356
 1.1080	 6.6358
 1.1070	 6.4960
 1.1060	 6.6144
 1.1050	 6.5354
 1.1040	 6.5831
 1.1030	 6.4065
 1.1020	 6.5750
 1.1010	 6.3770
 1.1000	 6.5577
 1.0990	 6.4340
 1.0980	 6.4503
 1.0970	 6.4320
 1.0960	 6.4656
 1.0950	 6.3527
 1.0940	 6.5103
 1.0930	 6.2584
 1.0920	 6.4072
 1.0910	 6.2103
 1.0900	 6.3971
 1.0890	 6.3492
 1.0880	 6.3623
 1.0870	 6.2253
 1.0860	 6.4442
 1.0850	 6.1453
 1.0840	 6.3326
 1.0830	 6.1540
 1.0820	 6.2225
 1.0810	 6.0912
 1.0800	 6.2419
 1.0790	 6.1756
 1.0780	 6.1754
 1.0770	 6.0062
 1.0760	 6.2118
 1.0750	 6.0117
 1.0740	 6.2024
 1.0730	 5.9662
 1.0720	 6.0806
 1.0710	 6.0403
 1.0700	 5.8038
 1.0690	 6.0243
 1.0680	 5.8739
 1.0670	 5.8966
 1.0660	 5.9454
 1.0650	 5.8091
 1.0640	 5.9014
 1.0630	 5.7956
 1.0620	 5.8807
 1.0610	 5.6651
 1.0600	 5.8353
 1.0590	 5.6418
 1.0580	 5.7506
 1.0570	 5.5824
 1.0560	 5.6541
 1.0550	 5.5816
 1.0540	 5.5973
 1.0530	 5.5241
 1.0520	 5.5344
 1.0510	 5.4988
 1.0500	 5.5612
 1.0490	 5.4837
 1.0480	 5.4791
 1.0470	 5.3584
 1.0460	 5.4484
 1.0450	 5.3567
 1.0440	 5.4014
 1.0430	 5.1962
 1.0420	 5.3785
 1.0410	 5.1509
 1.0400	 5.3389
 1.0390	 5.2502
 1.0380	 5.1957
 1.0370	 5.1625
 1.0360	 5.2505
 1.0350	 5.1126
 1.0340	 5.1623
 1.0330	 5.1135
 1.0320	 5.1024
 1.0310	 5.1048
 1.0300	 5.1556
 1.0290	 5.0462
 1.0280	 5.0682
 1.0270	 5.0283
 1.0260	 5.0157
 1.0250	 4.9677
 1.0240	 4.9799
 1.0230	 4.9305
 1.0220	 5.0856
 1.0210	 4.8945
 1.0200	 4.9171
 1.0190	 4.9052
 1.0180	 4.9475
 1.0170	 4.8836
 1.0160	 4.9082
 1.0150	 4.8467
 1.0140	 4.7909
 1.0130	 4.8250
 1.0120	 4.8859
 1.0110	 4.7947
 1.0100	 4.8670
 1.0090	 4.7424
 1.0080	 4.8182
 1.0070	 4.7230
 1.0060	 4.7763
 1.0050	 4.7792
 1.0040	 4.7754
 1.0030	 4.7675
 1.0020	 4.7237
 1.0010	 4.7304
 1.0000	 4.7491
 0.9990	 4.6776
 0.9980	 4.7448
 0.9970	 4.6681
 0.9960	 4.7259
 0.9950	 4.6577
 0.9940	 4.7091
 0.9930	 4.6170
 0.9920	 4.7532
 0.9910	 4.6700
 0.9900	 4.7140
 0.9890	 4.6834
 0.9880	 4.7041
 0.9870	 4.6424
 0.9860	 4.6770
 0.9850	 4.6804
 0.9840	 4.6575
 0.9830	 4.6188
 0.9820	 4.7250
 0.9810	 4.7014
 0.9800	 4.6685
 0.9790	 4.6152
 0.9780	 4.6350
 0.9770	 4.6106
 0.9760	 4.6322
 0.9750	 4.6117
 0.9740	 4.6693
 0.9730	 4.6593
 0.9720	 4.6487
 0.9710	 4.6239
 0.9700	 4.6612
 0.9690	 4.5267
 0.9680	 4.5665
 0.9670	 4.6266
 0.9660	 4.6498
 0.9650	 4.6125
 0.9640	 4.6723
 0.9630	 4.6309
 0.9620	 4.6122
 0.9610	 4.6693
 0.9600	 4.6924
 0.9590	 4.6351
 0.9580	 4.6906
 0.9570	 4.6682
 0.9560	 4.6635
 0.9550	 4.6359
 0.9540	 4.6830
 0.9530	 4.6827
 0.9520	 4.6575
 0.9510	 4.6521
 0.9500	 4.7011
 0.9490	 4.6502
 0.9480	 4.6451
 0.9470	 4.6800
 0.9460	 4.6735
 0.9450	 4.6796
 0.9440	 4.7264
 0.9430	 4.7152
 0.9420	 4.7336
 0.9410	 4.6631
 0.9400	 4.7221
 0.9390	 4.7747
 0.9380	 4.7890
 0.9370	 4.8009
 0.9360	 4.7328
 0.9350	 4.7319
 0.9340	 4.7974
 0.9330	 4.7792
 0.9320	 4.7379
 0.9310	 4.7472
 0.9300	 4.7632
 0.9290	 4.8815
 0.9280	 4.8914
 0.9270	 4.8221
 0.9260	 4.8426
 0.9250	 4.8652
 0.9240	 4.9270
 0.9230	 4.9146
 0.9220	 4.8259
 0.9210	 4.8541
 0.9200	 4.9163
 0.9190	 4.9300
 0.9180	 4.9473
 0.9170	 4.9078
 0.9160	 4.9125
 0.9150	 4.9848
 0.9140	 4.9406
 0.9130	 4.9329
 0.9120	 4.9763
 0.9110	 5.0487
 0.9100	 5.0313
 0.9090	 5.0684
 0.9080	 4.9960
 0.9070	 5.0465
 0.9060	 5.0644
 0.9050	 5.0986
 0.9040	 5.1041
 0.9030	 5.1122
 0.9020	 5.0347
 0.9010	 5.1495
 0.9000	 5.1658
 0.8990	 5.2059
 0.8980	 5.1733
 0.8970	 5.2022
 0.8960	 5.2224
 0.8950	 5.2405
 0.8940	 5.2653
 0.8930	 5.4130
 0.8920	 5.2740
 0.8910	 5.3150
 0.8900	 5.3340
 0.8890	 5.3703
 0.8880	 5.3566
 0.8870	 5.4157
 0.8860	 5.3284
 0.8850	 5.4113
 0.8840	 5.4710
 0.8830	 5.4233
 0.8820	 5.4820
 0.8810	 5.5404
 0.8800	 5.5082
 0.8790	 5.5709
 0.8780	 5.5252
 0.8770	 5.6812
 0.8760	 5.5790
 0.8750	 5.6835
 0.8740	 5.6645
 0.8730	 5.6870
 0.8720	 5.6947
 0.8710	 5.7812
 0.8700	 5.7400
 0.8690	 5.8481
 0.8680	 5.7715
 0.8670	 5.8463
 0.8660	 5.8305
 0.8650	 5.8830
 0.8640	 5.8509
 0.8630	 5.9132
 0.8620	 5.9653
 0.8610	 5.9898
 0.8600	 6.3568
 0.8590	 6.4927
 0.8580	 6.5164
 0.8570	 6.5473
 0.8560	 6.5599
 0.8550	 6.5920
 0.8540	 6.6084
 0.8530	 6.6362
 0.8520	 6.6411
 0.8510	 6.6728
 0.8500	 6.6981
 0.8490	 6.7205
 0.8480	 6.7334
 0.8470	 6.7604
 0.8460	 6.7798
 0.8450	 6.8003
 0.8440	 6.8212
 0.8430	 6.8323
 0.8420	 6.8424
 0.8410	 6.8700
 0.8400	 6.8930
 0.8390	 6.9243
 0.8380	 6.9361
 0.8370	 6.9592
 0.8360	 6.9776
 0.8350	 6.9923
 0.8340	 7.0093
 0.8330	 7.0301
 0.8320	 7.0534
 0.8310	 7.0652
 0.8300	 7.0834
 0.8290	 7.0949
 0.8280	 7.1069
 0.8270	 7.1331
 0.8260	 7.1438
 0.8250	 7.1590
 0.8240	 7.1739
 0.8230	 7.1877
 0.8220	 7.2115
 0.8210	 7.2224
 0.8200	 7.2414
 0.8190	 7.2547
 0.8180	 7.2706
 0.8170	 7.2854
 0.8160	 7.2865
 0.8150	 7.3121
 0.8140	 7.3226
 0.8130	 7.3231
 0.8120	 7.3332
 0.8110	 7.3496
 0.8100	 7.3586
 0.8090	 7.3775
 0.8080	 7.3894
 0.8070	 7.3918
 0.8060	 7.4091
 0.8050	 7.4166
 0.8040	 7.4238
 0.8030	 7.4384
 0.8020	 7.4483
 0.8010	 7.4510
 0.8000	 7.4604
 0.7990	 7.4663
 0.7980	 7.4708
 0.7970	 7.4797
 0.7960	 7.4862
 0.7950	 7.4816
 0.7940	 7.4986
 0.7930	 7.5014
 0.7920	 7.5055
 0.7910	 7.5047
 0.7900	 7.5103
 0.7890	 7.5195
 0.7880	 7.5252
 0.7870	 7.5342
 0.7860	 7.5322
 0.7850	 7.5354
 0.7840	 7.5303
 0.7830	 7.5411
 0.7820	 7.5463
 0.7810	 7.5404
 0.7800	 7.5355
 0.7790	 7.5377
 0.7780	 7.5400
 0.7770	 7.5458
 0.7760	 7.5454
 0.7750	 7.5501
 0.7740	 7.5434
 0.7730	 7.5460
 0.7720	 7.5515
 0.7710	 7.5547
 0.7700	 7.5518
 0.7690	 7.5559
 0.7680	 7.5503
 0.7670	 7.5544
 0.7660	 7.5531
 0.7650	 7.5571
 0.7640	 7.5557
 0.7630	 7.5510
 0.7620	 7.5560
 0.7610	 7.5591
 0.7600	 7.5547
 0.7590	 7.5529
 0.7580	 7.5531
 0.7570	 7.5543
 0.7560	 7.5533
 0.7550	 7.5511
 0.7540	 7.5490
 0.7530	 7.5500
 0.7520	 7.5556
 0.7510	 7.5481
 0.7500	 7.5564
 0.7490	 7.5536
 0.7480	 7.5519
 0.7470	 7.5473
 0.7460	 7.5477
 0.7450	 7.5532
 0.7440	 7.5488
 0.7430	 7.5502
 0.7420	 7.5516
 0.7410	 7.5525
 0.7400	 7.5551
 0.7390	 7.5471
 0.7380	 7.5507
 0.7370	 7.5486
 0.7360	 7.5458
 0.7350	 7.5514
 0.7340	 7.5488
 0.7330	 7.5499
 0.7320	 7.5492
 0.7310	 7.5540
 0.7300	 7.5522
 0.7290	 7.5494
 0.7280	 7.5506
 0.7270	 7.5515
 0.7260	 7.5573
 0.7250	 7.5567
 0.7240	 7.5581
 0.7230	 7.5552
 0.7220	 7.5580
 0.7210	 7.5611
 0.7200	 7.5595
 0.7190	 7.5565
 0.7180	 7.5632
 0.7170	 7.5627
 0.7160	 7.5668
 0.7150	 7.5655
 0.7140	 7.5668
 0.7130	 7.5704
 0.7120	 7.5744
 0.7110	 7.5756
 0.7100	 7.5727
 0.7090	 7.5729
 0.7080	 7.5789
 0.7070	 7.5831
 0.7060	 7.5854
 0.7050	 7.5877
 0.7040	 7.5857
 0.7030	 7.5891
 0.7020	 7.5910
 0.7010	 7.5950
 0.7000	 7.5990
 0.6990	 7.6016
 0.6980	 7.6050
 0.6970	 7.6096
 0.6960	 7.6134
 0.6950	 7.6133
 0.6940	 7.6174
 0.6930	 7.6199
 0.6920	 7.6240
 0.6910	 7.6318
 0.6900	 7.6317
 0.6890	 7.6351
 0.6880	 7.6408
 0.6870	 7.6427
 0.6860	 7.6461
 0.6850	 7.6506
 0.6840	 7.6542
 0.6830	 7.6588
 0.6820	 7.6642
 0.6810	 7.6690
 0.6800	 7.6752
 0.6790	 7.6772
 0.6780	 7.6818
 0.6770	 7.6879
 0.6760	 7.6942
 0.6750	 7.7002
 0.6740	 7.7014
 0.6730	 7.7040
 0.6720	 7.7135
 0.6710	 7.7138
 0.6700	 7.7174
 0.6690	 7.7238
 0.6680	 7.7297
 0.6670	 7.7360
 0.6660	 7.7418
 0.6650	 7.7441
 0.6640	 7.7467
 0.6630	 7.7527
 0.6620	 7.7610
 0.6610	 7.7636
 0.6600	 7.7682
 0.6590	 7.7770
 0.6580	 7.7793
 0.6570	 7.7849
 0.6560	 7.7924
 0.6550	 7.7963
 0.6540	 7.8005
 0.6530	 7.8058
 0.6520	 7.8141
 0.6510	 7.8189
 0.6500	 7.8225
 0.6490	 7.8295
 0.6480	 7.8351
 0.6470	 7.8384
 0.6460	 7.8450
 0.6450	 7.8505
 0.6440	 7.8578
 0.6430	 7.8618
 0.6420	 7.8645
 0.6410	 7.8705
 0.6400	 7.8773
 0.6390	 7.8804
 0.6380	 7.8869
 0.6370	 7.8954
 0.6360	 7.8982
 0.6350	 7.9002
 0.6340	 7.9049
 0.6330	 7.9098
 0.6320	 7.9143
 0.6310	 7.9183
 0.6300	 7.9264
 0.6290	 7.9314
 0.6280	 7.9367
 0.6270	 7.9422
 0.6260	 7.9447
 0.6250	 7.9501
 0.6240	 7.9543
 0.6230	 7.9584
 0.6220	 7.9627
 0.6210	 7.9693
 0.6200	 7.9759
 0.6190	 7.9770
 0.6180	 7.9800
 0.6170	 7.9851
 0.6160	 7.9903
 0.6150	 7.9958
 0.6140	 8.0011
 0.6130	 8.0047
 0.6120	 8.0095
 0.6110	 8.0143
 0.6100	 8.0206
 0.6090	 8.0269
 0.6080	 8.0319
 0.6070	 8.0333
 0.6060	 8.0376
 0.6050	 8.0418
 0.6040	 8.0454
 0.6030	 8.0515
 0.6020	 8.0545
 0.6010	 8.0589
 0.6000	 8.0624
 0.5990	 8.0689
 0.5980	 8.0755
 0.5970	 8.0834
 0.5960	 8.0872
 0.5950	 8.0906
 0.5940	 8.0937
 0.5930	 8.0980
 0.5920	 8.1000
 0.5910	 8.1031
 0.5900	 8.1051
 0.5890	 8.1056
 0.5880	 8.1083
 0.5870	 8.1095
 0.5860	 8.1097
 0.5850	 8.1107
 0.5840	 8.1132
 0.5830	 8.1158
 0.5820	 8.1170
 0.5810	 8.1118
 0.5800	 8.1147
 0.5790	 8.1169
 0.5780	 8.1192
 0.5770	 8.1140
 0.5760	 8.1123
 0.5750	 8.1127
 0.5740	 8.1112
 0.5730	 8.1083
 0.5720	 8.1074
 0.5710	 8.1067
 0.5700	 8.1024
 0.5690	 8.0978
 0.5680	 8.0923
 0.5670	 8.0875
 0.5660	 8.0811
 0.5650	 8.0739
 0.5640	 8.0691
 0.5630	 8.0565
 0.5620	 8.0447
 0.5610	 8.0448
 0.5600	 8.0345
 0.5590	 8.0198
 0.5580	 8.0011
 0.5570	 7.9883
 0.5560	 7.9719
 0.5550	 7.9535
 0.5540	 7.9419
 0.5530	 7.9355
 0.5520	 7.9329
 0.5510	 7.9275
 0.5500	 7.9273
 0.5490	 7.9320
 0.5480	 7.9370
 0.5470	 7.9422
 0.5460	 7.9469
 0.5450	 7.9500
 0.5440	 7.9521
 0.5430	 7.9555
 0.5420	 7.9548
 0.5410	 7.9533
 0.5400	 7.9514
 0.5390	 7.9478
 0.5380	 7.9425
 0.5370	 7.9333
 0.5360	 7.9232
 0.5350	 7.9133
 0.5340	 7.9035
 0.5330	 7.8911
 0.5320	 7.8791
 0.5310	 7.8666
 0.5300	 7.8535
 0.5290	 7.8394
 0.5280	 7.8280
 0.5270	 7.8145
 0.5260	 7.8013
 0.5250	 7.7879
 0.5240	 7.7736
 0.5230	 7.7541
 0.5220	 7.7398
 0.5210	 7.7170
 0.5200	 7.6959
 0.5190	 7.6725
 0.5180	 7.6469
 0.5170	 7.6179
 0.5160	 7.5882
 0.5150	 7.5581
 0.5140	 7.5238
 0.5130	 7.4927
 0.5120	 7.4673
 0.5110	 7.4461
 0.5100	 7.4336
 0.5090	 7.4287
 0.5080	 7.4303
 0.5070	 7.4441
 0.5060	 7.4461
 0.5050	 7.4581
 0.5040	 7.4625
 0.5030	 7.4645
 0.5020	 7.4620
 0.5010	 7.4611
 0.5000	 7.4481
 0.4990	 7.4455
 0.4980	 7.4307
 0.4970	 7.4154
 0.4960	 7.3987
 0.4950	 7.3846
 0.4940	 7.3646
 0.4930	 7.3523
 0.4920	 7.3371
 0.4910	 7.3190
 0.4900	 7.3023
 0.4890	 7.2953
 0.4880	 7.2846
 0.4870	 7.2762
 0.4860	 7.2626
 0.4850	 7.2504
 0.4840	 7.2445
 0.4830	 7.2302
 0.4820	 7.2141
 0.4810	 7.1920
 0.4800	 7.1717
 0.4790	 7.1464
 0.4780	 7.1256
 0.4770	 7.1102
 0.4760	 7.0979
 0.4750	 7.0829
 0.4740	 7.0766
 0.4730	 7.0738
 0.4720	 7.0703
 0.4710	 7.0686
 0.4700	 7.0584
 0.4690	 7.0508
 0.4680	 7.0390
 0.4670	 7.0334
 0.4660	 7.0195
 0.4650	 7.0091
 0.4640	 6.9934
 0.4630	 6.9858
 0.4620	 6.9759
 0.4610	 6.9647
 0.4600	 6.9499
 0.4590	 6.9396
 0.4580	 6.9261
 0.4570	 6.9154
 0.4560	 6.9029
 0.4550	 6.8854
 0.4540	 6.8784
 0.4530	 6.8632
 0.4520	 6.8536
 0.4510	 6.8459
 0.4500	 6.8322
 0.4490	 6.8179
 0.4480	 6.8059
 0.4470	 6.7953
 0.4460	 6.7821
 0.4450	 6.7660
 0.4440	 6.7482
 0.4430	 6.7279
 0.4420	 6.7087
 0.4410	 6.6912
 0.4400	 6.6780
 0.4390	 6.6607
 0.4380	 6.6429
 0.4370	 6.6236
 0.4360	 6.6109
 0.4350	 6.5984
 0.4340	 6.5824
 0.4330	 6.5683
 0.4320	 6.5556
 0.4310	 6.5445
 0.4300	 6.5386
 0.4290	 6.5243
 0.4280	 6.5097
 0.4270	 6.4958
 0.4260	 6.4770
 0.4250	 6.4611
 0.4240	 6.4438
 0.4230	 6.4280
 0.4220	 6.4101
 0.4210	 6.3942
 0.4200	 6.3803
 0.4190	 6.3681
 0.4180	 6.3568
 0.4170	 6.3474
 0.4160	 6.3360
 0.4150	 6.3238
 0.4140	 6.3120
 0.4130	 6.2988
 0.4120	 6.2850
 0.4110	 6.2739
 0.4100	 6.2638
 0.4090	 6.2492
 0.4080	 6.2359
 0.4070	 6.2240
 0.4060	 6.2033
 0.4050	 6.1883
 0.4040	 6.1696
 0.4030	 6.1503
 0.4020	 6.1309
 0.4010	 6.1134
 0.4000	 6.0918
