Name: Smithsonite PbCO_3
Type: Mineral
Class: Carbonate
Subclass: None
Particle Size: Medium
Sample No.: C-11A
Owner: JPL
Wavelength Range: VSWIR
Origin: None.
Collection Date: N/A
Description: Particle size was 45-125um.Collected by:  JPL Original ASTER Spectral Library name was jpl.perkin.mineral.carbonate.none.medium.c11a.spectrum.txt
Measurement: Hemispherical reflectance
First Column: X
Second Column: Y
X Units: Wavelength (micrometers)
Y Units:Reflectance (percent)
First X Value:  2.5000
Last X Value:  0.4000
Number of X Values: 2101
Additional Information: mineral.carbonate.none.medium.vswir.c-11a.jpl.perkin.ancillary.txt

 2.5000	43.3032
 2.4990	43.5523
 2.4980	43.5687
 2.4970	43.7050
 2.4960	43.5029
 2.4950	43.9200
 2.4940	44.0792
 2.4930	44.2922
 2.4920	44.3288
 2.4910	44.4813
 2.4900	44.5777
 2.4890	44.7840
 2.4880	45.0644
 2.4870	45.3633
 2.4860	45.4374
 2.4850	45.7747
 2.4840	45.8450
 2.4830	46.0170
 2.4820	46.2660
 2.4810	46.6107
 2.4800	46.6801
 2.4790	47.1697
 2.4780	47.2989
 2.4770	47.5469
 2.4760	47.8558
 2.4750	47.9734
 2.4740	48.1256
 2.4730	48.3857
 2.4720	48.7880
 2.4710	49.1077
 2.4700	49.3159
 2.4690	49.7302
 2.4680	49.8318
 2.4670	50.1604
 2.4660	50.2957
 2.4650	50.8224
 2.4640	50.9329
 2.4630	51.2890
 2.4620	51.4035
 2.4610	51.7976
 2.4600	51.8786
 2.4590	52.2717
 2.4580	52.4617
 2.4570	52.7753
 2.4560	53.0651
 2.4550	53.1579
 2.4540	53.4089
 2.4530	53.6282
 2.4520	53.7700
 2.4510	53.9588
 2.4500	54.1502
 2.4490	54.3771
 2.4480	54.5456
 2.4470	54.8235
 2.4460	54.9021
 2.4450	55.1955
 2.4440	55.3448
 2.4430	55.4819
 2.4420	55.5421
 2.4410	55.8752
 2.4400	56.0701
 2.4390	56.1206
 2.4380	56.2207
 2.4370	56.4130
 2.4360	56.5052
 2.4350	56.6498
 2.4340	56.8497
 2.4330	57.1103
 2.4320	57.1996
 2.4310	57.3520
 2.4300	57.4505
 2.4290	57.5834
 2.4280	57.7120
 2.4270	57.8747
 2.4260	57.9307
 2.4250	58.0920
 2.4240	58.2234
 2.4230	58.3662
 2.4220	58.5120
 2.4210	58.6410
 2.4200	58.6945
 2.4190	58.8185
 2.4180	58.9718
 2.4170	59.0874
 2.4160	59.2248
 2.4150	59.4051
 2.4140	59.4375
 2.4130	59.5458
 2.4120	59.6331
 2.4110	59.7813
 2.4100	59.8462
 2.4090	59.8878
 2.4080	59.9106
 2.4070	59.9998
 2.4060	60.0148
 2.4050	60.0196
 2.4040	60.0777
 2.4030	60.0596
 2.4020	60.0008
 2.4010	60.0080
 2.4000	59.9635
 2.3990	59.9001
 2.3980	59.7028
 2.3970	59.5588
 2.3960	59.4301
 2.3950	59.2765
 2.3940	59.0600
 2.3930	58.7709
 2.3920	58.5148
 2.3910	58.2097
 2.3900	57.8344
 2.3890	57.4851
 2.3880	57.0659
 2.3870	56.7191
 2.3860	56.3195
 2.3850	55.9232
 2.3840	55.4406
 2.3830	55.0636
 2.3820	54.6760
 2.3810	54.2568
 2.3800	53.7945
 2.3790	53.3256
 2.3780	52.9521
 2.3770	52.5990
 2.3760	52.2396
 2.3750	51.8985
 2.3740	51.6084
 2.3730	51.3584
 2.3720	51.1003
 2.3710	50.8616
 2.3700	50.6480
 2.3690	50.5537
 2.3680	50.4139
 2.3670	50.3032
 2.3660	50.2124
 2.3650	50.1651
 2.3640	50.1112
 2.3630	50.0925
 2.3620	50.0825
 2.3610	50.0896
 2.3600	50.0639
 2.3590	50.1174
 2.3580	50.2032
 2.3570	50.2588
 2.3560	50.3648
 2.3550	50.4179
 2.3540	50.5046
 2.3530	50.5908
 2.3520	50.6592
 2.3510	50.8175
 2.3500	50.9961
 2.3490	51.0482
 2.3480	51.1477
 2.3470	51.2909
 2.3460	51.4270
 2.3450	51.5100
 2.3440	51.6375
 2.3430	51.7065
 2.3420	51.7376
 2.3410	51.8351
 2.3400	51.9584
 2.3390	52.0488
 2.3380	52.1266
 2.3370	52.2180
 2.3360	52.3012
 2.3350	52.3222
 2.3340	52.3766
 2.3330	52.5107
 2.3320	52.5462
 2.3310	52.5742
 2.3300	52.6620
 2.3290	52.7390
 2.3280	52.8154
 2.3270	52.8864
 2.3260	52.9523
 2.3250	53.0041
 2.3240	53.0698
 2.3230	53.1834
 2.3220	53.3031
 2.3210	53.3121
 2.3200	53.4897
 2.3190	53.6426
 2.3180	53.7426
 2.3170	53.8279
 2.3160	53.9659
 2.3150	54.1257
 2.3140	54.2855
 2.3130	54.3994
 2.3120	54.5234
 2.3110	54.6378
 2.3100	54.7867
 2.3090	54.9440
 2.3080	55.1420
 2.3070	55.2583
 2.3060	55.4181
 2.3050	55.5959
 2.3040	55.7681
 2.3030	55.9865
 2.3020	56.1237
 2.3010	56.3126
 2.3000	56.5233
 2.2990	56.7208
 2.2980	56.8774
 2.2970	57.0702
 2.2960	57.3174
 2.2950	57.4922
 2.2940	57.6741
 2.2930	57.8571
 2.2920	58.0780
 2.2910	58.2300
 2.2900	58.4102
 2.2890	58.6001
 2.2880	58.8366
 2.2870	59.0391
 2.2860	59.2415
 2.2850	59.4200
 2.2840	59.6391
 2.2830	59.8557
 2.2820	59.9976
 2.2810	60.1559
 2.2800	60.3475
 2.2790	60.5279
 2.2780	60.6763
 2.2770	60.9196
 2.2760	61.0661
 2.2750	61.2007
 2.2740	61.3479
 2.2730	61.5058
 2.2720	61.6819
 2.2710	61.8889
 2.2700	62.0204
 2.2690	62.1875
 2.2680	62.3493
 2.2670	62.5173
 2.2660	62.6523
 2.2650	62.8238
 2.2640	63.0679
 2.2630	63.1740
 2.2620	63.3049
 2.2610	63.4257
 2.2600	63.5790
 2.2590	63.8010
 2.2580	63.9278
 2.2570	64.0034
 2.2560	64.1015
 2.2550	64.3097
 2.2540	64.5005
 2.2530	64.6709
 2.2520	64.7775
 2.2510	64.9469
 2.2500	65.0667
 2.2490	65.1877
 2.2480	65.3949
 2.2470	65.5744
 2.2460	65.5920
 2.2450	65.7910
 2.2440	65.9275
 2.2430	66.0076
 2.2420	66.1386
 2.2410	66.2462
 2.2400	66.3991
 2.2390	66.5510
 2.2380	66.6925
 2.2370	66.7943
 2.2360	66.8696
 2.2350	66.9562
 2.2340	67.1174
 2.2330	67.1775
 2.2320	67.3006
 2.2310	67.4049
 2.2300	67.5410
 2.2290	67.6331
 2.2280	67.8443
 2.2270	67.8860
 2.2260	68.0362
 2.2250	68.0891
 2.2240	68.2209
 2.2230	68.3425
 2.2220	68.4826
 2.2210	68.4945
 2.2200	68.6099
 2.2190	68.7075
 2.2180	68.8002
 2.2170	68.8576
 2.2160	69.0272
 2.2150	69.0690
 2.2140	69.2235
 2.2130	69.2008
 2.2120	69.4126
 2.2110	69.3133
 2.2100	69.5082
 2.2090	69.5360
 2.2080	69.7179
 2.2070	69.7058
 2.2060	69.7750
 2.2050	69.8695
 2.2040	69.8883
 2.2030	70.0016
 2.2020	70.0862
 2.2010	70.0368
 2.2000	70.1298
 2.1990	70.1225
 2.1980	70.2230
 2.1970	70.3084
 2.1960	70.2814
 2.1950	70.2777
 2.1940	70.4524
 2.1930	70.4393
 2.1920	70.5036
 2.1910	70.5094
 2.1900	70.5942
 2.1890	70.5397
 2.1880	70.5422
 2.1870	70.5953
 2.1860	70.6442
 2.1850	70.5996
 2.1840	70.5709
 2.1830	70.6036
 2.1820	70.6066
 2.1810	70.5711
 2.1800	70.5399
 2.1790	70.5609
 2.1780	70.6094
 2.1770	70.5225
 2.1760	70.5530
 2.1750	70.5509
 2.1740	70.4995
 2.1730	70.4163
 2.1720	70.4648
 2.1710	70.4114
 2.1700	70.3925
 2.1690	70.4052
 2.1680	70.3958
 2.1670	70.4559
 2.1660	70.4021
 2.1650	70.4441
 2.1640	70.4490
 2.1630	70.5004
 2.1620	70.5476
 2.1610	70.5089
 2.1600	70.6192
 2.1590	70.6361
 2.1580	70.6464
 2.1570	70.6178
 2.1560	70.6986
 2.1550	70.7362
 2.1540	70.7877
 2.1530	70.8874
 2.1520	70.8996
 2.1510	70.9430
 2.1500	71.0210
 2.1490	71.0177
 2.1480	71.1365
 2.1470	71.1262
 2.1460	71.1940
 2.1450	71.2407
 2.1440	71.2541
 2.1430	71.2990
 2.1420	71.4884
 2.1410	71.4874
 2.1400	71.5023
 2.1390	71.4651
 2.1380	71.5142
 2.1370	71.5444
 2.1360	71.5410
 2.1350	71.6010
 2.1340	71.6193
 2.1330	71.6004
 2.1320	71.6330
 2.1310	71.6441
 2.1300	71.6568
 2.1290	71.5931
 2.1280	71.5470
 2.1270	71.5327
 2.1260	71.5961
 2.1250	71.5549
 2.1240	71.4502
 2.1230	71.4746
 2.1220	71.4678
 2.1210	71.4730
 2.1200	71.3950
 2.1190	71.3433
 2.1180	71.3309
 2.1170	71.2837
 2.1160	71.2495
 2.1150	71.2491
 2.1140	71.1731
 2.1130	71.1125
 2.1120	71.1300
 2.1110	71.0509
 2.1100	70.9820
 2.1090	70.9980
 2.1080	70.9730
 2.1070	70.9532
 2.1060	70.8943
 2.1050	70.8734
 2.1040	70.9053
 2.1030	70.8677
 2.1020	70.7956
 2.1010	70.7810
 2.1000	70.7689
 2.0990	70.7012
 2.0980	70.7265
 2.0970	70.7562
 2.0960	70.7720
 2.0950	70.7450
 2.0940	70.7418
 2.0930	70.7743
 2.0920	70.7506
 2.0910	70.7913
 2.0900	70.8486
 2.0890	70.8730
 2.0880	70.8323
 2.0870	70.7962
 2.0860	70.7980
 2.0850	70.8406
 2.0840	70.8581
 2.0830	70.8437
 2.0820	70.8209
 2.0810	70.8639
 2.0800	70.8813
 2.0790	70.8132
 2.0780	70.8328
 2.0770	70.8911
 2.0760	70.8654
 2.0750	70.8509
 2.0740	70.8612
 2.0730	70.8636
 2.0720	70.8854
 2.0710	70.8976
 2.0700	70.9038
 2.0690	70.9003
 2.0680	70.8662
 2.0670	70.8346
 2.0660	70.8405
 2.0650	70.8478
 2.0640	70.8786
 2.0630	70.8994
 2.0620	70.8296
 2.0610	70.8335
 2.0600	70.8737
 2.0590	70.8944
 2.0580	70.8668
 2.0570	70.8959
 2.0560	70.8845
 2.0550	70.8598
 2.0540	70.8455
 2.0530	70.8855
 2.0520	70.8899
 2.0510	70.8694
 2.0500	70.8754
 2.0490	70.8509
 2.0480	70.8465
 2.0470	70.8635
 2.0460	70.8448
 2.0450	70.8440
 2.0440	70.8639
 2.0430	70.8442
 2.0420	70.8739
 2.0410	70.8599
 2.0400	70.8286
 2.0390	70.8341
 2.0380	70.7982
 2.0370	70.7853
 2.0360	70.7461
 2.0350	70.7201
 2.0340	70.6816
 2.0330	70.6616
 2.0320	70.6647
 2.0310	70.6444
 2.0300	70.5582
 2.0290	70.5546
 2.0280	70.5327
 2.0270	70.4596
 2.0260	70.3978
 2.0250	70.3578
 2.0240	70.3348
 2.0230	70.3008
 2.0220	70.1405
 2.0210	70.1028
 2.0200	70.0293
 2.0190	69.8941
 2.0180	69.8230
 2.0170	69.7174
 2.0160	69.5871
 2.0150	69.5544
 2.0140	69.4256
 2.0130	69.3454
 2.0120	69.2871
 2.0110	69.2833
 2.0100	69.2460
 2.0090	69.2250
 2.0080	69.2906
 2.0070	69.3025
 2.0060	69.3000
 2.0050	69.3124
 2.0040	69.3285
 2.0030	69.3916
 2.0020	69.4282
 2.0010	69.4967
 2.0000	69.5846
 1.9990	69.6928
 1.9980	69.6852
 1.9970	69.7899
 1.9960	69.8229
 1.9950	69.7836
 1.9940	69.8000
 1.9930	69.9452
 1.9920	69.9647
 1.9910	69.9952
 1.9900	70.0225
 1.9890	70.0353
 1.9880	70.0801
 1.9870	70.0883
 1.9860	70.1291
 1.9850	70.1437
 1.9840	70.1457
 1.9830	70.2111
 1.9820	70.1709
 1.9810	70.1625
 1.9800	70.2302
 1.9790	70.2429
 1.9780	70.2583
 1.9770	70.3052
 1.9760	70.3388
 1.9750	70.3882
 1.9740	70.4207
 1.9730	70.3853
 1.9720	70.4132
 1.9710	70.4668
 1.9700	70.4746
 1.9690	70.5086
 1.9680	70.5355
 1.9670	70.5543
 1.9660	70.6201
 1.9650	70.6309
 1.9640	70.6297
 1.9630	70.6800
 1.9620	70.7319
 1.9610	70.7288
 1.9600	70.7871
 1.9590	70.8003
 1.9580	70.8184
 1.9570	70.8631
 1.9560	70.8787
 1.9550	70.9862
 1.9540	70.9751
 1.9530	71.0571
 1.9520	71.0806
 1.9510	71.1006
 1.9500	71.1332
 1.9490	71.2026
 1.9480	71.2363
 1.9470	71.2872
 1.9460	71.3583
 1.9450	71.3459
 1.9440	71.4096
 1.9430	71.4349
 1.9420	71.4760
 1.9410	71.5072
 1.9400	71.5498
 1.9390	71.5609
 1.9380	71.6383
 1.9370	71.7112
 1.9360	71.7248
 1.9350	71.7782
 1.9340	71.8036
 1.9330	71.8497
 1.9320	71.9293
 1.9310	71.9629
 1.9300	72.0727
 1.9290	72.1661
 1.9280	72.1441
 1.9270	72.2815
 1.9260	72.3272
 1.9250	72.4503
 1.9240	72.4621
 1.9230	72.5600
 1.9220	72.6780
 1.9210	72.8054
 1.9200	72.8127
 1.9190	72.9866
 1.9180	73.0297
 1.9170	73.0747
 1.9160	73.2351
 1.9150	73.3466
 1.9140	73.3693
 1.9130	73.4544
 1.9120	73.5105
 1.9110	73.6150
 1.9100	73.6991
 1.9090	73.7750
 1.9080	73.8200
 1.9070	73.8872
 1.9060	73.9712
 1.9050	73.9162
 1.9040	73.9873
 1.9030	73.9725
 1.9020	73.9698
 1.9010	74.0313
 1.9000	73.9684
 1.8990	73.9793
 1.8980	73.9448
 1.8970	73.9400
 1.8960	73.8318
 1.8950	73.8761
 1.8940	73.8986
 1.8930	73.9787
 1.8920	74.0122
 1.8910	74.0559
 1.8900	74.2017
 1.8890	74.3372
 1.8880	74.4839
 1.8870	74.5356
 1.8860	74.6686
 1.8850	74.8415
 1.8840	74.9867
 1.8830	75.1152
 1.8820	75.2705
 1.8810	75.3982
 1.8800	75.5330
 1.8790	75.6191
 1.8780	75.7541
 1.8770	75.8478
 1.8760	75.9535
 1.8750	76.0676
 1.8740	76.0628
 1.8730	76.2873
 1.8720	76.3595
 1.8710	76.5560
 1.8700	76.5692
 1.8690	76.5934
 1.8680	76.6752
 1.8670	76.7914
 1.8660	76.8588
 1.8650	76.9393
 1.8640	76.9267
 1.8630	77.0086
 1.8620	77.0481
 1.8610	77.0974
 1.8600	77.1018
 1.8590	77.1925
 1.8580	77.2645
 1.8570	77.2853
 1.8560	77.3473
 1.8550	77.4628
 1.8540	77.5258
 1.8530	77.5590
 1.8520	77.5887
 1.8510	77.6251
 1.8500	77.7255
 1.8490	77.7485
 1.8480	77.8140
 1.8470	77.8312
 1.8460	77.8837
 1.8450	77.9538
 1.8440	78.0031
 1.8430	78.0533
 1.8420	78.1110
 1.8410	78.0876
 1.8400	78.1704
 1.8390	78.2876
 1.8380	78.2583
 1.8370	78.3304
 1.8360	78.3808
 1.8350	78.3998
 1.8340	78.4078
 1.8330	78.4962
 1.8320	78.5472
 1.8310	78.5893
 1.8300	78.6368
 1.8290	78.6125
 1.8280	78.6760
 1.8270	78.6872
 1.8260	78.7851
 1.8250	78.8218
 1.8240	78.8012
 1.8230	78.8661
 1.8220	78.9217
 1.8210	78.9123
 1.8200	78.9844
 1.8190	79.0176
 1.8180	79.0381
 1.8170	79.1042
 1.8160	79.1495
 1.8150	79.1408
 1.8140	79.1826
 1.8130	79.2487
 1.8120	79.2757
 1.8110	79.2808
 1.8100	79.3097
 1.8090	79.3933
 1.8080	79.4012
 1.8070	79.3956
 1.8060	79.3860
 1.8050	79.3963
 1.8040	79.4550
 1.8030	79.5166
 1.8020	79.5366
 1.8010	79.5495
 1.8000	79.5760
 1.7990	79.5813
 1.7980	79.5444
 1.7970	79.5798
 1.7960	79.6322
 1.7950	79.5773
 1.7940	79.5814
 1.7930	79.6618
 1.7920	79.6787
 1.7910	79.6533
 1.7900	79.6374
 1.7890	79.6382
 1.7880	79.6461
 1.7870	79.6257
 1.7860	79.6407
 1.7850	79.6276
 1.7840	79.5983
 1.7830	79.6093
 1.7820	79.6064
 1.7810	79.5846
 1.7800	79.5909
 1.7790	79.6195
 1.7780	79.5922
 1.7770	79.5904
 1.7760	79.6055
 1.7750	79.5773
 1.7740	79.5688
 1.7730	79.6188
 1.7720	79.6207
 1.7710	79.6264
 1.7700	79.6366
 1.7690	79.6335
 1.7680	79.6615
 1.7670	79.6597
 1.7660	79.6731
 1.7650	79.6381
 1.7640	79.6423
 1.7630	79.6906
 1.7620	79.6985
 1.7610	79.6767
 1.7600	79.7344
 1.7590	79.7850
 1.7580	79.7542
 1.7570	79.6933
 1.7560	79.7440
 1.7550	79.8235
 1.7540	79.9021
 1.7530	79.8847
 1.7520	79.8654
 1.7510	79.8712
 1.7500	79.8700
 1.7490	79.9089
 1.7480	79.9345
 1.7470	79.9233
 1.7460	79.9977
 1.7450	80.0292
 1.7440	80.0573
 1.7430	80.0174
 1.7420	80.0411
 1.7410	80.0729
 1.7400	80.1261
 1.7390	80.1634
 1.7380	80.1983
 1.7370	80.1603
 1.7360	80.1168
 1.7350	80.1833
 1.7340	80.2254
 1.7330	80.2268
 1.7320	80.2134
 1.7310	80.2811
 1.7300	80.2750
 1.7290	80.3453
 1.7280	80.3821
 1.7270	80.3814
 1.7260	80.4312
 1.7250	80.4497
 1.7240	80.4685
 1.7230	80.4294
 1.7220	80.4924
 1.7210	80.5067
 1.7200	80.4957
 1.7190	80.5237
 1.7180	80.4932
 1.7170	80.5978
 1.7160	80.5660
 1.7150	80.6401
 1.7140	80.6837
 1.7130	80.6178
 1.7120	80.6567
 1.7110	80.6746
 1.7100	80.7619
 1.7090	80.7138
 1.7080	80.7471
 1.7070	80.7284
 1.7060	80.7617
 1.7050	80.7822
 1.7040	80.7979
 1.7030	80.8431
 1.7020	80.8094
 1.7010	80.8773
 1.7000	80.9150
 1.6990	80.8747
 1.6980	80.9396
 1.6970	80.9351
 1.6960	81.0035
 1.6950	80.9597
 1.6940	80.9877
 1.6930	80.9765
 1.6920	80.9864
 1.6910	81.0102
 1.6900	81.0970
 1.6890	81.0356
 1.6880	81.0009
 1.6870	81.0610
 1.6860	81.0868
 1.6850	81.0741
 1.6840	81.1215
 1.6830	81.1306
 1.6820	81.1590
 1.6810	81.1688
 1.6800	81.1920
 1.6790	81.1984
 1.6780	81.2348
 1.6770	81.2696
 1.6760	81.2095
 1.6750	81.2703
 1.6740	81.2575
 1.6730	81.3332
 1.6720	81.2352
 1.6710	81.2293
 1.6700	81.3044
 1.6690	81.2926
 1.6680	81.3269
 1.6670	81.2804
 1.6660	81.4183
 1.6650	81.3901
 1.6640	81.3883
 1.6630	81.3368
 1.6620	81.3662
 1.6610	81.3406
 1.6600	81.4307
 1.6590	81.4541
 1.6580	81.4510
 1.6570	81.4521
 1.6560	81.4316
 1.6550	81.3845
 1.6540	81.4726
 1.6530	81.4924
 1.6520	81.4616
 1.6510	81.4512
 1.6500	81.4938
 1.6490	81.4811
 1.6480	81.5008
 1.6470	81.5275
 1.6460	81.5518
 1.6450	81.5752
 1.6440	81.6033
 1.6430	81.6376
 1.6420	81.6161
 1.6410	81.6249
 1.6400	81.7055
 1.6390	81.5967
 1.6380	81.6460
 1.6370	81.7415
 1.6360	81.6401
 1.6350	81.7552
 1.6340	81.7967
 1.6330	81.6736
 1.6320	81.8034
 1.6310	81.7990
 1.6300	81.7358
 1.6290	81.8625
 1.6280	81.7334
 1.6270	81.8051
 1.6260	81.7546
 1.6250	81.7751
 1.6240	81.8476
 1.6230	81.8204
 1.6220	81.8393
 1.6210	81.7897
 1.6200	81.9224
 1.6190	81.9069
 1.6180	81.9318
 1.6170	81.9346
 1.6160	81.9237
 1.6150	81.9237
 1.6140	81.9050
 1.6130	81.9424
 1.6120	81.9477
 1.6110	81.9927
 1.6100	81.9722
 1.6090	81.9811
 1.6080	82.0428
 1.6070	81.9750
 1.6060	82.0518
 1.6050	82.0624
 1.6040	82.0917
 1.6030	82.0492
 1.6020	82.0336
 1.6010	82.0293
 1.6000	82.1103
 1.5990	82.0797
 1.5980	82.1882
 1.5970	82.1048
 1.5960	82.0665
 1.5950	82.1329
 1.5940	82.1493
 1.5930	82.0625
 1.5920	82.1166
 1.5910	82.0965
 1.5900	82.0805
 1.5890	82.0886
 1.5880	82.1475
 1.5870	82.0346
 1.5860	82.0494
 1.5850	82.0977
 1.5840	82.0396
 1.5830	82.0907
 1.5820	82.0189
 1.5810	82.0482
 1.5800	82.0056
 1.5790	81.9735
 1.5780	82.0040
 1.5770	81.9963
 1.5760	82.0109
 1.5750	81.9801
 1.5740	82.0845
 1.5730	82.0416
 1.5720	82.0680
 1.5710	82.0589
 1.5700	82.0316
 1.5690	82.0713
 1.5680	82.0822
 1.5670	82.0784
 1.5660	82.0971
 1.5650	82.1459
 1.5640	82.1844
 1.5630	82.1351
 1.5620	82.1191
 1.5610	82.1244
 1.5600	82.1341
 1.5590	82.1128
 1.5580	82.1256
 1.5570	82.1659
 1.5560	82.2199
 1.5550	82.1890
 1.5540	82.1746
 1.5530	82.1916
 1.5520	82.2043
 1.5510	82.1700
 1.5500	82.1648
 1.5490	82.1825
 1.5480	82.2254
 1.5470	82.2504
 1.5460	82.2016
 1.5450	82.1910
 1.5440	82.1871
 1.5430	82.2157
 1.5420	82.2132
 1.5410	82.2100
 1.5400	82.1793
 1.5390	82.1502
 1.5380	82.1971
 1.5370	82.2007
 1.5360	82.1718
 1.5350	82.2027
 1.5340	82.2382
 1.5330	82.1816
 1.5320	82.1664
 1.5310	82.1977
 1.5300	82.2234
 1.5290	82.2519
 1.5280	82.2230
 1.5270	82.2079
 1.5260	82.2057
 1.5250	82.2128
 1.5240	82.2178
 1.5230	82.2195
 1.5220	82.2703
 1.5210	82.2099
 1.5200	82.2111
 1.5190	82.2199
 1.5180	82.1901
 1.5170	82.2261
 1.5160	82.2385
 1.5150	82.1789
 1.5140	82.2231
 1.5130	82.2421
 1.5120	82.2113
 1.5110	82.2146
 1.5100	82.2256
 1.5090	82.2129
 1.5080	82.2438
 1.5070	82.2629
 1.5060	82.2443
 1.5050	82.2482
 1.5040	82.2127
 1.5030	82.2332
 1.5020	82.2562
 1.5010	82.1711
 1.5000	82.1738
 1.4990	82.2065
 1.4980	82.2396
 1.4970	82.2410
 1.4960	82.1891
 1.4950	82.1960
 1.4940	82.1982
 1.4930	82.2047
 1.4920	82.2021
 1.4910	82.2078
 1.4900	82.2411
 1.4890	82.2207
 1.4880	82.1897
 1.4870	82.1737
 1.4860	82.1333
 1.4850	82.1258
 1.4840	82.1498
 1.4830	82.1779
 1.4820	82.1840
 1.4810	82.1751
 1.4800	82.1785
 1.4790	82.1583
 1.4780	82.1281
 1.4770	82.1552
 1.4760	82.1607
 1.4750	82.1613
 1.4740	82.1610
 1.4730	82.1796
 1.4720	82.2016
 1.4710	82.2292
 1.4700	82.1605
 1.4690	82.1381
 1.4680	82.1274
 1.4670	82.1209
 1.4660	82.1542
 1.4650	82.1335
 1.4640	82.0958
 1.4630	82.1655
 1.4620	82.2588
 1.4610	82.2339
 1.4600	82.2037
 1.4590	82.2441
 1.4580	82.2476
 1.4570	82.1752
 1.4560	82.1614
 1.4550	82.1803
 1.4540	82.2407
 1.4530	82.2759
 1.4520	82.3102
 1.4510	82.2819
 1.4500	82.2734
 1.4490	82.2877
 1.4480	82.3007
 1.4470	82.3402
 1.4460	82.2342
 1.4450	82.2251
 1.4440	82.2942
 1.4430	82.3558
 1.4420	82.3074
 1.4410	82.3340
 1.4400	82.3152
 1.4390	82.3362
 1.4380	82.3596
 1.4370	82.3109
 1.4360	82.3643
 1.4350	82.4145
 1.4340	82.3809
 1.4330	82.3655
 1.4320	82.3701
 1.4310	82.4298
 1.4300	82.4016
 1.4290	82.3969
 1.4280	82.4804
 1.4270	82.4743
 1.4260	82.4787
 1.4250	82.4239
 1.4240	82.4857
 1.4230	82.4395
 1.4220	82.4405
 1.4210	82.4884
 1.4200	82.4828
 1.4190	82.4901
 1.4180	82.3734
 1.4170	82.4612
 1.4160	82.4245
 1.4150	82.4610
 1.4140	82.4039
 1.4130	82.5506
 1.4120	82.6339
 1.4110	82.6695
 1.4100	82.8297
 1.4090	82.8602
 1.4080	83.0025
 1.4070	83.0587
 1.4060	83.1239
 1.4050	83.1699
 1.4040	83.1653
 1.4030	83.1933
 1.4020	83.3073
 1.4010	83.3025
 1.4000	83.3517
 1.3990	83.3644
 1.3980	83.4146
 1.3970	83.4517
 1.3960	83.5375
 1.3950	83.5193
 1.3940	83.4988
 1.3930	83.5346
 1.3920	83.5878
 1.3910	83.5830
 1.3900	83.5880
 1.3890	83.5676
 1.3880	83.5619
 1.3870	83.6084
 1.3860	83.5709
 1.3850	83.5829
 1.3840	83.6044
 1.3830	83.4983
 1.3820	83.5457
 1.3810	83.6022
 1.3800	83.5025
 1.3790	83.5755
 1.3780	83.6195
 1.3770	83.5260
 1.3760	83.4927
 1.3750	83.4872
 1.3740	83.4558
 1.3730	83.5216
 1.3720	83.4536
 1.3710	83.4663
 1.3700	83.4130
 1.3690	83.4952
 1.3680	83.3875
 1.3670	83.3502
 1.3660	83.3575
 1.3650	83.4331
 1.3640	83.3042
 1.3630	83.2977
 1.3620	83.2293
 1.3610	83.1683
 1.3600	83.2354
 1.3590	83.1394
 1.3580	83.1077
 1.3570	83.1207
 1.3560	83.0360
 1.3550	83.0118
 1.3540	83.0085
 1.3530	83.0154
 1.3520	82.9160
 1.3510	82.9635
 1.3500	82.9042
 1.3490	82.9131
 1.3480	82.9457
 1.3470	82.8463
 1.3460	82.8010
 1.3450	82.7485
 1.3440	82.7688
 1.3430	82.6375
 1.3420	82.5575
 1.3410	82.6122
 1.3400	82.5225
 1.3390	82.5017
 1.3380	82.4822
 1.3370	82.4675
 1.3360	82.4488
 1.3350	82.5002
 1.3340	82.3901
 1.3330	82.3284
 1.3320	82.3310
 1.3310	82.2797
 1.3300	82.2108
 1.3290	82.2137
 1.3280	82.2234
 1.3270	82.1572
 1.3260	82.0814
 1.3250	82.0898
 1.3240	82.0160
 1.3230	82.0311
 1.3220	81.9172
 1.3210	81.8741
 1.3200	81.8097
 1.3190	81.8264
 1.3180	81.7666
 1.3170	81.7797
 1.3160	81.7758
 1.3150	81.7166
 1.3140	81.6707
 1.3130	81.7162
 1.3120	81.5295
 1.3110	81.5002
 1.3100	81.4761
 1.3090	81.4965
 1.3080	81.4106
 1.3070	81.4027
 1.3060	81.2964
 1.3050	81.3354
 1.3040	81.2782
 1.3030	81.2255
 1.3020	81.2014
 1.3010	81.1454
 1.3000	81.0688
 1.2990	81.0688
 1.2980	80.9485
 1.2970	80.9475
 1.2960	80.9429
 1.2950	80.8831
 1.2940	80.8759
 1.2930	80.7601
 1.2920	80.7627
 1.2910	80.7324
 1.2900	80.5554
 1.2890	80.5927
 1.2880	80.5661
 1.2870	80.4947
 1.2860	80.4495
 1.2850	80.4074
 1.2840	80.4043
 1.2830	80.3935
 1.2820	80.2926
 1.2810	80.3000
 1.2800	80.2063
 1.2790	80.2342
 1.2780	80.1075
 1.2770	80.0717
 1.2760	80.0302
 1.2750	79.9940
 1.2740	79.9283
 1.2730	79.8952
 1.2720	79.8164
 1.2710	79.7767
 1.2700	79.7236
 1.2690	79.7398
 1.2680	79.6669
 1.2670	79.5730
 1.2660	79.5399
 1.2650	79.5124
 1.2640	79.5439
 1.2630	79.4440
 1.2620	79.3712
 1.2610	79.3412
 1.2600	79.2903
 1.2590	79.2404
 1.2580	79.2672
 1.2570	79.2171
 1.2560	79.1318
 1.2550	79.0844
 1.2540	79.0362
 1.2530	79.0129
 1.2520	79.0101
 1.2510	78.9240
 1.2500	78.9061
 1.2490	78.8371
 1.2480	78.7795
 1.2470	78.7485
 1.2460	78.7342
 1.2450	78.7182
 1.2440	78.6479
 1.2430	78.6269
 1.2420	78.5708
 1.2410	78.5161
 1.2400	78.5197
 1.2390	78.4755
 1.2380	78.3969
 1.2370	78.3462
 1.2360	78.2625
 1.2350	78.2850
 1.2340	78.2951
 1.2330	78.2558
 1.2320	78.2023
 1.2310	78.1242
 1.2300	78.0685
 1.2290	78.0466
 1.2280	78.0526
 1.2270	77.9917
 1.2260	77.9452
 1.2250	77.9435
 1.2240	77.9297
 1.2230	77.8298
 1.2220	77.7457
 1.2210	77.7827
 1.2200	77.7479
 1.2190	77.6962
 1.2180	77.6653
 1.2170	77.5954
 1.2160	77.5610
 1.2150	77.5478
 1.2140	77.5325
 1.2130	77.5300
 1.2120	77.5255
 1.2110	77.4801
 1.2100	77.4612
 1.2090	77.4096
 1.2080	77.3230
 1.2070	77.2602
 1.2060	77.2634
 1.2050	77.2536
 1.2040	77.1643
 1.2030	77.1760
 1.2020	77.1789
 1.2010	77.0994
 1.2000	77.0443
 1.1990	77.0301
 1.1980	76.9983
 1.1970	76.9958
 1.1960	76.9962
 1.1950	76.9449
 1.1940	76.9359
 1.1930	76.9146
 1.1920	76.8828
 1.1910	76.8647
 1.1900	76.7946
 1.1890	76.7677
 1.1880	76.7452
 1.1870	76.7041
 1.1860	76.6493
 1.1850	76.6316
 1.1840	76.6538
 1.1830	76.6329
 1.1820	76.6398
 1.1810	76.5967
 1.1800	76.5465
 1.1790	76.5484
 1.1780	76.4827
 1.1770	76.4345
 1.1760	76.3982
 1.1750	76.3822
 1.1740	76.3411
 1.1730	76.3446
 1.1720	76.3320
 1.1710	76.2844
 1.1700	76.2729
 1.1690	76.1900
 1.1680	76.1827
 1.1670	76.2174
 1.1660	76.1721
 1.1650	76.1340
 1.1640	76.1415
 1.1630	76.0560
 1.1620	76.0591
 1.1610	76.0426
 1.1600	75.9953
 1.1590	75.9322
 1.1580	75.9496
 1.1570	75.8978
 1.1560	75.8786
 1.1550	75.8643
 1.1540	75.8903
 1.1530	75.8123
 1.1520	75.7836
 1.1510	75.7653
 1.1500	75.7463
 1.1490	75.6862
 1.1480	75.6546
 1.1470	75.6657
 1.1460	75.6045
 1.1450	75.4971
 1.1440	75.5343
 1.1430	75.5073
 1.1420	75.4923
 1.1410	75.4320
 1.1400	75.4388
 1.1390	75.3819
 1.1380	75.3345
 1.1370	75.2484
 1.1360	75.2623
 1.1350	75.2278
 1.1340	75.2268
 1.1330	75.1188
 1.1320	75.0861
 1.1310	75.1105
 1.1300	75.1030
 1.1290	75.0144
 1.1280	74.9527
 1.1270	74.9856
 1.1260	74.9481
 1.1250	74.8563
 1.1240	74.8731
 1.1230	74.7465
 1.1220	74.8031
 1.1210	74.7344
 1.1200	74.7363
 1.1190	74.5890
 1.1180	74.5681
 1.1170	74.5938
 1.1160	74.5454
 1.1150	74.4591
 1.1140	74.4452
 1.1130	74.4182
 1.1120	74.4131
 1.1110	74.3104
 1.1100	74.2421
 1.1090	74.2327
 1.1080	74.1867
 1.1070	74.0987
 1.1060	74.0568
 1.1050	73.9948
 1.1040	73.9690
 1.1030	73.8554
 1.1020	73.8381
 1.1010	73.7905
 1.1000	73.8522
 1.0990	73.6774
 1.0980	73.7023
 1.0970	73.5829
 1.0960	73.5812
 1.0950	73.4698
 1.0940	73.4800
 1.0930	73.3718
 1.0920	73.3988
 1.0910	73.2604
 1.0900	73.2341
 1.0890	73.2191
 1.0880	73.1401
 1.0870	73.0490
 1.0860	73.0089
 1.0850	72.9366
 1.0840	72.9468
 1.0830	72.8230
 1.0820	72.8041
 1.0810	72.6895
 1.0800	72.6377
 1.0790	72.6673
 1.0780	72.5981
 1.0770	72.5601
 1.0760	72.4605
 1.0750	72.4125
 1.0740	72.3470
 1.0730	72.2996
 1.0720	72.2702
 1.0710	72.1697
 1.0700	72.0568
 1.0690	72.0083
 1.0680	72.0603
 1.0670	71.9497
 1.0660	71.9735
 1.0650	71.7616
 1.0640	71.8088
 1.0630	71.7533
 1.0620	71.6123
 1.0610	71.5901
 1.0600	71.5179
 1.0590	71.4422
 1.0580	71.3694
 1.0570	71.3317
 1.0560	71.3056
 1.0550	71.1676
 1.0540	71.1626
 1.0530	71.0853
 1.0520	71.0599
 1.0510	70.9847
 1.0500	70.8933
 1.0490	70.8300
 1.0480	70.7988
 1.0470	70.7130
 1.0460	70.6633
 1.0450	70.6175
 1.0440	70.5606
 1.0430	70.4512
 1.0420	70.4160
 1.0410	70.3346
 1.0400	70.3326
 1.0390	70.2605
 1.0380	70.2339
 1.0370	70.0721
 1.0360	70.1013
 1.0350	69.9676
 1.0340	69.9942
 1.0330	69.9157
 1.0320	69.8890
 1.0310	69.8448
 1.0300	69.7233
 1.0290	69.7194
 1.0280	69.6238
 1.0270	69.5501
 1.0260	69.5111
 1.0250	69.4624
 1.0240	69.4002
 1.0230	69.4045
 1.0220	69.3662
 1.0210	69.2458
 1.0200	69.2032
 1.0190	69.1793
 1.0180	69.1598
 1.0170	69.1175
 1.0160	69.0682
 1.0150	68.9204
 1.0140	68.8781
 1.0130	68.8875
 1.0120	68.9032
 1.0110	68.8554
 1.0100	68.7318
 1.0090	68.7036
 1.0080	68.6984
 1.0070	68.6294
 1.0060	68.5828
 1.0050	68.4739
 1.0040	68.5095
 1.0030	68.4489
 1.0020	68.3714
 1.0010	68.3154
 1.0000	68.3277
 0.9990	68.2396
 0.9980	68.2833
 0.9970	68.2359
 0.9960	68.1466
 0.9950	68.1517
 0.9940	68.1239
 0.9930	68.0985
 0.9920	68.1127
 0.9910	67.9879
 0.9900	67.9871
 0.9890	67.9884
 0.9880	67.9225
 0.9870	67.8176
 0.9860	67.9056
 0.9850	67.9060
 0.9840	67.8576
 0.9830	67.7449
 0.9820	67.8028
 0.9810	67.7462
 0.9800	67.7289
 0.9790	67.6900
 0.9780	67.6595
 0.9770	67.7023
 0.9760	67.6607
 0.9750	67.6466
 0.9740	67.6567
 0.9730	67.6151
 0.9720	67.5396
 0.9710	67.5226
 0.9700	67.5737
 0.9690	67.5282
 0.9680	67.6031
 0.9670	67.5257
 0.9660	67.5114
 0.9650	67.5551
 0.9640	67.5270
 0.9630	67.4579
 0.9620	67.4911
 0.9610	67.5177
 0.9600	67.4623
 0.9590	67.5152
 0.9580	67.5272
 0.9570	67.4973
 0.9560	67.5146
 0.9550	67.4774
 0.9540	67.5017
 0.9530	67.5116
 0.9520	67.4839
 0.9510	67.4994
 0.9500	67.5150
 0.9490	67.4829
 0.9480	67.5501
 0.9470	67.6185
 0.9460	67.5811
 0.9450	67.5983
 0.9440	67.5749
 0.9430	67.5055
 0.9420	67.5875
 0.9410	67.6438
 0.9400	67.6905
 0.9390	67.7170
 0.9380	67.6988
 0.9370	67.7387
 0.9360	67.7458
 0.9350	67.7392
 0.9340	67.7561
 0.9330	67.7423
 0.9320	67.7996
 0.9310	67.8435
 0.9300	67.8226
 0.9290	67.8415
 0.9280	67.8927
 0.9270	67.9172
 0.9260	67.9465
 0.9250	68.0101
 0.9240	68.0491
 0.9230	68.0449
 0.9220	68.0360
 0.9210	68.0854
 0.9200	68.1445
 0.9190	68.1554
 0.9180	68.1640
 0.9170	68.2230
 0.9160	68.2733
 0.9150	68.2973
 0.9140	68.3148
 0.9130	68.3479
 0.9120	68.4184
 0.9110	68.4747
 0.9100	68.5278
 0.9090	68.5887
 0.9080	68.5687
 0.9070	68.5970
 0.9060	68.7213
 0.9050	68.7757
 0.9040	68.7746
 0.9030	68.8212
 0.9020	68.8747
 0.9010	68.9304
 0.9000	69.0040
 0.8990	69.0863
 0.8980	69.1376
 0.8970	69.2036
 0.8960	69.2173
 0.8950	69.2061
 0.8940	69.2883
 0.8930	69.3687
 0.8920	69.3901
 0.8910	69.4358
 0.8900	69.5413
 0.8890	69.5941
 0.8880	69.6597
 0.8870	69.6857
 0.8860	69.7275
 0.8850	69.8428
 0.8840	69.8773
 0.8830	69.9581
 0.8820	70.0134
 0.8810	70.0857
 0.8800	70.1578
 0.8790	70.2034
 0.8780	70.2407
 0.8770	70.2715
 0.8760	70.3530
 0.8750	70.4552
 0.8740	70.4699
 0.8730	70.5856
 0.8720	70.6006
 0.8710	70.6254
 0.8700	70.7492
 0.8690	70.8429
 0.8680	70.9167
 0.8670	70.9715
 0.8660	71.0162
 0.8650	71.0968
 0.8640	71.1452
 0.8630	71.2371
 0.8620	71.2801
 0.8610	71.3484
 0.8600	71.8618
 0.8590	71.8171
 0.8580	71.9649
 0.8570	72.1322
 0.8560	72.0399
 0.8550	72.1473
 0.8540	72.3113
 0.8530	72.3930
 0.8520	72.3980
 0.8510	72.5522
 0.8500	72.6152
 0.8490	72.6059
 0.8480	72.6853
 0.8470	72.7975
 0.8460	72.8823
 0.8450	72.9538
 0.8440	73.0545
 0.8430	73.0743
 0.8420	73.1977
 0.8410	73.2420
 0.8400	73.3308
 0.8390	73.4180
 0.8380	73.5109
 0.8370	73.5561
 0.8360	73.6626
 0.8350	73.7314
 0.8340	73.7605
 0.8330	73.8312
 0.8320	73.9592
 0.8310	74.0450
 0.8300	74.1434
 0.8290	74.1888
 0.8280	74.3076
 0.8270	74.3651
 0.8260	74.4755
 0.8250	74.5064
 0.8240	74.5936
 0.8230	74.6938
 0.8220	74.7104
 0.8210	74.8120
 0.8200	74.8531
 0.8190	74.9659
 0.8180	75.0306
 0.8170	75.1245
 0.8160	75.2337
 0.8150	75.2570
 0.8140	75.3526
 0.8130	75.4330
 0.8120	75.5339
 0.8110	75.5810
 0.8100	75.6586
 0.8090	75.7789
 0.8080	75.8191
 0.8070	75.8882
 0.8060	75.9533
 0.8050	76.0113
 0.8040	76.1244
 0.8030	76.2207
 0.8020	76.2375
 0.8010	76.3406
 0.8000	76.4299
 0.7990	76.4904
 0.7980	76.4985
 0.7970	76.5555
 0.7960	76.6302
 0.7950	76.7043
 0.7940	76.7967
 0.7930	76.8405
 0.7920	76.9025
 0.7910	76.9430
 0.7900	77.0561
 0.7890	77.1336
 0.7880	77.2002
 0.7870	77.2685
 0.7860	77.3142
 0.7850	77.3613
 0.7840	77.4335
 0.7830	77.5500
 0.7820	77.5780
 0.7810	77.6658
 0.7800	77.7071
 0.7790	77.8225
 0.7780	77.8248
 0.7770	77.9290
 0.7760	77.9748
 0.7750	78.0033
 0.7740	78.0489
 0.7730	78.1255
 0.7720	78.1818
 0.7710	78.2082
 0.7700	78.3433
 0.7690	78.3954
 0.7680	78.4358
 0.7670	78.5239
 0.7660	78.5733
 0.7650	78.6255
 0.7640	78.6946
 0.7630	78.7489
 0.7620	78.7875
 0.7610	78.8652
 0.7600	78.9572
 0.7590	78.9976
 0.7580	79.0233
 0.7570	79.1385
 0.7560	79.1842
 0.7550	79.2148
 0.7540	79.3032
 0.7530	79.3504
 0.7520	79.4052
 0.7510	79.4615
 0.7500	79.5210
 0.7490	79.5996
 0.7480	79.6570
 0.7470	79.7049
 0.7460	79.7522
 0.7450	79.7869
 0.7440	79.8388
 0.7430	79.9396
 0.7420	79.9729
 0.7410	80.0314
 0.7400	80.1031
 0.7390	80.1424
 0.7380	80.2194
 0.7370	80.2752
 0.7360	80.3047
 0.7350	80.3916
 0.7340	80.4457
 0.7330	80.4815
 0.7320	80.5285
 0.7310	80.5750
 0.7300	80.6565
 0.7290	80.7079
 0.7280	80.7683
 0.7270	80.8511
 0.7260	80.8685
 0.7250	80.9159
 0.7240	80.9848
 0.7230	81.0506
 0.7220	81.0999
 0.7210	81.1578
 0.7200	81.2107
 0.7190	81.2809
 0.7180	81.3304
 0.7170	81.3940
 0.7160	81.4090
 0.7150	81.4788
 0.7140	81.5372
 0.7130	81.6011
 0.7120	81.6684
 0.7110	81.7159
 0.7100	81.7531
 0.7090	81.8011
 0.7080	81.8558
 0.7070	81.9182
 0.7060	81.9544
 0.7050	82.0460
 0.7040	82.1040
 0.7030	82.1308
 0.7020	82.1929
 0.7010	82.2600
 0.7000	82.2953
 0.6990	82.3593
 0.6980	82.4099
 0.6970	82.4606
 0.6960	82.5239
 0.6950	82.5916
 0.6940	82.6497
 0.6930	82.6908
 0.6920	82.7687
 0.6910	82.8188
 0.6900	82.8566
 0.6890	82.9296
 0.6880	82.9885
 0.6870	83.0365
 0.6860	83.0837
 0.6850	83.1482
 0.6840	83.2251
 0.6830	83.2743
 0.6820	83.3170
 0.6810	83.3613
 0.6800	83.4194
 0.6790	83.4785
 0.6780	83.5330
 0.6770	83.5766
 0.6760	83.6350
 0.6750	83.7013
 0.6740	83.7587
 0.6730	83.8064
 0.6720	83.8902
 0.6710	83.9484
 0.6700	83.9876
 0.6690	84.0478
 0.6680	84.0788
 0.6670	84.1353
 0.6660	84.2116
 0.6650	84.2669
 0.6640	84.3064
 0.6630	84.3546
 0.6620	84.4178
 0.6610	84.4716
 0.6600	84.5290
 0.6590	84.5830
 0.6580	84.6377
 0.6570	84.6904
 0.6560	84.7583
 0.6550	84.8072
 0.6540	84.8506
 0.6530	84.8978
 0.6520	84.9598
 0.6510	85.0079
 0.6500	85.0495
 0.6490	85.1097
 0.6480	85.1546
 0.6470	85.1940
 0.6460	85.2602
 0.6450	85.3155
 0.6440	85.3532
 0.6430	85.4010
 0.6420	85.4482
 0.6410	85.4864
 0.6400	85.5402
 0.6390	85.5906
 0.6380	85.6346
 0.6370	85.6749
 0.6360	85.7204
 0.6350	85.7848
 0.6340	85.8300
 0.6330	85.8617
 0.6320	85.9068
 0.6310	85.9390
 0.6300	85.9655
 0.6290	86.0168
 0.6280	86.0713
 0.6270	86.1122
 0.6260	86.1518
 0.6250	86.1748
 0.6240	86.2088
 0.6230	86.2428
 0.6220	86.2818
 0.6210	86.3307
 0.6200	86.3684
 0.6190	86.3971
 0.6180	86.4240
 0.6170	86.4492
 0.6160	86.4932
 0.6150	86.5390
 0.6140	86.5791
 0.6130	86.5979
 0.6120	86.6198
 0.6110	86.6445
 0.6100	86.6752
 0.6090	86.6973
 0.6080	86.7295
 0.6070	86.7614
 0.6060	86.7837
 0.6050	86.8093
 0.6040	86.8184
 0.6030	86.8318
 0.6020	86.8539
 0.6010	86.8795
 0.6000	86.9071
 0.5990	86.9455
 0.5980	86.9749
 0.5970	87.0092
 0.5960	87.0449
 0.5950	87.0712
 0.5940	87.0607
 0.5930	87.0709
 0.5920	87.0803
 0.5910	87.0739
 0.5900	87.0732
 0.5890	87.0771
 0.5880	87.0352
 0.5870	87.0262
 0.5860	87.0311
 0.5850	87.0002
 0.5840	86.9705
 0.5830	86.9531
 0.5820	86.9073
 0.5810	86.8589
 0.5800	86.8138
 0.5790	86.7846
 0.5780	86.7474
 0.5770	86.6989
 0.5760	86.6337
 0.5750	86.5700
 0.5740	86.4802
 0.5730	86.4118
 0.5720	86.3232
 0.5710	86.2587
 0.5700	86.1935
 0.5690	86.0842
 0.5680	86.0005
 0.5670	85.9071
 0.5660	85.8050
 0.5650	85.6587
 0.5640	85.5502
 0.5630	85.4452
 0.5620	85.3380
 0.5610	85.2234
 0.5600	85.1091
 0.5590	85.0138
 0.5580	84.8884
 0.5570	84.7807
 0.5560	84.6656
 0.5550	84.5439
 0.5540	84.4332
 0.5530	84.3175
 0.5520	84.2115
 0.5510	84.1114
 0.5500	84.0056
 0.5490	83.9145
 0.5480	83.8204
 0.5470	83.7453
 0.5460	83.6640
 0.5450	83.5886
 0.5440	83.5070
 0.5430	83.4374
 0.5420	83.3941
 0.5410	83.3395
 0.5400	83.2869
 0.5390	83.2408
 0.5380	83.1913
 0.5370	83.1477
 0.5360	83.0939
 0.5350	83.0621
 0.5340	83.0053
 0.5330	82.9971
 0.5320	82.9555
 0.5310	82.8994
 0.5300	82.8559
 0.5290	82.8350
 0.5280	82.7846
 0.5270	82.7339
 0.5260	82.6944
 0.5250	82.6763
 0.5240	82.6414
 0.5230	82.6126
 0.5220	82.5983
 0.5210	82.5818
 0.5200	82.5674
 0.5190	82.5605
 0.5180	82.5554
 0.5170	82.5644
 0.5160	82.5692
 0.5150	82.5688
 0.5140	82.5879
 0.5130	82.6228
 0.5120	82.6556
 0.5110	82.6585
 0.5100	82.7136
 0.5090	82.7267
 0.5080	82.7589
 0.5070	82.7718
 0.5060	82.8318
 0.5050	82.8558
 0.5040	82.9227
 0.5030	82.9788
 0.5020	82.9735
 0.5010	83.0165
 0.5000	83.0290
 0.4990	83.0708
 0.4980	83.0946
 0.4970	83.1192
 0.4960	83.1216
 0.4950	83.1033
 0.4940	83.1319
 0.4930	83.1454
 0.4920	83.1461
 0.4910	83.1221
 0.4900	83.1206
 0.4890	83.1004
 0.4880	83.0665
 0.4870	83.0266
 0.4860	83.0172
 0.4850	82.9619
 0.4840	82.9258
 0.4830	82.8961
 0.4820	82.8896
 0.4810	82.8866
 0.4800	82.8428
 0.4790	82.8850
 0.4780	82.8814
 0.4770	82.9263
 0.4760	82.9357
 0.4750	82.9795
 0.4740	83.0223
 0.4730	83.0465
 0.4720	83.0953
 0.4710	83.1348
 0.4700	83.1871
 0.4690	83.2229
 0.4680	83.2560
 0.4670	83.2778
 0.4660	83.2968
 0.4650	83.3205
 0.4640	83.3301
 0.4630	83.3424
 0.4620	83.3501
 0.4610	83.3358
 0.4600	83.3472
 0.4590	83.3342
 0.4580	83.3258
 0.4570	83.2663
 0.4560	83.2504
 0.4550	83.2249
 0.4540	83.1918
 0.4530	83.1519
 0.4520	83.1223
 0.4510	83.0857
 0.4500	83.0177
 0.4490	82.9844
 0.4480	82.9407
 0.4470	82.8817
 0.4460	82.8084
 0.4450	82.7423
 0.4440	82.6883
 0.4430	82.6359
 0.4420	82.5685
 0.4410	82.4882
 0.4400	82.3972
 0.4390	82.3370
 0.4380	82.2453
 0.4370	82.1701
 0.4360	82.0893
 0.4350	81.9727
 0.4340	81.8785
 0.4330	81.8057
 0.4320	81.6695
 0.4310	81.5659
 0.4300	81.4746
 0.4290	81.3426
 0.4280	81.2400
 0.4270	81.1355
 0.4260	81.0189
 0.4250	80.8879
 0.4240	80.7820
 0.4230	80.6583
 0.4220	80.5137
 0.4210	80.3797
 0.4200	80.2556
 0.4190	80.1299
 0.4180	79.9806
 0.4170	79.8418
 0.4160	79.6874
 0.4150	79.5754
 0.4140	79.3913
 0.4130	79.1989
 0.4120	79.0476
 0.4110	78.9023
 0.4100	78.7753
 0.4090	78.7119
 0.4080	78.6516
 0.4070	78.6043
 0.4060	78.5070
 0.4050	78.3724
 0.4040	78.2201
 0.4030	78.0243
 0.4020	77.8514
 0.4010	77.6606
 0.4000	77.4423
