Name: Cordierite Mg_2Al_3(Si_5Al)O_18
Type: Mineral
Class: Silicate
Subclass: Cyclosilicate
Particle Size: Fine
Sample No.: CS-3A
Owner: JPL
Wavelength Range: VSWIR
Origin: Canada, Northwest Territories, Mackenzie District, Great Bear Lake.
Collection Date: N/A
Description: Particle size was 0-45um.Collected by:  Ward's Original ASTER Spectral Library name was jpl.perkin.mineral.silicate.cyclosilicate.fine.cs03a.spectrum.txt
Measurement: Hemispherical reflectance
First Column: X
Second Column: Y
X Units: Wavelength (micrometers)
Y Units:Reflectance (percent)
First X Value:  2.5000
Last X Value:  0.4000
Number of X Values: 2101
Additional Information: mineral.silicate.cyclosilicate.fine.vswir.cs-3a.jpl.perkin.ancillary.txt

 2.5000	63.9772
 2.4990	63.9414
 2.4980	64.0701
 2.4970	64.3258
 2.4960	64.1429
 2.4950	64.5559
 2.4940	64.4476
 2.4930	64.4017
 2.4920	64.4619
 2.4910	64.8364
 2.4900	64.9079
 2.4890	64.9426
 2.4880	64.8665
 2.4870	65.0607
 2.4860	65.2051
 2.4850	65.2610
 2.4840	65.2105
 2.4830	65.5277
 2.4820	65.5462
 2.4810	65.4793
 2.4800	65.5562
 2.4790	65.6679
 2.4780	65.7974
 2.4770	65.9872
 2.4760	65.7971
 2.4750	65.9646
 2.4740	66.0513
 2.4730	66.2596
 2.4720	66.2081
 2.4710	66.2696
 2.4700	66.2721
 2.4690	66.3561
 2.4680	66.5192
 2.4670	66.5330
 2.4660	66.6041
 2.4650	66.6575
 2.4640	66.8311
 2.4630	66.8276
 2.4620	66.8908
 2.4610	66.9852
 2.4600	66.9651
 2.4590	67.0917
 2.4580	67.1323
 2.4570	67.2772
 2.4560	67.1826
 2.4550	67.3267
 2.4540	67.4125
 2.4530	67.3688
 2.4520	67.4300
 2.4510	67.6639
 2.4500	67.6292
 2.4490	67.5791
 2.4480	67.6390
 2.4470	67.9017
 2.4460	67.8764
 2.4450	67.9688
 2.4440	67.9782
 2.4430	67.9792
 2.4420	68.0469
 2.4410	68.0800
 2.4400	68.1039
 2.4390	68.1007
 2.4380	68.1742
 2.4370	68.2921
 2.4360	68.1757
 2.4350	68.3245
 2.4340	68.3666
 2.4330	68.3619
 2.4320	68.3840
 2.4310	68.4623
 2.4300	68.4006
 2.4290	68.4394
 2.4280	68.4690
 2.4270	68.5719
 2.4260	68.6364
 2.4250	68.6683
 2.4240	68.6843
 2.4230	68.7465
 2.4220	68.7403
 2.4210	68.8184
 2.4200	68.8295
 2.4190	68.8289
 2.4180	68.8250
 2.4170	68.9070
 2.4160	68.9261
 2.4150	68.9327
 2.4140	68.9560
 2.4130	69.0536
 2.4120	69.0467
 2.4110	69.0225
 2.4100	69.0784
 2.4090	69.1661
 2.4080	69.1613
 2.4070	69.2441
 2.4060	69.2481
 2.4050	69.2813
 2.4040	69.2346
 2.4030	69.3051
 2.4020	69.3104
 2.4010	69.3382
 2.4000	69.3582
 2.3990	69.4686
 2.3980	69.4904
 2.3970	69.4988
 2.3960	69.4870
 2.3950	69.5199
 2.3940	69.5730
 2.3930	69.5927
 2.3920	69.6266
 2.3910	69.6334
 2.3900	69.6660
 2.3890	69.6895
 2.3880	69.6779
 2.3870	69.7629
 2.3860	69.7669
 2.3850	69.7591
 2.3840	69.8042
 2.3830	69.8873
 2.3820	69.8857
 2.3810	69.8557
 2.3800	69.8282
 2.3790	69.8594
 2.3780	69.9384
 2.3770	70.0003
 2.3760	69.9151
 2.3750	69.9973
 2.3740	70.0604
 2.3730	70.0080
 2.3720	70.0291
 2.3710	70.1123
 2.3700	70.1254
 2.3690	70.0743
 2.3680	70.0882
 2.3670	70.1525
 2.3660	70.2138
 2.3650	70.2110
 2.3640	70.1680
 2.3630	70.1888
 2.3620	70.2460
 2.3610	70.2272
 2.3600	70.2169
 2.3590	70.2959
 2.3580	70.3487
 2.3570	70.3357
 2.3560	70.3108
 2.3550	70.3242
 2.3540	70.3318
 2.3530	70.3827
 2.3520	70.3918
 2.3510	70.3352
 2.3500	70.3796
 2.3490	70.3973
 2.3480	70.3699
 2.3470	70.3776
 2.3460	70.4230
 2.3450	70.4668
 2.3440	70.4981
 2.3430	70.4707
 2.3420	70.4861
 2.3410	70.5213
 2.3400	70.5538
 2.3390	70.5278
 2.3380	70.5029
 2.3370	70.5002
 2.3360	70.5516
 2.3350	70.4872
 2.3340	70.5131
 2.3330	70.5315
 2.3320	70.5046
 2.3310	70.5342
 2.3300	70.5528
 2.3290	70.5795
 2.3280	70.5537
 2.3270	70.5342
 2.3260	70.5156
 2.3250	70.5427
 2.3240	70.6110
 2.3230	70.5637
 2.3220	70.6070
 2.3210	70.5978
 2.3200	70.5994
 2.3190	70.6316
 2.3180	70.6098
 2.3170	70.6129
 2.3160	70.6146
 2.3150	70.6171
 2.3140	70.6464
 2.3130	70.6157
 2.3120	70.6437
 2.3110	70.6586
 2.3100	70.6519
 2.3090	70.6520
 2.3080	70.7017
 2.3070	70.7011
 2.3060	70.7096
 2.3050	70.6597
 2.3040	70.6683
 2.3030	70.6072
 2.3020	70.6803
 2.3010	70.6695
 2.3000	70.7101
 2.2990	70.7197
 2.2980	70.6999
 2.2970	70.7117
 2.2960	70.7371
 2.2950	70.7294
 2.2940	70.7339
 2.2930	70.6551
 2.2920	70.6637
 2.2910	70.6811
 2.2900	70.7290
 2.2890	70.7208
 2.2880	70.6760
 2.2870	70.5882
 2.2860	70.6867
 2.2850	70.6578
 2.2840	70.6575
 2.2830	70.7161
 2.2820	70.6808
 2.2810	70.6078
 2.2800	70.6001
 2.2790	70.6069
 2.2780	70.6084
 2.2770	70.6892
 2.2760	70.6669
 2.2750	70.6458
 2.2740	70.6813
 2.2730	70.6258
 2.2720	70.6376
 2.2710	70.6319
 2.2700	70.5870
 2.2690	70.6051
 2.2680	70.6180
 2.2670	70.5447
 2.2660	70.5973
 2.2650	70.5736
 2.2640	70.6149
 2.2630	70.5389
 2.2620	70.5111
 2.2610	70.5814
 2.2600	70.5615
 2.2590	70.5420
 2.2580	70.6345
 2.2570	70.5452
 2.2560	70.4851
 2.2550	70.5224
 2.2540	70.5128
 2.2530	70.4925
 2.2520	70.5819
 2.2510	70.5525
 2.2500	70.5750
 2.2490	70.5211
 2.2480	70.5643
 2.2470	70.5719
 2.2460	70.5917
 2.2450	70.6383
 2.2440	70.6458
 2.2430	70.6467
 2.2420	70.6794
 2.2410	70.6791
 2.2400	70.6877
 2.2390	70.6824
 2.2380	70.7286
 2.2370	70.8183
 2.2360	70.7671
 2.2350	70.8139
 2.2340	70.6949
 2.2330	70.7949
 2.2320	70.7704
 2.2310	70.6714
 2.2300	70.7965
 2.2290	70.8216
 2.2280	70.8490
 2.2270	70.9136
 2.2260	70.8643
 2.2250	70.8152
 2.2240	70.8607
 2.2230	70.7933
 2.2220	70.8191
 2.2210	70.8743
 2.2200	70.8072
 2.2190	70.8506
 2.2180	70.8351
 2.2170	70.8543
 2.2160	70.8907
 2.2150	70.8569
 2.2140	70.8895
 2.2130	70.8356
 2.2120	70.9277
 2.2110	70.8174
 2.2100	70.8639
 2.2090	70.9338
 2.2080	70.9010
 2.2070	70.8414
 2.2060	70.9418
 2.2050	70.9068
 2.2040	71.0316
 2.2030	71.0286
 2.2020	70.9462
 2.2010	71.0211
 2.2000	71.1705
 2.1990	71.0817
 2.1980	71.1614
 2.1970	71.1252
 2.1960	71.1752
 2.1950	71.1076
 2.1940	71.1387
 2.1930	71.2379
 2.1920	71.3663
 2.1910	71.2880
 2.1900	71.3623
 2.1890	71.3802
 2.1880	71.3811
 2.1870	71.4400
 2.1860	71.3964
 2.1850	71.3977
 2.1840	71.5711
 2.1830	71.5296
 2.1820	71.5898
 2.1810	71.5364
 2.1800	71.5704
 2.1790	71.6205
 2.1780	71.6639
 2.1770	71.7424
 2.1760	71.7823
 2.1750	71.8062
 2.1740	71.7970
 2.1730	71.8331
 2.1720	71.9178
 2.1710	71.9197
 2.1700	72.0968
 2.1690	72.0392
 2.1680	72.0152
 2.1670	72.1221
 2.1660	72.1359
 2.1650	72.1804
 2.1640	72.2309
 2.1630	72.2587
 2.1620	72.2548
 2.1610	72.3592
 2.1600	72.4694
 2.1590	72.4310
 2.1580	72.5300
 2.1570	72.4670
 2.1560	72.5568
 2.1550	72.5943
 2.1540	72.6898
 2.1530	72.5934
 2.1520	72.6812
 2.1510	72.7352
 2.1500	72.7510
 2.1490	72.8260
 2.1480	72.8713
 2.1470	72.8112
 2.1460	72.7881
 2.1450	72.9077
 2.1440	72.7938
 2.1430	72.7541
 2.1420	72.8347
 2.1410	72.8827
 2.1400	72.8804
 2.1390	72.8725
 2.1380	72.9640
 2.1370	72.9354
 2.1360	72.8854
 2.1350	72.8595
 2.1340	72.8852
 2.1330	72.8807
 2.1320	72.8489
 2.1310	72.7768
 2.1300	72.7083
 2.1290	72.6827
 2.1280	72.7507
 2.1270	72.7415
 2.1260	72.7105
 2.1250	72.7004
 2.1240	72.6376
 2.1230	72.5127
 2.1220	72.5247
 2.1210	72.4933
 2.1200	72.2369
 2.1190	71.9629
 2.1180	72.4252
 2.1170	72.3427
 2.1160	72.3334
 2.1150	72.2810
 2.1140	72.2517
 2.1130	72.2053
 2.1120	72.1487
 2.1110	72.0755
 2.1100	72.0659
 2.1090	72.0139
 2.1080	71.9885
 2.1070	71.9582
 2.1060	71.9378
 2.1050	71.8681
 2.1040	71.8204
 2.1030	71.7846
 2.1020	71.7478
 2.1010	71.7131
 2.1000	71.7110
 2.0990	71.7432
 2.0980	71.7291
 2.0970	71.7118
 2.0960	71.7047
 2.0950	71.6931
 2.0940	71.7891
 2.0930	71.7703
 2.0920	71.7489
 2.0910	71.7606
 2.0900	71.8008
 2.0890	71.7962
 2.0880	71.7920
 2.0870	71.8028
 2.0860	71.8098
 2.0850	71.8315
 2.0840	71.8671
 2.0830	71.8896
 2.0820	71.8714
 2.0810	71.8800
 2.0800	71.9129
 2.0790	71.9025
 2.0780	71.9388
 2.0770	72.0135
 2.0760	72.0085
 2.0750	72.0088
 2.0740	72.0472
 2.0730	72.0729
 2.0720	72.0678
 2.0710	72.0966
 2.0700	72.1688
 2.0690	72.1713
 2.0680	72.1710
 2.0670	72.1802
 2.0660	72.2215
 2.0650	72.2336
 2.0640	72.2267
 2.0630	72.2331
 2.0620	72.2634
 2.0610	72.2843
 2.0600	72.2956
 2.0590	72.3130
 2.0580	72.3040
 2.0570	72.3091
 2.0560	72.3514
 2.0550	72.3282
 2.0540	72.3338
 2.0530	72.3227
 2.0520	72.3347
 2.0510	72.3331
 2.0500	72.3751
 2.0490	72.4493
 2.0480	72.4214
 2.0470	72.3890
 2.0460	72.3868
 2.0450	72.3710
 2.0440	72.3563
 2.0430	72.4069
 2.0420	72.4090
 2.0410	72.4356
 2.0400	72.4359
 2.0390	72.3967
 2.0380	72.3680
 2.0370	72.4178
 2.0360	72.4432
 2.0350	72.4303
 2.0340	72.4146
 2.0330	72.4257
 2.0320	72.3881
 2.0310	72.3931
 2.0300	72.4352
 2.0290	72.4467
 2.0280	72.4576
 2.0270	72.3839
 2.0260	72.3319
 2.0250	72.3722
 2.0240	72.3290
 2.0230	72.3236
 2.0220	72.2696
 2.0210	72.2261
 2.0200	72.1905
 2.0190	72.1326
 2.0180	72.0223
 2.0170	72.1030
 2.0160	71.9510
 2.0150	71.9430
 2.0140	71.9630
 2.0130	71.9104
 2.0120	71.9240
 2.0110	71.9402
 2.0100	71.9771
 2.0090	71.9931
 2.0080	72.1180
 2.0070	72.1303
 2.0060	72.1830
 2.0050	72.1500
 2.0040	72.1197
 2.0030	72.1424
 2.0020	72.1036
 2.0010	72.1392
 2.0000	72.0656
 1.9990	72.1179
 1.9980	71.9924
 1.9970	71.9610
 1.9960	71.9583
 1.9950	71.8980
 1.9940	71.8144
 1.9930	71.8301
 1.9920	71.7246
 1.9910	71.7183
 1.9900	71.7745
 1.9890	71.6794
 1.9880	71.6048
 1.9870	71.5804
 1.9860	71.5542
 1.9850	71.5773
 1.9840	71.4734
 1.9830	71.5091
 1.9820	71.4169
 1.9810	71.3695
 1.9800	71.3860
 1.9790	71.2828
 1.9780	71.3057
 1.9770	71.2202
 1.9760	71.1662
 1.9750	71.1831
 1.9740	71.0945
 1.9730	71.0778
 1.9720	70.9510
 1.9710	70.8822
 1.9700	70.8307
 1.9690	70.7867
 1.9680	70.8231
 1.9670	70.7723
 1.9660	70.6527
 1.9650	70.7731
 1.9640	70.7293
 1.9630	70.7526
 1.9620	70.7309
 1.9610	70.7480
 1.9600	70.7200
 1.9590	70.7262
 1.9580	70.7661
 1.9570	70.7019
 1.9560	70.7427
 1.9550	70.7443
 1.9540	70.6706
 1.9530	70.7154
 1.9520	70.6759
 1.9510	70.6818
 1.9500	70.6515
 1.9490	70.6646
 1.9480	70.6329
 1.9470	70.6347
 1.9460	70.7331
 1.9450	70.6425
 1.9440	70.6298
 1.9430	70.6350
 1.9420	70.6329
 1.9410	70.6146
 1.9400	70.5908
 1.9390	70.5712
 1.9380	70.5951
 1.9370	70.5110
 1.9360	70.4640
 1.9350	70.4869
 1.9340	70.4895
 1.9330	70.4522
 1.9320	70.3711
 1.9310	70.4264
 1.9300	70.3950
 1.9290	70.4110
 1.9280	70.4318
 1.9270	70.3931
 1.9260	70.2743
 1.9250	70.3292
 1.9240	70.1285
 1.9230	70.2353
 1.9220	70.1236
 1.9210	70.0058
 1.9200	69.9637
 1.9190	69.8777
 1.9180	69.7480
 1.9170	69.6463
 1.9160	69.3687
 1.9150	69.1771
 1.9140	68.9122
 1.9130	68.7122
 1.9120	68.2091
 1.9110	67.8004
 1.9100	67.3437
 1.9090	66.7561
 1.9080	65.9249
 1.9070	65.1077
 1.9060	64.1056
 1.9050	62.7924
 1.9040	61.5721
 1.9030	60.3326
 1.9020	59.2944
 1.9010	58.4146
 1.9000	57.7535
 1.8990	57.5927
 1.8980	57.6935
 1.8970	58.4096
 1.8960	59.4418
 1.8950	60.9524
 1.8940	62.5185
 1.8930	64.1997
 1.8920	65.7266
 1.8910	67.1719
 1.8900	68.3768
 1.8890	69.2575
 1.8880	69.8032
 1.8870	70.3239
 1.8860	70.6463
 1.8850	71.0158
 1.8840	71.2304
 1.8830	71.4627
 1.8820	71.5688
 1.8810	71.6485
 1.8800	71.8251
 1.8790	71.9161
 1.8780	72.0087
 1.8770	72.0226
 1.8760	72.1131
 1.8750	72.1706
 1.8740	72.0824
 1.8730	72.1793
 1.8720	72.2128
 1.8710	72.2597
 1.8700	72.1902
 1.8690	72.2584
 1.8680	72.2721
 1.8670	72.2698
 1.8660	72.2304
 1.8650	72.2475
 1.8640	72.2892
 1.8630	72.3065
 1.8620	72.2369
 1.8610	72.2490
 1.8600	72.2213
 1.8590	72.2899
 1.8580	72.1751
 1.8570	72.2227
 1.8560	72.1876
 1.8550	72.1656
 1.8540	72.0890
 1.8530	72.1404
 1.8520	72.0663
 1.8510	72.1352
 1.8500	72.1030
 1.8490	72.0772
 1.8480	72.0855
 1.8470	72.1247
 1.8460	72.0798
 1.8450	72.0997
 1.8440	72.1007
 1.8430	72.1367
 1.8420	72.1313
 1.8410	72.0966
 1.8400	72.1471
 1.8390	72.1305
 1.8380	72.1389
 1.8370	72.1944
 1.8360	72.1521
 1.8350	72.1926
 1.8340	72.2188
 1.8330	72.2540
 1.8320	72.2414
 1.8310	72.2364
 1.8300	72.2105
 1.8290	72.3307
 1.8280	72.2961
 1.8270	72.3406
 1.8260	72.3770
 1.8250	72.4587
 1.8240	72.4371
 1.8230	72.4472
 1.8220	72.4560
 1.8210	72.5230
 1.8200	72.5799
 1.8190	72.6801
 1.8180	72.6778
 1.8170	72.7440
 1.8160	72.8107
 1.8150	72.8685
 1.8140	72.8552
 1.8130	72.9134
 1.8120	73.0389
 1.8110	73.0939
 1.8100	73.1550
 1.8090	73.2347
 1.8080	73.2222
 1.8070	73.2289
 1.8060	73.3200
 1.8050	73.4298
 1.8040	73.4522
 1.8030	73.4459
 1.8020	73.5056
 1.8010	73.6081
 1.8000	73.6265
 1.7990	73.6387
 1.7980	73.6900
 1.7970	73.7129
 1.7960	73.6732
 1.7950	73.6564
 1.7940	73.6871
 1.7930	73.7494
 1.7920	73.7684
 1.7910	73.7813
 1.7900	73.8411
 1.7890	73.8350
 1.7880	73.7856
 1.7870	73.7679
 1.7860	73.7966
 1.7850	73.9022
 1.7840	73.9278
 1.7830	73.8538
 1.7820	73.8849
 1.7810	73.9268
 1.7800	73.8850
 1.7790	73.9218
 1.7780	73.9440
 1.7770	73.9487
 1.7760	74.0306
 1.7750	74.0241
 1.7740	74.0083
 1.7730	73.9832
 1.7720	73.9795
 1.7710	73.9855
 1.7700	73.9898
 1.7690	74.0851
 1.7680	74.1102
 1.7670	74.0859
 1.7660	74.0413
 1.7650	74.0498
 1.7640	74.0831
 1.7630	74.0523
 1.7620	74.0182
 1.7610	74.0520
 1.7600	74.1151
 1.7590	74.1460
 1.7580	74.1234
 1.7570	74.0945
 1.7560	74.1404
 1.7550	74.1536
 1.7540	74.1588
 1.7530	74.1342
 1.7520	74.1903
 1.7510	74.1786
 1.7500	74.2179
 1.7490	74.2281
 1.7480	74.2088
 1.7470	74.1971
 1.7460	74.1893
 1.7450	74.2232
 1.7440	74.2419
 1.7430	74.1977
 1.7420	74.2316
 1.7410	74.2733
 1.7400	74.3058
 1.7390	74.2727
 1.7380	74.2404
 1.7370	74.2631
 1.7360	74.3192
 1.7350	74.3034
 1.7340	74.2998
 1.7330	74.3105
 1.7320	74.3126
 1.7310	74.3196
 1.7300	74.3110
 1.7290	74.2700
 1.7280	74.3599
 1.7270	74.3536
 1.7260	74.3202
 1.7250	74.3085
 1.7240	74.3385
 1.7230	74.3358
 1.7220	74.3777
 1.7210	74.3056
 1.7200	74.3345
 1.7190	74.3849
 1.7180	74.3909
 1.7170	74.3340
 1.7160	74.3124
 1.7150	74.3106
 1.7140	74.3333
 1.7130	74.3452
 1.7120	74.3714
 1.7110	74.3308
 1.7100	74.3414
 1.7090	74.3208
 1.7080	74.3680
 1.7070	74.2725
 1.7060	74.3495
 1.7050	74.3470
 1.7040	74.3570
 1.7030	74.3012
 1.7020	74.3101
 1.7010	74.2491
 1.7000	74.2607
 1.6990	74.2838
 1.6980	74.3058
 1.6970	74.2987
 1.6960	74.2885
 1.6950	74.3416
 1.6940	74.4068
 1.6930	74.3090
 1.6920	74.3476
 1.6910	74.3403
 1.6900	74.3275
 1.6890	74.2763
 1.6880	74.3436
 1.6870	74.2974
 1.6860	74.3216
 1.6850	74.2427
 1.6840	74.3896
 1.6830	74.2537
 1.6820	74.2756
 1.6810	74.2990
 1.6800	74.4036
 1.6790	74.2974
 1.6780	74.2967
 1.6770	74.2562
 1.6760	74.2568
 1.6750	74.2292
 1.6740	74.2212
 1.6730	74.3114
 1.6720	74.2652
 1.6710	74.3010
 1.6700	74.3643
 1.6690	74.4769
 1.6680	74.2116
 1.6670	74.3014
 1.6660	74.3132
 1.6650	74.2968
 1.6640	74.3083
 1.6630	74.2386
 1.6620	74.3395
 1.6610	74.2566
 1.6600	74.3264
 1.6590	74.3461
 1.6580	74.2946
 1.6570	74.3089
 1.6560	74.3130
 1.6550	74.2789
 1.6540	74.3940
 1.6530	74.3068
 1.6520	74.3500
 1.6510	74.2294
 1.6500	74.3323
 1.6490	74.3267
 1.6480	74.2718
 1.6470	74.2240
 1.6460	74.2850
 1.6450	74.2055
 1.6440	74.3287
 1.6430	74.2207
 1.6420	74.3171
 1.6410	74.2265
 1.6400	74.2870
 1.6390	74.2477
 1.6380	74.2408
 1.6370	74.1917
 1.6360	74.2851
 1.6350	74.2314
 1.6340	74.3381
 1.6330	74.2032
 1.6320	74.2884
 1.6310	74.3007
 1.6300	74.2307
 1.6290	74.2506
 1.6280	74.2287
 1.6270	74.2896
 1.6260	74.2359
 1.6250	74.2607
 1.6240	74.2948
 1.6230	74.1756
 1.6220	74.2704
 1.6210	74.2327
 1.6200	74.1368
 1.6190	74.1732
 1.6180	74.3100
 1.6170	74.1596
 1.6160	74.2560
 1.6150	74.2025
 1.6140	74.2541
 1.6130	74.2054
 1.6120	74.1991
 1.6110	74.1776
 1.6100	74.2445
 1.6090	74.1356
 1.6080	74.2252
 1.6070	74.2295
 1.6060	74.1244
 1.6050	74.1923
 1.6040	74.2286
 1.6030	74.2011
 1.6020	74.1802
 1.6010	74.1534
 1.6000	74.2262
 1.5990	74.2279
 1.5980	74.1511
 1.5970	74.1862
 1.5960	74.1117
 1.5950	74.0680
 1.5940	74.0815
 1.5930	74.1648
 1.5920	74.1403
 1.5910	74.1183
 1.5900	74.1357
 1.5890	74.1065
 1.5880	74.1124
 1.5870	74.1470
 1.5860	74.0925
 1.5850	74.1369
 1.5840	74.1376
 1.5830	74.0615
 1.5820	74.0486
 1.5810	73.9644
 1.5800	74.0358
 1.5790	73.9977
 1.5780	73.9830
 1.5770	73.9799
 1.5760	73.9959
 1.5750	73.9853
 1.5740	74.0607
 1.5730	73.9916
 1.5720	73.9961
 1.5710	73.9110
 1.5700	73.9750
 1.5690	73.9352
 1.5680	73.9349
 1.5670	73.9545
 1.5660	73.9436
 1.5650	73.8941
 1.5640	73.9019
 1.5630	73.8046
 1.5620	73.8578
 1.5610	73.8003
 1.5600	73.8284
 1.5590	73.8171
 1.5580	73.8227
 1.5570	73.8217
 1.5560	73.8536
 1.5550	73.8567
 1.5540	73.8275
 1.5530	73.7781
 1.5520	73.7568
 1.5510	73.7713
 1.5500	73.8096
 1.5490	73.7117
 1.5480	73.6664
 1.5470	73.6762
 1.5460	73.7438
 1.5450	73.6770
 1.5440	73.7079
 1.5430	73.7037
 1.5420	73.6906
 1.5410	73.6753
 1.5400	73.6661
 1.5390	73.6514
 1.5380	73.6612
 1.5370	73.5943
 1.5360	73.5771
 1.5350	73.5688
 1.5340	73.5626
 1.5330	73.5395
 1.5320	73.5160
 1.5310	73.4697
 1.5300	73.4711
 1.5290	73.4858
 1.5280	73.5066
 1.5270	73.4241
 1.5260	73.3536
 1.5250	73.3716
 1.5240	73.4151
 1.5230	73.3652
 1.5220	73.2911
 1.5210	73.2792
 1.5200	73.2762
 1.5190	73.2850
 1.5180	73.2819
 1.5170	73.2651
 1.5160	73.2819
 1.5150	73.2490
 1.5140	73.1986
 1.5130	73.1420
 1.5120	73.1449
 1.5110	73.1573
 1.5100	73.1485
 1.5090	73.1100
 1.5080	73.0567
 1.5070	73.0107
 1.5060	72.9672
 1.5050	73.0009
 1.5040	72.9830
 1.5030	72.9161
 1.5020	72.8577
 1.5010	72.8162
 1.5000	72.8148
 1.4990	72.8369
 1.4980	72.8361
 1.4970	72.8361
 1.4960	72.8016
 1.4950	72.7620
 1.4940	72.7090
 1.4930	72.6528
 1.4920	72.6502
 1.4910	72.6368
 1.4900	72.5691
 1.4890	72.5489
 1.4880	72.5640
 1.4870	72.5308
 1.4860	72.5019
 1.4850	72.4634
 1.4840	72.4708
 1.4830	72.4132
 1.4820	72.3419
 1.4810	72.3022
 1.4800	72.2394
 1.4790	72.2457
 1.4780	72.2071
 1.4770	72.1241
 1.4760	72.0632
 1.4750	71.9849
 1.4740	71.8987
 1.4730	71.7579
 1.4720	71.5000
 1.4710	71.3079
 1.4700	71.1793
 1.4690	71.0743
 1.4680	71.0494
 1.4670	71.1055
 1.4660	71.2329
 1.4650	71.3873
 1.4640	71.4007
 1.4630	71.4411
 1.4620	71.4552
 1.4610	71.4376
 1.4600	71.3868
 1.4590	71.4395
 1.4580	71.3958
 1.4570	71.3632
 1.4560	71.3616
 1.4550	71.2984
 1.4540	71.2712
 1.4530	71.2395
 1.4520	71.1702
 1.4510	71.1179
 1.4500	71.0766
 1.4490	71.0157
 1.4480	70.9200
 1.4470	70.8726
 1.4460	70.8687
 1.4450	70.8362
 1.4440	70.7558
 1.4430	70.6876
 1.4420	70.6228
 1.4410	70.5459
 1.4400	70.4899
 1.4390	70.4895
 1.4380	70.3877
 1.4370	70.3431
 1.4360	70.2843
 1.4350	70.1828
 1.4340	70.0816
 1.4330	70.0505
 1.4320	69.8928
 1.4310	69.9165
 1.4300	69.7999
 1.4290	69.7441
 1.4280	69.6456
 1.4270	69.5747
 1.4260	69.4163
 1.4250	69.3023
 1.4240	69.1183
 1.4230	69.0132
 1.4220	68.9406
 1.4210	68.7827
 1.4200	68.6754
 1.4190	68.6674
 1.4180	68.5179
 1.4170	68.4588
 1.4160	68.3440
 1.4150	68.3168
 1.4140	68.1732
 1.4130	68.0739
 1.4120	67.8592
 1.4110	67.7704
 1.4100	67.3375
 1.4090	66.7960
 1.4080	65.9355
 1.4070	64.8019
 1.4060	63.6425
 1.4050	62.8342
 1.4040	62.8007
 1.4030	63.3661
 1.4020	64.4363
 1.4010	65.6400
 1.4000	66.5243
 1.3990	67.1729
 1.3980	67.4198
 1.3970	67.6067
 1.3960	67.7389
 1.3950	67.9061
 1.3940	67.9390
 1.3930	67.9119
 1.3920	67.9445
 1.3910	68.0289
 1.3900	68.0075
 1.3890	67.9452
 1.3880	67.8179
 1.3870	67.8611
 1.3860	67.8293
 1.3850	67.8295
 1.3840	67.7282
 1.3830	67.6055
 1.3820	67.4812
 1.3810	67.5459
 1.3800	67.4650
 1.3790	67.3785
 1.3780	67.3628
 1.3770	67.3285
 1.3760	67.2237
 1.3750	67.1144
 1.3740	67.1088
 1.3730	67.1599
 1.3720	66.9841
 1.3710	66.9289
 1.3700	66.8049
 1.3690	66.8351
 1.3680	66.7181
 1.3670	66.6738
 1.3660	66.5935
 1.3650	66.5961
 1.3640	66.3957
 1.3630	66.3634
 1.3620	66.3208
 1.3610	66.2823
 1.3600	66.2520
 1.3590	66.2619
 1.3580	66.1445
 1.3570	66.0913
 1.3560	66.1207
 1.3550	65.9505
 1.3540	65.9388
 1.3530	65.8948
 1.3520	65.7717
 1.3510	65.8333
 1.3500	65.6159
 1.3490	65.6333
 1.3480	65.5563
 1.3470	65.4653
 1.3460	65.4035
 1.3450	65.4792
 1.3440	65.2933
 1.3430	65.2703
 1.3420	65.0408
 1.3410	65.0876
 1.3400	64.9666
 1.3390	64.8728
 1.3380	64.8339
 1.3370	64.7531
 1.3360	64.6274
 1.3350	64.6626
 1.3340	64.5652
 1.3330	64.4944
 1.3320	64.3406
 1.3310	64.3811
 1.3300	64.2229
 1.3290	64.1585
 1.3280	64.0800
 1.3270	63.9270
 1.3260	63.9132
 1.3250	63.8773
 1.3240	63.7219
 1.3230	63.7133
 1.3220	63.5664
 1.3210	63.4858
 1.3200	63.4507
 1.3190	63.3791
 1.3180	63.2968
 1.3170	63.1641
 1.3160	63.0794
 1.3150	63.1188
 1.3140	62.9688
 1.3130	62.9378
 1.3120	62.9065
 1.3110	62.7069
 1.3100	62.5885
 1.3090	62.5799
 1.3080	62.5448
 1.3070	62.4273
 1.3060	62.2747
 1.3050	62.2624
 1.3040	62.1655
 1.3030	62.0875
 1.3020	61.9850
 1.3010	61.9541
 1.3000	61.8766
 1.2990	61.7043
 1.2980	61.6068
 1.2970	61.6443
 1.2960	61.5189
 1.2950	61.5028
 1.2940	61.3182
 1.2930	61.2212
 1.2920	61.1748
 1.2910	61.1093
 1.2900	61.0217
 1.2890	61.0292
 1.2880	60.9362
 1.2870	60.8673
 1.2860	60.7418
 1.2850	60.6830
 1.2840	60.6143
 1.2830	60.5283
 1.2820	60.4990
 1.2810	60.4682
 1.2800	60.3280
 1.2790	60.2347
 1.2780	60.1409
 1.2770	60.0930
 1.2760	60.0188
 1.2750	59.9250
 1.2740	59.8986
 1.2730	59.8876
 1.2720	59.7771
 1.2710	59.6970
 1.2700	59.5896
 1.2690	59.5591
 1.2680	59.4982
 1.2670	59.4337
 1.2660	59.3507
 1.2650	59.3548
 1.2640	59.2566
 1.2630	59.2147
 1.2620	59.1338
 1.2610	59.0129
 1.2600	58.9452
 1.2590	58.8941
 1.2580	58.8149
 1.2570	58.7082
 1.2560	58.6151
 1.2550	58.6686
 1.2540	58.6462
 1.2530	58.5694
 1.2520	58.5174
 1.2510	58.4664
 1.2500	58.3770
 1.2490	58.3104
 1.2480	58.2350
 1.2470	58.1869
 1.2460	58.1056
 1.2450	58.0670
 1.2440	58.0496
 1.2430	57.9787
 1.2420	57.8659
 1.2410	57.8555
 1.2400	57.8334
 1.2390	57.7839
 1.2380	57.7542
 1.2370	57.6856
 1.2360	57.5564
 1.2350	57.5359
 1.2340	57.4921
 1.2330	57.4035
 1.2320	57.3643
 1.2310	57.4053
 1.2300	57.3494
 1.2290	57.2602
 1.2280	57.2282
 1.2270	57.2313
 1.2260	57.1723
 1.2250	57.1136
 1.2240	57.0724
 1.2230	57.0603
 1.2220	57.0044
 1.2210	56.9389
 1.2200	56.8422
 1.2190	56.7999
 1.2180	56.7985
 1.2170	56.7916
 1.2160	56.7473
 1.2150	56.6567
 1.2140	56.6349
 1.2130	56.6214
 1.2120	56.6291
 1.2110	56.5941
 1.2100	56.5428
 1.2090	56.5204
 1.2080	56.4599
 1.2070	56.4080
 1.2060	56.3919
 1.2050	56.3139
 1.2040	56.3165
 1.2030	56.3673
 1.2020	56.3252
 1.2010	56.2176
 1.2000	56.2010
 1.1990	56.2074
 1.1980	56.2178
 1.1970	56.1665
 1.1960	56.0920
 1.1950	56.0598
 1.1940	56.0922
 1.1930	56.0697
 1.1920	56.0639
 1.1910	56.0287
 1.1900	55.9653
 1.1890	55.9970
 1.1880	55.9554
 1.1870	56.0023
 1.1860	56.0072
 1.1850	55.9309
 1.1840	55.8990
 1.1830	55.8314
 1.1820	55.7926
 1.1810	55.8025
 1.1800	55.8227
 1.1790	55.8118
 1.1780	55.8031
 1.1770	55.7427
 1.1760	55.7458
 1.1750	55.7547
 1.1740	55.7375
 1.1730	55.6957
 1.1720	55.6577
 1.1710	55.6459
 1.1700	55.6289
 1.1690	55.6099
 1.1680	55.6155
 1.1670	55.5852
 1.1660	55.5833
 1.1650	55.5940
 1.1640	55.5662
 1.1630	55.5505
 1.1620	55.5997
 1.1610	55.5488
 1.1600	55.4942
 1.1590	55.4860
 1.1580	55.5342
 1.1570	55.4893
 1.1560	55.4336
 1.1550	55.3511
 1.1540	55.2356
 1.1530	55.1792
 1.1520	55.2128
 1.1510	55.2561
 1.1500	55.3248
 1.1490	55.2998
 1.1480	55.4022
 1.1470	55.3822
 1.1460	55.3646
 1.1450	55.3552
 1.1440	55.4100
 1.1430	55.4016
 1.1420	55.4075
 1.1410	55.3543
 1.1400	55.3317
 1.1390	55.3183
 1.1380	55.3035
 1.1370	55.2820
 1.1360	55.2906
 1.1350	55.2756
 1.1340	55.3000
 1.1330	55.2336
 1.1320	55.3102
 1.1310	55.2193
 1.1300	55.2004
 1.1290	55.2108
 1.1280	55.2104
 1.1270	55.1515
 1.1260	55.1926
 1.1250	55.1569
 1.1240	55.1804
 1.1230	55.1060
 1.1220	55.1255
 1.1210	55.1073
 1.1200	55.1754
 1.1190	55.0427
 1.1180	55.0981
 1.1170	55.0738
 1.1160	55.0676
 1.1150	55.0360
 1.1140	55.0436
 1.1130	55.0168
 1.1120	54.9686
 1.1110	54.9744
 1.1100	54.9785
 1.1090	54.9053
 1.1080	54.9078
 1.1070	54.9327
 1.1060	54.9110
 1.1050	54.8233
 1.1040	54.8090
 1.1030	54.7556
 1.1020	54.7542
 1.1010	54.7849
 1.1000	54.7376
 1.0990	54.6886
 1.0980	54.6378
 1.0970	54.5436
 1.0960	54.5796
 1.0950	54.5752
 1.0940	54.5958
 1.0930	54.5064
 1.0920	54.5687
 1.0910	54.4892
 1.0900	54.4668
 1.0890	54.3614
 1.0880	54.4666
 1.0870	54.3998
 1.0860	54.2916
 1.0850	54.1736
 1.0840	54.3277
 1.0830	54.1765
 1.0820	54.1873
 1.0810	54.1438
 1.0800	54.0963
 1.0790	53.9513
 1.0780	53.9952
 1.0770	53.9460
 1.0760	54.0339
 1.0750	53.9018
 1.0740	53.8852
 1.0730	53.8121
 1.0720	53.8029
 1.0710	53.8161
 1.0700	53.6788
 1.0690	53.6158
 1.0680	53.5951
 1.0670	53.5379
 1.0660	53.5121
 1.0650	53.4767
 1.0640	53.4809
 1.0630	53.3488
 1.0620	53.3345
 1.0610	53.2733
 1.0600	53.2492
 1.0590	53.0944
 1.0580	53.1071
 1.0570	53.0659
 1.0560	52.9520
 1.0550	52.9592
 1.0540	52.8823
 1.0530	52.8364
 1.0520	52.8411
 1.0510	52.7500
 1.0500	52.7227
 1.0490	52.6170
 1.0480	52.5895
 1.0470	52.5200
 1.0460	52.4287
 1.0450	52.3905
 1.0440	52.4464
 1.0430	52.3073
 1.0420	52.3185
 1.0410	52.2125
 1.0400	52.1756
 1.0390	52.0832
 1.0380	52.0678
 1.0370	52.0075
 1.0360	51.9921
 1.0350	51.9189
 1.0340	51.8701
 1.0330	51.7865
 1.0320	51.7762
 1.0310	51.7361
 1.0300	51.6329
 1.0290	51.5918
 1.0280	51.5478
 1.0270	51.5124
 1.0260	51.4517
 1.0250	51.3865
 1.0240	51.3496
 1.0230	51.3445
 1.0220	51.2792
 1.0210	51.1581
 1.0200	51.1815
 1.0190	51.1029
 1.0180	51.1220
 1.0170	51.0392
 1.0160	51.0372
 1.0150	50.9917
 1.0140	50.9729
 1.0130	50.8292
 1.0120	50.8778
 1.0110	50.8014
 1.0100	50.7970
 1.0090	50.7620
 1.0080	50.7269
 1.0070	50.6551
 1.0060	50.7263
 1.0050	50.6016
 1.0040	50.6383
 1.0030	50.5793
 1.0020	50.5682
 1.0010	50.4538
 1.0000	50.5216
 0.9990	50.5679
 0.9980	50.4860
 0.9970	50.3977
 0.9960	50.4258
 0.9950	50.4464
 0.9940	50.4479
 0.9930	50.3696
 0.9920	50.3565
 0.9910	50.3714
 0.9900	50.4152
 0.9890	50.3696
 0.9880	50.2903
 0.9870	50.2623
 0.9860	50.3053
 0.9850	50.3122
 0.9840	50.2935
 0.9830	50.2594
 0.9820	50.3029
 0.9810	50.2045
 0.9800	50.3021
 0.9790	50.3532
 0.9780	50.3563
 0.9770	50.3270
 0.9760	50.3281
 0.9750	50.3312
 0.9740	50.4254
 0.9730	50.3701
 0.9720	50.3427
 0.9710	50.3445
 0.9700	50.3800
 0.9690	50.4638
 0.9680	50.4529
 0.9670	50.4530
 0.9660	50.5245
 0.9650	50.4644
 0.9640	50.5096
 0.9630	50.5205
 0.9620	50.5641
 0.9610	50.5845
 0.9600	50.5377
 0.9590	50.5475
 0.9580	50.6622
 0.9570	50.7396
 0.9560	50.7129
 0.9550	50.7470
 0.9540	50.8625
 0.9530	50.8819
 0.9520	50.8349
 0.9510	50.8753
 0.9500	50.9811
 0.9490	51.0234
 0.9480	51.0710
 0.9470	51.0827
 0.9460	51.1754
 0.9450	51.2463
 0.9440	51.2476
 0.9430	51.2757
 0.9420	51.3578
 0.9410	51.3973
 0.9400	51.4324
 0.9390	51.4783
 0.9380	51.5943
 0.9370	51.6507
 0.9360	51.7199
 0.9350	51.8150
 0.9340	51.8689
 0.9330	51.8856
 0.9320	51.9543
 0.9310	52.0197
 0.9300	52.0731
 0.9290	52.1563
 0.9280	52.2284
 0.9270	52.2770
 0.9260	52.3804
 0.9250	52.4928
 0.9240	52.5733
 0.9230	52.6566
 0.9220	52.7200
 0.9210	52.7590
 0.9200	52.8177
 0.9190	52.9118
 0.9180	53.0187
 0.9170	53.1188
 0.9160	53.1439
 0.9150	53.2365
 0.9140	53.3413
 0.9130	53.4121
 0.9120	53.4523
 0.9110	53.5339
 0.9100	53.6978
 0.9090	53.8267
 0.9080	53.8590
 0.9070	53.9612
 0.9060	54.0752
 0.9050	54.1406
 0.9040	54.1579
 0.9030	54.2524
 0.9020	54.3653
 0.9010	54.5150
 0.9000	54.6689
 0.8990	54.7761
 0.8980	54.7883
 0.8970	54.8965
 0.8960	54.9819
 0.8950	55.0999
 0.8940	55.1939
 0.8930	55.2797
 0.8920	55.3750
 0.8910	55.4559
 0.8900	55.5548
 0.8890	55.6446
 0.8880	55.7254
 0.8870	55.8549
 0.8860	55.9716
 0.8850	56.0973
 0.8840	56.1406
 0.8830	56.2715
 0.8820	56.4120
 0.8810	56.4853
 0.8800	56.5471
 0.8790	56.6823
 0.8780	56.7886
 0.8770	56.9020
 0.8760	57.0632
 0.8750	57.1581
 0.8740	57.2218
 0.8730	57.3284
 0.8720	57.4856
 0.8710	57.5688
 0.8700	57.6263
 0.8690	57.7543
 0.8680	57.8478
 0.8670	57.9212
 0.8660	58.0911
 0.8650	58.2785
 0.8640	58.3363
 0.8630	58.4252
 0.8620	58.5329
 0.8610	58.7025
 0.8600	59.0974
 0.8590	59.2404
 0.8580	59.2722
 0.8570	59.3247
 0.8560	59.5542
 0.8550	59.6345
 0.8540	59.7952
 0.8530	59.8606
 0.8520	59.9729
 0.8510	60.1181
 0.8500	60.2388
 0.8490	60.3199
 0.8480	60.4100
 0.8470	60.4705
 0.8460	60.6416
 0.8450	60.7705
 0.8440	60.8709
 0.8430	60.9945
 0.8420	61.1201
 0.8410	61.2096
 0.8400	61.3136
 0.8390	61.3999
 0.8380	61.5091
 0.8370	61.6289
 0.8360	61.7593
 0.8350	61.8897
 0.8340	61.9379
 0.8330	62.1248
 0.8320	62.2128
 0.8310	62.2420
 0.8300	62.4056
 0.8290	62.4597
 0.8280	62.5717
 0.8270	62.6905
 0.8260	62.7354
 0.8250	62.8336
 0.8240	62.9782
 0.8230	63.0864
 0.8220	63.1552
 0.8210	63.2909
 0.8200	63.3197
 0.8190	63.4460
 0.8180	63.5405
 0.8170	63.6579
 0.8160	63.7238
 0.8150	63.7947
 0.8140	63.9212
 0.8130	63.9803
 0.8120	64.1159
 0.8110	64.2326
 0.8100	64.2522
 0.8090	64.3395
 0.8080	64.4207
 0.8070	64.5110
 0.8060	64.6195
 0.8050	64.6470
 0.8040	64.6980
 0.8030	64.8172
 0.8020	64.8552
 0.8010	64.9601
 0.8000	65.0386
 0.7990	65.0557
 0.7980	65.1130
 0.7970	65.2030
 0.7960	65.2678
 0.7950	65.2955
 0.7940	65.3473
 0.7930	65.4038
 0.7920	65.4668
 0.7910	65.5362
 0.7900	65.5937
 0.7890	65.6454
 0.7880	65.7303
 0.7870	65.7261
 0.7860	65.7770
 0.7850	65.8440
 0.7840	65.8723
 0.7830	65.9059
 0.7820	65.9653
 0.7810	66.0159
 0.7800	66.0490
 0.7790	66.0836
 0.7780	66.1264
 0.7770	66.0785
 0.7760	66.1418
 0.7750	66.2131
 0.7740	66.2106
 0.7730	66.2131
 0.7720	66.2629
 0.7710	66.2881
 0.7700	66.3439
 0.7690	66.3394
 0.7680	66.3737
 0.7670	66.3891
 0.7660	66.3756
 0.7650	66.3793
 0.7640	66.4279
 0.7630	66.4167
 0.7620	66.4658
 0.7610	66.4477
 0.7600	66.4451
 0.7590	66.4860
 0.7580	66.4614
 0.7570	66.4593
 0.7560	66.4376
 0.7550	66.4862
 0.7540	66.4834
 0.7530	66.4599
 0.7520	66.4875
 0.7510	66.4684
 0.7500	66.4650
 0.7490	66.4239
 0.7480	66.4315
 0.7470	66.4066
 0.7460	66.3937
 0.7450	66.3629
 0.7440	66.3598
 0.7430	66.3574
 0.7420	66.3318
 0.7410	66.3242
 0.7400	66.3235
 0.7390	66.2855
 0.7380	66.2642
 0.7370	66.2430
 0.7360	66.1962
 0.7350	66.1856
 0.7340	66.1753
 0.7330	66.1433
 0.7320	66.1252
 0.7310	66.0739
 0.7300	66.0823
 0.7290	66.0391
 0.7280	66.0037
 0.7270	65.9863
 0.7260	65.9366
 0.7250	65.9062
 0.7240	65.9072
 0.7230	65.8582
 0.7220	65.8135
 0.7210	65.7779
 0.7200	65.7422
 0.7190	65.6947
 0.7180	65.6711
 0.7170	65.6226
 0.7160	65.6011
 0.7150	65.5463
 0.7140	65.5190
 0.7130	65.4835
 0.7120	65.4676
 0.7110	65.4125
 0.7100	65.3850
 0.7090	65.3270
 0.7080	65.2890
 0.7070	65.2600
 0.7060	65.2056
 0.7050	65.1553
 0.7040	65.0879
 0.7030	65.0451
 0.7020	65.0100
 0.7010	64.9784
 0.7000	64.9467
 0.6990	64.8997
 0.6980	64.8570
 0.6970	64.8001
 0.6960	64.7683
 0.6950	64.7046
 0.6940	64.6640
 0.6930	64.6331
 0.6920	64.5850
 0.6910	64.5557
 0.6900	64.4866
 0.6890	64.4203
 0.6880	64.3724
 0.6870	64.3398
 0.6860	64.2851
 0.6850	64.2443
 0.6840	64.2009
 0.6830	64.1376
 0.6820	64.0781
 0.6810	64.0300
 0.6800	63.9821
 0.6790	63.9417
 0.6780	63.8799
 0.6770	63.8295
 0.6760	63.7946
 0.6750	63.7392
 0.6740	63.6823
 0.6730	63.6332
 0.6720	63.5853
 0.6710	63.5433
 0.6700	63.5116
 0.6690	63.4630
 0.6680	63.4154
 0.6670	63.3682
 0.6660	63.3308
 0.6650	63.2822
 0.6640	63.2315
 0.6630	63.1910
 0.6620	63.1487
 0.6610	63.1098
 0.6600	63.0665
 0.6590	63.0302
 0.6580	63.0031
 0.6570	62.9647
 0.6560	62.9330
 0.6550	62.8947
 0.6540	62.8513
 0.6530	62.8181
 0.6520	62.7854
 0.6510	62.7565
 0.6500	62.7154
 0.6490	62.6691
 0.6480	62.6357
 0.6470	62.5978
 0.6460	62.5688
 0.6450	62.5386
 0.6440	62.5140
 0.6430	62.4887
 0.6420	62.4593
 0.6410	62.4250
 0.6400	62.3974
 0.6390	62.3706
 0.6380	62.3315
 0.6370	62.2916
 0.6360	62.2569
 0.6350	62.2207
 0.6340	62.1934
 0.6330	62.1745
 0.6320	62.1461
 0.6310	62.1191
 0.6300	62.0898
 0.6290	62.0526
 0.6280	62.0182
 0.6270	61.9945
 0.6260	61.9699
 0.6250	61.9375
 0.6240	61.9148
 0.6230	61.8806
 0.6220	61.8406
 0.6210	61.8136
 0.6200	61.7811
 0.6190	61.7440
 0.6180	61.7189
 0.6170	61.7031
 0.6160	61.6594
 0.6150	61.6262
 0.6140	61.5984
 0.6130	61.5687
 0.6120	61.5367
 0.6110	61.5146
 0.6100	61.4824
 0.6090	61.4525
 0.6080	61.4319
 0.6070	61.3947
 0.6060	61.3554
 0.6050	61.3147
 0.6040	61.2947
 0.6030	61.2558
 0.6020	61.2174
 0.6010	61.1842
 0.6000	61.1524
 0.5990	61.1401
 0.5980	61.1256
 0.5970	61.1079
 0.5960	61.0850
 0.5950	61.0693
 0.5940	61.0455
 0.5930	61.0183
 0.5920	60.9847
 0.5910	60.9427
 0.5900	60.9102
 0.5890	60.8892
 0.5880	60.8560
 0.5870	60.8237
 0.5860	60.8030
 0.5850	60.7722
 0.5840	60.7545
 0.5830	60.7285
 0.5820	60.6909
 0.5810	60.6604
 0.5800	60.6303
 0.5790	60.6092
 0.5780	60.5746
 0.5770	60.5442
 0.5760	60.5198
 0.5750	60.4986
 0.5740	60.4725
 0.5730	60.4225
 0.5720	60.4010
 0.5710	60.3693
 0.5700	60.3448
 0.5690	60.3120
 0.5680	60.2951
 0.5670	60.2618
 0.5660	60.2229
 0.5650	60.1925
 0.5640	60.1524
 0.5630	60.1255
 0.5620	60.0972
 0.5610	60.0397
 0.5600	60.0089
 0.5590	59.9686
 0.5580	59.9313
 0.5570	59.8855
 0.5560	59.8572
 0.5550	59.8088
 0.5540	59.7689
 0.5530	59.7332
 0.5520	59.6998
 0.5510	59.6539
 0.5500	59.6214
 0.5490	59.5856
 0.5480	59.5362
 0.5470	59.4989
 0.5460	59.4561
 0.5450	59.3979
 0.5440	59.3779
 0.5430	59.3262
 0.5420	59.2893
 0.5410	59.2374
 0.5400	59.1853
 0.5390	59.1408
 0.5380	59.0943
 0.5370	59.0509
 0.5360	59.0024
 0.5350	58.9547
 0.5340	58.8876
 0.5330	58.8714
 0.5320	58.8284
 0.5310	58.7648
 0.5300	58.7121
 0.5290	58.6756
 0.5280	58.6205
 0.5270	58.5561
 0.5260	58.5161
 0.5250	58.4489
 0.5240	58.3980
 0.5230	58.3388
 0.5220	58.2892
 0.5210	58.2292
 0.5200	58.1725
 0.5190	58.1243
 0.5180	58.0584
 0.5170	57.9924
 0.5160	57.9462
 0.5150	57.8745
 0.5140	57.8144
 0.5130	57.7635
 0.5120	57.7016
 0.5110	57.6347
 0.5100	57.5893
 0.5090	57.5273
 0.5080	57.4557
 0.5070	57.3968
 0.5060	57.3284
 0.5050	57.2663
 0.5040	57.1943
 0.5030	57.1241
 0.5020	57.0557
 0.5010	56.9873
 0.5000	56.9201
 0.4990	56.8393
 0.4980	56.7706
 0.4970	56.6886
 0.4960	56.6113
 0.4950	56.5343
 0.4940	56.4953
 0.4930	56.4144
 0.4920	56.3587
 0.4910	56.3047
 0.4900	56.2478
 0.4890	56.2118
 0.4880	56.1737
 0.4870	56.1363
 0.4860	56.0712
 0.4850	56.0500
 0.4840	55.9839
 0.4830	55.9721
 0.4820	55.9269
 0.4810	55.8893
 0.4800	55.8452
 0.4790	55.8377
 0.4780	55.8022
 0.4770	55.7670
 0.4760	55.7426
 0.4750	55.6959
 0.4740	55.6752
 0.4730	55.6542
 0.4720	55.6292
 0.4710	55.5980
 0.4700	55.5785
 0.4690	55.5635
 0.4680	55.5356
 0.4670	55.5102
 0.4660	55.4884
 0.4650	55.4484
 0.4640	55.4211
 0.4630	55.3964
 0.4620	55.3628
 0.4610	55.3239
 0.4600	55.2971
 0.4590	55.2443
 0.4580	55.2136
 0.4570	55.1887
 0.4560	55.1379
 0.4550	55.0920
 0.4540	55.0562
 0.4530	55.0082
 0.4520	54.9542
 0.4510	54.8969
 0.4500	54.8432
 0.4490	54.7608
 0.4480	54.6933
 0.4470	54.6167
 0.4460	54.5175
 0.4450	54.4331
 0.4440	54.3277
 0.4430	54.1982
 0.4420	54.1174
 0.4410	54.0050
 0.4400	53.9013
 0.4390	53.7998
 0.4380	53.6928
 0.4370	53.6115
 0.4360	53.4971
 0.4350	53.3921
 0.4340	53.3039
 0.4330	53.1963
 0.4320	53.0742
 0.4310	52.9266
 0.4300	52.8015
 0.4290	52.6686
 0.4280	52.5314
 0.4270	52.4052
 0.4260	52.2546
 0.4250	52.1077
 0.4240	51.9814
 0.4230	51.8482
 0.4220	51.7182
 0.4210	51.5928
 0.4200	51.4711
 0.4190	51.3491
 0.4180	51.2429
 0.4170	51.1361
 0.4160	51.0485
 0.4150	50.9543
 0.4140	50.8456
 0.4130	50.7522
 0.4120	50.6502
 0.4110	50.5529
 0.4100	50.4436
 0.4090	50.3467
 0.4080	50.2419
 0.4070	50.1309
 0.4060	50.0120
 0.4050	49.9024
 0.4040	49.7770
 0.4030	49.6394
 0.4020	49.5080
 0.4010	49.3861
 0.4000	49.2635
