Name: Brucite Mg(OH)_2
Type: Mineral
Class: Hydroxide
Subclass: None
Particle Size: Medium
Sample No.: OH-1A
Owner: JPL
Wavelength Range: VSWIR
Origin: USA, Nevada, Nye County, Gabbs.
Collection Date: N/A
Description: Particle size was 45-125um.Collected by:  JPL Original ASTER Spectral Library name was jpl.perkin.mineral.hydroxide.none.medium.oh01a.spectrum.txt
Measurement: Hemispherical reflectance
First Column: X
Second Column: Y
X Units: Wavelength (micrometers)
Y Units:Reflectance (percent)
First X Value:  2.5000
Last X Value:  0.4000
Number of X Values: 2101
Additional Information: mineral.hydroxide.none.medium.vswir.oh-1a.jpl.perkin.ancillary.txt

 2.5000	 7.6473
 2.4990	 7.3369
 2.4980	 6.9973
 2.4970	 6.9941
 2.4960	 5.9804
 2.4950	 6.7097
 2.4940	 6.0152
 2.4930	 6.2685
 2.4920	 5.4658
 2.4910	 5.6576
 2.4900	 5.3666
 2.4890	 5.6521
 2.4880	 5.1345
 2.4870	 5.1668
 2.4860	 5.0132
 2.4850	 4.9912
 2.4840	 4.8654
 2.4830	 4.8853
 2.4820	 4.7467
 2.4810	 4.6600
 2.4800	 4.5088
 2.4790	 4.7875
 2.4780	 4.3783
 2.4770	 4.6100
 2.4760	 4.4854
 2.4750	 4.6990
 2.4740	 4.5449
 2.4730	 4.6942
 2.4720	 4.8718
 2.4710	 5.0651
 2.4700	 5.1180
 2.4690	 5.2349
 2.4680	 5.1710
 2.4670	 5.6485
 2.4660	 5.5780
 2.4650	 5.7485
 2.4640	 5.8017
 2.4630	 6.0454
 2.4620	 6.1008
 2.4610	 6.3045
 2.4600	 6.2966
 2.4590	 6.6869
 2.4580	 6.6271
 2.4570	 6.7102
 2.4560	 6.9096
 2.4550	 7.1481
 2.4540	 7.2187
 2.4530	 7.5127
 2.4520	 7.5065
 2.4510	 7.8028
 2.4500	 7.7963
 2.4490	 8.0366
 2.4480	 8.1071
 2.4470	 8.4446
 2.4460	 8.4038
 2.4450	 8.8040
 2.4440	 8.8783
 2.4430	 9.1582
 2.4420	 9.3139
 2.4410	 9.6157
 2.4400	 9.6285
 2.4390	 9.8780
 2.4380	10.1880
 2.4370	10.4657
 2.4360	10.4192
 2.4350	10.9205
 2.4340	11.1002
 2.4330	11.3396
 2.4320	11.5871
 2.4310	11.9971
 2.4300	12.2323
 2.4290	12.7009
 2.4280	12.9005
 2.4270	13.4356
 2.4260	13.8343
 2.4250	14.3135
 2.4240	14.8443
 2.4230	15.4322
 2.4220	15.9986
 2.4210	16.7488
 2.4200	17.3371
 2.4190	18.1348
 2.4180	18.7711
 2.4170	19.6038
 2.4160	20.3592
 2.4150	21.2323
 2.4140	22.0221
 2.4130	22.8732
 2.4120	23.7094
 2.4110	24.6688
 2.4100	25.3008
 2.4090	26.2820
 2.4080	26.9917
 2.4070	27.6750
 2.4060	28.2703
 2.4050	29.0287
 2.4040	29.6626
 2.4030	30.2521
 2.4020	30.7176
 2.4010	31.1688
 2.4000	31.6319
 2.3990	32.1038
 2.3980	32.4447
 2.3970	32.7837
 2.3960	32.9979
 2.3950	33.2304
 2.3940	33.5843
 2.3930	33.8208
 2.3920	33.9705
 2.3910	34.2548
 2.3900	34.3529
 2.3890	34.5300
 2.3880	34.6304
 2.3870	34.6935
 2.3860	34.7657
 2.3850	34.8659
 2.3840	34.9898
 2.3830	35.0983
 2.3820	35.1781
 2.3810	35.1814
 2.3800	35.1986
 2.3790	35.2050
 2.3780	35.2462
 2.3770	35.2949
 2.3760	35.2534
 2.3750	35.2740
 2.3740	35.2099
 2.3730	35.2899
 2.3720	35.2434
 2.3710	35.1769
 2.3700	35.1147
 2.3690	35.0537
 2.3680	34.9858
 2.3670	34.8860
 2.3660	34.7897
 2.3650	34.7545
 2.3640	34.6411
 2.3630	34.5158
 2.3620	34.3883
 2.3610	34.2427
 2.3600	34.0873
 2.3590	33.9015
 2.3580	33.6893
 2.3570	33.5064
 2.3560	33.3133
 2.3550	33.0451
 2.3540	32.8136
 2.3530	32.5101
 2.3520	32.1517
 2.3510	31.8397
 2.3500	31.4959
 2.3490	31.1372
 2.3480	30.7740
 2.3470	30.3370
 2.3460	29.9353
 2.3450	29.4871
 2.3440	28.9823
 2.3430	28.5032
 2.3420	28.0630
 2.3410	27.5574
 2.3400	27.1219
 2.3390	26.6197
 2.3380	26.0743
 2.3370	25.5802
 2.3360	25.1462
 2.3350	24.6898
 2.3340	24.2332
 2.3330	23.7697
 2.3320	23.3937
 2.3310	22.9758
 2.3300	22.5121
 2.3290	22.1287
 2.3280	21.8294
 2.3270	21.5361
 2.3260	21.2794
 2.3250	20.9984
 2.3240	20.8454
 2.3230	20.6895
 2.3220	20.5322
 2.3210	20.3553
 2.3200	20.3198
 2.3190	20.2238
 2.3180	20.2086
 2.3170	20.2015
 2.3160	20.2816
 2.3150	20.3175
 2.3140	20.3948
 2.3130	20.5675
 2.3120	20.6912
 2.3110	20.7713
 2.3100	21.0596
 2.3090	21.2072
 2.3080	21.5155
 2.3070	21.7103
 2.3060	21.9816
 2.3050	22.2162
 2.3040	22.4804
 2.3030	22.7479
 2.3020	23.0833
 2.3010	23.3459
 2.3000	23.6989
 2.2990	23.9904
 2.2980	24.3280
 2.2970	24.6001
 2.2960	24.9364
 2.2950	25.2274
 2.2940	25.5189
 2.2930	25.7674
 2.2920	26.0744
 2.2910	26.2637
 2.2900	26.6090
 2.2890	26.7732
 2.2880	27.0888
 2.2870	27.3295
 2.2860	27.6240
 2.2850	27.7645
 2.2840	28.0496
 2.2830	28.1067
 2.2820	28.3625
 2.2810	28.4601
 2.2800	28.6762
 2.2790	28.6684
 2.2780	28.9095
 2.2770	28.9930
 2.2760	29.0521
 2.2750	29.1203
 2.2740	29.2318
 2.2730	29.2390
 2.2720	29.3418
 2.2710	29.4044
 2.2700	29.4561
 2.2690	29.4335
 2.2680	29.6304
 2.2670	29.4701
 2.2660	29.6167
 2.2650	29.5566
 2.2640	29.7317
 2.2630	29.6531
 2.2620	29.7971
 2.2610	29.7709
 2.2600	29.8773
 2.2590	29.8654
 2.2580	29.9373
 2.2570	29.9137
 2.2560	30.0403
 2.2550	29.9863
 2.2540	30.0650
 2.2530	30.0788
 2.2520	30.1988
 2.2510	30.2369
 2.2500	30.3631
 2.2490	30.3795
 2.2480	30.5166
 2.2470	30.5447
 2.2460	30.6876
 2.2450	30.7279
 2.2440	30.8501
 2.2430	30.8810
 2.2420	31.1134
 2.2410	31.0660
 2.2400	31.3082
 2.2390	31.3482
 2.2380	31.5173
 2.2370	31.6735
 2.2360	31.8125
 2.2350	31.8658
 2.2340	32.2023
 2.2330	32.3001
 2.2320	32.4098
 2.2310	32.5554
 2.2300	32.8435
 2.2290	32.9363
 2.2280	33.2365
 2.2270	33.2512
 2.2260	33.4816
 2.2250	33.6617
 2.2240	33.9043
 2.2230	34.0154
 2.2220	34.1689
 2.2210	34.4019
 2.2200	34.6091
 2.2190	34.6958
 2.2180	35.0011
 2.2170	35.0998
 2.2160	35.3719
 2.2150	35.4751
 2.2140	35.7099
 2.2130	35.7882
 2.2120	36.0238
 2.2110	35.9922
 2.2100	36.4674
 2.2090	36.3449
 2.2080	36.5372
 2.2070	36.7023
 2.2060	36.8837
 2.2050	36.9674
 2.2040	37.1624
 2.2030	37.1817
 2.2020	37.3469
 2.2010	37.5887
 2.2000	37.6901
 2.1990	37.8500
 2.1980	38.1039
 2.1970	38.2291
 2.1960	38.5578
 2.1950	38.6497
 2.1940	38.9002
 2.1930	39.0736
 2.1920	39.4773
 2.1910	39.6428
 2.1900	40.0636
 2.1890	40.2656
 2.1880	40.6760
 2.1870	40.8760
 2.1860	41.2899
 2.1850	41.5984
 2.1840	42.0409
 2.1830	42.4201
 2.1820	42.8056
 2.1810	43.1865
 2.1800	43.6092
 2.1790	43.9379
 2.1780	44.3025
 2.1770	44.5776
 2.1760	45.0522
 2.1750	45.2821
 2.1740	45.6674
 2.1730	46.0021
 2.1720	46.3841
 2.1710	46.6601
 2.1700	46.9314
 2.1690	47.3010
 2.1680	47.5873
 2.1670	47.7105
 2.1660	47.9789
 2.1650	48.1676
 2.1640	48.3024
 2.1630	48.4993
 2.1620	48.6018
 2.1610	48.7122
 2.1600	48.8501
 2.1590	48.9482
 2.1580	48.9925
 2.1570	49.1038
 2.1560	49.2094
 2.1550	49.1746
 2.1540	49.2482
 2.1530	49.1487
 2.1520	49.2228
 2.1510	49.2692
 2.1500	49.1813
 2.1490	49.0871
 2.1480	49.1442
 2.1470	49.0381
 2.1460	48.9984
 2.1450	48.9564
 2.1440	48.9301
 2.1430	48.7801
 2.1420	48.7869
 2.1410	48.7169
 2.1400	48.6754
 2.1390	48.5302
 2.1380	48.4831
 2.1370	48.3128
 2.1360	48.3276
 2.1350	48.2867
 2.1340	48.2659
 2.1330	48.1087
 2.1320	48.0893
 2.1310	48.0148
 2.1300	48.0403
 2.1290	47.9455
 2.1280	47.9952
 2.1270	47.9214
 2.1260	47.9716
 2.1250	47.9205
 2.1240	47.9197
 2.1230	47.9131
 2.1220	47.9272
 2.1210	47.8845
 2.1200	47.9062
 2.1190	47.8419
 2.1180	47.8985
 2.1170	47.9129
 2.1160	47.9424
 2.1150	47.9400
 2.1140	47.9542
 2.1130	47.9421
 2.1120	47.9858
 2.1110	47.9549
 2.1100	48.0700
 2.1090	48.0246
 2.1080	48.0124
 2.1070	48.1068
 2.1060	48.1089
 2.1050	48.0372
 2.1040	48.1234
 2.1030	48.1779
 2.1020	48.1836
 2.1010	48.1634
 2.1000	48.2314
 2.0990	48.2608
 2.0980	48.3230
 2.0970	48.3182
 2.0960	48.2893
 2.0950	48.3542
 2.0940	48.4722
 2.0930	48.4321
 2.0920	48.4886
 2.0910	48.5587
 2.0900	48.5630
 2.0890	48.5951
 2.0880	48.6313
 2.0870	48.6413
 2.0860	48.6671
 2.0850	48.6765
 2.0840	48.7318
 2.0830	48.7333
 2.0820	48.7149
 2.0810	48.7096
 2.0800	48.7465
 2.0790	48.8329
 2.0780	48.8262
 2.0770	48.8136
 2.0760	48.9089
 2.0750	48.9173
 2.0740	48.9310
 2.0730	48.9499
 2.0720	48.9226
 2.0710	48.9704
 2.0700	49.0398
 2.0690	49.0270
 2.0680	49.0340
 2.0670	49.0463
 2.0660	49.1079
 2.0650	49.1566
 2.0640	49.1654
 2.0630	49.2882
 2.0620	49.2855
 2.0610	49.3161
 2.0600	49.4043
 2.0590	49.4116
 2.0580	49.4844
 2.0570	49.6113
 2.0560	49.6278
 2.0550	49.7125
 2.0540	49.7991
 2.0530	49.9128
 2.0520	50.0088
 2.0510	50.0957
 2.0500	50.1346
 2.0490	50.2013
 2.0480	50.3089
 2.0470	50.4169
 2.0460	50.4851
 2.0450	50.6169
 2.0440	50.7191
 2.0430	50.8101
 2.0420	50.8657
 2.0410	50.9798
 2.0400	51.0218
 2.0390	51.1008
 2.0380	51.2354
 2.0370	51.3106
 2.0360	51.3773
 2.0350	51.5199
 2.0340	51.5309
 2.0330	51.5759
 2.0320	51.6365
 2.0310	51.7405
 2.0300	51.7767
 2.0290	51.8541
 2.0280	51.8538
 2.0270	51.9343
 2.0260	52.0561
 2.0250	52.0934
 2.0240	52.0887
 2.0230	52.1196
 2.0220	52.2553
 2.0210	52.4750
 2.0200	52.5346
 2.0190	52.5253
 2.0180	52.6277
 2.0170	52.7804
 2.0160	52.8807
 2.0150	53.0807
 2.0140	53.1780
 2.0130	53.2683
 2.0120	53.5408
 2.0110	53.6706
 2.0100	53.7193
 2.0090	53.9403
 2.0080	54.0575
 2.0070	54.3139
 2.0060	54.4506
 2.0050	54.6505
 2.0040	54.8397
 2.0030	55.0409
 2.0020	55.1745
 2.0010	55.3683
 2.0000	55.4399
 1.9990	55.6911
 1.9980	55.8200
 1.9970	56.0489
 1.9960	56.0914
 1.9950	56.3279
 1.9940	56.5500
 1.9930	56.7482
 1.9920	56.9110
 1.9910	56.9819
 1.9900	57.2046
 1.9890	57.2989
 1.9880	57.4274
 1.9870	57.6168
 1.9860	57.7336
 1.9850	57.9071
 1.9840	58.0433
 1.9830	58.1550
 1.9820	58.3044
 1.9810	58.4917
 1.9800	58.5404
 1.9790	58.6031
 1.9780	58.7942
 1.9770	58.8000
 1.9760	58.8611
 1.9750	58.9469
 1.9740	59.0061
 1.9730	59.1210
 1.9720	59.1920
 1.9710	59.2702
 1.9700	59.2520
 1.9690	59.2979
 1.9680	59.3736
 1.9670	59.3511
 1.9660	59.4516
 1.9650	59.4636
 1.9640	59.4982
 1.9630	59.6654
 1.9620	59.5506
 1.9610	59.6693
 1.9600	59.6002
 1.9590	59.6668
 1.9580	59.6641
 1.9570	59.6554
 1.9560	59.7325
 1.9550	59.7850
 1.9540	59.7638
 1.9530	59.9070
 1.9520	59.8438
 1.9510	59.9245
 1.9500	59.8618
 1.9490	59.9174
 1.9480	59.9715
 1.9470	59.9898
 1.9460	59.9205
 1.9450	59.9884
 1.9440	60.0608
 1.9430	60.1393
 1.9420	60.0247
 1.9410	60.2172
 1.9400	60.0606
 1.9390	60.2032
 1.9380	60.1538
 1.9370	60.1232
 1.9360	60.2438
 1.9350	60.2498
 1.9340	60.2093
 1.9330	60.2256
 1.9320	60.2339
 1.9310	60.3368
 1.9300	60.2678
 1.9290	60.3984
 1.9280	60.5156
 1.9270	60.5891
 1.9260	60.5048
 1.9250	60.6344
 1.9240	60.6027
 1.9230	60.7285
 1.9220	60.7619
 1.9210	60.9544
 1.9200	60.9040
 1.9190	61.0483
 1.9180	61.2118
 1.9170	61.3941
 1.9160	61.4580
 1.9150	61.5295
 1.9140	61.6141
 1.9130	61.7554
 1.9120	61.9783
 1.9110	62.1416
 1.9100	62.2747
 1.9090	62.4389
 1.9080	62.6117
 1.9070	62.8182
 1.9060	62.8720
 1.9050	63.0872
 1.9040	63.3153
 1.9030	63.5083
 1.9020	63.7879
 1.9010	63.9761
 1.9000	64.1109
 1.8990	64.2615
 1.8980	64.3671
 1.8970	64.5714
 1.8960	64.7206
 1.8950	64.9884
 1.8940	65.0819
 1.8930	65.2672
 1.8920	65.3278
 1.8910	65.3878
 1.8900	65.4929
 1.8890	65.6928
 1.8880	65.7826
 1.8870	65.8764
 1.8860	66.0226
 1.8850	66.0952
 1.8840	66.2120
 1.8830	66.3722
 1.8820	66.4282
 1.8810	66.5847
 1.8800	66.5718
 1.8790	66.6500
 1.8780	66.7907
 1.8770	66.9744
 1.8760	67.1000
 1.8750	67.2434
 1.8740	67.2670
 1.8730	67.4904
 1.8720	67.5658
 1.8710	67.6905
 1.8700	67.7630
 1.8690	67.9138
 1.8680	68.0563
 1.8670	68.1536
 1.8660	68.2693
 1.8650	68.4003
 1.8640	68.4471
 1.8630	68.5566
 1.8620	68.7385
 1.8610	68.8240
 1.8600	68.8917
 1.8590	69.1280
 1.8580	69.1436
 1.8570	69.2303
 1.8560	69.2738
 1.8550	69.4734
 1.8540	69.5742
 1.8530	69.7725
 1.8520	69.8137
 1.8510	69.8981
 1.8500	70.0343
 1.8490	70.0996
 1.8480	70.2009
 1.8470	70.3028
 1.8460	70.3828
 1.8450	70.4712
 1.8440	70.5672
 1.8430	70.7294
 1.8420	70.8330
 1.8410	70.9141
 1.8400	70.9905
 1.8390	71.0461
 1.8380	71.1319
 1.8370	71.2678
 1.8360	71.3531
 1.8350	71.4219
 1.8340	71.5184
 1.8330	71.5396
 1.8320	71.6359
 1.8310	71.7334
 1.8300	71.8498
 1.8290	71.9259
 1.8280	72.0609
 1.8270	72.1321
 1.8260	72.1654
 1.8250	72.2957
 1.8240	72.3678
 1.8230	72.4389
 1.8220	72.5154
 1.8210	72.6426
 1.8200	72.7404
 1.8190	72.8287
 1.8180	72.8894
 1.8170	72.9675
 1.8160	73.0858
 1.8150	73.2015
 1.8140	73.3652
 1.8130	73.4662
 1.8120	73.4872
 1.8110	73.5970
 1.8100	73.7368
 1.8090	73.8137
 1.8080	73.8971
 1.8070	73.9389
 1.8060	74.0242
 1.8050	74.0629
 1.8040	74.1458
 1.8030	74.2986
 1.8020	74.4260
 1.8010	74.4722
 1.8000	74.4423
 1.7990	74.5918
 1.7980	74.6632
 1.7970	74.6801
 1.7960	74.7500
 1.7950	74.7712
 1.7940	74.7652
 1.7930	74.9493
 1.7920	75.0352
 1.7910	75.0042
 1.7900	75.0409
 1.7890	75.1073
 1.7880	75.1674
 1.7870	75.1915
 1.7860	75.2841
 1.7850	75.2580
 1.7840	75.2989
 1.7830	75.3740
 1.7820	75.3459
 1.7810	75.4860
 1.7800	75.5689
 1.7790	75.5438
 1.7780	75.5854
 1.7770	75.6917
 1.7760	75.7540
 1.7750	75.7424
 1.7740	75.7687
 1.7730	75.8367
 1.7720	75.9041
 1.7710	76.0157
 1.7700	76.1107
 1.7690	76.1138
 1.7680	76.1901
 1.7670	76.2289
 1.7660	76.2708
 1.7650	76.3908
 1.7640	76.4228
 1.7630	76.3508
 1.7620	76.3972
 1.7610	76.5062
 1.7600	76.5560
 1.7590	76.5994
 1.7580	76.7127
 1.7570	76.7024
 1.7560	76.7966
 1.7550	76.8301
 1.7540	76.9312
 1.7530	76.9909
 1.7520	77.0240
 1.7510	77.1105
 1.7500	77.1590
 1.7490	77.2419
 1.7480	77.2927
 1.7470	77.3808
 1.7460	77.4327
 1.7450	77.5372
 1.7440	77.5387
 1.7430	77.5492
 1.7420	77.5906
 1.7410	77.6589
 1.7400	77.6940
 1.7390	77.7295
 1.7380	77.8454
 1.7370	77.9358
 1.7360	77.9473
 1.7350	78.0548
 1.7340	78.0621
 1.7330	78.1209
 1.7320	78.2367
 1.7310	78.3212
 1.7300	78.3437
 1.7290	78.2535
 1.7280	78.3343
 1.7270	78.4345
 1.7260	78.5269
 1.7250	78.5951
 1.7240	78.7088
 1.7230	78.7508
 1.7220	78.7826
 1.7210	78.7523
 1.7200	78.8873
 1.7190	78.9441
 1.7180	79.0376
 1.7170	79.0660
 1.7160	79.0844
 1.7150	79.1946
 1.7140	79.2447
 1.7130	79.3350
 1.7120	79.3220
 1.7110	79.3579
 1.7100	79.3650
 1.7090	79.4179
 1.7080	79.5882
 1.7070	79.6571
 1.7060	79.6911
 1.7050	79.7733
 1.7040	79.8395
 1.7030	79.8536
 1.7020	79.8189
 1.7010	79.8712
 1.7000	79.9805
 1.6990	79.9948
 1.6980	80.1328
 1.6970	80.2348
 1.6960	80.2425
 1.6950	80.3165
 1.6940	80.3861
 1.6930	80.4076
 1.6920	80.4743
 1.6910	80.4942
 1.6900	80.6510
 1.6890	80.6369
 1.6880	80.7307
 1.6870	80.7885
 1.6860	80.7644
 1.6850	80.8574
 1.6840	80.8904
 1.6830	80.8539
 1.6820	80.9665
 1.6810	80.9836
 1.6800	81.0027
 1.6790	81.0802
 1.6780	81.1507
 1.6770	81.3007
 1.6760	81.3266
 1.6750	81.4169
 1.6740	81.3734
 1.6730	81.5444
 1.6720	81.5551
 1.6710	81.5502
 1.6700	81.6571
 1.6690	81.6387
 1.6680	81.6424
 1.6670	81.8252
 1.6660	81.7243
 1.6650	81.8631
 1.6640	81.8992
 1.6630	81.9154
 1.6620	82.0655
 1.6610	82.0355
 1.6600	82.0979
 1.6590	82.1277
 1.6580	82.1874
 1.6570	82.1375
 1.6560	82.2463
 1.6550	82.2618
 1.6540	82.3749
 1.6530	82.2385
 1.6520	82.4492
 1.6510	82.3873
 1.6500	82.5504
 1.6490	82.5047
 1.6480	82.5822
 1.6470	82.6033
 1.6460	82.7060
 1.6450	82.6844
 1.6440	82.6908
 1.6430	82.6689
 1.6420	82.8179
 1.6410	82.7598
 1.6400	82.8419
 1.6390	82.8779
 1.6380	82.9057
 1.6370	82.9994
 1.6360	83.1020
 1.6350	82.9785
 1.6340	83.0956
 1.6330	83.1448
 1.6320	83.1498
 1.6310	83.1270
 1.6300	83.2797
 1.6290	83.2503
 1.6280	83.2138
 1.6270	83.4043
 1.6260	83.4152
 1.6250	83.5445
 1.6240	83.4256
 1.6230	83.4498
 1.6220	83.5240
 1.6210	83.5923
 1.6200	83.5967
 1.6190	83.6834
 1.6180	83.5887
 1.6170	83.8128
 1.6160	83.8105
 1.6150	83.8818
 1.6140	83.8652
 1.6130	83.8928
 1.6120	83.8207
 1.6110	83.8535
 1.6100	83.9337
 1.6090	83.9668
 1.6080	84.0304
 1.6070	83.9611
 1.6060	84.0933
 1.6050	84.1352
 1.6040	84.1434
 1.6030	84.1920
 1.6020	84.2158
 1.6010	84.2356
 1.6000	84.2492
 1.5990	84.2324
 1.5980	84.2670
 1.5970	84.2493
 1.5960	84.3956
 1.5950	84.3046
 1.5940	84.3290
 1.5930	84.3264
 1.5920	84.3996
 1.5910	84.4326
 1.5900	84.4790
 1.5890	84.4876
 1.5880	84.4843
 1.5870	84.5439
 1.5860	84.5826
 1.5850	84.4723
 1.5840	84.5981
 1.5830	84.6252
 1.5820	84.7143
 1.5810	84.6958
 1.5800	84.7184
 1.5790	84.7024
 1.5780	84.7302
 1.5770	84.7498
 1.5760	84.6782
 1.5750	84.6418
 1.5740	84.7389
 1.5730	84.6729
 1.5720	84.6907
 1.5710	84.7156
 1.5700	84.7352
 1.5690	84.7921
 1.5680	84.7640
 1.5670	84.7940
 1.5660	84.8198
 1.5650	84.8655
 1.5640	84.8270
 1.5630	84.8072
 1.5620	84.8800
 1.5610	84.8468
 1.5600	84.8559
 1.5590	84.8744
 1.5580	84.8856
 1.5570	84.9959
 1.5560	84.9704
 1.5550	84.8863
 1.5540	84.9306
 1.5530	84.9631
 1.5520	84.9415
 1.5510	84.8733
 1.5500	84.8900
 1.5490	85.0077
 1.5480	84.9378
 1.5470	84.8811
 1.5460	84.9271
 1.5450	84.9685
 1.5440	84.9184
 1.5430	84.8828
 1.5420	84.8867
 1.5410	84.8753
 1.5400	84.8683
 1.5390	84.8434
 1.5380	84.9012
 1.5370	84.9434
 1.5360	84.9438
 1.5350	84.8879
 1.5340	84.8459
 1.5330	84.8981
 1.5320	84.9190
 1.5310	84.9191
 1.5300	84.8816
 1.5290	84.9293
 1.5280	84.9740
 1.5270	84.9452
 1.5260	84.9968
 1.5250	84.9623
 1.5240	84.9529
 1.5230	84.9072
 1.5220	84.9418
 1.5210	84.9423
 1.5200	84.9489
 1.5190	85.0135
 1.5180	84.9178
 1.5170	84.8859
 1.5160	84.9727
 1.5150	84.9205
 1.5140	84.8929
 1.5130	84.8952
 1.5120	84.8644
 1.5110	84.8217
 1.5100	84.8038
 1.5090	84.8464
 1.5080	84.8657
 1.5070	84.7870
 1.5060	84.7873
 1.5050	84.8201
 1.5040	84.6975
 1.5030	84.6422
 1.5020	84.6073
 1.5010	84.5796
 1.5000	84.5131
 1.4990	84.3934
 1.4980	84.3643
 1.4970	84.2482
 1.4960	84.1482
 1.4950	84.0239
 1.4940	83.9176
 1.4930	83.7864
 1.4920	83.6565
 1.4910	83.5679
 1.4900	83.4812
 1.4890	83.4870
 1.4880	83.5209
 1.4870	83.4400
 1.4860	83.3780
 1.4850	83.4024
 1.4840	83.4035
 1.4830	83.2954
 1.4820	83.1736
 1.4810	83.1471
 1.4800	83.1082
 1.4790	83.0950
 1.4780	83.1020
 1.4770	83.1152
 1.4760	83.0757
 1.4750	83.1159
 1.4740	83.2255
 1.4730	83.2193
 1.4720	83.2568
 1.4710	83.2323
 1.4700	83.3154
 1.4690	83.4179
 1.4680	83.3130
 1.4670	83.2628
 1.4660	83.2280
 1.4650	83.2380
 1.4640	83.1636
 1.4630	83.1020
 1.4620	83.0136
 1.4610	82.8925
 1.4600	82.7279
 1.4590	82.5872
 1.4580	82.4604
 1.4570	82.4700
 1.4560	82.4048
 1.4550	82.3425
 1.4540	82.3847
 1.4530	82.3805
 1.4520	82.2744
 1.4510	82.2081
 1.4500	82.1416
 1.4490	81.9657
 1.4480	81.6910
 1.4470	81.4684
 1.4460	81.2651
 1.4450	81.0904
 1.4440	80.7886
 1.4430	80.5459
 1.4420	80.3140
 1.4410	79.9964
 1.4400	79.6826
 1.4390	79.5489
 1.4380	79.3924
 1.4370	79.2471
 1.4360	79.2512
 1.4350	79.3984
 1.4340	79.5658
 1.4330	79.6397
 1.4320	79.5590
 1.4310	79.6364
 1.4300	79.6333
 1.4290	79.5556
 1.4280	79.3434
 1.4270	79.1592
 1.4260	78.9311
 1.4250	78.6148
 1.4240	78.2330
 1.4230	77.7905
 1.4220	77.3296
 1.4210	76.9084
 1.4200	76.3300
 1.4190	75.7424
 1.4180	75.2860
 1.4170	75.0031
 1.4160	74.7461
 1.4150	74.5056
 1.4140	74.2210
 1.4130	73.5736
 1.4120	72.6410
 1.4110	71.5267
 1.4100	69.9399
 1.4090	68.1418
 1.4080	65.8547
 1.4070	62.8704
 1.4060	59.5404
 1.4050	55.7406
 1.4040	51.8428
 1.4030	47.3041
 1.4020	41.5970
 1.4010	34.6832
 1.4000	28.2206
 1.3990	24.0201
 1.3980	23.1619
 1.3970	26.0956
 1.3960	31.4800
 1.3950	38.6944
 1.3940	45.3425
 1.3930	50.7142
 1.3920	54.9305
 1.3910	58.2383
 1.3900	60.3504
 1.3890	61.8549
 1.3880	62.7771
 1.3870	63.6147
 1.3860	64.4572
 1.3850	65.0932
 1.3840	65.3004
 1.3830	65.6572
 1.3820	65.9720
 1.3810	66.6660
 1.3800	67.5862
 1.3790	68.9142
 1.3780	70.2159
 1.3770	71.7823
 1.3760	73.0996
 1.3750	74.1677
 1.3740	75.0156
 1.3730	75.5436
 1.3720	75.9940
 1.3710	76.1381
 1.3700	75.8054
 1.3690	75.1133
 1.3680	73.3888
 1.3670	70.3912
 1.3660	66.7365
 1.3650	62.7489
 1.3640	59.3440
 1.3630	57.7674
 1.3620	58.7821
 1.3610	61.9446
 1.3600	66.6334
 1.3590	71.5055
 1.3580	75.4937
 1.3570	78.1420
 1.3560	79.4811
 1.3550	80.0872
 1.3540	80.5340
 1.3530	80.9234
 1.3520	81.0668
 1.3510	81.1108
 1.3500	81.0137
 1.3490	80.7779
 1.3480	80.4442
 1.3470	80.2370
 1.3460	79.8087
 1.3450	79.5616
 1.3440	79.3934
 1.3430	79.5935
 1.3420	79.8027
 1.3410	80.1573
 1.3400	80.5030
 1.3390	80.9282
 1.3380	80.9547
 1.3370	80.9746
 1.3360	80.9641
 1.3350	81.0096
 1.3340	81.2028
 1.3330	81.4878
 1.3320	81.6172
 1.3310	81.6526
 1.3300	81.7470
 1.3290	81.6749
 1.3280	81.5807
 1.3270	81.5952
 1.3260	81.4569
 1.3250	81.5432
 1.3240	81.5250
 1.3230	81.5011
 1.3220	81.4889
 1.3210	81.5466
 1.3200	81.5476
 1.3190	81.4283
 1.3180	81.3077
 1.3170	81.2760
 1.3160	81.2365
 1.3150	81.4059
 1.3140	81.6149
 1.3130	81.8605
 1.3120	82.0901
 1.3110	82.2854
 1.3100	82.2623
 1.3090	82.1301
 1.3080	81.8908
 1.3070	81.4839
 1.3060	81.0800
 1.3050	80.6038
 1.3040	79.9708
 1.3030	79.5882
 1.3020	79.0932
 1.3010	78.8748
 1.3000	78.8456
 1.2990	78.9433
 1.2980	79.1631
 1.2970	79.6138
 1.2960	79.9857
 1.2950	80.3981
 1.2940	80.8055
 1.2930	81.2938
 1.2920	81.6286
 1.2910	81.9518
 1.2900	82.1929
 1.2890	82.4834
 1.2880	82.6517
 1.2870	82.9748
 1.2860	83.1539
 1.2850	83.3394
 1.2840	83.5545
 1.2830	83.8042
 1.2820	83.9211
 1.2810	84.0801
 1.2800	84.2018
 1.2790	84.4233
 1.2780	84.5485
 1.2770	84.6515
 1.2760	84.6984
 1.2750	84.8063
 1.2740	84.8008
 1.2730	84.9586
 1.2720	85.1024
 1.2710	85.0066
 1.2700	84.9875
 1.2690	84.9967
 1.2680	85.0730
 1.2670	85.0566
 1.2660	84.9991
 1.2650	84.9791
 1.2640	84.9790
 1.2630	85.0220
 1.2620	84.8891
 1.2610	84.7898
 1.2600	84.6824
 1.2590	84.6512
 1.2580	84.5023
 1.2570	84.4652
 1.2560	84.3585
 1.2550	84.3425
 1.2540	84.3804
 1.2530	84.3456
 1.2520	84.3706
 1.2510	84.3339
 1.2500	84.3124
 1.2490	84.3642
 1.2480	84.3774
 1.2470	84.2898
 1.2460	84.2144
 1.2450	84.1969
 1.2440	84.1964
 1.2430	84.1666
 1.2420	84.0825
 1.2410	84.0751
 1.2400	84.0371
 1.2390	83.9878
 1.2380	83.9986
 1.2370	84.0801
 1.2360	84.2568
 1.2350	84.3635
 1.2340	84.4533
 1.2330	84.5830
 1.2320	84.6899
 1.2310	84.7299
 1.2300	84.7205
 1.2290	84.7555
 1.2280	84.8185
 1.2270	84.8798
 1.2260	84.9631
 1.2250	84.9886
 1.2240	84.8979
 1.2230	84.9560
 1.2220	84.9644
 1.2210	84.8903
 1.2200	84.9311
 1.2190	84.9370
 1.2180	84.9163
 1.2170	84.9270
 1.2160	84.8885
 1.2150	84.8756
 1.2140	84.8993
 1.2130	84.9152
 1.2120	84.8795
 1.2110	84.9055
 1.2100	84.9846
 1.2090	84.9261
 1.2080	84.9530
 1.2070	84.9773
 1.2060	85.0069
 1.2050	85.0154
 1.2040	84.9898
 1.2030	85.0088
 1.2020	84.9831
 1.2010	85.0001
 1.2000	84.9156
 1.1990	84.8385
 1.1980	84.8654
 1.1970	84.8133
 1.1960	84.8078
 1.1950	84.8389
 1.1940	84.7811
 1.1930	84.7219
 1.1920	84.7297
 1.1910	84.7998
 1.1900	84.8200
 1.1890	84.7568
 1.1880	84.6404
 1.1870	84.6622
 1.1860	84.7210
 1.1850	84.6501
 1.1840	84.6371
 1.1830	84.6222
 1.1820	84.5546
 1.1810	84.5184
 1.1800	84.5437
 1.1790	84.5154
 1.1780	84.5075
 1.1770	84.5246
 1.1760	84.5136
 1.1750	84.4356
 1.1740	84.3762
 1.1730	84.4250
 1.1720	84.5120
 1.1710	84.3953
 1.1700	84.3103
 1.1690	84.3198
 1.1680	84.3238
 1.1670	84.2822
 1.1660	84.3194
 1.1650	84.3079
 1.1640	84.2797
 1.1630	84.1987
 1.1620	84.1730
 1.1610	84.1876
 1.1600	84.3019
 1.1590	84.2452
 1.1580	84.2612
 1.1570	84.1775
 1.1560	84.1479
 1.1550	84.2151
 1.1540	84.2191
 1.1530	84.2382
 1.1520	84.2138
 1.1510	84.1818
 1.1500	84.1309
 1.1490	84.1723
 1.1480	84.1246
 1.1470	84.0882
 1.1460	84.0671
 1.1450	84.0265
 1.1440	84.0178
 1.1430	84.0207
 1.1420	84.0507
 1.1410	83.8921
 1.1400	83.8904
 1.1390	83.8484
 1.1380	83.9152
 1.1370	83.8625
 1.1360	83.8192
 1.1350	83.7236
 1.1340	83.7822
 1.1330	83.7007
 1.1320	83.7105
 1.1310	83.6140
 1.1300	83.6699
 1.1290	83.4852
 1.1280	83.4554
 1.1270	83.5654
 1.1260	83.5514
 1.1250	83.5374
 1.1240	83.5152
 1.1230	83.3324
 1.1220	83.3999
 1.1210	83.4469
 1.1200	83.4142
 1.1190	83.2563
 1.1180	83.3484
 1.1170	83.4315
 1.1160	83.3280
 1.1150	83.2357
 1.1140	83.2751
 1.1130	83.2170
 1.1120	83.2965
 1.1110	83.1448
 1.1100	83.1197
 1.1090	83.1198
 1.1080	83.1341
 1.1070	83.1183
 1.1060	82.9129
 1.1050	83.0094
 1.1040	82.9356
 1.1030	82.9736
 1.1020	82.9191
 1.1010	82.8885
 1.1000	82.8917
 1.0990	82.8246
 1.0980	82.8703
 1.0970	82.8133
 1.0960	82.6864
 1.0950	82.6754
 1.0940	82.7268
 1.0930	82.6600
 1.0920	82.6716
 1.0910	82.6140
 1.0900	82.6178
 1.0890	82.6512
 1.0880	82.6412
 1.0870	82.5393
 1.0860	82.5866
 1.0850	82.3590
 1.0840	82.4648
 1.0830	82.3817
 1.0820	82.4915
 1.0810	82.4095
 1.0800	82.3730
 1.0790	82.3218
 1.0780	82.3978
 1.0770	82.3665
 1.0760	82.2003
 1.0750	82.2435
 1.0740	82.1511
 1.0730	82.1821
 1.0720	82.1964
 1.0710	82.1543
 1.0700	82.2067
 1.0690	82.1675
 1.0680	82.1085
 1.0670	82.0837
 1.0660	82.1741
 1.0650	82.0732
 1.0640	82.1563
 1.0630	82.0199
 1.0620	82.0178
 1.0610	82.0850
 1.0600	82.1749
 1.0590	82.0749
 1.0580	82.1079
 1.0570	82.0575
 1.0560	81.9458
 1.0550	81.9262
 1.0540	82.0006
 1.0530	81.9984
 1.0520	81.9851
 1.0510	81.8706
 1.0500	81.9284
 1.0490	81.9158
 1.0480	81.8621
 1.0470	81.9784
 1.0460	81.9030
 1.0450	81.9108
 1.0440	81.8655
 1.0430	81.9372
 1.0420	81.9022
 1.0410	81.8861
 1.0400	81.8405
 1.0390	81.8497
 1.0380	81.7723
 1.0370	81.8992
 1.0360	81.8245
 1.0350	81.8387
 1.0340	81.8206
 1.0330	81.8782
 1.0320	81.8915
 1.0310	81.8894
 1.0300	81.9099
 1.0290	81.8285
 1.0280	81.7883
 1.0270	81.8190
 1.0260	81.8210
 1.0250	81.8165
 1.0240	81.8419
 1.0230	81.7623
 1.0220	81.8671
 1.0210	81.8031
 1.0200	81.7253
 1.0190	81.8728
 1.0180	81.8230
 1.0170	81.8168
 1.0160	81.8445
 1.0150	81.8009
 1.0140	81.8529
 1.0130	81.8150
 1.0120	81.8424
 1.0110	81.8807
 1.0100	81.9120
 1.0090	81.8844
 1.0080	81.8335
 1.0070	81.8065
 1.0060	81.9259
 1.0050	81.8587
 1.0040	81.8864
 1.0030	81.8308
 1.0020	81.7974
 1.0010	81.8692
 1.0000	81.7547
 0.9990	81.7420
 0.9980	81.7768
 0.9970	81.8380
 0.9960	81.8571
 0.9950	81.8666
 0.9940	81.8606
 0.9930	81.8894
 0.9920	81.9099
 0.9910	81.7961
 0.9900	81.8166
 0.9890	81.7831
 0.9880	81.8186
 0.9870	81.8311
 0.9860	81.9030
 0.9850	81.7788
 0.9840	81.8079
 0.9830	81.8114
 0.9820	81.8048
 0.9810	81.7973
 0.9800	81.8574
 0.9790	81.8052
 0.9780	81.8276
 0.9770	81.8134
 0.9760	81.7878
 0.9750	81.7594
 0.9740	81.7258
 0.9730	81.6633
 0.9720	81.6981
 0.9710	81.6125
 0.9700	81.5077
 0.9690	81.3637
 0.9680	81.2683
 0.9670	81.1497
 0.9660	80.9912
 0.9650	80.8737
 0.9640	80.5504
 0.9630	80.1002
 0.9620	79.6092
 0.9610	78.7445
 0.9600	77.3911
 0.9590	75.6476
 0.9580	73.7319
 0.9570	71.9647
 0.9560	70.7609
 0.9550	70.5251
 0.9540	71.2728
 0.9530	72.6785
 0.9520	74.3963
 0.9510	76.0925
 0.9500	77.5265
 0.9490	78.3910
 0.9480	78.9506
 0.9470	79.3547
 0.9460	79.6536
 0.9450	79.9054
 0.9440	80.1642
 0.9430	80.4257
 0.9420	80.6755
 0.9410	80.9521
 0.9400	81.1410
 0.9390	81.2307
 0.9380	81.3030
 0.9370	81.4127
 0.9360	81.4585
 0.9350	81.4905
 0.9340	81.5275
 0.9330	81.4757
 0.9320	81.4481
 0.9310	81.4183
 0.9300	81.3336
 0.9290	81.2666
 0.9280	81.1749
 0.9270	81.0465
 0.9260	80.9211
 0.9250	80.8156
 0.9240	80.7539
 0.9230	80.8002
 0.9220	80.9045
 0.9210	80.9794
 0.9200	81.1106
 0.9190	81.1778
 0.9180	81.2309
 0.9170	81.3839
 0.9160	81.4183
 0.9150	81.4532
 0.9140	81.5075
 0.9130	81.4969
 0.9120	81.5015
 0.9110	81.5122
 0.9100	81.4722
 0.9090	81.5300
 0.9080	81.5094
 0.9070	81.4387
 0.9060	81.4720
 0.9050	81.4668
 0.9040	81.5083
 0.9030	81.5415
 0.9020	81.5047
 0.9010	81.4822
 0.9000	81.4565
 0.8990	81.4542
 0.8980	81.4386
 0.8970	81.4403
 0.8960	81.4574
 0.8950	81.4400
 0.8940	81.4152
 0.8930	81.4842
 0.8920	81.4696
 0.8910	81.4715
 0.8900	81.4503
 0.8890	81.4482
 0.8880	81.4309
 0.8870	81.4954
 0.8860	81.5222
 0.8850	81.5396
 0.8840	81.5308
 0.8830	81.5066
 0.8820	81.4711
 0.8810	81.4874
 0.8800	81.5269
 0.8790	81.5983
 0.8780	81.5705
 0.8770	81.6000
 0.8760	81.5272
 0.8750	81.5705
 0.8740	81.5814
 0.8730	81.6339
 0.8720	81.6917
 0.8710	81.6217
 0.8700	81.6104
 0.8690	81.6407
 0.8680	81.6358
 0.8670	81.6474
 0.8660	81.6416
 0.8650	81.7693
 0.8640	81.7420
 0.8630	81.7494
 0.8620	81.8084
 0.8610	81.7183
 0.8600	81.7950
 0.8590	81.9229
 0.8580	81.8554
 0.8570	81.8176
 0.8560	81.8562
 0.8550	81.9465
 0.8540	81.9749
 0.8530	82.0378
 0.8520	82.0953
 0.8510	82.0405
 0.8500	82.1210
 0.8490	82.1703
 0.8480	82.2112
 0.8470	82.2939
 0.8460	82.3379
 0.8450	82.3595
 0.8440	82.3523
 0.8430	82.3958
 0.8420	82.4735
 0.8410	82.4903
 0.8400	82.5490
 0.8390	82.6088
 0.8380	82.6028
 0.8370	82.7024
 0.8360	82.7478
 0.8350	82.7404
 0.8340	82.8176
 0.8330	82.8480
 0.8320	82.8968
 0.8310	82.9251
 0.8300	82.9773
 0.8290	83.0376
 0.8280	83.0704
 0.8270	83.1965
 0.8260	83.1890
 0.8250	83.2511
 0.8240	83.2887
 0.8230	83.3988
 0.8220	83.4094
 0.8210	83.4445
 0.8200	83.4869
 0.8190	83.5387
 0.8180	83.6448
 0.8170	83.6893
 0.8160	83.7567
 0.8150	83.7344
 0.8140	83.8362
 0.8130	83.9241
 0.8120	83.9702
 0.8110	84.0072
 0.8100	84.0770
 0.8090	84.1555
 0.8080	84.1673
 0.8070	84.2783
 0.8060	84.2851
 0.8050	84.3418
 0.8040	84.3957
 0.8030	84.4657
 0.8020	84.5303
 0.8010	84.6516
 0.8000	84.6884
 0.7990	84.7131
 0.7980	84.7826
 0.7970	84.7698
 0.7960	84.8058
 0.7950	84.8541
 0.7940	84.9048
 0.7930	84.9704
 0.7920	85.0727
 0.7910	85.0843
 0.7900	85.1728
 0.7890	85.2298
 0.7880	85.3234
 0.7870	85.3248
 0.7860	85.4117
 0.7850	85.4582
 0.7840	85.5001
 0.7830	85.5936
 0.7820	85.6385
 0.7810	85.7078
 0.7800	85.7774
 0.7790	85.7292
 0.7780	85.8327
 0.7770	85.9007
 0.7760	85.9578
 0.7750	86.0011
 0.7740	86.0820
 0.7730	86.1123
 0.7720	86.1447
 0.7710	86.2213
 0.7700	86.2648
 0.7690	86.2901
 0.7680	86.3818
 0.7670	86.4127
 0.7660	86.4920
 0.7650	86.5010
 0.7640	86.5748
 0.7630	86.5814
 0.7620	86.7156
 0.7610	86.7372
 0.7600	86.7852
 0.7590	86.8297
 0.7580	86.9043
 0.7570	86.9646
 0.7560	86.9710
 0.7550	87.0392
 0.7540	87.0553
 0.7530	87.0849
 0.7520	87.1575
 0.7510	87.2003
 0.7500	87.2417
 0.7490	87.3002
 0.7480	87.3440
 0.7470	87.3618
 0.7460	87.3976
 0.7450	87.4293
 0.7440	87.4597
 0.7430	87.4620
 0.7420	87.4705
 0.7410	87.4541
 0.7400	87.4367
 0.7390	87.3760
 0.7380	87.2783
 0.7370	87.1118
 0.7360	86.8390
 0.7350	86.6074
 0.7340	86.4521
 0.7330	86.4404
 0.7320	86.6251
 0.7310	86.9594
 0.7300	87.2300
 0.7290	87.4774
 0.7280	87.6506
 0.7270	87.7745
 0.7260	87.8959
 0.7250	87.9574
 0.7240	88.0147
 0.7230	88.0535
 0.7220	88.1083
 0.7210	88.1579
 0.7200	88.1733
 0.7190	88.2333
 0.7180	88.2349
 0.7170	88.2765
 0.7160	88.2828
 0.7150	88.2818
 0.7140	88.2973
 0.7130	88.3320
 0.7120	88.3375
 0.7110	88.3587
 0.7100	88.3511
 0.7090	88.3496
 0.7080	88.3583
 0.7070	88.3559
 0.7060	88.3658
 0.7050	88.3864
 0.7040	88.4112
 0.7030	88.4107
 0.7020	88.3900
 0.7010	88.4334
 0.7000	88.4245
 0.6990	88.4021
 0.6980	88.4215
 0.6970	88.4351
 0.6960	88.4151
 0.6950	88.4160
 0.6940	88.3938
 0.6930	88.3769
 0.6920	88.3827
 0.6910	88.3635
 0.6900	88.3572
 0.6890	88.3466
 0.6880	88.3350
 0.6870	88.3317
 0.6860	88.3414
 0.6850	88.3319
 0.6840	88.3271
 0.6830	88.3184
 0.6820	88.2916
 0.6810	88.2716
 0.6800	88.2650
 0.6790	88.2302
 0.6780	88.2023
 0.6770	88.1923
 0.6760	88.1781
 0.6750	88.1627
 0.6740	88.1492
 0.6730	88.1414
 0.6720	88.1149
 0.6710	88.0932
 0.6700	88.0807
 0.6690	88.0778
 0.6680	88.0627
 0.6670	88.0225
 0.6660	87.9950
 0.6650	88.0103
 0.6640	88.0074
 0.6630	87.9735
 0.6620	87.9490
 0.6610	87.9270
 0.6600	87.8948
 0.6590	87.8717
 0.6580	87.8621
 0.6570	87.8510
 0.6560	87.8218
 0.6550	87.8075
 0.6540	87.7942
 0.6530	87.7636
 0.6520	87.7434
 0.6510	87.7266
 0.6500	87.6904
 0.6490	87.6734
 0.6480	87.6518
 0.6470	87.6398
 0.6460	87.6322
 0.6450	87.5901
 0.6440	87.5619
 0.6430	87.5573
 0.6420	87.5221
 0.6410	87.4856
 0.6400	87.4565
 0.6390	87.4322
 0.6380	87.3931
 0.6370	87.3534
 0.6360	87.3276
 0.6350	87.3133
 0.6340	87.2916
 0.6330	87.2601
 0.6320	87.2380
 0.6310	87.2015
 0.6300	87.1556
 0.6290	87.1295
 0.6280	87.1202
 0.6270	87.0869
 0.6260	87.0402
 0.6250	86.9977
 0.6240	86.9477
 0.6230	86.9115
 0.6220	86.8784
 0.6210	86.8473
 0.6200	86.8094
 0.6190	86.7760
 0.6180	86.7412
 0.6170	86.6955
 0.6160	86.6449
 0.6150	86.6093
 0.6140	86.5773
 0.6130	86.5245
 0.6120	86.4709
 0.6110	86.4451
 0.6100	86.4030
 0.6090	86.3359
 0.6080	86.2760
 0.6070	86.2315
 0.6060	86.1838
 0.6050	86.1196
 0.6040	86.0666
 0.6030	86.0110
 0.6020	85.9592
 0.6010	85.8898
 0.6000	85.8386
 0.5990	85.8101
 0.5980	85.7966
 0.5970	85.7740
 0.5960	85.7515
 0.5950	85.7124
 0.5940	85.6572
 0.5930	85.5951
 0.5920	85.5467
 0.5910	85.4992
 0.5900	85.4248
 0.5890	85.3669
 0.5880	85.3226
 0.5870	85.2643
 0.5860	85.2115
 0.5850	85.1583
 0.5840	85.0960
 0.5830	85.0196
 0.5820	84.9466
 0.5810	84.8874
 0.5800	84.8170
 0.5790	84.7593
 0.5780	84.7065
 0.5770	84.6482
 0.5760	84.5759
 0.5750	84.4924
 0.5740	84.4348
 0.5730	84.3730
 0.5720	84.3119
 0.5710	84.2282
 0.5700	84.1659
 0.5690	84.0983
 0.5680	84.0202
 0.5670	83.9459
 0.5660	83.8723
 0.5650	83.8009
 0.5640	83.7292
 0.5630	83.6641
 0.5620	83.5926
 0.5610	83.4950
 0.5600	83.4191
 0.5590	83.3309
 0.5580	83.2542
 0.5570	83.1972
 0.5560	83.1169
 0.5550	83.0614
 0.5540	82.9829
 0.5530	82.9207
 0.5520	82.8612
 0.5510	82.7878
 0.5500	82.7394
 0.5490	82.6823
 0.5480	82.6362
 0.5470	82.5596
 0.5460	82.5151
 0.5450	82.4591
 0.5440	82.3991
 0.5430	82.3313
 0.5420	82.2655
 0.5410	82.1968
 0.5400	82.1075
 0.5390	82.0333
 0.5380	81.9577
 0.5370	81.8873
 0.5360	81.8182
 0.5350	81.7421
 0.5340	81.6491
 0.5330	81.5832
 0.5320	81.4963
 0.5310	81.4293
 0.5300	81.3494
 0.5290	81.2744
 0.5280	81.1821
 0.5270	81.1040
 0.5260	81.0126
 0.5250	80.9598
 0.5240	80.8440
 0.5230	80.7420
 0.5220	80.6539
 0.5210	80.5497
 0.5200	80.4677
 0.5190	80.3553
 0.5180	80.2488
 0.5170	80.1667
 0.5160	80.0930
 0.5150	80.0250
 0.5140	79.9644
 0.5130	79.9192
 0.5120	79.8865
 0.5110	79.8550
 0.5100	79.8057
 0.5090	79.7743
 0.5080	79.7462
 0.5070	79.6966
 0.5060	79.6346
 0.5050	79.5841
 0.5040	79.4930
 0.5030	79.4131
 0.5020	79.3437
 0.5010	79.2497
 0.5000	79.1831
 0.4990	79.0858
 0.4980	79.0279
 0.4970	78.9019
 0.4960	78.8359
 0.4950	78.7345
 0.4940	78.6072
 0.4930	78.5254
 0.4920	78.4236
 0.4910	78.3039
 0.4900	78.2000
 0.4890	78.0650
 0.4880	77.9435
 0.4870	77.8223
 0.4860	77.6753
 0.4850	77.5182
 0.4840	77.3782
 0.4830	77.2559
 0.4820	77.0993
 0.4810	76.9584
 0.4800	76.8235
 0.4790	76.6989
 0.4780	76.5700
 0.4770	76.4100
 0.4760	76.2811
 0.4750	76.1459
 0.4740	76.0062
 0.4730	75.8857
 0.4720	75.7249
 0.4710	75.5803
 0.4700	75.4385
 0.4690	75.3004
 0.4680	75.1310
 0.4670	74.9622
 0.4660	74.7803
 0.4650	74.5869
 0.4640	74.3667
 0.4630	74.1408
 0.4620	73.9053
 0.4610	73.6570
 0.4600	73.4232
 0.4590	73.1636
 0.4580	72.8735
 0.4570	72.5748
 0.4560	72.2563
 0.4550	71.9153
 0.4540	71.5747
 0.4530	71.2242
 0.4520	70.8590
 0.4510	70.4886
 0.4500	70.1111
 0.4490	69.7086
 0.4480	69.3313
 0.4470	68.9369
 0.4460	68.5310
 0.4450	68.1555
 0.4440	67.8003
 0.4430	67.4412
 0.4420	67.0812
 0.4410	66.7343
 0.4400	66.3803
 0.4390	66.0431
 0.4380	65.6916
 0.4370	65.3449
 0.4360	64.9636
 0.4350	64.5933
 0.4340	64.2199
 0.4330	63.8902
 0.4320	63.5472
 0.4310	63.1901
 0.4300	62.8749
 0.4290	62.5544
 0.4280	62.2251
 0.4270	61.9366
 0.4260	61.6464
 0.4250	61.3311
 0.4240	61.0254
 0.4230	60.7299
 0.4220	60.4135
 0.4210	60.0913
 0.4200	59.7698
 0.4190	59.4043
 0.4180	59.0207
 0.4170	58.6538
 0.4160	58.2421
 0.4150	57.7994
 0.4140	57.3308
 0.4130	56.8808
 0.4120	56.3813
 0.4110	55.8581
 0.4100	55.3533
 0.4090	54.8237
 0.4080	54.2573
 0.4070	53.7033
 0.4060	53.1478
 0.4050	52.5517
 0.4040	51.9320
 0.4030	51.3132
 0.4020	50.6996
 0.4010	50.0813
 0.4000	49.4500
