Name: Labradorite (Feldspar) (NaSi,CaAl)AlSi_2O_8
Type: Mineral
Class: Silicate
Subclass: Tectosilicate
Particle Size: Medium
Sample No.: TS-2A
Owner: JPL
Wavelength Range: VSWIR
Origin: Mexico, Sonora, Pinacate
Collection Date: N/A
Description: Particle size was 45-125um.Collected by Burminco Original ASTER Spectral Library name was jpl.beckman.mineral.silicate.tectosilicate.medium.ts02a.spectrum.txt
Measurement: Hemispherical reflectance
First Column: X
Second Column: Y
X Units: Wavelength (micrometers)
Y Units:Reflectance (percent)
First X Value:  0.4000
Last X Value:  2.5000
Number of X Values: 826
Additional Information: None

 0.4000	70.5600
 0.4010	71.1100
 0.4020	71.2600
 0.4030	71.4100
 0.4040	71.6200
 0.4050	71.7400
 0.4060	71.6500
 0.4070	71.8300
 0.4080	72.1500
 0.4090	71.9400
 0.4100	71.8500
 0.4110	72.0400
 0.4120	72.0300
 0.4130	71.8100
 0.4140	71.6700
 0.4150	71.8400
 0.4160	71.6400
 0.4170	71.6200
 0.4180	71.6000
 0.4190	71.6500
 0.4200	71.7100
 0.4210	71.6300
 0.4220	71.7700
 0.4230	71.8400
 0.4240	72.0800
 0.4250	72.1000
 0.4260	72.2000
 0.4270	72.5400
 0.4280	72.4700
 0.4290	72.5600
 0.4300	72.5800
 0.4310	72.6700
 0.4320	72.8400
 0.4330	72.7900
 0.4340	72.8400
 0.4350	72.9800
 0.4360	73.1100
 0.4370	73.0900
 0.4380	73.1500
 0.4390	73.3300
 0.4400	73.2300
 0.4410	73.1900
 0.4420	73.1700
 0.4430	73.2300
 0.4440	73.3000
 0.4450	73.3000
 0.4460	73.4200
 0.4470	73.5400
 0.4480	73.5900
 0.4490	73.6800
 0.4500	73.7500
 0.4510	73.9100
 0.4520	73.9600
 0.4530	73.9300
 0.4540	74.1100
 0.4550	74.3300
 0.4560	74.4300
 0.4570	74.5000
 0.4580	74.6900
 0.4590	74.8800
 0.4600	74.8900
 0.4610	74.9500
 0.4620	75.1500
 0.4630	75.2700
 0.4640	75.3500
 0.4650	75.2700
 0.4660	75.4500
 0.4670	75.7400
 0.4680	75.8100
 0.4690	75.7800
 0.4700	76.0200
 0.4710	75.9600
 0.4720	76.0800
 0.4730	76.1300
 0.4740	76.1700
 0.4750	76.1400
 0.4760	76.3400
 0.4770	76.3500
 0.4780	76.3400
 0.4790	76.5300
 0.4800	76.6000
 0.4810	76.5500
 0.4820	76.6200
 0.4830	76.5300
 0.4840	76.8100
 0.4850	76.6900
 0.4860	76.6300
 0.4870	76.7200
 0.4880	76.9100
 0.4890	76.8200
 0.4900	76.6900
 0.4910	76.7800
 0.4920	77.0000
 0.4930	76.9800
 0.4940	77.0600
 0.4950	76.9200
 0.4960	77.1100
 0.4970	77.1800
 0.4980	77.0400
 0.4990	77.1700
 0.5000	77.2400
 0.5010	77.3000
 0.5020	77.2700
 0.5030	77.4000
 0.5040	77.5500
 0.5050	77.5200
 0.5060	77.6400
 0.5070	77.5900
 0.5080	77.7100
 0.5090	77.8000
 0.5100	77.7400
 0.5110	77.8600
 0.5120	77.9200
 0.5130	77.9400
 0.5140	77.8500
 0.5150	78.0200
 0.5160	78.1900
 0.5170	78.1000
 0.5180	78.2400
 0.5190	78.2400
 0.5200	78.3400
 0.5210	78.4600
 0.5220	78.3400
 0.5230	78.4200
 0.5240	78.3900
 0.5250	78.4300
 0.5260	78.4000
 0.5270	78.5600
 0.5280	78.6600
 0.5290	78.6100
 0.5300	78.6200
 0.5310	78.5300
 0.5320	78.7400
 0.5330	78.7800
 0.5340	78.7200
 0.5350	78.8500
 0.5360	78.8700
 0.5370	78.8600
 0.5380	78.8700
 0.5390	78.9300
 0.5400	79.1100
 0.5410	79.0400
 0.5420	79.0400
 0.5430	78.9500
 0.5440	79.1500
 0.5450	79.1700
 0.5460	79.2100
 0.5470	79.3000
 0.5480	79.3900
 0.5490	79.4700
 0.5500	79.3800
 0.5510	79.5200
 0.5520	79.6100
 0.5530	79.6000
 0.5540	79.6500
 0.5550	79.6400
 0.5560	79.8800
 0.5570	79.8500
 0.5580	79.8600
 0.5590	79.6800
 0.5600	79.8000
 0.5610	80.1700
 0.5620	80.2700
 0.5630	80.2300
 0.5640	80.1200
 0.5650	80.0900
 0.5660	80.1000
 0.5670	80.1300
 0.5680	80.0600
 0.5690	79.9600
 0.5700	80.2500
 0.5710	80.1300
 0.5720	80.1300
 0.5730	79.9300
 0.5740	79.8700
 0.5750	79.9800
 0.5760	79.9000
 0.5770	79.8600
 0.5780	79.9100
 0.5790	80.0300
 0.5800	79.8800
 0.5810	79.8500
 0.5820	80.0700
 0.5830	80.0900
 0.5840	80.0800
 0.5850	79.8700
 0.5860	79.9300
 0.5870	80.1600
 0.5880	80.0200
 0.5890	80.0200
 0.5900	80.1700
 0.5910	80.2400
 0.5920	80.3400
 0.5930	80.2600
 0.5940	80.2600
 0.5950	80.3900
 0.5960	80.2900
 0.5970	80.2900
 0.5980	80.3400
 0.5990	80.3500
 0.6000	80.5300
 0.6010	80.5400
 0.6020	80.4900
 0.6030	80.4800
 0.6040	80.6100
 0.6050	80.6300
 0.6060	80.5100
 0.6070	80.6700
 0.6080	80.6300
 0.6090	80.6500
 0.6100	80.5100
 0.6110	80.6500
 0.6120	80.7300
 0.6130	80.6400
 0.6140	80.5500
 0.6150	80.7400
 0.6160	80.6700
 0.6170	80.7100
 0.6180	80.5200
 0.6190	80.5100
 0.6200	80.6200
 0.6210	80.5200
 0.6220	80.6100
 0.6230	80.6300
 0.6240	80.8300
 0.6250	80.6900
 0.6260	80.6200
 0.6270	80.6300
 0.6280	80.7400
 0.6290	80.7600
 0.6300	80.7300
 0.6310	80.6700
 0.6320	80.8800
 0.6330	80.8900
 0.6340	80.8400
 0.6350	80.7300
 0.6360	80.7600
 0.6370	80.8800
 0.6380	80.7600
 0.6390	80.7100
 0.6400	80.7300
 0.6410	80.9200
 0.6420	80.8500
 0.6430	80.8000
 0.6440	80.9300
 0.6450	80.8900
 0.6460	80.8600
 0.6470	80.7300
 0.6480	80.7900
 0.6490	80.9000
 0.6500	81.0000
 0.6510	80.9600
 0.6520	80.9600
 0.6530	81.0700
 0.6540	81.0900
 0.6550	80.8500
 0.6560	80.9500
 0.6570	81.0300
 0.6580	81.0300
 0.6590	80.9500
 0.6600	80.8900
 0.6610	81.0200
 0.6620	81.1200
 0.6630	81.0700
 0.6640	81.0900
 0.6650	81.1500
 0.6660	81.2500
 0.6670	81.1000
 0.6680	81.1400
 0.6690	81.3200
 0.6700	81.2700
 0.6710	81.3000
 0.6720	81.1300
 0.6730	81.2100
 0.6740	81.3500
 0.6750	81.3500
 0.6760	81.3500
 0.6770	81.3700
 0.6780	81.4700
 0.6790	81.3900
 0.6800	81.2700
 0.6810	81.3200
 0.6820	81.4600
 0.6830	81.5400
 0.6840	81.5000
 0.6850	81.4500
 0.6860	81.3700
 0.6870	81.4200
 0.6880	81.3600
 0.6890	81.3800
 0.6900	81.4400
 0.6910	81.6000
 0.6920	81.5100
 0.6930	81.4000
 0.6940	81.4600
 0.6950	81.6400
 0.6960	81.5400
 0.6970	81.3600
 0.6980	81.3700
 0.6990	81.5100
 0.7000	81.5100
 0.7010	81.4500
 0.7020	81.4600
 0.7030	81.6000
 0.7040	81.6000
 0.7050	81.4000
 0.7060	81.5600
 0.7070	81.6700
 0.7080	81.5600
 0.7090	81.4700
 0.7100	81.5200
 0.7110	81.6900
 0.7120	81.6800
 0.7130	81.4700
 0.7140	81.6700
 0.7150	81.6700
 0.7160	81.5600
 0.7170	81.5000
 0.7180	81.5700
 0.7190	81.6200
 0.7200	81.5000
 0.7210	81.5100
 0.7220	81.6700
 0.7230	81.6700
 0.7240	81.5700
 0.7250	81.4800
 0.7260	81.6900
 0.7270	81.8000
 0.7280	81.7200
 0.7290	81.5700
 0.7300	81.5900
 0.7310	81.7000
 0.7320	81.5600
 0.7330	81.5400
 0.7340	81.6000
 0.7350	81.6700
 0.7360	81.5600
 0.7370	81.4400
 0.7380	81.5600
 0.7390	81.7400
 0.7400	81.6900
 0.7410	81.7000
 0.7420	81.6100
 0.7430	81.6500
 0.7440	81.6100
 0.7450	81.4600
 0.7460	81.5500
 0.7470	81.6900
 0.7480	81.5800
 0.7490	81.4600
 0.7500	81.5800
 0.7510	81.7900
 0.7520	81.7600
 0.7530	81.4900
 0.7540	81.4700
 0.7550	81.6400
 0.7560	81.5800
 0.7570	81.5600
 0.7580	81.6300
 0.7590	81.7000
 0.7600	81.5200
 0.7610	81.4400
 0.7620	81.6300
 0.7630	81.7000
 0.7640	81.5800
 0.7650	81.5200
 0.7660	81.5300
 0.7670	81.5400
 0.7680	81.6100
 0.7690	81.4800
 0.7700	81.4700
 0.7710	81.5800
 0.7720	81.6500
 0.7730	81.4500
 0.7740	81.6000
 0.7750	81.6000
 0.7760	81.6000
 0.7770	81.6600
 0.7780	81.6400
 0.7790	81.6200
 0.7800	81.5800
 0.7810	81.5400
 0.7820	81.5700
 0.7830	81.6900
 0.7840	81.6100
 0.7850	81.5600
 0.7860	81.5700
 0.7870	81.6000
 0.7880	81.7600
 0.7890	81.6700
 0.7900	81.6300
 0.7910	81.7500
 0.7920	81.7400
 0.7930	81.6000
 0.7940	81.5500
 0.7950	81.6200
 0.7960	81.7700
 0.7970	81.6300
 0.7980	81.5700
 0.7990	81.6200
 0.8000	81.3200
 0.8040	81.4000
 0.8080	81.4200
 0.8120	81.3400
 0.8160	81.2300
 0.8200	81.2400
 0.8240	81.2300
 0.8280	81.2000
 0.8320	81.2000
 0.8360	81.1500
 0.8400	81.1600
 0.8440	81.1300
 0.8480	81.0700
 0.8520	80.9500
 0.8560	80.8900
 0.8600	80.8600
 0.8640	80.8100
 0.8680	80.7100
 0.8720	80.6600
 0.8760	80.4400
 0.8800	80.3500
 0.8840	80.1900
 0.8880	80.1600
 0.8920	80.0600
 0.8960	79.9400
 0.9000	79.8100
 0.9040	79.6300
 0.9080	79.5700
 0.9120	79.4300
 0.9160	79.3100
 0.9200	79.1100
 0.9240	78.8600
 0.9280	78.8300
 0.9320	78.6400
 0.9360	78.4800
 0.9400	78.2600
 0.9440	78.1200
 0.9480	78.0500
 0.9520	77.7900
 0.9560	77.6300
 0.9600	77.6000
 0.9640	77.3500
 0.9680	77.2400
 0.9720	77.0700
 0.9760	76.8700
 0.9800	76.6000
 0.9840	76.4800
 0.9880	76.2600
 0.9920	76.0700
 0.9960	75.8400
 1.0000	75.7800
 1.0040	75.5100
 1.0080	75.2600
 1.0120	75.1300
 1.0160	74.8800
 1.0200	74.6800
 1.0240	74.5500
 1.0280	74.3900
 1.0320	74.1500
 1.0360	74.0300
 1.0400	73.8500
 1.0440	73.6600
 1.0480	73.5600
 1.0520	73.2900
 1.0560	73.0800
 1.0600	72.9200
 1.0640	72.7400
 1.0680	72.5800
 1.0720	72.3500
 1.0760	72.1500
 1.0800	72.1200
 1.0840	71.9500
 1.0880	71.7400
 1.0920	71.5500
 1.0960	71.4500
 1.1000	71.3200
 1.1040	71.1600
 1.1080	71.0000
 1.1120	70.8800
 1.1160	70.7500
 1.1200	70.6600
 1.1240	70.5200
 1.1280	70.4200
 1.1320	70.2800
 1.1360	70.1400
 1.1400	69.9000
 1.1440	69.8400
 1.1480	69.6700
 1.1520	69.6300
 1.1560	69.4300
 1.1600	69.3400
 1.1640	69.2700
 1.1680	69.1400
 1.1720	69.0900
 1.1760	68.9300
 1.1800	68.9300
 1.1840	68.7500
 1.1880	68.7300
 1.1920	68.5800
 1.1960	68.5700
 1.2000	68.6200
 1.2040	68.4300
 1.2080	68.4300
 1.2120	68.3000
 1.2160	68.2900
 1.2200	68.2900
 1.2240	68.2000
 1.2280	68.2000
 1.2320	68.1500
 1.2360	68.1100
 1.2400	68.0400
 1.2440	68.0000
 1.2480	68.0500
 1.2520	68.0000
 1.2560	68.0100
 1.2600	68.0500
 1.2640	67.9500
 1.2680	67.9700
 1.2720	68.0300
 1.2760	68.0000
 1.2800	68.0400
 1.2840	68.0500
 1.2880	68.0400
 1.2920	67.9900
 1.2960	68.0500
 1.3000	68.0100
 1.3040	68.0000
 1.3080	68.1300
 1.3120	68.1100
 1.3160	68.1600
 1.3200	68.1700
 1.3240	68.1600
 1.3280	68.2600
 1.3320	68.2700
 1.3360	68.2900
 1.3400	68.3000
 1.3440	68.3500
 1.3480	68.3400
 1.3520	68.4300
 1.3560	68.4600
 1.3600	68.5900
 1.3640	68.6000
 1.3680	68.6500
 1.3720	68.7400
 1.3760	68.7900
 1.3800	68.9300
 1.3840	69.0100
 1.3880	69.0900
 1.3920	69.0800
 1.3960	69.2800
 1.4000	69.3400
 1.4040	69.4400
 1.4080	69.4900
 1.4120	69.5900
 1.4160	69.6800
 1.4200	69.8200
 1.4240	69.8700
 1.4280	69.9600
 1.4320	70.1000
 1.4360	70.1900
 1.4400	70.3100
 1.4440	70.4100
 1.4480	70.5100
 1.4520	70.5500
 1.4560	70.7000
 1.4600	70.8600
 1.4640	70.9000
 1.4680	71.0000
 1.4720	71.1000
 1.4760	71.1800
 1.4800	71.2700
 1.4840	71.3000
 1.4880	71.4500
 1.4920	71.5900
 1.4960	71.6100
 1.5000	71.7200
 1.5040	71.8700
 1.5080	72.0000
 1.5120	72.1200
 1.5160	72.1300
 1.5200	72.2300
 1.5240	72.3900
 1.5280	72.4300
 1.5320	72.5000
 1.5360	72.5300
 1.5400	72.6500
 1.5440	72.6400
 1.5480	72.8100
 1.5520	72.7900
 1.5560	72.8900
 1.5600	72.9200
 1.5640	73.0100
 1.5680	73.0700
 1.5720	73.1000
 1.5760	73.1600
 1.5800	73.3000
 1.5840	73.2800
 1.5880	73.3800
 1.5920	73.3800
 1.5960	73.5100
 1.6000	73.4600
 1.6040	73.5800
 1.6080	73.6000
 1.6120	73.6300
 1.6160	73.6800
 1.6200	73.7500
 1.6240	73.7800
 1.6280	73.8300
 1.6320	73.8600
 1.6360	73.9500
 1.6400	73.8900
 1.6440	73.9900
 1.6480	73.9700
 1.6520	74.0500
 1.6560	74.0600
 1.6600	74.0900
 1.6640	74.0700
 1.6680	74.2000
 1.6720	74.2700
 1.6760	74.2900
 1.6800	74.2800
 1.6840	74.3400
 1.6880	74.4000
 1.6920	74.3900
 1.6960	74.4400
 1.7000	74.3900
 1.7040	74.4200
 1.7080	74.4900
 1.7120	74.4300
 1.7160	74.5300
 1.7200	74.4900
 1.7240	74.5100
 1.7280	74.6600
 1.7320	74.5800
 1.7360	74.6100
 1.7400	74.6100
 1.7440	74.6900
 1.7480	74.6100
 1.7520	74.5900
 1.7560	74.7200
 1.7600	74.6800
 1.7640	74.7900
 1.7680	74.7300
 1.7720	74.8000
 1.7760	74.7800
 1.7800	74.8600
 1.7840	74.9300
 1.7880	74.9400
 1.7920	74.9500
 1.7960	74.9900
 1.8000	75.0000
 1.8040	75.1600
 1.8080	75.0900
 1.8120	75.0800
 1.8160	75.1100
 1.8200	75.1400
 1.8240	75.1800
 1.8280	75.0800
 1.8320	75.2100
 1.8360	75.1400
 1.8400	75.2600
 1.8440	75.1200
 1.8480	75.2000
 1.8520	75.2300
 1.8560	75.2500
 1.8600	75.2200
 1.8640	75.3700
 1.8680	75.3500
 1.8720	75.3500
 1.8760	75.3600
 1.8800	75.3200
 1.8840	75.3600
 1.8880	75.2800
 1.8920	75.3200
 1.8960	75.3700
 1.9000	75.3200
 1.9040	75.3600
 1.9080	75.3600
 1.9120	75.4000
 1.9160	75.4500
 1.9200	75.4400
 1.9240	75.4600
 1.9280	75.4500
 1.9320	75.4600
 1.9360	75.4800
 1.9400	75.4800
 1.9440	75.5000
 1.9480	75.5300
 1.9520	75.5200
 1.9560	75.5900
 1.9600	75.6200
 1.9640	75.6300
 1.9680	75.6500
 1.9720	75.6500
 1.9760	75.6100
 1.9800	75.6800
 1.9840	75.7300
 1.9880	75.7800
 1.9920	75.8200
 1.9960	75.7900
 2.0000	75.8800
 2.0040	75.9100
 2.0080	75.9300
 2.0120	75.9800
 2.0160	76.0100
 2.0200	76.0100
 2.0240	76.0800
 2.0280	76.0600
 2.0320	76.0600
 2.0360	76.1700
 2.0400	76.1800
 2.0440	76.1600
 2.0480	76.0800
 2.0520	76.1400
 2.0560	76.2200
 2.0600	76.2000
 2.0640	76.2300
 2.0680	76.3400
 2.0720	76.3900
 2.0760	76.3600
 2.0800	76.3900
 2.0840	76.4700
 2.0880	76.5000
 2.0920	76.5100
 2.0960	76.5000
 2.1000	76.5600
 2.1040	76.6000
 2.1080	76.6200
 2.1120	76.7400
 2.1160	76.7600
 2.1200	76.7700
 2.1240	76.8800
 2.1280	76.8100
 2.1320	76.8000
 2.1360	76.8100
 2.1400	76.6800
 2.1440	76.8000
 2.1480	76.6900
 2.1520	76.6600
 2.1560	76.6700
 2.1600	76.5800
 2.1640	76.5500
 2.1680	76.5100
 2.1720	76.4400
 2.1760	76.4400
 2.1800	76.3900
 2.1840	76.2900
 2.1880	76.3200
 2.1920	76.2400
 2.1960	76.3000
 2.2000	76.3400
 2.2040	76.2700
 2.2080	76.2700
 2.2120	76.2600
 2.2160	76.3000
 2.2200	76.2600
 2.2240	76.2800
 2.2280	76.2900
 2.2320	76.3200
 2.2360	76.2600
 2.2400	76.3000
 2.2440	76.3700
 2.2480	76.3200
 2.2520	76.3300
 2.2560	76.3300
 2.2600	76.3600
 2.2640	76.4800
 2.2680	76.4800
 2.2720	76.5300
 2.2760	76.4200
 2.2800	76.4700
 2.2840	76.5200
 2.2880	76.5100
 2.2920	76.5400
 2.2960	76.6100
 2.3000	76.6300
 2.3040	76.6900
 2.3080	76.8000
 2.3120	76.9400
 2.3160	76.9700
 2.3200	77.0900
 2.3240	77.1600
 2.3280	77.1400
 2.3320	77.1700
 2.3360	77.2000
 2.3400	77.2700
 2.3440	77.2600
 2.3480	77.3000
 2.3520	77.3100
 2.3560	77.2700
 2.3600	77.2600
 2.3640	77.2100
 2.3680	77.2600
 2.3720	77.3800
 2.3760	77.2700
 2.3800	77.3500
 2.3840	77.3000
 2.3880	77.2800
 2.3920	77.2300
 2.3960	77.3300
 2.4000	77.3500
 2.4040	77.3500
 2.4080	77.3700
 2.4120	77.3600
 2.4160	77.3700
 2.4200	77.4100
 2.4240	77.4400
 2.4280	77.4300
 2.4320	77.4100
 2.4360	77.3800
 2.4400	77.3300
 2.4440	77.3100
 2.4480	77.3600
 2.4520	77.3000
 2.4560	77.3000
 2.4600	77.2700
 2.4640	77.2800
 2.4680	77.2000
 2.4720	77.1600
 2.4760	77.1900
 2.4800	77.2900
 2.4840	77.3900
 2.4880	77.4700
 2.4920	77.5000
 2.4960	77.6400
 2.5000	77.6200
