Name: Actinolite Ca_2(Mg,Fe^2+)_5Si_8O_22(OH)_2
Type: Mineral
Class: Silicate
Subclass: Inosilicate
Particle Size: Coarse
Sample No.: IN-4A
Owner: JPL
Wavelength Range: VSWIR
Origin: USA, California, San Bernadino County, Wrightwood
Collection Date: N/A
Description: Particle size was 125-500um.Collected by Burminco Original ASTER Spectral Library name was jpl.beckman.mineral.silicate.inosilicate.coarse.in04a.spectrum.txt
Measurement: Hemispherical reflectance
First Column: X
Second Column: Y
X Units: Wavelength (micrometers)
Y Units:Reflectance (percent)
First X Value:  0.4000
Last X Value:  2.5000
Number of X Values: 826
Additional Information: mineral.silicate.inosilicate.coarse.vswir.in-4a.jpl.beckman.ancillary.txt

 0.4000	10.4200
 0.4010	10.3700
 0.4020	10.4100
 0.4030	10.5200
 0.4040	10.6000
 0.4050	10.6500
 0.4060	10.8200
 0.4070	11.0000
 0.4080	11.0700
 0.4090	11.1200
 0.4100	11.1100
 0.4110	11.2300
 0.4120	11.2400
 0.4130	11.3100
 0.4140	11.3500
 0.4150	11.3500
 0.4160	11.4800
 0.4170	11.5500
 0.4180	11.6000
 0.4190	11.7600
 0.4200	11.8600
 0.4210	11.8700
 0.4220	11.9500
 0.4230	12.0200
 0.4240	12.1400
 0.4250	12.1800
 0.4260	12.3600
 0.4270	12.3500
 0.4280	12.4800
 0.4290	12.4700
 0.4300	12.6600
 0.4310	12.5900
 0.4320	12.7000
 0.4330	12.8100
 0.4340	12.7800
 0.4350	12.7500
 0.4360	12.7400
 0.4370	12.6400
 0.4380	12.5300
 0.4390	12.6400
 0.4400	12.6700
 0.4410	12.7300
 0.4420	12.7800
 0.4430	12.8900
 0.4440	12.9600
 0.4450	13.0400
 0.4460	13.0900
 0.4470	13.1100
 0.4480	13.0700
 0.4490	13.2200
 0.4500	13.2800
 0.4510	13.3600
 0.4520	13.3700
 0.4530	13.4000
 0.4540	13.5100
 0.4550	13.4900
 0.4560	13.6200
 0.4570	13.7600
 0.4580	13.7500
 0.4590	13.8600
 0.4600	13.8500
 0.4610	13.9900
 0.4620	14.0000
 0.4630	14.1300
 0.4640	14.2600
 0.4650	14.3900
 0.4660	14.4700
 0.4670	14.5300
 0.4680	14.5700
 0.4690	14.7000
 0.4700	14.9000
 0.4710	15.0800
 0.4720	15.1900
 0.4730	15.2100
 0.4740	15.3600
 0.4750	15.5100
 0.4760	15.5600
 0.4770	15.6500
 0.4780	15.8100
 0.4790	15.8800
 0.4800	15.8000
 0.4810	15.9400
 0.4820	16.0000
 0.4830	15.9800
 0.4840	16.1700
 0.4850	16.2300
 0.4860	16.3700
 0.4870	16.4600
 0.4880	16.5000
 0.4890	16.5600
 0.4900	16.6400
 0.4910	16.7400
 0.4920	16.8600
 0.4930	16.8900
 0.4940	17.0500
 0.4950	17.0900
 0.4960	17.1600
 0.4970	17.2700
 0.4980	17.3700
 0.4990	17.5800
 0.5000	17.5600
 0.5010	17.5900
 0.5020	17.7000
 0.5030	17.7300
 0.5040	17.7300
 0.5050	17.6900
 0.5060	17.7400
 0.5070	17.7900
 0.5080	17.9900
 0.5090	18.0600
 0.5100	18.3300
 0.5110	18.3300
 0.5120	18.5100
 0.5130	18.5900
 0.5140	18.6600
 0.5150	18.6200
 0.5160	18.8000
 0.5170	18.9400
 0.5180	18.9100
 0.5190	18.9200
 0.5200	18.9100
 0.5210	18.9100
 0.5220	18.8600
 0.5230	18.8100
 0.5240	18.9700
 0.5250	19.1000
 0.5260	19.0600
 0.5270	19.1900
 0.5280	19.3300
 0.5290	19.4000
 0.5300	19.3600
 0.5310	19.4300
 0.5320	19.3300
 0.5330	19.4100
 0.5340	19.1600
 0.5350	19.0900
 0.5360	19.0400
 0.5370	19.0400
 0.5380	19.0400
 0.5390	19.0400
 0.5400	18.9600
 0.5410	18.9900
 0.5420	19.0400
 0.5430	18.9400
 0.5440	18.9100
 0.5450	18.8700
 0.5460	18.8500
 0.5470	18.8700
 0.5480	18.9200
 0.5490	18.9300
 0.5500	18.9800
 0.5510	18.8800
 0.5520	18.9400
 0.5530	18.9300
 0.5540	18.9200
 0.5550	18.9000
 0.5560	18.9000
 0.5570	18.8500
 0.5580	18.7800
 0.5590	18.7100
 0.5600	18.8000
 0.5610	18.7200
 0.5620	18.6900
 0.5630	18.5500
 0.5640	18.5600
 0.5650	18.4300
 0.5660	18.4700
 0.5670	18.4000
 0.5680	18.3000
 0.5690	18.2600
 0.5700	18.2100
 0.5710	18.0700
 0.5720	17.9900
 0.5730	17.8000
 0.5740	17.7200
 0.5750	17.5300
 0.5760	17.4800
 0.5770	17.5700
 0.5780	17.4600
 0.5790	17.4900
 0.5800	17.3700
 0.5810	17.4000
 0.5820	17.3200
 0.5830	17.2200
 0.5840	17.0700
 0.5850	16.9400
 0.5860	16.8500
 0.5870	16.8700
 0.5880	16.7100
 0.5890	16.7400
 0.5900	16.6700
 0.5910	16.6000
 0.5920	16.5400
 0.5930	16.5100
 0.5940	16.3800
 0.5950	16.3500
 0.5960	16.3100
 0.5970	16.2800
 0.5980	16.2300
 0.5990	16.1600
 0.6000	16.1000
 0.6010	15.9500
 0.6020	15.9600
 0.6030	15.8800
 0.6040	15.7000
 0.6050	15.7100
 0.6060	15.6300
 0.6070	15.5700
 0.6080	15.5900
 0.6090	15.4800
 0.6100	15.4400
 0.6110	15.4000
 0.6120	15.3400
 0.6130	15.2600
 0.6140	15.1200
 0.6150	15.0300
 0.6160	14.9400
 0.6170	14.9400
 0.6180	14.8100
 0.6190	14.8400
 0.6200	14.8300
 0.6210	14.7100
 0.6220	14.6600
 0.6230	14.6300
 0.6240	14.6200
 0.6250	14.5400
 0.6260	14.5200
 0.6270	14.4700
 0.6280	14.4200
 0.6290	14.4300
 0.6300	14.2400
 0.6310	14.2300
 0.6320	14.0700
 0.6330	14.0900
 0.6340	14.1000
 0.6350	14.0700
 0.6360	14.0700
 0.6370	14.0600
 0.6380	14.0400
 0.6390	14.0500
 0.6400	14.0400
 0.6410	14.0200
 0.6420	13.9000
 0.6430	13.8700
 0.6440	13.8700
 0.6450	13.8300
 0.6460	13.9300
 0.6470	13.8900
 0.6480	13.8400
 0.6490	13.7200
 0.6500	13.8100
 0.6510	13.8200
 0.6520	13.7300
 0.6530	13.7300
 0.6540	13.7900
 0.6550	13.7400
 0.6560	13.7300
 0.6570	13.6300
 0.6580	13.6800
 0.6590	13.5300
 0.6600	13.5400
 0.6610	13.6600
 0.6620	13.6900
 0.6630	13.6700
 0.6640	13.7700
 0.6650	13.7800
 0.6660	13.7400
 0.6670	13.7900
 0.6680	13.7200
 0.6690	13.7100
 0.6700	13.7100
 0.6710	13.7700
 0.6720	13.6800
 0.6730	13.8200
 0.6740	13.8700
 0.6750	13.8500
 0.6760	13.8300
 0.6770	13.9600
 0.6780	14.0000
 0.6790	14.0200
 0.6800	14.0500
 0.6810	14.1500
 0.6820	14.1300
 0.6830	14.1500
 0.6840	14.1200
 0.6850	14.0200
 0.6860	13.9600
 0.6870	13.8900
 0.6880	13.9000
 0.6890	13.9800
 0.6900	13.9100
 0.6910	14.0000
 0.6920	13.9900
 0.6930	14.0500
 0.6940	14.0500
 0.6950	14.0500
 0.6960	13.9800
 0.6970	14.0700
 0.6980	14.0800
 0.6990	14.1100
 0.7000	14.0700
 0.7010	14.2100
 0.7020	14.3100
 0.7030	14.2600
 0.7040	14.3400
 0.7050	14.3600
 0.7060	14.4000
 0.7070	14.3300
 0.7080	14.3600
 0.7090	14.4300
 0.7100	14.5400
 0.7110	14.6800
 0.7120	14.7000
 0.7130	14.7500
 0.7140	14.7400
 0.7150	14.7100
 0.7160	14.6100
 0.7170	14.6100
 0.7180	14.6400
 0.7190	14.8500
 0.7200	14.8300
 0.7210	14.8900
 0.7220	14.9600
 0.7230	15.0500
 0.7240	15.0500
 0.7250	15.0700
 0.7260	15.1100
 0.7270	15.0500
 0.7280	15.1600
 0.7290	15.2600
 0.7300	15.1800
 0.7310	15.1700
 0.7320	15.2500
 0.7330	15.3000
 0.7340	15.2400
 0.7350	15.3000
 0.7360	15.3400
 0.7370	15.3500
 0.7380	15.4400
 0.7390	15.5300
 0.7400	15.5200
 0.7410	15.5800
 0.7420	15.5400
 0.7430	15.5700
 0.7440	15.5100
 0.7450	15.4000
 0.7460	15.4800
 0.7470	15.5800
 0.7480	15.6100
 0.7490	15.6300
 0.7500	15.7400
 0.7510	15.7600
 0.7520	15.7900
 0.7530	15.8400
 0.7540	15.7800
 0.7550	15.7700
 0.7560	15.8800
 0.7570	15.9700
 0.7580	15.9500
 0.7590	15.9600
 0.7600	15.9700
 0.7610	15.9500
 0.7620	15.9200
 0.7630	15.9300
 0.7640	15.9800
 0.7650	16.1000
 0.7660	16.1800
 0.7670	16.1500
 0.7680	16.1500
 0.7690	16.1100
 0.7700	16.0900
 0.7710	15.9800
 0.7720	16.1000
 0.7730	16.1200
 0.7740	16.1900
 0.7750	16.1600
 0.7760	16.2000
 0.7770	16.2900
 0.7780	16.2900
 0.7790	16.3400
 0.7800	16.3200
 0.7810	16.2600
 0.7820	16.4000
 0.7830	16.3400
 0.7840	16.3100
 0.7850	16.3600
 0.7860	16.2900
 0.7870	16.3200
 0.7880	16.3500
 0.7890	16.3800
 0.7900	16.4000
 0.7910	16.4600
 0.7920	16.4700
 0.7930	16.5200
 0.7940	16.4400
 0.7950	16.4400
 0.7960	16.4000
 0.7970	16.2200
 0.7980	16.2800
 0.7990	16.3700
 0.8000	17.0100
 0.8040	16.9700
 0.8080	16.8500
 0.8120	16.7300
 0.8160	16.6200
 0.8200	16.3900
 0.8240	16.3200
 0.8280	16.1200
 0.8320	16.0100
 0.8360	15.8400
 0.8400	15.6900
 0.8440	15.4600
 0.8480	15.2100
 0.8520	15.1500
 0.8560	15.0100
 0.8600	14.7700
 0.8640	14.5800
 0.8680	14.5300
 0.8720	14.2500
 0.8760	14.1200
 0.8800	13.9700
 0.8840	13.8100
 0.8880	13.6800
 0.8920	13.5600
 0.8960	13.3900
 0.9000	13.2600
 0.9040	13.0600
 0.9080	12.9200
 0.9120	12.7700
 0.9160	12.7000
 0.9200	12.4700
 0.9240	12.3300
 0.9280	12.1700
 0.9320	11.9600
 0.9360	11.8700
 0.9400	11.6000
 0.9440	11.3200
 0.9480	11.2300
 0.9520	11.0000
 0.9560	10.8700
 0.9600	10.7100
 0.9640	10.5200
 0.9680	10.3700
 0.9720	10.1500
 0.9760	 9.9900
 0.9800	 9.7800
 0.9840	 9.5800
 0.9880	 9.4300
 0.9920	 9.3600
 0.9960	 9.2200
 1.0000	 9.1100
 1.0040	 8.9600
 1.0080	 8.8900
 1.0120	 8.7700
 1.0160	 8.7800
 1.0200	 8.7500
 1.0240	 8.7500
 1.0280	 8.7400
 1.0320	 8.7700
 1.0360	 8.8100
 1.0400	 8.8500
 1.0440	 9.0400
 1.0480	 9.2100
 1.0520	 9.2100
 1.0560	 9.5400
 1.0600	 9.7600
 1.0640	10.0500
 1.0680	10.5200
 1.0720	10.7800
 1.0760	11.2300
 1.0800	11.6400
 1.0840	11.9800
 1.0880	12.5100
 1.0920	12.8300
 1.0960	13.2900
 1.1000	13.7000
 1.1040	14.0800
 1.1080	14.4600
 1.1120	14.8500
 1.1160	15.1900
 1.1200	15.6600
 1.1240	16.1100
 1.1280	16.3400
 1.1320	16.8700
 1.1360	17.1400
 1.1400	17.4000
 1.1440	17.8200
 1.1480	18.0900
 1.1520	18.4800
 1.1560	18.8200
 1.1600	19.1000
 1.1640	19.4300
 1.1680	19.7000
 1.1720	20.1800
 1.1760	20.5100
 1.1800	20.7600
 1.1840	21.1900
 1.1880	21.5200
 1.1920	21.8400
 1.1960	22.2900
 1.2000	22.5900
 1.2040	22.9900
 1.2080	23.4100
 1.2120	23.7300
 1.2160	24.2400
 1.2200	24.6300
 1.2240	24.9800
 1.2280	25.4200
 1.2320	25.8800
 1.2360	26.3000
 1.2400	26.7500
 1.2440	27.1700
 1.2480	27.6300
 1.2520	28.1700
 1.2560	28.6000
 1.2600	29.1200
 1.2640	29.5300
 1.2680	30.0100
 1.2720	30.3700
 1.2760	30.8700
 1.2800	31.5200
 1.2840	31.9000
 1.2880	32.4400
 1.2920	32.8200
 1.2960	33.3000
 1.3000	33.7800
 1.3040	34.3700
 1.3080	34.9000
 1.3120	35.3400
 1.3160	35.8300
 1.3200	36.3700
 1.3240	36.7600
 1.3280	37.3100
 1.3320	37.6700
 1.3360	38.2400
 1.3400	38.6800
 1.3440	39.1300
 1.3480	39.6300
 1.3520	39.9900
 1.3560	40.3800
 1.3600	40.6800
 1.3640	41.0600
 1.3680	41.1400
 1.3720	41.0900
 1.3760	41.2500
 1.3800	40.5400
 1.3840	36.9300
 1.3880	30.6800
 1.3920	26.8400
 1.3960	27.7000
 1.4000	32.1000
 1.4040	36.4900
 1.4080	40.0200
 1.4120	42.5200
 1.4160	44.2300
 1.4200	45.4200
 1.4240	46.3700
 1.4280	46.8900
 1.4320	47.4100
 1.4360	47.7600
 1.4400	47.9900
 1.4440	48.3200
 1.4480	48.6300
 1.4520	49.0000
 1.4560	49.2900
 1.4600	49.5800
 1.4640	49.8400
 1.4680	50.0700
 1.4720	50.4400
 1.4760	50.7000
 1.4800	50.8200
 1.4840	51.1600
 1.4880	51.3500
 1.4920	51.5900
 1.4960	51.8800
 1.5000	52.0000
 1.5040	52.3100
 1.5080	52.5400
 1.5120	52.7800
 1.5160	53.0500
 1.5200	53.1300
 1.5240	53.3000
 1.5280	53.4300
 1.5320	53.7000
 1.5360	53.8000
 1.5400	53.9700
 1.5440	54.1300
 1.5480	54.3000
 1.5520	54.6400
 1.5560	54.8700
 1.5600	54.9500
 1.5640	55.2400
 1.5680	55.3000
 1.5720	55.4700
 1.5760	55.7300
 1.5800	55.8600
 1.5840	56.0200
 1.5880	56.1100
 1.5920	56.3100
 1.5960	56.5300
 1.6000	56.5400
 1.6040	56.7200
 1.6080	56.8000
 1.6120	56.9700
 1.6160	57.1100
 1.6200	57.1800
 1.6240	57.3700
 1.6280	57.5600
 1.6320	57.5900
 1.6360	57.7800
 1.6400	57.8100
 1.6440	57.9400
 1.6480	58.0800
 1.6520	58.1800
 1.6560	58.3000
 1.6600	58.3600
 1.6640	58.5400
 1.6680	58.5300
 1.6720	58.6200
 1.6760	58.7200
 1.6800	58.8400
 1.6840	58.9000
 1.6880	58.9400
 1.6920	59.0700
 1.6960	59.0800
 1.7000	59.1700
 1.7040	59.2100
 1.7080	59.1900
 1.7120	59.2600
 1.7160	59.2000
 1.7200	59.3400
 1.7240	59.2300
 1.7280	59.3200
 1.7320	59.3000
 1.7360	59.3300
 1.7400	59.3300
 1.7440	59.1800
 1.7480	59.3900
 1.7520	59.2200
 1.7560	59.3200
 1.7600	59.1800
 1.7640	59.2700
 1.7680	59.2300
 1.7720	59.2400
 1.7760	59.2600
 1.7800	59.1100
 1.7840	59.1000
 1.7880	59.0700
 1.7920	59.0100
 1.7960	58.8800
 1.8000	58.7800
 1.8040	58.8700
 1.8080	58.6400
 1.8120	58.4900
 1.8160	58.3700
 1.8200	58.2700
 1.8240	58.0400
 1.8280	57.9400
 1.8320	57.8100
 1.8360	57.6100
 1.8400	57.5800
 1.8440	57.2200
 1.8480	57.0100
 1.8520	56.7600
 1.8560	56.6900
 1.8600	56.4700
 1.8640	56.3500
 1.8680	56.2400
 1.8720	55.9600
 1.8760	55.8600
 1.8800	55.6400
 1.8840	55.4500
 1.8880	55.3200
 1.8920	55.1500
 1.8960	54.9400
 1.9000	54.8300
 1.9040	54.6400
 1.9080	54.5900
 1.9120	54.3600
 1.9160	54.3400
 1.9200	54.1100
 1.9240	53.9800
 1.9280	53.6900
 1.9320	53.4800
 1.9360	53.4800
 1.9400	53.1500
 1.9440	52.9500
 1.9480	52.7300
 1.9520	52.5100
 1.9560	52.3500
 1.9600	51.9700
 1.9640	51.7300
 1.9680	51.4400
 1.9720	51.1000
 1.9760	50.8500
 1.9800	50.4100
 1.9840	50.1700
 1.9880	49.6700
 1.9920	49.5200
 1.9960	49.3300
 2.0000	49.0200
 2.0040	48.7300
 2.0080	48.6300
 2.0120	48.4000
 2.0160	48.4100
 2.0200	48.2700
 2.0240	48.1000
 2.0280	47.9100
 2.0320	47.6900
 2.0360	47.5500
 2.0400	47.2500
 2.0440	46.8500
 2.0480	46.6500
 2.0520	46.1100
 2.0560	45.8400
 2.0600	45.5200
 2.0640	45.1600
 2.0680	44.9500
 2.0720	44.5400
 2.0760	44.2700
 2.0800	43.9100
 2.0840	43.5400
 2.0880	43.3400
 2.0920	42.7600
 2.0960	42.2400
 2.1000	41.6100
 2.1040	41.1200
 2.1080	40.5600
 2.1120	40.0800
 2.1160	39.7600
 2.1200	39.3900
 2.1240	39.3400
 2.1280	39.1600
 2.1320	39.2300
 2.1360	39.2400
 2.1400	39.3000
 2.1440	39.3000
 2.1480	39.1500
 2.1520	39.2000
 2.1560	39.1000
 2.1600	39.0400
 2.1640	39.0000
 2.1680	38.9100
 2.1720	38.8200
 2.1760	38.5700
 2.1800	38.5000
 2.1840	38.2800
 2.1880	38.0900
 2.1920	37.9100
 2.1960	37.6800
 2.2000	37.5800
 2.2040	37.3500
 2.2080	37.0900
 2.2120	36.8500
 2.2160	36.5100
 2.2200	36.0700
 2.2240	35.4500
 2.2280	34.9000
 2.2320	34.3000
 2.2360	33.6100
 2.2400	32.9100
 2.2440	32.1000
 2.2480	31.4400
 2.2520	30.7700
 2.2560	29.8700
 2.2600	29.0800
 2.2640	27.9400
 2.2680	26.7800
 2.2720	25.5900
 2.2760	24.2100
 2.2800	22.7700
 2.2840	21.3300
 2.2880	19.8700
 2.2920	18.6600
 2.2960	17.4800
 2.3000	16.7100
 2.3040	16.4900
 2.3080	16.2900
 2.3120	16.6400
 2.3160	17.4100
 2.3200	18.2800
 2.3240	19.4700
 2.3280	20.7000
 2.3320	22.1200
 2.3360	23.4300
 2.3400	24.4300
 2.3440	25.2500
 2.3480	25.6400
 2.3520	25.5600
 2.3560	25.2100
 2.3600	24.5600
 2.3640	23.7200
 2.3680	22.6400
 2.3720	21.7200
 2.3760	20.8500
 2.3800	20.1700
 2.3840	19.9100
 2.3880	19.7800
 2.3920	20.0100
 2.3960	20.4600
 2.4000	21.0200
 2.4040	21.7500
 2.4080	22.3800
 2.4120	23.0600
 2.4160	23.5600
 2.4200	24.0400
 2.4240	24.3500
 2.4280	24.5200
 2.4320	24.6900
 2.4360	24.6800
 2.4400	24.6100
 2.4440	24.5800
 2.4480	24.5000
 2.4520	24.4700
 2.4560	24.3300
 2.4600	24.3000
 2.4640	24.2400
 2.4680	24.1600
 2.4720	24.1600
 2.4760	24.1800
 2.4800	24.2700
 2.4840	24.4100
 2.4880	24.4300
 2.4920	24.6500
 2.4960	24.7700
 2.5000	24.9200
