Name: Corrensite (Mg,Fe)_9(Si,Al)_8O_20(OH)_10._xH_2O
Type: Mineral
Class: Silicate
Subclass: Phyllosilicate
Particle Size: Medium
Sample No.: PS-10A
Owner: JPL
Wavelength Range: VSWIR
Origin: USA, Washington, Packwood
Collection Date: N/A
Description: Particle size was 45-125um.Collected by Clay Mineral Society Original ASTER Spectral Library name was jpl.beckman.mineral.silicate.phyllosilicate.medium.ps10a.spectrum.txt
Measurement: Hemispherical reflectance
First Column: X
Second Column: Y
X Units: Wavelength (micrometers)
Y Units:Reflectance (percent)
First X Value:  0.4000
Last X Value:  2.5000
Number of X Values: 826
Additional Information: mineral.silicate.phyllosilicate.medium.vswir.ps-10a.jpl.beckman.ancillary.txt

 0.4000	 7.4200
 0.4010	 7.5200
 0.4020	 7.5900
 0.4030	 7.5800
 0.4040	 7.5600
 0.4050	 7.7600
 0.4060	 7.7500
 0.4070	 7.8000
 0.4080	 7.7400
 0.4090	 7.8000
 0.4100	 7.8600
 0.4110	 7.9000
 0.4120	 7.9600
 0.4130	 8.0400
 0.4140	 8.1000
 0.4150	 8.1500
 0.4160	 8.0900
 0.4170	 8.1500
 0.4180	 8.3400
 0.4190	 8.3400
 0.4200	 8.3200
 0.4210	 8.4300
 0.4220	 8.6100
 0.4230	 8.6800
 0.4240	 8.7500
 0.4250	 8.8200
 0.4260	 8.7900
 0.4270	 8.8600
 0.4280	 9.0800
 0.4290	 9.0300
 0.4300	 9.1400
 0.4310	 9.2600
 0.4320	 9.3900
 0.4330	 9.4500
 0.4340	 9.4400
 0.4350	 9.6700
 0.4360	 9.9700
 0.4370	 9.8700
 0.4380	 9.9900
 0.4390	10.0000
 0.4400	10.1200
 0.4410	10.3100
 0.4420	10.2500
 0.4430	10.5000
 0.4440	10.4500
 0.4450	10.6200
 0.4460	10.6800
 0.4470	10.7200
 0.4480	10.8500
 0.4490	10.8300
 0.4500	10.8300
 0.4510	10.9500
 0.4520	10.9200
 0.4530	11.1700
 0.4540	11.1600
 0.4550	11.1600
 0.4560	11.1800
 0.4570	11.0900
 0.4580	11.3100
 0.4590	11.4100
 0.4600	11.3400
 0.4610	11.2500
 0.4620	11.3700
 0.4630	11.4200
 0.4640	11.3700
 0.4650	11.6000
 0.4660	11.5700
 0.4670	11.4400
 0.4680	11.5000
 0.4690	11.6500
 0.4700	11.7100
 0.4710	11.6800
 0.4720	11.7500
 0.4730	11.7700
 0.4740	11.7500
 0.4750	11.9500
 0.4760	11.8300
 0.4770	11.9800
 0.4780	12.1100
 0.4790	12.0100
 0.4800	12.1300
 0.4810	12.2500
 0.4820	12.3400
 0.4830	12.3900
 0.4840	12.4300
 0.4850	12.3500
 0.4860	12.5000
 0.4870	12.6100
 0.4880	12.7900
 0.4890	12.8800
 0.4900	12.9700
 0.4910	13.0000
 0.4920	13.0400
 0.4930	13.1900
 0.4940	13.2200
 0.4950	13.3900
 0.4960	13.4900
 0.4970	13.5200
 0.4980	13.7000
 0.4990	13.7400
 0.5000	13.9100
 0.5010	14.0200
 0.5020	14.0600
 0.5030	14.2100
 0.5040	14.3300
 0.5050	14.4400
 0.5060	14.6800
 0.5070	14.6200
 0.5080	14.6200
 0.5090	14.8600
 0.5100	14.9900
 0.5110	15.1700
 0.5120	15.2300
 0.5130	15.3100
 0.5140	15.4500
 0.5150	15.5900
 0.5160	15.8100
 0.5170	15.8400
 0.5180	15.9500
 0.5190	16.0800
 0.5200	16.1600
 0.5210	16.1600
 0.5220	16.2900
 0.5230	16.3900
 0.5240	16.5800
 0.5250	16.5800
 0.5260	16.5700
 0.5270	16.7300
 0.5280	16.8100
 0.5290	16.9300
 0.5300	16.9500
 0.5310	17.0800
 0.5320	17.1800
 0.5330	17.2000
 0.5340	17.3700
 0.5350	17.2600
 0.5360	17.4700
 0.5370	17.5300
 0.5380	17.5100
 0.5390	17.5800
 0.5400	17.6900
 0.5410	17.7900
 0.5420	17.8700
 0.5430	17.8400
 0.5440	17.7400
 0.5450	17.8400
 0.5460	17.9800
 0.5470	18.0900
 0.5480	18.1000
 0.5490	18.2000
 0.5500	18.3600
 0.5510	18.2600
 0.5520	18.4100
 0.5530	18.2500
 0.5540	18.4300
 0.5550	18.5200
 0.5560	18.4700
 0.5570	18.5000
 0.5580	18.5500
 0.5590	18.5300
 0.5600	18.5600
 0.5610	18.7800
 0.5620	18.8900
 0.5630	18.8600
 0.5640	18.9200
 0.5650	19.0200
 0.5660	18.9900
 0.5670	19.0600
 0.5680	19.0800
 0.5690	19.0600
 0.5700	19.1300
 0.5710	19.1100
 0.5720	19.1000
 0.5730	19.0500
 0.5740	19.1400
 0.5750	19.2500
 0.5760	19.2300
 0.5770	19.2200
 0.5780	19.2500
 0.5790	19.2800
 0.5800	19.3500
 0.5810	19.3700
 0.5820	19.3100
 0.5830	19.4600
 0.5840	19.4000
 0.5850	19.5100
 0.5860	19.4100
 0.5870	19.5500
 0.5880	19.6200
 0.5890	19.5900
 0.5900	19.6200
 0.5910	19.5400
 0.5920	19.6200
 0.5930	19.7600
 0.5940	19.7300
 0.5950	19.6700
 0.5960	19.7500
 0.5970	19.7200
 0.5980	19.8300
 0.5990	19.8200
 0.6000	19.7900
 0.6010	19.9100
 0.6020	19.8800
 0.6030	20.0200
 0.6040	20.0500
 0.6050	19.9800
 0.6060	20.1400
 0.6070	20.0900
 0.6080	20.1200
 0.6090	20.1600
 0.6100	20.2500
 0.6110	20.2200
 0.6120	20.1300
 0.6130	20.2200
 0.6140	20.2400
 0.6150	20.2900
 0.6160	20.3700
 0.6170	20.3400
 0.6180	20.2700
 0.6190	20.3100
 0.6200	20.3900
 0.6210	20.5000
 0.6220	20.4500
 0.6230	20.3800
 0.6240	20.5000
 0.6250	20.4300
 0.6260	20.6200
 0.6270	20.6100
 0.6280	20.5800
 0.6290	20.6100
 0.6300	20.6400
 0.6310	20.6800
 0.6320	20.7100
 0.6330	20.6700
 0.6340	20.6900
 0.6350	20.6900
 0.6360	20.7100
 0.6370	20.7400
 0.6380	20.8200
 0.6390	20.8400
 0.6400	20.8100
 0.6410	20.7100
 0.6420	20.8100
 0.6430	20.8800
 0.6440	20.9900
 0.6450	20.9600
 0.6460	20.9600
 0.6470	20.9600
 0.6480	21.0100
 0.6490	21.1200
 0.6500	21.1200
 0.6510	21.0700
 0.6520	21.1400
 0.6530	21.1100
 0.6540	21.2300
 0.6550	21.2300
 0.6560	21.1800
 0.6570	21.3000
 0.6580	21.2600
 0.6590	21.3000
 0.6600	21.3800
 0.6610	21.3800
 0.6620	21.3800
 0.6630	21.2400
 0.6640	21.3100
 0.6650	21.3900
 0.6660	21.4700
 0.6670	21.4500
 0.6680	21.4200
 0.6690	21.4400
 0.6700	21.4400
 0.6710	21.4800
 0.6720	21.6000
 0.6730	21.5400
 0.6740	21.5200
 0.6750	21.5400
 0.6760	21.5400
 0.6770	21.7000
 0.6780	21.7100
 0.6790	21.6000
 0.6800	21.7700
 0.6810	21.7200
 0.6820	21.7500
 0.6830	21.8400
 0.6840	21.7900
 0.6850	21.8500
 0.6860	21.7300
 0.6870	21.8200
 0.6880	21.9300
 0.6890	21.8300
 0.6900	21.8900
 0.6910	21.9000
 0.6920	21.8700
 0.6930	21.8800
 0.6940	21.9700
 0.6950	22.1300
 0.6960	22.0000
 0.6970	21.9000
 0.6980	22.1400
 0.6990	22.0600
 0.7000	22.1800
 0.7010	22.0700
 0.7020	22.2300
 0.7030	22.2300
 0.7040	22.1900
 0.7050	22.3400
 0.7060	22.3600
 0.7070	22.3300
 0.7080	22.3600
 0.7090	22.5300
 0.7100	22.3400
 0.7110	22.3900
 0.7120	22.5300
 0.7130	22.5700
 0.7140	22.4900
 0.7150	22.6100
 0.7160	22.6500
 0.7170	22.5900
 0.7180	22.7500
 0.7190	22.7300
 0.7200	22.8200
 0.7210	22.7600
 0.7220	22.7900
 0.7230	22.9600
 0.7240	22.9300
 0.7250	22.9600
 0.7260	23.0100
 0.7270	23.0600
 0.7280	23.0600
 0.7290	23.0500
 0.7300	23.1800
 0.7310	23.2500
 0.7320	23.1600
 0.7330	23.2900
 0.7340	23.3100
 0.7350	23.3300
 0.7360	23.4500
 0.7370	23.4500
 0.7380	23.4200
 0.7390	23.4600
 0.7400	23.4500
 0.7410	23.5900
 0.7420	23.6100
 0.7430	23.7200
 0.7440	23.6900
 0.7450	23.8500
 0.7460	23.8900
 0.7470	23.8500
 0.7480	23.9300
 0.7490	24.0200
 0.7500	24.0500
 0.7510	24.1100
 0.7520	24.0700
 0.7530	24.2400
 0.7540	24.3900
 0.7550	24.1900
 0.7560	24.3900
 0.7570	24.3200
 0.7580	24.5100
 0.7590	24.4500
 0.7600	24.4800
 0.7610	24.5400
 0.7620	24.6900
 0.7630	24.7100
 0.7640	24.7300
 0.7650	24.7600
 0.7660	24.8100
 0.7670	24.9800
 0.7680	24.9600
 0.7690	25.0200
 0.7700	24.9500
 0.7710	25.0200
 0.7720	25.1900
 0.7730	25.1200
 0.7740	25.2400
 0.7750	25.1900
 0.7760	25.3600
 0.7770	25.3800
 0.7780	25.2900
 0.7790	25.4200
 0.7800	25.4700
 0.7810	25.4000
 0.7820	25.4300
 0.7830	25.5600
 0.7840	25.6000
 0.7850	25.6900
 0.7860	25.6800
 0.7870	25.7200
 0.7880	25.7100
 0.7890	25.7200
 0.7900	25.8200
 0.7910	25.7600
 0.7920	25.7900
 0.7930	25.8500
 0.7940	26.0000
 0.7950	25.9200
 0.7960	25.9300
 0.7970	26.0400
 0.7980	26.0400
 0.7990	26.0800
 0.8000	26.5100
 0.8040	26.5600
 0.8080	26.6500
 0.8120	26.6800
 0.8160	26.6300
 0.8200	26.5700
 0.8240	26.5800
 0.8280	26.5300
 0.8320	26.5500
 0.8360	26.5600
 0.8400	26.5000
 0.8440	26.4200
 0.8480	26.3700
 0.8520	26.3600
 0.8560	26.2800
 0.8600	26.2800
 0.8640	26.1700
 0.8680	26.1200
 0.8720	26.1400
 0.8760	26.1500
 0.8800	26.0800
 0.8840	26.1400
 0.8880	26.2600
 0.8920	26.2000
 0.8960	26.2700
 0.9000	26.2800
 0.9040	26.2900
 0.9080	26.3500
 0.9120	26.3400
 0.9160	26.4500
 0.9200	26.5700
 0.9240	26.6100
 0.9280	26.7300
 0.9320	26.8600
 0.9360	26.8700
 0.9400	27.0000
 0.9440	27.0700
 0.9480	27.1600
 0.9520	27.2100
 0.9560	27.3400
 0.9600	27.5400
 0.9640	27.5600
 0.9680	27.6600
 0.9720	27.7200
 0.9760	27.7700
 0.9800	27.8500
 0.9840	27.8600
 0.9880	27.9700
 0.9920	28.0500
 0.9960	28.1400
 1.0000	28.1000
 1.0040	28.2600
 1.0080	28.2500
 1.0120	28.2900
 1.0160	28.2500
 1.0200	28.3000
 1.0240	28.3400
 1.0280	28.3600
 1.0320	28.4100
 1.0360	28.5500
 1.0400	28.6100
 1.0440	28.5900
 1.0480	28.6000
 1.0520	28.6700
 1.0560	28.6800
 1.0600	28.8200
 1.0640	28.9200
 1.0680	28.9600
 1.0720	29.0200
 1.0760	29.0600
 1.0800	29.1100
 1.0840	29.2600
 1.0880	29.3600
 1.0920	29.4800
 1.0960	29.6600
 1.1000	29.7700
 1.1040	29.8200
 1.1080	30.0100
 1.1120	30.0900
 1.1160	30.2800
 1.1200	30.3800
 1.1240	30.6100
 1.1280	30.7600
 1.1320	30.9300
 1.1360	31.0700
 1.1400	31.1700
 1.1440	31.3500
 1.1480	31.6000
 1.1520	31.6800
 1.1560	31.9300
 1.1600	32.1300
 1.1640	32.3600
 1.1680	32.4900
 1.1720	32.6900
 1.1760	32.8300
 1.1800	33.1300
 1.1840	33.2900
 1.1880	33.5500
 1.1920	33.7500
 1.1960	34.0100
 1.2000	34.2000
 1.2040	34.4000
 1.2080	34.5800
 1.2120	34.8100
 1.2160	35.1100
 1.2200	35.3800
 1.2240	35.6600
 1.2280	35.8400
 1.2320	36.0300
 1.2360	36.2900
 1.2400	36.4700
 1.2440	36.7300
 1.2480	36.9800
 1.2520	37.2800
 1.2560	37.5400
 1.2600	37.7300
 1.2640	37.9200
 1.2680	38.1700
 1.2720	38.4600
 1.2760	38.6100
 1.2800	38.8800
 1.2840	39.1200
 1.2880	39.4500
 1.2920	39.6700
 1.2960	39.7000
 1.3000	40.0000
 1.3040	40.2500
 1.3080	40.5100
 1.3120	40.7200
 1.3160	40.9700
 1.3200	41.1700
 1.3240	41.3900
 1.3280	41.6300
 1.3320	41.7800
 1.3360	41.9300
 1.3400	42.2200
 1.3440	42.3700
 1.3480	42.6600
 1.3520	42.8600
 1.3560	43.0000
 1.3600	43.2500
 1.3640	43.3700
 1.3680	43.4700
 1.3720	43.6300
 1.3760	43.6900
 1.3800	43.5900
 1.3840	43.3100
 1.3880	42.9300
 1.3920	42.4300
 1.3960	41.9400
 1.4000	41.8200
 1.4040	41.8700
 1.4080	41.9200
 1.4120	42.1100
 1.4160	42.3600
 1.4200	42.5200
 1.4240	42.8200
 1.4280	42.9700
 1.4320	43.2500
 1.4360	43.4600
 1.4400	43.7400
 1.4440	44.0000
 1.4480	44.3400
 1.4520	44.6200
 1.4560	44.9100
 1.4600	45.2000
 1.4640	45.4600
 1.4680	45.8000
 1.4720	45.9800
 1.4760	46.3200
 1.4800	46.5200
 1.4840	46.8600
 1.4880	47.1200
 1.4920	47.4500
 1.4960	47.7100
 1.5000	47.8800
 1.5040	48.0800
 1.5080	48.3100
 1.5120	48.5700
 1.5160	48.8500
 1.5200	48.9900
 1.5240	49.2200
 1.5280	49.4500
 1.5320	49.5700
 1.5360	49.7700
 1.5400	49.9000
 1.5440	50.1300
 1.5480	50.3600
 1.5520	50.5200
 1.5560	50.6800
 1.5600	50.8400
 1.5640	50.9100
 1.5680	51.0900
 1.5720	51.3500
 1.5760	51.4500
 1.5800	51.7500
 1.5840	51.8700
 1.5880	52.0000
 1.5920	52.1000
 1.5960	52.2100
 1.6000	52.4000
 1.6040	52.4700
 1.6080	52.7800
 1.6120	52.9600
 1.6160	53.0400
 1.6200	53.1600
 1.6240	53.2900
 1.6280	53.3700
 1.6320	53.4800
 1.6360	53.6700
 1.6400	53.8300
 1.6440	53.9800
 1.6480	54.0800
 1.6520	54.3100
 1.6560	54.3900
 1.6600	54.4600
 1.6640	54.5900
 1.6680	54.6400
 1.6720	54.7000
 1.6760	54.8800
 1.6800	54.9800
 1.6840	55.1600
 1.6880	55.2600
 1.6920	55.3400
 1.6960	55.4600
 1.7000	55.5700
 1.7040	55.6300
 1.7080	55.6700
 1.7120	55.8400
 1.7160	55.8700
 1.7200	55.9400
 1.7240	55.9900
 1.7280	56.0900
 1.7320	56.1000
 1.7360	56.1600
 1.7400	56.1800
 1.7440	56.2200
 1.7480	56.2300
 1.7520	56.2200
 1.7560	56.3300
 1.7600	56.4300
 1.7640	56.4300
 1.7680	56.4800
 1.7720	56.4800
 1.7760	56.5200
 1.7800	56.5400
 1.7840	56.5800
 1.7880	56.7100
 1.7920	56.7500
 1.7960	56.7200
 1.8000	56.7500
 1.8040	56.8100
 1.8080	56.8600
 1.8120	56.9000
 1.8160	56.9200
 1.8200	57.0000
 1.8240	56.9300
 1.8280	57.0200
 1.8320	56.9400
 1.8360	56.9100
 1.8400	56.8600
 1.8440	56.8600
 1.8480	56.7100
 1.8520	56.4700
 1.8560	56.2400
 1.8600	55.9800
 1.8640	55.6100
 1.8680	55.0700
 1.8720	54.4100
 1.8760	53.5100
 1.8800	52.5200
 1.8840	51.2300
 1.8880	49.8700
 1.8920	48.2700
 1.8960	46.6500
 1.9000	45.0800
 1.9040	43.6900
 1.9080	42.6800
 1.9120	42.0900
 1.9160	41.9000
 1.9200	41.9400
 1.9240	42.2400
 1.9280	42.7000
 1.9320	42.9800
 1.9360	43.4400
 1.9400	43.7900
 1.9440	44.1400
 1.9480	44.4900
 1.9520	44.8100
 1.9560	45.2000
 1.9600	45.4200
 1.9640	45.9100
 1.9680	46.1800
 1.9720	46.5100
 1.9760	46.8700
 1.9800	47.1900
 1.9840	47.6200
 1.9880	47.9100
 1.9920	48.3900
 1.9960	48.6900
 2.0000	49.1700
 2.0040	49.3700
 2.0080	49.7000
 2.0120	50.1100
 2.0160	50.4400
 2.0200	50.8000
 2.0240	51.1400
 2.0280	51.4300
 2.0320	51.7100
 2.0360	51.9300
 2.0400	52.2000
 2.0440	52.4600
 2.0480	52.7800
 2.0520	53.0000
 2.0560	53.3200
 2.0600	53.4700
 2.0640	53.6600
 2.0680	53.8500
 2.0720	54.0700
 2.0760	54.3500
 2.0800	54.4800
 2.0840	54.6300
 2.0880	54.7500
 2.0920	54.8800
 2.0960	55.0100
 2.1000	55.0800
 2.1040	55.2400
 2.1080	55.3600
 2.1120	55.3300
 2.1160	55.4300
 2.1200	55.4100
 2.1240	55.4300
 2.1280	55.5300
 2.1320	55.5200
 2.1360	55.5400
 2.1400	55.4500
 2.1440	55.4800
 2.1480	55.5000
 2.1520	55.3600
 2.1560	55.3000
 2.1600	55.2300
 2.1640	54.9800
 2.1680	54.8800
 2.1720	54.7200
 2.1760	54.5700
 2.1800	54.3200
 2.1840	54.0400
 2.1880	53.8700
 2.1920	53.5400
 2.1960	53.4500
 2.2000	53.3200
 2.2040	53.1000
 2.2080	52.8000
 2.2120	52.6400
 2.2160	52.3800
 2.2200	52.1800
 2.2240	51.7500
 2.2280	51.2200
 2.2320	50.6800
 2.2360	50.0700
 2.2400	49.5400
 2.2440	49.0600
 2.2480	48.6600
 2.2520	48.2500
 2.2560	47.8900
 2.2600	47.4500
 2.2640	47.2300
 2.2680	46.8100
 2.2720	46.6000
 2.2760	46.2200
 2.2800	45.8200
 2.2840	45.5400
 2.2880	45.2700
 2.2920	44.9800
 2.2960	44.7100
 2.3000	44.5300
 2.3040	44.3100
 2.3080	44.0700
 2.3120	43.9000
 2.3160	43.7700
 2.3200	43.6700
 2.3240	43.4300
 2.3280	43.2800
 2.3320	43.1100
 2.3360	42.9100
 2.3400	42.7800
 2.3440	42.7100
 2.3480	42.5600
 2.3520	42.5200
 2.3560	42.5300
 2.3600	42.6100
 2.3640	42.5900
 2.3680	42.6800
 2.3720	42.7000
 2.3760	42.6200
 2.3800	42.6500
 2.3840	42.6000
 2.3880	42.5500
 2.3920	42.3900
 2.3960	42.2700
 2.4000	42.1800
 2.4040	42.1000
 2.4080	41.9900
 2.4120	41.9200
 2.4160	41.6800
 2.4200	41.5700
 2.4240	41.3400
 2.4280	41.1200
 2.4320	40.9900
 2.4360	40.6900
 2.4400	40.5000
 2.4440	40.0900
 2.4480	39.8300
 2.4520	39.5400
 2.4560	39.3500
 2.4600	39.0800
 2.4640	38.7500
 2.4680	38.3600
 2.4720	38.2000
 2.4760	37.8900
 2.4800	37.7800
 2.4840	37.6600
 2.4880	37.4400
 2.4920	37.3200
 2.4960	37.2300
 2.5000	37.1700
