Name: Albite (Feldspar) (K,Na)AlSi_3O_8
Type: Mineral
Class: Silicate
Subclass: Tectosilicate
Particle Size: Coarse
Sample No.: TS-6A
Owner: JPL
Wavelength Range: VSWIR
Origin: 
Collection Date: N/A
Description: Particle size was 125-500um.Collected by JPL Original ASTER Spectral Library name was jpl.beckman.mineral.silicate.tectosilicate.coarse.ts06a.spectrum.txt
Measurement: Hemispherical reflectance
First Column: X
Second Column: Y
X Units: Wavelength (micrometers)
Y Units:Reflectance (percent)
First X Value:  0.4000
Last X Value:  2.5000
Number of X Values: 826
Additional Information: mineral.silicate.tectosilicate.coarse.vswir.ts-6a.jpl.beckman.ancillary.txt

 0.4000	54.5500
 0.4010	54.5900
 0.4020	54.7800
 0.4030	55.0400
 0.4040	55.1400
 0.4050	55.0800
 0.4060	55.3400
 0.4070	55.3700
 0.4080	55.5300
 0.4090	55.6400
 0.4100	55.8000
 0.4110	56.0300
 0.4120	56.0800
 0.4130	56.0900
 0.4140	56.2000
 0.4150	56.4300
 0.4160	56.5300
 0.4170	56.6200
 0.4180	56.7500
 0.4190	56.9200
 0.4200	57.1000
 0.4210	57.0500
 0.4220	57.1800
 0.4230	57.5100
 0.4240	57.5700
 0.4250	57.6000
 0.4260	57.7500
 0.4270	58.0500
 0.4280	58.1600
 0.4290	58.1800
 0.4300	58.3400
 0.4310	58.5900
 0.4320	58.7100
 0.4330	58.7900
 0.4340	58.8800
 0.4350	58.9400
 0.4360	59.1700
 0.4370	59.2500
 0.4380	59.3200
 0.4390	59.5300
 0.4400	59.7900
 0.4410	59.8300
 0.4420	59.8700
 0.4430	60.0600
 0.4440	60.2600
 0.4450	60.2900
 0.4460	60.3000
 0.4470	60.3500
 0.4480	60.7900
 0.4490	60.7200
 0.4500	60.6400
 0.4510	60.8100
 0.4520	61.1100
 0.4530	61.1500
 0.4540	61.0800
 0.4550	61.2700
 0.4560	61.3200
 0.4570	61.4400
 0.4580	61.4700
 0.4590	61.5700
 0.4600	61.6200
 0.4610	61.8100
 0.4620	61.8100
 0.4630	61.7600
 0.4640	62.0300
 0.4650	62.0100
 0.4660	62.0500
 0.4670	62.0700
 0.4680	62.1600
 0.4690	62.3200
 0.4700	62.3400
 0.4710	62.3400
 0.4720	62.3600
 0.4730	62.6200
 0.4740	62.6800
 0.4750	62.6400
 0.4760	62.7400
 0.4770	62.9400
 0.4780	62.8800
 0.4790	63.0200
 0.4800	63.0800
 0.4810	63.1600
 0.4820	63.3200
 0.4830	63.2700
 0.4840	63.2700
 0.4850	63.3700
 0.4860	63.5600
 0.4870	63.5200
 0.4880	63.6200
 0.4890	63.6600
 0.4900	63.8800
 0.4910	63.8800
 0.4920	63.8600
 0.4930	63.9000
 0.4940	64.1300
 0.4950	64.0900
 0.4960	64.1300
 0.4970	64.2500
 0.4980	64.2800
 0.4990	64.3800
 0.5000	64.4000
 0.5010	64.4700
 0.5020	64.6300
 0.5030	64.8000
 0.5040	64.8600
 0.5050	64.8400
 0.5060	64.9700
 0.5070	65.1300
 0.5080	65.1400
 0.5090	65.0900
 0.5100	65.1600
 0.5110	65.3800
 0.5120	65.4400
 0.5130	65.4200
 0.5140	65.4200
 0.5150	65.6900
 0.5160	65.7000
 0.5170	65.6900
 0.5180	65.7700
 0.5190	66.0100
 0.5200	65.9400
 0.5210	65.9700
 0.5220	65.9800
 0.5230	66.0600
 0.5240	66.1600
 0.5250	66.0900
 0.5260	66.1400
 0.5270	66.3400
 0.5280	66.3300
 0.5290	66.3800
 0.5300	66.3100
 0.5310	66.5500
 0.5320	66.4400
 0.5330	66.5200
 0.5340	66.3400
 0.5350	66.4600
 0.5360	66.5600
 0.5370	66.6100
 0.5380	66.6700
 0.5390	66.8200
 0.5400	66.7600
 0.5410	66.8400
 0.5420	66.7900
 0.5430	66.8200
 0.5440	66.9200
 0.5450	66.9100
 0.5460	66.8400
 0.5470	66.9100
 0.5480	67.1100
 0.5490	67.1600
 0.5500	67.1200
 0.5510	67.4100
 0.5520	67.3200
 0.5530	67.4400
 0.5540	67.3900
 0.5550	67.4000
 0.5560	67.5600
 0.5570	67.4100
 0.5580	67.3800
 0.5590	67.4100
 0.5600	67.5100
 0.5610	67.8300
 0.5620	67.7700
 0.5630	67.7800
 0.5640	67.7100
 0.5650	67.6300
 0.5660	67.7100
 0.5670	67.7700
 0.5680	67.6600
 0.5690	67.7100
 0.5700	67.7200
 0.5710	67.8600
 0.5720	67.5700
 0.5730	67.5500
 0.5740	67.5900
 0.5750	67.7400
 0.5760	67.6800
 0.5770	67.4700
 0.5780	67.5700
 0.5790	67.7300
 0.5800	67.6200
 0.5810	67.5500
 0.5820	67.5800
 0.5830	67.7200
 0.5840	67.7900
 0.5850	67.6700
 0.5860	67.6700
 0.5870	67.8600
 0.5880	67.8400
 0.5890	67.6900
 0.5900	67.7600
 0.5910	67.8000
 0.5920	67.9300
 0.5930	67.7300
 0.5940	67.8800
 0.5950	67.8300
 0.5960	67.9300
 0.5970	67.8100
 0.5980	67.9100
 0.5990	67.8700
 0.6000	68.0600
 0.6010	68.0500
 0.6020	67.9400
 0.6030	68.0100
 0.6040	68.1200
 0.6050	67.9800
 0.6060	68.0900
 0.6070	68.0100
 0.6080	68.1400
 0.6090	68.1100
 0.6100	67.9600
 0.6110	67.9900
 0.6120	68.1200
 0.6130	68.0500
 0.6140	67.9400
 0.6150	67.9000
 0.6160	67.9900
 0.6170	68.0700
 0.6180	67.9400
 0.6190	67.9900
 0.6200	68.0600
 0.6210	68.0600
 0.6220	68.0300
 0.6230	67.9300
 0.6240	68.0600
 0.6250	68.0500
 0.6260	67.9400
 0.6270	67.8100
 0.6280	67.8600
 0.6290	68.0200
 0.6300	67.8400
 0.6310	68.0300
 0.6320	67.9800
 0.6330	68.1500
 0.6340	68.1300
 0.6350	68.0100
 0.6360	67.9800
 0.6370	68.1400
 0.6380	68.1000
 0.6390	67.8700
 0.6400	67.9900
 0.6410	67.9900
 0.6420	67.9900
 0.6430	67.9000
 0.6440	67.8900
 0.6450	68.0500
 0.6460	68.1200
 0.6470	67.9400
 0.6480	67.9100
 0.6490	68.0000
 0.6500	68.1700
 0.6510	68.0500
 0.6520	68.0000
 0.6530	68.0300
 0.6540	68.1200
 0.6550	67.8700
 0.6560	68.0100
 0.6570	68.0600
 0.6580	68.1300
 0.6590	68.0600
 0.6600	67.8400
 0.6610	68.0300
 0.6620	68.2300
 0.6630	68.1000
 0.6640	68.1100
 0.6650	68.0000
 0.6660	68.0200
 0.6670	68.1600
 0.6680	68.0600
 0.6690	68.0900
 0.6700	68.1800
 0.6710	68.2900
 0.6720	68.1300
 0.6730	68.0700
 0.6740	68.0700
 0.6750	68.2100
 0.6760	68.2500
 0.6770	68.0100
 0.6780	68.1100
 0.6790	68.3200
 0.6800	68.2600
 0.6810	68.2300
 0.6820	68.1600
 0.6830	68.3400
 0.6840	68.3200
 0.6850	68.1500
 0.6860	68.1600
 0.6870	68.4200
 0.6880	68.2000
 0.6890	68.2900
 0.6900	68.1000
 0.6910	68.2400
 0.6920	68.3500
 0.6930	68.1900
 0.6940	68.3100
 0.6950	68.2800
 0.6960	68.3600
 0.6970	68.2300
 0.6980	68.3100
 0.6990	68.2700
 0.7000	68.3200
 0.7010	68.2900
 0.7020	68.1500
 0.7030	68.1400
 0.7040	68.2100
 0.7050	68.2700
 0.7060	68.1900
 0.7070	68.2700
 0.7080	68.2500
 0.7090	68.3800
 0.7100	68.3100
 0.7110	68.2500
 0.7120	68.2500
 0.7130	68.3200
 0.7140	68.3700
 0.7150	68.2100
 0.7160	68.2700
 0.7170	68.4100
 0.7180	68.3200
 0.7190	68.2900
 0.7200	68.2900
 0.7210	68.4400
 0.7220	68.2500
 0.7230	68.2900
 0.7240	68.2100
 0.7250	68.3700
 0.7260	68.2700
 0.7270	68.2900
 0.7280	68.1600
 0.7290	68.3400
 0.7300	68.3700
 0.7310	68.3300
 0.7320	68.2300
 0.7330	68.3400
 0.7340	68.4700
 0.7350	68.5500
 0.7360	68.2800
 0.7370	68.4300
 0.7380	68.5400
 0.7390	68.4600
 0.7400	68.2900
 0.7410	68.3600
 0.7420	68.5200
 0.7430	68.3700
 0.7440	68.4100
 0.7450	68.4300
 0.7460	68.5600
 0.7470	68.7000
 0.7480	68.4400
 0.7490	68.4700
 0.7500	68.6100
 0.7510	68.6600
 0.7520	68.5000
 0.7530	68.5300
 0.7540	68.5300
 0.7550	68.6300
 0.7560	68.5600
 0.7570	68.5700
 0.7580	68.7100
 0.7590	68.6600
 0.7600	68.6400
 0.7610	68.5600
 0.7620	68.7500
 0.7630	68.6400
 0.7640	68.5900
 0.7650	68.5600
 0.7660	68.7400
 0.7670	68.7300
 0.7680	68.6600
 0.7690	68.7200
 0.7700	68.8800
 0.7710	68.9200
 0.7720	68.7800
 0.7730	68.7700
 0.7740	68.9500
 0.7750	68.8900
 0.7760	68.8500
 0.7770	68.6700
 0.7780	68.8100
 0.7790	68.7900
 0.7800	68.8700
 0.7810	68.7200
 0.7820	68.8800
 0.7830	68.9400
 0.7840	68.9600
 0.7850	68.7600
 0.7860	68.8300
 0.7870	68.9700
 0.7880	68.9800
 0.7890	68.8800
 0.7900	68.8100
 0.7910	69.0000
 0.7920	68.9400
 0.7930	68.9100
 0.7940	68.9400
 0.7950	69.0100
 0.7960	69.0500
 0.7970	68.8200
 0.7980	68.9500
 0.7990	69.0100
 0.8000	68.9600
 0.8040	68.9300
 0.8080	69.0500
 0.8120	68.9500
 0.8160	68.9800
 0.8200	68.8800
 0.8240	68.8300
 0.8280	68.9400
 0.8320	68.8400
 0.8360	68.8900
 0.8400	68.9200
 0.8440	68.8400
 0.8480	68.8600
 0.8520	68.8400
 0.8560	68.8200
 0.8600	68.8800
 0.8640	68.7900
 0.8680	68.7500
 0.8720	68.7800
 0.8760	68.7500
 0.8800	68.6800
 0.8840	68.6500
 0.8880	68.5900
 0.8920	68.5800
 0.8960	68.5300
 0.9000	68.5500
 0.9040	68.5200
 0.9080	68.4900
 0.9120	68.4300
 0.9160	68.3500
 0.9200	68.4200
 0.9240	68.3400
 0.9280	68.2500
 0.9320	68.3100
 0.9360	68.2900
 0.9400	68.1500
 0.9440	68.0800
 0.9480	68.0000
 0.9520	67.9200
 0.9560	67.8400
 0.9600	67.7500
 0.9640	67.6200
 0.9680	67.6600
 0.9720	67.5500
 0.9760	67.4100
 0.9800	67.3800
 0.9840	67.2500
 0.9880	67.1000
 0.9920	67.0700
 0.9960	66.9900
 1.0000	66.9100
 1.0040	66.6100
 1.0080	66.5800
 1.0120	66.4400
 1.0160	66.3500
 1.0200	66.1100
 1.0240	65.8800
 1.0280	65.8400
 1.0320	65.6200
 1.0360	65.4600
 1.0400	65.1900
 1.0440	65.0600
 1.0480	64.7600
 1.0520	64.6500
 1.0560	64.3700
 1.0600	64.1900
 1.0640	64.0500
 1.0680	63.9300
 1.0720	63.7700
 1.0760	63.6000
 1.0800	63.4400
 1.0840	63.2400
 1.0880	63.0200
 1.0920	62.7800
 1.0960	62.5900
 1.1000	62.4000
 1.1040	62.2000
 1.1080	62.0400
 1.1120	61.9000
 1.1160	61.6700
 1.1200	61.5300
 1.1240	61.3400
 1.1280	61.1800
 1.1320	61.0000
 1.1360	60.7600
 1.1400	60.6400
 1.1440	60.4700
 1.1480	60.3300
 1.1520	60.1900
 1.1560	60.0500
 1.1600	59.9700
 1.1640	59.8000
 1.1680	59.6500
 1.1720	59.5500
 1.1760	59.3400
 1.1800	59.2300
 1.1840	59.0500
 1.1880	58.9200
 1.1920	58.8300
 1.1960	58.7300
 1.2000	58.6800
 1.2040	58.6000
 1.2080	58.4100
 1.2120	58.3000
 1.2160	58.2800
 1.2200	58.1300
 1.2240	58.0600
 1.2280	57.9600
 1.2320	57.9400
 1.2360	57.9000
 1.2400	57.7700
 1.2440	57.7800
 1.2480	57.7000
 1.2520	57.7200
 1.2560	57.6300
 1.2600	57.6600
 1.2640	57.5900
 1.2680	57.6500
 1.2720	57.6500
 1.2760	57.6100
 1.2800	57.6500
 1.2840	57.7100
 1.2880	57.6500
 1.2920	57.7600
 1.2960	57.6300
 1.3000	57.6600
 1.3040	57.7100
 1.3080	57.6800
 1.3120	57.7300
 1.3160	57.7500
 1.3200	57.7100
 1.3240	57.6900
 1.3280	57.7600
 1.3320	57.7900
 1.3360	57.7900
 1.3400	57.8100
 1.3440	57.9800
 1.3480	58.0200
 1.3520	58.0500
 1.3560	58.1400
 1.3600	58.2300
 1.3640	58.3200
 1.3680	58.2700
 1.3720	58.3100
 1.3760	58.3500
 1.3800	58.2700
 1.3840	58.0600
 1.3880	57.6900
 1.3920	57.1400
 1.3960	56.6800
 1.4000	56.1600
 1.4040	55.8100
 1.4080	55.7000
 1.4120	56.0500
 1.4160	56.7800
 1.4200	57.5600
 1.4240	58.1900
 1.4280	58.6300
 1.4320	58.9700
 1.4360	59.2200
 1.4400	59.4300
 1.4440	59.6500
 1.4480	59.9000
 1.4520	60.0600
 1.4560	60.1400
 1.4600	60.2900
 1.4640	60.4800
 1.4680	60.7700
 1.4720	60.9400
 1.4760	61.1100
 1.4800	61.2300
 1.4840	61.5300
 1.4880	61.7200
 1.4920	61.8600
 1.4960	62.1200
 1.5000	62.3000
 1.5040	62.4500
 1.5080	62.6100
 1.5120	62.7900
 1.5160	62.9400
 1.5200	63.1400
 1.5240	63.2300
 1.5280	63.3700
 1.5320	63.5200
 1.5360	63.6100
 1.5400	63.6900
 1.5440	63.8700
 1.5480	64.0100
 1.5520	64.1200
 1.5560	64.3700
 1.5600	64.4500
 1.5640	64.6500
 1.5680	64.7600
 1.5720	64.8300
 1.5760	64.9900
 1.5800	65.0700
 1.5840	65.2500
 1.5880	65.2600
 1.5920	65.3900
 1.5960	65.4400
 1.6000	65.5700
 1.6040	65.5900
 1.6080	65.5900
 1.6120	65.7500
 1.6160	65.8800
 1.6200	65.9500
 1.6240	66.0900
 1.6280	66.0400
 1.6320	66.1800
 1.6360	66.3200
 1.6400	66.2800
 1.6440	66.4000
 1.6480	66.4400
 1.6520	66.5200
 1.6560	66.5700
 1.6600	66.6500
 1.6640	66.6400
 1.6680	66.7300
 1.6720	66.8600
 1.6760	66.9100
 1.6800	66.9600
 1.6840	66.9900
 1.6880	67.1000
 1.6920	67.1000
 1.6960	67.1500
 1.7000	67.1500
 1.7040	67.1700
 1.7080	67.1800
 1.7120	67.2700
 1.7160	67.3900
 1.7200	67.3400
 1.7240	67.3100
 1.7280	67.3100
 1.7320	67.2200
 1.7360	67.2800
 1.7400	67.3200
 1.7440	67.3500
 1.7480	67.3100
 1.7520	67.3300
 1.7560	67.4300
 1.7600	67.4000
 1.7640	67.4800
 1.7680	67.4600
 1.7720	67.4700
 1.7760	67.5400
 1.7800	67.6000
 1.7840	67.5900
 1.7880	67.5700
 1.7920	67.6400
 1.7960	67.6300
 1.8000	67.6500
 1.8040	67.7000
 1.8080	67.6900
 1.8120	67.6200
 1.8160	67.7400
 1.8200	67.6900
 1.8240	67.7500
 1.8280	67.8400
 1.8320	67.8600
 1.8360	67.8400
 1.8400	67.9300
 1.8440	67.8000
 1.8480	67.8900
 1.8520	67.7300
 1.8560	67.7800
 1.8600	67.6600
 1.8640	67.4900
 1.8680	67.2600
 1.8720	66.9700
 1.8760	66.5100
 1.8800	65.9200
 1.8840	65.3100
 1.8880	64.4400
 1.8920	63.6100
 1.8960	62.6500
 1.9000	61.8400
 1.9040	61.1500
 1.9080	60.8100
 1.9120	60.6900
 1.9160	60.8100
 1.9200	60.9700
 1.9240	61.3200
 1.9280	61.6400
 1.9320	61.9700
 1.9360	62.3300
 1.9400	62.5800
 1.9440	62.7700
 1.9480	62.9700
 1.9520	63.1400
 1.9560	63.3600
 1.9600	63.6000
 1.9640	63.6900
 1.9680	63.9600
 1.9720	64.2200
 1.9760	64.4000
 1.9800	64.6700
 1.9840	64.9100
 1.9880	65.1800
 1.9920	65.3500
 1.9960	65.6400
 2.0000	65.8700
 2.0040	66.1100
 2.0080	66.3000
 2.0120	66.5200
 2.0160	66.6600
 2.0200	67.0100
 2.0240	67.1000
 2.0280	67.3000
 2.0320	67.3700
 2.0360	67.5800
 2.0400	67.7000
 2.0440	67.8100
 2.0480	67.8800
 2.0520	67.9900
 2.0560	68.0400
 2.0600	68.1400
 2.0640	68.2000
 2.0680	68.2800
 2.0720	68.2800
 2.0760	68.4000
 2.0800	68.4600
 2.0840	68.5400
 2.0880	68.5200
 2.0920	68.5900
 2.0960	68.5400
 2.1000	68.5500
 2.1040	68.5800
 2.1080	68.6200
 2.1120	68.7400
 2.1160	68.8500
 2.1200	68.7900
 2.1240	68.9200
 2.1280	68.8700
 2.1320	68.7800
 2.1360	68.8100
 2.1400	68.7000
 2.1440	68.3800
 2.1480	68.1100
 2.1520	67.9300
 2.1560	67.5500
 2.1600	67.0000
 2.1640	66.6000
 2.1680	65.9300
 2.1720	65.2200
 2.1760	64.4700
 2.1800	63.9000
 2.1840	63.1500
 2.1880	62.6200
 2.1920	62.2600
 2.1960	62.2100
 2.2000	62.2300
 2.2040	62.5500
 2.2080	62.9800
 2.2120	63.5900
 2.2160	64.1700
 2.2200	64.7800
 2.2240	65.2300
 2.2280	65.5800
 2.2320	65.9100
 2.2360	66.0700
 2.2400	66.3100
 2.2440	66.5100
 2.2480	66.6200
 2.2520	66.7100
 2.2560	66.7800
 2.2600	66.8100
 2.2640	66.9100
 2.2680	66.9100
 2.2720	66.9400
 2.2760	66.8200
 2.2800	66.7800
 2.2840	66.6400
 2.2880	66.4300
 2.2920	66.1400
 2.2960	65.9300
 2.3000	65.7200
 2.3040	65.5700
 2.3080	65.0500
 2.3120	64.6800
 2.3160	64.3600
 2.3200	64.0800
 2.3240	63.7300
 2.3280	63.3500
 2.3320	63.0900
 2.3360	62.8000
 2.3400	62.6500
 2.3440	62.5800
 2.3480	62.4900
 2.3520	62.5600
 2.3560	62.4400
 2.3600	62.4700
 2.3640	62.5000
 2.3680	62.4800
 2.3720	62.4600
 2.3760	62.4000
 2.3800	62.3600
 2.3840	62.2100
 2.3880	61.9700
 2.3920	61.8400
 2.3960	61.6700
 2.4000	61.4700
 2.4040	61.2000
 2.4080	60.9500
 2.4120	60.6700
 2.4160	60.4600
 2.4200	60.1300
 2.4240	59.9200
 2.4280	59.7300
 2.4320	59.4800
 2.4360	59.3000
 2.4400	59.1300
 2.4440	59.0600
 2.4480	58.9200
 2.4520	58.8800
 2.4560	58.8600
 2.4600	58.7200
 2.4640	58.6800
 2.4680	58.6400
 2.4720	58.4900
 2.4760	58.4100
 2.4800	58.4800
 2.4840	58.4700
 2.4880	58.4700
 2.4920	58.5000
 2.4960	58.5900
 2.5000	58.4800
