Name: Quartz SiO_2
Type: Mineral
Class: Silicate
Subclass: Tectosilicate
Particle Size: Coarse
Sample No.: TS-1D
Owner: JPL
Wavelength Range: VSWIR
Origin: USA, Coloradi, Buffalo.
Collection Date: N/A
Description: Milky quartzParticle size was 125-500um.Collected by:  Ward's Original ASTER Spectral Library name was jpl.perkin.mineral.silicate.tectosilicate.coarse.ts01d.spectrum.txt
Measurement: Hemispherical reflectance
First Column: X
Second Column: Y
X Units: Wavelength (micrometers)
Y Units:Reflectance (percent)
First X Value:  2.5000
Last X Value:  0.4000
Number of X Values: 2101
Additional Information: mineral.silicate.tectosilicate.coarse.vswir.ts-1d.jpl.perkin.ancillary.txt

 2.5000	78.9673
 2.4990	78.7419
 2.4980	79.1276
 2.4970	79.0024
 2.4960	78.9840
 2.4950	79.0739
 2.4940	78.8714
 2.4930	78.8836
 2.4920	78.8283
 2.4910	79.0222
 2.4900	78.9818
 2.4890	78.9647
 2.4880	78.8331
 2.4870	78.8778
 2.4860	79.0289
 2.4850	78.9028
 2.4840	78.9120
 2.4830	78.9827
 2.4820	79.0253
 2.4810	79.0394
 2.4800	79.1783
 2.4790	79.3599
 2.4780	79.2435
 2.4770	79.1417
 2.4760	79.2432
 2.4750	79.1447
 2.4740	79.0890
 2.4730	79.1637
 2.4720	78.9887
 2.4710	79.1483
 2.4700	79.2236
 2.4690	79.3054
 2.4680	79.2891
 2.4670	79.2649
 2.4660	79.3404
 2.4650	79.3611
 2.4640	79.4050
 2.4630	79.4870
 2.4620	79.4172
 2.4610	79.3179
 2.4600	79.4764
 2.4590	79.4210
 2.4580	79.4435
 2.4570	79.4134
 2.4560	79.5268
 2.4550	79.5980
 2.4540	79.5055
 2.4530	79.3978
 2.4520	79.5797
 2.4510	79.5317
 2.4500	79.5084
 2.4490	79.5940
 2.4480	79.6191
 2.4470	79.5567
 2.4460	79.5021
 2.4450	79.5602
 2.4440	79.6204
 2.4430	79.6182
 2.4420	79.6009
 2.4410	79.5999
 2.4400	79.6891
 2.4390	79.6150
 2.4380	79.6640
 2.4370	79.7042
 2.4360	79.7407
 2.4350	79.7173
 2.4340	79.7614
 2.4330	79.7332
 2.4320	79.7271
 2.4310	79.8127
 2.4300	79.8210
 2.4290	79.7707
 2.4280	79.8307
 2.4270	79.7849
 2.4260	79.9021
 2.4250	79.9580
 2.4240	79.9664
 2.4230	80.0061
 2.4220	79.9777
 2.4210	80.0041
 2.4200	80.0769
 2.4190	80.0642
 2.4180	80.0635
 2.4170	80.0559
 2.4160	80.1042
 2.4150	80.1554
 2.4140	80.1722
 2.4130	80.1374
 2.4120	80.1878
 2.4110	80.1625
 2.4100	80.1612
 2.4090	80.1824
 2.4080	80.1495
 2.4070	80.3435
 2.4060	80.3917
 2.4050	80.2884
 2.4040	80.2385
 2.4030	80.2952
 2.4020	80.3082
 2.4010	80.3424
 2.4000	80.2574
 2.3990	80.3294
 2.3980	80.3834
 2.3970	80.3404
 2.3960	80.3411
 2.3950	80.4045
 2.3940	80.4322
 2.3930	80.4353
 2.3920	80.3953
 2.3910	80.4719
 2.3900	80.4924
 2.3890	80.5193
 2.3880	80.5617
 2.3870	80.4801
 2.3860	80.5462
 2.3850	80.6300
 2.3840	80.5713
 2.3830	80.6485
 2.3820	80.7641
 2.3810	80.7497
 2.3800	80.7544
 2.3790	80.7767
 2.3780	80.8693
 2.3770	80.8015
 2.3760	80.7374
 2.3750	80.7600
 2.3740	80.8365
 2.3730	80.9072
 2.3720	80.8977
 2.3710	80.9059
 2.3700	80.9399
 2.3690	80.9785
 2.3680	80.9300
 2.3670	80.9331
 2.3660	81.0128
 2.3650	80.9847
 2.3640	80.9088
 2.3630	81.0020
 2.3620	81.0183
 2.3610	81.0003
 2.3600	81.0871
 2.3590	81.1444
 2.3580	81.1398
 2.3570	81.1380
 2.3560	81.1865
 2.3550	81.1928
 2.3540	81.2125
 2.3530	81.1674
 2.3520	81.1853
 2.3510	81.1829
 2.3500	81.1430
 2.3490	81.1946
 2.3480	81.2624
 2.3470	81.2485
 2.3460	81.2553
 2.3450	81.2800
 2.3440	81.2364
 2.3430	81.2457
 2.3420	81.2359
 2.3410	81.2368
 2.3400	81.2275
 2.3390	81.2452
 2.3380	81.2354
 2.3370	81.3048
 2.3360	81.3557
 2.3350	81.2926
 2.3340	81.2179
 2.3330	81.1941
 2.3320	81.2653
 2.3310	81.2711
 2.3300	81.2593
 2.3290	81.2445
 2.3280	81.2395
 2.3270	81.2711
 2.3260	81.2703
 2.3250	81.2393
 2.3240	81.2526
 2.3230	81.2466
 2.3220	81.2844
 2.3210	81.2654
 2.3200	81.2133
 2.3190	81.2494
 2.3180	81.3198
 2.3170	81.3131
 2.3160	81.2770
 2.3150	81.2475
 2.3140	81.2115
 2.3130	81.2295
 2.3120	81.2841
 2.3110	81.2130
 2.3100	81.2819
 2.3090	81.2663
 2.3080	81.2385
 2.3070	81.2606
 2.3060	81.2520
 2.3050	81.2915
 2.3040	81.2402
 2.3030	81.3145
 2.3020	81.2832
 2.3010	81.2391
 2.3000	81.2675
 2.2990	81.2639
 2.2980	81.2821
 2.2970	81.3635
 2.2960	81.3322
 2.2950	81.3517
 2.2940	81.3300
 2.2930	81.2833
 2.2920	81.3043
 2.2910	81.3016
 2.2900	81.2583
 2.2890	81.2778
 2.2880	81.2482
 2.2870	81.2619
 2.2860	81.2400
 2.2850	81.2608
 2.2840	81.2496
 2.2830	81.2203
 2.2820	81.1713
 2.2810	81.2604
 2.2800	81.2857
 2.2790	81.2137
 2.2780	81.2816
 2.2770	81.2756
 2.2760	81.3055
 2.2750	81.2809
 2.2740	81.2663
 2.2730	81.2109
 2.2720	81.2394
 2.2710	81.3163
 2.2700	81.2558
 2.2690	81.2610
 2.2680	81.2819
 2.2670	81.1725
 2.2660	81.2497
 2.2650	81.2293
 2.2640	81.2608
 2.2630	81.2252
 2.2620	81.2117
 2.2610	81.2573
 2.2600	81.2608
 2.2590	81.1779
 2.2580	81.3018
 2.2570	81.2908
 2.2560	81.2697
 2.2550	81.3064
 2.2540	81.2535
 2.2530	81.1901
 2.2520	81.2342
 2.2510	81.2285
 2.2500	81.3118
 2.2490	81.3452
 2.2480	81.1734
 2.2470	81.2870
 2.2460	81.1879
 2.2450	81.2774
 2.2440	81.2938
 2.2430	81.2353
 2.2420	81.3108
 2.2410	81.2533
 2.2400	81.2610
 2.2390	81.3207
 2.2380	81.3411
 2.2370	81.3534
 2.2360	81.3006
 2.2350	81.3694
 2.2340	81.3501
 2.2330	81.2899
 2.2320	81.3777
 2.2310	81.3095
 2.2300	81.3866
 2.2290	81.3555
 2.2280	81.3560
 2.2270	81.3465
 2.2260	81.3635
 2.2250	81.3879
 2.2240	81.4587
 2.2230	81.4253
 2.2220	81.3782
 2.2210	81.3955
 2.2200	81.3277
 2.2190	81.3890
 2.2180	81.4755
 2.2170	81.3826
 2.2160	81.4344
 2.2150	81.4690
 2.2140	81.3664
 2.2130	81.5443
 2.2120	81.5058
 2.2110	81.5042
 2.2100	81.5443
 2.2090	81.4897
 2.2080	81.4360
 2.2070	81.5371
 2.2060	81.6098
 2.2050	81.5514
 2.2040	81.6318
 2.2030	81.6702
 2.2020	81.6173
 2.2010	81.6332
 2.2000	81.7160
 2.1990	81.7766
 2.1980	81.7434
 2.1970	81.7234
 2.1960	81.7609
 2.1950	81.7182
 2.1940	81.8126
 2.1930	81.6935
 2.1920	81.7366
 2.1910	81.7286
 2.1900	81.8149
 2.1890	81.8383
 2.1880	81.8230
 2.1870	81.8345
 2.1860	81.8298
 2.1850	81.8279
 2.1840	81.8914
 2.1830	81.9233
 2.1820	81.9757
 2.1810	82.1296
 2.1800	81.9776
 2.1790	82.0778
 2.1780	82.0045
 2.1770	81.9974
 2.1760	82.0639
 2.1750	82.0391
 2.1740	82.1669
 2.1730	82.1341
 2.1720	82.1072
 2.1710	82.2323
 2.1700	82.2542
 2.1690	82.3103
 2.1680	82.3038
 2.1670	82.3441
 2.1660	82.3122
 2.1650	82.3900
 2.1640	82.3987
 2.1630	82.4335
 2.1620	82.3870
 2.1610	82.5241
 2.1600	82.4866
 2.1590	82.4276
 2.1580	82.4409
 2.1570	82.5593
 2.1560	82.6347
 2.1550	82.6194
 2.1540	82.7060
 2.1530	82.5612
 2.1520	82.6101
 2.1510	82.6402
 2.1500	82.6333
 2.1490	82.6767
 2.1480	82.6479
 2.1470	82.6464
 2.1460	82.7291
 2.1450	82.6760
 2.1440	82.7365
 2.1430	82.7658
 2.1420	82.6444
 2.1410	82.6357
 2.1400	82.6272
 2.1390	82.6537
 2.1380	82.5987
 2.1370	82.6065
 2.1360	82.6122
 2.1350	82.5383
 2.1340	82.5084
 2.1330	82.4732
 2.1320	82.5705
 2.1310	82.6317
 2.1300	82.5496
 2.1290	82.4023
 2.1280	82.3363
 2.1270	82.3333
 2.1260	82.4251
 2.1250	82.3313
 2.1240	82.2059
 2.1230	82.1588
 2.1220	82.1855
 2.1210	82.1478
 2.1200	82.1066
 2.1190	82.0197
 2.1180	81.9516
 2.1170	81.8962
 2.1160	81.8863
 2.1150	81.8517
 2.1140	81.8552
 2.1130	81.8182
 2.1120	81.7404
 2.1110	81.6796
 2.1100	81.6407
 2.1090	81.6123
 2.1080	81.5288
 2.1070	81.4883
 2.1060	81.3859
 2.1050	81.3726
 2.1040	81.3646
 2.1030	81.3430
 2.1020	81.2934
 2.1010	81.2546
 2.1000	81.2333
 2.0990	81.2335
 2.0980	81.1903
 2.0970	81.1814
 2.0960	81.1569
 2.0950	81.1629
 2.0940	81.2061
 2.0930	81.2123
 2.0920	81.2742
 2.0910	81.3207
 2.0900	81.3499
 2.0890	81.3425
 2.0880	81.3192
 2.0870	81.3356
 2.0860	81.3468
 2.0850	81.2311
 2.0840	81.2518
 2.0830	81.3571
 2.0820	81.3941
 2.0810	81.3551
 2.0800	81.3686
 2.0790	81.4238
 2.0780	81.3732
 2.0770	81.3487
 2.0760	81.4071
 2.0750	81.4576
 2.0740	81.4175
 2.0730	81.3849
 2.0720	81.4201
 2.0710	81.4575
 2.0700	81.4573
 2.0690	81.4517
 2.0680	81.4711
 2.0670	81.4847
 2.0660	81.4673
 2.0650	81.4634
 2.0640	81.4705
 2.0630	81.4826
 2.0620	81.4641
 2.0610	81.5322
 2.0600	81.5561
 2.0590	81.4677
 2.0580	81.4799
 2.0570	81.5502
 2.0560	81.5625
 2.0550	81.5674
 2.0540	81.5628
 2.0530	81.5327
 2.0520	81.5563
 2.0510	81.5915
 2.0500	81.6359
 2.0490	81.6660
 2.0480	81.6658
 2.0470	81.6870
 2.0460	81.6239
 2.0450	81.6077
 2.0440	81.6537
 2.0430	81.6280
 2.0420	81.6360
 2.0410	81.6383
 2.0400	81.6312
 2.0390	81.7080
 2.0380	81.7130
 2.0370	81.6339
 2.0360	81.6467
 2.0350	81.6217
 2.0340	81.6757
 2.0330	81.6704
 2.0320	81.5936
 2.0310	81.6197
 2.0300	81.6712
 2.0290	81.6783
 2.0280	81.7071
 2.0270	81.6826
 2.0260	81.6568
 2.0250	81.5662
 2.0240	81.6135
 2.0230	81.6232
 2.0220	81.5798
 2.0210	81.6018
 2.0200	81.6358
 2.0190	81.5890
 2.0180	81.6018
 2.0170	81.6006
 2.0160	81.5523
 2.0150	81.5639
 2.0140	81.5402
 2.0130	81.5273
 2.0120	81.5540
 2.0110	81.5780
 2.0100	81.5155
 2.0090	81.5744
 2.0080	81.5367
 2.0070	81.5209
 2.0060	81.4887
 2.0050	81.4964
 2.0040	81.5366
 2.0030	81.4874
 2.0020	81.5188
 2.0010	81.4846
 2.0000	81.5235
 1.9990	81.4984
 1.9980	81.5352
 1.9970	81.4077
 1.9960	81.4105
 1.9950	81.4349
 1.9940	81.3200
 1.9930	81.3161
 1.9920	81.3971
 1.9910	81.3667
 1.9900	81.3089
 1.9890	81.2579
 1.9880	81.3182
 1.9870	81.2479
 1.9860	81.2213
 1.9850	81.2247
 1.9840	81.1674
 1.9830	81.1965
 1.9820	81.1595
 1.9810	81.1665
 1.9800	81.1737
 1.9790	81.2294
 1.9780	81.0793
 1.9770	81.1644
 1.9760	81.0727
 1.9750	80.9879
 1.9740	81.0449
 1.9730	80.9715
 1.9720	80.9667
 1.9710	80.8901
 1.9700	80.8945
 1.9690	80.9941
 1.9680	80.9992
 1.9670	80.9193
 1.9660	80.8466
 1.9650	80.9012
 1.9640	80.8814
 1.9630	80.8183
 1.9620	80.8089
 1.9610	80.8679
 1.9600	80.8808
 1.9590	80.8999
 1.9580	80.8429
 1.9570	80.8570
 1.9560	80.7680
 1.9550	80.8362
 1.9540	80.7483
 1.9530	80.8362
 1.9520	80.7843
 1.9510	80.7265
 1.9500	80.7441
 1.9490	80.8458
 1.9480	80.7111
 1.9470	80.7637
 1.9460	80.6525
 1.9450	80.6956
 1.9440	80.7605
 1.9430	80.8126
 1.9420	80.7620
 1.9410	80.7398
 1.9400	80.7352
 1.9390	80.7589
 1.9380	80.7320
 1.9370	80.6410
 1.9360	80.7271
 1.9350	80.6648
 1.9340	80.7379
 1.9330	80.7735
 1.9320	80.8163
 1.9310	80.7246
 1.9300	80.8375
 1.9290	80.7572
 1.9280	80.6670
 1.9270	80.8373
 1.9260	80.7945
 1.9250	80.8142
 1.9240	80.7898
 1.9230	80.8325
 1.9220	80.7720
 1.9210	80.7870
 1.9200	80.9760
 1.9190	80.9163
 1.9180	80.8872
 1.9170	80.9727
 1.9160	80.8849
 1.9150	80.9073
 1.9140	81.0251
 1.9130	81.0555
 1.9120	81.0893
 1.9110	81.0026
 1.9100	81.1030
 1.9090	81.1458
 1.9080	81.2206
 1.9070	81.2076
 1.9060	81.3970
 1.9050	81.3009
 1.9040	81.3110
 1.9030	81.2708
 1.9020	81.2521
 1.9010	81.3680
 1.9000	81.5104
 1.8990	81.4743
 1.8980	81.4569
 1.8970	81.4907
 1.8960	81.6498
 1.8950	81.5914
 1.8940	81.6839
 1.8930	81.6743
 1.8920	81.7289
 1.8910	81.7475
 1.8900	81.7418
 1.8890	81.8139
 1.8880	81.8548
 1.8870	81.8598
 1.8860	81.9936
 1.8850	82.0247
 1.8840	82.0622
 1.8830	82.0857
 1.8820	82.1424
 1.8810	82.1474
 1.8800	82.2302
 1.8790	82.1709
 1.8780	82.2396
 1.8770	82.2126
 1.8760	82.2769
 1.8750	82.2916
 1.8740	82.3139
 1.8730	82.2799
 1.8720	82.2943
 1.8710	82.3610
 1.8700	82.3096
 1.8690	82.2817
 1.8680	82.3048
 1.8670	82.2948
 1.8660	82.4086
 1.8650	82.3997
 1.8640	82.4620
 1.8630	82.4609
 1.8620	82.4465
 1.8610	82.4058
 1.8600	82.5035
 1.8590	82.5342
 1.8580	82.4850
 1.8570	82.4867
 1.8560	82.4891
 1.8550	82.4392
 1.8540	82.4334
 1.8530	82.5378
 1.8520	82.4828
 1.8510	82.4887
 1.8500	82.5217
 1.8490	82.4992
 1.8480	82.4868
 1.8470	82.4367
 1.8460	82.4515
 1.8450	82.5039
 1.8440	82.4468
 1.8430	82.4344
 1.8420	82.5023
 1.8410	82.4978
 1.8400	82.4889
 1.8390	82.5377
 1.8380	82.5164
 1.8370	82.4853
 1.8360	82.5074
 1.8350	82.5479
 1.8340	82.4971
 1.8330	82.4174
 1.8320	82.4496
 1.8310	82.4758
 1.8300	82.5621
 1.8290	82.5490
 1.8280	82.4871
 1.8270	82.5111
 1.8260	82.4974
 1.8250	82.5247
 1.8240	82.6146
 1.8230	82.6030
 1.8220	82.5610
 1.8210	82.5157
 1.8200	82.5332
 1.8190	82.5478
 1.8180	82.5096
 1.8170	82.4899
 1.8160	82.5506
 1.8150	82.5857
 1.8140	82.6223
 1.8130	82.6134
 1.8120	82.5665
 1.8110	82.5031
 1.8100	82.5666
 1.8090	82.5504
 1.8080	82.5574
 1.8070	82.6032
 1.8060	82.6405
 1.8050	82.6422
 1.8040	82.5799
 1.8030	82.5209
 1.8020	82.5679
 1.8010	82.6481
 1.8000	82.6525
 1.7990	82.5505
 1.7980	82.5287
 1.7970	82.6064
 1.7960	82.6278
 1.7950	82.5524
 1.7940	82.4827
 1.7930	82.5648
 1.7920	82.6326
 1.7910	82.5991
 1.7900	82.5943
 1.7890	82.5733
 1.7880	82.5622
 1.7870	82.5630
 1.7860	82.5508
 1.7850	82.5655
 1.7840	82.5287
 1.7830	82.5005
 1.7820	82.5078
 1.7810	82.5257
 1.7800	82.5562
 1.7790	82.5760
 1.7780	82.5508
 1.7770	82.5264
 1.7760	82.5113
 1.7750	82.4647
 1.7740	82.4837
 1.7730	82.5219
 1.7720	82.5332
 1.7710	82.4873
 1.7700	82.4462
 1.7690	82.4658
 1.7680	82.4530
 1.7670	82.4723
 1.7660	82.4813
 1.7650	82.5008
 1.7640	82.4774
 1.7630	82.4937
 1.7620	82.4808
 1.7610	82.4954
 1.7600	82.4940
 1.7590	82.5248
 1.7580	82.4575
 1.7570	82.4230
 1.7560	82.4697
 1.7550	82.5392
 1.7540	82.5621
 1.7530	82.5709
 1.7520	82.5430
 1.7510	82.4828
 1.7500	82.5076
 1.7490	82.5851
 1.7480	82.6343
 1.7470	82.5751
 1.7460	82.5591
 1.7450	82.5550
 1.7440	82.5677
 1.7430	82.5625
 1.7420	82.5670
 1.7410	82.5604
 1.7400	82.5386
 1.7390	82.5631
 1.7380	82.5606
 1.7370	82.5682
 1.7360	82.5461
 1.7350	82.5754
 1.7340	82.5738
 1.7330	82.6101
 1.7320	82.6161
 1.7310	82.6210
 1.7300	82.5838
 1.7290	82.5820
 1.7280	82.5793
 1.7270	82.5803
 1.7260	82.5877
 1.7250	82.5610
 1.7240	82.6417
 1.7230	82.6090
 1.7220	82.5815
 1.7210	82.5721
 1.7200	82.6381
 1.7190	82.6481
 1.7180	82.6780
 1.7170	82.6424
 1.7160	82.6466
 1.7150	82.6462
 1.7140	82.6132
 1.7130	82.5617
 1.7120	82.6076
 1.7110	82.6311
 1.7100	82.5997
 1.7090	82.6230
 1.7080	82.5849
 1.7070	82.5669
 1.7060	82.6174
 1.7050	82.5901
 1.7040	82.5876
 1.7030	82.5851
 1.7020	82.5187
 1.7010	82.5405
 1.7000	82.5661
 1.6990	82.5910
 1.6980	82.5541
 1.6970	82.5955
 1.6960	82.5663
 1.6950	82.6051
 1.6940	82.5647
 1.6930	82.5807
 1.6920	82.5816
 1.6910	82.5278
 1.6900	82.5157
 1.6890	82.6125
 1.6880	82.4956
 1.6870	82.5588
 1.6860	82.5709
 1.6850	82.5540
 1.6840	82.5818
 1.6830	82.5522
 1.6820	82.5827
 1.6810	82.5757
 1.6800	82.5173
 1.6790	82.4666
 1.6780	82.4622
 1.6770	82.5528
 1.6760	82.5118
 1.6750	82.5341
 1.6740	82.4663
 1.6730	82.5588
 1.6720	82.6719
 1.6710	82.5885
 1.6700	82.4305
 1.6690	82.5533
 1.6680	82.5292
 1.6670	82.5998
 1.6660	82.5646
 1.6650	82.5897
 1.6640	82.5481
 1.6630	82.5315
 1.6620	82.5242
 1.6610	82.5552
 1.6600	82.5961
 1.6590	82.6196
 1.6580	82.5362
 1.6570	82.5613
 1.6560	82.4962
 1.6550	82.6119
 1.6540	82.5843
 1.6530	82.5486
 1.6520	82.5618
 1.6510	82.4791
 1.6500	82.4677
 1.6490	82.5269
 1.6480	82.5284
 1.6470	82.4888
 1.6460	82.4760
 1.6450	82.5418
 1.6440	82.5660
 1.6430	82.4270
 1.6420	82.5148
 1.6410	82.5368
 1.6400	82.5616
 1.6390	82.5535
 1.6380	82.5946
 1.6370	82.6060
 1.6360	82.4829
 1.6350	82.4951
 1.6340	82.4141
 1.6330	82.5918
 1.6320	82.5085
 1.6310	82.5259
 1.6300	82.5606
 1.6290	82.5406
 1.6280	82.4965
 1.6270	82.5629
 1.6260	82.5356
 1.6250	82.5005
 1.6240	82.6053
 1.6230	82.4496
 1.6220	82.5625
 1.6210	82.4380
 1.6200	82.5648
 1.6190	82.5410
 1.6180	82.5201
 1.6170	82.6197
 1.6160	82.5570
 1.6150	82.5933
 1.6140	82.5398
 1.6130	82.5008
 1.6120	82.5715
 1.6110	82.5745
 1.6100	82.5535
 1.6090	82.5190
 1.6080	82.5187
 1.6070	82.5675
 1.6060	82.4976
 1.6050	82.5191
 1.6040	82.6017
 1.6030	82.5322
 1.6020	82.5392
 1.6010	82.5504
 1.6000	82.4916
 1.5990	82.6466
 1.5980	82.5752
 1.5970	82.4687
 1.5960	82.5653
 1.5950	82.5341
 1.5940	82.5132
 1.5930	82.5861
 1.5920	82.4863
 1.5910	82.5185
 1.5900	82.4723
 1.5890	82.5543
 1.5880	82.4857
 1.5870	82.4564
 1.5860	82.4472
 1.5850	82.4926
 1.5840	82.4803
 1.5830	82.5164
 1.5820	82.4728
 1.5810	82.4628
 1.5800	82.4158
 1.5790	82.4556
 1.5780	82.4842
 1.5770	82.4829
 1.5760	82.5183
 1.5750	82.5135
 1.5740	82.4373
 1.5730	82.5021
 1.5720	82.4919
 1.5710	82.5747
 1.5700	82.4900
 1.5690	82.4563
 1.5680	82.4173
 1.5670	82.4541
 1.5660	82.4167
 1.5650	82.4425
 1.5640	82.5043
 1.5630	82.4932
 1.5620	82.4695
 1.5610	82.5005
 1.5600	82.5206
 1.5590	82.4872
 1.5580	82.5045
 1.5570	82.4171
 1.5560	82.4521
 1.5550	82.4875
 1.5540	82.4176
 1.5530	82.4492
 1.5520	82.5007
 1.5510	82.5060
 1.5500	82.4745
 1.5490	82.4340
 1.5480	82.3832
 1.5470	82.4305
 1.5460	82.4534
 1.5450	82.3950
 1.5440	82.4395
 1.5430	82.4555
 1.5420	82.3858
 1.5410	82.3397
 1.5400	82.3500
 1.5390	82.3836
 1.5380	82.3528
 1.5370	82.3805
 1.5360	82.3823
 1.5350	82.3880
 1.5340	82.3851
 1.5330	82.3708
 1.5320	82.3250
 1.5310	82.3802
 1.5300	82.3809
 1.5290	82.3057
 1.5280	82.2518
 1.5270	82.2905
 1.5260	82.2962
 1.5250	82.2731
 1.5240	82.2853
 1.5230	82.3166
 1.5220	82.3257
 1.5210	82.2859
 1.5200	82.2741
 1.5190	82.3166
 1.5180	82.2861
 1.5170	82.2508
 1.5160	82.2645
 1.5150	82.3307
 1.5140	82.3003
 1.5130	82.3129
 1.5120	82.2912
 1.5110	82.2665
 1.5100	82.2584
 1.5090	82.2520
 1.5080	82.2833
 1.5070	82.2765
 1.5060	82.2243
 1.5050	82.2346
 1.5040	82.2481
 1.5030	82.2756
 1.5020	82.2508
 1.5010	82.1982
 1.5000	82.2405
 1.4990	82.1793
 1.4980	82.1529
 1.4970	82.2364
 1.4960	82.2399
 1.4950	82.2094
 1.4940	82.2673
 1.4930	82.2529
 1.4920	82.2389
 1.4910	82.2140
 1.4900	82.1599
 1.4890	82.1495
 1.4880	82.1916
 1.4870	82.2259
 1.4860	82.1845
 1.4850	82.1699
 1.4840	82.2012
 1.4830	82.1876
 1.4820	82.1775
 1.4810	82.1737
 1.4800	82.1362
 1.4790	82.1252
 1.4780	82.1761
 1.4770	82.0794
 1.4760	82.0340
 1.4750	82.1159
 1.4740	82.1277
 1.4730	82.1696
 1.4720	82.1618
 1.4710	82.1222
 1.4700	82.1241
 1.4690	82.0943
 1.4680	82.0586
 1.4670	82.0802
 1.4660	82.1473
 1.4650	82.1098
 1.4640	82.1152
 1.4630	82.0790
 1.4620	82.0579
 1.4610	82.0917
 1.4600	82.1177
 1.4590	82.1034
 1.4580	82.0980
 1.4570	82.1832
 1.4560	82.1270
 1.4550	82.0713
 1.4540	82.1321
 1.4530	82.1367
 1.4520	82.1327
 1.4510	82.0979
 1.4500	82.1211
 1.4490	82.1015
 1.4480	82.0367
 1.4470	82.0309
 1.4460	82.0585
 1.4450	82.0701
 1.4440	82.0731
 1.4430	82.0280
 1.4420	82.0737
 1.4410	82.0548
 1.4400	82.0609
 1.4390	82.0536
 1.4380	82.1355
 1.4370	82.0861
 1.4360	82.0918
 1.4350	82.0384
 1.4340	82.0699
 1.4330	82.1186
 1.4320	82.0305
 1.4310	82.1175
 1.4300	82.1053
 1.4290	82.0557
 1.4280	82.1361
 1.4270	82.1063
 1.4260	82.0734
 1.4250	82.1002
 1.4240	82.1246
 1.4230	82.0451
 1.4220	82.1205
 1.4210	82.1288
 1.4200	82.0932
 1.4190	82.1648
 1.4180	82.1500
 1.4170	82.1256
 1.4160	82.1028
 1.4150	82.0442
 1.4140	82.0286
 1.4130	82.1536
 1.4120	82.0927
 1.4110	82.1127
 1.4100	82.0765
 1.4090	82.1228
 1.4080	82.1005
 1.4070	82.2117
 1.4060	82.1223
 1.4050	82.1022
 1.4040	82.1656
 1.4030	82.1826
 1.4020	82.2405
 1.4010	82.1843
 1.4000	82.1861
 1.3990	82.2218
 1.3980	82.2024
 1.3970	82.1884
 1.3960	82.2711
 1.3950	82.3304
 1.3940	82.3098
 1.3930	82.2740
 1.3920	82.2914
 1.3910	82.3604
 1.3900	82.3680
 1.3890	82.3024
 1.3880	82.3675
 1.3870	82.4060
 1.3860	82.4365
 1.3850	82.4067
 1.3840	82.2997
 1.3830	82.3947
 1.3820	82.3378
 1.3810	82.3142
 1.3800	82.3139
 1.3790	82.3730
 1.3780	82.4078
 1.3770	82.2828
 1.3760	82.3152
 1.3750	82.4039
 1.3740	82.3392
 1.3730	82.3732
 1.3720	82.3352
 1.3710	82.3478
 1.3700	82.3159
 1.3690	82.3951
 1.3680	82.4169
 1.3670	82.4243
 1.3660	82.4242
 1.3650	82.3387
 1.3640	82.4000
 1.3630	82.3132
 1.3620	82.3508
 1.3610	82.3573
 1.3600	82.3229
 1.3590	82.3233
 1.3580	82.3940
 1.3570	82.3116
 1.3560	82.4242
 1.3550	82.3511
 1.3540	82.3284
 1.3530	82.2795
 1.3520	82.3623
 1.3510	82.2828
 1.3500	82.3853
 1.3490	82.2875
 1.3480	82.2279
 1.3470	82.2194
 1.3460	82.3223
 1.3450	82.2864
 1.3440	82.3506
 1.3430	82.3155
 1.3420	82.3790
 1.3410	82.3515
 1.3400	82.3101
 1.3390	82.2544
 1.3380	82.2496
 1.3370	82.3440
 1.3360	82.3137
 1.3350	82.3505
 1.3340	82.2801
 1.3330	82.3333
 1.3320	82.2940
 1.3310	82.2972
 1.3300	82.3188
 1.3290	82.2933
 1.3280	82.2313
 1.3270	82.2515
 1.3260	82.2068
 1.3250	82.3119
 1.3240	82.2481
 1.3230	82.2752
 1.3220	82.3246
 1.3210	82.2919
 1.3200	82.2680
 1.3190	82.3104
 1.3180	82.2704
 1.3170	82.2979
 1.3160	82.2728
 1.3150	82.3027
 1.3140	82.3254
 1.3130	82.3027
 1.3120	82.3265
 1.3110	82.2317
 1.3100	82.2860
 1.3090	82.2449
 1.3080	82.3361
 1.3070	82.1943
 1.3060	82.2555
 1.3050	82.2775
 1.3040	82.2458
 1.3030	82.2343
 1.3020	82.2047
 1.3010	82.2448
 1.3000	82.2993
 1.2990	82.2428
 1.2980	82.2850
 1.2970	82.2970
 1.2960	82.2336
 1.2950	82.2073
 1.2940	82.1989
 1.2930	82.1883
 1.2920	82.2464
 1.2910	82.2270
 1.2900	82.3033
 1.2890	82.2175
 1.2880	82.2001
 1.2870	82.2304
 1.2860	82.2246
 1.2850	82.2061
 1.2840	82.2233
 1.2830	82.2720
 1.2820	82.2422
 1.2810	82.2315
 1.2800	82.2200
 1.2790	82.1758
 1.2780	82.2381
 1.2770	82.1996
 1.2760	82.2099
 1.2750	82.2248
 1.2740	82.1854
 1.2730	82.1691
 1.2720	82.1773
 1.2710	82.2384
 1.2700	82.2311
 1.2690	82.1842
 1.2680	82.1776
 1.2670	82.2259
 1.2660	82.2227
 1.2650	82.1931
 1.2640	82.1497
 1.2630	82.2375
 1.2620	82.2689
 1.2610	82.2024
 1.2600	82.2589
 1.2590	82.2454
 1.2580	82.1776
 1.2570	82.1636
 1.2560	82.2040
 1.2550	82.1682
 1.2540	82.1981
 1.2530	82.1498
 1.2520	82.1810
 1.2510	82.1901
 1.2500	82.1455
 1.2490	82.1455
 1.2480	82.1874
 1.2470	82.1938
 1.2460	82.2014
 1.2450	82.2144
 1.2440	82.2140
 1.2430	82.1784
 1.2420	82.1231
 1.2410	82.1013
 1.2400	82.1341
 1.2390	82.1942
 1.2380	82.1413
 1.2370	82.1622
 1.2360	82.1648
 1.2350	82.1361
 1.2340	82.1245
 1.2330	82.1185
 1.2320	82.1660
 1.2310	82.1746
 1.2300	82.1327
 1.2290	82.1287
 1.2280	82.2113
 1.2270	82.2396
 1.2260	82.2000
 1.2250	82.1229
 1.2240	82.1452
 1.2230	82.1364
 1.2220	82.0816
 1.2210	82.1064
 1.2200	82.1265
 1.2190	82.0968
 1.2180	82.1555
 1.2170	82.1830
 1.2160	82.1182
 1.2150	82.0932
 1.2140	82.1182
 1.2130	82.0940
 1.2120	82.0924
 1.2110	82.1800
 1.2100	82.1731
 1.2090	82.0818
 1.2080	82.1023
 1.2070	82.1696
 1.2060	82.1786
 1.2050	82.1348
 1.2040	82.0766
 1.2030	82.0658
 1.2020	82.0720
 1.2010	82.0372
 1.2000	82.0873
 1.1990	82.1766
 1.1980	82.1134
 1.1970	82.0462
 1.1960	82.1080
 1.1950	82.1147
 1.1940	82.0823
 1.1930	82.0499
 1.1920	82.0395
 1.1910	82.0833
 1.1900	82.1507
 1.1890	82.1253
 1.1880	82.0861
 1.1870	82.1403
 1.1860	82.1237
 1.1850	82.1334
 1.1840	82.1855
 1.1830	82.1487
 1.1820	82.0634
 1.1810	82.1190
 1.1800	82.0896
 1.1790	82.0887
 1.1780	82.0925
 1.1770	82.0679
 1.1760	82.0546
 1.1750	82.0591
 1.1740	82.1392
 1.1730	82.1167
 1.1720	82.0814
 1.1710	82.1425
 1.1700	82.1469
 1.1690	82.0769
 1.1680	82.0778
 1.1670	82.0588
 1.1660	82.1133
 1.1650	82.1365
 1.1640	82.1062
 1.1630	82.1116
 1.1620	82.1143
 1.1610	82.1181
 1.1600	82.0881
 1.1590	82.1158
 1.1580	82.1121
 1.1570	82.1380
 1.1560	82.1180
 1.1550	82.1626
 1.1540	82.1283
 1.1530	82.1306
 1.1520	82.0754
 1.1510	82.0778
 1.1500	82.0569
 1.1490	82.1364
 1.1480	82.1570
 1.1470	82.1866
 1.1460	82.1603
 1.1450	82.1239
 1.1440	82.1432
 1.1430	82.1195
 1.1420	82.0950
 1.1410	82.1383
 1.1400	82.1055
 1.1390	82.1961
 1.1380	82.1328
 1.1370	82.1984
 1.1360	82.1074
 1.1350	82.0405
 1.1340	82.1359
 1.1330	82.1660
 1.1320	82.1201
 1.1310	82.0835
 1.1300	82.0477
 1.1290	82.1290
 1.1280	82.0960
 1.1270	82.1191
 1.1260	82.1528
 1.1250	82.0518
 1.1240	82.0782
 1.1230	82.1078
 1.1220	82.1137
 1.1210	82.1219
 1.1200	82.0817
 1.1190	82.0943
 1.1180	82.0697
 1.1170	82.1369
 1.1160	82.0540
 1.1150	82.2036
 1.1140	82.1431
 1.1130	82.0793
 1.1120	82.0566
 1.1110	82.1098
 1.1100	82.0831
 1.1090	82.2043
 1.1080	82.0353
 1.1070	82.0963
 1.1060	82.0289
 1.1050	82.1012
 1.1040	82.1055
 1.1030	82.1456
 1.1020	82.0204
 1.1010	82.0627
 1.1000	82.0951
 1.0990	82.0065
 1.0980	82.1724
 1.0970	82.0729
 1.0960	82.0471
 1.0950	82.0639
 1.0940	82.0911
 1.0930	82.0509
 1.0920	81.9599
 1.0910	82.0853
 1.0900	82.1093
 1.0890	82.1483
 1.0880	82.0612
 1.0870	82.1082
 1.0860	82.0312
 1.0850	82.0641
 1.0840	82.0583
 1.0830	82.1025
 1.0820	82.0532
 1.0810	82.0343
 1.0800	82.1219
 1.0790	82.0787
 1.0780	82.0713
 1.0770	82.1164
 1.0760	82.1238
 1.0750	82.1152
 1.0740	82.0541
 1.0730	82.0414
 1.0720	82.0727
 1.0710	82.0508
 1.0700	82.0798
 1.0690	82.0418
 1.0680	81.9783
 1.0670	82.0259
 1.0660	82.0277
 1.0650	82.0638
 1.0640	82.1190
 1.0630	82.0805
 1.0620	82.1113
 1.0610	82.0420
 1.0600	82.0464
 1.0590	82.0209
 1.0580	82.0440
 1.0570	82.1232
 1.0560	82.1158
 1.0550	82.0076
 1.0540	82.0980
 1.0530	82.1045
 1.0520	82.0962
 1.0510	82.0900
 1.0500	82.1079
 1.0490	82.0659
 1.0480	82.0085
 1.0470	82.0193
 1.0460	82.0128
 1.0450	82.0848
 1.0440	82.1744
 1.0430	82.1898
 1.0420	82.0289
 1.0410	82.0991
 1.0400	82.0959
 1.0390	82.0217
 1.0380	82.0478
 1.0370	82.1008
 1.0360	82.0643
 1.0350	82.0506
 1.0340	82.0140
 1.0330	82.0519
 1.0320	82.0867
 1.0310	82.0233
 1.0300	82.0053
 1.0290	82.0745
 1.0280	82.0447
 1.0270	82.0232
 1.0260	82.0698
 1.0250	82.0861
 1.0240	82.0506
 1.0230	82.0340
 1.0220	81.9628
 1.0210	82.0678
 1.0200	82.0629
 1.0190	82.0401
 1.0180	82.0733
 1.0170	82.0865
 1.0160	82.0575
 1.0150	82.0793
 1.0140	82.0450
 1.0130	82.0008
 1.0120	81.9679
 1.0110	81.9836
 1.0100	81.9482
 1.0090	81.9875
 1.0080	81.9444
 1.0070	82.0305
 1.0060	82.0312
 1.0050	82.0316
 1.0040	81.9737
 1.0030	82.0617
 1.0020	82.0587
 1.0010	82.1078
 1.0000	82.0210
 0.9990	82.0784
 0.9980	82.0465
 0.9970	82.0691
 0.9960	81.9541
 0.9950	82.0185
 0.9940	81.9923
 0.9930	82.0111
 0.9920	82.0253
 0.9910	82.0407
 0.9900	82.0660
 0.9890	82.0672
 0.9880	82.0223
 0.9870	82.0026
 0.9860	81.9900
 0.9850	81.9776
 0.9840	82.0051
 0.9830	82.0217
 0.9820	82.0003
 0.9810	82.0137
 0.9800	81.9882
 0.9790	82.0033
 0.9780	82.0016
 0.9770	82.0215
 0.9760	81.9943
 0.9750	81.9946
 0.9740	81.9831
 0.9730	81.9985
 0.9720	82.0311
 0.9710	81.9942
 0.9700	81.9794
 0.9690	82.0566
 0.9680	81.9823
 0.9670	81.9506
 0.9660	81.9285
 0.9650	81.9610
 0.9640	81.9641
 0.9630	81.9678
 0.9620	82.0036
 0.9610	81.9586
 0.9600	81.9874
 0.9590	82.0226
 0.9580	81.9716
 0.9570	82.0050
 0.9560	82.0443
 0.9550	82.0565
 0.9540	81.9482
 0.9530	81.9835
 0.9520	81.9977
 0.9510	81.9895
 0.9500	81.9919
 0.9490	82.0109
 0.9480	81.9939
 0.9470	81.9629
 0.9460	81.9757
 0.9450	81.9628
 0.9440	81.9046
 0.9430	81.9417
 0.9420	81.9622
 0.9410	81.9684
 0.9400	81.9264
 0.9390	81.9162
 0.9380	81.9548
 0.9370	81.9466
 0.9360	81.9078
 0.9350	81.9332
 0.9340	81.9408
 0.9330	81.9264
 0.9320	81.9149
 0.9310	81.9090
 0.9300	81.9542
 0.9290	81.9640
 0.9280	81.9713
 0.9270	81.9608
 0.9260	81.8856
 0.9250	81.9000
 0.9240	81.8969
 0.9230	81.9373
 0.9220	81.9415
 0.9210	81.8950
 0.9200	81.9364
 0.9190	81.8974
 0.9180	81.8766
 0.9170	81.9028
 0.9160	81.9119
 0.9150	81.8785
 0.9140	81.8488
 0.9130	81.8565
 0.9120	81.8591
 0.9110	81.8665
 0.9100	81.8801
 0.9090	81.9059
 0.9080	81.9218
 0.9070	81.8803
 0.9060	81.9015
 0.9050	81.9026
 0.9040	81.9320
 0.9030	81.9307
 0.9020	81.8751
 0.9010	81.8701
 0.9000	81.8507
 0.8990	81.8411
 0.8980	81.8902
 0.8970	81.9427
 0.8960	81.9229
 0.8950	81.8894
 0.8940	81.8836
 0.8930	81.8234
 0.8920	81.9013
 0.8910	81.9294
 0.8900	81.8868
 0.8890	81.8398
 0.8880	81.8404
 0.8870	81.8683
 0.8860	81.8857
 0.8850	81.8438
 0.8840	81.8988
 0.8830	81.9006
 0.8820	81.8947
 0.8810	81.8876
 0.8800	81.8901
 0.8790	81.8752
 0.8780	81.8932
 0.8770	81.9304
 0.8760	81.9064
 0.8750	81.9303
 0.8740	81.9355
 0.8730	81.8530
 0.8720	81.8468
 0.8710	81.9135
 0.8700	81.9234
 0.8690	81.8706
 0.8680	81.9205
 0.8670	81.9573
 0.8660	81.8973
 0.8650	81.9077
 0.8640	81.9151
 0.8630	81.9102
 0.8620	81.9309
 0.8610	81.9085
 0.8600	81.3739
 0.8590	81.3318
 0.8580	81.2003
 0.8570	81.1516
 0.8560	81.2913
 0.8550	81.2216
 0.8540	81.0953
 0.8530	81.2218
 0.8520	81.1542
 0.8510	81.1295
 0.8500	81.2407
 0.8490	81.1787
 0.8480	81.1810
 0.8470	81.2800
 0.8460	81.2768
 0.8450	81.2286
 0.8440	81.2568
 0.8430	81.2477
 0.8420	81.2855
 0.8410	81.2913
 0.8400	81.2551
 0.8390	81.2486
 0.8380	81.2795
 0.8370	81.2096
 0.8360	81.2475
 0.8350	81.3067
 0.8340	81.2753
 0.8330	81.3221
 0.8320	81.3181
 0.8310	81.2582
 0.8300	81.3254
 0.8290	81.3096
 0.8280	81.2753
 0.8270	81.3251
 0.8260	81.3653
 0.8250	81.2990
 0.8240	81.4281
 0.8230	81.3946
 0.8220	81.3303
 0.8210	81.3357
 0.8200	81.3680
 0.8190	81.3043
 0.8180	81.3597
 0.8170	81.3422
 0.8160	81.3538
 0.8150	81.4026
 0.8140	81.4191
 0.8130	81.3585
 0.8120	81.3428
 0.8110	81.3590
 0.8100	81.3330
 0.8090	81.3358
 0.8080	81.3518
 0.8070	81.3704
 0.8060	81.4031
 0.8050	81.3960
 0.8040	81.3821
 0.8030	81.3791
 0.8020	81.3944
 0.8010	81.3789
 0.8000	81.3969
 0.7990	81.4025
 0.7980	81.3455
 0.7970	81.3524
 0.7960	81.3689
 0.7950	81.3023
 0.7940	81.3379
 0.7930	81.3170
 0.7920	81.3420
 0.7910	81.3429
 0.7900	81.3609
 0.7890	81.3235
 0.7880	81.2886
 0.7870	81.3752
 0.7860	81.3472
 0.7850	81.3470
 0.7840	81.3563
 0.7830	81.3401
 0.7820	81.3293
 0.7810	81.3436
 0.7800	81.3788
 0.7790	81.3556
 0.7780	81.3598
 0.7770	81.3042
 0.7760	81.3190
 0.7750	81.3048
 0.7740	81.3536
 0.7730	81.3302
 0.7720	81.3470
 0.7710	81.3173
 0.7700	81.3346
 0.7690	81.3261
 0.7680	81.3474
 0.7670	81.3123
 0.7660	81.3214
 0.7650	81.3408
 0.7640	81.3440
 0.7630	81.3318
 0.7620	81.3473
 0.7610	81.3518
 0.7600	81.3189
 0.7590	81.3526
 0.7580	81.3487
 0.7570	81.3386
 0.7560	81.3772
 0.7550	81.3499
 0.7540	81.3097
 0.7530	81.3345
 0.7520	81.3627
 0.7510	81.3689
 0.7500	81.3905
 0.7490	81.3773
 0.7480	81.3794
 0.7470	81.3601
 0.7460	81.3491
 0.7450	81.3543
 0.7440	81.3275
 0.7430	81.3589
 0.7420	81.3570
 0.7410	81.3644
 0.7400	81.3731
 0.7390	81.3496
 0.7380	81.3627
 0.7370	81.3526
 0.7360	81.3530
 0.7350	81.3710
 0.7340	81.3437
 0.7330	81.3682
 0.7320	81.3751
 0.7310	81.3656
 0.7300	81.3831
 0.7290	81.3673
 0.7280	81.3522
 0.7270	81.3451
 0.7260	81.3422
 0.7250	81.3627
 0.7240	81.3455
 0.7230	81.3602
 0.7220	81.3645
 0.7210	81.3514
 0.7200	81.3813
 0.7190	81.3585
 0.7180	81.3821
 0.7170	81.3767
 0.7160	81.4049
 0.7150	81.3989
 0.7140	81.3839
 0.7130	81.3730
 0.7120	81.3399
 0.7110	81.3601
 0.7100	81.3637
 0.7090	81.3821
 0.7080	81.3959
 0.7070	81.3890
 0.7060	81.3718
 0.7050	81.3845
 0.7040	81.3619
 0.7030	81.3732
 0.7020	81.3862
 0.7010	81.3801
 0.7000	81.3822
 0.6990	81.3735
 0.6980	81.3796
 0.6970	81.3957
 0.6960	81.3935
 0.6950	81.3855
 0.6940	81.3776
 0.6930	81.3852
 0.6920	81.3805
 0.6910	81.3725
 0.6900	81.3739
 0.6890	81.3868
 0.6880	81.3682
 0.6870	81.3722
 0.6860	81.3887
 0.6850	81.3944
 0.6840	81.3844
 0.6830	81.3808
 0.6820	81.3774
 0.6810	81.3768
 0.6800	81.3726
 0.6790	81.3849
 0.6780	81.3870
 0.6770	81.3765
 0.6760	81.3827
 0.6750	81.3793
 0.6740	81.3671
 0.6730	81.3816
 0.6720	81.3845
 0.6710	81.3775
 0.6700	81.3726
 0.6690	81.3676
 0.6680	81.3768
 0.6670	81.3713
 0.6660	81.3602
 0.6650	81.3656
 0.6640	81.3710
 0.6630	81.3795
 0.6620	81.3878
 0.6610	81.3965
 0.6600	81.3915
 0.6590	81.3763
 0.6580	81.3908
 0.6570	81.3904
 0.6560	81.3593
 0.6550	81.3531
 0.6540	81.3850
 0.6530	81.3896
 0.6520	81.3873
 0.6510	81.3843
 0.6500	81.3839
 0.6490	81.3773
 0.6480	81.3689
 0.6470	81.3749
 0.6460	81.3766
 0.6450	81.3708
 0.6440	81.3802
 0.6430	81.3830
 0.6420	81.3866
 0.6410	81.3795
 0.6400	81.3747
 0.6390	81.3849
 0.6380	81.3806
 0.6370	81.3742
 0.6360	81.3707
 0.6350	81.3676
 0.6340	81.3804
 0.6330	81.3825
 0.6320	81.3730
 0.6310	81.3894
 0.6300	81.4019
 0.6290	81.3840
 0.6280	81.3812
 0.6270	81.3764
 0.6260	81.3781
 0.6250	81.3915
 0.6240	81.3853
 0.6230	81.3776
 0.6220	81.3758
 0.6210	81.3892
 0.6200	81.3908
 0.6190	81.3754
 0.6180	81.3788
 0.6170	81.3843
 0.6160	81.3640
 0.6150	81.3674
 0.6140	81.3686
 0.6130	81.3596
 0.6120	81.3718
 0.6110	81.3751
 0.6100	81.3696
 0.6090	81.3676
 0.6080	81.3668
 0.6070	81.3712
 0.6060	81.3616
 0.6050	81.3643
 0.6040	81.3610
 0.6030	81.3576
 0.6020	81.3655
 0.6010	81.3702
 0.6000	81.3597
 0.5990	81.3719
 0.5980	81.4039
 0.5970	81.4122
 0.5960	81.4278
 0.5950	81.4404
 0.5940	81.4333
 0.5930	81.4470
 0.5920	81.4468
 0.5910	81.4312
 0.5900	81.4173
 0.5890	81.4233
 0.5880	81.4176
 0.5870	81.4205
 0.5860	81.4241
 0.5850	81.4161
 0.5840	81.4240
 0.5830	81.4205
 0.5820	81.4192
 0.5810	81.4140
 0.5800	81.4234
 0.5790	81.4094
 0.5780	81.4060
 0.5770	81.4147
 0.5760	81.4016
 0.5750	81.3990
 0.5740	81.3961
 0.5730	81.4018
 0.5720	81.4063
 0.5710	81.4107
 0.5700	81.4145
 0.5690	81.4079
 0.5680	81.4013
 0.5670	81.3949
 0.5660	81.3943
 0.5650	81.4062
 0.5640	81.3922
 0.5630	81.4154
 0.5620	81.4094
 0.5610	81.3577
 0.5600	81.3302
 0.5590	81.3186
 0.5580	81.3008
 0.5570	81.3095
 0.5560	81.3200
 0.5550	81.3171
 0.5540	81.3044
 0.5530	81.3105
 0.5520	81.3030
 0.5510	81.2918
 0.5500	81.2871
 0.5490	81.2810
 0.5480	81.2770
 0.5470	81.2724
 0.5460	81.2715
 0.5450	81.2578
 0.5440	81.2708
 0.5430	81.2768
 0.5420	81.2717
 0.5410	81.2680
 0.5400	81.2550
 0.5390	81.2570
 0.5380	81.2709
 0.5370	81.2627
 0.5360	81.2755
 0.5350	81.2569
 0.5340	81.2456
 0.5330	81.2463
 0.5320	81.2331
 0.5310	81.2431
 0.5300	81.2441
 0.5290	81.2284
 0.5280	81.2585
 0.5270	81.2462
 0.5260	81.2373
 0.5250	81.2377
 0.5240	81.2294
 0.5230	81.2338
 0.5220	81.2215
 0.5210	81.1881
 0.5200	81.2002
 0.5190	81.2148
 0.5180	81.1999
 0.5170	81.1800
 0.5160	81.1636
 0.5150	81.1708
 0.5140	81.1741
 0.5130	81.1527
 0.5120	81.1355
 0.5110	81.1213
 0.5100	81.1328
 0.5090	81.1127
 0.5080	81.0754
 0.5070	81.0764
 0.5060	81.0373
 0.5050	81.0439
 0.5040	81.0064
 0.5030	81.0110
 0.5020	80.9921
 0.5010	80.9513
 0.5000	80.9289
 0.4990	80.9089
 0.4980	80.9048
 0.4970	80.8483
 0.4960	80.8095
 0.4950	80.8041
 0.4940	80.7736
 0.4930	80.7479
 0.4920	80.7077
 0.4910	80.6688
 0.4900	80.6410
 0.4890	80.6298
 0.4880	80.5885
 0.4870	80.5366
 0.4860	80.5057
 0.4850	80.4893
 0.4840	80.4500
 0.4830	80.4154
 0.4820	80.4149
 0.4810	80.4361
 0.4800	80.4217
 0.4790	80.4293
 0.4780	80.4404
 0.4770	80.4416
 0.4760	80.4462
 0.4750	80.4423
 0.4740	80.4112
 0.4730	80.4074
 0.4720	80.4015
 0.4710	80.3871
 0.4700	80.3745
 0.4690	80.3568
 0.4680	80.3473
 0.4670	80.3364
 0.4660	80.3055
 0.4650	80.3080
 0.4640	80.2702
 0.4630	80.2552
 0.4620	80.2408
 0.4610	80.2230
 0.4600	80.1936
 0.4590	80.1773
 0.4580	80.1707
 0.4570	80.1434
 0.4560	80.1142
 0.4550	80.0972
 0.4540	80.0675
 0.4530	80.0362
 0.4520	80.0141
 0.4510	79.9761
 0.4500	79.9570
 0.4490	79.9478
 0.4480	79.9038
 0.4470	79.8579
 0.4460	79.8427
 0.4450	79.7974
 0.4440	79.7608
 0.4430	79.7424
 0.4420	79.7221
 0.4410	79.7163
 0.4400	79.6996
 0.4390	79.6723
 0.4380	79.6548
 0.4370	79.6265
 0.4360	79.6143
 0.4350	79.5643
 0.4340	79.5516
 0.4330	79.5307
 0.4320	79.5388
 0.4310	79.4851
 0.4300	79.4481
 0.4290	79.4582
 0.4280	79.4203
 0.4270	79.4030
 0.4260	79.4005
 0.4250	79.3759
 0.4240	79.3489
 0.4230	79.3286
 0.4220	79.3260
 0.4210	79.2979
 0.4200	79.2955
 0.4190	79.2857
 0.4180	79.2561
 0.4170	79.2515
 0.4160	79.2293
 0.4150	79.2140
 0.4140	79.2170
 0.4130	79.2027
 0.4120	79.1958
 0.4110	79.1950
 0.4100	79.2166
 0.4090	79.1833
 0.4080	79.1742
 0.4070	79.1521
 0.4060	79.1558
 0.4050	79.1479
 0.4040	79.1242
 0.4030	79.1040
 0.4020	79.0850
 0.4010	79.0972
 0.4000	79.0523
