Name: Cryolite Na_3AlF_6
Type: Mineral
Class: Halide
Subclass: None
Particle Size: Coarse
Sample No.: H-1A
Owner: JPL
Wavelength Range: VSWIR
Origin: Denmark, Greenland, Ivigtut
Collection Date: N/A
Description: Particle size was 125-500um.Collected by Ward's Original ASTER Spectral Library name was jpl.beckman.mineral.halide.none.coarse.h01a.spectrum.txt
Measurement: Hemispherical reflectance
First Column: X
Second Column: Y
X Units: Wavelength (micrometers)
Y Units:Reflectance (percent)
First X Value:  0.4000
Last X Value:  2.5000
Number of X Values: 826
Additional Information: mineral.halide.none.coarse.vswir.h-1a.jpl.beckman.ancillary.txt

 0.4000	85.4900
 0.4010	85.4300
 0.4020	85.5000
 0.4030	85.5600
 0.4040	85.6800
 0.4050	85.5800
 0.4060	85.5700
 0.4070	85.6200
 0.4080	85.6900
 0.4090	85.7000
 0.4100	85.5700
 0.4110	85.5100
 0.4120	85.5800
 0.4130	85.6400
 0.4140	85.6900
 0.4150	85.6800
 0.4160	85.7400
 0.4170	85.7500
 0.4180	85.8200
 0.4190	85.8600
 0.4200	85.8100
 0.4210	85.6900
 0.4220	85.8700
 0.4230	85.7700
 0.4240	85.8200
 0.4250	85.8700
 0.4260	85.8100
 0.4270	85.8100
 0.4280	85.8600
 0.4290	85.8200
 0.4300	85.8800
 0.4310	85.8700
 0.4320	85.8200
 0.4330	85.9800
 0.4340	85.9900
 0.4350	86.0400
 0.4360	86.0400
 0.4370	85.9900
 0.4380	86.0600
 0.4390	86.0100
 0.4400	86.1400
 0.4410	86.2500
 0.4420	86.1300
 0.4430	86.2500
 0.4440	86.1200
 0.4450	86.2300
 0.4460	86.2300
 0.4470	86.1600
 0.4480	86.2800
 0.4490	86.1700
 0.4500	86.2800
 0.4510	86.1700
 0.4520	86.2500
 0.4530	86.2700
 0.4540	86.2800
 0.4550	86.3300
 0.4560	86.4700
 0.4570	86.5400
 0.4580	86.5100
 0.4590	86.4600
 0.4600	86.4200
 0.4610	86.4200
 0.4620	86.4900
 0.4630	86.3200
 0.4640	86.4000
 0.4650	86.4000
 0.4660	86.5600
 0.4670	86.5800
 0.4680	86.4200
 0.4690	86.4300
 0.4700	86.5500
 0.4710	86.6300
 0.4720	86.6400
 0.4730	86.5400
 0.4740	86.5300
 0.4750	86.5900
 0.4760	86.5900
 0.4770	86.7000
 0.4780	86.6100
 0.4790	86.6200
 0.4800	86.6800
 0.4810	86.6600
 0.4820	86.6700
 0.4830	86.7400
 0.4840	86.6200
 0.4850	86.6900
 0.4860	86.7000
 0.4870	86.7700
 0.4880	86.7300
 0.4890	86.6700
 0.4900	86.6800
 0.4910	86.5800
 0.4920	86.7700
 0.4930	86.7400
 0.4940	86.6900
 0.4950	86.8200
 0.4960	86.7100
 0.4970	86.7800
 0.4980	86.7900
 0.4990	86.7400
 0.5000	86.8600
 0.5010	86.7500
 0.5020	86.8700
 0.5030	86.9300
 0.5040	86.8200
 0.5050	86.8800
 0.5060	86.7200
 0.5070	86.8300
 0.5080	86.9600
 0.5090	86.9700
 0.5100	86.9600
 0.5110	86.9000
 0.5120	86.9500
 0.5130	86.9500
 0.5140	87.0400
 0.5150	87.0500
 0.5160	86.9900
 0.5170	86.8900
 0.5180	86.9500
 0.5190	86.9900
 0.5200	87.1000
 0.5210	87.0500
 0.5220	87.0000
 0.5230	87.0600
 0.5240	87.0000
 0.5250	87.1100
 0.5260	87.1100
 0.5270	86.9700
 0.5280	87.0200
 0.5290	86.9700
 0.5300	87.0600
 0.5310	87.1800
 0.5320	87.0200
 0.5330	87.0900
 0.5340	86.9700
 0.5350	86.9800
 0.5360	86.9700
 0.5370	87.0900
 0.5380	87.0300
 0.5390	87.0300
 0.5400	87.0900
 0.5410	87.1000
 0.5420	87.0600
 0.5430	87.0100
 0.5440	86.9700
 0.5450	86.9300
 0.5460	86.9900
 0.5470	87.0000
 0.5480	87.0800
 0.5490	87.0300
 0.5500	86.9800
 0.5510	87.0400
 0.5520	87.0500
 0.5530	87.1100
 0.5540	87.1100
 0.5550	87.0100
 0.5560	87.0400
 0.5570	87.0200
 0.5580	87.1700
 0.5590	87.1300
 0.5600	87.1700
 0.5610	87.6900
 0.5620	87.5200
 0.5630	87.4800
 0.5640	87.6100
 0.5650	87.5400
 0.5660	87.5400
 0.5670	87.5000
 0.5680	87.3700
 0.5690	87.4200
 0.5700	87.4800
 0.5710	87.4200
 0.5720	87.3600
 0.5730	87.2800
 0.5740	87.2100
 0.5750	87.2200
 0.5760	87.2500
 0.5770	87.3500
 0.5780	87.2900
 0.5790	87.2800
 0.5800	87.2100
 0.5810	87.2200
 0.5820	87.2200
 0.5830	87.1600
 0.5840	87.2800
 0.5850	87.1500
 0.5860	87.2000
 0.5870	87.1400
 0.5880	87.1500
 0.5890	87.2200
 0.5900	87.1500
 0.5910	87.2600
 0.5920	87.3200
 0.5930	87.2700
 0.5940	87.2800
 0.5950	87.2100
 0.5960	87.2100
 0.5970	87.2100
 0.5980	87.2500
 0.5990	87.2300
 0.6000	87.3700
 0.6010	87.3500
 0.6020	87.3800
 0.6030	87.3900
 0.6040	87.4100
 0.6050	87.4200
 0.6060	87.3600
 0.6070	87.4200
 0.6080	87.2500
 0.6090	87.2100
 0.6100	87.3300
 0.6110	87.1800
 0.6120	87.3400
 0.6130	87.2300
 0.6140	87.1000
 0.6150	87.2600
 0.6160	87.2100
 0.6170	87.2200
 0.6180	87.1600
 0.6190	86.9900
 0.6200	87.0900
 0.6210	87.1000
 0.6220	87.2200
 0.6230	87.2300
 0.6240	87.1100
 0.6250	87.3400
 0.6260	87.1000
 0.6270	87.1100
 0.6280	87.1800
 0.6290	87.1200
 0.6300	87.1700
 0.6310	87.0400
 0.6320	87.0300
 0.6330	87.1500
 0.6340	87.2100
 0.6350	87.2200
 0.6360	87.2200
 0.6370	87.2800
 0.6380	87.2200
 0.6390	87.2800
 0.6400	87.2800
 0.6410	87.3400
 0.6420	87.2300
 0.6430	87.3200
 0.6440	87.2100
 0.6450	87.2600
 0.6460	87.3800
 0.6470	87.2900
 0.6480	87.4000
 0.6490	87.2800
 0.6500	87.2800
 0.6510	87.3300
 0.6520	87.1700
 0.6530	87.2800
 0.6540	87.1700
 0.6550	87.2300
 0.6560	87.3200
 0.6570	87.2500
 0.6580	87.3100
 0.6590	87.2100
 0.6600	87.1100
 0.6610	87.2900
 0.6620	87.2800
 0.6630	87.2800
 0.6640	87.2700
 0.6650	87.2700
 0.6660	87.2800
 0.6670	87.3500
 0.6680	87.3400
 0.6690	87.3800
 0.6700	87.1400
 0.6710	87.2600
 0.6720	87.1600
 0.6730	87.2800
 0.6740	87.3300
 0.6750	87.2200
 0.6760	87.3200
 0.6770	87.2200
 0.6780	87.2800
 0.6790	87.2800
 0.6800	87.2200
 0.6810	87.2700
 0.6820	87.1400
 0.6830	87.1400
 0.6840	87.2100
 0.6850	87.2800
 0.6860	87.2800
 0.6870	87.2300
 0.6880	87.1600
 0.6890	87.2800
 0.6900	87.2300
 0.6910	87.3400
 0.6920	87.3300
 0.6930	87.2100
 0.6940	87.2500
 0.6950	87.1400
 0.6960	87.1500
 0.6970	87.2700
 0.6980	87.0800
 0.6990	87.2600
 0.7000	87.2000
 0.7010	87.1700
 0.7020	87.3200
 0.7030	87.2700
 0.7040	87.1700
 0.7050	87.2900
 0.7060	87.2800
 0.7070	87.0500
 0.7080	87.2100
 0.7090	87.1700
 0.7100	87.2900
 0.7110	87.2300
 0.7120	87.1600
 0.7130	87.3200
 0.7140	87.3200
 0.7150	87.2100
 0.7160	87.3300
 0.7170	87.2800
 0.7180	87.3300
 0.7190	87.1700
 0.7200	87.2200
 0.7210	87.1700
 0.7220	87.0600
 0.7230	87.1500
 0.7240	87.0300
 0.7250	86.9800
 0.7260	87.1000
 0.7270	87.0100
 0.7280	87.1800
 0.7290	87.1100
 0.7300	87.0600
 0.7310	87.1200
 0.7320	87.0000
 0.7330	87.1600
 0.7340	87.0900
 0.7350	87.2200
 0.7360	87.0600
 0.7370	87.0000
 0.7380	87.0600
 0.7390	87.0500
 0.7400	87.1200
 0.7410	87.0700
 0.7420	87.0200
 0.7430	87.1200
 0.7440	87.0600
 0.7450	87.0700
 0.7460	87.0200
 0.7470	87.0200
 0.7480	87.1200
 0.7490	87.0600
 0.7500	87.0300
 0.7510	87.0800
 0.7520	86.9100
 0.7530	87.0000
 0.7540	87.0000
 0.7550	87.0600
 0.7560	87.0700
 0.7570	86.9100
 0.7580	87.0700
 0.7590	87.0700
 0.7600	87.0200
 0.7610	87.0100
 0.7620	87.0600
 0.7630	87.0100
 0.7640	87.0200
 0.7650	87.0300
 0.7660	87.0800
 0.7670	86.9700
 0.7680	86.9700
 0.7690	87.0300
 0.7700	87.0200
 0.7710	87.0100
 0.7720	86.9700
 0.7730	86.9700
 0.7740	86.9200
 0.7750	86.9100
 0.7760	87.0100
 0.7770	87.0100
 0.7780	87.0300
 0.7790	86.8600
 0.7800	86.8500
 0.7810	86.9700
 0.7820	86.9700
 0.7830	86.9700
 0.7840	86.9700
 0.7850	86.8700
 0.7860	87.1000
 0.7870	87.0400
 0.7880	86.9700
 0.7890	87.0100
 0.7900	86.9100
 0.7910	87.0800
 0.7920	87.0300
 0.7930	86.9800
 0.7940	87.0300
 0.7950	87.0300
 0.7960	87.1300
 0.7970	87.1700
 0.7980	87.0900
 0.7990	87.2100
 0.8000	87.1900
 0.8040	87.2900
 0.8080	87.2100
 0.8120	87.2100
 0.8160	87.2000
 0.8200	87.2600
 0.8240	87.2200
 0.8280	87.1600
 0.8320	87.2000
 0.8360	87.2500
 0.8400	87.2600
 0.8440	87.3600
 0.8480	87.3200
 0.8520	87.3500
 0.8560	87.3600
 0.8600	87.4200
 0.8640	87.4700
 0.8680	87.4100
 0.8720	87.4700
 0.8760	87.3600
 0.8800	87.2900
 0.8840	87.4100
 0.8880	87.4200
 0.8920	87.3500
 0.8960	87.4100
 0.9000	87.3600
 0.9040	87.4700
 0.9080	87.4700
 0.9120	87.4700
 0.9160	87.4800
 0.9200	87.4700
 0.9240	87.4300
 0.9280	87.4700
 0.9320	87.5400
 0.9360	87.5300
 0.9400	87.5800
 0.9440	87.4800
 0.9480	87.5300
 0.9520	87.5800
 0.9560	87.6000
 0.9600	87.5300
 0.9640	87.5200
 0.9680	87.6500
 0.9720	87.6000
 0.9760	87.5900
 0.9800	87.5500
 0.9840	87.4900
 0.9880	87.5400
 0.9920	87.5900
 0.9960	87.4800
 1.0000	87.5800
 1.0040	87.6500
 1.0080	87.5900
 1.0120	87.6000
 1.0160	87.5900
 1.0200	87.6500
 1.0240	87.5900
 1.0280	87.5900
 1.0320	87.6100
 1.0360	87.6700
 1.0400	87.7300
 1.0440	87.7200
 1.0480	87.5900
 1.0520	87.6500
 1.0560	87.6600
 1.0600	87.6900
 1.0640	87.6900
 1.0680	87.6800
 1.0720	87.7000
 1.0760	87.7600
 1.0800	87.7900
 1.0840	87.7600
 1.0880	87.7200
 1.0920	87.7300
 1.0960	87.8000
 1.1000	87.8700
 1.1040	87.7800
 1.1080	87.7600
 1.1120	87.8300
 1.1160	87.8100
 1.1200	87.9400
 1.1240	87.9400
 1.1280	88.0200
 1.1320	87.9400
 1.1360	87.8900
 1.1400	87.7900
 1.1440	87.8200
 1.1480	87.7500
 1.1520	87.7000
 1.1560	87.6900
 1.1600	87.7400
 1.1640	87.6200
 1.1680	87.6800
 1.1720	87.6600
 1.1760	87.6000
 1.1800	87.6500
 1.1840	87.6500
 1.1880	87.5900
 1.1920	87.6000
 1.1960	87.7200
 1.2000	87.7200
 1.2040	87.7400
 1.2080	87.6200
 1.2120	87.6600
 1.2160	87.6900
 1.2200	87.7100
 1.2240	87.6700
 1.2280	87.7300
 1.2320	87.6400
 1.2360	87.7200
 1.2400	87.6200
 1.2440	87.6900
 1.2480	87.6500
 1.2520	87.7100
 1.2560	87.7000
 1.2600	87.7400
 1.2640	87.6900
 1.2680	87.6900
 1.2720	87.6900
 1.2760	87.7300
 1.2800	87.7600
 1.2840	87.8400
 1.2880	87.7700
 1.2920	87.6700
 1.2960	87.7300
 1.3000	87.6700
 1.3040	87.6700
 1.3080	87.5900
 1.3120	87.5800
 1.3160	87.5700
 1.3200	87.5000
 1.3240	87.5000
 1.3280	87.5400
 1.3320	87.4300
 1.3360	87.4300
 1.3400	87.4600
 1.3440	87.4800
 1.3480	87.4800
 1.3520	87.4200
 1.3560	87.4400
 1.3600	87.4700
 1.3640	87.4000
 1.3680	87.4200
 1.3720	87.3400
 1.3760	87.2900
 1.3800	87.2300
 1.3840	87.1800
 1.3880	87.1800
 1.3920	87.0600
 1.3960	86.9800
 1.4000	86.8300
 1.4040	86.7200
 1.4080	86.6800
 1.4120	86.5100
 1.4160	86.4100
 1.4200	86.3300
 1.4240	86.2100
 1.4280	86.1600
 1.4320	86.2800
 1.4360	86.3000
 1.4400	86.2700
 1.4440	86.0600
 1.4480	86.0000
 1.4520	85.9000
 1.4560	86.0700
 1.4600	86.1800
 1.4640	86.2900
 1.4680	86.3700
 1.4720	86.5100
 1.4760	86.5600
 1.4800	86.6200
 1.4840	86.7000
 1.4880	86.7300
 1.4920	86.8600
 1.4960	86.8500
 1.5000	86.7600
 1.5040	86.8900
 1.5080	87.0100
 1.5120	87.0700
 1.5160	87.1300
 1.5200	87.0700
 1.5240	87.1400
 1.5280	87.1900
 1.5320	87.2600
 1.5360	87.2800
 1.5400	87.2800
 1.5440	87.3300
 1.5480	87.3500
 1.5520	87.3300
 1.5560	87.3800
 1.5600	87.4300
 1.5640	87.4900
 1.5680	87.4700
 1.5720	87.4900
 1.5760	87.5000
 1.5800	87.5500
 1.5840	87.4800
 1.5880	87.5600
 1.5920	87.6000
 1.5960	87.6000
 1.6000	87.6400
 1.6040	87.6400
 1.6080	87.6700
 1.6120	87.6400
 1.6160	87.6300
 1.6200	87.6700
 1.6240	87.6200
 1.6280	87.6800
 1.6320	87.6700
 1.6360	87.6800
 1.6400	87.6700
 1.6440	87.7000
 1.6480	87.7500
 1.6520	87.7500
 1.6560	87.7400
 1.6600	87.7900
 1.6640	87.7900
 1.6680	87.7800
 1.6720	87.8400
 1.6760	87.9300
 1.6800	87.8500
 1.6840	87.8500
 1.6880	87.8000
 1.6920	87.8000
 1.6960	87.8500
 1.7000	87.7200
 1.7040	87.8500
 1.7080	87.7300
 1.7120	87.7700
 1.7160	87.7500
 1.7200	87.8100
 1.7240	87.8200
 1.7280	87.7100
 1.7320	87.7300
 1.7360	87.6800
 1.7400	87.6900
 1.7440	87.5700
 1.7480	87.5600
 1.7520	87.5500
 1.7560	87.5000
 1.7600	87.4900
 1.7640	87.4400
 1.7680	87.3300
 1.7720	87.4400
 1.7760	87.4600
 1.7800	87.4500
 1.7840	87.3400
 1.7880	87.4500
 1.7920	87.3800
 1.7960	87.3800
 1.8000	87.4500
 1.8040	87.4900
 1.8080	87.5200
 1.8120	87.4200
 1.8160	87.3800
 1.8200	87.3300
 1.8240	87.4700
 1.8280	87.4200
 1.8320	87.3400
 1.8360	87.3900
 1.8400	87.2900
 1.8440	87.2600
 1.8480	87.2600
 1.8520	87.2100
 1.8560	87.0900
 1.8600	86.9900
 1.8640	86.9200
 1.8680	86.7200
 1.8720	86.6700
 1.8760	86.4200
 1.8800	86.2000
 1.8840	85.8500
 1.8880	85.4700
 1.8920	85.0800
 1.8960	84.6500
 1.9000	84.1600
 1.9040	83.7400
 1.9080	83.2500
 1.9120	82.7800
 1.9160	82.4400
 1.9200	82.0800
 1.9240	81.7800
 1.9280	81.8500
 1.9320	81.8500
 1.9360	82.2100
 1.9400	82.5400
 1.9440	82.8300
 1.9480	82.9700
 1.9520	83.3500
 1.9560	83.6300
 1.9600	83.9000
 1.9640	84.2000
 1.9680	84.4900
 1.9720	84.6700
 1.9760	84.8800
 1.9800	85.1200
 1.9840	85.2300
 1.9880	85.3800
 1.9920	85.4700
 1.9960	85.6500
 2.0000	85.6800
 2.0040	85.8200
 2.0080	85.9000
 2.0120	86.0100
 2.0160	86.1100
 2.0200	86.1700
 2.0240	86.2200
 2.0280	86.2300
 2.0320	86.3300
 2.0360	86.3900
 2.0400	86.4600
 2.0440	86.4600
 2.0480	86.5000
 2.0520	86.5700
 2.0560	86.5400
 2.0600	86.6700
 2.0640	86.6300
 2.0680	86.6400
 2.0720	86.7200
 2.0760	86.8500
 2.0800	86.9100
 2.0840	86.9400
 2.0880	87.0100
 2.0920	87.1500
 2.0960	87.1700
 2.1000	87.2500
 2.1040	87.3100
 2.1080	87.3900
 2.1120	87.5000
 2.1160	87.5000
 2.1200	87.6200
 2.1240	87.5800
 2.1280	87.5100
 2.1320	87.4700
 2.1360	87.4600
 2.1400	87.4500
 2.1440	87.2600
 2.1480	87.1200
 2.1520	87.0200
 2.1560	86.9900
 2.1600	86.8700
 2.1640	86.6700
 2.1680	86.6400
 2.1720	86.7000
 2.1760	86.6000
 2.1800	86.6600
 2.1840	86.6700
 2.1880	86.6100
 2.1920	86.5800
 2.1960	86.5400
 2.2000	86.6100
 2.2040	86.5000
 2.2080	86.4400
 2.2120	86.3800
 2.2160	86.3600
 2.2200	86.3400
 2.2240	86.3600
 2.2280	86.3200
 2.2320	86.3600
 2.2360	86.3100
 2.2400	86.4400
 2.2440	86.5600
 2.2480	86.6100
 2.2520	86.5400
 2.2560	86.6100
 2.2600	86.6300
 2.2640	86.6500
 2.2680	86.6000
 2.2720	86.6300
 2.2760	86.6000
 2.2800	86.4300
 2.2840	86.4500
 2.2880	86.4200
 2.2920	86.3000
 2.2960	86.2300
 2.3000	86.1800
 2.3040	86.0100
 2.3080	85.9700
 2.3120	85.8200
 2.3160	85.8500
 2.3200	85.7500
 2.3240	85.6200
 2.3280	85.3900
 2.3320	85.2600
 2.3360	85.1700
 2.3400	84.9500
 2.3440	84.7900
 2.3480	84.6200
 2.3520	84.5300
 2.3560	84.3900
 2.3600	84.3000
 2.3640	84.2200
 2.3680	83.9900
 2.3720	83.8000
 2.3760	83.7200
 2.3800	83.6200
 2.3840	83.5100
 2.3880	83.3700
 2.3920	83.3100
 2.3960	83.2400
 2.4000	83.1700
 2.4040	83.1300
 2.4080	83.1900
 2.4120	83.2100
 2.4160	83.1800
 2.4200	83.1800
 2.4240	83.2000
 2.4280	83.1500
 2.4320	83.0900
 2.4360	83.1300
 2.4400	82.9700
 2.4440	82.9100
 2.4480	82.7700
 2.4520	82.7700
 2.4560	82.6800
 2.4600	82.6000
 2.4640	82.5400
 2.4680	82.5300
 2.4720	82.6300
 2.4760	82.6600
 2.4800	82.8500
 2.4840	83.0700
 2.4880	83.2700
 2.4920	83.4900
 2.4960	83.7000
 2.5000	83.8400
