Name: Andesine (Feldspar) (NaSi,CaAl)AlSi_2O_8
Type: Mineral
Class: Silicate
Subclass: Tectosilicate
Particle Size: Coarse
Sample No.: TS-4A
Owner: JPL
Wavelength Range: VSWIR
Origin: 
Collection Date: N/A
Description: Particle size was 125-500um.Collected by JPL Original ASTER Spectral Library name was jpl.beckman.mineral.silicate.tectosilicate.coarse.ts04a.spectrum.txt
Measurement: Hemispherical reflectance
First Column: X
Second Column: Y
X Units: Wavelength (micrometers)
Y Units:Reflectance (percent)
First X Value:  0.4000
Last X Value:  2.5000
Number of X Values: 826
Additional Information: mineral.silicate.tectosilicate.coarse.vswir.ts-4a.jpl.beckman.ancillary.txt

 0.4000	57.5800
 0.4010	57.7800
 0.4020	57.9600
 0.4030	58.3200
 0.4040	58.4100
 0.4050	58.4400
 0.4060	58.6300
 0.4070	58.7500
 0.4080	59.0000
 0.4090	59.1500
 0.4100	59.1900
 0.4110	59.3500
 0.4120	59.5500
 0.4130	59.6300
 0.4140	59.6200
 0.4150	59.8500
 0.4160	60.0300
 0.4170	60.0100
 0.4180	60.1100
 0.4190	60.3000
 0.4200	60.6000
 0.4210	60.8000
 0.4220	60.8900
 0.4230	61.1100
 0.4240	61.1400
 0.4250	61.4400
 0.4260	61.5200
 0.4270	61.6600
 0.4280	61.8300
 0.4290	62.0500
 0.4300	62.1900
 0.4310	62.3900
 0.4320	62.5500
 0.4330	62.8500
 0.4340	62.9300
 0.4350	62.9900
 0.4360	63.1600
 0.4370	63.4400
 0.4380	63.5600
 0.4390	63.6800
 0.4400	63.9200
 0.4410	64.1200
 0.4420	64.2200
 0.4430	64.3000
 0.4440	64.5200
 0.4450	64.7500
 0.4460	64.8700
 0.4470	64.8100
 0.4480	64.9900
 0.4490	65.0100
 0.4500	65.1300
 0.4510	65.3300
 0.4520	65.3300
 0.4530	65.6200
 0.4540	65.5900
 0.4550	65.5800
 0.4560	65.7800
 0.4570	65.8700
 0.4580	66.1500
 0.4590	66.2500
 0.4600	66.2200
 0.4610	66.4200
 0.4620	66.3700
 0.4630	66.4200
 0.4640	66.5500
 0.4650	66.7400
 0.4660	66.7700
 0.4670	66.7400
 0.4680	66.8000
 0.4690	66.9800
 0.4700	67.1700
 0.4710	67.1300
 0.4720	67.0900
 0.4730	67.3600
 0.4740	67.4600
 0.4750	67.5000
 0.4760	67.4400
 0.4770	67.6300
 0.4780	67.9000
 0.4790	67.7300
 0.4800	67.8600
 0.4810	67.9500
 0.4820	68.1600
 0.4830	68.2400
 0.4840	68.1900
 0.4850	68.2600
 0.4860	68.4000
 0.4870	68.5300
 0.4880	68.5300
 0.4890	68.5800
 0.4900	68.6300
 0.4910	68.8600
 0.4920	68.9100
 0.4930	68.9200
 0.4940	69.1000
 0.4950	69.2500
 0.4960	69.2600
 0.4970	69.2500
 0.4980	69.5000
 0.4990	69.6500
 0.5000	69.7200
 0.5010	69.7300
 0.5020	69.8800
 0.5030	70.1100
 0.5040	70.0100
 0.5050	70.1400
 0.5060	70.2100
 0.5070	70.4100
 0.5080	70.5200
 0.5090	70.5100
 0.5100	70.5600
 0.5110	70.7800
 0.5120	70.8700
 0.5130	70.8700
 0.5140	70.9500
 0.5150	71.0400
 0.5160	71.1300
 0.5170	71.2600
 0.5180	71.2300
 0.5190	71.4800
 0.5200	71.5400
 0.5210	71.5800
 0.5220	71.6000
 0.5230	71.7000
 0.5240	71.8600
 0.5250	71.8300
 0.5260	71.7900
 0.5270	71.8600
 0.5280	71.8900
 0.5290	72.0200
 0.5300	71.9900
 0.5310	72.0500
 0.5320	72.1600
 0.5330	72.3000
 0.5340	72.3300
 0.5350	72.2300
 0.5360	72.3500
 0.5370	72.5400
 0.5380	72.4900
 0.5390	72.5300
 0.5400	72.4700
 0.5410	72.6100
 0.5420	72.6400
 0.5430	72.6500
 0.5440	72.5800
 0.5450	72.8100
 0.5460	72.8400
 0.5470	72.8900
 0.5480	72.8300
 0.5490	72.9300
 0.5500	73.0800
 0.5510	73.0500
 0.5520	72.9500
 0.5530	73.0200
 0.5540	73.1300
 0.5550	73.2600
 0.5560	73.2500
 0.5570	73.2900
 0.5580	73.4300
 0.5590	73.4200
 0.5600	73.3600
 0.5610	73.7700
 0.5620	73.7600
 0.5630	73.9700
 0.5640	73.8000
 0.5650	73.7200
 0.5660	73.7300
 0.5670	73.7600
 0.5680	73.8400
 0.5690	73.6900
 0.5700	73.7500
 0.5710	73.7300
 0.5720	73.8300
 0.5730	73.6700
 0.5740	73.5400
 0.5750	73.4700
 0.5760	73.4700
 0.5770	73.5800
 0.5780	73.5600
 0.5790	73.6300
 0.5800	73.6800
 0.5810	73.7200
 0.5820	73.5200
 0.5830	73.5500
 0.5840	73.6100
 0.5850	73.7600
 0.5860	73.7800
 0.5870	73.5800
 0.5880	73.6300
 0.5890	73.8100
 0.5900	73.7800
 0.5910	73.7000
 0.5920	73.8400
 0.5930	73.9600
 0.5940	73.9300
 0.5950	73.7500
 0.5960	73.8100
 0.5970	73.8900
 0.5980	73.9700
 0.5990	73.9300
 0.6000	73.8900
 0.6010	73.9500
 0.6020	74.1100
 0.6030	74.0900
 0.6040	73.9400
 0.6050	74.2100
 0.6060	74.1900
 0.6070	74.1000
 0.6080	74.0300
 0.6090	74.0500
 0.6100	74.1900
 0.6110	74.0700
 0.6120	74.0900
 0.6130	74.1200
 0.6140	74.1800
 0.6150	74.0200
 0.6160	74.0200
 0.6170	73.9900
 0.6180	74.1000
 0.6190	74.0500
 0.6200	73.9000
 0.6210	74.0700
 0.6220	74.2400
 0.6230	74.2000
 0.6240	74.1000
 0.6250	74.0600
 0.6260	74.1600
 0.6270	74.2000
 0.6280	74.1300
 0.6290	73.9900
 0.6300	74.1500
 0.6310	74.1700
 0.6320	74.0900
 0.6330	74.0100
 0.6340	74.1400
 0.6350	74.2800
 0.6360	74.3300
 0.6370	74.1400
 0.6380	74.0600
 0.6390	74.2400
 0.6400	74.3100
 0.6410	74.2100
 0.6420	74.1300
 0.6430	74.2200
 0.6440	74.2900
 0.6450	74.0800
 0.6460	74.0200
 0.6470	74.1300
 0.6480	74.2500
 0.6490	74.3700
 0.6500	74.1900
 0.6510	74.1200
 0.6520	74.1900
 0.6530	74.2500
 0.6540	74.2100
 0.6550	74.2300
 0.6560	74.3600
 0.6570	74.3300
 0.6580	74.2400
 0.6590	74.1300
 0.6600	74.1900
 0.6610	74.2900
 0.6620	74.2500
 0.6630	74.1200
 0.6640	74.2300
 0.6650	74.2400
 0.6660	74.3400
 0.6670	74.2800
 0.6680	74.2600
 0.6690	74.4100
 0.6700	74.4300
 0.6710	74.2900
 0.6720	74.2100
 0.6730	74.3600
 0.6740	74.4000
 0.6750	74.2600
 0.6760	74.2500
 0.6770	74.2900
 0.6780	74.2900
 0.6790	74.3400
 0.6800	74.2200
 0.6810	74.4000
 0.6820	74.4900
 0.6830	74.3600
 0.6840	74.3500
 0.6850	74.4300
 0.6860	74.5400
 0.6870	74.4600
 0.6880	74.3500
 0.6890	74.4200
 0.6900	74.5300
 0.6910	74.4300
 0.6920	74.4500
 0.6930	74.3900
 0.6940	74.5500
 0.6950	74.5800
 0.6960	74.3200
 0.6970	74.4500
 0.6980	74.3800
 0.6990	74.4500
 0.7000	74.3800
 0.7010	74.4800
 0.7020	74.4700
 0.7030	74.4600
 0.7040	74.3600
 0.7050	74.4100
 0.7060	74.6000
 0.7070	74.4200
 0.7080	74.4700
 0.7090	74.3100
 0.7100	74.4100
 0.7110	74.4900
 0.7120	74.4500
 0.7130	74.4700
 0.7140	74.6000
 0.7150	74.6100
 0.7160	74.6200
 0.7170	74.4600
 0.7180	74.5300
 0.7190	74.6300
 0.7200	74.5800
 0.7210	74.6000
 0.7220	74.5100
 0.7230	74.6500
 0.7240	74.6100
 0.7250	74.6700
 0.7260	74.6600
 0.7270	74.7200
 0.7280	74.8400
 0.7290	74.6000
 0.7300	74.6900
 0.7310	74.7900
 0.7320	74.7100
 0.7330	74.7100
 0.7340	74.6700
 0.7350	74.7000
 0.7360	74.7900
 0.7370	74.7700
 0.7380	74.6900
 0.7390	74.9000
 0.7400	74.9200
 0.7410	74.8100
 0.7420	74.8400
 0.7430	74.8500
 0.7440	74.7500
 0.7450	74.7900
 0.7460	74.7700
 0.7470	74.8000
 0.7480	74.9200
 0.7490	74.7800
 0.7500	74.8400
 0.7510	75.0000
 0.7520	75.1000
 0.7530	74.8600
 0.7540	74.8600
 0.7550	74.9500
 0.7560	74.9000
 0.7570	74.8600
 0.7580	74.7900
 0.7590	74.8700
 0.7600	74.9000
 0.7610	74.8500
 0.7620	74.7800
 0.7630	74.8300
 0.7640	75.0600
 0.7650	75.0300
 0.7660	74.8500
 0.7670	74.9400
 0.7680	75.1000
 0.7690	75.0200
 0.7700	74.8200
 0.7710	74.8700
 0.7720	75.1100
 0.7730	74.9600
 0.7740	75.0100
 0.7750	75.0800
 0.7760	75.1600
 0.7770	75.1500
 0.7780	75.0700
 0.7790	74.9800
 0.7800	75.0800
 0.7810	75.1500
 0.7820	75.0400
 0.7830	74.9800
 0.7840	75.0100
 0.7850	75.1000
 0.7860	75.1700
 0.7870	75.1900
 0.7880	75.1000
 0.7890	75.2300
 0.7900	75.2600
 0.7910	75.2600
 0.7920	75.1300
 0.7930	75.0900
 0.7940	75.2300
 0.7950	75.2300
 0.7960	75.2700
 0.7970	75.1500
 0.7980	75.1900
 0.7990	75.1900
 0.8000	75.3000
 0.8040	75.2600
 0.8080	75.2200
 0.8120	75.2100
 0.8160	75.2300
 0.8200	75.2600
 0.8240	75.2900
 0.8280	75.2200
 0.8320	75.1700
 0.8360	75.1200
 0.8400	75.0800
 0.8440	75.1300
 0.8480	75.0700
 0.8520	75.0700
 0.8560	75.0600
 0.8600	75.0200
 0.8640	75.0200
 0.8680	75.0800
 0.8720	74.9300
 0.8760	74.8300
 0.8800	74.8400
 0.8840	74.8000
 0.8880	74.8300
 0.8920	74.8300
 0.8960	74.7200
 0.9000	74.8400
 0.9040	74.8700
 0.9080	74.7500
 0.9120	74.6700
 0.9160	74.6400
 0.9200	74.6300
 0.9240	74.5700
 0.9280	74.5700
 0.9320	74.5000
 0.9360	74.4200
 0.9400	74.4200
 0.9440	74.2000
 0.9480	74.2000
 0.9520	74.0600
 0.9560	73.9700
 0.9600	73.9900
 0.9640	73.9200
 0.9680	73.7500
 0.9720	73.7500
 0.9760	73.7000
 0.9800	73.5300
 0.9840	73.3900
 0.9880	73.2100
 0.9920	73.1900
 0.9960	72.9300
 1.0000	72.7100
 1.0040	72.5900
 1.0080	72.3500
 1.0120	72.1900
 1.0160	72.0700
 1.0200	71.7800
 1.0240	71.6300
 1.0280	71.4600
 1.0320	71.3200
 1.0360	71.1400
 1.0400	70.9700
 1.0440	70.6300
 1.0480	70.4700
 1.0520	70.2200
 1.0560	70.0200
 1.0600	69.8400
 1.0640	69.6400
 1.0680	69.3300
 1.0720	69.1900
 1.0760	68.9600
 1.0800	68.7500
 1.0840	68.6000
 1.0880	68.3700
 1.0920	68.1100
 1.0960	67.9600
 1.1000	67.7900
 1.1040	67.5000
 1.1080	67.4100
 1.1120	67.1400
 1.1160	66.9900
 1.1200	66.8000
 1.1240	66.5700
 1.1280	66.3600
 1.1320	66.1400
 1.1360	65.9800
 1.1400	65.7400
 1.1440	65.4900
 1.1480	65.3400
 1.1520	65.1200
 1.1560	64.9300
 1.1600	64.8000
 1.1640	64.7500
 1.1680	64.4800
 1.1720	64.3900
 1.1760	64.3000
 1.1800	64.0500
 1.1840	63.8800
 1.1880	63.7600
 1.1920	63.7400
 1.1960	63.6600
 1.2000	63.5500
 1.2040	63.4800
 1.2080	63.3600
 1.2120	63.2600
 1.2160	63.1600
 1.2200	63.0300
 1.2240	62.9300
 1.2280	62.8700
 1.2320	62.7300
 1.2360	62.8100
 1.2400	62.6300
 1.2440	62.7300
 1.2480	62.5500
 1.2520	62.5500
 1.2560	62.4600
 1.2600	62.5400
 1.2640	62.5500
 1.2680	62.5800
 1.2720	62.5400
 1.2760	62.5600
 1.2800	62.4900
 1.2840	62.5400
 1.2880	62.4800
 1.2920	62.4200
 1.2960	62.3700
 1.3000	62.3900
 1.3040	62.4400
 1.3080	62.4500
 1.3120	62.5100
 1.3160	62.5500
 1.3200	62.6300
 1.3240	62.6400
 1.3280	62.7400
 1.3320	62.8400
 1.3360	62.9000
 1.3400	62.9100
 1.3440	62.9200
 1.3480	63.0300
 1.3520	63.1500
 1.3560	63.2500
 1.3600	63.3500
 1.3640	63.2900
 1.3680	63.3400
 1.3720	63.3500
 1.3760	63.3100
 1.3800	63.2300
 1.3840	63.0700
 1.3880	62.7500
 1.3920	62.4200
 1.3960	62.0600
 1.4000	61.7400
 1.4040	61.6700
 1.4080	61.9400
 1.4120	62.5400
 1.4160	63.1900
 1.4200	63.7300
 1.4240	64.1800
 1.4280	64.5100
 1.4320	64.7000
 1.4360	64.9400
 1.4400	65.1500
 1.4440	65.3800
 1.4480	65.5200
 1.4520	65.6500
 1.4560	65.8200
 1.4600	66.0100
 1.4640	66.2100
 1.4680	66.4400
 1.4720	66.6100
 1.4760	66.8500
 1.4800	67.0600
 1.4840	67.2600
 1.4880	67.4900
 1.4920	67.6200
 1.4960	67.8900
 1.5000	67.8700
 1.5040	68.1300
 1.5080	68.3900
 1.5120	68.5400
 1.5160	68.7700
 1.5200	68.8700
 1.5240	69.1200
 1.5280	69.2400
 1.5320	69.3500
 1.5360	69.4900
 1.5400	69.6500
 1.5440	69.8000
 1.5480	69.8700
 1.5520	70.0600
 1.5560	70.1600
 1.5600	70.3700
 1.5640	70.5500
 1.5680	70.6500
 1.5720	70.7400
 1.5760	70.8000
 1.5800	70.9700
 1.5840	71.0400
 1.5880	71.0700
 1.5920	71.1700
 1.5960	71.3500
 1.6000	71.4800
 1.6040	71.5400
 1.6080	71.6000
 1.6120	71.7500
 1.6160	71.7800
 1.6200	71.9600
 1.6240	72.0700
 1.6280	72.1700
 1.6320	72.2500
 1.6360	72.3500
 1.6400	72.3700
 1.6440	72.4600
 1.6480	72.4800
 1.6520	72.5100
 1.6560	72.4800
 1.6600	72.5900
 1.6640	72.6700
 1.6680	72.7100
 1.6720	72.8200
 1.6760	72.9100
 1.6800	72.9500
 1.6840	73.0200
 1.6880	72.9700
 1.6920	73.1100
 1.6960	73.0800
 1.7000	73.0900
 1.7040	73.1400
 1.7080	73.1700
 1.7120	73.2000
 1.7160	73.2700
 1.7200	73.2700
 1.7240	73.3700
 1.7280	73.4200
 1.7320	73.4600
 1.7360	73.4600
 1.7400	73.4300
 1.7440	73.4300
 1.7480	73.3400
 1.7520	73.3600
 1.7560	73.3900
 1.7600	73.4100
 1.7640	73.4500
 1.7680	73.4900
 1.7720	73.6100
 1.7760	73.5900
 1.7800	73.6900
 1.7840	73.7100
 1.7880	73.6700
 1.7920	73.7700
 1.7960	73.7900
 1.8000	73.8700
 1.8040	73.8500
 1.8080	73.8100
 1.8120	73.8700
 1.8160	73.9000
 1.8200	73.9500
 1.8240	73.9300
 1.8280	73.9300
 1.8320	73.9600
 1.8360	73.9000
 1.8400	73.9600
 1.8440	74.0000
 1.8480	74.0500
 1.8520	74.0700
 1.8560	73.9600
 1.8600	73.9200
 1.8640	73.8600
 1.8680	73.6600
 1.8720	73.3400
 1.8760	73.0500
 1.8800	72.5900
 1.8840	71.9800
 1.8880	71.3800
 1.8920	70.6900
 1.8960	69.9700
 1.9000	69.4000
 1.9040	69.0700
 1.9080	68.9200
 1.9120	68.8900
 1.9160	69.0600
 1.9200	69.3300
 1.9240	69.5200
 1.9280	69.7400
 1.9320	70.1000
 1.9360	70.3400
 1.9400	70.4900
 1.9440	70.7800
 1.9480	70.8800
 1.9520	71.0900
 1.9560	71.2500
 1.9600	71.4400
 1.9640	71.5800
 1.9680	71.7500
 1.9720	71.9700
 1.9760	72.1700
 1.9800	72.2900
 1.9840	72.4600
 1.9880	72.6700
 1.9920	72.9500
 1.9960	73.1200
 2.0000	73.3400
 2.0040	73.4100
 2.0080	73.6200
 2.0120	73.7500
 2.0160	73.9300
 2.0200	74.1700
 2.0240	74.2600
 2.0280	74.4400
 2.0320	74.6600
 2.0360	74.6600
 2.0400	74.7700
 2.0440	74.8200
 2.0480	74.8500
 2.0520	74.9400
 2.0560	75.0400
 2.0600	75.0500
 2.0640	75.0600
 2.0680	75.1800
 2.0720	75.2800
 2.0760	75.3600
 2.0800	75.3900
 2.0840	75.4300
 2.0880	75.4800
 2.0920	75.4000
 2.0960	75.5200
 2.1000	75.5500
 2.1040	75.4900
 2.1080	75.5500
 2.1120	75.6800
 2.1160	75.6800
 2.1200	75.7200
 2.1240	75.6200
 2.1280	75.6600
 2.1320	75.5700
 2.1360	75.5600
 2.1400	75.4000
 2.1440	75.1900
 2.1480	74.9900
 2.1520	74.7600
 2.1560	74.3700
 2.1600	73.9400
 2.1640	73.4400
 2.1680	72.9600
 2.1720	72.3500
 2.1760	71.7500
 2.1800	71.1900
 2.1840	70.6200
 2.1880	70.3200
 2.1920	70.1300
 2.1960	70.1500
 2.2000	70.3600
 2.2040	70.6700
 2.2080	71.0800
 2.2120	71.5500
 2.2160	71.9900
 2.2200	72.4200
 2.2240	72.7600
 2.2280	73.0000
 2.2320	73.2600
 2.2360	73.4300
 2.2400	73.5400
 2.2440	73.6300
 2.2480	73.7400
 2.2520	73.9300
 2.2560	74.0100
 2.2600	74.0000
 2.2640	74.0800
 2.2680	74.1200
 2.2720	74.0700
 2.2760	74.0000
 2.2800	73.8800
 2.2840	73.7700
 2.2880	73.6100
 2.2920	73.4800
 2.2960	73.3400
 2.3000	73.0700
 2.3040	72.7000
 2.3080	72.4100
 2.3120	72.1300
 2.3160	71.8800
 2.3200	71.6400
 2.3240	71.3900
 2.3280	71.2100
 2.3320	71.0500
 2.3360	70.8400
 2.3400	70.6700
 2.3440	70.6500
 2.3480	70.5300
 2.3520	70.5900
 2.3560	70.5100
 2.3600	70.5600
 2.3640	70.6400
 2.3680	70.5900
 2.3720	70.5700
 2.3760	70.4900
 2.3800	70.3700
 2.3840	70.2400
 2.3880	70.1600
 2.3920	70.0100
 2.3960	69.9300
 2.4000	69.8300
 2.4040	69.5800
 2.4080	69.3400
 2.4120	69.1300
 2.4160	68.8100
 2.4200	68.5400
 2.4240	68.3900
 2.4280	68.0700
 2.4320	68.0200
 2.4360	67.7600
 2.4400	67.6500
 2.4440	67.6100
 2.4480	67.5000
 2.4520	67.3900
 2.4560	67.4100
 2.4600	67.3600
 2.4640	67.3100
 2.4680	67.1700
 2.4720	67.2000
 2.4760	67.2400
 2.4800	67.3500
 2.4840	67.4000
 2.4880	67.3700
 2.4920	67.4900
 2.4960	67.5000
 2.5000	67.5700
