Name: Fayalite Fe_2SiO_4
Type: Mineral
Class: Silicate
Subclass: Nesosilicate
Particle Size: Medium
Sample No.: NS-1A
Owner: JPL
Wavelength Range: VSWIR
Origin: 
Collection Date: N/A
Description: Particle size was 45-125um.Collected by JPL Original ASTER Spectral Library name was jpl.beckman.mineral.silicate.nesosilicate.medium.ns01a.spectrum.txt
Measurement: Hemispherical reflectance
First Column: X
Second Column: Y
X Units: Wavelength (micrometers)
Y Units:Reflectance (percent)
First X Value:  0.4000
Last X Value:  2.5000
Number of X Values: 826
Additional Information: mineral.silicate.nesosilicate.medium.vswir.ns-1a.jpl.beckman.ancillary.txt

 0.4000	 4.1400
 0.4010	 4.3200
 0.4020	 4.3100
 0.4030	 4.1900
 0.4040	 4.2600
 0.4050	 4.2500
 0.4060	 4.1800
 0.4070	 4.1200
 0.4080	 4.4300
 0.4090	 4.3000
 0.4100	 4.3600
 0.4110	 4.4300
 0.4120	 4.4300
 0.4130	 4.4300
 0.4140	 4.4800
 0.4150	 4.4800
 0.4160	 4.4300
 0.4170	 4.4300
 0.4180	 4.5400
 0.4190	 4.4200
 0.4200	 4.5400
 0.4210	 4.4900
 0.4220	 4.5500
 0.4230	 4.4800
 0.4240	 4.4700
 0.4250	 4.5300
 0.4260	 4.5300
 0.4270	 4.5900
 0.4280	 4.7200
 0.4290	 4.7300
 0.4300	 4.6700
 0.4310	 4.6600
 0.4320	 4.7100
 0.4330	 4.6600
 0.4340	 4.6500
 0.4350	 4.7800
 0.4360	 4.6600
 0.4370	 4.6500
 0.4380	 4.8500
 0.4390	 4.7800
 0.4400	 4.8400
 0.4410	 4.8900
 0.4420	 4.8200
 0.4430	 4.8700
 0.4440	 4.8800
 0.4450	 4.9400
 0.4460	 4.8700
 0.4470	 4.8700
 0.4480	 4.8900
 0.4490	 4.8900
 0.4500	 4.8900
 0.4510	 4.8400
 0.4520	 4.8900
 0.4530	 4.8900
 0.4540	 5.0100
 0.4550	 5.1200
 0.4560	 4.9900
 0.4570	 5.0400
 0.4580	 5.0300
 0.4590	 5.0200
 0.4600	 4.9500
 0.4610	 5.1100
 0.4620	 5.0000
 0.4630	 5.0000
 0.4640	 5.0000
 0.4650	 5.1300
 0.4660	 5.1400
 0.4670	 5.1900
 0.4680	 5.2000
 0.4690	 5.2000
 0.4700	 5.1300
 0.4710	 5.1300
 0.4720	 5.1900
 0.4730	 5.1800
 0.4740	 5.1800
 0.4750	 5.1300
 0.4760	 5.0600
 0.4770	 5.1200
 0.4780	 5.1900
 0.4790	 5.1800
 0.4800	 5.2300
 0.4810	 5.2900
 0.4820	 5.4100
 0.4830	 5.4100
 0.4840	 5.2900
 0.4850	 5.2800
 0.4860	 5.3300
 0.4870	 5.3100
 0.4880	 5.4200
 0.4890	 5.4900
 0.4900	 5.4900
 0.4910	 5.5400
 0.4920	 5.5300
 0.4930	 5.5800
 0.4940	 5.6200
 0.4950	 5.6700
 0.4960	 5.7100
 0.4970	 5.7600
 0.4980	 5.7100
 0.4990	 5.7100
 0.5000	 5.7600
 0.5010	 5.7600
 0.5020	 5.6900
 0.5030	 5.7400
 0.5040	 5.8500
 0.5050	 5.9700
 0.5060	 5.9800
 0.5070	 5.8600
 0.5080	 5.8700
 0.5090	 5.8100
 0.5100	 5.7000
 0.5110	 5.7500
 0.5120	 5.7400
 0.5130	 5.8500
 0.5140	 5.9100
 0.5150	 5.9800
 0.5160	 6.1000
 0.5170	 6.0800
 0.5180	 6.1300
 0.5190	 6.2500
 0.5200	 6.3600
 0.5210	 6.2900
 0.5220	 6.3400
 0.5230	 6.3400
 0.5240	 6.3900
 0.5250	 6.3300
 0.5260	 6.3900
 0.5270	 6.5000
 0.5280	 6.5700
 0.5290	 6.6900
 0.5300	 6.6900
 0.5310	 6.6000
 0.5320	 6.6600
 0.5330	 6.6800
 0.5340	 6.6600
 0.5350	 6.6400
 0.5360	 6.7100
 0.5370	 6.7300
 0.5380	 6.8700
 0.5390	 6.8800
 0.5400	 6.9400
 0.5410	 6.8800
 0.5420	 6.9300
 0.5430	 6.8600
 0.5440	 6.9900
 0.5450	 7.0300
 0.5460	 6.9600
 0.5470	 6.9500
 0.5480	 6.9300
 0.5490	 6.9500
 0.5500	 6.9100
 0.5510	 6.8900
 0.5520	 6.8800
 0.5530	 7.0000
 0.5540	 7.0700
 0.5550	 7.1400
 0.5560	 7.1400
 0.5570	 7.1500
 0.5580	 7.1800
 0.5590	 7.2700
 0.5600	 7.2400
 0.5610	 7.2700
 0.5620	 7.4500
 0.5630	 7.4500
 0.5640	 7.4400
 0.5650	 7.6100
 0.5660	 7.6300
 0.5670	 7.5200
 0.5680	 7.6400
 0.5690	 7.6400
 0.5700	 7.5700
 0.5710	 7.5100
 0.5720	 7.6200
 0.5730	 7.5400
 0.5740	 7.5100
 0.5750	 7.6300
 0.5760	 7.5500
 0.5770	 7.5200
 0.5780	 7.5800
 0.5790	 7.5900
 0.5800	 7.5900
 0.5810	 7.6500
 0.5820	 7.7600
 0.5830	 7.6500
 0.5840	 7.7000
 0.5850	 7.6400
 0.5860	 7.5800
 0.5870	 7.5300
 0.5880	 7.5200
 0.5890	 7.4600
 0.5900	 7.6300
 0.5910	 7.6400
 0.5920	 7.6500
 0.5930	 7.7200
 0.5940	 7.7200
 0.5950	 7.6400
 0.5960	 7.7000
 0.5970	 7.5700
 0.5980	 7.6100
 0.5990	 7.6800
 0.6000	 7.6300
 0.6010	 7.7000
 0.6020	 7.7300
 0.6030	 7.6500
 0.6040	 7.6400
 0.6050	 7.6900
 0.6060	 7.7500
 0.6070	 7.7500
 0.6080	 7.7900
 0.6090	 7.8400
 0.6100	 7.8300
 0.6110	 7.7500
 0.6120	 7.7600
 0.6130	 7.6400
 0.6140	 7.5400
 0.6150	 7.5800
 0.6160	 7.6300
 0.6170	 7.7000
 0.6180	 7.6500
 0.6190	 7.7800
 0.6200	 7.7300
 0.6210	 7.5900
 0.6220	 7.7000
 0.6230	 7.7400
 0.6240	 7.6300
 0.6250	 7.6500
 0.6260	 7.6400
 0.6270	 7.6300
 0.6280	 7.6400
 0.6290	 7.7500
 0.6300	 7.7100
 0.6310	 7.7200
 0.6320	 7.8400
 0.6330	 7.8800
 0.6340	 7.8600
 0.6350	 7.8700
 0.6360	 7.9400
 0.6370	 7.8900
 0.6380	 7.9400
 0.6390	 7.8800
 0.6400	 7.8700
 0.6410	 7.8100
 0.6420	 7.8200
 0.6430	 7.9600
 0.6440	 7.8900
 0.6450	 7.8800
 0.6460	 7.8200
 0.6470	 7.8700
 0.6480	 7.7000
 0.6490	 7.7600
 0.6500	 7.7000
 0.6510	 7.7000
 0.6520	 7.6800
 0.6530	 7.7000
 0.6540	 7.7000
 0.6550	 7.7200
 0.6560	 7.6800
 0.6570	 7.5600
 0.6580	 7.6800
 0.6590	 7.7100
 0.6600	 7.7000
 0.6610	 7.7500
 0.6620	 7.8200
 0.6630	 7.8100
 0.6640	 7.7000
 0.6650	 7.6900
 0.6660	 7.6900
 0.6670	 7.5800
 0.6680	 7.6000
 0.6690	 7.7200
 0.6700	 7.6500
 0.6710	 7.7500
 0.6720	 7.7400
 0.6730	 7.8100
 0.6740	 7.6300
 0.6750	 7.7000
 0.6760	 7.6400
 0.6770	 7.6400
 0.6780	 7.6300
 0.6790	 7.6900
 0.6800	 7.6400
 0.6810	 7.7000
 0.6820	 7.6500
 0.6830	 7.5800
 0.6840	 7.6900
 0.6850	 7.7300
 0.6860	 7.7400
 0.6870	 7.7500
 0.6880	 7.7400
 0.6890	 7.7300
 0.6900	 7.7300
 0.6910	 7.6800
 0.6920	 7.6400
 0.6930	 7.5300
 0.6940	 7.5900
 0.6950	 7.7000
 0.6960	 7.6900
 0.6970	 7.7700
 0.6980	 7.7100
 0.6990	 7.7200
 0.7000	 7.6000
 0.7010	 7.6300
 0.7020	 7.6500
 0.7030	 7.5800
 0.7040	 7.6200
 0.7050	 7.7200
 0.7060	 7.6800
 0.7070	 7.7400
 0.7080	 7.7400
 0.7090	 7.7300
 0.7100	 7.6900
 0.7110	 7.7400
 0.7120	 7.7600
 0.7130	 7.5800
 0.7140	 7.6300
 0.7150	 7.5700
 0.7160	 7.5000
 0.7170	 7.5800
 0.7180	 7.6300
 0.7190	 7.5700
 0.7200	 7.6400
 0.7210	 7.6800
 0.7220	 7.6200
 0.7230	 7.6400
 0.7240	 7.5800
 0.7250	 7.5200
 0.7260	 7.3900
 0.7270	 7.4500
 0.7280	 7.4900
 0.7290	 7.5100
 0.7300	 7.5600
 0.7310	 7.6700
 0.7320	 7.6100
 0.7330	 7.5800
 0.7340	 7.6500
 0.7350	 7.5800
 0.7360	 7.5600
 0.7370	 7.5700
 0.7380	 7.6100
 0.7390	 7.4500
 0.7400	 7.5600
 0.7410	 7.4500
 0.7420	 7.4000
 0.7430	 7.4200
 0.7440	 7.4200
 0.7450	 7.5000
 0.7460	 7.4400
 0.7470	 7.4500
 0.7480	 7.5000
 0.7490	 7.4500
 0.7500	 7.4500
 0.7510	 7.4500
 0.7520	 7.3400
 0.7530	 7.2800
 0.7540	 7.2800
 0.7550	 7.1500
 0.7560	 7.3200
 0.7570	 7.3400
 0.7580	 7.3400
 0.7590	 7.3900
 0.7600	 7.3900
 0.7610	 7.4000
 0.7620	 7.2900
 0.7630	 7.2800
 0.7640	 7.2700
 0.7650	 7.3100
 0.7660	 7.1500
 0.7670	 7.1900
 0.7680	 7.2500
 0.7690	 7.2000
 0.7700	 7.1000
 0.7710	 7.1700
 0.7720	 7.1600
 0.7730	 7.2000
 0.7740	 7.1900
 0.7750	 7.2600
 0.7760	 7.2600
 0.7770	 7.2100
 0.7780	 7.1500
 0.7790	 7.0400
 0.7800	 6.9900
 0.7810	 6.9700
 0.7820	 6.9600
 0.7830	 7.0800
 0.7840	 7.0300
 0.7850	 7.0800
 0.7860	 7.0700
 0.7870	 7.0700
 0.7880	 7.0300
 0.7890	 7.0300
 0.7900	 7.0200
 0.7910	 7.0200
 0.7920	 7.1800
 0.7930	 7.0700
 0.7940	 6.9700
 0.7950	 7.1300
 0.7960	 7.0700
 0.7970	 6.9600
 0.7980	 7.0400
 0.7990	 7.0000
 0.8000	 7.5000
 0.8040	 7.5200
 0.8080	 7.3900
 0.8120	 7.2200
 0.8160	 7.2000
 0.8200	 7.0800
 0.8240	 6.9600
 0.8280	 6.9500
 0.8320	 6.7900
 0.8360	 6.7400
 0.8400	 6.6000
 0.8440	 6.5100
 0.8480	 6.3800
 0.8520	 6.3400
 0.8560	 6.1500
 0.8600	 6.1000
 0.8640	 6.0400
 0.8680	 5.9300
 0.8720	 5.8000
 0.8760	 5.7700
 0.8800	 5.6400
 0.8840	 5.5100
 0.8880	 5.4100
 0.8920	 5.4100
 0.8960	 5.2800
 0.9000	 5.2400
 0.9040	 5.1700
 0.9080	 5.1100
 0.9120	 4.9900
 0.9160	 4.9900
 0.9200	 4.9900
 0.9240	 4.8100
 0.9280	 4.8700
 0.9320	 4.8200
 0.9360	 4.6900
 0.9400	 4.6400
 0.9440	 4.6300
 0.9480	 4.5100
 0.9520	 4.5300
 0.9560	 4.5700
 0.9600	 4.3900
 0.9640	 4.4000
 0.9680	 4.5600
 0.9720	 4.3900
 0.9760	 4.4000
 0.9800	 4.3300
 0.9840	 4.2600
 0.9880	 4.3200
 0.9920	 4.3300
 0.9960	 4.2400
 1.0000	 4.2900
 1.0040	 4.2100
 1.0080	 4.3200
 1.0120	 4.2500
 1.0160	 4.2700
 1.0200	 4.3300
 1.0240	 4.2200
 1.0280	 4.2900
 1.0320	 4.3700
 1.0360	 4.2100
 1.0400	 4.3000
 1.0440	 4.4500
 1.0480	 4.3900
 1.0520	 4.2700
 1.0560	 4.5000
 1.0600	 4.4900
 1.0640	 4.4900
 1.0680	 4.6100
 1.0720	 4.6700
 1.0760	 4.6500
 1.0800	 4.8300
 1.0840	 4.8700
 1.0880	 4.8500
 1.0920	 4.9300
 1.0960	 5.0700
 1.1000	 5.0700
 1.1040	 5.2000
 1.1080	 5.2700
 1.1120	 5.2600
 1.1160	 5.3200
 1.1200	 5.4800
 1.1240	 5.4900
 1.1280	 5.4900
 1.1320	 5.5700
 1.1360	 5.6800
 1.1400	 5.6400
 1.1440	 5.6700
 1.1480	 5.8000
 1.1520	 5.8000
 1.1560	 5.7800
 1.1600	 5.8500
 1.1640	 5.8700
 1.1680	 5.8600
 1.1720	 6.0300
 1.1760	 5.9700
 1.1800	 5.9500
 1.1840	 6.0600
 1.1880	 6.1200
 1.1920	 6.0400
 1.1960	 6.1600
 1.2000	 6.1500
 1.2040	 6.1400
 1.2080	 6.1400
 1.2120	 6.2800
 1.2160	 6.1700
 1.2200	 6.2700
 1.2240	 6.3700
 1.2280	 6.3100
 1.2320	 6.3600
 1.2360	 6.4500
 1.2400	 6.4300
 1.2440	 6.4100
 1.2480	 6.5100
 1.2520	 6.4400
 1.2560	 6.4400
 1.2600	 6.6500
 1.2640	 6.5500
 1.2680	 6.6200
 1.2720	 6.7500
 1.2760	 6.6500
 1.2800	 6.7300
 1.2840	 6.7900
 1.2880	 6.8200
 1.2920	 6.8000
 1.2960	 6.9100
 1.3000	 6.9000
 1.3040	 6.9500
 1.3080	 7.0000
 1.3120	 6.9600
 1.3160	 7.0300
 1.3200	 7.1000
 1.3240	 7.1500
 1.3280	 7.1600
 1.3320	 7.3000
 1.3360	 7.2400
 1.3400	 7.2900
 1.3440	 7.3900
 1.3480	 7.4000
 1.3520	 7.4300
 1.3560	 7.4900
 1.3600	 7.4700
 1.3640	 7.4800
 1.3680	 7.6000
 1.3720	 7.5700
 1.3760	 7.6500
 1.3800	 7.6800
 1.3840	 7.6900
 1.3880	 7.7000
 1.3920	 7.8700
 1.3960	 7.8300
 1.4000	 7.8300
 1.4040	 7.8900
 1.4080	 7.8100
 1.4120	 7.6800
 1.4160	 7.7900
 1.4200	 8.0200
 1.4240	 8.0900
 1.4280	 8.1700
 1.4320	 8.2300
 1.4360	 8.1800
 1.4400	 8.3400
 1.4440	 8.5000
 1.4480	 8.4200
 1.4520	 8.4900
 1.4560	 8.6100
 1.4600	 8.6700
 1.4640	 8.6200
 1.4680	 8.7000
 1.4720	 8.7800
 1.4760	 8.8600
 1.4800	 8.8200
 1.4840	 8.8800
 1.4880	 9.0600
 1.4920	 9.0100
 1.4960	 9.0700
 1.5000	 9.0700
 1.5040	 9.1800
 1.5080	 9.2400
 1.5120	 9.3700
 1.5160	 9.3400
 1.5200	 9.3900
 1.5240	 9.5500
 1.5280	 9.6100
 1.5320	 9.5800
 1.5360	 9.6700
 1.5400	 9.7800
 1.5440	 9.8000
 1.5480	 9.8200
 1.5520	 9.9400
 1.5560	 9.9700
 1.5600	10.0600
 1.5640	10.1200
 1.5680	10.2100
 1.5720	10.2600
 1.5760	10.2000
 1.5800	10.3100
 1.5840	10.4400
 1.5880	10.4700
 1.5920	10.5300
 1.5960	10.6100
 1.6000	10.6600
 1.6040	10.6800
 1.6080	10.7700
 1.6120	10.8700
 1.6160	10.9100
 1.6200	10.9200
 1.6240	11.0700
 1.6280	11.1000
 1.6320	11.1400
 1.6360	11.1400
 1.6400	11.2500
 1.6440	11.3600
 1.6480	11.2900
 1.6520	11.4300
 1.6560	11.4900
 1.6600	11.5000
 1.6640	11.5000
 1.6680	11.6000
 1.6720	11.7400
 1.6760	11.7100
 1.6800	11.7700
 1.6840	11.8500
 1.6880	11.7900
 1.6920	11.9500
 1.6960	12.0600
 1.7000	12.0800
 1.7040	12.0300
 1.7080	12.0700
 1.7120	12.2800
 1.7160	12.2000
 1.7200	12.2400
 1.7240	12.2700
 1.7280	12.4100
 1.7320	12.4000
 1.7360	12.3700
 1.7400	12.3900
 1.7440	12.5100
 1.7480	12.5000
 1.7520	12.5100
 1.7560	12.5200
 1.7600	12.6800
 1.7640	12.6700
 1.7680	12.6500
 1.7720	12.7200
 1.7760	12.7200
 1.7800	12.6700
 1.7840	12.7300
 1.7880	12.7700
 1.7920	12.8200
 1.7960	12.8800
 1.8000	12.9300
 1.8040	12.9000
 1.8080	12.9300
 1.8120	12.9400
 1.8160	12.9700
 1.8200	12.9500
 1.8240	13.0100
 1.8280	13.1000
 1.8320	13.0200
 1.8360	13.0100
 1.8400	13.1100
 1.8440	13.0400
 1.8480	13.0800
 1.8520	13.1200
 1.8560	13.1200
 1.8600	13.1400
 1.8640	13.1600
 1.8680	13.1300
 1.8720	13.1600
 1.8760	13.1000
 1.8800	13.2400
 1.8840	13.2400
 1.8880	13.1300
 1.8920	13.1800
 1.8960	13.1700
 1.9000	13.1200
 1.9040	13.1100
 1.9080	13.1700
 1.9120	13.1000
 1.9160	13.1000
 1.9200	13.2400
 1.9240	13.0900
 1.9280	13.1300
 1.9320	13.2000
 1.9360	13.1200
 1.9400	13.1300
 1.9440	13.2600
 1.9480	13.1700
 1.9520	13.1900
 1.9560	13.2200
 1.9600	13.2700
 1.9640	13.2200
 1.9680	13.2300
 1.9720	13.3100
 1.9760	13.2600
 1.9800	13.3500
 1.9840	13.3500
 1.9880	13.2700
 1.9920	13.2400
 1.9960	13.3600
 2.0000	13.3200
 2.0040	13.3300
 2.0080	13.3700
 2.0120	13.2600
 2.0160	13.3800
 2.0200	13.3900
 2.0240	13.2700
 2.0280	13.4100
 2.0320	13.3600
 2.0360	13.3500
 2.0400	13.4700
 2.0440	13.4000
 2.0480	13.4300
 2.0520	13.4400
 2.0560	13.3800
 2.0600	13.3300
 2.0640	13.4900
 2.0680	13.3500
 2.0720	13.3800
 2.0760	13.4200
 2.0800	13.3500
 2.0840	13.3900
 2.0880	13.4300
 2.0920	13.3400
 2.0960	13.3400
 2.1000	13.4000
 2.1040	13.3400
 2.1080	13.3400
 2.1120	13.3900
 2.1160	13.3300
 2.1200	13.2500
 2.1240	13.3500
 2.1280	13.3000
 2.1320	13.2700
 2.1360	13.3600
 2.1400	13.2400
 2.1440	13.2200
 2.1480	13.2900
 2.1520	13.1600
 2.1560	13.2400
 2.1600	13.2400
 2.1640	13.1700
 2.1680	13.2100
 2.1720	13.1900
 2.1760	13.0300
 2.1800	13.0900
 2.1840	13.1700
 2.1880	13.1000
 2.1920	13.0500
 2.1960	13.0300
 2.2000	13.0100
 2.2040	12.9600
 2.2080	13.0100
 2.2120	12.9500
 2.2160	12.9300
 2.2200	13.0100
 2.2240	12.9400
 2.2280	12.8700
 2.2320	12.8400
 2.2360	12.8800
 2.2400	12.8000
 2.2440	12.8100
 2.2480	12.7800
 2.2520	12.7600
 2.2560	12.6600
 2.2600	12.6300
 2.2640	12.6700
 2.2680	12.6200
 2.2720	12.5200
 2.2760	12.6000
 2.2800	12.5200
 2.2840	12.4400
 2.2880	12.4300
 2.2920	12.4500
 2.2960	12.3200
 2.3000	12.2800
 2.3040	12.3200
 2.3080	12.1800
 2.3120	12.1500
 2.3160	12.1800
 2.3200	12.1000
 2.3240	12.1000
 2.3280	12.0600
 2.3320	12.0600
 2.3360	11.9500
 2.3400	11.9100
 2.3440	12.0000
 2.3480	12.0000
 2.3520	11.9200
 2.3560	12.0600
 2.3600	12.1200
 2.3640	11.9900
 2.3680	11.9700
 2.3720	12.0600
 2.3760	11.9700
 2.3800	11.9700
 2.3840	12.0600
 2.3880	12.0200
 2.3920	11.9300
 2.3960	11.9600
 2.4000	12.0000
 2.4040	11.8600
 2.4080	11.9300
 2.4120	11.8400
 2.4160	11.7800
 2.4200	11.8200
 2.4240	11.8700
 2.4280	11.8200
 2.4320	11.7300
 2.4360	11.8200
 2.4400	11.7700
 2.4440	11.7000
 2.4480	11.7300
 2.4520	11.7000
 2.4560	11.7300
 2.4600	11.7900
 2.4640	11.7200
 2.4680	11.6300
 2.4720	11.6900
 2.4760	11.6600
 2.4800	11.5700
 2.4840	11.7200
 2.4880	11.5800
 2.4920	11.6200
 2.4960	11.6700
 2.5000	11.6400
