Name: Amblygonite (Li,Na)Al(PO_4)(F,OH)
Type: Mineral
Class: Phosphate
Subclass: None
Particle Size: Coarse
Sample No.: P-3A
Owner: JPL
Wavelength Range: VSWIR
Origin: USA, California, San Diego County, Pala.
Collection Date: N/A
Description: Particle size was 125-500um.Collected by:  Burminco Original ASTER Spectral Library name was jpl.perkin.mineral.phosphate.none.coarse.p03a.spectrum.txt
Measurement: Hemispherical reflectance
First Column: X
Second Column: Y
X Units: Wavelength (micrometers)
Y Units:Reflectance (percent)
First X Value:  2.5000
Last X Value:  0.4000
Number of X Values: 2101
Additional Information: mineral.phosphate.none.coarse.vswir.p-3a.jpl.perkin.ancillary.txt

 2.5000	20.7262
 2.4990	20.6924
 2.4980	21.3462
 2.4970	21.2315
 2.4960	21.1487
 2.4950	21.4438
 2.4940	21.5809
 2.4930	21.5847
 2.4920	21.9359
 2.4910	21.7733
 2.4900	22.0498
 2.4890	21.9727
 2.4880	22.4895
 2.4870	22.4430
 2.4860	22.6811
 2.4850	22.7667
 2.4840	23.0738
 2.4830	23.1729
 2.4820	23.3357
 2.4810	23.4701
 2.4800	23.9128
 2.4790	23.8602
 2.4780	24.1840
 2.4770	24.2075
 2.4760	24.6174
 2.4750	24.7459
 2.4740	24.9290
 2.4730	25.1027
 2.4720	25.3496
 2.4710	25.4682
 2.4700	25.9796
 2.4690	26.0102
 2.4680	26.3734
 2.4670	26.5476
 2.4660	26.9475
 2.4650	27.2024
 2.4640	27.5546
 2.4630	27.7298
 2.4620	28.0305
 2.4610	28.2387
 2.4600	28.6101
 2.4590	28.7565
 2.4580	29.1519
 2.4570	29.3429
 2.4560	29.7091
 2.4550	29.8295
 2.4540	30.2049
 2.4530	30.4479
 2.4520	30.7658
 2.4510	30.8287
 2.4500	31.2286
 2.4490	31.4963
 2.4480	31.7488
 2.4470	31.9266
 2.4460	32.2018
 2.4450	32.3216
 2.4440	32.6148
 2.4430	32.8572
 2.4420	33.0870
 2.4410	33.2254
 2.4400	33.4497
 2.4390	33.6339
 2.4380	33.7575
 2.4370	33.7590
 2.4360	34.0749
 2.4350	34.0692
 2.4340	34.2355
 2.4330	34.3717
 2.4320	34.5274
 2.4310	34.5219
 2.4300	34.5882
 2.4290	34.6856
 2.4280	34.7688
 2.4270	34.7214
 2.4260	34.8185
 2.4250	34.7678
 2.4240	34.8678
 2.4230	34.7398
 2.4220	34.7413
 2.4210	34.7719
 2.4200	34.7567
 2.4190	34.5545
 2.4180	34.5420
 2.4170	34.3971
 2.4160	34.3058
 2.4150	34.1782
 2.4140	34.1294
 2.4130	33.8456
 2.4120	33.7025
 2.4110	33.4775
 2.4100	33.2953
 2.4090	32.9952
 2.4080	32.6660
 2.4070	32.3633
 2.4060	32.0097
 2.4050	31.5518
 2.4040	31.1489
 2.4030	30.6592
 2.4020	30.1941
 2.4010	29.6539
 2.4000	29.0630
 2.3990	28.4379
 2.3980	27.8218
 2.3970	27.1279
 2.3960	26.4381
 2.3950	25.6636
 2.3940	24.9749
 2.3930	24.1950
 2.3920	23.3733
 2.3910	22.5362
 2.3900	21.7990
 2.3890	20.9656
 2.3880	20.2937
 2.3870	19.5681
 2.3860	18.8345
 2.3850	18.1637
 2.3840	17.5946
 2.3830	17.0192
 2.3820	16.5288
 2.3810	16.0493
 2.3800	15.6035
 2.3790	15.2253
 2.3780	14.9794
 2.3770	14.8084
 2.3760	14.6704
 2.3750	14.5396
 2.3740	14.5778
 2.3730	14.7027
 2.3720	14.8398
 2.3710	15.0003
 2.3700	15.3287
 2.3690	15.6621
 2.3680	16.0969
 2.3670	16.6245
 2.3660	17.1611
 2.3650	17.8191
 2.3640	18.5681
 2.3630	19.3344
 2.3620	20.1570
 2.3610	21.0937
 2.3600	22.0729
 2.3590	23.0039
 2.3580	23.9914
 2.3570	25.0839
 2.3560	26.2128
 2.3550	27.2533
 2.3540	28.3808
 2.3530	29.4671
 2.3520	30.4861
 2.3510	31.5397
 2.3500	32.5629
 2.3490	33.5887
 2.3480	34.5758
 2.3470	35.4850
 2.3460	36.3286
 2.3450	37.1021
 2.3440	37.8798
 2.3430	38.6079
 2.3420	39.1739
 2.3410	39.7932
 2.3400	40.3417
 2.3390	40.8165
 2.3380	41.2395
 2.3370	41.6540
 2.3360	41.9915
 2.3350	42.2786
 2.3340	42.5598
 2.3330	42.7794
 2.3320	42.9470
 2.3310	43.1035
 2.3300	43.2293
 2.3290	43.3853
 2.3280	43.4769
 2.3270	43.5219
 2.3260	43.5724
 2.3250	43.7068
 2.3240	43.7016
 2.3230	43.6455
 2.3220	43.6176
 2.3210	43.6249
 2.3200	43.5701
 2.3190	43.5604
 2.3180	43.4985
 2.3170	43.4457
 2.3160	43.3913
 2.3150	43.3897
 2.3140	43.2473
 2.3130	43.1737
 2.3120	43.0049
 2.3110	42.8314
 2.3100	42.7450
 2.3090	42.6458
 2.3080	42.4540
 2.3070	42.3271
 2.3060	42.1509
 2.3050	42.0446
 2.3040	41.8407
 2.3030	41.6433
 2.3020	41.4668
 2.3010	41.2718
 2.3000	41.0567
 2.2990	40.9420
 2.2980	40.7390
 2.2970	40.5227
 2.2960	40.2753
 2.2950	40.1167
 2.2940	39.8699
 2.2930	39.7564
 2.2920	39.4844
 2.2910	39.3313
 2.2900	39.0745
 2.2890	38.8540
 2.2880	38.6843
 2.2870	38.5102
 2.2860	38.2386
 2.2850	38.1391
 2.2840	37.9364
 2.2830	37.7643
 2.2820	37.4858
 2.2810	37.4309
 2.2800	37.1952
 2.2790	37.1327
 2.2780	36.8937
 2.2770	36.7370
 2.2760	36.5333
 2.2750	36.4485
 2.2740	36.2655
 2.2730	36.1807
 2.2720	35.9903
 2.2710	35.8676
 2.2700	35.7331
 2.2690	35.6068
 2.2680	35.4297
 2.2670	35.3522
 2.2660	35.1801
 2.2650	35.1170
 2.2640	34.9100
 2.2630	34.8640
 2.2620	34.6193
 2.2610	34.5568
 2.2600	34.3368
 2.2590	34.1909
 2.2580	34.0094
 2.2570	33.8048
 2.2560	33.5858
 2.2550	33.4515
 2.2540	33.2947
 2.2530	33.1749
 2.2520	32.7868
 2.2510	32.6384
 2.2500	32.4476
 2.2490	32.2397
 2.2480	31.8868
 2.2470	31.7937
 2.2460	31.4354
 2.2450	31.2413
 2.2440	30.8919
 2.2430	30.7349
 2.2420	30.3951
 2.2410	30.2210
 2.2400	29.8778
 2.2390	29.6843
 2.2380	29.3163
 2.2370	29.1585
 2.2360	28.8662
 2.2350	28.5868
 2.2340	28.2508
 2.2330	28.0747
 2.2320	27.8095
 2.2310	27.4246
 2.2300	27.1339
 2.2290	26.9593
 2.2280	26.5600
 2.2270	26.3442
 2.2260	26.0296
 2.2250	25.8440
 2.2240	25.4307
 2.2230	25.1782
 2.2220	24.8462
 2.2210	24.5930
 2.2200	24.2749
 2.2190	23.9565
 2.2180	23.4939
 2.2170	23.2428
 2.2160	22.8888
 2.2150	22.5095
 2.2140	22.1244
 2.2130	21.7623
 2.2120	21.4294
 2.2110	20.9086
 2.2100	20.5431
 2.2090	20.2787
 2.2080	19.7195
 2.2070	19.4778
 2.2060	18.9281
 2.2050	18.6529
 2.2040	18.1475
 2.2030	17.8746
 2.2020	17.4364
 2.2010	17.1085
 2.2000	16.6188
 2.1990	16.3888
 2.1980	15.9624
 2.1970	15.7322
 2.1960	15.2544
 2.1950	15.0549
 2.1940	14.5937
 2.1930	14.4500
 2.1920	13.8995
 2.1910	13.8093
 2.1900	13.3694
 2.1890	13.1579
 2.1880	12.9356
 2.1870	12.7372
 2.1860	12.3811
 2.1850	12.2759
 2.1840	11.9686
 2.1830	11.9376
 2.1820	11.6182
 2.1810	11.5392
 2.1800	11.3899
 2.1790	11.3756
 2.1780	11.2553
 2.1770	11.3896
 2.1760	11.3673
 2.1750	11.5394
 2.1740	11.6510
 2.1730	11.9975
 2.1720	12.2138
 2.1710	12.6832
 2.1700	13.1544
 2.1690	13.8575
 2.1680	14.4317
 2.1670	15.3243
 2.1660	16.1674
 2.1650	17.2319
 2.1640	18.3056
 2.1630	19.5120
 2.1620	20.7173
 2.1610	22.0151
 2.1600	23.2769
 2.1590	24.7138
 2.1580	25.9821
 2.1570	27.3116
 2.1560	28.6160
 2.1550	29.9332
 2.1540	31.1568
 2.1530	32.4741
 2.1520	33.4532
 2.1510	34.5843
 2.1500	35.4510
 2.1490	36.3596
 2.1480	37.1901
 2.1470	37.9356
 2.1460	38.5753
 2.1450	39.2186
 2.1440	39.7402
 2.1430	40.2954
 2.1420	40.6112
 2.1410	41.0656
 2.1400	41.4246
 2.1390	41.7569
 2.1380	41.9908
 2.1370	42.2510
 2.1360	42.4766
 2.1350	42.6501
 2.1340	42.8411
 2.1330	42.9776
 2.1320	43.1746
 2.1310	43.3366
 2.1300	43.4451
 2.1290	43.6239
 2.1280	43.7652
 2.1270	43.9650
 2.1260	44.0505
 2.1250	44.2322
 2.1240	44.3721
 2.1230	44.5244
 2.1220	44.6698
 2.1210	44.8246
 2.1200	44.9632
 2.1190	45.1630
 2.1180	45.3040
 2.1170	45.4967
 2.1160	45.6456
 2.1150	45.8328
 2.1140	45.9577
 2.1130	46.1586
 2.1120	46.3348
 2.1110	46.5014
 2.1100	46.6534
 2.1090	46.8449
 2.1080	47.0221
 2.1070	47.1850
 2.1060	47.3635
 2.1050	47.4900
 2.1040	47.5998
 2.1030	47.8020
 2.1020	47.9600
 2.1010	48.0751
 2.1000	48.1803
 2.0990	48.2867
 2.0980	48.4510
 2.0970	48.5432
 2.0960	48.6584
 2.0950	48.7647
 2.0940	48.8422
 2.0930	48.9653
 2.0920	49.0136
 2.0910	49.0202
 2.0900	49.0654
 2.0890	49.0730
 2.0880	49.0410
 2.0870	49.0704
 2.0860	49.0817
 2.0850	49.0747
 2.0840	48.9599
 2.0830	48.8707
 2.0820	48.8376
 2.0810	48.7999
 2.0800	48.7092
 2.0790	48.6449
 2.0780	48.5867
 2.0770	48.4968
 2.0760	48.4053
 2.0750	48.3032
 2.0740	48.2539
 2.0730	48.1949
 2.0720	48.1257
 2.0710	48.0849
 2.0700	48.0089
 2.0690	47.9378
 2.0680	47.9259
 2.0670	47.8877
 2.0660	47.8854
 2.0650	47.9200
 2.0640	47.9188
 2.0630	47.9276
 2.0620	47.9384
 2.0610	47.9160
 2.0600	47.9979
 2.0590	48.0289
 2.0580	48.0382
 2.0570	48.1316
 2.0560	48.2336
 2.0550	48.3112
 2.0540	48.4147
 2.0530	48.4677
 2.0520	48.5966
 2.0510	48.6976
 2.0500	48.8296
 2.0490	48.9390
 2.0480	49.0935
 2.0470	49.2785
 2.0460	49.4433
 2.0450	49.5886
 2.0440	49.7982
 2.0430	49.9640
 2.0420	50.1338
 2.0410	50.2585
 2.0400	50.4055
 2.0390	50.5506
 2.0380	50.7436
 2.0370	50.8915
 2.0360	51.1048
 2.0350	51.2541
 2.0340	51.4087
 2.0330	51.5216
 2.0320	51.5813
 2.0310	51.6830
 2.0300	51.7668
 2.0290	51.7722
 2.0280	51.7889
 2.0270	51.8638
 2.0260	51.8813
 2.0250	51.8404
 2.0240	51.8368
 2.0230	51.6971
 2.0220	51.6375
 2.0210	51.4535
 2.0200	51.2610
 2.0190	51.0649
 2.0180	50.8952
 2.0170	50.5841
 2.0160	50.2324
 2.0150	49.7934
 2.0140	49.3506
 2.0130	48.8709
 2.0120	48.3226
 2.0110	47.6867
 2.0100	47.0412
 2.0090	46.2472
 2.0080	45.4787
 2.0070	44.5522
 2.0060	43.6346
 2.0050	42.5906
 2.0040	41.6542
 2.0030	40.6140
 2.0020	39.6671
 2.0010	38.7210
 2.0000	37.9272
 1.9990	37.1750
 1.9980	36.5747
 1.9970	36.0998
 1.9960	35.8054
 1.9950	35.6586
 1.9940	35.7226
 1.9930	35.8159
 1.9920	36.1688
 1.9910	36.6117
 1.9900	37.2830
 1.9890	37.9162
 1.9880	38.8011
 1.9870	39.6622
 1.9860	40.5286
 1.9850	41.5056
 1.9840	42.6311
 1.9830	43.5770
 1.9820	44.6230
 1.9810	45.5910
 1.9800	46.5366
 1.9790	47.4371
 1.9780	48.3718
 1.9770	49.1744
 1.9760	49.8734
 1.9750	50.5321
 1.9740	51.2172
 1.9730	51.7289
 1.9720	52.2693
 1.9710	52.6874
 1.9700	53.1730
 1.9690	53.5372
 1.9680	53.9148
 1.9670	54.1206
 1.9660	54.4729
 1.9650	54.6913
 1.9640	54.9708
 1.9630	55.1166
 1.9620	55.3981
 1.9610	55.4611
 1.9600	55.5936
 1.9590	55.8107
 1.9580	55.8846
 1.9570	55.9237
 1.9560	56.0366
 1.9550	56.1316
 1.9540	56.2465
 1.9530	56.2767
 1.9520	56.3500
 1.9510	56.2458
 1.9500	56.4133
 1.9490	56.4300
 1.9480	56.5428
 1.9470	56.5364
 1.9460	56.5357
 1.9450	56.5960
 1.9440	56.5483
 1.9430	56.5866
 1.9420	56.6497
 1.9410	56.5508
 1.9400	56.6946
 1.9390	56.5512
 1.9380	56.6980
 1.9370	56.6323
 1.9360	56.6481
 1.9350	56.6130
 1.9340	56.6445
 1.9330	56.6498
 1.9320	56.6995
 1.9310	56.7708
 1.9300	56.7709
 1.9290	56.6899
 1.9280	56.7040
 1.9270	56.6337
 1.9260	56.5251
 1.9250	56.6403
 1.9240	56.6147
 1.9230	56.5274
 1.9220	56.4934
 1.9210	56.4576
 1.9200	56.5639
 1.9190	56.3447
 1.9180	56.4226
 1.9170	56.3848
 1.9160	56.3819
 1.9150	56.3374
 1.9140	56.4728
 1.9130	56.3035
 1.9120	56.5122
 1.9110	56.5383
 1.9100	56.5790
 1.9090	56.6737
 1.9080	56.7267
 1.9070	56.8028
 1.9060	56.9043
 1.9050	56.9484
 1.9040	57.0656
 1.9030	57.2216
 1.9020	57.3572
 1.9010	57.3994
 1.9000	57.5087
 1.8990	57.5723
 1.8980	57.7481
 1.8970	57.7979
 1.8960	57.8799
 1.8950	57.8390
 1.8940	58.0344
 1.8930	58.0867
 1.8920	58.1893
 1.8910	58.2016
 1.8900	58.3124
 1.8890	58.2682
 1.8880	58.3773
 1.8870	58.4082
 1.8860	58.5072
 1.8850	58.4738
 1.8840	58.5596
 1.8830	58.5090
 1.8820	58.5418
 1.8810	58.5301
 1.8800	58.5983
 1.8790	58.6036
 1.8780	58.5839
 1.8770	58.5680
 1.8760	58.5967
 1.8750	58.5190
 1.8740	58.6000
 1.8730	58.5207
 1.8720	58.5517
 1.8710	58.4175
 1.8700	58.3314
 1.8690	58.1452
 1.8680	58.0489
 1.8670	57.8317
 1.8660	57.6504
 1.8650	57.3544
 1.8640	57.1252
 1.8630	56.8509
 1.8620	56.6486
 1.8610	56.3203
 1.8600	56.0416
 1.8590	55.7208
 1.8580	55.4174
 1.8570	55.0713
 1.8560	54.8321
 1.8550	54.6047
 1.8540	54.4245
 1.8530	54.2320
 1.8520	54.0546
 1.8510	53.9225
 1.8500	53.8394
 1.8490	53.8563
 1.8480	53.8643
 1.8470	53.9267
 1.8460	54.1018
 1.8450	54.3130
 1.8440	54.6505
 1.8430	55.0463
 1.8420	55.5516
 1.8410	56.1357
 1.8400	56.7974
 1.8390	57.5880
 1.8380	58.4132
 1.8370	59.1404
 1.8360	59.9532
 1.8350	60.6759
 1.8340	61.3682
 1.8330	61.9907
 1.8320	62.5239
 1.8310	63.0100
 1.8300	63.4624
 1.8290	63.7777
 1.8280	64.1643
 1.8270	64.4282
 1.8260	64.6678
 1.8250	64.8901
 1.8240	65.0301
 1.8230	65.0830
 1.8220	65.2804
 1.8210	65.3660
 1.8200	65.4644
 1.8190	65.5706
 1.8180	65.5791
 1.8170	65.6489
 1.8160	65.7163
 1.8150	65.7339
 1.8140	65.7356
 1.8130	65.7750
 1.8120	65.7813
 1.8110	65.7896
 1.8100	65.8019
 1.8090	65.8211
 1.8080	65.8222
 1.8070	65.7592
 1.8060	65.7497
 1.8050	65.7491
 1.8040	65.7556
 1.8030	65.6857
 1.8020	65.7001
 1.8010	65.6594
 1.8000	65.6107
 1.7990	65.5688
 1.7980	65.4963
 1.7970	65.4129
 1.7960	65.3572
 1.7950	65.2930
 1.7940	65.1830
 1.7930	65.0991
 1.7920	65.0189
 1.7910	64.9645
 1.7900	64.8630
 1.7890	64.7407
 1.7880	64.6575
 1.7870	64.5582
 1.7860	64.4602
 1.7850	64.4087
 1.7840	64.3242
 1.7830	64.2210
 1.7820	64.1733
 1.7810	64.1463
 1.7800	64.1038
 1.7790	64.0045
 1.7780	63.9284
 1.7770	63.9057
 1.7760	63.8511
 1.7750	63.7904
 1.7740	63.7782
 1.7730	63.8170
 1.7720	63.7774
 1.7710	63.7176
 1.7700	63.7077
 1.7690	63.7543
 1.7680	63.7162
 1.7670	63.6789
 1.7660	63.6838
 1.7650	63.7029
 1.7640	63.7507
 1.7630	63.8523
 1.7620	63.9166
 1.7610	63.9621
 1.7600	63.9946
 1.7590	63.9784
 1.7580	63.9963
 1.7570	64.0909
 1.7560	64.1446
 1.7550	64.2308
 1.7540	64.2570
 1.7530	64.3365
 1.7520	64.3815
 1.7510	64.3444
 1.7500	64.3820
 1.7490	64.4381
 1.7480	64.4026
 1.7470	64.4402
 1.7460	64.4987
 1.7450	64.4824
 1.7440	64.4371
 1.7430	64.4710
 1.7420	64.4603
 1.7410	64.4598
 1.7400	64.3855
 1.7390	64.3586
 1.7380	64.4143
 1.7370	64.4453
 1.7360	64.4291
 1.7350	64.4792
 1.7340	64.5093
 1.7330	64.6382
 1.7320	64.7019
 1.7310	64.7996
 1.7300	64.8873
 1.7290	65.0188
 1.7280	65.0842
 1.7270	65.2578
 1.7260	65.3642
 1.7250	65.5325
 1.7240	65.6290
 1.7230	65.8081
 1.7220	65.9461
 1.7210	66.1079
 1.7200	66.2289
 1.7190	66.3887
 1.7180	66.5473
 1.7170	66.7140
 1.7160	66.8248
 1.7150	67.0369
 1.7140	67.0937
 1.7130	67.2257
 1.7120	67.3082
 1.7110	67.3933
 1.7100	67.4316
 1.7090	67.5702
 1.7080	67.6572
 1.7070	67.6430
 1.7060	67.7418
 1.7050	67.7887
 1.7040	67.7744
 1.7030	67.8377
 1.7020	67.8181
 1.7010	67.8445
 1.7000	67.9080
 1.6990	67.9101
 1.6980	67.9077
 1.6970	67.9676
 1.6960	67.9691
 1.6950	67.9339
 1.6940	67.9647
 1.6930	68.0029
 1.6920	67.9748
 1.6910	68.0024
 1.6900	67.9926
 1.6890	67.9936
 1.6880	68.0316
 1.6870	68.0580
 1.6860	68.0194
 1.6850	68.0216
 1.6840	68.0638
 1.6830	68.0853
 1.6820	68.0861
 1.6810	68.1427
 1.6800	68.0980
 1.6790	68.1080
 1.6780	68.0864
 1.6770	68.0511
 1.6760	68.0659
 1.6750	68.1264
 1.6740	68.1318
 1.6730	68.1250
 1.6720	68.0945
 1.6710	68.0586
 1.6700	67.9817
 1.6690	68.0501
 1.6680	67.9789
 1.6670	67.9912
 1.6660	67.9231
 1.6650	67.8914
 1.6640	67.8609
 1.6630	67.9207
 1.6620	67.8233
 1.6610	67.8091
 1.6600	67.7428
 1.6590	67.7939
 1.6580	67.7050
 1.6570	67.7759
 1.6560	67.6955
 1.6550	67.6743
 1.6540	67.6725
 1.6530	67.6389
 1.6520	67.6139
 1.6510	67.6154
 1.6500	67.5161
 1.6490	67.6023
 1.6480	67.5337
 1.6470	67.6695
 1.6460	67.5156
 1.6450	67.5240
 1.6440	67.4875
 1.6430	67.5273
 1.6420	67.4609
 1.6410	67.4878
 1.6400	67.4535
 1.6390	67.3873
 1.6380	67.4111
 1.6370	67.4108
 1.6360	67.3661
 1.6350	67.3653
 1.6340	67.1615
 1.6330	67.2393
 1.6320	67.1846
 1.6310	67.2172
 1.6300	67.1726
 1.6290	67.2357
 1.6280	67.0752
 1.6270	67.0179
 1.6260	67.0227
 1.6250	66.9685
 1.6240	66.8448
 1.6230	66.8140
 1.6220	66.6988
 1.6210	66.6769
 1.6200	66.5944
 1.6190	66.4832
 1.6180	66.4673
 1.6170	66.3754
 1.6160	66.3131
 1.6150	66.2415
 1.6140	66.1208
 1.6130	66.1396
 1.6120	65.9637
 1.6110	65.9095
 1.6100	65.9112
 1.6090	65.7874
 1.6080	65.7089
 1.6070	65.7103
 1.6060	65.6289
 1.6050	65.5611
 1.6040	65.5530
 1.6030	65.5470
 1.6020	65.5237
 1.6010	65.4757
 1.6000	65.4049
 1.5990	65.4059
 1.5980	65.2956
 1.5970	65.3479
 1.5960	65.1931
 1.5950	65.2082
 1.5940	65.0572
 1.5930	65.0610
 1.5920	64.9105
 1.5910	64.8451
 1.5900	64.7456
 1.5890	64.6363
 1.5880	64.5367
 1.5870	64.4538
 1.5860	64.3383
 1.5850	64.2672
 1.5840	64.0360
 1.5830	63.9270
 1.5820	63.8126
 1.5810	63.6037
 1.5800	63.4156
 1.5790	63.3418
 1.5780	63.1534
 1.5770	63.0419
 1.5760	62.8713
 1.5750	62.6341
 1.5740	62.4200
 1.5730	62.2391
 1.5720	62.0579
 1.5710	61.8305
 1.5700	61.5970
 1.5690	61.4422
 1.5680	61.2102
 1.5670	60.9680
 1.5660	60.7230
 1.5650	60.5019
 1.5640	60.2548
 1.5630	60.0393
 1.5620	59.8692
 1.5610	59.6224
 1.5600	59.3437
 1.5590	59.1105
 1.5580	58.8522
 1.5570	58.6529
 1.5560	58.4300
 1.5550	58.2103
 1.5540	58.0242
 1.5530	57.8486
 1.5520	57.6583
 1.5510	57.5424
 1.5500	57.3384
 1.5490	57.1722
 1.5480	57.0841
 1.5470	57.0221
 1.5460	56.9047
 1.5450	56.8419
 1.5440	56.6912
 1.5430	56.6461
 1.5420	56.6462
 1.5410	56.6587
 1.5400	56.6106
 1.5390	56.6584
 1.5380	56.6862
 1.5370	56.8192
 1.5360	56.9629
 1.5350	57.1024
 1.5340	57.3320
 1.5330	57.5584
 1.5320	57.7817
 1.5310	58.0783
 1.5300	58.3049
 1.5290	58.5630
 1.5280	58.8167
 1.5270	59.1010
 1.5260	59.3383
 1.5250	59.6458
 1.5240	59.8740
 1.5230	60.1457
 1.5220	60.4513
 1.5210	60.6786
 1.5200	60.9283
 1.5190	61.2569
 1.5180	61.5339
 1.5170	61.8743
 1.5160	62.2093
 1.5150	62.5070
 1.5140	62.7703
 1.5130	63.0551
 1.5120	63.3774
 1.5110	63.6296
 1.5100	63.9505
 1.5090	64.2504
 1.5080	64.4720
 1.5070	64.7102
 1.5060	64.9727
 1.5050	65.1965
 1.5040	65.4542
 1.5030	65.6882
 1.5020	65.8425
 1.5010	66.0842
 1.5000	66.3165
 1.4990	66.4423
 1.4980	66.6044
 1.4970	66.7638
 1.4960	66.8785
 1.4950	67.0411
 1.4940	67.1614
 1.4930	67.2489
 1.4920	67.3829
 1.4910	67.4583
 1.4900	67.4996
 1.4890	67.5752
 1.4880	67.6597
 1.4870	67.7225
 1.4860	67.7801
 1.4850	67.8904
 1.4840	67.9542
 1.4830	68.0135
 1.4820	68.1012
 1.4810	68.2185
 1.4800	68.3648
 1.4790	68.4442
 1.4780	68.5992
 1.4770	68.7185
 1.4760	68.8860
 1.4750	69.0656
 1.4740	69.2278
 1.4730	69.4191
 1.4720	69.6479
 1.4710	69.8081
 1.4700	69.9450
 1.4690	70.1058
 1.4680	70.2650
 1.4670	70.3859
 1.4660	70.5344
 1.4650	70.6350
 1.4640	70.7902
 1.4630	70.9185
 1.4620	70.9941
 1.4610	71.0848
 1.4600	71.2402
 1.4590	71.3182
 1.4580	71.3367
 1.4570	71.3792
 1.4560	71.4381
 1.4550	71.4388
 1.4540	71.4053
 1.4530	71.3341
 1.4520	71.2800
 1.4510	71.1321
 1.4500	70.8216
 1.4490	70.5520
 1.4480	70.4314
 1.4470	70.2459
 1.4460	70.2929
 1.4450	70.4600
 1.4440	70.8662
 1.4430	71.1507
 1.4420	71.4161
 1.4410	71.5935
 1.4400	71.7559
 1.4390	71.7974
 1.4380	71.7673
 1.4370	71.6009
 1.4360	71.5079
 1.4350	71.4041
 1.4340	71.1900
 1.4330	70.8532
 1.4320	70.5059
 1.4310	70.2264
 1.4300	70.0742
 1.4290	69.8560
 1.4280	69.8128
 1.4270	69.9223
 1.4260	70.0408
 1.4250	70.2814
 1.4240	70.4017
 1.4230	70.2754
 1.4220	70.0198
 1.4210	69.5912
 1.4200	68.8412
 1.4190	68.0515
 1.4180	67.2833
 1.4170	66.8265
 1.4160	66.6629
 1.4150	66.9572
 1.4140	67.7613
 1.4130	68.8033
 1.4120	69.9777
 1.4110	71.0581
 1.4100	71.9555
 1.4090	72.6902
 1.4080	73.1425
 1.4070	73.4434
 1.4060	73.7747
 1.4050	74.0101
 1.4040	74.2735
 1.4030	74.4537
 1.4020	74.6118
 1.4010	74.6977
 1.4000	74.6984
 1.3990	74.8034
 1.3980	74.8856
 1.3970	74.9279
 1.3960	74.9257
 1.3950	75.0549
 1.3940	75.2142
 1.3930	75.3063
 1.3920	75.5683
 1.3910	75.7424
 1.3900	75.9993
 1.3890	76.0787
 1.3880	76.2713
 1.3870	76.4026
 1.3860	76.5669
 1.3850	76.7020
 1.3840	76.8876
 1.3830	76.9881
 1.3820	77.1023
 1.3810	77.3275
 1.3800	77.3971
 1.3790	77.5881
 1.3780	77.7187
 1.3770	77.7804
 1.3760	77.8211
 1.3750	77.8238
 1.3740	77.8701
 1.3730	77.8934
 1.3720	77.8654
 1.3710	77.8564
 1.3700	77.9267
 1.3690	77.8787
 1.3680	77.8707
 1.3670	77.8530
 1.3660	77.7756
 1.3650	77.6468
 1.3640	77.6466
 1.3630	77.5685
 1.3620	77.5363
 1.3610	77.4655
 1.3600	77.4717
 1.3590	77.3274
 1.3580	77.3501
 1.3570	77.3902
 1.3560	77.3821
 1.3550	77.4432
 1.3540	77.5136
 1.3530	77.5497
 1.3520	77.6264
 1.3510	77.7206
 1.3500	77.8458
 1.3490	77.8527
 1.3480	77.9759
 1.3470	78.0190
 1.3460	78.2107
 1.3450	78.2534
 1.3440	78.2979
 1.3430	78.4774
 1.3420	78.5238
 1.3410	78.5978
 1.3400	78.6333
 1.3390	78.7563
 1.3380	78.8719
 1.3370	78.8020
 1.3360	78.9277
 1.3350	78.8965
 1.3340	79.0041
 1.3330	79.0469
 1.3320	79.0446
 1.3310	79.1070
 1.3300	79.0443
 1.3290	79.0443
 1.3280	79.0818
 1.3270	79.1405
 1.3260	79.0960
 1.3250	79.0840
 1.3240	79.1854
 1.3230	79.1726
 1.3220	79.2736
 1.3210	79.2442
 1.3200	79.2326
 1.3190	79.2034
 1.3180	79.2273
 1.3170	79.2770
 1.3160	79.2870
 1.3150	79.2586
 1.3140	79.3651
 1.3130	79.3604
 1.3120	79.3543
 1.3110	79.3082
 1.3100	79.3614
 1.3090	79.2390
 1.3080	79.3577
 1.3070	79.2988
 1.3060	79.2041
 1.3050	79.1689
 1.3040	79.1137
 1.3030	79.1393
 1.3020	79.0159
 1.3010	78.9818
 1.3000	79.0508
 1.2990	78.9347
 1.2980	78.8759
 1.2970	78.8454
 1.2960	78.8101
 1.2950	78.8598
 1.2940	78.8969
 1.2930	78.8390
 1.2920	78.8364
 1.2910	78.8597
 1.2900	78.8837
 1.2890	78.9669
 1.2880	79.0260
 1.2870	79.0602
 1.2860	79.1239
 1.2850	79.2641
 1.2840	79.3933
 1.2830	79.4506
 1.2820	79.5424
 1.2810	79.5847
 1.2800	79.6778
 1.2790	79.7884
 1.2780	79.8055
 1.2770	79.7918
 1.2760	79.9417
 1.2750	79.9871
 1.2740	79.9584
 1.2730	79.9929
 1.2720	80.0440
 1.2710	80.1195
 1.2700	80.1020
 1.2690	80.0296
 1.2680	80.1339
 1.2670	80.1247
 1.2660	80.1413
 1.2650	80.1606
 1.2640	80.1751
 1.2630	80.1873
 1.2620	80.2296
 1.2610	80.2144
 1.2600	80.1632
 1.2590	80.2040
 1.2580	80.2842
 1.2570	80.3510
 1.2560	80.3648
 1.2550	80.3031
 1.2540	80.2798
 1.2530	80.3082
 1.2520	80.3475
 1.2510	80.3094
 1.2500	80.3282
 1.2490	80.3830
 1.2480	80.4583
 1.2470	80.4400
 1.2460	80.4122
 1.2450	80.4577
 1.2440	80.4933
 1.2430	80.4847
 1.2420	80.4551
 1.2410	80.5106
 1.2400	80.5587
 1.2390	80.5560
 1.2380	80.5609
 1.2370	80.6075
 1.2360	80.6455
 1.2350	80.6461
 1.2340	80.6705
 1.2330	80.7082
 1.2320	80.6726
 1.2310	80.6342
 1.2300	80.6618
 1.2290	80.6635
 1.2280	80.6853
 1.2270	80.6990
 1.2260	80.7143
 1.2250	80.6966
 1.2240	80.6894
 1.2230	80.6853
 1.2220	80.6956
 1.2210	80.7439
 1.2200	80.7593
 1.2190	80.7496
 1.2180	80.7455
 1.2170	80.7460
 1.2160	80.7866
 1.2150	80.8086
 1.2140	80.8332
 1.2130	80.8548
 1.2120	80.8467
 1.2110	80.8549
 1.2100	80.8110
 1.2090	80.7905
 1.2080	80.8417
 1.2070	80.8330
 1.2060	80.8409
 1.2050	80.8217
 1.2040	80.8597
 1.2030	80.9174
 1.2020	80.9009
 1.2010	80.8733
 1.2000	80.8658
 1.1990	80.9175
 1.1980	80.9234
 1.1970	80.9383
 1.1960	80.9598
 1.1950	80.9391
 1.1940	80.9175
 1.1930	80.9096
 1.1920	80.9034
 1.1910	80.9292
 1.1900	80.9129
 1.1890	80.9012
 1.1880	80.8949
 1.1870	80.8806
 1.1860	80.8838
 1.1850	80.9660
 1.1840	80.9677
 1.1830	80.9140
 1.1820	80.8811
 1.1810	80.8900
 1.1800	80.9077
 1.1790	80.8969
 1.1780	80.8988
 1.1770	80.9385
 1.1760	80.9405
 1.1750	80.9476
 1.1740	80.9007
 1.1730	80.9390
 1.1720	80.9368
 1.1710	80.9412
 1.1700	80.8987
 1.1690	80.9128
 1.1680	80.9316
 1.1670	80.9137
 1.1660	80.9701
 1.1650	80.9906
 1.1640	80.9585
 1.1630	80.9631
 1.1620	80.9931
 1.1610	81.0348
 1.1600	81.0097
 1.1590	81.0080
 1.1580	81.0200
 1.1570	81.0197
 1.1560	81.0281
 1.1550	81.0475
 1.1540	81.0599
 1.1530	81.0399
 1.1520	81.0008
 1.1510	80.9845
 1.1500	81.0383
 1.1490	81.0538
 1.1480	80.9400
 1.1470	80.9829
 1.1460	80.9664
 1.1450	81.0090
 1.1440	80.9947
 1.1430	80.9944
 1.1420	80.9672
 1.1410	80.9125
 1.1400	80.9964
 1.1390	81.0018
 1.1380	81.0139
 1.1370	80.9876
 1.1360	80.9818
 1.1350	80.9974
 1.1340	80.9079
 1.1330	81.0237
 1.1320	81.0195
 1.1310	80.9939
 1.1300	81.0290
 1.1290	81.0234
 1.1280	81.0661
 1.1270	80.9878
 1.1260	81.0067
 1.1250	80.9910
 1.1240	81.0164
 1.1230	80.9606
 1.1220	81.0053
 1.1210	81.0141
 1.1200	81.0643
 1.1190	81.0381
 1.1180	80.9359
 1.1170	81.0703
 1.1160	80.9728
 1.1150	81.0725
 1.1140	80.9923
 1.1130	81.0162
 1.1120	81.0500
 1.1110	81.0905
 1.1100	81.0792
 1.1090	81.0516
 1.1080	81.0392
 1.1070	81.0858
 1.1060	81.0685
 1.1050	81.0871
 1.1040	81.0724
 1.1030	81.0342
 1.1020	80.9995
 1.1010	81.0562
 1.1000	81.0484
 1.0990	81.0361
 1.0980	80.9809
 1.0970	81.0605
 1.0960	81.1293
 1.0950	81.0496
 1.0940	81.0738
 1.0930	81.0458
 1.0920	81.0342
 1.0910	81.0114
 1.0900	80.9821
 1.0890	81.0461
 1.0880	81.0279
 1.0870	81.0249
 1.0860	80.9719
 1.0850	81.0319
 1.0840	81.0364
 1.0830	80.9390
 1.0820	81.0018
 1.0810	80.9852
 1.0800	80.9927
 1.0790	81.0291
 1.0780	80.9174
 1.0770	81.0363
 1.0760	81.0335
 1.0750	80.8947
 1.0740	80.9255
 1.0730	81.0149
 1.0720	80.9806
 1.0710	81.0490
 1.0700	81.0078
 1.0690	81.1390
 1.0680	81.0091
 1.0670	80.9075
 1.0660	80.9504
 1.0650	80.9640
 1.0640	80.9924
 1.0630	81.0184
 1.0620	80.9282
 1.0610	81.0056
 1.0600	80.9662
 1.0590	81.0324
 1.0580	81.0623
 1.0570	80.9577
 1.0560	80.9715
 1.0550	80.9710
 1.0540	80.9946
 1.0530	81.0377
 1.0520	80.9909
 1.0510	80.9669
 1.0500	81.0073
 1.0490	81.0762
 1.0480	81.0048
 1.0470	80.9602
 1.0460	80.9844
 1.0450	80.9993
 1.0440	81.0054
 1.0430	80.9685
 1.0420	81.0036
 1.0410	80.9536
 1.0400	80.9706
 1.0390	80.9555
 1.0380	80.9528
 1.0370	80.9561
 1.0360	80.9018
 1.0350	80.9999
 1.0340	80.9215
 1.0330	80.9136
 1.0320	80.9271
 1.0310	80.9023
 1.0300	80.9214
 1.0290	80.8993
 1.0280	80.8775
 1.0270	80.8716
 1.0260	80.8746
 1.0250	80.9804
 1.0240	80.9157
 1.0230	80.8972
 1.0220	80.8794
 1.0210	80.8549
 1.0200	80.8744
 1.0190	80.8885
 1.0180	80.8976
 1.0170	80.8725
 1.0160	80.8788
 1.0150	80.9257
 1.0140	80.8871
 1.0130	80.9140
 1.0120	80.8895
 1.0110	80.9086
 1.0100	80.8690
 1.0090	80.8575
 1.0080	80.8934
 1.0070	80.9314
 1.0060	80.8835
 1.0050	80.8807
 1.0040	80.8554
 1.0030	80.8966
 1.0020	80.8793
 1.0010	80.8849
 1.0000	80.8843
 0.9990	80.8728
 0.9980	80.8338
 0.9970	80.8343
 0.9960	80.8164
 0.9950	80.7994
 0.9940	80.9269
 0.9930	80.9156
 0.9920	80.8186
 0.9910	80.8607
 0.9900	80.7893
 0.9890	80.7757
 0.9880	80.7942
 0.9870	80.8188
 0.9860	80.8045
 0.9850	80.7949
 0.9840	80.8398
 0.9830	80.8644
 0.9820	80.7968
 0.9810	80.7453
 0.9800	80.7812
 0.9790	80.7276
 0.9780	80.6325
 0.9770	80.7135
 0.9760	80.7296
 0.9750	80.7477
 0.9740	80.6877
 0.9730	80.6963
 0.9720	80.7136
 0.9710	80.7041
 0.9700	80.6401
 0.9690	80.6338
 0.9680	80.6005
 0.9670	80.6023
 0.9660	80.6142
 0.9650	80.6397
 0.9640	80.6570
 0.9630	80.6980
 0.9620	80.7190
 0.9610	80.7925
 0.9600	80.8483
 0.9590	80.7973
 0.9580	80.7686
 0.9570	80.8117
 0.9560	80.8037
 0.9550	80.8054
 0.9540	80.8275
 0.9530	80.8324
 0.9520	80.8260
 0.9510	80.8244
 0.9500	80.8165
 0.9490	80.8434
 0.9480	80.8174
 0.9470	80.8232
 0.9460	80.8264
 0.9450	80.8775
 0.9440	80.8695
 0.9430	80.8290
 0.9420	80.8067
 0.9410	80.8254
 0.9400	80.8323
 0.9390	80.8121
 0.9380	80.8747
 0.9370	80.8914
 0.9360	80.8632
 0.9350	80.8642
 0.9340	80.8496
 0.9330	80.7944
 0.9320	80.7557
 0.9310	80.7925
 0.9300	80.8296
 0.9290	80.8341
 0.9280	80.8391
 0.9270	80.8242
 0.9260	80.7839
 0.9250	80.8017
 0.9240	80.8583
 0.9230	80.8477
 0.9220	80.8343
 0.9210	80.8083
 0.9200	80.7682
 0.9190	80.8187
 0.9180	80.8330
 0.9170	80.8262
 0.9160	80.8397
 0.9150	80.7960
 0.9140	80.7753
 0.9130	80.7933
 0.9120	80.7546
 0.9110	80.7965
 0.9100	80.8363
 0.9090	80.8430
 0.9080	80.8004
 0.9070	80.7694
 0.9060	80.7852
 0.9050	80.7521
 0.9040	80.7748
 0.9030	80.7919
 0.9020	80.7812
 0.9010	80.7697
 0.9000	80.7422
 0.8990	80.7354
 0.8980	80.7772
 0.8970	80.7550
 0.8960	80.7187
 0.8950	80.7207
 0.8940	80.7278
 0.8930	80.7560
 0.8920	80.6987
 0.8910	80.1811
 0.8900	80.4814
 0.8890	80.6913
 0.8880	80.7136
 0.8870	80.6998
 0.8860	80.7460
 0.8850	80.7061
 0.8840	80.6911
 0.8830	80.7111
 0.8820	80.6952
 0.8810	80.6218
 0.8800	80.6602
 0.8790	80.6961
 0.8780	80.6655
 0.8770	80.6713
 0.8760	80.6623
 0.8750	80.6511
 0.8740	80.6619
 0.8730	80.6397
 0.8720	80.6313
 0.8710	80.6385
 0.8700	80.6824
 0.8690	80.6524
 0.8680	80.6037
 0.8670	80.5647
 0.8660	80.6053
 0.8650	80.6177
 0.8640	80.6336
 0.8630	80.6070
 0.8620	80.6726
 0.8610	80.5868
 0.8600	80.5484
 0.8590	80.5991
 0.8580	80.6007
 0.8570	80.4962
 0.8560	80.5938
 0.8550	80.5174
 0.8540	80.4898
 0.8530	80.5410
 0.8520	80.5559
 0.8510	80.5080
 0.8500	80.5046
 0.8490	80.4792
 0.8480	80.5071
 0.8470	80.4899
 0.8460	80.5034
 0.8450	80.4780
 0.8440	80.4547
 0.8430	80.4442
 0.8420	80.4204
 0.8410	80.4817
 0.8400	80.4398
 0.8390	80.4065
 0.8380	80.4427
 0.8370	80.4297
 0.8360	80.3932
 0.8350	80.4352
 0.8340	80.3733
 0.8330	80.3666
 0.8320	80.4498
 0.8310	80.4218
 0.8300	80.3907
 0.8290	80.4303
 0.8280	80.4313
 0.8270	80.4446
 0.8260	80.3628
 0.8250	80.3957
 0.8240	80.3825
 0.8230	80.3692
 0.8220	80.4083
 0.8210	80.4251
 0.8200	80.4255
 0.8190	80.3711
 0.8180	80.3906
 0.8170	80.3207
 0.8160	80.3428
 0.8150	80.3693
 0.8140	80.3724
 0.8130	80.3412
 0.8120	80.4106
 0.8110	80.3705
 0.8100	80.3572
 0.8090	80.3209
 0.8080	80.3456
 0.8070	80.3839
 0.8060	80.2812
 0.8050	80.3360
 0.8040	80.4095
 0.8030	80.3427
 0.8020	80.3038
 0.8010	80.3102
 0.8000	80.2824
 0.7990	80.3045
 0.7980	80.2896
 0.7970	80.2547
 0.7960	80.2195
 0.7950	80.2098
 0.7940	80.2269
 0.7930	80.1842
 0.7920	80.2197
 0.7910	80.2401
 0.7900	80.1927
 0.7890	80.1865
 0.7880	80.2018
 0.7870	80.1379
 0.7860	80.1923
 0.7850	80.2253
 0.7840	80.2097
 0.7830	80.1510
 0.7820	80.1974
 0.7810	80.2686
 0.7800	80.1714
 0.7790	80.1231
 0.7780	80.2110
 0.7770	80.2223
 0.7760	80.1214
 0.7750	80.1588
 0.7740	80.1499
 0.7730	80.1588
 0.7720	80.1491
 0.7710	80.1636
 0.7700	80.0956
 0.7690	80.0926
 0.7680	80.0943
 0.7670	80.1310
 0.7660	80.0897
 0.7650	80.1029
 0.7640	80.1236
 0.7630	80.1112
 0.7620	80.1023
 0.7610	80.1255
 0.7600	80.1343
 0.7590	80.0869
 0.7580	80.1218
 0.7570	80.1226
 0.7560	80.1406
 0.7550	80.1121
 0.7540	80.0974
 0.7530	80.1036
 0.7520	80.1125
 0.7510	80.1028
 0.7500	80.1090
 0.7490	80.0963
 0.7480	80.0935
 0.7470	80.1109
 0.7460	80.0893
 0.7450	80.0802
 0.7440	80.1258
 0.7430	80.0851
 0.7420	80.1295
 0.7410	80.1293
 0.7400	80.1056
 0.7390	80.0787
 0.7380	80.0948
 0.7370	80.1205
 0.7360	80.1158
 0.7350	80.1083
 0.7340	80.1085
 0.7330	80.1219
 0.7320	80.1276
 0.7310	80.1426
 0.7300	80.1106
 0.7290	80.1220
 0.7280	80.1280
 0.7270	80.1185
 0.7260	80.1012
 0.7250	80.1160
 0.7240	80.1155
 0.7230	80.1504
 0.7220	80.1216
 0.7210	80.1508
 0.7200	80.1294
 0.7190	80.1488
 0.7180	80.1369
 0.7170	80.1231
 0.7160	80.1140
 0.7150	80.1055
 0.7140	80.1182
 0.7130	80.1104
 0.7120	80.1092
 0.7110	80.1124
 0.7100	80.1167
 0.7090	80.0998
 0.7080	80.1227
 0.7070	80.1293
 0.7060	80.1282
 0.7050	80.1363
 0.7040	80.1026
 0.7030	80.0962
 0.7020	80.0927
 0.7010	80.0960
 0.7000	80.1091
 0.6990	80.1175
 0.6980	80.1197
 0.6970	80.1174
 0.6960	80.0884
 0.6950	80.0808
 0.6940	80.1073
 0.6930	80.0927
 0.6920	80.0800
 0.6910	80.0845
 0.6900	80.0847
 0.6890	80.0850
 0.6880	80.0895
 0.6870	80.0907
 0.6860	80.0733
 0.6850	80.0811
 0.6840	80.0614
 0.6830	80.0497
 0.6820	80.0563
 0.6810	80.0636
 0.6800	80.0520
 0.6790	80.0625
 0.6780	80.0536
 0.6770	80.0159
 0.6760	80.0106
 0.6750	80.0114
 0.6740	79.9813
 0.6730	79.9813
 0.6720	79.9800
 0.6710	79.9569
 0.6700	79.9437
 0.6690	79.9463
 0.6680	79.9623
 0.6670	79.9417
 0.6660	79.9456
 0.6650	79.9303
 0.6640	79.9065
 0.6630	79.8974
 0.6620	79.8771
 0.6610	79.8702
 0.6600	79.8585
 0.6590	79.8308
 0.6580	79.8179
 0.6570	79.8118
 0.6560	79.8176
 0.6550	79.8046
 0.6540	79.7793
 0.6530	79.7731
 0.6520	79.7541
 0.6510	79.7401
 0.6500	79.7259
 0.6490	79.7018
 0.6480	79.6953
 0.6470	79.6750
 0.6460	79.6425
 0.6450	79.6231
 0.6440	79.6097
 0.6430	79.5973
 0.6420	79.5677
 0.6410	79.5490
 0.6400	79.5359
 0.6390	79.5265
 0.6380	79.5145
 0.6370	79.4871
 0.6360	79.4636
 0.6350	79.4389
 0.6340	79.4182
 0.6330	79.4018
 0.6320	79.3775
 0.6310	79.3606
 0.6300	79.3368
 0.6290	79.3056
 0.6280	79.2833
 0.6270	79.2505
 0.6260	79.2230
 0.6250	79.2042
 0.6240	79.1838
 0.6230	79.1632
 0.6220	79.1316
 0.6210	79.1112
 0.6200	79.0956
 0.6190	79.0664
 0.6180	79.0587
 0.6170	79.0363
 0.6160	78.9862
 0.6150	78.9631
 0.6140	78.9503
 0.6130	78.9178
 0.6120	78.8939
 0.6110	78.8638
 0.6100	78.8496
 0.6090	78.8466
 0.6080	78.8027
 0.6070	78.7725
 0.6060	78.7512
 0.6050	78.7176
 0.6040	78.6965
 0.6030	78.6802
 0.6020	78.6451
 0.6010	78.6118
 0.6000	78.5867
 0.5990	78.5700
 0.5980	78.5720
 0.5970	78.5688
 0.5960	78.5497
 0.5950	78.5518
 0.5940	78.5413
 0.5930	78.5077
 0.5920	78.4838
 0.5910	78.4707
 0.5900	78.4368
 0.5890	78.4339
 0.5880	78.3912
 0.5870	78.3604
 0.5860	78.3574
 0.5850	78.3331
 0.5840	78.3117
 0.5830	78.2982
 0.5820	78.2921
 0.5810	78.2512
 0.5800	78.2349
 0.5790	78.2111
 0.5780	78.1959
 0.5770	78.1830
 0.5760	78.1712
 0.5750	78.1618
 0.5740	78.1458
 0.5730	78.1119
 0.5720	78.0980
 0.5710	78.0868
 0.5700	78.0825
 0.5690	78.0495
 0.5680	78.0407
 0.5670	78.0396
 0.5660	78.0152
 0.5650	78.0129
 0.5640	77.9944
 0.5630	77.9737
 0.5620	77.9556
 0.5610	77.9409
 0.5600	77.9146
 0.5590	77.9130
 0.5580	77.8899
 0.5570	77.8794
 0.5560	77.8615
 0.5550	77.8512
 0.5540	77.8440
 0.5530	77.8256
 0.5520	77.8073
 0.5510	77.7941
 0.5500	77.7795
 0.5490	77.7770
 0.5480	77.7509
 0.5470	77.7203
 0.5460	77.7174
 0.5450	77.6768
 0.5440	77.6767
 0.5430	77.6751
 0.5420	77.6552
 0.5410	77.6346
 0.5400	77.6154
 0.5390	77.5916
 0.5380	77.5795
 0.5370	77.5635
 0.5360	77.5522
 0.5350	77.5448
 0.5340	77.5259
 0.5330	77.4970
 0.5320	77.4904
 0.5310	77.4717
 0.5300	77.4475
 0.5290	77.4410
 0.5280	77.4241
 0.5270	77.4148
 0.5260	77.3917
 0.5250	77.3621
 0.5240	77.3547
 0.5230	77.3425
 0.5220	77.3072
 0.5210	77.3043
 0.5200	77.2783
 0.5190	77.2730
 0.5180	77.2644
 0.5170	77.2427
 0.5160	77.2217
 0.5150	77.2052
 0.5140	77.1753
 0.5130	77.1665
 0.5120	77.1335
 0.5110	77.1054
 0.5100	77.1036
 0.5090	77.0706
 0.5080	77.0549
 0.5070	77.0276
 0.5060	76.9932
 0.5050	76.9788
 0.5040	76.9449
 0.5030	76.9222
 0.5020	76.8929
 0.5010	76.8772
 0.5000	76.8399
 0.4990	76.8180
 0.4980	76.8014
 0.4970	76.7432
 0.4960	76.7581
 0.4950	76.7251
 0.4940	76.7378
 0.4930	76.6598
 0.4920	76.6151
 0.4910	76.6097
 0.4900	76.5514
 0.4890	76.5322
 0.4880	76.5023
 0.4870	76.4888
 0.4860	76.4158
 0.4850	76.4228
 0.4840	76.3570
 0.4830	76.3566
 0.4820	76.2917
 0.4810	76.2693
 0.4800	76.2388
 0.4790	76.1923
 0.4780	76.1736
 0.4770	76.1189
 0.4760	76.0991
 0.4750	76.0662
 0.4740	76.0474
 0.4730	75.9921
 0.4720	75.9512
 0.4710	75.9259
 0.4700	75.8458
 0.4690	75.8110
 0.4680	75.7876
 0.4670	75.7410
 0.4660	75.6895
 0.4650	75.6230
 0.4640	75.5721
 0.4630	75.5377
 0.4620	75.5029
 0.4610	75.4475
 0.4600	75.3912
 0.4590	75.3310
 0.4580	75.3054
 0.4570	75.2777
 0.4560	75.2124
 0.4550	75.1271
 0.4540	75.0862
 0.4530	75.0242
 0.4520	74.9407
 0.4510	74.9039
 0.4500	74.8424
 0.4490	74.7526
 0.4480	74.7055
 0.4470	74.6543
 0.4460	74.5700
 0.4450	74.4785
 0.4440	74.4187
 0.4430	74.3388
 0.4420	74.2854
 0.4410	74.2009
 0.4400	74.1477
 0.4390	74.0728
 0.4380	73.9777
 0.4370	73.9340
 0.4360	73.8542
 0.4350	73.7808
 0.4340	73.7343
 0.4330	73.6632
 0.4320	73.5954
 0.4310	73.4997
 0.4300	73.4398
 0.4290	73.3598
 0.4280	73.2583
 0.4270	73.2084
 0.4260	73.1469
 0.4250	73.0541
 0.4240	72.9945
 0.4230	72.9033
 0.4220	72.8092
 0.4210	72.7284
 0.4200	72.6598
 0.4190	72.5883
 0.4180	72.4971
 0.4170	72.4061
 0.4160	72.2992
 0.4150	72.2112
 0.4140	72.1260
 0.4130	72.0323
 0.4120	71.9277
 0.4110	71.8202
 0.4100	71.7267
 0.4090	71.6166
 0.4080	71.5232
 0.4070	71.4213
 0.4060	71.3117
 0.4050	71.1969
 0.4040	71.0911
 0.4030	70.9707
 0.4020	70.8317
 0.4010	70.7447
 0.4000	70.6274
