Name: Gypsum CaSO_4.2H_2O
Type: Mineral
Class: Sulfate
Subclass: None
Particle Size: Fine
Sample No.: SO-2B
Owner: JPL
Wavelength Range: VSWIR
Origin: USA, Utah
Collection Date: N/A
Description: Particle size was 0-45um.Collected by Ward's Original ASTER Spectral Library name was jpl.beckman.mineral.sulfate.none.fine.so02b.spectrum.txt
Measurement: Hemispherical reflectance
First Column: X
Second Column: Y
X Units: Wavelength (micrometers)
Y Units:Reflectance (percent)
First X Value:  0.4000
Last X Value:  2.5000
Number of X Values: 826
Additional Information: mineral.sulfate.none.fine.vswir.so-2b.jpl.beckman.ancillary.txt

 0.4000	92.0800
 0.4010	92.2600
 0.4020	92.2000
 0.4030	92.1400
 0.4040	92.2000
 0.4050	92.2600
 0.4060	92.2600
 0.4070	92.3200
 0.4080	92.2000
 0.4090	92.3800
 0.4100	92.3200
 0.4110	92.3800
 0.4120	92.3800
 0.4130	92.3300
 0.4140	92.5100
 0.4150	92.3800
 0.4160	92.4400
 0.4170	92.4400
 0.4180	92.5100
 0.4190	92.6900
 0.4200	92.6300
 0.4210	92.5100
 0.4220	92.6300
 0.4230	92.5100
 0.4240	92.5100
 0.4250	92.5100
 0.4260	92.5100
 0.4270	92.6900
 0.4280	92.6300
 0.4290	92.5700
 0.4300	92.7500
 0.4310	92.6900
 0.4320	92.8700
 0.4330	92.8100
 0.4340	92.7500
 0.4350	92.9200
 0.4360	92.8700
 0.4370	92.8100
 0.4380	92.8100
 0.4390	92.9200
 0.4400	92.9800
 0.4410	93.0400
 0.4420	92.9200
 0.4430	93.1600
 0.4440	92.9800
 0.4450	93.1000
 0.4460	93.1600
 0.4470	93.2200
 0.4480	93.1600
 0.4490	93.1000
 0.4500	93.0400
 0.4510	93.2200
 0.4520	93.1000
 0.4530	93.1700
 0.4540	93.3000
 0.4550	93.1800
 0.4560	93.3600
 0.4570	93.3600
 0.4580	93.2500
 0.4590	93.4300
 0.4600	93.4900
 0.4610	93.5400
 0.4620	93.3600
 0.4630	93.4300
 0.4640	93.4300
 0.4650	93.4900
 0.4660	93.5500
 0.4670	93.4300
 0.4680	93.3800
 0.4690	93.5000
 0.4700	93.5000
 0.4710	93.4400
 0.4720	93.6800
 0.4730	93.6900
 0.4740	93.7500
 0.4750	93.6900
 0.4760	93.6300
 0.4770	93.8100
 0.4780	93.7600
 0.4790	93.7600
 0.4800	93.8800
 0.4810	93.8200
 0.4820	93.8200
 0.4830	93.7100
 0.4840	93.6500
 0.4850	93.7100
 0.4860	93.8300
 0.4870	93.8800
 0.4880	93.8900
 0.4890	93.7700
 0.4900	93.8900
 0.4910	93.8400
 0.4920	93.7300
 0.4930	93.7900
 0.4940	93.6800
 0.4950	93.9100
 0.4960	93.8500
 0.4970	93.7300
 0.4980	93.9700
 0.4990	93.8600
 0.5000	93.9800
 0.5010	93.9800
 0.5020	93.8600
 0.5030	94.0300
 0.5040	93.9800
 0.5050	93.9200
 0.5060	93.9800
 0.5070	94.0300
 0.5080	94.1500
 0.5090	94.1500
 0.5100	94.0900
 0.5110	94.2700
 0.5120	94.2100
 0.5130	94.1500
 0.5140	94.2700
 0.5150	94.3300
 0.5160	94.2700
 0.5170	94.2100
 0.5180	94.2100
 0.5190	94.3300
 0.5200	94.2700
 0.5210	94.3300
 0.5220	94.3800
 0.5230	94.3300
 0.5240	94.4400
 0.5250	94.3800
 0.5260	94.2700
 0.5270	94.3300
 0.5280	94.3200
 0.5290	94.3800
 0.5300	94.2700
 0.5310	94.2700
 0.5320	94.4400
 0.5330	94.2700
 0.5340	94.1500
 0.5350	94.2700
 0.5360	94.4500
 0.5370	94.3900
 0.5380	94.4500
 0.5390	94.3900
 0.5400	94.5100
 0.5410	94.4500
 0.5420	94.5700
 0.5430	94.5700
 0.5440	94.5700
 0.5450	94.6900
 0.5460	94.5700
 0.5470	94.5100
 0.5480	94.6800
 0.5490	94.6800
 0.5500	94.7400
 0.5510	94.7400
 0.5520	94.6800
 0.5530	94.7900
 0.5540	94.8500
 0.5550	94.7900
 0.5560	94.9700
 0.5570	94.9800
 0.5580	94.9800
 0.5590	94.8700
 0.5600	94.9900
 0.5610	95.3700
 0.5620	95.3700
 0.5630	95.2600
 0.5640	95.3600
 0.5650	95.2000
 0.5660	95.3100
 0.5670	95.3600
 0.5680	95.2000
 0.5690	95.1400
 0.5700	94.9700
 0.5710	94.9700
 0.5720	95.0300
 0.5730	94.8600
 0.5740	94.9900
 0.5750	95.0500
 0.5760	94.9300
 0.5770	94.8800
 0.5780	94.7600
 0.5790	94.8800
 0.5800	95.0600
 0.5810	94.9400
 0.5820	95.0000
 0.5830	94.7600
 0.5840	94.7600
 0.5850	95.0000
 0.5860	94.8800
 0.5870	94.9400
 0.5880	95.0600
 0.5890	95.1800
 0.5900	95.1200
 0.5910	95.0000
 0.5920	95.1200
 0.5930	95.2400
 0.5940	95.1800
 0.5950	95.1200
 0.5960	95.0000
 0.5970	95.1200
 0.5980	95.2800
 0.5990	95.1100
 0.6000	95.2700
 0.6010	95.3800
 0.6020	95.2600
 0.6030	95.2000
 0.6040	95.1400
 0.6050	95.3700
 0.6060	95.3700
 0.6070	95.3100
 0.6080	95.3100
 0.6090	95.1400
 0.6100	95.2000
 0.6110	95.2500
 0.6120	95.2500
 0.6130	95.1900
 0.6140	95.3600
 0.6150	95.3000
 0.6160	95.2500
 0.6170	95.2000
 0.6180	95.1400
 0.6190	95.2000
 0.6200	95.1400
 0.6210	95.1400
 0.6220	95.0200
 0.6230	95.1300
 0.6240	95.2500
 0.6250	95.1400
 0.6260	95.1400
 0.6270	95.2500
 0.6280	95.1900
 0.6290	95.2000
 0.6300	95.0800
 0.6310	95.2000
 0.6320	95.3600
 0.6330	95.1400
 0.6340	95.1400
 0.6350	95.0200
 0.6360	95.0800
 0.6370	95.2500
 0.6380	95.1400
 0.6390	95.2500
 0.6400	95.3600
 0.6410	95.2500
 0.6420	95.2500
 0.6430	95.1400
 0.6440	95.1400
 0.6450	95.2600
 0.6460	95.1400
 0.6470	95.2000
 0.6480	95.1300
 0.6490	95.1400
 0.6500	95.2500
 0.6510	95.1400
 0.6520	95.3000
 0.6530	95.4700
 0.6540	95.3600
 0.6550	95.2500
 0.6560	95.2000
 0.6570	95.3100
 0.6580	95.4200
 0.6590	95.1400
 0.6600	95.2500
 0.6610	95.2500
 0.6620	95.1900
 0.6630	95.2500
 0.6640	95.1900
 0.6650	95.2500
 0.6660	95.4200
 0.6670	95.1900
 0.6680	95.1400
 0.6690	95.2500
 0.6700	95.2600
 0.6710	95.3600
 0.6720	95.1400
 0.6730	95.2500
 0.6740	95.3600
 0.6750	95.2500
 0.6760	95.2600
 0.6770	95.1400
 0.6780	95.2500
 0.6790	95.3000
 0.6800	95.1900
 0.6810	95.3600
 0.6820	95.4200
 0.6830	95.4200
 0.6840	95.3000
 0.6850	95.2500
 0.6860	95.2500
 0.6870	95.3600
 0.6880	95.3000
 0.6890	95.3000
 0.6900	95.3000
 0.6910	95.1300
 0.6920	95.3600
 0.6930	95.2000
 0.6940	95.4200
 0.6950	95.4800
 0.6960	95.3600
 0.6970	95.3600
 0.6980	95.2000
 0.6990	95.2600
 0.7000	95.3800
 0.7010	95.2600
 0.7020	95.3000
 0.7030	95.2000
 0.7040	95.4200
 0.7050	95.2500
 0.7060	95.3600
 0.7070	95.5300
 0.7080	95.3000
 0.7090	95.2500
 0.7100	95.2500
 0.7110	95.4200
 0.7120	95.4200
 0.7130	95.2500
 0.7140	95.3000
 0.7150	95.5300
 0.7160	95.2500
 0.7170	95.2500
 0.7180	95.2500
 0.7190	95.3600
 0.7200	95.4200
 0.7210	95.3600
 0.7220	95.2500
 0.7230	95.4200
 0.7240	95.3000
 0.7250	95.2500
 0.7260	95.2500
 0.7270	95.3000
 0.7280	95.4700
 0.7290	95.3000
 0.7300	95.2500
 0.7310	95.4100
 0.7320	95.3600
 0.7330	95.3000
 0.7340	95.3600
 0.7350	95.4200
 0.7360	95.4800
 0.7370	95.4200
 0.7380	95.3000
 0.7390	95.3600
 0.7400	95.2500
 0.7410	95.3600
 0.7420	95.1900
 0.7430	95.3600
 0.7440	95.4200
 0.7450	95.3000
 0.7460	95.1900
 0.7470	95.2500
 0.7480	95.1900
 0.7490	95.3000
 0.7500	95.0700
 0.7510	95.2500
 0.7520	95.3600
 0.7530	95.1400
 0.7540	95.0800
 0.7550	95.1900
 0.7560	95.1300
 0.7570	95.2500
 0.7580	95.1900
 0.7590	95.1300
 0.7600	95.3500
 0.7610	95.1300
 0.7620	95.1300
 0.7630	95.0800
 0.7640	95.0700
 0.7650	95.1900
 0.7660	95.0700
 0.7670	95.0100
 0.7680	95.1900
 0.7690	95.0700
 0.7700	95.0700
 0.7710	95.0800
 0.7720	95.1300
 0.7730	95.2900
 0.7740	95.2500
 0.7750	95.1300
 0.7760	95.2500
 0.7770	95.1300
 0.7780	95.0700
 0.7790	95.1300
 0.7800	95.1300
 0.7810	95.2900
 0.7820	95.1900
 0.7830	95.0100
 0.7840	95.2900
 0.7850	95.1900
 0.7860	95.2900
 0.7870	95.0700
 0.7880	95.2900
 0.7890	95.4100
 0.7900	95.2500
 0.7910	95.0700
 0.7920	95.2500
 0.7930	95.1900
 0.7940	95.3000
 0.7950	95.1900
 0.7960	95.3500
 0.7970	95.5300
 0.7980	95.3600
 0.7990	95.2600
 0.8000	95.3900
 0.8040	95.3900
 0.8080	95.3900
 0.8120	95.4600
 0.8160	95.4500
 0.8200	95.3400
 0.8240	95.3900
 0.8280	95.4500
 0.8320	95.4600
 0.8360	95.4600
 0.8400	95.4000
 0.8440	95.4000
 0.8480	95.4000
 0.8520	95.4000
 0.8560	95.4000
 0.8600	95.4600
 0.8640	95.4600
 0.8680	95.4600
 0.8720	95.5200
 0.8760	95.4600
 0.8800	95.4100
 0.8840	95.3400
 0.8880	95.3400
 0.8920	95.3400
 0.8960	95.3400
 0.9000	95.2300
 0.9040	95.1700
 0.9080	95.1700
 0.9120	95.1700
 0.9160	95.1100
 0.9200	95.1100
 0.9240	95.1100
 0.9280	95.1100
 0.9320	95.1100
 0.9360	95.0500
 0.9400	95.0600
 0.9440	94.9300
 0.9480	94.8100
 0.9520	94.8200
 0.9560	94.7500
 0.9600	94.5100
 0.9640	94.4500
 0.9680	94.2700
 0.9720	94.0900
 0.9760	93.9100
 0.9800	93.7300
 0.9840	93.5100
 0.9880	93.5000
 0.9920	93.4400
 0.9960	93.4500
 1.0000	93.5700
 1.0040	93.8500
 1.0080	93.9700
 1.0120	94.0900
 1.0160	94.1500
 1.0200	94.3900
 1.0240	94.5200
 1.0280	94.5200
 1.0320	94.6900
 1.0360	94.8100
 1.0400	94.9900
 1.0440	95.1100
 1.0480	95.1100
 1.0520	95.1100
 1.0560	95.0500
 1.0600	94.9900
 1.0640	95.1100
 1.0680	95.1700
 1.0720	95.0500
 1.0760	95.0400
 1.0800	95.0400
 1.0840	94.9700
 1.0880	94.9700
 1.0920	94.9100
 1.0960	94.9700
 1.1000	94.6800
 1.1040	94.7400
 1.1080	94.7300
 1.1120	94.6700
 1.1160	94.5600
 1.1200	94.6200
 1.1240	94.5600
 1.1280	94.5000
 1.1320	94.2700
 1.1360	94.1500
 1.1400	93.9700
 1.1440	93.7400
 1.1480	93.3300
 1.1520	92.9700
 1.1560	92.3700
 1.1600	91.8900
 1.1640	91.4000
 1.1680	90.8000
 1.1720	90.5000
 1.1760	90.1600
 1.1800	90.0900
 1.1840	90.0300
 1.1880	90.1400
 1.1920	90.0300
 1.1960	89.9500
 1.2000	89.8900
 1.2040	89.8500
 1.2080	90.0200
 1.2120	90.4400
 1.2160	90.5500
 1.2200	90.5000
 1.2240	90.5000
 1.2280	90.5700
 1.2320	90.7500
 1.2360	90.9400
 1.2400	91.2500
 1.2440	91.4300
 1.2480	91.5400
 1.2520	91.7200
 1.2560	91.7700
 1.2600	91.7600
 1.2640	91.8100
 1.2680	91.8200
 1.2720	91.8800
 1.2760	91.9300
 1.2800	92.0300
 1.2840	92.0200
 1.2880	91.9600
 1.2920	91.9600
 1.2960	91.8400
 1.3000	91.7200
 1.3040	91.5900
 1.3080	91.3400
 1.3120	91.1800
 1.3160	90.9400
 1.3200	90.7500
 1.3240	90.4000
 1.3280	90.1000
 1.3320	89.7600
 1.3360	89.2800
 1.3400	88.9700
 1.3440	88.4100
 1.3480	88.0000
 1.3520	87.5400
 1.3560	87.3200
 1.3600	87.0200
 1.3640	86.6200
 1.3680	86.3100
 1.3720	85.9600
 1.3760	85.7300
 1.3800	85.5400
 1.3840	85.3300
 1.3880	85.1900
 1.3920	84.7300
 1.3960	84.1600
 1.4000	83.5300
 1.4040	82.5200
 1.4080	81.3200
 1.4120	79.9600
 1.4160	78.4900
 1.4200	77.0300
 1.4240	75.8100
 1.4280	74.3900
 1.4320	72.6000
 1.4360	70.1900
 1.4400	68.1600
 1.4440	67.5800
 1.4480	68.6500
 1.4520	70.3400
 1.4560	71.6800
 1.4600	72.4100
 1.4640	72.8300
 1.4680	73.1900
 1.4720	73.3800
 1.4760	73.4000
 1.4800	73.0600
 1.4840	72.5400
 1.4880	72.4400
 1.4920	73.0500
 1.4960	74.1200
 1.5000	75.1200
 1.5040	76.0600
 1.5080	76.5200
 1.5120	76.7000
 1.5160	76.7600
 1.5200	76.7600
 1.5240	76.4100
 1.5280	76.0500
 1.5320	75.7800
 1.5360	75.9300
 1.5400	76.4900
 1.5440	77.1800
 1.5480	78.0900
 1.5520	79.0200
 1.5560	79.7200
 1.5600	80.4300
 1.5640	81.1000
 1.5680	81.5600
 1.5720	82.0900
 1.5760	82.4400
 1.5800	82.8300
 1.5840	83.1800
 1.5880	83.6300
 1.5920	83.9600
 1.5960	84.3500
 1.6000	84.8800
 1.6040	85.2300
 1.6080	85.6200
 1.6120	85.9600
 1.6160	86.3200
 1.6200	86.4900
 1.6240	86.7800
 1.6280	87.0600
 1.6320	87.4000
 1.6360	87.6400
 1.6400	87.8500
 1.6440	88.0600
 1.6480	88.2900
 1.6520	88.4600
 1.6560	88.6100
 1.6600	88.6100
 1.6640	88.7200
 1.6680	88.7200
 1.6720	88.6400
 1.6760	88.6200
 1.6800	88.5000
 1.6840	88.1500
 1.6880	87.8200
 1.6920	87.4100
 1.6960	86.8700
 1.7000	86.2500
 1.7040	85.3500
 1.7080	84.4600
 1.7120	83.4000
 1.7160	82.3900
 1.7200	81.2600
 1.7240	80.0300
 1.7280	78.8800
 1.7320	77.7900
 1.7360	76.8500
 1.7400	76.2000
 1.7440	75.8300
 1.7480	75.8400
 1.7520	76.1600
 1.7560	76.5600
 1.7600	76.9500
 1.7640	77.2600
 1.7680	77.2900
 1.7720	77.6300
 1.7760	77.9200
 1.7800	78.4700
 1.7840	79.0300
 1.7880	79.6600
 1.7920	80.2800
 1.7960	80.8700
 1.8000	81.3500
 1.8040	81.6400
 1.8080	81.8600
 1.8120	82.0100
 1.8160	82.3000
 1.8200	82.4600
 1.8240	82.4400
 1.8280	82.4200
 1.8320	82.3400
 1.8360	82.2400
 1.8400	81.8500
 1.8440	81.4800
 1.8480	80.8900
 1.8520	80.2900
 1.8560	79.4800
 1.8600	78.3400
 1.8640	76.8500
 1.8680	75.1500
 1.8720	73.2600
 1.8760	71.4700
 1.8800	69.5000
 1.8840	67.4500
 1.8880	65.3400
 1.8920	63.1700
 1.8960	60.8600
 1.9000	58.3700
 1.9040	55.7700
 1.9080	53.0300
 1.9120	50.3300
 1.9160	47.5300
 1.9200	44.5600
 1.9240	41.6500
 1.9280	38.8100
 1.9320	36.6800
 1.9360	35.4200
 1.9400	34.8600
 1.9440	35.3800
 1.9480	36.5500
 1.9520	38.2100
 1.9560	39.9900
 1.9600	41.4400
 1.9640	42.7100
 1.9680	43.7200
 1.9720	44.6100
 1.9760	45.7200
 1.9800	47.1200
 1.9840	48.9900
 1.9880	51.4400
 1.9920	54.0900
 1.9960	56.9500
 2.0000	59.6200
 2.0040	61.9700
 2.0080	64.1300
 2.0120	65.7600
 2.0160	67.0900
 2.0200	68.1800
 2.0240	69.0500
 2.0280	69.6200
 2.0320	70.3000
 2.0360	70.7500
 2.0400	71.1300
 2.0440	71.4100
 2.0480	71.5100
 2.0520	71.6100
 2.0560	71.6500
 2.0600	71.6500
 2.0640	71.6600
 2.0680	71.5200
 2.0720	71.5600
 2.0760	71.4500
 2.0800	71.3300
 2.0840	71.2000
 2.0880	70.8600
 2.0920	70.5700
 2.0960	70.2700
 2.1000	69.9300
 2.1040	69.4700
 2.1080	68.9900
 2.1120	68.5700
 2.1160	68.2200
 2.1200	67.9600
 2.1240	67.5200
 2.1280	67.0500
 2.1320	66.6500
 2.1360	66.2200
 2.1400	65.9400
 2.1440	65.4800
 2.1480	64.9100
 2.1520	64.3800
 2.1560	63.9700
 2.1600	63.5300
 2.1640	63.1900
 2.1680	62.8400
 2.1720	62.4700
 2.1760	62.2400
 2.1800	61.9600
 2.1840	61.8500
 2.1880	61.5100
 2.1920	61.2200
 2.1960	60.7600
 2.2000	60.3200
 2.2040	59.9400
 2.2080	59.6900
 2.2120	59.6100
 2.2160	59.6800
 2.2200	59.9900
 2.2240	60.4800
 2.2280	61.0800
 2.2320	61.5300
 2.2360	61.8500
 2.2400	61.9100
 2.2440	62.0900
 2.2480	62.0700
 2.2520	61.9800
 2.2560	61.8600
 2.2600	61.7800
 2.2640	61.7600
 2.2680	61.9900
 2.2720	62.2600
 2.2760	62.6000
 2.2800	62.9600
 2.2840	63.3200
 2.2880	63.7600
 2.2920	63.9500
 2.2960	64.1700
 2.3000	64.1800
 2.3040	64.2200
 2.3080	64.2600
 2.3120	64.1400
 2.3160	64.1700
 2.3200	64.0700
 2.3240	63.8800
 2.3280	63.6500
 2.3320	63.3600
 2.3360	62.9600
 2.3400	62.4500
 2.3440	62.1200
 2.3480	61.4100
 2.3520	60.7700
 2.3560	60.0200
 2.3600	59.1500
 2.3640	58.2900
 2.3680	57.2000
 2.3720	56.0900
 2.3760	54.8100
 2.3800	53.3900
 2.3840	52.0000
 2.3880	50.5000
 2.3920	48.9700
 2.3960	47.5300
 2.4000	46.2200
 2.4040	44.9700
 2.4080	43.8300
 2.4120	42.9400
 2.4160	41.9800
 2.4200	41.3300
 2.4240	40.8500
 2.4280	40.4200
 2.4320	40.0200
 2.4360	39.6900
 2.4400	39.3600
 2.4440	39.0900
 2.4480	38.8100
 2.4520	38.5000
 2.4560	38.0700
 2.4600	37.8300
 2.4640	37.5000
 2.4680	37.2800
 2.4720	37.0300
 2.4760	36.8600
 2.4800	36.7900
 2.4840	36.8000
 2.4880	36.9500
 2.4920	37.1100
 2.4960	37.2500
 2.5000	37.3700
