Name: Orthoclase (Feldspar) (K,Na)AlSi_3O_8
Type: Mineral
Class: Silicate
Subclass: Tectosilicate
Particle Size: Fine
Sample No.: TS-12A
Owner: JPL
Wavelength Range: VSWIR
Origin: India.
Collection Date: N/A
Description: Particle size was 0-45um.Collected by:  Burminco Original ASTER Spectral Library name was jpl.perkin.mineral.silicate.tectosilicate.fine.ts12a.spectrum.txt
Measurement: Hemispherical reflectance
First Column: X
Second Column: Y
X Units: Wavelength (micrometers)
Y Units:Reflectance (percent)
First X Value:  2.5000
Last X Value:  0.4000
Number of X Values: 2101
Additional Information: mineral.silicate.tectosilicate.fine.vswir.ts-12a.jpl.perkin.ancillary.txt

 2.5000	79.0126
 2.4990	79.0241
 2.4980	78.9577
 2.4970	79.1198
 2.4960	78.9787
 2.4950	78.9366
 2.4940	78.9893
 2.4930	78.9950
 2.4920	79.1252
 2.4910	79.1794
 2.4900	78.9408
 2.4890	78.8700
 2.4880	79.1100
 2.4870	79.0027
 2.4860	79.1741
 2.4850	79.0948
 2.4840	79.1158
 2.4830	78.9854
 2.4820	78.9449
 2.4810	79.2448
 2.4800	79.1134
 2.4790	79.1945
 2.4780	79.1779
 2.4770	79.1194
 2.4760	79.1956
 2.4750	79.1815
 2.4740	79.2803
 2.4730	79.2915
 2.4720	79.1879
 2.4710	79.2714
 2.4700	79.3505
 2.4690	79.2841
 2.4680	79.4914
 2.4670	79.3881
 2.4660	79.5553
 2.4650	79.5060
 2.4640	79.5282
 2.4630	79.4795
 2.4620	79.3899
 2.4610	79.4087
 2.4600	79.4884
 2.4590	79.3969
 2.4580	79.4532
 2.4570	79.4226
 2.4560	79.3746
 2.4550	79.4523
 2.4540	79.5242
 2.4530	79.5753
 2.4520	79.6416
 2.4510	79.4854
 2.4500	79.6598
 2.4490	79.5285
 2.4480	79.6272
 2.4470	79.6510
 2.4460	79.4802
 2.4450	79.5971
 2.4440	79.6448
 2.4430	79.6349
 2.4420	79.6380
 2.4410	79.8211
 2.4400	79.7024
 2.4390	79.8246
 2.4380	79.7949
 2.4370	79.7245
 2.4360	79.7215
 2.4350	79.8161
 2.4340	79.8834
 2.4330	79.8037
 2.4320	79.9448
 2.4310	79.9122
 2.4300	79.8744
 2.4290	79.9006
 2.4280	79.9107
 2.4270	79.9832
 2.4260	79.9821
 2.4250	79.9930
 2.4240	80.0148
 2.4230	80.0591
 2.4220	80.0295
 2.4210	80.0079
 2.4200	80.0931
 2.4190	80.0154
 2.4180	80.0837
 2.4170	80.0603
 2.4160	80.1701
 2.4150	80.0845
 2.4140	80.1280
 2.4130	80.2314
 2.4120	80.1894
 2.4110	80.1518
 2.4100	80.1833
 2.4090	80.2699
 2.4080	80.2000
 2.4070	80.2452
 2.4060	80.3383
 2.4050	80.2964
 2.4040	80.2948
 2.4030	80.3273
 2.4020	80.3892
 2.4010	80.3516
 2.4000	80.3892
 2.3990	80.3689
 2.3980	80.3459
 2.3970	80.3263
 2.3960	80.4039
 2.3950	80.5044
 2.3940	80.4556
 2.3930	80.4905
 2.3920	80.5409
 2.3910	80.5084
 2.3900	80.5569
 2.3890	80.6028
 2.3880	80.6247
 2.3870	80.5779
 2.3860	80.6212
 2.3850	80.6118
 2.3840	80.5854
 2.3830	80.6859
 2.3820	80.7189
 2.3810	80.7387
 2.3800	80.7201
 2.3790	80.7020
 2.3780	80.7448
 2.3770	80.7926
 2.3760	80.7461
 2.3750	80.7399
 2.3740	80.8190
 2.3730	80.8661
 2.3720	80.8867
 2.3710	80.9132
 2.3700	80.9013
 2.3690	80.8958
 2.3680	80.9267
 2.3670	80.8695
 2.3660	80.8704
 2.3650	80.9401
 2.3640	81.0098
 2.3630	81.0027
 2.3620	80.9798
 2.3610	81.0015
 2.3600	80.9889
 2.3590	80.9757
 2.3580	81.0223
 2.3570	81.0877
 2.3560	81.1195
 2.3550	81.1217
 2.3540	81.1291
 2.3530	81.1206
 2.3520	81.0704
 2.3510	81.0655
 2.3500	81.1190
 2.3490	81.1271
 2.3480	81.1401
 2.3470	81.1505
 2.3460	81.1048
 2.3450	81.1048
 2.3440	81.1379
 2.3430	81.1966
 2.3420	81.2253
 2.3410	81.2016
 2.3400	81.1808
 2.3390	81.1811
 2.3380	81.1759
 2.3370	81.1835
 2.3360	81.1824
 2.3350	81.1633
 2.3340	81.0902
 2.3330	81.1491
 2.3320	81.1234
 2.3310	81.0941
 2.3300	81.0680
 2.3290	81.0621
 2.3280	81.1076
 2.3270	81.1771
 2.3260	81.1928
 2.3250	81.1016
 2.3240	81.1113
 2.3230	81.1076
 2.3220	81.0776
 2.3210	81.0489
 2.3200	81.0367
 2.3190	81.0206
 2.3180	81.0348
 2.3170	80.9970
 2.3160	81.0227
 2.3150	81.0328
 2.3140	81.0789
 2.3130	81.0982
 2.3120	81.0486
 2.3110	81.0415
 2.3100	81.0736
 2.3090	81.0343
 2.3080	81.0074
 2.3070	80.9937
 2.3060	81.0245
 2.3050	81.0737
 2.3040	81.0268
 2.3030	80.9801
 2.3020	80.9270
 2.3010	80.9902
 2.3000	81.0236
 2.2990	80.9925
 2.2980	81.0247
 2.2970	80.9874
 2.2960	81.0494
 2.2950	81.0337
 2.2940	80.9753
 2.2930	80.9763
 2.2920	81.0010
 2.2910	80.9973
 2.2900	80.9695
 2.2890	81.0302
 2.2880	80.9871
 2.2870	80.9911
 2.2860	80.9613
 2.2850	80.9706
 2.2840	80.8679
 2.2830	80.9045
 2.2820	80.9325
 2.2810	80.9770
 2.2800	80.9549
 2.2790	80.8486
 2.2780	80.8957
 2.2770	80.8904
 2.2760	80.8778
 2.2750	80.8348
 2.2740	80.8966
 2.2730	80.9094
 2.2720	80.8319
 2.2710	80.8822
 2.2700	80.8116
 2.2690	80.8867
 2.2680	80.7867
 2.2670	80.9048
 2.2660	80.8300
 2.2650	80.8287
 2.2640	80.8094
 2.2630	80.8038
 2.2620	80.7987
 2.2610	80.8233
 2.2600	80.8811
 2.2590	80.8832
 2.2580	80.8695
 2.2570	80.8795
 2.2560	80.8381
 2.2550	80.8171
 2.2540	80.8699
 2.2530	80.8837
 2.2520	80.8379
 2.2510	80.7814
 2.2500	80.8634
 2.2490	80.8073
 2.2480	80.7846
 2.2470	80.8613
 2.2460	80.8451
 2.2450	80.7969
 2.2440	80.7556
 2.2430	80.9655
 2.2420	80.8380
 2.2410	80.8198
 2.2400	80.9152
 2.2390	80.9083
 2.2380	80.7951
 2.2370	80.7939
 2.2360	80.8757
 2.2350	80.9720
 2.2340	80.9477
 2.2330	80.8888
 2.2320	80.9156
 2.2310	80.8950
 2.2300	81.0225
 2.2290	80.9059
 2.2280	81.0337
 2.2270	80.8481
 2.2260	80.9596
 2.2250	80.9018
 2.2240	80.9331
 2.2230	81.0194
 2.2220	80.9702
 2.2210	81.0835
 2.2200	81.0349
 2.2190	81.0881
 2.2180	81.1069
 2.2170	81.1139
 2.2160	81.0764
 2.2150	81.0876
 2.2140	81.0870
 2.2130	81.2126
 2.2120	81.1649
 2.2110	81.2369
 2.2100	81.2473
 2.2090	81.2727
 2.2080	81.3241
 2.2070	81.3480
 2.2060	81.2633
 2.2050	81.3492
 2.2040	81.3380
 2.2030	81.3775
 2.2020	81.4411
 2.2010	81.4554
 2.2000	81.4657
 2.1990	81.4320
 2.1980	81.5417
 2.1970	81.5499
 2.1960	81.5053
 2.1950	81.5260
 2.1940	81.5335
 2.1930	81.5423
 2.1920	81.5434
 2.1910	81.5003
 2.1900	81.6725
 2.1890	81.6147
 2.1880	81.5959
 2.1870	81.6232
 2.1860	81.6421
 2.1850	81.7439
 2.1840	81.6640
 2.1830	81.8123
 2.1820	81.8695
 2.1810	81.8228
 2.1800	81.8744
 2.1790	81.8757
 2.1780	81.8081
 2.1770	81.9320
 2.1760	81.9689
 2.1750	81.9270
 2.1740	82.0353
 2.1730	81.9849
 2.1720	82.0507
 2.1710	82.0674
 2.1700	82.0056
 2.1690	82.1171
 2.1680	82.1594
 2.1670	82.1709
 2.1660	82.1510
 2.1650	82.1765
 2.1640	82.3358
 2.1630	82.3465
 2.1620	82.3408
 2.1610	82.3414
 2.1600	82.4413
 2.1590	82.4775
 2.1580	82.3775
 2.1570	82.3663
 2.1560	82.4937
 2.1550	82.5000
 2.1540	82.4596
 2.1530	82.5721
 2.1520	82.5619
 2.1510	82.4904
 2.1500	82.5197
 2.1490	82.4993
 2.1480	82.5129
 2.1470	82.5426
 2.1460	82.5263
 2.1450	82.6066
 2.1440	82.5924
 2.1430	82.5909
 2.1420	82.6057
 2.1410	82.6196
 2.1400	82.5860
 2.1390	82.6332
 2.1380	82.6207
 2.1370	82.6094
 2.1360	82.4838
 2.1350	82.4701
 2.1340	82.4683
 2.1330	82.4878
 2.1320	82.4702
 2.1310	82.3746
 2.1300	82.4180
 2.1290	82.4071
 2.1280	82.3405
 2.1270	82.2804
 2.1260	82.2234
 2.1250	82.2209
 2.1240	82.2119
 2.1230	82.1282
 2.1220	82.0914
 2.1210	82.0757
 2.1200	82.0137
 2.1190	82.0019
 2.1180	81.9453
 2.1170	81.9558
 2.1160	81.8571
 2.1150	81.7914
 2.1140	81.7236
 2.1130	81.7508
 2.1120	81.6994
 2.1110	81.5908
 2.1100	81.5546
 2.1090	81.5732
 2.1080	81.5376
 2.1070	81.4577
 2.1060	81.3993
 2.1050	81.3899
 2.1040	81.3499
 2.1030	81.2962
 2.1020	81.2566
 2.1010	81.2198
 2.1000	81.2360
 2.0990	81.2661
 2.0980	81.2290
 2.0970	81.1577
 2.0960	81.1948
 2.0950	81.2462
 2.0940	81.2416
 2.0930	81.2539
 2.0920	81.2914
 2.0910	81.2452
 2.0900	81.2811
 2.0890	81.3454
 2.0880	81.3169
 2.0870	81.2629
 2.0860	81.3293
 2.0850	81.3676
 2.0840	81.3392
 2.0830	81.3343
 2.0820	81.3641
 2.0810	81.3313
 2.0800	81.3719
 2.0790	81.3944
 2.0780	81.4247
 2.0770	81.4549
 2.0760	81.3938
 2.0750	81.3903
 2.0740	81.4133
 2.0730	81.4856
 2.0720	81.5109
 2.0710	81.4957
 2.0700	81.5175
 2.0690	81.4901
 2.0680	81.5100
 2.0670	81.5274
 2.0660	81.5605
 2.0650	81.5386
 2.0640	81.5161
 2.0630	81.5883
 2.0620	81.6077
 2.0610	81.5867
 2.0600	81.6142
 2.0590	81.6349
 2.0580	81.6291
 2.0570	81.6736
 2.0560	81.7056
 2.0550	81.6397
 2.0540	81.6782
 2.0530	81.7369
 2.0520	81.7133
 2.0510	81.6547
 2.0500	81.6113
 2.0490	81.6508
 2.0480	81.7429
 2.0470	81.7353
 2.0460	81.7269
 2.0450	81.7570
 2.0440	81.8278
 2.0430	81.8091
 2.0420	81.8113
 2.0410	81.8347
 2.0400	81.7736
 2.0390	81.7918
 2.0380	81.8221
 2.0370	81.7851
 2.0360	81.8122
 2.0350	81.7981
 2.0340	81.7771
 2.0330	81.8233
 2.0320	81.8747
 2.0310	81.8450
 2.0300	81.8357
 2.0290	81.8406
 2.0280	81.8047
 2.0270	81.8872
 2.0260	81.8657
 2.0250	81.8451
 2.0240	81.8319
 2.0230	81.8906
 2.0220	81.8685
 2.0210	81.8059
 2.0200	81.8103
 2.0190	81.7937
 2.0180	81.8522
 2.0170	81.8807
 2.0160	81.8510
 2.0150	81.8355
 2.0140	81.7922
 2.0130	81.8122
 2.0120	81.8662
 2.0110	81.7911
 2.0100	81.7898
 2.0090	81.7737
 2.0080	81.7762
 2.0070	81.8006
 2.0060	81.7606
 2.0050	81.8198
 2.0040	81.8211
 2.0030	81.7593
 2.0020	81.7693
 2.0010	81.8050
 2.0000	81.8275
 1.9990	81.8379
 1.9980	81.8181
 1.9970	81.8016
 1.9960	81.7081
 1.9950	81.7430
 1.9940	81.7564
 1.9930	81.7296
 1.9920	81.6727
 1.9910	81.7221
 1.9900	81.6489
 1.9890	81.6349
 1.9880	81.5803
 1.9870	81.5394
 1.9860	81.5725
 1.9850	81.5816
 1.9840	81.5419
 1.9830	81.5416
 1.9820	81.5451
 1.9810	81.5147
 1.9800	81.5184
 1.9790	81.4892
 1.9780	81.5932
 1.9770	81.4387
 1.9760	81.4348
 1.9750	81.4461
 1.9740	81.4125
 1.9730	81.3734
 1.9720	81.3947
 1.9710	81.3319
 1.9700	81.3169
 1.9690	81.3214
 1.9680	81.3684
 1.9670	81.3849
 1.9660	81.4233
 1.9650	81.3955
 1.9640	81.3373
 1.9630	81.3877
 1.9620	81.3317
 1.9610	81.3084
 1.9600	81.3096
 1.9590	81.3624
 1.9580	81.3258
 1.9570	81.2537
 1.9560	81.2818
 1.9550	81.2587
 1.9540	81.3919
 1.9530	81.3224
 1.9520	81.3299
 1.9510	81.2543
 1.9500	81.3085
 1.9490	81.2570
 1.9480	81.3333
 1.9470	81.2725
 1.9460	81.3156
 1.9450	81.1611
 1.9440	81.2539
 1.9430	81.2648
 1.9420	81.2101
 1.9410	81.2512
 1.9400	81.2676
 1.9390	81.2991
 1.9380	81.2711
 1.9370	81.2976
 1.9360	81.2102
 1.9350	81.1685
 1.9340	81.1420
 1.9330	81.1870
 1.9320	81.2490
 1.9310	81.1912
 1.9300	81.2164
 1.9290	81.2194
 1.9280	81.2312
 1.9270	81.1855
 1.9260	81.2224
 1.9250	81.2908
 1.9240	81.2121
 1.9230	81.2106
 1.9220	81.2966
 1.9210	81.2071
 1.9200	81.2705
 1.9190	81.1889
 1.9180	81.2774
 1.9170	81.2127
 1.9160	81.3099
 1.9150	81.2441
 1.9140	81.3788
 1.9130	81.2860
 1.9120	81.3463
 1.9110	81.3293
 1.9100	81.3796
 1.9090	81.4394
 1.9080	81.4322
 1.9070	81.3871
 1.9060	81.5732
 1.9050	81.5680
 1.9040	81.5786
 1.9030	81.5871
 1.9020	81.6700
 1.9010	81.6399
 1.9000	81.7076
 1.8990	81.7401
 1.8980	81.7094
 1.8970	81.7862
 1.8960	81.8209
 1.8950	81.8229
 1.8940	81.9398
 1.8930	81.9057
 1.8920	82.0261
 1.8910	81.9999
 1.8900	82.0435
 1.8890	81.9876
 1.8880	82.0812
 1.8870	82.1559
 1.8860	82.1480
 1.8850	82.0968
 1.8840	82.1590
 1.8830	82.0974
 1.8820	82.1745
 1.8810	82.2168
 1.8800	82.2170
 1.8790	82.2414
 1.8780	82.3035
 1.8770	82.2711
 1.8760	82.2455
 1.8750	82.3049
 1.8740	82.3023
 1.8730	82.3254
 1.8720	82.3745
 1.8710	82.3050
 1.8700	82.2891
 1.8690	82.2871
 1.8680	82.4585
 1.8670	82.4000
 1.8660	82.3631
 1.8650	82.4054
 1.8640	82.4671
 1.8630	82.4426
 1.8620	82.4865
 1.8610	82.4510
 1.8600	82.4354
 1.8590	82.3474
 1.8580	82.4923
 1.8570	82.4440
 1.8560	82.4888
 1.8550	82.5072
 1.8540	82.4987
 1.8530	82.4673
 1.8520	82.5269
 1.8510	82.5060
 1.8500	82.5246
 1.8490	82.5355
 1.8480	82.4915
 1.8470	82.4307
 1.8460	82.4587
 1.8450	82.5150
 1.8440	82.4769
 1.8430	82.4527
 1.8420	82.4827
 1.8410	82.5222
 1.8400	82.5220
 1.8390	82.5108
 1.8380	82.4929
 1.8370	82.4282
 1.8360	82.4751
 1.8350	82.4845
 1.8340	82.5438
 1.8330	82.6139
 1.8320	82.5674
 1.8310	82.5383
 1.8300	82.5016
 1.8290	82.5495
 1.8280	82.5850
 1.8270	82.5086
 1.8260	82.5126
 1.8250	82.5355
 1.8240	82.5175
 1.8230	82.5500
 1.8220	82.5272
 1.8210	82.4796
 1.8200	82.5303
 1.8190	82.6005
 1.8180	82.5875
 1.8170	82.5976
 1.8160	82.6036
 1.8150	82.5990
 1.8140	82.5184
 1.8130	82.5261
 1.8120	82.5339
 1.8110	82.5305
 1.8100	82.5904
 1.8090	82.6248
 1.8080	82.5670
 1.8070	82.5264
 1.8060	82.5633
 1.8050	82.5666
 1.8040	82.5746
 1.8030	82.6404
 1.8020	82.6029
 1.8010	82.5919
 1.8000	82.6320
 1.7990	82.6338
 1.7980	82.6450
 1.7970	82.6633
 1.7960	82.6239
 1.7950	82.5783
 1.7940	82.5535
 1.7930	82.5274
 1.7920	82.5262
 1.7910	82.5675
 1.7900	82.6125
 1.7890	82.5929
 1.7880	82.5799
 1.7870	82.6202
 1.7860	82.6478
 1.7850	82.5679
 1.7840	82.5008
 1.7830	82.5794
 1.7820	82.5794
 1.7810	82.5109
 1.7800	82.5227
 1.7790	82.5319
 1.7780	82.5502
 1.7770	82.5319
 1.7760	82.4796
 1.7750	82.5293
 1.7740	82.5563
 1.7730	82.5161
 1.7720	82.4722
 1.7710	82.5022
 1.7700	82.5244
 1.7690	82.5022
 1.7680	82.5298
 1.7670	82.5492
 1.7660	82.5535
 1.7650	82.5232
 1.7640	82.5041
 1.7630	82.5393
 1.7620	82.5102
 1.7610	82.4960
 1.7600	82.5453
 1.7590	82.5046
 1.7580	82.5431
 1.7570	82.5346
 1.7560	82.5173
 1.7550	82.5537
 1.7540	82.5972
 1.7530	82.5847
 1.7520	82.5511
 1.7510	82.5319
 1.7500	82.5481
 1.7490	82.5841
 1.7480	82.5619
 1.7470	82.6083
 1.7460	82.6458
 1.7450	82.5524
 1.7440	82.5907
 1.7430	82.6027
 1.7420	82.6020
 1.7410	82.6713
 1.7400	82.5958
 1.7390	82.5506
 1.7380	82.6347
 1.7370	82.6534
 1.7360	82.6402
 1.7350	82.6056
 1.7340	82.6259
 1.7330	82.6589
 1.7320	82.6272
 1.7310	82.6675
 1.7300	82.6310
 1.7290	82.6749
 1.7280	82.6457
 1.7270	82.6244
 1.7260	82.6432
 1.7250	82.6503
 1.7240	82.6132
 1.7230	82.6436
 1.7220	82.6219
 1.7210	82.6382
 1.7200	82.6859
 1.7190	82.6684
 1.7180	82.6438
 1.7170	82.6454
 1.7160	82.6094
 1.7150	82.6457
 1.7140	82.6236
 1.7130	82.6250
 1.7120	82.6585
 1.7110	82.5997
 1.7100	82.6506
 1.7090	82.6866
 1.7080	82.6083
 1.7070	82.5996
 1.7060	82.6346
 1.7050	82.5937
 1.7040	82.5978
 1.7030	82.5367
 1.7020	82.5694
 1.7010	82.5625
 1.7000	82.6064
 1.6990	82.6093
 1.6980	82.6191
 1.6970	82.6403
 1.6960	82.6396
 1.6950	82.6074
 1.6940	82.5902
 1.6930	82.7061
 1.6920	82.5767
 1.6910	82.6301
 1.6900	82.5790
 1.6890	82.6929
 1.6880	82.6582
 1.6870	82.6963
 1.6860	82.6200
 1.6850	82.6955
 1.6840	82.6546
 1.6830	82.5898
 1.6820	82.5924
 1.6810	82.5480
 1.6800	82.5806
 1.6790	82.6115
 1.6780	82.5385
 1.6770	82.6196
 1.6760	82.5860
 1.6750	82.6088
 1.6740	82.6501
 1.6730	82.6383
 1.6720	82.5974
 1.6710	82.6051
 1.6700	82.5774
 1.6690	82.5808
 1.6680	82.5566
 1.6670	82.7409
 1.6660	82.6705
 1.6650	82.6297
 1.6640	82.5949
 1.6630	82.6284
 1.6620	82.5645
 1.6610	82.5981
 1.6600	82.5798
 1.6590	82.6443
 1.6580	82.6453
 1.6570	82.6574
 1.6560	82.6370
 1.6550	82.6378
 1.6540	82.6079
 1.6530	82.6306
 1.6520	82.5875
 1.6510	82.6356
 1.6500	82.6008
 1.6490	82.6153
 1.6480	82.6626
 1.6470	82.6495
 1.6460	82.5594
 1.6450	82.6369
 1.6440	82.5691
 1.6430	82.6628
 1.6420	82.5898
 1.6410	82.5971
 1.6400	82.6051
 1.6390	82.5459
 1.6380	82.6925
 1.6370	82.6302
 1.6360	82.5475
 1.6350	82.6149
 1.6340	82.5987
 1.6330	82.6525
 1.6320	82.7258
 1.6310	82.6385
 1.6300	82.6069
 1.6290	82.6384
 1.6280	82.6458
 1.6270	82.6992
 1.6260	82.6600
 1.6250	82.6082
 1.6240	82.6758
 1.6230	82.5675
 1.6220	82.6496
 1.6210	82.6361
 1.6200	82.5837
 1.6190	82.6399
 1.6180	82.5595
 1.6170	82.6376
 1.6160	82.6432
 1.6150	82.6961
 1.6140	82.6362
 1.6130	82.6124
 1.6120	82.6467
 1.6110	82.7093
 1.6100	82.6465
 1.6090	82.7007
 1.6080	82.6849
 1.6070	82.7237
 1.6060	82.6848
 1.6050	82.6655
 1.6040	82.6445
 1.6030	82.7020
 1.6020	82.6612
 1.6010	82.6432
 1.6000	82.6608
 1.5990	82.6828
 1.5980	82.6463
 1.5970	82.6445
 1.5960	82.6055
 1.5950	82.6279
 1.5940	82.6457
 1.5930	82.6188
 1.5920	82.6278
 1.5910	82.6900
 1.5900	82.7596
 1.5890	82.6251
 1.5880	82.6012
 1.5870	82.6648
 1.5860	82.6533
 1.5850	82.6639
 1.5840	82.6655
 1.5830	82.6481
 1.5820	82.6133
 1.5810	82.6217
 1.5800	82.6330
 1.5790	82.6606
 1.5780	82.6698
 1.5770	82.7285
 1.5760	82.5963
 1.5750	82.5709
 1.5740	82.6534
 1.5730	82.6140
 1.5720	82.5485
 1.5710	82.6295
 1.5700	82.5997
 1.5690	82.6116
 1.5680	82.6492
 1.5670	82.5778
 1.5660	82.6553
 1.5650	82.6476
 1.5640	82.5876
 1.5630	82.6501
 1.5620	82.6197
 1.5610	82.6180
 1.5600	82.6637
 1.5590	82.6205
 1.5580	82.6439
 1.5570	82.5891
 1.5560	82.6380
 1.5550	82.6601
 1.5540	82.6676
 1.5530	82.6003
 1.5520	82.5622
 1.5510	82.6081
 1.5500	82.5647
 1.5490	82.6072
 1.5480	82.5935
 1.5470	82.6027
 1.5460	82.5898
 1.5450	82.5938
 1.5440	82.5976
 1.5430	82.6114
 1.5420	82.5864
 1.5410	82.5819
 1.5400	82.5704
 1.5390	82.5587
 1.5380	82.5422
 1.5370	82.5288
 1.5360	82.5462
 1.5350	82.5932
 1.5340	82.6280
 1.5330	82.5906
 1.5320	82.5785
 1.5310	82.6433
 1.5300	82.6275
 1.5290	82.6242
 1.5280	82.5533
 1.5270	82.5377
 1.5260	82.5398
 1.5250	82.5377
 1.5240	82.5209
 1.5230	82.5754
 1.5220	82.6038
 1.5210	82.5654
 1.5200	82.5424
 1.5190	82.5475
 1.5180	82.4997
 1.5170	82.4949
 1.5160	82.5138
 1.5150	82.5390
 1.5140	82.5351
 1.5130	82.5217
 1.5120	82.5443
 1.5110	82.5446
 1.5100	82.5123
 1.5090	82.5707
 1.5080	82.5212
 1.5070	82.5138
 1.5060	82.4896
 1.5050	82.4802
 1.5040	82.4968
 1.5030	82.5515
 1.5020	82.5850
 1.5010	82.5337
 1.5000	82.4871
 1.4990	82.4770
 1.4980	82.5626
 1.4970	82.5606
 1.4960	82.5320
 1.4950	82.5336
 1.4940	82.4732
 1.4930	82.4759
 1.4920	82.5089
 1.4910	82.4548
 1.4900	82.4582
 1.4890	82.4474
 1.4880	82.4529
 1.4870	82.4461
 1.4860	82.4488
 1.4850	82.4992
 1.4840	82.5213
 1.4830	82.4956
 1.4820	82.5443
 1.4810	82.5116
 1.4800	82.4515
 1.4790	82.4021
 1.4780	82.4408
 1.4770	82.4297
 1.4760	82.4268
 1.4750	82.4608
 1.4740	82.4341
 1.4730	82.3770
 1.4720	82.4365
 1.4710	82.4903
 1.4700	82.4626
 1.4690	82.4495
 1.4680	82.4219
 1.4670	82.4954
 1.4660	82.4459
 1.4650	82.3473
 1.4640	82.4396
 1.4630	82.4888
 1.4620	82.4154
 1.4610	82.4055
 1.4600	82.3848
 1.4590	82.4081
 1.4580	82.4431
 1.4570	82.4741
 1.4560	82.4615
 1.4550	82.3824
 1.4540	82.4157
 1.4530	82.4465
 1.4520	82.4223
 1.4510	82.3805
 1.4500	82.3601
 1.4490	82.3206
 1.4480	82.3739
 1.4470	82.4080
 1.4460	82.4539
 1.4450	82.4025
 1.4440	82.3663
 1.4430	82.3934
 1.4420	82.3958
 1.4410	82.3502
 1.4400	82.3165
 1.4390	82.3623
 1.4380	82.3947
 1.4370	82.4217
 1.4360	82.3552
 1.4350	82.3025
 1.4340	82.3562
 1.4330	82.3770
 1.4320	82.3667
 1.4310	82.3386
 1.4300	82.4143
 1.4290	82.4459
 1.4280	82.3657
 1.4270	82.3387
 1.4260	82.3278
 1.4250	82.3105
 1.4240	82.3141
 1.4230	82.3072
 1.4220	82.3609
 1.4210	82.4233
 1.4200	82.3430
 1.4190	82.3297
 1.4180	82.3303
 1.4170	82.3530
 1.4160	82.3534
 1.4150	82.4224
 1.4140	82.3332
 1.4130	82.3513
 1.4120	82.3706
 1.4110	82.3993
 1.4100	82.4070
 1.4090	82.3231
 1.4080	82.3727
 1.4070	82.4338
 1.4060	82.3244
 1.4050	82.4255
 1.4040	82.4485
 1.4030	82.3887
 1.4020	82.4187
 1.4010	82.4269
 1.4000	82.4209
 1.3990	82.3410
 1.3980	82.4517
 1.3970	82.4646
 1.3960	82.4885
 1.3950	82.4245
 1.3940	82.5276
 1.3930	82.5002
 1.3920	82.5784
 1.3910	82.5252
 1.3900	82.5527
 1.3890	82.5505
 1.3880	82.5515
 1.3870	82.5059
 1.3860	82.4955
 1.3850	82.5246
 1.3840	82.5920
 1.3830	82.6190
 1.3820	82.5609
 1.3810	82.4515
 1.3800	82.5551
 1.3790	82.4893
 1.3780	82.5232
 1.3770	82.5629
 1.3760	82.6037
 1.3750	82.6250
 1.3740	82.5687
 1.3730	82.5108
 1.3720	82.5393
 1.3710	82.5135
 1.3700	82.5055
 1.3690	82.4736
 1.3680	82.6079
 1.3670	82.4945
 1.3660	82.5233
 1.3650	82.5887
 1.3640	82.5650
 1.3630	82.6060
 1.3620	82.5375
 1.3610	82.4165
 1.3600	82.5020
 1.3590	82.5122
 1.3580	82.5888
 1.3570	82.5343
 1.3560	82.5611
 1.3550	82.5314
 1.3540	82.4837
 1.3530	82.4356
 1.3520	82.5329
 1.3510	82.5170
 1.3500	82.5562
 1.3490	82.4915
 1.3480	82.4935
 1.3470	82.4900
 1.3460	82.4478
 1.3450	82.5482
 1.3440	82.5040
 1.3430	82.5067
 1.3420	82.5002
 1.3410	82.4992
 1.3400	82.4262
 1.3390	82.4218
 1.3380	82.5009
 1.3370	82.5961
 1.3360	82.3806
 1.3350	82.5344
 1.3340	82.4839
 1.3330	82.4779
 1.3320	82.5431
 1.3310	82.5104
 1.3300	82.5382
 1.3290	82.4500
 1.3280	82.5091
 1.3270	82.4672
 1.3260	82.4585
 1.3250	82.4633
 1.3240	82.5123
 1.3230	82.5005
 1.3220	82.5645
 1.3210	82.4646
 1.3200	82.4661
 1.3190	82.4379
 1.3180	82.4479
 1.3170	82.3885
 1.3160	82.4851
 1.3150	82.4922
 1.3140	82.4764
 1.3130	82.4782
 1.3120	82.4774
 1.3110	82.4804
 1.3100	82.3889
 1.3090	82.5209
 1.3080	82.4616
 1.3070	82.4733
 1.3060	82.4867
 1.3050	82.4449
 1.3040	82.4479
 1.3030	82.4263
 1.3020	82.4761
 1.3010	82.4971
 1.3000	82.4739
 1.2990	82.4760
 1.2980	82.4247
 1.2970	82.4725
 1.2960	82.4758
 1.2950	82.5252
 1.2940	82.4441
 1.2930	82.4843
 1.2920	82.4708
 1.2910	82.4141
 1.2900	82.3905
 1.2890	82.4278
 1.2880	82.4205
 1.2870	82.3454
 1.2860	82.3916
 1.2850	82.4164
 1.2840	82.4343
 1.2830	82.4685
 1.2820	82.3907
 1.2810	82.4013
 1.2800	82.3666
 1.2790	82.4328
 1.2780	82.4394
 1.2770	82.3987
 1.2760	82.4352
 1.2750	82.3531
 1.2740	82.3663
 1.2730	82.4088
 1.2720	82.3324
 1.2710	82.3379
 1.2700	82.3925
 1.2690	82.3813
 1.2680	82.4424
 1.2670	82.4247
 1.2660	82.3682
 1.2650	82.3197
 1.2640	82.3510
 1.2630	82.3208
 1.2620	82.3483
 1.2610	82.3561
 1.2600	82.3574
 1.2590	82.3436
 1.2580	82.3857
 1.2570	82.3856
 1.2560	82.3697
 1.2550	82.3657
 1.2540	82.3273
 1.2530	82.3556
 1.2520	82.3845
 1.2510	82.3848
 1.2500	82.3326
 1.2490	82.3340
 1.2480	82.3440
 1.2470	82.3506
 1.2460	82.3099
 1.2450	82.2995
 1.2440	82.3271
 1.2430	82.3360
 1.2420	82.3698
 1.2410	82.3382
 1.2400	82.2831
 1.2390	82.2597
 1.2380	82.3169
 1.2370	82.3421
 1.2360	82.3615
 1.2350	82.3415
 1.2340	82.3731
 1.2330	82.3178
 1.2320	82.3166
 1.2310	82.2848
 1.2300	82.2894
 1.2290	82.3722
 1.2280	82.3432
 1.2270	82.3381
 1.2260	82.3654
 1.2250	82.3521
 1.2240	82.3181
 1.2230	82.3045
 1.2220	82.3579
 1.2210	82.3543
 1.2200	82.2977
 1.2190	82.1996
 1.2180	82.2386
 1.2170	82.2949
 1.2160	82.2879
 1.2150	82.3055
 1.2140	82.3222
 1.2130	82.3291
 1.2120	82.2812
 1.2110	82.2274
 1.2100	82.2354
 1.2090	82.2481
 1.2080	82.2713
 1.2070	82.2931
 1.2060	82.2559
 1.2050	82.2403
 1.2040	82.2511
 1.2030	82.3216
 1.2020	82.3313
 1.2010	82.2254
 1.2000	82.2067
 1.1990	82.3001
 1.1980	82.2859
 1.1970	82.1795
 1.1960	82.1883
 1.1950	82.2748
 1.1940	82.2650
 1.1930	82.1982
 1.1920	82.2421
 1.1910	82.2751
 1.1900	82.2284
 1.1890	82.2406
 1.1880	82.2534
 1.1870	82.2319
 1.1860	82.2340
 1.1850	82.2336
 1.1840	82.2131
 1.1830	82.2597
 1.1820	82.2310
 1.1810	82.2156
 1.1800	82.2416
 1.1790	82.2655
 1.1780	82.2467
 1.1770	82.3115
 1.1760	82.2825
 1.1750	82.2070
 1.1740	82.1515
 1.1730	82.2282
 1.1720	82.2305
 1.1710	82.2216
 1.1700	82.1877
 1.1690	82.2051
 1.1680	82.2444
 1.1670	82.2085
 1.1660	82.1819
 1.1650	82.1965
 1.1640	82.1690
 1.1630	82.2139
 1.1620	82.2737
 1.1610	82.2455
 1.1600	82.2613
 1.1590	82.2175
 1.1580	82.2735
 1.1570	82.2309
 1.1560	82.1945
 1.1550	82.2120
 1.1540	82.2443
 1.1530	82.3157
 1.1520	82.2330
 1.1510	82.2368
 1.1500	82.2746
 1.1490	82.2480
 1.1480	82.2202
 1.1470	82.2291
 1.1460	82.2451
 1.1450	82.2032
 1.1440	82.2161
 1.1430	82.2443
 1.1420	82.2641
 1.1410	82.2392
 1.1400	82.2223
 1.1390	82.2266
 1.1380	82.2283
 1.1370	82.2731
 1.1360	82.2872
 1.1350	82.2117
 1.1340	82.2324
 1.1330	82.2427
 1.1320	82.2458
 1.1310	82.1994
 1.1300	82.2336
 1.1290	82.2166
 1.1280	82.3193
 1.1270	82.2737
 1.1260	82.1792
 1.1250	82.2167
 1.1240	82.2350
 1.1230	82.2083
 1.1220	82.2469
 1.1210	82.2881
 1.1200	82.2593
 1.1190	82.1842
 1.1180	82.1714
 1.1170	82.2088
 1.1160	82.2124
 1.1150	82.2880
 1.1140	82.2443
 1.1130	82.2919
 1.1120	82.2641
 1.1110	82.1905
 1.1100	82.1994
 1.1090	82.2364
 1.1080	82.2520
 1.1070	82.1994
 1.1060	82.2261
 1.1050	82.2211
 1.1040	82.2463
 1.1030	82.1633
 1.1020	82.1589
 1.1010	82.2040
 1.1000	82.2238
 1.0990	82.2038
 1.0980	82.2573
 1.0970	82.2239
 1.0960	82.2511
 1.0950	82.2829
 1.0940	82.2393
 1.0930	82.2742
 1.0920	82.2177
 1.0910	82.1954
 1.0900	82.2170
 1.0890	82.1204
 1.0880	82.2187
 1.0870	82.1695
 1.0860	82.0875
 1.0850	82.2304
 1.0840	82.1823
 1.0830	82.1440
 1.0820	82.2965
 1.0810	82.2132
 1.0800	82.1755
 1.0790	82.2641
 1.0780	82.2745
 1.0770	82.2372
 1.0760	82.2067
 1.0750	82.1790
 1.0740	82.2007
 1.0730	82.2241
 1.0720	82.2109
 1.0710	82.2239
 1.0700	82.1493
 1.0690	82.2366
 1.0680	82.2160
 1.0670	82.1746
 1.0660	82.2518
 1.0650	82.2346
 1.0640	82.1914
 1.0630	82.2577
 1.0620	82.1334
 1.0610	82.1753
 1.0600	82.2116
 1.0590	82.2548
 1.0580	82.1819
 1.0570	82.2105
 1.0560	82.2350
 1.0550	82.2787
 1.0540	82.2276
 1.0530	82.1940
 1.0520	82.3105
 1.0510	82.1573
 1.0500	82.1477
 1.0490	82.2105
 1.0480	82.2490
 1.0470	82.1875
 1.0460	82.2326
 1.0450	82.2981
 1.0440	82.2114
 1.0430	82.2535
 1.0420	82.2312
 1.0410	82.2231
 1.0400	82.2088
 1.0390	82.2402
 1.0380	82.2056
 1.0370	82.2288
 1.0360	82.1872
 1.0350	82.2306
 1.0340	82.2854
 1.0330	82.2072
 1.0320	82.2518
 1.0310	82.2368
 1.0300	82.2755
 1.0290	82.2910
 1.0280	82.2650
 1.0270	82.3527
 1.0260	82.2206
 1.0250	82.2571
 1.0240	82.3115
 1.0230	82.3154
 1.0220	82.2094
 1.0210	82.2287
 1.0200	82.3284
 1.0190	82.3042
 1.0180	82.2588
 1.0170	82.2394
 1.0160	82.2524
 1.0150	82.2702
 1.0140	82.2171
 1.0130	82.2996
 1.0120	82.2481
 1.0110	82.2339
 1.0100	82.2748
 1.0090	82.2485
 1.0080	82.3465
 1.0070	82.2743
 1.0060	82.2222
 1.0050	82.2158
 1.0040	82.2463
 1.0030	82.2190
 1.0020	82.2293
 1.0010	82.2775
 1.0000	82.2597
 0.9990	82.2293
 0.9980	82.2368
 0.9970	82.2392
 0.9960	82.2197
 0.9950	82.2380
 0.9940	82.2072
 0.9930	82.2071
 0.9920	82.2463
 0.9910	82.2875
 0.9900	82.2943
 0.9890	82.2549
 0.9880	82.2356
 0.9870	82.3056
 0.9860	82.2941
 0.9850	82.3304
 0.9840	82.2490
 0.9830	82.2569
 0.9820	82.2214
 0.9810	82.2511
 0.9800	82.2583
 0.9790	82.2485
 0.9780	82.2350
 0.9770	82.2483
 0.9760	82.2504
 0.9750	82.2708
 0.9740	82.2093
 0.9730	82.2141
 0.9720	82.2399
 0.9710	82.2966
 0.9700	82.1810
 0.9690	82.2410
 0.9680	82.2319
 0.9670	82.2169
 0.9660	82.2724
 0.9650	82.2886
 0.9640	82.2391
 0.9630	82.2692
 0.9620	82.2986
 0.9610	82.2933
 0.9600	82.2894
 0.9590	82.1829
 0.9580	82.2079
 0.9570	82.2596
 0.9560	82.3034
 0.9550	82.2882
 0.9540	82.2934
 0.9530	82.2886
 0.9520	82.2387
 0.9510	82.2609
 0.9500	82.3093
 0.9490	82.2592
 0.9480	82.2524
 0.9470	82.3515
 0.9460	82.3548
 0.9450	82.3266
 0.9440	82.3202
 0.9430	82.3028
 0.9420	82.3197
 0.9410	82.2901
 0.9400	82.2878
 0.9390	82.3130
 0.9380	82.2734
 0.9370	82.2201
 0.9360	82.2398
 0.9350	82.2824
 0.9340	82.2313
 0.9330	82.2298
 0.9320	82.2903
 0.9310	82.2892
 0.9300	82.2390
 0.9290	82.2814
 0.9280	82.2822
 0.9270	82.2440
 0.9260	82.3114
 0.9250	82.3162
 0.9240	82.2300
 0.9230	82.1963
 0.9220	82.2239
 0.9210	82.2456
 0.9200	82.2780
 0.9190	82.3033
 0.9180	82.2838
 0.9170	82.3129
 0.9160	82.3205
 0.9150	82.3180
 0.9140	82.3165
 0.9130	82.2453
 0.9120	82.2552
 0.9110	82.2944
 0.9100	82.2792
 0.9090	82.2879
 0.9080	82.2430
 0.9070	82.2534
 0.9060	82.2890
 0.9050	82.2701
 0.9040	82.2879
 0.9030	82.2351
 0.9020	82.2576
 0.9010	82.2786
 0.9000	82.3139
 0.8990	82.2940
 0.8980	82.3280
 0.8970	82.3161
 0.8960	82.2443
 0.8950	82.2402
 0.8940	82.2968
 0.8930	82.2417
 0.8920	82.2013
 0.8910	82.2670
 0.8900	82.2590
 0.8890	82.2356
 0.8880	82.2814
 0.8870	82.2919
 0.8860	82.2438
 0.8850	82.3269
 0.8840	82.2452
 0.8830	82.2096
 0.8820	82.2820
 0.8810	82.3040
 0.8800	82.2742
 0.8790	82.2928
 0.8780	82.2699
 0.8770	82.2821
 0.8760	82.3377
 0.8750	82.2751
 0.8740	82.2702
 0.8730	82.3195
 0.8720	82.3312
 0.8710	82.2896
 0.8700	82.2895
 0.8690	82.2519
 0.8680	82.2523
 0.8670	82.2784
 0.8660	82.3322
 0.8650	82.2973
 0.8640	82.2495
 0.8630	82.3326
 0.8620	82.3384
 0.8610	82.2733
 0.8600	82.2372
 0.8590	82.3520
 0.8580	82.4327
 0.8570	82.3420
 0.8560	82.4136
 0.8550	82.3605
 0.8540	82.3408
 0.8530	82.3423
 0.8520	82.4198
 0.8510	82.3591
 0.8500	82.4175
 0.8490	82.4640
 0.8480	82.3579
 0.8470	82.3591
 0.8460	82.4500
 0.8450	82.4238
 0.8440	82.3780
 0.8430	82.4072
 0.8420	82.4307
 0.8410	82.3621
 0.8400	82.4375
 0.8390	82.4023
 0.8380	82.3892
 0.8370	82.4460
 0.8360	82.4260
 0.8350	82.4011
 0.8340	82.4235
 0.8330	82.3964
 0.8320	82.4087
 0.8310	82.4143
 0.8300	82.4338
 0.8290	82.3704
 0.8280	82.3764
 0.8270	82.4618
 0.8260	82.4250
 0.8250	82.3943
 0.8240	82.4331
 0.8230	82.4274
 0.8220	82.3513
 0.8210	82.4346
 0.8200	82.4029
 0.8190	82.3701
 0.8180	82.3941
 0.8170	82.3387
 0.8160	82.4242
 0.8150	82.4415
 0.8140	82.3748
 0.8130	82.4471
 0.8120	82.4624
 0.8110	82.4325
 0.8100	82.4360
 0.8090	82.4597
 0.8080	82.4432
 0.8070	82.4164
 0.8060	82.4313
 0.8050	82.4028
 0.8040	82.4390
 0.8030	82.4358
 0.8020	82.4331
 0.8010	82.4268
 0.8000	82.4127
 0.7990	82.3672
 0.7980	82.3805
 0.7970	82.4152
 0.7960	82.3299
 0.7950	82.3330
 0.7940	82.3608
 0.7930	82.3423
 0.7920	82.2807
 0.7910	82.3235
 0.7900	82.3138
 0.7890	82.3416
 0.7880	82.3190
 0.7870	82.3321
 0.7860	82.2532
 0.7850	82.3112
 0.7840	82.2816
 0.7830	82.3295
 0.7820	82.3230
 0.7810	82.3423
 0.7800	82.3152
 0.7790	82.2763
 0.7780	82.2982
 0.7770	82.2963
 0.7760	82.2822
 0.7750	82.2527
 0.7740	82.2894
 0.7730	82.2533
 0.7720	82.2692
 0.7710	82.2304
 0.7700	82.2778
 0.7690	82.2690
 0.7680	82.2304
 0.7670	82.2158
 0.7660	82.2504
 0.7650	82.2264
 0.7640	82.2270
 0.7630	82.2286
 0.7620	82.2353
 0.7610	82.2238
 0.7600	82.2774
 0.7590	82.2231
 0.7580	82.2232
 0.7570	82.2093
 0.7560	82.2365
 0.7550	82.1846
 0.7540	82.2146
 0.7530	82.2052
 0.7520	82.1817
 0.7510	82.2209
 0.7500	82.2305
 0.7490	82.2098
 0.7480	82.1911
 0.7470	82.2100
 0.7460	82.1906
 0.7450	82.1802
 0.7440	82.1897
 0.7430	82.1817
 0.7420	82.1742
 0.7410	82.1762
 0.7400	82.1704
 0.7390	82.1521
 0.7380	82.1612
 0.7370	82.1797
 0.7360	82.1405
 0.7350	82.1626
 0.7340	82.1335
 0.7330	82.1610
 0.7320	82.1433
 0.7310	82.1524
 0.7300	82.1401
 0.7290	82.1432
 0.7280	82.1467
 0.7270	82.0955
 0.7260	82.1393
 0.7250	82.1525
 0.7240	82.1145
 0.7230	82.0734
 0.7220	82.0933
 0.7210	82.0986
 0.7200	82.0956
 0.7190	82.1308
 0.7180	82.1272
 0.7170	82.0868
 0.7160	82.1097
 0.7150	82.1208
 0.7140	82.1069
 0.7130	82.0963
 0.7120	82.0753
 0.7110	82.0593
 0.7100	82.0738
 0.7090	82.1026
 0.7080	82.0748
 0.7070	82.0733
 0.7060	82.0802
 0.7050	82.0366
 0.7040	82.0332
 0.7030	82.0171
 0.7020	82.0418
 0.7010	82.0657
 0.7000	82.0635
 0.6990	82.0197
 0.6980	82.0231
 0.6970	81.9931
 0.6960	81.9852
 0.6950	81.9994
 0.6940	82.0080
 0.6930	82.0116
 0.6920	82.0003
 0.6910	82.0044
 0.6900	81.9974
 0.6890	81.9912
 0.6880	81.9983
 0.6870	82.0001
 0.6860	81.9836
 0.6850	81.9683
 0.6840	81.9676
 0.6830	81.9587
 0.6820	81.9499
 0.6810	81.9487
 0.6800	81.9358
 0.6790	81.9526
 0.6780	81.9399
 0.6770	81.9197
 0.6760	81.9349
 0.6750	81.9263
 0.6740	81.9216
 0.6730	81.9244
 0.6720	81.9232
 0.6710	81.9123
 0.6700	81.9140
 0.6690	81.9149
 0.6680	81.8982
 0.6670	81.9005
 0.6660	81.9026
 0.6650	81.8762
 0.6640	81.8755
 0.6630	81.8868
 0.6620	81.8718
 0.6610	81.8625
 0.6600	81.8547
 0.6590	81.8637
 0.6580	81.8848
 0.6570	81.8601
 0.6560	81.8504
 0.6550	81.8399
 0.6540	81.8319
 0.6530	81.8269
 0.6520	81.8178
 0.6510	81.8205
 0.6500	81.8116
 0.6490	81.8139
 0.6480	81.8219
 0.6470	81.8106
 0.6460	81.7889
 0.6450	81.7913
 0.6440	81.8001
 0.6430	81.7957
 0.6420	81.7900
 0.6410	81.7949
 0.6400	81.7749
 0.6390	81.7530
 0.6380	81.7461
 0.6370	81.7427
 0.6360	81.7480
 0.6350	81.7502
 0.6340	81.7322
 0.6330	81.7213
 0.6320	81.7249
 0.6310	81.7291
 0.6300	81.7273
 0.6290	81.7242
 0.6280	81.7231
 0.6270	81.7181
 0.6260	81.7176
 0.6250	81.7017
 0.6240	81.6780
 0.6230	81.6752
 0.6220	81.6683
 0.6210	81.6706
 0.6200	81.6726
 0.6190	81.6633
 0.6180	81.6541
 0.6170	81.6390
 0.6160	81.6288
 0.6150	81.6436
 0.6140	81.6377
 0.6130	81.6304
 0.6120	81.6119
 0.6110	81.5962
 0.6100	81.5948
 0.6090	81.5845
 0.6080	81.5786
 0.6070	81.5716
 0.6060	81.5630
 0.6050	81.5616
 0.6040	81.5520
 0.6030	81.5583
 0.6020	81.5386
 0.6010	81.5311
 0.6000	81.5242
 0.5990	81.5314
 0.5980	81.5526
 0.5970	81.5669
 0.5960	81.5621
 0.5950	81.5688
 0.5940	81.5545
 0.5930	81.5483
 0.5920	81.5470
 0.5910	81.5298
 0.5900	81.5225
 0.5890	81.5134
 0.5880	81.4864
 0.5870	81.4674
 0.5860	81.4770
 0.5850	81.4775
 0.5840	81.4763
 0.5830	81.4613
 0.5820	81.4526
 0.5810	81.4320
 0.5800	81.4261
 0.5790	81.4030
 0.5780	81.3993
 0.5770	81.3740
 0.5760	81.3510
 0.5750	81.3411
 0.5740	81.3374
 0.5730	81.3289
 0.5720	81.3131
 0.5710	81.2922
 0.5700	81.2738
 0.5690	81.2569
 0.5680	81.2561
 0.5670	81.2432
 0.5660	81.2327
 0.5650	81.2122
 0.5640	81.1868
 0.5630	81.1756
 0.5620	81.1711
 0.5610	81.1391
 0.5600	81.1082
 0.5590	81.0973
 0.5580	81.1000
 0.5570	81.0712
 0.5560	81.0481
 0.5550	81.0421
 0.5540	81.0109
 0.5530	80.9929
 0.5520	80.9694
 0.5510	80.9316
 0.5500	80.9297
 0.5490	80.9055
 0.5480	80.8976
 0.5470	80.8875
 0.5460	80.8497
 0.5450	80.8421
 0.5440	80.8167
 0.5430	80.8001
 0.5420	80.7815
 0.5410	80.7629
 0.5400	80.7526
 0.5390	80.7418
 0.5380	80.7127
 0.5370	80.6843
 0.5360	80.6700
 0.5350	80.6396
 0.5340	80.6151
 0.5330	80.6131
 0.5320	80.5771
 0.5310	80.5565
 0.5300	80.5437
 0.5290	80.5261
 0.5280	80.4993
 0.5270	80.4908
 0.5260	80.4704
 0.5250	80.4368
 0.5240	80.4216
 0.5230	80.3966
 0.5220	80.3779
 0.5210	80.3478
 0.5200	80.3371
 0.5190	80.3043
 0.5180	80.2798
 0.5170	80.2674
 0.5160	80.2353
 0.5150	80.2097
 0.5140	80.2152
 0.5130	80.1712
 0.5120	80.1477
 0.5110	80.1262
 0.5100	80.1017
 0.5090	80.0922
 0.5080	80.0545
 0.5070	80.0423
 0.5060	80.0192
 0.5050	79.9726
 0.5040	79.9400
 0.5030	79.9291
 0.5020	79.8954
 0.5010	79.8871
 0.5000	79.8640
 0.4990	79.8102
 0.4980	79.7949
 0.4970	79.7749
 0.4960	79.7395
 0.4950	79.7229
 0.4940	79.7085
 0.4930	79.6671
 0.4920	79.6254
 0.4910	79.5946
 0.4900	79.5701
 0.4890	79.5595
 0.4880	79.4992
 0.4870	79.4979
 0.4860	79.4460
 0.4850	79.4177
 0.4840	79.3995
 0.4830	79.3992
 0.4820	79.3690
 0.4810	79.3301
 0.4800	79.2690
 0.4790	79.2804
 0.4780	79.2488
 0.4770	79.2303
 0.4760	79.1983
 0.4750	79.1735
 0.4740	79.1671
 0.4730	79.1450
 0.4720	79.1086
 0.4710	79.0773
 0.4700	79.0368
 0.4690	79.0370
 0.4680	79.0177
 0.4670	79.0014
 0.4660	78.9675
 0.4650	78.9385
 0.4640	78.9055
 0.4630	78.8612
 0.4620	78.8439
 0.4610	78.8154
 0.4600	78.7708
 0.4590	78.7542
 0.4580	78.7234
 0.4570	78.7077
 0.4560	78.6663
 0.4550	78.6279
 0.4540	78.6165
 0.4530	78.5834
 0.4520	78.5344
 0.4510	78.4824
 0.4500	78.4617
 0.4490	78.4252
 0.4480	78.3720
 0.4470	78.3428
 0.4460	78.3105
 0.4450	78.2684
 0.4440	78.2227
 0.4430	78.1892
 0.4420	78.1424
 0.4410	78.1140
 0.4400	78.0674
 0.4390	78.0163
 0.4380	77.9655
 0.4370	77.9368
 0.4360	77.9091
 0.4350	77.8414
 0.4340	77.8191
 0.4330	77.7716
 0.4320	77.7203
 0.4310	77.6783
 0.4300	77.6372
 0.4290	77.5914
 0.4280	77.5567
 0.4270	77.5015
 0.4260	77.4556
 0.4250	77.3765
 0.4240	77.3658
 0.4230	77.3533
 0.4220	77.2773
 0.4210	77.2419
 0.4200	77.2089
 0.4190	77.1568
 0.4180	77.0991
 0.4170	77.0731
 0.4160	77.0196
 0.4150	76.9879
 0.4140	76.9632
 0.4130	76.9154
 0.4120	76.8574
 0.4110	76.8428
 0.4100	76.8203
 0.4090	76.7735
 0.4080	76.7237
 0.4070	76.6822
 0.4060	76.6466
 0.4050	76.6140
 0.4040	76.5662
 0.4030	76.5118
 0.4020	76.4841
 0.4010	76.4367
 0.4000	76.3811
