Name: Sodalite Na_8Al_6Si_6O_24Cl_2
Type: Mineral
Class: Silicate
Subclass: Tectosilicate
Particle Size: Fine
Sample No.: TS-10A
Owner: JPL
Wavelength Range: VSWIR
Origin: Canada, Ontario, Hastings County, Bancroft
Collection Date: N/A
Description: Particle size was 0-45um.Collected by JPL Original ASTER Spectral Library name was jpl.beckman.mineral.silicate.tectosilicate.fine.ts10a.spectrum.txt
Measurement: Hemispherical reflectance
First Column: X
Second Column: Y
X Units: Wavelength (micrometers)
Y Units:Reflectance (percent)
First X Value:  0.4000
Last X Value:  2.5000
Number of X Values: 826
Additional Information: mineral.silicate.tectosilicate.fine.vswir.ts-10a.jpl.beckman.ancillary.txt

 0.4000	59.6500
 0.4010	59.9400
 0.4020	60.2400
 0.4030	60.2800
 0.4040	60.2900
 0.4050	60.5400
 0.4060	60.7400
 0.4070	60.7400
 0.4080	60.8200
 0.4090	60.9800
 0.4100	61.0800
 0.4110	61.2600
 0.4120	61.2600
 0.4130	61.3400
 0.4140	61.5200
 0.4150	61.5800
 0.4160	61.7300
 0.4170	61.8300
 0.4180	62.0100
 0.4190	61.9900
 0.4200	61.9100
 0.4210	62.0100
 0.4220	62.1700
 0.4230	62.2900
 0.4240	62.3300
 0.4250	62.3500
 0.4260	62.4100
 0.4270	62.5700
 0.4280	62.6500
 0.4290	62.6700
 0.4300	62.7700
 0.4310	62.8900
 0.4320	62.9300
 0.4330	62.9700
 0.4340	63.0700
 0.4350	63.1400
 0.4360	63.3200
 0.4370	63.2600
 0.4380	63.3400
 0.4390	63.3400
 0.4400	63.4200
 0.4410	63.3800
 0.4420	63.5000
 0.4430	63.5600
 0.4440	63.6400
 0.4450	63.5600
 0.4460	63.5400
 0.4470	63.6400
 0.4480	63.5400
 0.4490	63.6800
 0.4500	63.6800
 0.4510	63.6400
 0.4520	63.6000
 0.4530	63.8500
 0.4540	63.7500
 0.4550	63.7800
 0.4560	63.8000
 0.4570	63.9000
 0.4580	63.8100
 0.4590	63.8500
 0.4600	63.8700
 0.4610	63.8300
 0.4620	64.0100
 0.4630	63.8400
 0.4640	63.8000
 0.4650	63.8800
 0.4660	63.8400
 0.4670	63.8400
 0.4680	63.7300
 0.4690	63.7900
 0.4700	63.8900
 0.4710	63.8500
 0.4720	63.7900
 0.4730	63.8100
 0.4740	63.8300
 0.4750	63.7500
 0.4760	63.7500
 0.4770	63.5900
 0.4780	63.6400
 0.4790	63.7300
 0.4800	63.6000
 0.4810	63.6200
 0.4820	63.6200
 0.4830	63.6300
 0.4840	63.5700
 0.4850	63.5100
 0.4860	63.5500
 0.4870	63.6700
 0.4880	63.5100
 0.4890	63.4400
 0.4900	63.4600
 0.4910	63.4800
 0.4920	63.4200
 0.4930	63.3100
 0.4940	63.3100
 0.4950	63.3700
 0.4960	63.2700
 0.4970	63.2300
 0.4980	63.1800
 0.4990	63.2400
 0.5000	63.3400
 0.5010	63.2400
 0.5020	63.1000
 0.5030	63.1800
 0.5040	63.1400
 0.5050	63.0600
 0.5060	63.0600
 0.5070	63.0600
 0.5080	63.0800
 0.5090	63.0200
 0.5100	62.8500
 0.5110	62.8800
 0.5120	63.0200
 0.5130	63.0600
 0.5140	62.9000
 0.5150	63.0000
 0.5160	62.9000
 0.5170	62.7700
 0.5180	62.7900
 0.5190	62.6500
 0.5200	62.7300
 0.5210	62.7300
 0.5220	62.6100
 0.5230	62.5900
 0.5240	62.7900
 0.5250	62.6900
 0.5260	62.6500
 0.5270	62.5700
 0.5280	62.4700
 0.5290	62.4400
 0.5300	62.3400
 0.5310	62.3000
 0.5320	62.4500
 0.5330	62.3200
 0.5340	62.2200
 0.5350	62.0900
 0.5360	62.1300
 0.5370	62.1700
 0.5380	62.1700
 0.5390	62.1200
 0.5400	62.1300
 0.5410	62.1300
 0.5420	61.9300
 0.5430	61.8900
 0.5440	62.0100
 0.5450	61.9300
 0.5460	61.9300
 0.5470	61.7900
 0.5480	61.8300
 0.5490	61.9300
 0.5500	61.8200
 0.5510	61.8000
 0.5520	61.9000
 0.5530	61.8800
 0.5540	61.7400
 0.5550	61.6700
 0.5560	61.7100
 0.5570	61.7000
 0.5580	61.7000
 0.5590	61.5100
 0.5600	61.6900
 0.5610	62.0600
 0.5620	61.8800
 0.5630	61.9200
 0.5640	61.9000
 0.5650	61.9200
 0.5660	61.8500
 0.5670	61.7300
 0.5680	61.6300
 0.5690	61.7500
 0.5700	61.6300
 0.5710	61.4700
 0.5720	61.4600
 0.5730	61.2400
 0.5740	61.1600
 0.5750	61.1700
 0.5760	61.0600
 0.5770	61.1000
 0.5780	61.0600
 0.5790	61.0200
 0.5800	61.0400
 0.5810	61.0000
 0.5820	60.9000
 0.5830	60.9600
 0.5840	60.9400
 0.5850	60.9600
 0.5860	60.9800
 0.5870	60.9400
 0.5880	60.8800
 0.5890	61.0000
 0.5900	60.9400
 0.5910	60.9600
 0.5920	60.9000
 0.5930	60.9000
 0.5940	61.0600
 0.5950	60.8600
 0.5960	60.8600
 0.5970	60.9600
 0.5980	61.0100
 0.5990	61.0000
 0.6000	60.9100
 0.6010	60.9000
 0.6020	61.1400
 0.6030	61.1800
 0.6040	61.1800
 0.6050	61.1800
 0.6060	61.2000
 0.6070	61.2200
 0.6080	61.2800
 0.6090	61.2600
 0.6100	61.2500
 0.6110	61.3300
 0.6120	61.3600
 0.6130	61.3400
 0.6140	61.5000
 0.6150	61.4600
 0.6160	61.4000
 0.6170	61.4200
 0.6180	61.5000
 0.6190	61.6100
 0.6200	61.6700
 0.6210	61.5700
 0.6220	61.6300
 0.6230	61.7100
 0.6240	61.6400
 0.6250	61.6900
 0.6260	61.7500
 0.6270	61.8900
 0.6280	61.7700
 0.6290	61.7500
 0.6300	61.8300
 0.6310	61.8600
 0.6320	61.9000
 0.6330	61.9600
 0.6340	61.8700
 0.6350	61.9500
 0.6360	62.0000
 0.6370	61.9200
 0.6380	61.9200
 0.6390	62.0000
 0.6400	62.0800
 0.6410	62.0600
 0.6420	62.0400
 0.6430	61.9600
 0.6440	62.2800
 0.6450	62.1800
 0.6460	62.1300
 0.6470	62.3000
 0.6480	62.2200
 0.6490	62.3200
 0.6500	62.2800
 0.6510	62.3600
 0.6520	62.5700
 0.6530	62.4200
 0.6540	62.4000
 0.6550	62.5300
 0.6560	62.6100
 0.6570	62.6900
 0.6580	62.8200
 0.6590	62.7100
 0.6600	62.8600
 0.6610	62.9400
 0.6620	62.9800
 0.6630	63.0700
 0.6640	63.2300
 0.6650	63.3600
 0.6660	63.4400
 0.6670	63.4200
 0.6680	63.5200
 0.6690	63.7500
 0.6700	63.7100
 0.6710	63.6900
 0.6720	63.7500
 0.6730	63.8500
 0.6740	63.9700
 0.6750	64.1600
 0.6760	64.2400
 0.6770	64.5100
 0.6780	64.5300
 0.6790	64.5500
 0.6800	64.6000
 0.6810	64.7100
 0.6820	64.9800
 0.6830	65.1900
 0.6840	65.1500
 0.6850	65.3500
 0.6860	65.5400
 0.6870	65.6500
 0.6880	65.7900
 0.6890	66.0400
 0.6900	66.2100
 0.6910	66.4200
 0.6920	66.4200
 0.6930	66.5300
 0.6940	66.9200
 0.6950	67.0400
 0.6960	67.1600
 0.6970	67.3300
 0.6980	67.4400
 0.6990	67.5700
 0.7000	67.5600
 0.7010	67.7800
 0.7020	68.2200
 0.7030	68.5200
 0.7040	68.7800
 0.7050	68.7800
 0.7060	69.0700
 0.7070	69.2000
 0.7080	69.4300
 0.7090	69.7200
 0.7100	69.7800
 0.7110	69.9500
 0.7120	70.2700
 0.7130	70.3300
 0.7140	70.4300
 0.7150	70.7200
 0.7160	70.9400
 0.7170	71.0600
 0.7180	71.1600
 0.7190	71.3600
 0.7200	71.6200
 0.7210	71.7500
 0.7220	71.7500
 0.7230	71.9700
 0.7240	72.1000
 0.7250	72.2900
 0.7260	72.3900
 0.7270	72.4500
 0.7280	72.6500
 0.7290	72.7000
 0.7300	72.7100
 0.7310	72.8200
 0.7320	72.9300
 0.7330	73.1700
 0.7340	73.1900
 0.7350	73.2500
 0.7360	73.3300
 0.7370	73.6800
 0.7380	73.5600
 0.7390	73.6900
 0.7400	73.7200
 0.7410	73.8600
 0.7420	73.8500
 0.7430	73.8000
 0.7440	73.9000
 0.7450	74.0300
 0.7460	74.1100
 0.7470	74.2000
 0.7480	74.3100
 0.7490	74.3100
 0.7500	74.4100
 0.7510	74.4800
 0.7520	74.4800
 0.7530	74.6100
 0.7540	74.6600
 0.7550	74.6000
 0.7560	74.6000
 0.7570	74.6400
 0.7580	74.7300
 0.7590	74.8300
 0.7600	74.7900
 0.7610	74.8500
 0.7620	75.0000
 0.7630	74.9400
 0.7640	75.0200
 0.7650	75.0500
 0.7660	75.1500
 0.7670	75.0600
 0.7680	75.0000
 0.7690	75.0200
 0.7700	75.1300
 0.7710	75.2900
 0.7720	75.1700
 0.7730	75.2100
 0.7740	75.2800
 0.7750	75.2800
 0.7760	75.4300
 0.7770	75.4500
 0.7780	75.5500
 0.7790	75.4300
 0.7800	75.3900
 0.7810	75.3700
 0.7820	75.4000
 0.7830	75.4800
 0.7840	75.5100
 0.7850	75.5200
 0.7860	75.6200
 0.7870	75.6900
 0.7880	75.6700
 0.7890	75.5800
 0.7900	75.6600
 0.7910	75.6800
 0.7920	75.5100
 0.7930	75.6200
 0.7940	75.7200
 0.7950	75.8100
 0.7960	75.7600
 0.7970	75.7100
 0.7980	75.6300
 0.7990	75.8200
 0.8000	75.7900
 0.8040	75.8300
 0.8080	75.8700
 0.8120	75.9100
 0.8160	75.9600
 0.8200	75.9500
 0.8240	75.9700
 0.8280	76.0800
 0.8320	76.0800
 0.8360	76.1000
 0.8400	76.1300
 0.8440	76.1800
 0.8480	76.2500
 0.8520	76.3600
 0.8560	76.3700
 0.8600	76.3100
 0.8640	76.3100
 0.8680	76.3400
 0.8720	76.4600
 0.8760	76.3100
 0.8800	76.3800
 0.8840	76.2100
 0.8880	76.2500
 0.8920	76.2400
 0.8960	76.3900
 0.9000	76.2900
 0.9040	76.2400
 0.9080	76.2800
 0.9120	76.3200
 0.9160	76.3000
 0.9200	76.3200
 0.9240	76.2800
 0.9280	76.2700
 0.9320	76.2800
 0.9360	76.2900
 0.9400	76.1700
 0.9440	76.2200
 0.9480	76.2600
 0.9520	76.2700
 0.9560	76.2300
 0.9600	76.2400
 0.9640	76.3200
 0.9680	76.3000
 0.9720	76.2100
 0.9760	76.2800
 0.9800	76.2000
 0.9840	76.2100
 0.9880	76.1300
 0.9920	76.0500
 0.9960	76.0500
 1.0000	76.0300
 1.0040	76.0700
 1.0080	76.0400
 1.0120	75.9300
 1.0160	75.9200
 1.0200	75.8400
 1.0240	75.9800
 1.0280	75.9100
 1.0320	75.9300
 1.0360	75.9300
 1.0400	75.9700
 1.0440	76.0600
 1.0480	76.0300
 1.0520	75.9500
 1.0560	75.9500
 1.0600	75.9300
 1.0640	75.9900
 1.0680	75.8700
 1.0720	75.8000
 1.0760	75.8300
 1.0800	75.8400
 1.0840	75.7900
 1.0880	75.8500
 1.0920	75.8000
 1.0960	75.9200
 1.1000	75.9800
 1.1040	75.9700
 1.1080	75.9300
 1.1120	76.1100
 1.1160	76.1500
 1.1200	76.1600
 1.1240	76.2300
 1.1280	76.3800
 1.1320	76.2600
 1.1360	76.2800
 1.1400	76.2500
 1.1440	76.2800
 1.1480	76.2600
 1.1520	76.2700
 1.1560	76.2800
 1.1600	76.2800
 1.1640	76.3000
 1.1680	76.4200
 1.1720	76.3900
 1.1760	76.4700
 1.1800	76.5100
 1.1840	76.4700
 1.1880	76.6300
 1.1920	76.6800
 1.1960	76.6800
 1.2000	76.7700
 1.2040	76.8600
 1.2080	76.8200
 1.2120	76.8900
 1.2160	76.9000
 1.2200	76.9500
 1.2240	76.9200
 1.2280	77.0400
 1.2320	77.0100
 1.2360	76.9600
 1.2400	77.0000
 1.2440	76.9900
 1.2480	77.0800
 1.2520	77.0600
 1.2560	77.1300
 1.2600	77.1200
 1.2640	77.1600
 1.2680	77.1300
 1.2720	77.2100
 1.2760	77.1600
 1.2800	77.2900
 1.2840	77.2200
 1.2880	77.3100
 1.2920	77.2800
 1.2960	77.2700
 1.3000	77.3800
 1.3040	77.3600
 1.3080	77.4400
 1.3120	77.4500
 1.3160	77.4200
 1.3200	77.4900
 1.3240	77.4500
 1.3280	77.4700
 1.3320	77.4500
 1.3360	77.4400
 1.3400	77.4300
 1.3440	77.4300
 1.3480	77.4000
 1.3520	77.5200
 1.3560	77.5800
 1.3600	77.5300
 1.3640	77.4600
 1.3680	77.5200
 1.3720	77.5200
 1.3760	77.4700
 1.3800	77.4300
 1.3840	77.4000
 1.3880	77.4100
 1.3920	77.4100
 1.3960	77.4000
 1.4000	77.4200
 1.4040	77.3800
 1.4080	77.3500
 1.4120	77.3600
 1.4160	77.3200
 1.4200	77.4500
 1.4240	77.4200
 1.4280	77.5000
 1.4320	77.4500
 1.4360	77.5100
 1.4400	77.5400
 1.4440	77.4900
 1.4480	77.6000
 1.4520	77.6300
 1.4560	77.7500
 1.4600	77.7700
 1.4640	77.8100
 1.4680	77.7400
 1.4720	77.8700
 1.4760	77.8200
 1.4800	77.7800
 1.4840	77.8700
 1.4880	77.9100
 1.4920	77.9500
 1.4960	77.9600
 1.5000	78.0600
 1.5040	78.1400
 1.5080	78.1300
 1.5120	78.1100
 1.5160	78.2100
 1.5200	78.2600
 1.5240	78.2300
 1.5280	78.2900
 1.5320	78.2800
 1.5360	78.3800
 1.5400	78.3700
 1.5440	78.3700
 1.5480	78.4200
 1.5520	78.3800
 1.5560	78.4600
 1.5600	78.4300
 1.5640	78.4400
 1.5680	78.4300
 1.5720	78.4300
 1.5760	78.5200
 1.5800	78.5700
 1.5840	78.5900
 1.5880	78.6000
 1.5920	78.7400
 1.5960	78.7700
 1.6000	78.7600
 1.6040	78.8900
 1.6080	78.9600
 1.6120	78.9700
 1.6160	78.9500
 1.6200	78.9700
 1.6240	78.9600
 1.6280	78.9500
 1.6320	79.1000
 1.6360	79.0800
 1.6400	79.1500
 1.6440	79.1800
 1.6480	79.2300
 1.6520	79.2500
 1.6560	79.2700
 1.6600	79.2400
 1.6640	79.3100
 1.6680	79.3400
 1.6720	79.3200
 1.6760	79.3800
 1.6800	79.3600
 1.6840	79.4300
 1.6880	79.4200
 1.6920	79.3800
 1.6960	79.4800
 1.7000	79.4500
 1.7040	79.4100
 1.7080	79.5400
 1.7120	79.5200
 1.7160	79.5900
 1.7200	79.6300
 1.7240	79.5300
 1.7280	79.5800
 1.7320	79.5700
 1.7360	79.5700
 1.7400	79.5200
 1.7440	79.5000
 1.7480	79.5900
 1.7520	79.6500
 1.7560	79.6200
 1.7600	79.7200
 1.7640	79.7100
 1.7680	79.6700
 1.7720	79.6700
 1.7760	79.6600
 1.7800	79.7900
 1.7840	79.8500
 1.7880	79.8400
 1.7920	79.7400
 1.7960	79.7400
 1.8000	79.8200
 1.8040	79.8000
 1.8080	79.8800
 1.8120	79.8100
 1.8160	79.8500
 1.8200	79.8500
 1.8240	79.8000
 1.8280	79.8200
 1.8320	79.8000
 1.8360	79.7700
 1.8400	79.7600
 1.8440	79.7000
 1.8480	79.7900
 1.8520	79.7800
 1.8560	79.6800
 1.8600	79.6100
 1.8640	79.6600
 1.8680	79.6100
 1.8720	79.6100
 1.8760	79.6000
 1.8800	79.5900
 1.8840	79.4100
 1.8880	79.2900
 1.8920	79.2100
 1.8960	79.0300
 1.9000	78.8700
 1.9040	78.7300
 1.9080	78.5700
 1.9120	78.3600
 1.9160	78.3600
 1.9200	78.3400
 1.9240	78.3700
 1.9280	78.3700
 1.9320	78.3200
 1.9360	78.3800
 1.9400	78.5700
 1.9440	78.4700
 1.9480	78.5500
 1.9520	78.5600
 1.9560	78.5600
 1.9600	78.7100
 1.9640	78.8500
 1.9680	78.8200
 1.9720	78.9600
 1.9760	78.9200
 1.9800	79.0300
 1.9840	79.0900
 1.9880	79.2200
 1.9920	79.3200
 1.9960	79.4400
 2.0000	79.5000
 2.0040	79.4600
 2.0080	79.5600
 2.0120	79.6400
 2.0160	79.7700
 2.0200	79.8600
 2.0240	79.9300
 2.0280	80.0500
 2.0320	80.0100
 2.0360	80.0100
 2.0400	80.1000
 2.0440	80.1000
 2.0480	80.1200
 2.0520	80.1000
 2.0560	80.0700
 2.0600	80.0900
 2.0640	80.1300
 2.0680	80.1800
 2.0720	80.2000
 2.0760	80.1300
 2.0800	80.1800
 2.0840	80.2600
 2.0880	80.2600
 2.0920	80.2700
 2.0960	80.3000
 2.1000	80.3800
 2.1040	80.3900
 2.1080	80.4400
 2.1120	80.4800
 2.1160	80.5600
 2.1200	80.5400
 2.1240	80.5500
 2.1280	80.4700
 2.1320	80.4800
 2.1360	80.4800
 2.1400	80.3700
 2.1440	80.4200
 2.1480	80.3500
 2.1520	80.3200
 2.1560	80.2500
 2.1600	80.2100
 2.1640	80.1400
 2.1680	80.1100
 2.1720	80.0400
 2.1760	80.0200
 2.1800	79.9100
 2.1840	79.8200
 2.1880	79.8200
 2.1920	79.7200
 2.1960	79.6200
 2.2000	79.6500
 2.2040	79.5400
 2.2080	79.5500
 2.2120	79.5100
 2.2160	79.4600
 2.2200	79.5700
 2.2240	79.4700
 2.2280	79.5300
 2.2320	79.4100
 2.2360	79.3600
 2.2400	79.3300
 2.2440	79.3200
 2.2480	79.2800
 2.2520	79.1900
 2.2560	79.0200
 2.2600	78.9300
 2.2640	78.9500
 2.2680	78.8300
 2.2720	78.8600
 2.2760	78.7000
 2.2800	78.6100
 2.2840	78.5300
 2.2880	78.4900
 2.2920	78.3800
 2.2960	78.2800
 2.3000	78.2000
 2.3040	78.0900
 2.3080	78.1000
 2.3120	78.0300
 2.3160	78.0500
 2.3200	77.9900
 2.3240	78.0000
 2.3280	77.9500
 2.3320	77.9500
 2.3360	78.0600
 2.3400	78.1000
 2.3440	78.1400
 2.3480	78.3600
 2.3520	78.4200
 2.3560	78.5500
 2.3600	78.6600
 2.3640	78.7600
 2.3680	78.7600
 2.3720	78.8800
 2.3760	78.9800
 2.3800	79.0400
 2.3840	78.9600
 2.3880	78.9600
 2.3920	79.0000
 2.3960	78.9400
 2.4000	78.8900
 2.4040	78.8900
 2.4080	78.7900
 2.4120	78.8100
 2.4160	78.6800
 2.4200	78.6400
 2.4240	78.4800
 2.4280	78.3700
 2.4320	78.2300
 2.4360	78.1800
 2.4400	77.9100
 2.4440	77.8100
 2.4480	77.7200
 2.4520	77.4800
 2.4560	77.2600
 2.4600	77.0700
 2.4640	76.8100
 2.4680	76.6800
 2.4720	76.4700
 2.4760	76.2200
 2.4800	76.2800
 2.4840	76.2000
 2.4880	76.0900
 2.4920	76.0300
 2.4960	75.9500
 2.5000	75.9500
