Name: Colemanite Ca_2B_6O_11.5H_2O
Type: Mineral
Class: Borate
Subclass: none
Particle Size: Fine
Sample No.: B-1A
Owner: JPL
Wavelength Range: VSWIR
Origin: USA, California, Kern County, Boron.
Collection Date: N/A
Description: Particle Size was <45um.Collected by:  Burminco Original ASTER Spectral Library name was jpl.perkin.mineral.borate.none.fine.b01a.spectrum.txt
Measurement: Hemispherical reflectance
First Column: X
Second Column: Y
X Units: Wavelength (micrometers)
Y Units:Reflectance (percent)
First X Value:  2.5000
Last X Value:  0.4000
Number of X Values: 2101
Additional Information: mineral.borate.none.fine.vswir.b-1a.jpl.perkin.ancillary.txt

 2.5000	34.7303
 2.4990	34.7361
 2.4980	34.6019
 2.4970	34.9189
 2.4960	34.6073
 2.4950	35.0413
 2.4940	34.6915
 2.4930	34.7599
 2.4920	34.6797
 2.4910	34.7441
 2.4900	34.7665
 2.4890	34.9681
 2.4880	34.7328
 2.4870	34.9350
 2.4860	34.8334
 2.4850	34.9412
 2.4840	34.7628
 2.4830	35.0700
 2.4820	35.0168
 2.4810	34.9621
 2.4800	34.8690
 2.4790	35.0200
 2.4780	34.8083
 2.4770	34.8976
 2.4760	34.7283
 2.4750	34.9140
 2.4740	34.6912
 2.4730	34.7894
 2.4720	34.6549
 2.4710	34.6611
 2.4700	34.7213
 2.4690	34.7526
 2.4680	34.6641
 2.4670	34.6800
 2.4660	34.6606
 2.4650	34.8243
 2.4640	34.7601
 2.4630	34.8410
 2.4620	34.6810
 2.4610	34.8224
 2.4600	34.7692
 2.4590	34.7767
 2.4580	34.7644
 2.4570	34.6779
 2.4560	34.7464
 2.4550	34.9249
 2.4540	34.8781
 2.4530	34.9303
 2.4520	34.8208
 2.4510	35.0563
 2.4500	34.9811
 2.4490	35.0646
 2.4480	34.9987
 2.4470	35.1213
 2.4460	35.0509
 2.4450	35.2588
 2.4440	35.2174
 2.4430	35.3741
 2.4420	35.3742
 2.4410	35.4860
 2.4400	35.3898
 2.4390	35.5438
 2.4380	35.5548
 2.4370	35.6855
 2.4360	35.6597
 2.4350	35.8787
 2.4340	35.7930
 2.4330	35.9102
 2.4320	35.9122
 2.4310	36.1031
 2.4300	36.0849
 2.4290	36.1632
 2.4280	36.1297
 2.4270	36.2831
 2.4260	36.3347
 2.4250	36.3885
 2.4240	36.4491
 2.4230	36.5475
 2.4220	36.5715
 2.4210	36.6404
 2.4200	36.6210
 2.4190	36.7651
 2.4180	36.7745
 2.4170	36.9943
 2.4160	36.9885
 2.4150	37.0712
 2.4140	37.1492
 2.4130	37.2839
 2.4120	37.3645
 2.4110	37.5300
 2.4100	37.4900
 2.4090	37.7165
 2.4080	37.9050
 2.4070	38.0038
 2.4060	38.1149
 2.4050	38.2408
 2.4040	38.3835
 2.4030	38.6127
 2.4020	38.7740
 2.4010	38.9229
 2.4000	39.0856
 2.3990	39.3291
 2.3980	39.4926
 2.3970	39.6758
 2.3960	39.8166
 2.3950	40.0642
 2.3940	40.2280
 2.3930	40.4211
 2.3920	40.6195
 2.3910	40.8190
 2.3900	41.0387
 2.3890	41.1949
 2.3880	41.3996
 2.3870	41.6196
 2.3860	41.7862
 2.3850	42.0691
 2.3840	42.3439
 2.3830	42.5569
 2.3820	42.6940
 2.3810	42.8930
 2.3800	43.0854
 2.3790	43.2737
 2.3780	43.4680
 2.3770	43.7078
 2.3760	43.9489
 2.3750	44.1582
 2.3740	44.3550
 2.3730	44.5851
 2.3720	44.7516
 2.3710	44.8825
 2.3700	45.0667
 2.3690	45.3513
 2.3680	45.5519
 2.3670	45.7266
 2.3660	45.8608
 2.3650	46.0520
 2.3640	46.2627
 2.3630	46.4621
 2.3620	46.6201
 2.3610	46.8143
 2.3600	47.0232
 2.3590	47.2097
 2.3580	47.3758
 2.3570	47.5001
 2.3560	47.6944
 2.3550	47.9126
 2.3540	48.1063
 2.3530	48.2756
 2.3520	48.3802
 2.3510	48.5318
 2.3500	48.7207
 2.3490	48.8444
 2.3480	48.9742
 2.3470	49.0947
 2.3460	49.2362
 2.3450	49.2884
 2.3440	49.4158
 2.3430	49.5661
 2.3420	49.6354
 2.3410	49.7708
 2.3400	49.8704
 2.3390	49.9581
 2.3380	50.0665
 2.3370	50.1509
 2.3360	50.2364
 2.3350	50.2634
 2.3340	50.3497
 2.3330	50.4925
 2.3320	50.5865
 2.3310	50.6303
 2.3300	50.7373
 2.3290	50.7898
 2.3280	50.9056
 2.3270	50.9971
 2.3260	51.0799
 2.3250	51.1562
 2.3240	51.2713
 2.3230	51.3117
 2.3220	51.3371
 2.3210	51.4358
 2.3200	51.5102
 2.3190	51.5158
 2.3180	51.6035
 2.3170	51.7110
 2.3160	51.7946
 2.3150	51.8778
 2.3140	51.9758
 2.3130	52.0003
 2.3120	51.9832
 2.3110	51.9700
 2.3100	52.0770
 2.3090	52.1053
 2.3080	52.0753
 2.3070	52.0921
 2.3060	52.2128
 2.3050	52.2054
 2.3040	52.1850
 2.3030	52.1490
 2.3020	52.1873
 2.3010	52.1923
 2.3000	52.2417
 2.2990	52.2366
 2.2980	52.2138
 2.2970	52.2086
 2.2960	52.1816
 2.2950	52.1758
 2.2940	52.2154
 2.2930	52.1209
 2.2920	52.1893
 2.2910	52.1400
 2.2900	52.2019
 2.2890	52.1508
 2.2880	52.1937
 2.2870	52.1069
 2.2860	52.0814
 2.2850	52.0140
 2.2840	51.9817
 2.2830	51.9643
 2.2820	51.9264
 2.2810	51.9043
 2.2800	51.8820
 2.2790	51.8046
 2.2780	51.7511
 2.2770	51.6903
 2.2760	51.6179
 2.2750	51.5471
 2.2740	51.5263
 2.2730	51.4951
 2.2720	51.3776
 2.2710	51.2834
 2.2700	51.2172
 2.2690	51.1751
 2.2680	51.1758
 2.2670	51.1057
 2.2660	50.9960
 2.2650	50.9638
 2.2640	50.9204
 2.2630	50.8047
 2.2620	50.8873
 2.2610	50.6865
 2.2600	50.7171
 2.2590	50.6292
 2.2580	50.4931
 2.2570	50.4287
 2.2560	50.4333
 2.2550	50.3382
 2.2540	50.2708
 2.2530	50.1508
 2.2520	50.0674
 2.2510	49.9764
 2.2500	49.8907
 2.2490	49.7185
 2.2480	49.5919
 2.2470	49.5155
 2.2460	49.3983
 2.2450	49.2384
 2.2440	49.0909
 2.2430	48.9397
 2.2420	48.8658
 2.2410	48.6409
 2.2400	48.5650
 2.2390	48.3572
 2.2380	48.2930
 2.2370	48.0701
 2.2360	47.9483
 2.2350	47.8093
 2.2340	47.7037
 2.2330	47.5462
 2.2320	47.4345
 2.2310	47.2356
 2.2300	47.2429
 2.2290	47.0337
 2.2280	46.9961
 2.2270	46.8686
 2.2260	46.7894
 2.2250	46.5789
 2.2240	46.5762
 2.2230	46.3601
 2.2220	46.3095
 2.2210	46.1395
 2.2200	46.0852
 2.2190	45.8737
 2.2180	45.7527
 2.2170	45.5680
 2.2160	45.5085
 2.2150	45.2570
 2.2140	45.1007
 2.2130	44.8500
 2.2120	44.8789
 2.2110	44.5554
 2.2100	44.6081
 2.2090	44.3071
 2.2080	44.3245
 2.2070	44.0666
 2.2060	44.0687
 2.2050	44.0128
 2.2040	43.9711
 2.2030	43.8958
 2.2020	44.0019
 2.2010	43.9415
 2.2000	44.0821
 2.1990	44.0024
 2.1980	44.1303
 2.1970	44.1400
 2.1960	44.3259
 2.1950	44.3351
 2.1940	44.5521
 2.1930	44.6005
 2.1920	44.7797
 2.1910	44.8005
 2.1900	45.0321
 2.1890	45.0527
 2.1880	45.2166
 2.1870	45.2643
 2.1860	45.4601
 2.1850	45.5618
 2.1840	45.6940
 2.1830	45.7231
 2.1820	45.8064
 2.1810	45.9295
 2.1800	45.9761
 2.1790	46.0154
 2.1780	46.0947
 2.1770	46.0595
 2.1760	46.2521
 2.1750	46.2564
 2.1740	46.3355
 2.1730	46.3718
 2.1720	46.5074
 2.1710	46.3935
 2.1700	46.5453
 2.1690	46.5101
 2.1680	46.6439
 2.1670	46.7521
 2.1660	46.8720
 2.1650	46.9226
 2.1640	47.0928
 2.1630	47.1296
 2.1620	47.3555
 2.1610	47.3834
 2.1600	47.6096
 2.1590	47.7420
 2.1580	47.8666
 2.1570	48.0197
 2.1560	48.1530
 2.1550	48.2373
 2.1540	48.4265
 2.1530	48.5862
 2.1520	48.7529
 2.1510	48.9438
 2.1500	49.1532
 2.1490	49.2367
 2.1480	49.3131
 2.1470	49.4382
 2.1460	49.5525
 2.1450	49.6283
 2.1440	49.7289
 2.1430	49.7029
 2.1420	49.7101
 2.1410	49.6411
 2.1400	49.6828
 2.1390	49.5962
 2.1380	49.5163
 2.1370	49.3081
 2.1360	49.1572
 2.1350	48.9868
 2.1340	48.7911
 2.1330	48.5395
 2.1320	48.3426
 2.1310	47.9995
 2.1300	47.7411
 2.1290	47.4793
 2.1280	47.1857
 2.1270	46.8543
 2.1260	46.4974
 2.1250	46.1100
 2.1240	45.7671
 2.1230	45.3381
 2.1220	44.8998
 2.1210	44.4793
 2.1200	44.0845
 2.1190	43.6364
 2.1180	43.2472
 2.1170	42.8332
 2.1160	42.4711
 2.1150	42.0995
 2.1140	41.8000
 2.1130	41.5011
 2.1120	41.2295
 2.1110	40.9702
 2.1100	40.8124
 2.1090	40.6856
 2.1080	40.6751
 2.1070	40.5762
 2.1060	40.5775
 2.1050	40.6395
 2.1040	40.7616
 2.1030	40.9101
 2.1020	41.1613
 2.1010	41.4286
 2.1000	41.7432
 2.0990	42.1520
 2.0980	42.6593
 2.0970	43.2303
 2.0960	43.8418
 2.0950	44.4726
 2.0940	45.1293
 2.0930	45.8332
 2.0920	46.5355
 2.0910	47.2006
 2.0900	47.8849
 2.0890	48.4590
 2.0880	49.0889
 2.0870	49.6755
 2.0860	50.2592
 2.0850	50.7197
 2.0840	51.0733
 2.0830	51.4504
 2.0820	51.8782
 2.0810	52.2088
 2.0800	52.4066
 2.0790	52.5993
 2.0780	52.8069
 2.0770	52.9481
 2.0760	53.1007
 2.0750	53.2155
 2.0740	53.2955
 2.0730	53.3741
 2.0720	53.4624
 2.0710	53.5552
 2.0700	53.5824
 2.0690	53.6060
 2.0680	53.6531
 2.0670	53.6894
 2.0660	53.7037
 2.0650	53.7717
 2.0640	53.8030
 2.0630	53.8265
 2.0620	53.8435
 2.0610	53.8742
 2.0600	53.8863
 2.0590	53.9178
 2.0580	53.9263
 2.0570	53.9507
 2.0560	53.9783
 2.0550	54.0386
 2.0540	54.0855
 2.0530	54.0643
 2.0520	54.0236
 2.0510	54.0243
 2.0500	54.0648
 2.0490	54.1278
 2.0480	54.0934
 2.0470	54.1498
 2.0460	54.1056
 2.0450	54.0343
 2.0440	54.0607
 2.0430	54.1256
 2.0420	54.0656
 2.0410	54.0519
 2.0400	53.9924
 2.0390	53.9590
 2.0380	53.9354
 2.0370	53.9317
 2.0360	53.9020
 2.0350	53.9228
 2.0340	53.8459
 2.0330	53.8256
 2.0320	53.7498
 2.0310	53.7243
 2.0300	53.6926
 2.0290	53.6651
 2.0280	53.6646
 2.0270	53.6729
 2.0260	53.6024
 2.0250	53.5951
 2.0240	53.5511
 2.0230	53.5402
 2.0220	53.4692
 2.0210	53.4801
 2.0200	53.3822
 2.0190	53.4176
 2.0180	53.3448
 2.0170	53.3343
 2.0160	53.2433
 2.0150	53.2149
 2.0140	53.1567
 2.0130	53.1461
 2.0120	53.1085
 2.0110	53.1072
 2.0100	53.0167
 2.0090	52.9332
 2.0080	52.8238
 2.0070	52.7874
 2.0060	52.7024
 2.0050	52.6920
 2.0040	52.6584
 2.0030	52.6699
 2.0020	52.5503
 2.0010	52.4723
 2.0000	52.4208
 1.9990	52.4176
 1.9980	52.3142
 1.9970	52.2820
 1.9960	52.2360
 1.9950	52.2322
 1.9940	52.1733
 1.9930	52.1510
 1.9920	52.0781
 1.9910	52.0328
 1.9900	51.9808
 1.9890	51.9445
 1.9880	51.8347
 1.9870	51.8189
 1.9860	51.7686
 1.9850	51.8171
 1.9840	51.6938
 1.9830	51.5736
 1.9820	51.5113
 1.9810	51.5305
 1.9800	51.4348
 1.9790	51.4216
 1.9780	51.2992
 1.9770	51.3226
 1.9760	51.1821
 1.9750	51.2080
 1.9740	51.1130
 1.9730	51.0936
 1.9720	50.9545
 1.9710	50.9829
 1.9700	50.8536
 1.9690	50.8732
 1.9680	50.7586
 1.9670	50.8083
 1.9660	50.7280
 1.9650	50.6858
 1.9640	50.6409
 1.9630	50.6194
 1.9620	50.5249
 1.9610	50.6353
 1.9600	50.5477
 1.9590	50.6097
 1.9580	50.6132
 1.9570	50.6399
 1.9560	50.6752
 1.9550	50.8085
 1.9540	50.8503
 1.9530	50.9404
 1.9520	51.0022
 1.9510	51.2776
 1.9500	51.3278
 1.9490	51.4963
 1.9480	51.5898
 1.9470	51.8622
 1.9460	52.0535
 1.9450	52.3569
 1.9440	52.4937
 1.9430	52.6885
 1.9420	52.8898
 1.9410	53.2076
 1.9400	53.4362
 1.9390	53.6928
 1.9380	53.9704
 1.9370	54.3076
 1.9360	54.5159
 1.9350	54.8543
 1.9340	55.0029
 1.9330	55.4303
 1.9320	55.7014
 1.9310	56.1258
 1.9300	56.2656
 1.9290	56.6309
 1.9280	56.8605
 1.9270	57.2193
 1.9260	57.3491
 1.9250	57.6929
 1.9240	57.9698
 1.9230	58.3188
 1.9220	58.5460
 1.9210	58.8739
 1.9200	59.0420
 1.9190	59.2650
 1.9180	59.5191
 1.9170	59.8267
 1.9160	60.0035
 1.9150	60.2950
 1.9140	60.4728
 1.9130	60.7965
 1.9120	60.9014
 1.9110	61.1857
 1.9100	61.3682
 1.9090	61.6609
 1.9080	61.7268
 1.9070	61.9768
 1.9060	62.1367
 1.9050	62.3665
 1.9040	62.4491
 1.9030	62.7551
 1.9020	62.8753
 1.9010	63.1267
 1.9000	63.2625
 1.8990	63.4377
 1.8980	63.5131
 1.8970	63.7139
 1.8960	63.8995
 1.8950	64.0574
 1.8940	64.1304
 1.8930	64.2391
 1.8920	64.3589
 1.8910	64.5190
 1.8900	64.5919
 1.8890	64.7729
 1.8880	64.8019
 1.8870	64.9622
 1.8860	65.0373
 1.8850	65.1832
 1.8840	65.2485
 1.8830	65.2905
 1.8820	65.4306
 1.8810	65.5318
 1.8800	65.5856
 1.8790	65.7716
 1.8780	65.7369
 1.8770	65.8334
 1.8760	65.8983
 1.8750	65.9739
 1.8740	66.0048
 1.8730	66.0727
 1.8720	66.1162
 1.8710	66.2332
 1.8700	66.3101
 1.8690	66.4053
 1.8680	66.4397
 1.8670	66.5864
 1.8660	66.6595
 1.8650	66.7131
 1.8640	66.6487
 1.8630	66.7438
 1.8620	66.7743
 1.8610	66.8319
 1.8600	66.8471
 1.8590	66.8965
 1.8580	66.9700
 1.8570	67.0237
 1.8560	66.9739
 1.8550	66.9956
 1.8540	66.9685
 1.8530	66.9926
 1.8520	67.0515
 1.8510	67.1049
 1.8500	67.0801
 1.8490	67.1310
 1.8480	67.1252
 1.8470	67.1522
 1.8460	67.1375
 1.8450	67.1330
 1.8440	67.1419
 1.8430	67.1297
 1.8420	67.1088
 1.8410	67.1802
 1.8400	67.1977
 1.8390	67.1650
 1.8380	67.1026
 1.8370	67.1397
 1.8360	67.1417
 1.8350	67.1045
 1.8340	67.1189
 1.8330	67.1286
 1.8320	67.1744
 1.8310	67.1531
 1.8300	67.0822
 1.8290	67.0620
 1.8280	67.0884
 1.8270	67.1347
 1.8260	67.1155
 1.8250	67.1232
 1.8240	67.0777
 1.8230	67.0612
 1.8220	66.9984
 1.8210	67.0445
 1.8200	67.0392
 1.8190	67.0783
 1.8180	67.1113
 1.8170	67.0821
 1.8160	66.9958
 1.8150	67.0293
 1.8140	67.0545
 1.8130	67.0623
 1.8120	67.0058
 1.8110	66.9766
 1.8100	67.0613
 1.8090	67.0933
 1.8080	67.0872
 1.8070	67.0808
 1.8060	67.0541
 1.8050	67.1391
 1.8040	67.1495
 1.8030	67.1436
 1.8020	67.1178
 1.8010	67.0843
 1.8000	67.1179
 1.7990	67.0775
 1.7980	67.0640
 1.7970	67.0923
 1.7960	67.1124
 1.7950	67.0947
 1.7940	67.0702
 1.7930	67.1301
 1.7920	67.1486
 1.7910	67.1111
 1.7900	67.1208
 1.7890	67.1378
 1.7880	67.1235
 1.7870	67.1027
 1.7860	67.0697
 1.7850	67.0488
 1.7840	67.0537
 1.7830	67.1060
 1.7820	67.0851
 1.7810	67.0319
 1.7800	67.0564
 1.7790	67.0793
 1.7780	67.0675
 1.7770	67.0719
 1.7760	67.0859
 1.7750	67.0045
 1.7740	67.0299
 1.7730	67.0959
 1.7720	67.0482
 1.7710	67.1079
 1.7700	67.1598
 1.7690	67.0696
 1.7680	67.0559
 1.7670	67.0991
 1.7660	67.1124
 1.7650	67.1347
 1.7640	67.1729
 1.7630	67.1787
 1.7620	67.1449
 1.7610	67.1595
 1.7600	67.1850
 1.7590	67.1751
 1.7580	67.2539
 1.7570	67.2602
 1.7560	67.2769
 1.7550	67.2782
 1.7540	67.3086
 1.7530	67.3528
 1.7520	67.4277
 1.7510	67.4273
 1.7500	67.4709
 1.7490	67.4730
 1.7480	67.4899
 1.7470	67.5013
 1.7460	67.5163
 1.7450	67.5684
 1.7440	67.5732
 1.7430	67.5554
 1.7420	67.6155
 1.7410	67.5991
 1.7400	67.6086
 1.7390	67.6147
 1.7380	67.6303
 1.7370	67.6024
 1.7360	67.6959
 1.7350	67.6506
 1.7340	67.6113
 1.7330	67.6243
 1.7320	67.6545
 1.7310	67.6265
 1.7300	67.6707
 1.7290	67.6124
 1.7280	67.6518
 1.7270	67.6357
 1.7260	67.6312
 1.7250	67.5470
 1.7240	67.5776
 1.7230	67.5811
 1.7220	67.5557
 1.7210	67.5569
 1.7200	67.5031
 1.7190	67.4893
 1.7180	67.4319
 1.7170	67.4472
 1.7160	67.3955
 1.7150	67.3187
 1.7140	67.3305
 1.7130	67.2668
 1.7120	67.2876
 1.7110	67.2170
 1.7100	67.2024
 1.7090	67.1440
 1.7080	67.0986
 1.7070	67.0525
 1.7060	67.0592
 1.7050	66.9762
 1.7040	66.9430
 1.7030	66.8787
 1.7020	66.8165
 1.7010	66.7618
 1.7000	66.7206
 1.6990	66.6863
 1.6980	66.6907
 1.6970	66.6510
 1.6960	66.5812
 1.6950	66.4963
 1.6940	66.4926
 1.6930	66.5202
 1.6920	66.4595
 1.6910	66.4505
 1.6900	66.4791
 1.6890	66.3726
 1.6880	66.4486
 1.6870	66.3553
 1.6860	66.4100
 1.6850	66.2701
 1.6840	66.3443
 1.6830	66.3003
 1.6820	66.3276
 1.6810	66.2203
 1.6800	66.2942
 1.6790	66.2652
 1.6780	66.2249
 1.6770	66.2189
 1.6760	66.2695
 1.6750	66.1784
 1.6740	66.1336
 1.6730	66.1267
 1.6720	66.1949
 1.6710	66.1656
 1.6700	66.1795
 1.6690	66.2292
 1.6680	66.0840
 1.6670	66.0693
 1.6660	66.1657
 1.6650	66.1967
 1.6640	66.1736
 1.6630	66.1435
 1.6620	66.1848
 1.6610	66.2200
 1.6600	66.1695
 1.6590	66.2141
 1.6580	66.3243
 1.6570	66.2822
 1.6560	66.3633
 1.6550	66.3395
 1.6540	66.3942
 1.6530	66.3612
 1.6520	66.4675
 1.6510	66.4286
 1.6500	66.5137
 1.6490	66.5060
 1.6480	66.6703
 1.6470	66.6997
 1.6460	66.8066
 1.6450	66.8172
 1.6440	66.9271
 1.6430	66.8954
 1.6420	67.0729
 1.6410	67.0555
 1.6400	67.2010
 1.6390	67.2714
 1.6380	67.3468
 1.6370	67.3519
 1.6360	67.4582
 1.6350	67.5323
 1.6340	67.6836
 1.6330	67.7175
 1.6320	67.8964
 1.6310	67.8854
 1.6300	67.9757
 1.6290	68.1251
 1.6280	68.2154
 1.6270	68.3212
 1.6260	68.4919
 1.6250	68.5126
 1.6240	68.6789
 1.6230	68.7692
 1.6220	68.8066
 1.6210	68.9659
 1.6200	69.1142
 1.6190	69.2256
 1.6180	69.2645
 1.6170	69.4078
 1.6160	69.4239
 1.6150	69.5371
 1.6140	69.7818
 1.6130	69.7608
 1.6120	69.8434
 1.6110	70.0075
 1.6100	70.0707
 1.6090	70.1069
 1.6080	70.2612
 1.6070	70.3516
 1.6060	70.4795
 1.6050	70.5268
 1.6040	70.6483
 1.6030	70.6378
 1.6020	70.8160
 1.6010	70.7781
 1.6000	70.9322
 1.5990	70.9028
 1.5980	71.0561
 1.5970	71.0912
 1.5960	71.1192
 1.5950	71.2302
 1.5940	71.1912
 1.5930	71.3581
 1.5920	71.3837
 1.5910	71.3717
 1.5900	71.4209
 1.5890	71.4762
 1.5880	71.4986
 1.5870	71.5238
 1.5860	71.5264
 1.5850	71.5044
 1.5840	71.5353
 1.5830	71.4558
 1.5820	71.4686
 1.5810	71.4126
 1.5800	71.3752
 1.5790	71.4029
 1.5780	71.4317
 1.5770	71.3707
 1.5760	71.3469
 1.5750	71.3100
 1.5740	71.3131
 1.5730	71.2687
 1.5720	71.2962
 1.5710	71.2600
 1.5700	71.1958
 1.5690	71.2201
 1.5680	71.2303
 1.5670	71.1735
 1.5660	71.1616
 1.5650	71.1121
 1.5640	71.1148
 1.5630	71.0795
 1.5620	71.1197
 1.5610	71.1092
 1.5600	71.1130
 1.5590	71.1308
 1.5580	71.1302
 1.5570	71.1928
 1.5560	71.2445
 1.5550	71.2468
 1.5540	71.2456
 1.5530	71.2141
 1.5520	71.2720
 1.5510	71.2815
 1.5500	71.3842
 1.5490	71.4525
 1.5480	71.4801
 1.5470	71.5496
 1.5460	71.6928
 1.5450	71.7173
 1.5440	71.7720
 1.5430	71.9036
 1.5420	72.0113
 1.5410	72.0632
 1.5400	72.2077
 1.5390	72.3521
 1.5380	72.4033
 1.5370	72.5118
 1.5360	72.7103
 1.5350	72.8057
 1.5340	72.9010
 1.5330	73.0053
 1.5320	73.0772
 1.5310	73.2066
 1.5300	73.3187
 1.5290	73.4209
 1.5280	73.4947
 1.5270	73.6181
 1.5260	73.7262
 1.5250	73.7777
 1.5240	73.9198
 1.5230	74.0120
 1.5220	74.0490
 1.5210	74.1161
 1.5200	74.2122
 1.5190	74.3187
 1.5180	74.4292
 1.5170	74.4721
 1.5160	74.5466
 1.5150	74.6701
 1.5140	74.7879
 1.5130	74.7942
 1.5120	74.8469
 1.5110	74.9635
 1.5100	75.0323
 1.5090	75.1157
 1.5080	75.2159
 1.5070	75.2689
 1.5060	75.3019
 1.5050	75.3849
 1.5040	75.4541
 1.5030	75.4960
 1.5020	75.5556
 1.5010	75.5740
 1.5000	75.6295
 1.4990	75.6988
 1.4980	75.7008
 1.4970	75.7847
 1.4960	75.8919
 1.4950	75.9011
 1.4940	75.9304
 1.4930	75.9952
 1.4920	76.0560
 1.4910	76.0579
 1.4900	76.0926
 1.4890	76.1703
 1.4880	76.1952
 1.4870	76.2119
 1.4860	76.2083
 1.4850	76.2316
 1.4840	76.2493
 1.4830	76.2926
 1.4820	76.3065
 1.4810	76.2886
 1.4800	76.2950
 1.4790	76.2868
 1.4780	76.2601
 1.4770	76.2307
 1.4760	76.1428
 1.4750	76.0611
 1.4740	76.0591
 1.4730	76.0254
 1.4720	75.9240
 1.4710	75.8835
 1.4700	75.7685
 1.4690	75.6737
 1.4680	75.6085
 1.4670	75.5115
 1.4660	75.4131
 1.4650	75.3006
 1.4640	75.1866
 1.4630	75.1091
 1.4620	75.0087
 1.4610	74.8877
 1.4600	74.7536
 1.4590	74.6309
 1.4580	74.5204
 1.4570	74.4077
 1.4560	74.2555
 1.4550	74.1757
 1.4540	74.0243
 1.4530	73.9220
 1.4520	73.8374
 1.4510	73.8016
 1.4500	73.7016
 1.4490	73.6158
 1.4480	73.4847
 1.4470	73.4830
 1.4460	73.4858
 1.4450	73.4987
 1.4440	73.5460
 1.4430	73.5730
 1.4420	73.6276
 1.4410	73.6895
 1.4400	73.7912
 1.4390	73.8277
 1.4380	73.8197
 1.4370	73.7605
 1.4360	73.6949
 1.4350	73.4970
 1.4340	73.1931
 1.4330	72.6406
 1.4320	72.0020
 1.4310	71.1864
 1.4300	70.0728
 1.4290	68.8964
 1.4280	67.6553
 1.4270	66.4358
 1.4260	65.3330
 1.4250	64.3936
 1.4240	63.6901
 1.4230	63.2814
 1.4220	63.1073
 1.4210	63.3507
 1.4200	63.6069
 1.4190	64.0866
 1.4180	64.6652
 1.4170	65.4719
 1.4160	66.2934
 1.4150	67.4196
 1.4140	68.5339
 1.4130	69.5283
 1.4120	70.5317
 1.4110	71.4371
 1.4100	72.3976
 1.4090	73.3634
 1.4080	74.1191
 1.4070	74.8211
 1.4060	75.5688
 1.4050	76.3126
 1.4040	76.8950
 1.4030	77.5491
 1.4020	78.0345
 1.4010	78.6662
 1.4000	79.2360
 1.3990	79.7609
 1.3980	80.1915
 1.3970	80.6740
 1.3960	81.0765
 1.3950	81.4597
 1.3940	81.7776
 1.3930	82.1442
 1.3920	82.3906
 1.3910	82.6047
 1.3900	82.7964
 1.3890	83.0395
 1.3880	83.2652
 1.3870	83.4396
 1.3860	83.5488
 1.3850	83.7808
 1.3840	84.0914
 1.3830	84.2177
 1.3820	84.4889
 1.3810	84.6943
 1.3800	84.9023
 1.3790	84.9706
 1.3780	85.1545
 1.3770	85.3373
 1.3760	85.3448
 1.3750	85.5305
 1.3740	85.6287
 1.3730	85.7200
 1.3720	85.8676
 1.3710	85.9898
 1.3700	85.9793
 1.3690	86.1218
 1.3680	86.1861
 1.3670	86.3540
 1.3660	86.2917
 1.3650	86.4655
 1.3640	86.4513
 1.3630	86.5359
 1.3620	86.5734
 1.3610	86.5969
 1.3600	86.6575
 1.3590	86.7842
 1.3580	86.8449
 1.3570	86.8480
 1.3560	86.9575
 1.3550	86.9949
 1.3540	87.0855
 1.3530	87.1744
 1.3520	87.2122
 1.3510	87.2592
 1.3500	87.2275
 1.3490	87.2510
 1.3480	87.2690
 1.3470	87.3288
 1.3460	87.2518
 1.3450	87.3057
 1.3440	87.2770
 1.3430	87.2696
 1.3420	87.3128
 1.3410	87.2167
 1.3400	87.2847
 1.3390	87.3164
 1.3380	87.3741
 1.3370	87.3225
 1.3360	87.4126
 1.3350	87.4481
 1.3340	87.4763
 1.3330	87.5593
 1.3320	87.6448
 1.3310	87.7653
 1.3300	87.7858
 1.3290	87.8081
 1.3280	87.9031
 1.3270	87.9036
 1.3260	88.0825
 1.3250	88.0351
 1.3240	88.0978
 1.3230	88.1385
 1.3220	88.1558
 1.3210	88.2724
 1.3200	88.3656
 1.3190	88.4227
 1.3180	88.4690
 1.3170	88.4350
 1.3160	88.5221
 1.3150	88.6230
 1.3140	88.6952
 1.3130	88.7198
 1.3120	88.7803
 1.3110	88.9521
 1.3100	88.9525
 1.3090	89.0052
 1.3080	89.0261
 1.3070	89.0687
 1.3060	89.1515
 1.3050	89.1889
 1.3040	89.1877
 1.3030	89.3064
 1.3020	89.2792
 1.3010	89.2864
 1.3000	89.3101
 1.2990	89.3721
 1.2980	89.4140
 1.2970	89.4952
 1.2960	89.4397
 1.2950	89.4374
 1.2940	89.5023
 1.2930	89.5367
 1.2920	89.5372
 1.2910	89.5608
 1.2900	89.5465
 1.2890	89.6258
 1.2880	89.6832
 1.2870	89.6888
 1.2860	89.6940
 1.2850	89.7057
 1.2840	89.6862
 1.2830	89.7360
 1.2820	89.8118
 1.2810	89.8828
 1.2800	89.8337
 1.2790	89.8399
 1.2780	89.8469
 1.2770	89.8388
 1.2760	89.8497
 1.2750	89.8862
 1.2740	89.9216
 1.2730	89.9044
 1.2720	89.9044
 1.2710	89.9919
 1.2700	89.9828
 1.2690	89.9392
 1.2680	89.9509
 1.2670	89.9484
 1.2660	89.9979
 1.2650	90.0109
 1.2640	90.0670
 1.2630	90.1888
 1.2620	90.1524
 1.2610	90.1187
 1.2600	90.0209
 1.2590	90.0526
 1.2580	90.1087
 1.2570	90.0726
 1.2560	90.0280
 1.2550	90.0767
 1.2540	90.0743
 1.2530	90.0510
 1.2520	90.0773
 1.2510	90.1043
 1.2500	90.0786
 1.2490	90.1116
 1.2480	90.1205
 1.2470	90.1159
 1.2460	90.0872
 1.2450	90.1233
 1.2440	90.0942
 1.2430	90.0620
 1.2420	90.0417
 1.2410	90.0519
 1.2400	90.0491
 1.2390	90.0315
 1.2380	89.9967
 1.2370	90.0441
 1.2360	90.0903
 1.2350	90.0503
 1.2340	90.0179
 1.2330	90.0045
 1.2320	89.9959
 1.2310	89.9850
 1.2300	90.0096
 1.2290	90.0326
 1.2280	89.9944
 1.2270	90.0571
 1.2260	90.0777
 1.2250	90.0480
 1.2240	90.0766
 1.2230	90.1150
 1.2220	90.0623
 1.2210	90.1316
 1.2200	90.2696
 1.2190	90.3018
 1.2180	90.3145
 1.2170	90.3669
 1.2160	90.4512
 1.2150	90.4462
 1.2140	90.4477
 1.2130	90.4797
 1.2120	90.5109
 1.2110	90.5340
 1.2100	90.5612
 1.2090	90.6041
 1.2080	90.6063
 1.2070	90.5896
 1.2060	90.5742
 1.2050	90.6324
 1.2040	90.6795
 1.2030	90.6963
 1.2020	90.6861
 1.2010	90.6626
 1.2000	90.6508
 1.1990	90.7076
 1.1980	90.7167
 1.1970	90.6672
 1.1960	90.6916
 1.1950	90.7378
 1.1940	90.7473
 1.1930	90.6877
 1.1920	90.7155
 1.1910	90.7440
 1.1900	90.6592
 1.1890	90.6643
 1.1880	90.6499
 1.1870	90.6539
 1.1860	90.6555
 1.1850	90.6825
 1.1840	90.7150
 1.1830	90.7147
 1.1820	90.7839
 1.1810	90.7970
 1.1800	90.7436
 1.1790	90.7446
 1.1780	90.8044
 1.1770	90.8922
 1.1760	90.8886
 1.1750	90.9571
 1.1740	90.9479
 1.1730	90.9914
 1.1720	91.0497
 1.1710	91.1052
 1.1700	91.2207
 1.1690	91.2375
 1.1680	91.2328
 1.1670	91.2742
 1.1660	91.3085
 1.1650	91.3679
 1.1640	91.3773
 1.1630	91.4433
 1.1620	91.4638
 1.1610	91.5613
 1.1600	91.5609
 1.1590	91.6033
 1.1580	91.6066
 1.1570	91.5846
 1.1560	91.5988
 1.1550	91.6569
 1.1540	91.6608
 1.1530	91.7266
 1.1520	91.8674
 1.1510	91.8306
 1.1500	91.8374
 1.1490	91.9219
 1.1480	91.8974
 1.1470	91.9109
 1.1460	91.8962
 1.1450	91.9664
 1.1440	92.0468
 1.1430	91.9563
 1.1420	92.0203
 1.1410	92.0363
 1.1400	92.1191
 1.1390	92.1116
 1.1380	92.1556
 1.1370	92.1541
 1.1360	92.1619
 1.1350	92.1174
 1.1340	92.2134
 1.1330	92.2195
 1.1320	92.3443
 1.1310	92.2892
 1.1300	92.2980
 1.1290	92.3131
 1.1280	92.2692
 1.1270	92.3388
 1.1260	92.3484
 1.1250	92.2929
 1.1240	92.3722
 1.1230	92.3312
 1.1220	92.3130
 1.1210	92.4083
 1.1200	92.3476
 1.1190	92.4180
 1.1180	92.4087
 1.1170	92.4351
 1.1160	92.3660
 1.1150	92.3638
 1.1140	92.4214
 1.1130	92.4199
 1.1120	92.4218
 1.1110	92.4022
 1.1100	92.4200
 1.1090	92.4243
 1.1080	92.4574
 1.1070	92.4003
 1.1060	92.5331
 1.1050	92.5156
 1.1040	92.4843
 1.1030	92.4538
 1.1020	92.4745
 1.1010	92.4740
 1.1000	92.4570
 1.0990	92.4085
 1.0980	92.5338
 1.0970	92.5048
 1.0960	92.5806
 1.0950	92.5529
 1.0940	92.4867
 1.0930	92.5196
 1.0920	92.6103
 1.0910	92.6109
 1.0900	92.5555
 1.0890	92.6265
 1.0880	92.6028
 1.0870	92.5592
 1.0860	92.6385
 1.0850	92.4985
 1.0840	92.6449
 1.0830	92.6087
 1.0820	92.6330
 1.0810	92.6394
 1.0800	92.5320
 1.0790	92.5956
 1.0780	92.6309
 1.0770	92.6542
 1.0760	92.5982
 1.0750	92.6224
 1.0740	92.6419
 1.0730	92.6348
 1.0720	92.5967
 1.0710	92.6539
 1.0700	92.5803
 1.0690	92.7131
 1.0680	92.6984
 1.0670	92.7592
 1.0660	92.6747
 1.0650	92.7230
 1.0640	92.5627
 1.0630	92.6787
 1.0620	92.7769
 1.0610	92.7466
 1.0600	92.7537
 1.0590	92.6952
 1.0580	92.7760
 1.0570	92.7193
 1.0560	92.7752
 1.0550	92.7140
 1.0540	92.7886
 1.0530	92.7735
 1.0520	92.7571
 1.0510	92.7927
 1.0500	92.7420
 1.0490	92.7502
 1.0480	92.7857
 1.0470	92.7019
 1.0460	92.7884
 1.0450	92.7811
 1.0440	92.7317
 1.0430	92.7567
 1.0420	92.7377
 1.0410	92.7326
 1.0400	92.7735
 1.0390	92.7872
 1.0380	92.7347
 1.0370	92.7654
 1.0360	92.7841
 1.0350	92.7896
 1.0340	92.7422
 1.0330	92.7124
 1.0320	92.8204
 1.0310	92.7890
 1.0300	92.8162
 1.0290	92.7465
 1.0280	92.6901
 1.0270	92.7743
 1.0260	92.7588
 1.0250	92.7489
 1.0240	92.7276
 1.0230	92.7762
 1.0220	92.7532
 1.0210	92.7541
 1.0200	92.7065
 1.0190	92.6824
 1.0180	92.7463
 1.0170	92.6832
 1.0160	92.6753
 1.0150	92.6570
 1.0140	92.6850
 1.0130	92.6731
 1.0120	92.6870
 1.0110	92.6915
 1.0100	92.6847
 1.0090	92.6555
 1.0080	92.5913
 1.0070	92.5437
 1.0060	92.5926
 1.0050	92.5549
 1.0040	92.5499
 1.0030	92.4790
 1.0020	92.4675
 1.0010	92.5149
 1.0000	92.4968
 0.9990	92.4434
 0.9980	92.4630
 0.9970	92.3996
 0.9960	92.3133
 0.9950	92.2483
 0.9940	92.2825
 0.9930	92.3493
 0.9920	92.2996
 0.9910	92.2608
 0.9900	92.2260
 0.9890	92.1635
 0.9880	92.1307
 0.9870	92.0334
 0.9860	92.0394
 0.9850	92.0077
 0.9840	91.9396
 0.9830	91.8679
 0.9820	91.8084
 0.9810	91.7793
 0.9800	91.7293
 0.9790	91.5472
 0.9780	91.3587
 0.9770	91.2773
 0.9760	91.2007
 0.9750	91.1230
 0.9740	91.0730
 0.9730	90.9380
 0.9720	90.9030
 0.9710	90.8656
 0.9700	90.8636
 0.9690	90.9075
 0.9680	90.9848
 0.9670	91.0982
 0.9660	91.1867
 0.9650	91.3149
 0.9640	91.4534
 0.9630	91.5893
 0.9620	91.7217
 0.9610	91.9138
 0.9600	92.0739
 0.9590	92.1545
 0.9580	92.3025
 0.9570	92.4098
 0.9560	92.4366
 0.9550	92.4898
 0.9540	92.5731
 0.9530	92.6878
 0.9520	92.7454
 0.9510	92.7715
 0.9500	92.8071
 0.9490	92.8457
 0.9480	92.8525
 0.9470	92.8792
 0.9460	92.9617
 0.9450	92.9868
 0.9440	93.0242
 0.9430	93.0458
 0.9420	93.0567
 0.9410	93.1160
 0.9400	93.0811
 0.9390	93.0963
 0.9380	93.1361
 0.9370	93.0625
 0.9360	93.0889
 0.9350	93.1637
 0.9340	93.1631
 0.9330	93.1669
 0.9320	93.2241
 0.9310	93.2140
 0.9300	93.1434
 0.9290	93.1677
 0.9280	93.2478
 0.9270	93.2366
 0.9260	93.1738
 0.9250	93.1671
 0.9240	93.2105
 0.9230	93.2641
 0.9220	93.2445
 0.9210	93.2406
 0.9200	93.2291
 0.9190	93.2272
 0.9180	93.2432
 0.9170	93.2298
 0.9160	93.2490
 0.9150	93.2724
 0.9140	93.2650
 0.9130	93.2689
 0.9120	93.3185
 0.9110	93.3389
 0.9100	93.3252
 0.9090	93.3389
 0.9080	93.2781
 0.9070	93.3052
 0.9060	93.3346
 0.9050	93.2962
 0.9040	93.3658
 0.9030	93.3954
 0.9020	93.3762
 0.9010	93.4106
 0.9000	93.3899
 0.8990	93.3288
 0.8980	93.3401
 0.8970	93.3707
 0.8960	93.3491
 0.8950	93.3135
 0.8940	93.3418
 0.8930	93.3057
 0.8920	93.3044
 0.8910	93.3614
 0.8900	93.3876
 0.8890	93.3889
 0.8880	93.3977
 0.8870	93.3739
 0.8860	93.3615
 0.8850	93.3479
 0.8840	93.3845
 0.8830	93.3705
 0.8820	93.3252
 0.8810	93.2966
 0.8800	93.3619
 0.8790	93.3950
 0.8780	93.4308
 0.8770	93.4006
 0.8760	93.3324
 0.8750	93.4133
 0.8740	93.3631
 0.8730	93.3896
 0.8720	93.3290
 0.8710	93.4059
 0.8700	93.3198
 0.8690	93.3412
 0.8680	93.3177
 0.8670	93.3892
 0.8660	93.3488
 0.8650	93.3605
 0.8640	93.4304
 0.8630	93.3563
 0.8620	93.2783
 0.8610	93.2855
 0.8600	93.4148
 0.8590	93.3181
 0.8580	93.3373
 0.8570	93.3326
 0.8560	93.2439
 0.8550	93.2420
 0.8540	93.4085
 0.8530	93.3181
 0.8520	93.3525
 0.8510	93.3695
 0.8500	93.2536
 0.8490	93.2711
 0.8480	93.3916
 0.8470	93.3282
 0.8460	93.1722
 0.8450	93.3372
 0.8440	93.3660
 0.8430	93.3414
 0.8420	93.3794
 0.8410	93.3193
 0.8400	93.2924
 0.8390	93.4034
 0.8380	93.4030
 0.8370	93.3282
 0.8360	93.3855
 0.8350	93.3504
 0.8340	93.3414
 0.8330	93.3617
 0.8320	93.3811
 0.8310	93.3604
 0.8300	93.4360
 0.8290	93.3684
 0.8280	93.3410
 0.8270	93.3953
 0.8260	93.3968
 0.8250	93.3808
 0.8240	93.3661
 0.8230	93.4148
 0.8220	93.4028
 0.8210	93.3926
 0.8200	93.3577
 0.8190	93.3824
 0.8180	93.4074
 0.8170	93.3806
 0.8160	93.4099
 0.8150	93.3867
 0.8140	93.3879
 0.8130	93.4042
 0.8120	93.3765
 0.8110	93.3547
 0.8100	93.3616
 0.8090	93.4308
 0.8080	93.3414
 0.8070	93.3259
 0.8060	93.3615
 0.8050	93.3922
 0.8040	93.3574
 0.8030	93.3765
 0.8020	93.4134
 0.8010	93.3830
 0.8000	93.3532
 0.7990	93.3691
 0.7980	93.2784
 0.7970	93.2967
 0.7960	93.3105
 0.7950	93.2493
 0.7940	93.2565
 0.7930	93.3178
 0.7920	93.2582
 0.7910	93.2285
 0.7900	93.2322
 0.7890	93.2113
 0.7880	93.2937
 0.7870	93.2316
 0.7860	93.2179
 0.7850	93.2211
 0.7840	93.2787
 0.7830	93.2548
 0.7820	93.2699
 0.7810	93.2421
 0.7800	93.1815
 0.7790	93.1922
 0.7780	93.1725
 0.7770	93.1994
 0.7760	93.1674
 0.7750	93.1410
 0.7740	93.1838
 0.7730	93.1342
 0.7720	93.1605
 0.7710	93.1217
 0.7700	93.0946
 0.7690	93.1481
 0.7680	93.0882
 0.7670	93.0708
 0.7660	93.0691
 0.7650	93.1140
 0.7640	93.0551
 0.7630	93.0494
 0.7620	93.0965
 0.7610	93.0335
 0.7600	93.0459
 0.7590	93.0321
 0.7580	93.0546
 0.7570	93.0170
 0.7560	93.0044
 0.7550	93.0208
 0.7540	92.9887
 0.7530	92.9877
 0.7520	92.9733
 0.7510	92.9521
 0.7500	92.9690
 0.7490	92.9600
 0.7480	92.9292
 0.7470	92.9540
 0.7460	92.9279
 0.7450	92.9296
 0.7440	92.8975
 0.7430	92.9293
 0.7420	92.9417
 0.7410	92.9336
 0.7400	92.9059
 0.7390	92.8950
 0.7380	92.9146
 0.7370	92.9421
 0.7360	92.9282
 0.7350	92.9937
 0.7340	92.9631
 0.7330	92.9329
 0.7320	92.9966
 0.7310	92.9820
 0.7300	92.9905
 0.7290	92.9751
 0.7280	92.9758
 0.7270	92.9944
 0.7260	92.9607
 0.7250	92.9557
 0.7240	92.9325
 0.7230	92.9466
 0.7220	92.9548
 0.7210	92.9426
 0.7200	92.9458
 0.7190	92.9428
 0.7180	92.9133
 0.7170	92.9262
 0.7160	92.9272
 0.7150	92.8981
 0.7140	92.9003
 0.7130	92.8947
 0.7120	92.9000
 0.7110	92.9084
 0.7100	92.9244
 0.7090	92.8822
 0.7080	92.8703
 0.7070	92.8899
 0.7060	92.8511
 0.7050	92.8703
 0.7040	92.8969
 0.7030	92.8923
 0.7020	92.8896
 0.7010	92.8724
 0.7000	92.8651
 0.6990	92.8671
 0.6980	92.8678
 0.6970	92.8813
 0.6960	92.8700
 0.6950	92.8699
 0.6940	92.8596
 0.6930	92.8820
 0.6920	92.8786
 0.6910	92.8755
 0.6900	92.8847
 0.6890	92.8680
 0.6880	92.8658
 0.6870	92.8594
 0.6860	92.8684
 0.6850	92.8388
 0.6840	92.8393
 0.6830	92.8355
 0.6820	92.8325
 0.6810	92.8251
 0.6800	92.8418
 0.6790	92.8456
 0.6780	92.8306
 0.6770	92.8398
 0.6760	92.8216
 0.6750	92.7994
 0.6740	92.7787
 0.6730	92.7954
 0.6720	92.7950
 0.6710	92.7857
 0.6700	92.7779
 0.6690	92.7775
 0.6680	92.7713
 0.6670	92.7390
 0.6660	92.7454
 0.6650	92.7764
 0.6640	92.7840
 0.6630	92.7624
 0.6620	92.7622
 0.6610	92.7401
 0.6600	92.7165
 0.6590	92.7101
 0.6580	92.7058
 0.6570	92.6972
 0.6560	92.7002
 0.6550	92.6865
 0.6540	92.6667
 0.6530	92.6775
 0.6520	92.7003
 0.6510	92.6905
 0.6500	92.6778
 0.6490	92.6676
 0.6480	92.6742
 0.6470	92.6833
 0.6460	92.6539
 0.6450	92.6474
 0.6440	92.6562
 0.6430	92.6311
 0.6420	92.6163
 0.6410	92.6260
 0.6400	92.6196
 0.6390	92.6006
 0.6380	92.5949
 0.6370	92.6001
 0.6360	92.5887
 0.6350	92.5899
 0.6340	92.5794
 0.6330	92.5699
 0.6320	92.5641
 0.6310	92.5397
 0.6300	92.5340
 0.6290	92.5409
 0.6280	92.5265
 0.6270	92.5033
 0.6260	92.5063
 0.6250	92.5122
 0.6240	92.5188
 0.6230	92.5038
 0.6220	92.4864
 0.6210	92.4798
 0.6200	92.4712
 0.6190	92.4748
 0.6180	92.4490
 0.6170	92.4439
 0.6160	92.4487
 0.6150	92.4417
 0.6140	92.4340
 0.6130	92.4196
 0.6120	92.4136
 0.6110	92.4128
 0.6100	92.3977
 0.6090	92.3916
 0.6080	92.3853
 0.6070	92.3576
 0.6060	92.3644
 0.6050	92.3685
 0.6040	92.3492
 0.6030	92.3270
 0.6020	92.3295
 0.6010	92.3284
 0.6000	92.3202
 0.5990	92.3298
 0.5980	92.3533
 0.5970	92.3533
 0.5960	92.3526
 0.5950	92.3705
 0.5940	92.3763
 0.5930	92.3662
 0.5920	92.3498
 0.5910	92.3290
 0.5900	92.3314
 0.5890	92.3197
 0.5880	92.3094
 0.5870	92.3053
 0.5860	92.2907
 0.5850	92.2747
 0.5840	92.2690
 0.5830	92.2605
 0.5820	92.2559
 0.5810	92.2393
 0.5800	92.2304
 0.5790	92.2326
 0.5780	92.2201
 0.5770	92.1996
 0.5760	92.1813
 0.5750	92.1702
 0.5740	92.1257
 0.5730	92.1161
 0.5720	92.1346
 0.5710	92.1116
 0.5700	92.0995
 0.5690	92.0935
 0.5680	92.0782
 0.5670	92.0562
 0.5660	92.0374
 0.5650	92.0512
 0.5640	92.0430
 0.5630	91.9893
 0.5620	91.9777
 0.5610	91.9778
 0.5600	91.9603
 0.5590	91.9688
 0.5580	91.9398
 0.5570	91.9395
 0.5560	91.9230
 0.5550	91.8957
 0.5540	91.8848
 0.5530	91.8544
 0.5520	91.8359
 0.5510	91.8177
 0.5500	91.8138
 0.5490	91.7829
 0.5480	91.7639
 0.5470	91.7463
 0.5460	91.7271
 0.5450	91.7174
 0.5440	91.6825
 0.5430	91.6906
 0.5420	91.6716
 0.5410	91.6394
 0.5400	91.6108
 0.5390	91.5953
 0.5380	91.5453
 0.5370	91.5429
 0.5360	91.5148
 0.5350	91.4943
 0.5340	91.4755
 0.5330	91.4576
 0.5320	91.4235
 0.5310	91.4076
 0.5300	91.3901
 0.5290	91.3689
 0.5280	91.3405
 0.5270	91.3090
 0.5260	91.2968
 0.5250	91.2703
 0.5240	91.2115
 0.5230	91.2207
 0.5220	91.1714
 0.5210	91.1492
 0.5200	91.1185
 0.5190	91.1089
 0.5180	91.0631
 0.5170	91.0367
 0.5160	90.9959
 0.5150	90.9935
 0.5140	90.9775
 0.5130	90.9158
 0.5120	90.8785
 0.5110	90.8556
 0.5100	90.8258
 0.5090	90.7862
 0.5080	90.7589
 0.5070	90.7133
 0.5060	90.6556
 0.5050	90.6612
 0.5040	90.6112
 0.5030	90.5569
 0.5020	90.5190
 0.5010	90.5177
 0.5000	90.5056
 0.4990	90.4442
 0.4980	90.3953
 0.4970	90.3564
 0.4960	90.3213
 0.4950	90.2736
 0.4940	90.2563
 0.4930	90.2331
 0.4920	90.1964
 0.4910	90.1562
 0.4900	90.1549
 0.4890	90.0975
 0.4880	90.0602
 0.4870	90.0279
 0.4860	90.0078
 0.4850	89.9574
 0.4840	89.9236
 0.4830	89.8926
 0.4820	89.8198
 0.4810	89.8243
 0.4800	89.7718
 0.4790	89.7214
 0.4780	89.6743
 0.4770	89.6473
 0.4760	89.5974
 0.4750	89.5498
 0.4740	89.5592
 0.4730	89.4787
 0.4720	89.4547
 0.4710	89.4157
 0.4700	89.3681
 0.4690	89.3315
 0.4680	89.3200
 0.4670	89.2890
 0.4660	89.2308
 0.4650	89.2135
 0.4640	89.1626
 0.4630	89.1120
 0.4620	89.0837
 0.4610	89.0562
 0.4600	89.0366
 0.4590	88.9999
 0.4580	88.9766
 0.4570	88.9308
 0.4560	88.9141
 0.4550	88.8297
 0.4540	88.8143
 0.4530	88.7816
 0.4520	88.7503
 0.4510	88.7199
 0.4500	88.6905
 0.4490	88.6662
 0.4480	88.6299
 0.4470	88.5919
 0.4460	88.5644
 0.4450	88.5399
 0.4440	88.5134
 0.4430	88.4771
 0.4420	88.4418
 0.4410	88.4080
 0.4400	88.3608
 0.4390	88.3312
 0.4380	88.2994
 0.4370	88.2800
 0.4360	88.2293
 0.4350	88.2155
 0.4340	88.1562
 0.4330	88.1531
 0.4320	88.1101
 0.4310	88.0911
 0.4300	88.0792
 0.4290	88.0479
 0.4280	88.0015
 0.4270	87.9464
 0.4260	87.9398
 0.4250	87.9041
 0.4240	87.8777
 0.4230	87.8579
 0.4220	87.8483
 0.4210	87.7906
 0.4200	87.7534
 0.4190	87.7523
 0.4180	87.7107
 0.4170	87.6785
 0.4160	87.6448
 0.4150	87.6215
 0.4140	87.5773
 0.4130	87.5501
 0.4120	87.5009
 0.4110	87.4896
 0.4100	87.4678
 0.4090	87.4294
 0.4080	87.3811
 0.4070	87.3615
 0.4060	87.3391
 0.4050	87.2973
 0.4040	87.2403
 0.4030	87.2092
 0.4020	87.1562
 0.4010	87.1118
 0.4000	87.0778
