Name: Oligoclase (Feldspar) (NaSi,CaAl)AlSi_2O_8
Type: Mineral
Class: Silicate
Subclass: Tectosilicate
Particle Size: Fine
Sample No.: TS-3A
Owner: JPL
Wavelength Range: VSWIR
Origin: Unknown.
Collection Date: N/A
Description: Particle size was 0-45um. Collected b:  JPL Original ASTER Spectral Library name was jpl.perkin.mineral.silicate.tectosilicate.fine.ts03a.spectrum.txt
Measurement: Hemispherical reflectance
First Column: X
Second Column: Y
X Units: Wavelength (micrometers)
Y Units:Reflectance (percent)
First X Value:  2.5000
Last X Value:  0.4000
Number of X Values: 2101
Additional Information: mineral.silicate.tectosilicate.fine.vswir.ts-3a.jpl.perkin.ancillary.txt

 2.5000	79.2328
 2.4990	79.2027
 2.4980	79.3858
 2.4970	79.3186
 2.4960	79.0550
 2.4950	79.3445
 2.4940	79.4491
 2.4930	79.1853
 2.4920	79.0718
 2.4910	79.1508
 2.4900	79.2409
 2.4890	79.1334
 2.4880	79.2226
 2.4870	79.1278
 2.4860	79.1057
 2.4850	79.2803
 2.4840	79.4277
 2.4830	79.1530
 2.4820	79.3884
 2.4810	79.1761
 2.4800	79.3021
 2.4790	79.4833
 2.4780	79.3405
 2.4770	79.1968
 2.4760	79.4925
 2.4750	79.5155
 2.4740	79.2829
 2.4730	79.3925
 2.4720	79.3098
 2.4710	79.3311
 2.4700	79.3293
 2.4690	79.5394
 2.4680	79.5955
 2.4670	79.4999
 2.4660	79.5359
 2.4650	79.4655
 2.4640	79.5636
 2.4630	79.4640
 2.4620	79.6630
 2.4610	79.5632
 2.4600	79.4572
 2.4590	79.6277
 2.4580	79.6557
 2.4570	79.5406
 2.4560	79.5672
 2.4550	79.6484
 2.4540	79.6776
 2.4530	79.7357
 2.4520	79.8552
 2.4510	79.8799
 2.4500	79.7741
 2.4490	79.7981
 2.4480	79.7767
 2.4470	79.7902
 2.4460	79.9104
 2.4450	79.8073
 2.4440	79.8592
 2.4430	79.8927
 2.4420	79.7547
 2.4410	79.7719
 2.4400	79.8358
 2.4390	79.8817
 2.4380	79.8862
 2.4370	80.0357
 2.4360	80.0389
 2.4350	80.0388
 2.4340	80.0321
 2.4330	80.0382
 2.4320	80.0774
 2.4310	80.1023
 2.4300	80.0910
 2.4290	80.1323
 2.4280	80.1355
 2.4270	80.2555
 2.4260	80.2228
 2.4250	80.2081
 2.4240	80.2964
 2.4230	80.3433
 2.4220	80.3886
 2.4210	80.3049
 2.4200	80.3775
 2.4190	80.5037
 2.4180	80.5161
 2.4170	80.5615
 2.4160	80.6518
 2.4150	80.6348
 2.4140	80.5524
 2.4130	80.5877
 2.4120	80.7402
 2.4110	80.7006
 2.4100	80.6850
 2.4090	80.7933
 2.4080	80.8836
 2.4070	80.8905
 2.4060	80.7701
 2.4050	80.8302
 2.4040	80.9580
 2.4030	80.8594
 2.4020	80.8757
 2.4010	80.9621
 2.4000	80.9346
 2.3990	80.9758
 2.3980	81.0366
 2.3970	81.0293
 2.3960	81.0721
 2.3950	81.1426
 2.3940	81.0700
 2.3930	81.0681
 2.3920	81.1224
 2.3910	81.1078
 2.3900	81.1729
 2.3890	81.1990
 2.3880	81.2773
 2.3870	81.2465
 2.3860	81.1836
 2.3850	81.2791
 2.3840	81.2887
 2.3830	81.1999
 2.3820	81.2236
 2.3810	81.2406
 2.3800	81.3265
 2.3790	81.3662
 2.3780	81.2937
 2.3770	81.2816
 2.3760	81.2698
 2.3750	81.2553
 2.3740	81.2659
 2.3730	81.2492
 2.3720	81.2867
 2.3710	81.2462
 2.3700	81.2348
 2.3690	81.2675
 2.3680	81.2714
 2.3670	81.2427
 2.3660	81.1121
 2.3650	81.0800
 2.3640	81.1106
 2.3630	81.1155
 2.3620	81.1150
 2.3610	81.1022
 2.3600	81.0532
 2.3590	81.0002
 2.3580	80.9527
 2.3570	80.9564
 2.3560	80.9429
 2.3550	80.8630
 2.3540	80.8725
 2.3530	80.9713
 2.3520	81.0230
 2.3510	80.9910
 2.3500	80.9977
 2.3490	81.0411
 2.3480	81.0117
 2.3470	81.0443
 2.3460	81.1303
 2.3450	81.1697
 2.3440	81.2334
 2.3430	81.2933
 2.3420	81.3616
 2.3410	81.3700
 2.3400	81.3007
 2.3390	81.3220
 2.3380	81.3354
 2.3370	81.3855
 2.3360	81.4400
 2.3350	81.4158
 2.3340	81.4737
 2.3330	81.5696
 2.3320	81.6281
 2.3310	81.6653
 2.3300	81.6318
 2.3290	81.6538
 2.3280	81.6608
 2.3270	81.6501
 2.3260	81.7759
 2.3250	81.7892
 2.3240	81.7802
 2.3230	81.8338
 2.3220	81.8219
 2.3210	81.9728
 2.3200	81.9928
 2.3190	81.9597
 2.3180	82.0462
 2.3170	82.0558
 2.3160	82.0787
 2.3150	82.1038
 2.3140	82.1635
 2.3130	82.2163
 2.3120	82.2814
 2.3110	82.2777
 2.3100	82.2619
 2.3090	82.2902
 2.3080	82.3247
 2.3070	82.3671
 2.3060	82.3709
 2.3050	82.3721
 2.3040	82.4118
 2.3030	82.3813
 2.3020	82.4700
 2.3010	82.5093
 2.3000	82.4388
 2.2990	82.4935
 2.2980	82.5482
 2.2970	82.4830
 2.2960	82.5296
 2.2950	82.5350
 2.2940	82.4720
 2.2930	82.5280
 2.2920	82.4795
 2.2910	82.5383
 2.2900	82.5187
 2.2890	82.5817
 2.2880	82.5198
 2.2870	82.5594
 2.2860	82.5339
 2.2850	82.6043
 2.2840	82.5927
 2.2830	82.5642
 2.2820	82.5632
 2.2810	82.5459
 2.2800	82.5530
 2.2790	82.6348
 2.2780	82.5838
 2.2770	82.5469
 2.2760	82.6142
 2.2750	82.6208
 2.2740	82.6145
 2.2730	82.5612
 2.2720	82.5585
 2.2710	82.5197
 2.2700	82.5606
 2.2690	82.6020
 2.2680	82.6269
 2.2670	82.5173
 2.2660	82.5239
 2.2650	82.5331
 2.2640	82.5529
 2.2630	82.6193
 2.2620	82.5217
 2.2610	82.5209
 2.2600	82.4848
 2.2590	82.4407
 2.2580	82.4786
 2.2570	82.4776
 2.2560	82.4629
 2.2550	82.5523
 2.2540	82.5353
 2.2530	82.4665
 2.2520	82.4958
 2.2510	82.5748
 2.2500	82.5724
 2.2490	82.5865
 2.2480	82.6001
 2.2470	82.4705
 2.2460	82.6293
 2.2450	82.6522
 2.2440	82.6853
 2.2430	82.6735
 2.2420	82.5826
 2.2410	82.6559
 2.2400	82.6729
 2.2390	82.6840
 2.2380	82.7116
 2.2370	82.7245
 2.2360	82.7108
 2.2350	82.6350
 2.2340	82.6704
 2.2330	82.6847
 2.2320	82.6689
 2.2310	82.6788
 2.2300	82.6856
 2.2290	82.6289
 2.2280	82.7200
 2.2270	82.7134
 2.2260	82.6238
 2.2250	82.7113
 2.2240	82.6659
 2.2230	82.6215
 2.2220	82.6708
 2.2210	82.5227
 2.2200	82.5799
 2.2190	82.6076
 2.2180	82.5817
 2.2170	82.5329
 2.2160	82.5337
 2.2150	82.5491
 2.2140	82.5369
 2.2130	82.5210
 2.2120	82.5245
 2.2110	82.3183
 2.2100	82.3830
 2.2090	82.3627
 2.2080	82.3263
 2.2070	82.3724
 2.2060	82.2676
 2.2050	82.3153
 2.2040	82.2495
 2.2030	82.2746
 2.2020	82.2555
 2.2010	82.1919
 2.2000	82.1602
 2.1990	82.2015
 2.1980	82.1675
 2.1970	82.1885
 2.1960	82.2225
 2.1950	82.2182
 2.1940	82.2890
 2.1930	82.3480
 2.1920	82.3463
 2.1910	82.3643
 2.1900	82.4146
 2.1890	82.4794
 2.1880	82.5594
 2.1870	82.6549
 2.1860	82.7287
 2.1850	82.7591
 2.1840	82.9306
 2.1830	82.9154
 2.1820	83.0416
 2.1810	83.1729
 2.1800	83.2743
 2.1790	83.3077
 2.1780	83.3128
 2.1770	83.3360
 2.1760	83.4736
 2.1750	83.5099
 2.1740	83.7002
 2.1730	83.7344
 2.1720	83.7931
 2.1710	83.7819
 2.1700	83.8147
 2.1690	83.8473
 2.1680	83.9654
 2.1670	84.0320
 2.1660	84.0905
 2.1650	84.0955
 2.1640	84.1578
 2.1630	84.3100
 2.1620	84.2367
 2.1610	84.3828
 2.1600	84.3752
 2.1590	84.3857
 2.1580	84.4393
 2.1570	84.4632
 2.1560	84.4821
 2.1550	84.5707
 2.1540	84.5402
 2.1530	84.6127
 2.1520	84.6144
 2.1510	84.6396
 2.1500	84.6121
 2.1490	84.6720
 2.1480	84.6427
 2.1470	84.6759
 2.1460	84.7793
 2.1450	84.7467
 2.1440	84.6754
 2.1430	84.6866
 2.1420	84.6370
 2.1410	84.6664
 2.1400	84.7170
 2.1390	84.7242
 2.1380	84.7416
 2.1370	84.6560
 2.1360	84.6021
 2.1350	84.6275
 2.1340	84.5904
 2.1330	84.5251
 2.1320	84.5148
 2.1310	84.5369
 2.1300	84.5063
 2.1290	84.5494
 2.1280	84.4645
 2.1270	84.3873
 2.1260	84.3875
 2.1250	84.3468
 2.1240	84.3039
 2.1230	84.2109
 2.1220	84.1657
 2.1210	84.1599
 2.1200	84.1447
 2.1190	84.0874
 2.1180	84.0514
 2.1170	84.0346
 2.1160	83.9371
 2.1150	83.9505
 2.1140	83.9054
 2.1130	83.8219
 2.1120	83.8181
 2.1110	83.7528
 2.1100	83.6392
 2.1090	83.6185
 2.1080	83.6406
 2.1070	83.6094
 2.1060	83.5293
 2.1050	83.5117
 2.1040	83.5171
 2.1030	83.4096
 2.1020	83.3419
 2.1010	83.3593
 2.1000	83.3634
 2.0990	83.3777
 2.0980	83.3094
 2.0970	83.3107
 2.0960	83.3635
 2.0950	83.3933
 2.0940	83.3658
 2.0930	83.3447
 2.0920	83.3743
 2.0910	83.3948
 2.0900	83.4175
 2.0890	83.4502
 2.0880	83.4530
 2.0870	83.4422
 2.0860	83.5125
 2.0850	83.5364
 2.0840	83.5041
 2.0830	83.4484
 2.0820	83.4464
 2.0810	83.5749
 2.0800	83.5469
 2.0790	83.5334
 2.0780	83.5853
 2.0770	83.5741
 2.0760	83.5811
 2.0750	83.5986
 2.0740	83.6104
 2.0730	83.6549
 2.0720	83.6708
 2.0710	83.5980
 2.0700	83.5913
 2.0690	83.6248
 2.0680	83.6752
 2.0670	83.6591
 2.0660	83.6179
 2.0650	83.6812
 2.0640	83.6574
 2.0630	83.7029
 2.0620	83.7461
 2.0610	83.7294
 2.0600	83.7558
 2.0590	83.7281
 2.0580	83.6827
 2.0570	83.7231
 2.0560	83.7516
 2.0550	83.7446
 2.0540	83.7035
 2.0530	83.7058
 2.0520	83.7858
 2.0510	83.8028
 2.0500	83.8137
 2.0490	83.7805
 2.0480	83.8015
 2.0470	83.7842
 2.0460	83.7953
 2.0450	83.8077
 2.0440	83.8165
 2.0430	83.8274
 2.0420	83.8582
 2.0410	83.8541
 2.0400	83.8119
 2.0390	83.8140
 2.0380	83.8369
 2.0370	83.8089
 2.0360	83.8392
 2.0350	83.8380
 2.0340	83.7710
 2.0330	83.7628
 2.0320	83.8264
 2.0310	83.8055
 2.0300	83.8037
 2.0290	83.8400
 2.0280	83.8248
 2.0270	83.8202
 2.0260	83.7392
 2.0250	83.7281
 2.0240	83.7191
 2.0230	83.7092
 2.0220	83.6705
 2.0210	83.6720
 2.0200	83.6615
 2.0190	83.6999
 2.0180	83.6412
 2.0170	83.7084
 2.0160	83.7373
 2.0150	83.7080
 2.0140	83.7084
 2.0130	83.6461
 2.0120	83.6534
 2.0110	83.5827
 2.0100	83.6228
 2.0090	83.5578
 2.0080	83.5926
 2.0070	83.6705
 2.0060	83.5735
 2.0050	83.5027
 2.0040	83.5000
 2.0030	83.4843
 2.0020	83.5562
 2.0010	83.5498
 2.0000	83.5285
 1.9990	83.5387
 1.9980	83.4966
 1.9970	83.5061
 1.9960	83.4106
 1.9950	83.3624
 1.9940	83.3639
 1.9930	83.3594
 1.9920	83.4053
 1.9910	83.2813
 1.9900	83.2247
 1.9890	83.2294
 1.9880	83.1916
 1.9870	83.1375
 1.9860	83.0905
 1.9850	83.1409
 1.9840	83.1268
 1.9830	83.0802
 1.9820	83.1246
 1.9810	83.0324
 1.9800	82.9804
 1.9790	82.9753
 1.9780	82.9958
 1.9770	82.9629
 1.9760	82.8761
 1.9750	82.8636
 1.9740	82.8706
 1.9730	82.9157
 1.9720	82.8474
 1.9710	82.8000
 1.9700	82.9202
 1.9690	82.7844
 1.9680	82.7464
 1.9670	82.7395
 1.9660	82.6211
 1.9650	82.7343
 1.9640	82.7093
 1.9630	82.7376
 1.9620	82.7537
 1.9610	82.6964
 1.9600	82.6747
 1.9590	82.7171
 1.9580	82.6389
 1.9570	82.5855
 1.9560	82.6344
 1.9550	82.6144
 1.9540	82.6544
 1.9530	82.6754
 1.9520	82.5634
 1.9510	82.5154
 1.9500	82.5935
 1.9490	82.4882
 1.9480	82.4718
 1.9470	82.5263
 1.9460	82.4951
 1.9450	82.5215
 1.9440	82.4589
 1.9430	82.5260
 1.9420	82.5461
 1.9410	82.5423
 1.9400	82.4405
 1.9390	82.4649
 1.9380	82.4598
 1.9370	82.4857
 1.9360	82.4674
 1.9350	82.5586
 1.9340	82.5148
 1.9330	82.5542
 1.9320	82.4474
 1.9310	82.5415
 1.9300	82.4362
 1.9290	82.4879
 1.9280	82.5662
 1.9270	82.4999
 1.9260	82.5501
 1.9250	82.5109
 1.9240	82.5689
 1.9230	82.5894
 1.9220	82.5599
 1.9210	82.5849
 1.9200	82.5660
 1.9190	82.6000
 1.9180	82.5824
 1.9170	82.6637
 1.9160	82.6906
 1.9150	82.8211
 1.9140	82.8001
 1.9130	82.7702
 1.9120	82.8103
 1.9110	82.9225
 1.9100	82.9290
 1.9090	82.9205
 1.9080	82.9731
 1.9070	82.9926
 1.9060	83.0996
 1.9050	83.1895
 1.9040	83.2436
 1.9030	83.2707
 1.9020	83.4300
 1.9010	83.4219
 1.9000	83.5925
 1.8990	83.5109
 1.8980	83.6190
 1.8970	83.6790
 1.8960	83.7393
 1.8950	83.7245
 1.8940	83.9285
 1.8930	83.9508
 1.8920	84.0415
 1.8910	84.0999
 1.8900	84.0715
 1.8890	84.1690
 1.8880	84.2571
 1.8870	84.2993
 1.8860	84.3243
 1.8850	84.3109
 1.8840	84.3520
 1.8830	84.4615
 1.8820	84.5151
 1.8810	84.5004
 1.8800	84.5264
 1.8790	84.5147
 1.8780	84.5194
 1.8770	84.5088
 1.8760	84.6383
 1.8750	84.5740
 1.8740	84.6210
 1.8730	84.6392
 1.8720	84.6928
 1.8710	84.6856
 1.8700	84.7263
 1.8690	84.7278
 1.8680	84.7375
 1.8670	84.6839
 1.8660	84.7374
 1.8650	84.7846
 1.8640	84.8296
 1.8630	84.8501
 1.8620	84.8221
 1.8610	84.7991
 1.8600	84.8580
 1.8590	84.7710
 1.8580	84.8575
 1.8570	84.8317
 1.8560	84.9026
 1.8550	84.9211
 1.8540	84.9005
 1.8530	84.9747
 1.8520	84.9107
 1.8510	84.8158
 1.8500	84.8861
 1.8490	84.8811
 1.8480	84.8998
 1.8470	84.8870
 1.8460	84.9207
 1.8450	84.8524
 1.8440	84.8730
 1.8430	84.9077
 1.8420	84.9218
 1.8410	84.8333
 1.8400	84.8713
 1.8390	84.8721
 1.8380	84.8481
 1.8370	84.8786
 1.8360	84.9089
 1.8350	84.8820
 1.8340	84.9393
 1.8330	84.9053
 1.8320	84.9245
 1.8310	84.9342
 1.8300	84.9409
 1.8290	84.8664
 1.8280	84.8231
 1.8270	84.9170
 1.8260	84.9685
 1.8250	84.9370
 1.8240	84.9049
 1.8230	84.8944
 1.8220	84.8921
 1.8210	84.8916
 1.8200	84.9543
 1.8190	85.0071
 1.8180	84.9952
 1.8170	84.9792
 1.8160	85.0151
 1.8150	85.0088
 1.8140	84.9656
 1.8130	84.9453
 1.8120	84.9396
 1.8110	84.9855
 1.8100	85.0797
 1.8090	85.0166
 1.8080	85.0526
 1.8070	85.0304
 1.8060	85.0105
 1.8050	85.0165
 1.8040	84.9771
 1.8030	84.9566
 1.8020	84.9853
 1.8010	85.0359
 1.8000	85.0072
 1.7990	84.9690
 1.7980	84.9590
 1.7970	84.9280
 1.7960	84.9122
 1.7950	84.9982
 1.7940	85.0630
 1.7930	85.0196
 1.7920	84.9823
 1.7910	85.0173
 1.7900	85.0350
 1.7890	84.9826
 1.7880	84.9413
 1.7870	84.9116
 1.7860	84.9607
 1.7850	85.0181
 1.7840	85.0127
 1.7830	84.9369
 1.7820	84.9155
 1.7810	84.9932
 1.7800	85.0552
 1.7790	85.0520
 1.7780	85.0266
 1.7770	84.9797
 1.7760	84.9625
 1.7750	84.9704
 1.7740	84.9270
 1.7730	84.9137
 1.7720	84.9110
 1.7710	84.8946
 1.7700	84.9081
 1.7690	84.9564
 1.7680	84.8920
 1.7670	84.8811
 1.7660	84.9644
 1.7650	84.9711
 1.7640	84.9355
 1.7630	84.9711
 1.7620	84.9614
 1.7610	84.9281
 1.7600	84.9740
 1.7590	84.9247
 1.7580	84.8982
 1.7570	84.8820
 1.7560	84.9424
 1.7550	84.9765
 1.7540	84.9476
 1.7530	84.9249
 1.7520	84.9134
 1.7510	84.9461
 1.7500	84.9554
 1.7490	84.9926
 1.7480	85.0252
 1.7470	84.9906
 1.7460	84.9555
 1.7450	84.9836
 1.7440	85.0143
 1.7430	84.9546
 1.7420	84.9480
 1.7410	84.9857
 1.7400	85.0075
 1.7390	85.0744
 1.7380	85.0659
 1.7370	85.0176
 1.7360	85.0262
 1.7350	85.0161
 1.7340	85.0275
 1.7330	85.0490
 1.7320	85.0844
 1.7310	85.0525
 1.7300	85.0171
 1.7290	85.0642
 1.7280	85.1001
 1.7270	85.0552
 1.7260	85.0384
 1.7250	85.0894
 1.7240	85.0468
 1.7230	85.0183
 1.7220	85.0653
 1.7210	85.1328
 1.7200	85.0836
 1.7190	85.0989
 1.7180	85.1075
 1.7170	85.0796
 1.7160	85.0499
 1.7150	85.1114
 1.7140	85.0757
 1.7130	85.0769
 1.7120	85.0159
 1.7110	85.0408
 1.7100	85.0133
 1.7090	84.9997
 1.7080	85.0211
 1.7070	85.0576
 1.7060	85.0714
 1.7050	84.9668
 1.7040	85.0116
 1.7030	85.0723
 1.7020	85.0631
 1.7010	85.0360
 1.7000	85.0175
 1.6990	85.0560
 1.6980	84.9814
 1.6970	85.0076
 1.6960	84.9788
 1.6950	85.0014
 1.6940	85.0629
 1.6930	85.0197
 1.6920	85.0184
 1.6910	85.0762
 1.6900	85.0145
 1.6890	85.0354
 1.6880	85.0305
 1.6870	84.9745
 1.6860	85.0156
 1.6850	85.1257
 1.6840	84.9805
 1.6830	84.9885
 1.6820	84.9583
 1.6810	84.9965
 1.6800	84.9992
 1.6790	84.9989
 1.6780	84.9906
 1.6770	85.0253
 1.6760	84.9608
 1.6750	84.9252
 1.6740	84.9656
 1.6730	85.0160
 1.6720	85.0933
 1.6710	84.9907
 1.6700	85.0277
 1.6690	85.0425
 1.6680	84.9596
 1.6670	85.0097
 1.6660	84.9992
 1.6650	84.9859
 1.6640	85.0336
 1.6630	85.0745
 1.6620	84.9991
 1.6610	85.0868
 1.6600	85.0887
 1.6590	84.9988
 1.6580	84.9405
 1.6570	85.0267
 1.6560	85.0476
 1.6550	85.0406
 1.6540	85.0523
 1.6530	84.9557
 1.6520	85.0965
 1.6510	84.9932
 1.6500	84.9644
 1.6490	85.1207
 1.6480	84.9538
 1.6470	84.9889
 1.6460	85.0071
 1.6450	85.0222
 1.6440	85.0580
 1.6430	84.9929
 1.6420	85.0864
 1.6410	85.0774
 1.6400	85.0627
 1.6390	85.0494
 1.6380	85.0429
 1.6370	84.9963
 1.6360	85.0029
 1.6350	84.9861
 1.6340	85.0004
 1.6330	85.0052
 1.6320	85.0883
 1.6310	85.0351
 1.6300	84.9797
 1.6290	85.0310
 1.6280	85.0734
 1.6270	85.0786
 1.6260	84.9409
 1.6250	85.0184
 1.6240	85.0024
 1.6230	84.9850
 1.6220	85.0063
 1.6210	85.0529
 1.6200	85.0937
 1.6190	85.1005
 1.6180	85.0201
 1.6170	85.0887
 1.6160	85.0656
 1.6150	84.9692
 1.6140	85.0345
 1.6130	85.0431
 1.6120	85.0816
 1.6110	85.0788
 1.6100	84.9738
 1.6090	85.0416
 1.6080	85.0204
 1.6070	84.9740
 1.6060	84.9625
 1.6050	85.0348
 1.6040	85.0545
 1.6030	85.0127
 1.6020	85.0107
 1.6010	85.0745
 1.6000	85.0668
 1.5990	84.9941
 1.5980	85.0368
 1.5970	85.0951
 1.5960	85.0194
 1.5950	85.0125
 1.5940	84.9992
 1.5930	85.0010
 1.5920	85.0578
 1.5910	84.9139
 1.5900	84.9173
 1.5890	85.0306
 1.5880	84.9415
 1.5870	84.9796
 1.5860	85.0045
 1.5850	84.9477
 1.5840	84.9661
 1.5830	85.0269
 1.5820	84.9645
 1.5810	85.0098
 1.5800	84.9983
 1.5790	84.9801
 1.5780	84.9536
 1.5770	84.9405
 1.5760	84.9063
 1.5750	85.0054
 1.5740	84.9472
 1.5730	84.9277
 1.5720	84.9659
 1.5710	84.9724
 1.5700	84.9927
 1.5690	84.9703
 1.5680	84.9661
 1.5670	85.0111
 1.5660	84.9426
 1.5650	84.9178
 1.5640	84.9216
 1.5630	84.8570
 1.5620	84.9337
 1.5610	84.9962
 1.5600	84.9716
 1.5590	84.9494
 1.5580	84.9455
 1.5570	85.0307
 1.5560	84.9716
 1.5550	84.8860
 1.5540	84.9096
 1.5530	84.9005
 1.5520	84.8507
 1.5510	84.8337
 1.5500	84.8502
 1.5490	84.9039
 1.5480	84.8470
 1.5470	84.8467
 1.5460	84.8753
 1.5450	84.8765
 1.5440	84.8461
 1.5430	84.8462
 1.5420	84.8484
 1.5410	84.8518
 1.5400	84.8928
 1.5390	84.8573
 1.5380	84.8831
 1.5370	84.8422
 1.5360	84.8283
 1.5350	84.8374
 1.5340	84.9012
 1.5330	84.9397
 1.5320	84.8841
 1.5310	84.8616
 1.5300	84.7986
 1.5290	84.8192
 1.5280	84.8201
 1.5270	84.8358
 1.5260	84.8399
 1.5250	84.8246
 1.5240	84.7772
 1.5230	84.7953
 1.5220	84.8449
 1.5210	84.8106
 1.5200	84.7723
 1.5190	84.7720
 1.5180	84.7805
 1.5170	84.8266
 1.5160	84.8117
 1.5150	84.8219
 1.5140	84.8154
 1.5130	84.7779
 1.5120	84.7251
 1.5110	84.7375
 1.5100	84.7544
 1.5090	84.7475
 1.5080	84.6975
 1.5070	84.7089
 1.5060	84.7478
 1.5050	84.7613
 1.5040	84.7800
 1.5030	84.7891
 1.5020	84.7614
 1.5010	84.6470
 1.5000	84.6584
 1.4990	84.6952
 1.4980	84.6662
 1.4970	84.7439
 1.4960	84.7729
 1.4950	84.6673
 1.4940	84.6347
 1.4930	84.6398
 1.4920	84.6825
 1.4910	84.7265
 1.4900	84.6963
 1.4890	84.6643
 1.4880	84.5900
 1.4870	84.5470
 1.4860	84.5852
 1.4850	84.5675
 1.4840	84.5691
 1.4830	84.5996
 1.4820	84.5125
 1.4810	84.5324
 1.4800	84.5971
 1.4790	84.5159
 1.4780	84.5417
 1.4770	84.5886
 1.4760	84.5342
 1.4750	84.4809
 1.4740	84.5014
 1.4730	84.5329
 1.4720	84.5213
 1.4710	84.4521
 1.4700	84.5577
 1.4690	84.5159
 1.4680	84.4702
 1.4670	84.5427
 1.4660	84.5093
 1.4650	84.5037
 1.4640	84.4903
 1.4630	84.5333
 1.4620	84.5078
 1.4610	84.5441
 1.4600	84.4944
 1.4590	84.3808
 1.4580	84.4487
 1.4570	84.4278
 1.4560	84.5086
 1.4550	84.5464
 1.4540	84.4456
 1.4530	84.4205
 1.4520	84.4735
 1.4510	84.4551
 1.4500	84.4114
 1.4490	84.4604
 1.4480	84.4429
 1.4470	84.4077
 1.4460	84.4422
 1.4450	84.4478
 1.4440	84.4182
 1.4430	84.4198
 1.4420	84.4335
 1.4410	84.4358
 1.4400	84.3880
 1.4390	84.3963
 1.4380	84.3662
 1.4370	84.3323
 1.4360	84.3704
 1.4350	84.3605
 1.4340	84.3606
 1.4330	84.2957
 1.4320	84.3471
 1.4310	84.3331
 1.4300	84.3666
 1.4290	84.2868
 1.4280	84.2165
 1.4270	84.2021
 1.4260	84.2601
 1.4250	84.2221
 1.4240	84.2452
 1.4230	84.2215
 1.4220	84.2011
 1.4210	84.1965
 1.4200	84.1850
 1.4190	84.0787
 1.4180	83.9424
 1.4170	83.8090
 1.4160	83.8238
 1.4150	83.8033
 1.4140	83.7509
 1.4130	83.7247
 1.4120	83.6898
 1.4110	83.6838
 1.4100	83.7194
 1.4090	83.7597
 1.4080	83.8050
 1.4070	83.8401
 1.4060	83.7881
 1.4050	83.8517
 1.4040	83.9391
 1.4030	84.0292
 1.4020	83.9681
 1.4010	83.9742
 1.4000	84.0462
 1.3990	84.1334
 1.3980	84.2209
 1.3970	84.2739
 1.3960	84.2827
 1.3950	84.4153
 1.3940	84.4606
 1.3930	84.4460
 1.3920	84.4673
 1.3910	84.6406
 1.3900	84.5559
 1.3890	84.6598
 1.3880	84.6627
 1.3870	84.6863
 1.3860	84.7498
 1.3850	84.6656
 1.3840	84.7120
 1.3830	84.6605
 1.3820	84.6296
 1.3810	84.7198
 1.3800	84.7082
 1.3790	84.6489
 1.3780	84.7113
 1.3770	84.7137
 1.3760	84.6997
 1.3750	84.7229
 1.3740	84.6533
 1.3730	84.6621
 1.3720	84.6722
 1.3710	84.6487
 1.3700	84.7093
 1.3690	84.8085
 1.3680	84.7187
 1.3670	84.6650
 1.3660	84.6460
 1.3650	84.6657
 1.3640	84.7778
 1.3630	84.6520
 1.3620	84.7025
 1.3610	84.7225
 1.3600	84.8033
 1.3590	84.7011
 1.3580	84.7094
 1.3570	84.7432
 1.3560	84.7770
 1.3550	84.7186
 1.3540	84.6191
 1.3530	84.6714
 1.3520	84.7081
 1.3510	84.6563
 1.3500	84.7330
 1.3490	84.6632
 1.3480	84.6211
 1.3470	84.5504
 1.3460	84.6392
 1.3450	84.6787
 1.3440	84.7101
 1.3430	84.6832
 1.3420	84.7202
 1.3410	84.6230
 1.3400	84.5917
 1.3390	84.6730
 1.3380	84.6569
 1.3370	84.6385
 1.3360	84.6414
 1.3350	84.6776
 1.3340	84.7010
 1.3330	84.6875
 1.3320	84.6787
 1.3310	84.6783
 1.3300	84.6501
 1.3290	84.5988
 1.3280	84.5538
 1.3270	84.6260
 1.3260	84.5539
 1.3250	84.6049
 1.3240	84.5948
 1.3230	84.6550
 1.3220	84.5742
 1.3210	84.6960
 1.3200	84.6437
 1.3190	84.6127
 1.3180	84.6019
 1.3170	84.6021
 1.3160	84.5460
 1.3150	84.6130
 1.3140	84.6025
 1.3130	84.5921
 1.3120	84.6239
 1.3110	84.5848
 1.3100	84.5794
 1.3090	84.6116
 1.3080	84.6710
 1.3070	84.5943
 1.3060	84.6694
 1.3050	84.6443
 1.3040	84.6848
 1.3030	84.5494
 1.3020	84.5536
 1.3010	84.5443
 1.3000	84.5699
 1.2990	84.5714
 1.2980	84.5295
 1.2970	84.5534
 1.2960	84.5587
 1.2950	84.5781
 1.2940	84.6571
 1.2930	84.6035
 1.2920	84.6351
 1.2910	84.5666
 1.2900	84.5323
 1.2890	84.5707
 1.2880	84.5684
 1.2870	84.5636
 1.2860	84.6517
 1.2850	84.5927
 1.2840	84.5052
 1.2830	84.5846
 1.2820	84.5391
 1.2810	84.5485
 1.2800	84.5452
 1.2790	84.5979
 1.2780	84.6423
 1.2770	84.6078
 1.2760	84.5928
 1.2750	84.5333
 1.2740	84.5365
 1.2730	84.5227
 1.2720	84.5222
 1.2710	84.5107
 1.2700	84.5586
 1.2690	84.5559
 1.2680	84.5805
 1.2670	84.5912
 1.2660	84.6205
 1.2650	84.5629
 1.2640	84.5011
 1.2630	84.5220
 1.2620	84.5800
 1.2610	84.5873
 1.2600	84.5570
 1.2590	84.6107
 1.2580	84.5343
 1.2570	84.4837
 1.2560	84.4785
 1.2550	84.5229
 1.2540	84.5454
 1.2530	84.5457
 1.2520	84.4604
 1.2510	84.4703
 1.2500	84.5428
 1.2490	84.5516
 1.2480	84.5105
 1.2470	84.4708
 1.2460	84.5192
 1.2450	84.5578
 1.2440	84.5503
 1.2430	84.5299
 1.2420	84.5052
 1.2410	84.5154
 1.2400	84.5460
 1.2390	84.5380
 1.2380	84.4918
 1.2370	84.5319
 1.2360	84.5715
 1.2350	84.5470
 1.2340	84.5472
 1.2330	84.5657
 1.2320	84.5764
 1.2310	84.5172
 1.2300	84.4774
 1.2290	84.4828
 1.2280	84.5053
 1.2270	84.4795
 1.2260	84.5031
 1.2250	84.5171
 1.2240	84.5154
 1.2230	84.5200
 1.2220	84.5078
 1.2210	84.4570
 1.2200	84.5010
 1.2190	84.5561
 1.2180	84.4937
 1.2170	84.4567
 1.2160	84.4842
 1.2150	84.4784
 1.2140	84.4302
 1.2130	84.4513
 1.2120	84.4568
 1.2110	84.4748
 1.2100	84.5105
 1.2090	84.5098
 1.2080	84.4873
 1.2070	84.4690
 1.2060	84.5555
 1.2050	84.5388
 1.2040	84.4965
 1.2030	84.5038
 1.2020	84.5019
 1.2010	84.5030
 1.2000	84.4844
 1.1990	84.5231
 1.1980	84.5125
 1.1970	84.4934
 1.1960	84.5099
 1.1950	84.4809
 1.1940	84.4452
 1.1930	84.5003
 1.1920	84.5058
 1.1910	84.4780
 1.1900	84.4859
 1.1890	84.5027
 1.1880	84.4614
 1.1870	84.4710
 1.1860	84.4265
 1.1850	84.4073
 1.1840	84.3932
 1.1830	84.4818
 1.1820	84.5330
 1.1810	84.5331
 1.1800	84.4730
 1.1790	84.4853
 1.1780	84.5559
 1.1770	84.5490
 1.1760	84.5304
 1.1750	84.4685
 1.1740	84.4445
 1.1730	84.4966
 1.1720	84.4883
 1.1710	84.5461
 1.1700	84.5620
 1.1690	84.5338
 1.1680	84.4846
 1.1670	84.5000
 1.1660	84.5264
 1.1650	84.5847
 1.1640	84.5538
 1.1630	84.4646
 1.1620	84.4492
 1.1610	84.5106
 1.1600	84.5046
 1.1590	84.4990
 1.1580	84.5068
 1.1570	84.5460
 1.1560	84.5227
 1.1550	84.5321
 1.1540	84.4941
 1.1530	84.5330
 1.1520	84.4157
 1.1510	84.5214
 1.1500	84.5475
 1.1490	84.5226
 1.1480	84.4814
 1.1470	84.5152
 1.1460	84.5329
 1.1450	84.5564
 1.1440	84.5022
 1.1430	84.5382
 1.1420	84.5855
 1.1410	84.4965
 1.1400	84.5684
 1.1390	84.6676
 1.1380	84.5887
 1.1370	84.5718
 1.1360	84.6138
 1.1350	84.6089
 1.1340	84.5676
 1.1330	84.5623
 1.1320	84.6097
 1.1310	84.5350
 1.1300	84.5561
 1.1290	84.6570
 1.1280	84.6049
 1.1270	84.5492
 1.1260	84.5477
 1.1250	84.6689
 1.1240	84.5852
 1.1230	84.6289
 1.1220	84.6467
 1.1210	84.5123
 1.1200	84.6236
 1.1190	84.6930
 1.1180	84.5026
 1.1170	84.5809
 1.1160	84.5996
 1.1150	84.6141
 1.1140	84.6590
 1.1130	84.6002
 1.1120	84.5168
 1.1110	84.5961
 1.1100	84.5690
 1.1090	84.6114
 1.1080	84.6739
 1.1070	84.5827
 1.1060	84.5440
 1.1050	84.6727
 1.1040	84.6938
 1.1030	84.6306
 1.1020	84.6009
 1.1010	84.6304
 1.1000	84.6051
 1.0990	84.6123
 1.0980	84.4925
 1.0970	84.5942
 1.0960	84.6003
 1.0950	84.5586
 1.0940	84.6644
 1.0930	84.6479
 1.0920	84.6120
 1.0910	84.6181
 1.0900	84.6495
 1.0890	84.6652
 1.0880	84.5395
 1.0870	84.7010
 1.0860	84.6613
 1.0850	84.6560
 1.0840	84.7019
 1.0830	84.6745
 1.0820	84.6918
 1.0810	84.6293
 1.0800	84.5915
 1.0790	84.5968
 1.0780	84.6227
 1.0770	84.6235
 1.0760	84.6963
 1.0750	84.6736
 1.0740	84.5415
 1.0730	84.7326
 1.0720	84.6829
 1.0710	84.6599
 1.0700	84.6257
 1.0690	84.7318
 1.0680	84.5636
 1.0670	84.6380
 1.0660	84.6546
 1.0650	84.6556
 1.0640	84.6491
 1.0630	84.6427
 1.0620	84.6509
 1.0610	84.7313
 1.0600	84.7116
 1.0590	84.7012
 1.0580	84.6965
 1.0570	84.6374
 1.0560	84.6869
 1.0550	84.6823
 1.0540	84.6430
 1.0530	84.6512
 1.0520	84.6271
 1.0510	84.6700
 1.0500	84.6730
 1.0490	84.6776
 1.0480	84.6691
 1.0470	84.6441
 1.0460	84.6030
 1.0450	84.6424
 1.0440	84.7167
 1.0430	84.7243
 1.0420	84.6673
 1.0410	84.6737
 1.0400	84.7166
 1.0390	84.6804
 1.0380	84.7232
 1.0370	84.6646
 1.0360	84.6850
 1.0350	84.6568
 1.0340	84.6635
 1.0330	84.7881
 1.0320	84.7441
 1.0310	84.6998
 1.0300	84.6002
 1.0290	84.6715
 1.0280	84.7603
 1.0270	84.6963
 1.0260	84.7188
 1.0250	84.7520
 1.0240	84.7436
 1.0230	84.6729
 1.0220	84.8115
 1.0210	84.7099
 1.0200	84.7611
 1.0190	84.7620
 1.0180	84.7126
 1.0170	84.7917
 1.0160	84.6949
 1.0150	84.7077
 1.0140	84.6560
 1.0130	84.7566
 1.0120	84.7732
 1.0110	84.6906
 1.0100	84.7179
 1.0090	84.7091
 1.0080	84.6628
 1.0070	84.7380
 1.0060	84.7898
 1.0050	84.7731
 1.0040	84.7480
 1.0030	84.7342
 1.0020	84.6801
 1.0010	84.6890
 1.0000	84.7241
 0.9990	84.6721
 0.9980	84.7635
 0.9970	84.7900
 0.9960	84.7509
 0.9950	84.7957
 0.9940	84.7412
 0.9930	84.7057
 0.9920	84.7052
 0.9910	84.6576
 0.9900	84.7029
 0.9890	84.7437
 0.9880	84.8125
 0.9870	84.7729
 0.9860	84.7033
 0.9850	84.7309
 0.9840	84.7660
 0.9830	84.8308
 0.9820	84.7917
 0.9810	84.8082
 0.9800	84.7731
 0.9790	84.7130
 0.9780	84.7222
 0.9770	84.7371
 0.9760	84.7928
 0.9750	84.8055
 0.9740	84.7372
 0.9730	84.7006
 0.9720	84.6741
 0.9710	84.7658
 0.9700	84.7230
 0.9690	84.6752
 0.9680	84.7530
 0.9670	84.7906
 0.9660	84.7436
 0.9650	84.7878
 0.9640	84.7812
 0.9630	84.7827
 0.9620	84.7846
 0.9610	84.8007
 0.9600	84.7991
 0.9590	84.7583
 0.9580	84.7024
 0.9570	84.7356
 0.9560	84.7379
 0.9550	84.7621
 0.9540	84.7619
 0.9530	84.7691
 0.9520	84.7621
 0.9510	84.7790
 0.9500	84.8126
 0.9490	84.8204
 0.9480	84.8134
 0.9470	84.7837
 0.9460	84.7559
 0.9450	84.7129
 0.9440	84.7379
 0.9430	84.7421
 0.9420	84.7778
 0.9410	84.7974
 0.9400	84.7639
 0.9390	84.7174
 0.9380	84.6963
 0.9370	84.7924
 0.9360	84.8231
 0.9350	84.7796
 0.9340	84.7973
 0.9330	84.8308
 0.9320	84.7876
 0.9310	84.7374
 0.9300	84.7795
 0.9290	84.7531
 0.9280	84.7423
 0.9270	84.7775
 0.9260	84.7942
 0.9250	84.7955
 0.9240	84.7718
 0.9230	84.8045
 0.9220	84.8077
 0.9210	84.7954
 0.9200	84.8081
 0.9190	84.8020
 0.9180	84.7919
 0.9170	84.7345
 0.9160	84.7627
 0.9150	84.7701
 0.9140	84.7463
 0.9130	84.7563
 0.9120	84.7509
 0.9110	84.8005
 0.9100	84.7647
 0.9090	84.7845
 0.9080	84.8436
 0.9070	84.7740
 0.9060	84.7427
 0.9050	84.7521
 0.9040	84.7578
 0.9030	84.7493
 0.9020	84.7800
 0.9010	84.7956
 0.9000	84.7609
 0.8990	84.7369
 0.8980	84.7808
 0.8970	84.7848
 0.8960	84.7441
 0.8950	84.7214
 0.8940	84.7110
 0.8930	84.8337
 0.8920	84.8039
 0.8910	84.7855
 0.8900	84.7777
 0.8890	84.6991
 0.8880	84.6870
 0.8870	84.6823
 0.8860	84.7270
 0.8850	84.7812
 0.8840	84.8249
 0.8830	84.7438
 0.8820	84.7040
 0.8810	84.7352
 0.8800	84.7748
 0.8790	84.7450
 0.8780	84.7607
 0.8770	84.7245
 0.8760	84.7574
 0.8750	84.7514
 0.8740	84.7923
 0.8730	84.7722
 0.8720	84.7809
 0.8710	84.6922
 0.8700	84.7357
 0.8690	84.7287
 0.8680	84.7091
 0.8670	84.7355
 0.8660	84.6860
 0.8650	84.6310
 0.8640	84.6895
 0.8630	84.7492
 0.8620	84.6952
 0.8610	84.6898
 0.8600	84.8796
 0.8590	84.7521
 0.8580	84.7545
 0.8570	84.8881
 0.8560	84.7052
 0.8550	84.7489
 0.8540	84.8074
 0.8530	84.7845
 0.8520	84.8085
 0.8510	84.8468
 0.8500	84.7882
 0.8490	84.7424
 0.8480	84.8375
 0.8470	84.7827
 0.8460	84.7137
 0.8450	84.8134
 0.8440	84.7981
 0.8430	84.6892
 0.8420	84.7418
 0.8410	84.7813
 0.8400	84.7111
 0.8390	84.6908
 0.8380	84.7597
 0.8370	84.7096
 0.8360	84.8095
 0.8350	84.8000
 0.8340	84.7368
 0.8330	84.7736
 0.8320	84.7359
 0.8310	84.7087
 0.8300	84.7210
 0.8290	84.7983
 0.8280	84.7178
 0.8270	84.7835
 0.8260	84.7969
 0.8250	84.7063
 0.8240	84.7258
 0.8230	84.7973
 0.8220	84.7187
 0.8210	84.7831
 0.8200	84.7439
 0.8190	84.7780
 0.8180	84.7210
 0.8170	84.7416
 0.8160	84.7471
 0.8150	84.6957
 0.8140	84.7596
 0.8130	84.7794
 0.8120	84.6977
 0.8110	84.7811
 0.8100	84.7351
 0.8090	84.7434
 0.8080	84.7545
 0.8070	84.7139
 0.8060	84.7326
 0.8050	84.7658
 0.8040	84.7524
 0.8030	84.6803
 0.8020	84.7501
 0.8010	84.6902
 0.8000	84.7248
 0.7990	84.7331
 0.7980	84.7310
 0.7970	84.6616
 0.7960	84.6907
 0.7950	84.6258
 0.7940	84.5963
 0.7930	84.5930
 0.7920	84.6249
 0.7910	84.6008
 0.7900	84.6627
 0.7890	84.5794
 0.7880	84.5409
 0.7870	84.6093
 0.7860	84.6290
 0.7850	84.5485
 0.7840	84.6060
 0.7830	84.5561
 0.7820	84.5739
 0.7810	84.5652
 0.7800	84.6023
 0.7790	84.5514
 0.7780	84.5530
 0.7770	84.5485
 0.7760	84.4597
 0.7750	84.4910
 0.7740	84.4894
 0.7730	84.5060
 0.7720	84.4693
 0.7710	84.4753
 0.7700	84.4412
 0.7690	84.4489
 0.7680	84.4237
 0.7670	84.4369
 0.7660	84.4088
 0.7650	84.4353
 0.7640	84.4689
 0.7630	84.4291
 0.7620	84.3992
 0.7610	84.4141
 0.7600	84.3912
 0.7590	84.3854
 0.7580	84.4120
 0.7570	84.3782
 0.7560	84.3751
 0.7550	84.3808
 0.7540	84.3797
 0.7530	84.3913
 0.7520	84.3840
 0.7510	84.3303
 0.7500	84.3626
 0.7490	84.3745
 0.7480	84.3651
 0.7470	84.3304
 0.7460	84.3282
 0.7450	84.3155
 0.7440	84.3183
 0.7430	84.3062
 0.7420	84.2898
 0.7410	84.3107
 0.7400	84.2871
 0.7390	84.3292
 0.7380	84.2915
 0.7370	84.3040
 0.7360	84.3090
 0.7350	84.2718
 0.7340	84.2732
 0.7330	84.2838
 0.7320	84.2762
 0.7310	84.2485
 0.7300	84.2508
 0.7290	84.2511
 0.7280	84.2172
 0.7270	84.2426
 0.7260	84.2317
 0.7250	84.2060
 0.7240	84.1772
 0.7230	84.1844
 0.7220	84.1967
 0.7210	84.1869
 0.7200	84.1829
 0.7190	84.1521
 0.7180	84.1531
 0.7170	84.1332
 0.7160	84.1586
 0.7150	84.1831
 0.7140	84.1577
 0.7130	84.1440
 0.7120	84.1399
 0.7110	84.1352
 0.7100	84.1153
 0.7090	84.1029
 0.7080	84.1294
 0.7070	84.1066
 0.7060	84.0791
 0.7050	84.0789
 0.7040	84.0736
 0.7030	84.0833
 0.7020	84.0892
 0.7010	84.0670
 0.7000	84.0724
 0.6990	84.0712
 0.6980	84.0551
 0.6970	84.0361
 0.6960	84.0219
 0.6950	84.0297
 0.6940	84.0163
 0.6930	84.0057
 0.6920	84.0156
 0.6910	84.0114
 0.6900	83.9746
 0.6890	84.0061
 0.6880	84.0038
 0.6870	83.9946
 0.6860	83.9879
 0.6850	83.9749
 0.6840	83.9572
 0.6830	83.9550
 0.6820	83.9444
 0.6810	83.9150
 0.6800	83.9288
 0.6790	83.9368
 0.6780	83.9095
 0.6770	83.8969
 0.6760	83.9056
 0.6750	83.9103
 0.6740	83.9229
 0.6730	83.9273
 0.6720	83.9076
 0.6710	83.8927
 0.6700	83.8866
 0.6690	83.8811
 0.6680	83.8881
 0.6670	83.8911
 0.6660	83.8633
 0.6650	83.8608
 0.6640	83.8601
 0.6630	83.8425
 0.6620	83.8441
 0.6610	83.8473
 0.6600	83.8433
 0.6590	83.8641
 0.6580	83.8393
 0.6570	83.8164
 0.6560	83.8277
 0.6550	83.8252
 0.6540	83.8270
 0.6530	83.8286
 0.6520	83.8118
 0.6510	83.7940
 0.6500	83.7893
 0.6490	83.7867
 0.6480	83.7949
 0.6470	83.7804
 0.6460	83.7868
 0.6450	83.7911
 0.6440	83.7879
 0.6430	83.7900
 0.6420	83.7685
 0.6410	83.7671
 0.6400	83.7402
 0.6390	83.7357
 0.6380	83.7534
 0.6370	83.7517
 0.6360	83.7420
 0.6350	83.7297
 0.6340	83.7257
 0.6330	83.7167
 0.6320	83.7158
 0.6310	83.7113
 0.6300	83.6981
 0.6290	83.7008
 0.6280	83.6997
 0.6270	83.6948
 0.6260	83.6836
 0.6250	83.6817
 0.6240	83.6643
 0.6230	83.6477
 0.6220	83.6423
 0.6210	83.6322
 0.6200	83.6369
 0.6190	83.6319
 0.6180	83.6211
 0.6170	83.6143
 0.6160	83.6047
 0.6150	83.5988
 0.6140	83.5927
 0.6130	83.5816
 0.6120	83.5850
 0.6110	83.5739
 0.6100	83.5694
 0.6090	83.5590
 0.6080	83.5381
 0.6070	83.5268
 0.6060	83.5112
 0.6050	83.4862
 0.6040	83.4835
 0.6030	83.4912
 0.6020	83.4753
 0.6010	83.4557
 0.6000	83.4420
 0.5990	83.4619
 0.5980	83.4595
 0.5970	83.4560
 0.5960	83.4800
 0.5950	83.4946
 0.5940	83.4734
 0.5930	83.4542
 0.5920	83.4394
 0.5910	83.4099
 0.5900	83.3835
 0.5890	83.3786
 0.5880	83.3673
 0.5870	83.3479
 0.5860	83.3258
 0.5850	83.3205
 0.5840	83.3013
 0.5830	83.2814
 0.5820	83.2677
 0.5810	83.2439
 0.5800	83.2209
 0.5790	83.1941
 0.5780	83.1922
 0.5770	83.1831
 0.5760	83.1571
 0.5750	83.1230
 0.5740	83.1138
 0.5730	83.0844
 0.5720	83.0685
 0.5710	83.0455
 0.5700	83.0164
 0.5690	83.0055
 0.5680	82.9831
 0.5670	82.9584
 0.5660	82.9482
 0.5650	82.9262
 0.5640	82.9040
 0.5630	82.8712
 0.5620	82.8392
 0.5610	82.8205
 0.5600	82.7795
 0.5590	82.7480
 0.5580	82.7319
 0.5570	82.7200
 0.5560	82.6989
 0.5550	82.6712
 0.5540	82.6457
 0.5530	82.6376
 0.5520	82.6098
 0.5510	82.5857
 0.5500	82.5573
 0.5490	82.5628
 0.5480	82.5235
 0.5470	82.4840
 0.5460	82.4725
 0.5450	82.4392
 0.5440	82.4105
 0.5430	82.3824
 0.5420	82.3796
 0.5410	82.3415
 0.5400	82.3503
 0.5390	82.3281
 0.5380	82.2925
 0.5370	82.2808
 0.5360	82.2553
 0.5350	82.2361
 0.5340	82.2172
 0.5330	82.2006
 0.5320	82.1824
 0.5310	82.1571
 0.5300	82.1295
 0.5290	82.1024
 0.5280	82.0880
 0.5270	82.0632
 0.5260	82.0506
 0.5250	82.0471
 0.5240	82.0441
 0.5230	82.0263
 0.5220	81.9876
 0.5210	82.0003
 0.5200	81.9771
 0.5190	81.9399
 0.5180	81.9366
 0.5170	81.9175
 0.5160	81.8986
 0.5150	81.8675
 0.5140	81.8383
 0.5130	81.8175
 0.5120	81.7985
 0.5110	81.7856
 0.5100	81.7649
 0.5090	81.7306
 0.5080	81.7230
 0.5070	81.7041
 0.5060	81.6910
 0.5050	81.6484
 0.5040	81.6023
 0.5030	81.6019
 0.5020	81.5763
 0.5010	81.5254
 0.5000	81.5225
 0.4990	81.4698
 0.4980	81.4415
 0.4970	81.4181
 0.4960	81.3681
 0.4950	81.3417
 0.4940	81.3212
 0.4930	81.3049
 0.4920	81.2426
 0.4910	81.2252
 0.4900	81.1694
 0.4890	81.1150
 0.4880	81.0961
 0.4870	81.0522
 0.4860	81.0039
 0.4850	80.9778
 0.4840	80.9245
 0.4830	80.8692
 0.4820	80.8793
 0.4810	80.8291
 0.4800	80.7839
 0.4790	80.7543
 0.4780	80.7282
 0.4770	80.7162
 0.4760	80.6962
 0.4750	80.6549
 0.4740	80.6322
 0.4730	80.5911
 0.4720	80.5593
 0.4710	80.5131
 0.4700	80.5020
 0.4690	80.4691
 0.4680	80.4156
 0.4670	80.4127
 0.4660	80.3650
 0.4650	80.3228
 0.4640	80.2788
 0.4630	80.2382
 0.4620	80.2251
 0.4610	80.1826
 0.4600	80.1502
 0.4590	80.0927
 0.4580	80.0345
 0.4570	79.9675
 0.4560	79.9499
 0.4550	79.9083
 0.4540	79.8613
 0.4530	79.8363
 0.4520	79.7822
 0.4510	79.7374
 0.4500	79.7028
 0.4490	79.6248
 0.4480	79.5879
 0.4470	79.5500
 0.4460	79.5182
 0.4450	79.4478
 0.4440	79.4000
 0.4430	79.3711
 0.4420	79.3006
 0.4410	79.2468
 0.4400	79.2235
 0.4390	79.1528
 0.4380	79.0877
 0.4370	79.0442
 0.4360	78.9981
 0.4350	78.9406
 0.4340	78.9020
 0.4330	78.8725
 0.4320	78.8171
 0.4310	78.7315
 0.4300	78.6692
 0.4290	78.6255
 0.4280	78.5741
 0.4270	78.5428
 0.4260	78.4668
 0.4250	78.4024
 0.4240	78.3434
 0.4230	78.3078
 0.4220	78.2321
 0.4210	78.1999
 0.4200	78.1383
 0.4190	78.0663
 0.4180	78.0037
 0.4170	77.9438
 0.4160	77.9004
 0.4150	77.8548
 0.4140	77.8205
 0.4130	77.7749
 0.4120	77.7114
 0.4110	77.6461
 0.4100	77.5805
 0.4090	77.5180
 0.4080	77.4735
 0.4070	77.4096
 0.4060	77.3229
 0.4050	77.2642
 0.4040	77.1905
 0.4030	77.1087
 0.4020	77.0504
 0.4010	76.9844
 0.4000	76.9083
