Name: Bytownite (Feldspar) (NaSi,CaAl)AlSi_2O_8
Type: Mineral
Class: Silicate
Subclass: Tectosilicate
Particle Size: Fine
Sample No.: TS-13A
Owner: JPL
Wavelength Range: VSWIR
Origin: 
Collection Date: N/A
Description: Particle size was 0-45um.Collected by JPL Original ASTER Spectral Library name was jpl.beckman.mineral.silicate.tectosilicate.fine.ts13a.spectrum.txt
Measurement: Hemispherical reflectance
First Column: X
Second Column: Y
X Units: Wavelength (micrometers)
Y Units:Reflectance (percent)
First X Value:  0.4000
Last X Value:  2.5000
Number of X Values: 826
Additional Information: mineral.silicate.tectosilicate.fine.vswir.ts-13a.jpl.beckman.ancillary.txt

 0.4000	59.3600
 0.4010	59.6800
 0.4020	59.7600
 0.4030	59.9000
 0.4040	60.0400
 0.4050	60.0600
 0.4060	60.1600
 0.4070	60.2900
 0.4080	60.3800
 0.4090	60.5200
 0.4100	60.6400
 0.4110	60.6600
 0.4120	60.8000
 0.4130	60.8000
 0.4140	60.8800
 0.4150	60.9600
 0.4160	61.0700
 0.4170	61.2100
 0.4180	61.2900
 0.4190	61.3400
 0.4200	61.4200
 0.4210	61.5300
 0.4220	61.5900
 0.4230	61.7100
 0.4240	61.8200
 0.4250	61.9800
 0.4260	62.1100
 0.4270	62.2500
 0.4280	62.3100
 0.4290	62.4100
 0.4300	62.4300
 0.4310	62.5900
 0.4320	62.6700
 0.4330	62.8300
 0.4340	62.9100
 0.4350	63.0500
 0.4360	63.2000
 0.4370	63.2400
 0.4380	63.3700
 0.4390	63.4700
 0.4400	63.5900
 0.4410	63.6500
 0.4420	63.7900
 0.4430	63.8300
 0.4440	63.9100
 0.4450	64.0700
 0.4460	64.1500
 0.4470	64.2700
 0.4480	64.3100
 0.4490	64.3700
 0.4500	64.4500
 0.4510	64.5400
 0.4520	64.5600
 0.4530	64.7100
 0.4540	64.7900
 0.4550	64.8900
 0.4560	64.9500
 0.4570	64.9400
 0.4580	65.0200
 0.4590	65.1100
 0.4600	65.1700
 0.4610	65.3400
 0.4620	65.3900
 0.4630	65.4400
 0.4640	65.5200
 0.4650	65.6000
 0.4660	65.5800
 0.4670	65.6000
 0.4680	65.6800
 0.4690	65.6800
 0.4700	65.7300
 0.4710	65.8300
 0.4720	65.8600
 0.4730	65.9000
 0.4740	65.9800
 0.4750	66.0000
 0.4760	66.0400
 0.4770	66.0600
 0.4780	66.1300
 0.4790	66.1600
 0.4800	66.2300
 0.4810	66.2800
 0.4820	66.3500
 0.4830	66.4300
 0.4840	66.4500
 0.4850	66.4800
 0.4860	66.5500
 0.4870	66.6700
 0.4880	66.7000
 0.4890	66.7600
 0.4900	66.7600
 0.4910	66.8200
 0.4920	66.8800
 0.4930	66.9600
 0.4940	66.9500
 0.4950	67.0100
 0.4960	67.1000
 0.4970	67.1400
 0.4980	67.2700
 0.4990	67.3100
 0.5000	67.3400
 0.5010	67.3800
 0.5020	67.4500
 0.5030	67.5700
 0.5040	67.6300
 0.5050	67.6500
 0.5060	67.7600
 0.5070	67.8600
 0.5080	67.9200
 0.5090	67.9800
 0.5100	68.0400
 0.5110	68.1300
 0.5120	68.1300
 0.5130	68.1800
 0.5140	68.1700
 0.5150	68.2500
 0.5160	68.3300
 0.5170	68.4200
 0.5180	68.4500
 0.5190	68.5300
 0.5200	68.5200
 0.5210	68.5600
 0.5220	68.6500
 0.5230	68.7000
 0.5240	68.7500
 0.5250	68.8300
 0.5260	68.8000
 0.5270	68.8700
 0.5280	68.9500
 0.5290	68.9700
 0.5300	69.0200
 0.5310	69.0300
 0.5320	69.0100
 0.5330	69.0100
 0.5340	69.0400
 0.5350	69.0600
 0.5360	69.0900
 0.5370	69.2500
 0.5380	69.2900
 0.5390	69.4100
 0.5400	69.4700
 0.5410	69.4900
 0.5420	69.4900
 0.5430	69.4700
 0.5440	69.4600
 0.5450	69.5400
 0.5460	69.5500
 0.5470	69.5900
 0.5480	69.6300
 0.5490	69.7400
 0.5500	69.7900
 0.5510	69.8400
 0.5520	69.8200
 0.5530	69.8700
 0.5540	69.8900
 0.5550	69.9100
 0.5560	69.9000
 0.5570	69.9700
 0.5580	69.9700
 0.5590	70.0100
 0.5600	70.1200
 0.5610	70.5200
 0.5620	70.5600
 0.5630	70.6300
 0.5640	70.6300
 0.5650	70.6600
 0.5660	70.6000
 0.5670	70.6000
 0.5680	70.6800
 0.5690	70.6600
 0.5700	70.6800
 0.5710	70.7200
 0.5720	70.7200
 0.5730	70.6000
 0.5740	70.5800
 0.5750	70.6100
 0.5760	70.6700
 0.5770	70.6600
 0.5780	70.6500
 0.5790	70.7400
 0.5800	70.7700
 0.5810	70.7800
 0.5820	70.7800
 0.5830	70.8000
 0.5840	70.8700
 0.5850	70.8900
 0.5860	70.9200
 0.5870	70.9200
 0.5880	70.9600
 0.5890	70.9500
 0.5900	70.9500
 0.5910	70.9900
 0.5920	71.0500
 0.5930	71.0700
 0.5940	71.0400
 0.5950	71.1100
 0.5960	71.0700
 0.5970	71.1400
 0.5980	71.1300
 0.5990	71.1900
 0.6000	71.2200
 0.6010	71.2200
 0.6020	71.2800
 0.6030	71.2900
 0.6040	71.3200
 0.6050	71.3500
 0.6060	71.2800
 0.6070	71.2600
 0.6080	71.2900
 0.6090	71.2900
 0.6100	71.2800
 0.6110	71.2800
 0.6120	71.2900
 0.6130	71.2800
 0.6140	71.3200
 0.6150	71.2600
 0.6160	71.3100
 0.6170	71.2800
 0.6180	71.2600
 0.6190	71.2200
 0.6200	71.2100
 0.6210	71.2100
 0.6220	71.2200
 0.6230	71.2600
 0.6240	71.2800
 0.6250	71.2900
 0.6260	71.3700
 0.6270	71.3500
 0.6280	71.2900
 0.6290	71.3200
 0.6300	71.2600
 0.6310	71.2900
 0.6320	71.2900
 0.6330	71.2800
 0.6340	71.3800
 0.6350	71.4100
 0.6360	71.4000
 0.6370	71.4700
 0.6380	71.4000
 0.6390	71.4000
 0.6400	71.3400
 0.6410	71.3100
 0.6420	71.3700
 0.6430	71.3500
 0.6440	71.3700
 0.6450	71.4400
 0.6460	71.3800
 0.6470	71.4500
 0.6480	71.5400
 0.6490	71.5300
 0.6500	71.5800
 0.6510	71.5600
 0.6520	71.5400
 0.6530	71.5600
 0.6540	71.6000
 0.6550	71.6200
 0.6560	71.5300
 0.6570	71.5300
 0.6580	71.5800
 0.6590	71.6000
 0.6600	71.6100
 0.6610	71.6400
 0.6620	71.7000
 0.6630	71.6100
 0.6640	71.6700
 0.6650	71.7000
 0.6660	71.7300
 0.6670	71.7800
 0.6680	71.7300
 0.6690	71.6600
 0.6700	71.7000
 0.6710	71.7600
 0.6720	71.7600
 0.6730	71.6900
 0.6740	71.7200
 0.6750	71.7300
 0.6760	71.6600
 0.6770	71.7700
 0.6780	71.7300
 0.6790	71.8100
 0.6800	71.8200
 0.6810	71.8300
 0.6820	71.7900
 0.6830	71.8000
 0.6840	71.8200
 0.6850	71.8300
 0.6860	71.8600
 0.6870	71.8300
 0.6880	71.8500
 0.6890	71.8300
 0.6900	71.8500
 0.6910	71.8900
 0.6920	71.9500
 0.6930	71.9500
 0.6940	71.9500
 0.6950	71.9300
 0.6960	71.9300
 0.6970	71.9300
 0.6980	71.9200
 0.6990	71.9000
 0.7000	71.9100
 0.7010	71.9300
 0.7020	72.0200
 0.7030	72.1000
 0.7040	72.0700
 0.7050	72.1300
 0.7060	72.1400
 0.7070	72.1300
 0.7080	72.1600
 0.7090	72.1700
 0.7100	72.1700
 0.7110	72.1900
 0.7120	72.2100
 0.7130	72.1700
 0.7140	72.1600
 0.7150	72.2300
 0.7160	72.2100
 0.7170	72.2300
 0.7180	72.2600
 0.7190	72.2300
 0.7200	72.3100
 0.7210	72.2600
 0.7220	72.2900
 0.7230	72.2600
 0.7240	72.2700
 0.7250	72.3900
 0.7260	72.4000
 0.7270	72.4000
 0.7280	72.4300
 0.7290	72.4500
 0.7300	72.4100
 0.7310	72.4100
 0.7320	72.4200
 0.7330	72.4300
 0.7340	72.4300
 0.7350	72.4500
 0.7360	72.4300
 0.7370	72.4900
 0.7380	72.4700
 0.7390	72.4600
 0.7400	72.4900
 0.7410	72.6100
 0.7420	72.5900
 0.7430	72.6800
 0.7440	72.6200
 0.7450	72.6300
 0.7460	72.5600
 0.7470	72.6000
 0.7480	72.5700
 0.7490	72.5900
 0.7500	72.6900
 0.7510	72.6600
 0.7520	72.7000
 0.7530	72.6300
 0.7540	72.6300
 0.7550	72.6900
 0.7560	72.7200
 0.7570	72.6900
 0.7580	72.8000
 0.7590	72.8000
 0.7600	72.7500
 0.7610	72.7600
 0.7620	72.7600
 0.7630	72.8100
 0.7640	72.8200
 0.7650	72.8500
 0.7660	72.8800
 0.7670	72.7900
 0.7680	72.8800
 0.7690	72.9000
 0.7700	72.9200
 0.7710	72.8800
 0.7720	72.8800
 0.7730	72.9200
 0.7740	72.9200
 0.7750	72.8600
 0.7760	72.9300
 0.7770	72.9500
 0.7780	72.9200
 0.7790	72.8700
 0.7800	72.9000
 0.7810	72.9600
 0.7820	72.9000
 0.7830	72.9100
 0.7840	72.9800
 0.7850	72.9600
 0.7860	72.8900
 0.7870	72.9400
 0.7880	72.9100
 0.7890	72.9600
 0.7900	72.9100
 0.7910	72.9300
 0.7920	72.9700
 0.7930	72.9600
 0.7940	72.9600
 0.7950	73.0700
 0.7960	73.0700
 0.7970	73.0500
 0.7980	73.0800
 0.7990	72.9800
 0.8000	71.9700
 0.8040	72.0200
 0.8080	72.0300
 0.8120	71.9300
 0.8160	71.9200
 0.8200	71.8800
 0.8240	71.9800
 0.8280	71.9200
 0.8320	71.8600
 0.8360	71.8600
 0.8400	71.8300
 0.8440	71.8300
 0.8480	71.7900
 0.8520	71.7900
 0.8560	71.7600
 0.8600	71.7800
 0.8640	71.7500
 0.8680	71.7600
 0.8720	71.7600
 0.8760	71.7500
 0.8800	71.7500
 0.8840	71.6500
 0.8880	71.6300
 0.8920	71.6700
 0.8960	71.6500
 0.9000	71.5900
 0.9040	71.5900
 0.9080	71.6300
 0.9120	71.6800
 0.9160	71.6100
 0.9200	71.6100
 0.9240	71.6300
 0.9280	71.6200
 0.9320	71.6600
 0.9360	71.6900
 0.9400	71.7200
 0.9440	71.6800
 0.9480	71.7500
 0.9520	71.7500
 0.9560	71.7200
 0.9600	71.8400
 0.9640	71.8500
 0.9680	71.8100
 0.9720	71.7400
 0.9760	71.6700
 0.9800	71.6600
 0.9840	71.7500
 0.9880	71.7500
 0.9920	71.7000
 0.9960	71.7000
 1.0000	71.7200
 1.0040	71.7000
 1.0080	71.6900
 1.0120	71.6900
 1.0160	71.6600
 1.0200	71.6100
 1.0240	71.5400
 1.0280	71.5700
 1.0320	71.5300
 1.0360	71.5400
 1.0400	71.5600
 1.0440	71.5400
 1.0480	71.4900
 1.0520	71.4300
 1.0560	71.3700
 1.0600	71.3400
 1.0640	71.3900
 1.0680	71.3000
 1.0720	71.3100
 1.0760	71.2800
 1.0800	71.2800
 1.0840	71.2600
 1.0880	71.2100
 1.0920	71.2400
 1.0960	71.2000
 1.1000	71.2000
 1.1040	71.1300
 1.1080	71.0700
 1.1120	71.0700
 1.1160	71.1300
 1.1200	71.0600
 1.1240	71.0300
 1.1280	71.0900
 1.1320	70.9500
 1.1360	70.9800
 1.1400	70.9200
 1.1440	70.8200
 1.1480	70.8500
 1.1520	70.8800
 1.1560	70.8600
 1.1600	70.7600
 1.1640	70.7100
 1.1680	70.7900
 1.1720	70.6400
 1.1760	70.6900
 1.1800	70.6900
 1.1840	70.6700
 1.1880	70.6700
 1.1920	70.5800
 1.1960	70.6300
 1.2000	70.6300
 1.2040	70.6200
 1.2080	70.6200
 1.2120	70.5100
 1.2160	70.5600
 1.2200	70.5600
 1.2240	70.5100
 1.2280	70.5100
 1.2320	70.5500
 1.2360	70.5800
 1.2400	70.5800
 1.2440	70.5800
 1.2480	70.5700
 1.2520	70.5900
 1.2560	70.5900
 1.2600	70.5700
 1.2640	70.5900
 1.2680	70.5400
 1.2720	70.5200
 1.2760	70.6100
 1.2800	70.5600
 1.2840	70.6000
 1.2880	70.6100
 1.2920	70.5500
 1.2960	70.5800
 1.3000	70.5100
 1.3040	70.5400
 1.3080	70.5400
 1.3120	70.6600
 1.3160	70.5900
 1.3200	70.6000
 1.3240	70.5500
 1.3280	70.5900
 1.3320	70.6200
 1.3360	70.5900
 1.3400	70.6100
 1.3440	70.6200
 1.3480	70.5800
 1.3520	70.6400
 1.3560	70.6900
 1.3600	70.7000
 1.3640	70.6600
 1.3680	70.6300
 1.3720	70.6900
 1.3760	70.7000
 1.3800	70.6400
 1.3840	70.5600
 1.3880	70.5600
 1.3920	70.5100
 1.3960	70.5300
 1.4000	70.5600
 1.4040	70.5100
 1.4080	70.4700
 1.4120	70.4900
 1.4160	70.5000
 1.4200	70.4600
 1.4240	70.4900
 1.4280	70.5400
 1.4320	70.5200
 1.4360	70.5100
 1.4400	70.5900
 1.4440	70.6000
 1.4480	70.7200
 1.4520	70.6400
 1.4560	70.7300
 1.4600	70.7600
 1.4640	70.8300
 1.4680	70.8600
 1.4720	70.8900
 1.4760	70.9700
 1.4800	70.9400
 1.4840	71.0200
 1.4880	71.0900
 1.4920	71.1900
 1.4960	71.2000
 1.5000	71.1600
 1.5040	71.2400
 1.5080	71.2700
 1.5120	71.3700
 1.5160	71.4300
 1.5200	71.4000
 1.5240	71.4000
 1.5280	71.4100
 1.5320	71.4700
 1.5360	71.5200
 1.5400	71.5100
 1.5440	71.5100
 1.5480	71.5500
 1.5520	71.5700
 1.5560	71.5600
 1.5600	71.6600
 1.5640	71.6700
 1.5680	71.7700
 1.5720	71.6300
 1.5760	71.6400
 1.5800	71.7600
 1.5840	71.7100
 1.5880	71.6900
 1.5920	71.6900
 1.5960	71.8000
 1.6000	71.8100
 1.6040	71.8400
 1.6080	71.7800
 1.6120	71.7900
 1.6160	71.8300
 1.6200	71.7700
 1.6240	71.8600
 1.6280	71.7300
 1.6320	71.8100
 1.6360	71.8100
 1.6400	71.7700
 1.6440	71.8300
 1.6480	71.8900
 1.6520	71.9200
 1.6560	71.8500
 1.6600	71.8600
 1.6640	71.9200
 1.6680	71.8800
 1.6720	71.8700
 1.6760	71.9400
 1.6800	72.0100
 1.6840	71.9300
 1.6880	71.9900
 1.6920	71.9700
 1.6960	72.0500
 1.7000	72.0400
 1.7040	71.9800
 1.7080	72.0400
 1.7120	71.9800
 1.7160	72.0500
 1.7200	71.9700
 1.7240	71.9800
 1.7280	71.9500
 1.7320	71.9200
 1.7360	71.9700
 1.7400	71.8800
 1.7440	71.8400
 1.7480	71.8400
 1.7520	71.8200
 1.7560	71.8800
 1.7600	71.8800
 1.7640	71.8800
 1.7680	71.8700
 1.7720	71.8600
 1.7760	71.8300
 1.7800	71.8600
 1.7840	71.8600
 1.7880	71.8600
 1.7920	71.9400
 1.7960	71.9200
 1.8000	71.8900
 1.8040	71.8600
 1.8080	71.9100
 1.8120	71.9100
 1.8160	71.9700
 1.8200	71.7700
 1.8240	71.8700
 1.8280	71.7800
 1.8320	71.8600
 1.8360	71.8300
 1.8400	71.8500
 1.8440	71.8100
 1.8480	71.7900
 1.8520	71.7200
 1.8560	71.7100
 1.8600	71.6500
 1.8640	71.5200
 1.8680	71.4300
 1.8720	71.3300
 1.8760	71.2200
 1.8800	71.0100
 1.8840	70.7400
 1.8880	70.4800
 1.8920	70.0800
 1.8960	69.7100
 1.9000	69.2600
 1.9040	68.8000
 1.9080	68.3900
 1.9120	67.9800
 1.9160	67.7000
 1.9200	67.3300
 1.9240	66.9800
 1.9280	66.7700
 1.9320	66.5800
 1.9360	66.4700
 1.9400	66.4700
 1.9440	66.3900
 1.9480	66.5300
 1.9520	66.6900
 1.9560	66.7900
 1.9600	66.9800
 1.9640	67.1100
 1.9680	67.2900
 1.9720	67.4700
 1.9760	67.5800
 1.9800	67.7700
 1.9840	67.9900
 1.9880	68.1600
 1.9920	68.4600
 1.9960	68.6300
 2.0000	68.8700
 2.0040	69.0500
 2.0080	69.1400
 2.0120	69.2900
 2.0160	69.4900
 2.0200	69.5900
 2.0240	69.7100
 2.0280	69.8100
 2.0320	69.9100
 2.0360	70.0100
 2.0400	70.1000
 2.0440	70.1400
 2.0480	70.1800
 2.0520	70.2300
 2.0560	70.3000
 2.0600	70.4300
 2.0640	70.4500
 2.0680	70.5100
 2.0720	70.5600
 2.0760	70.6400
 2.0800	70.7600
 2.0840	70.8200
 2.0880	70.8500
 2.0920	71.0200
 2.0960	70.9500
 2.1000	71.0300
 2.1040	71.2000
 2.1080	71.2300
 2.1120	71.3500
 2.1160	71.3400
 2.1200	71.4000
 2.1240	71.3800
 2.1280	71.4200
 2.1320	71.3300
 2.1360	71.3600
 2.1400	71.3800
 2.1440	71.4100
 2.1480	71.3500
 2.1520	71.2400
 2.1560	71.2900
 2.1600	71.2300
 2.1640	71.2000
 2.1680	71.2300
 2.1720	71.2100
 2.1760	71.2300
 2.1800	71.2400
 2.1840	71.1900
 2.1880	71.1200
 2.1920	71.0800
 2.1960	71.1000
 2.2000	71.1700
 2.2040	71.1000
 2.2080	71.0700
 2.2120	71.0300
 2.2160	71.0500
 2.2200	71.0900
 2.2240	71.1200
 2.2280	71.1200
 2.2320	71.0500
 2.2360	71.0300
 2.2400	71.0700
 2.2440	71.0500
 2.2480	71.0700
 2.2520	71.1300
 2.2560	71.1100
 2.2600	71.0500
 2.2640	71.0400
 2.2680	71.0500
 2.2720	71.1500
 2.2760	71.0300
 2.2800	71.0000
 2.2840	70.9200
 2.2880	70.8700
 2.2920	70.8500
 2.2960	70.8300
 2.3000	70.7200
 2.3040	70.7400
 2.3080	70.7000
 2.3120	70.7400
 2.3160	70.7100
 2.3200	70.7800
 2.3240	70.7100
 2.3280	70.7500
 2.3320	70.7200
 2.3360	70.6500
 2.3400	70.6700
 2.3440	70.6300
 2.3480	70.5900
 2.3520	70.5100
 2.3560	70.4100
 2.3600	70.2800
 2.3640	70.1700
 2.3680	70.0800
 2.3720	69.8300
 2.3760	69.7800
 2.3800	69.6100
 2.3840	69.4400
 2.3880	69.2600
 2.3920	68.9800
 2.3960	68.9000
 2.4000	68.7100
 2.4040	68.5400
 2.4080	68.3600
 2.4120	68.1900
 2.4160	68.0700
 2.4200	67.9400
 2.4240	67.7600
 2.4280	67.7000
 2.4320	67.5500
 2.4360	67.2900
 2.4400	67.2900
 2.4440	67.1700
 2.4480	67.1100
 2.4520	67.0500
 2.4560	67.0000
 2.4600	66.8100
 2.4640	66.7500
 2.4680	66.7000
 2.4720	66.6700
 2.4760	66.6300
 2.4800	66.6200
 2.4840	66.6100
 2.4880	66.7100
 2.4920	66.7100
 2.4960	66.7000
 2.5000	66.7200
