Name: Sepiolite Mg_4Si_6O_15(OH)_2.6H_2O
Type: Mineral
Class: Silicate
Subclass: Phyllosilicate
Particle Size: Coarse
Sample No.: PS-5A
Owner: JPL
Wavelength Range: VSWIR
Origin: USA, Nevada, Two Crows.
Collection Date: N/A
Description: Particle size was 125-500um.Collected by:  Clay Mineral Society Original ASTER Spectral Library name was jpl.perkin.mineral.silicate.phyllosilicate.coarse.ps05a.spectrum.txt
Measurement: Hemispherical reflectance
First Column: X
Second Column: Y
X Units: Wavelength (micrometers)
Y Units:Reflectance (percent)
First X Value:  2.5000
Last X Value:  0.4000
Number of X Values: 2101
Additional Information: mineral.silicate.phyllosilicate.coarse.vswir.ps-5a.jpl.perkin.ancillary.txt

 2.5000	15.8966
 2.4990	15.4155
 2.4980	15.9588
 2.4970	15.8543
 2.4960	15.7181
 2.4950	16.1311
 2.4940	16.1516
 2.4930	16.2032
 2.4920	16.4941
 2.4910	16.5015
 2.4900	16.6493
 2.4890	16.5368
 2.4880	16.7972
 2.4870	17.0031
 2.4860	17.0625
 2.4850	17.0279
 2.4840	17.3512
 2.4830	17.1560
 2.4820	17.4607
 2.4810	17.4918
 2.4800	17.7717
 2.4790	17.6319
 2.4780	17.9452
 2.4770	17.9207
 2.4760	18.0407
 2.4750	18.0548
 2.4740	18.3849
 2.4730	18.2978
 2.4720	18.5261
 2.4710	18.4856
 2.4700	18.8392
 2.4690	18.6859
 2.4680	18.9090
 2.4670	18.9237
 2.4660	19.1328
 2.4650	19.0617
 2.4640	19.3212
 2.4630	19.3129
 2.4620	19.4232
 2.4610	19.4675
 2.4600	19.5255
 2.4590	19.5776
 2.4580	19.8750
 2.4570	19.7088
 2.4560	19.8536
 2.4550	19.9205
 2.4540	20.0700
 2.4530	20.0455
 2.4520	20.2039
 2.4510	20.1048
 2.4500	20.2686
 2.4490	20.2827
 2.4480	20.4561
 2.4470	20.4875
 2.4460	20.5889
 2.4450	20.5213
 2.4440	20.7012
 2.4430	20.5436
 2.4420	20.8279
 2.4410	20.7283
 2.4400	20.8764
 2.4390	20.8437
 2.4380	20.9033
 2.4370	20.9394
 2.4360	21.0698
 2.4350	21.0322
 2.4340	21.1656
 2.4330	21.1572
 2.4320	21.3051
 2.4310	21.2822
 2.4300	21.3440
 2.4290	21.2912
 2.4280	21.3110
 2.4270	21.3437
 2.4260	21.5096
 2.4250	21.4730
 2.4240	21.6468
 2.4230	21.6307
 2.4220	21.8092
 2.4210	21.7396
 2.4200	21.8582
 2.4190	21.8794
 2.4180	21.9963
 2.4170	22.0523
 2.4160	22.1063
 2.4150	22.1659
 2.4140	22.2175
 2.4130	22.2654
 2.4120	22.3768
 2.4110	22.4191
 2.4100	22.4570
 2.4090	22.5148
 2.4080	22.6276
 2.4070	22.6197
 2.4060	22.7569
 2.4050	22.7953
 2.4040	22.9085
 2.4030	22.8917
 2.4020	22.9581
 2.4010	22.9570
 2.4000	22.9885
 2.3990	23.0226
 2.3980	23.1678
 2.3970	23.1247
 2.3960	23.1410
 2.3950	23.1784
 2.3940	23.1846
 2.3930	23.2145
 2.3920	23.2490
 2.3910	23.2302
 2.3900	23.3262
 2.3890	23.3642
 2.3880	23.4997
 2.3870	23.5994
 2.3860	23.7601
 2.3850	23.8611
 2.3840	24.0018
 2.3830	24.1119
 2.3820	24.3985
 2.3810	24.5688
 2.3800	24.7713
 2.3790	24.9821
 2.3780	25.3204
 2.3770	25.5632
 2.3760	25.8263
 2.3750	26.1447
 2.3740	26.3993
 2.3730	26.6653
 2.3720	26.9951
 2.3710	27.2538
 2.3700	27.5566
 2.3690	27.7748
 2.3680	27.9992
 2.3670	28.2520
 2.3660	28.5478
 2.3650	28.8021
 2.3640	29.0428
 2.3630	29.2503
 2.3620	29.4873
 2.3610	29.6824
 2.3600	29.8959
 2.3590	30.0842
 2.3580	30.2718
 2.3570	30.4959
 2.3560	30.7275
 2.3550	30.9487
 2.3540	31.1349
 2.3530	31.2910
 2.3520	31.5142
 2.3510	31.6905
 2.3500	31.9166
 2.3490	32.1568
 2.3480	32.3019
 2.3470	32.4915
 2.3460	32.6499
 2.3450	32.8647
 2.3440	33.0408
 2.3430	33.1702
 2.3420	33.3224
 2.3410	33.4658
 2.3400	33.5393
 2.3390	33.6554
 2.3380	33.7211
 2.3370	33.7928
 2.3360	33.8357
 2.3350	33.8218
 2.3340	33.7160
 2.3330	33.6882
 2.3320	33.6353
 2.3310	33.4967
 2.3300	33.2864
 2.3290	33.1123
 2.3280	32.9035
 2.3270	32.7043
 2.3260	32.4151
 2.3250	32.1526
 2.3240	31.8328
 2.3230	31.5823
 2.3220	31.2665
 2.3210	30.9627
 2.3200	30.6560
 2.3190	30.4004
 2.3180	30.1195
 2.3170	29.8817
 2.3160	29.6389
 2.3150	29.4906
 2.3140	29.3646
 2.3130	29.3917
 2.3120	29.3854
 2.3110	29.4703
 2.3100	29.5119
 2.3090	29.7205
 2.3080	29.9014
 2.3070	30.1148
 2.3060	30.3859
 2.3050	30.7357
 2.3040	30.9792
 2.3030	31.3407
 2.3020	31.6170
 2.3010	31.9849
 2.3000	32.2837
 2.2990	32.5945
 2.2980	32.9118
 2.2970	33.1890
 2.2960	33.3921
 2.2950	33.6961
 2.2940	33.9596
 2.2930	34.2248
 2.2920	34.4116
 2.2910	34.7128
 2.2900	34.9250
 2.2890	35.2431
 2.2880	35.5266
 2.2870	35.8310
 2.2860	36.1252
 2.2850	36.4937
 2.2840	36.8938
 2.2830	37.3061
 2.2820	37.5616
 2.2810	38.0339
 2.2800	38.4242
 2.2790	38.8323
 2.2780	39.1830
 2.2770	39.5750
 2.2760	39.8957
 2.2750	40.2701
 2.2740	40.5607
 2.2730	40.8430
 2.2720	41.0713
 2.2710	41.3587
 2.2700	41.6062
 2.2690	41.8792
 2.2680	42.0957
 2.2670	42.2073
 2.2660	42.3664
 2.2650	42.6278
 2.2640	42.7741
 2.2630	42.9229
 2.2620	43.0945
 2.2610	43.2938
 2.2600	43.3733
 2.2590	43.5330
 2.2580	43.6007
 2.2570	43.7156
 2.2560	43.8697
 2.2550	44.0881
 2.2540	44.1043
 2.2530	44.2651
 2.2520	44.3368
 2.2510	44.4223
 2.2500	44.4622
 2.2490	44.5867
 2.2480	44.6987
 2.2470	44.8567
 2.2460	44.8155
 2.2450	44.8900
 2.2440	44.9203
 2.2430	44.9884
 2.2420	45.0397
 2.2410	45.2153
 2.2400	45.0746
 2.2390	45.2198
 2.2380	45.1255
 2.2370	45.2841
 2.2360	45.2914
 2.2350	45.3307
 2.2340	45.3533
 2.2330	45.4023
 2.2320	45.3693
 2.2310	45.4040
 2.2300	45.4255
 2.2290	45.5292
 2.2280	45.4773
 2.2270	45.5270
 2.2260	45.5506
 2.2250	45.6592
 2.2240	45.5711
 2.2230	45.7908
 2.2220	45.6447
 2.2210	45.8482
 2.2200	45.8504
 2.2190	45.8937
 2.2180	45.9298
 2.2170	46.0688
 2.2160	46.0312
 2.2150	46.3136
 2.2140	46.2832
 2.2130	46.4478
 2.2120	46.4693
 2.2110	46.5099
 2.2100	46.6670
 2.2090	46.7480
 2.2080	46.8222
 2.2070	46.9562
 2.2060	47.0387
 2.2050	47.0724
 2.2040	47.2000
 2.2030	47.3251
 2.2020	47.3447
 2.2010	47.4139
 2.2000	47.3947
 2.1990	47.5046
 2.1980	47.5658
 2.1970	47.5986
 2.1960	47.5874
 2.1950	47.6708
 2.1940	47.6834
 2.1930	47.7471
 2.1920	47.7511
 2.1910	47.8177
 2.1900	47.7684
 2.1890	47.8366
 2.1880	47.8182
 2.1870	47.9650
 2.1860	47.9305
 2.1850	48.0485
 2.1840	48.0160
 2.1830	48.0738
 2.1820	48.1079
 2.1810	48.1924
 2.1800	48.2398
 2.1790	48.2902
 2.1780	48.2908
 2.1770	48.4128
 2.1760	48.3607
 2.1750	48.4788
 2.1740	48.4383
 2.1730	48.5102
 2.1720	48.5020
 2.1710	48.6358
 2.1700	48.6367
 2.1690	48.7066
 2.1680	48.7207
 2.1670	48.7456
 2.1660	48.7354
 2.1650	48.8653
 2.1640	48.8444
 2.1630	48.8997
 2.1620	48.9125
 2.1610	48.9119
 2.1600	48.9094
 2.1590	48.9094
 2.1580	48.8718
 2.1570	48.8630
 2.1560	48.9007
 2.1550	48.9706
 2.1540	48.9276
 2.1530	48.9904
 2.1520	48.9187
 2.1510	48.9633
 2.1500	48.9299
 2.1490	48.9695
 2.1480	48.9526
 2.1470	48.9508
 2.1460	48.9359
 2.1450	49.0305
 2.1440	48.9278
 2.1430	49.0271
 2.1420	48.9849
 2.1410	49.0602
 2.1400	49.0364
 2.1390	49.0561
 2.1380	49.0605
 2.1370	49.1003
 2.1360	49.0249
 2.1350	49.0723
 2.1340	48.9961
 2.1330	48.9996
 2.1320	48.9135
 2.1310	48.9467
 2.1300	48.8814
 2.1290	48.8195
 2.1280	48.7286
 2.1270	48.7209
 2.1260	48.6529
 2.1250	48.5889
 2.1240	48.4866
 2.1230	48.4634
 2.1220	48.3918
 2.1210	48.3086
 2.1200	48.1683
 2.1190	48.1681
 2.1180	48.0712
 2.1170	47.9702
 2.1160	47.8697
 2.1150	47.8805
 2.1140	47.8030
 2.1130	47.7522
 2.1120	47.6033
 2.1110	47.5110
 2.1100	47.4447
 2.1090	47.4143
 2.1080	47.3477
 2.1070	47.2625
 2.1060	47.1366
 2.1050	47.0985
 2.1040	46.9497
 2.1030	46.8215
 2.1020	46.7142
 2.1010	46.6619
 2.1000	46.5252
 2.0990	46.4484
 2.0980	46.4018
 2.0970	46.3040
 2.0960	46.2090
 2.0950	46.1494
 2.0940	46.1169
 2.0930	46.0539
 2.0920	45.9765
 2.0910	45.9438
 2.0900	45.8754
 2.0890	45.8210
 2.0880	45.7525
 2.0870	45.7247
 2.0860	45.6648
 2.0850	45.5699
 2.0840	45.4852
 2.0830	45.4075
 2.0820	45.3579
 2.0810	45.3198
 2.0800	45.2699
 2.0790	45.2552
 2.0780	45.1825
 2.0770	45.1044
 2.0760	45.0713
 2.0750	45.0524
 2.0740	44.9884
 2.0730	44.9281
 2.0720	44.8936
 2.0710	44.8344
 2.0700	44.7284
 2.0690	44.6561
 2.0680	44.6410
 2.0670	44.5786
 2.0660	44.4663
 2.0650	44.4481
 2.0640	44.4462
 2.0630	44.3385
 2.0620	44.2931
 2.0610	44.2545
 2.0600	44.2446
 2.0590	44.1780
 2.0580	44.1500
 2.0570	44.0775
 2.0560	44.0024
 2.0550	43.9681
 2.0540	43.9638
 2.0530	43.8831
 2.0520	43.8313
 2.0510	43.7699
 2.0500	43.6974
 2.0490	43.6039
 2.0480	43.5208
 2.0470	43.4038
 2.0460	43.3687
 2.0450	43.2469
 2.0440	43.1497
 2.0430	43.0742
 2.0420	42.9867
 2.0410	42.8552
 2.0400	42.8402
 2.0390	42.6729
 2.0380	42.5626
 2.0370	42.4230
 2.0360	42.2309
 2.0350	42.1059
 2.0340	41.9546
 2.0330	41.7631
 2.0320	41.6579
 2.0310	41.4426
 2.0300	41.2685
 2.0290	41.0478
 2.0280	40.9272
 2.0270	40.7545
 2.0260	40.5803
 2.0250	40.3547
 2.0240	40.1742
 2.0230	39.9398
 2.0220	39.7762
 2.0210	39.5393
 2.0200	39.3770
 2.0190	39.0854
 2.0180	38.8915
 2.0170	38.6605
 2.0160	38.4302
 2.0150	38.1885
 2.0140	38.0338
 2.0130	37.7602
 2.0120	37.5504
 2.0110	37.3031
 2.0100	37.0636
 2.0090	36.8147
 2.0080	36.6274
 2.0070	36.3667
 2.0060	36.2016
 2.0050	35.9060
 2.0040	35.6909
 2.0030	35.4220
 2.0020	35.1848
 2.0010	34.9554
 2.0000	34.7614
 1.9990	34.4054
 1.9980	34.2215
 1.9970	33.9334
 1.9960	33.8229
 1.9950	33.5134
 1.9940	33.3228
 1.9930	33.0961
 1.9920	32.8900
 1.9910	32.6584
 1.9900	32.4935
 1.9890	32.3239
 1.9880	32.2059
 1.9870	31.9685
 1.9860	31.8740
 1.9850	31.6945
 1.9840	31.5406
 1.9830	31.3791
 1.9820	31.3641
 1.9810	31.1751
 1.9800	31.1162
 1.9790	30.9333
 1.9780	30.9293
 1.9770	30.7282
 1.9760	30.7141
 1.9750	30.6031
 1.9740	30.6078
 1.9730	30.4829
 1.9720	30.4672
 1.9710	30.2762
 1.9700	30.2768
 1.9690	30.2388
 1.9680	30.2716
 1.9670	30.1280
 1.9660	30.2275
 1.9650	30.1889
 1.9640	30.1958
 1.9630	30.0590
 1.9620	30.1016
 1.9610	30.0157
 1.9600	29.9703
 1.9590	29.8946
 1.9580	29.9355
 1.9570	29.8054
 1.9560	29.7583
 1.9550	29.6461
 1.9540	29.6662
 1.9530	29.5287
 1.9520	29.5209
 1.9510	29.3547
 1.9500	29.3284
 1.9490	29.1457
 1.9480	29.1365
 1.9470	28.9581
 1.9460	28.9256
 1.9450	28.7564
 1.9440	28.7093
 1.9430	28.3480
 1.9420	28.2547
 1.9410	27.8969
 1.9400	27.7520
 1.9390	27.3143
 1.9380	27.1076
 1.9370	26.6466
 1.9360	26.3763
 1.9350	25.8513
 1.9340	25.4960
 1.9330	24.8402
 1.9320	24.3882
 1.9310	23.4968
 1.9300	23.0915
 1.9290	22.3935
 1.9280	21.7625
 1.9270	21.0643
 1.9260	20.2184
 1.9250	19.7185
 1.9240	19.0800
 1.9230	18.4578
 1.9220	17.9921
 1.9210	17.4348
 1.9200	17.1287
 1.9190	16.6582
 1.9180	16.5421
 1.9170	16.2536
 1.9160	16.2434
 1.9150	15.9718
 1.9140	16.0770
 1.9130	15.9419
 1.9120	16.1663
 1.9110	16.1098
 1.9100	16.2249
 1.9090	16.3314
 1.9080	16.6046
 1.9070	16.7120
 1.9060	17.0699
 1.9050	17.3399
 1.9040	17.7985
 1.9030	18.2685
 1.9020	18.9428
 1.9010	19.6630
 1.9000	20.5395
 1.8990	21.2965
 1.8980	22.3134
 1.8970	23.2413
 1.8960	24.4162
 1.8950	25.4749
 1.8940	26.6481
 1.8930	27.7974
 1.8920	29.0500
 1.8910	30.1930
 1.8900	31.4950
 1.8890	32.7009
 1.8880	33.8764
 1.8870	35.0283
 1.8860	36.1613
 1.8850	37.1386
 1.8840	38.2480
 1.8830	39.2306
 1.8820	40.4273
 1.8810	41.3724
 1.8800	42.4823
 1.8790	43.4195
 1.8780	44.4773
 1.8770	45.4940
 1.8760	46.5868
 1.8750	47.5779
 1.8740	48.6703
 1.8730	49.6169
 1.8720	50.6294
 1.8710	51.5612
 1.8700	52.4153
 1.8690	53.1612
 1.8680	54.0008
 1.8670	54.6212
 1.8660	55.1992
 1.8650	55.7166
 1.8640	56.1385
 1.8630	56.5850
 1.8620	57.0720
 1.8610	57.3978
 1.8600	57.7801
 1.8590	58.0921
 1.8580	58.4528
 1.8570	58.7183
 1.8560	59.1065
 1.8550	59.3668
 1.8540	59.6445
 1.8530	59.7994
 1.8520	60.0742
 1.8510	60.2081
 1.8500	60.4162
 1.8490	60.5825
 1.8480	60.7747
 1.8470	60.8398
 1.8460	61.0243
 1.8450	61.1725
 1.8440	61.4007
 1.8430	61.5547
 1.8420	61.6961
 1.8410	61.7090
 1.8400	61.8400
 1.8390	61.9216
 1.8380	62.0220
 1.8370	62.0932
 1.8360	62.1799
 1.8350	62.2476
 1.8340	62.4005
 1.8330	62.4459
 1.8320	62.4725
 1.8310	62.5634
 1.8300	62.6059
 1.8290	62.6246
 1.8280	62.6959
 1.8270	62.7790
 1.8260	62.8561
 1.8250	62.8578
 1.8240	62.9017
 1.8230	62.8880
 1.8220	62.9227
 1.8210	62.8938
 1.8200	62.9052
 1.8190	62.9762
 1.8180	63.0546
 1.8170	63.0304
 1.8160	63.0005
 1.8150	63.0233
 1.8140	63.0428
 1.8130	63.0279
 1.8120	63.0092
 1.8110	62.9293
 1.8100	62.9718
 1.8090	62.9529
 1.8080	62.9439
 1.8070	62.9132
 1.8060	62.9507
 1.8050	62.9234
 1.8040	62.8789
 1.8030	62.8532
 1.8020	62.8389
 1.8010	62.8431
 1.8000	62.8286
 1.7990	62.8377
 1.7980	62.8982
 1.7970	62.8666
 1.7960	62.8480
 1.7950	62.8243
 1.7940	62.7893
 1.7930	62.7650
 1.7920	62.7521
 1.7910	62.7455
 1.7900	62.8011
 1.7890	62.8376
 1.7880	62.8720
 1.7870	62.9497
 1.7860	62.9893
 1.7850	63.0174
 1.7840	63.0423
 1.7830	63.0823
 1.7820	63.1876
 1.7810	63.2582
 1.7800	63.3308
 1.7790	63.4192
 1.7780	63.4905
 1.7770	63.5467
 1.7760	63.6004
 1.7750	63.6762
 1.7740	63.7672
 1.7730	63.9168
 1.7720	63.9377
 1.7710	64.0137
 1.7700	64.1210
 1.7690	64.1675
 1.7680	64.2176
 1.7670	64.3528
 1.7660	64.4379
 1.7650	64.4419
 1.7640	64.5012
 1.7630	64.5986
 1.7620	64.6236
 1.7610	64.7287
 1.7600	64.8797
 1.7590	64.9635
 1.7580	64.9865
 1.7570	65.0679
 1.7560	65.1232
 1.7550	65.1944
 1.7540	65.3026
 1.7530	65.4289
 1.7520	65.4785
 1.7510	65.5051
 1.7500	65.5158
 1.7490	65.6133
 1.7480	65.6957
 1.7470	65.7534
 1.7460	65.8238
 1.7450	65.9015
 1.7440	65.9574
 1.7430	65.9833
 1.7420	66.0518
 1.7410	66.1348
 1.7400	66.1969
 1.7390	66.3091
 1.7380	66.3765
 1.7370	66.4550
 1.7360	66.4487
 1.7350	66.5368
 1.7340	66.6273
 1.7330	66.6789
 1.7320	66.7096
 1.7310	66.7818
 1.7300	66.8286
 1.7290	66.9326
 1.7280	66.9246
 1.7270	67.0028
 1.7260	67.0755
 1.7250	67.2010
 1.7240	67.2613
 1.7230	67.3262
 1.7220	67.3681
 1.7210	67.4889
 1.7200	67.5293
 1.7190	67.6289
 1.7180	67.6609
 1.7170	67.7366
 1.7160	67.8377
 1.7150	67.9092
 1.7140	67.9549
 1.7130	68.1339
 1.7120	68.1547
 1.7110	68.1839
 1.7100	68.3255
 1.7090	68.3024
 1.7080	68.4198
 1.7070	68.4867
 1.7060	68.5424
 1.7050	68.5308
 1.7040	68.5806
 1.7030	68.6252
 1.7020	68.6993
 1.7010	68.8245
 1.7000	68.7877
 1.6990	68.8293
 1.6980	68.8502
 1.6970	68.9026
 1.6960	68.9486
 1.6950	68.9677
 1.6940	69.0131
 1.6930	69.0807
 1.6920	69.1196
 1.6910	69.0162
 1.6900	69.0792
 1.6890	69.1174
 1.6880	69.1284
 1.6870	69.1038
 1.6860	69.1392
 1.6850	69.1937
 1.6840	69.1777
 1.6830	69.2204
 1.6820	69.2322
 1.6810	69.1949
 1.6800	69.1719
 1.6790	69.2484
 1.6780	69.2314
 1.6770	69.2435
 1.6760	69.2414
 1.6750	69.2106
 1.6740	69.1934
 1.6730	69.2814
 1.6720	69.1890
 1.6710	69.1593
 1.6700	69.2410
 1.6690	69.2261
 1.6680	69.1873
 1.6670	69.2559
 1.6660	69.1890
 1.6650	69.2036
 1.6640	69.2392
 1.6630	69.2251
 1.6620	69.1613
 1.6610	69.2240
 1.6600	69.1951
 1.6590	69.1450
 1.6580	69.1587
 1.6570	69.1543
 1.6560	69.1132
 1.6550	69.1649
 1.6540	69.1937
 1.6530	69.1565
 1.6520	69.0750
 1.6510	69.1943
 1.6500	69.0499
 1.6490	69.0891
 1.6480	69.0309
 1.6470	69.0605
 1.6460	68.9886
 1.6450	68.9964
 1.6440	69.0202
 1.6430	68.9861
 1.6420	68.9815
 1.6410	68.9355
 1.6400	68.9473
 1.6390	68.9306
 1.6380	68.8521
 1.6370	68.8754
 1.6360	68.8736
 1.6350	68.8484
 1.6340	68.7970
 1.6330	68.7665
 1.6320	68.7890
 1.6310	68.7009
 1.6300	68.7121
 1.6290	68.7508
 1.6280	68.6665
 1.6270	68.7127
 1.6260	68.6055
 1.6250	68.6392
 1.6240	68.5257
 1.6230	68.5557
 1.6220	68.5305
 1.6210	68.5238
 1.6200	68.4007
 1.6190	68.5170
 1.6180	68.3585
 1.6170	68.4377
 1.6160	68.3408
 1.6150	68.3210
 1.6140	68.3274
 1.6130	68.2540
 1.6120	68.2152
 1.6110	68.2263
 1.6100	68.1077
 1.6090	68.1505
 1.6080	68.1401
 1.6070	68.1402
 1.6060	68.0683
 1.6050	68.0427
 1.6040	67.9534
 1.6030	67.9428
 1.6020	67.8925
 1.6010	67.8973
 1.6000	67.8636
 1.5990	67.8093
 1.5980	67.7236
 1.5970	67.7294
 1.5960	67.7606
 1.5950	67.7348
 1.5940	67.5865
 1.5930	67.5158
 1.5920	67.5061
 1.5910	67.5030
 1.5900	67.4173
 1.5890	67.3835
 1.5880	67.3333
 1.5870	67.2555
 1.5860	67.1966
 1.5850	67.1871
 1.5840	67.1741
 1.5830	67.0662
 1.5820	66.9448
 1.5810	67.0024
 1.5800	66.9112
 1.5790	66.8444
 1.5780	66.7426
 1.5770	66.7428
 1.5760	66.6581
 1.5750	66.6403
 1.5740	66.5576
 1.5730	66.4675
 1.5720	66.4042
 1.5710	66.4374
 1.5700	66.2217
 1.5690	66.2392
 1.5680	66.1397
 1.5670	66.0705
 1.5660	65.9751
 1.5650	65.8574
 1.5640	65.7599
 1.5630	65.7476
 1.5620	65.6391
 1.5610	65.5956
 1.5600	65.4687
 1.5590	65.4233
 1.5580	65.3152
 1.5570	65.2489
 1.5560	65.0943
 1.5550	65.0074
 1.5540	64.9469
 1.5530	64.8245
 1.5520	64.7492
 1.5510	64.6771
 1.5500	64.5597
 1.5490	64.4109
 1.5480	64.2688
 1.5470	64.2279
 1.5460	64.0911
 1.5450	64.0039
 1.5440	63.8173
 1.5430	63.7411
 1.5420	63.6251
 1.5410	63.5198
 1.5400	63.3980
 1.5390	63.3489
 1.5380	63.2695
 1.5370	63.1555
 1.5360	63.0265
 1.5350	62.9488
 1.5340	62.8883
 1.5330	62.8011
 1.5320	62.6932
 1.5310	62.6491
 1.5300	62.5492
 1.5290	62.4675
 1.5280	62.3679
 1.5270	62.2718
 1.5260	62.1757
 1.5250	62.1095
 1.5240	61.9872
 1.5230	61.8473
 1.5220	61.7450
 1.5210	61.6383
 1.5200	61.5161
 1.5190	61.3798
 1.5180	61.2584
 1.5170	61.1967
 1.5160	61.0835
 1.5150	60.9244
 1.5140	60.8004
 1.5130	60.6856
 1.5120	60.5433
 1.5110	60.4259
 1.5100	60.2803
 1.5090	60.1167
 1.5080	59.9623
 1.5070	59.8156
 1.5060	59.6022
 1.5050	59.4272
 1.5040	59.3147
 1.5030	59.1974
 1.5020	58.9882
 1.5010	58.7345
 1.5000	58.5454
 1.4990	58.3912
 1.4980	58.1724
 1.4970	57.9079
 1.4960	57.7364
 1.4950	57.5295
 1.4940	57.2882
 1.4930	57.1004
 1.4920	56.8939
 1.4910	56.6261
 1.4900	56.4301
 1.4890	56.2327
 1.4880	56.0288
 1.4870	55.8134
 1.4860	55.5926
 1.4850	55.3283
 1.4840	55.0757
 1.4830	54.8329
 1.4820	54.5636
 1.4810	54.2117
 1.4800	53.9304
 1.4790	53.6589
 1.4780	53.3609
 1.4770	53.0196
 1.4760	52.7611
 1.4750	52.5117
 1.4740	52.2421
 1.4730	52.0032
 1.4720	51.8513
 1.4710	51.6787
 1.4700	51.5643
 1.4690	51.4626
 1.4680	51.3929
 1.4670	51.2375
 1.4660	51.1968
 1.4650	51.1465
 1.4640	51.0992
 1.4630	51.1034
 1.4620	51.1202
 1.4610	51.0532
 1.4600	51.0025
 1.4590	50.9353
 1.4580	50.8703
 1.4570	50.7388
 1.4560	50.7190
 1.4550	50.5349
 1.4540	50.3740
 1.4530	50.1964
 1.4520	49.9602
 1.4510	49.6182
 1.4500	49.4353
 1.4490	49.1906
 1.4480	48.9298
 1.4470	48.7474
 1.4460	48.6046
 1.4450	48.4397
 1.4440	48.3364
 1.4430	48.3308
 1.4420	48.3879
 1.4410	48.3510
 1.4400	48.4453
 1.4390	48.4574
 1.4380	48.5348
 1.4370	48.5901
 1.4360	48.6160
 1.4350	48.6410
 1.4340	48.6468
 1.4330	48.6478
 1.4320	48.6241
 1.4310	48.5197
 1.4300	48.4451
 1.4290	48.3354
 1.4280	48.3086
 1.4270	48.1192
 1.4260	48.0062
 1.4250	47.7837
 1.4240	47.5876
 1.4230	47.3709
 1.4220	47.2747
 1.4210	47.0171
 1.4200	46.8638
 1.4190	46.6392
 1.4180	46.5947
 1.4170	46.4760
 1.4160	46.4902
 1.4150	46.5494
 1.4140	46.6766
 1.4130	46.8440
 1.4120	47.2199
 1.4110	47.5060
 1.4100	47.9937
 1.4090	48.4194
 1.4080	48.9727
 1.4070	49.5968
 1.4060	50.2784
 1.4050	51.0279
 1.4040	51.9390
 1.4030	52.6639
 1.4020	53.6282
 1.4010	54.4387
 1.4000	55.2573
 1.3990	56.0918
 1.3980	56.9836
 1.3970	57.6415
 1.3960	58.2122
 1.3950	58.5132
 1.3940	58.7536
 1.3930	58.6779
 1.3920	58.4052
 1.3910	57.3511
 1.3900	55.2905
 1.3890	52.4191
 1.3880	50.0885
 1.3870	49.3749
 1.3860	51.1914
 1.3850	54.7368
 1.3840	58.8867
 1.3830	62.2737
 1.3820	64.5989
 1.3810	65.9778
 1.3800	66.8593
 1.3790	67.5832
 1.3780	68.1922
 1.3770	68.6741
 1.3760	69.2432
 1.3750	69.8168
 1.3740	70.4527
 1.3730	70.9602
 1.3720	71.3468
 1.3710	71.7732
 1.3700	72.1240
 1.3690	72.4553
 1.3680	72.6523
 1.3670	72.8755
 1.3660	73.0300
 1.3650	73.1773
 1.3640	73.3675
 1.3630	73.5777
 1.3620	73.6590
 1.3610	73.7574
 1.3600	73.9310
 1.3590	73.9905
 1.3580	74.0887
 1.3570	74.1298
 1.3560	74.2820
 1.3550	74.3477
 1.3540	74.5140
 1.3530	74.5262
 1.3520	74.7303
 1.3510	74.7977
 1.3500	74.8579
 1.3490	75.0188
 1.3480	75.1525
 1.3470	75.2944
 1.3460	75.4352
 1.3450	75.5177
 1.3440	75.7058
 1.3430	75.8321
 1.3420	75.9933
 1.3410	76.0884
 1.3400	76.3152
 1.3390	76.5373
 1.3380	76.6849
 1.3370	76.7588
 1.3360	76.9376
 1.3350	77.1606
 1.3340	77.2116
 1.3330	77.3539
 1.3320	77.5251
 1.3310	77.7299
 1.3300	77.9081
 1.3290	77.9904
 1.3280	78.1738
 1.3270	78.2455
 1.3260	78.3742
 1.3250	78.4630
 1.3240	78.6804
 1.3230	78.7421
 1.3220	78.8691
 1.3210	78.9580
 1.3200	79.0366
 1.3190	79.2157
 1.3180	79.3175
 1.3170	79.3692
 1.3160	79.4776
 1.3150	79.6634
 1.3140	79.7680
 1.3130	79.8360
 1.3120	79.9331
 1.3110	80.0740
 1.3100	80.0949
 1.3090	80.1341
 1.3080	80.3062
 1.3070	80.3502
 1.3060	80.3998
 1.3050	80.5255
 1.3040	80.5712
 1.3030	80.5607
 1.3020	80.6070
 1.3010	80.6412
 1.3000	80.6678
 1.2990	80.6725
 1.2980	80.6369
 1.2970	80.6559
 1.2960	80.6919
 1.2950	80.7582
 1.2940	80.8204
 1.2930	80.9447
 1.2920	80.9506
 1.2910	81.0419
 1.2900	81.1136
 1.2890	81.1052
 1.2880	81.1773
 1.2870	81.1421
 1.2860	81.1946
 1.2850	81.2551
 1.2840	81.2381
 1.2830	81.2814
 1.2820	81.2914
 1.2810	81.3113
 1.2800	81.2965
 1.2790	81.1725
 1.2780	81.1694
 1.2770	81.1974
 1.2760	81.2171
 1.2750	81.1685
 1.2740	81.2121
 1.2730	81.2518
 1.2720	81.3260
 1.2710	81.3016
 1.2700	81.3962
 1.2690	81.4440
 1.2680	81.4476
 1.2670	81.4497
 1.2660	81.4615
 1.2650	81.4145
 1.2640	81.4894
 1.2630	81.5595
 1.2620	81.5676
 1.2610	81.5791
 1.2600	81.6613
 1.2590	81.6078
 1.2580	81.6677
 1.2570	81.6579
 1.2560	81.6718
 1.2550	81.6933
 1.2540	81.6398
 1.2530	81.6128
 1.2520	81.6173
 1.2510	81.6386
 1.2500	81.6545
 1.2490	81.6422
 1.2480	81.6571
 1.2470	81.6010
 1.2460	81.5989
 1.2450	81.6173
 1.2440	81.5929
 1.2430	81.5636
 1.2420	81.5870
 1.2410	81.6032
 1.2400	81.6066
 1.2390	81.6110
 1.2380	81.6000
 1.2370	81.5612
 1.2360	81.5611
 1.2350	81.5362
 1.2340	81.4973
 1.2330	81.5165
 1.2320	81.5267
 1.2310	81.4689
 1.2300	81.4525
 1.2290	81.5204
 1.2280	81.5556
 1.2270	81.5618
 1.2260	81.5637
 1.2250	81.5141
 1.2240	81.5291
 1.2230	81.5847
 1.2220	81.5824
 1.2210	81.5414
 1.2200	81.5499
 1.2190	81.5761
 1.2180	81.5561
 1.2170	81.5575
 1.2160	81.5529
 1.2150	81.5349
 1.2140	81.5200
 1.2130	81.4589
 1.2120	81.4342
 1.2110	81.3956
 1.2100	81.3876
 1.2090	81.3806
 1.2080	81.3485
 1.2070	81.2972
 1.2060	81.3025
 1.2050	81.3407
 1.2040	81.2696
 1.2030	81.2972
 1.2020	81.2879
 1.2010	81.2030
 1.2000	81.1676
 1.1990	81.1775
 1.1980	81.1439
 1.1970	81.0919
 1.1960	81.0935
 1.1950	81.1167
 1.1940	81.1360
 1.1930	81.1490
 1.1920	81.1138
 1.1910	81.2136
 1.1900	81.2184
 1.1890	81.1654
 1.1880	81.1663
 1.1870	81.2104
 1.1860	81.1758
 1.1850	81.1572
 1.1840	81.1768
 1.1830	81.2089
 1.1820	81.2037
 1.1810	81.1176
 1.1800	81.0804
 1.1790	81.0579
 1.1780	81.0055
 1.1770	80.9103
 1.1760	80.7926
 1.1750	80.7366
 1.1740	80.5925
 1.1730	80.5019
 1.1720	80.3365
 1.1710	80.2730
 1.1700	80.1655
 1.1690	80.0184
 1.1680	79.9354
 1.1670	79.9308
 1.1660	79.9247
 1.1650	80.0175
 1.1640	79.9743
 1.1630	79.9686
 1.1620	80.0407
 1.1610	80.0412
 1.1600	80.0155
 1.1590	79.9773
 1.1580	79.9824
 1.1570	79.9688
 1.1560	79.9495
 1.1550	79.9844
 1.1540	80.0769
 1.1530	80.0956
 1.1520	80.2777
 1.1510	80.4057
 1.1500	80.5843
 1.1490	80.7879
 1.1480	80.9742
 1.1470	81.2319
 1.1460	81.4121
 1.1450	81.7107
 1.1440	81.8344
 1.1430	82.0384
 1.1420	82.2167
 1.1410	82.4370
 1.1400	82.5439
 1.1390	82.6725
 1.1380	82.7959
 1.1370	82.9551
 1.1360	83.0242
 1.1350	83.0932
 1.1340	83.1348
 1.1330	83.2371
 1.1320	83.2784
 1.1310	83.3311
 1.1300	83.3962
 1.1290	83.4812
 1.1280	83.5185
 1.1270	83.6044
 1.1260	83.6177
 1.1250	83.6541
 1.1240	83.6346
 1.1230	83.7538
 1.1220	83.7593
 1.1210	83.8396
 1.1200	83.7764
 1.1190	83.8108
 1.1180	83.8463
 1.1170	83.7994
 1.1160	83.8626
 1.1150	83.9370
 1.1140	83.9661
 1.1130	83.9254
 1.1120	83.9109
 1.1110	83.9757
 1.1100	83.9328
 1.1090	83.9950
 1.1080	83.9775
 1.1070	84.0107
 1.1060	83.9180
 1.1050	84.0455
 1.1040	84.0082
 1.1030	84.0495
 1.1020	83.9579
 1.1010	84.0692
 1.1000	84.0398
 1.0990	84.0679
 1.0980	84.0731
 1.0970	84.1470
 1.0960	84.0941
 1.0950	84.1774
 1.0940	84.0344
 1.0930	84.1100
 1.0920	84.0484
 1.0910	84.1356
 1.0900	84.2099
 1.0890	84.2815
 1.0880	84.1606
 1.0870	84.2564
 1.0860	84.2231
 1.0850	84.1697
 1.0840	84.1873
 1.0830	84.2304
 1.0820	84.2070
 1.0810	84.2910
 1.0800	84.2062
 1.0790	84.2206
 1.0780	84.1974
 1.0770	84.2105
 1.0760	84.2025
 1.0750	84.2753
 1.0740	84.2044
 1.0730	84.2175
 1.0720	84.2896
 1.0710	84.3107
 1.0700	84.2451
 1.0690	84.2682
 1.0680	84.1894
 1.0670	84.2557
 1.0660	84.2815
 1.0650	84.3682
 1.0640	84.2109
 1.0630	84.2226
 1.0620	84.2024
 1.0610	84.2192
 1.0600	84.2002
 1.0590	84.2371
 1.0580	84.2817
 1.0570	84.3165
 1.0560	84.1617
 1.0550	84.2749
 1.0540	84.2663
 1.0530	84.1871
 1.0520	84.2758
 1.0510	84.2543
 1.0500	84.2288
 1.0490	84.1899
 1.0480	84.2254
 1.0470	84.1709
 1.0460	84.2297
 1.0450	84.2130
 1.0440	84.1386
 1.0430	84.2117
 1.0420	84.2112
 1.0410	84.1617
 1.0400	84.1338
 1.0390	84.2309
 1.0380	84.0876
 1.0370	84.1189
 1.0360	84.1246
 1.0350	84.0965
 1.0340	84.1018
 1.0330	84.0674
 1.0320	84.1476
 1.0310	84.0986
 1.0300	84.0742
 1.0290	84.0918
 1.0280	84.0075
 1.0270	84.0580
 1.0260	84.0466
 1.0250	84.0812
 1.0240	84.0141
 1.0230	84.0263
 1.0220	84.0061
 1.0210	83.9327
 1.0200	83.9737
 1.0190	83.9569
 1.0180	83.8926
 1.0170	83.8732
 1.0160	83.8469
 1.0150	83.9205
 1.0140	83.8071
 1.0130	83.8319
 1.0120	83.8684
 1.0110	83.8707
 1.0100	83.7341
 1.0090	83.6553
 1.0080	83.6536
 1.0070	83.6891
 1.0060	83.7009
 1.0050	83.6616
 1.0040	83.6092
 1.0030	83.6213
 1.0020	83.5299
 1.0010	83.5555
 1.0000	83.5233
 0.9990	83.5203
 0.9980	83.4100
 0.9970	83.3888
 0.9960	83.3029
 0.9950	83.3032
 0.9940	83.2924
 0.9930	83.2602
 0.9920	83.1780
 0.9910	83.1453
 0.9900	83.0901
 0.9890	83.0991
 0.9880	83.0621
 0.9870	83.1026
 0.9860	82.9838
 0.9850	82.9797
 0.9840	82.8891
 0.9830	82.9897
 0.9820	82.9791
 0.9810	82.8853
 0.9800	82.8696
 0.9790	82.8696
 0.9780	82.8301
 0.9770	82.8843
 0.9760	82.8969
 0.9750	82.8920
 0.9740	82.7773
 0.9730	82.7553
 0.9720	82.7727
 0.9710	82.7738
 0.9700	82.6940
 0.9690	82.7574
 0.9680	82.7239
 0.9670	82.6806
 0.9660	82.6919
 0.9650	82.7035
 0.9640	82.6781
 0.9630	82.7197
 0.9620	82.8217
 0.9610	82.8594
 0.9600	82.8710
 0.9590	82.9533
 0.9580	83.0534
 0.9570	83.1448
 0.9560	83.1989
 0.9550	83.2037
 0.9540	83.2988
 0.9530	83.4044
 0.9520	83.4021
 0.9510	83.3071
 0.9500	83.2241
 0.9490	83.0770
 0.9480	82.9223
 0.9470	82.8157
 0.9460	82.8037
 0.9450	82.9506
 0.9440	83.1286
 0.9430	83.3422
 0.9420	83.5469
 0.9410	83.7448
 0.9400	83.9066
 0.9390	83.9600
 0.9380	84.0109
 0.9370	84.0918
 0.9360	84.1057
 0.9350	84.1008
 0.9340	84.1767
 0.9330	84.2147
 0.9320	84.1403
 0.9310	84.1461
 0.9300	84.1900
 0.9290	84.2588
 0.9280	84.2737
 0.9270	84.2766
 0.9260	84.3206
 0.9250	84.3476
 0.9240	84.4051
 0.9230	84.4266
 0.9220	84.3649
 0.9210	84.3365
 0.9200	84.3958
 0.9190	84.3777
 0.9180	84.3670
 0.9170	84.4011
 0.9160	84.3772
 0.9150	84.3506
 0.9140	84.3798
 0.9130	84.4151
 0.9120	84.4090
 0.9110	84.4239
 0.9100	84.3945
 0.9090	84.3815
 0.9080	84.4210
 0.9070	84.4555
 0.9060	84.4481
 0.9050	84.4073
 0.9040	84.4366
 0.9030	84.4797
 0.9020	84.4758
 0.9010	84.4274
 0.9000	84.4684
 0.8990	84.5109
 0.8980	84.5292
 0.8970	84.5263
 0.8960	84.5028
 0.8950	84.4692
 0.8940	84.5086
 0.8930	84.5518
 0.8920	84.5837
 0.8910	84.5305
 0.8900	84.5089
 0.8890	84.5299
 0.8880	84.5471
 0.8870	84.5832
 0.8860	84.5791
 0.8850	84.5750
 0.8840	84.5154
 0.8830	84.5124
 0.8820	84.5136
 0.8810	84.5140
 0.8800	84.5589
 0.8790	84.5421
 0.8780	84.5558
 0.8770	84.5113
 0.8760	84.5475
 0.8750	84.5136
 0.8740	84.5344
 0.8730	84.5041
 0.8720	84.4665
 0.8710	84.5368
 0.8700	84.5696
 0.8690	84.5552
 0.8680	84.4931
 0.8670	84.5015
 0.8660	84.4666
 0.8650	84.5052
 0.8640	84.4845
 0.8630	84.5202
 0.8620	84.5537
 0.8610	84.5230
 0.8600	84.5892
 0.8590	84.5366
 0.8580	84.5221
 0.8570	84.5072
 0.8560	84.4481
 0.8550	84.4654
 0.8540	84.5147
 0.8530	84.5369
 0.8520	84.4902
 0.8510	84.4354
 0.8500	84.5714
 0.8490	84.5835
 0.8480	84.5150
 0.8470	84.5918
 0.8460	84.5149
 0.8450	84.5094
 0.8440	84.5384
 0.8430	84.5271
 0.8420	84.5278
 0.8410	84.5163
 0.8400	84.4561
 0.8390	84.5505
 0.8380	84.5510
 0.8370	84.5377
 0.8360	84.4705
 0.8350	84.5272
 0.8340	84.5121
 0.8330	84.5916
 0.8320	84.5632
 0.8310	84.5446
 0.8300	84.5487
 0.8290	84.6145
 0.8280	84.6032
 0.8270	84.5927
 0.8260	84.6234
 0.8250	84.5962
 0.8240	84.6189
 0.8230	84.6646
 0.8220	84.6418
 0.8210	84.6404
 0.8200	84.6576
 0.8190	84.6655
 0.8180	84.6247
 0.8170	84.6821
 0.8160	84.6839
 0.8150	84.6689
 0.8140	84.6642
 0.8130	84.6420
 0.8120	84.6871
 0.8110	84.6673
 0.8100	84.6782
 0.8090	84.6655
 0.8080	84.6654
 0.8070	84.6795
 0.8060	84.7057
 0.8050	84.6419
 0.8040	84.6889
 0.8030	84.6805
 0.8020	84.6289
 0.8010	84.6757
 0.8000	84.6876
 0.7990	84.6204
 0.7980	84.6008
 0.7970	84.6267
 0.7960	84.5663
 0.7950	84.5978
 0.7940	84.5673
 0.7930	84.5366
 0.7920	84.5950
 0.7910	84.5150
 0.7900	84.5568
 0.7890	84.5299
 0.7880	84.5135
 0.7870	84.5325
 0.7860	84.5340
 0.7850	84.5102
 0.7840	84.5212
 0.7830	84.4999
 0.7820	84.4843
 0.7810	84.5182
 0.7800	84.4863
 0.7790	84.4561
 0.7780	84.4466
 0.7770	84.4328
 0.7760	84.4307
 0.7750	84.4336
 0.7740	84.4155
 0.7730	84.4105
 0.7720	84.4110
 0.7710	84.3980
 0.7700	84.4018
 0.7690	84.3964
 0.7680	84.4118
 0.7670	84.3609
 0.7660	84.4017
 0.7650	84.3665
 0.7640	84.3584
 0.7630	84.3573
 0.7620	84.3332
 0.7610	84.3440
 0.7600	84.3104
 0.7590	84.3076
 0.7580	84.2654
 0.7570	84.3068
 0.7560	84.2859
 0.7550	84.2740
 0.7540	84.3108
 0.7530	84.2686
 0.7520	84.2870
 0.7510	84.2638
 0.7500	84.2566
 0.7490	84.2071
 0.7480	84.2193
 0.7470	84.2029
 0.7460	84.2036
 0.7450	84.2245
 0.7440	84.2124
 0.7430	84.1787
 0.7420	84.1776
 0.7410	84.1850
 0.7400	84.1649
 0.7390	84.1355
 0.7380	84.1636
 0.7370	84.1317
 0.7360	84.1441
 0.7350	84.1523
 0.7340	84.1771
 0.7330	84.1457
 0.7320	84.1230
 0.7310	84.1299
 0.7300	84.1288
 0.7290	84.1301
 0.7280	84.0855
 0.7270	84.0644
 0.7260	84.0646
 0.7250	84.0413
 0.7240	84.0475
 0.7230	84.0288
 0.7220	84.0471
 0.7210	84.0436
 0.7200	84.0579
 0.7190	84.0391
 0.7180	84.0615
 0.7170	84.0419
 0.7160	84.0090
 0.7150	84.0292
 0.7140	84.0338
 0.7130	83.9902
 0.7120	83.9702
 0.7110	83.9794
 0.7100	83.9704
 0.7090	83.9399
 0.7080	83.9571
 0.7070	83.9589
 0.7060	83.9269
 0.7050	83.9240
 0.7040	83.9149
 0.7030	83.9068
 0.7020	83.8974
 0.7010	83.8647
 0.7000	83.8593
 0.6990	83.8424
 0.6980	83.8229
 0.6970	83.8355
 0.6960	83.8331
 0.6950	83.8070
 0.6940	83.7918
 0.6930	83.7963
 0.6920	83.7734
 0.6910	83.7413
 0.6900	83.7492
 0.6890	83.7415
 0.6880	83.6962
 0.6870	83.7057
 0.6860	83.6884
 0.6850	83.6651
 0.6840	83.6690
 0.6830	83.6513
 0.6820	83.6151
 0.6810	83.6002
 0.6800	83.5866
 0.6790	83.5719
 0.6780	83.5551
 0.6770	83.5200
 0.6760	83.5120
 0.6750	83.4869
 0.6740	83.4803
 0.6730	83.4654
 0.6720	83.4224
 0.6710	83.4111
 0.6700	83.4005
 0.6690	83.3711
 0.6680	83.3705
 0.6670	83.3509
 0.6660	83.3261
 0.6650	83.3018
 0.6640	83.2805
 0.6630	83.2593
 0.6620	83.2385
 0.6610	83.2117
 0.6600	83.1860
 0.6590	83.1641
 0.6580	83.1377
 0.6570	83.1154
 0.6560	83.0933
 0.6550	83.0747
 0.6540	83.0723
 0.6530	83.0454
 0.6520	83.0116
 0.6510	82.9929
 0.6500	82.9647
 0.6490	82.9414
 0.6480	82.9194
 0.6470	82.8923
 0.6460	82.8824
 0.6450	82.8598
 0.6440	82.8345
 0.6430	82.8060
 0.6420	82.7862
 0.6410	82.7709
 0.6400	82.7511
 0.6390	82.7188
 0.6380	82.6976
 0.6370	82.6769
 0.6360	82.6339
 0.6350	82.6094
 0.6340	82.6076
 0.6330	82.5866
 0.6320	82.5520
 0.6310	82.5347
 0.6300	82.5023
 0.6290	82.4747
 0.6280	82.4492
 0.6270	82.4140
 0.6260	82.3968
 0.6250	82.3775
 0.6240	82.3444
 0.6230	82.3154
 0.6220	82.3115
 0.6210	82.2777
 0.6200	82.2301
 0.6190	82.2229
 0.6180	82.2036
 0.6170	82.1666
 0.6160	82.1437
 0.6150	82.1137
 0.6140	82.0711
 0.6130	82.0461
 0.6120	82.0138
 0.6110	81.9819
 0.6100	81.9552
 0.6090	81.9277
 0.6080	81.8969
 0.6070	81.8658
 0.6060	81.8194
 0.6050	81.7858
 0.6040	81.7584
 0.6030	81.7231
 0.6020	81.7042
 0.6010	81.6715
 0.6000	81.6188
 0.5990	81.5772
 0.5980	81.5734
 0.5970	81.5606
 0.5960	81.5231
 0.5950	81.4944
 0.5940	81.4569
 0.5930	81.3987
 0.5920	81.3718
 0.5910	81.3228
 0.5900	81.2980
 0.5890	81.2530
 0.5880	81.2088
 0.5870	81.1581
 0.5860	81.1143
 0.5850	81.0615
 0.5840	81.0233
 0.5830	80.9778
 0.5820	80.9219
 0.5810	80.8791
 0.5800	80.8212
 0.5790	80.7770
 0.5780	80.7319
 0.5770	80.6865
 0.5760	80.6445
 0.5750	80.6075
 0.5740	80.5525
 0.5730	80.5104
 0.5720	80.4513
 0.5710	80.3939
 0.5700	80.3544
 0.5690	80.3099
 0.5680	80.2562
 0.5670	80.1971
 0.5660	80.1486
 0.5650	80.1051
 0.5640	80.0433
 0.5630	80.0016
 0.5620	79.9613
 0.5610	79.8628
 0.5600	79.8179
 0.5590	79.7572
 0.5580	79.7141
 0.5570	79.6628
 0.5560	79.6035
 0.5550	79.5535
 0.5540	79.4990
 0.5530	79.4490
 0.5520	79.4213
 0.5510	79.3582
 0.5500	79.2938
 0.5490	79.2454
 0.5480	79.2188
 0.5470	79.1649
 0.5460	79.1044
 0.5450	79.0542
 0.5440	79.0079
 0.5430	78.9418
 0.5420	78.8915
 0.5410	78.8281
 0.5400	78.7723
 0.5390	78.7434
 0.5380	78.6890
 0.5370	78.6363
 0.5360	78.5949
 0.5350	78.5148
 0.5340	78.4892
 0.5330	78.4229
 0.5320	78.3811
 0.5310	78.3258
 0.5300	78.2607
 0.5290	78.1986
 0.5280	78.1526
 0.5270	78.0980
 0.5260	78.0384
 0.5250	77.9935
 0.5240	77.9108
 0.5230	77.8516
 0.5220	77.8038
 0.5210	77.7157
 0.5200	77.6792
 0.5190	77.5916
 0.5180	77.5426
 0.5170	77.4777
 0.5160	77.4399
 0.5150	77.3613
 0.5140	77.3146
 0.5130	77.2256
 0.5120	77.1575
 0.5110	77.0975
 0.5100	77.0287
 0.5090	76.9769
 0.5080	76.9038
 0.5070	76.8320
 0.5060	76.7619
 0.5050	76.7034
 0.5040	76.6015
 0.5030	76.5630
 0.5020	76.4808
 0.5010	76.4041
 0.5000	76.3483
 0.4990	76.2573
 0.4980	76.1940
 0.4970	76.1453
 0.4960	76.0502
 0.4950	75.9666
 0.4940	75.8738
 0.4930	75.7893
 0.4920	75.7194
 0.4910	75.6771
 0.4900	75.5978
 0.4890	75.4772
 0.4880	75.3944
 0.4870	75.3120
 0.4860	75.2208
 0.4850	75.1310
 0.4840	75.0480
 0.4830	74.9541
 0.4820	74.8766
 0.4810	74.8054
 0.4800	74.7347
 0.4790	74.6700
 0.4780	74.6139
 0.4770	74.5275
 0.4760	74.4447
 0.4750	74.3782
 0.4740	74.2871
 0.4730	74.2093
 0.4720	74.1437
 0.4710	74.0798
 0.4700	73.9754
 0.4690	73.8940
 0.4680	73.8075
 0.4670	73.7389
 0.4660	73.6261
 0.4650	73.5691
 0.4640	73.4560
 0.4630	73.3750
 0.4620	73.3026
 0.4610	73.2164
 0.4600	73.1401
 0.4590	73.0431
 0.4580	72.9552
 0.4570	72.8649
 0.4560	72.7580
 0.4550	72.6685
 0.4540	72.6007
 0.4530	72.5249
 0.4520	72.4338
 0.4510	72.3312
 0.4500	72.2407
 0.4490	72.1432
 0.4480	72.0410
 0.4470	71.9716
 0.4460	71.8827
 0.4450	71.7865
 0.4440	71.6990
 0.4430	71.6137
 0.4420	71.5255
 0.4410	71.4389
 0.4400	71.3536
 0.4390	71.2665
 0.4380	71.1660
 0.4370	71.0784
 0.4360	71.0054
 0.4350	70.9012
 0.4340	70.8368
 0.4330	70.7331
 0.4320	70.6514
 0.4310	70.5785
 0.4300	70.5003
 0.4290	70.4114
 0.4280	70.3456
 0.4270	70.2636
 0.4260	70.1833
 0.4250	70.0863
 0.4240	70.0179
 0.4230	69.9733
 0.4220	69.8782
 0.4210	69.8047
 0.4200	69.7364
 0.4190	69.6808
 0.4180	69.6164
 0.4170	69.5569
 0.4160	69.5090
 0.4150	69.4524
 0.4140	69.3872
 0.4130	69.3265
 0.4120	69.2763
 0.4110	69.2232
 0.4100	69.1733
 0.4090	69.1206
 0.4080	69.0611
 0.4070	69.0029
 0.4060	68.9445
 0.4050	68.8680
 0.4040	68.8026
 0.4030	68.7471
 0.4020	68.6981
 0.4010	68.6430
 0.4000	68.5759
