Name: Howlite Ca_2B_5SiO_9(OH)_5
Type: Mineral
Class: Borate
Subclass: None
Particle Size: Coarse
Sample No.: B-5A
Owner: JPL
Wavelength Range: VSWIR
Origin: USA, California, San Gabriel Mountains, Tick Canyon
Collection Date: N/A
Description: Particle size was 125-500um.Collected by Burminco Original ASTER Spectral Library name was jpl.beckman.mineral.borate.none.coarse.b05.spectrum.txt
Measurement: Hemispherical reflectance
First Column: X
Second Column: Y
X Units: Wavelength (micrometers)
Y Units:Reflectance (percent)
First X Value:  0.4000
Last X Value:  2.5000
Number of X Values: 826
Additional Information: mineral.borate.none.coarse.vswir.b-5a.jpl.beckman.ancillary.txt

 0.4000	78.2400
 0.4010	78.3600
 0.4020	78.4800
 0.4030	78.8300
 0.4040	79.0100
 0.4050	79.0700
 0.4060	78.9500
 0.4070	79.4200
 0.4080	79.7800
 0.4090	80.1900
 0.4100	80.0800
 0.4110	80.1900
 0.4120	80.4900
 0.4130	80.6600
 0.4140	80.6000
 0.4150	80.7200
 0.4160	80.7200
 0.4170	80.9000
 0.4180	81.2600
 0.4190	81.2600
 0.4200	81.3200
 0.4210	81.4400
 0.4220	81.7900
 0.4230	81.9600
 0.4240	81.9000
 0.4250	81.7900
 0.4260	82.0800
 0.4270	82.3800
 0.4280	82.5000
 0.4290	82.6200
 0.4300	82.5600
 0.4310	82.6200
 0.4320	82.8000
 0.4330	82.9200
 0.4340	83.1500
 0.4350	83.3800
 0.4360	83.5600
 0.4370	83.5000
 0.4380	83.5000
 0.4390	83.7400
 0.4400	83.9800
 0.4410	84.2200
 0.4420	84.0400
 0.4430	83.9800
 0.4440	84.2800
 0.4450	84.6200
 0.4460	84.6200
 0.4470	84.6200
 0.4480	84.5600
 0.4490	85.0400
 0.4500	85.5800
 0.4510	85.3400
 0.4520	85.0400
 0.4530	85.1100
 0.4540	85.4700
 0.4550	85.7000
 0.4560	85.6400
 0.4570	85.4100
 0.4580	85.6500
 0.4590	85.8300
 0.4600	85.8900
 0.4610	86.1200
 0.4620	86.0000
 0.4630	86.4300
 0.4640	86.7300
 0.4650	86.3100
 0.4660	85.8400
 0.4670	86.3100
 0.4680	86.6100
 0.4690	87.0300
 0.4700	86.7900
 0.4710	86.5500
 0.4720	86.7300
 0.4730	86.9800
 0.4740	87.1600
 0.4750	86.9200
 0.4760	86.9200
 0.4770	87.1600
 0.4780	87.3400
 0.4790	87.4600
 0.4800	87.4000
 0.4810	87.5200
 0.4820	87.8700
 0.4830	88.2400
 0.4840	88.0600
 0.4850	87.8800
 0.4860	88.0600
 0.4870	88.3000
 0.4880	88.2500
 0.4890	88.0700
 0.4900	88.0100
 0.4910	88.3700
 0.4920	88.6100
 0.4930	88.9000
 0.4940	88.7300
 0.4950	88.7300
 0.4960	88.9000
 0.4970	88.8400
 0.4980	88.6700
 0.4990	88.5700
 0.5000	89.0900
 0.5010	89.2700
 0.5020	89.4500
 0.5030	89.3300
 0.5040	89.2100
 0.5050	89.4500
 0.5060	89.3300
 0.5070	89.5100
 0.5080	89.3900
 0.5090	89.3300
 0.5100	89.5700
 0.5110	89.6900
 0.5120	89.6900
 0.5130	89.4500
 0.5140	89.5100
 0.5150	89.8700
 0.5160	89.8700
 0.5170	89.7500
 0.5180	89.8700
 0.5190	89.9300
 0.5200	90.1600
 0.5210	90.2200
 0.5220	90.2200
 0.5230	90.1600
 0.5240	90.2200
 0.5250	90.3900
 0.5260	90.2200
 0.5270	90.1600
 0.5280	90.2200
 0.5290	90.3300
 0.5300	90.5700
 0.5310	90.6900
 0.5320	90.7500
 0.5330	90.6900
 0.5340	90.6300
 0.5350	90.8700
 0.5360	90.9900
 0.5370	91.1700
 0.5380	91.0500
 0.5390	90.9300
 0.5400	91.1700
 0.5410	91.0500
 0.5420	91.1100
 0.5430	91.2300
 0.5440	91.3400
 0.5450	91.2300
 0.5460	91.1100
 0.5470	90.8100
 0.5480	91.2300
 0.5490	91.2900
 0.5500	91.5200
 0.5510	90.9300
 0.5520	90.7500
 0.5530	90.8700
 0.5540	91.1700
 0.5550	91.4600
 0.5560	91.0500
 0.5570	91.1100
 0.5580	91.2300
 0.5590	91.1700
 0.5600	91.9400
 0.5610	92.1100
 0.5620	91.8200
 0.5630	91.8200
 0.5640	91.8200
 0.5650	91.9400
 0.5660	91.9900
 0.5670	91.9400
 0.5680	91.8200
 0.5690	91.7600
 0.5700	91.9900
 0.5710	91.8800
 0.5720	91.7600
 0.5730	91.6400
 0.5740	91.9400
 0.5750	92.0500
 0.5760	92.0500
 0.5770	91.8800
 0.5780	91.7000
 0.5790	92.1700
 0.5800	92.4100
 0.5810	92.1700
 0.5820	91.7600
 0.5830	91.9400
 0.5840	92.1100
 0.5850	92.1700
 0.5860	92.1700
 0.5870	91.9900
 0.5880	92.0500
 0.5890	92.2300
 0.5900	92.2300
 0.5910	91.9400
 0.5920	91.6400
 0.5930	91.8800
 0.5940	92.1700
 0.5950	92.1700
 0.5960	91.9400
 0.5970	91.5800
 0.5980	91.7000
 0.5990	91.9400
 0.6000	92.1700
 0.6010	92.2900
 0.6020	92.1100
 0.6030	92.2900
 0.6040	92.5300
 0.6050	92.7000
 0.6060	92.4100
 0.6070	92.4100
 0.6080	92.8800
 0.6090	93.0600
 0.6100	93.0600
 0.6110	92.8200
 0.6120	93.0000
 0.6130	93.2400
 0.6140	93.1800
 0.6150	93.1800
 0.6160	93.1800
 0.6170	93.3000
 0.6180	92.9400
 0.6190	93.0600
 0.6200	92.7600
 0.6210	92.8200
 0.6220	93.0000
 0.6230	93.0600
 0.6240	93.0600
 0.6250	92.8800
 0.6260	92.7000
 0.6270	92.8800
 0.6280	93.0600
 0.6290	93.0000
 0.6300	92.8200
 0.6310	92.9400
 0.6320	93.0600
 0.6330	93.4200
 0.6340	93.1800
 0.6350	93.0600
 0.6360	93.0600
 0.6370	92.9400
 0.6380	93.1800
 0.6390	92.8200
 0.6400	92.5900
 0.6410	92.7600
 0.6420	93.3600
 0.6430	93.4200
 0.6440	93.0000
 0.6450	92.8200
 0.6460	92.8800
 0.6470	93.3000
 0.6480	93.4800
 0.6490	93.3000
 0.6500	92.9400
 0.6510	92.9400
 0.6520	93.2400
 0.6530	93.4200
 0.6540	93.5400
 0.6550	93.1200
 0.6560	93.1200
 0.6570	93.3600
 0.6580	93.3600
 0.6590	93.1800
 0.6600	93.0000
 0.6610	93.2400
 0.6620	93.4200
 0.6630	93.5400
 0.6640	93.1800
 0.6650	93.0600
 0.6660	93.1800
 0.6670	93.5400
 0.6680	93.7100
 0.6690	93.6000
 0.6700	93.1800
 0.6710	93.3000
 0.6720	93.4800
 0.6730	93.4800
 0.6740	93.3000
 0.6750	92.9400
 0.6760	93.1200
 0.6770	93.4200
 0.6780	93.3600
 0.6790	93.1800
 0.6800	93.1800
 0.6810	93.2400
 0.6820	93.5400
 0.6830	93.4800
 0.6840	93.2400
 0.6850	93.1200
 0.6860	93.1800
 0.6870	93.3600
 0.6880	93.4200
 0.6890	93.1800
 0.6900	93.2400
 0.6910	93.4800
 0.6920	93.6000
 0.6930	93.6000
 0.6940	93.4200
 0.6950	93.4200
 0.6960	93.6500
 0.6970	93.6500
 0.6980	93.6500
 0.6990	93.4200
 0.7000	93.3600
 0.7010	93.3600
 0.7020	93.3600
 0.7030	93.2400
 0.7040	93.3600
 0.7050	93.4200
 0.7060	93.5400
 0.7070	93.5400
 0.7080	93.4200
 0.7090	93.4200
 0.7100	93.4800
 0.7110	93.4200
 0.7120	93.1800
 0.7130	93.0000
 0.7140	93.0000
 0.7150	93.3000
 0.7160	93.2400
 0.7170	93.1200
 0.7180	92.8800
 0.7190	93.2400
 0.7200	93.4200
 0.7210	93.1800
 0.7220	93.3000
 0.7230	93.1200
 0.7240	93.0000
 0.7250	93.0000
 0.7260	93.1200
 0.7270	93.0000
 0.7280	92.7600
 0.7290	92.9400
 0.7300	92.8800
 0.7310	93.0600
 0.7320	93.0000
 0.7330	92.7600
 0.7340	92.8200
 0.7350	92.8800
 0.7360	93.0000
 0.7370	92.8800
 0.7380	92.8800
 0.7390	93.0000
 0.7400	92.9400
 0.7410	93.0000
 0.7420	92.8200
 0.7430	92.5300
 0.7440	92.6500
 0.7450	92.8800
 0.7460	92.7000
 0.7470	92.5900
 0.7480	92.3500
 0.7490	92.1100
 0.7500	92.4700
 0.7510	92.5900
 0.7520	92.5900
 0.7530	92.1100
 0.7540	92.1700
 0.7550	92.4100
 0.7560	92.7000
 0.7570	92.7000
 0.7580	92.5300
 0.7590	92.4700
 0.7600	92.6500
 0.7610	92.6500
 0.7620	92.3500
 0.7630	92.2300
 0.7640	92.4700
 0.7650	92.7000
 0.7660	92.8200
 0.7670	92.6500
 0.7680	92.4700
 0.7690	92.4700
 0.7700	92.3500
 0.7710	92.7000
 0.7720	92.8200
 0.7730	92.5300
 0.7740	92.6500
 0.7750	93.0600
 0.7760	93.0000
 0.7770	93.0600
 0.7780	92.7600
 0.7790	92.7000
 0.7800	92.8800
 0.7810	92.8200
 0.7820	92.8200
 0.7830	92.5300
 0.7840	92.9400
 0.7850	93.3000
 0.7860	92.8800
 0.7870	92.6500
 0.7880	92.3500
 0.7890	92.5900
 0.7900	92.7000
 0.7910	92.5900
 0.7920	92.3500
 0.7930	92.2300
 0.7940	92.5300
 0.7950	92.5900
 0.7960	92.6500
 0.7970	92.6500
 0.7980	92.4100
 0.7990	92.4700
 0.8000	92.4400
 0.8040	92.3500
 0.8080	92.3500
 0.8120	92.4100
 0.8160	92.4100
 0.8200	92.2300
 0.8240	92.3500
 0.8280	92.2300
 0.8320	92.3500
 0.8360	92.2300
 0.8400	92.3500
 0.8440	92.2900
 0.8480	92.2900
 0.8520	92.3500
 0.8560	92.2300
 0.8600	92.2300
 0.8640	92.2900
 0.8680	92.2900
 0.8720	92.1700
 0.8760	92.1100
 0.8800	92.0500
 0.8840	92.0500
 0.8880	91.9900
 0.8920	91.9400
 0.8960	91.9400
 0.9000	91.9900
 0.9040	91.9400
 0.9080	91.8200
 0.9120	91.7600
 0.9160	91.8200
 0.9200	91.6400
 0.9240	91.4600
 0.9280	91.2300
 0.9320	91.1700
 0.9360	90.8700
 0.9400	90.6300
 0.9440	90.4500
 0.9480	90.1000
 0.9520	89.7500
 0.9560	89.2100
 0.9600	89.0900
 0.9640	88.8500
 0.9680	88.5700
 0.9720	87.6700
 0.9760	86.9700
 0.9800	86.6100
 0.9840	86.7900
 0.9880	87.2000
 0.9920	88.0900
 0.9960	89.0900
 1.0000	89.8100
 1.0040	90.1000
 1.0080	90.4500
 1.0120	90.7500
 1.0160	90.9900
 1.0200	90.8700
 1.0240	90.9900
 1.0280	91.0500
 1.0320	91.2300
 1.0360	91.2900
 1.0400	91.3400
 1.0440	91.4600
 1.0480	91.3400
 1.0520	91.5800
 1.0560	91.4600
 1.0600	91.5800
 1.0640	91.5800
 1.0680	91.7000
 1.0720	91.4600
 1.0760	91.4600
 1.0800	91.4000
 1.0840	91.5200
 1.0880	91.2900
 1.0920	91.3400
 1.0960	91.2900
 1.1000	91.4000
 1.1040	91.3400
 1.1080	91.3400
 1.1120	91.3400
 1.1160	91.4000
 1.1200	91.5200
 1.1240	91.5200
 1.1280	91.5200
 1.1320	91.5800
 1.1360	91.5800
 1.1400	91.4600
 1.1440	91.3400
 1.1480	91.2900
 1.1520	91.4000
 1.1560	91.2200
 1.1600	91.1500
 1.1640	91.0800
 1.1680	91.1300
 1.1720	90.8900
 1.1760	90.8300
 1.1800	90.8200
 1.1840	90.8100
 1.1880	90.5600
 1.1920	90.3200
 1.1960	90.0700
 1.2000	90.0700
 1.2040	89.7200
 1.2080	89.3600
 1.2120	88.8800
 1.2160	88.6500
 1.2200	87.8800
 1.2240	87.1800
 1.2280	86.4600
 1.2320	85.9800
 1.2360	85.5200
 1.2400	85.4000
 1.2440	85.4600
 1.2480	85.5200
 1.2520	85.4600
 1.2560	85.5700
 1.2600	85.9100
 1.2640	86.3200
 1.2680	86.3700
 1.2720	86.4300
 1.2760	86.5400
 1.2800	86.7100
 1.2840	86.7600
 1.2880	86.8700
 1.2920	86.7500
 1.2960	86.7400
 1.3000	86.2500
 1.3040	85.8300
 1.3080	85.2400
 1.3120	84.4600
 1.3160	83.4500
 1.3200	82.4400
 1.3240	80.9000
 1.3280	78.5300
 1.3320	75.7500
 1.3360	74.9800
 1.3400	75.4400
 1.3440	75.6700
 1.3480	76.0800
 1.3520	76.9600
 1.3560	77.7200
 1.3600	77.9600
 1.3640	77.7200
 1.3680	76.9000
 1.3720	75.9000
 1.3760	74.6600
 1.3800	73.1300
 1.3840	71.2900
 1.3880	69.1700
 1.3920	66.6300
 1.3960	64.1600
 1.4000	61.6700
 1.4040	59.6700
 1.4080	58.0800
 1.4120	56.9600
 1.4160	55.9100
 1.4200	54.2000
 1.4240	50.3100
 1.4280	46.2400
 1.4320	44.4600
 1.4360	42.8800
 1.4400	40.4000
 1.4440	41.0500
 1.4480	46.4400
 1.4520	51.8700
 1.4560	54.3500
 1.4600	54.6500
 1.4640	54.5300
 1.4680	54.2900
 1.4720	54.3500
 1.4760	54.7700
 1.4800	55.5900
 1.4840	56.1900
 1.4880	56.5300
 1.4920	56.3600
 1.4960	56.0100
 1.5000	55.6500
 1.5040	55.2300
 1.5080	54.7100
 1.5120	54.1100
 1.5160	53.8200
 1.5200	54.3500
 1.5240	55.7100
 1.5280	57.7700
 1.5320	59.5500
 1.5360	60.8500
 1.5400	61.6700
 1.5440	62.0900
 1.5480	62.2100
 1.5520	62.2100
 1.5560	62.0300
 1.5600	61.8500
 1.5640	61.5000
 1.5680	61.0300
 1.5720	60.4900
 1.5760	60.0900
 1.5800	59.3700
 1.5840	58.7300
 1.5880	58.2500
 1.5920	57.6600
 1.5960	57.0700
 1.6000	56.5300
 1.6040	56.1800
 1.6080	55.8200
 1.6120	55.4600
 1.6160	55.1000
 1.6200	54.8700
 1.6240	54.6200
 1.6280	54.4400
 1.6320	54.2600
 1.6360	54.2500
 1.6400	54.1900
 1.6440	54.3600
 1.6480	54.3600
 1.6520	54.5300
 1.6560	54.5900
 1.6600	54.8800
 1.6640	54.9800
 1.6680	55.2800
 1.6720	55.5100
 1.6760	55.7500
 1.6800	56.1000
 1.6840	56.2600
 1.6880	56.6100
 1.6920	56.7900
 1.6960	56.9600
 1.7000	57.1300
 1.7040	57.4300
 1.7080	57.6600
 1.7120	57.8400
 1.7160	58.0100
 1.7200	58.1900
 1.7240	58.5500
 1.7280	58.8500
 1.7320	59.1300
 1.7360	59.4900
 1.7400	59.7300
 1.7440	60.0200
 1.7480	60.3100
 1.7520	60.4900
 1.7560	60.6100
 1.7600	60.7300
 1.7640	61.0200
 1.7680	61.0800
 1.7720	61.2000
 1.7760	61.4400
 1.7800	61.6100
 1.7840	61.6700
 1.7880	61.8500
 1.7920	61.9000
 1.7960	62.0200
 1.8000	61.9600
 1.8040	61.9500
 1.8080	61.9900
 1.8120	62.1400
 1.8160	62.0000
 1.8200	62.1600
 1.8240	62.2000
 1.8280	62.3600
 1.8320	62.2800
 1.8360	62.2600
 1.8400	62.3000
 1.8440	62.2800
 1.8480	62.1400
 1.8520	62.1300
 1.8560	61.9400
 1.8600	61.8800
 1.8640	61.6400
 1.8680	61.4500
 1.8720	61.2300
 1.8760	61.1000
 1.8800	60.8000
 1.8840	60.6700
 1.8880	60.4900
 1.8920	60.3700
 1.8960	60.2500
 1.9000	60.1200
 1.9040	59.9400
 1.9080	59.7100
 1.9120	59.4700
 1.9160	59.2900
 1.9200	59.0500
 1.9240	58.7500
 1.9280	58.5600
 1.9320	58.3400
 1.9360	58.1500
 1.9400	57.9100
 1.9440	57.6100
 1.9480	57.3700
 1.9520	57.2400
 1.9560	57.0000
 1.9600	56.6900
 1.9640	56.3900
 1.9680	56.1900
 1.9720	55.8900
 1.9760	55.5300
 1.9800	54.9200
 1.9840	54.4400
 1.9880	53.7900
 1.9920	53.1900
 1.9960	52.4700
 2.0000	51.9300
 2.0040	51.3700
 2.0080	50.8000
 2.0120	50.1300
 2.0160	49.4100
 2.0200	48.9800
 2.0240	48.5400
 2.0280	48.0900
 2.0320	48.0000
 2.0360	48.0400
 2.0400	48.1900
 2.0440	48.0400
 2.0480	47.5900
 2.0520	46.9300
 2.0560	45.8700
 2.0600	44.1700
 2.0640	42.2400
 2.0680	40.0200
 2.0720	37.5800
 2.0760	35.0800
 2.0800	32.5200
 2.0840	30.0900
 2.0880	28.0500
 2.0920	26.1900
 2.0960	24.5100
 2.1000	23.1200
 2.1040	21.7200
 2.1080	20.4500
 2.1120	19.1700
 2.1160	18.1300
 2.1200	17.3700
 2.1240	16.7800
 2.1280	16.4200
 2.1320	16.3600
 2.1360	16.4200
 2.1400	16.5300
 2.1440	16.6600
 2.1480	16.4900
 2.1520	16.3200
 2.1560	16.2200
 2.1600	16.3500
 2.1640	16.5500
 2.1680	17.0800
 2.1720	17.8000
 2.1760	18.5700
 2.1800	19.4100
 2.1840	20.1200
 2.1880	20.7800
 2.1920	21.4300
 2.1960	21.8000
 2.2000	21.9300
 2.2040	22.0500
 2.2080	21.9300
 2.2120	21.8200
 2.2160	21.4200
 2.2200	21.0300
 2.2240	20.6700
 2.2280	20.3200
 2.2320	20.0300
 2.2360	19.8400
 2.2400	19.8900
 2.2440	20.1300
 2.2480	20.4800
 2.2520	20.8800
 2.2560	21.5100
 2.2600	22.3200
 2.2640	22.9000
 2.2680	23.5400
 2.2720	23.9400
 2.2760	24.3400
 2.2800	24.5000
 2.2840	24.6100
 2.2880	24.7700
 2.2920	24.9900
 2.2960	24.9700
 2.3000	25.1700
 2.3040	25.4600
 2.3080	25.4500
 2.3120	26.3600
 2.3160	26.8100
 2.3200	27.2700
 2.3240	27.8200
 2.3280	28.0800
 2.3320	28.1800
 2.3360	28.2700
 2.3400	28.2500
 2.3440	27.9400
 2.3480	27.5900
 2.3520	27.2900
 2.3560	26.9400
 2.3600	26.5800
 2.3640	26.1000
 2.3680	25.6400
 2.3720	25.1700
 2.3760	24.4300
 2.3800	23.5600
 2.3840	22.7000
 2.3880	21.7200
 2.3920	20.5700
 2.3960	19.4200
 2.4000	18.2700
 2.4040	17.1800
 2.4080	15.9800
 2.4120	14.8900
 2.4160	13.9200
 2.4200	13.0500
 2.4240	12.1300
 2.4280	11.5100
 2.4320	10.9300
 2.4360	10.4100
 2.4400	 9.9000
 2.4440	 9.5500
 2.4480	 9.3800
 2.4520	 9.2100
 2.4560	 9.2100
 2.4600	 9.3200
 2.4640	 9.6600
 2.4680	 9.8900
 2.4720	10.4600
 2.4760	10.9800
 2.4800	11.5500
 2.4840	12.1200
 2.4880	12.6900
 2.4920	13.3800
 2.4960	14.0100
 2.5000	14.4600
