Name: Prehnite Ca_2Al_2Si_3O_10(OH)_2
Type: Mineral
Class: Silicate
Subclass: Phyllosilicate
Particle Size: Coarse
Sample No.: PS-21A
Owner: JPL
Wavelength Range: VSWIR
Origin: USA, Virginia, Centerville.
Collection Date: N/A
Description: Particle size was 125-500um. Collected by:  Burminco Original ASTER Spectral Library name was jpl.perkin.mineral.silicate.phyllosilicate.coarse.ps21a.spectrum.txt
Measurement: Hemispherical reflectance
First Column: X
Second Column: Y
X Units: Wavelength (micrometers)
Y Units:Reflectance (percent)
First X Value:  2.5000
Last X Value:  0.4000
Number of X Values: 2101
Additional Information: mineral.silicate.phyllosilicate.coarse.vswir.ps-21a.jpl.perkin.ancillary.txt

 2.5000	18.1850
 2.4990	18.0337
 2.4980	18.4315
 2.4970	18.3034
 2.4960	17.9489
 2.4950	18.6225
 2.4940	18.2327
 2.4930	18.2680
 2.4920	18.1294
 2.4910	18.3441
 2.4900	18.2862
 2.4890	18.6524
 2.4880	18.3442
 2.4870	18.7830
 2.4860	18.4523
 2.4850	18.7357
 2.4840	18.5524
 2.4830	18.6424
 2.4820	18.5376
 2.4810	18.6648
 2.4800	18.5628
 2.4790	18.6440
 2.4780	18.5810
 2.4770	18.7302
 2.4760	18.6739
 2.4750	18.8570
 2.4740	18.6934
 2.4730	18.8693
 2.4720	19.0006
 2.4710	19.0224
 2.4700	19.0014
 2.4690	19.2100
 2.4680	19.1768
 2.4670	19.6422
 2.4660	19.6134
 2.4650	19.9222
 2.4640	19.9509
 2.4630	20.1556
 2.4620	20.3772
 2.4610	20.5492
 2.4600	20.6409
 2.4590	20.9376
 2.4580	21.0541
 2.4570	21.2957
 2.4560	21.3879
 2.4550	21.6783
 2.4540	21.7711
 2.4530	22.0273
 2.4520	21.9681
 2.4510	22.2499
 2.4500	22.3202
 2.4490	22.4732
 2.4480	22.4966
 2.4470	22.6235
 2.4460	22.6055
 2.4450	22.6789
 2.4440	22.5889
 2.4430	22.6712
 2.4420	22.5530
 2.4410	22.5749
 2.4400	22.4076
 2.4390	22.4363
 2.4380	22.1519
 2.4370	22.0836
 2.4360	21.8814
 2.4350	21.6722
 2.4340	21.4517
 2.4330	21.3321
 2.4320	20.9203
 2.4310	20.7349
 2.4300	20.4410
 2.4290	20.3118
 2.4280	19.9736
 2.4270	19.7957
 2.4260	19.3734
 2.4250	19.1289
 2.4240	18.8002
 2.4230	18.6465
 2.4220	18.2140
 2.4210	18.0153
 2.4200	17.6005
 2.4190	17.4478
 2.4180	17.1792
 2.4170	16.8852
 2.4160	16.6413
 2.4150	16.4050
 2.4140	16.1500
 2.4130	15.9453
 2.4120	15.6373
 2.4110	15.4985
 2.4100	15.2640
 2.4090	15.1372
 2.4080	14.9281
 2.4070	14.8486
 2.4060	14.5716
 2.4050	14.3892
 2.4040	14.2474
 2.4030	14.1571
 2.4020	14.0029
 2.4010	13.9004
 2.4000	13.6961
 2.3990	13.5665
 2.3980	13.3426
 2.3970	13.3158
 2.3960	13.1139
 2.3950	13.0130
 2.3940	12.8669
 2.3930	12.8197
 2.3920	12.6856
 2.3910	12.5995
 2.3900	12.3933
 2.3890	12.3376
 2.3880	12.2267
 2.3870	12.1277
 2.3860	12.0408
 2.3850	12.0316
 2.3840	11.9361
 2.3830	11.8940
 2.3820	11.8757
 2.3810	11.9136
 2.3800	11.8613
 2.3790	11.8380
 2.3780	11.7935
 2.3770	11.7360
 2.3760	11.6867
 2.3750	11.6327
 2.3740	11.6049
 2.3730	11.5707
 2.3720	11.5391
 2.3710	11.4409
 2.3700	11.2811
 2.3690	11.1847
 2.3680	11.1278
 2.3670	11.0539
 2.3660	10.8567
 2.3650	10.7183
 2.3640	10.5805
 2.3630	10.5082
 2.3620	10.4370
 2.3610	10.3328
 2.3600	10.2495
 2.3590	10.1283
 2.3580	10.0802
 2.3570	10.0578
 2.3560	10.0689
 2.3550	10.1634
 2.3540	10.2110
 2.3530	10.2765
 2.3520	10.3460
 2.3510	10.4761
 2.3500	10.6169
 2.3490	10.7593
 2.3480	10.9407
 2.3470	11.0367
 2.3460	11.1725
 2.3450	11.3107
 2.3440	11.5150
 2.3430	11.6388
 2.3420	11.6960
 2.3410	11.7837
 2.3400	11.8999
 2.3390	11.8514
 2.3380	11.9004
 2.3370	11.9754
 2.3360	12.0049
 2.3350	12.0154
 2.3340	12.1160
 2.3330	12.1972
 2.3320	12.2576
 2.3310	12.3989
 2.3300	12.6051
 2.3290	12.7969
 2.3280	13.0662
 2.3270	13.4558
 2.3260	13.9392
 2.3250	14.3249
 2.3240	14.9259
 2.3230	15.6452
 2.3220	16.3221
 2.3210	17.0119
 2.3200	17.8871
 2.3190	18.7275
 2.3180	19.6351
 2.3170	20.5793
 2.3160	21.6548
 2.3150	22.6255
 2.3140	23.5941
 2.3130	24.4876
 2.3120	25.2878
 2.3110	26.0024
 2.3100	26.7080
 2.3090	27.3115
 2.3080	27.8762
 2.3070	28.2843
 2.3060	28.6867
 2.3050	28.9850
 2.3040	29.2087
 2.3030	29.2258
 2.3020	29.2913
 2.3010	29.1519
 2.3000	29.0571
 2.2990	28.9106
 2.2980	28.6972
 2.2970	28.4521
 2.2960	28.1780
 2.2950	27.8557
 2.2940	27.5482
 2.2930	27.2703
 2.2920	26.9950
 2.2910	26.7480
 2.2900	26.5341
 2.2890	26.2591
 2.2880	26.0447
 2.2870	25.8472
 2.2860	25.7753
 2.2850	25.6006
 2.2840	25.6062
 2.2830	25.5231
 2.2820	25.5115
 2.2810	25.4596
 2.2800	25.5624
 2.2790	25.6209
 2.2780	25.7634
 2.2770	25.9210
 2.2760	26.1748
 2.2750	26.3638
 2.2740	26.7299
 2.2730	26.9804
 2.2720	27.4521
 2.2710	27.7979
 2.2700	28.3190
 2.2690	28.5944
 2.2680	29.0592
 2.2670	29.4305
 2.2660	29.8701
 2.2650	30.2161
 2.2640	30.7094
 2.2630	30.8895
 2.2620	31.2443
 2.2610	31.4488
 2.2600	31.6303
 2.2590	31.7704
 2.2580	31.8875
 2.2570	31.9364
 2.2560	31.9131
 2.2550	31.8096
 2.2540	31.7611
 2.2530	31.5185
 2.2520	31.3710
 2.2510	31.0129
 2.2500	30.7999
 2.2490	30.3431
 2.2480	29.9682
 2.2470	29.4851
 2.2460	29.0381
 2.2450	28.5720
 2.2440	28.1219
 2.2430	27.6334
 2.2420	27.2239
 2.2410	26.6875
 2.2400	26.3900
 2.2390	25.9927
 2.2380	25.7257
 2.2370	25.4643
 2.2360	25.3430
 2.2350	25.1308
 2.2340	25.1518
 2.2330	25.1996
 2.2320	25.3996
 2.2310	25.4359
 2.2300	25.8377
 2.2290	26.0014
 2.2280	26.5137
 2.2270	26.9609
 2.2260	27.6187
 2.2250	28.1010
 2.2240	28.7393
 2.2230	29.3605
 2.2220	30.0412
 2.2210	30.5848
 2.2200	31.3569
 2.2190	31.8799
 2.2180	32.6943
 2.2170	33.3170
 2.2160	34.0120
 2.2150	34.7053
 2.2140	35.5103
 2.2130	36.2687
 2.2120	37.2126
 2.2110	37.9104
 2.2100	38.9289
 2.2090	39.5931
 2.2080	40.6682
 2.2070	41.4098
 2.2060	42.3681
 2.2050	43.2221
 2.2040	44.0636
 2.2030	44.7612
 2.2020	45.6431
 2.2010	46.1770
 2.2000	46.8964
 2.1990	47.3646
 2.1980	47.9791
 2.1970	48.3671
 2.1960	48.7910
 2.1950	49.2607
 2.1940	49.7016
 2.1930	49.9028
 2.1920	50.2716
 2.1910	50.4631
 2.1900	50.7298
 2.1890	50.9552
 2.1880	51.2937
 2.1870	51.4466
 2.1860	51.7071
 2.1850	51.8451
 2.1840	51.9855
 2.1830	52.0965
 2.1820	52.2399
 2.1810	52.3472
 2.1800	52.5766
 2.1790	52.7430
 2.1780	52.9127
 2.1770	53.0480
 2.1760	53.2040
 2.1750	53.3815
 2.1740	53.5288
 2.1730	53.6986
 2.1720	53.8337
 2.1710	53.9781
 2.1700	54.2506
 2.1690	54.3854
 2.1680	54.5486
 2.1670	54.6681
 2.1660	54.8255
 2.1650	54.9659
 2.1640	55.2296
 2.1630	55.3194
 2.1620	55.4719
 2.1610	55.5873
 2.1600	55.6781
 2.1590	55.7509
 2.1580	55.8603
 2.1570	55.9099
 2.1560	56.0964
 2.1550	56.1754
 2.1540	56.2681
 2.1530	56.3755
 2.1520	56.4511
 2.1510	56.5410
 2.1500	56.6502
 2.1490	56.7069
 2.1480	56.8437
 2.1470	56.9416
 2.1460	57.0738
 2.1450	57.1176
 2.1440	57.2163
 2.1430	57.3486
 2.1420	57.4734
 2.1410	57.4772
 2.1400	57.6292
 2.1390	57.6263
 2.1380	57.7449
 2.1370	57.8534
 2.1360	57.8832
 2.1350	57.8964
 2.1340	57.9511
 2.1330	57.9785
 2.1320	58.0243
 2.1310	58.0005
 2.1300	58.0944
 2.1290	58.1086
 2.1280	58.1794
 2.1270	58.0966
 2.1260	58.1666
 2.1250	58.2374
 2.1240	58.3196
 2.1230	58.4030
 2.1220	58.4171
 2.1210	58.4609
 2.1200	58.5116
 2.1190	58.5841
 2.1180	58.6513
 2.1170	58.6545
 2.1160	58.6914
 2.1150	58.7628
 2.1140	58.8425
 2.1130	58.9153
 2.1120	58.9231
 2.1110	58.9822
 2.1100	59.0069
 2.1090	59.0201
 2.1080	59.0375
 2.1070	59.1080
 2.1060	59.1843
 2.1050	59.2397
 2.1040	59.3094
 2.1030	59.3325
 2.1020	59.3781
 2.1010	59.4621
 2.1000	59.5085
 2.0990	59.6046
 2.0980	59.7400
 2.0970	59.8559
 2.0960	59.9309
 2.0950	60.0432
 2.0940	60.1649
 2.0930	60.2528
 2.0920	60.3782
 2.0910	60.5036
 2.0900	60.6197
 2.0890	60.7401
 2.0880	60.8584
 2.0870	60.9302
 2.0860	61.0591
 2.0850	61.1153
 2.0840	61.1859
 2.0830	61.2630
 2.0820	61.3138
 2.0810	61.3825
 2.0800	61.3742
 2.0790	61.3560
 2.0780	61.4526
 2.0770	61.5072
 2.0760	61.5216
 2.0750	61.5791
 2.0740	61.6692
 2.0730	61.6881
 2.0720	61.6615
 2.0710	61.7038
 2.0700	61.7375
 2.0690	61.7295
 2.0680	61.6880
 2.0670	61.7213
 2.0660	61.7777
 2.0650	61.7809
 2.0640	61.8418
 2.0630	61.8445
 2.0620	61.8035
 2.0610	61.7959
 2.0600	61.8315
 2.0590	61.8686
 2.0580	61.8551
 2.0570	61.8868
 2.0560	61.9071
 2.0550	61.8856
 2.0540	61.8791
 2.0530	61.9396
 2.0520	62.0052
 2.0510	62.0258
 2.0500	62.0176
 2.0490	62.0114
 2.0480	62.0422
 2.0470	62.0872
 2.0460	62.0563
 2.0450	61.9966
 2.0440	62.0051
 2.0430	62.0741
 2.0420	62.0692
 2.0410	62.0057
 2.0400	61.9161
 2.0390	61.9069
 2.0380	61.8877
 2.0370	61.8872
 2.0360	61.8348
 2.0350	61.8011
 2.0340	61.7353
 2.0330	61.6711
 2.0320	61.5104
 2.0310	61.4350
 2.0300	61.4025
 2.0290	61.3647
 2.0280	61.3207
 2.0270	61.2371
 2.0260	61.1834
 2.0250	61.2165
 2.0240	61.1249
 2.0230	61.0833
 2.0220	61.0381
 2.0210	61.0845
 2.0200	61.0605
 2.0190	61.0990
 2.0180	61.1879
 2.0170	61.2151
 2.0160	61.1900
 2.0150	61.2586
 2.0140	61.2141
 2.0130	61.2266
 2.0120	61.2328
 2.0110	61.3160
 2.0100	61.2890
 2.0090	61.3256
 2.0080	61.2394
 2.0070	61.2208
 2.0060	61.2497
 2.0050	61.2076
 2.0040	61.2133
 2.0030	61.2415
 2.0020	61.2513
 2.0010	61.2614
 2.0000	61.3344
 1.9990	61.3467
 1.9980	61.4365
 1.9970	61.4921
 1.9960	61.6225
 1.9950	61.7254
 1.9940	61.7227
 1.9930	61.8829
 1.9920	61.8953
 1.9910	61.9479
 1.9900	62.0063
 1.9890	62.0150
 1.9880	62.0367
 1.9870	62.1094
 1.9860	62.0948
 1.9850	62.0856
 1.9840	61.9899
 1.9830	62.0903
 1.9820	62.0791
 1.9810	62.1538
 1.9800	62.0138
 1.9790	62.0035
 1.9780	62.0177
 1.9770	61.9994
 1.9760	61.9224
 1.9750	61.9709
 1.9740	61.7900
 1.9730	61.7566
 1.9720	61.6164
 1.9710	61.6012
 1.9700	61.3776
 1.9690	61.2518
 1.9680	61.0992
 1.9670	60.9422
 1.9660	60.8349
 1.9650	60.6773
 1.9640	60.6777
 1.9630	60.6073
 1.9620	60.5385
 1.9610	60.4323
 1.9600	60.5153
 1.9590	60.4468
 1.9580	60.3978
 1.9570	60.4663
 1.9560	60.3150
 1.9550	60.3303
 1.9540	60.2893
 1.9530	60.3826
 1.9520	60.0928
 1.9510	60.1879
 1.9500	60.0074
 1.9490	59.9364
 1.9480	59.7200
 1.9470	59.7016
 1.9460	59.5510
 1.9450	59.4648
 1.9440	59.1959
 1.9430	59.0607
 1.9420	58.8572
 1.9410	58.6536
 1.9400	58.6172
 1.9390	58.5434
 1.9380	58.3761
 1.9370	58.2665
 1.9360	58.1793
 1.9350	58.1104
 1.9340	57.9996
 1.9330	58.0532
 1.9320	57.9624
 1.9310	58.1576
 1.9300	58.0564
 1.9290	58.0785
 1.9280	58.1848
 1.9270	58.1901
 1.9260	58.3142
 1.9250	58.4333
 1.9240	58.3454
 1.9230	58.5528
 1.9220	58.5963
 1.9210	58.6571
 1.9200	58.5486
 1.9190	58.6558
 1.9180	58.4869
 1.9170	58.5323
 1.9160	58.5073
 1.9150	58.4592
 1.9140	58.2760
 1.9130	58.2133
 1.9120	58.1041
 1.9110	57.9933
 1.9100	57.9072
 1.9090	57.9187
 1.9080	57.6892
 1.9070	57.6940
 1.9060	57.6022
 1.9050	57.5806
 1.9040	57.5558
 1.9030	57.7313
 1.9020	57.7918
 1.9010	57.8667
 1.9000	58.0142
 1.8990	58.2161
 1.8980	58.4004
 1.8970	58.6074
 1.8960	58.8732
 1.8950	59.1184
 1.8940	59.2851
 1.8930	59.4649
 1.8920	59.6863
 1.8910	59.7500
 1.8900	59.7731
 1.8890	59.8485
 1.8880	59.8535
 1.8870	59.8375
 1.8860	59.6948
 1.8850	59.7069
 1.8840	59.5358
 1.8830	59.4798
 1.8820	59.3573
 1.8810	59.3338
 1.8800	59.3764
 1.8790	59.4886
 1.8780	59.5565
 1.8770	59.7479
 1.8760	59.9979
 1.8750	60.3199
 1.8740	60.6565
 1.8730	61.0719
 1.8720	61.4252
 1.8710	61.8501
 1.8700	62.3015
 1.8690	62.7083
 1.8680	63.1256
 1.8670	63.4462
 1.8660	63.6842
 1.8650	64.0615
 1.8640	64.2974
 1.8630	64.6385
 1.8620	64.7278
 1.8610	65.0045
 1.8600	65.0939
 1.8590	65.3485
 1.8580	65.3969
 1.8570	65.5769
 1.8560	65.7036
 1.8550	65.7626
 1.8540	65.8604
 1.8530	65.8953
 1.8520	65.9607
 1.8510	65.9387
 1.8500	65.9927
 1.8490	66.0062
 1.8480	66.0160
 1.8470	66.0329
 1.8460	66.0611
 1.8450	66.0307
 1.8440	66.0097
 1.8430	66.0502
 1.8420	66.0490
 1.8410	66.1040
 1.8400	66.0717
 1.8390	66.1068
 1.8380	66.1295
 1.8370	66.1371
 1.8360	66.2768
 1.8350	66.3618
 1.8340	66.4675
 1.8330	66.6257
 1.8320	66.7935
 1.8310	66.8443
 1.8300	67.0231
 1.8290	67.2345
 1.8280	67.3935
 1.8270	67.6151
 1.8260	67.7889
 1.8250	68.0065
 1.8240	68.1124
 1.8230	68.3094
 1.8220	68.5776
 1.8210	68.6937
 1.8200	68.8472
 1.8190	69.1371
 1.8180	69.3039
 1.8170	69.5344
 1.8160	69.7625
 1.8150	69.9373
 1.8140	70.0321
 1.8130	70.2149
 1.8120	70.3875
 1.8110	70.4900
 1.8100	70.6431
 1.8090	70.8297
 1.8080	70.9273
 1.8070	71.0151
 1.8060	71.1405
 1.8050	71.2605
 1.8040	71.3867
 1.8030	71.5217
 1.8020	71.5315
 1.8010	71.5711
 1.8000	71.6400
 1.7990	71.6751
 1.7980	71.6499
 1.7970	71.7773
 1.7960	71.9024
 1.7950	71.9149
 1.7940	71.9200
 1.7930	71.8954
 1.7920	71.9967
 1.7910	72.0535
 1.7900	72.0475
 1.7890	72.0924
 1.7880	72.0468
 1.7870	72.0026
 1.7860	72.0308
 1.7850	72.0378
 1.7840	72.0478
 1.7830	71.9837
 1.7820	71.8988
 1.7810	71.9661
 1.7800	71.9499
 1.7790	71.8756
 1.7780	71.8274
 1.7770	71.7881
 1.7760	71.7738
 1.7750	71.7710
 1.7740	71.7390
 1.7730	71.7058
 1.7720	71.6588
 1.7710	71.5897
 1.7700	71.5576
 1.7690	71.4870
 1.7680	71.5125
 1.7670	71.5081
 1.7660	71.4403
 1.7650	71.3291
 1.7640	71.3087
 1.7630	71.2122
 1.7620	71.1716
 1.7610	71.1733
 1.7600	71.1393
 1.7590	71.0898
 1.7580	71.0650
 1.7570	71.0009
 1.7560	70.9723
 1.7550	70.9976
 1.7540	71.0385
 1.7530	70.9240
 1.7520	70.8888
 1.7510	70.9150
 1.7500	70.9661
 1.7490	70.8955
 1.7480	70.8533
 1.7470	70.8784
 1.7460	70.9172
 1.7450	70.9265
 1.7440	70.9759
 1.7430	70.9660
 1.7420	70.9600
 1.7410	71.0346
 1.7400	71.0703
 1.7390	71.1560
 1.7380	71.2739
 1.7370	71.2813
 1.7360	71.3479
 1.7350	71.5069
 1.7340	71.5588
 1.7330	71.5781
 1.7320	71.6147
 1.7310	71.6407
 1.7300	71.7379
 1.7290	71.8305
 1.7280	71.9769
 1.7270	71.9701
 1.7260	72.0647
 1.7250	72.1082
 1.7240	72.1759
 1.7230	72.2633
 1.7220	72.3412
 1.7210	72.4221
 1.7200	72.5300
 1.7190	72.5998
 1.7180	72.6795
 1.7170	72.7685
 1.7160	72.8354
 1.7150	72.9105
 1.7140	72.9512
 1.7130	72.9478
 1.7120	73.0084
 1.7110	73.0791
 1.7100	73.1133
 1.7090	73.1826
 1.7080	73.1868
 1.7070	73.2354
 1.7060	73.3487
 1.7050	73.3472
 1.7040	73.3626
 1.7030	73.4102
 1.7020	73.4532
 1.7010	73.4969
 1.7000	73.5164
 1.6990	73.5749
 1.6980	73.6311
 1.6970	73.6481
 1.6960	73.7316
 1.6950	73.8279
 1.6940	73.8522
 1.6930	73.8436
 1.6920	73.9975
 1.6910	74.0525
 1.6900	74.1070
 1.6890	74.0482
 1.6880	74.1624
 1.6870	74.2790
 1.6860	74.2970
 1.6850	74.2549
 1.6840	74.2234
 1.6830	74.2821
 1.6820	74.3508
 1.6810	74.2844
 1.6800	74.3229
 1.6790	74.2658
 1.6780	74.4194
 1.6770	74.3505
 1.6760	74.4133
 1.6750	74.4519
 1.6740	74.4818
 1.6730	74.4296
 1.6720	74.4398
 1.6710	74.5250
 1.6700	74.6282
 1.6690	74.6558
 1.6680	74.5662
 1.6670	74.6213
 1.6660	74.5728
 1.6650	74.6848
 1.6640	74.6399
 1.6630	74.6615
 1.6620	74.7123
 1.6610	74.7855
 1.6600	74.7754
 1.6590	74.7610
 1.6580	74.8280
 1.6570	74.7009
 1.6560	74.7910
 1.6550	74.7470
 1.6540	74.8181
 1.6530	74.6478
 1.6520	74.8123
 1.6510	74.7343
 1.6500	74.6657
 1.6490	74.6996
 1.6480	74.7286
 1.6470	74.6745
 1.6460	74.5930
 1.6450	74.6748
 1.6440	74.6336
 1.6430	74.6108
 1.6420	74.6959
 1.6410	74.5550
 1.6400	74.7138
 1.6390	74.6305
 1.6380	74.6305
 1.6370	74.6773
 1.6360	74.7029
 1.6350	74.5620
 1.6340	74.6644
 1.6330	74.5719
 1.6320	74.6621
 1.6310	74.5915
 1.6300	74.6110
 1.6290	74.6186
 1.6280	74.6546
 1.6270	74.6027
 1.6260	74.4754
 1.6250	74.4846
 1.6240	74.3889
 1.6230	74.3418
 1.6220	74.4248
 1.6210	74.4024
 1.6200	74.3227
 1.6190	74.2491
 1.6180	74.3434
 1.6170	74.3566
 1.6160	74.5010
 1.6150	74.3319
 1.6140	74.3736
 1.6130	74.3778
 1.6120	74.5374
 1.6110	74.5623
 1.6100	74.5305
 1.6090	74.5527
 1.6080	74.6728
 1.6070	74.6134
 1.6060	74.5805
 1.6050	74.5611
 1.6040	74.5952
 1.6030	74.5949
 1.6020	74.5930
 1.6010	74.5638
 1.6000	74.6033
 1.5990	74.5153
 1.5980	74.5654
 1.5970	74.5510
 1.5960	74.6096
 1.5950	74.4700
 1.5940	74.4859
 1.5930	74.5251
 1.5920	74.5548
 1.5910	74.5000
 1.5900	74.6370
 1.5890	74.5465
 1.5880	74.6383
 1.5870	74.6567
 1.5860	74.6993
 1.5850	74.6476
 1.5840	74.5466
 1.5830	74.5660
 1.5820	74.6255
 1.5810	74.6775
 1.5800	74.6315
 1.5790	74.5982
 1.5780	74.5813
 1.5770	74.5894
 1.5760	74.6263
 1.5750	74.5456
 1.5740	74.5496
 1.5730	74.4651
 1.5720	74.4909
 1.5710	74.4145
 1.5700	74.3921
 1.5690	74.2527
 1.5680	74.2488
 1.5670	74.2160
 1.5660	74.2242
 1.5650	74.1586
 1.5640	74.1157
 1.5630	74.0268
 1.5620	73.8997
 1.5610	73.9194
 1.5600	73.9313
 1.5590	73.7946
 1.5580	73.6934
 1.5570	73.6636
 1.5560	73.5988
 1.5550	73.5187
 1.5540	73.5233
 1.5530	73.4579
 1.5520	73.5110
 1.5510	73.4488
 1.5500	73.3868
 1.5490	73.3840
 1.5480	73.3272
 1.5470	73.2746
 1.5460	73.2150
 1.5450	73.1707
 1.5440	73.1545
 1.5430	73.1483
 1.5420	73.0728
 1.5410	72.9751
 1.5400	72.8780
 1.5390	72.8006
 1.5380	72.7171
 1.5370	72.7149
 1.5360	72.6127
 1.5350	72.5023
 1.5340	72.4444
 1.5330	72.3485
 1.5320	72.2474
 1.5310	72.1753
 1.5300	72.1194
 1.5290	71.9457
 1.5280	71.8314
 1.5270	71.5938
 1.5260	71.4282
 1.5250	71.3045
 1.5240	71.0412
 1.5230	70.8538
 1.5220	70.6078
 1.5210	70.3373
 1.5200	70.0444
 1.5190	69.6533
 1.5180	69.3342
 1.5170	68.9597
 1.5160	68.5536
 1.5150	68.1452
 1.5140	67.6874
 1.5130	67.1885
 1.5120	66.7296
 1.5110	66.1818
 1.5100	65.5738
 1.5090	64.9785
 1.5080	64.3513
 1.5070	63.6582
 1.5060	62.8744
 1.5050	62.0621
 1.5040	61.1233
 1.5030	60.0900
 1.5020	58.9878
 1.5010	57.7671
 1.5000	56.4961
 1.4990	55.1640
 1.4980	53.8459
 1.4970	52.5828
 1.4960	51.4479
 1.4950	50.3560
 1.4940	49.2587
 1.4930	48.2622
 1.4920	47.3801
 1.4910	46.5405
 1.4900	45.7364
 1.4890	45.0100
 1.4880	44.2316
 1.4870	43.3559
 1.4860	42.1650
 1.4850	40.7145
 1.4840	38.9864
 1.4830	36.9973
 1.4820	34.8756
 1.4810	32.7750
 1.4800	30.8359
 1.4790	29.2387
 1.4780	28.1158
 1.4770	27.6952
 1.4760	27.9338
 1.4750	29.0327
 1.4740	30.7698
 1.4730	33.0925
 1.4720	35.8328
 1.4710	38.7569
 1.4700	41.6311
 1.4690	44.3465
 1.4680	46.8099
 1.4670	49.1784
 1.4660	51.2882
 1.4650	53.0605
 1.4640	54.6825
 1.4630	56.1103
 1.4620	57.1590
 1.4610	58.0166
 1.4600	58.7110
 1.4590	59.1813
 1.4580	59.4700
 1.4570	59.7803
 1.4560	60.0875
 1.4550	60.4818
 1.4540	60.7760
 1.4530	61.2239
 1.4520	61.6083
 1.4510	62.0958
 1.4500	62.4957
 1.4490	62.9405
 1.4480	63.2922
 1.4470	63.6537
 1.4460	63.9363
 1.4450	64.2554
 1.4440	64.4460
 1.4430	64.6544
 1.4420	64.7413
 1.4410	64.8701
 1.4400	64.8756
 1.4390	64.7784
 1.4380	64.5134
 1.4370	64.2501
 1.4360	63.9735
 1.4350	63.8738
 1.4340	63.9319
 1.4330	64.3342
 1.4320	65.1231
 1.4310	66.1996
 1.4300	67.2154
 1.4290	68.1249
 1.4280	68.8820
 1.4270	69.5465
 1.4260	69.9689
 1.4250	70.3511
 1.4240	70.6035
 1.4230	70.8175
 1.4220	71.0868
 1.4210	71.3547
 1.4200	71.4890
 1.4190	71.6826
 1.4180	71.7583
 1.4170	71.9380
 1.4160	72.1675
 1.4150	72.1940
 1.4140	72.2594
 1.4130	72.3814
 1.4120	72.5126
 1.4110	72.6617
 1.4100	72.6979
 1.4090	72.7117
 1.4080	72.7952
 1.4070	72.9387
 1.4060	73.0677
 1.4050	73.2457
 1.4040	73.2598
 1.4030	73.4697
 1.4020	73.4928
 1.4010	73.6832
 1.4000	73.8230
 1.3990	73.9957
 1.3980	74.1044
 1.3970	74.2780
 1.3960	74.3655
 1.3950	74.4885
 1.3940	74.5905
 1.3930	74.6986
 1.3920	74.8456
 1.3910	74.9193
 1.3900	74.9386
 1.3890	75.0422
 1.3880	75.1597
 1.3870	75.1675
 1.3860	75.1686
 1.3850	75.2904
 1.3840	75.3462
 1.3830	75.2446
 1.3820	75.3574
 1.3810	75.4190
 1.3800	75.4700
 1.3790	75.6090
 1.3780	75.5748
 1.3770	75.6905
 1.3760	75.5892
 1.3750	75.6863
 1.3740	75.6729
 1.3730	75.7964
 1.3720	75.7215
 1.3710	75.7398
 1.3700	75.7868
 1.3690	75.8131
 1.3680	75.7788
 1.3670	75.7939
 1.3660	75.9151
 1.3650	75.9533
 1.3640	75.8433
 1.3630	75.9027
 1.3620	75.9196
 1.3610	75.9131
 1.3600	75.9088
 1.3590	75.9864
 1.3580	75.9297
 1.3570	76.0079
 1.3560	76.0961
 1.3550	75.9258
 1.3540	76.0894
 1.3530	76.0604
 1.3520	75.9919
 1.3510	76.0496
 1.3500	76.1269
 1.3490	75.9425
 1.3480	76.0146
 1.3470	76.1351
 1.3460	75.9508
 1.3450	75.9221
 1.3440	75.8508
 1.3430	75.8976
 1.3420	75.8321
 1.3410	75.8981
 1.3400	75.7481
 1.3390	75.8360
 1.3380	75.6250
 1.3370	75.6266
 1.3360	75.4424
 1.3350	75.4489
 1.3340	75.3777
 1.3330	75.2353
 1.3320	75.1251
 1.3310	75.1172
 1.3300	75.0095
 1.3290	74.9784
 1.3280	74.9163
 1.3270	74.9383
 1.3260	74.7936
 1.3250	74.7732
 1.3240	74.6627
 1.3230	74.6116
 1.3220	74.5839
 1.3210	74.5215
 1.3200	74.5358
 1.3190	74.4955
 1.3180	74.4512
 1.3170	74.5039
 1.3160	74.5996
 1.3150	74.5236
 1.3140	74.3679
 1.3130	74.2581
 1.3120	73.9948
 1.3110	73.8581
 1.3100	73.4640
 1.3090	73.1717
 1.3080	72.8361
 1.3070	72.6180
 1.3060	72.3526
 1.3050	72.1802
 1.3040	72.1141
 1.3030	72.0703
 1.3020	72.1160
 1.3010	72.3941
 1.3000	72.5265
 1.2990	72.7538
 1.2980	72.9583
 1.2970	73.1691
 1.2960	73.1805
 1.2950	73.1117
 1.2940	72.9942
 1.2930	72.7156
 1.2920	72.4175
 1.2910	72.1447
 1.2900	71.7654
 1.2890	71.5184
 1.2880	71.3207
 1.2870	71.1646
 1.2860	71.1995
 1.2850	71.4237
 1.2840	71.7612
 1.2830	72.2107
 1.2820	72.7440
 1.2810	73.3186
 1.2800	73.7300
 1.2790	74.1102
 1.2780	74.4521
 1.2770	74.7183
 1.2760	75.0387
 1.2750	75.1699
 1.2740	75.2370
 1.2730	75.3192
 1.2720	75.3295
 1.2710	75.3970
 1.2700	75.4250
 1.2690	75.5615
 1.2680	75.6335
 1.2670	75.6651
 1.2660	75.6926
 1.2650	75.8045
 1.2640	75.8920
 1.2630	75.9508
 1.2620	75.9415
 1.2610	75.9636
 1.2600	76.0443
 1.2590	76.0303
 1.2580	76.0517
 1.2570	76.0968
 1.2560	76.0587
 1.2550	76.0592
 1.2540	76.0674
 1.2530	76.0988
 1.2520	76.1113
 1.2510	76.1235
 1.2500	76.1705
 1.2490	76.1536
 1.2480	76.1468
 1.2470	76.0861
 1.2460	76.1241
 1.2450	76.1163
 1.2440	76.1156
 1.2430	76.1387
 1.2420	76.1299
 1.2410	76.0964
 1.2400	76.1130
 1.2390	76.1329
 1.2380	76.1120
 1.2370	76.1142
 1.2360	76.0634
 1.2350	76.0254
 1.2340	76.0572
 1.2330	76.0653
 1.2320	76.0914
 1.2310	76.0802
 1.2300	76.0249
 1.2290	75.9902
 1.2280	75.9798
 1.2270	75.9960
 1.2260	75.9893
 1.2250	75.9405
 1.2240	75.8971
 1.2230	75.9009
 1.2220	75.8421
 1.2210	75.8559
 1.2200	75.9046
 1.2190	75.8644
 1.2180	75.8190
 1.2170	75.7871
 1.2160	75.7444
 1.2150	75.7184
 1.2140	75.7216
 1.2130	75.7495
 1.2120	75.7548
 1.2110	75.7264
 1.2100	75.7037
 1.2090	75.6627
 1.2080	75.6934
 1.2070	75.7439
 1.2060	75.7577
 1.2050	75.8207
 1.2040	75.7890
 1.2030	75.6996
 1.2020	75.6763
 1.2010	75.6998
 1.2000	75.7436
 1.1990	75.7047
 1.1980	75.7029
 1.1970	75.6941
 1.1960	75.6917
 1.1950	75.6648
 1.1940	75.7118
 1.1930	75.7389
 1.1920	75.6488
 1.1910	75.6344
 1.1900	75.6604
 1.1890	75.6719
 1.1880	75.6444
 1.1870	75.6894
 1.1860	75.6921
 1.1850	75.5810
 1.1840	75.5893
 1.1830	75.6936
 1.1820	75.6712
 1.1810	75.5773
 1.1800	75.5764
 1.1790	75.5163
 1.1780	75.5582
 1.1770	75.5848
 1.1760	75.5899
 1.1750	75.4917
 1.1740	75.4743
 1.1730	75.4103
 1.1720	75.4448
 1.1710	75.4652
 1.1700	75.4762
 1.1690	75.3681
 1.1680	75.3833
 1.1670	75.3429
 1.1660	75.3850
 1.1650	75.3091
 1.1640	75.2626
 1.1630	75.2453
 1.1620	75.1949
 1.1610	75.1900
 1.1600	75.2387
 1.1590	75.2478
 1.1580	75.1513
 1.1570	75.1041
 1.1560	75.1154
 1.1550	75.2277
 1.1540	75.2076
 1.1530	75.1838
 1.1520	75.1928
 1.1510	75.2040
 1.1500	75.1499
 1.1490	75.2357
 1.1480	75.1904
 1.1470	75.1885
 1.1460	75.1383
 1.1450	75.1512
 1.1440	75.1184
 1.1430	75.0631
 1.1420	75.1074
 1.1410	75.0702
 1.1400	75.0684
 1.1390	75.1038
 1.1380	75.0584
 1.1370	75.0527
 1.1360	75.0793
 1.1350	75.0297
 1.1340	75.0728
 1.1330	75.0180
 1.1320	75.1059
 1.1310	75.0611
 1.1300	75.0584
 1.1290	74.9951
 1.1280	75.0247
 1.1270	75.0308
 1.1260	75.0229
 1.1250	75.0058
 1.1240	75.0879
 1.1230	75.0267
 1.1220	75.0291
 1.1210	74.9928
 1.1200	74.9524
 1.1190	74.9414
 1.1180	74.9016
 1.1170	74.8758
 1.1160	74.9838
 1.1150	74.9128
 1.1140	74.9188
 1.1130	74.8848
 1.1120	74.8208
 1.1110	74.8095
 1.1100	74.8729
 1.1090	74.7841
 1.1080	74.7795
 1.1070	74.7354
 1.1060	74.6707
 1.1050	74.7683
 1.1040	74.7428
 1.1030	74.6294
 1.1020	74.6038
 1.1010	74.6386
 1.1000	74.6505
 1.0990	74.6699
 1.0980	74.5522
 1.0970	74.6087
 1.0960	74.6649
 1.0950	74.5772
 1.0940	74.5966
 1.0930	74.5441
 1.0920	74.5248
 1.0910	74.4644
 1.0900	74.5281
 1.0890	74.5155
 1.0880	74.3189
 1.0870	74.4017
 1.0860	74.4443
 1.0850	74.4653
 1.0840	74.4471
 1.0830	74.3199
 1.0820	74.4121
 1.0810	74.3784
 1.0800	74.3264
 1.0790	74.3282
 1.0780	74.2844
 1.0770	74.2363
 1.0760	74.3059
 1.0750	74.1849
 1.0740	74.1569
 1.0730	74.2046
 1.0720	74.1881
 1.0710	74.1784
 1.0700	74.1092
 1.0690	74.0968
 1.0680	74.0736
 1.0670	74.1288
 1.0660	74.0933
 1.0650	73.9708
 1.0640	73.9928
 1.0630	73.9518
 1.0620	73.9850
 1.0610	73.9145
 1.0600	73.9747
 1.0590	73.9421
 1.0580	73.9095
 1.0570	73.8708
 1.0560	73.8115
 1.0550	73.7763
 1.0540	73.8986
 1.0530	73.7562
 1.0520	73.7624
 1.0510	73.7661
 1.0500	73.7476
 1.0490	73.6790
 1.0480	73.7818
 1.0470	73.5701
 1.0460	73.6421
 1.0450	73.6327
 1.0440	73.5861
 1.0430	73.5500
 1.0420	73.6071
 1.0410	73.4738
 1.0400	73.4175
 1.0390	73.3477
 1.0380	73.3392
 1.0370	73.2904
 1.0360	73.2681
 1.0350	73.1638
 1.0340	73.1978
 1.0330	73.0876
 1.0320	72.9873
 1.0310	72.9027
 1.0300	72.8992
 1.0290	72.7173
 1.0280	72.5853
 1.0270	72.5244
 1.0260	72.5479
 1.0250	72.3288
 1.0240	72.3362
 1.0230	72.2698
 1.0220	72.0838
 1.0210	71.9377
 1.0200	71.7524
 1.0190	71.6087
 1.0180	71.4514
 1.0170	71.2954
 1.0160	71.1739
 1.0150	71.1598
 1.0140	71.0962
 1.0130	71.1999
 1.0120	71.2740
 1.0110	71.2988
 1.0100	71.3716
 1.0090	71.4663
 1.0080	71.6111
 1.0070	71.6453
 1.0060	71.7720
 1.0050	71.8203
 1.0040	71.8972
 1.0030	71.9564
 1.0020	71.9878
 1.0010	71.9819
 1.0000	72.0692
 0.9990	72.0541
 0.9980	72.1261
 0.9970	72.1864
 0.9960	72.2538
 0.9950	72.2941
 0.9940	72.2732
 0.9930	72.2694
 0.9920	72.3115
 0.9910	72.3320
 0.9900	72.3783
 0.9890	72.3841
 0.9880	72.4179
 0.9870	72.4367
 0.9860	72.4833
 0.9850	72.4830
 0.9840	72.5314
 0.9830	72.5308
 0.9820	72.4968
 0.9810	72.4697
 0.9800	72.4735
 0.9790	72.5094
 0.9780	72.5711
 0.9770	72.6149
 0.9760	72.5850
 0.9750	72.5318
 0.9740	72.5867
 0.9730	72.5881
 0.9720	72.6237
 0.9710	72.5979
 0.9700	72.6031
 0.9690	72.6240
 0.9680	72.6663
 0.9670	72.6329
 0.9660	72.6157
 0.9650	72.5898
 0.9640	72.6185
 0.9630	72.6840
 0.9620	72.6531
 0.9610	72.6520
 0.9600	72.6912
 0.9590	72.7214
 0.9580	72.7400
 0.9570	72.7659
 0.9560	72.7489
 0.9550	72.7416
 0.9540	72.7503
 0.9530	72.7277
 0.9520	72.6873
 0.9510	72.7362
 0.9500	72.8270
 0.9490	72.8336
 0.9480	72.7560
 0.9470	72.6789
 0.9460	72.7376
 0.9450	72.7850
 0.9440	72.7590
 0.9430	72.7792
 0.9420	72.7365
 0.9410	72.7174
 0.9400	72.7244
 0.9390	72.6909
 0.9380	72.7177
 0.9370	72.7698
 0.9360	72.7697
 0.9350	72.7429
 0.9340	72.7337
 0.9330	72.7857
 0.9320	72.7469
 0.9310	72.6874
 0.9300	72.7223
 0.9290	72.7692
 0.9280	72.7926
 0.9270	72.7820
 0.9260	72.7670
 0.9250	72.7399
 0.9240	72.7972
 0.9230	72.8460
 0.9220	72.7660
 0.9210	72.7762
 0.9200	72.8417
 0.9190	72.8466
 0.9180	72.8699
 0.9170	72.8932
 0.9160	72.8869
 0.9150	72.9587
 0.9140	73.0265
 0.9130	73.0140
 0.9120	73.0446
 0.9110	73.0934
 0.9100	73.0888
 0.9090	73.0969
 0.9080	73.1336
 0.9070	73.1715
 0.9060	73.1663
 0.9050	73.1852
 0.9040	73.2251
 0.9030	73.2361
 0.9020	73.1972
 0.9010	73.2474
 0.9000	73.2613
 0.8990	73.3267
 0.8980	73.3148
 0.8970	73.2910
 0.8960	73.3217
 0.8950	73.3305
 0.8940	73.3445
 0.8930	73.3376
 0.8920	73.3548
 0.8910	73.4082
 0.8900	73.3550
 0.8890	73.4124
 0.8880	73.4280
 0.8870	73.4863
 0.8860	73.4158
 0.8850	73.4595
 0.8840	73.5064
 0.8830	73.5247
 0.8820	73.5815
 0.8810	73.6087
 0.8800	73.6433
 0.8790	73.6377
 0.8780	73.5605
 0.8770	73.6847
 0.8760	73.7637
 0.8750	73.7047
 0.8740	73.6809
 0.8730	73.7411
 0.8720	73.7549
 0.8710	73.8016
 0.8700	73.8105
 0.8690	73.8462
 0.8680	73.8048
 0.8670	73.8375
 0.8660	73.8774
 0.8650	73.9203
 0.8640	73.8655
 0.8630	73.9691
 0.8620	74.0360
 0.8610	73.9855
 0.8600	73.8540
 0.8590	73.7053
 0.8580	73.7677
 0.8570	73.9160
 0.8560	73.8277
 0.8550	73.7954
 0.8540	73.8927
 0.8530	73.9269
 0.8520	73.9221
 0.8510	74.0374
 0.8500	74.0287
 0.8490	73.9968
 0.8480	74.0591
 0.8470	74.0922
 0.8460	74.1195
 0.8450	74.0876
 0.8440	74.2153
 0.8430	74.2004
 0.8420	74.2926
 0.8410	74.2971
 0.8400	74.3254
 0.8390	74.3463
 0.8380	74.3995
 0.8370	74.3912
 0.8360	74.4431
 0.8350	74.4503
 0.8340	74.5369
 0.8330	74.5356
 0.8320	74.5785
 0.8310	74.6508
 0.8300	74.6461
 0.8290	74.7372
 0.8280	74.7268
 0.8270	74.7785
 0.8260	74.7824
 0.8250	74.8179
 0.8240	74.8692
 0.8230	74.9186
 0.8220	74.9354
 0.8210	74.9399
 0.8200	74.9871
 0.8190	75.0236
 0.8180	75.0783
 0.8170	75.1247
 0.8160	75.0665
 0.8150	75.1051
 0.8140	75.1725
 0.8130	75.2100
 0.8120	75.2863
 0.8110	75.2693
 0.8100	75.2795
 0.8090	75.3028
 0.8080	75.3157
 0.8070	75.3855
 0.8060	75.3972
 0.8050	75.3933
 0.8040	75.5083
 0.8030	75.5075
 0.8020	75.4843
 0.8010	75.5552
 0.8000	75.5616
 0.7990	75.5630
 0.7980	75.5676
 0.7970	75.5731
 0.7960	75.5942
 0.7950	75.6107
 0.7940	75.6093
 0.7930	75.5913
 0.7920	75.6437
 0.7910	75.6709
 0.7900	75.6858
 0.7890	75.6475
 0.7880	75.7085
 0.7870	75.7037
 0.7860	75.6943
 0.7850	75.7494
 0.7840	75.7813
 0.7830	75.7612
 0.7820	75.7982
 0.7810	75.7792
 0.7800	75.7907
 0.7790	75.8129
 0.7780	75.7950
 0.7770	75.8678
 0.7760	75.8871
 0.7750	75.8939
 0.7740	75.9479
 0.7730	75.9371
 0.7720	75.9523
 0.7710	75.9767
 0.7700	76.0139
 0.7690	76.0237
 0.7680	76.0623
 0.7670	76.0847
 0.7660	76.0658
 0.7650	76.0595
 0.7640	76.1033
 0.7630	76.1455
 0.7620	76.1684
 0.7610	76.1907
 0.7600	76.2068
 0.7590	76.2003
 0.7580	76.1817
 0.7570	76.2087
 0.7560	76.2479
 0.7550	76.2631
 0.7540	76.2643
 0.7530	76.2700
 0.7520	76.2789
 0.7510	76.2582
 0.7500	76.2712
 0.7490	76.2715
 0.7480	76.2787
 0.7470	76.3260
 0.7460	76.3224
 0.7450	76.3041
 0.7440	76.3600
 0.7430	76.3214
 0.7420	76.2866
 0.7410	76.3105
 0.7400	76.3374
 0.7390	76.3329
 0.7380	76.3344
 0.7370	76.3083
 0.7360	76.3363
 0.7350	76.3130
 0.7340	76.2965
 0.7330	76.2963
 0.7320	76.2948
 0.7310	76.2946
 0.7300	76.2825
 0.7290	76.2633
 0.7280	76.2624
 0.7270	76.2486
 0.7260	76.2593
 0.7250	76.2228
 0.7240	76.2188
 0.7230	76.2367
 0.7220	76.2163
 0.7210	76.2160
 0.7200	76.1838
 0.7190	76.1770
 0.7180	76.1641
 0.7170	76.1335
 0.7160	76.1453
 0.7150	76.1089
 0.7140	76.1118
 0.7130	76.1099
 0.7120	76.0647
 0.7110	76.0517
 0.7100	76.0591
 0.7090	76.0166
 0.7080	75.9931
 0.7070	75.9835
 0.7060	75.9736
 0.7050	75.9532
 0.7040	75.9159
 0.7030	75.9184
 0.7020	75.8722
 0.7010	75.8589
 0.7000	75.8435
 0.6990	75.8302
 0.6980	75.7910
 0.6970	75.7800
 0.6960	75.7480
 0.6950	75.7411
 0.6940	75.7222
 0.6930	75.7054
 0.6920	75.6885
 0.6910	75.6521
 0.6900	75.6229
 0.6890	75.6145
 0.6880	75.5638
 0.6870	75.5386
 0.6860	75.5122
 0.6850	75.5035
 0.6840	75.4814
 0.6830	75.4694
 0.6820	75.4483
 0.6810	75.4128
 0.6800	75.4018
 0.6790	75.3795
 0.6780	75.3572
 0.6770	75.3273
 0.6760	75.3015
 0.6750	75.2851
 0.6740	75.2550
 0.6730	75.2379
 0.6720	75.2184
 0.6710	75.1770
 0.6700	75.1717
 0.6690	75.1700
 0.6680	75.1563
 0.6670	75.1320
 0.6660	75.1100
 0.6650	75.0704
 0.6640	75.0626
 0.6630	75.0654
 0.6620	75.0362
 0.6610	75.0091
 0.6600	74.9871
 0.6590	74.9562
 0.6580	74.9377
 0.6570	74.9228
 0.6560	74.9045
 0.6550	74.8814
 0.6540	74.8617
 0.6530	74.8292
 0.6520	74.8173
 0.6510	74.8128
 0.6500	74.7928
 0.6490	74.7701
 0.6480	74.7454
 0.6470	74.7210
 0.6460	74.6856
 0.6450	74.6656
 0.6440	74.6549
 0.6430	74.6420
 0.6420	74.6321
 0.6410	74.6142
 0.6400	74.5859
 0.6390	74.5607
 0.6380	74.5533
 0.6370	74.5402
 0.6360	74.5251
 0.6350	74.5140
 0.6340	74.5021
 0.6330	74.4909
 0.6320	74.4765
 0.6310	74.4616
 0.6300	74.4402
 0.6290	74.4203
 0.6280	74.4034
 0.6270	74.3908
 0.6260	74.3938
 0.6250	74.3837
 0.6240	74.3602
 0.6230	74.3410
 0.6220	74.3461
 0.6210	74.3285
 0.6200	74.2949
 0.6190	74.3087
 0.6180	74.3028
 0.6170	74.2867
 0.6160	74.2828
 0.6150	74.2723
 0.6140	74.2709
 0.6130	74.2651
 0.6120	74.2658
 0.6110	74.2588
 0.6100	74.2686
 0.6090	74.2719
 0.6080	74.2671
 0.6070	74.2645
 0.6060	74.2765
 0.6050	74.2850
 0.6040	74.2864
 0.6030	74.3001
 0.6020	74.3139
 0.6010	74.3167
 0.6000	74.3303
 0.5990	74.3496
 0.5980	74.3747
 0.5970	74.4135
 0.5960	74.4528
 0.5950	74.4849
 0.5940	74.5065
 0.5930	74.5189
 0.5920	74.5399
 0.5910	74.5678
 0.5900	74.5903
 0.5890	74.6044
 0.5880	74.6274
 0.5870	74.6752
 0.5860	74.6983
 0.5850	74.7302
 0.5840	74.7511
 0.5830	74.7777
 0.5820	74.8080
 0.5810	74.8462
 0.5800	74.8685
 0.5790	74.9223
 0.5780	74.9677
 0.5770	74.9925
 0.5760	75.0261
 0.5750	75.0756
 0.5740	75.1125
 0.5730	75.1493
 0.5720	75.1811
 0.5710	75.2209
 0.5700	75.2534
 0.5690	75.3035
 0.5680	75.3356
 0.5670	75.3731
 0.5660	75.4228
 0.5650	75.4589
 0.5640	75.4883
 0.5630	75.5373
 0.5620	75.5879
 0.5610	75.5916
 0.5600	75.6022
 0.5590	75.6467
 0.5580	75.7048
 0.5570	75.7201
 0.5560	75.7776
 0.5550	75.7916
 0.5540	75.8176
 0.5530	75.8698
 0.5520	75.9123
 0.5510	75.9385
 0.5500	75.9778
 0.5490	76.0228
 0.5480	76.0430
 0.5470	76.0579
 0.5460	76.0930
 0.5450	76.1288
 0.5440	76.1485
 0.5430	76.1821
 0.5420	76.2182
 0.5410	76.2474
 0.5400	76.2543
 0.5390	76.2795
 0.5380	76.2835
 0.5370	76.3298
 0.5360	76.3354
 0.5350	76.3567
 0.5340	76.3838
 0.5330	76.3866
 0.5320	76.4362
 0.5310	76.4279
 0.5300	76.4353
 0.5290	76.4561
 0.5280	76.4613
 0.5270	76.4815
 0.5260	76.4735
 0.5250	76.4892
 0.5240	76.4996
 0.5230	76.4992
 0.5220	76.4800
 0.5210	76.5030
 0.5200	76.5117
 0.5190	76.4780
 0.5180	76.4891
 0.5170	76.4782
 0.5160	76.4665
 0.5150	76.4814
 0.5140	76.4723
 0.5130	76.4469
 0.5120	76.4418
 0.5110	76.4321
 0.5100	76.3909
 0.5090	76.3966
 0.5080	76.3577
 0.5070	76.3421
 0.5060	76.3025
 0.5050	76.2813
 0.5040	76.2449
 0.5030	76.2217
 0.5020	76.1854
 0.5010	76.1508
 0.5000	76.1127
 0.4990	76.0566
 0.4980	76.0312
 0.4970	75.9928
 0.4960	75.9470
 0.4950	75.8947
 0.4940	75.8492
 0.4930	75.8048
 0.4920	75.7521
 0.4910	75.6964
 0.4900	75.6456
 0.4890	75.6053
 0.4880	75.5364
 0.4870	75.4692
 0.4860	75.4095
 0.4850	75.3442
 0.4840	75.2674
 0.4830	75.2050
 0.4820	75.1864
 0.4810	75.1334
 0.4800	75.0839
 0.4790	75.0522
 0.4780	74.9934
 0.4770	74.9656
 0.4760	74.8959
 0.4750	74.8307
 0.4740	74.7599
 0.4730	74.6722
 0.4720	74.5985
 0.4710	74.5129
 0.4700	74.4486
 0.4690	74.3598
 0.4680	74.2865
 0.4670	74.1817
 0.4660	74.0806
 0.4650	74.0018
 0.4640	73.9163
 0.4630	73.8026
 0.4620	73.6757
 0.4610	73.5618
 0.4600	73.4411
 0.4590	73.3093
 0.4580	73.1729
 0.4570	73.0208
 0.4560	72.8705
 0.4550	72.6889
 0.4540	72.5345
 0.4530	72.3348
 0.4520	72.1324
 0.4510	71.8986
 0.4500	71.6472
 0.4490	71.3684
 0.4480	71.0626
 0.4470	70.6943
 0.4460	70.3244
 0.4450	69.8824
 0.4440	69.4599
 0.4430	69.0219
 0.4420	68.5956
 0.4410	68.1684
 0.4400	67.7052
 0.4390	67.2199
 0.4380	66.6675
 0.4370	66.1262
 0.4360	65.4998
 0.4350	64.8688
 0.4340	64.2478
 0.4330	63.6503
 0.4320	63.1531
 0.4310	62.7772
 0.4300	62.5000
 0.4290	62.3421
 0.4280	62.2632
 0.4270	62.2487
 0.4260	62.2669
 0.4250	62.3480
 0.4240	62.4704
 0.4230	62.6301
 0.4220	62.8178
 0.4210	63.0422
 0.4200	63.2900
 0.4190	63.5655
 0.4180	63.8490
 0.4170	64.0865
 0.4160	64.3075
 0.4150	64.5063
 0.4140	64.6963
 0.4130	64.8648
 0.4120	64.9987
 0.4110	65.1034
 0.4100	65.1866
 0.4090	65.2290
 0.4080	65.2462
 0.4070	65.2031
 0.4060	65.1794
 0.4050	65.1524
 0.4040	65.0788
 0.4030	65.0184
 0.4020	64.9322
 0.4010	64.8192
 0.4000	64.6891
