Name: Triphylite Li(Mn,Fe)PO_4
Type: Mineral
Class: Phosphate
Subclass: None
Particle Size: Coarse
Sample No.: P-4A
Owner: JPL
Wavelength Range: VSWIR
Origin: USA, New Hampshire, North Graton, Palermo Mine.
Collection Date: N/A
Description: Particle size was 125-500um. Collected by:  Burminco Original ASTER Spectral Library name was jpl.perkin.mineral.phosphate.none.coarse.p04a.spectrum.txt
Measurement: Hemispherical reflectance
First Column: X
Second Column: Y
X Units: Wavelength (micrometers)
Y Units:Reflectance (percent)
First X Value:  2.5000
Last X Value:  0.4000
Number of X Values: 2101
Additional Information: mineral.phosphate.none.coarse.vswir.p-4a.jpl.perkin.ancillary.txt

 2.5000	56.5497
 2.4990	56.3909
 2.4980	56.3884
 2.4970	56.5666
 2.4960	56.5331
 2.4950	56.6457
 2.4940	56.6295
 2.4930	56.6137
 2.4920	56.8095
 2.4910	56.7538
 2.4900	56.9840
 2.4890	56.8706
 2.4880	56.9216
 2.4870	56.9754
 2.4860	57.1687
 2.4850	57.1553
 2.4840	57.3364
 2.4830	57.3556
 2.4820	57.4495
 2.4810	57.4547
 2.4800	57.5121
 2.4790	57.4283
 2.4780	57.7031
 2.4770	57.6903
 2.4760	57.8185
 2.4750	57.8665
 2.4740	57.8502
 2.4730	57.9213
 2.4720	58.0400
 2.4710	58.0484
 2.4700	58.0832
 2.4690	58.1576
 2.4680	58.3384
 2.4670	58.3754
 2.4660	58.3845
 2.4650	58.4384
 2.4640	58.5621
 2.4630	58.5519
 2.4620	58.6969
 2.4610	58.7653
 2.4600	58.8045
 2.4590	58.9307
 2.4580	59.0623
 2.4570	58.9499
 2.4560	59.0839
 2.4550	59.0646
 2.4540	59.2068
 2.4530	59.2404
 2.4520	59.3102
 2.4510	59.4253
 2.4500	59.3671
 2.4490	59.4663
 2.4480	59.5549
 2.4470	59.6049
 2.4460	59.5423
 2.4450	59.6091
 2.4440	59.6978
 2.4430	59.7728
 2.4420	59.7743
 2.4410	59.8638
 2.4400	59.9791
 2.4390	60.0131
 2.4380	60.1385
 2.4370	60.1636
 2.4360	60.1268
 2.4350	60.2236
 2.4340	60.3300
 2.4330	60.4196
 2.4320	60.4047
 2.4310	60.5598
 2.4300	60.5135
 2.4290	60.5460
 2.4280	60.7111
 2.4270	60.6982
 2.4260	60.7233
 2.4250	60.7972
 2.4240	60.9360
 2.4230	60.8693
 2.4220	60.9687
 2.4210	61.0107
 2.4200	61.0952
 2.4190	61.1487
 2.4180	61.1300
 2.4170	61.2352
 2.4160	61.2983
 2.4150	61.2741
 2.4140	61.3544
 2.4130	61.3791
 2.4120	61.4392
 2.4110	61.4355
 2.4100	61.4973
 2.4090	61.5408
 2.4080	61.7038
 2.4070	61.6588
 2.4060	61.6651
 2.4050	61.6503
 2.4040	61.7289
 2.4030	61.7532
 2.4020	61.7832
 2.4010	61.8630
 2.4000	61.9360
 2.3990	61.9473
 2.3980	61.9623
 2.3970	61.9292
 2.3960	62.0771
 2.3950	62.1833
 2.3940	62.2122
 2.3930	62.1961
 2.3920	62.2195
 2.3910	62.3497
 2.3900	62.4153
 2.3890	62.3958
 2.3880	62.4127
 2.3870	62.4285
 2.3860	62.5381
 2.3850	62.6428
 2.3840	62.6730
 2.3830	62.6861
 2.3820	62.7349
 2.3810	62.7312
 2.3800	62.7841
 2.3790	62.8199
 2.3780	62.8660
 2.3770	62.9448
 2.3760	62.9764
 2.3750	62.9865
 2.3740	63.0326
 2.3730	63.0567
 2.3720	63.0729
 2.3710	63.1614
 2.3700	63.2417
 2.3690	63.3053
 2.3680	63.3344
 2.3670	63.3389
 2.3660	63.4042
 2.3650	63.4395
 2.3640	63.4525
 2.3630	63.5033
 2.3620	63.5931
 2.3610	63.6402
 2.3600	63.6880
 2.3590	63.7193
 2.3580	63.7048
 2.3570	63.7877
 2.3560	63.8960
 2.3550	63.9006
 2.3540	63.9133
 2.3530	63.9910
 2.3520	64.0056
 2.3510	64.0320
 2.3500	64.0685
 2.3490	64.1005
 2.3480	64.0981
 2.3470	64.1094
 2.3460	64.1626
 2.3450	64.1981
 2.3440	64.2795
 2.3430	64.3323
 2.3420	64.3138
 2.3410	64.3745
 2.3400	64.4076
 2.3390	64.3989
 2.3380	64.3996
 2.3370	64.4346
 2.3360	64.4537
 2.3350	64.5172
 2.3340	64.5320
 2.3330	64.5495
 2.3320	64.4966
 2.3310	64.5403
 2.3300	64.6271
 2.3290	64.6080
 2.3280	64.6582
 2.3270	64.6601
 2.3260	64.6375
 2.3250	64.7090
 2.3240	64.7254
 2.3230	64.7285
 2.3220	64.7058
 2.3210	64.7373
 2.3200	64.7350
 2.3190	64.7823
 2.3180	64.8085
 2.3170	64.7811
 2.3160	64.7781
 2.3150	64.8384
 2.3140	64.8740
 2.3130	64.8485
 2.3120	64.8806
 2.3110	64.8957
 2.3100	64.8158
 2.3090	64.9131
 2.3080	64.9869
 2.3070	65.0453
 2.3060	65.0184
 2.3050	65.0476
 2.3040	64.9654
 2.3030	64.9802
 2.3020	65.0142
 2.3010	65.0151
 2.3000	64.9954
 2.2990	65.0318
 2.2980	65.0373
 2.2970	65.0330
 2.2960	65.0121
 2.2950	65.0209
 2.2940	65.0254
 2.2930	65.0373
 2.2920	65.0606
 2.2910	65.1033
 2.2900	65.0902
 2.2890	65.0922
 2.2880	65.0347
 2.2870	65.0741
 2.2860	65.0556
 2.2850	65.0674
 2.2840	65.0321
 2.2830	65.0590
 2.2820	65.0127
 2.2810	65.0590
 2.2800	65.0525
 2.2790	65.0827
 2.2780	65.0384
 2.2770	65.0498
 2.2760	65.0355
 2.2750	65.1134
 2.2740	65.0474
 2.2730	65.0827
 2.2720	65.0620
 2.2710	65.0781
 2.2700	65.0144
 2.2690	65.0456
 2.2680	65.0326
 2.2670	65.0423
 2.2660	64.9960
 2.2650	65.0311
 2.2640	64.9751
 2.2630	65.0239
 2.2620	65.0280
 2.2610	65.0196
 2.2600	65.0117
 2.2590	65.0589
 2.2580	64.9856
 2.2570	65.0454
 2.2560	64.9668
 2.2550	64.9645
 2.2540	64.9814
 2.2530	65.0018
 2.2520	64.9245
 2.2510	64.9575
 2.2500	64.9239
 2.2490	64.8932
 2.2480	64.8798
 2.2470	64.9424
 2.2460	64.8491
 2.2450	64.8933
 2.2440	64.8778
 2.2430	64.8846
 2.2420	64.8061
 2.2410	64.8027
 2.2400	64.7675
 2.2390	64.8341
 2.2380	64.7972
 2.2370	64.8251
 2.2360	64.7703
 2.2350	64.8346
 2.2340	64.7646
 2.2330	64.7811
 2.2320	64.7647
 2.2310	64.7469
 2.2300	64.7143
 2.2290	64.7512
 2.2280	64.7212
 2.2270	64.6993
 2.2260	64.6667
 2.2250	64.7094
 2.2240	64.6218
 2.2230	64.7365
 2.2220	64.6445
 2.2210	64.6527
 2.2200	64.5282
 2.2190	64.6652
 2.2180	64.6185
 2.2170	64.6242
 2.2160	64.5889
 2.2150	64.6010
 2.2140	64.6110
 2.2130	64.6120
 2.2120	64.5941
 2.2110	64.4576
 2.2100	64.5408
 2.2090	64.5514
 2.2080	64.5098
 2.2070	64.5597
 2.2060	64.5050
 2.2050	64.5172
 2.2040	64.4455
 2.2030	64.4822
 2.2020	64.4569
 2.2010	64.5263
 2.2000	64.4485
 2.1990	64.4647
 2.1980	64.4180
 2.1970	64.4482
 2.1960	64.3100
 2.1950	64.3275
 2.1940	64.2247
 2.1930	64.2965
 2.1920	64.2359
 2.1910	64.2920
 2.1900	64.2666
 2.1890	64.1878
 2.1880	64.1032
 2.1870	64.1378
 2.1860	64.0723
 2.1850	64.1145
 2.1840	64.0906
 2.1830	64.0908
 2.1820	64.0869
 2.1810	64.0477
 2.1800	63.9860
 2.1790	64.0023
 2.1780	63.9431
 2.1770	63.8667
 2.1760	63.8786
 2.1750	63.9010
 2.1740	63.8398
 2.1730	63.8250
 2.1720	63.7752
 2.1710	63.8626
 2.1700	63.7572
 2.1690	63.7945
 2.1680	63.7306
 2.1670	63.6972
 2.1660	63.6012
 2.1650	63.6700
 2.1640	63.6656
 2.1630	63.5889
 2.1620	63.5888
 2.1610	63.5299
 2.1600	63.4823
 2.1590	63.4799
 2.1580	63.3861
 2.1570	63.4540
 2.1560	63.4472
 2.1550	63.3269
 2.1540	63.2641
 2.1530	63.2756
 2.1520	63.2018
 2.1510	63.1582
 2.1500	63.0941
 2.1490	63.0707
 2.1480	62.9708
 2.1470	62.9084
 2.1460	62.7906
 2.1450	62.8136
 2.1440	62.7311
 2.1430	62.7324
 2.1420	62.6632
 2.1410	62.5623
 2.1400	62.4695
 2.1390	62.4192
 2.1380	62.3395
 2.1370	62.2664
 2.1360	62.1646
 2.1350	62.1323
 2.1340	61.9726
 2.1330	61.9324
 2.1320	61.8192
 2.1310	61.7345
 2.1300	61.6856
 2.1290	61.5968
 2.1280	61.5144
 2.1270	61.4038
 2.1260	61.3224
 2.1250	61.2533
 2.1240	61.1271
 2.1230	61.0603
 2.1220	60.9679
 2.1210	60.8371
 2.1200	60.7258
 2.1190	60.6087
 2.1180	60.5336
 2.1170	60.4689
 2.1160	60.3121
 2.1150	60.2180
 2.1140	60.1311
 2.1130	60.0513
 2.1120	59.9031
 2.1110	59.8107
 2.1100	59.6654
 2.1090	59.5919
 2.1080	59.4579
 2.1070	59.3446
 2.1060	59.2347
 2.1050	59.2185
 2.1040	59.0769
 2.1030	58.9259
 2.1020	58.8609
 2.1010	58.7713
 2.1000	58.6677
 2.0990	58.5941
 2.0980	58.4703
 2.0970	58.4536
 2.0960	58.4052
 2.0950	58.2718
 2.0940	58.1844
 2.0930	58.1782
 2.0920	58.0983
 2.0910	58.0137
 2.0900	57.9401
 2.0890	57.8626
 2.0880	57.7786
 2.0870	57.6842
 2.0860	57.6053
 2.0850	57.4979
 2.0840	57.4201
 2.0830	57.3843
 2.0820	57.3455
 2.0810	57.2778
 2.0800	57.1857
 2.0790	57.0824
 2.0780	56.9821
 2.0770	56.9001
 2.0760	56.8461
 2.0750	56.7750
 2.0740	56.6703
 2.0730	56.5531
 2.0720	56.4531
 2.0710	56.3837
 2.0700	56.3135
 2.0690	56.2151
 2.0680	56.1292
 2.0670	56.0474
 2.0660	55.9521
 2.0650	55.8706
 2.0640	55.7898
 2.0630	55.7191
 2.0620	55.6230
 2.0610	55.5264
 2.0600	55.4497
 2.0590	55.3418
 2.0580	55.2532
 2.0570	55.1898
 2.0560	55.0695
 2.0550	54.9497
 2.0540	54.8730
 2.0530	54.7591
 2.0520	54.6560
 2.0510	54.5637
 2.0500	54.4905
 2.0490	54.3747
 2.0480	54.2644
 2.0470	54.1530
 2.0460	54.0290
 2.0450	53.9685
 2.0440	53.8769
 2.0430	53.7621
 2.0420	53.6536
 2.0410	53.5281
 2.0400	53.4687
 2.0390	53.3354
 2.0380	53.2374
 2.0370	53.1903
 2.0360	53.0612
 2.0350	52.8827
 2.0340	52.7637
 2.0330	52.6587
 2.0320	52.5532
 2.0310	52.4277
 2.0300	52.3865
 2.0290	52.2733
 2.0280	52.1707
 2.0270	52.0308
 2.0260	51.9233
 2.0250	51.7791
 2.0240	51.6791
 2.0230	51.5565
 2.0220	51.4231
 2.0210	51.2965
 2.0200	51.2193
 2.0190	50.9882
 2.0180	50.8939
 2.0170	50.7989
 2.0160	50.6636
 2.0150	50.5338
 2.0140	50.4446
 2.0130	50.2896
 2.0120	50.1200
 2.0110	49.9952
 2.0100	49.9053
 2.0090	49.7912
 2.0080	49.7006
 2.0070	49.5524
 2.0060	49.4348
 2.0050	49.2614
 2.0040	49.2039
 2.0030	49.0007
 2.0020	48.9584
 2.0010	48.8395
 2.0000	48.7158
 1.9990	48.5243
 1.9980	48.4233
 1.9970	48.2720
 1.9960	48.2057
 1.9950	47.9682
 1.9940	47.8647
 1.9930	47.7550
 1.9920	47.6463
 1.9910	47.4675
 1.9900	47.3338
 1.9890	47.1436
 1.9880	47.0688
 1.9870	46.9938
 1.9860	46.8478
 1.9850	46.5970
 1.9840	46.5560
 1.9830	46.3554
 1.9820	46.1984
 1.9810	46.0382
 1.9800	45.9731
 1.9790	45.7990
 1.9780	45.6714
 1.9770	45.4861
 1.9760	45.3874
 1.9750	45.2400
 1.9740	45.1174
 1.9730	44.9734
 1.9720	44.8680
 1.9710	44.6291
 1.9700	44.5047
 1.9690	44.3363
 1.9680	44.2890
 1.9670	44.1260
 1.9660	44.0393
 1.9650	43.8393
 1.9640	43.7681
 1.9630	43.5927
 1.9620	43.5017
 1.9610	43.2756
 1.9600	43.1999
 1.9590	43.0016
 1.9580	42.9362
 1.9570	42.7675
 1.9560	42.6657
 1.9550	42.4677
 1.9540	42.4746
 1.9530	42.2272
 1.9520	42.1171
 1.9510	41.9370
 1.9500	41.8392
 1.9490	41.6597
 1.9480	41.5634
 1.9470	41.4058
 1.9460	41.3133
 1.9450	41.1697
 1.9440	41.0127
 1.9430	40.9130
 1.9420	40.8302
 1.9410	40.5915
 1.9400	40.5377
 1.9390	40.3970
 1.9380	40.2753
 1.9370	40.0653
 1.9360	39.9998
 1.9350	39.8894
 1.9340	39.8218
 1.9330	39.6105
 1.9320	39.5578
 1.9310	39.3999
 1.9300	39.3338
 1.9290	39.0634
 1.9280	39.1497
 1.9270	38.8996
 1.9260	38.6916
 1.9250	38.7029
 1.9240	38.5588
 1.9230	38.3641
 1.9220	38.3835
 1.9210	38.0986
 1.9200	38.0350
 1.9190	37.8535
 1.9180	37.7815
 1.9170	37.6871
 1.9160	37.6050
 1.9150	37.4244
 1.9140	37.3571
 1.9130	37.2027
 1.9120	37.1438
 1.9110	37.0067
 1.9100	36.9481
 1.9090	36.7378
 1.9080	36.7191
 1.9070	36.5457
 1.9060	36.4961
 1.9050	36.3066
 1.9040	36.2423
 1.9030	36.0752
 1.9020	36.0919
 1.9010	35.9312
 1.9000	35.7521
 1.8990	35.6965
 1.8980	35.6061
 1.8970	35.4938
 1.8960	35.4666
 1.8950	35.2931
 1.8940	35.2139
 1.8930	35.0383
 1.8920	35.0138
 1.8910	34.8426
 1.8900	34.7952
 1.8890	34.6012
 1.8880	34.6577
 1.8870	34.3773
 1.8860	34.3618
 1.8850	34.1943
 1.8840	34.0958
 1.8830	33.9609
 1.8820	33.9234
 1.8810	33.7486
 1.8800	33.6527
 1.8790	33.5685
 1.8780	33.4778
 1.8770	33.3100
 1.8760	33.2400
 1.8750	33.0486
 1.8740	32.9537
 1.8730	32.6718
 1.8720	32.6250
 1.8710	32.4138
 1.8700	32.2880
 1.8690	32.1357
 1.8680	32.0639
 1.8670	31.8439
 1.8660	31.7251
 1.8650	31.5769
 1.8640	31.5592
 1.8630	31.3792
 1.8620	31.2784
 1.8610	31.0507
 1.8600	30.9611
 1.8590	30.7771
 1.8580	30.7040
 1.8570	30.5572
 1.8560	30.3890
 1.8550	30.2096
 1.8540	30.1581
 1.8530	29.9575
 1.8520	29.8855
 1.8510	29.6996
 1.8500	29.5743
 1.8490	29.3940
 1.8480	29.2427
 1.8470	29.0964
 1.8460	29.0312
 1.8450	28.8700
 1.8440	28.7709
 1.8430	28.5660
 1.8420	28.4657
 1.8410	28.2942
 1.8400	28.2045
 1.8390	28.0124
 1.8380	27.9124
 1.8370	27.7265
 1.8360	27.6312
 1.8350	27.4435
 1.8340	27.3658
 1.8330	27.2162
 1.8320	27.1246
 1.8310	26.9215
 1.8300	26.8277
 1.8290	26.6630
 1.8280	26.5129
 1.8270	26.3655
 1.8260	26.2959
 1.8250	26.1387
 1.8240	26.0342
 1.8230	25.9046
 1.8220	25.7730
 1.8210	25.6188
 1.8200	25.5050
 1.8190	25.3801
 1.8180	25.2419
 1.8170	25.0676
 1.8160	24.9687
 1.8150	24.9092
 1.8140	24.7847
 1.8130	24.5942
 1.8120	24.4985
 1.8110	24.3732
 1.8100	24.2115
 1.8090	24.0321
 1.8080	23.9199
 1.8070	23.8453
 1.8060	23.7475
 1.8050	23.5611
 1.8040	23.4245
 1.8030	23.3262
 1.8020	23.2358
 1.8010	23.0502
 1.8000	22.9644
 1.7990	22.8655
 1.7980	22.7269
 1.7970	22.6458
 1.7960	22.5465
 1.7950	22.3546
 1.7940	22.2281
 1.7930	22.1372
 1.7920	22.0296
 1.7910	21.8653
 1.7900	21.7173
 1.7890	21.5925
 1.7880	21.4832
 1.7870	21.3983
 1.7860	21.2471
 1.7850	21.0804
 1.7840	20.9610
 1.7830	20.8809
 1.7820	20.7588
 1.7810	20.6399
 1.7800	20.5451
 1.7790	20.4253
 1.7780	20.2928
 1.7770	20.1535
 1.7760	20.0575
 1.7750	20.0197
 1.7740	19.8591
 1.7730	19.7145
 1.7720	19.5971
 1.7710	19.5036
 1.7700	19.3939
 1.7690	19.2830
 1.7680	19.1707
 1.7670	19.0912
 1.7660	18.9455
 1.7650	18.8699
 1.7640	18.7130
 1.7630	18.6226
 1.7620	18.5662
 1.7610	18.4620
 1.7600	18.3608
 1.7590	18.2119
 1.7580	18.0814
 1.7570	17.9895
 1.7560	17.8827
 1.7550	17.8022
 1.7540	17.6679
 1.7530	17.6231
 1.7520	17.5042
 1.7510	17.3949
 1.7500	17.2627
 1.7490	17.1734
 1.7480	17.0844
 1.7470	17.0099
 1.7460	16.8424
 1.7450	16.7289
 1.7440	16.6524
 1.7430	16.6175
 1.7420	16.4847
 1.7410	16.3828
 1.7400	16.2652
 1.7390	16.2251
 1.7380	16.1061
 1.7370	16.0236
 1.7360	15.8354
 1.7350	15.8273
 1.7340	15.7106
 1.7330	15.6834
 1.7320	15.5554
 1.7310	15.4744
 1.7300	15.2951
 1.7290	15.2715
 1.7280	15.1778
 1.7270	15.1198
 1.7260	14.9860
 1.7250	14.9387
 1.7240	14.8182
 1.7230	14.7584
 1.7220	14.6292
 1.7210	14.6033
 1.7200	14.4571
 1.7190	14.4573
 1.7180	14.3051
 1.7170	14.2572
 1.7160	14.1495
 1.7150	14.0883
 1.7140	13.9442
 1.7130	13.8886
 1.7120	13.8083
 1.7110	13.7640
 1.7100	13.6118
 1.7090	13.5616
 1.7080	13.4330
 1.7070	13.4739
 1.7060	13.2619
 1.7050	13.2555
 1.7040	13.1159
 1.7030	13.1374
 1.7020	12.9564
 1.7010	13.0024
 1.7000	12.8219
 1.6990	12.8059
 1.6980	12.6309
 1.6970	12.6603
 1.6960	12.5443
 1.6950	12.6054
 1.6940	12.3914
 1.6930	12.3726
 1.6920	12.2571
 1.6910	12.2279
 1.6900	12.0999
 1.6890	12.1483
 1.6880	12.0477
 1.6870	12.0101
 1.6860	11.8567
 1.6850	11.8666
 1.6840	11.6628
 1.6830	11.6698
 1.6820	11.5058
 1.6810	11.5546
 1.6800	11.4365
 1.6790	11.4089
 1.6780	11.2062
 1.6770	11.2559
 1.6760	11.1719
 1.6750	11.2436
 1.6740	11.0207
 1.6730	11.0393
 1.6720	10.8471
 1.6710	10.8785
 1.6700	10.7179
 1.6690	10.7923
 1.6680	10.5378
 1.6670	10.7291
 1.6660	10.5251
 1.6650	10.5224
 1.6640	10.3855
 1.6630	10.3578
 1.6620	10.2878
 1.6610	10.3184
 1.6600	10.2402
 1.6590	10.2105
 1.6580	 9.9843
 1.6570	10.0332
 1.6560	 9.9615
 1.6550	 9.9343
 1.6540	 9.8625
 1.6530	 9.9089
 1.6520	 9.6641
 1.6510	 9.8279
 1.6500	 9.5807
 1.6490	 9.6821
 1.6480	 9.5314
 1.6470	 9.5570
 1.6460	 9.3812
 1.6450	 9.4808
 1.6440	 9.2679
 1.6430	 9.3766
 1.6420	 9.2637
 1.6410	 9.1086
 1.6400	 9.1384
 1.6390	 9.2782
 1.6380	 8.9224
 1.6370	 9.0077
 1.6360	 8.9412
 1.6350	 8.9685
 1.6340	 8.8049
 1.6330	 8.8055
 1.6320	 8.6753
 1.6310	 8.7235
 1.6300	 8.5752
 1.6290	 8.6954
 1.6280	 8.5444
 1.6270	 8.6294
 1.6260	 8.4501
 1.6250	 8.4895
 1.6240	 8.2924
 1.6230	 8.4107
 1.6220	 8.2704
 1.6210	 8.3119
 1.6200	 8.2192
 1.6190	 8.2443
 1.6180	 8.1553
 1.6170	 8.1802
 1.6160	 8.0141
 1.6150	 8.0558
 1.6140	 8.0043
 1.6130	 8.0298
 1.6120	 7.8539
 1.6110	 7.9402
 1.6100	 7.7521
 1.6090	 7.8733
 1.6080	 7.7572
 1.6070	 7.7414
 1.6060	 7.7150
 1.6050	 7.6856
 1.6040	 7.6080
 1.6030	 7.6367
 1.6020	 7.5454
 1.6010	 7.5360
 1.6000	 7.4480
 1.5990	 7.5057
 1.5980	 7.4449
 1.5970	 7.4784
 1.5960	 7.3578
 1.5950	 7.3165
 1.5940	 7.2485
 1.5930	 7.2618
 1.5920	 7.1967
 1.5910	 7.2317
 1.5900	 7.0977
 1.5890	 7.1204
 1.5880	 7.0454
 1.5870	 7.0904
 1.5860	 6.9896
 1.5850	 7.0587
 1.5840	 6.8735
 1.5830	 6.9459
 1.5820	 6.8782
 1.5810	 6.9046
 1.5800	 6.7847
 1.5790	 6.8065
 1.5780	 6.6730
 1.5770	 6.7830
 1.5760	 6.6642
 1.5750	 6.7688
 1.5740	 6.6608
 1.5730	 6.6996
 1.5720	 6.5545
 1.5710	 6.5792
 1.5700	 6.5313
 1.5690	 6.5664
 1.5680	 6.4497
 1.5670	 6.5034
 1.5660	 6.4234
 1.5650	 6.4907
 1.5640	 6.4305
 1.5630	 6.4048
 1.5620	 6.3085
 1.5610	 6.3026
 1.5600	 6.2822
 1.5590	 6.2777
 1.5580	 6.2146
 1.5570	 6.2588
 1.5560	 6.1995
 1.5550	 6.2292
 1.5540	 6.1340
 1.5530	 6.1574
 1.5520	 6.1216
 1.5510	 6.1173
 1.5500	 6.0341
 1.5490	 6.0204
 1.5480	 6.0240
 1.5470	 5.9895
 1.5460	 5.9469
 1.5450	 6.0423
 1.5440	 5.9338
 1.5430	 5.9291
 1.5420	 5.8796
 1.5410	 5.8658
 1.5400	 5.7861
 1.5390	 5.8520
 1.5380	 5.8526
 1.5370	 5.8303
 1.5360	 5.7532
 1.5350	 5.7622
 1.5340	 5.6831
 1.5330	 5.7779
 1.5320	 5.7416
 1.5310	 5.6826
 1.5300	 5.6440
 1.5290	 5.6755
 1.5280	 5.6064
 1.5270	 5.5812
 1.5260	 5.5416
 1.5250	 5.6085
 1.5240	 5.5669
 1.5230	 5.5718
 1.5220	 5.5129
 1.5210	 5.5030
 1.5200	 5.4991
 1.5190	 5.5174
 1.5180	 5.4860
 1.5170	 5.4426
 1.5160	 5.4142
 1.5150	 5.4489
 1.5140	 5.4003
 1.5130	 5.3820
 1.5120	 5.4073
 1.5110	 5.3705
 1.5100	 5.3242
 1.5090	 5.3574
 1.5080	 5.3338
 1.5070	 5.2994
 1.5060	 5.2579
 1.5050	 5.2669
 1.5040	 5.2440
 1.5030	 5.2392
 1.5020	 5.2181
 1.5010	 5.2120
 1.5000	 5.1903
 1.4990	 5.1758
 1.4980	 5.1857
 1.4970	 5.1351
 1.4960	 5.1433
 1.4950	 5.1816
 1.4940	 5.1355
 1.4930	 5.1329
 1.4920	 5.1213
 1.4910	 5.0884
 1.4900	 5.0628
 1.4890	 5.0460
 1.4880	 5.0809
 1.4870	 5.0805
 1.4860	 5.0805
 1.4850	 5.0475
 1.4840	 5.0881
 1.4830	 5.0471
 1.4820	 4.9827
 1.4810	 4.9364
 1.4800	 4.9826
 1.4790	 4.9854
 1.4780	 4.9587
 1.4770	 4.9344
 1.4760	 4.9464
 1.4750	 4.9059
 1.4740	 4.9423
 1.4730	 4.9006
 1.4720	 4.9236
 1.4710	 4.9036
 1.4700	 4.8673
 1.4690	 4.8474
 1.4680	 4.8701
 1.4670	 4.8315
 1.4660	 4.8500
 1.4650	 4.8593
 1.4640	 4.8493
 1.4630	 4.7899
 1.4620	 4.8089
 1.4610	 4.8366
 1.4600	 4.8736
 1.4590	 4.7864
 1.4580	 4.7943
 1.4570	 4.7830
 1.4560	 4.7996
 1.4550	 4.7416
 1.4540	 4.7639
 1.4530	 4.7468
 1.4520	 4.7634
 1.4510	 4.7177
 1.4500	 4.8116
 1.4490	 4.7768
 1.4480	 4.7238
 1.4470	 4.6984
 1.4460	 4.7248
 1.4450	 4.6578
 1.4440	 4.7557
 1.4430	 4.6962
 1.4420	 4.7612
 1.4410	 4.6500
 1.4400	 4.6840
 1.4390	 4.5980
 1.4380	 4.6715
 1.4370	 4.6532
 1.4360	 4.7541
 1.4350	 4.6179
 1.4340	 4.6605
 1.4330	 4.5560
 1.4320	 4.6462
 1.4310	 4.5553
 1.4300	 4.5939
 1.4290	 4.5048
 1.4280	 4.6724
 1.4270	 4.6551
 1.4260	 4.6424
 1.4250	 4.5942
 1.4240	 4.6451
 1.4230	 4.6114
 1.4220	 4.6129
 1.4210	 4.5703
 1.4200	 4.6159
 1.4190	 4.5324
 1.4180	 4.5378
 1.4170	 4.5232
 1.4160	 4.5666
 1.4150	 4.5012
 1.4140	 4.6071
 1.4130	 4.4950
 1.4120	 4.5700
 1.4110	 4.4807
 1.4100	 4.5920
 1.4090	 4.4863
 1.4080	 4.5988
 1.4070	 4.5234
 1.4060	 4.5523
 1.4050	 4.5381
 1.4040	 4.5495
 1.4030	 4.5715
 1.4020	 4.6175
 1.4010	 4.5697
 1.4000	 4.5456
 1.3990	 4.4535
 1.3980	 4.6057
 1.3970	 4.5106
 1.3960	 4.6178
 1.3950	 4.5067
 1.3940	 4.5394
 1.3930	 4.5170
 1.3920	 4.5959
 1.3910	 4.5653
 1.3900	 4.6207
 1.3890	 4.4936
 1.3880	 4.5597
 1.3870	 4.4402
 1.3860	 4.6487
 1.3850	 4.4962
 1.3840	 4.6353
 1.3830	 4.4437
 1.3820	 4.6075
 1.3810	 4.3899
 1.3800	 4.5489
 1.3790	 4.4800
 1.3780	 4.5551
 1.3770	 4.4714
 1.3760	 4.5942
 1.3750	 4.5223
 1.3740	 4.6245
 1.3730	 4.5147
 1.3720	 4.6197
 1.3710	 4.4731
 1.3700	 4.5774
 1.3690	 4.4944
 1.3680	 4.5472
 1.3670	 4.4861
 1.3660	 4.7178
 1.3650	 4.4322
 1.3640	 4.5779
 1.3630	 4.5218
 1.3620	 4.6143
 1.3610	 4.4776
 1.3600	 4.5614
 1.3590	 4.4768
 1.3580	 4.6132
 1.3570	 4.5657
 1.3560	 4.7195
 1.3550	 4.3999
 1.3540	 4.6345
 1.3530	 4.5236
 1.3520	 4.5765
 1.3510	 4.5384
 1.3500	 4.7507
 1.3490	 4.5465
 1.3480	 4.5971
 1.3470	 4.5992
 1.3460	 4.5847
 1.3450	 4.5581
 1.3440	 4.6585
 1.3430	 4.5380
 1.3420	 4.6431
 1.3410	 4.5747
 1.3400	 4.6727
 1.3390	 4.5417
 1.3380	 4.6055
 1.3370	 4.5534
 1.3360	 4.6398
 1.3350	 4.5381
 1.3340	 4.6607
 1.3330	 4.5885
 1.3320	 4.7020
 1.3310	 4.5639
 1.3300	 4.6622
 1.3290	 4.5849
 1.3280	 4.6626
 1.3270	 4.5781
 1.3260	 4.6479
 1.3250	 4.6441
 1.3240	 4.7031
 1.3230	 4.5886
 1.3220	 4.6758
 1.3210	 4.6496
 1.3200	 4.7089
 1.3190	 4.6282
 1.3180	 4.7249
 1.3170	 4.6175
 1.3160	 4.7572
 1.3150	 4.6418
 1.3140	 4.7509
 1.3130	 4.6874
 1.3120	 4.7531
 1.3110	 4.6917
 1.3100	 4.7890
 1.3090	 4.7013
 1.3080	 4.7582
 1.3070	 4.6308
 1.3060	 4.7838
 1.3050	 4.6693
 1.3040	 4.7259
 1.3030	 4.6992
 1.3020	 4.8187
 1.3010	 4.7470
 1.3000	 4.8574
 1.2990	 4.7433
 1.2980	 4.8954
 1.2970	 4.7608
 1.2960	 4.7901
 1.2950	 4.8173
 1.2940	 4.8996
 1.2930	 4.7929
 1.2920	 4.8586
 1.2910	 4.8095
 1.2900	 4.8971
 1.2890	 4.7861
 1.2880	 4.8916
 1.2870	 4.7707
 1.2860	 4.8417
 1.2850	 4.8511
 1.2840	 4.9699
 1.2830	 4.8751
 1.2820	 4.9270
 1.2810	 4.8638
 1.2800	 4.8596
 1.2790	 4.8318
 1.2780	 4.8955
 1.2770	 4.9046
 1.2760	 4.8767
 1.2750	 4.8721
 1.2740	 4.9486
 1.2730	 4.9779
 1.2720	 4.9908
 1.2710	 4.9520
 1.2700	 4.9839
 1.2690	 4.9290
 1.2680	 4.9457
 1.2670	 4.9347
 1.2660	 4.9907
 1.2650	 4.9590
 1.2640	 4.9952
 1.2630	 4.9676
 1.2620	 5.0405
 1.2610	 4.9823
 1.2600	 5.0011
 1.2590	 4.9748
 1.2580	 5.0196
 1.2570	 4.9795
 1.2560	 5.0126
 1.2550	 5.0116
 1.2540	 5.0460
 1.2530	 5.0418
 1.2520	 5.0732
 1.2510	 5.0867
 1.2500	 5.1271
 1.2490	 5.0221
 1.2480	 5.0323
 1.2470	 5.0657
 1.2460	 5.1220
 1.2450	 5.0820
 1.2440	 5.1180
 1.2430	 5.1030
 1.2420	 5.0812
 1.2410	 5.0815
 1.2400	 5.0790
 1.2390	 5.0762
 1.2380	 5.1170
 1.2370	 5.1237
 1.2360	 5.1312
 1.2350	 5.1053
 1.2340	 5.0914
 1.2330	 5.0643
 1.2320	 5.1027
 1.2310	 5.1206
 1.2300	 5.1497
 1.2290	 5.1724
 1.2280	 5.1411
 1.2270	 5.0883
 1.2260	 5.1669
 1.2250	 5.1990
 1.2240	 5.1018
 1.2230	 5.1060
 1.2220	 5.1366
 1.2210	 5.1253
 1.2200	 5.1402
 1.2190	 5.1244
 1.2180	 5.1022
 1.2170	 5.1044
 1.2160	 5.0981
 1.2150	 5.1174
 1.2140	 5.1719
 1.2130	 5.1788
 1.2120	 5.1414
 1.2110	 5.1175
 1.2100	 5.1114
 1.2090	 5.1017
 1.2080	 5.0845
 1.2070	 5.1387
 1.2060	 5.1323
 1.2050	 5.0644
 1.2040	 5.0683
 1.2030	 5.0778
 1.2020	 5.0333
 1.2010	 5.0955
 1.2000	 5.1082
 1.1990	 5.0937
 1.1980	 5.0756
 1.1970	 5.0798
 1.1960	 5.0599
 1.1950	 5.0314
 1.1940	 5.0306
 1.1930	 5.0647
 1.1920	 5.0100
 1.1910	 5.0174
 1.1900	 5.0375
 1.1890	 5.0307
 1.1880	 4.8966
 1.1870	 4.9833
 1.1860	 5.0138
 1.1850	 5.0227
 1.1840	 4.9838
 1.1830	 4.9843
 1.1820	 4.9746
 1.1810	 4.9979
 1.1800	 4.9914
 1.1790	 4.9921
 1.1780	 4.9282
 1.1770	 4.9184
 1.1760	 4.8635
 1.1750	 4.9056
 1.1740	 4.8881
 1.1730	 4.9368
 1.1720	 4.8614
 1.1710	 4.8271
 1.1700	 4.8089
 1.1690	 4.8564
 1.1680	 4.8523
 1.1670	 4.8561
 1.1660	 4.8133
 1.1650	 4.8796
 1.1640	 4.7974
 1.1630	 4.8105
 1.1620	 4.8125
 1.1610	 4.8473
 1.1600	 4.7248
 1.1590	 4.7424
 1.1580	 4.6914
 1.1570	 4.7471
 1.1560	 4.7186
 1.1550	 4.6709
 1.1540	 4.7046
 1.1530	 4.7356
 1.1520	 4.6796
 1.1510	 4.7142
 1.1500	 4.6380
 1.1490	 4.6969
 1.1480	 4.6227
 1.1470	 4.6487
 1.1460	 4.5337
 1.1450	 4.6550
 1.1440	 4.5686
 1.1430	 4.6041
 1.1420	 4.5736
 1.1410	 4.6265
 1.1400	 4.5315
 1.1390	 4.5743
 1.1380	 4.4496
 1.1370	 4.5472
 1.1360	 4.4878
 1.1350	 4.5037
 1.1340	 4.4588
 1.1330	 4.4774
 1.1320	 4.4691
 1.1310	 4.5074
 1.1300	 4.4154
 1.1290	 4.4637
 1.1280	 4.4023
 1.1270	 4.4558
 1.1260	 4.4230
 1.1250	 4.4740
 1.1240	 4.3518
 1.1230	 4.3807
 1.1220	 4.3379
 1.1210	 4.4066
 1.1200	 4.3137
 1.1190	 4.3590
 1.1180	 4.2801
 1.1170	 4.3379
 1.1160	 4.3073
 1.1150	 4.3218
 1.1140	 4.2918
 1.1130	 4.3214
 1.1120	 4.2966
 1.1110	 4.3335
 1.1100	 4.2657
 1.1090	 4.3111
 1.1080	 4.2219
 1.1070	 4.3298
 1.1060	 4.1799
 1.1050	 4.3147
 1.1040	 4.1684
 1.1030	 4.2707
 1.1020	 4.1855
 1.1010	 4.2483
 1.1000	 4.1522
 1.0990	 4.2469
 1.0980	 4.1866
 1.0970	 4.2555
 1.0960	 4.1751
 1.0950	 4.2020
 1.0940	 4.2028
 1.0930	 4.3112
 1.0920	 4.1427
 1.0910	 4.1893
 1.0900	 4.1263
 1.0890	 4.2237
 1.0880	 4.1046
 1.0870	 4.0906
 1.0860	 4.1992
 1.0850	 4.2656
 1.0840	 4.0512
 1.0830	 4.1651
 1.0820	 4.1164
 1.0810	 4.2751
 1.0800	 4.1018
 1.0790	 4.1851
 1.0780	 4.1074
 1.0770	 4.1697
 1.0760	 4.0948
 1.0750	 4.2380
 1.0740	 4.0978
 1.0730	 4.1491
 1.0720	 4.0561
 1.0710	 4.2924
 1.0700	 3.8493
 1.0690	 4.1797
 1.0680	 4.0763
 1.0670	 4.1756
 1.0660	 4.0552
 1.0650	 4.1523
 1.0640	 4.0354
 1.0630	 4.1964
 1.0620	 4.0479
 1.0610	 4.2059
 1.0600	 4.1800
 1.0590	 4.2180
 1.0580	 4.0626
 1.0570	 4.2161
 1.0560	 4.1270
 1.0550	 4.1821
 1.0540	 4.0938
 1.0530	 4.1321
 1.0520	 4.1169
 1.0510	 4.2599
 1.0500	 4.1202
 1.0490	 4.2433
 1.0480	 4.1463
 1.0470	 4.2211
 1.0460	 4.1595
 1.0450	 4.1340
 1.0440	 4.1928
 1.0430	 4.2239
 1.0420	 4.2002
 1.0410	 4.1936
 1.0400	 4.1821
 1.0390	 4.2430
 1.0380	 4.1285
 1.0370	 4.2730
 1.0360	 4.2601
 1.0350	 4.2794
 1.0340	 4.2130
 1.0330	 4.3503
 1.0320	 4.2651
 1.0310	 4.2899
 1.0300	 4.1949
 1.0290	 4.3821
 1.0280	 4.2969
 1.0270	 4.2983
 1.0260	 4.2968
 1.0250	 4.3545
 1.0240	 4.3091
 1.0230	 4.3468
 1.0220	 4.2768
 1.0210	 4.3285
 1.0200	 4.3324
 1.0190	 4.3846
 1.0180	 4.3477
 1.0170	 4.4156
 1.0160	 4.3840
 1.0150	 4.4350
 1.0140	 4.3997
 1.0130	 4.4890
 1.0120	 4.4199
 1.0110	 4.5222
 1.0100	 4.4447
 1.0090	 4.4869
 1.0080	 4.4542
 1.0070	 4.5560
 1.0060	 4.5449
 1.0050	 4.5523
 1.0040	 4.5116
 1.0030	 4.6384
 1.0020	 4.5611
 1.0010	 4.6460
 1.0000	 4.5452
 0.9990	 4.5583
 0.9980	 4.6215
 0.9970	 4.6723
 0.9960	 4.6369
 0.9950	 4.7383
 0.9940	 4.7327
 0.9930	 4.7686
 0.9920	 4.6878
 0.9910	 4.8196
 0.9900	 4.8346
 0.9890	 4.8545
 0.9880	 4.7453
 0.9870	 4.7998
 0.9860	 4.8565
 0.9850	 4.9557
 0.9840	 4.9830
 0.9830	 4.9447
 0.9820	 4.9443
 0.9810	 4.9590
 0.9800	 4.9369
 0.9790	 5.0334
 0.9780	 5.0357
 0.9770	 5.0993
 0.9760	 5.0976
 0.9750	 5.1229
 0.9740	 5.1684
 0.9730	 5.2125
 0.9720	 5.2058
 0.9710	 5.3061
 0.9700	 5.2385
 0.9690	 5.3630
 0.9680	 5.4322
 0.9670	 5.4316
 0.9660	 5.4314
 0.9650	 5.5080
 0.9640	 5.5030
 0.9630	 5.5115
 0.9620	 5.5175
 0.9610	 5.6002
 0.9600	 5.5586
 0.9590	 5.6495
 0.9580	 5.6941
 0.9570	 5.7308
 0.9560	 5.7527
 0.9550	 5.8088
 0.9540	 5.8525
 0.9530	 5.9477
 0.9520	 5.9187
 0.9510	 6.0085
 0.9500	 6.0732
 0.9490	 6.0825
 0.9480	 6.1128
 0.9470	 6.2428
 0.9460	 6.2901
 0.9450	 6.3119
 0.9440	 6.3670
 0.9430	 6.4349
 0.9420	 6.4650
 0.9410	 6.5330
 0.9400	 6.5582
 0.9390	 6.6176
 0.9380	 6.6405
 0.9370	 6.7374
 0.9360	 6.8255
 0.9350	 6.8953
 0.9340	 6.9342
 0.9330	 7.0333
 0.9320	 7.1105
 0.9310	 7.1144
 0.9300	 7.1734
 0.9290	 7.2659
 0.9280	 7.3595
 0.9270	 7.4282
 0.9260	 7.5228
 0.9250	 7.5972
 0.9240	 7.6443
 0.9230	 7.7306
 0.9220	 7.8360
 0.9210	 7.9314
 0.9200	 8.0180
 0.9190	 8.1098
 0.9180	 8.2360
 0.9170	 8.2979
 0.9160	 8.3879
 0.9150	 8.5046
 0.9140	 8.6029
 0.9130	 8.6937
 0.9120	 8.8409
 0.9110	 8.9064
 0.9100	 9.0330
 0.9090	 9.1237
 0.9080	 9.2808
 0.9070	 9.3865
 0.9060	 9.5290
 0.9050	 9.6048
 0.9040	 9.7130
 0.9030	 9.8270
 0.9020	 9.9997
 0.9010	10.1679
 0.9000	10.3299
 0.8990	10.3777
 0.8980	10.5426
 0.8970	10.7332
 0.8960	10.9674
 0.8950	11.0144
 0.8940	11.1657
 0.8930	11.3103
 0.8920	11.4673
 0.8910	11.5790
 0.8900	11.8071
 0.8890	11.9686
 0.8880	12.1423
 0.8870	12.2745
 0.8860	12.4994
 0.8850	12.5904
 0.8840	12.8352
 0.8830	13.0030
 0.8820	13.2201
 0.8810	13.3587
 0.8800	13.6008
 0.8790	13.7343
 0.8780	14.0145
 0.8770	14.1603
 0.8760	14.4117
 0.8750	14.5663
 0.8740	14.8523
 0.8730	15.0401
 0.8720	15.3370
 0.8710	15.4296
 0.8700	15.7459
 0.8690	15.9498
 0.8680	16.1844
 0.8670	16.3469
 0.8660	16.6953
 0.8650	16.8649
 0.8640	17.1364
 0.8630	17.3386
 0.8620	17.6758
 0.8610	17.8883
 0.8600	18.7790
 0.8590	18.8926
 0.8580	19.0955
 0.8570	19.4766
 0.8560	19.7720
 0.8550	20.0640
 0.8540	20.4010
 0.8530	20.6638
 0.8520	20.9855
 0.8510	21.3019
 0.8500	21.6321
 0.8490	21.9648
 0.8480	22.3526
 0.8470	22.6500
 0.8460	22.9795
 0.8450	23.3163
 0.8440	23.6310
 0.8430	23.9714
 0.8420	24.3201
 0.8410	24.6584
 0.8400	24.9957
 0.8390	25.3773
 0.8380	25.7129
 0.8370	26.0486
 0.8360	26.4212
 0.8350	26.7231
 0.8340	27.0769
 0.8330	27.4378
 0.8320	27.7801
 0.8310	28.1371
 0.8300	28.5185
 0.8290	28.8677
 0.8280	29.1756
 0.8270	29.5804
 0.8260	29.9094
 0.8250	30.2600
 0.8240	30.6274
 0.8230	30.9459
 0.8220	31.2766
 0.8210	31.6707
 0.8200	31.9865
 0.8190	32.3355
 0.8180	32.7192
 0.8170	33.0297
 0.8160	33.3290
 0.8150	33.7028
 0.8140	34.0174
 0.8130	34.3293
 0.8120	34.7094
 0.8110	34.9723
 0.8100	35.3227
 0.8090	35.6513
 0.8080	35.9221
 0.8070	36.2408
 0.8060	36.5437
 0.8050	36.8054
 0.8040	37.0735
 0.8030	37.3753
 0.8020	37.6077
 0.8010	37.8894
 0.8000	38.1690
 0.7990	38.3796
 0.7980	38.6395
 0.7970	38.8851
 0.7960	39.1089
 0.7950	39.2771
 0.7940	39.5203
 0.7930	39.7376
 0.7920	39.9163
 0.7910	40.0784
 0.7900	40.2629
 0.7890	40.4556
 0.7880	40.6303
 0.7870	40.7335
 0.7860	40.9010
 0.7850	41.0660
 0.7840	41.1766
 0.7830	41.2680
 0.7820	41.4291
 0.7810	41.4657
 0.7800	41.5725
 0.7790	41.6827
 0.7780	41.7264
 0.7770	41.7918
 0.7760	41.8372
 0.7750	41.8249
 0.7740	41.8541
 0.7730	41.8969
 0.7720	41.8831
 0.7710	41.8866
 0.7700	41.8905
 0.7690	41.8614
 0.7680	41.8553
 0.7670	41.8239
 0.7660	41.7864
 0.7650	41.7298
 0.7640	41.6813
 0.7630	41.5647
 0.7620	41.5095
 0.7610	41.4454
 0.7600	41.3555
 0.7590	41.2758
 0.7580	41.1830
 0.7570	41.0693
 0.7560	40.9714
 0.7550	40.8639
 0.7540	40.7552
 0.7530	40.6480
 0.7520	40.5372
 0.7510	40.4138
 0.7500	40.2994
 0.7490	40.1857
 0.7480	40.0586
 0.7470	39.9142
 0.7460	39.8304
 0.7450	39.7085
 0.7440	39.5774
 0.7430	39.4652
 0.7420	39.3415
 0.7410	39.2364
 0.7400	39.1414
 0.7390	39.0222
 0.7380	38.9062
 0.7370	38.8124
 0.7360	38.7119
 0.7350	38.6111
 0.7340	38.5404
 0.7330	38.4424
 0.7320	38.3629
 0.7310	38.2899
 0.7300	38.2220
 0.7290	38.1521
 0.7280	38.0950
 0.7270	38.0341
 0.7260	37.9701
 0.7250	37.9480
 0.7240	37.9212
 0.7230	37.8841
 0.7220	37.8499
 0.7210	37.8224
 0.7200	37.8047
 0.7190	37.7819
 0.7180	37.7736
 0.7170	37.7731
 0.7160	37.7926
 0.7150	37.8003
 0.7140	37.8143
 0.7130	37.8281
 0.7120	37.8462
 0.7110	37.8759
 0.7100	37.9142
 0.7090	37.9694
 0.7080	38.0083
 0.7070	38.0503
 0.7060	38.1014
 0.7050	38.1667
 0.7040	38.2335
 0.7030	38.3070
 0.7020	38.3697
 0.7010	38.4372
 0.7000	38.5190
 0.6990	38.6046
 0.6980	38.6830
 0.6970	38.7761
 0.6960	38.8754
 0.6950	38.9788
 0.6940	39.0783
 0.6930	39.1866
 0.6920	39.2940
 0.6910	39.3934
 0.6900	39.5052
 0.6890	39.6348
 0.6880	39.7735
 0.6870	39.8888
 0.6860	40.0155
 0.6850	40.1447
 0.6840	40.2798
 0.6830	40.4197
 0.6820	40.5698
 0.6810	40.7018
 0.6800	40.8520
 0.6790	41.0103
 0.6780	41.1565
 0.6770	41.3027
 0.6760	41.4602
 0.6750	41.6310
 0.6740	41.8078
 0.6730	41.9741
 0.6720	42.1365
 0.6710	42.3202
 0.6700	42.4970
 0.6690	42.6630
 0.6680	42.8434
 0.6670	43.0320
 0.6660	43.2087
 0.6650	43.3848
 0.6640	43.5644
 0.6630	43.7442
 0.6620	43.9072
 0.6610	44.0807
 0.6600	44.2456
 0.6590	44.4073
 0.6580	44.5696
 0.6570	44.7231
 0.6560	44.8704
 0.6550	45.0011
 0.6540	45.1280
 0.6530	45.2387
 0.6520	45.3347
 0.6510	45.4054
 0.6500	45.4616
 0.6490	45.5133
 0.6480	45.5332
 0.6470	45.5252
 0.6460	45.5004
 0.6450	45.4430
 0.6440	45.3568
 0.6430	45.2427
 0.6420	45.0819
 0.6410	44.8841
 0.6400	44.6617
 0.6390	44.3899
 0.6380	44.0697
 0.6370	43.7279
 0.6360	43.3484
 0.6350	42.9192
 0.6340	42.4529
 0.6330	41.9381
 0.6320	41.3948
 0.6310	40.8279
 0.6300	40.2361
 0.6290	39.6116
 0.6280	38.9664
 0.6270	38.3102
 0.6260	37.6371
 0.6250	36.9680
 0.6240	36.2942
 0.6230	35.6366
 0.6220	34.9938
 0.6210	34.3564
 0.6200	33.7350
 0.6190	33.1398
 0.6180	32.5902
 0.6170	32.0719
 0.6160	31.5873
 0.6150	31.1286
 0.6140	30.7027
 0.6130	30.3210
 0.6120	29.9769
 0.6110	29.6749
 0.6100	29.4151
 0.6090	29.1978
 0.6080	29.0101
 0.6070	28.8633
 0.6060	28.7581
 0.6050	28.6820
 0.6040	28.6435
 0.6030	28.6430
 0.6020	28.6681
 0.6010	28.7167
 0.6000	28.7871
 0.5990	28.8896
 0.5980	29.0053
 0.5970	29.1422
 0.5960	29.2933
 0.5950	29.4526
 0.5940	29.6124
 0.5930	29.7793
 0.5920	29.9533
 0.5910	30.1254
 0.5900	30.2936
 0.5890	30.4634
 0.5880	30.6200
 0.5870	30.7742
 0.5860	30.9091
 0.5850	31.0409
 0.5840	31.1559
 0.5830	31.2640
 0.5820	31.3600
 0.5810	31.4370
 0.5800	31.5005
 0.5790	31.5627
 0.5780	31.6079
 0.5770	31.6356
 0.5760	31.6617
 0.5750	31.6802
 0.5740	31.6889
 0.5730	31.6973
 0.5720	31.6922
 0.5710	31.7005
 0.5700	31.7095
 0.5690	31.7191
 0.5680	31.7349
 0.5670	31.7542
 0.5660	31.7806
 0.5650	31.8164
 0.5640	31.8720
 0.5630	31.9325
 0.5620	32.0034
 0.5610	32.0954
 0.5600	32.1693
 0.5590	32.2795
 0.5580	32.4195
 0.5570	32.5515
 0.5560	32.7116
 0.5550	32.8917
 0.5540	33.0635
 0.5530	33.2462
 0.5520	33.4434
 0.5510	33.6427
 0.5500	33.8398
 0.5490	34.0437
 0.5480	34.2476
 0.5470	34.4458
 0.5460	34.6505
 0.5450	34.8478
 0.5440	35.0362
 0.5430	35.2115
 0.5420	35.3914
 0.5410	35.5645
 0.5400	35.7432
 0.5390	35.9000
 0.5380	36.0446
 0.5370	36.1756
 0.5360	36.2849
 0.5350	36.3729
 0.5340	36.4513
 0.5330	36.4989
 0.5320	36.5248
 0.5310	36.5375
 0.5300	36.5232
 0.5290	36.4873
 0.5280	36.4537
 0.5270	36.3991
 0.5260	36.3295
 0.5250	36.2565
 0.5240	36.1735
 0.5230	36.0879
 0.5220	36.0074
 0.5210	35.9265
 0.5200	35.8485
 0.5190	35.7815
 0.5180	35.7071
 0.5170	35.6374
 0.5160	35.5676
 0.5150	35.5033
 0.5140	35.4426
 0.5130	35.4099
 0.5120	35.3228
 0.5110	35.2165
 0.5100	35.0979
 0.5090	34.9362
 0.5080	34.6861
 0.5070	34.3833
 0.5060	33.9607
 0.5050	33.3958
 0.5040	32.7103
 0.5030	31.9135
 0.5020	30.9773
 0.5010	29.9945
 0.5000	29.0405
 0.4990	28.2581
 0.4980	27.7894
 0.4970	27.6468
 0.4960	27.7984
 0.4950	28.1427
 0.4940	28.5358
 0.4930	28.9472
 0.4920	29.4169
 0.4910	29.9805
 0.4900	30.6448
 0.4890	31.3176
 0.4880	31.9480
 0.4870	32.5232
 0.4860	32.9788
 0.4850	33.3692
 0.4840	33.6815
 0.4830	33.8489
 0.4820	33.8453
 0.4810	33.6881
 0.4800	33.3247
 0.4790	32.7462
 0.4780	31.9651
 0.4770	30.9031
 0.4760	29.5633
 0.4750	27.9709
 0.4740	26.2261
 0.4730	24.5407
 0.4720	23.1532
 0.4710	22.2727
 0.4700	21.9865
 0.4690	22.2440
 0.4680	22.8609
 0.4670	23.5824
 0.4660	24.2091
 0.4650	24.6748
 0.4640	24.9429
 0.4630	25.0616
 0.4620	25.0455
 0.4610	24.9355
 0.4600	24.7676
 0.4590	24.6444
 0.4580	24.5679
 0.4570	24.5736
 0.4560	24.6542
 0.4550	24.7683
 0.4540	24.9202
 0.4530	25.1033
 0.4520	25.3085
 0.4510	25.5696
 0.4500	25.8951
 0.4490	26.2399
 0.4480	26.5981
 0.4470	26.9147
 0.4460	27.1641
 0.4450	27.3954
 0.4440	27.6252
 0.4430	27.8706
 0.4420	28.1697
 0.4410	28.5170
 0.4400	28.8927
 0.4390	29.2787
 0.4380	29.6605
 0.4370	30.0056
 0.4360	30.3153
 0.4350	30.5906
 0.4340	30.8140
 0.4330	30.9906
 0.4320	31.1027
 0.4310	31.1812
 0.4300	31.1984
 0.4290	31.1920
 0.4280	31.1832
 0.4270	31.1385
 0.4260	31.1144
 0.4250	31.1001
 0.4240	31.0846
 0.4230	31.0868
 0.4220	31.0875
 0.4210	31.0831
 0.4200	31.0547
 0.4190	30.9930
 0.4180	30.8525
 0.4170	30.6101
 0.4160	30.2326
 0.4150	29.6853
 0.4140	28.9142
 0.4130	27.9123
 0.4120	26.6829
 0.4110	25.3052
 0.4100	23.8565
 0.4090	22.5689
 0.4080	21.6909
 0.4070	21.3680
 0.4060	21.5570
 0.4050	22.1635
 0.4040	22.9850
 0.4030	23.7547
 0.4020	24.3750
 0.4010	24.9025
 0.4000	25.4401
