Name: Tincalconite Na_2B_4O_5(OH)_4.3H_2O
Type: Mineral
Class: Borate
Subclass: None
Particle Size: Fine
Sample No.: B-4A
Owner: JPL
Wavelength Range: VSWIR
Origin: USA, California, Kern County, Boron
Collection Date: N/A
Description: Particle size was 0-45um.Collected by Burminco Original ASTER Spectral Library name was jpl.beckman.mineral.borate.none.fine.b04.spectrum.txt
Measurement: Hemispherical reflectance
First Column: X
Second Column: Y
X Units: Wavelength (micrometers)
Y Units:Reflectance (percent)
First X Value:  0.4000
Last X Value:  2.5000
Number of X Values: 826
Additional Information: mineral.borate.none.fine.vswir.b-4a.jpl.beckman.ancillary.txt

 0.4000	88.7400
 0.4010	88.6400
 0.4020	88.9200
 0.4030	88.9800
 0.4040	89.2700
 0.4050	89.2700
 0.4060	89.1500
 0.4070	89.1500
 0.4080	89.2700
 0.4090	89.6200
 0.4100	89.6800
 0.4110	89.5100
 0.4120	89.4500
 0.4130	89.6800
 0.4140	89.9200
 0.4150	90.2000
 0.4160	90.2000
 0.4170	90.2000
 0.4180	90.2600
 0.4190	90.4300
 0.4200	90.4300
 0.4210	90.2600
 0.4220	90.1400
 0.4230	89.9800
 0.4240	90.2600
 0.4250	90.4300
 0.4260	90.3200
 0.4270	90.2600
 0.4280	90.2600
 0.4290	90.4900
 0.4300	90.7900
 0.4310	90.6700
 0.4320	90.6100
 0.4330	90.3800
 0.4340	90.6100
 0.4350	90.7900
 0.4360	91.0800
 0.4370	91.0200
 0.4380	90.7900
 0.4390	90.9000
 0.4400	91.0800
 0.4410	91.2000
 0.4420	91.2600
 0.4430	91.1400
 0.4440	91.2000
 0.4450	91.4300
 0.4460	91.4900
 0.4470	91.2000
 0.4480	91.2000
 0.4490	91.5400
 0.4500	91.7200
 0.4510	91.9500
 0.4520	91.7700
 0.4530	91.7300
 0.4540	91.7800
 0.4550	91.9600
 0.4560	92.3100
 0.4570	92.2000
 0.4580	92.0300
 0.4590	92.0300
 0.4600	92.2100
 0.4610	92.3200
 0.4620	92.3800
 0.4630	92.3900
 0.4640	92.1600
 0.4650	92.1600
 0.4660	92.3300
 0.4670	92.2200
 0.4680	92.3400
 0.4690	92.0500
 0.4700	92.0500
 0.4710	92.4600
 0.4720	92.6300
 0.4730	92.6900
 0.4740	92.5800
 0.4750	92.3500
 0.4760	92.4700
 0.4770	92.6900
 0.4780	92.7600
 0.4790	92.5300
 0.4800	92.5300
 0.4810	92.6500
 0.4820	92.6500
 0.4830	92.8300
 0.4840	92.8300
 0.4850	92.6600
 0.4860	92.9500
 0.4870	93.1300
 0.4880	93.0800
 0.4890	92.9000
 0.4900	92.6700
 0.4910	93.1400
 0.4920	93.3100
 0.4930	93.2600
 0.4940	93.2600
 0.4950	93.0300
 0.4960	93.2600
 0.4970	93.4400
 0.4980	93.6200
 0.4990	93.3300
 0.5000	93.0400
 0.5010	93.5100
 0.5020	93.8500
 0.5030	93.6700
 0.5040	93.5700
 0.5050	93.4500
 0.5060	93.4500
 0.5070	93.6700
 0.5080	93.7300
 0.5090	93.6700
 0.5100	93.6200
 0.5110	93.5100
 0.5120	93.8500
 0.5130	93.9700
 0.5140	94.0800
 0.5150	93.7900
 0.5160	93.8500
 0.5170	94.0300
 0.5180	94.0300
 0.5190	94.2600
 0.5200	93.9700
 0.5210	93.7900
 0.5220	94.0800
 0.5230	94.2000
 0.5240	94.2000
 0.5250	94.1400
 0.5260	94.0300
 0.5270	94.0800
 0.5280	94.1400
 0.5290	94.4400
 0.5300	94.2000
 0.5310	94.1400
 0.5320	94.4400
 0.5330	94.3800
 0.5340	94.3800
 0.5350	94.3800
 0.5360	94.2600
 0.5370	94.3800
 0.5380	94.4400
 0.5390	94.6100
 0.5400	94.7300
 0.5410	94.2600
 0.5420	94.5000
 0.5430	94.6700
 0.5440	94.6100
 0.5450	94.5000
 0.5460	94.6700
 0.5470	94.7900
 0.5480	94.6700
 0.5490	94.7300
 0.5500	94.7900
 0.5510	94.6100
 0.5520	94.6100
 0.5530	94.7300
 0.5540	94.7300
 0.5550	94.6100
 0.5560	94.3200
 0.5570	94.5000
 0.5580	94.7300
 0.5590	94.5000
 0.5600	95.0800
 0.5610	95.2000
 0.5620	95.0800
 0.5630	95.1400
 0.5640	94.9600
 0.5650	94.9600
 0.5660	95.0800
 0.5670	95.2000
 0.5680	95.2600
 0.5690	95.1400
 0.5700	95.1400
 0.5710	95.3100
 0.5720	95.0800
 0.5730	94.8500
 0.5740	94.9600
 0.5750	95.1400
 0.5760	95.2600
 0.5770	95.0200
 0.5780	94.9100
 0.5790	95.0800
 0.5800	95.2600
 0.5810	95.4200
 0.5820	95.2000
 0.5830	94.9600
 0.5840	95.1400
 0.5850	95.4200
 0.5860	95.4200
 0.5870	95.0200
 0.5880	94.7900
 0.5890	94.9100
 0.5900	95.2000
 0.5910	95.0800
 0.5920	94.9100
 0.5930	94.9600
 0.5940	95.1400
 0.5950	95.2000
 0.5960	95.2000
 0.5970	95.0200
 0.5980	95.2000
 0.5990	95.3100
 0.6000	95.4800
 0.6010	95.5400
 0.6020	95.4800
 0.6030	95.6000
 0.6040	95.6600
 0.6050	95.8900
 0.6060	95.7800
 0.6070	95.6000
 0.6080	95.7800
 0.6090	95.8900
 0.6100	95.9500
 0.6110	96.0100
 0.6120	95.8400
 0.6130	96.0700
 0.6140	96.1300
 0.6150	96.3600
 0.6160	96.4200
 0.6170	96.3000
 0.6180	96.2500
 0.6190	96.0100
 0.6200	96.1900
 0.6210	96.4200
 0.6220	96.1900
 0.6230	96.2500
 0.6240	96.3600
 0.6250	96.4200
 0.6260	96.3600
 0.6270	96.0100
 0.6280	96.0100
 0.6290	96.0100
 0.6300	96.1300
 0.6310	96.1300
 0.6320	96.0100
 0.6330	95.9500
 0.6340	96.0100
 0.6350	96.1900
 0.6360	96.0700
 0.6370	95.8900
 0.6380	96.1300
 0.6390	96.4800
 0.6400	96.4800
 0.6410	96.2500
 0.6420	96.0100
 0.6430	96.1900
 0.6440	96.3600
 0.6450	96.3000
 0.6460	96.1300
 0.6470	96.0700
 0.6480	96.2500
 0.6490	96.4200
 0.6500	96.3000
 0.6510	96.1300
 0.6520	95.9500
 0.6530	96.2500
 0.6540	96.4200
 0.6550	96.4200
 0.6560	96.3600
 0.6570	96.2500
 0.6580	96.4200
 0.6590	96.4200
 0.6600	96.3600
 0.6610	96.4800
 0.6620	96.3600
 0.6630	96.5400
 0.6640	96.5400
 0.6650	96.4200
 0.6660	96.3600
 0.6670	96.1300
 0.6680	96.3600
 0.6690	96.5400
 0.6700	96.6000
 0.6710	96.4200
 0.6720	96.4200
 0.6730	96.6600
 0.6740	96.9400
 0.6750	96.9400
 0.6760	96.6600
 0.6770	96.2500
 0.6780	96.5400
 0.6790	96.6000
 0.6800	96.4200
 0.6810	96.3600
 0.6820	96.3000
 0.6830	96.3600
 0.6840	96.6600
 0.6850	96.3600
 0.6860	96.1900
 0.6870	96.2500
 0.6880	96.8300
 0.6890	96.8900
 0.6900	96.6600
 0.6910	96.6600
 0.6920	96.4800
 0.6930	96.6600
 0.6940	96.9400
 0.6950	96.9400
 0.6960	96.8300
 0.6970	96.4800
 0.6980	96.7700
 0.6990	96.7700
 0.7000	96.7700
 0.7010	96.5400
 0.7020	96.6600
 0.7030	96.6000
 0.7040	96.5400
 0.7050	96.5400
 0.7060	96.4800
 0.7070	96.7700
 0.7080	96.9400
 0.7090	97.0000
 0.7100	96.6600
 0.7110	96.5400
 0.7120	96.9400
 0.7130	97.1200
 0.7140	96.8900
 0.7150	96.3600
 0.7160	96.4800
 0.7170	96.7700
 0.7180	97.0600
 0.7190	96.6600
 0.7200	96.3600
 0.7210	96.6000
 0.7220	96.8900
 0.7230	97.0000
 0.7240	96.6600
 0.7250	96.4200
 0.7260	96.5400
 0.7270	96.8900
 0.7280	96.9400
 0.7290	96.6600
 0.7300	96.4800
 0.7310	96.6000
 0.7320	96.6000
 0.7330	96.8300
 0.7340	96.5400
 0.7350	96.6000
 0.7360	96.8300
 0.7370	97.0000
 0.7380	97.0000
 0.7390	96.5400
 0.7400	96.4800
 0.7410	96.6000
 0.7420	96.8300
 0.7430	96.9400
 0.7440	96.8300
 0.7450	96.4800
 0.7460	96.5400
 0.7470	96.6000
 0.7480	96.8300
 0.7490	96.6600
 0.7500	96.3600
 0.7510	96.3600
 0.7520	96.4200
 0.7530	96.6000
 0.7540	96.4800
 0.7550	96.1300
 0.7560	96.2500
 0.7570	96.3600
 0.7580	96.4800
 0.7590	96.4200
 0.7600	96.1900
 0.7610	96.3600
 0.7620	96.5400
 0.7630	96.8300
 0.7640	96.6000
 0.7650	96.3600
 0.7660	96.2500
 0.7670	96.3600
 0.7680	96.6600
 0.7690	96.6600
 0.7700	96.3600
 0.7710	96.2500
 0.7720	96.5400
 0.7730	96.8300
 0.7740	96.5400
 0.7750	96.4800
 0.7760	96.4200
 0.7770	96.4200
 0.7780	96.6000
 0.7790	96.8300
 0.7800	96.6600
 0.7810	96.4200
 0.7820	96.4800
 0.7830	96.5400
 0.7840	96.6600
 0.7850	96.3600
 0.7860	96.1900
 0.7870	96.4200
 0.7880	96.4800
 0.7890	96.6000
 0.7900	96.5400
 0.7910	96.2500
 0.7920	96.4800
 0.7930	96.5400
 0.7940	96.4800
 0.7950	96.3000
 0.7960	96.2500
 0.7970	96.6000
 0.7980	96.6600
 0.7990	95.7200
 0.8000	95.7300
 0.8040	95.7800
 0.8080	95.7800
 0.8120	95.6600
 0.8160	95.5400
 0.8200	95.6000
 0.8240	95.7200
 0.8280	95.6000
 0.8320	95.6000
 0.8360	95.6600
 0.8400	95.6000
 0.8440	95.6000
 0.8480	95.4200
 0.8520	95.6000
 0.8560	95.6600
 0.8600	95.6600
 0.8640	95.6600
 0.8680	95.6600
 0.8720	95.7200
 0.8760	95.7800
 0.8800	95.6000
 0.8840	95.6600
 0.8880	95.6000
 0.8920	95.6000
 0.8960	95.4800
 0.9000	95.6000
 0.9040	95.5400
 0.9080	95.4800
 0.9120	95.4800
 0.9160	95.4800
 0.9200	95.6000
 0.9240	95.4800
 0.9280	95.2000
 0.9320	95.3100
 0.9360	95.2600
 0.9400	95.2000
 0.9440	95.0200
 0.9480	95.0800
 0.9520	95.0800
 0.9560	94.8500
 0.9600	94.4400
 0.9640	94.3200
 0.9680	94.1400
 0.9720	93.9100
 0.9760	93.8500
 0.9800	94.0800
 0.9840	94.1400
 0.9880	94.2000
 0.9920	94.1400
 0.9960	94.1400
 1.0000	94.2000
 1.0040	94.3800
 1.0080	94.4400
 1.0120	94.3200
 1.0160	94.4400
 1.0200	94.6100
 1.0240	94.6700
 1.0280	94.7300
 1.0320	94.7900
 1.0360	94.9100
 1.0400	94.9100
 1.0440	95.0200
 1.0480	94.9600
 1.0520	95.0200
 1.0560	95.0200
 1.0600	95.1400
 1.0640	95.1400
 1.0680	95.2000
 1.0720	95.0800
 1.0760	95.2600
 1.0800	95.1400
 1.0840	95.1400
 1.0880	94.9600
 1.0920	95.0800
 1.0960	94.9100
 1.1000	94.9100
 1.1040	94.6700
 1.1080	94.7900
 1.1120	94.6700
 1.1160	94.5500
 1.1200	94.5500
 1.1240	94.5000
 1.1280	94.5500
 1.1320	94.3800
 1.1360	93.9700
 1.1400	93.7900
 1.1440	93.3900
 1.1480	92.6900
 1.1520	91.8700
 1.1560	91.4000
 1.1600	91.2700
 1.1640	91.2600
 1.1680	91.4200
 1.1720	91.4800
 1.1760	91.5900
 1.1800	91.2900
 1.1840	91.3900
 1.1880	91.3800
 1.1920	91.3300
 1.1960	91.2700
 1.2000	91.3200
 1.2040	91.3700
 1.2080	91.3700
 1.2120	91.2000
 1.2160	91.1400
 1.2200	91.1400
 1.2240	91.0800
 1.2280	90.9600
 1.2320	90.9600
 1.2360	90.8500
 1.2400	90.9000
 1.2440	90.7300
 1.2480	90.7300
 1.2520	90.6700
 1.2560	90.7200
 1.2600	90.6500
 1.2640	90.5200
 1.2680	90.5700
 1.2720	90.3500
 1.2760	90.4500
 1.2800	90.2100
 1.2840	90.3200
 1.2880	90.4200
 1.2920	90.6000
 1.2960	90.5900
 1.3000	90.8100
 1.3040	90.7500
 1.3080	90.7400
 1.3120	90.5000
 1.3160	90.3100
 1.3200	90.1400
 1.3240	89.8900
 1.3280	89.4700
 1.3320	89.1900
 1.3360	88.7700
 1.3400	88.4700
 1.3440	87.8200
 1.3480	87.5300
 1.3520	87.0600
 1.3560	86.8200
 1.3600	86.3600
 1.3640	86.1300
 1.3680	85.6000
 1.3720	85.2000
 1.3760	84.6700
 1.3800	84.2600
 1.3840	83.5100
 1.3880	82.7500
 1.3920	81.7100
 1.3960	80.5400
 1.4000	79.3200
 1.4040	77.7600
 1.4080	75.8500
 1.4120	73.7000
 1.4160	71.6100
 1.4200	70.1600
 1.4240	69.5200
 1.4280	69.7700
 1.4320	70.1200
 1.4360	70.3000
 1.4400	70.0700
 1.4440	69.6100
 1.4480	69.2700
 1.4520	68.5800
 1.4560	67.9900
 1.4600	67.3000
 1.4640	66.7100
 1.4680	66.3600
 1.4720	66.0100
 1.4760	65.7200
 1.4800	65.8400
 1.4840	66.0700
 1.4880	66.5300
 1.4920	67.0600
 1.4960	67.4700
 1.5000	68.4600
 1.5040	68.7500
 1.5080	68.9800
 1.5120	69.0900
 1.5160	69.2100
 1.5200	69.0400
 1.5240	68.9200
 1.5280	68.6900
 1.5320	68.4000
 1.5360	68.1100
 1.5400	67.7500
 1.5440	67.6400
 1.5480	67.4100
 1.5520	67.3000
 1.5560	67.2400
 1.5600	67.2400
 1.5640	67.2400
 1.5680	67.3000
 1.5720	67.3000
 1.5760	67.4700
 1.5800	67.5300
 1.5840	67.5300
 1.5880	67.4700
 1.5920	67.4700
 1.5960	67.3000
 1.6000	67.1800
 1.6040	67.0500
 1.6080	67.1100
 1.6120	66.7600
 1.6160	66.6300
 1.6200	66.4500
 1.6240	66.2100
 1.6280	66.0300
 1.6320	65.7400
 1.6360	65.6100
 1.6400	65.3800
 1.6440	65.0800
 1.6480	64.8400
 1.6520	64.7200
 1.6560	64.4300
 1.6600	64.2400
 1.6640	63.9500
 1.6680	63.8800
 1.6720	63.6000
 1.6760	63.4700
 1.6800	63.2900
 1.6840	63.3400
 1.6880	63.1100
 1.6920	63.0500
 1.6960	62.9200
 1.7000	62.9700
 1.7040	62.8600
 1.7080	62.8000
 1.7120	62.8000
 1.7160	62.8600
 1.7200	62.8000
 1.7240	62.8000
 1.7280	62.9100
 1.7320	62.8600
 1.7360	62.9100
 1.7400	62.8600
 1.7440	62.8600
 1.7480	62.6900
 1.7520	62.5700
 1.7560	62.3300
 1.7600	62.3300
 1.7640	62.0400
 1.7680	61.7600
 1.7720	61.5800
 1.7760	61.4100
 1.7800	61.1100
 1.7840	60.8300
 1.7880	60.5900
 1.7920	60.4800
 1.7960	60.1800
 1.8000	60.0100
 1.8040	59.9400
 1.8080	59.6800
 1.8120	59.4900
 1.8160	59.2900
 1.8200	59.2700
 1.8240	59.0900
 1.8280	58.8900
 1.8320	58.6900
 1.8360	58.6100
 1.8400	58.4300
 1.8440	58.1200
 1.8480	57.8700
 1.8520	57.6300
 1.8560	57.2100
 1.8600	56.7500
 1.8640	56.2200
 1.8680	55.5800
 1.8720	54.7100
 1.8760	53.6100
 1.8800	52.3300
 1.8840	50.8200
 1.8880	49.0800
 1.8920	46.9400
 1.8960	44.8500
 1.9000	42.7100
 1.9040	40.8000
 1.9080	39.3500
 1.9120	38.3700
 1.9160	37.6200
 1.9200	37.0900
 1.9240	36.8600
 1.9280	37.0200
 1.9320	37.0800
 1.9360	37.3100
 1.9400	37.7700
 1.9440	38.2800
 1.9480	38.6800
 1.9520	39.0900
 1.9560	39.5900
 1.9600	40.0400
 1.9640	40.2700
 1.9680	40.6000
 1.9720	40.7700
 1.9760	41.1600
 1.9800	41.2600
 1.9840	41.4300
 1.9880	41.6400
 1.9920	41.8700
 1.9960	42.0300
 2.0000	42.1900
 2.0040	42.3900
 2.0080	42.7000
 2.0120	42.8400
 2.0160	43.0000
 2.0200	43.1600
 2.0240	43.4100
 2.0280	43.6000
 2.0320	43.6900
 2.0360	43.8400
 2.0400	44.0500
 2.0440	44.2500
 2.0480	44.3200
 2.0520	44.4700
 2.0560	44.6800
 2.0600	44.7700
 2.0640	44.8700
 2.0680	45.0800
 2.0720	45.1700
 2.0760	45.2100
 2.0800	45.1900
 2.0840	45.3500
 2.0880	45.2100
 2.0920	45.3100
 2.0960	45.4000
 2.1000	45.6100
 2.1040	45.5900
 2.1080	45.6900
 2.1120	45.6700
 2.1160	45.8200
 2.1200	45.8000
 2.1240	45.6000
 2.1280	45.4400
 2.1320	45.1400
 2.1360	44.6900
 2.1400	44.3000
 2.1440	44.0200
 2.1480	43.9300
 2.1520	43.7900
 2.1560	43.8800
 2.1600	44.2000
 2.1640	44.4900
 2.1680	44.8300
 2.1720	45.1600
 2.1760	45.5600
 2.1800	45.7300
 2.1840	45.9400
 2.1880	46.0400
 2.1920	46.1900
 2.1960	46.1200
 2.2000	46.0400
 2.2040	45.8000
 2.2080	45.7500
 2.2120	45.5300
 2.2160	45.3800
 2.2200	45.3400
 2.2240	45.2200
 2.2280	45.0500
 2.2320	44.9800
 2.2360	44.8500
 2.2400	44.7800
 2.2440	44.7200
 2.2480	44.6600
 2.2520	44.7700
 2.2560	44.6900
 2.2600	44.5500
 2.2640	44.6100
 2.2680	44.6700
 2.2720	44.6600
 2.2760	44.7000
 2.2800	44.5700
 2.2840	44.7200
 2.2880	44.7100
 2.2920	44.6800
 2.2960	44.7000
 2.3000	44.8300
 2.3040	44.8100
 2.3080	44.6300
 2.3120	44.8300
 2.3160	44.8100
 2.3200	44.7400
 2.3240	44.7000
 2.3280	44.8400
 2.3320	44.6300
 2.3360	44.5300
 2.3400	44.3900
 2.3440	44.3700
 2.3480	44.2400
 2.3520	43.8800
 2.3560	43.6300
 2.3600	43.3900
 2.3640	43.0800
 2.3680	42.6100
 2.3720	42.2700
 2.3760	41.7600
 2.3800	41.2500
 2.3840	40.6100
 2.3880	40.0900
 2.3920	39.5700
 2.3960	38.9500
 2.4000	38.3800
 2.4040	37.8700
 2.4080	37.2500
 2.4120	36.8000
 2.4160	36.2800
 2.4200	35.8300
 2.4240	35.3700
 2.4280	35.0900
 2.4320	34.7000
 2.4360	34.4600
 2.4400	34.1800
 2.4440	33.8400
 2.4480	33.5500
 2.4520	33.3900
 2.4560	33.0400
 2.4600	32.7000
 2.4640	32.3000
 2.4680	31.9600
 2.4720	31.5700
 2.4760	30.9400
 2.4800	30.5400
 2.4840	30.0900
 2.4880	29.5700
 2.4920	28.9600
 2.4960	28.5100
 2.5000	28.0500
