Name: Vesuvianite Ca_10(Mg,Fe^2+)_2Al_4(Si_2O_7)_2(SiO_4)_5(OH,F)_4
Type: Mineral
Class: Silicate
Subclass: Sorosilicate
Particle Size: Fine
Sample No.: SS-3A
Owner: JPL
Wavelength Range: VSWIR
Origin: USA, California, Riverside County, Crestmore Quarry.
Collection Date: N/A
Description: Particle size was 0-45um.Collected by:  Burminco Original ASTER Spectral Library name was jpl.perkin.mineral.silicate.sorosilicate.fine.ss03a.spectrum.txt
Measurement: Hemispherical reflectance
First Column: X
Second Column: Y
X Units: Wavelength (micrometers)
Y Units:Reflectance (percent)
First X Value:  2.5000
Last X Value:  0.4000
Number of X Values: 2101
Additional Information: mineral.silicate.sorosilicate.fine.vswir.ss-3a.jpl.perkin.ancillary.txt

 2.5000	58.8259
 2.4990	58.9234
 2.4980	58.9491
 2.4970	59.1038
 2.4960	58.8154
 2.4950	59.1558
 2.4940	58.9303
 2.4930	58.9845
 2.4920	59.1659
 2.4910	59.2170
 2.4900	59.0411
 2.4890	59.1840
 2.4880	59.1032
 2.4870	59.2852
 2.4860	59.1550
 2.4850	59.2549
 2.4840	59.2968
 2.4830	59.1910
 2.4820	59.2100
 2.4810	59.3930
 2.4800	59.4481
 2.4790	59.3400
 2.4780	59.4225
 2.4770	59.4379
 2.4760	59.3508
 2.4750	59.5156
 2.4740	59.3959
 2.4730	59.4815
 2.4720	59.3920
 2.4710	59.6043
 2.4700	59.5391
 2.4690	59.5883
 2.4680	59.5005
 2.4670	59.6014
 2.4660	59.6099
 2.4650	59.7959
 2.4640	59.7056
 2.4630	59.7373
 2.4620	59.7320
 2.4610	59.7887
 2.4600	59.6667
 2.4590	59.7586
 2.4580	59.6871
 2.4570	59.7979
 2.4560	59.8310
 2.4550	59.7235
 2.4540	59.6926
 2.4530	59.8558
 2.4520	59.7314
 2.4510	59.7862
 2.4500	59.7498
 2.4490	59.7453
 2.4480	59.8008
 2.4470	59.8479
 2.4460	59.7853
 2.4450	59.7200
 2.4440	59.7317
 2.4430	59.7928
 2.4420	59.7637
 2.4410	59.7765
 2.4400	59.6868
 2.4390	59.7179
 2.4380	59.7168
 2.4370	59.6627
 2.4360	59.6897
 2.4350	59.6692
 2.4340	59.6262
 2.4330	59.7021
 2.4320	59.7004
 2.4310	59.7727
 2.4300	59.7342
 2.4290	59.7330
 2.4280	59.7741
 2.4270	59.8286
 2.4260	59.8093
 2.4250	59.7864
 2.4240	59.7450
 2.4230	59.8415
 2.4220	59.8467
 2.4210	59.8492
 2.4200	59.9327
 2.4190	59.9554
 2.4180	59.9143
 2.4170	59.9970
 2.4160	59.9066
 2.4150	59.9254
 2.4140	60.0418
 2.4130	60.0924
 2.4120	60.0165
 2.4110	59.9973
 2.4100	60.0778
 2.4090	60.1589
 2.4080	60.0991
 2.4070	60.1108
 2.4060	60.1114
 2.4050	60.1710
 2.4040	60.1418
 2.4030	60.1749
 2.4020	60.1551
 2.4010	60.2117
 2.4000	60.1939
 2.3990	60.2143
 2.3980	60.2560
 2.3970	60.3312
 2.3960	60.3292
 2.3950	60.3909
 2.3940	60.3637
 2.3930	60.4272
 2.3920	60.4709
 2.3910	60.6001
 2.3900	60.5918
 2.3890	60.6166
 2.3880	60.6047
 2.3870	60.6435
 2.3860	60.6173
 2.3850	60.6871
 2.3840	60.6884
 2.3830	60.6274
 2.3820	60.6777
 2.3810	60.7343
 2.3800	60.6767
 2.3790	60.6909
 2.3780	60.7146
 2.3770	60.6947
 2.3760	60.6052
 2.3750	60.5900
 2.3740	60.6168
 2.3730	60.6023
 2.3720	60.5341
 2.3710	60.4633
 2.3700	60.4348
 2.3690	60.4329
 2.3680	60.3933
 2.3670	60.3468
 2.3660	60.2643
 2.3650	60.1911
 2.3640	60.1251
 2.3630	60.1076
 2.3620	60.0516
 2.3610	60.0341
 2.3600	59.9652
 2.3590	59.7867
 2.3580	59.7604
 2.3570	59.7358
 2.3560	59.6331
 2.3550	59.6045
 2.3540	59.6114
 2.3530	59.6006
 2.3520	59.5648
 2.3510	59.5172
 2.3500	59.5482
 2.3490	59.6161
 2.3480	59.6112
 2.3470	59.6722
 2.3460	59.7353
 2.3450	59.7425
 2.3440	59.8219
 2.3430	59.8927
 2.3420	59.9702
 2.3410	60.0397
 2.3400	60.1352
 2.3390	60.2136
 2.3380	60.3382
 2.3370	60.4622
 2.3360	60.6401
 2.3350	60.7183
 2.3340	60.7654
 2.3330	60.8831
 2.3320	61.0550
 2.3310	61.1817
 2.3300	61.2936
 2.3290	61.3666
 2.3280	61.4592
 2.3270	61.5789
 2.3260	61.7084
 2.3250	61.8024
 2.3240	61.9216
 2.3230	61.9819
 2.3220	62.0442
 2.3210	62.0827
 2.3200	62.2005
 2.3190	62.2194
 2.3180	62.2655
 2.3170	62.2910
 2.3160	62.3114
 2.3150	62.3885
 2.3140	62.4357
 2.3130	62.5001
 2.3120	62.5028
 2.3110	62.4788
 2.3100	62.5576
 2.3090	62.6118
 2.3080	62.6513
 2.3070	62.6919
 2.3060	62.7686
 2.3050	62.7883
 2.3040	62.8673
 2.3030	62.9167
 2.3020	63.0341
 2.3010	63.1128
 2.3000	63.2572
 2.2990	63.3243
 2.2980	63.4932
 2.2970	63.5432
 2.2960	63.6422
 2.2950	63.7680
 2.2940	63.9338
 2.2930	64.0509
 2.2920	64.1141
 2.2910	64.2630
 2.2900	64.3820
 2.2890	64.4660
 2.2880	64.5802
 2.2870	64.6589
 2.2860	64.7715
 2.2850	64.8775
 2.2840	64.9376
 2.2830	65.0304
 2.2820	65.1567
 2.2810	65.2420
 2.2800	65.3610
 2.2790	65.3463
 2.2780	65.4578
 2.2770	65.4874
 2.2760	65.5396
 2.2750	65.5705
 2.2740	65.6677
 2.2730	65.7237
 2.2720	65.8406
 2.2710	65.8910
 2.2700	65.9958
 2.2690	66.0212
 2.2680	66.1003
 2.2670	66.0874
 2.2660	66.1870
 2.2650	66.3614
 2.2640	66.4398
 2.2630	66.4982
 2.2620	66.5420
 2.2610	66.5801
 2.2600	66.7731
 2.2590	66.8855
 2.2580	66.9973
 2.2570	67.0758
 2.2560	67.0737
 2.2550	67.1885
 2.2540	67.2914
 2.2530	67.3745
 2.2520	67.5114
 2.2510	67.5402
 2.2500	67.5655
 2.2490	67.7045
 2.2480	67.8615
 2.2470	67.9282
 2.2460	67.9968
 2.2450	68.0648
 2.2440	68.0754
 2.2430	68.1871
 2.2420	68.2691
 2.2410	68.3689
 2.2400	68.4150
 2.2390	68.4498
 2.2380	68.5439
 2.2370	68.5707
 2.2360	68.6166
 2.2350	68.7092
 2.2340	68.7459
 2.2330	68.7139
 2.2320	68.7956
 2.2310	68.8498
 2.2300	68.8865
 2.2290	68.9304
 2.2280	69.0350
 2.2270	69.0552
 2.2260	69.0713
 2.2250	69.1099
 2.2240	69.1694
 2.2230	69.2265
 2.2220	69.2721
 2.2210	69.1990
 2.2200	69.2787
 2.2190	69.2907
 2.2180	69.3531
 2.2170	69.3796
 2.2160	69.4146
 2.2150	69.4938
 2.2140	69.4703
 2.2130	69.5755
 2.2120	69.6611
 2.2110	69.5977
 2.2100	69.8417
 2.2090	69.8890
 2.2080	70.1073
 2.2070	70.1211
 2.2060	70.2754
 2.2050	70.3769
 2.2040	70.5539
 2.2030	70.6229
 2.2020	70.8104
 2.2010	70.9131
 2.2000	71.0844
 2.1990	71.2205
 2.1980	71.3531
 2.1970	71.4216
 2.1960	71.5937
 2.1950	71.6395
 2.1940	71.7207
 2.1930	71.8587
 2.1920	71.8665
 2.1910	71.9506
 2.1900	71.9608
 2.1890	71.9664
 2.1880	72.1585
 2.1870	72.1841
 2.1860	72.2180
 2.1850	72.3060
 2.1840	72.3245
 2.1830	72.3422
 2.1820	72.4707
 2.1810	72.5466
 2.1800	72.5687
 2.1790	72.5740
 2.1780	72.7209
 2.1770	72.6400
 2.1760	72.7361
 2.1750	72.8058
 2.1740	72.8258
 2.1730	72.8956
 2.1720	72.9074
 2.1710	72.9922
 2.1700	72.9801
 2.1690	73.0694
 2.1680	73.1902
 2.1670	73.1272
 2.1660	73.2038
 2.1650	73.2248
 2.1640	73.2397
 2.1630	73.2960
 2.1620	73.2741
 2.1610	73.3683
 2.1600	73.3455
 2.1590	73.3813
 2.1580	73.4023
 2.1570	73.3151
 2.1560	73.2999
 2.1550	73.3956
 2.1540	73.4270
 2.1530	73.3886
 2.1520	73.3981
 2.1510	73.4182
 2.1500	73.4333
 2.1490	73.5394
 2.1480	73.5155
 2.1470	73.4925
 2.1460	73.4704
 2.1450	73.5560
 2.1440	73.5301
 2.1430	73.6165
 2.1420	73.7091
 2.1410	73.7538
 2.1400	73.8721
 2.1390	73.9033
 2.1380	73.9518
 2.1370	73.9148
 2.1360	74.0644
 2.1350	74.0901
 2.1340	74.1719
 2.1330	74.2255
 2.1320	74.3184
 2.1310	74.3297
 2.1300	74.4260
 2.1290	74.5074
 2.1280	74.5729
 2.1270	74.5632
 2.1260	74.5686
 2.1250	74.6397
 2.1240	74.6840
 2.1230	74.7331
 2.1220	74.8112
 2.1210	74.8490
 2.1200	74.8603
 2.1190	74.8617
 2.1180	74.9210
 2.1170	74.9083
 2.1160	74.9603
 2.1150	74.9504
 2.1140	74.9939
 2.1130	75.0281
 2.1120	75.0610
 2.1110	75.1175
 2.1100	75.1618
 2.1090	75.1330
 2.1080	75.1128
 2.1070	75.1446
 2.1060	75.1968
 2.1050	75.2446
 2.1040	75.2611
 2.1030	75.2248
 2.1020	75.2813
 2.1010	75.3222
 2.1000	75.3334
 2.0990	75.3295
 2.0980	75.3742
 2.0970	75.4695
 2.0960	75.5206
 2.0950	75.5770
 2.0940	75.6211
 2.0930	75.6956
 2.0920	75.7478
 2.0910	75.7653
 2.0900	75.8019
 2.0890	75.8865
 2.0880	75.9397
 2.0870	75.9468
 2.0860	75.9995
 2.0850	75.9937
 2.0840	75.9984
 2.0830	76.0536
 2.0820	76.0899
 2.0810	76.1458
 2.0800	76.1786
 2.0790	76.2063
 2.0780	76.2148
 2.0770	76.3075
 2.0760	76.3480
 2.0750	76.2753
 2.0740	76.3045
 2.0730	76.3250
 2.0720	76.3093
 2.0710	76.3455
 2.0700	76.4090
 2.0690	76.5008
 2.0680	76.4978
 2.0670	76.4564
 2.0660	76.4718
 2.0650	76.4859
 2.0640	76.4880
 2.0630	76.4851
 2.0620	76.5277
 2.0610	76.5724
 2.0600	76.5666
 2.0590	76.6076
 2.0580	76.6029
 2.0570	76.6136
 2.0560	76.6680
 2.0550	76.6967
 2.0540	76.6640
 2.0530	76.6913
 2.0520	76.7198
 2.0510	76.6879
 2.0500	76.7113
 2.0490	76.7825
 2.0480	76.8180
 2.0470	76.8162
 2.0460	76.8074
 2.0450	76.8919
 2.0440	76.8881
 2.0430	76.9223
 2.0420	76.9285
 2.0410	76.9689
 2.0400	77.0104
 2.0390	76.9887
 2.0380	76.9078
 2.0370	76.9107
 2.0360	76.9448
 2.0350	76.9946
 2.0340	77.0064
 2.0330	76.9896
 2.0320	76.9477
 2.0310	76.9219
 2.0300	76.9784
 2.0290	76.9298
 2.0280	76.8872
 2.0270	76.9101
 2.0260	76.8660
 2.0250	76.8788
 2.0240	76.8214
 2.0230	76.8103
 2.0220	76.8203
 2.0210	76.8090
 2.0200	76.8095
 2.0190	76.8047
 2.0180	76.8012
 2.0170	76.7763
 2.0160	76.7536
 2.0150	76.8030
 2.0140	76.8119
 2.0130	76.7926
 2.0120	76.7392
 2.0110	76.7000
 2.0100	76.6918
 2.0090	76.8088
 2.0080	76.7859
 2.0070	76.7325
 2.0060	76.6777
 2.0050	76.7085
 2.0040	76.6949
 2.0030	76.6573
 2.0020	76.5985
 2.0010	76.5960
 2.0000	76.5334
 1.9990	76.5244
 1.9980	76.4858
 1.9970	76.4930
 1.9960	76.3833
 1.9950	76.3125
 1.9940	76.2778
 1.9930	76.3181
 1.9920	76.1457
 1.9910	76.1424
 1.9900	76.0487
 1.9890	76.0214
 1.9880	76.0583
 1.9870	76.0196
 1.9860	75.9598
 1.9850	76.0224
 1.9840	76.0410
 1.9830	76.0545
 1.9820	76.0563
 1.9810	76.1644
 1.9800	76.1224
 1.9790	76.1719
 1.9780	76.2408
 1.9770	76.2256
 1.9760	76.3040
 1.9750	76.3386
 1.9740	76.3487
 1.9730	76.3514
 1.9720	76.3081
 1.9710	76.4387
 1.9700	76.3726
 1.9690	76.4176
 1.9680	76.4494
 1.9670	76.4039
 1.9660	76.4389
 1.9650	76.4957
 1.9640	76.4798
 1.9630	76.5067
 1.9620	76.5308
 1.9610	76.5754
 1.9600	76.6607
 1.9590	76.7574
 1.9580	76.6567
 1.9570	76.7175
 1.9560	76.8215
 1.9550	76.8218
 1.9540	76.8671
 1.9530	76.7924
 1.9520	76.8320
 1.9510	76.9152
 1.9500	76.9732
 1.9490	76.8898
 1.9480	76.9704
 1.9470	77.0139
 1.9460	76.9639
 1.9450	77.0003
 1.9440	77.0711
 1.9430	77.1031
 1.9420	77.0515
 1.9410	77.0905
 1.9400	77.0277
 1.9390	77.2087
 1.9380	77.1679
 1.9370	77.1415
 1.9360	77.1400
 1.9350	77.1372
 1.9340	77.1870
 1.9330	77.3240
 1.9320	77.2034
 1.9310	77.2364
 1.9300	77.2706
 1.9290	77.2930
 1.9280	77.2734
 1.9270	77.3663
 1.9260	77.2640
 1.9250	77.3330
 1.9240	77.3497
 1.9230	77.3022
 1.9220	77.3790
 1.9210	77.4035
 1.9200	77.4319
 1.9190	77.4142
 1.9180	77.4491
 1.9170	77.4014
 1.9160	77.4257
 1.9150	77.5561
 1.9140	77.5670
 1.9130	77.6008
 1.9120	77.4916
 1.9110	77.5778
 1.9100	77.6623
 1.9090	77.7264
 1.9080	77.7197
 1.9070	77.7400
 1.9060	77.7141
 1.9050	77.8335
 1.9040	77.8430
 1.9030	77.9020
 1.9020	77.9504
 1.9010	77.9605
 1.9000	78.0025
 1.8990	78.0459
 1.8980	78.1167
 1.8970	78.0993
 1.8960	78.2054
 1.8950	78.2334
 1.8940	78.1896
 1.8930	78.3827
 1.8920	78.2944
 1.8910	78.3151
 1.8900	78.3745
 1.8890	78.4370
 1.8880	78.5340
 1.8870	78.5283
 1.8860	78.6320
 1.8850	78.5429
 1.8840	78.5844
 1.8830	78.6179
 1.8820	78.7013
 1.8810	78.7043
 1.8800	78.6858
 1.8790	78.7438
 1.8780	78.7377
 1.8770	78.8199
 1.8760	78.8338
 1.8750	78.8429
 1.8740	78.8349
 1.8730	78.8658
 1.8720	78.8935
 1.8710	78.9360
 1.8700	78.8832
 1.8690	78.9463
 1.8680	78.9849
 1.8670	78.9307
 1.8660	79.0076
 1.8650	79.0493
 1.8640	79.0805
 1.8630	79.0581
 1.8620	79.1187
 1.8610	79.1542
 1.8600	79.1248
 1.8590	79.1970
 1.8580	79.1424
 1.8570	79.1628
 1.8560	79.1669
 1.8550	79.1588
 1.8540	79.1998
 1.8530	79.2443
 1.8520	79.2116
 1.8510	79.2250
 1.8500	79.2123
 1.8490	79.3178
 1.8480	79.2918
 1.8470	79.3058
 1.8460	79.3003
 1.8450	79.2783
 1.8440	79.2729
 1.8430	79.3054
 1.8420	79.3218
 1.8410	79.3671
 1.8400	79.3531
 1.8390	79.4315
 1.8380	79.4099
 1.8370	79.3590
 1.8360	79.3441
 1.8350	79.3689
 1.8340	79.3830
 1.8330	79.3830
 1.8320	79.4049
 1.8310	79.4201
 1.8300	79.4097
 1.8290	79.4010
 1.8280	79.4508
 1.8270	79.5005
 1.8260	79.4942
 1.8250	79.5093
 1.8240	79.4956
 1.8230	79.5350
 1.8220	79.5859
 1.8210	79.5910
 1.8200	79.5327
 1.8190	79.5651
 1.8180	79.5628
 1.8170	79.5729
 1.8160	79.5775
 1.8150	79.6135
 1.8140	79.6021
 1.8130	79.6186
 1.8120	79.6299
 1.8110	79.6813
 1.8100	79.6691
 1.8090	79.6504
 1.8080	79.6292
 1.8070	79.6720
 1.8060	79.7144
 1.8050	79.7074
 1.8040	79.6664
 1.8030	79.6504
 1.8020	79.7269
 1.8010	79.7087
 1.8000	79.6837
 1.7990	79.7010
 1.7980	79.6753
 1.7970	79.6834
 1.7960	79.7163
 1.7950	79.6899
 1.7940	79.7095
 1.7930	79.7231
 1.7920	79.7287
 1.7910	79.7605
 1.7900	79.7509
 1.7890	79.7341
 1.7880	79.7035
 1.7870	79.6962
 1.7860	79.6958
 1.7850	79.7338
 1.7840	79.7150
 1.7830	79.6737
 1.7820	79.7275
 1.7810	79.7344
 1.7800	79.7076
 1.7790	79.6920
 1.7780	79.6722
 1.7770	79.6944
 1.7760	79.7158
 1.7750	79.6840
 1.7740	79.6582
 1.7730	79.6918
 1.7720	79.7105
 1.7710	79.7277
 1.7700	79.7036
 1.7690	79.7137
 1.7680	79.7331
 1.7670	79.7188
 1.7660	79.7587
 1.7650	79.6983
 1.7640	79.7186
 1.7630	79.7461
 1.7620	79.7198
 1.7610	79.6994
 1.7600	79.6858
 1.7590	79.7284
 1.7580	79.7988
 1.7570	79.8104
 1.7560	79.7188
 1.7550	79.7880
 1.7540	79.8446
 1.7530	79.7686
 1.7520	79.7926
 1.7510	79.7692
 1.7500	79.8259
 1.7490	79.8577
 1.7480	79.8462
 1.7470	79.8236
 1.7460	79.9037
 1.7450	79.8874
 1.7440	79.8524
 1.7430	79.9043
 1.7420	79.9209
 1.7410	79.9397
 1.7400	79.9077
 1.7390	79.8657
 1.7380	79.8935
 1.7370	79.8831
 1.7360	79.9279
 1.7350	79.8511
 1.7340	79.8643
 1.7330	79.9418
 1.7320	79.9348
 1.7310	79.9502
 1.7300	79.9821
 1.7290	79.9970
 1.7280	79.9374
 1.7270	79.9711
 1.7260	80.0305
 1.7250	79.9830
 1.7240	79.9371
 1.7230	79.9549
 1.7220	79.9652
 1.7210	79.9282
 1.7200	79.9941
 1.7190	79.9754
 1.7180	79.9800
 1.7170	79.9711
 1.7160	79.9757
 1.7150	80.0619
 1.7140	80.0858
 1.7130	79.9654
 1.7120	80.0111
 1.7110	79.9626
 1.7100	80.0160
 1.7090	79.9990
 1.7080	80.0000
 1.7070	79.9993
 1.7060	80.0171
 1.7050	79.9940
 1.7040	80.0503
 1.7030	79.9772
 1.7020	80.0049
 1.7010	79.9880
 1.7000	79.9676
 1.6990	79.9831
 1.6980	79.9750
 1.6970	79.9893
 1.6960	80.0556
 1.6950	80.0679
 1.6940	80.0007
 1.6930	79.9701
 1.6920	80.0233
 1.6910	79.9564
 1.6900	79.9288
 1.6890	80.0585
 1.6880	80.0424
 1.6870	80.0722
 1.6860	80.0562
 1.6850	80.0157
 1.6840	80.0352
 1.6830	80.0282
 1.6820	80.0592
 1.6810	80.0978
 1.6800	80.0088
 1.6790	80.0506
 1.6780	80.0168
 1.6770	80.0006
 1.6760	80.0860
 1.6750	80.1004
 1.6740	80.0542
 1.6730	80.1409
 1.6720	80.1042
 1.6710	80.1013
 1.6700	80.1761
 1.6690	80.2130
 1.6680	80.1309
 1.6670	80.1560
 1.6660	80.1805
 1.6650	80.1255
 1.6640	80.1132
 1.6630	80.1029
 1.6620	80.2401
 1.6610	80.2240
 1.6600	80.2344
 1.6590	80.1956
 1.6580	80.3047
 1.6570	80.2364
 1.6560	80.2702
 1.6550	80.2367
 1.6540	80.2899
 1.6530	80.2471
 1.6520	80.2317
 1.6510	80.2740
 1.6500	80.2862
 1.6490	80.2641
 1.6480	80.2777
 1.6470	80.2642
 1.6460	80.3249
 1.6450	80.3345
 1.6440	80.3457
 1.6430	80.2846
 1.6420	80.3978
 1.6410	80.2749
 1.6400	80.3961
 1.6390	80.3039
 1.6380	80.3566
 1.6370	80.3438
 1.6360	80.3630
 1.6350	80.2889
 1.6340	80.3551
 1.6330	80.3281
 1.6320	80.4010
 1.6310	80.4137
 1.6300	80.4018
 1.6290	80.4519
 1.6280	80.4232
 1.6270	80.5156
 1.6260	80.4574
 1.6250	80.3553
 1.6240	80.4415
 1.6230	80.4659
 1.6220	80.4048
 1.6210	80.4526
 1.6200	80.4131
 1.6190	80.3819
 1.6180	80.4620
 1.6170	80.4551
 1.6160	80.5081
 1.6150	80.5400
 1.6140	80.4695
 1.6130	80.4928
 1.6120	80.5920
 1.6110	80.5975
 1.6100	80.5407
 1.6090	80.6006
 1.6080	80.4939
 1.6070	80.5355
 1.6060	80.6132
 1.6050	80.5706
 1.6040	80.5340
 1.6030	80.5551
 1.6020	80.4958
 1.6010	80.5364
 1.6000	80.5451
 1.5990	80.5713
 1.5980	80.6113
 1.5970	80.5795
 1.5960	80.5912
 1.5950	80.5357
 1.5940	80.5456
 1.5930	80.4774
 1.5920	80.5184
 1.5910	80.5604
 1.5900	80.6511
 1.5890	80.5453
 1.5880	80.4498
 1.5870	80.5749
 1.5860	80.5999
 1.5850	80.5846
 1.5840	80.6161
 1.5830	80.5227
 1.5820	80.6015
 1.5810	80.5630
 1.5800	80.6096
 1.5790	80.5423
 1.5780	80.6019
 1.5770	80.6489
 1.5760	80.5993
 1.5750	80.5020
 1.5740	80.5698
 1.5730	80.5497
 1.5720	80.5890
 1.5710	80.5491
 1.5700	80.6305
 1.5690	80.6593
 1.5680	80.5945
 1.5670	80.4744
 1.5660	80.5181
 1.5650	80.5072
 1.5640	80.5926
 1.5630	80.5565
 1.5620	80.5651
 1.5610	80.5623
 1.5600	80.6066
 1.5590	80.5914
 1.5580	80.5834
 1.5570	80.5534
 1.5560	80.6005
 1.5550	80.5807
 1.5540	80.5512
 1.5530	80.5204
 1.5520	80.5261
 1.5510	80.5381
 1.5500	80.6326
 1.5490	80.6012
 1.5480	80.5679
 1.5470	80.5164
 1.5460	80.5268
 1.5450	80.5773
 1.5440	80.6090
 1.5430	80.5666
 1.5420	80.5431
 1.5410	80.5466
 1.5400	80.5257
 1.5390	80.5026
 1.5380	80.4565
 1.5370	80.4427
 1.5360	80.4653
 1.5350	80.5045
 1.5340	80.5487
 1.5330	80.4933
 1.5320	80.5044
 1.5310	80.5106
 1.5300	80.4587
 1.5290	80.4515
 1.5280	80.4692
 1.5270	80.4822
 1.5260	80.4842
 1.5250	80.4336
 1.5240	80.4206
 1.5230	80.4080
 1.5220	80.4176
 1.5210	80.4288
 1.5200	80.4419
 1.5190	80.4225
 1.5180	80.4048
 1.5170	80.4115
 1.5160	80.4758
 1.5150	80.4718
 1.5140	80.4301
 1.5130	80.4097
 1.5120	80.3591
 1.5110	80.3761
 1.5100	80.3683
 1.5090	80.3738
 1.5080	80.3913
 1.5070	80.3495
 1.5060	80.3080
 1.5050	80.2824
 1.5040	80.3295
 1.5030	80.3513
 1.5020	80.2627
 1.5010	80.2319
 1.5000	80.2681
 1.4990	80.2688
 1.4980	80.2132
 1.4970	80.1930
 1.4960	80.2212
 1.4950	80.2251
 1.4940	80.1524
 1.4930	80.1607
 1.4920	80.1983
 1.4910	80.1356
 1.4900	80.1314
 1.4890	80.1050
 1.4880	80.0832
 1.4870	80.1009
 1.4860	80.0666
 1.4850	80.0658
 1.4840	80.0695
 1.4830	80.0729
 1.4820	80.0187
 1.4810	79.9567
 1.4800	79.9312
 1.4790	79.9542
 1.4780	79.9292
 1.4770	79.9491
 1.4760	79.9171
 1.4750	79.9075
 1.4740	79.8500
 1.4730	79.8717
 1.4720	79.8764
 1.4710	79.8558
 1.4700	79.8158
 1.4690	79.7891
 1.4680	79.7631
 1.4670	79.7796
 1.4660	79.7227
 1.4650	79.6885
 1.4640	79.6930
 1.4630	79.6794
 1.4620	79.6800
 1.4610	79.7438
 1.4600	79.7080
 1.4590	79.6713
 1.4580	79.6142
 1.4570	79.6029
 1.4560	79.6191
 1.4550	79.6471
 1.4540	79.6055
 1.4530	79.6238
 1.4520	79.5965
 1.4510	79.5531
 1.4500	79.5819
 1.4490	79.5341
 1.4480	79.4655
 1.4470	79.3887
 1.4460	79.3151
 1.4450	79.3247
 1.4440	79.2018
 1.4430	79.1977
 1.4420	79.1235
 1.4410	78.9625
 1.4400	78.7745
 1.4390	78.7943
 1.4380	78.6942
 1.4370	78.6712
 1.4360	78.6269
 1.4350	78.6555
 1.4340	78.6461
 1.4330	78.7182
 1.4320	78.7702
 1.4310	78.8867
 1.4300	78.9100
 1.4290	79.0429
 1.4280	79.1094
 1.4270	79.2479
 1.4260	79.2638
 1.4250	79.3695
 1.4240	79.3809
 1.4230	79.3899
 1.4220	79.3309
 1.4210	79.3696
 1.4200	79.3482
 1.4190	79.2725
 1.4180	79.1249
 1.4170	79.0297
 1.4160	78.8534
 1.4150	78.7955
 1.4140	78.6041
 1.4130	78.5013
 1.4120	78.4353
 1.4110	78.3514
 1.4100	78.2327
 1.4090	78.1426
 1.4080	78.1035
 1.4070	78.1460
 1.4060	78.0996
 1.4050	78.1041
 1.4040	78.1154
 1.4030	78.1391
 1.4020	78.0689
 1.4010	78.0567
 1.4000	78.0656
 1.3990	78.0241
 1.3980	78.0126
 1.3970	78.0670
 1.3960	78.1249
 1.3950	78.1472
 1.3940	78.1656
 1.3930	78.3344
 1.3920	78.5324
 1.3910	78.7204
 1.3900	78.8771
 1.3890	79.1697
 1.3880	79.3030
 1.3870	79.5695
 1.3860	79.8834
 1.3850	79.9858
 1.3840	80.1619
 1.3830	80.2843
 1.3820	80.3031
 1.3810	80.3995
 1.3800	80.5643
 1.3790	80.5108
 1.3780	80.5119
 1.3770	80.5941
 1.3760	80.6579
 1.3750	80.7098
 1.3740	80.6991
 1.3730	80.7732
 1.3720	80.7769
 1.3710	80.7797
 1.3700	80.7934
 1.3690	80.7919
 1.3680	80.8172
 1.3670	80.8475
 1.3660	80.7828
 1.3650	80.8752
 1.3640	80.8730
 1.3630	80.8536
 1.3620	80.8079
 1.3610	80.8761
 1.3600	80.8454
 1.3590	80.8412
 1.3580	80.8776
 1.3570	80.9226
 1.3560	80.8673
 1.3550	80.9362
 1.3540	80.8404
 1.3530	80.9533
 1.3520	80.8742
 1.3510	80.9368
 1.3500	80.8599
 1.3490	80.9041
 1.3480	80.8788
 1.3470	80.9572
 1.3460	80.9009
 1.3450	80.9202
 1.3440	80.9375
 1.3430	80.8535
 1.3420	80.8982
 1.3410	80.9583
 1.3400	80.8596
 1.3390	80.9166
 1.3380	80.9838
 1.3370	80.8938
 1.3360	80.9915
 1.3350	80.9926
 1.3340	80.8969
 1.3330	81.0073
 1.3320	80.8930
 1.3310	80.9058
 1.3300	80.9012
 1.3290	80.9208
 1.3280	80.9197
 1.3270	80.8947
 1.3260	80.8905
 1.3250	80.8276
 1.3240	80.8388
 1.3230	80.8957
 1.3220	80.8616
 1.3210	80.9090
 1.3200	80.8571
 1.3190	80.8275
 1.3180	80.8368
 1.3170	80.8223
 1.3160	80.8777
 1.3150	80.9497
 1.3140	80.8576
 1.3130	80.8750
 1.3120	80.8270
 1.3110	80.8908
 1.3100	80.8272
 1.3090	80.9430
 1.3080	80.8754
 1.3070	80.9444
 1.3060	80.8913
 1.3050	80.8493
 1.3040	80.8984
 1.3030	80.9020
 1.3020	80.8662
 1.3010	80.8754
 1.3000	80.8538
 1.2990	80.8495
 1.2980	80.8774
 1.2970	80.8450
 1.2960	80.8965
 1.2950	80.9428
 1.2940	80.7740
 1.2930	80.8112
 1.2920	80.8380
 1.2910	80.8310
 1.2900	80.8537
 1.2890	80.8082
 1.2880	80.8220
 1.2870	80.8898
 1.2860	80.9385
 1.2850	80.9150
 1.2840	80.8657
 1.2830	80.7966
 1.2820	80.7938
 1.2810	80.8143
 1.2800	80.7961
 1.2790	80.7608
 1.2780	80.8254
 1.2770	80.7621
 1.2760	80.7532
 1.2750	80.7230
 1.2740	80.7330
 1.2730	80.7644
 1.2720	80.7585
 1.2710	80.7288
 1.2700	80.7646
 1.2690	80.7635
 1.2680	80.7263
 1.2670	80.7116
 1.2660	80.6913
 1.2650	80.7243
 1.2640	80.6745
 1.2630	80.6999
 1.2620	80.7338
 1.2610	80.6895
 1.2600	80.6535
 1.2590	80.6791
 1.2580	80.6948
 1.2570	80.7374
 1.2560	80.6968
 1.2550	80.6934
 1.2540	80.6393
 1.2530	80.7027
 1.2520	80.7377
 1.2510	80.6991
 1.2500	80.6968
 1.2490	80.7403
 1.2480	80.6536
 1.2470	80.6933
 1.2460	80.7297
 1.2450	80.7178
 1.2440	80.6691
 1.2430	80.6499
 1.2420	80.6735
 1.2410	80.6731
 1.2400	80.6868
 1.2390	80.7053
 1.2380	80.7067
 1.2370	80.6585
 1.2360	80.6601
 1.2350	80.6635
 1.2340	80.5973
 1.2330	80.6192
 1.2320	80.5913
 1.2310	80.5853
 1.2300	80.6471
 1.2290	80.6290
 1.2280	80.5342
 1.2270	80.5799
 1.2260	80.6195
 1.2250	80.5518
 1.2240	80.5423
 1.2230	80.6003
 1.2220	80.5982
 1.2210	80.5476
 1.2200	80.5585
 1.2190	80.5885
 1.2180	80.5973
 1.2170	80.6012
 1.2160	80.5330
 1.2150	80.4974
 1.2140	80.5174
 1.2130	80.5187
 1.2120	80.5069
 1.2110	80.5074
 1.2100	80.5137
 1.2090	80.5168
 1.2080	80.4997
 1.2070	80.4317
 1.2060	80.4547
 1.2050	80.4794
 1.2040	80.4715
 1.2030	80.4894
 1.2020	80.4403
 1.2010	80.4022
 1.2000	80.4122
 1.1990	80.3457
 1.1980	80.3883
 1.1970	80.4005
 1.1960	80.4222
 1.1950	80.4441
 1.1940	80.3799
 1.1930	80.3857
 1.1920	80.3998
 1.1910	80.3968
 1.1900	80.4133
 1.1890	80.4006
 1.1880	80.3427
 1.1870	80.3612
 1.1860	80.3644
 1.1850	80.3289
 1.1840	80.3160
 1.1830	80.2614
 1.1820	80.2822
 1.1810	80.2773
 1.1800	80.2842
 1.1790	80.3138
 1.1780	80.3533
 1.1770	80.3437
 1.1760	80.2885
 1.1750	80.2535
 1.1740	80.3296
 1.1730	80.3433
 1.1720	80.3058
 1.1710	80.2244
 1.1700	80.2501
 1.1690	80.2307
 1.1680	80.2019
 1.1670	80.1894
 1.1660	80.2045
 1.1650	80.2685
 1.1640	80.2677
 1.1630	80.2309
 1.1620	80.2463
 1.1610	80.2155
 1.1600	80.1610
 1.1590	80.1716
 1.1580	80.1786
 1.1570	80.2135
 1.1560	80.2159
 1.1550	80.1576
 1.1540	80.1569
 1.1530	80.0539
 1.1520	80.1220
 1.1510	80.0675
 1.1500	80.1289
 1.1490	80.1790
 1.1480	80.1744
 1.1470	80.1219
 1.1460	80.1444
 1.1450	80.0696
 1.1440	80.1058
 1.1430	80.1237
 1.1420	80.1719
 1.1410	80.1346
 1.1400	80.1161
 1.1390	80.0674
 1.1380	80.0705
 1.1370	80.0227
 1.1360	80.0781
 1.1350	80.0260
 1.1340	80.0199
 1.1330	80.0331
 1.1320	80.0674
 1.1310	80.0577
 1.1300	80.0694
 1.1290	80.0587
 1.1280	80.0297
 1.1270	79.9917
 1.1260	80.0047
 1.1250	80.0058
 1.1240	80.0146
 1.1230	79.9841
 1.1220	79.9929
 1.1210	79.9989
 1.1200	79.9561
 1.1190	79.9169
 1.1180	79.9714
 1.1170	80.0292
 1.1160	79.9661
 1.1150	80.0832
 1.1140	80.0196
 1.1130	80.0168
 1.1120	80.0182
 1.1110	79.9842
 1.1100	80.0057
 1.1090	79.9032
 1.1080	79.9060
 1.1070	79.9240
 1.1060	80.0167
 1.1050	79.9092
 1.1040	79.9254
 1.1030	79.8949
 1.1020	79.9127
 1.1010	79.9122
 1.1000	79.9107
 1.0990	79.8715
 1.0980	79.8988
 1.0970	79.8394
 1.0960	79.8981
 1.0950	79.8340
 1.0940	79.8495
 1.0930	79.7896
 1.0920	79.8018
 1.0910	79.8531
 1.0900	79.7981
 1.0890	79.8197
 1.0880	79.8693
 1.0870	79.7500
 1.0860	79.7652
 1.0850	79.8116
 1.0840	79.7803
 1.0830	79.8334
 1.0820	79.7664
 1.0810	79.8756
 1.0800	79.8179
 1.0790	79.6379
 1.0780	79.7879
 1.0770	79.7590
 1.0760	79.7534
 1.0750	79.7747
 1.0740	79.7417
 1.0730	79.7873
 1.0720	79.7626
 1.0710	79.7081
 1.0700	79.8216
 1.0690	79.7006
 1.0680	79.7574
 1.0670	79.7287
 1.0660	79.8066
 1.0650	79.7674
 1.0640	79.7307
 1.0630	79.6805
 1.0620	79.7422
 1.0610	79.7265
 1.0600	79.7340
 1.0590	79.7400
 1.0580	79.7268
 1.0570	79.7470
 1.0560	79.6831
 1.0550	79.6877
 1.0540	79.7038
 1.0530	79.7378
 1.0520	79.6791
 1.0510	79.6150
 1.0500	79.6651
 1.0490	79.5837
 1.0480	79.5927
 1.0470	79.6672
 1.0460	79.6355
 1.0450	79.5613
 1.0440	79.5918
 1.0430	79.6640
 1.0420	79.6796
 1.0410	79.5730
 1.0400	79.6149
 1.0390	79.5932
 1.0380	79.5470
 1.0370	79.5372
 1.0360	79.6237
 1.0350	79.6280
 1.0340	79.6011
 1.0330	79.5219
 1.0320	79.5440
 1.0310	79.5164
 1.0300	79.5344
 1.0290	79.6171
 1.0280	79.5505
 1.0270	79.5987
 1.0260	79.6142
 1.0250	79.6096
 1.0240	79.5414
 1.0230	79.4544
 1.0220	79.5616
 1.0210	79.4820
 1.0200	79.5447
 1.0190	79.4982
 1.0180	79.5475
 1.0170	79.5058
 1.0160	79.5057
 1.0150	79.4467
 1.0140	79.4906
 1.0130	79.4638
 1.0120	79.4787
 1.0110	79.5074
 1.0100	79.5142
 1.0090	79.4536
 1.0080	79.4820
 1.0070	79.4366
 1.0060	79.4282
 1.0050	79.4354
 1.0040	79.4368
 1.0030	79.3272
 1.0020	79.3325
 1.0010	79.2971
 1.0000	79.3655
 0.9990	79.3082
 0.9980	79.3336
 0.9970	79.3116
 0.9960	79.2889
 0.9950	79.3032
 0.9940	79.3178
 0.9930	79.2784
 0.9920	79.2594
 0.9910	79.1917
 0.9900	79.2145
 0.9890	79.2030
 0.9880	79.1760
 0.9870	79.2489
 0.9860	79.1472
 0.9850	79.1394
 0.9840	79.0738
 0.9830	79.0887
 0.9820	79.1502
 0.9810	79.1371
 0.9800	79.0707
 0.9790	79.0222
 0.9780	78.9831
 0.9770	78.9820
 0.9760	78.9832
 0.9750	78.8596
 0.9740	78.8546
 0.9730	78.8831
 0.9720	78.8622
 0.9710	78.8089
 0.9700	78.7746
 0.9690	78.6933
 0.9680	78.6278
 0.9670	78.6183
 0.9660	78.6132
 0.9650	78.5164
 0.9640	78.5173
 0.9630	78.4760
 0.9620	78.4303
 0.9610	78.3378
 0.9600	78.2883
 0.9590	78.2378
 0.9580	78.1474
 0.9570	78.0932
 0.9560	78.1246
 0.9550	78.0543
 0.9540	77.8840
 0.9530	77.8319
 0.9520	77.8612
 0.9510	77.7567
 0.9500	77.7016
 0.9490	77.7039
 0.9480	77.6950
 0.9470	77.6226
 0.9460	77.5217
 0.9450	77.4213
 0.9440	77.3688
 0.9430	77.3437
 0.9420	77.2793
 0.9410	77.2303
 0.9400	77.1642
 0.9390	77.1291
 0.9380	77.2027
 0.9370	77.1785
 0.9360	77.1325
 0.9350	77.1691
 0.9340	77.2103
 0.9330	77.1514
 0.9320	77.1228
 0.9310	77.2127
 0.9300	77.2044
 0.9290	77.2153
 0.9280	77.2787
 0.9270	77.2806
 0.9260	77.2951
 0.9250	77.3353
 0.9240	77.3468
 0.9230	77.3801
 0.9220	77.3972
 0.9210	77.3683
 0.9200	77.4322
 0.9190	77.5112
 0.9180	77.5195
 0.9170	77.5479
 0.9160	77.5785
 0.9150	77.6065
 0.9140	77.6453
 0.9130	77.6569
 0.9120	77.7318
 0.9110	77.7473
 0.9100	77.7185
 0.9090	77.7495
 0.9080	77.8090
 0.9070	77.8654
 0.9060	77.9018
 0.9050	77.9496
 0.9040	77.9856
 0.9030	78.0263
 0.9020	77.9911
 0.9010	78.0090
 0.9000	78.0974
 0.8990	78.1434
 0.8980	78.1534
 0.8970	78.1345
 0.8960	78.1697
 0.8950	78.2344
 0.8940	78.2226
 0.8930	78.2111
 0.8920	78.3010
 0.8910	78.3861
 0.8900	78.3357
 0.8890	78.3321
 0.8880	78.3580
 0.8870	78.3948
 0.8860	78.4336
 0.8850	78.4533
 0.8840	78.4692
 0.8830	78.5031
 0.8820	78.5186
 0.8810	78.5214
 0.8800	78.5908
 0.8790	78.5431
 0.8780	78.5507
 0.8770	78.6303
 0.8760	78.6182
 0.8750	78.5717
 0.8740	78.6489
 0.8730	78.6901
 0.8720	78.7157
 0.8710	78.7363
 0.8700	78.7588
 0.8690	78.7560
 0.8680	78.6656
 0.8670	78.8204
 0.8660	78.7894
 0.8650	78.8448
 0.8640	78.8469
 0.8630	78.8960
 0.8620	78.8507
 0.8610	78.8632
 0.8600	79.0878
 0.8590	79.2199
 0.8580	79.3018
 0.8570	79.2103
 0.8560	79.2009
 0.8550	79.2190
 0.8540	79.2140
 0.8530	79.3236
 0.8520	79.3150
 0.8510	79.3027
 0.8500	79.2627
 0.8490	79.3441
 0.8480	79.2950
 0.8470	79.1912
 0.8460	79.2569
 0.8450	79.2807
 0.8440	79.3394
 0.8430	79.3540
 0.8420	79.3691
 0.8410	79.3058
 0.8400	79.3333
 0.8390	79.4231
 0.8380	79.3311
 0.8370	79.4035
 0.8360	79.4196
 0.8350	79.3967
 0.8340	79.3686
 0.8330	79.4135
 0.8320	79.4084
 0.8310	79.3887
 0.8300	79.4422
 0.8290	79.3871
 0.8280	79.4281
 0.8270	79.4472
 0.8260	79.4004
 0.8250	79.4267
 0.8240	79.4483
 0.8230	79.4294
 0.8220	79.3947
 0.8210	79.4039
 0.8200	79.4439
 0.8190	79.4161
 0.8180	79.4555
 0.8170	79.4493
 0.8160	79.4174
 0.8150	79.4395
 0.8140	79.4289
 0.8130	79.3864
 0.8120	79.4174
 0.8110	79.4644
 0.8100	79.4527
 0.8090	79.4495
 0.8080	79.4578
 0.8070	79.4503
 0.8060	79.4386
 0.8050	79.4951
 0.8040	79.4539
 0.8030	79.4509
 0.8020	79.4497
 0.8010	79.4629
 0.8000	79.4520
 0.7990	79.4518
 0.7980	79.4116
 0.7970	79.4198
 0.7960	79.4006
 0.7950	79.3863
 0.7940	79.3860
 0.7930	79.3691
 0.7920	79.3514
 0.7910	79.3448
 0.7900	79.3676
 0.7890	79.3129
 0.7880	79.3666
 0.7870	79.3647
 0.7860	79.3483
 0.7850	79.3848
 0.7840	79.3838
 0.7830	79.3433
 0.7820	79.3534
 0.7810	79.3426
 0.7800	79.3218
 0.7790	79.3026
 0.7780	79.2825
 0.7770	79.3029
 0.7760	79.2841
 0.7750	79.2791
 0.7740	79.2616
 0.7730	79.2255
 0.7720	79.2910
 0.7710	79.2657
 0.7700	79.2652
 0.7690	79.2324
 0.7680	79.2025
 0.7670	79.2793
 0.7660	79.2485
 0.7650	79.2477
 0.7640	79.2068
 0.7630	79.2184
 0.7620	79.1901
 0.7610	79.2343
 0.7600	79.2309
 0.7590	79.2108
 0.7580	79.1744
 0.7570	79.2098
 0.7560	79.1852
 0.7550	79.1908
 0.7540	79.1894
 0.7530	79.1554
 0.7520	79.1892
 0.7510	79.1823
 0.7500	79.1555
 0.7490	79.1499
 0.7480	79.1445
 0.7470	79.1350
 0.7460	79.1227
 0.7450	79.1477
 0.7440	79.1615
 0.7430	79.1357
 0.7420	79.1261
 0.7410	79.1079
 0.7400	79.1032
 0.7390	79.1160
 0.7380	79.1127
 0.7370	79.1084
 0.7360	79.0587
 0.7350	79.0895
 0.7340	79.0687
 0.7330	79.0820
 0.7320	79.0713
 0.7310	79.0544
 0.7300	79.0826
 0.7290	79.0652
 0.7280	79.0401
 0.7270	79.0387
 0.7260	79.0405
 0.7250	79.0150
 0.7240	79.0043
 0.7230	79.0247
 0.7220	79.0064
 0.7210	79.0088
 0.7200	78.9979
 0.7190	78.9806
 0.7180	78.9960
 0.7170	78.9788
 0.7160	78.9610
 0.7150	78.9542
 0.7140	78.9490
 0.7130	78.9162
 0.7120	78.9120
 0.7110	78.9061
 0.7100	78.8751
 0.7090	78.8834
 0.7080	78.8597
 0.7070	78.8553
 0.7060	78.8603
 0.7050	78.8486
 0.7040	78.8389
 0.7030	78.8058
 0.7020	78.8108
 0.7010	78.7925
 0.7000	78.7922
 0.6990	78.7595
 0.6980	78.7503
 0.6970	78.7390
 0.6960	78.6929
 0.6950	78.6739
 0.6940	78.6825
 0.6930	78.6774
 0.6920	78.6537
 0.6910	78.6489
 0.6900	78.6233
 0.6890	78.6054
 0.6880	78.6080
 0.6870	78.5751
 0.6860	78.5436
 0.6850	78.5590
 0.6840	78.5575
 0.6830	78.5155
 0.6820	78.4943
 0.6810	78.4662
 0.6800	78.4422
 0.6790	78.4278
 0.6780	78.4059
 0.6770	78.3894
 0.6760	78.3740
 0.6750	78.3579
 0.6740	78.3396
 0.6730	78.3106
 0.6720	78.2870
 0.6710	78.2712
 0.6700	78.2548
 0.6690	78.2376
 0.6680	78.2280
 0.6670	78.2198
 0.6660	78.1990
 0.6650	78.1870
 0.6640	78.1600
 0.6630	78.1422
 0.6620	78.1261
 0.6610	78.1057
 0.6600	78.0863
 0.6590	78.0648
 0.6580	78.0420
 0.6570	78.0391
 0.6560	78.0071
 0.6550	77.9829
 0.6540	77.9704
 0.6530	77.9528
 0.6520	77.9429
 0.6510	77.9022
 0.6500	77.8847
 0.6490	77.8863
 0.6480	77.8648
 0.6470	77.8387
 0.6460	77.8292
 0.6450	77.8222
 0.6440	77.8021
 0.6430	77.7686
 0.6420	77.7455
 0.6410	77.7266
 0.6400	77.7072
 0.6390	77.6894
 0.6380	77.6790
 0.6370	77.6601
 0.6360	77.6450
 0.6350	77.6219
 0.6340	77.5900
 0.6330	77.5754
 0.6320	77.5641
 0.6310	77.5422
 0.6300	77.5131
 0.6290	77.4961
 0.6280	77.4840
 0.6270	77.4730
 0.6260	77.4571
 0.6250	77.4431
 0.6240	77.4166
 0.6230	77.3993
 0.6220	77.3976
 0.6210	77.3926
 0.6200	77.3752
 0.6190	77.3563
 0.6180	77.3610
 0.6170	77.3558
 0.6160	77.3375
 0.6150	77.3422
 0.6140	77.3323
 0.6130	77.3181
 0.6120	77.3184
 0.6110	77.3096
 0.6100	77.2988
 0.6090	77.2964
 0.6080	77.2869
 0.6070	77.2714
 0.6060	77.2661
 0.6050	77.2532
 0.6040	77.2372
 0.6030	77.2240
 0.6020	77.2121
 0.6010	77.1998
 0.6000	77.1853
 0.5990	77.1765
 0.5980	77.1860
 0.5970	77.1960
 0.5960	77.1950
 0.5950	77.2012
 0.5940	77.1865
 0.5930	77.1589
 0.5920	77.1567
 0.5910	77.1450
 0.5900	77.1296
 0.5890	77.1039
 0.5880	77.0829
 0.5870	77.0707
 0.5860	77.0612
 0.5850	77.0391
 0.5840	77.0226
 0.5830	77.0122
 0.5820	76.9930
 0.5810	76.9934
 0.5800	76.9609
 0.5790	76.9502
 0.5780	76.9340
 0.5770	76.9253
 0.5760	76.9089
 0.5750	76.8805
 0.5740	76.8626
 0.5730	76.8430
 0.5720	76.8201
 0.5710	76.8085
 0.5700	76.7734
 0.5690	76.7450
 0.5680	76.7238
 0.5670	76.7048
 0.5660	76.6718
 0.5650	76.6660
 0.5640	76.6444
 0.5630	76.6141
 0.5620	76.5921
 0.5610	76.5510
 0.5600	76.5236
 0.5590	76.5055
 0.5580	76.4748
 0.5570	76.4461
 0.5560	76.4122
 0.5550	76.3780
 0.5540	76.3527
 0.5530	76.3262
 0.5520	76.2950
 0.5510	76.2697
 0.5500	76.2413
 0.5490	76.1961
 0.5480	76.1599
 0.5470	76.1338
 0.5460	76.1053
 0.5450	76.0534
 0.5440	76.0196
 0.5430	76.0057
 0.5420	75.9460
 0.5410	75.8988
 0.5400	75.8576
 0.5390	75.8318
 0.5380	75.7976
 0.5370	75.7525
 0.5360	75.7139
 0.5350	75.6752
 0.5340	75.6289
 0.5330	75.6095
 0.5320	75.5716
 0.5310	75.5262
 0.5300	75.4795
 0.5290	75.4595
 0.5280	75.4358
 0.5270	75.4235
 0.5260	75.4137
 0.5250	75.3948
 0.5240	75.3812
 0.5230	75.3839
 0.5220	75.3741
 0.5210	75.3556
 0.5200	75.3465
 0.5190	75.3325
 0.5180	75.3243
 0.5170	75.3118
 0.5160	75.2815
 0.5150	75.2785
 0.5140	75.2490
 0.5130	75.2199
 0.5120	75.1979
 0.5110	75.1757
 0.5100	75.1387
 0.5090	75.0937
 0.5080	75.0650
 0.5070	75.0255
 0.5060	74.9424
 0.5050	74.8933
 0.5040	74.8419
 0.5030	74.7771
 0.5020	74.7167
 0.5010	74.6404
 0.5000	74.5891
 0.4990	74.5085
 0.4980	74.4282
 0.4970	74.3715
 0.4960	74.2716
 0.4950	74.2169
 0.4940	74.1116
 0.4930	74.0358
 0.4920	73.9405
 0.4910	73.8187
 0.4900	73.7418
 0.4890	73.6586
 0.4880	73.5600
 0.4870	73.4746
 0.4860	73.3979
 0.4850	73.2507
 0.4840	73.1700
 0.4830	73.0719
 0.4820	72.9706
 0.4810	72.8684
 0.4800	72.7919
 0.4790	72.6994
 0.4780	72.5798
 0.4770	72.4745
 0.4760	72.3783
 0.4750	72.2150
 0.4740	72.0740
 0.4730	71.9137
 0.4720	71.7254
 0.4710	71.5420
 0.4700	71.3528
 0.4690	71.1358
 0.4680	70.8859
 0.4670	70.6377
 0.4660	70.3118
 0.4650	69.9688
 0.4640	69.6107
 0.4630	69.2432
 0.4620	68.9747
 0.4610	68.8092
 0.4600	68.7324
 0.4590	68.6742
 0.4580	68.6236
 0.4570	68.5597
 0.4560	68.4250
 0.4550	68.2862
 0.4540	68.1021
 0.4530	67.9153
 0.4520	67.6961
 0.4510	67.4726
 0.4500	67.2588
 0.4490	67.0283
 0.4480	66.7919
 0.4470	66.5648
 0.4460	66.3338
 0.4450	66.1041
 0.4440	65.8639
 0.4430	65.6456
 0.4420	65.4478
 0.4410	65.2750
 0.4400	65.0896
 0.4390	64.9249
 0.4380	64.7720
 0.4370	64.6223
 0.4360	64.4577
 0.4350	64.2906
 0.4340	64.1228
 0.4330	63.9735
 0.4320	63.7940
 0.4310	63.6246
 0.4300	63.4607
 0.4290	63.2793
 0.4280	63.0954
 0.4270	62.9046
 0.4260	62.6999
 0.4250	62.4741
 0.4240	62.2486
 0.4230	62.0526
 0.4220	61.7937
 0.4210	61.5554
 0.4200	61.3305
 0.4190	61.1266
 0.4180	60.9249
 0.4170	60.7163
 0.4160	60.5418
 0.4150	60.3669
 0.4140	60.1850
 0.4130	60.0120
 0.4120	59.8274
 0.4110	59.6372
 0.4100	59.4400
 0.4090	59.2387
 0.4080	59.0104
 0.4070	58.7701
 0.4060	58.5294
 0.4050	58.2802
 0.4040	57.9915
 0.4030	57.7147
 0.4020	57.4184
 0.4010	57.1123
 0.4000	56.7971
