Name: Montmorillonite (Na,Ca)_0.33(Al,Mg)_2Si_4O_10(OH)_2.H_2O
Type: Mineral
Class: Silicate
Subclass: Phyllosilicate
Particle Size: Fine
Sample No.: PS-2D
Owner: JPL
Wavelength Range: VSWIR
Origin: USA, Wyoming, Crook County.
Collection Date: N/A
Description: Particle size was 0-45um.Collected by:  Clay Mineral Society Original ASTER Spectral Library name was jpl.perkin.mineral.silicate.phyllosilicate.fine.ps02d.spectrum.txt
Measurement: Hemispherical reflectance
First Column: X
Second Column: Y
X Units: Wavelength (micrometers)
Y Units:Reflectance (percent)
First X Value:  2.5000
Last X Value:  0.4000
Number of X Values: 2101
Additional Information: mineral.silicate.phyllosilicate.fine.vswir.ps-2d.jpl.perkin.ancillary.txt

 2.5000	47.4727
 2.4990	47.0746
 2.4980	47.4022
 2.4970	47.4641
 2.4960	47.3326
 2.4950	47.6261
 2.4940	47.4486
 2.4930	47.7713
 2.4920	47.6485
 2.4910	47.9933
 2.4900	48.0479
 2.4890	48.2901
 2.4880	48.0581
 2.4870	48.3053
 2.4860	48.1574
 2.4850	48.3461
 2.4840	48.2003
 2.4830	48.2651
 2.4820	48.3724
 2.4810	48.5047
 2.4800	48.5517
 2.4790	48.6256
 2.4780	48.5831
 2.4770	48.8000
 2.4760	48.6384
 2.4750	48.7865
 2.4740	48.8592
 2.4730	48.9144
 2.4720	48.7709
 2.4710	49.1893
 2.4700	49.0952
 2.4690	49.3510
 2.4680	49.3044
 2.4670	49.3739
 2.4660	49.3651
 2.4650	49.5435
 2.4640	49.4727
 2.4630	49.6785
 2.4620	49.6921
 2.4610	49.7175
 2.4600	49.7856
 2.4590	49.9661
 2.4580	49.9622
 2.4570	50.1625
 2.4560	50.0954
 2.4550	50.1858
 2.4540	50.2279
 2.4530	50.4202
 2.4520	50.3723
 2.4510	50.6140
 2.4500	50.6652
 2.4490	50.6674
 2.4480	50.7891
 2.4470	51.0517
 2.4460	51.0159
 2.4450	51.1556
 2.4440	51.2122
 2.4430	51.3687
 2.4420	51.3732
 2.4410	51.5688
 2.4400	51.6137
 2.4390	51.7274
 2.4380	51.9021
 2.4370	52.0094
 2.4360	52.0385
 2.4350	52.2049
 2.4340	52.2721
 2.4330	52.3417
 2.4320	52.3961
 2.4310	52.6626
 2.4300	52.7435
 2.4290	52.9643
 2.4280	53.0182
 2.4270	53.0555
 2.4260	53.2453
 2.4250	53.3001
 2.4240	53.2542
 2.4230	53.4810
 2.4220	53.6773
 2.4210	53.7654
 2.4200	53.8040
 2.4190	53.9015
 2.4180	53.9526
 2.4170	54.1163
 2.4160	54.2377
 2.4150	54.3712
 2.4140	54.4116
 2.4130	54.5723
 2.4120	54.6065
 2.4110	54.7325
 2.4100	54.8558
 2.4090	54.9479
 2.4080	55.0023
 2.4070	55.0845
 2.4060	55.1348
 2.4050	55.2644
 2.4040	55.3428
 2.4030	55.4217
 2.4020	55.5495
 2.4010	55.6329
 2.4000	55.7206
 2.3990	55.8054
 2.3980	55.9427
 2.3970	56.0266
 2.3960	56.1262
 2.3950	56.2086
 2.3940	56.2936
 2.3930	56.3890
 2.3920	56.4413
 2.3910	56.5651
 2.3900	56.6386
 2.3890	56.6998
 2.3880	56.8244
 2.3870	56.9574
 2.3860	57.0179
 2.3850	57.1062
 2.3840	57.1254
 2.3830	57.1961
 2.3820	57.2946
 2.3810	57.5160
 2.3800	57.6398
 2.3790	57.7310
 2.3780	57.8241
 2.3770	57.9649
 2.3760	58.0774
 2.3750	58.1769
 2.3740	58.2382
 2.3730	58.3127
 2.3720	58.3661
 2.3710	58.5131
 2.3700	58.6490
 2.3690	58.7019
 2.3680	58.7482
 2.3670	58.8440
 2.3660	58.8979
 2.3650	58.9926
 2.3640	59.1337
 2.3630	59.1937
 2.3620	59.2366
 2.3610	59.3510
 2.3600	59.4301
 2.3590	59.5611
 2.3580	59.6195
 2.3570	59.6868
 2.3560	59.8577
 2.3550	60.0286
 2.3540	60.0817
 2.3530	60.1442
 2.3520	60.2747
 2.3510	60.3931
 2.3500	60.5121
 2.3490	60.6495
 2.3480	60.7644
 2.3470	60.8814
 2.3460	61.0448
 2.3450	61.1669
 2.3440	61.2889
 2.3430	61.3819
 2.3420	61.5334
 2.3410	61.6385
 2.3400	61.7106
 2.3390	61.8663
 2.3380	62.0209
 2.3370	62.1376
 2.3360	62.2451
 2.3350	62.3332
 2.3340	62.4732
 2.3330	62.6012
 2.3320	62.6918
 2.3310	62.8174
 2.3300	62.9433
 2.3290	62.9973
 2.3280	63.1353
 2.3270	63.2722
 2.3260	63.3663
 2.3250	63.4772
 2.3240	63.5555
 2.3230	63.6459
 2.3220	63.7148
 2.3210	63.7973
 2.3200	63.9375
 2.3190	64.0458
 2.3180	64.1437
 2.3170	64.1856
 2.3160	64.2626
 2.3150	64.3380
 2.3140	64.4621
 2.3130	64.5498
 2.3120	64.6290
 2.3110	64.6512
 2.3100	64.8184
 2.3090	64.8685
 2.3080	64.9574
 2.3070	65.1099
 2.3060	65.2065
 2.3050	65.2702
 2.3040	65.3851
 2.3030	65.4475
 2.3020	65.5503
 2.3010	65.6769
 2.3000	65.7887
 2.2990	65.8213
 2.2980	65.9304
 2.2970	66.0581
 2.2960	66.0945
 2.2950	66.2778
 2.2940	66.3637
 2.2930	66.3816
 2.2920	66.5319
 2.2910	66.6239
 2.2900	66.7847
 2.2890	66.8825
 2.2880	66.9018
 2.2870	67.0061
 2.2860	67.0751
 2.2850	67.1285
 2.2840	67.2589
 2.2830	67.3475
 2.2820	67.4393
 2.2810	67.4615
 2.2800	67.5822
 2.2790	67.5686
 2.2780	67.7128
 2.2770	67.7413
 2.2760	67.7918
 2.2750	67.8275
 2.2740	67.8557
 2.2730	67.8725
 2.2720	67.9840
 2.2710	68.0038
 2.2700	68.0324
 2.2690	68.0165
 2.2680	68.0533
 2.2670	68.0717
 2.2660	68.1008
 2.2650	68.0632
 2.2640	68.0731
 2.2630	68.1001
 2.2620	68.0415
 2.2610	67.8937
 2.2600	67.9188
 2.2590	67.8750
 2.2580	67.7598
 2.2570	67.6935
 2.2560	67.6867
 2.2550	67.5151
 2.2540	67.4108
 2.2530	67.2152
 2.2520	67.1572
 2.2510	66.9583
 2.2500	66.9265
 2.2490	66.7092
 2.2480	66.5130
 2.2470	66.3946
 2.2460	66.2391
 2.2450	66.0019
 2.2440	65.8093
 2.2430	65.7084
 2.2420	65.5915
 2.2410	65.3629
 2.2400	65.2295
 2.2390	64.9935
 2.2380	64.7979
 2.2370	64.7318
 2.2360	64.6457
 2.2350	64.4632
 2.2340	64.4425
 2.2330	64.2256
 2.2320	64.1775
 2.2310	63.9945
 2.2300	63.9030
 2.2290	63.7887
 2.2280	63.6237
 2.2270	63.4175
 2.2260	63.3480
 2.2250	63.1975
 2.2240	63.0726
 2.2230	62.7747
 2.2220	62.6830
 2.2210	62.3680
 2.2200	62.1101
 2.2190	61.9083
 2.2180	61.6048
 2.2170	61.3420
 2.2160	61.0799
 2.2150	60.8777
 2.2140	60.6296
 2.2130	60.3169
 2.2120	60.1388
 2.2110	59.8828
 2.2100	59.8379
 2.2090	59.6254
 2.2080	59.5648
 2.2070	59.4924
 2.2060	59.5760
 2.2050	59.6417
 2.2040	59.6918
 2.2030	59.8126
 2.2020	59.9914
 2.2010	60.1898
 2.2000	60.4732
 2.1990	60.6524
 2.1980	60.9902
 2.1970	61.2612
 2.1960	61.5741
 2.1950	61.8154
 2.1940	62.1968
 2.1930	62.4754
 2.1920	62.7175
 2.1910	63.0703
 2.1900	63.3880
 2.1890	63.6687
 2.1880	64.0395
 2.1870	64.2903
 2.1860	64.5856
 2.1850	64.8617
 2.1840	65.2137
 2.1830	65.4792
 2.1820	65.7671
 2.1810	66.0015
 2.1800	66.2809
 2.1790	66.4979
 2.1780	66.9160
 2.1770	67.2118
 2.1760	67.4979
 2.1750	67.6713
 2.1740	68.0098
 2.1730	68.2377
 2.1720	68.3988
 2.1710	68.7799
 2.1700	69.1004
 2.1690	69.3227
 2.1680	69.5416
 2.1670	69.8646
 2.1660	70.1214
 2.1650	70.2844
 2.1640	70.5905
 2.1630	70.7348
 2.1620	70.9233
 2.1610	71.1096
 2.1600	71.3890
 2.1590	71.5362
 2.1580	71.6572
 2.1570	71.8446
 2.1560	72.0013
 2.1550	72.0214
 2.1540	72.2327
 2.1530	72.2729
 2.1520	72.2869
 2.1510	72.3737
 2.1500	72.4376
 2.1490	72.4426
 2.1480	72.5836
 2.1470	72.6383
 2.1460	72.6407
 2.1450	72.6742
 2.1440	72.7437
 2.1430	72.8192
 2.1420	72.8179
 2.1410	72.8219
 2.1400	72.8428
 2.1390	72.8956
 2.1380	72.9177
 2.1370	72.8986
 2.1360	72.8850
 2.1350	72.8357
 2.1340	72.8622
 2.1330	72.9031
 2.1320	72.8894
 2.1310	72.8375
 2.1300	72.7358
 2.1290	72.6987
 2.1280	72.7080
 2.1270	72.7367
 2.1260	72.6834
 2.1250	72.6674
 2.1240	72.6272
 2.1230	72.5413
 2.1220	72.4492
 2.1210	72.4043
 2.1200	72.3836
 2.1190	72.3404
 2.1180	72.2534
 2.1170	72.1980
 2.1160	72.1961
 2.1150	72.0491
 2.1140	71.9870
 2.1130	71.9345
 2.1120	71.8572
 2.1110	71.7392
 2.1100	71.6074
 2.1090	71.5062
 2.1080	71.4846
 2.1070	71.4295
 2.1060	71.4299
 2.1050	71.3512
 2.1040	71.2596
 2.1030	71.1813
 2.1020	71.1281
 2.1010	71.1105
 2.1000	71.0938
 2.0990	71.0340
 2.0980	71.0351
 2.0970	71.0349
 2.0960	71.0381
 2.0950	71.0351
 2.0940	70.9967
 2.0930	70.9736
 2.0920	70.9626
 2.0910	70.9853
 2.0900	71.0033
 2.0890	70.9844
 2.0880	71.0140
 2.0870	71.0218
 2.0860	70.9571
 2.0850	70.8889
 2.0840	70.9493
 2.0830	70.9517
 2.0820	70.9319
 2.0810	70.9277
 2.0800	70.9905
 2.0790	71.0301
 2.0780	71.0086
 2.0770	71.0027
 2.0760	70.9981
 2.0750	70.9624
 2.0740	70.9406
 2.0730	70.9446
 2.0720	70.9438
 2.0710	70.9346
 2.0700	70.9247
 2.0690	70.9216
 2.0680	70.9384
 2.0670	70.9560
 2.0660	70.9169
 2.0650	70.9143
 2.0640	70.8825
 2.0630	70.8562
 2.0620	70.8425
 2.0610	70.8481
 2.0600	70.8313
 2.0590	70.7745
 2.0580	70.7571
 2.0570	70.7517
 2.0560	70.7144
 2.0550	70.6850
 2.0540	70.6733
 2.0530	70.6398
 2.0520	70.5784
 2.0510	70.4829
 2.0500	70.4810
 2.0490	70.5234
 2.0480	70.3984
 2.0470	70.3596
 2.0460	70.3194
 2.0450	70.2630
 2.0440	70.2371
 2.0430	70.1579
 2.0420	70.1038
 2.0410	70.0401
 2.0400	69.9937
 2.0390	69.9323
 2.0380	69.8993
 2.0370	69.7703
 2.0360	69.6642
 2.0350	69.6039
 2.0340	69.5240
 2.0330	69.4901
 2.0320	69.4043
 2.0310	69.3563
 2.0300	69.2130
 2.0290	69.0822
 2.0280	68.9839
 2.0270	68.9762
 2.0260	68.8221
 2.0250	68.7693
 2.0240	68.6576
 2.0230	68.5352
 2.0220	68.3814
 2.0210	68.2648
 2.0200	68.2121
 2.0190	68.1558
 2.0180	67.9863
 2.0170	67.8539
 2.0160	67.7278
 2.0150	67.6951
 2.0140	67.5687
 2.0130	67.4825
 2.0120	67.3049
 2.0110	67.1943
 2.0100	67.0102
 2.0090	66.9472
 2.0080	66.8242
 2.0070	66.6997
 2.0060	66.6056
 2.0050	66.4508
 2.0040	66.3569
 2.0030	66.2483
 2.0020	66.0373
 2.0010	65.8973
 2.0000	65.7683
 1.9990	65.6704
 1.9980	65.4510
 1.9970	65.3951
 1.9960	65.1997
 1.9950	65.1143
 1.9940	64.9542
 1.9930	64.7412
 1.9920	64.6160
 1.9910	64.4358
 1.9900	64.3522
 1.9890	64.2405
 1.9880	64.0307
 1.9870	63.9204
 1.9860	63.7463
 1.9850	63.6215
 1.9840	63.4966
 1.9830	63.4139
 1.9820	63.1687
 1.9810	63.0717
 1.9800	62.9539
 1.9790	62.8776
 1.9780	62.6694
 1.9770	62.5852
 1.9760	62.4945
 1.9750	62.3371
 1.9740	62.2050
 1.9730	62.1784
 1.9720	61.9681
 1.9710	61.8394
 1.9700	61.7744
 1.9690	61.7202
 1.9680	61.5156
 1.9670	61.4382
 1.9660	61.3214
 1.9650	61.3178
 1.9640	61.2604
 1.9630	61.1353
 1.9620	61.0025
 1.9610	60.9050
 1.9600	60.7959
 1.9590	60.8319
 1.9580	60.6575
 1.9570	60.6169
 1.9560	60.5210
 1.9550	60.4539
 1.9540	60.3831
 1.9530	60.3302
 1.9520	60.1725
 1.9510	60.1090
 1.9500	60.0432
 1.9490	59.9469
 1.9480	59.8546
 1.9470	59.7868
 1.9460	59.7268
 1.9450	59.6527
 1.9440	59.5538
 1.9430	59.5416
 1.9420	59.3768
 1.9410	59.3294
 1.9400	59.1615
 1.9390	59.0718
 1.9380	58.9246
 1.9370	58.8115
 1.9360	58.6395
 1.9350	58.4665
 1.9340	58.3830
 1.9330	58.2141
 1.9320	57.9790
 1.9310	57.7705
 1.9300	57.5531
 1.9290	57.3494
 1.9280	57.0837
 1.9270	56.8313
 1.9260	56.3687
 1.9250	56.1723
 1.9240	55.7474
 1.9230	55.5228
 1.9220	55.0200
 1.9210	54.6367
 1.9200	54.1641
 1.9190	53.7076
 1.9180	53.1906
 1.9170	52.8465
 1.9160	52.2494
 1.9150	51.9815
 1.9140	51.4630
 1.9130	50.9982
 1.9120	50.5559
 1.9110	50.3108
 1.9100	49.7142
 1.9090	49.5850
 1.9080	49.2533
 1.9070	49.0879
 1.9060	48.8876
 1.9050	49.1149
 1.9040	49.1740
 1.9030	49.5465
 1.9020	49.7966
 1.9010	50.4182
 1.9000	50.9902
 1.8990	51.6958
 1.8980	52.4028
 1.8970	53.4140
 1.8960	54.2971
 1.8950	55.3601
 1.8940	56.3776
 1.8930	57.4109
 1.8920	58.4981
 1.8910	59.5237
 1.8900	60.7160
 1.8890	61.8334
 1.8880	62.7525
 1.8870	63.7996
 1.8860	64.6425
 1.8850	65.6691
 1.8840	66.4018
 1.8830	67.1460
 1.8820	67.9171
 1.8810	68.7542
 1.8800	69.3135
 1.8790	69.7873
 1.8780	70.3208
 1.8770	70.7976
 1.8760	71.2746
 1.8750	71.7573
 1.8740	72.2278
 1.8730	72.7977
 1.8720	73.1690
 1.8710	73.6197
 1.8700	74.0692
 1.8690	74.4799
 1.8680	74.8105
 1.8670	75.1020
 1.8660	75.3365
 1.8650	75.4841
 1.8640	75.6777
 1.8630	75.9113
 1.8620	76.1581
 1.8610	76.2914
 1.8600	76.5336
 1.8590	76.6054
 1.8580	76.6746
 1.8570	76.8570
 1.8560	76.9815
 1.8550	77.1117
 1.8540	77.1558
 1.8530	77.3436
 1.8520	77.3435
 1.8510	77.3870
 1.8500	77.4735
 1.8490	77.5485
 1.8480	77.6195
 1.8470	77.7252
 1.8460	77.7409
 1.8450	77.7706
 1.8440	77.7515
 1.8430	77.8011
 1.8420	77.8056
 1.8410	77.8770
 1.8400	77.9523
 1.8390	77.9728
 1.8380	77.9770
 1.8370	78.0956
 1.8360	78.1084
 1.8350	78.1281
 1.8340	78.1380
 1.8330	78.1850
 1.8320	78.2179
 1.8310	78.3165
 1.8300	78.3214
 1.8290	78.2980
 1.8280	78.2742
 1.8270	78.2580
 1.8260	78.3577
 1.8250	78.4302
 1.8240	78.4489
 1.8230	78.4329
 1.8220	78.4052
 1.8210	78.4382
 1.8200	78.4382
 1.8190	78.4661
 1.8180	78.4882
 1.8170	78.5197
 1.8160	78.5343
 1.8150	78.5305
 1.8140	78.5452
 1.8130	78.5455
 1.8120	78.5261
 1.8110	78.5364
 1.8100	78.5785
 1.8090	78.6190
 1.8080	78.6136
 1.8070	78.5860
 1.8060	78.5899
 1.8050	78.5838
 1.8040	78.6029
 1.8030	78.6829
 1.8020	78.6665
 1.8010	78.6656
 1.8000	78.7065
 1.7990	78.7244
 1.7980	78.6930
 1.7970	78.6847
 1.7960	78.7183
 1.7950	78.7402
 1.7940	78.7274
 1.7930	78.7742
 1.7920	78.7363
 1.7910	78.6989
 1.7900	78.7691
 1.7890	78.7688
 1.7880	78.8132
 1.7870	78.8307
 1.7860	78.7747
 1.7850	78.8011
 1.7840	78.8667
 1.7830	78.8877
 1.7820	78.8959
 1.7810	78.9064
 1.7800	78.8916
 1.7790	78.9704
 1.7780	78.9865
 1.7770	78.9064
 1.7760	78.9302
 1.7750	79.0204
 1.7740	79.0684
 1.7730	79.0184
 1.7720	79.0487
 1.7710	79.0804
 1.7700	79.0680
 1.7690	79.1271
 1.7680	79.2375
 1.7670	79.2481
 1.7660	79.1710
 1.7650	79.1535
 1.7640	79.2128
 1.7630	79.1952
 1.7620	79.2255
 1.7610	79.3292
 1.7600	79.3518
 1.7590	79.3474
 1.7580	79.4526
 1.7570	79.4768
 1.7560	79.4931
 1.7550	79.5222
 1.7540	79.5756
 1.7530	79.5493
 1.7520	79.5614
 1.7510	79.6055
 1.7500	79.6535
 1.7490	79.6872
 1.7480	79.7318
 1.7470	79.7268
 1.7460	79.7223
 1.7450	79.7084
 1.7440	79.6909
 1.7430	79.6979
 1.7420	79.7775
 1.7410	79.8330
 1.7400	79.8939
 1.7390	79.9054
 1.7380	79.9177
 1.7370	79.9900
 1.7360	80.0081
 1.7350	79.9752
 1.7340	79.9840
 1.7330	79.9677
 1.7320	80.0593
 1.7310	80.0350
 1.7300	80.0178
 1.7290	80.0485
 1.7280	80.0828
 1.7270	80.0946
 1.7260	80.1418
 1.7250	80.1473
 1.7240	80.2788
 1.7230	80.2238
 1.7220	80.2470
 1.7210	80.2096
 1.7200	80.2481
 1.7190	80.2865
 1.7180	80.2666
 1.7170	80.2740
 1.7160	80.2503
 1.7150	80.3006
 1.7140	80.2637
 1.7130	80.2882
 1.7120	80.3385
 1.7110	80.4062
 1.7100	80.3413
 1.7090	80.2848
 1.7080	80.3344
 1.7070	80.3216
 1.7060	80.3412
 1.7050	80.2639
 1.7040	80.3306
 1.7030	80.3890
 1.7020	80.4340
 1.7010	80.4525
 1.7000	80.3793
 1.6990	80.3172
 1.6980	80.3907
 1.6970	80.3143
 1.6960	80.3742
 1.6950	80.4191
 1.6940	80.4546
 1.6930	80.4433
 1.6920	80.3543
 1.6910	80.4204
 1.6900	80.4269
 1.6890	80.4402
 1.6880	80.4316
 1.6870	80.4245
 1.6860	80.4372
 1.6850	80.3872
 1.6840	80.3887
 1.6830	80.4483
 1.6820	80.4114
 1.6810	80.3485
 1.6800	80.3788
 1.6790	80.3531
 1.6780	80.3838
 1.6770	80.4216
 1.6760	80.4942
 1.6750	80.3675
 1.6740	80.4107
 1.6730	80.4131
 1.6720	80.4793
 1.6710	80.3339
 1.6700	80.3812
 1.6690	80.4447
 1.6680	80.3788
 1.6670	80.3874
 1.6660	80.4115
 1.6650	80.4432
 1.6640	80.4276
 1.6630	80.3819
 1.6620	80.3552
 1.6610	80.4339
 1.6600	80.3576
 1.6590	80.3323
 1.6580	80.4060
 1.6570	80.4141
 1.6560	80.3856
 1.6550	80.3173
 1.6540	80.3629
 1.6530	80.2981
 1.6520	80.3387
 1.6510	80.3174
 1.6500	80.3924
 1.6490	80.4664
 1.6480	80.2511
 1.6470	80.3985
 1.6460	80.3285
 1.6450	80.3305
 1.6440	80.2871
 1.6430	80.2899
 1.6420	80.2334
 1.6410	80.1672
 1.6400	80.3268
 1.6390	80.2032
 1.6380	80.3185
 1.6370	80.2207
 1.6360	80.2542
 1.6350	80.2612
 1.6340	80.2680
 1.6330	80.1344
 1.6320	80.2353
 1.6310	80.1265
 1.6300	80.2053
 1.6290	80.2130
 1.6280	80.2401
 1.6270	80.1321
 1.6260	80.0965
 1.6250	80.0705
 1.6240	80.1538
 1.6230	80.1568
 1.6220	80.0856
 1.6210	80.0154
 1.6200	80.1081
 1.6190	80.0855
 1.6180	80.1361
 1.6170	80.0778
 1.6160	80.0479
 1.6150	80.0028
 1.6140	79.9979
 1.6130	79.9813
 1.6120	79.9594
 1.6110	80.0649
 1.6100	80.0113
 1.6090	79.9951
 1.6080	79.9825
 1.6070	79.9105
 1.6060	79.9876
 1.6050	80.0038
 1.6040	79.9868
 1.6030	79.8999
 1.6020	79.9799
 1.6010	79.9405
 1.6000	79.8284
 1.5990	79.8669
 1.5980	79.8845
 1.5970	79.8117
 1.5960	79.7920
 1.5950	79.8243
 1.5940	79.7762
 1.5930	79.7611
 1.5920	79.7481
 1.5910	79.7294
 1.5900	79.7739
 1.5890	79.7093
 1.5880	79.7393
 1.5870	79.6975
 1.5860	79.7425
 1.5850	79.6390
 1.5840	79.6830
 1.5830	79.6289
 1.5820	79.5592
 1.5810	79.5367
 1.5800	79.5682
 1.5790	79.5236
 1.5780	79.4915
 1.5770	79.4768
 1.5760	79.4768
 1.5750	79.4478
 1.5740	79.4410
 1.5730	79.3324
 1.5720	79.3566
 1.5710	79.3367
 1.5700	79.3308
 1.5690	79.2604
 1.5680	79.2780
 1.5670	79.2883
 1.5660	79.2799
 1.5650	79.3117
 1.5640	79.1756
 1.5630	79.1876
 1.5620	79.1667
 1.5610	79.1405
 1.5600	79.0979
 1.5590	79.0549
 1.5580	79.1415
 1.5570	79.0565
 1.5560	78.9669
 1.5550	78.9690
 1.5540	78.9742
 1.5530	78.8794
 1.5520	78.9071
 1.5510	78.9452
 1.5500	78.8485
 1.5490	78.8001
 1.5480	78.8124
 1.5470	78.7182
 1.5460	78.6742
 1.5450	78.6736
 1.5440	78.6198
 1.5430	78.5838
 1.5420	78.5794
 1.5410	78.5478
 1.5400	78.4772
 1.5390	78.4362
 1.5380	78.4371
 1.5370	78.4091
 1.5360	78.4202
 1.5350	78.3706
 1.5340	78.2855
 1.5330	78.2374
 1.5320	78.2589
 1.5310	78.2187
 1.5300	78.1760
 1.5290	78.1178
 1.5280	78.0744
 1.5270	78.0472
 1.5260	77.9834
 1.5250	77.9417
 1.5240	77.9453
 1.5230	77.9126
 1.5220	77.8473
 1.5210	77.8219
 1.5200	77.7680
 1.5190	77.6581
 1.5180	77.6408
 1.5170	77.6303
 1.5160	77.5327
 1.5150	77.4870
 1.5140	77.4944
 1.5130	77.4496
 1.5120	77.3905
 1.5110	77.3150
 1.5100	77.2293
 1.5090	77.1815
 1.5080	77.1306
 1.5070	77.0815
 1.5060	77.0430
 1.5050	76.9693
 1.5040	76.9165
 1.5030	76.8799
 1.5020	76.8778
 1.5010	76.8243
 1.5000	76.7136
 1.4990	76.6500
 1.4980	76.6000
 1.4970	76.5278
 1.4960	76.4352
 1.4950	76.3731
 1.4940	76.2983
 1.4930	76.2739
 1.4920	76.1940
 1.4910	76.1019
 1.4900	76.0424
 1.4890	75.9573
 1.4880	75.8895
 1.4870	75.8958
 1.4860	75.7398
 1.4850	75.5713
 1.4840	75.5302
 1.4830	75.4894
 1.4820	75.3807
 1.4810	75.2549
 1.4800	75.1672
 1.4790	75.0807
 1.4780	74.9721
 1.4770	74.9049
 1.4760	74.8415
 1.4750	74.7010
 1.4740	74.5815
 1.4730	74.4392
 1.4720	74.3034
 1.4710	74.2009
 1.4700	74.0823
 1.4690	73.9903
 1.4680	73.8124
 1.4670	73.7016
 1.4660	73.6517
 1.4650	73.6170
 1.4640	73.5396
 1.4630	73.5305
 1.4620	73.4893
 1.4610	73.4291
 1.4600	73.4792
 1.4590	73.5100
 1.4580	73.4681
 1.4570	73.4409
 1.4560	73.4389
 1.4550	73.4826
 1.4540	73.4364
 1.4530	73.4840
 1.4520	73.4528
 1.4510	73.4437
 1.4500	73.3649
 1.4490	73.3805
 1.4480	73.2749
 1.4470	73.2156
 1.4460	73.1034
 1.4450	72.9699
 1.4440	72.9121
 1.4430	72.8358
 1.4420	72.7408
 1.4410	72.6179
 1.4400	72.4461
 1.4390	72.3662
 1.4380	72.1541
 1.4370	71.9622
 1.4360	71.7587
 1.4350	71.5401
 1.4340	71.2940
 1.4330	70.9990
 1.4320	70.6667
 1.4310	70.4623
 1.4300	70.1257
 1.4290	69.8718
 1.4280	69.5128
 1.4270	69.2112
 1.4260	68.7256
 1.4250	68.4008
 1.4240	67.9367
 1.4230	67.5867
 1.4220	67.1835
 1.4210	66.7911
 1.4200	66.4306
 1.4190	66.0292
 1.4180	65.6962
 1.4170	65.5021
 1.4160	65.2310
 1.4150	65.0989
 1.4140	65.0266
 1.4130	65.0518
 1.4120	65.0592
 1.4110	65.2325
 1.4100	65.3386
 1.4090	65.5728
 1.4080	65.8099
 1.4070	66.1891
 1.4060	66.4282
 1.4050	66.8572
 1.4040	67.2377
 1.4030	67.7159
 1.4020	68.0579
 1.4010	68.5440
 1.4000	68.9847
 1.3990	69.5691
 1.3980	69.9341
 1.3970	70.5194
 1.3960	71.0295
 1.3950	71.5311
 1.3940	72.0947
 1.3930	72.5880
 1.3920	73.0672
 1.3910	73.5758
 1.3900	73.9468
 1.3890	74.3572
 1.3880	74.8002
 1.3870	75.1271
 1.3860	75.4104
 1.3850	75.8011
 1.3840	76.0415
 1.3830	76.2582
 1.3820	76.4450
 1.3810	76.7668
 1.3800	76.9820
 1.3790	77.1716
 1.3780	77.3480
 1.3770	77.6006
 1.3760	77.7028
 1.3750	77.9154
 1.3740	78.0537
 1.3730	78.1855
 1.3720	78.3309
 1.3710	78.4082
 1.3700	78.5346
 1.3690	78.6644
 1.3680	78.6305
 1.3670	78.6795
 1.3660	78.8138
 1.3650	78.8350
 1.3640	78.8730
 1.3630	78.9544
 1.3620	78.9673
 1.3610	78.9938
 1.3600	79.1107
 1.3590	79.0891
 1.3580	79.1861
 1.3570	79.2015
 1.3560	79.1514
 1.3550	79.1560
 1.3540	79.2067
 1.3530	79.2482
 1.3520	79.2322
 1.3510	79.3471
 1.3500	79.3471
 1.3490	79.4189
 1.3480	79.4040
 1.3470	79.4121
 1.3460	79.3924
 1.3450	79.4436
 1.3440	79.4367
 1.3430	79.4734
 1.3420	79.4722
 1.3410	79.5967
 1.3400	79.5477
 1.3390	79.5031
 1.3380	79.4834
 1.3370	79.5537
 1.3360	79.6350
 1.3350	79.6839
 1.3340	79.6480
 1.3330	79.7004
 1.3320	79.6810
 1.3310	79.7386
 1.3300	79.6869
 1.3290	79.7085
 1.3280	79.7574
 1.3270	79.8361
 1.3260	79.7591
 1.3250	79.7872
 1.3240	79.6435
 1.3230	79.8311
 1.3220	79.8114
 1.3210	79.8494
 1.3200	79.8278
 1.3190	79.8753
 1.3180	79.8951
 1.3170	79.9489
 1.3160	79.9292
 1.3150	79.9078
 1.3140	79.8438
 1.3130	79.9525
 1.3120	79.9854
 1.3110	79.9513
 1.3100	79.9372
 1.3090	79.9290
 1.3080	79.9990
 1.3070	80.0268
 1.3060	80.0441
 1.3050	80.0015
 1.3040	79.9799
 1.3030	80.0792
 1.3020	80.0971
 1.3010	80.0681
 1.3000	80.0686
 1.2990	80.0768
 1.2980	80.1475
 1.2970	80.1721
 1.2960	80.1291
 1.2950	80.0627
 1.2940	80.0693
 1.2930	80.1547
 1.2920	80.1091
 1.2910	80.0505
 1.2900	80.1088
 1.2890	80.1214
 1.2880	80.1241
 1.2870	80.1493
 1.2860	80.1340
 1.2850	80.1540
 1.2840	80.1479
 1.2830	80.1979
 1.2820	80.1238
 1.2810	80.1847
 1.2800	80.1582
 1.2790	80.1843
 1.2780	80.1009
 1.2770	80.1858
 1.2760	80.1619
 1.2750	80.1197
 1.2740	80.1501
 1.2730	80.2200
 1.2720	80.2530
 1.2710	80.1498
 1.2700	80.0883
 1.2690	80.1281
 1.2680	80.1238
 1.2670	80.1072
 1.2660	80.1123
 1.2650	80.1137
 1.2640	80.0557
 1.2630	80.1311
 1.2620	80.1009
 1.2610	80.0240
 1.2600	80.0274
 1.2590	80.0168
 1.2580	80.0438
 1.2570	80.0078
 1.2560	79.9916
 1.2550	80.0072
 1.2540	80.0008
 1.2530	79.9981
 1.2520	79.9764
 1.2510	79.9640
 1.2500	79.9909
 1.2490	79.9678
 1.2480	79.9236
 1.2470	79.9042
 1.2460	79.9003
 1.2450	79.9399
 1.2440	79.9017
 1.2430	79.9131
 1.2420	79.9603
 1.2410	79.9610
 1.2400	79.9156
 1.2390	79.9304
 1.2380	79.9334
 1.2370	79.8925
 1.2360	79.8959
 1.2350	79.9148
 1.2340	79.8567
 1.2330	79.8744
 1.2320	79.8883
 1.2310	79.9207
 1.2300	79.8992
 1.2290	79.8612
 1.2280	79.8399
 1.2270	79.8343
 1.2260	79.8289
 1.2250	79.8342
 1.2240	79.8366
 1.2230	79.8234
 1.2220	79.8391
 1.2210	79.8993
 1.2200	79.9030
 1.2190	79.8740
 1.2180	79.8521
 1.2170	79.8101
 1.2160	79.7757
 1.2150	79.7822
 1.2140	79.7631
 1.2130	79.7475
 1.2120	79.7296
 1.2110	79.7121
 1.2100	79.7289
 1.2090	79.7525
 1.2080	79.7434
 1.2070	79.7248
 1.2060	79.7057
 1.2050	79.6990
 1.2040	79.6855
 1.2030	79.6655
 1.2020	79.6308
 1.2010	79.6593
 1.2000	79.6612
 1.1990	79.6521
 1.1980	79.6287
 1.1970	79.5946
 1.1960	79.6419
 1.1950	79.6511
 1.1940	79.5601
 1.1930	79.5552
 1.1920	79.5937
 1.1910	79.6315
 1.1900	79.6210
 1.1890	79.6626
 1.1880	79.5846
 1.1870	79.5454
 1.1860	79.5368
 1.1850	79.5471
 1.1840	79.5464
 1.1830	79.4881
 1.1820	79.5324
 1.1810	79.5277
 1.1800	79.5391
 1.1790	79.5741
 1.1780	79.5020
 1.1770	79.5143
 1.1760	79.4885
 1.1750	79.5170
 1.1740	79.5085
 1.1730	79.4400
 1.1720	79.4302
 1.1710	79.3922
 1.1700	79.3660
 1.1690	79.3751
 1.1680	79.3960
 1.1670	79.4071
 1.1660	79.4400
 1.1650	79.3982
 1.1640	79.3275
 1.1630	79.2547
 1.1620	79.3184
 1.1610	79.2837
 1.1600	79.2857
 1.1590	79.2086
 1.1580	79.2237
 1.1570	79.1606
 1.1560	79.1950
 1.1550	79.2158
 1.1540	79.1488
 1.1530	79.1355
 1.1520	79.1772
 1.1510	79.1734
 1.1500	79.2607
 1.1490	79.1870
 1.1480	79.2578
 1.1470	79.3025
 1.1460	79.3320
 1.1450	79.2946
 1.1440	79.3553
 1.1430	79.4467
 1.1420	79.4507
 1.1410	79.4546
 1.1400	79.5096
 1.1390	79.5322
 1.1380	79.5619
 1.1370	79.5939
 1.1360	79.5407
 1.1350	79.5057
 1.1340	79.5549
 1.1330	79.5567
 1.1320	79.6157
 1.1310	79.5817
 1.1300	79.5770
 1.1290	79.4958
 1.1280	79.5909
 1.1270	79.5831
 1.1260	79.6536
 1.1250	79.5532
 1.1240	79.5653
 1.1230	79.5791
 1.1220	79.6236
 1.1210	79.5801
 1.1200	79.5645
 1.1190	79.6115
 1.1180	79.6156
 1.1170	79.5695
 1.1160	79.5775
 1.1150	79.5445
 1.1140	79.6698
 1.1130	79.6113
 1.1120	79.6942
 1.1110	79.6166
 1.1100	79.5618
 1.1090	79.5612
 1.1080	79.5967
 1.1070	79.6798
 1.1060	79.5459
 1.1050	79.4649
 1.1040	79.5818
 1.1030	79.6870
 1.1020	79.5540
 1.1010	79.5231
 1.1000	79.5535
 1.0990	79.4921
 1.0980	79.5943
 1.0970	79.4190
 1.0960	79.6583
 1.0950	79.5749
 1.0940	79.5860
 1.0930	79.5635
 1.0920	79.5145
 1.0910	79.4987
 1.0900	79.5180
 1.0890	79.4786
 1.0880	79.5506
 1.0870	79.5297
 1.0860	79.5430
 1.0850	79.5258
 1.0840	79.4950
 1.0830	79.4567
 1.0820	79.4770
 1.0810	79.4351
 1.0800	79.4735
 1.0790	79.3943
 1.0780	79.4309
 1.0770	79.4805
 1.0760	79.5588
 1.0750	79.4572
 1.0740	79.4872
 1.0730	79.3544
 1.0720	79.4815
 1.0710	79.4023
 1.0700	79.4783
 1.0690	79.3629
 1.0680	79.4346
 1.0670	79.4465
 1.0660	79.4247
 1.0650	79.4610
 1.0640	79.4519
 1.0630	79.4900
 1.0620	79.4241
 1.0610	79.3354
 1.0600	79.4220
 1.0590	79.3696
 1.0580	79.3897
 1.0570	79.3050
 1.0560	79.4411
 1.0550	79.3898
 1.0540	79.4266
 1.0530	79.3917
 1.0520	79.4034
 1.0510	79.2999
 1.0500	79.2602
 1.0490	79.3396
 1.0480	79.3078
 1.0470	79.3885
 1.0460	79.3067
 1.0450	79.2356
 1.0440	79.3372
 1.0430	79.2023
 1.0420	79.2177
 1.0410	79.2067
 1.0400	79.2467
 1.0390	79.2994
 1.0380	79.2437
 1.0370	79.2881
 1.0360	79.2154
 1.0350	79.1723
 1.0340	79.1797
 1.0330	79.1368
 1.0320	79.1459
 1.0310	79.1302
 1.0300	79.1343
 1.0290	79.1669
 1.0280	79.1427
 1.0270	79.1156
 1.0260	79.1844
 1.0250	79.0054
 1.0240	79.1041
 1.0230	79.1220
 1.0220	79.0676
 1.0210	79.0553
 1.0200	79.0914
 1.0190	79.0630
 1.0180	79.0783
 1.0170	79.0285
 1.0160	79.0194
 1.0150	78.9860
 1.0140	79.0320
 1.0130	79.0157
 1.0120	79.0202
 1.0110	78.9224
 1.0100	79.0013
 1.0090	78.9607
 1.0080	78.9480
 1.0070	78.9207
 1.0060	78.8761
 1.0050	78.9691
 1.0040	78.9515
 1.0030	78.8873
 1.0020	78.8808
 1.0010	78.8908
 1.0000	78.9323
 0.9990	78.8531
 0.9980	78.8703
 0.9970	78.7926
 0.9960	78.7897
 0.9950	78.8278
 0.9940	78.8399
 0.9930	78.7769
 0.9920	78.7850
 0.9910	78.7440
 0.9900	78.7748
 0.9890	78.6915
 0.9880	78.6691
 0.9870	78.6895
 0.9860	78.6822
 0.9850	78.6866
 0.9840	78.6362
 0.9830	78.6319
 0.9820	78.5827
 0.9810	78.4554
 0.9800	78.5397
 0.9790	78.5399
 0.9780	78.4754
 0.9770	78.3950
 0.9760	78.4222
 0.9750	78.3469
 0.9740	78.3510
 0.9730	78.3626
 0.9720	78.3321
 0.9710	78.3271
 0.9700	78.3068
 0.9690	78.2677
 0.9680	78.2948
 0.9670	78.1872
 0.9660	78.2063
 0.9650	78.2365
 0.9640	78.1628
 0.9630	78.1204
 0.9620	78.1780
 0.9610	78.2033
 0.9600	78.1999
 0.9590	78.2075
 0.9580	78.1926
 0.9570	78.2020
 0.9560	78.2210
 0.9550	78.1630
 0.9540	78.2047
 0.9530	78.2217
 0.9520	78.2261
 0.9510	78.2960
 0.9500	78.3166
 0.9490	78.2965
 0.9480	78.3139
 0.9470	78.3184
 0.9460	78.3587
 0.9450	78.3258
 0.9440	78.3287
 0.9430	78.3615
 0.9420	78.3193
 0.9410	78.2593
 0.9400	78.2745
 0.9390	78.3191
 0.9380	78.3456
 0.9370	78.3253
 0.9360	78.3366
 0.9350	78.3213
 0.9340	78.2910
 0.9330	78.3251
 0.9320	78.3321
 0.9310	78.3109
 0.9300	78.3676
 0.9290	78.3661
 0.9280	78.3140
 0.9270	78.3043
 0.9260	78.3187
 0.9250	78.2911
 0.9240	78.3210
 0.9230	78.3314
 0.9220	78.3313
 0.9210	78.2863
 0.9200	78.2047
 0.9190	78.2122
 0.9180	78.2415
 0.9170	78.2240
 0.9160	78.2145
 0.9150	78.2006
 0.9140	78.2319
 0.9130	78.2673
 0.9120	78.2359
 0.9110	78.2519
 0.9100	78.2421
 0.9090	78.2300
 0.9080	78.2058
 0.9070	78.2273
 0.9060	78.2435
 0.9050	78.1891
 0.9040	78.1459
 0.9030	78.1932
 0.9020	78.2406
 0.9010	78.2258
 0.9000	78.2384
 0.8990	78.2346
 0.8980	78.2344
 0.8970	78.2452
 0.8960	78.2439
 0.8950	78.1886
 0.8940	78.1905
 0.8930	78.2417
 0.8920	78.1999
 0.8910	78.2094
 0.8900	78.2054
 0.8890	78.2128
 0.8880	78.1789
 0.8870	78.1613
 0.8860	78.1823
 0.8850	78.2369
 0.8840	78.1996
 0.8830	78.2407
 0.8820	78.2183
 0.8810	78.2097
 0.8800	78.2035
 0.8790	78.1989
 0.8780	78.1349
 0.8770	78.1666
 0.8760	78.1894
 0.8750	78.1663
 0.8740	78.1908
 0.8730	78.2613
 0.8720	78.1768
 0.8710	78.1777
 0.8700	78.2272
 0.8690	78.2600
 0.8680	78.2513
 0.8670	78.2791
 0.8660	78.2280
 0.8650	78.2314
 0.8640	78.2496
 0.8630	78.3268
 0.8620	78.2789
 0.8610	78.3120
 0.8600	78.4325
 0.8590	78.4602
 0.8580	78.4502
 0.8570	78.3956
 0.8560	78.4999
 0.8550	78.4582
 0.8540	78.4248
 0.8530	78.4526
 0.8520	78.5068
 0.8510	78.4881
 0.8500	78.4253
 0.8490	78.4759
 0.8480	78.5616
 0.8470	78.4824
 0.8460	78.5012
 0.8450	78.5152
 0.8440	78.5304
 0.8430	78.5136
 0.8420	78.5193
 0.8410	78.5101
 0.8400	78.5364
 0.8390	78.5556
 0.8380	78.5536
 0.8370	78.5707
 0.8360	78.5536
 0.8350	78.5809
 0.8340	78.5573
 0.8330	78.6158
 0.8320	78.5856
 0.8310	78.6198
 0.8300	78.5425
 0.8290	78.6311
 0.8280	78.5822
 0.8270	78.5977
 0.8260	78.6267
 0.8250	78.5903
 0.8240	78.6333
 0.8230	78.6123
 0.8220	78.6521
 0.8210	78.6960
 0.8200	78.6152
 0.8190	78.6334
 0.8180	78.6703
 0.8170	78.6498
 0.8160	78.6486
 0.8150	78.6377
 0.8140	78.7088
 0.8130	78.7141
 0.8120	78.7237
 0.8110	78.6950
 0.8100	78.7304
 0.8090	78.7527
 0.8080	78.7228
 0.8070	78.7614
 0.8060	78.7255
 0.8050	78.7200
 0.8040	78.7372
 0.8030	78.7214
 0.8020	78.7564
 0.8010	78.7277
 0.8000	78.7547
 0.7990	78.7510
 0.7980	78.7375
 0.7970	78.6850
 0.7960	78.6726
 0.7950	78.6789
 0.7940	78.6690
 0.7930	78.6632
 0.7920	78.6681
 0.7910	78.7033
 0.7900	78.6575
 0.7890	78.6530
 0.7880	78.6621
 0.7870	78.6755
 0.7860	78.6636
 0.7850	78.6887
 0.7840	78.6826
 0.7830	78.6337
 0.7820	78.6583
 0.7810	78.6501
 0.7800	78.6058
 0.7790	78.6097
 0.7780	78.5663
 0.7770	78.6105
 0.7760	78.6014
 0.7750	78.5921
 0.7740	78.5672
 0.7730	78.5822
 0.7720	78.5877
 0.7710	78.5872
 0.7700	78.5883
 0.7690	78.5088
 0.7680	78.5285
 0.7670	78.5307
 0.7660	78.5041
 0.7650	78.5517
 0.7640	78.5059
 0.7630	78.5042
 0.7620	78.4917
 0.7610	78.5066
 0.7600	78.4887
 0.7590	78.4690
 0.7580	78.4798
 0.7570	78.4494
 0.7560	78.4671
 0.7550	78.4497
 0.7540	78.4220
 0.7530	78.4059
 0.7520	78.3644
 0.7510	78.3675
 0.7500	78.3665
 0.7490	78.3822
 0.7480	78.3737
 0.7470	78.3428
 0.7460	78.3050
 0.7450	78.3465
 0.7440	78.3194
 0.7430	78.3118
 0.7420	78.2680
 0.7410	78.2752
 0.7400	78.2818
 0.7390	78.2163
 0.7380	78.2032
 0.7370	78.2085
 0.7360	78.1988
 0.7350	78.1927
 0.7340	78.1926
 0.7330	78.1312
 0.7320	78.1584
 0.7310	78.1271
 0.7300	78.1342
 0.7290	78.0854
 0.7280	78.0743
 0.7270	78.0634
 0.7260	78.0791
 0.7250	78.0421
 0.7240	77.9956
 0.7230	77.9710
 0.7220	77.9458
 0.7210	77.9475
 0.7200	77.9354
 0.7190	77.9034
 0.7180	77.8762
 0.7170	77.8507
 0.7160	77.8201
 0.7150	77.7859
 0.7140	77.7350
 0.7130	77.7370
 0.7120	77.7185
 0.7110	77.6747
 0.7100	77.6741
 0.7090	77.6396
 0.7080	77.5825
 0.7070	77.5658
 0.7060	77.5608
 0.7050	77.5252
 0.7040	77.4962
 0.7030	77.4666
 0.7020	77.4282
 0.7010	77.3808
 0.7000	77.3568
 0.6990	77.3158
 0.6980	77.2974
 0.6970	77.2808
 0.6960	77.2405
 0.6950	77.1730
 0.6940	77.1548
 0.6930	77.0970
 0.6920	77.0559
 0.6910	77.0403
 0.6900	77.0141
 0.6890	76.9767
 0.6880	76.9289
 0.6870	76.8844
 0.6860	76.8593
 0.6850	76.8128
 0.6840	76.7638
 0.6830	76.7471
 0.6820	76.7054
 0.6810	76.6606
 0.6800	76.6167
 0.6790	76.5881
 0.6780	76.5625
 0.6770	76.5251
 0.6760	76.4874
 0.6750	76.4387
 0.6740	76.3984
 0.6730	76.3616
 0.6720	76.3302
 0.6710	76.3061
 0.6700	76.2648
 0.6690	76.2114
 0.6680	76.1692
 0.6670	76.1248
 0.6660	76.1051
 0.6650	76.0777
 0.6640	76.0392
 0.6630	76.0123
 0.6620	75.9769
 0.6610	75.9388
 0.6600	75.9071
 0.6590	75.8696
 0.6580	75.8360
 0.6570	75.8135
 0.6560	75.7864
 0.6550	75.7541
 0.6540	75.7246
 0.6530	75.7097
 0.6520	75.6873
 0.6510	75.6533
 0.6500	75.6256
 0.6490	75.6065
 0.6480	75.5798
 0.6470	75.5640
 0.6460	75.5433
 0.6450	75.5202
 0.6440	75.5036
 0.6430	75.4863
 0.6420	75.4673
 0.6410	75.4327
 0.6400	75.4086
 0.6390	75.4083
 0.6380	75.3867
 0.6370	75.3769
 0.6360	75.3765
 0.6350	75.3543
 0.6340	75.3479
 0.6330	75.3492
 0.6320	75.3270
 0.6310	75.3138
 0.6300	75.3076
 0.6290	75.2828
 0.6280	75.2790
 0.6270	75.2808
 0.6260	75.2610
 0.6250	75.2617
 0.6240	75.2619
 0.6230	75.2557
 0.6220	75.2491
 0.6210	75.2480
 0.6200	75.2463
 0.6190	75.2344
 0.6180	75.2397
 0.6170	75.2507
 0.6160	75.2558
 0.6150	75.2322
 0.6140	75.2405
 0.6130	75.2563
 0.6120	75.2299
 0.6110	75.2218
 0.6100	75.2324
 0.6090	75.2264
 0.6080	75.2480
 0.6070	75.2517
 0.6060	75.2525
 0.6050	75.2630
 0.6040	75.2588
 0.6030	75.2523
 0.6020	75.2607
 0.6010	75.2744
 0.6000	75.2715
 0.5990	75.2788
 0.5980	75.2995
 0.5970	75.3092
 0.5960	75.3187
 0.5950	75.3447
 0.5940	75.3575
 0.5930	75.3618
 0.5920	75.3610
 0.5910	75.3558
 0.5900	75.3502
 0.5890	75.3390
 0.5880	75.3430
 0.5870	75.3526
 0.5860	75.3496
 0.5850	75.3381
 0.5840	75.3466
 0.5830	75.3208
 0.5820	75.3201
 0.5810	75.3238
 0.5800	75.3121
 0.5790	75.3094
 0.5780	75.2887
 0.5770	75.2805
 0.5760	75.2717
 0.5750	75.2624
 0.5740	75.2481
 0.5730	75.2443
 0.5720	75.2342
 0.5710	75.2189
 0.5700	75.2034
 0.5690	75.1960
 0.5680	75.1699
 0.5670	75.1432
 0.5660	75.1156
 0.5650	75.0984
 0.5640	75.0724
 0.5630	75.0520
 0.5620	75.0197
 0.5610	74.9696
 0.5600	74.9384
 0.5590	74.9096
 0.5580	74.8589
 0.5570	74.8248
 0.5560	74.7623
 0.5550	74.7160
 0.5540	74.6730
 0.5530	74.6056
 0.5520	74.5434
 0.5510	74.4528
 0.5500	74.4208
 0.5490	74.3369
 0.5480	74.2656
 0.5470	74.1776
 0.5460	74.0873
 0.5450	73.9972
 0.5440	73.9249
 0.5430	73.8555
 0.5420	73.7720
 0.5410	73.6700
 0.5400	73.5796
 0.5390	73.4971
 0.5380	73.4296
 0.5370	73.3469
 0.5360	73.2540
 0.5350	73.1839
 0.5340	73.1161
 0.5330	73.0321
 0.5320	72.9391
 0.5310	72.8715
 0.5300	72.7759
 0.5290	72.6911
 0.5280	72.5792
 0.5270	72.4792
 0.5260	72.3670
 0.5250	72.2609
 0.5240	72.1620
 0.5230	72.0161
 0.5220	71.8694
 0.5210	71.7365
 0.5200	71.5927
 0.5190	71.4407
 0.5180	71.2601
 0.5170	71.1193
 0.5160	70.9522
 0.5150	70.8018
 0.5140	70.6453
 0.5130	70.4896
 0.5120	70.3558
 0.5110	70.2322
 0.5100	70.1268
 0.5090	70.0153
 0.5080	69.8871
 0.5070	69.7815
 0.5060	69.6954
 0.5050	69.6070
 0.5040	69.5408
 0.5030	69.4263
 0.5020	69.3227
 0.5010	69.2720
 0.5000	69.1937
 0.4990	69.1070
 0.4980	68.9972
 0.4970	68.8757
 0.4960	68.7978
 0.4950	68.6930
 0.4940	68.6064
 0.4930	68.4921
 0.4920	68.4077
 0.4910	68.2943
 0.4900	68.2235
 0.4890	68.1274
 0.4880	68.0533
 0.4870	67.9778
 0.4860	67.9181
 0.4850	67.8371
 0.4840	67.7682
 0.4830	67.7012
 0.4820	67.6330
 0.4810	67.5890
 0.4800	67.5293
 0.4790	67.4717
 0.4780	67.4250
 0.4770	67.3757
 0.4760	67.2999
 0.4750	67.2277
 0.4740	67.1761
 0.4730	67.0723
 0.4720	66.9764
 0.4710	66.8858
 0.4700	66.7850
 0.4690	66.6756
 0.4680	66.5639
 0.4670	66.4352
 0.4660	66.3394
 0.4650	66.2296
 0.4640	66.1046
 0.4630	65.9940
 0.4620	65.8643
 0.4610	65.7661
 0.4600	65.6292
 0.4590	65.4838
 0.4580	65.3723
 0.4570	65.2421
 0.4560	65.1285
 0.4550	65.0039
 0.4540	64.8835
 0.4530	64.7422
 0.4520	64.6085
 0.4510	64.4607
 0.4500	64.3049
 0.4490	64.1366
 0.4480	63.9675
 0.4470	63.7883
 0.4460	63.5773
 0.4450	63.3691
 0.4440	63.1514
 0.4430	62.9314
 0.4420	62.7107
 0.4410	62.4609
 0.4400	62.2246
 0.4390	61.9655
 0.4380	61.7005
 0.4370	61.4849
 0.4360	61.2618
 0.4350	61.0491
 0.4340	60.8345
 0.4330	60.6496
 0.4320	60.4524
 0.4310	60.2604
 0.4300	60.0673
 0.4290	59.8564
 0.4280	59.6452
 0.4270	59.4265
 0.4260	59.2068
 0.4250	58.9647
 0.4240	58.7142
 0.4230	58.4583
 0.4220	58.2056
 0.4210	57.9313
 0.4200	57.6578
 0.4190	57.3870
 0.4180	57.1031
 0.4170	56.8218
 0.4160	56.5282
 0.4150	56.2388
 0.4140	55.9486
 0.4130	55.6545
 0.4120	55.3617
 0.4110	55.0673
 0.4100	54.7861
 0.4090	54.4935
 0.4080	54.2101
 0.4070	53.9306
 0.4060	53.6554
 0.4050	53.3689
 0.4040	53.0841
 0.4030	52.8222
 0.4020	52.5311
 0.4010	52.2512
 0.4000	51.9754
