Name: Sanidine (Feldspar) (K,Na)AlSi_3O_8
Type: Mineral
Class: Silicate
Subclass: Tectosilicate
Particle Size: Fine
Sample No.: TS-14A
Owner: JPL
Wavelength Range: VSWIR
Origin: Unknown.
Collection Date: N/A
Description: Particle size was 0-45um.Collected by:  JPL Original ASTER Spectral Library name was jpl.perkin.mineral.silicate.tectosilicate.fine.ts14a.spectrum.txt
Measurement: Hemispherical reflectance
First Column: X
Second Column: Y
X Units: Wavelength (micrometers)
Y Units:Reflectance (percent)
First X Value:  2.5000
Last X Value:  0.4000
Number of X Values: 2101
Additional Information: mineral.silicate.tectosilicate.fine.vswir.ts-14a.jpl.perkin.ancillary.txt

 2.5000	68.2999
 2.4990	68.0058
 2.4980	68.0282
 2.4970	68.1893
 2.4960	67.9488
 2.4950	68.1088
 2.4940	68.1190
 2.4930	68.0808
 2.4920	68.1122
 2.4910	68.2685
 2.4900	68.2969
 2.4890	68.3284
 2.4880	68.4308
 2.4870	68.3799
 2.4860	68.3311
 2.4850	68.3487
 2.4840	68.5312
 2.4830	68.3876
 2.4820	68.3840
 2.4810	68.6573
 2.4800	68.5520
 2.4790	68.5096
 2.4780	68.5373
 2.4770	68.6586
 2.4760	68.4305
 2.4750	68.7239
 2.4740	68.6695
 2.4730	68.8043
 2.4720	68.7821
 2.4710	68.7544
 2.4700	68.8346
 2.4690	69.0153
 2.4680	68.8514
 2.4670	68.9010
 2.4660	68.8468
 2.4650	68.9726
 2.4640	69.0991
 2.4630	69.1284
 2.4620	68.8542
 2.4610	69.2263
 2.4600	69.2262
 2.4590	69.2436
 2.4580	69.1863
 2.4570	69.2710
 2.4560	69.1235
 2.4550	69.2505
 2.4540	69.2757
 2.4530	69.3227
 2.4520	69.3606
 2.4510	69.3143
 2.4500	69.3751
 2.4490	69.3894
 2.4480	69.3294
 2.4470	69.4787
 2.4460	69.4292
 2.4450	69.5199
 2.4440	69.5566
 2.4430	69.5146
 2.4420	69.5697
 2.4410	69.6906
 2.4400	69.6153
 2.4390	69.7708
 2.4380	69.7055
 2.4370	69.8473
 2.4360	69.8090
 2.4350	69.8685
 2.4340	69.8503
 2.4330	69.9247
 2.4320	70.0193
 2.4310	69.9703
 2.4300	69.9626
 2.4290	70.0961
 2.4280	70.1254
 2.4270	70.1770
 2.4260	70.2394
 2.4250	70.3028
 2.4240	70.3301
 2.4230	70.4232
 2.4220	70.5418
 2.4210	70.5483
 2.4200	70.5404
 2.4190	70.5506
 2.4180	70.5696
 2.4170	70.6712
 2.4160	70.5990
 2.4150	70.6617
 2.4140	70.7430
 2.4130	70.8888
 2.4120	70.9448
 2.4110	70.9144
 2.4100	70.9565
 2.4090	71.0138
 2.4080	71.0699
 2.4070	71.0432
 2.4060	71.0379
 2.4050	71.1087
 2.4040	71.1488
 2.4030	71.1392
 2.4020	71.1909
 2.4010	71.1473
 2.4000	71.1890
 2.3990	71.2504
 2.3980	71.1888
 2.3970	71.2872
 2.3960	71.3478
 2.3950	71.3378
 2.3940	71.3248
 2.3930	71.3687
 2.3920	71.3943
 2.3910	71.3766
 2.3900	71.3659
 2.3890	71.4373
 2.3880	71.4891
 2.3870	71.4712
 2.3860	71.4563
 2.3850	71.4784
 2.3840	71.4542
 2.3830	71.5235
 2.3820	71.5936
 2.3810	71.5903
 2.3800	71.5807
 2.3790	71.6082
 2.3780	71.7286
 2.3770	71.7917
 2.3760	71.7261
 2.3750	71.7560
 2.3740	71.8339
 2.3730	71.8236
 2.3720	71.8431
 2.3710	71.9462
 2.3700	71.9501
 2.3690	71.9017
 2.3680	71.9025
 2.3670	72.0014
 2.3660	72.0100
 2.3650	72.0045
 2.3640	72.0690
 2.3630	72.0958
 2.3620	72.1260
 2.3610	72.0726
 2.3600	72.0427
 2.3590	72.1028
 2.3580	72.1609
 2.3570	72.1893
 2.3560	72.1639
 2.3550	72.1441
 2.3540	72.2046
 2.3530	72.2400
 2.3520	72.1792
 2.3510	72.1973
 2.3500	72.2533
 2.3490	72.2115
 2.3480	72.2302
 2.3470	72.3001
 2.3460	72.3748
 2.3450	72.4065
 2.3440	72.3965
 2.3430	72.3447
 2.3420	72.3480
 2.3410	72.4191
 2.3400	72.4691
 2.3390	72.4676
 2.3380	72.5330
 2.3370	72.6030
 2.3360	72.5502
 2.3350	72.5567
 2.3340	72.5728
 2.3330	72.5659
 2.3320	72.5594
 2.3310	72.6280
 2.3300	72.7167
 2.3290	72.7288
 2.3280	72.6894
 2.3270	72.7054
 2.3260	72.7175
 2.3250	72.7014
 2.3240	72.8051
 2.3230	72.7661
 2.3220	72.7927
 2.3210	72.7777
 2.3200	72.8319
 2.3190	72.8364
 2.3180	72.8260
 2.3170	72.8611
 2.3160	72.9387
 2.3150	72.9580
 2.3140	73.0109
 2.3130	73.0774
 2.3120	73.0435
 2.3110	72.9515
 2.3100	72.9963
 2.3090	73.0972
 2.3080	73.1094
 2.3070	73.0810
 2.3060	73.1491
 2.3050	73.1920
 2.3040	73.2197
 2.3030	73.2848
 2.3020	73.2633
 2.3010	73.2769
 2.3000	73.3551
 2.2990	73.3683
 2.2980	73.4276
 2.2970	73.4333
 2.2960	73.4293
 2.2950	73.4339
 2.2940	73.5253
 2.2930	73.5076
 2.2920	73.4368
 2.2910	73.5390
 2.2900	73.6212
 2.2890	73.6269
 2.2880	73.5491
 2.2870	73.5961
 2.2860	73.5927
 2.2850	73.6018
 2.2840	73.6377
 2.2830	73.6449
 2.2820	73.7547
 2.2810	73.6914
 2.2800	73.7127
 2.2790	73.6645
 2.2780	73.7796
 2.2770	73.7557
 2.2760	73.7831
 2.2750	73.7609
 2.2740	73.7622
 2.2730	73.7715
 2.2720	73.7999
 2.2710	73.8004
 2.2700	73.8025
 2.2690	73.7036
 2.2680	73.8546
 2.2670	73.8141
 2.2660	73.7741
 2.2650	73.8311
 2.2640	73.7952
 2.2630	73.7818
 2.2620	73.7518
 2.2610	73.6957
 2.2600	73.7726
 2.2590	73.8015
 2.2580	73.8185
 2.2570	73.8464
 2.2560	73.8053
 2.2550	73.7901
 2.2540	73.7994
 2.2530	73.7913
 2.2520	73.7366
 2.2510	73.7628
 2.2500	73.8759
 2.2490	73.7087
 2.2480	73.8205
 2.2470	73.7385
 2.2460	73.8305
 2.2450	73.7971
 2.2440	73.7908
 2.2430	73.7300
 2.2420	73.6734
 2.2410	73.7385
 2.2400	73.7851
 2.2390	73.7590
 2.2380	73.6664
 2.2370	73.6086
 2.2360	73.6461
 2.2350	73.7068
 2.2340	73.7190
 2.2330	73.5913
 2.2320	73.6387
 2.2310	73.5712
 2.2300	73.6562
 2.2290	73.5744
 2.2280	73.5178
 2.2270	73.3968
 2.2260	73.4141
 2.2250	73.2304
 2.2240	73.3110
 2.2230	73.2374
 2.2220	73.1498
 2.2210	73.0745
 2.2200	72.9594
 2.2190	72.8245
 2.2180	72.8242
 2.2170	72.6213
 2.2160	72.5288
 2.2150	72.3834
 2.2140	72.2390
 2.2130	72.1232
 2.2120	72.0202
 2.2110	71.8084
 2.2100	71.9548
 2.2090	71.7838
 2.2080	71.7584
 2.2070	71.7019
 2.2060	71.7026
 2.2050	71.7719
 2.2040	71.8388
 2.2030	71.9373
 2.2020	71.9966
 2.2010	72.0605
 2.2000	72.2147
 2.1990	72.2065
 2.1980	72.3934
 2.1970	72.3272
 2.1960	72.5685
 2.1950	72.4293
 2.1940	72.6943
 2.1930	72.6075
 2.1920	72.7184
 2.1910	72.7933
 2.1900	72.8507
 2.1890	72.8643
 2.1880	72.8937
 2.1870	72.9161
 2.1860	73.0635
 2.1850	73.1637
 2.1840	73.1751
 2.1830	73.2315
 2.1820	73.2946
 2.1810	73.3780
 2.1800	73.4066
 2.1790	73.4581
 2.1780	73.5713
 2.1770	73.5449
 2.1760	73.6624
 2.1750	73.6597
 2.1740	73.7101
 2.1730	73.9177
 2.1720	73.8911
 2.1710	73.8771
 2.1700	74.0272
 2.1690	73.9682
 2.1680	74.1059
 2.1670	74.0539
 2.1660	74.1496
 2.1650	74.1297
 2.1640	74.2951
 2.1630	74.3268
 2.1620	74.4752
 2.1610	74.4458
 2.1600	74.5957
 2.1590	74.6176
 2.1580	74.6775
 2.1570	74.7983
 2.1560	74.8630
 2.1550	74.8272
 2.1540	74.9445
 2.1530	74.9965
 2.1520	75.1009
 2.1510	75.1838
 2.1500	75.2583
 2.1490	75.2638
 2.1480	75.3331
 2.1470	75.3236
 2.1460	75.4554
 2.1450	75.4759
 2.1440	75.4708
 2.1430	75.4482
 2.1420	75.5153
 2.1410	75.6269
 2.1400	75.6774
 2.1390	75.6538
 2.1380	75.6143
 2.1370	75.6179
 2.1360	75.6664
 2.1350	75.6984
 2.1340	75.7356
 2.1330	75.6787
 2.1320	75.6294
 2.1310	75.6099
 2.1300	75.6191
 2.1290	75.5743
 2.1280	75.5460
 2.1270	75.5439
 2.1260	75.5368
 2.1250	75.4826
 2.1240	75.4190
 2.1230	75.3405
 2.1220	75.3368
 2.1210	75.2890
 2.1200	75.2594
 2.1190	75.2181
 2.1180	75.1719
 2.1170	75.0584
 2.1160	74.9841
 2.1150	74.9461
 2.1140	74.9821
 2.1130	74.9735
 2.1120	74.9499
 2.1110	74.8854
 2.1100	74.7736
 2.1090	74.7742
 2.1080	74.7505
 2.1070	74.7123
 2.1060	74.7427
 2.1050	74.6053
 2.1040	74.5769
 2.1030	74.6129
 2.1020	74.6110
 2.1010	74.5623
 2.1000	74.4857
 2.0990	74.4998
 2.0980	74.5153
 2.0970	74.5247
 2.0960	74.4789
 2.0950	74.4463
 2.0940	74.5132
 2.0930	74.5116
 2.0920	74.5417
 2.0910	74.5876
 2.0900	74.6579
 2.0890	74.6242
 2.0880	74.5766
 2.0870	74.5881
 2.0860	74.5784
 2.0850	74.5650
 2.0840	74.6473
 2.0830	74.6730
 2.0820	74.6877
 2.0810	74.7013
 2.0800	74.6974
 2.0790	74.6914
 2.0780	74.7107
 2.0770	74.7085
 2.0760	74.7035
 2.0750	74.7310
 2.0740	74.7492
 2.0730	74.6956
 2.0720	74.6632
 2.0710	74.7137
 2.0700	74.7108
 2.0690	74.7357
 2.0680	74.7862
 2.0670	74.7335
 2.0660	74.7520
 2.0650	74.8441
 2.0640	74.8533
 2.0630	74.8131
 2.0620	74.8057
 2.0610	74.7953
 2.0600	74.7705
 2.0590	74.7694
 2.0580	74.8300
 2.0570	74.8485
 2.0560	74.8082
 2.0550	74.7868
 2.0540	74.8115
 2.0530	74.8710
 2.0520	74.9069
 2.0510	74.9164
 2.0500	74.9061
 2.0490	74.8986
 2.0480	74.8805
 2.0470	74.9196
 2.0460	74.9327
 2.0450	74.9281
 2.0440	74.9457
 2.0430	74.9563
 2.0420	74.9326
 2.0410	74.8993
 2.0400	74.8673
 2.0390	74.9005
 2.0380	74.8880
 2.0370	74.9047
 2.0360	74.9683
 2.0350	74.8969
 2.0340	74.8486
 2.0330	74.8880
 2.0320	74.9081
 2.0310	74.8603
 2.0300	74.8280
 2.0290	74.8801
 2.0280	74.8846
 2.0270	74.8570
 2.0260	74.8800
 2.0250	74.8822
 2.0240	74.8363
 2.0230	74.8753
 2.0220	74.8603
 2.0210	74.8015
 2.0200	74.7994
 2.0190	74.8415
 2.0180	74.7899
 2.0170	74.7284
 2.0160	74.6962
 2.0150	74.7773
 2.0140	74.7678
 2.0130	74.7642
 2.0120	74.7108
 2.0110	74.6626
 2.0100	74.6468
 2.0090	74.7005
 2.0080	74.7134
 2.0070	74.6618
 2.0060	74.5717
 2.0050	74.5732
 2.0040	74.6190
 2.0030	74.6583
 2.0020	74.6386
 2.0010	74.6537
 2.0000	74.5316
 1.9990	74.5630
 1.9980	74.5614
 1.9970	74.5288
 1.9960	74.3876
 1.9950	74.4342
 1.9940	74.4079
 1.9930	74.3870
 1.9920	74.3224
 1.9910	74.3608
 1.9900	74.2430
 1.9890	74.3358
 1.9880	74.2328
 1.9870	74.2617
 1.9860	74.1710
 1.9850	74.1499
 1.9840	74.0730
 1.9830	74.1026
 1.9820	73.9767
 1.9810	73.9956
 1.9800	74.0109
 1.9790	73.9879
 1.9780	73.9669
 1.9770	73.9621
 1.9760	73.9392
 1.9750	73.9671
 1.9740	73.8695
 1.9730	73.9267
 1.9720	73.8307
 1.9710	73.8702
 1.9700	73.8345
 1.9690	73.7121
 1.9680	73.7305
 1.9670	73.7584
 1.9660	73.7542
 1.9650	73.7655
 1.9640	73.6216
 1.9630	73.6432
 1.9620	73.6443
 1.9610	73.6339
 1.9600	73.5730
 1.9590	73.6318
 1.9580	73.5376
 1.9570	73.5298
 1.9560	73.5181
 1.9550	73.6186
 1.9540	73.5369
 1.9530	73.5380
 1.9520	73.5075
 1.9510	73.5213
 1.9500	73.4617
 1.9490	73.4509
 1.9480	73.3129
 1.9470	73.4100
 1.9460	73.4187
 1.9450	73.3803
 1.9440	73.2972
 1.9430	73.3779
 1.9420	73.3345
 1.9410	73.4349
 1.9400	73.2857
 1.9390	73.3379
 1.9380	73.3004
 1.9370	73.3172
 1.9360	73.1889
 1.9350	73.2698
 1.9340	73.2111
 1.9330	73.2830
 1.9320	73.2196
 1.9310	73.2891
 1.9300	73.1604
 1.9290	73.1957
 1.9280	73.1061
 1.9270	73.1615
 1.9260	73.0084
 1.9250	73.1885
 1.9240	73.0647
 1.9230	73.0326
 1.9220	72.9701
 1.9210	72.9974
 1.9200	72.9764
 1.9190	72.9673
 1.9180	72.9600
 1.9170	72.9389
 1.9160	72.8842
 1.9150	72.9765
 1.9140	72.9324
 1.9130	73.0568
 1.9120	72.9147
 1.9110	72.9245
 1.9100	72.9823
 1.9090	72.9659
 1.9080	73.1296
 1.9070	73.2186
 1.9060	73.1653
 1.9050	73.2758
 1.9040	73.3875
 1.9030	73.6099
 1.9020	73.5920
 1.9010	73.7401
 1.9000	73.8869
 1.8990	73.9999
 1.8980	74.1550
 1.8970	74.2212
 1.8960	74.3030
 1.8950	74.4563
 1.8940	74.4953
 1.8930	74.6557
 1.8920	74.7848
 1.8910	74.8176
 1.8900	75.0296
 1.8890	75.0828
 1.8880	75.0025
 1.8870	75.2190
 1.8860	75.2419
 1.8850	75.2631
 1.8840	75.2255
 1.8830	75.4305
 1.8820	75.4472
 1.8810	75.4745
 1.8800	75.5118
 1.8790	75.5698
 1.8780	75.5313
 1.8770	75.5970
 1.8760	75.6780
 1.8750	75.7334
 1.8740	75.7346
 1.8730	75.8090
 1.8720	75.8995
 1.8710	75.9324
 1.8700	75.8747
 1.8690	75.9362
 1.8680	75.9319
 1.8670	75.9918
 1.8660	75.9928
 1.8650	75.9871
 1.8640	75.9948
 1.8630	76.0077
 1.8620	75.9207
 1.8610	75.9040
 1.8600	75.9048
 1.8590	75.9446
 1.8580	75.9514
 1.8570	75.9707
 1.8560	75.9735
 1.8550	75.9127
 1.8540	75.9331
 1.8530	75.9432
 1.8520	75.9784
 1.8510	75.9817
 1.8500	75.9200
 1.8490	75.9765
 1.8480	75.9755
 1.8470	75.9301
 1.8460	75.9833
 1.8450	75.9777
 1.8440	75.9298
 1.8430	75.9810
 1.8420	75.9706
 1.8410	76.0081
 1.8400	75.9052
 1.8390	75.9535
 1.8380	76.0342
 1.8370	76.0247
 1.8360	75.9611
 1.8350	75.9647
 1.8340	75.9376
 1.8330	75.9514
 1.8320	75.9764
 1.8310	75.9580
 1.8300	75.9173
 1.8290	75.9112
 1.8280	75.9219
 1.8270	75.9308
 1.8260	75.9394
 1.8250	75.9511
 1.8240	75.9399
 1.8230	75.9237
 1.8220	75.9558
 1.8210	75.9343
 1.8200	75.9165
 1.8190	75.9564
 1.8180	75.9879
 1.8170	76.0089
 1.8160	75.9832
 1.8150	76.0136
 1.8140	75.9613
 1.8130	75.9240
 1.8120	75.9250
 1.8110	75.9515
 1.8100	75.9057
 1.8090	75.8928
 1.8080	75.9519
 1.8070	75.9586
 1.8060	75.9433
 1.8050	75.8859
 1.8040	75.8861
 1.8030	75.9387
 1.8020	75.9344
 1.8010	75.9850
 1.8000	75.9586
 1.7990	75.9415
 1.7980	75.9347
 1.7970	75.8929
 1.7960	75.9121
 1.7950	75.9634
 1.7940	75.9347
 1.7930	75.9010
 1.7920	75.9345
 1.7910	75.9249
 1.7900	75.9354
 1.7890	75.9381
 1.7880	75.8931
 1.7870	75.8576
 1.7860	75.8459
 1.7850	75.8328
 1.7840	75.8529
 1.7830	75.8590
 1.7820	75.8133
 1.7810	75.8221
 1.7800	75.8786
 1.7790	75.8409
 1.7780	75.8512
 1.7770	75.9087
 1.7760	75.8514
 1.7750	75.8397
 1.7740	75.8464
 1.7730	75.8490
 1.7720	75.8818
 1.7710	75.8203
 1.7700	75.7838
 1.7690	75.8581
 1.7680	75.8685
 1.7670	75.8372
 1.7660	75.8403
 1.7650	75.8307
 1.7640	75.8203
 1.7630	75.8343
 1.7620	75.8451
 1.7610	75.8298
 1.7600	75.8434
 1.7590	75.8575
 1.7580	75.8423
 1.7570	75.8272
 1.7560	75.8263
 1.7550	75.8569
 1.7540	75.8927
 1.7530	75.8800
 1.7520	75.8556
 1.7510	75.9192
 1.7500	75.9092
 1.7490	75.8383
 1.7480	75.8819
 1.7470	75.8718
 1.7460	75.8580
 1.7450	75.8372
 1.7440	75.8566
 1.7430	75.8613
 1.7420	75.9036
 1.7410	75.8603
 1.7400	75.9183
 1.7390	75.9170
 1.7380	75.8768
 1.7370	75.8673
 1.7360	75.8919
 1.7350	75.8948
 1.7340	75.9397
 1.7330	75.9258
 1.7320	75.9113
 1.7310	75.8806
 1.7300	75.8652
 1.7290	75.8392
 1.7280	75.9083
 1.7270	75.8833
 1.7260	75.9040
 1.7250	75.9016
 1.7240	75.8326
 1.7230	75.9304
 1.7220	75.9932
 1.7210	75.9224
 1.7200	75.8747
 1.7190	75.8792
 1.7180	75.8731
 1.7170	75.8406
 1.7160	75.9481
 1.7150	75.9385
 1.7140	75.8805
 1.7130	75.8085
 1.7120	75.8387
 1.7110	75.9099
 1.7100	75.9034
 1.7090	75.9115
 1.7080	75.8661
 1.7070	75.8915
 1.7060	75.9110
 1.7050	75.8676
 1.7040	75.8868
 1.7030	75.8269
 1.7020	75.8188
 1.7010	75.7847
 1.7000	75.8249
 1.6990	75.8301
 1.6980	75.8131
 1.6970	75.8236
 1.6960	75.8041
 1.6950	75.7726
 1.6940	75.8640
 1.6930	75.7881
 1.6920	75.8013
 1.6910	75.7774
 1.6900	75.8896
 1.6890	75.7947
 1.6880	75.7563
 1.6870	75.8204
 1.6860	75.8871
 1.6850	75.8706
 1.6840	75.8316
 1.6830	75.7721
 1.6820	75.8174
 1.6810	75.8700
 1.6800	75.8114
 1.6790	75.8095
 1.6780	75.8479
 1.6770	75.7841
 1.6760	75.9430
 1.6750	75.7746
 1.6740	75.7596
 1.6730	75.8512
 1.6720	75.7914
 1.6710	75.7842
 1.6700	75.8096
 1.6690	75.8230
 1.6680	75.8302
 1.6670	75.7899
 1.6660	75.7452
 1.6650	75.7713
 1.6640	75.8188
 1.6630	75.8820
 1.6620	75.7156
 1.6610	75.7251
 1.6600	75.8020
 1.6590	75.7948
 1.6580	75.7992
 1.6570	75.8113
 1.6560	75.8282
 1.6550	75.8516
 1.6540	75.7789
 1.6530	75.7611
 1.6520	75.8266
 1.6510	75.7846
 1.6500	75.7492
 1.6490	75.7642
 1.6480	75.7669
 1.6470	75.6877
 1.6460	75.7470
 1.6450	75.7081
 1.6440	75.8694
 1.6430	75.8330
 1.6420	75.6591
 1.6410	75.7210
 1.6400	75.8211
 1.6390	75.7248
 1.6380	75.7192
 1.6370	75.7233
 1.6360	75.7334
 1.6350	75.7285
 1.6340	75.7668
 1.6330	75.7966
 1.6320	75.7051
 1.6310	75.7699
 1.6300	75.6431
 1.6290	75.7210
 1.6280	75.7714
 1.6270	75.6967
 1.6260	75.7344
 1.6250	75.7708
 1.6240	75.6828
 1.6230	75.6604
 1.6220	75.7316
 1.6210	75.6615
 1.6200	75.6074
 1.6190	75.6389
 1.6180	75.7009
 1.6170	75.6694
 1.6160	75.7461
 1.6150	75.6704
 1.6140	75.7039
 1.6130	75.6981
 1.6120	75.6316
 1.6110	75.6068
 1.6100	75.7278
 1.6090	75.7073
 1.6080	75.6922
 1.6070	75.6591
 1.6060	75.6667
 1.6050	75.6383
 1.6040	75.7450
 1.6030	75.6878
 1.6020	75.6913
 1.6010	75.6923
 1.6000	75.6901
 1.5990	75.5840
 1.5980	75.7101
 1.5970	75.6540
 1.5960	75.6927
 1.5950	75.7180
 1.5940	75.6721
 1.5930	75.5899
 1.5920	75.6508
 1.5910	75.6027
 1.5900	75.6249
 1.5890	75.6026
 1.5880	75.6008
 1.5870	75.5794
 1.5860	75.6155
 1.5850	75.6064
 1.5840	75.5419
 1.5830	75.5335
 1.5820	75.6081
 1.5810	75.5628
 1.5800	75.6327
 1.5790	75.6294
 1.5780	75.5488
 1.5770	75.5713
 1.5760	75.5577
 1.5750	75.5229
 1.5740	75.5635
 1.5730	75.5334
 1.5720	75.5174
 1.5710	75.5507
 1.5700	75.5686
 1.5690	75.5341
 1.5680	75.5000
 1.5670	75.5239
 1.5660	75.5135
 1.5650	75.4868
 1.5640	75.4725
 1.5630	75.4904
 1.5620	75.5884
 1.5610	75.4919
 1.5600	75.4735
 1.5590	75.4598
 1.5580	75.5621
 1.5570	75.5091
 1.5560	75.5172
 1.5550	75.4809
 1.5540	75.4308
 1.5530	75.4145
 1.5520	75.4765
 1.5510	75.4589
 1.5500	75.4370
 1.5490	75.4072
 1.5480	75.4267
 1.5470	75.4300
 1.5460	75.4261
 1.5450	75.3878
 1.5440	75.3496
 1.5430	75.4162
 1.5420	75.4225
 1.5410	75.3654
 1.5400	75.3613
 1.5390	75.3740
 1.5380	75.3988
 1.5370	75.3629
 1.5360	75.3385
 1.5350	75.3011
 1.5340	75.3484
 1.5330	75.2974
 1.5320	75.2880
 1.5310	75.3451
 1.5300	75.3736
 1.5290	75.3572
 1.5280	75.3297
 1.5270	75.2961
 1.5260	75.3352
 1.5250	75.2651
 1.5240	75.3004
 1.5230	75.3204
 1.5220	75.2985
 1.5210	75.2226
 1.5200	75.1569
 1.5190	75.1944
 1.5180	75.2864
 1.5170	75.2757
 1.5160	75.2497
 1.5150	75.2412
 1.5140	75.1978
 1.5130	75.2211
 1.5120	75.2235
 1.5110	75.1846
 1.5100	75.1549
 1.5090	75.2003
 1.5080	75.2463
 1.5070	75.1978
 1.5060	75.1941
 1.5050	75.1512
 1.5040	75.0953
 1.5030	75.1047
 1.5020	75.1276
 1.5010	75.1574
 1.5000	75.1400
 1.4990	75.1236
 1.4980	75.0754
 1.4970	75.0694
 1.4960	75.0861
 1.4950	75.1025
 1.4940	75.0701
 1.4930	75.0627
 1.4920	75.0828
 1.4910	75.0611
 1.4900	75.0291
 1.4890	74.9595
 1.4880	74.9704
 1.4870	74.9550
 1.4860	74.9834
 1.4850	74.9467
 1.4840	74.9154
 1.4830	74.9856
 1.4820	74.9648
 1.4810	74.9267
 1.4800	74.9639
 1.4790	74.9337
 1.4780	74.8564
 1.4770	74.8854
 1.4760	74.8733
 1.4750	74.9001
 1.4740	74.9420
 1.4730	74.9098
 1.4720	74.8421
 1.4710	74.8820
 1.4700	74.8555
 1.4690	74.8546
 1.4680	74.8625
 1.4670	74.8762
 1.4660	74.8403
 1.4650	74.7649
 1.4640	74.7007
 1.4630	74.7039
 1.4620	74.6804
 1.4610	74.7624
 1.4600	74.7243
 1.4590	74.7233
 1.4580	74.7355
 1.4570	74.7975
 1.4560	74.7125
 1.4550	74.7594
 1.4540	74.6927
 1.4530	74.6880
 1.4520	74.6176
 1.4510	74.6891
 1.4500	74.6637
 1.4490	74.7135
 1.4480	74.7321
 1.4470	74.7105
 1.4460	74.6754
 1.4450	74.6808
 1.4440	74.6319
 1.4430	74.6492
 1.4420	74.6213
 1.4410	74.5929
 1.4400	74.5090
 1.4390	74.5362
 1.4380	74.5360
 1.4370	74.5018
 1.4360	74.4568
 1.4350	74.4226
 1.4340	74.3973
 1.4330	74.4621
 1.4320	74.3493
 1.4310	74.4293
 1.4300	74.3134
 1.4290	74.2672
 1.4280	74.2442
 1.4270	74.0795
 1.4260	74.0485
 1.4250	74.0350
 1.4240	74.0118
 1.4230	73.9585
 1.4220	73.8626
 1.4210	73.7690
 1.4200	73.6190
 1.4190	73.3339
 1.4180	73.0405
 1.4170	72.8303
 1.4160	72.7035
 1.4150	72.7890
 1.4140	72.8885
 1.4130	73.0403
 1.4120	73.1428
 1.4110	73.2904
 1.4100	73.3476
 1.4090	73.3247
 1.4080	73.3059
 1.4070	73.4437
 1.4060	73.3400
 1.4050	73.3584
 1.4040	73.4682
 1.4030	73.5861
 1.4020	73.5735
 1.4010	73.5978
 1.4000	73.6089
 1.3990	73.6833
 1.3980	73.6620
 1.3970	73.7605
 1.3960	73.7658
 1.3950	73.9060
 1.3940	73.8494
 1.3930	74.0769
 1.3920	74.1398
 1.3910	74.1502
 1.3900	74.3014
 1.3890	74.3282
 1.3880	74.4258
 1.3870	74.4629
 1.3860	74.5130
 1.3850	74.6271
 1.3840	74.5461
 1.3830	74.6397
 1.3820	74.7223
 1.3810	74.6377
 1.3800	74.7063
 1.3790	74.7410
 1.3780	74.7592
 1.3770	74.7711
 1.3760	74.7482
 1.3750	74.7783
 1.3740	74.7669
 1.3730	74.8527
 1.3720	74.7490
 1.3710	74.9229
 1.3700	74.8305
 1.3690	74.7276
 1.3680	74.8395
 1.3670	74.8159
 1.3660	74.8073
 1.3650	74.8048
 1.3640	74.6730
 1.3630	74.8053
 1.3620	74.7218
 1.3610	74.8217
 1.3600	74.7821
 1.3590	74.7726
 1.3580	74.7355
 1.3570	74.8278
 1.3560	74.7456
 1.3550	74.7478
 1.3540	74.7424
 1.3530	74.8451
 1.3520	74.7751
 1.3510	74.7694
 1.3500	74.7641
 1.3490	74.7924
 1.3480	74.7439
 1.3470	74.7967
 1.3460	74.7416
 1.3450	74.7474
 1.3440	74.7551
 1.3430	74.8145
 1.3420	74.7889
 1.3410	74.7563
 1.3400	74.7377
 1.3390	74.8122
 1.3380	74.7898
 1.3370	74.7604
 1.3360	74.6751
 1.3350	74.7686
 1.3340	74.6105
 1.3330	74.7109
 1.3320	74.6636
 1.3310	74.6934
 1.3300	74.7033
 1.3290	74.7503
 1.3280	74.6921
 1.3270	74.6746
 1.3260	74.7296
 1.3250	74.6811
 1.3240	74.6785
 1.3230	74.6178
 1.3220	74.6893
 1.3210	74.6698
 1.3200	74.6796
 1.3190	74.7067
 1.3180	74.6356
 1.3170	74.6608
 1.3160	74.6471
 1.3150	74.6401
 1.3140	74.6462
 1.3130	74.6169
 1.3120	74.5502
 1.3110	74.6114
 1.3100	74.6238
 1.3090	74.6056
 1.3080	74.5469
 1.3070	74.6278
 1.3060	74.6377
 1.3050	74.6405
 1.3040	74.6939
 1.3030	74.5685
 1.3020	74.5515
 1.3010	74.5172
 1.3000	74.5742
 1.2990	74.5933
 1.2980	74.6005
 1.2970	74.5897
 1.2960	74.5863
 1.2950	74.5947
 1.2940	74.5531
 1.2930	74.5836
 1.2920	74.5277
 1.2910	74.6198
 1.2900	74.5896
 1.2890	74.5420
 1.2880	74.5403
 1.2870	74.5694
 1.2860	74.5713
 1.2850	74.5421
 1.2840	74.4570
 1.2830	74.5569
 1.2820	74.5536
 1.2810	74.5608
 1.2800	74.5693
 1.2790	74.5849
 1.2780	74.4888
 1.2770	74.5191
 1.2760	74.5271
 1.2750	74.5421
 1.2740	74.4770
 1.2730	74.4578
 1.2720	74.4485
 1.2710	74.5266
 1.2700	74.5329
 1.2690	74.5354
 1.2680	74.5035
 1.2670	74.4385
 1.2660	74.4191
 1.2650	74.4133
 1.2640	74.4124
 1.2630	74.4503
 1.2620	74.4856
 1.2610	74.4599
 1.2600	74.3840
 1.2590	74.4010
 1.2580	74.4468
 1.2570	74.4195
 1.2560	74.3868
 1.2550	74.4324
 1.2540	74.3828
 1.2530	74.3665
 1.2520	74.3704
 1.2510	74.4154
 1.2500	74.3727
 1.2490	74.3943
 1.2480	74.4297
 1.2470	74.3846
 1.2460	74.3813
 1.2450	74.3810
 1.2440	74.3095
 1.2430	74.2618
 1.2420	74.2809
 1.2410	74.2893
 1.2400	74.2887
 1.2390	74.3284
 1.2380	74.2766
 1.2370	74.2431
 1.2360	74.2897
 1.2350	74.2980
 1.2340	74.2682
 1.2330	74.2994
 1.2320	74.2508
 1.2310	74.2496
 1.2300	74.2835
 1.2290	74.2654
 1.2280	74.2644
 1.2270	74.2553
 1.2260	74.2599
 1.2250	74.2599
 1.2240	74.2409
 1.2230	74.2583
 1.2220	74.2245
 1.2210	74.1680
 1.2200	74.1283
 1.2190	74.1397
 1.2180	74.1609
 1.2170	74.1207
 1.2160	74.0726
 1.2150	74.1165
 1.2140	74.1532
 1.2130	74.1605
 1.2120	74.1660
 1.2110	74.1685
 1.2100	74.1720
 1.2090	74.1712
 1.2080	74.1630
 1.2070	74.1433
 1.2060	74.1306
 1.2050	74.1355
 1.2040	74.1046
 1.2030	74.0928
 1.2020	74.1086
 1.2010	74.0489
 1.2000	74.0056
 1.1990	73.9971
 1.1980	74.0032
 1.1970	74.0247
 1.1960	74.0493
 1.1950	74.0643
 1.1940	74.1044
 1.1930	74.1291
 1.1920	74.0317
 1.1910	73.9555
 1.1900	74.0349
 1.1890	74.0853
 1.1880	74.0363
 1.1870	74.0242
 1.1860	74.0465
 1.1850	73.9970
 1.1840	74.0099
 1.1830	74.0437
 1.1820	73.9615
 1.1810	73.9621
 1.1800	74.0630
 1.1790	74.0460
 1.1780	73.9323
 1.1770	73.9334
 1.1760	73.9431
 1.1750	73.8864
 1.1740	73.8682
 1.1730	73.9002
 1.1720	73.9079
 1.1710	73.8834
 1.1700	73.9035
 1.1690	73.9230
 1.1680	73.9224
 1.1670	73.9099
 1.1660	73.9258
 1.1650	73.9065
 1.1640	73.8703
 1.1630	73.8537
 1.1620	73.8974
 1.1610	73.9061
 1.1600	73.8578
 1.1590	73.8292
 1.1580	73.8149
 1.1570	73.8309
 1.1560	73.8388
 1.1550	73.8899
 1.1540	73.8496
 1.1530	73.8150
 1.1520	73.7566
 1.1510	73.8231
 1.1500	73.8282
 1.1490	73.7675
 1.1480	73.7938
 1.1470	73.8189
 1.1460	73.8306
 1.1450	73.7420
 1.1440	73.7352
 1.1430	73.7659
 1.1420	73.7720
 1.1410	73.7150
 1.1400	73.7441
 1.1390	73.7014
 1.1380	73.7528
 1.1370	73.7915
 1.1360	73.7376
 1.1350	73.6597
 1.1340	73.7058
 1.1330	73.7327
 1.1320	73.7046
 1.1310	73.7021
 1.1300	73.6547
 1.1290	73.6429
 1.1280	73.6752
 1.1270	73.6411
 1.1260	73.6143
 1.1250	73.5545
 1.1240	73.7222
 1.1230	73.7038
 1.1220	73.6799
 1.1210	73.5563
 1.1200	73.6239
 1.1190	73.5659
 1.1180	73.5739
 1.1170	73.4965
 1.1160	73.6307
 1.1150	73.6366
 1.1140	73.5446
 1.1130	73.4963
 1.1120	73.5448
 1.1110	73.5464
 1.1100	73.4582
 1.1090	73.5179
 1.1080	73.5289
 1.1070	73.4722
 1.1060	73.5405
 1.1050	73.4215
 1.1040	73.4406
 1.1030	73.4936
 1.1020	73.4918
 1.1010	73.4702
 1.1000	73.4837
 1.0990	73.4436
 1.0980	73.3515
 1.0970	73.4484
 1.0960	73.3643
 1.0950	73.3774
 1.0940	73.4441
 1.0930	73.3918
 1.0920	73.3587
 1.0910	73.3918
 1.0900	73.4392
 1.0890	73.3231
 1.0880	73.4492
 1.0870	73.3444
 1.0860	73.4092
 1.0850	73.3746
 1.0840	73.4452
 1.0830	73.2935
 1.0820	73.2936
 1.0810	73.3490
 1.0800	73.3174
 1.0790	73.1886
 1.0780	73.3458
 1.0770	73.2151
 1.0760	73.2688
 1.0750	73.2563
 1.0740	73.2593
 1.0730	73.2416
 1.0720	73.2248
 1.0710	73.1731
 1.0700	73.1802
 1.0690	73.1714
 1.0680	73.2145
 1.0670	73.1335
 1.0660	73.2226
 1.0650	73.1868
 1.0640	73.1740
 1.0630	73.1768
 1.0620	73.1751
 1.0610	73.1823
 1.0600	73.1874
 1.0590	73.2216
 1.0580	73.1608
 1.0570	73.0519
 1.0560	73.0734
 1.0550	73.1154
 1.0540	73.1506
 1.0530	73.0582
 1.0520	73.1048
 1.0510	73.0598
 1.0500	73.0890
 1.0490	73.0303
 1.0480	73.0694
 1.0470	73.0546
 1.0460	73.0814
 1.0450	72.9398
 1.0440	73.0092
 1.0430	72.9457
 1.0420	72.9899
 1.0410	72.9840
 1.0400	72.9069
 1.0390	72.9957
 1.0380	72.9984
 1.0370	72.9131
 1.0360	72.9186
 1.0350	72.8665
 1.0340	72.9443
 1.0330	72.8937
 1.0320	72.9816
 1.0310	72.8746
 1.0300	72.8664
 1.0290	72.8751
 1.0280	72.9272
 1.0270	72.8410
 1.0260	72.8311
 1.0250	72.8524
 1.0240	72.8654
 1.0230	72.7643
 1.0220	72.8050
 1.0210	72.8339
 1.0200	72.7833
 1.0190	72.7406
 1.0180	72.8322
 1.0170	72.6867
 1.0160	72.7862
 1.0150	72.7712
 1.0140	72.7357
 1.0130	72.6955
 1.0120	72.7595
 1.0110	72.7554
 1.0100	72.6973
 1.0090	72.6788
 1.0080	72.7043
 1.0070	72.6709
 1.0060	72.6336
 1.0050	72.5811
 1.0040	72.6674
 1.0030	72.6439
 1.0020	72.6223
 1.0010	72.5842
 1.0000	72.6135
 0.9990	72.5852
 0.9980	72.5650
 0.9970	72.4878
 0.9960	72.6011
 0.9950	72.6480
 0.9940	72.5984
 0.9930	72.4816
 0.9920	72.5216
 0.9910	72.5134
 0.9900	72.5385
 0.9890	72.4738
 0.9880	72.5027
 0.9870	72.5109
 0.9860	72.5694
 0.9850	72.5047
 0.9840	72.4825
 0.9830	72.4401
 0.9820	72.4616
 0.9810	72.4633
 0.9800	72.5086
 0.9790	72.4347
 0.9780	72.3618
 0.9770	72.3356
 0.9760	72.3387
 0.9750	72.3518
 0.9740	72.3878
 0.9730	72.3646
 0.9720	72.3617
 0.9710	72.3391
 0.9700	72.3136
 0.9690	72.2379
 0.9680	72.2869
 0.9670	72.1902
 0.9660	72.2361
 0.9650	72.2858
 0.9640	72.2473
 0.9630	72.2249
 0.9620	72.2126
 0.9610	72.1948
 0.9600	72.1734
 0.9590	72.1232
 0.9580	72.1739
 0.9570	72.1835
 0.9560	72.1358
 0.9550	72.1831
 0.9540	72.1906
 0.9530	72.1528
 0.9520	72.1551
 0.9510	72.1046
 0.9500	72.1459
 0.9490	72.1560
 0.9480	72.1024
 0.9470	72.0966
 0.9460	72.1230
 0.9450	72.0731
 0.9440	72.0466
 0.9430	72.0710
 0.9420	72.0898
 0.9410	72.0920
 0.9400	72.0963
 0.9390	72.0704
 0.9380	72.0114
 0.9370	72.0100
 0.9360	72.0136
 0.9350	71.9716
 0.9340	71.9536
 0.9330	72.0235
 0.9320	72.0717
 0.9310	72.0084
 0.9300	71.9617
 0.9290	71.9498
 0.9280	71.9310
 0.9270	71.9367
 0.9260	71.9852
 0.9250	71.9586
 0.9240	71.8875
 0.9230	71.9346
 0.9220	71.9793
 0.9210	71.8908
 0.9200	71.8597
 0.9190	71.8831
 0.9180	71.8784
 0.9170	71.9172
 0.9160	71.9354
 0.9150	71.9311
 0.9140	71.9442
 0.9130	71.9242
 0.9120	71.8244
 0.9110	71.8959
 0.9100	71.9103
 0.9090	71.9360
 0.9080	71.8778
 0.9070	71.8114
 0.9060	71.8326
 0.9050	71.8521
 0.9040	71.8603
 0.9030	71.8951
 0.9020	71.8791
 0.9010	71.8286
 0.9000	71.8243
 0.8990	71.8731
 0.8980	71.8642
 0.8970	71.8301
 0.8960	71.8250
 0.8950	71.8260
 0.8940	71.8413
 0.8930	71.8813
 0.8920	71.8310
 0.8910	71.8679
 0.8900	71.9100
 0.8890	71.8856
 0.8880	71.9112
 0.8870	71.9619
 0.8860	71.9247
 0.8850	71.9378
 0.8840	71.9897
 0.8830	71.9853
 0.8820	71.9480
 0.8810	72.0021
 0.8800	71.9348
 0.8790	71.9984
 0.8780	71.9622
 0.8770	71.9690
 0.8760	71.9935
 0.8750	72.0020
 0.8740	72.0423
 0.8730	72.0917
 0.8720	72.0895
 0.8710	72.0778
 0.8700	72.0862
 0.8690	72.1183
 0.8680	72.0901
 0.8670	72.1471
 0.8660	72.1125
 0.8650	72.1899
 0.8640	72.1635
 0.8630	72.1810
 0.8620	72.1454
 0.8610	72.1593
 0.8600	72.2773
 0.8590	72.2968
 0.8580	72.2799
 0.8570	72.3478
 0.8560	72.3075
 0.8550	72.3832
 0.8540	72.3852
 0.8530	72.3701
 0.8520	72.3457
 0.8510	72.4203
 0.8500	72.4204
 0.8490	72.3577
 0.8480	72.3725
 0.8470	72.3719
 0.8460	72.4200
 0.8450	72.4126
 0.8440	72.3747
 0.8430	72.3840
 0.8420	72.3852
 0.8410	72.4418
 0.8400	72.4418
 0.8390	72.4307
 0.8380	72.4249
 0.8370	72.4518
 0.8360	72.4549
 0.8350	72.4434
 0.8340	72.4536
 0.8330	72.4919
 0.8320	72.4404
 0.8310	72.4753
 0.8300	72.4484
 0.8290	72.4684
 0.8280	72.5174
 0.8270	72.4938
 0.8260	72.5103
 0.8250	72.4774
 0.8240	72.4835
 0.8230	72.4819
 0.8220	72.5095
 0.8210	72.4972
 0.8200	72.5033
 0.8190	72.4580
 0.8180	72.4861
 0.8170	72.5136
 0.8160	72.4691
 0.8150	72.4813
 0.8140	72.5207
 0.8130	72.4787
 0.8120	72.5231
 0.8110	72.4731
 0.8100	72.5069
 0.8090	72.4976
 0.8080	72.5350
 0.8070	72.5519
 0.8060	72.5253
 0.8050	72.4874
 0.8040	72.4937
 0.8030	72.5136
 0.8020	72.5366
 0.8010	72.5782
 0.8000	72.5578
 0.7990	72.5120
 0.7980	72.5294
 0.7970	72.4725
 0.7960	72.4496
 0.7950	72.4231
 0.7940	72.4522
 0.7930	72.4508
 0.7920	72.4979
 0.7910	72.4159
 0.7900	72.4343
 0.7890	72.4576
 0.7880	72.4483
 0.7870	72.4385
 0.7860	72.4813
 0.7850	72.4179
 0.7840	72.4283
 0.7830	72.4314
 0.7820	72.4269
 0.7810	72.3758
 0.7800	72.3598
 0.7790	72.3731
 0.7780	72.3763
 0.7770	72.3694
 0.7760	72.3699
 0.7750	72.3760
 0.7740	72.3522
 0.7730	72.3247
 0.7720	72.3162
 0.7710	72.2996
 0.7700	72.2997
 0.7690	72.2976
 0.7680	72.2643
 0.7670	72.2395
 0.7660	72.2617
 0.7650	72.2257
 0.7640	72.2365
 0.7630	72.2525
 0.7620	72.2106
 0.7610	72.2060
 0.7600	72.2118
 0.7590	72.1772
 0.7580	72.1623
 0.7570	72.1463
 0.7560	72.1372
 0.7550	72.1190
 0.7540	72.1181
 0.7530	72.1223
 0.7520	72.0751
 0.7510	72.0836
 0.7500	72.0475
 0.7490	72.0358
 0.7480	72.0078
 0.7470	71.9853
 0.7460	71.9903
 0.7450	71.9760
 0.7440	71.9544
 0.7430	71.9583
 0.7420	71.9235
 0.7410	71.8855
 0.7400	71.8658
 0.7390	71.8561
 0.7380	71.8384
 0.7370	71.8211
 0.7360	71.7995
 0.7350	71.7450
 0.7340	71.7564
 0.7330	71.7390
 0.7320	71.7058
 0.7310	71.6954
 0.7300	71.7050
 0.7290	71.6539
 0.7280	71.6456
 0.7270	71.6069
 0.7260	71.5862
 0.7250	71.5594
 0.7240	71.5370
 0.7230	71.5163
 0.7220	71.4705
 0.7210	71.4444
 0.7200	71.4288
 0.7190	71.3882
 0.7180	71.3606
 0.7170	71.3461
 0.7160	71.3194
 0.7150	71.2927
 0.7140	71.2517
 0.7130	71.2397
 0.7120	71.2290
 0.7110	71.1902
 0.7100	71.1716
 0.7090	71.1635
 0.7080	71.1043
 0.7070	71.0553
 0.7060	71.0228
 0.7050	71.0068
 0.7040	70.9806
 0.7030	70.9434
 0.7020	70.9160
 0.7010	70.8953
 0.7000	70.8716
 0.6990	70.8447
 0.6980	70.8169
 0.6970	70.7996
 0.6960	70.7650
 0.6950	70.7514
 0.6940	70.7135
 0.6930	70.6637
 0.6920	70.6569
 0.6910	70.6186
 0.6900	70.5908
 0.6890	70.5514
 0.6880	70.5265
 0.6870	70.5115
 0.6860	70.4837
 0.6850	70.4552
 0.6840	70.4228
 0.6830	70.3969
 0.6820	70.3669
 0.6810	70.3264
 0.6800	70.2806
 0.6790	70.2608
 0.6780	70.2349
 0.6770	70.2096
 0.6760	70.1650
 0.6750	70.1350
 0.6740	70.1176
 0.6730	70.0828
 0.6720	70.0440
 0.6710	70.0210
 0.6700	69.9844
 0.6690	69.9594
 0.6680	69.9384
 0.6670	69.9010
 0.6660	69.8902
 0.6650	69.8647
 0.6640	69.8156
 0.6630	69.7879
 0.6620	69.7616
 0.6610	69.7245
 0.6600	69.6937
 0.6590	69.6663
 0.6580	69.6435
 0.6570	69.6033
 0.6560	69.5684
 0.6550	69.5351
 0.6540	69.5099
 0.6530	69.4945
 0.6520	69.4686
 0.6510	69.4288
 0.6500	69.3951
 0.6490	69.3675
 0.6480	69.3304
 0.6470	69.2924
 0.6460	69.2558
 0.6450	69.2309
 0.6440	69.1999
 0.6430	69.1541
 0.6420	69.1406
 0.6410	69.1179
 0.6400	69.0713
 0.6390	69.0357
 0.6380	69.0101
 0.6370	68.9888
 0.6360	68.9518
 0.6350	68.8999
 0.6340	68.8775
 0.6330	68.8537
 0.6320	68.8059
 0.6310	68.7666
 0.6300	68.7408
 0.6290	68.7167
 0.6280	68.6823
 0.6270	68.6547
 0.6260	68.6047
 0.6250	68.5699
 0.6240	68.5371
 0.6230	68.4992
 0.6220	68.4685
 0.6210	68.4295
 0.6200	68.3843
 0.6190	68.3368
 0.6180	68.3007
 0.6170	68.2658
 0.6160	68.2367
 0.6150	68.1921
 0.6140	68.1432
 0.6130	68.1000
 0.6120	68.0537
 0.6110	68.0078
 0.6100	67.9620
 0.6090	67.9169
 0.6080	67.8722
 0.6070	67.8308
 0.6060	67.7837
 0.6050	67.7362
 0.6040	67.6873
 0.6030	67.6195
 0.6020	67.5687
 0.6010	67.5164
 0.6000	67.4448
 0.5990	67.3920
 0.5980	67.3560
 0.5970	67.3174
 0.5960	67.2486
 0.5950	67.1919
 0.5940	67.1348
 0.5930	67.0696
 0.5920	66.9968
 0.5910	66.9259
 0.5900	66.8518
 0.5890	66.7767
 0.5880	66.6869
 0.5870	66.6070
 0.5860	66.5288
 0.5850	66.4421
 0.5840	66.3532
 0.5830	66.2650
 0.5820	66.1764
 0.5810	66.0726
 0.5800	65.9893
 0.5790	65.8855
 0.5780	65.7745
 0.5770	65.6780
 0.5760	65.5576
 0.5750	65.4484
 0.5740	65.3493
 0.5730	65.2381
 0.5720	65.1167
 0.5710	65.0021
 0.5700	64.8664
 0.5690	64.7442
 0.5680	64.6234
 0.5670	64.5083
 0.5660	64.3883
 0.5650	64.2507
 0.5640	64.1147
 0.5630	63.9794
 0.5620	63.8486
 0.5610	63.7042
 0.5600	63.5692
 0.5590	63.4324
 0.5580	63.2998
 0.5570	63.1537
 0.5560	63.0042
 0.5550	62.8608
 0.5540	62.7140
 0.5530	62.5725
 0.5520	62.4379
 0.5510	62.2777
 0.5500	62.1305
 0.5490	61.9980
 0.5480	61.8504
 0.5470	61.7102
 0.5460	61.5709
 0.5450	61.4216
 0.5440	61.2723
 0.5430	61.1276
 0.5420	60.9893
 0.5410	60.8426
 0.5400	60.6999
 0.5390	60.5593
 0.5380	60.4099
 0.5370	60.2672
 0.5360	60.1304
 0.5350	59.9944
 0.5340	59.8570
 0.5330	59.7070
 0.5320	59.5681
 0.5310	59.4326
 0.5300	59.2854
 0.5290	59.1446
 0.5280	59.0089
 0.5270	58.8689
 0.5260	58.7410
 0.5250	58.6058
 0.5240	58.4755
 0.5230	58.3388
 0.5220	58.2000
 0.5210	58.0755
 0.5200	57.9379
 0.5190	57.7987
 0.5180	57.6826
 0.5170	57.5521
 0.5160	57.4255
 0.5150	57.2947
 0.5140	57.1587
 0.5130	57.0267
 0.5120	56.9091
 0.5110	56.7972
 0.5100	56.6569
 0.5090	56.5383
 0.5080	56.4029
 0.5070	56.2909
 0.5060	56.1804
 0.5050	56.0449
 0.5040	55.9274
 0.5030	55.7960
 0.5020	55.6698
 0.5010	55.5727
 0.5000	55.4525
 0.4990	55.3249
 0.4980	55.2189
 0.4970	55.0954
 0.4960	54.9734
 0.4950	54.8702
 0.4940	54.7421
 0.4930	54.6333
 0.4920	54.5436
 0.4910	54.4136
 0.4900	54.3139
 0.4890	54.2090
 0.4880	54.1087
 0.4870	54.0199
 0.4860	53.9192
 0.4850	53.8106
 0.4840	53.7182
 0.4830	53.6461
 0.4820	53.5484
 0.4810	53.4479
 0.4800	53.3553
 0.4790	53.2980
 0.4780	53.2245
 0.4770	53.1627
 0.4760	53.0983
 0.4750	53.0279
 0.4740	52.9469
 0.4730	52.8769
 0.4720	52.8033
 0.4710	52.7418
 0.4700	52.6819
 0.4690	52.6021
 0.4680	52.5363
 0.4670	52.4687
 0.4660	52.4195
 0.4650	52.3404
 0.4640	52.2791
 0.4630	52.2234
 0.4620	52.1450
 0.4610	52.0597
 0.4600	51.9929
 0.4590	51.9145
 0.4580	51.8422
 0.4570	51.7609
 0.4560	51.6775
 0.4550	51.5963
 0.4540	51.4943
 0.4530	51.3974
 0.4520	51.2926
 0.4510	51.2057
 0.4500	51.0845
 0.4490	50.9837
 0.4480	50.8676
 0.4470	50.7604
 0.4460	50.6401
 0.4450	50.5001
 0.4440	50.3549
 0.4430	50.2089
 0.4420	50.0762
 0.4410	49.9458
 0.4400	49.8202
 0.4390	49.6716
 0.4380	49.5184
 0.4370	49.3866
 0.4360	49.2375
 0.4350	49.0822
 0.4340	48.9494
 0.4330	48.7996
 0.4320	48.6475
 0.4310	48.4980
 0.4300	48.3597
 0.4290	48.2102
 0.4280	48.0704
 0.4270	47.9323
 0.4260	47.7899
 0.4250	47.6440
 0.4240	47.5115
 0.4230	47.3796
 0.4220	47.2493
 0.4210	47.1206
 0.4200	47.0086
 0.4190	46.8915
 0.4180	46.7728
 0.4170	46.6625
 0.4160	46.5492
 0.4150	46.4412
 0.4140	46.3300
 0.4130	46.2064
 0.4120	46.1001
 0.4110	45.9921
 0.4100	45.8838
 0.4090	45.7729
 0.4080	45.6619
 0.4070	45.5641
 0.4060	45.4772
 0.4050	45.3604
 0.4040	45.2518
 0.4030	45.1400
 0.4020	45.0386
 0.4010	44.9148
 0.4000	44.8146
