Name: Nontronite Na_0.33Fe_2^3+(Si,Al)_4O_10(OH)_2.H_2O
Type: Mineral
Class: Silicate
Subclass: Phyllosilicate
Particle Size: Fine
Sample No.: PS-6D
Owner: JPL
Wavelength Range: VSWIR
Origin: USA, Washington, Grant County.
Collection Date: N/A
Description: Particle size was 0-45um.Collected by:  Clay Mineral Society Original ASTER Spectral Library name was jpl.perkin.mineral.silicate.phyllosilicate.fine.ps06d.spectrum.txt
Measurement: Hemispherical reflectance
First Column: X
Second Column: Y
X Units: Wavelength (micrometers)
Y Units:Reflectance (percent)
First X Value:  2.5000
Last X Value:  0.4000
Number of X Values: 2101
Additional Information: mineral.silicate.phyllosilicate.fine.vswir.ps-6d.jpl.perkin.ancillary.txt

 2.5000	27.7132
 2.4990	27.6056
 2.4980	27.8431
 2.4970	27.8170
 2.4960	27.7390
 2.4950	27.8713
 2.4940	28.0249
 2.4930	27.8883
 2.4920	28.1701
 2.4910	28.1418
 2.4900	28.4234
 2.4890	28.2718
 2.4880	28.5307
 2.4870	28.6912
 2.4860	28.8086
 2.4850	28.6130
 2.4840	28.9784
 2.4830	28.8582
 2.4820	29.1520
 2.4810	29.1785
 2.4800	29.4351
 2.4790	29.3633
 2.4780	29.5744
 2.4770	29.4742
 2.4760	29.8312
 2.4750	29.7391
 2.4740	29.9804
 2.4730	29.9446
 2.4720	30.1592
 2.4710	30.2080
 2.4700	30.5356
 2.4690	30.4165
 2.4680	30.5851
 2.4670	30.7131
 2.4660	30.8857
 2.4650	30.8658
 2.4640	31.0092
 2.4630	31.2186
 2.4620	31.2663
 2.4610	31.3921
 2.4600	31.6094
 2.4590	31.5458
 2.4580	31.8037
 2.4570	31.7573
 2.4560	31.9112
 2.4550	31.9514
 2.4540	32.1447
 2.4530	32.1918
 2.4520	32.4750
 2.4510	32.4392
 2.4500	32.6946
 2.4490	32.6730
 2.4480	32.9624
 2.4470	32.9307
 2.4460	33.0728
 2.4450	33.0851
 2.4440	33.3977
 2.4430	33.4114
 2.4420	33.4764
 2.4410	33.5740
 2.4400	33.7391
 2.4390	33.8278
 2.4380	33.9606
 2.4370	34.0331
 2.4360	34.1422
 2.4350	34.1538
 2.4340	34.3679
 2.4330	34.4929
 2.4320	34.5423
 2.4310	34.5492
 2.4300	34.8930
 2.4290	34.8646
 2.4280	35.0154
 2.4270	35.0856
 2.4260	35.1141
 2.4250	35.1932
 2.4240	35.3213
 2.4230	35.3431
 2.4220	35.5150
 2.4210	35.5418
 2.4200	35.6968
 2.4190	35.6643
 2.4180	35.7562
 2.4170	35.7852
 2.4160	35.8695
 2.4150	35.9286
 2.4140	36.0306
 2.4130	36.0092
 2.4120	36.1146
 2.4110	36.1337
 2.4100	36.2908
 2.4090	36.3010
 2.4080	36.3778
 2.4070	36.4444
 2.4060	36.5520
 2.4050	36.5109
 2.4040	36.6149
 2.4030	36.6643
 2.4020	36.6709
 2.4010	36.7092
 2.4000	36.7538
 2.3990	36.8162
 2.3980	36.9659
 2.3970	37.0881
 2.3960	37.2047
 2.3950	37.2607
 2.3940	37.3247
 2.3930	37.3585
 2.3920	37.5173
 2.3910	37.5582
 2.3900	37.6806
 2.3890	37.7618
 2.3880	37.9779
 2.3870	38.0717
 2.3860	38.1936
 2.3850	38.3275
 2.3840	38.4786
 2.3830	38.5480
 2.3820	38.7521
 2.3810	38.8814
 2.3800	39.0464
 2.3790	39.2444
 2.3780	39.3919
 2.3770	39.5024
 2.3760	39.6617
 2.3750	39.8008
 2.3740	39.9789
 2.3730	40.1028
 2.3720	40.2961
 2.3710	40.4493
 2.3700	40.5993
 2.3690	40.7301
 2.3680	40.9318
 2.3670	41.0907
 2.3660	41.2739
 2.3650	41.4434
 2.3640	41.6264
 2.3630	41.8023
 2.3620	41.9738
 2.3610	42.1668
 2.3600	42.3437
 2.3590	42.4958
 2.3580	42.6777
 2.3570	42.9011
 2.3560	43.1093
 2.3550	43.2539
 2.3540	43.4190
 2.3530	43.6047
 2.3520	43.7406
 2.3510	43.9517
 2.3500	44.0902
 2.3490	44.2319
 2.3480	44.4093
 2.3470	44.5224
 2.3460	44.6530
 2.3450	44.8209
 2.3440	44.9616
 2.3430	45.1382
 2.3420	45.3052
 2.3410	45.4162
 2.3400	45.5583
 2.3390	45.7000
 2.3380	45.7820
 2.3370	45.9326
 2.3360	46.0791
 2.3350	46.1587
 2.3340	46.1854
 2.3330	46.3679
 2.3320	46.4779
 2.3310	46.5867
 2.3300	46.7011
 2.3290	46.8257
 2.3280	46.9097
 2.3270	47.0061
 2.3260	46.9918
 2.3250	47.0795
 2.3240	47.1969
 2.3230	47.2364
 2.3220	47.1866
 2.3210	47.2334
 2.3200	47.3113
 2.3190	47.4434
 2.3180	47.4843
 2.3170	47.4565
 2.3160	47.4131
 2.3150	47.3795
 2.3140	47.2641
 2.3130	47.2448
 2.3120	47.1310
 2.3110	47.0752
 2.3100	46.9649
 2.3090	46.8636
 2.3080	46.7499
 2.3070	46.6220
 2.3060	46.3935
 2.3050	46.2163
 2.3040	46.0393
 2.3030	45.9142
 2.3020	45.6545
 2.3010	45.5673
 2.3000	45.3874
 2.2990	45.2060
 2.2980	45.0307
 2.2970	44.8812
 2.2960	44.7283
 2.2950	44.6217
 2.2940	44.5031
 2.2930	44.5024
 2.2920	44.3934
 2.2910	44.4772
 2.2900	44.3956
 2.2890	44.4857
 2.2880	44.5691
 2.2870	44.6830
 2.2860	44.7723
 2.2850	44.8992
 2.2840	45.0155
 2.2830	45.2017
 2.2820	45.4492
 2.2810	45.6549
 2.2800	45.8935
 2.2790	46.1632
 2.2780	46.4114
 2.2770	46.6862
 2.2760	46.8403
 2.2750	47.1745
 2.2740	47.4397
 2.2730	47.7551
 2.2720	47.9317
 2.2710	48.1814
 2.2700	48.4240
 2.2690	48.7325
 2.2680	48.8379
 2.2670	49.0295
 2.2660	49.1402
 2.2650	49.3704
 2.2640	49.4803
 2.2630	49.6098
 2.2620	49.5790
 2.2610	49.7671
 2.2600	49.7205
 2.2590	49.8123
 2.2580	49.7612
 2.2570	49.7713
 2.2560	49.6419
 2.2550	49.6599
 2.2540	49.6008
 2.2530	49.4999
 2.2520	49.3084
 2.2510	49.3024
 2.2500	49.1456
 2.2490	49.1402
 2.2480	48.9220
 2.2470	48.9078
 2.2460	48.7453
 2.2450	48.7452
 2.2440	48.6442
 2.2430	48.7044
 2.2420	48.6186
 2.2410	48.6505
 2.2400	48.4674
 2.2390	48.6607
 2.2380	48.6333
 2.2370	48.7602
 2.2360	48.7853
 2.2350	48.9228
 2.2340	48.9440
 2.2330	49.1779
 2.2320	49.2079
 2.2310	49.4079
 2.2300	49.4860
 2.2290	49.7214
 2.2280	49.8293
 2.2270	49.8744
 2.2260	50.1093
 2.2250	50.4191
 2.2240	50.4769
 2.2230	50.6705
 2.2220	50.7319
 2.2210	50.8585
 2.2200	51.0843
 2.2190	51.2022
 2.2180	51.3188
 2.2170	51.4173
 2.2160	51.6010
 2.2150	51.7414
 2.2140	51.7239
 2.2130	51.9245
 2.2120	52.0316
 2.2110	52.1162
 2.2100	52.3070
 2.2090	52.4344
 2.2080	52.5067
 2.2070	52.5500
 2.2060	52.7464
 2.2050	52.8425
 2.2040	52.9015
 2.2030	53.1373
 2.2020	53.1939
 2.2010	53.3657
 2.2000	53.5119
 2.1990	53.6264
 2.1980	53.6883
 2.1970	53.8155
 2.1960	53.9257
 2.1950	54.0709
 2.1940	54.0761
 2.1930	54.3032
 2.1920	54.4003
 2.1910	54.6053
 2.1900	54.6775
 2.1890	54.8203
 2.1880	54.8989
 2.1870	55.0540
 2.1860	55.1097
 2.1850	55.2597
 2.1840	55.3269
 2.1830	55.5559
 2.1820	55.6299
 2.1810	55.7286
 2.1800	55.8896
 2.1790	56.0109
 2.1780	56.0136
 2.1770	56.1944
 2.1760	56.2189
 2.1750	56.4085
 2.1740	56.4761
 2.1730	56.5551
 2.1720	56.6526
 2.1710	56.7829
 2.1700	56.8202
 2.1690	56.9786
 2.1680	56.9603
 2.1670	57.0800
 2.1660	57.1124
 2.1650	57.2236
 2.1640	57.2503
 2.1630	57.3440
 2.1620	57.3013
 2.1610	57.3712
 2.1600	57.4105
 2.1590	57.5588
 2.1580	57.5379
 2.1570	57.4937
 2.1560	57.5046
 2.1550	57.5715
 2.1540	57.5471
 2.1530	57.6626
 2.1520	57.6634
 2.1510	57.5925
 2.1500	57.5849
 2.1490	57.5426
 2.1480	57.5205
 2.1470	57.5126
 2.1460	57.4098
 2.1450	57.4957
 2.1440	57.4135
 2.1430	57.3686
 2.1420	57.3017
 2.1410	57.3116
 2.1400	57.2358
 2.1390	57.2082
 2.1380	57.1829
 2.1370	57.2033
 2.1360	57.1565
 2.1350	57.0476
 2.1340	56.9875
 2.1330	56.9377
 2.1320	56.8800
 2.1310	56.8620
 2.1300	56.7736
 2.1290	56.6949
 2.1280	56.5871
 2.1270	56.5657
 2.1260	56.4720
 2.1250	56.4622
 2.1240	56.3178
 2.1230	56.2540
 2.1220	56.1577
 2.1210	56.0343
 2.1200	56.0373
 2.1190	55.9884
 2.1180	55.8469
 2.1170	55.8082
 2.1160	55.7317
 2.1150	55.6251
 2.1140	55.5390
 2.1130	55.4527
 2.1120	55.4507
 2.1110	55.3443
 2.1100	55.1973
 2.1090	55.1401
 2.1080	55.0480
 2.1070	54.9910
 2.1060	54.9409
 2.1050	54.8752
 2.1040	54.8231
 2.1030	54.8041
 2.1020	54.6667
 2.1010	54.5652
 2.1000	54.4681
 2.0990	54.5158
 2.0980	54.4925
 2.0970	54.4101
 2.0960	54.3513
 2.0950	54.3132
 2.0940	54.2746
 2.0930	54.2270
 2.0920	54.1869
 2.0910	54.2270
 2.0900	54.1386
 2.0890	54.0071
 2.0880	54.0270
 2.0870	54.0106
 2.0860	53.9421
 2.0850	53.8925
 2.0840	53.8441
 2.0830	53.8491
 2.0820	53.8167
 2.0810	53.7448
 2.0800	53.6873
 2.0790	53.6668
 2.0780	53.5984
 2.0770	53.5322
 2.0760	53.4421
 2.0750	53.3767
 2.0740	53.3613
 2.0730	53.3767
 2.0720	53.3430
 2.0710	53.3002
 2.0700	53.2339
 2.0690	53.1555
 2.0680	53.1287
 2.0670	53.0835
 2.0660	52.9967
 2.0650	52.9382
 2.0640	52.8816
 2.0630	52.7286
 2.0620	52.6449
 2.0610	52.6485
 2.0600	52.5172
 2.0590	52.3646
 2.0580	52.3262
 2.0570	52.2736
 2.0560	52.1619
 2.0550	52.0674
 2.0540	52.0103
 2.0530	51.8473
 2.0520	51.8448
 2.0510	51.8024
 2.0500	51.7035
 2.0490	51.5752
 2.0480	51.4914
 2.0470	51.3542
 2.0460	51.2596
 2.0450	51.2252
 2.0440	51.1352
 2.0430	50.9722
 2.0420	50.8769
 2.0410	50.7851
 2.0400	50.6738
 2.0390	50.4888
 2.0380	50.4264
 2.0370	50.2977
 2.0360	50.1806
 2.0350	50.0113
 2.0340	49.8688
 2.0330	49.7511
 2.0320	49.6942
 2.0310	49.5184
 2.0300	49.3805
 2.0290	49.1621
 2.0280	49.0504
 2.0270	48.9171
 2.0260	48.7985
 2.0250	48.6096
 2.0240	48.4783
 2.0230	48.2843
 2.0220	48.1314
 2.0210	47.9400
 2.0200	47.8159
 2.0190	47.6936
 2.0180	47.5727
 2.0170	47.3681
 2.0160	47.2324
 2.0150	47.0074
 2.0140	46.9330
 2.0130	46.7596
 2.0120	46.5695
 2.0110	46.3793
 2.0100	46.2416
 2.0090	46.0076
 2.0080	45.9149
 2.0070	45.6239
 2.0060	45.5130
 2.0050	45.2896
 2.0040	45.1596
 2.0030	45.0362
 2.0020	44.8846
 2.0010	44.6169
 2.0000	44.4504
 1.9990	44.2772
 1.9980	44.0878
 1.9970	43.8910
 1.9960	43.7639
 1.9950	43.5594
 1.9940	43.3588
 1.9930	43.1978
 1.9920	43.0353
 1.9910	42.7610
 1.9900	42.6366
 1.9890	42.4200
 1.9880	42.2469
 1.9870	42.0582
 1.9860	41.9344
 1.9850	41.8136
 1.9840	41.6583
 1.9830	41.3998
 1.9820	41.2090
 1.9810	40.9879
 1.9800	40.9527
 1.9790	40.6857
 1.9780	40.6474
 1.9770	40.3729
 1.9760	40.2889
 1.9750	40.0894
 1.9740	39.9977
 1.9730	39.8274
 1.9720	39.7653
 1.9710	39.5277
 1.9700	39.4239
 1.9690	39.1746
 1.9680	39.1507
 1.9670	39.0031
 1.9660	38.8764
 1.9650	38.7156
 1.9640	38.6513
 1.9630	38.4678
 1.9620	38.3336
 1.9610	38.2231
 1.9600	38.2094
 1.9590	38.0184
 1.9580	37.9979
 1.9570	37.7126
 1.9560	37.6391
 1.9550	37.4667
 1.9540	37.3535
 1.9530	37.2743
 1.9520	37.2490
 1.9510	37.0157
 1.9500	36.9646
 1.9490	36.8187
 1.9480	36.7699
 1.9470	36.5680
 1.9460	36.5559
 1.9450	36.3374
 1.9440	36.2981
 1.9430	36.1676
 1.9420	36.0351
 1.9410	35.8773
 1.9400	35.7652
 1.9390	35.5861
 1.9380	35.5163
 1.9370	35.2748
 1.9360	35.1871
 1.9350	35.0260
 1.9340	34.8831
 1.9330	34.6813
 1.9320	34.5650
 1.9310	34.2021
 1.9300	34.1398
 1.9290	33.8312
 1.9280	33.7614
 1.9270	33.4070
 1.9260	33.1233
 1.9250	32.9157
 1.9240	32.5980
 1.9230	32.2544
 1.9220	31.9864
 1.9210	31.7613
 1.9200	31.5114
 1.9190	31.1429
 1.9180	30.7827
 1.9170	30.3413
 1.9160	30.2379
 1.9150	29.7523
 1.9140	29.5598
 1.9130	29.2104
 1.9120	29.0752
 1.9110	28.7697
 1.9100	28.7131
 1.9090	28.4226
 1.9080	28.5183
 1.9070	28.4272
 1.9060	28.6918
 1.9050	28.8532
 1.9040	29.1862
 1.9030	29.6874
 1.9020	30.4204
 1.9010	31.0623
 1.9000	31.9859
 1.8990	32.7885
 1.8980	33.8943
 1.8970	34.9331
 1.8960	36.1182
 1.8950	37.2886
 1.8940	38.5693
 1.8930	39.7626
 1.8920	41.0743
 1.8910	42.2407
 1.8900	43.4743
 1.8890	44.6524
 1.8880	45.8958
 1.8870	47.0286
 1.8860	48.2082
 1.8850	49.1269
 1.8840	50.1023
 1.8830	50.9719
 1.8820	52.1000
 1.8810	52.9007
 1.8800	53.7362
 1.8790	54.3798
 1.8780	55.0424
 1.8770	55.6528
 1.8760	56.4230
 1.8750	57.0269
 1.8740	57.6233
 1.8730	58.2393
 1.8720	58.9295
 1.8710	59.4874
 1.8700	60.0774
 1.8690	60.4900
 1.8680	61.0743
 1.8670	61.4907
 1.8660	61.8489
 1.8650	62.1409
 1.8640	62.4978
 1.8630	62.7899
 1.8620	63.1302
 1.8610	63.3199
 1.8600	63.5477
 1.8590	63.7717
 1.8580	64.0363
 1.8570	64.2717
 1.8560	64.4287
 1.8550	64.5812
 1.8540	64.6702
 1.8530	64.8118
 1.8520	65.0247
 1.8510	65.0565
 1.8500	65.1827
 1.8490	65.3736
 1.8480	65.5081
 1.8470	65.5674
 1.8460	65.6917
 1.8450	65.7505
 1.8440	65.7845
 1.8430	65.8569
 1.8420	65.9214
 1.8410	66.0189
 1.8400	66.0950
 1.8390	66.1033
 1.8380	66.2196
 1.8370	66.2245
 1.8360	66.2297
 1.8350	66.2749
 1.8340	66.3385
 1.8330	66.3187
 1.8320	66.4347
 1.8310	66.4002
 1.8300	66.4421
 1.8290	66.4302
 1.8280	66.5121
 1.8270	66.5757
 1.8260	66.5386
 1.8250	66.5445
 1.8240	66.5571
 1.8230	66.5901
 1.8220	66.6531
 1.8210	66.6414
 1.8200	66.6927
 1.8190	66.6872
 1.8180	66.6038
 1.8170	66.6610
 1.8160	66.7189
 1.8150	66.6388
 1.8140	66.7188
 1.8130	66.7872
 1.8120	66.7483
 1.8110	66.6857
 1.8100	66.7183
 1.8090	66.7629
 1.8080	66.7657
 1.8070	66.7555
 1.8060	66.7472
 1.8050	66.7565
 1.8040	66.7722
 1.8030	66.7273
 1.8020	66.7535
 1.8010	66.8332
 1.8000	66.8421
 1.7990	66.8162
 1.7980	66.7852
 1.7970	66.8097
 1.7960	66.8390
 1.7950	66.8832
 1.7940	66.8405
 1.7930	66.8501
 1.7920	66.9099
 1.7910	66.8755
 1.7900	66.9016
 1.7890	66.9886
 1.7880	67.0460
 1.7870	67.0357
 1.7860	67.0007
 1.7850	67.0213
 1.7840	67.0844
 1.7830	67.0710
 1.7820	67.0761
 1.7810	67.1651
 1.7800	67.1546
 1.7790	67.0992
 1.7780	67.1512
 1.7770	67.2697
 1.7760	67.3022
 1.7750	67.2864
 1.7740	67.3281
 1.7730	67.4054
 1.7720	67.4573
 1.7710	67.5434
 1.7700	67.5312
 1.7690	67.5071
 1.7680	67.5390
 1.7670	67.6281
 1.7660	67.6949
 1.7650	67.7580
 1.7640	67.7629
 1.7630	67.7966
 1.7620	67.8202
 1.7610	67.8168
 1.7600	67.8964
 1.7590	68.0561
 1.7580	68.0602
 1.7570	68.0418
 1.7560	68.0583
 1.7550	68.1520
 1.7540	68.1798
 1.7530	68.2381
 1.7520	68.2613
 1.7510	68.3554
 1.7500	68.4245
 1.7490	68.3611
 1.7480	68.3574
 1.7470	68.4327
 1.7460	68.5065
 1.7450	68.6112
 1.7440	68.6362
 1.7430	68.6876
 1.7420	68.7096
 1.7410	68.7257
 1.7400	68.7648
 1.7390	68.8169
 1.7380	68.8192
 1.7370	68.8915
 1.7360	68.8988
 1.7350	68.9426
 1.7340	68.9659
 1.7330	69.0104
 1.7320	68.9809
 1.7310	69.0593
 1.7300	69.1211
 1.7290	69.1413
 1.7280	69.1360
 1.7270	69.1714
 1.7260	69.1855
 1.7250	69.1934
 1.7240	69.2341
 1.7230	69.3406
 1.7220	69.3029
 1.7210	69.2767
 1.7200	69.2962
 1.7190	69.3389
 1.7180	69.3906
 1.7170	69.4516
 1.7160	69.4237
 1.7150	69.4541
 1.7140	69.4375
 1.7130	69.4449
 1.7120	69.4519
 1.7110	69.4864
 1.7100	69.5438
 1.7090	69.5138
 1.7080	69.4627
 1.7070	69.4998
 1.7060	69.5440
 1.7050	69.5171
 1.7040	69.5419
 1.7030	69.6243
 1.7020	69.5750
 1.7010	69.6349
 1.7000	69.5955
 1.6990	69.6728
 1.6980	69.6241
 1.6970	69.6030
 1.6960	69.5636
 1.6950	69.7236
 1.6940	69.6819
 1.6930	69.6547
 1.6920	69.6082
 1.6910	69.6587
 1.6900	69.6504
 1.6890	69.6271
 1.6880	69.6024
 1.6870	69.6877
 1.6860	69.6057
 1.6850	69.7097
 1.6840	69.6345
 1.6830	69.6938
 1.6820	69.6314
 1.6810	69.7500
 1.6800	69.6963
 1.6790	69.6716
 1.6780	69.6850
 1.6770	69.7181
 1.6760	69.6929
 1.6750	69.6659
 1.6740	69.7014
 1.6730	69.6530
 1.6720	69.6387
 1.6710	69.6694
 1.6700	69.6156
 1.6690	69.6096
 1.6680	69.5533
 1.6670	69.6192
 1.6660	69.5104
 1.6650	69.6269
 1.6640	69.5080
 1.6630	69.5469
 1.6620	69.4641
 1.6610	69.5755
 1.6600	69.6030
 1.6590	69.6173
 1.6580	69.5170
 1.6570	69.5332
 1.6560	69.5253
 1.6550	69.5010
 1.6540	69.3220
 1.6530	69.5238
 1.6520	69.4356
 1.6510	69.4696
 1.6500	69.4520
 1.6490	69.3782
 1.6480	69.3696
 1.6470	69.5032
 1.6460	69.3825
 1.6450	69.4636
 1.6440	69.3610
 1.6430	69.3518
 1.6420	69.4031
 1.6410	69.3897
 1.6400	69.3817
 1.6390	69.3588
 1.6380	69.2865
 1.6370	69.2488
 1.6360	69.2389
 1.6350	69.2966
 1.6340	69.2187
 1.6330	69.1916
 1.6320	69.1436
 1.6310	69.2083
 1.6300	69.0943
 1.6290	69.1310
 1.6280	69.1401
 1.6270	69.0101
 1.6260	69.0256
 1.6250	69.0751
 1.6240	69.0182
 1.6230	69.0123
 1.6220	68.9409
 1.6210	69.0207
 1.6200	68.9295
 1.6190	68.9772
 1.6180	68.8127
 1.6170	68.8831
 1.6160	68.9492
 1.6150	68.9174
 1.6140	68.7727
 1.6130	68.7449
 1.6120	68.7259
 1.6110	68.6828
 1.6100	68.7198
 1.6090	68.7616
 1.6080	68.6916
 1.6070	68.6979
 1.6060	68.6273
 1.6050	68.5501
 1.6040	68.5068
 1.6030	68.6716
 1.6020	68.5032
 1.6010	68.4110
 1.6000	68.4501
 1.5990	68.4076
 1.5980	68.3692
 1.5970	68.3012
 1.5960	68.2850
 1.5950	68.3026
 1.5940	68.2594
 1.5930	68.2384
 1.5920	68.1845
 1.5910	68.1502
 1.5900	68.1187
 1.5890	68.0965
 1.5880	68.0151
 1.5870	67.9831
 1.5860	67.9091
 1.5850	67.8605
 1.5840	67.9425
 1.5830	67.8507
 1.5820	67.7217
 1.5810	67.7149
 1.5800	67.7177
 1.5790	67.6740
 1.5780	67.6420
 1.5770	67.5982
 1.5760	67.4920
 1.5750	67.4797
 1.5740	67.4227
 1.5730	67.3661
 1.5720	67.3030
 1.5710	67.3009
 1.5700	67.2156
 1.5690	67.2092
 1.5680	67.1307
 1.5670	67.0888
 1.5660	67.0367
 1.5650	66.9991
 1.5640	66.9615
 1.5630	66.9564
 1.5620	66.9064
 1.5610	66.8430
 1.5600	66.7780
 1.5590	66.7717
 1.5580	66.6307
 1.5570	66.5996
 1.5560	66.5706
 1.5550	66.4650
 1.5540	66.4259
 1.5530	66.3429
 1.5520	66.2554
 1.5510	66.3258
 1.5500	66.2575
 1.5490	66.1410
 1.5480	66.0407
 1.5470	66.0074
 1.5460	65.9321
 1.5450	65.8584
 1.5440	65.8195
 1.5430	65.7258
 1.5420	65.6631
 1.5410	65.6071
 1.5400	65.4925
 1.5390	65.4649
 1.5380	65.4321
 1.5370	65.3224
 1.5360	65.1680
 1.5350	65.1529
 1.5340	65.0895
 1.5330	65.0219
 1.5320	65.0184
 1.5310	64.8706
 1.5300	64.7525
 1.5290	64.7608
 1.5280	64.6284
 1.5270	64.5135
 1.5260	64.4310
 1.5250	64.3668
 1.5240	64.2990
 1.5230	64.2110
 1.5220	64.1131
 1.5210	64.0564
 1.5200	64.0256
 1.5190	63.9042
 1.5180	63.7378
 1.5170	63.7160
 1.5160	63.6675
 1.5150	63.5451
 1.5140	63.4082
 1.5130	63.2959
 1.5120	63.2058
 1.5110	63.1232
 1.5100	63.0151
 1.5090	62.8446
 1.5080	62.7282
 1.5070	62.6672
 1.5060	62.5677
 1.5050	62.4523
 1.5040	62.3012
 1.5030	62.2247
 1.5020	62.1226
 1.5010	62.0034
 1.5000	61.8584
 1.4990	61.7028
 1.4980	61.6508
 1.4970	61.5815
 1.4960	61.4581
 1.4950	61.2884
 1.4940	61.1573
 1.4930	61.0274
 1.4920	60.9111
 1.4910	60.8040
 1.4900	60.5887
 1.4890	60.4599
 1.4880	60.4024
 1.4870	60.1772
 1.4860	59.9821
 1.4850	59.8988
 1.4840	59.8021
 1.4830	59.6435
 1.4820	59.5187
 1.4810	59.3333
 1.4800	59.1493
 1.4790	58.9725
 1.4780	58.7954
 1.4770	58.5706
 1.4760	58.4320
 1.4750	58.2467
 1.4740	58.0717
 1.4730	57.8511
 1.4720	57.7059
 1.4710	57.5020
 1.4700	57.4017
 1.4690	57.2041
 1.4680	57.0694
 1.4670	56.9662
 1.4660	56.8754
 1.4650	56.7694
 1.4640	56.7567
 1.4630	56.6375
 1.4620	56.6102
 1.4610	56.6388
 1.4600	56.5772
 1.4590	56.5605
 1.4580	56.5231
 1.4570	56.4127
 1.4560	56.3518
 1.4550	56.2791
 1.4540	56.2234
 1.4530	56.1182
 1.4520	55.9531
 1.4510	55.7406
 1.4500	55.6351
 1.4490	55.3922
 1.4480	55.1321
 1.4470	54.8391
 1.4460	54.5366
 1.4450	54.2247
 1.4440	53.9508
 1.4430	53.6538
 1.4420	53.4090
 1.4410	53.1151
 1.4400	52.9932
 1.4390	52.7703
 1.4380	52.4988
 1.4370	52.3170
 1.4360	52.2274
 1.4350	52.0087
 1.4340	51.9088
 1.4330	51.6695
 1.4320	51.5604
 1.4310	51.4113
 1.4300	51.2114
 1.4290	50.8899
 1.4280	50.7783
 1.4270	50.5282
 1.4260	50.3366
 1.4250	50.0635
 1.4240	49.9799
 1.4230	49.7699
 1.4220	49.6694
 1.4210	49.5544
 1.4200	49.5370
 1.4190	49.4943
 1.4180	49.5005
 1.4170	49.4501
 1.4160	49.5578
 1.4150	49.6062
 1.4140	49.7265
 1.4130	49.8444
 1.4120	50.0833
 1.4110	50.2847
 1.4100	50.6028
 1.4090	50.9159
 1.4080	51.2919
 1.4070	51.7701
 1.4060	52.2589
 1.4050	52.6485
 1.4040	53.3257
 1.4030	53.9431
 1.4020	54.5825
 1.4010	55.2179
 1.4000	56.0012
 1.3990	56.6403
 1.3980	57.3501
 1.3970	58.0944
 1.3960	58.9084
 1.3950	59.5548
 1.3940	60.2679
 1.3930	60.9530
 1.3920	61.6098
 1.3910	62.1686
 1.3900	62.7496
 1.3890	63.2787
 1.3880	63.7871
 1.3870	64.2066
 1.3860	64.6686
 1.3850	65.0284
 1.3840	65.4883
 1.3830	65.7144
 1.3820	66.1697
 1.3810	66.4284
 1.3800	66.6808
 1.3790	66.8458
 1.3780	67.1953
 1.3770	67.3584
 1.3760	67.5086
 1.3750	67.5515
 1.3740	67.8614
 1.3730	67.9779
 1.3720	68.1508
 1.3710	68.2296
 1.3700	68.3700
 1.3690	68.3767
 1.3680	68.4398
 1.3670	68.4130
 1.3660	68.6181
 1.3650	68.7054
 1.3640	68.6507
 1.3630	68.6845
 1.3620	68.7023
 1.3610	68.7698
 1.3600	68.7626
 1.3590	68.9110
 1.3580	68.8604
 1.3570	68.9250
 1.3560	68.9738
 1.3550	68.8298
 1.3540	68.9956
 1.3530	69.1040
 1.3520	69.0730
 1.3510	69.1382
 1.3500	69.1662
 1.3490	69.1156
 1.3480	69.1301
 1.3470	69.1882
 1.3460	69.2415
 1.3450	69.1844
 1.3440	69.2753
 1.3430	69.3302
 1.3420	69.3425
 1.3410	69.4028
 1.3400	69.4373
 1.3390	69.3719
 1.3380	69.4855
 1.3370	69.4419
 1.3360	69.4799
 1.3350	69.5963
 1.3340	69.5832
 1.3330	69.5561
 1.3320	69.6738
 1.3310	69.6029
 1.3300	69.6341
 1.3290	69.6949
 1.3280	69.7155
 1.3270	69.6580
 1.3260	69.7404
 1.3250	69.6410
 1.3240	69.7530
 1.3230	69.7397
 1.3220	69.7625
 1.3210	69.8452
 1.3200	69.8274
 1.3190	69.8505
 1.3180	69.8736
 1.3170	69.9462
 1.3160	69.9911
 1.3150	69.9960
 1.3140	70.0338
 1.3130	69.9339
 1.3120	70.0252
 1.3110	70.0407
 1.3100	69.9763
 1.3090	70.0130
 1.3080	70.1168
 1.3070	70.1417
 1.3060	70.0743
 1.3050	70.1026
 1.3040	70.0925
 1.3030	70.1262
 1.3020	70.1693
 1.3010	70.0558
 1.3000	70.1751
 1.2990	70.0876
 1.2980	70.0797
 1.2970	70.1390
 1.2960	70.1284
 1.2950	70.0114
 1.2940	70.0451
 1.2930	70.0366
 1.2920	70.0147
 1.2910	69.9535
 1.2900	69.9594
 1.2890	69.9454
 1.2880	70.0505
 1.2870	70.0122
 1.2860	69.9340
 1.2850	69.8550
 1.2840	69.9798
 1.2830	69.9032
 1.2820	69.9447
 1.2810	69.8748
 1.2800	69.7855
 1.2790	69.7876
 1.2780	69.8116
 1.2770	69.7194
 1.2760	69.7531
 1.2750	69.7481
 1.2740	69.7063
 1.2730	69.7116
 1.2720	69.7224
 1.2710	69.6291
 1.2700	69.5814
 1.2690	69.5496
 1.2680	69.5621
 1.2670	69.4981
 1.2660	69.4534
 1.2650	69.4483
 1.2640	69.4093
 1.2630	69.3618
 1.2620	69.3873
 1.2610	69.3933
 1.2600	69.3691
 1.2590	69.3243
 1.2580	69.2941
 1.2570	69.1568
 1.2560	69.1423
 1.2550	69.1421
 1.2540	69.0899
 1.2530	69.1047
 1.2520	69.0847
 1.2510	68.9961
 1.2500	68.9505
 1.2490	68.9947
 1.2480	68.9747
 1.2470	68.9200
 1.2460	68.9249
 1.2450	68.8902
 1.2440	68.8118
 1.2430	68.7671
 1.2420	68.7910
 1.2410	68.7315
 1.2400	68.6714
 1.2390	68.6734
 1.2380	68.6577
 1.2370	68.5803
 1.2360	68.5935
 1.2350	68.5820
 1.2340	68.5378
 1.2330	68.4545
 1.2320	68.3862
 1.2310	68.3536
 1.2300	68.3388
 1.2290	68.3402
 1.2280	68.3483
 1.2270	68.2932
 1.2260	68.2432
 1.2250	68.2033
 1.2240	68.1933
 1.2230	68.1300
 1.2220	68.1218
 1.2210	68.1266
 1.2200	68.0407
 1.2190	67.9734
 1.2180	67.9465
 1.2170	67.9027
 1.2160	67.8735
 1.2150	67.8698
 1.2140	67.8390
 1.2130	67.7925
 1.2120	67.7299
 1.2110	67.7309
 1.2100	67.7082
 1.2090	67.6053
 1.2080	67.5784
 1.2070	67.5884
 1.2060	67.5720
 1.2050	67.4793
 1.2040	67.3946
 1.2030	67.3375
 1.2020	67.2760
 1.2010	67.2727
 1.2000	67.2876
 1.1990	67.2614
 1.1980	67.2205
 1.1970	67.1340
 1.1960	67.1228
 1.1950	67.0904
 1.1940	67.0711
 1.1930	67.0946
 1.1920	66.9700
 1.1910	66.9021
 1.1900	66.9055
 1.1890	66.8709
 1.1880	66.7421
 1.1870	66.7584
 1.1860	66.7258
 1.1850	66.7158
 1.1840	66.6863
 1.1830	66.6251
 1.1820	66.6218
 1.1810	66.6387
 1.1800	66.5485
 1.1790	66.4471
 1.1780	66.4086
 1.1770	66.3850
 1.1760	66.3789
 1.1750	66.3314
 1.1740	66.2425
 1.1730	66.2054
 1.1720	66.1380
 1.1710	66.1009
 1.1700	66.0409
 1.1690	65.9612
 1.1680	65.8905
 1.1670	65.8854
 1.1660	65.8516
 1.1650	65.7694
 1.1640	65.6455
 1.1630	65.6496
 1.1620	65.5673
 1.1610	65.5066
 1.1600	65.4804
 1.1590	65.3937
 1.1580	65.3134
 1.1570	65.2539
 1.1560	65.2150
 1.1550	65.2304
 1.1540	65.1701
 1.1530	65.1207
 1.1520	65.0279
 1.1510	65.0727
 1.1500	65.0928
 1.1490	65.1753
 1.1480	65.1921
 1.1470	65.1272
 1.1460	65.1431
 1.1450	65.2310
 1.1440	65.2206
 1.1430	65.1964
 1.1420	65.2088
 1.1410	65.1421
 1.1400	65.0804
 1.1390	65.1591
 1.1380	65.1376
 1.1370	65.1739
 1.1360	65.0166
 1.1350	65.0397
 1.1340	64.9720
 1.1330	64.9289
 1.1320	64.8858
 1.1310	64.9430
 1.1300	64.8385
 1.1290	64.8754
 1.1280	64.7957
 1.1270	64.8132
 1.1260	64.7120
 1.1250	64.6385
 1.1240	64.5935
 1.1230	64.5985
 1.1220	64.5318
 1.1210	64.4086
 1.1200	64.3619
 1.1190	64.3205
 1.1180	64.2638
 1.1170	64.3365
 1.1160	64.1984
 1.1150	64.2429
 1.1140	64.1235
 1.1130	64.0704
 1.1120	63.9355
 1.1110	63.9527
 1.1100	63.8321
 1.1090	63.8626
 1.1080	63.7299
 1.1070	63.7370
 1.1060	63.6057
 1.1050	63.6314
 1.1040	63.6068
 1.1030	63.5046
 1.1020	63.4219
 1.1010	63.3255
 1.1000	63.3468
 1.0990	63.2897
 1.0980	63.2181
 1.0970	63.1521
 1.0960	63.0184
 1.0950	63.0106
 1.0940	62.9228
 1.0930	62.9958
 1.0920	62.8820
 1.0910	62.8492
 1.0900	62.7027
 1.0890	62.7834
 1.0880	62.5713
 1.0870	62.6437
 1.0860	62.5258
 1.0850	62.4619
 1.0840	62.4703
 1.0830	62.3810
 1.0820	62.2614
 1.0810	62.3013
 1.0800	62.1692
 1.0790	62.2025
 1.0780	62.0153
 1.0770	61.9861
 1.0760	61.9444
 1.0750	61.9018
 1.0740	61.8608
 1.0730	61.7568
 1.0720	61.6797
 1.0710	61.6914
 1.0700	61.6066
 1.0690	61.5491
 1.0680	61.4405
 1.0670	61.3839
 1.0660	61.3550
 1.0650	61.3314
 1.0640	61.1836
 1.0630	61.2121
 1.0620	61.0461
 1.0610	61.0309
 1.0600	60.9621
 1.0590	60.9089
 1.0580	60.9083
 1.0570	60.7820
 1.0560	60.7312
 1.0550	60.6542
 1.0540	60.5230
 1.0530	60.5597
 1.0520	60.4608
 1.0510	60.4344
 1.0500	60.3362
 1.0490	60.2747
 1.0480	60.2371
 1.0470	60.2853
 1.0460	60.0872
 1.0450	60.1236
 1.0440	59.9696
 1.0430	59.9592
 1.0420	59.7819
 1.0410	59.8599
 1.0400	59.7610
 1.0390	59.7935
 1.0380	59.6422
 1.0370	59.6332
 1.0360	59.5103
 1.0350	59.4450
 1.0340	59.3528
 1.0330	59.4016
 1.0320	59.2639
 1.0310	59.2968
 1.0300	59.1449
 1.0290	59.1054
 1.0280	59.0203
 1.0270	59.0240
 1.0260	58.9473
 1.0250	58.8882
 1.0240	58.8195
 1.0230	58.8188
 1.0220	58.7158
 1.0210	58.6848
 1.0200	58.5399
 1.0190	58.6001
 1.0180	58.5148
 1.0170	58.5016
 1.0160	58.3495
 1.0150	58.3868
 1.0140	58.2621
 1.0130	58.2181
 1.0120	58.1401
 1.0110	58.0853
 1.0100	58.0075
 1.0090	58.0027
 1.0080	57.9891
 1.0070	57.9529
 1.0060	57.8220
 1.0050	57.8025
 1.0040	57.7614
 1.0030	57.7769
 1.0020	57.6514
 1.0010	57.6197
 1.0000	57.5480
 0.9990	57.5442
 0.9980	57.5501
 0.9970	57.4660
 0.9960	57.4142
 0.9950	57.3741
 0.9940	57.1580
 0.9930	57.1130
 0.9920	57.0808
 0.9910	57.0622
 0.9900	56.9622
 0.9890	56.9609
 0.9880	56.9011
 0.9870	56.8356
 0.9860	56.7803
 0.9850	56.7068
 0.9840	56.6231
 0.9830	56.6319
 0.9820	56.5667
 0.9810	56.5220
 0.9800	56.3932
 0.9790	56.4133
 0.9780	56.4112
 0.9770	56.3672
 0.9760	56.2508
 0.9750	56.2501
 0.9740	56.1987
 0.9730	56.1657
 0.9720	56.1888
 0.9710	56.1778
 0.9700	55.9986
 0.9690	56.0127
 0.9680	56.0400
 0.9670	55.9874
 0.9660	55.9170
 0.9650	55.9003
 0.9640	55.8175
 0.9630	55.8106
 0.9620	55.7797
 0.9610	55.7753
 0.9600	55.7485
 0.9590	55.8051
 0.9580	55.7830
 0.9570	55.7488
 0.9560	55.7127
 0.9550	55.7534
 0.9540	55.7398
 0.9530	55.7307
 0.9520	55.6848
 0.9510	55.6444
 0.9500	55.6633
 0.9490	55.6873
 0.9480	55.6746
 0.9470	55.6436
 0.9460	55.5732
 0.9450	55.6486
 0.9440	55.6476
 0.9430	55.5572
 0.9420	55.5584
 0.9410	55.5868
 0.9400	55.5254
 0.9390	55.5549
 0.9380	55.5493
 0.9370	55.4596
 0.9360	55.4568
 0.9350	55.4166
 0.9340	55.4255
 0.9330	55.4559
 0.9320	55.3946
 0.9310	55.4053
 0.9300	55.4305
 0.9290	55.4144
 0.9280	55.3179
 0.9270	55.2918
 0.9260	55.3341
 0.9250	55.2391
 0.9240	55.2795
 0.9230	55.3145
 0.9220	55.2564
 0.9210	55.2726
 0.9200	55.2694
 0.9190	55.2679
 0.9180	55.1849
 0.9170	55.1660
 0.9160	55.2010
 0.9150	55.1875
 0.9140	55.1969
 0.9130	55.1800
 0.9120	55.2053
 0.9110	55.1827
 0.9100	55.1903
 0.9090	55.1622
 0.9080	55.1669
 0.9070	55.1981
 0.9060	55.1321
 0.9050	55.0254
 0.9040	55.0516
 0.9030	55.0872
 0.9020	55.0137
 0.9010	55.0715
 0.9000	55.1325
 0.8990	55.1122
 0.8980	55.0601
 0.8970	55.0162
 0.8960	55.0800
 0.8950	55.1002
 0.8940	55.0940
 0.8930	55.0533
 0.8920	55.0988
 0.8910	55.0853
 0.8900	55.0259
 0.8890	55.0299
 0.8880	55.0373
 0.8870	55.0268
 0.8860	55.0581
 0.8850	55.0559
 0.8840	55.0508
 0.8830	54.9823
 0.8820	55.0354
 0.8810	54.9881
 0.8800	54.9882
 0.8790	55.0212
 0.8780	55.0450
 0.8770	54.9776
 0.8760	54.9916
 0.8750	54.9859
 0.8740	54.9542
 0.8730	54.9364
 0.8720	54.9802
 0.8710	54.9690
 0.8700	55.0111
 0.8690	54.9656
 0.8680	54.9565
 0.8670	54.9350
 0.8660	54.9159
 0.8650	54.9750
 0.8640	55.0156
 0.8630	54.9610
 0.8620	54.9895
 0.8610	54.9162
 0.8600	54.9844
 0.8590	55.0970
 0.8580	55.0986
 0.8570	55.1313
 0.8560	55.0402
 0.8550	55.0461
 0.8540	55.0562
 0.8530	55.0708
 0.8520	55.0583
 0.8510	55.0517
 0.8500	55.0667
 0.8490	55.1563
 0.8480	55.1182
 0.8470	55.0485
 0.8460	55.0699
 0.8450	55.1069
 0.8440	55.0687
 0.8430	55.0654
 0.8420	55.0526
 0.8410	55.0411
 0.8400	55.0504
 0.8390	55.0290
 0.8380	55.0599
 0.8370	55.0421
 0.8360	55.0496
 0.8350	55.0377
 0.8340	55.0516
 0.8330	55.0229
 0.8320	55.0336
 0.8310	55.0134
 0.8300	55.0086
 0.8290	54.9931
 0.8280	54.9601
 0.8270	54.9457
 0.8260	54.9667
 0.8250	54.9481
 0.8240	54.9445
 0.8230	54.9560
 0.8220	54.9179
 0.8210	54.9182
 0.8200	54.8890
 0.8190	54.8626
 0.8180	54.8855
 0.8170	54.8301
 0.8160	54.8156
 0.8150	54.7869
 0.8140	54.7954
 0.8130	54.7460
 0.8120	54.7236
 0.8110	54.6913
 0.8100	54.6870
 0.8090	54.6708
 0.8080	54.6467
 0.8070	54.6041
 0.8060	54.5919
 0.8050	54.5580
 0.8040	54.5063
 0.8030	54.4936
 0.8020	54.4595
 0.8010	54.3852
 0.8000	54.3720
 0.7990	54.2961
 0.7980	54.2517
 0.7970	54.2375
 0.7960	54.1581
 0.7950	54.1059
 0.7940	54.0641
 0.7930	54.0406
 0.7920	53.9828
 0.7910	53.9229
 0.7900	53.8485
 0.7890	53.8347
 0.7880	53.7476
 0.7870	53.7130
 0.7860	53.6475
 0.7850	53.5719
 0.7840	53.5430
 0.7830	53.4709
 0.7820	53.4021
 0.7810	53.3621
 0.7800	53.2748
 0.7790	53.1628
 0.7780	53.1149
 0.7770	53.0429
 0.7760	52.9596
 0.7750	52.8735
 0.7740	52.7986
 0.7730	52.7309
 0.7720	52.6580
 0.7710	52.5439
 0.7700	52.4678
 0.7690	52.3785
 0.7680	52.2934
 0.7670	52.1959
 0.7660	52.0737
 0.7650	51.9850
 0.7640	51.8860
 0.7630	51.8034
 0.7620	51.6794
 0.7610	51.5482
 0.7600	51.4425
 0.7590	51.3440
 0.7580	51.2279
 0.7570	51.1152
 0.7560	50.9928
 0.7550	50.8557
 0.7540	50.7470
 0.7530	50.6131
 0.7520	50.4707
 0.7510	50.3368
 0.7500	50.1859
 0.7490	50.0381
 0.7480	49.9002
 0.7470	49.7719
 0.7460	49.6200
 0.7450	49.4510
 0.7440	49.2985
 0.7430	49.1357
 0.7420	48.9889
 0.7410	48.8204
 0.7400	48.6423
 0.7390	48.4722
 0.7380	48.2909
 0.7370	48.1012
 0.7360	47.9266
 0.7350	47.7616
 0.7340	47.5712
 0.7330	47.3729
 0.7320	47.1788
 0.7310	47.0068
 0.7300	46.8015
 0.7290	46.6000
 0.7280	46.4075
 0.7270	46.1800
 0.7260	45.9754
 0.7250	45.7694
 0.7240	45.5633
 0.7230	45.3515
 0.7220	45.1305
 0.7210	44.8936
 0.7200	44.6611
 0.7190	44.4402
 0.7180	44.2129
 0.7170	43.9879
 0.7160	43.7487
 0.7150	43.5221
 0.7140	43.2821
 0.7130	43.0431
 0.7120	42.8181
 0.7110	42.5604
 0.7100	42.3170
 0.7090	42.0777
 0.7080	41.8441
 0.7070	41.5974
 0.7060	41.3560
 0.7050	41.1175
 0.7040	40.8669
 0.7030	40.6265
 0.7020	40.3686
 0.7010	40.1218
 0.7000	39.8867
 0.6990	39.6440
 0.6980	39.3978
 0.6970	39.1594
 0.6960	38.9171
 0.6950	38.6767
 0.6940	38.4407
 0.6930	38.2005
 0.6920	37.9527
 0.6910	37.7211
 0.6900	37.4997
 0.6890	37.2680
 0.6880	37.0460
 0.6870	36.8109
 0.6860	36.6048
 0.6850	36.4059
 0.6840	36.1934
 0.6830	35.9773
 0.6820	35.7649
 0.6810	35.5560
 0.6800	35.3478
 0.6790	35.1474
 0.6780	34.9567
 0.6770	34.7559
 0.6760	34.5582
 0.6750	34.3777
 0.6740	34.1949
 0.6730	34.0058
 0.6720	33.8391
 0.6710	33.6743
 0.6700	33.5021
 0.6690	33.3398
 0.6680	33.2042
 0.6670	33.0816
 0.6660	32.9272
 0.6650	32.7808
 0.6640	32.6429
 0.6630	32.5059
 0.6620	32.3714
 0.6610	32.2449
 0.6600	32.1238
 0.6590	32.0057
 0.6580	31.8936
 0.6570	31.7908
 0.6560	31.6885
 0.6550	31.5898
 0.6540	31.4971
 0.6530	31.4076
 0.6520	31.3238
 0.6510	31.2399
 0.6500	31.1633
 0.6490	31.0953
 0.6480	31.0221
 0.6470	30.9590
 0.6460	30.8981
 0.6450	30.8416
 0.6440	30.7932
 0.6430	30.7369
 0.6420	30.6923
 0.6410	30.6634
 0.6400	30.6289
 0.6390	30.5921
 0.6380	30.5628
 0.6370	30.5433
 0.6360	30.5261
 0.6350	30.5118
 0.6340	30.4896
 0.6330	30.4769
 0.6320	30.4750
 0.6310	30.4686
 0.6300	30.4633
 0.6290	30.4662
 0.6280	30.4763
 0.6270	30.4877
 0.6260	30.4995
 0.6250	30.5151
 0.6240	30.5366
 0.6230	30.5493
 0.6220	30.5687
 0.6210	30.5978
 0.6200	30.6214
 0.6190	30.6529
 0.6180	30.6874
 0.6170	30.7127
 0.6160	30.7431
 0.6150	30.7740
 0.6140	30.8057
 0.6130	30.8435
 0.6120	30.8773
 0.6110	30.9127
 0.6100	30.9471
 0.6090	30.9891
 0.6080	31.0246
 0.6070	31.0617
 0.6060	31.0971
 0.6050	31.1373
 0.6040	31.1731
 0.6030	31.2013
 0.6020	31.2307
 0.6010	31.2648
 0.6000	31.2944
 0.5990	31.3270
 0.5980	31.3587
 0.5970	31.3852
 0.5960	31.4067
 0.5950	31.4398
 0.5940	31.4518
 0.5930	31.4568
 0.5920	31.4665
 0.5910	31.4617
 0.5900	31.4589
 0.5890	31.4621
 0.5880	31.4534
 0.5870	31.4335
 0.5860	31.4158
 0.5850	31.3976
 0.5840	31.3663
 0.5830	31.3301
 0.5820	31.2891
 0.5810	31.2418
 0.5800	31.1950
 0.5790	31.1330
 0.5780	31.0715
 0.5770	31.0040
 0.5760	30.9315
 0.5750	30.8487
 0.5740	30.7562
 0.5730	30.6663
 0.5720	30.5609
 0.5710	30.4494
 0.5700	30.3284
 0.5690	30.1944
 0.5680	30.0498
 0.5670	29.8991
 0.5660	29.7336
 0.5650	29.5527
 0.5640	29.3665
 0.5630	29.1629
 0.5620	28.9553
 0.5610	28.7218
 0.5600	28.4771
 0.5590	28.2279
 0.5580	27.9837
 0.5570	27.7298
 0.5560	27.4677
 0.5550	27.2025
 0.5540	26.9458
 0.5530	26.6933
 0.5520	26.4366
 0.5510	26.1872
 0.5500	25.9521
 0.5490	25.7158
 0.5480	25.4865
 0.5470	25.2640
 0.5460	25.0512
 0.5450	24.8388
 0.5440	24.6315
 0.5430	24.4207
 0.5420	24.2036
 0.5410	23.9828
 0.5400	23.7590
 0.5390	23.5211
 0.5380	23.2864
 0.5370	23.0308
 0.5360	22.7695
 0.5350	22.4910
 0.5340	22.2005
 0.5330	21.9049
 0.5320	21.6066
 0.5310	21.3062
 0.5300	21.0087
 0.5290	20.7195
 0.5280	20.4401
 0.5270	20.1768
 0.5260	19.9200
 0.5250	19.6745
 0.5240	19.4576
 0.5230	19.2493
 0.5220	19.0616
 0.5210	18.8918
 0.5200	18.7263
 0.5190	18.5786
 0.5180	18.4390
 0.5170	18.3112
 0.5160	18.1800
 0.5150	18.0542
 0.5140	17.9320
 0.5130	17.8102
 0.5120	17.6871
 0.5110	17.5983
 0.5100	17.4799
 0.5090	17.3719
 0.5080	17.2569
 0.5070	17.1463
 0.5060	17.0542
 0.5050	16.9566
 0.5040	16.8639
 0.5030	16.7854
 0.5020	16.7067
 0.5010	16.6290
 0.5000	16.5684
 0.4990	16.5016
 0.4980	16.4431
 0.4970	16.3926
 0.4960	16.3331
 0.4950	16.2827
 0.4940	16.2229
 0.4930	16.1653
 0.4920	16.0948
 0.4910	16.0262
 0.4900	15.9550
 0.4890	15.8693
 0.4880	15.7897
 0.4870	15.6938
 0.4860	15.5950
 0.4850	15.4853
 0.4840	15.3747
 0.4830	15.2547
 0.4820	15.1383
 0.4810	15.0135
 0.4800	14.8853
 0.4790	14.7529
 0.4780	14.6219
 0.4770	14.4746
 0.4760	14.3226
 0.4750	14.1614
 0.4740	13.9967
 0.4730	13.8206
 0.4720	13.6465
 0.4710	13.4747
 0.4700	13.2939
 0.4690	13.1097
 0.4680	12.9196
 0.4670	12.7429
 0.4660	12.5592
 0.4650	12.3784
 0.4640	12.2046
 0.4630	12.0291
 0.4620	11.8610
 0.4610	11.6929
 0.4600	11.5351
 0.4590	11.3784
 0.4580	11.2201
 0.4570	11.0655
 0.4560	10.9097
 0.4550	10.7523
 0.4540	10.6025
 0.4530	10.4527
 0.4520	10.3002
 0.4510	10.1541
 0.4500	10.0193
 0.4490	 9.8837
 0.4480	 9.7549
 0.4470	 9.6331
 0.4460	 9.5212
 0.4450	 9.4178
 0.4440	 9.3197
 0.4430	 9.2350
 0.4420	 9.1619
 0.4410	 9.0936
 0.4400	 9.0360
 0.4390	 8.9968
 0.4380	 8.9382
 0.4370	 8.8743
 0.4360	 8.8107
 0.4350	 8.7352
 0.4340	 8.6604
 0.4330	 8.5794
 0.4320	 8.5003
 0.4310	 8.4179
 0.4300	 8.3441
 0.4290	 8.2642
 0.4280	 8.1874
 0.4270	 8.1071
 0.4260	 8.0255
 0.4250	 7.9397
 0.4240	 7.8525
 0.4230	 7.7682
 0.4220	 7.6808
 0.4210	 7.5879
 0.4200	 7.5003
 0.4190	 7.4145
 0.4180	 7.3258
 0.4170	 7.2392
 0.4160	 7.1487
 0.4150	 7.0629
 0.4140	 6.9782
 0.4130	 6.8922
 0.4120	 6.8104
 0.4110	 6.7306
 0.4100	 6.6510
 0.4090	 6.5694
 0.4080	 6.4874
 0.4070	 6.4085
 0.4060	 6.3292
 0.4050	 6.2512
 0.4040	 6.1725
 0.4030	 6.0979
 0.4020	 6.0234
 0.4010	 5.9568
 0.4000	 5.8881
