Name: Rutile TiO_2
Type: Mineral
Class: Oxide
Subclass: None
Particle Size: Fine
Sample No.: O-2A
Owner: JPL
Wavelength Range: VSWIR
Origin: Unknown.
Collection Date: N/A
Description: Particle size was 0-45um.Collected by:  JPL Original ASTER Spectral Library name was jpl.perkin.mineral.oxide.none.fine.o02a.spectrum.txt
Measurement: Hemispherical reflectance
First Column: X
Second Column: Y
X Units: Wavelength (micrometers)
Y Units:Reflectance (percent)
First X Value:  2.5000
Last X Value:  0.4000
Number of X Values: 2101
Additional Information: mineral.oxide.none.fine.vswir.o-2a.jpl.perkin.ancillary.txt

 2.5000	46.9548
 2.4990	46.9616
 2.4980	47.1976
 2.4970	47.0443
 2.4960	46.8333
 2.4950	47.0713
 2.4940	47.0454
 2.4930	46.9229
 2.4920	47.0469
 2.4910	46.9784
 2.4900	46.9569
 2.4890	46.9977
 2.4880	46.8790
 2.4870	46.8304
 2.4860	47.0864
 2.4850	46.8931
 2.4840	46.9349
 2.4830	46.9737
 2.4820	46.8783
 2.4810	46.8902
 2.4800	47.0487
 2.4790	46.9207
 2.4780	46.9655
 2.4770	46.8487
 2.4760	46.9169
 2.4750	46.7749
 2.4740	46.8732
 2.4730	46.7366
 2.4720	46.9288
 2.4710	46.8263
 2.4700	46.8185
 2.4690	46.8812
 2.4680	46.8713
 2.4670	46.8705
 2.4660	46.9443
 2.4650	46.6803
 2.4640	46.9349
 2.4630	46.8954
 2.4620	46.9308
 2.4610	46.8287
 2.4600	46.9998
 2.4590	46.8539
 2.4580	46.9692
 2.4570	46.8300
 2.4560	46.9753
 2.4550	46.9617
 2.4540	46.8716
 2.4530	46.9096
 2.4520	46.9039
 2.4510	46.8155
 2.4500	46.9470
 2.4490	46.9011
 2.4480	46.9329
 2.4470	46.8586
 2.4460	46.8984
 2.4450	46.8609
 2.4440	47.0180
 2.4430	46.9759
 2.4420	47.1218
 2.4410	46.9358
 2.4400	46.9753
 2.4390	46.9355
 2.4380	47.1004
 2.4370	47.0093
 2.4360	47.0620
 2.4350	46.9175
 2.4340	47.0850
 2.4330	46.9870
 2.4320	47.0290
 2.4310	46.9313
 2.4300	46.9102
 2.4290	46.9502
 2.4280	47.0311
 2.4270	47.0099
 2.4260	47.0418
 2.4250	46.9680
 2.4240	47.0014
 2.4230	46.9357
 2.4220	46.9811
 2.4210	46.9534
 2.4200	46.9575
 2.4190	47.0125
 2.4180	47.0070
 2.4170	46.9239
 2.4160	47.0449
 2.4150	47.0185
 2.4140	47.0374
 2.4130	47.0750
 2.4120	47.0373
 2.4110	47.0152
 2.4100	46.9823
 2.4090	46.9149
 2.4080	47.0392
 2.4070	47.0085
 2.4060	46.9902
 2.4050	46.9719
 2.4040	47.0379
 2.4030	47.0022
 2.4020	46.9341
 2.4010	46.9264
 2.4000	46.9238
 2.3990	46.8952
 2.3980	46.8896
 2.3970	46.8607
 2.3960	46.9273
 2.3950	46.8988
 2.3940	46.8880
 2.3930	46.8453
 2.3920	46.9098
 2.3910	46.9609
 2.3900	46.9263
 2.3890	46.8683
 2.3880	46.9122
 2.3870	46.9495
 2.3860	47.0177
 2.3850	46.8991
 2.3840	46.9250
 2.3830	46.9744
 2.3820	46.9776
 2.3810	46.9562
 2.3800	46.9876
 2.3790	46.9690
 2.3780	47.0030
 2.3770	47.0379
 2.3760	47.0369
 2.3750	47.0514
 2.3740	47.0197
 2.3730	46.9796
 2.3720	47.0227
 2.3710	47.0302
 2.3700	47.0632
 2.3690	47.0581
 2.3680	47.0421
 2.3670	47.0613
 2.3660	47.0493
 2.3650	47.0167
 2.3640	47.0735
 2.3630	47.1232
 2.3620	47.0728
 2.3610	47.0820
 2.3600	47.0934
 2.3590	47.0849
 2.3580	47.0842
 2.3570	47.0685
 2.3560	47.1083
 2.3550	47.1386
 2.3540	47.1506
 2.3530	47.1131
 2.3520	47.1206
 2.3510	47.0688
 2.3500	47.0226
 2.3490	47.1365
 2.3480	47.1382
 2.3470	47.0802
 2.3460	47.0838
 2.3450	47.1260
 2.3440	47.1174
 2.3430	47.0344
 2.3420	46.9742
 2.3410	47.0199
 2.3400	47.0191
 2.3390	47.0656
 2.3380	47.0078
 2.3370	46.9639
 2.3360	46.9916
 2.3350	46.9713
 2.3340	46.9660
 2.3330	46.9567
 2.3320	46.9165
 2.3310	46.8346
 2.3300	46.8268
 2.3290	46.8588
 2.3280	46.8016
 2.3270	46.7566
 2.3260	46.7165
 2.3250	46.7010
 2.3240	46.6715
 2.3230	46.6675
 2.3220	46.5825
 2.3210	46.5960
 2.3200	46.5950
 2.3190	46.6670
 2.3180	46.6177
 2.3170	46.5922
 2.3160	46.5251
 2.3150	46.4982
 2.3140	46.4592
 2.3130	46.5008
 2.3120	46.4621
 2.3110	46.4850
 2.3100	46.4273
 2.3090	46.4610
 2.3080	46.4466
 2.3070	46.4865
 2.3060	46.4444
 2.3050	46.4738
 2.3040	46.4549
 2.3030	46.5013
 2.3020	46.4373
 2.3010	46.4667
 2.3000	46.3941
 2.2990	46.4097
 2.2980	46.4495
 2.2970	46.4934
 2.2960	46.4572
 2.2950	46.5175
 2.2940	46.5483
 2.2930	46.5369
 2.2920	46.5382
 2.2910	46.6135
 2.2900	46.4803
 2.2890	46.5311
 2.2880	46.5751
 2.2870	46.5725
 2.2860	46.5404
 2.2850	46.5689
 2.2840	46.5156
 2.2830	46.5618
 2.2820	46.5439
 2.2810	46.6871
 2.2800	46.6087
 2.2790	46.7072
 2.2780	46.6489
 2.2770	46.6632
 2.2760	46.6514
 2.2750	46.6744
 2.2740	46.6163
 2.2730	46.7128
 2.2720	46.6243
 2.2710	46.6889
 2.2700	46.6733
 2.2690	46.6630
 2.2680	46.6441
 2.2670	46.7065
 2.2660	46.7023
 2.2650	46.6479
 2.2640	46.6769
 2.2630	46.7420
 2.2620	46.7079
 2.2610	46.6567
 2.2600	46.6938
 2.2590	46.6844
 2.2580	46.6725
 2.2570	46.6529
 2.2560	46.6538
 2.2550	46.6047
 2.2540	46.6430
 2.2530	46.7185
 2.2520	46.6592
 2.2510	46.6199
 2.2500	46.6582
 2.2490	46.6469
 2.2480	46.6331
 2.2470	46.6957
 2.2460	46.6108
 2.2450	46.6313
 2.2440	46.5487
 2.2430	46.7162
 2.2420	46.6090
 2.2410	46.6411
 2.2400	46.6142
 2.2390	46.6742
 2.2380	46.6063
 2.2370	46.5923
 2.2360	46.6138
 2.2350	46.6806
 2.2340	46.6552
 2.2330	46.6504
 2.2320	46.5660
 2.2310	46.7406
 2.2300	46.5620
 2.2290	46.7078
 2.2280	46.5888
 2.2270	46.6678
 2.2260	46.6244
 2.2250	46.6653
 2.2240	46.5377
 2.2230	46.6811
 2.2220	46.6844
 2.2210	46.6874
 2.2200	46.6082
 2.2190	46.6303
 2.2180	46.7670
 2.2170	46.6808
 2.2160	46.5731
 2.2150	46.7225
 2.2140	46.6966
 2.2130	46.6581
 2.2120	46.6055
 2.2110	46.6384
 2.2100	46.7417
 2.2090	46.7793
 2.2080	46.6783
 2.2070	46.8014
 2.2060	46.7280
 2.2050	46.7335
 2.2040	46.7173
 2.2030	46.7567
 2.2020	46.7122
 2.2010	46.7889
 2.2000	46.7673
 2.1990	46.7568
 2.1980	46.7155
 2.1970	46.8664
 2.1960	46.7846
 2.1950	46.8070
 2.1940	46.7628
 2.1930	46.8225
 2.1920	46.7829
 2.1910	46.8145
 2.1900	46.7549
 2.1890	46.9180
 2.1880	46.8253
 2.1870	46.8407
 2.1860	46.8039
 2.1850	46.8144
 2.1840	46.7549
 2.1830	46.8011
 2.1820	46.6929
 2.1810	46.9068
 2.1800	46.7986
 2.1790	46.8389
 2.1780	46.8458
 2.1770	46.8926
 2.1760	46.8130
 2.1750	46.8674
 2.1740	46.8583
 2.1730	46.9808
 2.1720	46.8817
 2.1710	46.8251
 2.1700	46.8690
 2.1690	46.9060
 2.1680	46.9050
 2.1670	46.9947
 2.1660	46.8670
 2.1650	46.8968
 2.1640	46.9179
 2.1630	46.9754
 2.1620	46.9318
 2.1610	46.9994
 2.1600	47.0099
 2.1590	47.0211
 2.1580	46.9686
 2.1570	47.0539
 2.1560	47.0065
 2.1550	47.0544
 2.1540	46.9861
 2.1530	47.0140
 2.1520	46.9868
 2.1510	47.0983
 2.1500	46.9968
 2.1490	47.0132
 2.1480	46.9679
 2.1470	46.9386
 2.1460	46.9648
 2.1450	46.9649
 2.1440	47.0192
 2.1430	47.0137
 2.1420	46.9920
 2.1410	47.0139
 2.1400	46.9246
 2.1390	46.9616
 2.1380	46.9436
 2.1370	46.9329
 2.1360	46.8640
 2.1350	46.9218
 2.1340	46.8280
 2.1330	46.8740
 2.1320	46.8560
 2.1310	46.8337
 2.1300	46.7465
 2.1290	46.8045
 2.1280	46.7710
 2.1270	46.7194
 2.1260	46.6349
 2.1250	46.6256
 2.1240	46.6357
 2.1230	46.5732
 2.1220	46.5141
 2.1210	46.5194
 2.1200	46.5437
 2.1190	46.5585
 2.1180	46.5232
 2.1170	46.5185
 2.1160	46.4091
 2.1150	46.3753
 2.1140	46.3485
 2.1130	46.3353
 2.1120	46.2534
 2.1110	46.2299
 2.1100	46.1965
 2.1090	46.2195
 2.1080	46.1484
 2.1070	46.1113
 2.1060	46.1153
 2.1050	46.1368
 2.1040	46.1055
 2.1030	46.0556
 2.1020	45.9649
 2.1010	46.0020
 2.1000	46.0214
 2.0990	46.0038
 2.0980	45.9732
 2.0970	45.9895
 2.0960	45.9468
 2.0950	45.9586
 2.0940	45.9467
 2.0930	45.9247
 2.0920	45.9763
 2.0910	46.0168
 2.0900	45.9676
 2.0890	45.9292
 2.0880	45.9905
 2.0870	45.9251
 2.0860	45.9232
 2.0850	46.0068
 2.0840	45.9993
 2.0830	46.0028
 2.0820	45.9583
 2.0810	45.9860
 2.0800	45.9470
 2.0790	45.8728
 2.0780	45.9123
 2.0770	45.9566
 2.0760	45.9572
 2.0750	45.9460
 2.0740	45.9697
 2.0730	46.0157
 2.0720	45.9395
 2.0710	45.8712
 2.0700	45.9177
 2.0690	45.9541
 2.0680	45.9585
 2.0670	45.9993
 2.0660	45.9869
 2.0650	45.9559
 2.0640	45.9466
 2.0630	45.9475
 2.0620	45.9568
 2.0610	45.9611
 2.0600	45.9609
 2.0590	45.9971
 2.0580	45.9818
 2.0570	45.9383
 2.0560	45.9913
 2.0550	46.0269
 2.0540	45.9940
 2.0530	45.9307
 2.0520	45.9816
 2.0510	45.9992
 2.0500	45.9777
 2.0490	45.9845
 2.0480	45.9732
 2.0470	45.9329
 2.0460	45.9602
 2.0450	45.9226
 2.0440	45.9625
 2.0430	45.9796
 2.0420	45.9772
 2.0410	45.9005
 2.0400	45.9468
 2.0390	45.9409
 2.0380	45.9229
 2.0370	45.9218
 2.0360	45.9358
 2.0350	45.8731
 2.0340	45.8808
 2.0330	45.8951
 2.0320	45.9216
 2.0310	45.9039
 2.0300	45.9323
 2.0290	45.9155
 2.0280	45.9662
 2.0270	45.8864
 2.0260	45.8591
 2.0250	45.8622
 2.0240	45.8458
 2.0230	45.8387
 2.0220	45.8728
 2.0210	45.8755
 2.0200	45.8476
 2.0190	45.8123
 2.0180	45.8374
 2.0170	45.7849
 2.0160	45.7772
 2.0150	45.7977
 2.0140	45.8498
 2.0130	45.8026
 2.0120	45.8484
 2.0110	45.7781
 2.0100	45.7447
 2.0090	45.7163
 2.0080	45.8245
 2.0070	45.7579
 2.0060	45.8124
 2.0050	45.7344
 2.0040	45.7070
 2.0030	45.6637
 2.0020	45.7196
 2.0010	45.7077
 2.0000	45.7890
 1.9990	45.7114
 1.9980	45.6849
 1.9970	45.5797
 1.9960	45.6200
 1.9950	45.5920
 1.9940	45.6851
 1.9930	45.6366
 1.9920	45.6038
 1.9910	45.5888
 1.9900	45.5798
 1.9890	45.5501
 1.9880	45.5411
 1.9870	45.5109
 1.9860	45.5630
 1.9850	45.4525
 1.9840	45.4232
 1.9830	45.4523
 1.9820	45.5264
 1.9810	45.4501
 1.9800	45.4416
 1.9790	45.4058
 1.9780	45.4145
 1.9770	45.4111
 1.9760	45.3977
 1.9750	45.3614
 1.9740	45.3886
 1.9730	45.3311
 1.9720	45.3696
 1.9710	45.2868
 1.9700	45.3796
 1.9690	45.3078
 1.9680	45.4044
 1.9670	45.2564
 1.9660	45.3026
 1.9650	45.2342
 1.9640	45.2398
 1.9630	45.2230
 1.9620	45.2980
 1.9610	45.1802
 1.9600	45.2321
 1.9590	45.1967
 1.9580	45.3216
 1.9570	45.1317
 1.9560	45.2608
 1.9550	45.1888
 1.9540	45.2063
 1.9530	45.2100
 1.9520	45.1748
 1.9510	45.1723
 1.9500	45.2057
 1.9490	45.1547
 1.9480	45.1777
 1.9470	45.0836
 1.9460	45.1340
 1.9450	45.1168
 1.9440	45.2149
 1.9430	45.1265
 1.9420	45.1026
 1.9410	45.0782
 1.9400	45.0864
 1.9390	45.1404
 1.9380	45.0906
 1.9370	45.0561
 1.9360	45.1156
 1.9350	45.0410
 1.9340	45.1122
 1.9330	45.0711
 1.9320	45.0802
 1.9310	44.9933
 1.9300	45.1707
 1.9290	45.0403
 1.9280	45.1816
 1.9270	45.0633
 1.9260	45.0376
 1.9250	45.0432
 1.9240	45.0835
 1.9230	45.0522
 1.9220	45.0496
 1.9210	45.0203
 1.9200	45.0901
 1.9190	45.0275
 1.9180	45.0437
 1.9170	45.0316
 1.9160	45.0303
 1.9150	45.0894
 1.9140	45.1125
 1.9130	45.1241
 1.9120	45.1197
 1.9110	45.0057
 1.9100	45.0664
 1.9090	45.0465
 1.9080	45.1046
 1.9070	45.0191
 1.9060	45.0923
 1.9050	45.0178
 1.9040	45.1708
 1.9030	44.9733
 1.9020	45.1176
 1.9010	45.1161
 1.9000	45.1130
 1.8990	45.0897
 1.8980	45.0930
 1.8970	45.1535
 1.8960	45.1489
 1.8950	45.1067
 1.8940	45.1567
 1.8930	45.0667
 1.8920	45.0939
 1.8910	45.0511
 1.8900	45.0917
 1.8890	45.0709
 1.8880	45.2044
 1.8870	45.0090
 1.8860	45.1311
 1.8850	45.1119
 1.8840	45.1437
 1.8830	45.0643
 1.8820	45.1137
 1.8810	45.0696
 1.8800	45.0382
 1.8790	45.0029
 1.8780	45.1329
 1.8770	45.0135
 1.8760	44.9987
 1.8750	45.0139
 1.8740	45.0306
 1.8730	45.0172
 1.8720	45.0652
 1.8710	45.0448
 1.8700	45.0828
 1.8690	44.9913
 1.8680	45.0592
 1.8670	45.0454
 1.8660	45.0506
 1.8650	45.0613
 1.8640	45.0921
 1.8630	44.9792
 1.8620	44.9940
 1.8610	44.9501
 1.8600	45.0290
 1.8590	45.0214
 1.8580	44.9996
 1.8570	44.9461
 1.8560	45.0309
 1.8550	45.0395
 1.8540	44.9983
 1.8530	44.9376
 1.8520	44.9268
 1.8510	44.9263
 1.8500	44.9646
 1.8490	44.8886
 1.8480	44.9026
 1.8470	44.9206
 1.8460	44.9047
 1.8450	44.9020
 1.8440	44.8461
 1.8430	44.8523
 1.8420	44.9198
 1.8410	44.8364
 1.8400	44.8719
 1.8390	44.8450
 1.8380	44.7984
 1.8370	44.8226
 1.8360	44.8867
 1.8350	44.8183
 1.8340	44.8301
 1.8330	44.8484
 1.8320	44.8929
 1.8310	44.8734
 1.8300	44.8633
 1.8290	44.7759
 1.8280	44.8032
 1.8270	44.8015
 1.8260	44.8208
 1.8250	44.7382
 1.8240	44.7491
 1.8230	44.7074
 1.8220	44.7083
 1.8210	44.7115
 1.8200	44.6910
 1.8190	44.7231
 1.8180	44.7397
 1.8170	44.7135
 1.8160	44.6765
 1.8150	44.6646
 1.8140	44.7120
 1.8130	44.6912
 1.8120	44.6679
 1.8110	44.6969
 1.8100	44.7332
 1.8090	44.6684
 1.8080	44.6649
 1.8070	44.6259
 1.8060	44.6523
 1.8050	44.6299
 1.8040	44.6621
 1.8030	44.6456
 1.8020	44.6099
 1.8010	44.6227
 1.8000	44.6472
 1.7990	44.6196
 1.7980	44.5821
 1.7970	44.5585
 1.7960	44.5523
 1.7950	44.5508
 1.7940	44.6125
 1.7930	44.5722
 1.7920	44.5350
 1.7910	44.5547
 1.7900	44.4890
 1.7890	44.4787
 1.7880	44.5118
 1.7870	44.4934
 1.7860	44.5251
 1.7850	44.4907
 1.7840	44.4640
 1.7830	44.4818
 1.7820	44.4906
 1.7810	44.4962
 1.7800	44.4542
 1.7790	44.4192
 1.7780	44.4565
 1.7770	44.4954
 1.7760	44.4384
 1.7750	44.4175
 1.7740	44.4422
 1.7730	44.4418
 1.7720	44.4078
 1.7710	44.4246
 1.7700	44.4050
 1.7690	44.4086
 1.7680	44.3698
 1.7670	44.3864
 1.7660	44.3656
 1.7650	44.3348
 1.7640	44.3429
 1.7630	44.3541
 1.7620	44.2966
 1.7610	44.3086
 1.7600	44.2969
 1.7590	44.2816
 1.7580	44.2427
 1.7570	44.2770
 1.7560	44.3027
 1.7550	44.3026
 1.7540	44.2765
 1.7530	44.2344
 1.7520	44.2361
 1.7510	44.2664
 1.7500	44.2249
 1.7490	44.2386
 1.7480	44.2119
 1.7470	44.2079
 1.7460	44.2158
 1.7450	44.2517
 1.7440	44.2070
 1.7430	44.2511
 1.7420	44.2058
 1.7410	44.2386
 1.7400	44.2093
 1.7390	44.2280
 1.7380	44.1946
 1.7370	44.2242
 1.7360	44.1678
 1.7350	44.1903
 1.7340	44.1415
 1.7330	44.1964
 1.7320	44.1276
 1.7310	44.2228
 1.7300	44.1696
 1.7290	44.2285
 1.7280	44.1419
 1.7270	44.1613
 1.7260	44.1409
 1.7250	44.1703
 1.7240	44.1103
 1.7230	44.1700
 1.7220	44.1325
 1.7210	44.0785
 1.7200	44.0630
 1.7190	44.1103
 1.7180	44.0931
 1.7170	44.1584
 1.7160	44.1027
 1.7150	44.1184
 1.7140	43.9966
 1.7130	44.0619
 1.7120	43.9618
 1.7110	44.0221
 1.7100	44.0016
 1.7090	44.0250
 1.7080	43.9735
 1.7070	44.0623
 1.7060	44.0114
 1.7050	43.9570
 1.7040	43.9960
 1.7030	44.0469
 1.7020	43.8976
 1.7010	44.0063
 1.7000	43.8915
 1.6990	43.9429
 1.6980	43.8888
 1.6970	43.9597
 1.6960	43.8943
 1.6950	43.9701
 1.6940	43.8976
 1.6930	43.9662
 1.6920	43.8693
 1.6910	43.9621
 1.6900	43.8236
 1.6890	43.9216
 1.6880	43.7955
 1.6870	43.8790
 1.6860	43.8647
 1.6850	43.9302
 1.6840	43.8527
 1.6830	43.8906
 1.6820	43.8522
 1.6810	43.8799
 1.6800	43.7624
 1.6790	43.8220
 1.6780	43.7808
 1.6770	43.8231
 1.6760	43.8147
 1.6750	43.8609
 1.6740	43.7913
 1.6730	43.8222
 1.6720	43.7537
 1.6710	43.8204
 1.6700	43.7516
 1.6690	43.8267
 1.6680	43.6332
 1.6670	43.7553
 1.6660	43.7278
 1.6650	43.6902
 1.6640	43.6622
 1.6630	43.7807
 1.6620	43.6198
 1.6610	43.7158
 1.6600	43.6828
 1.6590	43.7276
 1.6580	43.6111
 1.6570	43.7793
 1.6560	43.6393
 1.6550	43.6941
 1.6540	43.6521
 1.6530	43.7381
 1.6520	43.6377
 1.6510	43.7327
 1.6500	43.6757
 1.6490	43.6165
 1.6480	43.5377
 1.6470	43.6003
 1.6460	43.5328
 1.6450	43.6341
 1.6440	43.5519
 1.6430	43.6461
 1.6420	43.5968
 1.6410	43.5412
 1.6400	43.6307
 1.6390	43.4954
 1.6380	43.5876
 1.6370	43.6821
 1.6360	43.5579
 1.6350	43.6657
 1.6340	43.5167
 1.6330	43.6454
 1.6320	43.5317
 1.6310	43.6018
 1.6300	43.5167
 1.6290	43.5027
 1.6280	43.4390
 1.6270	43.5794
 1.6260	43.5188
 1.6250	43.4794
 1.6240	43.4335
 1.6230	43.6250
 1.6220	43.4974
 1.6210	43.4993
 1.6200	43.4424
 1.6190	43.6373
 1.6180	43.5091
 1.6170	43.5535
 1.6160	43.4868
 1.6150	43.4891
 1.6140	43.4632
 1.6130	43.5378
 1.6120	43.3525
 1.6110	43.4516
 1.6100	43.4293
 1.6090	43.5375
 1.6080	43.4072
 1.6070	43.5185
 1.6060	43.4511
 1.6050	43.4963
 1.6040	43.4139
 1.6030	43.4730
 1.6020	43.4176
 1.6010	43.4124
 1.6000	43.4160
 1.5990	43.5134
 1.5980	43.4739
 1.5970	43.4918
 1.5960	43.3864
 1.5950	43.4183
 1.5940	43.3580
 1.5930	43.4435
 1.5920	43.3888
 1.5910	43.4569
 1.5900	43.3565
 1.5890	43.4118
 1.5880	43.3651
 1.5870	43.3469
 1.5860	43.3647
 1.5850	43.4591
 1.5840	43.3348
 1.5830	43.3483
 1.5820	43.3414
 1.5810	43.3841
 1.5800	43.2744
 1.5790	43.3200
 1.5780	43.2980
 1.5770	43.3484
 1.5760	43.3321
 1.5750	43.3476
 1.5740	43.2934
 1.5730	43.3714
 1.5720	43.3093
 1.5710	43.2829
 1.5700	43.3131
 1.5690	43.3593
 1.5680	43.3410
 1.5670	43.3425
 1.5660	43.3240
 1.5650	43.3034
 1.5640	43.2525
 1.5630	43.2736
 1.5620	43.2865
 1.5610	43.3038
 1.5600	43.2393
 1.5590	43.3076
 1.5580	43.3030
 1.5570	43.3190
 1.5560	43.2391
 1.5550	43.2615
 1.5540	43.2468
 1.5530	43.2532
 1.5520	43.2275
 1.5510	43.2811
 1.5500	43.2245
 1.5490	43.2295
 1.5480	43.2038
 1.5470	43.2243
 1.5460	43.2098
 1.5450	43.2556
 1.5440	43.2246
 1.5430	43.2393
 1.5420	43.2219
 1.5410	43.2110
 1.5400	43.1872
 1.5390	43.2034
 1.5380	43.2264
 1.5370	43.2413
 1.5360	43.2374
 1.5350	43.2444
 1.5340	43.1927
 1.5330	43.2294
 1.5320	43.1702
 1.5310	43.2226
 1.5300	43.1938
 1.5290	43.2046
 1.5280	43.1943
 1.5270	43.2483
 1.5260	43.2199
 1.5250	43.1931
 1.5240	43.1267
 1.5230	43.0968
 1.5220	43.0861
 1.5210	43.1282
 1.5200	43.1312
 1.5190	43.1415
 1.5180	43.1549
 1.5170	43.1200
 1.5160	43.1426
 1.5150	43.1694
 1.5140	43.1339
 1.5130	43.1270
 1.5120	43.1381
 1.5110	43.1447
 1.5100	43.0984
 1.5090	43.1187
 1.5080	43.1070
 1.5070	43.1031
 1.5060	43.1041
 1.5050	43.1048
 1.5040	43.0917
 1.5030	43.1197
 1.5020	43.1097
 1.5010	43.1058
 1.5000	43.1060
 1.4990	43.0910
 1.4980	43.1043
 1.4970	43.0907
 1.4960	43.1158
 1.4950	43.1146
 1.4940	43.0730
 1.4930	43.0160
 1.4920	43.0319
 1.4910	43.0614
 1.4900	43.0677
 1.4890	43.0873
 1.4880	43.0657
 1.4870	43.0055
 1.4860	43.0564
 1.4850	43.0605
 1.4840	43.0481
 1.4830	43.0344
 1.4820	43.0596
 1.4810	43.0709
 1.4800	43.0414
 1.4790	43.0300
 1.4780	43.0462
 1.4770	43.0601
 1.4760	43.0423
 1.4750	43.0075
 1.4740	43.0478
 1.4730	43.0431
 1.4720	42.9909
 1.4710	43.0007
 1.4700	43.0541
 1.4690	43.0136
 1.4680	43.0067
 1.4670	42.9808
 1.4660	43.0005
 1.4650	42.9594
 1.4640	43.0132
 1.4630	43.0159
 1.4620	43.0140
 1.4610	43.0111
 1.4600	43.0275
 1.4590	43.0454
 1.4580	43.0231
 1.4570	43.0039
 1.4560	42.9816
 1.4550	42.9765
 1.4540	42.9937
 1.4530	42.9565
 1.4520	43.0081
 1.4510	42.9652
 1.4500	42.9600
 1.4490	42.9069
 1.4480	42.9435
 1.4470	42.9073
 1.4460	42.9804
 1.4450	42.9663
 1.4440	42.9859
 1.4430	42.9183
 1.4420	42.9452
 1.4410	42.8845
 1.4400	43.0163
 1.4390	42.9854
 1.4380	42.9598
 1.4370	42.9320
 1.4360	43.0007
 1.4350	42.9518
 1.4340	42.9765
 1.4330	42.9380
 1.4320	42.9754
 1.4310	42.8812
 1.4300	42.9751
 1.4290	42.8769
 1.4280	42.9535
 1.4270	42.8961
 1.4260	42.9234
 1.4250	42.9126
 1.4240	42.9579
 1.4230	42.8866
 1.4220	42.9400
 1.4210	42.8816
 1.4200	42.9295
 1.4190	42.8358
 1.4180	42.9050
 1.4170	42.8618
 1.4160	42.8910
 1.4150	42.8716
 1.4140	42.9249
 1.4130	42.8510
 1.4120	42.8863
 1.4110	42.8238
 1.4100	42.9298
 1.4090	42.8848
 1.4080	42.8921
 1.4070	42.7863
 1.4060	42.8505
 1.4050	42.7947
 1.4040	42.9053
 1.4030	42.8034
 1.4020	42.8425
 1.4010	42.7813
 1.4000	42.7795
 1.3990	42.7149
 1.3980	42.8038
 1.3970	42.7496
 1.3960	42.8659
 1.3950	42.7803
 1.3940	42.7115
 1.3930	42.6268
 1.3920	42.7721
 1.3910	42.7758
 1.3900	42.9417
 1.3890	42.8190
 1.3880	42.9176
 1.3870	42.8323
 1.3860	42.9401
 1.3850	42.8363
 1.3840	42.9305
 1.3830	42.8443
 1.3820	42.8811
 1.3810	42.8164
 1.3800	42.9538
 1.3790	42.8377
 1.3780	42.9617
 1.3770	42.8311
 1.3760	42.8944
 1.3750	42.9144
 1.3740	42.8642
 1.3730	42.8753
 1.3720	42.9088
 1.3710	42.7881
 1.3700	42.8997
 1.3690	42.8788
 1.3680	42.8993
 1.3670	42.8197
 1.3660	42.8284
 1.3650	42.8307
 1.3640	42.8724
 1.3630	42.8992
 1.3620	42.8123
 1.3610	42.8029
 1.3600	42.9273
 1.3590	42.8227
 1.3580	42.8550
 1.3570	42.7661
 1.3560	42.8696
 1.3550	42.6554
 1.3540	42.9232
 1.3530	42.7660
 1.3520	42.8807
 1.3510	42.7996
 1.3500	42.8476
 1.3490	42.7395
 1.3480	42.8321
 1.3470	42.7671
 1.3460	42.7559
 1.3450	42.7810
 1.3440	42.8995
 1.3430	42.7132
 1.3420	42.7906
 1.3410	42.7710
 1.3400	42.8124
 1.3390	42.7161
 1.3380	42.8099
 1.3370	42.7462
 1.3360	42.7631
 1.3350	42.7385
 1.3340	42.8141
 1.3330	42.7363
 1.3320	42.8278
 1.3310	42.7494
 1.3300	42.7962
 1.3290	42.7282
 1.3280	42.8056
 1.3270	42.7146
 1.3260	42.8304
 1.3250	42.7490
 1.3240	42.8252
 1.3230	42.7320
 1.3220	42.7874
 1.3210	42.7081
 1.3200	42.7650
 1.3190	42.7555
 1.3180	42.6534
 1.3170	42.6477
 1.3160	42.7986
 1.3150	42.7209
 1.3140	42.7684
 1.3130	42.7118
 1.3120	42.7479
 1.3110	42.6971
 1.3100	42.7594
 1.3090	42.7350
 1.3080	42.7721
 1.3070	42.6714
 1.3060	42.7107
 1.3050	42.6464
 1.3040	42.7362
 1.3030	42.6733
 1.3020	42.7157
 1.3010	42.7330
 1.3000	42.8053
 1.2990	42.7519
 1.2980	42.6915
 1.2970	42.6491
 1.2960	42.6908
 1.2950	42.6831
 1.2940	42.7472
 1.2930	42.7025
 1.2920	42.8025
 1.2910	42.7490
 1.2900	42.7338
 1.2890	42.7209
 1.2880	42.7333
 1.2870	42.6619
 1.2860	42.7331
 1.2850	42.6975
 1.2840	42.8092
 1.2830	42.7840
 1.2820	42.6848
 1.2810	42.6548
 1.2800	42.7264
 1.2790	42.7217
 1.2780	42.6891
 1.2770	42.7063
 1.2760	42.7687
 1.2750	42.7263
 1.2740	42.6777
 1.2730	42.6900
 1.2720	42.7009
 1.2710	42.6516
 1.2700	42.6838
 1.2690	42.6873
 1.2680	42.7052
 1.2670	42.6545
 1.2660	42.7424
 1.2650	42.6977
 1.2640	42.7538
 1.2630	42.7005
 1.2620	42.7512
 1.2610	42.7304
 1.2600	42.7722
 1.2590	42.7041
 1.2580	42.7398
 1.2570	42.7332
 1.2560	42.7451
 1.2550	42.7369
 1.2540	42.7441
 1.2530	42.6879
 1.2520	42.7245
 1.2510	42.7432
 1.2500	42.7357
 1.2490	42.7100
 1.2480	42.7376
 1.2470	42.7480
 1.2460	42.7951
 1.2450	42.7476
 1.2440	42.7177
 1.2430	42.7116
 1.2420	42.7350
 1.2410	42.7419
 1.2400	42.7641
 1.2390	42.7515
 1.2380	42.7345
 1.2370	42.7316
 1.2360	42.7666
 1.2350	42.7129
 1.2340	42.7355
 1.2330	42.7883
 1.2320	42.7988
 1.2310	42.7665
 1.2300	42.7418
 1.2290	42.7630
 1.2280	42.7915
 1.2270	42.7689
 1.2260	42.8142
 1.2250	42.8386
 1.2240	42.8233
 1.2230	42.8421
 1.2220	42.8307
 1.2210	42.8037
 1.2200	42.7862
 1.2190	42.7997
 1.2180	42.8722
 1.2170	42.8853
 1.2160	42.8841
 1.2150	42.8461
 1.2140	42.8469
 1.2130	42.8183
 1.2120	42.8255
 1.2110	42.8477
 1.2100	42.8516
 1.2090	42.8924
 1.2080	42.9250
 1.2070	42.8913
 1.2060	42.8556
 1.2050	42.8639
 1.2040	42.8515
 1.2030	42.8480
 1.2020	42.7880
 1.2010	42.8346
 1.2000	42.8629
 1.1990	42.8793
 1.1980	42.9161
 1.1970	42.9635
 1.1960	42.9138
 1.1950	42.9528
 1.1940	42.9670
 1.1930	42.9359
 1.1920	42.9221
 1.1910	42.9820
 1.1900	43.0189
 1.1890	43.0196
 1.1880	42.9066
 1.1870	42.9656
 1.1860	42.9811
 1.1850	43.0360
 1.1840	42.9971
 1.1830	42.9759
 1.1820	42.9705
 1.1810	43.0228
 1.1800	43.0509
 1.1790	43.0408
 1.1780	43.0402
 1.1770	43.0647
 1.1760	42.9909
 1.1750	43.0130
 1.1740	43.0153
 1.1730	43.1135
 1.1720	43.1307
 1.1710	43.0584
 1.1700	43.0863
 1.1690	43.1325
 1.1680	43.1000
 1.1670	43.1305
 1.1660	43.0704
 1.1650	43.0927
 1.1640	43.0774
 1.1630	43.1159
 1.1620	43.1188
 1.1610	43.1338
 1.1600	43.1500
 1.1590	43.1413
 1.1580	43.1480
 1.1570	43.1887
 1.1560	43.1561
 1.1550	43.1534
 1.1540	43.1625
 1.1530	43.2050
 1.1520	43.1763
 1.1510	43.1818
 1.1500	43.2012
 1.1490	43.2793
 1.1480	43.1957
 1.1470	43.2099
 1.1460	43.1422
 1.1450	43.2601
 1.1440	43.2127
 1.1430	43.2724
 1.1420	43.2646
 1.1410	43.2642
 1.1400	43.2338
 1.1390	43.2975
 1.1380	43.2241
 1.1370	43.3490
 1.1360	43.3219
 1.1350	43.3583
 1.1340	43.2888
 1.1330	43.3098
 1.1320	43.3555
 1.1310	43.4161
 1.1300	43.3801
 1.1290	43.4145
 1.1280	43.3681
 1.1270	43.3676
 1.1260	43.3944
 1.1250	43.4205
 1.1240	43.3375
 1.1230	43.3862
 1.1220	43.3481
 1.1210	43.4027
 1.1200	43.3821
 1.1190	43.4857
 1.1180	43.3175
 1.1170	43.4317
 1.1160	43.4683
 1.1150	43.5143
 1.1140	43.4429
 1.1130	43.4528
 1.1120	43.4206
 1.1110	43.5571
 1.1100	43.4694
 1.1090	43.4898
 1.1080	43.4654
 1.1070	43.5283
 1.1060	43.4997
 1.1050	43.5483
 1.1040	43.4588
 1.1030	43.5946
 1.1020	43.5470
 1.1010	43.5471
 1.1000	43.5366
 1.0990	43.5271
 1.0980	43.4189
 1.0970	43.6655
 1.0960	43.5035
 1.0950	43.5581
 1.0940	43.5448
 1.0930	43.6083
 1.0920	43.5649
 1.0910	43.6109
 1.0900	43.5619
 1.0890	43.6489
 1.0880	43.5326
 1.0870	43.6200
 1.0860	43.6107
 1.0850	43.6326
 1.0840	43.6156
 1.0830	43.6597
 1.0820	43.6014
 1.0810	43.6591
 1.0800	43.5849
 1.0790	43.7138
 1.0780	43.6231
 1.0770	43.6912
 1.0760	43.6748
 1.0750	43.6173
 1.0740	43.6037
 1.0730	43.7039
 1.0720	43.5914
 1.0710	43.7717
 1.0700	43.5370
 1.0690	43.7819
 1.0680	43.6494
 1.0670	43.6555
 1.0660	43.6342
 1.0650	43.7006
 1.0640	43.7000
 1.0630	43.7837
 1.0620	43.5898
 1.0610	43.7481
 1.0600	43.6647
 1.0590	43.7825
 1.0580	43.6256
 1.0570	43.7075
 1.0560	43.6694
 1.0550	43.7426
 1.0540	43.7462
 1.0530	43.6936
 1.0520	43.6400
 1.0510	43.7477
 1.0500	43.7854
 1.0490	43.8426
 1.0480	43.6703
 1.0470	43.8002
 1.0460	43.7363
 1.0450	43.7809
 1.0440	43.6959
 1.0430	43.7754
 1.0420	43.7096
 1.0410	43.7976
 1.0400	43.7476
 1.0390	43.8085
 1.0380	43.6590
 1.0370	43.7915
 1.0360	43.7533
 1.0350	43.7476
 1.0340	43.6936
 1.0330	43.7045
 1.0320	43.6396
 1.0310	43.7414
 1.0300	43.7744
 1.0290	44.1863
 1.0280	43.7201
 1.0270	43.8091
 1.0260	43.8093
 1.0250	43.8810
 1.0240	43.7394
 1.0230	43.7666
 1.0220	43.7606
 1.0210	43.8232
 1.0200	43.6958
 1.0190	43.8075
 1.0180	43.7348
 1.0170	43.8050
 1.0160	43.7921
 1.0150	43.8156
 1.0140	43.6897
 1.0130	43.7180
 1.0120	43.7465
 1.0110	43.7781
 1.0100	43.7719
 1.0090	43.7474
 1.0080	43.7310
 1.0070	43.8137
 1.0060	43.6853
 1.0050	43.7458
 1.0040	43.7134
 1.0030	43.7674
 1.0020	43.7637
 1.0010	43.7821
 1.0000	43.6875
 0.9990	43.7502
 0.9980	43.7277
 0.9970	43.7662
 0.9960	43.7397
 0.9950	43.8323
 0.9940	43.7475
 0.9930	43.7300
 0.9920	43.7227
 0.9910	43.7272
 0.9900	43.7134
 0.9890	43.7309
 0.9880	43.6606
 0.9870	43.7071
 0.9860	43.7089
 0.9850	43.7668
 0.9840	43.7011
 0.9830	43.7077
 0.9820	43.7044
 0.9810	43.6827
 0.9800	43.6857
 0.9790	43.7300
 0.9780	43.6304
 0.9770	43.6231
 0.9760	43.6065
 0.9750	43.5690
 0.9740	43.5983
 0.9730	43.6096
 0.9720	43.6052
 0.9710	43.6338
 0.9700	43.5713
 0.9690	43.6529
 0.9680	43.6104
 0.9670	43.5737
 0.9660	43.5744
 0.9650	43.5695
 0.9640	43.5736
 0.9630	43.6025
 0.9620	43.5557
 0.9610	43.5591
 0.9600	43.5396
 0.9590	43.4992
 0.9580	43.4801
 0.9570	43.5320
 0.9560	43.4502
 0.9550	43.4910
 0.9540	43.4806
 0.9530	43.4820
 0.9520	43.4676
 0.9510	43.4972
 0.9500	43.4699
 0.9490	43.4129
 0.9480	43.4335
 0.9470	43.4715
 0.9460	43.4185
 0.9450	43.3706
 0.9440	43.3958
 0.9430	43.4319
 0.9420	43.3703
 0.9410	43.2975
 0.9400	43.2861
 0.9390	43.3634
 0.9380	43.3805
 0.9370	43.3713
 0.9360	43.3632
 0.9350	43.3019
 0.9340	43.3205
 0.9330	43.3055
 0.9320	43.2346
 0.9310	43.1955
 0.9300	43.1772
 0.9290	43.2029
 0.9280	43.2102
 0.9270	43.1889
 0.9260	43.1672
 0.9250	43.1471
 0.9240	43.1702
 0.9230	43.1898
 0.9220	43.1276
 0.9210	43.0868
 0.9200	43.0864
 0.9190	43.0565
 0.9180	43.0433
 0.9170	43.0408
 0.9160	43.0139
 0.9150	42.9846
 0.9140	42.9760
 0.9130	42.9071
 0.9120	42.9307
 0.9110	42.9532
 0.9100	42.9475
 0.9090	42.8964
 0.9080	42.8800
 0.9070	42.8480
 0.9060	42.8371
 0.9050	42.8137
 0.9040	42.7842
 0.9030	42.7392
 0.9020	42.7842
 0.9010	42.7456
 0.9000	42.7431
 0.8990	42.6257
 0.8980	42.6614
 0.8970	42.6388
 0.8960	42.6421
 0.8950	42.5570
 0.8940	42.5404
 0.8930	42.5110
 0.8920	42.5609
 0.8910	42.4316
 0.8900	42.3931
 0.8890	42.3953
 0.8880	42.4799
 0.8870	42.3775
 0.8860	42.3481
 0.8850	42.2620
 0.8840	42.3115
 0.8830	42.2807
 0.8820	42.2509
 0.8810	42.2050
 0.8800	42.2136
 0.8790	42.1315
 0.8780	42.1261
 0.8770	42.0982
 0.8760	42.1795
 0.8750	42.0982
 0.8740	42.1041
 0.8730	41.9947
 0.8720	42.0455
 0.8710	41.9433
 0.8700	41.9292
 0.8690	41.8377
 0.8680	41.8314
 0.8670	41.7316
 0.8660	41.8096
 0.8650	41.7514
 0.8640	41.7135
 0.8630	41.6512
 0.8620	41.6651
 0.8610	41.5595
 0.8600	41.5398
 0.8590	41.4593
 0.8580	41.4375
 0.8570	41.4338
 0.8560	41.4054
 0.8550	41.3591
 0.8540	41.3260
 0.8530	41.3123
 0.8520	41.2782
 0.8510	41.2334
 0.8500	41.2146
 0.8490	41.1874
 0.8480	41.1375
 0.8470	41.1198
 0.8460	41.0666
 0.8450	41.0536
 0.8440	41.0223
 0.8430	40.9971
 0.8420	40.9534
 0.8410	40.9038
 0.8400	40.8894
 0.8390	40.8578
 0.8380	40.8365
 0.8370	40.7915
 0.8360	40.7504
 0.8350	40.7229
 0.8340	40.6824
 0.8330	40.6591
 0.8320	40.6317
 0.8310	40.5817
 0.8300	40.5313
 0.8290	40.5044
 0.8280	40.4749
 0.8270	40.4449
 0.8260	40.3940
 0.8250	40.3606
 0.8240	40.3373
 0.8230	40.2860
 0.8220	40.2396
 0.8210	40.2084
 0.8200	40.1900
 0.8190	40.1594
 0.8180	40.1090
 0.8170	40.0804
 0.8160	40.0555
 0.8150	39.9847
 0.8140	39.9599
 0.8130	39.9173
 0.8120	39.8685
 0.8110	39.8038
 0.8100	39.7574
 0.8090	39.7441
 0.8080	39.7116
 0.8070	39.6553
 0.8060	39.6346
 0.8050	39.5875
 0.8040	39.5454
 0.8030	39.4852
 0.8020	39.4694
 0.8010	39.4266
 0.8000	39.3704
 0.7990	39.3099
 0.7980	39.2527
 0.7970	39.2050
 0.7960	39.1608
 0.7950	39.1103
 0.7940	39.0420
 0.7930	39.0077
 0.7920	38.9800
 0.7910	38.9356
 0.7900	38.8825
 0.7890	38.8459
 0.7880	38.7598
 0.7870	38.7480
 0.7860	38.6750
 0.7850	38.6563
 0.7840	38.6048
 0.7830	38.5543
 0.7820	38.5128
 0.7810	38.4561
 0.7800	38.4156
 0.7790	38.3708
 0.7780	38.2999
 0.7770	38.2351
 0.7760	38.2055
 0.7750	38.1541
 0.7740	38.0891
 0.7730	38.0630
 0.7720	38.0139
 0.7710	37.9510
 0.7700	37.9145
 0.7690	37.8505
 0.7680	37.7981
 0.7670	37.7313
 0.7660	37.7074
 0.7650	37.6583
 0.7640	37.5990
 0.7630	37.5493
 0.7620	37.4890
 0.7610	37.4596
 0.7600	37.4173
 0.7590	37.3518
 0.7580	37.3198
 0.7570	37.2633
 0.7560	37.1923
 0.7550	37.1672
 0.7540	37.1095
 0.7530	37.0714
 0.7520	37.0053
 0.7510	36.9613
 0.7500	36.9281
 0.7490	36.8846
 0.7480	36.8252
 0.7470	36.7888
 0.7460	36.7478
 0.7450	36.6966
 0.7440	36.6324
 0.7430	36.5908
 0.7420	36.5515
 0.7410	36.5000
 0.7400	36.4395
 0.7390	36.4137
 0.7380	36.3760
 0.7370	36.3146
 0.7360	36.2681
 0.7350	36.2233
 0.7340	36.1715
 0.7330	36.1218
 0.7320	36.0654
 0.7310	36.0319
 0.7300	35.9806
 0.7290	35.9368
 0.7280	35.8728
 0.7270	35.8376
 0.7260	35.7788
 0.7250	35.7345
 0.7240	35.6827
 0.7230	35.6424
 0.7220	35.5873
 0.7210	35.5558
 0.7200	35.4901
 0.7190	35.4348
 0.7180	35.4015
 0.7170	35.3627
 0.7160	35.2987
 0.7150	35.2420
 0.7140	35.2066
 0.7130	35.1577
 0.7120	35.1147
 0.7110	35.0611
 0.7100	35.0044
 0.7090	34.9670
 0.7080	34.9172
 0.7070	34.8644
 0.7060	34.8171
 0.7050	34.7763
 0.7040	34.7125
 0.7030	34.6663
 0.7020	34.6134
 0.7010	34.5653
 0.7000	34.5180
 0.6990	34.4537
 0.6980	34.4142
 0.6970	34.3774
 0.6960	34.3204
 0.6950	34.2661
 0.6940	34.2145
 0.6930	34.1629
 0.6920	34.1043
 0.6910	34.0604
 0.6900	34.0136
 0.6890	33.9576
 0.6880	33.8967
 0.6870	33.8525
 0.6860	33.7909
 0.6850	33.7383
 0.6840	33.6872
 0.6830	33.6443
 0.6820	33.5985
 0.6810	33.5448
 0.6800	33.4734
 0.6790	33.4178
 0.6780	33.3823
 0.6770	33.3400
 0.6760	33.2885
 0.6750	33.2313
 0.6740	33.1745
 0.6730	33.1214
 0.6720	33.0720
 0.6710	33.0143
 0.6700	32.9563
 0.6690	32.8978
 0.6680	32.8398
 0.6670	32.7862
 0.6660	32.7181
 0.6650	32.6584
 0.6640	32.6029
 0.6630	32.5371
 0.6620	32.4824
 0.6610	32.4197
 0.6600	32.3593
 0.6590	32.3072
 0.6580	32.2387
 0.6570	32.1726
 0.6560	32.1196
 0.6550	32.0560
 0.6540	31.9904
 0.6530	31.9349
 0.6520	31.8737
 0.6510	31.7999
 0.6500	31.7350
 0.6490	31.6811
 0.6480	31.6131
 0.6470	31.5400
 0.6460	31.4777
 0.6450	31.4120
 0.6440	31.3486
 0.6430	31.2873
 0.6420	31.2142
 0.6410	31.1447
 0.6400	31.0781
 0.6390	31.0064
 0.6380	30.9404
 0.6370	30.8687
 0.6360	30.8022
 0.6350	30.7415
 0.6340	30.6701
 0.6330	30.5995
 0.6320	30.5312
 0.6310	30.4610
 0.6300	30.3913
 0.6290	30.3160
 0.6280	30.2462
 0.6270	30.1800
 0.6260	30.1063
 0.6250	30.0316
 0.6240	29.9601
 0.6230	29.8870
 0.6220	29.8165
 0.6210	29.7440
 0.6200	29.6712
 0.6190	29.5987
 0.6180	29.5232
 0.6170	29.4518
 0.6160	29.3809
 0.6150	29.3063
 0.6140	29.2261
 0.6130	29.1515
 0.6120	29.0830
 0.6110	29.0057
 0.6100	28.9278
 0.6090	28.8554
 0.6080	28.7738
 0.6070	28.6941
 0.6060	28.6178
 0.6050	28.5475
 0.6040	28.4725
 0.6030	28.3994
 0.6020	28.3220
 0.6010	28.2466
 0.6000	28.1663
 0.5990	28.0885
 0.5980	28.0190
 0.5970	27.9476
 0.5960	27.8718
 0.5950	27.8013
 0.5940	27.7176
 0.5930	27.6351
 0.5920	27.5546
 0.5910	27.4755
 0.5900	27.3978
 0.5890	27.3161
 0.5880	27.2343
 0.5870	27.1531
 0.5860	27.0720
 0.5850	26.9834
 0.5840	26.9041
 0.5830	26.8191
 0.5820	26.7282
 0.5810	26.6399
 0.5800	26.5573
 0.5790	26.4725
 0.5780	26.3831
 0.5770	26.2913
 0.5760	26.2150
 0.5750	26.1308
 0.5740	26.0359
 0.5730	25.9412
 0.5720	25.8598
 0.5710	25.7684
 0.5700	25.6722
 0.5690	25.5833
 0.5680	25.4923
 0.5670	25.4074
 0.5660	25.3116
 0.5650	25.2165
 0.5640	25.1263
 0.5630	25.0327
 0.5620	24.9352
 0.5610	24.8446
 0.5600	24.7505
 0.5590	24.6584
 0.5580	24.5625
 0.5570	24.4714
 0.5560	24.3713
 0.5550	24.2743
 0.5540	24.1744
 0.5530	24.0782
 0.5520	23.9842
 0.5510	23.8880
 0.5500	23.7903
 0.5490	23.6989
 0.5480	23.6003
 0.5470	23.5055
 0.5460	23.4064
 0.5450	23.3082
 0.5440	23.2122
 0.5430	23.1139
 0.5420	23.0133
 0.5410	22.9154
 0.5400	22.8248
 0.5390	22.7274
 0.5380	22.6335
 0.5370	22.5306
 0.5360	22.4364
 0.5350	22.3317
 0.5340	22.2373
 0.5330	22.1416
 0.5320	22.0395
 0.5310	21.9416
 0.5300	21.8434
 0.5290	21.7459
 0.5280	21.6491
 0.5270	21.5517
 0.5260	21.4546
 0.5250	21.3563
 0.5240	21.2586
 0.5230	21.1595
 0.5220	21.0650
 0.5210	20.9650
 0.5200	20.8697
 0.5190	20.7641
 0.5180	20.6701
 0.5170	20.5765
 0.5160	20.4780
 0.5150	20.3771
 0.5140	20.2829
 0.5130	20.1880
 0.5120	20.0791
 0.5110	19.9838
 0.5100	19.8913
 0.5090	19.7977
 0.5080	19.7028
 0.5070	19.6049
 0.5060	19.5086
 0.5050	19.4164
 0.5040	19.3176
 0.5030	19.2196
 0.5020	19.1253
 0.5010	19.0310
 0.5000	18.9376
 0.4990	18.8428
 0.4980	18.7420
 0.4970	18.6518
 0.4960	18.5642
 0.4950	18.4752
 0.4940	18.3836
 0.4930	18.2896
 0.4920	18.2040
 0.4910	18.1140
 0.4900	18.0305
 0.4890	17.9410
 0.4880	17.8507
 0.4870	17.7592
 0.4860	17.6959
 0.4850	17.6224
 0.4840	17.5472
 0.4830	17.4623
 0.4820	17.3861
 0.4810	17.3016
 0.4800	17.2228
 0.4790	17.1354
 0.4780	17.0540
 0.4770	16.9725
 0.4760	16.8933
 0.4750	16.8075
 0.4740	16.7298
 0.4730	16.6530
 0.4720	16.5730
 0.4710	16.4909
 0.4700	16.4133
 0.4690	16.3374
 0.4680	16.2582
 0.4670	16.1877
 0.4660	16.1075
 0.4650	16.0328
 0.4640	15.9504
 0.4630	15.8823
 0.4620	15.8081
 0.4610	15.7288
 0.4600	15.6609
 0.4590	15.5871
 0.4580	15.5142
 0.4570	15.4339
 0.4560	15.3620
 0.4550	15.2886
 0.4540	15.2132
 0.4530	15.1383
 0.4520	15.0629
 0.4510	14.9863
 0.4500	14.9073
 0.4490	14.8354
 0.4480	14.7669
 0.4470	14.6916
 0.4460	14.6176
 0.4450	14.5420
 0.4440	14.4667
 0.4430	14.3890
 0.4420	14.3148
 0.4410	14.2447
 0.4400	14.1704
 0.4390	14.0899
 0.4380	14.0129
 0.4370	13.9315
 0.4360	13.8585
 0.4350	13.7862
 0.4340	13.7038
 0.4330	13.6250
 0.4320	13.5504
 0.4310	13.4708
 0.4300	13.3953
 0.4290	13.3137
 0.4280	13.2384
 0.4270	13.1612
 0.4260	13.0831
 0.4250	13.0060
 0.4240	12.9260
 0.4230	12.8494
 0.4220	12.7715
 0.4210	12.6966
 0.4200	12.6172
 0.4190	12.5351
 0.4180	12.4593
 0.4170	12.3819
 0.4160	12.3050
 0.4150	12.2284
 0.4140	12.1466
 0.4130	12.0620
 0.4120	11.9757
 0.4110	11.8928
 0.4100	11.8035
 0.4090	11.7158
 0.4080	11.6188
 0.4070	11.5198
 0.4060	11.4151
 0.4050	11.2996
 0.4040	11.1849
 0.4030	11.0603
 0.4020	10.9340
 0.4010	10.8041
 0.4000	10.6728
