Name: Oligoclase (Feldspar) (NaSi,CaAl)AlSi_2O_8
Type: Mineral
Class: Silicate
Subclass: Tectosilicate
Particle Size: Coarse
Sample No.: TS-3A
Owner: JPL
Wavelength Range: VSWIR
Origin: 
Collection Date: N/A
Description: Particle size was 125-500um.Collected by JPL Original ASTER Spectral Library name was jpl.beckman.mineral.silicate.tectosilicate.coarse.ts03a.spectrum.txt
Measurement: Hemispherical reflectance
First Column: X
Second Column: Y
X Units: Wavelength (micrometers)
Y Units:Reflectance (percent)
First X Value:  0.4000
Last X Value:  2.5000
Number of X Values: 826
Additional Information: mineral.silicate.tectosilicate.coarse.vswir.ts-3a.jpl.beckman.ancillary.txt

 0.4000	62.0600
 0.4010	62.1700
 0.4020	62.2300
 0.4030	62.2700
 0.4040	62.4300
 0.4050	62.4900
 0.4060	62.3700
 0.4070	62.4500
 0.4080	62.6500
 0.4090	62.6900
 0.4100	62.7300
 0.4110	62.6900
 0.4120	62.9300
 0.4130	63.0000
 0.4140	62.8700
 0.4150	62.9900
 0.4160	63.0300
 0.4170	62.9700
 0.4180	62.8900
 0.4190	62.9300
 0.4200	63.1100
 0.4210	63.1400
 0.4220	63.0900
 0.4230	63.0900
 0.4240	63.2800
 0.4250	63.3000
 0.4260	63.1300
 0.4270	63.3200
 0.4280	63.3000
 0.4290	63.3200
 0.4300	63.3400
 0.4310	63.5400
 0.4320	63.6300
 0.4330	63.6000
 0.4340	63.5800
 0.4350	63.7200
 0.4360	63.7200
 0.4370	63.6400
 0.4380	63.8200
 0.4390	63.8600
 0.4400	63.7700
 0.4410	63.7600
 0.4420	63.9800
 0.4430	64.0100
 0.4440	63.9600
 0.4450	63.9600
 0.4460	64.0800
 0.4470	64.2000
 0.4480	64.1800
 0.4490	64.1200
 0.4500	64.3800
 0.4510	64.5000
 0.4520	64.4200
 0.4530	64.4800
 0.4540	64.6800
 0.4550	64.6200
 0.4560	64.7300
 0.4570	64.7800
 0.4580	65.0000
 0.4590	64.9800
 0.4600	64.9700
 0.4610	64.9400
 0.4620	64.9000
 0.4630	65.2400
 0.4640	65.1600
 0.4650	65.1200
 0.4660	65.1400
 0.4670	65.2800
 0.4680	65.3500
 0.4690	65.2900
 0.4700	65.3500
 0.4710	65.4700
 0.4720	65.5500
 0.4730	65.5000
 0.4740	65.4400
 0.4750	65.5500
 0.4760	65.6800
 0.4770	65.5800
 0.4780	65.6600
 0.4790	65.7600
 0.4800	65.6100
 0.4810	65.6000
 0.4820	65.8200
 0.4830	65.9500
 0.4840	65.8500
 0.4850	65.7900
 0.4860	65.9600
 0.4870	65.9400
 0.4880	65.8400
 0.4890	65.7500
 0.4900	65.7000
 0.4910	65.8200
 0.4920	65.8300
 0.4930	65.9500
 0.4940	66.0500
 0.4950	66.0500
 0.4960	65.8600
 0.4970	66.0000
 0.4980	66.1400
 0.4990	66.0800
 0.5000	65.9600
 0.5010	65.9400
 0.5020	66.1100
 0.5030	66.0100
 0.5040	65.8000
 0.5050	66.0500
 0.5060	66.0500
 0.5070	65.9100
 0.5080	65.8500
 0.5090	65.9400
 0.5100	66.0200
 0.5110	66.0400
 0.5120	65.9300
 0.5130	65.8800
 0.5140	65.9800
 0.5150	65.9100
 0.5160	65.7900
 0.5170	66.0900
 0.5180	66.0100
 0.5190	65.9000
 0.5200	65.7800
 0.5210	65.9200
 0.5220	65.9100
 0.5230	65.9500
 0.5240	65.7700
 0.5250	65.8100
 0.5260	65.8400
 0.5270	65.7600
 0.5280	65.7200
 0.5290	65.8400
 0.5300	65.8700
 0.5310	65.6900
 0.5320	65.6500
 0.5330	65.8200
 0.5340	65.8500
 0.5350	65.7600
 0.5360	65.6300
 0.5370	65.6500
 0.5380	65.7500
 0.5390	65.8100
 0.5400	65.6800
 0.5410	65.9000
 0.5420	65.8700
 0.5430	65.8300
 0.5440	65.7300
 0.5450	65.8900
 0.5460	65.9800
 0.5470	65.9600
 0.5480	65.8100
 0.5490	66.0000
 0.5500	66.0500
 0.5510	66.1200
 0.5520	66.1400
 0.5530	66.2000
 0.5540	66.3400
 0.5550	66.4000
 0.5560	66.2900
 0.5570	66.2700
 0.5580	66.5100
 0.5590	66.5200
 0.5600	66.5600
 0.5610	66.8900
 0.5620	66.8300
 0.5630	66.9300
 0.5640	67.1000
 0.5650	67.0000
 0.5660	66.9400
 0.5670	67.0900
 0.5680	66.9900
 0.5690	66.9300
 0.5700	66.8800
 0.5710	67.0000
 0.5720	66.9300
 0.5730	66.8100
 0.5740	66.9100
 0.5750	67.0800
 0.5760	67.0900
 0.5770	66.8500
 0.5780	67.1000
 0.5790	67.1100
 0.5800	66.9900
 0.5810	66.9300
 0.5820	67.1300
 0.5830	67.1000
 0.5840	67.0000
 0.5850	67.0900
 0.5860	67.2400
 0.5870	67.2500
 0.5880	67.1300
 0.5890	67.2700
 0.5900	67.3300
 0.5910	67.2000
 0.5920	67.1000
 0.5930	67.2600
 0.5940	67.3800
 0.5950	67.2100
 0.5960	67.2800
 0.5970	67.4100
 0.5980	67.3400
 0.5990	67.3900
 0.6000	67.5200
 0.6010	67.5700
 0.6020	67.4900
 0.6030	67.4500
 0.6040	67.5800
 0.6050	67.6700
 0.6060	67.5200
 0.6070	67.5700
 0.6080	67.6500
 0.6090	67.7300
 0.6100	67.6600
 0.6110	67.5300
 0.6120	67.6000
 0.6130	67.6900
 0.6140	67.6100
 0.6150	67.5600
 0.6160	67.6100
 0.6170	67.6100
 0.6180	67.4400
 0.6190	67.4500
 0.6200	67.6400
 0.6210	67.7300
 0.6220	67.6700
 0.6230	67.5900
 0.6240	67.6100
 0.6250	67.6700
 0.6260	67.5500
 0.6270	67.6500
 0.6280	67.7300
 0.6290	67.7200
 0.6300	67.6300
 0.6310	67.6600
 0.6320	67.7500
 0.6330	67.7700
 0.6340	67.5400
 0.6350	67.6800
 0.6360	67.7200
 0.6370	67.6000
 0.6380	67.5700
 0.6390	67.6300
 0.6400	67.6800
 0.6410	67.6300
 0.6420	67.5700
 0.6430	67.7600
 0.6440	67.9100
 0.6450	67.8900
 0.6460	67.7300
 0.6470	67.8200
 0.6480	67.8300
 0.6490	67.7100
 0.6500	67.6600
 0.6510	67.8400
 0.6520	67.8300
 0.6530	67.6500
 0.6540	67.7300
 0.6550	67.8700
 0.6560	67.8300
 0.6570	67.6200
 0.6580	67.8600
 0.6590	67.8900
 0.6600	67.7300
 0.6610	67.6800
 0.6620	67.8400
 0.6630	67.8900
 0.6640	67.8100
 0.6650	67.8000
 0.6660	67.8700
 0.6670	67.8200
 0.6680	67.8100
 0.6690	67.8400
 0.6700	67.8300
 0.6710	67.8000
 0.6720	67.7500
 0.6730	67.8100
 0.6740	67.9300
 0.6750	67.8700
 0.6760	67.7400
 0.6770	67.8800
 0.6780	67.9400
 0.6790	67.9500
 0.6800	67.7600
 0.6810	67.8400
 0.6820	67.9000
 0.6830	67.7700
 0.6840	67.7700
 0.6850	67.9200
 0.6860	67.9200
 0.6870	67.7900
 0.6880	67.7700
 0.6890	67.8900
 0.6900	67.9200
 0.6910	67.7500
 0.6920	67.8600
 0.6930	67.9000
 0.6940	67.8500
 0.6950	67.7900
 0.6960	67.9200
 0.6970	67.9300
 0.6980	67.8100
 0.6990	67.8200
 0.7000	67.9400
 0.7010	67.8800
 0.7020	67.9000
 0.7030	68.0200
 0.7040	67.8300
 0.7050	67.8900
 0.7060	67.9500
 0.7070	68.0900
 0.7080	68.0100
 0.7090	67.9100
 0.7100	67.9700
 0.7110	68.0200
 0.7120	67.9400
 0.7130	67.9000
 0.7140	68.0100
 0.7150	67.9900
 0.7160	67.9300
 0.7170	67.9000
 0.7180	68.0100
 0.7190	67.9200
 0.7200	67.8700
 0.7210	67.9500
 0.7220	68.0600
 0.7230	68.0400
 0.7240	67.9300
 0.7250	68.0400
 0.7260	67.9800
 0.7270	67.9100
 0.7280	68.0100
 0.7290	67.9400
 0.7300	68.0800
 0.7310	68.0100
 0.7320	67.9800
 0.7330	68.0700
 0.7340	68.0600
 0.7350	67.9600
 0.7360	68.0100
 0.7370	68.1400
 0.7380	68.0500
 0.7390	68.0400
 0.7400	67.9000
 0.7410	68.1000
 0.7420	68.0900
 0.7430	67.9200
 0.7440	68.0400
 0.7450	68.0600
 0.7460	67.9600
 0.7470	67.9400
 0.7480	68.0100
 0.7490	68.0300
 0.7500	67.9700
 0.7510	68.0200
 0.7520	68.0500
 0.7530	68.1100
 0.7540	67.9100
 0.7550	67.7900
 0.7560	67.8700
 0.7570	68.0000
 0.7580	67.8600
 0.7590	67.8400
 0.7600	67.9700
 0.7610	67.8800
 0.7620	67.7400
 0.7630	67.8600
 0.7640	67.8100
 0.7650	67.9000
 0.7660	67.9100
 0.7670	67.8100
 0.7680	67.8600
 0.7690	67.8100
 0.7700	67.8100
 0.7710	67.8600
 0.7720	67.9600
 0.7730	67.9500
 0.7740	67.9100
 0.7750	67.8000
 0.7760	67.9000
 0.7770	67.8600
 0.7780	67.8100
 0.7790	67.8800
 0.7800	67.9700
 0.7810	67.8100
 0.7820	67.9000
 0.7830	68.0300
 0.7840	67.9500
 0.7850	67.9200
 0.7860	67.8400
 0.7870	67.9900
 0.7880	68.0000
 0.7890	67.8300
 0.7900	67.9200
 0.7910	68.0300
 0.7920	67.9800
 0.7930	67.9500
 0.7940	68.1600
 0.7950	67.9900
 0.7960	67.9500
 0.7970	68.1100
 0.7980	68.1800
 0.7990	68.1600
 0.8000	67.9800
 0.8040	68.0200
 0.8080	68.0700
 0.8120	68.0400
 0.8160	68.1000
 0.8200	68.1300
 0.8240	68.1600
 0.8280	68.1500
 0.8320	68.1300
 0.8360	68.1400
 0.8400	68.1600
 0.8440	68.1700
 0.8480	68.2100
 0.8520	68.2400
 0.8560	68.2600
 0.8600	68.2200
 0.8640	68.2800
 0.8680	68.3300
 0.8720	68.2700
 0.8760	68.3000
 0.8800	68.2800
 0.8840	68.2700
 0.8880	68.2800
 0.8920	68.3100
 0.8960	68.2400
 0.9000	68.2700
 0.9040	68.2300
 0.9080	68.2700
 0.9120	68.2300
 0.9160	68.2900
 0.9200	68.2800
 0.9240	68.2400
 0.9280	68.1900
 0.9320	68.2400
 0.9360	68.1700
 0.9400	68.2200
 0.9440	68.2300
 0.9480	68.1800
 0.9520	68.1100
 0.9560	68.1100
 0.9600	68.0500
 0.9640	68.0800
 0.9680	68.0600
 0.9720	67.9400
 0.9760	67.9000
 0.9800	67.9700
 0.9840	67.9800
 0.9880	67.8800
 0.9920	67.8400
 0.9960	67.8200
 1.0000	67.7800
 1.0040	67.7600
 1.0080	67.7400
 1.0120	67.6400
 1.0160	67.6200
 1.0200	67.4800
 1.0240	67.5700
 1.0280	67.5100
 1.0320	67.5900
 1.0360	67.4800
 1.0400	67.5300
 1.0440	67.4400
 1.0480	67.4000
 1.0520	67.3000
 1.0560	67.2500
 1.0600	67.2600
 1.0640	67.1000
 1.0680	67.2000
 1.0720	67.1000
 1.0760	67.0700
 1.0800	67.0200
 1.0840	67.0000
 1.0880	67.0200
 1.0920	66.9100
 1.0960	66.9900
 1.1000	66.9500
 1.1040	66.8800
 1.1080	66.8800
 1.1120	66.8200
 1.1160	66.8200
 1.1200	66.7700
 1.1240	66.8100
 1.1280	66.7600
 1.1320	66.6700
 1.1360	66.6300
 1.1400	66.5100
 1.1440	66.5400
 1.1480	66.5200
 1.1520	66.3800
 1.1560	66.5300
 1.1600	66.3500
 1.1640	66.4100
 1.1680	66.3100
 1.1720	66.2500
 1.1760	66.3200
 1.1800	66.2500
 1.1840	66.2400
 1.1880	66.3000
 1.1920	66.2200
 1.1960	66.2700
 1.2000	66.2600
 1.2040	66.2200
 1.2080	66.2100
 1.2120	66.2000
 1.2160	66.2300
 1.2200	66.1800
 1.2240	66.1800
 1.2280	66.1300
 1.2320	66.2400
 1.2360	66.2100
 1.2400	66.2000
 1.2440	66.2100
 1.2480	66.3000
 1.2520	66.2800
 1.2560	66.3100
 1.2600	66.2700
 1.2640	66.3000
 1.2680	66.3400
 1.2720	66.3800
 1.2760	66.3400
 1.2800	66.4000
 1.2840	66.3500
 1.2880	66.3800
 1.2920	66.4100
 1.2960	66.3500
 1.3000	66.4200
 1.3040	66.3400
 1.3080	66.3900
 1.3120	66.4500
 1.3160	66.3700
 1.3200	66.4600
 1.3240	66.4600
 1.3280	66.3900
 1.3320	66.4000
 1.3360	66.4600
 1.3400	66.4600
 1.3440	66.4400
 1.3480	66.4900
 1.3520	66.5200
 1.3560	66.4900
 1.3600	66.6000
 1.3640	66.5000
 1.3680	66.4800
 1.3720	66.4800
 1.3760	66.3500
 1.3800	66.2200
 1.3840	66.0600
 1.3880	65.6300
 1.3920	65.0300
 1.3960	64.3800
 1.4000	63.9300
 1.4040	63.6300
 1.4080	63.5600
 1.4120	63.7600
 1.4160	64.2600
 1.4200	64.5600
 1.4240	64.6900
 1.4280	64.8100
 1.4320	64.8300
 1.4360	64.9300
 1.4400	65.0300
 1.4440	65.0800
 1.4480	65.0600
 1.4520	65.1000
 1.4560	65.2100
 1.4600	65.2200
 1.4640	65.2800
 1.4680	65.4200
 1.4720	65.5500
 1.4760	65.7100
 1.4800	65.8400
 1.4840	66.0600
 1.4880	66.1100
 1.4920	66.3400
 1.4960	66.4700
 1.5000	66.4800
 1.5040	66.5700
 1.5080	66.6900
 1.5120	66.7300
 1.5160	66.8900
 1.5200	66.9300
 1.5240	67.0700
 1.5280	67.1100
 1.5320	67.1300
 1.5360	67.2600
 1.5400	67.3700
 1.5440	67.4700
 1.5480	67.4500
 1.5520	67.5300
 1.5560	67.6700
 1.5600	67.6100
 1.5640	67.6100
 1.5680	67.6900
 1.5720	67.7800
 1.5760	67.7100
 1.5800	67.8400
 1.5840	67.9600
 1.5880	68.0300
 1.5920	68.0200
 1.5960	68.1000
 1.6000	68.2000
 1.6040	68.2300
 1.6080	68.2600
 1.6120	68.3100
 1.6160	68.2800
 1.6200	68.3100
 1.6240	68.3200
 1.6280	68.3800
 1.6320	68.4800
 1.6360	68.4300
 1.6400	68.4500
 1.6440	68.4800
 1.6480	68.4800
 1.6520	68.4900
 1.6560	68.5300
 1.6600	68.5600
 1.6640	68.6200
 1.6680	68.6000
 1.6720	68.6900
 1.6760	68.6800
 1.6800	68.6400
 1.6840	68.6500
 1.6880	68.7000
 1.6920	68.7300
 1.6960	68.8100
 1.7000	68.7600
 1.7040	68.7500
 1.7080	68.7800
 1.7120	68.8100
 1.7160	68.8700
 1.7200	68.8100
 1.7240	68.7900
 1.7280	68.8400
 1.7320	68.7700
 1.7360	68.7800
 1.7400	68.7300
 1.7440	68.7200
 1.7480	68.6900
 1.7520	68.7200
 1.7560	68.7100
 1.7600	68.7000
 1.7640	68.7000
 1.7680	68.5600
 1.7720	68.5800
 1.7760	68.6000
 1.7800	68.5600
 1.7840	68.5600
 1.7880	68.5900
 1.7920	68.6100
 1.7960	68.5900
 1.8000	68.6900
 1.8040	68.6700
 1.8080	68.6600
 1.8120	68.7000
 1.8160	68.6100
 1.8200	68.6700
 1.8240	68.6000
 1.8280	68.5600
 1.8320	68.5900
 1.8360	68.5500
 1.8400	68.4600
 1.8440	68.4600
 1.8480	68.4200
 1.8520	68.3700
 1.8560	68.2100
 1.8600	68.1100
 1.8640	67.9400
 1.8680	67.5100
 1.8720	67.0800
 1.8760	66.5600
 1.8800	65.9200
 1.8840	65.2300
 1.8880	64.4100
 1.8920	63.5100
 1.8960	62.5700
 1.9000	61.6500
 1.9040	60.8500
 1.9080	60.1400
 1.9120	59.6600
 1.9160	59.2900
 1.9200	59.1000
 1.9240	58.8700
 1.9280	58.8700
 1.9320	58.8900
 1.9360	58.8800
 1.9400	58.9500
 1.9440	59.1000
 1.9480	59.3300
 1.9520	59.5300
 1.9560	59.8200
 1.9600	59.9600
 1.9640	60.2600
 1.9680	60.6400
 1.9720	60.9100
 1.9760	61.2500
 1.9800	61.6800
 1.9840	61.9800
 1.9880	62.4300
 1.9920	62.8100
 1.9960	63.1200
 2.0000	63.4500
 2.0040	63.8300
 2.0080	64.1200
 2.0120	64.4100
 2.0160	64.7000
 2.0200	65.1000
 2.0240	65.3000
 2.0280	65.5100
 2.0320	65.6800
 2.0360	65.8800
 2.0400	66.1600
 2.0440	66.2300
 2.0480	66.4500
 2.0520	66.6000
 2.0560	66.7400
 2.0600	66.8800
 2.0640	66.9800
 2.0680	67.1500
 2.0720	67.2000
 2.0760	67.3500
 2.0800	67.4600
 2.0840	67.4600
 2.0880	67.6300
 2.0920	67.6200
 2.0960	67.8000
 2.1000	67.8700
 2.1040	67.9100
 2.1080	68.0200
 2.1120	68.0700
 2.1160	68.0600
 2.1200	68.2200
 2.1240	68.1700
 2.1280	68.2300
 2.1320	68.2400
 2.1360	68.1300
 2.1400	68.1500
 2.1440	68.0000
 2.1480	67.9300
 2.1520	67.7400
 2.1560	67.6300
 2.1600	67.3000
 2.1640	67.1000
 2.1680	66.6600
 2.1720	66.2000
 2.1760	65.7800
 2.1800	65.3600
 2.1840	64.8600
 2.1880	64.6500
 2.1920	64.5100
 2.1960	64.5600
 2.2000	64.7600
 2.2040	64.9800
 2.2080	65.2900
 2.2120	65.6500
 2.2160	65.9800
 2.2200	66.2700
 2.2240	66.5100
 2.2280	66.5800
 2.2320	66.7100
 2.2360	66.6700
 2.2400	66.6200
 2.2440	66.6300
 2.2480	66.5700
 2.2520	66.5600
 2.2560	66.6500
 2.2600	66.4700
 2.2640	66.5000
 2.2680	66.4900
 2.2720	66.4300
 2.2760	66.4100
 2.2800	66.3400
 2.2840	66.1400
 2.2880	66.0500
 2.2920	65.7100
 2.2960	65.5300
 2.3000	65.2800
 2.3040	64.7900
 2.3080	64.5200
 2.3120	64.1100
 2.3160	63.7400
 2.3200	63.3600
 2.3240	62.8700
 2.3280	62.5100
 2.3320	62.1000
 2.3360	61.7500
 2.3400	61.4500
 2.3440	61.2500
 2.3480	61.1600
 2.3520	61.0300
 2.3560	61.1300
 2.3600	61.2500
 2.3640	61.3400
 2.3680	61.5500
 2.3720	61.8300
 2.3760	61.9200
 2.3800	62.1000
 2.3840	62.1600
 2.3880	62.2100
 2.3920	62.1400
 2.3960	62.1000
 2.4000	61.9700
 2.4040	61.8300
 2.4080	61.6400
 2.4120	61.3800
 2.4160	61.2000
 2.4200	60.9600
 2.4240	60.7900
 2.4280	60.6300
 2.4320	60.4400
 2.4360	60.2500
 2.4400	60.1200
 2.4440	59.9500
 2.4480	59.8200
 2.4520	59.7100
 2.4560	59.5600
 2.4600	59.4100
 2.4640	59.1600
 2.4680	59.1700
 2.4720	59.0800
 2.4760	59.0100
 2.4800	59.0300
 2.4840	59.0100
 2.4880	58.9900
 2.4920	58.9800
 2.4960	58.9200
 2.5000	58.9200
