Name: Magnesiochromite MgCr_2O_4
Type: Mineral
Class: Oxide
Subclass: None
Particle Size: Medium
Sample No.: O-8A
Owner: JPL
Wavelength Range: VSWIR
Origin: Canada, Quebec, Coleraine Township
Collection Date: N/A
Description: Particle size was 45-125um.Collected by Ward's Original ASTER Spectral Library name was jpl.beckman.mineral.oxide.none.medium.o08a.spectrum.txt
Measurement: Hemispherical reflectance
First Column: X
Second Column: Y
X Units: Wavelength (micrometers)
Y Units:Reflectance (percent)
First X Value:  0.4000
Last X Value:  2.5000
Number of X Values: 826
Additional Information: mineral.oxide.none.medium.vswir.o-8a.jpl.beckman.ancillary.txt

 0.4000	 5.4800
 0.4010	 5.4900
 0.4020	 5.5400
 0.4030	 5.3700
 0.4040	 5.3600
 0.4050	 5.5300
 0.4060	 5.4200
 0.4070	 5.4800
 0.4080	 5.4700
 0.4090	 5.3500
 0.4100	 5.4800
 0.4110	 5.4100
 0.4120	 5.4700
 0.4130	 5.4100
 0.4140	 5.4800
 0.4150	 5.4800
 0.4160	 5.3000
 0.4170	 5.4200
 0.4180	 5.5300
 0.4190	 5.4200
 0.4200	 5.4100
 0.4210	 5.3400
 0.4220	 5.4500
 0.4230	 5.3900
 0.4240	 5.4100
 0.4250	 5.4200
 0.4260	 5.2900
 0.4270	 5.3500
 0.4280	 5.3400
 0.4290	 5.4600
 0.4300	 5.4600
 0.4310	 5.3400
 0.4320	 5.2900
 0.4330	 5.3400
 0.4340	 5.4100
 0.4350	 5.3400
 0.4360	 5.3400
 0.4370	 5.3900
 0.4380	 5.5000
 0.4390	 5.5700
 0.4400	 5.4500
 0.4410	 5.3400
 0.4420	 5.3500
 0.4430	 5.4600
 0.4440	 5.4700
 0.4450	 5.4100
 0.4460	 5.3500
 0.4470	 5.3400
 0.4480	 5.4500
 0.4490	 5.4700
 0.4500	 5.4500
 0.4510	 5.3800
 0.4520	 5.4000
 0.4530	 5.5100
 0.4540	 5.5000
 0.4550	 5.4400
 0.4560	 5.3600
 0.4570	 5.4000
 0.4580	 5.4500
 0.4590	 5.5600
 0.4600	 5.3700
 0.4610	 5.4100
 0.4620	 5.4700
 0.4630	 5.4000
 0.4640	 5.4000
 0.4650	 5.4100
 0.4660	 5.3300
 0.4670	 5.3800
 0.4680	 5.3800
 0.4690	 5.3700
 0.4700	 5.3900
 0.4710	 5.3300
 0.4720	 5.3200
 0.4730	 5.3400
 0.4740	 5.3900
 0.4750	 5.3900
 0.4760	 5.3500
 0.4770	 5.3500
 0.4780	 5.3900
 0.4790	 5.3300
 0.4800	 5.3400
 0.4810	 5.3400
 0.4820	 5.3300
 0.4830	 5.4000
 0.4840	 5.2800
 0.4850	 5.3300
 0.4860	 5.3100
 0.4870	 5.3000
 0.4880	 5.3600
 0.4890	 5.2900
 0.4900	 5.3500
 0.4910	 5.3400
 0.4920	 5.3400
 0.4930	 5.3400
 0.4940	 5.3300
 0.4950	 5.4400
 0.4960	 5.3800
 0.4970	 5.3700
 0.4980	 5.3100
 0.4990	 5.3000
 0.5000	 5.3500
 0.5010	 5.2800
 0.5020	 5.4500
 0.5030	 5.4400
 0.5040	 5.3700
 0.5050	 5.3100
 0.5060	 5.2500
 0.5070	 5.4800
 0.5080	 5.3700
 0.5090	 5.3700
 0.5100	 5.3700
 0.5110	 5.2600
 0.5120	 5.3700
 0.5130	 5.3100
 0.5140	 5.3100
 0.5150	 5.3200
 0.5160	 5.2700
 0.5170	 5.3800
 0.5180	 5.2600
 0.5190	 5.2600
 0.5200	 5.3200
 0.5210	 5.3300
 0.5220	 5.3900
 0.5230	 5.2600
 0.5240	 5.2500
 0.5250	 5.3100
 0.5260	 5.3100
 0.5270	 5.3700
 0.5280	 5.3500
 0.5290	 5.2800
 0.5300	 5.2900
 0.5310	 5.3000
 0.5320	 5.1800
 0.5330	 5.1400
 0.5340	 5.1300
 0.5350	 5.0600
 0.5360	 5.0600
 0.5370	 5.0600
 0.5380	 5.0100
 0.5390	 5.0700
 0.5400	 5.0700
 0.5410	 5.0000
 0.5420	 5.0500
 0.5430	 5.0400
 0.5440	 5.0300
 0.5450	 5.0200
 0.5460	 5.0700
 0.5470	 5.0500
 0.5480	 4.9200
 0.5490	 4.9700
 0.5500	 5.0300
 0.5510	 5.0200
 0.5520	 5.0200
 0.5530	 4.9600
 0.5540	 4.9600
 0.5550	 4.9600
 0.5560	 4.9600
 0.5570	 5.0400
 0.5580	 4.9700
 0.5590	 4.9400
 0.5600	 5.0100
 0.5610	 5.1800
 0.5620	 4.9900
 0.5630	 5.0600
 0.5640	 5.0100
 0.5650	 5.0500
 0.5660	 5.1100
 0.5670	 4.9900
 0.5680	 4.9900
 0.5690	 5.0000
 0.5700	 5.0100
 0.5710	 5.0700
 0.5720	 4.9500
 0.5730	 5.0100
 0.5740	 5.0000
 0.5750	 4.9800
 0.5760	 5.0700
 0.5770	 4.9700
 0.5780	 5.0500
 0.5790	 5.0700
 0.5800	 5.2300
 0.5810	 5.3400
 0.5820	 5.2200
 0.5830	 5.3500
 0.5840	 5.3500
 0.5850	 5.3600
 0.5860	 5.3600
 0.5870	 5.2300
 0.5880	 5.2900
 0.5890	 5.2900
 0.5900	 5.3000
 0.5910	 5.3600
 0.5920	 5.1800
 0.5930	 5.2900
 0.5940	 5.2300
 0.5950	 5.3000
 0.5960	 5.3500
 0.5970	 5.2200
 0.5980	 5.2600
 0.5990	 5.2800
 0.6000	 5.3200
 0.6010	 5.4000
 0.6020	 5.2500
 0.6030	 5.3500
 0.6040	 5.3900
 0.6050	 5.3200
 0.6060	 5.3300
 0.6070	 5.1600
 0.6080	 5.3400
 0.6090	 5.4100
 0.6100	 5.2800
 0.6110	 5.3400
 0.6120	 5.2200
 0.6130	 5.3800
 0.6140	 5.3800
 0.6150	 5.3800
 0.6160	 5.3300
 0.6170	 5.2700
 0.6180	 5.4400
 0.6190	 5.4400
 0.6200	 5.3800
 0.6210	 5.3900
 0.6220	 5.2200
 0.6230	 5.3300
 0.6240	 5.3800
 0.6250	 5.3100
 0.6260	 5.3200
 0.6270	 5.2000
 0.6280	 5.3200
 0.6290	 5.2700
 0.6300	 5.3200
 0.6310	 5.3200
 0.6320	 5.2700
 0.6330	 5.3400
 0.6340	 5.4000
 0.6350	 5.3300
 0.6360	 5.3900
 0.6370	 5.3200
 0.6380	 5.3900
 0.6390	 5.3900
 0.6400	 5.3800
 0.6410	 5.3200
 0.6420	 5.2600
 0.6430	 5.3200
 0.6440	 5.3200
 0.6450	 5.3300
 0.6460	 5.2800
 0.6470	 5.2200
 0.6480	 5.3200
 0.6490	 5.3800
 0.6500	 5.4300
 0.6510	 5.3100
 0.6520	 5.2600
 0.6530	 5.3800
 0.6540	 5.3200
 0.6550	 5.4300
 0.6560	 5.3200
 0.6570	 5.1600
 0.6580	 5.3400
 0.6590	 5.3400
 0.6600	 5.3300
 0.6610	 5.3200
 0.6620	 5.1900
 0.6630	 5.3700
 0.6640	 5.3700
 0.6650	 5.3100
 0.6660	 5.3200
 0.6670	 5.1900
 0.6680	 5.2600
 0.6690	 5.2600
 0.6700	 5.2100
 0.6710	 5.2800
 0.6720	 5.0900
 0.6730	 5.2100
 0.6740	 5.2600
 0.6750	 5.2000
 0.6760	 5.2100
 0.6770	 5.1500
 0.6780	 5.2100
 0.6790	 5.2100
 0.6800	 5.2000
 0.6810	 5.2600
 0.6820	 5.1500
 0.6830	 5.2700
 0.6840	 5.2200
 0.6850	 5.1500
 0.6860	 5.2000
 0.6870	 5.0800
 0.6880	 5.1500
 0.6890	 5.2600
 0.6900	 5.2600
 0.6910	 5.2000
 0.6920	 5.0800
 0.6930	 5.2000
 0.6940	 5.2100
 0.6950	 5.2200
 0.6960	 5.2300
 0.6970	 5.1100
 0.6980	 5.2300
 0.6990	 5.2100
 0.7000	 5.1900
 0.7010	 5.1800
 0.7020	 5.2100
 0.7030	 5.2700
 0.7040	 5.2100
 0.7050	 5.2600
 0.7060	 5.2500
 0.7070	 5.2000
 0.7080	 5.2600
 0.7090	 5.2600
 0.7100	 5.3200
 0.7110	 5.3200
 0.7120	 5.2600
 0.7130	 5.2600
 0.7140	 5.2700
 0.7150	 5.3300
 0.7160	 5.3900
 0.7170	 5.2000
 0.7180	 5.2600
 0.7190	 5.2700
 0.7200	 5.3200
 0.7210	 5.3800
 0.7220	 5.2600
 0.7230	 5.3100
 0.7240	 5.2600
 0.7250	 5.2700
 0.7260	 5.3800
 0.7270	 5.2600
 0.7280	 5.3800
 0.7290	 5.3200
 0.7300	 5.3800
 0.7310	 5.3700
 0.7320	 5.3100
 0.7330	 5.3200
 0.7340	 5.3200
 0.7350	 5.3900
 0.7360	 5.4500
 0.7370	 5.3200
 0.7380	 5.3200
 0.7390	 5.3100
 0.7400	 5.3100
 0.7410	 5.4800
 0.7420	 5.3100
 0.7430	 5.3200
 0.7440	 5.3200
 0.7450	 5.3200
 0.7460	 5.4300
 0.7470	 5.3600
 0.7480	 5.3500
 0.7490	 5.2600
 0.7500	 5.3100
 0.7510	 5.4300
 0.7520	 5.3700
 0.7530	 5.3700
 0.7540	 5.3200
 0.7550	 5.4300
 0.7560	 5.3700
 0.7570	 5.3700
 0.7580	 5.3100
 0.7590	 5.3700
 0.7600	 5.4200
 0.7610	 5.4100
 0.7620	 5.3100
 0.7630	 5.2600
 0.7640	 5.3700
 0.7650	 5.4700
 0.7660	 5.4100
 0.7670	 5.4100
 0.7680	 5.3000
 0.7690	 5.3500
 0.7700	 5.4100
 0.7710	 5.3000
 0.7720	 5.3200
 0.7730	 5.3100
 0.7740	 5.3500
 0.7750	 5.4100
 0.7760	 5.3600
 0.7770	 5.3600
 0.7780	 5.4700
 0.7790	 5.5200
 0.7800	 5.5900
 0.7810	 5.4800
 0.7820	 5.4700
 0.7830	 5.4600
 0.7840	 5.5700
 0.7850	 5.5900
 0.7860	 5.5200
 0.7870	 5.4600
 0.7880	 5.4600
 0.7890	 5.5200
 0.7900	 5.6500
 0.7910	 5.5200
 0.7920	 5.4700
 0.7930	 5.4600
 0.7940	 5.5200
 0.7950	 5.6400
 0.7960	 5.5100
 0.7970	 5.5200
 0.7980	 5.4700
 0.7990	 5.4400
 0.8000	 5.4800
 0.8040	 5.5000
 0.8080	 5.4400
 0.8120	 5.4300
 0.8160	 5.4400
 0.8200	 5.4400
 0.8240	 5.5000
 0.8280	 5.4900
 0.8320	 5.4400
 0.8360	 5.4500
 0.8400	 5.4500
 0.8440	 5.4500
 0.8480	 5.4600
 0.8520	 5.4500
 0.8560	 5.4700
 0.8600	 5.4700
 0.8640	 5.5200
 0.8680	 5.4900
 0.8720	 5.5400
 0.8760	 5.5300
 0.8800	 5.5400
 0.8840	 5.4800
 0.8880	 5.5400
 0.8920	 5.5400
 0.8960	 5.6000
 0.9000	 5.5500
 0.9040	 5.5400
 0.9080	 5.4800
 0.9120	 5.6100
 0.9160	 5.5300
 0.9200	 5.5500
 0.9240	 5.5500
 0.9280	 5.5400
 0.9320	 5.5500
 0.9360	 5.5900
 0.9400	 5.6100
 0.9440	 5.5500
 0.9480	 5.5500
 0.9520	 5.5500
 0.9560	 5.5900
 0.9600	 5.6000
 0.9640	 5.5500
 0.9680	 5.6000
 0.9720	 5.6000
 0.9760	 5.6000
 0.9800	 5.5900
 0.9840	 5.5800
 0.9880	 5.6400
 0.9920	 5.6500
 0.9960	 5.6400
 1.0000	 5.7000
 1.0040	 5.7900
 1.0080	 5.7800
 1.0120	 5.7600
 1.0160	 5.7800
 1.0200	 5.8400
 1.0240	 5.9000
 1.0280	 5.8900
 1.0320	 5.9300
 1.0360	 6.0000
 1.0400	 6.0000
 1.0440	 6.0700
 1.0480	 6.1400
 1.0520	 6.1300
 1.0560	 6.1800
 1.0600	 6.1900
 1.0640	 6.2400
 1.0680	 6.2300
 1.0720	 6.2200
 1.0760	 6.3200
 1.0800	 6.3000
 1.0840	 6.3900
 1.0880	 6.4200
 1.0920	 6.4100
 1.0960	 6.4100
 1.1000	 6.4600
 1.1040	 6.4400
 1.1080	 6.5400
 1.1120	 6.4200
 1.1160	 6.5100
 1.1200	 6.4100
 1.1240	 6.4100
 1.1280	 6.3900
 1.1320	 6.3700
 1.1360	 6.3900
 1.1400	 6.4400
 1.1440	 6.3600
 1.1480	 6.3700
 1.1520	 6.4100
 1.1560	 6.4600
 1.1600	 6.4500
 1.1640	 6.4400
 1.1680	 6.4300
 1.1720	 6.5400
 1.1760	 6.5000
 1.1800	 6.5500
 1.1840	 6.5300
 1.1880	 6.5700
 1.1920	 6.5500
 1.1960	 6.4800
 1.2000	 6.4500
 1.2040	 6.5100
 1.2080	 6.4100
 1.2120	 6.3400
 1.2160	 6.4000
 1.2200	 6.4500
 1.2240	 6.4800
 1.2280	 6.5300
 1.2320	 6.5700
 1.2360	 6.6000
 1.2400	 6.6400
 1.2440	 6.6300
 1.2480	 6.6700
 1.2520	 6.6600
 1.2560	 6.6600
 1.2600	 6.6600
 1.2640	 6.6600
 1.2680	 6.6500
 1.2720	 6.6600
 1.2760	 6.6800
 1.2800	 6.6100
 1.2840	 6.7200
 1.2880	 6.6500
 1.2920	 6.7500
 1.2960	 6.8100
 1.3000	 6.8100
 1.3040	 6.9000
 1.3080	 6.9600
 1.3120	 7.0000
 1.3160	 6.9600
 1.3200	 7.0200
 1.3240	 7.1300
 1.3280	 7.1800
 1.3320	 7.1800
 1.3360	 7.2400
 1.3400	 7.3000
 1.3440	 7.2900
 1.3480	 7.3300
 1.3520	 7.3400
 1.3560	 7.3600
 1.3600	 7.3900
 1.3640	 7.4000
 1.3680	 7.4600
 1.3720	 7.4900
 1.3760	 7.5500
 1.3800	 7.5200
 1.3840	 7.5800
 1.3880	 7.6200
 1.3920	 7.7600
 1.3960	 7.8300
 1.4000	 7.8800
 1.4040	 7.9600
 1.4080	 7.9500
 1.4120	 8.0400
 1.4160	 7.9500
 1.4200	 8.0600
 1.4240	 7.9900
 1.4280	 8.0600
 1.4320	 7.9600
 1.4360	 8.0300
 1.4400	 8.0200
 1.4440	 7.9700
 1.4480	 8.0400
 1.4520	 8.0200
 1.4560	 8.1000
 1.4600	 8.0300
 1.4640	 8.0600
 1.4680	 8.0000
 1.4720	 7.9200
 1.4760	 7.9100
 1.4800	 7.8800
 1.4840	 7.8500
 1.4880	 7.7500
 1.4920	 7.6500
 1.4960	 7.6200
 1.5000	 7.5400
 1.5040	 7.5400
 1.5080	 7.3800
 1.5120	 7.3600
 1.5160	 7.2400
 1.5200	 7.1200
 1.5240	 7.0800
 1.5280	 6.9700
 1.5320	 6.8000
 1.5360	 6.7600
 1.5400	 6.6900
 1.5440	 6.5800
 1.5480	 6.4600
 1.5520	 6.3800
 1.5560	 6.3200
 1.5600	 6.2500
 1.5640	 6.1300
 1.5680	 6.1000
 1.5720	 6.0300
 1.5760	 5.9700
 1.5800	 5.9100
 1.5840	 5.8200
 1.5880	 5.7500
 1.5920	 5.6800
 1.5960	 5.6900
 1.6000	 5.5800
 1.6040	 5.5700
 1.6080	 5.5100
 1.6120	 5.4600
 1.6160	 5.3000
 1.6200	 5.3500
 1.6240	 5.3000
 1.6280	 5.1900
 1.6320	 5.2000
 1.6360	 5.1800
 1.6400	 5.1300
 1.6440	 5.0600
 1.6480	 5.0400
 1.6520	 4.9800
 1.6560	 4.9800
 1.6600	 4.9900
 1.6640	 4.9900
 1.6680	 4.8800
 1.6720	 4.8800
 1.6760	 4.7600
 1.6800	 4.8100
 1.6840	 4.7100
 1.6880	 4.7100
 1.6920	 4.7000
 1.6960	 4.6200
 1.7000	 4.6200
 1.7040	 4.5800
 1.7080	 4.5200
 1.7120	 4.4600
 1.7160	 4.4600
 1.7200	 4.4700
 1.7240	 4.4500
 1.7280	 4.4600
 1.7320	 4.4700
 1.7360	 4.3700
 1.7400	 4.3600
 1.7440	 4.3600
 1.7480	 4.4100
 1.7520	 4.3400
 1.7560	 4.3400
 1.7600	 4.3500
 1.7640	 4.3500
 1.7680	 4.3500
 1.7720	 4.3600
 1.7760	 4.3000
 1.7800	 4.2900
 1.7840	 4.3000
 1.7880	 4.3400
 1.7920	 4.3400
 1.7960	 4.3400
 1.8000	 4.3500
 1.8040	 4.3000
 1.8080	 4.2300
 1.8120	 4.2800
 1.8160	 4.2200
 1.8200	 4.2200
 1.8240	 4.2100
 1.8280	 4.2300
 1.8320	 4.1700
 1.8360	 4.1500
 1.8400	 4.1000
 1.8440	 4.0400
 1.8480	 4.0600
 1.8520	 4.0300
 1.8560	 4.0800
 1.8600	 4.0800
 1.8640	 4.0400
 1.8680	 4.0500
 1.8720	 4.0500
 1.8760	 4.0600
 1.8800	 4.0400
 1.8840	 4.0300
 1.8880	 4.0200
 1.8920	 4.1300
 1.8960	 4.1900
 1.9000	 4.0800
 1.9040	 4.0900
 1.9080	 4.0700
 1.9120	 4.0100
 1.9160	 3.9800
 1.9200	 3.9300
 1.9240	 3.9300
 1.9280	 3.9100
 1.9320	 3.9900
 1.9360	 4.0400
 1.9400	 4.0300
 1.9440	 4.0200
 1.9480	 4.0100
 1.9520	 4.0000
 1.9560	 3.9900
 1.9600	 3.9300
 1.9640	 3.9100
 1.9680	 3.9000
 1.9720	 3.9400
 1.9760	 3.9300
 1.9800	 3.9200
 1.9840	 3.9200
 1.9880	 3.8600
 1.9920	 3.9800
 1.9960	 3.9700
 2.0000	 4.0700
 2.0040	 4.0000
 2.0080	 4.0600
 2.0120	 4.0600
 2.0160	 4.0500
 2.0200	 4.0000
 2.0240	 4.0000
 2.0280	 3.9300
 2.0320	 3.9400
 2.0360	 3.9300
 2.0400	 3.9200
 2.0440	 3.9200
 2.0480	 3.9100
 2.0520	 3.9700
 2.0560	 3.9800
 2.0600	 3.9900
 2.0640	 3.9900
 2.0680	 4.0000
 2.0720	 4.0500
 2.0760	 4.0600
 2.0800	 4.0400
 2.0840	 4.0300
 2.0880	 4.0300
 2.0920	 4.0300
 2.0960	 3.9900
 2.1000	 3.9700
 2.1040	 3.9900
 2.1080	 3.9500
 2.1120	 3.9100
 2.1160	 3.9200
 2.1200	 3.8800
 2.1240	 3.9600
 2.1280	 3.9500
 2.1320	 3.9500
 2.1360	 3.9500
 2.1400	 3.8900
 2.1440	 3.9500
 2.1480	 3.9700
 2.1520	 3.9500
 2.1560	 3.9900
 2.1600	 3.9600
 2.1640	 3.9200
 2.1680	 3.9700
 2.1720	 3.9600
 2.1760	 3.9100
 2.1800	 3.9600
 2.1840	 3.9200
 2.1880	 3.9400
 2.1920	 3.9400
 2.1960	 3.9300
 2.2000	 3.8800
 2.2040	 3.9200
 2.2080	 3.8700
 2.2120	 3.9300
 2.2160	 3.8800
 2.2200	 3.8700
 2.2240	 3.9400
 2.2280	 3.8800
 2.2320	 3.8300
 2.2360	 3.8400
 2.2400	 3.8300
 2.2440	 3.8200
 2.2480	 3.8700
 2.2520	 3.9300
 2.2560	 3.8800
 2.2600	 3.8700
 2.2640	 3.8600
 2.2680	 3.8200
 2.2720	 3.8200
 2.2760	 3.8000
 2.2800	 3.8100
 2.2840	 3.7500
 2.2880	 3.8000
 2.2920	 3.7900
 2.2960	 3.7700
 2.3000	 3.8200
 2.3040	 3.8200
 2.3080	 3.8100
 2.3120	 3.8200
 2.3160	 3.8100
 2.3200	 3.7500
 2.3240	 3.8700
 2.3280	 3.8100
 2.3320	 3.7900
 2.3360	 3.8300
 2.3400	 3.8400
 2.3440	 3.9200
 2.3480	 3.9100
 2.3520	 3.8400
 2.3560	 3.9000
 2.3600	 3.8800
 2.3640	 3.9200
 2.3680	 3.9300
 2.3720	 3.9400
 2.3760	 4.0000
 2.3800	 3.9900
 2.3840	 3.9300
 2.3880	 3.9900
 2.3920	 3.9800
 2.3960	 3.9700
 2.4000	 3.9800
 2.4040	 3.9800
 2.4080	 4.0800
 2.4120	 4.0300
 2.4160	 3.9800
 2.4200	 3.9700
 2.4240	 3.9700
 2.4280	 3.9700
 2.4320	 3.9600
 2.4360	 4.0300
 2.4400	 3.9800
 2.4440	 3.9600
 2.4480	 3.9100
 2.4520	 3.9700
 2.4560	 3.9600
 2.4600	 3.9700
 2.4640	 3.9700
 2.4680	 3.9600
 2.4720	 3.9100
 2.4760	 3.9100
 2.4800	 3.9600
 2.4840	 3.9600
 2.4880	 3.8600
 2.4920	 3.8500
 2.4960	 3.9000
 2.5000	 3.9600
