Name: Anglesite PbSO_4
Type: Mineral
Class: Sulfate
Subclass: None
Particle Size: Coarse
Sample No.: SO-10A
Owner: JPL
Wavelength Range: VSWIR
Origin: USA, Arizona, Santa Cruz County, Glove Mine.
Collection Date: N/A
Description: Particle size was 125-500um. Collected by:  JPL Original ASTER Spectral Library name was jpl.perkin.mineral.sulfate.none.coarse.so10a.spectrum.txt
Measurement: Hemispherical reflectance
First Column: X
Second Column: Y
X Units: Wavelength (micrometers)
Y Units:Reflectance (percent)
First X Value:  2.5000
Last X Value:  0.4000
Number of X Values: 2101
Additional Information: mineral.sulfate.none.coarse.vswir.so-10a.jpl.perkin.ancillary.txt

 2.5000	33.2519
 2.4990	32.9541
 2.4980	33.1442
 2.4970	33.1868
 2.4960	32.8915
 2.4950	33.1766
 2.4940	33.0990
 2.4930	33.0024
 2.4920	33.0717
 2.4910	33.1126
 2.4900	33.1847
 2.4890	33.0168
 2.4880	33.0915
 2.4870	33.0197
 2.4860	33.1202
 2.4850	32.9953
 2.4840	33.2107
 2.4830	33.1443
 2.4820	33.0451
 2.4810	32.9847
 2.4800	33.1446
 2.4790	33.0127
 2.4780	33.0287
 2.4770	33.0017
 2.4760	33.1528
 2.4750	33.0949
 2.4740	33.1025
 2.4730	32.9995
 2.4720	33.0460
 2.4710	32.9854
 2.4700	33.0433
 2.4690	32.8561
 2.4680	32.9638
 2.4670	32.9115
 2.4660	32.9900
 2.4650	33.0026
 2.4640	33.1271
 2.4630	32.9481
 2.4620	33.0622
 2.4610	33.0999
 2.4600	33.1268
 2.4590	33.0714
 2.4580	33.0710
 2.4570	32.9778
 2.4560	33.1071
 2.4550	33.0981
 2.4540	33.0421
 2.4530	33.0338
 2.4520	33.1450
 2.4510	32.9693
 2.4500	33.0840
 2.4490	32.9377
 2.4480	33.0321
 2.4470	33.1217
 2.4460	33.0953
 2.4450	33.0507
 2.4440	33.0693
 2.4430	33.0317
 2.4420	33.1388
 2.4410	33.1598
 2.4400	33.1801
 2.4390	33.1387
 2.4380	33.1719
 2.4370	33.0661
 2.4360	33.1780
 2.4350	33.1803
 2.4340	33.1964
 2.4330	33.0464
 2.4320	33.1375
 2.4310	33.0845
 2.4300	33.0951
 2.4290	33.1674
 2.4280	33.2366
 2.4270	33.0861
 2.4260	33.1544
 2.4250	33.1321
 2.4240	33.2588
 2.4230	33.2076
 2.4220	33.2166
 2.4210	33.1923
 2.4200	33.1898
 2.4190	33.1945
 2.4180	33.1623
 2.4170	33.1370
 2.4160	33.2429
 2.4150	33.2141
 2.4140	33.2297
 2.4130	33.1966
 2.4120	33.2467
 2.4110	33.2985
 2.4100	33.3074
 2.4090	33.2179
 2.4080	33.2427
 2.4070	33.2688
 2.4060	33.3259
 2.4050	33.3217
 2.4040	33.3257
 2.4030	33.3214
 2.4020	33.3436
 2.4010	33.3280
 2.4000	33.2918
 2.3990	33.2932
 2.3980	33.3229
 2.3970	33.2339
 2.3960	33.2902
 2.3950	33.2968
 2.3940	33.3205
 2.3930	33.3450
 2.3920	33.3309
 2.3910	33.4090
 2.3900	33.3910
 2.3890	33.3756
 2.3880	33.4216
 2.3870	33.3322
 2.3860	33.4173
 2.3850	33.3999
 2.3840	33.3320
 2.3830	33.3256
 2.3820	33.4334
 2.3810	33.4426
 2.3800	33.4555
 2.3790	33.4286
 2.3780	33.4750
 2.3770	33.4248
 2.3760	33.4094
 2.3750	33.4345
 2.3740	33.4142
 2.3730	33.4311
 2.3720	33.4490
 2.3710	33.4357
 2.3700	33.4768
 2.3690	33.4905
 2.3680	33.5406
 2.3670	33.5163
 2.3660	33.4751
 2.3650	33.4922
 2.3640	33.5598
 2.3630	33.5979
 2.3620	33.5539
 2.3610	33.5364
 2.3600	33.5709
 2.3590	33.5666
 2.3580	33.5859
 2.3570	33.6444
 2.3560	33.5923
 2.3550	33.5069
 2.3540	33.5678
 2.3530	33.6550
 2.3520	33.5871
 2.3510	33.5564
 2.3500	33.6049
 2.3490	33.6051
 2.3480	33.5926
 2.3470	33.6101
 2.3460	33.6037
 2.3450	33.6454
 2.3440	33.6294
 2.3430	33.6046
 2.3420	33.5898
 2.3410	33.6022
 2.3400	33.5800
 2.3390	33.6003
 2.3380	33.6040
 2.3370	33.6135
 2.3360	33.6187
 2.3350	33.6063
 2.3340	33.5686
 2.3330	33.6208
 2.3320	33.6339
 2.3310	33.6576
 2.3300	33.6310
 2.3290	33.5821
 2.3280	33.5345
 2.3270	33.5358
 2.3260	33.5870
 2.3250	33.6039
 2.3240	33.5306
 2.3230	33.5316
 2.3220	33.5576
 2.3210	33.5591
 2.3200	33.5457
 2.3190	33.5436
 2.3180	33.5676
 2.3170	33.6379
 2.3160	33.5644
 2.3150	33.5883
 2.3140	33.5722
 2.3130	33.5806
 2.3120	33.5972
 2.3110	33.5986
 2.3100	33.5095
 2.3090	33.5298
 2.3080	33.5236
 2.3070	33.5821
 2.3060	33.5037
 2.3050	33.5436
 2.3040	33.5213
 2.3030	33.5186
 2.3020	33.4753
 2.3010	33.5342
 2.3000	33.4779
 2.2990	33.5582
 2.2980	33.5123
 2.2970	33.5136
 2.2960	33.4839
 2.2950	33.5053
 2.2940	33.5159
 2.2930	33.5224
 2.2920	33.4890
 2.2910	33.5185
 2.2900	33.5110
 2.2890	33.5037
 2.2880	33.4675
 2.2870	33.4278
 2.2860	33.4364
 2.2850	33.4649
 2.2840	33.4293
 2.2830	33.4780
 2.2820	33.4762
 2.2810	33.4633
 2.2800	33.4032
 2.2790	33.5251
 2.2780	33.4167
 2.2770	33.5289
 2.2760	33.4451
 2.2750	33.4838
 2.2740	33.4638
 2.2730	33.4655
 2.2720	33.4012
 2.2710	33.4410
 2.2700	33.3964
 2.2690	33.4845
 2.2680	33.4408
 2.2670	33.4579
 2.2660	33.3923
 2.2650	33.4736
 2.2640	33.3810
 2.2630	33.4358
 2.2620	33.4033
 2.2610	33.4263
 2.2600	33.4348
 2.2590	33.3839
 2.2580	33.3617
 2.2570	33.4514
 2.2560	33.3462
 2.2550	33.4294
 2.2540	33.3553
 2.2530	33.4241
 2.2520	33.3604
 2.2510	33.3492
 2.2500	33.4929
 2.2490	33.3966
 2.2480	33.3624
 2.2470	33.4411
 2.2460	33.4448
 2.2450	33.4040
 2.2440	33.4139
 2.2430	33.3957
 2.2420	33.3357
 2.2410	33.4091
 2.2400	33.4357
 2.2390	33.4530
 2.2380	33.3680
 2.2370	33.4521
 2.2360	33.4268
 2.2350	33.4285
 2.2340	33.5195
 2.2330	33.4756
 2.2320	33.4325
 2.2310	33.4682
 2.2300	33.4100
 2.2290	33.5035
 2.2280	33.4444
 2.2270	33.5013
 2.2260	33.3657
 2.2250	33.5069
 2.2240	33.4321
 2.2230	33.5076
 2.2220	33.4172
 2.2210	33.5008
 2.2200	33.4497
 2.2190	33.4997
 2.2180	33.4976
 2.2170	33.5264
 2.2160	33.4878
 2.2150	33.4900
 2.2140	33.5450
 2.2130	33.4401
 2.2120	33.6163
 2.2110	33.4380
 2.2100	33.6257
 2.2090	33.5916
 2.2080	33.5673
 2.2070	33.5574
 2.2060	33.5751
 2.2050	33.5873
 2.2040	33.5567
 2.2030	33.6921
 2.2020	33.4936
 2.2010	33.6335
 2.2000	33.6510
 2.1990	33.6083
 2.1980	33.4977
 2.1970	33.5967
 2.1960	33.5545
 2.1950	33.6346
 2.1940	33.5977
 2.1930	33.7148
 2.1920	33.6218
 2.1910	33.6371
 2.1900	33.6363
 2.1890	33.6659
 2.1880	33.6010
 2.1870	33.6709
 2.1860	33.6086
 2.1850	33.6514
 2.1840	33.6837
 2.1830	33.6833
 2.1820	33.5984
 2.1810	33.6983
 2.1800	33.6337
 2.1790	33.7195
 2.1780	33.6850
 2.1770	33.7346
 2.1760	33.7572
 2.1750	33.7661
 2.1740	33.7374
 2.1730	33.7731
 2.1720	33.6871
 2.1710	33.7551
 2.1700	33.7024
 2.1690	33.8361
 2.1680	33.7983
 2.1670	33.7996
 2.1660	33.7509
 2.1650	33.8366
 2.1640	33.8078
 2.1630	33.8405
 2.1620	33.7948
 2.1610	33.8184
 2.1600	33.8415
 2.1590	33.9187
 2.1580	33.8330
 2.1570	33.9281
 2.1560	33.8776
 2.1550	33.8836
 2.1540	33.8671
 2.1530	33.8736
 2.1520	33.8351
 2.1510	33.8429
 2.1500	33.8554
 2.1490	33.8694
 2.1480	33.8712
 2.1470	33.9058
 2.1460	33.8388
 2.1450	33.9010
 2.1440	33.8544
 2.1430	33.9059
 2.1420	33.8882
 2.1410	33.9282
 2.1400	33.8134
 2.1390	33.8695
 2.1380	33.8387
 2.1370	33.8517
 2.1360	33.8136
 2.1350	33.8169
 2.1340	33.7685
 2.1330	33.8218
 2.1320	33.7650
 2.1310	33.8261
 2.1300	33.7870
 2.1290	33.7988
 2.1280	33.7686
 2.1270	33.7566
 2.1260	33.7447
 2.1250	33.6940
 2.1240	33.6659
 2.1230	33.6615
 2.1220	33.6368
 2.1210	33.6181
 2.1200	33.6398
 2.1190	33.6706
 2.1180	33.6019
 2.1170	33.5639
 2.1160	33.5399
 2.1150	33.5230
 2.1140	33.4517
 2.1130	33.4158
 2.1120	33.4329
 2.1110	33.4632
 2.1100	33.3674
 2.1090	33.3609
 2.1080	33.3414
 2.1070	33.3184
 2.1060	33.2847
 2.1050	33.3161
 2.1040	33.2848
 2.1030	33.2635
 2.1020	33.2521
 2.1010	33.2192
 2.1000	33.1805
 2.0990	33.2352
 2.0980	33.2605
 2.0970	33.2434
 2.0960	33.1826
 2.0950	33.1839
 2.0940	33.2202
 2.0930	33.2447
 2.0920	33.2257
 2.0910	33.2082
 2.0900	33.1632
 2.0890	33.2022
 2.0880	33.2680
 2.0870	33.2628
 2.0860	33.2061
 2.0850	33.2204
 2.0840	33.2608
 2.0830	33.2761
 2.0820	33.2611
 2.0810	33.2801
 2.0800	33.2471
 2.0790	33.2603
 2.0780	33.3157
 2.0770	33.3493
 2.0760	33.3386
 2.0750	33.2799
 2.0740	33.3051
 2.0730	33.3176
 2.0720	33.2708
 2.0710	33.3130
 2.0700	33.3531
 2.0690	33.3306
 2.0680	33.3362
 2.0670	33.3357
 2.0660	33.3175
 2.0650	33.3377
 2.0640	33.3497
 2.0630	33.3379
 2.0620	33.3500
 2.0610	33.3550
 2.0600	33.3610
 2.0590	33.3907
 2.0580	33.3596
 2.0570	33.3644
 2.0560	33.4092
 2.0550	33.4070
 2.0540	33.3830
 2.0530	33.3901
 2.0520	33.3910
 2.0510	33.3770
 2.0500	33.3581
 2.0490	33.3747
 2.0480	33.3977
 2.0470	33.3715
 2.0460	33.3846
 2.0450	33.3926
 2.0440	33.3727
 2.0430	33.3673
 2.0420	33.3906
 2.0410	33.4620
 2.0400	33.4293
 2.0390	33.4116
 2.0380	33.4216
 2.0370	33.3674
 2.0360	33.3641
 2.0350	33.3681
 2.0340	33.3623
 2.0330	33.4026
 2.0320	33.4407
 2.0310	33.4269
 2.0300	33.4264
 2.0290	33.3920
 2.0280	33.4192
 2.0270	33.3721
 2.0260	33.4499
 2.0250	33.3964
 2.0240	33.4359
 2.0230	33.3848
 2.0220	33.3496
 2.0210	33.4171
 2.0200	33.4351
 2.0190	33.3434
 2.0180	33.3681
 2.0170	33.3528
 2.0160	33.3684
 2.0150	33.3826
 2.0140	33.3445
 2.0130	33.3477
 2.0120	33.3819
 2.0110	33.3789
 2.0100	33.3396
 2.0090	33.3593
 2.0080	33.3910
 2.0070	33.3037
 2.0060	33.3618
 2.0050	33.3214
 2.0040	33.4227
 2.0030	33.2928
 2.0020	33.3378
 2.0010	33.3677
 2.0000	33.4024
 1.9990	33.3541
 1.9980	33.3860
 1.9970	33.3141
 1.9960	33.3471
 1.9950	33.3110
 1.9940	33.3691
 1.9930	33.2534
 1.9920	33.2603
 1.9910	33.2095
 1.9900	33.2794
 1.9890	33.2334
 1.9880	33.2408
 1.9870	33.1915
 1.9860	33.2278
 1.9850	33.1988
 1.9840	33.2438
 1.9830	33.2104
 1.9820	33.1800
 1.9810	33.1604
 1.9800	33.1568
 1.9790	33.0971
 1.9780	33.1249
 1.9770	33.1249
 1.9760	33.1327
 1.9750	33.1661
 1.9740	33.0950
 1.9730	33.0567
 1.9720	33.1556
 1.9710	33.0112
 1.9700	33.0608
 1.9690	33.1012
 1.9680	33.0942
 1.9670	32.9681
 1.9660	33.0628
 1.9650	33.0012
 1.9640	33.0555
 1.9630	33.0193
 1.9620	32.9642
 1.9610	32.9464
 1.9600	32.9593
 1.9590	32.9780
 1.9580	32.9910
 1.9570	32.9965
 1.9560	33.0202
 1.9550	32.9681
 1.9540	32.9521
 1.9530	32.9423
 1.9520	33.0548
 1.9510	32.9481
 1.9500	32.9834
 1.9490	32.8827
 1.9480	32.9702
 1.9470	32.8671
 1.9460	32.9810
 1.9450	32.8012
 1.9440	32.9788
 1.9430	32.8597
 1.9420	33.0089
 1.9410	32.8426
 1.9400	32.9343
 1.9390	32.7764
 1.9380	32.9312
 1.9370	32.9248
 1.9360	32.9725
 1.9350	32.9253
 1.9340	32.9370
 1.9330	32.8336
 1.9320	33.0056
 1.9310	32.7996
 1.9300	32.9652
 1.9290	32.9493
 1.9280	32.9938
 1.9270	32.9927
 1.9260	32.9281
 1.9250	32.9203
 1.9240	32.9032
 1.9230	32.9451
 1.9220	33.0247
 1.9210	32.8861
 1.9200	32.9301
 1.9190	32.9250
 1.9180	33.0137
 1.9170	32.9527
 1.9160	33.0528
 1.9150	33.0497
 1.9140	33.0043
 1.9130	33.0785
 1.9120	33.0946
 1.9110	32.9831
 1.9100	33.0848
 1.9090	33.0736
 1.9080	33.1370
 1.9070	33.1353
 1.9060	33.1822
 1.9050	33.1353
 1.9040	33.1435
 1.9030	33.1522
 1.9020	33.1938
 1.9010	33.1513
 1.9000	33.2443
 1.8990	33.2419
 1.8980	33.2794
 1.8970	33.2349
 1.8960	33.3249
 1.8950	33.2445
 1.8940	33.3386
 1.8930	33.2711
 1.8920	33.4177
 1.8910	33.3200
 1.8900	33.3996
 1.8890	33.3249
 1.8880	33.4796
 1.8870	33.4142
 1.8860	33.4662
 1.8850	33.4513
 1.8840	33.4773
 1.8830	33.4542
 1.8820	33.5361
 1.8810	33.4918
 1.8800	33.5394
 1.8790	33.4695
 1.8780	33.5307
 1.8770	33.5047
 1.8760	33.5688
 1.8750	33.4792
 1.8740	33.5080
 1.8730	33.4860
 1.8720	33.4365
 1.8710	33.4548
 1.8700	33.5183
 1.8690	33.4817
 1.8680	33.5897
 1.8670	33.5272
 1.8660	33.5718
 1.8650	33.6213
 1.8640	33.6421
 1.8630	33.6220
 1.8620	33.6554
 1.8610	33.6244
 1.8600	33.6733
 1.8590	33.5881
 1.8580	33.6201
 1.8570	33.5446
 1.8560	33.6309
 1.8550	33.6021
 1.8540	33.6355
 1.8530	33.6523
 1.8520	33.6668
 1.8510	33.6372
 1.8500	33.6531
 1.8490	33.6382
 1.8480	33.6495
 1.8470	33.6063
 1.8460	33.5686
 1.8450	33.6572
 1.8440	33.7480
 1.8430	33.6943
 1.8420	33.6737
 1.8410	33.6840
 1.8400	33.6827
 1.8390	33.5871
 1.8380	33.6447
 1.8370	33.6239
 1.8360	33.6887
 1.8350	33.6169
 1.8340	33.6936
 1.8330	33.6940
 1.8320	33.7269
 1.8310	33.6955
 1.8300	33.6920
 1.8290	33.6259
 1.8280	33.6407
 1.8270	33.6991
 1.8260	33.7523
 1.8250	33.7784
 1.8240	33.7969
 1.8230	33.7001
 1.8220	33.7018
 1.8210	33.7409
 1.8200	33.7582
 1.8190	33.7297
 1.8180	33.6990
 1.8170	33.7019
 1.8160	33.7389
 1.8150	33.7799
 1.8140	33.8112
 1.8130	33.7954
 1.8120	33.7975
 1.8110	33.7150
 1.8100	33.7440
 1.8090	33.7483
 1.8080	33.7298
 1.8070	33.7390
 1.8060	33.7537
 1.8050	33.7760
 1.8040	33.7858
 1.8030	33.7428
 1.8020	33.7675
 1.8010	33.8284
 1.8000	33.8179
 1.7990	33.7576
 1.7980	33.8032
 1.7970	33.8023
 1.7960	33.7490
 1.7950	33.7240
 1.7940	33.7871
 1.7930	33.8091
 1.7920	33.7439
 1.7910	33.7123
 1.7900	33.7058
 1.7890	33.7570
 1.7880	33.7701
 1.7870	33.7361
 1.7860	33.7429
 1.7850	33.7504
 1.7840	33.7329
 1.7830	33.7015
 1.7820	33.7025
 1.7810	33.7155
 1.7800	33.6916
 1.7790	33.7121
 1.7780	33.7416
 1.7770	33.7161
 1.7760	33.6747
 1.7750	33.7045
 1.7740	33.7354
 1.7730	33.6769
 1.7720	33.6896
 1.7710	33.7318
 1.7700	33.6749
 1.7690	33.7284
 1.7680	33.7113
 1.7670	33.6967
 1.7660	33.7073
 1.7650	33.6926
 1.7640	33.6512
 1.7630	33.6801
 1.7620	33.6974
 1.7610	33.7160
 1.7600	33.6977
 1.7590	33.6903
 1.7580	33.7433
 1.7570	33.7387
 1.7560	33.7000
 1.7550	33.7563
 1.7540	33.7654
 1.7530	33.7027
 1.7520	33.6770
 1.7510	33.7310
 1.7500	33.7095
 1.7490	33.7419
 1.7480	33.6638
 1.7470	33.7334
 1.7460	33.7287
 1.7450	33.7483
 1.7440	33.6966
 1.7430	33.6696
 1.7420	33.6986
 1.7410	33.7432
 1.7400	33.6766
 1.7390	33.7322
 1.7380	33.6450
 1.7370	33.7321
 1.7360	33.7427
 1.7350	33.7253
 1.7340	33.7500
 1.7330	33.7701
 1.7320	33.7396
 1.7310	33.7598
 1.7300	33.6930
 1.7290	33.7064
 1.7280	33.7205
 1.7270	33.7246
 1.7260	33.7444
 1.7250	33.7206
 1.7240	33.6783
 1.7230	33.7562
 1.7220	33.7570
 1.7210	33.7279
 1.7200	33.7047
 1.7190	33.7456
 1.7180	33.7400
 1.7170	33.7841
 1.7160	33.7740
 1.7150	33.7619
 1.7140	33.7315
 1.7130	33.7608
 1.7120	33.6893
 1.7110	33.7321
 1.7100	33.7030
 1.7090	33.7245
 1.7080	33.7160
 1.7070	33.8068
 1.7060	33.7090
 1.7050	33.7646
 1.7040	33.7619
 1.7030	33.7905
 1.7020	33.7008
 1.7010	33.8136
 1.7000	33.7379
 1.6990	33.7702
 1.6980	33.7030
 1.6970	33.7651
 1.6960	33.7977
 1.6950	33.7951
 1.6940	33.7461
 1.6930	33.7438
 1.6920	33.7148
 1.6910	33.8157
 1.6900	33.7739
 1.6890	33.7780
 1.6880	33.7733
 1.6870	33.7210
 1.6860	33.7257
 1.6850	33.7992
 1.6840	33.7931
 1.6830	33.8298
 1.6820	33.7202
 1.6810	33.8848
 1.6800	33.7427
 1.6790	33.7986
 1.6780	33.8100
 1.6770	33.8000
 1.6760	33.7266
 1.6750	33.8136
 1.6740	33.8249
 1.6730	33.8593
 1.6720	33.8287
 1.6710	33.7848
 1.6700	33.7888
 1.6690	33.9017
 1.6680	33.7136
 1.6670	33.8425
 1.6660	33.8392
 1.6650	33.9030
 1.6640	33.8890
 1.6630	33.8882
 1.6620	33.8820
 1.6610	33.8408
 1.6600	33.8719
 1.6590	33.8842
 1.6580	33.7253
 1.6570	33.8383
 1.6560	33.8740
 1.6550	33.8882
 1.6540	33.8679
 1.6530	33.9542
 1.6520	33.8179
 1.6510	33.8156
 1.6500	33.8356
 1.6490	33.9116
 1.6480	33.7887
 1.6470	33.8512
 1.6460	33.8453
 1.6450	33.9496
 1.6440	33.8503
 1.6430	33.9581
 1.6420	33.8375
 1.6410	33.8053
 1.6400	33.9248
 1.6390	33.9026
 1.6380	33.8667
 1.6370	33.9260
 1.6360	33.8418
 1.6350	33.9246
 1.6340	33.8335
 1.6330	33.9056
 1.6320	33.7990
 1.6310	33.9089
 1.6300	33.7866
 1.6290	33.9318
 1.6280	33.8712
 1.6270	33.8744
 1.6260	33.8261
 1.6250	33.9263
 1.6240	33.8165
 1.6230	33.8578
 1.6220	33.7630
 1.6210	33.8797
 1.6200	33.9136
 1.6190	33.9146
 1.6180	33.8730
 1.6170	33.9413
 1.6160	33.8146
 1.6150	33.9082
 1.6140	33.8440
 1.6130	33.8724
 1.6120	33.8960
 1.6110	33.8900
 1.6100	33.8976
 1.6090	33.9860
 1.6080	33.8933
 1.6070	33.9207
 1.6060	33.8702
 1.6050	33.9584
 1.6040	33.8422
 1.6030	33.8802
 1.6020	33.9001
 1.6010	33.8980
 1.6000	33.8826
 1.5990	33.9475
 1.5980	33.9131
 1.5970	33.8744
 1.5960	33.9415
 1.5950	33.8946
 1.5940	33.8635
 1.5930	33.9536
 1.5920	33.8506
 1.5910	33.8376
 1.5900	33.8560
 1.5890	33.8814
 1.5880	33.8592
 1.5870	33.9000
 1.5860	33.8571
 1.5850	33.9035
 1.5840	33.8771
 1.5830	33.9547
 1.5820	33.8512
 1.5810	33.8805
 1.5800	33.8959
 1.5790	33.8967
 1.5780	33.8907
 1.5770	33.9855
 1.5760	33.9181
 1.5750	33.8751
 1.5740	33.7880
 1.5730	33.8661
 1.5720	33.8706
 1.5710	33.8827
 1.5700	33.8661
 1.5690	33.8919
 1.5680	33.8661
 1.5670	33.9294
 1.5660	33.8513
 1.5650	33.8499
 1.5640	33.8341
 1.5630	33.8359
 1.5620	33.8206
 1.5610	33.8915
 1.5600	33.8928
 1.5590	33.8698
 1.5580	33.8025
 1.5570	33.8712
 1.5560	33.8511
 1.5550	33.8963
 1.5540	33.8916
 1.5530	33.9024
 1.5520	33.8228
 1.5510	33.8551
 1.5500	33.8150
 1.5490	33.8297
 1.5480	33.8079
 1.5470	33.8264
 1.5460	33.8750
 1.5450	33.9170
 1.5440	33.8773
 1.5430	33.8906
 1.5420	33.8580
 1.5410	33.8627
 1.5400	33.8351
 1.5390	33.8421
 1.5380	33.8255
 1.5370	33.8824
 1.5360	33.8277
 1.5350	33.8544
 1.5340	33.8446
 1.5330	33.8687
 1.5320	33.8475
 1.5310	33.8395
 1.5300	33.8040
 1.5290	33.8530
 1.5280	33.8432
 1.5270	33.8103
 1.5260	33.8346
 1.5250	33.8100
 1.5240	33.8016
 1.5230	33.8126
 1.5220	33.8282
 1.5210	33.7983
 1.5200	33.7763
 1.5190	33.8285
 1.5180	33.7776
 1.5170	33.7815
 1.5160	33.8070
 1.5150	33.8293
 1.5140	33.8199
 1.5130	33.8013
 1.5120	33.7968
 1.5110	33.8393
 1.5100	33.8454
 1.5090	33.8361
 1.5080	33.8215
 1.5070	33.7976
 1.5060	33.8010
 1.5050	33.8099
 1.5040	33.8262
 1.5030	33.8215
 1.5020	33.8201
 1.5010	33.8072
 1.5000	33.7764
 1.4990	33.7854
 1.4980	33.8025
 1.4970	33.7707
 1.4960	33.7805
 1.4950	33.7936
 1.4940	33.8042
 1.4930	33.8351
 1.4920	33.8322
 1.4910	33.7781
 1.4900	33.7657
 1.4890	33.7841
 1.4880	33.7700
 1.4870	33.7604
 1.4860	33.7725
 1.4850	33.7844
 1.4840	33.7799
 1.4830	33.7826
 1.4820	33.7969
 1.4810	33.7709
 1.4800	33.7545
 1.4790	33.7303
 1.4780	33.7253
 1.4770	33.7572
 1.4760	33.7498
 1.4750	33.7181
 1.4740	33.7270
 1.4730	33.7071
 1.4720	33.7251
 1.4710	33.7378
 1.4700	33.7434
 1.4690	33.7156
 1.4680	33.7720
 1.4670	33.7235
 1.4660	33.7320
 1.4650	33.7177
 1.4640	33.7341
 1.4630	33.7923
 1.4620	33.7860
 1.4610	33.6854
 1.4600	33.7399
 1.4590	33.6583
 1.4580	33.7188
 1.4570	33.7249
 1.4560	33.7460
 1.4550	33.7367
 1.4540	33.7352
 1.4530	33.7630
 1.4520	33.7902
 1.4510	33.7363
 1.4500	33.7319
 1.4490	33.6980
 1.4480	33.7339
 1.4470	33.6822
 1.4460	33.6870
 1.4450	33.7065
 1.4440	33.7293
 1.4430	33.7249
 1.4420	33.7540
 1.4410	33.6712
 1.4400	33.7451
 1.4390	33.7463
 1.4380	33.7466
 1.4370	33.6834
 1.4360	33.6990
 1.4350	33.6501
 1.4340	33.6593
 1.4330	33.7062
 1.4320	33.7032
 1.4310	33.7180
 1.4300	33.7649
 1.4290	33.6992
 1.4280	33.7363
 1.4270	33.7401
 1.4260	33.7313
 1.4250	33.6917
 1.4240	33.6967
 1.4230	33.6558
 1.4220	33.7133
 1.4210	33.6635
 1.4200	33.7059
 1.4190	33.7012
 1.4180	33.6829
 1.4170	33.7069
 1.4160	33.7548
 1.4150	33.7022
 1.4140	33.7054
 1.4130	33.6913
 1.4120	33.7091
 1.4110	33.7054
 1.4100	33.7214
 1.4090	33.6240
 1.4080	33.7012
 1.4070	33.6788
 1.4060	33.7838
 1.4050	33.6210
 1.4040	33.8014
 1.4030	33.6815
 1.4020	33.7360
 1.4010	33.6892
 1.4000	33.6621
 1.3990	33.7231
 1.3980	33.7612
 1.3970	33.7217
 1.3960	33.7846
 1.3950	33.6869
 1.3940	33.6732
 1.3930	33.6755
 1.3920	33.6898
 1.3910	33.7402
 1.3900	33.7865
 1.3890	33.7692
 1.3880	33.7764
 1.3870	33.6963
 1.3860	33.7396
 1.3850	33.7547
 1.3840	33.7311
 1.3830	33.6104
 1.3820	33.6611
 1.3810	33.6208
 1.3800	33.6869
 1.3790	33.7252
 1.3780	33.7759
 1.3770	33.6685
 1.3760	33.7840
 1.3750	33.6428
 1.3740	33.7110
 1.3730	33.6743
 1.3720	33.7059
 1.3710	33.6744
 1.3700	33.7441
 1.3690	33.6736
 1.3680	33.7299
 1.3670	33.6711
 1.3660	33.7336
 1.3650	33.6679
 1.3640	33.7599
 1.3630	33.6846
 1.3620	33.6859
 1.3610	33.6171
 1.3600	33.5655
 1.3590	33.6106
 1.3580	33.7776
 1.3570	33.6621
 1.3560	33.7364
 1.3550	33.5003
 1.3540	33.6613
 1.3530	33.5883
 1.3520	33.6369
 1.3510	33.5921
 1.3500	33.6700
 1.3490	33.6283
 1.3480	33.6597
 1.3470	33.5985
 1.3460	33.6721
 1.3450	33.5510
 1.3440	33.6597
 1.3430	33.6163
 1.3420	33.6647
 1.3410	33.5872
 1.3400	33.5986
 1.3390	33.6523
 1.3380	33.6479
 1.3370	33.5505
 1.3360	33.6172
 1.3350	33.5970
 1.3340	33.7100
 1.3330	33.5948
 1.3320	33.5741
 1.3310	33.6386
 1.3300	33.6236
 1.3290	33.5501
 1.3280	33.5760
 1.3270	33.5287
 1.3260	33.5802
 1.3250	33.5459
 1.3240	33.6208
 1.3230	33.5672
 1.3220	33.6455
 1.3210	33.5344
 1.3200	33.5274
 1.3190	33.5064
 1.3180	33.5060
 1.3170	33.5325
 1.3160	33.4680
 1.3150	33.5333
 1.3140	33.4695
 1.3130	33.4860
 1.3120	33.5098
 1.3110	33.5122
 1.3100	33.4338
 1.3090	33.5022
 1.3080	33.5336
 1.3070	33.4199
 1.3060	33.3996
 1.3050	33.4152
 1.3040	33.4865
 1.3030	33.4682
 1.3020	33.4652
 1.3010	33.3876
 1.3000	33.3974
 1.2990	33.4327
 1.2980	33.4135
 1.2970	33.3733
 1.2960	33.3851
 1.2950	33.3970
 1.2940	33.4315
 1.2930	33.3743
 1.2920	33.3694
 1.2910	33.2766
 1.2900	33.3742
 1.2890	33.3131
 1.2880	33.2784
 1.2870	33.3257
 1.2860	33.3455
 1.2850	33.3064
 1.2840	33.2874
 1.2830	33.2932
 1.2820	33.3434
 1.2810	33.2749
 1.2800	33.2419
 1.2790	33.2624
 1.2780	33.2462
 1.2770	33.1996
 1.2760	33.2006
 1.2750	33.1336
 1.2740	33.2013
 1.2730	33.1522
 1.2720	33.1909
 1.2710	33.1179
 1.2700	33.1350
 1.2690	33.1447
 1.2680	33.1456
 1.2670	33.1376
 1.2660	33.0630
 1.2650	33.0432
 1.2640	33.0498
 1.2630	33.0236
 1.2620	32.9842
 1.2610	33.0106
 1.2600	33.0119
 1.2590	32.9793
 1.2580	32.9863
 1.2570	32.9841
 1.2560	32.9875
 1.2550	32.9156
 1.2540	32.9336
 1.2530	32.8884
 1.2520	32.8760
 1.2510	32.8679
 1.2500	32.8186
 1.2490	32.8212
 1.2480	32.8299
 1.2470	32.8376
 1.2460	32.8212
 1.2450	32.7396
 1.2440	32.7110
 1.2430	32.6610
 1.2420	32.6831
 1.2410	32.7041
 1.2400	32.6930
 1.2390	32.6422
 1.2380	32.6468
 1.2370	32.6004
 1.2360	32.5729
 1.2350	32.5835
 1.2340	32.5619
 1.2330	32.4817
 1.2320	32.4598
 1.2310	32.4552
 1.2300	32.3951
 1.2290	32.3818
 1.2280	32.4157
 1.2270	32.3660
 1.2260	32.3451
 1.2250	32.3440
 1.2240	32.3213
 1.2230	32.2829
 1.2220	32.2538
 1.2210	32.1963
 1.2200	32.1712
 1.2190	32.1723
 1.2180	32.1109
 1.2170	32.0411
 1.2160	32.0644
 1.2150	32.0900
 1.2140	32.0513
 1.2130	32.0418
 1.2120	32.0729
 1.2110	31.9898
 1.2100	31.9479
 1.2090	31.9370
 1.2080	31.8783
 1.2070	31.8722
 1.2060	31.8412
 1.2050	31.8202
 1.2040	31.8300
 1.2030	31.7542
 1.2020	31.6804
 1.2010	31.6738
 1.2000	31.6463
 1.1990	31.6206
 1.1980	31.5715
 1.1970	31.5504
 1.1960	31.5560
 1.1950	31.5518
 1.1940	31.5200
 1.1930	31.4508
 1.1920	31.4245
 1.1910	31.4306
 1.1900	31.3778
 1.1890	31.3494
 1.1880	31.2686
 1.1870	31.3307
 1.1860	31.2936
 1.1850	31.2585
 1.1840	31.1729
 1.1830	31.1679
 1.1820	31.1454
 1.1810	31.1162
 1.1800	31.1118
 1.1790	31.0793
 1.1780	31.0472
 1.1770	31.0492
 1.1760	31.0130
 1.1750	31.0241
 1.1740	30.9681
 1.1730	30.9202
 1.1720	30.8798
 1.1710	30.8402
 1.1700	30.8342
 1.1690	30.8238
 1.1680	30.7498
 1.1670	30.7338
 1.1660	30.6838
 1.1650	30.7501
 1.1640	30.7196
 1.1630	30.6561
 1.1620	30.6062
 1.1610	30.6595
 1.1600	30.5586
 1.1590	30.5917
 1.1580	30.5979
 1.1570	30.5544
 1.1560	30.4715
 1.1550	30.5258
 1.1540	30.4407
 1.1530	30.4177
 1.1520	30.4020
 1.1510	30.4267
 1.1500	30.3250
 1.1490	30.3733
 1.1480	30.3278
 1.1470	30.2709
 1.1460	30.2672
 1.1450	30.2578
 1.1440	30.2343
 1.1430	30.1883
 1.1420	30.1743
 1.1410	30.1825
 1.1400	30.1233
 1.1390	30.1786
 1.1380	30.0871
 1.1370	30.0914
 1.1360	30.0405
 1.1350	30.0631
 1.1340	30.0134
 1.1330	30.0170
 1.1320	29.9417
 1.1310	29.9772
 1.1300	29.9197
 1.1290	29.9203
 1.1280	29.9099
 1.1270	29.8922
 1.1260	29.8424
 1.1250	29.8872
 1.1240	29.8464
 1.1230	29.8455
 1.1220	29.7998
 1.1210	29.8201
 1.1200	29.6946
 1.1190	29.7492
 1.1180	29.7671
 1.1170	29.7529
 1.1160	29.6383
 1.1150	29.7509
 1.1140	29.6422
 1.1130	29.6273
 1.1120	29.5608
 1.1110	29.6200
 1.1100	29.5947
 1.1090	29.5700
 1.1080	29.5419
 1.1070	29.5931
 1.1060	29.4639
 1.1050	29.5909
 1.1040	29.4821
 1.1030	29.4692
 1.1020	29.5232
 1.1010	29.4582
 1.1000	29.3909
 1.0990	29.4334
 1.0980	29.3969
 1.0970	29.4229
 1.0960	29.3606
 1.0950	29.3681
 1.0940	29.2784
 1.0930	29.3440
 1.0920	29.3025
 1.0910	29.2644
 1.0900	29.2812
 1.0890	29.2921
 1.0880	29.2276
 1.0870	29.3015
 1.0860	29.1855
 1.0850	29.3036
 1.0840	29.2078
 1.0830	29.3195
 1.0820	29.2795
 1.0810	29.1741
 1.0800	29.1138
 1.0790	29.2215
 1.0780	29.0677
 1.0770	29.1268
 1.0760	29.0703
 1.0750	29.1320
 1.0740	29.0290
 1.0730	29.0699
 1.0720	28.9880
 1.0710	29.1630
 1.0700	28.8264
 1.0690	29.0367
 1.0680	28.9237
 1.0670	28.9929
 1.0660	28.9340
 1.0650	28.9982
 1.0640	28.9262
 1.0630	28.9490
 1.0620	28.9236
 1.0610	29.0023
 1.0600	28.8795
 1.0590	28.9102
 1.0580	28.8446
 1.0570	28.7950
 1.0560	28.8299
 1.0550	28.8370
 1.0540	28.7089
 1.0530	28.7830
 1.0520	28.8153
 1.0510	28.8403
 1.0500	28.6765
 1.0490	28.7688
 1.0480	28.6932
 1.0470	28.7373
 1.0460	28.6118
 1.0450	28.6956
 1.0440	28.6054
 1.0430	28.6450
 1.0420	28.5909
 1.0410	28.6716
 1.0400	28.5288
 1.0390	28.5691
 1.0380	28.6017
 1.0370	28.5246
 1.0360	28.5028
 1.0350	28.6126
 1.0340	28.5406
 1.0330	28.5304
 1.0320	28.4776
 1.0310	28.4915
 1.0300	28.4090
 1.0290	28.4276
 1.0280	28.4143
 1.0270	28.4166
 1.0260	28.4198
 1.0250	28.4428
 1.0240	28.3704
 1.0230	28.3550
 1.0220	28.3367
 1.0210	28.3463
 1.0200	28.3372
 1.0190	28.3187
 1.0180	28.2594
 1.0170	28.2942
 1.0160	28.2415
 1.0150	28.2413
 1.0140	28.2012
 1.0130	28.2412
 1.0120	28.1867
 1.0110	28.1720
 1.0100	28.1577
 1.0090	28.2120
 1.0080	28.1132
 1.0070	28.1482
 1.0060	28.0893
 1.0050	28.1153
 1.0040	28.0605
 1.0030	28.0906
 1.0020	28.0294
 1.0010	28.0437
 1.0000	28.0494
 0.9990	28.0488
 0.9980	27.9051
 0.9970	28.0136
 0.9960	27.9181
 0.9950	27.9623
 0.9940	27.9250
 0.9930	27.9042
 0.9920	27.8885
 0.9910	27.8989
 0.9900	27.8648
 0.9890	27.8477
 0.9880	27.7713
 0.9870	27.8655
 0.9860	27.7640
 0.9850	27.8027
 0.9840	27.7548
 0.9830	27.8089
 0.9820	27.7026
 0.9810	27.7401
 0.9800	27.7678
 0.9790	27.7041
 0.9780	27.5685
 0.9770	27.6300
 0.9760	27.6190
 0.9750	27.6298
 0.9740	27.5607
 0.9730	27.6061
 0.9720	27.5706
 0.9710	27.5563
 0.9700	27.5645
 0.9690	27.5621
 0.9680	27.5074
 0.9670	27.4870
 0.9660	27.5033
 0.9650	27.4906
 0.9640	27.4443
 0.9630	27.4518
 0.9620	27.3624
 0.9610	27.4025
 0.9600	27.3565
 0.9590	27.4215
 0.9580	27.3810
 0.9570	27.3086
 0.9560	27.3088
 0.9550	27.3071
 0.9540	27.2708
 0.9530	27.2443
 0.9520	27.1901
 0.9510	27.1586
 0.9500	27.1215
 0.9490	27.1932
 0.9480	27.1931
 0.9470	27.1553
 0.9460	27.1110
 0.9450	27.1067
 0.9440	27.0946
 0.9430	27.0567
 0.9420	27.0799
 0.9410	27.0829
 0.9400	27.0041
 0.9390	27.0086
 0.9380	27.0229
 0.9370	26.9622
 0.9360	26.9236
 0.9350	26.9184
 0.9340	26.8539
 0.9330	26.8518
 0.9320	26.8503
 0.9310	26.8333
 0.9300	26.8154
 0.9290	26.8163
 0.9280	26.8219
 0.9270	26.7321
 0.9260	26.7287
 0.9250	26.7530
 0.9240	26.7293
 0.9230	26.6944
 0.9220	26.6407
 0.9210	26.5723
 0.9200	26.6058
 0.9190	26.6023
 0.9180	26.5627
 0.9170	26.5689
 0.9160	26.5283
 0.9150	26.5180
 0.9140	26.5537
 0.9130	26.4486
 0.9120	26.4500
 0.9110	26.4099
 0.9100	26.3866
 0.9090	26.4089
 0.9080	26.3499
 0.9070	26.2978
 0.9060	26.3302
 0.9050	26.2734
 0.9040	26.3160
 0.9030	26.2269
 0.9020	26.1756
 0.9010	26.1754
 0.9000	26.1852
 0.8990	26.1276
 0.8980	26.0927
 0.8970	26.0685
 0.8960	26.0463
 0.8950	26.0124
 0.8940	25.9909
 0.8930	25.9774
 0.8920	26.0615
 0.8910	25.9215
 0.8900	25.9133
 0.8890	25.9188
 0.8880	25.8856
 0.8870	25.8591
 0.8860	25.8606
 0.8850	25.7651
 0.8840	25.8310
 0.8830	25.8175
 0.8820	25.7879
 0.8810	25.7659
 0.8800	25.7352
 0.8790	25.6425
 0.8780	25.6744
 0.8770	25.6567
 0.8760	25.6603
 0.8750	25.6613
 0.8740	25.6501
 0.8730	25.5919
 0.8720	25.5623
 0.8710	25.5199
 0.8700	25.5302
 0.8690	25.5648
 0.8680	25.5298
 0.8670	25.4142
 0.8660	25.4210
 0.8650	25.3373
 0.8640	25.4166
 0.8630	25.3715
 0.8620	25.3441
 0.8610	25.3749
 0.8600	25.4432
 0.8590	25.4118
 0.8580	25.3875
 0.8570	25.4000
 0.8560	25.4032
 0.8550	25.3652
 0.8540	25.3605
 0.8530	25.3552
 0.8520	25.2845
 0.8510	25.2541
 0.8500	25.2829
 0.8490	25.2553
 0.8480	25.2497
 0.8470	25.2344
 0.8460	25.2346
 0.8450	25.2162
 0.8440	25.1884
 0.8430	25.1836
 0.8420	25.1541
 0.8410	25.1424
 0.8400	25.1129
 0.8390	25.0990
 0.8380	25.0940
 0.8370	25.0729
 0.8360	25.0376
 0.8350	25.0322
 0.8340	25.0215
 0.8330	25.0191
 0.8320	24.9931
 0.8310	24.9708
 0.8300	24.9505
 0.8290	24.9411
 0.8280	24.9150
 0.8270	24.8891
 0.8260	24.8865
 0.8250	24.8571
 0.8240	24.8653
 0.8230	24.8251
 0.8220	24.8036
 0.8210	24.7852
 0.8200	24.7590
 0.8190	24.7740
 0.8180	24.7407
 0.8170	24.7239
 0.8160	24.7093
 0.8150	24.6904
 0.8140	24.6840
 0.8130	24.6524
 0.8120	24.6266
 0.8110	24.6200
 0.8100	24.6116
 0.8090	24.6039
 0.8080	24.5796
 0.8070	24.5643
 0.8060	24.5498
 0.8050	24.5275
 0.8040	24.4900
 0.8030	24.4833
 0.8020	24.4846
 0.8010	24.4628
 0.8000	24.4329
 0.7990	24.4077
 0.7980	24.3932
 0.7970	24.3798
 0.7960	24.3367
 0.7950	24.3257
 0.7940	24.3140
 0.7930	24.3127
 0.7920	24.2865
 0.7910	24.2514
 0.7900	24.2431
 0.7890	24.2334
 0.7880	24.2023
 0.7870	24.1863
 0.7860	24.1784
 0.7850	24.1489
 0.7840	24.1456
 0.7830	24.1345
 0.7820	24.0908
 0.7810	24.0871
 0.7800	24.0618
 0.7790	24.0471
 0.7780	24.0415
 0.7770	24.0194
 0.7760	24.0037
 0.7750	23.9614
 0.7740	23.9491
 0.7730	23.9104
 0.7720	23.9118
 0.7710	23.9137
 0.7700	23.8774
 0.7690	23.8871
 0.7680	23.8503
 0.7670	23.8235
 0.7660	23.8065
 0.7650	23.7996
 0.7640	23.7745
 0.7630	23.7579
 0.7620	23.7404
 0.7610	23.7203
 0.7600	23.7033
 0.7590	23.6809
 0.7580	23.6713
 0.7570	23.6414
 0.7560	23.6406
 0.7550	23.6275
 0.7540	23.5964
 0.7530	23.5747
 0.7520	23.5685
 0.7510	23.5459
 0.7500	23.5234
 0.7490	23.5020
 0.7480	23.4817
 0.7470	23.4656
 0.7460	23.4580
 0.7450	23.4359
 0.7440	23.4218
 0.7430	23.3853
 0.7420	23.3753
 0.7410	23.3464
 0.7400	23.3328
 0.7390	23.3170
 0.7380	23.3038
 0.7370	23.2816
 0.7360	23.2592
 0.7350	23.2372
 0.7340	23.2205
 0.7330	23.1952
 0.7320	23.1780
 0.7310	23.1544
 0.7300	23.1383
 0.7290	23.1146
 0.7280	23.0992
 0.7270	23.0810
 0.7260	23.0501
 0.7250	23.0280
 0.7240	23.0034
 0.7230	23.0012
 0.7220	22.9956
 0.7210	22.9553
 0.7200	22.9345
 0.7190	22.9250
 0.7180	22.9003
 0.7170	22.8720
 0.7160	22.8385
 0.7150	22.8226
 0.7140	22.8037
 0.7130	22.7905
 0.7120	22.7712
 0.7110	22.7461
 0.7100	22.7306
 0.7090	22.7057
 0.7080	22.6776
 0.7070	22.6623
 0.7060	22.6364
 0.7050	22.6181
 0.7040	22.5891
 0.7030	22.5689
 0.7020	22.5455
 0.7010	22.5257
 0.7000	22.4992
 0.6990	22.4734
 0.6980	22.4559
 0.6970	22.4345
 0.6960	22.4112
 0.6950	22.3897
 0.6940	22.3719
 0.6930	22.3499
 0.6920	22.3336
 0.6910	22.3015
 0.6900	22.2864
 0.6890	22.2597
 0.6880	22.2271
 0.6870	22.2023
 0.6860	22.1902
 0.6850	22.1684
 0.6840	22.1413
 0.6830	22.1243
 0.6820	22.1015
 0.6810	22.0770
 0.6800	22.0546
 0.6790	22.0335
 0.6780	22.0064
 0.6770	21.9816
 0.6760	21.9634
 0.6750	21.9335
 0.6740	21.9124
 0.6730	21.8940
 0.6720	21.8705
 0.6710	21.8487
 0.6700	21.8291
 0.6690	21.8036
 0.6680	21.7752
 0.6670	21.7568
 0.6660	21.7346
 0.6650	21.7156
 0.6640	21.6947
 0.6630	21.6716
 0.6620	21.6464
 0.6610	21.6196
 0.6600	21.5973
 0.6590	21.5726
 0.6580	21.5533
 0.6570	21.5311
 0.6560	21.5141
 0.6550	21.4875
 0.6540	21.4639
 0.6530	21.4469
 0.6520	21.4244
 0.6510	21.4012
 0.6500	21.3803
 0.6490	21.3536
 0.6480	21.3280
 0.6470	21.3057
 0.6460	21.2841
 0.6450	21.2669
 0.6440	21.2447
 0.6430	21.2190
 0.6420	21.1976
 0.6410	21.1767
 0.6400	21.1579
 0.6390	21.1405
 0.6380	21.1165
 0.6370	21.0919
 0.6360	21.0708
 0.6350	21.0545
 0.6340	21.0355
 0.6330	21.0111
 0.6320	20.9864
 0.6310	20.9648
 0.6300	20.9440
 0.6290	20.9188
 0.6280	20.8988
 0.6270	20.8838
 0.6260	20.8576
 0.6250	20.8339
 0.6240	20.8164
 0.6230	20.7937
 0.6220	20.7698
 0.6210	20.7475
 0.6200	20.7271
 0.6190	20.7048
 0.6180	20.6836
 0.6170	20.6639
 0.6160	20.6442
 0.6150	20.6192
 0.6140	20.5942
 0.6130	20.5704
 0.6120	20.5470
 0.6110	20.5248
 0.6100	20.5073
 0.6090	20.4862
 0.6080	20.4661
 0.6070	20.4459
 0.6060	20.4218
 0.6050	20.3982
 0.6040	20.3755
 0.6030	20.3518
 0.6020	20.3259
 0.6010	20.2995
 0.6000	20.2734
 0.5990	20.2598
 0.5980	20.2385
 0.5970	20.2170
 0.5960	20.1975
 0.5950	20.1776
 0.5940	20.1505
 0.5930	20.1272
 0.5920	20.1055
 0.5910	20.0824
 0.5900	20.0499
 0.5890	20.0255
 0.5880	20.0033
 0.5870	19.9735
 0.5860	19.9458
 0.5850	19.9155
 0.5840	19.8942
 0.5830	19.8676
 0.5820	19.8425
 0.5810	19.8112
 0.5800	19.7857
 0.5790	19.7613
 0.5780	19.7356
 0.5770	19.7037
 0.5760	19.6721
 0.5750	19.6458
 0.5740	19.6155
 0.5730	19.5852
 0.5720	19.5565
 0.5710	19.5290
 0.5700	19.4985
 0.5690	19.4661
 0.5680	19.4361
 0.5670	19.4103
 0.5660	19.3821
 0.5650	19.3469
 0.5640	19.3131
 0.5630	19.2841
 0.5620	19.2541
 0.5610	19.2208
 0.5600	19.1912
 0.5590	19.1623
 0.5580	19.1318
 0.5570	19.0970
 0.5560	19.0657
 0.5550	19.0330
 0.5540	19.0042
 0.5530	18.9686
 0.5520	18.9390
 0.5510	18.9075
 0.5500	18.8692
 0.5490	18.8309
 0.5480	18.7972
 0.5470	18.7676
 0.5460	18.7337
 0.5450	18.6973
 0.5440	18.6661
 0.5430	18.6300
 0.5420	18.5915
 0.5410	18.5550
 0.5400	18.5223
 0.5390	18.4838
 0.5380	18.4449
 0.5370	18.4073
 0.5360	18.3724
 0.5350	18.3362
 0.5340	18.3037
 0.5330	18.2628
 0.5320	18.2257
 0.5310	18.1918
 0.5300	18.1519
 0.5290	18.1119
 0.5280	18.0729
 0.5270	18.0344
 0.5260	17.9981
 0.5250	17.9647
 0.5240	17.9254
 0.5230	17.8885
 0.5220	17.8409
 0.5210	17.8032
 0.5200	17.7703
 0.5190	17.7284
 0.5180	17.6898
 0.5170	17.6503
 0.5160	17.6190
 0.5150	17.5776
 0.5140	17.5652
 0.5130	17.5256
 0.5120	17.4865
 0.5110	17.4514
 0.5100	17.4171
 0.5090	17.3810
 0.5080	17.3442
 0.5070	17.3090
 0.5060	17.2722
 0.5050	17.2402
 0.5040	17.1933
 0.5030	17.1615
 0.5020	17.1343
 0.5010	17.0934
 0.5000	17.0601
 0.4990	17.0344
 0.4980	16.9964
 0.4970	16.9641
 0.4960	16.9248
 0.4950	16.8942
 0.4940	16.8672
 0.4930	16.8306
 0.4920	16.8008
 0.4910	16.7670
 0.4900	16.7464
 0.4890	16.7146
 0.4880	16.6869
 0.4870	16.6535
 0.4860	16.6255
 0.4850	16.6011
 0.4840	16.5710
 0.4830	16.5450
 0.4820	16.5215
 0.4810	16.4908
 0.4800	16.4705
 0.4790	16.4354
 0.4780	16.4116
 0.4770	16.3813
 0.4760	16.3593
 0.4750	16.3415
 0.4740	16.3167
 0.4730	16.2941
 0.4720	16.2771
 0.4710	16.2545
 0.4700	16.2345
 0.4690	16.2249
 0.4680	16.1976
 0.4670	16.1869
 0.4660	16.1675
 0.4650	16.1479
 0.4640	16.1372
 0.4630	16.1188
 0.4620	16.1083
 0.4610	16.0942
 0.4600	16.0851
 0.4590	16.0697
 0.4580	16.0594
 0.4570	16.0493
 0.4560	16.0436
 0.4550	16.0262
 0.4540	16.0145
 0.4530	16.0020
 0.4520	15.9909
 0.4510	15.9842
 0.4500	15.9752
 0.4490	15.9523
 0.4480	15.9408
 0.4470	15.9337
 0.4460	15.9206
 0.4450	15.9082
 0.4440	15.8992
 0.4430	15.8792
 0.4420	15.8666
 0.4410	15.8474
 0.4400	15.8291
 0.4390	15.8182
 0.4380	15.8004
 0.4370	15.7800
 0.4360	15.7632
 0.4350	15.7479
 0.4340	15.7292
 0.4330	15.7133
 0.4320	15.6945
 0.4310	15.6826
 0.4300	15.6618
 0.4290	15.6453
 0.4280	15.6261
 0.4270	15.6013
 0.4260	15.5875
 0.4250	15.5717
 0.4240	15.5492
 0.4230	15.5319
 0.4220	15.5231
 0.4210	15.5064
 0.4200	15.4908
 0.4190	15.4764
 0.4180	15.4550
 0.4170	15.4416
 0.4160	15.4318
 0.4150	15.4187
 0.4140	15.4038
 0.4130	15.3947
 0.4120	15.3843
 0.4110	15.3646
 0.4100	15.3516
 0.4090	15.3368
 0.4080	15.3283
 0.4070	15.3158
 0.4060	15.3054
 0.4050	15.2938
 0.4040	15.2824
 0.4030	15.2713
 0.4020	15.2609
 0.4010	15.2466
 0.4000	15.2405
