Name: Stilbite NaCa_2Al_5Si_3O_36.14H_2O
Type: Mineral
Class: Silicate
Subclass: Tectosilicate
Particle Size: Coarse
Sample No.: TS-9A
Owner: JPL
Wavelength Range: VSWIR
Origin: India
Collection Date: N/A
Description: Particle size was 125-500um.Collected by Grieger's Inc. Original ASTER Spectral Library name was jpl.beckman.mineral.silicate.tectosilicate.coarse.ts09a.spectrum.txt
Measurement: Hemispherical reflectance
First Column: X
Second Column: Y
X Units: Wavelength (micrometers)
Y Units:Reflectance (percent)
First X Value:  0.4000
Last X Value:  2.5000
Number of X Values: 826
Additional Information: mineral.silicate.tectosilicate.coarse.vswir.ts-9a.jpl.beckman.ancillary.txt

 0.4000	69.8300
 0.4010	69.9700
 0.4020	70.0000
 0.4030	70.1100
 0.4040	70.0800
 0.4050	70.2800
 0.4060	70.4600
 0.4070	70.4700
 0.4080	70.5300
 0.4090	70.4700
 0.4100	70.6200
 0.4110	70.7900
 0.4120	70.7600
 0.4130	70.8500
 0.4140	70.9500
 0.4150	71.0900
 0.4160	71.2100
 0.4170	71.3000
 0.4180	71.3300
 0.4190	71.5100
 0.4200	71.4800
 0.4210	71.6000
 0.4220	71.5200
 0.4230	71.5900
 0.4240	71.8500
 0.4250	71.8300
 0.4260	71.9600
 0.4270	72.0100
 0.4280	72.1600
 0.4290	72.2600
 0.4300	72.3100
 0.4310	72.2800
 0.4320	72.4400
 0.4330	72.6400
 0.4340	72.6200
 0.4350	72.7800
 0.4360	72.8000
 0.4370	72.8900
 0.4380	73.1300
 0.4390	73.0900
 0.4400	73.2000
 0.4410	73.2000
 0.4420	73.4500
 0.4430	73.4900
 0.4440	73.4500
 0.4450	73.5700
 0.4460	73.7000
 0.4470	73.9500
 0.4480	73.8900
 0.4490	73.7600
 0.4500	73.9600
 0.4510	74.0400
 0.4520	74.1100
 0.4530	74.2500
 0.4540	74.1100
 0.4550	74.3200
 0.4560	74.4000
 0.4570	74.5700
 0.4580	74.6100
 0.4590	74.5900
 0.4600	74.6900
 0.4610	74.8800
 0.4620	74.8900
 0.4630	74.8700
 0.4640	74.8400
 0.4650	74.8700
 0.4660	74.9500
 0.4670	75.1000
 0.4680	75.1000
 0.4690	75.0000
 0.4700	75.2500
 0.4710	75.3000
 0.4720	75.4300
 0.4730	75.5500
 0.4740	75.5300
 0.4750	75.6800
 0.4760	75.7700
 0.4770	75.6600
 0.4780	75.6300
 0.4790	75.6800
 0.4800	75.7400
 0.4810	75.7400
 0.4820	75.8800
 0.4830	75.8900
 0.4840	75.9900
 0.4850	76.1800
 0.4860	76.2000
 0.4870	76.1200
 0.4880	76.0900
 0.4890	76.2500
 0.4900	76.2800
 0.4910	76.2600
 0.4920	76.2400
 0.4930	76.4100
 0.4940	76.4400
 0.4950	76.4600
 0.4960	76.4400
 0.4970	76.5800
 0.4980	76.7200
 0.4990	76.7800
 0.5000	76.7500
 0.5010	76.8300
 0.5020	76.9000
 0.5030	76.9600
 0.5040	76.9100
 0.5050	76.9600
 0.5060	77.0200
 0.5070	77.1300
 0.5080	77.1800
 0.5090	77.1100
 0.5100	77.3400
 0.5110	77.2700
 0.5120	77.3700
 0.5130	77.4400
 0.5140	77.4000
 0.5150	77.5200
 0.5160	77.7400
 0.5170	77.5700
 0.5180	77.6600
 0.5190	77.7000
 0.5200	77.7300
 0.5210	77.7700
 0.5220	77.8200
 0.5230	77.7700
 0.5240	77.8300
 0.5250	78.1000
 0.5260	78.1300
 0.5270	78.0900
 0.5280	78.0800
 0.5290	78.3100
 0.5300	78.2500
 0.5310	78.2600
 0.5320	78.1600
 0.5330	78.2400
 0.5340	78.4600
 0.5350	78.4300
 0.5360	78.3400
 0.5370	78.5200
 0.5380	78.5500
 0.5390	78.8100
 0.5400	78.8200
 0.5410	78.7300
 0.5420	78.8300
 0.5430	78.9700
 0.5440	78.8700
 0.5450	79.0300
 0.5460	79.1100
 0.5470	79.2700
 0.5480	79.4100
 0.5490	79.4900
 0.5500	79.4200
 0.5510	79.5400
 0.5520	79.6800
 0.5530	79.7900
 0.5540	79.8600
 0.5550	79.9500
 0.5560	80.0100
 0.5570	79.9500
 0.5580	79.9800
 0.5590	79.9700
 0.5600	80.1300
 0.5610	80.7400
 0.5620	80.7600
 0.5630	80.7100
 0.5640	80.8600
 0.5650	81.0100
 0.5660	81.0700
 0.5670	80.8800
 0.5680	80.9600
 0.5690	81.0100
 0.5700	81.0400
 0.5710	80.9700
 0.5720	80.9100
 0.5730	80.8200
 0.5740	81.0400
 0.5750	80.9400
 0.5760	80.8900
 0.5770	81.0400
 0.5780	81.0400
 0.5790	81.2900
 0.5800	81.2600
 0.5810	81.1000
 0.5820	81.2500
 0.5830	81.2500
 0.5840	81.3600
 0.5850	81.2900
 0.5860	81.2900
 0.5870	81.3800
 0.5880	81.5500
 0.5890	81.6100
 0.5900	81.5200
 0.5910	81.5100
 0.5920	81.6400
 0.5930	81.7000
 0.5940	81.7200
 0.5950	81.7000
 0.5960	81.7600
 0.5970	81.8600
 0.5980	81.9100
 0.5990	81.8100
 0.6000	81.7400
 0.6010	81.8600
 0.6020	82.0100
 0.6030	81.9500
 0.6040	81.9600
 0.6050	82.0100
 0.6060	82.1100
 0.6070	82.1000
 0.6080	82.0900
 0.6090	82.1500
 0.6100	82.1500
 0.6110	82.1100
 0.6120	81.9700
 0.6130	81.9500
 0.6140	81.9900
 0.6150	82.0300
 0.6160	82.0600
 0.6170	81.9800
 0.6180	81.9900
 0.6190	82.0800
 0.6200	82.1200
 0.6210	82.0600
 0.6220	82.1300
 0.6230	82.0800
 0.6240	82.1600
 0.6250	82.2100
 0.6260	82.0300
 0.6270	82.0200
 0.6280	82.2000
 0.6290	82.2800
 0.6300	82.1000
 0.6310	82.0900
 0.6320	82.1700
 0.6330	82.2700
 0.6340	82.3400
 0.6350	82.1800
 0.6360	82.3200
 0.6370	82.3000
 0.6380	82.2500
 0.6390	82.2900
 0.6400	82.2700
 0.6410	82.2900
 0.6420	82.3800
 0.6430	82.3200
 0.6440	82.1200
 0.6450	82.2900
 0.6460	82.2900
 0.6470	82.4200
 0.6480	82.3800
 0.6490	82.2700
 0.6500	82.2700
 0.6510	82.2600
 0.6520	82.3700
 0.6530	82.3100
 0.6540	82.2200
 0.6550	82.2100
 0.6560	82.4200
 0.6570	82.3300
 0.6580	82.2100
 0.6590	82.4000
 0.6600	82.4100
 0.6610	82.4900
 0.6620	82.5600
 0.6630	82.5000
 0.6640	82.4800
 0.6650	82.5500
 0.6660	82.3800
 0.6670	82.4000
 0.6680	82.3400
 0.6690	82.5000
 0.6700	82.5800
 0.6710	82.5600
 0.6720	82.5100
 0.6730	82.4800
 0.6740	82.6100
 0.6750	82.7100
 0.6760	82.5500
 0.6770	82.6000
 0.6780	82.6200
 0.6790	82.6300
 0.6800	82.6800
 0.6810	82.6800
 0.6820	82.6000
 0.6830	82.8000
 0.6840	82.7500
 0.6850	82.5300
 0.6860	82.6700
 0.6870	82.6900
 0.6880	82.7700
 0.6890	82.7900
 0.6900	82.6800
 0.6910	82.7400
 0.6920	82.7300
 0.6930	82.7200
 0.6940	82.6400
 0.6950	82.5700
 0.6960	82.6300
 0.6970	82.6800
 0.6980	82.5600
 0.6990	82.6700
 0.7000	82.6400
 0.7010	82.6800
 0.7020	82.6600
 0.7030	82.6500
 0.7040	82.7100
 0.7050	82.6600
 0.7060	82.6300
 0.7070	82.5600
 0.7080	82.6700
 0.7090	82.7300
 0.7100	82.6700
 0.7110	82.6300
 0.7120	82.6300
 0.7130	82.6700
 0.7140	82.6400
 0.7150	82.5300
 0.7160	82.6500
 0.7170	82.6600
 0.7180	82.6700
 0.7190	82.7300
 0.7200	82.5500
 0.7210	82.5200
 0.7220	82.5800
 0.7230	82.5800
 0.7240	82.4500
 0.7250	82.4300
 0.7260	82.4900
 0.7270	82.4600
 0.7280	82.5200
 0.7290	82.3600
 0.7300	82.4000
 0.7310	82.3600
 0.7320	82.4200
 0.7330	82.3400
 0.7340	82.1500
 0.7350	82.0800
 0.7360	82.1400
 0.7370	82.1600
 0.7380	82.0100
 0.7390	82.0500
 0.7400	82.0600
 0.7410	82.1100
 0.7420	82.0600
 0.7430	81.9600
 0.7440	82.0100
 0.7450	82.0500
 0.7460	82.0100
 0.7470	81.8600
 0.7480	81.9600
 0.7490	81.8500
 0.7500	81.9600
 0.7510	82.0800
 0.7520	81.9900
 0.7530	82.0100
 0.7540	82.0500
 0.7550	82.1100
 0.7560	82.1900
 0.7570	82.1300
 0.7580	82.1900
 0.7590	82.1400
 0.7600	82.1600
 0.7610	82.2100
 0.7620	82.1900
 0.7630	82.1900
 0.7640	82.2000
 0.7650	82.3400
 0.7660	82.3400
 0.7670	82.2700
 0.7680	82.2700
 0.7690	82.4400
 0.7700	82.3900
 0.7710	82.3800
 0.7720	82.3100
 0.7730	82.5100
 0.7740	82.5200
 0.7750	82.5600
 0.7760	82.3900
 0.7770	82.4400
 0.7780	82.5600
 0.7790	82.5000
 0.7800	82.3900
 0.7810	82.4900
 0.7820	82.5600
 0.7830	82.5100
 0.7840	82.5100
 0.7850	82.5100
 0.7860	82.5800
 0.7870	82.6900
 0.7880	82.5900
 0.7890	82.6200
 0.7900	82.5500
 0.7910	82.5500
 0.7920	82.6900
 0.7930	82.6400
 0.7940	82.6700
 0.7950	82.6800
 0.7960	82.7200
 0.7970	82.7800
 0.7980	82.6400
 0.7990	82.7200
 0.8000	82.5000
 0.8040	82.5400
 0.8080	82.4900
 0.8120	82.4600
 0.8160	82.4800
 0.8200	82.3700
 0.8240	82.2500
 0.8280	82.2200
 0.8320	82.1700
 0.8360	81.9800
 0.8400	81.9000
 0.8440	81.8600
 0.8480	81.9900
 0.8520	82.0400
 0.8560	82.1700
 0.8600	82.2000
 0.8640	82.3200
 0.8680	82.3100
 0.8720	82.3500
 0.8760	82.4100
 0.8800	82.3100
 0.8840	82.3300
 0.8880	82.3500
 0.8920	82.3100
 0.8960	82.2800
 0.9000	82.1200
 0.9040	81.9500
 0.9080	81.8900
 0.9120	81.7100
 0.9160	81.4700
 0.9200	81.1200
 0.9240	80.7600
 0.9280	80.3700
 0.9320	79.8800
 0.9360	79.2000
 0.9400	78.4600
 0.9440	77.5500
 0.9480	76.3100
 0.9520	74.7500
 0.9560	73.0700
 0.9600	71.6200
 0.9640	70.9100
 0.9680	70.8100
 0.9720	71.0400
 0.9760	71.6900
 0.9800	72.4700
 0.9840	73.4000
 0.9880	74.4300
 0.9920	75.3800
 0.9960	76.3500
 1.0000	76.7800
 1.0040	77.7700
 1.0080	78.4000
 1.0120	79.0700
 1.0160	79.5900
 1.0200	80.0400
 1.0240	80.4800
 1.0280	80.7700
 1.0320	81.1000
 1.0360	81.2800
 1.0400	81.5300
 1.0440	81.8000
 1.0480	81.9200
 1.0520	82.0500
 1.0560	82.0900
 1.0600	82.1500
 1.0640	82.2400
 1.0680	82.1000
 1.0720	82.0900
 1.0760	81.9300
 1.0800	81.8800
 1.0840	81.6500
 1.0880	81.4600
 1.0920	81.1900
 1.0960	80.9100
 1.1000	80.7200
 1.1040	80.4200
 1.1080	80.1400
 1.1120	79.7800
 1.1160	79.3100
 1.1200	78.6800
 1.1240	78.0500
 1.1280	77.0500
 1.1320	75.6300
 1.1360	73.4900
 1.1400	70.7400
 1.1440	67.4700
 1.1480	64.1400
 1.1520	61.5300
 1.1560	60.1200
 1.1600	60.1000
 1.1640	61.0900
 1.1680	62.3500
 1.1720	63.7400
 1.1760	64.9400
 1.1800	65.8200
 1.1840	66.4900
 1.1880	66.8900
 1.1920	67.0800
 1.1960	67.5600
 1.2000	67.9900
 1.2040	68.5900
 1.2080	68.9600
 1.2120	69.3500
 1.2160	69.7800
 1.2200	70.0500
 1.2240	70.3800
 1.2280	70.5700
 1.2320	70.7900
 1.2360	71.0500
 1.2400	71.1200
 1.2440	71.2900
 1.2480	71.3500
 1.2520	71.4900
 1.2560	71.5000
 1.2600	71.4200
 1.2640	71.3900
 1.2680	71.2800
 1.2720	71.1500
 1.2760	70.8800
 1.2800	70.6400
 1.2840	70.3100
 1.2880	69.8800
 1.2920	69.2500
 1.2960	68.4400
 1.3000	67.5200
 1.3040	66.5200
 1.3080	65.3200
 1.3120	64.0900
 1.3160	62.7100
 1.3200	61.2900
 1.3240	59.8000
 1.3280	58.5000
 1.3320	57.2800
 1.3360	56.0500
 1.3400	54.8600
 1.3440	53.4800
 1.3480	52.1800
 1.3520	50.7600
 1.3560	49.3600
 1.3600	47.8900
 1.3640	46.2700
 1.3680	44.5900
 1.3720	43.0900
 1.3760	41.0800
 1.3800	38.4800
 1.3840	35.6000
 1.3880	32.6300
 1.3920	29.2600
 1.3960	25.7400
 1.4000	22.3900
 1.4040	19.3700
 1.4080	16.9700
 1.4120	15.5100
 1.4160	14.7500
 1.4200	14.5300
 1.4240	14.8900
 1.4280	15.6600
 1.4320	16.5800
 1.4360	17.7300
 1.4400	18.9200
 1.4440	20.1400
 1.4480	21.1500
 1.4520	21.9400
 1.4560	22.3300
 1.4600	22.4300
 1.4640	22.5900
 1.4680	23.2900
 1.4720	24.4700
 1.4760	25.9600
 1.4800	27.5000
 1.4840	28.9400
 1.4880	30.3900
 1.4920	31.6700
 1.4960	32.7900
 1.5000	33.9000
 1.5040	34.9300
 1.5080	35.6700
 1.5120	36.4400
 1.5160	37.1200
 1.5200	37.7500
 1.5240	38.2300
 1.5280	38.7400
 1.5320	39.1400
 1.5360	39.5200
 1.5400	39.8700
 1.5440	40.1300
 1.5480	40.3000
 1.5520	40.5100
 1.5560	40.6700
 1.5600	40.8100
 1.5640	41.0000
 1.5680	41.1000
 1.5720	41.3300
 1.5760	41.3700
 1.5800	41.4800
 1.5840	41.6300
 1.5880	41.7100
 1.5920	41.8100
 1.5960	41.9400
 1.6000	41.9800
 1.6040	42.1200
 1.6080	42.2400
 1.6120	42.3400
 1.6160	42.5700
 1.6200	42.7600
 1.6240	42.8800
 1.6280	43.0900
 1.6320	43.2700
 1.6360	43.3700
 1.6400	43.5200
 1.6440	43.6300
 1.6480	43.7900
 1.6520	44.0800
 1.6560	44.2100
 1.6600	44.3500
 1.6640	44.5400
 1.6680	44.5400
 1.6720	44.6000
 1.6760	44.6200
 1.6800	44.5400
 1.6840	44.5300
 1.6880	44.4600
 1.6920	44.3600
 1.6960	44.0800
 1.7000	43.6100
 1.7040	43.2200
 1.7080	42.6500
 1.7120	42.0800
 1.7160	41.3800
 1.7200	40.6700
 1.7240	39.9400
 1.7280	39.2400
 1.7320	38.4300
 1.7360	37.8800
 1.7400	37.4200
 1.7440	36.9400
 1.7480	36.6200
 1.7520	36.3200
 1.7560	36.1700
 1.7600	35.9500
 1.7640	35.7900
 1.7680	35.6300
 1.7720	35.4500
 1.7760	35.2400
 1.7800	35.1000
 1.7840	34.9500
 1.7880	34.7000
 1.7920	34.5500
 1.7960	34.4300
 1.8000	34.2000
 1.8040	34.0400
 1.8080	33.7900
 1.8120	33.5500
 1.8160	33.3100
 1.8200	33.0000
 1.8240	32.7000
 1.8280	32.2300
 1.8320	31.7100
 1.8360	31.1800
 1.8400	30.4900
 1.8440	29.5300
 1.8480	28.5100
 1.8520	27.3900
 1.8560	26.0100
 1.8600	24.4400
 1.8640	22.5000
 1.8680	20.3600
 1.8720	17.9900
 1.8760	15.5900
 1.8800	13.3600
 1.8840	11.1500
 1.8880	 9.0900
 1.8920	 7.2300
 1.8960	 5.6400
 1.9000	 4.4600
 1.9040	 3.6100
 1.9080	 3.0500
 1.9120	 2.8600
 1.9160	 2.8300
 1.9200	 2.9600
 1.9240	 3.2000
 1.9280	 3.4900
 1.9320	 3.8400
 1.9360	 4.1900
 1.9400	 4.5400
 1.9440	 4.8600
 1.9480	 5.1600
 1.9520	 5.4900
 1.9560	 5.8000
 1.9600	 6.0800
 1.9640	 6.4800
 1.9680	 6.7400
 1.9720	 7.0700
 1.9760	 7.3900
 1.9800	 7.7700
 1.9840	 8.1600
 1.9880	 8.5200
 1.9920	 9.0900
 1.9960	 9.5500
 2.0000	10.1200
 2.0040	10.8200
 2.0080	11.4000
 2.0120	12.0700
 2.0160	12.7100
 2.0200	13.3100
 2.0240	13.9300
 2.0280	14.4300
 2.0320	15.0000
 2.0360	15.5600
 2.0400	16.0000
 2.0440	16.4700
 2.0480	16.8400
 2.0520	17.2400
 2.0560	17.5800
 2.0600	17.6800
 2.0640	17.9400
 2.0680	18.1600
 2.0720	18.3100
 2.0760	18.5300
 2.0800	18.7800
 2.0840	18.9800
 2.0880	19.2200
 2.0920	19.4000
 2.0960	19.5900
 2.1000	19.8700
 2.1040	20.0100
 2.1080	20.1800
 2.1120	20.3600
 2.1160	20.6800
 2.1200	20.8100
 2.1240	20.9700
 2.1280	21.1200
 2.1320	21.3400
 2.1360	21.4400
 2.1400	21.6100
 2.1440	21.7000
 2.1480	21.7800
 2.1520	21.9000
 2.1560	21.8600
 2.1600	21.9600
 2.1640	22.0800
 2.1680	22.0800
 2.1720	22.1600
 2.1760	22.1800
 2.1800	22.1700
 2.1840	22.1700
 2.1880	22.1700
 2.1920	22.1200
 2.1960	22.0800
 2.2000	22.0500
 2.2040	22.0400
 2.2080	22.0800
 2.2120	22.0700
 2.2160	22.0400
 2.2200	21.9600
 2.2240	21.9100
 2.2280	21.7800
 2.2320	21.6500
 2.2360	21.5000
 2.2400	21.4200
 2.2440	21.2200
 2.2480	21.1200
 2.2520	20.8800
 2.2560	20.6800
 2.2600	20.4100
 2.2640	20.2000
 2.2680	19.9300
 2.2720	19.5500
 2.2760	19.2900
 2.2800	18.9500
 2.2840	18.6600
 2.2880	18.2900
 2.2920	17.8800
 2.2960	17.3200
 2.3000	16.9200
 2.3040	16.2500
 2.3080	15.6900
 2.3120	15.1600
 2.3160	14.6700
 2.3200	14.2100
 2.3240	13.6400
 2.3280	13.2500
 2.3320	12.7700
 2.3360	12.1800
 2.3400	11.5600
 2.3440	11.0500
 2.3480	10.4000
 2.3520	 9.8000
 2.3560	 9.2300
 2.3600	 8.6800
 2.3640	 8.1400
 2.3680	 7.6000
 2.3720	 7.0800
 2.3760	 6.6300
 2.3800	 6.1200
 2.3840	 5.6300
 2.3880	 5.2300
 2.3920	 4.9100
 2.3960	 4.5900
 2.4000	 4.3100
 2.4040	 4.0700
 2.4080	 3.8600
 2.4120	 3.6400
 2.4160	 3.4700
 2.4200	 3.3100
 2.4240	 3.1400
 2.4280	 2.9700
 2.4320	 2.8600
 2.4360	 2.8100
 2.4400	 2.7400
 2.4440	 2.6900
 2.4480	 2.6400
 2.4520	 2.5900
 2.4560	 2.5300
 2.4600	 2.4700
 2.4640	 2.3500
 2.4680	 2.3100
 2.4720	 2.2100
 2.4760	 2.2600
 2.4800	 2.2500
 2.4840	 2.2000
 2.4880	 2.2000
 2.4920	 2.1400
 2.4960	 2.1500
 2.5000	 2.0400
