Name: Labradorite (Feldspar) (NaSi,CaAl)AlSi_2O_8
Type: Mineral
Class: Silicate
Subclass: Tectosilicate
Particle Size: Fine
Sample No.: TS-2A
Owner: JPL
Wavelength Range: VSWIR
Origin: Mexico, Sonora, Pinacate.
Collection Date: N/A
Description: Particle size was 0-45um. Collected by:  Burminco Original ASTER Spectral Library name was jpl.perkin.mineral.silicate.tectosilicate.fine.ts02a.spectrum.txt
Measurement: Hemispherical reflectance
First Column: X
Second Column: Y
X Units: Wavelength (micrometers)
Y Units:Reflectance (percent)
First X Value:  2.5000
Last X Value:  0.4000
Number of X Values: 2101
Additional Information: mineral.silicate.tectosilicate.fine.vswir.ts-2a.jpl.perkin.ancillary.txt

 2.5000	91.7016
 2.4990	91.4958
 2.4980	91.6189
 2.4970	91.5516
 2.4960	91.5324
 2.4950	91.5681
 2.4940	91.6121
 2.4930	91.5423
 2.4920	91.6792
 2.4910	91.5987
 2.4900	91.5742
 2.4890	91.5179
 2.4880	91.5729
 2.4870	91.6496
 2.4860	91.5731
 2.4850	91.6807
 2.4840	91.6034
 2.4830	91.5050
 2.4820	91.6386
 2.4810	91.5505
 2.4800	91.5643
 2.4790	91.5377
 2.4780	91.5752
 2.4770	91.5168
 2.4760	91.4764
 2.4750	91.5857
 2.4740	91.4822
 2.4730	91.5882
 2.4720	91.6003
 2.4710	91.5899
 2.4700	91.6336
 2.4690	91.6663
 2.4680	91.6597
 2.4670	91.6933
 2.4660	91.7101
 2.4650	91.6152
 2.4640	91.7019
 2.4630	91.7966
 2.4620	91.6447
 2.4610	91.5666
 2.4600	91.6757
 2.4590	91.5881
 2.4580	91.7016
 2.4570	91.6195
 2.4560	91.6864
 2.4550	91.6083
 2.4540	91.5798
 2.4530	91.5931
 2.4520	91.6484
 2.4510	91.7347
 2.4500	91.6758
 2.4490	91.6801
 2.4480	91.6193
 2.4470	91.6289
 2.4460	91.6694
 2.4450	91.6810
 2.4440	91.7078
 2.4430	91.7164
 2.4420	91.6316
 2.4410	91.6193
 2.4400	91.6344
 2.4390	91.6583
 2.4380	91.6018
 2.4370	91.6651
 2.4360	91.6847
 2.4350	91.6995
 2.4340	91.6968
 2.4330	91.6600
 2.4320	91.6637
 2.4310	91.7023
 2.4300	91.6866
 2.4290	91.6988
 2.4280	91.6715
 2.4270	91.5718
 2.4260	91.6932
 2.4250	91.6837
 2.4240	91.7251
 2.4230	91.7287
 2.4220	91.6867
 2.4210	91.6526
 2.4200	91.6807
 2.4190	91.7100
 2.4180	91.7110
 2.4170	91.7163
 2.4160	91.7468
 2.4150	91.7274
 2.4140	91.7410
 2.4130	91.6810
 2.4120	91.6907
 2.4110	91.6713
 2.4100	91.7267
 2.4090	91.7631
 2.4080	91.7075
 2.4070	91.6883
 2.4060	91.7038
 2.4050	91.6527
 2.4040	91.7055
 2.4030	91.7339
 2.4020	91.7126
 2.4010	91.6977
 2.4000	91.7348
 2.3990	91.7320
 2.3980	91.7111
 2.3970	91.6955
 2.3960	91.6917
 2.3950	91.7211
 2.3940	91.6956
 2.3930	91.6881
 2.3920	91.6534
 2.3910	91.6814
 2.3900	91.7484
 2.3890	91.7210
 2.3880	91.7117
 2.3870	91.7237
 2.3860	91.7463
 2.3850	91.6967
 2.3840	91.6931
 2.3830	91.6973
 2.3820	91.6815
 2.3810	91.7325
 2.3800	91.7150
 2.3790	91.6767
 2.3780	91.7333
 2.3770	91.7365
 2.3760	91.7285
 2.3750	91.6947
 2.3740	91.6578
 2.3730	91.7313
 2.3720	91.7196
 2.3710	91.7079
 2.3700	91.7158
 2.3690	91.6647
 2.3680	91.6794
 2.3670	91.7444
 2.3660	91.7279
 2.3650	91.7231
 2.3640	91.7176
 2.3630	91.6773
 2.3620	91.7029
 2.3610	91.6807
 2.3600	91.6427
 2.3590	91.6784
 2.3580	91.6853
 2.3570	91.6472
 2.3560	91.6385
 2.3550	91.6218
 2.3540	91.6527
 2.3530	91.6742
 2.3520	91.6341
 2.3510	91.6356
 2.3500	91.6395
 2.3490	91.5911
 2.3480	91.5841
 2.3470	91.5968
 2.3460	91.5587
 2.3450	91.5756
 2.3440	91.6133
 2.3430	91.5509
 2.3420	91.5281
 2.3410	91.5953
 2.3400	91.5791
 2.3390	91.4848
 2.3380	91.4352
 2.3370	91.5111
 2.3360	91.5153
 2.3350	91.5046
 2.3340	91.4769
 2.3330	91.4818
 2.3320	91.5125
 2.3310	91.4878
 2.3300	91.3971
 2.3290	91.4123
 2.3280	91.4174
 2.3270	91.4126
 2.3260	91.3639
 2.3250	91.3377
 2.3240	91.3680
 2.3230	91.3729
 2.3220	91.3429
 2.3210	91.3119
 2.3200	91.3041
 2.3190	91.2947
 2.3180	91.2939
 2.3170	91.2477
 2.3160	91.2449
 2.3150	91.2579
 2.3140	91.2344
 2.3130	91.2428
 2.3120	91.2444
 2.3110	91.2185
 2.3100	91.1436
 2.3090	91.1906
 2.3080	91.1759
 2.3070	91.1380
 2.3060	91.1442
 2.3050	91.1431
 2.3040	91.1548
 2.3030	91.1227
 2.3020	91.1134
 2.3010	91.1517
 2.3000	91.1314
 2.2990	91.0810
 2.2980	91.0828
 2.2970	91.0434
 2.2960	91.0217
 2.2950	90.9880
 2.2940	90.9913
 2.2930	91.0404
 2.2920	91.0351
 2.2910	91.0150
 2.2900	90.9848
 2.2890	90.9759
 2.2880	91.0002
 2.2870	91.0309
 2.2860	90.9896
 2.2850	90.9320
 2.2840	90.9295
 2.2830	90.9513
 2.2820	90.9929
 2.2810	90.9727
 2.2800	90.9259
 2.2790	90.9566
 2.2780	90.9441
 2.2770	90.9274
 2.2760	90.8873
 2.2750	90.9124
 2.2740	90.9337
 2.2730	90.9081
 2.2720	90.8857
 2.2710	90.9043
 2.2700	90.8703
 2.2690	90.8883
 2.2680	90.8502
 2.2670	90.8949
 2.2660	90.8540
 2.2650	90.8864
 2.2640	90.7883
 2.2630	90.8148
 2.2620	90.8283
 2.2610	90.8094
 2.2600	90.7470
 2.2590	90.8633
 2.2580	90.7776
 2.2570	90.7779
 2.2560	90.8589
 2.2550	90.7975
 2.2540	90.8068
 2.2530	90.8157
 2.2520	90.7681
 2.2510	90.8139
 2.2500	90.7097
 2.2490	90.7578
 2.2480	90.7152
 2.2470	90.7575
 2.2460	90.7182
 2.2450	90.6713
 2.2440	90.7160
 2.2430	90.7071
 2.2420	90.7701
 2.2410	90.7340
 2.2400	90.7485
 2.2390	90.7479
 2.2380	90.7364
 2.2370	90.7156
 2.2360	90.7414
 2.2350	90.6839
 2.2340	90.7136
 2.2330	90.7060
 2.2320	90.6821
 2.2310	90.6897
 2.2300	90.7088
 2.2290	90.6592
 2.2280	90.7233
 2.2270	90.7109
 2.2260	90.6972
 2.2250	90.6718
 2.2240	90.6541
 2.2230	90.7248
 2.2220	90.7812
 2.2210	90.7361
 2.2200	90.7504
 2.2190	90.6924
 2.2180	90.7052
 2.2170	90.7800
 2.2160	90.7048
 2.2150	90.7572
 2.2140	90.8069
 2.2130	90.7697
 2.2120	90.7655
 2.2110	90.7567
 2.2100	90.8049
 2.2090	90.8190
 2.2080	90.7282
 2.2070	90.7597
 2.2060	90.7613
 2.2050	90.8605
 2.2040	90.8250
 2.2030	90.7963
 2.2020	90.8647
 2.2010	90.8289
 2.2000	90.9136
 2.1990	90.8643
 2.1980	90.8789
 2.1970	90.9644
 2.1960	90.8945
 2.1950	90.9288
 2.1940	90.9512
 2.1930	90.9824
 2.1920	91.0069
 2.1910	91.0244
 2.1900	90.9489
 2.1890	91.0495
 2.1880	91.0923
 2.1870	91.0958
 2.1860	91.0925
 2.1850	91.1235
 2.1840	91.1780
 2.1830	91.1563
 2.1820	91.2153
 2.1810	91.1350
 2.1800	91.2239
 2.1790	91.2428
 2.1780	91.2304
 2.1770	91.2445
 2.1760	91.2885
 2.1750	91.3226
 2.1740	91.3470
 2.1730	91.3444
 2.1720	91.4461
 2.1710	91.4080
 2.1700	91.4440
 2.1690	91.4768
 2.1680	91.5089
 2.1670	91.5254
 2.1660	91.5353
 2.1650	91.5833
 2.1640	91.6106
 2.1630	91.6272
 2.1620	91.6747
 2.1610	91.6643
 2.1600	91.7775
 2.1590	91.7365
 2.1580	91.7251
 2.1570	91.8164
 2.1560	91.8350
 2.1550	91.7766
 2.1540	91.8013
 2.1530	91.8150
 2.1520	91.8173
 2.1510	91.8681
 2.1500	91.9032
 2.1490	91.9205
 2.1480	91.9416
 2.1470	91.9811
 2.1460	91.9939
 2.1450	91.9352
 2.1440	92.0005
 2.1430	92.0067
 2.1420	92.0175
 2.1410	92.0104
 2.1400	92.0203
 2.1390	92.0513
 2.1380	92.0757
 2.1370	92.0007
 2.1360	92.0486
 2.1350	92.0530
 2.1340	92.0329
 2.1330	92.0337
 2.1320	91.9957
 2.1310	92.0404
 2.1300	92.0279
 2.1290	92.0270
 2.1280	92.0112
 2.1270	91.9680
 2.1260	92.0219
 2.1250	91.9930
 2.1240	91.9909
 2.1230	91.9652
 2.1220	91.9523
 2.1210	91.9124
 2.1200	91.8987
 2.1190	91.9275
 2.1180	91.8896
 2.1170	91.9080
 2.1160	91.8732
 2.1150	91.8799
 2.1140	91.8698
 2.1130	91.8624
 2.1120	91.8255
 2.1110	91.7848
 2.1100	91.8179
 2.1090	91.7762
 2.1080	91.7492
 2.1070	91.7445
 2.1060	91.7478
 2.1050	91.7641
 2.1040	91.7554
 2.1030	91.7274
 2.1020	91.7257
 2.1010	91.6886
 2.1000	91.6662
 2.0990	91.6484
 2.0980	91.6350
 2.0970	91.7052
 2.0960	91.7108
 2.0950	91.6530
 2.0940	91.5906
 2.0930	91.6372
 2.0920	91.6470
 2.0910	91.6673
 2.0900	91.6373
 2.0890	91.5639
 2.0880	91.5599
 2.0870	91.5672
 2.0860	91.5559
 2.0850	91.5453
 2.0840	91.5597
 2.0830	91.5726
 2.0820	91.5456
 2.0810	91.5373
 2.0800	91.5307
 2.0790	91.5082
 2.0780	91.5087
 2.0770	91.5076
 2.0760	91.4740
 2.0750	91.4447
 2.0740	91.4316
 2.0730	91.4705
 2.0720	91.4674
 2.0710	91.4193
 2.0700	91.4291
 2.0690	91.4070
 2.0680	91.4156
 2.0670	91.4172
 2.0660	91.4361
 2.0650	91.3857
 2.0640	91.3579
 2.0630	91.4093
 2.0620	91.4395
 2.0610	91.3897
 2.0600	91.3648
 2.0590	91.3666
 2.0580	91.3215
 2.0570	91.3581
 2.0560	91.3372
 2.0550	91.3033
 2.0540	91.3370
 2.0530	91.2851
 2.0520	91.2662
 2.0510	91.2714
 2.0500	91.2732
 2.0490	91.2677
 2.0480	91.2669
 2.0470	91.2826
 2.0460	91.2990
 2.0450	91.2690
 2.0440	91.2752
 2.0430	91.2420
 2.0420	91.1838
 2.0410	91.1550
 2.0400	91.1869
 2.0390	91.2036
 2.0380	91.1586
 2.0370	91.1562
 2.0360	91.1485
 2.0350	91.1540
 2.0340	91.1488
 2.0330	91.1266
 2.0320	91.0858
 2.0310	91.0911
 2.0300	91.0771
 2.0290	91.0568
 2.0280	91.0126
 2.0270	91.0225
 2.0260	91.0496
 2.0250	91.0160
 2.0240	90.9341
 2.0230	90.9234
 2.0220	90.9381
 2.0210	90.9690
 2.0200	90.9539
 2.0190	90.9366
 2.0180	90.8908
 2.0170	90.8755
 2.0160	90.8705
 2.0150	90.8256
 2.0140	90.8079
 2.0130	90.7679
 2.0120	90.8435
 2.0110	90.8180
 2.0100	90.7826
 2.0090	90.7985
 2.0080	90.7529
 2.0070	90.7318
 2.0060	90.7240
 2.0050	90.7305
 2.0040	90.7433
 2.0030	90.7346
 2.0020	90.6921
 2.0010	90.7054
 2.0000	90.6655
 1.9990	90.6691
 1.9980	90.6552
 1.9970	90.6102
 1.9960	90.6148
 1.9950	90.5970
 1.9940	90.6155
 1.9930	90.5671
 1.9920	90.5633
 1.9910	90.5417
 1.9900	90.4805
 1.9890	90.4685
 1.9880	90.5041
 1.9870	90.4843
 1.9860	90.5149
 1.9850	90.4714
 1.9840	90.4871
 1.9830	90.3933
 1.9820	90.4316
 1.9810	90.4331
 1.9800	90.4426
 1.9790	90.3425
 1.9780	90.4139
 1.9770	90.3839
 1.9760	90.3295
 1.9750	90.3373
 1.9740	90.3178
 1.9730	90.3652
 1.9720	90.3366
 1.9710	90.2831
 1.9700	90.3026
 1.9690	90.3279
 1.9680	90.2858
 1.9670	90.2467
 1.9660	90.2740
 1.9650	90.2640
 1.9640	90.2152
 1.9630	90.2087
 1.9620	90.2071
 1.9610	90.1572
 1.9600	90.2580
 1.9590	90.2046
 1.9580	90.2137
 1.9570	90.2024
 1.9560	90.2173
 1.9550	90.2260
 1.9540	90.2250
 1.9530	90.1765
 1.9520	90.1554
 1.9510	90.1976
 1.9500	90.1801
 1.9490	90.1636
 1.9480	90.0974
 1.9470	90.1147
 1.9460	90.1389
 1.9450	90.1131
 1.9440	90.0996
 1.9430	90.1019
 1.9420	90.1058
 1.9410	90.0281
 1.9400	90.0382
 1.9390	90.0948
 1.9380	90.1213
 1.9370	90.0844
 1.9360	90.0812
 1.9350	90.1297
 1.9340	90.0840
 1.9330	90.0729
 1.9320	90.0347
 1.9310	90.0447
 1.9300	90.0324
 1.9290	90.0265
 1.9280	90.1120
 1.9270	90.0742
 1.9260	90.0515
 1.9250	89.9884
 1.9240	90.0275
 1.9230	90.0424
 1.9220	90.0619
 1.9210	90.0421
 1.9200	90.0238
 1.9190	90.0963
 1.9180	90.0546
 1.9170	90.0249
 1.9160	90.0745
 1.9150	90.0561
 1.9140	90.0347
 1.9130	90.0740
 1.9120	90.0893
 1.9110	90.1062
 1.9100	90.0911
 1.9090	90.0646
 1.9080	90.0834
 1.9070	90.0516
 1.9060	90.0595
 1.9050	90.1281
 1.9040	90.1511
 1.9030	90.0605
 1.9020	90.1622
 1.9010	90.1440
 1.9000	90.1249
 1.8990	90.1948
 1.8980	90.2599
 1.8970	90.2015
 1.8960	90.1858
 1.8950	90.2004
 1.8940	90.2199
 1.8930	90.2185
 1.8920	90.2422
 1.8910	90.2671
 1.8900	90.2305
 1.8890	90.2107
 1.8880	90.2502
 1.8870	90.2543
 1.8860	90.2519
 1.8850	90.2644
 1.8840	90.2858
 1.8830	90.2475
 1.8820	90.2557
 1.8810	90.2913
 1.8800	90.3286
 1.8790	90.2281
 1.8780	90.3500
 1.8770	90.3365
 1.8760	90.3129
 1.8750	90.3092
 1.8740	90.2816
 1.8730	90.2945
 1.8720	90.2779
 1.8710	90.2889
 1.8700	90.2646
 1.8690	90.2794
 1.8680	90.2800
 1.8670	90.2411
 1.8660	90.2868
 1.8650	90.3129
 1.8640	90.3156
 1.8630	90.2806
 1.8620	90.3293
 1.8610	90.3646
 1.8600	90.3392
 1.8590	90.3130
 1.8580	90.2949
 1.8570	90.2894
 1.8560	90.3150
 1.8550	90.2626
 1.8540	90.3115
 1.8530	90.2726
 1.8520	90.2920
 1.8510	90.2980
 1.8500	90.3186
 1.8490	90.2687
 1.8480	90.2561
 1.8470	90.2175
 1.8460	90.2423
 1.8450	90.2943
 1.8440	90.2748
 1.8430	90.2528
 1.8420	90.2687
 1.8410	90.2390
 1.8400	90.2214
 1.8390	90.2213
 1.8380	90.2418
 1.8370	90.2790
 1.8360	90.2298
 1.8350	90.2173
 1.8340	90.2466
 1.8330	90.2687
 1.8320	90.2222
 1.8310	90.2328
 1.8300	90.1922
 1.8290	90.1537
 1.8280	90.1713
 1.8270	90.1959
 1.8260	90.2337
 1.8250	90.1993
 1.8240	90.1974
 1.8230	90.1756
 1.8220	90.1779
 1.8210	90.1815
 1.8200	90.1754
 1.8190	90.1566
 1.8180	90.1571
 1.8170	90.1362
 1.8160	90.1381
 1.8150	90.1188
 1.8140	90.1497
 1.8130	90.1841
 1.8120	90.1762
 1.8110	90.1375
 1.8100	90.1403
 1.8090	90.1723
 1.8080	90.1615
 1.8070	90.1453
 1.8060	90.1442
 1.8050	90.1212
 1.8040	90.1208
 1.8030	90.1271
 1.8020	90.1341
 1.8010	90.1345
 1.8000	90.1233
 1.7990	90.0886
 1.7980	90.0835
 1.7970	90.0900
 1.7960	90.1067
 1.7950	90.1214
 1.7940	90.1044
 1.7930	90.0977
 1.7920	90.0723
 1.7910	90.0775
 1.7900	90.0786
 1.7890	90.0765
 1.7880	90.0800
 1.7870	90.0758
 1.7860	90.1094
 1.7850	90.1114
 1.7840	90.0845
 1.7830	90.0594
 1.7820	90.0617
 1.7810	90.0764
 1.7800	90.0862
 1.7790	90.0756
 1.7780	90.0326
 1.7770	90.0686
 1.7760	90.0519
 1.7750	90.0763
 1.7740	90.0965
 1.7730	90.0614
 1.7720	90.0970
 1.7710	90.0784
 1.7700	90.0359
 1.7690	90.0258
 1.7680	90.0016
 1.7670	90.0098
 1.7660	90.0401
 1.7650	90.0561
 1.7640	90.0564
 1.7630	90.0257
 1.7620	89.9866
 1.7610	89.9989
 1.7600	90.0581
 1.7590	90.0398
 1.7580	90.0614
 1.7570	90.0821
 1.7560	90.0500
 1.7550	90.0465
 1.7540	90.0594
 1.7530	90.0854
 1.7520	90.0533
 1.7510	90.0836
 1.7500	90.0465
 1.7490	90.0106
 1.7480	90.0642
 1.7470	90.0987
 1.7460	90.0629
 1.7450	90.0602
 1.7440	90.3380
 1.7430	90.2113
 1.7420	90.0741
 1.7410	90.1184
 1.7400	90.1386
 1.7390	90.1085
 1.7380	90.0867
 1.7370	90.1003
 1.7360	90.0805
 1.7350	90.0635
 1.7340	90.0603
 1.7330	90.1109
 1.7320	90.1045
 1.7310	90.0946
 1.7300	90.0615
 1.7290	90.0943
 1.7280	90.1059
 1.7270	90.1341
 1.7260	90.1112
 1.7250	90.0633
 1.7240	90.1302
 1.7230	90.1518
 1.7220	90.1055
 1.7210	90.1273
 1.7200	90.0787
 1.7190	90.0877
 1.7180	90.1114
 1.7170	90.0917
 1.7160	90.1212
 1.7150	90.1474
 1.7140	90.1351
 1.7130	90.1196
 1.7120	90.0716
 1.7110	90.0838
 1.7100	90.0696
 1.7090	90.1096
 1.7080	90.0956
 1.7070	90.0960
 1.7060	90.0780
 1.7050	90.0853
 1.7040	90.1180
 1.7030	90.0872
 1.7020	90.0442
 1.7010	90.0864
 1.7000	90.0851
 1.6990	90.1083
 1.6980	90.0113
 1.6970	90.0347
 1.6960	90.0550
 1.6950	90.0480
 1.6940	90.0399
 1.6930	90.0377
 1.6920	90.0407
 1.6910	90.0238
 1.6900	89.9796
 1.6890	89.9899
 1.6880	90.0654
 1.6870	90.0349
 1.6860	90.0416
 1.6850	90.0505
 1.6840	90.0378
 1.6830	90.0049
 1.6820	90.0041
 1.6810	89.9600
 1.6800	90.0091
 1.6790	90.0113
 1.6780	89.9884
 1.6770	89.9920
 1.6760	90.0246
 1.6750	90.0178
 1.6740	89.9446
 1.6730	89.9680
 1.6720	89.9473
 1.6710	90.0883
 1.6700	89.9735
 1.6690	90.0384
 1.6680	89.9952
 1.6670	89.9615
 1.6660	90.0023
 1.6650	90.0303
 1.6640	89.9716
 1.6630	89.9125
 1.6620	89.9689
 1.6610	89.9134
 1.6600	89.9403
 1.6590	89.9485
 1.6580	89.9516
 1.6570	89.9378
 1.6560	89.9562
 1.6550	89.9812
 1.6540	89.9469
 1.6530	89.9490
 1.6520	89.9540
 1.6510	89.9094
 1.6500	90.0042
 1.6490	89.9449
 1.6480	89.8815
 1.6470	89.9380
 1.6460	89.9196
 1.6450	89.9187
 1.6440	89.8888
 1.6430	89.8864
 1.6420	89.9234
 1.6410	89.8938
 1.6400	89.9788
 1.6390	89.8844
 1.6380	89.8596
 1.6370	89.8605
 1.6360	89.8732
 1.6350	89.8966
 1.6340	89.8628
 1.6330	89.9220
 1.6320	89.9156
 1.6310	89.8647
 1.6300	89.8107
 1.6290	89.8622
 1.6280	89.8839
 1.6270	89.9156
 1.6260	89.8549
 1.6250	89.9597
 1.6240	89.8669
 1.6230	89.8525
 1.6220	89.8905
 1.6210	89.8839
 1.6200	89.8853
 1.6190	89.9096
 1.6180	89.8441
 1.6170	89.8629
 1.6160	89.8739
 1.6150	89.8564
 1.6140	89.8126
 1.6130	89.8696
 1.6120	89.9070
 1.6110	89.8132
 1.6100	89.8553
 1.6090	89.8576
 1.6080	89.7480
 1.6070	89.8462
 1.6060	89.8755
 1.6050	89.8045
 1.6040	89.8900
 1.6030	89.8614
 1.6020	89.8026
 1.6010	89.8907
 1.6000	89.7966
 1.5990	89.8797
 1.5980	89.8145
 1.5970	89.8210
 1.5960	89.7946
 1.5950	89.8634
 1.5940	89.8191
 1.5930	89.8406
 1.5920	89.8612
 1.5910	89.8713
 1.5900	89.8388
 1.5890	89.8522
 1.5880	89.8101
 1.5870	89.8227
 1.5860	89.7465
 1.5850	89.8170
 1.5840	89.7943
 1.5830	89.8261
 1.5820	89.7995
 1.5810	89.8062
 1.5800	89.7255
 1.5790	89.7262
 1.5780	89.7458
 1.5770	89.8047
 1.5760	89.8270
 1.5750	89.8289
 1.5740	89.7796
 1.5730	89.7463
 1.5720	89.7235
 1.5710	89.7456
 1.5700	89.7267
 1.5690	89.7822
 1.5680	89.7670
 1.5670	89.7667
 1.5660	89.7224
 1.5650	89.7518
 1.5640	89.6899
 1.5630	89.7481
 1.5620	89.7625
 1.5610	89.7550
 1.5600	89.7362
 1.5590	89.7071
 1.5580	89.6927
 1.5570	89.7295
 1.5560	89.6922
 1.5550	89.6888
 1.5540	89.7151
 1.5530	89.7431
 1.5520	89.7427
 1.5510	89.7292
 1.5500	89.7048
 1.5490	89.6899
 1.5480	89.7260
 1.5470	89.6747
 1.5460	89.6735
 1.5450	89.6692
 1.5440	89.7072
 1.5430	89.7615
 1.5420	89.7632
 1.5410	89.6925
 1.5400	89.6654
 1.5390	89.6646
 1.5380	89.7014
 1.5370	89.6926
 1.5360	89.6912
 1.5350	89.7164
 1.5340	89.7009
 1.5330	89.6470
 1.5320	89.6380
 1.5310	89.6567
 1.5300	89.6778
 1.5290	89.6539
 1.5280	89.6094
 1.5270	89.6117
 1.5260	89.6381
 1.5250	89.6333
 1.5240	89.6124
 1.5230	89.6587
 1.5220	89.6625
 1.5210	89.6256
 1.5200	89.6085
 1.5190	89.6247
 1.5180	89.6500
 1.5170	89.6312
 1.5160	89.5856
 1.5150	89.5758
 1.5140	89.5775
 1.5130	89.6174
 1.5120	89.5786
 1.5110	89.5261
 1.5100	89.5498
 1.5090	89.5657
 1.5080	89.5698
 1.5070	89.5622
 1.5060	89.5584
 1.5050	89.5563
 1.5040	89.5305
 1.5030	89.5182
 1.5020	89.5404
 1.5010	89.5399
 1.5000	89.5353
 1.4990	89.5309
 1.4980	89.5471
 1.4970	89.5501
 1.4960	89.4931
 1.4950	89.4627
 1.4940	89.4935
 1.4930	89.5111
 1.4920	89.5199
 1.4910	89.5017
 1.4900	89.5267
 1.4890	89.5349
 1.4880	89.4585
 1.4870	89.4571
 1.4860	89.4880
 1.4850	89.4900
 1.4840	89.5018
 1.4830	89.4965
 1.4820	89.4977
 1.4810	89.4691
 1.4800	89.4630
 1.4790	89.4861
 1.4780	89.4367
 1.4770	89.4324
 1.4760	89.4658
 1.4750	89.4406
 1.4740	89.4682
 1.4730	89.4739
 1.4720	89.4428
 1.4710	89.4190
 1.4700	89.4251
 1.4690	89.4120
 1.4680	89.4277
 1.4670	89.4278
 1.4660	89.3998
 1.4650	89.3996
 1.4640	89.4426
 1.4630	89.4104
 1.4620	89.4040
 1.4610	89.4229
 1.4600	89.4062
 1.4590	89.3913
 1.4580	89.3388
 1.4570	89.3540
 1.4560	89.3366
 1.4550	89.3210
 1.4540	89.3558
 1.4530	89.3404
 1.4520	89.3473
 1.4510	89.3341
 1.4500	89.3322
 1.4490	89.3298
 1.4480	89.3521
 1.4470	89.3656
 1.4460	89.3709
 1.4450	89.3493
 1.4440	89.3746
 1.4430	89.3515
 1.4420	89.3165
 1.4410	89.2779
 1.4400	89.2852
 1.4390	89.3099
 1.4380	89.3064
 1.4370	89.2812
 1.4360	89.2913
 1.4350	89.2751
 1.4340	89.2594
 1.4330	89.2528
 1.4320	89.2449
 1.4310	89.2428
 1.4300	89.2655
 1.4290	89.2611
 1.4280	89.3475
 1.4270	89.2800
 1.4260	89.2479
 1.4250	89.2343
 1.4240	89.2512
 1.4230	89.2470
 1.4220	89.2223
 1.4210	89.2568
 1.4200	89.2375
 1.4190	89.2425
 1.4180	89.2235
 1.4170	89.1618
 1.4160	89.1637
 1.4150	89.1856
 1.4140	89.2139
 1.4130	89.1939
 1.4120	89.1710
 1.4110	89.1987
 1.4100	89.2089
 1.4090	89.1727
 1.4080	89.1766
 1.4070	89.1893
 1.4060	89.1881
 1.4050	89.1703
 1.4040	89.2060
 1.4030	89.2179
 1.4020	89.2487
 1.4010	89.1855
 1.4000	89.1607
 1.3990	89.1349
 1.3980	89.1404
 1.3970	89.0980
 1.3960	89.1808
 1.3950	89.1720
 1.3940	89.1948
 1.3930	89.1896
 1.3920	89.1392
 1.3910	89.1689
 1.3900	89.1900
 1.3890	89.1402
 1.3880	89.1158
 1.3870	89.1744
 1.3860	89.2153
 1.3850	89.2279
 1.3840	89.1786
 1.3830	89.1748
 1.3820	89.1343
 1.3810	89.1376
 1.3800	89.1352
 1.3790	89.1396
 1.3780	89.1602
 1.3770	89.1876
 1.3760	89.2062
 1.3750	89.1491
 1.3740	89.1544
 1.3730	89.1332
 1.3720	89.0822
 1.3710	89.1672
 1.3700	89.1471
 1.3690	89.1383
 1.3680	89.1448
 1.3670	89.1292
 1.3660	89.1513
 1.3650	89.1343
 1.3640	89.1476
 1.3630	89.1141
 1.3620	89.1488
 1.3610	89.0212
 1.3600	89.1339
 1.3590	89.1220
 1.3580	89.1265
 1.3570	89.0807
 1.3560	89.0854
 1.3550	89.0204
 1.3540	89.0979
 1.3530	89.0103
 1.3520	89.0854
 1.3510	89.0168
 1.3500	89.0545
 1.3490	89.0290
 1.3480	89.0476
 1.3470	89.0871
 1.3460	89.0208
 1.3450	89.0209
 1.3440	89.0171
 1.3430	89.0319
 1.3420	89.0489
 1.3410	89.0193
 1.3400	89.0298
 1.3390	89.0603
 1.3380	89.0594
 1.3370	89.0469
 1.3360	89.0213
 1.3350	89.0492
 1.3340	89.0373
 1.3330	88.9847
 1.3320	89.0605
 1.3310	88.9857
 1.3300	89.0069
 1.3290	89.0282
 1.3280	89.0429
 1.3270	88.9801
 1.3260	89.0165
 1.3250	89.0116
 1.3240	88.9968
 1.3230	88.9264
 1.3220	89.0420
 1.3210	88.9181
 1.3200	88.9831
 1.3190	89.0231
 1.3180	88.9751
 1.3170	88.9327
 1.3160	89.0252
 1.3150	89.0062
 1.3140	89.0018
 1.3130	88.9448
 1.3120	88.9769
 1.3110	88.9815
 1.3100	89.0281
 1.3090	89.0246
 1.3080	89.0136
 1.3070	88.9559
 1.3060	88.9538
 1.3050	88.9959
 1.3040	88.9356
 1.3030	88.9634
 1.3020	88.9670
 1.3010	88.9992
 1.3000	88.9569
 1.2990	88.9628
 1.2980	89.0040
 1.2970	89.0178
 1.2960	88.9840
 1.2950	88.9096
 1.2940	88.9280
 1.2930	89.0013
 1.2920	88.9761
 1.2910	88.9429
 1.2900	88.9830
 1.2890	88.9577
 1.2880	88.9489
 1.2870	88.9792
 1.2860	88.9596
 1.2850	88.9403
 1.2840	88.9516
 1.2830	88.9532
 1.2820	88.9497
 1.2810	88.9978
 1.2800	88.9849
 1.2790	88.9988
 1.2780	89.0018
 1.2770	88.9645
 1.2760	88.9657
 1.2750	88.9648
 1.2740	88.9443
 1.2730	88.9169
 1.2720	88.9136
 1.2710	88.9184
 1.2700	88.9217
 1.2690	88.9296
 1.2680	88.9328
 1.2670	88.9592
 1.2660	88.9385
 1.2650	88.9283
 1.2640	88.9503
 1.2630	88.9364
 1.2620	88.9196
 1.2610	88.9295
 1.2600	88.9330
 1.2590	88.9051
 1.2580	88.9209
 1.2570	88.9016
 1.2560	88.9428
 1.2550	88.9891
 1.2540	88.9526
 1.2530	88.9508
 1.2520	88.9439
 1.2510	88.9259
 1.2500	88.9737
 1.2490	88.9503
 1.2480	88.9737
 1.2470	88.9890
 1.2460	88.9660
 1.2450	88.9633
 1.2440	88.9890
 1.2430	88.9605
 1.2420	88.9739
 1.2410	88.9732
 1.2400	89.0056
 1.2390	89.0188
 1.2380	89.0091
 1.2370	89.0178
 1.2360	89.0254
 1.2350	89.0340
 1.2340	89.0316
 1.2330	88.9696
 1.2320	88.9527
 1.2310	88.9854
 1.2300	88.9805
 1.2290	88.9798
 1.2280	88.9918
 1.2270	88.9801
 1.2260	88.9793
 1.2250	89.0131
 1.2240	89.0254
 1.2230	89.0054
 1.2220	89.0070
 1.2210	88.9928
 1.2200	88.9902
 1.2190	89.0281
 1.2180	89.0369
 1.2170	89.0210
 1.2160	89.0282
 1.2150	89.0370
 1.2140	89.0144
 1.2130	88.9837
 1.2120	88.9992
 1.2110	88.9976
 1.2100	88.9818
 1.2090	88.9956
 1.2080	89.0292
 1.2070	89.0840
 1.2060	89.1057
 1.2050	89.0820
 1.2040	89.0423
 1.2030	89.0374
 1.2020	89.0677
 1.2010	89.0509
 1.2000	89.0215
 1.1990	89.0620
 1.1980	89.0700
 1.1970	89.0638
 1.1960	89.0516
 1.1950	89.0613
 1.1940	89.0708
 1.1930	89.0568
 1.1920	89.0285
 1.1910	89.0670
 1.1900	89.1108
 1.1890	89.0952
 1.1880	89.0538
 1.1870	89.0562
 1.1860	89.0603
 1.1850	89.0765
 1.1840	89.0963
 1.1830	89.1012
 1.1820	89.0762
 1.1810	89.0899
 1.1800	89.1179
 1.1790	89.1506
 1.1780	89.1375
 1.1770	89.0852
 1.1760	89.1297
 1.1750	89.1403
 1.1740	89.1224
 1.1730	89.1310
 1.1720	89.1365
 1.1710	89.1482
 1.1700	89.1435
 1.1690	89.1246
 1.1680	89.1257
 1.1670	89.2136
 1.1660	89.1479
 1.1650	89.1572
 1.1640	89.1848
 1.1630	89.2123
 1.1620	89.1776
 1.1610	89.2178
 1.1600	89.2125
 1.1590	89.2239
 1.1580	89.2404
 1.1570	89.2201
 1.1560	89.2033
 1.1550	89.2091
 1.1540	89.1918
 1.1530	89.2703
 1.1520	89.2288
 1.1510	89.2062
 1.1500	89.2345
 1.1490	89.2688
 1.1480	89.2161
 1.1470	89.2230
 1.1460	89.2312
 1.1450	89.2554
 1.1440	89.2693
 1.1430	89.2328
 1.1420	89.2443
 1.1410	89.2810
 1.1400	89.2726
 1.1390	89.3274
 1.1380	89.2610
 1.1370	89.3269
 1.1360	89.2803
 1.1350	89.2917
 1.1340	89.2949
 1.1330	89.3151
 1.1320	89.2958
 1.1310	89.3368
 1.1300	89.3047
 1.1290	89.3041
 1.1280	89.3608
 1.1270	89.4038
 1.1260	89.3439
 1.1250	89.2953
 1.1240	89.3019
 1.1230	89.3599
 1.1220	89.3441
 1.1210	89.3627
 1.1200	89.3619
 1.1190	89.4057
 1.1180	89.3821
 1.1170	89.3673
 1.1160	89.3755
 1.1150	89.3737
 1.1140	89.4236
 1.1130	89.4066
 1.1120	89.3785
 1.1110	89.3790
 1.1100	89.3660
 1.1090	89.4092
 1.1080	89.4113
 1.1070	89.4582
 1.1060	89.4418
 1.1050	89.4627
 1.1040	89.4579
 1.1030	89.4841
 1.1020	89.4043
 1.1010	89.3941
 1.1000	89.4847
 1.0990	89.4707
 1.0980	89.4974
 1.0970	89.5618
 1.0960	89.4714
 1.0950	89.4800
 1.0940	89.4138
 1.0930	89.5326
 1.0920	89.5070
 1.0910	89.4761
 1.0900	89.5432
 1.0890	89.4998
 1.0880	89.5459
 1.0870	89.5428
 1.0860	89.5959
 1.0850	89.5449
 1.0840	89.5871
 1.0830	89.5841
 1.0820	89.5949
 1.0810	89.6044
 1.0800	89.5984
 1.0790	89.5426
 1.0780	89.5176
 1.0770	89.6151
 1.0760	89.6226
 1.0750	89.5705
 1.0740	89.5873
 1.0730	89.5967
 1.0720	89.6467
 1.0710	89.6388
 1.0700	89.5777
 1.0690	89.6001
 1.0680	89.6531
 1.0670	89.6519
 1.0660	89.6609
 1.0650	89.6847
 1.0640	89.6432
 1.0630	89.7097
 1.0620	89.6246
 1.0610	89.7270
 1.0600	89.6776
 1.0590	89.6998
 1.0580	89.7171
 1.0570	89.7312
 1.0560	89.7064
 1.0550	89.7381
 1.0540	89.7344
 1.0530	89.7722
 1.0520	89.7377
 1.0510	89.7347
 1.0500	89.7728
 1.0490	89.7602
 1.0480	89.6988
 1.0470	89.7358
 1.0460	89.7145
 1.0450	89.7699
 1.0440	89.7680
 1.0430	89.7839
 1.0420	89.7687
 1.0410	89.8046
 1.0400	89.8185
 1.0390	89.8249
 1.0380	89.8157
 1.0370	89.8485
 1.0360	89.8256
 1.0350	89.8698
 1.0340	89.8426
 1.0330	89.7879
 1.0320	89.8418
 1.0310	89.8637
 1.0300	89.8486
 1.0290	89.7816
 1.0280	89.8748
 1.0270	89.9045
 1.0260	89.8574
 1.0250	89.8736
 1.0240	89.8816
 1.0230	89.8935
 1.0220	89.8679
 1.0210	89.8525
 1.0200	89.8855
 1.0190	89.9081
 1.0180	89.9109
 1.0170	89.9258
 1.0160	89.9512
 1.0150	89.9567
 1.0140	89.8904
 1.0130	89.9249
 1.0120	89.8768
 1.0110	89.9003
 1.0100	89.9538
 1.0090	89.9472
 1.0080	89.9361
 1.0070	89.9906
 1.0060	90.0222
 1.0050	89.9561
 1.0040	89.9565
 1.0030	90.0408
 1.0020	89.9650
 1.0010	89.9885
 1.0000	89.9926
 0.9990	90.0066
 0.9980	90.0192
 0.9970	90.0181
 0.9960	90.0246
 0.9950	90.0232
 0.9940	90.0454
 0.9930	90.0474
 0.9920	90.0936
 0.9910	90.0767
 0.9900	90.0685
 0.9890	90.0650
 0.9880	90.0915
 0.9870	90.0902
 0.9860	90.0910
 0.9850	90.0812
 0.9840	90.0887
 0.9830	90.1180
 0.9820	90.1257
 0.9810	90.1424
 0.9800	90.1318
 0.9790	90.1410
 0.9780	90.1411
 0.9770	90.1323
 0.9760	90.1381
 0.9750	90.1444
 0.9740	90.1302
 0.9730	90.1167
 0.9720	90.1344
 0.9710	90.1257
 0.9700	90.1320
 0.9690	90.1349
 0.9680	90.1697
 0.9670	90.1937
 0.9660	90.2158
 0.9650	90.1710
 0.9640	90.1611
 0.9630	90.2051
 0.9620	90.2488
 0.9610	90.2160
 0.9600	90.1883
 0.9590	90.2023
 0.9580	90.2119
 0.9570	90.2076
 0.9560	90.2097
 0.9550	90.2538
 0.9540	90.2670
 0.9530	90.2710
 0.9520	90.2417
 0.9510	90.2113
 0.9500	90.2412
 0.9490	90.2330
 0.9480	90.2176
 0.9470	90.2227
 0.9460	90.2397
 0.9450	90.2576
 0.9440	90.2631
 0.9430	90.2970
 0.9420	90.2890
 0.9410	90.2805
 0.9400	90.3016
 0.9390	90.2689
 0.9380	90.2534
 0.9370	90.2900
 0.9360	90.3054
 0.9350	90.3392
 0.9340	90.3460
 0.9330	90.3071
 0.9320	90.3136
 0.9310	90.3155
 0.9300	90.3099
 0.9290	90.3187
 0.9280	90.3176
 0.9270	90.3117
 0.9260	90.2958
 0.9250	90.2792
 0.9240	90.2900
 0.9230	90.3372
 0.9220	90.3388
 0.9210	90.3277
 0.9200	90.3270
 0.9190	90.3237
 0.9180	90.3674
 0.9170	90.3462
 0.9160	90.3296
 0.9150	90.3308
 0.9140	90.3307
 0.9130	90.3137
 0.9120	90.3270
 0.9110	90.3159
 0.9100	90.3307
 0.9090	90.3660
 0.9080	90.3914
 0.9070	90.4150
 0.9060	90.3211
 0.9050	90.3412
 0.9040	90.3966
 0.9030	90.3928
 0.9020	90.3579
 0.9010	90.3379
 0.9000	90.3756
 0.8990	90.3815
 0.8980	90.3719
 0.8970	90.3811
 0.8960	90.3633
 0.8950	90.3588
 0.8940	90.3755
 0.8930	90.3610
 0.8920	90.3245
 0.8910	90.3837
 0.8900	90.4175
 0.8890	90.3705
 0.8880	90.3728
 0.8870	90.3802
 0.8860	90.4036
 0.8850	90.3853
 0.8840	90.3813
 0.8830	90.3782
 0.8820	90.3756
 0.8810	90.3831
 0.8800	90.3898
 0.8790	90.3748
 0.8780	90.3445
 0.8770	90.3468
 0.8760	90.3766
 0.8750	90.3867
 0.8740	90.4247
 0.8730	90.4064
 0.8720	90.3782
 0.8710	90.3522
 0.8700	90.3653
 0.8690	90.3433
 0.8680	90.3734
 0.8670	90.3735
 0.8660	90.3870
 0.8650	90.3630
 0.8640	90.3510
 0.8630	90.3706
 0.8620	90.4124
 0.8610	90.3961
 0.8600	90.2571
 0.8590	90.2653
 0.8580	90.2495
 0.8570	90.2515
 0.8560	90.2206
 0.8550	90.2442
 0.8540	90.2628
 0.8530	90.2261
 0.8520	90.2529
 0.8510	90.2843
 0.8500	90.2891
 0.8490	90.2607
 0.8480	90.2572
 0.8470	90.2601
 0.8460	90.2622
 0.8450	90.2894
 0.8440	90.2614
 0.8430	90.3110
 0.8420	90.3008
 0.8410	90.2810
 0.8400	90.3064
 0.8390	90.3028
 0.8380	90.2962
 0.8370	90.3105
 0.8360	90.2986
 0.8350	90.3134
 0.8340	90.2958
 0.8330	90.3358
 0.8320	90.3182
 0.8310	90.3284
 0.8300	90.3261
 0.8290	90.3412
 0.8280	90.3194
 0.8270	90.3102
 0.8260	90.3205
 0.8250	90.3344
 0.8240	90.3037
 0.8230	90.3240
 0.8220	90.3380
 0.8210	90.3501
 0.8200	90.3245
 0.8190	90.3422
 0.8180	90.3248
 0.8170	90.3383
 0.8160	90.3409
 0.8150	90.3109
 0.8140	90.3128
 0.8130	90.3273
 0.8120	90.3184
 0.8110	90.3302
 0.8100	90.3304
 0.8090	90.3383
 0.8080	90.3516
 0.8070	90.3396
 0.8060	90.3166
 0.8050	90.3407
 0.8040	90.3595
 0.8030	90.3518
 0.8020	90.3300
 0.8010	90.3442
 0.8000	90.3625
 0.7990	90.3274
 0.7980	90.3338
 0.7970	90.3289
 0.7960	90.3154
 0.7950	90.3440
 0.7940	90.3338
 0.7930	90.3330
 0.7920	90.3486
 0.7910	90.3561
 0.7900	90.3546
 0.7890	90.3220
 0.7880	90.3368
 0.7870	90.3381
 0.7860	90.3557
 0.7850	90.3452
 0.7840	90.3351
 0.7830	90.3528
 0.7820	90.3188
 0.7810	90.3361
 0.7800	90.3269
 0.7790	90.3394
 0.7780	90.3085
 0.7770	90.3254
 0.7760	90.3010
 0.7750	90.3133
 0.7740	90.3284
 0.7730	90.3286
 0.7720	90.3180
 0.7710	90.3125
 0.7700	90.2989
 0.7690	90.2922
 0.7680	90.3325
 0.7670	90.3185
 0.7660	90.3306
 0.7650	90.2965
 0.7640	90.3281
 0.7630	90.3091
 0.7620	90.3230
 0.7610	90.3027
 0.7600	90.2898
 0.7590	90.2944
 0.7580	90.3279
 0.7570	90.3224
 0.7560	90.2975
 0.7550	90.3097
 0.7540	90.3063
 0.7530	90.2978
 0.7520	90.2963
 0.7510	90.2983
 0.7500	90.3081
 0.7490	90.2862
 0.7480	90.2865
 0.7470	90.2923
 0.7460	90.2794
 0.7450	90.2885
 0.7440	90.2971
 0.7430	90.2891
 0.7420	90.2816
 0.7410	90.2991
 0.7400	90.2856
 0.7390	90.2868
 0.7380	90.2871
 0.7370	90.2729
 0.7360	90.2699
 0.7350	90.2718
 0.7340	90.2909
 0.7330	90.2631
 0.7320	90.2702
 0.7310	90.2697
 0.7300	90.2792
 0.7290	90.2731
 0.7280	90.2724
 0.7270	90.2676
 0.7260	90.2560
 0.7250	90.2652
 0.7240	90.2675
 0.7230	90.2695
 0.7220	90.2599
 0.7210	90.2580
 0.7200	90.2621
 0.7190	90.2618
 0.7180	90.2444
 0.7170	90.2359
 0.7160	90.2461
 0.7150	90.2318
 0.7140	90.2415
 0.7130	90.2393
 0.7120	90.2309
 0.7110	90.2450
 0.7100	90.2427
 0.7090	90.2340
 0.7080	90.2281
 0.7070	90.2302
 0.7060	90.2278
 0.7050	90.2331
 0.7040	90.2305
 0.7030	90.2191
 0.7020	90.2220
 0.7010	90.2202
 0.7000	90.2129
 0.6990	90.2182
 0.6980	90.2144
 0.6970	90.2046
 0.6960	90.2071
 0.6950	90.2221
 0.6940	90.2196
 0.6930	90.2119
 0.6920	90.2026
 0.6910	90.1875
 0.6900	90.1903
 0.6890	90.1840
 0.6880	90.1812
 0.6870	90.1797
 0.6860	90.1800
 0.6850	90.1818
 0.6840	90.1873
 0.6830	90.1847
 0.6820	90.1749
 0.6810	90.1813
 0.6800	90.1698
 0.6790	90.1691
 0.6780	90.1804
 0.6770	90.1814
 0.6760	90.1676
 0.6750	90.1584
 0.6740	90.1648
 0.6730	90.1586
 0.6720	90.1527
 0.6710	90.1460
 0.6700	90.1491
 0.6690	90.1495
 0.6680	90.1536
 0.6670	90.1499
 0.6660	90.1453
 0.6650	90.1415
 0.6640	90.1339
 0.6630	90.1325
 0.6620	90.1304
 0.6610	90.1156
 0.6600	90.1049
 0.6590	90.1122
 0.6580	90.1191
 0.6570	90.1202
 0.6560	90.1098
 0.6550	90.0996
 0.6540	90.1072
 0.6530	90.1027
 0.6520	90.1005
 0.6510	90.1010
 0.6500	90.0949
 0.6490	90.0936
 0.6480	90.0931
 0.6470	90.0874
 0.6460	90.0835
 0.6450	90.0849
 0.6440	90.0817
 0.6430	90.0719
 0.6420	90.0710
 0.6410	90.0727
 0.6400	90.0624
 0.6390	90.0555
 0.6380	90.0589
 0.6370	90.0549
 0.6360	90.0509
 0.6350	90.0564
 0.6340	90.0538
 0.6330	90.0461
 0.6320	90.0406
 0.6310	90.0314
 0.6300	90.0355
 0.6290	90.0305
 0.6280	90.0273
 0.6270	90.0342
 0.6260	90.0225
 0.6250	90.0155
 0.6240	90.0194
 0.6230	90.0119
 0.6220	90.0082
 0.6210	90.0109
 0.6200	90.0087
 0.6190	90.0047
 0.6180	90.0008
 0.6170	89.9972
 0.6160	89.9851
 0.6150	89.9821
 0.6140	89.9776
 0.6130	89.9721
 0.6120	89.9704
 0.6110	89.9683
 0.6100	89.9691
 0.6090	89.9636
 0.6080	89.9558
 0.6070	89.9540
 0.6060	89.9466
 0.6050	89.9399
 0.6040	89.9356
 0.6030	89.9375
 0.6020	89.9319
 0.6010	89.9251
 0.6000	89.9188
 0.5990	89.9127
 0.5980	89.9126
 0.5970	89.9016
 0.5960	89.8893
 0.5950	89.8928
 0.5940	89.8769
 0.5930	89.8688
 0.5920	89.8779
 0.5910	89.8744
 0.5900	89.8630
 0.5890	89.8622
 0.5880	89.8544
 0.5870	89.8455
 0.5860	89.8426
 0.5850	89.8292
 0.5840	89.8268
 0.5830	89.8273
 0.5820	89.8180
 0.5810	89.8102
 0.5800	89.8003
 0.5790	89.7926
 0.5780	89.7867
 0.5770	89.7798
 0.5760	89.7685
 0.5750	89.7620
 0.5740	89.7528
 0.5730	89.7443
 0.5720	89.7359
 0.5710	89.7255
 0.5700	89.7237
 0.5690	89.7151
 0.5680	89.7116
 0.5670	89.7023
 0.5660	89.6855
 0.5650	89.6876
 0.5640	89.6881
 0.5630	89.6765
 0.5620	89.6629
 0.5610	89.6337
 0.5600	89.6177
 0.5590	89.6050
 0.5580	89.5895
 0.5570	89.5788
 0.5560	89.5746
 0.5550	89.5619
 0.5540	89.5568
 0.5530	89.5411
 0.5520	89.5258
 0.5510	89.5130
 0.5500	89.5097
 0.5490	89.5080
 0.5480	89.4919
 0.5470	89.4801
 0.5460	89.4649
 0.5450	89.4530
 0.5440	89.4420
 0.5430	89.4309
 0.5420	89.4134
 0.5410	89.4074
 0.5400	89.3978
 0.5390	89.3815
 0.5380	89.3683
 0.5370	89.3614
 0.5360	89.3456
 0.5350	89.3343
 0.5340	89.3219
 0.5330	89.3109
 0.5320	89.3103
 0.5310	89.2896
 0.5300	89.2821
 0.5290	89.2695
 0.5280	89.2578
 0.5270	89.2510
 0.5260	89.2265
 0.5250	89.2140
 0.5240	89.2078
 0.5230	89.1936
 0.5220	89.1846
 0.5210	89.1822
 0.5200	89.1734
 0.5190	89.1546
 0.5180	89.1407
 0.5170	89.1201
 0.5160	89.0975
 0.5150	89.0916
 0.5140	89.0790
 0.5130	89.0707
 0.5120	89.0526
 0.5110	89.0408
 0.5100	89.0250
 0.5090	89.0031
 0.5080	88.9940
 0.5070	88.9871
 0.5060	88.9584
 0.5050	88.9475
 0.5040	88.9311
 0.5030	88.9020
 0.5020	88.8919
 0.5010	88.8759
 0.5000	88.8547
 0.4990	88.8305
 0.4980	88.8170
 0.4970	88.7951
 0.4960	88.7688
 0.4950	88.7674
 0.4940	88.7387
 0.4930	88.7129
 0.4920	88.6958
 0.4910	88.6698
 0.4900	88.6541
 0.4890	88.6242
 0.4880	88.5977
 0.4870	88.5713
 0.4860	88.5643
 0.4850	88.5446
 0.4840	88.5171
 0.4830	88.4971
 0.4820	88.4864
 0.4810	88.4751
 0.4800	88.4695
 0.4790	88.4609
 0.4780	88.4498
 0.4770	88.4484
 0.4760	88.4239
 0.4750	88.4146
 0.4740	88.4075
 0.4730	88.3830
 0.4720	88.3697
 0.4710	88.3498
 0.4700	88.3465
 0.4690	88.3170
 0.4680	88.2935
 0.4670	88.2707
 0.4660	88.2570
 0.4650	88.2413
 0.4640	88.2277
 0.4630	88.2060
 0.4620	88.1571
 0.4610	88.1490
 0.4600	88.1098
 0.4590	88.0704
 0.4580	88.0498
 0.4570	88.0288
 0.4560	87.9921
 0.4550	87.9489
 0.4540	87.9345
 0.4530	87.9054
 0.4520	87.8898
 0.4510	87.8433
 0.4500	87.8266
 0.4490	87.8121
 0.4480	87.7634
 0.4470	87.7459
 0.4460	87.7132
 0.4450	87.6714
 0.4440	87.6471
 0.4430	87.6434
 0.4420	87.6154
 0.4410	87.5836
 0.4400	87.5534
 0.4390	87.5348
 0.4380	87.5209
 0.4370	87.4887
 0.4360	87.4654
 0.4350	87.4361
 0.4340	87.3986
 0.4330	87.3838
 0.4320	87.3490
 0.4310	87.3211
 0.4300	87.3019
 0.4290	87.2572
 0.4280	87.2257
 0.4270	87.2020
 0.4260	87.1653
 0.4250	87.1371
 0.4240	87.1142
 0.4230	87.0794
 0.4220	87.0468
 0.4210	87.0311
 0.4200	87.0043
 0.4190	86.9981
 0.4180	86.9793
 0.4170	86.9766
 0.4160	86.9627
 0.4150	86.9448
 0.4140	86.9262
 0.4130	86.9210
 0.4120	86.8960
 0.4110	86.8838
 0.4100	86.8591
 0.4090	86.8376
 0.4080	86.8076
 0.4070	86.7968
 0.4060	86.7814
 0.4050	86.7419
 0.4040	86.7061
 0.4030	86.6709
 0.4020	86.6454
 0.4010	86.5974
 0.4000	86.5529
