Name: Oligoclase (Feldspar) (NaSi,CaAl)AlSi_2O_8
Type: Mineral
Class: Silicate
Subclass: Tectosilicate
Particle Size: Medium
Sample No.: TS-3A
Owner: JPL
Wavelength Range: VSWIR
Origin: 
Collection Date: N/A
Description: Oligoclase. Particle size was 45-125um.Collected by JPL Original ASTER Spectral Library name was jpl.beckman.mineral.silicate.tectosilicate.medium.ts03a.spectrum.txt
Measurement: Hemispherical reflectance
First Column: X
Second Column: Y
X Units: Wavelength (micrometers)
Y Units:Reflectance (percent)
First X Value:  0.4000
Last X Value:  2.5000
Number of X Values: 826
Additional Information: mineral.silicate.tectosilicate.medium.vswir.ts-3a.jpl.beckman.ancillary.txt

 0.4000	72.8600
 0.4010	72.9200
 0.4020	73.0900
 0.4030	73.0900
 0.4040	73.1000
 0.4050	73.2500
 0.4060	73.5100
 0.4070	73.4500
 0.4080	73.5000
 0.4090	73.6900
 0.4100	73.5900
 0.4110	73.5700
 0.4120	73.6700
 0.4130	73.9000
 0.4140	73.9300
 0.4150	73.8200
 0.4160	73.9300
 0.4170	73.9500
 0.4180	74.0400
 0.4190	74.0800
 0.4200	74.0600
 0.4210	74.2600
 0.4220	74.1600
 0.4230	74.1000
 0.4240	74.2000
 0.4250	74.3200
 0.4260	74.2100
 0.4270	74.1900
 0.4280	74.3800
 0.4290	74.4800
 0.4300	74.4500
 0.4310	74.4900
 0.4320	74.7000
 0.4330	74.7300
 0.4340	74.6400
 0.4350	74.6200
 0.4360	74.8300
 0.4370	74.9200
 0.4380	74.7300
 0.4390	74.7900
 0.4400	74.9400
 0.4410	74.9200
 0.4420	74.8800
 0.4430	75.0000
 0.4440	75.1300
 0.4450	75.0300
 0.4460	75.0700
 0.4470	75.2700
 0.4480	75.2400
 0.4490	75.1700
 0.4500	75.2400
 0.4510	75.4400
 0.4520	75.3600
 0.4530	75.3800
 0.4540	75.4800
 0.4550	75.6300
 0.4560	75.5900
 0.4570	75.7300
 0.4580	75.7900
 0.4590	75.9800
 0.4600	75.9100
 0.4610	76.0300
 0.4620	75.9200
 0.4630	75.9700
 0.4640	76.2100
 0.4650	76.1700
 0.4660	76.1400
 0.4670	76.3200
 0.4680	76.3200
 0.4690	76.2400
 0.4700	76.2400
 0.4710	76.3900
 0.4720	76.4000
 0.4730	76.4100
 0.4740	76.4200
 0.4750	76.5200
 0.4760	76.6500
 0.4770	76.6400
 0.4780	76.6200
 0.4790	76.7000
 0.4800	76.7300
 0.4810	76.6700
 0.4820	76.7900
 0.4830	77.0000
 0.4840	76.8900
 0.4850	76.8400
 0.4860	76.8000
 0.4870	76.9500
 0.4880	76.8300
 0.4890	76.8200
 0.4900	77.0500
 0.4910	77.1400
 0.4920	77.1100
 0.4930	77.1100
 0.4940	77.2600
 0.4950	77.3300
 0.4960	77.2400
 0.4970	77.2000
 0.4980	77.2700
 0.4990	77.4000
 0.5000	77.3500
 0.5010	77.3100
 0.5020	77.3900
 0.5030	77.3500
 0.5040	77.2400
 0.5050	77.2500
 0.5060	77.4200
 0.5070	77.3900
 0.5080	77.3200
 0.5090	77.2700
 0.5100	77.4700
 0.5110	77.4500
 0.5120	77.4000
 0.5130	77.4500
 0.5140	77.5000
 0.5150	77.4600
 0.5160	77.3500
 0.5170	77.4500
 0.5180	77.4800
 0.5190	77.4400
 0.5200	77.3300
 0.5210	77.3800
 0.5220	77.5900
 0.5230	77.3500
 0.5240	77.3600
 0.5250	77.4000
 0.5260	77.4600
 0.5270	77.3700
 0.5280	77.2300
 0.5290	77.3800
 0.5300	77.3900
 0.5310	77.3600
 0.5320	77.1800
 0.5330	77.2800
 0.5340	77.3900
 0.5350	77.4400
 0.5360	77.2900
 0.5370	77.4500
 0.5380	77.4400
 0.5390	77.4100
 0.5400	77.4000
 0.5410	77.5900
 0.5420	77.4800
 0.5430	77.5000
 0.5440	77.4200
 0.5450	77.5200
 0.5460	77.6500
 0.5470	77.6800
 0.5480	77.5900
 0.5490	77.6900
 0.5500	77.7800
 0.5510	77.6800
 0.5520	77.6600
 0.5530	77.9300
 0.5540	78.0300
 0.5550	77.9200
 0.5560	77.9100
 0.5570	78.0800
 0.5580	78.0100
 0.5590	78.1600
 0.5600	78.1200
 0.5610	78.4700
 0.5620	78.5400
 0.5630	78.6200
 0.5640	78.6600
 0.5650	78.6800
 0.5660	78.6400
 0.5670	78.7500
 0.5680	78.7100
 0.5690	78.6400
 0.5700	78.6200
 0.5710	78.7300
 0.5720	78.6900
 0.5730	78.5800
 0.5740	78.5300
 0.5750	78.5900
 0.5760	78.5600
 0.5770	78.6300
 0.5780	78.6700
 0.5790	78.8000
 0.5800	78.7500
 0.5810	78.6900
 0.5820	78.6300
 0.5830	78.7800
 0.5840	78.7000
 0.5850	78.6200
 0.5860	78.6900
 0.5870	78.8200
 0.5880	78.8800
 0.5890	78.8200
 0.5900	78.9300
 0.5910	79.0000
 0.5920	79.0700
 0.5930	78.9700
 0.5940	79.0200
 0.5950	79.1800
 0.5960	79.1200
 0.5970	78.9900
 0.5980	79.1300
 0.5990	79.3300
 0.6000	79.3300
 0.6010	79.2100
 0.6020	79.3400
 0.6030	79.4300
 0.6040	79.4800
 0.6050	79.3000
 0.6060	79.4300
 0.6070	79.5600
 0.6080	79.4700
 0.6090	79.3900
 0.6100	79.5100
 0.6110	79.6100
 0.6120	79.5300
 0.6130	79.4200
 0.6140	79.5200
 0.6150	79.4500
 0.6160	79.4200
 0.6170	79.4000
 0.6180	79.5200
 0.6190	79.5900
 0.6200	79.4400
 0.6210	79.3800
 0.6220	79.6200
 0.6230	79.5800
 0.6240	79.4600
 0.6250	79.6400
 0.6260	79.6400
 0.6270	79.6700
 0.6280	79.5400
 0.6290	79.4900
 0.6300	79.6600
 0.6310	79.6300
 0.6320	79.5300
 0.6330	79.5900
 0.6340	79.7900
 0.6350	79.6800
 0.6360	79.6300
 0.6370	79.6400
 0.6380	79.6800
 0.6390	79.6600
 0.6400	79.5300
 0.6410	79.6000
 0.6420	79.6600
 0.6430	79.5100
 0.6440	79.5500
 0.6450	79.7100
 0.6460	79.7500
 0.6470	79.6400
 0.6480	79.6500
 0.6490	79.7700
 0.6500	79.6600
 0.6510	79.6600
 0.6520	79.6200
 0.6530	79.7100
 0.6540	79.7100
 0.6550	79.5400
 0.6560	79.6700
 0.6570	79.7700
 0.6580	79.6400
 0.6590	79.5900
 0.6600	79.6900
 0.6610	79.7200
 0.6620	79.7700
 0.6630	79.6500
 0.6640	79.7800
 0.6650	79.9000
 0.6660	79.6600
 0.6670	79.6800
 0.6680	79.8600
 0.6690	79.7700
 0.6700	79.6000
 0.6710	79.7800
 0.6720	79.9300
 0.6730	79.7700
 0.6740	79.6900
 0.6750	79.7200
 0.6760	79.8200
 0.6770	79.7400
 0.6780	79.6100
 0.6790	79.7100
 0.6800	79.7900
 0.6810	79.7600
 0.6820	79.6200
 0.6830	79.7300
 0.6840	79.7700
 0.6850	79.6500
 0.6860	79.7200
 0.6870	79.8000
 0.6880	79.7300
 0.6890	79.5900
 0.6900	79.7400
 0.6910	79.8400
 0.6920	79.7900
 0.6930	79.6400
 0.6940	79.7300
 0.6950	79.7300
 0.6960	79.7900
 0.6970	79.6200
 0.6980	79.7400
 0.6990	79.8000
 0.7000	79.6700
 0.7010	79.7100
 0.7020	79.6400
 0.7030	79.6000
 0.7040	79.6600
 0.7050	79.8300
 0.7060	79.7700
 0.7070	79.6000
 0.7080	79.6000
 0.7090	79.8100
 0.7100	79.7100
 0.7110	79.6200
 0.7120	79.6000
 0.7130	79.8200
 0.7140	79.7100
 0.7150	79.5900
 0.7160	79.7100
 0.7170	79.8100
 0.7180	79.6000
 0.7190	79.5400
 0.7200	79.6500
 0.7210	79.8600
 0.7220	79.6900
 0.7230	79.6600
 0.7240	79.7900
 0.7250	79.7800
 0.7260	79.7700
 0.7270	79.7200
 0.7280	79.7400
 0.7290	79.8100
 0.7300	79.7800
 0.7310	79.6500
 0.7320	79.8000
 0.7330	79.8200
 0.7340	79.7800
 0.7350	79.7300
 0.7360	79.8300
 0.7370	79.9000
 0.7380	79.7300
 0.7390	79.7400
 0.7400	79.8300
 0.7410	79.9100
 0.7420	79.8600
 0.7430	79.7800
 0.7440	79.9100
 0.7450	79.9100
 0.7460	79.8400
 0.7470	79.7900
 0.7480	79.9100
 0.7490	79.9100
 0.7500	79.7700
 0.7510	79.7700
 0.7520	79.8200
 0.7530	79.8700
 0.7540	79.8000
 0.7550	79.8000
 0.7560	79.7300
 0.7570	79.8000
 0.7580	79.8600
 0.7590	79.7800
 0.7600	79.9000
 0.7610	79.8000
 0.7620	79.8100
 0.7630	79.8300
 0.7640	79.7700
 0.7650	79.9200
 0.7660	79.8900
 0.7670	79.9100
 0.7680	79.9200
 0.7690	79.9100
 0.7700	79.9200
 0.7710	79.9400
 0.7720	80.0600
 0.7730	80.0100
 0.7740	79.9600
 0.7750	79.9700
 0.7760	80.0600
 0.7770	79.9700
 0.7780	79.9100
 0.7790	79.7800
 0.7800	80.0300
 0.7810	80.0200
 0.7820	79.9600
 0.7830	79.9700
 0.7840	80.1400
 0.7850	80.0800
 0.7860	79.9500
 0.7870	80.0100
 0.7880	80.1500
 0.7890	80.0300
 0.7900	79.9300
 0.7910	79.9800
 0.7920	80.1900
 0.7930	80.1300
 0.7940	80.0800
 0.7950	80.1200
 0.7960	80.2500
 0.7970	80.0800
 0.7980	80.1500
 0.7990	80.1200
 0.8000	80.2600
 0.8040	80.3100
 0.8080	80.2500
 0.8120	80.2400
 0.8160	80.3100
 0.8200	80.2100
 0.8240	80.2900
 0.8280	80.2900
 0.8320	80.3000
 0.8360	80.3400
 0.8400	80.3800
 0.8440	80.3200
 0.8480	80.3700
 0.8520	80.4300
 0.8560	80.4800
 0.8600	80.5400
 0.8640	80.5100
 0.8680	80.4800
 0.8720	80.5900
 0.8760	80.5100
 0.8800	80.5900
 0.8840	80.4800
 0.8880	80.5800
 0.8920	80.5800
 0.8960	80.5800
 0.9000	80.5900
 0.9040	80.5600
 0.9080	80.6400
 0.9120	80.6000
 0.9160	80.6200
 0.9200	80.6300
 0.9240	80.5700
 0.9280	80.6900
 0.9320	80.6600
 0.9360	80.6700
 0.9400	80.5700
 0.9440	80.5500
 0.9480	80.4600
 0.9520	80.4600
 0.9560	80.4900
 0.9600	80.5000
 0.9640	80.4600
 0.9680	80.5000
 0.9720	80.3800
 0.9760	80.4300
 0.9800	80.3800
 0.9840	80.3400
 0.9880	80.4100
 0.9920	80.3400
 0.9960	80.3100
 1.0000	80.2800
 1.0040	80.2300
 1.0080	80.2700
 1.0120	80.2000
 1.0160	80.1100
 1.0200	80.2100
 1.0240	80.1300
 1.0280	80.0600
 1.0320	80.0400
 1.0360	80.0800
 1.0400	80.1400
 1.0440	80.1700
 1.0480	80.0100
 1.0520	79.9800
 1.0560	79.9500
 1.0600	79.9400
 1.0640	79.9800
 1.0680	79.8500
 1.0720	79.8900
 1.0760	79.9000
 1.0800	79.8400
 1.0840	79.8400
 1.0880	79.8200
 1.0920	79.8400
 1.0960	79.7400
 1.1000	79.7700
 1.1040	79.7000
 1.1080	79.6800
 1.1120	79.6800
 1.1160	79.7600
 1.1200	79.6500
 1.1240	79.7400
 1.1280	79.7400
 1.1320	79.6500
 1.1360	79.5500
 1.1400	79.5300
 1.1440	79.5200
 1.1480	79.5000
 1.1520	79.4500
 1.1560	79.4800
 1.1600	79.3700
 1.1640	79.4300
 1.1680	79.3100
 1.1720	79.3100
 1.1760	79.2500
 1.1800	79.2300
 1.1840	79.2300
 1.1880	79.2300
 1.1920	79.1500
 1.1960	79.2900
 1.2000	79.2900
 1.2040	79.3700
 1.2080	79.1900
 1.2120	79.1600
 1.2160	79.2400
 1.2200	79.2100
 1.2240	79.2600
 1.2280	79.2700
 1.2320	79.1700
 1.2360	79.2600
 1.2400	79.2400
 1.2440	79.1700
 1.2480	79.2000
 1.2520	79.2700
 1.2560	79.3500
 1.2600	79.3600
 1.2640	79.3000
 1.2680	79.2700
 1.2720	79.3700
 1.2760	79.4100
 1.2800	79.4000
 1.2840	79.3900
 1.2880	79.4400
 1.2920	79.4800
 1.2960	79.4400
 1.3000	79.4000
 1.3040	79.3800
 1.3080	79.4500
 1.3120	79.4500
 1.3160	79.4500
 1.3200	79.3900
 1.3240	79.5000
 1.3280	79.4200
 1.3320	79.5200
 1.3360	79.3900
 1.3400	79.4600
 1.3440	79.5200
 1.3480	79.5300
 1.3520	79.4900
 1.3560	79.6100
 1.3600	79.6200
 1.3640	79.5400
 1.3680	79.5600
 1.3720	79.5700
 1.3760	79.5400
 1.3800	79.3900
 1.3840	79.2700
 1.3880	79.0000
 1.3920	78.5400
 1.3960	78.0700
 1.4000	77.6900
 1.4040	77.3600
 1.4080	77.2300
 1.4120	77.5400
 1.4160	77.7800
 1.4200	78.2100
 1.4240	78.4100
 1.4280	78.5100
 1.4320	78.5400
 1.4360	78.6300
 1.4400	78.6700
 1.4440	78.8300
 1.4480	78.7900
 1.4520	78.7700
 1.4560	78.8000
 1.4600	78.8700
 1.4640	78.9100
 1.4680	78.9800
 1.4720	79.0400
 1.4760	79.1300
 1.4800	79.3100
 1.4840	79.4900
 1.4880	79.4900
 1.4920	79.7200
 1.4960	79.7000
 1.5000	79.8100
 1.5040	79.8800
 1.5080	79.9800
 1.5120	80.0200
 1.5160	80.2100
 1.5200	80.2000
 1.5240	80.1600
 1.5280	80.2800
 1.5320	80.3400
 1.5360	80.4200
 1.5400	80.4200
 1.5440	80.4500
 1.5480	80.4700
 1.5520	80.5500
 1.5560	80.5400
 1.5600	80.5900
 1.5640	80.6300
 1.5680	80.6300
 1.5720	80.6800
 1.5760	80.6500
 1.5800	80.8200
 1.5840	80.7600
 1.5880	80.8300
 1.5920	80.8400
 1.5960	80.8700
 1.6000	81.0100
 1.6040	80.9900
 1.6080	81.0200
 1.6120	81.0400
 1.6160	81.0600
 1.6200	81.0600
 1.6240	81.0700
 1.6280	81.1400
 1.6320	81.1400
 1.6360	81.1600
 1.6400	81.1600
 1.6440	81.0800
 1.6480	81.1400
 1.6520	81.2600
 1.6560	81.1800
 1.6600	81.2400
 1.6640	81.2300
 1.6680	81.3100
 1.6720	81.4000
 1.6760	81.3600
 1.6800	81.4400
 1.6840	81.3700
 1.6880	81.4700
 1.6920	81.4300
 1.6960	81.4300
 1.7000	81.4600
 1.7040	81.4300
 1.7080	81.4500
 1.7120	81.4600
 1.7160	81.5000
 1.7200	81.5200
 1.7240	81.5400
 1.7280	81.5600
 1.7320	81.5200
 1.7360	81.4900
 1.7400	81.4600
 1.7440	81.3900
 1.7480	81.4700
 1.7520	81.4200
 1.7560	81.4100
 1.7600	81.4000
 1.7640	81.4000
 1.7680	81.4400
 1.7720	81.3400
 1.7760	81.3800
 1.7800	81.3900
 1.7840	81.3900
 1.7880	81.3900
 1.7920	81.4100
 1.7960	81.4200
 1.8000	81.4800
 1.8040	81.4800
 1.8080	81.4600
 1.8120	81.4400
 1.8160	81.4900
 1.8200	81.3800
 1.8240	81.3800
 1.8280	81.3200
 1.8320	81.3600
 1.8360	81.3200
 1.8400	81.2700
 1.8440	81.2600
 1.8480	81.2600
 1.8520	81.1700
 1.8560	81.0900
 1.8600	81.1100
 1.8640	80.9400
 1.8680	80.7200
 1.8720	80.4600
 1.8760	80.1900
 1.8800	79.7200
 1.8840	79.2700
 1.8880	78.7600
 1.8920	78.0600
 1.8960	77.4200
 1.9000	76.7900
 1.9040	76.1900
 1.9080	75.7600
 1.9120	75.2800
 1.9160	75.0500
 1.9200	74.9000
 1.9240	74.7000
 1.9280	74.6800
 1.9320	74.6500
 1.9360	74.7100
 1.9400	74.8300
 1.9440	74.9200
 1.9480	75.0700
 1.9520	75.1700
 1.9560	75.3500
 1.9600	75.5300
 1.9640	75.8000
 1.9680	76.0800
 1.9720	76.2300
 1.9760	76.4700
 1.9800	76.7200
 1.9840	77.0100
 1.9880	77.2700
 1.9920	77.5700
 1.9960	77.8700
 2.0000	78.1100
 2.0040	78.3200
 2.0080	78.5700
 2.0120	78.7300
 2.0160	78.9700
 2.0200	79.2100
 2.0240	79.3400
 2.0280	79.5500
 2.0320	79.7000
 2.0360	79.9400
 2.0400	79.9900
 2.0440	80.1000
 2.0480	80.2600
 2.0520	80.3200
 2.0560	80.3300
 2.0600	80.4800
 2.0640	80.5500
 2.0680	80.6900
 2.0720	80.7000
 2.0760	80.7500
 2.0800	80.8500
 2.0840	80.9600
 2.0880	80.9600
 2.0920	81.0900
 2.0960	81.2100
 2.1000	81.1900
 2.1040	81.2700
 2.1080	81.4800
 2.1120	81.4200
 2.1160	81.5700
 2.1200	81.6200
 2.1240	81.6000
 2.1280	81.5700
 2.1320	81.6300
 2.1360	81.6100
 2.1400	81.5100
 2.1440	81.4200
 2.1480	81.3100
 2.1520	81.2100
 2.1560	81.0600
 2.1600	80.9200
 2.1640	80.6200
 2.1680	80.2800
 2.1720	79.9200
 2.1760	79.5100
 2.1800	78.9900
 2.1840	78.5900
 2.1880	78.3100
 2.1920	78.1600
 2.1960	78.1500
 2.2000	78.2700
 2.2040	78.4100
 2.2080	78.6600
 2.2120	79.0000
 2.2160	79.2900
 2.2200	79.5400
 2.2240	79.7800
 2.2280	79.9100
 2.2320	80.0300
 2.2360	80.0400
 2.2400	80.0200
 2.2440	80.0000
 2.2480	79.9800
 2.2520	79.9800
 2.2560	79.8600
 2.2600	79.9100
 2.2640	79.8500
 2.2680	79.8600
 2.2720	79.7800
 2.2760	79.6800
 2.2800	79.7400
 2.2840	79.5900
 2.2880	79.4800
 2.2920	79.4200
 2.2960	79.2600
 2.3000	78.9500
 2.3040	78.6400
 2.3080	78.4600
 2.3120	78.1400
 2.3160	77.8600
 2.3200	77.5100
 2.3240	77.2000
 2.3280	76.8000
 2.3320	76.5600
 2.3360	76.2600
 2.3400	75.9600
 2.3440	75.8000
 2.3480	75.6500
 2.3520	75.6500
 2.3560	75.6700
 2.3600	75.8500
 2.3640	76.0100
 2.3680	76.1800
 2.3720	76.3900
 2.3760	76.6500
 2.3800	76.7300
 2.3840	76.8700
 2.3880	76.9000
 2.3920	76.8300
 2.3960	76.7700
 2.4000	76.7100
 2.4040	76.6600
 2.4080	76.4700
 2.4120	76.3900
 2.4160	76.2100
 2.4200	76.0400
 2.4240	75.8900
 2.4280	75.7000
 2.4320	75.5900
 2.4360	75.4900
 2.4400	75.2800
 2.4440	75.1600
 2.4480	75.1100
 2.4520	75.0000
 2.4560	74.8800
 2.4600	74.7500
 2.4640	74.6600
 2.4680	74.5700
 2.4720	74.4500
 2.4760	74.3400
 2.4800	74.5000
 2.4840	74.5900
 2.4880	74.5600
 2.4920	74.5800
 2.4960	74.6000
 2.5000	74.6100
