Name: Enstatite Mg_2(SiO_3)_2
Type: Mineral
Class: Silicate
Subclass: Inosilicate
Particle Size: Coarse
Sample No.: IN-10B
Owner: JPL
Wavelength Range: VSWIR
Origin: Norway, Telemark
Collection Date: N/A
Description: Particle size was 125-500um.Collected by Burminco Original ASTER Spectral Library name was jpl.beckman.mineral.silicate.inosilicate.coarse.in10b.spectrum.txt
Measurement: Hemispherical reflectance
First Column: X
Second Column: Y
X Units: Wavelength (micrometers)
Y Units:Reflectance (percent)
First X Value:  0.4000
Last X Value:  2.5000
Number of X Values: 826
Additional Information: mineral.silicate.inosilicate.coarse.vswir.in-10b.jpl.beckman.ancillary.txt

 0.4000	16.5900
 0.4010	16.9600
 0.4020	17.2000
 0.4030	17.2700
 0.4040	17.4600
 0.4050	17.6600
 0.4060	17.6800
 0.4070	17.9900
 0.4080	18.2400
 0.4090	18.2800
 0.4100	18.4300
 0.4110	18.5000
 0.4120	18.6600
 0.4130	18.7200
 0.4140	18.7600
 0.4150	18.9900
 0.4160	19.0900
 0.4170	19.0900
 0.4180	19.1100
 0.4190	19.0600
 0.4200	19.1800
 0.4210	19.2200
 0.4220	18.9500
 0.4230	18.9900
 0.4240	18.8000
 0.4250	18.9100
 0.4260	19.0100
 0.4270	19.0700
 0.4280	19.3600
 0.4290	19.6900
 0.4300	19.8000
 0.4310	20.0900
 0.4320	20.1800
 0.4330	20.3100
 0.4340	20.5900
 0.4350	20.5600
 0.4360	20.6300
 0.4370	20.8000
 0.4380	20.8300
 0.4390	20.7700
 0.4400	20.6900
 0.4410	20.7400
 0.4420	20.9200
 0.4430	20.7300
 0.4440	20.8100
 0.4450	20.8300
 0.4460	20.9800
 0.4470	20.9000
 0.4480	20.9000
 0.4490	21.0900
 0.4500	21.2700
 0.4510	21.1600
 0.4520	21.2700
 0.4530	21.1800
 0.4540	21.3900
 0.4550	21.3400
 0.4560	21.3800
 0.4570	21.6300
 0.4580	21.7100
 0.4590	21.7400
 0.4600	21.7500
 0.4610	21.8200
 0.4620	21.8100
 0.4630	21.9200
 0.4640	21.9200
 0.4650	21.9000
 0.4660	22.0100
 0.4670	22.0400
 0.4680	22.1400
 0.4690	22.1100
 0.4700	22.2000
 0.4710	22.3800
 0.4720	22.3800
 0.4730	22.5200
 0.4740	22.6300
 0.4750	22.7300
 0.4760	22.6900
 0.4770	22.7000
 0.4780	22.6100
 0.4790	22.8400
 0.4800	22.9400
 0.4810	23.0200
 0.4820	23.1100
 0.4830	23.2100
 0.4840	23.4700
 0.4850	23.3900
 0.4860	23.4700
 0.4870	23.7500
 0.4880	23.8100
 0.4890	23.8400
 0.4900	23.9600
 0.4910	23.8800
 0.4920	24.0700
 0.4930	24.2200
 0.4940	24.2200
 0.4950	24.3000
 0.4960	24.2600
 0.4970	24.3600
 0.4980	24.2600
 0.4990	24.1200
 0.5000	24.0500
 0.5010	23.9100
 0.5020	23.5100
 0.5030	22.6400
 0.5040	21.8900
 0.5050	22.6300
 0.5060	23.9700
 0.5070	24.5700
 0.5080	25.0100
 0.5090	25.0100
 0.5100	25.3800
 0.5110	25.4400
 0.5120	25.4800
 0.5130	25.7600
 0.5140	25.8500
 0.5150	25.8700
 0.5160	25.9700
 0.5170	25.8300
 0.5180	26.1400
 0.5190	26.0900
 0.5200	26.1600
 0.5210	26.1900
 0.5220	26.2100
 0.5230	26.3200
 0.5240	26.2000
 0.5250	26.1600
 0.5260	26.4200
 0.5270	26.4300
 0.5280	26.4000
 0.5290	26.3700
 0.5300	26.2700
 0.5310	26.3600
 0.5320	26.3400
 0.5330	26.2500
 0.5340	26.2600
 0.5350	26.1400
 0.5360	26.2200
 0.5370	26.1600
 0.5380	25.9000
 0.5390	26.0000
 0.5400	25.9500
 0.5410	25.8100
 0.5420	25.6800
 0.5430	25.5700
 0.5440	25.5600
 0.5450	25.4200
 0.5460	25.4900
 0.5470	25.5600
 0.5480	25.5700
 0.5490	25.6900
 0.5500	25.8800
 0.5510	25.8900
 0.5520	26.2400
 0.5530	26.3100
 0.5540	26.4700
 0.5550	26.5900
 0.5560	26.6000
 0.5570	26.8100
 0.5580	26.8200
 0.5590	26.8000
 0.5600	26.9700
 0.5610	27.2500
 0.5620	27.3700
 0.5630	27.3700
 0.5640	27.5300
 0.5650	27.5500
 0.5660	27.6200
 0.5670	27.6600
 0.5680	27.6100
 0.5690	27.6800
 0.5700	27.7100
 0.5710	27.7400
 0.5720	27.7700
 0.5730	27.7000
 0.5740	27.9400
 0.5750	27.8200
 0.5760	27.8600
 0.5770	27.9100
 0.5780	28.1100
 0.5790	28.0200
 0.5800	28.0800
 0.5810	27.9900
 0.5820	27.9600
 0.5830	28.1600
 0.5840	28.1100
 0.5850	28.2700
 0.5860	28.1900
 0.5870	28.3700
 0.5880	28.2400
 0.5890	28.2000
 0.5900	28.3600
 0.5910	28.5800
 0.5920	28.4800
 0.5930	28.5600
 0.5940	28.4600
 0.5950	28.5500
 0.5960	28.6600
 0.5970	28.6600
 0.5980	28.7300
 0.5990	28.6700
 0.6000	28.8200
 0.6010	28.6700
 0.6020	28.7600
 0.6030	28.8400
 0.6040	29.0000
 0.6050	28.9700
 0.6060	28.9700
 0.6070	28.8800
 0.6080	28.9300
 0.6090	29.0100
 0.6100	28.9300
 0.6110	28.9900
 0.6120	28.9900
 0.6130	29.1400
 0.6140	29.0100
 0.6150	29.0300
 0.6160	29.1900
 0.6170	29.3200
 0.6180	29.2000
 0.6190	29.3000
 0.6200	29.1700
 0.6210	29.2500
 0.6220	29.3600
 0.6230	29.3600
 0.6240	29.4100
 0.6250	29.4100
 0.6260	29.5100
 0.6270	29.4400
 0.6280	29.5600
 0.6290	29.5300
 0.6300	29.5700
 0.6310	29.7300
 0.6320	29.7500
 0.6330	29.6900
 0.6340	29.5700
 0.6350	29.7200
 0.6360	29.7600
 0.6370	29.8400
 0.6380	29.8200
 0.6390	29.9800
 0.6400	29.9200
 0.6410	29.7900
 0.6420	29.9600
 0.6430	29.9800
 0.6440	30.0000
 0.6450	30.0200
 0.6460	29.9800
 0.6470	30.0600
 0.6480	30.1100
 0.6490	30.0300
 0.6500	30.1700
 0.6510	30.2300
 0.6520	30.2500
 0.6530	30.1100
 0.6540	30.2100
 0.6550	30.2300
 0.6560	30.3200
 0.6570	30.3200
 0.6580	30.3800
 0.6590	30.3100
 0.6600	30.2500
 0.6610	30.4200
 0.6620	30.3400
 0.6630	30.3400
 0.6640	30.5000
 0.6650	30.5800
 0.6660	30.5600
 0.6670	30.5400
 0.6680	30.6400
 0.6690	30.6000
 0.6700	30.6400
 0.6710	30.6600
 0.6720	30.6000
 0.6730	30.7200
 0.6740	30.7200
 0.6750	30.6500
 0.6760	30.7000
 0.6770	30.7200
 0.6780	30.8200
 0.6790	30.7200
 0.6800	30.6600
 0.6810	30.8200
 0.6820	30.8200
 0.6830	30.9000
 0.6840	30.9000
 0.6850	30.7200
 0.6860	30.7200
 0.6870	30.8200
 0.6880	30.7800
 0.6890	30.7800
 0.6900	30.8400
 0.6910	30.8600
 0.6920	30.7600
 0.6930	30.6500
 0.6940	30.8000
 0.6950	30.7800
 0.6960	30.7400
 0.6970	30.6600
 0.6980	30.5300
 0.6990	30.4700
 0.7000	30.6900
 0.7010	30.5600
 0.7020	30.3900
 0.7030	30.4100
 0.7040	30.4100
 0.7050	30.3500
 0.7060	30.2700
 0.7070	30.2300
 0.7080	30.1900
 0.7090	30.0800
 0.7100	30.0000
 0.7110	30.0000
 0.7120	29.8500
 0.7130	29.7000
 0.7140	29.7100
 0.7150	29.5600
 0.7160	29.5700
 0.7170	29.5500
 0.7180	29.2300
 0.7190	29.2300
 0.7200	29.1000
 0.7210	29.0400
 0.7220	28.8800
 0.7230	28.6400
 0.7240	28.6200
 0.7250	28.4100
 0.7260	28.2600
 0.7270	28.1400
 0.7280	28.0000
 0.7290	27.9300
 0.7300	27.7600
 0.7310	27.4700
 0.7320	27.3900
 0.7330	27.1400
 0.7340	27.0400
 0.7350	26.8500
 0.7360	26.6300
 0.7370	26.5400
 0.7380	26.2000
 0.7390	25.9600
 0.7400	25.7800
 0.7410	25.6800
 0.7420	25.4600
 0.7430	25.2000
 0.7440	24.8800
 0.7450	24.6900
 0.7460	24.4600
 0.7470	24.2800
 0.7480	24.0900
 0.7490	23.7800
 0.7500	23.6100
 0.7510	23.3000
 0.7520	23.0900
 0.7530	22.8300
 0.7540	22.4400
 0.7550	22.2600
 0.7560	21.9800
 0.7570	21.6700
 0.7580	21.4500
 0.7590	21.1500
 0.7600	20.9500
 0.7610	20.6700
 0.7620	20.3100
 0.7630	20.1900
 0.7640	19.8300
 0.7650	19.5100
 0.7660	19.2600
 0.7670	19.0000
 0.7680	18.8200
 0.7690	18.5900
 0.7700	18.1600
 0.7710	17.9300
 0.7720	17.6200
 0.7730	17.4300
 0.7740	17.2300
 0.7750	16.8600
 0.7760	16.7400
 0.7770	16.3900
 0.7780	16.0400
 0.7790	15.8500
 0.7800	15.6100
 0.7810	15.4400
 0.7820	15.1900
 0.7830	14.9000
 0.7840	14.7800
 0.7850	14.5700
 0.7860	14.5000
 0.7870	14.1700
 0.7880	14.0000
 0.7890	13.8200
 0.7900	13.5000
 0.7910	13.2900
 0.7920	13.0700
 0.7930	12.9300
 0.7940	12.8000
 0.7950	12.6300
 0.7960	12.4200
 0.7970	12.2500
 0.7980	12.0200
 0.7990	11.8100
 0.8000	11.8800
 0.8040	11.1900
 0.8080	10.5300
 0.8120	10.0000
 0.8160	 9.4800
 0.8200	 8.9300
 0.8240	 8.5100
 0.8280	 8.0600
 0.8320	 7.7000
 0.8360	 7.3000
 0.8400	 7.0600
 0.8440	 6.7800
 0.8480	 6.6400
 0.8520	 6.4200
 0.8560	 6.1800
 0.8600	 6.0100
 0.8640	 5.8800
 0.8680	 5.7200
 0.8720	 5.6000
 0.8760	 5.5400
 0.8800	 5.4800
 0.8840	 5.4300
 0.8880	 5.3500
 0.8920	 5.3000
 0.8960	 5.3000
 0.9000	 5.2300
 0.9040	 5.1800
 0.9080	 5.1700
 0.9120	 5.1800
 0.9160	 5.2300
 0.9200	 5.3100
 0.9240	 5.4100
 0.9280	 5.4200
 0.9320	 5.4700
 0.9360	 5.5300
 0.9400	 5.5500
 0.9440	 5.6600
 0.9480	 5.9000
 0.9520	 6.0200
 0.9560	 6.2500
 0.9600	 6.4400
 0.9640	 6.6200
 0.9680	 6.7900
 0.9720	 7.0300
 0.9760	 7.3300
 0.9800	 7.6500
 0.9840	 8.0800
 0.9880	 8.5000
 0.9920	 9.0000
 0.9960	 9.5600
 1.0000	 9.7900
 1.0040	10.6700
 1.0080	11.3200
 1.0120	12.0000
 1.0160	12.7800
 1.0200	13.5000
 1.0240	14.3400
 1.0280	15.2000
 1.0320	16.0800
 1.0360	17.0900
 1.0400	18.1300
 1.0440	19.0600
 1.0480	20.0800
 1.0520	20.9500
 1.0560	21.9900
 1.0600	22.7400
 1.0640	23.7300
 1.0680	24.6900
 1.0720	25.5900
 1.0760	26.3900
 1.0800	27.0900
 1.0840	27.9100
 1.0880	28.5100
 1.0920	29.0600
 1.0960	29.6100
 1.1000	30.1600
 1.1040	30.6800
 1.1080	31.0900
 1.1120	31.5300
 1.1160	31.7900
 1.1200	32.0400
 1.1240	32.3100
 1.1280	32.6300
 1.1320	32.8900
 1.1360	33.0400
 1.1400	33.2300
 1.1440	33.3800
 1.1480	33.5500
 1.1520	33.6200
 1.1560	33.7500
 1.1600	33.8500
 1.1640	33.9600
 1.1680	34.0900
 1.1720	34.1700
 1.1760	34.1900
 1.1800	34.2500
 1.1840	34.2700
 1.1880	34.3600
 1.1920	34.3900
 1.1960	34.5200
 1.2000	34.6500
 1.2040	34.6800
 1.2080	34.6800
 1.2120	34.7300
 1.2160	34.6300
 1.2200	34.6800
 1.2240	34.6900
 1.2280	34.6900
 1.2320	34.7600
 1.2360	34.7500
 1.2400	34.8200
 1.2440	34.8100
 1.2480	34.7800
 1.2520	34.7600
 1.2560	34.7400
 1.2600	34.7000
 1.2640	34.6800
 1.2680	34.6700
 1.2720	34.6800
 1.2760	34.5700
 1.2800	34.4800
 1.2840	34.4100
 1.2880	34.3900
 1.2920	34.2500
 1.2960	34.1700
 1.3000	34.1600
 1.3040	34.0200
 1.3080	33.8800
 1.3120	33.8000
 1.3160	33.6400
 1.3200	33.4700
 1.3240	33.2900
 1.3280	33.1900
 1.3320	33.0200
 1.3360	32.9000
 1.3400	32.7200
 1.3440	32.5100
 1.3480	32.2600
 1.3520	32.0900
 1.3560	31.8400
 1.3600	31.6700
 1.3640	31.4600
 1.3680	31.2500
 1.3720	30.9400
 1.3760	30.6100
 1.3800	30.0600
 1.3840	29.3000
 1.3880	28.3800
 1.3920	28.2500
 1.3960	28.5600
 1.4000	28.7200
 1.4040	28.5100
 1.4080	28.3200
 1.4120	28.0100
 1.4160	27.7600
 1.4200	27.5000
 1.4240	27.1400
 1.4280	26.8400
 1.4320	26.5100
 1.4360	26.2000
 1.4400	25.8500
 1.4440	25.5200
 1.4480	25.3100
 1.4520	24.8800
 1.4560	24.5800
 1.4600	24.1600
 1.4640	23.7600
 1.4680	23.4800
 1.4720	23.1700
 1.4760	22.7800
 1.4800	22.5400
 1.4840	22.1600
 1.4880	21.7800
 1.4920	21.3900
 1.4960	21.1000
 1.5000	20.7000
 1.5040	20.4200
 1.5080	20.0400
 1.5120	19.7800
 1.5160	19.4100
 1.5200	19.1000
 1.5240	18.7900
 1.5280	18.4900
 1.5320	18.2000
 1.5360	17.8800
 1.5400	17.4900
 1.5440	17.1800
 1.5480	16.8800
 1.5520	16.6800
 1.5560	16.4400
 1.5600	16.1500
 1.5640	15.8900
 1.5680	15.6300
 1.5720	15.3000
 1.5760	15.0300
 1.5800	14.7900
 1.5840	14.5600
 1.5880	14.3600
 1.5920	14.1100
 1.5960	13.8500
 1.6000	13.5900
 1.6040	13.3200
 1.6080	13.1100
 1.6120	12.9000
 1.6160	12.7500
 1.6200	12.5500
 1.6240	12.3100
 1.6280	12.1000
 1.6320	11.9400
 1.6360	11.7200
 1.6400	11.4700
 1.6440	11.3600
 1.6480	11.2100
 1.6520	11.0800
 1.6560	10.8800
 1.6600	10.7700
 1.6640	10.5400
 1.6680	10.3900
 1.6720	10.2200
 1.6760	10.0800
 1.6800	10.0300
 1.6840	 9.9200
 1.6880	 9.8300
 1.6920	 9.6500
 1.6960	 9.4500
 1.7000	 9.3200
 1.7040	 9.2500
 1.7080	 9.0600
 1.7120	 9.0500
 1.7160	 9.0100
 1.7200	 8.8900
 1.7240	 8.7600
 1.7280	 8.6000
 1.7320	 8.5500
 1.7360	 8.5000
 1.7400	 8.3900
 1.7440	 8.3400
 1.7480	 8.2600
 1.7520	 8.1900
 1.7560	 8.0700
 1.7600	 7.9900
 1.7640	 7.8700
 1.7680	 7.9500
 1.7720	 7.8700
 1.7760	 7.8500
 1.7800	 7.7000
 1.7840	 7.6300
 1.7880	 7.5700
 1.7920	 7.6000
 1.7960	 7.5400
 1.8000	 7.5400
 1.8040	 7.5000
 1.8080	 7.4600
 1.8120	 7.4300
 1.8160	 7.3700
 1.8200	 7.3100
 1.8240	 7.3600
 1.8280	 7.3600
 1.8320	 7.3600
 1.8360	 7.3000
 1.8400	 7.2600
 1.8440	 7.2200
 1.8480	 7.1800
 1.8520	 7.2100
 1.8560	 7.2000
 1.8600	 7.2800
 1.8640	 7.2200
 1.8680	 7.2000
 1.8720	 7.2600
 1.8760	 7.2600
 1.8800	 7.2300
 1.8840	 7.2100
 1.8880	 7.2700
 1.8920	 7.3000
 1.8960	 7.3700
 1.9000	 7.3700
 1.9040	 7.3300
 1.9080	 7.3300
 1.9120	 7.3800
 1.9160	 7.3900
 1.9200	 7.4800
 1.9240	 7.5000
 1.9280	 7.5600
 1.9320	 7.5500
 1.9360	 7.6800
 1.9400	 7.6500
 1.9440	 7.7400
 1.9480	 7.7000
 1.9520	 7.8500
 1.9560	 7.9200
 1.9600	 8.0700
 1.9640	 8.1000
 1.9680	 8.1400
 1.9720	 8.2300
 1.9760	 8.3200
 1.9800	 8.4200
 1.9840	 8.5600
 1.9880	 8.6400
 1.9920	 8.7100
 1.9960	 8.7700
 2.0000	 8.8500
 2.0040	 8.9600
 2.0080	 9.1300
 2.0120	 9.3200
 2.0160	 9.3800
 2.0200	 9.5900
 2.0240	 9.6700
 2.0280	 9.7900
 2.0320	 9.9100
 2.0360	10.0800
 2.0400	10.2200
 2.0440	10.4200
 2.0480	10.5200
 2.0520	10.6800
 2.0560	10.8700
 2.0600	11.0000
 2.0640	11.1900
 2.0680	11.3500
 2.0720	11.5900
 2.0760	11.8000
 2.0800	12.0100
 2.0840	12.1700
 2.0880	12.3500
 2.0920	12.6000
 2.0960	12.8200
 2.1000	13.1100
 2.1040	13.3300
 2.1080	13.5200
 2.1120	13.7600
 2.1160	13.8500
 2.1200	14.1400
 2.1240	14.4300
 2.1280	14.5500
 2.1320	14.8300
 2.1360	15.1800
 2.1400	15.3700
 2.1440	15.6100
 2.1480	15.8200
 2.1520	15.9500
 2.1560	16.3100
 2.1600	16.5600
 2.1640	16.8300
 2.1680	17.0300
 2.1720	17.2800
 2.1760	17.4700
 2.1800	17.6900
 2.1840	17.9600
 2.1880	18.2300
 2.1920	18.5300
 2.1960	18.7100
 2.2000	18.9800
 2.2040	19.1600
 2.2080	19.2900
 2.2120	19.5600
 2.2160	19.8000
 2.2200	20.0900
 2.2240	20.3700
 2.2280	20.6200
 2.2320	20.8200
 2.2360	21.0600
 2.2400	21.1800
 2.2440	21.4100
 2.2480	21.6900
 2.2520	21.8800
 2.2560	22.0700
 2.2600	22.2300
 2.2640	22.3900
 2.2680	22.5300
 2.2720	22.5500
 2.2760	22.6600
 2.2800	22.7200
 2.2840	22.8300
 2.2880	22.9600
 2.2920	23.0900
 2.2960	23.1600
 2.3000	23.2800
 2.3040	23.3800
 2.3080	23.8000
 2.3120	24.0700
 2.3160	24.3300
 2.3200	24.4900
 2.3240	24.7600
 2.3280	25.0600
 2.3320	25.3500
 2.3360	25.5900
 2.3400	25.8300
 2.3440	25.9400
 2.3480	26.0600
 2.3520	26.2500
 2.3560	26.3100
 2.3600	26.4900
 2.3640	26.5300
 2.3680	26.6000
 2.3720	26.4800
 2.3760	26.5200
 2.3800	26.6800
 2.3840	26.8400
 2.3880	26.9400
 2.3920	26.9600
 2.3960	27.0800
 2.4000	27.2800
 2.4040	27.4300
 2.4080	27.5300
 2.4120	27.6700
 2.4160	27.7100
 2.4200	27.8600
 2.4240	27.9000
 2.4280	28.0300
 2.4320	28.0900
 2.4360	28.1200
 2.4400	28.1500
 2.4440	28.2100
 2.4480	28.3300
 2.4520	28.3500
 2.4560	28.4200
 2.4600	28.4000
 2.4640	28.4000
 2.4680	28.5600
 2.4720	28.5800
 2.4760	28.6800
 2.4800	28.7500
 2.4840	28.7700
 2.4880	28.9900
 2.4920	29.0900
 2.4960	29.1700
 2.5000	29.2200
