Name: Magnesite MgCO_3
Type: Mineral
Class: Carbonate
Subclass: None
Particle Size: Fine
Sample No.: C-6A
Owner: JPL
Wavelength Range: VSWIR
Origin: USA, California, Riverside County
Collection Date: N/A
Description: Particle size 0-45um.Collected by Ward's Original ASTER Spectral Library name was jpl.beckman.mineral.carbonate.none.fine.c06a.spectrum.txt
Measurement: Hemispherical reflectance
First Column: X
Second Column: Y
X Units: Wavelength (micrometers)
Y Units:Reflectance (percent)
First X Value:  0.4000
Last X Value:  2.5000
Number of X Values: 826
Additional Information: None

 0.4000	78.9900
 0.4010	79.1000
 0.4020	79.2700
 0.4030	79.3300
 0.4040	79.3300
 0.4050	79.2700
 0.4060	79.5600
 0.4070	79.8500
 0.4080	79.8500
 0.4090	79.8500
 0.4100	79.7900
 0.4110	79.9100
 0.4120	80.2400
 0.4130	80.2400
 0.4140	80.2400
 0.4150	80.0200
 0.4160	80.2400
 0.4170	80.4200
 0.4180	80.5300
 0.4190	80.4200
 0.4200	80.2400
 0.4210	80.3000
 0.4220	80.5300
 0.4230	80.7600
 0.4240	80.7000
 0.4250	80.6500
 0.4260	80.5900
 0.4270	80.8800
 0.4280	81.1600
 0.4290	81.2200
 0.4300	80.9900
 0.4310	80.9300
 0.4320	81.0500
 0.4330	81.2800
 0.4340	81.4500
 0.4350	81.4000
 0.4360	81.2800
 0.4370	81.4000
 0.4380	81.6200
 0.4390	81.9000
 0.4400	81.7900
 0.4410	81.7300
 0.4420	81.7300
 0.4430	81.8500
 0.4440	82.1300
 0.4450	82.0800
 0.4460	81.9600
 0.4470	81.8500
 0.4480	82.0800
 0.4490	82.3100
 0.4500	82.3600
 0.4510	82.3100
 0.4520	81.9600
 0.4530	82.0300
 0.4540	82.5500
 0.4550	82.5500
 0.4560	82.4900
 0.4570	82.3700
 0.4580	82.3800
 0.4590	82.6600
 0.4600	82.6600
 0.4610	83.0100
 0.4620	82.9500
 0.4630	82.6100
 0.4640	82.7900
 0.4650	82.9600
 0.4660	83.1900
 0.4670	83.1900
 0.4680	82.9700
 0.4690	83.0900
 0.4700	83.0900
 0.4710	83.3700
 0.4720	83.3700
 0.4730	83.2700
 0.4740	83.2700
 0.4750	83.3200
 0.4760	83.5500
 0.4770	83.7800
 0.4780	83.6700
 0.4790	83.5000
 0.4800	83.6100
 0.4810	83.7900
 0.4820	83.8400
 0.4830	83.8000
 0.4840	83.7400
 0.4850	83.8000
 0.4860	83.9700
 0.4870	84.0800
 0.4880	84.2000
 0.4890	84.1500
 0.4900	83.9800
 0.4910	84.1500
 0.4920	84.3200
 0.4930	84.4400
 0.4940	84.3800
 0.4950	84.2100
 0.4960	84.3800
 0.4970	84.5000
 0.4980	84.7400
 0.4990	84.6800
 0.5000	84.4500
 0.5010	84.5700
 0.5020	84.8000
 0.5030	85.0300
 0.5040	84.9100
 0.5050	84.8000
 0.5060	84.8500
 0.5070	84.9700
 0.5080	85.2600
 0.5090	85.2600
 0.5100	85.1400
 0.5110	85.1400
 0.5120	85.2000
 0.5130	85.5300
 0.5140	85.6500
 0.5150	85.3600
 0.5160	85.3100
 0.5170	85.3600
 0.5180	85.6500
 0.5190	85.7700
 0.5200	85.4800
 0.5210	85.4800
 0.5220	85.5300
 0.5230	85.7700
 0.5240	86.0000
 0.5250	85.5900
 0.5260	85.5900
 0.5270	85.7100
 0.5280	85.9400
 0.5290	86.0500
 0.5300	85.8800
 0.5310	85.7100
 0.5320	85.8200
 0.5330	86.0000
 0.5340	86.0000
 0.5350	85.8200
 0.5360	85.6500
 0.5370	85.8200
 0.5380	86.1100
 0.5390	86.3400
 0.5400	86.1100
 0.5410	85.8800
 0.5420	85.8200
 0.5430	85.9400
 0.5440	86.0500
 0.5450	86.0000
 0.5460	85.7700
 0.5470	85.8200
 0.5480	86.1700
 0.5490	86.4000
 0.5500	86.2800
 0.5510	86.1700
 0.5520	86.1100
 0.5530	86.3400
 0.5540	86.4600
 0.5550	86.4000
 0.5560	86.2300
 0.5570	86.1700
 0.5580	86.3400
 0.5590	86.4600
 0.5600	86.5100
 0.5610	86.7400
 0.5620	86.6300
 0.5630	86.5100
 0.5640	86.4600
 0.5650	86.6900
 0.5660	86.8600
 0.5670	86.6900
 0.5680	86.6300
 0.5690	86.3400
 0.5700	86.5100
 0.5710	86.6300
 0.5720	86.5700
 0.5730	86.3400
 0.5740	86.1100
 0.5750	86.4600
 0.5760	86.5100
 0.5770	86.5100
 0.5780	86.5100
 0.5790	86.2800
 0.5800	86.2800
 0.5810	86.4000
 0.5820	86.4000
 0.5830	86.3400
 0.5840	86.1700
 0.5850	86.1700
 0.5860	86.4600
 0.5870	86.6900
 0.5880	86.5100
 0.5890	86.3400
 0.5900	86.2800
 0.5910	86.5100
 0.5920	86.7400
 0.5930	86.6300
 0.5940	86.4000
 0.5950	86.4600
 0.5960	86.6300
 0.5970	86.8600
 0.5980	86.6900
 0.5990	86.5700
 0.6000	86.5700
 0.6010	86.6900
 0.6020	86.9200
 0.6030	86.9200
 0.6040	86.6300
 0.6050	86.6900
 0.6060	86.6900
 0.6070	86.9700
 0.6080	87.0200
 0.6090	86.6900
 0.6100	86.6900
 0.6110	86.6900
 0.6120	86.9200
 0.6130	86.9200
 0.6140	86.6300
 0.6150	86.7400
 0.6160	86.8000
 0.6170	86.9700
 0.6180	86.8600
 0.6190	86.5100
 0.6200	86.4000
 0.6210	86.5700
 0.6220	86.9200
 0.6230	86.9700
 0.6240	86.6900
 0.6250	86.5100
 0.6260	86.6300
 0.6270	86.8000
 0.6280	86.8000
 0.6290	86.8000
 0.6300	86.5700
 0.6310	86.5700
 0.6320	86.7400
 0.6330	86.8600
 0.6340	86.8000
 0.6350	86.7400
 0.6360	86.5700
 0.6370	86.6300
 0.6380	86.8000
 0.6390	86.8600
 0.6400	86.6900
 0.6410	86.5700
 0.6420	86.7400
 0.6430	86.9200
 0.6440	86.8600
 0.6450	86.8000
 0.6460	86.5700
 0.6470	86.7400
 0.6480	86.9200
 0.6490	86.9200
 0.6500	86.8000
 0.6510	86.4600
 0.6520	86.8000
 0.6530	86.9200
 0.6540	86.9200
 0.6550	86.9200
 0.6560	86.6900
 0.6570	86.8000
 0.6580	86.9200
 0.6590	86.8000
 0.6600	86.8000
 0.6610	86.5100
 0.6620	86.6900
 0.6630	86.9200
 0.6640	86.9700
 0.6650	86.9200
 0.6660	86.6300
 0.6670	86.8600
 0.6680	87.0200
 0.6690	87.0800
 0.6700	86.9700
 0.6710	86.6900
 0.6720	86.8000
 0.6730	86.9700
 0.6740	87.2000
 0.6750	87.1400
 0.6760	86.8600
 0.6770	86.8600
 0.6780	87.0800
 0.6790	87.2000
 0.6800	87.1400
 0.6810	86.8600
 0.6820	86.8600
 0.6830	86.8600
 0.6840	87.2000
 0.6850	87.1400
 0.6860	86.9200
 0.6870	86.9700
 0.6880	86.9700
 0.6890	87.2500
 0.6900	87.2500
 0.6910	87.0200
 0.6920	86.9700
 0.6930	87.0200
 0.6940	87.2000
 0.6950	87.2500
 0.6960	87.1400
 0.6970	87.0800
 0.6980	86.9700
 0.6990	87.0200
 0.7000	86.8600
 0.7010	87.0800
 0.7020	87.0200
 0.7030	86.8600
 0.7040	86.7400
 0.7050	86.8600
 0.7060	87.1400
 0.7070	87.2000
 0.7080	87.1400
 0.7090	87.0200
 0.7100	87.0800
 0.7110	87.3700
 0.7120	87.3700
 0.7130	87.2500
 0.7140	86.9700
 0.7150	87.0800
 0.7160	87.3700
 0.7170	87.4300
 0.7180	87.3700
 0.7190	87.0200
 0.7200	87.1400
 0.7210	87.4800
 0.7220	87.4800
 0.7230	87.4300
 0.7240	87.0800
 0.7250	87.1400
 0.7260	87.2500
 0.7270	87.5400
 0.7280	87.3100
 0.7290	87.1400
 0.7300	87.2500
 0.7310	87.2500
 0.7320	87.5400
 0.7330	87.4300
 0.7340	87.0800
 0.7350	87.2000
 0.7360	87.3700
 0.7370	87.4300
 0.7380	87.4300
 0.7390	87.2000
 0.7400	87.2000
 0.7410	87.4800
 0.7420	87.6600
 0.7430	87.5400
 0.7440	87.4300
 0.7450	87.3700
 0.7460	87.4300
 0.7470	87.6000
 0.7480	87.6000
 0.7490	87.4800
 0.7500	87.3700
 0.7510	87.4800
 0.7520	87.5400
 0.7530	87.7700
 0.7540	87.6600
 0.7550	87.4300
 0.7560	87.4800
 0.7570	87.6600
 0.7580	87.7700
 0.7590	87.6600
 0.7600	87.6000
 0.7610	87.4300
 0.7620	87.4800
 0.7630	87.8300
 0.7640	87.7700
 0.7650	87.7700
 0.7660	87.5400
 0.7670	87.5400
 0.7680	87.7100
 0.7690	87.7100
 0.7700	87.6600
 0.7710	87.4800
 0.7720	87.4800
 0.7730	87.7700
 0.7740	87.7700
 0.7750	87.6000
 0.7760	87.4300
 0.7770	87.4800
 0.7780	87.7700
 0.7790	87.7100
 0.7800	87.6000
 0.7810	87.4800
 0.7820	87.5400
 0.7830	87.8300
 0.7840	87.8900
 0.7850	87.6600
 0.7860	87.4300
 0.7870	87.5400
 0.7880	87.9400
 0.7890	87.8300
 0.7900	87.7700
 0.7910	87.6000
 0.7920	87.6000
 0.7930	88.0000
 0.7940	87.9400
 0.7950	87.7700
 0.7960	87.6000
 0.7970	87.7700
 0.7980	88.0600
 0.7990	88.0000
 0.8000	88.0200
 0.8040	88.1200
 0.8080	88.0000
 0.8120	87.8300
 0.8160	88.1200
 0.8200	87.9400
 0.8240	88.0600
 0.8280	88.1200
 0.8320	88.1200
 0.8360	88.1200
 0.8400	88.2300
 0.8440	88.1700
 0.8480	88.1200
 0.8520	88.2300
 0.8560	88.1700
 0.8600	88.3500
 0.8640	88.1200
 0.8680	88.2300
 0.8720	88.2300
 0.8760	88.1700
 0.8800	88.1200
 0.8840	88.2900
 0.8880	88.2300
 0.8920	88.1200
 0.8960	88.1200
 0.9000	87.9400
 0.9040	88.1700
 0.9080	88.0600
 0.9120	88.0000
 0.9160	88.1200
 0.9200	88.0600
 0.9240	88.1200
 0.9280	88.1200
 0.9320	88.1700
 0.9360	88.0000
 0.9400	88.1200
 0.9440	87.9400
 0.9480	88.0000
 0.9520	88.1700
 0.9560	88.1200
 0.9600	88.1200
 0.9640	88.0000
 0.9680	87.9400
 0.9720	88.0600
 0.9760	87.9400
 0.9800	87.9400
 0.9840	88.0600
 0.9880	88.1700
 0.9920	88.0000
 0.9960	87.8900
 1.0000	87.9400
 1.0040	87.8900
 1.0080	87.9400
 1.0120	87.8900
 1.0160	88.0600
 1.0200	87.8900
 1.0240	87.9400
 1.0280	87.9400
 1.0320	87.9400
 1.0360	88.0600
 1.0400	87.9400
 1.0440	88.0000
 1.0480	87.8300
 1.0520	87.8300
 1.0560	87.8300
 1.0600	87.9400
 1.0640	87.8300
 1.0680	87.8300
 1.0720	87.8900
 1.0760	87.9400
 1.0800	87.9400
 1.0840	87.8300
 1.0880	88.0000
 1.0920	87.8900
 1.0960	87.8300
 1.1000	87.7700
 1.1040	87.8900
 1.1080	87.8900
 1.1120	87.7700
 1.1160	88.0000
 1.1200	87.8900
 1.1240	87.7100
 1.1280	87.8900
 1.1320	87.9400
 1.1360	87.8900
 1.1400	87.7700
 1.1440	87.8900
 1.1480	87.7100
 1.1520	87.7100
 1.1560	87.7000
 1.1600	87.8700
 1.1640	87.8600
 1.1680	87.6300
 1.1720	87.6800
 1.1760	87.6200
 1.1800	87.5500
 1.1840	87.7100
 1.1880	87.8200
 1.1920	87.6400
 1.1960	87.4600
 1.2000	87.6800
 1.2040	87.5100
 1.2080	87.6800
 1.2120	87.5700
 1.2160	87.6200
 1.2200	87.5100
 1.2240	87.5700
 1.2280	87.4500
 1.2320	87.6800
 1.2360	87.6200
 1.2400	87.5700
 1.2440	87.6200
 1.2480	87.5700
 1.2520	87.4500
 1.2560	87.5600
 1.2600	87.5600
 1.2640	87.4900
 1.2680	87.4800
 1.2720	87.5400
 1.2760	87.5800
 1.2800	87.5700
 1.2840	87.4500
 1.2880	87.6100
 1.2920	87.5000
 1.2960	87.3700
 1.3000	87.4800
 1.3040	87.5300
 1.3080	87.4700
 1.3120	87.4100
 1.3160	87.5100
 1.3200	87.4500
 1.3240	87.3800
 1.3280	87.2500
 1.3320	87.3700
 1.3360	87.2400
 1.3400	87.2400
 1.3440	87.2300
 1.3480	87.2800
 1.3520	87.2200
 1.3560	87.1100
 1.3600	87.1100
 1.3640	87.1100
 1.3680	87.0500
 1.3720	86.9400
 1.3760	86.5300
 1.3800	86.0200
 1.3840	85.9700
 1.3880	85.9100
 1.3920	86.1400
 1.3960	85.8500
 1.4000	85.6200
 1.4040	85.5200
 1.4080	85.5800
 1.4120	85.3500
 1.4160	85.1300
 1.4200	85.2000
 1.4240	85.0900
 1.4280	85.1000
 1.4320	85.1600
 1.4360	85.3400
 1.4400	85.2400
 1.4440	85.1200
 1.4480	85.2500
 1.4520	85.1900
 1.4560	85.2500
 1.4600	85.1300
 1.4640	85.2500
 1.4680	85.1300
 1.4720	85.2500
 1.4760	85.2500
 1.4800	85.3100
 1.4840	85.3100
 1.4880	85.1300
 1.4920	85.3100
 1.4960	85.1900
 1.5000	85.2500
 1.5040	85.2500
 1.5080	85.1900
 1.5120	85.1300
 1.5160	85.1900
 1.5200	85.3600
 1.5240	85.2500
 1.5280	85.1900
 1.5320	85.3100
 1.5360	85.3100
 1.5400	85.1900
 1.5440	85.2500
 1.5480	85.2500
 1.5520	85.3100
 1.5560	85.3600
 1.5600	85.3600
 1.5640	85.4200
 1.5680	85.3100
 1.5720	85.3100
 1.5760	85.4800
 1.5800	85.4200
 1.5840	85.3600
 1.5880	85.4200
 1.5920	85.3600
 1.5960	85.4800
 1.6000	85.3600
 1.6040	85.4700
 1.6080	85.4600
 1.6120	85.3400
 1.6160	85.3400
 1.6200	85.2800
 1.6240	85.3200
 1.6280	85.2000
 1.6320	85.3100
 1.6360	85.3000
 1.6400	85.3500
 1.6440	85.2800
 1.6480	85.3400
 1.6520	85.3400
 1.6560	85.3300
 1.6600	85.0900
 1.6640	85.2500
 1.6680	85.1900
 1.6720	85.1900
 1.6760	85.2300
 1.6800	85.1700
 1.6840	85.2200
 1.6880	85.0400
 1.6920	85.1600
 1.6960	85.1500
 1.7000	85.1900
 1.7040	85.1400
 1.7080	85.1400
 1.7120	85.2500
 1.7160	85.1900
 1.7200	85.1400
 1.7240	85.0800
 1.7280	85.1900
 1.7320	85.0800
 1.7360	84.9600
 1.7400	85.0200
 1.7440	85.0800
 1.7480	84.8500
 1.7520	85.0200
 1.7560	84.9100
 1.7600	85.0200
 1.7640	84.9100
 1.7680	84.9100
 1.7720	84.8500
 1.7760	84.8500
 1.7800	84.7900
 1.7840	84.9100
 1.7880	85.0200
 1.7920	84.7900
 1.7960	84.7900
 1.8000	84.8500
 1.8040	84.9400
 1.8080	84.6800
 1.8120	84.6500
 1.8160	84.5700
 1.8200	84.6600
 1.8240	84.5700
 1.8280	84.5500
 1.8320	84.5700
 1.8360	84.5500
 1.8400	84.4100
 1.8440	84.2700
 1.8480	84.3600
 1.8520	84.0600
 1.8560	84.1100
 1.8600	84.0400
 1.8640	83.7500
 1.8680	83.3400
 1.8720	83.1200
 1.8760	82.7600
 1.8800	82.3000
 1.8840	81.6700
 1.8880	80.9800
 1.8920	80.3500
 1.8960	79.5600
 1.9000	79.0400
 1.9040	78.6800
 1.9080	78.3900
 1.9120	78.2200
 1.9160	78.1600
 1.9200	78.1500
 1.9240	78.0900
 1.9280	78.3600
 1.9320	78.2500
 1.9360	78.3500
 1.9400	78.2900
 1.9440	78.3300
 1.9480	78.2200
 1.9520	78.3200
 1.9560	78.1300
 1.9600	78.2300
 1.9640	78.1000
 1.9680	78.1300
 1.9720	77.9500
 1.9760	78.0900
 1.9800	78.1300
 1.9840	78.2900
 1.9880	78.3200
 1.9920	78.3000
 1.9960	78.4500
 2.0000	78.4900
 2.0040	78.4700
 2.0080	78.5300
 2.0120	78.5400
 2.0160	78.6700
 2.0200	78.7500
 2.0240	78.8600
 2.0280	78.8500
 2.0320	78.8500
 2.0360	78.9400
 2.0400	79.0700
 2.0440	79.0700
 2.0480	79.1100
 2.0520	79.0100
 2.0560	79.1400
 2.0600	79.2200
 2.0640	79.3000
 2.0680	79.3800
 2.0720	79.5800
 2.0760	79.6500
 2.0800	79.6200
 2.0840	79.7500
 2.0880	80.0000
 2.0920	79.9600
 2.0960	80.2100
 2.1000	80.1200
 2.1040	80.4800
 2.1080	80.3400
 2.1120	80.6400
 2.1160	80.8300
 2.1200	80.8000
 2.1240	80.7800
 2.1280	80.8300
 2.1320	81.1200
 2.1360	81.0100
 2.1400	81.2400
 2.1440	81.2100
 2.1480	81.4700
 2.1520	81.3500
 2.1560	81.4200
 2.1600	81.4900
 2.1640	81.5300
 2.1680	81.4100
 2.1720	81.4000
 2.1760	81.4500
 2.1800	81.3800
 2.1840	81.3900
 2.1880	81.2300
 2.1920	81.3600
 2.1960	81.0800
 2.2000	80.9800
 2.2040	80.9800
 2.2080	80.9200
 2.2120	80.6000
 2.2160	80.5200
 2.2200	80.4400
 2.2240	80.1700
 2.2280	79.9300
 2.2320	79.7500
 2.2360	79.5500
 2.2400	79.2300
 2.2440	79.0700
 2.2480	78.9000
 2.2520	78.8300
 2.2560	78.3500
 2.2600	78.0900
 2.2640	77.9700
 2.2680	77.8100
 2.2720	77.5700
 2.2760	77.3700
 2.2800	77.3400
 2.2840	77.0200
 2.2880	76.8700
 2.2920	76.9900
 2.2960	76.8200
 2.3000	76.9200
 2.3040	76.9500
 2.3080	77.4800
 2.3120	77.6700
 2.3160	77.9100
 2.3200	78.2200
 2.3240	78.3200
 2.3280	78.5400
 2.3320	78.5900
 2.3360	78.7500
 2.3400	78.5100
 2.3440	78.5900
 2.3480	78.4400
 2.3520	78.2500
 2.3560	78.2100
 2.3600	77.8500
 2.3640	77.8700
 2.3680	77.3400
 2.3720	77.1600
 2.3760	76.8800
 2.3800	76.6100
 2.3840	76.3000
 2.3880	76.0400
 2.3920	75.8100
 2.3960	75.4700
 2.4000	75.3600
 2.4040	75.1800
 2.4080	74.9500
 2.4120	74.5100
 2.4160	74.2800
 2.4200	73.8300
 2.4240	73.6000
 2.4280	73.2100
 2.4320	72.8200
 2.4360	72.5400
 2.4400	72.0900
 2.4440	71.8000
 2.4480	71.5200
 2.4520	71.0800
 2.4560	70.6700
 2.4600	70.5000
 2.4640	70.0500
 2.4680	69.8300
 2.4720	69.6100
 2.4760	69.2100
 2.4800	69.0300
 2.4840	68.7600
 2.4880	68.8600
 2.4920	68.5800
 2.4960	68.5200
 2.5000	68.5200
