Name: Glaucophane Na_2(Mg,Fe^2+)_3Al_2Si_8O_22(OH)_2
Type: Mineral
Class: Silicate
Subclass: Inosilicate
Particle Size: Fine
Sample No.: IN-3A
Owner: JPL
Wavelength Range: VSWIR
Origin: USA, California
Collection Date: N/A
Description: Particle size was 0-45um.Collected by Ward's Original ASTER Spectral Library name was jpl.beckman.mineral.silicate.inosilicate.fine.in03a.spectrum.txt
Measurement: Hemispherical reflectance
First Column: X
Second Column: Y
X Units: Wavelength (micrometers)
Y Units:Reflectance (percent)
First X Value:  0.4000
Last X Value:  2.5000
Number of X Values: 826
Additional Information: mineral.silicate.inosilicate.fine.vswir.in-3a.jpl.beckman.ancillary.txt

 0.4000	21.6100
 0.4010	21.9400
 0.4020	22.0600
 0.4030	22.3100
 0.4040	22.2900
 0.4050	22.6400
 0.4060	22.8200
 0.4070	22.8800
 0.4080	23.0000
 0.4090	23.0900
 0.4100	23.3900
 0.4110	23.6300
 0.4120	23.6000
 0.4130	23.7900
 0.4140	23.9100
 0.4150	24.0600
 0.4160	24.3500
 0.4170	24.5200
 0.4180	24.5300
 0.4190	24.7300
 0.4200	24.8400
 0.4210	25.0300
 0.4220	25.1100
 0.4230	25.3100
 0.4240	25.5500
 0.4250	25.6000
 0.4260	25.5900
 0.4270	25.7200
 0.4280	25.9800
 0.4290	26.1000
 0.4300	26.2100
 0.4310	26.2200
 0.4320	26.3900
 0.4330	26.5100
 0.4340	26.5600
 0.4350	26.4200
 0.4360	26.6200
 0.4370	26.7600
 0.4380	26.7600
 0.4390	26.9300
 0.4400	27.1500
 0.4410	27.3800
 0.4420	27.5200
 0.4430	27.5400
 0.4440	27.5800
 0.4450	27.8100
 0.4460	27.8400
 0.4470	28.0200
 0.4480	27.9000
 0.4490	28.1100
 0.4500	28.2200
 0.4510	28.0800
 0.4520	28.1800
 0.4530	28.1700
 0.4540	28.3500
 0.4550	28.5800
 0.4560	28.5000
 0.4570	28.6000
 0.4580	28.6500
 0.4590	28.7100
 0.4600	28.7500
 0.4610	28.8600
 0.4620	28.8400
 0.4630	28.9400
 0.4640	29.1200
 0.4650	29.0200
 0.4660	29.1400
 0.4670	29.0500
 0.4680	29.0700
 0.4690	29.2100
 0.4700	29.2400
 0.4710	29.3600
 0.4720	29.2600
 0.4730	29.3000
 0.4740	29.3700
 0.4750	29.5800
 0.4760	29.4800
 0.4770	29.5600
 0.4780	29.4800
 0.4790	29.6800
 0.4800	29.5800
 0.4810	29.5500
 0.4820	29.7400
 0.4830	29.8000
 0.4840	29.8600
 0.4850	29.8800
 0.4860	29.7800
 0.4870	29.8800
 0.4880	29.8100
 0.4890	29.8900
 0.4900	29.9100
 0.4910	29.8900
 0.4920	30.0500
 0.4930	29.9100
 0.4940	30.0100
 0.4950	30.0900
 0.4960	30.0700
 0.4970	30.0900
 0.4980	30.0000
 0.4990	30.1300
 0.5000	30.1900
 0.5010	30.2700
 0.5020	30.2500
 0.5030	30.2400
 0.5040	30.2600
 0.5050	30.2900
 0.5060	30.2200
 0.5070	30.2700
 0.5080	30.3500
 0.5090	30.3100
 0.5100	30.4500
 0.5110	30.2800
 0.5120	30.3000
 0.5130	30.3700
 0.5140	30.3900
 0.5150	30.5300
 0.5160	30.4300
 0.5170	30.3900
 0.5180	30.4300
 0.5190	30.3700
 0.5200	30.5500
 0.5210	30.4100
 0.5220	30.3500
 0.5230	30.5300
 0.5240	30.3200
 0.5250	30.3800
 0.5260	30.3400
 0.5270	30.4400
 0.5280	30.4800
 0.5290	30.3800
 0.5300	30.3800
 0.5310	30.3200
 0.5320	30.2200
 0.5330	30.4100
 0.5340	30.4200
 0.5350	30.3500
 0.5360	30.4700
 0.5370	30.3700
 0.5380	30.3700
 0.5390	30.4300
 0.5400	30.3500
 0.5410	30.5700
 0.5420	30.3200
 0.5430	30.3200
 0.5440	30.3200
 0.5450	30.3800
 0.5460	30.5000
 0.5470	30.3900
 0.5480	30.3100
 0.5490	30.4300
 0.5500	30.3300
 0.5510	30.4900
 0.5520	30.4500
 0.5530	30.3900
 0.5540	30.4900
 0.5550	30.3900
 0.5560	30.5500
 0.5570	30.5200
 0.5580	30.4200
 0.5590	30.5300
 0.5600	30.4500
 0.5610	30.6300
 0.5620	30.6300
 0.5630	30.5900
 0.5640	30.5900
 0.5650	30.6100
 0.5660	30.5700
 0.5670	30.5100
 0.5680	30.5300
 0.5690	30.7200
 0.5700	30.5900
 0.5710	30.4700
 0.5720	30.5500
 0.5730	30.5700
 0.5740	30.6000
 0.5750	30.4900
 0.5760	30.3900
 0.5770	30.4100
 0.5780	30.5500
 0.5790	30.4900
 0.5800	30.4600
 0.5810	30.3400
 0.5820	30.5600
 0.5830	30.3800
 0.5840	30.3100
 0.5850	30.3200
 0.5860	30.3400
 0.5870	30.3800
 0.5880	30.3600
 0.5890	30.3100
 0.5900	30.2900
 0.5910	30.4500
 0.5920	30.3400
 0.5930	30.4200
 0.5940	30.3100
 0.5950	30.4900
 0.5960	30.2900
 0.5970	30.2900
 0.5980	30.3300
 0.5990	30.4300
 0.6000	30.3600
 0.6010	30.3700
 0.6020	30.2700
 0.6030	30.3400
 0.6040	30.3900
 0.6050	30.3600
 0.6060	30.3400
 0.6070	30.3400
 0.6080	30.4500
 0.6090	30.1900
 0.6100	30.1700
 0.6110	30.2700
 0.6120	30.2300
 0.6130	30.3100
 0.6140	30.2100
 0.6150	30.1900
 0.6160	30.2700
 0.6170	30.2300
 0.6180	30.0700
 0.6190	30.0500
 0.6200	30.0100
 0.6210	30.0500
 0.6220	30.1700
 0.6230	30.1100
 0.6240	30.1300
 0.6250	30.0700
 0.6260	30.2500
 0.6270	30.0600
 0.6280	30.0400
 0.6290	30.1300
 0.6300	30.1300
 0.6310	30.1900
 0.6320	30.1300
 0.6330	29.9700
 0.6340	29.9800
 0.6350	30.0900
 0.6360	30.0500
 0.6370	30.0900
 0.6380	30.0900
 0.6390	30.1900
 0.6400	30.0600
 0.6410	30.0000
 0.6420	30.0700
 0.6430	30.0700
 0.6440	30.1300
 0.6450	30.1100
 0.6460	30.0300
 0.6470	30.0400
 0.6480	30.1500
 0.6490	30.0800
 0.6500	30.1100
 0.6510	30.0800
 0.6520	30.2300
 0.6530	30.0400
 0.6540	30.0900
 0.6550	30.2100
 0.6560	30.1900
 0.6570	30.2600
 0.6580	30.1900
 0.6590	30.1700
 0.6600	30.2700
 0.6610	30.2300
 0.6620	30.2900
 0.6630	30.3500
 0.6640	30.2300
 0.6650	30.2500
 0.6660	30.3500
 0.6670	30.3300
 0.6680	30.3400
 0.6690	30.3000
 0.6700	30.4600
 0.6710	30.3800
 0.6720	30.4200
 0.6730	30.4400
 0.6740	30.5400
 0.6750	30.5000
 0.6760	30.4400
 0.6770	30.4200
 0.6780	30.5800
 0.6790	30.6500
 0.6800	30.6500
 0.6810	30.6500
 0.6820	30.6300
 0.6830	30.6100
 0.6840	30.6800
 0.6850	30.6800
 0.6860	30.7200
 0.6870	30.7200
 0.6880	30.9100
 0.6890	30.7800
 0.6900	30.7800
 0.6910	30.8600
 0.6920	30.8200
 0.6930	31.0100
 0.6940	30.9700
 0.6950	30.8600
 0.6960	30.9100
 0.6970	31.0500
 0.6980	31.1100
 0.6990	31.1200
 0.7000	31.0600
 0.7010	31.0600
 0.7020	31.1600
 0.7030	31.1700
 0.7040	31.3200
 0.7050	31.2000
 0.7060	31.3800
 0.7070	31.3800
 0.7080	31.4700
 0.7090	31.4400
 0.7100	31.4600
 0.7110	31.4700
 0.7120	31.6100
 0.7130	31.6900
 0.7140	31.6700
 0.7150	31.7100
 0.7160	31.6900
 0.7170	31.8600
 0.7180	31.7500
 0.7190	31.9200
 0.7200	31.9000
 0.7210	32.0300
 0.7220	31.9600
 0.7230	31.9400
 0.7240	32.0500
 0.7250	32.1700
 0.7260	32.2100
 0.7270	32.2100
 0.7280	32.2100
 0.7290	32.2100
 0.7300	32.3700
 0.7310	32.2800
 0.7320	32.4100
 0.7330	32.4700
 0.7340	32.5100
 0.7350	32.5300
 0.7360	32.4700
 0.7370	32.5800
 0.7380	32.7000
 0.7390	32.5800
 0.7400	32.7400
 0.7410	32.7200
 0.7420	32.8700
 0.7430	32.8400
 0.7440	32.7800
 0.7450	32.9100
 0.7460	32.9800
 0.7470	33.1200
 0.7480	33.0700
 0.7490	33.1200
 0.7500	33.1600
 0.7510	33.3700
 0.7520	33.2200
 0.7530	33.3000
 0.7540	33.3200
 0.7550	33.5100
 0.7560	33.3500
 0.7570	33.3500
 0.7580	33.5300
 0.7590	33.5600
 0.7600	33.6000
 0.7610	33.6400
 0.7620	33.5900
 0.7630	33.5400
 0.7640	33.7000
 0.7650	33.6600
 0.7660	33.6800
 0.7670	33.8300
 0.7680	33.8100
 0.7690	33.8500
 0.7700	33.8100
 0.7710	33.8200
 0.7720	33.8700
 0.7730	33.8800
 0.7740	33.9200
 0.7750	33.8700
 0.7760	33.8100
 0.7770	33.9100
 0.7780	33.8700
 0.7790	33.9600
 0.7800	34.0500
 0.7810	34.0700
 0.7820	34.1000
 0.7830	34.1200
 0.7840	34.2600
 0.7850	34.2800
 0.7860	34.2600
 0.7870	34.2000
 0.7880	34.1800
 0.7890	34.1700
 0.7900	34.3400
 0.7910	34.1800
 0.7920	34.2000
 0.7930	34.2400
 0.7940	34.3400
 0.7950	34.2800
 0.7960	34.2600
 0.7970	34.3300
 0.7980	34.3800
 0.7990	34.4500
 0.8000	34.4300
 0.8040	34.3900
 0.8080	34.4900
 0.8120	34.4800
 0.8160	34.5000
 0.8200	34.5300
 0.8240	34.5900
 0.8280	34.6300
 0.8320	34.6300
 0.8360	34.7300
 0.8400	34.7600
 0.8440	34.8200
 0.8480	34.8600
 0.8520	34.9800
 0.8560	34.9700
 0.8600	35.0600
 0.8640	35.1300
 0.8680	35.2300
 0.8720	35.3300
 0.8760	35.4800
 0.8800	35.4900
 0.8840	35.6200
 0.8880	35.6500
 0.8920	35.8000
 0.8960	35.8300
 0.9000	35.9000
 0.9040	35.9800
 0.9080	36.1500
 0.9120	36.2700
 0.9160	36.3900
 0.9200	36.4900
 0.9240	36.6100
 0.9280	36.6600
 0.9320	36.7800
 0.9360	36.7100
 0.9400	36.8500
 0.9440	36.9300
 0.9480	37.0300
 0.9520	37.1000
 0.9560	37.2400
 0.9600	37.2700
 0.9640	37.3500
 0.9680	37.4600
 0.9720	37.4400
 0.9760	37.5200
 0.9800	37.5800
 0.9840	37.6400
 0.9880	37.7400
 0.9920	37.8300
 0.9960	37.8700
 1.0000	37.9000
 1.0040	38.0800
 1.0080	38.0800
 1.0120	38.1000
 1.0160	38.0800
 1.0200	38.2300
 1.0240	38.3800
 1.0280	38.5300
 1.0320	38.6100
 1.0360	38.6500
 1.0400	38.7100
 1.0440	38.8200
 1.0480	38.8900
 1.0520	39.0400
 1.0560	39.1800
 1.0600	39.2400
 1.0640	39.3200
 1.0680	39.3800
 1.0720	39.4400
 1.0760	39.6100
 1.0800	39.7400
 1.0840	39.9200
 1.0880	40.0300
 1.0920	40.1300
 1.0960	40.1700
 1.1000	40.3100
 1.1040	40.4400
 1.1080	40.5700
 1.1120	40.7600
 1.1160	41.0500
 1.1200	41.0100
 1.1240	41.2500
 1.1280	41.3100
 1.1320	41.4000
 1.1360	41.5300
 1.1400	41.6600
 1.1440	41.8200
 1.1480	41.8700
 1.1520	42.0500
 1.1560	42.1900
 1.1600	42.4500
 1.1640	42.5600
 1.1680	42.7100
 1.1720	42.8200
 1.1760	42.9200
 1.1800	43.0600
 1.1840	43.1000
 1.1880	43.3100
 1.1920	43.4000
 1.1960	43.6100
 1.2000	43.7800
 1.2040	43.9600
 1.2080	44.1100
 1.2120	44.2700
 1.2160	44.3100
 1.2200	44.4600
 1.2240	44.5900
 1.2280	44.7000
 1.2320	44.8000
 1.2360	44.9500
 1.2400	45.1100
 1.2440	45.2900
 1.2480	45.4100
 1.2520	45.4700
 1.2560	45.5400
 1.2600	45.6900
 1.2640	45.8200
 1.2680	46.0500
 1.2720	46.1100
 1.2760	46.2200
 1.2800	46.3400
 1.2840	46.4400
 1.2880	46.5500
 1.2920	46.5800
 1.2960	46.6900
 1.3000	46.7700
 1.3040	46.8900
 1.3080	47.0800
 1.3120	47.1400
 1.3160	47.3300
 1.3200	47.4200
 1.3240	47.4700
 1.3280	47.5800
 1.3320	47.6700
 1.3360	47.7800
 1.3400	47.8000
 1.3440	47.8500
 1.3480	47.9600
 1.3520	48.0400
 1.3560	48.1400
 1.3600	48.2500
 1.3640	48.3500
 1.3680	48.5000
 1.3720	48.5700
 1.3760	48.6400
 1.3800	48.6800
 1.3840	48.5300
 1.3880	48.3100
 1.3920	47.9000
 1.3960	47.5100
 1.4000	47.3300
 1.4040	47.4800
 1.4080	48.0600
 1.4120	48.6900
 1.4160	49.0400
 1.4200	49.1400
 1.4240	49.2000
 1.4280	49.2600
 1.4320	49.4100
 1.4360	49.4700
 1.4400	49.5600
 1.4440	49.6200
 1.4480	49.7200
 1.4520	49.6400
 1.4560	49.6900
 1.4600	49.7200
 1.4640	49.8900
 1.4680	49.9200
 1.4720	50.0800
 1.4760	50.1900
 1.4800	50.1800
 1.4840	50.2200
 1.4880	50.2600
 1.4920	50.3600
 1.4960	50.3800
 1.5000	50.4800
 1.5040	50.6100
 1.5080	50.6700
 1.5120	50.7000
 1.5160	50.7900
 1.5200	50.8400
 1.5240	50.7700
 1.5280	50.9000
 1.5320	50.9500
 1.5360	51.0600
 1.5400	51.0400
 1.5440	51.1900
 1.5480	51.1100
 1.5520	51.1900
 1.5560	51.2300
 1.5600	51.2500
 1.5640	51.3500
 1.5680	51.4700
 1.5720	51.5200
 1.5760	51.5100
 1.5800	51.6000
 1.5840	51.5500
 1.5880	51.6400
 1.5920	51.6700
 1.5960	51.7600
 1.6000	51.8900
 1.6040	51.9100
 1.6080	51.8900
 1.6120	51.9300
 1.6160	52.0200
 1.6200	51.9800
 1.6240	51.9200
 1.6280	52.0900
 1.6320	52.0900
 1.6360	52.1800
 1.6400	52.2400
 1.6440	52.2400
 1.6480	52.3000
 1.6520	52.3400
 1.6560	52.3400
 1.6600	52.4000
 1.6640	52.4900
 1.6680	52.4500
 1.6720	52.5800
 1.6760	52.5700
 1.6800	52.6500
 1.6840	52.6100
 1.6880	52.5400
 1.6920	52.6100
 1.6960	52.7300
 1.7000	52.7400
 1.7040	52.7800
 1.7080	52.8800
 1.7120	52.8300
 1.7160	52.9300
 1.7200	52.9300
 1.7240	52.9700
 1.7280	53.0200
 1.7320	52.9700
 1.7360	52.9300
 1.7400	52.9800
 1.7440	52.9500
 1.7480	53.0400
 1.7520	53.0000
 1.7560	53.0700
 1.7600	53.0800
 1.7640	53.1700
 1.7680	53.1300
 1.7720	53.0800
 1.7760	53.1000
 1.7800	53.1200
 1.7840	53.2100
 1.7880	53.1700
 1.7920	53.2200
 1.7960	53.4000
 1.8000	53.4100
 1.8040	53.4400
 1.8080	53.3800
 1.8120	53.2600
 1.8160	53.2400
 1.8200	53.2800
 1.8240	53.3000
 1.8280	53.3800
 1.8320	53.4100
 1.8360	53.4400
 1.8400	53.4900
 1.8440	53.4300
 1.8480	53.3700
 1.8520	53.4200
 1.8560	53.3800
 1.8600	53.3600
 1.8640	53.3700
 1.8680	53.3800
 1.8720	53.2800
 1.8760	53.3500
 1.8800	53.3500
 1.8840	53.3600
 1.8880	53.3200
 1.8920	53.3300
 1.8960	53.2900
 1.9000	53.1400
 1.9040	53.0700
 1.9080	53.0800
 1.9120	53.0300
 1.9160	52.9200
 1.9200	52.9500
 1.9240	52.9000
 1.9280	52.8900
 1.9320	52.8100
 1.9360	52.8400
 1.9400	52.7600
 1.9440	52.7100
 1.9480	52.7700
 1.9520	52.7400
 1.9560	52.8500
 1.9600	53.0000
 1.9640	53.0200
 1.9680	53.0200
 1.9720	53.1400
 1.9760	53.1700
 1.9800	53.0900
 1.9840	53.1000
 1.9880	53.1700
 1.9920	53.2600
 1.9960	53.2900
 2.0000	53.3800
 2.0040	53.4300
 2.0080	53.4600
 2.0120	53.5600
 2.0160	53.5900
 2.0200	53.6200
 2.0240	53.7200
 2.0280	53.7500
 2.0320	53.7600
 2.0360	53.7300
 2.0400	53.7700
 2.0440	53.8500
 2.0480	53.8000
 2.0520	53.8300
 2.0560	53.9000
 2.0600	53.9600
 2.0640	54.0400
 2.0680	54.1400
 2.0720	54.1200
 2.0760	54.1300
 2.0800	54.1600
 2.0840	54.2500
 2.0880	54.1900
 2.0920	54.0900
 2.0960	54.1200
 2.1000	54.2100
 2.1040	54.2200
 2.1080	54.2400
 2.1120	54.3400
 2.1160	54.4100
 2.1200	54.4500
 2.1240	54.3600
 2.1280	54.3200
 2.1320	54.3200
 2.1360	54.2200
 2.1400	54.1400
 2.1440	54.0300
 2.1480	53.9400
 2.1520	53.8300
 2.1560	53.7500
 2.1600	53.6100
 2.1640	53.5800
 2.1680	53.5600
 2.1720	53.5600
 2.1760	53.5200
 2.1800	53.4600
 2.1840	53.3400
 2.1880	53.1300
 2.1920	53.1300
 2.1960	53.0700
 2.2000	53.0100
 2.2040	52.9600
 2.2080	52.9000
 2.2120	52.7800
 2.2160	52.7200
 2.2200	52.5900
 2.2240	52.3100
 2.2280	52.0400
 2.2320	51.8200
 2.2360	51.6300
 2.2400	51.3000
 2.2440	51.0800
 2.2480	50.8000
 2.2520	50.6400
 2.2560	50.4500
 2.2600	50.2200
 2.2640	50.0100
 2.2680	49.7900
 2.2720	49.6700
 2.2760	49.3600
 2.2800	49.0600
 2.2840	48.7100
 2.2880	48.3200
 2.2920	47.8300
 2.2960	47.3600
 2.3000	46.9100
 2.3040	46.4400
 2.3080	46.1900
 2.3120	46.0800
 2.3160	45.9800
 2.3200	45.9900
 2.3240	46.1500
 2.3280	46.3500
 2.3320	46.6000
 2.3360	46.9600
 2.3400	47.3500
 2.3440	47.7500
 2.3480	48.1600
 2.3520	48.5300
 2.3560	48.8500
 2.3600	49.0800
 2.3640	49.4000
 2.3680	49.4600
 2.3720	49.6200
 2.3760	49.6200
 2.3800	49.6800
 2.3840	49.7400
 2.3880	49.8100
 2.3920	50.0000
 2.3960	50.1200
 2.4000	50.2000
 2.4040	50.3700
 2.4080	50.5200
 2.4120	50.6900
 2.4160	50.7500
 2.4200	50.6900
 2.4240	50.7500
 2.4280	50.6900
 2.4320	50.6300
 2.4360	50.5500
 2.4400	50.4400
 2.4440	50.3500
 2.4480	50.2700
 2.4520	50.2300
 2.4560	50.0700
 2.4600	50.0200
 2.4640	49.8700
 2.4680	49.7700
 2.4720	49.7600
 2.4760	49.6000
 2.4800	49.5700
 2.4840	49.4400
 2.4880	49.4900
 2.4920	49.5000
 2.4960	49.5600
 2.5000	49.5600
