Name: Cookeite LiAl_4(Si_3Al)O_10(OH)_8
Type: Mineral
Class: Silicate
Subclass: Phyllosilicate
Particle Size: Medium
Sample No.: PS-9A
Owner: JPL
Wavelength Range: VSWIR
Origin: USA, Arkansas, Pulaski County.
Collection Date: N/A
Description: Particle size was 45-125um.Collected by:  JPL Original ASTER Spectral Library name was jpl.perkin.mineral.silicate.phyllosilicate.medium.ps09a.spectrum.txt
Measurement: Hemispherical reflectance
First Column: X
Second Column: Y
X Units: Wavelength (micrometers)
Y Units:Reflectance (percent)
First X Value:  2.5000
Last X Value:  0.4000
Number of X Values: 2101
Additional Information: mineral.silicate.phyllosilicate.medium.vswir.ps-9a.jpl.perkin.ancillary.txt

 2.5000	28.4978
 2.4990	28.2124
 2.4980	28.5476
 2.4970	28.4009
 2.4960	28.3853
 2.4950	28.4633
 2.4940	28.6158
 2.4930	28.4213
 2.4920	28.6174
 2.4910	28.4880
 2.4900	28.7052
 2.4890	28.6153
 2.4880	28.7555
 2.4870	28.5290
 2.4860	28.8052
 2.4850	28.6018
 2.4840	28.7999
 2.4830	28.8023
 2.4820	28.9517
 2.4810	28.8772
 2.4800	29.1263
 2.4790	29.0853
 2.4780	29.3003
 2.4770	29.2629
 2.4760	29.3662
 2.4750	29.2827
 2.4740	29.5028
 2.4730	29.4524
 2.4720	29.6068
 2.4710	29.4756
 2.4700	29.5706
 2.4690	29.5404
 2.4680	29.6863
 2.4670	29.6547
 2.4660	29.7954
 2.4650	29.7939
 2.4640	29.8179
 2.4630	29.6941
 2.4620	29.8604
 2.4610	29.6895
 2.4600	29.9662
 2.4590	29.7146
 2.4580	29.9206
 2.4570	29.7531
 2.4560	29.7980
 2.4550	29.7565
 2.4540	29.7495
 2.4530	29.6760
 2.4520	29.7642
 2.4510	29.6646
 2.4500	29.8737
 2.4490	29.6423
 2.4480	29.7037
 2.4470	29.7133
 2.4460	29.7817
 2.4450	29.7469
 2.4440	29.7772
 2.4430	29.6711
 2.4420	29.6865
 2.4410	29.7241
 2.4400	29.8978
 2.4390	29.8156
 2.4380	29.9295
 2.4370	29.8358
 2.4360	29.9829
 2.4350	30.0190
 2.4340	30.1296
 2.4330	30.1210
 2.4320	30.2897
 2.4310	30.2954
 2.4300	30.4241
 2.4290	30.3980
 2.4280	30.4748
 2.4270	30.5561
 2.4260	30.7010
 2.4250	30.6186
 2.4240	30.7827
 2.4230	30.7982
 2.4220	30.8849
 2.4210	30.9193
 2.4200	30.9846
 2.4190	30.9987
 2.4180	31.0823
 2.4170	31.1127
 2.4160	31.2309
 2.4150	31.0977
 2.4140	31.2120
 2.4130	31.1585
 2.4120	31.1981
 2.4110	31.2458
 2.4100	31.2354
 2.4090	31.1798
 2.4080	31.1860
 2.4070	31.1136
 2.4060	31.1791
 2.4050	31.1271
 2.4040	31.1257
 2.4030	31.1077
 2.4020	31.1093
 2.4010	30.9645
 2.4000	30.9857
 2.3990	30.9089
 2.3980	30.9132
 2.3970	30.7718
 2.3960	30.7260
 2.3950	30.6513
 2.3940	30.6014
 2.3930	30.4946
 2.3920	30.4277
 2.3910	30.2804
 2.3900	30.2497
 2.3890	30.1782
 2.3880	30.0878
 2.3870	29.8605
 2.3860	29.7483
 2.3850	29.5995
 2.3840	29.5177
 2.3830	29.4479
 2.3820	29.2847
 2.3810	29.1552
 2.3800	29.0230
 2.3790	28.8430
 2.3780	28.7530
 2.3770	28.5710
 2.3760	28.4619
 2.3750	28.3200
 2.3740	28.1636
 2.3730	27.9931
 2.3720	27.8388
 2.3710	27.7075
 2.3700	27.5486
 2.3690	27.4400
 2.3680	27.4110
 2.3670	27.2646
 2.3660	27.1542
 2.3650	27.0986
 2.3640	27.0724
 2.3630	27.0452
 2.3620	26.9784
 2.3610	26.9152
 2.3600	26.8758
 2.3590	26.9468
 2.3580	26.9811
 2.3570	26.9436
 2.3560	27.0424
 2.3550	27.1305
 2.3540	27.2177
 2.3530	27.3614
 2.3520	27.5304
 2.3510	27.7061
 2.3500	27.8812
 2.3490	28.0465
 2.3480	28.2298
 2.3470	28.4210
 2.3460	28.6217
 2.3450	28.8627
 2.3440	29.0967
 2.3430	29.3361
 2.3420	29.5579
 2.3410	29.8250
 2.3400	30.0341
 2.3390	30.2408
 2.3380	30.4707
 2.3370	30.7225
 2.3360	30.9294
 2.3350	31.1674
 2.3340	31.3831
 2.3330	31.5911
 2.3320	31.7823
 2.3310	32.0033
 2.3300	32.1512
 2.3290	32.3649
 2.3280	32.5065
 2.3270	32.6880
 2.3260	32.8903
 2.3250	33.0875
 2.3240	33.2664
 2.3230	33.4042
 2.3220	33.5008
 2.3210	33.7426
 2.3200	33.9049
 2.3190	34.1085
 2.3180	34.3029
 2.3170	34.4665
 2.3160	34.5974
 2.3150	34.8509
 2.3140	35.0314
 2.3130	35.1985
 2.3120	35.3429
 2.3110	35.5326
 2.3100	35.6957
 2.3090	35.9266
 2.3080	36.1070
 2.3070	36.2933
 2.3060	36.4898
 2.3050	36.7306
 2.3040	36.8565
 2.3030	36.9961
 2.3020	37.0864
 2.3010	37.3159
 2.3000	37.4433
 2.2990	37.6464
 2.2980	37.7617
 2.2970	37.9472
 2.2960	38.0453
 2.2950	38.2673
 2.2940	38.3427
 2.2930	38.4294
 2.2920	38.5609
 2.2910	38.6409
 2.2900	38.6725
 2.2890	38.8584
 2.2880	38.9009
 2.2870	38.9963
 2.2860	39.0613
 2.2850	39.1713
 2.2840	39.0673
 2.2830	39.1487
 2.2820	39.1409
 2.2810	39.2273
 2.2800	39.1881
 2.2790	39.1790
 2.2780	39.1191
 2.2770	39.1660
 2.2760	39.1040
 2.2750	39.0837
 2.2740	38.9977
 2.2730	38.9905
 2.2720	38.9106
 2.2710	38.8087
 2.2700	38.7641
 2.2690	38.6996
 2.2680	38.6064
 2.2670	38.5201
 2.2660	38.3726
 2.2650	38.2947
 2.2640	38.1467
 2.2630	38.0749
 2.2620	37.9344
 2.2610	37.8882
 2.2600	37.7640
 2.2590	37.7410
 2.2580	37.5747
 2.2570	37.5535
 2.2560	37.4046
 2.2550	37.3608
 2.2540	37.2735
 2.2530	37.2168
 2.2520	37.1156
 2.2510	37.1183
 2.2500	37.0705
 2.2490	37.0357
 2.2480	36.9149
 2.2470	36.9603
 2.2460	36.8705
 2.2450	36.9074
 2.2440	36.7808
 2.2430	36.8809
 2.2420	36.7263
 2.2410	36.8157
 2.2400	36.7765
 2.2390	36.8671
 2.2380	36.7170
 2.2370	36.7308
 2.2360	36.6412
 2.2350	36.6601
 2.2340	36.5281
 2.2330	36.4992
 2.2320	36.3114
 2.2310	36.2876
 2.2300	36.1259
 2.2290	36.0314
 2.2280	35.7392
 2.2270	35.7108
 2.2260	35.3860
 2.2250	35.2402
 2.2240	34.9800
 2.2230	34.7697
 2.2220	34.4135
 2.2210	34.2078
 2.2200	33.8570
 2.2190	33.7511
 2.2180	33.3621
 2.2170	33.3301
 2.2160	33.0570
 2.2150	32.9827
 2.2140	32.7850
 2.2130	32.7318
 2.2120	32.7364
 2.2110	32.6425
 2.2100	32.7140
 2.2090	32.8308
 2.2080	32.9324
 2.2070	33.0539
 2.2060	33.1049
 2.2050	33.2876
 2.2040	33.3683
 2.2030	33.6241
 2.2020	33.6395
 2.2010	33.8281
 2.2000	33.7532
 2.1990	33.9484
 2.1980	33.8563
 2.1970	33.9246
 2.1960	33.7215
 2.1950	33.8426
 2.1940	33.6505
 2.1930	33.6887
 2.1920	33.5510
 2.1910	33.4283
 2.1900	33.3822
 2.1890	33.3224
 2.1880	33.1884
 2.1870	33.2030
 2.1860	33.0840
 2.1850	33.1951
 2.1840	33.0957
 2.1830	33.1800
 2.1820	33.0381
 2.1810	33.1080
 2.1800	33.0989
 2.1790	33.3601
 2.1780	33.3742
 2.1770	33.5728
 2.1760	33.6351
 2.1750	33.9313
 2.1740	34.1037
 2.1730	34.4321
 2.1720	34.6264
 2.1710	35.0535
 2.1700	35.2994
 2.1690	35.7616
 2.1680	36.0488
 2.1670	36.5758
 2.1660	36.9401
 2.1650	37.4463
 2.1640	37.9328
 2.1630	38.4645
 2.1620	38.9803
 2.1610	39.5081
 2.1600	40.0351
 2.1590	40.7208
 2.1580	41.2279
 2.1570	41.9405
 2.1560	42.4710
 2.1550	43.1272
 2.1540	43.6100
 2.1530	44.2246
 2.1520	44.6997
 2.1510	45.2639
 2.1500	45.7419
 2.1490	46.2374
 2.1480	46.6154
 2.1470	47.0187
 2.1460	47.3476
 2.1450	47.6464
 2.1440	47.9875
 2.1430	48.3197
 2.1420	48.5651
 2.1410	48.7492
 2.1400	48.9065
 2.1390	49.1679
 2.1380	49.3478
 2.1370	49.5317
 2.1360	49.5983
 2.1350	49.7263
 2.1340	49.8424
 2.1330	50.0027
 2.1320	50.0175
 2.1310	50.1315
 2.1300	50.1359
 2.1290	50.2176
 2.1280	50.2512
 2.1270	50.3072
 2.1260	50.3052
 2.1250	50.3376
 2.1240	50.3144
 2.1230	50.3931
 2.1220	50.3879
 2.1210	50.4076
 2.1200	50.4070
 2.1190	50.4428
 2.1180	50.4180
 2.1170	50.4318
 2.1160	50.3872
 2.1150	50.4249
 2.1140	50.3684
 2.1130	50.3423
 2.1120	50.2885
 2.1110	50.3176
 2.1100	50.3071
 2.1090	50.2896
 2.1080	50.2423
 2.1070	50.2436
 2.1060	50.2520
 2.1050	50.2629
 2.1040	50.2099
 2.1030	50.2178
 2.1020	50.1845
 2.1010	50.1847
 2.1000	50.1483
 2.0990	50.2332
 2.0980	50.2372
 2.0970	50.2035
 2.0960	50.2092
 2.0950	50.2439
 2.0940	50.2406
 2.0930	50.2963
 2.0920	50.2695
 2.0910	50.2721
 2.0900	50.2938
 2.0890	50.2925
 2.0880	50.2967
 2.0870	50.3181
 2.0860	50.3525
 2.0850	50.4260
 2.0840	50.4101
 2.0830	50.3822
 2.0820	50.4223
 2.0810	50.4707
 2.0800	50.4751
 2.0790	50.4807
 2.0780	50.5313
 2.0770	50.5570
 2.0760	50.5634
 2.0750	50.6087
 2.0740	50.6183
 2.0730	50.6054
 2.0720	50.5956
 2.0710	50.6070
 2.0700	50.6135
 2.0690	50.6351
 2.0680	50.6230
 2.0670	50.5857
 2.0660	50.5893
 2.0650	50.6137
 2.0640	50.5724
 2.0630	50.5545
 2.0620	50.5740
 2.0610	50.5183
 2.0600	50.4528
 2.0590	50.4376
 2.0580	50.4327
 2.0570	50.3668
 2.0560	50.3363
 2.0550	50.2968
 2.0540	50.2265
 2.0530	50.2053
 2.0520	50.1813
 2.0510	50.1180
 2.0500	50.0691
 2.0490	49.9870
 2.0480	49.9466
 2.0470	49.9094
 2.0460	49.9023
 2.0450	49.8047
 2.0440	49.7538
 2.0430	49.7102
 2.0420	49.7074
 2.0410	49.6631
 2.0400	49.6184
 2.0390	49.5818
 2.0380	49.5320
 2.0370	49.4936
 2.0360	49.4420
 2.0350	49.3507
 2.0340	49.3587
 2.0330	49.3933
 2.0320	49.3530
 2.0310	49.2932
 2.0300	49.3371
 2.0290	49.2857
 2.0280	49.3251
 2.0270	49.2707
 2.0260	49.2974
 2.0250	49.2858
 2.0240	49.2978
 2.0230	49.1892
 2.0220	49.2188
 2.0210	49.2141
 2.0200	49.2848
 2.0190	49.3234
 2.0180	49.3671
 2.0170	49.3343
 2.0160	49.3909
 2.0150	49.3555
 2.0140	49.4526
 2.0130	49.4264
 2.0120	49.4849
 2.0110	49.4952
 2.0100	49.5454
 2.0090	49.5602
 2.0080	49.6664
 2.0070	49.6691
 2.0060	49.7270
 2.0050	49.7536
 2.0040	49.8419
 2.0030	49.8133
 2.0020	49.9376
 2.0010	49.9784
 2.0000	50.0572
 1.9990	50.0681
 1.9980	50.1177
 1.9970	50.1385
 1.9960	50.2426
 1.9950	50.3243
 1.9940	50.4478
 1.9930	50.5005
 1.9920	50.5970
 1.9910	50.6412
 1.9900	50.7319
 1.9890	50.7555
 1.9880	50.9142
 1.9870	50.9344
 1.9860	51.1186
 1.9850	51.1670
 1.9840	51.2221
 1.9830	51.2152
 1.9820	51.3825
 1.9810	51.4430
 1.9800	51.5609
 1.9790	51.5770
 1.9780	51.6873
 1.9770	51.7840
 1.9760	51.8825
 1.9750	51.8946
 1.9740	52.0094
 1.9730	52.0962
 1.9720	52.1653
 1.9710	52.1345
 1.9700	52.2419
 1.9690	52.3363
 1.9680	52.4228
 1.9670	52.4098
 1.9660	52.5641
 1.9650	52.5630
 1.9640	52.6821
 1.9630	52.7293
 1.9620	52.7885
 1.9610	52.8516
 1.9600	53.0126
 1.9590	52.9636
 1.9580	52.9394
 1.9570	52.9823
 1.9560	52.9808
 1.9550	53.0078
 1.9540	53.1606
 1.9530	53.1323
 1.9520	53.1394
 1.9510	53.1620
 1.9500	53.2767
 1.9490	53.2601
 1.9480	53.2910
 1.9470	53.2928
 1.9460	53.3817
 1.9450	53.2211
 1.9440	53.3085
 1.9430	53.3369
 1.9420	53.4043
 1.9410	53.3532
 1.9400	53.3602
 1.9390	53.4507
 1.9380	53.4300
 1.9370	53.4280
 1.9360	53.3490
 1.9350	53.3493
 1.9340	53.4355
 1.9330	53.3479
 1.9320	53.4155
 1.9310	53.3644
 1.9300	53.4201
 1.9290	53.4080
 1.9280	53.4182
 1.9270	53.3993
 1.9260	53.2865
 1.9250	53.3024
 1.9240	53.2509
 1.9230	53.1620
 1.9220	53.2724
 1.9210	53.1569
 1.9200	53.2134
 1.9190	53.1266
 1.9180	53.1389
 1.9170	53.0774
 1.9160	53.0826
 1.9150	53.0818
 1.9140	53.1255
 1.9130	53.0713
 1.9120	53.0688
 1.9110	52.9840
 1.9100	53.0579
 1.9090	53.0104
 1.9080	53.1260
 1.9070	53.0956
 1.9060	53.2333
 1.9050	53.2454
 1.9040	53.3533
 1.9030	53.3363
 1.9020	53.5266
 1.9010	53.5652
 1.9000	53.6815
 1.8990	53.8705
 1.8980	54.0054
 1.8970	54.0481
 1.8960	54.2309
 1.8950	54.2771
 1.8940	54.4195
 1.8930	54.4672
 1.8920	54.6668
 1.8910	54.7132
 1.8900	54.8522
 1.8890	54.9071
 1.8880	54.9853
 1.8870	55.0653
 1.8860	55.2359
 1.8850	55.2547
 1.8840	55.3143
 1.8830	55.2538
 1.8820	55.4322
 1.8810	55.4117
 1.8800	55.5392
 1.8790	55.4676
 1.8780	55.5982
 1.8770	55.5129
 1.8760	55.5501
 1.8750	55.5492
 1.8740	55.6189
 1.8730	55.6269
 1.8720	55.7820
 1.8710	55.6916
 1.8700	55.7426
 1.8690	55.7398
 1.8680	55.7539
 1.8670	55.8044
 1.8660	55.8464
 1.8650	55.8376
 1.8640	55.7976
 1.8630	55.7385
 1.8620	55.7012
 1.8610	55.6202
 1.8600	55.6773
 1.8590	55.5537
 1.8580	55.6232
 1.8570	55.4911
 1.8560	55.4730
 1.8550	55.3844
 1.8540	55.3403
 1.8530	55.2433
 1.8520	55.2165
 1.8510	55.0719
 1.8500	54.9790
 1.8490	54.8735
 1.8480	54.8421
 1.8470	54.7477
 1.8460	54.6016
 1.8450	54.5698
 1.8440	54.5225
 1.8430	54.4343
 1.8420	54.4189
 1.8410	54.2987
 1.8400	54.3323
 1.8390	54.3427
 1.8380	54.3637
 1.8370	54.2932
 1.8360	54.2918
 1.8350	54.3665
 1.8340	54.3952
 1.8330	54.3671
 1.8320	54.4151
 1.8310	54.4420
 1.8300	54.4676
 1.8290	54.4634
 1.8280	54.5544
 1.8270	54.5848
 1.8260	54.6067
 1.8250	54.6059
 1.8240	54.6480
 1.8230	54.6704
 1.8220	54.7559
 1.8210	54.7828
 1.8200	54.8310
 1.8190	54.9011
 1.8180	54.9438
 1.8170	55.0057
 1.8160	55.0560
 1.8150	55.1421
 1.8140	55.2079
 1.8130	55.2743
 1.8120	55.3376
 1.8110	55.3699
 1.8100	55.4598
 1.8090	55.5133
 1.8080	55.5979
 1.8070	55.5943
 1.8060	55.6346
 1.8050	55.6974
 1.8040	55.7978
 1.8030	55.8483
 1.8020	55.9119
 1.8010	55.9304
 1.8000	55.9797
 1.7990	55.9747
 1.7980	56.0086
 1.7970	56.1295
 1.7960	56.2040
 1.7950	56.1879
 1.7940	56.1985
 1.7930	56.2392
 1.7920	56.2464
 1.7910	56.3288
 1.7900	56.3841
 1.7890	56.3937
 1.7880	56.4659
 1.7870	56.4711
 1.7860	56.4294
 1.7850	56.4564
 1.7840	56.4773
 1.7830	56.4819
 1.7820	56.5657
 1.7810	56.5958
 1.7800	56.5871
 1.7790	56.5824
 1.7780	56.6050
 1.7770	56.7225
 1.7760	56.7648
 1.7750	56.7406
 1.7740	56.7509
 1.7730	56.7809
 1.7720	56.7887
 1.7710	56.7870
 1.7700	56.8121
 1.7690	56.8636
 1.7680	56.8515
 1.7670	56.8669
 1.7660	56.8766
 1.7650	56.8963
 1.7640	56.8764
 1.7630	56.9385
 1.7620	56.9476
 1.7610	56.9480
 1.7600	56.9384
 1.7590	56.9941
 1.7580	57.0057
 1.7570	56.9716
 1.7560	56.9957
 1.7550	57.0387
 1.7540	57.0354
 1.7530	57.0475
 1.7520	57.0263
 1.7510	57.0908
 1.7500	57.0722
 1.7490	57.0079
 1.7480	57.0454
 1.7470	57.1183
 1.7460	57.1293
 1.7450	57.1147
 1.7440	57.1610
 1.7430	57.1574
 1.7420	57.0976
 1.7410	57.0629
 1.7400	57.0210
 1.7390	57.1386
 1.7380	57.1538
 1.7370	57.1340
 1.7360	57.1277
 1.7350	57.1498
 1.7340	57.1371
 1.7330	57.1441
 1.7320	57.1615
 1.7310	57.1781
 1.7300	57.1193
 1.7290	57.0931
 1.7280	57.0938
 1.7270	57.1251
 1.7260	57.1200
 1.7250	57.0896
 1.7240	57.0864
 1.7230	57.0549
 1.7220	57.0603
 1.7210	57.0262
 1.7200	57.0222
 1.7190	57.0600
 1.7180	57.0164
 1.7170	56.9764
 1.7160	56.9294
 1.7150	56.9383
 1.7140	56.9185
 1.7130	56.9274
 1.7120	56.9190
 1.7110	56.9095
 1.7100	56.8847
 1.7090	56.9074
 1.7080	56.9085
 1.7070	56.8236
 1.7060	56.7994
 1.7050	56.8117
 1.7040	56.7926
 1.7030	56.7697
 1.7020	56.6873
 1.7010	56.6992
 1.7000	56.6938
 1.6990	56.7499
 1.6980	56.6269
 1.6970	56.6904
 1.6960	56.6007
 1.6950	56.6519
 1.6940	56.5403
 1.6930	56.5369
 1.6920	56.5550
 1.6910	56.5837
 1.6900	56.4682
 1.6890	56.5036
 1.6880	56.5019
 1.6870	56.3925
 1.6860	56.4300
 1.6850	56.3771
 1.6840	56.3794
 1.6830	56.3570
 1.6820	56.2724
 1.6810	56.2913
 1.6800	56.2335
 1.6790	56.2581
 1.6780	56.2043
 1.6770	56.2069
 1.6760	56.0747
 1.6750	56.1251
 1.6740	56.0441
 1.6730	56.0371
 1.6720	56.0121
 1.6710	56.0044
 1.6700	55.9755
 1.6690	55.9173
 1.6680	55.7877
 1.6670	55.9149
 1.6660	55.8588
 1.6650	55.8227
 1.6640	55.7031
 1.6630	55.7552
 1.6620	55.6179
 1.6610	55.7447
 1.6600	55.5688
 1.6590	55.5791
 1.6580	55.5534
 1.6570	55.5178
 1.6560	55.4952
 1.6550	55.4642
 1.6540	55.4152
 1.6530	55.3561
 1.6520	55.2969
 1.6510	55.2711
 1.6500	55.2211
 1.6490	55.3764
 1.6480	55.1953
 1.6470	55.1110
 1.6460	55.1151
 1.6450	55.1183
 1.6440	55.0298
 1.6430	55.0298
 1.6420	54.9027
 1.6410	54.8161
 1.6400	54.7913
 1.6390	54.8508
 1.6380	54.7512
 1.6370	54.7042
 1.6360	54.6435
 1.6350	54.6613
 1.6340	54.5145
 1.6330	54.5033
 1.6320	54.4425
 1.6310	54.5303
 1.6300	54.3388
 1.6290	54.3393
 1.6280	54.2856
 1.6270	54.1837
 1.6260	54.1734
 1.6250	54.2251
 1.6240	54.1484
 1.6230	54.0873
 1.6220	54.0117
 1.6210	54.0206
 1.6200	53.9906
 1.6190	53.8864
 1.6180	53.8710
 1.6170	53.9472
 1.6160	53.8332
 1.6150	53.7950
 1.6140	53.7742
 1.6130	53.7081
 1.6120	53.5854
 1.6110	53.6716
 1.6100	53.5933
 1.6090	53.6591
 1.6080	53.5482
 1.6070	53.5200
 1.6060	53.4463
 1.6050	53.4783
 1.6040	53.3513
 1.6030	53.3985
 1.6020	53.2563
 1.6010	53.2887
 1.6000	53.3663
 1.5990	53.3301
 1.5980	53.2774
 1.5970	53.3007
 1.5960	53.1610
 1.5950	53.2047
 1.5940	53.2141
 1.5930	53.1743
 1.5920	53.0745
 1.5910	53.0514
 1.5900	53.0828
 1.5890	53.0733
 1.5880	53.1183
 1.5870	53.0876
 1.5860	53.0806
 1.5850	53.0927
 1.5840	53.0690
 1.5830	53.1588
 1.5820	53.1217
 1.5810	53.1638
 1.5800	53.1521
 1.5790	53.2103
 1.5780	53.1796
 1.5770	53.2173
 1.5760	53.2337
 1.5750	53.3526
 1.5740	53.3209
 1.5730	53.3573
 1.5720	53.4331
 1.5710	53.4214
 1.5700	53.4897
 1.5690	53.5956
 1.5680	53.6001
 1.5670	53.6508
 1.5660	53.6886
 1.5650	53.7643
 1.5640	53.7799
 1.5630	53.8301
 1.5620	53.8198
 1.5610	53.8793
 1.5600	54.0427
 1.5590	54.1259
 1.5580	54.0685
 1.5570	54.1525
 1.5560	54.1581
 1.5550	54.2751
 1.5540	54.3107
 1.5530	54.3773
 1.5520	54.4267
 1.5510	54.4415
 1.5500	54.4560
 1.5490	54.5416
 1.5480	54.5824
 1.5470	54.6811
 1.5460	54.6707
 1.5450	54.7576
 1.5440	54.8002
 1.5430	54.8475
 1.5420	54.8666
 1.5410	54.8928
 1.5400	54.9337
 1.5390	54.9996
 1.5380	55.0052
 1.5370	55.0493
 1.5360	55.0736
 1.5350	55.1301
 1.5340	55.1118
 1.5330	55.1632
 1.5320	55.1953
 1.5310	55.2348
 1.5300	55.3042
 1.5290	55.3418
 1.5280	55.3137
 1.5270	55.3697
 1.5260	55.3739
 1.5250	55.3450
 1.5240	55.3717
 1.5230	55.4122
 1.5220	55.4266
 1.5210	55.4035
 1.5200	55.3770
 1.5190	55.3968
 1.5180	55.3986
 1.5170	55.3477
 1.5160	55.3049
 1.5150	55.3127
 1.5140	55.2641
 1.5130	55.2558
 1.5120	55.2377
 1.5110	55.2361
 1.5100	55.1714
 1.5090	55.1044
 1.5080	55.0655
 1.5070	55.0339
 1.5060	54.9179
 1.5050	54.8375
 1.5040	54.8223
 1.5030	54.7354
 1.5020	54.6176
 1.5010	54.5734
 1.5000	54.5556
 1.4990	54.4905
 1.4980	54.3950
 1.4970	54.3351
 1.4960	54.2144
 1.4950	54.1587
 1.4940	54.1647
 1.4930	54.0932
 1.4920	54.0031
 1.4910	53.8855
 1.4900	53.8006
 1.4890	53.7586
 1.4880	53.6990
 1.4870	53.6348
 1.4860	53.6212
 1.4850	53.5272
 1.4840	53.4523
 1.4830	53.4247
 1.4820	53.3785
 1.4810	53.3402
 1.4800	53.3131
 1.4790	53.2972
 1.4780	53.2788
 1.4770	53.1980
 1.4760	53.1916
 1.4750	53.1592
 1.4740	53.1227
 1.4730	53.0994
 1.4720	53.1110
 1.4710	53.0952
 1.4700	53.0533
 1.4690	53.0077
 1.4680	53.0144
 1.4670	53.0086
 1.4660	53.0255
 1.4650	53.0345
 1.4640	53.0784
 1.4630	53.0796
 1.4620	53.0760
 1.4610	53.0732
 1.4600	53.0984
 1.4590	53.0878
 1.4580	53.1497
 1.4570	53.1738
 1.4560	53.1924
 1.4550	53.1608
 1.4540	53.2183
 1.4530	53.2677
 1.4520	53.2513
 1.4510	53.1790
 1.4500	53.1940
 1.4490	53.2200
 1.4480	53.1708
 1.4470	53.0753
 1.4460	53.0383
 1.4450	52.9862
 1.4440	52.8998
 1.4430	52.8409
 1.4420	52.8173
 1.4410	52.6567
 1.4400	52.5126
 1.4390	52.3410
 1.4380	52.2555
 1.4370	52.0575
 1.4360	51.9598
 1.4350	51.7673
 1.4340	51.7163
 1.4330	51.5825
 1.4320	51.5349
 1.4310	51.4625
 1.4300	51.4013
 1.4290	51.3833
 1.4280	51.4395
 1.4270	51.4477
 1.4260	51.5295
 1.4250	51.5340
 1.4240	51.6193
 1.4230	51.6221
 1.4220	51.5220
 1.4210	51.4085
 1.4200	51.1674
 1.4190	50.7603
 1.4180	50.0236
 1.4170	49.2590
 1.4160	48.7840
 1.4150	48.3682
 1.4140	48.2134
 1.4130	48.0802
 1.4120	47.8804
 1.4110	47.4463
 1.4100	46.9633
 1.4090	46.3231
 1.4080	45.7873
 1.4070	45.1164
 1.4060	44.6707
 1.4050	44.3163
 1.4040	44.3143
 1.4030	44.3318
 1.4020	44.5642
 1.4010	44.7719
 1.4000	45.0530
 1.3990	45.3499
 1.3980	45.7585
 1.3970	46.0474
 1.3960	46.5223
 1.3950	46.7588
 1.3940	47.1632
 1.3930	47.5809
 1.3920	48.1595
 1.3910	48.7185
 1.3900	49.2971
 1.3890	49.7999
 1.3880	50.5636
 1.3870	51.1482
 1.3860	51.8269
 1.3850	52.4749
 1.3840	53.1625
 1.3830	53.7117
 1.3820	54.2503
 1.3810	54.7460
 1.3800	55.1967
 1.3790	55.4015
 1.3780	55.8143
 1.3770	55.9040
 1.3760	56.1070
 1.3750	56.2086
 1.3740	56.3905
 1.3730	56.4190
 1.3720	56.5231
 1.3710	56.5986
 1.3700	56.6677
 1.3690	56.7481
 1.3680	56.8716
 1.3670	56.8570
 1.3660	56.9726
 1.3650	56.9539
 1.3640	56.9869
 1.3630	56.9448
 1.3620	57.0323
 1.3610	57.0895
 1.3600	57.2164
 1.3590	57.1918
 1.3580	57.2490
 1.3570	57.2488
 1.3560	57.4003
 1.3550	57.2785
 1.3540	57.4305
 1.3530	57.4308
 1.3520	57.4615
 1.3510	57.5751
 1.3500	57.5881
 1.3490	57.5925
 1.3480	57.6484
 1.3470	57.5572
 1.3460	57.5943
 1.3450	57.5842
 1.3440	57.6722
 1.3430	57.6048
 1.3420	57.6919
 1.3410	57.5704
 1.3400	57.6123
 1.3390	57.6262
 1.3380	57.5657
 1.3370	57.5193
 1.3360	57.5635
 1.3350	57.4061
 1.3340	57.5802
 1.3330	57.5359
 1.3320	57.5238
 1.3310	57.4965
 1.3300	57.5031
 1.3290	57.4564
 1.3280	57.5439
 1.3270	57.5198
 1.3260	57.5369
 1.3250	57.5439
 1.3240	57.5090
 1.3230	57.5563
 1.3220	57.6013
 1.3210	57.5282
 1.3200	57.5632
 1.3190	57.4880
 1.3180	57.5409
 1.3170	57.6077
 1.3160	57.6602
 1.3150	57.6795
 1.3140	57.6373
 1.3130	57.6638
 1.3120	57.6878
 1.3110	57.6343
 1.3100	57.7394
 1.3090	57.7118
 1.3080	57.7368
 1.3070	57.7424
 1.3060	57.7591
 1.3050	57.7381
 1.3040	57.7821
 1.3030	57.7428
 1.3020	57.7791
 1.3010	57.7322
 1.3000	57.8142
 1.2990	57.8114
 1.2980	57.8711
 1.2970	57.8511
 1.2960	57.9226
 1.2950	57.8892
 1.2940	57.9564
 1.2930	57.8437
 1.2920	57.9048
 1.2910	57.9494
 1.2900	57.9792
 1.2890	57.8894
 1.2880	57.9545
 1.2870	57.9963
 1.2860	58.0310
 1.2850	58.0142
 1.2840	58.0741
 1.2830	58.0215
 1.2820	58.0205
 1.2810	58.0819
 1.2800	58.1033
 1.2790	58.0083
 1.2780	58.0265
 1.2770	58.0757
 1.2760	58.0946
 1.2750	58.0360
 1.2740	58.1174
 1.2730	58.1226
 1.2720	58.0525
 1.2710	58.0658
 1.2700	58.1344
 1.2690	58.0771
 1.2680	58.1140
 1.2670	58.0560
 1.2660	58.0647
 1.2650	58.0539
 1.2640	58.0933
 1.2630	58.1057
 1.2620	58.1461
 1.2610	58.1166
 1.2600	58.1319
 1.2590	58.1442
 1.2580	58.2212
 1.2570	58.2480
 1.2560	58.2562
 1.2550	58.2222
 1.2540	58.1971
 1.2530	58.1489
 1.2520	58.1944
 1.2510	58.2517
 1.2500	58.2618
 1.2490	58.1627
 1.2480	58.1775
 1.2470	58.2036
 1.2460	58.1745
 1.2450	58.1656
 1.2440	58.1926
 1.2430	58.1653
 1.2420	58.1518
 1.2410	58.1042
 1.2400	58.1078
 1.2390	58.1533
 1.2380	58.1478
 1.2370	58.0597
 1.2360	58.0831
 1.2350	58.1060
 1.2340	58.1529
 1.2330	58.1792
 1.2320	58.1100
 1.2310	58.0757
 1.2300	58.1647
 1.2290	58.1980
 1.2280	58.1617
 1.2270	58.1409
 1.2260	58.2064
 1.2250	58.2186
 1.2240	58.1917
 1.2230	58.1746
 1.2220	58.1614
 1.2210	58.1873
 1.2200	58.2057
 1.2190	58.1706
 1.2180	58.2357
 1.2170	58.2027
 1.2160	58.1722
 1.2150	58.1854
 1.2140	58.1651
 1.2130	58.1575
 1.2120	58.1463
 1.2110	58.1982
 1.2100	58.2114
 1.2090	58.1711
 1.2080	58.1934
 1.2070	58.1828
 1.2060	58.1339
 1.2050	58.1306
 1.2040	58.1604
 1.2030	58.1847
 1.2020	58.1461
 1.2010	58.1134
 1.2000	58.1626
 1.1990	58.2087
 1.1980	58.1790
 1.1970	58.1753
 1.1960	58.1839
 1.1950	58.1638
 1.1940	58.1562
 1.1930	58.1935
 1.1920	58.1778
 1.1910	58.1574
 1.1900	58.1849
 1.1890	58.1558
 1.1880	58.0569
 1.1870	58.1177
 1.1860	58.1799
 1.1850	58.1789
 1.1840	58.1129
 1.1830	58.1189
 1.1820	58.1210
 1.1810	58.0856
 1.1800	58.0902
 1.1790	58.1541
 1.1780	58.0996
 1.1770	58.1197
 1.1760	58.0881
 1.1750	58.0779
 1.1740	58.0768
 1.1730	58.0595
 1.1720	58.0504
 1.1710	58.0842
 1.1700	58.0786
 1.1690	58.1520
 1.1680	58.0813
 1.1670	58.1164
 1.1660	58.0696
 1.1650	58.0841
 1.1640	58.0637
 1.1630	58.0423
 1.1620	58.0500
 1.1610	58.0373
 1.1600	58.0483
 1.1590	58.0461
 1.1580	58.0438
 1.1570	58.0115
 1.1560	57.9888
 1.1550	57.9975
 1.1540	57.9770
 1.1530	58.0292
 1.1520	58.0405
 1.1510	58.0803
 1.1500	58.0062
 1.1490	57.9879
 1.1480	57.9355
 1.1470	57.9914
 1.1460	57.9646
 1.1450	58.0151
 1.1440	57.9682
 1.1430	57.9428
 1.1420	57.9658
 1.1410	57.9777
 1.1400	57.9355
 1.1390	57.9852
 1.1380	58.0036
 1.1370	58.0305
 1.1360	57.9407
 1.1350	57.9132
 1.1340	57.8527
 1.1330	57.9232
 1.1320	57.8801
 1.1310	57.9215
 1.1300	57.8649
 1.1290	57.8878
 1.1280	57.8918
 1.1270	57.8819
 1.1260	57.7990
 1.1250	57.8334
 1.1240	57.8248
 1.1230	57.9543
 1.1220	57.7990
 1.1210	57.8711
 1.1200	57.8187
 1.1190	57.8573
 1.1180	57.8830
 1.1170	57.8051
 1.1160	57.7477
 1.1150	57.7928
 1.1140	57.7532
 1.1130	57.7620
 1.1120	57.8053
 1.1110	57.8048
 1.1100	57.7809
 1.1090	57.8080
 1.1080	57.7115
 1.1070	57.7625
 1.1060	57.7077
 1.1050	57.7564
 1.1040	57.6904
 1.1030	57.7474
 1.1020	57.7175
 1.1010	57.7552
 1.1000	57.6314
 1.0990	57.8042
 1.0980	57.6956
 1.0970	57.7679
 1.0960	57.6938
 1.0950	57.7976
 1.0940	57.6156
 1.0930	57.7751
 1.0920	57.5783
 1.0910	57.6735
 1.0900	57.6189
 1.0890	57.6608
 1.0880	57.6783
 1.0870	57.5845
 1.0860	57.5814
 1.0850	57.6731
 1.0840	57.4854
 1.0830	57.6016
 1.0820	57.5438
 1.0810	57.6184
 1.0800	57.5024
 1.0790	57.5656
 1.0780	57.5629
 1.0770	57.6229
 1.0760	57.4656
 1.0750	57.5167
 1.0740	57.5098
 1.0730	57.5181
 1.0720	57.5108
 1.0710	57.6330
 1.0700	57.4558
 1.0690	57.5648
 1.0680	57.4711
 1.0670	57.5228
 1.0660	57.4912
 1.0650	57.4940
 1.0640	57.4896
 1.0630	57.5167
 1.0620	57.4013
 1.0610	57.5474
 1.0600	57.3865
 1.0590	57.4469
 1.0580	57.4871
 1.0570	57.4437
 1.0560	57.3714
 1.0550	57.4634
 1.0540	57.4117
 1.0530	57.4665
 1.0520	57.3778
 1.0510	57.4538
 1.0500	57.3468
 1.0490	57.4629
 1.0480	57.3605
 1.0470	57.4572
 1.0460	57.2835
 1.0450	57.4082
 1.0440	57.2824
 1.0430	57.3558
 1.0420	57.3131
 1.0410	57.3735
 1.0400	57.2184
 1.0390	57.3482
 1.0380	57.3362
 1.0370	57.3919
 1.0360	57.2895
 1.0350	57.2350
 1.0340	57.2604
 1.0330	57.2292
 1.0320	57.2822
 1.0310	57.3040
 1.0300	57.1661
 1.0290	57.2409
 1.0280	57.1858
 1.0270	57.3172
 1.0260	57.1880
 1.0250	57.2086
 1.0240	57.2692
 1.0230	57.2892
 1.0220	57.1908
 1.0210	57.2255
 1.0200	57.2847
 1.0190	57.2198
 1.0180	57.1328
 1.0170	57.2360
 1.0160	57.1243
 1.0150	57.2042
 1.0140	57.0571
 1.0130	57.1566
 1.0120	57.1261
 1.0110	57.1458
 1.0100	57.0479
 1.0090	57.0954
 1.0080	57.0451
 1.0070	57.1378
 1.0060	57.0918
 1.0050	57.1244
 1.0040	57.0086
 1.0030	57.0613
 1.0020	57.0550
 1.0010	57.1208
 1.0000	57.0168
 0.9990	57.0522
 0.9980	57.0537
 0.9970	57.0751
 0.9960	57.0600
 0.9950	57.0208
 0.9940	57.0077
 0.9930	57.0078
 0.9920	57.0365
 0.9910	57.0433
 0.9900	56.9592
 0.9890	56.9234
 0.9880	56.9434
 0.9870	56.9986
 0.9860	56.9517
 0.9850	56.9601
 0.9840	56.9087
 0.9830	56.9000
 0.9820	56.8886
 0.9810	56.9136
 0.9800	56.8738
 0.9790	56.8764
 0.9780	56.8619
 0.9770	56.8252
 0.9760	56.8229
 0.9750	56.9079
 0.9740	56.8467
 0.9730	56.7973
 0.9720	56.7368
 0.9710	56.8025
 0.9700	56.7611
 0.9690	56.6923
 0.9680	56.6757
 0.9670	56.7434
 0.9660	56.6776
 0.9650	56.6456
 0.9640	56.5399
 0.9630	56.5344
 0.9620	56.5618
 0.9610	56.5044
 0.9600	56.4811
 0.9590	56.5029
 0.9580	56.4817
 0.9570	56.5173
 0.9560	56.5190
 0.9550	56.5468
 0.9540	56.5259
 0.9530	56.5500
 0.9520	56.6042
 0.9510	56.5763
 0.9500	56.5702
 0.9490	56.6512
 0.9480	56.6824
 0.9470	56.7176
 0.9460	56.7229
 0.9450	56.7355
 0.9440	56.7533
 0.9430	56.8181
 0.9420	56.8264
 0.9410	56.7952
 0.9400	56.7690
 0.9390	56.7463
 0.9380	56.7828
 0.9370	56.8308
 0.9360	56.7888
 0.9350	56.8694
 0.9340	56.8773
 0.9330	56.8255
 0.9320	56.8019
 0.9310	56.7811
 0.9300	56.7906
 0.9290	56.7815
 0.9280	56.7538
 0.9270	56.7627
 0.9260	56.8074
 0.9250	56.7927
 0.9240	56.8312
 0.9230	56.8305
 0.9220	56.7703
 0.9210	56.7675
 0.9200	56.7684
 0.9190	56.7224
 0.9180	56.7302
 0.9170	56.7732
 0.9160	56.7719
 0.9150	56.7191
 0.9140	56.7121
 0.9130	56.7054
 0.9120	56.7053
 0.9110	56.7047
 0.9100	56.6970
 0.9090	56.6437
 0.9080	56.6846
 0.9070	56.6915
 0.9060	56.6950
 0.9050	56.6206
 0.9040	56.6254
 0.9030	56.6499
 0.9020	56.6751
 0.9010	56.6830
 0.9000	56.7117
 0.8990	56.7063
 0.8980	56.6989
 0.8970	56.6469
 0.8960	56.6321
 0.8950	56.6302
 0.8940	56.5847
 0.8930	56.5581
 0.8920	56.6660
 0.8910	56.6258
 0.8900	56.5952
 0.8890	56.5500
 0.8880	56.5926
 0.8870	56.5564
 0.8860	56.5816
 0.8850	56.5655
 0.8840	56.6006
 0.8830	56.5737
 0.8820	56.5254
 0.8810	56.4323
 0.8800	56.5221
 0.8790	56.5072
 0.8780	56.4945
 0.8770	56.4551
 0.8760	56.5274
 0.8750	56.4700
 0.8740	56.4667
 0.8730	56.4403
 0.8720	56.4546
 0.8710	56.3685
 0.8700	56.4272
 0.8690	56.3597
 0.8680	56.3942
 0.8670	56.4137
 0.8660	56.4214
 0.8650	56.3963
 0.8640	56.4020
 0.8630	56.2908
 0.8620	56.3428
 0.8610	56.3331
 0.8600	56.7605
 0.8590	56.9647
 0.8580	56.9001
 0.8570	56.9185
 0.8560	56.9895
 0.8550	56.9510
 0.8540	57.0124
 0.8530	56.9376
 0.8520	57.0013
 0.8510	56.9647
 0.8500	56.9709
 0.8490	56.9754
 0.8480	56.9339
 0.8470	56.9990
 0.8460	56.9700
 0.8450	56.9549
 0.8440	57.0298
 0.8430	56.9972
 0.8420	56.9713
 0.8410	56.9627
 0.8400	57.0011
 0.8390	56.9861
 0.8380	56.9822
 0.8370	57.0045
 0.8360	56.9939
 0.8350	56.9763
 0.8340	56.9782
 0.8330	56.9761
 0.8320	57.0032
 0.8310	56.9893
 0.8300	57.0073
 0.8290	57.0306
 0.8280	57.0496
 0.8270	57.0545
 0.8260	57.0507
 0.8250	57.0111
 0.8240	57.0088
 0.8230	57.0355
 0.8220	57.0555
 0.8210	57.0401
 0.8200	57.0193
 0.8190	57.0256
 0.8180	57.0338
 0.8170	57.0384
 0.8160	57.0619
 0.8150	57.0782
 0.8140	57.0662
 0.8130	57.0442
 0.8120	57.0885
 0.8110	57.1341
 0.8100	57.1141
 0.8090	57.1095
 0.8080	57.1557
 0.8070	57.1360
 0.8060	57.1443
 0.8050	57.1685
 0.8040	57.1486
 0.8030	57.1687
 0.8020	57.1836
 0.8010	57.1768
 0.8000	57.1979
 0.7990	57.1650
 0.7980	57.1699
 0.7970	57.1617
 0.7960	57.1622
 0.7950	57.1566
 0.7940	57.1549
 0.7930	57.1191
 0.7920	57.1861
 0.7910	57.1468
 0.7900	57.1646
 0.7890	57.1907
 0.7880	57.1867
 0.7870	57.1966
 0.7860	57.1617
 0.7850	57.1968
 0.7840	57.2084
 0.7830	57.2293
 0.7820	57.1861
 0.7810	57.2102
 0.7800	57.2230
 0.7790	57.1803
 0.7780	57.2060
 0.7770	57.2084
 0.7760	57.1893
 0.7750	57.2161
 0.7740	57.1967
 0.7730	57.2058
 0.7720	57.2294
 0.7710	57.2165
 0.7700	57.2157
 0.7690	57.2061
 0.7680	57.2265
 0.7670	57.2217
 0.7660	57.1861
 0.7650	57.2216
 0.7640	57.1898
 0.7630	57.2149
 0.7620	57.2169
 0.7610	57.2303
 0.7600	57.1989
 0.7590	57.2133
 0.7580	57.2018
 0.7570	57.1989
 0.7560	57.1880
 0.7550	57.2052
 0.7540	57.1702
 0.7530	57.1943
 0.7520	57.1699
 0.7510	57.1891
 0.7500	57.1948
 0.7490	57.1837
 0.7480	57.1637
 0.7470	57.1669
 0.7460	57.1499
 0.7450	57.1541
 0.7440	57.1524
 0.7430	57.1290
 0.7420	57.1362
 0.7410	57.1305
 0.7400	57.1019
 0.7390	57.1172
 0.7380	57.1343
 0.7370	57.1152
 0.7360	57.0798
 0.7350	57.0723
 0.7340	57.0869
 0.7330	57.0561
 0.7320	57.0484
 0.7310	57.0601
 0.7300	57.0486
 0.7290	57.0359
 0.7280	57.0178
 0.7270	57.0178
 0.7260	56.9968
 0.7250	56.9749
 0.7240	56.9791
 0.7230	56.9719
 0.7220	56.9536
 0.7210	56.9408
 0.7200	56.9348
 0.7190	56.9218
 0.7180	56.9150
 0.7170	56.8966
 0.7160	56.8757
 0.7150	56.8726
 0.7140	56.8548
 0.7130	56.8554
 0.7120	56.8350
 0.7110	56.8152
 0.7100	56.8048
 0.7090	56.7907
 0.7080	56.7701
 0.7070	56.7339
 0.7060	56.7279
 0.7050	56.7320
 0.7040	56.7065
 0.7030	56.6805
 0.7020	56.6602
 0.7010	56.6352
 0.7000	56.6262
 0.6990	56.5957
 0.6980	56.5805
 0.6970	56.5686
 0.6960	56.5583
 0.6950	56.5461
 0.6940	56.5212
 0.6930	56.5051
 0.6920	56.4758
 0.6910	56.4761
 0.6900	56.4642
 0.6890	56.4360
 0.6880	56.4273
 0.6870	56.4044
 0.6860	56.3764
 0.6850	56.3674
 0.6840	56.3402
 0.6830	56.3209
 0.6820	56.3171
 0.6810	56.2989
 0.6800	56.2897
 0.6790	56.2761
 0.6780	56.2580
 0.6770	56.2363
 0.6760	56.2257
 0.6750	56.2172
 0.6740	56.1925
 0.6730	56.1687
 0.6720	56.1406
 0.6710	56.1198
 0.6700	56.1001
 0.6690	56.0759
 0.6680	56.0601
 0.6670	56.0292
 0.6660	56.0113
 0.6650	56.0016
 0.6640	55.9808
 0.6630	55.9540
 0.6620	55.9513
 0.6610	55.9309
 0.6600	55.9065
 0.6590	55.8805
 0.6580	55.8669
 0.6570	55.8595
 0.6560	55.8440
 0.6550	55.8252
 0.6540	55.8022
 0.6530	55.7783
 0.6520	55.7559
 0.6510	55.7393
 0.6500	55.7193
 0.6490	55.6964
 0.6480	55.6722
 0.6470	55.6589
 0.6460	55.6508
 0.6450	55.6235
 0.6440	55.6102
 0.6430	55.6042
 0.6420	55.5880
 0.6410	55.5664
 0.6400	55.5474
 0.6390	55.5328
 0.6380	55.5115
 0.6370	55.4949
 0.6360	55.4809
 0.6350	55.4633
 0.6340	55.4435
 0.6330	55.4193
 0.6320	55.4019
 0.6310	55.3894
 0.6300	55.3728
 0.6290	55.3588
 0.6280	55.3467
 0.6270	55.3273
 0.6260	55.3046
 0.6250	55.2928
 0.6240	55.2759
 0.6230	55.2506
 0.6220	55.2331
 0.6210	55.2227
 0.6200	55.2090
 0.6190	55.1805
 0.6180	55.1604
 0.6170	55.1526
 0.6160	55.1360
 0.6150	55.1182
 0.6140	55.1031
 0.6130	55.0846
 0.6120	55.0721
 0.6110	55.0531
 0.6100	55.0331
 0.6090	55.0243
 0.6080	55.0169
 0.6070	54.9991
 0.6060	54.9749
 0.6050	54.9531
 0.6040	54.9339
 0.6030	54.9226
 0.6020	54.9050
 0.6010	54.8877
 0.6000	54.8638
 0.5990	54.8580
 0.5980	54.8513
 0.5970	54.8313
 0.5960	54.8304
 0.5950	54.8317
 0.5940	54.8080
 0.5930	54.7703
 0.5920	54.7447
 0.5910	54.7282
 0.5900	54.7152
 0.5890	54.6946
 0.5880	54.6504
 0.5870	54.6215
 0.5860	54.5945
 0.5850	54.5734
 0.5840	54.5479
 0.5830	54.5072
 0.5820	54.4711
 0.5810	54.4429
 0.5800	54.4229
 0.5790	54.3896
 0.5780	54.3480
 0.5770	54.3003
 0.5760	54.2612
 0.5750	54.2232
 0.5740	54.1851
 0.5730	54.1434
 0.5720	54.0902
 0.5710	54.0395
 0.5700	53.9939
 0.5690	53.9412
 0.5680	53.8845
 0.5670	53.8401
 0.5660	53.7868
 0.5650	53.7249
 0.5640	53.6597
 0.5630	53.6125
 0.5620	53.5547
 0.5610	53.5034
 0.5600	53.4354
 0.5590	53.3741
 0.5580	53.3000
 0.5570	53.2230
 0.5560	53.1473
 0.5550	53.0777
 0.5540	53.0039
 0.5530	52.9288
 0.5520	52.8408
 0.5510	52.7556
 0.5500	52.6700
 0.5490	52.5814
 0.5480	52.4918
 0.5470	52.3995
 0.5460	52.2942
 0.5450	52.1984
 0.5440	52.0885
 0.5430	51.9842
 0.5420	51.8836
 0.5410	51.7759
 0.5400	51.6768
 0.5390	51.5652
 0.5380	51.4476
 0.5370	51.3319
 0.5360	51.2206
 0.5350	51.1043
 0.5340	50.9639
 0.5330	50.8350
 0.5320	50.7219
 0.5310	50.5963
 0.5300	50.4567
 0.5290	50.3303
 0.5280	50.2053
 0.5270	50.0710
 0.5260	49.9338
 0.5250	49.8031
 0.5240	49.6508
 0.5230	49.5066
 0.5220	49.3808
 0.5210	49.2416
 0.5200	49.1150
 0.5190	48.9584
 0.5180	48.8227
 0.5170	48.6844
 0.5160	48.5505
 0.5150	48.3955
 0.5140	48.2399
 0.5130	48.1096
 0.5120	47.9570
 0.5110	47.8056
 0.5100	47.6712
 0.5090	47.5228
 0.5080	47.3830
 0.5070	47.2341
 0.5060	47.0799
 0.5050	46.9460
 0.5040	46.8103
 0.5030	46.6771
 0.5020	46.5317
 0.5010	46.3721
 0.5000	46.2313
 0.4990	46.1017
 0.4980	45.9425
 0.4970	45.8185
 0.4960	45.6940
 0.4950	45.5503
 0.4940	45.4174
 0.4930	45.3066
 0.4920	45.1551
 0.4910	45.0533
 0.4900	44.9270
 0.4890	44.8029
 0.4880	44.6941
 0.4870	44.6040
 0.4860	44.4844
 0.4850	44.3789
 0.4840	44.2694
 0.4830	44.1999
 0.4820	44.1072
 0.4810	44.0155
 0.4800	43.9409
 0.4790	43.8322
 0.4780	43.7322
 0.4770	43.6756
 0.4760	43.5881
 0.4750	43.5181
 0.4740	43.4566
 0.4730	43.4072
 0.4720	43.3375
 0.4710	43.2661
 0.4700	43.2081
 0.4690	43.1603
 0.4680	43.0970
 0.4670	43.0316
 0.4660	42.9760
 0.4650	42.9093
 0.4640	42.8416
 0.4630	42.7709
 0.4620	42.7176
 0.4610	42.6518
 0.4600	42.6117
 0.4590	42.5295
 0.4580	42.4690
 0.4570	42.3853
 0.4560	42.3180
 0.4550	42.2374
 0.4540	42.1430
 0.4530	42.0482
 0.4520	41.9669
 0.4510	41.8528
 0.4500	41.7411
 0.4490	41.6156
 0.4480	41.5033
 0.4470	41.3561
 0.4460	41.2163
 0.4450	41.0475
 0.4440	40.8804
 0.4430	40.7129
 0.4420	40.5257
 0.4410	40.3296
 0.4400	40.1208
 0.4390	39.9211
 0.4380	39.6986
 0.4370	39.4889
 0.4360	39.2780
 0.4350	39.0418
 0.4340	38.8092
 0.4330	38.5921
 0.4320	38.3780
 0.4310	38.1523
 0.4300	37.9238
 0.4290	37.7102
 0.4280	37.4986
 0.4270	37.2949
 0.4260	37.1209
 0.4250	36.9195
 0.4240	36.7210
 0.4230	36.5225
 0.4220	36.3368
 0.4210	36.1586
 0.4200	35.9810
 0.4190	35.8039
 0.4180	35.6375
 0.4170	35.4681
 0.4160	35.2983
 0.4150	35.1288
 0.4140	34.9744
 0.4130	34.8136
 0.4120	34.6623
 0.4110	34.5576
 0.4100	34.4049
 0.4090	34.2429
 0.4080	34.0943
 0.4070	33.9539
 0.4060	33.7947
 0.4050	33.6437
 0.4040	33.4785
 0.4030	33.3383
 0.4020	33.1783
 0.4010	33.0162
 0.4000	32.8531
