Name: Trona Na_3(CO_3)(HCO_3).2H_2O
Type: Mineral
Class: Carbonate
Subclass: None
Particle Size: Medium
Sample No.: C-4A
Owner: JPL
Wavelength Range: VSWIR
Origin: USA, Wyoming, Sweetwater County
Collection Date: N/A
Description: Particle size was 45-125um.Collected by Ward's Original ASTER Spectral Library name was jpl.beckman.mineral.carbonate.none.medium.c04a.spectrum.txt
Measurement: Hemispherical reflectance
First Column: X
Second Column: Y
X Units: Wavelength (micrometers)
Y Units:Reflectance (percent)
First X Value:  0.4000
Last X Value:  2.5000
Number of X Values: 826
Additional Information: mineral.carbonate.none.medium.vswir.c-4a.jpl.beckman.ancillary.txt

 0.4000	55.9400
 0.4010	56.2200
 0.4020	55.9400
 0.4030	56.1600
 0.4040	56.4500
 0.4050	56.7400
 0.4060	56.8500
 0.4070	56.7400
 0.4080	56.9700
 0.4090	57.2000
 0.4100	57.6500
 0.4110	57.7600
 0.4120	57.5900
 0.4130	57.7600
 0.4140	58.0000
 0.4150	58.4600
 0.4160	58.5700
 0.4170	58.7400
 0.4180	58.6900
 0.4190	58.7400
 0.4200	59.1400
 0.4210	59.3100
 0.4220	59.4300
 0.4230	59.4800
 0.4240	59.4300
 0.4250	59.8300
 0.4260	60.1700
 0.4270	60.2900
 0.4280	60.3400
 0.4290	60.2300
 0.4300	60.5700
 0.4310	60.8600
 0.4320	61.2000
 0.4330	61.1400
 0.4340	61.0300
 0.4350	61.3200
 0.4360	61.6600
 0.4370	62.0000
 0.4380	62.0600
 0.4390	61.8800
 0.4400	62.2300
 0.4410	62.4600
 0.4420	62.8600
 0.4430	63.0300
 0.4440	62.9200
 0.4450	62.8600
 0.4460	63.1400
 0.4470	63.4900
 0.4480	63.6600
 0.4490	63.6600
 0.4500	63.6000
 0.4510	63.7700
 0.4520	64.1200
 0.4530	64.3500
 0.4540	64.4600
 0.4550	64.4100
 0.4560	64.3500
 0.4570	64.5800
 0.4580	64.8800
 0.4590	64.9900
 0.4600	64.8800
 0.4610	64.8800
 0.4620	65.1000
 0.4630	65.2800
 0.4640	65.6800
 0.4650	65.8000
 0.4660	65.9100
 0.4670	65.6300
 0.4680	65.6800
 0.4690	66.1400
 0.4700	66.2600
 0.4710	66.3200
 0.4720	66.0900
 0.4730	66.1000
 0.4740	66.4900
 0.4750	66.6100
 0.4760	66.7200
 0.4770	66.7200
 0.4780	66.7300
 0.4790	66.7900
 0.4800	67.1300
 0.4810	67.3100
 0.4820	67.3100
 0.4830	67.1300
 0.4840	67.2500
 0.4850	67.4200
 0.4860	67.7700
 0.4870	67.8300
 0.4880	67.8400
 0.4890	67.6600
 0.4900	67.8900
 0.4910	68.2900
 0.4920	68.4000
 0.4930	68.3500
 0.4940	68.0700
 0.4950	68.1200
 0.4960	68.4100
 0.4970	68.7600
 0.4980	68.7100
 0.4990	68.5900
 0.5000	68.5900
 0.5010	68.7100
 0.5020	68.9900
 0.5030	69.3300
 0.5040	69.2800
 0.5050	69.2200
 0.5060	69.2200
 0.5070	69.2800
 0.5080	69.6200
 0.5090	69.7900
 0.5100	69.7400
 0.5110	69.5100
 0.5120	69.6800
 0.5130	69.9700
 0.5140	70.1400
 0.5150	70.1400
 0.5160	70.0200
 0.5170	69.9700
 0.5180	70.1400
 0.5190	70.4200
 0.5200	70.4800
 0.5210	70.3100
 0.5220	70.3700
 0.5230	70.4800
 0.5240	70.6500
 0.5250	70.8800
 0.5260	70.8800
 0.5270	70.7600
 0.5280	70.6500
 0.5290	70.8800
 0.5300	71.1100
 0.5310	71.1100
 0.5320	70.9400
 0.5330	70.8800
 0.5340	70.9400
 0.5350	71.2800
 0.5360	71.4000
 0.5370	71.2200
 0.5380	71.0500
 0.5390	71.3400
 0.5400	71.7400
 0.5410	71.6800
 0.5420	71.6300
 0.5430	71.2200
 0.5440	71.2200
 0.5450	71.5700
 0.5460	71.6300
 0.5470	71.6300
 0.5480	71.5100
 0.5490	71.3400
 0.5500	71.6800
 0.5510	72.0800
 0.5520	71.9700
 0.5530	71.8000
 0.5540	71.8000
 0.5550	72.1400
 0.5560	72.3100
 0.5570	72.3100
 0.5580	72.0800
 0.5590	72.0300
 0.5600	72.2500
 0.5610	72.6500
 0.5620	72.4200
 0.5630	72.6500
 0.5640	72.7700
 0.5650	72.8800
 0.5660	72.8300
 0.5670	72.4800
 0.5680	72.7100
 0.5690	72.9400
 0.5700	73.0000
 0.5710	73.0600
 0.5720	72.7100
 0.5730	72.8300
 0.5740	72.9400
 0.5750	73.1100
 0.5760	73.0600
 0.5770	72.8800
 0.5780	72.9400
 0.5790	73.1100
 0.5800	73.2900
 0.5810	73.3500
 0.5820	73.0600
 0.5830	73.1100
 0.5840	73.2300
 0.5850	73.5200
 0.5860	73.6900
 0.5870	73.5200
 0.5880	73.4600
 0.5890	73.4600
 0.5900	73.7400
 0.5910	74.0800
 0.5920	74.0800
 0.5930	73.8500
 0.5940	73.8000
 0.5950	73.9700
 0.5960	74.1400
 0.5970	74.0800
 0.5980	74.0300
 0.5990	73.9700
 0.6000	74.0800
 0.6010	74.4300
 0.6020	74.5500
 0.6030	74.3700
 0.6040	74.2600
 0.6050	74.4300
 0.6060	74.6600
 0.6070	74.7800
 0.6080	74.5400
 0.6090	74.4300
 0.6100	74.6600
 0.6110	74.8300
 0.6120	74.8900
 0.6130	74.7200
 0.6140	74.4900
 0.6150	74.7200
 0.6160	74.8900
 0.6170	74.9500
 0.6180	74.9500
 0.6190	74.5500
 0.6200	74.7200
 0.6210	75.0100
 0.6220	75.1200
 0.6230	75.1200
 0.6240	74.6600
 0.6250	75.0100
 0.6260	75.2900
 0.6270	75.2900
 0.6280	75.2400
 0.6290	74.8900
 0.6300	75.0600
 0.6310	75.4000
 0.6320	75.4600
 0.6330	75.4000
 0.6340	75.2400
 0.6350	75.2900
 0.6360	75.5100
 0.6370	75.7400
 0.6380	75.6300
 0.6390	75.4600
 0.6400	75.5100
 0.6410	75.6900
 0.6420	75.8000
 0.6430	75.7400
 0.6440	75.6900
 0.6450	75.5100
 0.6460	75.7400
 0.6470	75.8600
 0.6480	76.0300
 0.6490	75.9800
 0.6500	75.9200
 0.6510	75.8000
 0.6520	76.0300
 0.6530	76.3200
 0.6540	76.2600
 0.6550	76.2100
 0.6560	75.8600
 0.6570	76.0900
 0.6580	76.2600
 0.6590	76.2600
 0.6600	76.2600
 0.6610	76.0300
 0.6620	76.1500
 0.6630	76.3800
 0.6640	76.5500
 0.6650	76.5500
 0.6660	76.4400
 0.6670	76.3800
 0.6680	76.4900
 0.6690	76.6100
 0.6700	76.7200
 0.6710	76.7200
 0.6720	76.7200
 0.6730	76.4400
 0.6740	76.6700
 0.6750	76.9000
 0.6760	76.9000
 0.6770	76.9000
 0.6780	76.6700
 0.6790	76.7200
 0.6800	76.9500
 0.6810	77.0100
 0.6820	77.1200
 0.6830	77.0100
 0.6840	76.9000
 0.6850	77.0100
 0.6860	77.1200
 0.6870	77.2300
 0.6880	77.1700
 0.6890	77.0600
 0.6900	76.9500
 0.6910	77.0600
 0.6920	77.4100
 0.6930	77.5200
 0.6940	77.4100
 0.6950	77.1200
 0.6960	77.0600
 0.6970	77.3500
 0.6980	77.5200
 0.6990	77.4600
 0.7000	77.3500
 0.7010	77.6400
 0.7020	77.5800
 0.7030	77.4600
 0.7040	77.4600
 0.7050	77.5200
 0.7060	77.7500
 0.7070	77.8700
 0.7080	77.7500
 0.7090	77.6900
 0.7100	77.8100
 0.7110	77.9800
 0.7120	78.0400
 0.7130	78.0400
 0.7140	77.8100
 0.7150	77.6900
 0.7160	77.8100
 0.7170	78.1000
 0.7180	78.2100
 0.7190	77.9800
 0.7200	77.8100
 0.7210	77.9800
 0.7220	78.2700
 0.7230	78.2700
 0.7240	78.2100
 0.7250	77.9200
 0.7260	77.9800
 0.7270	78.3300
 0.7280	78.3300
 0.7290	78.2100
 0.7300	78.1000
 0.7310	77.9200
 0.7320	78.2700
 0.7330	78.5000
 0.7340	78.5000
 0.7350	78.2700
 0.7360	78.3300
 0.7370	78.5000
 0.7380	78.7200
 0.7390	78.7200
 0.7400	78.5600
 0.7410	78.5000
 0.7420	78.4400
 0.7430	78.7200
 0.7440	78.7800
 0.7450	78.5600
 0.7460	78.6100
 0.7470	78.5600
 0.7480	78.6700
 0.7490	78.8400
 0.7500	78.6700
 0.7510	78.5600
 0.7520	78.5000
 0.7530	78.5600
 0.7540	78.7800
 0.7550	78.6700
 0.7560	78.6700
 0.7570	78.5600
 0.7580	78.6700
 0.7590	79.0100
 0.7600	79.0100
 0.7610	78.7800
 0.7620	78.6100
 0.7630	78.7800
 0.7640	79.0700
 0.7650	79.1200
 0.7660	79.0100
 0.7670	78.5600
 0.7680	78.6700
 0.7690	79.0700
 0.7700	79.1200
 0.7710	79.0100
 0.7720	78.6700
 0.7730	78.8400
 0.7740	79.0700
 0.7750	79.2400
 0.7760	79.1200
 0.7770	78.9500
 0.7780	78.8900
 0.7790	79.1200
 0.7800	79.3000
 0.7810	79.3000
 0.7820	79.1800
 0.7830	79.0700
 0.7840	79.1200
 0.7850	79.4100
 0.7860	79.4100
 0.7870	79.2400
 0.7880	79.1800
 0.7890	79.1800
 0.7900	79.4100
 0.7910	79.5300
 0.7920	79.3000
 0.7930	79.1800
 0.7940	79.3000
 0.7950	79.4700
 0.7960	79.6400
 0.7970	79.5300
 0.7980	79.4100
 0.7990	79.5300
 0.8000	79.6000
 0.8040	79.8700
 0.8080	79.9300
 0.8120	79.6400
 0.8160	79.7000
 0.8200	79.8100
 0.8240	79.9300
 0.8280	79.8100
 0.8320	80.0400
 0.8360	79.8700
 0.8400	79.9300
 0.8440	80.1000
 0.8480	80.1000
 0.8520	80.2200
 0.8560	80.1600
 0.8600	80.2800
 0.8640	80.1600
 0.8680	80.0400
 0.8720	80.0400
 0.8760	79.9300
 0.8800	80.0400
 0.8840	80.0400
 0.8880	80.2800
 0.8920	80.1000
 0.8960	80.1600
 0.9000	80.1600
 0.9040	80.1000
 0.9080	80.0400
 0.9120	80.1600
 0.9160	80.2800
 0.9200	80.1600
 0.9240	80.2200
 0.9280	80.3800
 0.9320	80.2200
 0.9360	80.3300
 0.9400	80.2200
 0.9440	80.3300
 0.9480	80.2800
 0.9520	80.1000
 0.9560	80.1600
 0.9600	79.9900
 0.9640	80.0400
 0.9680	79.8100
 0.9720	79.8700
 0.9760	79.7600
 0.9800	79.5800
 0.9840	79.5300
 0.9880	79.4100
 0.9920	79.3000
 0.9960	79.3000
 1.0000	79.2400
 1.0040	79.3500
 1.0080	79.1200
 1.0120	79.1200
 1.0160	79.1200
 1.0200	79.2400
 1.0240	79.3000
 1.0280	79.3000
 1.0320	79.5300
 1.0360	79.5300
 1.0400	79.6400
 1.0440	79.7600
 1.0480	79.7000
 1.0520	79.7000
 1.0560	79.6400
 1.0600	79.8100
 1.0640	79.7000
 1.0680	79.8100
 1.0720	79.7600
 1.0760	79.8100
 1.0800	79.8100
 1.0840	79.8100
 1.0880	79.9900
 1.0920	79.8100
 1.0960	79.8100
 1.1000	79.8100
 1.1040	79.5800
 1.1080	79.7000
 1.1120	79.5800
 1.1160	79.6400
 1.1200	79.5300
 1.1240	79.5300
 1.1280	79.5300
 1.1320	79.3500
 1.1360	79.1200
 1.1400	79.0100
 1.1440	78.8900
 1.1480	78.4400
 1.1520	78.3800
 1.1560	78.0300
 1.1600	77.5100
 1.1640	77.0400
 1.1680	76.6400
 1.1720	76.3500
 1.1760	75.7000
 1.1800	75.4700
 1.1840	75.1800
 1.1880	74.7700
 1.1920	74.6000
 1.1960	74.2400
 1.2000	74.1900
 1.2040	74.0700
 1.2080	73.9000
 1.2120	73.9000
 1.2160	73.6700
 1.2200	73.6700
 1.2240	73.6100
 1.2280	73.3800
 1.2320	73.3800
 1.2360	73.3800
 1.2400	73.6100
 1.2440	73.5500
 1.2480	73.6100
 1.2520	73.6100
 1.2560	73.7700
 1.2600	73.8800
 1.2640	73.8800
 1.2680	74.1000
 1.2720	73.9800
 1.2760	74.0300
 1.2800	74.0200
 1.2840	73.8500
 1.2880	73.9000
 1.2920	73.8400
 1.2960	73.6600
 1.3000	73.3700
 1.3040	73.2400
 1.3080	72.9500
 1.3120	72.6700
 1.3160	72.4800
 1.3200	72.2000
 1.3240	72.0100
 1.3280	71.7800
 1.3320	71.4400
 1.3360	71.3700
 1.3400	70.9700
 1.3440	70.8400
 1.3480	70.8400
 1.3520	70.9000
 1.3560	70.7800
 1.3600	70.7300
 1.3640	70.5500
 1.3680	70.2100
 1.3720	70.2100
 1.3760	70.0900
 1.3800	70.0300
 1.3840	69.7000
 1.3880	69.5800
 1.3920	69.2400
 1.3960	69.0100
 1.4000	68.5000
 1.4040	67.9900
 1.4080	67.3700
 1.4120	66.4600
 1.4160	65.5000
 1.4200	64.4700
 1.4240	63.4500
 1.4280	61.9700
 1.4320	60.5400
 1.4360	59.2900
 1.4400	57.8100
 1.4440	56.6200
 1.4480	55.2500
 1.4520	54.0500
 1.4560	52.9600
 1.4600	52.0500
 1.4640	51.0300
 1.4680	49.9400
 1.4720	49.1300
 1.4760	48.3400
 1.4800	47.4300
 1.4840	46.6800
 1.4880	46.0000
 1.4920	45.5400
 1.4960	45.1400
 1.5000	44.6200
 1.5040	44.1600
 1.5080	44.0000
 1.5120	43.8300
 1.5160	43.6000
 1.5200	43.4200
 1.5240	43.4200
 1.5280	43.6000
 1.5320	43.8300
 1.5360	44.2800
 1.5400	45.0300
 1.5440	45.8200
 1.5480	46.3400
 1.5520	46.9100
 1.5560	47.4800
 1.5600	47.7600
 1.5640	48.0500
 1.5680	48.4000
 1.5720	48.3400
 1.5760	48.4000
 1.5800	48.3400
 1.5840	48.2800
 1.5880	48.0500
 1.5920	47.8800
 1.5960	47.6000
 1.6000	47.3700
 1.6040	47.0800
 1.6080	46.7800
 1.6120	46.6700
 1.6160	46.2100
 1.6200	45.8600
 1.6240	45.5700
 1.6280	45.1700
 1.6320	44.7700
 1.6360	44.4800
 1.6400	44.1300
 1.6440	43.6700
 1.6480	43.1500
 1.6520	42.8100
 1.6560	42.2900
 1.6600	41.8300
 1.6640	41.3700
 1.6680	40.9100
 1.6720	40.4000
 1.6760	40.0000
 1.6800	39.5900
 1.6840	39.1300
 1.6880	38.6700
 1.6920	38.3200
 1.6960	38.0900
 1.7000	37.5200
 1.7040	37.2300
 1.7080	36.8900
 1.7120	36.3800
 1.7160	36.1000
 1.7200	35.7500
 1.7240	35.4100
 1.7280	34.9000
 1.7320	34.5500
 1.7360	34.4400
 1.7400	34.2100
 1.7440	34.0400
 1.7480	33.9300
 1.7520	33.9900
 1.7560	33.9900
 1.7600	33.8100
 1.7640	33.9300
 1.7680	33.8100
 1.7720	33.8100
 1.7760	33.8100
 1.7800	33.5800
 1.7840	33.6400
 1.7880	33.4100
 1.7920	33.5300
 1.7960	33.4700
 1.8000	33.4700
 1.8040	33.4000
 1.8080	33.2200
 1.8120	33.2100
 1.8160	33.0800
 1.8200	33.0200
 1.8240	32.8300
 1.8280	32.8200
 1.8320	32.7000
 1.8360	32.5700
 1.8400	32.4600
 1.8440	32.1000
 1.8480	31.9200
 1.8520	31.5200
 1.8560	31.1200
 1.8600	30.7200
 1.8640	30.3200
 1.8680	29.7500
 1.8720	29.1200
 1.8760	28.6600
 1.8800	28.0300
 1.8840	27.2900
 1.8880	26.5500
 1.8920	25.7000
 1.8960	24.6800
 1.9000	23.5400
 1.9040	22.1800
 1.9080	20.9300
 1.9120	19.5700
 1.9160	18.2100
 1.9200	16.9000
 1.9240	15.8200
 1.9280	14.6800
 1.9320	13.8900
 1.9360	13.3200
 1.9400	12.8600
 1.9440	12.7500
 1.9480	12.9800
 1.9520	13.0900
 1.9560	13.4800
 1.9600	13.7600
 1.9640	14.2700
 1.9680	14.6600
 1.9720	14.9400
 1.9760	15.2200
 1.9800	15.4400
 1.9840	15.5500
 1.9880	15.7200
 1.9920	15.6500
 1.9960	15.5900
 2.0000	15.4200
 2.0040	15.2400
 2.0080	15.1100
 2.0120	14.8200
 2.0160	14.6500
 2.0200	14.4200
 2.0240	14.1200
 2.0280	14.0000
 2.0320	13.8800
 2.0360	13.7000
 2.0400	13.6400
 2.0440	13.5800
 2.0480	13.6200
 2.0520	13.6700
 2.0560	13.7800
 2.0600	14.0500
 2.0640	14.0400
 2.0680	14.2600
 2.0720	14.4300
 2.0760	14.6400
 2.0800	14.8000
 2.0840	15.0800
 2.0880	15.2900
 2.0920	15.3900
 2.0960	15.5600
 2.1000	15.7800
 2.1040	16.1000
 2.1080	16.2100
 2.1120	16.3700
 2.1160	16.5800
 2.1200	16.6300
 2.1240	16.7300
 2.1280	16.8300
 2.1320	16.8800
 2.1360	17.0400
 2.1400	17.0400
 2.1440	17.2100
 2.1480	17.1600
 2.1520	17.1700
 2.1560	17.3000
 2.1600	17.3800
 2.1640	17.3400
 2.1680	17.2500
 2.1720	17.3300
 2.1760	17.2400
 2.1800	17.2000
 2.1840	17.2200
 2.1880	17.0700
 2.1920	17.0200
 2.1960	17.0300
 2.2000	16.9300
 2.2040	16.7700
 2.2080	16.8200
 2.2120	16.8300
 2.2160	16.7200
 2.2200	16.7800
 2.2240	16.6700
 2.2280	16.7800
 2.2320	16.8400
 2.2360	16.9400
 2.2400	17.1100
 2.2440	17.0500
 2.2480	17.0500
 2.2520	17.0500
 2.2560	17.1000
 2.2600	17.0300
 2.2640	16.9700
 2.2680	16.9700
 2.2720	16.7400
 2.2760	16.6300
 2.2800	16.5100
 2.2840	16.4400
 2.2880	16.2100
 2.2920	16.1400
 2.2960	16.0200
 2.3000	15.7900
 2.3040	15.4400
 2.3080	15.3800
 2.3120	15.1500
 2.3160	15.0300
 2.3200	14.8000
 2.3240	14.6700
 2.3280	14.5000
 2.3320	14.3800
 2.3360	14.1900
 2.3400	13.9100
 2.3440	13.7900
 2.3480	13.6800
 2.3520	13.4500
 2.3560	13.2700
 2.3600	12.9400
 2.3640	12.8200
 2.3680	12.5300
 2.3720	12.3600
 2.3760	12.0900
 2.3800	11.8600
 2.3840	11.7500
 2.3880	11.5300
 2.3920	11.4100
 2.3960	11.2500
 2.4000	11.2500
 2.4040	11.2400
 2.4080	11.1900
 2.4120	11.1300
 2.4160	11.1300
 2.4200	11.1800
 2.4240	11.1200
 2.4280	11.0800
 2.4320	11.0800
 2.4360	11.0700
 2.4400	11.0700
 2.4440	11.0700
 2.4480	10.9600
 2.4520	10.7900
 2.4560	10.9000
 2.4600	10.8500
 2.4640	10.8900
 2.4680	10.8900
 2.4720	10.7900
 2.4760	10.7300
 2.4800	10.6700
 2.4840	10.6100
 2.4880	10.5600
 2.4920	10.5600
 2.4960	10.5600
 2.5000	10.3900
