Name: Mimetite Pb_5(AsO_4)_3Cl
Type: Mineral
Class: Arsenate
Subclass: None
Particle Size: Fine
Sample No.: A-1A
Owner: JPL
Wavelength Range: VSWIR
Origin: Mexico, Chihuahua, Ingla Tierra Mine
Collection Date: N/A
Description: Particle size was 0-45um.Collected by JPL Original ASTER Spectral Library name was jpl.beckman.mineral.arsenate.none.fine.a01.spectrum.txt
Measurement: Hemispherical reflectance
First Column: X
Second Column: Y
X Units: Wavelength (micrometers)
Y Units:Reflectance (percent)
First X Value:  0.4000
Last X Value:  2.5000
Number of X Values: 826
Additional Information: mineral.arsenate.none.fine.vswir.a-1a.jpl.beckman.ancillary.txt

 0.4000	59.0500
 0.4010	59.0800
 0.4020	59.2200
 0.4030	59.3600
 0.4040	59.3400
 0.4050	59.6400
 0.4060	59.7400
 0.4070	59.9700
 0.4080	60.0300
 0.4090	60.1300
 0.4100	60.3800
 0.4110	60.5200
 0.4120	60.5800
 0.4130	60.7000
 0.4140	60.7800
 0.4150	61.0400
 0.4160	61.1700
 0.4170	61.3100
 0.4180	61.5500
 0.4190	61.5100
 0.4200	61.8000
 0.4210	62.0000
 0.4220	62.1200
 0.4230	62.4200
 0.4240	62.4800
 0.4250	62.7200
 0.4260	62.8400
 0.4270	63.0400
 0.4280	63.2500
 0.4290	63.3700
 0.4300	63.6800
 0.4310	63.8400
 0.4320	64.0400
 0.4330	64.3000
 0.4340	64.4600
 0.4350	64.5900
 0.4360	64.8200
 0.4370	64.9900
 0.4380	65.2800
 0.4390	65.4900
 0.4400	65.6700
 0.4410	65.8600
 0.4420	66.0200
 0.4430	66.4100
 0.4440	66.5800
 0.4450	66.7500
 0.4460	66.9500
 0.4470	67.0600
 0.4480	67.3500
 0.4490	67.6700
 0.4500	67.8100
 0.4510	68.1600
 0.4520	68.2500
 0.4530	68.5200
 0.4540	68.6900
 0.4550	68.8900
 0.4560	69.2100
 0.4570	69.3400
 0.4580	69.6300
 0.4590	69.6600
 0.4600	69.8300
 0.4610	70.3300
 0.4620	70.6500
 0.4630	71.0200
 0.4640	71.1400
 0.4650	71.3800
 0.4660	71.4500
 0.4670	71.7800
 0.4680	72.1400
 0.4690	72.1900
 0.4700	72.4100
 0.4710	72.6400
 0.4720	72.9400
 0.4730	73.3700
 0.4740	73.4100
 0.4750	73.7100
 0.4760	73.9000
 0.4770	74.2000
 0.4780	74.5400
 0.4790	74.6300
 0.4800	74.8800
 0.4810	75.1100
 0.4820	75.2800
 0.4830	75.5700
 0.4840	75.8200
 0.4850	76.0200
 0.4860	76.3200
 0.4870	76.4500
 0.4880	76.6300
 0.4890	76.7900
 0.4900	77.0600
 0.4910	77.2800
 0.4920	77.4400
 0.4930	77.7100
 0.4940	77.8000
 0.4950	78.1200
 0.4960	78.4300
 0.4970	78.5700
 0.4980	78.8200
 0.4990	78.8900
 0.5000	79.1300
 0.5010	79.4300
 0.5020	79.5600
 0.5030	79.8000
 0.5040	79.8200
 0.5050	80.0500
 0.5060	80.3800
 0.5070	80.3400
 0.5080	80.6600
 0.5090	80.8800
 0.5100	81.0400
 0.5110	81.3200
 0.5120	81.3200
 0.5130	81.6000
 0.5140	81.7800
 0.5150	81.8800
 0.5160	82.1800
 0.5170	82.2700
 0.5180	82.3700
 0.5190	82.3500
 0.5200	82.5100
 0.5210	82.6900
 0.5220	82.8300
 0.5230	83.0200
 0.5240	83.1000
 0.5250	83.2600
 0.5260	83.3000
 0.5270	83.4300
 0.5280	83.6200
 0.5290	83.6800
 0.5300	83.7300
 0.5310	83.9000
 0.5320	83.9900
 0.5330	84.1300
 0.5340	84.2400
 0.5350	84.3700
 0.5360	84.4400
 0.5370	84.5500
 0.5380	84.7200
 0.5390	84.9400
 0.5400	84.7500
 0.5410	84.8800
 0.5420	84.9600
 0.5430	85.0900
 0.5440	85.3800
 0.5450	85.3400
 0.5460	85.3600
 0.5470	85.4400
 0.5480	85.6300
 0.5490	85.7600
 0.5500	85.7700
 0.5510	85.9000
 0.5520	85.9000
 0.5530	85.9800
 0.5540	86.2600
 0.5550	86.2500
 0.5560	86.3400
 0.5570	86.3600
 0.5580	86.4300
 0.5590	86.5700
 0.5600	87.1200
 0.5610	87.2300
 0.5620	87.1700
 0.5630	87.3000
 0.5640	87.3000
 0.5650	87.4200
 0.5660	87.4900
 0.5670	87.3900
 0.5680	87.7300
 0.5690	87.6700
 0.5700	87.8400
 0.5710	87.8300
 0.5720	87.7800
 0.5730	87.9100
 0.5740	87.8500
 0.5750	87.8800
 0.5760	87.9700
 0.5770	88.0100
 0.5780	88.1800
 0.5790	88.1900
 0.5800	88.1400
 0.5810	88.3000
 0.5820	88.3000
 0.5830	88.4200
 0.5840	88.4700
 0.5850	88.4600
 0.5860	88.6300
 0.5870	88.6300
 0.5880	88.8200
 0.5890	88.8200
 0.5900	88.7500
 0.5910	89.0000
 0.5920	88.9500
 0.5930	89.0100
 0.5940	89.0600
 0.5950	89.1800
 0.5960	89.2400
 0.5970	89.1900
 0.5980	89.4100
 0.5990	89.4900
 0.6000	89.5200
 0.6010	89.7200
 0.6020	89.6100
 0.6030	89.6200
 0.6040	89.7500
 0.6050	89.7600
 0.6060	89.9400
 0.6070	89.8800
 0.6080	89.8100
 0.6090	89.9900
 0.6100	89.9400
 0.6110	90.0000
 0.6120	89.8900
 0.6130	89.8300
 0.6140	89.8800
 0.6150	89.8700
 0.6160	90.1000
 0.6170	89.9300
 0.6180	89.9500
 0.6190	90.0600
 0.6200	89.8300
 0.6210	90.0600
 0.6220	90.1200
 0.6230	90.1900
 0.6240	90.1800
 0.6250	90.1200
 0.6260	90.2800
 0.6270	90.2800
 0.6280	90.2300
 0.6290	90.2900
 0.6300	90.1900
 0.6310	90.2400
 0.6320	90.2900
 0.6330	90.2900
 0.6340	90.4000
 0.6350	90.3400
 0.6360	90.3400
 0.6370	90.3300
 0.6380	90.3300
 0.6390	90.5000
 0.6400	90.4500
 0.6410	90.2900
 0.6420	90.3500
 0.6430	90.3400
 0.6440	90.4600
 0.6450	90.4000
 0.6460	90.4600
 0.6470	90.5200
 0.6480	90.4600
 0.6490	90.6300
 0.6500	90.5100
 0.6510	90.4500
 0.6520	90.6200
 0.6530	90.6200
 0.6540	90.7400
 0.6550	90.6300
 0.6560	90.5700
 0.6570	90.6300
 0.6580	90.6200
 0.6590	90.8000
 0.6600	90.7500
 0.6610	90.8100
 0.6620	90.7500
 0.6630	90.6300
 0.6640	90.8500
 0.6650	90.9100
 0.6660	90.8000
 0.6670	90.9200
 0.6680	90.8700
 0.6690	90.9200
 0.6700	90.9200
 0.6710	90.9200
 0.6720	91.0900
 0.6730	90.8600
 0.6740	90.8600
 0.6750	90.9200
 0.6760	90.8500
 0.6770	91.0200
 0.6780	90.9700
 0.6790	91.0900
 0.6800	91.1000
 0.6810	91.0400
 0.6820	91.1500
 0.6830	90.9800
 0.6840	91.1000
 0.6850	91.1000
 0.6860	91.1000
 0.6870	91.2700
 0.6880	91.2600
 0.6890	91.1400
 0.6900	91.2100
 0.6910	91.2700
 0.6920	91.3900
 0.6930	91.3300
 0.6940	91.3300
 0.6950	91.4400
 0.6960	91.3200
 0.6970	91.4300
 0.6980	91.3700
 0.6990	91.2300
 0.7000	91.3400
 0.7010	91.4400
 0.7020	91.4500
 0.7030	91.5000
 0.7040	91.5100
 0.7050	91.5100
 0.7060	91.5600
 0.7070	91.5600
 0.7080	91.5500
 0.7090	91.5500
 0.7100	91.5600
 0.7110	91.6200
 0.7120	91.6200
 0.7130	91.6800
 0.7140	91.7400
 0.7150	91.6800
 0.7160	91.5600
 0.7170	91.7300
 0.7180	91.6700
 0.7190	91.8400
 0.7200	91.7900
 0.7210	91.6800
 0.7220	91.7900
 0.7230	91.6800
 0.7240	91.8500
 0.7250	91.8500
 0.7260	91.7400
 0.7270	91.8500
 0.7280	91.7900
 0.7290	91.7900
 0.7300	91.8500
 0.7310	91.6800
 0.7320	91.8000
 0.7330	91.7900
 0.7340	91.8500
 0.7350	91.9500
 0.7360	91.8500
 0.7370	91.8000
 0.7380	91.7400
 0.7390	91.8500
 0.7400	91.9500
 0.7410	91.9600
 0.7420	91.8600
 0.7430	91.8000
 0.7440	91.9100
 0.7450	91.9600
 0.7460	91.9600
 0.7470	91.9100
 0.7480	91.9100
 0.7490	91.9100
 0.7500	91.9100
 0.7510	91.9100
 0.7520	91.9600
 0.7530	91.9100
 0.7540	91.7400
 0.7550	91.9100
 0.7560	91.8600
 0.7570	91.9100
 0.7580	91.9100
 0.7590	91.9100
 0.7600	91.9600
 0.7610	91.8600
 0.7620	91.9600
 0.7630	91.8000
 0.7640	91.8600
 0.7650	91.9600
 0.7660	92.0200
 0.7670	91.9100
 0.7680	91.8500
 0.7690	91.8600
 0.7700	91.9100
 0.7710	91.9100
 0.7720	91.9600
 0.7730	91.8000
 0.7740	91.8000
 0.7750	91.7400
 0.7760	91.8500
 0.7770	91.9600
 0.7780	91.8600
 0.7790	91.8600
 0.7800	92.0200
 0.7810	91.9100
 0.7820	91.9200
 0.7830	91.9200
 0.7840	91.8000
 0.7850	91.9100
 0.7860	91.8600
 0.7870	91.9200
 0.7880	91.9600
 0.7890	91.9100
 0.7900	91.9200
 0.7910	91.8000
 0.7920	91.8000
 0.7930	91.8500
 0.7940	91.9100
 0.7950	91.9100
 0.7960	91.8500
 0.7970	91.8400
 0.7980	91.8900
 0.7990	91.8200
 0.8000	91.7900
 0.8040	91.7300
 0.8080	91.7900
 0.8120	91.7800
 0.8160	91.7800
 0.8200	91.7900
 0.8240	91.7900
 0.8280	91.7800
 0.8320	91.9000
 0.8360	91.8400
 0.8400	91.8400
 0.8440	91.8900
 0.8480	91.9500
 0.8520	92.0600
 0.8560	92.0100
 0.8600	92.1200
 0.8640	92.1800
 0.8680	92.1800
 0.8720	92.2400
 0.8760	92.2400
 0.8800	92.1800
 0.8840	92.2400
 0.8880	92.3000
 0.8920	92.2400
 0.8960	92.3600
 0.9000	92.3600
 0.9040	92.3000
 0.9080	92.3600
 0.9120	92.3500
 0.9160	92.4200
 0.9200	92.4800
 0.9240	92.5400
 0.9280	92.6600
 0.9320	92.7200
 0.9360	92.7200
 0.9400	92.7800
 0.9440	92.7800
 0.9480	92.7800
 0.9520	92.8300
 0.9560	92.9000
 0.9600	92.9600
 0.9640	93.0200
 0.9680	93.1400
 0.9720	93.0200
 0.9760	92.9600
 0.9800	93.1400
 0.9840	93.1400
 0.9880	93.1400
 0.9920	93.1400
 0.9960	93.2100
 1.0000	93.2600
 1.0040	93.2600
 1.0080	93.3200
 1.0120	93.3800
 1.0160	93.3800
 1.0200	93.4400
 1.0240	93.4400
 1.0280	93.5000
 1.0320	93.5000
 1.0360	93.6100
 1.0400	93.6100
 1.0440	93.6700
 1.0480	93.6700
 1.0520	93.7300
 1.0560	93.6700
 1.0600	93.7900
 1.0640	93.6700
 1.0680	93.8500
 1.0720	93.8500
 1.0760	93.9100
 1.0800	93.9100
 1.0840	93.9100
 1.0880	93.9100
 1.0920	93.9700
 1.0960	94.0300
 1.1000	94.0900
 1.1040	93.9700
 1.1080	94.1500
 1.1120	94.0900
 1.1160	94.2000
 1.1200	94.2100
 1.1240	94.3200
 1.1280	94.3200
 1.1320	94.3200
 1.1360	94.3200
 1.1400	94.3300
 1.1440	94.3300
 1.1480	94.2700
 1.1520	94.3300
 1.1560	94.3800
 1.1600	94.3700
 1.1640	94.3600
 1.1680	94.2900
 1.1720	94.3500
 1.1760	94.2800
 1.1800	94.3300
 1.1840	94.3800
 1.1880	94.3100
 1.1920	94.3100
 1.1960	94.3000
 1.2000	94.4100
 1.2040	94.3500
 1.2080	94.3500
 1.2120	94.2400
 1.2160	94.1800
 1.2200	94.2400
 1.2240	94.1800
 1.2280	94.1800
 1.2320	94.1700
 1.2360	94.2300
 1.2400	94.1700
 1.2440	94.2300
 1.2480	94.2300
 1.2520	94.2900
 1.2560	94.2200
 1.2600	94.3300
 1.2640	94.3200
 1.2680	94.2500
 1.2720	94.3100
 1.2760	94.1800
 1.2800	94.2300
 1.2840	94.3400
 1.2880	94.2700
 1.2920	94.2100
 1.2960	94.2000
 1.3000	94.1300
 1.3040	94.1200
 1.3080	94.1100
 1.3120	94.1100
 1.3160	94.1000
 1.3200	94.0900
 1.3240	93.9600
 1.3280	93.9500
 1.3320	94.0100
 1.3360	93.9500
 1.3400	94.0000
 1.3440	93.8800
 1.3480	93.9200
 1.3520	93.9200
 1.3560	93.9900
 1.3600	93.9300
 1.3640	93.8100
 1.3680	93.8100
 1.3720	93.7500
 1.3760	93.6900
 1.3800	93.6900
 1.3840	93.8100
 1.3880	93.6300
 1.3920	93.6900
 1.3960	93.6300
 1.4000	93.6900
 1.4040	93.6400
 1.4080	93.7100
 1.4120	93.7100
 1.4160	93.6100
 1.4200	93.6200
 1.4240	93.5700
 1.4280	93.5800
 1.4320	93.5200
 1.4360	93.4700
 1.4400	93.5400
 1.4440	93.4900
 1.4480	93.5000
 1.4520	93.4400
 1.4560	93.3800
 1.4600	93.5000
 1.4640	93.4400
 1.4680	93.4400
 1.4720	93.4400
 1.4760	93.4400
 1.4800	93.5600
 1.4840	93.4400
 1.4880	93.5000
 1.4920	93.5000
 1.4960	93.5000
 1.5000	93.5000
 1.5040	93.5600
 1.5080	93.5600
 1.5120	93.5600
 1.5160	93.6200
 1.5200	93.5000
 1.5240	93.5600
 1.5280	93.5000
 1.5320	93.5600
 1.5360	93.5000
 1.5400	93.5000
 1.5440	93.5600
 1.5480	93.5000
 1.5520	93.5600
 1.5560	93.5000
 1.5600	93.5600
 1.5640	93.4400
 1.5680	93.4400
 1.5720	93.5000
 1.5760	93.5000
 1.5800	93.4400
 1.5840	93.5000
 1.5880	93.3900
 1.5920	93.4400
 1.5960	93.4400
 1.6000	93.4400
 1.6040	93.4300
 1.6080	93.3700
 1.6120	93.2500
 1.6160	93.3000
 1.6200	93.3400
 1.6240	93.3400
 1.6280	93.2700
 1.6320	93.2700
 1.6360	93.2600
 1.6400	93.2500
 1.6440	93.2900
 1.6480	93.2300
 1.6520	93.2800
 1.6560	93.2200
 1.6600	93.2600
 1.6640	93.2600
 1.6680	93.3000
 1.6720	93.2000
 1.6760	93.1900
 1.6800	93.2900
 1.6840	93.1700
 1.6880	93.1600
 1.6920	93.1000
 1.6960	93.1500
 1.7000	93.0800
 1.7040	93.0800
 1.7080	93.0800
 1.7120	93.0800
 1.7160	93.0800
 1.7200	92.9600
 1.7240	93.0200
 1.7280	92.9600
 1.7320	92.9100
 1.7360	92.9100
 1.7400	92.9700
 1.7440	92.8500
 1.7480	92.8500
 1.7520	92.7900
 1.7560	92.8500
 1.7600	92.9000
 1.7640	92.8500
 1.7680	92.7300
 1.7720	92.7900
 1.7760	92.7300
 1.7800	92.6800
 1.7840	92.6800
 1.7880	92.6200
 1.7920	92.6800
 1.7960	92.6200
 1.8000	92.6200
 1.8040	92.6000
 1.8080	92.5700
 1.8120	92.4700
 1.8160	92.5000
 1.8200	92.4700
 1.8240	92.3900
 1.8280	92.4800
 1.8320	92.4400
 1.8360	92.4600
 1.8400	92.3700
 1.8440	92.3500
 1.8480	92.3800
 1.8520	92.3700
 1.8560	92.3500
 1.8600	92.3500
 1.8640	92.2800
 1.8680	92.2000
 1.8720	92.2000
 1.8760	92.0900
 1.8800	92.0300
 1.8840	91.9600
 1.8880	91.8900
 1.8920	91.9000
 1.8960	91.8300
 1.9000	91.7600
 1.9040	91.6800
 1.9080	91.6800
 1.9120	91.6100
 1.9160	91.5800
 1.9200	91.5100
 1.9240	91.4400
 1.9280	91.4300
 1.9320	91.3700
 1.9360	91.3500
 1.9400	91.3500
 1.9440	91.3400
 1.9480	91.3300
 1.9520	91.3400
 1.9560	91.3100
 1.9600	91.2900
 1.9640	91.2700
 1.9680	91.3100
 1.9720	91.3500
 1.9760	91.4400
 1.9800	91.4200
 1.9840	91.4600
 1.9880	91.6100
 1.9920	91.5900
 1.9960	91.5800
 2.0000	91.7200
 2.0040	91.8200
 2.0080	91.8000
 2.0120	91.8000
 2.0160	91.8800
 2.0200	91.8400
 2.0240	91.8800
 2.0280	91.9800
 2.0320	91.9700
 2.0360	91.9300
 2.0400	92.0100
 2.0440	91.9900
 2.0480	92.0300
 2.0520	92.0300
 2.0560	92.0500
 2.0600	92.1200
 2.0640	92.0800
 2.0680	92.1000
 2.0720	92.0600
 2.0760	92.2000
 2.0800	92.1600
 2.0840	92.1200
 2.0880	92.1900
 2.0920	92.2100
 2.0960	92.3400
 2.1000	92.2500
 2.1040	92.3800
 2.1080	92.4500
 2.1120	92.5800
 2.1160	92.6100
 2.1200	92.6300
 2.1240	92.5600
 2.1280	92.6000
 2.1320	92.5200
 2.1360	92.4500
 2.1400	92.4000
 2.1440	92.3200
 2.1480	92.3600
 2.1520	92.1900
 2.1560	92.2000
 2.1600	92.1000
 2.1640	91.9900
 2.1680	91.9900
 2.1720	91.8800
 2.1760	91.8700
 2.1800	91.8200
 2.1840	91.7800
 2.1880	91.8100
 2.1920	91.6500
 2.1960	91.7200
 2.2000	91.6300
 2.2040	91.6300
 2.2080	91.5800
 2.2120	91.6000
 2.2160	91.5800
 2.2200	91.6200
 2.2240	91.6200
 2.2280	91.6200
 2.2320	91.6500
 2.2360	91.5500
 2.2400	91.5700
 2.2440	91.5700
 2.2480	91.5800
 2.2520	91.5700
 2.2560	91.5200
 2.2600	91.6000
 2.2640	91.4900
 2.2680	91.4900
 2.2720	91.5200
 2.2760	91.6000
 2.2800	91.6200
 2.2840	91.6300
 2.2880	91.5900
 2.2920	91.6400
 2.2960	91.5700
 2.3000	91.4900
 2.3040	91.4500
 2.3080	91.5300
 2.3120	91.6000
 2.3160	91.6300
 2.3200	91.7000
 2.3240	91.7400
 2.3280	91.7300
 2.3320	91.8300
 2.3360	91.7400
 2.3400	91.7800
 2.3440	91.7900
 2.3480	91.8100
 2.3520	91.7700
 2.3560	91.9000
 2.3600	91.8600
 2.3640	91.7600
 2.3680	91.8400
 2.3720	91.7600
 2.3760	91.7600
 2.3800	91.7600
 2.3840	91.7300
 2.3880	91.6900
 2.3920	91.6700
 2.3960	91.6700
 2.4000	91.5600
 2.4040	91.6600
 2.4080	91.6500
 2.4120	91.5400
 2.4160	91.6400
 2.4200	91.6900
 2.4240	91.5600
 2.4280	91.5500
 2.4320	91.6100
 2.4360	91.5000
 2.4400	91.5400
 2.4440	91.4700
 2.4480	91.4100
 2.4520	91.4100
 2.4560	91.4500
 2.4600	91.3900
 2.4640	91.3200
 2.4680	91.3100
 2.4720	91.3700
 2.4760	91.3600
 2.4800	91.4600
 2.4840	91.6700
 2.4880	91.6600
 2.4920	91.8800
 2.4960	91.9900
 2.5000	92.1400
