Name: Serpentine (Mg,Fe^2+,Ni)Si_2O_5(OH)_4
Type: Mineral
Class: Silicate
Subclass: Phyllosilicate
Particle Size: Fine
Sample No.: PS-20A
Owner: JPL
Wavelength Range: VSWIR
Origin: USA, New York.
Collection Date: N/A
Description: Particle size was 0-45um.Collected by:  Ward's Original ASTER Spectral Library name was jpl.perkin.mineral.silicate.phyllosilicate.fine.ps20a.spectrum.txt
Measurement: Hemispherical reflectance
First Column: X
Second Column: Y
X Units: Wavelength (micrometers)
Y Units:Reflectance (percent)
First X Value:  2.5000
Last X Value:  0.4000
Number of X Values: 2101
Additional Information: mineral.silicate.phyllosilicate.fine.vswir.ps-20a.jpl.perkin.ancillary.txt

 2.5000	37.8503
 2.4990	37.9698
 2.4980	38.0782
 2.4970	38.3588
 2.4960	38.2173
 2.4950	38.9852
 2.4940	38.8494
 2.4930	39.1660
 2.4920	39.0286
 2.4910	39.5592
 2.4900	39.6209
 2.4890	39.8843
 2.4880	40.0458
 2.4870	40.3958
 2.4860	40.3090
 2.4850	40.6222
 2.4840	40.5782
 2.4830	40.8685
 2.4820	40.9087
 2.4810	41.0636
 2.4800	41.0923
 2.4790	41.3283
 2.4780	41.3666
 2.4770	41.6421
 2.4760	41.8086
 2.4750	42.1036
 2.4740	42.1126
 2.4730	42.3249
 2.4720	42.5410
 2.4710	42.7797
 2.4700	43.1363
 2.4690	43.2704
 2.4680	43.6434
 2.4670	44.0040
 2.4660	44.0235
 2.4650	44.2785
 2.4640	44.4270
 2.4630	44.6058
 2.4620	44.6774
 2.4610	44.9817
 2.4600	45.0484
 2.4590	45.3672
 2.4580	45.2326
 2.4570	45.4389
 2.4560	45.4737
 2.4550	45.4987
 2.4540	45.5503
 2.4530	45.5309
 2.4520	45.3205
 2.4510	45.3862
 2.4500	45.3894
 2.4490	45.3050
 2.4480	45.2314
 2.4470	45.0897
 2.4460	44.9226
 2.4450	44.7835
 2.4440	44.4719
 2.4430	44.4772
 2.4420	44.1675
 2.4410	44.2195
 2.4400	44.0270
 2.4390	43.8826
 2.4380	43.6844
 2.4370	43.6070
 2.4360	43.5425
 2.4350	43.5155
 2.4340	43.4243
 2.4330	43.5029
 2.4320	43.4262
 2.4310	43.4692
 2.4300	43.5189
 2.4290	43.6097
 2.4280	43.6760
 2.4270	43.7332
 2.4260	43.7836
 2.4250	43.9826
 2.4240	44.0287
 2.4230	44.2940
 2.4220	44.3308
 2.4210	44.3759
 2.4200	44.5516
 2.4190	44.6644
 2.4180	44.8069
 2.4170	44.9761
 2.4160	44.9560
 2.4150	45.0698
 2.4140	45.0724
 2.4130	45.1084
 2.4120	45.1785
 2.4110	45.2745
 2.4100	45.2966
 2.4090	45.3870
 2.4080	45.3250
 2.4070	45.3031
 2.4060	45.2810
 2.4050	45.3736
 2.4040	45.3547
 2.4030	45.3929
 2.4020	45.4547
 2.4010	45.5449
 2.4000	45.5880
 2.3990	45.6196
 2.3980	45.5738
 2.3970	45.7097
 2.3960	45.8089
 2.3950	45.8718
 2.3940	45.9277
 2.3930	46.0349
 2.3920	46.1855
 2.3910	46.3004
 2.3900	46.3133
 2.3890	46.4854
 2.3880	46.5480
 2.3870	46.7568
 2.3860	46.8997
 2.3850	46.9625
 2.3840	47.0637
 2.3830	47.2362
 2.3820	47.3010
 2.3810	47.4507
 2.3800	47.5740
 2.3790	47.6908
 2.3780	47.8159
 2.3770	47.9064
 2.3760	47.9662
 2.3750	48.0999
 2.3740	48.2011
 2.3730	48.3718
 2.3720	48.5245
 2.3710	48.6691
 2.3700	48.7353
 2.3690	48.8945
 2.3680	49.0945
 2.3670	49.2939
 2.3660	49.3815
 2.3650	49.5664
 2.3640	49.7844
 2.3630	49.8931
 2.3620	49.9820
 2.3610	50.1184
 2.3600	50.2085
 2.3590	50.2158
 2.3580	50.2175
 2.3570	50.1980
 2.3560	50.1161
 2.3550	50.0271
 2.3540	49.9156
 2.3530	49.6743
 2.3520	49.3365
 2.3510	48.9550
 2.3500	48.5785
 2.3490	48.1478
 2.3480	47.6529
 2.3470	47.1154
 2.3460	46.4615
 2.3450	45.8008
 2.3440	45.2169
 2.3430	44.6440
 2.3420	44.0434
 2.3410	43.4404
 2.3400	42.8803
 2.3390	42.3144
 2.3380	41.7989
 2.3370	41.3212
 2.3360	40.9141
 2.3350	40.5417
 2.3340	40.2634
 2.3330	39.9937
 2.3320	39.7773
 2.3310	39.6011
 2.3300	39.4721
 2.3290	39.4036
 2.3280	39.4656
 2.3270	39.4797
 2.3260	39.5424
 2.3250	39.6324
 2.3240	39.7766
 2.3230	39.8825
 2.3220	40.1114
 2.3210	40.3111
 2.3200	40.5904
 2.3190	40.8372
 2.3180	41.1561
 2.3170	41.3888
 2.3160	41.7670
 2.3150	42.0937
 2.3140	42.4459
 2.3130	42.7952
 2.3120	43.2287
 2.3110	43.6275
 2.3100	44.0981
 2.3090	44.4718
 2.3080	44.8856
 2.3070	45.3099
 2.3060	45.7842
 2.3050	46.1515
 2.3040	46.6007
 2.3030	46.8911
 2.3020	47.2563
 2.3010	47.5879
 2.3000	47.8300
 2.2990	48.1208
 2.2980	48.4198
 2.2970	48.6828
 2.2960	48.9308
 2.2950	49.1994
 2.2940	49.4466
 2.2930	49.5290
 2.2920	49.7949
 2.2910	50.0410
 2.2900	50.1323
 2.2890	50.2799
 2.2880	50.4027
 2.2870	50.4733
 2.2860	50.6044
 2.2850	50.6210
 2.2840	50.7393
 2.2830	50.7113
 2.2820	50.7604
 2.2810	50.7620
 2.2800	50.7726
 2.2790	50.7058
 2.2780	50.6762
 2.2770	50.5782
 2.2760	50.5780
 2.2750	50.6194
 2.2740	50.6180
 2.2730	50.6681
 2.2720	50.7345
 2.2710	50.8052
 2.2700	50.9579
 2.2690	51.0255
 2.2680	51.2500
 2.2670	51.4527
 2.2660	51.7576
 2.2650	52.1658
 2.2640	52.4911
 2.2630	52.7268
 2.2620	53.1816
 2.2610	53.4434
 2.2600	53.9698
 2.2590	54.2105
 2.2580	54.5379
 2.2570	54.8543
 2.2560	55.0594
 2.2550	55.2554
 2.2540	55.4058
 2.2530	55.5655
 2.2520	55.6854
 2.2510	55.6933
 2.2500	55.8642
 2.2490	55.8223
 2.2480	55.8599
 2.2470	55.8762
 2.2460	56.0615
 2.2450	56.0768
 2.2440	56.2294
 2.2430	56.3814
 2.2420	56.5634
 2.2410	56.5749
 2.2400	56.8277
 2.2390	57.0796
 2.2380	57.3269
 2.2370	57.5625
 2.2360	57.8465
 2.2350	58.0964
 2.2340	58.5151
 2.2330	58.6808
 2.2320	59.1595
 2.2310	59.3822
 2.2300	59.8423
 2.2290	60.0549
 2.2280	60.4632
 2.2270	60.6472
 2.2260	61.0075
 2.2250	61.2144
 2.2240	61.6153
 2.2230	61.6240
 2.2220	61.9624
 2.2210	62.0593
 2.2200	62.3848
 2.2190	62.3571
 2.2180	62.6877
 2.2170	62.7294
 2.2160	62.8652
 2.2150	62.9707
 2.2140	63.0841
 2.2130	63.1819
 2.2120	63.3372
 2.2110	63.2717
 2.2100	63.4945
 2.2090	63.4631
 2.2080	63.6097
 2.2070	63.4798
 2.2060	63.6689
 2.2050	63.7063
 2.2040	63.8708
 2.2030	63.8152
 2.2020	63.9570
 2.2010	63.9336
 2.2000	63.9900
 2.1990	63.8365
 2.1980	64.0472
 2.1970	64.0838
 2.1960	64.0746
 2.1950	64.1073
 2.1940	64.1512
 2.1930	64.1375
 2.1920	64.2610
 2.1910	64.1917
 2.1900	64.2446
 2.1890	64.2617
 2.1880	64.3422
 2.1870	64.3252
 2.1860	64.3121
 2.1850	64.3957
 2.1840	64.4034
 2.1830	64.4397
 2.1820	64.4115
 2.1810	64.3703
 2.1800	64.4958
 2.1790	64.4037
 2.1780	64.4383
 2.1770	64.4703
 2.1760	64.5650
 2.1750	64.4910
 2.1740	64.5234
 2.1730	64.5447
 2.1720	64.4806
 2.1710	64.4754
 2.1700	64.5572
 2.1690	64.5526
 2.1680	64.6018
 2.1670	64.5496
 2.1660	64.5697
 2.1650	64.5194
 2.1640	64.5609
 2.1630	64.6256
 2.1620	64.6213
 2.1610	64.5078
 2.1600	64.4769
 2.1590	64.4752
 2.1580	64.4185
 2.1570	64.3253
 2.1560	64.3687
 2.1550	64.2472
 2.1540	64.1613
 2.1530	64.1064
 2.1520	63.9476
 2.1510	63.8655
 2.1500	63.7964
 2.1490	63.6079
 2.1480	63.6030
 2.1470	63.4371
 2.1460	63.2987
 2.1450	63.1282
 2.1440	62.9979
 2.1430	62.8761
 2.1420	62.6701
 2.1410	62.5207
 2.1400	62.4247
 2.1390	62.1537
 2.1380	62.0416
 2.1370	61.8875
 2.1360	61.7100
 2.1350	61.5189
 2.1340	61.4064
 2.1330	61.3076
 2.1320	61.2796
 2.1310	61.2263
 2.1300	61.1274
 2.1290	61.1455
 2.1280	61.2149
 2.1270	61.1374
 2.1260	61.2603
 2.1250	61.3152
 2.1240	61.3542
 2.1230	61.4301
 2.1220	61.4166
 2.1210	61.5085
 2.1200	61.4458
 2.1190	61.3341
 2.1180	61.2657
 2.1170	61.2143
 2.1160	61.1909
 2.1150	61.0981
 2.1140	61.0619
 2.1130	61.0347
 2.1120	60.9881
 2.1110	60.9568
 2.1100	60.9851
 2.1090	60.9958
 2.1080	60.9791
 2.1070	61.0196
 2.1060	61.0642
 2.1050	61.0933
 2.1040	61.1417
 2.1030	61.1156
 2.1020	61.1419
 2.1010	61.2105
 2.1000	61.1581
 2.0990	61.1448
 2.0980	61.1770
 2.0970	61.1678
 2.0960	61.2261
 2.0950	61.2201
 2.0940	61.2681
 2.0930	61.4195
 2.0920	61.5337
 2.0910	61.5602
 2.0900	61.6565
 2.0890	61.7926
 2.0880	61.9587
 2.0870	62.1406
 2.0860	62.2646
 2.0850	62.3567
 2.0840	62.4905
 2.0830	62.5989
 2.0820	62.7573
 2.0810	62.8956
 2.0800	62.9894
 2.0790	63.0658
 2.0780	63.1654
 2.0770	63.2870
 2.0760	63.3731
 2.0750	63.4750
 2.0740	63.6228
 2.0730	63.6817
 2.0720	63.7531
 2.0710	63.8308
 2.0700	63.8412
 2.0690	63.8824
 2.0680	63.9115
 2.0670	63.8719
 2.0660	63.8433
 2.0650	63.8350
 2.0640	63.8605
 2.0630	63.8381
 2.0620	63.8013
 2.0610	63.7305
 2.0600	63.6604
 2.0590	63.6403
 2.0580	63.5119
 2.0570	63.4601
 2.0560	63.4308
 2.0550	63.3164
 2.0540	63.1688
 2.0530	63.0733
 2.0520	63.0203
 2.0510	62.8977
 2.0500	62.7125
 2.0490	62.6159
 2.0480	62.5621
 2.0470	62.4669
 2.0460	62.3832
 2.0450	62.2753
 2.0440	62.2229
 2.0430	62.1765
 2.0420	62.0758
 2.0410	62.0383
 2.0400	61.9497
 2.0390	61.8675
 2.0380	61.8106
 2.0370	61.7832
 2.0360	61.7152
 2.0350	61.6825
 2.0340	61.6493
 2.0330	61.6203
 2.0320	61.5520
 2.0310	61.5123
 2.0300	61.4510
 2.0290	61.4981
 2.0280	61.5072
 2.0270	61.4727
 2.0260	61.4453
 2.0250	61.4660
 2.0240	61.4029
 2.0230	61.4193
 2.0220	61.3533
 2.0210	61.2983
 2.0200	61.3007
 2.0190	61.2635
 2.0180	61.2502
 2.0170	61.1840
 2.0160	61.1130
 2.0150	61.1084
 2.0140	61.0545
 2.0130	60.9742
 2.0120	60.8566
 2.0110	60.8622
 2.0100	60.7992
 2.0090	60.8075
 2.0080	60.6840
 2.0070	60.6074
 2.0060	60.4743
 2.0050	60.4302
 2.0040	60.2994
 2.0030	60.2075
 2.0020	60.0197
 2.0010	60.0251
 2.0000	59.8536
 1.9990	59.7329
 1.9980	59.6883
 1.9970	59.6122
 1.9960	59.5116
 1.9950	59.4822
 1.9940	59.4304
 1.9930	59.4117
 1.9920	59.3022
 1.9910	59.2905
 1.9900	59.1791
 1.9890	59.1686
 1.9880	59.0683
 1.9870	59.0336
 1.9860	58.9568
 1.9850	58.9479
 1.9840	58.8244
 1.9830	58.9261
 1.9820	58.8934
 1.9810	58.8598
 1.9800	58.7914
 1.9790	58.7607
 1.9780	58.6986
 1.9770	58.8140
 1.9760	58.7247
 1.9750	58.8069
 1.9740	58.7607
 1.9730	58.8169
 1.9720	58.6979
 1.9710	58.8063
 1.9700	58.7110
 1.9690	58.8178
 1.9680	58.7631
 1.9670	58.7997
 1.9660	58.8001
 1.9650	58.8244
 1.9640	58.8136
 1.9630	58.9318
 1.9620	58.8302
 1.9610	58.8328
 1.9600	58.9071
 1.9590	58.9356
 1.9580	58.9244
 1.9570	59.0257
 1.9560	58.9179
 1.9550	58.9664
 1.9540	58.9185
 1.9530	59.0864
 1.9520	58.9304
 1.9510	58.9406
 1.9500	59.0449
 1.9490	59.0600
 1.9480	58.4706
 1.9470	59.0217
 1.9460	59.0297
 1.9450	59.0626
 1.9440	59.0548
 1.9430	59.0011
 1.9420	58.9799
 1.9410	58.9594
 1.9400	58.9623
 1.9390	59.0618
 1.9380	58.8805
 1.9370	58.9444
 1.9360	58.9224
 1.9350	58.9450
 1.9340	58.8659
 1.9330	58.8964
 1.9320	58.8192
 1.9310	58.8794
 1.9300	58.6698
 1.9290	58.8178
 1.9280	58.8762
 1.9270	58.8149
 1.9260	58.6218
 1.9250	58.7858
 1.9240	58.6446
 1.9230	58.7367
 1.9220	58.7604
 1.9210	58.8163
 1.9200	58.7074
 1.9190	58.8187
 1.9180	58.7385
 1.9170	58.8539
 1.9160	58.8782
 1.9150	59.0620
 1.9140	59.0418
 1.9130	59.1734
 1.9120	59.3721
 1.9110	59.4440
 1.9100	59.5483
 1.9090	59.7839
 1.9080	59.9216
 1.9070	60.1917
 1.9060	60.3422
 1.9050	60.6530
 1.9040	60.9464
 1.9030	61.1517
 1.9020	61.4200
 1.9010	61.7316
 1.9000	61.9457
 1.8990	62.2602
 1.8980	62.4713
 1.8970	62.7544
 1.8960	63.0152
 1.8950	63.2965
 1.8940	63.5177
 1.8930	63.7795
 1.8920	63.9560
 1.8910	64.2534
 1.8900	64.3738
 1.8890	64.6278
 1.8880	64.8503
 1.8870	65.0676
 1.8860	65.1523
 1.8850	65.3440
 1.8840	65.4328
 1.8830	65.6140
 1.8820	65.7814
 1.8810	65.9382
 1.8800	66.0153
 1.8790	66.1976
 1.8780	66.2547
 1.8770	66.4065
 1.8760	66.4962
 1.8750	66.6703
 1.8740	66.7724
 1.8730	66.9220
 1.8720	67.0143
 1.8710	67.1635
 1.8700	67.2445
 1.8690	67.3157
 1.8680	67.3853
 1.8670	67.4891
 1.8660	67.4483
 1.8650	67.5653
 1.8640	67.6311
 1.8630	67.7417
 1.8620	67.6199
 1.8610	67.7610
 1.8600	67.7536
 1.8590	67.7863
 1.8580	67.8040
 1.8570	67.8574
 1.8560	67.8549
 1.8550	67.8366
 1.8540	67.9047
 1.8530	67.9591
 1.8520	68.0120
 1.8510	68.0696
 1.8500	68.0801
 1.8490	68.0891
 1.8480	68.1148
 1.8470	68.1857
 1.8460	68.2037
 1.8450	68.1728
 1.8440	68.1825
 1.8430	68.2783
 1.8420	68.3331
 1.8410	68.3976
 1.8400	68.3340
 1.8390	68.3301
 1.8380	68.3209
 1.8370	68.3660
 1.8360	68.3540
 1.8350	68.2878
 1.8340	68.3735
 1.8330	68.3898
 1.8320	68.4359
 1.8310	68.4464
 1.8300	68.4609
 1.8290	68.4373
 1.8280	68.3790
 1.8270	68.3726
 1.8260	68.3995
 1.8250	68.3765
 1.8240	68.2932
 1.8230	68.3830
 1.8220	68.4173
 1.8210	68.3574
 1.8200	68.3063
 1.8190	68.2878
 1.8180	68.2710
 1.8170	68.3059
 1.8160	68.3167
 1.8150	68.3363
 1.8140	68.2751
 1.8130	68.3064
 1.8120	68.3805
 1.8110	68.3788
 1.8100	68.3674
 1.8090	68.4288
 1.8080	68.4326
 1.8070	68.4514
 1.8060	68.4727
 1.8050	68.4918
 1.8040	68.5609
 1.8030	68.6302
 1.8020	68.6568
 1.8010	68.6066
 1.8000	68.6486
 1.7990	68.6742
 1.7980	68.6458
 1.7970	68.6910
 1.7960	68.7229
 1.7950	68.7057
 1.7940	68.7124
 1.7930	68.6851
 1.7920	68.6997
 1.7910	68.7069
 1.7900	68.7389
 1.7890	68.8206
 1.7880	68.7777
 1.7870	68.7112
 1.7860	68.7327
 1.7850	68.7669
 1.7840	68.7827
 1.7830	68.7469
 1.7820	68.7286
 1.7810	68.7410
 1.7800	68.7621
 1.7790	68.7863
 1.7780	68.7220
 1.7770	68.6955
 1.7760	68.7695
 1.7750	68.7945
 1.7740	68.7823
 1.7730	68.7878
 1.7720	68.8321
 1.7710	68.8532
 1.7700	68.8556
 1.7690	68.8229
 1.7680	68.8317
 1.7670	68.8698
 1.7660	68.9095
 1.7650	68.8841
 1.7640	68.9204
 1.7630	68.9015
 1.7620	68.9352
 1.7610	68.9325
 1.7600	68.9088
 1.7590	68.9262
 1.7580	68.9656
 1.7570	68.9549
 1.7560	68.9593
 1.7550	68.9833
 1.7540	69.0785
 1.7530	69.0649
 1.7520	69.0527
 1.7510	69.0770
 1.7500	69.1045
 1.7490	69.0715
 1.7480	69.0463
 1.7470	69.1646
 1.7460	69.1756
 1.7450	69.1476
 1.7440	69.2152
 1.7430	69.2027
 1.7420	69.2031
 1.7410	69.2150
 1.7400	69.2774
 1.7390	69.2593
 1.7380	69.2502
 1.7370	69.2223
 1.7360	69.3134
 1.7350	69.3832
 1.7340	69.2880
 1.7330	69.2964
 1.7320	69.3069
 1.7310	69.2553
 1.7300	69.3692
 1.7290	69.4088
 1.7280	69.4027
 1.7270	69.4097
 1.7260	69.4046
 1.7250	69.3735
 1.7240	69.4049
 1.7230	69.3706
 1.7220	69.4096
 1.7210	69.3689
 1.7200	69.4171
 1.7190	69.4306
 1.7180	69.4574
 1.7170	69.4472
 1.7160	69.4448
 1.7150	69.4081
 1.7140	69.5148
 1.7130	69.5248
 1.7120	69.4977
 1.7110	69.5127
 1.7100	69.5140
 1.7090	69.5377
 1.7080	69.5291
 1.7070	69.5460
 1.7060	69.5520
 1.7050	69.5289
 1.7040	69.5656
 1.7030	69.4973
 1.7020	69.5355
 1.7010	69.5232
 1.7000	69.5186
 1.6990	69.5295
 1.6980	69.5663
 1.6970	69.4893
 1.6960	69.5565
 1.6950	69.5871
 1.6940	69.5909
 1.6930	69.5215
 1.6920	69.5802
 1.6910	69.6455
 1.6900	69.6597
 1.6890	69.5462
 1.6880	69.5340
 1.6870	69.5291
 1.6860	69.5752
 1.6850	69.5391
 1.6840	69.5726
 1.6830	69.5023
 1.6820	69.6170
 1.6810	69.5198
 1.6800	69.6107
 1.6790	69.5684
 1.6780	69.6965
 1.6770	69.5249
 1.6760	69.5651
 1.6750	69.5182
 1.6740	69.5507
 1.6730	69.4829
 1.6720	69.5616
 1.6710	69.5334
 1.6700	69.6052
 1.6690	69.5926
 1.6680	69.5127
 1.6670	69.6333
 1.6660	69.5627
 1.6650	69.6075
 1.6640	69.5989
 1.6630	69.5829
 1.6620	69.6100
 1.6610	69.6692
 1.6600	69.5836
 1.6590	69.6709
 1.6580	69.7453
 1.6570	69.5674
 1.6560	69.6348
 1.6550	69.6082
 1.6540	69.6986
 1.6530	69.5949
 1.6520	69.6720
 1.6510	69.5589
 1.6500	69.6017
 1.6490	69.5513
 1.6480	69.6310
 1.6470	69.5846
 1.6460	69.5110
 1.6450	69.6267
 1.6440	69.7053
 1.6430	69.6192
 1.6420	69.5638
 1.6410	69.5395
 1.6400	69.7007
 1.6390	69.5392
 1.6380	69.5958
 1.6370	69.5528
 1.6360	69.6800
 1.6350	69.5366
 1.6340	69.5627
 1.6330	69.5668
 1.6320	69.6225
 1.6310	69.5108
 1.6300	69.5668
 1.6290	69.6061
 1.6280	69.5920
 1.6270	69.6349
 1.6260	69.5632
 1.6250	69.5438
 1.6240	69.5599
 1.6230	69.6183
 1.6220	69.5755
 1.6210	69.5297
 1.6200	69.6046
 1.6190	69.4707
 1.6180	69.5795
 1.6170	69.5056
 1.6160	69.6276
 1.6150	69.4662
 1.6140	69.4843
 1.6130	69.4320
 1.6120	69.5260
 1.6110	69.4805
 1.6100	69.5329
 1.6090	69.5186
 1.6080	69.6453
 1.6070	69.5388
 1.6060	69.5741
 1.6050	69.4658
 1.6040	69.5061
 1.6030	69.5292
 1.6020	69.5146
 1.6010	69.4789
 1.6000	69.5014
 1.5990	69.4697
 1.5980	69.4278
 1.5970	69.4453
 1.5960	69.5297
 1.5950	69.3956
 1.5940	69.4281
 1.5930	69.4037
 1.5920	69.3976
 1.5910	69.3717
 1.5900	69.5431
 1.5890	69.3659
 1.5880	69.4715
 1.5870	69.4273
 1.5860	69.4450
 1.5850	69.3883
 1.5840	69.3718
 1.5830	69.2947
 1.5820	69.3055
 1.5810	69.3182
 1.5800	69.2814
 1.5790	69.2777
 1.5780	69.2709
 1.5770	69.2553
 1.5760	69.2865
 1.5750	69.3273
 1.5740	69.3125
 1.5730	69.2104
 1.5720	69.3221
 1.5710	69.2372
 1.5700	69.2304
 1.5690	69.2150
 1.5680	69.2271
 1.5670	69.2093
 1.5660	69.1908
 1.5650	69.1980
 1.5640	69.2333
 1.5630	69.1853
 1.5620	69.1286
 1.5610	69.1824
 1.5600	69.1775
 1.5590	69.1301
 1.5580	69.1321
 1.5570	69.0928
 1.5560	69.0530
 1.5550	69.0558
 1.5540	69.0622
 1.5530	69.0449
 1.5520	69.0559
 1.5510	69.0730
 1.5500	69.0738
 1.5490	69.0576
 1.5480	68.9486
 1.5470	68.9607
 1.5460	69.0309
 1.5450	68.9456
 1.5440	68.9648
 1.5430	69.0098
 1.5420	68.9434
 1.5410	68.8592
 1.5400	68.8262
 1.5390	68.8881
 1.5380	68.8633
 1.5370	68.7895
 1.5360	68.7842
 1.5350	68.7707
 1.5340	68.7888
 1.5330	68.7111
 1.5320	68.6949
 1.5310	68.7029
 1.5300	68.7593
 1.5290	68.6827
 1.5280	68.6556
 1.5270	68.5840
 1.5260	68.5704
 1.5250	68.5918
 1.5240	68.5681
 1.5230	68.5882
 1.5220	68.6066
 1.5210	68.5605
 1.5200	68.5291
 1.5190	68.5553
 1.5180	68.5412
 1.5170	68.5236
 1.5160	68.5104
 1.5150	68.4596
 1.5140	68.4365
 1.5130	68.4071
 1.5120	68.3945
 1.5110	68.3929
 1.5100	68.3533
 1.5090	68.2983
 1.5080	68.2815
 1.5070	68.2740
 1.5060	68.2507
 1.5050	68.2943
 1.5040	68.3016
 1.5030	68.2475
 1.5020	68.2365
 1.5010	68.2073
 1.5000	68.1688
 1.4990	68.1074
 1.4980	68.0402
 1.4970	68.0257
 1.4960	68.1044
 1.4950	68.0828
 1.4940	68.0501
 1.4930	68.0352
 1.4920	68.0209
 1.4910	67.9978
 1.4900	67.9729
 1.4890	67.9369
 1.4880	67.9286
 1.4870	67.9675
 1.4860	67.8786
 1.4850	67.8290
 1.4840	67.8383
 1.4830	67.7929
 1.4820	67.7488
 1.4810	67.7830
 1.4800	67.7447
 1.4790	67.7204
 1.4780	67.6492
 1.4770	67.5763
 1.4760	67.5899
 1.4750	67.5979
 1.4740	67.5831
 1.4730	67.5330
 1.4720	67.4724
 1.4710	67.4732
 1.4700	67.4184
 1.4690	67.3688
 1.4680	67.3146
 1.4670	67.3841
 1.4660	67.3424
 1.4650	67.3137
 1.4640	67.3506
 1.4630	67.3324
 1.4620	67.2482
 1.4610	67.2434
 1.4600	67.2256
 1.4590	67.2461
 1.4580	67.1332
 1.4570	67.1267
 1.4560	67.1167
 1.4550	67.1158
 1.4540	67.0762
 1.4530	67.1061
 1.4520	67.0771
 1.4510	67.0785
 1.4500	67.0091
 1.4490	67.0007
 1.4480	66.9181
 1.4470	66.8805
 1.4460	66.8764
 1.4450	66.8496
 1.4440	66.8180
 1.4430	66.8220
 1.4420	66.8384
 1.4410	66.8271
 1.4400	66.7303
 1.4390	66.7247
 1.4380	66.6605
 1.4370	66.6107
 1.4360	66.5749
 1.4350	66.5626
 1.4340	66.4937
 1.4330	66.4709
 1.4320	66.4064
 1.4310	66.3701
 1.4300	66.2560
 1.4290	66.1877
 1.4280	66.2419
 1.4270	66.1723
 1.4260	66.1198
 1.4250	66.0901
 1.4240	65.9758
 1.4230	65.9948
 1.4220	65.9174
 1.4210	65.9313
 1.4200	65.8817
 1.4190	65.8917
 1.4180	65.6974
 1.4170	65.6951
 1.4160	65.6691
 1.4150	65.4887
 1.4140	65.3674
 1.4130	65.1768
 1.4120	64.9962
 1.4110	64.7280
 1.4100	64.4273
 1.4090	63.9873
 1.4080	63.5286
 1.4070	63.1708
 1.4060	62.7235
 1.4050	62.3371
 1.4040	61.8449
 1.4030	61.3729
 1.4020	60.7172
 1.4010	59.9348
 1.4000	58.8663
 1.3990	57.4381
 1.3980	55.4990
 1.3970	53.1730
 1.3960	50.8397
 1.3950	49.3528
 1.3940	49.0162
 1.3930	49.6031
 1.3920	50.6065
 1.3910	51.3976
 1.3900	51.7610
 1.3890	52.0184
 1.3880	52.1813
 1.3870	52.5995
 1.3860	52.8520
 1.3850	52.5335
 1.3840	51.6018
 1.3830	51.1166
 1.3820	51.9169
 1.3810	54.2209
 1.3800	57.4526
 1.3790	61.0031
 1.3780	63.5414
 1.3770	65.0649
 1.3760	65.6745
 1.3750	66.0035
 1.3740	66.1148
 1.3730	66.3963
 1.3720	66.5118
 1.3710	66.6371
 1.3700	66.5614
 1.3690	66.5909
 1.3680	66.6027
 1.3670	66.3403
 1.3660	66.2779
 1.3650	65.9436
 1.3640	65.6887
 1.3630	65.4345
 1.3620	65.1524
 1.3610	65.0114
 1.3600	64.9803
 1.3590	64.9843
 1.3580	64.9942
 1.3570	65.0583
 1.3560	65.1817
 1.3550	65.2774
 1.3540	65.7853
 1.3530	66.0893
 1.3520	66.5490
 1.3510	66.9257
 1.3500	67.1358
 1.3490	67.3843
 1.3480	67.4153
 1.3470	67.4605
 1.3460	67.4747
 1.3450	67.5039
 1.3440	67.4846
 1.3430	67.5794
 1.3420	67.4793
 1.3410	67.6324
 1.3400	67.5446
 1.3390	67.5563
 1.3380	67.5006
 1.3370	67.5436
 1.3360	67.5046
 1.3350	67.6207
 1.3340	67.5308
 1.3330	67.5271
 1.3320	67.4840
 1.3310	67.5803
 1.3300	67.5404
 1.3290	67.5220
 1.3280	67.4850
 1.3270	67.4905
 1.3260	67.4319
 1.3250	67.5519
 1.3240	67.4167
 1.3230	67.4399
 1.3220	67.4610
 1.3210	67.5402
 1.3200	67.5139
 1.3190	67.4143
 1.3180	67.3568
 1.3170	67.3914
 1.3160	67.3640
 1.3150	67.3470
 1.3140	67.3101
 1.3130	67.2860
 1.3120	67.2708
 1.3110	67.2960
 1.3100	67.2648
 1.3090	67.2858
 1.3080	67.1678
 1.3070	67.1429
 1.3060	67.1243
 1.3050	67.0306
 1.3040	67.1590
 1.3030	67.1349
 1.3020	67.1275
 1.3010	67.1173
 1.3000	67.0760
 1.2990	67.0650
 1.2980	66.9525
 1.2970	66.9447
 1.2960	66.9210
 1.2950	66.9019
 1.2940	66.7711
 1.2930	66.7804
 1.2920	66.7348
 1.2910	66.6912
 1.2900	66.4791
 1.2890	66.3433
 1.2880	66.2317
 1.2870	66.0226
 1.2860	65.8829
 1.2850	66.0302
 1.2840	66.0908
 1.2830	66.1975
 1.2820	66.3002
 1.2810	66.3119
 1.2800	66.3022
 1.2790	66.3313
 1.2780	66.3055
 1.2770	66.3180
 1.2760	66.3866
 1.2750	66.3948
 1.2740	66.4252
 1.2730	66.5262
 1.2720	66.5245
 1.2710	66.5252
 1.2700	66.5141
 1.2690	66.5994
 1.2680	66.5236
 1.2670	66.4613
 1.2660	66.4019
 1.2650	66.4173
 1.2640	66.3983
 1.2630	66.4711
 1.2620	66.4427
 1.2610	66.4309
 1.2600	66.4693
 1.2590	66.4974
 1.2580	66.4656
 1.2570	66.5881
 1.2560	66.5530
 1.2550	66.5330
 1.2540	66.5253
 1.2530	66.5430
 1.2520	66.5061
 1.2510	66.5577
 1.2500	66.5567
 1.2490	66.5416
 1.2480	66.5191
 1.2470	66.5391
 1.2460	66.4688
 1.2450	66.4269
 1.2440	66.4158
 1.2430	66.4336
 1.2420	66.4206
 1.2410	66.3882
 1.2400	66.3909
 1.2390	66.3424
 1.2380	66.3978
 1.2370	66.4137
 1.2360	66.3612
 1.2350	66.3277
 1.2340	66.2719
 1.2330	66.2465
 1.2320	66.2595
 1.2310	66.2411
 1.2300	66.2584
 1.2290	66.2766
 1.2280	66.2626
 1.2270	66.1915
 1.2260	66.1373
 1.2250	66.1467
 1.2240	66.1099
 1.2230	66.0425
 1.2220	66.0317
 1.2210	66.1020
 1.2200	66.1483
 1.2190	66.0717
 1.2180	66.0394
 1.2170	66.0621
 1.2160	66.0377
 1.2150	66.0249
 1.2140	65.9950
 1.2130	66.0135
 1.2120	66.0111
 1.2110	65.9151
 1.2100	65.8645
 1.2090	65.8749
 1.2080	65.9014
 1.2070	65.9127
 1.2060	65.8622
 1.2050	65.8537
 1.2040	65.8411
 1.2030	65.7806
 1.2020	65.7577
 1.2010	65.7259
 1.2000	65.6990
 1.1990	65.6986
 1.1980	65.6994
 1.1970	65.6089
 1.1960	65.6166
 1.1950	65.6148
 1.1940	65.5823
 1.1930	65.5646
 1.1920	65.5615
 1.1910	65.5174
 1.1900	65.4891
 1.1890	65.5062
 1.1880	65.4978
 1.1870	65.4935
 1.1860	65.5286
 1.1850	65.4723
 1.1840	65.4954
 1.1830	65.4901
 1.1820	65.4495
 1.1810	65.4089
 1.1800	65.3746
 1.1790	65.3109
 1.1780	65.3333
 1.1770	65.3530
 1.1760	65.3099
 1.1750	65.2223
 1.1740	65.2733
 1.1730	65.2485
 1.1720	65.2176
 1.1710	65.2388
 1.1700	65.2761
 1.1690	65.1775
 1.1680	65.2272
 1.1670	65.1540
 1.1660	65.1937
 1.1650	65.1338
 1.1640	65.1075
 1.1630	65.1566
 1.1620	65.1548
 1.1610	65.1582
 1.1600	65.1499
 1.1590	65.1225
 1.1580	65.0896
 1.1570	65.0438
 1.1560	65.0607
 1.1550	65.0933
 1.1540	65.0086
 1.1530	65.0385
 1.1520	65.0465
 1.1510	65.0137
 1.1500	65.0049
 1.1490	64.9998
 1.1480	64.9811
 1.1470	64.9355
 1.1460	64.9466
 1.1450	64.9155
 1.1440	64.9653
 1.1430	64.8696
 1.1420	64.9041
 1.1410	64.9221
 1.1400	64.8778
 1.1390	64.9080
 1.1380	64.8683
 1.1370	64.8132
 1.1360	64.7481
 1.1350	64.7367
 1.1340	64.8042
 1.1330	64.7499
 1.1320	64.8163
 1.1310	64.7366
 1.1300	64.7535
 1.1290	64.7497
 1.1280	64.7480
 1.1270	64.7228
 1.1260	64.6947
 1.1250	64.6899
 1.1240	64.7498
 1.1230	64.6531
 1.1220	64.7154
 1.1210	64.6912
 1.1200	64.6576
 1.1190	64.6431
 1.1180	64.6489
 1.1170	64.5738
 1.1160	64.5775
 1.1150	64.5987
 1.1140	64.6591
 1.1130	64.5867
 1.1120	64.5543
 1.1110	64.4975
 1.1100	64.5136
 1.1090	64.5210
 1.1080	64.4995
 1.1070	64.5072
 1.1060	64.4879
 1.1050	64.5145
 1.1040	64.5642
 1.1030	64.3600
 1.1020	64.4696
 1.1010	64.4315
 1.1000	64.4970
 1.0990	64.4490
 1.0980	64.4161
 1.0970	64.3975
 1.0960	64.4824
 1.0950	64.3669
 1.0940	64.4203
 1.0930	64.3347
 1.0920	64.3873
 1.0910	64.2610
 1.0900	64.3035
 1.0890	64.3490
 1.0880	64.2630
 1.0870	64.3463
 1.0860	64.2792
 1.0850	64.2852
 1.0840	64.2903
 1.0830	64.2142
 1.0820	64.2938
 1.0810	64.1914
 1.0800	64.2958
 1.0790	64.2579
 1.0780	64.1688
 1.0770	64.1494
 1.0760	64.1236
 1.0750	64.1711
 1.0740	64.1831
 1.0730	64.1007
 1.0720	64.0994
 1.0710	64.2124
 1.0700	64.0267
 1.0690	64.1285
 1.0680	64.0345
 1.0670	64.0829
 1.0660	64.1337
 1.0650	63.9825
 1.0640	63.9699
 1.0630	64.0176
 1.0620	64.0122
 1.0610	63.9935
 1.0600	64.0386
 1.0590	63.9473
 1.0580	64.0333
 1.0570	63.9402
 1.0560	63.9399
 1.0550	63.9223
 1.0540	64.0428
 1.0530	63.9535
 1.0520	63.8915
 1.0510	63.8291
 1.0500	63.9482
 1.0490	63.8095
 1.0480	63.9588
 1.0470	63.8103
 1.0460	63.8041
 1.0450	63.8377
 1.0440	63.9139
 1.0430	63.8220
 1.0420	63.8396
 1.0410	63.8399
 1.0400	63.8313
 1.0390	63.7607
 1.0380	63.8602
 1.0370	63.7345
 1.0360	63.8361
 1.0350	63.7644
 1.0340	63.7633
 1.0330	63.7998
 1.0320	63.8956
 1.0310	63.7936
 1.0300	63.7633
 1.0290	63.7164
 1.0280	63.6393
 1.0270	63.6850
 1.0260	63.7688
 1.0250	63.6406
 1.0240	63.6749
 1.0230	63.6471
 1.0220	63.6759
 1.0210	63.6409
 1.0200	63.5801
 1.0190	63.6596
 1.0180	63.6228
 1.0170	63.6021
 1.0160	63.6100
 1.0150	63.5562
 1.0140	63.5421
 1.0130	63.5635
 1.0120	63.5558
 1.0110	63.4988
 1.0100	63.5089
 1.0090	63.4896
 1.0080	63.4996
 1.0070	63.4794
 1.0060	63.5231
 1.0050	63.4991
 1.0040	63.4849
 1.0030	63.4791
 1.0020	63.5372
 1.0010	63.4372
 1.0000	63.4471
 0.9990	63.3680
 0.9980	63.4003
 0.9970	63.4639
 0.9960	63.4733
 0.9950	63.4436
 0.9940	63.3666
 0.9930	63.3347
 0.9920	63.3522
 0.9910	63.3588
 0.9900	63.3144
 0.9890	63.2915
 0.9880	63.3578
 0.9870	63.2949
 0.9860	63.2517
 0.9850	63.2467
 0.9840	63.3035
 0.9830	63.2573
 0.9820	63.1986
 0.9810	63.1592
 0.9800	63.1908
 0.9790	63.2082
 0.9780	63.2001
 0.9770	63.1873
 0.9760	63.0996
 0.9750	63.0749
 0.9740	63.1547
 0.9730	63.0975
 0.9720	63.1355
 0.9710	63.0606
 0.9700	63.0566
 0.9690	63.0430
 0.9680	62.9865
 0.9670	62.9423
 0.9660	63.0118
 0.9650	62.9725
 0.9640	62.9664
 0.9630	62.9220
 0.9620	62.8744
 0.9610	62.8938
 0.9600	62.9062
 0.9590	62.8503
 0.9580	62.8434
 0.9570	62.7624
 0.9560	62.6151
 0.9550	62.5628
 0.9540	62.4851
 0.9530	62.3575
 0.9520	62.3486
 0.9510	62.3477
 0.9500	62.3773
 0.9490	62.4148
 0.9480	62.4106
 0.9470	62.3316
 0.9460	62.3180
 0.9450	62.3014
 0.9440	62.3026
 0.9430	62.3627
 0.9420	62.3859
 0.9410	62.4591
 0.9400	62.5234
 0.9390	62.5708
 0.9380	62.6591
 0.9370	62.7323
 0.9360	62.7922
 0.9350	62.7556
 0.9340	62.7336
 0.9330	62.7168
 0.9320	62.7312
 0.9310	62.7017
 0.9300	62.6897
 0.9290	62.6898
 0.9280	62.7162
 0.9270	62.7805
 0.9260	62.7767
 0.9250	62.7600
 0.9240	62.7616
 0.9230	62.7863
 0.9220	62.7626
 0.9210	62.7494
 0.9200	62.6996
 0.9190	62.6811
 0.9180	62.7492
 0.9170	62.7416
 0.9160	62.6558
 0.9150	62.6716
 0.9140	62.7018
 0.9130	62.7143
 0.9120	62.7216
 0.9110	62.7406
 0.9100	62.7045
 0.9090	62.6895
 0.9080	62.6954
 0.9070	62.7372
 0.9060	62.6956
 0.9050	62.6446
 0.9040	62.6904
 0.9030	62.7172
 0.9020	62.6275
 0.9010	62.6296
 0.9000	62.6361
 0.8990	62.7130
 0.8980	62.7332
 0.8970	62.6868
 0.8960	62.6713
 0.8950	62.6593
 0.8940	62.6783
 0.8930	62.7068
 0.8920	62.7176
 0.8910	62.7406
 0.8900	62.6914
 0.8890	62.6915
 0.8880	62.7125
 0.8870	62.7466
 0.8860	62.6894
 0.8850	62.6926
 0.8840	62.6683
 0.8830	62.7540
 0.8820	62.7960
 0.8810	62.7616
 0.8800	62.7143
 0.8790	62.7082
 0.8780	62.6766
 0.8770	62.7410
 0.8760	62.7743
 0.8750	62.7636
 0.8740	62.7674
 0.8730	62.7701
 0.8720	62.7647
 0.8710	62.8432
 0.8700	62.8168
 0.8690	62.8483
 0.8680	62.7887
 0.8670	62.8665
 0.8660	62.8947
 0.8650	62.9063
 0.8640	62.8187
 0.8630	62.9136
 0.8620	62.8813
 0.8610	62.9147
 0.8600	63.0551
 0.8590	63.1024
 0.8580	63.1845
 0.8570	63.1710
 0.8560	63.1293
 0.8550	63.1290
 0.8540	63.1226
 0.8530	63.1214
 0.8520	63.1191
 0.8510	63.1579
 0.8500	63.1577
 0.8490	63.2005
 0.8480	63.1922
 0.8470	63.2205
 0.8460	63.2170
 0.8450	63.1801
 0.8440	63.1975
 0.8430	63.1828
 0.8420	63.2156
 0.8410	63.2069
 0.8400	63.2121
 0.8390	63.2133
 0.8380	63.2234
 0.8370	63.1966
 0.8360	63.2439
 0.8350	63.2489
 0.8340	63.2705
 0.8330	63.2801
 0.8320	63.2637
 0.8310	63.2872
 0.8300	63.2889
 0.8290	63.2906
 0.8280	63.2708
 0.8270	63.3079
 0.8260	63.3068
 0.8250	63.3061
 0.8240	63.3145
 0.8230	63.3405
 0.8220	63.3214
 0.8210	63.3168
 0.8200	63.3236
 0.8190	63.3189
 0.8180	63.3373
 0.8170	63.3474
 0.8160	63.3326
 0.8150	63.3471
 0.8140	63.3503
 0.8130	63.3242
 0.8120	63.3831
 0.8110	63.3633
 0.8100	63.3548
 0.8090	63.3501
 0.8080	63.3756
 0.8070	63.3873
 0.8060	63.3419
 0.8050	63.3569
 0.8040	63.3746
 0.8030	63.3828
 0.8020	63.3393
 0.8010	63.3778
 0.8000	63.3588
 0.7990	63.3890
 0.7980	63.3283
 0.7970	63.3181
 0.7960	63.3087
 0.7950	63.3091
 0.7940	63.3069
 0.7930	63.3025
 0.7920	63.2928
 0.7910	63.3140
 0.7900	63.3201
 0.7890	63.2174
 0.7880	63.2929
 0.7870	63.2814
 0.7860	63.2935
 0.7850	63.2971
 0.7840	63.2697
 0.7830	63.2692
 0.7820	63.2714
 0.7810	63.2402
 0.7800	63.2198
 0.7790	63.2502
 0.7780	63.2364
 0.7770	63.2450
 0.7760	63.2395
 0.7750	63.2588
 0.7740	63.2421
 0.7730	63.2367
 0.7720	63.2339
 0.7710	63.2350
 0.7700	63.2241
 0.7690	63.2181
 0.7680	63.2101
 0.7670	63.2336
 0.7660	63.2246
 0.7650	63.1885
 0.7640	63.2281
 0.7630	63.2144
 0.7620	63.2315
 0.7610	63.2198
 0.7600	63.2055
 0.7590	63.2108
 0.7580	63.2170
 0.7570	63.2135
 0.7560	63.2032
 0.7550	63.2072
 0.7540	63.2284
 0.7530	63.2171
 0.7520	63.2103
 0.7510	63.1748
 0.7500	63.2034
 0.7490	63.1735
 0.7480	63.1762
 0.7470	63.2323
 0.7460	63.2086
 0.7450	63.2062
 0.7440	63.2300
 0.7430	63.2428
 0.7420	63.1837
 0.7410	63.1935
 0.7400	63.2014
 0.7390	63.1818
 0.7380	63.2180
 0.7370	63.1940
 0.7360	63.2139
 0.7350	63.1985
 0.7340	63.1953
 0.7330	63.1795
 0.7320	63.1905
 0.7310	63.1984
 0.7300	63.1942
 0.7290	63.1912
 0.7280	63.1931
 0.7270	63.2197
 0.7260	63.2247
 0.7250	63.1956
 0.7240	63.1819
 0.7230	63.1995
 0.7220	63.2009
 0.7210	63.2026
 0.7200	63.1939
 0.7190	63.2161
 0.7180	63.2067
 0.7170	63.2219
 0.7160	63.2306
 0.7150	63.2195
 0.7140	63.2403
 0.7130	63.2479
 0.7120	63.2175
 0.7110	63.2191
 0.7100	63.2188
 0.7090	63.2191
 0.7080	63.2009
 0.7070	63.2090
 0.7060	63.2025
 0.7050	63.2069
 0.7040	63.2152
 0.7030	63.2101
 0.7020	63.2005
 0.7010	63.2202
 0.7000	63.2067
 0.6990	63.1935
 0.6980	63.1917
 0.6970	63.1933
 0.6960	63.1870
 0.6950	63.2018
 0.6940	63.1969
 0.6930	63.1954
 0.6920	63.2003
 0.6910	63.1869
 0.6900	63.1804
 0.6890	63.1984
 0.6880	63.1809
 0.6870	63.1581
 0.6860	63.1754
 0.6850	63.1717
 0.6840	63.1670
 0.6830	63.1742
 0.6820	63.1688
 0.6810	63.1552
 0.6800	63.1487
 0.6790	63.1432
 0.6780	63.1430
 0.6770	63.1315
 0.6760	63.1325
 0.6750	63.1538
 0.6740	63.1371
 0.6730	63.1340
 0.6720	63.1383
 0.6710	63.1221
 0.6700	63.1291
 0.6690	63.1285
 0.6680	63.1170
 0.6670	63.1078
 0.6660	63.0997
 0.6650	63.0991
 0.6640	63.1066
 0.6630	63.1145
 0.6620	63.1048
 0.6610	63.0990
 0.6600	63.0978
 0.6590	63.0970
 0.6580	63.0838
 0.6570	63.0846
 0.6560	63.0932
 0.6550	63.0801
 0.6540	63.0678
 0.6530	63.0597
 0.6520	63.0614
 0.6510	63.0602
 0.6500	63.0590
 0.6490	63.0582
 0.6480	63.0587
 0.6470	63.0508
 0.6460	63.0428
 0.6450	63.0417
 0.6440	63.0421
 0.6430	63.0557
 0.6420	63.0569
 0.6410	63.0505
 0.6400	63.0388
 0.6390	63.0289
 0.6380	63.0360
 0.6370	63.0288
 0.6360	63.0186
 0.6350	63.0233
 0.6340	63.0227
 0.6330	63.0216
 0.6320	63.0161
 0.6310	63.0066
 0.6300	62.9996
 0.6290	63.0008
 0.6280	63.0018
 0.6270	62.9916
 0.6260	62.9965
 0.6250	62.9957
 0.6240	62.9835
 0.6230	62.9776
 0.6220	62.9855
 0.6210	62.9709
 0.6200	62.9475
 0.6190	62.9500
 0.6180	62.9550
 0.6170	62.9373
 0.6160	62.9233
 0.6150	62.9219
 0.6140	62.9302
 0.6130	62.9199
 0.6120	62.9123
 0.6110	62.9037
 0.6100	62.8932
 0.6090	62.8872
 0.6080	62.8727
 0.6070	62.8604
 0.6060	62.8560
 0.6050	62.8428
 0.6040	62.8404
 0.6030	62.8184
 0.6020	62.8028
 0.6010	62.7955
 0.6000	62.7892
 0.5990	62.7864
 0.5980	62.7867
 0.5970	62.7932
 0.5960	62.7891
 0.5950	62.7833
 0.5940	62.7672
 0.5930	62.7465
 0.5920	62.7303
 0.5910	62.7085
 0.5900	62.6962
 0.5890	62.6676
 0.5880	62.6385
 0.5870	62.6354
 0.5860	62.6122
 0.5850	62.5841
 0.5840	62.5701
 0.5830	62.5480
 0.5820	62.5308
 0.5810	62.5058
 0.5800	62.4725
 0.5790	62.4520
 0.5780	62.4294
 0.5770	62.4018
 0.5760	62.3803
 0.5750	62.3567
 0.5740	62.3322
 0.5730	62.3083
 0.5720	62.2788
 0.5710	62.2529
 0.5700	62.2267
 0.5690	62.2115
 0.5680	62.1774
 0.5670	62.1314
 0.5660	62.1109
 0.5650	62.0842
 0.5640	62.0473
 0.5630	62.0215
 0.5620	62.0011
 0.5610	61.9389
 0.5600	61.9047
 0.5590	61.8882
 0.5580	61.8628
 0.5570	61.8194
 0.5560	61.7887
 0.5550	61.7371
 0.5540	61.7173
 0.5530	61.6733
 0.5520	61.6569
 0.5510	61.6268
 0.5500	61.6038
 0.5490	61.5571
 0.5480	61.5375
 0.5470	61.4955
 0.5460	61.4688
 0.5450	61.4312
 0.5440	61.4156
 0.5430	61.3881
 0.5420	61.3487
 0.5410	61.3247
 0.5400	61.2879
 0.5390	61.2486
 0.5380	61.2167
 0.5370	61.1846
 0.5360	61.1511
 0.5350	61.1254
 0.5340	61.0739
 0.5330	61.0555
 0.5320	61.0272
 0.5310	60.9973
 0.5300	60.9544
 0.5290	60.9273
 0.5280	60.9062
 0.5270	60.8653
 0.5260	60.8278
 0.5250	60.8018
 0.5240	60.7565
 0.5230	60.7189
 0.5220	60.6743
 0.5210	60.6600
 0.5200	60.6386
 0.5190	60.5720
 0.5180	60.5452
 0.5170	60.5163
 0.5160	60.4651
 0.5150	60.4272
 0.5140	60.4038
 0.5130	60.3576
 0.5120	60.3232
 0.5110	60.2820
 0.5100	60.2334
 0.5090	60.1902
 0.5080	60.1402
 0.5070	60.0952
 0.5060	60.0252
 0.5050	60.0041
 0.5040	59.9438
 0.5030	59.8821
 0.5020	59.8394
 0.5010	59.7759
 0.5000	59.7312
 0.4990	59.6753
 0.4980	59.6074
 0.4970	59.5805
 0.4960	59.5065
 0.4950	59.4286
 0.4940	59.3893
 0.4930	59.3280
 0.4920	59.2712
 0.4910	59.2403
 0.4900	59.1799
 0.4890	59.1143
 0.4880	59.0451
 0.4870	58.9884
 0.4860	58.9256
 0.4850	58.8542
 0.4840	58.7878
 0.4830	58.7164
 0.4820	58.6710
 0.4810	58.5994
 0.4800	58.5242
 0.4790	58.4683
 0.4780	58.3877
 0.4770	58.3173
 0.4760	58.2239
 0.4750	58.1080
 0.4740	57.9885
 0.4730	57.8663
 0.4720	57.7312
 0.4710	57.5865
 0.4700	57.4510
 0.4690	57.3045
 0.4680	57.1394
 0.4670	56.9765
 0.4660	56.8272
 0.4650	56.6757
 0.4640	56.5472
 0.4630	56.3908
 0.4620	56.2778
 0.4610	56.1632
 0.4600	56.0594
 0.4590	55.9822
 0.4580	55.9027
 0.4570	55.8456
 0.4560	55.7846
 0.4550	55.7354
 0.4540	55.7051
 0.4530	55.6527
 0.4520	55.5922
 0.4510	55.5429
 0.4500	55.4814
 0.4490	55.4437
 0.4480	55.3826
 0.4470	55.3227
 0.4460	55.2587
 0.4450	55.1781
 0.4440	55.1121
 0.4430	55.0466
 0.4420	54.9744
 0.4410	54.9188
 0.4400	54.8614
 0.4390	54.8039
 0.4380	54.7608
 0.4370	54.7268
 0.4360	54.7154
 0.4350	54.7127
 0.4340	54.6980
 0.4330	54.6820
 0.4320	54.6650
 0.4310	54.6759
 0.4300	54.6820
 0.4290	54.6885
 0.4280	54.7043
 0.4270	54.7219
 0.4260	54.7150
 0.4250	54.7224
 0.4240	54.7522
 0.4230	54.7540
 0.4220	54.7612
 0.4210	54.7621
 0.4200	54.7435
 0.4190	54.7458
 0.4180	54.7471
 0.4170	54.7384
 0.4160	54.7116
 0.4150	54.7025
 0.4140	54.7024
 0.4130	54.7169
 0.4120	54.7385
 0.4110	54.7378
 0.4100	54.7513
 0.4090	54.7616
 0.4080	54.7760
 0.4070	54.7932
 0.4060	54.8033
 0.4050	54.8062
 0.4040	54.8148
 0.4030	54.7890
 0.4020	54.7721
 0.4010	54.7591
 0.4000	54.7319
