Name: Triphylite Li(Mn,Fe)PO_4
Type: Mineral
Class: Phosphate
Subclass: None
Particle Size: Fine
Sample No.: P-4A
Owner: JPL
Wavelength Range: VSWIR
Origin: USA, New Hampshire, North Graton, Palermo Mine
Collection Date: N/A
Description: Particle size was 0-45um.Collected by Burminco Original ASTER Spectral Library name was jpl.beckman.mineral.phosphate.none.fine.p04a.spectrum.txt
Measurement: Hemispherical reflectance
First Column: X
Second Column: Y
X Units: Wavelength (micrometers)
Y Units:Reflectance (percent)
First X Value:  0.4000
Last X Value:  2.5000
Number of X Values: 826
Additional Information: mineral.phosphate.none.fine.vswir.p-4a.jpl.beckman.ancillary.txt

 0.4000	48.3800
 0.4010	48.2000
 0.4020	48.9000
 0.4030	49.2400
 0.4040	49.4100
 0.4050	49.0100
 0.4060	48.6100
 0.4070	49.0100
 0.4080	49.8800
 0.4090	50.3400
 0.4100	50.5700
 0.4110	50.9700
 0.4120	51.7300
 0.4130	52.2400
 0.4140	52.8800
 0.4150	52.8200
 0.4160	52.8800
 0.4170	53.3900
 0.4180	53.9200
 0.4190	54.2100
 0.4200	54.0300
 0.4210	54.1500
 0.4220	54.5000
 0.4230	54.8400
 0.4240	55.4200
 0.4250	55.1300
 0.4260	55.0700
 0.4270	55.3600
 0.4280	55.8800
 0.4290	56.5100
 0.4300	56.2800
 0.4310	55.9400
 0.4320	56.2800
 0.4330	56.6300
 0.4340	57.0400
 0.4350	56.9800
 0.4360	56.5100
 0.4370	56.8600
 0.4380	56.9800
 0.4390	57.4400
 0.4400	57.4400
 0.4410	57.2100
 0.4420	56.8000
 0.4430	57.1500
 0.4440	57.6100
 0.4450	57.4900
 0.4460	57.3300
 0.4470	57.1500
 0.4480	57.2100
 0.4490	57.4900
 0.4500	57.6100
 0.4510	57.6100
 0.4520	57.2700
 0.4530	57.2700
 0.4540	57.6800
 0.4550	57.8500
 0.4560	57.8500
 0.4570	57.4400
 0.4580	57.4500
 0.4590	57.9700
 0.4600	58.3200
 0.4610	58.0800
 0.4620	58.4300
 0.4630	58.9600
 0.4640	58.8400
 0.4650	58.8400
 0.4660	58.3300
 0.4670	58.2100
 0.4680	58.5600
 0.4690	58.2700
 0.4700	58.2100
 0.4710	57.8100
 0.4720	58.3300
 0.4730	59.7800
 0.4740	60.6400
 0.4750	61.5700
 0.4760	61.5700
 0.4770	61.8000
 0.4780	62.5600
 0.4790	62.8500
 0.4800	63.2500
 0.4810	63.0200
 0.4820	62.9600
 0.4830	63.3700
 0.4840	63.4300
 0.4850	63.9500
 0.4860	63.5500
 0.4870	63.0300
 0.4880	63.2100
 0.4890	63.3700
 0.4900	63.4300
 0.4910	63.0900
 0.4920	62.8000
 0.4930	62.5800
 0.4940	62.6400
 0.4950	63.2100
 0.4960	63.0900
 0.4970	62.6400
 0.4980	62.5800
 0.4990	62.9300
 0.5000	63.9700
 0.5010	64.5500
 0.5020	64.6100
 0.5030	64.6100
 0.5040	64.8400
 0.5050	65.4200
 0.5060	65.9300
 0.5070	66.1600
 0.5080	65.9300
 0.5090	65.8200
 0.5100	66.0500
 0.5110	66.4600
 0.5120	66.9800
 0.5130	66.5700
 0.5140	66.2800
 0.5150	66.5100
 0.5160	66.9200
 0.5170	67.5500
 0.5180	67.3200
 0.5190	66.8000
 0.5200	67.0400
 0.5210	67.3800
 0.5220	67.6100
 0.5230	67.5500
 0.5240	67.6100
 0.5250	67.2000
 0.5260	67.6100
 0.5270	68.0700
 0.5280	68.3100
 0.5290	68.0700
 0.5300	67.5500
 0.5310	67.6700
 0.5320	68.1900
 0.5330	68.5400
 0.5340	68.2500
 0.5350	68.0200
 0.5360	67.7800
 0.5370	68.1300
 0.5380	68.5400
 0.5390	68.7100
 0.5400	68.1300
 0.5410	68.0200
 0.5420	68.1300
 0.5430	68.3600
 0.5440	68.6000
 0.5450	68.1900
 0.5460	67.7200
 0.5470	67.9600
 0.5480	68.3100
 0.5490	68.5400
 0.5500	68.1300
 0.5510	67.7800
 0.5520	67.9000
 0.5530	68.1900
 0.5540	68.5400
 0.5550	68.3600
 0.5560	67.6100
 0.5570	67.7200
 0.5580	68.0200
 0.5590	68.3600
 0.5600	68.0700
 0.5610	68.3100
 0.5620	68.1300
 0.5630	67.7200
 0.5640	68.2500
 0.5650	68.6000
 0.5660	68.6000
 0.5670	68.3600
 0.5680	67.9000
 0.5690	68.1900
 0.5700	68.5400
 0.5710	68.6500
 0.5720	68.1300
 0.5730	67.9000
 0.5740	68.0700
 0.5750	68.4200
 0.5760	68.6500
 0.5770	68.3100
 0.5780	68.0200
 0.5790	68.1900
 0.5800	68.4200
 0.5810	68.7600
 0.5820	68.4800
 0.5830	68.2500
 0.5840	67.8400
 0.5850	67.9600
 0.5860	68.3600
 0.5870	68.3600
 0.5880	68.1900
 0.5890	67.8400
 0.5900	67.6100
 0.5910	67.9600
 0.5920	68.1900
 0.5930	68.1300
 0.5940	67.8400
 0.5950	67.1400
 0.5960	67.6100
 0.5970	67.8400
 0.5980	68.1300
 0.5990	67.7800
 0.6000	67.4300
 0.6010	67.4300
 0.6020	67.9000
 0.6030	68.4200
 0.6040	67.7800
 0.6050	67.6700
 0.6060	67.4900
 0.6070	68.0200
 0.6080	68.3600
 0.6090	68.5400
 0.6100	68.1300
 0.6110	67.9000
 0.6120	68.4200
 0.6130	69.1100
 0.6140	69.1100
 0.6150	69.1100
 0.6160	68.7600
 0.6170	69.2800
 0.6180	69.8100
 0.6190	70.2100
 0.6200	70.3900
 0.6210	70.1000
 0.6220	70.0400
 0.6230	70.8400
 0.6240	71.3100
 0.6250	71.6000
 0.6260	71.4300
 0.6270	71.1900
 0.6280	71.7200
 0.6290	72.1700
 0.6300	72.5800
 0.6310	72.5200
 0.6320	72.1700
 0.6330	72.2900
 0.6340	72.5800
 0.6350	73.3900
 0.6360	73.1600
 0.6370	72.8700
 0.6380	72.8100
 0.6390	73.1600
 0.6400	73.5700
 0.6410	73.4500
 0.6420	73.5100
 0.6430	73.1000
 0.6440	73.2800
 0.6450	73.7900
 0.6460	73.7900
 0.6470	73.8500
 0.6480	73.4500
 0.6490	72.9900
 0.6500	73.5700
 0.6510	73.8500
 0.6520	73.8500
 0.6530	73.4500
 0.6540	72.9900
 0.6550	73.3900
 0.6560	73.7900
 0.6570	73.9100
 0.6580	73.5700
 0.6590	73.0400
 0.6600	73.2800
 0.6610	73.6200
 0.6620	73.7900
 0.6630	73.4500
 0.6640	73.2200
 0.6650	73.2800
 0.6660	73.5700
 0.6670	73.6800
 0.6680	73.5700
 0.6690	73.1000
 0.6700	73.0400
 0.6710	73.2800
 0.6720	73.5700
 0.6730	73.3300
 0.6740	73.2200
 0.6750	72.7500
 0.6760	72.8700
 0.6770	73.5100
 0.6780	73.6200
 0.6790	73.3300
 0.6800	72.8700
 0.6810	72.7500
 0.6820	73.0400
 0.6830	73.3300
 0.6840	73.4500
 0.6850	72.9300
 0.6860	72.5800
 0.6870	72.7500
 0.6880	73.1600
 0.6890	73.3300
 0.6900	72.8700
 0.6910	72.5800
 0.6920	72.5800
 0.6930	73.2200
 0.6940	73.1600
 0.6950	72.9300
 0.6960	72.6900
 0.6970	72.6400
 0.6980	72.8700
 0.6990	73.2200
 0.7000	72.8100
 0.7010	72.3500
 0.7020	72.5200
 0.7030	72.8700
 0.7040	73.0400
 0.7050	72.8700
 0.7060	72.2300
 0.7070	72.5200
 0.7080	72.8100
 0.7090	73.1000
 0.7100	73.1000
 0.7110	72.5800
 0.7120	72.4600
 0.7130	72.6900
 0.7140	73.1000
 0.7150	73.3900
 0.7160	72.8700
 0.7170	72.8700
 0.7180	72.5200
 0.7190	72.9900
 0.7200	73.2800
 0.7210	73.3900
 0.7220	73.2200
 0.7230	72.5800
 0.7240	72.8100
 0.7250	73.1000
 0.7260	73.5700
 0.7270	73.4500
 0.7280	73.1000
 0.7290	73.1000
 0.7300	73.2200
 0.7310	73.5700
 0.7320	73.6200
 0.7330	73.4500
 0.7340	73.1600
 0.7350	73.3900
 0.7360	73.7900
 0.7370	73.9600
 0.7380	73.9100
 0.7390	73.6800
 0.7400	73.3300
 0.7410	73.6200
 0.7420	73.9600
 0.7430	74.1400
 0.7440	74.1400
 0.7450	73.5700
 0.7460	73.7900
 0.7470	74.1400
 0.7480	74.4900
 0.7490	74.3100
 0.7500	74.0200
 0.7510	74.2000
 0.7520	74.2000
 0.7530	74.5500
 0.7540	74.8900
 0.7550	74.4900
 0.7560	74.3100
 0.7570	74.2000
 0.7580	74.8400
 0.7590	74.9500
 0.7600	75.0100
 0.7610	74.7800
 0.7620	74.5500
 0.7630	74.7800
 0.7640	75.0100
 0.7650	75.4100
 0.7660	75.1800
 0.7670	74.7200
 0.7680	74.8400
 0.7690	74.9500
 0.7700	75.5200
 0.7710	75.3600
 0.7720	74.7200
 0.7730	74.8900
 0.7740	75.0100
 0.7750	75.5200
 0.7760	75.4100
 0.7770	74.8400
 0.7780	74.8400
 0.7790	75.1300
 0.7800	75.3000
 0.7810	75.4100
 0.7820	75.0100
 0.7830	74.6600
 0.7840	74.6600
 0.7850	75.1300
 0.7860	75.3600
 0.7870	75.3000
 0.7880	74.9500
 0.7890	74.3700
 0.7900	74.7200
 0.7910	75.1300
 0.7920	75.3600
 0.7930	75.1800
 0.7940	74.4900
 0.7950	74.4900
 0.7960	74.7200
 0.7970	74.9500
 0.7980	74.8400
 0.7990	74.3700
 0.8000	74.3500
 0.8040	74.2500
 0.8080	74.2000
 0.8120	73.4500
 0.8160	72.9300
 0.8200	72.2900
 0.8240	71.6000
 0.8280	71.1300
 0.8320	70.2700
 0.8360	69.6900
 0.8400	68.7600
 0.8440	67.8400
 0.8480	67.3200
 0.8520	66.1100
 0.8560	65.2400
 0.8600	64.4300
 0.8640	63.2200
 0.8680	62.0700
 0.8720	61.1900
 0.8760	60.1600
 0.8800	59.1100
 0.8840	57.9600
 0.8880	56.8600
 0.8920	55.9300
 0.8960	54.7800
 0.9000	53.6900
 0.9040	52.6400
 0.9080	51.4900
 0.9120	50.6700
 0.9160	49.5800
 0.9200	48.5400
 0.9240	47.7300
 0.9280	46.7500
 0.9320	45.7600
 0.9360	44.6700
 0.9400	43.8000
 0.9440	42.8700
 0.9480	41.9500
 0.9520	41.2600
 0.9560	40.3900
 0.9600	39.5800
 0.9640	38.9400
 0.9680	38.2000
 0.9720	37.6700
 0.9760	36.9300
 0.9800	36.1700
 0.9840	35.7100
 0.9880	34.9600
 0.9920	34.5500
 0.9960	34.0300
 1.0000	33.4600
 1.0040	33.1700
 1.0080	32.5900
 1.0120	32.1300
 1.0160	31.8400
 1.0200	31.4300
 1.0240	31.3200
 1.0280	30.9700
 1.0320	30.7900
 1.0360	30.4500
 1.0400	30.2200
 1.0440	30.1600
 1.0480	29.8700
 1.0520	29.7600
 1.0560	29.5800
 1.0600	29.5200
 1.0640	29.5200
 1.0680	29.5200
 1.0720	29.5800
 1.0760	29.6400
 1.0800	29.5200
 1.0840	29.7000
 1.0880	29.6400
 1.0920	29.9900
 1.0960	30.1600
 1.1000	30.1600
 1.1040	30.5100
 1.1080	30.6800
 1.1120	30.9100
 1.1160	31.3200
 1.1200	31.6700
 1.1240	32.0700
 1.1280	32.3500
 1.1320	32.6400
 1.1360	33.2300
 1.1400	33.4600
 1.1440	33.8600
 1.1480	34.4400
 1.1520	34.5500
 1.1560	35.1200
 1.1600	35.5900
 1.1640	35.9300
 1.1680	36.3300
 1.1720	36.6200
 1.1760	37.2600
 1.1800	37.4200
 1.1840	37.6500
 1.1880	38.1700
 1.1920	38.4000
 1.1960	38.6200
 1.2000	39.0200
 1.2040	39.0200
 1.2080	39.2500
 1.2120	39.4200
 1.2160	39.4800
 1.2200	39.7700
 1.2240	39.8900
 1.2280	40.1200
 1.2320	40.1200
 1.2360	40.1200
 1.2400	40.3500
 1.2440	40.1800
 1.2480	40.1200
 1.2520	40.3500
 1.2560	40.1100
 1.2600	40.1100
 1.2640	40.2800
 1.2680	40.0400
 1.2720	40.1000
 1.2760	40.0400
 1.2800	40.0300
 1.2840	39.9800
 1.2880	39.9200
 1.2920	39.9200
 1.2960	39.9700
 1.3000	39.6800
 1.3040	39.9000
 1.3080	39.5500
 1.3120	39.6100
 1.3160	39.7200
 1.3200	39.4900
 1.3240	39.4800
 1.3280	39.6000
 1.3320	39.4800
 1.3360	39.6500
 1.3400	39.5300
 1.3440	39.3000
 1.3480	39.5800
 1.3520	39.5800
 1.3560	39.6400
 1.3600	39.6400
 1.3640	39.4600
 1.3680	39.6400
 1.3720	39.5800
 1.3760	39.5200
 1.3800	39.6900
 1.3840	39.6400
 1.3880	39.8100
 1.3920	39.9300
 1.3960	39.9300
 1.4000	40.2600
 1.4040	40.1600
 1.4080	40.2700
 1.4120	40.4500
 1.4160	40.4000
 1.4200	40.6300
 1.4240	40.6300
 1.4280	40.8100
 1.4320	41.0400
 1.4360	40.9900
 1.4400	41.3400
 1.4440	41.4600
 1.4480	41.7500
 1.4520	41.8100
 1.4560	41.8600
 1.4600	42.1600
 1.4640	42.3300
 1.4680	42.5000
 1.4720	42.7800
 1.4760	42.8400
 1.4800	43.0800
 1.4840	43.3100
 1.4880	43.4800
 1.4920	43.8300
 1.4960	43.9500
 1.5000	44.2300
 1.5040	44.5800
 1.5080	44.6400
 1.5120	45.1000
 1.5160	45.3800
 1.5200	45.5000
 1.5240	45.7300
 1.5280	45.9600
 1.5320	46.3100
 1.5360	46.5900
 1.5400	46.8200
 1.5440	47.2300
 1.5480	47.6400
 1.5520	47.8000
 1.5560	48.1500
 1.5600	48.2700
 1.5640	48.6200
 1.5680	49.1300
 1.5720	49.2500
 1.5760	49.6500
 1.5800	50.0600
 1.5840	50.3400
 1.5880	50.8100
 1.5920	50.8600
 1.5960	51.4900
 1.6000	51.6100
 1.6040	51.9000
 1.6080	52.4100
 1.6120	52.6400
 1.6160	53.2700
 1.6200	53.5000
 1.6240	53.7200
 1.6280	54.3500
 1.6320	54.4700
 1.6360	55.1000
 1.6400	55.2000
 1.6440	55.6600
 1.6480	56.1700
 1.6520	56.3500
 1.6560	56.8600
 1.6600	57.3100
 1.6640	57.4800
 1.6680	58.0500
 1.6720	58.3400
 1.6760	58.8000
 1.6800	59.2500
 1.6840	59.5300
 1.6880	60.1000
 1.6920	60.3300
 1.6960	60.7800
 1.7000	61.1800
 1.7040	61.5300
 1.7080	62.0400
 1.7120	62.4500
 1.7160	62.9000
 1.7200	63.2500
 1.7240	63.6000
 1.7280	64.0000
 1.7320	64.2300
 1.7360	64.8600
 1.7400	65.1500
 1.7440	65.5600
 1.7480	65.9500
 1.7520	66.3000
 1.7560	66.6500
 1.7600	66.9300
 1.7640	67.2800
 1.7680	67.7500
 1.7720	68.2600
 1.7760	68.5500
 1.7800	68.7800
 1.7840	69.4100
 1.7880	69.6400
 1.7920	70.0400
 1.7960	70.6200
 1.8000	70.6800
 1.8040	71.0600
 1.8080	71.3900
 1.8120	71.8100
 1.8160	71.9700
 1.8200	72.2800
 1.8240	72.6600
 1.8280	72.8200
 1.8320	73.4700
 1.8360	73.6300
 1.8400	74.0100
 1.8440	74.3800
 1.8480	74.4200
 1.8520	74.8700
 1.8560	74.9100
 1.8600	75.4200
 1.8640	75.7000
 1.8680	75.6900
 1.8720	76.2700
 1.8760	76.5400
 1.8800	76.6500
 1.8840	76.8700
 1.8880	76.8700
 1.8920	77.1500
 1.8960	77.4300
 1.9000	77.5400
 1.9040	77.8200
 1.9080	78.0400
 1.9120	78.4400
 1.9160	78.4800
 1.9200	78.5900
 1.9240	78.8700
 1.9280	78.9200
 1.9320	79.3200
 1.9360	79.4200
 1.9400	79.5300
 1.9440	79.7500
 1.9480	80.0300
 1.9520	80.3600
 1.9560	80.2800
 1.9600	80.5500
 1.9640	80.9400
 1.9680	80.9100
 1.9720	81.3000
 1.9760	81.2700
 1.9800	81.4800
 1.9840	81.6300
 1.9880	81.8400
 1.9920	82.2200
 1.9960	82.2000
 2.0000	82.5200
 2.0040	82.5100
 2.0080	82.6200
 2.0120	83.0200
 2.0160	82.9900
 2.0200	83.2400
 2.0240	83.3500
 2.0280	83.5000
 2.0320	83.6700
 2.0360	83.7000
 2.0400	83.9500
 2.0440	83.9400
 2.0480	83.9800
 2.0520	84.3200
 2.0560	84.2900
 2.0600	84.4800
 2.0640	84.4400
 2.0680	84.7500
 2.0720	84.7700
 2.0760	84.6800
 2.0800	84.8800
 2.0840	84.8900
 2.0880	85.0900
 2.0920	85.2200
 2.0960	85.3000
 2.1000	85.3700
 2.1040	85.3300
 2.1080	85.6900
 2.1120	85.7700
 2.1160	85.9600
 2.1200	86.0900
 2.1240	85.9600
 2.1280	86.0100
 2.1320	86.0300
 2.1360	86.1400
 2.1400	86.1900
 2.1440	86.0600
 2.1480	86.2100
 2.1520	86.0900
 2.1560	86.2800
 2.1600	86.1800
 2.1640	86.2300
 2.1680	86.3900
 2.1720	86.0500
 2.1760	86.3200
 2.1800	86.0900
 2.1840	86.2200
 2.1880	86.3500
 2.1920	86.0800
 2.1960	86.0900
 2.2000	86.0000
 2.2040	86.2800
 2.2080	86.0500
 2.2120	86.0700
 2.2160	86.0500
 2.2200	85.9700
 2.2240	86.3700
 2.2280	86.3100
 2.2320	86.0700
 2.2360	86.3700
 2.2400	86.1000
 2.2440	86.2200
 2.2480	86.2200
 2.2520	86.0400
 2.2560	86.2800
 2.2600	86.3100
 2.2640	86.2500
 2.2680	86.4200
 2.2720	86.2900
 2.2760	86.4200
 2.2800	86.3300
 2.2840	86.2900
 2.2880	86.5400
 2.2920	86.3800
 2.2960	86.5900
 2.3000	86.5700
 2.3040	86.6500
 2.3080	86.7300
 2.3120	87.0300
 2.3160	87.0000
 2.3200	87.1800
 2.3240	86.8300
 2.3280	86.9200
 2.3320	86.9700
 2.3360	86.9000
 2.3400	86.9400
 2.3440	86.7300
 2.3480	86.8700
 2.3520	86.7700
 2.3560	86.6200
 2.3600	86.7000
 2.3640	86.5500
 2.3680	86.5700
 2.3720	86.3300
 2.3760	86.3300
 2.3800	86.6100
 2.3840	86.3000
 2.3880	86.3700
 2.3920	86.2400
 2.3960	86.1300
 2.4000	86.2900
 2.4040	86.2300
 2.4080	86.1700
 2.4120	86.2300
 2.4160	85.9400
 2.4200	86.0900
 2.4240	86.0300
 2.4280	86.1300
 2.4320	85.9100
 2.4360	85.7900
 2.4400	86.0600
 2.4440	85.7100
 2.4480	85.7000
 2.4520	85.9800
 2.4560	85.5800
 2.4600	85.8600
 2.4640	85.5600
 2.4680	85.6100
 2.4720	85.6700
 2.4760	85.3200
 2.4800	85.3100
 2.4840	84.9700
 2.4880	85.1300
 2.4920	85.0700
 2.4960	85.0100
 2.5000	84.7200
