Name: Labradorite (Feldspar) (NaSi,CaAl)AlSi_2O_8
Type: Mineral
Class: Silicate
Subclass: Tectosilicate
Particle Size: Coarse
Sample No.: TS-2A
Owner: JPL
Wavelength Range: VSWIR
Origin: Mexico, Sonora, Pinacate.
Collection Date: N/A
Description: Particle size was 125-500um. Collected by:  Burminco Original ASTER Spectral Library name was jpl.perkin.mineral.silicate.tectosilicate.coarse.ts02a.spectrum.txt
Measurement: Hemispherical reflectance
First Column: X
Second Column: Y
X Units: Wavelength (micrometers)
Y Units:Reflectance (percent)
First X Value:  2.5000
Last X Value:  0.4000
Number of X Values: 2101
Additional Information: mineral.silicate.tectosilicate.coarse.vswir.ts-2a.jpl.perkin.ancillary.txt

 2.5000	66.3976
 2.4990	66.2833
 2.4980	66.2258
 2.4970	66.1641
 2.4960	66.1742
 2.4950	66.4769
 2.4940	66.1418
 2.4930	66.1419
 2.4920	66.2347
 2.4910	66.2661
 2.4900	66.4375
 2.4890	66.3535
 2.4880	66.4021
 2.4870	66.2040
 2.4860	66.4154
 2.4850	66.3794
 2.4840	66.4222
 2.4830	66.4609
 2.4820	66.5705
 2.4810	66.3175
 2.4800	66.4978
 2.4790	66.3712
 2.4780	66.4548
 2.4770	66.4269
 2.4760	66.3405
 2.4750	66.5353
 2.4740	66.4177
 2.4730	66.5094
 2.4720	66.5424
 2.4710	66.5664
 2.4700	66.6100
 2.4690	66.6250
 2.4680	66.4404
 2.4670	66.5158
 2.4660	66.6194
 2.4650	66.5832
 2.4640	66.6122
 2.4630	66.5620
 2.4620	66.6707
 2.4610	66.5878
 2.4600	66.6999
 2.4590	66.5751
 2.4580	66.6515
 2.4570	66.6318
 2.4560	66.6600
 2.4550	66.5217
 2.4540	66.6950
 2.4530	66.6537
 2.4520	66.7532
 2.4510	66.7736
 2.4500	66.7234
 2.4490	66.6980
 2.4480	66.7360
 2.4470	66.7415
 2.4460	66.8347
 2.4450	66.7192
 2.4440	66.6634
 2.4430	66.7262
 2.4420	66.7061
 2.4410	66.8245
 2.4400	66.8627
 2.4390	66.9279
 2.4380	66.9613
 2.4370	66.8877
 2.4360	66.7607
 2.4350	66.9023
 2.4340	67.0054
 2.4330	66.8687
 2.4320	66.9954
 2.4310	66.9030
 2.4300	66.9894
 2.4290	66.9121
 2.4280	66.8381
 2.4270	66.8848
 2.4260	66.9129
 2.4250	66.9294
 2.4240	66.8613
 2.4230	66.8037
 2.4220	66.8581
 2.4210	66.8623
 2.4200	66.8996
 2.4190	66.8400
 2.4180	66.9011
 2.4170	66.9603
 2.4160	66.9390
 2.4150	66.9886
 2.4140	66.9430
 2.4130	66.8675
 2.4120	66.9374
 2.4110	66.9699
 2.4100	66.9102
 2.4090	66.9768
 2.4080	66.9790
 2.4070	66.9730
 2.4060	66.9473
 2.4050	66.8798
 2.4040	66.8607
 2.4030	66.8337
 2.4020	66.7793
 2.4010	66.8635
 2.4000	66.8675
 2.3990	66.8535
 2.3980	66.8574
 2.3970	66.9200
 2.3960	66.9091
 2.3950	66.8917
 2.3940	66.8681
 2.3930	66.8801
 2.3920	66.8822
 2.3910	66.8331
 2.3900	66.8341
 2.3890	66.9405
 2.3880	66.9529
 2.3870	66.9589
 2.3860	66.9601
 2.3850	66.9584
 2.3840	66.9844
 2.3830	66.9375
 2.3820	66.9626
 2.3810	67.0100
 2.3800	67.0168
 2.3790	66.9905
 2.3780	66.9795
 2.3770	66.9917
 2.3760	67.0206
 2.3750	66.9802
 2.3740	66.9961
 2.3730	67.0478
 2.3720	67.0649
 2.3710	66.9805
 2.3700	67.0162
 2.3690	67.1028
 2.3680	67.1126
 2.3670	67.0924
 2.3660	67.0990
 2.3650	67.1303
 2.3640	67.1299
 2.3630	67.1172
 2.3620	67.1273
 2.3610	67.1532
 2.3600	67.1230
 2.3590	67.1415
 2.3580	67.1770
 2.3570	67.1286
 2.3560	67.1463
 2.3550	67.1508
 2.3540	67.1224
 2.3530	67.0969
 2.3520	67.1439
 2.3510	67.1908
 2.3500	67.1859
 2.3490	67.2005
 2.3480	67.1686
 2.3470	67.1776
 2.3460	67.1744
 2.3450	67.1559
 2.3440	67.2019
 2.3430	67.1521
 2.3420	67.1325
 2.3410	67.1250
 2.3400	67.1416
 2.3390	67.1708
 2.3380	67.1397
 2.3370	67.1430
 2.3360	67.0908
 2.3350	67.1063
 2.3340	67.0984
 2.3330	67.0760
 2.3320	67.0945
 2.3310	67.0980
 2.3300	67.0245
 2.3290	67.0009
 2.3280	66.9982
 2.3270	67.0463
 2.3260	67.0515
 2.3250	67.0240
 2.3240	67.0258
 2.3230	66.9512
 2.3220	66.8982
 2.3210	66.9293
 2.3200	66.9337
 2.3190	66.8817
 2.3180	66.8213
 2.3170	66.8378
 2.3160	66.8634
 2.3150	66.8528
 2.3140	66.8029
 2.3130	66.7792
 2.3120	66.7607
 2.3110	66.7845
 2.3100	66.7707
 2.3090	66.8340
 2.3080	66.7777
 2.3070	66.7731
 2.3060	66.7521
 2.3050	66.7571
 2.3040	66.7831
 2.3030	66.7995
 2.3020	66.7869
 2.3010	66.7671
 2.3000	66.7347
 2.2990	66.7286
 2.2980	66.7054
 2.2970	66.7173
 2.2960	66.6527
 2.2950	66.6474
 2.2940	66.6970
 2.2930	66.7014
 2.2920	66.6541
 2.2910	66.6435
 2.2900	66.6453
 2.2890	66.6311
 2.2880	66.6696
 2.2870	66.6549
 2.2860	66.5598
 2.2850	66.5841
 2.2840	66.6474
 2.2830	66.7073
 2.2820	66.6595
 2.2810	66.6113
 2.2800	66.6068
 2.2790	66.6196
 2.2780	66.5357
 2.2770	66.5176
 2.2760	66.5579
 2.2750	66.5178
 2.2740	66.4254
 2.2730	66.4973
 2.2720	66.5483
 2.2710	66.4607
 2.2700	66.4351
 2.2690	66.4894
 2.2680	66.5405
 2.2670	66.4878
 2.2660	66.4807
 2.2650	66.4704
 2.2640	66.4334
 2.2630	66.4818
 2.2620	66.4407
 2.2610	66.4374
 2.2600	66.4310
 2.2590	66.3949
 2.2580	66.3418
 2.2570	66.4055
 2.2560	66.3759
 2.2550	66.2791
 2.2540	66.3095
 2.2530	66.3363
 2.2520	66.2950
 2.2510	66.3211
 2.2500	66.3252
 2.2490	66.3422
 2.2480	66.2887
 2.2470	66.2895
 2.2460	66.2732
 2.2450	66.3469
 2.2440	66.2743
 2.2430	66.3491
 2.2420	66.3309
 2.2410	66.2668
 2.2400	66.2705
 2.2390	66.3354
 2.2380	66.3018
 2.2370	66.4194
 2.2360	66.3376
 2.2350	66.3267
 2.2340	66.2652
 2.2330	66.3288
 2.2320	66.2560
 2.2310	66.3224
 2.2300	66.3234
 2.2290	66.2991
 2.2280	66.3256
 2.2270	66.3198
 2.2260	66.2686
 2.2250	66.2331
 2.2240	66.1761
 2.2230	66.2926
 2.2220	66.2306
 2.2210	66.2908
 2.2200	66.3395
 2.2190	66.3648
 2.2180	66.2918
 2.2170	66.3483
 2.2160	66.3483
 2.2150	66.3347
 2.2140	66.3283
 2.2130	66.2624
 2.2120	66.3956
 2.2110	66.3099
 2.2100	66.3780
 2.2090	66.4177
 2.2080	66.4265
 2.2070	66.4757
 2.2060	66.3932
 2.2050	66.4343
 2.2040	66.4819
 2.2030	66.4734
 2.2020	66.4607
 2.2010	66.4951
 2.2000	66.5359
 2.1990	66.4534
 2.1980	66.4341
 2.1970	66.5588
 2.1960	66.5126
 2.1950	66.5117
 2.1940	66.5102
 2.1930	66.5146
 2.1920	66.4798
 2.1910	66.5908
 2.1900	66.5131
 2.1890	66.5230
 2.1880	66.5680
 2.1870	66.6320
 2.1860	66.5994
 2.1850	66.5995
 2.1840	66.6620
 2.1830	66.6586
 2.1820	66.6408
 2.1810	66.6217
 2.1800	66.6594
 2.1790	66.6902
 2.1780	66.6332
 2.1770	66.7648
 2.1760	66.6913
 2.1750	66.7563
 2.1740	66.7973
 2.1730	66.8291
 2.1720	66.8100
 2.1710	66.7776
 2.1700	66.8162
 2.1690	66.8941
 2.1680	66.8784
 2.1670	66.9093
 2.1660	66.8836
 2.1650	66.9563
 2.1640	66.9708
 2.1630	67.0406
 2.1620	66.9879
 2.1610	67.0058
 2.1600	67.0344
 2.1590	67.0210
 2.1580	67.0458
 2.1570	67.1579
 2.1560	67.0954
 2.1550	67.1371
 2.1540	67.0939
 2.1530	67.1595
 2.1520	67.1450
 2.1510	67.1557
 2.1500	67.0984
 2.1490	67.1772
 2.1480	67.1149
 2.1470	67.1856
 2.1460	67.1645
 2.1450	67.1635
 2.1440	67.1889
 2.1430	67.1673
 2.1420	67.1372
 2.1410	67.2147
 2.1400	67.1866
 2.1390	67.1300
 2.1380	67.0614
 2.1370	67.1135
 2.1360	67.1182
 2.1350	67.0856
 2.1340	67.0551
 2.1330	67.0708
 2.1320	67.0630
 2.1310	66.9779
 2.1300	66.9151
 2.1290	66.9424
 2.1280	66.8941
 2.1270	66.9205
 2.1260	66.8706
 2.1250	66.8081
 2.1240	66.7616
 2.1230	66.7691
 2.1220	66.7214
 2.1210	66.7160
 2.1200	66.6290
 2.1190	66.6251
 2.1180	66.7041
 2.1170	66.6138
 2.1160	66.5689
 2.1150	66.5744
 2.1140	66.5178
 2.1130	66.4202
 2.1120	66.4238
 2.1110	66.4631
 2.1100	66.3230
 2.1090	66.2524
 2.1080	66.2236
 2.1070	66.2215
 2.1060	66.1903
 2.1050	66.1723
 2.1040	66.1597
 2.1030	66.1103
 2.1020	66.0776
 2.1010	66.0112
 2.1000	65.9791
 2.0990	65.9944
 2.0980	65.9886
 2.0970	66.0357
 2.0960	66.0551
 2.0950	66.0393
 2.0940	66.0425
 2.0930	66.0355
 2.0920	66.0371
 2.0910	66.0498
 2.0900	66.0451
 2.0890	66.0600
 2.0880	66.1307
 2.0870	66.1295
 2.0860	66.0649
 2.0850	66.0986
 2.0840	66.1319
 2.0830	66.1612
 2.0820	66.1654
 2.0810	66.1865
 2.0800	66.2286
 2.0790	66.2167
 2.0780	66.2104
 2.0770	66.2271
 2.0760	66.2180
 2.0750	66.1814
 2.0740	66.1978
 2.0730	66.2129
 2.0720	66.2436
 2.0710	66.2725
 2.0700	66.2811
 2.0690	66.2785
 2.0680	66.2623
 2.0670	66.2914
 2.0660	66.3043
 2.0650	66.3216
 2.0640	66.3581
 2.0630	66.3628
 2.0620	66.3634
 2.0610	66.3683
 2.0600	66.3868
 2.0590	66.3751
 2.0580	66.3613
 2.0570	66.3381
 2.0560	66.4129
 2.0550	66.4153
 2.0540	66.4082
 2.0530	66.4138
 2.0520	66.4019
 2.0510	66.4566
 2.0500	66.4608
 2.0490	66.4691
 2.0480	66.4656
 2.0470	66.4535
 2.0460	66.4426
 2.0450	66.4771
 2.0440	66.5168
 2.0430	66.4752
 2.0420	66.4582
 2.0410	66.4648
 2.0400	66.5256
 2.0390	66.5175
 2.0380	66.4880
 2.0370	66.4872
 2.0360	66.5060
 2.0350	66.5248
 2.0340	66.4989
 2.0330	66.5153
 2.0320	66.6031
 2.0310	66.5805
 2.0300	66.5849
 2.0290	66.5346
 2.0280	66.5657
 2.0270	66.5852
 2.0260	66.5053
 2.0250	66.5352
 2.0240	66.5237
 2.0230	66.4906
 2.0220	66.4929
 2.0210	66.4447
 2.0200	66.4517
 2.0190	66.5028
 2.0180	66.5058
 2.0170	66.4887
 2.0160	66.5049
 2.0150	66.4919
 2.0140	66.4871
 2.0130	66.5112
 2.0120	66.4736
 2.0110	66.4583
 2.0100	66.4241
 2.0090	66.4307
 2.0080	66.4946
 2.0070	66.5220
 2.0060	66.5221
 2.0050	66.4682
 2.0040	66.4394
 2.0030	66.4624
 2.0020	66.4774
 2.0010	66.4385
 2.0000	66.4441
 1.9990	66.4934
 1.9980	66.4421
 1.9970	66.4119
 1.9960	66.3637
 1.9950	66.4081
 1.9940	66.4767
 1.9930	66.3977
 1.9920	66.3442
 1.9910	66.2814
 1.9900	66.3566
 1.9890	66.3179
 1.9880	66.2957
 1.9870	66.2637
 1.9860	66.2523
 1.9850	66.3020
 1.9840	66.3066
 1.9830	66.2594
 1.9820	66.2733
 1.9810	66.2635
 1.9800	66.2408
 1.9790	66.1296
 1.9780	66.1864
 1.9770	66.1051
 1.9760	66.1808
 1.9750	66.1146
 1.9740	66.1629
 1.9730	66.1341
 1.9720	66.0858
 1.9710	66.1080
 1.9700	66.1093
 1.9690	66.0652
 1.9680	66.1346
 1.9670	66.1630
 1.9660	66.1133
 1.9650	66.0665
 1.9640	66.1011
 1.9630	65.9743
 1.9620	66.0198
 1.9610	65.9940
 1.9600	66.1046
 1.9590	66.0139
 1.9580	65.9764
 1.9570	65.9932
 1.9560	65.9673
 1.9550	65.9332
 1.9540	66.1174
 1.9530	65.9918
 1.9520	65.9823
 1.9510	65.9765
 1.9500	66.0433
 1.9490	65.9892
 1.9480	65.9741
 1.9470	65.9124
 1.9460	65.9527
 1.9450	65.9938
 1.9440	65.9424
 1.9430	65.8889
 1.9420	65.9380
 1.9410	65.9330
 1.9400	65.9027
 1.9390	65.8541
 1.9380	65.9261
 1.9370	65.9593
 1.9360	65.9761
 1.9350	65.9346
 1.9340	65.8759
 1.9330	65.8593
 1.9320	65.9287
 1.9310	65.8607
 1.9300	65.8932
 1.9290	65.8909
 1.9280	65.8962
 1.9270	65.9003
 1.9260	65.8709
 1.9250	65.8889
 1.9240	65.9275
 1.9230	65.8771
 1.9220	65.9126
 1.9210	65.9051
 1.9200	65.8150
 1.9190	65.8423
 1.9180	65.9363
 1.9170	65.8814
 1.9160	65.9938
 1.9150	65.8811
 1.9140	65.8876
 1.9130	65.8660
 1.9120	66.0229
 1.9110	65.9560
 1.9100	65.9729
 1.9090	65.9383
 1.9080	66.0182
 1.9070	65.9324
 1.9060	65.9954
 1.9050	66.0040
 1.9040	65.9536
 1.9030	65.8807
 1.9020	65.9991
 1.9010	65.9455
 1.9000	66.0024
 1.8990	66.0284
 1.8980	66.0279
 1.8970	66.0694
 1.8960	66.0501
 1.8950	66.0444
 1.8940	66.1328
 1.8930	66.1124
 1.8920	66.0731
 1.8910	66.0437
 1.8900	66.1039
 1.8890	66.1015
 1.8880	66.1026
 1.8870	66.0749
 1.8860	66.0993
 1.8850	66.1348
 1.8840	66.1153
 1.8830	66.1188
 1.8820	66.1853
 1.8810	66.1585
 1.8800	66.1675
 1.8790	66.1111
 1.8780	66.1957
 1.8770	66.1904
 1.8760	66.1724
 1.8750	66.1807
 1.8740	66.1103
 1.8730	66.1334
 1.8720	66.0718
 1.8710	66.0785
 1.8700	66.0878
 1.8690	66.0305
 1.8680	65.9889
 1.8670	66.0123
 1.8660	66.0453
 1.8650	66.0758
 1.8640	66.0642
 1.8630	66.0252
 1.8620	66.1635
 1.8610	66.1581
 1.8600	66.0215
 1.8590	66.0867
 1.8580	66.0719
 1.8570	66.0417
 1.8560	65.9979
 1.8550	66.0617
 1.8540	66.1512
 1.8530	66.0586
 1.8520	66.0452
 1.8510	66.0288
 1.8500	66.0591
 1.8490	66.0376
 1.8480	66.0507
 1.8470	66.0551
 1.8460	66.0025
 1.8450	65.9777
 1.8440	66.0022
 1.8430	65.9972
 1.8420	66.1009
 1.8410	66.0082
 1.8400	66.0778
 1.8390	66.0360
 1.8380	65.9833
 1.8370	65.9433
 1.8360	65.9301
 1.8350	65.9252
 1.8340	65.9641
 1.8330	65.9368
 1.8320	65.9578
 1.8310	65.9532
 1.8300	65.8917
 1.8290	65.8566
 1.8280	65.8937
 1.8270	65.9003
 1.8260	65.8417
 1.8250	65.8416
 1.8240	65.8511
 1.8230	65.8576
 1.8220	65.8677
 1.8210	65.8585
 1.8200	65.8736
 1.8190	65.8204
 1.8180	65.8476
 1.8170	65.8044
 1.8160	65.7833
 1.8150	65.7619
 1.8140	65.8202
 1.8130	65.7846
 1.8120	65.7796
 1.8110	65.7922
 1.8100	65.8011
 1.8090	65.7342
 1.8080	65.7046
 1.8070	65.7070
 1.8060	65.6940
 1.8050	65.6655
 1.8040	65.6995
 1.8030	65.7341
 1.8020	65.7096
 1.8010	65.6374
 1.8000	65.6662
 1.7990	65.6712
 1.7980	65.6119
 1.7970	65.6172
 1.7960	65.6300
 1.7950	65.6332
 1.7940	65.6121
 1.7930	65.5555
 1.7920	65.5236
 1.7910	65.5127
 1.7900	65.5247
 1.7890	65.5052
 1.7880	65.4598
 1.7870	65.4601
 1.7860	65.4685
 1.7850	65.4841
 1.7840	65.4738
 1.7830	65.4175
 1.7820	65.3415
 1.7810	65.3081
 1.7800	65.3705
 1.7790	65.3762
 1.7780	65.3485
 1.7770	65.3345
 1.7760	65.3170
 1.7750	65.3305
 1.7740	65.2774
 1.7730	65.2632
 1.7720	65.2564
 1.7710	65.2273
 1.7700	65.2302
 1.7690	65.2791
 1.7680	65.2518
 1.7670	65.2044
 1.7660	65.1534
 1.7650	65.1587
 1.7640	65.1634
 1.7630	65.1514
 1.7620	65.1031
 1.7610	65.0962
 1.7600	65.1018
 1.7590	65.1051
 1.7580	65.0828
 1.7570	65.0493
 1.7560	65.0367
 1.7550	65.1289
 1.7540	65.0926
 1.7530	65.0351
 1.7520	65.0442
 1.7510	65.0662
 1.7500	65.0034
 1.7490	64.9782
 1.7480	64.9794
 1.7470	64.9853
 1.7460	64.9793
 1.7450	64.9605
 1.7440	64.9499
 1.7430	64.9783
 1.7420	64.9223
 1.7410	64.9226
 1.7400	64.9591
 1.7390	64.9588
 1.7380	64.9047
 1.7370	64.9247
 1.7360	64.9177
 1.7350	64.8539
 1.7340	64.8676
 1.7330	64.9156
 1.7320	64.8865
 1.7310	64.8307
 1.7300	64.8479
 1.7290	64.8559
 1.7280	64.8625
 1.7270	64.8343
 1.7260	64.7826
 1.7250	64.7806
 1.7240	64.7628
 1.7230	64.7453
 1.7220	64.8090
 1.7210	64.8081
 1.7200	64.7778
 1.7190	64.7432
 1.7180	64.7253
 1.7170	64.7058
 1.7160	64.7019
 1.7150	64.6610
 1.7140	64.7234
 1.7130	64.6912
 1.7120	64.7089
 1.7110	64.6255
 1.7100	64.5541
 1.7090	64.6612
 1.7080	64.5667
 1.7070	64.5369
 1.7060	64.5768
 1.7050	64.5233
 1.7040	64.5270
 1.7030	64.4940
 1.7020	64.5065
 1.7010	64.6006
 1.7000	64.4732
 1.6990	64.5156
 1.6980	64.4345
 1.6970	64.4885
 1.6960	64.4468
 1.6950	64.4365
 1.6940	64.4234
 1.6930	64.4628
 1.6920	64.4322
 1.6910	64.3751
 1.6900	64.3859
 1.6890	64.3840
 1.6880	64.3854
 1.6870	64.3783
 1.6860	64.3492
 1.6850	64.2903
 1.6840	64.3108
 1.6830	64.4073
 1.6820	64.2704
 1.6810	64.3567
 1.6800	64.2587
 1.6790	64.2334
 1.6780	64.2028
 1.6770	64.2577
 1.6760	64.2875
 1.6750	64.3367
 1.6740	64.2498
 1.6730	64.2753
 1.6720	64.2708
 1.6710	64.2754
 1.6700	64.1659
 1.6690	64.1225
 1.6680	64.1581
 1.6670	64.1960
 1.6660	64.2108
 1.6650	64.1561
 1.6640	64.1232
 1.6630	64.1466
 1.6620	64.0933
 1.6610	64.1233
 1.6600	64.0963
 1.6590	64.0576
 1.6580	64.1047
 1.6570	64.0358
 1.6560	64.0489
 1.6550	64.0276
 1.6540	63.9819
 1.6530	64.0238
 1.6520	63.9452
 1.6510	64.0352
 1.6500	63.9820
 1.6490	63.8901
 1.6480	63.8439
 1.6470	63.9106
 1.6460	63.8860
 1.6450	63.9282
 1.6440	63.9254
 1.6430	63.9543
 1.6420	63.9280
 1.6410	63.8455
 1.6400	63.8722
 1.6390	63.8816
 1.6380	63.7315
 1.6370	63.8682
 1.6360	63.8738
 1.6350	63.8361
 1.6340	63.8088
 1.6330	63.7622
 1.6320	63.8026
 1.6310	63.7544
 1.6300	63.7497
 1.6290	63.7658
 1.6280	63.7610
 1.6270	63.7548
 1.6260	63.7005
 1.6250	63.7069
 1.6240	63.6062
 1.6230	63.6345
 1.6220	63.6321
 1.6210	63.6428
 1.6200	63.6327
 1.6190	63.6834
 1.6180	63.5916
 1.6170	63.6507
 1.6160	63.4456
 1.6150	63.5634
 1.6140	63.4451
 1.6130	63.5204
 1.6120	63.5120
 1.6110	63.5184
 1.6100	63.4817
 1.6090	63.4557
 1.6080	63.4303
 1.6070	63.4527
 1.6060	63.4410
 1.6050	63.4270
 1.6040	63.3695
 1.6030	63.4030
 1.6020	63.3783
 1.6010	63.3200
 1.6000	63.2986
 1.5990	63.3591
 1.5980	63.2697
 1.5970	63.2842
 1.5960	63.2496
 1.5950	63.2203
 1.5940	63.2232
 1.5930	63.1796
 1.5920	63.1455
 1.5910	63.2018
 1.5900	63.1184
 1.5890	63.1003
 1.5880	63.0325
 1.5870	63.0417
 1.5860	63.0178
 1.5850	63.0154
 1.5840	62.9632
 1.5830	62.9962
 1.5820	62.9287
 1.5810	62.9506
 1.5800	62.9380
 1.5790	62.9137
 1.5780	62.8283
 1.5770	62.8216
 1.5760	62.8374
 1.5750	62.8043
 1.5740	62.7890
 1.5730	62.7808
 1.5720	62.6904
 1.5710	62.6567
 1.5700	62.6841
 1.5690	62.6118
 1.5680	62.6079
 1.5670	62.6487
 1.5660	62.5487
 1.5650	62.5680
 1.5640	62.5384
 1.5630	62.5419
 1.5620	62.4869
 1.5610	62.4593
 1.5600	62.4151
 1.5590	62.3660
 1.5580	62.3341
 1.5570	62.3279
 1.5560	62.3485
 1.5550	62.3174
 1.5540	62.2488
 1.5530	62.2816
 1.5520	62.2061
 1.5510	62.2069
 1.5500	62.2104
 1.5490	62.0835
 1.5480	62.0571
 1.5470	62.1115
 1.5460	62.0532
 1.5450	62.0095
 1.5440	61.9438
 1.5430	61.9679
 1.5420	61.9130
 1.5410	61.8612
 1.5400	61.8918
 1.5390	61.8852
 1.5380	61.8369
 1.5370	61.8145
 1.5360	61.8061
 1.5350	61.7316
 1.5340	61.6933
 1.5330	61.6462
 1.5320	61.6166
 1.5310	61.6176
 1.5300	61.5777
 1.5290	61.5702
 1.5280	61.5333
 1.5270	61.5067
 1.5260	61.4549
 1.5250	61.3985
 1.5240	61.3529
 1.5230	61.3016
 1.5220	61.2697
 1.5210	61.2577
 1.5200	61.2337
 1.5190	61.2565
 1.5180	61.1929
 1.5170	61.0965
 1.5160	61.0568
 1.5150	61.1056
 1.5140	60.9834
 1.5130	60.8916
 1.5120	60.9258
 1.5110	60.8987
 1.5100	60.8622
 1.5090	60.8592
 1.5080	60.8621
 1.5070	60.8514
 1.5060	60.7699
 1.5050	60.7283
 1.5040	60.7464
 1.5030	60.7111
 1.5020	60.6306
 1.5010	60.6072
 1.5000	60.5856
 1.4990	60.5438
 1.4980	60.5286
 1.4970	60.4489
 1.4960	60.3685
 1.4950	60.3680
 1.4940	60.3566
 1.4930	60.2982
 1.4920	60.2531
 1.4910	60.2440
 1.4900	60.2136
 1.4890	60.1266
 1.4880	60.1074
 1.4870	60.1097
 1.4860	60.0702
 1.4850	60.0342
 1.4840	59.9842
 1.4830	59.9579
 1.4820	59.9362
 1.4810	59.8827
 1.4800	59.8258
 1.4790	59.7909
 1.4780	59.7959
 1.4770	59.7373
 1.4760	59.6891
 1.4750	59.6067
 1.4740	59.6184
 1.4730	59.5697
 1.4720	59.4639
 1.4710	59.4323
 1.4700	59.4962
 1.4690	59.4439
 1.4680	59.4020
 1.4670	59.3397
 1.4660	59.3092
 1.4650	59.2580
 1.4640	59.2234
 1.4630	59.2089
 1.4620	59.1638
 1.4610	59.1269
 1.4600	59.0734
 1.4590	59.0775
 1.4580	59.0431
 1.4570	58.9534
 1.4560	58.9102
 1.4550	58.8632
 1.4540	58.8857
 1.4530	58.8665
 1.4520	58.7818
 1.4510	58.7219
 1.4500	58.7730
 1.4490	58.6858
 1.4480	58.6227
 1.4470	58.5791
 1.4460	58.5239
 1.4450	58.5073
 1.4440	58.4945
 1.4430	58.4430
 1.4420	58.4404
 1.4410	58.4146
 1.4400	58.3837
 1.4390	58.3506
 1.4380	58.3123
 1.4370	58.2196
 1.4360	58.2267
 1.4350	58.1628
 1.4340	58.2242
 1.4330	58.1035
 1.4320	58.1103
 1.4310	58.0126
 1.4300	58.0301
 1.4290	57.9358
 1.4280	57.9532
 1.4270	57.8871
 1.4260	57.7931
 1.4250	57.7843
 1.4240	57.7525
 1.4230	57.7142
 1.4220	57.7468
 1.4210	57.6390
 1.4200	57.6866
 1.4190	57.5586
 1.4180	57.5617
 1.4170	57.5128
 1.4160	57.5188
 1.4150	57.4986
 1.4140	57.5261
 1.4130	57.4436
 1.4120	57.4200
 1.4110	57.3117
 1.4100	57.3590
 1.4090	57.2903
 1.4080	57.3289
 1.4070	57.2235
 1.4060	57.2544
 1.4050	57.1488
 1.4040	57.0933
 1.4030	57.1646
 1.4020	57.1927
 1.4010	57.0468
 1.4000	56.9613
 1.3990	56.9991
 1.3980	57.0377
 1.3970	56.9169
 1.3960	56.9982
 1.3950	56.8686
 1.3940	56.8736
 1.3930	56.7630
 1.3920	56.8182
 1.3910	56.8063
 1.3900	56.8465
 1.3890	56.7072
 1.3880	56.7539
 1.3870	56.6535
 1.3860	56.5982
 1.3850	56.5797
 1.3840	56.6905
 1.3830	56.6024
 1.3820	56.5456
 1.3810	56.4782
 1.3800	56.5578
 1.3790	56.4968
 1.3780	56.5783
 1.3770	56.4066
 1.3760	56.5024
 1.3750	56.3545
 1.3740	56.3791
 1.3730	56.2609
 1.3720	56.4153
 1.3710	56.2678
 1.3700	56.2579
 1.3690	56.2342
 1.3680	56.2266
 1.3670	56.1643
 1.3660	56.1776
 1.3650	56.1177
 1.3640	56.0996
 1.3630	56.0228
 1.3620	56.0537
 1.3610	55.9263
 1.3600	56.0266
 1.3590	55.9292
 1.3580	56.0679
 1.3570	56.0031
 1.3560	55.9875
 1.3550	55.8254
 1.3540	55.9079
 1.3530	55.8002
 1.3520	55.8368
 1.3510	55.9202
 1.3500	55.7913
 1.3490	55.7691
 1.3480	55.7635
 1.3470	55.7240
 1.3460	55.7150
 1.3450	55.6299
 1.3440	55.6962
 1.3430	55.5951
 1.3420	55.6013
 1.3410	55.5582
 1.3400	55.5988
 1.3390	55.5380
 1.3380	55.5845
 1.3370	55.5047
 1.3360	55.5514
 1.3350	55.4954
 1.3340	55.5163
 1.3330	55.4321
 1.3320	55.4546
 1.3310	55.3399
 1.3300	55.4472
 1.3290	55.3717
 1.3280	55.3877
 1.3270	55.3312
 1.3260	55.4383
 1.3250	55.3408
 1.3240	55.2458
 1.3230	55.3592
 1.3220	55.2676
 1.3210	55.2353
 1.3200	55.3156
 1.3190	55.2582
 1.3180	55.2318
 1.3170	55.2229
 1.3160	55.2677
 1.3150	55.2557
 1.3140	55.2837
 1.3130	55.1208
 1.3120	55.1539
 1.3110	55.1369
 1.3100	55.1496
 1.3090	55.1136
 1.3080	55.1620
 1.3070	55.0454
 1.3060	55.1129
 1.3050	55.1080
 1.3040	55.0418
 1.3030	55.0277
 1.3020	55.0980
 1.3010	55.0677
 1.3000	55.0515
 1.2990	55.0509
 1.2980	55.0815
 1.2970	55.0154
 1.2960	55.0175
 1.2950	55.0079
 1.2940	54.9942
 1.2930	54.9999
 1.2920	55.0074
 1.2910	54.9920
 1.2900	55.0058
 1.2890	54.9576
 1.2880	54.9429
 1.2870	55.0054
 1.2860	55.0120
 1.2850	54.9438
 1.2840	54.9235
 1.2830	54.9281
 1.2820	54.9206
 1.2810	54.9158
 1.2800	54.9129
 1.2790	54.8999
 1.2780	55.0031
 1.2770	55.0153
 1.2760	54.9634
 1.2750	54.9394
 1.2740	55.0015
 1.2730	54.9491
 1.2720	54.9099
 1.2710	54.9446
 1.2700	55.0142
 1.2690	54.9702
 1.2680	54.9663
 1.2670	54.9735
 1.2660	54.9368
 1.2650	54.9481
 1.2640	54.9893
 1.2630	54.9751
 1.2620	54.9912
 1.2610	54.9997
 1.2600	54.9220
 1.2590	54.9335
 1.2580	54.9683
 1.2570	54.9790
 1.2560	54.9864
 1.2550	54.9655
 1.2540	55.0253
 1.2530	55.0204
 1.2520	55.0304
 1.2510	54.9995
 1.2500	54.9744
 1.2490	55.0365
 1.2480	55.0569
 1.2470	55.0371
 1.2460	55.0410
 1.2450	55.0089
 1.2440	55.0754
 1.2430	55.1626
 1.2420	55.1435
 1.2410	55.0902
 1.2400	55.1074
 1.2390	55.1408
 1.2380	55.1029
 1.2370	55.1263
 1.2360	55.1240
 1.2350	55.1061
 1.2340	55.1565
 1.2330	55.1681
 1.2320	55.1696
 1.2310	55.1808
 1.2300	55.2270
 1.2290	55.2380
 1.2280	55.2358
 1.2270	55.2405
 1.2260	55.2805
 1.2250	55.2905
 1.2240	55.2994
 1.2230	55.3011
 1.2220	55.3367
 1.2210	55.3718
 1.2200	55.3666
 1.2190	55.3845
 1.2180	55.4088
 1.2170	55.4141
 1.2160	55.4816
 1.2150	55.4850
 1.2140	55.4970
 1.2130	55.5275
 1.2120	55.5508
 1.2110	55.5725
 1.2100	55.5814
 1.2090	55.5864
 1.2080	55.6279
 1.2070	55.6674
 1.2060	55.7038
 1.2050	55.7015
 1.2040	55.7234
 1.2030	55.7716
 1.2020	55.7443
 1.2010	55.7754
 1.2000	55.7785
 1.1990	55.8001
 1.1980	55.8239
 1.1970	55.8655
 1.1960	55.8736
 1.1950	55.8990
 1.1940	55.9422
 1.1930	55.9415
 1.1920	55.9832
 1.1910	56.0807
 1.1900	56.0770
 1.1890	56.0511
 1.1880	56.0636
 1.1870	56.1772
 1.1860	56.2175
 1.1850	56.2539
 1.1840	56.2653
 1.1830	56.2710
 1.1820	56.2532
 1.1810	56.3153
 1.1800	56.3526
 1.1790	56.3956
 1.1780	56.4299
 1.1770	56.4498
 1.1760	56.4580
 1.1750	56.5676
 1.1740	56.6394
 1.1730	56.6067
 1.1720	56.6195
 1.1710	56.6694
 1.1700	56.7061
 1.1690	56.7605
 1.1680	56.7614
 1.1670	56.8325
 1.1660	56.8619
 1.1650	56.9136
 1.1640	56.9799
 1.1630	56.9725
 1.1620	56.9798
 1.1610	57.0384
 1.1600	57.1007
 1.1590	57.1684
 1.1580	57.1713
 1.1570	57.2119
 1.1560	57.2605
 1.1550	57.2515
 1.1540	57.3168
 1.1530	57.3889
 1.1520	57.4229
 1.1510	57.4716
 1.1500	57.4603
 1.1490	57.6087
 1.1480	57.5930
 1.1470	57.6151
 1.1460	57.5837
 1.1450	57.7246
 1.1440	57.7927
 1.1430	57.8097
 1.1420	57.8862
 1.1410	57.9518
 1.1400	57.9641
 1.1390	58.0605
 1.1380	58.0850
 1.1370	58.1370
 1.1360	58.1239
 1.1350	58.2438
 1.1340	58.2698
 1.1330	58.2635
 1.1320	58.3831
 1.1310	58.3745
 1.1300	58.4584
 1.1290	58.5665
 1.1280	58.5153
 1.1270	58.5966
 1.1260	58.5947
 1.1250	58.7286
 1.1240	58.7457
 1.1230	58.7677
 1.1220	58.8537
 1.1210	58.9129
 1.1200	59.0004
 1.1190	59.0274
 1.1180	59.0871
 1.1170	59.0990
 1.1160	59.1010
 1.1150	59.2697
 1.1140	59.2858
 1.1130	59.4100
 1.1120	59.3725
 1.1110	59.4864
 1.1100	59.5240
 1.1090	59.5982
 1.1080	59.6384
 1.1070	59.7741
 1.1060	59.7383
 1.1050	59.8681
 1.1040	59.8322
 1.1030	59.9037
 1.1020	60.0120
 1.1010	60.0416
 1.1000	60.1176
 1.0990	60.1883
 1.0980	60.2227
 1.0970	60.3010
 1.0960	60.2921
 1.0950	60.4467
 1.0940	60.4232
 1.0930	60.5547
 1.0920	60.5659
 1.0910	60.6963
 1.0900	60.6944
 1.0890	60.7776
 1.0880	60.7934
 1.0870	60.9580
 1.0860	60.9318
 1.0850	61.0231
 1.0840	61.1065
 1.0830	61.2577
 1.0820	61.2378
 1.0810	61.3058
 1.0800	61.3369
 1.0790	61.4648
 1.0780	61.5121
 1.0770	61.5703
 1.0760	61.5219
 1.0750	61.7553
 1.0740	61.8253
 1.0730	61.8584
 1.0720	61.8863
 1.0710	62.0302
 1.0700	61.9732
 1.0690	62.1489
 1.0680	62.1651
 1.0670	62.2643
 1.0660	62.3126
 1.0650	62.3528
 1.0640	62.3627
 1.0630	62.5523
 1.0620	62.5545
 1.0610	62.7058
 1.0600	62.7090
 1.0590	62.7851
 1.0580	62.8988
 1.0570	62.9614
 1.0560	62.9721
 1.0550	63.1539
 1.0540	63.1256
 1.0530	63.2634
 1.0520	63.2713
 1.0510	63.4159
 1.0500	63.3750
 1.0490	63.5382
 1.0480	63.5935
 1.0470	63.7519
 1.0460	63.7262
 1.0450	63.8405
 1.0440	63.9180
 1.0430	64.0105
 1.0420	64.0137
 1.0410	64.0584
 1.0400	64.1287
 1.0390	64.3406
 1.0380	64.3332
 1.0370	64.3824
 1.0360	64.4473
 1.0350	64.4702
 1.0340	64.6552
 1.0330	64.6969
 1.0320	64.7808
 1.0310	64.8509
 1.0300	64.8671
 1.0290	65.0168
 1.0280	65.0528
 1.0270	65.1190
 1.0260	65.2060
 1.0250	65.3256
 1.0240	65.3054
 1.0230	65.3958
 1.0220	65.4527
 1.0210	65.6195
 1.0200	65.7734
 1.0190	65.8060
 1.0180	65.9005
 1.0170	65.9431
 1.0160	65.9435
 1.0150	66.0907
 1.0140	66.1319
 1.0130	66.2085
 1.0120	66.2646
 1.0110	66.3455
 1.0100	66.3818
 1.0090	66.4874
 1.0080	66.6149
 1.0070	66.6924
 1.0060	66.7360
 1.0050	66.7983
 1.0040	66.8321
 1.0030	66.9438
 1.0020	67.0425
 1.0010	67.1129
 1.0000	67.1598
 0.9990	67.1853
 0.9980	67.3494
 0.9970	67.4429
 0.9960	67.4345
 0.9950	67.5363
 0.9940	67.6047
 0.9930	67.6886
 0.9920	67.7504
 0.9910	67.8102
 0.9900	67.8736
 0.9890	67.9820
 0.9880	68.0497
 0.9870	68.1376
 0.9860	68.2334
 0.9850	68.2837
 0.9840	68.3557
 0.9830	68.3953
 0.9820	68.4695
 0.9810	68.5620
 0.9800	68.6125
 0.9790	68.7448
 0.9780	68.7878
 0.9770	68.9002
 0.9760	68.9325
 0.9750	69.0092
 0.9740	69.0977
 0.9730	69.1630
 0.9720	69.2201
 0.9710	69.2356
 0.9700	69.3284
 0.9690	69.4189
 0.9680	69.5100
 0.9670	69.5743
 0.9660	69.6008
 0.9650	69.7134
 0.9640	69.7699
 0.9630	69.8504
 0.9620	69.8751
 0.9610	70.0108
 0.9600	70.0734
 0.9590	70.0921
 0.9580	70.1811
 0.9570	70.2890
 0.9560	70.3585
 0.9550	70.3986
 0.9540	70.3858
 0.9530	70.5018
 0.9520	70.6178
 0.9510	70.6617
 0.9500	70.6605
 0.9490	70.8023
 0.9480	70.9574
 0.9470	70.9750
 0.9460	70.9809
 0.9450	71.0572
 0.9440	71.1672
 0.9430	71.2508
 0.9420	71.3106
 0.9410	71.3669
 0.9400	71.4078
 0.9390	71.4086
 0.9380	71.4407
 0.9370	71.5787
 0.9360	71.6982
 0.9350	71.7067
 0.9340	71.7267
 0.9330	71.8285
 0.9320	71.9238
 0.9310	71.9856
 0.9300	72.0247
 0.9290	72.0634
 0.9280	72.0990
 0.9270	72.1725
 0.9260	72.2428
 0.9250	72.2761
 0.9240	72.3059
 0.9230	72.3773
 0.9220	72.4830
 0.9210	72.5421
 0.9200	72.5617
 0.9190	72.6499
 0.9180	72.7665
 0.9170	72.7736
 0.9160	72.7982
 0.9150	72.8889
 0.9140	72.9563
 0.9130	72.9416
 0.9120	73.0193
 0.9110	73.0855
 0.9100	73.1091
 0.9090	73.1440
 0.9080	73.2383
 0.9070	73.3320
 0.9060	73.3359
 0.9050	73.3796
 0.9040	73.4429
 0.9030	73.4311
 0.9020	73.4744
 0.9010	73.5773
 0.9000	73.6223
 0.8990	73.6584
 0.8980	73.7180
 0.8970	73.7475
 0.8960	73.7523
 0.8950	73.8221
 0.8940	73.8836
 0.8930	73.8733
 0.8920	73.9527
 0.8910	73.9902
 0.8900	73.9625
 0.8890	74.0263
 0.8880	74.1147
 0.8870	74.1690
 0.8860	74.1880
 0.8850	74.2457
 0.8840	74.4143
 0.8830	74.3778
 0.8820	74.3543
 0.8810	74.3774
 0.8800	74.4470
 0.8790	74.4634
 0.8780	74.4821
 0.8770	74.5330
 0.8760	74.5493
 0.8750	74.5956
 0.8740	74.6361
 0.8730	74.6634
 0.8720	74.6828
 0.8710	74.7183
 0.8700	74.7018
 0.8690	74.7630
 0.8680	74.8215
 0.8670	74.7797
 0.8660	74.8728
 0.8650	74.9268
 0.8640	74.9527
 0.8630	74.9861
 0.8620	75.0718
 0.8610	75.0388
 0.8600	75.2670
 0.8590	75.2984
 0.8580	75.3921
 0.8570	75.4831
 0.8560	75.3928
 0.8550	75.4719
 0.8540	75.5751
 0.8530	75.5100
 0.8520	75.5490
 0.8510	75.6061
 0.8500	75.6232
 0.8490	75.7124
 0.8480	75.6838
 0.8470	75.6479
 0.8460	75.7720
 0.8450	75.8430
 0.8440	75.8142
 0.8430	75.8128
 0.8420	75.8854
 0.8410	75.8768
 0.8400	75.9079
 0.8390	75.9512
 0.8380	75.9665
 0.8370	75.9971
 0.8360	76.0209
 0.8350	76.0410
 0.8340	76.0276
 0.8330	76.0597
 0.8320	76.1457
 0.8310	76.1437
 0.8300	76.1496
 0.8290	76.1903
 0.8280	76.1713
 0.8270	76.1952
 0.8260	76.2300
 0.8250	76.2309
 0.8240	76.2731
 0.8230	76.3267
 0.8220	76.3639
 0.8210	76.3197
 0.8200	76.3815
 0.8190	76.4019
 0.8180	76.3512
 0.8170	76.4144
 0.8160	76.4617
 0.8150	76.4341
 0.8140	76.4332
 0.8130	76.5069
 0.8120	76.4809
 0.8110	76.5457
 0.8100	76.5742
 0.8090	76.5332
 0.8080	76.5480
 0.8070	76.5330
 0.8060	76.5668
 0.8050	76.6325
 0.8040	76.6292
 0.8030	76.5914
 0.8020	76.6430
 0.8010	76.7008
 0.8000	76.6851
 0.7990	76.6463
 0.7980	76.6731
 0.7970	76.6436
 0.7960	76.6408
 0.7950	76.6777
 0.7940	76.6607
 0.7930	76.6473
 0.7920	76.6581
 0.7910	76.7030
 0.7900	76.7157
 0.7890	76.7285
 0.7880	76.7148
 0.7870	76.7412
 0.7860	76.7411
 0.7850	76.7603
 0.7840	76.7802
 0.7830	76.7594
 0.7820	76.7444
 0.7810	76.7555
 0.7800	76.7511
 0.7790	76.8019
 0.7780	76.7301
 0.7770	76.7161
 0.7760	76.7577
 0.7750	76.7719
 0.7740	76.7337
 0.7730	76.7476
 0.7720	76.7618
 0.7710	76.7700
 0.7700	76.7762
 0.7690	76.7733
 0.7680	76.7610
 0.7670	76.7769
 0.7660	76.7826
 0.7650	76.7805
 0.7640	76.7852
 0.7630	76.7889
 0.7620	76.7651
 0.7610	76.8039
 0.7600	76.7872
 0.7590	76.7919
 0.7580	76.7728
 0.7570	76.7519
 0.7560	76.7924
 0.7550	76.7863
 0.7540	76.8200
 0.7530	76.7864
 0.7520	76.7791
 0.7510	76.7876
 0.7500	76.7737
 0.7490	76.7912
 0.7480	76.7942
 0.7470	76.7685
 0.7460	76.7787
 0.7450	76.7349
 0.7440	76.7635
 0.7430	76.7774
 0.7420	76.7342
 0.7410	76.7501
 0.7400	76.7236
 0.7390	76.7534
 0.7380	76.7177
 0.7370	76.7364
 0.7360	76.7176
 0.7350	76.7337
 0.7340	76.7293
 0.7330	76.7102
 0.7320	76.7049
 0.7310	76.6973
 0.7300	76.6883
 0.7290	76.7018
 0.7280	76.7006
 0.7270	76.6996
 0.7260	76.6725
 0.7250	76.6780
 0.7240	76.6827
 0.7230	76.6908
 0.7220	76.6818
 0.7210	76.6528
 0.7200	76.6268
 0.7190	76.6111
 0.7180	76.6076
 0.7170	76.6279
 0.7160	76.6125
 0.7150	76.5843
 0.7140	76.5851
 0.7130	76.5820
 0.7120	76.5921
 0.7110	76.5893
 0.7100	76.5767
 0.7090	76.5568
 0.7080	76.5307
 0.7070	76.5324
 0.7060	76.5228
 0.7050	76.5063
 0.7040	76.5056
 0.7030	76.4851
 0.7020	76.4927
 0.7010	76.4823
 0.7000	76.4571
 0.6990	76.4743
 0.6980	76.4382
 0.6970	76.4280
 0.6960	76.4308
 0.6950	76.4186
 0.6940	76.3943
 0.6930	76.3990
 0.6920	76.3786
 0.6910	76.3495
 0.6900	76.3482
 0.6890	76.3327
 0.6880	76.3184
 0.6870	76.3029
 0.6860	76.2945
 0.6850	76.2679
 0.6840	76.2425
 0.6830	76.2336
 0.6820	76.2270
 0.6810	76.2132
 0.6800	76.1895
 0.6790	76.1561
 0.6780	76.1417
 0.6770	76.1385
 0.6760	76.1220
 0.6750	76.0787
 0.6740	76.0534
 0.6730	76.0376
 0.6720	76.0123
 0.6710	75.9932
 0.6700	75.9493
 0.6690	75.9074
 0.6680	75.8896
 0.6670	75.8687
 0.6660	75.8313
 0.6650	75.8134
 0.6640	75.7895
 0.6630	75.7488
 0.6620	75.7225
 0.6610	75.6954
 0.6600	75.6897
 0.6590	75.6698
 0.6580	75.6327
 0.6570	75.6176
 0.6560	75.5861
 0.6550	75.5659
 0.6540	75.5498
 0.6530	75.5230
 0.6520	75.5076
 0.6510	75.4799
 0.6500	75.4590
 0.6490	75.4541
 0.6480	75.4368
 0.6470	75.4061
 0.6460	75.3806
 0.6450	75.3707
 0.6440	75.3416
 0.6430	75.3193
 0.6420	75.3135
 0.6410	75.2957
 0.6400	75.2789
 0.6390	75.2681
 0.6380	75.2457
 0.6370	75.2306
 0.6360	75.2199
 0.6350	75.2010
 0.6340	75.1986
 0.6330	75.1830
 0.6320	75.1477
 0.6310	75.1443
 0.6300	75.1336
 0.6290	75.1027
 0.6280	75.0852
 0.6270	75.0692
 0.6260	75.0593
 0.6250	75.0368
 0.6240	75.0223
 0.6230	74.9945
 0.6220	74.9738
 0.6210	74.9646
 0.6200	74.9485
 0.6190	74.9150
 0.6180	74.8921
 0.6170	74.8714
 0.6160	74.8510
 0.6150	74.8411
 0.6140	74.8226
 0.6130	74.7835
 0.6120	74.7640
 0.6110	74.7456
 0.6100	74.7120
 0.6090	74.6742
 0.6080	74.6374
 0.6070	74.6135
 0.6060	74.6031
 0.6050	74.5849
 0.6040	74.5570
 0.6030	74.5332
 0.6020	74.5003
 0.6010	74.4753
 0.6000	74.4421
 0.5990	74.4372
 0.5980	74.4214
 0.5970	74.4073
 0.5960	74.3992
 0.5950	74.3836
 0.5940	74.3389
 0.5930	74.3102
 0.5920	74.2988
 0.5910	74.2787
 0.5900	74.2467
 0.5890	74.2206
 0.5880	74.2012
 0.5870	74.1856
 0.5860	74.1456
 0.5850	74.1237
 0.5840	74.0893
 0.5830	74.0660
 0.5820	74.0364
 0.5810	74.0108
 0.5800	73.9821
 0.5790	73.9559
 0.5780	73.9144
 0.5770	73.8923
 0.5760	73.8967
 0.5750	73.8668
 0.5740	73.8302
 0.5730	73.8083
 0.5720	73.7874
 0.5710	73.7723
 0.5700	73.7400
 0.5690	73.7013
 0.5680	73.6732
 0.5670	73.6466
 0.5660	73.6150
 0.5650	73.5840
 0.5640	73.5634
 0.5630	73.5347
 0.5620	73.5101
 0.5610	73.4605
 0.5600	73.4093
 0.5590	73.3694
 0.5580	73.3457
 0.5570	73.3003
 0.5560	73.2675
 0.5550	73.2319
 0.5540	73.1870
 0.5530	73.1392
 0.5520	73.1133
 0.5510	73.0763
 0.5500	73.0184
 0.5490	72.9829
 0.5480	72.9366
 0.5470	72.8780
 0.5460	72.8317
 0.5450	72.7867
 0.5440	72.7266
 0.5430	72.6911
 0.5420	72.6185
 0.5410	72.5606
 0.5400	72.4983
 0.5390	72.4444
 0.5380	72.3927
 0.5370	72.3436
 0.5360	72.2820
 0.5350	72.2187
 0.5340	72.1550
 0.5330	72.0945
 0.5320	72.0326
 0.5310	71.9890
 0.5300	71.9081
 0.5290	71.8473
 0.5280	71.7800
 0.5270	71.6933
 0.5260	71.6457
 0.5250	71.5736
 0.5240	71.4919
 0.5230	71.4298
 0.5220	71.3629
 0.5210	71.2937
 0.5200	71.2179
 0.5190	71.1496
 0.5180	71.0738
 0.5170	71.0185
 0.5160	70.9605
 0.5150	70.8817
 0.5140	70.8064
 0.5130	70.7362
 0.5120	70.6593
 0.5110	70.5821
 0.5100	70.5025
 0.5090	70.4427
 0.5080	70.3723
 0.5070	70.3054
 0.5060	70.2287
 0.5050	70.1548
 0.5040	70.0787
 0.5030	70.0466
 0.5020	69.9409
 0.5010	69.8844
 0.5000	69.8153
 0.4990	69.7461
 0.4980	69.6623
 0.4970	69.6240
 0.4960	69.5316
 0.4950	69.4454
 0.4940	69.3790
 0.4930	69.3270
 0.4920	69.2644
 0.4910	69.1725
 0.4900	69.1525
 0.4890	69.0737
 0.4880	68.9872
 0.4870	68.9257
 0.4860	68.8571
 0.4850	68.8090
 0.4840	68.7189
 0.4830	68.6770
 0.4820	68.5989
 0.4810	68.5219
 0.4800	68.4642
 0.4790	68.4286
 0.4780	68.3324
 0.4770	68.2723
 0.4760	68.1998
 0.4750	68.1189
 0.4740	68.0165
 0.4730	67.9331
 0.4720	67.8238
 0.4710	67.7262
 0.4700	67.6154
 0.4690	67.4583
 0.4680	67.3642
 0.4670	67.2089
 0.4660	67.0697
 0.4650	66.9015
 0.4640	66.7274
 0.4630	66.5581
 0.4620	66.3885
 0.4610	66.2059
 0.4600	66.0042
 0.4590	65.8243
 0.4580	65.6199
 0.4570	65.4465
 0.4560	65.2591
 0.4550	65.0704
 0.4540	64.8922
 0.4530	64.7265
 0.4520	64.5405
 0.4510	64.4136
 0.4500	64.2576
 0.4490	64.1297
 0.4480	64.0014
 0.4470	63.9167
 0.4460	63.8169
 0.4450	63.7374
 0.4440	63.6622
 0.4430	63.5871
 0.4420	63.5758
 0.4410	63.5247
 0.4400	63.4645
 0.4390	63.4095
 0.4380	63.3423
 0.4370	63.2748
 0.4360	63.2165
 0.4350	63.1475
 0.4340	63.0462
 0.4330	62.9417
 0.4320	62.8310
 0.4310	62.7044
 0.4300	62.5543
 0.4290	62.4208
 0.4280	62.2817
 0.4270	62.1175
 0.4260	61.9650
 0.4250	61.8166
 0.4240	61.6859
 0.4230	61.5643
 0.4220	61.4511
 0.4210	61.4103
 0.4200	61.3875
 0.4190	61.4082
 0.4180	61.4670
 0.4170	61.5313
 0.4160	61.6359
 0.4150	61.7396
 0.4140	61.8386
 0.4130	61.9239
 0.4120	61.9693
 0.4110	62.0217
 0.4100	62.0395
 0.4090	62.0174
 0.4080	61.9523
 0.4070	61.8663
 0.4060	61.7502
 0.4050	61.5865
 0.4040	61.3868
 0.4030	61.1645
 0.4020	60.9177
 0.4010	60.6439
 0.4000	60.3286
