Name: Ulexite NaCaB_5O_6(OH)_6.5H_2O
Type: Mineral
Class: Borate
Subclass: None
Particle Size: Medium
Sample No.: B-3A
Owner: JPL
Wavelength Range: VSWIR
Origin: USA, California, Kern County, Boron
Collection Date: N/A
Description: Particle size was 45-125um.Collected by JPL Original ASTER Spectral Library name was jpl.beckman.mineral.borate.none.medium.b03.spectrum.txt
Measurement: Hemispherical reflectance
First Column: X
Second Column: Y
X Units: Wavelength (micrometers)
Y Units:Reflectance (percent)
First X Value:  0.4000
Last X Value:  2.5000
Number of X Values: 826
Additional Information: mineral.borate.none.medium.vswir.b-3a.jpl.beckman.ancillary.txt

 0.4000	86.9400
 0.4010	87.1200
 0.4020	87.1800
 0.4030	87.1800
 0.4040	87.5200
 0.4050	87.7600
 0.4060	87.8700
 0.4070	88.0500
 0.4080	87.8700
 0.4090	88.0500
 0.4100	88.2800
 0.4110	88.2800
 0.4120	88.2800
 0.4130	88.0500
 0.4140	88.2800
 0.4150	88.9200
 0.4160	88.9800
 0.4170	88.6400
 0.4180	88.4000
 0.4190	88.8600
 0.4200	89.1500
 0.4210	89.0400
 0.4220	88.9200
 0.4230	88.8000
 0.4240	88.9200
 0.4250	89.1500
 0.4260	89.2100
 0.4270	89.0400
 0.4280	88.9800
 0.4290	89.2700
 0.4300	89.3900
 0.4310	89.3900
 0.4320	89.2100
 0.4330	89.0400
 0.4340	89.3300
 0.4350	89.7400
 0.4360	89.6200
 0.4370	89.3900
 0.4380	89.3900
 0.4390	89.8000
 0.4400	90.1400
 0.4410	90.0300
 0.4420	89.8600
 0.4430	89.6800
 0.4440	89.8600
 0.4450	89.9200
 0.4460	89.7400
 0.4470	89.6200
 0.4480	89.8600
 0.4490	90.2000
 0.4500	90.4900
 0.4510	90.2000
 0.4520	90.0800
 0.4530	90.2700
 0.4540	90.2700
 0.4550	90.4400
 0.4560	90.2700
 0.4570	90.0900
 0.4580	90.4500
 0.4590	90.6300
 0.4600	90.5100
 0.4610	90.8100
 0.4620	90.7500
 0.4630	90.4600
 0.4640	90.0500
 0.4650	90.2900
 0.4660	90.5800
 0.4670	90.7000
 0.4680	90.4700
 0.4690	90.2400
 0.4700	90.5300
 0.4710	90.7700
 0.4720	90.7100
 0.4730	90.6000
 0.4740	90.4300
 0.4750	90.6600
 0.4760	90.8400
 0.4770	90.8400
 0.4780	90.7900
 0.4790	90.7300
 0.4800	91.0100
 0.4810	91.0100
 0.4820	91.3100
 0.4830	91.0200
 0.4840	90.9600
 0.4850	91.2000
 0.4860	91.3800
 0.4870	91.3200
 0.4880	91.0900
 0.4890	90.9200
 0.4900	91.1500
 0.4910	91.2100
 0.4920	91.2100
 0.4930	90.9800
 0.4940	91.0400
 0.4950	91.2800
 0.4960	91.4500
 0.4970	91.4000
 0.4980	91.1700
 0.4990	91.3500
 0.5000	91.6400
 0.5010	91.7600
 0.5020	91.5800
 0.5030	91.5200
 0.5040	91.4600
 0.5050	91.5200
 0.5060	91.6400
 0.5070	91.5800
 0.5080	91.4600
 0.5090	91.4100
 0.5100	91.6400
 0.5110	91.7000
 0.5120	91.5200
 0.5130	91.3500
 0.5140	91.3500
 0.5150	91.6400
 0.5160	91.8200
 0.5170	91.5800
 0.5180	91.5200
 0.5190	91.5200
 0.5200	91.8700
 0.5210	92.0400
 0.5220	91.9300
 0.5230	91.8200
 0.5240	91.6400
 0.5250	91.8200
 0.5260	92.1000
 0.5270	92.1000
 0.5280	91.8700
 0.5290	91.7600
 0.5300	92.1600
 0.5310	92.3900
 0.5320	92.3300
 0.5330	91.9300
 0.5340	91.8200
 0.5350	92.2800
 0.5360	92.5100
 0.5370	92.3900
 0.5380	92.2200
 0.5390	91.9300
 0.5400	92.4500
 0.5410	92.6900
 0.5420	92.5700
 0.5430	92.2800
 0.5440	92.1000
 0.5450	92.2200
 0.5460	92.2800
 0.5470	92.1600
 0.5480	91.7600
 0.5490	91.7600
 0.5500	92.1000
 0.5510	92.3300
 0.5520	92.3300
 0.5530	91.9300
 0.5540	91.9300
 0.5550	92.2800
 0.5560	92.6900
 0.5570	92.1600
 0.5580	91.8200
 0.5590	92.1000
 0.5600	92.4500
 0.5610	92.2800
 0.5620	92.6300
 0.5630	92.6900
 0.5640	92.5700
 0.5650	92.5100
 0.5660	92.3300
 0.5670	92.5100
 0.5680	92.9200
 0.5690	92.7400
 0.5700	92.3900
 0.5710	92.1600
 0.5720	92.4500
 0.5730	92.5700
 0.5740	92.5100
 0.5750	92.3900
 0.5760	92.1000
 0.5770	92.3900
 0.5780	92.5700
 0.5790	92.5700
 0.5800	92.3300
 0.5810	92.1000
 0.5820	92.4500
 0.5830	92.4500
 0.5840	92.4500
 0.5850	92.3300
 0.5860	92.2200
 0.5870	92.5700
 0.5880	92.6300
 0.5890	92.3900
 0.5900	92.1600
 0.5910	92.2200
 0.5920	92.5100
 0.5930	92.3900
 0.5940	92.4500
 0.5950	92.2200
 0.5960	92.1600
 0.5970	92.3300
 0.5980	92.4500
 0.5990	92.5100
 0.6000	92.2200
 0.6010	92.1000
 0.6020	92.5700
 0.6030	92.7400
 0.6040	92.9800
 0.6050	92.6900
 0.6060	92.3300
 0.6070	92.9800
 0.6080	92.9800
 0.6090	92.9200
 0.6100	92.8600
 0.6110	92.9200
 0.6120	93.3300
 0.6130	93.3900
 0.6140	93.2700
 0.6150	93.1000
 0.6160	93.1000
 0.6170	93.3300
 0.6180	93.3900
 0.6190	93.4500
 0.6200	92.9200
 0.6210	92.8600
 0.6220	93.2700
 0.6230	93.3300
 0.6240	93.2700
 0.6250	92.8600
 0.6260	92.8600
 0.6270	93.2700
 0.6280	93.1600
 0.6290	93.0400
 0.6300	92.7400
 0.6310	92.7400
 0.6320	92.9200
 0.6330	93.1600
 0.6340	93.2700
 0.6350	93.0400
 0.6360	92.6900
 0.6370	93.1000
 0.6380	93.2100
 0.6390	93.0400
 0.6400	92.6900
 0.6410	92.6300
 0.6420	93.2100
 0.6430	93.3300
 0.6440	93.4500
 0.6450	93.1000
 0.6460	93.1000
 0.6470	93.2700
 0.6480	93.2700
 0.6490	93.2700
 0.6500	93.0400
 0.6510	93.0400
 0.6520	93.3900
 0.6530	93.3900
 0.6540	93.2100
 0.6550	92.9800
 0.6560	93.2100
 0.6570	93.4500
 0.6580	93.2700
 0.6590	93.2100
 0.6600	92.9800
 0.6610	93.2100
 0.6620	93.6200
 0.6630	93.5100
 0.6640	93.4500
 0.6650	93.0400
 0.6660	93.3300
 0.6670	93.5100
 0.6680	93.2700
 0.6690	92.8000
 0.6700	92.7400
 0.6710	92.8600
 0.6720	93.3300
 0.6730	93.1000
 0.6740	92.9800
 0.6750	93.0400
 0.6760	93.0400
 0.6770	93.5700
 0.6780	93.4500
 0.6790	93.2100
 0.6800	92.9800
 0.6810	92.9800
 0.6820	93.3900
 0.6830	93.1600
 0.6840	93.2100
 0.6850	93.1600
 0.6860	93.2700
 0.6870	93.5700
 0.6880	93.2700
 0.6890	92.9800
 0.6900	92.7400
 0.6910	93.1600
 0.6920	93.5700
 0.6930	93.3300
 0.6940	93.2100
 0.6950	93.2700
 0.6960	93.3300
 0.6970	93.9100
 0.6980	93.6200
 0.6990	93.2100
 0.7000	92.9200
 0.7010	93.0400
 0.7020	93.2700
 0.7030	93.1000
 0.7040	92.7400
 0.7050	92.9200
 0.7060	93.2100
 0.7070	93.3900
 0.7080	93.3300
 0.7090	92.9200
 0.7100	93.0400
 0.7110	93.1600
 0.7120	93.3300
 0.7130	93.1600
 0.7140	92.9200
 0.7150	93.1000
 0.7160	93.0400
 0.7170	92.6900
 0.7180	92.7400
 0.7190	92.6900
 0.7200	93.0400
 0.7210	93.2100
 0.7220	93.2100
 0.7230	92.9200
 0.7240	92.5700
 0.7250	92.9200
 0.7260	93.0400
 0.7270	92.9800
 0.7280	92.7400
 0.7290	92.5700
 0.7300	93.1600
 0.7310	93.1600
 0.7320	92.9800
 0.7330	92.6300
 0.7340	92.6300
 0.7350	93.0400
 0.7360	93.0400
 0.7370	92.9200
 0.7380	92.5700
 0.7390	92.2800
 0.7400	92.6300
 0.7410	92.8000
 0.7420	92.6300
 0.7430	92.3900
 0.7440	92.2800
 0.7450	92.5100
 0.7460	92.6900
 0.7470	92.3300
 0.7480	92.1600
 0.7490	92.1600
 0.7500	92.3300
 0.7510	92.3900
 0.7520	92.0400
 0.7530	91.8200
 0.7540	92.1600
 0.7550	92.3900
 0.7560	92.4500
 0.7570	92.2200
 0.7580	92.0400
 0.7590	92.1000
 0.7600	92.3300
 0.7610	92.4500
 0.7620	92.1000
 0.7630	91.9300
 0.7640	92.1600
 0.7650	92.3900
 0.7660	92.5100
 0.7670	92.1600
 0.7680	92.0400
 0.7690	92.1600
 0.7700	92.5100
 0.7710	92.5100
 0.7720	92.1000
 0.7730	92.1000
 0.7740	92.1000
 0.7750	92.5700
 0.7760	92.5100
 0.7770	92.1600
 0.7780	92.1600
 0.7790	92.1600
 0.7800	92.4500
 0.7810	92.3900
 0.7820	92.1600
 0.7830	92.1000
 0.7840	92.3900
 0.7850	92.5100
 0.7860	92.5100
 0.7870	92.1000
 0.7880	92.3900
 0.7890	92.5700
 0.7900	92.6300
 0.7910	92.4500
 0.7920	92.1000
 0.7930	92.5100
 0.7940	92.5100
 0.7950	92.3900
 0.7960	92.3900
 0.7970	92.1600
 0.7980	92.4500
 0.7990	91.7600
 0.8000	91.7800
 0.8040	91.8700
 0.8080	91.8200
 0.8120	91.7600
 0.8160	91.7600
 0.8200	91.8700
 0.8240	91.6400
 0.8280	91.7600
 0.8320	91.5800
 0.8360	91.7600
 0.8400	91.7000
 0.8440	91.6400
 0.8480	91.5800
 0.8520	91.7000
 0.8560	91.5200
 0.8600	91.5800
 0.8640	91.4600
 0.8680	91.5200
 0.8720	91.3500
 0.8760	91.4100
 0.8800	91.2900
 0.8840	91.3500
 0.8880	91.0500
 0.8920	91.1100
 0.8960	90.9900
 0.9000	91.0500
 0.9040	90.9400
 0.9080	90.9400
 0.9120	90.7600
 0.9160	90.8200
 0.9200	90.7000
 0.9240	90.5200
 0.9280	90.4100
 0.9320	90.2900
 0.9360	90.0700
 0.9400	89.8900
 0.9440	89.5400
 0.9480	89.3000
 0.9520	88.7700
 0.9560	88.2600
 0.9600	87.4900
 0.9640	86.6200
 0.9680	85.5100
 0.9720	84.6400
 0.9760	84.3400
 0.9800	84.6400
 0.9840	85.1700
 0.9880	85.5100
 0.9920	85.9200
 0.9960	86.1500
 1.0000	86.0900
 1.0040	86.4500
 1.0080	86.6800
 1.0120	86.8600
 1.0160	87.3200
 1.0200	87.4900
 1.0240	87.7900
 1.0280	88.0200
 1.0320	88.3700
 1.0360	88.5500
 1.0400	88.8900
 1.0440	89.0100
 1.0480	89.2400
 1.0520	89.2400
 1.0560	89.6000
 1.0600	89.3600
 1.0640	89.6000
 1.0680	89.7100
 1.0720	89.7100
 1.0760	89.6500
 1.0800	89.7100
 1.0840	89.6000
 1.0880	89.6000
 1.0920	89.3000
 1.0960	89.4200
 1.1000	89.2400
 1.1040	89.1900
 1.1080	89.0700
 1.1120	89.0100
 1.1160	88.9500
 1.1200	88.8300
 1.1240	88.6600
 1.1280	88.6100
 1.1320	88.3700
 1.1360	88.0800
 1.1400	87.7900
 1.1440	87.3200
 1.1480	86.9200
 1.1520	86.2700
 1.1560	85.5100
 1.1600	84.9100
 1.1640	83.9700
 1.1680	83.1400
 1.1720	82.1500
 1.1760	81.2700
 1.1800	80.5600
 1.1840	79.8500
 1.1880	79.3300
 1.1920	78.9700
 1.1960	78.7900
 1.2000	78.5500
 1.2040	78.3800
 1.2080	78.3200
 1.2120	78.0800
 1.2160	77.9700
 1.2200	77.7900
 1.2240	77.6700
 1.2280	77.5000
 1.2320	77.5600
 1.2360	77.5000
 1.2400	77.5600
 1.2440	77.5000
 1.2480	77.5600
 1.2520	77.5000
 1.2560	77.6600
 1.2600	77.8400
 1.2640	78.0000
 1.2680	77.9900
 1.2720	78.1100
 1.2760	78.1000
 1.2800	78.0300
 1.2840	78.0200
 1.2880	77.9600
 1.2920	77.7900
 1.2960	77.3100
 1.3000	77.0200
 1.3040	76.5400
 1.3080	76.0100
 1.3120	75.2600
 1.3160	74.6100
 1.3200	73.7800
 1.3240	73.0200
 1.3280	72.0300
 1.3320	71.2600
 1.3360	70.3800
 1.3400	69.8000
 1.3440	69.0900
 1.3480	68.8000
 1.3520	68.4500
 1.3560	68.2100
 1.3600	67.8600
 1.3640	67.6400
 1.3680	66.9300
 1.3720	66.3600
 1.3760	65.5900
 1.3800	64.6000
 1.3840	63.2700
 1.3880	61.5200
 1.3920	59.3700
 1.3960	57.1600
 1.4000	54.8900
 1.4040	51.9300
 1.4080	48.6300
 1.4120	45.0200
 1.4160	41.3600
 1.4200	37.6300
 1.4240	34.7900
 1.4280	33.2200
 1.4320	33.1700
 1.4360	33.8700
 1.4400	34.7400
 1.4440	35.0900
 1.4480	34.9300
 1.4520	34.2200
 1.4560	33.6500
 1.4600	33.1800
 1.4640	33.0000
 1.4680	33.1200
 1.4720	33.5300
 1.4760	34.0000
 1.4800	34.5700
 1.4840	35.1600
 1.4880	35.6200
 1.4920	36.2100
 1.4960	36.3800
 1.5000	36.9000
 1.5040	37.3700
 1.5080	37.8900
 1.5120	38.3000
 1.5160	38.7100
 1.5200	39.0600
 1.5240	39.4600
 1.5280	39.5800
 1.5320	39.8200
 1.5360	39.9300
 1.5400	40.3300
 1.5440	40.5100
 1.5480	40.8600
 1.5520	41.1000
 1.5560	41.4500
 1.5600	41.5100
 1.5640	41.6200
 1.5680	41.7300
 1.5720	41.6700
 1.5760	41.6200
 1.5800	41.5600
 1.5840	41.5600
 1.5880	41.3300
 1.5920	41.2700
 1.5960	41.0400
 1.6000	40.9200
 1.6040	40.6300
 1.6080	40.5100
 1.6120	40.3900
 1.6160	40.1500
 1.6200	40.0300
 1.6240	39.8000
 1.6280	39.6800
 1.6320	39.5600
 1.6360	39.3800
 1.6400	39.2600
 1.6440	39.2600
 1.6480	39.0800
 1.6520	38.9100
 1.6560	38.8400
 1.6600	38.7800
 1.6640	38.6000
 1.6680	38.5300
 1.6720	38.4300
 1.6760	38.3600
 1.6800	38.3600
 1.6840	38.2400
 1.6880	38.2900
 1.6920	38.1700
 1.6960	38.1100
 1.7000	38.0500
 1.7040	38.0500
 1.7080	37.8800
 1.7120	37.8200
 1.7160	37.7600
 1.7200	37.7600
 1.7240	37.6400
 1.7280	37.5300
 1.7320	37.4100
 1.7360	37.4100
 1.7400	37.2900
 1.7440	37.1700
 1.7480	37.0700
 1.7520	37.1300
 1.7560	36.8900
 1.7600	36.8300
 1.7640	36.7100
 1.7680	36.7100
 1.7720	36.6000
 1.7760	36.6600
 1.7800	36.7700
 1.7840	36.9500
 1.7880	37.0700
 1.7920	37.2900
 1.7960	37.4700
 1.8000	37.5800
 1.8040	37.8100
 1.8080	37.8500
 1.8120	38.0100
 1.8160	37.9500
 1.8200	37.9800
 1.8240	37.8000
 1.8280	37.8500
 1.8320	37.5400
 1.8360	37.4200
 1.8400	37.1100
 1.8440	36.9300
 1.8480	36.4600
 1.8520	35.9900
 1.8560	35.4600
 1.8600	34.9400
 1.8640	34.1800
 1.8680	33.3700
 1.8720	32.4500
 1.8760	31.3400
 1.8800	30.3000
 1.8840	29.0800
 1.8880	27.8000
 1.8920	26.3600
 1.8960	24.8500
 1.9000	23.2400
 1.9040	21.5000
 1.9080	19.8100
 1.9120	18.1400
 1.9160	16.5800
 1.9200	14.9100
 1.9240	13.3400
 1.9280	11.7200
 1.9320	10.3400
 1.9360	 9.0100
 1.9400	 7.9000
 1.9440	 6.9900
 1.9480	 6.5200
 1.9520	 6.2900
 1.9560	 6.3400
 1.9600	 6.5800
 1.9640	 7.0300
 1.9680	 7.5500
 1.9720	 7.9500
 1.9760	 8.4700
 1.9800	 8.9900
 1.9840	 9.5600
 1.9880	10.1300
 1.9920	10.7700
 1.9960	11.3900
 2.0000	11.9700
 2.0040	12.3000
 2.0080	12.8100
 2.0120	13.1500
 2.0160	13.4900
 2.0200	13.5900
 2.0240	13.7600
 2.0280	13.8100
 2.0320	13.9600
 2.0360	13.9600
 2.0400	14.0700
 2.0440	14.0000
 2.0480	13.9900
 2.0520	13.9200
 2.0560	13.8700
 2.0600	13.7400
 2.0640	13.7400
 2.0680	13.5000
 2.0720	13.4400
 2.0760	13.3200
 2.0800	13.1400
 2.0840	12.9200
 2.0880	12.7400
 2.0920	12.4500
 2.0960	12.3300
 2.1000	11.9800
 2.1040	11.6900
 2.1080	11.2900
 2.1120	11.0000
 2.1160	10.7200
 2.1200	10.7100
 2.1240	10.7000
 2.1280	10.7500
 2.1320	10.8000
 2.1360	10.9100
 2.1400	10.9700
 2.1440	10.9700
 2.1480	10.7600
 2.1520	10.5300
 2.1560	10.3200
 2.1600	10.0400
 2.1640	 9.9900
 2.1680	10.0000
 2.1720	10.0700
 2.1760	10.2600
 2.1800	10.5600
 2.1840	11.0200
 2.1880	11.6100
 2.1920	12.0200
 2.1960	12.6000
 2.2000	13.0700
 2.2040	13.5200
 2.2080	13.8700
 2.2120	14.3400
 2.2160	14.5700
 2.2200	14.8100
 2.2240	14.9700
 2.2280	15.0900
 2.2320	15.3100
 2.2360	15.4200
 2.2400	15.5300
 2.2440	15.7600
 2.2480	16.1600
 2.2520	16.5700
 2.2560	17.0100
 2.2600	17.5200
 2.2640	17.9800
 2.2680	18.2700
 2.2720	18.6100
 2.2760	18.8800
 2.2800	19.0500
 2.2840	19.1000
 2.2880	19.2000
 2.2920	19.1300
 2.2960	19.0700
 2.3000	18.8800
 2.3040	18.8100
 2.3080	18.5800
 2.3120	18.5700
 2.3160	18.2100
 2.3200	18.1000
 2.3240	17.8500
 2.3280	17.7200
 2.3320	17.4800
 2.3360	17.2500
 2.3400	16.9400
 2.3440	16.7100
 2.3480	16.1400
 2.3520	15.7400
 2.3560	15.3900
 2.3600	14.9300
 2.3640	14.4700
 2.3680	14.0100
 2.3720	13.5000
 2.3760	12.9900
 2.3800	12.5400
 2.3840	12.0300
 2.3880	11.6200
 2.3920	11.1700
 2.3960	10.7700
 2.4000	10.3800
 2.4040	 9.9800
 2.4080	 9.6500
 2.4120	 9.4700
 2.4160	 9.0800
 2.4200	 8.8600
 2.4240	 8.5200
 2.4280	 8.2900
 2.4320	 8.0100
 2.4360	 7.8300
 2.4400	 7.4400
 2.4440	 7.1600
 2.4480	 6.9300
 2.4520	 6.7100
 2.4560	 6.4300
 2.4600	 6.2000
 2.4640	 6.0800
 2.4680	 5.9200
 2.4720	 5.7400
 2.4760	 5.7400
 2.4800	 5.6900
 2.4840	 5.6800
 2.4880	 5.6300
 2.4920	 5.7400
 2.4960	 5.7400
 2.5000	 5.8600
