Name: Cookeite LiAl_4(Si_3Al)O_10(OH)_8
Type: Mineral
Class: Silicate
Subclass: Phyllosilicate
Particle Size: Coarse
Sample No.: PS-9A
Owner: JPL
Wavelength Range: VSWIR
Origin: USA, Arkansas, Pulaski County
Collection Date: N/A
Description: Particle size was 125-500um.Collected by JPL Original ASTER Spectral Library name was jpl.beckman.mineral.silicate.phyllosilicate.coarse.ps09a.spectrum.txt
Measurement: Hemispherical reflectance
First Column: X
Second Column: Y
X Units: Wavelength (micrometers)
Y Units:Reflectance (percent)
First X Value:  0.4000
Last X Value:  2.5000
Number of X Values: 826
Additional Information: mineral.silicate.phyllosilicate.coarse.vswir.ps-9a.jpl.beckman.ancillary.txt

 0.4000	31.6100
 0.4010	31.8800
 0.4020	32.2500
 0.4030	32.3600
 0.4040	32.5000
 0.4050	32.7000
 0.4060	32.7600
 0.4070	32.9800
 0.4080	33.1000
 0.4090	33.3300
 0.4100	33.4300
 0.4110	33.4300
 0.4120	33.5800
 0.4130	33.9000
 0.4140	33.9800
 0.4150	34.2800
 0.4160	34.3400
 0.4170	34.3600
 0.4180	34.7900
 0.4190	34.8500
 0.4200	34.9500
 0.4210	35.1300
 0.4220	35.3800
 0.4230	35.6100
 0.4240	35.8300
 0.4250	35.9700
 0.4260	36.3100
 0.4270	36.3700
 0.4280	36.5200
 0.4290	36.7400
 0.4300	36.9700
 0.4310	37.4500
 0.4320	37.4900
 0.4330	37.6500
 0.4340	38.0300
 0.4350	38.2000
 0.4360	38.4200
 0.4370	38.6900
 0.4380	38.7100
 0.4390	39.0000
 0.4400	39.1900
 0.4410	39.3100
 0.4420	39.5600
 0.4430	39.7500
 0.4440	39.9700
 0.4450	40.1700
 0.4460	40.2300
 0.4470	40.5500
 0.4480	40.5900
 0.4490	40.6200
 0.4500	40.7700
 0.4510	40.8500
 0.4520	41.1200
 0.4530	41.1100
 0.4540	41.1700
 0.4550	41.3300
 0.4560	41.3200
 0.4570	41.3900
 0.4580	41.4200
 0.4590	41.6200
 0.4600	41.5700
 0.4610	41.8700
 0.4620	41.9800
 0.4630	41.9400
 0.4640	42.0000
 0.4650	42.1200
 0.4660	42.1300
 0.4670	42.2600
 0.4680	42.3300
 0.4690	42.2200
 0.4700	42.5700
 0.4710	42.4300
 0.4720	42.5400
 0.4730	42.5400
 0.4740	42.6700
 0.4750	42.7300
 0.4760	42.8100
 0.4770	42.9000
 0.4780	43.0200
 0.4790	43.1000
 0.4800	43.2600
 0.4810	43.3800
 0.4820	43.3800
 0.4830	43.6400
 0.4840	43.6200
 0.4850	43.7400
 0.4860	43.8300
 0.4870	44.0700
 0.4880	44.2500
 0.4890	44.2200
 0.4900	44.2900
 0.4910	44.5500
 0.4920	44.7300
 0.4930	44.9400
 0.4940	44.9700
 0.4950	45.0000
 0.4960	45.4100
 0.4970	45.3600
 0.4980	45.5100
 0.4990	45.7700
 0.5000	45.8600
 0.5010	46.1800
 0.5020	46.1500
 0.5030	46.4100
 0.5040	46.5800
 0.5050	46.6700
 0.5060	46.8200
 0.5070	46.9600
 0.5080	47.1900
 0.5090	47.4200
 0.5100	47.4500
 0.5110	47.6500
 0.5120	47.7600
 0.5130	48.0200
 0.5140	48.2000
 0.5150	48.3200
 0.5160	48.3500
 0.5170	48.7600
 0.5180	48.7800
 0.5190	48.9100
 0.5200	49.1100
 0.5210	49.1100
 0.5220	49.4300
 0.5230	49.5500
 0.5240	49.7200
 0.5250	49.8300
 0.5260	49.9700
 0.5270	50.0300
 0.5280	50.1700
 0.5290	50.3700
 0.5300	50.5300
 0.5310	50.6300
 0.5320	50.7700
 0.5330	50.9700
 0.5340	51.0400
 0.5350	51.2800
 0.5360	51.3700
 0.5370	51.2800
 0.5380	51.7000
 0.5390	51.7300
 0.5400	51.7500
 0.5410	51.7700
 0.5420	51.8900
 0.5430	52.0900
 0.5440	52.1300
 0.5450	52.1800
 0.5460	52.3400
 0.5470	52.4100
 0.5480	52.7000
 0.5490	52.6900
 0.5500	52.7300
 0.5510	53.0000
 0.5520	52.9900
 0.5530	53.1100
 0.5540	53.0800
 0.5550	53.2700
 0.5560	53.4400
 0.5570	53.3900
 0.5580	53.3400
 0.5590	53.5500
 0.5600	53.4900
 0.5610	54.0100
 0.5620	53.8500
 0.5630	53.9100
 0.5640	54.0800
 0.5650	54.2300
 0.5660	54.2300
 0.5670	54.2500
 0.5680	54.2800
 0.5690	54.3500
 0.5700	54.3100
 0.5710	54.1800
 0.5720	54.4300
 0.5730	54.4100
 0.5740	54.4900
 0.5750	54.4800
 0.5760	54.4200
 0.5770	54.3700
 0.5780	54.4900
 0.5790	54.4300
 0.5800	54.5100
 0.5810	54.6700
 0.5820	54.6100
 0.5830	54.6700
 0.5840	54.5600
 0.5850	54.7700
 0.5860	54.8400
 0.5870	54.8400
 0.5880	54.8800
 0.5890	54.8100
 0.5900	55.0100
 0.5910	54.8900
 0.5920	54.8400
 0.5930	55.0300
 0.5940	55.1300
 0.5950	55.1400
 0.5960	55.1100
 0.5970	55.0100
 0.5980	55.1700
 0.5990	55.1500
 0.6000	55.1000
 0.6010	55.2800
 0.6020	55.3300
 0.6030	55.2800
 0.6040	55.2700
 0.6050	55.1800
 0.6060	55.3400
 0.6070	55.3400
 0.6080	55.2200
 0.6090	55.3600
 0.6100	55.3800
 0.6110	55.3800
 0.6120	55.3600
 0.6130	55.2100
 0.6140	55.4200
 0.6150	55.5200
 0.6160	55.5000
 0.6170	55.4200
 0.6180	55.4800
 0.6190	55.5500
 0.6200	55.4700
 0.6210	55.3500
 0.6220	55.5600
 0.6230	55.5400
 0.6240	55.5800
 0.6250	55.6000
 0.6260	55.5100
 0.6270	55.6300
 0.6280	55.6700
 0.6290	55.6100
 0.6300	55.6600
 0.6310	55.8300
 0.6320	55.8000
 0.6330	55.7300
 0.6340	55.6900
 0.6350	55.9000
 0.6360	56.0000
 0.6370	55.9800
 0.6380	55.9000
 0.6390	55.9500
 0.6400	56.0700
 0.6410	56.0700
 0.6420	55.8500
 0.6430	55.9800
 0.6440	56.2300
 0.6450	56.1700
 0.6460	56.0600
 0.6470	56.1500
 0.6480	56.2500
 0.6490	56.1500
 0.6500	56.1700
 0.6510	56.3400
 0.6520	56.3700
 0.6530	56.5200
 0.6540	56.4700
 0.6550	56.3000
 0.6560	56.4500
 0.6570	56.5700
 0.6580	56.5700
 0.6590	56.6000
 0.6600	56.4600
 0.6610	56.6800
 0.6620	56.6300
 0.6630	56.5600
 0.6640	56.7700
 0.6650	56.8800
 0.6660	56.8600
 0.6670	56.8100
 0.6680	56.7100
 0.6690	56.7000
 0.6700	56.9400
 0.6710	56.9100
 0.6720	56.9900
 0.6730	57.0700
 0.6740	57.0400
 0.6750	56.9900
 0.6760	56.9400
 0.6770	57.1000
 0.6780	57.2300
 0.6790	57.1800
 0.6800	57.1800
 0.6810	57.1300
 0.6820	57.3100
 0.6830	57.1800
 0.6840	57.1400
 0.6850	57.3100
 0.6860	57.4600
 0.6870	57.5100
 0.6880	57.4200
 0.6890	57.3400
 0.6900	57.5200
 0.6910	57.4000
 0.6920	57.3800
 0.6930	57.4300
 0.6940	57.6300
 0.6950	57.5600
 0.6960	57.6400
 0.6970	57.5600
 0.6980	57.6300
 0.6990	57.8000
 0.7000	57.6100
 0.7010	57.6300
 0.7020	57.9000
 0.7030	57.7500
 0.7040	57.9300
 0.7050	57.7200
 0.7060	57.7400
 0.7070	57.9500
 0.7080	57.9300
 0.7090	57.9300
 0.7100	57.8800
 0.7110	57.8800
 0.7120	58.0200
 0.7130	57.9700
 0.7140	57.9100
 0.7150	58.0000
 0.7160	58.0900
 0.7170	58.0200
 0.7180	58.0400
 0.7190	57.9700
 0.7200	58.1800
 0.7210	58.3400
 0.7220	58.1000
 0.7230	58.1600
 0.7240	58.0700
 0.7250	58.2100
 0.7260	58.1400
 0.7270	58.0300
 0.7280	58.1700
 0.7290	58.3400
 0.7300	58.1500
 0.7310	58.2300
 0.7320	58.0400
 0.7330	58.3100
 0.7340	58.0700
 0.7350	58.0900
 0.7360	58.2400
 0.7370	58.2400
 0.7380	58.1700
 0.7390	58.2600
 0.7400	58.1300
 0.7410	58.3900
 0.7420	58.2600
 0.7430	58.0200
 0.7440	58.2800
 0.7450	58.4000
 0.7460	58.3100
 0.7470	58.3400
 0.7480	58.1600
 0.7490	58.4000
 0.7500	58.2800
 0.7510	58.1100
 0.7520	58.2500
 0.7530	58.3600
 0.7540	58.3300
 0.7550	58.2600
 0.7560	58.2300
 0.7570	58.3600
 0.7580	58.2700
 0.7590	58.1300
 0.7600	58.2800
 0.7610	58.3200
 0.7620	58.2900
 0.7630	58.2100
 0.7640	58.1600
 0.7650	58.3100
 0.7660	58.3000
 0.7670	58.2000
 0.7680	58.2900
 0.7690	58.3600
 0.7700	58.3600
 0.7710	58.2400
 0.7720	58.1400
 0.7730	58.3300
 0.7740	58.1200
 0.7750	58.2400
 0.7760	58.2900
 0.7770	58.3400
 0.7780	58.1800
 0.7790	58.1400
 0.7800	58.0400
 0.7810	58.1600
 0.7820	58.2100
 0.7830	58.1800
 0.7840	58.1100
 0.7850	58.0900
 0.7860	58.2700
 0.7870	58.0900
 0.7880	58.0000
 0.7890	58.0400
 0.7900	58.1400
 0.7910	58.1800
 0.7920	57.9700
 0.7930	57.9800
 0.7940	58.0600
 0.7950	57.9100
 0.7960	57.9600
 0.7970	58.0800
 0.7980	58.0800
 0.7990	58.1000
 0.8000	58.3200
 0.8040	58.3700
 0.8080	58.3400
 0.8120	58.2700
 0.8160	58.2400
 0.8200	58.1700
 0.8240	58.2000
 0.8280	58.1700
 0.8320	58.1400
 0.8360	58.0700
 0.8400	58.0700
 0.8440	58.1200
 0.8480	58.1300
 0.8520	58.1900
 0.8560	58.1900
 0.8600	58.0700
 0.8640	58.1100
 0.8680	58.2400
 0.8720	58.2100
 0.8760	58.1700
 0.8800	58.1700
 0.8840	58.2700
 0.8880	58.2900
 0.8920	58.3300
 0.8960	58.3000
 0.9000	58.2100
 0.9040	58.3000
 0.9080	58.2100
 0.9120	58.2900
 0.9160	58.2100
 0.9200	58.2400
 0.9240	58.3900
 0.9280	58.3400
 0.9320	58.2700
 0.9360	58.2400
 0.9400	58.1600
 0.9440	57.9800
 0.9480	57.8400
 0.9520	57.6700
 0.9560	57.7500
 0.9600	57.8200
 0.9640	58.0500
 0.9680	58.2700
 0.9720	58.3200
 0.9760	58.3700
 0.9800	58.3300
 0.9840	58.4500
 0.9880	58.5400
 0.9920	58.6000
 0.9960	58.6000
 1.0000	58.6300
 1.0040	58.7700
 1.0080	58.8300
 1.0120	58.8300
 1.0160	58.9500
 1.0200	58.9100
 1.0240	58.9400
 1.0280	58.9800
 1.0320	59.0600
 1.0360	59.0600
 1.0400	59.1900
 1.0440	59.1900
 1.0480	59.2600
 1.0520	59.3100
 1.0560	59.3200
 1.0600	59.3900
 1.0640	59.5000
 1.0680	59.5400
 1.0720	59.5500
 1.0760	59.5400
 1.0800	59.6500
 1.0840	59.7800
 1.0880	59.7900
 1.0920	59.7700
 1.0960	59.7900
 1.1000	59.9100
 1.1040	59.9000
 1.1080	59.9500
 1.1120	60.0300
 1.1160	60.0700
 1.1200	60.2000
 1.1240	60.2900
 1.1280	60.2100
 1.1320	60.3100
 1.1360	60.2800
 1.1400	60.3800
 1.1440	60.3100
 1.1480	60.3900
 1.1520	60.4800
 1.1560	60.5200
 1.1600	60.4700
 1.1640	60.5000
 1.1680	60.5300
 1.1720	60.5900
 1.1760	60.6200
 1.1800	60.6200
 1.1840	60.5800
 1.1880	60.6300
 1.1920	60.6900
 1.1960	60.6200
 1.2000	60.7200
 1.2040	60.7000
 1.2080	60.6100
 1.2120	60.6600
 1.2160	60.6600
 1.2200	60.5100
 1.2240	60.5900
 1.2280	60.5000
 1.2320	60.5000
 1.2360	60.3700
 1.2400	60.5400
 1.2440	60.5200
 1.2480	60.5600
 1.2520	60.4900
 1.2560	60.4100
 1.2600	60.2900
 1.2640	60.3300
 1.2680	60.2200
 1.2720	60.2300
 1.2760	60.1000
 1.2800	60.0400
 1.2840	60.0100
 1.2880	59.9100
 1.2920	59.7300
 1.2960	59.6500
 1.3000	59.4300
 1.3040	59.2400
 1.3080	59.0800
 1.3120	59.0700
 1.3160	58.9700
 1.3200	58.7400
 1.3240	58.8400
 1.3280	58.7900
 1.3320	58.8900
 1.3360	58.9400
 1.3400	59.0000
 1.3440	58.9600
 1.3480	58.7300
 1.3520	58.4000
 1.3560	57.9600
 1.3600	57.5600
 1.3640	57.0700
 1.3680	56.4500
 1.3720	55.3300
 1.3760	53.0300
 1.3800	49.1800
 1.3840	45.3700
 1.3880	42.2900
 1.3920	39.9700
 1.3960	38.3000
 1.4000	38.0300
 1.4040	39.7200
 1.4080	42.2700
 1.4120	44.6100
 1.4160	46.5800
 1.4200	47.1900
 1.4240	47.2300
 1.4280	47.4000
 1.4320	47.9800
 1.4360	48.7600
 1.4400	49.5200
 1.4440	49.8700
 1.4480	49.9400
 1.4520	49.8600
 1.4560	49.7500
 1.4600	49.7400
 1.4640	49.6900
 1.4680	49.7400
 1.4720	49.8800
 1.4760	50.2200
 1.4800	50.4800
 1.4840	50.7800
 1.4880	51.3100
 1.4920	51.8700
 1.4960	52.4200
 1.5000	52.7900
 1.5040	53.1600
 1.5080	53.6400
 1.5120	53.8700
 1.5160	53.9700
 1.5200	53.8200
 1.5240	53.8800
 1.5280	53.6000
 1.5320	53.4400
 1.5360	53.0700
 1.5400	52.7600
 1.5440	52.3000
 1.5480	52.0300
 1.5520	51.6700
 1.5560	51.3200
 1.5600	50.8300
 1.5640	50.4900
 1.5680	50.1900
 1.5720	49.9500
 1.5760	49.8300
 1.5800	49.7000
 1.5840	49.6700
 1.5880	49.7800
 1.5920	49.9300
 1.5960	50.0700
 1.6000	50.2200
 1.6040	50.4900
 1.6080	50.6700
 1.6120	51.0400
 1.6160	51.3600
 1.6200	51.6100
 1.6240	51.9800
 1.6280	52.2500
 1.6320	52.6300
 1.6360	53.0300
 1.6400	53.3100
 1.6440	53.5700
 1.6480	53.9700
 1.6520	54.3100
 1.6560	54.6000
 1.6600	54.8100
 1.6640	55.0900
 1.6680	55.3700
 1.6720	55.7100
 1.6760	55.9000
 1.6800	56.1300
 1.6840	56.3900
 1.6880	56.5400
 1.6920	56.8100
 1.6960	56.9600
 1.7000	57.2000
 1.7040	57.2100
 1.7080	57.4400
 1.7120	57.6100
 1.7160	57.7300
 1.7200	57.8000
 1.7240	57.8000
 1.7280	57.8700
 1.7320	57.8900
 1.7360	57.9900
 1.7400	57.9400
 1.7440	57.8500
 1.7480	57.8100
 1.7520	57.7900
 1.7560	57.6500
 1.7600	57.4600
 1.7640	57.3500
 1.7680	57.1800
 1.7720	57.0400
 1.7760	56.8700
 1.7800	56.5100
 1.7840	56.2100
 1.7880	55.9700
 1.7920	55.6500
 1.7960	55.3600
 1.8000	55.0400
 1.8040	54.4600
 1.8080	54.0800
 1.8120	53.7000
 1.8160	53.2200
 1.8200	52.9900
 1.8240	52.6500
 1.8280	52.4800
 1.8320	52.5800
 1.8360	52.6900
 1.8400	52.9500
 1.8440	53.3300
 1.8480	53.9200
 1.8520	54.4800
 1.8560	54.8400
 1.8600	55.1500
 1.8640	55.0900
 1.8680	55.0300
 1.8720	54.8700
 1.8760	54.5200
 1.8800	54.0800
 1.8840	53.5700
 1.8880	52.9700
 1.8920	52.3600
 1.8960	51.8000
 1.9000	51.1700
 1.9040	50.7600
 1.9080	50.6300
 1.9120	50.7500
 1.9160	50.8100
 1.9200	51.0300
 1.9240	51.1300
 1.9280	51.1500
 1.9320	51.2700
 1.9360	51.2700
 1.9400	51.0100
 1.9440	50.9300
 1.9480	50.8000
 1.9520	50.6200
 1.9560	50.2200
 1.9600	49.7000
 1.9640	49.4300
 1.9680	48.8200
 1.9720	48.3500
 1.9760	47.8400
 1.9800	47.2300
 1.9840	46.7700
 1.9880	46.2400
 1.9920	45.8700
 1.9960	45.4200
 2.0000	45.1100
 2.0040	44.8400
 2.0080	44.6000
 2.0120	44.5500
 2.0160	44.4500
 2.0200	44.4600
 2.0240	44.4700
 2.0280	44.6400
 2.0320	44.8400
 2.0360	45.1000
 2.0400	45.3400
 2.0440	45.7500
 2.0480	46.0200
 2.0520	46.3100
 2.0560	46.6500
 2.0600	46.8300
 2.0640	47.0100
 2.0680	46.9900
 2.0720	47.0700
 2.0760	47.0800
 2.0800	47.0100
 2.0840	47.0400
 2.0880	47.0300
 2.0920	46.9600
 2.0960	46.8700
 2.1000	46.8900
 2.1040	46.9300
 2.1080	46.8500
 2.1120	46.8000
 2.1160	46.6200
 2.1200	46.3800
 2.1240	46.1500
 2.1280	45.5700
 2.1320	44.6000
 2.1360	43.3700
 2.1400	41.7600
 2.1440	39.7300
 2.1480	37.4900
 2.1520	35.0500
 2.1560	32.6800
 2.1600	30.4200
 2.1640	28.5900
 2.1680	27.1600
 2.1720	26.2000
 2.1760	25.6000
 2.1800	25.3400
 2.1840	25.4200
 2.1880	25.5100
 2.1920	25.6500
 2.1960	25.6400
 2.2000	25.5600
 2.2040	25.5500
 2.2080	25.6200
 2.2120	25.8800
 2.2160	26.3600
 2.2200	26.9400
 2.2240	27.6500
 2.2280	28.2300
 2.2320	28.6700
 2.2360	28.9500
 2.2400	29.2700
 2.2440	29.4300
 2.2480	29.6400
 2.2520	29.9200
 2.2560	30.3600
 2.2600	30.7000
 2.2640	31.0600
 2.2680	31.4600
 2.2720	31.6700
 2.2760	31.7300
 2.2800	31.7600
 2.2840	31.6800
 2.2880	31.2400
 2.2920	30.7500
 2.2960	30.1900
 2.3000	29.4700
 2.3040	29.1200
 2.3080	27.6800
 2.3120	27.0000
 2.3160	26.2700
 2.3200	25.6600
 2.3240	24.9000
 2.3280	24.1500
 2.3320	23.4400
 2.3360	22.6400
 2.3400	21.9800
 2.3440	21.1800
 2.3480	20.5500
 2.3520	20.1600
 2.3560	19.9500
 2.3600	19.9900
 2.3640	20.1200
 2.3680	20.3800
 2.3720	20.8500
 2.3760	21.3200
 2.3800	21.9600
 2.3840	22.4200
 2.3880	22.7300
 2.3920	23.0300
 2.3960	23.3400
 2.4000	23.6100
 2.4040	23.7400
 2.4080	23.7800
 2.4120	23.7600
 2.4160	23.6400
 2.4200	23.5700
 2.4240	23.4400
 2.4280	23.3100
 2.4320	23.2400
 2.4360	23.0700
 2.4400	22.9900
 2.4440	23.0100
 2.4480	22.9200
 2.4520	22.8400
 2.4560	22.8100
 2.4600	22.7300
 2.4640	22.7300
 2.4680	22.6500
 2.4720	22.5900
 2.4760	22.4400
 2.4800	22.4200
 2.4840	22.4200
 2.4880	22.2000
 2.4920	22.2700
 2.4960	22.2400
 2.5000	22.2500
