Name: Strontianite SrCO_3
Type: Mineral
Class: Carbonate
Subclass: None
Particle Size: Medium
Sample No.: C-1A
Owner: JPL
Wavelength Range: VSWIR
Origin: Germany, Westphalia, Hamm
Collection Date: N/A
Description: Particle size was 45-125um.Collected by Ward's Original ASTER Spectral Library name was jpl.beckman.mineral.carbonate.none.medium.c01a.spectrum.txt
Measurement: Hemispherical reflectance
First Column: X
Second Column: Y
X Units: Wavelength (micrometers)
Y Units:Reflectance (percent)
First X Value:  0.4000
Last X Value:  2.5000
Number of X Values: 826
Additional Information: mineral.carbonate.none.medium.vswir.c-1a.jpl.beckman.ancillary.txt

 0.4000	74.4500
 0.4010	74.4500
 0.4020	74.5500
 0.4030	74.7800
 0.4040	75.1300
 0.4050	75.3600
 0.4060	75.3600
 0.4070	75.1900
 0.4080	75.4800
 0.4090	75.9300
 0.4100	76.1600
 0.4110	76.1100
 0.4120	76.1100
 0.4130	76.4000
 0.4140	76.8000
 0.4150	76.8000
 0.4160	76.7400
 0.4170	76.6900
 0.4180	76.8600
 0.4190	77.2600
 0.4200	77.2600
 0.4210	77.1500
 0.4220	76.9800
 0.4230	77.2600
 0.4240	77.4300
 0.4250	77.4900
 0.4260	77.4900
 0.4270	77.3700
 0.4280	77.3700
 0.4290	77.7800
 0.4300	77.8900
 0.4310	77.7200
 0.4320	77.7800
 0.4330	77.8900
 0.4340	78.3600
 0.4350	78.5300
 0.4360	78.3000
 0.4370	78.1800
 0.4380	78.4100
 0.4390	78.4100
 0.4400	78.9300
 0.4410	78.8700
 0.4420	78.8700
 0.4430	79.0400
 0.4440	79.1000
 0.4450	79.6200
 0.4460	79.4500
 0.4470	79.1600
 0.4480	79.1600
 0.4490	79.3900
 0.4500	79.8500
 0.4510	79.8500
 0.4520	79.7400
 0.4530	79.8600
 0.4540	80.1400
 0.4550	80.3700
 0.4560	80.2000
 0.4570	79.9700
 0.4580	79.9800
 0.4590	80.3300
 0.4600	80.4400
 0.4610	80.4400
 0.4620	80.3800
 0.4630	80.2200
 0.4640	80.3900
 0.4650	80.8000
 0.4660	80.7400
 0.4670	80.6300
 0.4680	80.5700
 0.4690	80.8600
 0.4700	81.2000
 0.4710	80.9700
 0.4720	80.8600
 0.4730	80.7500
 0.4740	81.0400
 0.4750	81.3300
 0.4760	81.3900
 0.4770	81.2700
 0.4780	81.0500
 0.4790	81.3400
 0.4800	81.6800
 0.4810	81.5100
 0.4820	81.4000
 0.4830	81.2300
 0.4840	81.3400
 0.4850	81.6900
 0.4860	81.8600
 0.4870	81.6300
 0.4880	81.4100
 0.4890	81.8700
 0.4900	82.2800
 0.4910	82.2800
 0.4920	81.9300
 0.4930	81.9400
 0.4940	82.2800
 0.4950	82.5700
 0.4960	82.4500
 0.4970	82.3900
 0.4980	82.2900
 0.4990	82.5800
 0.5000	82.8100
 0.5010	82.6400
 0.5020	82.6900
 0.5030	82.5800
 0.5040	82.6900
 0.5050	83.1000
 0.5060	83.0400
 0.5070	82.8700
 0.5080	82.4600
 0.5090	82.8100
 0.5100	83.2100
 0.5110	83.3300
 0.5120	83.1600
 0.5130	82.8700
 0.5140	82.9800
 0.5150	83.4500
 0.5160	83.3900
 0.5170	83.3900
 0.5180	83.1600
 0.5190	83.2700
 0.5200	83.5000
 0.5210	83.7800
 0.5220	83.6200
 0.5230	83.1600
 0.5240	83.1600
 0.5250	83.6200
 0.5260	83.9000
 0.5270	83.7300
 0.5280	83.5600
 0.5290	83.6700
 0.5300	83.7800
 0.5310	84.1300
 0.5320	84.2500
 0.5330	84.1900
 0.5340	84.2500
 0.5350	84.1300
 0.5360	84.4200
 0.5370	84.6000
 0.5380	84.2500
 0.5390	84.1300
 0.5400	84.1300
 0.5410	84.5400
 0.5420	84.6500
 0.5430	84.1900
 0.5440	84.1300
 0.5450	84.4200
 0.5460	84.8300
 0.5470	85.0000
 0.5480	84.6000
 0.5490	84.3100
 0.5500	84.4200
 0.5510	84.7100
 0.5520	85.0000
 0.5530	84.5400
 0.5540	84.4200
 0.5550	84.3600
 0.5560	84.6500
 0.5570	84.8300
 0.5580	84.6500
 0.5590	84.8300
 0.5600	84.6500
 0.5610	84.8300
 0.5620	85.4000
 0.5630	85.2900
 0.5640	85.1200
 0.5650	84.9400
 0.5660	85.1700
 0.5670	85.5100
 0.5680	85.4500
 0.5690	85.2300
 0.5700	84.9400
 0.5710	85.3400
 0.5720	85.5100
 0.5730	85.5100
 0.5740	85.4000
 0.5750	85.1700
 0.5760	85.5700
 0.5770	85.5100
 0.5780	85.2300
 0.5790	85.0600
 0.5800	85.0600
 0.5810	85.2300
 0.5820	85.7400
 0.5830	85.7400
 0.5840	85.3400
 0.5850	85.0000
 0.5860	85.2900
 0.5870	85.4500
 0.5880	85.4500
 0.5890	85.2900
 0.5900	85.0000
 0.5910	85.1700
 0.5920	85.5700
 0.5930	85.6900
 0.5940	85.5100
 0.5950	85.2300
 0.5960	85.2900
 0.5970	85.6300
 0.5980	85.8000
 0.5990	85.6300
 0.6000	85.3400
 0.6010	85.5100
 0.6020	85.9200
 0.6030	86.0900
 0.6040	85.9200
 0.6050	85.5700
 0.6060	85.9800
 0.6070	86.3200
 0.6080	86.3200
 0.6090	86.2700
 0.6100	85.8600
 0.6110	86.1500
 0.6120	86.4400
 0.6130	86.3800
 0.6140	86.2700
 0.6150	86.3200
 0.6160	86.6100
 0.6170	87.0100
 0.6180	86.6700
 0.6190	86.5000
 0.6200	86.3800
 0.6210	86.5500
 0.6220	86.9600
 0.6230	86.7900
 0.6240	86.7300
 0.6250	86.4400
 0.6260	86.5500
 0.6270	86.8400
 0.6280	86.9000
 0.6290	86.7300
 0.6300	86.3200
 0.6310	86.4400
 0.6320	87.0100
 0.6330	87.0100
 0.6340	86.7300
 0.6350	86.3200
 0.6360	86.5000
 0.6370	86.7900
 0.6380	86.7900
 0.6390	86.7300
 0.6400	86.7300
 0.6410	87.0700
 0.6420	87.3000
 0.6430	87.3600
 0.6440	87.0700
 0.6450	86.7300
 0.6460	86.9600
 0.6470	87.2400
 0.6480	86.9600
 0.6490	87.0100
 0.6500	86.9600
 0.6510	87.3000
 0.6520	87.4700
 0.6530	87.4100
 0.6540	87.2400
 0.6550	87.0700
 0.6560	87.4100
 0.6570	87.5300
 0.6580	87.3600
 0.6590	87.1200
 0.6600	87.0700
 0.6610	87.1800
 0.6620	87.4700
 0.6630	87.2400
 0.6640	87.1800
 0.6650	86.9600
 0.6660	87.3600
 0.6670	87.6500
 0.6680	87.5300
 0.6690	87.4700
 0.6700	87.2400
 0.6710	87.5300
 0.6720	87.8200
 0.6730	87.7000
 0.6740	87.4700
 0.6750	87.1800
 0.6760	87.5300
 0.6770	87.9400
 0.6780	87.6500
 0.6790	87.4700
 0.6800	87.5300
 0.6810	87.6500
 0.6820	87.9900
 0.6830	87.9900
 0.6840	87.7600
 0.6850	87.6500
 0.6860	87.6500
 0.6870	87.9400
 0.6880	87.8200
 0.6890	87.7000
 0.6900	87.4100
 0.6910	87.6500
 0.6920	88.0500
 0.6930	87.9900
 0.6940	88.0500
 0.6950	87.7000
 0.6960	87.7000
 0.6970	87.9400
 0.6980	87.8200
 0.6990	87.5900
 0.7000	87.8200
 0.7010	88.2800
 0.7020	88.5100
 0.7030	88.3400
 0.7040	88.0500
 0.7050	87.9400
 0.7060	88.0500
 0.7070	88.1100
 0.7080	87.8800
 0.7090	87.8200
 0.7100	88.0500
 0.7110	88.3400
 0.7120	88.4600
 0.7130	88.1700
 0.7140	87.9900
 0.7150	88.1700
 0.7160	88.2800
 0.7170	88.2300
 0.7180	87.9400
 0.7190	87.5900
 0.7200	87.6500
 0.7210	87.9400
 0.7220	88.2800
 0.7230	88.1100
 0.7240	87.8800
 0.7250	87.9400
 0.7260	88.1100
 0.7270	88.2300
 0.7280	88.1100
 0.7290	87.8800
 0.7300	87.9900
 0.7310	88.1100
 0.7320	88.3400
 0.7330	88.2800
 0.7340	88.0500
 0.7350	87.9900
 0.7360	88.4000
 0.7370	88.5700
 0.7380	88.2800
 0.7390	88.1100
 0.7400	87.9900
 0.7410	88.2300
 0.7420	88.6300
 0.7430	88.4600
 0.7440	88.0500
 0.7450	88.1100
 0.7460	88.0500
 0.7470	88.3400
 0.7480	88.5700
 0.7490	88.3400
 0.7500	87.9400
 0.7510	87.8200
 0.7520	88.2300
 0.7530	88.1100
 0.7540	88.0500
 0.7550	88.0500
 0.7560	87.9900
 0.7570	88.4600
 0.7580	88.4600
 0.7590	88.2300
 0.7600	88.0500
 0.7610	88.1700
 0.7620	88.5100
 0.7630	88.3400
 0.7640	88.2800
 0.7650	88.1700
 0.7660	87.9900
 0.7670	88.3400
 0.7680	88.4600
 0.7690	88.5700
 0.7700	88.2300
 0.7710	87.9900
 0.7720	88.4000
 0.7730	88.7900
 0.7740	88.6800
 0.7750	88.4600
 0.7760	88.2300
 0.7770	88.2800
 0.7780	88.4000
 0.7790	88.2800
 0.7800	88.2300
 0.7810	88.1700
 0.7820	88.1700
 0.7830	88.5700
 0.7840	88.7400
 0.7850	88.5100
 0.7860	88.0500
 0.7870	88.1100
 0.7880	88.2800
 0.7890	88.7400
 0.7900	88.6300
 0.7910	88.2800
 0.7920	88.2800
 0.7930	88.4600
 0.7940	88.7900
 0.7950	88.5700
 0.7960	88.4600
 0.7970	88.2800
 0.7980	88.4000
 0.7990	87.9900
 0.8000	88.0000
 0.8040	88.0500
 0.8080	88.0500
 0.8120	88.0500
 0.8160	87.9900
 0.8200	88.0500
 0.8240	88.0500
 0.8280	88.1100
 0.8320	88.1100
 0.8360	88.1700
 0.8400	88.2800
 0.8440	88.3400
 0.8480	88.2800
 0.8520	88.4600
 0.8560	88.4000
 0.8600	88.4600
 0.8640	88.4000
 0.8680	88.5100
 0.8720	88.5100
 0.8760	88.4600
 0.8800	88.5100
 0.8840	88.5100
 0.8880	88.5100
 0.8920	88.5100
 0.8960	88.6300
 0.9000	88.5700
 0.9040	88.5700
 0.9080	88.5100
 0.9120	88.5700
 0.9160	88.5100
 0.9200	88.6800
 0.9240	88.5700
 0.9280	88.6800
 0.9320	88.6800
 0.9360	88.7900
 0.9400	88.6800
 0.9440	88.7900
 0.9480	88.7900
 0.9520	88.8500
 0.9560	88.7400
 0.9600	88.9100
 0.9640	88.8500
 0.9680	88.9100
 0.9720	88.9700
 0.9760	88.9700
 0.9800	88.9700
 0.9840	88.9700
 0.9880	89.0800
 0.9920	89.1400
 0.9960	88.9700
 1.0000	89.1400
 1.0040	89.0800
 1.0080	89.1400
 1.0120	89.1400
 1.0160	89.3200
 1.0200	89.1400
 1.0240	89.2000
 1.0280	89.2600
 1.0320	89.4300
 1.0360	89.3200
 1.0400	89.3200
 1.0440	89.3700
 1.0480	89.3700
 1.0520	89.3700
 1.0560	89.4900
 1.0600	89.2600
 1.0640	89.4900
 1.0680	89.4300
 1.0720	89.4300
 1.0760	89.4300
 1.0800	89.4900
 1.0840	89.4900
 1.0880	89.5500
 1.0920	89.4900
 1.0960	89.6100
 1.1000	89.5500
 1.1040	89.6100
 1.1080	89.5500
 1.1120	89.6600
 1.1160	89.6100
 1.1200	89.7200
 1.1240	89.6600
 1.1280	89.7800
 1.1320	89.7200
 1.1360	89.6600
 1.1400	89.6600
 1.1440	89.7800
 1.1480	89.6600
 1.1520	89.7200
 1.1560	89.6500
 1.1600	89.8800
 1.1640	89.6900
 1.1680	89.7400
 1.1720	89.6800
 1.1760	89.8500
 1.1800	89.8400
 1.1840	89.7700
 1.1880	89.7700
 1.1920	89.8300
 1.1960	89.9800
 1.2000	89.9200
 1.2040	89.8100
 1.2080	89.8100
 1.2120	90.0400
 1.2160	89.9200
 1.2200	89.9800
 1.2240	89.8600
 1.2280	90.0400
 1.2320	89.9800
 1.2360	89.9800
 1.2400	90.0400
 1.2440	90.0900
 1.2480	90.0400
 1.2520	90.0900
 1.2560	90.0900
 1.2600	90.0800
 1.2640	90.1200
 1.2680	90.1100
 1.2720	90.1700
 1.2760	90.2200
 1.2800	90.0900
 1.2840	90.1400
 1.2880	90.1300
 1.2920	90.1900
 1.2960	90.2400
 1.3000	90.1100
 1.3040	90.1000
 1.3080	90.1000
 1.3120	90.1000
 1.3160	90.0300
 1.3200	90.0800
 1.3240	90.1300
 1.3280	90.1200
 1.3320	90.0600
 1.3360	90.1700
 1.3400	90.1000
 1.3440	90.0900
 1.3480	90.1400
 1.3520	90.1900
 1.3560	90.2500
 1.3600	90.1900
 1.3640	90.0800
 1.3680	90.0800
 1.3720	90.3100
 1.3760	90.0200
 1.3800	90.0200
 1.3840	90.0200
 1.3880	90.1400
 1.3920	89.9600
 1.3960	90.0200
 1.4000	89.7900
 1.4040	90.0900
 1.4080	89.9300
 1.4120	89.9800
 1.4160	89.8800
 1.4200	89.9500
 1.4240	89.9000
 1.4280	89.9700
 1.4320	89.9100
 1.4360	90.0300
 1.4400	90.0400
 1.4440	90.1000
 1.4480	89.9400
 1.4520	90.0500
 1.4560	89.9400
 1.4600	89.9400
 1.4640	90.0000
 1.4680	90.0000
 1.4720	89.9400
 1.4760	90.0000
 1.4800	90.0500
 1.4840	90.0000
 1.4880	90.0000
 1.4920	90.1700
 1.4960	90.0500
 1.5000	90.0500
 1.5040	90.1100
 1.5080	90.1700
 1.5120	90.1700
 1.5160	90.0500
 1.5200	90.1100
 1.5240	90.2300
 1.5280	90.2300
 1.5320	90.1100
 1.5360	90.2300
 1.5400	90.2300
 1.5440	90.1100
 1.5480	90.1700
 1.5520	90.3400
 1.5560	90.1700
 1.5600	90.2300
 1.5640	90.1100
 1.5680	90.3400
 1.5720	90.2300
 1.5760	90.2800
 1.5800	90.2800
 1.5840	90.4000
 1.5880	90.3400
 1.5920	90.4600
 1.5960	90.4600
 1.6000	90.5200
 1.6040	90.4500
 1.6080	90.3800
 1.6120	90.5000
 1.6160	90.4300
 1.6200	90.4800
 1.6240	90.3600
 1.6280	90.4700
 1.6320	90.4100
 1.6360	90.4600
 1.6400	90.3300
 1.6440	90.4900
 1.6480	90.3100
 1.6520	90.3100
 1.6560	90.2400
 1.6600	90.4600
 1.6640	90.2800
 1.6680	90.2700
 1.6720	90.2700
 1.6760	90.3800
 1.6800	90.3100
 1.6840	90.1900
 1.6880	90.1800
 1.6920	90.3600
 1.6960	90.2300
 1.7000	90.1000
 1.7040	90.0500
 1.7080	90.1600
 1.7120	90.0500
 1.7160	89.9300
 1.7200	89.9900
 1.7240	89.8700
 1.7280	89.9300
 1.7320	89.8700
 1.7360	89.9300
 1.7400	89.8200
 1.7440	89.8200
 1.7480	89.7600
 1.7520	89.8200
 1.7560	89.7600
 1.7600	89.8200
 1.7640	89.7600
 1.7680	89.8700
 1.7720	89.9300
 1.7760	89.9900
 1.7800	90.1600
 1.7840	90.2200
 1.7880	90.1600
 1.7920	90.0500
 1.7960	90.1600
 1.8000	89.9900
 1.8040	89.9600
 1.8080	89.8200
 1.8120	89.7800
 1.8160	89.5900
 1.8200	89.4400
 1.8240	89.3000
 1.8280	89.2200
 1.8320	89.0600
 1.8360	88.8100
 1.8400	88.7200
 1.8440	88.5300
 1.8480	88.3300
 1.8520	88.0800
 1.8560	87.9000
 1.8600	87.4400
 1.8640	87.0300
 1.8680	86.6200
 1.8720	86.3400
 1.8760	86.0400
 1.8800	85.9800
 1.8840	86.1300
 1.8880	86.4700
 1.8920	86.6400
 1.8960	86.9200
 1.9000	87.3700
 1.9040	87.4700
 1.9080	87.7500
 1.9120	87.8600
 1.9160	88.0200
 1.9200	87.9500
 1.9240	87.9500
 1.9280	87.8900
 1.9320	87.9400
 1.9360	87.9300
 1.9400	87.8700
 1.9440	87.8600
 1.9480	87.9000
 1.9520	87.7200
 1.9560	87.6400
 1.9600	87.5100
 1.9640	87.4400
 1.9680	87.2900
 1.9720	87.2700
 1.9760	87.3100
 1.9800	87.0600
 1.9840	86.8800
 1.9880	86.5700
 1.9920	86.4300
 1.9960	85.8900
 2.0000	85.6500
 2.0040	85.6300
 2.0080	85.8400
 2.0120	86.2500
 2.0160	86.7300
 2.0200	87.4800
 2.0240	88.0400
 2.0280	88.5300
 2.0320	88.8100
 2.0360	89.3400
 2.0400	89.5300
 2.0440	89.6300
 2.0480	89.6700
 2.0520	89.9500
 2.0560	89.8600
 2.0600	89.8700
 2.0640	89.8900
 2.0680	90.0200
 2.0720	89.9300
 2.0760	90.0000
 2.0800	90.0300
 2.0840	89.8700
 2.0880	89.9500
 2.0920	89.8000
 2.0960	89.9400
 2.1000	89.7800
 2.1040	89.6400
 2.1080	89.6000
 2.1120	89.5600
 2.1160	89.3500
 2.1200	89.2700
 2.1240	89.1400
 2.1280	88.8400
 2.1320	88.5700
 2.1360	88.2400
 2.1400	88.1300
 2.1440	87.3800
 2.1480	86.8000
 2.1520	86.4100
 2.1560	85.8100
 2.1600	85.2100
 2.1640	84.8600
 2.1680	84.8000
 2.1720	84.7400
 2.1760	84.7300
 2.1800	85.1800
 2.1840	85.1900
 2.1880	85.4200
 2.1920	85.5500
 2.1960	85.5200
 2.2000	85.4100
 2.2040	85.0200
 2.2080	84.8400
 2.2120	84.2900
 2.2160	83.8800
 2.2200	83.4600
 2.2240	82.9000
 2.2280	82.4400
 2.2320	81.8500
 2.2360	81.3100
 2.2400	80.6600
 2.2440	79.9800
 2.2480	79.4100
 2.2520	78.6600
 2.2560	77.9500
 2.2600	77.1800
 2.2640	76.5000
 2.2680	75.8800
 2.2720	75.1300
 2.2760	74.5300
 2.2800	73.7100
 2.2840	73.0700
 2.2880	72.3000
 2.2920	71.7400
 2.2960	70.8400
 2.3000	70.1700
 2.3040	68.9500
 2.3080	68.2500
 2.3120	67.2700
 2.3160	66.3900
 2.3200	65.4700
 2.3240	64.4600
 2.3280	63.7300
 2.3320	63.1200
 2.3360	62.9600
 2.3400	63.0100
 2.3440	63.7700
 2.3480	64.8600
 2.3520	66.2900
 2.3560	67.8800
 2.3600	69.8100
 2.3640	71.9600
 2.3680	73.7700
 2.3720	75.6500
 2.3760	77.2700
 2.3800	78.6700
 2.3840	79.5800
 2.3880	80.3200
 2.3920	80.9800
 2.3960	81.2000
 2.4000	81.4200
 2.4040	81.3600
 2.4080	81.3000
 2.4120	80.9100
 2.4160	80.7300
 2.4200	80.4500
 2.4240	79.9900
 2.4280	79.4800
 2.4320	78.7600
 2.4360	78.0800
 2.4400	77.1300
 2.4440	76.1200
 2.4480	75.0000
 2.4520	73.8800
 2.4560	72.4800
 2.4600	71.0800
 2.4640	69.9600
 2.4680	68.6700
 2.4720	67.5000
 2.4760	66.3800
 2.4800	65.4300
 2.4840	64.3100
 2.4880	63.5800
 2.4920	62.7500
 2.4960	62.0700
 2.5000	62.0200
