Name: Chalcopyrite CuFeS_2
Type: Mineral
Class: Sulfide
Subclass: None
Particle Size: Fine
Sample No.: S-4A
Owner: JPL
Wavelength Range: VSWIR
Origin: Canada, Quebec, Rouyn District.
Collection Date: N/A
Description: Particle size was 0-45um. Collected by:  JPL Original ASTER Spectral Library name was jpl.perkin.mineral.sulfide.none.fine.s04a.spectrum.txt
Measurement: Hemispherical reflectance
First Column: X
Second Column: Y
X Units: Wavelength (micrometers)
Y Units:Reflectance (percent)
First X Value:  2.5000
Last X Value:  0.4000
Number of X Values: 2101
Additional Information: mineral.sulfide.none.fine.vswir.s-4a.jpl.perkin.ancillary.txt

 2.5000	19.0505
 2.4990	19.5664
 2.4980	19.9410
 2.4970	19.7352
 2.4960	19.1853
 2.4950	19.2617
 2.4940	19.6755
 2.4930	19.5840
 2.4920	19.9323
 2.4910	19.4338
 2.4900	20.2720
 2.4890	19.2210
 2.4880	19.8234
 2.4870	19.7582
 2.4860	19.3909
 2.4850	19.8181
 2.4840	19.8093
 2.4830	19.2744
 2.4820	20.0222
 2.4810	19.9924
 2.4800	20.0142
 2.4790	19.5991
 2.4780	19.6559
 2.4770	19.8790
 2.4760	19.6487
 2.4750	19.1969
 2.4740	20.1203
 2.4730	19.4796
 2.4720	19.7034
 2.4710	19.1626
 2.4700	19.6211
 2.4690	19.4600
 2.4680	19.9592
 2.4670	19.2381
 2.4660	19.7311
 2.4650	19.6074
 2.4640	19.9991
 2.4630	19.2304
 2.4620	19.7487
 2.4610	19.4818
 2.4600	19.8550
 2.4590	19.4933
 2.4580	19.7538
 2.4570	19.1531
 2.4560	19.4710
 2.4550	19.6531
 2.4540	19.9167
 2.4530	19.3385
 2.4520	19.7126
 2.4510	19.4780
 2.4500	19.7272
 2.4490	19.2306
 2.4480	20.0921
 2.4470	19.5754
 2.4460	19.5106
 2.4450	19.6183
 2.4440	19.8520
 2.4430	19.7164
 2.4420	19.8896
 2.4410	19.5666
 2.4400	19.6547
 2.4390	19.5395
 2.4380	19.6576
 2.4370	19.4121
 2.4360	19.5999
 2.4350	19.3789
 2.4340	19.5585
 2.4330	19.5678
 2.4320	19.6148
 2.4310	19.7198
 2.4300	19.8238
 2.4290	19.5924
 2.4280	20.0117
 2.4270	19.4303
 2.4260	19.6831
 2.4250	19.4603
 2.4240	19.6827
 2.4230	19.4363
 2.4220	19.7665
 2.4210	19.6829
 2.4200	19.6691
 2.4190	19.4013
 2.4180	19.3357
 2.4170	19.3943
 2.4160	19.5505
 2.4150	19.4109
 2.4140	19.7145
 2.4130	19.3969
 2.4120	19.6811
 2.4110	19.5018
 2.4100	19.8635
 2.4090	19.5431
 2.4080	19.6938
 2.4070	19.5865
 2.4060	19.6003
 2.4050	19.4720
 2.4040	19.7235
 2.4030	19.5635
 2.4020	19.5833
 2.4010	19.4626
 2.4000	19.7273
 2.3990	19.6407
 2.3980	19.6693
 2.3970	19.3016
 2.3960	19.6073
 2.3950	19.5271
 2.3940	19.5049
 2.3930	19.4543
 2.3920	19.5853
 2.3910	19.5339
 2.3900	19.7264
 2.3890	19.5257
 2.3880	19.5733
 2.3870	19.4631
 2.3860	19.5084
 2.3850	19.5874
 2.3840	19.7001
 2.3830	19.5501
 2.3820	19.7257
 2.3810	19.6475
 2.3800	19.6281
 2.3790	19.5190
 2.3780	19.4882
 2.3770	19.5500
 2.3760	19.6616
 2.3750	19.6513
 2.3740	19.6951
 2.3730	19.5062
 2.3720	19.3935
 2.3710	19.3996
 2.3700	19.3833
 2.3690	19.4071
 2.3680	19.5979
 2.3670	19.6253
 2.3660	19.5605
 2.3650	19.5841
 2.3640	19.6197
 2.3630	19.5212
 2.3620	19.5771
 2.3610	19.4569
 2.3600	19.5234
 2.3590	19.4900
 2.3580	19.5128
 2.3570	19.4618
 2.3560	19.2782
 2.3550	19.3256
 2.3540	19.4857
 2.3530	19.6521
 2.3520	19.6710
 2.3510	19.6620
 2.3500	19.5097
 2.3490	19.3967
 2.3480	19.3707
 2.3470	19.3593
 2.3460	19.3231
 2.3450	19.4245
 2.3440	19.4368
 2.3430	19.4598
 2.3420	19.4640
 2.3410	19.5857
 2.3400	19.4259
 2.3390	19.3471
 2.3380	19.3530
 2.3370	19.4664
 2.3360	19.5428
 2.3350	19.5343
 2.3340	19.2661
 2.3330	19.2105
 2.3320	19.3362
 2.3310	19.4861
 2.3300	19.2811
 2.3290	19.4361
 2.3280	19.4184
 2.3270	19.5169
 2.3260	19.4103
 2.3250	19.4208
 2.3240	19.3871
 2.3230	19.3618
 2.3220	19.2702
 2.3210	19.4159
 2.3200	19.2511
 2.3190	19.3637
 2.3180	19.3646
 2.3170	19.4463
 2.3160	19.3823
 2.3150	19.3332
 2.3140	19.3588
 2.3130	19.3930
 2.3120	19.3703
 2.3110	19.4158
 2.3100	19.1183
 2.3090	19.3695
 2.3080	19.2332
 2.3070	19.4628
 2.3060	19.2478
 2.3050	19.3392
 2.3040	19.2729
 2.3030	19.1855
 2.3020	19.0120
 2.3010	19.4284
 2.3000	19.2058
 2.2990	19.2826
 2.2980	19.1907
 2.2970	19.2443
 2.2960	19.1668
 2.2950	19.2474
 2.2940	19.1976
 2.2930	19.5052
 2.2920	19.2262
 2.2910	19.4218
 2.2900	19.1229
 2.2890	19.2371
 2.2880	19.0283
 2.2870	19.3221
 2.2860	19.0542
 2.2850	19.2766
 2.2840	19.0376
 2.2830	19.2730
 2.2820	19.0778
 2.2810	19.4320
 2.2800	19.2231
 2.2790	19.3816
 2.2780	19.1327
 2.2770	19.4024
 2.2760	19.1033
 2.2750	19.3529
 2.2740	19.0361
 2.2730	19.3752
 2.2720	19.0302
 2.2710	19.4195
 2.2700	18.9578
 2.2690	19.1010
 2.2680	19.0675
 2.2670	19.2832
 2.2660	19.1339
 2.2650	19.4176
 2.2640	18.9869
 2.2630	19.2418
 2.2620	18.7715
 2.2610	19.3146
 2.2600	19.1341
 2.2590	19.1247
 2.2580	19.1670
 2.2570	19.2233
 2.2560	19.0277
 2.2550	19.3843
 2.2540	18.9560
 2.2530	19.2691
 2.2520	18.8751
 2.2510	19.3171
 2.2500	19.1182
 2.2490	19.1910
 2.2480	18.9971
 2.2470	19.5617
 2.2460	19.1376
 2.2450	19.1439
 2.2440	19.1014
 2.2430	19.3210
 2.2420	18.8543
 2.2410	19.3293
 2.2400	18.9293
 2.2390	19.2152
 2.2380	18.8912
 2.2370	19.3982
 2.2360	18.9503
 2.2350	19.1774
 2.2340	18.9129
 2.2330	19.2493
 2.2320	19.0041
 2.2310	19.3852
 2.2300	18.9796
 2.2290	19.3002
 2.2280	18.9674
 2.2270	19.1382
 2.2260	18.8562
 2.2250	19.1581
 2.2240	19.0694
 2.2230	19.2879
 2.2220	19.0176
 2.2210	19.4197
 2.2200	18.9729
 2.2190	19.2991
 2.2180	18.9214
 2.2170	19.4051
 2.2160	19.0171
 2.2150	19.3555
 2.2140	18.8934
 2.2130	19.3228
 2.2120	19.0659
 2.2110	18.9717
 2.2100	19.0802
 2.2090	19.1745
 2.2080	18.8953
 2.2070	19.3121
 2.2060	19.0855
 2.2050	19.5890
 2.2040	18.8299
 2.2030	19.4045
 2.2020	18.9343
 2.2010	19.1017
 2.2000	19.0404
 2.1990	19.4961
 2.1980	19.0634
 2.1970	19.3175
 2.1960	18.9953
 2.1950	19.2299
 2.1940	18.9376
 2.1930	19.1263
 2.1920	19.1582
 2.1910	19.1391
 2.1900	19.1847
 2.1890	19.3695
 2.1880	19.0446
 2.1870	19.4832
 2.1860	19.0300
 2.1850	19.4188
 2.1840	18.8916
 2.1830	19.5804
 2.1820	18.7777
 2.1810	19.3421
 2.1800	18.8774
 2.1790	19.4325
 2.1780	18.9999
 2.1770	19.3024
 2.1760	19.1221
 2.1750	19.3630
 2.1740	18.9904
 2.1730	19.2859
 2.1720	19.0207
 2.1710	19.3079
 2.1700	19.1237
 2.1690	19.3473
 2.1680	19.0363
 2.1670	19.4709
 2.1660	19.1029
 2.1650	19.4701
 2.1640	18.9030
 2.1630	19.0931
 2.1620	19.2023
 2.1610	19.1104
 2.1600	18.9371
 2.1590	19.2874
 2.1580	18.8117
 2.1570	19.1731
 2.1560	19.2436
 2.1550	19.3113
 2.1540	19.0088
 2.1530	19.4081
 2.1520	19.2827
 2.1510	19.4412
 2.1500	18.9606
 2.1490	19.3740
 2.1480	19.0872
 2.1470	19.2441
 2.1460	19.2626
 2.1450	19.2065
 2.1440	19.3630
 2.1430	19.3626
 2.1420	19.0372
 2.1410	19.4713
 2.1400	19.1585
 2.1390	19.4004
 2.1380	19.2698
 2.1370	19.2650
 2.1360	19.2747
 2.1350	19.5146
 2.1340	19.1534
 2.1330	19.3597
 2.1320	19.1231
 2.1310	19.2880
 2.1300	19.0563
 2.1290	19.3334
 2.1280	19.0989
 2.1270	19.1297
 2.1260	19.1769
 2.1250	19.4571
 2.1240	19.0430
 2.1230	19.3188
 2.1220	19.1844
 2.1210	19.4007
 2.1200	19.2519
 2.1190	19.3258
 2.1180	18.9446
 2.1170	19.1761
 2.1160	19.0895
 2.1150	19.3402
 2.1140	19.1383
 2.1130	19.4092
 2.1120	19.2113
 2.1110	19.3428
 2.1100	18.9736
 2.1090	19.3235
 2.1080	19.3992
 2.1070	19.4049
 2.1060	19.1700
 2.1050	19.2575
 2.1040	19.0650
 2.1030	19.0862
 2.1020	19.0687
 2.1010	19.1990
 2.1000	19.1145
 2.0990	19.0955
 2.0980	18.9161
 2.0970	19.2197
 2.0960	19.3054
 2.0950	19.2054
 2.0940	19.2236
 2.0930	19.2321
 2.0920	19.1057
 2.0910	19.1878
 2.0900	19.1203
 2.0890	19.3161
 2.0880	19.2087
 2.0870	19.1599
 2.0860	19.1941
 2.0850	19.1413
 2.0840	19.1816
 2.0830	19.2527
 2.0820	19.1594
 2.0810	19.1113
 2.0800	19.0301
 2.0790	19.0683
 2.0780	19.1024
 2.0770	19.1637
 2.0760	19.1230
 2.0750	19.1157
 2.0740	19.0956
 2.0730	19.1204
 2.0720	19.2051
 2.0710	19.1195
 2.0700	19.1093
 2.0690	19.2706
 2.0680	19.2122
 2.0670	19.0897
 2.0660	19.0853
 2.0650	19.2844
 2.0640	19.2115
 2.0630	18.9419
 2.0620	19.0803
 2.0610	19.1170
 2.0600	19.1752
 2.0590	19.0725
 2.0580	19.0016
 2.0570	19.0560
 2.0560	19.0279
 2.0550	18.9986
 2.0540	19.0469
 2.0530	19.0405
 2.0520	19.0559
 2.0510	19.1373
 2.0500	19.1933
 2.0490	19.2229
 2.0480	19.2366
 2.0470	19.1489
 2.0460	19.1210
 2.0450	19.0363
 2.0440	19.0019
 2.0430	19.0590
 2.0420	19.2032
 2.0410	19.0283
 2.0400	19.1213
 2.0390	18.9580
 2.0380	19.1519
 2.0370	19.0158
 2.0360	19.0885
 2.0350	18.9953
 2.0340	19.0934
 2.0330	19.0093
 2.0320	19.1147
 2.0310	18.9379
 2.0300	19.0228
 2.0290	19.0058
 2.0280	19.1209
 2.0270	18.9287
 2.0260	18.9994
 2.0250	18.8987
 2.0240	19.0330
 2.0230	19.0445
 2.0220	19.0917
 2.0210	18.9241
 2.0200	19.0139
 2.0190	18.8761
 2.0180	19.1092
 2.0170	18.8759
 2.0160	19.0686
 2.0150	18.9178
 2.0140	18.8504
 2.0130	18.9391
 2.0120	19.0719
 2.0110	18.7719
 2.0100	18.9966
 2.0090	18.8467
 2.0080	19.1672
 2.0070	18.8317
 2.0060	18.8940
 2.0050	18.8345
 2.0040	18.9735
 2.0030	18.9176
 2.0020	19.0420
 2.0010	18.6881
 2.0000	18.6484
 1.9990	18.8935
 1.9980	19.2028
 1.9970	18.8278
 1.9960	19.0499
 1.9950	18.8197
 1.9940	18.6675
 1.9930	18.7079
 1.9920	18.9679
 1.9910	18.6723
 1.9900	18.9590
 1.9890	18.7537
 1.9880	19.1649
 1.9870	18.6092
 1.9860	18.8930
 1.9850	18.6876
 1.9840	18.9610
 1.9830	18.8768
 1.9820	19.0423
 1.9810	18.6810
 1.9800	18.8655
 1.9790	18.6032
 1.9780	18.7959
 1.9770	18.7045
 1.9760	19.0814
 1.9750	18.5579
 1.9740	18.8496
 1.9730	18.6280
 1.9720	18.9229
 1.9710	18.3291
 1.9700	18.9146
 1.9690	18.6856
 1.9680	18.9658
 1.9670	18.7247
 1.9660	18.9906
 1.9650	18.4901
 1.9640	18.8505
 1.9630	18.8007
 1.9620	18.9126
 1.9610	18.5737
 1.9600	18.9579
 1.9590	18.3457
 1.9580	18.9847
 1.9570	18.6383
 1.9560	18.8773
 1.9550	18.6996
 1.9540	18.9109
 1.9530	18.6340
 1.9520	18.9957
 1.9510	18.6129
 1.9500	18.9865
 1.9490	18.3511
 1.9480	19.0491
 1.9470	18.4570
 1.9460	18.7676
 1.9450	18.4974
 1.9440	18.6194
 1.9430	18.3747
 1.9420	18.9730
 1.9410	18.4627
 1.9400	18.6269
 1.9390	18.4069
 1.9380	18.7934
 1.9370	18.3804
 1.9360	19.0126
 1.9350	18.3395
 1.9340	18.8684
 1.9330	18.4420
 1.9320	18.5306
 1.9310	18.6283
 1.9300	18.7586
 1.9290	18.2227
 1.9280	18.6957
 1.9270	18.7088
 1.9260	18.2389
 1.9250	18.7723
 1.9240	18.3477
 1.9230	18.4208
 1.9220	18.6870
 1.9210	18.4075
 1.9200	18.6427
 1.9190	18.4883
 1.9180	18.7260
 1.9170	18.3676
 1.9160	18.6775
 1.9150	18.3746
 1.9140	19.0000
 1.9130	18.5274
 1.9120	19.0277
 1.9110	18.2601
 1.9100	18.9200
 1.9090	18.5605
 1.9080	18.8522
 1.9070	18.3954
 1.9060	18.8276
 1.9050	18.6549
 1.9040	18.7758
 1.9030	18.3277
 1.9020	18.6791
 1.9010	18.5503
 1.9000	18.6988
 1.8990	18.3328
 1.8980	18.8478
 1.8970	18.4607
 1.8960	18.8084
 1.8950	18.7161
 1.8940	18.8524
 1.8930	18.4263
 1.8920	18.9699
 1.8910	18.4416
 1.8900	18.8290
 1.8890	18.5436
 1.8880	19.1059
 1.8870	18.2733
 1.8860	18.7049
 1.8850	18.5369
 1.8840	18.7606
 1.8830	18.4151
 1.8820	18.8165
 1.8810	18.5664
 1.8800	18.9189
 1.8790	18.6781
 1.8780	18.8241
 1.8770	18.2806
 1.8760	18.7178
 1.8750	18.5808
 1.8740	18.8489
 1.8730	18.5680
 1.8720	18.8414
 1.8710	18.4611
 1.8700	18.6972
 1.8690	18.4976
 1.8680	18.7392
 1.8670	18.5034
 1.8660	18.8261
 1.8650	18.5701
 1.8640	18.8676
 1.8630	18.6024
 1.8620	18.8574
 1.8610	18.6792
 1.8600	18.9436
 1.8590	18.5366
 1.8580	18.7721
 1.8570	18.5247
 1.8560	18.6626
 1.8550	18.4958
 1.8540	18.8934
 1.8530	18.6831
 1.8520	18.8217
 1.8510	18.6424
 1.8500	18.7213
 1.8490	18.7008
 1.8480	18.7651
 1.8470	18.5742
 1.8460	18.6557
 1.8450	18.6098
 1.8440	18.8451
 1.8430	18.7254
 1.8420	18.9359
 1.8410	18.7731
 1.8400	18.7424
 1.8390	18.5908
 1.8380	18.6571
 1.8370	18.3032
 1.8360	18.4528
 1.8350	18.6821
 1.8340	18.7689
 1.8330	18.5117
 1.8320	18.8659
 1.8310	18.7401
 1.8300	18.5553
 1.8290	18.4897
 1.8280	18.7197
 1.8270	18.6827
 1.8260	18.6618
 1.8250	18.7518
 1.8240	18.9021
 1.8230	18.5334
 1.8220	18.8091
 1.8210	18.6055
 1.8200	18.6019
 1.8190	18.4945
 1.8180	18.5638
 1.8170	18.5123
 1.8160	18.7846
 1.8150	18.7586
 1.8140	18.7081
 1.8130	18.6222
 1.8120	18.7186
 1.8110	18.6940
 1.8100	18.7645
 1.8090	18.6235
 1.8080	18.6085
 1.8070	18.5386
 1.8060	18.7657
 1.8050	18.7656
 1.8040	18.7649
 1.8030	18.6795
 1.8020	18.6394
 1.8010	18.6967
 1.8000	18.7170
 1.7990	18.6018
 1.7980	18.6474
 1.7970	18.6040
 1.7960	18.6162
 1.7950	18.7133
 1.7940	18.7915
 1.7930	18.8576
 1.7920	18.7960
 1.7910	18.5956
 1.7900	18.5649
 1.7890	18.5170
 1.7880	18.6541
 1.7870	18.7371
 1.7860	18.6247
 1.7850	18.7554
 1.7840	18.7821
 1.7830	18.6949
 1.7820	18.6252
 1.7810	18.5722
 1.7800	18.5842
 1.7790	18.6734
 1.7780	18.7136
 1.7770	18.7223
 1.7760	18.7121
 1.7750	18.7124
 1.7740	18.6207
 1.7730	18.6296
 1.7720	18.5416
 1.7710	18.6092
 1.7700	18.5906
 1.7690	18.7719
 1.7680	18.6436
 1.7670	18.6570
 1.7660	18.7308
 1.7650	18.6540
 1.7640	18.5307
 1.7630	18.7381
 1.7620	18.5880
 1.7610	18.7127
 1.7600	18.6635
 1.7590	18.6015
 1.7580	18.5098
 1.7570	18.6205
 1.7560	18.6430
 1.7550	18.6838
 1.7540	18.5742
 1.7530	18.6823
 1.7520	18.6746
 1.7510	18.7687
 1.7500	18.6768
 1.7490	18.7507
 1.7480	18.5313
 1.7470	18.7226
 1.7460	18.5333
 1.7450	18.8329
 1.7440	18.6807
 1.7430	18.6349
 1.7420	18.7372
 1.7410	18.8608
 1.7400	18.6453
 1.7390	18.7054
 1.7380	18.7834
 1.7370	18.7808
 1.7360	18.6533
 1.7350	18.6508
 1.7340	18.5584
 1.7330	18.6138
 1.7320	18.5955
 1.7310	18.6922
 1.7300	18.5087
 1.7290	18.8480
 1.7280	18.5825
 1.7270	18.8369
 1.7260	18.5076
 1.7250	18.7377
 1.7240	18.5860
 1.7230	18.7733
 1.7220	18.6840
 1.7210	18.8661
 1.7200	18.5596
 1.7190	18.6492
 1.7180	18.4837
 1.7170	18.7937
 1.7160	18.4338
 1.7150	18.6176
 1.7140	18.4513
 1.7130	18.7998
 1.7120	18.5583
 1.7110	18.6560
 1.7100	18.4292
 1.7090	18.6467
 1.7080	18.4083
 1.7070	18.7145
 1.7060	18.7409
 1.7050	18.8512
 1.7040	18.4892
 1.7030	18.9050
 1.7020	18.5308
 1.7010	18.8368
 1.7000	18.5548
 1.6990	18.8350
 1.6980	18.5148
 1.6970	19.0208
 1.6960	18.5734
 1.6950	18.6646
 1.6940	18.4631
 1.6930	18.8997
 1.6920	18.4643
 1.6910	18.8109
 1.6900	18.6752
 1.6890	18.8470
 1.6880	18.7035
 1.6870	18.6232
 1.6860	18.6827
 1.6850	18.7530
 1.6840	18.5281
 1.6830	18.9639
 1.6820	18.4636
 1.6810	18.6772
 1.6800	18.6081
 1.6790	18.7944
 1.6780	18.4254
 1.6770	18.7672
 1.6760	18.5270
 1.6750	18.7795
 1.6740	18.3972
 1.6730	18.7480
 1.6720	18.5971
 1.6710	18.8031
 1.6700	18.6953
 1.6690	18.6665
 1.6680	18.1753
 1.6670	18.7494
 1.6660	18.6407
 1.6650	18.7355
 1.6640	18.5520
 1.6630	18.6913
 1.6620	18.6541
 1.6610	18.8750
 1.6600	18.5848
 1.6590	18.8734
 1.6580	18.5588
 1.6570	18.8577
 1.6560	18.4645
 1.6550	18.9274
 1.6540	18.3345
 1.6530	18.9539
 1.6520	18.5678
 1.6510	18.8210
 1.6500	18.4208
 1.6490	18.8622
 1.6480	18.5542
 1.6470	18.7207
 1.6460	18.6718
 1.6450	18.9286
 1.6440	18.2797
 1.6430	18.9213
 1.6420	18.6060
 1.6410	18.5356
 1.6400	18.6287
 1.6390	18.8539
 1.6380	18.4752
 1.6370	19.0016
 1.6360	18.6663
 1.6350	18.6180
 1.6340	18.7144
 1.6330	18.6760
 1.6320	18.3997
 1.6310	18.8963
 1.6300	18.3174
 1.6290	18.7454
 1.6280	18.6819
 1.6270	18.6172
 1.6260	18.5294
 1.6250	18.8796
 1.6240	18.5828
 1.6230	18.7078
 1.6220	18.4264
 1.6210	18.7049
 1.6200	18.5967
 1.6190	19.0831
 1.6180	18.4593
 1.6170	18.8010
 1.6160	18.6315
 1.6150	18.8958
 1.6140	18.6781
 1.6130	18.9370
 1.6120	18.4800
 1.6110	19.0349
 1.6100	18.3086
 1.6090	18.8349
 1.6080	18.4881
 1.6070	18.8895
 1.6060	18.4996
 1.6050	18.9950
 1.6040	18.5899
 1.6030	18.9158
 1.6020	18.4610
 1.6010	18.7667
 1.6000	18.5649
 1.5990	18.9182
 1.5980	18.6556
 1.5970	18.8114
 1.5960	18.4140
 1.5950	18.8235
 1.5940	18.6929
 1.5930	18.7942
 1.5920	18.6523
 1.5910	18.7878
 1.5900	18.6578
 1.5890	19.1746
 1.5880	18.6351
 1.5870	18.9230
 1.5860	18.7952
 1.5850	18.9448
 1.5840	18.6072
 1.5830	18.9798
 1.5820	18.6017
 1.5810	18.8310
 1.5800	18.5646
 1.5790	18.9352
 1.5780	18.5505
 1.5770	18.6559
 1.5760	18.7520
 1.5750	18.9705
 1.5740	18.7179
 1.5730	18.9915
 1.5720	18.6191
 1.5710	18.8015
 1.5700	18.6425
 1.5690	18.8619
 1.5680	18.6310
 1.5670	18.9694
 1.5660	18.7145
 1.5650	18.8724
 1.5640	18.6146
 1.5630	18.6757
 1.5620	18.5661
 1.5610	18.8577
 1.5600	18.7554
 1.5590	18.9196
 1.5580	18.7397
 1.5570	18.7139
 1.5560	18.5806
 1.5550	18.9523
 1.5540	18.7768
 1.5530	18.8776
 1.5520	18.8080
 1.5510	18.8675
 1.5500	18.6515
 1.5490	18.8641
 1.5480	18.8872
 1.5470	18.8501
 1.5460	18.6207
 1.5450	18.7814
 1.5440	18.8193
 1.5430	18.8331
 1.5420	18.7141
 1.5410	18.6873
 1.5400	18.5796
 1.5390	18.8650
 1.5380	18.8490
 1.5370	18.9416
 1.5360	18.7268
 1.5350	18.9344
 1.5340	18.8687
 1.5330	18.7540
 1.5320	18.7234
 1.5310	18.7886
 1.5300	18.7507
 1.5290	19.0242
 1.5280	18.8427
 1.5270	18.8948
 1.5260	18.7100
 1.5250	18.8939
 1.5240	18.8657
 1.5230	18.8853
 1.5220	18.8386
 1.5210	18.9054
 1.5200	18.7751
 1.5190	18.9718
 1.5180	18.7556
 1.5170	18.8366
 1.5160	18.9695
 1.5150	18.8354
 1.5140	18.8259
 1.5130	18.8555
 1.5120	18.8462
 1.5110	18.8783
 1.5100	18.7930
 1.5090	18.7461
 1.5080	18.8357
 1.5070	18.8569
 1.5060	18.9556
 1.5050	18.9964
 1.5040	19.0970
 1.5030	19.0893
 1.5020	18.8477
 1.5010	18.8813
 1.5000	18.9840
 1.4990	19.0230
 1.4980	19.1493
 1.4970	19.0168
 1.4960	18.8730
 1.4950	18.8609
 1.4940	18.8720
 1.4930	18.8674
 1.4920	18.7793
 1.4910	18.6436
 1.4900	18.7568
 1.4890	18.9028
 1.4880	19.0480
 1.4870	18.8539
 1.4860	18.8416
 1.4850	18.9351
 1.4840	19.0062
 1.4830	18.9444
 1.4820	19.0078
 1.4810	18.8265
 1.4800	18.8999
 1.4790	18.9312
 1.4780	19.0725
 1.4770	18.9237
 1.4760	18.9239
 1.4750	18.8027
 1.4740	18.9486
 1.4730	18.8830
 1.4720	18.9231
 1.4710	18.8498
 1.4700	19.0107
 1.4690	18.9862
 1.4680	19.0777
 1.4670	18.9764
 1.4660	18.9508
 1.4650	18.7586
 1.4640	19.1574
 1.4630	18.9811
 1.4620	19.0329
 1.4610	18.9377
 1.4600	19.0453
 1.4590	18.9923
 1.4580	19.1072
 1.4570	18.8998
 1.4560	19.1349
 1.4550	18.9405
 1.4540	19.0800
 1.4530	18.8854
 1.4520	19.0465
 1.4510	19.0770
 1.4500	18.9158
 1.4490	18.9572
 1.4480	19.0067
 1.4470	18.9865
 1.4460	19.1777
 1.4450	18.9370
 1.4440	18.9677
 1.4430	18.8602
 1.4420	18.8992
 1.4410	18.9912
 1.4400	19.1945
 1.4390	18.9805
 1.4380	19.1486
 1.4370	18.8673
 1.4360	19.1304
 1.4350	19.1079
 1.4340	19.2985
 1.4330	18.9222
 1.4320	19.0769
 1.4310	18.7631
 1.4300	19.0671
 1.4290	19.0070
 1.4280	19.2724
 1.4270	18.9231
 1.4260	19.0618
 1.4250	18.9307
 1.4240	19.2496
 1.4230	18.9192
 1.4220	19.2208
 1.4210	18.8010
 1.4200	19.2263
 1.4190	18.9479
 1.4180	19.0978
 1.4170	18.8343
 1.4160	19.1090
 1.4150	18.8030
 1.4140	19.1689
 1.4130	19.0111
 1.4120	19.2462
 1.4110	19.0189
 1.4100	19.1773
 1.4090	18.8901
 1.4080	19.2869
 1.4070	18.9160
 1.4060	19.2015
 1.4050	19.1355
 1.4040	19.3954
 1.4030	19.0265
 1.4020	19.1637
 1.4010	18.9133
 1.4000	19.2806
 1.3990	19.0072
 1.3980	19.3271
 1.3970	18.9952
 1.3960	19.1837
 1.3950	19.0627
 1.3940	19.1690
 1.3930	18.7101
 1.3920	19.2588
 1.3910	19.1319
 1.3900	19.2577
 1.3890	19.0658
 1.3880	19.4215
 1.3870	18.8116
 1.3860	19.2320
 1.3850	18.7813
 1.3840	19.3554
 1.3830	18.8655
 1.3820	19.2524
 1.3810	18.7922
 1.3800	19.1636
 1.3790	19.0644
 1.3780	19.2729
 1.3770	19.1879
 1.3760	19.2893
 1.3750	19.0295
 1.3740	19.1503
 1.3730	19.2965
 1.3720	19.1575
 1.3710	19.1236
 1.3700	19.0726
 1.3690	19.0075
 1.3680	19.3822
 1.3670	18.8290
 1.3660	19.4820
 1.3650	19.0942
 1.3640	19.3887
 1.3630	18.9876
 1.3620	19.0951
 1.3610	18.7327
 1.3600	19.2535
 1.3590	18.8248
 1.3580	19.5913
 1.3570	18.9400
 1.3560	19.6533
 1.3550	18.3991
 1.3540	19.4188
 1.3530	19.0186
 1.3520	19.3443
 1.3510	19.1695
 1.3500	19.4959
 1.3490	19.0249
 1.3480	19.0859
 1.3470	19.0311
 1.3460	19.2998
 1.3450	19.0664
 1.3440	19.4930
 1.3430	19.0843
 1.3420	19.2153
 1.3410	18.9744
 1.3400	19.3921
 1.3390	18.9723
 1.3380	19.4164
 1.3370	18.9249
 1.3360	19.3781
 1.3350	19.2450
 1.3340	19.3327
 1.3330	19.0494
 1.3320	19.3997
 1.3310	18.9555
 1.3300	19.2653
 1.3290	19.1399
 1.3280	19.3228
 1.3270	19.1147
 1.3260	19.1828
 1.3250	19.0264
 1.3240	19.5740
 1.3230	19.1137
 1.3220	19.5395
 1.3210	19.0789
 1.3200	19.5508
 1.3190	19.0658
 1.3180	19.3011
 1.3170	18.9849
 1.3160	19.3742
 1.3150	19.1880
 1.3140	19.5277
 1.3130	19.0548
 1.3120	19.3377
 1.3110	19.2011
 1.3100	19.2996
 1.3090	19.0919
 1.3080	19.4709
 1.3070	19.0677
 1.3060	19.3303
 1.3050	19.0354
 1.3040	19.2762
 1.3030	19.0407
 1.3020	19.4076
 1.3010	19.2995
 1.3000	19.4157
 1.2990	19.2823
 1.2980	19.2923
 1.2970	19.1988
 1.2960	19.3242
 1.2950	18.8870
 1.2940	19.3059
 1.2930	19.2519
 1.2920	19.2996
 1.2910	18.9793
 1.2900	19.5171
 1.2890	19.0565
 1.2880	19.2482
 1.2870	19.2886
 1.2860	19.5449
 1.2850	19.2489
 1.2840	19.3854
 1.2830	19.0714
 1.2820	19.2555
 1.2810	19.1446
 1.2800	19.3786
 1.2790	19.2185
 1.2780	19.3758
 1.2770	18.9738
 1.2760	19.4923
 1.2750	19.2637
 1.2740	19.2352
 1.2730	19.2784
 1.2720	19.1548
 1.2710	19.1111
 1.2700	19.4611
 1.2690	19.4034
 1.2680	19.4604
 1.2670	19.2815
 1.2660	19.4125
 1.2650	19.3303
 1.2640	19.2768
 1.2630	19.2176
 1.2620	19.4977
 1.2610	19.3287
 1.2600	19.4367
 1.2590	19.2099
 1.2580	19.2718
 1.2570	19.1731
 1.2560	19.2892
 1.2550	19.1270
 1.2540	19.3226
 1.2530	19.2730
 1.2520	19.3807
 1.2510	19.4244
 1.2500	19.5475
 1.2490	19.4358
 1.2480	19.4500
 1.2470	19.3852
 1.2460	19.2334
 1.2450	19.1929
 1.2440	19.3219
 1.2430	19.1406
 1.2420	19.2775
 1.2410	19.3020
 1.2400	19.4837
 1.2390	19.3389
 1.2380	19.3411
 1.2370	19.3290
 1.2360	19.2305
 1.2350	19.2058
 1.2340	19.2318
 1.2330	19.2524
 1.2320	19.3412
 1.2310	19.3601
 1.2300	19.5214
 1.2290	19.3038
 1.2280	19.2942
 1.2270	19.3777
 1.2260	19.3002
 1.2250	19.3593
 1.2240	19.3622
 1.2230	19.2987
 1.2220	19.3274
 1.2210	19.3338
 1.2200	19.3931
 1.2190	19.4036
 1.2180	19.5144
 1.2170	19.5900
 1.2160	19.4955
 1.2150	19.5055
 1.2140	19.4942
 1.2130	19.3833
 1.2120	19.3949
 1.2110	19.4748
 1.2100	19.4277
 1.2090	19.4106
 1.2080	19.4218
 1.2070	19.4195
 1.2060	19.4636
 1.2050	19.3991
 1.2040	19.4091
 1.2030	19.5442
 1.2020	19.3951
 1.2010	19.4411
 1.2000	19.4295
 1.1990	19.4405
 1.1980	19.3263
 1.1970	19.3855
 1.1960	19.3420
 1.1950	19.4238
 1.1940	19.4142
 1.1930	19.4298
 1.1920	19.4622
 1.1910	19.6512
 1.1900	19.5189
 1.1890	19.4225
 1.1880	19.0809
 1.1870	19.4410
 1.1860	19.3333
 1.1850	19.4059
 1.1840	19.4771
 1.1830	19.5198
 1.1820	19.3801
 1.1810	19.4651
 1.1800	19.5059
 1.1790	19.5311
 1.1780	19.3000
 1.1770	19.3303
 1.1760	19.3182
 1.1750	19.4653
 1.1740	19.4569
 1.1730	19.5914
 1.1720	19.4489
 1.1710	19.3554
 1.1700	19.3223
 1.1690	19.6215
 1.1680	19.5322
 1.1670	19.5116
 1.1660	19.4029
 1.1650	19.3502
 1.1640	19.3115
 1.1630	19.3943
 1.1620	19.3749
 1.1610	19.6475
 1.1600	19.4130
 1.1590	19.5447
 1.1580	19.5736
 1.1570	19.5420
 1.1560	19.2607
 1.1550	19.4973
 1.1540	19.4850
 1.1530	19.6353
 1.1520	19.3009
 1.1510	19.5722
 1.1500	19.4699
 1.1490	19.6689
 1.1480	19.4390
 1.1470	19.7800
 1.1460	19.2247
 1.1450	19.4715
 1.1440	19.2992
 1.1430	19.6459
 1.1420	19.5736
 1.1410	19.6190
 1.1400	19.2363
 1.1390	19.6399
 1.1380	19.3728
 1.1370	19.4984
 1.1360	19.3190
 1.1350	19.5124
 1.1340	19.2753
 1.1330	19.4648
 1.1320	19.5839
 1.1310	19.6545
 1.1300	19.3874
 1.1290	19.7030
 1.1280	19.4373
 1.1270	19.5266
 1.1260	19.4655
 1.1250	19.5632
 1.1240	19.3943
 1.1230	19.7718
 1.1220	19.2709
 1.1210	19.5004
 1.1200	19.2278
 1.1190	19.4595
 1.1180	19.3721
 1.1170	19.6844
 1.1160	19.3473
 1.1150	19.4908
 1.1140	19.3932
 1.1130	19.5633
 1.1120	19.2828
 1.1110	19.4998
 1.1100	19.2562
 1.1090	19.6996
 1.1080	19.2819
 1.1070	19.7877
 1.1060	19.1706
 1.1050	19.7072
 1.1040	19.3387
 1.1030	19.5077
 1.1020	19.3449
 1.1010	19.5920
 1.1000	19.2212
 1.0990	19.6522
 1.0980	19.3885
 1.0970	19.4830
 1.0960	19.3569
 1.0950	19.6886
 1.0940	19.2812
 1.0930	19.5942
 1.0920	19.2852
 1.0910	19.6462
 1.0900	19.1820
 1.0890	19.7856
 1.0880	19.0737
 1.0870	19.5387
 1.0860	19.1862
 1.0850	19.6916
 1.0840	19.3944
 1.0830	19.5304
 1.0820	19.2582
 1.0810	19.5652
 1.0800	19.2932
 1.0790	19.5446
 1.0780	19.1411
 1.0770	19.5271
 1.0760	19.0608
 1.0750	19.4897
 1.0740	19.3887
 1.0730	19.7456
 1.0720	19.1852
 1.0710	19.9338
 1.0700	18.4182
 1.0690	19.9449
 1.0680	19.2277
 1.0670	19.5193
 1.0660	19.1464
 1.0650	19.3919
 1.0640	19.2851
 1.0630	19.5998
 1.0620	19.0460
 1.0610	19.5005
 1.0600	19.3429
 1.0590	19.4524
 1.0580	18.9412
 1.0570	19.6557
 1.0560	19.3411
 1.0550	19.5991
 1.0540	19.3625
 1.0530	19.4242
 1.0520	18.9752
 1.0510	19.4293
 1.0500	19.2462
 1.0490	19.6948
 1.0480	19.1191
 1.0470	19.6602
 1.0460	19.0112
 1.0450	19.3026
 1.0440	18.8829
 1.0430	19.3334
 1.0420	19.0044
 1.0410	19.3725
 1.0400	19.1486
 1.0390	19.3552
 1.0380	19.3187
 1.0370	19.2996
 1.0360	19.1017
 1.0350	19.2432
 1.0340	19.3801
 1.0330	19.4387
 1.0320	19.1470
 1.0310	19.2390
 1.0300	19.0508
 1.0290	19.2318
 1.0280	19.2519
 1.0270	19.2917
 1.0260	19.1560
 1.0250	19.3881
 1.0240	19.0971
 1.0230	19.4835
 1.0220	19.1450
 1.0210	19.2203
 1.0200	19.0529
 1.0190	19.4024
 1.0180	19.2519
 1.0170	19.2902
 1.0160	18.9344
 1.0150	19.2978
 1.0140	18.9182
 1.0130	19.2419
 1.0120	18.9622
 1.0110	19.2788
 1.0100	19.2263
 1.0090	19.2747
 1.0080	18.9775
 1.0070	19.2948
 1.0060	19.1953
 1.0050	19.3103
 1.0040	19.1913
 1.0030	18.9934
 1.0020	19.0555
 1.0010	19.3552
 1.0000	19.1111
 0.9990	19.0520
 0.9980	18.8711
 0.9970	19.0375
 0.9960	18.8922
 0.9950	19.1553
 0.9940	18.9537
 0.9930	19.1681
 0.9920	18.9449
 0.9910	19.1018
 0.9900	18.8454
 0.9890	19.0785
 0.9880	18.9998
 0.9870	19.1482
 0.9860	18.9017
 0.9850	19.1151
 0.9840	18.9660
 0.9830	19.2290
 0.9820	18.9829
 0.9810	19.0880
 0.9800	18.9494
 0.9790	19.0546
 0.9780	18.9927
 0.9770	19.1892
 0.9760	19.0993
 0.9750	19.0925
 0.9740	18.8202
 0.9730	19.0284
 0.9720	18.9738
 0.9710	19.0897
 0.9700	18.9194
 0.9690	18.9611
 0.9680	18.9113
 0.9670	19.0531
 0.9660	18.8729
 0.9650	19.0081
 0.9640	18.8957
 0.9630	19.0716
 0.9620	18.8779
 0.9610	18.8464
 0.9600	18.8462
 0.9590	19.0855
 0.9580	18.9009
 0.9570	18.7867
 0.9560	18.8428
 0.9550	19.0829
 0.9540	18.8427
 0.9530	18.8812
 0.9520	18.8870
 0.9510	18.9191
 0.9500	18.9715
 0.9490	19.0307
 0.9480	18.8832
 0.9470	18.9397
 0.9460	18.9557
 0.9450	18.8463
 0.9440	18.8200
 0.9430	18.9286
 0.9420	18.7975
 0.9410	18.8892
 0.9400	18.9795
 0.9390	18.8821
 0.9380	18.7436
 0.9370	18.7104
 0.9360	18.6780
 0.9350	18.6574
 0.9340	18.7357
 0.9330	18.9026
 0.9320	18.8642
 0.9310	18.8434
 0.9300	18.8861
 0.9290	18.9499
 0.9280	18.8647
 0.9270	18.7672
 0.9260	18.7930
 0.9250	18.7523
 0.9240	18.7674
 0.9230	18.7175
 0.9220	18.7588
 0.9210	18.7207
 0.9200	18.7880
 0.9190	18.8489
 0.9180	18.8508
 0.9170	18.8151
 0.9160	18.6860
 0.9150	18.7680
 0.9140	18.8299
 0.9130	18.4881
 0.9120	18.7922
 0.9110	18.8432
 0.9100	18.7425
 0.9090	18.6231
 0.9080	18.6674
 0.9070	18.6100
 0.9060	18.7232
 0.9050	18.4694
 0.9040	18.4935
 0.9030	18.4473
 0.9020	18.7732
 0.9010	18.8666
 0.9000	18.8589
 0.8990	18.6354
 0.8980	18.7890
 0.8970	18.5042
 0.8960	18.7921
 0.8950	18.6991
 0.8940	18.6047
 0.8930	18.5483
 0.8920	18.6804
 0.8910	18.5411
 0.8900	18.7843
 0.8890	18.6920
 0.8880	18.6961
 0.8870	18.5126
 0.8860	18.6585
 0.8850	18.6039
 0.8840	18.6607
 0.8830	18.6041
 0.8820	18.6363
 0.8810	18.6058
 0.8800	18.6909
 0.8790	18.4944
 0.8780	18.6948
 0.8770	18.4897
 0.8760	18.5660
 0.8750	18.5819
 0.8740	18.5787
 0.8730	18.4868
 0.8720	18.6120
 0.8710	18.3581
 0.8700	18.5586
 0.8690	18.3709
 0.8680	18.5435
 0.8670	18.3881
 0.8660	18.4483
 0.8650	18.3511
 0.8640	18.4335
 0.8630	18.4338
 0.8620	18.5988
 0.8610	18.4323
 0.8600	18.8601
 0.8590	19.0227
 0.8580	19.0347
 0.8570	19.0581
 0.8560	19.0439
 0.8550	19.0315
 0.8540	19.0512
 0.8530	19.0363
 0.8520	19.0382
 0.8510	19.0392
 0.8500	19.0357
 0.8490	19.0344
 0.8480	19.0433
 0.8470	19.0515
 0.8460	19.0444
 0.8450	19.0346
 0.8440	19.0345
 0.8430	19.0469
 0.8420	19.0538
 0.8410	19.0426
 0.8400	19.0379
 0.8390	19.0649
 0.8380	19.0671
 0.8370	19.0631
 0.8360	19.0682
 0.8350	19.0857
 0.8340	19.0729
 0.8330	19.0802
 0.8320	19.0868
 0.8310	19.0794
 0.8300	19.0934
 0.8290	19.0829
 0.8280	19.0740
 0.8270	19.0684
 0.8260	19.0923
 0.8250	19.0955
 0.8240	19.0978
 0.8230	19.1027
 0.8220	19.0983
 0.8210	19.0977
 0.8200	19.1078
 0.8190	19.1073
 0.8180	19.1194
 0.8170	19.1063
 0.8160	19.1315
 0.8150	19.1320
 0.8140	19.1580
 0.8130	19.1479
 0.8120	19.1423
 0.8110	19.1283
 0.8100	19.1490
 0.8090	19.1387
 0.8080	19.1403
 0.8070	19.1597
 0.8060	19.1569
 0.8050	19.1567
 0.8040	19.1587
 0.8030	19.1762
 0.8020	19.1732
 0.8010	19.1762
 0.8000	19.1785
 0.7990	19.1712
 0.7980	19.1907
 0.7970	19.1890
 0.7960	19.1883
 0.7950	19.1977
 0.7940	19.1931
 0.7930	19.2189
 0.7920	19.2006
 0.7910	19.2061
 0.7900	19.2160
 0.7890	19.2117
 0.7880	19.2156
 0.7870	19.2155
 0.7860	19.2339
 0.7850	19.2200
 0.7840	19.2350
 0.7830	19.2400
 0.7820	19.2338
 0.7810	19.2512
 0.7800	19.2465
 0.7790	19.2427
 0.7780	19.2454
 0.7770	19.2491
 0.7760	19.2665
 0.7750	19.2720
 0.7740	19.2564
 0.7730	19.2600
 0.7720	19.2675
 0.7710	19.2729
 0.7700	19.2696
 0.7690	19.2844
 0.7680	19.2774
 0.7670	19.2914
 0.7660	19.2876
 0.7650	19.2934
 0.7640	19.3059
 0.7630	19.2966
 0.7620	19.3050
 0.7610	19.3135
 0.7600	19.3085
 0.7590	19.3073
 0.7580	19.3200
 0.7570	19.3295
 0.7560	19.3301
 0.7550	19.3293
 0.7540	19.3394
 0.7530	19.3323
 0.7520	19.3339
 0.7510	19.3424
 0.7500	19.3361
 0.7490	19.3451
 0.7480	19.3474
 0.7470	19.3559
 0.7460	19.3601
 0.7450	19.3547
 0.7440	19.3633
 0.7430	19.3667
 0.7420	19.3671
 0.7410	19.3775
 0.7400	19.3747
 0.7390	19.3750
 0.7380	19.3712
 0.7370	19.3722
 0.7360	19.3810
 0.7350	19.3823
 0.7340	19.3849
 0.7330	19.3893
 0.7320	19.3744
 0.7310	19.3837
 0.7300	19.3831
 0.7290	19.3916
 0.7280	19.3947
 0.7270	19.4034
 0.7260	19.4046
 0.7250	19.4048
 0.7240	19.4092
 0.7230	19.4058
 0.7220	19.4124
 0.7210	19.4152
 0.7200	19.4164
 0.7190	19.4091
 0.7180	19.4191
 0.7170	19.4188
 0.7160	19.4247
 0.7150	19.4182
 0.7140	19.4227
 0.7130	19.4250
 0.7120	19.4229
 0.7110	19.4289
 0.7100	19.4232
 0.7090	19.4277
 0.7080	19.4235
 0.7070	19.4327
 0.7060	19.4378
 0.7050	19.4362
 0.7040	19.4333
 0.7030	19.4281
 0.7020	19.4290
 0.7010	19.4335
 0.7000	19.4317
 0.6990	19.4371
 0.6980	19.4319
 0.6970	19.4321
 0.6960	19.4367
 0.6950	19.4342
 0.6940	19.4340
 0.6930	19.4352
 0.6920	19.4361
 0.6910	19.4332
 0.6900	19.4337
 0.6890	19.4309
 0.6880	19.4334
 0.6870	19.4327
 0.6860	19.4327
 0.6850	19.4347
 0.6840	19.4334
 0.6830	19.4338
 0.6820	19.4318
 0.6810	19.4307
 0.6800	19.4342
 0.6790	19.4362
 0.6780	19.4261
 0.6770	19.4232
 0.6760	19.4234
 0.6750	19.4256
 0.6740	19.4235
 0.6730	19.4193
 0.6720	19.4210
 0.6710	19.4187
 0.6700	19.4217
 0.6690	19.4214
 0.6680	19.4141
 0.6670	19.4138
 0.6660	19.4139
 0.6650	19.4111
 0.6640	19.4117
 0.6630	19.4103
 0.6620	19.4038
 0.6610	19.4020
 0.6600	19.4030
 0.6590	19.4023
 0.6580	19.3956
 0.6570	19.3949
 0.6560	19.3965
 0.6550	19.3955
 0.6540	19.3898
 0.6530	19.3840
 0.6520	19.3803
 0.6510	19.3801
 0.6500	19.3811
 0.6490	19.3793
 0.6480	19.3730
 0.6470	19.3677
 0.6460	19.3648
 0.6450	19.3637
 0.6440	19.3622
 0.6430	19.3537
 0.6420	19.3495
 0.6410	19.3499
 0.6400	19.3439
 0.6390	19.3390
 0.6380	19.3348
 0.6370	19.3323
 0.6360	19.3293
 0.6350	19.3252
 0.6340	19.3221
 0.6330	19.3163
 0.6320	19.3085
 0.6310	19.3033
 0.6300	19.2997
 0.6290	19.2955
 0.6280	19.2905
 0.6270	19.2816
 0.6260	19.2769
 0.6250	19.2742
 0.6240	19.2686
 0.6230	19.2618
 0.6220	19.2548
 0.6210	19.2475
 0.6200	19.2406
 0.6190	19.2332
 0.6180	19.2305
 0.6170	19.2260
 0.6160	19.2157
 0.6150	19.2038
 0.6140	19.2002
 0.6130	19.1937
 0.6120	19.1847
 0.6110	19.1792
 0.6100	19.1723
 0.6090	19.1629
 0.6080	19.1543
 0.6070	19.1453
 0.6060	19.1348
 0.6050	19.1255
 0.6040	19.1175
 0.6030	19.1098
 0.6020	19.1042
 0.6010	19.0967
 0.6000	19.0850
 0.5990	19.0656
 0.5980	19.0577
 0.5970	19.0528
 0.5960	19.0421
 0.5950	19.0325
 0.5940	19.0201
 0.5930	19.0085
 0.5920	18.9937
 0.5910	18.9809
 0.5900	18.9721
 0.5890	18.9588
 0.5880	18.9377
 0.5870	18.9310
 0.5860	18.9223
 0.5850	18.9086
 0.5840	18.8974
 0.5830	18.8827
 0.5820	18.8703
 0.5810	18.8533
 0.5800	18.8396
 0.5790	18.8257
 0.5780	18.8113
 0.5770	18.7961
 0.5760	18.7773
 0.5750	18.7628
 0.5740	18.7496
 0.5730	18.7320
 0.5720	18.7155
 0.5710	18.6954
 0.5700	18.6817
 0.5690	18.6630
 0.5680	18.6434
 0.5670	18.6269
 0.5660	18.6084
 0.5650	18.5917
 0.5640	18.5686
 0.5630	18.5569
 0.5620	18.5329
 0.5610	18.5066
 0.5600	18.4857
 0.5590	18.4670
 0.5580	18.4464
 0.5570	18.4229
 0.5560	18.4011
 0.5550	18.3796
 0.5540	18.3549
 0.5530	18.3241
 0.5520	18.3063
 0.5510	18.2842
 0.5500	18.2596
 0.5490	18.2355
 0.5480	18.2101
 0.5470	18.1852
 0.5460	18.1632
 0.5450	18.1371
 0.5440	18.1077
 0.5430	18.0816
 0.5420	18.0549
 0.5410	18.0255
 0.5400	17.9957
 0.5390	17.9736
 0.5380	17.9414
 0.5370	17.9169
 0.5360	17.8882
 0.5350	17.8592
 0.5340	17.8270
 0.5330	17.7971
 0.5320	17.7679
 0.5310	17.7399
 0.5300	17.7079
 0.5290	17.6769
 0.5280	17.6478
 0.5270	17.6180
 0.5260	17.5845
 0.5250	17.5518
 0.5240	17.5183
 0.5230	17.4892
 0.5220	17.4580
 0.5210	17.4242
 0.5200	17.3906
 0.5190	17.3632
 0.5180	17.3282
 0.5170	17.2955
 0.5160	17.2619
 0.5150	17.2278
 0.5140	17.1972
 0.5130	17.1634
 0.5120	17.1283
 0.5110	17.0938
 0.5100	17.0605
 0.5090	17.0259
 0.5080	16.9940
 0.5070	16.9608
 0.5060	16.9310
 0.5050	16.8921
 0.5040	16.8509
 0.5030	16.8190
 0.5020	16.7783
 0.5010	16.7477
 0.5000	16.7095
 0.4990	16.6764
 0.4980	16.6350
 0.4970	16.6034
 0.4960	16.5695
 0.4950	16.5301
 0.4940	16.4968
 0.4930	16.4562
 0.4920	16.4222
 0.4910	16.3803
 0.4900	16.3394
 0.4890	16.3057
 0.4880	16.2625
 0.4870	16.2292
 0.4860	16.1882
 0.4850	16.1441
 0.4840	16.0998
 0.4830	16.0651
 0.4820	16.0214
 0.4810	15.9901
 0.4800	15.9569
 0.4790	15.9085
 0.4780	15.8674
 0.4770	15.8336
 0.4760	15.7936
 0.4750	15.7597
 0.4740	15.7201
 0.4730	15.6845
 0.4720	15.6412
 0.4710	15.6072
 0.4700	15.5783
 0.4690	15.5346
 0.4680	15.4954
 0.4670	15.4521
 0.4660	15.4304
 0.4650	15.3925
 0.4640	15.3608
 0.4630	15.3254
 0.4620	15.2857
 0.4610	15.2451
 0.4600	15.2185
 0.4590	15.1853
 0.4580	15.1484
 0.4570	15.1300
 0.4560	15.0989
 0.4550	15.0653
 0.4540	15.0319
 0.4530	14.9996
 0.4520	14.9633
 0.4510	14.9355
 0.4500	14.9002
 0.4490	14.8723
 0.4480	14.8395
 0.4470	14.8025
 0.4460	14.7676
 0.4450	14.7417
 0.4440	14.7053
 0.4430	14.6772
 0.4420	14.6407
 0.4410	14.6165
 0.4400	14.5852
 0.4390	14.5568
 0.4380	14.5266
 0.4370	14.4977
 0.4360	14.4712
 0.4350	14.4491
 0.4340	14.4229
 0.4330	14.3993
 0.4320	14.3733
 0.4310	14.3564
 0.4300	14.3338
 0.4290	14.3169
 0.4280	14.2954
 0.4270	14.2837
 0.4260	14.2655
 0.4250	14.2494
 0.4240	14.2393
 0.4230	14.2238
 0.4220	14.2040
 0.4210	14.1939
 0.4200	14.1886
 0.4190	14.1793
 0.4180	14.1696
 0.4170	14.1595
 0.4160	14.1520
 0.4150	14.1352
 0.4140	14.1453
 0.4130	14.1432
 0.4120	14.1450
 0.4110	14.1434
 0.4100	14.1422
 0.4090	14.1404
 0.4080	14.1378
 0.4070	14.1486
 0.4060	14.1463
 0.4050	14.1522
 0.4040	14.1575
 0.4030	14.1649
 0.4020	14.1808
 0.4010	14.1897
 0.4000	14.1935
