Name: Tschermigite (NH_4)Al(SO_4)_2.12H_2O
Type: Mineral
Class: Sulfate
Subclass: None
Particle Size: Fine
Sample No.: SO-6A
Owner: JPL
Wavelength Range: VSWIR
Origin: USA, Nevada, Esmeralda County, Silver Peak.
Collection Date: N/A
Description: Particle size was 0-45um. Collected by:  Burminco Original ASTER Spectral Library name was jpl.perkin.mineral.sulfate.none.fine.so06a.spectrum.txt
Measurement: Hemispherical reflectance
First Column: X
Second Column: Y
X Units: Wavelength (micrometers)
Y Units:Reflectance (percent)
First X Value:  2.5000
Last X Value:  0.4000
Number of X Values: 2101
Additional Information: mineral.sulfate.none.fine.vswir.so-6a.jpl.perkin.ancillary.txt

 2.5000	17.6124
 2.4990	17.0515
 2.4980	17.5686
 2.4970	17.5808
 2.4960	17.0822
 2.4950	17.6813
 2.4940	17.7389
 2.4930	17.6689
 2.4920	17.8708
 2.4910	17.8727
 2.4900	17.8850
 2.4890	17.9736
 2.4880	18.1105
 2.4870	18.1016
 2.4860	18.1996
 2.4850	18.1435
 2.4840	18.2778
 2.4830	18.3157
 2.4820	18.4228
 2.4810	18.4055
 2.4800	18.5994
 2.4790	18.6431
 2.4780	18.5360
 2.4770	18.6852
 2.4760	18.8390
 2.4750	18.7265
 2.4740	18.9250
 2.4730	18.8881
 2.4720	18.9692
 2.4710	18.9051
 2.4700	19.1383
 2.4690	19.0750
 2.4680	19.3392
 2.4670	19.2994
 2.4660	19.4220
 2.4650	19.4390
 2.4640	19.5416
 2.4630	19.4200
 2.4620	19.6574
 2.4610	19.5291
 2.4600	19.6983
 2.4590	19.8156
 2.4580	19.8043
 2.4570	19.8750
 2.4560	19.9017
 2.4550	19.8947
 2.4540	20.0042
 2.4530	20.0654
 2.4520	20.2916
 2.4510	20.1463
 2.4500	20.2902
 2.4490	20.3327
 2.4480	20.4801
 2.4470	20.5426
 2.4460	20.7016
 2.4450	20.6625
 2.4440	20.6644
 2.4430	20.7768
 2.4420	20.9561
 2.4410	20.8755
 2.4400	21.0837
 2.4390	21.0641
 2.4380	21.2663
 2.4370	21.3281
 2.4360	21.4153
 2.4350	21.4477
 2.4340	21.5420
 2.4330	21.5923
 2.4320	21.6873
 2.4310	21.7914
 2.4300	21.9680
 2.4290	22.0721
 2.4280	22.1127
 2.4270	22.1199
 2.4260	22.2877
 2.4250	22.3357
 2.4240	22.4897
 2.4230	22.5213
 2.4220	22.5851
 2.4210	22.6435
 2.4200	22.7790
 2.4190	22.8789
 2.4180	23.0054
 2.4170	23.0577
 2.4160	23.1459
 2.4150	23.2372
 2.4140	23.4243
 2.4130	23.4587
 2.4120	23.4883
 2.4110	23.6022
 2.4100	23.6978
 2.4090	23.7360
 2.4080	23.8126
 2.4070	23.9128
 2.4060	24.0314
 2.4050	24.0673
 2.4040	24.1830
 2.4030	24.2264
 2.4020	24.3462
 2.4010	24.3547
 2.4000	24.4234
 2.3990	24.4454
 2.3980	24.5724
 2.3970	24.6342
 2.3960	24.7279
 2.3950	24.7768
 2.3940	24.8896
 2.3930	24.9620
 2.3920	25.0633
 2.3910	25.0689
 2.3900	25.1757
 2.3890	25.2906
 2.3880	25.2853
 2.3870	25.2620
 2.3860	25.3385
 2.3850	25.3669
 2.3840	25.4791
 2.3830	25.5308
 2.3820	25.5600
 2.3810	25.6548
 2.3800	25.7399
 2.3790	25.7333
 2.3780	25.7627
 2.3770	25.8007
 2.3760	25.8248
 2.3750	25.8908
 2.3740	25.9723
 2.3730	26.0066
 2.3720	26.0775
 2.3710	26.1187
 2.3700	26.1766
 2.3690	26.2009
 2.3680	26.1900
 2.3670	26.1677
 2.3660	26.2393
 2.3650	26.3158
 2.3640	26.3074
 2.3630	26.2750
 2.3620	26.2920
 2.3610	26.3486
 2.3600	26.3683
 2.3590	26.3971
 2.3580	26.4375
 2.3570	26.4884
 2.3560	26.4765
 2.3550	26.4496
 2.3540	26.5121
 2.3530	26.5321
 2.3520	26.5175
 2.3510	26.5381
 2.3500	26.5383
 2.3490	26.5118
 2.3480	26.5227
 2.3470	26.5640
 2.3460	26.6067
 2.3450	26.6413
 2.3440	26.5906
 2.3430	26.5361
 2.3420	26.5301
 2.3410	26.5580
 2.3400	26.5165
 2.3390	26.5524
 2.3380	26.5336
 2.3370	26.5032
 2.3360	26.5105
 2.3350	26.5497
 2.3340	26.5095
 2.3330	26.4965
 2.3320	26.4827
 2.3310	26.4480
 2.3300	26.4199
 2.3290	26.4143
 2.3280	26.4551
 2.3270	26.4560
 2.3260	26.4063
 2.3250	26.3990
 2.3240	26.3594
 2.3230	26.3519
 2.3220	26.3157
 2.3210	26.3204
 2.3200	26.3018
 2.3190	26.3316
 2.3180	26.3236
 2.3170	26.3251
 2.3160	26.2460
 2.3150	26.2587
 2.3140	26.2451
 2.3130	26.2298
 2.3120	26.2421
 2.3110	26.3092
 2.3100	26.2837
 2.3090	26.2445
 2.3080	26.1747
 2.3070	26.2515
 2.3060	26.2095
 2.3050	26.2853
 2.3040	26.2638
 2.3030	26.2677
 2.3020	26.1947
 2.3010	26.1788
 2.3000	26.2340
 2.2990	26.3032
 2.2980	26.2052
 2.2970	26.2703
 2.2960	26.2699
 2.2950	26.2829
 2.2940	26.2113
 2.2930	26.3029
 2.2920	26.3177
 2.2910	26.3077
 2.2900	26.2813
 2.2890	26.3109
 2.2880	26.2799
 2.2870	26.3383
 2.2860	26.3288
 2.2850	26.2962
 2.2840	26.2571
 2.2830	26.3152
 2.2820	26.3019
 2.2810	26.3789
 2.2800	26.3663
 2.2790	26.3891
 2.2780	26.3703
 2.2770	26.3648
 2.2760	26.3611
 2.2750	26.3859
 2.2740	26.3878
 2.2730	26.4047
 2.2720	26.3780
 2.2710	26.4059
 2.2700	26.3289
 2.2690	26.3887
 2.2680	26.3040
 2.2670	26.4428
 2.2660	26.3996
 2.2650	26.4536
 2.2640	26.4362
 2.2630	26.4310
 2.2620	26.3585
 2.2610	26.4470
 2.2600	26.4024
 2.2590	26.4702
 2.2580	26.3658
 2.2570	26.3545
 2.2560	26.4571
 2.2550	26.4176
 2.2540	26.3345
 2.2530	26.4617
 2.2520	26.3991
 2.2510	26.4016
 2.2500	26.3586
 2.2490	26.4011
 2.2480	26.3722
 2.2470	26.4117
 2.2460	26.3789
 2.2450	26.3767
 2.2440	26.2816
 2.2430	26.3270
 2.2420	26.3404
 2.2410	26.4442
 2.2400	26.2815
 2.2390	26.3080
 2.2380	26.2890
 2.2370	26.3170
 2.2360	26.3605
 2.2350	26.3154
 2.2340	26.2091
 2.2330	26.2950
 2.2320	26.2806
 2.2310	26.2545
 2.2300	26.2566
 2.2290	26.2205
 2.2280	26.2133
 2.2270	26.2723
 2.2260	26.2358
 2.2250	26.2297
 2.2240	26.1893
 2.2230	26.1938
 2.2220	26.1635
 2.2210	26.1732
 2.2200	26.1436
 2.2190	26.1983
 2.2180	26.1458
 2.2170	26.1503
 2.2160	26.1085
 2.2150	26.2362
 2.2140	26.1127
 2.2130	26.1687
 2.2120	26.1574
 2.2110	25.9978
 2.2100	26.1749
 2.2090	26.1735
 2.2080	26.1370
 2.2070	26.1765
 2.2060	26.1269
 2.2050	26.1728
 2.2040	26.0722
 2.2030	26.1803
 2.2020	26.1141
 2.2010	26.2025
 2.2000	26.0464
 2.1990	26.1595
 2.1980	26.0647
 2.1970	26.1386
 2.1960	26.1528
 2.1950	26.1303
 2.1940	26.1405
 2.1930	26.0882
 2.1920	26.0501
 2.1910	26.1292
 2.1900	26.0352
 2.1890	26.0757
 2.1880	26.0488
 2.1870	26.1136
 2.1860	25.9750
 2.1850	26.0692
 2.1840	26.0008
 2.1830	26.0696
 2.1820	25.9554
 2.1810	26.0526
 2.1800	25.9556
 2.1790	26.0645
 2.1780	26.0002
 2.1770	26.0605
 2.1760	25.9912
 2.1750	26.0601
 2.1740	25.9898
 2.1730	26.0497
 2.1720	25.9798
 2.1710	26.0079
 2.1700	25.9754
 2.1690	26.0746
 2.1680	25.9552
 2.1670	26.0150
 2.1660	25.9680
 2.1650	25.9641
 2.1640	26.0052
 2.1630	26.0419
 2.1620	26.0059
 2.1610	26.0516
 2.1600	26.0434
 2.1590	26.0435
 2.1580	26.0335
 2.1570	26.0847
 2.1560	26.0212
 2.1550	26.0865
 2.1540	26.0490
 2.1530	26.1024
 2.1520	26.0150
 2.1510	26.1495
 2.1500	26.0909
 2.1490	26.1062
 2.1480	26.1151
 2.1470	26.1314
 2.1460	26.0842
 2.1450	26.2225
 2.1440	26.1475
 2.1430	26.2304
 2.1420	26.1589
 2.1410	26.2774
 2.1400	26.2318
 2.1390	26.2145
 2.1380	26.2214
 2.1370	26.2857
 2.1360	26.2952
 2.1350	26.3595
 2.1340	26.3543
 2.1330	26.3288
 2.1320	26.3040
 2.1310	26.3512
 2.1300	26.3639
 2.1290	26.4695
 2.1280	26.4604
 2.1270	26.4636
 2.1260	26.3796
 2.1250	26.5008
 2.1240	26.4841
 2.1230	26.4654
 2.1220	26.4788
 2.1210	26.5329
 2.1200	26.5168
 2.1190	26.5654
 2.1180	26.5664
 2.1170	26.5851
 2.1160	26.5836
 2.1150	26.6389
 2.1140	26.5159
 2.1130	26.5897
 2.1120	26.6359
 2.1110	26.6248
 2.1100	26.6368
 2.1090	26.6521
 2.1080	26.6692
 2.1070	26.6951
 2.1060	26.6919
 2.1050	26.7133
 2.1040	26.7344
 2.1030	26.7370
 2.1020	26.7034
 2.1010	26.7562
 2.1000	26.7148
 2.0990	26.7682
 2.0980	26.8138
 2.0970	26.8173
 2.0960	26.8228
 2.0950	26.8635
 2.0940	26.8939
 2.0930	26.8483
 2.0920	26.9148
 2.0910	26.9637
 2.0900	26.9115
 2.0890	26.9435
 2.0880	26.9645
 2.0870	27.0023
 2.0860	27.0162
 2.0850	27.0030
 2.0840	27.0513
 2.0830	27.0952
 2.0820	27.0736
 2.0810	27.0990
 2.0800	27.1085
 2.0790	27.0981
 2.0780	27.0931
 2.0770	27.1215
 2.0760	27.1233
 2.0750	27.1719
 2.0740	27.1907
 2.0730	27.2146
 2.0720	27.1622
 2.0710	27.1482
 2.0700	27.1569
 2.0690	27.1855
 2.0680	27.2127
 2.0670	27.1818
 2.0660	27.2295
 2.0650	27.2411
 2.0640	27.1919
 2.0630	27.1844
 2.0620	27.2164
 2.0610	27.2205
 2.0600	27.1668
 2.0590	27.1378
 2.0580	27.1520
 2.0570	27.1858
 2.0560	27.1725
 2.0550	27.1304
 2.0540	27.1226
 2.0530	27.1114
 2.0520	27.0787
 2.0510	27.0555
 2.0500	27.0772
 2.0490	27.0340
 2.0480	26.9664
 2.0470	26.8700
 2.0460	26.8626
 2.0450	26.8519
 2.0440	26.8492
 2.0430	26.8022
 2.0420	26.7397
 2.0410	26.6675
 2.0400	26.6048
 2.0390	26.4867
 2.0380	26.4782
 2.0370	26.4063
 2.0360	26.3128
 2.0350	26.2226
 2.0340	26.1296
 2.0330	26.0576
 2.0320	25.9761
 2.0310	25.8634
 2.0300	25.8380
 2.0290	25.7319
 2.0280	25.6304
 2.0270	25.4828
 2.0260	25.3701
 2.0250	25.2469
 2.0240	25.2011
 2.0230	25.0652
 2.0220	24.9372
 2.0210	24.7712
 2.0200	24.6261
 2.0190	24.5102
 2.0180	24.5039
 2.0170	24.2833
 2.0160	24.0965
 2.0150	24.0313
 2.0140	23.9817
 2.0130	23.7704
 2.0120	23.6474
 2.0110	23.4736
 2.0100	23.3630
 2.0090	23.2846
 2.0080	23.1694
 2.0070	23.0233
 2.0060	22.9413
 2.0050	22.8034
 2.0040	22.7230
 2.0030	22.6221
 2.0020	22.5314
 2.0010	22.3653
 2.0000	22.3489
 1.9990	22.2501
 1.9980	22.1495
 1.9970	22.0986
 1.9960	22.1012
 1.9950	21.9653
 1.9940	21.9302
 1.9930	21.8462
 1.9920	21.8509
 1.9910	21.7303
 1.9900	21.6982
 1.9890	21.6444
 1.9880	21.6644
 1.9870	21.6239
 1.9860	21.5624
 1.9850	21.5765
 1.9840	21.5018
 1.9830	21.4901
 1.9820	21.5689
 1.9810	21.6033
 1.9800	21.5963
 1.9790	21.5980
 1.9780	21.6496
 1.9770	21.6218
 1.9760	21.6780
 1.9750	21.6142
 1.9740	21.6854
 1.9730	21.7156
 1.9720	21.8027
 1.9710	21.7028
 1.9700	21.8343
 1.9690	21.7656
 1.9680	21.8787
 1.9670	21.9099
 1.9660	21.9362
 1.9650	21.9745
 1.9640	22.0842
 1.9630	22.0002
 1.9620	22.1702
 1.9610	22.1131
 1.9600	22.2514
 1.9590	22.2682
 1.9580	22.4329
 1.9570	22.3342
 1.9560	22.4786
 1.9550	22.4809
 1.9540	22.6367
 1.9530	22.6142
 1.9520	22.7234
 1.9510	22.8332
 1.9500	22.8362
 1.9490	22.9051
 1.9480	23.1003
 1.9470	23.0790
 1.9460	23.1902
 1.9450	23.3074
 1.9440	23.4631
 1.9430	23.4245
 1.9420	23.7101
 1.9410	23.7212
 1.9400	23.8292
 1.9390	24.0285
 1.9380	24.1107
 1.9370	24.1755
 1.9360	24.4561
 1.9350	24.4714
 1.9340	24.7154
 1.9330	24.7910
 1.9320	24.9982
 1.9310	25.1668
 1.9300	25.3476
 1.9290	25.5780
 1.9280	25.7546
 1.9270	25.8427
 1.9260	25.9516
 1.9250	26.1310
 1.9240	26.3681
 1.9230	26.5589
 1.9220	26.8015
 1.9210	26.9677
 1.9200	27.1238
 1.9190	27.2665
 1.9180	27.6619
 1.9170	27.7337
 1.9160	28.1653
 1.9150	28.1784
 1.9140	28.5243
 1.9130	28.6203
 1.9120	28.9510
 1.9110	29.0526
 1.9100	29.3455
 1.9090	29.4405
 1.9080	29.7646
 1.9070	29.9086
 1.9060	30.1962
 1.9050	30.3502
 1.9040	30.5987
 1.9030	30.7415
 1.9020	30.9865
 1.9010	31.1532
 1.9000	31.4269
 1.8990	31.5680
 1.8980	31.8170
 1.8970	31.9951
 1.8960	32.1494
 1.8950	32.3061
 1.8940	32.5172
 1.8930	32.5724
 1.8920	32.7844
 1.8910	32.8905
 1.8900	33.0476
 1.8890	33.2048
 1.8880	33.3968
 1.8870	33.5329
 1.8860	33.6277
 1.8850	33.7006
 1.8840	33.8508
 1.8830	33.9336
 1.8820	34.0548
 1.8810	34.1830
 1.8800	34.2602
 1.8790	34.2877
 1.8780	34.4440
 1.8770	34.5703
 1.8760	34.6333
 1.8750	34.6284
 1.8740	34.8270
 1.8730	34.7928
 1.8720	34.9109
 1.8710	35.0129
 1.8700	35.1326
 1.8690	35.2787
 1.8680	35.4053
 1.8670	35.4150
 1.8660	35.5181
 1.8650	35.5829
 1.8640	35.6641
 1.8630	35.6896
 1.8620	35.7766
 1.8610	35.8662
 1.8600	35.9409
 1.8590	35.9174
 1.8580	36.0073
 1.8570	36.0156
 1.8560	36.0912
 1.8550	36.1739
 1.8540	36.2051
 1.8530	36.1917
 1.8520	36.3496
 1.8510	36.3594
 1.8500	36.4122
 1.8490	36.4017
 1.8480	36.4645
 1.8470	36.4935
 1.8460	36.5342
 1.8450	36.6025
 1.8440	36.6305
 1.8430	36.6436
 1.8420	36.6306
 1.8410	36.6744
 1.8400	36.7145
 1.8390	36.7351
 1.8380	36.7548
 1.8370	36.7924
 1.8360	36.8077
 1.8350	36.8677
 1.8340	36.9307
 1.8330	36.8916
 1.8320	36.9280
 1.8310	36.9057
 1.8300	36.9271
 1.8290	36.8744
 1.8280	36.9146
 1.8270	36.9819
 1.8260	37.0200
 1.8250	36.9807
 1.8240	36.9649
 1.8230	36.9937
 1.8220	37.0061
 1.8210	36.9915
 1.8200	37.0296
 1.8190	37.0342
 1.8180	37.0380
 1.8170	37.0427
 1.8160	37.0707
 1.8150	37.1064
 1.8140	37.0987
 1.8130	37.1288
 1.8120	37.2157
 1.8110	37.1932
 1.8100	37.2002
 1.8090	37.1706
 1.8080	37.1916
 1.8070	37.2032
 1.8060	37.2627
 1.8050	37.2751
 1.8040	37.2679
 1.8030	37.2930
 1.8020	37.3356
 1.8010	37.3385
 1.8000	37.3764
 1.7990	37.3954
 1.7980	37.4399
 1.7970	37.4655
 1.7960	37.4454
 1.7950	37.4737
 1.7940	37.5465
 1.7930	37.6111
 1.7920	37.6386
 1.7910	37.6390
 1.7900	37.7193
 1.7890	37.7537
 1.7880	37.7842
 1.7870	37.8229
 1.7860	37.8507
 1.7850	37.9036
 1.7840	37.9354
 1.7830	38.0194
 1.7820	38.1356
 1.7810	38.1701
 1.7800	38.2050
 1.7790	38.3023
 1.7780	38.3636
 1.7770	38.4154
 1.7760	38.4736
 1.7750	38.5503
 1.7740	38.6019
 1.7730	38.6598
 1.7720	38.7200
 1.7710	38.7780
 1.7700	38.8146
 1.7690	38.9201
 1.7680	38.9460
 1.7670	39.0142
 1.7660	39.1449
 1.7650	39.2677
 1.7640	39.3017
 1.7630	39.2995
 1.7620	39.3845
 1.7610	39.5043
 1.7600	39.5197
 1.7590	39.6349
 1.7580	39.6865
 1.7570	39.7347
 1.7560	39.7997
 1.7550	39.9497
 1.7540	40.0050
 1.7530	40.0607
 1.7520	40.0562
 1.7510	40.1642
 1.7500	40.2556
 1.7490	40.3359
 1.7480	40.3560
 1.7470	40.5128
 1.7460	40.5068
 1.7450	40.5973
 1.7440	40.7151
 1.7430	40.8186
 1.7420	40.8645
 1.7410	40.9494
 1.7400	41.0466
 1.7390	41.1430
 1.7380	41.1382
 1.7370	41.2426
 1.7360	41.3382
 1.7350	41.3886
 1.7340	41.4563
 1.7330	41.5643
 1.7320	41.6510
 1.7310	41.7060
 1.7300	41.7721
 1.7290	41.8964
 1.7280	41.9627
 1.7270	42.0677
 1.7260	42.0895
 1.7250	42.1070
 1.7240	42.1945
 1.7230	42.2950
 1.7220	42.4180
 1.7210	42.5041
 1.7200	42.5410
 1.7190	42.6504
 1.7180	42.7135
 1.7170	42.8652
 1.7160	42.8793
 1.7150	42.9608
 1.7140	43.0655
 1.7130	43.1397
 1.7120	43.2449
 1.7110	43.3265
 1.7100	43.4411
 1.7090	43.5252
 1.7080	43.5510
 1.7070	43.6956
 1.7060	43.8168
 1.7050	43.9151
 1.7040	43.9310
 1.7030	44.0349
 1.7020	44.2300
 1.7010	44.3566
 1.7000	44.3186
 1.6990	44.4430
 1.6980	44.4934
 1.6970	44.6716
 1.6960	44.6604
 1.6950	44.8552
 1.6940	44.8756
 1.6930	44.9985
 1.6920	45.0823
 1.6910	45.1508
 1.6900	45.3306
 1.6890	45.3686
 1.6880	45.4687
 1.6870	45.5141
 1.6860	45.6322
 1.6850	45.6919
 1.6840	45.7514
 1.6830	45.9296
 1.6820	45.9738
 1.6810	46.1762
 1.6800	46.1921
 1.6790	46.2659
 1.6780	46.3514
 1.6770	46.3640
 1.6760	46.4202
 1.6750	46.5813
 1.6740	46.5663
 1.6730	46.7565
 1.6720	46.7674
 1.6710	46.8951
 1.6700	46.9457
 1.6690	47.0980
 1.6680	47.0609
 1.6670	47.2096
 1.6660	47.2915
 1.6650	47.3009
 1.6640	47.3228
 1.6630	47.3924
 1.6620	47.4671
 1.6610	47.5691
 1.6600	47.5897
 1.6590	47.7436
 1.6580	47.7156
 1.6570	47.7420
 1.6560	47.8459
 1.6550	47.9697
 1.6540	47.9773
 1.6530	48.0453
 1.6520	48.0760
 1.6510	48.1357
 1.6500	48.1645
 1.6490	48.2480
 1.6480	48.2229
 1.6470	48.4219
 1.6460	48.3725
 1.6450	48.3935
 1.6440	48.3817
 1.6430	48.5538
 1.6420	48.5733
 1.6410	48.4872
 1.6400	48.6216
 1.6390	48.7142
 1.6380	48.7217
 1.6370	48.7264
 1.6360	48.7539
 1.6350	48.8765
 1.6340	48.7829
 1.6330	48.8740
 1.6320	48.9792
 1.6310	49.0603
 1.6300	49.0048
 1.6290	49.0933
 1.6280	49.0624
 1.6270	49.1405
 1.6260	49.1593
 1.6250	49.1608
 1.6240	49.2034
 1.6230	49.2436
 1.6220	49.2605
 1.6210	49.3803
 1.6200	49.3317
 1.6190	49.3556
 1.6180	49.3493
 1.6170	49.4631
 1.6160	49.4146
 1.6150	49.4871
 1.6140	49.5013
 1.6130	49.5513
 1.6120	49.5315
 1.6110	49.6210
 1.6100	49.6324
 1.6090	49.6254
 1.6080	49.6531
 1.6070	49.6455
 1.6060	49.6603
 1.6050	49.7313
 1.6040	49.6963
 1.6030	49.7548
 1.6020	49.7217
 1.6010	49.8240
 1.6000	49.7496
 1.5990	49.7719
 1.5980	49.7271
 1.5970	49.8479
 1.5960	49.8377
 1.5950	49.8984
 1.5940	49.8647
 1.5930	49.8205
 1.5920	49.8204
 1.5910	49.8427
 1.5900	49.8370
 1.5890	49.8971
 1.5880	49.8364
 1.5870	49.8498
 1.5860	49.8563
 1.5850	49.8728
 1.5840	49.8513
 1.5830	49.9366
 1.5820	49.9691
 1.5810	49.9026
 1.5800	49.9652
 1.5790	50.0303
 1.5780	49.9843
 1.5770	50.0388
 1.5760	50.0292
 1.5750	50.1037
 1.5740	49.9608
 1.5730	50.0102
 1.5720	50.0068
 1.5710	50.0143
 1.5700	50.0504
 1.5690	50.1566
 1.5680	50.1299
 1.5670	50.0985
 1.5660	50.1559
 1.5650	50.2034
 1.5640	50.1955
 1.5630	50.2481
 1.5620	50.2236
 1.5610	50.2762
 1.5600	50.2886
 1.5590	50.3021
 1.5580	50.3928
 1.5570	50.4117
 1.5560	50.4548
 1.5550	50.5020
 1.5540	50.5927
 1.5530	50.6416
 1.5520	50.6510
 1.5510	50.6952
 1.5500	50.7266
 1.5490	50.8071
 1.5480	50.8876
 1.5470	50.9734
 1.5460	50.9857
 1.5450	51.0682
 1.5440	51.1179
 1.5430	51.2230
 1.5420	51.2920
 1.5410	51.3183
 1.5400	51.3423
 1.5390	51.4495
 1.5380	51.5366
 1.5370	51.6232
 1.5360	51.6466
 1.5350	51.7262
 1.5340	51.7964
 1.5330	51.9015
 1.5320	52.0013
 1.5310	52.0914
 1.5300	52.1289
 1.5290	52.2344
 1.5280	52.3245
 1.5270	52.4075
 1.5260	52.4838
 1.5250	52.5439
 1.5240	52.5947
 1.5230	52.7387
 1.5220	52.8053
 1.5210	52.8930
 1.5200	52.9373
 1.5190	52.9933
 1.5180	53.1001
 1.5170	53.1362
 1.5160	53.2086
 1.5150	53.3118
 1.5140	53.3851
 1.5130	53.4984
 1.5120	53.5292
 1.5110	53.5380
 1.5100	53.5431
 1.5090	53.6150
 1.5080	53.6604
 1.5070	53.7014
 1.5060	53.7495
 1.5050	53.7149
 1.5040	53.7196
 1.5030	53.7962
 1.5020	53.8057
 1.5010	53.7998
 1.5000	53.7913
 1.4990	53.7449
 1.4980	53.7371
 1.4970	53.6952
 1.4960	53.6460
 1.4950	53.6434
 1.4940	53.6042
 1.4930	53.6066
 1.4920	53.5929
 1.4910	53.5176
 1.4900	53.4596
 1.4890	53.3895
 1.4880	53.4283
 1.4870	53.4358
 1.4860	53.4039
 1.4850	53.3604
 1.4840	53.3562
 1.4830	53.3714
 1.4820	53.3638
 1.4810	53.3942
 1.4800	53.4723
 1.4790	53.4695
 1.4780	53.4483
 1.4770	53.4887
 1.4760	53.6611
 1.4750	53.7483
 1.4740	53.8298
 1.4730	53.8901
 1.4720	53.9374
 1.4710	54.0489
 1.4700	54.2372
 1.4690	54.3038
 1.4680	54.4199
 1.4670	54.5725
 1.4660	54.6901
 1.4650	54.8112
 1.4640	55.0103
 1.4630	55.1217
 1.4620	55.2530
 1.4610	55.4277
 1.4600	55.5818
 1.4590	55.7500
 1.4580	56.0061
 1.4570	56.1744
 1.4560	56.3975
 1.4550	56.6102
 1.4540	56.8172
 1.4530	57.0660
 1.4520	57.3390
 1.4510	57.5804
 1.4500	57.8969
 1.4490	58.2049
 1.4480	58.5110
 1.4470	58.7814
 1.4460	59.1835
 1.4450	59.4934
 1.4440	59.8567
 1.4430	60.2416
 1.4420	60.6860
 1.4410	61.0855
 1.4400	61.5014
 1.4390	61.9112
 1.4380	62.3090
 1.4370	62.6379
 1.4360	63.0236
 1.4350	63.4169
 1.4340	63.9284
 1.4330	64.2854
 1.4320	64.7991
 1.4310	65.2131
 1.4300	65.6264
 1.4290	65.9684
 1.4280	66.3834
 1.4270	66.8580
 1.4260	67.2014
 1.4250	67.5581
 1.4240	68.0126
 1.4230	68.3221
 1.4220	68.7314
 1.4210	69.0620
 1.4200	69.4855
 1.4190	69.8030
 1.4180	70.1013
 1.4170	70.4883
 1.4160	70.8220
 1.4150	71.1299
 1.4140	71.3956
 1.4130	71.7279
 1.4120	72.0555
 1.4110	72.3064
 1.4100	72.5460
 1.4090	72.8179
 1.4080	73.0907
 1.4070	73.2954
 1.4060	73.5863
 1.4050	73.7835
 1.4040	74.0434
 1.4030	74.2149
 1.4020	74.3972
 1.4010	74.6311
 1.4000	74.8147
 1.3990	74.9248
 1.3980	75.1257
 1.3970	75.2491
 1.3960	75.4131
 1.3950	75.5351
 1.3940	75.7212
 1.3930	75.7861
 1.3920	75.9449
 1.3910	75.9986
 1.3900	76.0935
 1.3890	76.2467
 1.3880	76.2719
 1.3870	76.3437
 1.3860	76.4595
 1.3850	76.2885
 1.3840	76.4848
 1.3830	76.4625
 1.3820	76.5881
 1.3810	76.7083
 1.3800	76.7279
 1.3790	76.7359
 1.3780	76.8596
 1.3770	76.8854
 1.3760	77.0226
 1.3750	76.9441
 1.3740	77.0297
 1.3730	77.0171
 1.3720	77.0936
 1.3710	77.0843
 1.3700	77.1762
 1.3690	77.1839
 1.3680	77.2369
 1.3670	77.3226
 1.3660	77.3677
 1.3650	77.3787
 1.3640	77.4173
 1.3630	77.5983
 1.3620	77.4426
 1.3610	77.6343
 1.3600	77.6616
 1.3590	77.8634
 1.3580	77.9252
 1.3570	77.9580
 1.3560	78.0102
 1.3550	78.0800
 1.3540	78.1137
 1.3530	78.2292
 1.3520	78.3201
 1.3510	78.2679
 1.3500	78.4243
 1.3490	78.5351
 1.3480	78.5584
 1.3470	78.6348
 1.3460	78.8530
 1.3450	78.8458
 1.3440	78.9260
 1.3430	78.9995
 1.3420	79.1765
 1.3410	79.1328
 1.3400	79.2856
 1.3390	79.3345
 1.3380	79.4914
 1.3370	79.5041
 1.3360	79.5996
 1.3350	79.6733
 1.3340	79.7732
 1.3330	79.9710
 1.3320	80.0103
 1.3310	80.0052
 1.3300	80.1148
 1.3290	80.2132
 1.3280	80.3252
 1.3270	80.3805
 1.3260	80.4921
 1.3250	80.5600
 1.3240	80.6947
 1.3230	80.6758
 1.3220	80.7944
 1.3210	80.8668
 1.3200	80.9410
 1.3190	80.9857
 1.3180	81.1478
 1.3170	81.2030
 1.3160	81.1757
 1.3150	81.2743
 1.3140	81.3974
 1.3130	81.3824
 1.3120	81.4357
 1.3110	81.4827
 1.3100	81.4761
 1.3090	81.5886
 1.3080	81.5681
 1.3070	81.6519
 1.3060	81.7828
 1.3050	81.8248
 1.3040	81.8606
 1.3030	81.8674
 1.3020	81.8731
 1.3010	81.8883
 1.3000	81.9100
 1.2990	81.9548
 1.2980	82.0133
 1.2970	81.9897
 1.2960	82.0162
 1.2950	81.9937
 1.2940	81.9968
 1.2930	82.0068
 1.2920	82.0698
 1.2910	82.1016
 1.2900	82.0888
 1.2890	82.1279
 1.2880	82.1384
 1.2870	82.1995
 1.2860	82.2135
 1.2850	82.1262
 1.2840	82.1451
 1.2830	82.1990
 1.2820	82.2024
 1.2810	82.1816
 1.2800	82.2204
 1.2790	82.1374
 1.2780	82.1626
 1.2770	82.1477
 1.2760	82.1187
 1.2750	82.1351
 1.2740	82.1655
 1.2730	82.1591
 1.2720	82.1176
 1.2710	82.0964
 1.2700	82.0828
 1.2690	82.1406
 1.2680	82.1571
 1.2670	82.1042
 1.2660	82.1596
 1.2650	82.0802
 1.2640	82.0276
 1.2630	81.9788
 1.2620	81.9224
 1.2610	81.9554
 1.2600	82.0229
 1.2590	81.9867
 1.2580	81.9998
 1.2570	82.0081
 1.2560	82.0171
 1.2550	82.0148
 1.2540	82.0162
 1.2530	81.9649
 1.2520	82.0091
 1.2510	81.9947
 1.2500	81.9403
 1.2490	81.9551
 1.2480	81.9310
 1.2470	81.9442
 1.2460	81.9948
 1.2450	81.9724
 1.2440	81.9833
 1.2430	82.0383
 1.2420	82.0391
 1.2410	82.0782
 1.2400	82.1281
 1.2390	82.1117
 1.2380	82.1446
 1.2370	82.1684
 1.2360	82.2016
 1.2350	82.2298
 1.2340	82.1976
 1.2330	82.1904
 1.2320	82.2142
 1.2310	82.2950
 1.2300	82.3188
 1.2290	82.2614
 1.2280	82.2675
 1.2270	82.3491
 1.2260	82.4212
 1.2250	82.3981
 1.2240	82.3805
 1.2230	82.3857
 1.2220	82.4656
 1.2210	82.5339
 1.2200	82.5656
 1.2190	82.5747
 1.2180	82.5540
 1.2170	82.5311
 1.2160	82.5703
 1.2150	82.5982
 1.2140	82.6417
 1.2130	82.7152
 1.2120	82.7424
 1.2110	82.7673
 1.2100	82.8193
 1.2090	82.8755
 1.2080	82.8908
 1.2070	82.9508
 1.2060	82.9979
 1.2050	83.0201
 1.2040	83.0708
 1.2030	83.1287
 1.2020	83.2245
 1.2010	83.2281
 1.2000	83.2312
 1.1990	83.2815
 1.1980	83.3197
 1.1970	83.3649
 1.1960	83.3949
 1.1950	83.5240
 1.1940	83.5561
 1.1930	83.5375
 1.1920	83.6412
 1.1910	83.7326
 1.1900	83.7714
 1.1890	83.8350
 1.1880	83.9120
 1.1870	83.9533
 1.1860	83.9779
 1.1850	84.0100
 1.1840	84.0315
 1.1830	84.1071
 1.1820	84.2161
 1.1810	84.2567
 1.1800	84.2829
 1.1790	84.3227
 1.1780	84.4453
 1.1770	84.5127
 1.1760	84.5304
 1.1750	84.5861
 1.1740	84.6696
 1.1730	84.7958
 1.1720	84.8092
 1.1710	84.8894
 1.1700	84.9655
 1.1690	85.0901
 1.1680	85.1819
 1.1670	85.2885
 1.1660	85.3707
 1.1650	85.4170
 1.1640	85.5425
 1.1630	85.5806
 1.1620	85.6951
 1.1610	85.8176
 1.1600	85.8369
 1.1590	85.8914
 1.1580	85.9528
 1.1570	86.1323
 1.1560	86.1476
 1.1550	86.2872
 1.1540	86.3071
 1.1530	86.3237
 1.1520	86.4878
 1.1510	86.6258
 1.1500	86.6363
 1.1490	86.6681
 1.1480	86.6630
 1.1470	86.6653
 1.1460	86.7478
 1.1450	86.8111
 1.1440	86.8538
 1.1430	86.9400
 1.1420	87.0004
 1.1410	86.9220
 1.1400	86.9266
 1.1390	86.9028
 1.1380	86.9890
 1.1370	87.1625
 1.1360	87.1327
 1.1350	87.2335
 1.1340	87.1927
 1.1330	87.2456
 1.1320	87.2455
 1.1310	87.2812
 1.1300	87.2231
 1.1290	87.3038
 1.1280	87.3830
 1.1270	87.4245
 1.1260	87.4800
 1.1250	87.4386
 1.1240	87.5324
 1.1230	87.4699
 1.1220	87.4501
 1.1210	87.4291
 1.1200	87.4998
 1.1190	87.5694
 1.1180	87.4960
 1.1170	87.4993
 1.1160	87.4747
 1.1150	87.5246
 1.1140	87.6754
 1.1130	87.5611
 1.1120	87.5813
 1.1110	87.6954
 1.1100	87.6385
 1.1090	87.7436
 1.1080	87.8074
 1.1070	87.6657
 1.1060	87.8536
 1.1050	87.8035
 1.1040	87.7306
 1.1030	87.7221
 1.1020	87.8497
 1.1010	87.8275
 1.1000	87.7716
 1.0990	87.8986
 1.0980	87.8404
 1.0970	87.8490
 1.0960	87.9482
 1.0950	88.0070
 1.0940	87.9148
 1.0930	87.9925
 1.0920	88.0086
 1.0910	87.9705
 1.0900	87.9711
 1.0890	88.0015
 1.0880	88.0066
 1.0870	88.1422
 1.0860	88.0551
 1.0850	88.1352
 1.0840	88.0093
 1.0830	88.0704
 1.0820	88.1418
 1.0810	88.0223
 1.0800	88.0942
 1.0790	88.1383
 1.0780	88.1298
 1.0770	88.1438
 1.0760	88.1374
 1.0750	88.2158
 1.0740	88.1217
 1.0730	88.1285
 1.0720	88.1441
 1.0710	88.1371
 1.0700	88.1761
 1.0690	88.1817
 1.0680	88.1040
 1.0670	88.2091
 1.0660	88.0779
 1.0650	88.1582
 1.0640	88.2567
 1.0630	88.1306
 1.0620	88.1723
 1.0610	88.1119
 1.0600	88.1316
 1.0590	88.2089
 1.0580	88.1424
 1.0570	88.1736
 1.0560	88.1622
 1.0550	88.1655
 1.0540	88.2451
 1.0530	88.1672
 1.0520	88.0661
 1.0510	88.1054
 1.0500	88.2131
 1.0490	88.1887
 1.0480	88.0602
 1.0470	88.1590
 1.0460	88.0113
 1.0450	88.1068
 1.0440	88.0801
 1.0430	88.0338
 1.0420	87.9164
 1.0410	88.1308
 1.0400	88.0628
 1.0390	87.9947
 1.0380	87.9320
 1.0370	88.0262
 1.0360	87.9023
 1.0350	87.9311
 1.0340	87.9895
 1.0330	87.9374
 1.0320	87.9700
 1.0310	87.9940
 1.0300	87.8785
 1.0290	87.8665
 1.0280	87.8642
 1.0270	87.8986
 1.0260	87.8362
 1.0250	87.7678
 1.0240	87.8547
 1.0230	87.8824
 1.0220	87.7928
 1.0210	87.8305
 1.0200	87.7643
 1.0190	87.6663
 1.0180	87.7657
 1.0170	87.7973
 1.0160	87.7252
 1.0150	87.7342
 1.0140	87.6630
 1.0130	87.7368
 1.0120	87.6290
 1.0110	87.7250
 1.0100	87.7333
 1.0090	87.6507
 1.0080	87.6469
 1.0070	87.6746
 1.0060	87.6724
 1.0050	87.6330
 1.0040	87.7027
 1.0030	87.6581
 1.0020	87.7631
 1.0010	87.6765
 1.0000	87.6755
 0.9990	87.7644
 0.9980	87.6791
 0.9970	87.7244
 0.9960	87.7891
 0.9950	87.8462
 0.9940	87.8957
 0.9930	87.8686
 0.9920	87.8053
 0.9910	87.8511
 0.9900	87.9036
 0.9890	87.9153
 0.9880	87.9081
 0.9870	87.9447
 0.9860	87.9088
 0.9850	87.9386
 0.9840	87.9798
 0.9830	87.9585
 0.9820	87.9540
 0.9810	88.0774
 0.9800	88.1588
 0.9790	88.1991
 0.9780	88.1830
 0.9770	88.1984
 0.9760	88.2521
 0.9750	88.2313
 0.9740	88.2841
 0.9730	88.3486
 0.9720	88.3756
 0.9710	88.4239
 0.9700	88.5134
 0.9690	88.4467
 0.9680	88.5151
 0.9670	88.5782
 0.9660	88.6212
 0.9650	88.6235
 0.9640	88.6655
 0.9630	88.6977
 0.9620	88.7141
 0.9610	88.7208
 0.9600	88.7311
 0.9590	88.7350
 0.9580	88.7456
 0.9570	88.8307
 0.9560	88.8334
 0.9550	88.8441
 0.9540	88.8620
 0.9530	88.8757
 0.9520	88.9223
 0.9510	88.9322
 0.9500	88.9000
 0.9490	88.9111
 0.9480	88.9076
 0.9470	88.8888
 0.9460	88.9763
 0.9450	88.9566
 0.9440	88.9735
 0.9430	89.0735
 0.9420	89.0593
 0.9410	89.0279
 0.9400	88.9920
 0.9390	89.0094
 0.9380	89.0364
 0.9370	89.0745
 0.9360	89.0981
 0.9350	89.1145
 0.9340	89.1276
 0.9330	89.0842
 0.9320	89.0911
 0.9310	89.0682
 0.9300	89.0513
 0.9290	89.1018
 0.9280	89.1253
 0.9270	89.1056
 0.9260	89.0609
 0.9250	89.0587
 0.9240	89.1223
 0.9230	89.1892
 0.9220	89.1600
 0.9210	89.1411
 0.9200	89.1875
 0.9190	89.1743
 0.9180	89.1769
 0.9170	89.1840
 0.9160	89.1749
 0.9150	89.1586
 0.9140	89.1428
 0.9130	89.1511
 0.9120	89.1481
 0.9110	89.1809
 0.9100	89.2191
 0.9090	89.1896
 0.9080	89.1578
 0.9070	89.1829
 0.9060	89.1920
 0.9050	89.1386
 0.9040	89.1827
 0.9030	89.2380
 0.9020	89.2261
 0.9010	89.2075
 0.9000	89.1586
 0.8990	89.1198
 0.8980	89.1336
 0.8970	89.1711
 0.8960	89.1657
 0.8950	89.1704
 0.8940	89.2260
 0.8930	89.1876
 0.8920	89.1663
 0.8910	89.1873
 0.8900	89.1574
 0.8890	89.2085
 0.8880	89.2198
 0.8870	89.2180
 0.8860	89.3280
 0.8850	89.2611
 0.8840	89.2934
 0.8830	89.3311
 0.8820	89.2148
 0.8810	89.1988
 0.8800	89.1186
 0.8790	89.2425
 0.8780	89.2573
 0.8770	89.3236
 0.8760	89.2810
 0.8750	89.2536
 0.8740	89.1733
 0.8730	89.1949
 0.8720	89.2731
 0.8710	89.1900
 0.8700	89.2130
 0.8690	89.2406
 0.8680	89.2710
 0.8670	89.2537
 0.8660	89.3054
 0.8650	89.3518
 0.8640	89.3294
 0.8630	89.2424
 0.8620	89.4178
 0.8610	89.2923
 0.8600	89.5381
 0.8590	89.4532
 0.8580	89.4698
 0.8570	89.3662
 0.8560	89.4658
 0.8550	89.5194
 0.8540	89.4055
 0.8530	89.3909
 0.8520	89.5140
 0.8510	89.5477
 0.8500	89.5388
 0.8490	89.5797
 0.8480	89.4775
 0.8470	89.4914
 0.8460	89.5349
 0.8450	89.4696
 0.8440	89.4727
 0.8430	89.5475
 0.8420	89.5881
 0.8410	89.5132
 0.8400	89.5397
 0.8390	89.6033
 0.8380	89.5891
 0.8370	89.5655
 0.8360	89.5716
 0.8350	89.6391
 0.8340	89.5811
 0.8330	89.5960
 0.8320	89.6025
 0.8310	89.6419
 0.8300	89.5674
 0.8290	89.5837
 0.8280	89.5439
 0.8270	89.6253
 0.8260	89.5849
 0.8250	89.6028
 0.8240	89.5108
 0.8230	89.6359
 0.8220	89.6109
 0.8210	89.5725
 0.8200	89.5713
 0.8190	89.6771
 0.8180	89.6199
 0.8170	89.5937
 0.8160	89.6596
 0.8150	89.6608
 0.8140	89.6057
 0.8130	89.6491
 0.8120	89.6107
 0.8110	89.6262
 0.8100	89.6280
 0.8090	89.6497
 0.8080	89.7062
 0.8070	89.6524
 0.8060	89.6509
 0.8050	89.7025
 0.8040	89.6948
 0.8030	89.6560
 0.8020	89.6494
 0.8010	89.7402
 0.8000	89.6407
 0.7990	89.6544
 0.7980	89.7079
 0.7970	89.5605
 0.7960	89.6220
 0.7950	89.6121
 0.7940	89.5293
 0.7930	89.5803
 0.7920	89.5618
 0.7910	89.6013
 0.7900	89.5473
 0.7890	89.6035
 0.7880	89.6134
 0.7870	89.5788
 0.7860	89.5769
 0.7850	89.6467
 0.7840	89.6191
 0.7830	89.6227
 0.7820	89.5965
 0.7810	89.6309
 0.7800	89.6244
 0.7790	89.5751
 0.7780	89.5992
 0.7770	89.5827
 0.7760	89.5737
 0.7750	89.5348
 0.7740	89.5461
 0.7730	89.5812
 0.7720	89.5632
 0.7710	89.5302
 0.7700	89.5348
 0.7690	89.5419
 0.7680	89.5546
 0.7670	89.5597
 0.7660	89.6017
 0.7650	89.5609
 0.7640	89.5936
 0.7630	89.5953
 0.7620	89.5894
 0.7610	89.5762
 0.7600	89.5490
 0.7590	89.5467
 0.7580	89.5602
 0.7570	89.5614
 0.7560	89.5820
 0.7550	89.5677
 0.7540	89.5671
 0.7530	89.6083
 0.7520	89.5859
 0.7510	89.6036
 0.7500	89.6106
 0.7490	89.6069
 0.7480	89.5822
 0.7470	89.6277
 0.7460	89.6005
 0.7450	89.6306
 0.7440	89.6307
 0.7430	89.6415
 0.7420	89.6458
 0.7410	89.6268
 0.7400	89.6354
 0.7390	89.6259
 0.7380	89.6163
 0.7370	89.6204
 0.7360	89.6134
 0.7350	89.6034
 0.7340	89.6092
 0.7330	89.6006
 0.7320	89.5982
 0.7310	89.6171
 0.7300	89.6434
 0.7290	89.6161
 0.7280	89.5984
 0.7270	89.6316
 0.7260	89.6298
 0.7250	89.6378
 0.7240	89.6508
 0.7230	89.5995
 0.7220	89.6209
 0.7210	89.6357
 0.7200	89.6150
 0.7190	89.6359
 0.7180	89.6495
 0.7170	89.6317
 0.7160	89.6223
 0.7150	89.6274
 0.7140	89.6327
 0.7130	89.6058
 0.7120	89.5959
 0.7110	89.6057
 0.7100	89.6111
 0.7090	89.5856
 0.7080	89.5899
 0.7070	89.6117
 0.7060	89.6039
 0.7050	89.5825
 0.7040	89.6020
 0.7030	89.5986
 0.7020	89.5834
 0.7010	89.6017
 0.7000	89.5886
 0.6990	89.5799
 0.6980	89.5898
 0.6970	89.5980
 0.6960	89.5922
 0.6950	89.5832
 0.6940	89.5776
 0.6930	89.5719
 0.6920	89.5771
 0.6910	89.5894
 0.6900	89.5863
 0.6890	89.5739
 0.6880	89.5862
 0.6870	89.5792
 0.6860	89.5770
 0.6850	89.5770
 0.6840	89.5627
 0.6830	89.5728
 0.6820	89.5607
 0.6810	89.5399
 0.6800	89.5404
 0.6790	89.5566
 0.6780	89.5567
 0.6770	89.5338
 0.6760	89.5497
 0.6750	89.5646
 0.6740	89.5294
 0.6730	89.5235
 0.6720	89.5264
 0.6710	89.5383
 0.6700	89.5440
 0.6690	89.5268
 0.6680	89.5280
 0.6670	89.5328
 0.6660	89.5180
 0.6650	89.5238
 0.6640	89.5053
 0.6630	89.4863
 0.6620	89.5030
 0.6610	89.5202
 0.6600	89.5213
 0.6590	89.5010
 0.6580	89.4852
 0.6570	89.4927
 0.6560	89.5022
 0.6550	89.5000
 0.6540	89.4913
 0.6530	89.4832
 0.6520	89.4796
 0.6510	89.4809
 0.6500	89.4815
 0.6490	89.4573
 0.6480	89.4549
 0.6470	89.4635
 0.6460	89.4651
 0.6450	89.4777
 0.6440	89.4759
 0.6430	89.4628
 0.6420	89.4535
 0.6410	89.4456
 0.6400	89.4473
 0.6390	89.4356
 0.6380	89.4349
 0.6370	89.4361
 0.6360	89.4343
 0.6350	89.4243
 0.6340	89.4121
 0.6330	89.4066
 0.6320	89.3964
 0.6310	89.4062
 0.6300	89.4142
 0.6290	89.3798
 0.6280	89.3808
 0.6270	89.4032
 0.6260	89.3891
 0.6250	89.3874
 0.6240	89.3766
 0.6230	89.3728
 0.6220	89.3731
 0.6210	89.3653
 0.6200	89.3597
 0.6190	89.3538
 0.6180	89.3348
 0.6170	89.3223
 0.6160	89.3340
 0.6150	89.3328
 0.6140	89.3320
 0.6130	89.3654
 0.6120	89.3789
 0.6110	89.3809
 0.6100	89.3818
 0.6090	89.3720
 0.6080	89.3635
 0.6070	89.3695
 0.6060	89.3705
 0.6050	89.3457
 0.6040	89.3296
 0.6030	89.3276
 0.6020	89.3068
 0.6010	89.3064
 0.6000	89.3163
 0.5990	89.3417
 0.5980	89.3494
 0.5970	89.3609
 0.5960	89.3715
 0.5950	89.3842
 0.5940	89.3751
 0.5930	89.3636
 0.5920	89.3556
 0.5910	89.3571
 0.5900	89.3534
 0.5890	89.3480
 0.5880	89.3291
 0.5870	89.2969
 0.5860	89.2984
 0.5850	89.2952
 0.5840	89.3083
 0.5830	89.2980
 0.5820	89.2744
 0.5810	89.2638
 0.5800	89.2614
 0.5790	89.2521
 0.5780	89.2436
 0.5770	89.2236
 0.5760	89.2050
 0.5750	89.1958
 0.5740	89.2085
 0.5730	89.1772
 0.5720	89.1716
 0.5710	89.1682
 0.5700	89.1567
 0.5690	89.1504
 0.5680	89.1333
 0.5670	89.1209
 0.5660	89.1065
 0.5650	89.0905
 0.5640	89.0847
 0.5630	89.0679
 0.5620	89.0568
 0.5610	89.0542
 0.5600	89.0506
 0.5590	89.0254
 0.5580	89.0141
 0.5570	89.0109
 0.5560	88.9891
 0.5550	88.9655
 0.5540	88.9469
 0.5530	88.9275
 0.5520	88.9172
 0.5510	88.8985
 0.5500	88.8925
 0.5490	88.8820
 0.5480	88.8648
 0.5470	88.8484
 0.5460	88.8198
 0.5450	88.8214
 0.5440	88.8074
 0.5430	88.7905
 0.5420	88.7755
 0.5410	88.7623
 0.5400	88.7224
 0.5390	88.7128
 0.5380	88.6634
 0.5370	88.6548
 0.5360	88.6445
 0.5350	88.6332
 0.5340	88.6058
 0.5330	88.5959
 0.5320	88.5471
 0.5310	88.5414
 0.5300	88.5215
 0.5290	88.4923
 0.5280	88.4694
 0.5270	88.4496
 0.5260	88.4399
 0.5250	88.4101
 0.5240	88.3520
 0.5230	88.3234
 0.5220	88.3194
 0.5210	88.3027
 0.5200	88.2752
 0.5190	88.2408
 0.5180	88.2228
 0.5170	88.1685
 0.5160	88.1563
 0.5150	88.1185
 0.5140	88.0911
 0.5130	88.0627
 0.5120	88.0232
 0.5110	87.9822
 0.5100	87.9671
 0.5090	87.9145
 0.5080	87.9116
 0.5070	87.8727
 0.5060	87.8332
 0.5050	87.8073
 0.5040	87.7715
 0.5030	87.7201
 0.5020	87.7262
 0.5010	87.6745
 0.5000	87.6508
 0.4990	87.6075
 0.4980	87.6037
 0.4970	87.5180
 0.4960	87.4802
 0.4950	87.4576
 0.4940	87.4357
 0.4930	87.3691
 0.4920	87.3589
 0.4910	87.3016
 0.4900	87.2823
 0.4890	87.2353
 0.4880	87.2085
 0.4870	87.1865
 0.4860	87.1803
 0.4850	87.1215
 0.4840	87.0882
 0.4830	87.0608
 0.4820	87.0319
 0.4810	86.9862
 0.4800	86.9350
 0.4790	86.9103
 0.4780	86.9006
 0.4770	86.8608
 0.4760	86.8110
 0.4750	86.7892
 0.4740	86.7501
 0.4730	86.7117
 0.4720	86.7067
 0.4710	86.6604
 0.4700	86.6581
 0.4690	86.5955
 0.4680	86.5538
 0.4670	86.5155
 0.4660	86.4800
 0.4650	86.4561
 0.4640	86.4232
 0.4630	86.3797
 0.4620	86.3358
 0.4610	86.3152
 0.4600	86.2776
 0.4590	86.2262
 0.4580	86.2007
 0.4570	86.1569
 0.4560	86.0920
 0.4550	86.0384
 0.4540	86.0224
 0.4530	85.9834
 0.4520	85.9272
 0.4510	85.8811
 0.4500	85.8357
 0.4490	85.8031
 0.4480	85.7680
 0.4470	85.7209
 0.4460	85.6747
 0.4450	85.6172
 0.4440	85.5525
 0.4430	85.5246
 0.4420	85.4392
 0.4410	85.3855
 0.4400	85.3065
 0.4390	85.2626
 0.4380	85.1670
 0.4370	85.0927
 0.4360	85.0290
 0.4350	84.9776
 0.4340	84.8763
 0.4330	84.8017
 0.4320	84.7504
 0.4310	84.7106
 0.4300	84.6855
 0.4290	84.6568
 0.4280	84.6111
 0.4270	84.6071
 0.4260	84.5567
 0.4250	84.5303
 0.4240	84.4947
 0.4230	84.4476
 0.4220	84.3771
 0.4210	84.2894
 0.4200	84.2210
 0.4190	84.1390
 0.4180	84.0348
 0.4170	83.9640
 0.4160	83.8844
 0.4150	83.7982
 0.4140	83.6848
 0.4130	83.5857
 0.4120	83.4876
 0.4110	83.3749
 0.4100	83.2671
 0.4090	83.1494
 0.4080	83.0363
 0.4070	82.9285
 0.4060	82.8010
 0.4050	82.6696
 0.4040	82.5588
 0.4030	82.4325
 0.4020	82.3152
 0.4010	82.1627
 0.4000	82.0100
