Name: Vermiculite (Mg,Fe^2+,Al)_3(Al,Si)_4O_10(OH)_2.4H_2O
Type: Mineral
Class: Silicate
Subclass: Phyllosilicate
Particle Size: Medium
Sample No.: PS-18B
Owner: JPL
Wavelength Range: VSWIR
Origin: USA, Montana, Lincoln County, Libby
Collection Date: N/A
Description: Particle size was 45-125um.Collected by Ward's Original ASTER Spectral Library name was jpl.beckman.mineral.silicate.phyllosilicate.medium.ps18b.spectrum.txt
Measurement: Hemispherical reflectance
First Column: X
Second Column: Y
X Units: Wavelength (micrometers)
Y Units:Reflectance (percent)
First X Value:  0.4000
Last X Value:  2.5000
Number of X Values: 826
Additional Information: mineral.silicate.phyllosilicate.medium.vswir.ps-18b.jpl.beckman.ancillary.txt

 0.4000	 9.5700
 0.4010	 9.8000
 0.4020	 9.9800
 0.4030	 9.9800
 0.4040	 9.8600
 0.4050	10.0300
 0.4060	10.1500
 0.4070	10.2600
 0.4080	10.2600
 0.4090	10.1500
 0.4100	10.2600
 0.4110	10.2600
 0.4120	10.2600
 0.4130	10.2100
 0.4140	10.0900
 0.4150	10.2100
 0.4160	10.3800
 0.4170	10.4900
 0.4180	10.6100
 0.4190	10.6100
 0.4200	10.6600
 0.4210	10.6100
 0.4220	10.8900
 0.4230	11.1200
 0.4240	11.1200
 0.4250	11.2300
 0.4260	11.2300
 0.4270	11.4600
 0.4280	11.8000
 0.4290	11.8600
 0.4300	11.9800
 0.4310	11.9800
 0.4320	12.1400
 0.4330	12.4300
 0.4340	12.5400
 0.4350	12.6000
 0.4360	12.7100
 0.4370	12.9400
 0.4380	13.2300
 0.4390	13.3500
 0.4400	13.4000
 0.4410	13.3500
 0.4420	13.5700
 0.4430	13.8000
 0.4440	13.9700
 0.4450	14.0800
 0.4460	14.0200
 0.4470	14.2000
 0.4480	14.4300
 0.4490	14.5400
 0.4500	14.6600
 0.4510	14.4800
 0.4520	14.6600
 0.4530	14.8900
 0.4540	15.0000
 0.4550	15.1100
 0.4560	15.0600
 0.4570	15.0600
 0.4580	15.1700
 0.4590	15.2300
 0.4600	15.2900
 0.4610	15.2900
 0.4620	15.4500
 0.4630	15.5200
 0.4640	15.4600
 0.4650	15.4000
 0.4660	15.4000
 0.4670	15.5200
 0.4680	15.5200
 0.4690	15.6900
 0.4700	15.5800
 0.4710	15.5200
 0.4720	15.5800
 0.4730	15.8600
 0.4740	15.9800
 0.4750	15.8600
 0.4760	15.7500
 0.4770	15.8600
 0.4780	16.0400
 0.4790	16.2100
 0.4800	16.2600
 0.4810	16.2600
 0.4820	16.3100
 0.4830	16.4900
 0.4840	16.7700
 0.4850	16.8300
 0.4860	16.8300
 0.4870	16.8300
 0.4880	17.0000
 0.4890	17.2900
 0.4900	17.3500
 0.4910	17.3500
 0.4920	17.4000
 0.4930	17.5800
 0.4940	17.8100
 0.4950	18.1500
 0.4960	18.2700
 0.4970	18.2700
 0.4980	18.4900
 0.4990	18.7200
 0.5000	18.9500
 0.5010	19.1700
 0.5020	19.1700
 0.5030	19.2900
 0.5040	19.5200
 0.5050	19.8100
 0.5060	20.0400
 0.5070	20.1500
 0.5080	20.1500
 0.5090	20.2700
 0.5100	20.6700
 0.5110	20.8300
 0.5120	21.0000
 0.5130	21.0600
 0.5140	21.0600
 0.5150	21.3500
 0.5160	21.6900
 0.5170	21.8600
 0.5180	21.8600
 0.5190	21.9200
 0.5200	22.1500
 0.5210	22.3700
 0.5220	22.5400
 0.5230	22.6600
 0.5240	22.7200
 0.5250	22.8300
 0.5260	22.8900
 0.5270	23.2300
 0.5280	23.4000
 0.5290	23.3500
 0.5300	23.4600
 0.5310	23.5200
 0.5320	23.7500
 0.5330	23.9200
 0.5340	24.0300
 0.5350	23.9200
 0.5360	23.9200
 0.5370	24.1400
 0.5380	24.4300
 0.5390	24.4900
 0.5400	24.5400
 0.5410	24.3700
 0.5420	24.5400
 0.5430	24.7200
 0.5440	24.8300
 0.5450	24.7200
 0.5460	24.7200
 0.5470	24.8300
 0.5480	25.0600
 0.5490	25.3500
 0.5500	25.3500
 0.5510	25.2300
 0.5520	25.4100
 0.5530	25.4600
 0.5540	25.6300
 0.5550	25.8000
 0.5560	25.6300
 0.5570	25.6800
 0.5580	25.8000
 0.5590	25.6300
 0.5600	26.0300
 0.5610	26.2000
 0.5620	26.2000
 0.5630	26.2600
 0.5640	26.2600
 0.5650	26.2600
 0.5660	26.4300
 0.5670	26.5400
 0.5680	26.4900
 0.5690	26.4900
 0.5700	26.4900
 0.5710	26.6000
 0.5720	26.7200
 0.5730	26.7200
 0.5740	26.6000
 0.5750	26.6000
 0.5760	26.7700
 0.5770	26.9500
 0.5780	27.0000
 0.5790	26.9500
 0.5800	26.8300
 0.5810	27.0600
 0.5820	27.1800
 0.5830	27.1800
 0.5840	27.1200
 0.5850	27.0600
 0.5860	27.2900
 0.5870	27.4000
 0.5880	27.4000
 0.5890	27.4000
 0.5900	27.2900
 0.5910	27.5100
 0.5920	27.7400
 0.5930	27.6800
 0.5940	27.6800
 0.5950	27.5700
 0.5960	27.6800
 0.5970	27.8500
 0.5980	27.9100
 0.5990	28.0800
 0.6000	27.9100
 0.6010	27.9700
 0.6020	28.1400
 0.6030	28.2600
 0.6040	28.2600
 0.6050	28.1400
 0.6060	28.3100
 0.6070	28.4300
 0.6080	28.4900
 0.6090	28.5400
 0.6100	28.4900
 0.6110	28.5400
 0.6120	28.6600
 0.6130	28.7700
 0.6140	28.7200
 0.6150	28.6000
 0.6160	28.6600
 0.6170	28.8300
 0.6180	29.0500
 0.6190	28.9500
 0.6200	28.8300
 0.6210	28.8300
 0.6220	28.9900
 0.6230	29.2800
 0.6240	29.1700
 0.6250	29.0500
 0.6260	29.0500
 0.6270	29.1100
 0.6280	29.4500
 0.6290	29.3400
 0.6300	29.2800
 0.6310	29.2800
 0.6320	29.4000
 0.6330	29.6300
 0.6340	29.6300
 0.6350	29.6300
 0.6360	29.5700
 0.6370	29.5100
 0.6380	29.8000
 0.6390	29.7400
 0.6400	29.8600
 0.6410	29.8000
 0.6420	29.6300
 0.6430	29.7400
 0.6440	29.9100
 0.6450	29.9700
 0.6460	29.9100
 0.6470	29.8000
 0.6480	29.8600
 0.6490	29.9700
 0.6500	30.1400
 0.6510	30.0800
 0.6520	30.0300
 0.6530	29.9700
 0.6540	30.0800
 0.6550	30.3100
 0.6560	30.2600
 0.6570	30.1400
 0.6580	30.0800
 0.6590	30.2000
 0.6600	30.3700
 0.6610	30.4300
 0.6620	30.3100
 0.6630	30.3100
 0.6640	30.3100
 0.6650	30.4300
 0.6660	30.4300
 0.6670	30.4300
 0.6680	30.3100
 0.6690	30.3100
 0.6700	30.5400
 0.6710	30.6000
 0.6720	30.6000
 0.6730	30.5400
 0.6740	30.4900
 0.6750	30.4900
 0.6760	30.5400
 0.6770	30.7100
 0.6780	30.5400
 0.6790	30.4900
 0.6800	30.5400
 0.6810	30.6000
 0.6820	30.8800
 0.6830	30.6500
 0.6840	30.6000
 0.6850	30.5400
 0.6860	30.5400
 0.6870	30.7100
 0.6880	30.7600
 0.6890	30.7100
 0.6900	30.5400
 0.6910	30.6000
 0.6920	30.7100
 0.6930	30.7600
 0.6940	30.7100
 0.6950	30.6500
 0.6960	30.5400
 0.6970	30.6500
 0.6980	30.7100
 0.6990	30.7100
 0.7000	30.6000
 0.7010	30.6000
 0.7020	30.7100
 0.7030	30.9400
 0.7040	30.7600
 0.7050	30.6500
 0.7060	30.7100
 0.7070	30.8200
 0.7080	30.9900
 0.7090	30.8800
 0.7100	30.8800
 0.7110	30.8200
 0.7120	30.8800
 0.7130	30.9900
 0.7140	31.1100
 0.7150	30.9900
 0.7160	31.0500
 0.7170	30.9400
 0.7180	31.1100
 0.7190	31.2800
 0.7200	31.2800
 0.7210	31.1700
 0.7220	30.9900
 0.7230	31.1700
 0.7240	31.3400
 0.7250	31.4000
 0.7260	31.2800
 0.7270	31.2200
 0.7280	31.2800
 0.7290	31.5100
 0.7300	31.6300
 0.7310	31.5100
 0.7320	31.4000
 0.7330	31.4500
 0.7340	31.4500
 0.7350	31.7400
 0.7360	31.6800
 0.7370	31.6300
 0.7380	31.5700
 0.7390	31.6300
 0.7400	31.8600
 0.7410	32.0300
 0.7420	31.9100
 0.7430	31.8000
 0.7440	31.7400
 0.7450	31.9700
 0.7460	32.0900
 0.7470	32.0900
 0.7480	32.0900
 0.7490	32.0300
 0.7500	32.1400
 0.7510	32.3600
 0.7520	32.2600
 0.7530	32.1400
 0.7540	32.0900
 0.7550	32.3100
 0.7560	32.4800
 0.7570	32.4800
 0.7580	32.4200
 0.7590	32.3100
 0.7600	32.4800
 0.7610	32.7100
 0.7620	32.8200
 0.7630	32.6500
 0.7640	32.6500
 0.7650	32.7600
 0.7660	32.9900
 0.7670	33.1700
 0.7680	33.0500
 0.7690	32.9900
 0.7700	33.1100
 0.7710	33.1700
 0.7720	33.4000
 0.7730	33.2800
 0.7740	33.2800
 0.7750	33.3400
 0.7760	33.4000
 0.7770	33.5100
 0.7780	33.4500
 0.7790	33.2800
 0.7800	33.4000
 0.7810	33.4500
 0.7820	33.6300
 0.7830	33.5100
 0.7840	33.5700
 0.7850	33.6300
 0.7860	33.6800
 0.7870	33.9100
 0.7880	33.7400
 0.7890	33.7400
 0.7900	33.8000
 0.7910	33.9600
 0.7920	34.1300
 0.7930	34.1300
 0.7940	34.0200
 0.7950	34.0200
 0.7960	34.1300
 0.7970	34.4200
 0.7980	34.3100
 0.7990	34.9900
 0.8000	35.0300
 0.8040	35.1700
 0.8080	35.3400
 0.8120	35.3400
 0.8160	35.4500
 0.8200	35.6200
 0.8240	35.5100
 0.8280	35.6700
 0.8320	35.6700
 0.8360	35.7300
 0.8400	35.7300
 0.8440	35.7900
 0.8480	35.7300
 0.8520	35.7300
 0.8560	35.7900
 0.8600	35.7300
 0.8640	35.7300
 0.8680	35.7300
 0.8720	35.7900
 0.8760	35.6700
 0.8800	35.6200
 0.8840	35.6700
 0.8880	35.6200
 0.8920	35.5100
 0.8960	35.4500
 0.9000	35.5700
 0.9040	35.5700
 0.9080	35.4500
 0.9120	35.5700
 0.9160	35.5700
 0.9200	35.5700
 0.9240	35.5100
 0.9280	35.6200
 0.9320	35.4500
 0.9360	35.6700
 0.9400	35.7300
 0.9440	35.7300
 0.9480	35.7300
 0.9520	35.7900
 0.9560	35.9000
 0.9600	35.9600
 0.9640	35.9000
 0.9680	35.9600
 0.9720	36.0200
 0.9760	36.1300
 0.9800	36.0800
 0.9840	36.1900
 0.9880	36.1900
 0.9920	36.1900
 0.9960	36.2500
 1.0000	36.3600
 1.0040	36.2500
 1.0080	36.4800
 1.0120	36.4200
 1.0160	36.4200
 1.0200	36.5400
 1.0240	36.5400
 1.0280	36.5400
 1.0320	36.5900
 1.0360	36.7100
 1.0400	36.6500
 1.0440	36.7700
 1.0480	36.6500
 1.0520	36.8200
 1.0560	36.8200
 1.0600	36.7700
 1.0640	36.7700
 1.0680	36.8800
 1.0720	36.9400
 1.0760	36.8800
 1.0800	36.9900
 1.0840	36.8800
 1.0880	36.9900
 1.0920	36.9900
 1.0960	37.1700
 1.1000	37.2800
 1.1040	37.3300
 1.1080	37.2200
 1.1120	37.3300
 1.1160	37.3900
 1.1200	37.3900
 1.1240	37.5600
 1.1280	37.5600
 1.1320	37.6200
 1.1360	37.6200
 1.1400	37.9000
 1.1440	37.8500
 1.1480	37.9000
 1.1520	37.9000
 1.1560	38.0800
 1.1600	38.1800
 1.1640	38.3000
 1.1680	38.5200
 1.1720	38.5200
 1.1760	38.6300
 1.1800	38.6200
 1.1840	38.8500
 1.1880	38.8400
 1.1920	39.0700
 1.1960	39.1900
 1.2000	39.2900
 1.2040	39.5200
 1.2080	39.5800
 1.2120	39.6900
 1.2160	39.7500
 1.2200	39.9800
 1.2240	40.2100
 1.2280	40.3200
 1.2320	40.3800
 1.2360	40.5400
 1.2400	40.7700
 1.2440	41.0000
 1.2480	41.0000
 1.2520	41.2300
 1.2560	41.4000
 1.2600	41.5700
 1.2640	41.6100
 1.2680	41.7900
 1.2720	42.0700
 1.2760	42.1200
 1.2800	42.3500
 1.2840	42.4600
 1.2880	42.7300
 1.2920	42.9100
 1.2960	43.0800
 1.3000	43.1300
 1.3040	43.3600
 1.3080	43.4600
 1.3120	43.6900
 1.3160	43.9100
 1.3200	44.0800
 1.3240	44.0700
 1.3280	44.1900
 1.3320	44.4600
 1.3360	44.5800
 1.3400	44.7400
 1.3440	44.9100
 1.3480	45.0200
 1.3520	45.1300
 1.3560	45.2500
 1.3600	45.4200
 1.3640	45.3600
 1.3680	45.1300
 1.3720	44.6700
 1.3760	44.6700
 1.3800	44.6700
 1.3840	44.5700
 1.3880	43.8800
 1.3920	43.5400
 1.3960	43.5900
 1.4000	43.8200
 1.4040	43.7800
 1.4080	43.4300
 1.4120	43.2100
 1.4160	42.9800
 1.4200	43.2700
 1.4240	43.4500
 1.4280	43.5700
 1.4320	43.7400
 1.4360	44.1400
 1.4400	44.3100
 1.4440	44.6100
 1.4480	44.7800
 1.4520	45.1300
 1.4560	45.1800
 1.4600	45.5800
 1.4640	45.8600
 1.4680	45.9800
 1.4720	46.2600
 1.4760	46.4900
 1.4800	46.9400
 1.4840	47.1700
 1.4880	47.4000
 1.4920	47.5800
 1.4960	47.8500
 1.5000	48.2000
 1.5040	48.5400
 1.5080	48.7700
 1.5120	48.9900
 1.5160	49.2800
 1.5200	49.5100
 1.5240	49.6800
 1.5280	49.9100
 1.5320	50.0800
 1.5360	50.2000
 1.5400	50.3600
 1.5440	50.5900
 1.5480	50.8200
 1.5520	50.9300
 1.5560	51.0500
 1.5600	51.3400
 1.5640	51.3900
 1.5680	51.5600
 1.5720	51.6700
 1.5760	51.9000
 1.5800	52.0200
 1.5840	52.1300
 1.5880	52.3000
 1.5920	52.4800
 1.5960	52.4800
 1.6000	52.5900
 1.6040	52.9300
 1.6080	52.9700
 1.6120	53.0900
 1.6160	53.1900
 1.6200	53.3100
 1.6240	53.4100
 1.6280	53.5300
 1.6320	53.6900
 1.6360	53.6300
 1.6400	53.8500
 1.6440	53.9100
 1.6480	54.1300
 1.6520	54.2400
 1.6560	54.2900
 1.6600	54.4500
 1.6640	54.5700
 1.6680	54.7900
 1.6720	54.8500
 1.6760	54.9500
 1.6800	54.9500
 1.6840	55.0600
 1.6880	55.2700
 1.6920	55.3900
 1.6960	55.4500
 1.7000	55.4400
 1.7040	55.6100
 1.7080	55.7800
 1.7120	55.7200
 1.7160	55.8400
 1.7200	55.9400
 1.7240	55.9000
 1.7280	56.0000
 1.7320	56.1200
 1.7360	55.9400
 1.7400	56.0600
 1.7440	56.2300
 1.7480	56.2900
 1.7520	56.1700
 1.7560	56.2900
 1.7600	56.3500
 1.7640	56.4000
 1.7680	56.3500
 1.7720	56.2900
 1.7760	56.5200
 1.7800	56.5200
 1.7840	56.6300
 1.7880	56.5200
 1.7920	56.6900
 1.7960	56.5200
 1.8000	56.7500
 1.8040	56.9000
 1.8080	56.9400
 1.8120	57.0300
 1.8160	57.0100
 1.8200	57.1700
 1.8240	57.0900
 1.8280	57.1800
 1.8320	57.2200
 1.8360	57.2000
 1.8400	57.1300
 1.8440	57.0600
 1.8480	56.9800
 1.8520	56.9100
 1.8560	56.6200
 1.8600	56.2200
 1.8640	55.9300
 1.8680	55.1900
 1.8720	54.5700
 1.8760	53.3700
 1.8800	52.2400
 1.8840	50.5900
 1.8880	48.8300
 1.8920	46.8000
 1.8960	44.6900
 1.9000	42.7100
 1.9040	40.6200
 1.9080	39.1400
 1.9120	37.9500
 1.9160	37.4400
 1.9200	37.0900
 1.9240	37.2600
 1.9280	37.5400
 1.9320	37.8800
 1.9360	38.2700
 1.9400	38.7800
 1.9440	39.2800
 1.9480	39.6200
 1.9520	40.2300
 1.9560	40.5600
 1.9600	40.9500
 1.9640	41.3900
 1.9680	41.8300
 1.9720	42.2800
 1.9760	42.7600
 1.9800	43.3800
 1.9840	43.7100
 1.9880	44.3100
 1.9920	44.7600
 1.9960	45.4200
 2.0000	45.8600
 2.0040	46.3800
 2.0080	46.8500
 2.0120	47.3900
 2.0160	47.8100
 2.0200	48.2000
 2.0240	48.7100
 2.0280	49.0600
 2.0320	49.4300
 2.0360	49.9100
 2.0400	50.1200
 2.0440	50.4600
 2.0480	50.8200
 2.0520	51.0100
 2.0560	51.2600
 2.0600	51.5800
 2.0640	51.8400
 2.0680	52.1500
 2.0720	52.3600
 2.0760	52.6200
 2.0800	52.7600
 2.0840	53.0700
 2.0880	53.2700
 2.0920	53.4700
 2.0960	53.6700
 2.1000	53.8700
 2.1040	54.0700
 2.1080	54.3300
 2.1120	54.3600
 2.1160	54.6700
 2.1200	54.8100
 2.1240	54.9900
 2.1280	55.0000
 2.1320	55.3100
 2.1360	55.3600
 2.1400	55.3600
 2.1440	55.6100
 2.1480	55.8000
 2.1520	55.8400
 2.1560	55.8300
 2.1600	55.9800
 2.1640	55.8800
 2.1680	56.0100
 2.1720	56.0200
 2.1760	56.1500
 2.1800	56.0500
 2.1840	56.0400
 2.1880	55.9700
 2.1920	55.9700
 2.1960	55.9600
 2.2000	55.8800
 2.2040	55.9400
 2.2080	55.8800
 2.2120	55.9000
 2.2160	55.6400
 2.2200	55.6700
 2.2240	55.4900
 2.2280	55.3800
 2.2320	55.0900
 2.2360	55.0700
 2.2400	54.7100
 2.2440	54.4300
 2.2480	53.9200
 2.2520	53.6400
 2.2560	53.0500
 2.2600	52.4700
 2.2640	51.6300
 2.2680	50.7800
 2.2720	49.9300
 2.2760	48.8500
 2.2800	47.7700
 2.2840	46.7400
 2.2880	45.7100
 2.2920	44.8400
 2.2960	43.9100
 2.3000	43.2100
 2.3040	42.6900
 2.3080	42.5600
 2.3120	42.2100
 2.3160	42.2400
 2.3200	42.1200
 2.3240	42.2500
 2.3280	42.3800
 2.3320	42.5200
 2.3360	42.6500
 2.3400	42.8300
 2.3440	43.1400
 2.3480	42.9600
 2.3520	43.0500
 2.3560	42.8100
 2.3600	42.5200
 2.3640	42.2200
 2.3680	41.8200
 2.3720	41.4300
 2.3760	40.9900
 2.3800	40.7100
 2.3840	40.3000
 2.3880	40.1200
 2.3920	39.8400
 2.3960	39.7200
 2.4000	39.5600
 2.4040	39.4500
 2.4080	39.3300
 2.4120	39.1100
 2.4160	39.0000
 2.4200	38.8200
 2.4240	38.7100
 2.4280	38.5900
 2.4320	38.3200
 2.4360	38.1000
 2.4400	37.8700
 2.4440	37.7500
 2.4480	37.4800
 2.4520	37.2000
 2.4560	37.0300
 2.4600	36.6900
 2.4640	36.3600
 2.4680	36.1400
 2.4720	35.9200
 2.4760	35.6300
 2.4800	35.3000
 2.4840	35.1300
 2.4880	35.0200
 2.4920	34.6800
 2.4960	34.4100
 2.5000	34.2300
