Name: Diopside CaMg(SiO_3)_2
Type: Mineral
Class: Silicate
Subclass: Inosilicate
Particle Size: Coarse
Sample No.: IN-9B
Owner: JPL
Wavelength Range: VSWIR
Origin: Canada, Quebec
Collection Date: N/A
Description: Particle size was 125-500um.Collected by Ward's Original ASTER Spectral Library name was jpl.beckman.mineral.silicate.inosilicate.coarse.in09b.spectrum.txt
Measurement: Hemispherical reflectance
First Column: X
Second Column: Y
X Units: Wavelength (micrometers)
Y Units:Reflectance (percent)
First X Value:  0.4000
Last X Value:  2.5000
Number of X Values: 826
Additional Information: mineral.silicate.inosilicate.coarse.vswir.in-9b.jpl.beckman.ancillary.txt

 0.4000	 7.5700
 0.4010	 7.8700
 0.4020	 7.9400
 0.4030	 7.8600
 0.4040	 7.9800
 0.4050	 7.8700
 0.4060	 7.9800
 0.4070	 7.9800
 0.4080	 7.8700
 0.4090	 7.8000
 0.4100	 7.9100
 0.4110	 8.0900
 0.4120	 7.9800
 0.4130	 7.9900
 0.4140	 8.1000
 0.4150	 8.1600
 0.4160	 8.2800
 0.4170	 8.2300
 0.4180	 8.2200
 0.4190	 8.3900
 0.4200	 8.5600
 0.4210	 8.5700
 0.4220	 8.5800
 0.4230	 8.6500
 0.4240	 8.6500
 0.4250	 8.7000
 0.4260	 8.8100
 0.4270	 8.8100
 0.4280	 8.9300
 0.4290	 9.0500
 0.4300	 9.1100
 0.4310	 9.1700
 0.4320	 9.2200
 0.4330	 9.3300
 0.4340	 9.4800
 0.4350	 9.5100
 0.4360	 9.5000
 0.4370	 9.6800
 0.4380	 9.8700
 0.4390	 9.8700
 0.4400	 9.9900
 0.4410	 9.9400
 0.4420	10.0700
 0.4430	10.2500
 0.4440	10.2300
 0.4450	10.2700
 0.4460	10.2600
 0.4470	10.3300
 0.4480	10.4600
 0.4490	10.4900
 0.4500	10.5500
 0.4510	10.6500
 0.4520	10.6500
 0.4530	10.7600
 0.4540	10.6900
 0.4550	10.7200
 0.4560	10.7900
 0.4570	10.7700
 0.4580	10.8600
 0.4590	10.9200
 0.4600	10.9100
 0.4610	10.8800
 0.4620	10.8700
 0.4630	11.0100
 0.4640	11.0600
 0.4650	11.1500
 0.4660	11.1200
 0.4670	11.1000
 0.4680	11.2400
 0.4690	11.2900
 0.4700	11.2900
 0.4710	11.3300
 0.4720	11.2900
 0.4730	11.4600
 0.4740	11.4500
 0.4750	11.4600
 0.4760	11.3900
 0.4770	11.5400
 0.4780	11.7300
 0.4790	11.6800
 0.4800	11.7100
 0.4810	11.8500
 0.4820	11.8400
 0.4830	11.9900
 0.4840	12.0000
 0.4850	12.2200
 0.4860	12.2700
 0.4870	12.3700
 0.4880	12.2900
 0.4890	12.3300
 0.4900	12.5800
 0.4910	12.4900
 0.4920	12.7700
 0.4930	12.7300
 0.4940	12.7700
 0.4950	13.0000
 0.4960	12.9000
 0.4970	12.9500
 0.4980	13.0000
 0.4990	13.1600
 0.5000	13.3200
 0.5010	13.3000
 0.5020	13.4100
 0.5030	13.4600
 0.5040	13.5600
 0.5050	13.8300
 0.5060	13.9400
 0.5070	14.1600
 0.5080	14.1600
 0.5090	14.2800
 0.5100	14.1800
 0.5110	14.1400
 0.5120	14.2200
 0.5130	14.3000
 0.5140	14.3500
 0.5150	14.3400
 0.5160	14.3700
 0.5170	14.5400
 0.5180	14.5600
 0.5190	14.6300
 0.5200	14.4900
 0.5210	14.6900
 0.5220	14.8100
 0.5230	14.7600
 0.5240	14.7900
 0.5250	14.8100
 0.5260	14.9100
 0.5270	15.0400
 0.5280	15.1500
 0.5290	15.2700
 0.5300	15.3000
 0.5310	15.3700
 0.5320	15.3800
 0.5330	15.3400
 0.5340	15.3900
 0.5350	15.3900
 0.5360	15.4600
 0.5370	15.4000
 0.5380	15.3500
 0.5390	15.4800
 0.5400	15.5300
 0.5410	15.5000
 0.5420	15.4600
 0.5430	15.4400
 0.5440	15.5000
 0.5450	15.4300
 0.5460	15.5500
 0.5470	15.4500
 0.5480	15.4700
 0.5490	15.6100
 0.5500	15.5300
 0.5510	15.5100
 0.5520	15.4300
 0.5530	15.5900
 0.5540	15.6200
 0.5550	15.5600
 0.5560	15.6300
 0.5570	15.6100
 0.5580	15.6000
 0.5590	15.6200
 0.5600	15.6100
 0.5610	15.6200
 0.5620	15.5300
 0.5630	15.3600
 0.5640	15.3300
 0.5650	15.3200
 0.5660	15.4200
 0.5670	15.3700
 0.5680	15.3400
 0.5690	15.3700
 0.5700	15.3700
 0.5710	15.4300
 0.5720	15.3500
 0.5730	15.3300
 0.5740	15.3000
 0.5750	15.3100
 0.5760	15.5000
 0.5770	15.4200
 0.5780	15.4100
 0.5790	15.3300
 0.5800	15.3600
 0.5810	15.3700
 0.5820	15.2500
 0.5830	15.2500
 0.5840	15.2600
 0.5850	15.1800
 0.5860	15.1500
 0.5870	15.2200
 0.5880	15.2400
 0.5890	15.2100
 0.5900	15.2200
 0.5910	15.1300
 0.5920	15.1200
 0.5930	15.2100
 0.5940	15.1900
 0.5950	15.1200
 0.5960	15.0300
 0.5970	15.1600
 0.5980	15.2000
 0.5990	15.1600
 0.6000	15.1200
 0.6010	15.1400
 0.6020	15.1300
 0.6030	15.2700
 0.6040	15.1400
 0.6050	15.0900
 0.6060	15.2000
 0.6070	15.2400
 0.6080	15.2300
 0.6090	15.0700
 0.6100	15.2300
 0.6110	15.2500
 0.6120	15.1500
 0.6130	15.1000
 0.6140	15.2100
 0.6150	15.1400
 0.6160	15.2200
 0.6170	15.1100
 0.6180	15.0500
 0.6190	15.2300
 0.6200	15.2800
 0.6210	15.2600
 0.6220	15.1500
 0.6230	15.1800
 0.6240	15.2000
 0.6250	15.2000
 0.6260	15.1800
 0.6270	15.1400
 0.6280	15.1400
 0.6290	15.2000
 0.6300	15.2300
 0.6310	15.2200
 0.6320	15.2200
 0.6330	15.1800
 0.6340	15.2400
 0.6350	15.2300
 0.6360	15.1700
 0.6370	15.1600
 0.6380	15.1200
 0.6390	15.2700
 0.6400	15.2900
 0.6410	15.2200
 0.6420	15.2300
 0.6430	15.2200
 0.6440	15.2700
 0.6450	15.2100
 0.6460	15.3300
 0.6470	15.3700
 0.6480	15.3200
 0.6490	15.2000
 0.6500	15.1900
 0.6510	15.2700
 0.6520	15.3900
 0.6530	15.3300
 0.6540	15.3000
 0.6550	15.3600
 0.6560	15.4000
 0.6570	15.4500
 0.6580	15.4000
 0.6590	15.4000
 0.6600	15.3700
 0.6610	15.3400
 0.6620	15.3800
 0.6630	15.4200
 0.6640	15.5000
 0.6650	15.3900
 0.6660	15.3900
 0.6670	15.3900
 0.6680	15.4300
 0.6690	15.4300
 0.6700	15.3700
 0.6710	15.4300
 0.6720	15.3500
 0.6730	15.5000
 0.6740	15.5200
 0.6750	15.3800
 0.6760	15.3600
 0.6770	15.3800
 0.6780	15.4400
 0.6790	15.5700
 0.6800	15.4600
 0.6810	15.5800
 0.6820	15.5000
 0.6830	15.5100
 0.6840	15.4500
 0.6850	15.5400
 0.6860	15.6100
 0.6870	15.5900
 0.6880	15.5100
 0.6890	15.4700
 0.6900	15.4400
 0.6910	15.6300
 0.6920	15.5900
 0.6930	15.5800
 0.6940	15.5000
 0.6950	15.6400
 0.6960	15.7100
 0.6970	15.6400
 0.6980	15.6800
 0.6990	15.6700
 0.7000	15.6600
 0.7010	15.6200
 0.7020	15.6500
 0.7030	15.7200
 0.7040	15.7500
 0.7050	15.7200
 0.7060	15.8300
 0.7070	15.7500
 0.7080	15.8300
 0.7090	15.8400
 0.7100	15.8400
 0.7110	15.9500
 0.7120	15.8200
 0.7130	15.9300
 0.7140	16.0100
 0.7150	15.9800
 0.7160	15.9000
 0.7170	15.8300
 0.7180	16.0400
 0.7190	15.9300
 0.7200	16.0600
 0.7210	16.1300
 0.7220	16.1200
 0.7230	16.1800
 0.7240	16.0500
 0.7250	16.1200
 0.7260	16.2100
 0.7270	16.1600
 0.7280	16.0800
 0.7290	16.1200
 0.7300	16.2200
 0.7310	16.3500
 0.7320	16.2500
 0.7330	16.2300
 0.7340	16.2100
 0.7350	16.2800
 0.7360	16.3300
 0.7370	16.4100
 0.7380	16.3400
 0.7390	16.3700
 0.7400	16.4700
 0.7410	16.4000
 0.7420	16.5200
 0.7430	16.5000
 0.7440	16.5500
 0.7450	16.6800
 0.7460	16.5400
 0.7470	16.6700
 0.7480	16.6400
 0.7490	16.6500
 0.7500	16.7700
 0.7510	16.7400
 0.7520	16.8500
 0.7530	16.9200
 0.7540	16.9100
 0.7550	16.9300
 0.7560	16.8200
 0.7570	17.0300
 0.7580	16.9900
 0.7590	17.1200
 0.7600	17.0400
 0.7610	17.0800
 0.7620	17.0800
 0.7630	17.1700
 0.7640	17.1300
 0.7650	17.1600
 0.7660	17.3000
 0.7670	17.3900
 0.7680	17.3900
 0.7690	17.4000
 0.7700	17.4600
 0.7710	17.4300
 0.7720	17.4300
 0.7730	17.4600
 0.7740	17.4700
 0.7750	17.5900
 0.7760	17.5400
 0.7770	17.6600
 0.7780	17.6100
 0.7790	17.6600
 0.7800	17.7000
 0.7810	17.7000
 0.7820	17.6900
 0.7830	17.6300
 0.7840	17.7500
 0.7850	17.7400
 0.7860	17.8400
 0.7870	17.8200
 0.7880	17.9300
 0.7890	17.9300
 0.7900	17.8200
 0.7910	17.9600
 0.7920	17.9600
 0.7930	17.9900
 0.7940	18.0300
 0.7950	18.0000
 0.7960	18.0800
 0.7970	18.1000
 0.7980	18.1900
 0.7990	18.3200
 0.8000	18.3800
 0.8040	18.5200
 0.8080	18.4900
 0.8120	18.5000
 0.8160	18.4900
 0.8200	18.5000
 0.8240	18.4900
 0.8280	18.4200
 0.8320	18.4600
 0.8360	18.3600
 0.8400	18.2600
 0.8440	18.2400
 0.8480	18.2200
 0.8520	18.1000
 0.8560	17.9700
 0.8600	17.9700
 0.8640	17.8200
 0.8680	17.8100
 0.8720	17.7300
 0.8760	17.7100
 0.8800	17.6900
 0.8840	17.6800
 0.8880	17.5600
 0.8920	17.5800
 0.8960	17.4300
 0.9000	17.4200
 0.9040	17.3800
 0.9080	17.1700
 0.9120	17.1400
 0.9160	17.0000
 0.9200	16.9400
 0.9240	16.7800
 0.9280	16.7100
 0.9320	16.5700
 0.9360	16.3600
 0.9400	16.3500
 0.9440	16.1700
 0.9480	16.0200
 0.9520	15.8800
 0.9560	15.7600
 0.9600	15.5500
 0.9640	15.4900
 0.9680	15.2200
 0.9720	15.0100
 0.9760	14.7800
 0.9800	14.6000
 0.9840	14.4400
 0.9880	14.1400
 0.9920	14.0700
 0.9960	13.8100
 1.0000	13.7200
 1.0040	13.5100
 1.0080	13.3900
 1.0120	13.2400
 1.0160	13.1000
 1.0200	12.9500
 1.0240	12.8400
 1.0280	12.7700
 1.0320	12.6800
 1.0360	12.6700
 1.0400	12.6100
 1.0440	12.6100
 1.0480	12.5600
 1.0520	12.6200
 1.0560	12.6400
 1.0600	12.6500
 1.0640	12.7300
 1.0680	12.8300
 1.0720	13.0300
 1.0760	13.2200
 1.0800	13.4900
 1.0840	13.6700
 1.0880	13.9700
 1.0920	14.2300
 1.0960	14.4500
 1.1000	14.7500
 1.1040	15.0800
 1.1080	15.3700
 1.1120	15.6400
 1.1160	15.9300
 1.1200	16.2100
 1.1240	16.6000
 1.1280	16.9100
 1.1320	17.2500
 1.1360	17.5200
 1.1400	17.9000
 1.1440	18.2600
 1.1480	18.5300
 1.1520	18.7800
 1.1560	19.0300
 1.1600	19.2800
 1.1640	19.5700
 1.1680	19.7000
 1.1720	20.0300
 1.1760	20.2400
 1.1800	20.4900
 1.1840	20.7500
 1.1880	21.0500
 1.1920	21.2400
 1.1960	21.5800
 1.2000	21.7600
 1.2040	21.9400
 1.2080	22.1000
 1.2120	22.2700
 1.2160	22.4700
 1.2200	22.7500
 1.2240	22.9500
 1.2280	23.0700
 1.2320	23.3200
 1.2360	23.5300
 1.2400	23.7100
 1.2440	23.9300
 1.2480	24.1900
 1.2520	24.3900
 1.2560	24.6400
 1.2600	24.8700
 1.2640	25.0500
 1.2680	25.1800
 1.2720	25.4200
 1.2760	25.5600
 1.2800	25.7600
 1.2840	25.8800
 1.2880	26.1100
 1.2920	26.2800
 1.2960	26.4500
 1.3000	26.5900
 1.3040	26.9100
 1.3080	26.9800
 1.3120	27.2500
 1.3160	27.4400
 1.3200	27.5900
 1.3240	27.8800
 1.3280	28.0300
 1.3320	28.2400
 1.3360	28.4000
 1.3400	28.4600
 1.3440	28.6200
 1.3480	28.7900
 1.3520	28.9100
 1.3560	29.1600
 1.3600	29.1900
 1.3640	29.4000
 1.3680	29.4200
 1.3720	29.5100
 1.3760	29.5900
 1.3800	29.4900
 1.3840	28.6900
 1.3880	27.8100
 1.3920	27.6000
 1.3960	28.2700
 1.4000	28.8900
 1.4040	29.6700
 1.4080	30.0700
 1.4120	30.4400
 1.4160	30.7500
 1.4200	30.8300
 1.4240	31.0000
 1.4280	31.1900
 1.4320	31.3100
 1.4360	31.4800
 1.4400	31.7700
 1.4440	31.7900
 1.4480	32.0400
 1.4520	32.2300
 1.4560	32.4300
 1.4600	32.5200
 1.4640	32.7400
 1.4680	32.7800
 1.4720	32.9700
 1.4760	33.0700
 1.4800	33.2700
 1.4840	33.3600
 1.4880	33.4600
 1.4920	33.6600
 1.4960	33.8000
 1.5000	33.8300
 1.5040	34.0300
 1.5080	34.1500
 1.5120	34.3200
 1.5160	34.4300
 1.5200	34.5100
 1.5240	34.7800
 1.5280	34.8900
 1.5320	35.0100
 1.5360	35.0800
 1.5400	35.1400
 1.5440	35.1900
 1.5480	35.3700
 1.5520	35.4200
 1.5560	35.4900
 1.5600	35.5700
 1.5640	35.6700
 1.5680	35.7700
 1.5720	35.9400
 1.5760	36.0100
 1.5800	36.1700
 1.5840	36.1700
 1.5880	36.3000
 1.5920	36.4300
 1.5960	36.4800
 1.6000	36.5800
 1.6040	36.6300
 1.6080	36.7300
 1.6120	36.7400
 1.6160	36.7900
 1.6200	36.8900
 1.6240	36.9300
 1.6280	36.9700
 1.6320	37.0800
 1.6360	37.1500
 1.6400	37.2100
 1.6440	37.3000
 1.6480	37.3600
 1.6520	37.5100
 1.6560	37.5500
 1.6600	37.6700
 1.6640	37.6600
 1.6680	37.7400
 1.6720	37.7800
 1.6760	37.7900
 1.6800	37.8200
 1.6840	37.8900
 1.6880	37.8200
 1.6920	37.9000
 1.6960	37.9000
 1.7000	38.0200
 1.7040	38.0600
 1.7080	38.1200
 1.7120	38.2300
 1.7160	38.2500
 1.7200	38.2400
 1.7240	38.2500
 1.7280	38.3200
 1.7320	38.2900
 1.7360	38.2500
 1.7400	38.2600
 1.7440	38.3800
 1.7480	38.2500
 1.7520	38.2800
 1.7560	38.2800
 1.7600	38.3000
 1.7640	38.3200
 1.7680	38.3200
 1.7720	38.3700
 1.7760	38.3800
 1.7800	38.3500
 1.7840	38.4000
 1.7880	38.3900
 1.7920	38.4300
 1.7960	38.3900
 1.8000	38.3400
 1.8040	38.3100
 1.8080	38.2700
 1.8120	38.3000
 1.8160	38.2000
 1.8200	38.2000
 1.8240	38.2300
 1.8280	38.1700
 1.8320	38.2100
 1.8360	38.2600
 1.8400	38.1800
 1.8440	38.1000
 1.8480	38.0600
 1.8520	37.8900
 1.8560	37.8200
 1.8600	37.6900
 1.8640	37.6300
 1.8680	37.4000
 1.8720	37.3000
 1.8760	36.9300
 1.8800	36.6400
 1.8840	36.2800
 1.8880	35.7700
 1.8920	35.2100
 1.8960	34.7000
 1.9000	34.0900
 1.9040	33.8000
 1.9080	33.5000
 1.9120	33.5400
 1.9160	33.6000
 1.9200	33.7100
 1.9240	33.8900
 1.9280	33.9100
 1.9320	34.0800
 1.9360	34.0900
 1.9400	34.1000
 1.9440	34.1800
 1.9480	34.0900
 1.9520	34.1200
 1.9560	34.1000
 1.9600	34.1500
 1.9640	34.1700
 1.9680	34.2600
 1.9720	34.2400
 1.9760	34.3200
 1.9800	34.4200
 1.9840	34.4500
 1.9880	34.4400
 1.9920	34.5000
 1.9960	34.5400
 2.0000	34.4800
 2.0040	34.3500
 2.0080	34.3500
 2.0120	34.2800
 2.0160	34.3100
 2.0200	34.3000
 2.0240	34.2700
 2.0280	34.2700
 2.0320	34.2000
 2.0360	34.1900
 2.0400	34.1300
 2.0440	34.0900
 2.0480	33.9200
 2.0520	33.7800
 2.0560	33.6500
 2.0600	33.5000
 2.0640	33.4100
 2.0680	33.4000
 2.0720	33.2900
 2.0760	33.2200
 2.0800	33.1700
 2.0840	33.0100
 2.0880	32.9600
 2.0920	32.7600
 2.0960	32.6700
 2.1000	32.6100
 2.1040	32.4900
 2.1080	32.3800
 2.1120	32.3500
 2.1160	32.2500
 2.1200	32.1700
 2.1240	32.1100
 2.1280	32.0200
 2.1320	31.8800
 2.1360	31.7600
 2.1400	31.6200
 2.1440	31.4200
 2.1480	31.2400
 2.1520	31.1600
 2.1560	31.0200
 2.1600	30.9300
 2.1640	30.8400
 2.1680	30.7900
 2.1720	30.5900
 2.1760	30.5600
 2.1800	30.4100
 2.1840	30.2100
 2.1880	30.0100
 2.1920	29.8900
 2.1960	29.7800
 2.2000	29.6700
 2.2040	29.5900
 2.2080	29.4700
 2.2120	29.3900
 2.2160	29.2400
 2.2200	29.1000
 2.2240	28.9100
 2.2280	28.8100
 2.2320	28.6400
 2.2360	28.5400
 2.2400	28.5100
 2.2440	28.5100
 2.2480	28.3900
 2.2520	28.4200
 2.2560	28.2000
 2.2600	28.0400
 2.2640	27.7300
 2.2680	27.5000
 2.2720	27.1900
 2.2760	26.8000
 2.2800	26.4400
 2.2840	25.9500
 2.2880	25.4900
 2.2920	25.0900
 2.2960	24.5700
 2.3000	24.2300
 2.3040	24.0400
 2.3080	23.6300
 2.3120	23.6000
 2.3160	23.8200
 2.3200	24.1400
 2.3240	24.5100
 2.3280	24.9800
 2.3320	25.4800
 2.3360	25.8400
 2.3400	26.1800
 2.3440	26.4400
 2.3480	26.5900
 2.3520	26.6300
 2.3560	26.5700
 2.3600	26.5500
 2.3640	26.4000
 2.3680	26.2400
 2.3720	26.0500
 2.3760	25.9500
 2.3800	25.8600
 2.3840	25.8500
 2.3880	25.8900
 2.3920	25.9500
 2.3960	26.0400
 2.4000	26.2000
 2.4040	26.4100
 2.4080	26.5200
 2.4120	26.6600
 2.4160	26.8000
 2.4200	26.8900
 2.4240	26.9400
 2.4280	26.9100
 2.4320	27.0200
 2.4360	27.0600
 2.4400	27.0700
 2.4440	27.1300
 2.4480	27.1700
 2.4520	27.2400
 2.4560	27.2100
 2.4600	27.2700
 2.4640	27.4200
 2.4680	27.4300
 2.4720	27.4800
 2.4760	27.4900
 2.4800	27.6400
 2.4840	27.7000
 2.4880	27.9100
 2.4920	27.9900
 2.4960	28.0700
 2.5000	28.2600
