Name: Vermiculite (Mg,Fe^2+,Al)_3(Al,Si)_4O_10(OH)_2.4H_2O
Type: Mineral
Class: Silicate
Subclass: Phyllosilicate
Particle Size: Coarse
Sample No.: PS-18B
Owner: JPL
Wavelength Range: VSWIR
Origin: USA, Montana, Lincoln County, Libby
Collection Date: N/A
Description: Particle size was 125-500um.Collected by Ward's Original ASTER Spectral Library name was jpl.beckman.mineral.silicate.phyllosilicate.coarse.ps18b.spectrum.txt
Measurement: Hemispherical reflectance
First Column: X
Second Column: Y
X Units: Wavelength (micrometers)
Y Units:Reflectance (percent)
First X Value:  0.4000
Last X Value:  2.5000
Number of X Values: 826
Additional Information: mineral.silicate.phyllosilicate.coarse.vswir.ps-18b.jpl.beckman.ancillary.txt

 0.4000	 7.4700
 0.4010	 7.5800
 0.4020	 7.5800
 0.4030	 7.8600
 0.4040	 7.8600
 0.4050	 7.8600
 0.4060	 7.7600
 0.4070	 7.8000
 0.4080	 7.9800
 0.4090	 8.0300
 0.4100	 7.9800
 0.4110	 7.9800
 0.4120	 7.9800
 0.4130	 8.0900
 0.4140	 8.2100
 0.4150	 8.2100
 0.4160	 8.2600
 0.4170	 8.2600
 0.4180	 8.2100
 0.4190	 8.4400
 0.4200	 8.5500
 0.4210	 8.4400
 0.4220	 8.4400
 0.4230	 8.4400
 0.4240	 8.6700
 0.4250	 8.7200
 0.4260	 8.7800
 0.4270	 8.8400
 0.4280	 8.8400
 0.4290	 9.0100
 0.4300	 9.2900
 0.4310	 9.2300
 0.4320	 9.2300
 0.4330	 9.1800
 0.4340	 9.3400
 0.4350	 9.6900
 0.4360	 9.6900
 0.4370	 9.6300
 0.4380	 9.6900
 0.4390	 9.8000
 0.4400	 9.9800
 0.4410	10.1500
 0.4420	10.2100
 0.4430	10.1500
 0.4440	10.1500
 0.4450	10.2600
 0.4460	10.4400
 0.4470	10.4900
 0.4480	10.4900
 0.4490	10.6100
 0.4500	10.5500
 0.4510	10.7100
 0.4520	10.8900
 0.4530	10.8900
 0.4540	10.8300
 0.4550	10.7800
 0.4560	10.9400
 0.4570	11.1200
 0.4580	11.0600
 0.4590	11.0000
 0.4600	11.0000
 0.4610	10.9000
 0.4620	11.0600
 0.4630	11.0100
 0.4640	11.0700
 0.4650	11.1700
 0.4660	11.2300
 0.4670	11.1200
 0.4680	11.1300
 0.4690	11.1300
 0.4700	11.3500
 0.4710	11.3500
 0.4720	11.0700
 0.4730	11.1300
 0.4740	11.1800
 0.4750	11.4100
 0.4760	11.4600
 0.4770	11.3600
 0.4780	11.3600
 0.4790	11.3600
 0.4800	11.5300
 0.4810	11.6900
 0.4820	11.5300
 0.4830	11.5800
 0.4840	11.6400
 0.4850	11.8600
 0.4860	12.0300
 0.4870	11.8600
 0.4880	11.9300
 0.4890	11.9900
 0.4900	12.1500
 0.4910	12.3200
 0.4920	12.3200
 0.4930	12.2200
 0.4940	12.3200
 0.4950	12.4900
 0.4960	12.7200
 0.4970	12.7800
 0.4980	12.7200
 0.4990	12.9000
 0.5000	13.0100
 0.5010	13.1800
 0.5020	13.3000
 0.5030	13.3000
 0.5040	13.3600
 0.5050	13.4700
 0.5060	13.8200
 0.5070	13.8700
 0.5080	13.8700
 0.5090	13.8700
 0.5100	13.9900
 0.5110	14.2100
 0.5120	14.3800
 0.5130	14.3800
 0.5140	14.3200
 0.5150	14.3800
 0.5160	14.6100
 0.5170	14.7200
 0.5180	14.9000
 0.5190	14.8400
 0.5200	14.9000
 0.5210	15.1300
 0.5220	15.3600
 0.5230	15.3000
 0.5240	15.2400
 0.5250	15.2400
 0.5260	15.4100
 0.5270	15.7000
 0.5280	15.6400
 0.5290	15.7000
 0.5300	15.7000
 0.5310	15.7000
 0.5320	15.9800
 0.5330	16.0400
 0.5340	15.9800
 0.5350	15.9200
 0.5360	15.9800
 0.5370	16.1500
 0.5380	16.2600
 0.5390	16.2100
 0.5400	16.2100
 0.5410	16.2100
 0.5420	16.3200
 0.5430	16.5500
 0.5440	16.4900
 0.5450	16.3800
 0.5460	16.4900
 0.5470	16.4900
 0.5480	16.6700
 0.5490	16.7200
 0.5500	16.7800
 0.5510	16.7200
 0.5520	16.7800
 0.5530	17.0100
 0.5540	17.0700
 0.5550	16.9500
 0.5560	16.9000
 0.5570	16.9000
 0.5580	17.0700
 0.5590	17.1300
 0.5600	16.9500
 0.5610	17.1800
 0.5620	17.3600
 0.5630	17.4600
 0.5640	17.3000
 0.5650	17.1800
 0.5660	17.2400
 0.5670	17.3600
 0.5680	17.5800
 0.5690	17.4600
 0.5700	17.3600
 0.5710	17.4000
 0.5720	17.5200
 0.5730	17.6300
 0.5740	17.5200
 0.5750	17.4000
 0.5760	17.4000
 0.5770	17.4600
 0.5780	17.7500
 0.5790	17.6900
 0.5800	17.5800
 0.5810	17.5200
 0.5820	17.6300
 0.5830	17.8100
 0.5840	17.8100
 0.5850	17.6300
 0.5860	17.6900
 0.5870	17.6900
 0.5880	17.9800
 0.5890	17.9800
 0.5900	17.8600
 0.5910	17.8100
 0.5920	17.8600
 0.5930	18.0900
 0.5940	18.1500
 0.5950	17.9200
 0.5960	17.9200
 0.5970	17.9800
 0.5980	18.2100
 0.5990	18.2700
 0.6000	18.2100
 0.6010	18.1500
 0.6020	18.1500
 0.6030	18.3800
 0.6040	18.4900
 0.6050	18.3800
 0.6060	18.3200
 0.6070	18.3200
 0.6080	18.5000
 0.6090	18.6700
 0.6100	18.6700
 0.6110	18.5500
 0.6120	18.4400
 0.6130	18.6100
 0.6140	18.6700
 0.6150	18.6700
 0.6160	18.6100
 0.6170	18.5000
 0.6180	18.6100
 0.6190	18.8400
 0.6200	18.8400
 0.6210	18.7200
 0.6220	18.6700
 0.6230	18.7800
 0.6240	18.9000
 0.6250	18.9500
 0.6260	18.9000
 0.6270	18.7800
 0.6280	18.7800
 0.6290	18.9500
 0.6300	19.0600
 0.6310	19.0100
 0.6320	18.9500
 0.6330	18.9500
 0.6340	19.0100
 0.6350	19.1700
 0.6360	19.1200
 0.6370	19.0100
 0.6380	19.0100
 0.6390	19.0100
 0.6400	19.2900
 0.6410	19.1700
 0.6420	19.0600
 0.6430	19.0600
 0.6440	19.1200
 0.6450	19.4000
 0.6460	19.3500
 0.6470	19.1700
 0.6480	19.1200
 0.6490	19.1700
 0.6500	19.4000
 0.6510	19.4000
 0.6520	19.1700
 0.6530	19.1700
 0.6540	19.2300
 0.6550	19.5200
 0.6560	19.5200
 0.6570	19.3500
 0.6580	19.2900
 0.6590	19.4000
 0.6600	19.4000
 0.6610	19.4000
 0.6620	19.4600
 0.6630	19.3500
 0.6640	19.3500
 0.6650	19.5200
 0.6660	19.5800
 0.6670	19.5200
 0.6680	19.4600
 0.6690	19.2900
 0.6700	19.4000
 0.6710	19.5200
 0.6720	19.5800
 0.6730	19.4600
 0.6740	19.4600
 0.6750	19.5200
 0.6760	19.6300
 0.6770	19.6300
 0.6780	19.5200
 0.6790	19.4000
 0.6800	19.5200
 0.6810	19.5800
 0.6820	19.5800
 0.6830	19.4600
 0.6840	19.3500
 0.6850	19.4000
 0.6860	19.5200
 0.6870	19.6300
 0.6880	19.4600
 0.6890	19.3500
 0.6900	19.3500
 0.6910	19.3500
 0.6920	19.5800
 0.6930	19.4600
 0.6940	19.3500
 0.6950	19.3500
 0.6960	19.3500
 0.6970	19.5800
 0.6980	19.5200
 0.6990	19.3500
 0.7000	19.5200
 0.7010	19.2900
 0.7020	19.4000
 0.7030	19.5800
 0.7040	19.4600
 0.7050	19.4000
 0.7060	19.3500
 0.7070	19.4000
 0.7080	19.5800
 0.7090	19.5800
 0.7100	19.4600
 0.7110	19.4000
 0.7120	19.4600
 0.7130	19.6900
 0.7140	19.6300
 0.7150	19.4600
 0.7160	19.5200
 0.7170	19.5200
 0.7180	19.7500
 0.7190	19.6900
 0.7200	19.6300
 0.7210	19.6300
 0.7220	19.6300
 0.7230	19.8100
 0.7240	19.8100
 0.7250	19.6900
 0.7260	19.6300
 0.7270	19.6300
 0.7280	19.8100
 0.7290	19.9200
 0.7300	19.8600
 0.7310	19.7500
 0.7320	19.6900
 0.7330	19.8600
 0.7340	19.9200
 0.7350	20.0400
 0.7360	19.9200
 0.7370	19.7500
 0.7380	19.8600
 0.7390	19.9800
 0.7400	20.1500
 0.7410	19.9800
 0.7420	19.8100
 0.7430	19.9200
 0.7440	20.0400
 0.7450	20.1500
 0.7460	20.1500
 0.7470	19.9800
 0.7480	20.0400
 0.7490	20.1500
 0.7500	20.3200
 0.7510	20.2100
 0.7520	20.0900
 0.7530	20.0900
 0.7540	20.2700
 0.7550	20.4400
 0.7560	20.4400
 0.7570	20.3800
 0.7580	20.3200
 0.7590	20.3200
 0.7600	20.5500
 0.7610	20.5500
 0.7620	20.6700
 0.7630	20.5500
 0.7640	20.5000
 0.7650	20.7200
 0.7660	20.7700
 0.7670	20.7700
 0.7680	20.7700
 0.7690	20.6700
 0.7700	20.7700
 0.7710	20.8900
 0.7720	20.9400
 0.7730	20.9400
 0.7740	20.7700
 0.7750	20.9400
 0.7760	21.0600
 0.7770	21.1700
 0.7780	21.1200
 0.7790	21.0000
 0.7800	21.1200
 0.7810	21.2300
 0.7820	21.3500
 0.7830	21.2300
 0.7840	21.1700
 0.7850	21.2300
 0.7860	21.4600
 0.7870	21.5200
 0.7880	21.5200
 0.7890	21.3500
 0.7900	21.4600
 0.7910	21.6300
 0.7920	21.7500
 0.7930	21.7500
 0.7940	21.6300
 0.7950	21.6900
 0.7960	21.8600
 0.7970	22.0400
 0.7980	21.9200
 0.7990	22.8300
 0.8000	22.8300
 0.8040	22.8300
 0.8080	22.9500
 0.8120	23.1700
 0.8160	23.1200
 0.8200	23.1200
 0.8240	23.2300
 0.8280	23.2900
 0.8320	23.1200
 0.8360	23.2300
 0.8400	23.2300
 0.8440	23.2300
 0.8480	23.2300
 0.8520	23.1700
 0.8560	23.1700
 0.8600	23.0600
 0.8640	23.1700
 0.8680	23.0000
 0.8720	22.9500
 0.8760	22.9500
 0.8800	22.9500
 0.8840	22.9500
 0.8880	22.7700
 0.8920	22.8300
 0.8960	22.7200
 0.9000	22.8300
 0.9040	22.8300
 0.9080	22.7200
 0.9120	22.7700
 0.9160	22.6600
 0.9200	22.7200
 0.9240	22.7200
 0.9280	22.6600
 0.9320	22.7200
 0.9360	22.7200
 0.9400	22.8300
 0.9440	22.8300
 0.9480	22.7700
 0.9520	22.8300
 0.9560	22.8900
 0.9600	22.8300
 0.9640	22.8900
 0.9680	22.9500
 0.9720	23.0600
 0.9760	23.0000
 0.9800	23.0600
 0.9840	23.0600
 0.9880	23.0000
 0.9920	23.1700
 0.9960	23.2900
 1.0000	23.2300
 1.0040	23.2900
 1.0080	23.3500
 1.0120	23.3500
 1.0160	23.3500
 1.0200	23.3500
 1.0240	23.4000
 1.0280	23.4600
 1.0320	23.3500
 1.0360	23.4000
 1.0400	23.4000
 1.0440	23.4600
 1.0480	23.4600
 1.0520	23.4600
 1.0560	23.4600
 1.0600	23.4000
 1.0640	23.5200
 1.0680	23.5800
 1.0720	23.4600
 1.0760	23.4600
 1.0800	23.5200
 1.0840	23.5800
 1.0880	23.5200
 1.0920	23.5800
 1.0960	23.6300
 1.1000	23.6900
 1.1040	23.6900
 1.1080	23.7500
 1.1120	23.7500
 1.1160	23.8100
 1.1200	23.8600
 1.1240	23.8600
 1.1280	23.9200
 1.1320	24.0300
 1.1360	23.9800
 1.1400	24.2000
 1.1440	24.2000
 1.1480	24.1400
 1.1520	24.1400
 1.1560	24.2000
 1.1600	24.3100
 1.1640	24.4300
 1.1680	24.4800
 1.1720	24.5900
 1.1760	24.6500
 1.1800	24.7100
 1.1840	24.9800
 1.1880	25.1600
 1.1920	25.0400
 1.1960	25.2000
 1.2000	25.2000
 1.2040	25.3200
 1.2080	25.4300
 1.2120	25.5500
 1.2160	25.6600
 1.2200	25.7800
 1.2240	25.8900
 1.2280	26.0600
 1.2320	26.1800
 1.2360	26.2400
 1.2400	26.4600
 1.2440	26.5100
 1.2480	26.6300
 1.2520	26.8000
 1.2560	26.9200
 1.2600	27.1400
 1.2640	27.1900
 1.2680	27.4200
 1.2720	27.5300
 1.2760	27.7600
 1.2800	27.7000
 1.2840	27.9800
 1.2880	28.1500
 1.2920	28.2100
 1.2960	28.3700
 1.3000	28.4800
 1.3040	28.6000
 1.3080	28.7000
 1.3120	28.9300
 1.3160	29.0500
 1.3200	29.2700
 1.3240	29.3300
 1.3280	29.5500
 1.3320	29.6000
 1.3360	29.7200
 1.3400	29.7200
 1.3440	29.8800
 1.3480	30.1700
 1.3520	30.2800
 1.3560	30.3300
 1.3600	30.3900
 1.3640	30.5000
 1.3680	30.2800
 1.3720	29.8800
 1.3760	29.5400
 1.3800	29.5900
 1.3840	29.6500
 1.3880	29.2500
 1.3920	28.7400
 1.3960	28.6800
 1.4000	28.8600
 1.4040	29.0300
 1.4080	28.9100
 1.4120	28.6400
 1.4160	28.5800
 1.4200	28.5800
 1.4240	28.7500
 1.4280	28.8800
 1.4320	29.1000
 1.4360	29.2700
 1.4400	29.5100
 1.4440	29.6200
 1.4480	29.9700
 1.4520	30.1400
 1.4560	30.3100
 1.4600	30.5900
 1.4640	30.7600
 1.4680	30.9900
 1.4720	31.3400
 1.4760	31.4500
 1.4800	31.9000
 1.4840	32.0200
 1.4880	32.2500
 1.4920	32.5300
 1.4960	32.8200
 1.5000	33.1000
 1.5040	33.2700
 1.5080	33.5000
 1.5120	33.9000
 1.5160	34.0700
 1.5200	34.3500
 1.5240	34.5200
 1.5280	34.7500
 1.5320	34.9200
 1.5360	35.1500
 1.5400	35.2700
 1.5440	35.5500
 1.5480	35.6000
 1.5520	35.8900
 1.5560	36.0100
 1.5600	36.1800
 1.5640	36.4100
 1.5680	36.4700
 1.5720	36.6300
 1.5760	36.7400
 1.5800	37.0300
 1.5840	37.2000
 1.5880	37.2000
 1.5920	37.3700
 1.5960	37.4900
 1.6000	37.6000
 1.6040	37.8200
 1.6080	37.9400
 1.6120	38.1000
 1.6160	38.3300
 1.6200	38.4400
 1.6240	38.5500
 1.6280	38.6600
 1.6320	38.8900
 1.6360	38.8900
 1.6400	39.0500
 1.6440	39.2200
 1.6480	39.3800
 1.6520	39.5500
 1.6560	39.6700
 1.6600	39.8300
 1.6640	39.7700
 1.6680	40.0500
 1.6720	40.2200
 1.6760	40.2100
 1.6800	40.3900
 1.6840	40.4300
 1.6880	40.7200
 1.6920	40.6600
 1.6960	40.8800
 1.7000	41.0000
 1.7040	41.0600
 1.7080	41.1000
 1.7120	41.2800
 1.7160	41.5000
 1.7200	41.3900
 1.7240	41.5000
 1.7280	41.6200
 1.7320	41.6800
 1.7360	41.6200
 1.7400	41.8500
 1.7440	41.9100
 1.7480	41.7900
 1.7520	41.7900
 1.7560	41.9100
 1.7600	41.9600
 1.7640	42.0200
 1.7680	42.0200
 1.7720	42.0800
 1.7760	42.1300
 1.7800	42.1300
 1.7840	42.3000
 1.7880	42.2400
 1.7920	42.3600
 1.7960	42.4700
 1.8000	42.5900
 1.8040	42.7500
 1.8080	42.7900
 1.8120	42.8200
 1.8160	42.9300
 1.8200	42.9800
 1.8240	42.9600
 1.8280	43.1200
 1.8320	43.1000
 1.8360	43.1500
 1.8400	43.1800
 1.8440	43.1200
 1.8480	43.0500
 1.8520	42.8700
 1.8560	42.7500
 1.8600	42.4100
 1.8640	41.9500
 1.8680	41.2700
 1.8720	40.4700
 1.8760	39.5600
 1.8800	38.3100
 1.8840	36.8900
 1.8880	35.2500
 1.8920	33.5000
 1.8960	31.5700
 1.9000	29.7600
 1.9040	28.0000
 1.9080	26.6400
 1.9120	25.5700
 1.9160	25.0500
 1.9200	24.6000
 1.9240	24.4800
 1.9280	24.5900
 1.9320	24.9800
 1.9360	25.2100
 1.9400	25.6000
 1.9440	25.9400
 1.9480	26.2200
 1.9520	26.6700
 1.9560	26.9400
 1.9600	27.2800
 1.9640	27.5500
 1.9680	27.9900
 1.9720	28.2100
 1.9760	28.6600
 1.9800	29.0500
 1.9840	29.5000
 1.9880	29.9900
 1.9920	30.4400
 1.9960	30.8800
 2.0000	31.3800
 2.0040	31.7500
 2.0080	32.2800
 2.0120	32.7100
 2.0160	33.1500
 2.0200	33.5800
 2.0240	34.0100
 2.0280	34.4300
 2.0320	34.6300
 2.0360	35.0100
 2.0400	35.3900
 2.0440	35.8100
 2.0480	36.0500
 2.0520	36.3100
 2.0560	36.6300
 2.0600	36.9000
 2.0640	37.0500
 2.0680	37.4300
 2.0720	37.6400
 2.0760	37.8500
 2.0800	38.1000
 2.0840	38.3100
 2.0880	38.5700
 2.0920	38.7200
 2.0960	38.9300
 2.1000	39.0800
 2.1040	39.4600
 2.1080	39.6100
 2.1120	39.9200
 2.1160	40.0800
 2.1200	40.1700
 2.1240	40.3600
 2.1280	40.5400
 2.1320	40.7500
 2.1360	40.7500
 2.1400	40.9700
 2.1440	41.1500
 2.1480	41.1700
 2.1520	41.3600
 2.1560	41.5100
 2.1600	41.6000
 2.1640	41.5900
 2.1680	41.7000
 2.1720	41.7000
 2.1760	41.7500
 2.1800	41.6800
 2.1840	41.9400
 2.1880	41.9300
 2.1920	41.7900
 2.1960	41.8800
 2.2000	41.8100
 2.2040	41.8500
 2.2080	41.7500
 2.2120	41.6400
 2.2160	41.6600
 2.2200	41.5600
 2.2240	41.4500
 2.2280	41.4000
 2.2320	41.2700
 2.2360	41.0300
 2.2400	40.7400
 2.2440	40.4600
 2.2480	40.1200
 2.2520	39.6600
 2.2560	39.0900
 2.2600	38.4000
 2.2640	37.6600
 2.2680	36.7700
 2.2720	35.8100
 2.2760	34.7800
 2.2800	33.8200
 2.2840	32.6900
 2.2880	31.7200
 2.2920	30.8600
 2.2960	29.7800
 2.3000	29.0200
 2.3040	28.4600
 2.3080	28.0600
 2.3120	27.9300
 2.3160	27.6400
 2.3200	27.7400
 2.3240	27.6000
 2.3280	27.7500
 2.3320	27.9500
 2.3360	28.1500
 2.3400	28.1800
 2.3440	28.2800
 2.3480	28.3800
 2.3520	28.3700
 2.3560	28.3500
 2.3600	28.1800
 2.3640	27.8900
 2.3680	27.6100
 2.3720	27.3200
 2.3760	26.9800
 2.3800	26.6600
 2.3840	26.4200
 2.3880	26.1900
 2.3920	26.0200
 2.3960	25.7400
 2.4000	25.7400
 2.4040	25.5200
 2.4080	25.4600
 2.4120	25.3500
 2.4160	25.2400
 2.4200	25.2300
 2.4240	25.0700
 2.4280	25.0100
 2.4320	24.7800
 2.4360	24.6800
 2.4400	24.5100
 2.4440	24.2900
 2.4480	24.2300
 2.4520	24.0600
 2.4560	23.8400
 2.4600	23.7200
 2.4640	23.5600
 2.4680	23.2800
 2.4720	23.2300
 2.4760	23.0000
 2.4800	22.8900
 2.4840	22.5600
 2.4880	22.5600
 2.4920	22.2200
 2.4960	22.1700
 2.5000	21.9900
