Name: Fayalite Fe_2SiO_4
Type: Mineral
Class: Silicate
Subclass: Nesosilicate
Particle Size: Fine
Sample No.: NS-1A
Owner: JPL
Wavelength Range: VSWIR
Origin: None.
Collection Date: N/A
Description: Particle size was 0-45um.Collected by:  JPL Original ASTER Spectral Library name was jpl.perkin.mineral.silicate.nesosilicate.fine.ns01a.spectrum.txt
Measurement: Hemispherical reflectance
First Column: X
Second Column: Y
X Units: Wavelength (micrometers)
Y Units:Reflectance (percent)
First X Value:  2.5000
Last X Value:  0.4000
Number of X Values: 2101
Additional Information: mineral.silicate.nesosilicate.fine.vswir.ns-1a.jpl.perkin.ancillary.txt

 2.5000	15.8605
 2.4990	15.7435
 2.4980	15.8344
 2.4970	16.0683
 2.4960	15.5716
 2.4950	16.1602
 2.4940	15.7545
 2.4930	16.0551
 2.4920	15.8490
 2.4910	16.0207
 2.4900	15.8138
 2.4890	15.8792
 2.4880	15.8232
 2.4870	16.0928
 2.4860	15.7254
 2.4850	15.9298
 2.4840	15.8579
 2.4830	16.0782
 2.4820	15.9231
 2.4810	16.1378
 2.4800	15.8919
 2.4790	16.1041
 2.4780	15.9846
 2.4770	15.9763
 2.4760	16.0070
 2.4750	16.1108
 2.4740	15.9833
 2.4730	16.1425
 2.4720	15.9535
 2.4710	16.1661
 2.4700	16.1420
 2.4690	16.2396
 2.4680	16.1192
 2.4670	16.0684
 2.4660	16.0950
 2.4650	16.2169
 2.4640	16.1330
 2.4630	16.2927
 2.4620	16.1198
 2.4610	16.1885
 2.4600	16.2512
 2.4590	16.2796
 2.4580	16.1014
 2.4570	16.2117
 2.4560	16.1719
 2.4550	16.2909
 2.4540	16.1806
 2.4530	16.2985
 2.4520	16.2418
 2.4510	16.2347
 2.4500	16.2660
 2.4490	16.3078
 2.4480	16.1790
 2.4470	16.2853
 2.4460	16.1887
 2.4450	16.2579
 2.4440	16.3107
 2.4430	16.3599
 2.4420	16.2619
 2.4410	16.3131
 2.4400	16.2509
 2.4390	16.3988
 2.4380	16.2046
 2.4370	16.3103
 2.4360	16.2884
 2.4350	16.3438
 2.4340	16.3066
 2.4330	16.3723
 2.4320	16.3390
 2.4310	16.4466
 2.4300	16.2984
 2.4290	16.4336
 2.4280	16.3220
 2.4270	16.4283
 2.4260	16.3399
 2.4250	16.4379
 2.4240	16.3222
 2.4230	16.4013
 2.4220	16.3290
 2.4210	16.4928
 2.4200	16.4997
 2.4190	16.4966
 2.4180	16.4585
 2.4170	16.5073
 2.4160	16.4542
 2.4150	16.5792
 2.4140	16.4687
 2.4130	16.5127
 2.4120	16.5137
 2.4110	16.5769
 2.4100	16.5829
 2.4090	16.6142
 2.4080	16.5776
 2.4070	16.5718
 2.4060	16.5720
 2.4050	16.6740
 2.4040	16.6560
 2.4030	16.6663
 2.4020	16.5982
 2.4010	16.7182
 2.4000	16.7143
 2.3990	16.8143
 2.3980	16.7308
 2.3970	16.7840
 2.3960	16.7672
 2.3950	16.7247
 2.3940	16.7387
 2.3930	16.8249
 2.3920	16.7919
 2.3910	16.8414
 2.3900	16.8725
 2.3890	16.8595
 2.3880	16.8728
 2.3870	16.9652
 2.3860	16.8683
 2.3850	16.8768
 2.3840	16.9319
 2.3830	16.9166
 2.3820	16.9036
 2.3810	16.9571
 2.3800	16.9441
 2.3790	16.9838
 2.3780	17.0179
 2.3770	17.0614
 2.3760	17.0193
 2.3750	16.9900
 2.3740	17.0105
 2.3730	17.0828
 2.3720	17.0446
 2.3710	17.0461
 2.3700	17.0526
 2.3690	17.0717
 2.3680	17.0386
 2.3670	17.0770
 2.3660	17.0757
 2.3650	17.0374
 2.3640	17.0237
 2.3630	17.0535
 2.3620	17.0799
 2.3610	17.0953
 2.3600	17.0472
 2.3590	17.0224
 2.3580	17.0436
 2.3570	17.0358
 2.3560	16.9831
 2.3550	16.9890
 2.3540	16.9871
 2.3530	16.9382
 2.3520	16.9145
 2.3510	16.9187
 2.3500	16.9438
 2.3490	16.9361
 2.3480	16.9213
 2.3470	16.9136
 2.3460	16.9085
 2.3450	16.9429
 2.3440	16.9835
 2.3430	17.0040
 2.3420	16.9701
 2.3410	17.0005
 2.3400	17.0198
 2.3390	17.0152
 2.3380	17.0747
 2.3370	17.0721
 2.3360	17.0861
 2.3350	17.0899
 2.3340	17.1325
 2.3330	17.0719
 2.3320	17.0970
 2.3310	17.1068
 2.3300	17.1289
 2.3290	17.1040
 2.3280	17.1675
 2.3270	17.1631
 2.3260	17.2072
 2.3250	17.1779
 2.3240	17.1829
 2.3230	17.1757
 2.3220	17.2167
 2.3210	17.1777
 2.3200	17.2773
 2.3190	17.2710
 2.3180	17.3122
 2.3170	17.3279
 2.3160	17.3666
 2.3150	17.3464
 2.3140	17.3519
 2.3130	17.3394
 2.3120	17.4070
 2.3110	17.3903
 2.3100	17.4780
 2.3090	17.4188
 2.3080	17.5215
 2.3070	17.5794
 2.3060	17.6169
 2.3050	17.5800
 2.3040	17.6419
 2.3030	17.5349
 2.3020	17.5796
 2.3010	17.5760
 2.3000	17.6659
 2.2990	17.5940
 2.2980	17.6047
 2.2970	17.6408
 2.2960	17.7360
 2.2950	17.6514
 2.2940	17.7077
 2.2930	17.6896
 2.2920	17.6564
 2.2910	17.7216
 2.2900	17.7890
 2.2890	17.7131
 2.2880	17.7292
 2.2870	17.7107
 2.2860	17.8824
 2.2850	17.7516
 2.2840	17.8352
 2.2830	17.7883
 2.2820	17.8301
 2.2810	17.7752
 2.2800	17.8166
 2.2790	17.8082
 2.2780	17.8353
 2.2770	17.8425
 2.2760	17.9599
 2.2750	17.9109
 2.2740	17.9043
 2.2730	17.9095
 2.2720	17.9820
 2.2710	17.9138
 2.2700	18.0284
 2.2690	17.9417
 2.2680	18.0038
 2.2670	17.9420
 2.2660	17.9902
 2.2650	17.9801
 2.2640	18.0821
 2.2630	17.9862
 2.2620	18.0836
 2.2610	17.9668
 2.2600	18.1084
 2.2590	18.0840
 2.2580	18.0604
 2.2570	18.1272
 2.2560	18.1073
 2.2550	18.0748
 2.2540	18.1653
 2.2530	18.1136
 2.2520	18.1752
 2.2510	18.1746
 2.2500	18.1761
 2.2490	18.1157
 2.2480	18.2463
 2.2470	18.1015
 2.2460	18.1990
 2.2450	18.1735
 2.2440	18.3093
 2.2430	18.1586
 2.2420	18.2721
 2.2410	18.2339
 2.2400	18.3222
 2.2390	18.2320
 2.2380	18.3220
 2.2370	18.2140
 2.2360	18.2875
 2.2350	18.1837
 2.2340	18.4171
 2.2330	18.3049
 2.2320	18.3910
 2.2310	18.2752
 2.2300	18.4047
 2.2290	18.2755
 2.2280	18.4068
 2.2270	18.3669
 2.2260	18.5822
 2.2250	18.4031
 2.2240	18.4828
 2.2230	18.3672
 2.2220	18.5052
 2.2210	18.2721
 2.2200	18.5122
 2.2190	18.4098
 2.2180	18.5525
 2.2170	18.3576
 2.2160	18.5684
 2.2150	18.4601
 2.2140	18.5462
 2.2130	18.4285
 2.2120	18.6027
 2.2110	18.4103
 2.2100	18.6233
 2.2090	18.5349
 2.2080	18.6065
 2.2070	18.5282
 2.2060	18.6500
 2.2050	18.5515
 2.2040	18.7336
 2.2030	18.5990
 2.2020	18.6272
 2.2010	18.5571
 2.2000	18.7449
 2.1990	18.4958
 2.1980	18.6767
 2.1970	18.6483
 2.1960	18.7377
 2.1950	18.6411
 2.1940	18.7622
 2.1930	18.6662
 2.1920	18.7731
 2.1910	18.6942
 2.1900	18.7284
 2.1890	18.7224
 2.1880	18.7399
 2.1870	18.7248
 2.1860	18.8236
 2.1850	18.7832
 2.1840	18.8410
 2.1830	18.7011
 2.1820	18.8985
 2.1810	18.7911
 2.1800	18.8646
 2.1790	18.8167
 2.1780	18.8676
 2.1770	18.7830
 2.1760	18.9106
 2.1750	18.8384
 2.1740	18.9942
 2.1730	18.8804
 2.1720	18.9636
 2.1710	18.8945
 2.1700	19.0308
 2.1690	18.9258
 2.1680	18.9822
 2.1670	18.9768
 2.1660	19.0149
 2.1650	18.9636
 2.1640	19.0088
 2.1630	19.0013
 2.1620	19.0993
 2.1610	19.0185
 2.1600	19.0613
 2.1590	18.9675
 2.1580	19.0720
 2.1570	19.0376
 2.1560	19.0679
 2.1550	19.0322
 2.1540	19.1742
 2.1530	19.1054
 2.1520	19.1309
 2.1510	19.0936
 2.1500	19.1576
 2.1490	19.0744
 2.1480	19.1609
 2.1470	19.0947
 2.1460	19.1978
 2.1450	19.1269
 2.1440	19.1799
 2.1430	19.1549
 2.1420	19.1384
 2.1410	19.1148
 2.1400	19.2597
 2.1390	19.1449
 2.1380	19.1971
 2.1370	19.1430
 2.1360	19.1995
 2.1350	19.1329
 2.1340	19.1764
 2.1330	19.0927
 2.1320	19.1877
 2.1310	19.1312
 2.1300	19.1628
 2.1290	19.1031
 2.1280	19.1909
 2.1270	19.1489
 2.1260	19.1248
 2.1250	19.1138
 2.1240	19.1620
 2.1230	19.1484
 2.1220	19.1288
 2.1210	19.1065
 2.1200	19.1643
 2.1190	19.1341
 2.1180	19.1564
 2.1170	19.1168
 2.1160	19.1089
 2.1150	19.0917
 2.1140	19.1030
 2.1130	19.0367
 2.1120	19.0699
 2.1110	19.0002
 2.1100	19.0568
 2.1090	19.0825
 2.1080	19.0404
 2.1070	18.9833
 2.1060	19.0354
 2.1050	19.0317
 2.1040	19.0566
 2.1030	19.0212
 2.1020	18.9888
 2.1010	18.9620
 2.1000	19.0254
 2.0990	19.0321
 2.0980	19.0184
 2.0970	19.0061
 2.0960	18.9772
 2.0950	18.9520
 2.0940	19.0121
 2.0930	19.0282
 2.0920	19.0676
 2.0910	19.0221
 2.0900	19.0748
 2.0890	19.0370
 2.0880	19.0524
 2.0870	19.1017
 2.0860	19.0866
 2.0850	19.0335
 2.0840	19.0434
 2.0830	19.0794
 2.0820	19.0633
 2.0810	19.0964
 2.0800	19.1350
 2.0790	19.0857
 2.0780	19.1057
 2.0770	19.1195
 2.0760	19.1322
 2.0750	19.1257
 2.0740	19.1342
 2.0730	19.1248
 2.0720	19.1323
 2.0710	19.1379
 2.0700	19.1015
 2.0690	19.1449
 2.0680	19.1767
 2.0670	19.1670
 2.0660	19.1536
 2.0650	19.1695
 2.0640	19.2425
 2.0630	19.2130
 2.0620	19.1686
 2.0610	19.2166
 2.0600	19.1746
 2.0590	19.1865
 2.0580	19.1643
 2.0570	19.1651
 2.0560	19.2013
 2.0550	19.2379
 2.0540	19.2823
 2.0530	19.2232
 2.0520	19.2099
 2.0510	19.2562
 2.0500	19.2160
 2.0490	19.2762
 2.0480	19.2077
 2.0470	19.2416
 2.0460	19.2161
 2.0450	19.2179
 2.0440	19.1810
 2.0430	19.2194
 2.0420	19.2915
 2.0410	19.2981
 2.0400	19.2307
 2.0390	19.2645
 2.0380	19.2914
 2.0370	19.3245
 2.0360	19.2843
 2.0350	19.2473
 2.0340	19.2715
 2.0330	19.3139
 2.0320	19.3123
 2.0310	19.3137
 2.0300	19.2739
 2.0290	19.2790
 2.0280	19.2459
 2.0270	19.3055
 2.0260	19.2859
 2.0250	19.3623
 2.0240	19.2982
 2.0230	19.2676
 2.0220	19.2775
 2.0210	19.3297
 2.0200	19.2892
 2.0190	19.3473
 2.0180	19.2789
 2.0170	19.3066
 2.0160	19.2918
 2.0150	19.3460
 2.0140	19.3115
 2.0130	19.2489
 2.0120	19.2900
 2.0110	19.3219
 2.0100	19.2564
 2.0090	19.2890
 2.0080	19.2564
 2.0070	19.2966
 2.0060	19.2604
 2.0050	19.3444
 2.0040	19.3493
 2.0030	19.3743
 2.0020	19.3472
 2.0010	19.3493
 2.0000	19.2837
 1.9990	19.3292
 1.9980	19.3150
 1.9970	19.3990
 1.9960	19.2896
 1.9950	19.3568
 1.9940	19.3164
 1.9930	19.3045
 1.9920	19.2632
 1.9910	19.3306
 1.9900	19.2544
 1.9890	19.2914
 1.9880	19.2692
 1.9870	19.3557
 1.9860	19.2990
 1.9850	19.3567
 1.9840	19.2832
 1.9830	19.3164
 1.9820	19.2553
 1.9810	19.3074
 1.9800	19.2369
 1.9790	19.3934
 1.9780	19.3363
 1.9770	19.3926
 1.9760	19.2685
 1.9750	19.3429
 1.9740	19.2401
 1.9730	19.3644
 1.9720	19.3081
 1.9710	19.2654
 1.9700	19.2249
 1.9690	19.3448
 1.9680	19.2556
 1.9670	19.2949
 1.9660	19.2627
 1.9650	19.2467
 1.9640	19.2656
 1.9630	19.3034
 1.9620	19.2663
 1.9610	19.3795
 1.9600	19.2113
 1.9590	19.2954
 1.9580	19.1945
 1.9570	19.2881
 1.9560	19.2625
 1.9550	19.3279
 1.9540	19.2997
 1.9530	19.2768
 1.9520	19.2517
 1.9510	19.3466
 1.9500	19.2578
 1.9490	19.3407
 1.9480	19.3275
 1.9470	19.4404
 1.9460	19.2523
 1.9450	19.4207
 1.9440	19.2287
 1.9430	19.3864
 1.9420	19.2305
 1.9410	19.3243
 1.9400	19.2749
 1.9390	19.4191
 1.9380	19.2564
 1.9370	19.3707
 1.9360	19.3288
 1.9350	19.3163
 1.9340	19.2996
 1.9330	19.3961
 1.9320	19.2991
 1.9310	19.4026
 1.9300	19.2506
 1.9290	19.4338
 1.9280	19.2616
 1.9270	19.5227
 1.9260	19.1216
 1.9250	19.4964
 1.9240	19.2707
 1.9230	19.4393
 1.9220	19.3419
 1.9210	19.4517
 1.9200	19.2966
 1.9190	19.3699
 1.9180	19.3890
 1.9170	19.3421
 1.9160	19.3320
 1.9150	19.4379
 1.9140	19.2207
 1.9130	19.3952
 1.9120	19.3209
 1.9110	19.3881
 1.9100	19.3082
 1.9090	19.3439
 1.9080	19.3100
 1.9070	19.3807
 1.9060	19.3377
 1.9050	19.4777
 1.9040	19.3769
 1.9030	19.4062
 1.9020	19.3329
 1.9010	19.4135
 1.9000	19.2937
 1.8990	19.4306
 1.8980	19.2786
 1.8970	19.4250
 1.8960	19.3563
 1.8950	19.4536
 1.8940	19.3628
 1.8930	19.4731
 1.8920	19.4254
 1.8910	19.4500
 1.8900	19.3547
 1.8890	19.5042
 1.8880	19.3753
 1.8870	19.4467
 1.8860	19.3486
 1.8850	19.4596
 1.8840	19.4114
 1.8830	19.4771
 1.8820	19.3675
 1.8810	19.4509
 1.8800	19.4089
 1.8790	19.4547
 1.8780	19.4098
 1.8770	19.4832
 1.8760	19.3733
 1.8750	19.4666
 1.8740	19.4632
 1.8730	19.4968
 1.8720	19.3959
 1.8710	19.4844
 1.8700	19.4544
 1.8690	19.4824
 1.8680	19.4035
 1.8670	19.4350
 1.8660	19.4502
 1.8650	19.4739
 1.8640	19.4303
 1.8630	19.4766
 1.8620	19.4257
 1.8610	19.4410
 1.8600	19.3797
 1.8590	19.4524
 1.8580	19.4284
 1.8570	19.4093
 1.8560	19.3965
 1.8550	19.4431
 1.8540	19.4217
 1.8530	19.5092
 1.8520	19.4171
 1.8510	19.4288
 1.8500	19.3995
 1.8490	19.4325
 1.8480	19.4242
 1.8470	19.4136
 1.8460	19.3816
 1.8450	19.4671
 1.8440	19.3669
 1.8430	19.4044
 1.8420	19.4234
 1.8410	19.4381
 1.8400	19.3705
 1.8390	19.3917
 1.8380	19.4038
 1.8370	19.4123
 1.8360	19.3060
 1.8350	19.3225
 1.8340	19.3953
 1.8330	19.4558
 1.8320	19.3437
 1.8310	19.3673
 1.8300	19.2903
 1.8290	19.3053
 1.8280	19.3363
 1.8270	19.3483
 1.8260	19.3569
 1.8250	19.3765
 1.8240	19.3572
 1.8230	19.3082
 1.8220	19.2754
 1.8210	19.3074
 1.8200	19.2603
 1.8190	19.3216
 1.8180	19.3241
 1.8170	19.3282
 1.8160	19.2834
 1.8150	19.3425
 1.8140	19.3357
 1.8130	19.3314
 1.8120	19.3107
 1.8110	19.2911
 1.8100	19.2725
 1.8090	19.3213
 1.8080	19.3163
 1.8070	19.3116
 1.8060	19.3009
 1.8050	19.3772
 1.8040	19.3244
 1.8030	19.3114
 1.8020	19.3191
 1.8010	19.3096
 1.8000	19.2654
 1.7990	19.2349
 1.7980	19.2710
 1.7970	19.2723
 1.7960	19.2612
 1.7950	19.2613
 1.7940	19.2469
 1.7930	19.2305
 1.7920	19.2084
 1.7910	19.2392
 1.7900	19.1889
 1.7890	19.2213
 1.7880	19.2391
 1.7870	19.2311
 1.7860	19.2535
 1.7850	19.2387
 1.7840	19.2168
 1.7830	19.1848
 1.7820	19.1800
 1.7810	19.1566
 1.7800	19.1642
 1.7790	19.1628
 1.7780	19.1310
 1.7770	19.1176
 1.7760	19.1481
 1.7750	19.1577
 1.7740	19.1455
 1.7730	19.1099
 1.7720	19.1369
 1.7710	19.1526
 1.7700	19.1042
 1.7690	19.1434
 1.7680	19.1507
 1.7670	19.1045
 1.7660	19.1255
 1.7650	19.0895
 1.7640	19.0886
 1.7630	19.0631
 1.7620	19.1176
 1.7610	19.0472
 1.7600	19.0798
 1.7590	19.0649
 1.7580	19.0371
 1.7570	19.0216
 1.7560	19.0342
 1.7550	19.0529
 1.7540	19.0338
 1.7530	19.0167
 1.7520	18.9990
 1.7510	18.9631
 1.7500	19.0118
 1.7490	19.0458
 1.7480	19.0583
 1.7470	18.9796
 1.7460	18.9686
 1.7450	18.9300
 1.7440	19.0075
 1.7430	18.9648
 1.7420	18.9873
 1.7410	18.9431
 1.7400	19.0158
 1.7390	18.9255
 1.7380	18.9792
 1.7370	18.9068
 1.7360	18.9656
 1.7350	18.9204
 1.7340	18.9568
 1.7330	18.8782
 1.7320	18.9081
 1.7310	18.8705
 1.7300	18.8502
 1.7290	18.8739
 1.7280	18.8999
 1.7270	18.8309
 1.7260	18.9038
 1.7250	18.8611
 1.7240	18.9050
 1.7230	18.8184
 1.7220	18.7897
 1.7210	18.7975
 1.7200	18.8606
 1.7190	18.8258
 1.7180	18.8393
 1.7170	18.7971
 1.7160	18.8244
 1.7150	18.7422
 1.7140	18.7995
 1.7130	18.7510
 1.7120	18.7830
 1.7110	18.7271
 1.7100	18.7704
 1.7090	18.6869
 1.7080	18.7340
 1.7070	18.6925
 1.7060	18.6902
 1.7050	18.6446
 1.7040	18.7711
 1.7030	18.6352
 1.7020	18.6408
 1.7010	18.6127
 1.7000	18.6689
 1.6990	18.5775
 1.6980	18.7021
 1.6970	18.5293
 1.6960	18.6398
 1.6950	18.5533
 1.6940	18.6063
 1.6930	18.5702
 1.6920	18.6401
 1.6910	18.4709
 1.6900	18.5376
 1.6890	18.5018
 1.6880	18.6284
 1.6870	18.4607
 1.6860	18.5704
 1.6850	18.4430
 1.6840	18.4822
 1.6830	18.4502
 1.6820	18.5244
 1.6810	18.4137
 1.6800	18.4890
 1.6790	18.4236
 1.6780	18.4578
 1.6770	18.3434
 1.6760	18.4447
 1.6750	18.4229
 1.6740	18.4160
 1.6730	18.3323
 1.6720	18.4237
 1.6710	18.3201
 1.6700	18.3692
 1.6690	18.4585
 1.6680	18.2248
 1.6670	18.3098
 1.6660	18.4020
 1.6650	18.2295
 1.6640	18.3800
 1.6630	18.2747
 1.6620	18.2991
 1.6610	18.1691
 1.6600	18.2978
 1.6590	18.2443
 1.6580	18.2627
 1.6570	18.1606
 1.6560	18.2073
 1.6550	18.2349
 1.6540	18.1629
 1.6530	18.0503
 1.6520	18.2339
 1.6510	18.1478
 1.6500	18.1542
 1.6490	18.1054
 1.6480	18.1642
 1.6470	18.0586
 1.6460	18.1482
 1.6450	17.9871
 1.6440	18.1914
 1.6430	17.9639
 1.6420	18.2509
 1.6410	17.8012
 1.6400	18.1982
 1.6390	17.9438
 1.6380	18.0071
 1.6370	17.9222
 1.6360	18.0633
 1.6350	17.9425
 1.6340	18.0300
 1.6330	17.9205
 1.6320	17.9564
 1.6310	17.9378
 1.6300	17.9697
 1.6290	17.8694
 1.6280	17.8840
 1.6270	17.8661
 1.6260	17.9350
 1.6250	17.8710
 1.6240	17.8956
 1.6230	17.8549
 1.6220	17.8338
 1.6210	17.7352
 1.6200	17.8177
 1.6190	17.7282
 1.6180	17.7780
 1.6170	17.7902
 1.6160	17.8804
 1.6150	17.6892
 1.6140	17.7545
 1.6130	17.5835
 1.6120	17.7170
 1.6110	17.6638
 1.6100	17.6668
 1.6090	17.6515
 1.6080	17.6831
 1.6070	17.5558
 1.6060	17.7569
 1.6050	17.5673
 1.6040	17.6318
 1.6030	17.4974
 1.6020	17.6047
 1.6010	17.4608
 1.6000	17.5658
 1.5990	17.4801
 1.5980	17.5066
 1.5970	17.4718
 1.5960	17.5406
 1.5950	17.4355
 1.5940	17.5715
 1.5930	17.3700
 1.5920	17.3930
 1.5910	17.3748
 1.5900	17.4466
 1.5890	17.3350
 1.5880	17.3741
 1.5870	17.2844
 1.5860	17.3388
 1.5850	17.3113
 1.5840	17.3741
 1.5830	17.1907
 1.5820	17.2954
 1.5810	17.2117
 1.5800	17.2639
 1.5790	17.2309
 1.5780	17.1945
 1.5770	17.1424
 1.5760	17.2312
 1.5750	17.1296
 1.5740	17.1638
 1.5730	17.1235
 1.5720	17.1393
 1.5710	17.1476
 1.5700	17.1354
 1.5690	17.0560
 1.5680	17.0576
 1.5670	17.0315
 1.5660	17.0433
 1.5650	16.9705
 1.5640	17.0120
 1.5630	17.0133
 1.5620	16.9889
 1.5610	16.9541
 1.5600	16.9954
 1.5590	16.8837
 1.5580	16.8963
 1.5570	16.8670
 1.5560	16.8801
 1.5550	16.8427
 1.5540	16.8811
 1.5530	16.8552
 1.5520	16.7978
 1.5510	16.8058
 1.5500	16.8891
 1.5490	16.7390
 1.5480	16.7575
 1.5470	16.6907
 1.5460	16.6960
 1.5450	16.7162
 1.5440	16.6896
 1.5430	16.6662
 1.5420	16.6979
 1.5410	16.6584
 1.5400	16.6134
 1.5390	16.5746
 1.5380	16.6055
 1.5370	16.5714
 1.5360	16.5740
 1.5350	16.5598
 1.5340	16.5661
 1.5330	16.4984
 1.5320	16.4916
 1.5310	16.4487
 1.5300	16.4724
 1.5290	16.4516
 1.5280	16.4638
 1.5270	16.4331
 1.5260	16.4543
 1.5250	16.3514
 1.5240	16.3756
 1.5230	16.3649
 1.5220	16.3494
 1.5210	16.3308
 1.5200	16.2950
 1.5190	16.2449
 1.5180	16.2544
 1.5170	16.2030
 1.5160	16.2278
 1.5150	16.2287
 1.5140	16.1793
 1.5130	16.1694
 1.5120	16.1685
 1.5110	16.1327
 1.5100	16.1329
 1.5090	16.1203
 1.5080	16.0817
 1.5070	16.0268
 1.5060	16.0621
 1.5050	16.0530
 1.5040	16.0264
 1.5030	16.0005
 1.5020	15.9862
 1.5010	15.9798
 1.5000	15.9381
 1.4990	15.9087
 1.4980	15.9388
 1.4970	15.9280
 1.4960	15.8865
 1.4950	15.8668
 1.4940	15.8630
 1.4930	15.8783
 1.4920	15.8512
 1.4910	15.8448
 1.4900	15.8565
 1.4890	15.8429
 1.4880	15.7720
 1.4870	15.7391
 1.4860	15.7197
 1.4850	15.7416
 1.4840	15.6800
 1.4830	15.6661
 1.4820	15.6420
 1.4810	15.6451
 1.4800	15.6009
 1.4790	15.6407
 1.4780	15.6291
 1.4770	15.5918
 1.4760	15.6009
 1.4750	15.6101
 1.4740	15.5421
 1.4730	15.5865
 1.4720	15.5386
 1.4710	15.4774
 1.4700	15.4287
 1.4690	15.4630
 1.4680	15.3881
 1.4670	15.4013
 1.4660	15.3425
 1.4650	15.3528
 1.4640	15.3432
 1.4630	15.3260
 1.4620	15.2611
 1.4610	15.3182
 1.4600	15.2877
 1.4590	15.2453
 1.4580	15.2498
 1.4570	15.3145
 1.4560	15.1941
 1.4550	15.2078
 1.4540	15.1755
 1.4530	15.1758
 1.4520	15.1014
 1.4510	15.1042
 1.4500	15.0527
 1.4490	15.0741
 1.4480	15.0757
 1.4470	15.0770
 1.4460	15.0189
 1.4450	15.0443
 1.4440	14.9851
 1.4430	14.9785
 1.4420	14.9417
 1.4410	14.9826
 1.4400	14.9065
 1.4390	14.9591
 1.4380	14.8823
 1.4370	14.8720
 1.4360	14.8957
 1.4350	14.8360
 1.4340	14.8165
 1.4330	14.8294
 1.4320	14.7876
 1.4310	14.7650
 1.4300	14.7338
 1.4290	14.7634
 1.4280	14.6690
 1.4270	14.7297
 1.4260	14.7355
 1.4250	14.6994
 1.4240	14.5801
 1.4230	14.6500
 1.4220	14.5596
 1.4210	14.6044
 1.4200	14.4036
 1.4190	14.0834
 1.4180	13.7380
 1.4170	13.4530
 1.4160	13.2550
 1.4150	13.5093
 1.4140	13.7694
 1.4130	14.1874
 1.4120	14.2947
 1.4110	14.4202
 1.4100	14.3922
 1.4090	14.3916
 1.4080	14.3583
 1.4070	14.4056
 1.4060	14.2712
 1.4050	14.4291
 1.4040	14.3602
 1.4030	14.4463
 1.4020	14.3049
 1.4010	14.3362
 1.4000	14.2783
 1.3990	14.2962
 1.3980	14.2282
 1.3970	14.3174
 1.3960	14.2375
 1.3950	14.2661
 1.3940	14.1042
 1.3930	14.3170
 1.3920	14.1532
 1.3910	14.2571
 1.3900	14.2010
 1.3890	14.1699
 1.3880	14.0117
 1.3870	14.1598
 1.3860	14.0815
 1.3850	14.1373
 1.3840	14.0743
 1.3830	14.1502
 1.3820	13.9637
 1.3810	14.1119
 1.3800	14.0239
 1.3790	13.9818
 1.3780	14.0412
 1.3770	14.0180
 1.3760	13.9514
 1.3750	13.9950
 1.3740	13.9798
 1.3730	13.9873
 1.3720	13.7963
 1.3710	13.9302
 1.3700	13.8036
 1.3690	13.8974
 1.3680	13.7760
 1.3670	13.8843
 1.3660	13.7765
 1.3650	13.8736
 1.3640	13.7717
 1.3630	13.8042
 1.3620	13.7059
 1.3610	13.7432
 1.3600	13.6393
 1.3590	13.8277
 1.3580	13.6164
 1.3570	13.8667
 1.3560	13.7172
 1.3550	13.5109
 1.3540	13.6297
 1.3530	13.5862
 1.3520	13.5686
 1.3510	13.6858
 1.3500	13.5713
 1.3490	13.6528
 1.3480	13.4246
 1.3470	13.5947
 1.3460	13.4347
 1.3450	13.5309
 1.3440	13.4534
 1.3430	13.5618
 1.3420	13.3805
 1.3410	13.4774
 1.3400	13.3430
 1.3390	13.4965
 1.3380	13.3793
 1.3370	13.3960
 1.3360	13.3296
 1.3350	13.3679
 1.3340	13.2602
 1.3330	13.3433
 1.3320	13.2620
 1.3310	13.2505
 1.3300	13.1745
 1.3290	13.3118
 1.3280	13.1824
 1.3270	13.2110
 1.3260	13.1653
 1.3250	13.2182
 1.3240	13.1728
 1.3230	13.2368
 1.3220	13.1576
 1.3210	13.1806
 1.3200	13.1091
 1.3190	13.1644
 1.3180	13.1123
 1.3170	13.1023
 1.3160	13.0777
 1.3150	13.0212
 1.3140	12.9467
 1.3130	13.0381
 1.3120	12.9512
 1.3110	13.0225
 1.3100	13.0300
 1.3090	13.0506
 1.3080	12.9858
 1.3070	12.9866
 1.3060	12.9213
 1.3050	12.9183
 1.3040	12.9671
 1.3030	12.9834
 1.3020	12.8716
 1.3010	12.8905
 1.3000	12.7950
 1.2990	12.8437
 1.2980	12.6879
 1.2970	12.7924
 1.2960	12.7461
 1.2950	12.8378
 1.2940	12.7866
 1.2930	12.8184
 1.2920	12.7143
 1.2910	12.7871
 1.2900	12.7194
 1.2890	12.7674
 1.2880	12.6833
 1.2870	12.7178
 1.2860	12.6432
 1.2850	12.6705
 1.2840	12.6044
 1.2830	12.6608
 1.2820	12.6101
 1.2810	12.6692
 1.2800	12.5295
 1.2790	12.5542
 1.2780	12.5202
 1.2770	12.5565
 1.2760	12.5526
 1.2750	12.5935
 1.2740	12.4724
 1.2730	12.4695
 1.2720	12.3966
 1.2710	12.5022
 1.2700	12.4316
 1.2690	12.5049
 1.2680	12.4235
 1.2670	12.4780
 1.2660	12.3699
 1.2650	12.4333
 1.2640	12.4265
 1.2630	12.4002
 1.2620	12.3258
 1.2610	12.3803
 1.2600	12.3260
 1.2590	12.3638
 1.2580	12.3352
 1.2570	12.2783
 1.2560	12.2489
 1.2550	12.2653
 1.2540	12.2210
 1.2530	12.3352
 1.2520	12.2759
 1.2510	12.2781
 1.2500	12.2205
 1.2490	12.1538
 1.2480	12.1733
 1.2470	12.1728
 1.2460	12.0684
 1.2450	12.1253
 1.2440	12.1703
 1.2430	12.1549
 1.2420	12.1047
 1.2410	12.1947
 1.2400	12.1433
 1.2390	12.1182
 1.2380	12.1021
 1.2370	12.0663
 1.2360	12.0125
 1.2350	12.0379
 1.2340	12.0207
 1.2330	11.9992
 1.2320	11.9578
 1.2310	11.9952
 1.2300	11.9638
 1.2290	11.9812
 1.2280	11.9901
 1.2270	11.9593
 1.2260	11.8958
 1.2250	11.9004
 1.2240	11.8754
 1.2230	11.8707
 1.2220	11.8358
 1.2210	11.8381
 1.2200	11.8673
 1.2190	11.8216
 1.2180	11.7887
 1.2170	11.7560
 1.2160	11.7758
 1.2150	11.7712
 1.2140	11.7855
 1.2130	11.7987
 1.2120	11.7587
 1.2110	11.7373
 1.2100	11.7318
 1.2090	11.6707
 1.2080	11.6755
 1.2070	11.7227
 1.2060	11.6707
 1.2050	11.6809
 1.2040	11.6896
 1.2030	11.6419
 1.2020	11.6800
 1.2010	11.6390
 1.2000	11.6308
 1.1990	11.6204
 1.1980	11.5838
 1.1970	11.5830
 1.1960	11.5772
 1.1950	11.5220
 1.1940	11.4984
 1.1930	11.5141
 1.1920	11.4893
 1.1910	11.4471
 1.1900	11.4887
 1.1890	11.5466
 1.1880	11.4307
 1.1870	11.3788
 1.1860	11.4428
 1.1850	11.4250
 1.1840	11.4253
 1.1830	11.3868
 1.1820	11.3725
 1.1810	11.2801
 1.1800	11.3517
 1.1790	11.3389
 1.1780	11.3082
 1.1770	11.2696
 1.1760	11.2875
 1.1750	11.2655
 1.1740	11.2894
 1.1730	11.2332
 1.1720	11.2310
 1.1710	11.1846
 1.1700	11.1967
 1.1690	11.1918
 1.1680	11.2055
 1.1670	11.0858
 1.1660	11.1293
 1.1650	11.0905
 1.1640	11.1059
 1.1630	11.1030
 1.1620	11.1024
 1.1610	11.0157
 1.1600	11.0529
 1.1590	10.9875
 1.1580	10.9751
 1.1570	10.8756
 1.1560	10.9859
 1.1550	10.8542
 1.1540	10.9141
 1.1530	10.8654
 1.1520	10.8539
 1.1510	10.8281
 1.1500	10.8798
 1.1490	10.8622
 1.1480	10.8719
 1.1470	10.7890
 1.1460	10.8253
 1.1450	10.7104
 1.1440	10.7471
 1.1430	10.6578
 1.1420	10.6669
 1.1410	10.6788
 1.1400	10.7154
 1.1390	10.5979
 1.1380	10.6091
 1.1370	10.5117
 1.1360	10.5123
 1.1350	10.4315
 1.1340	10.4629
 1.1330	10.3810
 1.1320	10.4187
 1.1310	10.3204
 1.1300	10.3790
 1.1290	10.3604
 1.1280	10.3697
 1.1270	10.2447
 1.1260	10.2777
 1.1250	10.1534
 1.1240	10.1678
 1.1230	10.0737
 1.1220	10.0914
 1.1210	 9.9304
 1.1200	10.0173
 1.1190	 9.8832
 1.1180	10.0389
 1.1170	 9.8605
 1.1160	 9.9297
 1.1150	 9.8299
 1.1140	 9.8045
 1.1130	 9.7269
 1.1120	 9.7696
 1.1110	 9.6874
 1.1100	 9.6851
 1.1090	 9.5294
 1.1080	 9.5916
 1.1070	 9.3592
 1.1060	 9.4838
 1.1050	 9.3852
 1.1040	 9.4410
 1.1030	 9.2808
 1.1020	 9.3739
 1.1010	 9.2101
 1.1000	 9.2700
 1.0990	 9.1400
 1.0980	 9.1434
 1.0970	 9.0242
 1.0960	 9.1385
 1.0950	 8.9464
 1.0940	 9.0363
 1.0930	 8.8563
 1.0920	 8.9346
 1.0910	 8.7213
 1.0900	 8.7848
 1.0890	 8.6878
 1.0880	 8.7303
 1.0870	 8.6372
 1.0860	 8.6564
 1.0850	 8.5377
 1.0840	 8.5812
 1.0830	 8.5089
 1.0820	 8.4254
 1.0810	 8.3823
 1.0800	 8.4142
 1.0790	 8.2135
 1.0780	 8.3340
 1.0770	 8.2048
 1.0760	 8.2987
 1.0750	 8.0947
 1.0740	 8.1258
 1.0730	 7.9959
 1.0720	 8.0447
 1.0710	 8.0203
 1.0700	 7.8537
 1.0690	 7.8872
 1.0680	 7.9045
 1.0670	 7.8303
 1.0660	 7.8753
 1.0650	 7.7226
 1.0640	 7.7090
 1.0630	 7.6345
 1.0620	 7.7251
 1.0610	 7.4678
 1.0600	 7.6172
 1.0590	 7.4756
 1.0580	 7.5191
 1.0570	 7.4907
 1.0560	 7.4898
 1.0550	 7.3476
 1.0540	 7.3165
 1.0530	 7.3754
 1.0520	 7.3367
 1.0510	 7.2189
 1.0500	 7.2499
 1.0490	 7.1894
 1.0480	 7.2932
 1.0470	 7.1164
 1.0460	 7.2359
 1.0450	 7.0946
 1.0440	 7.1583
 1.0430	 7.0612
 1.0420	 7.1466
 1.0410	 7.0330
 1.0400	 7.1054
 1.0390	 7.0312
 1.0380	 7.0644
 1.0370	 7.0198
 1.0360	 7.0975
 1.0350	 6.8792
 1.0340	 7.0419
 1.0330	 6.9232
 1.0320	 6.9265
 1.0310	 6.8510
 1.0300	 6.9465
 1.0290	 6.9176
 1.0280	 6.9375
 1.0270	 6.8470
 1.0260	 6.9335
 1.0250	 6.8654
 1.0240	 6.8938
 1.0230	 6.8134
 1.0220	 6.8442
 1.0210	 6.8505
 1.0200	 6.8070
 1.0190	 6.8668
 1.0180	 6.9382
 1.0170	 6.8243
 1.0160	 6.8884
 1.0150	 6.8312
 1.0140	 6.8506
 1.0130	 6.8345
 1.0120	 6.9315
 1.0110	 6.7416
 1.0100	 6.8383
 1.0090	 6.8182
 1.0080	 6.8771
 1.0070	 6.7821
 1.0060	 6.8233
 1.0050	 6.8000
 1.0040	 6.8565
 1.0030	 6.8258
 1.0020	 6.9119
 1.0010	 6.7899
 1.0000	 6.9296
 0.9990	 6.8321
 0.9980	 6.9027
 0.9970	 6.8245
 0.9960	 6.8520
 0.9950	 6.8537
 0.9940	 6.9004
 0.9930	 6.8166
 0.9920	 6.9741
 0.9910	 6.9007
 0.9900	 6.9076
 0.9890	 6.9046
 0.9880	 6.9919
 0.9870	 6.9407
 0.9860	 7.0466
 0.9850	 6.9729
 0.9840	 7.0182
 0.9830	 7.0007
 0.9820	 7.0404
 0.9810	 7.0019
 0.9800	 7.0470
 0.9790	 7.0846
 0.9780	 7.0793
 0.9770	 7.0350
 0.9760	 7.1128
 0.9750	 7.1257
 0.9740	 7.1635
 0.9730	 7.1280
 0.9720	 7.1833
 0.9710	 7.1303
 0.9700	 7.2211
 0.9690	 7.2255
 0.9680	 7.2724
 0.9670	 7.2533
 0.9660	 7.2246
 0.9650	 7.2166
 0.9640	 7.3390
 0.9630	 7.3232
 0.9620	 7.3981
 0.9610	 7.3182
 0.9600	 7.3680
 0.9590	 7.4171
 0.9580	 7.4162
 0.9570	 7.4397
 0.9560	 7.4476
 0.9550	 7.4598
 0.9540	 7.5126
 0.9530	 7.4808
 0.9520	 7.5592
 0.9510	 7.5623
 0.9500	 7.6068
 0.9490	 7.6277
 0.9480	 7.6566
 0.9470	 7.6596
 0.9460	 7.7089
 0.9450	 7.7441
 0.9440	 7.7688
 0.9430	 7.7460
 0.9420	 7.8167
 0.9410	 7.8084
 0.9400	 7.8682
 0.9390	 7.9015
 0.9380	 7.9331
 0.9370	 7.9869
 0.9360	 7.9801
 0.9350	 8.0361
 0.9340	 8.0826
 0.9330	 8.0853
 0.9320	 8.1309
 0.9310	 8.1770
 0.9300	 8.1609
 0.9290	 8.1965
 0.9280	 8.2748
 0.9270	 8.2663
 0.9260	 8.2658
 0.9250	 8.3757
 0.9240	 8.4214
 0.9230	 8.4301
 0.9220	 8.5140
 0.9210	 8.5903
 0.9200	 8.5296
 0.9190	 8.5188
 0.9180	 8.5996
 0.9170	 8.6416
 0.9160	 8.6661
 0.9150	 8.7220
 0.9140	 8.7528
 0.9130	 8.7828
 0.9120	 8.8370
 0.9110	 8.8488
 0.9100	 8.8755
 0.9090	 8.9476
 0.9080	 9.0043
 0.9070	 9.0870
 0.9060	 9.0454
 0.9050	 9.1402
 0.9040	 9.1468
 0.9030	 9.2089
 0.9020	 9.2221
 0.9010	 9.2964
 0.9000	 9.3098
 0.8990	 9.3571
 0.8980	 9.4196
 0.8970	 9.4778
 0.8960	 9.4866
 0.8950	 9.5903
 0.8940	 9.5483
 0.8930	 9.6209
 0.8920	 9.6489
 0.8910	 9.6956
 0.8900	 9.7433
 0.8890	 9.8342
 0.8880	 9.7966
 0.8870	 9.8651
 0.8860	 9.9056
 0.8850	 9.9812
 0.8840	10.0107
 0.8830	10.0845
 0.8820	10.0992
 0.8810	10.1605
 0.8800	10.1577
 0.8790	10.2404
 0.8780	10.2435
 0.8770	10.3388
 0.8760	10.3476
 0.8750	10.4219
 0.8740	10.4479
 0.8730	10.5600
 0.8720	10.6033
 0.8710	10.6480
 0.8700	10.5701
 0.8690	10.6265
 0.8680	10.6583
 0.8670	10.7125
 0.8660	10.7454
 0.8650	10.8473
 0.8640	10.8202
 0.8630	10.9853
 0.8620	10.8798
 0.8610	11.0269
 0.8600	11.2288
 0.8590	11.3116
 0.8580	11.4024
 0.8570	11.4339
 0.8560	11.4792
 0.8550	11.5238
 0.8540	11.5407
 0.8530	11.5854
 0.8520	11.6348
 0.8510	11.6835
 0.8500	11.7080
 0.8490	11.7577
 0.8480	11.7981
 0.8470	11.8276
 0.8460	11.8812
 0.8450	11.9120
 0.8440	11.9447
 0.8430	11.9805
 0.8420	12.0264
 0.8410	12.0609
 0.8400	12.0802
 0.8390	12.1457
 0.8380	12.1633
 0.8370	12.2007
 0.8360	12.2478
 0.8350	12.2672
 0.8340	12.3020
 0.8330	12.3506
 0.8320	12.3820
 0.8310	12.4138
 0.8300	12.4387
 0.8290	12.4639
 0.8280	12.5125
 0.8270	12.5336
 0.8260	12.5616
 0.8250	12.6070
 0.8240	12.6161
 0.8230	12.6565
 0.8220	12.6834
 0.8210	12.7126
 0.8200	12.7468
 0.8190	12.7765
 0.8180	12.7936
 0.8170	12.8262
 0.8160	12.8494
 0.8150	12.8724
 0.8140	12.8909
 0.8130	12.9302
 0.8120	12.9578
 0.8110	12.9870
 0.8100	13.0103
 0.8090	13.0292
 0.8080	13.0546
 0.8070	13.0773
 0.8060	13.0888
 0.8050	13.1220
 0.8040	13.1455
 0.8030	13.1665
 0.8020	13.1765
 0.8010	13.1951
 0.8000	13.2269
 0.7990	13.2465
 0.7980	13.2633
 0.7970	13.2726
 0.7960	13.2917
 0.7950	13.2997
 0.7940	13.3219
 0.7930	13.3569
 0.7920	13.3670
 0.7910	13.3838
 0.7900	13.3968
 0.7890	13.4171
 0.7880	13.4355
 0.7870	13.4542
 0.7860	13.4686
 0.7850	13.4777
 0.7840	13.5011
 0.7830	13.5109
 0.7820	13.5228
 0.7810	13.5324
 0.7800	13.5584
 0.7790	13.5668
 0.7780	13.5730
 0.7770	13.5976
 0.7760	13.5886
 0.7750	13.6171
 0.7740	13.6228
 0.7730	13.6302
 0.7720	13.6352
 0.7710	13.6506
 0.7700	13.6620
 0.7690	13.6627
 0.7680	13.6816
 0.7670	13.6908
 0.7660	13.6925
 0.7650	13.7128
 0.7640	13.7116
 0.7630	13.7124
 0.7620	13.7338
 0.7610	13.7437
 0.7600	13.7490
 0.7590	13.7570
 0.7580	13.7598
 0.7570	13.7689
 0.7560	13.7790
 0.7550	13.7803
 0.7540	13.7936
 0.7530	13.7959
 0.7520	13.8106
 0.7510	13.8084
 0.7500	13.8195
 0.7490	13.8268
 0.7480	13.8330
 0.7470	13.8358
 0.7460	13.8392
 0.7450	13.8397
 0.7440	13.8472
 0.7430	13.8375
 0.7420	13.8499
 0.7410	13.8511
 0.7400	13.8571
 0.7390	13.8619
 0.7380	13.8658
 0.7370	13.8665
 0.7360	13.8665
 0.7350	13.8736
 0.7340	13.8709
 0.7330	13.8639
 0.7320	13.8702
 0.7310	13.8812
 0.7300	13.8882
 0.7290	13.8802
 0.7280	13.8803
 0.7270	13.8841
 0.7260	13.8778
 0.7250	13.8879
 0.7240	13.8850
 0.7230	13.8921
 0.7220	13.8971
 0.7210	13.8882
 0.7200	13.8895
 0.7190	13.8928
 0.7180	13.8923
 0.7170	13.8822
 0.7160	13.8905
 0.7150	13.8868
 0.7140	13.8868
 0.7130	13.8860
 0.7120	13.8843
 0.7110	13.8911
 0.7100	13.8894
 0.7090	13.8912
 0.7080	13.8913
 0.7070	13.8924
 0.7060	13.8878
 0.7050	13.8847
 0.7040	13.8808
 0.7030	13.8801
 0.7020	13.8823
 0.7010	13.8799
 0.7000	13.8757
 0.6990	13.8761
 0.6980	13.8747
 0.6970	13.8770
 0.6960	13.8768
 0.6950	13.8753
 0.6940	13.8732
 0.6930	13.8642
 0.6920	13.8643
 0.6910	13.8676
 0.6900	13.8667
 0.6890	13.8627
 0.6880	13.8609
 0.6870	13.8619
 0.6860	13.8547
 0.6850	13.8586
 0.6840	13.8607
 0.6830	13.8580
 0.6820	13.8530
 0.6810	13.8543
 0.6800	13.8459
 0.6790	13.8428
 0.6780	13.8430
 0.6770	13.8391
 0.6760	13.8366
 0.6750	13.8355
 0.6740	13.8370
 0.6730	13.8318
 0.6720	13.8298
 0.6710	13.8304
 0.6700	13.8272
 0.6690	13.8221
 0.6680	13.8218
 0.6670	13.8215
 0.6660	13.8222
 0.6650	13.8169
 0.6640	13.8123
 0.6630	13.8113
 0.6620	13.8091
 0.6610	13.8057
 0.6600	13.8046
 0.6590	13.8068
 0.6580	13.8014
 0.6570	13.7982
 0.6560	13.8012
 0.6550	13.7957
 0.6540	13.7889
 0.6530	13.7880
 0.6520	13.7850
 0.6510	13.7820
 0.6500	13.7773
 0.6490	13.7732
 0.6480	13.7681
 0.6470	13.7647
 0.6460	13.7624
 0.6450	13.7581
 0.6440	13.7549
 0.6430	13.7513
 0.6420	13.7486
 0.6410	13.7426
 0.6400	13.7392
 0.6390	13.7327
 0.6380	13.7258
 0.6370	13.7230
 0.6360	13.7200
 0.6350	13.7163
 0.6340	13.7116
 0.6330	13.7116
 0.6320	13.7050
 0.6310	13.6968
 0.6300	13.6966
 0.6290	13.6914
 0.6280	13.6876
 0.6270	13.6852
 0.6260	13.6789
 0.6250	13.6766
 0.6240	13.6739
 0.6230	13.6680
 0.6220	13.6629
 0.6210	13.6601
 0.6200	13.6570
 0.6190	13.6528
 0.6180	13.6481
 0.6170	13.6479
 0.6160	13.6481
 0.6150	13.6456
 0.6140	13.6442
 0.6130	13.6392
 0.6120	13.6343
 0.6110	13.6310
 0.6100	13.6298
 0.6090	13.6300
 0.6080	13.6264
 0.6070	13.6178
 0.6060	13.6143
 0.6050	13.6140
 0.6040	13.6114
 0.6030	13.6087
 0.6020	13.6035
 0.6010	13.5983
 0.6000	13.5964
 0.5990	13.5939
 0.5980	13.5910
 0.5970	13.5863
 0.5960	13.5795
 0.5950	13.5766
 0.5940	13.5704
 0.5930	13.5622
 0.5920	13.5549
 0.5910	13.5455
 0.5900	13.5359
 0.5890	13.5299
 0.5880	13.5160
 0.5870	13.5017
 0.5860	13.4898
 0.5850	13.4777
 0.5840	13.4672
 0.5830	13.4533
 0.5820	13.4368
 0.5810	13.4221
 0.5800	13.4057
 0.5790	13.3907
 0.5780	13.3733
 0.5770	13.3551
 0.5760	13.3348
 0.5750	13.3178
 0.5740	13.2931
 0.5730	13.2682
 0.5720	13.2426
 0.5710	13.2164
 0.5700	13.1872
 0.5690	13.1563
 0.5680	13.1173
 0.5670	13.0841
 0.5660	13.0452
 0.5650	12.9966
 0.5640	12.9437
 0.5630	12.8894
 0.5620	12.8287
 0.5610	12.7482
 0.5600	12.6769
 0.5590	12.6036
 0.5580	12.5290
 0.5570	12.4638
 0.5560	12.4029
 0.5550	12.3518
 0.5540	12.3189
 0.5530	12.2991
 0.5520	12.2909
 0.5510	12.2941
 0.5500	12.2949
 0.5490	12.2930
 0.5480	12.2843
 0.5470	12.2757
 0.5460	12.2606
 0.5450	12.2434
 0.5440	12.2210
 0.5430	12.1896
 0.5420	12.1546
 0.5410	12.1174
 0.5400	12.0769
 0.5390	12.0335
 0.5380	11.9846
 0.5370	11.9366
 0.5360	11.8849
 0.5350	11.8341
 0.5340	11.7733
 0.5330	11.7197
 0.5320	11.6570
 0.5310	11.5972
 0.5300	11.5363
 0.5290	11.4685
 0.5280	11.4103
 0.5270	11.3461
 0.5260	11.2842
 0.5250	11.2213
 0.5240	11.1550
 0.5230	11.0865
 0.5220	11.0143
 0.5210	10.9397
 0.5200	10.8583
 0.5190	10.7702
 0.5180	10.6778
 0.5170	10.5897
 0.5160	10.5022
 0.5150	10.4150
 0.5140	10.3379
 0.5130	10.2787
 0.5120	10.2404
 0.5110	10.2172
 0.5100	10.2116
 0.5090	10.2145
 0.5080	10.2114
 0.5070	10.2082
 0.5060	10.2055
 0.5050	10.1852
 0.5040	10.1604
 0.5030	10.1221
 0.5020	10.0835
 0.5010	10.0381
 0.5000	 9.9900
 0.4990	 9.9398
 0.4980	 9.8839
 0.4970	 9.8266
 0.4960	 9.7706
 0.4950	 9.7121
 0.4940	 9.6523
 0.4930	 9.5805
 0.4920	 9.5152
 0.4910	 9.4500
 0.4900	 9.3960
 0.4890	 9.3380
 0.4880	 9.2842
 0.4870	 9.2344
 0.4860	 9.1887
 0.4850	 9.1411
 0.4840	 9.0967
 0.4830	 9.0602
 0.4820	 9.0251
 0.4810	 8.9811
 0.4800	 8.9490
 0.4790	 8.9205
 0.4780	 8.8904
 0.4770	 8.8706
 0.4760	 8.8452
 0.4750	 8.8237
 0.4740	 8.8089
 0.4730	 8.8062
 0.4720	 8.7934
 0.4710	 8.7716
 0.4700	 8.7570
 0.4690	 8.7336
 0.4680	 8.7050
 0.4670	 8.6786
 0.4660	 8.6507
 0.4650	 8.6229
 0.4640	 8.5938
 0.4630	 8.5675
 0.4620	 8.5327
 0.4610	 8.5017
 0.4600	 8.4728
 0.4590	 8.4442
 0.4580	 8.4081
 0.4570	 8.3762
 0.4560	 8.3443
 0.4550	 8.3076
 0.4540	 8.2764
 0.4530	 8.2415
 0.4520	 8.2151
 0.4510	 8.1803
 0.4500	 8.1472
 0.4490	 8.1141
 0.4480	 8.0825
 0.4470	 8.0484
 0.4460	 8.0059
 0.4450	 7.9675
 0.4440	 7.9273
 0.4430	 7.8854
 0.4420	 7.8454
 0.4410	 7.8074
 0.4400	 7.7685
 0.4390	 7.7331
 0.4380	 7.6981
 0.4370	 7.6593
 0.4360	 7.6203
 0.4350	 7.5864
 0.4340	 7.5418
 0.4330	 7.4962
 0.4320	 7.4557
 0.4310	 7.4126
 0.4300	 7.3668
 0.4290	 7.3220
 0.4280	 7.2786
 0.4270	 7.2274
 0.4260	 7.1811
 0.4250	 7.1371
 0.4240	 7.0894
 0.4230	 7.0429
 0.4220	 7.0022
 0.4210	 6.9621
 0.4200	 6.9185
 0.4190	 6.8786
 0.4180	 6.8390
 0.4170	 6.8021
 0.4160	 6.7613
 0.4150	 6.7197
 0.4140	 6.6802
 0.4130	 6.6429
 0.4120	 6.6003
 0.4110	 6.5585
 0.4100	 6.5178
 0.4090	 6.4783
 0.4080	 6.4354
 0.4070	 6.3901
 0.4060	 6.3452
 0.4050	 6.2949
 0.4040	 6.2486
 0.4030	 6.2043
 0.4020	 6.1589
 0.4010	 6.1121
 0.4000	 6.0699
