Name: Epidote Ca_2(Al,Fe^3+)_3O.SiO_4.Si_2O_7.OH
Type: Mineral
Class: Silicate
Subclass: Sorosilicate
Particle Size: Fine
Sample No.: SS-1C
Owner: JPL
Wavelength Range: VSWIR
Origin: USA, Colorado.
Collection Date: N/A
Description: Particle size was 0-45um. Collected by:  Ward's Original ASTER Spectral Library name was jpl.perkin.mineral.silicate.sorosilicate.fine.ss01c.spectrum.txt
Measurement: Hemispherical reflectance
First Column: X
Second Column: Y
X Units: Wavelength (micrometers)
Y Units:Reflectance (percent)
First X Value:  2.5000
Last X Value:  0.4000
Number of X Values: 2101
Additional Information: mineral.silicate.sorosilicate.fine.vswir.ss-1c.jpl.perkin.ancillary.txt

 2.5000	54.5539
 2.4990	54.4551
 2.4980	54.2837
 2.4970	54.4605
 2.4960	54.3169
 2.4950	54.4887
 2.4940	54.2380
 2.4930	54.5235
 2.4920	54.4081
 2.4910	54.4587
 2.4900	54.5441
 2.4890	54.7130
 2.4880	54.4818
 2.4870	54.6682
 2.4860	54.4754
 2.4850	54.7774
 2.4840	54.6198
 2.4830	54.7762
 2.4820	54.7732
 2.4810	54.7336
 2.4800	54.7446
 2.4790	54.9872
 2.4780	54.8121
 2.4770	54.8445
 2.4760	54.9640
 2.4750	54.8688
 2.4740	54.8819
 2.4730	55.0634
 2.4720	55.0511
 2.4710	55.1426
 2.4700	55.0304
 2.4690	55.1915
 2.4680	55.1797
 2.4670	55.1806
 2.4660	55.2014
 2.4650	55.2537
 2.4640	55.2102
 2.4630	55.3564
 2.4620	55.3694
 2.4610	55.3367
 2.4600	55.3628
 2.4590	55.4184
 2.4580	55.4694
 2.4570	55.5542
 2.4560	55.4621
 2.4550	55.5516
 2.4540	55.5007
 2.4530	55.5493
 2.4520	55.7024
 2.4510	55.7838
 2.4500	55.6555
 2.4490	55.7507
 2.4480	55.7766
 2.4470	55.9379
 2.4460	55.9068
 2.4450	55.9670
 2.4440	55.9477
 2.4430	55.9635
 2.4420	55.9826
 2.4410	56.0210
 2.4400	56.0418
 2.4390	56.1572
 2.4380	56.1454
 2.4370	56.1316
 2.4360	56.2044
 2.4350	56.2131
 2.4340	56.2129
 2.4330	56.2086
 2.4320	56.3042
 2.4310	56.3502
 2.4300	56.2721
 2.4290	56.4165
 2.4280	56.3309
 2.4270	56.4653
 2.4260	56.3668
 2.4250	56.3159
 2.4240	56.3611
 2.4230	56.4592
 2.4220	56.4716
 2.4210	56.4223
 2.4200	56.4954
 2.4190	56.4834
 2.4180	56.4849
 2.4170	56.4993
 2.4160	56.4166
 2.4150	56.4070
 2.4140	56.3702
 2.4130	56.3974
 2.4120	56.4232
 2.4110	56.4488
 2.4100	56.3829
 2.4090	56.3519
 2.4080	56.2914
 2.4070	56.3692
 2.4060	56.3628
 2.4050	56.3604
 2.4040	56.2842
 2.4030	56.2796
 2.4020	56.2448
 2.4010	56.2355
 2.4000	56.1402
 2.3990	56.0796
 2.3980	56.0232
 2.3970	56.0129
 2.3960	55.9985
 2.3950	55.9724
 2.3940	55.8747
 2.3930	55.8398
 2.3920	55.9167
 2.3910	55.8518
 2.3900	55.8238
 2.3890	55.8422
 2.3880	55.7658
 2.3870	55.7531
 2.3860	55.7965
 2.3850	55.7851
 2.3840	55.7994
 2.3830	55.8731
 2.3820	55.8267
 2.3810	55.8257
 2.3800	55.8178
 2.3790	55.8907
 2.3780	55.9326
 2.3770	55.9306
 2.3760	55.9041
 2.3750	55.9170
 2.3740	55.8687
 2.3730	55.8511
 2.3720	55.9002
 2.3710	55.8904
 2.3700	55.8237
 2.3690	55.8253
 2.3680	55.8031
 2.3670	55.7161
 2.3660	55.6817
 2.3650	55.6842
 2.3640	55.6010
 2.3630	55.4231
 2.3620	55.3174
 2.3610	55.2454
 2.3600	55.1050
 2.3590	54.9729
 2.3580	54.7873
 2.3570	54.5608
 2.3560	54.4114
 2.3550	54.2832
 2.3540	54.1681
 2.3530	54.0040
 2.3520	53.7628
 2.3510	53.5457
 2.3500	53.3577
 2.3490	53.1550
 2.3480	52.9890
 2.3470	52.8449
 2.3460	52.6755
 2.3450	52.5625
 2.3440	52.4452
 2.3430	52.2671
 2.3420	52.1338
 2.3410	52.0563
 2.3400	51.9956
 2.3390	51.8956
 2.3380	51.8294
 2.3370	51.7430
 2.3360	51.7327
 2.3350	51.6863
 2.3340	51.7346
 2.3330	51.7408
 2.3320	51.7829
 2.3310	51.7616
 2.3300	51.7617
 2.3290	51.7847
 2.3280	51.8556
 2.3270	51.8737
 2.3260	51.9376
 2.3250	51.9840
 2.3240	52.0686
 2.3230	52.1361
 2.3220	52.2344
 2.3210	52.2842
 2.3200	52.4303
 2.3190	52.5086
 2.3180	52.5880
 2.3170	52.6534
 2.3160	52.7514
 2.3150	52.8490
 2.3140	52.9648
 2.3130	53.0095
 2.3120	53.0962
 2.3110	53.2318
 2.3100	53.3225
 2.3090	53.4086
 2.3080	53.5705
 2.3070	53.6156
 2.3060	53.6940
 2.3050	53.8222
 2.3040	54.0124
 2.3030	53.9897
 2.3020	54.1621
 2.3010	54.2447
 2.3000	54.3720
 2.2990	54.4433
 2.2980	54.5437
 2.2970	54.6476
 2.2960	54.7804
 2.2950	54.9025
 2.2940	54.9830
 2.2930	55.0932
 2.2920	55.2378
 2.2910	55.3325
 2.2900	55.5057
 2.2890	55.5309
 2.2880	55.6512
 2.2870	55.7372
 2.2860	55.9415
 2.2850	56.0092
 2.2840	56.1843
 2.2830	56.2191
 2.2820	56.3206
 2.2810	56.4647
 2.2800	56.6545
 2.2790	56.6680
 2.2780	56.7620
 2.2770	56.8031
 2.2760	56.9333
 2.2750	56.9754
 2.2740	57.0627
 2.2730	57.1312
 2.2720	57.1586
 2.2710	57.2053
 2.2700	57.2734
 2.2690	57.2614
 2.2680	57.3178
 2.2670	57.2824
 2.2660	57.3090
 2.2650	57.3759
 2.2640	57.3569
 2.2630	57.3052
 2.2620	57.3147
 2.2610	57.3247
 2.2600	57.3449
 2.2590	57.2765
 2.2580	57.3206
 2.2570	57.2771
 2.2560	57.3010
 2.2550	57.1909
 2.2540	57.2623
 2.2530	57.2548
 2.2520	57.2642
 2.2510	57.3141
 2.2500	57.3882
 2.2490	57.3728
 2.2480	57.5147
 2.2470	57.4643
 2.2460	57.6367
 2.2450	57.6520
 2.2440	57.8142
 2.2430	57.7552
 2.2420	57.8475
 2.2410	57.9758
 2.2400	58.0538
 2.2390	58.0199
 2.2380	58.2229
 2.2370	58.3531
 2.2360	58.3563
 2.2350	58.3367
 2.2340	58.4286
 2.2330	58.5306
 2.2320	58.5998
 2.2310	58.6094
 2.2300	58.6720
 2.2290	58.6631
 2.2280	58.6243
 2.2270	58.8428
 2.2260	58.7327
 2.2250	58.8412
 2.2240	58.8377
 2.2230	58.8668
 2.2220	59.0005
 2.2210	59.0079
 2.2200	58.9613
 2.2190	58.9577
 2.2180	59.0209
 2.2170	59.0191
 2.2160	59.1317
 2.2150	59.1562
 2.2140	59.1311
 2.2130	59.0735
 2.2120	59.2442
 2.2110	59.0699
 2.2100	59.2297
 2.2090	59.1640
 2.2080	59.2549
 2.2070	59.2235
 2.2060	59.3295
 2.2050	59.2652
 2.2040	59.3803
 2.2030	59.3395
 2.2020	59.4046
 2.2010	59.3587
 2.2000	59.4835
 2.1990	59.3995
 2.1980	59.4323
 2.1970	59.4478
 2.1960	59.5251
 2.1950	59.5169
 2.1940	59.5178
 2.1930	59.4931
 2.1920	59.6263
 2.1910	59.5238
 2.1900	59.6116
 2.1890	59.6453
 2.1880	59.5938
 2.1870	59.6157
 2.1860	59.6502
 2.1850	59.6767
 2.1840	59.7439
 2.1830	59.6896
 2.1820	59.6732
 2.1810	59.7181
 2.1800	59.7949
 2.1790	59.8337
 2.1780	59.8416
 2.1770	59.8240
 2.1760	59.9218
 2.1750	59.9084
 2.1740	59.8601
 2.1730	59.8463
 2.1720	60.0023
 2.1710	59.9449
 2.1700	59.9893
 2.1690	59.9412
 2.1680	60.0390
 2.1670	59.9636
 2.1660	60.0856
 2.1650	60.0764
 2.1640	60.1023
 2.1630	60.1332
 2.1620	60.1971
 2.1610	60.1780
 2.1600	60.1704
 2.1590	60.1534
 2.1580	60.2518
 2.1570	60.2685
 2.1560	60.3478
 2.1550	60.2816
 2.1540	60.2940
 2.1530	60.2929
 2.1520	60.3210
 2.1510	60.2789
 2.1500	60.3514
 2.1490	60.2927
 2.1480	60.2967
 2.1470	60.3319
 2.1460	60.3362
 2.1450	60.3203
 2.1440	60.4089
 2.1430	60.3547
 2.1420	60.3197
 2.1410	60.3249
 2.1400	60.3457
 2.1390	60.3739
 2.1380	60.3757
 2.1370	60.3206
 2.1360	60.2870
 2.1350	60.2694
 2.1340	60.2204
 2.1330	60.1776
 2.1320	60.1958
 2.1310	60.2051
 2.1300	60.1727
 2.1290	60.1157
 2.1280	60.1027
 2.1270	60.0427
 2.1260	60.0940
 2.1250	60.0882
 2.1240	60.0397
 2.1230	60.0577
 2.1220	59.9865
 2.1210	59.9146
 2.1200	59.9396
 2.1190	59.8297
 2.1180	59.7979
 2.1170	59.8494
 2.1160	59.7931
 2.1150	59.7406
 2.1140	59.7277
 2.1130	59.6893
 2.1120	59.7411
 2.1110	59.6560
 2.1100	59.6120
 2.1090	59.5815
 2.1080	59.6382
 2.1070	59.5520
 2.1060	59.5416
 2.1050	59.4991
 2.1040	59.4784
 2.1030	59.4717
 2.1020	59.3904
 2.1010	59.3380
 2.1000	59.3783
 2.0990	59.3557
 2.0980	59.3752
 2.0970	59.3447
 2.0960	59.3421
 2.0950	59.3759
 2.0940	59.3982
 2.0930	59.4170
 2.0920	59.4223
 2.0910	59.3686
 2.0900	59.3977
 2.0890	59.4717
 2.0880	59.4718
 2.0870	59.4322
 2.0860	59.4877
 2.0850	59.4741
 2.0840	59.4467
 2.0830	59.4557
 2.0820	59.4345
 2.0810	59.4890
 2.0800	59.5392
 2.0790	59.5475
 2.0780	59.5217
 2.0770	59.4901
 2.0760	59.5090
 2.0750	59.5031
 2.0740	59.5537
 2.0730	59.5367
 2.0720	59.4717
 2.0710	59.5439
 2.0700	59.5708
 2.0690	59.5715
 2.0680	59.5917
 2.0670	59.6126
 2.0660	59.6006
 2.0650	59.5402
 2.0640	59.5357
 2.0630	59.5471
 2.0620	59.5582
 2.0610	59.6088
 2.0600	59.6191
 2.0590	59.6108
 2.0580	59.6149
 2.0570	59.6229
 2.0560	59.6186
 2.0550	59.6637
 2.0540	59.6539
 2.0530	59.6231
 2.0520	59.6582
 2.0510	59.6695
 2.0500	59.6072
 2.0490	59.6247
 2.0480	59.6748
 2.0470	59.6680
 2.0460	59.6905
 2.0450	59.7199
 2.0440	59.7301
 2.0430	59.6888
 2.0420	59.6449
 2.0410	59.7100
 2.0400	59.7205
 2.0390	59.6894
 2.0380	59.7063
 2.0370	59.7114
 2.0360	59.6656
 2.0350	59.7070
 2.0340	59.6771
 2.0330	59.6711
 2.0320	59.6300
 2.0310	59.6256
 2.0300	59.5882
 2.0290	59.6196
 2.0280	59.6438
 2.0270	59.6393
 2.0260	59.5694
 2.0250	59.5860
 2.0240	59.5735
 2.0230	59.6117
 2.0220	59.5667
 2.0210	59.5556
 2.0200	59.6325
 2.0190	59.5825
 2.0180	59.5058
 2.0170	59.5573
 2.0160	59.5056
 2.0150	59.4816
 2.0140	59.4456
 2.0130	59.3733
 2.0120	59.3532
 2.0110	59.4225
 2.0100	59.4038
 2.0090	59.4067
 2.0080	59.3696
 2.0070	59.3721
 2.0060	59.3404
 2.0050	59.3195
 2.0040	59.3253
 2.0030	59.3513
 2.0020	59.3638
 2.0010	59.3030
 2.0000	59.2977
 1.9990	59.2687
 1.9980	59.2144
 1.9970	59.2710
 1.9960	59.1638
 1.9950	59.1568
 1.9940	59.1743
 1.9930	59.1136
 1.9920	59.0978
 1.9910	59.1509
 1.9900	59.0857
 1.9890	59.0938
 1.9880	59.0796
 1.9870	59.0992
 1.9860	58.9664
 1.9850	59.0609
 1.9840	58.9095
 1.9830	58.9736
 1.9820	58.9182
 1.9810	58.9538
 1.9800	58.8813
 1.9790	58.9035
 1.9780	58.7878
 1.9770	58.8453
 1.9760	58.7840
 1.9750	58.8156
 1.9740	58.7836
 1.9730	58.7680
 1.9720	58.7028
 1.9710	58.7246
 1.9700	58.6400
 1.9690	58.6857
 1.9680	58.6424
 1.9670	58.7030
 1.9660	58.6302
 1.9650	58.6220
 1.9640	58.5437
 1.9630	58.6650
 1.9620	58.5994
 1.9610	58.6452
 1.9600	58.5084
 1.9590	58.5847
 1.9580	58.4575
 1.9570	58.5392
 1.9560	58.4618
 1.9550	58.4314
 1.9540	58.4588
 1.9530	58.4057
 1.9520	58.4384
 1.9510	58.3913
 1.9500	58.3892
 1.9490	58.4039
 1.9480	58.3693
 1.9470	58.3992
 1.9460	58.3857
 1.9450	58.2953
 1.9440	58.3232
 1.9430	58.3553
 1.9420	58.3091
 1.9410	58.2960
 1.9400	58.1871
 1.9390	58.2678
 1.9380	58.2499
 1.9370	58.2286
 1.9360	58.2482
 1.9350	58.2234
 1.9340	58.1856
 1.9330	58.1587
 1.9320	58.0713
 1.9310	58.0597
 1.9300	58.0814
 1.9290	58.0222
 1.9280	57.9102
 1.9270	58.0329
 1.9260	57.7763
 1.9250	57.9004
 1.9240	57.7688
 1.9230	57.8408
 1.9220	57.7203
 1.9210	57.7654
 1.9200	57.6061
 1.9190	57.6132
 1.9180	57.5123
 1.9170	57.5218
 1.9160	57.4197
 1.9150	57.3961
 1.9140	57.3323
 1.9130	57.3876
 1.9120	57.2883
 1.9110	57.3660
 1.9100	57.3344
 1.9090	57.3860
 1.9080	57.4317
 1.9070	57.4502
 1.9060	57.5615
 1.9050	57.6782
 1.9040	57.7373
 1.9030	57.9053
 1.9020	57.9595
 1.9010	58.1819
 1.9000	58.3224
 1.8990	58.4130
 1.8980	58.5475
 1.8970	58.6902
 1.8960	58.8022
 1.8950	58.9566
 1.8940	58.9786
 1.8930	59.1635
 1.8920	59.2336
 1.8910	59.3571
 1.8900	59.4284
 1.8890	59.5489
 1.8880	59.5330
 1.8870	59.6397
 1.8860	59.6836
 1.8850	59.8004
 1.8840	59.8131
 1.8830	59.8691
 1.8820	59.9139
 1.8810	59.9552
 1.8800	60.0345
 1.8790	60.0194
 1.8780	60.0069
 1.8770	60.0658
 1.8760	60.0514
 1.8750	60.1654
 1.8740	60.2020
 1.8730	60.2186
 1.8720	60.2027
 1.8710	60.2829
 1.8700	60.2239
 1.8690	60.2979
 1.8680	60.3375
 1.8670	60.4125
 1.8660	60.3777
 1.8650	60.3714
 1.8640	60.3291
 1.8630	60.3970
 1.8620	60.3284
 1.8610	60.3924
 1.8600	60.4080
 1.8590	60.4316
 1.8580	60.3991
 1.8570	60.3889
 1.8560	60.4094
 1.8550	60.5150
 1.8540	60.4304
 1.8530	60.3942
 1.8520	60.3916
 1.8510	60.3995
 1.8500	60.3918
 1.8490	60.4946
 1.8480	60.4279
 1.8470	60.4812
 1.8460	60.3919
 1.8450	60.4443
 1.8440	60.5041
 1.8430	60.5141
 1.8420	60.4436
 1.8410	60.3977
 1.8400	60.4290
 1.8390	60.4475
 1.8380	60.4382
 1.8370	60.4104
 1.8360	60.3903
 1.8350	60.3987
 1.8340	60.4338
 1.8330	60.4199
 1.8320	60.4194
 1.8310	60.3996
 1.8300	60.4162
 1.8290	60.4357
 1.8280	60.4057
 1.8270	60.4111
 1.8260	60.3900
 1.8250	60.4082
 1.8240	60.4144
 1.8230	60.4464
 1.8220	60.4109
 1.8210	60.4679
 1.8200	60.4515
 1.8190	60.4791
 1.8180	60.4929
 1.8170	60.5272
 1.8160	60.5091
 1.8150	60.4791
 1.8140	60.4567
 1.8130	60.5233
 1.8120	60.5285
 1.8110	60.5067
 1.8100	60.4722
 1.8090	60.5089
 1.8080	60.5180
 1.8070	60.5303
 1.8060	60.5053
 1.8050	60.5303
 1.8040	60.4793
 1.8030	60.4744
 1.8020	60.5002
 1.8010	60.5162
 1.8000	60.5139
 1.7990	60.5290
 1.7980	60.4795
 1.7970	60.4562
 1.7960	60.4911
 1.7950	60.4929
 1.7940	60.4799
 1.7930	60.4780
 1.7920	60.4827
 1.7910	60.5025
 1.7900	60.4796
 1.7890	60.5039
 1.7880	60.5184
 1.7870	60.4602
 1.7860	60.4022
 1.7850	60.4482
 1.7840	60.5227
 1.7830	60.5466
 1.7820	60.4940
 1.7810	60.4421
 1.7800	60.4555
 1.7790	60.5091
 1.7780	60.5034
 1.7770	60.4444
 1.7760	60.4351
 1.7750	60.4339
 1.7740	60.4687
 1.7730	60.4612
 1.7720	60.4740
 1.7710	60.4619
 1.7700	60.4293
 1.7690	60.4046
 1.7680	60.4205
 1.7670	60.4421
 1.7660	60.5243
 1.7650	60.5019
 1.7640	60.4641
 1.7630	60.4928
 1.7620	60.5043
 1.7610	60.4920
 1.7600	60.5187
 1.7590	60.4648
 1.7580	60.4190
 1.7570	60.4030
 1.7560	60.4207
 1.7550	60.4398
 1.7540	60.4781
 1.7530	60.5062
 1.7520	60.5133
 1.7510	60.4345
 1.7500	60.4184
 1.7490	60.4265
 1.7480	60.4797
 1.7470	60.5181
 1.7460	60.5256
 1.7450	60.4651
 1.7440	60.5072
 1.7430	60.4677
 1.7420	60.4898
 1.7410	60.5406
 1.7400	60.5202
 1.7390	60.4973
 1.7380	60.4996
 1.7370	60.5092
 1.7360	60.5146
 1.7350	60.4799
 1.7340	60.5251
 1.7330	60.4790
 1.7320	60.5547
 1.7310	60.4719
 1.7300	60.4858
 1.7290	60.4652
 1.7280	60.4590
 1.7270	60.4658
 1.7260	60.5180
 1.7250	60.4941
 1.7240	60.5020
 1.7230	60.4826
 1.7220	60.5334
 1.7210	60.5315
 1.7200	60.5684
 1.7190	60.4708
 1.7180	60.5476
 1.7170	60.4990
 1.7160	60.4829
 1.7150	60.4607
 1.7140	60.4800
 1.7130	60.4667
 1.7120	60.5147
 1.7110	60.4397
 1.7100	60.4780
 1.7090	60.4571
 1.7080	60.4480
 1.7070	60.4035
 1.7060	60.3861
 1.7050	60.4736
 1.7040	60.4532
 1.7030	60.4000
 1.7020	60.4901
 1.7010	60.5117
 1.7000	60.5061
 1.6990	60.4211
 1.6980	60.3889
 1.6970	60.3926
 1.6960	60.4403
 1.6950	60.3591
 1.6940	60.4082
 1.6930	60.3981
 1.6920	60.4648
 1.6910	60.3792
 1.6900	60.4354
 1.6890	60.3425
 1.6880	60.4059
 1.6870	60.3645
 1.6860	60.5043
 1.6850	60.3659
 1.6840	60.3477
 1.6830	60.3427
 1.6820	60.3480
 1.6810	60.3031
 1.6800	60.4125
 1.6790	60.3859
 1.6780	60.3878
 1.6770	60.3025
 1.6760	60.3673
 1.6750	60.3583
 1.6740	60.3529
 1.6730	60.2582
 1.6720	60.3433
 1.6710	60.2740
 1.6700	60.3915
 1.6690	60.4467
 1.6680	60.2533
 1.6670	60.4261
 1.6660	60.3701
 1.6650	60.3372
 1.6640	60.3718
 1.6630	60.2650
 1.6620	60.3354
 1.6610	60.2965
 1.6600	60.2719
 1.6590	60.2847
 1.6580	60.3374
 1.6570	60.3037
 1.6560	60.3584
 1.6550	60.3908
 1.6540	60.3293
 1.6530	60.2337
 1.6520	60.3756
 1.6510	60.3100
 1.6500	60.3358
 1.6490	60.2890
 1.6480	60.3555
 1.6470	60.3785
 1.6460	60.2729
 1.6450	60.2212
 1.6440	60.2683
 1.6430	60.3130
 1.6420	60.2986
 1.6410	60.2462
 1.6400	60.2298
 1.6390	60.3363
 1.6380	60.2674
 1.6370	60.2605
 1.6360	60.2605
 1.6350	60.2035
 1.6340	60.3050
 1.6330	60.2002
 1.6320	60.2709
 1.6310	60.2596
 1.6300	60.2797
 1.6290	60.2233
 1.6280	60.3262
 1.6270	60.1878
 1.6260	60.2688
 1.6250	60.1444
 1.6240	60.2680
 1.6230	60.1817
 1.6220	60.2588
 1.6210	60.1919
 1.6200	60.2213
 1.6190	60.2561
 1.6180	60.2216
 1.6170	60.2233
 1.6160	60.2034
 1.6150	60.2142
 1.6140	60.2666
 1.6130	60.2025
 1.6120	60.2433
 1.6110	60.2889
 1.6100	60.2100
 1.6090	60.1819
 1.6080	60.2090
 1.6070	60.1834
 1.6060	60.2063
 1.6050	60.1891
 1.6040	60.2305
 1.6030	60.1220
 1.6020	60.2109
 1.6010	60.1104
 1.6000	60.1211
 1.5990	60.2253
 1.5980	60.1302
 1.5970	60.0936
 1.5960	60.1473
 1.5950	60.0987
 1.5940	60.1807
 1.5930	60.1285
 1.5920	60.0766
 1.5910	60.0230
 1.5900	60.1381
 1.5890	60.1114
 1.5880	60.0995
 1.5870	60.0135
 1.5860	60.0585
 1.5850	60.0837
 1.5840	60.1392
 1.5830	60.0544
 1.5820	60.0460
 1.5810	60.0485
 1.5800	60.0838
 1.5790	60.0236
 1.5780	60.0591
 1.5770	60.0207
 1.5760	60.0212
 1.5750	59.9902
 1.5740	60.0375
 1.5730	59.9987
 1.5720	59.9917
 1.5710	59.9519
 1.5700	59.9786
 1.5690	59.9785
 1.5680	59.9544
 1.5670	59.9238
 1.5660	59.9252
 1.5650	59.9122
 1.5640	59.9844
 1.5630	59.9042
 1.5620	59.8916
 1.5610	59.8420
 1.5600	59.8344
 1.5590	59.8559
 1.5580	59.8270
 1.5570	59.8051
 1.5560	59.8434
 1.5550	59.7853
 1.5540	59.7949
 1.5530	59.7864
 1.5520	59.7981
 1.5510	59.7849
 1.5500	59.7768
 1.5490	59.7351
 1.5480	59.7382
 1.5470	59.6963
 1.5460	59.6942
 1.5450	59.7228
 1.5440	59.6948
 1.5430	59.7207
 1.5420	59.7811
 1.5410	59.7512
 1.5400	59.7086
 1.5390	59.6834
 1.5380	59.7260
 1.5370	59.7378
 1.5360	59.7266
 1.5350	59.6962
 1.5340	59.7619
 1.5330	59.7462
 1.5320	59.7358
 1.5310	59.7600
 1.5300	59.7872
 1.5290	59.7232
 1.5280	59.7409
 1.5270	59.7259
 1.5260	59.7634
 1.5250	59.7430
 1.5240	59.7096
 1.5230	59.6955
 1.5220	59.6974
 1.5210	59.7200
 1.5200	59.7565
 1.5190	59.7010
 1.5180	59.7438
 1.5170	59.7622
 1.5160	59.7573
 1.5150	59.7796
 1.5140	59.7449
 1.5130	59.7263
 1.5120	59.7384
 1.5110	59.7212
 1.5100	59.7234
 1.5090	59.6733
 1.5080	59.6402
 1.5070	59.7148
 1.5060	59.7433
 1.5050	59.6632
 1.5040	59.6724
 1.5030	59.6655
 1.5020	59.6703
 1.5010	59.6992
 1.5000	59.6409
 1.4990	59.6028
 1.4980	59.6097
 1.4970	59.6035
 1.4960	59.6255
 1.4950	59.6370
 1.4940	59.5736
 1.4930	59.5896
 1.4920	59.6115
 1.4910	59.6086
 1.4900	59.6129
 1.4890	59.6475
 1.4880	59.6187
 1.4870	59.6052
 1.4860	59.6211
 1.4850	59.5751
 1.4840	59.5610
 1.4830	59.5421
 1.4820	59.5682
 1.4810	59.6115
 1.4800	59.6190
 1.4790	59.6023
 1.4780	59.5654
 1.4770	59.5415
 1.4760	59.5323
 1.4750	59.5019
 1.4740	59.4856
 1.4730	59.4972
 1.4720	59.4508
 1.4710	59.4410
 1.4700	59.4145
 1.4690	59.4625
 1.4680	59.4134
 1.4670	59.4329
 1.4660	59.4643
 1.4650	59.4728
 1.4640	59.3984
 1.4630	59.3666
 1.4620	59.3328
 1.4610	59.3674
 1.4600	59.3859
 1.4590	59.4018
 1.4580	59.3328
 1.4570	59.2927
 1.4560	59.3276
 1.4550	59.3597
 1.4540	59.2980
 1.4530	59.3272
 1.4520	59.2611
 1.4510	59.2836
 1.4500	59.1988
 1.4490	59.1828
 1.4480	59.1665
 1.4470	59.1779
 1.4460	59.1542
 1.4450	59.1617
 1.4440	59.0897
 1.4430	59.0647
 1.4420	59.0567
 1.4410	59.0847
 1.4400	59.0362
 1.4390	59.0596
 1.4380	59.0033
 1.4370	58.9736
 1.4360	58.9265
 1.4350	58.9595
 1.4340	58.9950
 1.4330	58.9750
 1.4320	58.9087
 1.4310	58.9126
 1.4300	58.9059
 1.4290	58.9096
 1.4280	58.8379
 1.4270	58.8545
 1.4260	58.8277
 1.4250	58.9075
 1.4240	58.8498
 1.4230	58.8235
 1.4220	58.7669
 1.4210	58.7979
 1.4200	58.7369
 1.4190	58.8071
 1.4180	58.8214
 1.4170	58.8013
 1.4160	58.7438
 1.4150	58.7939
 1.4140	58.7512
 1.4130	58.7871
 1.4120	58.7716
 1.4110	58.7202
 1.4100	58.7757
 1.4090	58.7400
 1.4080	58.6252
 1.4070	58.6063
 1.4060	58.5144
 1.4050	58.5494
 1.4040	58.6082
 1.4030	58.7191
 1.4020	58.5290
 1.4010	58.2720
 1.4000	57.8797
 1.3990	57.8018
 1.3980	57.9032
 1.3970	58.1698
 1.3960	58.2043
 1.3950	58.1318
 1.3940	57.8885
 1.3930	57.8118
 1.3920	57.8898
 1.3910	58.3033
 1.3900	58.7088
 1.3890	59.0994
 1.3880	59.2107
 1.3870	59.1937
 1.3860	59.1777
 1.3850	59.2575
 1.3840	59.3225
 1.3830	59.3029
 1.3820	59.1923
 1.3810	59.2680
 1.3800	59.2303
 1.3790	59.3299
 1.3780	59.2890
 1.3770	59.3780
 1.3760	59.1631
 1.3750	59.2060
 1.3740	59.2347
 1.3730	59.2341
 1.3720	59.1639
 1.3710	59.2440
 1.3700	59.2057
 1.3690	59.2273
 1.3680	59.2129
 1.3670	59.1989
 1.3660	59.2292
 1.3650	59.2113
 1.3640	59.0845
 1.3630	59.1072
 1.3620	59.0753
 1.3610	59.1601
 1.3600	59.0408
 1.3590	59.0921
 1.3580	59.0868
 1.3570	59.1542
 1.3560	59.0754
 1.3550	59.0151
 1.3540	59.0838
 1.3530	59.0888
 1.3520	59.0788
 1.3510	59.0715
 1.3500	58.9757
 1.3490	58.9716
 1.3480	58.9908
 1.3470	58.9565
 1.3460	59.0106
 1.3450	58.9770
 1.3440	58.9344
 1.3430	58.9985
 1.3420	58.9489
 1.3410	58.9556
 1.3400	58.9510
 1.3390	58.9151
 1.3380	58.9162
 1.3370	58.8717
 1.3360	58.9396
 1.3350	58.8837
 1.3340	58.8686
 1.3330	58.8534
 1.3320	58.8490
 1.3310	58.8570
 1.3300	58.8742
 1.3290	58.7581
 1.3280	58.7874
 1.3270	58.7319
 1.3260	58.7225
 1.3250	58.7360
 1.3240	58.7130
 1.3230	58.7928
 1.3220	58.7269
 1.3210	58.7195
 1.3200	58.6971
 1.3190	58.7300
 1.3180	58.6800
 1.3170	58.7248
 1.3160	58.6171
 1.3150	58.6025
 1.3140	58.6004
 1.3130	58.6931
 1.3120	58.6466
 1.3110	58.6092
 1.3100	58.6016
 1.3090	58.5708
 1.3080	58.5257
 1.3070	58.5725
 1.3060	58.5466
 1.3050	58.5052
 1.3040	58.4352
 1.3030	58.4818
 1.3020	58.4575
 1.3010	58.4868
 1.3000	58.4213
 1.2990	58.4333
 1.2980	58.3597
 1.2970	58.4310
 1.2960	58.3818
 1.2950	58.3914
 1.2940	58.3637
 1.2930	58.3402
 1.2920	58.2872
 1.2910	58.3108
 1.2900	58.2675
 1.2890	58.3126
 1.2880	58.2407
 1.2870	58.2571
 1.2860	58.1874
 1.2850	58.1898
 1.2840	58.1705
 1.2830	58.1734
 1.2820	58.1688
 1.2810	58.1034
 1.2800	58.0810
 1.2790	58.0857
 1.2780	58.0646
 1.2770	58.1097
 1.2760	58.0395
 1.2750	58.0358
 1.2740	57.9987
 1.2730	58.0232
 1.2720	57.9426
 1.2710	57.9562
 1.2700	57.9260
 1.2690	57.8851
 1.2680	57.8168
 1.2670	57.8840
 1.2660	57.8661
 1.2650	57.8910
 1.2640	57.8393
 1.2630	57.8257
 1.2620	57.8099
 1.2610	57.8036
 1.2600	57.7314
 1.2590	57.7112
 1.2580	57.6595
 1.2570	57.6747
 1.2560	57.6323
 1.2550	57.6513
 1.2540	57.6152
 1.2530	57.6302
 1.2520	57.6005
 1.2510	57.5731
 1.2500	57.5336
 1.2490	57.5325
 1.2480	57.5210
 1.2470	57.5069
 1.2460	57.4627
 1.2450	57.4334
 1.2440	57.4043
 1.2430	57.3921
 1.2420	57.4132
 1.2410	57.4305
 1.2400	57.3769
 1.2390	57.3501
 1.2380	57.2822
 1.2370	57.2525
 1.2360	57.2394
 1.2350	57.2299
 1.2340	57.2360
 1.2330	57.1797
 1.2320	57.1511
 1.2310	57.1156
 1.2300	57.0942
 1.2290	57.1100
 1.2280	57.0502
 1.2270	57.0357
 1.2260	57.0237
 1.2250	57.0162
 1.2240	57.0129
 1.2230	56.9747
 1.2220	56.9299
 1.2210	56.9054
 1.2200	56.9057
 1.2190	56.8743
 1.2180	56.8261
 1.2170	56.7757
 1.2160	56.7686
 1.2150	56.7414
 1.2140	56.6672
 1.2130	56.6366
 1.2120	56.6279
 1.2110	56.6300
 1.2100	56.6596
 1.2090	56.5971
 1.2080	56.5371
 1.2070	56.5193
 1.2060	56.5105
 1.2050	56.5050
 1.2040	56.4758
 1.2030	56.4270
 1.2020	56.3641
 1.2010	56.3668
 1.2000	56.3709
 1.1990	56.3209
 1.1980	56.2809
 1.1970	56.2450
 1.1960	56.2659
 1.1950	56.2168
 1.1940	56.1709
 1.1930	56.1656
 1.1920	56.1595
 1.1910	56.1140
 1.1900	56.0451
 1.1890	56.0526
 1.1880	55.9674
 1.1870	55.9801
 1.1860	55.9956
 1.1850	55.9133
 1.1840	55.9233
 1.1830	55.8717
 1.1820	55.8675
 1.1810	55.8762
 1.1800	55.8146
 1.1790	55.7395
 1.1780	55.7541
 1.1770	55.7297
 1.1760	55.7151
 1.1750	55.6272
 1.1740	55.5891
 1.1730	55.5562
 1.1720	55.5331
 1.1710	55.5087
 1.1700	55.5079
 1.1690	55.4927
 1.1680	55.4774
 1.1670	55.4468
 1.1660	55.4363
 1.1650	55.3605
 1.1640	55.3765
 1.1630	55.3049
 1.1620	55.3067
 1.1610	55.2444
 1.1600	55.2253
 1.1590	55.1961
 1.1580	55.1686
 1.1570	55.1624
 1.1560	55.1487
 1.1550	55.1331
 1.1540	55.0999
 1.1530	55.0513
 1.1520	55.0927
 1.1510	54.9850
 1.1500	54.9957
 1.1490	54.8901
 1.1480	54.9342
 1.1470	54.8315
 1.1460	54.7864
 1.1450	54.7784
 1.1440	54.7316
 1.1430	54.7270
 1.1420	54.7709
 1.1410	54.7577
 1.1400	54.7406
 1.1390	54.7108
 1.1380	54.7195
 1.1370	54.7055
 1.1360	54.6124
 1.1350	54.5313
 1.1340	54.4726
 1.1330	54.4269
 1.1320	54.5098
 1.1310	54.4803
 1.1300	54.4779
 1.1290	54.4255
 1.1280	54.4153
 1.1270	54.3584
 1.1260	54.3580
 1.1250	54.3455
 1.1240	54.3650
 1.1230	54.2621
 1.1220	54.2689
 1.1210	54.1651
 1.1200	54.1625
 1.1190	54.1200
 1.1180	54.1242
 1.1170	54.0078
 1.1160	54.0894
 1.1150	54.0590
 1.1140	54.0168
 1.1130	53.9812
 1.1120	53.9261
 1.1110	53.9239
 1.1100	53.9314
 1.1090	53.8453
 1.1080	53.9144
 1.1070	53.8398
 1.1060	53.8933
 1.1050	53.7825
 1.1040	53.8450
 1.1030	53.7842
 1.1020	53.7738
 1.1010	53.6611
 1.1000	53.7079
 1.0990	53.5638
 1.0980	53.5829
 1.0970	53.5275
 1.0960	53.6066
 1.0950	53.4852
 1.0940	53.5865
 1.0930	53.5307
 1.0920	53.4793
 1.0910	53.4532
 1.0900	53.3961
 1.0890	53.3624
 1.0880	53.4578
 1.0870	53.3443
 1.0860	53.4003
 1.0850	53.2510
 1.0840	53.3244
 1.0830	53.2197
 1.0820	53.2800
 1.0810	53.1583
 1.0800	53.2573
 1.0790	53.1304
 1.0780	53.1759
 1.0770	53.0752
 1.0760	53.1489
 1.0750	53.0712
 1.0740	53.0678
 1.0730	52.9491
 1.0720	53.0353
 1.0710	52.9922
 1.0700	52.9415
 1.0690	52.9267
 1.0680	53.0069
 1.0670	52.8704
 1.0660	52.9164
 1.0650	52.7934
 1.0640	52.8423
 1.0630	52.8107
 1.0620	52.7698
 1.0610	52.7649
 1.0600	52.7893
 1.0590	52.6490
 1.0580	52.7043
 1.0570	52.6410
 1.0560	52.6674
 1.0550	52.5761
 1.0540	52.5735
 1.0530	52.5511
 1.0520	52.5520
 1.0510	52.4709
 1.0500	52.4987
 1.0490	52.4802
 1.0480	52.5349
 1.0470	52.4210
 1.0460	52.5448
 1.0450	52.4177
 1.0440	52.4724
 1.0430	52.3749
 1.0420	52.4132
 1.0410	52.3977
 1.0400	52.4413
 1.0390	52.3607
 1.0380	52.4169
 1.0370	52.3009
 1.0360	52.2709
 1.0350	52.3353
 1.0340	52.2986
 1.0330	52.2884
 1.0320	52.2701
 1.0310	52.2325
 1.0300	52.2465
 1.0290	52.2334
 1.0280	52.2222
 1.0270	52.1850
 1.0260	52.1870
 1.0250	52.1637
 1.0240	52.1915
 1.0230	52.1161
 1.0220	52.1230
 1.0210	52.0755
 1.0200	52.1245
 1.0190	52.1042
 1.0180	52.1114
 1.0170	52.0245
 1.0160	52.0380
 1.0150	52.0263
 1.0140	52.0348
 1.0130	52.0649
 1.0120	52.0257
 1.0110	51.9724
 1.0100	52.0289
 1.0090	51.9415
 1.0080	51.9630
 1.0070	51.9390
 1.0060	51.9576
 1.0050	51.9031
 1.0040	51.9275
 1.0030	51.9388
 1.0020	51.8992
 1.0010	51.8305
 1.0000	51.9194
 0.9990	51.8370
 0.9980	51.8589
 0.9970	51.8901
 0.9960	51.8385
 0.9950	51.7896
 0.9940	51.8305
 0.9930	51.8043
 0.9920	51.8581
 0.9910	51.7799
 0.9900	51.7903
 0.9890	51.7507
 0.9880	51.7039
 0.9870	51.6941
 0.9860	51.7263
 0.9850	51.7376
 0.9840	51.7140
 0.9830	51.6390
 0.9820	51.6359
 0.9810	51.6617
 0.9800	51.6457
 0.9790	51.5975
 0.9780	51.6219
 0.9770	51.5601
 0.9760	51.5760
 0.9750	51.5677
 0.9740	51.5805
 0.9730	51.5432
 0.9720	51.5388
 0.9710	51.4988
 0.9700	51.5672
 0.9690	51.5673
 0.9680	51.5256
 0.9670	51.4885
 0.9660	51.4674
 0.9650	51.4589
 0.9640	51.4745
 0.9630	51.4953
 0.9620	51.4732
 0.9610	51.4143
 0.9600	51.4437
 0.9590	51.4069
 0.9580	51.4672
 0.9570	51.4074
 0.9560	51.3443
 0.9550	51.3200
 0.9540	51.3718
 0.9530	51.3529
 0.9520	51.3072
 0.9510	51.3028
 0.9500	51.3346
 0.9490	51.2848
 0.9480	51.2550
 0.9470	51.2581
 0.9460	51.2915
 0.9450	51.2560
 0.9440	51.2723
 0.9430	51.2803
 0.9420	51.2781
 0.9410	51.2959
 0.9400	51.3322
 0.9390	51.2881
 0.9380	51.2507
 0.9370	51.2636
 0.9360	51.1949
 0.9350	51.1734
 0.9340	51.2129
 0.9330	51.2303
 0.9320	51.2381
 0.9310	51.1904
 0.9300	51.1919
 0.9290	51.1533
 0.9280	51.1374
 0.9270	51.1843
 0.9260	51.1956
 0.9250	51.1788
 0.9240	51.1583
 0.9230	51.1911
 0.9220	51.1975
 0.9210	51.1642
 0.9200	51.0981
 0.9190	51.0364
 0.9180	51.1013
 0.9170	51.1766
 0.9160	51.1256
 0.9150	51.1287
 0.9140	51.0761
 0.9130	51.1001
 0.9120	51.1360
 0.9110	51.1098
 0.9100	51.0901
 0.9090	51.0969
 0.9080	51.0934
 0.9070	51.0313
 0.9060	50.9938
 0.9050	51.0183
 0.9040	51.0479
 0.9030	51.0373
 0.9020	50.9749
 0.9010	51.0605
 0.9000	51.0946
 0.8990	51.0392
 0.8980	51.0180
 0.8970	51.0448
 0.8960	51.0141
 0.8950	51.0136
 0.8940	51.0098
 0.8930	51.0416
 0.8920	51.0538
 0.8910	51.0738
 0.8900	51.0572
 0.8890	51.0364
 0.8880	51.0094
 0.8870	51.0292
 0.8860	50.9523
 0.8850	50.9978
 0.8840	50.9991
 0.8830	51.0060
 0.8820	51.0010
 0.8810	51.0405
 0.8800	50.9707
 0.8790	51.0226
 0.8780	51.0375
 0.8770	51.0763
 0.8760	51.0055
 0.8750	51.0069
 0.8740	50.9973
 0.8730	50.9994
 0.8720	50.9546
 0.8710	50.9855
 0.8700	50.9650
 0.8690	51.0032
 0.8680	50.9836
 0.8670	51.0261
 0.8660	50.9930
 0.8650	51.0244
 0.8640	50.9933
 0.8630	50.9683
 0.8620	50.9950
 0.8610	51.0315
 0.8600	51.1597
 0.8590	51.1629
 0.8580	51.1621
 0.8570	51.1808
 0.8560	51.1493
 0.8550	51.1740
 0.8540	51.1634
 0.8530	51.1635
 0.8520	51.1172
 0.8510	51.1433
 0.8500	51.1656
 0.8490	51.1708
 0.8480	51.1638
 0.8470	51.1784
 0.8460	51.1608
 0.8450	51.1876
 0.8440	51.1961
 0.8430	51.1557
 0.8420	51.1265
 0.8410	51.1924
 0.8400	51.1481
 0.8390	51.1743
 0.8380	51.1724
 0.8370	51.1700
 0.8360	51.1657
 0.8350	51.1548
 0.8340	51.1650
 0.8330	51.1799
 0.8320	51.1691
 0.8310	51.1694
 0.8300	51.1719
 0.8290	51.1543
 0.8280	51.1688
 0.8270	51.1667
 0.8260	51.1491
 0.8250	51.1655
 0.8240	51.1567
 0.8230	51.1394
 0.8220	51.1139
 0.8210	51.1547
 0.8200	51.1297
 0.8190	51.1172
 0.8180	51.1581
 0.8170	51.1452
 0.8160	51.1177
 0.8150	51.1307
 0.8140	51.0882
 0.8130	51.0976
 0.8120	51.1309
 0.8110	51.0895
 0.8100	51.0579
 0.8090	51.0884
 0.8080	51.0345
 0.8070	51.0084
 0.8060	51.0606
 0.8050	51.0425
 0.8040	51.0137
 0.8030	50.9997
 0.8020	51.0234
 0.8010	50.9802
 0.8000	50.9792
 0.7990	50.9527
 0.7980	50.9457
 0.7970	50.9221
 0.7960	50.8866
 0.7950	50.8484
 0.7940	50.8152
 0.7930	50.8379
 0.7920	50.8021
 0.7910	50.7944
 0.7900	50.7603
 0.7890	50.7460
 0.7880	50.7277
 0.7870	50.6838
 0.7860	50.6681
 0.7850	50.6661
 0.7840	50.6302
 0.7830	50.6387
 0.7820	50.6117
 0.7810	50.5687
 0.7800	50.5414
 0.7790	50.5154
 0.7780	50.4679
 0.7770	50.4232
 0.7760	50.4430
 0.7750	50.3826
 0.7740	50.3426
 0.7730	50.3510
 0.7720	50.2944
 0.7710	50.2723
 0.7700	50.2599
 0.7690	50.2324
 0.7680	50.2371
 0.7670	50.2128
 0.7660	50.1590
 0.7650	50.1229
 0.7640	50.1144
 0.7630	50.0733
 0.7620	50.0444
 0.7610	50.0030
 0.7600	49.9878
 0.7590	49.9581
 0.7580	49.9364
 0.7570	49.9235
 0.7560	49.9012
 0.7550	49.8493
 0.7540	49.8190
 0.7530	49.7882
 0.7520	49.7657
 0.7510	49.7533
 0.7500	49.7341
 0.7490	49.7113
 0.7480	49.6723
 0.7470	49.6271
 0.7460	49.6004
 0.7450	49.5916
 0.7440	49.5418
 0.7430	49.5263
 0.7420	49.5007
 0.7410	49.4815
 0.7400	49.4588
 0.7390	49.4359
 0.7380	49.3988
 0.7370	49.3717
 0.7360	49.3531
 0.7350	49.3208
 0.7340	49.2980
 0.7330	49.2822
 0.7320	49.2426
 0.7310	49.2220
 0.7300	49.2103
 0.7290	49.1835
 0.7280	49.1559
 0.7270	49.1138
 0.7260	49.0736
 0.7250	49.0681
 0.7240	49.0536
 0.7230	49.0141
 0.7220	48.9928
 0.7210	48.9506
 0.7200	48.9280
 0.7190	48.9156
 0.7180	48.8796
 0.7170	48.8661
 0.7160	48.8400
 0.7150	48.8154
 0.7140	48.7873
 0.7130	48.7535
 0.7120	48.7201
 0.7110	48.6915
 0.7100	48.6699
 0.7090	48.6531
 0.7080	48.6339
 0.7070	48.6126
 0.7060	48.5850
 0.7050	48.5399
 0.7040	48.5048
 0.7030	48.5008
 0.7020	48.4753
 0.7010	48.4366
 0.7000	48.4079
 0.6990	48.3845
 0.6980	48.3451
 0.6970	48.3153
 0.6960	48.2939
 0.6950	48.2724
 0.6940	48.2343
 0.6930	48.2070
 0.6920	48.1874
 0.6910	48.1659
 0.6900	48.1283
 0.6890	48.0942
 0.6880	48.0784
 0.6870	48.0600
 0.6860	48.0216
 0.6850	47.9853
 0.6840	47.9587
 0.6830	47.9347
 0.6820	47.9026
 0.6810	47.8756
 0.6800	47.8472
 0.6790	47.8149
 0.6780	47.7737
 0.6770	47.7391
 0.6760	47.7176
 0.6750	47.6956
 0.6740	47.6628
 0.6730	47.6259
 0.6720	47.6004
 0.6710	47.5576
 0.6700	47.5155
 0.6690	47.4825
 0.6680	47.4557
 0.6670	47.4302
 0.6660	47.3926
 0.6650	47.3498
 0.6640	47.3216
 0.6630	47.2901
 0.6620	47.2637
 0.6610	47.2358
 0.6600	47.1886
 0.6590	47.1498
 0.6580	47.1425
 0.6570	47.1146
 0.6560	47.0733
 0.6550	47.0324
 0.6540	47.0137
 0.6530	46.9804
 0.6520	46.9426
 0.6510	46.9192
 0.6500	46.8800
 0.6490	46.8514
 0.6480	46.8227
 0.6470	46.7915
 0.6460	46.7575
 0.6450	46.7282
 0.6440	46.6984
 0.6430	46.6666
 0.6420	46.6475
 0.6410	46.6261
 0.6400	46.6010
 0.6390	46.5657
 0.6380	46.5336
 0.6370	46.5086
 0.6360	46.4876
 0.6350	46.4622
 0.6340	46.4333
 0.6330	46.4046
 0.6320	46.3838
 0.6310	46.3682
 0.6300	46.3399
 0.6290	46.3198
 0.6280	46.2978
 0.6270	46.2731
 0.6260	46.2607
 0.6250	46.2356
 0.6240	46.2163
 0.6230	46.2013
 0.6220	46.1759
 0.6210	46.1622
 0.6200	46.1533
 0.6190	46.1296
 0.6180	46.1044
 0.6170	46.0817
 0.6160	46.0682
 0.6150	46.0538
 0.6140	46.0364
 0.6130	46.0218
 0.6120	46.0094
 0.6110	45.9969
 0.6100	45.9809
 0.6090	45.9683
 0.6080	45.9486
 0.6070	45.9338
 0.6060	45.9313
 0.6050	45.9183
 0.6040	45.8954
 0.6030	45.8889
 0.6020	45.8823
 0.6010	45.8535
 0.6000	45.8361
 0.5990	45.8299
 0.5980	45.8295
 0.5970	45.8234
 0.5960	45.8119
 0.5950	45.8159
 0.5940	45.7957
 0.5930	45.7832
 0.5920	45.7715
 0.5910	45.7546
 0.5900	45.7371
 0.5890	45.7127
 0.5880	45.6884
 0.5870	45.6655
 0.5860	45.6451
 0.5850	45.6227
 0.5840	45.6025
 0.5830	45.5767
 0.5820	45.5441
 0.5810	45.5153
 0.5800	45.4908
 0.5790	45.4550
 0.5780	45.4241
 0.5770	45.3856
 0.5760	45.3525
 0.5750	45.3138
 0.5740	45.2791
 0.5730	45.2360
 0.5720	45.1885
 0.5710	45.1391
 0.5700	45.0827
 0.5690	45.0348
 0.5680	44.9727
 0.5670	44.9231
 0.5660	44.8535
 0.5650	44.7923
 0.5640	44.7195
 0.5630	44.6571
 0.5620	44.5815
 0.5610	44.5133
 0.5600	44.4476
 0.5590	44.3616
 0.5580	44.2680
 0.5570	44.1863
 0.5560	44.1067
 0.5550	44.0122
 0.5540	43.9005
 0.5530	43.8151
 0.5520	43.7164
 0.5510	43.6013
 0.5500	43.4924
 0.5490	43.3776
 0.5480	43.2574
 0.5470	43.1329
 0.5460	43.0125
 0.5450	42.8862
 0.5440	42.7500
 0.5430	42.6144
 0.5420	42.4810
 0.5410	42.3331
 0.5400	42.1983
 0.5390	42.0427
 0.5380	41.8955
 0.5370	41.7375
 0.5360	41.5936
 0.5350	41.4329
 0.5340	41.2662
 0.5330	41.1002
 0.5320	40.9384
 0.5310	40.7702
 0.5300	40.6163
 0.5290	40.4441
 0.5280	40.2858
 0.5270	40.1315
 0.5260	39.9623
 0.5250	39.8002
 0.5240	39.6544
 0.5230	39.4747
 0.5220	39.3263
 0.5210	39.1621
 0.5200	39.0012
 0.5190	38.8396
 0.5180	38.6792
 0.5170	38.5131
 0.5160	38.3481
 0.5150	38.1910
 0.5140	38.0279
 0.5130	37.8656
 0.5120	37.6984
 0.5110	37.5331
 0.5100	37.3680
 0.5090	37.1979
 0.5080	37.0359
 0.5070	36.8730
 0.5060	36.7060
 0.5050	36.5490
 0.5040	36.3869
 0.5030	36.2071
 0.5020	36.0437
 0.5010	35.8734
 0.5000	35.7072
 0.4990	35.5662
 0.4980	35.3891
 0.4970	35.2001
 0.4960	35.0307
 0.4950	34.8572
 0.4940	34.6821
 0.4930	34.4869
 0.4920	34.3298
 0.4910	34.1270
 0.4900	33.9352
 0.4890	33.7374
 0.4880	33.5544
 0.4870	33.3484
 0.4860	33.1401
 0.4850	32.9326
 0.4840	32.7190
 0.4830	32.5366
 0.4820	32.3329
 0.4810	32.1058
 0.4800	31.9082
 0.4790	31.6993
 0.4780	31.5154
 0.4770	31.3318
 0.4760	31.1710
 0.4750	31.0324
 0.4740	30.8926
 0.4730	30.7952
 0.4720	30.6979
 0.4710	30.6427
 0.4700	30.6027
 0.4690	30.5831
 0.4680	30.5815
 0.4670	30.5886
 0.4660	30.5966
 0.4650	30.6008
 0.4640	30.5856
 0.4630	30.5565
 0.4620	30.4988
 0.4610	30.3969
 0.4600	30.2707
 0.4590	30.1350
 0.4580	29.9641
 0.4570	29.8186
 0.4560	29.7047
 0.4550	29.6186
 0.4540	29.5771
 0.4530	29.5720
 0.4520	29.6012
 0.4510	29.6449
 0.4500	29.6531
 0.4490	29.6389
 0.4480	29.6108
 0.4470	29.5501
 0.4460	29.4613
 0.4450	29.3741
 0.4440	29.2604
 0.4430	29.1539
 0.4420	29.0409
 0.4410	28.9129
 0.4400	28.7700
 0.4390	28.6137
 0.4380	28.4400
 0.4370	28.2348
 0.4360	28.0251
 0.4350	27.7903
 0.4340	27.5550
 0.4330	27.3093
 0.4320	27.0634
 0.4310	26.8080
 0.4300	26.5551
 0.4290	26.3135
 0.4280	26.0624
 0.4270	25.8168
 0.4260	25.5710
 0.4250	25.3285
 0.4240	25.0813
 0.4230	24.8387
 0.4220	24.6074
 0.4210	24.3670
 0.4200	24.1308
 0.4190	23.9008
 0.4180	23.6738
 0.4170	23.4508
 0.4160	23.2426
 0.4150	23.0364
 0.4140	22.8297
 0.4130	22.6301
 0.4120	22.4467
 0.4110	22.2582
 0.4100	22.0833
 0.4090	21.9248
 0.4080	21.7742
 0.4070	21.6373
 0.4060	21.5063
 0.4050	21.3928
 0.4040	21.2886
 0.4030	21.2038
 0.4020	21.1158
 0.4010	21.0452
 0.4000	20.9768
