Name: Kernite Na_2B_4O_6(OH)_2.3H_2O
Type: Mineral
Class: Borate
Subclass: none
Particle Size: Fine
Sample No.: B-2A
Owner: JPL
Wavelength Range: VSWIR
Origin: USA, California, Kern County, Boron.
Collection Date: N/A
Description: Particle size was <45um. Collected by:  JPL Original ASTER Spectral Library name was jpl.perkin.mineral.borate.none.fine.b02a.spectrum.txt
Measurement: Hemispherical reflectance
First Column: X
Second Column: Y
X Units: Wavelength (micrometers)
Y Units:Reflectance (percent)
First X Value:  2.5000
Last X Value:  0.4000
Number of X Values: 2101
Additional Information: mineral.borate.none.fine.vswir.b-2a.jpl.perkin.ancillary.txt

 2.5000	41.0221
 2.4990	40.9571
 2.4980	41.3439
 2.4970	41.1624
 2.4960	40.9350
 2.4950	41.1731
 2.4940	41.1673
 2.4930	40.9446
 2.4920	41.3114
 2.4910	41.0273
 2.4900	41.1552
 2.4890	41.2456
 2.4880	41.2182
 2.4870	41.1545
 2.4860	41.3297
 2.4850	41.2679
 2.4840	41.2710
 2.4830	41.2382
 2.4820	41.3498
 2.4810	41.3352
 2.4800	41.4960
 2.4790	41.3500
 2.4780	41.3961
 2.4770	41.4148
 2.4760	41.5858
 2.4750	41.3685
 2.4740	41.7016
 2.4730	41.6034
 2.4720	41.6808
 2.4710	41.6486
 2.4700	41.6851
 2.4690	41.6057
 2.4680	41.7508
 2.4670	41.6963
 2.4660	41.8020
 2.4650	41.7459
 2.4640	41.8635
 2.4630	41.8180
 2.4620	41.8229
 2.4610	41.8546
 2.4600	41.9502
 2.4590	41.8772
 2.4580	41.9931
 2.4570	41.9838
 2.4560	42.0563
 2.4550	41.8687
 2.4540	42.0171
 2.4530	41.9287
 2.4520	42.0002
 2.4510	41.9419
 2.4500	42.0396
 2.4490	42.0365
 2.4480	41.9815
 2.4470	41.9504
 2.4460	42.0395
 2.4450	42.0450
 2.4440	42.1142
 2.4430	42.1184
 2.4420	42.1403
 2.4410	42.1183
 2.4400	42.0463
 2.4390	42.0643
 2.4380	42.1388
 2.4370	42.1509
 2.4360	42.1718
 2.4350	42.2458
 2.4340	42.2695
 2.4330	42.2505
 2.4320	42.2877
 2.4310	42.2759
 2.4300	42.3593
 2.4290	42.3874
 2.4280	42.5106
 2.4270	42.5043
 2.4260	42.6032
 2.4250	42.5474
 2.4240	42.6090
 2.4230	42.7529
 2.4220	42.9181
 2.4210	42.9113
 2.4200	43.0038
 2.4190	43.0909
 2.4180	43.1586
 2.4170	43.2208
 2.4160	43.2700
 2.4150	43.3090
 2.4140	43.4446
 2.4130	43.4684
 2.4120	43.6102
 2.4110	43.6197
 2.4100	43.7536
 2.4090	43.7955
 2.4080	43.9338
 2.4070	43.9619
 2.4060	44.0506
 2.4050	44.1808
 2.4040	44.2445
 2.4030	44.3021
 2.4020	44.3653
 2.4010	44.4145
 2.4000	44.6377
 2.3990	44.7393
 2.3980	44.7901
 2.3970	44.9164
 2.3960	45.0927
 2.3950	45.1538
 2.3940	45.3040
 2.3930	45.4391
 2.3920	45.5870
 2.3910	45.7449
 2.3900	45.9562
 2.3890	46.0177
 2.3880	46.2393
 2.3870	46.4234
 2.3860	46.5769
 2.3850	46.7088
 2.3840	46.8907
 2.3830	47.0781
 2.3820	47.3515
 2.3810	47.4984
 2.3800	47.7395
 2.3790	47.8977
 2.3780	48.1196
 2.3770	48.3330
 2.3760	48.5250
 2.3750	48.7291
 2.3740	48.9324
 2.3730	49.0908
 2.3720	49.2993
 2.3710	49.5233
 2.3700	49.7101
 2.3690	49.9026
 2.3680	50.0565
 2.3670	50.1705
 2.3660	50.3776
 2.3650	50.5645
 2.3640	50.7206
 2.3630	50.8916
 2.3620	51.0559
 2.3610	51.1501
 2.3600	51.2914
 2.3590	51.4652
 2.3580	51.5523
 2.3570	51.7179
 2.3560	51.8731
 2.3550	51.9699
 2.3540	52.1117
 2.3530	52.2510
 2.3520	52.3159
 2.3510	52.3841
 2.3500	52.5210
 2.3490	52.6687
 2.3480	52.7609
 2.3470	52.8835
 2.3460	52.9744
 2.3450	53.0898
 2.3440	53.2118
 2.3430	53.3092
 2.3420	53.3996
 2.3410	53.5018
 2.3400	53.6204
 2.3390	53.7487
 2.3380	53.8436
 2.3370	53.9766
 2.3360	54.0970
 2.3350	54.1667
 2.3340	54.2981
 2.3330	54.4347
 2.3320	54.4859
 2.3310	54.5893
 2.3300	54.6352
 2.3290	54.7072
 2.3280	54.8518
 2.3270	54.9709
 2.3260	55.0430
 2.3250	55.1411
 2.3240	55.2017
 2.3230	55.2757
 2.3220	55.3091
 2.3210	55.3939
 2.3200	55.4085
 2.3190	55.4656
 2.3180	55.5060
 2.3170	55.5529
 2.3160	55.5735
 2.3150	55.6081
 2.3140	55.5979
 2.3130	55.5747
 2.3120	55.5685
 2.3110	55.6274
 2.3100	55.6121
 2.3090	55.5832
 2.3080	55.5821
 2.3070	55.5321
 2.3060	55.4445
 2.3050	55.4330
 2.3040	55.3858
 2.3030	55.3204
 2.3020	55.2888
 2.3010	55.2388
 2.3000	55.1946
 2.2990	55.1076
 2.2980	54.9722
 2.2970	54.9615
 2.2960	54.8278
 2.2950	54.6829
 2.2940	54.5982
 2.2930	54.5559
 2.2920	54.4457
 2.2910	54.3487
 2.2900	54.1569
 2.2890	54.0990
 2.2880	53.9839
 2.2870	53.8808
 2.2860	53.7380
 2.2850	53.6879
 2.2840	53.5363
 2.2830	53.4133
 2.2820	53.3591
 2.2810	53.2987
 2.2800	53.1573
 2.2790	53.1156
 2.2780	53.0585
 2.2770	52.9859
 2.2760	52.9898
 2.2750	52.9138
 2.2740	52.8266
 2.2730	52.7512
 2.2720	52.7252
 2.2710	52.6598
 2.2700	52.6692
 2.2690	52.6215
 2.2680	52.5862
 2.2670	52.5889
 2.2660	52.4592
 2.2650	52.4700
 2.2640	52.3604
 2.2630	52.4155
 2.2620	52.2966
 2.2610	52.2188
 2.2600	52.2129
 2.2590	52.1873
 2.2580	52.1372
 2.2570	52.1003
 2.2560	52.0647
 2.2550	52.0712
 2.2540	51.9369
 2.2530	51.9495
 2.2520	51.8959
 2.2510	51.8908
 2.2500	51.7580
 2.2490	51.8945
 2.2480	51.7688
 2.2470	51.7298
 2.2460	51.6646
 2.2450	51.6690
 2.2440	51.5261
 2.2430	51.5431
 2.2420	51.4315
 2.2410	51.3470
 2.2400	51.1738
 2.2390	51.0900
 2.2380	50.9889
 2.2370	50.8865
 2.2360	50.6978
 2.2350	50.5461
 2.2340	50.4440
 2.2330	50.2825
 2.2320	50.0323
 2.2310	49.9467
 2.2300	49.7054
 2.2290	49.6114
 2.2280	49.4088
 2.2270	49.3377
 2.2260	49.1133
 2.2250	48.9525
 2.2240	48.7648
 2.2230	48.6389
 2.2220	48.5020
 2.2210	48.3760
 2.2200	48.1742
 2.2190	47.9557
 2.2180	47.7291
 2.2170	47.6163
 2.2160	47.3908
 2.2150	47.1468
 2.2140	46.9053
 2.2130	46.7462
 2.2120	46.5240
 2.2110	46.1884
 2.2100	46.0453
 2.2090	45.6904
 2.2080	45.4388
 2.2070	45.1580
 2.2060	44.8597
 2.2050	44.5883
 2.2040	44.2128
 2.2030	43.8819
 2.2020	43.4455
 2.2010	43.1413
 2.2000	42.7085
 2.1990	42.3739
 2.1980	41.8454
 2.1970	41.4713
 2.1960	40.9941
 2.1950	40.7294
 2.1940	40.3183
 2.1930	40.1286
 2.1920	39.8035
 2.1910	39.6144
 2.1900	39.5090
 2.1890	39.5160
 2.1880	39.5172
 2.1870	39.6712
 2.1860	39.8616
 2.1850	40.1772
 2.1840	40.4699
 2.1830	40.9149
 2.1820	41.3149
 2.1810	41.9033
 2.1800	42.3789
 2.1790	42.9598
 2.1780	43.5097
 2.1770	44.0627
 2.1760	44.6398
 2.1750	45.1806
 2.1740	45.6755
 2.1730	46.2600
 2.1720	46.6436
 2.1710	47.1400
 2.1700	47.5306
 2.1690	47.9023
 2.1680	48.1867
 2.1670	48.5451
 2.1660	48.7778
 2.1650	48.9992
 2.1640	49.2197
 2.1630	49.4033
 2.1620	49.5437
 2.1610	49.7446
 2.1600	49.8794
 2.1590	50.0257
 2.1580	50.0712
 2.1570	50.2526
 2.1560	50.3262
 2.1550	50.4951
 2.1540	50.5258
 2.1530	50.6361
 2.1520	50.6103
 2.1510	50.7426
 2.1500	50.8223
 2.1490	50.9420
 2.1480	50.9523
 2.1470	51.0632
 2.1460	51.0950
 2.1450	51.1743
 2.1440	51.1916
 2.1430	51.3201
 2.1420	51.2622
 2.1410	51.2950
 2.1400	51.3404
 2.1390	51.4567
 2.1380	51.4396
 2.1370	51.4328
 2.1360	51.4752
 2.1350	51.5831
 2.1340	51.5765
 2.1330	51.6132
 2.1320	51.6130
 2.1310	51.6279
 2.1300	51.6010
 2.1290	51.6249
 2.1280	51.6289
 2.1270	51.7087
 2.1260	51.6597
 2.1250	51.6348
 2.1240	51.6555
 2.1230	51.6974
 2.1220	51.5797
 2.1210	51.5410
 2.1200	51.5349
 2.1190	51.4939
 2.1180	51.4692
 2.1170	51.4798
 2.1160	51.3651
 2.1150	51.3244
 2.1140	51.2446
 2.1130	51.2262
 2.1120	51.1583
 2.1110	51.0863
 2.1100	51.0271
 2.1090	50.9616
 2.1080	50.8968
 2.1070	50.8449
 2.1060	50.7375
 2.1050	50.6855
 2.1040	50.6061
 2.1030	50.5211
 2.1020	50.4220
 2.1010	50.3798
 2.1000	50.2577
 2.0990	50.1753
 2.0980	50.1619
 2.0970	50.1448
 2.0960	50.0661
 2.0950	49.9843
 2.0940	49.9446
 2.0930	49.9809
 2.0920	49.8855
 2.0910	49.7907
 2.0900	49.7277
 2.0890	49.6551
 2.0880	49.6031
 2.0870	49.5312
 2.0860	49.4415
 2.0850	49.4010
 2.0840	49.3467
 2.0830	49.2633
 2.0820	49.1881
 2.0810	49.1067
 2.0800	49.0034
 2.0790	48.9629
 2.0780	48.8733
 2.0770	48.7894
 2.0760	48.7233
 2.0750	48.6146
 2.0740	48.5291
 2.0730	48.4596
 2.0720	48.3946
 2.0710	48.2922
 2.0700	48.1814
 2.0690	48.0587
 2.0680	47.9135
 2.0670	47.7999
 2.0660	47.6965
 2.0650	47.5751
 2.0640	47.4310
 2.0630	47.2449
 2.0620	47.0552
 2.0610	46.9037
 2.0600	46.7101
 2.0590	46.5200
 2.0580	46.3311
 2.0570	46.0152
 2.0560	45.8099
 2.0550	45.6867
 2.0540	45.4802
 2.0530	45.2960
 2.0520	45.1744
 2.0510	45.0747
 2.0500	45.0315
 2.0490	45.0007
 2.0480	45.0315
 2.0470	45.0116
 2.0460	45.0052
 2.0450	45.0594
 2.0440	45.1002
 2.0430	45.1221
 2.0420	45.1285
 2.0410	45.0718
 2.0400	45.0620
 2.0390	45.0221
 2.0380	45.0297
 2.0370	45.0243
 2.0360	45.0224
 2.0350	44.9736
 2.0340	44.9741
 2.0330	44.8903
 2.0320	44.8690
 2.0310	44.8378
 2.0300	44.8367
 2.0290	44.8276
 2.0280	44.8718
 2.0270	44.7703
 2.0260	44.7715
 2.0250	44.7445
 2.0240	44.7524
 2.0230	44.7179
 2.0220	44.6575
 2.0210	44.5364
 2.0200	44.4738
 2.0190	44.3323
 2.0180	44.3029
 2.0170	44.1696
 2.0160	44.0736
 2.0150	43.9619
 2.0140	43.9258
 2.0130	43.7707
 2.0120	43.6781
 2.0110	43.5540
 2.0100	43.4904
 2.0090	43.4166
 2.0080	43.4016
 2.0070	43.2819
 2.0060	43.2617
 2.0050	43.1340
 2.0040	43.1189
 2.0030	43.0544
 2.0020	42.9961
 2.0010	42.9621
 2.0000	42.9569
 1.9990	42.8506
 1.9980	42.8142
 1.9970	42.6897
 1.9960	42.6908
 1.9950	42.5582
 1.9940	42.5885
 1.9930	42.5023
 1.9920	42.5108
 1.9910	42.3941
 1.9900	42.4378
 1.9890	42.3861
 1.9880	42.3939
 1.9870	42.2658
 1.9860	42.3429
 1.9850	42.2934
 1.9840	42.3679
 1.9830	42.2816
 1.9820	42.3536
 1.9810	42.2565
 1.9800	42.2459
 1.9790	42.2242
 1.9780	42.2973
 1.9770	42.2147
 1.9760	42.3596
 1.9750	42.2231
 1.9740	42.2876
 1.9730	42.3236
 1.9720	42.3161
 1.9710	42.3742
 1.9700	42.4792
 1.9690	42.5556
 1.9680	42.6306
 1.9670	42.6144
 1.9660	42.7939
 1.9650	42.8575
 1.9640	42.9634
 1.9630	43.0805
 1.9620	43.2565
 1.9610	43.4029
 1.9600	43.6204
 1.9590	43.7439
 1.9580	43.9834
 1.9570	44.0990
 1.9560	44.3433
 1.9550	44.4818
 1.9540	44.8262
 1.9530	45.0607
 1.9520	45.3108
 1.9510	45.5030
 1.9500	45.8295
 1.9490	45.9814
 1.9480	46.3409
 1.9470	46.5384
 1.9460	46.8828
 1.9450	47.1574
 1.9440	47.4211
 1.9430	47.6270
 1.9420	48.0163
 1.9410	48.2203
 1.9400	48.6046
 1.9390	48.8299
 1.9380	49.1249
 1.9370	49.4106
 1.9360	49.7039
 1.9350	49.8478
 1.9340	50.2901
 1.9330	50.5408
 1.9320	50.8516
 1.9310	51.0524
 1.9300	51.4499
 1.9290	51.6799
 1.9280	51.9697
 1.9270	52.2569
 1.9260	52.4612
 1.9250	52.7942
 1.9240	53.0922
 1.9230	53.3080
 1.9220	53.6017
 1.9210	53.7777
 1.9200	54.0971
 1.9190	54.3225
 1.9180	54.6677
 1.9170	54.8895
 1.9160	55.1897
 1.9150	55.4289
 1.9140	55.7367
 1.9130	55.9412
 1.9120	56.2115
 1.9110	56.4764
 1.9100	56.7701
 1.9090	57.0490
 1.9080	57.2680
 1.9070	57.4750
 1.9060	57.7892
 1.9050	57.9623
 1.9040	58.3976
 1.9030	58.5502
 1.9020	58.9850
 1.9010	59.1912
 1.9000	59.4843
 1.8990	59.6774
 1.8980	60.1271
 1.8970	60.2904
 1.8960	60.6332
 1.8950	60.8818
 1.8940	61.2019
 1.8930	61.3813
 1.8920	61.6843
 1.8910	61.9427
 1.8900	62.2340
 1.8890	62.4565
 1.8880	62.7187
 1.8870	62.9173
 1.8860	63.1147
 1.8850	63.3144
 1.8840	63.5182
 1.8830	63.6490
 1.8820	63.8282
 1.8810	63.9512
 1.8800	64.1603
 1.8790	64.2599
 1.8780	64.4576
 1.8770	64.5470
 1.8760	64.7085
 1.8750	64.7562
 1.8740	65.0075
 1.8730	65.0715
 1.8720	65.1539
 1.8710	65.2357
 1.8700	65.3771
 1.8690	65.4710
 1.8680	65.5330
 1.8670	65.6142
 1.8660	65.7311
 1.8650	65.7807
 1.8640	65.8141
 1.8630	65.8702
 1.8620	65.8891
 1.8610	65.9451
 1.8600	65.9944
 1.8590	66.0048
 1.8580	66.0914
 1.8570	66.0896
 1.8560	66.1762
 1.8550	66.1481
 1.8540	66.2405
 1.8530	66.2027
 1.8520	66.2806
 1.8510	66.2716
 1.8500	66.3264
 1.8490	66.2272
 1.8480	66.2502
 1.8470	66.2652
 1.8460	66.2953
 1.8450	66.2482
 1.8440	66.3255
 1.8430	66.2694
 1.8420	66.2943
 1.8410	66.3021
 1.8400	66.2698
 1.8390	66.2522
 1.8380	66.2480
 1.8370	66.2427
 1.8360	66.2181
 1.8350	66.1856
 1.8340	66.1841
 1.8330	66.1977
 1.8320	66.1595
 1.8310	66.0999
 1.8300	66.0744
 1.8290	66.0681
 1.8280	66.0795
 1.8270	65.9967
 1.8260	65.9738
 1.8250	65.9174
 1.8240	65.9476
 1.8230	65.9042
 1.8220	65.8461
 1.8210	65.8116
 1.8200	65.7810
 1.8190	65.7192
 1.8180	65.7029
 1.8170	65.6900
 1.8160	65.7167
 1.8150	65.6580
 1.8140	65.6203
 1.8130	65.5416
 1.8120	65.4981
 1.8110	65.4530
 1.8100	65.4752
 1.8090	65.4344
 1.8080	65.3536
 1.8070	65.3391
 1.8060	65.3172
 1.8050	65.2509
 1.8040	65.2257
 1.8030	65.1732
 1.8020	65.1983
 1.8010	65.1582
 1.8000	65.1425
 1.7990	65.0902
 1.7980	65.0296
 1.7970	65.0229
 1.7960	64.9741
 1.7950	64.9101
 1.7940	64.9050
 1.7930	64.9014
 1.7920	64.8676
 1.7910	64.8989
 1.7900	64.9273
 1.7890	64.8623
 1.7880	64.8453
 1.7870	64.8491
 1.7860	64.8226
 1.7850	64.8681
 1.7840	64.9310
 1.7830	64.9323
 1.7820	64.9563
 1.7810	65.0104
 1.7800	65.0642
 1.7790	65.0953
 1.7780	65.1109
 1.7770	65.1513
 1.7760	65.1999
 1.7750	65.2638
 1.7740	65.3321
 1.7730	65.4248
 1.7720	65.4106
 1.7710	65.4132
 1.7700	65.4755
 1.7690	65.5439
 1.7680	65.6206
 1.7670	65.6627
 1.7660	65.6804
 1.7650	65.7132
 1.7640	65.7777
 1.7630	65.8116
 1.7620	65.8327
 1.7610	65.8615
 1.7600	65.9077
 1.7590	65.9820
 1.7580	66.0467
 1.7570	66.0645
 1.7560	66.0972
 1.7550	66.2099
 1.7540	66.2001
 1.7530	66.2236
 1.7520	66.2460
 1.7510	66.2886
 1.7500	66.2913
 1.7490	66.3535
 1.7480	66.3281
 1.7470	66.3861
 1.7460	66.4262
 1.7450	66.4711
 1.7440	66.4990
 1.7430	66.5386
 1.7420	66.6242
 1.7410	66.6838
 1.7400	66.6141
 1.7390	66.6363
 1.7380	66.7201
 1.7370	66.7536
 1.7360	66.7628
 1.7350	66.8270
 1.7340	66.8554
 1.7330	66.8620
 1.7320	66.8962
 1.7310	66.9557
 1.7300	66.9820
 1.7290	67.0391
 1.7280	67.0128
 1.7270	67.0699
 1.7260	67.1519
 1.7250	67.2204
 1.7240	67.2391
 1.7230	67.3047
 1.7220	67.2680
 1.7210	67.2711
 1.7200	67.3124
 1.7190	67.3606
 1.7180	67.4191
 1.7170	67.4244
 1.7160	67.4435
 1.7150	67.5206
 1.7140	67.5218
 1.7130	67.5456
 1.7120	67.5918
 1.7110	67.6281
 1.7100	67.5970
 1.7090	67.6441
 1.7080	67.6674
 1.7070	67.6959
 1.7060	67.7070
 1.7050	67.7436
 1.7040	67.7559
 1.7030	67.7778
 1.7020	67.6906
 1.7010	67.7785
 1.7000	67.8476
 1.6990	67.8508
 1.6980	67.8615
 1.6970	67.8811
 1.6960	67.8054
 1.6950	67.8901
 1.6940	67.8384
 1.6930	67.8888
 1.6920	67.9353
 1.6910	67.9563
 1.6900	67.8874
 1.6890	67.9329
 1.6880	67.9404
 1.6870	67.9897
 1.6860	67.9258
 1.6850	68.0245
 1.6840	68.0741
 1.6830	67.9889
 1.6820	67.9855
 1.6810	68.0469
 1.6800	67.9941
 1.6790	68.0994
 1.6780	67.9919
 1.6770	68.0596
 1.6760	67.9918
 1.6750	68.0558
 1.6740	68.0201
 1.6730	68.0150
 1.6720	68.0411
 1.6710	67.9932
 1.6700	67.9744
 1.6690	68.0163
 1.6680	67.9405
 1.6670	67.9879
 1.6660	67.9246
 1.6650	67.9437
 1.6640	67.8836
 1.6630	67.9216
 1.6620	67.8975
 1.6610	67.8624
 1.6600	67.8661
 1.6590	67.8617
 1.6580	67.7515
 1.6570	67.7911
 1.6560	67.7429
 1.6550	67.8064
 1.6540	67.7489
 1.6530	67.6425
 1.6520	67.6795
 1.6510	67.6867
 1.6500	67.5355
 1.6490	67.6360
 1.6480	67.4838
 1.6470	67.5975
 1.6460	67.5036
 1.6450	67.5045
 1.6440	67.3966
 1.6430	67.4218
 1.6420	67.3244
 1.6410	67.2623
 1.6400	67.2543
 1.6390	67.2795
 1.6380	67.1745
 1.6370	67.1960
 1.6360	67.0727
 1.6350	67.0883
 1.6340	67.0292
 1.6330	67.0249
 1.6320	66.9331
 1.6310	66.9233
 1.6300	66.8386
 1.6290	66.8535
 1.6280	66.7970
 1.6270	66.7215
 1.6260	66.6814
 1.6250	66.6884
 1.6240	66.5645
 1.6230	66.6172
 1.6220	66.4844
 1.6210	66.4516
 1.6200	66.3761
 1.6190	66.3930
 1.6180	66.3752
 1.6170	66.3310
 1.6160	66.2423
 1.6150	66.2108
 1.6140	66.1717
 1.6130	66.1078
 1.6120	66.0572
 1.6110	66.0638
 1.6100	65.9197
 1.6090	66.0131
 1.6080	65.8808
 1.6070	65.8961
 1.6060	65.7751
 1.6050	65.8307
 1.6040	65.7161
 1.6030	65.7588
 1.6020	65.6562
 1.6010	65.6639
 1.6000	65.5776
 1.5990	65.5745
 1.5980	65.4909
 1.5970	65.5200
 1.5960	65.5037
 1.5950	65.4570
 1.5940	65.3097
 1.5930	65.3446
 1.5920	65.3140
 1.5910	65.3211
 1.5900	65.2093
 1.5890	65.2522
 1.5880	65.2112
 1.5870	65.0865
 1.5860	65.0740
 1.5850	65.0733
 1.5840	65.0334
 1.5830	65.0204
 1.5820	64.9562
 1.5810	64.9817
 1.5800	64.8981
 1.5790	64.8339
 1.5780	64.8692
 1.5770	64.8455
 1.5760	64.8660
 1.5750	64.8462
 1.5740	64.7874
 1.5730	64.7939
 1.5720	64.7733
 1.5710	64.8037
 1.5700	64.7556
 1.5690	64.7893
 1.5680	64.7382
 1.5670	64.7707
 1.5660	64.7945
 1.5650	64.7560
 1.5640	64.6979
 1.5630	64.7288
 1.5620	64.7449
 1.5610	64.6950
 1.5600	64.6913
 1.5590	64.6709
 1.5580	64.6544
 1.5570	64.6696
 1.5560	64.6903
 1.5550	64.7408
 1.5540	64.7207
 1.5530	64.6845
 1.5520	64.6641
 1.5510	64.7088
 1.5500	64.6401
 1.5490	64.6506
 1.5480	64.7244
 1.5470	64.7181
 1.5460	64.6532
 1.5450	64.6916
 1.5440	64.7233
 1.5430	64.7805
 1.5420	64.7828
 1.5410	64.7758
 1.5400	64.7636
 1.5390	64.8494
 1.5380	64.8864
 1.5370	64.8501
 1.5360	64.8315
 1.5350	64.8569
 1.5340	64.8609
 1.5330	64.8239
 1.5320	64.7596
 1.5310	64.7853
 1.5300	64.7778
 1.5290	64.7410
 1.5280	64.6604
 1.5270	64.6323
 1.5260	64.5817
 1.5250	64.5151
 1.5240	64.4903
 1.5230	64.4478
 1.5220	64.4165
 1.5210	64.3244
 1.5200	64.2464
 1.5190	64.1929
 1.5180	64.0940
 1.5170	64.0481
 1.5160	64.0290
 1.5150	63.9827
 1.5140	63.8912
 1.5130	63.8124
 1.5120	63.7100
 1.5110	63.7062
 1.5100	63.6799
 1.5090	63.6147
 1.5080	63.5887
 1.5070	63.5238
 1.5060	63.5119
 1.5050	63.4927
 1.5040	63.4366
 1.5030	63.4356
 1.5020	63.4027
 1.5010	63.3912
 1.5000	63.3741
 1.4990	63.3160
 1.4980	63.3086
 1.4970	63.3358
 1.4960	63.3726
 1.4950	63.3643
 1.4940	63.3679
 1.4930	63.3881
 1.4920	63.4390
 1.4910	63.4465
 1.4900	63.4893
 1.4890	63.5850
 1.4880	63.6581
 1.4870	63.6655
 1.4860	63.7081
 1.4850	63.7814
 1.4840	63.8650
 1.4830	63.8825
 1.4820	63.9283
 1.4810	64.0328
 1.4800	64.1273
 1.4790	64.2154
 1.4780	64.3066
 1.4770	64.4151
 1.4760	64.5264
 1.4750	64.6534
 1.4740	64.8421
 1.4730	65.0417
 1.4720	65.1675
 1.4710	65.2525
 1.4700	65.3591
 1.4690	65.4651
 1.4680	65.6398
 1.4670	65.7117
 1.4660	65.8087
 1.4650	65.8847
 1.4640	65.9462
 1.4630	65.9502
 1.4620	66.0164
 1.4610	65.9872
 1.4600	66.0490
 1.4590	66.0419
 1.4580	65.9802
 1.4570	65.9060
 1.4560	65.8431
 1.4550	65.6494
 1.4540	65.4409
 1.4530	65.1246
 1.4520	64.7304
 1.4510	64.1556
 1.4500	63.5554
 1.4490	62.9134
 1.4480	62.2660
 1.4470	61.6894
 1.4460	61.1863
 1.4450	60.7129
 1.4440	60.4661
 1.4430	60.3147
 1.4420	60.2820
 1.4410	60.3709
 1.4400	60.5562
 1.4390	60.7790
 1.4380	61.2261
 1.4370	61.7324
 1.4360	62.3515
 1.4350	62.9702
 1.4340	63.6929
 1.4330	64.4380
 1.4320	65.2972
 1.4310	66.1266
 1.4300	66.9654
 1.4290	67.7689
 1.4280	68.5410
 1.4270	69.3047
 1.4260	70.0777
 1.4250	70.8236
 1.4240	71.5293
 1.4230	72.2201
 1.4220	72.8594
 1.4210	73.4740
 1.4200	74.1326
 1.4190	74.6363
 1.4180	75.1809
 1.4170	75.7005
 1.4160	76.1864
 1.4150	76.5040
 1.4140	76.8677
 1.4130	77.1127
 1.4120	77.3931
 1.4110	77.5161
 1.4100	77.7066
 1.4090	77.9124
 1.4080	78.2668
 1.4070	78.4550
 1.4060	78.8950
 1.4050	79.2376
 1.4040	79.5581
 1.4030	79.8724
 1.4020	80.0145
 1.4010	80.2062
 1.4000	80.4586
 1.3990	80.6145
 1.3980	80.7331
 1.3970	80.8779
 1.3960	81.1193
 1.3950	81.2187
 1.3940	81.2803
 1.3930	81.4482
 1.3920	81.5471
 1.3910	81.6167
 1.3900	81.7321
 1.3890	81.7404
 1.3880	81.9110
 1.3870	81.9287
 1.3860	82.0032
 1.3850	81.9945
 1.3840	82.1054
 1.3830	82.0890
 1.3820	82.0888
 1.3810	82.1496
 1.3800	82.2146
 1.3790	82.3156
 1.3780	82.3007
 1.3770	82.3625
 1.3760	82.5069
 1.3750	82.4050
 1.3740	82.5571
 1.3730	82.5586
 1.3720	82.4611
 1.3710	82.5059
 1.3700	82.6415
 1.3690	82.6639
 1.3680	82.7804
 1.3670	82.7684
 1.3660	82.7641
 1.3650	82.9032
 1.3640	82.8229
 1.3630	82.8179
 1.3620	82.8784
 1.3610	82.9487
 1.3600	82.9629
 1.3590	83.0081
 1.3580	83.0430
 1.3570	83.0737
 1.3560	83.1864
 1.3550	83.0674
 1.3540	83.2295
 1.3530	83.1071
 1.3520	83.2504
 1.3510	83.1450
 1.3500	83.2926
 1.3490	83.2705
 1.3480	83.2576
 1.3470	83.3921
 1.3460	83.3695
 1.3450	83.4141
 1.3440	83.4342
 1.3430	83.3821
 1.3420	83.5735
 1.3410	83.4264
 1.3400	83.5544
 1.3390	83.5494
 1.3380	83.6080
 1.3370	83.5438
 1.3360	83.6037
 1.3350	83.5958
 1.3340	83.5917
 1.3330	83.5723
 1.3320	83.6075
 1.3310	83.5819
 1.3300	83.6220
 1.3290	83.5424
 1.3280	83.5804
 1.3270	83.5280
 1.3260	83.5301
 1.3250	83.5012
 1.3240	83.4457
 1.3230	83.3784
 1.3220	83.4244
 1.3210	83.3938
 1.3200	83.4408
 1.3190	83.3968
 1.3180	83.3680
 1.3170	83.3722
 1.3160	83.4611
 1.3150	83.4676
 1.3140	83.4752
 1.3130	83.5897
 1.3120	83.6420
 1.3110	83.6543
 1.3100	83.7514
 1.3090	83.8595
 1.3080	83.8108
 1.3070	83.8901
 1.3060	83.9561
 1.3050	84.0276
 1.3040	83.9780
 1.3030	84.0280
 1.3020	84.0760
 1.3010	84.1206
 1.3000	84.1697
 1.2990	84.1341
 1.2980	84.1628
 1.2970	84.2383
 1.2960	84.1235
 1.2950	84.1897
 1.2940	84.2177
 1.2930	84.2383
 1.2920	84.2570
 1.2910	84.1989
 1.2900	84.2067
 1.2890	84.2209
 1.2880	84.2376
 1.2870	84.2082
 1.2860	84.1549
 1.2850	84.2130
 1.2840	84.2598
 1.2830	84.1916
 1.2820	84.2233
 1.2810	84.2224
 1.2800	84.1616
 1.2790	84.1521
 1.2780	84.1312
 1.2770	84.0767
 1.2760	84.0361
 1.2750	83.9627
 1.2740	83.9209
 1.2730	83.8865
 1.2720	83.8490
 1.2710	83.7210
 1.2700	83.6335
 1.2690	83.6003
 1.2680	83.5649
 1.2670	83.5424
 1.2660	83.5007
 1.2650	83.4128
 1.2640	83.3194
 1.2630	83.2345
 1.2620	83.2611
 1.2610	83.2157
 1.2600	83.2280
 1.2590	83.2467
 1.2580	83.2779
 1.2570	83.2876
 1.2560	83.3015
 1.2550	83.3819
 1.2540	83.4195
 1.2530	83.4621
 1.2520	83.5712
 1.2510	83.5684
 1.2500	83.6253
 1.2490	83.6812
 1.2480	83.7243
 1.2470	83.7575
 1.2460	83.8083
 1.2450	83.8074
 1.2440	83.8290
 1.2430	83.8808
 1.2420	83.9454
 1.2410	83.9862
 1.2400	84.0211
 1.2390	84.0722
 1.2380	84.1295
 1.2370	84.1736
 1.2360	84.1827
 1.2350	84.2316
 1.2340	84.2728
 1.2330	84.2969
 1.2320	84.3051
 1.2310	84.3613
 1.2300	84.3858
 1.2290	84.3968
 1.2280	84.4320
 1.2270	84.5064
 1.2260	84.4774
 1.2250	84.4041
 1.2240	84.4779
 1.2230	84.5521
 1.2220	84.6009
 1.2210	84.5910
 1.2200	84.5936
 1.2190	84.6433
 1.2180	84.5804
 1.2170	84.5884
 1.2160	84.7020
 1.2150	84.6889
 1.2140	84.6479
 1.2130	84.6474
 1.2120	84.6742
 1.2110	84.7256
 1.2100	84.7460
 1.2090	84.7694
 1.2080	84.8319
 1.2070	84.8599
 1.2060	84.8579
 1.2050	84.8682
 1.2040	84.9003
 1.2030	84.9487
 1.2020	84.9934
 1.2010	85.0466
 1.2000	85.0575
 1.1990	85.1187
 1.1980	85.1166
 1.1970	85.1824
 1.1960	85.2497
 1.1950	85.2801
 1.1940	85.3186
 1.1930	85.4189
 1.1920	85.5084
 1.1910	85.5678
 1.1900	85.5629
 1.1890	85.5693
 1.1880	85.5873
 1.1870	85.6853
 1.1860	85.7247
 1.1850	85.7347
 1.1840	85.7877
 1.1830	85.8531
 1.1820	85.9389
 1.1810	86.0091
 1.1800	85.9649
 1.1790	86.0201
 1.1780	86.0753
 1.1770	86.1499
 1.1760	86.2302
 1.1750	86.2592
 1.1740	86.2777
 1.1730	86.2707
 1.1720	86.3649
 1.1710	86.3760
 1.1700	86.3772
 1.1690	86.4571
 1.1680	86.5095
 1.1670	86.4659
 1.1660	86.5044
 1.1650	86.6006
 1.1640	86.6383
 1.1630	86.6393
 1.1620	86.5779
 1.1610	86.6455
 1.1600	86.7055
 1.1590	86.7529
 1.1580	86.7694
 1.1570	86.7595
 1.1560	86.7822
 1.1550	86.8773
 1.1540	86.8759
 1.1530	86.8495
 1.1520	86.8657
 1.1510	86.8398
 1.1500	86.8799
 1.1490	86.9443
 1.1480	86.9336
 1.1470	86.9184
 1.1460	86.9804
 1.1450	86.9661
 1.1440	86.9286
 1.1430	86.9636
 1.1420	86.9784
 1.1410	86.9353
 1.1400	87.0239
 1.1390	87.0889
 1.1380	87.0698
 1.1370	87.1145
 1.1360	87.0491
 1.1350	87.0507
 1.1340	87.1155
 1.1330	87.0622
 1.1320	87.1256
 1.1310	87.1121
 1.1300	87.1450
 1.1290	87.1670
 1.1280	87.0984
 1.1270	87.0844
 1.1260	87.1781
 1.1250	87.1706
 1.1240	87.1617
 1.1230	87.1606
 1.1220	87.1286
 1.1210	87.1000
 1.1200	87.1737
 1.1190	87.1641
 1.1180	87.2337
 1.1170	87.1973
 1.1160	87.1324
 1.1150	87.1467
 1.1140	87.1065
 1.1130	87.1853
 1.1120	87.1036
 1.1110	87.1519
 1.1100	87.1578
 1.1090	87.1340
 1.1080	87.2085
 1.1070	87.1951
 1.1060	87.2464
 1.1050	87.2473
 1.1040	87.1960
 1.1030	87.1847
 1.1020	87.2062
 1.1010	87.2446
 1.1000	87.2478
 1.0990	87.3233
 1.0980	87.3188
 1.0970	87.3018
 1.0960	87.3629
 1.0950	87.3824
 1.0940	87.2944
 1.0930	87.3006
 1.0920	87.3218
 1.0910	87.2368
 1.0900	87.3288
 1.0890	87.3108
 1.0880	87.3232
 1.0870	87.2983
 1.0860	87.3343
 1.0850	87.3410
 1.0840	87.2969
 1.0830	87.2714
 1.0820	87.3457
 1.0810	87.4299
 1.0800	87.2937
 1.0790	87.2939
 1.0780	87.3697
 1.0770	87.3281
 1.0760	87.3499
 1.0750	87.3479
 1.0740	87.3138
 1.0730	87.3406
 1.0720	87.3416
 1.0710	87.3859
 1.0700	87.3810
 1.0690	87.3142
 1.0680	87.3308
 1.0670	87.3487
 1.0660	87.3546
 1.0650	87.4411
 1.0640	87.3940
 1.0630	87.2468
 1.0620	87.2593
 1.0610	87.3062
 1.0600	87.3129
 1.0590	87.3380
 1.0580	87.3230
 1.0570	87.4002
 1.0560	87.2670
 1.0550	87.2967
 1.0540	87.3325
 1.0530	87.3907
 1.0520	87.3566
 1.0510	87.3187
 1.0500	87.2522
 1.0490	87.3142
 1.0480	87.2214
 1.0470	87.3170
 1.0460	87.2581
 1.0450	87.2210
 1.0440	87.2771
 1.0430	87.1997
 1.0420	87.1198
 1.0410	87.1418
 1.0400	87.2473
 1.0390	87.1270
 1.0380	87.2059
 1.0370	87.1628
 1.0360	87.0905
 1.0350	87.1094
 1.0340	87.1150
 1.0330	87.0786
 1.0320	87.1745
 1.0310	87.1571
 1.0300	87.1188
 1.0290	87.1206
 1.0280	87.1081
 1.0270	87.1161
 1.0260	87.0986
 1.0250	87.0862
 1.0240	87.0725
 1.0230	87.1258
 1.0220	87.0365
 1.0210	87.0471
 1.0200	87.0480
 1.0190	86.9877
 1.0180	87.0133
 1.0170	86.9963
 1.0160	87.0611
 1.0150	87.0099
 1.0140	86.9807
 1.0130	87.0142
 1.0120	86.8838
 1.0110	86.9124
 1.0100	86.9083
 1.0090	86.8979
 1.0080	86.9392
 1.0070	86.8983
 1.0060	86.8146
 1.0050	86.7774
 1.0040	86.7867
 1.0030	86.7823
 1.0020	86.7106
 1.0010	86.6425
 1.0000	86.5821
 0.9990	86.5202
 0.9980	86.4191
 0.9970	86.4099
 0.9960	86.3238
 0.9950	86.2475
 0.9940	86.0386
 0.9930	85.9240
 0.9920	85.9167
 0.9910	85.8330
 0.9900	85.6788
 0.9890	85.6005
 0.9880	85.5817
 0.9870	85.6331
 0.9860	85.6214
 0.9850	85.6354
 0.9840	85.7149
 0.9830	85.8527
 0.9820	85.9274
 0.9810	86.0302
 0.9800	86.1957
 0.9790	86.3809
 0.9780	86.4884
 0.9770	86.6315
 0.9760	86.7510
 0.9750	86.8478
 0.9740	86.9937
 0.9730	87.0516
 0.9720	87.0602
 0.9710	87.2169
 0.9700	87.2910
 0.9690	87.3251
 0.9680	87.4085
 0.9670	87.4513
 0.9660	87.4929
 0.9650	87.5001
 0.9640	87.4929
 0.9630	87.5615
 0.9620	87.5710
 0.9610	87.5936
 0.9600	87.6052
 0.9590	87.6260
 0.9580	87.6601
 0.9570	87.6941
 0.9560	87.7492
 0.9550	87.7313
 0.9540	87.6590
 0.9530	87.6774
 0.9520	87.6806
 0.9510	87.6687
 0.9500	87.7420
 0.9490	87.7736
 0.9480	87.7627
 0.9470	87.7361
 0.9460	87.7452
 0.9450	87.7744
 0.9440	87.7705
 0.9430	87.7913
 0.9420	87.7967
 0.9410	87.8000
 0.9400	87.7509
 0.9390	87.7066
 0.9380	87.7829
 0.9370	87.8270
 0.9360	87.7892
 0.9350	87.7749
 0.9340	87.7648
 0.9330	87.8304
 0.9320	87.8973
 0.9310	87.8408
 0.9300	87.8336
 0.9290	87.8120
 0.9280	87.7301
 0.9270	87.8331
 0.9260	87.8922
 0.9250	87.8626
 0.9240	87.8090
 0.9230	87.8159
 0.9220	87.9041
 0.9210	87.8830
 0.9200	87.8314
 0.9190	87.7838
 0.9180	87.7955
 0.9170	87.8770
 0.9160	87.8546
 0.9150	87.8401
 0.9140	87.8406
 0.9130	87.7776
 0.9120	87.8070
 0.9110	87.9102
 0.9100	87.9021
 0.9090	87.8490
 0.9080	87.8414
 0.9070	87.8228
 0.9060	87.8312
 0.9050	87.8735
 0.9040	87.8910
 0.9030	87.8575
 0.9020	87.8865
 0.9010	87.8824
 0.9000	87.9126
 0.8990	87.9409
 0.8980	87.8594
 0.8970	87.8758
 0.8960	87.8632
 0.8950	87.8482
 0.8940	87.8799
 0.8930	87.9300
 0.8920	87.8670
 0.8910	87.8697
 0.8900	87.9222
 0.8890	87.9427
 0.8880	87.9447
 0.8870	87.9712
 0.8860	87.9383
 0.8850	87.9333
 0.8840	87.9346
 0.8830	87.9092
 0.8820	87.9396
 0.8810	87.9641
 0.8800	87.9643
 0.8790	87.9332
 0.8780	87.9736
 0.8770	88.0351
 0.8760	88.0659
 0.8750	88.0230
 0.8740	87.9711
 0.8730	88.0154
 0.8720	88.0533
 0.8710	88.0444
 0.8700	88.0250
 0.8690	88.0155
 0.8680	88.0757
 0.8670	88.0740
 0.8660	88.0698
 0.8650	88.0691
 0.8640	88.0664
 0.8630	88.0318
 0.8620	88.0583
 0.8610	88.1015
 0.8600	88.1492
 0.8590	88.2739
 0.8580	88.3072
 0.8570	88.1912
 0.8560	88.3573
 0.8550	88.3277
 0.8540	88.1243
 0.8530	88.2384
 0.8520	88.3135
 0.8510	88.3133
 0.8500	88.3644
 0.8490	88.3458
 0.8480	88.3010
 0.8470	88.2357
 0.8460	88.3003
 0.8450	88.3121
 0.8440	88.2379
 0.8430	88.3349
 0.8420	88.3767
 0.8410	88.2448
 0.8400	88.2760
 0.8390	88.3575
 0.8380	88.3229
 0.8370	88.2477
 0.8360	88.4073
 0.8350	88.3028
 0.8340	88.2734
 0.8330	88.3689
 0.8320	88.3667
 0.8310	88.3021
 0.8300	88.3170
 0.8290	88.4080
 0.8280	88.3396
 0.8270	88.3246
 0.8260	88.3927
 0.8250	88.3414
 0.8240	88.2741
 0.8230	88.3610
 0.8220	88.3240
 0.8210	88.2740
 0.8200	88.3470
 0.8190	88.3601
 0.8180	88.3049
 0.8170	88.3671
 0.8160	88.3299
 0.8150	88.3131
 0.8140	88.3620
 0.8130	88.3758
 0.8120	88.3196
 0.8110	88.3297
 0.8100	88.4041
 0.8090	88.3148
 0.8080	88.3122
 0.8070	88.3303
 0.8060	88.3282
 0.8050	88.3484
 0.8040	88.3616
 0.8030	88.3319
 0.8020	88.2970
 0.8010	88.3283
 0.8000	88.2973
 0.7990	88.3063
 0.7980	88.3308
 0.7970	88.3118
 0.7960	88.2290
 0.7950	88.1957
 0.7940	88.2099
 0.7930	88.1780
 0.7920	88.1950
 0.7910	88.2522
 0.7900	88.1737
 0.7890	88.2116
 0.7880	88.2481
 0.7870	88.1946
 0.7860	88.2270
 0.7850	88.1883
 0.7840	88.1578
 0.7830	88.1834
 0.7820	88.1461
 0.7810	88.1938
 0.7800	88.1727
 0.7790	88.1941
 0.7780	88.1734
 0.7770	88.1414
 0.7760	88.1153
 0.7750	88.1575
 0.7740	88.0966
 0.7730	88.1076
 0.7720	88.1015
 0.7710	88.0891
 0.7700	88.0592
 0.7690	88.0390
 0.7680	88.0625
 0.7670	88.0321
 0.7660	87.9567
 0.7650	88.0123
 0.7640	87.9908
 0.7630	87.9600
 0.7620	87.9671
 0.7610	87.9702
 0.7600	88.0259
 0.7590	87.9941
 0.7580	87.9522
 0.7570	87.9688
 0.7560	87.9850
 0.7550	87.9959
 0.7540	87.9736
 0.7530	87.9714
 0.7520	88.0117
 0.7510	88.0079
 0.7500	88.0060
 0.7490	88.0312
 0.7480	88.0170
 0.7470	88.0224
 0.7460	88.0191
 0.7450	88.0271
 0.7440	88.0287
 0.7430	88.0462
 0.7420	88.0367
 0.7410	88.0448
 0.7400	88.0128
 0.7390	88.0193
 0.7380	88.0026
 0.7370	87.9959
 0.7360	88.0013
 0.7350	88.0124
 0.7340	87.9835
 0.7330	88.0149
 0.7320	88.0167
 0.7310	88.0118
 0.7300	88.0077
 0.7290	87.9649
 0.7280	87.9804
 0.7270	87.9997
 0.7260	88.0058
 0.7250	87.9938
 0.7240	87.9967
 0.7230	87.9904
 0.7220	87.9427
 0.7210	87.9768
 0.7200	87.9827
 0.7190	87.9652
 0.7180	87.9544
 0.7170	87.9718
 0.7160	87.9921
 0.7150	87.9470
 0.7140	87.9540
 0.7130	87.9680
 0.7120	87.9527
 0.7110	87.9559
 0.7100	87.9518
 0.7090	87.9397
 0.7080	87.9278
 0.7070	87.9335
 0.7060	87.9204
 0.7050	87.9152
 0.7040	87.9524
 0.7030	87.9503
 0.7020	87.9216
 0.7010	87.9289
 0.7000	87.9246
 0.6990	87.9285
 0.6980	87.9246
 0.6970	87.9125
 0.6960	87.9333
 0.6950	87.9139
 0.6940	87.9193
 0.6930	87.8942
 0.6920	87.8925
 0.6910	87.9017
 0.6900	87.9140
 0.6890	87.8992
 0.6880	87.8725
 0.6870	87.8883
 0.6860	87.8835
 0.6850	87.8629
 0.6840	87.8844
 0.6830	87.8795
 0.6820	87.8872
 0.6810	87.8674
 0.6800	87.8709
 0.6790	87.8734
 0.6780	87.8606
 0.6770	87.8621
 0.6760	87.8702
 0.6750	87.8661
 0.6740	87.8550
 0.6730	87.8380
 0.6720	87.8309
 0.6710	87.8369
 0.6700	87.8310
 0.6690	87.8230
 0.6680	87.8295
 0.6670	87.8288
 0.6660	87.8199
 0.6650	87.8372
 0.6640	87.8319
 0.6630	87.8209
 0.6620	87.8242
 0.6610	87.8081
 0.6600	87.8037
 0.6590	87.8135
 0.6580	87.8097
 0.6570	87.7834
 0.6560	87.7805
 0.6550	87.7831
 0.6540	87.7738
 0.6530	87.7666
 0.6520	87.7623
 0.6510	87.7689
 0.6500	87.7685
 0.6490	87.7741
 0.6480	87.7672
 0.6470	87.7409
 0.6460	87.7212
 0.6450	87.7082
 0.6440	87.7068
 0.6430	87.7112
 0.6420	87.7158
 0.6410	87.7073
 0.6400	87.6950
 0.6390	87.6917
 0.6380	87.6818
 0.6370	87.6909
 0.6360	87.6897
 0.6350	87.6861
 0.6340	87.6844
 0.6330	87.6787
 0.6320	87.6663
 0.6310	87.6556
 0.6300	87.6484
 0.6290	87.6325
 0.6280	87.6143
 0.6270	87.6152
 0.6260	87.6157
 0.6250	87.6050
 0.6240	87.5956
 0.6230	87.5971
 0.6220	87.5828
 0.6210	87.5913
 0.6200	87.5953
 0.6190	87.5860
 0.6180	87.5859
 0.6170	87.5832
 0.6160	87.5733
 0.6150	87.5506
 0.6140	87.5463
 0.6130	87.5360
 0.6120	87.5380
 0.6110	87.5378
 0.6100	87.5227
 0.6090	87.5079
 0.6080	87.5156
 0.6070	87.5249
 0.6060	87.5175
 0.6050	87.5016
 0.6040	87.5050
 0.6030	87.4988
 0.6020	87.4830
 0.6010	87.4744
 0.6000	87.4677
 0.5990	87.4666
 0.5980	87.4808
 0.5970	87.4873
 0.5960	87.5000
 0.5950	87.5038
 0.5940	87.4970
 0.5930	87.4858
 0.5920	87.5035
 0.5910	87.4934
 0.5900	87.4785
 0.5890	87.4552
 0.5880	87.4510
 0.5870	87.4612
 0.5860	87.4370
 0.5850	87.4122
 0.5840	87.4215
 0.5830	87.4130
 0.5820	87.4071
 0.5810	87.3932
 0.5800	87.3556
 0.5790	87.3578
 0.5780	87.3529
 0.5770	87.3472
 0.5760	87.3426
 0.5750	87.3384
 0.5740	87.3121
 0.5730	87.3011
 0.5720	87.2782
 0.5710	87.2721
 0.5700	87.2662
 0.5690	87.2630
 0.5680	87.2436
 0.5670	87.2297
 0.5660	87.2044
 0.5650	87.1827
 0.5640	87.1730
 0.5630	87.1797
 0.5620	87.1673
 0.5610	87.1360
 0.5600	87.1082
 0.5590	87.1002
 0.5580	87.0898
 0.5570	87.0708
 0.5560	87.0474
 0.5550	87.0474
 0.5540	87.0221
 0.5530	87.0117
 0.5520	86.9956
 0.5510	86.9773
 0.5500	86.9732
 0.5490	86.9437
 0.5480	86.9301
 0.5470	86.9139
 0.5460	86.8881
 0.5450	86.8717
 0.5440	86.8463
 0.5430	86.8396
 0.5420	86.8129
 0.5410	86.7782
 0.5400	86.7624
 0.5390	86.7524
 0.5380	86.7348
 0.5370	86.6993
 0.5360	86.6769
 0.5350	86.6558
 0.5340	86.6450
 0.5330	86.6047
 0.5320	86.5721
 0.5310	86.5346
 0.5300	86.5192
 0.5290	86.5060
 0.5280	86.4801
 0.5270	86.4580
 0.5260	86.4289
 0.5250	86.3954
 0.5240	86.3659
 0.5230	86.3611
 0.5220	86.3152
 0.5210	86.2754
 0.5200	86.2550
 0.5190	86.2300
 0.5180	86.2133
 0.5170	86.1675
 0.5160	86.1341
 0.5150	86.0958
 0.5140	86.0617
 0.5130	86.0446
 0.5120	85.9866
 0.5110	85.9356
 0.5100	85.8925
 0.5090	85.8458
 0.5080	85.8417
 0.5070	85.8098
 0.5060	85.7513
 0.5050	85.7227
 0.5040	85.7019
 0.5030	85.6371
 0.5020	85.5834
 0.5010	85.5425
 0.5000	85.5217
 0.4990	85.4411
 0.4980	85.4162
 0.4970	85.3936
 0.4960	85.3465
 0.4950	85.2838
 0.4940	85.2711
 0.4930	85.1848
 0.4920	85.1668
 0.4910	85.1198
 0.4900	85.0801
 0.4890	85.0203
 0.4880	84.9831
 0.4870	84.9353
 0.4860	84.8757
 0.4850	84.8385
 0.4840	84.7806
 0.4830	84.7267
 0.4820	84.7244
 0.4810	84.6449
 0.4800	84.6186
 0.4790	84.5768
 0.4780	84.5892
 0.4770	84.5442
 0.4760	84.4939
 0.4750	84.4582
 0.4740	84.4189
 0.4730	84.3784
 0.4720	84.3408
 0.4710	84.2955
 0.4700	84.2554
 0.4690	84.2200
 0.4680	84.1827
 0.4670	84.1516
 0.4660	84.0899
 0.4650	84.0768
 0.4640	84.0281
 0.4630	83.9971
 0.4620	83.9554
 0.4610	83.9234
 0.4600	83.8824
 0.4590	83.8296
 0.4580	83.8039
 0.4570	83.7546
 0.4560	83.7226
 0.4550	83.6776
 0.4540	83.6158
 0.4530	83.5545
 0.4520	83.5393
 0.4510	83.4687
 0.4500	83.4441
 0.4490	83.4042
 0.4480	83.3650
 0.4470	83.3148
 0.4460	83.2517
 0.4450	83.2274
 0.4440	83.1593
 0.4430	83.1138
 0.4420	83.0905
 0.4410	83.0436
 0.4400	82.9956
 0.4390	82.9296
 0.4380	82.8897
 0.4370	82.8673
 0.4360	82.8033
 0.4350	82.7692
 0.4340	82.7106
 0.4330	82.6622
 0.4320	82.6361
 0.4310	82.5863
 0.4300	82.5267
 0.4290	82.4771
 0.4280	82.4523
 0.4270	82.3909
 0.4260	82.3522
 0.4250	82.2941
 0.4240	82.2658
 0.4230	82.2014
 0.4220	82.1705
 0.4210	82.1205
 0.4200	82.0634
 0.4190	82.0153
 0.4180	81.9952
 0.4170	81.9262
 0.4160	81.8880
 0.4150	81.8385
 0.4140	81.7960
 0.4130	81.7574
 0.4120	81.7184
 0.4110	81.6640
 0.4100	81.6109
 0.4090	81.5581
 0.4080	81.5305
 0.4070	81.4836
 0.4060	81.4364
 0.4050	81.3863
 0.4040	81.3523
 0.4030	81.3028
 0.4020	81.2560
 0.4010	81.2082
 0.4000	81.1462
