Name: Stilbite NaCa_2Al_5Si_3O_36.14H_2O
Type: Mineral
Class: Silicate
Subclass: Tectosilicate
Particle Size: Fine
Sample No.: TS-9A
Owner: JPL
Wavelength Range: VSWIR
Origin: India
Collection Date: N/A
Description: Particle size was 0-45um.Collected by Grieger's Inc. Original ASTER Spectral Library name was jpl.beckman.mineral.silicate.tectosilicate.fine.ts09a.spectrum.txt
Measurement: Hemispherical reflectance
First Column: X
Second Column: Y
X Units: Wavelength (micrometers)
Y Units:Reflectance (percent)
First X Value:  0.4000
Last X Value:  2.5000
Number of X Values: 826
Additional Information: mineral.silicate.tectosilicate.fine.vswir.ts-9a.jpl.beckman.ancillary.txt

 0.4000	82.1100
 0.4010	82.1800
 0.4020	82.0000
 0.4030	82.0700
 0.4040	82.2700
 0.4050	82.2700
 0.4060	82.3100
 0.4070	82.1900
 0.4080	82.3900
 0.4090	82.4500
 0.4100	82.5100
 0.4110	82.4600
 0.4120	82.5900
 0.4130	82.7600
 0.4140	82.6700
 0.4150	82.7300
 0.4160	82.5100
 0.4170	82.5300
 0.4180	82.8200
 0.4190	82.7600
 0.4200	82.7100
 0.4210	82.7200
 0.4220	82.8000
 0.4230	82.7900
 0.4240	82.7700
 0.4250	82.7000
 0.4260	82.7700
 0.4270	82.9400
 0.4280	82.9100
 0.4290	82.8300
 0.4300	82.9200
 0.4310	83.0100
 0.4320	83.1100
 0.4330	83.1000
 0.4340	82.9900
 0.4350	83.1900
 0.4360	83.2500
 0.4370	83.2200
 0.4380	83.2700
 0.4390	83.2700
 0.4400	83.3900
 0.4410	83.4300
 0.4420	83.4300
 0.4430	83.3700
 0.4440	83.3600
 0.4450	83.3700
 0.4460	83.4300
 0.4470	83.4300
 0.4480	83.3500
 0.4490	83.5700
 0.4500	83.6900
 0.4510	83.6800
 0.4520	83.5700
 0.4530	83.5300
 0.4540	83.7600
 0.4550	83.7900
 0.4560	83.8300
 0.4570	83.6800
 0.4580	83.7200
 0.4590	83.8500
 0.4600	83.8700
 0.4610	83.8600
 0.4620	83.9100
 0.4630	83.8200
 0.4640	83.7000
 0.4650	83.8100
 0.4660	83.8800
 0.4670	83.9300
 0.4680	83.8400
 0.4690	83.9700
 0.4700	84.0900
 0.4710	84.0600
 0.4720	84.0700
 0.4730	83.9600
 0.4740	83.9000
 0.4750	84.2600
 0.4760	84.2400
 0.4770	84.1800
 0.4780	84.0900
 0.4790	84.1600
 0.4800	84.2700
 0.4810	84.2100
 0.4820	84.2400
 0.4830	84.3700
 0.4840	84.4300
 0.4850	84.2800
 0.4860	84.3000
 0.4870	84.2100
 0.4880	84.1700
 0.4890	84.4100
 0.4900	84.3600
 0.4910	84.3200
 0.4920	84.4000
 0.4930	84.3800
 0.4940	84.4000
 0.4950	84.4000
 0.4960	84.3600
 0.4970	84.3700
 0.4980	84.6200
 0.4990	84.6200
 0.5000	84.4600
 0.5010	84.4800
 0.5020	84.4800
 0.5030	84.7100
 0.5040	84.6600
 0.5050	84.5500
 0.5060	84.7300
 0.5070	84.7200
 0.5080	84.7700
 0.5090	84.7100
 0.5100	84.7100
 0.5110	84.7700
 0.5120	84.8800
 0.5130	84.9400
 0.5140	84.7700
 0.5150	84.8100
 0.5160	84.9100
 0.5170	84.9600
 0.5180	84.9100
 0.5190	84.8600
 0.5200	84.9200
 0.5210	84.8600
 0.5220	84.9700
 0.5230	85.0200
 0.5240	84.9700
 0.5250	85.0200
 0.5260	85.1200
 0.5270	85.0800
 0.5280	85.0300
 0.5290	85.0300
 0.5300	85.1900
 0.5310	85.1400
 0.5320	85.1600
 0.5330	85.0500
 0.5340	85.1100
 0.5350	85.1200
 0.5360	85.1100
 0.5370	85.0500
 0.5380	85.1000
 0.5390	85.2700
 0.5400	85.2500
 0.5410	85.2500
 0.5420	85.1400
 0.5430	85.1600
 0.5440	85.4000
 0.5450	85.4100
 0.5460	85.3800
 0.5470	85.2300
 0.5480	85.3100
 0.5490	85.4300
 0.5500	85.5600
 0.5510	85.5100
 0.5520	85.5200
 0.5530	85.5900
 0.5540	85.7100
 0.5550	85.6700
 0.5560	85.5400
 0.5570	85.5300
 0.5580	85.5400
 0.5590	85.6700
 0.5600	85.7100
 0.5610	86.1600
 0.5620	86.1900
 0.5630	86.0500
 0.5640	85.9600
 0.5650	86.1100
 0.5660	86.2700
 0.5670	86.2200
 0.5680	86.1600
 0.5690	85.9900
 0.5700	85.9300
 0.5710	86.0800
 0.5720	85.9000
 0.5730	85.8300
 0.5740	85.8800
 0.5750	85.7600
 0.5760	85.9600
 0.5770	85.8800
 0.5780	85.7500
 0.5790	85.8500
 0.5800	85.8900
 0.5810	85.8400
 0.5820	85.7700
 0.5830	85.7200
 0.5840	85.8200
 0.5850	86.0000
 0.5860	86.0600
 0.5870	85.8500
 0.5880	85.9100
 0.5890	86.0000
 0.5900	86.0000
 0.5910	85.9900
 0.5920	85.8900
 0.5930	86.0700
 0.5940	86.1200
 0.5950	86.1200
 0.5960	85.9600
 0.5970	86.0400
 0.5980	86.1300
 0.5990	86.1800
 0.6000	86.2800
 0.6010	86.0900
 0.6020	86.1300
 0.6030	86.2000
 0.6040	86.2700
 0.6050	86.2700
 0.6060	86.2100
 0.6070	86.2400
 0.6080	86.2800
 0.6090	86.2700
 0.6100	86.2100
 0.6110	86.1000
 0.6120	86.2800
 0.6130	86.1600
 0.6140	86.3600
 0.6150	86.1800
 0.6160	86.2400
 0.6170	86.1700
 0.6180	86.1200
 0.6190	86.0700
 0.6200	86.1800
 0.6210	86.2400
 0.6220	86.2800
 0.6230	86.3900
 0.6240	86.1700
 0.6250	86.1800
 0.6260	86.3600
 0.6270	86.1900
 0.6280	86.2400
 0.6290	86.2400
 0.6300	86.2000
 0.6310	86.2500
 0.6320	86.1800
 0.6330	86.1600
 0.6340	86.3200
 0.6350	86.3300
 0.6360	86.2800
 0.6370	86.2900
 0.6380	86.1800
 0.6390	86.1300
 0.6400	86.2900
 0.6410	86.1900
 0.6420	86.3000
 0.6430	86.2500
 0.6440	86.1900
 0.6450	86.3500
 0.6460	86.3200
 0.6470	86.1600
 0.6480	86.2300
 0.6490	86.4100
 0.6500	86.4100
 0.6510	86.2800
 0.6520	86.1800
 0.6530	86.2300
 0.6540	86.4100
 0.6550	86.4600
 0.6560	86.2300
 0.6570	86.2900
 0.6580	86.3400
 0.6590	86.3300
 0.6600	86.3800
 0.6610	86.2800
 0.6620	86.3500
 0.6630	86.4100
 0.6640	86.3400
 0.6650	86.2300
 0.6660	86.3000
 0.6670	86.3600
 0.6680	86.4200
 0.6690	86.4100
 0.6700	86.3600
 0.6710	86.4000
 0.6720	86.4400
 0.6730	86.4400
 0.6740	86.3900
 0.6750	86.4600
 0.6760	86.5800
 0.6770	86.5100
 0.6780	86.4500
 0.6790	86.3600
 0.6800	86.3000
 0.6810	86.4800
 0.6820	86.3600
 0.6830	86.3400
 0.6840	86.3900
 0.6850	86.4000
 0.6860	86.5200
 0.6870	86.4800
 0.6880	86.4900
 0.6890	86.4800
 0.6900	86.5800
 0.6910	86.5200
 0.6920	86.4200
 0.6930	86.4300
 0.6940	86.4800
 0.6950	86.6300
 0.6960	86.6700
 0.6970	86.5000
 0.6980	86.5600
 0.6990	86.4800
 0.7000	86.4300
 0.7010	86.4400
 0.7020	86.4200
 0.7030	86.4100
 0.7040	86.4500
 0.7050	86.3300
 0.7060	86.2300
 0.7070	86.4800
 0.7080	86.5900
 0.7090	86.5300
 0.7100	86.2800
 0.7110	86.3000
 0.7120	86.3700
 0.7130	86.4700
 0.7140	86.5200
 0.7150	86.4000
 0.7160	86.5100
 0.7170	86.5200
 0.7180	86.4200
 0.7190	86.3700
 0.7200	86.3700
 0.7210	86.6000
 0.7220	86.6000
 0.7230	86.6000
 0.7240	86.4800
 0.7250	86.4100
 0.7260	86.4600
 0.7270	86.4100
 0.7280	86.4800
 0.7290	86.2600
 0.7300	86.5500
 0.7310	86.5400
 0.7320	86.5400
 0.7330	86.4900
 0.7340	86.4300
 0.7350	86.5400
 0.7360	86.6400
 0.7370	86.5800
 0.7380	86.4200
 0.7390	86.3800
 0.7400	86.4900
 0.7410	86.5400
 0.7420	86.4900
 0.7430	86.2700
 0.7440	86.4500
 0.7450	86.5500
 0.7460	86.5400
 0.7470	86.4900
 0.7480	86.4900
 0.7490	86.5100
 0.7500	86.4900
 0.7510	86.5500
 0.7520	86.4400
 0.7530	86.4500
 0.7540	86.5500
 0.7550	86.4800
 0.7560	86.4300
 0.7570	86.3800
 0.7580	86.5700
 0.7590	86.5600
 0.7600	86.6200
 0.7610	86.6200
 0.7620	86.5700
 0.7630	86.6800
 0.7640	86.7800
 0.7650	86.6200
 0.7660	86.4600
 0.7670	86.6300
 0.7680	86.6800
 0.7690	86.6800
 0.7700	86.7400
 0.7710	86.6400
 0.7720	86.7500
 0.7730	86.7900
 0.7740	86.7900
 0.7750	86.7400
 0.7760	86.6800
 0.7770	86.8000
 0.7780	86.7300
 0.7790	86.8000
 0.7800	86.6400
 0.7810	86.7400
 0.7820	86.8400
 0.7830	86.7300
 0.7840	86.8000
 0.7850	86.7500
 0.7860	86.8100
 0.7870	86.8100
 0.7880	86.8100
 0.7890	86.8100
 0.7900	86.8600
 0.7910	86.9600
 0.7920	86.8500
 0.7930	86.8700
 0.7940	86.7500
 0.7950	86.6900
 0.7960	86.9600
 0.7970	86.8400
 0.7980	86.8400
 0.7990	86.7700
 0.8000	86.7900
 0.8040	86.8400
 0.8080	86.9500
 0.8120	86.8800
 0.8160	86.8200
 0.8200	86.9200
 0.8240	86.8500
 0.8280	86.9100
 0.8320	86.8600
 0.8360	86.8700
 0.8400	86.9100
 0.8440	86.9700
 0.8480	86.9600
 0.8520	86.9500
 0.8560	86.9500
 0.8600	86.9700
 0.8640	87.0000
 0.8680	87.0500
 0.8720	87.0100
 0.8760	86.9900
 0.8800	86.9500
 0.8840	86.9500
 0.8880	87.0500
 0.8920	86.9500
 0.8960	86.9900
 0.9000	87.0000
 0.9040	86.9500
 0.9080	86.8800
 0.9120	86.9000
 0.9160	86.9800
 0.9200	86.9400
 0.9240	86.8800
 0.9280	86.9500
 0.9320	87.0000
 0.9360	86.9200
 0.9400	86.8800
 0.9440	86.6900
 0.9480	86.5800
 0.9520	86.2700
 0.9560	86.1400
 0.9600	85.9200
 0.9640	85.8600
 0.9680	85.8600
 0.9720	85.8300
 0.9760	85.9400
 0.9800	86.0400
 0.9840	86.1500
 0.9880	86.2900
 0.9920	86.4700
 0.9960	86.7000
 1.0000	86.7100
 1.0040	86.9400
 1.0080	86.9400
 1.0120	86.9400
 1.0160	87.0600
 1.0200	87.1200
 1.0240	87.2300
 1.0280	87.2900
 1.0320	87.2700
 1.0360	87.4600
 1.0400	87.4600
 1.0440	87.5900
 1.0480	87.6000
 1.0520	87.5500
 1.0560	87.5900
 1.0600	87.5800
 1.0640	87.6500
 1.0680	87.7200
 1.0720	87.6800
 1.0760	87.7100
 1.0800	87.5600
 1.0840	87.6400
 1.0880	87.6600
 1.0920	87.6200
 1.0960	87.5800
 1.1000	87.5300
 1.1040	87.5100
 1.1080	87.5200
 1.1120	87.6300
 1.1160	87.6700
 1.1200	87.5800
 1.1240	87.5100
 1.1280	87.4000
 1.1320	87.2000
 1.1360	86.8600
 1.1400	86.3600
 1.1440	85.8300
 1.1480	85.1200
 1.1520	84.6400
 1.1560	84.3400
 1.1600	84.3400
 1.1640	84.5100
 1.1680	84.7900
 1.1720	85.1200
 1.1760	85.3600
 1.1800	85.5100
 1.1840	85.6800
 1.1880	85.6200
 1.1920	85.7300
 1.1960	85.8000
 1.2000	85.9000
 1.2040	86.0300
 1.2080	86.0400
 1.2120	86.0900
 1.2160	86.2400
 1.2200	86.3000
 1.2240	86.3100
 1.2280	86.3900
 1.2320	86.4600
 1.2360	86.4700
 1.2400	86.5600
 1.2440	86.5800
 1.2480	86.5900
 1.2520	86.6100
 1.2560	86.6100
 1.2600	86.5500
 1.2640	86.6000
 1.2680	86.5600
 1.2720	86.6500
 1.2760	86.5400
 1.2800	86.5200
 1.2840	86.4600
 1.2880	86.4700
 1.2920	86.3600
 1.2960	86.1100
 1.3000	85.9800
 1.3040	85.8300
 1.3080	85.5900
 1.3120	85.2600
 1.3160	84.9600
 1.3200	84.7300
 1.3240	84.3300
 1.3280	84.0500
 1.3320	83.5800
 1.3360	83.3300
 1.3400	82.9300
 1.3440	82.5500
 1.3480	82.1200
 1.3520	81.7000
 1.3560	81.2800
 1.3600	80.9300
 1.3640	80.3100
 1.3680	79.8300
 1.3720	79.2600
 1.3760	78.4100
 1.3800	77.4400
 1.3840	76.2200
 1.3880	74.7600
 1.3920	73.0200
 1.3960	71.0200
 1.4000	68.7000
 1.4040	66.3300
 1.4080	64.4000
 1.4120	62.9500
 1.4160	62.1100
 1.4200	62.0400
 1.4240	62.2800
 1.4280	63.0500
 1.4320	63.9300
 1.4360	64.9700
 1.4400	66.0800
 1.4440	67.1000
 1.4480	67.9200
 1.4520	68.5400
 1.4560	68.7200
 1.4600	68.8300
 1.4640	69.0500
 1.4680	69.4800
 1.4720	70.2500
 1.4760	71.2100
 1.4800	72.0700
 1.4840	72.9700
 1.4880	73.7600
 1.4920	74.4000
 1.4960	75.0500
 1.5000	75.3800
 1.5040	75.9800
 1.5080	76.2600
 1.5120	76.6600
 1.5160	76.8500
 1.5200	77.1800
 1.5240	77.2800
 1.5280	77.5600
 1.5320	77.7100
 1.5360	77.8600
 1.5400	78.0300
 1.5440	78.1500
 1.5480	78.1600
 1.5520	78.2900
 1.5560	78.4000
 1.5600	78.4400
 1.5640	78.5700
 1.5680	78.6600
 1.5720	78.6300
 1.5760	78.6700
 1.5800	78.7200
 1.5840	78.8000
 1.5880	78.7100
 1.5920	78.7400
 1.5960	78.7900
 1.6000	78.9000
 1.6040	78.9400
 1.6080	79.0100
 1.6120	79.0600
 1.6160	79.0900
 1.6200	79.2000
 1.6240	79.3100
 1.6280	79.3700
 1.6320	79.3900
 1.6360	79.4400
 1.6400	79.4100
 1.6440	79.5700
 1.6480	79.5700
 1.6520	79.6800
 1.6560	79.6700
 1.6600	79.7500
 1.6640	79.9200
 1.6680	79.9400
 1.6720	79.9700
 1.6760	80.0900
 1.6800	80.0300
 1.6840	79.9700
 1.6880	79.9200
 1.6920	79.8300
 1.6960	79.7300
 1.7000	79.5900
 1.7040	79.4100
 1.7080	79.2200
 1.7120	79.0400
 1.7160	78.7700
 1.7200	78.5100
 1.7240	78.2400
 1.7280	77.8200
 1.7320	77.6500
 1.7360	77.3400
 1.7400	77.1800
 1.7440	76.9300
 1.7480	76.7100
 1.7520	76.6300
 1.7560	76.4400
 1.7600	76.3800
 1.7640	76.3100
 1.7680	76.2100
 1.7720	76.1900
 1.7760	76.0100
 1.7800	76.0300
 1.7840	75.9600
 1.7880	75.9900
 1.7920	75.8200
 1.7960	75.7600
 1.8000	75.7100
 1.8040	75.6200
 1.8080	75.5300
 1.8120	75.3800
 1.8160	75.1900
 1.8200	75.0000
 1.8240	74.8000
 1.8280	74.6300
 1.8320	74.3800
 1.8360	74.0800
 1.8400	73.6100
 1.8440	73.0800
 1.8480	72.4800
 1.8520	71.8400
 1.8560	71.1000
 1.8600	69.9800
 1.8640	68.6600
 1.8680	66.9000
 1.8720	64.8100
 1.8760	62.3900
 1.8800	59.5400
 1.8840	56.3100
 1.8880	52.5900
 1.8920	48.5000
 1.8960	44.4000
 1.9000	40.6900
 1.9040	37.6000
 1.9080	35.7100
 1.9120	34.6600
 1.9160	34.5700
 1.9200	35.2100
 1.9240	36.4000
 1.9280	37.9500
 1.9320	39.5800
 1.9360	41.0600
 1.9400	42.4400
 1.9440	43.7600
 1.9480	44.8400
 1.9520	45.9100
 1.9560	46.7700
 1.9600	47.4200
 1.9640	48.2500
 1.9680	49.0100
 1.9720	49.6800
 1.9760	50.4800
 1.9800	51.2300
 1.9840	52.0700
 1.9880	52.9800
 1.9920	53.8900
 1.9960	54.8700
 2.0000	55.7800
 2.0040	56.7000
 2.0080	57.5900
 2.0120	58.4800
 2.0160	59.3900
 2.0200	60.2400
 2.0240	61.0300
 2.0280	61.6500
 2.0320	62.3000
 2.0360	62.8400
 2.0400	63.3000
 2.0440	63.7600
 2.0480	64.1400
 2.0520	64.5600
 2.0560	64.8800
 2.0600	65.0900
 2.0640	65.3300
 2.0680	65.5100
 2.0720	65.7100
 2.0760	65.8700
 2.0800	66.1100
 2.0840	66.3200
 2.0880	66.4000
 2.0920	66.6000
 2.0960	66.8000
 2.1000	67.0100
 2.1040	67.2000
 2.1080	67.4600
 2.1120	67.6000
 2.1160	67.8500
 2.1200	68.0000
 2.1240	68.1000
 2.1280	68.1800
 2.1320	68.3500
 2.1360	68.4700
 2.1400	68.4500
 2.1440	68.5700
 2.1480	68.5700
 2.1520	68.5700
 2.1560	68.6400
 2.1600	68.6700
 2.1640	68.6600
 2.1680	68.6200
 2.1720	68.6400
 2.1760	68.6200
 2.1800	68.6300
 2.1840	68.6000
 2.1880	68.5600
 2.1920	68.5600
 2.1960	68.5300
 2.2000	68.5100
 2.2040	68.3700
 2.2080	68.3600
 2.2120	68.3300
 2.2160	68.2400
 2.2200	68.2600
 2.2240	68.1700
 2.2280	68.1600
 2.2320	68.0400
 2.2360	67.9700
 2.2400	67.8800
 2.2440	67.8400
 2.2480	67.6600
 2.2520	67.5200
 2.2560	67.3900
 2.2600	67.1600
 2.2640	67.0500
 2.2680	66.7900
 2.2720	66.6200
 2.2760	66.3700
 2.2800	66.0800
 2.2840	65.7900
 2.2880	65.5700
 2.2920	65.1700
 2.2960	64.7900
 2.3000	64.3700
 2.3040	64.1600
 2.3080	63.3000
 2.3120	62.8600
 2.3160	62.4500
 2.3200	61.8700
 2.3240	61.3500
 2.3280	60.8600
 2.3320	60.1500
 2.3360	59.4800
 2.3400	58.7500
 2.3440	58.0300
 2.3480	57.2000
 2.3520	56.3400
 2.3560	55.3500
 2.3600	54.3600
 2.3640	53.4400
 2.3680	52.4600
 2.3720	51.2800
 2.3760	50.2500
 2.3800	49.1700
 2.3840	48.0200
 2.3880	47.0100
 2.3920	45.9700
 2.3960	45.0400
 2.4000	44.1000
 2.4040	43.2200
 2.4080	42.4000
 2.4120	41.6100
 2.4160	40.9200
 2.4200	40.2600
 2.4240	39.6200
 2.4280	39.1100
 2.4320	38.5900
 2.4360	38.2000
 2.4400	37.7400
 2.4440	37.3400
 2.4480	36.9900
 2.4520	36.6100
 2.4560	36.3700
 2.4600	36.0500
 2.4640	35.6700
 2.4680	35.4500
 2.4720	35.1800
 2.4760	34.9100
 2.4800	34.6600
 2.4840	34.4800
 2.4880	34.1300
 2.4920	33.8800
 2.4960	33.5700
 2.5000	33.2400
