Name: Halite NaCl
Type: Mineral
Class: Halide
Subclass: None
Particle Size: Fine
Sample No.: H-3A
Owner: JPL
Wavelength Range: VSWIR
Origin: USA, Michigan, Wayne County, Detroit.
Collection Date: N/A
Description: Particle size was 0-45um.Collected by:  Ward's Original ASTER Spectral Library name was jpl.perkin.mineral.halide.none.fine.h03a.spectrum.txt
Measurement: Hemispherical reflectance
First Column: X
Second Column: Y
X Units: Wavelength (micrometers)
Y Units:Reflectance (percent)
First X Value:  2.5000
Last X Value:  0.4000
Number of X Values: 2101
Additional Information: mineral.halide.none.fine.vswir.h-3a.jpl.perkin.ancillary.txt

 2.5000	75.1577
 2.4990	74.8715
 2.4980	75.0061
 2.4970	74.9599
 2.4960	74.9338
 2.4950	75.2080
 2.4940	75.2393
 2.4930	75.1847
 2.4920	74.9763
 2.4910	75.3438
 2.4900	74.9877
 2.4890	75.1391
 2.4880	75.0939
 2.4870	75.2828
 2.4860	75.2588
 2.4850	75.2257
 2.4840	75.3476
 2.4830	75.4638
 2.4820	75.2530
 2.4810	75.5087
 2.4800	75.3059
 2.4790	75.3670
 2.4780	75.4805
 2.4770	75.4176
 2.4760	75.4420
 2.4750	75.4166
 2.4740	75.4469
 2.4730	75.6875
 2.4720	75.6325
 2.4710	75.6999
 2.4700	75.6114
 2.4690	75.5531
 2.4680	75.7314
 2.4670	75.9401
 2.4660	75.8183
 2.4650	75.8273
 2.4640	75.8329
 2.4630	75.8142
 2.4620	75.9163
 2.4610	75.8851
 2.4600	75.8781
 2.4590	75.9284
 2.4580	75.9312
 2.4570	76.0070
 2.4560	76.0210
 2.4550	75.8928
 2.4540	75.9787
 2.4530	75.9381
 2.4520	76.0208
 2.4510	76.1151
 2.4500	76.1348
 2.4490	76.0846
 2.4480	76.1630
 2.4470	76.2403
 2.4460	76.2412
 2.4450	76.2458
 2.4440	76.2642
 2.4430	76.2669
 2.4420	76.3396
 2.4410	76.4319
 2.4400	76.3754
 2.4390	76.4642
 2.4380	76.5434
 2.4370	76.4787
 2.4360	76.4865
 2.4350	76.5923
 2.4340	76.5357
 2.4330	76.4760
 2.4320	76.6328
 2.4310	76.6792
 2.4300	76.7145
 2.4290	76.7056
 2.4280	76.8585
 2.4270	76.7767
 2.4260	76.8760
 2.4250	76.9826
 2.4240	76.9574
 2.4230	77.0303
 2.4220	77.0930
 2.4210	77.0879
 2.4200	77.1004
 2.4190	77.0788
 2.4180	77.1622
 2.4170	77.2745
 2.4160	77.2936
 2.4150	77.3221
 2.4140	77.4280
 2.4130	77.5227
 2.4120	77.4957
 2.4110	77.4110
 2.4100	77.4840
 2.4090	77.5688
 2.4080	77.6120
 2.4070	77.6948
 2.4060	77.6895
 2.4050	77.6779
 2.4040	77.7589
 2.4030	77.8180
 2.4020	77.8251
 2.4010	77.9217
 2.4000	77.9018
 2.3990	77.9156
 2.3980	77.9616
 2.3970	78.0405
 2.3960	78.1036
 2.3950	78.1022
 2.3940	78.1019
 2.3930	78.1906
 2.3920	78.2123
 2.3910	78.2067
 2.3900	78.2863
 2.3890	78.3110
 2.3880	78.4145
 2.3870	78.4450
 2.3860	78.4606
 2.3850	78.5205
 2.3840	78.4904
 2.3830	78.5059
 2.3820	78.5618
 2.3810	78.5690
 2.3800	78.6257
 2.3790	78.6930
 2.3780	78.7568
 2.3770	78.7587
 2.3760	78.7946
 2.3750	78.8565
 2.3740	78.9386
 2.3730	78.9853
 2.3720	79.0004
 2.3710	78.9834
 2.3700	78.9834
 2.3690	79.0558
 2.3680	79.1227
 2.3670	79.1233
 2.3660	79.1005
 2.3650	79.1349
 2.3640	79.1603
 2.3630	79.1912
 2.3620	79.1834
 2.3610	79.1899
 2.3600	79.3231
 2.3590	79.3749
 2.3580	79.3643
 2.3570	79.3862
 2.3560	79.3893
 2.3550	79.4090
 2.3540	79.3562
 2.3530	79.4996
 2.3520	79.6071
 2.3510	79.5257
 2.3500	79.5780
 2.3490	79.6460
 2.3480	79.6204
 2.3470	79.6558
 2.3460	79.7040
 2.3450	79.6897
 2.3440	79.6700
 2.3430	79.6617
 2.3420	79.7152
 2.3410	79.7303
 2.3400	79.7350
 2.3390	79.7874
 2.3380	79.7922
 2.3370	79.8059
 2.3360	79.8015
 2.3350	79.8147
 2.3340	79.8803
 2.3330	79.8946
 2.3320	79.8312
 2.3310	79.8536
 2.3300	79.8387
 2.3290	79.9056
 2.3280	79.9233
 2.3270	79.8594
 2.3260	79.8324
 2.3250	79.8712
 2.3240	79.8641
 2.3230	79.9112
 2.3220	79.9252
 2.3210	79.9625
 2.3200	79.9151
 2.3190	79.8957
 2.3180	79.8672
 2.3170	79.8537
 2.3160	79.9019
 2.3150	79.9851
 2.3140	79.9435
 2.3130	79.9135
 2.3120	79.8966
 2.3110	79.8814
 2.3100	79.9802
 2.3090	79.9601
 2.3080	79.9005
 2.3070	79.9409
 2.3060	79.9543
 2.3050	79.9766
 2.3040	79.9211
 2.3030	79.9231
 2.3020	79.9207
 2.3010	79.9768
 2.3000	79.9487
 2.2990	79.9585
 2.2980	80.0023
 2.2970	80.0294
 2.2960	80.0365
 2.2950	80.0034
 2.2940	79.9776
 2.2930	79.9838
 2.2920	79.9641
 2.2910	79.9636
 2.2900	79.9193
 2.2890	80.0275
 2.2880	79.9437
 2.2870	79.9601
 2.2860	79.9325
 2.2850	79.9778
 2.2840	79.9287
 2.2830	79.9839
 2.2820	79.9481
 2.2810	80.0137
 2.2800	79.9877
 2.2790	79.9327
 2.2780	79.8965
 2.2770	79.9361
 2.2760	79.9034
 2.2750	79.9362
 2.2740	79.9688
 2.2730	79.9961
 2.2720	79.8930
 2.2710	79.9303
 2.2700	79.9077
 2.2690	79.9506
 2.2680	79.9081
 2.2670	79.8779
 2.2660	79.9569
 2.2650	79.9183
 2.2640	79.9775
 2.2630	79.9880
 2.2620	79.9973
 2.2610	79.8948
 2.2600	79.9331
 2.2590	80.0205
 2.2580	79.9547
 2.2570	79.9212
 2.2560	79.9419
 2.2550	79.9554
 2.2540	80.0073
 2.2530	79.9108
 2.2520	79.9847
 2.2510	79.9359
 2.2500	79.9595
 2.2490	80.0436
 2.2480	79.9465
 2.2470	80.0381
 2.2460	80.0130
 2.2450	80.0242
 2.2440	79.9439
 2.2430	79.9784
 2.2420	79.9933
 2.2410	79.9614
 2.2400	79.9678
 2.2390	79.9536
 2.2380	80.1125
 2.2370	79.9999
 2.2360	80.0225
 2.2350	79.9800
 2.2340	79.9677
 2.2330	80.1148
 2.2320	79.9844
 2.2310	79.9501
 2.2300	80.0320
 2.2290	80.1598
 2.2280	80.0414
 2.2270	80.0570
 2.2260	80.0898
 2.2250	80.0767
 2.2240	80.0954
 2.2230	80.1284
 2.2220	80.1328
 2.2210	80.1441
 2.2200	80.0483
 2.2190	80.1465
 2.2180	80.0816
 2.2170	80.2242
 2.2160	80.1579
 2.2150	80.1556
 2.2140	80.2061
 2.2130	80.2107
 2.2120	80.1883
 2.2110	80.3408
 2.2100	80.3504
 2.2090	80.3116
 2.2080	80.3168
 2.2070	80.3767
 2.2060	80.3412
 2.2050	80.4137
 2.2040	80.4518
 2.2030	80.4047
 2.2020	80.3602
 2.2010	80.4452
 2.2000	80.5678
 2.1990	80.5034
 2.1980	80.5146
 2.1970	80.5153
 2.1960	80.4540
 2.1950	80.5494
 2.1940	80.5419
 2.1930	80.5715
 2.1920	80.5005
 2.1910	80.5773
 2.1900	80.4945
 2.1890	80.5857
 2.1880	80.5218
 2.1870	80.5613
 2.1860	80.6382
 2.1850	80.5769
 2.1840	80.7136
 2.1830	80.6430
 2.1820	80.7008
 2.1810	80.6237
 2.1800	80.6340
 2.1790	80.7200
 2.1780	80.7592
 2.1770	80.7308
 2.1760	80.7226
 2.1750	80.7457
 2.1740	80.7427
 2.1730	80.7624
 2.1720	80.7730
 2.1710	80.8392
 2.1700	80.8214
 2.1690	80.8431
 2.1680	80.8857
 2.1670	80.8781
 2.1660	80.9646
 2.1650	80.9600
 2.1640	81.0179
 2.1630	81.0287
 2.1620	81.0337
 2.1610	81.1100
 2.1600	81.0041
 2.1590	81.1200
 2.1580	81.0728
 2.1570	81.0809
 2.1560	81.2011
 2.1550	81.1909
 2.1540	81.2043
 2.1530	81.0843
 2.1520	81.0848
 2.1510	81.1851
 2.1500	81.1837
 2.1490	81.1314
 2.1480	81.1892
 2.1470	81.1525
 2.1460	81.0978
 2.1450	81.1719
 2.1440	81.1109
 2.1430	81.1240
 2.1420	81.1270
 2.1410	81.1023
 2.1400	81.1456
 2.1390	81.1281
 2.1380	81.0479
 2.1370	81.0740
 2.1360	81.0844
 2.1350	81.0120
 2.1340	81.0013
 2.1330	80.9712
 2.1320	80.9028
 2.1310	80.8841
 2.1300	80.8388
 2.1290	80.8749
 2.1280	80.7531
 2.1270	80.7235
 2.1260	80.6659
 2.1250	80.6648
 2.1240	80.5664
 2.1230	80.4708
 2.1220	80.4101
 2.1210	80.3698
 2.1200	80.3136
 2.1190	80.3504
 2.1180	80.2109
 2.1170	80.1817
 2.1160	80.1354
 2.1150	80.0516
 2.1140	79.9580
 2.1130	79.9704
 2.1120	79.9998
 2.1110	79.8723
 2.1100	79.8154
 2.1090	79.7893
 2.1080	79.7019
 2.1070	79.6862
 2.1060	79.6922
 2.1050	79.5568
 2.1040	79.4760
 2.1030	79.4614
 2.1020	79.4339
 2.1010	79.3851
 2.1000	79.3049
 2.0990	79.3341
 2.0980	79.3161
 2.0970	79.2916
 2.0960	79.3185
 2.0950	79.3057
 2.0940	79.2872
 2.0930	79.2720
 2.0920	79.2520
 2.0910	79.2826
 2.0900	79.2652
 2.0890	79.2162
 2.0880	79.2311
 2.0870	79.2574
 2.0860	79.2619
 2.0850	79.2335
 2.0840	79.2230
 2.0830	79.2689
 2.0820	79.2538
 2.0810	79.2103
 2.0800	79.2135
 2.0790	79.2304
 2.0780	79.2562
 2.0770	79.2971
 2.0760	79.2595
 2.0750	79.1868
 2.0740	79.1614
 2.0730	79.1805
 2.0720	79.2050
 2.0710	79.1914
 2.0700	79.1932
 2.0690	79.1737
 2.0680	79.1652
 2.0670	79.1839
 2.0660	79.1630
 2.0650	79.1457
 2.0640	79.1616
 2.0630	79.1569
 2.0620	79.1545
 2.0610	79.1090
 2.0600	79.1139
 2.0590	79.1165
 2.0580	79.0945
 2.0570	79.1074
 2.0560	79.0956
 2.0550	79.0702
 2.0540	79.0850
 2.0530	79.0452
 2.0520	78.9805
 2.0510	78.9560
 2.0500	78.9696
 2.0490	78.9699
 2.0480	78.9702
 2.0470	78.9383
 2.0460	78.9093
 2.0450	78.8897
 2.0440	78.8471
 2.0430	78.8546
 2.0420	78.8799
 2.0410	78.8080
 2.0400	78.7048
 2.0390	78.6586
 2.0380	78.6984
 2.0370	78.6334
 2.0360	78.6123
 2.0350	78.5725
 2.0340	78.4832
 2.0330	78.4224
 2.0320	78.4118
 2.0310	78.4232
 2.0300	78.3848
 2.0290	78.3062
 2.0280	78.2593
 2.0270	78.1906
 2.0260	78.1952
 2.0250	78.1940
 2.0240	78.0945
 2.0230	78.0001
 2.0220	77.9401
 2.0210	77.8631
 2.0200	77.8319
 2.0190	77.8243
 2.0180	77.7315
 2.0170	77.6887
 2.0160	77.6127
 2.0150	77.4744
 2.0140	77.4950
 2.0130	77.4352
 2.0120	77.3241
 2.0110	77.3312
 2.0100	77.2363
 2.0090	77.1145
 2.0080	77.0661
 2.0070	77.0471
 2.0060	76.9799
 2.0050	76.8786
 2.0040	76.8335
 2.0030	76.7156
 2.0020	76.6448
 2.0010	76.5287
 2.0000	76.5186
 1.9990	76.3941
 1.9980	76.2873
 1.9970	76.0962
 1.9960	76.0136
 1.9950	75.9315
 1.9940	75.8406
 1.9930	75.6928
 1.9920	75.7853
 1.9910	75.5942
 1.9900	75.4584
 1.9890	75.4407
 1.9880	75.4218
 1.9870	75.2592
 1.9860	75.1242
 1.9850	75.1288
 1.9840	75.0304
 1.9830	74.9451
 1.9820	74.9215
 1.9810	74.8805
 1.9800	74.9471
 1.9790	74.7896
 1.9780	74.8638
 1.9770	74.8406
 1.9760	74.8176
 1.9750	74.7809
 1.9740	74.7966
 1.9730	74.7164
 1.9720	74.7795
 1.9710	74.8185
 1.9700	74.7467
 1.9690	74.7290
 1.9680	74.7438
 1.9670	74.7939
 1.9660	74.7087
 1.9650	74.7345
 1.9640	74.8278
 1.9630	74.7003
 1.9620	74.7702
 1.9610	74.7284
 1.9600	74.7646
 1.9590	74.7520
 1.9580	74.7320
 1.9570	74.7162
 1.9560	74.7304
 1.9550	74.7651
 1.9540	74.7713
 1.9530	74.7668
 1.9520	74.8301
 1.9510	74.8017
 1.9500	74.8304
 1.9490	74.8959
 1.9480	74.9119
 1.9470	74.8666
 1.9460	74.8876
 1.9450	74.8708
 1.9440	75.0196
 1.9430	74.9452
 1.9420	75.0355
 1.9410	75.0140
 1.9400	75.1494
 1.9390	75.1780
 1.9380	75.1444
 1.9370	75.1348
 1.9360	75.2206
 1.9350	75.1450
 1.9340	75.3161
 1.9330	75.3078
 1.9320	75.4809
 1.9310	75.4012
 1.9300	75.5587
 1.9290	75.5671
 1.9280	75.5082
 1.9270	75.7198
 1.9260	75.7492
 1.9250	75.8381
 1.9240	75.8800
 1.9230	75.9855
 1.9220	76.0538
 1.9210	76.1097
 1.9200	76.2344
 1.9190	76.3743
 1.9180	76.4403
 1.9170	76.5480
 1.9160	76.6324
 1.9150	76.7907
 1.9140	76.9449
 1.9130	76.9659
 1.9120	77.1300
 1.9110	77.2706
 1.9100	77.4401
 1.9090	77.5435
 1.9080	77.7034
 1.9070	77.8194
 1.9060	77.9942
 1.9050	78.0829
 1.9040	78.2459
 1.9030	78.4045
 1.9020	78.5494
 1.9010	78.6372
 1.9000	78.7429
 1.8990	78.8535
 1.8980	79.0843
 1.8970	79.1142
 1.8960	79.2584
 1.8950	79.3559
 1.8940	79.5072
 1.8930	79.5627
 1.8920	79.7392
 1.8910	79.7326
 1.8900	79.8238
 1.8890	79.9226
 1.8880	79.9380
 1.8870	80.1038
 1.8860	80.1501
 1.8850	80.2019
 1.8840	80.2924
 1.8830	80.3292
 1.8820	80.3795
 1.8810	80.4376
 1.8800	80.4822
 1.8790	80.4242
 1.8780	80.5533
 1.8770	80.5848
 1.8760	80.5638
 1.8750	80.6054
 1.8740	80.7029
 1.8730	80.6149
 1.8720	80.6658
 1.8710	80.7114
 1.8700	80.7462
 1.8690	80.7293
 1.8680	80.7039
 1.8670	80.6796
 1.8660	80.7658
 1.8650	80.9040
 1.8640	80.8942
 1.8630	80.8120
 1.8620	80.8758
 1.8610	80.9154
 1.8600	80.8914
 1.8590	80.9603
 1.8580	80.9067
 1.8570	80.8848
 1.8560	80.9371
 1.8550	80.9306
 1.8540	80.9331
 1.8530	80.9586
 1.8520	80.9751
 1.8510	80.9924
 1.8500	80.9766
 1.8490	80.9374
 1.8480	80.9470
 1.8470	80.9341
 1.8460	80.9487
 1.8450	80.9753
 1.8440	80.9800
 1.8430	81.0591
 1.8420	81.0032
 1.8410	80.9573
 1.8400	80.9117
 1.8390	80.9284
 1.8380	80.9162
 1.8370	80.9006
 1.8360	80.8811
 1.8350	80.9503
 1.8340	80.8880
 1.8330	80.8976
 1.8320	80.9409
 1.8310	80.9498
 1.8300	80.9072
 1.8290	80.8592
 1.8280	80.8851
 1.8270	80.9020
 1.8260	80.9160
 1.8250	80.9202
 1.8240	80.9349
 1.8230	80.8964
 1.8220	80.9387
 1.8210	80.9583
 1.8200	80.8672
 1.8190	80.8504
 1.8180	80.8876
 1.8170	80.9155
 1.8160	80.9419
 1.8150	80.9488
 1.8140	80.9274
 1.8130	80.8852
 1.8120	80.8586
 1.8110	80.8920
 1.8100	80.8989
 1.8090	80.8867
 1.8080	80.9251
 1.8070	80.9179
 1.8060	80.9246
 1.8050	80.9576
 1.8040	80.9518
 1.8030	80.9270
 1.8020	80.9119
 1.8010	80.9472
 1.8000	80.9618
 1.7990	80.8936
 1.7980	80.9034
 1.7970	80.9505
 1.7960	80.9762
 1.7950	80.9432
 1.7940	80.8948
 1.7930	80.9083
 1.7920	80.8877
 1.7910	80.8898
 1.7900	80.9204
 1.7890	80.9225
 1.7880	80.8758
 1.7870	80.8694
 1.7860	80.9141
 1.7850	80.8722
 1.7840	80.8503
 1.7830	80.8540
 1.7820	80.8345
 1.7810	80.8490
 1.7800	80.8020
 1.7790	80.7701
 1.7780	80.7838
 1.7770	80.8442
 1.7760	80.8631
 1.7750	80.8233
 1.7740	80.8279
 1.7730	80.7858
 1.7720	80.7928
 1.7710	80.8075
 1.7700	80.7880
 1.7690	80.7462
 1.7680	80.7802
 1.7670	80.8355
 1.7660	80.7800
 1.7650	80.7895
 1.7640	80.8138
 1.7630	80.7844
 1.7620	80.8257
 1.7610	80.8062
 1.7600	80.7926
 1.7590	80.7380
 1.7580	80.7620
 1.7570	80.7800
 1.7560	80.8120
 1.7550	80.8098
 1.7540	80.8021
 1.7530	80.8246
 1.7520	80.7792
 1.7510	80.7980
 1.7500	80.8142
 1.7490	80.7969
 1.7480	80.8660
 1.7470	80.8754
 1.7460	80.8750
 1.7450	80.8851
 1.7440	80.8606
 1.7430	80.8513
 1.7420	80.8683
 1.7410	80.9096
 1.7400	80.8727
 1.7390	80.8846
 1.7380	80.8948
 1.7370	80.8730
 1.7360	80.8530
 1.7350	80.8951
 1.7340	80.8853
 1.7330	80.8643
 1.7320	80.9251
 1.7310	80.9925
 1.7300	80.9395
 1.7290	80.9534
 1.7280	80.9562
 1.7270	80.9607
 1.7260	80.9465
 1.7250	80.9076
 1.7240	80.9522
 1.7230	80.9632
 1.7220	80.8967
 1.7210	80.9088
 1.7200	80.9230
 1.7190	80.9667
 1.7180	80.9972
 1.7170	80.9207
 1.7160	80.9577
 1.7150	80.9366
 1.7140	80.8924
 1.7130	80.9223
 1.7120	80.9367
 1.7110	80.9340
 1.7100	80.9161
 1.7090	80.9788
 1.7080	80.9120
 1.7070	80.8894
 1.7060	80.8847
 1.7050	80.9731
 1.7040	80.8913
 1.7030	80.8674
 1.7020	80.9123
 1.7010	80.8758
 1.7000	80.8703
 1.6990	80.8217
 1.6980	80.8269
 1.6970	80.7780
 1.6960	80.7868
 1.6950	80.8770
 1.6940	80.8911
 1.6930	80.9246
 1.6920	80.8251
 1.6910	80.7797
 1.6900	80.8009
 1.6890	80.8958
 1.6880	80.8427
 1.6870	80.9345
 1.6860	80.7806
 1.6850	80.8358
 1.6840	80.7738
 1.6830	80.8555
 1.6820	80.7648
 1.6810	80.8426
 1.6800	80.8920
 1.6790	80.8221
 1.6780	80.7835
 1.6770	80.8154
 1.6760	80.7702
 1.6750	80.7757
 1.6740	80.7282
 1.6730	80.8294
 1.6720	80.7496
 1.6710	80.7696
 1.6700	80.7641
 1.6690	80.7543
 1.6680	80.7674
 1.6670	80.7670
 1.6660	80.7667
 1.6650	80.7797
 1.6640	80.7768
 1.6630	80.7511
 1.6620	80.7099
 1.6610	80.7805
 1.6600	80.7964
 1.6590	80.7263
 1.6580	80.7403
 1.6570	80.7198
 1.6560	80.8034
 1.6550	80.6612
 1.6540	80.7625
 1.6530	80.7629
 1.6520	80.6523
 1.6510	80.6676
 1.6500	80.7333
 1.6490	80.7281
 1.6480	80.7274
 1.6470	80.7443
 1.6460	80.6422
 1.6450	80.7320
 1.6440	80.6112
 1.6430	80.6435
 1.6420	80.6368
 1.6410	80.7009
 1.6400	80.6028
 1.6390	80.6519
 1.6380	80.6651
 1.6370	80.7032
 1.6360	80.5903
 1.6350	80.5462
 1.6340	80.6233
 1.6330	80.6670
 1.6320	80.6142
 1.6310	80.6117
 1.6300	80.5536
 1.6290	80.6406
 1.6280	80.5132
 1.6270	80.5204
 1.6260	80.6001
 1.6250	80.6348
 1.6240	80.5539
 1.6230	80.6812
 1.6220	80.5926
 1.6210	80.6285
 1.6200	80.5528
 1.6190	80.6005
 1.6180	80.5211
 1.6170	80.5369
 1.6160	80.5225
 1.6150	80.6015
 1.6140	80.5143
 1.6130	80.5545
 1.6120	80.5509
 1.6110	80.5828
 1.6100	80.5844
 1.6090	80.5130
 1.6080	80.4651
 1.6070	80.6073
 1.6060	80.5264
 1.6050	80.4574
 1.6040	80.5093
 1.6030	80.5375
 1.6020	80.5031
 1.6010	80.5093
 1.6000	80.4774
 1.5990	80.5433
 1.5980	80.4903
 1.5970	80.5397
 1.5960	80.5056
 1.5950	80.4657
 1.5940	80.5051
 1.5930	80.5195
 1.5920	80.5092
 1.5910	80.4887
 1.5900	80.4215
 1.5890	80.4355
 1.5880	80.4100
 1.5870	80.4529
 1.5860	80.3502
 1.5850	80.3315
 1.5840	80.4176
 1.5830	80.4137
 1.5820	80.3522
 1.5810	80.3657
 1.5800	80.4282
 1.5790	80.3937
 1.5780	80.3329
 1.5770	80.2617
 1.5760	80.2814
 1.5750	80.2871
 1.5740	80.3242
 1.5730	80.2930
 1.5720	80.2695
 1.5710	80.2817
 1.5700	80.2554
 1.5690	80.2659
 1.5680	80.2512
 1.5670	80.2295
 1.5660	80.1936
 1.5650	80.2473
 1.5640	80.2782
 1.5630	80.2574
 1.5620	80.1642
 1.5610	80.2177
 1.5600	80.2033
 1.5590	80.1426
 1.5580	80.1212
 1.5570	80.1667
 1.5560	80.1615
 1.5550	80.1560
 1.5540	80.1002
 1.5530	80.1029
 1.5520	80.1438
 1.5510	80.0859
 1.5500	80.0886
 1.5490	80.0721
 1.5480	80.0515
 1.5470	80.1115
 1.5460	80.0532
 1.5450	80.0206
 1.5440	80.0215
 1.5430	80.0017
 1.5420	80.0267
 1.5410	80.0389
 1.5400	79.9698
 1.5390	79.9199
 1.5380	79.9268
 1.5370	79.9540
 1.5360	79.9279
 1.5350	79.9195
 1.5340	79.8739
 1.5330	79.8766
 1.5320	79.8580
 1.5310	79.8448
 1.5300	79.8327
 1.5290	79.8318
 1.5280	79.8109
 1.5270	79.8358
 1.5260	79.8244
 1.5250	79.8007
 1.5240	79.7778
 1.5230	79.7300
 1.5220	79.6912
 1.5210	79.7006
 1.5200	79.6446
 1.5190	79.6989
 1.5180	79.7156
 1.5170	79.6826
 1.5160	79.6598
 1.5150	79.6311
 1.5140	79.5977
 1.5130	79.6131
 1.5120	79.5959
 1.5110	79.6115
 1.5100	79.6082
 1.5090	79.5870
 1.5080	79.5714
 1.5070	79.4998
 1.5060	79.5132
 1.5050	79.5424
 1.5040	79.5048
 1.5030	79.4833
 1.5020	79.4299
 1.5010	79.4334
 1.5000	79.4805
 1.4990	79.4446
 1.4980	79.3973
 1.4970	79.3730
 1.4960	79.3251
 1.4950	79.3058
 1.4940	79.3296
 1.4930	79.2965
 1.4920	79.2489
 1.4910	79.2416
 1.4900	79.2403
 1.4890	79.2581
 1.4880	79.1715
 1.4870	79.0926
 1.4860	79.1191
 1.4850	79.1525
 1.4840	79.1285
 1.4830	79.1208
 1.4820	79.0816
 1.4810	79.0088
 1.4800	79.0525
 1.4790	79.0716
 1.4780	79.0328
 1.4770	78.9899
 1.4760	79.0361
 1.4750	79.0046
 1.4740	78.8914
 1.4730	78.8537
 1.4720	78.8860
 1.4710	78.9112
 1.4700	78.8717
 1.4690	78.8572
 1.4680	78.8600
 1.4670	78.8404
 1.4660	78.8334
 1.4650	78.7877
 1.4640	78.7764
 1.4630	78.7789
 1.4620	78.7821
 1.4610	78.7354
 1.4600	78.7583
 1.4590	78.7372
 1.4580	78.7469
 1.4570	78.7100
 1.4560	78.6900
 1.4550	78.7371
 1.4540	78.7248
 1.4530	78.7003
 1.4520	78.6975
 1.4510	78.7588
 1.4500	78.8212
 1.4490	78.7673
 1.4480	78.7686
 1.4470	78.8384
 1.4460	78.8488
 1.4450	78.8126
 1.4440	78.7851
 1.4430	78.8160
 1.4420	78.8854
 1.4410	78.8839
 1.4400	78.8491
 1.4390	78.8458
 1.4380	78.8908
 1.4370	78.9075
 1.4360	78.9376
 1.4350	78.8951
 1.4340	78.9114
 1.4330	78.9213
 1.4320	78.9721
 1.4310	78.9555
 1.4300	79.0525
 1.4290	79.0161
 1.4280	79.0347
 1.4270	79.0465
 1.4260	79.0996
 1.4250	79.0733
 1.4240	79.0971
 1.4230	79.0936
 1.4220	79.1621
 1.4210	79.1857
 1.4200	79.2044
 1.4190	79.2277
 1.4180	79.2377
 1.4170	79.2443
 1.4160	79.2920
 1.4150	79.3293
 1.4140	79.3534
 1.4130	79.2962
 1.4120	79.3541
 1.4110	79.4174
 1.4100	79.4009
 1.4090	79.4058
 1.4080	79.4764
 1.4070	79.5009
 1.4060	79.5072
 1.4050	79.5630
 1.4040	79.6054
 1.4030	79.6411
 1.4020	79.5938
 1.4010	79.6113
 1.4000	79.6166
 1.3990	79.5647
 1.3980	79.7150
 1.3970	79.7161
 1.3960	79.8318
 1.3950	79.6914
 1.3940	79.7571
 1.3930	79.6904
 1.3920	79.8298
 1.3910	79.8766
 1.3900	79.9069
 1.3890	79.8599
 1.3880	79.8926
 1.3870	79.9071
 1.3860	79.8695
 1.3850	79.8063
 1.3840	79.9537
 1.3830	79.8746
 1.3820	79.8761
 1.3810	79.7683
 1.3800	79.8530
 1.3790	79.8269
 1.3780	79.9362
 1.3770	79.8954
 1.3760	79.7751
 1.3750	79.8437
 1.3740	79.8774
 1.3730	79.8476
 1.3720	79.8979
 1.3710	79.8244
 1.3700	79.8474
 1.3690	79.8337
 1.3680	79.8518
 1.3670	79.8809
 1.3660	79.8312
 1.3650	79.8737
 1.3640	79.8560
 1.3630	79.8967
 1.3620	79.8248
 1.3610	79.7504
 1.3600	79.8638
 1.3590	79.8270
 1.3580	79.8647
 1.3570	79.8690
 1.3560	79.8158
 1.3550	79.7539
 1.3540	79.8222
 1.3530	79.7691
 1.3520	79.7599
 1.3510	79.8096
 1.3500	79.8547
 1.3490	79.8408
 1.3480	79.8654
 1.3470	79.7584
 1.3460	79.7276
 1.3450	79.8150
 1.3440	79.7937
 1.3430	79.8730
 1.3420	79.7204
 1.3410	79.8169
 1.3400	79.8173
 1.3390	79.7977
 1.3380	79.7791
 1.3370	79.7375
 1.3360	79.7498
 1.3350	79.7412
 1.3340	79.8097
 1.3330	79.7826
 1.3320	79.7877
 1.3310	79.7996
 1.3300	79.8399
 1.3290	79.7514
 1.3280	79.7332
 1.3270	79.7380
 1.3260	79.7296
 1.3250	79.6930
 1.3240	79.7261
 1.3230	79.7721
 1.3220	79.7009
 1.3210	79.6870
 1.3200	79.7418
 1.3190	79.7383
 1.3180	79.7606
 1.3170	79.7259
 1.3160	79.7026
 1.3150	79.7277
 1.3140	79.7194
 1.3130	79.6566
 1.3120	79.6795
 1.3110	79.7110
 1.3100	79.7239
 1.3090	79.6975
 1.3080	79.6408
 1.3070	79.6582
 1.3060	79.7100
 1.3050	79.7649
 1.3040	79.6965
 1.3030	79.6633
 1.3020	79.6965
 1.3010	79.6542
 1.3000	79.6716
 1.2990	79.6320
 1.2980	79.6365
 1.2970	79.6633
 1.2960	79.6113
 1.2950	79.6009
 1.2940	79.6340
 1.2930	79.5672
 1.2920	79.6578
 1.2910	79.5848
 1.2900	79.5581
 1.2890	79.5926
 1.2880	79.6013
 1.2870	79.5990
 1.2860	79.6225
 1.2850	79.6004
 1.2840	79.5794
 1.2830	79.5581
 1.2820	79.5554
 1.2810	79.5175
 1.2800	79.5332
 1.2790	79.5807
 1.2780	79.5363
 1.2770	79.5287
 1.2760	79.5383
 1.2750	79.5204
 1.2740	79.4812
 1.2730	79.5470
 1.2720	79.5111
 1.2710	79.5135
 1.2700	79.5461
 1.2690	79.5250
 1.2680	79.5268
 1.2670	79.5064
 1.2660	79.4423
 1.2650	79.4576
 1.2640	79.5099
 1.2630	79.4706
 1.2620	79.4682
 1.2610	79.4307
 1.2600	79.4257
 1.2590	79.4245
 1.2580	79.4757
 1.2570	79.4212
 1.2560	79.4486
 1.2550	79.4859
 1.2540	79.4435
 1.2530	79.4471
 1.2520	79.4147
 1.2510	79.3985
 1.2500	79.4198
 1.2490	79.4116
 1.2480	79.4144
 1.2470	79.3874
 1.2460	79.3698
 1.2450	79.3541
 1.2440	79.4039
 1.2430	79.3430
 1.2420	79.3459
 1.2410	79.4367
 1.2400	79.3900
 1.2390	79.3743
 1.2380	79.4019
 1.2370	79.3626
 1.2360	79.3038
 1.2350	79.2694
 1.2340	79.3349
 1.2330	79.3018
 1.2320	79.2486
 1.2310	79.2529
 1.2300	79.3086
 1.2290	79.2962
 1.2280	79.2637
 1.2270	79.2645
 1.2260	79.2625
 1.2250	79.2497
 1.2240	79.2750
 1.2230	79.2893
 1.2220	79.2382
 1.2210	79.2133
 1.2200	79.2554
 1.2190	79.2450
 1.2180	79.2244
 1.2170	79.2377
 1.2160	79.2154
 1.2150	79.2052
 1.2140	79.2042
 1.2130	79.1646
 1.2120	79.2044
 1.2110	79.2060
 1.2100	79.1476
 1.2090	79.1537
 1.2080	79.1753
 1.2070	79.1542
 1.2060	79.1456
 1.2050	79.1591
 1.2040	79.1732
 1.2030	79.1757
 1.2020	79.1486
 1.2010	79.1399
 1.2000	79.1406
 1.1990	79.1166
 1.1980	79.0922
 1.1970	79.1261
 1.1960	79.1521
 1.1950	79.1615
 1.1940	79.1267
 1.1930	79.1223
 1.1920	79.1404
 1.1910	79.1149
 1.1900	79.1195
 1.1890	79.1304
 1.1880	79.0834
 1.1870	79.1297
 1.1860	79.1133
 1.1850	79.1173
 1.1840	79.1256
 1.1830	79.0581
 1.1820	79.0173
 1.1810	79.0758
 1.1800	79.0262
 1.1790	79.0709
 1.1780	79.0620
 1.1770	79.0573
 1.1760	79.0619
 1.1750	79.0979
 1.1740	79.0464
 1.1730	79.0281
 1.1720	79.0648
 1.1710	79.0936
 1.1700	79.0921
 1.1690	79.0735
 1.1680	79.0442
 1.1670	79.0717
 1.1660	79.0360
 1.1650	78.9904
 1.1640	79.0014
 1.1630	78.9951
 1.1620	79.0216
 1.1610	79.0706
 1.1600	79.0084
 1.1590	78.9395
 1.1580	79.0655
 1.1570	79.0623
 1.1560	79.0262
 1.1550	79.0019
 1.1540	78.9483
 1.1530	78.9967
 1.1520	78.9931
 1.1510	78.9879
 1.1500	78.9168
 1.1490	78.9961
 1.1480	78.9718
 1.1470	78.9494
 1.1460	79.0142
 1.1450	78.9813
 1.1440	78.8936
 1.1430	78.9353
 1.1420	78.9087
 1.1410	78.9554
 1.1400	78.9672
 1.1390	79.0031
 1.1380	78.8944
 1.1370	78.9126
 1.1360	78.9147
 1.1350	78.9743
 1.1340	78.8757
 1.1330	78.8777
 1.1320	78.8840
 1.1310	78.8861
 1.1300	78.8560
 1.1290	78.8678
 1.1280	78.8845
 1.1270	78.8609
 1.1260	78.8427
 1.1250	78.8522
 1.1240	78.8583
 1.1230	78.9667
 1.1220	78.8585
 1.1210	78.9108
 1.1200	78.8871
 1.1190	78.9038
 1.1180	78.8626
 1.1170	78.8812
 1.1160	78.8422
 1.1150	78.8687
 1.1140	78.7837
 1.1130	78.8141
 1.1120	78.8029
 1.1110	78.8213
 1.1100	78.8310
 1.1090	78.7931
 1.1080	78.7690
 1.1070	78.8336
 1.1060	78.7674
 1.1050	78.8579
 1.1040	78.8122
 1.1030	78.8118
 1.1020	78.7559
 1.1010	78.7683
 1.1000	78.7992
 1.0990	78.8156
 1.0980	78.7769
 1.0970	78.7965
 1.0960	78.6986
 1.0950	78.7388
 1.0940	78.7172
 1.0930	78.7559
 1.0920	78.8046
 1.0910	78.7580
 1.0900	78.6975
 1.0890	78.6571
 1.0880	78.7180
 1.0870	78.6889
 1.0860	78.7719
 1.0850	78.7403
 1.0840	78.6859
 1.0830	78.6620
 1.0820	78.6115
 1.0810	78.6508
 1.0800	78.6508
 1.0790	78.6491
 1.0780	78.6539
 1.0770	78.7541
 1.0760	78.5997
 1.0750	78.6131
 1.0740	78.6494
 1.0730	78.6696
 1.0720	78.6777
 1.0710	78.6597
 1.0700	78.4865
 1.0690	78.6174
 1.0680	78.6615
 1.0670	78.6518
 1.0660	78.6399
 1.0650	78.5404
 1.0640	78.5602
 1.0630	78.5428
 1.0620	78.5660
 1.0610	78.5922
 1.0600	78.5278
 1.0590	78.6058
 1.0580	78.5442
 1.0570	78.6476
 1.0560	78.5582
 1.0550	78.5148
 1.0540	78.4836
 1.0530	78.5621
 1.0520	78.3951
 1.0510	78.4094
 1.0500	78.5118
 1.0490	78.4892
 1.0480	78.5357
 1.0470	78.5101
 1.0460	78.4522
 1.0450	78.4073
 1.0440	78.4042
 1.0430	78.4747
 1.0420	78.3844
 1.0410	78.5003
 1.0400	78.4133
 1.0390	78.4462
 1.0380	78.4565
 1.0370	78.4428
 1.0360	78.3847
 1.0350	78.3870
 1.0340	78.3636
 1.0330	78.3572
 1.0320	78.3771
 1.0310	78.4095
 1.0300	78.3834
 1.0290	78.4691
 1.0280	78.3901
 1.0270	78.2944
 1.0260	78.3533
 1.0250	78.3258
 1.0240	78.3375
 1.0230	78.3627
 1.0220	78.2610
 1.0210	78.2453
 1.0200	78.3664
 1.0190	78.3717
 1.0180	78.3007
 1.0170	78.2933
 1.0160	78.3354
 1.0150	78.2886
 1.0140	78.2780
 1.0130	78.3009
 1.0120	78.2085
 1.0110	78.2380
 1.0100	78.2370
 1.0090	78.2067
 1.0080	78.2525
 1.0070	78.2573
 1.0060	78.3078
 1.0050	78.2315
 1.0040	78.2020
 1.0030	78.1991
 1.0020	78.1943
 1.0010	78.2410
 1.0000	78.1689
 0.9990	78.1580
 0.9980	78.1192
 0.9970	78.1799
 0.9960	78.1580
 0.9950	78.1518
 0.9940	78.0813
 0.9930	78.1606
 0.9920	78.1168
 0.9910	78.1261
 0.9900	78.0494
 0.9890	78.0368
 0.9880	78.0551
 0.9870	78.0933
 0.9860	78.0666
 0.9850	78.0235
 0.9840	77.9884
 0.9830	78.0468
 0.9820	78.0343
 0.9810	77.9918
 0.9800	77.9824
 0.9790	78.0230
 0.9780	78.0261
 0.9770	77.9929
 0.9760	77.9499
 0.9750	78.0163
 0.9740	77.9867
 0.9730	77.9460
 0.9720	77.9474
 0.9710	77.8905
 0.9700	77.8967
 0.9690	77.9194
 0.9680	77.8938
 0.9670	77.9271
 0.9660	77.9212
 0.9650	77.8869
 0.9640	77.8586
 0.9630	77.8854
 0.9620	77.8752
 0.9610	77.8639
 0.9600	77.8445
 0.9590	77.8626
 0.9580	77.7951
 0.9570	77.8355
 0.9560	77.8518
 0.9550	77.8136
 0.9540	77.7668
 0.9530	77.7431
 0.9520	77.7691
 0.9510	77.7631
 0.9500	77.7337
 0.9490	77.7133
 0.9480	77.7483
 0.9470	77.7319
 0.9460	77.6312
 0.9450	77.6585
 0.9440	77.7009
 0.9430	77.7079
 0.9420	77.7497
 0.9410	77.6998
 0.9400	77.6134
 0.9390	77.5873
 0.9380	77.5978
 0.9370	77.5967
 0.9360	77.5978
 0.9350	77.6087
 0.9340	77.5700
 0.9330	77.5141
 0.9320	77.5472
 0.9310	77.5610
 0.9300	77.5714
 0.9290	77.5794
 0.9280	77.5733
 0.9270	77.5831
 0.9260	77.5210
 0.9250	77.4396
 0.9240	77.4521
 0.9230	77.4989
 0.9220	77.5045
 0.9210	77.4858
 0.9200	77.4769
 0.9190	77.4390
 0.9180	77.4270
 0.9170	77.3936
 0.9160	77.3635
 0.9150	77.3477
 0.9140	77.3506
 0.9130	77.3320
 0.9120	77.3159
 0.9110	77.3437
 0.9100	77.3922
 0.9090	77.3013
 0.9080	77.3144
 0.9070	77.3309
 0.9060	77.2751
 0.9050	77.2812
 0.9040	77.2654
 0.9030	77.1938
 0.9020	77.2503
 0.9010	77.3037
 0.9000	77.2978
 0.8990	77.2278
 0.8980	77.2021
 0.8970	77.1848
 0.8960	77.2157
 0.8950	77.1847
 0.8940	77.1833
 0.8930	77.1702
 0.8920	77.1133
 0.8910	77.0978
 0.8900	77.1732
 0.8890	77.1099
 0.8880	77.0641
 0.8870	77.0614
 0.8860	77.0291
 0.8850	77.0607
 0.8840	77.0887
 0.8830	77.0689
 0.8820	77.0669
 0.8810	76.9938
 0.8800	76.9873
 0.8790	76.9964
 0.8780	77.0146
 0.8770	76.9775
 0.8760	77.0155
 0.8750	76.9567
 0.8740	76.9016
 0.8730	76.9280
 0.8720	76.9774
 0.8710	76.9608
 0.8700	77.0295
 0.8690	77.0085
 0.8680	77.0685
 0.8670	77.0222
 0.8660	76.9755
 0.8650	76.9904
 0.8640	77.0046
 0.8630	76.9872
 0.8620	77.0113
 0.8610	76.9732
 0.8600	76.8943
 0.8590	76.7680
 0.8580	76.8408
 0.8570	76.9058
 0.8560	76.8095
 0.8550	76.8247
 0.8540	76.8581
 0.8530	76.7323
 0.8520	76.7650
 0.8510	76.8996
 0.8500	76.8302
 0.8490	76.7695
 0.8480	76.8014
 0.8470	76.8403
 0.8460	76.8052
 0.8450	76.8235
 0.8440	76.8285
 0.8430	76.7931
 0.8420	76.7781
 0.8410	76.8366
 0.8400	76.7636
 0.8390	76.7440
 0.8380	76.7758
 0.8370	76.8226
 0.8360	76.7820
 0.8350	76.8168
 0.8340	76.8593
 0.8330	76.7697
 0.8320	76.7720
 0.8310	76.8700
 0.8300	76.8551
 0.8290	76.7504
 0.8280	76.8095
 0.8270	76.7771
 0.8260	76.7946
 0.8250	76.8450
 0.8240	76.8139
 0.8230	76.8387
 0.8220	76.8276
 0.8210	76.8414
 0.8200	76.7852
 0.8190	76.8469
 0.8180	76.8287
 0.8170	76.8197
 0.8160	76.8658
 0.8150	76.8562
 0.8140	76.7756
 0.8130	76.7762
 0.8120	76.8444
 0.8110	76.8885
 0.8100	76.8781
 0.8090	76.8409
 0.8080	76.8015
 0.8070	76.8632
 0.8060	76.8105
 0.8050	76.8466
 0.8040	76.8100
 0.8030	76.8284
 0.8020	76.8862
 0.8010	76.8397
 0.8000	76.8942
 0.7990	76.9046
 0.7980	76.8304
 0.7970	76.8300
 0.7960	76.8371
 0.7950	76.8034
 0.7940	76.7763
 0.7930	76.8070
 0.7920	76.8260
 0.7910	76.8218
 0.7900	76.8066
 0.7890	76.7571
 0.7880	76.7808
 0.7870	76.8202
 0.7860	76.7867
 0.7850	76.7960
 0.7840	76.8532
 0.7830	76.7862
 0.7820	76.8379
 0.7810	76.8759
 0.7800	76.8724
 0.7790	76.8560
 0.7780	76.8470
 0.7770	76.8331
 0.7760	76.8040
 0.7750	76.8030
 0.7740	76.8074
 0.7730	76.7803
 0.7720	76.7461
 0.7710	76.8094
 0.7700	76.8034
 0.7690	76.7922
 0.7680	76.8131
 0.7670	76.8243
 0.7660	76.8211
 0.7650	76.8645
 0.7640	76.8273
 0.7630	76.8283
 0.7620	76.8306
 0.7610	76.8076
 0.7600	76.8134
 0.7590	76.8044
 0.7580	76.8378
 0.7570	76.8344
 0.7560	76.8577
 0.7550	76.8329
 0.7540	76.8635
 0.7530	76.8698
 0.7520	76.8963
 0.7510	76.8844
 0.7500	76.8616
 0.7490	76.8688
 0.7480	76.8509
 0.7470	76.8438
 0.7460	76.8846
 0.7450	76.8711
 0.7440	76.8511
 0.7430	76.8631
 0.7420	76.8657
 0.7410	76.8538
 0.7400	76.8808
 0.7390	76.8784
 0.7380	76.8989
 0.7370	76.8959
 0.7360	76.8638
 0.7350	76.8761
 0.7340	76.8889
 0.7330	76.9046
 0.7320	76.8847
 0.7310	76.8972
 0.7300	76.9004
 0.7290	76.8928
 0.7280	76.8799
 0.7270	76.8804
 0.7260	76.8695
 0.7250	76.8809
 0.7240	76.8794
 0.7230	76.8805
 0.7220	76.8818
 0.7210	76.8986
 0.7200	76.8860
 0.7190	76.8956
 0.7180	76.9064
 0.7170	76.8864
 0.7160	76.8700
 0.7150	76.8782
 0.7140	76.8847
 0.7130	76.8757
 0.7120	76.8856
 0.7110	76.8780
 0.7100	76.8712
 0.7090	76.8952
 0.7080	76.8829
 0.7070	76.8773
 0.7060	76.8828
 0.7050	76.8966
 0.7040	76.8763
 0.7030	76.8936
 0.7020	76.8856
 0.7010	76.8742
 0.7000	76.8859
 0.6990	76.8784
 0.6980	76.8838
 0.6970	76.8703
 0.6960	76.8637
 0.6950	76.8789
 0.6940	76.8843
 0.6930	76.8963
 0.6920	76.8762
 0.6910	76.8909
 0.6900	76.8869
 0.6890	76.8844
 0.6880	76.8774
 0.6870	76.8714
 0.6860	76.8403
 0.6850	76.8564
 0.6840	76.8676
 0.6830	76.8691
 0.6820	76.8613
 0.6810	76.8793
 0.6800	76.8676
 0.6790	76.8663
 0.6780	76.8490
 0.6770	76.8461
 0.6760	76.8488
 0.6750	76.8393
 0.6740	76.8531
 0.6730	76.8615
 0.6720	76.8572
 0.6710	76.8457
 0.6700	76.8358
 0.6690	76.8513
 0.6680	76.8618
 0.6670	76.8653
 0.6660	76.8573
 0.6650	76.8333
 0.6640	76.8361
 0.6630	76.8273
 0.6620	76.8157
 0.6610	76.8217
 0.6600	76.8290
 0.6590	76.8456
 0.6580	76.8591
 0.6570	76.8387
 0.6560	76.8210
 0.6550	76.8297
 0.6540	76.8315
 0.6530	76.8302
 0.6520	76.8377
 0.6510	76.8223
 0.6500	76.8097
 0.6490	76.8182
 0.6480	76.8159
 0.6470	76.8035
 0.6460	76.7958
 0.6450	76.7954
 0.6440	76.7960
 0.6430	76.8014
 0.6420	76.7905
 0.6410	76.7873
 0.6400	76.7985
 0.6390	76.7976
 0.6380	76.7980
 0.6370	76.7958
 0.6360	76.7816
 0.6350	76.7752
 0.6340	76.7701
 0.6330	76.7693
 0.6320	76.7705
 0.6310	76.7549
 0.6300	76.7415
 0.6290	76.7458
 0.6280	76.7510
 0.6270	76.7549
 0.6260	76.7407
 0.6250	76.7373
 0.6240	76.7381
 0.6230	76.7312
 0.6220	76.7404
 0.6210	76.7429
 0.6200	76.7197
 0.6190	76.7052
 0.6180	76.7077
 0.6170	76.7050
 0.6160	76.6979
 0.6150	76.6954
 0.6140	76.6907
 0.6130	76.6840
 0.6120	76.6763
 0.6110	76.6766
 0.6100	76.6688
 0.6090	76.6599
 0.6080	76.6577
 0.6070	76.6580
 0.6060	76.6532
 0.6050	76.6500
 0.6040	76.6363
 0.6030	76.6365
 0.6020	76.6282
 0.6010	76.6026
 0.6000	76.6056
 0.5990	76.6166
 0.5980	76.6277
 0.5970	76.6420
 0.5960	76.6481
 0.5950	76.6524
 0.5940	76.6434
 0.5930	76.6371
 0.5920	76.6292
 0.5910	76.6285
 0.5900	76.6157
 0.5890	76.5938
 0.5880	76.5801
 0.5870	76.5762
 0.5860	76.5614
 0.5850	76.5399
 0.5840	76.5312
 0.5830	76.5180
 0.5820	76.5041
 0.5810	76.5002
 0.5800	76.4841
 0.5790	76.4797
 0.5780	76.4601
 0.5770	76.4459
 0.5760	76.4234
 0.5750	76.4078
 0.5740	76.3836
 0.5730	76.3679
 0.5720	76.3619
 0.5710	76.3439
 0.5700	76.3217
 0.5690	76.3114
 0.5680	76.3137
 0.5670	76.2877
 0.5660	76.2675
 0.5650	76.2458
 0.5640	76.2281
 0.5630	76.2093
 0.5620	76.2028
 0.5610	76.1382
 0.5600	76.1001
 0.5590	76.0763
 0.5580	76.0718
 0.5570	76.0698
 0.5560	76.0420
 0.5550	76.0012
 0.5540	75.9892
 0.5530	75.9709
 0.5520	75.9604
 0.5510	75.9392
 0.5500	75.9046
 0.5490	75.8753
 0.5480	75.8659
 0.5470	75.8297
 0.5460	75.8202
 0.5450	75.7917
 0.5440	75.7761
 0.5430	75.7504
 0.5420	75.7377
 0.5410	75.7233
 0.5400	75.7063
 0.5390	75.6942
 0.5380	75.6726
 0.5370	75.6532
 0.5360	75.6361
 0.5350	75.6184
 0.5340	75.5956
 0.5330	75.5739
 0.5320	75.5546
 0.5310	75.5433
 0.5300	75.5336
 0.5290	75.5047
 0.5280	75.4807
 0.5270	75.4810
 0.5260	75.4801
 0.5250	75.4628
 0.5240	75.4374
 0.5230	75.4224
 0.5220	75.3960
 0.5210	75.3812
 0.5200	75.3570
 0.5190	75.3422
 0.5180	75.3422
 0.5170	75.3146
 0.5160	75.2966
 0.5150	75.2720
 0.5140	75.2490
 0.5130	75.2446
 0.5120	75.2183
 0.5110	75.2204
 0.5100	75.1698
 0.5090	75.1538
 0.5080	75.1287
 0.5070	75.1112
 0.5060	75.0666
 0.5050	75.0500
 0.5040	75.0117
 0.5030	74.9960
 0.5020	74.9743
 0.5010	74.9434
 0.5000	74.9076
 0.4990	74.8818
 0.4980	74.8788
 0.4970	74.8229
 0.4960	74.7843
 0.4950	74.7589
 0.4940	74.7444
 0.4930	74.6720
 0.4920	74.6594
 0.4910	74.6157
 0.4900	74.5901
 0.4890	74.5477
 0.4880	74.4935
 0.4870	74.4606
 0.4860	74.4298
 0.4850	74.4050
 0.4840	74.3509
 0.4830	74.3338
 0.4820	74.3245
 0.4810	74.3037
 0.4800	74.3043
 0.4790	74.2989
 0.4780	74.2834
 0.4770	74.2663
 0.4760	74.2757
 0.4750	74.2365
 0.4740	74.2158
 0.4730	74.1957
 0.4720	74.1989
 0.4710	74.1406
 0.4700	74.1326
 0.4690	74.1007
 0.4680	74.1065
 0.4670	74.0799
 0.4660	74.0578
 0.4650	74.0131
 0.4640	74.0213
 0.4630	73.9836
 0.4620	73.9362
 0.4610	73.9226
 0.4600	73.8780
 0.4590	73.8647
 0.4580	73.8365
 0.4570	73.7908
 0.4560	73.7821
 0.4550	73.7376
 0.4540	73.6900
 0.4530	73.6547
 0.4520	73.6350
 0.4510	73.6040
 0.4500	73.5671
 0.4490	73.5151
 0.4480	73.4655
 0.4470	73.4315
 0.4460	73.3922
 0.4450	73.3655
 0.4440	73.3129
 0.4430	73.2730
 0.4420	73.2474
 0.4410	73.2052
 0.4400	73.1790
 0.4390	73.1297
 0.4380	73.0770
 0.4370	73.0367
 0.4360	73.0009
 0.4350	72.9503
 0.4340	72.9270
 0.4330	72.8811
 0.4320	72.8298
 0.4310	72.8063
 0.4300	72.7353
 0.4290	72.7103
 0.4280	72.6648
 0.4270	72.6202
 0.4260	72.5608
 0.4250	72.5266
 0.4240	72.4899
 0.4230	72.4291
 0.4220	72.3822
 0.4210	72.3302
 0.4200	72.3096
 0.4190	72.2397
 0.4180	72.1922
 0.4170	72.1240
 0.4160	72.1055
 0.4150	72.0521
 0.4140	71.9946
 0.4130	71.9511
 0.4120	71.8998
 0.4110	71.8603
 0.4100	71.7812
 0.4090	71.7269
 0.4080	71.6953
 0.4070	71.6234
 0.4060	71.5638
 0.4050	71.5144
 0.4040	71.4920
 0.4030	71.4090
 0.4020	71.3530
 0.4010	71.2849
 0.4000	71.2230
