Name: Magnesite MgCO_3
Type: Mineral
Class: Carbonate
Subclass: None
Particle Size: Medium
Sample No.: C-6A
Owner: JPL
Wavelength Range: VSWIR
Origin: USA, California, Riverside County
Collection Date: N/A
Description: Particle size was 45-125um.Collected by Ward's Original ASTER Spectral Library name was jpl.beckman.mineral.carbonate.none.medium.c06a.spectrum.txt
Measurement: Hemispherical reflectance
First Column: X
Second Column: Y
X Units: Wavelength (micrometers)
Y Units:Reflectance (percent)
First X Value:  0.4000
Last X Value:  2.5000
Number of X Values: 826
Additional Information: mineral.carbonate.none.medium.vswir.c-6a.jpl.beckman.ancillary.txt

 0.4000	68.5200
 0.4010	68.6400
 0.4020	69.0900
 0.4030	69.2100
 0.4040	69.3800
 0.4050	69.3200
 0.4060	69.2600
 0.4070	69.4900
 0.4080	69.7200
 0.4090	70.0100
 0.4100	70.0700
 0.4110	70.0100
 0.4120	70.0700
 0.4130	70.1800
 0.4140	70.5200
 0.4150	70.5200
 0.4160	70.5800
 0.4170	70.6400
 0.4180	70.8100
 0.4190	71.2100
 0.4200	71.2100
 0.4210	71.1500
 0.4220	71.2100
 0.4230	71.3800
 0.4240	71.8400
 0.4250	71.7800
 0.4260	71.8400
 0.4270	71.7800
 0.4280	71.7800
 0.4290	72.1200
 0.4300	72.3500
 0.4310	72.4700
 0.4320	72.5300
 0.4330	72.5300
 0.4340	72.7600
 0.4350	72.9300
 0.4360	73.2700
 0.4370	73.2700
 0.4380	73.2100
 0.4390	73.4400
 0.4400	73.6100
 0.4410	74.0700
 0.4420	74.0700
 0.4430	74.1900
 0.4440	74.0700
 0.4450	74.2400
 0.4460	74.5800
 0.4470	74.6400
 0.4480	74.7500
 0.4490	74.8100
 0.4500	74.8100
 0.4510	74.9300
 0.4520	75.2100
 0.4530	75.4000
 0.4540	75.4000
 0.4550	75.2800
 0.4560	75.4500
 0.4570	75.6200
 0.4580	76.0300
 0.4590	75.9700
 0.4600	75.9700
 0.4610	76.2000
 0.4620	76.3200
 0.4630	76.7200
 0.4640	76.6600
 0.4650	76.6100
 0.4660	76.7200
 0.4670	76.8400
 0.4680	77.2500
 0.4690	77.1900
 0.4700	77.2500
 0.4710	77.1300
 0.4720	77.4200
 0.4730	77.7100
 0.4740	77.8800
 0.4750	77.8800
 0.4760	77.6500
 0.4770	77.9400
 0.4780	78.2400
 0.4790	78.2400
 0.4800	78.2400
 0.4810	78.1200
 0.4820	78.3500
 0.4830	78.6400
 0.4840	78.8200
 0.4850	78.9300
 0.4860	78.8200
 0.4870	78.9300
 0.4880	79.1700
 0.4890	79.2900
 0.4900	79.4500
 0.4910	79.3400
 0.4920	79.4500
 0.4930	79.6300
 0.4940	79.9200
 0.4950	80.0300
 0.4960	79.9200
 0.4970	79.8600
 0.4980	80.1600
 0.4990	80.3800
 0.5000	80.6700
 0.5010	80.6100
 0.5020	80.5000
 0.5030	80.7300
 0.5040	81.0100
 0.5050	81.3000
 0.5060	81.2400
 0.5070	81.1300
 0.5080	81.3600
 0.5090	81.5300
 0.5100	81.9400
 0.5110	81.9400
 0.5120	81.8800
 0.5130	81.8200
 0.5140	82.1000
 0.5150	82.4400
 0.5160	82.5000
 0.5170	82.4400
 0.5180	82.5000
 0.5190	82.7300
 0.5200	83.0800
 0.5210	82.9100
 0.5220	82.8500
 0.5230	82.8500
 0.5240	83.0800
 0.5250	83.3700
 0.5260	83.2500
 0.5270	83.1400
 0.5280	83.2500
 0.5290	83.4200
 0.5300	83.7000
 0.5310	83.6500
 0.5320	83.5400
 0.5330	83.6000
 0.5340	83.7000
 0.5350	83.9300
 0.5360	84.0500
 0.5370	83.9900
 0.5380	83.8700
 0.5390	84.1600
 0.5400	84.4500
 0.5410	84.3400
 0.5420	84.1600
 0.5430	83.9900
 0.5440	84.2200
 0.5450	84.5100
 0.5460	84.5700
 0.5470	84.5700
 0.5480	84.4500
 0.5490	84.6800
 0.5500	85.0300
 0.5510	85.0300
 0.5520	85.0300
 0.5530	84.8500
 0.5540	84.8500
 0.5550	85.2000
 0.5560	85.2000
 0.5570	85.2000
 0.5580	85.0800
 0.5590	85.1400
 0.5600	85.3100
 0.5610	85.4200
 0.5620	85.7700
 0.5630	85.7700
 0.5640	85.6500
 0.5650	85.5300
 0.5660	85.6500
 0.5670	85.8800
 0.5680	85.8800
 0.5690	85.7100
 0.5700	85.4800
 0.5710	85.5900
 0.5720	85.8200
 0.5730	86.0000
 0.5740	85.7700
 0.5750	85.5300
 0.5760	85.6500
 0.5770	85.8800
 0.5780	86.0500
 0.5790	85.8800
 0.5800	85.7100
 0.5810	85.6500
 0.5820	85.9400
 0.5830	86.0500
 0.5840	86.0000
 0.5850	85.8200
 0.5860	85.7100
 0.5870	86.0500
 0.5880	86.3400
 0.5890	86.1100
 0.5900	86.0500
 0.5910	86.0000
 0.5920	86.2300
 0.5930	86.4000
 0.5940	86.3400
 0.5950	86.0500
 0.5960	86.0500
 0.5970	86.0500
 0.5980	86.4000
 0.5990	86.5100
 0.6000	86.2800
 0.6010	86.2300
 0.6020	86.3400
 0.6030	86.5700
 0.6040	86.7400
 0.6050	86.5100
 0.6060	86.4600
 0.6070	86.4000
 0.6080	86.6300
 0.6090	86.9200
 0.6100	86.6900
 0.6110	86.4600
 0.6120	86.5100
 0.6130	86.6300
 0.6140	86.8000
 0.6150	86.7400
 0.6160	86.5100
 0.6170	86.4600
 0.6180	86.4600
 0.6190	86.7400
 0.6200	86.5700
 0.6210	86.6300
 0.6220	86.5700
 0.6230	86.7400
 0.6240	86.9200
 0.6250	86.8600
 0.6260	86.7400
 0.6270	86.6300
 0.6280	86.7400
 0.6290	86.9700
 0.6300	86.8000
 0.6310	86.8000
 0.6320	86.5700
 0.6330	86.5700
 0.6340	86.9200
 0.6350	86.9700
 0.6360	86.7400
 0.6370	86.6300
 0.6380	86.6900
 0.6390	86.9700
 0.6400	86.9700
 0.6410	86.7400
 0.6420	86.5700
 0.6430	86.6900
 0.6440	86.9200
 0.6450	86.9700
 0.6460	86.9200
 0.6470	86.6900
 0.6480	86.6300
 0.6490	86.9200
 0.6500	86.9700
 0.6510	87.0200
 0.6520	86.7400
 0.6530	86.8000
 0.6540	87.0200
 0.6550	87.0800
 0.6560	86.9700
 0.6570	86.6900
 0.6580	86.5700
 0.6590	86.8000
 0.6600	86.9700
 0.6610	86.9700
 0.6620	86.8000
 0.6630	86.6900
 0.6640	86.9700
 0.6650	87.0800
 0.6660	87.0800
 0.6670	86.8600
 0.6680	86.8000
 0.6690	87.0200
 0.6700	87.2000
 0.6710	87.2000
 0.6720	86.9700
 0.6730	86.8000
 0.6740	86.8600
 0.6750	87.1400
 0.6760	87.2000
 0.6770	86.9700
 0.6780	86.9200
 0.6790	87.0200
 0.6800	87.2500
 0.6810	87.3100
 0.6820	87.0200
 0.6830	86.9700
 0.6840	86.9700
 0.6850	87.2000
 0.6860	87.4800
 0.6870	87.2500
 0.6880	86.9700
 0.6890	86.9700
 0.6900	87.1400
 0.6910	87.3100
 0.6920	87.3100
 0.6930	87.1400
 0.6940	87.0200
 0.6950	87.2000
 0.6960	87.4800
 0.6970	87.3700
 0.6980	87.2000
 0.6990	87.2500
 0.7000	87.1400
 0.7010	87.2000
 0.7020	86.9200
 0.7030	87.1400
 0.7040	87.2500
 0.7050	87.2500
 0.7060	87.2000
 0.7070	87.0800
 0.7080	87.2000
 0.7090	87.5400
 0.7100	87.4300
 0.7110	87.4300
 0.7120	87.2000
 0.7130	87.4300
 0.7140	87.7100
 0.7150	87.6000
 0.7160	87.5400
 0.7170	87.4300
 0.7180	87.4800
 0.7190	87.6600
 0.7200	87.7100
 0.7210	87.4300
 0.7220	87.2500
 0.7230	87.3700
 0.7240	87.6000
 0.7250	87.6000
 0.7260	87.4800
 0.7270	87.3100
 0.7280	87.4300
 0.7290	87.6600
 0.7300	87.6600
 0.7310	87.4800
 0.7320	87.3700
 0.7330	87.3700
 0.7340	87.6600
 0.7350	87.7100
 0.7360	87.6600
 0.7370	87.3700
 0.7380	87.4800
 0.7390	87.4300
 0.7400	87.6000
 0.7410	87.7700
 0.7420	87.6000
 0.7430	87.5400
 0.7440	87.3700
 0.7450	87.6000
 0.7460	87.7700
 0.7470	87.7100
 0.7480	87.6000
 0.7490	87.4800
 0.7500	87.6600
 0.7510	87.7700
 0.7520	87.7700
 0.7530	87.6000
 0.7540	87.5400
 0.7550	87.6600
 0.7560	87.8900
 0.7570	88.0000
 0.7580	87.7100
 0.7590	87.5400
 0.7600	87.5400
 0.7610	87.7100
 0.7620	87.8900
 0.7630	87.8900
 0.7640	87.7100
 0.7650	87.7100
 0.7660	87.7700
 0.7670	88.0000
 0.7680	87.9400
 0.7690	87.8300
 0.7700	87.8300
 0.7710	87.8900
 0.7720	88.0600
 0.7730	88.1200
 0.7740	87.9400
 0.7750	87.8900
 0.7760	87.8300
 0.7770	88.1200
 0.7780	88.1700
 0.7790	88.0600
 0.7800	88.0000
 0.7810	87.9400
 0.7820	88.2300
 0.7830	88.2300
 0.7840	88.1700
 0.7850	88.0600
 0.7860	88.0000
 0.7870	88.2300
 0.7880	88.3500
 0.7890	88.2300
 0.7900	88.1200
 0.7910	88.0600
 0.7920	88.3500
 0.7930	88.4600
 0.7940	88.3500
 0.7950	88.2900
 0.7960	88.2300
 0.7970	88.4600
 0.7980	88.6800
 0.7990	88.5800
 0.8000	88.6200
 0.8040	88.8000
 0.8080	88.5200
 0.8120	88.4600
 0.8160	88.7400
 0.8200	88.7400
 0.8240	88.8000
 0.8280	88.7400
 0.8320	88.9100
 0.8360	88.8000
 0.8400	88.7400
 0.8440	88.8000
 0.8480	88.8600
 0.8520	88.9100
 0.8560	88.8600
 0.8600	89.0300
 0.8640	88.7400
 0.8680	88.8000
 0.8720	88.8600
 0.8760	88.7400
 0.8800	88.7400
 0.8840	88.7400
 0.8880	88.8600
 0.8920	88.6800
 0.8960	88.7400
 0.9000	88.7400
 0.9040	88.7400
 0.9080	88.5800
 0.9120	88.5200
 0.9160	88.7400
 0.9200	88.5200
 0.9240	88.5200
 0.9280	88.4600
 0.9320	88.5800
 0.9360	88.2300
 0.9400	88.4600
 0.9440	88.2900
 0.9480	88.2300
 0.9520	88.1200
 0.9560	88.0000
 0.9600	88.1700
 0.9640	88.0000
 0.9680	88.0000
 0.9720	87.9400
 0.9760	87.9400
 0.9800	87.9400
 0.9840	87.7700
 0.9880	87.8900
 0.9920	87.7700
 0.9960	87.7700
 1.0000	87.7100
 1.0040	87.7100
 1.0080	87.7100
 1.0120	87.6000
 1.0160	87.7700
 1.0200	87.6600
 1.0240	87.7100
 1.0280	87.6600
 1.0320	87.6600
 1.0360	87.6600
 1.0400	87.8300
 1.0440	87.6600
 1.0480	87.7100
 1.0520	87.7700
 1.0560	87.6600
 1.0600	87.7700
 1.0640	87.6000
 1.0680	87.8900
 1.0720	87.7700
 1.0760	87.7700
 1.0800	87.7700
 1.0840	87.8900
 1.0880	87.8300
 1.0920	87.8300
 1.0960	87.8300
 1.1000	87.8300
 1.1040	87.8300
 1.1080	87.7700
 1.1120	87.8900
 1.1160	87.7700
 1.1200	87.8900
 1.1240	87.7700
 1.1280	87.8900
 1.1320	87.6000
 1.1360	87.4800
 1.1400	87.4800
 1.1440	87.4300
 1.1480	87.3700
 1.1520	87.2500
 1.1560	87.3600
 1.1600	87.2400
 1.1640	87.1800
 1.1680	87.1700
 1.1720	87.1700
 1.1760	87.1000
 1.1800	87.1500
 1.1840	87.1400
 1.1880	87.0700
 1.1920	87.1800
 1.1960	87.1200
 1.2000	87.1700
 1.2040	86.9400
 1.2080	86.9400
 1.2120	86.8900
 1.2160	87.0000
 1.2200	86.9400
 1.2240	86.8900
 1.2280	86.8300
 1.2320	86.7100
 1.2360	86.7700
 1.2400	86.7100
 1.2440	86.8300
 1.2480	86.6500
 1.2520	86.7100
 1.2560	86.7600
 1.2600	86.7500
 1.2640	86.7400
 1.2680	86.6700
 1.2720	86.7900
 1.2760	86.6700
 1.2800	86.7200
 1.2840	86.7100
 1.2880	86.7600
 1.2920	86.5800
 1.2960	86.5200
 1.3000	86.6200
 1.3040	86.5000
 1.3080	86.3200
 1.3120	86.2100
 1.3160	86.4300
 1.3200	86.1300
 1.3240	85.9500
 1.3280	85.9400
 1.3320	86.0000
 1.3360	85.7700
 1.3400	85.6400
 1.3440	85.7500
 1.3480	85.4500
 1.3520	85.5600
 1.3560	85.3400
 1.3600	85.2800
 1.3640	84.9400
 1.3680	84.7700
 1.3720	84.0300
 1.3760	82.7700
 1.3800	81.4000
 1.3840	81.0500
 1.3880	81.2800
 1.3920	81.1700
 1.3960	80.8300
 1.4000	79.9700
 1.4040	79.5300
 1.4080	78.7900
 1.4120	78.4400
 1.4160	78.0000
 1.4200	77.8300
 1.4240	77.5600
 1.4280	77.4500
 1.4320	77.4500
 1.4360	77.4600
 1.4400	77.5200
 1.4440	77.5900
 1.4480	77.5300
 1.4520	77.5300
 1.4560	77.3700
 1.4600	77.2600
 1.4640	77.1400
 1.4680	77.3100
 1.4720	77.2000
 1.4760	77.2600
 1.4800	77.2000
 1.4840	77.2000
 1.4880	77.1400
 1.4920	77.2600
 1.4960	77.2600
 1.5000	77.1400
 1.5040	77.1400
 1.5080	77.3100
 1.5120	77.2600
 1.5160	77.2000
 1.5200	77.3100
 1.5240	77.2600
 1.5280	77.2600
 1.5320	77.2000
 1.5360	77.4900
 1.5400	77.3700
 1.5440	77.3100
 1.5480	77.3100
 1.5520	77.5300
 1.5560	77.5900
 1.5600	77.7100
 1.5640	77.6500
 1.5680	77.6500
 1.5720	77.6500
 1.5760	77.7100
 1.5800	77.9400
 1.5840	77.7600
 1.5880	77.7600
 1.5920	77.7600
 1.5960	77.8200
 1.6000	77.7600
 1.6040	77.8700
 1.6080	77.7500
 1.6120	77.7500
 1.6160	77.6300
 1.6200	77.6200
 1.6240	77.6100
 1.6280	77.6700
 1.6320	77.7200
 1.6360	77.6600
 1.6400	77.6500
 1.6440	77.6400
 1.6480	77.5200
 1.6520	77.8000
 1.6560	77.6300
 1.6600	77.6700
 1.6640	77.6600
 1.6680	77.6500
 1.6720	77.6500
 1.6760	77.6500
 1.6800	77.5900
 1.6840	77.5800
 1.6880	77.5700
 1.6920	77.5100
 1.6960	77.5100
 1.7000	77.4400
 1.7040	77.5600
 1.7080	77.5600
 1.7120	77.3800
 1.7160	77.4400
 1.7200	77.3300
 1.7240	77.5000
 1.7280	77.2700
 1.7320	77.3800
 1.7360	77.3800
 1.7400	77.3300
 1.7440	77.2100
 1.7480	77.2700
 1.7520	77.2700
 1.7560	77.2700
 1.7600	77.1500
 1.7640	77.0400
 1.7680	77.1500
 1.7720	77.1000
 1.7760	77.0400
 1.7800	76.8600
 1.7840	77.0400
 1.7880	76.9200
 1.7920	76.8600
 1.7960	76.8100
 1.8000	76.8100
 1.8040	76.7900
 1.8080	76.6500
 1.8120	76.6800
 1.8160	76.5400
 1.8200	76.4000
 1.8240	76.2600
 1.8280	76.3600
 1.8320	76.1000
 1.8360	76.0200
 1.8400	75.8300
 1.8440	75.6800
 1.8480	75.4300
 1.8520	75.3700
 1.8560	75.1300
 1.8600	74.6600
 1.8640	74.0400
 1.8680	73.3500
 1.8720	72.3800
 1.8760	71.1200
 1.8800	69.8700
 1.8840	68.4500
 1.8880	66.9600
 1.8920	65.3200
 1.8960	64.0000
 1.9000	62.5800
 1.9040	61.6600
 1.9080	60.9800
 1.9120	60.6300
 1.9160	60.5200
 1.9200	60.3500
 1.9240	60.2200
 1.9280	60.2700
 1.9320	60.3800
 1.9360	60.3300
 1.9400	60.2600
 1.9440	60.2600
 1.9480	60.1900
 1.9520	60.1900
 1.9560	60.0500
 1.9600	59.8100
 1.9640	59.9200
 1.9680	59.8400
 1.9720	59.7700
 1.9760	59.8100
 1.9800	59.6900
 1.9840	59.8400
 1.9880	59.8200
 1.9920	60.0400
 1.9960	60.0200
 2.0000	60.1700
 2.0040	60.1800
 2.0080	60.4200
 2.0120	60.3800
 2.0160	60.5800
 2.0200	60.7200
 2.0240	60.9000
 2.0280	60.8500
 2.0320	60.9900
 2.0360	61.2900
 2.0400	61.3300
 2.0440	61.5000
 2.0480	61.3900
 2.0520	61.6900
 2.0560	61.8300
 2.0600	62.0900
 2.0640	62.2300
 2.0680	62.4300
 2.0720	62.5700
 2.0760	62.6600
 2.0800	62.9600
 2.0840	62.9900
 2.0880	63.3100
 2.0920	63.5000
 2.0960	63.8100
 2.1000	63.8400
 2.1040	64.0900
 2.1080	64.1700
 2.1120	64.4300
 2.1160	64.6800
 2.1200	64.9900
 2.1240	65.1000
 2.1280	65.2700
 2.1320	65.5700
 2.1360	65.9100
 2.1400	66.1300
 2.1440	66.4400
 2.1480	66.6300
 2.1520	66.7900
 2.1560	66.8400
 2.1600	67.1200
 2.1640	67.0300
 2.1680	67.1100
 2.1720	67.3100
 2.1760	67.2300
 2.1800	67.2000
 2.1840	67.1900
 2.1880	67.2500
 2.1920	67.0800
 2.1960	66.9100
 2.2000	66.8000
 2.2040	66.7400
 2.2080	66.2300
 2.2120	66.0200
 2.2160	65.7700
 2.2200	65.4000
 2.2240	64.8900
 2.2280	64.5600
 2.2320	64.1500
 2.2360	63.5000
 2.2400	62.9700
 2.2440	62.4100
 2.2480	62.1900
 2.2520	61.6700
 2.2560	61.2500
 2.2600	60.8200
 2.2640	60.4300
 2.2680	60.0900
 2.2720	59.6900
 2.2760	59.3800
 2.2800	58.8500
 2.2840	58.6000
 2.2880	58.3100
 2.2920	57.9900
 2.2960	57.9900
 2.3000	58.1200
 2.3040	58.2000
 2.3080	58.5700
 2.3120	59.2700
 2.3160	59.5800
 2.3200	59.9500
 2.3240	60.4000
 2.3280	60.7500
 2.3320	61.0300
 2.3360	61.0900
 2.3400	61.2100
 2.3440	60.8400
 2.3480	60.8200
 2.3520	60.4100
 2.3560	60.1000
 2.3600	59.4700
 2.3640	58.8900
 2.3680	58.4800
 2.3720	57.9100
 2.3760	57.3000
 2.3800	56.7400
 2.3840	56.2700
 2.3880	55.6400
 2.3920	55.2500
 2.3960	54.7500
 2.4000	54.3000
 2.4040	53.7400
 2.4080	53.1800
 2.4120	52.7900
 2.4160	51.9600
 2.4200	51.4600
 2.4240	50.8400
 2.4280	50.2200
 2.4320	49.5600
 2.4360	48.9500
 2.4400	48.3900
 2.4440	47.7800
 2.4480	47.1600
 2.4520	46.6100
 2.4560	46.2100
 2.4600	45.4400
 2.4640	45.1000
 2.4680	44.7100
 2.4720	44.3700
 2.4760	43.9200
 2.4800	43.8100
 2.4840	43.6900
 2.4880	43.5800
 2.4920	43.4700
 2.4960	43.4600
 2.5000	43.6200
