Name: Amblygonite (Li,Na)Al(PO_4)(F,OH)
Type: Mineral
Class: Phosphate
Subclass: None
Particle Size: Fine
Sample No.: P-3A
Owner: JPL
Wavelength Range: VSWIR
Origin: USA, California, San Diego County, Pala.
Collection Date: N/A
Description: Particle size was 0-45um. Collected by:  Burminco Original ASTER Spectral Library name was jpl.perkin.mineral.phosphate.none.fine.p03a.spectrum.txt
Measurement: Hemispherical reflectance
First Column: X
Second Column: Y
X Units: Wavelength (micrometers)
Y Units:Reflectance (percent)
First X Value:  2.5000
Last X Value:  0.4000
Number of X Values: 2101
Additional Information: mineral.phosphate.none.fine.vswir.p-3a.jpl.perkin.ancillary.txt

 2.5000	59.7372
 2.4990	59.7279
 2.4980	59.7476
 2.4970	59.9678
 2.4960	59.8217
 2.4950	59.9915
 2.4940	60.0669
 2.4930	60.0660
 2.4920	60.3794
 2.4910	60.4279
 2.4900	60.6183
 2.4890	60.5542
 2.4880	60.6865
 2.4870	60.6878
 2.4860	60.9255
 2.4850	61.0252
 2.4840	61.1922
 2.4830	61.2983
 2.4820	61.5125
 2.4810	61.5267
 2.4800	61.8431
 2.4790	61.7780
 2.4780	62.1045
 2.4770	62.1588
 2.4760	62.2072
 2.4750	62.3847
 2.4740	62.6354
 2.4730	62.6031
 2.4720	62.8717
 2.4710	62.9864
 2.4700	63.0782
 2.4690	63.3595
 2.4680	63.6326
 2.4670	63.6480
 2.4660	63.8685
 2.4650	63.9768
 2.4640	64.1224
 2.4630	64.2019
 2.4620	64.4358
 2.4610	64.5432
 2.4600	64.7591
 2.4590	65.0145
 2.4580	65.1764
 2.4570	65.2375
 2.4560	65.3204
 2.4550	65.4866
 2.4540	65.6377
 2.4530	65.8124
 2.4520	65.9399
 2.4510	66.1599
 2.4500	66.1319
 2.4490	66.2640
 2.4480	66.4705
 2.4470	66.5413
 2.4460	66.6359
 2.4450	66.7511
 2.4440	66.9290
 2.4430	66.9754
 2.4420	67.0749
 2.4410	67.1619
 2.4400	67.3328
 2.4390	67.4441
 2.4380	67.5609
 2.4370	67.6481
 2.4360	67.6348
 2.4350	67.7228
 2.4340	67.8305
 2.4330	67.8537
 2.4320	67.8252
 2.4310	67.9139
 2.4300	67.9820
 2.4290	67.9439
 2.4280	68.0311
 2.4270	68.0406
 2.4260	68.0746
 2.4250	68.0257
 2.4240	68.1375
 2.4230	68.0882
 2.4220	68.1158
 2.4210	68.1625
 2.4200	68.2215
 2.4190	68.1164
 2.4180	68.0688
 2.4170	68.0959
 2.4160	68.1954
 2.4150	68.0623
 2.4140	68.0072
 2.4130	67.9905
 2.4120	67.8962
 2.4110	67.8213
 2.4100	67.7453
 2.4090	67.6893
 2.4080	67.6100
 2.4070	67.4214
 2.4060	67.3103
 2.4050	67.1336
 2.4040	66.9179
 2.4030	66.6786
 2.4020	66.4121
 2.4010	66.1970
 2.4000	65.9175
 2.3990	65.5297
 2.3980	65.1870
 2.3970	64.7296
 2.3960	64.3049
 2.3950	63.8441
 2.3940	63.3308
 2.3930	62.7474
 2.3920	62.2662
 2.3910	61.7371
 2.3900	61.1454
 2.3890	60.5109
 2.3880	59.8662
 2.3870	59.1893
 2.3860	58.7407
 2.3850	58.2392
 2.3840	57.6510
 2.3830	57.0714
 2.3820	56.5728
 2.3810	56.0963
 2.3800	55.7282
 2.3790	55.3784
 2.3780	55.0980
 2.3770	54.9045
 2.3760	54.7609
 2.3750	54.6237
 2.3740	54.6341
 2.3730	54.7317
 2.3720	54.8682
 2.3710	55.0797
 2.3700	55.3592
 2.3690	55.7546
 2.3680	56.1283
 2.3670	56.5233
 2.3660	57.0847
 2.3650	57.6846
 2.3640	58.3104
 2.3630	58.9623
 2.3620	59.6658
 2.3610	60.3954
 2.3600	61.1354
 2.3590	61.9227
 2.3580	62.6923
 2.3570	63.4693
 2.3560	64.2351
 2.3550	64.8892
 2.3540	65.5891
 2.3530	66.3378
 2.3520	67.0075
 2.3510	67.6228
 2.3500	68.1693
 2.3490	68.7329
 2.3480	69.2794
 2.3470	69.7873
 2.3460	70.2037
 2.3450	70.5589
 2.3440	70.9990
 2.3430	71.3897
 2.3420	71.5957
 2.3410	71.8728
 2.3400	72.1491
 2.3390	72.3204
 2.3380	72.4585
 2.3370	72.6040
 2.3360	72.7763
 2.3350	72.9356
 2.3340	73.0214
 2.3330	73.0824
 2.3320	73.1034
 2.3310	73.1897
 2.3300	73.3354
 2.3290	73.3753
 2.3280	73.3631
 2.3270	73.3720
 2.3260	73.3958
 2.3250	73.4143
 2.3240	73.4881
 2.3230	73.4937
 2.3220	73.4460
 2.3210	73.5027
 2.3200	73.4579
 2.3190	73.4334
 2.3180	73.4162
 2.3170	73.3840
 2.3160	73.3923
 2.3150	73.4191
 2.3140	73.4446
 2.3130	73.3789
 2.3120	73.3737
 2.3110	73.3146
 2.3100	73.2038
 2.3090	73.2243
 2.3080	73.2477
 2.3070	73.1547
 2.3060	73.1093
 2.3050	73.0563
 2.3040	73.0080
 2.3030	72.9612
 2.3020	72.8573
 2.3010	72.8251
 2.3000	72.7389
 2.2990	72.7094
 2.2980	72.6622
 2.2970	72.5254
 2.2960	72.4507
 2.2950	72.3796
 2.2940	72.3261
 2.2930	72.2524
 2.2920	72.1581
 2.2910	72.1265
 2.2900	72.0973
 2.2890	71.9811
 2.2880	71.9105
 2.2870	71.8490
 2.2860	71.7356
 2.2850	71.6890
 2.2840	71.6044
 2.2830	71.4949
 2.2820	71.4030
 2.2810	71.4250
 2.2800	71.2944
 2.2790	71.2493
 2.2780	71.1588
 2.2770	71.0896
 2.2760	70.9846
 2.2750	70.9467
 2.2740	70.8616
 2.2730	70.8753
 2.2720	70.8591
 2.2710	70.8005
 2.2700	70.6690
 2.2690	70.6110
 2.2680	70.5291
 2.2670	70.5105
 2.2660	70.4499
 2.2650	70.4208
 2.2640	70.2758
 2.2630	70.2803
 2.2620	70.1855
 2.2610	70.1590
 2.2600	70.0583
 2.2590	69.9721
 2.2580	69.9056
 2.2570	69.8910
 2.2560	69.6969
 2.2550	69.6586
 2.2540	69.5824
 2.2530	69.4621
 2.2520	69.2776
 2.2510	69.2770
 2.2500	69.1508
 2.2490	69.0347
 2.2480	68.8692
 2.2470	68.8198
 2.2460	68.6026
 2.2450	68.5950
 2.2440	68.3775
 2.2430	68.2518
 2.2420	68.1646
 2.2410	67.9787
 2.2400	67.8093
 2.2390	67.6577
 2.2380	67.5105
 2.2370	67.3656
 2.2360	67.2029
 2.2350	67.1305
 2.2340	66.9493
 2.2330	66.7307
 2.2320	66.5625
 2.2310	66.4105
 2.2300	66.2374
 2.2290	66.0515
 2.2280	65.8626
 2.2270	65.6718
 2.2260	65.4959
 2.2250	65.3713
 2.2240	65.0922
 2.2230	64.9078
 2.2220	64.7312
 2.2210	64.4687
 2.2200	64.2240
 2.2190	64.0067
 2.2180	63.7282
 2.2170	63.4667
 2.2160	63.1387
 2.2150	62.9067
 2.2140	62.5762
 2.2130	62.2761
 2.2120	61.9920
 2.2110	61.5633
 2.2100	61.2370
 2.2090	60.9783
 2.2080	60.5310
 2.2070	60.3136
 2.2060	59.9048
 2.2050	59.5406
 2.2040	59.0931
 2.2030	58.8840
 2.2020	58.4377
 2.2010	58.0553
 2.2000	57.6489
 2.1990	57.3969
 2.1980	56.9284
 2.1970	56.6612
 2.1960	56.1444
 2.1950	55.7956
 2.1940	55.3169
 2.1930	55.0426
 2.1920	54.6420
 2.1910	54.3295
 2.1900	53.9282
 2.1890	53.5060
 2.1880	53.1508
 2.1870	52.7841
 2.1860	52.3942
 2.1850	52.1902
 2.1840	51.8619
 2.1830	51.5993
 2.1820	51.3469
 2.1810	51.1365
 2.1800	50.9273
 2.1790	50.8611
 2.1780	50.7912
 2.1770	50.7832
 2.1760	50.7743
 2.1750	50.9745
 2.1740	51.2520
 2.1730	51.6530
 2.1720	52.0704
 2.1710	52.5897
 2.1700	53.1661
 2.1690	53.9627
 2.1680	54.7503
 2.1670	55.6617
 2.1660	56.6071
 2.1650	57.6816
 2.1640	58.7744
 2.1630	59.9294
 2.1620	61.0131
 2.1610	62.1607
 2.1600	63.1780
 2.1590	64.2613
 2.1580	65.2722
 2.1570	66.3456
 2.1560	67.1165
 2.1550	67.9276
 2.1540	68.6435
 2.1530	69.3832
 2.1520	70.0760
 2.1510	70.6806
 2.1500	71.1474
 2.1490	71.5773
 2.1480	71.9674
 2.1470	72.3077
 2.1460	72.5905
 2.1450	72.9185
 2.1440	73.0995
 2.1430	73.2714
 2.1420	73.4489
 2.1410	73.5728
 2.1400	73.7521
 2.1390	73.8683
 2.1380	73.9930
 2.1370	74.1086
 2.1360	74.1374
 2.1350	74.2787
 2.1340	74.3227
 2.1330	74.3805
 2.1320	74.3785
 2.1310	74.4221
 2.1300	74.5344
 2.1290	74.5509
 2.1280	74.5901
 2.1270	74.6147
 2.1260	74.6534
 2.1250	74.6782
 2.1240	74.7621
 2.1230	74.8263
 2.1220	74.7922
 2.1210	74.8224
 2.1200	74.9326
 2.1190	74.9460
 2.1180	75.0031
 2.1170	75.0866
 2.1160	75.0173
 2.1150	75.0621
 2.1140	75.1291
 2.1130	75.2236
 2.1120	75.3155
 2.1110	75.2608
 2.1100	75.2529
 2.1090	75.3076
 2.1080	75.3083
 2.1070	75.3403
 2.1060	75.3916
 2.1050	75.4544
 2.1040	75.4957
 2.1030	75.5299
 2.1020	75.5038
 2.1010	75.5409
 2.1000	75.5964
 2.0990	75.6556
 2.0980	75.6615
 2.0970	75.7015
 2.0960	75.8096
 2.0950	75.8223
 2.0940	75.8116
 2.0930	75.8930
 2.0920	75.9388
 2.0910	75.9462
 2.0900	75.9338
 2.0890	75.9888
 2.0880	76.0313
 2.0870	76.0146
 2.0860	76.0120
 2.0850	75.9987
 2.0840	76.0060
 2.0830	76.0202
 2.0820	76.0112
 2.0810	75.9949
 2.0800	76.0291
 2.0790	76.0103
 2.0780	75.9554
 2.0770	75.9849
 2.0760	75.9874
 2.0750	75.9719
 2.0740	75.9433
 2.0730	75.9058
 2.0720	75.8881
 2.0710	75.8758
 2.0700	75.9091
 2.0690	75.9105
 2.0680	75.9377
 2.0670	75.9826
 2.0660	75.9933
 2.0650	75.9819
 2.0640	75.9769
 2.0630	75.9625
 2.0620	75.9698
 2.0610	76.0114
 2.0600	76.0168
 2.0590	76.0501
 2.0580	76.0960
 2.0570	76.1093
 2.0560	76.1723
 2.0550	76.1622
 2.0540	76.1918
 2.0530	76.2784
 2.0520	76.2948
 2.0510	76.3195
 2.0500	76.3809
 2.0490	76.4407
 2.0480	76.4922
 2.0470	76.5289
 2.0460	76.5720
 2.0450	76.6724
 2.0440	76.7188
 2.0430	76.7517
 2.0420	76.8409
 2.0410	76.8481
 2.0400	76.8998
 2.0390	76.9604
 2.0380	77.0045
 2.0370	77.0700
 2.0360	77.1146
 2.0350	77.0993
 2.0340	77.1819
 2.0330	77.2651
 2.0320	77.2793
 2.0310	77.2635
 2.0300	77.3061
 2.0290	77.3268
 2.0280	77.3840
 2.0270	77.3729
 2.0260	77.3786
 2.0250	77.3340
 2.0240	77.3735
 2.0230	77.3977
 2.0220	77.2961
 2.0210	77.2803
 2.0200	77.1964
 2.0190	77.1695
 2.0180	77.0976
 2.0170	77.0110
 2.0160	76.9214
 2.0150	76.7619
 2.0140	76.6765
 2.0130	76.5766
 2.0120	76.3771
 2.0110	76.1713
 2.0100	75.9790
 2.0090	75.7441
 2.0080	75.4475
 2.0070	75.1460
 2.0060	74.8553
 2.0050	74.4831
 2.0040	74.1342
 2.0030	73.7444
 2.0020	73.3964
 2.0010	73.0261
 2.0000	72.7093
 1.9990	72.4072
 1.9980	72.1309
 1.9970	71.9598
 1.9960	71.9076
 1.9950	71.7064
 1.9940	71.6476
 1.9930	71.7543
 1.9920	71.9489
 1.9910	72.1632
 1.9900	72.3687
 1.9890	72.6438
 1.9880	72.9765
 1.9870	73.3354
 1.9860	73.6884
 1.9850	74.0229
 1.9840	74.4091
 1.9830	74.6955
 1.9820	75.1164
 1.9810	75.3821
 1.9800	75.7694
 1.9790	76.0050
 1.9780	76.2318
 1.9770	76.5225
 1.9760	76.6615
 1.9750	76.8737
 1.9740	77.0627
 1.9730	77.1734
 1.9720	77.3099
 1.9710	77.3628
 1.9700	77.5686
 1.9690	77.5821
 1.9680	77.7717
 1.9670	77.7727
 1.9660	77.9041
 1.9650	77.9002
 1.9640	78.0258
 1.9630	78.0729
 1.9620	78.0715
 1.9610	78.1018
 1.9600	78.1462
 1.9590	78.1083
 1.9580	78.1675
 1.9570	78.2081
 1.9560	78.1704
 1.9550	78.1736
 1.9540	78.2293
 1.9530	78.1712
 1.9520	78.2988
 1.9510	78.3093
 1.9500	78.2312
 1.9490	78.3812
 1.9480	78.3039
 1.9470	78.3674
 1.9460	78.3516
 1.9450	78.3919
 1.9440	78.3592
 1.9430	78.3325
 1.9420	78.2931
 1.9410	78.2041
 1.9400	78.3167
 1.9390	78.3151
 1.9380	78.3374
 1.9370	78.2672
 1.9360	78.2916
 1.9350	78.3705
 1.9340	78.3834
 1.9330	78.3200
 1.9320	78.4382
 1.9310	78.3673
 1.9300	78.4324
 1.9290	78.3388
 1.9280	78.4395
 1.9270	78.4262
 1.9260	78.4876
 1.9250	78.4328
 1.9240	78.3998
 1.9230	78.4024
 1.9220	78.4680
 1.9210	78.4675
 1.9200	78.3988
 1.9190	78.3424
 1.9180	78.4219
 1.9170	78.5375
 1.9160	78.5255
 1.9150	78.5101
 1.9140	78.6133
 1.9130	78.5488
 1.9120	78.7025
 1.9110	78.6649
 1.9100	78.6522
 1.9090	78.6870
 1.9080	78.7506
 1.9070	78.8080
 1.9060	78.8371
 1.9050	78.8787
 1.9040	78.9267
 1.9030	78.8951
 1.9020	79.0711
 1.9010	79.0616
 1.9000	79.0738
 1.8990	79.2616
 1.8980	79.2906
 1.8970	79.3603
 1.8960	79.3274
 1.8950	79.4478
 1.8940	79.4850
 1.8930	79.5925
 1.8920	79.6282
 1.8910	79.5087
 1.8900	79.5826
 1.8890	79.6630
 1.8880	79.7743
 1.8870	79.6883
 1.8860	79.7647
 1.8850	79.7846
 1.8840	79.7862
 1.8830	79.8472
 1.8820	79.8715
 1.8810	79.8263
 1.8800	79.9411
 1.8790	79.9236
 1.8780	79.9670
 1.8770	79.8738
 1.8760	79.9725
 1.8750	79.9788
 1.8740	79.9207
 1.8730	79.9643
 1.8720	79.9412
 1.8710	80.0254
 1.8700	79.9337
 1.8690	79.8874
 1.8680	79.8831
 1.8670	79.8242
 1.8660	79.8353
 1.8650	79.7952
 1.8640	79.7372
 1.8630	79.7001
 1.8620	79.6794
 1.8610	79.6140
 1.8600	79.4719
 1.8590	79.4471
 1.8580	79.4055
 1.8570	79.3466
 1.8560	79.2615
 1.8550	79.1828
 1.8540	79.1392
 1.8530	79.1071
 1.8520	79.0897
 1.8510	79.1057
 1.8500	79.0479
 1.8490	79.0215
 1.8480	79.0261
 1.8470	79.0583
 1.8460	79.0976
 1.8450	79.1581
 1.8440	79.2280
 1.8430	79.3591
 1.8420	79.4670
 1.8410	79.6114
 1.8400	79.7909
 1.8390	79.9205
 1.8380	80.1170
 1.8370	80.2710
 1.8360	80.5199
 1.8350	80.6771
 1.8340	80.8093
 1.8330	80.9556
 1.8320	81.1046
 1.8310	81.2197
 1.8300	81.1761
 1.8290	81.2558
 1.8280	81.3975
 1.8270	81.4323
 1.8260	81.4991
 1.8250	81.5013
 1.8240	81.5611
 1.8230	81.5812
 1.8220	81.6085
 1.8210	81.6161
 1.8200	81.5975
 1.8190	81.6683
 1.8180	81.7106
 1.8170	81.6648
 1.8160	81.7192
 1.8150	81.7463
 1.8140	81.7075
 1.8130	81.7159
 1.8120	81.7771
 1.8110	81.7458
 1.8100	81.7440
 1.8090	81.7336
 1.8080	81.7336
 1.8070	81.7136
 1.8060	81.7277
 1.8050	81.7763
 1.8040	81.7631
 1.8030	81.7446
 1.8020	81.7234
 1.8010	81.7161
 1.8000	81.7345
 1.7990	81.7371
 1.7980	81.7247
 1.7970	81.6895
 1.7960	81.6720
 1.7950	81.6341
 1.7940	81.6253
 1.7930	81.6000
 1.7920	81.6069
 1.7910	81.6311
 1.7900	81.5709
 1.7890	81.5609
 1.7880	81.5437
 1.7870	81.5149
 1.7860	81.5512
 1.7850	81.5100
 1.7840	81.4398
 1.7830	81.4330
 1.7820	81.3997
 1.7810	81.4284
 1.7800	81.4443
 1.7790	81.3603
 1.7780	81.3680
 1.7770	81.3963
 1.7760	81.4066
 1.7750	81.3624
 1.7740	81.3092
 1.7730	81.3298
 1.7720	81.3528
 1.7710	81.3716
 1.7700	81.3821
 1.7690	81.3319
 1.7680	81.2871
 1.7670	81.3041
 1.7660	81.3339
 1.7650	81.3445
 1.7640	81.3644
 1.7630	81.3707
 1.7620	81.4147
 1.7610	81.4203
 1.7600	81.3578
 1.7590	81.3710
 1.7580	81.4237
 1.7570	81.4326
 1.7560	81.4322
 1.7550	81.4569
 1.7540	81.5125
 1.7530	81.5117
 1.7520	81.5332
 1.7510	81.5140
 1.7500	81.4944
 1.7490	81.6001
 1.7480	81.5720
 1.7470	81.5885
 1.7460	81.5679
 1.7450	81.5636
 1.7440	81.5476
 1.7430	81.5304
 1.7420	81.5419
 1.7410	81.5670
 1.7400	81.5303
 1.7390	81.5867
 1.7380	81.5992
 1.7370	81.6438
 1.7360	81.6279
 1.7350	81.6162
 1.7340	81.6762
 1.7330	81.7117
 1.7320	81.6967
 1.7310	81.6965
 1.7300	81.7180
 1.7290	81.7786
 1.7280	81.7789
 1.7270	81.7670
 1.7260	81.7796
 1.7250	81.8500
 1.7240	81.9261
 1.7230	81.9285
 1.7220	81.9054
 1.7210	81.9915
 1.7200	82.0081
 1.7190	82.0706
 1.7180	82.0777
 1.7170	82.1417
 1.7160	82.1600
 1.7150	82.1743
 1.7140	82.1421
 1.7130	82.1945
 1.7120	82.2280
 1.7110	82.2112
 1.7100	82.2666
 1.7090	82.2945
 1.7080	82.2705
 1.7070	82.2824
 1.7060	82.2487
 1.7050	82.3084
 1.7040	82.2432
 1.7030	82.2727
 1.7020	82.2735
 1.7010	82.2641
 1.7000	82.2999
 1.6990	82.3219
 1.6980	82.3875
 1.6970	82.3745
 1.6960	82.3504
 1.6950	82.3955
 1.6940	82.4028
 1.6930	82.3395
 1.6920	82.3154
 1.6910	82.3951
 1.6900	82.3515
 1.6890	82.3951
 1.6880	82.3890
 1.6870	82.3871
 1.6860	82.4367
 1.6850	82.3990
 1.6840	82.3785
 1.6830	82.4734
 1.6820	82.4417
 1.6810	82.4667
 1.6800	82.3812
 1.6790	82.4040
 1.6780	82.3905
 1.6770	82.4582
 1.6760	82.4558
 1.6750	82.4207
 1.6740	82.4485
 1.6730	82.4917
 1.6720	82.4060
 1.6710	82.4944
 1.6700	82.4505
 1.6690	82.5119
 1.6680	82.4811
 1.6670	82.5018
 1.6660	82.5024
 1.6650	82.4970
 1.6640	82.4868
 1.6630	82.4702
 1.6620	82.5203
 1.6610	82.4657
 1.6600	82.5475
 1.6590	82.4511
 1.6580	82.5363
 1.6570	82.4802
 1.6560	82.5530
 1.6550	82.5200
 1.6540	82.3926
 1.6530	82.4419
 1.6520	82.4431
 1.6510	82.5264
 1.6500	82.5109
 1.6490	82.5684
 1.6480	82.4869
 1.6470	82.4098
 1.6460	82.4454
 1.6450	82.5246
 1.6440	82.5421
 1.6430	82.5018
 1.6420	82.4085
 1.6410	82.4958
 1.6400	82.5796
 1.6390	82.4978
 1.6380	82.5458
 1.6370	82.5409
 1.6360	82.5700
 1.6350	82.5110
 1.6340	82.4538
 1.6330	82.5211
 1.6320	82.5655
 1.6310	82.4848
 1.6300	82.4755
 1.6290	82.5738
 1.6280	82.3749
 1.6270	82.4858
 1.6260	82.4752
 1.6250	82.4509
 1.6240	82.4558
 1.6230	82.4518
 1.6220	82.4318
 1.6210	82.4476
 1.6200	82.4480
 1.6190	82.4401
 1.6180	82.4187
 1.6170	82.3619
 1.6160	82.2825
 1.6150	82.4410
 1.6140	82.3593
 1.6130	82.3722
 1.6120	82.2796
 1.6110	82.2993
 1.6100	82.2723
 1.6090	82.2943
 1.6080	82.3169
 1.6070	82.3916
 1.6060	82.2615
 1.6050	82.2990
 1.6040	82.2939
 1.6030	82.3715
 1.6020	82.2813
 1.6010	82.3118
 1.6000	82.4068
 1.5990	82.3310
 1.5980	82.3014
 1.5970	82.3112
 1.5960	82.3061
 1.5950	82.2867
 1.5940	82.2822
 1.5930	82.2526
 1.5920	82.2740
 1.5910	82.2551
 1.5900	82.2025
 1.5890	82.1504
 1.5880	82.1651
 1.5870	82.1956
 1.5860	82.1608
 1.5850	82.0680
 1.5840	82.0772
 1.5830	82.0459
 1.5820	82.0153
 1.5810	81.9759
 1.5800	82.0062
 1.5790	81.9271
 1.5780	81.9163
 1.5770	81.8798
 1.5760	81.8197
 1.5750	81.7875
 1.5740	81.7792
 1.5730	81.7970
 1.5720	81.7289
 1.5710	81.7181
 1.5700	81.5843
 1.5690	81.5472
 1.5680	81.4455
 1.5670	81.4673
 1.5660	81.4780
 1.5650	81.3825
 1.5640	81.3605
 1.5630	81.2627
 1.5620	81.2082
 1.5610	81.2075
 1.5600	81.1501
 1.5590	81.0575
 1.5580	81.0022
 1.5570	80.9712
 1.5560	80.8856
 1.5550	80.9064
 1.5540	80.8464
 1.5530	80.7751
 1.5520	80.7014
 1.5510	80.6759
 1.5500	80.6476
 1.5490	80.6347
 1.5480	80.5855
 1.5470	80.5340
 1.5460	80.5024
 1.5450	80.5277
 1.5440	80.5089
 1.5430	80.4366
 1.5420	80.4166
 1.5410	80.4852
 1.5400	80.4954
 1.5390	80.4412
 1.5380	80.4814
 1.5370	80.5524
 1.5360	80.5473
 1.5350	80.5610
 1.5340	80.6576
 1.5330	80.6911
 1.5320	80.7904
 1.5310	80.8589
 1.5300	80.9104
 1.5290	81.0121
 1.5280	81.0467
 1.5270	81.0747
 1.5260	81.1063
 1.5250	81.1872
 1.5240	81.2387
 1.5230	81.3066
 1.5220	81.3514
 1.5210	81.4550
 1.5200	81.5197
 1.5190	81.5594
 1.5180	81.6285
 1.5170	81.6679
 1.5160	81.7178
 1.5150	81.8262
 1.5140	81.8914
 1.5130	81.9495
 1.5120	82.0127
 1.5110	82.1042
 1.5100	82.1450
 1.5090	82.1785
 1.5080	82.2242
 1.5070	82.2877
 1.5060	82.3073
 1.5050	82.3607
 1.5040	82.3968
 1.5030	82.4218
 1.5020	82.4600
 1.5010	82.5179
 1.5000	82.5829
 1.4990	82.6025
 1.4980	82.6133
 1.4970	82.6426
 1.4960	82.6849
 1.4950	82.6891
 1.4940	82.7009
 1.4930	82.7359
 1.4920	82.7684
 1.4910	82.7780
 1.4900	82.7799
 1.4890	82.8154
 1.4880	82.8350
 1.4870	82.8415
 1.4860	82.8459
 1.4850	82.8326
 1.4840	82.8472
 1.4830	82.8391
 1.4820	82.8869
 1.4810	82.9104
 1.4800	82.8954
 1.4790	82.8834
 1.4780	82.9236
 1.4770	82.9810
 1.4760	83.0478
 1.4750	83.0570
 1.4740	83.0278
 1.4730	83.0913
 1.4720	83.0704
 1.4710	83.1030
 1.4700	83.1083
 1.4690	83.1259
 1.4680	83.2034
 1.4670	83.2653
 1.4660	83.2583
 1.4650	83.2292
 1.4640	83.2451
 1.4630	83.2673
 1.4620	83.3198
 1.4610	83.3020
 1.4600	83.3177
 1.4590	83.3093
 1.4580	83.3141
 1.4570	83.3588
 1.4560	83.3345
 1.4550	83.3746
 1.4540	83.3609
 1.4530	83.3057
 1.4520	83.3055
 1.4510	83.3454
 1.4500	83.1939
 1.4490	83.1252
 1.4480	82.9989
 1.4470	82.9371
 1.4460	82.9874
 1.4450	83.0198
 1.4440	83.1340
 1.4430	83.1843
 1.4420	83.2769
 1.4410	83.3010
 1.4400	83.3343
 1.4390	83.3670
 1.4380	83.3403
 1.4370	83.3334
 1.4360	83.3070
 1.4350	83.2474
 1.4340	83.2493
 1.4330	83.1670
 1.4320	83.0233
 1.4310	82.9928
 1.4300	82.9633
 1.4290	82.8707
 1.4280	82.9184
 1.4270	82.9057
 1.4260	82.9398
 1.4250	83.0081
 1.4240	82.9869
 1.4230	82.9361
 1.4220	82.8686
 1.4210	82.6976
 1.4200	82.4982
 1.4190	82.2964
 1.4180	82.0650
 1.4170	81.8036
 1.4160	81.7797
 1.4150	81.8717
 1.4140	82.0739
 1.4130	82.3022
 1.4120	82.6217
 1.4110	82.8970
 1.4100	83.1183
 1.4090	83.1904
 1.4080	83.2786
 1.4070	83.3625
 1.4060	83.4362
 1.4050	83.4523
 1.4040	83.4923
 1.4030	83.5253
 1.4020	83.5081
 1.4010	83.4801
 1.4000	83.6018
 1.3990	83.5873
 1.3980	83.5726
 1.3970	83.6342
 1.3960	83.6738
 1.3950	83.6794
 1.3940	83.6862
 1.3930	83.6869
 1.3920	83.7382
 1.3910	83.7859
 1.3900	83.8620
 1.3890	83.8551
 1.3880	83.9111
 1.3870	83.9668
 1.3860	84.0285
 1.3850	84.0453
 1.3840	84.1066
 1.3830	84.0778
 1.3820	84.1047
 1.3810	84.1245
 1.3800	84.2642
 1.3790	84.3374
 1.3780	84.4208
 1.3770	84.3297
 1.3760	84.3770
 1.3750	84.3708
 1.3740	84.3792
 1.3730	84.4447
 1.3720	84.4396
 1.3710	84.4595
 1.3700	84.4991
 1.3690	84.4564
 1.3680	84.4692
 1.3670	84.4269
 1.3660	84.4587
 1.3650	84.4191
 1.3640	84.4068
 1.3630	84.3271
 1.3620	84.4148
 1.3610	84.4699
 1.3600	84.4293
 1.3590	84.4212
 1.3580	84.4348
 1.3570	84.5114
 1.3560	84.4810
 1.3550	84.4464
 1.3540	84.4147
 1.3530	84.4513
 1.3520	84.4903
 1.3510	84.3942
 1.3500	84.5531
 1.3490	84.5239
 1.3480	84.5359
 1.3470	84.4673
 1.3460	84.5598
 1.3450	84.5618
 1.3440	84.6051
 1.3430	84.5960
 1.3420	84.5961
 1.3410	84.5635
 1.3400	84.6589
 1.3390	84.6635
 1.3380	84.5627
 1.3370	84.6588
 1.3360	84.6824
 1.3350	84.6685
 1.3340	84.5751
 1.3330	84.7227
 1.3320	84.7331
 1.3310	84.6958
 1.3300	84.7160
 1.3290	84.7618
 1.3280	84.6560
 1.3270	84.6922
 1.3260	84.7044
 1.3250	84.6171
 1.3240	84.7047
 1.3230	84.6915
 1.3220	84.6918
 1.3210	84.7686
 1.3200	84.7396
 1.3190	84.6858
 1.3180	84.6864
 1.3170	84.6445
 1.3160	84.7108
 1.3150	84.7038
 1.3140	84.7461
 1.3130	84.6785
 1.3120	84.7350
 1.3110	84.7571
 1.3100	84.7208
 1.3090	84.6681
 1.3080	84.7013
 1.3070	84.7094
 1.3060	84.7636
 1.3050	84.7237
 1.3040	84.6902
 1.3030	84.7141
 1.3020	84.6784
 1.3010	84.7348
 1.3000	84.7381
 1.2990	84.6981
 1.2980	84.7480
 1.2970	84.6735
 1.2960	84.7150
 1.2950	84.7128
 1.2940	84.6752
 1.2930	84.6652
 1.2920	84.7450
 1.2910	84.6493
 1.2900	84.7141
 1.2890	84.6805
 1.2880	84.6886
 1.2870	84.7151
 1.2860	84.7393
 1.2850	84.7149
 1.2840	84.7449
 1.2830	84.7311
 1.2820	84.7471
 1.2810	84.7553
 1.2800	84.8020
 1.2790	84.8432
 1.2780	84.8339
 1.2770	84.8210
 1.2760	84.8364
 1.2750	84.8743
 1.2740	84.8314
 1.2730	84.8444
 1.2720	84.8590
 1.2710	84.8313
 1.2700	84.8423
 1.2690	84.8227
 1.2680	84.8436
 1.2670	84.9028
 1.2660	84.8258
 1.2650	84.8061
 1.2640	84.7879
 1.2630	84.8712
 1.2620	84.8254
 1.2610	84.8204
 1.2600	84.8197
 1.2590	84.8827
 1.2580	84.9049
 1.2570	84.8441
 1.2560	84.8837
 1.2550	84.9142
 1.2540	84.8777
 1.2530	84.8420
 1.2520	84.8502
 1.2510	84.8061
 1.2500	84.8478
 1.2490	84.8658
 1.2480	84.9033
 1.2470	84.9336
 1.2460	84.9014
 1.2450	84.8714
 1.2440	84.8476
 1.2430	84.9134
 1.2420	84.9214
 1.2410	84.9316
 1.2400	84.8819
 1.2390	84.8968
 1.2380	84.9591
 1.2370	84.9541
 1.2360	84.9581
 1.2350	84.9728
 1.2340	84.9162
 1.2330	84.8572
 1.2320	84.8465
 1.2310	84.8898
 1.2300	84.9175
 1.2290	84.9121
 1.2280	84.8944
 1.2270	84.8364
 1.2260	84.8893
 1.2250	84.9581
 1.2240	84.8969
 1.2230	84.8802
 1.2220	84.9338
 1.2210	84.9681
 1.2200	84.9630
 1.2190	84.9360
 1.2180	84.9051
 1.2170	84.9088
 1.2160	84.9320
 1.2150	84.9333
 1.2140	84.9237
 1.2130	84.9349
 1.2120	84.9488
 1.2110	84.9609
 1.2100	84.9192
 1.2090	84.8725
 1.2080	84.9148
 1.2070	84.9714
 1.2060	85.0062
 1.2050	84.9520
 1.2040	84.8954
 1.2030	84.9123
 1.2020	84.8720
 1.2010	84.9366
 1.2000	84.9417
 1.1990	84.9361
 1.1980	84.9480
 1.1970	84.9254
 1.1960	84.9087
 1.1950	84.9068
 1.1940	84.8839
 1.1930	84.9539
 1.1920	84.9661
 1.1910	84.9175
 1.1900	84.9227
 1.1890	84.9394
 1.1880	84.8812
 1.1870	84.9672
 1.1860	84.9683
 1.1850	84.9421
 1.1840	84.9009
 1.1830	84.9303
 1.1820	84.9274
 1.1810	84.9559
 1.1800	84.9315
 1.1790	84.9403
 1.1780	84.9128
 1.1770	84.9175
 1.1760	84.9662
 1.1750	84.9581
 1.1740	84.9504
 1.1730	84.8898
 1.1720	84.8787
 1.1710	84.9545
 1.1700	84.9841
 1.1690	84.9689
 1.1680	84.9734
 1.1670	84.9783
 1.1660	85.0126
 1.1650	85.0337
 1.1640	84.9701
 1.1630	84.9427
 1.1620	84.9675
 1.1610	84.9873
 1.1600	84.9318
 1.1590	84.9870
 1.1580	84.9940
 1.1570	84.9826
 1.1560	85.0201
 1.1550	85.0101
 1.1540	84.9163
 1.1530	85.0096
 1.1520	84.9773
 1.1510	84.9933
 1.1500	84.9697
 1.1490	84.9898
 1.1480	84.9457
 1.1470	85.0452
 1.1460	85.0071
 1.1450	84.9932
 1.1440	84.9509
 1.1430	84.9726
 1.1420	85.0216
 1.1410	84.9631
 1.1400	84.9445
 1.1390	84.9061
 1.1380	84.8753
 1.1370	84.9749
 1.1360	84.9546
 1.1350	85.0171
 1.1340	85.0021
 1.1330	85.0108
 1.1320	84.9688
 1.1310	85.0604
 1.1300	85.1008
 1.1290	85.0069
 1.1280	84.9789
 1.1270	84.9587
 1.1260	84.9171
 1.1250	84.9599
 1.1240	84.9902
 1.1230	85.0191
 1.1220	84.9595
 1.1210	85.0129
 1.1200	84.9674
 1.1190	85.0070
 1.1180	84.9781
 1.1170	84.9889
 1.1160	84.9948
 1.1150	85.0148
 1.1140	85.0292
 1.1130	84.9471
 1.1120	84.9662
 1.1110	85.0087
 1.1100	85.0371
 1.1090	85.0271
 1.1080	84.9536
 1.1070	85.0031
 1.1060	84.9529
 1.1050	85.0611
 1.1040	84.9506
 1.1030	85.0461
 1.1020	85.0029
 1.1010	84.9585
 1.1000	85.0146
 1.0990	84.9807
 1.0980	84.9636
 1.0970	84.9984
 1.0960	84.9602
 1.0950	84.9697
 1.0940	84.9895
 1.0930	85.0079
 1.0920	84.9843
 1.0910	84.9548
 1.0900	84.9369
 1.0890	84.9474
 1.0880	85.0096
 1.0870	84.9125
 1.0860	84.9282
 1.0850	85.0860
 1.0840	85.0233
 1.0830	84.9052
 1.0820	85.0443
 1.0810	84.9977
 1.0800	85.0466
 1.0790	85.0691
 1.0780	84.8946
 1.0770	85.1149
 1.0760	85.0803
 1.0750	84.9898
 1.0740	84.9857
 1.0730	85.0726
 1.0720	84.9869
 1.0710	85.0713
 1.0700	85.0116
 1.0690	85.0478
 1.0680	84.9070
 1.0670	85.0282
 1.0660	85.0802
 1.0650	85.0962
 1.0640	85.0738
 1.0630	85.0468
 1.0620	84.9864
 1.0610	85.0876
 1.0600	85.0118
 1.0590	85.1130
 1.0580	84.9997
 1.0570	85.0287
 1.0560	85.0391
 1.0550	85.0554
 1.0540	85.0181
 1.0530	85.0166
 1.0520	85.0370
 1.0510	85.0259
 1.0500	85.0400
 1.0490	85.0222
 1.0480	85.0066
 1.0470	85.0266
 1.0460	85.1166
 1.0450	85.0627
 1.0440	84.9646
 1.0430	85.0673
 1.0420	84.9985
 1.0410	85.0994
 1.0400	85.0568
 1.0390	85.0478
 1.0380	85.0539
 1.0370	85.0370
 1.0360	85.0761
 1.0350	85.1038
 1.0340	85.1484
 1.0330	85.1426
 1.0320	85.1318
 1.0310	85.0989
 1.0300	85.0927
 1.0290	85.0725
 1.0280	85.1078
 1.0270	85.1042
 1.0260	85.1119
 1.0250	85.1203
 1.0240	85.0237
 1.0230	85.1002
 1.0220	85.1017
 1.0210	85.0953
 1.0200	85.1286
 1.0190	85.1173
 1.0180	85.0743
 1.0170	85.0435
 1.0160	85.1175
 1.0150	85.1316
 1.0140	85.1171
 1.0130	85.1794
 1.0120	85.0849
 1.0110	85.1262
 1.0100	85.0980
 1.0090	85.1458
 1.0080	85.0672
 1.0070	85.0702
 1.0060	85.0812
 1.0050	85.0954
 1.0040	85.1037
 1.0030	85.1150
 1.0020	85.1328
 1.0010	85.1206
 1.0000	85.1540
 0.9990	85.1614
 0.9980	85.0730
 0.9970	85.0836
 0.9960	85.0663
 0.9950	85.1779
 0.9940	85.1207
 0.9930	85.1336
 0.9920	85.1407
 0.9910	85.1638
 0.9900	85.1405
 0.9890	85.2006
 0.9880	85.1735
 0.9870	85.1219
 0.9860	85.1329
 0.9850	85.1498
 0.9840	85.1714
 0.9830	85.0982
 0.9820	85.1650
 0.9810	85.1409
 0.9800	85.1059
 0.9790	85.1445
 0.9780	85.1113
 0.9770	85.1327
 0.9760	85.1500
 0.9750	85.1313
 0.9740	85.1235
 0.9730	85.1753
 0.9720	85.1889
 0.9710	85.1725
 0.9700	85.1298
 0.9690	85.1480
 0.9680	85.1783
 0.9670	85.1805
 0.9660	85.1514
 0.9650	85.1897
 0.9640	85.1704
 0.9630	85.1372
 0.9620	85.1794
 0.9610	85.2166
 0.9600	85.1479
 0.9590	85.1927
 0.9580	85.1929
 0.9570	85.1298
 0.9560	85.1512
 0.9550	85.2571
 0.9540	85.2524
 0.9530	85.1681
 0.9520	85.1804
 0.9510	85.2184
 0.9500	85.2088
 0.9490	85.2286
 0.9480	85.2519
 0.9470	85.3020
 0.9460	85.2958
 0.9450	85.2461
 0.9440	85.2307
 0.9430	85.2313
 0.9420	85.2428
 0.9410	85.2592
 0.9400	85.2382
 0.9390	85.2229
 0.9380	85.2292
 0.9370	85.2435
 0.9360	85.2466
 0.9350	85.2379
 0.9340	85.2548
 0.9330	85.3006
 0.9320	85.3134
 0.9310	85.2826
 0.9300	85.2753
 0.9290	85.2875
 0.9280	85.2501
 0.9270	85.2532
 0.9260	85.2778
 0.9250	85.2830
 0.9240	85.2948
 0.9230	85.3078
 0.9220	85.3168
 0.9210	85.3183
 0.9200	85.2929
 0.9190	85.2621
 0.9180	85.3123
 0.9170	85.3415
 0.9160	85.2907
 0.9150	85.2592
 0.9140	85.3292
 0.9130	85.3384
 0.9120	85.3568
 0.9110	85.2923
 0.9100	85.3193
 0.9090	85.3161
 0.9080	85.2979
 0.9070	85.3036
 0.9060	85.3195
 0.9050	85.3315
 0.9040	85.3293
 0.9030	85.2717
 0.9020	85.2755
 0.9010	85.2764
 0.9000	85.3174
 0.8990	85.3114
 0.8980	85.3462
 0.8970	85.2913
 0.8960	85.3413
 0.8950	85.3196
 0.8940	85.2870
 0.8930	85.2937
 0.8920	85.3117
 0.8910	85.2832
 0.8900	85.2893
 0.8890	85.3146
 0.8880	85.3269
 0.8870	85.3222
 0.8860	85.3569
 0.8850	85.2831
 0.8840	85.2455
 0.8830	85.2905
 0.8820	85.3434
 0.8810	85.3238
 0.8800	85.2867
 0.8790	85.3317
 0.8780	85.3280
 0.8770	85.3555
 0.8760	85.3517
 0.8750	85.2855
 0.8740	85.3473
 0.8730	85.2927
 0.8720	85.3064
 0.8710	85.2854
 0.8700	85.2407
 0.8690	85.2817
 0.8680	85.2812
 0.8670	85.2597
 0.8660	85.2732
 0.8650	85.3333
 0.8640	85.2482
 0.8630	85.2406
 0.8620	85.2728
 0.8610	85.2966
 0.8600	85.3963
 0.8590	85.3064
 0.8580	85.3516
 0.8570	85.3465
 0.8560	85.3341
 0.8550	85.4903
 0.8540	85.5085
 0.8530	85.4151
 0.8520	85.3824
 0.8510	85.3793
 0.8500	85.4726
 0.8490	85.4145
 0.8480	85.4735
 0.8470	85.4663
 0.8460	85.4627
 0.8450	85.4428
 0.8440	85.3677
 0.8430	85.4694
 0.8420	85.3895
 0.8410	85.3881
 0.8400	85.4610
 0.8390	85.4665
 0.8380	85.4348
 0.8370	85.4317
 0.8360	85.4349
 0.8350	85.3931
 0.8340	85.4573
 0.8330	85.4164
 0.8320	85.4297
 0.8310	85.4214
 0.8300	85.4918
 0.8290	85.5067
 0.8280	85.4233
 0.8270	85.4903
 0.8260	85.4717
 0.8250	85.3553
 0.8240	85.3691
 0.8230	85.4102
 0.8220	85.4054
 0.8210	85.4653
 0.8200	85.4660
 0.8190	85.4547
 0.8180	85.4484
 0.8170	85.4159
 0.8160	85.4135
 0.8150	85.4598
 0.8140	85.4224
 0.8130	85.4299
 0.8120	85.4017
 0.8110	85.4229
 0.8100	85.3973
 0.8090	85.4905
 0.8080	85.4522
 0.8070	85.4020
 0.8060	85.4269
 0.8050	85.4385
 0.8040	85.4166
 0.8030	85.4294
 0.8020	85.4683
 0.8010	85.4183
 0.8000	85.4109
 0.7990	85.4449
 0.7980	85.4306
 0.7970	85.4131
 0.7960	85.3644
 0.7950	85.3432
 0.7940	85.2823
 0.7930	85.3466
 0.7920	85.3550
 0.7910	85.2758
 0.7900	85.3015
 0.7890	85.3954
 0.7880	85.3666
 0.7870	85.3220
 0.7860	85.3339
 0.7850	85.3102
 0.7840	85.3468
 0.7830	85.3271
 0.7820	85.3482
 0.7810	85.3256
 0.7800	85.3492
 0.7790	85.3803
 0.7780	85.3207
 0.7770	85.3329
 0.7760	85.3232
 0.7750	85.2412
 0.7740	85.2694
 0.7730	85.2611
 0.7720	85.2219
 0.7710	85.2482
 0.7700	85.2694
 0.7690	85.2779
 0.7680	85.2509
 0.7670	85.2575
 0.7660	85.2973
 0.7650	85.2453
 0.7640	85.2452
 0.7630	85.2249
 0.7620	85.2317
 0.7610	85.2230
 0.7600	85.2619
 0.7590	85.2474
 0.7580	85.1889
 0.7570	85.2220
 0.7560	85.2223
 0.7550	85.2205
 0.7540	85.2180
 0.7530	85.2190
 0.7520	85.2295
 0.7510	85.1989
 0.7500	85.2433
 0.7490	85.2104
 0.7480	85.2081
 0.7470	85.1870
 0.7460	85.2063
 0.7450	85.1954
 0.7440	85.1914
 0.7430	85.1800
 0.7420	85.1784
 0.7410	85.2200
 0.7400	85.2299
 0.7390	85.1786
 0.7380	85.2209
 0.7370	85.1944
 0.7360	85.1588
 0.7350	85.1663
 0.7340	85.1984
 0.7330	85.1498
 0.7320	85.1738
 0.7310	85.1910
 0.7300	85.1661
 0.7290	85.1824
 0.7280	85.1904
 0.7270	85.1464
 0.7260	85.1385
 0.7250	85.1913
 0.7240	85.1801
 0.7230	85.1684
 0.7220	85.1706
 0.7210	85.1804
 0.7200	85.1547
 0.7190	85.1698
 0.7180	85.1486
 0.7170	85.1350
 0.7160	85.1514
 0.7150	85.1441
 0.7140	85.1370
 0.7130	85.1348
 0.7120	85.1084
 0.7110	85.1072
 0.7100	85.1254
 0.7090	85.1498
 0.7080	85.1337
 0.7070	85.1120
 0.7060	85.1168
 0.7050	85.1250
 0.7040	85.1192
 0.7030	85.1179
 0.7020	85.1014
 0.7010	85.1173
 0.7000	85.1165
 0.6990	85.1108
 0.6980	85.0926
 0.6970	85.1141
 0.6960	85.1001
 0.6950	85.0880
 0.6940	85.0865
 0.6930	85.0942
 0.6920	85.0838
 0.6910	85.0832
 0.6900	85.0857
 0.6890	85.0673
 0.6880	85.0671
 0.6870	85.0841
 0.6860	85.0737
 0.6850	85.0853
 0.6840	85.0879
 0.6830	85.0722
 0.6820	85.0709
 0.6810	85.0433
 0.6800	85.0460
 0.6790	85.0562
 0.6780	85.0481
 0.6770	85.0428
 0.6760	85.0178
 0.6750	85.0385
 0.6740	85.0411
 0.6730	85.0131
 0.6720	85.0039
 0.6710	85.0154
 0.6700	85.0182
 0.6690	85.0211
 0.6680	85.0215
 0.6670	85.0108
 0.6660	84.9903
 0.6650	84.9867
 0.6640	85.0009
 0.6630	85.0089
 0.6620	84.9961
 0.6610	84.9878
 0.6600	84.9687
 0.6590	84.9651
 0.6580	84.9572
 0.6570	84.9402
 0.6560	84.9469
 0.6550	84.9538
 0.6540	84.9464
 0.6530	84.9453
 0.6520	84.9399
 0.6510	84.9277
 0.6500	84.9252
 0.6490	84.9254
 0.6480	84.9105
 0.6470	84.8971
 0.6460	84.9004
 0.6450	84.8966
 0.6440	84.8988
 0.6430	84.8862
 0.6420	84.8792
 0.6410	84.8710
 0.6400	84.8735
 0.6390	84.8694
 0.6380	84.8423
 0.6370	84.8411
 0.6360	84.8453
 0.6350	84.8275
 0.6340	84.8171
 0.6330	84.8066
 0.6320	84.7938
 0.6310	84.7839
 0.6300	84.7932
 0.6290	84.7877
 0.6280	84.7731
 0.6270	84.7908
 0.6260	84.7769
 0.6250	84.7581
 0.6240	84.7590
 0.6230	84.7610
 0.6220	84.7540
 0.6210	84.7531
 0.6200	84.7422
 0.6190	84.7206
 0.6180	84.7052
 0.6170	84.6999
 0.6160	84.7061
 0.6150	84.7006
 0.6140	84.6911
 0.6130	84.6769
 0.6120	84.6621
 0.6110	84.6607
 0.6100	84.6581
 0.6090	84.6504
 0.6080	84.6463
 0.6070	84.6242
 0.6060	84.6129
 0.6050	84.6043
 0.6040	84.6035
 0.6030	84.5993
 0.6020	84.5906
 0.6010	84.5926
 0.6000	84.5943
 0.5990	84.5982
 0.5980	84.6029
 0.5970	84.6133
 0.5960	84.6103
 0.5950	84.6242
 0.5940	84.6080
 0.5930	84.6002
 0.5920	84.5941
 0.5910	84.5867
 0.5900	84.5787
 0.5890	84.5666
 0.5880	84.5420
 0.5870	84.5358
 0.5860	84.5316
 0.5850	84.5278
 0.5840	84.5263
 0.5830	84.5034
 0.5820	84.4907
 0.5810	84.4942
 0.5800	84.4714
 0.5790	84.4522
 0.5780	84.4532
 0.5770	84.4442
 0.5760	84.4329
 0.5750	84.4125
 0.5740	84.4069
 0.5730	84.4117
 0.5720	84.3890
 0.5710	84.3817
 0.5700	84.3709
 0.5690	84.3530
 0.5680	84.3449
 0.5670	84.3334
 0.5660	84.3155
 0.5650	84.3087
 0.5640	84.3114
 0.5630	84.2896
 0.5620	84.2817
 0.5610	84.2622
 0.5600	84.2425
 0.5590	84.2197
 0.5580	84.1982
 0.5570	84.1859
 0.5560	84.1686
 0.5550	84.1758
 0.5540	84.1610
 0.5530	84.1386
 0.5520	84.1415
 0.5510	84.1250
 0.5500	84.1041
 0.5490	84.0895
 0.5480	84.0771
 0.5470	84.0672
 0.5460	84.0461
 0.5450	84.0306
 0.5440	84.0162
 0.5430	84.0023
 0.5420	83.9929
 0.5410	83.9713
 0.5400	83.9581
 0.5390	83.9433
 0.5380	83.9303
 0.5370	83.9278
 0.5360	83.9113
 0.5350	83.8830
 0.5340	83.8724
 0.5330	83.8517
 0.5320	83.8372
 0.5310	83.8079
 0.5300	83.7936
 0.5290	83.7622
 0.5280	83.7478
 0.5270	83.7176
 0.5260	83.7263
 0.5250	83.7066
 0.5240	83.7017
 0.5230	83.6654
 0.5220	83.6417
 0.5210	83.6323
 0.5200	83.6152
 0.5190	83.6032
 0.5180	83.5721
 0.5170	83.5603
 0.5160	83.5289
 0.5150	83.5229
 0.5140	83.5099
 0.5130	83.4825
 0.5120	83.4651
 0.5110	83.4214
 0.5100	83.4014
 0.5090	83.4126
 0.5080	83.3441
 0.5070	83.3450
 0.5060	83.3207
 0.5050	83.2745
 0.5040	83.2663
 0.5030	83.2618
 0.5020	83.2174
 0.5010	83.1920
 0.5000	83.1700
 0.4990	83.1242
 0.4980	83.0885
 0.4970	83.0415
 0.4960	83.0400
 0.4950	83.0141
 0.4940	82.9825
 0.4930	82.9483
 0.4920	82.9027
 0.4910	82.8927
 0.4900	82.8863
 0.4890	82.8505
 0.4880	82.8090
 0.4870	82.7597
 0.4860	82.7486
 0.4850	82.6903
 0.4840	82.6676
 0.4830	82.6249
 0.4820	82.5920
 0.4810	82.5925
 0.4800	82.5505
 0.4790	82.5395
 0.4780	82.4861
 0.4770	82.4871
 0.4760	82.4341
 0.4750	82.3878
 0.4740	82.3871
 0.4730	82.3566
 0.4720	82.3284
 0.4710	82.2804
 0.4700	82.2351
 0.4690	82.2050
 0.4680	82.1725
 0.4670	82.1419
 0.4660	82.1096
 0.4650	82.0831
 0.4640	82.0443
 0.4630	82.0118
 0.4620	81.9724
 0.4610	81.9460
 0.4600	81.8909
 0.4590	81.8597
 0.4580	81.8349
 0.4570	81.8030
 0.4560	81.7563
 0.4550	81.6946
 0.4540	81.6302
 0.4530	81.6157
 0.4520	81.5788
 0.4510	81.5324
 0.4500	81.4911
 0.4490	81.4297
 0.4480	81.3901
 0.4470	81.3737
 0.4460	81.3169
 0.4450	81.2653
 0.4440	81.2462
 0.4430	81.1773
 0.4420	81.1339
 0.4410	81.0820
 0.4400	81.0436
 0.4390	80.9928
 0.4380	80.9325
 0.4370	80.9100
 0.4360	80.8617
 0.4350	80.8085
 0.4340	80.7687
 0.4330	80.6956
 0.4320	80.6470
 0.4310	80.6374
 0.4300	80.5658
 0.4290	80.5234
 0.4280	80.4738
 0.4270	80.3993
 0.4260	80.3521
 0.4250	80.3127
 0.4240	80.2446
 0.4230	80.2014
 0.4220	80.1337
 0.4210	80.0829
 0.4200	80.0008
 0.4190	79.9530
 0.4180	79.9262
 0.4170	79.8585
 0.4160	79.7732
 0.4150	79.7236
 0.4140	79.6685
 0.4130	79.5989
 0.4120	79.5324
 0.4110	79.4734
 0.4100	79.4053
 0.4090	79.3361
 0.4080	79.2708
 0.4070	79.1988
 0.4060	79.1250
 0.4050	79.0410
 0.4040	78.9849
 0.4030	78.8983
 0.4020	78.8095
 0.4010	78.7085
 0.4000	78.6155
