Name: Tourmaline Na(Mg_3,Fe_3^2+)Al_6(BO_3)_3Si_6O_18(OH)_4
Type: Mineral
Class: Silicate
Subclass: Cyclosilicate
Particle Size: Coarse
Sample No.: CS-1A
Owner: JPL
Wavelength Range: VSWIR
Origin: USA, New York, Overlook
Collection Date: N/A
Description: Particle size was 125-500um.Collected by Ward's Original ASTER Spectral Library name was jpl.beckman.mineral.silicate.cyclosilicate.coarse.cs01a.spectrum.txt
Measurement: Hemispherical reflectance
First Column: X
Second Column: Y
X Units: Wavelength (micrometers)
Y Units:Reflectance (percent)
First X Value:  0.4000
Last X Value:  2.5000
Number of X Values: 826
Additional Information: mineral.silicate.cyclosilicate.coarse.vswir.cs-1a.jpl.beckman.ancillary.txt

 0.4000	 2.8800
 0.4010	 2.8200
 0.4020	 2.7600
 0.4030	 2.8100
 0.4040	 2.7600
 0.4050	 2.8800
 0.4060	 2.7500
 0.4070	 2.7600
 0.4080	 2.7000
 0.4090	 2.7500
 0.4100	 2.7500
 0.4110	 2.6900
 0.4120	 2.5700
 0.4130	 2.7600
 0.4140	 2.6900
 0.4150	 2.7500
 0.4160	 2.6300
 0.4170	 2.6900
 0.4180	 2.7500
 0.4190	 2.6200
 0.4200	 2.6800
 0.4210	 2.6900
 0.4220	 2.6900
 0.4230	 2.7500
 0.4240	 2.6300
 0.4250	 2.6800
 0.4260	 2.6200
 0.4270	 2.6200
 0.4280	 2.7500
 0.4290	 2.6200
 0.4300	 2.6900
 0.4310	 2.5600
 0.4320	 2.5600
 0.4330	 2.6800
 0.4340	 2.5600
 0.4350	 2.6200
 0.4360	 2.5600
 0.4370	 2.5700
 0.4380	 2.6800
 0.4390	 2.5000
 0.4400	 2.6300
 0.4410	 2.5100
 0.4420	 2.5700
 0.4430	 2.5700
 0.4440	 2.5000
 0.4450	 2.5500
 0.4460	 2.5000
 0.4470	 2.6200
 0.4480	 2.5500
 0.4490	 2.6200
 0.4500	 2.5600
 0.4510	 2.5000
 0.4520	 2.5600
 0.4530	 2.5000
 0.4540	 2.4900
 0.4550	 2.4900
 0.4560	 2.5400
 0.4570	 2.5900
 0.4580	 2.5900
 0.4590	 2.5300
 0.4600	 2.5300
 0.4610	 2.4400
 0.4620	 2.4400
 0.4630	 2.5500
 0.4640	 2.3700
 0.4650	 2.4400
 0.4660	 2.3800
 0.4670	 2.4400
 0.4680	 2.5600
 0.4690	 2.4400
 0.4700	 2.4400
 0.4710	 2.4400
 0.4720	 2.3800
 0.4730	 2.5600
 0.4740	 2.4300
 0.4750	 2.4300
 0.4760	 2.3800
 0.4770	 2.4300
 0.4780	 2.4900
 0.4790	 2.4200
 0.4800	 2.5400
 0.4810	 2.4300
 0.4820	 2.4300
 0.4830	 2.3700
 0.4840	 2.3700
 0.4850	 2.4900
 0.4860	 2.3100
 0.4870	 2.4200
 0.4880	 2.3700
 0.4890	 2.3100
 0.4900	 2.4200
 0.4910	 2.3700
 0.4920	 2.4100
 0.4930	 2.3600
 0.4940	 2.4100
 0.4950	 2.5200
 0.4960	 2.3500
 0.4970	 2.4000
 0.4980	 2.2800
 0.4990	 2.3400
 0.5000	 2.5600
 0.5010	 2.4300
 0.5020	 2.4200
 0.5030	 2.3600
 0.5040	 2.4800
 0.5050	 2.5300
 0.5060	 2.3600
 0.5070	 2.4200
 0.5080	 2.4800
 0.5090	 2.4800
 0.5100	 2.4300
 0.5110	 2.3700
 0.5120	 2.3700
 0.5130	 2.3800
 0.5140	 2.3800
 0.5150	 2.4400
 0.5160	 2.3200
 0.5170	 2.4300
 0.5180	 2.3700
 0.5190	 2.4300
 0.5200	 2.4300
 0.5210	 2.1900
 0.5220	 2.4300
 0.5230	 2.4300
 0.5240	 2.4300
 0.5250	 2.4400
 0.5260	 2.2600
 0.5270	 2.3800
 0.5280	 2.3800
 0.5290	 2.3800
 0.5300	 2.3900
 0.5310	 2.2700
 0.5320	 2.4500
 0.5330	 2.2800
 0.5340	 2.3600
 0.5350	 2.3100
 0.5360	 2.1900
 0.5370	 2.3700
 0.5380	 2.3100
 0.5390	 2.3700
 0.5400	 2.2500
 0.5410	 2.2500
 0.5420	 2.3700
 0.5430	 2.2500
 0.5440	 2.4200
 0.5450	 2.2400
 0.5460	 2.1700
 0.5470	 2.4100
 0.5480	 2.2800
 0.5490	 2.4000
 0.5500	 2.2200
 0.5510	 2.2200
 0.5520	 2.3900
 0.5530	 2.2700
 0.5540	 2.3300
 0.5550	 2.2100
 0.5560	 2.1500
 0.5570	 2.2800
 0.5580	 2.2300
 0.5590	 2.1800
 0.5600	 2.2600
 0.5610	 2.4300
 0.5620	 2.3100
 0.5630	 2.3100
 0.5640	 2.3200
 0.5650	 2.3100
 0.5660	 2.4300
 0.5670	 2.2500
 0.5680	 2.3600
 0.5690	 2.3700
 0.5700	 2.3100
 0.5710	 2.4300
 0.5720	 2.3200
 0.5730	 2.2800
 0.5740	 2.3000
 0.5750	 2.2000
 0.5760	 2.1400
 0.5770	 2.2100
 0.5780	 2.2700
 0.5790	 2.2700
 0.5800	 2.2600
 0.5810	 2.2700
 0.5820	 2.2100
 0.5830	 2.2700
 0.5840	 2.3400
 0.5850	 2.2700
 0.5860	 2.2700
 0.5870	 2.1500
 0.5880	 2.2100
 0.5890	 2.2800
 0.5900	 2.2200
 0.5910	 2.2700
 0.5920	 2.1500
 0.5930	 2.1500
 0.5940	 2.2200
 0.5950	 2.2700
 0.5960	 2.2700
 0.5970	 2.2600
 0.5980	 2.1900
 0.5990	 2.1700
 0.6000	 2.2100
 0.6010	 2.3200
 0.6020	 2.2500
 0.6030	 2.2500
 0.6040	 2.1300
 0.6050	 2.1900
 0.6060	 2.2500
 0.6070	 2.2400
 0.6080	 2.1900
 0.6090	 2.1300
 0.6100	 2.3100
 0.6110	 2.2500
 0.6120	 2.1900
 0.6130	 2.2500
 0.6140	 2.1300
 0.6150	 2.2400
 0.6160	 2.3100
 0.6170	 2.1900
 0.6180	 2.2400
 0.6190	 2.1800
 0.6200	 2.2400
 0.6210	 2.2500
 0.6220	 2.1900
 0.6230	 2.0800
 0.6240	 2.1900
 0.6250	 2.3000
 0.6260	 2.2400
 0.6270	 2.1800
 0.6280	 2.1300
 0.6290	 2.1900
 0.6300	 2.2500
 0.6310	 2.3000
 0.6320	 2.1900
 0.6330	 2.1300
 0.6340	 2.1900
 0.6350	 2.1400
 0.6360	 2.2500
 0.6370	 2.1900
 0.6380	 2.0700
 0.6390	 2.2500
 0.6400	 2.2500
 0.6410	 2.2500
 0.6420	 2.2400
 0.6430	 2.1200
 0.6440	 2.2400
 0.6450	 2.1900
 0.6460	 2.1900
 0.6470	 2.2500
 0.6480	 2.1300
 0.6490	 2.1900
 0.6500	 2.2500
 0.6510	 2.3100
 0.6520	 2.3000
 0.6530	 2.1900
 0.6540	 2.1800
 0.6550	 2.1900
 0.6560	 2.2400
 0.6570	 2.2400
 0.6580	 2.1300
 0.6590	 2.1300
 0.6600	 2.1400
 0.6610	 2.1300
 0.6620	 2.1300
 0.6630	 2.2400
 0.6640	 2.1300
 0.6650	 2.1900
 0.6660	 2.1300
 0.6670	 2.0700
 0.6680	 2.1300
 0.6690	 2.1300
 0.6700	 2.1900
 0.6710	 2.1300
 0.6720	 2.1300
 0.6730	 2.1400
 0.6740	 2.1900
 0.6750	 2.1900
 0.6760	 2.0700
 0.6770	 2.1300
 0.6780	 2.1900
 0.6790	 2.1300
 0.6800	 2.1900
 0.6810	 2.1300
 0.6820	 2.1800
 0.6830	 2.3000
 0.6840	 2.2500
 0.6850	 2.2500
 0.6860	 2.1300
 0.6870	 2.1800
 0.6880	 2.2400
 0.6890	 2.1300
 0.6900	 2.1300
 0.6910	 2.1900
 0.6920	 2.2400
 0.6930	 2.2400
 0.6940	 2.1800
 0.6950	 2.1300
 0.6960	 2.1900
 0.6970	 2.2600
 0.6980	 2.2700
 0.6990	 2.1600
 0.7000	 2.1200
 0.7010	 2.0600
 0.7020	 2.1200
 0.7030	 2.2400
 0.7040	 2.0700
 0.7050	 2.1300
 0.7060	 2.0700
 0.7070	 2.1800
 0.7080	 2.1800
 0.7090	 2.1200
 0.7100	 2.1200
 0.7110	 1.9500
 0.7120	 2.1800
 0.7130	 2.0700
 0.7140	 2.1300
 0.7150	 2.2500
 0.7160	 2.1900
 0.7170	 2.1300
 0.7180	 2.1200
 0.7190	 2.1200
 0.7200	 2.2400
 0.7210	 2.2400
 0.7220	 2.1300
 0.7230	 2.0600
 0.7240	 2.1200
 0.7250	 2.2400
 0.7260	 2.1300
 0.7270	 2.0700
 0.7280	 2.1200
 0.7290	 2.1800
 0.7300	 2.2400
 0.7310	 2.1800
 0.7320	 2.1800
 0.7330	 2.0600
 0.7340	 2.1800
 0.7350	 2.3000
 0.7360	 2.1300
 0.7370	 2.1300
 0.7380	 2.0100
 0.7390	 2.1800
 0.7400	 2.2400
 0.7410	 2.2400
 0.7420	 2.2400
 0.7430	 2.0600
 0.7440	 2.3000
 0.7450	 2.3000
 0.7460	 2.2400
 0.7470	 2.1800
 0.7480	 2.1200
 0.7490	 2.2400
 0.7500	 2.2400
 0.7510	 2.3000
 0.7520	 2.4100
 0.7530	 2.2400
 0.7540	 2.2400
 0.7550	 2.1900
 0.7560	 2.1800
 0.7570	 2.4100
 0.7580	 2.2900
 0.7590	 2.2400
 0.7600	 2.1200
 0.7610	 2.2400
 0.7620	 2.4000
 0.7630	 2.3500
 0.7640	 2.3600
 0.7650	 2.3000
 0.7660	 2.4100
 0.7670	 2.5100
 0.7680	 2.5100
 0.7690	 2.5700
 0.7700	 2.5700
 0.7710	 2.5700
 0.7720	 2.6900
 0.7730	 2.5200
 0.7740	 2.5200
 0.7750	 2.4700
 0.7760	 2.5100
 0.7770	 2.4700
 0.7780	 2.5700
 0.7790	 2.5700
 0.7800	 2.5100
 0.7810	 2.5200
 0.7820	 2.5200
 0.7830	 2.6300
 0.7840	 2.6800
 0.7850	 2.5600
 0.7860	 2.5100
 0.7870	 2.5700
 0.7880	 2.6200
 0.7890	 2.6800
 0.7900	 2.6200
 0.7910	 2.5700
 0.7920	 2.5700
 0.7930	 2.5700
 0.7940	 2.6800
 0.7950	 2.5200
 0.7960	 2.5800
 0.7970	 2.4000
 0.7980	 2.4100
 0.7990	 2.4800
 0.8000	 2.7600
 0.8040	 2.8200
 0.8080	 2.8300
 0.8120	 2.7700
 0.8160	 2.7700
 0.8200	 2.7700
 0.8240	 2.7700
 0.8280	 2.7800
 0.8320	 2.8400
 0.8360	 2.8300
 0.8400	 2.9000
 0.8440	 2.9000
 0.8480	 2.9000
 0.8520	 2.9100
 0.8560	 2.9700
 0.8600	 2.9700
 0.8640	 2.9100
 0.8680	 2.8500
 0.8720	 2.8500
 0.8760	 2.9100
 0.8800	 2.8500
 0.8840	 2.7900
 0.8880	 2.7900
 0.8920	 2.7900
 0.8960	 2.7900
 0.9000	 2.8500
 0.9040	 2.9100
 0.9080	 2.9100
 0.9120	 2.9100
 0.9160	 2.8500
 0.9200	 2.8500
 0.9240	 2.7900
 0.9280	 2.8500
 0.9320	 2.8400
 0.9360	 2.7300
 0.9400	 2.7300
 0.9440	 2.7300
 0.9480	 2.7400
 0.9520	 2.7300
 0.9560	 2.7300
 0.9600	 2.7300
 0.9640	 2.8000
 0.9680	 2.7900
 0.9720	 2.8000
 0.9760	 2.8500
 0.9800	 2.8500
 0.9840	 2.7900
 0.9880	 2.7900
 0.9920	 2.7900
 0.9960	 2.7600
 1.0000	 2.7600
 1.0040	 2.7400
 1.0080	 2.7900
 1.0120	 2.7400
 1.0160	 2.7400
 1.0200	 2.6700
 1.0240	 2.7300
 1.0280	 2.6700
 1.0320	 2.6000
 1.0360	 2.6100
 1.0400	 2.6100
 1.0440	 2.6800
 1.0480	 2.6100
 1.0520	 2.6700
 1.0560	 2.7900
 1.0600	 2.7300
 1.0640	 2.7300
 1.0680	 2.7300
 1.0720	 2.6600
 1.0760	 2.7100
 1.0800	 2.7000
 1.0840	 2.6300
 1.0880	 2.6200
 1.0920	 2.5500
 1.0960	 2.6100
 1.1000	 2.6100
 1.1040	 2.6100
 1.1080	 2.5500
 1.1120	 2.6100
 1.1160	 2.6700
 1.1200	 2.7900
 1.1240	 2.7400
 1.1280	 2.7400
 1.1320	 2.6800
 1.1360	 2.6200
 1.1400	 2.7000
 1.1440	 2.5900
 1.1480	 2.6000
 1.1520	 2.6000
 1.1560	 2.6600
 1.1600	 2.6000
 1.1640	 2.6000
 1.1680	 2.6600
 1.1720	 2.7200
 1.1760	 2.7200
 1.1800	 2.6700
 1.1840	 2.6000
 1.1880	 2.6600
 1.1920	 2.6100
 1.1960	 2.6100
 1.2000	 2.6700
 1.2040	 2.5500
 1.2080	 2.5400
 1.2120	 2.5500
 1.2160	 2.6000
 1.2200	 2.6500
 1.2240	 2.5900
 1.2280	 2.5300
 1.2320	 2.6400
 1.2360	 2.6300
 1.2400	 2.7400
 1.2440	 2.7300
 1.2480	 2.6700
 1.2520	 2.6600
 1.2560	 2.6600
 1.2600	 2.6600
 1.2640	 2.6500
 1.2680	 2.6600
 1.2720	 2.6500
 1.2760	 2.6000
 1.2800	 2.5500
 1.2840	 2.6100
 1.2880	 2.6600
 1.2920	 2.6000
 1.2960	 2.7200
 1.3000	 2.7200
 1.3040	 2.7700
 1.3080	 2.7700
 1.3120	 2.7600
 1.3160	 2.7600
 1.3200	 2.7600
 1.3240	 2.7000
 1.3280	 2.7100
 1.3320	 2.7000
 1.3360	 2.7100
 1.3400	 2.7000
 1.3440	 2.6500
 1.3480	 2.6400
 1.3520	 2.6400
 1.3560	 2.6200
 1.3600	 2.6000
 1.3640	 2.6500
 1.3680	 2.6800
 1.3720	 2.7000
 1.3760	 2.7700
 1.3800	 2.8200
 1.3840	 2.7200
 1.3880	 2.7100
 1.3920	 2.7200
 1.3960	 2.7600
 1.4000	 2.7000
 1.4040	 2.6400
 1.4080	 2.6400
 1.4120	 2.6400
 1.4160	 2.7100
 1.4200	 2.7600
 1.4240	 2.7700
 1.4280	 2.7700
 1.4320	 2.7100
 1.4360	 2.7600
 1.4400	 2.7100
 1.4440	 2.7700
 1.4480	 2.7100
 1.4520	 2.6600
 1.4560	 2.6500
 1.4600	 2.5900
 1.4640	 2.6400
 1.4680	 2.7000
 1.4720	 2.7000
 1.4760	 2.8200
 1.4800	 2.8100
 1.4840	 2.7600
 1.4880	 2.8200
 1.4920	 2.7600
 1.4960	 2.7800
 1.5000	 2.6800
 1.5040	 2.7100
 1.5080	 2.6500
 1.5120	 2.7600
 1.5160	 2.8200
 1.5200	 2.8200
 1.5240	 2.7600
 1.5280	 2.8100
 1.5320	 2.7600
 1.5360	 2.7600
 1.5400	 2.7100
 1.5440	 2.6500
 1.5480	 2.6600
 1.5520	 2.7700
 1.5560	 2.8300
 1.5600	 2.7700
 1.5640	 2.7600
 1.5680	 2.8200
 1.5720	 2.8100
 1.5760	 2.8200
 1.5800	 2.8800
 1.5840	 2.8800
 1.5880	 2.7700
 1.5920	 2.7600
 1.5960	 2.7600
 1.6000	 2.7600
 1.6040	 2.7600
 1.6080	 2.7600
 1.6120	 2.7600
 1.6160	 2.8200
 1.6200	 2.8100
 1.6240	 2.8200
 1.6280	 2.8200
 1.6320	 2.8200
 1.6360	 2.8300
 1.6400	 3.0000
 1.6440	 2.9300
 1.6480	 2.9300
 1.6520	 2.9800
 1.6560	 2.9800
 1.6600	 2.9100
 1.6640	 2.9200
 1.6680	 2.9800
 1.6720	 2.8600
 1.6760	 2.8700
 1.6800	 2.8600
 1.6840	 2.8600
 1.6880	 2.8100
 1.6920	 2.8700
 1.6960	 2.9200
 1.7000	 2.9100
 1.7040	 2.9700
 1.7080	 2.9800
 1.7120	 3.1000
 1.7160	 3.1000
 1.7200	 3.1500
 1.7240	 3.1000
 1.7280	 3.0900
 1.7320	 3.0400
 1.7360	 3.0400
 1.7400	 3.0400
 1.7440	 2.9900
 1.7480	 3.0500
 1.7520	 3.0400
 1.7560	 3.0900
 1.7600	 3.0300
 1.7640	 3.0400
 1.7680	 3.0300
 1.7720	 3.1000
 1.7760	 3.0900
 1.7800	 3.2200
 1.7840	 3.2700
 1.7880	 3.2100
 1.7920	 3.2700
 1.7960	 3.3200
 1.8000	 3.3200
 1.8040	 3.3600
 1.8080	 3.3200
 1.8120	 3.3800
 1.8160	 3.3800
 1.8200	 3.3700
 1.8240	 3.3100
 1.8280	 3.3700
 1.8320	 3.3700
 1.8360	 3.3800
 1.8400	 3.3700
 1.8440	 3.3800
 1.8480	 3.4300
 1.8520	 3.4100
 1.8560	 3.4700
 1.8600	 3.4200
 1.8640	 3.4700
 1.8680	 3.5300
 1.8720	 3.6000
 1.8760	 3.5900
 1.8800	 3.6300
 1.8840	 3.6900
 1.8880	 3.7400
 1.8920	 3.6800
 1.8960	 3.6800
 1.9000	 3.7900
 1.9040	 3.8000
 1.9080	 3.8100
 1.9120	 3.8400
 1.9160	 3.9200
 1.9200	 3.8900
 1.9240	 3.9100
 1.9280	 3.9700
 1.9320	 4.0200
 1.9360	 4.0700
 1.9400	 4.0200
 1.9440	 4.0000
 1.9480	 4.0500
 1.9520	 4.1000
 1.9560	 4.0300
 1.9600	 4.0800
 1.9640	 4.1300
 1.9680	 4.2400
 1.9720	 4.2800
 1.9760	 4.3300
 1.9800	 4.3900
 1.9840	 4.5000
 1.9880	 4.5000
 1.9920	 4.5600
 1.9960	 4.5500
 2.0000	 4.5500
 2.0040	 4.6500
 2.0080	 4.6400
 2.0120	 4.6300
 2.0160	 4.7400
 2.0200	 4.7300
 2.0240	 4.7200
 2.0280	 4.7800
 2.0320	 4.7800
 2.0360	 4.7800
 2.0400	 4.8400
 2.0440	 4.8800
 2.0480	 4.9900
 2.0520	 4.9300
 2.0560	 4.9300
 2.0600	 5.1000
 2.0640	 5.1200
 2.0680	 5.1900
 2.0720	 5.1700
 2.0760	 5.2400
 2.0800	 5.3400
 2.0840	 5.4300
 2.0880	 5.4400
 2.0920	 5.4700
 2.0960	 5.5500
 2.1000	 5.5700
 2.1040	 5.6500
 2.1080	 5.6800
 2.1120	 5.7500
 2.1160	 5.8400
 2.1200	 5.9200
 2.1240	 5.9500
 2.1280	 5.9600
 2.1320	 6.0600
 2.1360	 6.1200
 2.1400	 6.0700
 2.1440	 6.1300
 2.1480	 6.0900
 2.1520	 6.0700
 2.1560	 6.1100
 2.1600	 6.1000
 2.1640	 6.1800
 2.1680	 6.1100
 2.1720	 6.1400
 2.1760	 6.1500
 2.1800	 6.1700
 2.1840	 6.1300
 2.1880	 6.0900
 2.1920	 5.9800
 2.1960	 5.9100
 2.2000	 5.9100
 2.2040	 5.8400
 2.2080	 5.9100
 2.2120	 6.0300
 2.2160	 6.0300
 2.2200	 6.1400
 2.2240	 6.2000
 2.2280	 6.2000
 2.2320	 6.1600
 2.2360	 6.2200
 2.2400	 6.2000
 2.2440	 6.4100
 2.2480	 6.5800
 2.2520	 6.7400
 2.2560	 6.9800
 2.2600	 7.0800
 2.2640	 7.2300
 2.2680	 7.3600
 2.2720	 7.4200
 2.2760	 7.5100
 2.2800	 7.3400
 2.2840	 7.4000
 2.2880	 7.3400
 2.2920	 7.3400
 2.2960	 7.2400
 2.3000	 7.1100
 2.3040	 7.2200
 2.3080	 7.1500
 2.3120	 7.1100
 2.3160	 7.0500
 2.3200	 7.0500
 2.3240	 6.9700
 2.3280	 6.9100
 2.3320	 6.7800
 2.3360	 6.6900
 2.3400	 6.5500
 2.3440	 6.3300
 2.3480	 6.2000
 2.3520	 6.1300
 2.3560	 6.0700
 2.3600	 6.0400
 2.3640	 6.0800
 2.3680	 6.2700
 2.3720	 6.4300
 2.3760	 6.6900
 2.3800	 7.0900
 2.3840	 7.2100
 2.3880	 7.5400
 2.3920	 7.7400
 2.3960	 7.8500
 2.4000	 8.0300
 2.4040	 8.0600
 2.4080	 8.2200
 2.4120	 8.1400
 2.4160	 8.2400
 2.4200	 8.2200
 2.4240	 8.2200
 2.4280	 8.2700
 2.4320	 8.1500
 2.4360	 8.0700
 2.4400	 8.0600
 2.4440	 7.9800
 2.4480	 7.9400
 2.4520	 7.9300
 2.4560	 7.8700
 2.4600	 7.8400
 2.4640	 7.8300
 2.4680	 7.8100
 2.4720	 7.7700
 2.4760	 7.8400
 2.4800	 7.7500
 2.4840	 7.8600
 2.4880	 7.8900
 2.4920	 7.8900
 2.4960	 7.9300
 2.5000	 8.0600
