Name: Anhydrite CaSO_4
Type: Mineral
Class: Sulfate
Subclass: None
Particle Size: Fine
Sample No.: SO-1A
Owner: JPL
Wavelength Range: VSWIR
Origin: Canada, Nova Scotia
Collection Date: N/A
Description: Particle size was 0-45um.Collected by Ward's Original ASTER Spectral Library name was jpl.beckman.mineral.sulfate.none.fine.so01a.spectrum.txt
Measurement: Hemispherical reflectance
First Column: X
Second Column: Y
X Units: Wavelength (micrometers)
Y Units:Reflectance (percent)
First X Value:  0.4000
Last X Value:  2.5000
Number of X Values: 826
Additional Information: mineral.sulfate.none.fine.vswir.so-1a.jpl.beckman.ancillary.txt

 0.4000	79.5900
 0.4010	79.8200
 0.4020	79.9400
 0.4030	79.7900
 0.4040	79.9700
 0.4050	80.0200
 0.4060	80.0300
 0.4070	80.2100
 0.4080	80.1500
 0.4090	80.2000
 0.4100	80.1700
 0.4110	80.1900
 0.4120	80.2800
 0.4130	80.3200
 0.4140	80.5100
 0.4150	80.4600
 0.4160	80.4400
 0.4170	80.5000
 0.4180	80.5100
 0.4190	80.6700
 0.4200	80.6800
 0.4210	80.6600
 0.4220	80.7500
 0.4230	80.6900
 0.4240	80.8100
 0.4250	80.9600
 0.4260	80.8600
 0.4270	81.0400
 0.4280	81.0800
 0.4290	81.0800
 0.4300	81.1900
 0.4310	81.1500
 0.4320	81.2800
 0.4330	81.1800
 0.4340	81.2300
 0.4350	81.4500
 0.4360	81.4400
 0.4370	81.4900
 0.4380	81.4300
 0.4390	81.4600
 0.4400	81.5900
 0.4410	81.6500
 0.4420	81.7800
 0.4430	81.8100
 0.4440	81.6400
 0.4450	81.8100
 0.4460	81.7900
 0.4470	81.8200
 0.4480	81.8200
 0.4490	81.7300
 0.4500	81.9100
 0.4510	81.9200
 0.4520	81.9800
 0.4530	82.0100
 0.4540	81.9800
 0.4550	82.0700
 0.4560	81.9900
 0.4570	82.1300
 0.4580	82.2900
 0.4590	82.2500
 0.4600	82.2600
 0.4610	82.2500
 0.4620	82.3800
 0.4630	82.2800
 0.4640	82.4100
 0.4650	82.5000
 0.4660	82.4800
 0.4670	82.5000
 0.4680	82.4500
 0.4690	82.5500
 0.4700	82.6200
 0.4710	82.5700
 0.4720	82.6300
 0.4730	82.6100
 0.4740	82.6700
 0.4750	82.7700
 0.4760	82.8500
 0.4770	82.8100
 0.4780	82.7100
 0.4790	82.7800
 0.4800	82.9900
 0.4810	82.8200
 0.4820	82.8900
 0.4830	82.8800
 0.4840	82.9000
 0.4850	83.0800
 0.4860	82.9300
 0.4870	83.1000
 0.4880	83.0000
 0.4890	82.8500
 0.4900	82.9900
 0.4910	82.9000
 0.4920	83.1000
 0.4930	83.1200
 0.4940	83.0300
 0.4950	83.2200
 0.4960	83.1800
 0.4970	83.2000
 0.4980	83.2700
 0.4990	83.1800
 0.5000	83.2400
 0.5010	83.1900
 0.5020	83.2600
 0.5030	83.3200
 0.5040	83.3200
 0.5050	83.4400
 0.5060	83.3300
 0.5070	83.3800
 0.5080	83.5500
 0.5090	83.4300
 0.5100	83.4200
 0.5110	83.4200
 0.5120	83.4700
 0.5130	83.5600
 0.5140	83.4500
 0.5150	83.5300
 0.5160	83.4500
 0.5170	83.4500
 0.5180	83.6000
 0.5190	83.5300
 0.5200	83.6400
 0.5210	83.5500
 0.5220	83.5600
 0.5230	83.7100
 0.5240	83.6600
 0.5250	83.7400
 0.5260	83.6600
 0.5270	83.6000
 0.5280	83.7000
 0.5290	83.6900
 0.5300	83.7400
 0.5310	83.7900
 0.5320	83.6600
 0.5330	83.6600
 0.5340	83.6800
 0.5350	83.6700
 0.5360	83.6900
 0.5370	83.7000
 0.5380	83.8100
 0.5390	83.8000
 0.5400	83.7800
 0.5410	83.7700
 0.5420	83.6700
 0.5430	83.7500
 0.5440	83.6500
 0.5450	83.6600
 0.5460	83.7900
 0.5470	83.7100
 0.5480	83.7700
 0.5490	83.7200
 0.5500	83.7400
 0.5510	83.8700
 0.5520	83.7100
 0.5530	83.7700
 0.5540	83.7800
 0.5550	83.7200
 0.5560	83.7700
 0.5570	83.7100
 0.5580	83.8500
 0.5590	83.7800
 0.5600	83.9200
 0.5610	84.1600
 0.5620	84.2100
 0.5630	84.2200
 0.5640	84.3200
 0.5650	84.3200
 0.5660	84.1800
 0.5670	84.1900
 0.5680	84.1400
 0.5690	84.1400
 0.5700	84.0800
 0.5710	84.0800
 0.5720	84.1700
 0.5730	84.0200
 0.5740	84.0600
 0.5750	84.0800
 0.5760	83.9700
 0.5770	84.0600
 0.5780	83.8800
 0.5790	84.0500
 0.5800	84.0200
 0.5810	83.9000
 0.5820	83.9600
 0.5830	83.8500
 0.5840	84.0200
 0.5850	83.9800
 0.5860	83.9900
 0.5870	84.0500
 0.5880	83.9200
 0.5890	84.0200
 0.5900	83.9500
 0.5910	84.0200
 0.5920	84.0800
 0.5930	83.9600
 0.5940	84.1400
 0.5950	84.0900
 0.5960	84.0500
 0.5970	84.0800
 0.5980	84.0200
 0.5990	84.1400
 0.6000	84.1700
 0.6010	84.1600
 0.6020	84.2100
 0.6030	84.1300
 0.6040	84.1600
 0.6050	84.2500
 0.6060	84.2800
 0.6070	84.4000
 0.6080	84.3400
 0.6090	84.3900
 0.6100	84.3300
 0.6110	84.3200
 0.6120	84.4200
 0.6130	84.3600
 0.6140	84.4300
 0.6150	84.3300
 0.6160	84.3000
 0.6170	84.3400
 0.6180	84.2800
 0.6190	84.2800
 0.6200	84.3900
 0.6210	84.4600
 0.6220	84.4700
 0.6230	84.3900
 0.6240	84.4300
 0.6250	84.4400
 0.6260	84.4000
 0.6270	84.4800
 0.6280	84.5300
 0.6290	84.4700
 0.6300	84.5100
 0.6310	84.4100
 0.6320	84.4700
 0.6330	84.5800
 0.6340	84.5200
 0.6350	84.6100
 0.6360	84.6100
 0.6370	84.7200
 0.6380	84.6200
 0.6390	84.7000
 0.6400	84.7600
 0.6410	84.7600
 0.6420	84.7900
 0.6430	84.7500
 0.6440	84.7700
 0.6450	84.8900
 0.6460	84.7700
 0.6470	84.9100
 0.6480	84.9000
 0.6490	84.9000
 0.6500	85.0200
 0.6510	84.9300
 0.6520	85.1100
 0.6530	85.1000
 0.6540	85.0500
 0.6550	85.1600
 0.6560	84.9900
 0.6570	85.1600
 0.6580	85.1600
 0.6590	85.0500
 0.6600	85.2000
 0.6610	85.1900
 0.6620	85.3000
 0.6630	85.2600
 0.6640	85.2800
 0.6650	85.3400
 0.6660	85.2900
 0.6670	85.3900
 0.6680	85.3300
 0.6690	85.3800
 0.6700	85.4500
 0.6710	85.3300
 0.6720	85.5000
 0.6730	85.5900
 0.6740	85.5300
 0.6750	85.6500
 0.6760	85.6000
 0.6770	85.7300
 0.6780	85.6800
 0.6790	85.6800
 0.6800	85.7300
 0.6810	85.6800
 0.6820	85.7400
 0.6830	85.7500
 0.6840	85.7500
 0.6850	85.7300
 0.6860	85.7200
 0.6870	85.8300
 0.6880	85.8400
 0.6890	85.8000
 0.6900	85.9200
 0.6910	85.9200
 0.6920	85.9000
 0.6930	86.0200
 0.6940	86.0300
 0.6950	86.0900
 0.6960	85.9600
 0.6970	86.0600
 0.6980	86.1500
 0.6990	86.0400
 0.7000	86.1700
 0.7010	86.1300
 0.7020	86.1600
 0.7030	86.2600
 0.7040	86.2000
 0.7050	86.3500
 0.7060	86.3500
 0.7070	86.1900
 0.7080	86.4300
 0.7090	86.3200
 0.7100	86.3800
 0.7110	86.4900
 0.7120	86.4400
 0.7130	86.4900
 0.7140	86.4400
 0.7150	86.5600
 0.7160	86.6500
 0.7170	86.5800
 0.7180	86.6400
 0.7190	86.6000
 0.7200	86.6100
 0.7210	86.6700
 0.7220	86.6500
 0.7230	86.8400
 0.7240	86.7800
 0.7250	86.7900
 0.7260	86.8400
 0.7270	86.8900
 0.7280	86.9900
 0.7290	86.9500
 0.7300	86.9000
 0.7310	87.0700
 0.7320	86.9900
 0.7330	87.0000
 0.7340	87.0000
 0.7350	87.0100
 0.7360	87.0600
 0.7370	86.9800
 0.7380	87.1500
 0.7390	87.1700
 0.7400	87.0200
 0.7410	87.1300
 0.7420	87.1900
 0.7430	87.3600
 0.7440	87.2400
 0.7450	87.1900
 0.7460	87.3600
 0.7470	87.2300
 0.7480	87.2400
 0.7490	87.4200
 0.7500	87.3700
 0.7510	87.4200
 0.7520	87.3500
 0.7530	87.4700
 0.7540	87.5900
 0.7550	87.5400
 0.7560	87.4700
 0.7570	87.5200
 0.7580	87.5400
 0.7590	87.5900
 0.7600	87.5400
 0.7610	87.5900
 0.7620	87.5400
 0.7630	87.6600
 0.7640	87.6600
 0.7650	87.5900
 0.7660	87.7000
 0.7670	87.6600
 0.7680	87.5500
 0.7690	87.6700
 0.7700	87.6600
 0.7710	87.7200
 0.7720	87.7200
 0.7730	87.6100
 0.7740	87.7600
 0.7750	87.7000
 0.7760	87.8200
 0.7770	87.7800
 0.7780	87.7200
 0.7790	87.8300
 0.7800	87.8300
 0.7810	88.0100
 0.7820	87.9500
 0.7830	87.7700
 0.7840	87.8900
 0.7850	87.9100
 0.7860	88.0800
 0.7870	88.0100
 0.7880	87.9600
 0.7890	88.0200
 0.7900	87.9600
 0.7910	87.9600
 0.7920	88.0600
 0.7930	88.0600
 0.7940	88.1200
 0.7950	88.0000
 0.7960	88.0600
 0.7970	88.2200
 0.7980	88.1100
 0.7990	88.1600
 0.8000	88.1000
 0.8040	88.1500
 0.8080	88.2000
 0.8120	88.2200
 0.8160	88.2500
 0.8200	88.3500
 0.8240	88.3400
 0.8280	88.3900
 0.8320	88.4100
 0.8360	88.4100
 0.8400	88.4400
 0.8440	88.5000
 0.8480	88.5600
 0.8520	88.6200
 0.8560	88.6700
 0.8600	88.6600
 0.8640	88.7200
 0.8680	88.6700
 0.8720	88.7100
 0.8760	88.6600
 0.8800	88.6700
 0.8840	88.6000
 0.8880	88.6600
 0.8920	88.6600
 0.8960	88.7100
 0.9000	88.6600
 0.9040	88.6500
 0.9080	88.6600
 0.9120	88.7100
 0.9160	88.7100
 0.9200	88.7200
 0.9240	88.6200
 0.9280	88.7100
 0.9320	88.6700
 0.9360	88.6500
 0.9400	88.7200
 0.9440	88.7700
 0.9480	88.7000
 0.9520	88.7700
 0.9560	88.7700
 0.9600	88.7700
 0.9640	88.8400
 0.9680	88.8900
 0.9720	88.8200
 0.9760	88.9000
 0.9800	88.7800
 0.9840	88.7700
 0.9880	88.8300
 0.9920	88.8500
 0.9960	88.8600
 1.0000	88.8600
 1.0040	88.9000
 1.0080	88.9000
 1.0120	88.8900
 1.0160	89.0000
 1.0200	88.9400
 1.0240	88.9600
 1.0280	88.8800
 1.0320	88.8900
 1.0360	88.9500
 1.0400	89.0000
 1.0440	89.0100
 1.0480	89.0200
 1.0520	88.9800
 1.0560	88.9800
 1.0600	88.9800
 1.0640	89.1400
 1.0680	89.1500
 1.0720	89.1600
 1.0760	89.1300
 1.0800	89.1600
 1.0840	89.1800
 1.0880	89.2500
 1.0920	89.2100
 1.0960	89.2700
 1.1000	89.2600
 1.1040	89.3100
 1.1080	89.2800
 1.1120	89.3300
 1.1160	89.2600
 1.1200	89.2600
 1.1240	89.3700
 1.1280	89.3500
 1.1320	89.3200
 1.1360	89.3400
 1.1400	89.3200
 1.1440	89.2300
 1.1480	89.2800
 1.1520	89.3400
 1.1560	89.3300
 1.1600	89.2700
 1.1640	89.2600
 1.1680	89.2000
 1.1720	89.3100
 1.1760	89.2200
 1.1800	89.2200
 1.1840	89.1600
 1.1880	89.0800
 1.1920	89.1500
 1.1960	89.1900
 1.2000	89.1700
 1.2040	89.1700
 1.2080	89.1700
 1.2120	89.2200
 1.2160	89.2300
 1.2200	89.2600
 1.2240	89.3200
 1.2280	89.2000
 1.2320	89.2800
 1.2360	89.4100
 1.2400	89.3700
 1.2440	89.5000
 1.2480	89.4500
 1.2520	89.4500
 1.2560	89.4500
 1.2600	89.4400
 1.2640	89.5300
 1.2680	89.4500
 1.2720	89.5500
 1.2760	89.5300
 1.2800	89.5700
 1.2840	89.5600
 1.2880	89.5600
 1.2920	89.5300
 1.2960	89.5700
 1.3000	89.5100
 1.3040	89.4400
 1.3080	89.5600
 1.3120	89.4400
 1.3160	89.4900
 1.3200	89.4700
 1.3240	89.4500
 1.3280	89.3800
 1.3320	89.3400
 1.3360	89.3800
 1.3400	89.3300
 1.3440	89.2700
 1.3480	89.2100
 1.3520	89.1900
 1.3560	89.1700
 1.3600	89.2600
 1.3640	89.1200
 1.3680	89.1100
 1.3720	89.0200
 1.3760	88.9600
 1.3800	88.9600
 1.3840	88.9400
 1.3880	88.9100
 1.3920	88.8500
 1.3960	88.6700
 1.4000	88.6200
 1.4040	88.4500
 1.4080	88.1500
 1.4120	87.9800
 1.4160	87.8200
 1.4200	87.6100
 1.4240	87.4700
 1.4280	87.1900
 1.4320	86.9400
 1.4360	86.6500
 1.4400	86.2100
 1.4440	86.0300
 1.4480	86.2800
 1.4520	86.5100
 1.4560	86.8100
 1.4600	86.8800
 1.4640	87.0500
 1.4680	87.1400
 1.4720	87.2100
 1.4760	87.2400
 1.4800	87.2400
 1.4840	87.1900
 1.4880	87.1800
 1.4920	87.2900
 1.4960	87.5300
 1.5000	87.7800
 1.5040	87.8700
 1.5080	88.0500
 1.5120	88.1300
 1.5160	88.2500
 1.5200	88.2000
 1.5240	88.1900
 1.5280	88.1300
 1.5320	88.1800
 1.5360	88.1800
 1.5400	88.1900
 1.5440	88.4100
 1.5480	88.4800
 1.5520	88.5500
 1.5560	88.7100
 1.5600	88.7600
 1.5640	88.8300
 1.5680	88.8700
 1.5720	88.8700
 1.5760	88.9800
 1.5800	89.0800
 1.5840	89.1500
 1.5880	89.1500
 1.5920	89.1600
 1.5960	89.2400
 1.6000	89.4000
 1.6040	89.3400
 1.6080	89.4000
 1.6120	89.4400
 1.6160	89.4400
 1.6200	89.4200
 1.6240	89.4700
 1.6280	89.5100
 1.6320	89.5800
 1.6360	89.5600
 1.6400	89.5600
 1.6440	89.6700
 1.6480	89.6600
 1.6520	89.7700
 1.6560	89.8700
 1.6600	89.7500
 1.6640	89.8500
 1.6680	89.9600
 1.6720	89.9600
 1.6760	89.8500
 1.6800	89.9000
 1.6840	89.7700
 1.6880	89.8700
 1.6920	89.7500
 1.6960	89.7600
 1.7000	89.8000
 1.7040	89.6200
 1.7080	89.6200
 1.7120	89.5200
 1.7160	89.4100
 1.7200	89.2400
 1.7240	89.1700
 1.7280	89.0000
 1.7320	88.7600
 1.7360	88.6000
 1.7400	88.4800
 1.7440	88.3800
 1.7480	88.4300
 1.7520	88.4400
 1.7560	88.4800
 1.7600	88.4800
 1.7640	88.5800
 1.7680	88.4800
 1.7720	88.6300
 1.7760	88.5900
 1.7800	88.6400
 1.7840	88.7500
 1.7880	88.8300
 1.7920	88.8900
 1.7960	88.9600
 1.8000	89.1300
 1.8040	89.0800
 1.8080	89.0700
 1.8120	89.1000
 1.8160	89.0700
 1.8200	89.0800
 1.8240	89.0600
 1.8280	89.0500
 1.8320	89.1700
 1.8360	89.0900
 1.8400	89.1100
 1.8440	88.9500
 1.8480	88.9500
 1.8520	88.8200
 1.8560	88.6900
 1.8600	88.5800
 1.8640	88.2800
 1.8680	87.9100
 1.8720	87.7100
 1.8760	87.2100
 1.8800	86.8100
 1.8840	86.2100
 1.8880	85.6400
 1.8920	85.0900
 1.8960	84.3300
 1.9000	83.5200
 1.9040	82.7200
 1.9080	81.9100
 1.9120	80.8400
 1.9160	79.8400
 1.9200	78.8300
 1.9240	77.8000
 1.9280	76.6500
 1.9320	75.7500
 1.9360	75.2200
 1.9400	75.0600
 1.9440	75.1400
 1.9480	75.7600
 1.9520	76.4300
 1.9560	77.1000
 1.9600	77.7800
 1.9640	78.2700
 1.9680	78.7300
 1.9720	79.1000
 1.9760	79.5500
 1.9800	80.0700
 1.9840	80.7400
 1.9880	81.4000
 1.9920	82.2300
 1.9960	82.9800
 2.0000	83.7800
 2.0040	84.3900
 2.0080	84.8400
 2.0120	85.3200
 2.0160	85.6400
 2.0200	85.9900
 2.0240	86.1100
 2.0280	86.3100
 2.0320	86.5500
 2.0360	86.6400
 2.0400	86.8300
 2.0440	86.8300
 2.0480	86.8600
 2.0520	86.9700
 2.0560	87.0400
 2.0600	87.0600
 2.0640	87.0800
 2.0680	87.1000
 2.0720	87.1800
 2.0760	87.2000
 2.0800	87.3100
 2.0840	87.3900
 2.0880	87.3400
 2.0920	87.2500
 2.0960	87.2600
 2.1000	87.2800
 2.1040	87.3000
 2.1080	87.2500
 2.1120	87.2200
 2.1160	87.2200
 2.1200	87.2200
 2.1240	87.1300
 2.1280	87.0400
 2.1320	86.9400
 2.1360	86.9400
 2.1400	86.8300
 2.1440	86.6400
 2.1480	86.5100
 2.1520	86.3800
 2.1560	86.2900
 2.1600	86.2100
 2.1640	86.0800
 2.1680	85.9300
 2.1720	85.8000
 2.1760	85.7000
 2.1800	85.6900
 2.1840	85.6700
 2.1880	85.5100
 2.1920	85.4100
 2.1960	85.2900
 2.2000	85.2300
 2.2040	85.0900
 2.2080	85.0500
 2.2120	85.0300
 2.2160	85.1100
 2.2200	85.1700
 2.2240	85.3500
 2.2280	85.4600
 2.2320	85.5700
 2.2360	85.6400
 2.2400	85.7700
 2.2440	85.7000
 2.2480	85.7000
 2.2520	85.7500
 2.2560	85.6200
 2.2600	85.6900
 2.2640	85.6800
 2.2680	85.8700
 2.2720	85.9200
 2.2760	85.8500
 2.2800	86.0000
 2.2840	86.0200
 2.2880	86.0900
 2.2920	86.0600
 2.2960	86.0800
 2.3000	86.0700
 2.3040	86.0900
 2.3080	86.0900
 2.3120	86.1000
 2.3160	86.0600
 2.3200	86.0300
 2.3240	86.0200
 2.3280	85.9100
 2.3320	85.8300
 2.3360	85.7300
 2.3400	85.5700
 2.3440	85.5200
 2.3480	85.3300
 2.3520	85.0300
 2.3560	84.8700
 2.3600	84.6800
 2.3640	84.4900
 2.3680	84.1400
 2.3720	83.8400
 2.3760	83.4800
 2.3800	83.1600
 2.3840	82.7100
 2.3880	82.3100
 2.3920	81.8900
 2.3960	81.4100
 2.4000	80.9900
 2.4040	80.6400
 2.4080	80.2100
 2.4120	79.9400
 2.4160	79.6200
 2.4200	79.3900
 2.4240	79.1000
 2.4280	78.9500
 2.4320	78.7500
 2.4360	78.6900
 2.4400	78.5300
 2.4440	78.4400
 2.4480	78.2800
 2.4520	78.1500
 2.4560	77.9900
 2.4600	77.8300
 2.4640	77.6800
 2.4680	77.6700
 2.4720	77.6000
 2.4760	77.5200
 2.4800	77.5100
 2.4840	77.6000
 2.4880	77.7400
 2.4920	77.9100
 2.4960	78.0400
 2.5000	78.2200
