Name: Quartz SiO_2
Type: Mineral
Class: Silicate
Subclass: Tectosilicate
Particle Size: Coarse
Sample No.: TS-1C
Owner: JPL
Wavelength Range: VSWIR
Origin: USA, South Dakota, Custer County, Custer
Collection Date: N/A
Description: Rose quartz. Particle size was 125-500um.Collected by Ward's Original ASTER Spectral Library name was jpl.beckman.mineral.silicate.tectosilicate.coarse.ts01c.spectrum.txt
Measurement: Hemispherical reflectance
First Column: X
Second Column: Y
X Units: Wavelength (micrometers)
Y Units:Reflectance (percent)
First X Value:  0.4000
Last X Value:  2.5000
Number of X Values: 826
Additional Information: mineral.silicate.tectosilicate.coarse.vswir.ts-1c.jpl.beckman.ancillary.txt

 0.4000	73.7400
 0.4010	73.7400
 0.4020	73.6800
 0.4030	73.7300
 0.4040	73.9100
 0.4050	73.8700
 0.4060	73.6400
 0.4070	73.7400
 0.4080	73.7900
 0.4090	73.7700
 0.4100	73.8500
 0.4110	73.6500
 0.4120	73.7400
 0.4130	73.5900
 0.4140	73.5200
 0.4150	73.3900
 0.4160	73.4500
 0.4170	73.5500
 0.4180	73.3500
 0.4190	73.4300
 0.4200	73.2500
 0.4210	73.2500
 0.4220	73.3100
 0.4230	73.3200
 0.4240	73.0700
 0.4250	73.0400
 0.4260	73.1100
 0.4270	73.0200
 0.4280	72.8300
 0.4290	72.7800
 0.4300	72.9400
 0.4310	72.6700
 0.4320	72.7400
 0.4330	72.6400
 0.4340	72.6600
 0.4350	72.7500
 0.4360	72.6600
 0.4370	72.4400
 0.4380	72.5400
 0.4390	72.5100
 0.4400	72.4600
 0.4410	72.2600
 0.4420	72.1900
 0.4430	72.2600
 0.4440	72.1100
 0.4450	72.0500
 0.4460	71.9100
 0.4470	71.9100
 0.4480	72.0300
 0.4490	72.0800
 0.4500	71.8400
 0.4510	71.9100
 0.4520	71.9400
 0.4530	71.8000
 0.4540	71.6200
 0.4550	71.5600
 0.4560	71.6900
 0.4570	71.6000
 0.4580	71.5900
 0.4590	71.5000
 0.4600	71.5800
 0.4610	71.5100
 0.4620	71.2900
 0.4630	71.4500
 0.4640	71.3900
 0.4650	71.4600
 0.4660	71.3900
 0.4670	71.2700
 0.4680	71.3400
 0.4690	71.1900
 0.4700	71.3100
 0.4710	71.2100
 0.4720	71.1000
 0.4730	71.1800
 0.4740	71.1800
 0.4750	71.0400
 0.4760	70.9900
 0.4770	70.9900
 0.4780	71.1100
 0.4790	71.0800
 0.4800	71.0800
 0.4810	70.9600
 0.4820	70.8100
 0.4830	71.0700
 0.4840	70.9800
 0.4850	70.9200
 0.4860	70.8500
 0.4870	71.0700
 0.4880	71.0300
 0.4890	70.8000
 0.4900	70.9700
 0.4910	70.9100
 0.4920	71.0900
 0.4930	71.0700
 0.4940	70.9000
 0.4950	71.0000
 0.4960	70.9700
 0.4970	70.9800
 0.4980	71.0100
 0.4990	71.0200
 0.5000	71.1600
 0.5010	71.2400
 0.5020	71.1900
 0.5030	71.0900
 0.5040	71.1600
 0.5050	71.4000
 0.5060	71.4300
 0.5070	71.3700
 0.5080	71.3800
 0.5090	71.3500
 0.5100	71.4800
 0.5110	71.5300
 0.5120	71.5800
 0.5130	71.5900
 0.5140	71.7700
 0.5150	71.7400
 0.5160	71.6400
 0.5170	71.8200
 0.5180	71.7900
 0.5190	71.9400
 0.5200	71.9400
 0.5210	71.9400
 0.5220	72.0800
 0.5230	72.1100
 0.5240	72.1700
 0.5250	72.1800
 0.5260	72.2500
 0.5270	72.4200
 0.5280	72.4200
 0.5290	72.2300
 0.5300	72.3800
 0.5310	72.4900
 0.5320	72.6500
 0.5330	72.6300
 0.5340	72.6400
 0.5350	72.7400
 0.5360	72.7000
 0.5370	72.7900
 0.5380	72.9100
 0.5390	73.0400
 0.5400	73.1200
 0.5410	73.1800
 0.5420	73.1000
 0.5430	73.2200
 0.5440	73.3600
 0.5450	73.4600
 0.5460	73.5100
 0.5470	73.5000
 0.5480	73.6000
 0.5490	73.7400
 0.5500	73.7700
 0.5510	73.7900
 0.5520	73.8600
 0.5530	74.0900
 0.5540	74.1400
 0.5550	74.0300
 0.5560	74.2100
 0.5570	74.4200
 0.5580	74.4400
 0.5590	74.3800
 0.5600	74.9600
 0.5610	74.9600
 0.5620	74.9100
 0.5630	75.0500
 0.5640	75.2100
 0.5650	75.1300
 0.5660	75.1700
 0.5670	75.0600
 0.5680	75.3000
 0.5690	75.2400
 0.5700	75.1800
 0.5710	75.1700
 0.5720	75.2400
 0.5730	75.1700
 0.5740	75.0900
 0.5750	75.1600
 0.5760	75.4400
 0.5770	75.3900
 0.5780	75.3800
 0.5790	75.4800
 0.5800	75.4300
 0.5810	75.3800
 0.5820	75.4000
 0.5830	75.5500
 0.5840	75.5800
 0.5850	75.8200
 0.5860	75.7800
 0.5870	75.7700
 0.5880	76.0400
 0.5890	76.0100
 0.5900	76.1300
 0.5910	76.0600
 0.5920	76.0400
 0.5930	76.2500
 0.5940	76.1900
 0.5950	76.1600
 0.5960	76.2300
 0.5970	76.4100
 0.5980	76.4100
 0.5990	76.4300
 0.6000	76.5300
 0.6010	76.6800
 0.6020	76.5300
 0.6030	76.5900
 0.6040	76.5200
 0.6050	76.6800
 0.6060	76.7800
 0.6070	76.6000
 0.6080	76.5700
 0.6090	76.7900
 0.6100	76.7100
 0.6110	76.6400
 0.6120	76.6500
 0.6130	76.7800
 0.6140	76.6900
 0.6150	76.8100
 0.6160	76.7500
 0.6170	76.7400
 0.6180	76.9000
 0.6190	76.9100
 0.6200	76.7600
 0.6210	76.9400
 0.6220	76.9600
 0.6230	76.9800
 0.6240	76.8200
 0.6250	76.7900
 0.6260	76.9900
 0.6270	76.9400
 0.6280	77.0600
 0.6290	76.9000
 0.6300	77.0200
 0.6310	77.0900
 0.6320	77.0600
 0.6330	76.9500
 0.6340	77.0800
 0.6350	77.2300
 0.6360	77.1800
 0.6370	77.0400
 0.6380	77.1200
 0.6390	77.2600
 0.6400	77.2400
 0.6410	77.1700
 0.6420	77.0900
 0.6430	77.2200
 0.6440	77.3500
 0.6450	77.3000
 0.6460	77.1600
 0.6470	77.1900
 0.6480	77.4300
 0.6490	77.2800
 0.6500	77.2000
 0.6510	77.3900
 0.6520	77.3700
 0.6530	77.2900
 0.6540	77.3500
 0.6550	77.2500
 0.6560	77.4800
 0.6570	77.4500
 0.6580	77.2900
 0.6590	77.3200
 0.6600	77.4700
 0.6610	77.4800
 0.6620	77.3900
 0.6630	77.3200
 0.6640	77.3900
 0.6650	77.5400
 0.6660	77.4700
 0.6670	77.5400
 0.6680	77.4400
 0.6690	77.5600
 0.6700	77.4800
 0.6710	77.4800
 0.6720	77.4900
 0.6730	77.4900
 0.6740	77.7800
 0.6750	77.5600
 0.6760	77.4800
 0.6770	77.6700
 0.6780	77.6600
 0.6790	77.6300
 0.6800	77.5000
 0.6810	77.5800
 0.6820	77.7300
 0.6830	77.7800
 0.6840	77.5100
 0.6850	77.7500
 0.6860	77.7000
 0.6870	77.7700
 0.6880	77.5500
 0.6890	77.6300
 0.6900	77.8100
 0.6910	77.7900
 0.6920	77.6600
 0.6930	77.6800
 0.6940	77.7200
 0.6950	77.8100
 0.6960	77.7700
 0.6970	77.7500
 0.6980	77.6500
 0.6990	77.8300
 0.7000	77.7100
 0.7010	77.8500
 0.7020	77.6600
 0.7030	77.7900
 0.7040	77.7700
 0.7050	77.8600
 0.7060	77.8100
 0.7070	77.6200
 0.7080	77.7200
 0.7090	77.8100
 0.7100	77.8500
 0.7110	77.8300
 0.7120	77.7100
 0.7130	77.8800
 0.7140	77.8600
 0.7150	77.7600
 0.7160	77.9200
 0.7170	77.8900
 0.7180	77.9700
 0.7190	78.0300
 0.7200	77.8300
 0.7210	77.8700
 0.7220	77.8400
 0.7230	77.8400
 0.7240	77.8300
 0.7250	77.8500
 0.7260	78.0100
 0.7270	78.0100
 0.7280	77.9200
 0.7290	78.0000
 0.7300	77.9600
 0.7310	78.1000
 0.7320	77.9900
 0.7330	77.8300
 0.7340	77.9400
 0.7350	77.9800
 0.7360	78.0700
 0.7370	78.0800
 0.7380	78.0000
 0.7390	78.0700
 0.7400	78.1200
 0.7410	77.8600
 0.7420	78.0100
 0.7430	78.0200
 0.7440	78.0800
 0.7450	78.0500
 0.7460	77.9700
 0.7470	77.9900
 0.7480	77.9600
 0.7490	78.1400
 0.7500	77.9900
 0.7510	78.0000
 0.7520	78.0700
 0.7530	78.0700
 0.7540	77.9300
 0.7550	77.9700
 0.7560	77.9800
 0.7570	78.1100
 0.7580	78.0200
 0.7590	77.8900
 0.7600	77.8500
 0.7610	78.0200
 0.7620	78.0700
 0.7630	78.0100
 0.7640	77.9900
 0.7650	78.1100
 0.7660	78.1400
 0.7670	77.9500
 0.7680	78.1300
 0.7690	78.1900
 0.7700	78.1300
 0.7710	78.2000
 0.7720	78.0300
 0.7730	78.0700
 0.7740	78.2500
 0.7750	78.0900
 0.7760	78.0600
 0.7770	78.0700
 0.7780	78.2600
 0.7790	78.2000
 0.7800	78.1800
 0.7810	78.1600
 0.7820	78.2600
 0.7830	78.2500
 0.7840	78.0500
 0.7850	78.1200
 0.7860	78.2200
 0.7870	78.2300
 0.7880	78.1800
 0.7890	78.1300
 0.7900	78.3200
 0.7910	78.2400
 0.7920	78.1900
 0.7930	78.2400
 0.7940	78.4500
 0.7950	78.3100
 0.7960	78.3100
 0.7970	78.3600
 0.7980	78.3400
 0.7990	78.3900
 0.8000	78.1600
 0.8040	78.3600
 0.8080	78.2800
 0.8120	78.3000
 0.8160	78.3600
 0.8200	78.3400
 0.8240	78.3600
 0.8280	78.3900
 0.8320	78.4000
 0.8360	78.4100
 0.8400	78.5600
 0.8440	78.5900
 0.8480	78.5800
 0.8520	78.5900
 0.8560	78.7500
 0.8600	78.7700
 0.8640	78.7000
 0.8680	78.8000
 0.8720	78.8000
 0.8760	78.7200
 0.8800	78.7400
 0.8840	78.7300
 0.8880	78.6800
 0.8920	78.7500
 0.8960	78.8400
 0.9000	78.9000
 0.9040	78.7500
 0.9080	78.7600
 0.9120	78.8400
 0.9160	78.7700
 0.9200	78.9100
 0.9240	78.8800
 0.9280	78.9200
 0.9320	78.8800
 0.9360	78.9900
 0.9400	78.9700
 0.9440	78.9400
 0.9480	78.9600
 0.9520	78.9400
 0.9560	79.0300
 0.9600	78.9800
 0.9640	79.0100
 0.9680	78.9700
 0.9720	78.9400
 0.9760	79.0400
 0.9800	79.0400
 0.9840	79.0700
 0.9880	78.9600
 0.9920	79.0600
 0.9960	79.0200
 1.0000	79.0300
 1.0040	79.0600
 1.0080	79.0700
 1.0120	79.0600
 1.0160	79.0600
 1.0200	79.0800
 1.0240	79.0900
 1.0280	79.0100
 1.0320	79.1000
 1.0360	79.1800
 1.0400	79.1900
 1.0440	79.2200
 1.0480	79.1700
 1.0520	79.1400
 1.0560	79.1800
 1.0600	79.1500
 1.0640	79.2300
 1.0680	79.1400
 1.0720	79.1700
 1.0760	79.2400
 1.0800	79.2200
 1.0840	79.2400
 1.0880	79.1700
 1.0920	79.2600
 1.0960	79.2300
 1.1000	79.2900
 1.1040	79.2200
 1.1080	79.2300
 1.1120	79.3300
 1.1160	79.3000
 1.1200	79.2500
 1.1240	79.2800
 1.1280	79.3600
 1.1320	79.3300
 1.1360	79.2500
 1.1400	79.2700
 1.1440	79.2800
 1.1480	79.2500
 1.1520	79.3700
 1.1560	79.2600
 1.1600	79.2100
 1.1640	79.2500
 1.1680	79.3100
 1.1720	79.2300
 1.1760	79.3200
 1.1800	79.2700
 1.1840	79.2400
 1.1880	79.2600
 1.1920	79.2400
 1.1960	79.2100
 1.2000	79.3400
 1.2040	79.3200
 1.2080	79.3000
 1.2120	79.3100
 1.2160	79.2700
 1.2200	79.2900
 1.2240	79.3500
 1.2280	79.4000
 1.2320	79.3900
 1.2360	79.3900
 1.2400	79.3700
 1.2440	79.4100
 1.2480	79.4900
 1.2520	79.4000
 1.2560	79.4000
 1.2600	79.4400
 1.2640	79.4800
 1.2680	79.4100
 1.2720	79.4500
 1.2760	79.4200
 1.2800	79.4200
 1.2840	79.5100
 1.2880	79.5600
 1.2920	79.4000
 1.2960	79.4400
 1.3000	79.3700
 1.3040	79.3800
 1.3080	79.3800
 1.3120	79.3100
 1.3160	79.2800
 1.3200	79.3500
 1.3240	79.3200
 1.3280	79.2700
 1.3320	79.2500
 1.3360	79.2600
 1.3400	79.3300
 1.3440	79.3100
 1.3480	79.3300
 1.3520	79.2800
 1.3560	79.3100
 1.3600	79.3100
 1.3640	79.2700
 1.3680	79.2100
 1.3720	79.2600
 1.3760	79.2200
 1.3800	79.1600
 1.3840	79.1200
 1.3880	79.0800
 1.3920	79.0000
 1.3960	78.9900
 1.4000	78.8400
 1.4040	78.8500
 1.4080	78.8700
 1.4120	78.8800
 1.4160	78.8000
 1.4200	78.8000
 1.4240	78.7600
 1.4280	78.8200
 1.4320	78.8200
 1.4360	78.9100
 1.4400	78.7900
 1.4440	78.8800
 1.4480	78.9200
 1.4520	78.9000
 1.4560	78.9400
 1.4600	78.9100
 1.4640	78.9300
 1.4680	78.9200
 1.4720	78.9200
 1.4760	78.9600
 1.4800	78.9600
 1.4840	79.0700
 1.4880	79.2000
 1.4920	79.2200
 1.4960	79.1500
 1.5000	79.2100
 1.5040	79.1900
 1.5080	79.1500
 1.5120	79.2800
 1.5160	79.2100
 1.5200	79.2600
 1.5240	79.1800
 1.5280	79.2700
 1.5320	79.2600
 1.5360	79.3300
 1.5400	79.3200
 1.5440	79.3100
 1.5480	79.3000
 1.5520	79.3400
 1.5560	79.3700
 1.5600	79.3600
 1.5640	79.4200
 1.5680	79.4400
 1.5720	79.4000
 1.5760	79.3700
 1.5800	79.4800
 1.5840	79.4500
 1.5880	79.3900
 1.5920	79.4600
 1.5960	79.5300
 1.6000	79.4300
 1.6040	79.4900
 1.6080	79.5000
 1.6120	79.5000
 1.6160	79.5000
 1.6200	79.4400
 1.6240	79.4200
 1.6280	79.5500
 1.6320	79.5300
 1.6360	79.5300
 1.6400	79.5700
 1.6440	79.6200
 1.6480	79.6100
 1.6520	79.6700
 1.6560	79.5900
 1.6600	79.6100
 1.6640	79.6400
 1.6680	79.6900
 1.6720	79.7000
 1.6760	79.6700
 1.6800	79.7500
 1.6840	79.6800
 1.6880	79.6900
 1.6920	79.7400
 1.6960	79.7300
 1.7000	79.7600
 1.7040	79.7800
 1.7080	79.7800
 1.7120	79.8200
 1.7160	79.8500
 1.7200	79.8300
 1.7240	79.7400
 1.7280	79.7100
 1.7320	79.7600
 1.7360	79.7100
 1.7400	79.6800
 1.7440	79.6300
 1.7480	79.6400
 1.7520	79.6400
 1.7560	79.6300
 1.7600	79.6400
 1.7640	79.7100
 1.7680	79.6900
 1.7720	79.6100
 1.7760	79.6400
 1.7800	79.6500
 1.7840	79.6200
 1.7880	79.6500
 1.7920	79.6900
 1.7960	79.6700
 1.8000	79.6900
 1.8040	79.7100
 1.8080	79.6300
 1.8120	79.6200
 1.8160	79.6700
 1.8200	79.6700
 1.8240	79.7500
 1.8280	79.6900
 1.8320	79.6500
 1.8360	79.7100
 1.8400	79.6500
 1.8440	79.6200
 1.8480	79.6500
 1.8520	79.6600
 1.8560	79.5000
 1.8600	79.5100
 1.8640	79.4500
 1.8680	79.3900
 1.8720	79.2700
 1.8760	79.1700
 1.8800	79.0100
 1.8840	78.8300
 1.8880	78.6800
 1.8920	78.4100
 1.8960	78.1600
 1.9000	77.9900
 1.9040	77.7600
 1.9080	77.5400
 1.9120	77.5100
 1.9160	77.2800
 1.9200	77.2800
 1.9240	77.3000
 1.9280	77.3000
 1.9320	77.2800
 1.9360	77.3000
 1.9400	77.3100
 1.9440	77.4200
 1.9480	77.4500
 1.9520	77.4900
 1.9560	77.5700
 1.9600	77.6300
 1.9640	77.6900
 1.9680	77.8500
 1.9720	77.9900
 1.9760	78.0700
 1.9800	78.1900
 1.9840	78.3000
 1.9880	78.4700
 1.9920	78.5500
 1.9960	78.7300
 2.0000	78.8000
 2.0040	78.8900
 2.0080	79.0200
 2.0120	79.0900
 2.0160	79.0700
 2.0200	79.3200
 2.0240	79.3900
 2.0280	79.3900
 2.0320	79.4300
 2.0360	79.5200
 2.0400	79.5500
 2.0440	79.5800
 2.0480	79.5700
 2.0520	79.6400
 2.0560	79.7100
 2.0600	79.7400
 2.0640	79.7100
 2.0680	79.8100
 2.0720	79.8900
 2.0760	79.9500
 2.0800	79.9400
 2.0840	80.1100
 2.0880	79.9800
 2.0920	80.0900
 2.0960	80.1700
 2.1000	80.1900
 2.1040	80.2400
 2.1080	80.3900
 2.1120	80.4000
 2.1160	80.5400
 2.1200	80.5700
 2.1240	80.5300
 2.1280	80.5500
 2.1320	80.5900
 2.1360	80.5600
 2.1400	80.5400
 2.1440	80.4300
 2.1480	80.4200
 2.1520	80.2400
 2.1560	80.1600
 2.1600	80.0200
 2.1640	80.0600
 2.1680	79.9500
 2.1720	79.9400
 2.1760	79.7500
 2.1800	79.7200
 2.1840	79.5700
 2.1880	79.5400
 2.1920	79.5200
 2.1960	79.4600
 2.2000	79.5300
 2.2040	79.4300
 2.2080	79.4500
 2.2120	79.5000
 2.2160	79.4500
 2.2200	79.5700
 2.2240	79.7000
 2.2280	79.7200
 2.2320	79.8200
 2.2360	79.7500
 2.2400	79.8000
 2.2440	79.8500
 2.2480	79.9000
 2.2520	79.9100
 2.2560	79.9600
 2.2600	79.9900
 2.2640	79.9700
 2.2680	80.0700
 2.2720	79.9600
 2.2760	79.9700
 2.2800	80.0100
 2.2840	79.9400
 2.2880	79.8600
 2.2920	79.9200
 2.2960	79.7600
 2.3000	79.7600
 2.3040	79.8400
 2.3080	79.9100
 2.3120	79.8800
 2.3160	79.9700
 2.3200	79.9600
 2.3240	79.9800
 2.3280	79.8800
 2.3320	79.8900
 2.3360	79.8800
 2.3400	79.9300
 2.3440	79.9000
 2.3480	79.9200
 2.3520	79.8200
 2.3560	79.8100
 2.3600	79.7300
 2.3640	79.6100
 2.3680	79.6400
 2.3720	79.6100
 2.3760	79.6900
 2.3800	79.6900
 2.3840	79.5800
 2.3880	79.5600
 2.3920	79.4200
 2.3960	79.4900
 2.4000	79.5300
 2.4040	79.6000
 2.4080	79.4900
 2.4120	79.4800
 2.4160	79.4500
 2.4200	79.4000
 2.4240	79.2900
 2.4280	79.2100
 2.4320	79.1600
 2.4360	79.1100
 2.4400	79.1500
 2.4440	79.0300
 2.4480	78.9000
 2.4520	78.9100
 2.4560	78.9500
 2.4600	78.8000
 2.4640	78.7800
 2.4680	78.7400
 2.4720	78.7300
 2.4760	78.6500
 2.4800	78.8300
 2.4840	78.9100
 2.4880	78.9700
 2.4920	79.0100
 2.4960	79.0600
 2.5000	79.0800
