Name: Chlorite
Type: Mineral
Class: Silicate
Subclass: Phyllosilicate
Particle Size: Coarse
Sample No.: PS-12E
Owner: JPL
Wavelength Range: VSWIR
Origin: USA, Vermont.
Collection Date: N/A
Description: Particle size was 125-500um. Collected by:  Ward's Original ASTER Spectral Library name was jpl.perkin.mineral.silicate.phyllosilicate.coarse.ps12e.spectrum.txt
Measurement: Hemispherical reflectance
First Column: X
Second Column: Y
X Units: Wavelength (micrometers)
Y Units:Reflectance (percent)
First X Value:  2.5000
Last X Value:  0.4000
Number of X Values: 2101
Additional Information: mineral.silicate.phyllosilicate.coarse.vswir.ps-12e.jpl.perkin.ancillary.txt

 2.5000	17.4085
 2.4990	17.5298
 2.4980	17.3573
 2.4970	17.6479
 2.4960	17.1201
 2.4950	17.7247
 2.4940	17.3827
 2.4930	17.5481
 2.4920	17.3667
 2.4910	17.5629
 2.4900	17.3312
 2.4890	17.6050
 2.4880	17.2470
 2.4870	17.7121
 2.4860	17.4403
 2.4850	17.5043
 2.4840	17.4301
 2.4830	17.5081
 2.4820	17.5155
 2.4810	17.7274
 2.4800	17.5848
 2.4790	17.6551
 2.4780	17.5219
 2.4770	17.6653
 2.4760	17.5250
 2.4750	17.8063
 2.4740	17.6658
 2.4730	17.7555
 2.4720	17.7013
 2.4710	17.9791
 2.4700	17.8865
 2.4690	17.9454
 2.4680	17.9564
 2.4670	18.1262
 2.4660	17.9901
 2.4650	18.1910
 2.4640	18.0483
 2.4630	18.3652
 2.4620	18.2753
 2.4610	18.5227
 2.4600	18.3887
 2.4590	18.5880
 2.4580	18.6156
 2.4570	18.7260
 2.4560	18.8428
 2.4550	18.9771
 2.4540	19.0015
 2.4530	19.2222
 2.4520	19.0715
 2.4510	19.2612
 2.4500	19.2779
 2.4490	19.3847
 2.4480	19.4337
 2.4470	19.5662
 2.4460	19.5668
 2.4450	19.6912
 2.4440	19.7286
 2.4430	19.7829
 2.4420	19.7567
 2.4410	19.9409
 2.4400	19.8644
 2.4390	20.0129
 2.4380	19.9938
 2.4370	20.1303
 2.4360	20.0859
 2.4350	20.1919
 2.4340	20.1580
 2.4330	20.2574
 2.4320	20.2883
 2.4310	20.3959
 2.4300	20.3903
 2.4290	20.5912
 2.4280	20.5127
 2.4270	20.5184
 2.4260	20.5273
 2.4250	20.6298
 2.4240	20.6211
 2.4230	20.6749
 2.4220	20.6707
 2.4210	20.7790
 2.4200	20.6890
 2.4190	20.7701
 2.4180	20.8107
 2.4170	20.8586
 2.4160	20.6963
 2.4150	20.6801
 2.4140	20.7090
 2.4130	20.7836
 2.4120	20.6592
 2.4110	20.6015
 2.4100	20.5744
 2.4090	20.4843
 2.4080	20.3870
 2.4070	20.3871
 2.4060	20.4023
 2.4050	20.3096
 2.4040	20.1805
 2.4030	20.0902
 2.4020	19.9736
 2.4010	20.0371
 2.4000	19.8806
 2.3990	19.8628
 2.3980	19.7411
 2.3970	19.6569
 2.3960	19.5529
 2.3950	19.5097
 2.3940	19.4881
 2.3930	19.5404
 2.3920	19.3929
 2.3910	19.3451
 2.3900	19.2853
 2.3890	19.2639
 2.3880	19.2239
 2.3870	19.2181
 2.3860	19.1345
 2.3850	19.1136
 2.3840	19.0854
 2.3830	19.0171
 2.3820	18.9566
 2.3810	18.9385
 2.3800	18.8599
 2.3790	18.8569
 2.3780	18.7802
 2.3770	18.7023
 2.3760	18.5592
 2.3750	18.5222
 2.3740	18.4864
 2.3730	18.4194
 2.3720	18.2905
 2.3710	18.1494
 2.3700	18.0013
 2.3690	17.9222
 2.3680	17.7793
 2.3670	17.6579
 2.3660	17.4875
 2.3650	17.3881
 2.3640	17.1809
 2.3630	17.0473
 2.3620	16.9426
 2.3610	16.7096
 2.3600	16.5707
 2.3590	16.4904
 2.3580	16.2578
 2.3570	16.0793
 2.3560	15.9341
 2.3550	15.7989
 2.3540	15.6803
 2.3530	15.5874
 2.3520	15.4595
 2.3510	15.3137
 2.3500	15.2270
 2.3490	15.0640
 2.3480	14.9750
 2.3470	14.8807
 2.3460	14.7642
 2.3450	14.6828
 2.3440	14.6059
 2.3430	14.5255
 2.3420	14.4737
 2.3410	14.3780
 2.3400	14.3494
 2.3390	14.2791
 2.3380	14.2306
 2.3370	14.1948
 2.3360	14.1845
 2.3350	14.1723
 2.3340	14.1648
 2.3330	14.1074
 2.3320	14.1682
 2.3310	14.2013
 2.3300	14.1576
 2.3290	14.1853
 2.3280	14.2522
 2.3270	14.2435
 2.3260	14.3465
 2.3250	14.4103
 2.3240	14.4314
 2.3230	14.4102
 2.3220	14.5233
 2.3210	14.6300
 2.3200	14.7080
 2.3190	14.7543
 2.3180	14.9203
 2.3170	14.9813
 2.3160	15.0668
 2.3150	15.0895
 2.3140	15.1806
 2.3130	15.3067
 2.3120	15.3667
 2.3110	15.3698
 2.3100	15.4884
 2.3090	15.5224
 2.3080	15.6371
 2.3070	15.6318
 2.3060	15.7264
 2.3050	15.7615
 2.3040	15.8119
 2.3030	15.8163
 2.3020	15.9361
 2.3010	15.9169
 2.3000	16.0345
 2.2990	16.0122
 2.2980	16.0243
 2.2970	16.0876
 2.2960	16.1991
 2.2950	16.1937
 2.2940	16.2478
 2.2930	16.3185
 2.2920	16.4032
 2.2910	16.5196
 2.2900	16.7229
 2.2890	16.8246
 2.2880	16.9875
 2.2870	17.1248
 2.2860	17.3257
 2.2850	17.4369
 2.2840	17.6384
 2.2830	17.7621
 2.2820	17.9619
 2.2810	18.1754
 2.2800	18.4198
 2.2790	18.5339
 2.2780	18.7245
 2.2770	18.7868
 2.2760	18.9783
 2.2750	19.0717
 2.2740	19.2639
 2.2730	19.3009
 2.2720	19.4556
 2.2710	19.3699
 2.2700	19.5680
 2.2690	19.5254
 2.2680	19.5743
 2.2670	19.4918
 2.2660	19.5714
 2.2650	19.4423
 2.2640	19.4929
 2.2630	19.3804
 2.2620	19.3242
 2.2610	19.2079
 2.2600	19.2504
 2.2590	19.0808
 2.2580	19.0523
 2.2570	18.8110
 2.2560	18.8256
 2.2550	18.6932
 2.2540	18.6449
 2.2530	18.5862
 2.2520	18.5645
 2.2510	18.5446
 2.2500	18.4967
 2.2490	18.5533
 2.2480	18.6279
 2.2470	18.7006
 2.2460	18.8889
 2.2450	18.9502
 2.2440	19.2479
 2.2430	19.4707
 2.2420	19.8133
 2.2410	20.0606
 2.2400	20.4045
 2.2390	20.7970
 2.2380	21.2707
 2.2370	21.6163
 2.2360	22.0685
 2.2350	22.3566
 2.2340	22.9746
 2.2330	23.2724
 2.2320	23.8206
 2.2310	24.0245
 2.2300	24.5198
 2.2290	24.7464
 2.2280	25.2763
 2.2270	25.4537
 2.2260	25.7648
 2.2250	25.9963
 2.2240	26.3063
 2.2230	26.5247
 2.2220	26.7674
 2.2210	26.9180
 2.2200	27.2231
 2.2190	27.3615
 2.2180	27.6777
 2.2170	27.6817
 2.2160	27.9860
 2.2150	28.0856
 2.2140	28.2186
 2.2130	28.3034
 2.2120	28.6242
 2.2110	28.4330
 2.2100	28.7941
 2.2090	28.7809
 2.2080	28.9903
 2.2070	28.9813
 2.2060	29.1913
 2.2050	29.1841
 2.2040	29.4054
 2.2030	29.3760
 2.2020	29.5254
 2.2010	29.5383
 2.2000	29.6859
 2.1990	29.6932
 2.1980	29.7530
 2.1970	29.7831
 2.1960	30.0153
 2.1950	29.9095
 2.1940	30.0328
 2.1930	30.0997
 2.1920	30.2235
 2.1910	30.1774
 2.1900	30.3409
 2.1890	30.3356
 2.1880	30.3686
 2.1870	30.4976
 2.1860	30.5682
 2.1850	30.6177
 2.1840	30.7491
 2.1830	30.6387
 2.1820	30.7360
 2.1810	30.8406
 2.1800	30.9037
 2.1790	30.9503
 2.1780	31.0462
 2.1770	31.0236
 2.1760	31.1562
 2.1750	31.1719
 2.1740	31.2613
 2.1730	31.2411
 2.1720	31.3014
 2.1710	31.2999
 2.1700	31.3847
 2.1690	31.3780
 2.1680	31.4979
 2.1670	31.4339
 2.1660	31.5592
 2.1650	31.5587
 2.1640	31.6362
 2.1630	31.5717
 2.1620	31.6269
 2.1610	31.6775
 2.1600	31.7786
 2.1590	31.7146
 2.1580	31.7587
 2.1570	31.7611
 2.1560	31.8814
 2.1550	31.7710
 2.1540	31.8453
 2.1530	31.8341
 2.1520	31.8763
 2.1510	31.9214
 2.1500	31.9874
 2.1490	31.8943
 2.1480	31.9292
 2.1470	31.8968
 2.1460	31.9984
 2.1450	31.9668
 2.1440	32.0061
 2.1430	31.9481
 2.1420	32.0007
 2.1410	31.9749
 2.1400	31.9792
 2.1390	32.0206
 2.1380	31.9613
 2.1370	31.9100
 2.1360	31.9086
 2.1350	31.8872
 2.1340	31.9042
 2.1330	31.8729
 2.1320	31.9326
 2.1310	31.8220
 2.1300	31.8083
 2.1290	31.7492
 2.1280	31.7216
 2.1270	31.7077
 2.1260	31.7240
 2.1250	31.6302
 2.1240	31.6504
 2.1230	31.5497
 2.1220	31.5888
 2.1210	31.5412
 2.1200	31.5622
 2.1190	31.4844
 2.1180	31.5057
 2.1170	31.4935
 2.1160	31.4597
 2.1150	31.4430
 2.1140	31.4522
 2.1130	31.3986
 2.1120	31.3967
 2.1110	31.4104
 2.1100	31.4337
 2.1090	31.3718
 2.1080	31.3595
 2.1070	31.4024
 2.1060	31.4274
 2.1050	31.3495
 2.1040	31.3472
 2.1030	31.3542
 2.1020	31.4144
 2.1010	31.4077
 2.1000	31.4232
 2.0990	31.4121
 2.0980	31.4936
 2.0970	31.4973
 2.0960	31.4955
 2.0950	31.5492
 2.0940	31.5886
 2.0930	31.5716
 2.0920	31.6222
 2.0910	31.5871
 2.0900	31.5996
 2.0890	31.6596
 2.0880	31.7105
 2.0870	31.6928
 2.0860	31.6460
 2.0850	31.5935
 2.0840	31.6030
 2.0830	31.5865
 2.0820	31.5711
 2.0810	31.5194
 2.0800	31.5434
 2.0790	31.5640
 2.0780	31.5704
 2.0770	31.5353
 2.0760	31.4894
 2.0750	31.4747
 2.0740	31.4223
 2.0730	31.4147
 2.0720	31.3950
 2.0710	31.3944
 2.0700	31.4158
 2.0690	31.3524
 2.0680	31.3460
 2.0670	31.3044
 2.0660	31.2407
 2.0650	31.2776
 2.0640	31.2687
 2.0630	31.2353
 2.0620	31.1708
 2.0610	31.1432
 2.0600	31.1015
 2.0590	31.0743
 2.0580	31.0202
 2.0570	31.0150
 2.0560	30.9209
 2.0550	30.8828
 2.0540	30.8609
 2.0530	30.8663
 2.0520	30.8279
 2.0510	30.7939
 2.0500	30.7311
 2.0490	30.6529
 2.0480	30.5942
 2.0470	30.5672
 2.0460	30.4574
 2.0450	30.3998
 2.0440	30.3901
 2.0430	30.3468
 2.0420	30.2221
 2.0410	30.1670
 2.0400	30.1066
 2.0390	30.0925
 2.0380	29.9722
 2.0370	29.8886
 2.0360	29.7807
 2.0350	29.7206
 2.0340	29.6267
 2.0330	29.5546
 2.0320	29.4111
 2.0310	29.3311
 2.0300	29.2425
 2.0290	29.1363
 2.0280	29.0111
 2.0270	28.9319
 2.0260	28.8043
 2.0250	28.7727
 2.0240	28.6343
 2.0230	28.4904
 2.0220	28.3150
 2.0210	28.2454
 2.0200	28.1218
 2.0190	28.0422
 2.0180	27.9153
 2.0170	27.8573
 2.0160	27.7199
 2.0150	27.6102
 2.0140	27.4883
 2.0130	27.4488
 2.0120	27.2986
 2.0110	27.2432
 2.0100	27.1463
 2.0090	27.1418
 2.0080	27.0386
 2.0070	27.0556
 2.0060	26.9416
 2.0050	26.9682
 2.0040	26.8784
 2.0030	26.8130
 2.0020	26.6985
 2.0010	26.7247
 2.0000	26.7018
 1.9990	26.6744
 1.9980	26.6041
 1.9970	26.6304
 1.9960	26.5947
 1.9950	26.6507
 1.9940	26.5484
 1.9930	26.6043
 1.9920	26.5538
 1.9910	26.5609
 1.9900	26.4991
 1.9890	26.5315
 1.9880	26.5785
 1.9870	26.6147
 1.9860	26.5394
 1.9850	26.6786
 1.9840	26.5307
 1.9830	26.6557
 1.9820	26.6391
 1.9810	26.7567
 1.9800	26.7078
 1.9790	26.7506
 1.9780	26.7438
 1.9770	26.8320
 1.9760	26.7819
 1.9750	27.0435
 1.9740	26.9722
 1.9730	27.0530
 1.9720	27.0297
 1.9710	27.1730
 1.9700	27.0873
 1.9690	27.2312
 1.9680	27.2053
 1.9670	27.2940
 1.9660	27.2913
 1.9650	27.3871
 1.9640	27.3122
 1.9630	27.4373
 1.9620	27.4506
 1.9610	27.4472
 1.9600	27.3290
 1.9590	27.4958
 1.9580	27.4292
 1.9570	27.5018
 1.9560	27.3913
 1.9550	27.4617
 1.9540	27.4898
 1.9530	27.5603
 1.9520	27.4232
 1.9510	27.5745
 1.9500	27.5708
 1.9490	27.6656
 1.9480	27.5808
 1.9470	27.6672
 1.9460	27.6849
 1.9450	27.7921
 1.9440	27.7544
 1.9430	27.8699
 1.9420	27.8850
 1.9410	27.8809
 1.9400	27.8903
 1.9390	28.0282
 1.9380	27.9816
 1.9370	28.1111
 1.9360	28.1386
 1.9350	28.1968
 1.9340	28.1685
 1.9330	28.2340
 1.9320	28.2344
 1.9310	28.2614
 1.9300	28.2067
 1.9290	28.2971
 1.9280	28.1234
 1.9270	28.3941
 1.9260	28.1858
 1.9250	28.3712
 1.9240	28.2484
 1.9230	28.4368
 1.9220	28.2279
 1.9210	28.3979
 1.9200	28.2783
 1.9190	28.3828
 1.9180	28.2888
 1.9170	28.3987
 1.9160	28.2490
 1.9150	28.3657
 1.9140	28.1884
 1.9130	28.3600
 1.9120	28.2195
 1.9110	28.2945
 1.9100	28.2778
 1.9090	28.3012
 1.9080	28.1228
 1.9070	28.2424
 1.9060	28.2208
 1.9050	28.2487
 1.9040	28.0997
 1.9030	28.1363
 1.9020	28.0498
 1.9010	28.1003
 1.9000	28.0203
 1.8990	27.9907
 1.8980	27.9701
 1.8970	27.9881
 1.8960	27.8939
 1.8950	27.9578
 1.8940	27.7689
 1.8930	27.8688
 1.8920	27.6873
 1.8910	27.7399
 1.8900	27.5692
 1.8890	27.5650
 1.8880	27.5045
 1.8870	27.5654
 1.8860	27.3232
 1.8850	27.3606
 1.8840	27.2570
 1.8830	27.2807
 1.8820	27.2058
 1.8810	27.2845
 1.8800	27.2008
 1.8790	27.2652
 1.8780	27.2371
 1.8770	27.2502
 1.8760	27.1861
 1.8750	27.1992
 1.8740	27.1711
 1.8730	27.2343
 1.8720	27.1572
 1.8710	27.2819
 1.8700	27.1880
 1.8690	27.2149
 1.8680	27.2544
 1.8670	27.3019
 1.8660	27.3119
 1.8650	27.3480
 1.8640	27.4036
 1.8630	27.3839
 1.8620	27.4210
 1.8610	27.4393
 1.8600	27.3933
 1.8590	27.3859
 1.8580	27.3968
 1.8570	27.4581
 1.8560	27.3782
 1.8550	27.5221
 1.8540	27.4375
 1.8530	27.4631
 1.8520	27.4997
 1.8510	27.6166
 1.8500	27.5122
 1.8490	27.5710
 1.8480	27.4924
 1.8470	27.4986
 1.8460	27.5200
 1.8450	27.5709
 1.8440	27.5987
 1.8430	27.6449
 1.8420	27.6163
 1.8410	27.6378
 1.8400	27.5985
 1.8390	27.6237
 1.8380	27.5893
 1.8370	27.5701
 1.8360	27.5704
 1.8350	27.6312
 1.8340	27.6073
 1.8330	27.6633
 1.8320	27.6360
 1.8310	27.6568
 1.8300	27.5925
 1.8290	27.5953
 1.8280	27.5307
 1.8270	27.5716
 1.8260	27.5976
 1.8250	27.5925
 1.8240	27.5304
 1.8230	27.5551
 1.8220	27.5301
 1.8210	27.5356
 1.8200	27.4465
 1.8190	27.4547
 1.8180	27.4293
 1.8170	27.4755
 1.8160	27.4378
 1.8150	27.4661
 1.8140	27.4327
 1.8130	27.4248
 1.8120	27.3369
 1.8110	27.3488
 1.8100	27.3786
 1.8090	27.3778
 1.8080	27.3174
 1.8070	27.3095
 1.8060	27.2683
 1.8050	27.2546
 1.8040	27.2613
 1.8030	27.2761
 1.8020	27.2183
 1.8010	27.1732
 1.8000	27.1762
 1.7990	27.2429
 1.7980	27.2035
 1.7970	27.1785
 1.7960	27.1163
 1.7950	27.1054
 1.7940	27.1736
 1.7930	27.0878
 1.7920	27.0380
 1.7910	27.0531
 1.7900	26.9810
 1.7890	26.9667
 1.7880	26.9671
 1.7870	26.9030
 1.7860	26.8608
 1.7850	26.8819
 1.7840	26.8594
 1.7830	26.8206
 1.7820	26.8534
 1.7810	26.8228
 1.7800	26.7521
 1.7790	26.7413
 1.7780	26.7484
 1.7770	26.7100
 1.7760	26.6784
 1.7750	26.5887
 1.7740	26.5514
 1.7730	26.5345
 1.7720	26.5452
 1.7710	26.5496
 1.7700	26.5167
 1.7690	26.4702
 1.7680	26.4489
 1.7670	26.4197
 1.7660	26.4460
 1.7650	26.4172
 1.7640	26.4369
 1.7630	26.3689
 1.7620	26.2987
 1.7610	26.2600
 1.7600	26.2630
 1.7590	26.2275
 1.7580	26.2094
 1.7570	26.1464
 1.7560	26.1627
 1.7550	26.0878
 1.7540	26.0489
 1.7530	26.0786
 1.7520	26.0260
 1.7510	25.9678
 1.7500	25.9829
 1.7490	25.9407
 1.7480	25.9117
 1.7470	25.8643
 1.7460	25.8775
 1.7450	25.8489
 1.7440	25.8262
 1.7430	25.8031
 1.7420	25.7532
 1.7410	25.6961
 1.7400	25.6686
 1.7390	25.6635
 1.7380	25.6540
 1.7370	25.5724
 1.7360	25.5958
 1.7350	25.5129
 1.7340	25.5708
 1.7330	25.4779
 1.7320	25.4521
 1.7310	25.4106
 1.7300	25.4771
 1.7290	25.3420
 1.7280	25.3816
 1.7270	25.2810
 1.7260	25.2984
 1.7250	25.2446
 1.7240	25.2935
 1.7230	25.1719
 1.7220	25.1876
 1.7210	25.1501
 1.7200	25.0758
 1.7190	25.0500
 1.7180	25.0464
 1.7170	24.9333
 1.7160	24.9794
 1.7150	24.8748
 1.7140	24.9006
 1.7130	24.8070
 1.7120	24.8731
 1.7110	24.7641
 1.7100	24.7886
 1.7090	24.6045
 1.7080	24.6629
 1.7070	24.6850
 1.7060	24.6581
 1.7050	24.5817
 1.7040	24.4569
 1.7030	24.4251
 1.7020	24.4462
 1.7010	24.3768
 1.7000	24.3640
 1.6990	24.2793
 1.6980	24.2892
 1.6970	24.1797
 1.6960	24.2588
 1.6950	24.1998
 1.6940	24.2129
 1.6930	24.0995
 1.6920	24.1509
 1.6910	24.0355
 1.6900	24.0004
 1.6890	23.9439
 1.6880	23.9482
 1.6870	23.9039
 1.6860	23.8952
 1.6850	23.7749
 1.6840	23.8194
 1.6830	23.6882
 1.6820	23.7338
 1.6810	23.6442
 1.6800	23.6795
 1.6790	23.5503
 1.6780	23.6392
 1.6770	23.5131
 1.6760	23.5647
 1.6750	23.4643
 1.6740	23.4443
 1.6730	23.3014
 1.6720	23.3829
 1.6710	23.1685
 1.6700	23.2485
 1.6690	23.3290
 1.6680	23.1112
 1.6670	23.0481
 1.6660	23.1743
 1.6650	22.9976
 1.6640	23.0532
 1.6630	22.9985
 1.6620	22.9658
 1.6610	22.8834
 1.6600	22.8787
 1.6590	22.7813
 1.6580	22.8165
 1.6570	22.7070
 1.6560	22.7356
 1.6550	22.6988
 1.6540	22.7245
 1.6530	22.5009
 1.6520	22.5684
 1.6510	22.4090
 1.6500	22.5506
 1.6490	22.3752
 1.6480	22.3781
 1.6470	22.2771
 1.6460	22.3746
 1.6450	22.1953
 1.6440	22.2693
 1.6430	22.1543
 1.6420	22.3106
 1.6410	21.9900
 1.6400	22.1895
 1.6390	21.9453
 1.6380	21.9904
 1.6370	21.9331
 1.6360	21.8944
 1.6350	21.7910
 1.6340	21.8926
 1.6330	21.7094
 1.6320	21.7559
 1.6310	21.5994
 1.6300	21.7124
 1.6290	21.4899
 1.6280	21.5503
 1.6270	21.4325
 1.6260	21.4838
 1.6250	21.3251
 1.6240	21.3638
 1.6230	21.3707
 1.6220	21.2753
 1.6210	21.2337
 1.6200	21.2113
 1.6190	21.1171
 1.6180	21.0979
 1.6170	20.9879
 1.6160	21.0671
 1.6150	20.9381
 1.6140	20.9570
 1.6130	20.8340
 1.6120	20.9184
 1.6110	20.7400
 1.6100	20.7822
 1.6090	20.6902
 1.6080	20.6850
 1.6070	20.5849
 1.6060	20.6600
 1.6050	20.5123
 1.6040	20.5194
 1.6030	20.4249
 1.6020	20.4230
 1.6010	20.2368
 1.6000	20.3581
 1.5990	20.2232
 1.5980	20.2841
 1.5970	20.1813
 1.5960	20.1830
 1.5950	20.0741
 1.5940	20.0477
 1.5930	19.9720
 1.5920	19.9444
 1.5910	19.8292
 1.5900	19.8835
 1.5890	19.8822
 1.5880	19.8150
 1.5870	19.6895
 1.5860	19.6963
 1.5850	19.6286
 1.5840	19.6345
 1.5830	19.4361
 1.5820	19.5058
 1.5810	19.4396
 1.5800	19.4307
 1.5790	19.3112
 1.5780	19.2853
 1.5770	19.2136
 1.5760	19.2362
 1.5750	19.1528
 1.5740	19.1824
 1.5730	19.1031
 1.5720	19.1456
 1.5710	18.9889
 1.5700	18.9744
 1.5690	18.8480
 1.5680	18.9601
 1.5670	18.8665
 1.5660	18.7884
 1.5650	18.7548
 1.5640	18.7801
 1.5630	18.6565
 1.5620	18.6727
 1.5610	18.5823
 1.5600	18.5664
 1.5590	18.4908
 1.5580	18.5279
 1.5570	18.4031
 1.5560	18.4288
 1.5550	18.3748
 1.5540	18.3948
 1.5530	18.3225
 1.5520	18.3323
 1.5510	18.2657
 1.5500	18.2514
 1.5490	18.1699
 1.5480	18.1498
 1.5470	18.0799
 1.5460	18.0689
 1.5450	18.0183
 1.5440	18.0345
 1.5430	18.0116
 1.5420	17.9397
 1.5410	17.8644
 1.5400	17.8950
 1.5390	17.8662
 1.5380	17.8354
 1.5370	17.7333
 1.5360	17.7589
 1.5350	17.7143
 1.5340	17.7750
 1.5330	17.7116
 1.5320	17.6440
 1.5310	17.6533
 1.5300	17.6872
 1.5290	17.5945
 1.5280	17.5418
 1.5270	17.5183
 1.5260	17.5967
 1.5250	17.5225
 1.5240	17.4434
 1.5230	17.4039
 1.5220	17.4433
 1.5210	17.4127
 1.5200	17.3943
 1.5190	17.3857
 1.5180	17.3918
 1.5170	17.3608
 1.5160	17.3344
 1.5150	17.3051
 1.5140	17.2778
 1.5130	17.2506
 1.5120	17.2943
 1.5110	17.2606
 1.5100	17.2110
 1.5090	17.1927
 1.5080	17.1904
 1.5070	17.1588
 1.5060	17.1528
 1.5050	17.0895
 1.5040	17.1416
 1.5030	17.1692
 1.5020	17.1035
 1.5010	17.0793
 1.5000	17.0323
 1.4990	16.9737
 1.4980	16.9781
 1.4970	16.9704
 1.4960	16.9503
 1.4950	16.9523
 1.4940	16.8830
 1.4930	16.8240
 1.4920	16.7832
 1.4910	16.8216
 1.4900	16.8044
 1.4890	16.7548
 1.4880	16.7522
 1.4870	16.7260
 1.4860	16.6737
 1.4850	16.6427
 1.4840	16.5627
 1.4830	16.5298
 1.4820	16.4897
 1.4810	16.4336
 1.4800	16.4369
 1.4790	16.4051
 1.4780	16.3539
 1.4770	16.3231
 1.4760	16.2667
 1.4750	16.2615
 1.4740	16.1796
 1.4730	16.1284
 1.4720	16.0758
 1.4710	16.0736
 1.4700	16.0088
 1.4690	15.9928
 1.4680	15.8967
 1.4670	15.9284
 1.4660	15.8890
 1.4650	15.8864
 1.4640	15.8208
 1.4630	15.7401
 1.4620	15.6112
 1.4610	15.6177
 1.4600	15.5406
 1.4590	15.6190
 1.4580	15.5229
 1.4570	15.4568
 1.4560	15.4010
 1.4550	15.4191
 1.4540	15.3577
 1.4530	15.2994
 1.4520	15.1982
 1.4510	15.1405
 1.4500	15.1447
 1.4490	15.1323
 1.4480	15.0777
 1.4470	15.0574
 1.4460	15.0082
 1.4450	15.0083
 1.4440	14.9415
 1.4430	14.9882
 1.4420	14.9395
 1.4410	14.9317
 1.4400	14.8972
 1.4390	14.9501
 1.4380	14.8272
 1.4370	14.8604
 1.4360	14.8416
 1.4350	14.8588
 1.4340	14.8237
 1.4330	14.9131
 1.4320	14.8224
 1.4310	14.8674
 1.4300	14.8123
 1.4290	14.8890
 1.4280	14.7857
 1.4270	14.8289
 1.4260	14.7627
 1.4250	14.7697
 1.4240	14.6786
 1.4230	14.7212
 1.4220	14.5894
 1.4210	14.6129
 1.4200	14.4132
 1.4190	14.3967
 1.4180	14.2896
 1.4170	14.2631
 1.4160	14.1142
 1.4150	14.0689
 1.4140	13.8775
 1.4130	13.9117
 1.4120	13.7906
 1.4110	13.7718
 1.4100	13.7218
 1.4090	13.7832
 1.4080	13.6430
 1.4070	13.6541
 1.4060	13.6277
 1.4050	13.6897
 1.4040	13.6518
 1.4030	13.6476
 1.4020	13.5261
 1.4010	13.4407
 1.4000	13.2489
 1.3990	13.2945
 1.3980	13.0105
 1.3970	13.0542
 1.3960	12.8152
 1.3950	12.7240
 1.3940	12.5607
 1.3930	12.5989
 1.3920	12.6242
 1.3910	12.8169
 1.3900	12.8639
 1.3890	13.1061
 1.3880	13.2261
 1.3870	13.4818
 1.3860	13.6199
 1.3850	13.9400
 1.3840	13.7879
 1.3830	14.0528
 1.3820	13.9017
 1.3810	13.8631
 1.3800	13.8309
 1.3790	14.0496
 1.3780	13.8631
 1.3770	13.9365
 1.3760	13.8856
 1.3750	13.9536
 1.3740	13.6929
 1.3730	13.8117
 1.3720	13.6894
 1.3710	13.7973
 1.3700	13.6411
 1.3690	13.6895
 1.3680	13.5661
 1.3670	13.6168
 1.3660	13.5823
 1.3650	13.6287
 1.3640	13.4454
 1.3630	13.5925
 1.3620	13.3088
 1.3610	13.4578
 1.3600	13.2865
 1.3590	13.3628
 1.3580	13.3187
 1.3570	13.3729
 1.3560	13.2448
 1.3550	13.1272
 1.3540	13.1633
 1.3530	13.1290
 1.3520	13.0768
 1.3510	13.1741
 1.3500	13.0039
 1.3490	13.0290
 1.3480	12.9471
 1.3470	13.0042
 1.3460	12.8356
 1.3450	12.9430
 1.3440	12.8029
 1.3430	12.8378
 1.3420	12.7349
 1.3410	12.7584
 1.3400	12.7084
 1.3390	12.7018
 1.3380	12.6554
 1.3370	12.6567
 1.3360	12.5627
 1.3350	12.6126
 1.3340	12.4830
 1.3330	12.5609
 1.3320	12.5069
 1.3310	12.4506
 1.3300	12.3734
 1.3290	12.5439
 1.3280	12.3126
 1.3270	12.3756
 1.3260	12.2667
 1.3250	12.3307
 1.3240	12.2746
 1.3230	12.2663
 1.3220	12.1673
 1.3210	12.1812
 1.3200	12.0302
 1.3190	12.1185
 1.3180	12.0390
 1.3170	12.0658
 1.3160	11.9464
 1.3150	12.0657
 1.3140	11.9330
 1.3130	12.0038
 1.3120	11.8664
 1.3110	11.8981
 1.3100	11.8495
 1.3090	11.8351
 1.3080	11.6825
 1.3070	11.7674
 1.3060	11.8013
 1.3050	11.7349
 1.3040	11.6380
 1.3030	11.6403
 1.3020	11.5349
 1.3010	11.5959
 1.3000	11.5278
 1.2990	11.5747
 1.2980	11.4552
 1.2970	11.5188
 1.2960	11.4231
 1.2950	11.3813
 1.2940	11.3310
 1.2930	11.3658
 1.2920	11.3007
 1.2910	11.3618
 1.2900	11.2480
 1.2890	11.2837
 1.2880	11.2007
 1.2870	11.1600
 1.2860	11.1211
 1.2850	11.1651
 1.2840	11.0290
 1.2830	11.0662
 1.2820	11.0341
 1.2810	11.0511
 1.2800	10.9645
 1.2790	10.9952
 1.2780	10.9435
 1.2770	10.9242
 1.2760	10.8375
 1.2750	10.9010
 1.2740	10.8542
 1.2730	10.8152
 1.2720	10.7691
 1.2710	10.7836
 1.2700	10.7122
 1.2690	10.7658
 1.2680	10.7131
 1.2670	10.7044
 1.2660	10.6259
 1.2650	10.6114
 1.2640	10.5584
 1.2630	10.6247
 1.2620	10.5222
 1.2610	10.4668
 1.2600	10.3903
 1.2590	10.4161
 1.2580	10.3582
 1.2570	10.4068
 1.2560	10.3701
 1.2550	10.3581
 1.2540	10.2711
 1.2530	10.3017
 1.2520	10.2916
 1.2510	10.3209
 1.2500	10.2086
 1.2490	10.1835
 1.2480	10.1611
 1.2470	10.1657
 1.2460	10.1404
 1.2450	10.0990
 1.2440	10.1067
 1.2430	10.0854
 1.2420	10.0029
 1.2410	10.0487
 1.2400	 9.9976
 1.2390	 9.9857
 1.2380	 9.9171
 1.2370	 9.8942
 1.2360	 9.8899
 1.2350	 9.8409
 1.2340	 9.8335
 1.2330	 9.7960
 1.2320	 9.7449
 1.2310	 9.7601
 1.2300	 9.7117
 1.2290	 9.6833
 1.2280	 9.6856
 1.2270	 9.6687
 1.2260	 9.6163
 1.2250	 9.6326
 1.2240	 9.6177
 1.2230	 9.5874
 1.2220	 9.5505
 1.2210	 9.5596
 1.2200	 9.4818
 1.2190	 9.4341
 1.2180	 9.4167
 1.2170	 9.4032
 1.2160	 9.4073
 1.2150	 9.3918
 1.2140	 9.3738
 1.2130	 9.3561
 1.2120	 9.3669
 1.2110	 9.3577
 1.2100	 9.3310
 1.2090	 9.3291
 1.2080	 9.3146
 1.2070	 9.2202
 1.2060	 9.1775
 1.2050	 9.1847
 1.2040	 9.1760
 1.2030	 9.1226
 1.2020	 9.0991
 1.2010	 9.0968
 1.2000	 9.1360
 1.1990	 9.1251
 1.1980	 9.0949
 1.1970	 9.0378
 1.1960	 8.9892
 1.1950	 8.9738
 1.1940	 9.0016
 1.1930	 8.9694
 1.1920	 8.9831
 1.1910	 8.9633
 1.1900	 8.9662
 1.1890	 8.9440
 1.1880	 8.8144
 1.1870	 8.8012
 1.1860	 8.8899
 1.1850	 8.7894
 1.1840	 8.8281
 1.1830	 8.8044
 1.1820	 8.7909
 1.1810	 8.7402
 1.1800	 8.7566
 1.1790	 8.7143
 1.1780	 8.7048
 1.1770	 8.7059
 1.1760	 8.7058
 1.1750	 8.6700
 1.1740	 8.5998
 1.1730	 8.5773
 1.1720	 8.6337
 1.1710	 8.5794
 1.1700	 8.6094
 1.1690	 8.6120
 1.1680	 8.6088
 1.1670	 8.4864
 1.1660	 8.6006
 1.1650	 8.5073
 1.1640	 8.5467
 1.1630	 8.4548
 1.1620	 8.5521
 1.1610	 8.4600
 1.1600	 8.4707
 1.1590	 8.3519
 1.1580	 8.4580
 1.1570	 8.4173
 1.1560	 8.4284
 1.1550	 8.3790
 1.1540	 8.3330
 1.1530	 8.3305
 1.1520	 8.3811
 1.1510	 8.3632
 1.1500	 8.3927
 1.1490	 8.3154
 1.1480	 8.3288
 1.1470	 8.3245
 1.1460	 8.3218
 1.1450	 8.2894
 1.1440	 8.3209
 1.1430	 8.2283
 1.1420	 8.2009
 1.1410	 8.2143
 1.1400	 8.2293
 1.1390	 8.2131
 1.1380	 8.2409
 1.1370	 8.1445
 1.1360	 8.2232
 1.1350	 8.1008
 1.1340	 8.1857
 1.1330	 8.1221
 1.1320	 8.1798
 1.1310	 8.1599
 1.1300	 8.1995
 1.1290	 8.0907
 1.1280	 8.0881
 1.1270	 8.0635
 1.1260	 8.1341
 1.1250	 8.0906
 1.1240	 8.1906
 1.1230	 8.0385
 1.1220	 8.1258
 1.1210	 8.0290
 1.1200	 8.1035
 1.1190	 8.0254
 1.1180	 8.0715
 1.1170	 8.0161
 1.1160	 7.9756
 1.1150	 7.9538
 1.1140	 8.0729
 1.1130	 7.9039
 1.1120	 8.0518
 1.1110	 7.9346
 1.1100	 8.0317
 1.1090	 7.9507
 1.1080	 8.0384
 1.1070	 7.9894
 1.1060	 8.0204
 1.1050	 7.9249
 1.1040	 7.9668
 1.1030	 7.9317
 1.1020	 8.0032
 1.1010	 7.9249
 1.1000	 8.0622
 1.0990	 7.8076
 1.0980	 7.9424
 1.0970	 7.9111
 1.0960	 7.9151
 1.0950	 7.8654
 1.0940	 7.9230
 1.0930	 7.9060
 1.0920	 8.0122
 1.0910	 7.8436
 1.0900	 7.9148
 1.0890	 7.8408
 1.0880	 7.9609
 1.0870	 7.9065
 1.0860	 7.9990
 1.0850	 7.8411
 1.0840	 8.0051
 1.0830	 7.8186
 1.0820	 8.0515
 1.0810	 7.7956
 1.0800	 7.9457
 1.0790	 7.7780
 1.0780	 7.9462
 1.0770	 7.9231
 1.0760	 7.9133
 1.0750	 7.8546
 1.0740	 7.9118
 1.0730	 7.8051
 1.0720	 8.0167
 1.0710	 7.9299
 1.0700	 7.7584
 1.0690	 8.0068
 1.0680	 7.8720
 1.0670	 7.7709
 1.0660	 7.9701
 1.0650	 7.8846
 1.0640	 8.0036
 1.0630	 7.8143
 1.0620	 7.8731
 1.0610	 7.8125
 1.0600	 7.9160
 1.0590	 7.8041
 1.0580	 7.9599
 1.0570	 7.7473
 1.0560	 7.9506
 1.0550	 7.8619
 1.0540	 7.9193
 1.0530	 7.8322
 1.0520	 7.9254
 1.0510	 7.8320
 1.0500	 7.9187
 1.0490	 7.7910
 1.0480	 7.9162
 1.0470	 7.8290
 1.0460	 7.9034
 1.0450	 7.8426
 1.0440	 7.9400
 1.0430	 7.8628
 1.0420	 7.9458
 1.0410	 7.7622
 1.0400	 7.9280
 1.0390	 7.8281
 1.0380	 7.8992
 1.0370	 7.8887
 1.0360	 7.9404
 1.0350	 7.7419
 1.0340	 7.9111
 1.0330	 7.9281
 1.0320	 7.9545
 1.0310	 7.8826
 1.0300	 7.9540
 1.0290	 7.8585
 1.0280	 7.9818
 1.0270	 7.8900
 1.0260	 7.8825
 1.0250	 7.8665
 1.0240	 7.9656
 1.0230	 7.8505
 1.0220	 7.9364
 1.0210	 7.7191
 1.0200	 7.8920
 1.0190	 7.8500
 1.0180	 7.9293
 1.0170	 7.8493
 1.0160	 7.9504
 1.0150	 7.7855
 1.0140	 7.8324
 1.0130	 7.8977
 1.0120	 7.8916
 1.0110	 7.8247
 1.0100	 7.8116
 1.0090	 7.7613
 1.0080	 7.8668
 1.0070	 7.7554
 1.0060	 7.8197
 1.0050	 7.7706
 1.0040	 7.7918
 1.0030	 7.7586
 1.0020	 7.8181
 1.0010	 7.7654
 1.0000	 7.8372
 0.9990	 7.7574
 0.9980	 7.7843
 0.9970	 7.7876
 0.9960	 7.8259
 0.9950	 7.7236
 0.9940	 7.7377
 0.9930	 7.6489
 0.9920	 7.7313
 0.9910	 7.7296
 0.9900	 7.7350
 0.9890	 7.7081
 0.9880	 7.7620
 0.9870	 7.6808
 0.9860	 7.7582
 0.9850	 7.7460
 0.9840	 7.6619
 0.9830	 7.5736
 0.9820	 7.6850
 0.9810	 7.7168
 0.9800	 7.6891
 0.9790	 7.6195
 0.9780	 7.6751
 0.9770	 7.6368
 0.9760	 7.6676
 0.9750	 7.6261
 0.9740	 7.6033
 0.9730	 7.5828
 0.9720	 7.6378
 0.9710	 7.5737
 0.9700	 7.5631
 0.9690	 7.5066
 0.9680	 7.5014
 0.9670	 7.4959
 0.9660	 7.5357
 0.9650	 7.4982
 0.9640	 7.5034
 0.9630	 7.4650
 0.9620	 7.4599
 0.9610	 7.4183
 0.9600	 7.4358
 0.9590	 7.4221
 0.9580	 7.4523
 0.9570	 7.4080
 0.9560	 7.4553
 0.9550	 7.4594
 0.9540	 7.4366
 0.9530	 7.4246
 0.9520	 7.4150
 0.9510	 7.3514
 0.9500	 7.3647
 0.9490	 7.3112
 0.9480	 7.3291
 0.9470	 7.3388
 0.9460	 7.3000
 0.9450	 7.2821
 0.9440	 7.3377
 0.9430	 7.3023
 0.9420	 7.2537
 0.9410	 7.2698
 0.9400	 7.3083
 0.9390	 7.2529
 0.9380	 7.2418
 0.9370	 7.1714
 0.9360	 7.2041
 0.9350	 7.2067
 0.9340	 7.1760
 0.9330	 7.1831
 0.9320	 7.1875
 0.9310	 7.1748
 0.9300	 7.1526
 0.9290	 7.1445
 0.9280	 7.1194
 0.9270	 7.0989
 0.9260	 7.1019
 0.9250	 7.1303
 0.9240	 7.0882
 0.9230	 7.0628
 0.9220	 7.0964
 0.9210	 7.0774
 0.9200	 7.0491
 0.9190	 7.0897
 0.9180	 7.0107
 0.9170	 7.0460
 0.9160	 7.0467
 0.9150	 6.9702
 0.9140	 7.0136
 0.9130	 7.0735
 0.9120	 7.0147
 0.9110	 7.0145
 0.9100	 7.0777
 0.9090	 7.0770
 0.9080	 6.9629
 0.9070	 6.9490
 0.9060	 6.9372
 0.9050	 7.0151
 0.9040	 6.9612
 0.9030	 6.9704
 0.9020	 6.9900
 0.9010	 7.0015
 0.9000	 6.9563
 0.8990	 7.0320
 0.8980	 6.9609
 0.8970	 6.9919
 0.8960	 6.9720
 0.8950	 6.9655
 0.8940	 6.9049
 0.8930	 6.9475
 0.8920	 6.9328
 0.8910	 6.9602
 0.8900	 6.9815
 0.8890	 7.0019
 0.8880	 6.9500
 0.8870	 6.9628
 0.8860	 6.8820
 0.8850	 6.9588
 0.8840	 6.8654
 0.8830	 7.0007
 0.8820	 6.9362
 0.8810	 6.9858
 0.8800	 6.9712
 0.8790	 7.0192
 0.8780	 6.9054
 0.8770	 6.9389
 0.8760	 6.9018
 0.8750	 7.0451
 0.8740	 6.9801
 0.8730	 7.0423
 0.8720	 7.0107
 0.8710	 7.0200
 0.8700	 6.9313
 0.8690	 7.0290
 0.8680	 6.9583
 0.8670	 7.0767
 0.8660	 7.0259
 0.8650	 7.0531
 0.8640	 7.0456
 0.8630	 7.0352
 0.8620	 7.0836
 0.8610	 7.1816
 0.8600	 7.2977
 0.8590	 7.3267
 0.8580	 7.3321
 0.8570	 7.3568
 0.8560	 7.3718
 0.8550	 7.3748
 0.8540	 7.4004
 0.8530	 7.4112
 0.8520	 7.3981
 0.8510	 7.4042
 0.8500	 7.4282
 0.8490	 7.4285
 0.8480	 7.4547
 0.8470	 7.4594
 0.8460	 7.4634
 0.8450	 7.4752
 0.8440	 7.4902
 0.8430	 7.5069
 0.8420	 7.5167
 0.8410	 7.5251
 0.8400	 7.5307
 0.8390	 7.5454
 0.8380	 7.5516
 0.8370	 7.5557
 0.8360	 7.5696
 0.8350	 7.5829
 0.8340	 7.5929
 0.8330	 7.6171
 0.8320	 7.6216
 0.8310	 7.6237
 0.8300	 7.6343
 0.8290	 7.6476
 0.8280	 7.6519
 0.8270	 7.6542
 0.8260	 7.6761
 0.8250	 7.6810
 0.8240	 7.6839
 0.8230	 7.7044
 0.8220	 7.7081
 0.8210	 7.7108
 0.8200	 7.7196
 0.8190	 7.7223
 0.8180	 7.7364
 0.8170	 7.7420
 0.8160	 7.7479
 0.8150	 7.7478
 0.8140	 7.7540
 0.8130	 7.7643
 0.8120	 7.7736
 0.8110	 7.7716
 0.8100	 7.7652
 0.8090	 7.7681
 0.8080	 7.7774
 0.8070	 7.7772
 0.8060	 7.7796
 0.8050	 7.7864
 0.8040	 7.7824
 0.8030	 7.7745
 0.8020	 7.7831
 0.8010	 7.7770
 0.8000	 7.7842
 0.7990	 7.7625
 0.7980	 7.7594
 0.7970	 7.7589
 0.7960	 7.7536
 0.7950	 7.7454
 0.7940	 7.7463
 0.7930	 7.7372
 0.7920	 7.7291
 0.7910	 7.7244
 0.7900	 7.7214
 0.7890	 7.7126
 0.7880	 7.7060
 0.7870	 7.6792
 0.7860	 7.6803
 0.7850	 7.6683
 0.7840	 7.6545
 0.7830	 7.6553
 0.7820	 7.6352
 0.7810	 7.6150
 0.7800	 7.6049
 0.7790	 7.5963
 0.7780	 7.5877
 0.7770	 7.5724
 0.7760	 7.5593
 0.7750	 7.5376
 0.7740	 7.5246
 0.7730	 7.5077
 0.7720	 7.4953
 0.7710	 7.4826
 0.7700	 7.4749
 0.7690	 7.4508
 0.7680	 7.4462
 0.7670	 7.4258
 0.7660	 7.4156
 0.7650	 7.3929
 0.7640	 7.3864
 0.7630	 7.3710
 0.7620	 7.3520
 0.7610	 7.3372
 0.7600	 7.3245
 0.7590	 7.3092
 0.7580	 7.2984
 0.7570	 7.2842
 0.7560	 7.2658
 0.7550	 7.2566
 0.7540	 7.2335
 0.7530	 7.2252
 0.7520	 7.2167
 0.7510	 7.2082
 0.7500	 7.1907
 0.7490	 7.1816
 0.7480	 7.1657
 0.7470	 7.1596
 0.7460	 7.1452
 0.7450	 7.1290
 0.7440	 7.1206
 0.7430	 7.1146
 0.7420	 7.1077
 0.7410	 7.0945
 0.7400	 7.0840
 0.7390	 7.0742
 0.7380	 7.0639
 0.7370	 7.0578
 0.7360	 7.0453
 0.7350	 7.0441
 0.7340	 7.0376
 0.7330	 7.0271
 0.7320	 7.0211
 0.7310	 7.0127
 0.7300	 7.0083
 0.7290	 7.0018
 0.7280	 6.9979
 0.7270	 6.9885
 0.7260	 6.9865
 0.7250	 6.9810
 0.7240	 6.9817
 0.7230	 6.9768
 0.7220	 6.9763
 0.7210	 6.9722
 0.7200	 6.9676
 0.7190	 6.9700
 0.7180	 6.9679
 0.7170	 6.9668
 0.7160	 6.9667
 0.7150	 6.9675
 0.7140	 6.9649
 0.7130	 6.9665
 0.7120	 6.9662
 0.7110	 6.9693
 0.7100	 6.9716
 0.7090	 6.9756
 0.7080	 6.9784
 0.7070	 6.9837
 0.7060	 6.9892
 0.7050	 6.9908
 0.7040	 6.9973
 0.7030	 7.0041
 0.7020	 7.0070
 0.7010	 7.0112
 0.7000	 7.0169
 0.6990	 7.0244
 0.6980	 7.0322
 0.6970	 7.0415
 0.6960	 7.0522
 0.6950	 7.0586
 0.6940	 7.0669
 0.6930	 7.0760
 0.6920	 7.0875
 0.6910	 7.0974
 0.6900	 7.1077
 0.6890	 7.1191
 0.6880	 7.1326
 0.6870	 7.1437
 0.6860	 7.1567
 0.6850	 7.1738
 0.6840	 7.1832
 0.6830	 7.1950
 0.6820	 7.2101
 0.6810	 7.2245
 0.6800	 7.2374
 0.6790	 7.2515
 0.6780	 7.2669
 0.6770	 7.2833
 0.6760	 7.3002
 0.6750	 7.3161
 0.6740	 7.3314
 0.6730	 7.3479
 0.6720	 7.3652
 0.6710	 7.3851
 0.6700	 7.4030
 0.6690	 7.4214
 0.6680	 7.4395
 0.6670	 7.4575
 0.6660	 7.4735
 0.6650	 7.4923
 0.6640	 7.5142
 0.6630	 7.5341
 0.6620	 7.5566
 0.6610	 7.5782
 0.6600	 7.5974
 0.6590	 7.6173
 0.6580	 7.6388
 0.6570	 7.6609
 0.6560	 7.6818
 0.6550	 7.7031
 0.6540	 7.7259
 0.6530	 7.7495
 0.6520	 7.7741
 0.6510	 7.7962
 0.6500	 7.8182
 0.6490	 7.8416
 0.6480	 7.8681
 0.6470	 7.8934
 0.6460	 7.9136
 0.6450	 7.9380
 0.6440	 7.9672
 0.6430	 7.9904
 0.6420	 8.0155
 0.6410	 8.0412
 0.6400	 8.0649
 0.6390	 8.0929
 0.6380	 8.1209
 0.6370	 8.1468
 0.6360	 8.1724
 0.6350	 8.1988
 0.6340	 8.2244
 0.6330	 8.2527
 0.6320	 8.2833
 0.6310	 8.3098
 0.6300	 8.3375
 0.6290	 8.3663
 0.6280	 8.3934
 0.6270	 8.4228
 0.6260	 8.4522
 0.6250	 8.4794
 0.6240	 8.5085
 0.6230	 8.5385
 0.6220	 8.5685
 0.6210	 8.5977
 0.6200	 8.6269
 0.6190	 8.6538
 0.6180	 8.6728
 0.6170	 8.6950
 0.6160	 8.7243
 0.6150	 8.7540
 0.6140	 8.7852
 0.6130	 8.8151
 0.6120	 8.8434
 0.6110	 8.8746
 0.6100	 8.9067
 0.6090	 8.9389
 0.6080	 8.9683
 0.6070	 8.9968
 0.6060	 9.0278
 0.6050	 9.0604
 0.6040	 9.0900
 0.6030	 9.1192
 0.6020	 9.1514
 0.6010	 9.1821
 0.6000	 9.2130
 0.5990	 9.2474
 0.5980	 9.2811
 0.5970	 9.3139
 0.5960	 9.3467
 0.5950	 9.3780
 0.5940	 9.4083
 0.5930	 9.4416
 0.5920	 9.4736
 0.5910	 9.5068
 0.5900	 9.5342
 0.5890	 9.5658
 0.5880	 9.5991
 0.5870	 9.6284
 0.5860	 9.6598
 0.5850	 9.6893
 0.5840	 9.7212
 0.5830	 9.7509
 0.5820	 9.7808
 0.5810	 9.8098
 0.5800	 9.8408
 0.5790	 9.8701
 0.5780	 9.8992
 0.5770	 9.9259
 0.5760	 9.9553
 0.5750	 9.9831
 0.5740	10.0111
 0.5730	10.0390
 0.5720	10.0656
 0.5710	10.0932
 0.5700	10.1189
 0.5690	10.1437
 0.5680	10.1735
 0.5670	10.1967
 0.5660	10.2212
 0.5650	10.2455
 0.5640	10.2709
 0.5630	10.2952
 0.5620	10.3159
 0.5610	10.3343
 0.5600	10.3552
 0.5590	10.3751
 0.5580	10.3965
 0.5570	10.4122
 0.5560	10.4325
 0.5550	10.4512
 0.5540	10.4677
 0.5530	10.4870
 0.5520	10.5031
 0.5510	10.5207
 0.5500	10.5354
 0.5490	10.5481
 0.5480	10.5598
 0.5470	10.5749
 0.5460	10.5881
 0.5450	10.5983
 0.5440	10.6096
 0.5430	10.6175
 0.5420	10.6291
 0.5410	10.6434
 0.5400	10.6521
 0.5390	10.6596
 0.5380	10.6728
 0.5370	10.6845
 0.5360	10.6937
 0.5350	10.7072
 0.5340	10.7219
 0.5330	10.7360
 0.5320	10.7507
 0.5310	10.7663
 0.5300	10.7838
 0.5290	10.8017
 0.5280	10.8190
 0.5270	10.8390
 0.5260	10.8527
 0.5250	10.8689
 0.5240	10.8889
 0.5230	10.9088
 0.5220	10.9209
 0.5210	10.9327
 0.5200	10.9454
 0.5190	10.9535
 0.5180	10.9627
 0.5170	10.9703
 0.5160	10.9765
 0.5150	10.9800
 0.5140	10.9778
 0.5130	10.9796
 0.5120	10.9791
 0.5110	10.9719
 0.5100	10.9700
 0.5090	10.9574
 0.5080	10.9490
 0.5070	10.9356
 0.5060	10.9225
 0.5050	10.9062
 0.5040	10.8837
 0.5030	10.8608
 0.5020	10.8304
 0.5010	10.7994
 0.5000	10.7583
 0.4990	10.7200
 0.4980	10.6754
 0.4970	10.6441
 0.4960	10.6237
 0.4950	10.6139
 0.4940	10.6188
 0.4930	10.6290
 0.4920	10.6502
 0.4910	10.6758
 0.4900	10.6960
 0.4890	10.7008
 0.4880	10.6890
 0.4870	10.6730
 0.4860	10.6420
 0.4850	10.6066
 0.4840	10.5637
 0.4830	10.5287
 0.4820	10.4838
 0.4810	10.4421
 0.4800	10.4034
 0.4790	10.3620
 0.4780	10.3189
 0.4770	10.2712
 0.4760	10.2220
 0.4750	10.1748
 0.4740	10.1238
 0.4730	10.0768
 0.4720	10.0323
 0.4710	 9.9819
 0.4700	 9.9347
 0.4690	 9.8888
 0.4680	 9.8481
 0.4670	 9.8019
 0.4660	 9.7650
 0.4650	 9.7317
 0.4640	 9.6934
 0.4630	 9.6617
 0.4620	 9.6299
 0.4610	 9.5991
 0.4600	 9.5744
 0.4590	 9.5484
 0.4580	 9.5217
 0.4570	 9.4907
 0.4560	 9.4740
 0.4550	 9.4577
 0.4540	 9.4378
 0.4530	 9.4232
 0.4520	 9.4207
 0.4510	 9.4252
 0.4500	 9.4333
 0.4490	 9.4506
 0.4480	 9.4693
 0.4470	 9.4965
 0.4460	 9.5243
 0.4450	 9.5451
 0.4440	 9.5618
 0.4430	 9.5711
 0.4420	 9.5631
 0.4410	 9.5475
 0.4400	 9.5306
 0.4390	 9.5014
 0.4380	 9.4727
 0.4370	 9.4438
 0.4360	 9.4149
 0.4350	 9.3880
 0.4340	 9.3629
 0.4330	 9.3371
 0.4320	 9.3185
 0.4310	 9.3026
 0.4300	 9.2798
 0.4290	 9.2586
 0.4280	 9.2410
 0.4270	 9.2183
 0.4260	 9.1931
 0.4250	 9.1653
 0.4240	 9.1426
 0.4230	 9.1112
 0.4220	 9.0697
 0.4210	 9.0313
 0.4200	 8.9880
 0.4190	 8.9511
 0.4180	 8.9146
 0.4170	 8.8846
 0.4160	 8.8510
 0.4150	 8.8213
 0.4140	 8.7993
 0.4130	 8.7760
 0.4120	 8.7504
 0.4110	 8.7303
 0.4100	 8.7240
 0.4090	 8.7116
 0.4080	 8.7025
 0.4070	 8.6981
 0.4060	 8.6941
 0.4050	 8.6941
 0.4040	 8.6943
 0.4030	 8.7039
 0.4020	 8.7164
 0.4010	 8.7276
 0.4000	 8.7471
