Name: Nontronite Na_0.33Fe_2^3+(Si,Al)_4O_10(OH)_2.H_2O
Type: Mineral
Class: Silicate
Subclass: Phyllosilicate
Particle Size: Medium
Sample No.: PS-6B
Owner: JPL
Wavelength Range: VSWIR
Origin: Germany, Westphalia, Hohen Hagen
Collection Date: N/A
Description: Particle size was 45-125um.Collected by Clay Mineral Society Original ASTER Spectral Library name was jpl.beckman.mineral.silicate.phyllosilicate.medium.ps06b.spectrum.txt
Measurement: Hemispherical reflectance
First Column: X
Second Column: Y
X Units: Wavelength (micrometers)
Y Units:Reflectance (percent)
First X Value:  0.4000
Last X Value:  2.5000
Number of X Values: 826
Additional Information: mineral.silicate.phyllosilicate.medium.vswir.ps-6b.jpl.beckman.ancillary.txt

 0.4000	 5.3100
 0.4010	 5.4900
 0.4020	 5.5600
 0.4030	 5.4800
 0.4040	 5.6000
 0.4050	 5.4800
 0.4060	 5.6000
 0.4070	 5.6600
 0.4080	 5.6000
 0.4090	 5.7200
 0.4100	 5.5900
 0.4110	 5.7000
 0.4120	 5.7200
 0.4130	 5.6600
 0.4140	 5.8400
 0.4150	 5.7800
 0.4160	 5.7700
 0.4170	 5.8400
 0.4180	 5.7800
 0.4190	 5.8900
 0.4200	 5.8300
 0.4210	 5.8800
 0.4220	 5.8900
 0.4230	 5.8900
 0.4240	 6.0200
 0.4250	 5.9000
 0.4260	 6.0000
 0.4270	 6.0000
 0.4280	 6.0600
 0.4290	 6.1900
 0.4300	 6.0700
 0.4310	 6.0700
 0.4320	 6.1900
 0.4330	 6.1800
 0.4340	 6.2400
 0.4350	 6.2300
 0.4360	 6.2900
 0.4370	 6.3500
 0.4380	 6.2300
 0.4390	 6.4200
 0.4400	 6.4000
 0.4410	 6.4100
 0.4420	 6.5400
 0.4430	 6.4700
 0.4440	 6.5900
 0.4450	 6.7100
 0.4460	 6.5800
 0.4470	 6.6900
 0.4480	 6.6300
 0.4490	 6.8300
 0.4500	 6.8300
 0.4510	 6.7600
 0.4520	 6.9400
 0.4530	 6.8900
 0.4540	 7.0000
 0.4550	 7.0500
 0.4560	 7.0200
 0.4570	 7.1800
 0.4580	 7.1100
 0.4590	 7.2200
 0.4600	 7.2800
 0.4610	 7.6000
 0.4620	 7.6000
 0.4630	 7.7700
 0.4640	 7.9700
 0.4650	 8.1300
 0.4660	 8.2200
 0.4670	 8.3000
 0.4680	 8.4200
 0.4690	 8.4900
 0.4700	 8.6000
 0.4710	 8.8400
 0.4720	 8.8400
 0.4730	 8.9700
 0.4740	 9.0200
 0.4750	 9.2000
 0.4760	 9.2700
 0.4770	 9.3300
 0.4780	 9.4800
 0.4790	 9.6400
 0.4800	 9.8200
 0.4810	10.0200
 0.4820	10.2200
 0.4830	10.3900
 0.4840	10.4500
 0.4850	10.5700
 0.4860	10.6800
 0.4870	10.6000
 0.4880	10.7000
 0.4890	10.7600
 0.4900	10.9400
 0.4910	11.0900
 0.4920	11.0800
 0.4930	11.2900
 0.4940	11.4500
 0.4950	11.6000
 0.4960	11.7600
 0.4970	11.8200
 0.4980	11.9800
 0.4990	12.0800
 0.5000	12.2500
 0.5010	12.3500
 0.5020	12.4500
 0.5030	12.5500
 0.5040	12.7800
 0.5050	12.9500
 0.5060	13.0500
 0.5070	13.1900
 0.5080	13.4100
 0.5090	13.5100
 0.5100	13.7100
 0.5110	13.8800
 0.5120	13.9500
 0.5130	14.2400
 0.5140	14.4300
 0.5150	14.5600
 0.5160	14.7900
 0.5170	14.9500
 0.5180	15.1500
 0.5190	15.3100
 0.5200	15.6200
 0.5210	15.8400
 0.5220	16.0500
 0.5230	16.2400
 0.5240	16.4000
 0.5250	16.7400
 0.5260	17.0700
 0.5270	17.2400
 0.5280	17.4700
 0.5290	17.6000
 0.5300	17.8900
 0.5310	18.2400
 0.5320	18.4500
 0.5330	18.6700
 0.5340	19.0300
 0.5350	19.2800
 0.5360	19.6000
 0.5370	19.8500
 0.5380	20.1400
 0.5390	20.4400
 0.5400	20.7100
 0.5410	20.9500
 0.5420	21.2100
 0.5430	21.5400
 0.5440	21.8200
 0.5450	22.0400
 0.5460	22.4200
 0.5470	22.6500
 0.5480	22.9600
 0.5490	23.0800
 0.5500	23.3700
 0.5510	23.8100
 0.5520	23.9100
 0.5530	24.1200
 0.5540	24.3800
 0.5550	24.6300
 0.5560	25.0000
 0.5570	24.9800
 0.5580	25.2500
 0.5590	25.3400
 0.5600	25.4200
 0.5610	26.1100
 0.5620	26.2400
 0.5630	26.4400
 0.5640	26.6600
 0.5650	26.8000
 0.5660	26.9900
 0.5670	27.1300
 0.5680	27.3400
 0.5690	27.4500
 0.5700	27.5000
 0.5710	27.7300
 0.5720	27.7600
 0.5730	28.0200
 0.5740	28.0800
 0.5750	28.1900
 0.5760	28.2900
 0.5770	28.3000
 0.5780	28.4300
 0.5790	28.5700
 0.5800	28.6400
 0.5810	28.7200
 0.5820	28.7200
 0.5830	28.8100
 0.5840	28.9400
 0.5850	28.9400
 0.5860	29.0300
 0.5870	29.0100
 0.5880	29.0700
 0.5890	29.1400
 0.5900	29.1800
 0.5910	29.2200
 0.5920	29.2500
 0.5930	29.2000
 0.5940	29.2800
 0.5950	29.3500
 0.5960	29.3500
 0.5970	29.3700
 0.5980	29.3100
 0.5990	29.3100
 0.6000	29.3400
 0.6010	29.4100
 0.6020	29.3800
 0.6030	29.3100
 0.6040	29.3900
 0.6050	29.4500
 0.6060	29.4700
 0.6070	29.3400
 0.6080	29.2900
 0.6090	29.4000
 0.6100	29.2900
 0.6110	29.3000
 0.6120	29.2200
 0.6130	29.2200
 0.6140	29.2100
 0.6150	29.1900
 0.6160	29.2300
 0.6170	29.2500
 0.6180	29.2700
 0.6190	29.2300
 0.6200	29.0900
 0.6210	29.1200
 0.6220	29.0800
 0.6230	29.0900
 0.6240	29.1100
 0.6250	29.1300
 0.6260	29.0500
 0.6270	29.1200
 0.6280	29.1600
 0.6290	29.1200
 0.6300	28.9900
 0.6310	28.9900
 0.6320	29.0100
 0.6330	29.1200
 0.6340	29.1100
 0.6350	29.0700
 0.6360	29.0300
 0.6370	29.0700
 0.6380	29.1500
 0.6390	29.2300
 0.6400	29.1600
 0.6410	29.1600
 0.6420	29.3100
 0.6430	29.2700
 0.6440	29.3100
 0.6450	29.3900
 0.6460	29.3300
 0.6470	29.4000
 0.6480	29.3400
 0.6490	29.5800
 0.6500	29.6100
 0.6510	29.5400
 0.6520	29.6200
 0.6530	29.6900
 0.6540	29.9200
 0.6550	29.8300
 0.6560	29.7900
 0.6570	30.0000
 0.6580	30.0600
 0.6590	30.1900
 0.6600	30.1900
 0.6610	30.3800
 0.6620	30.4200
 0.6630	30.4800
 0.6640	30.6200
 0.6650	30.7000
 0.6660	30.8200
 0.6670	30.9500
 0.6680	30.9700
 0.6690	31.0900
 0.6700	31.2600
 0.6710	31.3800
 0.6720	31.5500
 0.6730	31.5900
 0.6740	31.6700
 0.6750	31.8800
 0.6760	32.0300
 0.6770	32.2000
 0.6780	32.2200
 0.6790	32.3100
 0.6800	32.5200
 0.6810	32.7500
 0.6820	32.8600
 0.6830	33.0200
 0.6840	33.1300
 0.6850	33.3900
 0.6860	33.4500
 0.6870	33.6600
 0.6880	33.8300
 0.6890	33.8800
 0.6900	34.0800
 0.6910	34.2200
 0.6920	34.5100
 0.6930	34.5700
 0.6940	34.6800
 0.6950	34.9100
 0.6960	35.0500
 0.6970	35.2900
 0.6980	35.3800
 0.6990	35.4800
 0.7000	35.5200
 0.7010	35.5700
 0.7020	35.9500
 0.7030	36.2000
 0.7040	36.4400
 0.7050	36.4800
 0.7060	36.6800
 0.7070	36.6600
 0.7080	36.9300
 0.7090	37.1800
 0.7100	37.0900
 0.7110	37.3300
 0.7120	37.4500
 0.7130	37.6300
 0.7140	37.8800
 0.7150	37.8900
 0.7160	38.0700
 0.7170	38.1200
 0.7180	38.2500
 0.7190	38.4900
 0.7200	38.5400
 0.7210	38.7300
 0.7220	38.7700
 0.7230	38.9100
 0.7240	39.0100
 0.7250	39.0700
 0.7260	39.3200
 0.7270	39.2800
 0.7280	39.4100
 0.7290	39.6100
 0.7300	39.6800
 0.7310	39.7600
 0.7320	39.7000
 0.7330	39.8800
 0.7340	40.1300
 0.7350	40.0800
 0.7360	40.2000
 0.7370	40.1600
 0.7380	40.2700
 0.7390	40.4900
 0.7400	40.4100
 0.7410	40.5200
 0.7420	40.5200
 0.7430	40.4900
 0.7440	40.7000
 0.7450	40.7200
 0.7460	40.7400
 0.7470	40.7900
 0.7480	40.7600
 0.7490	40.8600
 0.7500	40.8900
 0.7510	41.0300
 0.7520	41.0700
 0.7530	40.9300
 0.7540	41.0900
 0.7550	41.0800
 0.7560	41.1900
 0.7570	41.1300
 0.7580	41.0700
 0.7590	41.1800
 0.7600	41.0700
 0.7610	41.1200
 0.7620	41.1800
 0.7630	41.0700
 0.7640	41.2300
 0.7650	41.0600
 0.7660	41.0700
 0.7670	41.2100
 0.7680	40.9900
 0.7690	41.0900
 0.7700	40.9800
 0.7710	41.0400
 0.7720	41.0700
 0.7730	41.0300
 0.7740	41.0300
 0.7750	40.9400
 0.7760	40.8900
 0.7770	40.9200
 0.7780	40.7800
 0.7790	40.7200
 0.7800	40.5900
 0.7810	40.6200
 0.7820	40.7700
 0.7830	40.4900
 0.7840	40.5300
 0.7850	40.4000
 0.7860	40.3500
 0.7870	40.3700
 0.7880	40.3500
 0.7890	40.2300
 0.7900	40.1700
 0.7910	40.0100
 0.7920	40.1400
 0.7930	40.0700
 0.7940	39.9400
 0.7950	39.8800
 0.7960	39.7500
 0.7970	39.8300
 0.7980	39.6200
 0.7990	39.5800
 0.8000	39.4700
 0.8040	39.1900
 0.8080	38.8300
 0.8120	38.4200
 0.8160	38.2300
 0.8200	37.8300
 0.8240	37.4900
 0.8280	37.2600
 0.8320	36.9500
 0.8360	36.6400
 0.8400	36.3800
 0.8440	36.0900
 0.8480	35.8900
 0.8520	35.6500
 0.8560	35.3400
 0.8600	35.1600
 0.8640	34.8800
 0.8680	34.6500
 0.8720	34.5300
 0.8760	34.3300
 0.8800	34.2100
 0.8840	34.0100
 0.8880	33.8000
 0.8920	33.7300
 0.8960	33.6200
 0.9000	33.4600
 0.9040	33.5200
 0.9080	33.4200
 0.9120	33.3800
 0.9160	33.4000
 0.9200	33.4600
 0.9240	33.4400
 0.9280	33.4800
 0.9320	33.4600
 0.9360	33.5600
 0.9400	33.6400
 0.9440	33.6900
 0.9480	33.8000
 0.9520	33.8200
 0.9560	33.9400
 0.9600	34.0700
 0.9640	34.2600
 0.9680	34.3500
 0.9720	34.5300
 0.9760	34.6700
 0.9800	34.8700
 0.9840	35.0400
 0.9880	35.2800
 0.9920	35.5200
 0.9960	35.7300
 1.0000	35.8700
 1.0040	36.3300
 1.0080	36.5900
 1.0120	36.9000
 1.0160	37.2100
 1.0200	37.5500
 1.0240	37.8800
 1.0280	38.1500
 1.0320	38.4900
 1.0360	38.8400
 1.0400	39.2200
 1.0440	39.6700
 1.0480	39.9800
 1.0520	40.3600
 1.0560	40.8000
 1.0600	41.2600
 1.0640	41.7300
 1.0680	42.1000
 1.0720	42.5700
 1.0760	43.0700
 1.0800	43.5000
 1.0840	43.9800
 1.0880	44.4000
 1.0920	44.9400
 1.0960	45.4400
 1.1000	45.8700
 1.1040	46.3400
 1.1080	46.8300
 1.1120	47.2600
 1.1160	47.7000
 1.1200	48.2000
 1.1240	48.7000
 1.1280	49.1600
 1.1320	49.4700
 1.1360	49.8700
 1.1400	50.1600
 1.1440	50.4100
 1.1480	50.7400
 1.1520	51.0500
 1.1560	51.4000
 1.1600	51.8100
 1.1640	52.1900
 1.1680	52.4900
 1.1720	52.8400
 1.1760	53.1600
 1.1800	53.5000
 1.1840	53.7400
 1.1880	53.9700
 1.1920	54.2800
 1.1960	54.5300
 1.2000	54.8100
 1.2040	54.9800
 1.2080	55.0800
 1.2120	55.3700
 1.2160	55.5100
 1.2200	55.7000
 1.2240	55.8100
 1.2280	56.0400
 1.2320	56.1800
 1.2360	56.3200
 1.2400	56.4400
 1.2440	56.5000
 1.2480	56.6300
 1.2520	56.7300
 1.2560	56.8000
 1.2600	56.8500
 1.2640	56.9100
 1.2680	56.9200
 1.2720	57.0100
 1.2760	57.1100
 1.2800	57.2000
 1.2840	57.2300
 1.2880	57.2800
 1.2920	57.2500
 1.2960	57.2400
 1.3000	57.2200
 1.3040	57.2000
 1.3080	57.1700
 1.3120	57.0500
 1.3160	56.8700
 1.3200	56.7600
 1.3240	56.6400
 1.3280	56.6300
 1.3320	56.4500
 1.3360	56.4200
 1.3400	56.3000
 1.3440	56.2500
 1.3480	56.1000
 1.3520	56.0500
 1.3560	55.8700
 1.3600	55.8700
 1.3640	55.6100
 1.3680	55.2700
 1.3720	54.9300
 1.3760	54.4000
 1.3800	53.4400
 1.3840	52.3100
 1.3880	50.8500
 1.3920	49.0100
 1.3960	47.1500
 1.4000	45.4200
 1.4040	43.8100
 1.4080	42.7800
 1.4120	42.1500
 1.4160	41.7700
 1.4200	41.4400
 1.4240	40.9700
 1.4280	40.6800
 1.4320	41.0000
 1.4360	41.9000
 1.4400	43.2300
 1.4440	44.5100
 1.4480	45.3800
 1.4520	45.9600
 1.4560	46.1100
 1.4600	46.3400
 1.4640	46.6200
 1.4680	47.0500
 1.4720	47.5500
 1.4760	48.0400
 1.4800	48.5500
 1.4840	48.9600
 1.4880	49.4000
 1.4920	49.8300
 1.4960	50.2200
 1.5000	50.4200
 1.5040	50.8400
 1.5080	51.0300
 1.5120	51.3600
 1.5160	51.5900
 1.5200	51.9300
 1.5240	52.1900
 1.5280	52.3700
 1.5320	52.5600
 1.5360	52.8000
 1.5400	52.9700
 1.5440	53.1700
 1.5480	53.3900
 1.5520	53.4700
 1.5560	53.6300
 1.5600	53.8000
 1.5640	53.9000
 1.5680	54.0700
 1.5720	54.1600
 1.5760	54.2900
 1.5800	54.4100
 1.5840	54.4800
 1.5880	54.5600
 1.5920	54.6700
 1.5960	54.8200
 1.6000	54.8500
 1.6040	54.8900
 1.6080	55.0500
 1.6120	55.0000
 1.6160	55.0200
 1.6200	55.0500
 1.6240	55.1900
 1.6280	55.2200
 1.6320	55.1800
 1.6360	55.2700
 1.6400	55.2900
 1.6440	55.3400
 1.6480	55.3700
 1.6520	55.4600
 1.6560	55.4500
 1.6600	55.5000
 1.6640	55.5300
 1.6680	55.5000
 1.6720	55.5700
 1.6760	55.6000
 1.6800	55.6100
 1.6840	55.5800
 1.6880	55.6400
 1.6920	55.5700
 1.6960	55.5500
 1.7000	55.5300
 1.7040	55.5400
 1.7080	55.5000
 1.7120	55.4000
 1.7160	55.3700
 1.7200	55.3900
 1.7240	55.2500
 1.7280	55.2000
 1.7320	55.1000
 1.7360	55.0100
 1.7400	54.9300
 1.7440	54.7600
 1.7480	54.6800
 1.7520	54.5300
 1.7560	54.4100
 1.7600	54.3000
 1.7640	54.1900
 1.7680	54.0300
 1.7720	53.9200
 1.7760	53.8200
 1.7800	53.6600
 1.7840	53.6100
 1.7880	53.5700
 1.7920	53.5100
 1.7960	53.5400
 1.8000	53.5300
 1.8040	53.4800
 1.8080	53.4600
 1.8120	53.4000
 1.8160	53.4500
 1.8200	53.4200
 1.8240	53.3700
 1.8280	53.3400
 1.8320	53.2200
 1.8360	53.0900
 1.8400	52.9700
 1.8440	52.6500
 1.8480	52.3600
 1.8520	51.8300
 1.8560	51.2900
 1.8600	50.5100
 1.8640	49.4000
 1.8680	47.8200
 1.8720	45.9700
 1.8760	43.9100
 1.8800	41.4800
 1.8840	38.7100
 1.8880	35.7500
 1.8920	32.7800
 1.8960	30.2600
 1.9000	28.3400
 1.9040	27.3300
 1.9080	27.0100
 1.9120	27.2000
 1.9160	27.7300
 1.9200	28.3400
 1.9240	29.0100
 1.9280	29.5100
 1.9320	30.0500
 1.9360	30.5200
 1.9400	30.9400
 1.9440	31.3700
 1.9480	31.6500
 1.9520	32.0500
 1.9560	32.4000
 1.9600	32.8300
 1.9640	33.1900
 1.9680	33.6300
 1.9720	34.1000
 1.9760	34.5200
 1.9800	35.0600
 1.9840	35.5500
 1.9880	36.1600
 1.9920	36.7800
 1.9960	37.2700
 2.0000	37.8400
 2.0040	38.3800
 2.0080	38.9600
 2.0120	39.4300
 2.0160	39.9600
 2.0200	40.5100
 2.0240	41.0000
 2.0280	41.4100
 2.0320	41.8700
 2.0360	42.1900
 2.0400	42.6200
 2.0440	42.9500
 2.0480	43.2800
 2.0520	43.5300
 2.0560	43.9200
 2.0600	44.2200
 2.0640	44.4800
 2.0680	44.7100
 2.0720	44.9500
 2.0760	45.1800
 2.0800	45.4700
 2.0840	45.7100
 2.0880	45.9100
 2.0920	46.1200
 2.0960	46.3900
 2.1000	46.5900
 2.1040	46.8000
 2.1080	46.9800
 2.1120	47.1800
 2.1160	47.3100
 2.1200	47.4400
 2.1240	47.5500
 2.1280	47.6600
 2.1320	47.7700
 2.1360	47.8500
 2.1400	47.9600
 2.1440	48.0100
 2.1480	47.9800
 2.1520	48.0400
 2.1560	47.9100
 2.1600	47.8800
 2.1640	47.7800
 2.1680	47.6700
 2.1720	47.5200
 2.1760	47.3300
 2.1800	47.1000
 2.1840	46.9800
 2.1880	46.8500
 2.1920	46.7400
 2.1960	46.5800
 2.2000	46.5100
 2.2040	46.3400
 2.2080	46.3100
 2.2120	46.1500
 2.2160	46.0800
 2.2200	46.0700
 2.2240	45.9700
 2.2280	45.8500
 2.2320	45.6400
 2.2360	45.3400
 2.2400	44.9000
 2.2440	44.3900
 2.2480	43.6700
 2.2520	42.7500
 2.2560	41.6700
 2.2600	40.4800
 2.2640	39.1000
 2.2680	37.8700
 2.2720	36.7300
 2.2760	35.8100
 2.2800	35.2100
 2.2840	34.9900
 2.2880	35.1700
 2.2920	35.7200
 2.2960	36.5900
 2.3000	37.5200
 2.3040	37.8600
 2.3080	39.2900
 2.3120	39.9800
 2.3160	40.2700
 2.3200	40.4900
 2.3240	40.4600
 2.3280	40.4200
 2.3320	40.2000
 2.3360	39.9900
 2.3400	39.6900
 2.3440	39.2500
 2.3480	38.9200
 2.3520	38.4200
 2.3560	38.0200
 2.3600	37.5900
 2.3640	37.0600
 2.3680	36.4500
 2.3720	35.8600
 2.3760	35.1700
 2.3800	34.5200
 2.3840	33.8400
 2.3880	33.2100
 2.3920	32.7600
 2.3960	32.3100
 2.4000	32.1000
 2.4040	31.8500
 2.4080	31.8000
 2.4120	31.6500
 2.4160	31.5100
 2.4200	31.4000
 2.4240	31.2900
 2.4280	31.1500
 2.4320	31.0100
 2.4360	30.6600
 2.4400	30.4700
 2.4440	30.2100
 2.4480	29.9600
 2.4520	29.6000
 2.4560	29.3000
 2.4600	28.9400
 2.4640	28.6300
 2.4680	28.3600
 2.4720	28.0200
 2.4760	27.6100
 2.4800	27.3700
 2.4840	27.0800
 2.4880	26.8700
 2.4920	26.6200
 2.4960	26.4000
 2.5000	26.2700
