Name: Diopside CaMg(SiO_3)_2
Type: Mineral
Class: Silicate
Subclass: Inosilicate
Particle Size: Medium
Sample No.: IN-9B
Owner: JPL
Wavelength Range: VSWIR
Origin: Canada, Quebec
Collection Date: N/A
Description: Particle size was 45-125um.Collected by Ward's Original ASTER Spectral Library name was jpl.beckman.mineral.silicate.inosilicate.medium.in09b.spectrum.txt
Measurement: Hemispherical reflectance
First Column: X
Second Column: Y
X Units: Wavelength (micrometers)
Y Units:Reflectance (percent)
First X Value:  0.4000
Last X Value:  2.5000
Number of X Values: 826
Additional Information: mineral.silicate.inosilicate.medium.vswir.in-9b.jpl.beckman.ancillary.txt

 0.4000	14.9700
 0.4010	15.1600
 0.4020	15.3200
 0.4030	15.3500
 0.4040	15.4000
 0.4050	15.5600
 0.4060	15.5700
 0.4070	15.7000
 0.4080	15.6600
 0.4090	15.9000
 0.4100	15.9800
 0.4110	16.1800
 0.4120	16.1500
 0.4130	16.2100
 0.4140	16.3600
 0.4150	16.4700
 0.4160	16.6300
 0.4170	16.7200
 0.4180	16.7800
 0.4190	16.9200
 0.4200	17.0600
 0.4210	17.1600
 0.4220	17.3100
 0.4230	17.4200
 0.4240	17.7100
 0.4250	17.7800
 0.4260	18.0200
 0.4270	18.0600
 0.4280	18.2300
 0.4290	18.3900
 0.4300	18.5100
 0.4310	18.7800
 0.4320	18.8800
 0.4330	19.0300
 0.4340	19.2300
 0.4350	19.2900
 0.4360	19.5300
 0.4370	19.5700
 0.4380	19.6500
 0.4390	19.9600
 0.4400	20.0100
 0.4410	20.2100
 0.4420	20.3600
 0.4430	20.5100
 0.4440	20.6400
 0.4450	20.7000
 0.4460	20.8500
 0.4470	20.8800
 0.4480	21.0400
 0.4490	21.1200
 0.4500	21.1200
 0.4510	21.2400
 0.4520	21.3500
 0.4530	21.5500
 0.4540	21.5300
 0.4550	21.5200
 0.4560	21.6000
 0.4570	21.6600
 0.4580	21.8600
 0.4590	21.9100
 0.4600	21.7600
 0.4610	21.8400
 0.4620	21.9300
 0.4630	21.9900
 0.4640	22.1100
 0.4650	22.2600
 0.4660	22.2600
 0.4670	22.2000
 0.4680	22.4300
 0.4690	22.4700
 0.4700	22.4400
 0.4710	22.6200
 0.4720	22.6900
 0.4730	22.7500
 0.4740	22.8100
 0.4750	22.8900
 0.4760	23.0100
 0.4770	23.1400
 0.4780	23.2300
 0.4790	23.3200
 0.4800	23.5100
 0.4810	23.5100
 0.4820	23.6900
 0.4830	23.8100
 0.4840	23.8500
 0.4850	24.0300
 0.4860	24.1200
 0.4870	24.3000
 0.4880	24.4300
 0.4890	24.4200
 0.4900	24.6700
 0.4910	24.6000
 0.4920	24.9000
 0.4930	24.9100
 0.4940	24.9500
 0.4950	25.2200
 0.4960	25.2500
 0.4970	25.5000
 0.4980	25.4600
 0.4990	25.5500
 0.5000	25.7100
 0.5010	25.8600
 0.5020	26.0100
 0.5030	26.0000
 0.5040	26.0400
 0.5050	26.1400
 0.5060	26.2500
 0.5070	26.3900
 0.5080	26.5000
 0.5090	26.6400
 0.5100	26.7300
 0.5110	26.8400
 0.5120	26.9200
 0.5130	26.9300
 0.5140	27.2400
 0.5150	27.3200
 0.5160	27.3400
 0.5170	27.4800
 0.5180	27.4700
 0.5190	27.6600
 0.5200	27.6700
 0.5210	27.7400
 0.5220	27.9000
 0.5230	27.9100
 0.5240	28.0900
 0.5250	28.0600
 0.5260	28.1100
 0.5270	28.2400
 0.5280	28.1700
 0.5290	28.4400
 0.5300	28.3500
 0.5310	28.2800
 0.5320	28.5100
 0.5330	28.4800
 0.5340	28.5300
 0.5350	28.6100
 0.5360	28.5700
 0.5370	28.6900
 0.5380	28.6900
 0.5390	28.8100
 0.5400	28.8300
 0.5410	28.8400
 0.5420	28.8200
 0.5430	28.8600
 0.5440	28.9200
 0.5450	28.9200
 0.5460	28.9700
 0.5470	28.9000
 0.5480	28.9900
 0.5490	28.9900
 0.5500	29.0600
 0.5510	29.0800
 0.5520	29.1400
 0.5530	29.0600
 0.5540	29.0800
 0.5550	29.1400
 0.5560	29.1800
 0.5570	29.2300
 0.5580	29.1400
 0.5590	29.2400
 0.5600	29.2400
 0.5610	29.4300
 0.5620	29.3300
 0.5630	29.3600
 0.5640	29.5100
 0.5650	29.4900
 0.5660	29.4800
 0.5670	29.5600
 0.5680	29.5000
 0.5690	29.4800
 0.5700	29.4200
 0.5710	29.4900
 0.5720	29.5000
 0.5730	29.4400
 0.5740	29.3400
 0.5750	29.3700
 0.5760	29.4600
 0.5770	29.4900
 0.5780	29.4300
 0.5790	29.3400
 0.5800	29.3800
 0.5810	29.4400
 0.5820	29.4600
 0.5830	29.4600
 0.5840	29.2800
 0.5850	29.3500
 0.5860	29.4700
 0.5870	29.4300
 0.5880	29.5200
 0.5890	29.5300
 0.5900	29.5500
 0.5910	29.5300
 0.5920	29.4100
 0.5930	29.4800
 0.5940	29.5000
 0.5950	29.4700
 0.5960	29.4900
 0.5970	29.4600
 0.5980	29.6000
 0.5990	29.4500
 0.6000	29.4800
 0.6010	29.4700
 0.6020	29.5200
 0.6030	29.5500
 0.6040	29.5200
 0.6050	29.5800
 0.6060	29.5200
 0.6070	29.5200
 0.6080	29.6400
 0.6090	29.6400
 0.6100	29.6900
 0.6110	29.5800
 0.6120	29.7000
 0.6130	29.6800
 0.6140	29.5600
 0.6150	29.6200
 0.6160	29.6900
 0.6170	29.7100
 0.6180	29.6900
 0.6190	29.6700
 0.6200	29.6400
 0.6210	29.7400
 0.6220	29.6200
 0.6230	29.7500
 0.6240	29.6400
 0.6250	29.7000
 0.6260	29.7100
 0.6270	29.7700
 0.6280	29.8100
 0.6290	29.6700
 0.6300	29.8500
 0.6310	29.8100
 0.6320	29.8100
 0.6330	29.7700
 0.6340	29.7700
 0.6350	29.9500
 0.6360	29.8300
 0.6370	29.7500
 0.6380	29.8100
 0.6390	29.8100
 0.6400	29.9200
 0.6410	29.8700
 0.6420	29.9600
 0.6430	29.8900
 0.6440	29.8900
 0.6450	29.9800
 0.6460	29.9800
 0.6470	30.0000
 0.6480	30.1600
 0.6490	30.0800
 0.6500	30.1000
 0.6510	30.0600
 0.6520	30.1400
 0.6530	30.2300
 0.6540	30.1200
 0.6550	30.2000
 0.6560	30.0600
 0.6570	30.1600
 0.6580	30.2000
 0.6590	30.1800
 0.6600	30.1400
 0.6610	30.1800
 0.6620	30.2700
 0.6630	30.2700
 0.6640	30.2300
 0.6650	30.2300
 0.6660	30.2700
 0.6670	30.3300
 0.6680	30.3300
 0.6690	30.2900
 0.6700	30.3700
 0.6710	30.2700
 0.6720	30.4500
 0.6730	30.4300
 0.6740	30.4100
 0.6750	30.4800
 0.6760	30.4100
 0.6770	30.4600
 0.6780	30.5000
 0.6790	30.4800
 0.6800	30.5300
 0.6810	30.4500
 0.6820	30.4900
 0.6830	30.5600
 0.6840	30.5100
 0.6850	30.6000
 0.6860	30.6500
 0.6870	30.5800
 0.6880	30.6500
 0.6890	30.5400
 0.6900	30.5400
 0.6910	30.5800
 0.6920	30.7100
 0.6930	30.7900
 0.6940	30.6700
 0.6950	30.6700
 0.6960	30.6900
 0.6970	30.7600
 0.6980	30.7300
 0.6990	30.8000
 0.7000	30.7200
 0.7010	30.7200
 0.7020	30.8200
 0.7030	30.8400
 0.7040	30.7900
 0.7050	30.9200
 0.7060	31.0000
 0.7070	30.9600
 0.7080	30.9000
 0.7090	30.9200
 0.7100	31.0700
 0.7110	31.0500
 0.7120	31.0600
 0.7130	31.0700
 0.7140	31.0500
 0.7150	31.1900
 0.7160	31.1700
 0.7170	31.1900
 0.7180	31.1900
 0.7190	31.2300
 0.7200	31.2700
 0.7210	31.2100
 0.7220	31.2300
 0.7230	31.4200
 0.7240	31.4400
 0.7250	31.3800
 0.7260	31.3600
 0.7270	31.4800
 0.7280	31.5300
 0.7290	31.5400
 0.7300	31.5000
 0.7310	31.5400
 0.7320	31.6300
 0.7330	31.7100
 0.7340	31.7300
 0.7350	31.7100
 0.7360	31.6900
 0.7370	31.8200
 0.7380	31.8200
 0.7390	31.8800
 0.7400	31.9000
 0.7410	31.8600
 0.7420	31.9200
 0.7430	31.9800
 0.7440	32.0500
 0.7450	32.1300
 0.7460	32.0700
 0.7470	32.1300
 0.7480	32.1900
 0.7490	32.2700
 0.7500	32.3300
 0.7510	32.3100
 0.7520	32.3300
 0.7530	32.3900
 0.7540	32.3300
 0.7550	32.5100
 0.7560	32.5600
 0.7570	32.5600
 0.7580	32.5100
 0.7590	32.5500
 0.7600	32.7400
 0.7610	32.7300
 0.7620	32.8100
 0.7630	32.7400
 0.7640	32.8100
 0.7650	33.0000
 0.7660	33.0400
 0.7670	33.0600
 0.7680	33.0300
 0.7690	33.1000
 0.7700	33.2300
 0.7710	33.2900
 0.7720	33.3100
 0.7730	33.2700
 0.7740	33.2900
 0.7750	33.3700
 0.7760	33.4700
 0.7770	33.4500
 0.7780	33.6000
 0.7790	33.8100
 0.7800	33.8800
 0.7810	33.8700
 0.7820	33.8300
 0.7830	33.7700
 0.7840	33.7700
 0.7850	33.8300
 0.7860	33.8900
 0.7870	33.8600
 0.7880	33.8900
 0.7890	33.8600
 0.7900	33.8400
 0.7910	33.9700
 0.7920	34.2000
 0.7930	34.0600
 0.7940	33.9900
 0.7950	34.0000
 0.7960	34.0300
 0.7970	34.1300
 0.7980	34.1300
 0.7990	33.9800
 0.8000	34.4300
 0.8040	34.4200
 0.8080	34.4400
 0.8120	34.3800
 0.8160	34.4700
 0.8200	34.4600
 0.8240	34.3700
 0.8280	34.3700
 0.8320	34.3600
 0.8360	34.3300
 0.8400	34.3000
 0.8440	34.1100
 0.8480	34.1800
 0.8520	34.1000
 0.8560	34.0800
 0.8600	34.0200
 0.8640	33.9900
 0.8680	33.9100
 0.8720	33.8300
 0.8760	33.7800
 0.8800	33.7400
 0.8840	33.7400
 0.8880	33.7400
 0.8920	33.6800
 0.8960	33.6800
 0.9000	33.6200
 0.9040	33.5400
 0.9080	33.5400
 0.9120	33.4400
 0.9160	33.3900
 0.9200	33.3000
 0.9240	33.1200
 0.9280	33.0200
 0.9320	32.8400
 0.9360	32.8300
 0.9400	32.6200
 0.9440	32.5100
 0.9480	32.2900
 0.9520	32.1700
 0.9560	31.9600
 0.9600	31.7500
 0.9640	31.5900
 0.9680	31.4600
 0.9720	31.2400
 0.9760	30.9800
 0.9800	30.7600
 0.9840	30.5700
 0.9880	30.2700
 0.9920	30.0700
 0.9960	29.8400
 1.0000	29.7300
 1.0040	29.5100
 1.0080	29.2700
 1.0120	29.0200
 1.0160	28.8900
 1.0200	28.6500
 1.0240	28.6200
 1.0280	28.4500
 1.0320	28.2900
 1.0360	28.2600
 1.0400	28.2500
 1.0440	28.2400
 1.0480	28.2900
 1.0520	28.2400
 1.0560	28.3200
 1.0600	28.4100
 1.0640	28.5700
 1.0680	28.7600
 1.0720	28.9800
 1.0760	29.2700
 1.0800	29.5200
 1.0840	29.8200
 1.0880	30.2200
 1.0920	30.5500
 1.0960	30.9800
 1.1000	31.3700
 1.1040	31.7000
 1.1080	32.2100
 1.1120	32.5500
 1.1160	32.9600
 1.1200	33.3900
 1.1240	33.7400
 1.1280	34.0600
 1.1320	34.4900
 1.1360	34.7900
 1.1400	35.1500
 1.1440	35.5500
 1.1480	35.8100
 1.1520	36.1500
 1.1560	36.4400
 1.1600	36.7400
 1.1640	37.0700
 1.1680	37.3400
 1.1720	37.6200
 1.1760	37.8800
 1.1800	38.1200
 1.1840	38.4000
 1.1880	38.6600
 1.1920	38.9000
 1.1960	39.0900
 1.2000	39.3500
 1.2040	39.5900
 1.2080	39.7300
 1.2120	39.9500
 1.2160	40.1500
 1.2200	40.3400
 1.2240	40.6100
 1.2280	40.8200
 1.2320	40.9900
 1.2360	41.1600
 1.2400	41.3300
 1.2440	41.5200
 1.2480	41.7900
 1.2520	41.9300
 1.2560	42.0800
 1.2600	42.2700
 1.2640	42.4700
 1.2680	42.6300
 1.2720	42.7700
 1.2760	42.9000
 1.2800	43.1200
 1.2840	43.3200
 1.2880	43.5200
 1.2920	43.6300
 1.2960	43.8600
 1.3000	44.0200
 1.3040	44.1700
 1.3080	44.3100
 1.3120	44.4800
 1.3160	44.6800
 1.3200	44.7200
 1.3240	44.9200
 1.3280	45.0300
 1.3320	45.1600
 1.3360	45.3800
 1.3400	45.5500
 1.3440	45.6600
 1.3480	45.8000
 1.3520	45.8800
 1.3560	46.0200
 1.3600	46.2200
 1.3640	46.3000
 1.3680	46.3400
 1.3720	46.3500
 1.3760	46.4000
 1.3800	46.4800
 1.3840	45.7800
 1.3880	45.0800
 1.3920	44.8700
 1.3960	45.3300
 1.4000	46.0200
 1.4040	46.5200
 1.4080	47.0400
 1.4120	47.2800
 1.4160	47.4200
 1.4200	47.5700
 1.4240	47.7800
 1.4280	47.9600
 1.4320	48.0100
 1.4360	48.2000
 1.4400	48.3400
 1.4440	48.5500
 1.4480	48.6400
 1.4520	48.6700
 1.4560	48.8400
 1.4600	48.9000
 1.4640	49.0400
 1.4680	49.2000
 1.4720	49.2800
 1.4760	49.4200
 1.4800	49.5100
 1.4840	49.6300
 1.4880	49.6800
 1.4920	49.8400
 1.4960	49.9400
 1.5000	50.0400
 1.5040	50.2400
 1.5080	50.2400
 1.5120	50.3900
 1.5160	50.4500
 1.5200	50.5300
 1.5240	50.5700
 1.5280	50.6900
 1.5320	50.7700
 1.5360	50.8600
 1.5400	50.8900
 1.5440	50.9900
 1.5480	51.0900
 1.5520	51.1400
 1.5560	51.3100
 1.5600	51.3100
 1.5640	51.4400
 1.5680	51.5000
 1.5720	51.5300
 1.5760	51.7000
 1.5800	51.7300
 1.5840	51.7900
 1.5880	51.9000
 1.5920	51.8900
 1.5960	52.0000
 1.6000	52.0600
 1.6040	52.1600
 1.6080	52.1800
 1.6120	52.3100
 1.6160	52.2600
 1.6200	52.4100
 1.6240	52.4600
 1.6280	52.4500
 1.6320	52.5400
 1.6360	52.5500
 1.6400	52.6100
 1.6440	52.6300
 1.6480	52.6700
 1.6520	52.7200
 1.6560	52.7000
 1.6600	52.7300
 1.6640	52.8700
 1.6680	52.9000
 1.6720	52.9900
 1.6760	52.9100
 1.6800	53.0000
 1.6840	52.9800
 1.6880	53.0300
 1.6920	53.0800
 1.6960	53.1500
 1.7000	53.2400
 1.7040	53.2500
 1.7080	53.3000
 1.7120	53.3100
 1.7160	53.3100
 1.7200	53.3900
 1.7240	53.3600
 1.7280	53.3600
 1.7320	53.3900
 1.7360	53.4100
 1.7400	53.4700
 1.7440	53.4400
 1.7480	53.4700
 1.7520	53.5100
 1.7560	53.4200
 1.7600	53.4700
 1.7640	53.4000
 1.7680	53.4500
 1.7720	53.4100
 1.7760	53.3600
 1.7800	53.4500
 1.7840	53.4000
 1.7880	53.4000
 1.7920	53.4500
 1.7960	53.5300
 1.8000	53.5800
 1.8040	53.5000
 1.8080	53.5000
 1.8120	53.5000
 1.8160	53.5200
 1.8200	53.4900
 1.8240	53.5100
 1.8280	53.5600
 1.8320	53.4400
 1.8360	53.4200
 1.8400	53.4200
 1.8440	53.3500
 1.8480	53.3200
 1.8520	53.2600
 1.8560	53.2300
 1.8600	53.1300
 1.8640	53.0500
 1.8680	52.8600
 1.8720	52.7600
 1.8760	52.5100
 1.8800	52.3700
 1.8840	52.1000
 1.8880	51.7700
 1.8920	51.3000
 1.8960	50.9500
 1.9000	50.6000
 1.9040	50.4000
 1.9080	50.2400
 1.9120	50.1700
 1.9160	50.3100
 1.9200	50.3600
 1.9240	50.4500
 1.9280	50.4400
 1.9320	50.4700
 1.9360	50.4700
 1.9400	50.4900
 1.9440	50.5600
 1.9480	50.6400
 1.9520	50.6000
 1.9560	50.6300
 1.9600	50.7100
 1.9640	50.7800
 1.9680	50.8700
 1.9720	50.8700
 1.9760	50.9000
 1.9800	51.0500
 1.9840	50.9800
 1.9880	51.0800
 1.9920	51.1300
 1.9960	51.1400
 2.0000	51.1800
 2.0040	51.1200
 2.0080	51.1300
 2.0120	51.0700
 2.0160	51.0500
 2.0200	51.0600
 2.0240	50.9900
 2.0280	51.0400
 2.0320	51.0500
 2.0360	50.9800
 2.0400	51.0200
 2.0440	50.9500
 2.0480	50.9400
 2.0520	50.8600
 2.0560	50.8500
 2.0600	50.8300
 2.0640	50.7000
 2.0680	50.6800
 2.0720	50.5300
 2.0760	50.4600
 2.0800	50.3800
 2.0840	50.3000
 2.0880	50.1800
 2.0920	50.1500
 2.0960	50.1100
 2.1000	50.0400
 2.1040	50.0900
 2.1080	49.9700
 2.1120	50.0100
 2.1160	49.9600
 2.1200	49.9000
 2.1240	49.8500
 2.1280	49.7900
 2.1320	49.5900
 2.1360	49.5900
 2.1400	49.4400
 2.1440	49.3300
 2.1480	49.2800
 2.1520	49.2200
 2.1560	49.0300
 2.1600	48.9600
 2.1640	48.8700
 2.1680	48.6700
 2.1720	48.6500
 2.1760	48.5600
 2.1800	48.4500
 2.1840	48.3600
 2.1880	48.2500
 2.1920	48.1500
 2.1960	48.0500
 2.2000	47.8900
 2.2040	47.8000
 2.2080	47.7000
 2.2120	47.6800
 2.2160	47.5500
 2.2200	47.4300
 2.2240	47.2900
 2.2280	47.2400
 2.2320	47.1100
 2.2360	46.9800
 2.2400	46.9400
 2.2440	46.8500
 2.2480	46.8200
 2.2520	46.6700
 2.2560	46.6200
 2.2600	46.4600
 2.2640	46.2600
 2.2680	46.0700
 2.2720	45.8000
 2.2760	45.4500
 2.2800	45.0900
 2.2840	44.6600
 2.2880	44.2700
 2.2920	43.8000
 2.2960	43.4300
 2.3000	42.9900
 2.3040	42.7800
 2.3080	42.4000
 2.3120	42.4600
 2.3160	42.6300
 2.3200	42.8600
 2.3240	43.2700
 2.3280	43.6700
 2.3320	44.0900
 2.3360	44.4900
 2.3400	44.8100
 2.3440	45.0000
 2.3480	45.1400
 2.3520	45.2300
 2.3560	45.2700
 2.3600	45.1900
 2.3640	45.1500
 2.3680	44.9300
 2.3720	44.8200
 2.3760	44.6300
 2.3800	44.5100
 2.3840	44.4600
 2.3880	44.4700
 2.3920	44.5800
 2.3960	44.6100
 2.4000	44.8300
 2.4040	45.0200
 2.4080	45.1200
 2.4120	45.2300
 2.4160	45.3600
 2.4200	45.4700
 2.4240	45.5500
 2.4280	45.5700
 2.4320	45.6000
 2.4360	45.6500
 2.4400	45.5900
 2.4440	45.5800
 2.4480	45.6700
 2.4520	45.6100
 2.4560	45.6800
 2.4600	45.7100
 2.4640	45.7600
 2.4680	45.7800
 2.4720	45.9000
 2.4760	45.9700
 2.4800	46.0800
 2.4840	46.1800
 2.4880	46.3100
 2.4920	46.4700
 2.4960	46.5300
 2.5000	46.6900
