Name: Smithsonite PbCO_3
Type: Mineral
Class: Carbonate
Subclass: None
Particle Size: Coarse
Sample No.: C-11A
Owner: JPL
Wavelength Range: VSWIR
Origin: 
Collection Date: N/A
Description: Particle size was 125-500um.Collected by JPL Original ASTER Spectral Library name was jpl.beckman.mineral.carbonate.none.coarse.c11a.spectrum.txt
Measurement: Hemispherical reflectance
First Column: X
Second Column: Y
X Units: Wavelength (micrometers)
Y Units:Reflectance (percent)
First X Value:  0.4000
Last X Value:  2.5000
Number of X Values: 826
Additional Information: mineral.carbonate.none.coarse.vswir.c-11a.jpl.beckman.ancillary.txt

 0.4000	69.0000
 0.4010	69.8800
 0.4020	70.3200
 0.4030	70.5500
 0.4040	70.8800
 0.4050	71.1600
 0.4060	71.3100
 0.4070	71.3600
 0.4080	71.2500
 0.4090	71.3900
 0.4100	71.5600
 0.4110	71.8000
 0.4120	72.2600
 0.4130	72.3800
 0.4140	72.7600
 0.4150	73.0800
 0.4160	73.3000
 0.4170	73.5000
 0.4180	73.6200
 0.4190	73.9000
 0.4200	74.2600
 0.4210	74.3100
 0.4220	74.5600
 0.4230	74.7300
 0.4240	75.0000
 0.4250	75.2800
 0.4260	75.4700
 0.4270	75.6500
 0.4280	75.7200
 0.4290	75.9700
 0.4300	76.1900
 0.4310	76.2900
 0.4320	76.4400
 0.4330	76.5600
 0.4340	76.8400
 0.4350	77.0800
 0.4360	77.0600
 0.4370	77.3100
 0.4380	77.4000
 0.4390	77.4900
 0.4400	77.5600
 0.4410	77.6600
 0.4420	77.8100
 0.4430	77.7800
 0.4440	77.9900
 0.4450	78.0500
 0.4460	78.0500
 0.4470	78.1900
 0.4480	78.2200
 0.4490	78.3000
 0.4500	78.4700
 0.4510	78.4800
 0.4520	78.5100
 0.4530	78.4600
 0.4540	78.4600
 0.4550	78.5500
 0.4560	78.5000
 0.4570	78.6600
 0.4580	78.5800
 0.4590	78.7200
 0.4600	78.6800
 0.4610	78.5400
 0.4620	78.4900
 0.4630	78.4300
 0.4640	78.4700
 0.4650	78.3700
 0.4660	78.2100
 0.4670	78.1800
 0.4680	78.1100
 0.4690	78.0300
 0.4700	77.8300
 0.4710	77.6700
 0.4720	77.6600
 0.4730	77.5300
 0.4740	77.4700
 0.4750	77.4100
 0.4760	77.3200
 0.4770	77.3200
 0.4780	77.3400
 0.4790	77.1800
 0.4800	77.0500
 0.4810	77.0500
 0.4820	77.1000
 0.4830	77.1300
 0.4840	77.2200
 0.4850	77.2900
 0.4860	77.2700
 0.4870	77.3600
 0.4880	77.4000
 0.4890	77.4800
 0.4900	77.3800
 0.4910	77.2900
 0.4920	77.4300
 0.4930	77.3600
 0.4940	77.3400
 0.4950	77.1900
 0.4960	77.0900
 0.4970	77.0600
 0.4980	77.0700
 0.4990	77.0400
 0.5000	76.9900
 0.5010	76.8300
 0.5020	76.6700
 0.5030	76.6700
 0.5040	76.6200
 0.5050	76.5100
 0.5060	76.3400
 0.5070	76.3800
 0.5080	76.3100
 0.5090	76.2500
 0.5100	76.1900
 0.5110	75.9800
 0.5120	76.0300
 0.5130	75.9700
 0.5140	75.8800
 0.5150	75.8000
 0.5160	75.8400
 0.5170	75.9100
 0.5180	75.8300
 0.5190	75.8800
 0.5200	75.8600
 0.5210	75.8400
 0.5220	75.9000
 0.5230	75.9200
 0.5240	76.0700
 0.5250	76.1100
 0.5260	76.0700
 0.5270	76.2100
 0.5280	76.2100
 0.5290	76.2000
 0.5300	76.3800
 0.5310	76.3500
 0.5320	76.4800
 0.5330	76.5400
 0.5340	76.5600
 0.5350	76.5600
 0.5360	76.6000
 0.5370	76.7600
 0.5380	76.8800
 0.5390	76.9900
 0.5400	77.0400
 0.5410	76.9600
 0.5420	77.0800
 0.5430	77.2200
 0.5440	77.3600
 0.5450	77.6200
 0.5460	77.6100
 0.5470	77.7500
 0.5480	78.0100
 0.5490	78.2100
 0.5500	78.4100
 0.5510	78.5500
 0.5520	78.7800
 0.5530	79.0100
 0.5540	79.2400
 0.5550	79.4400
 0.5560	79.5900
 0.5570	79.7400
 0.5580	79.9300
 0.5590	80.0800
 0.5600	80.1600
 0.5610	81.0400
 0.5620	81.3200
 0.5630	81.4300
 0.5640	81.5900
 0.5650	81.8100
 0.5660	81.9700
 0.5670	82.2400
 0.5680	82.3600
 0.5690	82.5200
 0.5700	82.6700
 0.5710	82.7700
 0.5720	82.9500
 0.5730	83.0700
 0.5740	83.0100
 0.5750	83.2100
 0.5760	83.4000
 0.5770	83.5500
 0.5780	83.4900
 0.5790	83.4300
 0.5800	83.6100
 0.5810	83.7100
 0.5820	83.8100
 0.5830	83.7600
 0.5840	83.6900
 0.5850	83.8000
 0.5860	83.8000
 0.5870	83.8800
 0.5880	83.8300
 0.5890	83.8200
 0.5900	83.8600
 0.5910	83.8600
 0.5920	83.9800
 0.5930	83.9400
 0.5940	83.8800
 0.5950	83.9400
 0.5960	83.7600
 0.5970	83.8300
 0.5980	83.8700
 0.5990	83.7600
 0.6000	83.8100
 0.6010	83.7000
 0.6020	83.7400
 0.6030	83.7200
 0.6040	83.5400
 0.6050	83.5900
 0.6060	83.4000
 0.6070	83.4600
 0.6080	83.3900
 0.6090	83.2200
 0.6100	83.1600
 0.6110	83.1200
 0.6120	83.0700
 0.6130	83.0300
 0.6140	82.9100
 0.6150	82.9100
 0.6160	82.7100
 0.6170	82.5600
 0.6180	82.5700
 0.6190	82.4500
 0.6200	82.3300
 0.6210	82.1800
 0.6220	82.1800
 0.6230	82.1800
 0.6240	81.9800
 0.6250	81.9500
 0.6260	81.8300
 0.6270	81.7000
 0.6280	81.7100
 0.6290	81.6000
 0.6300	81.5300
 0.6310	81.4100
 0.6320	81.3100
 0.6330	81.1300
 0.6340	81.0800
 0.6350	80.9700
 0.6360	80.9600
 0.6370	80.7800
 0.6380	80.7700
 0.6390	80.5300
 0.6400	80.5900
 0.6410	80.5300
 0.6420	80.3200
 0.6430	80.2600
 0.6440	80.1300
 0.6450	80.0500
 0.6460	79.9900
 0.6470	79.7700
 0.6480	79.7900
 0.6490	79.6400
 0.6500	79.5500
 0.6510	79.5400
 0.6520	79.4700
 0.6530	79.4400
 0.6540	79.2300
 0.6550	79.0500
 0.6560	79.1000
 0.6570	78.8800
 0.6580	78.7500
 0.6590	78.5800
 0.6600	78.5100
 0.6610	78.4700
 0.6620	78.2800
 0.6630	78.3500
 0.6640	78.1200
 0.6650	77.9200
 0.6660	77.8500
 0.6670	77.7400
 0.6680	77.7300
 0.6690	77.5500
 0.6700	77.3900
 0.6710	77.3600
 0.6720	77.3100
 0.6730	77.2200
 0.6740	77.0800
 0.6750	76.8700
 0.6760	76.8700
 0.6770	76.7200
 0.6780	76.6200
 0.6790	76.5100
 0.6800	76.3900
 0.6810	76.3300
 0.6820	76.1800
 0.6830	76.2200
 0.6840	76.1200
 0.6850	75.8800
 0.6860	75.9000
 0.6870	75.6700
 0.6880	75.6700
 0.6890	75.6400
 0.6900	75.3700
 0.6910	75.3000
 0.6920	75.2000
 0.6930	75.2000
 0.6940	75.0600
 0.6950	74.8500
 0.6960	74.8000
 0.6970	74.7000
 0.6980	74.6100
 0.6990	74.5200
 0.7000	74.3700
 0.7010	74.4200
 0.7020	74.1700
 0.7030	74.0500
 0.7040	73.9700
 0.7050	73.8300
 0.7060	73.6900
 0.7070	73.6800
 0.7080	73.6700
 0.7090	73.5600
 0.7100	73.3000
 0.7110	73.1700
 0.7120	73.1500
 0.7130	73.1400
 0.7140	73.0100
 0.7150	72.9100
 0.7160	72.7500
 0.7170	72.6600
 0.7180	72.5800
 0.7190	72.4800
 0.7200	72.3900
 0.7210	72.2600
 0.7220	72.1600
 0.7230	72.0900
 0.7240	72.0700
 0.7250	71.8800
 0.7260	71.8300
 0.7270	71.6300
 0.7280	71.6500
 0.7290	71.4800
 0.7300	71.3800
 0.7310	71.2300
 0.7320	71.1000
 0.7330	71.0900
 0.7340	70.9700
 0.7350	70.8600
 0.7360	70.7600
 0.7370	70.5800
 0.7380	70.5400
 0.7390	70.5400
 0.7400	70.3600
 0.7410	70.3000
 0.7420	70.2000
 0.7430	70.2200
 0.7440	70.0600
 0.7450	69.9500
 0.7460	69.8300
 0.7470	69.6500
 0.7480	69.5700
 0.7490	69.5400
 0.7500	69.4500
 0.7510	69.3300
 0.7520	69.1900
 0.7530	69.1400
 0.7540	69.0900
 0.7550	68.9000
 0.7560	68.8500
 0.7570	68.6500
 0.7580	68.5100
 0.7590	68.4900
 0.7600	68.4100
 0.7610	68.3100
 0.7620	68.1400
 0.7630	68.0300
 0.7640	67.9200
 0.7650	67.9200
 0.7660	67.8400
 0.7670	67.6300
 0.7680	67.5700
 0.7690	67.4500
 0.7700	67.3700
 0.7710	67.2500
 0.7720	67.0900
 0.7730	66.9300
 0.7740	66.8600
 0.7750	66.7600
 0.7760	66.7000
 0.7770	66.5600
 0.7780	66.5200
 0.7790	66.3300
 0.7800	66.1400
 0.7810	66.1400
 0.7820	66.0400
 0.7830	65.9600
 0.7840	65.7700
 0.7850	65.7100
 0.7860	65.6900
 0.7870	65.5600
 0.7880	65.4200
 0.7890	65.3200
 0.7900	65.2400
 0.7910	65.3100
 0.7920	65.2000
 0.7930	64.9700
 0.7940	64.8600
 0.7950	64.7100
 0.7960	64.6500
 0.7970	64.5100
 0.7980	64.4200
 0.7990	64.3700
 0.8000	64.1100
 0.8040	63.7500
 0.8080	63.2300
 0.8120	62.6600
 0.8160	62.3600
 0.8200	61.8600
 0.8240	61.3000
 0.8280	60.9000
 0.8320	60.4300
 0.8360	60.0600
 0.8400	59.5800
 0.8440	59.1700
 0.8480	58.7100
 0.8520	58.2900
 0.8560	57.8800
 0.8600	57.4400
 0.8640	57.0700
 0.8680	56.6600
 0.8720	56.2700
 0.8760	55.8700
 0.8800	55.5900
 0.8840	55.2200
 0.8880	54.9500
 0.8920	54.5800
 0.8960	54.3400
 0.9000	54.0300
 0.9040	53.7900
 0.9080	53.5500
 0.9120	53.3400
 0.9160	53.1400
 0.9200	52.9700
 0.9240	52.7600
 0.9280	52.6900
 0.9320	52.6200
 0.9360	52.4800
 0.9400	52.3300
 0.9440	52.3900
 0.9480	52.3100
 0.9520	52.2400
 0.9560	52.2700
 0.9600	52.2500
 0.9640	52.4100
 0.9680	52.4800
 0.9720	52.4900
 0.9760	52.5900
 0.9800	52.7100
 0.9840	52.8100
 0.9880	53.0200
 0.9920	53.2100
 0.9960	53.3700
 1.0000	53.5100
 1.0040	53.9200
 1.0080	54.1700
 1.0120	54.3400
 1.0160	54.6500
 1.0200	54.9700
 1.0240	55.2600
 1.0280	55.5200
 1.0320	55.8600
 1.0360	56.1800
 1.0400	56.6000
 1.0440	56.9600
 1.0480	57.3000
 1.0520	57.5400
 1.0560	58.0100
 1.0600	58.2900
 1.0640	58.6200
 1.0680	58.9900
 1.0720	59.3200
 1.0760	59.6500
 1.0800	59.9800
 1.0840	60.3100
 1.0880	60.6400
 1.0920	60.9100
 1.0960	61.2600
 1.1000	61.4600
 1.1040	61.7500
 1.1080	62.0300
 1.1120	62.3800
 1.1160	62.6400
 1.1200	62.8900
 1.1240	63.1100
 1.1280	63.3800
 1.1320	63.5000
 1.1360	63.7000
 1.1400	63.8900
 1.1440	64.0800
 1.1480	64.1400
 1.1520	64.3400
 1.1560	64.4800
 1.1600	64.6600
 1.1640	64.8900
 1.1680	64.9900
 1.1720	65.2500
 1.1760	65.3500
 1.1800	65.5200
 1.1840	65.6900
 1.1880	65.8400
 1.1920	65.9900
 1.1960	66.1500
 1.2000	66.3400
 1.2040	66.5400
 1.2080	66.7400
 1.2120	66.9000
 1.2160	67.1300
 1.2200	67.3600
 1.2240	67.5800
 1.2280	67.8500
 1.2320	68.0400
 1.2360	68.3100
 1.2400	68.6200
 1.2440	68.8400
 1.2480	69.1800
 1.2520	69.3400
 1.2560	69.6700
 1.2600	69.9300
 1.2640	70.2100
 1.2680	70.5100
 1.2720	70.8000
 1.2760	71.0700
 1.2800	71.3700
 1.2840	71.6400
 1.2880	71.8600
 1.2920	72.1000
 1.2960	72.3700
 1.3000	72.6200
 1.3040	72.8700
 1.3080	73.1800
 1.3120	73.4100
 1.3160	73.6200
 1.3200	73.8700
 1.3240	74.0500
 1.3280	74.3100
 1.3320	74.5400
 1.3360	74.7600
 1.3400	74.9600
 1.3440	75.1400
 1.3480	75.2700
 1.3520	75.4900
 1.3560	75.6600
 1.3600	75.9100
 1.3640	75.9500
 1.3680	76.1400
 1.3720	76.1800
 1.3760	76.3100
 1.3800	76.2800
 1.3840	76.3200
 1.3880	76.2700
 1.3920	76.0500
 1.3960	75.9500
 1.4000	75.6300
 1.4040	75.2900
 1.4080	74.6900
 1.4120	74.5000
 1.4160	74.4200
 1.4200	74.3800
 1.4240	74.3800
 1.4280	74.2200
 1.4320	74.2400
 1.4360	74.2600
 1.4400	74.1800
 1.4440	74.0700
 1.4480	74.0900
 1.4520	74.0600
 1.4560	73.9200
 1.4600	73.9200
 1.4640	73.9300
 1.4680	73.9300
 1.4720	73.8500
 1.4760	73.8700
 1.4800	73.9000
 1.4840	73.9000
 1.4880	73.8900
 1.4920	73.9700
 1.4960	73.9600
 1.5000	73.9600
 1.5040	73.9400
 1.5080	73.9800
 1.5120	73.9700
 1.5160	73.9800
 1.5200	73.9900
 1.5240	74.0100
 1.5280	73.9300
 1.5320	73.9300
 1.5360	73.8300
 1.5400	73.9400
 1.5440	73.9000
 1.5480	73.8400
 1.5520	73.7700
 1.5560	73.7400
 1.5600	73.8000
 1.5640	73.6800
 1.5680	73.6300
 1.5720	73.6200
 1.5760	73.5800
 1.5800	73.6000
 1.5840	73.6900
 1.5880	73.6700
 1.5920	73.6200
 1.5960	73.6600
 1.6000	73.6200
 1.6040	73.5100
 1.6080	73.5200
 1.6120	73.4500
 1.6160	73.3500
 1.6200	73.2400
 1.6240	73.2500
 1.6280	73.2300
 1.6320	73.0700
 1.6360	73.0600
 1.6400	72.9600
 1.6440	72.8800
 1.6480	72.7600
 1.6520	72.6700
 1.6560	72.6500
 1.6600	72.4900
 1.6640	72.5000
 1.6680	72.4600
 1.6720	72.3700
 1.6760	72.3400
 1.6800	72.2400
 1.6840	72.0400
 1.6880	71.9400
 1.6920	71.8700
 1.6960	71.7800
 1.7000	71.5500
 1.7040	71.4400
 1.7080	71.3400
 1.7120	71.1900
 1.7160	71.0300
 1.7200	70.9400
 1.7240	70.7600
 1.7280	70.6300
 1.7320	70.5800
 1.7360	70.4800
 1.7400	70.3200
 1.7440	70.1700
 1.7480	70.0800
 1.7520	69.9800
 1.7560	70.0000
 1.7600	69.8200
 1.7640	69.8500
 1.7680	69.7900
 1.7720	69.7600
 1.7760	69.7700
 1.7800	69.7300
 1.7840	69.6600
 1.7880	69.7500
 1.7920	69.6000
 1.7960	69.5200
 1.8000	69.4300
 1.8040	69.2600
 1.8080	69.1600
 1.8120	68.8700
 1.8160	68.6200
 1.8200	68.3800
 1.8240	68.1400
 1.8280	67.8600
 1.8320	67.6200
 1.8360	67.3500
 1.8400	67.0300
 1.8440	66.7000
 1.8480	66.4400
 1.8520	66.1700
 1.8560	65.7100
 1.8600	65.4200
 1.8640	65.0400
 1.8680	64.4500
 1.8720	63.7500
 1.8760	63.1200
 1.8800	62.4700
 1.8840	61.9100
 1.8880	61.3700
 1.8920	61.1200
 1.8960	60.9500
 1.9000	60.8400
 1.9040	60.6300
 1.9080	60.3500
 1.9120	59.9900
 1.9160	59.6100
 1.9200	59.2100
 1.9240	58.7900
 1.9280	58.4700
 1.9320	58.1100
 1.9360	57.9400
 1.9400	57.7300
 1.9440	57.5200
 1.9480	57.3200
 1.9520	57.1800
 1.9560	56.9500
 1.9600	56.7000
 1.9640	56.6100
 1.9680	56.3600
 1.9720	56.2500
 1.9760	56.1200
 1.9800	56.0100
 1.9840	55.7500
 1.9880	55.5100
 1.9920	55.3100
 1.9960	55.1300
 2.0000	55.0300
 2.0040	55.0000
 2.0080	55.2200
 2.0120	55.5200
 2.0160	55.8400
 2.0200	56.2800
 2.0240	56.5500
 2.0280	56.8600
 2.0320	57.0100
 2.0360	57.1200
 2.0400	57.2700
 2.0440	57.2900
 2.0480	57.4300
 2.0520	57.4300
 2.0560	57.5600
 2.0600	57.6400
 2.0640	57.7100
 2.0680	57.7200
 2.0720	57.8100
 2.0760	57.8500
 2.0800	57.8700
 2.0840	58.0000
 2.0880	58.0300
 2.0920	58.0000
 2.0960	58.0200
 2.1000	58.0600
 2.1040	58.1000
 2.1080	58.0700
 2.1120	58.1000
 2.1160	58.1300
 2.1200	58.1000
 2.1240	58.0300
 2.1280	57.8600
 2.1320	57.7100
 2.1360	57.5200
 2.1400	57.2300
 2.1440	56.9800
 2.1480	56.6700
 2.1520	56.5300
 2.1560	56.4500
 2.1600	56.4000
 2.1640	56.4500
 2.1680	56.5400
 2.1720	56.6400
 2.1760	56.7500
 2.1800	56.8600
 2.1840	56.8400
 2.1880	56.7400
 2.1920	56.5400
 2.1960	56.3600
 2.2000	56.2000
 2.2040	55.8600
 2.2080	55.5700
 2.2120	55.0900
 2.2160	54.6700
 2.2200	54.1400
 2.2240	53.6500
 2.2280	52.9900
 2.2320	52.4600
 2.2360	51.7900
 2.2400	51.1000
 2.2440	50.4100
 2.2480	49.7100
 2.2520	48.9000
 2.2560	48.1100
 2.2600	47.3100
 2.2640	46.4700
 2.2680	45.6500
 2.2720	44.8900
 2.2760	44.0200
 2.2800	43.0300
 2.2840	42.0700
 2.2880	41.1800
 2.2920	40.1800
 2.2960	39.2100
 2.3000	38.3000
 2.3040	37.1300
 2.3080	36.5500
 2.3120	35.9000
 2.3160	35.4100
 2.3200	35.0200
 2.3240	34.7000
 2.3280	34.3800
 2.3320	34.0200
 2.3360	33.6400
 2.3400	33.2400
 2.3440	32.8500
 2.3480	32.5300
 2.3520	32.1800
 2.3560	31.9600
 2.3600	31.9900
 2.3640	32.3800
 2.3680	33.1500
 2.3720	34.2800
 2.3760	35.7700
 2.3800	37.4800
 2.3840	39.1400
 2.3880	40.6000
 2.3920	41.6900
 2.3960	42.5900
 2.4000	43.1200
 2.4040	43.2200
 2.4080	43.1100
 2.4120	42.8400
 2.4160	42.3500
 2.4200	41.7700
 2.4240	41.1600
 2.4280	40.5100
 2.4320	39.8400
 2.4360	39.1200
 2.4400	38.3500
 2.4440	37.5400
 2.4480	36.5700
 2.4520	35.6500
 2.4560	34.6900
 2.4600	33.6200
 2.4640	32.6100
 2.4680	31.5000
 2.4720	30.5600
 2.4760	29.6200
 2.4800	28.8000
 2.4840	28.0000
 2.4880	27.3000
 2.4920	26.6300
 2.4960	26.1900
 2.5000	25.7000
