Name: Quartz SiO_2
Type: Mineral
Class: Silicate
Subclass: Tectosilicate
Particle Size: Medium
Sample No.: TS-1E
Owner: JPL
Wavelength Range: VSWIR
Origin: Unknown.
Collection Date: N/A
Description: CrysopraseParticle size was 45-125um.Collected by:  JPL Original ASTER Spectral Library name was jpl.perkin.mineral.silicate.tectosilicate.medium.ts01e.spectrum.txt
Measurement: Hemispherical reflectance
First Column: X
Second Column: Y
X Units: Wavelength (micrometers)
Y Units:Reflectance (percent)
First X Value:  2.5000
Last X Value:  0.4000
Number of X Values: 2101
Additional Information: mineral.silicate.tectosilicate.medium.vswir.ts-1e.jpl.perkin.ancillary.txt

 2.5000	59.9848
 2.4990	59.9019
 2.4980	59.9691
 2.4970	59.8692
 2.4960	59.6471
 2.4950	60.0130
 2.4940	60.0840
 2.4930	60.0647
 2.4920	60.0732
 2.4910	60.4527
 2.4900	60.4577
 2.4890	60.3713
 2.4880	60.5643
 2.4870	60.5433
 2.4860	60.6646
 2.4850	60.6795
 2.4840	60.7533
 2.4830	60.8738
 2.4820	60.9454
 2.4810	60.9845
 2.4800	61.1178
 2.4790	61.2137
 2.4780	61.3479
 2.4770	61.3253
 2.4760	61.3930
 2.4750	61.4889
 2.4740	61.4287
 2.4730	61.5637
 2.4720	61.7375
 2.4710	61.8706
 2.4700	61.8456
 2.4690	62.1175
 2.4680	62.0556
 2.4670	62.1092
 2.4660	62.2500
 2.4650	62.2494
 2.4640	62.4185
 2.4630	62.5150
 2.4620	62.6647
 2.4610	62.7825
 2.4600	62.9206
 2.4590	62.9227
 2.4580	63.1184
 2.4570	63.0315
 2.4560	63.2493
 2.4550	63.4102
 2.4540	63.6351
 2.4530	63.6743
 2.4520	63.7747
 2.4510	63.7585
 2.4500	63.9451
 2.4490	64.2375
 2.4480	64.2753
 2.4470	64.3366
 2.4460	64.5258
 2.4450	64.5940
 2.4440	64.7653
 2.4430	64.8177
 2.4420	64.9558
 2.4410	64.9545
 2.4400	65.1215
 2.4390	65.0858
 2.4380	65.2917
 2.4370	65.4076
 2.4360	65.4910
 2.4350	65.4773
 2.4340	65.7774
 2.4330	65.8259
 2.4320	65.8779
 2.4310	66.0453
 2.4300	66.0727
 2.4290	66.2374
 2.4280	66.1540
 2.4270	66.1642
 2.4260	66.2595
 2.4250	66.3540
 2.4240	66.3537
 2.4230	66.3768
 2.4220	66.5471
 2.4210	66.5752
 2.4200	66.7093
 2.4190	66.7507
 2.4180	66.8859
 2.4170	66.9093
 2.4160	67.0106
 2.4150	67.0464
 2.4140	67.1551
 2.4130	67.0936
 2.4120	67.3146
 2.4110	67.4021
 2.4100	67.4324
 2.4090	67.5316
 2.4080	67.6036
 2.4070	67.7063
 2.4060	67.7480
 2.4050	67.7978
 2.4040	67.8315
 2.4030	67.9054
 2.4020	67.9861
 2.4010	67.9821
 2.4000	68.0908
 2.3990	68.1784
 2.3980	68.2802
 2.3970	68.3984
 2.3960	68.5334
 2.3950	68.5707
 2.3940	68.6232
 2.3930	68.6316
 2.3920	68.7254
 2.3910	68.7978
 2.3900	68.8588
 2.3890	69.0380
 2.3880	69.0919
 2.3870	69.1019
 2.3860	69.1706
 2.3850	69.2061
 2.3840	69.2571
 2.3830	69.3312
 2.3820	69.3716
 2.3810	69.4256
 2.3800	69.4885
 2.3790	69.5506
 2.3780	69.6034
 2.3770	69.5402
 2.3760	69.5953
 2.3750	69.6087
 2.3740	69.6872
 2.3730	69.7388
 2.3720	69.7067
 2.3710	69.6783
 2.3700	69.7622
 2.3690	69.7861
 2.3680	69.7864
 2.3670	69.7798
 2.3660	69.7888
 2.3650	69.8342
 2.3640	69.8544
 2.3630	69.8743
 2.3620	69.8551
 2.3610	69.7975
 2.3600	69.8405
 2.3590	69.8450
 2.3580	69.7828
 2.3570	69.8371
 2.3560	69.7954
 2.3550	69.7252
 2.3540	69.7678
 2.3530	69.6966
 2.3520	69.6485
 2.3510	69.6559
 2.3500	69.5801
 2.3490	69.4817
 2.3480	69.5130
 2.3470	69.4882
 2.3460	69.3951
 2.3450	69.2926
 2.3440	69.2620
 2.3430	69.2373
 2.3420	69.1710
 2.3410	69.0702
 2.3400	68.9290
 2.3390	68.8683
 2.3380	68.7653
 2.3370	68.6713
 2.3360	68.6237
 2.3350	68.5161
 2.3340	68.3859
 2.3330	68.2987
 2.3320	68.1429
 2.3310	68.0617
 2.3300	67.9520
 2.3290	67.7810
 2.3280	67.5628
 2.3270	67.4923
 2.3260	67.4064
 2.3250	67.3309
 2.3240	67.2222
 2.3230	67.1573
 2.3220	67.0655
 2.3210	66.9675
 2.3200	66.9107
 2.3190	66.7715
 2.3180	66.6757
 2.3170	66.6648
 2.3160	66.6220
 2.3150	66.5673
 2.3140	66.5116
 2.3130	66.4689
 2.3120	66.3917
 2.3110	66.3381
 2.3100	66.3196
 2.3090	66.3711
 2.3080	66.3531
 2.3070	66.2935
 2.3060	66.3151
 2.3050	66.3617
 2.3040	66.2963
 2.3030	66.3347
 2.3020	66.3098
 2.3010	66.2623
 2.3000	66.3027
 2.2990	66.3670
 2.2980	66.3122
 2.2970	66.4124
 2.2960	66.4606
 2.2950	66.4870
 2.2940	66.4735
 2.2930	66.5491
 2.2920	66.5878
 2.2910	66.6477
 2.2900	66.6050
 2.2890	66.6956
 2.2880	66.6674
 2.2870	66.8115
 2.2860	66.8067
 2.2850	66.8730
 2.2840	66.8909
 2.2830	66.9609
 2.2820	66.9139
 2.2810	66.9331
 2.2800	66.9782
 2.2790	67.0343
 2.2780	66.9977
 2.2770	67.0448
 2.2760	67.0041
 2.2750	66.9854
 2.2740	67.0930
 2.2730	67.0546
 2.2720	67.0527
 2.2710	67.0614
 2.2700	67.1059
 2.2690	67.1014
 2.2680	66.9868
 2.2670	67.0826
 2.2660	67.1243
 2.2650	67.0645
 2.2640	66.9960
 2.2630	67.0207
 2.2620	67.0219
 2.2610	67.0105
 2.2600	66.9658
 2.2590	66.9159
 2.2580	66.8460
 2.2570	66.9081
 2.2560	66.8412
 2.2550	66.8939
 2.2540	66.9204
 2.2530	66.8748
 2.2520	66.8672
 2.2510	66.9013
 2.2500	66.9192
 2.2490	66.9574
 2.2480	66.9648
 2.2470	66.9746
 2.2460	67.0051
 2.2450	66.9840
 2.2440	67.0880
 2.2430	67.0945
 2.2420	67.1218
 2.2410	67.1112
 2.2400	67.1668
 2.2390	67.1335
 2.2380	67.2064
 2.2370	67.3214
 2.2360	67.3233
 2.2350	67.3682
 2.2340	67.2831
 2.2330	67.3577
 2.2320	67.3380
 2.2310	67.3453
 2.2300	67.3031
 2.2290	67.4382
 2.2280	67.3458
 2.2270	67.4306
 2.2260	67.4174
 2.2250	67.4205
 2.2240	67.4125
 2.2230	67.4696
 2.2220	67.4031
 2.2210	67.4411
 2.2200	67.5002
 2.2190	67.4692
 2.2180	67.5402
 2.2170	67.5403
 2.2160	67.4752
 2.2150	67.6179
 2.2140	67.6260
 2.2130	67.6441
 2.2120	67.6832
 2.2110	67.7293
 2.2100	67.8825
 2.2090	67.9249
 2.2080	67.9525
 2.2070	68.2032
 2.2060	68.2552
 2.2050	68.4447
 2.2040	68.5017
 2.2030	68.7304
 2.2020	68.8784
 2.2010	69.0028
 2.2000	69.2191
 2.1990	69.4166
 2.1980	69.6357
 2.1970	69.7878
 2.1960	69.8597
 2.1950	70.0645
 2.1940	70.1705
 2.1930	70.3184
 2.1920	70.4796
 2.1910	70.6183
 2.1900	70.7678
 2.1890	70.9353
 2.1880	71.1129
 2.1870	71.3089
 2.1860	71.4132
 2.1850	71.6374
 2.1840	71.7118
 2.1830	71.9533
 2.1820	72.0941
 2.1810	72.2953
 2.1800	72.3995
 2.1790	72.5651
 2.1780	72.7348
 2.1770	72.8174
 2.1760	73.0149
 2.1750	73.1503
 2.1740	73.2431
 2.1730	73.3460
 2.1720	73.5791
 2.1710	73.6992
 2.1700	73.8749
 2.1690	73.9893
 2.1680	74.0722
 2.1670	74.1834
 2.1660	74.3074
 2.1650	74.4063
 2.1640	74.5858
 2.1630	74.6719
 2.1620	74.7374
 2.1610	74.9444
 2.1600	74.9980
 2.1590	75.0554
 2.1580	75.1478
 2.1570	75.2494
 2.1560	75.4200
 2.1550	75.4343
 2.1540	75.4862
 2.1530	75.5823
 2.1520	75.6440
 2.1510	75.6760
 2.1500	75.8052
 2.1490	75.8963
 2.1480	75.9692
 2.1470	75.9577
 2.1460	76.0068
 2.1450	76.0361
 2.1440	76.1280
 2.1430	76.1492
 2.1420	76.1644
 2.1410	76.3027
 2.1400	76.3122
 2.1390	76.3191
 2.1380	76.3699
 2.1370	76.3817
 2.1360	76.3293
 2.1350	76.4563
 2.1340	76.4677
 2.1330	76.4556
 2.1320	76.4601
 2.1310	76.3980
 2.1300	76.4689
 2.1290	76.4962
 2.1280	76.4636
 2.1270	76.4052
 2.1260	76.4226
 2.1250	76.4620
 2.1240	76.3827
 2.1230	76.3639
 2.1220	76.3414
 2.1210	76.2983
 2.1200	76.2944
 2.1190	76.2764
 2.1180	76.2598
 2.1170	76.2071
 2.1160	76.1589
 2.1150	76.0939
 2.1140	76.0602
 2.1130	76.0555
 2.1120	76.0024
 2.1110	75.9893
 2.1100	75.9335
 2.1090	75.8907
 2.1080	75.8064
 2.1070	75.7860
 2.1060	75.7783
 2.1050	75.7997
 2.1040	75.7225
 2.1030	75.6897
 2.1020	75.6802
 2.1010	75.6635
 2.1000	75.5680
 2.0990	75.5731
 2.0980	75.6095
 2.0970	75.6676
 2.0960	75.6703
 2.0950	75.6685
 2.0940	75.6671
 2.0930	75.6772
 2.0920	75.6601
 2.0910	75.7155
 2.0900	75.7564
 2.0890	75.7830
 2.0880	75.7716
 2.0870	75.7732
 2.0860	75.8196
 2.0850	75.9012
 2.0840	75.9267
 2.0830	75.8970
 2.0820	75.8792
 2.0810	75.8854
 2.0800	75.8759
 2.0790	75.8875
 2.0780	75.9395
 2.0770	75.8681
 2.0760	75.8605
 2.0750	75.8376
 2.0740	75.8879
 2.0730	75.9484
 2.0720	75.9101
 2.0710	75.8873
 2.0700	75.8879
 2.0690	75.8942
 2.0680	75.9463
 2.0670	76.0082
 2.0660	75.9849
 2.0650	75.9637
 2.0640	75.9859
 2.0630	75.9969
 2.0620	75.9831
 2.0610	75.9799
 2.0600	75.9988
 2.0590	76.0074
 2.0580	75.9682
 2.0570	75.9916
 2.0560	76.0440
 2.0550	75.9877
 2.0540	75.9906
 2.0530	76.0045
 2.0520	75.9436
 2.0510	75.8827
 2.0500	75.8659
 2.0490	75.9378
 2.0480	76.0103
 2.0470	75.9655
 2.0460	75.9015
 2.0450	75.8677
 2.0440	75.8971
 2.0430	75.8893
 2.0420	75.9118
 2.0410	75.8955
 2.0400	75.8200
 2.0390	75.7873
 2.0380	75.7654
 2.0370	75.7289
 2.0360	75.7713
 2.0350	75.7506
 2.0340	75.6990
 2.0330	75.7025
 2.0320	75.6909
 2.0310	75.6232
 2.0300	75.6465
 2.0290	75.5759
 2.0280	75.6077
 2.0270	75.5311
 2.0260	75.5161
 2.0250	75.4538
 2.0240	75.3721
 2.0230	75.3149
 2.0220	75.3504
 2.0210	75.3676
 2.0200	75.2955
 2.0190	75.1529
 2.0180	75.1025
 2.0170	75.0707
 2.0160	75.0230
 2.0150	75.0045
 2.0140	75.0041
 2.0130	74.9425
 2.0120	74.8921
 2.0110	74.8462
 2.0100	74.7526
 2.0090	74.6687
 2.0080	74.7017
 2.0070	74.6659
 2.0060	74.6250
 2.0050	74.4942
 2.0040	74.4781
 2.0030	74.4662
 2.0020	74.4340
 2.0010	74.3105
 2.0000	74.2747
 1.9990	74.2263
 1.9980	74.1726
 1.9970	74.0693
 1.9960	74.0940
 1.9950	73.9895
 1.9940	73.8868
 1.9930	73.8039
 1.9920	73.6981
 1.9910	73.6553
 1.9900	73.5803
 1.9890	73.5388
 1.9880	73.4191
 1.9870	73.2863
 1.9860	73.2386
 1.9850	73.1559
 1.9840	73.1182
 1.9830	73.0200
 1.9820	72.9061
 1.9810	72.9038
 1.9800	72.7526
 1.9790	72.6849
 1.9780	72.6366
 1.9770	72.5466
 1.9760	72.4936
 1.9750	72.4136
 1.9740	72.2121
 1.9730	72.2192
 1.9720	72.2547
 1.9710	72.1061
 1.9700	72.0909
 1.9690	71.9369
 1.9680	71.9088
 1.9670	71.8094
 1.9660	71.6931
 1.9650	71.6295
 1.9640	71.5315
 1.9630	71.5277
 1.9620	71.4058
 1.9610	71.3217
 1.9600	71.3214
 1.9590	71.1286
 1.9580	71.1835
 1.9570	71.0538
 1.9560	70.9902
 1.9550	70.8083
 1.9540	70.8608
 1.9530	70.8014
 1.9520	70.7585
 1.9510	70.6949
 1.9500	70.6119
 1.9490	70.5261
 1.9480	70.4286
 1.9470	70.4886
 1.9460	70.2662
 1.9450	70.2518
 1.9440	70.2991
 1.9430	70.2026
 1.9420	70.0886
 1.9410	70.0688
 1.9400	70.0348
 1.9390	69.9843
 1.9380	69.8601
 1.9370	69.8456
 1.9360	69.8145
 1.9350	69.7248
 1.9340	69.7560
 1.9330	69.6706
 1.9320	69.5020
 1.9310	69.5392
 1.9300	69.5010
 1.9290	69.5134
 1.9280	69.4659
 1.9270	69.3055
 1.9260	69.2260
 1.9250	69.2430
 1.9240	69.1848
 1.9230	69.1969
 1.9220	69.1133
 1.9210	69.1594
 1.9200	69.1018
 1.9190	68.9273
 1.9180	69.0003
 1.9170	68.9271
 1.9160	69.0171
 1.9150	68.8975
 1.9140	68.8039
 1.9130	68.8951
 1.9120	68.8817
 1.9110	68.8913
 1.9100	68.9924
 1.9090	69.1093
 1.9080	69.1454
 1.9070	69.2882
 1.9060	69.3514
 1.9050	69.5032
 1.9040	69.7740
 1.9030	69.9288
 1.9020	70.1848
 1.9010	70.5743
 1.9000	70.8334
 1.8990	71.1795
 1.8980	71.4737
 1.8970	71.8195
 1.8960	72.2764
 1.8950	72.6084
 1.8940	72.9600
 1.8930	73.3827
 1.8920	73.8129
 1.8910	74.1490
 1.8900	74.5575
 1.8890	74.8826
 1.8880	75.1991
 1.8870	75.4892
 1.8860	75.9187
 1.8850	76.0136
 1.8840	76.4234
 1.8830	76.6003
 1.8820	76.8140
 1.8810	76.9464
 1.8800	77.1906
 1.8790	77.2849
 1.8780	77.4769
 1.8770	77.6037
 1.8760	77.7469
 1.8750	77.8616
 1.8740	78.0120
 1.8730	78.1408
 1.8720	78.3540
 1.8710	78.3763
 1.8700	78.5118
 1.8690	78.5105
 1.8680	78.6147
 1.8670	78.6872
 1.8660	78.7729
 1.8650	78.8296
 1.8640	78.9261
 1.8630	79.0141
 1.8620	79.0420
 1.8610	79.0427
 1.8600	79.1257
 1.8590	79.0774
 1.8580	79.1512
 1.8570	79.1455
 1.8560	79.1666
 1.8550	79.2328
 1.8540	79.2954
 1.8530	79.3096
 1.8520	79.3302
 1.8510	79.3370
 1.8500	79.3075
 1.8490	79.3707
 1.8480	79.3331
 1.8470	79.3819
 1.8460	79.3781
 1.8450	79.4365
 1.8440	79.4508
 1.8430	79.4830
 1.8420	79.4314
 1.8410	79.4307
 1.8400	79.5065
 1.8390	79.5116
 1.8380	79.4533
 1.8370	79.4503
 1.8360	79.4199
 1.8350	79.5095
 1.8340	79.5685
 1.8330	79.4922
 1.8320	79.4796
 1.8310	79.4707
 1.8300	79.4766
 1.8290	79.5070
 1.8280	79.6167
 1.8270	79.5698
 1.8260	79.5767
 1.8250	79.5594
 1.8240	79.4940
 1.8230	79.5613
 1.8220	79.5339
 1.8210	79.5610
 1.8200	79.6138
 1.8190	79.5219
 1.8180	79.5339
 1.8170	79.6006
 1.8160	79.5855
 1.8150	79.5342
 1.8140	79.5760
 1.8130	79.6608
 1.8120	79.6041
 1.8110	79.5738
 1.8100	79.6029
 1.8090	79.6432
 1.8080	79.6204
 1.8070	79.5554
 1.8060	79.6443
 1.8050	79.6882
 1.8040	79.7061
 1.8030	79.6836
 1.8020	79.7130
 1.8010	79.6823
 1.8000	79.6350
 1.7990	79.6766
 1.7980	79.6772
 1.7970	79.6561
 1.7960	79.7425
 1.7950	79.7159
 1.7940	79.6618
 1.7930	79.7174
 1.7920	79.6831
 1.7910	79.6415
 1.7900	79.6691
 1.7890	79.6787
 1.7880	79.6277
 1.7870	79.6286
 1.7860	79.6889
 1.7850	79.7241
 1.7840	79.6765
 1.7830	79.6389
 1.7820	79.6340
 1.7810	79.6297
 1.7800	79.6691
 1.7790	79.6790
 1.7780	79.7234
 1.7770	79.6810
 1.7760	79.6638
 1.7750	79.7316
 1.7740	79.7142
 1.7730	79.6699
 1.7720	79.6712
 1.7710	79.6965
 1.7700	79.6791
 1.7690	79.6524
 1.7680	79.7310
 1.7670	79.7356
 1.7660	79.6962
 1.7650	79.7122
 1.7640	79.7248
 1.7630	79.7468
 1.7620	79.7350
 1.7610	79.6973
 1.7600	79.7411
 1.7590	79.7863
 1.7580	79.8312
 1.7570	79.8395
 1.7560	79.8053
 1.7550	79.7762
 1.7540	79.7859
 1.7530	79.8313
 1.7520	79.8775
 1.7510	79.8998
 1.7500	79.8881
 1.7490	79.8915
 1.7480	79.8825
 1.7470	79.8411
 1.7460	79.8269
 1.7450	79.8309
 1.7440	79.8478
 1.7430	79.8752
 1.7420	79.8224
 1.7410	79.9464
 1.7400	79.9866
 1.7390	79.9040
 1.7380	79.9522
 1.7370	79.9410
 1.7360	79.9159
 1.7350	79.9192
 1.7340	79.9738
 1.7330	79.9401
 1.7320	79.9846
 1.7310	79.9786
 1.7300	79.9977
 1.7290	79.9940
 1.7280	79.9978
 1.7270	80.0402
 1.7260	80.0189
 1.7250	80.0436
 1.7240	80.0202
 1.7230	79.9821
 1.7220	79.9884
 1.7210	80.0120
 1.7200	80.0161
 1.7190	79.9844
 1.7180	79.9363
 1.7170	79.9719
 1.7160	79.9788
 1.7150	80.0510
 1.7140	80.0502
 1.7130	80.0513
 1.7120	80.0368
 1.7110	79.9676
 1.7100	80.0201
 1.7090	80.0492
 1.7080	80.0146
 1.7070	80.0515
 1.7060	80.0338
 1.7050	80.0763
 1.7040	80.0289
 1.7030	79.9536
 1.7020	80.0734
 1.7010	80.0446
 1.7000	79.9675
 1.6990	80.0538
 1.6980	80.0208
 1.6970	80.0431
 1.6960	80.0647
 1.6950	80.0149
 1.6940	79.9915
 1.6930	79.9158
 1.6920	80.0349
 1.6910	80.0258
 1.6900	79.9562
 1.6890	79.8940
 1.6880	79.9254
 1.6870	79.9693
 1.6860	79.9147
 1.6850	80.0244
 1.6840	79.9935
 1.6830	80.0368
 1.6820	79.9165
 1.6810	79.9709
 1.6800	80.0301
 1.6790	79.9681
 1.6780	80.0152
 1.6770	79.9899
 1.6760	79.9828
 1.6750	80.0441
 1.6740	79.9907
 1.6730	79.9668
 1.6720	79.9762
 1.6710	79.9625
 1.6700	79.9423
 1.6690	80.0409
 1.6680	80.0548
 1.6670	80.0197
 1.6660	79.9842
 1.6650	80.0300
 1.6640	80.0275
 1.6630	79.9842
 1.6620	80.0698
 1.6610	80.0214
 1.6600	79.9413
 1.6590	79.9766
 1.6580	79.9519
 1.6570	80.0053
 1.6560	79.9451
 1.6550	79.9898
 1.6540	79.9863
 1.6530	79.9602
 1.6520	80.0387
 1.6510	80.0213
 1.6500	79.9662
 1.6490	79.9569
 1.6480	79.9405
 1.6470	79.9818
 1.6460	80.1146
 1.6450	79.9604
 1.6440	79.9760
 1.6430	80.0537
 1.6420	80.0026
 1.6410	80.0959
 1.6400	79.9738
 1.6390	79.9614
 1.6380	79.9095
 1.6370	80.1015
 1.6360	80.0370
 1.6350	80.0452
 1.6340	79.9276
 1.6330	79.9465
 1.6320	79.9339
 1.6310	80.0309
 1.6300	79.9660
 1.6290	79.9323
 1.6280	79.9367
 1.6270	79.8775
 1.6260	79.9071
 1.6250	80.0756
 1.6240	80.0207
 1.6230	80.0133
 1.6220	79.9481
 1.6210	79.9564
 1.6200	79.9396
 1.6190	79.9175
 1.6180	79.9675
 1.6170	79.9991
 1.6160	79.9624
 1.6150	79.9032
 1.6140	79.9130
 1.6130	79.8765
 1.6120	79.9588
 1.6110	79.9562
 1.6100	79.9377
 1.6090	79.9329
 1.6080	79.8915
 1.6070	79.9189
 1.6060	79.9154
 1.6050	79.9344
 1.6040	79.9044
 1.6030	79.9451
 1.6020	79.9315
 1.6010	79.8042
 1.6000	79.8477
 1.5990	79.9395
 1.5980	79.9287
 1.5970	79.9195
 1.5960	79.8273
 1.5950	79.8129
 1.5940	79.8347
 1.5930	79.8872
 1.5920	79.8335
 1.5910	79.8355
 1.5900	79.8269
 1.5890	79.7637
 1.5880	79.7608
 1.5870	79.7601
 1.5860	79.8144
 1.5850	79.8305
 1.5840	79.7176
 1.5830	79.7363
 1.5820	79.7125
 1.5810	79.7867
 1.5800	79.7140
 1.5790	79.7075
 1.5780	79.6820
 1.5770	79.7384
 1.5760	79.6543
 1.5750	79.6305
 1.5740	79.6772
 1.5730	79.7089
 1.5720	79.6062
 1.5710	79.6428
 1.5700	79.6714
 1.5690	79.6429
 1.5680	79.6609
 1.5670	79.6397
 1.5660	79.6108
 1.5650	79.6096
 1.5640	79.5782
 1.5630	79.5418
 1.5620	79.5094
 1.5610	79.5295
 1.5600	79.5624
 1.5590	79.5237
 1.5580	79.4511
 1.5570	79.5122
 1.5560	79.4362
 1.5550	79.3866
 1.5540	79.4497
 1.5530	79.4466
 1.5520	79.4364
 1.5510	79.4070
 1.5500	79.4080
 1.5490	79.4200
 1.5480	79.3623
 1.5470	79.3422
 1.5460	79.3713
 1.5450	79.3296
 1.5440	79.2686
 1.5430	79.3373
 1.5420	79.2369
 1.5410	79.1970
 1.5400	79.2154
 1.5390	79.2470
 1.5380	79.2416
 1.5370	79.2350
 1.5360	79.2216
 1.5350	79.1962
 1.5340	79.1016
 1.5330	79.1317
 1.5320	79.0798
 1.5310	79.0543
 1.5300	79.0977
 1.5290	79.1166
 1.5280	79.0469
 1.5270	78.9775
 1.5260	78.9486
 1.5250	78.9034
 1.5240	78.9016
 1.5230	78.9178
 1.5220	78.8970
 1.5210	78.8918
 1.5200	78.8722
 1.5190	78.8474
 1.5180	78.8393
 1.5170	78.8610
 1.5160	78.7730
 1.5150	78.7158
 1.5140	78.7647
 1.5130	78.7287
 1.5120	78.6861
 1.5110	78.7103
 1.5100	78.6741
 1.5090	78.5976
 1.5080	78.5658
 1.5070	78.5610
 1.5060	78.5518
 1.5050	78.5832
 1.5040	78.5963
 1.5030	78.5167
 1.5020	78.4504
 1.5010	78.4837
 1.5000	78.4352
 1.4990	78.4017
 1.4980	78.4048
 1.4970	78.3529
 1.4960	78.3262
 1.4950	78.3402
 1.4940	78.2797
 1.4930	78.1917
 1.4920	78.1689
 1.4910	78.1508
 1.4900	78.1099
 1.4890	78.1435
 1.4880	78.1431
 1.4870	78.0636
 1.4860	78.0319
 1.4850	77.9924
 1.4840	77.9445
 1.4830	77.9236
 1.4820	77.8839
 1.4810	77.8659
 1.4800	77.7910
 1.4790	77.7921
 1.4780	77.7967
 1.4770	77.7631
 1.4760	77.7765
 1.4750	77.6948
 1.4740	77.7165
 1.4730	77.6831
 1.4720	77.6021
 1.4710	77.4625
 1.4700	77.4832
 1.4690	77.5139
 1.4680	77.4554
 1.4670	77.4385
 1.4660	77.4445
 1.4650	77.4048
 1.4640	77.2808
 1.4630	77.3016
 1.4620	77.3237
 1.4610	77.2797
 1.4600	77.2829
 1.4590	77.2852
 1.4580	77.2990
 1.4570	77.2056
 1.4560	77.1415
 1.4550	77.2127
 1.4540	77.1929
 1.4530	77.1378
 1.4520	77.0627
 1.4510	77.1266
 1.4500	77.0959
 1.4490	77.0294
 1.4480	77.0420
 1.4470	76.9403
 1.4460	76.9327
 1.4450	76.8298
 1.4440	76.8735
 1.4430	76.8666
 1.4420	76.7893
 1.4410	76.6487
 1.4400	76.6809
 1.4390	76.5893
 1.4380	76.5249
 1.4370	76.5213
 1.4360	76.4662
 1.4350	76.4162
 1.4340	76.3276
 1.4330	76.2305
 1.4320	76.1837
 1.4310	76.0966
 1.4300	75.9975
 1.4290	75.9245
 1.4280	75.9143
 1.4270	75.9128
 1.4260	75.8688
 1.4250	75.7888
 1.4240	75.7598
 1.4230	75.7165
 1.4220	75.6243
 1.4210	75.6403
 1.4200	75.6329
 1.4190	75.4903
 1.4180	75.3737
 1.4170	75.0911
 1.4160	74.5677
 1.4150	73.7010
 1.4140	72.8085
 1.4130	72.2339
 1.4120	72.2425
 1.4110	72.7614
 1.4100	73.4725
 1.4090	74.1675
 1.4080	74.7011
 1.4070	74.9636
 1.4060	75.3184
 1.4050	75.6281
 1.4040	75.8837
 1.4030	76.2656
 1.4020	76.6409
 1.4010	76.9953
 1.4000	77.2389
 1.3990	77.3934
 1.3980	77.7566
 1.3970	77.9143
 1.3960	78.1548
 1.3950	78.3283
 1.3940	78.4232
 1.3930	78.4952
 1.3920	78.6523
 1.3910	78.7972
 1.3900	78.9213
 1.3890	78.9265
 1.3880	78.9786
 1.3870	79.1363
 1.3860	79.2237
 1.3850	79.2952
 1.3840	79.3451
 1.3830	79.3780
 1.3820	79.3422
 1.3810	79.4467
 1.3800	79.4572
 1.3790	79.4837
 1.3780	79.5016
 1.3770	79.4969
 1.3760	79.6422
 1.3750	79.6153
 1.3740	79.5949
 1.3730	79.5416
 1.3720	79.5943
 1.3710	79.7019
 1.3700	79.6486
 1.3690	79.5863
 1.3680	79.6308
 1.3670	79.6025
 1.3660	79.5729
 1.3650	79.5198
 1.3640	79.5356
 1.3630	79.5345
 1.3620	79.6413
 1.3610	79.5063
 1.3600	79.5544
 1.3590	79.4789
 1.3580	79.4300
 1.3570	79.5260
 1.3560	79.4671
 1.3550	79.4434
 1.3540	79.5084
 1.3530	79.3652
 1.3520	79.4078
 1.3510	79.3378
 1.3500	79.3094
 1.3490	79.2372
 1.3480	79.3200
 1.3470	79.3506
 1.3460	79.2999
 1.3450	79.1723
 1.3440	79.1949
 1.3430	79.2639
 1.3420	79.1947
 1.3410	79.1597
 1.3400	79.1222
 1.3390	79.0006
 1.3380	79.1409
 1.3370	79.0564
 1.3360	79.1056
 1.3350	79.0637
 1.3340	79.0338
 1.3330	78.9306
 1.3320	78.9494
 1.3310	78.9099
 1.3300	78.9142
 1.3290	78.8739
 1.3280	78.8380
 1.3270	78.8342
 1.3260	78.8228
 1.3250	78.7960
 1.3240	78.8219
 1.3230	78.6599
 1.3220	78.7052
 1.3210	78.6120
 1.3200	78.6141
 1.3190	78.5333
 1.3180	78.5527
 1.3170	78.5649
 1.3160	78.4910
 1.3150	78.4860
 1.3140	78.5481
 1.3130	78.3572
 1.3120	78.3435
 1.3110	78.3179
 1.3100	78.2688
 1.3090	78.1783
 1.3080	78.2225
 1.3070	78.2191
 1.3060	78.1459
 1.3050	78.1916
 1.3040	78.0219
 1.3030	77.9332
 1.3020	77.9182
 1.3010	77.9479
 1.3000	77.8458
 1.2990	77.9305
 1.2980	77.8892
 1.2970	77.7509
 1.2960	77.7041
 1.2950	77.6577
 1.2940	77.5834
 1.2930	77.5840
 1.2920	77.4862
 1.2910	77.5016
 1.2900	77.4143
 1.2890	77.3189
 1.2880	77.2865
 1.2870	77.2035
 1.2860	77.1945
 1.2850	77.2051
 1.2840	77.1933
 1.2830	77.1107
 1.2820	77.0697
 1.2810	77.0086
 1.2800	77.0081
 1.2790	76.9582
 1.2780	76.8675
 1.2770	76.8954
 1.2760	76.8652
 1.2750	76.8519
 1.2740	76.7210
 1.2730	76.7179
 1.2720	76.6915
 1.2710	76.5930
 1.2700	76.6573
 1.2690	76.6156
 1.2680	76.5089
 1.2670	76.4793
 1.2660	76.3938
 1.2650	76.3949
 1.2640	76.3893
 1.2630	76.3158
 1.2620	76.2242
 1.2610	76.1570
 1.2600	76.1609
 1.2590	76.0976
 1.2580	76.0799
 1.2570	76.0542
 1.2560	75.9847
 1.2550	75.9407
 1.2540	75.8690
 1.2530	75.8391
 1.2520	75.8336
 1.2510	75.7721
 1.2500	75.7709
 1.2490	75.7465
 1.2480	75.6810
 1.2470	75.6505
 1.2460	75.6054
 1.2450	75.5614
 1.2440	75.5872
 1.2430	75.6127
 1.2420	75.5144
 1.2410	75.4053
 1.2400	75.3869
 1.2390	75.3536
 1.2380	75.3020
 1.2370	75.2924
 1.2360	75.2899
 1.2350	75.2120
 1.2340	75.2204
 1.2330	75.1787
 1.2320	75.0610
 1.2310	75.0042
 1.2300	74.9715
 1.2290	75.0073
 1.2280	75.0404
 1.2270	74.9742
 1.2260	74.9024
 1.2250	74.8747
 1.2240	74.8275
 1.2230	74.8076
 1.2220	74.7999
 1.2210	74.7261
 1.2200	74.6944
 1.2190	74.7089
 1.2180	74.6539
 1.2170	74.5935
 1.2160	74.5213
 1.2150	74.5113
 1.2140	74.5282
 1.2130	74.4768
 1.2120	74.4197
 1.2110	74.3909
 1.2100	74.3975
 1.2090	74.3488
 1.2080	74.2893
 1.2070	74.2773
 1.2060	74.2702
 1.2050	74.2124
 1.2040	74.1582
 1.2030	74.1607
 1.2020	74.1158
 1.2010	74.1135
 1.2000	74.0457
 1.1990	74.0086
 1.1980	73.9495
 1.1970	73.8761
 1.1960	73.9067
 1.1950	73.9279
 1.1940	73.9433
 1.1930	73.8888
 1.1920	73.8094
 1.1910	73.7443
 1.1900	73.7088
 1.1890	73.7274
 1.1880	73.6968
 1.1870	73.6566
 1.1860	73.6415
 1.1850	73.6528
 1.1840	73.6115
 1.1830	73.5393
 1.1820	73.5297
 1.1810	73.5289
 1.1800	73.4656
 1.1790	73.4490
 1.1780	73.4085
 1.1770	73.3812
 1.1760	73.3722
 1.1750	73.3823
 1.1740	73.3400
 1.1730	73.2770
 1.1720	73.3017
 1.1710	73.3438
 1.1700	73.3130
 1.1690	73.2810
 1.1680	73.2243
 1.1670	73.2180
 1.1660	73.1731
 1.1650	73.1125
 1.1640	73.1202
 1.1630	73.0837
 1.1620	73.0389
 1.1610	73.0790
 1.1600	73.0899
 1.1590	73.0858
 1.1580	73.0326
 1.1570	73.0162
 1.1560	72.9856
 1.1550	72.9690
 1.1540	72.8633
 1.1530	72.9237
 1.1520	72.9743
 1.1510	72.9784
 1.1500	72.8537
 1.1490	72.8510
 1.1480	72.9189
 1.1470	72.8459
 1.1460	72.7722
 1.1450	72.7808
 1.1440	72.8423
 1.1430	72.8077
 1.1420	72.8256
 1.1410	72.8103
 1.1400	72.7776
 1.1390	72.8104
 1.1380	72.7908
 1.1370	72.7486
 1.1360	72.7319
 1.1350	72.8089
 1.1340	72.7368
 1.1330	72.6322
 1.1320	72.6865
 1.1310	72.7291
 1.1300	72.7074
 1.1290	72.6901
 1.1280	72.6738
 1.1270	72.7116
 1.1260	72.6676
 1.1250	72.6320
 1.1240	72.5336
 1.1230	72.6143
 1.1220	72.7138
 1.1210	72.6989
 1.1200	72.6791
 1.1190	72.6528
 1.1180	72.6093
 1.1170	72.6100
 1.1160	72.6565
 1.1150	72.6141
 1.1140	72.6946
 1.1130	72.6705
 1.1120	72.6781
 1.1110	72.6175
 1.1100	72.6116
 1.1090	72.6983
 1.1080	72.5815
 1.1070	72.7097
 1.1060	72.5628
 1.1050	72.5905
 1.1040	72.6636
 1.1030	72.6924
 1.1020	72.6595
 1.1010	72.7468
 1.1000	72.6862
 1.0990	72.6296
 1.0980	72.6762
 1.0970	72.6943
 1.0960	72.7066
 1.0950	72.7765
 1.0940	72.7548
 1.0930	72.6405
 1.0920	72.7038
 1.0910	72.7464
 1.0900	72.7480
 1.0890	72.7277
 1.0880	72.7359
 1.0870	72.7242
 1.0860	72.7753
 1.0850	72.7896
 1.0840	72.7904
 1.0830	72.9188
 1.0820	72.8622
 1.0810	72.9317
 1.0800	72.8405
 1.0790	72.9132
 1.0780	72.9512
 1.0770	73.0450
 1.0760	72.9132
 1.0750	73.0108
 1.0740	73.0090
 1.0730	73.1368
 1.0720	73.0850
 1.0710	73.1063
 1.0700	73.0415
 1.0690	73.1348
 1.0680	73.0886
 1.0670	73.1634
 1.0660	73.1671
 1.0650	73.2359
 1.0640	73.1732
 1.0630	73.3314
 1.0620	73.3052
 1.0610	73.3143
 1.0600	73.3691
 1.0590	73.4132
 1.0580	73.4107
 1.0570	73.4768
 1.0560	73.4126
 1.0550	73.5286
 1.0540	73.5317
 1.0530	73.5711
 1.0520	73.5563
 1.0510	73.6352
 1.0500	73.6293
 1.0490	73.7386
 1.0480	73.7063
 1.0470	73.7449
 1.0460	73.8042
 1.0450	73.7903
 1.0440	73.8149
 1.0430	73.8722
 1.0420	73.9192
 1.0410	73.9939
 1.0400	74.0652
 1.0390	74.0492
 1.0380	74.0326
 1.0370	74.1018
 1.0360	74.1686
 1.0350	74.2059
 1.0340	74.2387
 1.0330	74.2558
 1.0320	74.2805
 1.0310	74.3600
 1.0300	74.4511
 1.0290	74.3869
 1.0280	74.4271
 1.0270	74.5464
 1.0260	74.5604
 1.0250	74.5879
 1.0240	74.6337
 1.0230	74.6817
 1.0220	74.7891
 1.0210	74.7779
 1.0200	74.8177
 1.0190	74.9188
 1.0180	74.9448
 1.0170	75.0085
 1.0160	75.0296
 1.0150	75.0850
 1.0140	75.0900
 1.0130	75.1535
 1.0120	75.2279
 1.0110	75.2959
 1.0100	75.2731
 1.0090	75.3748
 1.0080	75.4937
 1.0070	75.4539
 1.0060	75.5136
 1.0050	75.5193
 1.0040	75.5060
 1.0030	75.6219
 1.0020	75.6936
 1.0010	75.7204
 1.0000	75.7693
 0.9990	75.8207
 0.9980	75.8471
 0.9970	75.9155
 0.9960	75.9980
 0.9950	76.0534
 0.9940	76.1327
 0.9930	76.1155
 0.9920	76.1962
 0.9910	76.2745
 0.9900	76.2979
 0.9890	76.3204
 0.9880	76.3681
 0.9870	76.4420
 0.9860	76.5099
 0.9850	76.4734
 0.9840	76.5449
 0.9830	76.6256
 0.9820	76.6704
 0.9810	76.7144
 0.9800	76.7607
 0.9790	76.8102
 0.9780	76.8484
 0.9770	76.8775
 0.9760	76.9531
 0.9750	77.0635
 0.9740	77.0765
 0.9730	77.1309
 0.9720	77.1610
 0.9710	77.2230
 0.9700	77.2776
 0.9690	77.3680
 0.9680	77.4279
 0.9670	77.3687
 0.9660	77.3195
 0.9650	77.3917
 0.9640	77.4227
 0.9630	77.5135
 0.9620	77.6177
 0.9610	77.6299
 0.9600	77.7007
 0.9590	77.7434
 0.9580	77.8196
 0.9570	77.9194
 0.9560	77.9327
 0.9550	77.9529
 0.9540	77.9954
 0.9530	78.1032
 0.9520	78.1817
 0.9510	78.2073
 0.9500	78.2535
 0.9490	78.2697
 0.9480	78.3124
 0.9470	78.3477
 0.9460	78.4025
 0.9450	78.5288
 0.9440	78.5893
 0.9430	78.5894
 0.9420	78.6157
 0.9410	78.7142
 0.9400	78.7353
 0.9390	78.7294
 0.9380	78.7546
 0.9370	78.7684
 0.9360	78.8235
 0.9350	78.8787
 0.9340	78.9374
 0.9330	78.9786
 0.9320	78.6191
 0.9310	78.6589
 0.9300	79.0356
 0.9290	79.1245
 0.9280	79.1804
 0.9270	79.2058
 0.9260	79.2421
 0.9250	79.2414
 0.9240	79.2763
 0.9230	79.2783
 0.9220	79.3038
 0.9210	79.3365
 0.9200	79.3728
 0.9190	79.3633
 0.9180	79.4263
 0.9170	79.5161
 0.9160	79.5734
 0.9150	79.6131
 0.9140	79.5977
 0.9130	79.5877
 0.9120	79.5995
 0.9110	79.6320
 0.9100	79.6829
 0.9090	79.7139
 0.9080	79.7173
 0.9070	79.7363
 0.9060	79.8149
 0.9050	79.8124
 0.9040	79.7923
 0.9030	79.8710
 0.9020	79.9157
 0.9010	79.9042
 0.9000	79.9177
 0.8990	79.9324
 0.8980	79.9762
 0.8970	79.9899
 0.8960	79.9885
 0.8950	80.0404
 0.8940	79.9988
 0.8930	80.0310
 0.8920	80.0807
 0.8910	80.0741
 0.8900	80.0711
 0.8890	80.0340
 0.8880	80.0807
 0.8870	80.1684
 0.8860	80.1582
 0.8850	80.2117
 0.8840	80.2723
 0.8830	80.2332
 0.8820	80.2298
 0.8810	80.2513
 0.8800	80.2611
 0.8790	80.2304
 0.8780	80.2163
 0.8770	80.3376
 0.8760	80.3317
 0.8750	80.2800
 0.8740	80.3073
 0.8730	80.2765
 0.8720	80.3002
 0.8710	80.2673
 0.8700	80.2949
 0.8690	80.3620
 0.8680	80.3199
 0.8670	80.3225
 0.8660	80.3404
 0.8650	80.3856
 0.8640	80.3026
 0.8630	80.3130
 0.8620	80.3198
 0.8610	80.3198
 0.8600	80.3802
 0.8590	80.4115
 0.8580	80.5292
 0.8570	80.5020
 0.8560	80.4893
 0.8550	80.5648
 0.8540	80.5180
 0.8530	80.4808
 0.8520	80.4751
 0.8510	80.5222
 0.8500	80.4809
 0.8490	80.5671
 0.8480	80.4784
 0.8470	80.4699
 0.8460	80.5045
 0.8450	80.4885
 0.8440	80.4644
 0.8430	80.4782
 0.8420	80.4349
 0.8410	80.3921
 0.8400	80.4453
 0.8390	80.4704
 0.8380	80.3984
 0.8370	80.3897
 0.8360	80.3964
 0.8350	80.4113
 0.8340	80.3634
 0.8330	80.3494
 0.8320	80.3316
 0.8310	80.3321
 0.8300	80.2744
 0.8290	80.2852
 0.8280	80.2592
 0.8270	80.2153
 0.8260	80.2567
 0.8250	80.1791
 0.8240	80.1181
 0.8230	80.1251
 0.8220	80.1330
 0.8210	80.0893
 0.8200	80.1111
 0.8190	79.9960
 0.8180	79.9987
 0.8170	79.9565
 0.8160	79.8818
 0.8150	79.9186
 0.8140	79.8460
 0.8130	79.8572
 0.8120	79.7662
 0.8110	79.7648
 0.8100	79.7260
 0.8090	79.6791
 0.8080	79.5993
 0.8070	79.5648
 0.8060	79.4735
 0.8050	79.4693
 0.8040	79.4054
 0.8030	79.3805
 0.8020	79.3143
 0.8010	79.2786
 0.8000	79.1887
 0.7990	79.1519
 0.7980	79.0397
 0.7970	78.9921
 0.7960	78.9137
 0.7950	78.8463
 0.7940	78.7468
 0.7930	78.7028
 0.7920	78.5921
 0.7910	78.5509
 0.7900	78.4348
 0.7890	78.3777
 0.7880	78.2937
 0.7870	78.2564
 0.7860	78.1183
 0.7850	78.0570
 0.7840	78.0214
 0.7830	77.8879
 0.7820	77.7911
 0.7810	77.7428
 0.7800	77.6163
 0.7790	77.4885
 0.7780	77.3782
 0.7770	77.2891
 0.7760	77.1708
 0.7750	77.0442
 0.7740	76.9584
 0.7730	76.8263
 0.7720	76.7283
 0.7710	76.6677
 0.7700	76.5380
 0.7690	76.4286
 0.7680	76.3436
 0.7670	76.1873
 0.7660	76.0815
 0.7650	75.9640
 0.7640	75.8331
 0.7630	75.7047
 0.7620	75.6139
 0.7610	75.4969
 0.7600	75.3594
 0.7590	75.2299
 0.7580	75.0957
 0.7570	75.0463
 0.7560	74.8929
 0.7550	74.7549
 0.7540	74.6485
 0.7530	74.5333
 0.7520	74.4199
 0.7510	74.3055
 0.7500	74.1940
 0.7490	74.0624
 0.7480	73.9939
 0.7470	73.8677
 0.7460	73.7695
 0.7450	73.6541
 0.7440	73.5783
 0.7430	73.5006
 0.7420	73.4085
 0.7410	73.2994
 0.7400	73.2344
 0.7390	73.1726
 0.7380	73.0943
 0.7370	72.9736
 0.7360	72.9202
 0.7350	72.8777
 0.7340	72.7719
 0.7330	72.7320
 0.7320	72.6997
 0.7310	72.5931
 0.7300	72.5662
 0.7290	72.5028
 0.7280	72.4364
 0.7270	72.4160
 0.7260	72.3678
 0.7250	72.3221
 0.7240	72.3058
 0.7230	72.2488
 0.7220	72.1883
 0.7210	72.1279
 0.7200	72.1080
 0.7190	72.0514
 0.7180	72.0087
 0.7170	71.9862
 0.7160	71.9341
 0.7150	71.8883
 0.7140	71.8319
 0.7130	71.7766
 0.7120	71.7246
 0.7110	71.6678
 0.7100	71.6135
 0.7090	71.5731
 0.7080	71.5094
 0.7070	71.4567
 0.7060	71.4142
 0.7050	71.3347
 0.7040	71.2681
 0.7030	71.2185
 0.7020	71.1688
 0.7010	71.0901
 0.7000	71.0261
 0.6990	70.9561
 0.6980	70.8944
 0.6970	70.8484
 0.6960	70.7896
 0.6950	70.7385
 0.6940	70.6798
 0.6930	70.6352
 0.6920	70.5789
 0.6910	70.5323
 0.6900	70.4852
 0.6890	70.4228
 0.6880	70.3643
 0.6870	70.3053
 0.6860	70.2534
 0.6850	70.1884
 0.6840	70.1261
 0.6830	70.0929
 0.6820	70.0382
 0.6810	69.9727
 0.6800	69.8866
 0.6790	69.8422
 0.6780	69.7836
 0.6770	69.7014
 0.6760	69.6452
 0.6750	69.5942
 0.6740	69.5280
 0.6730	69.4749
 0.6720	69.4164
 0.6710	69.3620
 0.6700	69.3093
 0.6690	69.2621
 0.6680	69.2154
 0.6670	69.1572
 0.6660	69.1240
 0.6650	69.0900
 0.6640	69.0429
 0.6630	69.0166
 0.6620	69.0108
 0.6610	68.9981
 0.6600	68.9702
 0.6590	68.9502
 0.6580	68.9407
 0.6570	68.9282
 0.6560	68.9160
 0.6550	68.9083
 0.6540	68.8963
 0.6530	68.8887
 0.6520	68.8862
 0.6510	68.8868
 0.6500	68.8810
 0.6490	68.8825
 0.6480	68.8806
 0.6470	68.8884
 0.6460	68.9106
 0.6450	68.9325
 0.6440	68.9819
 0.6430	69.0296
 0.6420	69.0662
 0.6410	69.1283
 0.6400	69.2084
 0.6390	69.2920
 0.6380	69.3794
 0.6370	69.4809
 0.6360	69.5772
 0.6350	69.6643
 0.6340	69.7569
 0.6330	69.8693
 0.6320	69.9903
 0.6310	70.0889
 0.6300	70.1814
 0.6290	70.2940
 0.6280	70.4049
 0.6270	70.4987
 0.6260	70.6043
 0.6250	70.7106
 0.6240	70.8185
 0.6230	70.9478
 0.6220	71.0819
 0.6210	71.2089
 0.6200	71.3384
 0.6190	71.4699
 0.6180	71.5989
 0.6170	71.7220
 0.6160	71.8483
 0.6150	71.9859
 0.6140	72.1308
 0.6130	72.2792
 0.6120	72.4082
 0.6110	72.5509
 0.6100	72.6977
 0.6090	72.8257
 0.6080	72.9588
 0.6070	73.0815
 0.6060	73.2097
 0.6050	73.3523
 0.6040	73.4798
 0.6030	73.6021
 0.6020	73.7329
 0.6010	73.8522
 0.6000	73.9628
 0.5990	74.0916
 0.5980	74.2347
 0.5970	74.3720
 0.5960	74.4851
 0.5950	74.6093
 0.5940	74.7208
 0.5930	74.8471
 0.5920	74.9418
 0.5910	75.0472
 0.5900	75.1425
 0.5890	75.2443
 0.5880	75.3288
 0.5870	75.4127
 0.5860	75.4960
 0.5850	75.5708
 0.5840	75.6582
 0.5830	75.7356
 0.5820	75.7979
 0.5810	75.8708
 0.5800	75.9348
 0.5790	75.9949
 0.5780	76.0576
 0.5770	76.1114
 0.5760	76.1711
 0.5750	76.2282
 0.5740	76.2750
 0.5730	76.3138
 0.5720	76.3592
 0.5710	76.3885
 0.5700	76.4206
 0.5690	76.4534
 0.5680	76.4814
 0.5670	76.5125
 0.5660	76.5230
 0.5650	76.5682
 0.5640	76.5818
 0.5630	76.6076
 0.5620	76.6204
 0.5610	76.6302
 0.5600	76.6315
 0.5590	76.6336
 0.5580	76.6518
 0.5570	76.6473
 0.5560	76.6369
 0.5550	76.6435
 0.5540	76.6353
 0.5530	76.6421
 0.5520	76.6198
 0.5510	76.5953
 0.5500	76.5912
 0.5490	76.6039
 0.5480	76.5835
 0.5470	76.5663
 0.5460	76.5394
 0.5450	76.5237
 0.5440	76.5130
 0.5430	76.5107
 0.5420	76.4779
 0.5410	76.4608
 0.5400	76.4278
 0.5390	76.4018
 0.5380	76.3826
 0.5370	76.3611
 0.5360	76.3196
 0.5350	76.2864
 0.5340	76.2653
 0.5330	76.2319
 0.5320	76.1897
 0.5310	76.1693
 0.5300	76.1131
 0.5290	76.0985
 0.5280	76.0603
 0.5270	76.0099
 0.5260	75.9808
 0.5250	75.9520
 0.5240	75.8920
 0.5230	75.8667
 0.5220	75.8012
 0.5210	75.7727
 0.5200	75.7241
 0.5190	75.6753
 0.5180	75.6187
 0.5170	75.5730
 0.5160	75.5196
 0.5150	75.4372
 0.5140	75.4096
 0.5130	75.3646
 0.5120	75.2920
 0.5110	75.2439
 0.5100	75.1755
 0.5090	75.1106
 0.5080	75.0351
 0.5070	74.9692
 0.5060	74.8938
 0.5050	74.8316
 0.5040	74.7766
 0.5030	74.6740
 0.5020	74.6142
 0.5010	74.5423
 0.5000	74.4483
 0.4990	74.3763
 0.4980	74.3228
 0.4970	74.2358
 0.4960	74.1590
 0.4950	74.0856
 0.4940	73.9822
 0.4930	73.9301
 0.4920	73.8454
 0.4910	73.7378
 0.4900	73.6675
 0.4890	73.5735
 0.4880	73.4920
 0.4870	73.3651
 0.4860	73.2871
 0.4850	73.1780
 0.4840	73.0624
 0.4830	72.9970
 0.4820	72.8969
 0.4810	72.7889
 0.4800	72.6948
 0.4790	72.5876
 0.4780	72.5235
 0.4770	72.3955
 0.4760	72.3009
 0.4750	72.1988
 0.4740	72.0619
 0.4730	71.9622
 0.4720	71.8504
 0.4710	71.7406
 0.4700	71.6083
 0.4690	71.4887
 0.4680	71.3814
 0.4670	71.2624
 0.4660	71.1659
 0.4650	71.0231
 0.4640	70.8884
 0.4630	70.7833
 0.4620	70.6517
 0.4610	70.5071
 0.4600	70.3988
 0.4590	70.2750
 0.4580	70.1601
 0.4570	70.0403
 0.4560	69.8882
 0.4550	69.7772
 0.4540	69.6376
 0.4530	69.5257
 0.4520	69.3892
 0.4510	69.2511
 0.4500	69.1423
 0.4490	68.9834
 0.4480	68.8778
 0.4470	68.7457
 0.4460	68.5877
 0.4450	68.4420
 0.4440	68.3339
 0.4430	68.1886
 0.4420	68.0203
 0.4410	67.8853
 0.4400	67.7129
 0.4390	67.5460
 0.4380	67.4011
 0.4370	67.2322
 0.4360	67.0605
 0.4350	66.8535
 0.4340	66.6496
 0.4330	66.4489
 0.4320	66.2020
 0.4310	65.9895
 0.4300	65.7418
 0.4290	65.4857
 0.4280	65.2394
 0.4270	64.9695
 0.4260	64.6820
 0.4250	64.3946
 0.4240	64.1103
 0.4230	63.8122
 0.4220	63.5173
 0.4210	63.2155
 0.4200	62.9402
 0.4190	62.6432
 0.4180	62.3366
 0.4170	62.0410
 0.4160	61.7615
 0.4150	61.4753
 0.4140	61.1926
 0.4130	60.9195
 0.4120	60.6556
 0.4110	60.4181
 0.4100	60.1848
 0.4090	59.9459
 0.4080	59.7178
 0.4070	59.5064
 0.4060	59.2644
 0.4050	59.0294
 0.4040	58.8347
 0.4030	58.6230
 0.4020	58.3957
 0.4010	58.1904
 0.4000	57.9737
