Name: Pyrolusite MnO_2
Type: Mineral
Class: Oxide
Subclass: None
Particle Size: Fine
Sample No.: O-6A
Owner: JPL
Wavelength Range: VSWIR
Origin: Mexico, Chihuahua
Collection Date: N/A
Description: Particle size was 0-45um.Collected by Grieger's Inc. Original ASTER Spectral Library name was jpl.beckman.mineral.oxide.none.fine.o06a.spectrum.txt
Measurement: Hemispherical reflectance
First Column: X
Second Column: Y
X Units: Wavelength (micrometers)
Y Units:Reflectance (percent)
First X Value:  0.4000
Last X Value:  2.5000
Number of X Values: 826
Additional Information: mineral.oxide.none.fine.vswir.o-6a.jpl.beckman.ancillary.txt

 0.4000	 5.7000
 0.4010	 5.6100
 0.4020	 5.7200
 0.4030	 5.6600
 0.4040	 5.6600
 0.4050	 5.7800
 0.4060	 5.6500
 0.4070	 5.7100
 0.4080	 5.6600
 0.4090	 5.7200
 0.4100	 5.7100
 0.4110	 5.6500
 0.4120	 5.7200
 0.4130	 5.7800
 0.4140	 5.6500
 0.4150	 5.7100
 0.4160	 5.6000
 0.4170	 5.6600
 0.4180	 5.6600
 0.4190	 5.7100
 0.4200	 5.6500
 0.4210	 5.6000
 0.4220	 5.6600
 0.4230	 5.7700
 0.4240	 5.7000
 0.4250	 5.6900
 0.4260	 5.6300
 0.4270	 5.7000
 0.4280	 5.7000
 0.4290	 5.6500
 0.4300	 5.6500
 0.4310	 5.5900
 0.4320	 5.6900
 0.4330	 5.7000
 0.4340	 5.6400
 0.4350	 5.6400
 0.4360	 5.5300
 0.4370	 5.6500
 0.4380	 5.5900
 0.4390	 5.6500
 0.4400	 5.5900
 0.4410	 5.5100
 0.4420	 5.6900
 0.4430	 5.5600
 0.4440	 5.6200
 0.4450	 5.6200
 0.4460	 5.6200
 0.4470	 5.6900
 0.4480	 5.5700
 0.4490	 5.6400
 0.4500	 5.5900
 0.4510	 5.6600
 0.4520	 5.7000
 0.4530	 5.5800
 0.4540	 5.6300
 0.4550	 5.6200
 0.4560	 5.5400
 0.4570	 5.5800
 0.4580	 5.4500
 0.4590	 5.6300
 0.4600	 5.6900
 0.4610	 5.6300
 0.4620	 5.5600
 0.4630	 5.5100
 0.4640	 5.5800
 0.4650	 5.5100
 0.4660	 5.5700
 0.4670	 5.5800
 0.4680	 5.5700
 0.4690	 5.5700
 0.4700	 5.4700
 0.4710	 5.5200
 0.4720	 5.4500
 0.4730	 5.5200
 0.4740	 5.5100
 0.4750	 5.5000
 0.4760	 5.5600
 0.4770	 5.5100
 0.4780	 5.4400
 0.4790	 5.4300
 0.4800	 5.5000
 0.4810	 5.6300
 0.4820	 5.5000
 0.4830	 5.5000
 0.4840	 5.5000
 0.4850	 5.4900
 0.4860	 5.6000
 0.4870	 5.4900
 0.4880	 5.4200
 0.4890	 5.4800
 0.4900	 5.4700
 0.4910	 5.5800
 0.4920	 5.4500
 0.4930	 5.4400
 0.4940	 5.4300
 0.4950	 5.4200
 0.4960	 5.4800
 0.4970	 5.4700
 0.4980	 5.4600
 0.4990	 5.4600
 0.5000	 5.4500
 0.5010	 5.5100
 0.5020	 5.3800
 0.5030	 5.3800
 0.5040	 5.3700
 0.5050	 5.3700
 0.5060	 5.4400
 0.5070	 5.4300
 0.5080	 5.4900
 0.5090	 5.4400
 0.5100	 5.4400
 0.5110	 5.3800
 0.5120	 5.3800
 0.5130	 5.4900
 0.5140	 5.3800
 0.5150	 5.3300
 0.5160	 5.3100
 0.5170	 5.3700
 0.5180	 5.4300
 0.5190	 5.3500
 0.5200	 5.3500
 0.5210	 5.3000
 0.5220	 5.3000
 0.5230	 5.3400
 0.5240	 5.3500
 0.5250	 5.3100
 0.5260	 5.3100
 0.5270	 5.3000
 0.5280	 5.3500
 0.5290	 5.2900
 0.5300	 5.2500
 0.5310	 5.2100
 0.5320	 5.2600
 0.5330	 5.2600
 0.5340	 5.1900
 0.5350	 5.2300
 0.5360	 5.1800
 0.5370	 5.2400
 0.5380	 5.3000
 0.5390	 5.2400
 0.5400	 5.2900
 0.5410	 5.2800
 0.5420	 5.1600
 0.5430	 5.2100
 0.5440	 5.2600
 0.5450	 5.2500
 0.5460	 5.2300
 0.5470	 5.2300
 0.5480	 5.2700
 0.5490	 5.2100
 0.5500	 5.3100
 0.5510	 5.1900
 0.5520	 5.1900
 0.5530	 5.1900
 0.5540	 5.1900
 0.5550	 5.2600
 0.5560	 5.1500
 0.5570	 5.1600
 0.5580	 5.1400
 0.5590	 5.1700
 0.5600	 5.1700
 0.5610	 5.2900
 0.5620	 5.2300
 0.5630	 5.2400
 0.5640	 5.2900
 0.5650	 5.1800
 0.5660	 5.2400
 0.5670	 5.2500
 0.5680	 5.1900
 0.5690	 5.1800
 0.5700	 5.1200
 0.5710	 5.1800
 0.5720	 5.1300
 0.5730	 5.1500
 0.5740	 5.2000
 0.5750	 5.0600
 0.5760	 5.0900
 0.5770	 5.1000
 0.5780	 5.1700
 0.5790	 5.1000
 0.5800	 5.0400
 0.5810	 5.1800
 0.5820	 5.1900
 0.5830	 5.1700
 0.5840	 5.1200
 0.5850	 5.0500
 0.5860	 5.1100
 0.5870	 5.0500
 0.5880	 5.1800
 0.5890	 5.1800
 0.5900	 5.1100
 0.5910	 5.1100
 0.5920	 5.1200
 0.5930	 5.1200
 0.5940	 5.1200
 0.5950	 5.1200
 0.5960	 5.1100
 0.5970	 5.0400
 0.5980	 5.0400
 0.5990	 5.0700
 0.6000	 5.0500
 0.6010	 5.0800
 0.6020	 5.0600
 0.6030	 5.0400
 0.6040	 5.0900
 0.6050	 5.1400
 0.6060	 5.0600
 0.6070	 5.0600
 0.6080	 5.1100
 0.6090	 5.1100
 0.6100	 5.1000
 0.6110	 5.0900
 0.6120	 5.0400
 0.6130	 5.0400
 0.6140	 5.0400
 0.6150	 5.0500
 0.6160	 5.1000
 0.6170	 5.0400
 0.6180	 5.0500
 0.6190	 5.0000
 0.6200	 4.9900
 0.6210	 5.0400
 0.6220	 5.0400
 0.6230	 5.0400
 0.6240	 4.9200
 0.6250	 4.9900
 0.6260	 5.0300
 0.6270	 4.9700
 0.6280	 5.0300
 0.6290	 4.9300
 0.6300	 4.9900
 0.6310	 4.9900
 0.6320	 4.9900
 0.6330	 4.9800
 0.6340	 4.9800
 0.6350	 5.0400
 0.6360	 4.9900
 0.6370	 4.9900
 0.6380	 4.9800
 0.6390	 4.9700
 0.6400	 4.9800
 0.6410	 4.9900
 0.6420	 4.9900
 0.6430	 4.9900
 0.6440	 4.9300
 0.6450	 4.9200
 0.6460	 4.9700
 0.6470	 5.0300
 0.6480	 4.9700
 0.6490	 4.9800
 0.6500	 4.9700
 0.6510	 4.9700
 0.6520	 5.0300
 0.6530	 5.0300
 0.6540	 4.9900
 0.6550	 4.9400
 0.6560	 4.9400
 0.6570	 4.9900
 0.6580	 4.9700
 0.6590	 4.9800
 0.6600	 4.9700
 0.6610	 4.8700
 0.6620	 4.9200
 0.6630	 4.9800
 0.6640	 4.9100
 0.6650	 4.9700
 0.6660	 4.8600
 0.6670	 4.9300
 0.6680	 4.9300
 0.6690	 4.9300
 0.6700	 4.9200
 0.6710	 4.8600
 0.6720	 4.9700
 0.6730	 4.9200
 0.6740	 4.8700
 0.6750	 4.9300
 0.6760	 4.8600
 0.6770	 4.9200
 0.6780	 4.9200
 0.6790	 4.9800
 0.6800	 4.9300
 0.6810	 4.8700
 0.6820	 4.9200
 0.6830	 4.9200
 0.6840	 4.9200
 0.6850	 4.9200
 0.6860	 4.9200
 0.6870	 4.9200
 0.6880	 4.9700
 0.6890	 4.9700
 0.6900	 4.9700
 0.6910	 4.9800
 0.6920	 4.8700
 0.6930	 4.9300
 0.6940	 4.9300
 0.6950	 4.9800
 0.6960	 4.9800
 0.6970	 4.9200
 0.6980	 4.9500
 0.6990	 4.9300
 0.7000	 4.9100
 0.7010	 4.8900
 0.7020	 4.9200
 0.7030	 4.9700
 0.7040	 4.9100
 0.7050	 4.8500
 0.7060	 4.9800
 0.7070	 4.9100
 0.7080	 4.9100
 0.7090	 4.8600
 0.7100	 4.8000
 0.7110	 4.8600
 0.7120	 4.9300
 0.7130	 4.9200
 0.7140	 4.9200
 0.7150	 4.8600
 0.7160	 4.9800
 0.7170	 4.9200
 0.7180	 4.9200
 0.7190	 4.9200
 0.7200	 4.8000
 0.7210	 4.9200
 0.7220	 4.9200
 0.7230	 4.9900
 0.7240	 4.9200
 0.7250	 4.9200
 0.7260	 4.9700
 0.7270	 4.9200
 0.7280	 4.8600
 0.7290	 4.9700
 0.7300	 4.9100
 0.7310	 4.9700
 0.7320	 4.8700
 0.7330	 4.8800
 0.7340	 5.0400
 0.7350	 4.9800
 0.7360	 4.9200
 0.7370	 4.8500
 0.7380	 4.8600
 0.7390	 4.9200
 0.7400	 4.9800
 0.7410	 4.9200
 0.7420	 4.8100
 0.7430	 4.8600
 0.7440	 4.9700
 0.7450	 4.9100
 0.7460	 4.9600
 0.7470	 4.8500
 0.7480	 5.0200
 0.7490	 5.0200
 0.7500	 5.0200
 0.7510	 5.0900
 0.7520	 5.0300
 0.7530	 5.1500
 0.7540	 5.2000
 0.7550	 5.2000
 0.7560	 5.1400
 0.7570	 5.0900
 0.7580	 5.1300
 0.7590	 5.1900
 0.7600	 5.1400
 0.7610	 5.0300
 0.7620	 4.9700
 0.7630	 5.0200
 0.7640	 4.9500
 0.7650	 4.9000
 0.7660	 4.9500
 0.7670	 4.8400
 0.7680	 4.9500
 0.7690	 4.9600
 0.7700	 4.9700
 0.7710	 4.9600
 0.7720	 4.8400
 0.7730	 4.8900
 0.7740	 4.8500
 0.7750	 4.7900
 0.7760	 4.9500
 0.7770	 4.9500
 0.7780	 4.9600
 0.7790	 4.9100
 0.7800	 4.8400
 0.7810	 4.9500
 0.7820	 4.8900
 0.7830	 4.9600
 0.7840	 4.8900
 0.7850	 4.8900
 0.7860	 4.9400
 0.7870	 4.9500
 0.7880	 5.0200
 0.7890	 4.9600
 0.7900	 4.8900
 0.7910	 4.9500
 0.7920	 4.9500
 0.7930	 5.0700
 0.7940	 4.9500
 0.7950	 5.0100
 0.7960	 5.0200
 0.7970	 5.0300
 0.7980	 5.0400
 0.7990	 4.9900
 0.8000	 5.3000
 0.8040	 5.2500
 0.8080	 5.2700
 0.8120	 5.2600
 0.8160	 5.3500
 0.8200	 5.2900
 0.8240	 5.2800
 0.8280	 5.2600
 0.8320	 5.2100
 0.8360	 5.2200
 0.8400	 5.2700
 0.8440	 5.2100
 0.8480	 5.2200
 0.8520	 5.2200
 0.8560	 5.2200
 0.8600	 5.2300
 0.8640	 5.1700
 0.8680	 5.1700
 0.8720	 5.1800
 0.8760	 5.3000
 0.8800	 5.3000
 0.8840	 5.3600
 0.8880	 5.3000
 0.8920	 5.3000
 0.8960	 5.3500
 0.9000	 5.3600
 0.9040	 5.3000
 0.9080	 5.2900
 0.9120	 5.3600
 0.9160	 5.3000
 0.9200	 5.3000
 0.9240	 5.2900
 0.9280	 5.2300
 0.9320	 5.1900
 0.9360	 5.3000
 0.9400	 5.3100
 0.9440	 5.3000
 0.9480	 5.3100
 0.9520	 5.3200
 0.9560	 5.3100
 0.9600	 5.3100
 0.9640	 5.3100
 0.9680	 5.4100
 0.9720	 5.3700
 0.9760	 5.4300
 0.9800	 5.4200
 0.9840	 5.4800
 0.9880	 5.4800
 0.9920	 5.4800
 0.9960	 5.5000
 1.0000	 5.4300
 1.0040	 5.4700
 1.0080	 5.4700
 1.0120	 5.5300
 1.0160	 5.4800
 1.0200	 5.5600
 1.0240	 5.5600
 1.0280	 5.5500
 1.0320	 5.6100
 1.0360	 5.6000
 1.0400	 5.6100
 1.0440	 5.6600
 1.0480	 5.5500
 1.0520	 5.6000
 1.0560	 5.6500
 1.0600	 5.6300
 1.0640	 5.6300
 1.0680	 5.6500
 1.0720	 5.6800
 1.0760	 5.7300
 1.0800	 5.7700
 1.0840	 5.7500
 1.0880	 5.7900
 1.0920	 5.8800
 1.0960	 5.8800
 1.1000	 5.9300
 1.1040	 5.9000
 1.1080	 5.9000
 1.1120	 6.0100
 1.1160	 6.0400
 1.1200	 6.0900
 1.1240	 6.0800
 1.1280	 6.1400
 1.1320	 6.1800
 1.1360	 6.2100
 1.1400	 6.2500
 1.1440	 6.2400
 1.1480	 6.3000
 1.1520	 6.3400
 1.1560	 6.3900
 1.1600	 6.3800
 1.1640	 6.4900
 1.1680	 6.4900
 1.1720	 6.5100
 1.1760	 6.5600
 1.1800	 6.5800
 1.1840	 6.6400
 1.1880	 6.6400
 1.1920	 6.6900
 1.1960	 6.7000
 1.2000	 6.7500
 1.2040	 6.8700
 1.2080	 6.8700
 1.2120	 6.9500
 1.2160	 7.0000
 1.2200	 7.0200
 1.2240	 7.0900
 1.2280	 7.1300
 1.2320	 7.2200
 1.2360	 7.3100
 1.2400	 7.3400
 1.2440	 7.4500
 1.2480	 7.4300
 1.2520	 7.5300
 1.2560	 7.5900
 1.2600	 7.7000
 1.2640	 7.7700
 1.2680	 7.8400
 1.2720	 7.8900
 1.2760	 7.9700
 1.2800	 7.9900
 1.2840	 8.0500
 1.2880	 8.1700
 1.2920	 8.2200
 1.2960	 8.3000
 1.3000	 8.3700
 1.3040	 8.4600
 1.3080	 8.5100
 1.3120	 8.5700
 1.3160	 8.6900
 1.3200	 8.7000
 1.3240	 8.7600
 1.3280	 8.8200
 1.3320	 8.9400
 1.3360	 9.0200
 1.3400	 9.1400
 1.3440	 9.2300
 1.3480	 9.1900
 1.3520	 9.3000
 1.3560	 9.3600
 1.3600	 9.3700
 1.3640	 9.5000
 1.3680	 9.4700
 1.3720	 9.6000
 1.3760	 9.5800
 1.3800	 9.6500
 1.3840	 9.7100
 1.3880	 9.7700
 1.3920	 9.7800
 1.3960	 9.8800
 1.4000	 9.9200
 1.4040	 9.9900
 1.4080	 9.9300
 1.4120	10.0000
 1.4160	10.0700
 1.4200	10.0800
 1.4240	10.1100
 1.4280	10.1700
 1.4320	10.1900
 1.4360	10.1900
 1.4400	10.2600
 1.4440	10.3100
 1.4480	10.2900
 1.4520	10.2800
 1.4560	10.3000
 1.4600	10.3000
 1.4640	10.3500
 1.4680	10.4400
 1.4720	10.4400
 1.4760	10.4400
 1.4800	10.4200
 1.4840	10.4800
 1.4880	10.5300
 1.4920	10.5800
 1.4960	10.5400
 1.5000	10.5300
 1.5040	10.6000
 1.5080	10.6700
 1.5120	10.6000
 1.5160	10.6600
 1.5200	10.6300
 1.5240	10.6700
 1.5280	10.7000
 1.5320	10.7100
 1.5360	10.7000
 1.5400	10.7200
 1.5440	10.7500
 1.5480	10.7800
 1.5520	10.8100
 1.5560	10.8000
 1.5600	10.8500
 1.5640	10.8400
 1.5680	10.9100
 1.5720	10.9400
 1.5760	10.8900
 1.5800	10.8900
 1.5840	10.9800
 1.5880	10.9000
 1.5920	10.9700
 1.5960	11.0100
 1.6000	11.0400
 1.6040	10.9900
 1.6080	11.0800
 1.6120	11.1000
 1.6160	11.1100
 1.6200	11.1100
 1.6240	11.1800
 1.6280	11.1100
 1.6320	11.1900
 1.6360	11.2100
 1.6400	11.2700
 1.6440	11.2500
 1.6480	11.2300
 1.6520	11.3100
 1.6560	11.3600
 1.6600	11.3700
 1.6640	11.3900
 1.6680	11.3400
 1.6720	11.3900
 1.6760	11.3700
 1.6800	11.4200
 1.6840	11.5000
 1.6880	11.4800
 1.6920	11.5200
 1.6960	11.5000
 1.7000	11.4900
 1.7040	11.5400
 1.7080	11.5900
 1.7120	11.6000
 1.7160	11.6300
 1.7200	11.5700
 1.7240	11.6000
 1.7280	11.6600
 1.7320	11.7500
 1.7360	11.7000
 1.7400	11.6400
 1.7440	11.7100
 1.7480	11.7000
 1.7520	11.7600
 1.7560	11.7400
 1.7600	11.8000
 1.7640	11.7400
 1.7680	11.7600
 1.7720	11.8200
 1.7760	11.8400
 1.7800	11.8900
 1.7840	11.9500
 1.7880	11.8800
 1.7920	11.8600
 1.7960	11.9400
 1.8000	11.9500
 1.8040	11.9900
 1.8080	12.0100
 1.8120	12.0500
 1.8160	12.0600
 1.8200	12.0300
 1.8240	12.1100
 1.8280	12.1400
 1.8320	12.1200
 1.8360	12.1400
 1.8400	12.1100
 1.8440	12.1800
 1.8480	12.1900
 1.8520	12.2000
 1.8560	12.2300
 1.8600	12.2400
 1.8640	12.2100
 1.8680	12.2100
 1.8720	12.3000
 1.8760	12.2800
 1.8800	12.2900
 1.8840	12.3100
 1.8880	12.3100
 1.8920	12.3500
 1.8960	12.3300
 1.9000	12.2500
 1.9040	12.3000
 1.9080	12.3500
 1.9120	12.3400
 1.9160	12.3900
 1.9200	12.4100
 1.9240	12.3800
 1.9280	12.4200
 1.9320	12.3700
 1.9360	12.4400
 1.9400	12.5200
 1.9440	12.4800
 1.9480	12.5700
 1.9520	12.5300
 1.9560	12.5600
 1.9600	12.5300
 1.9640	12.5800
 1.9680	12.6500
 1.9720	12.6700
 1.9760	12.7000
 1.9800	12.7300
 1.9840	12.7700
 1.9880	12.7600
 1.9920	12.8800
 1.9960	12.8200
 2.0000	12.8800
 2.0040	12.9200
 2.0080	12.8700
 2.0120	12.9500
 2.0160	13.0000
 2.0200	13.0100
 2.0240	13.0400
 2.0280	13.0300
 2.0320	13.0300
 2.0360	13.0400
 2.0400	13.0100
 2.0440	13.0700
 2.0480	13.0200
 2.0520	13.0500
 2.0560	13.1000
 2.0600	13.0100
 2.0640	13.0900
 2.0680	13.1400
 2.0720	13.1700
 2.0760	13.2600
 2.0800	13.1900
 2.0840	13.2300
 2.0880	13.2400
 2.0920	13.2800
 2.0960	13.3300
 2.1000	13.3400
 2.1040	13.3500
 2.1080	13.3900
 2.1120	13.4000
 2.1160	13.3400
 2.1200	13.3900
 2.1240	13.4900
 2.1280	13.4100
 2.1320	13.3900
 2.1360	13.4500
 2.1400	13.4000
 2.1440	13.4500
 2.1480	13.4000
 2.1520	13.4900
 2.1560	13.4800
 2.1600	13.4600
 2.1640	13.5300
 2.1680	13.4800
 2.1720	13.5200
 2.1760	13.6100
 2.1800	13.6000
 2.1840	13.5700
 2.1880	13.6200
 2.1920	13.6600
 2.1960	13.7300
 2.2000	13.7200
 2.2040	13.6600
 2.2080	13.7000
 2.2120	13.6700
 2.2160	13.6800
 2.2200	13.7400
 2.2240	13.7500
 2.2280	13.7400
 2.2320	13.7800
 2.2360	13.8400
 2.2400	13.8000
 2.2440	13.8000
 2.2480	13.8000
 2.2520	13.7700
 2.2560	13.8600
 2.2600	13.8400
 2.2640	13.8500
 2.2680	13.8500
 2.2720	13.8700
 2.2760	13.8400
 2.2800	13.8900
 2.2840	13.9200
 2.2880	13.8800
 2.2920	13.8900
 2.2960	13.9700
 2.3000	13.9300
 2.3040	14.0600
 2.3080	14.0300
 2.3120	14.0800
 2.3160	14.0900
 2.3200	14.1000
 2.3240	14.1500
 2.3280	14.2000
 2.3320	14.2200
 2.3360	14.2600
 2.3400	14.2900
 2.3440	14.2700
 2.3480	14.3100
 2.3520	14.3100
 2.3560	14.2700
 2.3600	14.3200
 2.3640	14.3000
 2.3680	14.3500
 2.3720	14.3200
 2.3760	14.3400
 2.3800	14.3500
 2.3840	14.4500
 2.3880	14.4200
 2.3920	14.4500
 2.3960	14.3800
 2.4000	14.5000
 2.4040	14.4000
 2.4080	14.4200
 2.4120	14.4700
 2.4160	14.4400
 2.4200	14.5000
 2.4240	14.5000
 2.4280	14.4900
 2.4320	14.4600
 2.4360	14.4900
 2.4400	14.4500
 2.4440	14.4100
 2.4480	14.4900
 2.4520	14.4200
 2.4560	14.4300
 2.4600	14.4700
 2.4640	14.5100
 2.4680	14.4800
 2.4720	14.5000
 2.4760	14.5100
 2.4800	14.5900
 2.4840	14.5700
 2.4880	14.5900
 2.4920	14.6400
 2.4960	14.7200
 2.5000	14.7500
