Name: Witherite BaCO_3
Type: Mineral
Class: Carbonate
Subclass: None
Particle Size: Fine
Sample No.: C-2A
Owner: JPL
Wavelength Range: VSWIR
Origin: United Kingdom, England
Collection Date: N/A
Description: Particle size was 0-45um.Collected by Grieger's Inc. Original ASTER Spectral Library name was jpl.beckman.mineral.carbonate.none.fine.c02a.spectrum.txt
Measurement: Hemispherical reflectance
First Column: X
Second Column: Y
X Units: Wavelength (micrometers)
Y Units:Reflectance (percent)
First X Value:  0.4000
Last X Value:  2.5000
Number of X Values: 826
Additional Information: mineral.carbonate.none.fine.vswir.c-2a.jpl.beckman.ancillary.txt

 0.4000	72.7600
 0.4010	72.6400
 0.4020	72.9900
 0.4030	73.1500
 0.4040	73.0900
 0.4050	72.9900
 0.4060	72.9900
 0.4070	73.3200
 0.4080	73.5000
 0.4090	73.5500
 0.4100	73.3200
 0.4110	73.2700
 0.4120	73.5000
 0.4130	73.6700
 0.4140	73.7300
 0.4150	73.6100
 0.4160	73.4400
 0.4170	73.6100
 0.4180	73.7800
 0.4190	73.9600
 0.4200	73.7300
 0.4210	73.6700
 0.4220	73.8400
 0.4230	74.0700
 0.4240	74.0100
 0.4250	73.9600
 0.4260	73.9000
 0.4270	73.9000
 0.4280	74.0700
 0.4290	74.1900
 0.4300	74.1900
 0.4310	74.0700
 0.4320	74.0100
 0.4330	74.2400
 0.4340	74.3000
 0.4350	74.3600
 0.4360	74.2400
 0.4370	74.0700
 0.4380	74.2400
 0.4390	74.3600
 0.4400	74.4700
 0.4410	74.3000
 0.4420	74.1900
 0.4430	74.3600
 0.4440	74.5200
 0.4450	74.5800
 0.4460	74.4200
 0.4470	74.3600
 0.4480	74.3600
 0.4490	74.5800
 0.4500	74.6400
 0.4510	74.5800
 0.4520	74.5200
 0.4530	74.4200
 0.4540	74.6500
 0.4550	74.8200
 0.4560	74.8800
 0.4570	74.7600
 0.4580	74.7200
 0.4590	74.8300
 0.4600	74.8300
 0.4610	75.0600
 0.4620	75.0600
 0.4630	75.0000
 0.4640	74.8900
 0.4650	74.8400
 0.4660	75.0600
 0.4670	75.1800
 0.4680	75.2400
 0.4690	75.1900
 0.4700	74.9600
 0.4710	75.0100
 0.4720	75.1900
 0.4730	75.1400
 0.4740	75.0200
 0.4750	74.9100
 0.4760	75.0200
 0.4770	75.2000
 0.4780	75.3100
 0.4790	75.3100
 0.4800	75.1500
 0.4810	75.1500
 0.4820	75.1500
 0.4830	75.4400
 0.4840	75.4900
 0.4850	75.2600
 0.4860	75.1500
 0.4870	75.2600
 0.4880	75.4500
 0.4890	75.5600
 0.4900	75.4500
 0.4910	75.2700
 0.4920	75.3900
 0.4930	75.5100
 0.4940	75.5100
 0.4950	75.5100
 0.4960	75.4600
 0.4970	75.3400
 0.4980	75.5100
 0.4990	75.6900
 0.5000	75.6300
 0.5010	75.5100
 0.5020	75.4600
 0.5030	75.5100
 0.5040	75.6900
 0.5050	75.8600
 0.5060	75.6900
 0.5070	75.5100
 0.5080	75.4600
 0.5090	75.6900
 0.5100	75.9200
 0.5110	75.9200
 0.5120	75.8000
 0.5130	75.8000
 0.5140	75.9200
 0.5150	76.0900
 0.5160	76.0900
 0.5170	75.9800
 0.5180	75.9200
 0.5190	75.9800
 0.5200	76.0900
 0.5210	76.1500
 0.5220	75.9800
 0.5230	75.8600
 0.5240	75.9200
 0.5250	76.0900
 0.5260	76.1500
 0.5270	76.0300
 0.5280	75.8600
 0.5290	75.9800
 0.5300	76.0300
 0.5310	76.1500
 0.5320	76.0900
 0.5330	75.9200
 0.5340	75.7400
 0.5350	75.8000
 0.5360	75.9800
 0.5370	75.9200
 0.5380	75.9200
 0.5390	75.8600
 0.5400	75.9800
 0.5410	76.0300
 0.5420	76.0900
 0.5430	75.9800
 0.5440	75.8000
 0.5450	75.9200
 0.5460	76.0900
 0.5470	76.2100
 0.5480	76.1500
 0.5490	75.9200
 0.5500	76.0300
 0.5510	76.2100
 0.5520	76.3800
 0.5530	76.2100
 0.5540	76.0900
 0.5550	76.1500
 0.5560	76.2100
 0.5570	76.4900
 0.5580	76.3800
 0.5590	76.1500
 0.5600	76.3200
 0.5610	76.2100
 0.5620	76.3800
 0.5630	76.4900
 0.5640	76.4400
 0.5650	76.3200
 0.5660	76.0900
 0.5670	76.2100
 0.5680	76.3800
 0.5690	76.3800
 0.5700	76.1500
 0.5710	76.0300
 0.5720	76.0900
 0.5730	76.2100
 0.5740	76.1500
 0.5750	76.0900
 0.5760	75.9800
 0.5770	75.9200
 0.5780	76.2100
 0.5790	76.2100
 0.5800	76.0900
 0.5810	76.0300
 0.5820	75.8600
 0.5830	76.0900
 0.5840	76.1500
 0.5850	76.0900
 0.5860	76.0300
 0.5870	75.9800
 0.5880	76.1500
 0.5890	76.1500
 0.5900	76.2100
 0.5910	76.0900
 0.5920	76.0300
 0.5930	76.0900
 0.5940	76.2600
 0.5950	76.3800
 0.5960	76.1500
 0.5970	76.0300
 0.5980	75.9800
 0.5990	76.1500
 0.6000	76.4400
 0.6010	76.3800
 0.6020	76.2100
 0.6030	76.1500
 0.6040	76.2600
 0.6050	76.5500
 0.6060	76.3800
 0.6070	76.2100
 0.6080	76.2100
 0.6090	76.2100
 0.6100	76.3800
 0.6110	76.2600
 0.6120	76.2600
 0.6130	76.2100
 0.6140	76.2100
 0.6150	76.4400
 0.6160	76.3200
 0.6170	76.2600
 0.6180	76.1500
 0.6190	76.0300
 0.6200	76.2100
 0.6210	76.2100
 0.6220	76.3200
 0.6230	76.2100
 0.6240	76.1500
 0.6250	76.2600
 0.6260	76.3800
 0.6270	76.3800
 0.6280	76.2100
 0.6290	76.0300
 0.6300	76.2600
 0.6310	76.3800
 0.6320	76.3800
 0.6330	76.1500
 0.6340	76.0900
 0.6350	76.1500
 0.6360	76.1500
 0.6370	76.3200
 0.6380	76.2600
 0.6390	76.1500
 0.6400	76.1500
 0.6410	76.2100
 0.6420	76.5500
 0.6430	76.3800
 0.6440	76.2100
 0.6450	76.2100
 0.6460	76.2600
 0.6470	76.4900
 0.6480	76.3800
 0.6490	76.2100
 0.6500	76.3200
 0.6510	76.3800
 0.6520	76.6100
 0.6530	76.4900
 0.6540	76.3200
 0.6550	76.3200
 0.6560	76.3800
 0.6570	76.5500
 0.6580	76.4400
 0.6590	76.3800
 0.6600	76.2100
 0.6610	76.2600
 0.6620	76.5500
 0.6630	76.5500
 0.6640	76.4400
 0.6650	76.4400
 0.6660	76.2600
 0.6670	76.5500
 0.6680	76.6100
 0.6690	76.6100
 0.6700	76.4900
 0.6710	76.3800
 0.6720	76.6100
 0.6730	76.6700
 0.6740	76.6100
 0.6750	76.6100
 0.6760	76.3800
 0.6770	76.4900
 0.6780	76.6700
 0.6790	76.6100
 0.6800	76.6100
 0.6810	76.3200
 0.6820	76.4900
 0.6830	76.6100
 0.6840	76.7200
 0.6850	76.6700
 0.6860	76.6100
 0.6870	76.5500
 0.6880	76.7200
 0.6890	76.9000
 0.6900	76.7200
 0.6910	76.6100
 0.6920	76.6100
 0.6930	76.6100
 0.6940	76.9000
 0.6950	76.7200
 0.6960	76.5500
 0.6970	76.5500
 0.6980	76.6700
 0.6990	76.6700
 0.7000	76.3800
 0.7010	76.4400
 0.7020	76.6100
 0.7030	76.7200
 0.7040	76.7200
 0.7050	76.4400
 0.7060	76.3800
 0.7070	76.6700
 0.7080	76.8400
 0.7090	76.9000
 0.7100	76.7800
 0.7110	76.6700
 0.7120	76.7800
 0.7130	76.9000
 0.7140	77.0100
 0.7150	76.8400
 0.7160	76.7800
 0.7170	76.8400
 0.7180	77.0100
 0.7190	77.1200
 0.7200	77.0600
 0.7210	76.9500
 0.7220	76.9000
 0.7230	76.9500
 0.7240	77.0600
 0.7250	77.0600
 0.7260	77.0600
 0.7270	76.8400
 0.7280	76.9000
 0.7290	77.0600
 0.7300	77.1200
 0.7310	77.0100
 0.7320	76.9500
 0.7330	76.9500
 0.7340	77.0100
 0.7350	77.1200
 0.7360	77.0100
 0.7370	76.9500
 0.7380	77.0100
 0.7390	77.0600
 0.7400	77.1700
 0.7410	77.0600
 0.7420	77.0600
 0.7430	76.8400
 0.7440	77.0100
 0.7450	77.1700
 0.7460	77.1700
 0.7470	76.9500
 0.7480	76.9500
 0.7490	76.9500
 0.7500	77.0600
 0.7510	77.1700
 0.7520	77.1200
 0.7530	77.1200
 0.7540	76.9500
 0.7550	77.0100
 0.7560	77.2900
 0.7570	77.2300
 0.7580	77.1700
 0.7590	77.0100
 0.7600	77.0100
 0.7610	77.1700
 0.7620	77.1700
 0.7630	77.0600
 0.7640	76.9500
 0.7650	77.1200
 0.7660	77.2300
 0.7670	77.3500
 0.7680	77.2300
 0.7690	77.0600
 0.7700	77.0100
 0.7710	77.1200
 0.7720	77.2300
 0.7730	77.2300
 0.7740	77.0600
 0.7750	77.0100
 0.7760	77.0100
 0.7770	77.2300
 0.7780	77.2300
 0.7790	77.1200
 0.7800	77.0100
 0.7810	77.0600
 0.7820	77.2300
 0.7830	77.3500
 0.7840	77.2900
 0.7850	77.1700
 0.7860	77.1200
 0.7870	77.2300
 0.7880	77.4100
 0.7890	77.2900
 0.7900	77.1700
 0.7910	77.1200
 0.7920	77.2900
 0.7930	77.4100
 0.7940	77.2300
 0.7950	77.2900
 0.7960	77.1200
 0.7970	77.2900
 0.7980	77.4600
 0.7990	77.3500
 0.8000	77.3700
 0.8040	77.4600
 0.8080	77.6400
 0.8120	77.7500
 0.8160	77.4100
 0.8200	77.4100
 0.8240	77.5800
 0.8280	77.5800
 0.8320	77.4600
 0.8360	77.6400
 0.8400	77.7500
 0.8440	77.6400
 0.8480	77.6900
 0.8520	77.6900
 0.8560	77.7500
 0.8600	77.6400
 0.8640	77.9200
 0.8680	77.7500
 0.8720	77.6900
 0.8760	77.6400
 0.8800	77.6900
 0.8840	77.7500
 0.8880	77.6900
 0.8920	77.8100
 0.8960	77.6900
 0.9000	77.6900
 0.9040	77.6900
 0.9080	77.6900
 0.9120	77.6900
 0.9160	77.5200
 0.9200	77.6900
 0.9240	77.7500
 0.9280	77.6900
 0.9320	77.6400
 0.9360	77.6900
 0.9400	77.7500
 0.9440	77.8100
 0.9480	77.8100
 0.9520	77.8100
 0.9560	77.8100
 0.9600	77.6900
 0.9640	77.9200
 0.9680	77.8700
 0.9720	77.7500
 0.9760	77.7500
 0.9800	77.6400
 0.9840	77.6900
 0.9880	77.5800
 0.9920	77.7500
 0.9960	77.8700
 1.0000	77.6900
 1.0040	77.7500
 1.0080	77.8100
 1.0120	77.7500
 1.0160	77.7500
 1.0200	77.8700
 1.0240	77.8100
 1.0280	77.7500
 1.0320	77.8700
 1.0360	77.8100
 1.0400	77.8100
 1.0440	77.8700
 1.0480	77.8100
 1.0520	77.8700
 1.0560	77.7500
 1.0600	77.8700
 1.0640	77.6900
 1.0680	77.7500
 1.0720	77.7500
 1.0760	77.8100
 1.0800	77.8100
 1.0840	77.8100
 1.0880	77.8100
 1.0920	77.8100
 1.0960	77.8100
 1.1000	77.8100
 1.1040	77.9200
 1.1080	77.7500
 1.1120	77.9200
 1.1160	77.8700
 1.1200	77.7500
 1.1240	77.7500
 1.1280	77.7500
 1.1320	77.8700
 1.1360	77.8100
 1.1400	77.8100
 1.1440	77.8700
 1.1480	77.7500
 1.1520	77.6900
 1.1560	77.6800
 1.1600	77.8500
 1.1640	77.6700
 1.1680	77.8400
 1.1720	77.7200
 1.1760	77.8300
 1.1800	77.7000
 1.1840	77.8200
 1.1880	77.6900
 1.1920	77.8600
 1.1960	77.7400
 1.2000	77.6700
 1.2040	77.7900
 1.2080	77.7300
 1.2120	77.7300
 1.2160	77.6100
 1.2200	77.7900
 1.2240	77.7900
 1.2280	77.7300
 1.2320	77.7300
 1.2360	77.8400
 1.2400	77.7900
 1.2440	77.6100
 1.2480	77.7300
 1.2520	77.7300
 1.2560	77.6600
 1.2600	77.7800
 1.2640	77.8200
 1.2680	77.6400
 1.2720	77.6400
 1.2760	77.6900
 1.2800	77.7900
 1.2840	77.7900
 1.2880	77.7300
 1.2920	77.6700
 1.2960	77.7700
 1.3000	77.7100
 1.3040	77.5300
 1.3080	77.8100
 1.3120	77.6400
 1.3160	77.6300
 1.3200	77.6800
 1.3240	77.7200
 1.3280	77.6700
 1.3320	77.7200
 1.3360	77.6600
 1.3400	77.7000
 1.3440	77.6400
 1.3480	77.5800
 1.3520	77.6300
 1.3560	77.6300
 1.3600	77.8000
 1.3640	77.6300
 1.3680	77.8000
 1.3720	77.6300
 1.3760	77.5800
 1.3800	77.5800
 1.3840	77.5800
 1.3880	77.7400
 1.3920	77.6300
 1.3960	77.8000
 1.4000	77.6300
 1.4040	77.5800
 1.4080	77.6500
 1.4120	77.7000
 1.4160	77.6600
 1.4200	77.6700
 1.4240	77.7800
 1.4280	77.7900
 1.4320	77.7300
 1.4360	77.7400
 1.4400	77.7500
 1.4440	77.7600
 1.4480	77.8200
 1.4520	77.7100
 1.4560	77.7600
 1.4600	77.8200
 1.4640	77.8800
 1.4680	77.7100
 1.4720	77.9400
 1.4760	77.7600
 1.4800	77.7600
 1.4840	77.8800
 1.4880	78.0500
 1.4920	78.0500
 1.4960	77.9400
 1.5000	77.8800
 1.5040	78.0500
 1.5080	77.8800
 1.5120	77.9400
 1.5160	77.9900
 1.5200	77.9900
 1.5240	78.0500
 1.5280	77.9400
 1.5320	77.9900
 1.5360	77.9400
 1.5400	77.9900
 1.5440	77.9400
 1.5480	78.0500
 1.5520	77.9400
 1.5560	78.1100
 1.5600	77.8800
 1.5640	77.9900
 1.5680	77.9400
 1.5720	77.8800
 1.5760	77.9900
 1.5800	77.9400
 1.5840	77.9400
 1.5880	77.8800
 1.5920	78.0500
 1.5960	77.9400
 1.6000	77.9400
 1.6040	77.8700
 1.6080	78.0300
 1.6120	77.8700
 1.6160	77.9700
 1.6200	77.9600
 1.6240	77.9500
 1.6280	77.8900
 1.6320	77.7800
 1.6360	77.9400
 1.6400	77.8800
 1.6440	77.8700
 1.6480	77.8600
 1.6520	77.9100
 1.6560	77.7400
 1.6600	77.7900
 1.6640	77.8400
 1.6680	77.8800
 1.6720	77.8800
 1.6760	77.8200
 1.6800	77.9200
 1.6840	77.8600
 1.6880	77.8000
 1.6920	77.8500
 1.6960	77.9600
 1.7000	77.7800
 1.7040	77.7200
 1.7080	77.8900
 1.7120	77.9500
 1.7160	77.9500
 1.7200	77.8300
 1.7240	77.9500
 1.7280	77.8900
 1.7320	77.8900
 1.7360	77.8300
 1.7400	77.8900
 1.7440	77.7800
 1.7480	77.7800
 1.7520	77.8300
 1.7560	77.8300
 1.7600	77.7200
 1.7640	77.6700
 1.7680	77.8300
 1.7720	77.7200
 1.7760	77.7200
 1.7800	77.8900
 1.7840	77.7200
 1.7880	77.7800
 1.7920	77.7200
 1.7960	77.8300
 1.8000	77.7800
 1.8040	77.7600
 1.8080	77.6200
 1.8120	77.8700
 1.8160	77.7900
 1.8200	77.7700
 1.8240	77.8000
 1.8280	77.7200
 1.8320	77.6300
 1.8360	77.7200
 1.8400	77.7000
 1.8440	77.6200
 1.8480	77.4900
 1.8520	77.7000
 1.8560	77.5100
 1.8600	77.4500
 1.8640	77.4500
 1.8680	77.3800
 1.8720	77.3800
 1.8760	77.3100
 1.8800	77.3600
 1.8840	77.2400
 1.8880	77.2300
 1.8920	77.0000
 1.8960	76.9500
 1.9000	76.8200
 1.9040	76.8100
 1.9080	76.7000
 1.9120	76.5800
 1.9160	76.6300
 1.9200	76.6800
 1.9240	76.7200
 1.9280	76.6700
 1.9320	76.7100
 1.9360	77.0500
 1.9400	76.9800
 1.9440	76.9800
 1.9480	76.9700
 1.9520	77.1300
 1.9560	77.1000
 1.9600	77.1500
 1.9640	77.1300
 1.9680	77.1700
 1.9720	77.1500
 1.9760	77.2400
 1.9800	77.2800
 1.9840	77.2600
 1.9880	77.2400
 1.9920	77.2200
 1.9960	77.3700
 2.0000	77.2400
 2.0040	77.3500
 2.0080	77.3400
 2.0120	77.3500
 2.0160	77.2600
 2.0200	77.3400
 2.0240	77.3900
 2.0280	77.2700
 2.0320	77.1700
 2.0360	76.9700
 2.0400	77.0500
 2.0440	77.0400
 2.0480	76.9800
 2.0520	77.1600
 2.0560	77.1800
 2.0600	77.2600
 2.0640	77.4600
 2.0680	77.4800
 2.0720	77.5000
 2.0760	77.5300
 2.0800	77.7700
 2.0840	77.7400
 2.0880	77.8200
 2.0920	77.8400
 2.0960	77.9800
 2.1000	77.8400
 2.1040	77.8600
 2.1080	78.0500
 2.1120	77.9600
 2.1160	77.9900
 2.1200	78.0600
 2.1240	78.1100
 2.1280	78.0500
 2.1320	78.0200
 2.1360	78.0700
 2.1400	78.0700
 2.1440	78.1500
 2.1480	78.0800
 2.1520	77.9700
 2.1560	77.8600
 2.1600	77.8600
 2.1640	77.9100
 2.1680	77.6700
 2.1720	77.8800
 2.1760	77.7500
 2.1800	77.6700
 2.1840	77.4100
 2.1880	77.3500
 2.1920	77.1900
 2.1960	77.0300
 2.2000	77.0400
 2.2040	76.9300
 2.2080	76.8100
 2.2120	76.8300
 2.2160	76.8600
 2.2200	76.8900
 2.2240	77.0100
 2.2280	77.0700
 2.2320	77.1600
 2.2360	77.0200
 2.2400	77.1000
 2.2440	77.1500
 2.2480	77.0400
 2.2520	77.0200
 2.2560	76.8200
 2.2600	76.8500
 2.2640	76.8500
 2.2680	76.8500
 2.2720	76.8300
 2.2760	76.4600
 2.2800	76.3200
 2.2840	76.1700
 2.2880	76.1400
 2.2920	75.9900
 2.2960	75.8100
 2.3000	75.8600
 2.3040	75.6100
 2.3080	75.5800
 2.3120	75.3200
 2.3160	75.2900
 2.3200	75.1500
 2.3240	74.8600
 2.3280	74.6900
 2.3320	74.4600
 2.3360	74.3500
 2.3400	74.1100
 2.3440	73.9200
 2.3480	73.7800
 2.3520	73.3500
 2.3560	73.1600
 2.3600	72.9100
 2.3640	72.4300
 2.3680	71.9000
 2.3720	71.3900
 2.3760	71.0000
 2.3800	70.3900
 2.3840	70.1400
 2.3880	70.0600
 2.3920	70.1500
 2.3960	70.5900
 2.4000	71.0900
 2.4040	71.7500
 2.4080	72.4600
 2.4120	73.0700
 2.4160	73.7800
 2.4200	74.3300
 2.4240	74.9900
 2.4280	75.3600
 2.4320	75.4800
 2.4360	75.6900
 2.4400	75.8500
 2.4440	75.8400
 2.4480	75.9500
 2.4520	76.0000
 2.4560	75.9900
 2.4600	75.9300
 2.4640	75.7500
 2.4680	75.6400
 2.4720	75.5200
 2.4760	75.4700
 2.4800	75.2400
 2.4840	74.9500
 2.4880	74.8900
 2.4920	74.6100
 2.4960	74.2200
 2.5000	73.7700
