Name: Antlerite Cu_3(SO_4)(OH)_4
Type: Mineral
Class: Sulfate
Subclass: None
Particle Size: Medium
Sample No.: SO-11A
Owner: JPL
Wavelength Range: VSWIR
Origin: USA, Arizona, Greenlee County, Morenci
Collection Date: N/A
Description: Particle size was 45-125um.Collected by Burminco Original ASTER Spectral Library name was jpl.beckman.mineral.sulfate.none.medium.so11a.spectrum.txt
Measurement: Hemispherical reflectance
First Column: X
Second Column: Y
X Units: Wavelength (micrometers)
Y Units:Reflectance (percent)
First X Value:  0.4000
Last X Value:  2.5000
Number of X Values: 826
Additional Information: mineral.sulfate.none.medium.vswir.so-11a.jpl.beckman.ancillary.txt

 0.4000	11.9900
 0.4010	12.0600
 0.4020	12.2300
 0.4030	12.3000
 0.4040	12.3500
 0.4050	12.4100
 0.4060	12.4100
 0.4070	12.5100
 0.4080	12.7400
 0.4090	12.6900
 0.4100	12.7700
 0.4110	12.7600
 0.4120	12.9200
 0.4130	13.0600
 0.4140	13.0700
 0.4150	13.1200
 0.4160	13.1600
 0.4170	13.2300
 0.4180	13.4300
 0.4190	13.4300
 0.4200	13.5200
 0.4210	13.6300
 0.4220	13.7000
 0.4230	13.9100
 0.4240	13.9300
 0.4250	14.1000
 0.4260	14.2100
 0.4270	14.3200
 0.4280	14.4200
 0.4290	14.4900
 0.4300	14.6700
 0.4310	14.7500
 0.4320	14.8500
 0.4330	15.0700
 0.4340	15.0700
 0.4350	15.3000
 0.4360	15.5100
 0.4370	15.6100
 0.4380	15.7000
 0.4390	15.8100
 0.4400	16.0700
 0.4410	16.3000
 0.4420	16.3500
 0.4430	16.4600
 0.4440	16.5300
 0.4450	16.6900
 0.4460	16.9300
 0.4470	17.0300
 0.4480	17.2000
 0.4490	17.3300
 0.4500	17.5700
 0.4510	17.5900
 0.4520	17.7600
 0.4530	17.9400
 0.4540	18.1600
 0.4550	18.2900
 0.4560	18.4200
 0.4570	18.5500
 0.4580	18.7400
 0.4590	18.9500
 0.4600	19.0100
 0.4610	19.4100
 0.4620	19.5400
 0.4630	19.7800
 0.4640	19.9200
 0.4650	20.1600
 0.4660	20.4300
 0.4670	20.5300
 0.4680	20.8100
 0.4690	21.0100
 0.4700	21.2300
 0.4710	21.5400
 0.4720	21.6700
 0.4730	21.9700
 0.4740	22.2500
 0.4750	22.3600
 0.4760	22.7000
 0.4770	22.8800
 0.4780	23.2600
 0.4790	23.4100
 0.4800	23.7000
 0.4810	23.9300
 0.4820	24.2000
 0.4830	24.4400
 0.4840	24.7600
 0.4850	25.0100
 0.4860	25.2800
 0.4870	25.3900
 0.4880	25.6800
 0.4890	25.9600
 0.4900	26.2500
 0.4910	26.5100
 0.4920	26.7700
 0.4930	26.9500
 0.4940	27.2500
 0.4950	27.4400
 0.4960	27.6400
 0.4970	27.9700
 0.4980	28.1100
 0.4990	28.3700
 0.5000	28.5800
 0.5010	28.8000
 0.5020	28.9800
 0.5030	29.1400
 0.5040	29.3600
 0.5050	29.4800
 0.5060	29.7900
 0.5070	29.8900
 0.5080	30.0300
 0.5090	30.1400
 0.5100	30.2800
 0.5110	30.3500
 0.5120	30.6000
 0.5130	30.6400
 0.5140	30.7200
 0.5150	30.7400
 0.5160	30.8800
 0.5170	30.9900
 0.5180	30.9800
 0.5190	31.0300
 0.5200	31.0100
 0.5210	30.9900
 0.5220	31.0300
 0.5230	31.0300
 0.5240	31.0100
 0.5250	30.9600
 0.5260	30.8800
 0.5270	30.8200
 0.5280	30.7500
 0.5290	30.6400
 0.5300	30.6900
 0.5310	30.5400
 0.5320	30.4300
 0.5330	30.1800
 0.5340	30.0900
 0.5350	29.9500
 0.5360	29.6700
 0.5370	29.4600
 0.5380	29.3600
 0.5390	29.1400
 0.5400	28.9600
 0.5410	28.6900
 0.5420	28.4900
 0.5430	28.2200
 0.5440	27.8600
 0.5450	27.6100
 0.5460	27.4000
 0.5470	27.1400
 0.5480	26.8600
 0.5490	26.5800
 0.5500	26.2000
 0.5510	25.8500
 0.5520	25.5100
 0.5530	25.2800
 0.5540	24.8600
 0.5550	24.5200
 0.5560	24.1600
 0.5570	23.8300
 0.5580	23.6000
 0.5590	23.4400
 0.5600	23.3500
 0.5610	22.4400
 0.5620	22.1100
 0.5630	21.8000
 0.5640	21.4900
 0.5650	21.0600
 0.5660	20.7000
 0.5670	20.3300
 0.5680	19.9400
 0.5690	19.6300
 0.5700	19.2100
 0.5710	18.9200
 0.5720	18.5900
 0.5730	18.1200
 0.5740	17.8400
 0.5750	17.5000
 0.5760	17.2400
 0.5770	16.8100
 0.5780	16.4700
 0.5790	16.2400
 0.5800	15.9500
 0.5810	15.6500
 0.5820	15.3600
 0.5830	14.9400
 0.5840	14.8400
 0.5850	14.5700
 0.5860	14.2900
 0.5870	14.0700
 0.5880	13.7600
 0.5890	13.5100
 0.5900	13.2800
 0.5910	13.1000
 0.5920	12.8500
 0.5930	12.6000
 0.5940	12.4200
 0.5950	12.2000
 0.5960	11.9600
 0.5970	11.8600
 0.5980	11.6600
 0.5990	11.4800
 0.6000	11.3400
 0.6010	11.1500
 0.6020	11.1100
 0.6030	10.8400
 0.6040	10.6700
 0.6050	10.6000
 0.6060	10.4700
 0.6070	10.3400
 0.6080	10.2200
 0.6090	10.1800
 0.6100	 9.9600
 0.6110	 9.7600
 0.6120	 9.7100
 0.6130	 9.6000
 0.6140	 9.5600
 0.6150	 9.4500
 0.6160	 9.2200
 0.6170	 9.2800
 0.6180	 9.1500
 0.6190	 9.1300
 0.6200	 9.0400
 0.6210	 8.9100
 0.6220	 8.8500
 0.6230	 8.7300
 0.6240	 8.6200
 0.6250	 8.6300
 0.6260	 8.5400
 0.6270	 8.3700
 0.6280	 8.3600
 0.6290	 8.2800
 0.6300	 8.3300
 0.6310	 8.2200
 0.6320	 8.1100
 0.6330	 8.1100
 0.6340	 8.0000
 0.6350	 8.0000
 0.6360	 7.9400
 0.6370	 7.9500
 0.6380	 7.8000
 0.6390	 7.7300
 0.6400	 7.8300
 0.6410	 7.7700
 0.6420	 7.7400
 0.6430	 7.7000
 0.6440	 7.5800
 0.6450	 7.5900
 0.6460	 7.6000
 0.6470	 7.5900
 0.6480	 7.5300
 0.6490	 7.4200
 0.6500	 7.4400
 0.6510	 7.3900
 0.6520	 7.3900
 0.6530	 7.3800
 0.6540	 7.2500
 0.6550	 7.3000
 0.6560	 7.3200
 0.6570	 7.2600
 0.6580	 7.2700
 0.6590	 7.2000
 0.6600	 7.1800
 0.6610	 7.1300
 0.6620	 7.1300
 0.6630	 7.1500
 0.6640	 7.1000
 0.6650	 7.0400
 0.6660	 7.0300
 0.6670	 7.0200
 0.6680	 7.0700
 0.6690	 7.0100
 0.6700	 6.9100
 0.6710	 6.9600
 0.6720	 6.9600
 0.6730	 7.0700
 0.6740	 6.9100
 0.6750	 6.8500
 0.6760	 6.9300
 0.6770	 6.8700
 0.6780	 6.9200
 0.6790	 6.8000
 0.6800	 7.0100
 0.6810	 6.9000
 0.6820	 6.8400
 0.6830	 6.8500
 0.6840	 6.8400
 0.6850	 6.8900
 0.6860	 6.7900
 0.6870	 6.7200
 0.6880	 6.8600
 0.6890	 6.8000
 0.6900	 6.7900
 0.6910	 6.7900
 0.6920	 6.7700
 0.6930	 6.7900
 0.6940	 6.7900
 0.6950	 6.8000
 0.6960	 6.8000
 0.6970	 6.7900
 0.6980	 6.7500
 0.6990	 6.8000
 0.7000	 6.7300
 0.7010	 6.7100
 0.7020	 6.6700
 0.7030	 6.6600
 0.7040	 6.7700
 0.7050	 6.7700
 0.7060	 6.7200
 0.7070	 6.7300
 0.7080	 6.6300
 0.7090	 6.7400
 0.7100	 6.7300
 0.7110	 6.6700
 0.7120	 6.6700
 0.7130	 6.7200
 0.7140	 6.6700
 0.7150	 6.7800
 0.7160	 6.7300
 0.7170	 6.7300
 0.7180	 6.6900
 0.7190	 6.7500
 0.7200	 6.8000
 0.7210	 6.7900
 0.7220	 6.7200
 0.7230	 6.6700
 0.7240	 6.7400
 0.7250	 6.8400
 0.7260	 6.7900
 0.7270	 6.7900
 0.7280	 6.7300
 0.7290	 6.7400
 0.7300	 6.7400
 0.7310	 6.7400
 0.7320	 6.7200
 0.7330	 6.6800
 0.7340	 6.7900
 0.7350	 6.7400
 0.7360	 6.7400
 0.7370	 6.7900
 0.7380	 6.7400
 0.7390	 6.8000
 0.7400	 6.8000
 0.7410	 6.7800
 0.7420	 6.8900
 0.7430	 6.8300
 0.7440	 6.7800
 0.7450	 6.7700
 0.7460	 6.7700
 0.7470	 6.8300
 0.7480	 6.8400
 0.7490	 6.7900
 0.7500	 6.8500
 0.7510	 6.8300
 0.7520	 6.8800
 0.7530	 6.8900
 0.7540	 6.8400
 0.7550	 6.9000
 0.7560	 6.8400
 0.7570	 6.8400
 0.7580	 6.9100
 0.7590	 6.9500
 0.7600	 6.8800
 0.7610	 6.8800
 0.7620	 6.9000
 0.7630	 6.8800
 0.7640	 6.9500
 0.7650	 6.9400
 0.7660	 6.9400
 0.7670	 7.0000
 0.7680	 6.9500
 0.7690	 6.9400
 0.7700	 6.9900
 0.7710	 6.8800
 0.7720	 7.0000
 0.7730	 6.9300
 0.7740	 6.9800
 0.7750	 7.0500
 0.7760	 6.9500
 0.7770	 7.0100
 0.7780	 7.0000
 0.7790	 6.9900
 0.7800	 6.9900
 0.7810	 6.9300
 0.7820	 6.9900
 0.7830	 6.9700
 0.7840	 6.9300
 0.7850	 7.0000
 0.7860	 6.9900
 0.7870	 7.0300
 0.7880	 7.0300
 0.7890	 6.9700
 0.7900	 7.0400
 0.7910	 6.9800
 0.7920	 7.0400
 0.7930	 6.9900
 0.7940	 6.9900
 0.7950	 7.0500
 0.7960	 7.0400
 0.7970	 7.1500
 0.7980	 7.2800
 0.7990	 7.3900
 0.8000	 7.6300
 0.8040	 7.6400
 0.8080	 7.6700
 0.8120	 7.6000
 0.8160	 7.5500
 0.8200	 7.5300
 0.8240	 7.5200
 0.8280	 7.5400
 0.8320	 7.5100
 0.8360	 7.5200
 0.8400	 7.4900
 0.8440	 7.4500
 0.8480	 7.4500
 0.8520	 7.4200
 0.8560	 7.3400
 0.8600	 7.3500
 0.8640	 7.4000
 0.8680	 7.3600
 0.8720	 7.3700
 0.8760	 7.3500
 0.8800	 7.3700
 0.8840	 7.3000
 0.8880	 7.2900
 0.8920	 7.2500
 0.8960	 7.2400
 0.9000	 7.1800
 0.9040	 7.2600
 0.9080	 7.2400
 0.9120	 7.3200
 0.9160	 7.2900
 0.9200	 7.1900
 0.9240	 7.2500
 0.9280	 7.2500
 0.9320	 7.2500
 0.9360	 7.2400
 0.9400	 7.3200
 0.9440	 7.3100
 0.9480	 7.3200
 0.9520	 7.3200
 0.9560	 7.3600
 0.9600	 7.4400
 0.9640	 7.4900
 0.9680	 7.5400
 0.9720	 7.5400
 0.9760	 7.5400
 0.9800	 7.5700
 0.9840	 7.6300
 0.9880	 7.7100
 0.9920	 7.7200
 0.9960	 7.8400
 1.0000	 7.8300
 1.0040	 7.8200
 1.0080	 7.8900
 1.0120	 7.9500
 1.0160	 8.0800
 1.0200	 8.2000
 1.0240	 8.1900
 1.0280	 8.2400
 1.0320	 8.2900
 1.0360	 8.3500
 1.0400	 8.4300
 1.0440	 8.5500
 1.0480	 8.6200
 1.0520	 8.6200
 1.0560	 8.7500
 1.0600	 8.8300
 1.0640	 8.9000
 1.0680	 8.9400
 1.0720	 8.9800
 1.0760	 9.1200
 1.0800	 9.1900
 1.0840	 9.2800
 1.0880	 9.4300
 1.0920	 9.4700
 1.0960	 9.6400
 1.1000	 9.6400
 1.1040	 9.8000
 1.1080	 9.8300
 1.1120	 9.9800
 1.1160	10.1300
 1.1200	10.2600
 1.1240	10.3800
 1.1280	10.4300
 1.1320	10.6000
 1.1360	10.6800
 1.1400	10.7900
 1.1440	10.9300
 1.1480	11.1300
 1.1520	11.2500
 1.1560	11.4200
 1.1600	11.6000
 1.1640	11.7700
 1.1680	11.9300
 1.1720	12.0900
 1.1760	12.2500
 1.1800	12.3600
 1.1840	12.6000
 1.1880	12.8900
 1.1920	13.0000
 1.1960	13.2200
 1.2000	13.4800
 1.2040	13.6600
 1.2080	13.8700
 1.2120	14.1200
 1.2160	14.3700
 1.2200	14.5800
 1.2240	14.8700
 1.2280	15.0900
 1.2320	15.3900
 1.2360	15.6300
 1.2400	15.9400
 1.2440	16.1900
 1.2480	16.4900
 1.2520	16.7600
 1.2560	17.0400
 1.2600	17.3500
 1.2640	17.5600
 1.2680	17.9000
 1.2720	18.2200
 1.2760	18.5300
 1.2800	18.8900
 1.2840	19.2200
 1.2880	19.5700
 1.2920	19.8700
 1.2960	20.1500
 1.3000	20.4600
 1.3040	20.8000
 1.3080	21.0700
 1.3120	21.4900
 1.3160	21.9000
 1.3200	22.2400
 1.3240	22.6300
 1.3280	22.9800
 1.3320	23.2900
 1.3360	23.6500
 1.3400	24.0200
 1.3440	24.3400
 1.3480	24.7300
 1.3520	25.1700
 1.3560	25.5200
 1.3600	25.7600
 1.3640	26.1000
 1.3680	26.3800
 1.3720	26.6900
 1.3760	27.0000
 1.3800	27.2100
 1.3840	27.6100
 1.3880	27.7300
 1.3920	27.7700
 1.3960	27.9700
 1.4000	28.1200
 1.4040	27.9900
 1.4080	27.1700
 1.4120	27.0800
 1.4160	27.9400
 1.4200	27.6600
 1.4240	23.9100
 1.4280	20.4000
 1.4320	22.6400
 1.4360	27.2100
 1.4400	29.7100
 1.4440	30.3900
 1.4480	30.5600
 1.4520	30.3800
 1.4560	29.7200
 1.4600	28.6200
 1.4640	26.7000
 1.4680	24.2600
 1.4720	23.7800
 1.4760	26.3700
 1.4800	29.7600
 1.4840	32.0600
 1.4880	33.2700
 1.4920	34.0100
 1.4960	34.6300
 1.5000	34.9500
 1.5040	35.6000
 1.5080	35.9900
 1.5120	36.3800
 1.5160	36.7300
 1.5200	36.9900
 1.5240	37.2200
 1.5280	37.4300
 1.5320	37.6700
 1.5360	37.8500
 1.5400	38.0300
 1.5440	38.2300
 1.5480	38.4600
 1.5520	38.5700
 1.5560	38.8700
 1.5600	39.0200
 1.5640	39.0800
 1.5680	39.2600
 1.5720	39.4100
 1.5760	39.5700
 1.5800	39.6500
 1.5840	39.9600
 1.5880	39.9900
 1.5920	40.0800
 1.5960	40.1700
 1.6000	40.3000
 1.6040	40.4000
 1.6080	40.5300
 1.6120	40.6000
 1.6160	40.7600
 1.6200	40.8400
 1.6240	40.9300
 1.6280	41.0300
 1.6320	41.0800
 1.6360	41.1700
 1.6400	41.1100
 1.6440	41.2200
 1.6480	41.3300
 1.6520	41.4100
 1.6560	41.4800
 1.6600	41.4900
 1.6640	41.5800
 1.6680	41.5700
 1.6720	41.6100
 1.6760	41.7200
 1.6800	41.7800
 1.6840	41.7700
 1.6880	41.8200
 1.6920	41.8200
 1.6960	41.8300
 1.7000	41.8500
 1.7040	41.8800
 1.7080	41.9400
 1.7120	41.9200
 1.7160	41.9400
 1.7200	41.9800
 1.7240	41.9900
 1.7280	42.0800
 1.7320	42.0700
 1.7360	42.1500
 1.7400	42.0900
 1.7440	42.2200
 1.7480	42.3000
 1.7520	42.2500
 1.7560	42.2700
 1.7600	42.2600
 1.7640	42.2600
 1.7680	42.3600
 1.7720	42.3900
 1.7760	42.4500
 1.7800	42.4200
 1.7840	42.4500
 1.7880	42.5100
 1.7920	42.5100
 1.7960	42.4800
 1.8000	42.4700
 1.8040	42.5300
 1.8080	42.4700
 1.8120	42.4600
 1.8160	42.4800
 1.8200	42.5300
 1.8240	42.4700
 1.8280	42.3600
 1.8320	42.3500
 1.8360	42.3000
 1.8400	42.2400
 1.8440	42.2600
 1.8480	42.2300
 1.8520	42.2600
 1.8560	42.1600
 1.8600	42.1000
 1.8640	42.0200
 1.8680	41.8700
 1.8720	41.7300
 1.8760	41.5600
 1.8800	41.4400
 1.8840	41.3200
 1.8880	41.1600
 1.8920	40.9400
 1.8960	40.7300
 1.9000	40.4400
 1.9040	40.1100
 1.9080	39.8900
 1.9120	39.7900
 1.9160	39.6300
 1.9200	39.6400
 1.9240	39.5700
 1.9280	39.5200
 1.9320	39.3600
 1.9360	39.1900
 1.9400	38.9600
 1.9440	38.8300
 1.9480	38.5800
 1.9520	38.4500
 1.9560	38.3300
 1.9600	38.3300
 1.9640	38.4400
 1.9680	38.7500
 1.9720	39.1300
 1.9760	39.4200
 1.9800	39.6500
 1.9840	39.9100
 1.9880	40.0600
 1.9920	40.2200
 1.9960	40.3500
 2.0000	40.4100
 2.0040	40.3800
 2.0080	40.4600
 2.0120	40.5300
 2.0160	40.5900
 2.0200	40.6400
 2.0240	40.6800
 2.0280	40.7500
 2.0320	40.8500
 2.0360	40.9400
 2.0400	41.0100
 2.0440	40.9300
 2.0480	40.8700
 2.0520	40.8400
 2.0560	40.7300
 2.0600	40.6300
 2.0640	40.5400
 2.0680	40.4500
 2.0720	40.2900
 2.0760	40.2200
 2.0800	40.1900
 2.0840	40.0100
 2.0880	39.7300
 2.0920	39.3400
 2.0960	38.8500
 2.1000	38.3000
 2.1040	37.8000
 2.1080	37.4100
 2.1120	37.1600
 2.1160	37.0300
 2.1200	36.8300
 2.1240	36.7100
 2.1280	36.3000
 2.1320	35.7600
 2.1360	35.2500
 2.1400	34.7300
 2.1440	34.4000
 2.1480	34.4300
 2.1520	34.8100
 2.1560	35.3500
 2.1600	35.8600
 2.1640	36.1800
 2.1680	36.2200
 2.1720	36.0800
 2.1760	35.7300
 2.1800	35.1900
 2.1840	34.7800
 2.1880	34.5700
 2.1920	34.3900
 2.1960	34.3100
 2.2000	34.1600
 2.2040	33.6600
 2.2080	32.9100
 2.2120	31.8100
 2.2160	30.2800
 2.2200	28.5500
 2.2240	26.7200
 2.2280	25.1200
 2.2320	23.5700
 2.2360	22.4800
 2.2400	21.8500
 2.2440	21.7100
 2.2480	22.0200
 2.2520	22.6000
 2.2560	23.0400
 2.2600	23.2800
 2.2640	23.0500
 2.2680	22.4900
 2.2720	21.5400
 2.2760	20.1800
 2.2800	18.6000
 2.2840	16.9200
 2.2880	15.2000
 2.2920	13.5700
 2.2960	12.2700
 2.3000	11.3100
 2.3040	11.0700
 2.3080	10.7800
 2.3120	10.8900
 2.3160	11.1600
 2.3200	11.5100
 2.3240	11.7000
 2.3280	11.6500
 2.3320	11.4200
 2.3360	11.0300
 2.3400	10.6300
 2.3440	10.4800
 2.3480	10.6300
 2.3520	11.0400
 2.3560	11.8000
 2.3600	12.7300
 2.3640	13.9100
 2.3680	15.3100
 2.3720	16.5600
 2.3760	17.8200
 2.3800	18.8600
 2.3840	19.8600
 2.3880	20.8000
 2.3920	21.7400
 2.3960	22.5800
 2.4000	23.2100
 2.4040	23.6400
 2.4080	23.8900
 2.4120	24.0500
 2.4160	23.9000
 2.4200	23.5500
 2.4240	23.0700
 2.4280	22.4700
 2.4320	21.8300
 2.4360	21.2400
 2.4400	20.8500
 2.4440	20.6200
 2.4480	20.5400
 2.4520	20.7300
 2.4560	21.0500
 2.4600	21.4100
 2.4640	21.8500
 2.4680	22.2600
 2.4720	22.6600
 2.4760	22.8200
 2.4800	22.9200
 2.4840	22.9300
 2.4880	22.7600
 2.4920	22.4700
 2.4960	22.2000
 2.5000	21.8900
