Name: Riebeckite Na_2(Fe^2+,Mg)_3,Fe_2^3+Si_8O_22(OH)_2
Type: Mineral
Class: Silicate
Subclass: Inosilicate
Particle Size: Medium
Sample No.: IN-7A
Owner: JPL
Wavelength Range: VSWIR
Origin: Canada, Ontario.
Collection Date: N/A
Description: Particle size was 45-125um.Collected by:  Ward's Original ASTER Spectral Library name was jpl.perkin.mineral.silicate.inosilicate.medium.in07a.spectrum.txt
Measurement: Hemispherical reflectance
First Column: X
Second Column: Y
X Units: Wavelength (micrometers)
Y Units:Reflectance (percent)
First X Value:  2.5000
Last X Value:  0.4000
Number of X Values: 2101
Additional Information: mineral.silicate.inosilicate.medium.vswir.in-7a.jpl.perkin.ancillary.txt

 2.5000	52.3282
 2.4990	52.0192
 2.4980	51.9183
 2.4970	52.1343
 2.4960	51.8298
 2.4950	52.1314
 2.4940	52.0228
 2.4930	52.0670
 2.4920	51.9834
 2.4910	51.9466
 2.4900	51.8000
 2.4890	52.0808
 2.4880	51.8394
 2.4870	51.9859
 2.4860	52.0305
 2.4850	52.0193
 2.4840	51.9310
 2.4830	52.0706
 2.4820	52.0215
 2.4810	52.1350
 2.4800	52.0212
 2.4790	52.1437
 2.4780	52.1079
 2.4770	52.1562
 2.4760	52.2417
 2.4750	52.2332
 2.4740	51.9387
 2.4730	52.2575
 2.4720	52.0913
 2.4710	52.1807
 2.4700	51.9538
 2.4690	52.1913
 2.4680	52.0965
 2.4670	52.3536
 2.4660	52.2220
 2.4650	52.1979
 2.4640	52.2672
 2.4630	52.3130
 2.4620	52.1430
 2.4610	52.2356
 2.4600	52.2480
 2.4590	52.2228
 2.4580	52.4351
 2.4570	52.2820
 2.4560	52.2758
 2.4550	52.4108
 2.4540	52.3801
 2.4530	52.3248
 2.4520	52.3524
 2.4510	52.2824
 2.4500	52.2549
 2.4490	52.4076
 2.4480	52.3713
 2.4470	52.3750
 2.4460	52.3461
 2.4450	52.3626
 2.4440	52.3311
 2.4430	52.4477
 2.4420	52.3692
 2.4410	52.3808
 2.4400	52.4720
 2.4390	52.3914
 2.4380	52.2446
 2.4370	52.3547
 2.4360	52.3045
 2.4350	52.4171
 2.4340	52.1892
 2.4330	52.1871
 2.4320	52.0566
 2.4310	52.0535
 2.4300	52.0398
 2.4290	51.9585
 2.4280	51.8288
 2.4270	51.8004
 2.4260	51.6869
 2.4250	51.5354
 2.4240	51.4102
 2.4230	51.3554
 2.4220	51.2120
 2.4210	51.0047
 2.4200	50.9287
 2.4190	50.8713
 2.4180	50.6852
 2.4170	50.5144
 2.4160	50.2884
 2.4150	50.2713
 2.4140	50.0455
 2.4130	49.9025
 2.4120	49.6643
 2.4110	49.4332
 2.4100	49.3157
 2.4090	49.1116
 2.4080	48.9287
 2.4070	48.8505
 2.4060	48.5604
 2.4050	48.4331
 2.4040	48.2974
 2.4030	48.1116
 2.4020	47.9476
 2.4010	47.8578
 2.4000	47.7552
 2.3990	47.5925
 2.3980	47.4918
 2.3970	47.4292
 2.3960	47.3139
 2.3950	47.2021
 2.3940	47.2156
 2.3930	47.2100
 2.3920	47.1294
 2.3910	47.1338
 2.3900	47.0474
 2.3890	47.1254
 2.3880	47.1692
 2.3870	47.2684
 2.3860	47.2921
 2.3850	47.3687
 2.3840	47.4405
 2.3830	47.5361
 2.3820	47.6371
 2.3810	47.7702
 2.3800	47.9226
 2.3790	48.0905
 2.3780	48.1989
 2.3770	48.4020
 2.3760	48.5312
 2.3750	48.6679
 2.3740	48.8377
 2.3730	48.9871
 2.3720	49.0973
 2.3710	49.2642
 2.3700	49.3358
 2.3690	49.4907
 2.3680	49.6199
 2.3670	49.6216
 2.3660	49.6841
 2.3650	49.7874
 2.3640	49.8317
 2.3630	49.9030
 2.3620	49.8543
 2.3610	49.8259
 2.3600	49.7832
 2.3590	49.7080
 2.3580	49.6423
 2.3570	49.5939
 2.3560	49.5120
 2.3550	49.4076
 2.3540	49.2494
 2.3530	49.1160
 2.3520	48.9988
 2.3510	48.8136
 2.3500	48.6573
 2.3490	48.5088
 2.3480	48.3641
 2.3470	48.1796
 2.3460	47.9790
 2.3450	47.7955
 2.3440	47.6337
 2.3430	47.4825
 2.3420	47.2845
 2.3410	47.0700
 2.3400	46.8983
 2.3390	46.7270
 2.3380	46.5767
 2.3370	46.4100
 2.3360	46.3071
 2.3350	46.1900
 2.3340	46.0434
 2.3330	45.9394
 2.3320	45.8454
 2.3310	45.7297
 2.3300	45.6546
 2.3290	45.6181
 2.3280	45.5841
 2.3270	45.5011
 2.3260	45.5407
 2.3250	45.5716
 2.3240	45.6019
 2.3230	45.6559
 2.3220	45.7166
 2.3210	45.7712
 2.3200	45.9123
 2.3190	46.0660
 2.3180	46.2725
 2.3170	46.3766
 2.3160	46.5814
 2.3150	46.7907
 2.3140	47.0167
 2.3130	47.1870
 2.3120	47.4600
 2.3110	47.7391
 2.3100	47.9712
 2.3090	48.2648
 2.3080	48.5974
 2.3070	48.9031
 2.3060	49.2662
 2.3050	49.4914
 2.3040	49.7806
 2.3030	50.0664
 2.3020	50.4432
 2.3010	50.6623
 2.3000	50.9985
 2.2990	51.2166
 2.2980	51.4231
 2.2970	51.6632
 2.2960	51.7848
 2.2950	52.0400
 2.2940	52.2949
 2.2930	52.4956
 2.2920	52.6691
 2.2910	52.8371
 2.2900	52.9700
 2.2890	53.1211
 2.2880	53.2571
 2.2870	53.3475
 2.2860	53.5049
 2.2850	53.5902
 2.2840	53.7844
 2.2830	53.8117
 2.2820	53.9344
 2.2810	53.9944
 2.2800	54.0703
 2.2790	54.1702
 2.2780	54.3193
 2.2770	54.3216
 2.2760	54.4049
 2.2750	54.3840
 2.2740	54.5174
 2.2730	54.5268
 2.2720	54.5802
 2.2710	54.6213
 2.2700	54.6814
 2.2690	54.6361
 2.2680	54.7087
 2.2670	54.6927
 2.2660	54.7574
 2.2650	54.7669
 2.2640	54.8234
 2.2630	54.8129
 2.2620	54.8052
 2.2610	54.8585
 2.2600	54.8951
 2.2590	54.8463
 2.2580	54.9152
 2.2570	54.8815
 2.2560	54.9367
 2.2550	54.9445
 2.2540	54.9920
 2.2530	54.9533
 2.2520	54.9552
 2.2510	54.9786
 2.2500	55.0565
 2.2490	54.9817
 2.2480	55.1076
 2.2470	54.9947
 2.2460	55.1428
 2.2450	55.0983
 2.2440	55.1644
 2.2430	55.1615
 2.2420	55.1575
 2.2410	55.1443
 2.2400	55.1734
 2.2390	55.2067
 2.2380	55.2125
 2.2370	55.1978
 2.2360	55.1848
 2.2350	55.2349
 2.2340	55.2377
 2.2330	55.2253
 2.2320	55.2678
 2.2310	55.2413
 2.2300	55.2004
 2.2290	55.2402
 2.2280	55.2349
 2.2270	55.2804
 2.2260	55.2621
 2.2250	55.2261
 2.2240	55.2192
 2.2230	55.2541
 2.2220	55.3036
 2.2210	55.1952
 2.2200	55.2513
 2.2190	55.1817
 2.2180	55.2561
 2.2170	55.1953
 2.2160	55.2054
 2.2150	55.2320
 2.2140	55.2934
 2.2130	55.2376
 2.2120	55.2007
 2.2110	55.1047
 2.2100	55.2906
 2.2090	55.2301
 2.2080	55.2847
 2.2070	55.2071
 2.2060	55.2970
 2.2050	55.2574
 2.2040	55.2005
 2.2030	55.2826
 2.2020	55.2605
 2.2010	55.2289
 2.2000	55.3315
 2.1990	55.1777
 2.1980	55.3444
 2.1970	55.2415
 2.1960	55.2586
 2.1950	55.2539
 2.1940	55.2416
 2.1930	55.1988
 2.1920	55.2033
 2.1910	55.1969
 2.1900	55.2081
 2.1890	55.1224
 2.1880	55.2346
 2.1870	55.1313
 2.1860	55.1664
 2.1850	55.1140
 2.1840	55.0720
 2.1830	55.1302
 2.1820	55.1389
 2.1810	55.0088
 2.1800	55.0884
 2.1790	55.0676
 2.1780	55.1350
 2.1770	55.0844
 2.1760	55.0426
 2.1750	55.0323
 2.1740	55.1171
 2.1730	54.9908
 2.1720	55.0268
 2.1710	54.9623
 2.1700	55.0340
 2.1690	54.9349
 2.1680	54.9530
 2.1670	54.9508
 2.1660	54.9884
 2.1650	54.9062
 2.1640	55.0133
 2.1630	54.9460
 2.1620	54.8841
 2.1610	54.9439
 2.1600	54.8988
 2.1590	54.8647
 2.1580	54.9542
 2.1570	54.8368
 2.1560	54.8872
 2.1550	54.8482
 2.1540	54.8390
 2.1530	54.8383
 2.1520	54.7990
 2.1510	54.7158
 2.1500	54.7355
 2.1490	54.6694
 2.1480	54.6731
 2.1470	54.6552
 2.1460	54.6726
 2.1450	54.6583
 2.1440	54.6066
 2.1430	54.5573
 2.1420	54.5126
 2.1410	54.4348
 2.1400	54.5059
 2.1390	54.3730
 2.1380	54.3773
 2.1370	54.3118
 2.1360	54.2798
 2.1350	54.1780
 2.1340	54.2136
 2.1330	54.1672
 2.1320	54.1254
 2.1310	54.0758
 2.1300	54.0717
 2.1290	54.0387
 2.1280	53.9711
 2.1270	53.9095
 2.1260	53.8139
 2.1250	53.7837
 2.1240	53.7711
 2.1230	53.6961
 2.1220	53.7010
 2.1210	53.6624
 2.1200	53.6340
 2.1190	53.4722
 2.1180	53.4745
 2.1170	53.3978
 2.1160	53.4100
 2.1150	53.3197
 2.1140	53.3218
 2.1130	53.2992
 2.1120	53.2956
 2.1110	53.2177
 2.1100	53.1436
 2.1090	53.1007
 2.1080	53.1308
 2.1070	53.0814
 2.1060	53.0503
 2.1050	52.9679
 2.1040	53.0051
 2.1030	52.9826
 2.1020	52.9308
 2.1010	52.9152
 2.1000	52.9337
 2.0990	52.9094
 2.0980	52.9544
 2.0970	52.9151
 2.0960	52.8885
 2.0950	52.9021
 2.0940	52.9098
 2.0930	52.9346
 2.0920	52.9503
 2.0910	52.9276
 2.0900	52.9493
 2.0890	52.9675
 2.0880	53.0005
 2.0870	53.0010
 2.0860	52.9845
 2.0850	52.9702
 2.0840	52.9835
 2.0830	53.0078
 2.0820	53.0077
 2.0810	53.0031
 2.0800	52.9769
 2.0790	52.9911
 2.0780	52.9746
 2.0770	52.9735
 2.0760	53.0060
 2.0750	52.9525
 2.0740	52.9445
 2.0730	52.9402
 2.0720	52.9210
 2.0710	52.9364
 2.0700	52.9096
 2.0690	52.9013
 2.0680	52.9111
 2.0670	52.9240
 2.0660	52.8944
 2.0650	52.8897
 2.0640	52.9550
 2.0630	52.9213
 2.0620	52.8637
 2.0610	52.8761
 2.0600	52.8449
 2.0590	52.8398
 2.0580	52.8438
 2.0570	52.8315
 2.0560	52.7892
 2.0550	52.7958
 2.0540	52.7806
 2.0530	52.7910
 2.0520	52.7472
 2.0510	52.7406
 2.0500	52.7611
 2.0490	52.7543
 2.0480	52.7113
 2.0470	52.6619
 2.0460	52.5971
 2.0450	52.6220
 2.0440	52.5871
 2.0430	52.5192
 2.0420	52.5451
 2.0410	52.5314
 2.0400	52.4825
 2.0390	52.5007
 2.0380	52.5376
 2.0370	52.4924
 2.0360	52.3842
 2.0350	52.3712
 2.0340	52.3633
 2.0330	52.3899
 2.0320	52.3429
 2.0310	52.3338
 2.0300	52.2549
 2.0290	52.2912
 2.0280	52.2425
 2.0270	52.2554
 2.0260	52.1789
 2.0250	52.1435
 2.0240	52.1095
 2.0230	52.0885
 2.0220	52.0500
 2.0210	52.0445
 2.0200	51.9809
 2.0190	51.9929
 2.0180	51.9761
 2.0170	51.9905
 2.0160	51.9894
 2.0150	51.9728
 2.0140	51.9358
 2.0130	51.9339
 2.0120	51.8535
 2.0110	51.8528
 2.0100	51.8327
 2.0090	51.8156
 2.0080	51.7497
 2.0070	51.7096
 2.0060	51.6254
 2.0050	51.7318
 2.0040	51.6601
 2.0030	51.6746
 2.0020	51.6379
 2.0010	51.5696
 2.0000	51.5800
 1.9990	51.5529
 1.9980	51.4988
 1.9970	51.5272
 1.9960	51.4041
 1.9950	51.4004
 1.9940	51.3180
 1.9930	51.3709
 1.9920	51.2907
 1.9910	51.1939
 1.9900	51.1145
 1.9890	51.1637
 1.9880	51.0897
 1.9870	51.0860
 1.9860	51.0252
 1.9850	50.9999
 1.9840	50.9120
 1.9830	50.9045
 1.9820	50.7854
 1.9810	50.8063
 1.9800	50.7583
 1.9790	50.7719
 1.9780	50.7054
 1.9770	50.6718
 1.9760	50.5299
 1.9750	50.5588
 1.9740	50.5080
 1.9730	50.4751
 1.9720	50.4716
 1.9710	50.4137
 1.9700	50.3248
 1.9690	50.3315
 1.9680	50.2063
 1.9670	50.2278
 1.9660	50.1859
 1.9650	50.2053
 1.9640	50.1148
 1.9630	50.1693
 1.9620	49.9648
 1.9610	50.0836
 1.9600	49.9746
 1.9590	49.9757
 1.9580	49.8775
 1.9570	49.9470
 1.9560	49.8058
 1.9550	49.8217
 1.9540	49.7781
 1.9530	49.7653
 1.9520	49.7155
 1.9510	49.7345
 1.9500	49.5052
 1.9490	49.5703
 1.9480	49.5201
 1.9470	49.4558
 1.9460	49.4069
 1.9450	49.5019
 1.9440	49.2373
 1.9430	49.3582
 1.9420	49.2998
 1.9410	49.3021
 1.9400	49.1730
 1.9390	49.2299
 1.9380	49.1370
 1.9370	49.0249
 1.9360	49.0992
 1.9350	49.0588
 1.9340	49.0283
 1.9330	49.1158
 1.9320	48.9225
 1.9310	48.8929
 1.9300	48.7243
 1.9290	48.8581
 1.9280	48.8074
 1.9270	48.8432
 1.9260	48.4963
 1.9250	48.7441
 1.9240	48.6352
 1.9230	48.6320
 1.9220	48.5125
 1.9210	48.6320
 1.9200	48.4330
 1.9190	48.5000
 1.9180	48.3603
 1.9170	48.3250
 1.9160	48.2991
 1.9150	48.4157
 1.9140	48.2085
 1.9130	48.2334
 1.9120	48.2074
 1.9110	48.1642
 1.9100	48.1345
 1.9090	48.2033
 1.9080	48.0360
 1.9070	48.1174
 1.9060	48.0566
 1.9050	48.0057
 1.9040	47.9269
 1.9030	47.9571
 1.9020	47.8730
 1.9010	47.9004
 1.9000	47.8230
 1.8990	47.8213
 1.8980	47.8006
 1.8970	47.8168
 1.8960	47.7475
 1.8950	47.8196
 1.8940	47.7424
 1.8930	47.8232
 1.8920	47.7335
 1.8910	47.6979
 1.8900	47.6776
 1.8890	47.6768
 1.8880	47.5740
 1.8870	47.6884
 1.8860	47.5687
 1.8850	47.5188
 1.8840	47.4585
 1.8830	47.4781
 1.8820	47.4520
 1.8810	47.5135
 1.8800	47.3960
 1.8790	47.4357
 1.8780	47.2838
 1.8770	47.2466
 1.8760	47.2107
 1.8750	47.2484
 1.8740	47.1477
 1.8730	47.1312
 1.8720	47.0011
 1.8710	46.9988
 1.8700	46.9096
 1.8690	46.9087
 1.8680	46.8167
 1.8670	46.8362
 1.8660	46.8176
 1.8650	46.7609
 1.8640	46.7443
 1.8630	46.7664
 1.8620	46.7208
 1.8610	46.6981
 1.8600	46.5705
 1.8590	46.5272
 1.8580	46.4734
 1.8570	46.4916
 1.8560	46.4178
 1.8550	46.4542
 1.8540	46.3449
 1.8530	46.3346
 1.8520	46.2060
 1.8510	46.2213
 1.8500	46.2020
 1.8490	46.1505
 1.8480	46.0914
 1.8470	46.0079
 1.8460	45.9643
 1.8450	45.9683
 1.8440	45.8987
 1.8430	45.9109
 1.8420	45.8009
 1.8410	45.7594
 1.8400	45.7086
 1.8390	45.6613
 1.8380	45.5775
 1.8370	45.5382
 1.8360	45.4705
 1.8350	45.4758
 1.8340	45.4686
 1.8330	45.4103
 1.8320	45.3562
 1.8310	45.2976
 1.8300	45.1724
 1.8290	45.1653
 1.8280	45.1029
 1.8270	45.1069
 1.8260	45.0412
 1.8250	45.0271
 1.8240	44.8995
 1.8230	44.8939
 1.8220	44.8793
 1.8210	44.8253
 1.8200	44.7442
 1.8190	44.7563
 1.8180	44.6524
 1.8170	44.6085
 1.8160	44.5378
 1.8150	44.4975
 1.8140	44.4527
 1.8130	44.3851
 1.8120	44.3698
 1.8110	44.3301
 1.8100	44.1994
 1.8090	44.2098
 1.8080	44.1986
 1.8070	44.1137
 1.8060	44.0318
 1.8050	44.0296
 1.8040	43.9778
 1.8030	43.9103
 1.8020	43.8639
 1.8010	43.8644
 1.8000	43.7849
 1.7990	43.7062
 1.7980	43.6413
 1.7970	43.6182
 1.7960	43.5115
 1.7950	43.4378
 1.7940	43.4179
 1.7930	43.3806
 1.7920	43.3397
 1.7910	43.3106
 1.7900	43.2026
 1.7890	43.1062
 1.7880	43.0783
 1.7870	43.0521
 1.7860	43.0626
 1.7850	42.9574
 1.7840	42.8199
 1.7830	42.7625
 1.7820	42.7344
 1.7810	42.6979
 1.7800	42.6053
 1.7790	42.5535
 1.7780	42.5416
 1.7770	42.4650
 1.7760	42.4181
 1.7750	42.3581
 1.7740	42.2384
 1.7730	42.1714
 1.7720	42.1688
 1.7710	42.1040
 1.7700	42.0627
 1.7690	42.0141
 1.7680	41.9445
 1.7670	41.8434
 1.7660	41.7687
 1.7650	41.6955
 1.7640	41.6895
 1.7630	41.6766
 1.7620	41.5759
 1.7610	41.5560
 1.7600	41.5252
 1.7590	41.3974
 1.7580	41.3119
 1.7570	41.2500
 1.7560	41.3030
 1.7550	41.2496
 1.7540	41.1725
 1.7530	41.0692
 1.7520	41.0451
 1.7510	41.0088
 1.7500	40.9509
 1.7490	40.8721
 1.7480	40.8277
 1.7470	40.7491
 1.7460	40.7130
 1.7450	40.6201
 1.7440	40.6458
 1.7430	40.5765
 1.7420	40.4823
 1.7410	40.3957
 1.7400	40.3508
 1.7390	40.2239
 1.7380	40.1727
 1.7370	40.1081
 1.7360	40.0638
 1.7350	40.0088
 1.7340	39.9824
 1.7330	39.8850
 1.7320	39.8358
 1.7310	39.7511
 1.7300	39.6913
 1.7290	39.6706
 1.7280	39.6985
 1.7270	39.5642
 1.7260	39.5131
 1.7250	39.4493
 1.7240	39.4600
 1.7230	39.3138
 1.7220	39.2949
 1.7210	39.1551
 1.7200	39.2110
 1.7190	39.0652
 1.7180	39.0872
 1.7170	38.9775
 1.7160	38.9250
 1.7150	38.8143
 1.7140	38.8085
 1.7130	38.7381
 1.7120	38.6365
 1.7110	38.5617
 1.7100	38.5547
 1.7090	38.4176
 1.7080	38.3899
 1.7070	38.3365
 1.7060	38.1982
 1.7050	38.1545
 1.7040	38.1866
 1.7030	37.9953
 1.7020	38.0369
 1.7010	37.8799
 1.7000	37.8850
 1.6990	37.7594
 1.6980	37.7302
 1.6970	37.6455
 1.6960	37.6377
 1.6950	37.5178
 1.6940	37.5056
 1.6930	37.3627
 1.6920	37.3489
 1.6910	37.2659
 1.6900	37.3037
 1.6890	37.1198
 1.6880	37.0964
 1.6870	37.0240
 1.6860	37.0467
 1.6850	36.9527
 1.6840	36.8702
 1.6830	36.7189
 1.6820	36.7571
 1.6810	36.6053
 1.6800	36.6119
 1.6790	36.4826
 1.6780	36.5314
 1.6770	36.3130
 1.6760	36.3099
 1.6750	36.2355
 1.6740	36.2036
 1.6730	36.0741
 1.6720	36.1350
 1.6710	35.9266
 1.6700	36.0411
 1.6690	36.0613
 1.6680	35.7101
 1.6670	35.7699
 1.6660	35.6784
 1.6650	35.6567
 1.6640	35.5787
 1.6630	35.3927
 1.6620	35.5051
 1.6610	35.3425
 1.6600	35.2984
 1.6590	35.2287
 1.6580	35.2609
 1.6570	34.9967
 1.6560	35.0257
 1.6550	34.9231
 1.6540	34.9173
 1.6530	34.7676
 1.6520	34.8674
 1.6510	34.6712
 1.6500	34.6189
 1.6490	34.5413
 1.6480	34.4611
 1.6470	34.4408
 1.6460	34.4426
 1.6450	34.2316
 1.6440	34.2550
 1.6430	34.1711
 1.6420	34.1405
 1.6410	33.9147
 1.6400	34.0863
 1.6390	33.8212
 1.6380	33.8806
 1.6370	33.6708
 1.6360	33.6975
 1.6350	33.6207
 1.6340	33.6692
 1.6330	33.4136
 1.6320	33.5578
 1.6310	33.3240
 1.6300	33.3625
 1.6290	33.1601
 1.6280	33.2323
 1.6270	33.1072
 1.6260	32.9959
 1.6250	32.9902
 1.6240	32.9101
 1.6230	32.7818
 1.6220	32.7152
 1.6210	32.6288
 1.6200	32.7302
 1.6190	32.4789
 1.6180	32.5253
 1.6170	32.4308
 1.6160	32.3695
 1.6150	32.2612
 1.6140	32.1923
 1.6130	32.1703
 1.6120	32.1217
 1.6110	31.9665
 1.6100	32.0416
 1.6090	31.8445
 1.6080	31.8317
 1.6070	31.6910
 1.6060	31.7186
 1.6050	31.6158
 1.6040	31.5788
 1.6030	31.4780
 1.6020	31.4276
 1.6010	31.3274
 1.6000	31.2465
 1.5990	31.2005
 1.5980	31.1321
 1.5970	31.0096
 1.5960	31.0133
 1.5950	30.9034
 1.5940	30.9004
 1.5930	30.7521
 1.5920	30.7019
 1.5910	30.5964
 1.5900	30.5931
 1.5890	30.4705
 1.5880	30.4161
 1.5870	30.2964
 1.5860	30.2625
 1.5850	30.1992
 1.5840	30.1994
 1.5830	30.0802
 1.5820	30.0375
 1.5810	29.8568
 1.5800	29.8358
 1.5790	29.7922
 1.5780	29.7388
 1.5770	29.6130
 1.5760	29.5797
 1.5750	29.4618
 1.5740	29.5253
 1.5730	29.3074
 1.5720	29.3214
 1.5710	29.2186
 1.5700	29.2037
 1.5690	29.0480
 1.5680	29.0572
 1.5670	28.9419
 1.5660	28.8874
 1.5650	28.7779
 1.5640	28.7659
 1.5630	28.6386
 1.5620	28.5867
 1.5610	28.5639
 1.5600	28.4899
 1.5590	28.3633
 1.5580	28.3529
 1.5570	28.2060
 1.5560	28.2080
 1.5550	28.1073
 1.5540	28.0639
 1.5530	27.9525
 1.5520	27.9108
 1.5510	27.7924
 1.5500	27.7748
 1.5490	27.7095
 1.5480	27.6293
 1.5470	27.4778
 1.5460	27.5151
 1.5450	27.4279
 1.5440	27.3233
 1.5430	27.2407
 1.5420	27.1440
 1.5410	27.0955
 1.5400	27.0816
 1.5390	26.9677
 1.5380	26.8656
 1.5370	26.7993
 1.5360	26.8235
 1.5350	26.7085
 1.5340	26.6311
 1.5330	26.5331
 1.5320	26.5291
 1.5310	26.4342
 1.5300	26.3740
 1.5290	26.3020
 1.5280	26.2230
 1.5270	26.1365
 1.5260	26.0712
 1.5250	25.9760
 1.5240	25.9645
 1.5230	25.9093
 1.5220	25.8715
 1.5210	25.7668
 1.5200	25.6937
 1.5190	25.6408
 1.5180	25.5832
 1.5170	25.4775
 1.5160	25.4090
 1.5150	25.3734
 1.5140	25.2966
 1.5130	25.2141
 1.5120	25.1470
 1.5110	25.0372
 1.5100	25.0145
 1.5090	24.9651
 1.5080	24.8433
 1.5070	24.7891
 1.5060	24.7298
 1.5050	24.6470
 1.5040	24.5887
 1.5030	24.5037
 1.5020	24.4629
 1.5010	24.4653
 1.5000	24.3316
 1.4990	24.1909
 1.4980	24.1457
 1.4970	24.0776
 1.4960	23.9969
 1.4950	23.9444
 1.4940	23.8623
 1.4930	23.7819
 1.4920	23.7199
 1.4910	23.6710
 1.4900	23.6158
 1.4890	23.5421
 1.4880	23.4466
 1.4870	23.3924
 1.4860	23.3083
 1.4850	23.2478
 1.4840	23.2186
 1.4830	23.1821
 1.4820	23.0340
 1.4810	22.9376
 1.4800	22.8460
 1.4790	22.8291
 1.4780	22.7581
 1.4770	22.7368
 1.4760	22.5955
 1.4750	22.5299
 1.4740	22.5411
 1.4730	22.4486
 1.4720	22.3141
 1.4710	22.2990
 1.4700	22.2286
 1.4690	22.1955
 1.4680	22.1114
 1.4670	22.0457
 1.4660	21.9573
 1.4650	21.8938
 1.4640	21.8009
 1.4630	21.7403
 1.4620	21.6558
 1.4610	21.6106
 1.4600	21.5179
 1.4590	21.4802
 1.4580	21.3682
 1.4570	21.3175
 1.4560	21.2552
 1.4550	21.2211
 1.4540	21.1210
 1.4530	21.0781
 1.4520	21.0377
 1.4510	20.9630
 1.4500	20.8526
 1.4490	20.8002
 1.4480	20.6839
 1.4470	20.7057
 1.4460	20.5887
 1.4450	20.5384
 1.4440	20.4518
 1.4430	20.4199
 1.4420	20.3354
 1.4410	20.2658
 1.4400	20.1548
 1.4390	20.1432
 1.4380	20.0599
 1.4370	20.0160
 1.4360	19.9333
 1.4350	19.9094
 1.4340	19.7658
 1.4330	19.7686
 1.4320	19.6050
 1.4310	19.6765
 1.4300	19.4946
 1.4290	19.4813
 1.4280	19.3800
 1.4270	19.3501
 1.4260	19.2077
 1.4250	19.2453
 1.4240	19.1846
 1.4230	19.0867
 1.4220	18.9836
 1.4210	19.0426
 1.4200	18.8310
 1.4190	18.7694
 1.4180	18.6314
 1.4170	18.6134
 1.4160	18.5630
 1.4150	18.4918
 1.4140	18.2376
 1.4130	18.2285
 1.4120	18.0455
 1.4110	18.1295
 1.4100	17.9263
 1.4090	17.8270
 1.4080	17.5943
 1.4070	17.6322
 1.4060	17.4791
 1.4050	17.4064
 1.4040	17.2703
 1.4030	17.2590
 1.4020	17.0566
 1.4010	17.0131
 1.4000	16.8657
 1.3990	16.8775
 1.3980	16.7022
 1.3970	16.8510
 1.3960	16.7025
 1.3950	16.6640
 1.3940	16.5297
 1.3930	16.4978
 1.3920	16.5047
 1.3910	16.6056
 1.3900	16.5783
 1.3890	16.5978
 1.3880	16.4528
 1.3870	16.4411
 1.3860	16.3972
 1.3850	16.4773
 1.3840	16.3990
 1.3830	16.4532
 1.3820	16.2197
 1.3810	16.3016
 1.3800	16.2081
 1.3790	16.3715
 1.3780	16.1568
 1.3770	16.2905
 1.3760	16.2009
 1.3750	16.1367
 1.3740	15.9873
 1.3730	16.0639
 1.3720	15.9159
 1.3710	15.9442
 1.3700	15.7751
 1.3690	15.8292
 1.3680	15.6653
 1.3670	15.6926
 1.3660	15.5759
 1.3650	15.4884
 1.3640	15.3935
 1.3630	15.4850
 1.3620	15.2645
 1.3610	15.2070
 1.3600	15.1561
 1.3590	15.2361
 1.3580	15.0595
 1.3570	15.1972
 1.3560	15.0361
 1.3550	14.7977
 1.3540	14.8434
 1.3530	14.9013
 1.3520	14.7110
 1.3510	14.7654
 1.3500	14.5893
 1.3490	14.6046
 1.3480	14.4859
 1.3470	14.6228
 1.3460	14.3265
 1.3450	14.4117
 1.3440	14.3315
 1.3430	14.3877
 1.3420	14.1201
 1.3410	14.2209
 1.3400	14.0990
 1.3390	14.1561
 1.3380	14.0017
 1.3370	14.0584
 1.3360	13.8600
 1.3350	13.9376
 1.3340	13.7957
 1.3330	13.7897
 1.3320	13.6809
 1.3310	13.7095
 1.3300	13.4896
 1.3290	13.5921
 1.3280	13.4056
 1.3270	13.5088
 1.3260	13.3153
 1.3250	13.3640
 1.3240	13.2423
 1.3230	13.3503
 1.3220	13.1612
 1.3210	13.2116
 1.3200	13.0564
 1.3190	13.1497
 1.3180	13.0556
 1.3170	12.9338
 1.3160	12.9262
 1.3150	12.8117
 1.3140	12.8128
 1.3130	12.7676
 1.3120	12.6921
 1.3110	12.6956
 1.3100	12.5718
 1.3090	12.6364
 1.3080	12.5452
 1.3070	12.4846
 1.3060	12.4021
 1.3050	12.3929
 1.3040	12.3377
 1.3030	12.2928
 1.3020	12.1455
 1.3010	12.1926
 1.3000	11.9967
 1.2990	12.1249
 1.2980	12.0333
 1.2970	11.9946
 1.2960	11.8736
 1.2950	11.9386
 1.2940	11.8139
 1.2930	11.7951
 1.2920	11.7500
 1.2910	11.6801
 1.2900	11.6488
 1.2890	11.6470
 1.2880	11.5620
 1.2870	11.6055
 1.2860	11.4928
 1.2850	11.4704
 1.2840	11.4124
 1.2830	11.3779
 1.2820	11.2666
 1.2810	11.3012
 1.2800	11.2028
 1.2790	11.2382
 1.2780	11.1521
 1.2770	11.1706
 1.2760	11.1208
 1.2750	11.0656
 1.2740	10.9290
 1.2730	10.9978
 1.2720	10.9062
 1.2710	10.8762
 1.2700	10.8093
 1.2690	10.8119
 1.2680	10.6822
 1.2670	10.7381
 1.2660	10.6828
 1.2650	10.5989
 1.2640	10.5838
 1.2630	10.5557
 1.2620	10.5105
 1.2610	10.4933
 1.2600	10.4067
 1.2590	10.3998
 1.2580	10.3336
 1.2570	10.3176
 1.2560	10.2399
 1.2550	10.2505
 1.2540	10.1819
 1.2530	10.1650
 1.2520	10.0940
 1.2510	10.1778
 1.2500	10.1067
 1.2490	10.0328
 1.2480	 9.9941
 1.2470	 9.9576
 1.2460	 9.8236
 1.2450	 9.8833
 1.2440	 9.8691
 1.2430	 9.8226
 1.2420	 9.7525
 1.2410	 9.7951
 1.2400	 9.7452
 1.2390	 9.7138
 1.2380	 9.6798
 1.2370	 9.5863
 1.2360	 9.5708
 1.2350	 9.5892
 1.2340	 9.5188
 1.2330	 9.4960
 1.2320	 9.4680
 1.2310	 9.4388
 1.2300	 9.3752
 1.2290	 9.3421
 1.2280	 9.3182
 1.2270	 9.2771
 1.2260	 9.2247
 1.2250	 9.2314
 1.2240	 9.2178
 1.2230	 9.1588
 1.2220	 9.1119
 1.2210	 9.0873
 1.2200	 9.1205
 1.2190	 9.1264
 1.2180	 9.0099
 1.2170	 8.9931
 1.2160	 8.9836
 1.2150	 8.9152
 1.2140	 8.8836
 1.2130	 8.8926
 1.2120	 8.8707
 1.2110	 8.7988
 1.2100	 8.7741
 1.2090	 8.7567
 1.2080	 8.7565
 1.2070	 8.7180
 1.2060	 8.6943
 1.2050	 8.6864
 1.2040	 8.6785
 1.2030	 8.6548
 1.2020	 8.5686
 1.2010	 8.4864
 1.2000	 8.5490
 1.1990	 8.5466
 1.1980	 8.5454
 1.1970	 8.4895
 1.1960	 8.4164
 1.1950	 8.3858
 1.1940	 8.3934
 1.1930	 8.3499
 1.1920	 8.3175
 1.1910	 8.2728
 1.1900	 8.3327
 1.1890	 8.3918
 1.1880	 8.2137
 1.1870	 8.2374
 1.1860	 8.2484
 1.1850	 8.1173
 1.1840	 8.1543
 1.1830	 8.1026
 1.1820	 8.1330
 1.1810	 8.0257
 1.1800	 8.0416
 1.1790	 7.9888
 1.1780	 7.9605
 1.1770	 7.9459
 1.1760	 7.9722
 1.1750	 7.9609
 1.1740	 7.9425
 1.1730	 7.8642
 1.1720	 7.9291
 1.1710	 7.8733
 1.1700	 7.8896
 1.1690	 7.8560
 1.1680	 7.8428
 1.1670	 7.8099
 1.1660	 7.7960
 1.1650	 7.7306
 1.1640	 7.7754
 1.1630	 7.7269
 1.1620	 7.6655
 1.1610	 7.5872
 1.1600	 7.6545
 1.1590	 7.6051
 1.1580	 7.6667
 1.1570	 7.5680
 1.1560	 7.5351
 1.1550	 7.4796
 1.1540	 7.5420
 1.1530	 7.5081
 1.1520	 7.5745
 1.1510	 7.4278
 1.1500	 7.5016
 1.1490	 7.3818
 1.1480	 7.4163
 1.1470	 7.3693
 1.1460	 7.3889
 1.1450	 7.3552
 1.1440	 7.3588
 1.1430	 7.3259
 1.1420	 7.2802
 1.1410	 7.3065
 1.1400	 7.2950
 1.1390	 7.2376
 1.1380	 7.2991
 1.1370	 7.2709
 1.1360	 7.2682
 1.1350	 7.2164
 1.1340	 7.2097
 1.1330	 7.1505
 1.1320	 7.1675
 1.1310	 7.0904
 1.1300	 7.1354
 1.1290	 7.0163
 1.1280	 7.0956
 1.1270	 7.0691
 1.1260	 7.0414
 1.1250	 7.0076
 1.1240	 7.1169
 1.1230	 7.0028
 1.1220	 7.0387
 1.1210	 6.9110
 1.1200	 7.0187
 1.1190	 6.8831
 1.1180	 6.9413
 1.1170	 6.8469
 1.1160	 6.9680
 1.1150	 6.7438
 1.1140	 6.9280
 1.1130	 6.7980
 1.1120	 6.9161
 1.1110	 6.7846
 1.1100	 6.8811
 1.1090	 6.7913
 1.1080	 6.8381
 1.1070	 6.7625
 1.1060	 6.8126
 1.1050	 6.6472
 1.1040	 6.7794
 1.1030	 6.6475
 1.1020	 6.7856
 1.1010	 6.6664
 1.1000	 6.7825
 1.0990	 6.6428
 1.0980	 6.7079
 1.0970	 6.5496
 1.0960	 6.7512
 1.0950	 6.4812
 1.0940	 6.6376
 1.0930	 6.5773
 1.0920	 6.6002
 1.0910	 6.5284
 1.0900	 6.5168
 1.0890	 6.5639
 1.0880	 6.4578
 1.0870	 6.4812
 1.0860	 6.5049
 1.0850	 6.3882
 1.0840	 6.5289
 1.0830	 6.4890
 1.0820	 6.4731
 1.0810	 6.3734
 1.0800	 6.4951
 1.0790	 6.4079
 1.0780	 6.5527
 1.0770	 6.2871
 1.0760	 6.4362
 1.0750	 6.2667
 1.0740	 6.3494
 1.0730	 6.2916
 1.0720	 6.3369
 1.0710	 6.2914
 1.0700	 6.1678
 1.0690	 6.3238
 1.0680	 6.2940
 1.0670	 6.2875
 1.0660	 6.2993
 1.0650	 6.1888
 1.0640	 6.3460
 1.0630	 6.1395
 1.0620	 6.2485
 1.0610	 6.0993
 1.0600	 6.1976
 1.0590	 6.0790
 1.0580	 6.1142
 1.0570	 6.1397
 1.0560	 6.2186
 1.0550	 5.9983
 1.0540	 6.1359
 1.0530	 6.0402
 1.0520	 6.1436
 1.0510	 5.9907
 1.0500	 6.0718
 1.0490	 5.9587
 1.0480	 6.0033
 1.0470	 5.9232
 1.0460	 6.0337
 1.0450	 5.9662
 1.0440	 6.0240
 1.0430	 5.8484
 1.0420	 5.9882
 1.0410	 5.8999
 1.0400	 5.9112
 1.0390	 5.8678
 1.0380	 6.0324
 1.0370	 5.8078
 1.0360	 5.8770
 1.0350	 5.8010
 1.0340	 5.8696
 1.0330	 5.8029
 1.0320	 5.8188
 1.0310	 5.7904
 1.0300	 5.8867
 1.0290	 5.7525
 1.0280	 5.7556
 1.0270	 5.6547
 1.0260	 5.7335
 1.0250	 5.6697
 1.0240	 5.6457
 1.0230	 5.6000
 1.0220	 5.7330
 1.0210	 5.5997
 1.0200	 5.6360
 1.0190	 5.5659
 1.0180	 5.6346
 1.0170	 5.5123
 1.0160	 5.6376
 1.0150	 5.5009
 1.0140	 5.5587
 1.0130	 5.4436
 1.0120	 5.5219
 1.0110	 5.4413
 1.0100	 5.4819
 1.0090	 5.4500
 1.0080	 5.4823
 1.0070	 5.3801
 1.0060	 5.4275
 1.0050	 5.3833
 1.0040	 5.4307
 1.0030	 5.3836
 1.0020	 5.4284
 1.0010	 5.2243
 1.0000	 5.3186
 0.9990	 5.2968
 0.9980	 5.3327
 0.9970	 5.2519
 0.9960	 5.2778
 0.9950	 5.1852
 0.9940	 5.2583
 0.9930	 5.2223
 0.9920	 5.2379
 0.9910	 5.2373
 0.9900	 5.2097
 0.9890	 5.1655
 0.9880	 5.1830
 0.9870	 5.1040
 0.9860	 5.1292
 0.9850	 5.1021
 0.9840	 5.0926
 0.9830	 5.0474
 0.9820	 5.1128
 0.9810	 4.9980
 0.9800	 5.0772
 0.9790	 4.9632
 0.9780	 5.0141
 0.9770	 5.0054
 0.9760	 4.9218
 0.9750	 4.9142
 0.9740	 4.9973
 0.9730	 4.9162
 0.9720	 4.8798
 0.9710	 4.8418
 0.9700	 4.8486
 0.9690	 4.8014
 0.9680	 4.8624
 0.9670	 4.8320
 0.9660	 4.7999
 0.9650	 4.7620
 0.9640	 4.8170
 0.9630	 4.7412
 0.9620	 4.7296
 0.9610	 4.7192
 0.9600	 4.7539
 0.9590	 4.6867
 0.9580	 4.7086
 0.9570	 4.6385
 0.9560	 4.6477
 0.9550	 4.6292
 0.9540	 4.6488
 0.9530	 4.6041
 0.9520	 4.6409
 0.9510	 4.5768
 0.9500	 4.5714
 0.9490	 4.5928
 0.9480	 4.5376
 0.9470	 4.4966
 0.9460	 4.5595
 0.9450	 4.5201
 0.9440	 4.4695
 0.9430	 4.4673
 0.9420	 4.4775
 0.9410	 4.4485
 0.9400	 4.4672
 0.9390	 4.4401
 0.9380	 4.4117
 0.9370	 4.4090
 0.9360	 4.3913
 0.9350	 4.3971
 0.9340	 4.4400
 0.9330	 4.3890
 0.9320	 4.3484
 0.9310	 4.3433
 0.9300	 4.2886
 0.9290	 4.2894
 0.9280	 4.2756
 0.9270	 4.3039
 0.9260	 4.3412
 0.9250	 4.3381
 0.9240	 4.2999
 0.9230	 4.2505
 0.9220	 4.1803
 0.9210	 4.2160
 0.9200	 4.2154
 0.9190	 4.2021
 0.9180	 4.2403
 0.9170	 4.2675
 0.9160	 4.2277
 0.9150	 4.1761
 0.9140	 4.1732
 0.9130	 4.1376
 0.9120	 4.1087
 0.9110	 4.1301
 0.9100	 4.0998
 0.9090	 4.1457
 0.9080	 4.1592
 0.9070	 4.1494
 0.9060	 4.0754
 0.9050	 4.1026
 0.9040	 4.0913
 0.9030	 4.0872
 0.9020	 4.0398
 0.9010	 4.0857
 0.9000	 4.0461
 0.8990	 4.0704
 0.8980	 3.9705
 0.8970	 4.0451
 0.8960	 4.0609
 0.8950	 4.0649
 0.8940	 4.0590
 0.8930	 4.0700
 0.8920	 3.9577
 0.8910	 3.9922
 0.8900	 4.0157
 0.8890	 4.0362
 0.8880	 3.9564
 0.8870	 3.9834
 0.8860	 3.9677
 0.8850	 3.9694
 0.8840	 3.9047
 0.8830	 3.9926
 0.8820	 3.9671
 0.8810	 4.0052
 0.8800	 3.9380
 0.8790	 4.0059
 0.8780	 3.9275
 0.8770	 3.9295
 0.8760	 3.8849
 0.8750	 3.9575
 0.8740	 3.9801
 0.8730	 3.9614
 0.8720	 3.8460
 0.8710	 3.9472
 0.8700	 3.8814
 0.8690	 3.9738
 0.8680	 3.8925
 0.8670	 3.9144
 0.8660	 3.8703
 0.8650	 3.9059
 0.8640	 3.8554
 0.8630	 3.8844
 0.8620	 3.7715
 0.8610	 3.8894
 0.8600	 4.1656
 0.8590	 4.2398
 0.8580	 4.2360
 0.8570	 4.2268
 0.8560	 4.2207
 0.8550	 4.2155
 0.8540	 4.2094
 0.8530	 4.2196
 0.8520	 4.2125
 0.8510	 4.2121
 0.8500	 4.2062
 0.8490	 4.2030
 0.8480	 4.1914
 0.8470	 4.1830
 0.8460	 4.1917
 0.8450	 4.1871
 0.8440	 4.1892
 0.8430	 4.1834
 0.8420	 4.1739
 0.8410	 4.1785
 0.8400	 4.1673
 0.8390	 4.1657
 0.8380	 4.1583
 0.8370	 4.1567
 0.8360	 4.1486
 0.8350	 4.1437
 0.8340	 4.1413
 0.8330	 4.1386
 0.8320	 4.1390
 0.8310	 4.1309
 0.8300	 4.1294
 0.8290	 4.1268
 0.8280	 4.1189
 0.8270	 4.1194
 0.8260	 4.1123
 0.8250	 4.1087
 0.8240	 4.0986
 0.8230	 4.1054
 0.8220	 4.0943
 0.8210	 4.0885
 0.8200	 4.0933
 0.8190	 4.0830
 0.8180	 4.0803
 0.8170	 4.0753
 0.8160	 4.0701
 0.8150	 4.0606
 0.8140	 4.0615
 0.8130	 4.0486
 0.8120	 4.0432
 0.8110	 4.0406
 0.8100	 4.0239
 0.8090	 4.0296
 0.8080	 4.0186
 0.8070	 4.0215
 0.8060	 4.0183
 0.8050	 4.0137
 0.8040	 4.0030
 0.8030	 3.9985
 0.8020	 3.9956
 0.8010	 3.9876
 0.8000	 3.9813
 0.7990	 3.9705
 0.7980	 3.9664
 0.7970	 3.9657
 0.7960	 3.9483
 0.7950	 3.9461
 0.7940	 3.9339
 0.7930	 3.9298
 0.7920	 3.9234
 0.7910	 3.9174
 0.7900	 3.9099
 0.7890	 3.8970
 0.7880	 3.8997
 0.7870	 3.8883
 0.7860	 3.8831
 0.7850	 3.8743
 0.7840	 3.8621
 0.7830	 3.8630
 0.7820	 3.8560
 0.7810	 3.8465
 0.7800	 3.8344
 0.7790	 3.8284
 0.7780	 3.8210
 0.7770	 3.8173
 0.7760	 3.8071
 0.7750	 3.7984
 0.7740	 3.7889
 0.7730	 3.7837
 0.7720	 3.7832
 0.7710	 3.7703
 0.7700	 3.7640
 0.7690	 3.7535
 0.7680	 3.7494
 0.7670	 3.7399
 0.7660	 3.7337
 0.7650	 3.7292
 0.7640	 3.7255
 0.7630	 3.7166
 0.7620	 3.7094
 0.7610	 3.7022
 0.7600	 3.6913
 0.7590	 3.6887
 0.7580	 3.6825
 0.7570	 3.6785
 0.7560	 3.6700
 0.7550	 3.6699
 0.7540	 3.6600
 0.7530	 3.6548
 0.7520	 3.6493
 0.7510	 3.6401
 0.7500	 3.6350
 0.7490	 3.6309
 0.7480	 3.6205
 0.7470	 3.6141
 0.7460	 3.6128
 0.7450	 3.6048
 0.7440	 3.5973
 0.7430	 3.5912
 0.7420	 3.5858
 0.7410	 3.5801
 0.7400	 3.5769
 0.7390	 3.5715
 0.7380	 3.5642
 0.7370	 3.5587
 0.7360	 3.5549
 0.7350	 3.5513
 0.7340	 3.5442
 0.7330	 3.5386
 0.7320	 3.5324
 0.7310	 3.5301
 0.7300	 3.5246
 0.7290	 3.5195
 0.7280	 3.5158
 0.7270	 3.5102
 0.7260	 3.5072
 0.7250	 3.5037
 0.7240	 3.4978
 0.7230	 3.4922
 0.7220	 3.4874
 0.7210	 3.4839
 0.7200	 3.4813
 0.7190	 3.4785
 0.7180	 3.4752
 0.7170	 3.4678
 0.7160	 3.4652
 0.7150	 3.4630
 0.7140	 3.4593
 0.7130	 3.4530
 0.7120	 3.4505
 0.7110	 3.4480
 0.7100	 3.4426
 0.7090	 3.4379
 0.7080	 3.4370
 0.7070	 3.4333
 0.7060	 3.4317
 0.7050	 3.4281
 0.7040	 3.4244
 0.7030	 3.4215
 0.7020	 3.4174
 0.7010	 3.4139
 0.7000	 3.4109
 0.6990	 3.4075
 0.6980	 3.4056
 0.6970	 3.4037
 0.6960	 3.3982
 0.6950	 3.3947
 0.6940	 3.3964
 0.6930	 3.3925
 0.6920	 3.3900
 0.6910	 3.3872
 0.6900	 3.3841
 0.6890	 3.3824
 0.6880	 3.3821
 0.6870	 3.3805
 0.6860	 3.3759
 0.6850	 3.3729
 0.6840	 3.3720
 0.6830	 3.3695
 0.6820	 3.3658
 0.6810	 3.3657
 0.6800	 3.3660
 0.6790	 3.3653
 0.6780	 3.3627
 0.6770	 3.3602
 0.6760	 3.3586
 0.6750	 3.3587
 0.6740	 3.3574
 0.6730	 3.3564
 0.6720	 3.3559
 0.6710	 3.3542
 0.6700	 3.3532
 0.6690	 3.3509
 0.6680	 3.3487
 0.6670	 3.3479
 0.6660	 3.3488
 0.6650	 3.3497
 0.6640	 3.3467
 0.6630	 3.3444
 0.6620	 3.3419
 0.6610	 3.3447
 0.6600	 3.3445
 0.6590	 3.3395
 0.6580	 3.3417
 0.6570	 3.3416
 0.6560	 3.3413
 0.6550	 3.3414
 0.6540	 3.3406
 0.6530	 3.3406
 0.6520	 3.3423
 0.6510	 3.3414
 0.6500	 3.3394
 0.6490	 3.3399
 0.6480	 3.3388
 0.6470	 3.3400
 0.6460	 3.3432
 0.6450	 3.3424
 0.6440	 3.3420
 0.6430	 3.3426
 0.6420	 3.3425
 0.6410	 3.3433
 0.6400	 3.3441
 0.6390	 3.3440
 0.6380	 3.3433
 0.6370	 3.3437
 0.6360	 3.3447
 0.6350	 3.3442
 0.6340	 3.3454
 0.6330	 3.3474
 0.6320	 3.3471
 0.6310	 3.3480
 0.6300	 3.3504
 0.6290	 3.3505
 0.6280	 3.3525
 0.6270	 3.3524
 0.6260	 3.3531
 0.6250	 3.3556
 0.6240	 3.3572
 0.6230	 3.3601
 0.6220	 3.3607
 0.6210	 3.3603
 0.6200	 3.3632
 0.6190	 3.3662
 0.6180	 3.3668
 0.6170	 3.3674
 0.6160	 3.3691
 0.6150	 3.3711
 0.6140	 3.3717
 0.6130	 3.3733
 0.6120	 3.3746
 0.6110	 3.3780
 0.6100	 3.3799
 0.6090	 3.3810
 0.6080	 3.3824
 0.6070	 3.3848
 0.6060	 3.3874
 0.6050	 3.3885
 0.6040	 3.3896
 0.6030	 3.3942
 0.6020	 3.3960
 0.6010	 3.3961
 0.6000	 3.3969
 0.5990	 3.4001
 0.5980	 3.4044
 0.5970	 3.4079
 0.5960	 3.4106
 0.5950	 3.4136
 0.5940	 3.4167
 0.5930	 3.4192
 0.5920	 3.4219
 0.5910	 3.4247
 0.5900	 3.4282
 0.5890	 3.4312
 0.5880	 3.4326
 0.5870	 3.4348
 0.5860	 3.4383
 0.5850	 3.4410
 0.5840	 3.4428
 0.5830	 3.4479
 0.5820	 3.4511
 0.5810	 3.4524
 0.5800	 3.4563
 0.5790	 3.4592
 0.5780	 3.4611
 0.5770	 3.4654
 0.5760	 3.4660
 0.5750	 3.4700
 0.5740	 3.4727
 0.5730	 3.4748
 0.5720	 3.4793
 0.5710	 3.4831
 0.5700	 3.4860
 0.5690	 3.4895
 0.5680	 3.4921
 0.5670	 3.4953
 0.5660	 3.4988
 0.5650	 3.5022
 0.5640	 3.5048
 0.5630	 3.5078
 0.5620	 3.5101
 0.5610	 3.5167
 0.5600	 3.5235
 0.5590	 3.5258
 0.5580	 3.5278
 0.5570	 3.5331
 0.5560	 3.5363
 0.5550	 3.5407
 0.5540	 3.5440
 0.5530	 3.5478
 0.5520	 3.5502
 0.5510	 3.5548
 0.5500	 3.5581
 0.5490	 3.5623
 0.5480	 3.5668
 0.5470	 3.5694
 0.5460	 3.5722
 0.5450	 3.5752
 0.5440	 3.5800
 0.5430	 3.5827
 0.5420	 3.5841
 0.5410	 3.5917
 0.5400	 3.5940
 0.5390	 3.5988
 0.5380	 3.6010
 0.5370	 3.6076
 0.5360	 3.6095
 0.5350	 3.6131
 0.5340	 3.6180
 0.5330	 3.6208
 0.5320	 3.6233
 0.5310	 3.6273
 0.5300	 3.6302
 0.5290	 3.6320
 0.5280	 3.6374
 0.5270	 3.6415
 0.5260	 3.6474
 0.5250	 3.6490
 0.5240	 3.6539
 0.5230	 3.6561
 0.5220	 3.6582
 0.5210	 3.6623
 0.5200	 3.6652
 0.5190	 3.6703
 0.5180	 3.6742
 0.5170	 3.6773
 0.5160	 3.6805
 0.5150	 3.6862
 0.5140	 3.6877
 0.5130	 3.6922
 0.5120	 3.6933
 0.5110	 3.6951
 0.5100	 3.6980
 0.5090	 3.7025
 0.5080	 3.7049
 0.5070	 3.7084
 0.5060	 3.7077
 0.5050	 3.7114
 0.5040	 3.7146
 0.5030	 3.7229
 0.5020	 3.7195
 0.5010	 3.7221
 0.5000	 3.7226
 0.4990	 3.7269
 0.4980	 3.7269
 0.4970	 3.7313
 0.4960	 3.7359
 0.4950	 3.7370
 0.4940	 3.7383
 0.4930	 3.7389
 0.4920	 3.7397
 0.4910	 3.7429
 0.4900	 3.7501
 0.4890	 3.7518
 0.4880	 3.7549
 0.4870	 3.7615
 0.4860	 3.7625
 0.4850	 3.7648
 0.4840	 3.7693
 0.4830	 3.7694
 0.4820	 3.7695
 0.4810	 3.7691
 0.4800	 3.7673
 0.4790	 3.7630
 0.4780	 3.7608
 0.4770	 3.7570
 0.4760	 3.7574
 0.4750	 3.7572
 0.4740	 3.7523
 0.4730	 3.7527
 0.4720	 3.7528
 0.4710	 3.7471
 0.4700	 3.7468
 0.4690	 3.7446
 0.4680	 3.7416
 0.4670	 3.7416
 0.4660	 3.7380
 0.4650	 3.7359
 0.4640	 3.7356
 0.4630	 3.7326
 0.4620	 3.7300
 0.4610	 3.7312
 0.4600	 3.7241
 0.4590	 3.7233
 0.4580	 3.7228
 0.4570	 3.7215
 0.4560	 3.7182
 0.4550	 3.7192
 0.4540	 3.7196
 0.4530	 3.7163
 0.4520	 3.7137
 0.4510	 3.7107
 0.4500	 3.7100
 0.4490	 3.7086
 0.4480	 3.7030
 0.4470	 3.7023
 0.4460	 3.6988
 0.4450	 3.6996
 0.4440	 3.6987
 0.4430	 3.6932
 0.4420	 3.6947
 0.4410	 3.7006
 0.4400	 3.6997
 0.4390	 3.7039
 0.4380	 3.7068
 0.4370	 3.7111
 0.4360	 3.7144
 0.4350	 3.7201
 0.4340	 3.7195
 0.4330	 3.7162
 0.4320	 3.7155
 0.4310	 3.7148
 0.4300	 3.7134
 0.4290	 3.7142
 0.4280	 3.7113
 0.4270	 3.7107
 0.4260	 3.7059
 0.4250	 3.7079
 0.4240	 3.7071
 0.4230	 3.7059
 0.4220	 3.7007
 0.4210	 3.7021
 0.4200	 3.7005
 0.4190	 3.6979
 0.4180	 3.6971
 0.4170	 3.6970
 0.4160	 3.6970
 0.4150	 3.6990
 0.4140	 3.6977
 0.4130	 3.6952
 0.4120	 3.6958
 0.4110	 3.6950
 0.4100	 3.6945
 0.4090	 3.6964
 0.4080	 3.6982
 0.4070	 3.6975
 0.4060	 3.7007
 0.4050	 3.7033
 0.4040	 3.7033
 0.4030	 3.7061
 0.4020	 3.7108
 0.4010	 3.7122
 0.4000	 3.7167
