Name: Malachite Cu_2(CO_3)(OH)_2
Type: Mineral
Class: Carbonate
Subclass: None
Particle Size: Fine
Sample No.: C-7A
Owner: JPL
Wavelength Range: VSWIR
Origin: USA, California, San Bernadino County, Near Valley Wells
Collection Date: N/A
Description: Particle size was 0-45um.Collected by Burminco Original ASTER Spectral Library name was jpl.beckman.mineral.carbonate.none.fine.c07a.spectrum.txt
Measurement: Hemispherical reflectance
First Column: X
Second Column: Y
X Units: Wavelength (micrometers)
Y Units:Reflectance (percent)
First X Value:  0.4000
Last X Value:  2.5000
Number of X Values: 826
Additional Information: mineral.carbonate.none.fine.vswir.c-7a.jpl.beckman.ancillary.txt

 0.4000	33.0400
 0.4010	34.8000
 0.4020	35.5400
 0.4030	36.2300
 0.4040	36.8300
 0.4050	37.5800
 0.4060	38.1700
 0.4070	38.7100
 0.4080	39.3300
 0.4090	39.9600
 0.4100	40.5900
 0.4110	41.0800
 0.4120	41.6800
 0.4130	42.2300
 0.4140	42.6200
 0.4150	43.1600
 0.4160	43.6100
 0.4170	44.1200
 0.4180	44.5700
 0.4190	44.9200
 0.4200	45.4700
 0.4210	45.9200
 0.4220	46.2400
 0.4230	46.6300
 0.4240	46.9300
 0.4250	47.3200
 0.4260	47.7000
 0.4270	48.0600
 0.4280	48.4300
 0.4290	48.7200
 0.4300	48.9900
 0.4310	49.4100
 0.4320	49.7700
 0.4330	50.1300
 0.4340	50.3400
 0.4350	50.5900
 0.4360	50.8300
 0.4370	51.1300
 0.4380	51.5200
 0.4390	51.8000
 0.4400	52.0900
 0.4410	52.4500
 0.4420	52.7600
 0.4430	52.9700
 0.4440	53.3400
 0.4450	53.6400
 0.4460	53.9600
 0.4470	54.2500
 0.4480	54.5300
 0.4490	54.8500
 0.4500	55.2200
 0.4510	55.5000
 0.4520	55.7500
 0.4530	56.0900
 0.4540	56.3600
 0.4550	56.6400
 0.4560	57.1000
 0.4570	57.4000
 0.4580	57.8000
 0.4590	58.0100
 0.4600	58.0100
 0.4610	58.7800
 0.4620	59.2100
 0.4630	59.5900
 0.4640	59.9600
 0.4650	60.1600
 0.4660	60.4700
 0.4670	60.9100
 0.4680	61.1300
 0.4690	61.5700
 0.4700	61.9300
 0.4710	62.1700
 0.4720	62.4800
 0.4730	62.7900
 0.4740	63.1100
 0.4750	63.3900
 0.4760	63.5600
 0.4770	63.9300
 0.4780	64.1800
 0.4790	64.4700
 0.4800	64.8700
 0.4810	65.0800
 0.4820	65.3400
 0.4830	65.4500
 0.4840	65.7800
 0.4850	66.1400
 0.4860	66.4200
 0.4870	66.6300
 0.4880	66.7600
 0.4890	66.9500
 0.4900	67.3800
 0.4910	67.5100
 0.4920	67.7600
 0.4930	67.8000
 0.4940	67.9700
 0.4950	68.3600
 0.4960	68.4100
 0.4970	68.6300
 0.4980	68.7800
 0.4990	68.9200
 0.5000	69.1700
 0.5010	69.2900
 0.5020	69.4400
 0.5030	69.5200
 0.5040	69.6300
 0.5050	69.8100
 0.5060	69.9200
 0.5070	70.0800
 0.5080	70.1400
 0.5090	70.2000
 0.5100	70.3600
 0.5110	70.3900
 0.5120	70.5200
 0.5130	70.5700
 0.5140	70.5500
 0.5150	70.6500
 0.5160	70.6700
 0.5170	70.7900
 0.5180	70.8300
 0.5190	70.7400
 0.5200	70.8600
 0.5210	70.8000
 0.5220	70.8300
 0.5230	70.9700
 0.5240	70.8300
 0.5250	70.6800
 0.5260	70.5400
 0.5270	70.5800
 0.5280	70.5800
 0.5290	70.3700
 0.5300	70.3000
 0.5310	70.2300
 0.5320	70.0700
 0.5330	69.9500
 0.5340	69.7400
 0.5350	69.5600
 0.5360	69.4400
 0.5370	69.2500
 0.5380	69.1700
 0.5390	69.0200
 0.5400	68.8000
 0.5410	68.5400
 0.5420	68.2600
 0.5430	68.0100
 0.5440	67.8000
 0.5450	67.5400
 0.5460	67.3400
 0.5470	67.0000
 0.5480	66.8400
 0.5490	66.4800
 0.5500	66.2400
 0.5510	66.0200
 0.5520	65.5500
 0.5530	65.2900
 0.5540	64.8900
 0.5550	64.6100
 0.5560	64.2600
 0.5570	63.9400
 0.5580	63.6800
 0.5590	63.4300
 0.5600	63.3500
 0.5610	62.6000
 0.5620	62.2300
 0.5630	61.8100
 0.5640	61.4200
 0.5650	60.9600
 0.5660	60.5400
 0.5670	60.1200
 0.5680	59.7400
 0.5690	59.2300
 0.5700	58.9100
 0.5710	58.4500
 0.5720	58.0100
 0.5730	57.5200
 0.5740	56.9300
 0.5750	56.4300
 0.5760	55.9500
 0.5770	55.6200
 0.5780	55.2600
 0.5790	54.6500
 0.5800	54.1900
 0.5810	53.7400
 0.5820	53.3500
 0.5830	52.9200
 0.5840	52.4400
 0.5850	51.9400
 0.5860	51.6400
 0.5870	51.1200
 0.5880	50.7000
 0.5890	50.2700
 0.5900	49.7900
 0.5910	49.4600
 0.5920	48.9800
 0.5930	48.5300
 0.5940	48.1100
 0.5950	47.7500
 0.5960	47.3600
 0.5970	46.8300
 0.5980	46.4800
 0.5990	46.0900
 0.6000	45.7100
 0.6010	45.3500
 0.6020	44.9500
 0.6030	44.6000
 0.6040	44.2900
 0.6050	43.7800
 0.6060	43.4100
 0.6070	42.9700
 0.6080	42.5900
 0.6090	42.3000
 0.6100	41.8700
 0.6110	41.5500
 0.6120	41.1500
 0.6130	40.7600
 0.6140	40.4800
 0.6150	40.0700
 0.6160	39.7400
 0.6170	39.3300
 0.6180	39.0600
 0.6190	38.7600
 0.6200	38.4000
 0.6210	38.1000
 0.6220	37.7200
 0.6230	37.4000
 0.6240	37.1900
 0.6250	36.8200
 0.6260	36.4800
 0.6270	36.1700
 0.6280	35.8900
 0.6290	35.5900
 0.6300	35.4400
 0.6310	35.1700
 0.6320	34.7600
 0.6330	34.5300
 0.6340	34.2800
 0.6350	34.0200
 0.6360	33.8300
 0.6370	33.5600
 0.6380	33.3500
 0.6390	33.1000
 0.6400	32.8300
 0.6410	32.6600
 0.6420	32.3000
 0.6430	32.1100
 0.6440	31.9000
 0.6450	31.6600
 0.6460	31.4500
 0.6470	31.2800
 0.6480	31.1000
 0.6490	30.8700
 0.6500	30.6500
 0.6510	30.4800
 0.6520	30.3600
 0.6530	30.0900
 0.6540	29.9000
 0.6550	29.6300
 0.6560	29.6300
 0.6570	29.3700
 0.6580	29.1200
 0.6590	28.9400
 0.6600	28.9200
 0.6610	28.8100
 0.6620	28.6000
 0.6630	28.3700
 0.6640	28.2100
 0.6650	28.0000
 0.6660	27.9100
 0.6670	27.8000
 0.6680	27.7000
 0.6690	27.5800
 0.6700	27.2900
 0.6710	27.2300
 0.6720	27.1100
 0.6730	26.9600
 0.6740	26.8900
 0.6750	26.7000
 0.6760	26.6500
 0.6770	26.4900
 0.6780	26.3400
 0.6790	26.2700
 0.6800	26.1700
 0.6810	26.0500
 0.6820	25.9400
 0.6830	25.8400
 0.6840	25.7100
 0.6850	25.5200
 0.6860	25.5100
 0.6870	25.4900
 0.6880	25.3500
 0.6890	25.1700
 0.6900	25.1000
 0.6910	25.0200
 0.6920	25.0400
 0.6930	24.8700
 0.6940	24.7500
 0.6950	24.6400
 0.6960	24.5600
 0.6970	24.5400
 0.6980	24.4200
 0.6990	24.3800
 0.7000	24.2600
 0.7010	24.2400
 0.7020	24.0400
 0.7030	23.9100
 0.7040	23.8200
 0.7050	23.7800
 0.7060	23.6800
 0.7070	23.6500
 0.7080	23.5600
 0.7090	23.5500
 0.7100	23.5000
 0.7110	23.3700
 0.7120	23.2700
 0.7130	23.2300
 0.7140	23.2100
 0.7150	23.1600
 0.7160	23.0000
 0.7170	22.9800
 0.7180	22.9100
 0.7190	22.8500
 0.7200	22.8000
 0.7210	22.7200
 0.7220	22.7400
 0.7230	22.5800
 0.7240	22.5600
 0.7250	22.5800
 0.7260	22.5100
 0.7270	22.4200
 0.7280	22.3300
 0.7290	22.3600
 0.7300	22.3600
 0.7310	22.2300
 0.7320	22.2100
 0.7330	22.1100
 0.7340	22.1400
 0.7350	22.1100
 0.7360	22.0400
 0.7370	22.0000
 0.7380	21.9100
 0.7390	21.9700
 0.7400	21.9400
 0.7410	21.8200
 0.7420	21.8400
 0.7430	21.8000
 0.7440	21.7800
 0.7450	21.7500
 0.7460	21.6400
 0.7470	21.7100
 0.7480	21.7000
 0.7490	21.6000
 0.7500	21.7100
 0.7510	21.6400
 0.7520	21.5300
 0.7530	21.4900
 0.7540	21.5200
 0.7550	21.6000
 0.7560	21.4800
 0.7570	21.5000
 0.7580	21.4400
 0.7590	21.5400
 0.7600	21.5500
 0.7610	21.4400
 0.7620	21.5200
 0.7630	21.4100
 0.7640	21.3700
 0.7650	21.4100
 0.7660	21.4000
 0.7670	21.4100
 0.7680	21.3700
 0.7690	21.4200
 0.7700	21.4500
 0.7710	21.4700
 0.7720	21.5500
 0.7730	21.4200
 0.7740	21.3400
 0.7750	21.3500
 0.7760	21.3200
 0.7770	21.4400
 0.7780	21.4300
 0.7790	21.3300
 0.7800	21.3500
 0.7810	21.3300
 0.7820	21.3700
 0.7830	21.3400
 0.7840	21.2700
 0.7850	21.3600
 0.7860	21.2900
 0.7870	21.3000
 0.7880	21.3000
 0.7890	21.2200
 0.7900	21.2500
 0.7910	21.2100
 0.7920	21.2700
 0.7930	21.2300
 0.7940	21.2200
 0.7950	21.3200
 0.7960	21.3300
 0.7970	21.3300
 0.7980	21.4100
 0.7990	21.3000
 0.8000	21.6700
 0.8040	21.6400
 0.8080	21.6700
 0.8120	21.6700
 0.8160	21.7200
 0.8200	21.7900
 0.8240	21.7900
 0.8280	21.8900
 0.8320	21.9900
 0.8360	22.0400
 0.8400	22.1000
 0.8440	22.1900
 0.8480	22.3600
 0.8520	22.5000
 0.8560	22.5600
 0.8600	22.7300
 0.8640	22.9200
 0.8680	23.1500
 0.8720	23.3400
 0.8760	23.5300
 0.8800	23.7000
 0.8840	23.9700
 0.8880	24.1800
 0.8920	24.4200
 0.8960	24.7300
 0.9000	25.0800
 0.9040	25.3900
 0.9080	25.6800
 0.9120	26.0100
 0.9160	26.3800
 0.9200	26.7600
 0.9240	27.0900
 0.9280	27.5100
 0.9320	27.9100
 0.9360	28.3000
 0.9400	28.6400
 0.9440	29.1000
 0.9480	29.5500
 0.9520	29.8700
 0.9560	30.2300
 0.9600	30.6800
 0.9640	31.0600
 0.9680	31.4800
 0.9720	31.9200
 0.9760	32.2700
 0.9800	32.7000
 0.9840	33.0800
 0.9880	33.5000
 0.9920	33.8200
 0.9960	34.2400
 1.0000	34.4500
 1.0040	34.9400
 1.0080	35.2400
 1.0120	35.6100
 1.0160	35.9800
 1.0200	36.1700
 1.0240	36.5200
 1.0280	36.8000
 1.0320	37.0500
 1.0360	37.2900
 1.0400	37.5900
 1.0440	37.7300
 1.0480	37.9300
 1.0520	38.1500
 1.0560	38.2900
 1.0600	38.4700
 1.0640	38.5900
 1.0680	38.8100
 1.0720	38.8400
 1.0760	38.9400
 1.0800	39.0500
 1.0840	39.0700
 1.0880	39.1800
 1.0920	39.1600
 1.0960	39.2900
 1.1000	39.3300
 1.1040	39.3600
 1.1080	39.2900
 1.1120	39.3700
 1.1160	39.3700
 1.1200	39.4900
 1.1240	39.4800
 1.1280	39.5400
 1.1320	39.4300
 1.1360	39.4500
 1.1400	39.4200
 1.1440	39.4500
 1.1480	39.4600
 1.1520	39.3800
 1.1560	39.4400
 1.1600	39.5200
 1.1640	39.5000
 1.1680	39.5900
 1.1720	39.5600
 1.1760	39.5700
 1.1800	39.6400
 1.1840	39.6900
 1.1880	39.7000
 1.1920	39.7100
 1.1960	39.8300
 1.2000	39.7400
 1.2040	39.9000
 1.2080	39.9800
 1.2120	39.9700
 1.2160	40.0600
 1.2200	40.1600
 1.2240	40.2000
 1.2280	40.2000
 1.2320	40.3200
 1.2360	40.3800
 1.2400	40.5000
 1.2440	40.5800
 1.2480	40.6800
 1.2520	40.7400
 1.2560	40.8300
 1.2600	40.9900
 1.2640	41.1300
 1.2680	41.2000
 1.2720	41.2400
 1.2760	41.4000
 1.2800	41.5200
 1.2840	41.5700
 1.2880	41.7100
 1.2920	41.8100
 1.2960	41.9500
 1.3000	42.0400
 1.3040	42.1900
 1.3080	42.3400
 1.3120	42.4200
 1.3160	42.5600
 1.3200	42.7300
 1.3240	42.8600
 1.3280	42.9700
 1.3320	43.1200
 1.3360	43.2900
 1.3400	43.3700
 1.3440	43.4900
 1.3480	43.6900
 1.3520	43.8200
 1.3560	43.9900
 1.3600	44.1700
 1.3640	44.2400
 1.3680	44.3600
 1.3720	44.5500
 1.3760	44.5700
 1.3800	44.6000
 1.3840	44.6400
 1.3880	44.6000
 1.3920	44.4600
 1.3960	44.2600
 1.4000	43.9700
 1.4040	43.6800
 1.4080	43.5200
 1.4120	43.5800
 1.4160	43.7500
 1.4200	44.0300
 1.4240	44.2800
 1.4280	44.5700
 1.4320	44.8000
 1.4360	45.0600
 1.4400	45.2700
 1.4440	45.4500
 1.4480	45.6700
 1.4520	45.8500
 1.4560	46.1100
 1.4600	46.2500
 1.4640	46.5900
 1.4680	46.7700
 1.4720	47.1100
 1.4760	47.4300
 1.4800	47.6900
 1.4840	48.0300
 1.4880	48.3800
 1.4920	48.6400
 1.4960	48.9700
 1.5000	49.2200
 1.5040	49.6000
 1.5080	49.9500
 1.5120	50.1700
 1.5160	50.3900
 1.5200	50.7000
 1.5240	50.9500
 1.5280	51.2300
 1.5320	51.4800
 1.5360	51.6900
 1.5400	51.9800
 1.5440	52.2800
 1.5480	52.4700
 1.5520	52.8600
 1.5560	53.1600
 1.5600	53.3800
 1.5640	53.6700
 1.5680	53.8800
 1.5720	54.1300
 1.5760	54.3900
 1.5800	54.6400
 1.5840	54.8600
 1.5880	55.1600
 1.5920	55.4200
 1.5960	55.6600
 1.6000	55.9200
 1.6040	56.2400
 1.6080	56.4500
 1.6120	56.7200
 1.6160	57.0800
 1.6200	57.2800
 1.6240	57.6100
 1.6280	57.8600
 1.6320	58.1000
 1.6360	58.3900
 1.6400	58.6600
 1.6440	58.9000
 1.6480	59.2000
 1.6520	59.4500
 1.6560	59.6700
 1.6600	59.8100
 1.6640	60.1000
 1.6680	60.4100
 1.6720	60.6600
 1.6760	60.8300
 1.6800	61.0600
 1.6840	61.2800
 1.6880	61.4400
 1.6920	61.7300
 1.6960	61.8400
 1.7000	62.0800
 1.7040	62.2100
 1.7080	62.4100
 1.7120	62.6400
 1.7160	62.8100
 1.7200	62.9900
 1.7240	63.1300
 1.7280	63.3400
 1.7320	63.3600
 1.7360	63.5500
 1.7400	63.6900
 1.7440	63.8100
 1.7480	63.9500
 1.7520	64.0900
 1.7560	64.2000
 1.7600	64.2900
 1.7640	64.3700
 1.7680	64.5100
 1.7720	64.5900
 1.7760	64.7700
 1.7800	64.9300
 1.7840	65.0400
 1.7880	65.2900
 1.7920	65.4000
 1.7960	65.5500
 1.8000	65.7200
 1.8040	65.8300
 1.8080	65.9300
 1.8120	66.1300
 1.8160	66.1600
 1.8200	66.2800
 1.8240	66.3500
 1.8280	66.3000
 1.8320	66.4000
 1.8360	66.4400
 1.8400	66.3100
 1.8440	66.2900
 1.8480	66.1900
 1.8520	66.0300
 1.8560	65.8100
 1.8600	65.3600
 1.8640	64.5900
 1.8680	63.5800
 1.8720	62.2200
 1.8760	60.6900
 1.8800	58.7700
 1.8840	56.8000
 1.8880	54.6100
 1.8920	52.3000
 1.8960	50.1900
 1.9000	48.4200
 1.9040	47.1500
 1.9080	46.3400
 1.9120	46.0000
 1.9160	45.9100
 1.9200	46.0700
 1.9240	46.3300
 1.9280	46.5200
 1.9320	46.8500
 1.9360	47.1900
 1.9400	47.5900
 1.9440	48.0700
 1.9480	48.5300
 1.9520	49.1000
 1.9560	49.5400
 1.9600	49.9900
 1.9640	50.4600
 1.9680	51.0600
 1.9720	51.6100
 1.9760	52.1900
 1.9800	52.7600
 1.9840	53.2800
 1.9880	53.8700
 1.9920	54.4200
 1.9960	54.9600
 2.0000	55.4000
 2.0040	55.9000
 2.0080	56.3300
 2.0120	56.8000
 2.0160	57.3100
 2.0200	57.7500
 2.0240	58.1200
 2.0280	58.5200
 2.0320	58.9200
 2.0360	59.3500
 2.0400	59.7600
 2.0440	60.2000
 2.0480	60.5700
 2.0520	60.9000
 2.0560	61.1600
 2.0600	61.6100
 2.0640	61.8000
 2.0680	62.2000
 2.0720	62.4300
 2.0760	62.7000
 2.0800	62.9700
 2.0840	63.2300
 2.0880	63.4100
 2.0920	63.6400
 2.0960	63.8500
 2.1000	64.0500
 2.1040	64.3000
 2.1080	64.5200
 2.1120	64.7300
 2.1160	65.0200
 2.1200	65.1700
 2.1240	65.2900
 2.1280	65.3600
 2.1320	65.4300
 2.1360	65.4100
 2.1400	65.4900
 2.1440	65.4800
 2.1480	65.4000
 2.1520	65.2400
 2.1560	65.1000
 2.1600	64.9400
 2.1640	64.7600
 2.1680	64.5600
 2.1720	64.4000
 2.1760	64.0800
 2.1800	63.6800
 2.1840	63.3200
 2.1880	62.8300
 2.1920	62.2900
 2.1960	61.6700
 2.2000	61.0800
 2.2040	60.4600
 2.2080	60.0100
 2.2120	59.5800
 2.2160	59.1700
 2.2200	58.8900
 2.2240	58.5400
 2.2280	58.1600
 2.2320	57.6800
 2.2360	57.0800
 2.2400	56.4800
 2.2440	55.7300
 2.2480	54.9300
 2.2520	54.1800
 2.2560	53.5900
 2.2600	53.0200
 2.2640	52.6600
 2.2680	52.7100
 2.2720	52.8100
 2.2760	53.0400
 2.2800	53.3700
 2.2840	53.8300
 2.2880	54.3400
 2.2920	54.9100
 2.2960	55.3900
 2.3000	55.7400
 2.3040	55.8700
 2.3080	56.2000
 2.3120	56.3000
 2.3160	56.2800
 2.3200	56.1700
 2.3240	55.7500
 2.3280	55.3300
 2.3320	54.8500
 2.3360	54.2300
 2.3400	53.6300
 2.3440	52.9800
 2.3480	52.4500
 2.3520	51.9900
 2.3560	51.7100
 2.3600	51.4500
 2.3640	51.1500
 2.3680	51.0300
 2.3720	50.7600
 2.3760	50.4800
 2.3800	50.2500
 2.3840	49.8900
 2.3880	49.6100
 2.3920	49.2800
 2.3960	49.0000
 2.4000	48.7700
 2.4040	48.6300
 2.4080	48.4400
 2.4120	48.2600
 2.4160	48.0700
 2.4200	48.0100
 2.4240	47.8400
 2.4280	47.6700
 2.4320	47.5600
 2.4360	47.4700
 2.4400	47.3800
 2.4440	47.2200
 2.4480	47.0700
 2.4520	46.9500
 2.4560	46.8200
 2.4600	46.6500
 2.4640	46.4200
 2.4680	46.3400
 2.4720	46.1200
 2.4760	45.9400
 2.4800	45.7700
 2.4840	45.6300
 2.4880	45.5200
 2.4920	45.3500
 2.4960	45.2700
 2.5000	45.1500
