Name: Smithsonite PbCO_3
Type: Mineral
Class: Carbonate
Subclass: None
Particle Size: Fine
Sample No.: C-11A
Owner: JPL
Wavelength Range: VSWIR
Origin: 
Collection Date: N/A
Description: Particle size was 0-45um.Collected by JPL Original ASTER Spectral Library name was jpl.beckman.mineral.carbonate.none.fine.c11a.spectrum.txt
Measurement: Hemispherical reflectance
First Column: X
Second Column: Y
X Units: Wavelength (micrometers)
Y Units:Reflectance (percent)
First X Value:  0.4000
Last X Value:  2.5000
Number of X Values: 826
Additional Information: mineral.carbonate.none.fine.vswir.c-11a.jpl.beckman.ancillary.txt

 0.4000	84.2200
 0.4010	84.3300
 0.4020	84.4000
 0.4030	84.5200
 0.4040	84.6500
 0.4050	84.7600
 0.4060	84.7600
 0.4070	84.8400
 0.4080	84.9600
 0.4090	84.9500
 0.4100	85.0100
 0.4110	85.0900
 0.4120	85.0300
 0.4130	85.2000
 0.4140	85.1900
 0.4150	85.2600
 0.4160	85.3200
 0.4170	85.3200
 0.4180	85.4900
 0.4190	85.5000
 0.4200	85.5200
 0.4210	85.6500
 0.4220	85.5900
 0.4230	85.7600
 0.4240	85.8500
 0.4250	85.8500
 0.4260	86.0400
 0.4270	86.0000
 0.4280	85.9900
 0.4290	86.0400
 0.4300	86.1700
 0.4310	86.3400
 0.4320	86.2300
 0.4330	86.3500
 0.4340	86.3500
 0.4350	86.3100
 0.4360	86.4300
 0.4370	86.4800
 0.4380	86.6600
 0.4390	86.7000
 0.4400	86.6600
 0.4410	86.7600
 0.4420	86.6400
 0.4430	86.7600
 0.4440	86.7700
 0.4450	86.7700
 0.4460	86.9100
 0.4470	86.8500
 0.4480	86.9700
 0.4490	87.0200
 0.4500	86.8600
 0.4510	86.9700
 0.4520	87.0200
 0.4530	87.0900
 0.4540	87.0400
 0.4550	87.0500
 0.4560	87.0700
 0.4570	86.9800
 0.4580	87.1700
 0.4590	87.1300
 0.4600	87.1300
 0.4610	87.2800
 0.4620	87.2800
 0.4630	87.3400
 0.4640	87.2800
 0.4650	87.1900
 0.4660	87.3700
 0.4670	87.2900
 0.4680	87.3500
 0.4690	87.2400
 0.4700	87.1800
 0.4710	87.2400
 0.4720	87.2900
 0.4730	87.4200
 0.4740	87.4200
 0.4750	87.3600
 0.4760	87.4300
 0.4770	87.3900
 0.4780	87.5200
 0.4790	87.4500
 0.4800	87.4000
 0.4810	87.4700
 0.4820	87.3600
 0.4830	87.5400
 0.4840	87.5300
 0.4850	87.4900
 0.4860	87.6000
 0.4870	87.5500
 0.4880	87.5800
 0.4890	87.5300
 0.4900	87.5300
 0.4910	87.6600
 0.4920	87.7300
 0.4930	87.7500
 0.4940	87.6500
 0.4950	87.6000
 0.4960	87.6700
 0.4970	87.6700
 0.4980	87.8100
 0.4990	87.8100
 0.5000	87.7000
 0.5010	87.7700
 0.5020	87.7200
 0.5030	87.8300
 0.5040	87.7800
 0.5050	87.7800
 0.5060	87.8900
 0.5070	87.8900
 0.5080	87.9500
 0.5090	87.8800
 0.5100	87.8800
 0.5110	87.9300
 0.5120	87.8700
 0.5130	87.8600
 0.5140	87.8600
 0.5150	87.9300
 0.5160	87.9500
 0.5170	87.9500
 0.5180	88.1100
 0.5190	87.9900
 0.5200	87.9500
 0.5210	88.0700
 0.5220	88.0700
 0.5230	88.1800
 0.5240	88.1700
 0.5250	88.1100
 0.5260	88.2300
 0.5270	88.2300
 0.5280	88.2100
 0.5290	88.1500
 0.5300	88.0900
 0.5310	88.2600
 0.5320	88.2700
 0.5330	88.3800
 0.5340	88.3000
 0.5350	88.2000
 0.5360	88.3600
 0.5370	88.3500
 0.5380	88.5200
 0.5390	88.4600
 0.5400	88.4600
 0.5410	88.5200
 0.5420	88.4100
 0.5430	88.4200
 0.5440	88.4900
 0.5450	88.5000
 0.5460	88.6200
 0.5470	88.6300
 0.5480	88.6300
 0.5490	88.6400
 0.5500	88.7100
 0.5510	88.8300
 0.5520	88.7200
 0.5530	88.7200
 0.5540	88.7200
 0.5550	88.7900
 0.5560	88.9100
 0.5570	88.9000
 0.5580	88.9300
 0.5590	88.9500
 0.5600	89.0600
 0.5610	89.5700
 0.5620	89.5200
 0.5630	89.5800
 0.5640	89.5600
 0.5650	89.5600
 0.5660	89.5800
 0.5670	89.5100
 0.5680	89.4600
 0.5690	89.5700
 0.5700	89.5700
 0.5710	89.6800
 0.5720	89.5500
 0.5730	89.4900
 0.5740	89.5000
 0.5750	89.4600
 0.5760	89.5000
 0.5770	89.5500
 0.5780	89.5500
 0.5790	89.5600
 0.5800	89.5000
 0.5810	89.6100
 0.5820	89.4800
 0.5830	89.4200
 0.5840	89.4800
 0.5850	89.4900
 0.5860	89.6100
 0.5870	89.5500
 0.5880	89.4300
 0.5890	89.5400
 0.5900	89.4800
 0.5910	89.5400
 0.5920	89.6000
 0.5930	89.6600
 0.5940	89.6600
 0.5950	89.5400
 0.5960	89.5500
 0.5970	89.6900
 0.5980	89.7000
 0.5990	89.7200
 0.6000	89.6400
 0.6010	89.6700
 0.6020	89.6300
 0.6030	89.7000
 0.6040	89.7000
 0.6050	89.7000
 0.6060	89.7600
 0.6070	89.6400
 0.6080	89.5900
 0.6090	89.6400
 0.6100	89.6300
 0.6110	89.6300
 0.6120	89.6300
 0.6130	89.6900
 0.6140	89.6900
 0.6150	89.5900
 0.6160	89.6500
 0.6170	89.5300
 0.6180	89.5300
 0.6190	89.5300
 0.6200	89.4700
 0.6210	89.5300
 0.6220	89.4600
 0.6230	89.6300
 0.6240	89.6300
 0.6250	89.5200
 0.6260	89.5300
 0.6270	89.4800
 0.6280	89.5300
 0.6290	89.5200
 0.6300	89.4700
 0.6310	89.4700
 0.6320	89.4100
 0.6330	89.4100
 0.6340	89.4600
 0.6350	89.4000
 0.6360	89.4000
 0.6370	89.4000
 0.6380	89.4100
 0.6390	89.4600
 0.6400	89.3500
 0.6410	89.3400
 0.6420	89.3500
 0.6430	89.3600
 0.6440	89.3600
 0.6450	89.3000
 0.6460	89.3500
 0.6470	89.3400
 0.6480	89.3400
 0.6490	89.4600
 0.6500	89.3500
 0.6510	89.4100
 0.6520	89.3500
 0.6530	89.2900
 0.6540	89.4100
 0.6550	89.2900
 0.6560	89.2900
 0.6570	89.1800
 0.6580	89.1800
 0.6590	89.2800
 0.6600	89.2200
 0.6610	89.2200
 0.6620	89.1700
 0.6630	89.2400
 0.6640	89.1900
 0.6650	89.1300
 0.6660	89.1700
 0.6670	89.0100
 0.6680	88.9500
 0.6690	89.0700
 0.6700	89.0600
 0.6710	89.1100
 0.6720	88.9900
 0.6730	88.9300
 0.6740	89.1100
 0.6750	89.0000
 0.6760	88.9000
 0.6770	89.0000
 0.6780	88.9500
 0.6790	88.9400
 0.6800	89.0000
 0.6810	88.9500
 0.6820	88.9500
 0.6830	88.8900
 0.6840	88.8900
 0.6850	88.9400
 0.6860	89.0000
 0.6870	89.0000
 0.6880	88.9600
 0.6890	88.9600
 0.6900	88.8400
 0.6910	88.8200
 0.6920	88.8300
 0.6930	88.7900
 0.6940	88.8400
 0.6950	88.7800
 0.6960	88.8200
 0.6970	88.8100
 0.6980	88.6900
 0.6990	88.7300
 0.7000	88.6900
 0.7010	88.7000
 0.7020	88.6700
 0.7030	88.6200
 0.7040	88.6600
 0.7050	88.7200
 0.7060	88.7300
 0.7070	88.6300
 0.7080	88.5700
 0.7090	88.6800
 0.7100	88.6200
 0.7110	88.6700
 0.7120	88.5000
 0.7130	88.5600
 0.7140	88.5000
 0.7150	88.4400
 0.7160	88.4900
 0.7170	88.5500
 0.7180	88.5600
 0.7190	88.4400
 0.7200	88.4400
 0.7210	88.4400
 0.7220	88.3900
 0.7230	88.3800
 0.7240	88.2800
 0.7250	88.2200
 0.7260	88.3200
 0.7270	88.2600
 0.7280	88.3900
 0.7290	88.3900
 0.7300	88.2800
 0.7310	88.2700
 0.7320	88.1600
 0.7330	88.2200
 0.7340	88.2200
 0.7350	88.1500
 0.7360	88.2000
 0.7370	88.1400
 0.7380	88.2000
 0.7390	88.1000
 0.7400	88.0500
 0.7410	88.1000
 0.7420	87.9300
 0.7430	88.1100
 0.7440	88.0500
 0.7450	88.0400
 0.7460	88.0300
 0.7470	87.8700
 0.7480	87.9400
 0.7490	87.9400
 0.7500	87.9400
 0.7510	87.9300
 0.7520	87.8700
 0.7530	87.9300
 0.7540	87.8700
 0.7550	87.6900
 0.7560	87.8100
 0.7570	87.7000
 0.7580	87.8200
 0.7590	87.8700
 0.7600	87.7500
 0.7610	87.8200
 0.7620	87.7100
 0.7630	87.7000
 0.7640	87.6400
 0.7650	87.6400
 0.7660	87.7000
 0.7670	87.5900
 0.7680	87.5900
 0.7690	87.5400
 0.7700	87.5500
 0.7710	87.6000
 0.7720	87.4800
 0.7730	87.5200
 0.7740	87.5800
 0.7750	87.4800
 0.7760	87.5000
 0.7770	87.3700
 0.7780	87.4900
 0.7790	87.2500
 0.7800	87.2500
 0.7810	87.3600
 0.7820	87.3000
 0.7830	87.3700
 0.7840	87.3200
 0.7850	87.2000
 0.7860	87.1900
 0.7870	87.0800
 0.7880	87.2100
 0.7890	87.1500
 0.7900	87.1500
 0.7910	87.1900
 0.7920	87.0800
 0.7930	87.1400
 0.7940	87.1400
 0.7950	87.1400
 0.7960	87.1200
 0.7970	87.0200
 0.7980	87.0800
 0.7990	87.0100
 0.8000	87.1200
 0.8040	86.9900
 0.8080	86.9300
 0.8120	86.8100
 0.8160	86.6900
 0.8200	86.6100
 0.8240	86.5600
 0.8280	86.4600
 0.8320	86.3400
 0.8360	86.1400
 0.8400	86.0700
 0.8440	86.0100
 0.8480	85.8900
 0.8520	85.7900
 0.8560	85.6300
 0.8600	85.5800
 0.8640	85.4100
 0.8680	85.2800
 0.8720	85.2300
 0.8760	85.1600
 0.8800	85.0400
 0.8840	84.8600
 0.8880	84.7900
 0.8920	84.6900
 0.8960	84.6200
 0.9000	84.4300
 0.9040	84.5200
 0.9080	84.3700
 0.9120	84.2600
 0.9160	84.2700
 0.9200	84.2100
 0.9240	84.1900
 0.9280	84.1600
 0.9320	84.1300
 0.9360	84.0900
 0.9400	84.1500
 0.9440	84.1200
 0.9480	84.1400
 0.9520	84.1300
 0.9560	84.1400
 0.9600	84.2100
 0.9640	84.1900
 0.9680	84.1800
 0.9720	84.1500
 0.9760	84.2600
 0.9800	84.2500
 0.9840	84.2400
 0.9880	84.3600
 0.9920	84.4200
 0.9960	84.4800
 1.0000	84.4400
 1.0040	84.4800
 1.0080	84.5500
 1.0120	84.8200
 1.0160	84.7500
 1.0200	84.8500
 1.0240	85.0300
 1.0280	85.0800
 1.0320	85.1500
 1.0360	85.3400
 1.0400	85.4700
 1.0440	85.5300
 1.0480	85.5900
 1.0520	85.7000
 1.0560	85.6300
 1.0600	85.8800
 1.0640	85.9600
 1.0680	86.0600
 1.0720	86.1800
 1.0760	86.2200
 1.0800	86.3200
 1.0840	86.4200
 1.0880	86.5000
 1.0920	86.6200
 1.0960	86.6900
 1.1000	86.8000
 1.1040	86.8100
 1.1080	86.9000
 1.1120	87.0200
 1.1160	87.0200
 1.1200	87.0700
 1.1240	87.1800
 1.1280	87.3100
 1.1320	87.2900
 1.1360	87.3100
 1.1400	87.3300
 1.1440	87.3500
 1.1480	87.3400
 1.1520	87.4600
 1.1560	87.4400
 1.1600	87.4300
 1.1640	87.5200
 1.1680	87.5400
 1.1720	87.5500
 1.1760	87.6100
 1.1800	87.6700
 1.1840	87.6000
 1.1880	87.6600
 1.1920	87.6300
 1.1960	87.6900
 1.2000	87.7500
 1.2040	87.8300
 1.2080	87.7300
 1.2120	87.8100
 1.2160	87.8300
 1.2200	87.9000
 1.2240	87.9700
 1.2280	87.9200
 1.2320	88.1100
 1.2360	88.1300
 1.2400	88.2100
 1.2440	88.2800
 1.2480	88.3500
 1.2520	88.4100
 1.2560	88.4600
 1.2600	88.4600
 1.2640	88.5800
 1.2680	88.6200
 1.2720	88.6700
 1.2760	88.7000
 1.2800	88.7900
 1.2840	88.7800
 1.2880	88.8800
 1.2920	88.8300
 1.2960	88.8900
 1.3000	88.8800
 1.3040	88.8600
 1.3080	88.9100
 1.3120	89.0200
 1.3160	89.0200
 1.3200	89.0700
 1.3240	89.0700
 1.3280	89.0600
 1.3320	89.0700
 1.3360	89.1000
 1.3400	89.1400
 1.3440	89.0900
 1.3480	89.2000
 1.3520	89.2000
 1.3560	89.3300
 1.3600	89.2500
 1.3640	89.3000
 1.3680	89.3900
 1.3720	89.4100
 1.3760	89.3600
 1.3800	89.3800
 1.3840	89.4200
 1.3880	89.4300
 1.3920	89.4200
 1.3960	89.2900
 1.4000	89.3600
 1.4040	89.2000
 1.4080	89.0900
 1.4120	89.0400
 1.4160	88.9800
 1.4200	88.9900
 1.4240	89.0500
 1.4280	89.0600
 1.4320	89.0100
 1.4360	88.9800
 1.4400	89.0300
 1.4440	89.0500
 1.4480	89.0400
 1.4520	89.0000
 1.4560	89.0400
 1.4600	89.1100
 1.4640	89.0400
 1.4680	89.0300
 1.4720	89.0500
 1.4760	88.9900
 1.4800	89.0400
 1.4840	89.1600
 1.4880	89.0400
 1.4920	89.0500
 1.4960	89.0500
 1.5000	89.0400
 1.5040	89.0900
 1.5080	89.1400
 1.5120	89.0300
 1.5160	89.0800
 1.5200	89.0400
 1.5240	89.0900
 1.5280	89.1100
 1.5320	89.1100
 1.5360	89.0600
 1.5400	89.0600
 1.5440	89.1100
 1.5480	89.0500
 1.5520	89.0400
 1.5560	89.0500
 1.5600	88.9300
 1.5640	88.9200
 1.5680	88.9900
 1.5720	89.0000
 1.5760	89.0000
 1.5800	88.9400
 1.5840	88.9400
 1.5880	88.9300
 1.5920	88.9200
 1.5960	88.9800
 1.6000	88.9700
 1.6040	88.9700
 1.6080	88.9600
 1.6120	88.8500
 1.6160	88.9600
 1.6200	88.9000
 1.6240	88.9500
 1.6280	88.7700
 1.6320	88.8300
 1.6360	88.8300
 1.6400	88.8200
 1.6440	88.7900
 1.6480	88.8400
 1.6520	88.7900
 1.6560	88.8400
 1.6600	88.8400
 1.6640	88.8400
 1.6680	88.7700
 1.6720	88.8100
 1.6760	88.7900
 1.6800	88.8400
 1.6840	88.6700
 1.6880	88.6800
 1.6920	88.7300
 1.6960	88.6500
 1.7000	88.6500
 1.7040	88.6500
 1.7080	88.6000
 1.7120	88.5800
 1.7160	88.6200
 1.7200	88.5800
 1.7240	88.5300
 1.7280	88.4900
 1.7320	88.4300
 1.7360	88.3800
 1.7400	88.3200
 1.7440	88.1900
 1.7480	88.2400
 1.7520	88.1800
 1.7560	88.2500
 1.7600	88.2600
 1.7640	88.1800
 1.7680	88.1400
 1.7720	88.2000
 1.7760	88.2000
 1.7800	88.1900
 1.7840	88.2000
 1.7880	88.2400
 1.7920	88.2400
 1.7960	88.2500
 1.8000	88.2600
 1.8040	88.1200
 1.8080	88.1600
 1.8120	87.9900
 1.8160	87.9700
 1.8200	87.9600
 1.8240	87.9200
 1.8280	87.8300
 1.8320	87.7400
 1.8360	87.7100
 1.8400	87.6700
 1.8440	87.5600
 1.8480	87.5100
 1.8520	87.4000
 1.8560	87.3400
 1.8600	87.2200
 1.8640	87.0500
 1.8680	86.9600
 1.8720	86.8300
 1.8760	86.6900
 1.8800	86.4200
 1.8840	86.2400
 1.8880	86.1600
 1.8920	86.1000
 1.8960	86.0200
 1.9000	85.9700
 1.9040	85.9400
 1.9080	85.8600
 1.9120	85.8400
 1.9160	85.6700
 1.9200	85.4900
 1.9240	85.4000
 1.9280	85.2600
 1.9320	85.2600
 1.9360	85.1800
 1.9400	85.0700
 1.9440	85.0400
 1.9480	84.9000
 1.9520	84.8900
 1.9560	84.7800
 1.9600	84.7800
 1.9640	84.6700
 1.9680	84.6200
 1.9720	84.5600
 1.9760	84.6000
 1.9800	84.6600
 1.9840	84.5900
 1.9880	84.5000
 1.9920	84.4900
 1.9960	84.4500
 2.0000	84.4600
 2.0040	84.4100
 2.0080	84.4300
 2.0120	84.5500
 2.0160	84.6400
 2.0200	84.8500
 2.0240	84.9500
 2.0280	85.0300
 2.0320	85.0200
 2.0360	85.2100
 2.0400	85.2300
 2.0440	85.2200
 2.0480	85.2900
 2.0520	85.3400
 2.0560	85.3700
 2.0600	85.3800
 2.0640	85.4300
 2.0680	85.4100
 2.0720	85.4900
 2.0760	85.5000
 2.0800	85.5900
 2.0840	85.6000
 2.0880	85.6900
 2.0920	85.7500
 2.0960	85.7300
 2.1000	85.7000
 2.1040	85.8100
 2.1080	85.9200
 2.1120	85.9400
 2.1160	85.9500
 2.1200	86.0100
 2.1240	86.0400
 2.1280	85.9400
 2.1320	85.8100
 2.1360	85.7700
 2.1400	85.7000
 2.1440	85.6000
 2.1480	85.4600
 2.1520	85.3000
 2.1560	85.2300
 2.1600	85.1600
 2.1640	85.1600
 2.1680	85.0600
 2.1720	85.0900
 2.1760	85.0900
 2.1800	85.1400
 2.1840	85.0900
 2.1880	85.0400
 2.1920	84.9500
 2.1960	84.9200
 2.2000	84.8300
 2.2040	84.7500
 2.2080	84.5700
 2.2120	84.4600
 2.2160	84.3300
 2.2200	84.2300
 2.2240	84.0700
 2.2280	83.8900
 2.2320	83.6500
 2.2360	83.4400
 2.2400	83.2300
 2.2440	83.0200
 2.2480	82.7400
 2.2520	82.5300
 2.2560	82.2000
 2.2600	81.9700
 2.2640	81.5600
 2.2680	81.3200
 2.2720	81.0600
 2.2760	80.7200
 2.2800	80.4400
 2.2840	80.0600
 2.2880	79.6500
 2.2920	79.1800
 2.2960	78.7500
 2.3000	78.4400
 2.3040	77.8800
 2.3080	77.6500
 2.3120	77.3700
 2.3160	77.2000
 2.3200	77.0100
 2.3240	76.7900
 2.3280	76.6400
 2.3320	76.3500
 2.3360	76.2200
 2.3400	76.1000
 2.3440	75.8100
 2.3480	75.6300
 2.3520	75.4400
 2.3560	75.2700
 2.3600	75.2600
 2.3640	75.3100
 2.3680	75.7000
 2.3720	76.2200
 2.3760	76.8400
 2.3800	77.6000
 2.3840	78.3700
 2.3880	79.0600
 2.3920	79.6100
 2.3960	79.9800
 2.4000	80.2500
 2.4040	80.3900
 2.4080	80.4700
 2.4120	80.3500
 2.4160	80.1000
 2.4200	79.9700
 2.4240	79.6700
 2.4280	79.4100
 2.4320	79.1900
 2.4360	78.8000
 2.4400	78.4800
 2.4440	78.0500
 2.4480	77.6900
 2.4520	77.2900
 2.4560	76.7900
 2.4600	76.2700
 2.4640	75.6600
 2.4680	75.0300
 2.4720	74.4900
 2.4760	73.9400
 2.4800	73.5800
 2.4840	73.1800
 2.4880	72.7400
 2.4920	72.4500
 2.4960	72.2100
 2.5000	72.1000
