Name: Lepidolite K(Li,Al)3(Si,Al)_4O_10(F,OH)_2
Type: Mineral
Class: Silicate
Subclass: Phyllosilicate
Particle Size: Coarse
Sample No.: PS-13B
Owner: JPL
Wavelength Range: VSWIR
Origin: South Africa.
Collection Date: N/A
Description: Lavender lepidolite.Particle size was 125-500um.Collected by:  Ward's Original ASTER Spectral Library name was jpl.perkin.mineral.silicate.phyllosilicate.coarse.ps13c.spectrum.txt
Measurement: Hemispherical reflectance
First Column: X
Second Column: Y
X Units: Wavelength (micrometers)
Y Units:Reflectance (percent)
First X Value:  2.5000
Last X Value:  0.4000
Number of X Values: 2101
Additional Information: None

 2.5000	32.5533
 2.4990	32.5538
 2.4980	31.9579
 2.4970	32.2994
 2.4960	31.6166
 2.4950	32.1250
 2.4940	31.8292
 2.4930	31.7204
 2.4920	31.2770
 2.4910	31.5469
 2.4900	31.2039
 2.4890	31.4712
 2.4880	31.0917
 2.4870	31.2060
 2.4860	31.2246
 2.4850	31.0992
 2.4840	30.9627
 2.4830	30.9486
 2.4820	30.8715
 2.4810	30.9635
 2.4800	30.6244
 2.4790	30.8980
 2.4780	30.7041
 2.4770	30.7158
 2.4760	30.4858
 2.4750	30.4107
 2.4740	30.2243
 2.4730	30.3651
 2.4720	30.1825
 2.4710	30.1951
 2.4700	29.9817
 2.4690	30.0065
 2.4680	29.7768
 2.4670	29.8368
 2.4660	29.5173
 2.4650	29.6018
 2.4640	29.3058
 2.4630	29.4542
 2.4620	29.0824
 2.4610	29.2910
 2.4600	28.9238
 2.4590	29.0059
 2.4580	28.6611
 2.4570	28.6474
 2.4560	28.5376
 2.4550	28.4289
 2.4540	28.3243
 2.4530	28.1977
 2.4520	28.0750
 2.4510	27.9596
 2.4500	27.8401
 2.4490	27.8507
 2.4480	27.6786
 2.4470	27.5792
 2.4460	27.4645
 2.4450	27.4375
 2.4440	27.2162
 2.4430	27.3331
 2.4420	27.1386
 2.4410	27.1741
 2.4400	27.0734
 2.4390	27.1873
 2.4380	27.0974
 2.4370	27.1388
 2.4360	27.1837
 2.4350	27.2210
 2.4340	27.1268
 2.4330	27.2867
 2.4320	27.2446
 2.4310	27.5253
 2.4300	27.4813
 2.4290	27.6316
 2.4280	27.7782
 2.4270	27.9213
 2.4260	28.0130
 2.4250	28.2377
 2.4240	28.3426
 2.4230	28.6300
 2.4220	28.7864
 2.4210	29.0280
 2.4200	29.1719
 2.4190	29.4525
 2.4180	29.7065
 2.4170	30.0308
 2.4160	30.2193
 2.4150	30.6603
 2.4140	30.8326
 2.4130	31.1062
 2.4120	31.3457
 2.4110	31.6843
 2.4100	31.8464
 2.4090	32.2031
 2.4080	32.3405
 2.4070	32.6064
 2.4060	32.9313
 2.4050	33.1618
 2.4040	33.4350
 2.4030	33.6887
 2.4020	33.8085
 2.4010	34.0552
 2.4000	34.2001
 2.3990	34.4766
 2.3980	34.6158
 2.3970	34.7454
 2.3960	34.8492
 2.3950	34.9979
 2.3940	35.0920
 2.3930	35.1875
 2.3920	35.2667
 2.3910	35.3681
 2.3900	35.4014
 2.3890	35.5382
 2.3880	35.5677
 2.3870	35.6146
 2.3860	35.6468
 2.3850	35.6947
 2.3840	35.6756
 2.3830	35.7019
 2.3820	35.7025
 2.3810	35.6897
 2.3800	35.6850
 2.3790	35.7782
 2.3780	35.7002
 2.3770	35.7141
 2.3760	35.8029
 2.3750	35.7690
 2.3740	35.6916
 2.3730	35.7159
 2.3720	35.7052
 2.3710	35.6662
 2.3700	35.6162
 2.3690	35.5685
 2.3680	35.5409
 2.3670	35.5030
 2.3660	35.4591
 2.3650	35.4024
 2.3640	35.2742
 2.3630	35.1322
 2.3620	35.0032
 2.3610	34.9686
 2.3600	34.8764
 2.3590	34.7032
 2.3580	34.5424
 2.3570	34.4905
 2.3560	34.4070
 2.3550	34.2031
 2.3540	34.0320
 2.3530	33.9510
 2.3520	33.8782
 2.3510	33.7612
 2.3500	33.6377
 2.3490	33.5892
 2.3480	33.5637
 2.3470	33.5595
 2.3460	33.5735
 2.3450	33.5981
 2.3440	33.6749
 2.3430	33.7101
 2.3420	33.7987
 2.3410	33.9352
 2.3400	34.1316
 2.3390	34.3121
 2.3380	34.5577
 2.3370	34.7697
 2.3360	35.0631
 2.3350	35.3303
 2.3340	35.6261
 2.3330	35.9446
 2.3320	36.2919
 2.3310	36.6189
 2.3300	37.0337
 2.3290	37.3804
 2.3280	37.7805
 2.3270	38.2448
 2.3260	38.6923
 2.3250	39.0249
 2.3240	39.4695
 2.3230	39.9167
 2.3220	40.3727
 2.3210	40.8218
 2.3200	41.2754
 2.3190	41.8150
 2.3180	42.2856
 2.3170	42.6668
 2.3160	43.1607
 2.3150	43.6364
 2.3140	44.0756
 2.3130	44.4701
 2.3120	45.0129
 2.3110	45.4878
 2.3100	45.9763
 2.3090	46.3617
 2.3080	46.8882
 2.3070	47.3109
 2.3060	47.6764
 2.3050	48.0757
 2.3040	48.5082
 2.3030	48.8920
 2.3020	49.3211
 2.3010	49.7426
 2.3000	50.0923
 2.2990	50.4447
 2.2980	50.7820
 2.2970	51.0845
 2.2960	51.4449
 2.2950	51.7050
 2.2940	52.0780
 2.2930	52.3312
 2.2920	52.5755
 2.2910	52.7837
 2.2900	53.0264
 2.2890	53.2771
 2.2880	53.5369
 2.2870	53.6961
 2.2860	53.8592
 2.2850	54.0547
 2.2840	54.2356
 2.2830	54.4016
 2.2820	54.5394
 2.2810	54.6338
 2.2800	54.7802
 2.2790	54.9034
 2.2780	55.0696
 2.2770	55.1002
 2.2760	55.2520
 2.2750	55.2876
 2.2740	55.3828
 2.2730	55.3904
 2.2720	55.5507
 2.2710	55.5705
 2.2700	55.6283
 2.2690	55.6522
 2.2680	55.6507
 2.2670	55.6542
 2.2660	55.6942
 2.2650	55.7335
 2.2640	55.6760
 2.2630	55.6844
 2.2620	55.6422
 2.2610	55.5676
 2.2600	55.5468
 2.2590	55.5078
 2.2580	55.5214
 2.2570	55.3697
 2.2560	55.3951
 2.2550	55.3044
 2.2540	55.3273
 2.2530	55.1434
 2.2520	55.1337
 2.2510	55.0099
 2.2500	55.0062
 2.2490	54.9170
 2.2480	54.7775
 2.2470	54.7349
 2.2460	54.6371
 2.2450	54.5114
 2.2440	54.5252
 2.2430	54.4090
 2.2420	54.2738
 2.2410	54.1508
 2.2400	53.9853
 2.2390	53.8966
 2.2380	53.7437
 2.2370	53.4694
 2.2360	53.3281
 2.2350	53.0876
 2.2340	52.9099
 2.2330	52.6513
 2.2320	52.3002
 2.2310	51.9437
 2.2300	51.5651
 2.2290	51.2160
 2.2280	50.8716
 2.2270	50.2470
 2.2260	49.8050
 2.2250	49.2234
 2.2240	48.6553
 2.2230	47.9770
 2.2220	47.3229
 2.2210	46.4594
 2.2200	45.6925
 2.2190	44.6351
 2.2180	43.7545
 2.2170	42.8175
 2.2160	41.6797
 2.2150	40.5354
 2.2140	39.5429
 2.2130	38.4300
 2.2120	37.3719
 2.2110	35.9453
 2.2100	35.0891
 2.2090	33.8923
 2.2080	32.9175
 2.2070	31.8706
 2.2060	30.8742
 2.2050	30.0189
 2.2040	29.2353
 2.2030	28.3598
 2.2020	27.8059
 2.2010	27.2131
 2.2000	26.8284
 2.1990	26.3946
 2.1980	26.1560
 2.1970	25.9250
 2.1960	25.9157
 2.1950	25.8005
 2.1940	26.0207
 2.1930	26.1334
 2.1920	26.5539
 2.1910	26.8550
 2.1900	27.5450
 2.1890	28.0200
 2.1880	28.8549
 2.1870	29.5948
 2.1860	30.5165
 2.1850	31.2780
 2.1840	32.4282
 2.1830	33.4252
 2.1820	34.6142
 2.1810	35.6578
 2.1800	37.0337
 2.1790	38.2364
 2.1780	39.4922
 2.1770	40.6210
 2.1760	41.9187
 2.1750	43.1613
 2.1740	44.3786
 2.1730	45.4647
 2.1720	46.7128
 2.1710	47.6681
 2.1700	48.7463
 2.1690	49.6655
 2.1680	50.6695
 2.1670	51.5545
 2.1660	52.4318
 2.1650	53.2742
 2.1640	54.0077
 2.1630	54.6790
 2.1620	55.4466
 2.1610	56.0497
 2.1600	56.6895
 2.1590	57.2455
 2.1580	57.8401
 2.1570	58.2618
 2.1560	58.8537
 2.1550	59.3203
 2.1540	59.6941
 2.1530	60.1619
 2.1520	60.6232
 2.1510	60.9124
 2.1500	61.2425
 2.1490	61.5805
 2.1480	61.9400
 2.1470	62.2514
 2.1460	62.5906
 2.1450	62.8168
 2.1440	63.0520
 2.1430	63.2254
 2.1420	63.4067
 2.1410	63.6529
 2.1400	63.8265
 2.1390	64.0323
 2.1380	64.1482
 2.1370	64.1574
 2.1360	64.2525
 2.1350	64.2686
 2.1340	64.3809
 2.1330	64.3920
 2.1320	64.3743
 2.1310	64.3101
 2.1300	64.3103
 2.1290	64.2660
 2.1280	64.1952
 2.1270	64.0551
 2.1260	64.0079
 2.1250	63.9470
 2.1240	63.9025
 2.1230	63.8171
 2.1220	63.7305
 2.1210	63.6900
 2.1200	63.6214
 2.1190	63.5682
 2.1180	63.6311
 2.1170	63.6335
 2.1160	63.7568
 2.1150	63.8265
 2.1140	63.8763
 2.1130	64.0131
 2.1120	64.2190
 2.1110	64.3272
 2.1100	64.4635
 2.1090	64.5995
 2.1080	64.8173
 2.1070	65.0018
 2.1060	65.1588
 2.1050	65.3173
 2.1040	65.5296
 2.1030	65.7338
 2.1020	65.9123
 2.1010	66.1338
 2.1000	66.3708
 2.0990	66.6620
 2.0980	66.9146
 2.0970	67.1398
 2.0960	67.3948
 2.0950	67.6979
 2.0940	68.0101
 2.0930	68.3111
 2.0920	68.6321
 2.0910	68.8743
 2.0900	69.1153
 2.0890	69.3552
 2.0880	69.5889
 2.0870	69.8061
 2.0860	70.0592
 2.0850	70.3085
 2.0840	70.5356
 2.0830	70.6591
 2.0820	70.8624
 2.0810	71.0484
 2.0800	71.2441
 2.0790	71.3717
 2.0780	71.5218
 2.0770	71.6970
 2.0760	71.8421
 2.0750	71.9450
 2.0740	72.0891
 2.0730	72.2477
 2.0720	72.3688
 2.0710	72.5293
 2.0700	72.6810
 2.0690	72.7727
 2.0680	72.8482
 2.0670	72.9587
 2.0660	73.0510
 2.0650	73.1356
 2.0640	73.2700
 2.0630	73.3751
 2.0620	73.3992
 2.0610	73.5241
 2.0600	73.6259
 2.0590	73.6197
 2.0580	73.6256
 2.0570	73.6938
 2.0560	73.7741
 2.0550	73.7572
 2.0540	73.7258
 2.0530	73.7776
 2.0520	73.8158
 2.0510	73.8593
 2.0500	73.9004
 2.0490	73.9405
 2.0480	73.9783
 2.0470	73.9918
 2.0460	74.0316
 2.0450	74.1050
 2.0440	74.1578
 2.0430	74.1627
 2.0420	74.1289
 2.0410	74.1779
 2.0400	74.2671
 2.0390	74.2466
 2.0380	74.2432
 2.0370	74.2672
 2.0360	74.3137
 2.0350	74.3983
 2.0340	74.4007
 2.0330	74.4257
 2.0320	74.4410
 2.0310	74.4633
 2.0300	74.5465
 2.0290	74.5964
 2.0280	74.5567
 2.0270	74.5454
 2.0260	74.5842
 2.0250	74.6680
 2.0240	74.6690
 2.0230	74.7553
 2.0220	74.7869
 2.0210	74.6955
 2.0200	74.6920
 2.0190	74.7397
 2.0180	74.7493
 2.0170	74.8091
 2.0160	74.7339
 2.0150	74.7899
 2.0140	74.8650
 2.0130	74.8356
 2.0120	74.7971
 2.0110	74.8519
 2.0100	74.8386
 2.0090	74.7783
 2.0080	74.8153
 2.0070	74.8734
 2.0060	74.8487
 2.0050	74.9242
 2.0040	74.8843
 2.0030	74.8819
 2.0020	74.8556
 2.0010	74.8813
 2.0000	74.9306
 1.9990	74.8116
 1.9980	74.8692
 1.9970	74.9659
 1.9960	74.8099
 1.9950	74.8410
 1.9940	74.8090
 1.9930	74.8524
 1.9920	74.7947
 1.9910	74.7786
 1.9900	74.7083
 1.9890	74.6375
 1.9880	74.5605
 1.9870	74.7445
 1.9860	74.7478
 1.9850	74.7835
 1.9840	74.7485
 1.9830	74.6481
 1.9820	74.5826
 1.9810	74.6419
 1.9800	74.6324
 1.9790	74.6864
 1.9780	74.6977
 1.9770	74.6175
 1.9760	74.5844
 1.9750	74.6131
 1.9740	74.6658
 1.9730	74.6795
 1.9720	74.6406
 1.9710	74.6798
 1.9700	74.7148
 1.9690	74.6794
 1.9680	74.7398
 1.9670	74.7565
 1.9660	74.5851
 1.9650	74.6739
 1.9640	74.6671
 1.9630	74.7907
 1.9620	74.6542
 1.9610	74.6770
 1.9600	74.7856
 1.9590	74.7004
 1.9580	74.7772
 1.9570	74.7476
 1.9560	74.7220
 1.9550	74.7630
 1.9540	74.7424
 1.9530	74.7904
 1.9520	74.6939
 1.9510	74.7250
 1.9500	74.8220
 1.9490	74.8240
 1.9480	74.8776
 1.9470	74.8682
 1.9460	74.8706
 1.9450	74.9126
 1.9440	74.8564
 1.9430	74.9126
 1.9420	74.8534
 1.9410	74.8926
 1.9400	74.8057
 1.9390	74.8695
 1.9380	74.8479
 1.9370	74.8608
 1.9360	74.7946
 1.9350	74.7599
 1.9340	74.7322
 1.9330	74.7602
 1.9320	74.6747
 1.9310	74.7777
 1.9300	74.7503
 1.9290	74.7410
 1.9280	74.7357
 1.9270	74.7103
 1.9260	74.5123
 1.9250	74.6386
 1.9240	74.5594
 1.9230	74.5995
 1.9220	74.5072
 1.9210	74.5722
 1.9200	74.4936
 1.9190	74.4394
 1.9180	74.3799
 1.9170	74.5702
 1.9160	74.5072
 1.9150	74.4792
 1.9140	74.3513
 1.9130	74.3978
 1.9120	74.3232
 1.9110	74.3527
 1.9100	74.2980
 1.9090	74.2124
 1.9080	74.2082
 1.9070	74.1400
 1.9060	74.1228
 1.9050	74.1440
 1.9040	74.0484
 1.9030	74.0891
 1.9020	74.0973
 1.9010	74.1040
 1.9000	74.0550
 1.8990	74.1125
 1.8980	74.2479
 1.8970	74.3546
 1.8960	74.3466
 1.8950	74.5503
 1.8940	74.6898
 1.8930	74.9466
 1.8920	75.1067
 1.8910	75.2534
 1.8900	75.4594
 1.8890	75.6092
 1.8880	75.7008
 1.8870	75.8939
 1.8860	75.9304
 1.8850	76.0884
 1.8840	76.1626
 1.8830	76.1910
 1.8820	76.3721
 1.8810	76.4084
 1.8800	76.5640
 1.8790	76.5974
 1.8780	76.6176
 1.8770	76.6121
 1.8760	76.7106
 1.8750	76.8043
 1.8740	76.8226
 1.8730	76.8549
 1.8720	76.8763
 1.8710	76.9647
 1.8700	76.8808
 1.8690	76.9418
 1.8680	76.9732
 1.8670	76.9600
 1.8660	77.0619
 1.8650	77.0827
 1.8640	77.1091
 1.8630	77.1390
 1.8620	77.1739
 1.8610	77.2289
 1.8600	77.2236
 1.8590	77.2018
 1.8580	77.2096
 1.8570	77.1687
 1.8560	77.1733
 1.8550	77.2407
 1.8540	77.2362
 1.8530	77.1646
 1.8520	77.2238
 1.8510	77.1872
 1.8500	77.1377
 1.8490	77.0527
 1.8480	76.9424
 1.8470	77.0260
 1.8460	77.0390
 1.8450	76.8591
 1.8440	76.8950
 1.8430	76.8990
 1.8420	76.8727
 1.8410	76.8616
 1.8400	76.8230
 1.8390	76.7832
 1.8380	76.7323
 1.8370	76.7236
 1.8360	76.7675
 1.8350	76.7674
 1.8340	76.8034
 1.8330	76.8898
 1.8320	76.9464
 1.8310	76.9555
 1.8300	77.0918
 1.8290	77.1298
 1.8280	77.1234
 1.8270	77.2707
 1.8260	77.3632
 1.8250	77.3555
 1.8240	77.4454
 1.8230	77.5120
 1.8220	77.5478
 1.8210	77.6023
 1.8200	77.7079
 1.8190	77.8072
 1.8180	77.8903
 1.8170	77.9170
 1.8160	77.9565
 1.8150	78.0285
 1.8140	78.0344
 1.8130	78.0152
 1.8120	78.0807
 1.8110	78.0646
 1.8100	78.1530
 1.8090	78.2032
 1.8080	78.1780
 1.8070	78.1920
 1.8060	78.2282
 1.8050	78.2765
 1.8040	78.2850
 1.8030	78.2856
 1.8020	78.2755
 1.8010	78.2789
 1.8000	78.3230
 1.7990	78.3185
 1.7980	78.2280
 1.7970	78.2984
 1.7960	78.3227
 1.7950	78.2789
 1.7940	78.2554
 1.7930	78.2545
 1.7920	78.2830
 1.7910	78.3178
 1.7900	78.2949
 1.7890	78.2421
 1.7880	78.2019
 1.7870	78.1784
 1.7860	78.1953
 1.7850	78.1932
 1.7840	78.2221
 1.7830	78.2196
 1.7820	78.2036
 1.7810	78.1691
 1.7800	78.1334
 1.7790	78.1680
 1.7780	78.1006
 1.7770	78.0724
 1.7760	78.0984
 1.7750	78.1272
 1.7740	78.1928
 1.7730	78.1264
 1.7720	78.1260
 1.7710	78.1378
 1.7700	78.1114
 1.7690	78.1481
 1.7680	78.1918
 1.7670	78.1438
 1.7660	78.1129
 1.7650	78.1264
 1.7640	78.1179
 1.7630	78.1313
 1.7620	78.1450
 1.7610	78.1138
 1.7600	78.1903
 1.7590	78.2480
 1.7580	78.2855
 1.7570	78.2200
 1.7560	78.2045
 1.7550	78.2690
 1.7540	78.3038
 1.7530	78.2789
 1.7520	78.3533
 1.7510	78.2694
 1.7500	78.2352
 1.7490	78.3075
 1.7480	78.3531
 1.7470	78.3983
 1.7460	78.3593
 1.7450	78.3894
 1.7440	78.4429
 1.7430	78.4170
 1.7420	78.4112
 1.7410	78.4075
 1.7400	78.4575
 1.7390	78.4111
 1.7380	78.4315
 1.7370	78.4364
 1.7360	78.4603
 1.7350	78.4823
 1.7340	78.4534
 1.7330	78.4158
 1.7320	78.5099
 1.7310	78.4659
 1.7300	78.4867
 1.7290	78.4739
 1.7280	78.4431
 1.7270	78.5014
 1.7260	78.5519
 1.7250	78.5346
 1.7240	78.5680
 1.7230	78.4758
 1.7220	78.3946
 1.7210	78.4663
 1.7200	78.5586
 1.7190	78.4528
 1.7180	78.4426
 1.7170	78.4998
 1.7160	78.3817
 1.7150	78.4708
 1.7140	78.5222
 1.7130	78.3845
 1.7120	78.4686
 1.7110	78.4140
 1.7100	78.4538
 1.7090	78.5519
 1.7080	78.4005
 1.7070	78.3399
 1.7060	78.4840
 1.7050	78.3807
 1.7040	78.3957
 1.7030	78.4272
 1.7020	78.4207
 1.7010	78.4581
 1.7000	78.3288
 1.6990	78.3424
 1.6980	78.4233
 1.6970	78.4213
 1.6960	78.3878
 1.6950	78.3566
 1.6940	78.3959
 1.6930	78.3522
 1.6920	78.3917
 1.6910	78.3952
 1.6900	78.3121
 1.6890	78.3504
 1.6880	78.4242
 1.6870	78.2618
 1.6860	78.2945
 1.6850	78.3795
 1.6840	78.2918
 1.6830	78.3442
 1.6820	78.2911
 1.6810	78.2699
 1.6800	78.3210
 1.6790	78.3463
 1.6780	78.2656
 1.6770	78.2596
 1.6760	78.3573
 1.6750	78.1889
 1.6740	78.2727
 1.6730	78.1755
 1.6720	78.2584
 1.6710	78.2105
 1.6700	78.2352
 1.6690	78.2488
 1.6680	78.2085
 1.6670	78.1985
 1.6660	78.2357
 1.6650	78.1452
 1.6640	78.2307
 1.6630	78.1969
 1.6620	78.1978
 1.6610	78.1865
 1.6600	78.1937
 1.6590	78.2860
 1.6580	78.1547
 1.6570	78.2317
 1.6560	78.1907
 1.6550	78.1096
 1.6540	78.1277
 1.6530	78.0908
 1.6520	78.1745
 1.6510	78.2334
 1.6500	78.1467
 1.6490	78.0638
 1.6480	78.1149
 1.6470	78.1483
 1.6460	78.1494
 1.6450	78.1207
 1.6440	78.1967
 1.6430	78.1379
 1.6420	78.1163
 1.6410	78.0369
 1.6400	78.0082
 1.6390	78.0266
 1.6380	78.0849
 1.6370	78.0257
 1.6360	78.0576
 1.6350	78.0678
 1.6340	78.0776
 1.6330	78.0452
 1.6320	78.0996
 1.6310	77.9924
 1.6300	78.0308
 1.6290	78.0141
 1.6280	78.0101
 1.6270	77.9970
 1.6260	77.9789
 1.6250	77.9299
 1.6240	77.9909
 1.6230	77.9383
 1.6220	77.9685
 1.6210	77.9646
 1.6200	78.0123
 1.6190	77.9592
 1.6180	77.8959
 1.6170	77.9278
 1.6160	78.0058
 1.6150	77.8314
 1.6140	77.8794
 1.6130	78.0009
 1.6120	77.9713
 1.6110	77.9573
 1.6100	77.9573
 1.6090	77.9091
 1.6080	77.8359
 1.6070	77.9732
 1.6060	77.9539
 1.6050	77.9104
 1.6040	77.9378
 1.6030	77.8797
 1.6020	77.8978
 1.6010	77.8140
 1.6000	77.8586
 1.5990	77.8801
 1.5980	77.8090
 1.5970	77.8935
 1.5960	77.8511
 1.5950	77.7830
 1.5940	77.8423
 1.5930	77.7885
 1.5920	77.7692
 1.5910	77.7253
 1.5900	77.7967
 1.5890	77.7328
 1.5880	77.7168
 1.5870	77.7068
 1.5860	77.7547
 1.5850	77.6829
 1.5840	77.6551
 1.5830	77.5955
 1.5820	77.6899
 1.5810	77.6413
 1.5800	77.7013
 1.5790	77.6017
 1.5780	77.6222
 1.5770	77.6216
 1.5760	77.6059
 1.5750	77.5674
 1.5740	77.5813
 1.5730	77.5340
 1.5720	77.5370
 1.5710	77.5320
 1.5700	77.5254
 1.5690	77.4796
 1.5680	77.4338
 1.5670	77.4342
 1.5660	77.4949
 1.5650	77.5061
 1.5640	77.4548
 1.5630	77.4530
 1.5620	77.4204
 1.5610	77.4341
 1.5600	77.4184
 1.5590	77.3599
 1.5580	77.3415
 1.5570	77.3418
 1.5560	77.3208
 1.5550	77.3984
 1.5540	77.3926
 1.5530	77.2584
 1.5520	77.3003
 1.5510	77.2767
 1.5500	77.2451
 1.5490	77.2656
 1.5480	77.2359
 1.5470	77.2209
 1.5460	77.2100
 1.5450	77.1836
 1.5440	77.1722
 1.5430	77.1935
 1.5420	77.1602
 1.5410	77.1542
 1.5400	77.1329
 1.5390	77.0877
 1.5380	77.0904
 1.5370	77.1332
 1.5360	77.0872
 1.5350	76.9669
 1.5340	76.9432
 1.5330	76.9405
 1.5320	76.9664
 1.5310	77.0284
 1.5300	76.9444
 1.5290	76.9496
 1.5280	77.0101
 1.5270	76.9545
 1.5260	76.8712
 1.5250	76.9078
 1.5240	76.9189
 1.5230	76.8180
 1.5220	76.8283
 1.5210	76.8129
 1.5200	76.8102
 1.5190	76.8005
 1.5180	76.7276
 1.5170	76.6867
 1.5160	76.7187
 1.5150	76.7009
 1.5140	76.6880
 1.5130	76.6304
 1.5120	76.6191
 1.5110	76.5894
 1.5100	76.5501
 1.5090	76.5200
 1.5080	76.4651
 1.5070	76.4700
 1.5060	76.4710
 1.5050	76.4434
 1.5040	76.4024
 1.5030	76.4229
 1.5020	76.4230
 1.5010	76.3726
 1.5000	76.3393
 1.4990	76.3527
 1.4980	76.3457
 1.4970	76.2967
 1.4960	76.2436
 1.4950	76.2123
 1.4940	76.2259
 1.4930	76.2032
 1.4920	76.1990
 1.4910	76.1826
 1.4900	76.1095
 1.4890	76.1385
 1.4880	76.1067
 1.4870	76.0515
 1.4860	75.9661
 1.4850	75.9773
 1.4840	76.0121
 1.4830	75.9519
 1.4820	75.9245
 1.4810	75.8683
 1.4800	75.8774
 1.4790	75.9192
 1.4780	75.8652
 1.4770	75.8328
 1.4760	75.8164
 1.4750	75.7757
 1.4740	75.7387
 1.4730	75.6818
 1.4720	75.6792
 1.4710	75.6736
 1.4700	75.6304
 1.4690	75.6078
 1.4680	75.5608
 1.4670	75.5293
 1.4660	75.4877
 1.4650	75.4810
 1.4640	75.3859
 1.4630	75.3209
 1.4620	75.3293
 1.4610	75.2516
 1.4600	75.1665
 1.4590	75.1293
 1.4580	75.0813
 1.4570	75.0365
 1.4560	74.9282
 1.4550	74.9001
 1.4540	74.8481
 1.4530	74.7740
 1.4520	74.6594
 1.4510	74.5763
 1.4500	74.4887
 1.4490	74.3560
 1.4480	74.3605
 1.4470	74.3252
 1.4460	74.1667
 1.4450	74.0196
 1.4440	73.9666
 1.4430	73.8833
 1.4420	73.6614
 1.4410	73.5003
 1.4400	73.3470
 1.4390	73.1869
 1.4380	72.8455
 1.4370	72.6365
 1.4360	72.4230
 1.4350	72.1101
 1.4340	71.8389
 1.4330	71.4765
 1.4320	71.0005
 1.4310	70.4874
 1.4300	69.8852
 1.4290	69.2202
 1.4280	68.3955
 1.4270	67.5360
 1.4260	66.4210
 1.4250	65.0452
 1.4240	63.5004
 1.4230	61.5931
 1.4220	59.6414
 1.4210	57.3874
 1.4200	54.8364
 1.4190	52.2188
 1.4180	49.6630
 1.4170	47.2344
 1.4160	44.9588
 1.4150	42.8874
 1.4140	41.0061
 1.4130	39.9677
 1.4120	39.3857
 1.4110	39.2442
 1.4100	39.4471
 1.4090	39.9149
 1.4080	40.3307
 1.4070	40.7953
 1.4060	41.0820
 1.4050	41.4996
 1.4040	41.8607
 1.4030	42.3790
 1.4020	42.8797
 1.4010	43.7303
 1.4000	44.8424
 1.3990	46.1750
 1.3980	47.7861
 1.3970	49.6358
 1.3960	51.7190
 1.3950	53.9096
 1.3940	56.0368
 1.3930	57.9244
 1.3920	59.4586
 1.3910	60.6902
 1.3900	61.5044
 1.3890	62.0845
 1.3880	62.2543
 1.3870	62.4017
 1.3860	62.4412
 1.3850	62.7101
 1.3840	63.2134
 1.3830	64.0982
 1.3820	65.2723
 1.3810	66.5222
 1.3800	67.7370
 1.3790	68.8510
 1.3780	69.6530
 1.3770	70.3127
 1.3760	70.7824
 1.3750	71.0620
 1.3740	71.1721
 1.3730	71.4099
 1.3720	71.5722
 1.3710	71.7122
 1.3700	71.7905
 1.3690	72.0216
 1.3680	72.0841
 1.3670	72.3029
 1.3660	72.3832
 1.3650	72.5638
 1.3640	72.6581
 1.3630	72.7832
 1.3620	72.8118
 1.3610	72.9257
 1.3600	73.0261
 1.3590	73.0650
 1.3580	73.1872
 1.3570	73.2046
 1.3560	73.2213
 1.3550	73.1994
 1.3540	73.2148
 1.3530	73.2695
 1.3520	73.2111
 1.3510	73.2712
 1.3500	73.1919
 1.3490	73.2213
 1.3480	73.1521
 1.3470	73.1010
 1.3460	73.0147
 1.3450	73.0457
 1.3440	72.9932
 1.3430	72.9178
 1.3420	72.7671
 1.3410	72.8377
 1.3400	72.7220
 1.3390	72.6172
 1.3380	72.5482
 1.3370	72.5291
 1.3360	72.4756
 1.3350	72.3598
 1.3340	72.3719
 1.3330	72.3394
 1.3320	72.2274
 1.3310	72.2716
 1.3300	72.1517
 1.3290	72.1450
 1.3280	72.1454
 1.3270	72.1219
 1.3260	72.0228
 1.3250	72.1115
 1.3240	72.0678
 1.3230	72.1304
 1.3220	72.0329
 1.3210	72.0015
 1.3200	72.0324
 1.3190	72.0426
 1.3180	72.0487
 1.3170	72.0742
 1.3160	72.0113
 1.3150	72.0075
 1.3140	72.0110
 1.3130	72.0453
 1.3120	72.0129
 1.3110	72.0956
 1.3100	72.1497
 1.3090	72.1513
 1.3080	72.1981
 1.3070	72.2178
 1.3060	72.1666
 1.3050	72.2355
 1.3040	72.2240
 1.3030	72.3195
 1.3020	72.2203
 1.3010	72.2616
 1.3000	72.2747
 1.2990	72.3037
 1.2980	72.2854
 1.2970	72.2932
 1.2960	72.3016
 1.2950	72.3026
 1.2940	72.3717
 1.2930	72.3776
 1.2920	72.3544
 1.2910	72.3371
 1.2900	72.3547
 1.2890	72.4656
 1.2880	72.3588
 1.2870	72.3085
 1.2860	72.3675
 1.2850	72.4089
 1.2840	72.5590
 1.2830	72.5501
 1.2820	72.4058
 1.2810	72.4692
 1.2800	72.4972
 1.2790	72.4680
 1.2780	72.4875
 1.2770	72.4791
 1.2760	72.5023
 1.2750	72.4778
 1.2740	72.5086
 1.2730	72.4381
 1.2720	72.4010
 1.2710	72.3837
 1.2700	72.3708
 1.2690	72.3545
 1.2680	72.3508
 1.2670	72.4215
 1.2660	72.3022
 1.2650	72.2268
 1.2640	72.2706
 1.2630	72.2723
 1.2620	72.1821
 1.2610	72.1193
 1.2600	72.0872
 1.2590	72.1137
 1.2580	72.0111
 1.2570	71.9522
 1.2560	71.8397
 1.2550	71.7823
 1.2540	71.7016
 1.2530	71.6938
 1.2520	71.5136
 1.2510	71.4599
 1.2500	71.4069
 1.2490	71.3393
 1.2480	71.2981
 1.2470	71.3050
 1.2460	71.2778
 1.2450	71.2841
 1.2440	71.2766
 1.2430	71.3484
 1.2420	71.3907
 1.2410	71.3530
 1.2400	71.3629
 1.2390	71.3831
 1.2380	71.4415
 1.2370	71.4699
 1.2360	71.4611
 1.2350	71.4605
 1.2340	71.4677
 1.2330	71.4638
 1.2320	71.4547
 1.2310	71.4042
 1.2300	71.3572
 1.2290	71.3573
 1.2280	71.3650
 1.2270	71.2849
 1.2260	71.2155
 1.2250	71.2320
 1.2240	71.2617
 1.2230	71.2444
 1.2220	71.1715
 1.2210	71.1377
 1.2200	71.1126
 1.2190	71.0707
 1.2180	71.0931
 1.2170	71.1092
 1.2160	71.0204
 1.2150	70.9888
 1.2140	70.9983
 1.2130	70.9749
 1.2120	70.9598
 1.2110	70.9145
 1.2100	70.9036
 1.2090	70.9068
 1.2080	70.8956
 1.2070	70.8365
 1.2060	70.8003
 1.2050	70.7839
 1.2040	70.7364
 1.2030	70.7006
 1.2020	70.6571
 1.2010	70.6402
 1.2000	70.6302
 1.1990	70.5766
 1.1980	70.5516
 1.1970	70.5090
 1.1960	70.4560
 1.1950	70.4483
 1.1940	70.4911
 1.1930	70.4641
 1.1920	70.4131
 1.1910	70.3903
 1.1900	70.2938
 1.1890	70.2512
 1.1880	70.2480
 1.1870	70.1919
 1.1860	70.1886
 1.1850	70.1460
 1.1840	70.0872
 1.1830	70.0676
 1.1820	70.0763
 1.1810	70.0579
 1.1800	69.9961
 1.1790	69.9157
 1.1780	69.9378
 1.1770	69.9329
 1.1760	69.9225
 1.1750	69.8480
 1.1740	69.8003
 1.1730	69.7741
 1.1720	69.7361
 1.1710	69.6989
 1.1700	69.6991
 1.1690	69.6720
 1.1680	69.6580
 1.1670	69.6096
 1.1660	69.5555
 1.1650	69.5323
 1.1640	69.5276
 1.1630	69.4331
 1.1620	69.4718
 1.1610	69.4031
 1.1600	69.3727
 1.1590	69.3189
 1.1580	69.3629
 1.1570	69.2659
 1.1560	69.2443
 1.1550	69.2627
 1.1540	69.2408
 1.1530	69.1812
 1.1520	69.1367
 1.1510	69.0712
 1.1500	69.0290
 1.1490	69.0461
 1.1480	68.9987
 1.1470	69.0563
 1.1460	68.9805
 1.1450	68.8902
 1.1440	68.9186
 1.1430	68.8738
 1.1420	68.8558
 1.1410	68.7758
 1.1400	68.8075
 1.1390	68.7790
 1.1380	68.7524
 1.1370	68.5586
 1.1360	68.5920
 1.1350	68.5368
 1.1340	68.5471
 1.1330	68.5105
 1.1320	68.4950
 1.1310	68.4321
 1.1300	68.4086
 1.1290	68.3065
 1.1280	68.2881
 1.1270	68.2864
 1.1260	68.2652
 1.1250	68.1199
 1.1240	68.1995
 1.1230	68.1106
 1.1220	68.1278
 1.1210	68.1752
 1.1200	68.0267
 1.1190	68.0077
 1.1180	67.9818
 1.1170	67.9211
 1.1160	67.9014
 1.1150	67.8494
 1.1140	67.9032
 1.1130	67.7770
 1.1120	67.7365
 1.1110	67.7491
 1.1100	67.6041
 1.1090	67.6349
 1.1080	67.5945
 1.1070	67.5706
 1.1060	67.4800
 1.1050	67.4806
 1.1040	67.4846
 1.1030	67.3997
 1.1020	67.3596
 1.1010	67.2944
 1.1000	67.3273
 1.0990	67.2292
 1.0980	67.2608
 1.0970	67.1880
 1.0960	67.2312
 1.0950	67.0050
 1.0940	67.1041
 1.0930	66.9847
 1.0920	66.9479
 1.0910	66.8649
 1.0900	66.9641
 1.0890	66.8521
 1.0880	66.8070
 1.0870	66.7815
 1.0860	66.8296
 1.0850	66.6836
 1.0840	66.8092
 1.0830	66.6381
 1.0820	66.6006
 1.0810	66.5381
 1.0800	66.5355
 1.0790	66.4318
 1.0780	66.4196
 1.0770	66.4341
 1.0760	66.4288
 1.0750	66.3320
 1.0740	66.2563
 1.0730	66.2343
 1.0720	66.2300
 1.0710	66.2118
 1.0700	66.0583
 1.0690	66.1124
 1.0680	66.1157
 1.0670	65.9707
 1.0660	65.9786
 1.0650	65.8427
 1.0640	65.8025
 1.0630	65.8068
 1.0620	65.8032
 1.0610	65.8039
 1.0600	65.6265
 1.0590	65.6790
 1.0580	65.6842
 1.0570	65.5679
 1.0560	65.5443
 1.0550	65.4014
 1.0540	65.4306
 1.0530	65.4413
 1.0520	65.3692
 1.0510	65.2803
 1.0500	65.2569
 1.0490	65.2372
 1.0480	65.1874
 1.0470	65.1756
 1.0460	65.1092
 1.0450	65.0497
 1.0440	65.0483
 1.0430	64.9435
 1.0420	64.9537
 1.0410	64.8709
 1.0400	64.8588
 1.0390	64.8375
 1.0380	64.7721
 1.0370	64.7279
 1.0360	64.6404
 1.0350	64.6148
 1.0340	64.6922
 1.0330	64.5706
 1.0320	64.5381
 1.0310	64.4497
 1.0300	64.4395
 1.0290	64.4483
 1.0280	64.3361
 1.0270	64.2779
 1.0260	64.2694
 1.0250	64.1755
 1.0240	64.1793
 1.0230	64.0738
 1.0220	64.0708
 1.0210	63.9786
 1.0200	64.0249
 1.0190	63.8684
 1.0180	63.9272
 1.0170	63.8486
 1.0160	63.8121
 1.0150	63.7587
 1.0140	63.7549
 1.0130	63.5875
 1.0120	63.6294
 1.0110	63.5654
 1.0100	63.6005
 1.0090	63.4735
 1.0080	63.4536
 1.0070	63.3744
 1.0060	63.3919
 1.0050	63.3116
 1.0040	63.2507
 1.0030	63.1276
 1.0020	63.0864
 1.0010	63.0930
 1.0000	63.0491
 0.9990	63.0068
 0.9980	62.9961
 0.9970	62.9470
 0.9960	62.9073
 0.9950	62.8543
 0.9940	62.8189
 0.9930	62.7724
 0.9920	62.7035
 0.9910	62.6303
 0.9900	62.6099
 0.9890	62.5608
 0.9880	62.4888
 0.9870	62.4406
 0.9860	62.3792
 0.9850	62.3792
 0.9840	62.2957
 0.9830	62.2229
 0.9820	62.2020
 0.9810	62.1195
 0.9800	62.0574
 0.9790	61.9631
 0.9780	62.0036
 0.9770	61.8765
 0.9760	61.7773
 0.9750	61.6695
 0.9740	61.6035
 0.9730	61.4587
 0.9720	61.3501
 0.9710	61.1583
 0.9700	60.9940
 0.9690	60.8189
 0.9680	60.5925
 0.9670	60.4184
 0.9660	60.2599
 0.9650	60.1143
 0.9640	60.0474
 0.9630	60.0218
 0.9620	60.0326
 0.9610	59.9719
 0.9600	59.9604
 0.9590	59.9504
 0.9580	59.9673
 0.9570	60.0018
 0.9560	60.0081
 0.9550	60.0641
 0.9540	60.1470
 0.9530	60.1866
 0.9520	60.2685
 0.9510	60.2909
 0.9500	60.3343
 0.9490	60.3468
 0.9480	60.3131
 0.9470	60.2465
 0.9460	60.2193
 0.9450	60.2184
 0.9440	60.2238
 0.9430	60.1781
 0.9420	60.1805
 0.9410	60.1460
 0.9400	60.0700
 0.9390	60.0547
 0.9380	60.0763
 0.9370	60.0352
 0.9360	59.9531
 0.9350	59.9813
 0.9340	59.9299
 0.9330	59.7501
 0.9320	59.7514
 0.9310	59.7728
 0.9300	59.7704
 0.9290	59.7116
 0.9280	59.6160
 0.9270	59.5494
 0.9260	59.4994
 0.9250	59.4833
 0.9240	59.4061
 0.9230	59.3502
 0.9220	59.2741
 0.9210	59.1684
 0.9200	59.1452
 0.9190	59.2227
 0.9180	59.1906
 0.9170	59.0919
 0.9160	59.0256
 0.9150	58.9781
 0.9140	58.9543
 0.9130	58.9437
 0.9120	58.8520
 0.9110	58.8213
 0.9100	58.7915
 0.9090	58.7893
 0.9080	58.7477
 0.9070	58.6797
 0.9060	58.6231
 0.9050	58.5877
 0.9040	58.5535
 0.9030	58.5296
 0.9020	58.4244
 0.9010	58.3881
 0.9000	58.3760
 0.8990	58.3284
 0.8980	58.2265
 0.8970	58.2635
 0.8960	58.2348
 0.8950	58.1752
 0.8940	58.0952
 0.8930	58.0827
 0.8920	58.0381
 0.8910	57.9946
 0.8900	57.9609
 0.8890	57.9515
 0.8880	57.8307
 0.8870	57.7915
 0.8860	57.7599
 0.8850	57.7971
 0.8840	57.7248
 0.8830	57.6942
 0.8820	57.5980
 0.8810	57.5743
 0.8800	57.5532
 0.8790	57.5316
 0.8780	57.4441
 0.8770	57.4541
 0.8760	57.4074
 0.8750	57.3263
 0.8740	57.2674
 0.8730	57.2669
 0.8720	57.2083
 0.8710	57.1841
 0.8700	57.1346
 0.8690	57.0742
 0.8680	57.0401
 0.8670	57.0578
 0.8660	56.9943
 0.8650	56.9446
 0.8640	56.8697
 0.8630	56.8357
 0.8620	56.8058
 0.8610	56.7374
 0.8600	56.6572
 0.8590	56.5947
 0.8580	56.6041
 0.8570	56.5756
 0.8560	56.5177
 0.8550	56.3866
 0.8540	56.4116
 0.8530	56.3609
 0.8520	56.2883
 0.8510	56.3416
 0.8500	56.3393
 0.8490	56.2605
 0.8480	56.2648
 0.8470	56.2274
 0.8460	56.1395
 0.8450	56.0708
 0.8440	56.0676
 0.8430	56.0382
 0.8420	56.0232
 0.8410	56.0164
 0.8400	55.9470
 0.8390	55.9120
 0.8380	55.9136
 0.8370	55.8587
 0.8360	55.8161
 0.8350	55.7977
 0.8340	55.8161
 0.8330	55.7223
 0.8320	55.7000
 0.8310	55.6947
 0.8300	55.6502
 0.8290	55.6051
 0.8280	55.5954
 0.8270	55.5378
 0.8260	55.5121
 0.8250	55.5378
 0.8240	55.4757
 0.8230	55.4561
 0.8220	55.4387
 0.8210	55.4213
 0.8200	55.3842
 0.8190	55.3874
 0.8180	55.3428
 0.8170	55.3159
 0.8160	55.2528
 0.8150	55.2811
 0.8140	55.2104
 0.8130	55.2325
 0.8120	55.2229
 0.8110	55.1951
 0.8100	55.2002
 0.8090	55.1355
 0.8080	55.1515
 0.8070	55.0972
 0.8060	55.0928
 0.8050	55.0596
 0.8040	55.0763
 0.8030	55.0663
 0.8020	54.9941
 0.8010	54.9920
 0.8000	55.0048
 0.7990	54.9763
 0.7980	54.9153
 0.7970	54.9318
 0.7960	54.8626
 0.7950	54.8430
 0.7940	54.8120
 0.7930	54.8173
 0.7920	54.8332
 0.7910	54.8230
 0.7900	54.7791
 0.7890	54.8136
 0.7880	54.7240
 0.7870	54.7598
 0.7860	54.7324
 0.7850	54.7374
 0.7840	54.7516
 0.7830	54.6700
 0.7820	54.6992
 0.7810	54.6627
 0.7800	54.6536
 0.7790	54.7008
 0.7780	54.6044
 0.7770	54.6638
 0.7760	54.6548
 0.7750	54.6331
 0.7740	54.6862
 0.7730	54.6449
 0.7720	54.6458
 0.7710	54.6507
 0.7700	54.6194
 0.7690	54.5989
 0.7680	54.6335
 0.7670	54.6652
 0.7660	54.6305
 0.7650	54.6319
 0.7640	54.6229
 0.7630	54.6293
 0.7620	54.6340
 0.7610	54.6508
 0.7600	54.6009
 0.7590	54.6368
 0.7580	54.6280
 0.7570	54.6748
 0.7560	54.6708
 0.7550	54.6733
 0.7540	54.6799
 0.7530	54.6931
 0.7520	54.6966
 0.7510	54.7111
 0.7500	54.6929
 0.7490	54.7387
 0.7480	54.7370
 0.7470	54.7051
 0.7460	54.7247
 0.7450	54.7447
 0.7440	54.7423
 0.7430	54.7680
 0.7420	54.7895
 0.7410	54.7746
 0.7400	54.8035
 0.7390	54.8308
 0.7380	54.8297
 0.7370	54.8417
 0.7360	54.8822
 0.7350	54.9418
 0.7340	54.9313
 0.7330	54.9435
 0.7320	54.9515
 0.7310	54.9894
 0.7300	55.0074
 0.7290	55.0163
 0.7280	55.0396
 0.7270	55.0670
 0.7260	55.0755
 0.7250	55.1151
 0.7240	55.1449
 0.7230	55.1575
 0.7220	55.1964
 0.7210	55.2194
 0.7200	55.2329
 0.7190	55.2474
 0.7180	55.2805
 0.7170	55.3034
 0.7160	55.3272
 0.7150	55.3477
 0.7140	55.3812
 0.7130	55.3944
 0.7120	55.4480
 0.7110	55.4479
 0.7100	55.4931
 0.7090	55.5063
 0.7080	55.5404
 0.7070	55.5857
 0.7060	55.5895
 0.7050	55.6342
 0.7040	55.6544
 0.7030	55.6986
 0.7020	55.7289
 0.7010	55.7495
 0.7000	55.7736
 0.6990	55.7859
 0.6980	55.8206
 0.6970	55.8473
 0.6960	55.8681
 0.6950	55.9022
 0.6940	55.9292
 0.6930	55.9625
 0.6920	55.9717
 0.6910	55.9840
 0.6900	56.0180
 0.6890	56.0396
 0.6880	56.0637
 0.6870	56.0767
 0.6860	56.1084
 0.6850	56.1348
 0.6840	56.1479
 0.6830	56.1450
 0.6820	56.1707
 0.6810	56.2140
 0.6800	56.2212
 0.6790	56.2281
 0.6780	56.2201
 0.6770	56.2278
 0.6760	56.2394
 0.6750	56.2478
 0.6740	56.2410
 0.6730	56.2264
 0.6720	56.2338
 0.6710	56.2252
 0.6700	56.2036
 0.6690	56.2053
 0.6680	56.1813
 0.6670	56.1528
 0.6660	56.1431
 0.6650	56.1238
 0.6640	56.1012
 0.6630	56.0707
 0.6620	56.0251
 0.6610	55.9848
 0.6600	55.9428
 0.6590	55.8917
 0.6580	55.8499
 0.6570	55.7971
 0.6560	55.7280
 0.6550	55.6600
 0.6540	55.5848
 0.6530	55.5247
 0.6520	55.4541
 0.6510	55.3594
 0.6500	55.2759
 0.6490	55.1873
 0.6480	55.0933
 0.6470	54.9886
 0.6460	54.8805
 0.6450	54.7662
 0.6440	54.6438
 0.6430	54.5133
 0.6420	54.3967
 0.6410	54.2714
 0.6400	54.1365
 0.6390	53.9905
 0.6380	53.8350
 0.6370	53.6884
 0.6360	53.5337
 0.6350	53.3660
 0.6340	53.2100
 0.6330	53.0505
 0.6320	52.8717
 0.6310	52.6885
 0.6300	52.5098
 0.6290	52.3288
 0.6280	52.1324
 0.6270	51.9342
 0.6260	51.7478
 0.6250	51.5493
 0.6240	51.3368
 0.6230	51.1223
 0.6220	50.9134
 0.6210	50.7132
 0.6200	50.5065
 0.6190	50.2898
 0.6180	50.0717
 0.6170	49.8580
 0.6160	49.6447
 0.6150	49.4135
 0.6140	49.1913
 0.6130	48.9707
 0.6120	48.7394
 0.6110	48.5198
 0.6100	48.2941
 0.6090	48.0704
 0.6080	47.8542
 0.6070	47.6350
 0.6060	47.4067
 0.6050	47.1820
 0.6040	46.9611
 0.6030	46.7402
 0.6020	46.5304
 0.6010	46.3212
 0.6000	46.1116
 0.5990	45.9109
 0.5980	45.7101
 0.5970	45.5138
 0.5960	45.3199
 0.5950	45.1284
 0.5940	44.9260
 0.5930	44.7418
 0.5920	44.5539
 0.5910	44.3644
 0.5900	44.1890
 0.5890	44.0214
 0.5880	43.8503
 0.5870	43.6827
 0.5860	43.5226
 0.5850	43.3599
 0.5840	43.2031
 0.5830	43.0610
 0.5820	42.9124
 0.5810	42.7752
 0.5800	42.6491
 0.5790	42.5259
 0.5780	42.4101
 0.5770	42.2983
 0.5760	42.1999
 0.5750	42.1000
 0.5740	41.9960
 0.5730	41.9162
 0.5720	41.8358
 0.5710	41.7612
 0.5700	41.6887
 0.5690	41.6365
 0.5680	41.5809
 0.5670	41.5365
 0.5660	41.4902
 0.5650	41.4529
 0.5640	41.4323
 0.5630	41.4059
 0.5620	41.3903
 0.5610	41.3728
 0.5600	41.3712
 0.5590	41.3762
 0.5580	41.3854
 0.5570	41.3988
 0.5560	41.4287
 0.5550	41.4628
 0.5540	41.4896
 0.5530	41.5283
 0.5520	41.5693
 0.5510	41.6169
 0.5500	41.6737
 0.5490	41.7370
 0.5480	41.8027
 0.5470	41.8648
 0.5460	41.9418
 0.5450	42.0210
 0.5440	42.1006
 0.5430	42.1874
 0.5420	42.2908
 0.5410	42.3845
 0.5400	42.4891
 0.5390	42.6018
 0.5380	42.7025
 0.5370	42.8161
 0.5360	42.9260
 0.5350	43.0321
 0.5340	43.1425
 0.5330	43.2557
 0.5320	43.3775
 0.5310	43.4944
 0.5300	43.6213
 0.5290	43.7486
 0.5280	43.8774
 0.5270	44.0072
 0.5260	44.1416
 0.5250	44.2632
 0.5240	44.4032
 0.5230	44.5357
 0.5220	44.6814
 0.5210	44.8197
 0.5200	44.9654
 0.5190	45.1057
 0.5180	45.2457
 0.5170	45.3952
 0.5160	45.5308
 0.5150	45.6695
 0.5140	45.8136
 0.5130	45.9521
 0.5120	46.0905
 0.5110	46.2218
 0.5100	46.3613
 0.5090	46.4969
 0.5080	46.6332
 0.5070	46.7519
 0.5060	46.8697
 0.5050	46.9916
 0.5040	47.1106
 0.5030	47.2140
 0.5020	47.3205
 0.5010	47.4327
 0.5000	47.5337
 0.4990	47.6285
 0.4980	47.7173
 0.4970	47.8094
 0.4960	47.9040
 0.4950	47.9981
 0.4940	48.0706
 0.4930	48.1595
 0.4920	48.2109
 0.4910	48.2787
 0.4900	48.3443
 0.4890	48.4182
 0.4880	48.4662
 0.4870	48.5232
 0.4860	48.5801
 0.4850	48.6279
 0.4840	48.6719
 0.4830	48.7174
 0.4820	48.7662
 0.4810	48.7995
 0.4800	48.8597
 0.4790	48.8858
 0.4780	48.9198
 0.4770	48.9624
 0.4760	49.0109
 0.4750	49.0391
 0.4740	49.0473
 0.4730	49.1176
 0.4720	49.1461
 0.4710	49.1829
 0.4700	49.2256
 0.4690	49.2651
 0.4680	49.3061
 0.4670	49.3597
 0.4660	49.3912
 0.4650	49.4373
 0.4640	49.4637
 0.4630	49.4859
 0.4620	49.5127
 0.4610	49.5403
 0.4600	49.5519
 0.4590	49.5576
 0.4580	49.5841
 0.4570	49.5862
 0.4560	49.6132
 0.4550	49.6077
 0.4540	49.6124
 0.4530	49.6350
 0.4520	49.6377
 0.4510	49.6440
 0.4500	49.6493
 0.4490	49.6400
 0.4480	49.6439
 0.4470	49.6432
 0.4460	49.6703
 0.4450	49.6648
 0.4440	49.6694
 0.4430	49.6709
 0.4420	49.6796
 0.4410	49.6948
 0.4400	49.7097
 0.4390	49.7265
 0.4380	49.7313
 0.4370	49.7424
 0.4360	49.7444
 0.4350	49.7529
 0.4340	49.7671
 0.4330	49.7826
 0.4320	49.7856
 0.4310	49.7941
 0.4300	49.8169
 0.4290	49.8187
 0.4280	49.8398
 0.4270	49.8422
 0.4260	49.8511
 0.4250	49.8701
 0.4240	49.8583
 0.4230	49.8498
 0.4220	49.8446
 0.4210	49.8197
 0.4200	49.7959
 0.4190	49.7889
 0.4180	49.7773
 0.4170	49.7738
 0.4160	49.7863
 0.4150	49.8332
 0.4140	49.8531
 0.4130	49.8870
 0.4120	49.9321
 0.4110	49.9804
 0.4100	50.0566
 0.4090	50.1232
 0.4080	50.1437
 0.4070	50.1946
 0.4060	50.2275
 0.4050	50.2340
 0.4040	50.2479
 0.4030	50.2793
 0.4020	50.3047
 0.4010	50.3054
 0.4000	50.3157
