Name: Lepidolite K(Li,Al)3(Si,Al)_4O_10(F,OH)_2
Type: Mineral
Class: Silicate
Subclass: Phyllosilicate
Particle Size: Medium
Sample No.: PS-13B
Owner: JPL
Wavelength Range: VSWIR
Origin: South Africa
Collection Date: N/A
Description: Lavender lepidolite. Particle size was 45-125um.Collected by Ward's Original ASTER Spectral Library name was jpl.beckman.mineral.silicate.phyllosilicate.medium.ps13b.spectrum.txt
Measurement: Hemispherical reflectance
First Column: X
Second Column: Y
X Units: Wavelength (micrometers)
Y Units:Reflectance (percent)
First X Value:  0.4000
Last X Value:  2.5000
Number of X Values: 826
Additional Information: mineral.silicate.phyllosilicate.medium.vswir.ps-13b.jpl.beckman.ancillary.txt

 0.4000	59.4800
 0.4010	59.6000
 0.4020	59.4300
 0.4030	59.2000
 0.4040	59.4300
 0.4050	59.6600
 0.4060	59.4800
 0.4070	59.4300
 0.4080	59.2500
 0.4090	59.4300
 0.4100	59.6000
 0.4110	59.3700
 0.4120	59.2000
 0.4130	59.0800
 0.4140	59.2500
 0.4150	59.4800
 0.4160	59.4300
 0.4170	59.2000
 0.4180	59.0800
 0.4190	59.2500
 0.4200	59.4300
 0.4210	59.3700
 0.4220	59.2000
 0.4230	59.0800
 0.4240	59.4300
 0.4250	59.4800
 0.4260	59.3700
 0.4270	59.2000
 0.4280	59.2000
 0.4290	59.4300
 0.4300	59.4800
 0.4310	59.2000
 0.4320	59.1400
 0.4330	59.0800
 0.4340	59.3100
 0.4350	59.3700
 0.4360	59.1400
 0.4370	59.0800
 0.4380	59.1400
 0.4390	59.4800
 0.4400	59.3700
 0.4410	59.2000
 0.4420	58.9700
 0.4430	59.2000
 0.4440	59.4300
 0.4450	59.4300
 0.4460	59.2000
 0.4470	59.0800
 0.4480	59.2000
 0.4490	59.3700
 0.4500	59.2500
 0.4510	59.0200
 0.4520	58.9700
 0.4530	59.2100
 0.4540	59.4900
 0.4550	59.3200
 0.4560	58.9800
 0.4570	59.0300
 0.4580	59.1500
 0.4590	59.3800
 0.4600	59.2600
 0.4610	59.1500
 0.4620	59.1000
 0.4630	59.2700
 0.4640	59.1000
 0.4650	59.0400
 0.4660	58.8700
 0.4670	59.0400
 0.4680	59.1700
 0.4690	59.0500
 0.4700	58.8800
 0.4710	58.7700
 0.4720	58.8800
 0.4730	59.0000
 0.4740	58.8800
 0.4750	58.6600
 0.4760	58.7200
 0.4770	58.8300
 0.4780	59.0100
 0.4790	58.7800
 0.4800	58.5500
 0.4810	58.6000
 0.4820	58.7200
 0.4830	58.7900
 0.4840	58.4400
 0.4850	58.3800
 0.4860	58.3800
 0.4870	58.6700
 0.4880	58.6700
 0.4890	58.2800
 0.4900	58.0500
 0.4910	58.1600
 0.4920	58.2800
 0.4930	58.2800
 0.4940	57.9900
 0.4950	57.8800
 0.4960	57.7700
 0.4970	57.9900
 0.4980	57.9400
 0.4990	57.6000
 0.5000	57.4300
 0.5010	57.3700
 0.5020	57.6000
 0.5030	57.4300
 0.5040	57.1500
 0.5050	56.9800
 0.5060	56.8600
 0.5070	57.0900
 0.5080	56.9800
 0.5090	56.5800
 0.5100	56.4000
 0.5110	56.4000
 0.5120	56.5800
 0.5130	56.2900
 0.5140	55.8900
 0.5150	55.8300
 0.5160	55.7700
 0.5170	55.8300
 0.5180	55.6600
 0.5190	55.2700
 0.5200	55.0900
 0.5210	55.0900
 0.5220	55.2100
 0.5230	55.0400
 0.5240	54.5800
 0.5250	54.4600
 0.5260	54.3500
 0.5270	54.5200
 0.5280	54.1700
 0.5290	54.0000
 0.5300	53.9400
 0.5310	54.0000
 0.5320	53.9400
 0.5330	53.6100
 0.5340	53.2600
 0.5350	53.2100
 0.5360	53.2100
 0.5370	53.2100
 0.5380	52.9200
 0.5390	52.8100
 0.5400	52.7500
 0.5410	52.8600
 0.5420	52.8100
 0.5430	52.4600
 0.5440	52.2900
 0.5450	52.3500
 0.5460	52.4000
 0.5470	52.3500
 0.5480	52.1800
 0.5490	52.0100
 0.5500	52.0700
 0.5510	52.2900
 0.5520	52.1800
 0.5530	52.0700
 0.5540	51.9500
 0.5550	52.0100
 0.5560	52.0100
 0.5570	52.0100
 0.5580	51.8400
 0.5590	51.8400
 0.5600	51.9000
 0.5610	52.2300
 0.5620	52.0700
 0.5630	51.9500
 0.5640	52.0100
 0.5650	52.2900
 0.5660	52.2900
 0.5670	52.0700
 0.5680	52.0100
 0.5690	52.0700
 0.5700	52.3500
 0.5710	52.4600
 0.5720	52.2300
 0.5730	52.2300
 0.5740	52.3500
 0.5750	52.5800
 0.5760	52.7500
 0.5770	52.6900
 0.5780	52.8100
 0.5790	52.8600
 0.5800	53.2100
 0.5810	53.3800
 0.5820	53.2600
 0.5830	53.3200
 0.5840	53.4400
 0.5850	53.7800
 0.5860	54.0600
 0.5870	53.8900
 0.5880	54.0600
 0.5890	54.2300
 0.5900	54.5800
 0.5910	54.7500
 0.5920	54.8600
 0.5930	54.8600
 0.5940	55.1500
 0.5950	55.4900
 0.5960	55.7100
 0.5970	55.5400
 0.5980	55.6600
 0.5990	56.0000
 0.6000	56.4600
 0.6010	56.6900
 0.6020	56.6300
 0.6030	56.8600
 0.6040	57.0900
 0.6050	57.5400
 0.6060	57.6600
 0.6070	57.6600
 0.6080	57.8300
 0.6090	58.0000
 0.6100	58.4000
 0.6110	58.5800
 0.6120	58.4600
 0.6130	58.7500
 0.6140	58.9700
 0.6150	59.3700
 0.6160	59.5400
 0.6170	59.4300
 0.6180	59.7200
 0.6190	59.8900
 0.6200	60.2900
 0.6210	60.4000
 0.6220	60.3500
 0.6230	60.4600
 0.6240	60.9100
 0.6250	61.2000
 0.6260	61.3100
 0.6270	61.1400
 0.6280	61.3700
 0.6290	61.7700
 0.6300	62.0600
 0.6310	62.1200
 0.6320	62.0000
 0.6330	62.2800
 0.6340	62.6200
 0.6350	62.6800
 0.6360	62.6800
 0.6370	62.6200
 0.6380	63.0300
 0.6390	63.2600
 0.6400	63.3100
 0.6410	63.3100
 0.6420	63.1400
 0.6430	63.4900
 0.6440	63.8200
 0.6450	63.8800
 0.6460	63.8200
 0.6470	63.7200
 0.6480	63.9900
 0.6490	64.1700
 0.6500	64.2200
 0.6510	64.1700
 0.6520	64.1100
 0.6530	64.5100
 0.6540	64.6300
 0.6550	64.5100
 0.6560	64.3400
 0.6570	64.4000
 0.6580	64.7400
 0.6590	64.8000
 0.6600	64.6800
 0.6610	64.5700
 0.6620	64.6800
 0.6630	65.0300
 0.6640	65.0300
 0.6650	64.8000
 0.6660	64.8000
 0.6670	64.8500
 0.6680	65.1400
 0.6690	65.1400
 0.6700	65.0300
 0.6710	64.9100
 0.6720	64.9100
 0.6730	65.2000
 0.6740	65.1400
 0.6750	64.9700
 0.6760	64.8500
 0.6770	64.9700
 0.6780	65.2600
 0.6790	65.2000
 0.6800	64.8000
 0.6810	64.8500
 0.6820	65.0300
 0.6830	65.2000
 0.6840	65.0800
 0.6850	64.6800
 0.6860	64.8000
 0.6870	64.8500
 0.6880	65.0800
 0.6890	64.9700
 0.6900	64.6800
 0.6910	64.6300
 0.6920	64.8000
 0.6930	65.0300
 0.6940	64.8500
 0.6950	64.5700
 0.6960	64.6800
 0.6970	65.0300
 0.6980	65.0300
 0.6990	64.8000
 0.7000	64.7400
 0.7010	64.5100
 0.7020	64.8000
 0.7030	64.6300
 0.7040	64.4500
 0.7050	64.5100
 0.7060	64.5700
 0.7070	64.8000
 0.7080	64.5700
 0.7090	64.2800
 0.7100	64.4500
 0.7110	64.5100
 0.7120	64.6800
 0.7130	64.5100
 0.7140	64.4000
 0.7150	64.5100
 0.7160	64.5700
 0.7170	64.6300
 0.7180	64.3400
 0.7190	64.2800
 0.7200	64.5100
 0.7210	64.5700
 0.7220	64.5700
 0.7230	64.3400
 0.7240	64.2800
 0.7250	64.3400
 0.7260	64.5100
 0.7270	64.4500
 0.7280	64.2200
 0.7290	64.2200
 0.7300	64.2800
 0.7310	64.4500
 0.7320	64.3400
 0.7330	63.9900
 0.7340	64.0500
 0.7350	64.2800
 0.7360	64.4000
 0.7370	64.3400
 0.7380	64.0500
 0.7390	64.0500
 0.7400	64.2200
 0.7410	64.3400
 0.7420	64.2800
 0.7430	63.9400
 0.7440	63.9900
 0.7450	64.1700
 0.7460	64.4000
 0.7470	64.2800
 0.7480	64.0500
 0.7490	63.9900
 0.7500	64.2200
 0.7510	64.2200
 0.7520	64.2800
 0.7530	64.1100
 0.7540	64.2200
 0.7550	64.5700
 0.7560	64.6300
 0.7570	64.6300
 0.7580	64.3400
 0.7590	64.4000
 0.7600	64.5700
 0.7610	64.5100
 0.7620	64.2200
 0.7630	64.2200
 0.7640	64.3400
 0.7650	64.5100
 0.7660	64.3400
 0.7670	64.0500
 0.7680	63.9400
 0.7690	64.1700
 0.7700	64.4500
 0.7710	64.2800
 0.7720	64.0500
 0.7730	64.1700
 0.7740	64.4000
 0.7750	64.8000
 0.7760	64.5700
 0.7770	64.4500
 0.7780	64.5100
 0.7790	64.5700
 0.7800	64.8500
 0.7810	64.6300
 0.7820	64.4500
 0.7830	64.6300
 0.7840	64.7400
 0.7850	64.8000
 0.7860	64.6300
 0.7870	64.5100
 0.7880	64.5100
 0.7890	64.5700
 0.7900	64.6300
 0.7910	64.4000
 0.7920	64.4500
 0.7930	64.5700
 0.7940	64.6800
 0.7950	64.8000
 0.7960	64.4500
 0.7970	64.4500
 0.7980	64.6300
 0.7990	65.2600
 0.8000	65.2800
 0.8040	65.3700
 0.8080	65.3100
 0.8120	65.4300
 0.8160	65.4800
 0.8200	65.6500
 0.8240	65.7600
 0.8280	65.8200
 0.8320	65.9400
 0.8360	66.1100
 0.8400	66.1100
 0.8440	66.4000
 0.8480	66.5100
 0.8520	66.7400
 0.8560	66.7400
 0.8600	67.0300
 0.8640	67.0800
 0.8680	67.2500
 0.8720	67.2500
 0.8760	67.4200
 0.8800	67.5300
 0.8840	67.7100
 0.8880	67.8800
 0.8920	67.9900
 0.8960	67.9900
 0.9000	68.2200
 0.9040	68.4000
 0.9080	68.5700
 0.9120	68.5700
 0.9160	68.7900
 0.9200	68.8500
 0.9240	69.0800
 0.9280	69.1300
 0.9320	69.3100
 0.9360	69.4200
 0.9400	69.4800
 0.9440	69.5900
 0.9480	69.5900
 0.9520	69.3100
 0.9560	69.5300
 0.9600	69.5900
 0.9640	69.9900
 0.9680	70.5000
 0.9720	70.8500
 0.9760	70.9600
 0.9800	71.2500
 0.9840	71.4800
 0.9880	71.5900
 0.9920	71.7100
 0.9960	71.8200
 1.0000	72.0500
 1.0040	72.1000
 1.0080	72.1600
 1.0120	72.3900
 1.0160	72.5600
 1.0200	72.7900
 1.0240	72.7900
 1.0280	72.9000
 1.0320	73.0200
 1.0360	73.3600
 1.0400	73.3600
 1.0440	73.4800
 1.0480	73.5400
 1.0520	73.7600
 1.0560	73.9300
 1.0600	73.8700
 1.0640	74.0400
 1.0680	74.2700
 1.0720	74.2700
 1.0760	74.5600
 1.0800	74.6200
 1.0840	74.6700
 1.0880	74.7900
 1.0920	75.0800
 1.0960	75.0800
 1.1000	75.1900
 1.1040	75.3100
 1.1080	75.5300
 1.1120	75.5800
 1.1160	75.7600
 1.1200	75.8100
 1.1240	75.9900
 1.1280	76.1000
 1.1320	76.2200
 1.1360	76.2700
 1.1400	76.2700
 1.1440	76.3300
 1.1480	76.5000
 1.1520	76.6200
 1.1560	76.7200
 1.1600	76.8800
 1.1640	76.9300
 1.1680	77.0400
 1.1720	77.0900
 1.1760	77.2000
 1.1800	77.3100
 1.1840	77.3600
 1.1880	77.2900
 1.1920	77.6400
 1.1960	77.6300
 1.2000	77.9100
 1.2040	77.6800
 1.2080	77.9100
 1.2120	77.8500
 1.2160	78.1400
 1.2200	78.0200
 1.2240	78.1400
 1.2280	78.0800
 1.2320	78.1900
 1.2360	78.1400
 1.2400	78.1400
 1.2440	78.1900
 1.2480	78.3700
 1.2520	78.4800
 1.2560	78.6400
 1.2600	78.6900
 1.2640	78.8500
 1.2680	78.8400
 1.2720	78.8400
 1.2760	78.8900
 1.2800	78.8900
 1.2840	78.8800
 1.2880	78.8100
 1.2920	78.8100
 1.2960	78.6300
 1.3000	78.5700
 1.3040	78.6200
 1.3080	78.6100
 1.3120	78.4900
 1.3160	78.5400
 1.3200	78.4800
 1.3240	78.7500
 1.3280	78.6900
 1.3320	79.0900
 1.3360	79.1400
 1.3400	79.3600
 1.3440	79.4100
 1.3480	79.4000
 1.3520	79.2300
 1.3560	79.1700
 1.3600	78.7700
 1.3640	78.3200
 1.3680	77.6900
 1.3720	76.2100
 1.3760	73.9400
 1.3800	71.7200
 1.3840	69.2700
 1.3880	65.6800
 1.3920	60.5600
 1.3960	56.2300
 1.4000	53.6100
 1.4040	52.9300
 1.4080	54.7600
 1.4120	60.1800
 1.4160	67.1200
 1.4200	72.7700
 1.4240	75.9100
 1.4280	77.9100
 1.4320	78.9900
 1.4360	79.5700
 1.4400	79.9800
 1.4440	80.3200
 1.4480	80.7400
 1.4520	80.9600
 1.4560	80.9600
 1.4600	81.2400
 1.4640	81.3600
 1.4680	81.4700
 1.4720	81.5300
 1.4760	81.7600
 1.4800	81.7000
 1.4840	81.8700
 1.4880	81.8700
 1.4920	81.9900
 1.4960	81.9900
 1.5000	82.0500
 1.5040	82.3900
 1.5080	82.3900
 1.5120	82.4500
 1.5160	82.3900
 1.5200	82.6100
 1.5240	82.5500
 1.5280	82.6100
 1.5320	82.5000
 1.5360	82.7800
 1.5400	82.6700
 1.5440	82.7300
 1.5480	82.7300
 1.5520	82.8400
 1.5560	82.9600
 1.5600	82.9600
 1.5640	83.0100
 1.5680	83.0100
 1.5720	83.0700
 1.5760	83.0700
 1.5800	83.0700
 1.5840	83.3000
 1.5880	83.2400
 1.5920	83.2400
 1.5960	83.1800
 1.6000	83.3600
 1.6040	83.3500
 1.6080	83.3400
 1.6120	83.1100
 1.6160	83.2700
 1.6200	83.2600
 1.6240	83.4200
 1.6280	83.3600
 1.6320	83.3600
 1.6360	83.3000
 1.6400	83.2900
 1.6440	83.2200
 1.6480	83.2700
 1.6520	83.3800
 1.6560	83.5400
 1.6600	83.3700
 1.6640	83.5900
 1.6680	83.5200
 1.6720	83.5200
 1.6760	83.5700
 1.6800	83.5600
 1.6840	83.6700
 1.6880	83.4800
 1.6920	83.6600
 1.6960	83.5900
 1.7000	83.5900
 1.7040	83.6500
 1.7080	83.7500
 1.7120	83.7500
 1.7160	83.6500
 1.7200	83.5900
 1.7240	83.6500
 1.7280	83.6500
 1.7320	83.6500
 1.7360	83.6900
 1.7400	83.6500
 1.7440	83.5300
 1.7480	83.4700
 1.7520	83.3600
 1.7560	83.3600
 1.7600	83.5300
 1.7640	83.3600
 1.7680	83.3000
 1.7720	83.4700
 1.7760	83.5300
 1.7800	83.5300
 1.7840	83.4200
 1.7880	83.4200
 1.7920	83.5900
 1.7960	83.5300
 1.8000	83.4200
 1.8040	83.3300
 1.8080	83.3700
 1.8120	83.0500
 1.8160	82.7900
 1.8200	82.7100
 1.8240	82.6800
 1.8280	82.4900
 1.8320	82.4000
 1.8360	82.4300
 1.8400	82.5300
 1.8440	82.5500
 1.8480	82.5800
 1.8520	82.5700
 1.8560	82.5600
 1.8600	82.4400
 1.8640	82.4300
 1.8680	82.2500
 1.8720	81.9700
 1.8760	81.6800
 1.8800	81.5500
 1.8840	81.1500
 1.8880	80.7500
 1.8920	80.4000
 1.8960	80.2900
 1.9000	80.0500
 1.9040	79.9800
 1.9080	80.0900
 1.9120	80.0300
 1.9160	80.1400
 1.9200	80.1400
 1.9240	80.3000
 1.9280	80.2900
 1.9320	80.4600
 1.9360	80.3300
 1.9400	80.6100
 1.9440	80.4900
 1.9480	80.5900
 1.9520	80.5800
 1.9560	80.6200
 1.9600	80.6600
 1.9640	80.5800
 1.9680	80.6200
 1.9720	80.7700
 1.9760	80.8000
 1.9800	80.7900
 1.9840	80.7700
 1.9880	80.9100
 1.9920	80.9500
 1.9960	80.8700
 2.0000	81.0200
 2.0040	81.0100
 2.0080	81.0100
 2.0120	80.9000
 2.0160	81.0300
 2.0200	81.0600
 2.0240	81.1000
 2.0280	80.7600
 2.0320	80.9800
 2.0360	80.7800
 2.0400	80.8100
 2.0440	80.5800
 2.0480	80.5100
 2.0520	80.4000
 2.0560	80.2000
 2.0600	79.9500
 2.0640	79.5700
 2.0680	79.4300
 2.0720	78.9000
 2.0760	78.4800
 2.0800	77.8300
 2.0840	77.3500
 2.0880	76.7000
 2.0920	75.9500
 2.0960	75.3100
 2.1000	74.7200
 2.1040	74.1400
 2.1080	73.8300
 2.1120	73.4700
 2.1160	73.3200
 2.1200	73.1300
 2.1240	73.0100
 2.1280	72.7300
 2.1320	72.2500
 2.1360	71.7500
 2.1400	70.9200
 2.1440	69.9600
 2.1480	68.4300
 2.1520	66.9200
 2.1560	64.8100
 2.1600	62.4300
 2.1640	59.3900
 2.1680	56.2300
 2.1720	52.8500
 2.1760	49.5000
 2.1800	46.4400
 2.1840	44.1200
 2.1880	42.8200
 2.1920	42.4600
 2.1960	43.3300
 2.2000	44.9400
 2.2040	47.5300
 2.2080	50.2800
 2.2120	53.2100
 2.2160	56.1400
 2.2200	58.6400
 2.2240	60.6700
 2.2280	62.4600
 2.2320	63.7900
 2.2360	64.4400
 2.2400	65.0400
 2.2440	65.5400
 2.2480	65.8800
 2.2520	66.0900
 2.2560	66.2900
 2.2600	66.2600
 2.2640	66.2600
 2.2680	66.0400
 2.2720	65.8500
 2.2760	65.5500
 2.2800	64.9500
 2.2840	64.2600
 2.2880	63.4500
 2.2920	62.4600
 2.2960	61.1800
 2.3000	60.0700
 2.3040	59.1500
 2.3080	56.8300
 2.3120	55.4200
 2.3160	54.0600
 2.3200	52.5900
 2.3240	51.4400
 2.3280	50.3400
 2.3320	49.4600
 2.3360	48.6400
 2.3400	48.3200
 2.3440	48.0300
 2.3480	48.1200
 2.3520	48.0400
 2.3560	48.4100
 2.3600	48.6600
 2.3640	48.8200
 2.3680	48.9600
 2.3720	49.1100
 2.3760	49.2800
 2.3800	49.1100
 2.3840	48.9300
 2.3880	48.5200
 2.3920	48.1800
 2.3960	47.5100
 2.4000	46.9600
 2.4040	46.1800
 2.4080	45.4600
 2.4120	44.7400
 2.4160	43.9700
 2.4200	43.3000
 2.4240	42.6800
 2.4280	42.4700
 2.4320	42.0700
 2.4360	41.9600
 2.4400	41.8400
 2.4440	42.0100
 2.4480	42.1100
 2.4520	42.4500
 2.4560	42.6100
 2.4600	42.9900
 2.4640	43.3700
 2.4680	43.6400
 2.4720	44.0200
 2.4760	44.4000
 2.4800	44.9000
 2.4840	45.2200
 2.4880	45.6100
 2.4920	45.9900
 2.4960	46.3700
 2.5000	46.4300
