Name: Siderite Fe^2+CO_3
Type: Mineral
Class: Carbonate
Subclass: None
Particle Size: Fine
Sample No.: C-9A
Owner: JPL
Wavelength Range: VSWIR
Origin: 
Collection Date: N/A
Description: Particle size was 0-45um.Collected by JPL Original ASTER Spectral Library name was jpl.beckman.mineral.carbonate.none.fine.c09a.spectrum.txt
Measurement: Hemispherical reflectance
First Column: X
Second Column: Y
X Units: Wavelength (micrometers)
Y Units:Reflectance (percent)
First X Value:  0.4000
Last X Value:  2.5000
Number of X Values: 826
Additional Information: mineral.carbonate.none.fine.vswir.c-9a.jpl.beckman.ancillary.txt

 0.4000	16.4600
 0.4010	16.4600
 0.4020	16.5800
 0.4030	16.8100
 0.4040	17.1000
 0.4050	17.1600
 0.4060	17.2100
 0.4070	17.2100
 0.4080	17.3300
 0.4090	17.6200
 0.4100	17.6700
 0.4110	17.8400
 0.4120	17.7800
 0.4130	17.9500
 0.4140	18.2400
 0.4150	18.4700
 0.4160	18.5900
 0.4170	18.6400
 0.4180	18.6400
 0.4190	19.0500
 0.4200	19.1500
 0.4210	19.2700
 0.4220	19.3800
 0.4230	19.4400
 0.4240	19.6100
 0.4250	19.9600
 0.4260	20.1300
 0.4270	20.2500
 0.4280	20.3000
 0.4290	20.4800
 0.4300	20.7600
 0.4310	20.9300
 0.4320	21.1000
 0.4330	21.2200
 0.4340	21.3300
 0.4350	21.5600
 0.4360	21.8500
 0.4370	21.9100
 0.4380	21.9600
 0.4390	22.0700
 0.4400	22.3000
 0.4410	22.5900
 0.4420	22.7600
 0.4430	22.7600
 0.4440	22.7600
 0.4450	23.0500
 0.4460	23.3400
 0.4470	23.4400
 0.4480	23.5600
 0.4490	23.5600
 0.4500	23.7300
 0.4510	24.0800
 0.4520	24.1300
 0.4530	24.3100
 0.4540	24.3100
 0.4550	24.4800
 0.4560	24.7700
 0.4570	24.8800
 0.4580	25.0000
 0.4590	24.9400
 0.4600	24.8800
 0.4610	25.2300
 0.4620	25.4600
 0.4630	25.6300
 0.4640	25.8600
 0.4650	25.8000
 0.4660	25.7500
 0.4670	26.0200
 0.4680	26.1500
 0.4690	26.5400
 0.4700	26.5400
 0.4710	26.3700
 0.4720	26.6000
 0.4730	26.7700
 0.4740	26.9500
 0.4750	27.1200
 0.4760	27.0000
 0.4770	27.0600
 0.4780	27.4100
 0.4790	27.5800
 0.4800	27.7000
 0.4810	27.6400
 0.4820	27.6400
 0.4830	27.8100
 0.4840	27.9800
 0.4850	28.2100
 0.4860	28.3300
 0.4870	28.3300
 0.4880	28.5000
 0.4890	28.7900
 0.4900	28.9600
 0.4910	29.1900
 0.4920	29.1400
 0.4930	29.1900
 0.4940	29.5400
 0.4950	29.7100
 0.4960	30.0000
 0.4970	30.0000
 0.4980	30.0000
 0.4990	30.2900
 0.5000	30.4000
 0.5010	30.6800
 0.5020	30.7400
 0.5030	30.6800
 0.5040	30.8000
 0.5050	31.1400
 0.5060	31.3100
 0.5070	31.5400
 0.5080	31.4900
 0.5090	31.5400
 0.5100	31.8300
 0.5110	32.0600
 0.5120	32.2400
 0.5130	32.2900
 0.5140	32.3400
 0.5150	32.5100
 0.5160	32.8000
 0.5170	33.0300
 0.5180	33.1500
 0.5190	33.1500
 0.5200	33.3200
 0.5210	33.6100
 0.5220	33.9500
 0.5230	34.1200
 0.5240	34.0600
 0.5250	34.2300
 0.5260	34.5200
 0.5270	34.6900
 0.5280	34.9200
 0.5290	34.9800
 0.5300	35.0400
 0.5310	35.3300
 0.5320	35.6100
 0.5330	35.8300
 0.5340	35.8300
 0.5350	35.8300
 0.5360	36.1200
 0.5370	36.3500
 0.5380	36.7000
 0.5390	36.7600
 0.5400	36.7000
 0.5410	36.9300
 0.5420	37.1600
 0.5430	37.5000
 0.5440	37.6100
 0.5450	37.5500
 0.5460	37.7300
 0.5470	37.9600
 0.5480	38.2400
 0.5490	38.4700
 0.5500	38.4700
 0.5510	38.5300
 0.5520	38.7600
 0.5530	39.1000
 0.5540	39.3300
 0.5550	39.3900
 0.5560	39.2700
 0.5570	39.4400
 0.5580	39.5600
 0.5590	39.7900
 0.5600	39.9600
 0.5610	40.2500
 0.5620	40.5400
 0.5630	40.6400
 0.5640	40.7600
 0.5650	40.7000
 0.5660	40.8200
 0.5670	41.1000
 0.5680	41.2800
 0.5690	41.3900
 0.5700	41.2800
 0.5710	41.4500
 0.5720	41.6200
 0.5730	41.7400
 0.5740	41.9100
 0.5750	41.8000
 0.5760	41.9100
 0.5770	42.1400
 0.5780	42.3000
 0.5790	42.5900
 0.5800	42.5300
 0.5810	42.4800
 0.5820	42.6500
 0.5830	42.8800
 0.5840	43.1100
 0.5850	43.1700
 0.5860	43.1700
 0.5870	43.1700
 0.5880	43.4000
 0.5890	43.5700
 0.5900	43.7400
 0.5910	43.8000
 0.5920	43.6900
 0.5930	43.8600
 0.5940	44.0200
 0.5950	44.0200
 0.5960	44.1400
 0.5970	44.0800
 0.5980	44.2500
 0.5990	44.4800
 0.6000	44.7100
 0.6010	44.7700
 0.6020	44.6000
 0.6030	44.7100
 0.6040	44.9400
 0.6050	45.1200
 0.6060	45.1700
 0.6070	45.0600
 0.6080	45.1200
 0.6090	45.2900
 0.6100	45.4000
 0.6110	45.5700
 0.6120	45.4600
 0.6130	45.4600
 0.6140	45.5700
 0.6150	45.8000
 0.6160	45.9100
 0.6170	45.8000
 0.6180	45.8000
 0.6190	45.9100
 0.6200	45.9700
 0.6210	46.2000
 0.6220	46.2600
 0.6230	46.1400
 0.6240	46.2600
 0.6250	46.3700
 0.6260	46.6000
 0.6270	46.5500
 0.6280	46.5500
 0.6290	46.5500
 0.6300	46.7200
 0.6310	46.8900
 0.6320	46.8900
 0.6330	46.8300
 0.6340	46.7800
 0.6350	46.9500
 0.6360	47.1200
 0.6370	47.2300
 0.6380	47.1800
 0.6390	47.0700
 0.6400	47.2900
 0.6410	47.4000
 0.6420	47.4600
 0.6430	47.5200
 0.6440	47.2300
 0.6450	47.4600
 0.6460	47.6300
 0.6470	47.7500
 0.6480	47.8000
 0.6490	47.6300
 0.6500	47.7500
 0.6510	47.9200
 0.6520	48.0300
 0.6530	48.0900
 0.6540	47.9200
 0.6550	48.0300
 0.6560	48.1500
 0.6570	48.2600
 0.6580	48.4400
 0.6590	48.2600
 0.6600	48.2600
 0.6610	48.4400
 0.6620	48.6100
 0.6630	48.6700
 0.6640	48.5500
 0.6650	48.5000
 0.6660	48.7300
 0.6670	48.7800
 0.6680	49.0000
 0.6690	48.8900
 0.6700	48.8400
 0.6710	48.9500
 0.6720	49.0000
 0.6730	49.1800
 0.6740	49.0600
 0.6750	49.0600
 0.6760	49.1800
 0.6770	49.2900
 0.6780	49.4100
 0.6790	49.4100
 0.6800	49.2900
 0.6810	49.3500
 0.6820	49.5200
 0.6830	49.7000
 0.6840	49.5800
 0.6850	49.5800
 0.6860	49.5200
 0.6870	49.7000
 0.6880	49.8700
 0.6890	49.9800
 0.6900	49.8100
 0.6910	49.7000
 0.6920	49.9800
 0.6930	50.1600
 0.6940	50.2700
 0.6950	50.2100
 0.6960	49.8700
 0.6970	49.9800
 0.6980	50.1600
 0.6990	50.1000
 0.7000	49.8700
 0.7010	49.9300
 0.7020	50.0400
 0.7030	50.2700
 0.7040	50.2700
 0.7050	50.2100
 0.7060	50.1600
 0.7070	50.1600
 0.7080	50.3900
 0.7090	50.5000
 0.7100	50.4400
 0.7110	50.3900
 0.7120	50.2700
 0.7130	50.5000
 0.7140	50.6100
 0.7150	50.6100
 0.7160	50.5500
 0.7170	50.5000
 0.7180	50.5500
 0.7190	50.8400
 0.7200	50.7800
 0.7210	50.7200
 0.7220	50.5500
 0.7230	50.6100
 0.7240	50.7800
 0.7250	50.7800
 0.7260	50.7200
 0.7270	50.6100
 0.7280	50.6600
 0.7290	50.8400
 0.7300	50.8900
 0.7310	50.8400
 0.7320	50.7200
 0.7330	50.7200
 0.7340	50.7800
 0.7350	50.8900
 0.7360	50.8900
 0.7370	50.7200
 0.7380	50.7800
 0.7390	50.8900
 0.7400	50.9500
 0.7410	50.9500
 0.7420	50.8400
 0.7430	50.7800
 0.7440	50.8400
 0.7450	50.9500
 0.7460	51.0700
 0.7470	50.8400
 0.7480	50.7800
 0.7490	50.8400
 0.7500	51.0700
 0.7510	51.0100
 0.7520	50.9500
 0.7530	50.7800
 0.7540	50.7200
 0.7550	50.8400
 0.7560	50.8400
 0.7570	50.8400
 0.7580	50.6600
 0.7590	50.5500
 0.7600	50.6600
 0.7610	50.7800
 0.7620	50.6600
 0.7630	50.6100
 0.7640	50.4400
 0.7650	50.6100
 0.7660	50.7200
 0.7670	50.6600
 0.7680	50.6100
 0.7690	50.4400
 0.7700	50.5000
 0.7710	50.6600
 0.7720	50.6100
 0.7730	50.5500
 0.7740	50.3900
 0.7750	50.2700
 0.7760	50.3900
 0.7770	50.5000
 0.7780	50.3900
 0.7790	50.2100
 0.7800	50.2100
 0.7810	50.2100
 0.7820	50.3900
 0.7830	50.3300
 0.7840	50.1600
 0.7850	50.0400
 0.7860	50.1000
 0.7870	50.2100
 0.7880	50.1600
 0.7890	50.0400
 0.7900	49.9300
 0.7910	49.9800
 0.7920	49.9800
 0.7930	50.0400
 0.7940	49.9300
 0.7950	49.7500
 0.7960	49.5800
 0.7970	49.8700
 0.7980	49.9300
 0.7990	49.7500
 0.8000	49.6800
 0.8040	49.4100
 0.8080	49.0000
 0.8120	48.8400
 0.8160	48.5500
 0.8200	48.2600
 0.8240	47.8600
 0.8280	47.6900
 0.8320	47.1800
 0.8360	46.8300
 0.8400	46.6600
 0.8440	46.2000
 0.8480	45.6800
 0.8520	45.3500
 0.8560	45.0600
 0.8600	44.5400
 0.8640	44.2000
 0.8680	43.8000
 0.8720	43.4000
 0.8760	42.8200
 0.8800	42.4200
 0.8840	42.2000
 0.8880	41.6200
 0.8920	41.2200
 0.8960	40.7600
 0.9000	40.2500
 0.9040	39.9000
 0.9080	39.5000
 0.9120	39.1000
 0.9160	38.6500
 0.9200	38.3000
 0.9240	37.8400
 0.9280	37.4400
 0.9320	37.0400
 0.9360	36.6400
 0.9400	36.3000
 0.9440	35.9500
 0.9480	35.5600
 0.9520	35.2100
 0.9560	34.9200
 0.9600	34.5200
 0.9640	34.2900
 0.9680	34.0000
 0.9720	33.7800
 0.9760	33.4900
 0.9800	33.2600
 0.9840	33.1500
 0.9880	32.9200
 0.9920	32.5700
 0.9960	32.5700
 1.0000	32.3400
 1.0040	32.2400
 1.0080	32.0600
 1.0120	32.0600
 1.0160	31.7800
 1.0200	31.8300
 1.0240	31.7800
 1.0280	31.7200
 1.0320	31.7200
 1.0360	31.7200
 1.0400	31.7200
 1.0440	31.6000
 1.0480	31.6000
 1.0520	31.7800
 1.0560	31.7200
 1.0600	31.7200
 1.0640	31.7800
 1.0680	31.8300
 1.0720	31.8300
 1.0760	31.9500
 1.0800	32.0600
 1.0840	32.0600
 1.0880	32.1800
 1.0920	32.1200
 1.0960	32.3400
 1.1000	32.3400
 1.1040	32.4000
 1.1080	32.5700
 1.1120	32.4000
 1.1160	32.4600
 1.1200	32.5700
 1.1240	32.7400
 1.1280	32.5700
 1.1320	32.6900
 1.1360	32.6900
 1.1400	32.8000
 1.1440	32.6900
 1.1480	32.8000
 1.1520	32.8000
 1.1560	32.8000
 1.1600	32.9100
 1.1640	32.8500
 1.1680	32.8500
 1.1720	32.8500
 1.1760	32.9000
 1.1800	32.9500
 1.1840	32.8400
 1.1880	32.9400
 1.1920	32.9400
 1.1960	32.8900
 1.2000	32.9400
 1.2040	32.9400
 1.2080	33.0000
 1.2120	32.9400
 1.2160	33.0000
 1.2200	33.0600
 1.2240	33.1200
 1.2280	33.0600
 1.2320	33.1200
 1.2360	33.2300
 1.2400	33.3400
 1.2440	33.2900
 1.2480	33.4000
 1.2520	33.5700
 1.2560	33.6300
 1.2600	33.7400
 1.2640	33.7900
 1.2680	33.7900
 1.2720	34.0800
 1.2760	34.1800
 1.2800	34.3500
 1.2840	34.4000
 1.2880	34.5200
 1.2920	34.7500
 1.2960	34.9100
 1.3000	35.0800
 1.3040	35.3600
 1.3080	35.5900
 1.3120	35.7000
 1.3160	35.9300
 1.3200	36.1500
 1.3240	36.2600
 1.3280	36.6000
 1.3320	36.8300
 1.3360	37.1100
 1.3400	37.2800
 1.3440	37.5600
 1.3480	37.9600
 1.3520	38.0700
 1.3560	38.4100
 1.3600	38.7600
 1.3640	38.9900
 1.3680	39.2100
 1.3720	39.6100
 1.3760	39.9000
 1.3800	40.1900
 1.3840	40.5800
 1.3880	40.8700
 1.3920	41.2100
 1.3960	41.3800
 1.4000	41.7200
 1.4040	42.0700
 1.4080	42.4100
 1.4120	42.7000
 1.4160	43.1100
 1.4200	43.3400
 1.4240	43.6900
 1.4280	44.1000
 1.4320	44.3200
 1.4360	44.6100
 1.4400	44.8400
 1.4440	45.3000
 1.4480	45.5900
 1.4520	45.8800
 1.4560	46.1100
 1.4600	46.4600
 1.4640	46.7300
 1.4680	46.9100
 1.4720	47.3100
 1.4760	47.6000
 1.4800	47.8800
 1.4840	48.1600
 1.4880	48.3400
 1.4920	48.4000
 1.4960	48.9100
 1.5000	49.1900
 1.5040	49.3600
 1.5080	49.6000
 1.5120	49.7700
 1.5160	49.8800
 1.5200	50.2200
 1.5240	50.4500
 1.5280	50.5600
 1.5320	50.7400
 1.5360	50.7900
 1.5400	51.0300
 1.5440	51.2000
 1.5480	51.3700
 1.5520	51.5300
 1.5560	51.7600
 1.5600	51.8200
 1.5640	51.8200
 1.5680	52.0500
 1.5720	52.0500
 1.5760	52.1700
 1.5800	52.4000
 1.5840	52.3400
 1.5880	52.5700
 1.5920	52.5700
 1.5960	52.7900
 1.6000	52.7900
 1.6040	52.9100
 1.6080	52.9000
 1.6120	52.9500
 1.6160	53.0100
 1.6200	53.0000
 1.6240	53.2200
 1.6280	53.1600
 1.6320	53.3400
 1.6360	53.2700
 1.6400	53.3300
 1.6440	53.3700
 1.6480	53.5400
 1.6520	53.4800
 1.6560	53.5900
 1.6600	53.5800
 1.6640	53.5300
 1.6680	53.6900
 1.6720	53.7500
 1.6760	53.6900
 1.6800	53.6200
 1.6840	53.6700
 1.6880	53.7900
 1.6920	53.7900
 1.6960	53.7800
 1.7000	53.7200
 1.7040	53.8300
 1.7080	53.7800
 1.7120	53.8900
 1.7160	53.9500
 1.7200	53.8300
 1.7240	53.8300
 1.7280	53.8300
 1.7320	54.0000
 1.7360	53.8900
 1.7400	54.0000
 1.7440	53.8300
 1.7480	54.0000
 1.7520	53.8900
 1.7560	53.9500
 1.7600	54.0000
 1.7640	53.9500
 1.7680	53.8900
 1.7720	53.9500
 1.7760	54.0500
 1.7800	53.8900
 1.7840	54.0000
 1.7880	54.0000
 1.7920	53.8900
 1.7960	54.0500
 1.8000	53.9500
 1.8040	53.9900
 1.8080	53.9700
 1.8120	53.9500
 1.8160	54.0400
 1.8200	53.8600
 1.8240	53.9500
 1.8280	53.9300
 1.8320	53.8600
 1.8360	53.9000
 1.8400	53.8800
 1.8440	53.9800
 1.8480	53.8500
 1.8520	53.8400
 1.8560	53.8300
 1.8600	53.8200
 1.8640	53.7700
 1.8680	53.8100
 1.8720	53.7600
 1.8760	53.6400
 1.8800	53.7500
 1.8840	53.6900
 1.8880	53.6800
 1.8920	53.5200
 1.8960	53.6200
 1.9000	53.5100
 1.9040	53.5000
 1.9080	53.4900
 1.9120	53.4400
 1.9160	53.6600
 1.9200	53.5300
 1.9240	53.5900
 1.9280	53.5800
 1.9320	53.6400
 1.9360	53.4100
 1.9400	53.5100
 1.9440	53.6200
 1.9480	53.5000
 1.9520	53.5500
 1.9560	53.6000
 1.9600	53.6900
 1.9640	53.5700
 1.9680	53.5600
 1.9720	53.6600
 1.9760	53.5900
 1.9800	53.6300
 1.9840	53.7400
 1.9880	53.6600
 1.9920	53.7100
 1.9960	53.7500
 2.0000	53.7900
 2.0040	53.7400
 2.0080	53.7600
 2.0120	53.7900
 2.0160	53.7000
 2.0200	53.8500
 2.0240	53.8000
 2.0280	53.8200
 2.0320	53.9000
 2.0360	53.8200
 2.0400	53.8600
 2.0440	53.7600
 2.0480	53.8200
 2.0520	53.9600
 2.0560	53.8800
 2.0600	53.8600
 2.0640	53.8900
 2.0680	53.8100
 2.0720	53.7900
 2.0760	53.9300
 2.0800	53.9100
 2.0840	53.7800
 2.0880	53.9300
 2.0920	54.0200
 2.0960	54.0500
 2.1000	53.8600
 2.1040	53.9500
 2.1080	54.0400
 2.1120	53.9100
 2.1160	53.9900
 2.1200	54.0900
 2.1240	53.9300
 2.1280	53.8800
 2.1320	53.9700
 2.1360	53.9200
 2.1400	53.8600
 2.1440	53.7700
 2.1480	53.7400
 2.1520	53.6600
 2.1560	53.6400
 2.1600	53.5800
 2.1640	53.6500
 2.1680	53.5500
 2.1720	53.5000
 2.1760	53.5700
 2.1800	53.5700
 2.1840	53.4500
 2.1880	53.3900
 2.1920	53.4300
 2.1960	53.3000
 2.2000	53.3000
 2.2040	53.1200
 2.2080	53.3000
 2.2120	53.3100
 2.2160	53.1500
 2.2200	53.1200
 2.2240	53.0700
 2.2280	53.1700
 2.2320	53.0600
 2.2360	53.1400
 2.2400	53.0700
 2.2440	53.0100
 2.2480	52.8900
 2.2520	52.8300
 2.2560	52.8000
 2.2600	52.7300
 2.2640	52.7800
 2.2680	52.7800
 2.2720	52.7200
 2.2760	52.5300
 2.2800	52.6200
 2.2840	52.5400
 2.2880	52.4600
 2.2920	52.4900
 2.2960	52.5000
 2.3000	52.3400
 2.3040	52.5400
 2.3080	52.4700
 2.3120	52.4500
 2.3160	52.6000
 2.3200	52.5700
 2.3240	52.5300
 2.3280	52.3700
 2.3320	52.5000
 2.3360	52.4600
 2.3400	52.4200
 2.3440	52.6200
 2.3480	52.5400
 2.3520	52.6300
 2.3560	52.6600
 2.3600	52.7500
 2.3640	52.7900
 2.3680	52.7100
 2.3720	52.8000
 2.3760	52.8000
 2.3800	52.8000
 2.3840	52.9500
 2.3880	52.8700
 2.3920	52.9200
 2.3960	52.8000
 2.4000	52.7500
 2.4040	52.7400
 2.4080	52.6900
 2.4120	52.6900
 2.4160	52.7300
 2.4200	52.6800
 2.4240	52.6700
 2.4280	52.5500
 2.4320	52.4400
 2.4360	52.3200
 2.4400	52.3200
 2.4440	52.1500
 2.4480	52.1400
 2.4520	51.9200
 2.4560	51.7400
 2.4600	51.5800
 2.4640	51.3500
 2.4680	51.2400
 2.4720	51.0200
 2.4760	50.8400
 2.4800	50.5600
 2.4840	50.5500
 2.4880	50.3800
 2.4920	50.1600
 2.4960	50.0500
 2.5000	49.8700
