Name: Zircon ZrSiO_4
Type: Mineral
Class: Silicate
Subclass: Nesosilicate
Particle Size: Fine
Sample No.: NS-9A
Owner: JPL
Wavelength Range: VSWIR
Origin: Malawi, Southern Malawi, Blantyre-Limbe District.
Collection Date: N/A
Description: Particle size was 0-45um.Collected by:  Burminco Original ASTER Spectral Library name was jpl.perkin.mineral.silicate.nesosilicate.fine.ns09a.spectrum.txt
Measurement: Hemispherical reflectance
First Column: X
Second Column: Y
X Units: Wavelength (micrometers)
Y Units:Reflectance (percent)
First X Value:  2.5000
Last X Value:  0.4000
Number of X Values: 2101
Additional Information: mineral.silicate.nesosilicate.fine.vswir.ns-9a.jpl.perkin.ancillary.txt

 2.5000	68.5760
 2.4990	68.3854
 2.4980	68.3825
 2.4970	68.7093
 2.4960	68.3223
 2.4950	68.6596
 2.4940	68.5837
 2.4930	68.7401
 2.4920	68.4826
 2.4910	68.5542
 2.4900	68.7574
 2.4890	68.6899
 2.4880	68.6261
 2.4870	68.7401
 2.4860	68.6816
 2.4850	68.7686
 2.4840	68.7561
 2.4830	68.8254
 2.4820	68.8638
 2.4810	68.7708
 2.4800	68.7820
 2.4790	68.8773
 2.4780	68.8594
 2.4770	68.8924
 2.4760	68.9114
 2.4750	68.9503
 2.4740	68.8492
 2.4730	69.0792
 2.4720	68.8846
 2.4710	68.9912
 2.4700	68.8635
 2.4690	69.1392
 2.4680	69.0839
 2.4670	69.1102
 2.4660	69.2904
 2.4650	69.2960
 2.4640	69.1764
 2.4630	69.1706
 2.4620	69.3281
 2.4610	69.3302
 2.4600	69.2841
 2.4590	69.3524
 2.4580	69.2445
 2.4570	69.2974
 2.4560	69.3885
 2.4550	69.4245
 2.4540	69.4012
 2.4530	69.4895
 2.4520	69.2284
 2.4510	69.4071
 2.4500	69.4035
 2.4490	69.4241
 2.4480	69.5105
 2.4470	69.6006
 2.4460	69.4733
 2.4450	69.5099
 2.4440	69.5501
 2.4430	69.6577
 2.4420	69.6294
 2.4410	69.5841
 2.4400	69.5622
 2.4390	69.6620
 2.4380	69.6186
 2.4370	69.6469
 2.4360	69.6781
 2.4350	69.7228
 2.4340	69.7124
 2.4330	69.7862
 2.4320	69.7805
 2.4310	69.7724
 2.4300	69.7624
 2.4290	69.7659
 2.4280	69.6813
 2.4270	69.8380
 2.4260	69.9628
 2.4250	69.9437
 2.4240	69.8816
 2.4230	69.8548
 2.4220	69.9290
 2.4210	70.0126
 2.4200	69.9995
 2.4190	69.9208
 2.4180	69.9823
 2.4170	69.9727
 2.4160	69.9006
 2.4150	69.9810
 2.4140	69.9800
 2.4130	70.0493
 2.4120	70.0731
 2.4110	69.9958
 2.4100	70.0649
 2.4090	70.0819
 2.4080	70.0724
 2.4070	70.0303
 2.4060	70.0790
 2.4050	70.1438
 2.4040	70.1238
 2.4030	70.1228
 2.4020	70.1521
 2.4010	70.1529
 2.4000	70.1446
 2.3990	70.0695
 2.3980	70.0886
 2.3970	70.1557
 2.3960	70.1662
 2.3950	70.1796
 2.3940	70.1983
 2.3930	70.1903
 2.3920	70.1393
 2.3910	70.2511
 2.3900	70.2084
 2.3890	70.2305
 2.3880	70.2734
 2.3870	70.2965
 2.3860	70.2980
 2.3850	70.3007
 2.3840	70.3019
 2.3830	70.3021
 2.3820	70.3356
 2.3810	70.4051
 2.3800	70.4345
 2.3790	70.4402
 2.3780	70.4396
 2.3770	70.4664
 2.3760	70.4835
 2.3750	70.4794
 2.3740	70.5246
 2.3730	70.5851
 2.3720	70.5771
 2.3710	70.5696
 2.3700	70.6465
 2.3690	70.6752
 2.3680	70.6550
 2.3670	70.6832
 2.3660	70.7473
 2.3650	70.7653
 2.3640	70.7829
 2.3630	70.8268
 2.3620	70.8394
 2.3610	70.8648
 2.3600	70.8764
 2.3590	70.8637
 2.3580	70.8631
 2.3570	70.9133
 2.3560	70.9834
 2.3550	70.9970
 2.3540	70.9538
 2.3530	70.9526
 2.3520	71.0410
 2.3510	71.0202
 2.3500	70.9651
 2.3490	71.0150
 2.3480	71.0579
 2.3470	71.0684
 2.3460	71.0990
 2.3450	71.0710
 2.3440	71.0412
 2.3430	71.0187
 2.3420	71.0510
 2.3410	71.1139
 2.3400	71.1314
 2.3390	71.0903
 2.3380	71.0924
 2.3370	71.0976
 2.3360	71.1322
 2.3350	71.1554
 2.3340	71.1294
 2.3330	71.1427
 2.3320	71.1658
 2.3310	71.1774
 2.3300	71.1646
 2.3290	71.1364
 2.3280	71.1288
 2.3270	71.0892
 2.3260	71.1411
 2.3250	71.1364
 2.3240	71.1061
 2.3230	71.1565
 2.3220	71.1474
 2.3210	71.0963
 2.3200	71.1238
 2.3190	71.1086
 2.3180	71.1621
 2.3170	71.1822
 2.3160	71.1333
 2.3150	71.1243
 2.3140	71.0785
 2.3130	71.1016
 2.3120	71.1170
 2.3110	71.0421
 2.3100	71.0820
 2.3090	71.1595
 2.3080	71.1401
 2.3070	71.1237
 2.3060	71.0579
 2.3050	71.1259
 2.3040	71.2093
 2.3030	71.1986
 2.3020	71.2033
 2.3010	71.1522
 2.3000	71.1680
 2.2990	71.2046
 2.2980	71.1672
 2.2970	71.2002
 2.2960	71.1489
 2.2950	71.1905
 2.2940	71.1693
 2.2930	71.1305
 2.2920	71.1519
 2.2910	71.1982
 2.2900	71.1617
 2.2890	71.1648
 2.2880	71.1797
 2.2870	71.1614
 2.2860	71.2198
 2.2850	71.2188
 2.2840	71.2315
 2.2830	71.2125
 2.2820	71.2471
 2.2810	71.2289
 2.2800	71.1954
 2.2790	71.2075
 2.2780	71.2596
 2.2770	71.2159
 2.2760	71.2518
 2.2750	71.2119
 2.2740	71.1751
 2.2730	71.1675
 2.2720	71.1876
 2.2710	71.2044
 2.2700	71.2497
 2.2690	71.2960
 2.2680	71.1923
 2.2670	71.2979
 2.2660	71.2895
 2.2650	71.2533
 2.2640	71.2196
 2.2630	71.1742
 2.2620	71.2529
 2.2610	71.2604
 2.2600	71.2401
 2.2590	71.2921
 2.2580	71.3067
 2.2570	71.2394
 2.2560	71.2337
 2.2550	71.2769
 2.2540	71.2527
 2.2530	71.2367
 2.2520	71.2763
 2.2510	71.2691
 2.2500	71.2793
 2.2490	71.2901
 2.2480	71.3408
 2.2470	71.2898
 2.2460	71.3998
 2.2450	71.3241
 2.2440	71.4019
 2.2430	71.3947
 2.2420	71.3456
 2.2410	71.3922
 2.2400	71.4114
 2.2390	71.3714
 2.2380	71.4526
 2.2370	71.3980
 2.2360	71.5423
 2.2350	71.3811
 2.2340	71.3883
 2.2330	71.3867
 2.2320	71.5028
 2.2310	71.4256
 2.2300	71.4655
 2.2290	71.5498
 2.2280	71.5257
 2.2270	71.5139
 2.2260	71.5031
 2.2250	71.5699
 2.2240	71.5380
 2.2230	71.5235
 2.2220	71.5488
 2.2210	71.5146
 2.2200	71.5116
 2.2190	71.5030
 2.2180	71.4595
 2.2170	71.3848
 2.2160	71.5037
 2.2150	71.4584
 2.2140	71.4219
 2.2130	71.4312
 2.2120	71.4325
 2.2110	71.3448
 2.2100	71.3767
 2.2090	71.4187
 2.2080	71.4537
 2.2070	71.4619
 2.2060	71.4110
 2.2050	71.4343
 2.2040	71.5133
 2.2030	71.4756
 2.2020	71.5888
 2.2010	71.5895
 2.2000	71.7289
 2.1990	71.5531
 2.1980	71.7126
 2.1970	71.7473
 2.1960	71.7784
 2.1950	71.7728
 2.1940	71.8427
 2.1930	71.8234
 2.1920	71.8022
 2.1910	71.8309
 2.1900	71.9043
 2.1890	71.8929
 2.1880	71.9152
 2.1870	71.9411
 2.1860	72.0409
 2.1850	71.9416
 2.1840	71.9768
 2.1830	72.0420
 2.1820	72.0761
 2.1810	72.0295
 2.1800	72.0865
 2.1790	72.1536
 2.1780	72.2118
 2.1770	72.1086
 2.1760	72.1659
 2.1750	72.1647
 2.1740	72.2101
 2.1730	72.2494
 2.1720	72.3608
 2.1710	72.2483
 2.1700	72.2818
 2.1690	72.3638
 2.1680	72.2686
 2.1670	72.3952
 2.1660	72.4240
 2.1650	72.3158
 2.1640	72.4657
 2.1630	72.4274
 2.1620	72.4676
 2.1610	72.5332
 2.1600	72.5698
 2.1590	72.6171
 2.1580	72.6721
 2.1570	72.6566
 2.1560	72.6513
 2.1550	72.6642
 2.1540	72.6467
 2.1530	72.7508
 2.1520	72.7973
 2.1510	72.8339
 2.1500	72.8167
 2.1490	72.8576
 2.1480	72.8668
 2.1470	72.8573
 2.1460	72.9074
 2.1450	72.8589
 2.1440	72.8474
 2.1430	72.9341
 2.1420	72.9463
 2.1410	72.9498
 2.1400	72.9211
 2.1390	72.9003
 2.1380	72.9227
 2.1370	72.9234
 2.1360	72.9049
 2.1350	72.9248
 2.1340	72.8976
 2.1330	72.8792
 2.1320	72.8811
 2.1310	72.8520
 2.1300	72.7227
 2.1290	72.7084
 2.1280	72.7393
 2.1270	72.6996
 2.1260	72.7077
 2.1250	72.6230
 2.1240	72.6697
 2.1230	72.6005
 2.1220	72.5117
 2.1210	72.4448
 2.1200	72.4746
 2.1190	72.4425
 2.1180	72.3810
 2.1170	72.3221
 2.1160	72.2762
 2.1150	72.1942
 2.1140	72.1202
 2.1130	72.1051
 2.1120	72.1082
 2.1110	72.0053
 2.1100	71.9120
 2.1090	71.9080
 2.1080	71.8806
 2.1070	71.8313
 2.1060	71.8389
 2.1050	71.7786
 2.1040	71.7418
 2.1030	71.7254
 2.1020	71.6629
 2.1010	71.5949
 2.1000	71.5659
 2.0990	71.5129
 2.0980	71.5095
 2.0970	71.5154
 2.0960	71.4253
 2.0950	71.4321
 2.0940	71.4830
 2.0930	71.4531
 2.0920	71.4603
 2.0910	71.4670
 2.0900	71.4851
 2.0890	71.4631
 2.0880	71.4678
 2.0870	71.3978
 2.0860	71.3798
 2.0850	71.4033
 2.0840	71.4301
 2.0830	71.3999
 2.0820	71.3672
 2.0810	71.3908
 2.0800	71.3464
 2.0790	71.3260
 2.0780	71.3529
 2.0770	71.3296
 2.0760	71.3305
 2.0750	71.3705
 2.0740	71.4040
 2.0730	71.3523
 2.0720	71.3179
 2.0710	71.3291
 2.0700	71.3866
 2.0690	71.4247
 2.0680	71.4267
 2.0670	71.4640
 2.0660	71.4552
 2.0650	71.4622
 2.0640	71.4756
 2.0630	71.5282
 2.0620	71.6029
 2.0610	71.5894
 2.0600	71.5972
 2.0590	71.6578
 2.0580	71.6953
 2.0570	71.7537
 2.0560	71.8217
 2.0550	71.8302
 2.0540	71.8646
 2.0530	71.8897
 2.0520	71.9312
 2.0510	71.9722
 2.0500	72.0046
 2.0490	72.0112
 2.0480	71.9889
 2.0470	72.0641
 2.0460	72.1105
 2.0450	72.0893
 2.0440	72.0814
 2.0430	72.0988
 2.0420	72.1239
 2.0410	72.1462
 2.0400	72.2180
 2.0390	72.2248
 2.0380	72.2195
 2.0370	72.2983
 2.0360	72.2709
 2.0350	72.3009
 2.0340	72.3299
 2.0330	72.3378
 2.0320	72.3556
 2.0310	72.3478
 2.0300	72.3603
 2.0290	72.4041
 2.0280	72.3776
 2.0270	72.3912
 2.0260	72.3814
 2.0250	72.4136
 2.0240	72.4580
 2.0230	72.4902
 2.0220	72.3961
 2.0210	72.4213
 2.0200	72.4414
 2.0190	72.4736
 2.0180	72.5106
 2.0170	72.5463
 2.0160	72.5006
 2.0150	72.4579
 2.0140	72.5076
 2.0130	72.5668
 2.0120	72.5205
 2.0110	72.4432
 2.0100	72.4430
 2.0090	72.4468
 2.0080	72.4583
 2.0070	72.5390
 2.0060	72.5138
 2.0050	72.5493
 2.0040	72.4944
 2.0030	72.5287
 2.0020	72.4847
 2.0010	72.5477
 2.0000	72.5383
 1.9990	72.5101
 1.9980	72.5245
 1.9970	72.5497
 1.9960	72.5274
 1.9950	72.5428
 1.9940	72.4603
 1.9930	72.5298
 1.9920	72.4956
 1.9910	72.4281
 1.9900	72.3977
 1.9890	72.4068
 1.9880	72.3318
 1.9870	72.3873
 1.9860	72.4819
 1.9850	72.3559
 1.9840	72.3354
 1.9830	72.3158
 1.9820	72.2660
 1.9810	72.2509
 1.9800	72.2843
 1.9790	72.3529
 1.9780	72.2428
 1.9770	72.2702
 1.9760	72.3060
 1.9750	72.2719
 1.9740	72.2191
 1.9730	72.1784
 1.9720	72.2212
 1.9710	72.2643
 1.9700	72.2197
 1.9690	72.2883
 1.9680	72.2395
 1.9670	72.2813
 1.9660	72.1777
 1.9650	72.1996
 1.9640	72.2165
 1.9630	72.2199
 1.9620	72.1393
 1.9610	72.2843
 1.9600	72.1298
 1.9590	72.1770
 1.9580	72.1988
 1.9570	72.1893
 1.9560	72.2303
 1.9550	72.2228
 1.9540	72.0919
 1.9530	72.1456
 1.9520	72.1440
 1.9510	72.2117
 1.9500	72.1575
 1.9490	72.1626
 1.9480	72.0517
 1.9470	72.1801
 1.9460	72.1653
 1.9450	72.0957
 1.9440	72.1808
 1.9430	72.2265
 1.9420	72.1194
 1.9410	72.1995
 1.9400	72.1704
 1.9390	72.1383
 1.9380	72.1796
 1.9370	72.1617
 1.9360	72.1265
 1.9350	72.1124
 1.9340	72.1969
 1.9330	72.1889
 1.9320	72.2517
 1.9310	72.1877
 1.9300	72.2048
 1.9290	72.1656
 1.9280	72.2165
 1.9270	72.2116
 1.9260	72.1814
 1.9250	72.2069
 1.9240	72.2107
 1.9230	72.2658
 1.9220	72.2254
 1.9210	72.2836
 1.9200	72.2645
 1.9190	72.2777
 1.9180	72.2637
 1.9170	72.3706
 1.9160	72.3536
 1.9150	72.3708
 1.9140	72.3319
 1.9130	72.4351
 1.9120	72.4246
 1.9110	72.4524
 1.9100	72.4793
 1.9090	72.5424
 1.9080	72.5666
 1.9070	72.6498
 1.9060	72.6869
 1.9050	72.6807
 1.9040	72.6725
 1.9030	72.6765
 1.9020	72.7189
 1.9010	72.7938
 1.9000	72.8705
 1.8990	72.8640
 1.8980	72.8883
 1.8970	72.9403
 1.8960	72.9820
 1.8950	73.0562
 1.8940	73.1199
 1.8930	73.1298
 1.8920	73.1086
 1.8910	73.2108
 1.8900	73.1600
 1.8890	73.2037
 1.8880	73.2451
 1.8870	73.2627
 1.8860	73.2658
 1.8850	73.3335
 1.8840	73.3127
 1.8830	73.3695
 1.8820	73.3350
 1.8810	73.4045
 1.8800	73.3786
 1.8790	73.3528
 1.8780	73.4173
 1.8770	73.4109
 1.8760	73.4436
 1.8750	73.4447
 1.8740	73.3914
 1.8730	73.4477
 1.8720	73.4227
 1.8710	73.4176
 1.8700	73.4125
 1.8690	73.4424
 1.8680	73.5166
 1.8670	73.4711
 1.8660	73.4447
 1.8650	73.5062
 1.8640	73.5760
 1.8630	73.5322
 1.8620	73.5579
 1.8610	73.5801
 1.8600	73.5912
 1.8590	73.5795
 1.8580	73.5184
 1.8570	73.5708
 1.8560	73.5180
 1.8550	73.6027
 1.8540	73.5094
 1.8530	73.5969
 1.8520	73.5959
 1.8510	73.5842
 1.8500	73.5178
 1.8490	73.6134
 1.8480	73.5963
 1.8470	73.5616
 1.8460	73.5719
 1.8450	73.5634
 1.8440	73.6257
 1.8430	73.6690
 1.8420	73.5979
 1.8410	73.6318
 1.8400	73.6481
 1.8390	73.5879
 1.8380	73.5683
 1.8370	73.6022
 1.8360	73.5785
 1.8350	73.5967
 1.8340	73.6301
 1.8330	73.5833
 1.8320	73.5575
 1.8310	73.5927
 1.8300	73.5792
 1.8290	73.5787
 1.8280	73.5788
 1.8270	73.6103
 1.8260	73.5969
 1.8250	73.5999
 1.8240	73.5520
 1.8230	73.5942
 1.8220	73.6151
 1.8210	73.6444
 1.8200	73.6298
 1.8190	73.6291
 1.8180	73.6620
 1.8170	73.6459
 1.8160	73.5981
 1.8150	73.5697
 1.8140	73.6163
 1.8130	73.5886
 1.8120	73.5836
 1.8110	73.6336
 1.8100	73.5985
 1.8090	73.5583
 1.8080	73.5341
 1.8070	73.5504
 1.8060	73.5630
 1.8050	73.5973
 1.8040	73.6512
 1.8030	73.6638
 1.8020	73.6663
 1.8010	73.6698
 1.8000	73.6353
 1.7990	73.6378
 1.7980	73.6540
 1.7970	73.6346
 1.7960	73.6335
 1.7950	73.6348
 1.7940	73.5874
 1.7930	73.5548
 1.7920	73.5294
 1.7910	73.5606
 1.7900	73.6230
 1.7890	73.5854
 1.7880	73.5831
 1.7870	73.5987
 1.7860	73.5556
 1.7850	73.5505
 1.7840	73.5624
 1.7830	73.5729
 1.7820	73.5943
 1.7810	73.5790
 1.7800	73.5555
 1.7790	73.5653
 1.7780	73.5725
 1.7770	73.5577
 1.7760	73.5532
 1.7750	73.5401
 1.7740	73.5372
 1.7730	73.4961
 1.7720	73.4699
 1.7710	73.4896
 1.7700	73.5226
 1.7690	73.5307
 1.7680	73.5197
 1.7670	73.5068
 1.7660	73.5151
 1.7650	73.5472
 1.7640	73.5355
 1.7630	73.4794
 1.7620	73.5164
 1.7610	73.4890
 1.7600	73.4894
 1.7590	73.4937
 1.7580	73.4578
 1.7570	73.4629
 1.7560	73.4456
 1.7550	73.4402
 1.7540	73.5240
 1.7530	73.5254
 1.7520	73.4731
 1.7510	73.3853
 1.7500	73.4396
 1.7490	73.4280
 1.7480	73.3942
 1.7470	73.3931
 1.7460	73.4374
 1.7450	73.4538
 1.7440	73.4698
 1.7430	73.4514
 1.7420	73.5242
 1.7410	73.4737
 1.7400	73.4606
 1.7390	73.4483
 1.7380	73.4771
 1.7370	73.4467
 1.7360	73.4189
 1.7350	73.4236
 1.7340	73.4208
 1.7330	73.3942
 1.7320	73.4519
 1.7310	73.4644
 1.7300	73.4906
 1.7290	73.5085
 1.7280	73.4904
 1.7270	73.4922
 1.7260	73.4759
 1.7250	73.4336
 1.7240	73.4698
 1.7230	73.4496
 1.7220	73.4818
 1.7210	73.4017
 1.7200	73.3836
 1.7190	73.4350
 1.7180	73.4017
 1.7170	73.4281
 1.7160	73.4045
 1.7150	73.3280
 1.7140	73.3732
 1.7130	73.3284
 1.7120	73.4213
 1.7110	73.3629
 1.7100	73.3138
 1.7090	73.3355
 1.7080	73.2737
 1.7070	73.3336
 1.7060	73.3926
 1.7050	73.2807
 1.7040	73.3181
 1.7030	73.3025
 1.7020	73.3176
 1.7010	73.2653
 1.7000	73.3270
 1.6990	73.2580
 1.6980	73.2469
 1.6970	73.2834
 1.6960	73.2300
 1.6950	73.2409
 1.6940	73.2385
 1.6930	73.2546
 1.6920	73.3082
 1.6910	73.2549
 1.6900	73.2741
 1.6890	73.2563
 1.6880	73.2156
 1.6870	73.1895
 1.6860	73.2378
 1.6850	73.2722
 1.6840	73.2587
 1.6830	73.1616
 1.6820	73.2102
 1.6810	73.3144
 1.6800	73.1827
 1.6790	73.1805
 1.6780	73.2160
 1.6770	73.1620
 1.6760	73.0877
 1.6750	73.0985
 1.6740	73.1965
 1.6730	73.0375
 1.6720	73.1035
 1.6710	73.1060
 1.6700	73.0911
 1.6690	73.1673
 1.6680	72.9929
 1.6670	73.0163
 1.6660	73.0211
 1.6650	72.9732
 1.6640	73.0485
 1.6630	73.0359
 1.6620	73.0807
 1.6610	73.0004
 1.6600	73.0363
 1.6590	72.9422
 1.6580	72.9837
 1.6570	73.0771
 1.6560	73.0749
 1.6550	73.0747
 1.6540	73.1826
 1.6530	73.1519
 1.6520	73.1482
 1.6510	73.1525
 1.6500	73.1980
 1.6490	73.2583
 1.6480	73.2545
 1.6470	73.1803
 1.6460	73.2712
 1.6450	73.1898
 1.6440	73.1787
 1.6430	73.1938
 1.6420	73.1437
 1.6410	73.1195
 1.6400	73.2262
 1.6390	73.2418
 1.6380	73.2552
 1.6370	73.2908
 1.6360	73.2244
 1.6350	73.2105
 1.6340	73.2568
 1.6330	73.1913
 1.6320	73.3654
 1.6310	73.2523
 1.6300	73.2002
 1.6290	73.2774
 1.6280	73.2435
 1.6270	73.1982
 1.6260	73.2988
 1.6250	73.2173
 1.6240	73.2881
 1.6230	73.2426
 1.6220	73.2821
 1.6210	73.2170
 1.6200	73.2915
 1.6190	73.1500
 1.6180	73.2172
 1.6170	73.1822
 1.6160	73.2633
 1.6150	73.1949
 1.6140	73.2580
 1.6130	73.2430
 1.6120	73.3071
 1.6110	73.2759
 1.6100	73.2229
 1.6090	73.2834
 1.6080	73.2899
 1.6070	73.2317
 1.6060	73.2885
 1.6050	73.1774
 1.6040	73.3654
 1.6030	73.2715
 1.6020	73.3015
 1.6010	73.2461
 1.6000	73.2922
 1.5990	73.2803
 1.5980	73.2186
 1.5970	73.2534
 1.5960	73.2125
 1.5950	73.2308
 1.5940	73.2150
 1.5930	73.2069
 1.5920	73.2591
 1.5910	73.2399
 1.5900	73.2092
 1.5890	73.1500
 1.5880	73.2188
 1.5870	73.1362
 1.5860	73.1602
 1.5850	73.1783
 1.5840	73.1399
 1.5830	73.1425
 1.5820	73.1404
 1.5810	73.0331
 1.5800	73.1333
 1.5790	73.1432
 1.5780	73.1626
 1.5770	73.0807
 1.5760	73.0262
 1.5750	73.0122
 1.5740	72.9934
 1.5730	73.0228
 1.5720	73.0348
 1.5710	72.9534
 1.5700	72.9439
 1.5690	72.9460
 1.5680	73.0333
 1.5670	72.9946
 1.5660	72.9110
 1.5650	72.8536
 1.5640	72.8963
 1.5630	72.9051
 1.5620	72.8481
 1.5610	72.7715
 1.5600	72.8283
 1.5590	72.8121
 1.5580	72.7884
 1.5570	72.7362
 1.5560	72.6958
 1.5550	72.6994
 1.5540	72.6480
 1.5530	72.5906
 1.5520	72.6929
 1.5510	72.6146
 1.5500	72.4977
 1.5490	72.3970
 1.5480	72.4073
 1.5470	72.3257
 1.5460	72.3019
 1.5450	72.2965
 1.5440	72.2214
 1.5430	72.1337
 1.5420	72.0714
 1.5410	72.0527
 1.5400	72.0513
 1.5390	72.0305
 1.5380	72.0326
 1.5370	71.9687
 1.5360	71.9365
 1.5350	71.9324
 1.5340	71.9550
 1.5330	71.9857
 1.5320	71.9585
 1.5310	71.9314
 1.5300	71.9414
 1.5290	71.9199
 1.5280	71.8667
 1.5270	71.8521
 1.5260	71.8249
 1.5250	71.7481
 1.5240	71.7561
 1.5230	71.7412
 1.5220	71.6846
 1.5210	71.6435
 1.5200	71.6185
 1.5190	71.5043
 1.5180	71.4413
 1.5170	71.3484
 1.5160	71.2101
 1.5150	71.0398
 1.5140	70.8884
 1.5130	70.6598
 1.5120	70.4336
 1.5110	70.1954
 1.5100	69.8805
 1.5090	69.4883
 1.5080	69.1813
 1.5070	68.9452
 1.5060	68.6978
 1.5050	68.5967
 1.5040	68.6006
 1.5030	68.6756
 1.5020	68.8081
 1.5010	69.0085
 1.5000	69.1940
 1.4990	69.3339
 1.4980	69.5662
 1.4970	69.7712
 1.4960	69.9724
 1.4950	70.1438
 1.4940	70.2613
 1.4930	70.3759
 1.4920	70.4604
 1.4910	70.5820
 1.4900	70.6825
 1.4890	70.7343
 1.4880	70.7968
 1.4870	70.8668
 1.4860	70.9475
 1.4850	71.0031
 1.4840	71.0263
 1.4830	71.1013
 1.4820	71.1061
 1.4810	71.0893
 1.4800	71.0952
 1.4790	71.1207
 1.4780	71.1567
 1.4770	71.2676
 1.4760	71.3219
 1.4750	71.3152
 1.4740	71.3106
 1.4730	71.3218
 1.4720	71.4254
 1.4710	71.4525
 1.4700	71.5004
 1.4690	71.5421
 1.4680	72.0039
 1.4670	71.8899
 1.4660	71.7172
 1.4650	71.7611
 1.4640	71.7604
 1.4630	71.7811
 1.4620	71.8089
 1.4610	71.8332
 1.4600	71.8238
 1.4590	71.9168
 1.4580	71.9109
 1.4570	71.9484
 1.4560	71.9601
 1.4550	71.9667
 1.4540	71.9528
 1.4530	71.9843
 1.4520	72.0063
 1.4510	72.0807
 1.4500	72.1268
 1.4490	72.1241
 1.4480	72.0978
 1.4470	72.1233
 1.4460	72.0975
 1.4450	72.1350
 1.4440	72.1841
 1.4430	72.1776
 1.4420	72.1765
 1.4410	72.1890
 1.4400	72.1583
 1.4390	72.1696
 1.4380	72.1471
 1.4370	72.1770
 1.4360	72.1650
 1.4350	72.1832
 1.4340	72.1872
 1.4330	72.2166
 1.4320	72.1773
 1.4310	72.1949
 1.4300	72.1786
 1.4290	72.2393
 1.4280	72.2083
 1.4270	72.1800
 1.4260	72.1887
 1.4250	72.2288
 1.4240	72.1877
 1.4230	72.1698
 1.4220	72.2289
 1.4210	72.2331
 1.4200	72.1563
 1.4190	72.0965
 1.4180	72.0617
 1.4170	72.0352
 1.4160	71.9303
 1.4150	72.0216
 1.4140	72.0863
 1.4130	72.0761
 1.4120	72.0828
 1.4110	72.1372
 1.4100	72.1213
 1.4090	72.2077
 1.4080	72.2279
 1.4070	72.2285
 1.4060	72.1982
 1.4050	72.1757
 1.4040	72.1432
 1.4030	72.1486
 1.4020	72.1240
 1.4010	72.1392
 1.4000	72.0966
 1.3990	72.1192
 1.3980	72.1719
 1.3970	72.2468
 1.3960	72.1345
 1.3950	72.1684
 1.3940	72.1257
 1.3930	72.1203
 1.3920	72.1749
 1.3910	72.2094
 1.3900	72.2163
 1.3890	72.2157
 1.3880	72.2070
 1.3870	72.2302
 1.3860	72.1551
 1.3850	72.1922
 1.3840	72.1712
 1.3830	72.1686
 1.3820	72.0962
 1.3810	72.1783
 1.3800	72.1855
 1.3790	72.2212
 1.3780	72.2203
 1.3770	72.2382
 1.3760	72.1678
 1.3750	72.2005
 1.3740	72.1775
 1.3730	72.1415
 1.3720	72.0833
 1.3710	72.0445
 1.3700	72.0343
 1.3690	72.0239
 1.3680	71.9575
 1.3670	72.0104
 1.3660	71.9450
 1.3650	71.9572
 1.3640	71.9406
 1.3630	71.9378
 1.3620	71.8212
 1.3610	71.8259
 1.3600	71.7216
 1.3590	71.8066
 1.3580	71.7503
 1.3570	71.6393
 1.3560	71.6370
 1.3550	71.6117
 1.3540	71.5580
 1.3530	71.5700
 1.3520	71.5273
 1.3510	71.5285
 1.3500	71.4422
 1.3490	71.4749
 1.3480	71.4685
 1.3470	71.5711
 1.3460	71.4991
 1.3450	71.4312
 1.3440	71.3791
 1.3430	71.3905
 1.3420	71.4135
 1.3410	71.4567
 1.3400	71.4412
 1.3390	71.3862
 1.3380	71.3599
 1.3370	71.4591
 1.3360	71.3925
 1.3350	71.4413
 1.3340	71.4065
 1.3330	71.3833
 1.3320	71.4007
 1.3310	71.3908
 1.3300	71.3236
 1.3290	71.4033
 1.3280	71.3272
 1.3270	71.3159
 1.3260	71.3734
 1.3250	71.3492
 1.3240	71.3944
 1.3230	71.4284
 1.3220	71.4155
 1.3210	71.4337
 1.3200	71.4417
 1.3190	71.4562
 1.3180	71.4516
 1.3170	71.5402
 1.3160	71.5072
 1.3150	71.5631
 1.3140	71.5406
 1.3130	71.5278
 1.3120	71.5326
 1.3110	71.5324
 1.3100	71.5201
 1.3090	71.5613
 1.3080	71.5220
 1.3070	71.6116
 1.3060	71.5457
 1.3050	71.5927
 1.3040	71.5695
 1.3030	71.6538
 1.3020	71.6342
 1.3010	71.6303
 1.3000	71.6178
 1.2990	71.6254
 1.2980	71.6533
 1.2970	71.6742
 1.2960	71.5970
 1.2950	71.5583
 1.2940	71.6022
 1.2930	71.6058
 1.2920	71.5955
 1.2910	71.6539
 1.2900	71.6429
 1.2890	71.7165
 1.2880	71.6830
 1.2870	71.7090
 1.2860	71.6844
 1.2850	71.6955
 1.2840	71.6460
 1.2830	71.6521
 1.2820	71.6425
 1.2810	71.6576
 1.2800	71.6629
 1.2790	71.6513
 1.2780	71.6190
 1.2770	71.7073
 1.2760	71.6560
 1.2750	71.6757
 1.2740	71.6909
 1.2730	71.6625
 1.2720	71.5976
 1.2710	71.6443
 1.2700	71.6637
 1.2690	71.7077
 1.2680	71.6627
 1.2670	71.7110
 1.2660	71.7084
 1.2650	71.7088
 1.2640	71.6817
 1.2630	71.6937
 1.2620	71.6959
 1.2610	71.7023
 1.2600	71.6634
 1.2590	71.6445
 1.2580	71.6376
 1.2570	71.6415
 1.2560	71.6277
 1.2550	71.6647
 1.2540	71.6859
 1.2530	71.7196
 1.2520	71.6718
 1.2510	71.6549
 1.2500	71.6729
 1.2490	71.6790
 1.2480	71.6725
 1.2470	71.6814
 1.2460	71.6173
 1.2450	71.5790
 1.2440	71.5841
 1.2430	71.6594
 1.2420	71.6263
 1.2410	71.6060
 1.2400	71.5931
 1.2390	71.5889
 1.2380	71.5899
 1.2370	71.6196
 1.2360	71.6278
 1.2350	71.5684
 1.2340	71.5841
 1.2330	71.5743
 1.2320	71.5831
 1.2310	71.5889
 1.2300	71.5217
 1.2290	71.5436
 1.2280	71.5494
 1.2270	71.5255
 1.2260	71.5123
 1.2250	71.4888
 1.2240	71.4973
 1.2230	71.5292
 1.2220	71.5033
 1.2210	71.4581
 1.2200	71.4785
 1.2190	71.4935
 1.2180	71.4514
 1.2170	71.3845
 1.2160	71.4072
 1.2150	71.4043
 1.2140	71.3419
 1.2130	71.3473
 1.2120	71.3434
 1.2110	71.3364
 1.2100	71.3276
 1.2090	71.3000
 1.2080	71.2764
 1.2070	71.2499
 1.2060	71.2473
 1.2050	71.2441
 1.2040	71.1965
 1.2030	71.1403
 1.2020	71.1349
 1.2010	71.1048
 1.2000	71.1176
 1.1990	71.0535
 1.1980	71.0452
 1.1970	71.0415
 1.1960	70.9674
 1.1950	70.9703
 1.1940	70.9327
 1.1930	70.9025
 1.1920	70.8730
 1.1910	70.8145
 1.1900	70.7959
 1.1890	70.7914
 1.1880	70.6841
 1.1870	70.6212
 1.1860	70.6126
 1.1850	70.5647
 1.1840	70.4961
 1.1830	70.4922
 1.1820	70.4803
 1.1810	70.3360
 1.1800	70.2948
 1.1790	70.2327
 1.1780	70.1995
 1.1770	70.1671
 1.1760	70.1450
 1.1750	70.0900
 1.1740	70.0076
 1.1730	69.9007
 1.1720	69.8063
 1.1710	69.7373
 1.1700	69.7244
 1.1690	69.6522
 1.1680	69.5552
 1.1670	69.4575
 1.1660	69.3851
 1.1650	69.2517
 1.1640	69.1873
 1.1630	69.1483
 1.1620	69.0475
 1.1610	68.9614
 1.1600	68.8862
 1.1590	68.7786
 1.1580	68.7514
 1.1570	68.5745
 1.1560	68.4187
 1.1550	68.3223
 1.1540	68.2862
 1.1530	68.2151
 1.1520	68.1207
 1.1510	67.9728
 1.1500	67.8651
 1.1490	67.7960
 1.1480	67.7104
 1.1470	67.6390
 1.1460	67.5708
 1.1450	67.4070
 1.1440	67.3015
 1.1430	67.3051
 1.1420	67.1478
 1.1410	67.0408
 1.1400	66.9672
 1.1390	66.8958
 1.1380	66.8200
 1.1370	66.8132
 1.1360	66.7063
 1.1350	66.5910
 1.1340	66.5844
 1.1330	66.4647
 1.1320	66.4684
 1.1310	66.3341
 1.1300	66.2280
 1.1290	66.1248
 1.1280	65.9855
 1.1270	65.8427
 1.1260	65.5900
 1.1250	65.3976
 1.1240	65.1406
 1.1230	64.9917
 1.1220	64.8001
 1.1210	64.6212
 1.1200	64.4517
 1.1190	64.2019
 1.1180	64.2167
 1.1170	64.1133
 1.1160	64.1420
 1.1150	64.1218
 1.1140	64.3181
 1.1130	64.4226
 1.1120	64.5036
 1.1110	64.6575
 1.1100	64.8176
 1.1090	64.8373
 1.1080	65.0349
 1.1070	65.0992
 1.1060	65.2370
 1.1050	65.3108
 1.1040	65.3388
 1.1030	65.4282
 1.1020	65.5864
 1.1010	65.6488
 1.1000	65.7221
 1.0990	65.6937
 1.0980	65.7380
 1.0970	65.7427
 1.0960	65.7856
 1.0950	65.8863
 1.0940	65.9191
 1.0930	65.8085
 1.0920	65.8846
 1.0910	65.9284
 1.0900	65.9194
 1.0890	65.9591
 1.0880	66.0144
 1.0870	66.0032
 1.0860	65.9711
 1.0850	66.0042
 1.0840	66.0255
 1.0830	65.9522
 1.0820	66.0507
 1.0810	66.0322
 1.0800	66.0897
 1.0790	66.0462
 1.0780	65.9898
 1.0770	65.9653
 1.0760	66.0576
 1.0750	65.9570
 1.0740	66.0395
 1.0730	65.9479
 1.0720	65.9145
 1.0710	65.8949
 1.0700	65.8316
 1.0690	65.8625
 1.0680	65.8015
 1.0670	65.7502
 1.0660	65.6879
 1.0650	65.6684
 1.0640	65.6719
 1.0630	65.5445
 1.0620	65.6330
 1.0610	65.5031
 1.0600	65.5286
 1.0590	65.4725
 1.0580	65.5117
 1.0570	65.5706
 1.0560	65.4185
 1.0550	65.5209
 1.0540	65.5216
 1.0530	65.5702
 1.0520	65.5720
 1.0510	65.5500
 1.0500	65.6226
 1.0490	65.6510
 1.0480	65.5717
 1.0470	65.5691
 1.0460	65.7005
 1.0450	65.6869
 1.0440	65.6898
 1.0430	65.7467
 1.0420	65.7124
 1.0410	65.7316
 1.0400	65.9221
 1.0390	65.8701
 1.0380	65.8496
 1.0370	65.9118
 1.0360	65.9257
 1.0350	65.8752
 1.0340	65.9265
 1.0330	65.9513
 1.0320	65.9493
 1.0310	65.9821
 1.0300	65.9163
 1.0290	65.9632
 1.0280	66.0061
 1.0270	65.9498
 1.0260	65.9993
 1.0250	65.9191
 1.0240	65.9010
 1.0230	65.9122
 1.0220	65.9514
 1.0210	65.9370
 1.0200	66.0373
 1.0190	65.9203
 1.0180	65.9430
 1.0170	65.9419
 1.0160	65.9456
 1.0150	65.8927
 1.0140	65.8787
 1.0130	65.8488
 1.0120	65.8546
 1.0110	65.8892
 1.0100	65.8390
 1.0090	65.8877
 1.0080	65.8905
 1.0070	65.8970
 1.0060	65.8650
 1.0050	65.8785
 1.0040	65.8980
 1.0030	65.9245
 1.0020	65.8491
 1.0010	65.8112
 1.0000	65.9665
 0.9990	65.9572
 0.9980	65.8807
 0.9970	65.9065
 0.9960	65.8832
 0.9950	65.9249
 0.9940	65.9226
 0.9930	65.8675
 0.9920	65.8320
 0.9910	65.7897
 0.9900	65.8028
 0.9890	65.8604
 0.9880	65.9212
 0.9870	65.8018
 0.9860	65.7168
 0.9850	65.6920
 0.9840	65.7440
 0.9830	65.7348
 0.9820	65.6992
 0.9810	65.6066
 0.9800	65.6073
 0.9790	65.5761
 0.9780	65.6120
 0.9770	65.5333
 0.9760	65.5844
 0.9750	65.5621
 0.9740	65.6299
 0.9730	65.5859
 0.9720	65.6187
 0.9710	65.6117
 0.9700	65.6065
 0.9690	65.5851
 0.9680	65.6010
 0.9670	65.6577
 0.9660	65.6292
 0.9650	65.5614
 0.9640	65.5637
 0.9630	65.5914
 0.9620	65.6204
 0.9610	65.5995
 0.9600	65.5709
 0.9590	65.5320
 0.9580	65.5856
 0.9570	65.6443
 0.9560	65.6140
 0.9550	65.5882
 0.9540	65.5875
 0.9530	65.5755
 0.9520	65.6207
 0.9510	65.6210
 0.9500	65.5860
 0.9490	65.5133
 0.9480	65.5440
 0.9470	65.5612
 0.9460	65.5496
 0.9450	65.5181
 0.9440	65.4844
 0.9430	65.4674
 0.9420	65.4643
 0.9410	65.4851
 0.9400	65.5122
 0.9390	65.5211
 0.9380	65.4614
 0.9370	65.4145
 0.9360	65.4280
 0.9350	65.4077
 0.9340	65.4083
 0.9330	65.4292
 0.9320	65.3940
 0.9310	65.3463
 0.9300	65.3073
 0.9290	65.2739
 0.9280	65.2749
 0.9270	65.2554
 0.9260	65.2251
 0.9250	65.1815
 0.9240	65.1084
 0.9230	65.0744
 0.9220	65.0466
 0.9210	65.0327
 0.9200	64.9346
 0.9190	64.8892
 0.9180	64.8963
 0.9170	64.8627
 0.9160	64.8544
 0.9150	64.8144
 0.9140	64.8495
 0.9130	64.8376
 0.9120	64.8653
 0.9110	64.9164
 0.9100	64.8942
 0.9090	64.9005
 0.9080	64.8968
 0.9070	64.9526
 0.9060	64.9268
 0.9050	64.9302
 0.9040	64.9869
 0.9030	64.9906
 0.9020	64.9317
 0.9010	64.9459
 0.9000	64.9377
 0.8990	64.9423
 0.8980	64.8853
 0.8970	64.8181
 0.8960	64.8205
 0.8950	64.8373
 0.8940	64.8608
 0.8930	64.9532
 0.8920	64.9781
 0.8910	64.9687
 0.8900	64.9002
 0.8890	64.9434
 0.8880	64.8893
 0.8870	64.9012
 0.8860	64.8807
 0.8850	64.9191
 0.8840	64.9209
 0.8830	64.9852
 0.8820	64.9737
 0.8810	64.9730
 0.8800	64.9681
 0.8790	64.9777
 0.8780	65.0176
 0.8770	65.0561
 0.8760	64.9654
 0.8750	65.0610
 0.8740	65.0544
 0.8730	65.0226
 0.8720	65.0396
 0.8710	65.1221
 0.8700	65.0964
 0.8690	65.0769
 0.8680	65.0038
 0.8670	65.0575
 0.8660	65.0846
 0.8650	65.0828
 0.8640	65.0210
 0.8630	65.0435
 0.8620	65.0792
 0.8610	65.0774
 0.8600	65.0753
 0.8590	65.2536
 0.8580	65.0358
 0.8570	65.1094
 0.8560	65.2672
 0.8550	65.0806
 0.8540	65.2089
 0.8530	65.2966
 0.8520	65.2042
 0.8510	65.2951
 0.8500	65.2355
 0.8490	65.2358
 0.8480	65.3377
 0.8470	65.3188
 0.8460	65.3001
 0.8450	65.4281
 0.8440	65.3516
 0.8430	65.4030
 0.8420	65.5267
 0.8410	65.4053
 0.8400	65.4099
 0.8390	65.5292
 0.8380	65.4381
 0.8370	65.4348
 0.8360	65.6085
 0.8350	65.5848
 0.8340	65.5680
 0.8330	65.6981
 0.8320	65.6321
 0.8310	65.6060
 0.8300	65.7366
 0.8290	65.7134
 0.8280	65.6783
 0.8270	65.8174
 0.8260	65.7514
 0.8250	65.7786
 0.8240	65.8653
 0.8230	65.8752
 0.8220	65.8847
 0.8210	65.9075
 0.8200	65.9579
 0.8190	65.9464
 0.8180	66.0087
 0.8170	66.0482
 0.8160	66.0340
 0.8150	66.0396
 0.8140	66.0836
 0.8130	66.0550
 0.8120	66.0908
 0.8110	66.1764
 0.8100	66.0886
 0.8090	66.1233
 0.8080	66.2018
 0.8070	66.1505
 0.8060	66.2190
 0.8050	66.2384
 0.8040	66.1817
 0.8030	66.2388
 0.8020	66.2600
 0.8010	66.2653
 0.8000	66.2661
 0.7990	66.2974
 0.7980	66.2744
 0.7970	66.2754
 0.7960	66.3080
 0.7950	66.2709
 0.7940	66.3098
 0.7930	66.2888
 0.7920	66.2607
 0.7910	66.3097
 0.7900	66.3357
 0.7890	66.2919
 0.7880	66.3459
 0.7870	66.3098
 0.7860	66.2940
 0.7850	66.3546
 0.7840	66.3160
 0.7830	66.2784
 0.7820	66.3153
 0.7810	66.3016
 0.7800	66.2610
 0.7790	66.2641
 0.7780	66.2379
 0.7770	66.2500
 0.7760	66.1988
 0.7750	66.2026
 0.7740	66.2241
 0.7730	66.1797
 0.7720	66.1571
 0.7710	66.1270
 0.7700	66.1261
 0.7690	66.0668
 0.7680	66.0649
 0.7670	66.0353
 0.7660	66.0193
 0.7650	65.9852
 0.7640	65.9703
 0.7630	65.9771
 0.7620	65.9029
 0.7610	65.8792
 0.7600	65.8385
 0.7590	65.8289
 0.7580	65.7968
 0.7570	65.7578
 0.7560	65.6918
 0.7550	65.6772
 0.7540	65.6472
 0.7530	65.5400
 0.7520	65.5420
 0.7510	65.4775
 0.7500	65.4344
 0.7490	65.3902
 0.7480	65.3635
 0.7470	65.3020
 0.7460	65.2670
 0.7450	65.1878
 0.7440	65.1345
 0.7430	65.1012
 0.7420	65.0386
 0.7410	64.9818
 0.7400	64.8878
 0.7390	64.8741
 0.7380	64.7970
 0.7370	64.7148
 0.7360	64.6730
 0.7350	64.6061
 0.7340	64.5265
 0.7330	64.4852
 0.7320	64.4094
 0.7310	64.3033
 0.7300	64.2748
 0.7290	64.2118
 0.7280	64.1180
 0.7270	64.0407
 0.7260	63.9933
 0.7250	63.8807
 0.7240	63.8115
 0.7230	63.7474
 0.7220	63.6490
 0.7210	63.5607
 0.7200	63.5396
 0.7190	63.4366
 0.7180	63.3502
 0.7170	63.3028
 0.7160	63.2179
 0.7150	63.0981
 0.7140	63.0349
 0.7130	62.9493
 0.7120	62.8614
 0.7110	62.7930
 0.7100	62.7077
 0.7090	62.6092
 0.7080	62.5502
 0.7070	62.4694
 0.7060	62.3865
 0.7050	62.3055
 0.7040	62.2270
 0.7030	62.1324
 0.7020	62.0506
 0.7010	61.9735
 0.7000	61.8886
 0.6990	61.8191
 0.6980	61.7218
 0.6970	61.6138
 0.6960	61.5181
 0.6950	61.3899
 0.6940	61.2300
 0.6930	61.0786
 0.6920	60.9018
 0.6910	60.6952
 0.6900	60.5390
 0.6890	60.4565
 0.6880	60.4312
 0.6870	60.4234
 0.6860	60.4518
 0.6850	60.4256
 0.6840	60.3857
 0.6830	60.3626
 0.6820	60.3073
 0.6810	60.2699
 0.6800	60.2470
 0.6790	60.1918
 0.6780	60.1271
 0.6770	60.0793
 0.6760	59.9964
 0.6750	59.9025
 0.6740	59.8343
 0.6730	59.7421
 0.6720	59.6311
 0.6710	59.5310
 0.6700	59.3945
 0.6690	59.2501
 0.6680	59.1233
 0.6670	58.9565
 0.6660	58.7714
 0.6650	58.5822
 0.6640	58.3563
 0.6630	58.1303
 0.6620	57.9013
 0.6610	57.6732
 0.6600	57.4465
 0.6590	57.2350
 0.6580	57.0124
 0.6570	56.7629
 0.6560	56.4805
 0.6550	56.1820
 0.6540	55.9312
 0.6530	55.7978
 0.6520	55.7999
 0.6510	55.9333
 0.6500	56.1365
 0.6490	56.3366
 0.6480	56.4856
 0.6470	56.5843
 0.6460	56.6454
 0.6450	56.6570
 0.6440	56.6586
 0.6430	56.6652
 0.6420	56.6438
 0.6410	56.6074
 0.6400	56.5728
 0.6390	56.5263
 0.6380	56.4659
 0.6370	56.4065
 0.6360	56.3325
 0.6350	56.2647
 0.6340	56.2118
 0.6330	56.1427
 0.6320	56.0619
 0.6310	55.9804
 0.6300	55.8930
 0.6290	55.8008
 0.6280	55.7140
 0.6270	55.6144
 0.6260	55.5053
 0.6250	55.3983
 0.6240	55.2936
 0.6230	55.1757
 0.6220	55.0660
 0.6210	54.9609
 0.6200	54.8476
 0.6190	54.7447
 0.6180	54.6474
 0.6170	54.5417
 0.6160	54.4425
 0.6150	54.3600
 0.6140	54.2810
 0.6130	54.2100
 0.6120	54.1507
 0.6110	54.0765
 0.6100	53.9947
 0.6090	53.9133
 0.6080	53.8282
 0.6070	53.7252
 0.6060	53.6248
 0.6050	53.5261
 0.6040	53.4147
 0.6030	53.3035
 0.6020	53.2059
 0.6010	53.0893
 0.6000	52.9601
 0.5990	52.8461
 0.5980	52.7332
 0.5970	52.6067
 0.5960	52.4835
 0.5950	52.3561
 0.5940	52.2045
 0.5930	52.0377
 0.5920	51.8744
 0.5910	51.7136
 0.5900	51.5503
 0.5890	51.4157
 0.5880	51.2980
 0.5870	51.1964
 0.5860	51.1131
 0.5850	51.0198
 0.5840	50.9229
 0.5830	50.8234
 0.5820	50.7215
 0.5810	50.6095
 0.5800	50.4933
 0.5790	50.3709
 0.5780	50.2417
 0.5770	50.1126
 0.5760	49.9758
 0.5750	49.8384
 0.5740	49.7008
 0.5730	49.5575
 0.5720	49.4086
 0.5710	49.2565
 0.5700	49.0986
 0.5690	48.9373
 0.5680	48.7854
 0.5670	48.6235
 0.5660	48.4606
 0.5650	48.2829
 0.5640	48.0992
 0.5630	47.9275
 0.5620	47.7410
 0.5610	47.5692
 0.5600	47.3888
 0.5590	47.2087
 0.5580	47.0422
 0.5570	46.8748
 0.5560	46.7021
 0.5550	46.5323
 0.5540	46.3558
 0.5530	46.1680
 0.5520	45.9906
 0.5510	45.8058
 0.5500	45.6097
 0.5490	45.4207
 0.5480	45.2243
 0.5470	45.0315
 0.5460	44.8340
 0.5450	44.6381
 0.5440	44.4471
 0.5430	44.2391
 0.5420	44.0485
 0.5410	43.8490
 0.5400	43.6505
 0.5390	43.4555
 0.5380	43.2678
 0.5370	43.0885
 0.5360	42.9181
 0.5350	42.7607
 0.5340	42.5978
 0.5330	42.4308
 0.5320	42.2605
 0.5310	42.0949
 0.5300	41.9327
 0.5290	41.7619
 0.5280	41.6009
 0.5270	41.4388
 0.5260	41.2631
 0.5250	41.0830
 0.5240	40.8985
 0.5230	40.7299
 0.5220	40.5594
 0.5210	40.3904
 0.5200	40.2156
 0.5190	40.0427
 0.5180	39.8744
 0.5170	39.7075
 0.5160	39.5438
 0.5150	39.3815
 0.5140	39.2285
 0.5130	39.0805
 0.5120	38.9349
 0.5110	38.7976
 0.5100	38.6489
 0.5090	38.5162
 0.5080	38.3845
 0.5070	38.2564
 0.5060	38.1492
 0.5050	38.0056
 0.5040	37.8790
 0.5030	37.7567
 0.5020	37.6305
 0.5010	37.5000
 0.5000	37.3832
 0.4990	37.2641
 0.4980	37.1345
 0.4970	36.9963
 0.4960	36.8766
 0.4950	36.7421
 0.4940	36.6176
 0.4930	36.4918
 0.4920	36.3784
 0.4910	36.2150
 0.4900	36.0994
 0.4890	35.9889
 0.4880	35.8491
 0.4870	35.7463
 0.4860	35.6504
 0.4850	35.5136
 0.4840	35.4123
 0.4830	35.3242
 0.4820	35.2158
 0.4810	35.1335
 0.4800	35.0664
 0.4790	34.9864
 0.4780	34.9042
 0.4770	34.8380
 0.4760	34.7824
 0.4750	34.7198
 0.4740	34.6682
 0.4730	34.6014
 0.4720	34.5502
 0.4710	34.4918
 0.4700	34.4410
 0.4690	34.3695
 0.4680	34.3261
 0.4670	34.2776
 0.4660	34.2290
 0.4650	34.1634
 0.4640	34.1239
 0.4630	34.0561
 0.4620	34.0025
 0.4610	33.9508
 0.4600	33.8945
 0.4590	33.8200
 0.4580	33.7679
 0.4570	33.6949
 0.4560	33.6290
 0.4550	33.5703
 0.4540	33.4826
 0.4530	33.4023
 0.4520	33.3417
 0.4510	33.2568
 0.4500	33.1564
 0.4490	33.0458
 0.4480	32.9258
 0.4470	32.8067
 0.4460	32.6711
 0.4450	32.5332
 0.4440	32.3886
 0.4430	32.2263
 0.4420	32.0606
 0.4410	31.9007
 0.4400	31.7104
 0.4390	31.5313
 0.4380	31.3443
 0.4370	31.1501
 0.4360	30.9618
 0.4350	30.7656
 0.4340	30.5712
 0.4330	30.3709
 0.4320	30.1916
 0.4310	30.0054
 0.4300	29.8323
 0.4290	29.6676
 0.4280	29.5013
 0.4270	29.3373
 0.4260	29.1810
 0.4250	29.0270
 0.4240	28.8644
 0.4230	28.7216
 0.4220	28.5854
 0.4210	28.4502
 0.4200	28.3301
 0.4190	28.2047
 0.4180	28.0946
 0.4170	27.9710
 0.4160	27.8606
 0.4150	27.7522
 0.4140	27.6386
 0.4130	27.5397
 0.4120	27.4372
 0.4110	27.3200
 0.4100	27.2249
 0.4090	27.1162
 0.4080	27.0100
 0.4070	26.9041
 0.4060	26.8026
 0.4050	26.6907
 0.4040	26.5760
 0.4030	26.4563
 0.4020	26.3404
 0.4010	26.2220
 0.4000	26.1074
