Name: Chlorite
Type: Mineral
Class: Silicate
Subclass: Phyllosilicate
Particle Size: Fine
Sample No.: PS-12C
Owner: JPL
Wavelength Range: VSWIR
Origin: USA, California.
Collection Date: N/A
Description: Particle size was 0-45um.Collected by:  Ward's Original ASTER Spectral Library name was jpl.perkin.mineral.silicate.phyllosilicate.fine.ps12c.spectrum.txt
Measurement: Hemispherical reflectance
First Column: X
Second Column: Y
X Units: Wavelength (micrometers)
Y Units:Reflectance (percent)
First X Value:  2.5000
Last X Value:  0.4000
Number of X Values: 2101
Additional Information: mineral.silicate.phyllosilicate.fine.vswir.ps-12c.jpl.perkin.ancillary.txt

 2.5000	49.4211
 2.4990	49.4843
 2.4980	49.5292
 2.4970	49.6705
 2.4960	49.1489
 2.4950	49.3135
 2.4940	49.4935
 2.4930	49.4871
 2.4920	49.6096
 2.4910	49.5144
 2.4900	49.6562
 2.4890	49.5123
 2.4880	49.4105
 2.4870	49.3860
 2.4860	49.3506
 2.4850	49.4671
 2.4840	49.4750
 2.4830	49.5085
 2.4820	49.3959
 2.4810	49.4281
 2.4800	49.4551
 2.4790	49.4259
 2.4780	49.4929
 2.4770	49.2402
 2.4760	49.6366
 2.4750	49.5580
 2.4740	49.4587
 2.4730	49.4945
 2.4720	49.4994
 2.4710	49.4716
 2.4700	49.6704
 2.4690	49.6325
 2.4680	49.6226
 2.4670	49.8373
 2.4660	49.9502
 2.4650	50.0133
 2.4640	50.2373
 2.4630	50.0385
 2.4620	50.3043
 2.4610	50.3978
 2.4600	50.5741
 2.4590	50.5977
 2.4580	50.8074
 2.4570	50.9122
 2.4560	50.9962
 2.4550	51.1669
 2.4540	51.3806
 2.4530	51.4938
 2.4520	51.7562
 2.4510	51.7680
 2.4500	51.9993
 2.4490	52.1319
 2.4480	52.2696
 2.4470	52.4111
 2.4460	52.5515
 2.4450	52.6190
 2.4440	52.7715
 2.4430	52.8432
 2.4420	53.1434
 2.4410	53.1773
 2.4400	53.2858
 2.4390	53.4128
 2.4380	53.5323
 2.4370	53.5702
 2.4360	53.6265
 2.4350	53.7420
 2.4340	54.0117
 2.4330	54.0347
 2.4320	54.1365
 2.4310	54.2777
 2.4300	54.3249
 2.4290	54.4217
 2.4280	54.5330
 2.4270	54.6867
 2.4260	54.7803
 2.4250	54.8857
 2.4240	54.9523
 2.4230	54.9512
 2.4220	55.1615
 2.4210	55.2105
 2.4200	55.2722
 2.4190	55.3207
 2.4180	55.4268
 2.4170	55.4483
 2.4160	55.5089
 2.4150	55.4925
 2.4140	55.5714
 2.4130	55.5911
 2.4120	55.5453
 2.4110	55.4968
 2.4100	55.4446
 2.4090	55.3468
 2.4080	55.2219
 2.4070	55.1592
 2.4060	55.1128
 2.4050	55.1020
 2.4040	54.9113
 2.4030	54.6638
 2.4020	54.6251
 2.4010	54.5072
 2.4000	54.3830
 2.3990	54.2425
 2.3980	54.1575
 2.3970	54.0339
 2.3960	53.9752
 2.3950	53.8392
 2.3940	53.6643
 2.3930	53.6061
 2.3920	53.5912
 2.3910	53.4828
 2.3900	53.4015
 2.3890	53.3166
 2.3880	53.2536
 2.3870	53.2435
 2.3860	53.2467
 2.3850	53.2035
 2.3840	53.1923
 2.3830	53.1512
 2.3820	53.1593
 2.3810	53.1444
 2.3800	53.0985
 2.3790	53.1002
 2.3780	53.0675
 2.3770	53.0564
 2.3760	53.0498
 2.3750	52.9727
 2.3740	52.8934
 2.3730	52.8164
 2.3720	52.7117
 2.3710	52.6601
 2.3700	52.6185
 2.3690	52.3807
 2.3680	52.2617
 2.3670	52.2420
 2.3660	52.0613
 2.3650	51.8261
 2.3640	51.6382
 2.3630	51.4491
 2.3620	51.2982
 2.3610	51.1377
 2.3600	50.9497
 2.3590	50.7211
 2.3580	50.4922
 2.3570	50.3243
 2.3560	50.1426
 2.3550	49.8480
 2.3540	49.6355
 2.3530	49.5146
 2.3520	49.3134
 2.3510	49.1217
 2.3500	48.8878
 2.3490	48.7120
 2.3480	48.5127
 2.3470	48.2725
 2.3460	48.1128
 2.3450	47.9467
 2.3440	47.7983
 2.3430	47.6002
 2.3420	47.4496
 2.3410	47.3549
 2.3400	47.1803
 2.3390	47.0306
 2.3380	46.8574
 2.3370	46.7118
 2.3360	46.6296
 2.3350	46.5102
 2.3340	46.3961
 2.3330	46.3648
 2.3320	46.2559
 2.3310	46.1903
 2.3300	46.1324
 2.3290	46.1399
 2.3280	46.1611
 2.3270	46.1997
 2.3260	46.1816
 2.3250	46.1434
 2.3240	46.2144
 2.3230	46.3122
 2.3220	46.3423
 2.3210	46.7483
 2.3200	46.7552
 2.3190	46.7182
 2.3180	46.8236
 2.3170	47.0078
 2.3160	47.1908
 2.3150	47.3661
 2.3140	47.4428
 2.3130	47.5809
 2.3120	47.7375
 2.3110	47.9036
 2.3100	48.0833
 2.3090	48.2475
 2.3080	48.4445
 2.3070	48.6151
 2.3060	48.7111
 2.3050	48.8624
 2.3040	48.9844
 2.3030	49.1642
 2.3020	49.2458
 2.3010	49.3697
 2.3000	49.5124
 2.2990	49.6588
 2.2980	49.7128
 2.2970	49.8853
 2.2960	49.9852
 2.2950	50.1535
 2.2940	50.2108
 2.2930	50.4574
 2.2920	50.6081
 2.2910	50.8171
 2.2900	51.0079
 2.2890	51.3197
 2.2880	51.5040
 2.2870	51.7798
 2.2860	52.1433
 2.2850	52.4209
 2.2840	52.6284
 2.2830	52.9007
 2.2820	53.1783
 2.2810	53.5168
 2.2800	53.8139
 2.2790	54.0843
 2.2780	54.3352
 2.2770	54.5164
 2.2760	54.6620
 2.2750	54.8611
 2.2740	55.0194
 2.2730	55.1022
 2.2720	55.3041
 2.2710	55.3383
 2.2700	55.3397
 2.2690	55.4003
 2.2680	55.4516
 2.2670	55.5836
 2.2660	55.5558
 2.2650	55.4907
 2.2640	55.4831
 2.2630	55.5275
 2.2620	55.4898
 2.2610	55.5303
 2.2600	55.4254
 2.2590	55.3971
 2.2580	55.3650
 2.2570	55.3803
 2.2560	55.2496
 2.2550	55.2188
 2.2540	55.1730
 2.2530	55.1530
 2.2520	55.1319
 2.2510	55.1815
 2.2500	55.1773
 2.2490	55.1110
 2.2480	55.1951
 2.2470	55.3497
 2.2460	55.4385
 2.2450	55.6520
 2.2440	55.7868
 2.2430	56.1385
 2.2420	56.3549
 2.2410	56.6042
 2.2400	56.9987
 2.2390	57.4090
 2.2380	57.8332
 2.2370	58.2519
 2.2360	58.6844
 2.2350	59.1590
 2.2340	59.6140
 2.2330	60.1536
 2.2320	60.6414
 2.2310	61.1482
 2.2300	61.5240
 2.2290	61.9623
 2.2280	62.4007
 2.2270	62.8597
 2.2260	63.2776
 2.2250	63.5969
 2.2240	63.9699
 2.2230	64.4298
 2.2220	64.6368
 2.2210	64.9975
 2.2200	65.2503
 2.2190	65.6069
 2.2180	65.7974
 2.2170	65.9670
 2.2160	66.2416
 2.2150	66.4763
 2.2140	66.6588
 2.2130	66.8073
 2.2120	67.0556
 2.2110	67.1526
 2.2100	67.4251
 2.2090	67.5872
 2.2080	67.6894
 2.2070	67.9662
 2.2060	67.9965
 2.2050	68.2536
 2.2040	68.3625
 2.2030	68.5748
 2.2020	68.6497
 2.2010	68.7361
 2.2000	68.9409
 2.1990	69.1126
 2.1980	69.1999
 2.1970	69.1967
 2.1960	69.3393
 2.1950	69.5061
 2.1940	69.5456
 2.1930	69.6222
 2.1920	69.7628
 2.1910	69.8698
 2.1900	69.9606
 2.1890	70.0114
 2.1880	70.1728
 2.1870	70.2882
 2.1860	70.3225
 2.1850	70.4528
 2.1840	70.6498
 2.1830	70.7422
 2.1820	70.7045
 2.1810	70.8587
 2.1800	70.8955
 2.1790	70.9131
 2.1780	71.0859
 2.1770	71.2023
 2.1760	71.2404
 2.1750	71.3713
 2.1740	71.4379
 2.1730	71.4279
 2.1720	71.5893
 2.1710	71.6357
 2.1700	71.7144
 2.1690	71.7542
 2.1680	71.7788
 2.1670	71.9730
 2.1660	71.9226
 2.1650	72.0710
 2.1640	72.1055
 2.1630	72.1050
 2.1620	72.1748
 2.1610	72.2354
 2.1600	72.3507
 2.1590	72.3654
 2.1580	72.3326
 2.1570	72.4177
 2.1560	72.4893
 2.1550	72.4978
 2.1540	72.4959
 2.1530	72.4881
 2.1520	72.6517
 2.1510	72.7656
 2.1500	72.6933
 2.1490	72.6869
 2.1480	72.7328
 2.1470	72.7515
 2.1460	72.7888
 2.1450	72.8231
 2.1440	72.8021
 2.1430	72.7388
 2.1420	72.7924
 2.1410	72.7885
 2.1400	72.7744
 2.1390	72.9047
 2.1380	72.8522
 2.1370	72.8236
 2.1360	72.8305
 2.1350	72.8284
 2.1340	72.7332
 2.1330	72.6672
 2.1320	72.7045
 2.1310	72.6782
 2.1300	72.6290
 2.1290	72.5937
 2.1280	72.5949
 2.1270	72.5386
 2.1260	72.4530
 2.1250	72.4202
 2.1240	72.4329
 2.1230	72.3203
 2.1220	72.2852
 2.1210	72.2444
 2.1200	72.2145
 2.1190	72.2519
 2.1180	72.1468
 2.1170	72.1081
 2.1160	72.0213
 2.1150	71.9836
 2.1140	71.9356
 2.1130	71.9195
 2.1120	71.8467
 2.1110	71.8532
 2.1100	71.8315
 2.1090	71.7899
 2.1080	71.7008
 2.1070	71.7288
 2.1060	71.7742
 2.1050	71.7081
 2.1040	71.7265
 2.1030	71.7065
 2.1020	71.7047
 2.1010	71.7488
 2.1000	71.7523
 2.0990	71.7901
 2.0980	71.8488
 2.0970	71.9026
 2.0960	71.9873
 2.0950	72.0488
 2.0940	72.0730
 2.0930	72.1208
 2.0920	72.2220
 2.0910	72.2619
 2.0900	72.3653
 2.0890	72.4048
 2.0880	72.4160
 2.0870	72.4672
 2.0860	72.4308
 2.0850	72.3732
 2.0840	72.3922
 2.0830	72.3677
 2.0820	72.3385
 2.0810	72.4356
 2.0800	72.4697
 2.0790	72.0858
 2.0780	72.0111
 2.0770	72.4220
 2.0760	72.4447
 2.0750	72.3383
 2.0740	72.3331
 2.0730	72.3545
 2.0720	72.2740
 2.0710	72.2840
 2.0700	72.2938
 2.0690	72.2191
 2.0680	72.1627
 2.0670	72.1686
 2.0660	72.2136
 2.0650	72.1818
 2.0640	72.0948
 2.0630	72.0406
 2.0620	72.0195
 2.0610	72.0158
 2.0600	71.9243
 2.0590	71.8533
 2.0580	71.8450
 2.0570	71.8017
 2.0560	71.7157
 2.0550	71.7589
 2.0540	71.7403
 2.0530	71.6040
 2.0520	71.5154
 2.0510	71.4711
 2.0500	71.4825
 2.0490	71.4378
 2.0480	71.3268
 2.0470	71.2699
 2.0460	71.2302
 2.0450	71.1415
 2.0440	71.0739
 2.0430	71.0101
 2.0420	70.9082
 2.0410	70.8571
 2.0400	70.7733
 2.0390	70.6446
 2.0380	70.6181
 2.0370	70.5009
 2.0360	70.3708
 2.0350	70.3077
 2.0340	70.2501
 2.0330	70.0862
 2.0320	69.9862
 2.0310	69.8332
 2.0300	69.7147
 2.0290	69.6479
 2.0280	69.5124
 2.0270	69.3594
 2.0260	69.2585
 2.0250	69.2106
 2.0240	69.0720
 2.0230	68.9559
 2.0220	68.8174
 2.0210	68.7122
 2.0200	68.6022
 2.0190	68.4651
 2.0180	68.3684
 2.0170	68.2490
 2.0160	68.1780
 2.0150	68.0261
 2.0140	67.9336
 2.0130	67.8681
 2.0120	67.7883
 2.0110	67.7324
 2.0100	67.6861
 2.0090	67.6406
 2.0080	67.5748
 2.0070	67.4984
 2.0060	67.4791
 2.0050	67.3513
 2.0040	67.2733
 2.0030	67.2418
 2.0020	67.2309
 2.0010	67.1758
 2.0000	67.2218
 1.9990	67.1625
 1.9980	67.0488
 1.9970	67.0150
 1.9960	66.9264
 1.9950	66.9567
 1.9940	66.9171
 1.9930	66.9292
 1.9920	66.9560
 1.9910	66.8498
 1.9900	66.8473
 1.9890	66.8637
 1.9880	66.8629
 1.9870	66.8427
 1.9860	66.8036
 1.9850	66.8299
 1.9840	66.8144
 1.9830	66.8370
 1.9820	66.8253
 1.9810	66.8805
 1.9800	66.9527
 1.9790	66.9372
 1.9780	66.9987
 1.9770	66.9776
 1.9760	67.1167
 1.9750	67.1055
 1.9740	67.1621
 1.9730	67.2476
 1.9720	67.2566
 1.9710	67.2824
 1.9700	67.3335
 1.9690	67.3352
 1.9680	67.4387
 1.9670	67.3183
 1.9660	67.4183
 1.9650	67.4277
 1.9640	67.5547
 1.9630	67.4818
 1.9620	67.5211
 1.9610	67.5544
 1.9600	67.5993
 1.9590	67.6068
 1.9580	67.6680
 1.9570	67.6573
 1.9560	67.7117
 1.9550	67.6998
 1.9540	67.6791
 1.9530	67.8514
 1.9520	67.8298
 1.9510	67.8634
 1.9500	67.8571
 1.9490	67.9530
 1.9480	68.1177
 1.9470	67.9891
 1.9460	68.1069
 1.9450	68.1570
 1.9440	68.1428
 1.9430	68.2458
 1.9420	68.3641
 1.9410	68.2759
 1.9400	68.4263
 1.9390	68.3411
 1.9380	68.4820
 1.9370	68.4968
 1.9360	68.5887
 1.9350	68.5907
 1.9340	68.5676
 1.9330	68.6761
 1.9320	68.7716
 1.9310	68.6824
 1.9300	68.7552
 1.9290	68.7187
 1.9280	68.8821
 1.9270	68.8644
 1.9260	68.8367
 1.9250	68.9652
 1.9240	68.8580
 1.9230	68.8820
 1.9220	69.0348
 1.9210	68.8700
 1.9200	68.9845
 1.9190	68.9166
 1.9180	69.0821
 1.9170	68.9563
 1.9160	69.0695
 1.9150	69.0365
 1.9140	69.1573
 1.9130	69.1499
 1.9120	69.1957
 1.9110	69.1814
 1.9100	69.2941
 1.9090	69.3898
 1.9080	69.3278
 1.9070	69.3324
 1.9060	69.3667
 1.9050	69.3787
 1.9040	69.3933
 1.9030	69.5190
 1.9020	69.5366
 1.9010	69.6083
 1.9000	69.6926
 1.8990	69.6884
 1.8980	69.7983
 1.8970	69.8146
 1.8960	69.8414
 1.8950	69.8800
 1.8940	69.9334
 1.8930	69.8898
 1.8920	69.8846
 1.8910	69.9264
 1.8900	69.9158
 1.8890	69.9691
 1.8880	69.8053
 1.8870	69.7671
 1.8860	69.9211
 1.8850	69.7596
 1.8840	69.8073
 1.8830	69.7006
 1.8820	69.8104
 1.8810	69.8970
 1.8800	69.8525
 1.8790	69.8966
 1.8780	69.8622
 1.8770	69.9242
 1.8760	69.9695
 1.8750	70.0427
 1.8740	69.9747
 1.8730	70.0293
 1.8720	70.0444
 1.8710	70.2007
 1.8700	70.2373
 1.8690	70.3024
 1.8680	70.3329
 1.8670	70.3579
 1.8660	70.4670
 1.8650	70.5747
 1.8640	70.5962
 1.8630	70.6397
 1.8620	70.7852
 1.8610	70.7137
 1.8600	70.7884
 1.8590	70.7864
 1.8580	70.8305
 1.8570	70.8887
 1.8560	70.8873
 1.8550	70.9143
 1.8540	70.9922
 1.8530	70.9736
 1.8520	71.0754
 1.8510	71.1073
 1.8500	71.1353
 1.8490	71.2308
 1.8480	71.2423
 1.8470	71.1908
 1.8460	71.2731
 1.8450	71.3530
 1.8440	71.4291
 1.8430	71.3537
 1.8420	71.3892
 1.8410	71.5242
 1.8400	71.5402
 1.8390	71.5368
 1.8380	71.5357
 1.8370	71.5384
 1.8360	71.5917
 1.8350	71.5444
 1.8340	71.6704
 1.8330	71.6731
 1.8320	71.6367
 1.8310	71.6325
 1.8300	71.6702
 1.8290	71.7070
 1.8280	71.7168
 1.8270	71.6890
 1.8260	71.6769
 1.8250	71.7107
 1.8240	71.7104
 1.8230	71.6876
 1.8220	71.6919
 1.8210	71.7193
 1.8200	71.7379
 1.8190	71.7596
 1.8180	71.7243
 1.8170	71.7686
 1.8160	71.7526
 1.8150	71.8062
 1.8140	71.8412
 1.8130	71.7751
 1.8120	71.7200
 1.8110	71.7218
 1.8100	71.8156
 1.8090	71.7964
 1.8080	71.7774
 1.8070	71.7682
 1.8060	71.7675
 1.8050	71.7812
 1.8040	71.7767
 1.8030	71.7704
 1.8020	71.7220
 1.8010	71.7381
 1.8000	71.7672
 1.7990	71.7692
 1.7980	71.7418
 1.7970	71.6762
 1.7960	71.7110
 1.7950	71.7093
 1.7940	71.6729
 1.7930	71.6283
 1.7920	71.6289
 1.7910	71.6497
 1.7900	71.6387
 1.7890	71.6415
 1.7880	71.6097
 1.7870	71.6161
 1.7860	71.5444
 1.7850	71.4663
 1.7840	71.5097
 1.7830	71.5093
 1.7820	71.4977
 1.7810	71.4939
 1.7800	71.4370
 1.7790	71.3863
 1.7780	71.3775
 1.7770	71.3884
 1.7760	71.3630
 1.7750	71.3259
 1.7740	71.3071
 1.7730	71.2832
 1.7720	71.2808
 1.7710	71.2752
 1.7700	71.2637
 1.7690	71.2562
 1.7680	71.2492
 1.7670	71.2786
 1.7660	71.2230
 1.7650	71.1551
 1.7640	71.1430
 1.7630	71.1379
 1.7620	71.1239
 1.7610	71.0979
 1.7600	71.0865
 1.7590	71.0990
 1.7580	71.0050
 1.7570	70.9897
 1.7560	71.0010
 1.7550	70.9610
 1.7540	70.9931
 1.7530	71.0287
 1.7520	70.9686
 1.7510	70.8552
 1.7500	70.8329
 1.7490	70.8381
 1.7480	70.8026
 1.7470	70.8467
 1.7460	70.8688
 1.7450	70.8626
 1.7440	70.8127
 1.7430	70.7226
 1.7420	70.6588
 1.7410	70.6392
 1.7400	70.6195
 1.7390	70.6465
 1.7380	70.6646
 1.7370	70.5761
 1.7360	70.5732
 1.7350	70.5706
 1.7340	70.5260
 1.7330	70.5055
 1.7320	70.4940
 1.7310	70.5094
 1.7300	70.4024
 1.7290	70.3227
 1.7280	70.3972
 1.7270	70.3781
 1.7260	70.3358
 1.7250	70.2755
 1.7240	70.2722
 1.7230	70.2638
 1.7220	70.2022
 1.7210	70.2441
 1.7200	70.2078
 1.7190	70.0978
 1.7180	70.0611
 1.7170	70.0493
 1.7160	69.9910
 1.7150	69.9871
 1.7140	69.9618
 1.7130	69.9671
 1.7120	69.9356
 1.7110	69.9045
 1.7100	69.8439
 1.7090	69.8008
 1.7080	69.7624
 1.7070	69.7404
 1.7060	69.6902
 1.7050	69.6473
 1.7040	69.6204
 1.7030	69.5789
 1.7020	69.5881
 1.7010	69.5407
 1.7000	69.4452
 1.6990	69.3997
 1.6980	69.4408
 1.6970	69.4287
 1.6960	69.2671
 1.6950	69.2475
 1.6940	69.3248
 1.6930	69.2872
 1.6920	69.2803
 1.6910	69.2071
 1.6900	69.1357
 1.6890	69.0827
 1.6880	69.0454
 1.6870	68.9929
 1.6860	69.0347
 1.6850	69.0329
 1.6840	68.9843
 1.6830	68.9410
 1.6820	68.8982
 1.6810	68.8719
 1.6800	68.8343
 1.6790	68.7886
 1.6780	68.6807
 1.6770	68.7030
 1.6760	68.6488
 1.6750	68.6356
 1.6740	68.5368
 1.6730	68.5356
 1.6720	68.5611
 1.6710	68.4336
 1.6700	68.4029
 1.6690	68.4323
 1.6680	68.3596
 1.6670	68.3538
 1.6660	68.1726
 1.6650	68.2432
 1.6640	68.1265
 1.6630	68.1745
 1.6620	68.1780
 1.6610	68.0711
 1.6600	67.9391
 1.6590	67.9118
 1.6580	67.8664
 1.6570	67.9282
 1.6560	67.8438
 1.6550	67.8562
 1.6540	67.8279
 1.6530	67.7767
 1.6520	67.6888
 1.6510	67.6681
 1.6500	67.5358
 1.6490	67.5787
 1.6480	67.5374
 1.6470	67.4428
 1.6460	67.3793
 1.6450	67.3250
 1.6440	67.2923
 1.6430	67.3219
 1.6420	67.2163
 1.6410	67.1688
 1.6400	67.1418
 1.6390	67.0778
 1.6380	67.0653
 1.6370	67.0148
 1.6360	66.9198
 1.6350	66.9578
 1.6340	66.8510
 1.6330	66.8706
 1.6320	66.7337
 1.6310	66.7933
 1.6300	66.6677
 1.6290	66.5967
 1.6280	66.5613
 1.6270	66.5674
 1.6260	66.5864
 1.6250	66.4788
 1.6240	66.3279
 1.6230	66.2662
 1.6220	66.3728
 1.6210	66.3277
 1.6200	66.1975
 1.6190	66.1613
 1.6180	66.0405
 1.6170	66.0359
 1.6160	65.9763
 1.6150	66.0336
 1.6140	65.8367
 1.6130	65.7995
 1.6120	65.7894
 1.6110	65.8300
 1.6100	65.7445
 1.6090	65.6666
 1.6080	65.5723
 1.6070	65.6015
 1.6060	65.5214
 1.6050	65.4103
 1.6040	65.3349
 1.6030	65.4189
 1.6020	65.2485
 1.6010	65.2162
 1.6000	65.1918
 1.5990	65.1558
 1.5980	65.0423
 1.5970	65.0011
 1.5960	64.9536
 1.5950	64.8942
 1.5940	64.8264
 1.5930	64.8356
 1.5920	64.6963
 1.5910	64.6204
 1.5900	64.5712
 1.5890	64.5544
 1.5880	64.4872
 1.5870	64.4645
 1.5860	64.4385
 1.5850	64.3590
 1.5840	64.3528
 1.5830	64.2524
 1.5820	64.1814
 1.5810	64.1155
 1.5800	64.0741
 1.5790	64.0246
 1.5780	63.8970
 1.5770	63.8210
 1.5760	63.7739
 1.5750	63.7395
 1.5740	63.7088
 1.5730	63.6419
 1.5720	63.6363
 1.5710	63.5682
 1.5700	63.4332
 1.5690	63.4183
 1.5680	63.3564
 1.5670	63.3124
 1.5660	63.2348
 1.5650	63.2281
 1.5640	63.1689
 1.5630	63.1180
 1.5620	63.0140
 1.5610	62.9711
 1.5600	62.9066
 1.5590	62.8784
 1.5580	62.7695
 1.5570	62.7297
 1.5560	62.7473
 1.5550	62.7360
 1.5540	62.6426
 1.5530	62.6181
 1.5520	62.5528
 1.5510	62.4590
 1.5500	62.4133
 1.5490	62.4588
 1.5480	62.3534
 1.5470	62.2706
 1.5460	62.2452
 1.5450	62.2427
 1.5440	62.1108
 1.5430	62.1055
 1.5420	62.1211
 1.5410	62.0415
 1.5400	61.9591
 1.5390	61.9529
 1.5380	61.9554
 1.5370	61.9101
 1.5360	61.8007
 1.5350	61.7832
 1.5340	61.7626
 1.5330	61.7323
 1.5320	61.6450
 1.5310	61.5658
 1.5300	61.5426
 1.5290	61.5667
 1.5280	61.4868
 1.5270	61.4207
 1.5260	61.4124
 1.5250	61.3662
 1.5240	61.3576
 1.5230	61.3316
 1.5220	61.2373
 1.5210	61.1924
 1.5200	61.2205
 1.5190	61.2521
 1.5180	61.1198
 1.5170	61.0824
 1.5160	61.1464
 1.5150	61.0647
 1.5140	61.0061
 1.5130	60.9879
 1.5120	60.9547
 1.5110	60.9219
 1.5100	60.9096
 1.5090	60.9309
 1.5080	60.9223
 1.5070	60.8732
 1.5060	60.8107
 1.5050	60.7867
 1.5040	60.7240
 1.5030	60.7431
 1.5020	60.7569
 1.5010	60.6831
 1.5000	60.6478
 1.4990	60.6326
 1.4980	60.5852
 1.4970	60.5114
 1.4960	60.4900
 1.4950	60.5238
 1.4940	60.4487
 1.4930	60.3768
 1.4920	60.3557
 1.4910	60.3194
 1.4900	60.3322
 1.4890	60.2863
 1.4880	60.2090
 1.4870	60.1312
 1.4860	60.0584
 1.4850	60.0259
 1.4840	59.9994
 1.4830	59.9648
 1.4820	59.9315
 1.4810	59.8340
 1.4800	59.7384
 1.4790	59.6641
 1.4780	59.6697
 1.4770	59.6022
 1.4760	59.5504
 1.4750	59.5259
 1.4740	59.4142
 1.4730	59.3169
 1.4720	59.2334
 1.4710	59.1717
 1.4700	59.1199
 1.4690	59.0996
 1.4680	59.0371
 1.4670	58.8723
 1.4660	58.7938
 1.4650	58.7659
 1.4640	58.6732
 1.4630	58.5145
 1.4620	58.4652
 1.4610	58.4608
 1.4600	58.3370
 1.4590	58.2030
 1.4580	58.1023
 1.4570	57.9990
 1.4560	57.9587
 1.4550	57.8052
 1.4540	57.6960
 1.4530	57.6443
 1.4520	57.6102
 1.4510	57.4946
 1.4500	57.4583
 1.4490	57.3450
 1.4480	57.2977
 1.4470	57.2285
 1.4460	57.1807
 1.4450	57.1021
 1.4440	57.0574
 1.4430	57.0161
 1.4420	56.9815
 1.4410	56.8901
 1.4400	56.8449
 1.4390	56.8072
 1.4380	56.8096
 1.4370	56.7483
 1.4360	56.7297
 1.4350	56.7003
 1.4340	56.7528
 1.4330	56.7111
 1.4320	56.7159
 1.4310	56.6533
 1.4300	56.7715
 1.4290	56.7482
 1.4280	56.7138
 1.4270	56.6727
 1.4260	56.6808
 1.4250	56.6885
 1.4240	56.7144
 1.4230	56.6523
 1.4220	56.6349
 1.4210	56.5977
 1.4200	56.5259
 1.4190	56.4275
 1.4180	56.3600
 1.4170	56.1928
 1.4160	56.0693
 1.4150	55.8727
 1.4140	55.8046
 1.4130	55.6496
 1.4120	55.5780
 1.4110	55.4967
 1.4100	55.4939
 1.4090	55.4362
 1.4080	55.4822
 1.4070	55.3811
 1.4060	55.3617
 1.4050	55.3221
 1.4040	55.3014
 1.4030	55.1967
 1.4020	55.0550
 1.4010	54.7011
 1.4000	54.3986
 1.3990	54.0808
 1.3980	53.8031
 1.3970	53.3738
 1.3960	52.7470
 1.3950	52.0679
 1.3940	51.4187
 1.3930	51.0381
 1.3920	50.7241
 1.3910	50.4812
 1.3900	50.6651
 1.3890	51.0683
 1.3880	51.7814
 1.3870	52.7798
 1.3860	53.7420
 1.3850	54.5718
 1.3840	55.4523
 1.3830	55.8003
 1.3820	56.1017
 1.3810	56.2867
 1.3800	56.3468
 1.3790	56.3406
 1.3780	56.2620
 1.3770	56.1843
 1.3760	56.2333
 1.3750	56.1409
 1.3740	56.1588
 1.3730	56.0351
 1.3720	56.0507
 1.3710	56.0763
 1.3700	55.9350
 1.3690	55.9211
 1.3680	55.9785
 1.3670	55.7779
 1.3660	55.7959
 1.3650	55.6524
 1.3640	55.7564
 1.3630	55.6292
 1.3620	55.5737
 1.3610	55.5024
 1.3600	55.4401
 1.3590	55.2770
 1.3580	55.3957
 1.3570	55.1812
 1.3560	55.3122
 1.3550	55.0683
 1.3540	55.1186
 1.3530	55.0850
 1.3520	54.9964
 1.3510	54.9591
 1.3500	54.9400
 1.3490	54.7638
 1.3480	54.6952
 1.3470	54.6406
 1.3460	54.6495
 1.3450	54.5371
 1.3440	54.5231
 1.3430	54.3638
 1.3420	54.3445
 1.3410	54.2600
 1.3400	54.2670
 1.3390	54.1152
 1.3380	54.1408
 1.3370	54.0128
 1.3360	53.9780
 1.3350	53.8923
 1.3340	53.9488
 1.3330	53.7861
 1.3320	53.7540
 1.3310	53.6709
 1.3300	53.6875
 1.3290	53.5797
 1.3280	53.4917
 1.3270	53.4476
 1.3260	53.3654
 1.3250	53.2403
 1.3240	53.1725
 1.3230	53.1841
 1.3220	53.1773
 1.3210	53.0273
 1.3200	52.9867
 1.3190	52.9408
 1.3180	52.9691
 1.3170	52.8550
 1.3160	52.7954
 1.3150	52.7465
 1.3140	52.6337
 1.3130	52.5581
 1.3120	52.5048
 1.3110	52.4072
 1.3100	52.4255
 1.3090	52.3175
 1.3080	52.2551
 1.3070	52.1254
 1.3060	52.1701
 1.3050	52.1026
 1.3040	52.0206
 1.3030	51.9457
 1.3020	51.9634
 1.3010	51.8116
 1.3000	51.7481
 1.2990	51.7152
 1.2980	51.6379
 1.2970	51.5928
 1.2960	51.5430
 1.2950	51.4545
 1.2940	51.3787
 1.2930	51.3104
 1.2920	51.2998
 1.2910	51.2536
 1.2900	51.1966
 1.2890	51.0919
 1.2880	51.0038
 1.2870	50.9488
 1.2860	50.9394
 1.2850	50.8234
 1.2840	50.7662
 1.2830	50.6568
 1.2820	50.6011
 1.2810	50.5411
 1.2800	50.4926
 1.2790	50.4456
 1.2780	50.4263
 1.2770	50.2999
 1.2760	50.2468
 1.2750	50.1630
 1.2740	50.1308
 1.2730	50.0768
 1.2720	50.0195
 1.2710	49.9622
 1.2700	50.0867
 1.2690	50.2069
 1.2680	49.7644
 1.2670	49.7141
 1.2660	49.6782
 1.2650	49.5339
 1.2640	49.5348
 1.2630	49.4477
 1.2620	49.4329
 1.2610	49.3584
 1.2600	49.3307
 1.2590	49.2266
 1.2580	49.1869
 1.2570	49.1121
 1.2560	49.0462
 1.2550	48.9697
 1.2540	48.9206
 1.2530	48.8072
 1.2520	48.7865
 1.2510	48.7596
 1.2500	48.7024
 1.2490	48.5841
 1.2480	48.5715
 1.2470	48.4883
 1.2460	48.4504
 1.2450	48.3852
 1.2440	48.3133
 1.2430	48.2119
 1.2420	48.1580
 1.2410	48.0923
 1.2400	48.0337
 1.2390	47.9245
 1.2380	47.9043
 1.2370	47.8149
 1.2360	47.7107
 1.2350	47.6571
 1.2340	47.6152
 1.2330	47.5456
 1.2320	47.4607
 1.2310	47.3811
 1.2300	47.3805
 1.2290	47.2967
 1.2280	47.1974
 1.2270	47.1454
 1.2260	47.0940
 1.2250	46.9813
 1.2240	46.9037
 1.2230	46.8809
 1.2220	46.8276
 1.2210	46.7491
 1.2200	46.6580
 1.2190	46.6323
 1.2180	46.6115
 1.2170	46.5361
 1.2160	46.4357
 1.2150	46.3406
 1.2140	46.3194
 1.2130	46.2796
 1.2120	46.2015
 1.2110	46.1510
 1.2100	46.0804
 1.2090	46.0440
 1.2080	45.9903
 1.2070	45.9304
 1.2060	45.8747
 1.2050	45.7732
 1.2040	45.7081
 1.2030	45.6711
 1.2020	45.6183
 1.2010	45.5441
 1.2000	45.4424
 1.1990	45.3923
 1.1980	45.3369
 1.1970	45.2944
 1.1960	45.2319
 1.1950	45.1655
 1.1940	45.0682
 1.1930	45.0226
 1.1920	45.0040
 1.1910	45.0254
 1.1900	44.9180
 1.1890	44.8472
 1.1880	44.6974
 1.1870	44.7028
 1.1860	44.6965
 1.1850	44.6176
 1.1840	44.5396
 1.1830	44.5296
 1.1820	44.4726
 1.1810	44.4407
 1.1800	44.3545
 1.1790	44.2996
 1.1780	44.2751
 1.1770	44.2104
 1.1760	44.1269
 1.1750	44.0493
 1.1740	43.9345
 1.1730	43.9550
 1.1720	43.9191
 1.1710	43.8985
 1.1700	43.8127
 1.1690	43.7464
 1.1680	43.6487
 1.1670	43.6626
 1.1660	43.5371
 1.1650	43.5734
 1.1640	43.5593
 1.1630	43.5489
 1.1620	43.5151
 1.1610	43.4031
 1.1600	43.3351
 1.1590	43.3241
 1.1580	43.3533
 1.1570	43.2984
 1.1560	43.2032
 1.1550	43.2007
 1.1540	43.0871
 1.1530	43.0355
 1.1520	42.9966
 1.1510	42.9827
 1.1500	42.9078
 1.1490	42.9383
 1.1480	42.9050
 1.1470	42.8982
 1.1460	42.7795
 1.1450	42.7737
 1.1440	42.7397
 1.1430	42.7367
 1.1420	42.6313
 1.1410	42.6670
 1.1400	42.5159
 1.1390	42.5068
 1.1380	42.5080
 1.1370	42.4600
 1.1360	42.4148
 1.1350	42.3466
 1.1340	42.3350
 1.1330	42.3401
 1.1320	42.3036
 1.1310	42.3365
 1.1300	42.2634
 1.1290	42.1744
 1.1280	42.1302
 1.1270	42.1531
 1.1260	42.0459
 1.1250	42.0517
 1.1240	42.0757
 1.1230	42.0240
 1.1220	42.0198
 1.1210	41.9888
 1.1200	41.9604
 1.1190	41.9454
 1.1180	41.8638
 1.1170	41.9106
 1.1160	41.8505
 1.1150	41.8251
 1.1140	41.8035
 1.1130	41.8456
 1.1120	41.6966
 1.1110	41.7532
 1.1100	41.6337
 1.1090	41.6688
 1.1080	41.6797
 1.1070	41.6228
 1.1060	41.5491
 1.1050	41.5887
 1.1040	41.5279
 1.1030	41.5786
 1.1020	41.5756
 1.1010	41.5838
 1.1000	41.4658
 1.0990	41.5674
 1.0980	41.4505
 1.0970	41.5041
 1.0960	41.3225
 1.0950	41.4700
 1.0940	41.3628
 1.0930	41.4028
 1.0920	41.3045
 1.0910	41.3213
 1.0900	41.3398
 1.0890	41.3676
 1.0880	41.2997
 1.0870	41.3673
 1.0860	41.2806
 1.0850	41.3188
 1.0840	41.2491
 1.0830	41.2647
 1.0820	41.2896
 1.0810	41.2886
 1.0800	41.1874
 1.0790	41.1834
 1.0780	41.2166
 1.0770	41.2206
 1.0760	41.1713
 1.0750	41.1858
 1.0740	41.1560
 1.0730	41.1570
 1.0720	41.1313
 1.0710	41.2703
 1.0700	41.0040
 1.0690	41.2669
 1.0680	41.1348
 1.0670	41.2307
 1.0660	41.1595
 1.0650	41.1059
 1.0640	41.1483
 1.0630	41.1355
 1.0620	41.0460
 1.0610	41.1290
 1.0600	41.0934
 1.0590	41.1272
 1.0580	41.0701
 1.0570	41.1328
 1.0560	41.0189
 1.0550	41.0815
 1.0540	41.0482
 1.0530	41.1246
 1.0520	41.1031
 1.0510	41.1684
 1.0500	41.0843
 1.0490	40.9938
 1.0480	40.9767
 1.0470	41.0850
 1.0460	41.0330
 1.0450	41.0445
 1.0440	41.0290
 1.0430	41.0439
 1.0420	41.0379
 1.0410	41.0263
 1.0400	40.9417
 1.0390	41.0478
 1.0380	40.9952
 1.0370	40.9722
 1.0360	40.9930
 1.0350	41.0508
 1.0340	41.0573
 1.0330	40.9798
 1.0320	40.9844
 1.0310	41.0755
 1.0300	40.9807
 1.0290	40.9727
 1.0280	41.0095
 1.0270	40.6826
 1.0260	40.9575
 1.0250	40.9447
 1.0240	40.8800
 1.0230	40.9494
 1.0220	40.9627
 1.0210	40.9098
 1.0200	40.7957
 1.0190	40.8469
 1.0180	40.8344
 1.0170	40.8962
 1.0160	40.8244
 1.0150	40.8494
 1.0140	40.7795
 1.0130	40.8879
 1.0120	40.7784
 1.0110	40.8653
 1.0100	40.7527
 1.0090	40.7840
 1.0080	40.7325
 1.0070	40.6883
 1.0060	40.6565
 1.0050	40.7790
 1.0040	40.7511
 1.0030	40.6640
 1.0020	40.6021
 1.0010	40.6187
 1.0000	40.6252
 0.9990	40.6283
 0.9980	40.5860
 0.9970	40.5854
 0.9960	40.5488
 0.9950	40.5537
 0.9940	40.4768
 0.9930	40.4458
 0.9920	40.4448
 0.9910	40.4514
 0.9900	40.4040
 0.9890	40.3747
 0.9880	40.2898
 0.9870	40.3212
 0.9860	40.2739
 0.9850	40.2532
 0.9840	40.2061
 0.9830	40.1586
 0.9820	40.0865
 0.9810	40.1742
 0.9800	40.1022
 0.9790	40.0914
 0.9780	39.9855
 0.9770	39.9558
 0.9760	39.9697
 0.9750	39.9807
 0.9740	39.8694
 0.9730	39.8448
 0.9720	39.8137
 0.9710	39.8071
 0.9700	39.7719
 0.9690	39.7590
 0.9680	39.6206
 0.9670	39.6000
 0.9660	39.5665
 0.9650	39.5246
 0.9640	39.4518
 0.9630	39.4350
 0.9620	39.4348
 0.9610	39.4160
 0.9600	39.3364
 0.9590	39.2944
 0.9580	39.2170
 0.9570	39.1820
 0.9560	39.1149
 0.9550	39.0433
 0.9540	38.9650
 0.9530	38.9457
 0.9520	38.9335
 0.9510	38.8760
 0.9500	38.7685
 0.9490	38.7161
 0.9480	38.7001
 0.9470	38.6629
 0.9460	38.5833
 0.9450	38.5674
 0.9440	38.5717
 0.9430	38.5797
 0.9420	38.5168
 0.9410	38.4955
 0.9400	38.4613
 0.9390	38.3316
 0.9380	38.2855
 0.9370	38.3058
 0.9360	38.2101
 0.9350	38.1094
 0.9340	38.1223
 0.9330	38.1019
 0.9320	38.0412
 0.9310	38.0024
 0.9300	37.9461
 0.9290	37.8944
 0.9280	37.8943
 0.9270	37.8363
 0.9260	37.7614
 0.9250	37.7652
 0.9240	37.7082
 0.9230	37.6811
 0.9220	37.6602
 0.9210	37.5640
 0.9200	37.5526
 0.9190	37.5417
 0.9180	37.5107
 0.9170	37.4553
 0.9160	37.3905
 0.9150	37.3691
 0.9140	37.3696
 0.9130	37.3476
 0.9120	37.3147
 0.9110	37.2267
 0.9100	37.2748
 0.9090	37.2827
 0.9080	37.2347
 0.9070	37.1775
 0.9060	37.1407
 0.9050	37.0932
 0.9040	37.1299
 0.9030	37.0921
 0.9020	37.0795
 0.9010	37.1062
 0.9000	37.1269
 0.8990	37.1067
 0.8980	37.1164
 0.8970	37.0979
 0.8960	37.0684
 0.8950	37.0320
 0.8940	37.0120
 0.8930	37.0168
 0.8920	37.0733
 0.8910	37.0114
 0.8900	37.0095
 0.8890	37.0116
 0.8880	37.0021
 0.8870	36.9815
 0.8860	37.0496
 0.8850	37.0379
 0.8840	37.0734
 0.8830	37.0694
 0.8820	37.0287
 0.8810	37.0526
 0.8800	37.0518
 0.8790	37.0338
 0.8780	37.0320
 0.8770	37.0146
 0.8760	37.0710
 0.8750	37.0667
 0.8740	37.0865
 0.8730	37.0816
 0.8720	37.1160
 0.8710	37.1376
 0.8700	37.1359
 0.8690	37.1304
 0.8680	37.1959
 0.8670	37.2144
 0.8660	37.3057
 0.8650	37.2074
 0.8640	37.2435
 0.8630	37.2800
 0.8620	37.2686
 0.8610	37.3142
 0.8600	37.2174
 0.8590	37.3398
 0.8580	37.3149
 0.8570	37.2736
 0.8560	37.4331
 0.8550	37.4083
 0.8540	37.4594
 0.8530	37.5440
 0.8520	37.5028
 0.8510	37.5616
 0.8500	37.6084
 0.8490	37.6171
 0.8480	37.6749
 0.8470	37.7159
 0.8460	37.7038
 0.8450	37.7670
 0.8440	37.7653
 0.8430	37.7787
 0.8420	37.8486
 0.8410	37.8568
 0.8400	37.8976
 0.8390	37.9633
 0.8380	37.9829
 0.8370	38.0310
 0.8360	38.0259
 0.8350	38.0664
 0.8340	38.1394
 0.8330	38.1409
 0.8320	38.1536
 0.8310	38.2551
 0.8300	38.2561
 0.8290	38.2606
 0.8280	38.3176
 0.8270	38.3603
 0.8260	38.3686
 0.8250	38.3931
 0.8240	38.4060
 0.8230	38.4552
 0.8220	38.4861
 0.8210	38.4538
 0.8200	38.5309
 0.8190	38.5257
 0.8180	38.5340
 0.8170	38.5537
 0.8160	38.5974
 0.8150	38.6223
 0.8140	38.6221
 0.8130	38.5864
 0.8120	38.6342
 0.8110	38.6578
 0.8100	38.6644
 0.8090	38.6760
 0.8080	38.6403
 0.8070	38.6496
 0.8060	38.6391
 0.8050	38.6373
 0.8040	38.6501
 0.8030	38.6222
 0.8020	38.5917
 0.8010	38.6133
 0.8000	38.5806
 0.7990	38.5561
 0.7980	38.5454
 0.7970	38.4743
 0.7960	38.4751
 0.7950	38.4381
 0.7940	38.4057
 0.7930	38.3950
 0.7920	38.3198
 0.7910	38.2875
 0.7900	38.2875
 0.7890	38.2264
 0.7880	38.1804
 0.7870	38.1427
 0.7860	38.0860
 0.7850	38.0565
 0.7840	37.9911
 0.7830	37.9259
 0.7820	37.8819
 0.7810	37.8449
 0.7800	37.7810
 0.7790	37.7245
 0.7780	37.6537
 0.7770	37.6166
 0.7760	37.5477
 0.7750	37.4760
 0.7740	37.4273
 0.7730	37.3428
 0.7720	37.2716
 0.7710	37.2009
 0.7700	37.1251
 0.7690	37.0760
 0.7680	37.0090
 0.7670	36.9042
 0.7660	36.8764
 0.7650	36.8081
 0.7640	36.7214
 0.7630	36.6587
 0.7620	36.5916
 0.7610	36.5378
 0.7600	36.4664
 0.7590	36.3782
 0.7580	36.3250
 0.7570	36.2727
 0.7560	36.1925
 0.7550	36.1395
 0.7540	36.0707
 0.7530	36.0054
 0.7520	35.9656
 0.7510	35.8999
 0.7500	35.8381
 0.7490	35.7931
 0.7480	35.7244
 0.7470	35.6525
 0.7460	35.6156
 0.7450	35.5572
 0.7440	35.4930
 0.7430	35.4649
 0.7420	35.3851
 0.7410	35.3344
 0.7400	35.2938
 0.7390	35.2622
 0.7380	35.2103
 0.7370	35.1738
 0.7360	35.1012
 0.7350	35.0887
 0.7340	35.0601
 0.7330	34.9972
 0.7320	34.9593
 0.7310	34.9403
 0.7300	34.8970
 0.7290	34.8576
 0.7280	34.8295
 0.7270	34.7910
 0.7260	34.7722
 0.7250	34.7501
 0.7240	34.7195
 0.7230	34.7028
 0.7220	34.6873
 0.7210	34.6672
 0.7200	34.6327
 0.7190	34.6196
 0.7180	34.6107
 0.7170	34.6101
 0.7160	34.5902
 0.7150	34.5751
 0.7140	34.5620
 0.7130	34.5493
 0.7120	34.5476
 0.7110	34.5566
 0.7100	34.5489
 0.7090	34.5528
 0.7080	34.5552
 0.7070	34.5702
 0.7060	34.5717
 0.7050	34.5766
 0.7040	34.5844
 0.7030	34.6000
 0.7020	34.6052
 0.7010	34.6139
 0.7000	34.6407
 0.6990	34.6538
 0.6980	34.6727
 0.6970	34.7022
 0.6960	34.7053
 0.6950	34.7371
 0.6940	34.7704
 0.6930	34.7832
 0.6920	34.8116
 0.6910	34.8433
 0.6900	34.8728
 0.6890	34.9135
 0.6880	34.9390
 0.6870	34.9751
 0.6860	35.0181
 0.6850	35.0529
 0.6840	35.0874
 0.6830	35.1279
 0.6820	35.1806
 0.6810	35.2320
 0.6800	35.2620
 0.6790	35.2983
 0.6780	35.3542
 0.6770	35.4048
 0.6760	35.4487
 0.6750	35.4991
 0.6740	35.5444
 0.6730	35.5841
 0.6720	35.6440
 0.6710	35.6957
 0.6700	35.7482
 0.6690	35.8015
 0.6680	35.8471
 0.6670	35.9051
 0.6660	35.9715
 0.6650	36.0294
 0.6640	36.0890
 0.6630	36.1494
 0.6620	36.1971
 0.6610	36.2333
 0.6600	36.2788
 0.6590	36.3384
 0.6580	36.3993
 0.6570	36.4594
 0.6560	36.5211
 0.6550	36.5861
 0.6540	36.6489
 0.6530	36.7100
 0.6520	36.7748
 0.6510	36.8457
 0.6500	36.9090
 0.6490	36.9750
 0.6480	37.0411
 0.6470	37.1099
 0.6460	37.1705
 0.6450	37.2337
 0.6440	37.3046
 0.6430	37.3691
 0.6420	37.4309
 0.6410	37.5043
 0.6400	37.5714
 0.6390	37.6371
 0.6380	37.7089
 0.6370	37.7775
 0.6360	37.8457
 0.6350	37.9174
 0.6340	37.9867
 0.6330	38.0505
 0.6320	38.1151
 0.6310	38.1855
 0.6300	38.2542
 0.6290	38.3188
 0.6280	38.3817
 0.6270	38.4475
 0.6260	38.5124
 0.6250	38.5834
 0.6240	38.6525
 0.6230	38.7211
 0.6220	38.7895
 0.6210	38.8494
 0.6200	38.9160
 0.6190	38.9796
 0.6180	39.0409
 0.6170	39.1045
 0.6160	39.1667
 0.6150	39.2306
 0.6140	39.2885
 0.6130	39.3511
 0.6120	39.4111
 0.6110	39.4690
 0.6100	39.5250
 0.6090	39.5846
 0.6080	39.6453
 0.6070	39.7060
 0.6060	39.7653
 0.6050	39.8285
 0.6040	39.8869
 0.6030	39.9391
 0.6020	39.9966
 0.6010	40.0450
 0.6000	40.0998
 0.5990	40.1591
 0.5980	40.2184
 0.5970	40.2856
 0.5960	40.3410
 0.5950	40.3928
 0.5940	40.4469
 0.5930	40.4953
 0.5920	40.5423
 0.5910	40.5920
 0.5900	40.6396
 0.5890	40.6783
 0.5880	40.7252
 0.5870	40.7708
 0.5860	40.8117
 0.5850	40.8498
 0.5840	40.8792
 0.5830	40.9187
 0.5820	40.9573
 0.5810	40.9916
 0.5800	41.0243
 0.5790	41.0613
 0.5780	41.0910
 0.5770	41.1227
 0.5760	41.1529
 0.5750	41.1823
 0.5740	41.2044
 0.5730	41.2377
 0.5720	41.2547
 0.5710	41.2690
 0.5700	41.2914
 0.5690	41.3119
 0.5680	41.3284
 0.5670	41.3402
 0.5660	41.3578
 0.5650	41.3671
 0.5640	41.3833
 0.5630	41.3887
 0.5620	41.4075
 0.5610	41.3843
 0.5600	41.3660
 0.5590	41.3634
 0.5580	41.3640
 0.5570	41.3554
 0.5560	41.3547
 0.5550	41.3491
 0.5540	41.3412
 0.5530	41.3222
 0.5520	41.3227
 0.5510	41.3045
 0.5500	41.2882
 0.5490	41.2828
 0.5480	41.2656
 0.5470	41.2462
 0.5460	41.2206
 0.5450	41.2123
 0.5440	41.1934
 0.5430	41.1755
 0.5420	41.1557
 0.5410	41.1291
 0.5400	41.1196
 0.5390	41.0908
 0.5380	41.0785
 0.5370	41.0528
 0.5360	41.0424
 0.5350	41.0263
 0.5340	41.0186
 0.5330	41.0125
 0.5320	40.9995
 0.5310	40.9990
 0.5300	40.9989
 0.5290	40.9951
 0.5280	40.9802
 0.5270	40.9867
 0.5260	40.9972
 0.5250	40.9770
 0.5240	40.9768
 0.5230	40.9781
 0.5220	40.9731
 0.5210	40.9612
 0.5200	40.9571
 0.5190	40.9387
 0.5180	40.9102
 0.5170	40.8840
 0.5160	40.8531
 0.5150	40.8223
 0.5140	40.7806
 0.5130	40.7350
 0.5120	40.6939
 0.5110	40.6291
 0.5100	40.5818
 0.5090	40.5125
 0.5080	40.4478
 0.5070	40.3640
 0.5060	40.2872
 0.5050	40.2124
 0.5040	40.1123
 0.5030	39.9859
 0.5020	39.8895
 0.5010	39.7620
 0.5000	39.6293
 0.4990	39.4828
 0.4980	39.3223
 0.4970	39.2122
 0.4960	39.0933
 0.4950	38.9978
 0.4940	38.9281
 0.4930	38.8884
 0.4920	38.8671
 0.4910	38.8494
 0.4900	38.8271
 0.4890	38.7859
 0.4880	38.7328
 0.4870	38.6283
 0.4860	38.5198
 0.4850	38.3915
 0.4840	38.2490
 0.4830	38.1310
 0.4820	38.0031
 0.4810	37.8819
 0.4800	37.7591
 0.4790	37.6409
 0.4780	37.5040
 0.4770	37.3668
 0.4760	37.2223
 0.4750	37.0606
 0.4740	36.9072
 0.4730	36.7539
 0.4720	36.5813
 0.4710	36.4311
 0.4700	36.2736
 0.4690	36.1334
 0.4680	35.9783
 0.4670	35.8643
 0.4660	35.7132
 0.4650	35.5739
 0.4640	35.4328
 0.4630	35.2985
 0.4620	35.1596
 0.4610	35.0280
 0.4600	34.9132
 0.4590	34.7722
 0.4580	34.6495
 0.4570	34.5312
 0.4560	34.3956
 0.4550	34.2858
 0.4540	34.1994
 0.4530	34.0928
 0.4520	33.9984
 0.4510	33.9273
 0.4500	33.8643
 0.4490	33.8205
 0.4480	33.7855
 0.4470	33.7476
 0.4460	33.7053
 0.4450	33.6598
 0.4440	33.6254
 0.4430	33.5463
 0.4420	33.4344
 0.4410	33.3090
 0.4400	33.1620
 0.4390	33.0170
 0.4380	32.8622
 0.4370	32.6992
 0.4360	32.5513
 0.4350	32.4072
 0.4340	32.2745
 0.4330	32.1437
 0.4320	32.0272
 0.4310	31.8982
 0.4300	31.7759
 0.4290	31.6413
 0.4280	31.5017
 0.4270	31.3666
 0.4260	31.2111
 0.4250	31.0560
 0.4240	30.8824
 0.4230	30.7079
 0.4220	30.5204
 0.4210	30.3277
 0.4200	30.1380
 0.4190	29.9580
 0.4180	29.7777
 0.4170	29.6122
 0.4160	29.4360
 0.4150	29.2826
 0.4140	29.1270
 0.4130	28.9812
 0.4120	28.8422
 0.4110	28.7015
 0.4100	28.5768
 0.4090	28.4676
 0.4080	28.3468
 0.4070	28.2338
 0.4060	28.1213
 0.4050	28.0213
 0.4040	27.9479
 0.4030	27.8689
 0.4020	27.7936
 0.4010	27.7445
 0.4000	27.6912
