Name: Almandine Garnet Fe_3Al_2(SiO_4)_3
Type: Mineral
Class: Silicate
Subclass: Nesosilicate
Particle Size: Medium
Sample No.: NS-4A
Owner: JPL
Wavelength Range: VSWIR
Origin: USA, Arizona, Graham County, Stanley Butte.
Collection Date: N/A
Description: Particle size was 45-125um.Collected by:  Burminco Original ASTER Spectral Library name was jpl.perkin.mineral.silicate.nesosilicate.medium.ns04a.spectrum.txt
Measurement: Hemispherical reflectance
First Column: X
Second Column: Y
X Units: Wavelength (micrometers)
Y Units:Reflectance (percent)
First X Value:  2.5000
Last X Value:  0.4000
Number of X Values: 2101
Additional Information: mineral.silicate.nesosilicate.medium.vswir.ns-4a.jpl.perkin.ancillary.txt

 2.5000	30.9599
 2.4990	30.4837
 2.4980	30.8012
 2.4970	30.7967
 2.4960	30.4359
 2.4950	30.6159
 2.4940	30.6249
 2.4930	30.4506
 2.4920	30.6412
 2.4910	30.4441
 2.4900	30.5881
 2.4890	30.5076
 2.4880	30.4300
 2.4870	30.2778
 2.4860	30.5640
 2.4850	30.2709
 2.4840	30.5436
 2.4830	30.3747
 2.4820	30.4239
 2.4810	30.2855
 2.4800	30.5315
 2.4790	30.1924
 2.4780	30.3355
 2.4770	30.1377
 2.4760	30.1862
 2.4750	30.0495
 2.4740	30.2798
 2.4730	30.0368
 2.4720	30.0871
 2.4710	30.0386
 2.4700	30.0140
 2.4690	29.9239
 2.4680	30.2102
 2.4670	29.8766
 2.4660	30.0996
 2.4650	29.8455
 2.4640	30.0774
 2.4630	29.8315
 2.4620	30.0604
 2.4610	29.8692
 2.4600	29.7943
 2.4590	29.7887
 2.4580	29.8511
 2.4570	29.6803
 2.4560	29.7469
 2.4550	29.8515
 2.4540	29.7743
 2.4530	29.6708
 2.4520	29.7793
 2.4510	29.6443
 2.4500	29.7838
 2.4490	29.6050
 2.4480	29.6823
 2.4470	29.5224
 2.4460	29.6820
 2.4450	29.5562
 2.4440	29.5608
 2.4430	29.4612
 2.4420	29.4919
 2.4410	29.4620
 2.4400	29.4804
 2.4390	29.4214
 2.4380	29.5293
 2.4370	29.4211
 2.4360	29.4308
 2.4350	29.4407
 2.4340	29.4384
 2.4330	29.3820
 2.4320	29.3949
 2.4310	29.2829
 2.4300	29.3786
 2.4290	29.2102
 2.4280	29.2992
 2.4270	29.1849
 2.4260	29.2604
 2.4250	29.1856
 2.4240	29.2542
 2.4230	29.1484
 2.4220	29.2055
 2.4210	29.0976
 2.4200	29.1940
 2.4190	29.1168
 2.4180	29.1374
 2.4170	29.0268
 2.4160	29.1214
 2.4150	29.1237
 2.4140	29.0431
 2.4130	28.9833
 2.4120	29.0100
 2.4110	28.9675
 2.4100	28.9830
 2.4090	28.9499
 2.4080	28.9436
 2.4070	28.9217
 2.4060	28.9124
 2.4050	28.8457
 2.4040	28.9357
 2.4030	28.8446
 2.4020	28.8935
 2.4010	28.8878
 2.4000	28.8744
 2.3990	28.7413
 2.3980	28.8102
 2.3970	28.8166
 2.3960	28.8605
 2.3950	28.6853
 2.3940	28.7420
 2.3930	28.7236
 2.3920	28.7503
 2.3910	28.7369
 2.3900	28.7071
 2.3890	28.6338
 2.3880	28.6833
 2.3870	28.6376
 2.3860	28.6845
 2.3850	28.6332
 2.3840	28.6725
 2.3830	28.6986
 2.3820	28.7061
 2.3810	28.6516
 2.3800	28.6363
 2.3790	28.6437
 2.3780	28.6650
 2.3770	28.6276
 2.3760	28.6182
 2.3750	28.5789
 2.3740	28.5797
 2.3730	28.5559
 2.3720	28.5607
 2.3710	28.5280
 2.3700	28.5740
 2.3690	28.5873
 2.3680	28.5059
 2.3670	28.4973
 2.3660	28.4991
 2.3650	28.4559
 2.3640	28.4633
 2.3630	28.4673
 2.3620	28.4496
 2.3610	28.4349
 2.3600	28.4395
 2.3590	28.4471
 2.3580	28.4284
 2.3570	28.4035
 2.3560	28.4091
 2.3550	28.3621
 2.3540	28.3507
 2.3530	28.4017
 2.3520	28.3541
 2.3510	28.3192
 2.3500	28.3556
 2.3490	28.3301
 2.3480	28.3052
 2.3470	28.3128
 2.3460	28.3047
 2.3450	28.2794
 2.3440	28.2727
 2.3430	28.2618
 2.3420	28.2326
 2.3410	28.2669
 2.3400	28.2159
 2.3390	28.2282
 2.3380	28.2208
 2.3370	28.2174
 2.3360	28.2019
 2.3350	28.1778
 2.3340	28.1689
 2.3330	28.1446
 2.3320	28.1050
 2.3310	28.1104
 2.3300	28.0585
 2.3290	28.0898
 2.3280	28.0941
 2.3270	28.1707
 2.3260	28.1357
 2.3250	28.0701
 2.3240	28.0836
 2.3230	28.1053
 2.3220	28.0125
 2.3210	28.0292
 2.3200	28.0196
 2.3190	28.0574
 2.3180	28.0734
 2.3170	28.0842
 2.3160	28.0487
 2.3150	28.0639
 2.3140	28.0081
 2.3130	27.9911
 2.3120	27.9573
 2.3110	28.0385
 2.3100	28.0140
 2.3090	28.0053
 2.3080	27.9945
 2.3070	28.0181
 2.3060	27.9638
 2.3050	27.9569
 2.3040	27.9636
 2.3030	28.0154
 2.3020	27.9412
 2.3010	27.9646
 2.3000	27.9750
 2.2990	27.9963
 2.2980	27.9453
 2.2970	28.0048
 2.2960	27.9317
 2.2950	27.9970
 2.2940	27.9640
 2.2930	27.9525
 2.2920	27.9366
 2.2910	28.0165
 2.2900	27.9471
 2.2890	27.9501
 2.2880	27.9370
 2.2870	27.9616
 2.2860	27.9189
 2.2850	28.0335
 2.2840	27.9736
 2.2830	28.0404
 2.2820	28.0003
 2.2810	27.9545
 2.2800	28.0205
 2.2790	27.9835
 2.2780	27.9203
 2.2770	27.9902
 2.2760	27.8958
 2.2750	27.9322
 2.2740	27.9305
 2.2730	27.9856
 2.2720	27.8886
 2.2710	28.0064
 2.2700	27.9160
 2.2690	27.9444
 2.2680	27.9071
 2.2670	27.9733
 2.2660	27.8894
 2.2650	27.9436
 2.2640	27.9328
 2.2630	27.9840
 2.2620	27.9060
 2.2610	28.0374
 2.2600	27.9484
 2.2590	27.9552
 2.2580	27.9280
 2.2570	27.9864
 2.2560	27.9454
 2.2550	28.0330
 2.2540	28.0033
 2.2530	28.0292
 2.2520	27.9742
 2.2510	28.0103
 2.2500	27.9057
 2.2490	27.9940
 2.2480	27.9606
 2.2470	28.0412
 2.2460	28.0405
 2.2450	28.0800
 2.2440	27.9313
 2.2430	28.0302
 2.2420	28.0203
 2.2410	28.0899
 2.2400	28.0245
 2.2390	28.0678
 2.2380	28.0702
 2.2370	28.1642
 2.2360	28.0376
 2.2350	28.2118
 2.2340	28.0650
 2.2330	28.1389
 2.2320	28.0825
 2.2310	28.1541
 2.2300	28.0654
 2.2290	28.1982
 2.2280	28.1765
 2.2270	28.1645
 2.2260	28.1276
 2.2250	28.2751
 2.2240	28.1060
 2.2230	28.2406
 2.2220	28.2426
 2.2210	28.2234
 2.2200	28.1842
 2.2190	28.2803
 2.2180	28.2763
 2.2170	28.3013
 2.2160	28.2577
 2.2150	28.3529
 2.2140	28.2454
 2.2130	28.3689
 2.2120	28.4159
 2.2110	28.3125
 2.2100	28.4050
 2.2090	28.4603
 2.2080	28.2468
 2.2070	28.4008
 2.2060	28.4182
 2.2050	28.4645
 2.2040	28.4561
 2.2030	28.5219
 2.2020	28.4767
 2.2010	28.5439
 2.2000	28.4414
 2.1990	28.5719
 2.1980	28.5425
 2.1970	28.5883
 2.1960	28.4921
 2.1950	28.5485
 2.1940	28.5890
 2.1930	28.6348
 2.1920	28.6344
 2.1910	28.7097
 2.1900	28.5982
 2.1890	28.7165
 2.1880	28.6807
 2.1870	28.7403
 2.1860	28.6376
 2.1850	28.7222
 2.1840	28.6623
 2.1830	28.8188
 2.1820	28.7495
 2.1810	28.8337
 2.1800	28.7771
 2.1790	28.8669
 2.1780	28.7845
 2.1770	28.8896
 2.1760	28.8024
 2.1750	28.9410
 2.1740	28.9223
 2.1730	28.9805
 2.1720	28.9454
 2.1710	29.0077
 2.1700	28.9060
 2.1690	29.0360
 2.1680	29.0339
 2.1670	29.1055
 2.1660	29.0710
 2.1650	29.0871
 2.1640	29.0765
 2.1630	29.1311
 2.1620	29.0993
 2.1610	29.2530
 2.1600	29.1794
 2.1590	29.2731
 2.1580	29.1829
 2.1570	29.3326
 2.1560	29.2939
 2.1550	29.2903
 2.1540	29.2797
 2.1530	29.3775
 2.1520	29.3225
 2.1510	29.3867
 2.1500	29.3721
 2.1490	29.4613
 2.1480	29.4471
 2.1470	29.4081
 2.1460	29.4592
 2.1450	29.4716
 2.1440	29.4755
 2.1430	29.5088
 2.1420	29.4746
 2.1410	29.5189
 2.1400	29.4563
 2.1390	29.5072
 2.1380	29.5195
 2.1370	29.5272
 2.1360	29.4777
 2.1350	29.5334
 2.1340	29.5170
 2.1330	29.6391
 2.1320	29.5367
 2.1310	29.5937
 2.1300	29.5671
 2.1290	29.5474
 2.1280	29.5179
 2.1270	29.5768
 2.1260	29.5513
 2.1250	29.5535
 2.1240	29.5129
 2.1230	29.5835
 2.1220	29.5575
 2.1210	29.5227
 2.1200	29.5199
 2.1190	29.5016
 2.1180	29.4781
 2.1170	29.5235
 2.1160	29.4843
 2.1150	29.5270
 2.1140	29.5354
 2.1130	29.5840
 2.1120	29.5684
 2.1110	29.5185
 2.1100	29.4648
 2.1090	29.5602
 2.1080	29.5070
 2.1070	29.5249
 2.1060	29.4904
 2.1050	29.4845
 2.1040	29.4866
 2.1030	29.5040
 2.1020	29.5045
 2.1010	29.5267
 2.1000	29.4849
 2.0990	29.4768
 2.0980	29.4663
 2.0970	29.4970
 2.0960	29.5293
 2.0950	29.6149
 2.0940	29.6048
 2.0930	29.5842
 2.0920	29.5551
 2.0910	29.6135
 2.0900	29.6624
 2.0890	29.6599
 2.0880	29.6716
 2.0870	29.7000
 2.0860	29.7454
 2.0850	29.7171
 2.0840	29.7288
 2.0830	29.7814
 2.0820	29.7487
 2.0810	29.7599
 2.0800	29.8051
 2.0790	29.8471
 2.0780	29.8129
 2.0770	29.8520
 2.0760	29.8956
 2.0750	29.8724
 2.0740	29.8841
 2.0730	29.8847
 2.0720	29.8921
 2.0710	29.9274
 2.0700	29.9295
 2.0690	29.9468
 2.0680	29.9581
 2.0670	29.9761
 2.0660	30.0147
 2.0650	29.9857
 2.0640	30.0214
 2.0630	30.0378
 2.0620	30.0303
 2.0610	30.0861
 2.0600	30.1171
 2.0590	30.1211
 2.0580	30.1519
 2.0570	30.1458
 2.0560	30.1094
 2.0550	30.1378
 2.0540	30.2023
 2.0530	30.2139
 2.0520	30.2097
 2.0510	30.2250
 2.0500	30.2971
 2.0490	30.2232
 2.0480	30.2564
 2.0470	30.2726
 2.0460	30.2563
 2.0450	30.2933
 2.0440	30.2852
 2.0430	30.2800
 2.0420	30.3220
 2.0410	30.3389
 2.0400	30.4147
 2.0390	30.3721
 2.0380	30.3859
 2.0370	30.4336
 2.0360	30.4550
 2.0350	30.3768
 2.0340	30.4037
 2.0330	30.4301
 2.0320	30.4636
 2.0310	30.4319
 2.0300	30.4414
 2.0290	30.4489
 2.0280	30.5364
 2.0270	30.4918
 2.0260	30.5009
 2.0250	30.4934
 2.0240	30.5552
 2.0230	30.5342
 2.0220	30.4933
 2.0210	30.4950
 2.0200	30.5656
 2.0190	30.5769
 2.0180	30.5451
 2.0170	30.5501
 2.0160	30.6319
 2.0150	30.5440
 2.0140	30.6476
 2.0130	30.6111
 2.0120	30.6691
 2.0110	30.6187
 2.0100	30.6206
 2.0090	30.5823
 2.0080	30.6200
 2.0070	30.6447
 2.0060	30.6772
 2.0050	30.6221
 2.0040	30.7150
 2.0030	30.6778
 2.0020	30.6686
 2.0010	30.6682
 2.0000	30.7096
 1.9990	30.6989
 1.9980	30.7245
 1.9970	30.6953
 1.9960	30.7348
 1.9950	30.6728
 1.9940	30.7029
 1.9930	30.6957
 1.9920	30.6920
 1.9910	30.6310
 1.9900	30.6712
 1.9890	30.7035
 1.9880	30.6876
 1.9870	30.6569
 1.9860	30.7089
 1.9850	30.6597
 1.9840	30.7394
 1.9830	30.6546
 1.9820	30.6870
 1.9810	30.6545
 1.9800	30.6837
 1.9790	30.6714
 1.9780	30.7048
 1.9770	30.5839
 1.9760	30.6728
 1.9750	30.6565
 1.9740	30.6124
 1.9730	30.6438
 1.9720	30.7275
 1.9710	30.6173
 1.9700	30.6805
 1.9690	30.6165
 1.9680	30.7104
 1.9670	30.6130
 1.9660	30.6893
 1.9650	30.6260
 1.9640	30.6792
 1.9630	30.6309
 1.9620	30.6924
 1.9610	30.6385
 1.9600	30.6590
 1.9590	30.5829
 1.9580	30.5926
 1.9570	30.5493
 1.9560	30.6562
 1.9550	30.5824
 1.9540	30.6452
 1.9530	30.5991
 1.9520	30.6687
 1.9510	30.5399
 1.9500	30.6737
 1.9490	30.5534
 1.9480	30.6761
 1.9470	30.5286
 1.9460	30.6120
 1.9450	30.5526
 1.9440	30.5160
 1.9430	30.6124
 1.9420	30.6823
 1.9410	30.5549
 1.9400	30.5848
 1.9390	30.5773
 1.9380	30.5944
 1.9370	30.5115
 1.9360	30.5230
 1.9350	30.5387
 1.9340	30.5513
 1.9330	30.5733
 1.9320	30.6465
 1.9310	30.4280
 1.9300	30.5158
 1.9290	30.4695
 1.9280	30.6141
 1.9270	30.5627
 1.9260	30.4336
 1.9250	30.4698
 1.9240	30.5374
 1.9230	30.4726
 1.9220	30.4840
 1.9210	30.3829
 1.9200	30.4974
 1.9190	30.3789
 1.9180	30.5454
 1.9170	30.3682
 1.9160	30.4346
 1.9150	30.3705
 1.9140	30.4140
 1.9130	30.3932
 1.9120	30.3985
 1.9110	30.3771
 1.9100	30.4217
 1.9090	30.3600
 1.9080	30.3503
 1.9070	30.2826
 1.9060	30.4228
 1.9050	30.2774
 1.9040	30.3740
 1.9030	30.2744
 1.9020	30.3255
 1.9010	30.2988
 1.9000	30.3379
 1.8990	30.2080
 1.8980	30.2322
 1.8970	30.1986
 1.8960	30.3306
 1.8950	30.2132
 1.8940	30.2816
 1.8930	30.1843
 1.8920	30.2412
 1.8910	30.1509
 1.8900	30.1958
 1.8890	30.1521
 1.8880	30.1757
 1.8870	30.0820
 1.8860	30.1871
 1.8850	30.0946
 1.8840	30.1788
 1.8830	30.0536
 1.8820	30.1207
 1.8810	30.0051
 1.8800	30.0914
 1.8790	30.0535
 1.8780	30.0789
 1.8770	29.9901
 1.8760	30.0613
 1.8750	29.9585
 1.8740	30.0096
 1.8730	29.9393
 1.8720	30.0210
 1.8710	29.8681
 1.8700	29.9077
 1.8690	29.8546
 1.8680	29.8568
 1.8670	29.8106
 1.8660	29.8672
 1.8650	29.7791
 1.8640	29.8009
 1.8630	29.7431
 1.8620	29.7695
 1.8610	29.6749
 1.8600	29.7658
 1.8590	29.6576
 1.8580	29.6025
 1.8570	29.5798
 1.8560	29.6059
 1.8550	29.5616
 1.8540	29.5852
 1.8530	29.4842
 1.8520	29.5317
 1.8510	29.4399
 1.8500	29.5314
 1.8490	29.4535
 1.8480	29.4439
 1.8470	29.3426
 1.8460	29.3767
 1.8450	29.3413
 1.8440	29.3456
 1.8430	29.2979
 1.8420	29.3548
 1.8410	29.2500
 1.8400	29.2402
 1.8390	29.1793
 1.8380	29.2101
 1.8370	29.1304
 1.8360	29.1617
 1.8350	29.0751
 1.8340	29.1034
 1.8330	29.0764
 1.8320	29.1111
 1.8310	28.9808
 1.8300	28.9911
 1.8290	28.9497
 1.8280	28.9534
 1.8270	28.9125
 1.8260	28.9046
 1.8250	28.8827
 1.8240	28.8570
 1.8230	28.7853
 1.8220	28.7998
 1.8210	28.7224
 1.8200	28.6866
 1.8190	28.6954
 1.8180	28.7016
 1.8170	28.6099
 1.8160	28.6290
 1.8150	28.6072
 1.8140	28.5906
 1.8130	28.5579
 1.8120	28.5125
 1.8110	28.5048
 1.8100	28.5067
 1.8090	28.4489
 1.8080	28.4424
 1.8070	28.4203
 1.8060	28.3832
 1.8050	28.3796
 1.8040	28.3680
 1.8030	28.2944
 1.8020	28.3006
 1.8010	28.2844
 1.8000	28.2458
 1.7990	28.2252
 1.7980	28.1978
 1.7970	28.1708
 1.7960	28.1449
 1.7950	28.0933
 1.7940	28.0646
 1.7930	28.0235
 1.7920	28.0211
 1.7910	27.9942
 1.7900	28.0036
 1.7890	28.0265
 1.7880	27.9106
 1.7870	27.9132
 1.7860	27.9392
 1.7850	27.8669
 1.7840	27.8103
 1.7830	27.8144
 1.7820	27.7960
 1.7810	27.7126
 1.7800	27.6694
 1.7790	27.6806
 1.7780	27.6634
 1.7770	27.6448
 1.7760	27.5714
 1.7750	27.6025
 1.7740	27.5800
 1.7730	27.5397
 1.7720	27.5050
 1.7710	27.5006
 1.7700	27.4154
 1.7690	27.4244
 1.7680	27.4296
 1.7670	27.4383
 1.7660	27.3723
 1.7650	27.3404
 1.7640	27.3142
 1.7630	27.3000
 1.7620	27.2902
 1.7610	27.3019
 1.7600	27.2583
 1.7590	27.2233
 1.7580	27.2020
 1.7570	27.2215
 1.7560	27.1668
 1.7550	27.1513
 1.7540	27.1180
 1.7530	27.1032
 1.7520	27.0895
 1.7510	27.0418
 1.7500	27.0015
 1.7490	27.0788
 1.7480	26.9877
 1.7470	26.9740
 1.7460	26.9672
 1.7450	26.9764
 1.7440	26.9364
 1.7430	26.9183
 1.7420	26.8552
 1.7410	26.9200
 1.7400	26.8412
 1.7390	26.8265
 1.7380	26.8301
 1.7370	26.8379
 1.7360	26.8092
 1.7350	26.8146
 1.7340	26.7450
 1.7330	26.7351
 1.7320	26.6654
 1.7310	26.7411
 1.7300	26.7221
 1.7290	26.7767
 1.7280	26.6406
 1.7270	26.6540
 1.7260	26.5887
 1.7250	26.6395
 1.7240	26.6109
 1.7230	26.6405
 1.7220	26.6180
 1.7210	26.6456
 1.7200	26.5628
 1.7190	26.5937
 1.7180	26.5309
 1.7170	26.5522
 1.7160	26.5253
 1.7150	26.5192
 1.7140	26.4915
 1.7130	26.5115
 1.7120	26.4506
 1.7110	26.4900
 1.7100	26.3871
 1.7090	26.4818
 1.7080	26.4123
 1.7070	26.4016
 1.7060	26.3558
 1.7050	26.3893
 1.7040	26.3066
 1.7030	26.3852
 1.7020	26.3568
 1.7010	26.3249
 1.7000	26.2804
 1.6990	26.3834
 1.6980	26.2850
 1.6970	26.3265
 1.6960	26.2803
 1.6950	26.2814
 1.6940	26.2120
 1.6930	26.3295
 1.6920	26.2612
 1.6910	26.2771
 1.6900	26.1581
 1.6890	26.2787
 1.6880	26.2110
 1.6870	26.3293
 1.6860	26.2367
 1.6850	26.2854
 1.6840	26.2412
 1.6830	26.2233
 1.6820	26.1957
 1.6810	26.2725
 1.6800	26.2351
 1.6790	26.3040
 1.6780	26.1543
 1.6770	26.2424
 1.6760	26.2113
 1.6750	26.2605
 1.6740	26.1544
 1.6730	26.2262
 1.6720	26.1802
 1.6710	26.2206
 1.6700	26.1476
 1.6690	26.2398
 1.6680	26.1159
 1.6670	26.3443
 1.6660	26.1486
 1.6650	26.2407
 1.6640	26.1405
 1.6630	26.1737
 1.6620	26.1266
 1.6610	26.2705
 1.6600	26.1608
 1.6590	26.2330
 1.6580	26.2107
 1.6570	26.2281
 1.6560	26.1825
 1.6550	26.2587
 1.6540	26.2586
 1.6530	26.3285
 1.6520	26.1655
 1.6510	26.3127
 1.6500	26.2494
 1.6490	26.3524
 1.6480	26.2033
 1.6470	26.3510
 1.6460	26.3046
 1.6450	26.3766
 1.6440	26.2569
 1.6430	26.3339
 1.6420	26.3133
 1.6410	26.2308
 1.6400	26.3556
 1.6390	26.3924
 1.6380	26.2692
 1.6370	26.4112
 1.6360	26.2481
 1.6350	26.4030
 1.6340	26.4312
 1.6330	26.4039
 1.6320	26.3745
 1.6310	26.4467
 1.6300	26.4090
 1.6290	26.4965
 1.6280	26.4556
 1.6270	26.4978
 1.6260	26.4854
 1.6250	26.4967
 1.6240	26.4666
 1.6230	26.5012
 1.6220	26.4792
 1.6210	26.5575
 1.6200	26.4945
 1.6190	26.6008
 1.6180	26.5666
 1.6170	26.6302
 1.6160	26.5405
 1.6150	26.6049
 1.6140	26.6113
 1.6130	26.6865
 1.6120	26.6016
 1.6110	26.7145
 1.6100	26.6368
 1.6090	26.6496
 1.6080	26.6749
 1.6070	26.7780
 1.6060	26.7347
 1.6050	26.8180
 1.6040	26.7287
 1.6030	26.8247
 1.6020	26.7752
 1.6010	26.8369
 1.6000	26.8229
 1.5990	26.8823
 1.5980	26.8499
 1.5970	26.9004
 1.5960	26.8662
 1.5950	26.9755
 1.5940	26.9645
 1.5930	26.9650
 1.5920	26.9622
 1.5910	26.9948
 1.5900	26.9897
 1.5890	27.0284
 1.5880	27.0152
 1.5870	27.0601
 1.5860	27.0602
 1.5850	27.1257
 1.5840	27.0528
 1.5830	27.1475
 1.5820	27.0677
 1.5810	27.1526
 1.5800	27.1654
 1.5790	27.1798
 1.5780	27.1670
 1.5770	27.2019
 1.5760	27.2450
 1.5750	27.2782
 1.5740	27.2356
 1.5730	27.3264
 1.5720	27.3125
 1.5710	27.3613
 1.5700	27.3291
 1.5690	27.3249
 1.5680	27.3227
 1.5670	27.4067
 1.5660	27.3553
 1.5650	27.4302
 1.5640	27.3763
 1.5630	27.4330
 1.5620	27.4408
 1.5610	27.5028
 1.5600	27.4353
 1.5590	27.5244
 1.5580	27.5238
 1.5570	27.5176
 1.5560	27.5369
 1.5550	27.5665
 1.5540	27.5141
 1.5530	27.6137
 1.5520	27.5598
 1.5510	27.6430
 1.5500	27.6501
 1.5490	27.6397
 1.5480	27.6447
 1.5470	27.6975
 1.5460	27.6582
 1.5450	27.6857
 1.5440	27.6623
 1.5430	27.7371
 1.5420	27.6812
 1.5410	27.7444
 1.5400	27.7152
 1.5390	27.7614
 1.5380	27.7619
 1.5370	27.7900
 1.5360	27.7831
 1.5350	27.8418
 1.5340	27.8375
 1.5330	27.8387
 1.5320	27.7701
 1.5310	27.8490
 1.5300	27.8030
 1.5290	27.8235
 1.5280	27.8428
 1.5270	27.8331
 1.5260	27.8230
 1.5250	27.8562
 1.5240	27.8926
 1.5230	27.9465
 1.5220	27.9135
 1.5210	27.9106
 1.5200	27.8524
 1.5190	27.8596
 1.5180	27.8869
 1.5170	27.8718
 1.5160	27.9021
 1.5150	27.9438
 1.5140	27.8714
 1.5130	27.8858
 1.5120	27.8964
 1.5110	27.8951
 1.5100	27.9240
 1.5090	27.9396
 1.5080	27.9451
 1.5070	27.9346
 1.5060	27.9096
 1.5050	27.9160
 1.5040	27.8979
 1.5030	27.9083
 1.5020	27.8982
 1.5010	27.8709
 1.5000	27.8741
 1.4990	27.8594
 1.4980	27.9078
 1.4970	27.8994
 1.4960	27.8535
 1.4950	27.8378
 1.4940	27.8320
 1.4930	27.8746
 1.4920	27.8547
 1.4910	27.7626
 1.4900	27.7726
 1.4890	27.7891
 1.4880	27.7983
 1.4870	27.7361
 1.4860	27.7344
 1.4850	27.7650
 1.4840	27.7740
 1.4830	27.7253
 1.4820	27.6457
 1.4810	27.6491
 1.4800	27.6507
 1.4790	27.6096
 1.4780	27.6599
 1.4770	27.6132
 1.4760	27.5716
 1.4750	27.5666
 1.4740	27.5762
 1.4730	27.4688
 1.4720	27.4738
 1.4710	27.4747
 1.4700	27.4558
 1.4690	27.3920
 1.4680	27.3704
 1.4670	27.3375
 1.4660	27.3620
 1.4650	27.3161
 1.4640	27.2719
 1.4630	27.2448
 1.4620	27.2127
 1.4610	27.1075
 1.4600	27.1393
 1.4590	27.1231
 1.4580	27.1003
 1.4570	27.0409
 1.4560	27.0327
 1.4550	26.9422
 1.4540	26.9397
 1.4530	26.9139
 1.4520	26.9339
 1.4510	26.8298
 1.4500	26.7841
 1.4490	26.7166
 1.4480	26.7104
 1.4470	26.6191
 1.4460	26.6077
 1.4450	26.5655
 1.4440	26.5642
 1.4430	26.4954
 1.4420	26.4859
 1.4410	26.3666
 1.4400	26.3723
 1.4390	26.3346
 1.4380	26.3059
 1.4370	26.2284
 1.4360	26.2349
 1.4350	26.1214
 1.4340	26.1580
 1.4330	26.0626
 1.4320	26.0389
 1.4310	25.9704
 1.4300	25.9245
 1.4290	25.8647
 1.4280	25.8288
 1.4270	25.7704
 1.4260	25.7484
 1.4250	25.6587
 1.4240	25.6261
 1.4230	25.5120
 1.4220	25.5576
 1.4210	25.4098
 1.4200	25.4007
 1.4190	25.3167
 1.4180	25.3315
 1.4170	25.2001
 1.4160	25.2252
 1.4150	25.0610
 1.4140	25.0679
 1.4130	24.9501
 1.4120	24.9785
 1.4110	24.8804
 1.4100	24.8681
 1.4090	24.7583
 1.4080	24.7289
 1.4070	24.5809
 1.4060	24.5945
 1.4050	24.5311
 1.4040	24.5027
 1.4030	24.3642
 1.4020	24.4576
 1.4010	24.2489
 1.4000	24.2720
 1.3990	24.1218
 1.3980	24.1988
 1.3970	24.1467
 1.3960	24.0957
 1.3950	23.9340
 1.3940	23.8499
 1.3930	23.7864
 1.3920	23.8368
 1.3910	23.7132
 1.3900	23.8095
 1.3890	23.6053
 1.3880	23.6376
 1.3870	23.4546
 1.3860	23.4700
 1.3850	23.3181
 1.3840	23.3684
 1.3830	23.1845
 1.3820	23.2200
 1.3810	23.1104
 1.3800	23.1503
 1.3790	22.9889
 1.3780	23.0761
 1.3770	22.9501
 1.3760	22.9828
 1.3750	22.8128
 1.3740	22.8016
 1.3730	22.6831
 1.3720	22.7030
 1.3710	22.6030
 1.3700	22.5789
 1.3690	22.4340
 1.3680	22.4338
 1.3670	22.3069
 1.3660	22.3631
 1.3650	22.2791
 1.3640	22.2626
 1.3630	22.0781
 1.3620	22.0907
 1.3610	21.9099
 1.3600	22.0207
 1.3590	21.8543
 1.3580	21.9118
 1.3570	21.8786
 1.3560	21.9433
 1.3550	21.4735
 1.3540	21.7390
 1.3530	21.4977
 1.3520	21.6325
 1.3510	21.5009
 1.3500	21.4763
 1.3490	21.3369
 1.3480	21.4188
 1.3470	21.3173
 1.3460	21.2716
 1.3450	21.1715
 1.3440	21.2455
 1.3430	21.1266
 1.3420	21.1566
 1.3410	20.9589
 1.3400	21.0539
 1.3390	20.8966
 1.3380	20.9808
 1.3370	20.9148
 1.3360	20.8922
 1.3350	20.7433
 1.3340	20.8433
 1.3330	20.7325
 1.3320	20.7461
 1.3310	20.6527
 1.3300	20.6171
 1.3290	20.5294
 1.3280	20.5652
 1.3270	20.5170
 1.3260	20.5732
 1.3250	20.4280
 1.3240	20.4404
 1.3230	20.3754
 1.3220	20.4581
 1.3210	20.3124
 1.3200	20.3741
 1.3190	20.2814
 1.3180	20.2591
 1.3170	20.2076
 1.3160	20.2061
 1.3150	20.1438
 1.3140	20.2284
 1.3130	20.1445
 1.3120	20.1997
 1.3110	20.0641
 1.3100	20.0857
 1.3090	20.0891
 1.3080	20.1023
 1.3070	20.0224
 1.3060	20.0393
 1.3050	19.9503
 1.3040	20.0246
 1.3030	19.9696
 1.3020	19.9572
 1.3010	19.9727
 1.3000	20.0085
 1.2990	19.9134
 1.2980	19.9673
 1.2970	19.8557
 1.2960	19.9293
 1.2950	19.8568
 1.2940	19.8892
 1.2930	19.8848
 1.2920	19.9176
 1.2910	19.8965
 1.2900	19.8872
 1.2890	19.8921
 1.2880	19.9876
 1.2870	19.9016
 1.2860	19.9415
 1.2850	19.8947
 1.2840	19.9044
 1.2830	19.8976
 1.2820	19.8920
 1.2810	19.8466
 1.2800	19.9594
 1.2790	19.9366
 1.2780	19.9113
 1.2770	19.9058
 1.2760	19.9944
 1.2750	19.9326
 1.2740	20.0354
 1.2730	19.9613
 1.2720	20.0370
 1.2710	20.0090
 1.2700	20.0455
 1.2690	20.0208
 1.2680	20.1133
 1.2670	20.1022
 1.2660	20.1797
 1.2650	20.1917
 1.2640	20.1988
 1.2630	20.1612
 1.2620	20.1883
 1.2610	20.1893
 1.2600	20.2414
 1.2590	20.2595
 1.2580	20.3154
 1.2570	20.3573
 1.2560	20.3720
 1.2550	20.3426
 1.2540	20.3758
 1.2530	20.3660
 1.2520	20.5044
 1.2510	20.5003
 1.2500	20.5078
 1.2490	20.5259
 1.2480	20.5942
 1.2470	20.6173
 1.2460	20.6795
 1.2450	20.6883
 1.2440	20.7324
 1.2430	20.7776
 1.2420	20.8510
 1.2410	20.8777
 1.2400	20.9201
 1.2390	20.9320
 1.2380	20.9724
 1.2370	21.0183
 1.2360	21.0939
 1.2350	21.1134
 1.2340	21.2043
 1.2330	21.2582
 1.2320	21.3104
 1.2310	21.3326
 1.2300	21.4282
 1.2290	21.4889
 1.2280	21.5276
 1.2270	21.5558
 1.2260	21.6294
 1.2250	21.6862
 1.2240	21.7232
 1.2230	21.7889
 1.2220	21.8396
 1.2210	21.8893
 1.2200	21.9916
 1.2190	22.0395
 1.2180	22.0688
 1.2170	22.1486
 1.2160	22.2403
 1.2150	22.2523
 1.2140	22.2763
 1.2130	22.3731
 1.2120	22.4615
 1.2110	22.4949
 1.2100	22.5327
 1.2090	22.6474
 1.2080	22.7464
 1.2070	22.7695
 1.2060	22.8395
 1.2050	22.9771
 1.2040	23.0450
 1.2030	23.1431
 1.2020	23.1810
 1.2010	23.2269
 1.2000	23.3421
 1.1990	23.4354
 1.1980	23.5162
 1.1970	23.5987
 1.1960	23.6383
 1.1950	23.7476
 1.1940	23.7873
 1.1930	23.9066
 1.1920	24.0192
 1.1910	24.0855
 1.1900	24.1294
 1.1890	24.2344
 1.1880	24.2630
 1.1870	24.4078
 1.1860	24.4887
 1.1850	24.5652
 1.1840	24.6997
 1.1830	24.8190
 1.1820	24.8676
 1.1810	24.9859
 1.1800	25.0930
 1.1790	25.2072
 1.1780	25.2642
 1.1770	25.3957
 1.1760	25.4361
 1.1750	25.6197
 1.1740	25.7109
 1.1730	25.8439
 1.1720	25.9113
 1.1710	26.0223
 1.1700	26.0962
 1.1690	26.1945
 1.1680	26.2388
 1.1670	26.4276
 1.1660	26.4688
 1.1650	26.5943
 1.1640	26.6841
 1.1630	26.7940
 1.1620	26.8865
 1.1610	27.0419
 1.1600	27.0893
 1.1590	27.2050
 1.1580	27.2713
 1.1570	27.5043
 1.1560	27.5630
 1.1550	27.7170
 1.1540	27.8223
 1.1530	27.9506
 1.1520	27.9960
 1.1510	28.2445
 1.1500	28.2730
 1.1490	28.4868
 1.1480	28.5674
 1.1470	28.6350
 1.1460	28.7235
 1.1450	28.9035
 1.1440	28.9835
 1.1430	29.2069
 1.1420	29.2682
 1.1410	29.4211
 1.1400	29.4498
 1.1390	29.7213
 1.1380	29.7357
 1.1370	29.9308
 1.1360	30.0652
 1.1350	30.1797
 1.1340	30.2848
 1.1330	30.5090
 1.1320	30.6416
 1.1310	30.7383
 1.1300	30.8680
 1.1290	30.9977
 1.1280	30.9661
 1.1270	31.2429
 1.1260	31.3237
 1.1250	31.5034
 1.1240	31.5659
 1.1230	31.7769
 1.1220	31.8167
 1.1210	32.0219
 1.1200	32.1263
 1.1190	32.4017
 1.1180	32.4475
 1.1170	32.6478
 1.1160	32.7189
 1.1150	32.8028
 1.1140	32.9638
 1.1130	33.1312
 1.1120	33.2746
 1.1110	33.4435
 1.1100	33.4851
 1.1090	33.6774
 1.1080	33.7856
 1.1070	34.0242
 1.1060	34.0861
 1.1050	34.2766
 1.1040	34.3729
 1.1030	34.5764
 1.1020	34.6445
 1.1010	34.8321
 1.1000	34.8724
 1.0990	35.1651
 1.0980	35.1865
 1.0970	35.3919
 1.0960	35.4748
 1.0950	35.7069
 1.0940	35.7224
 1.0930	36.0261
 1.0920	36.0652
 1.0910	36.2510
 1.0900	36.2676
 1.0890	36.5072
 1.0880	36.6413
 1.0870	36.7907
 1.0860	36.8660
 1.0850	37.1144
 1.0840	37.1640
 1.0830	37.3858
 1.0820	37.3865
 1.0810	37.6637
 1.0800	37.7228
 1.0790	37.9517
 1.0780	38.0017
 1.0770	38.2523
 1.0760	38.2559
 1.0750	38.4972
 1.0740	38.5455
 1.0730	38.7672
 1.0720	38.8311
 1.0710	39.0379
 1.0700	38.9953
 1.0690	39.2969
 1.0680	39.3572
 1.0670	39.5819
 1.0660	39.7010
 1.0650	39.7996
 1.0640	39.8595
 1.0630	40.0277
 1.0620	40.1320
 1.0610	40.2898
 1.0600	40.3982
 1.0590	40.5916
 1.0580	40.7052
 1.0570	40.9074
 1.0560	40.9355
 1.0550	41.0728
 1.0540	41.1777
 1.0530	41.3557
 1.0520	41.5081
 1.0510	41.5826
 1.0500	41.6226
 1.0490	41.8776
 1.0480	41.8257
 1.0470	42.0070
 1.0460	42.1239
 1.0450	42.2507
 1.0440	42.3201
 1.0430	42.5310
 1.0420	42.5595
 1.0410	42.7442
 1.0400	42.7896
 1.0390	43.0112
 1.0380	43.0084
 1.0370	43.2701
 1.0360	43.2262
 1.0350	43.4122
 1.0340	43.3876
 1.0330	43.5684
 1.0320	43.6789
 1.0310	43.7911
 1.0300	43.8876
 1.0290	43.9946
 1.0280	44.0214
 1.0270	44.1772
 1.0260	44.2537
 1.0250	44.4775
 1.0240	44.4634
 1.0230	44.5200
 1.0220	44.6353
 1.0210	44.8029
 1.0200	44.8496
 1.0190	44.9437
 1.0180	44.9818
 1.0170	45.1343
 1.0160	45.1849
 1.0150	45.3182
 1.0140	45.3796
 1.0130	45.4798
 1.0120	45.5322
 1.0110	45.6073
 1.0100	45.6014
 1.0090	45.7899
 1.0080	45.7884
 1.0070	45.9247
 1.0060	46.0176
 1.0050	46.1067
 1.0040	46.1348
 1.0030	46.2063
 1.0020	46.2234
 1.0010	46.4003
 1.0000	46.4732
 0.9990	46.5250
 0.9980	46.5481
 0.9970	46.6861
 0.9960	46.6603
 0.9950	46.7705
 0.9940	46.7888
 0.9930	46.8853
 0.9920	46.9477
 0.9910	47.0158
 0.9900	46.9863
 0.9890	47.1054
 0.9880	47.0813
 0.9870	47.2188
 0.9860	47.1835
 0.9850	47.2889
 0.9840	47.3529
 0.9830	47.4807
 0.9820	47.4565
 0.9810	47.5278
 0.9800	47.5711
 0.9790	47.6010
 0.9780	47.6411
 0.9770	47.7145
 0.9760	47.7551
 0.9750	47.8205
 0.9740	47.8185
 0.9730	47.8680
 0.9720	47.8445
 0.9710	47.8673
 0.9700	47.8849
 0.9690	47.9669
 0.9680	48.0412
 0.9670	48.1103
 0.9660	48.0990
 0.9650	48.1501
 0.9640	48.1794
 0.9630	48.3096
 0.9620	48.2977
 0.9610	48.2656
 0.9600	48.3149
 0.9590	48.3819
 0.9580	48.3965
 0.9570	48.4553
 0.9560	48.4466
 0.9550	48.4571
 0.9540	48.4667
 0.9530	48.4970
 0.9520	48.5518
 0.9510	48.5950
 0.9500	48.5946
 0.9490	48.6081
 0.9480	48.6256
 0.9470	48.6803
 0.9460	48.6859
 0.9450	48.7172
 0.9440	48.7649
 0.9430	48.8071
 0.9420	48.7982
 0.9410	48.7660
 0.9400	48.7781
 0.9390	48.8309
 0.9380	48.8086
 0.9370	48.8236
 0.9360	48.8858
 0.9350	48.8987
 0.9340	48.9077
 0.9330	48.9058
 0.9320	48.9166
 0.9310	48.9149
 0.9300	48.8978
 0.9290	48.9412
 0.9280	49.0030
 0.9270	48.9741
 0.9260	48.9852
 0.9250	49.0026
 0.9240	49.0029
 0.9230	49.0761
 0.9220	49.0683
 0.9210	49.0376
 0.9200	49.0661
 0.9190	49.0708
 0.9180	49.0830
 0.9170	49.0892
 0.9160	49.1513
 0.9150	49.1606
 0.9140	49.1282
 0.9130	49.0867
 0.9120	49.1469
 0.9110	49.1368
 0.9100	49.1384
 0.9090	49.1379
 0.9080	49.1220
 0.9070	49.1586
 0.9060	49.2075
 0.9050	49.1710
 0.9040	49.1757
 0.9030	49.1827
 0.9020	49.1714
 0.9010	49.1341
 0.9000	49.1660
 0.8990	49.1447
 0.8980	49.1497
 0.8970	49.1426
 0.8960	49.2102
 0.8950	49.1943
 0.8940	49.2077
 0.8930	49.2207
 0.8920	49.2547
 0.8910	49.2031
 0.8900	49.2198
 0.8890	49.2307
 0.8880	49.2363
 0.8870	49.1933
 0.8860	49.1991
 0.8850	49.2609
 0.8840	49.2996
 0.8830	49.2574
 0.8820	49.2564
 0.8810	49.2112
 0.8800	49.2522
 0.8790	49.2734
 0.8780	49.2640
 0.8770	49.2145
 0.8760	49.2459
 0.8750	49.2854
 0.8740	49.2981
 0.8730	49.2391
 0.8720	49.2810
 0.8710	49.2830
 0.8700	49.2760
 0.8690	49.2562
 0.8680	49.2596
 0.8670	49.3091
 0.8660	49.3623
 0.8650	49.2824
 0.8640	49.2759
 0.8630	49.2876
 0.8620	49.2908
 0.8610	49.2206
 0.8600	49.2571
 0.8590	49.3498
 0.8580	49.4776
 0.8570	49.2556
 0.8560	49.3551
 0.8550	49.4732
 0.8540	49.3788
 0.8530	49.3227
 0.8520	49.3996
 0.8510	49.4598
 0.8500	49.3584
 0.8490	49.4264
 0.8480	49.4808
 0.8470	49.3345
 0.8460	49.4175
 0.8450	49.5055
 0.8440	49.4537
 0.8430	49.4490
 0.8420	49.4475
 0.8410	49.4286
 0.8400	49.4120
 0.8390	49.4134
 0.8380	49.4041
 0.8370	49.3847
 0.8360	49.4574
 0.8350	49.4510
 0.8340	49.3880
 0.8330	49.3856
 0.8320	49.4704
 0.8310	49.3870
 0.8300	49.4011
 0.8290	49.4537
 0.8280	49.3863
 0.8270	49.3719
 0.8260	49.4371
 0.8250	49.4230
 0.8240	49.3380
 0.8230	49.3900
 0.8220	49.4554
 0.8210	49.3296
 0.8200	49.3807
 0.8190	49.3716
 0.8180	49.3198
 0.8170	49.3537
 0.8160	49.3688
 0.8150	49.3221
 0.8140	49.3135
 0.8130	49.3638
 0.8120	49.3593
 0.8110	49.3036
 0.8100	49.3080
 0.8090	49.3097
 0.8080	49.2941
 0.8070	49.2898
 0.8060	49.3221
 0.8050	49.2627
 0.8040	49.2477
 0.8030	49.2515
 0.8020	49.2154
 0.8010	49.1816
 0.8000	49.1969
 0.7990	49.1985
 0.7980	49.1248
 0.7970	49.1130
 0.7960	49.1779
 0.7950	49.0658
 0.7940	49.0268
 0.7930	49.0546
 0.7920	49.0132
 0.7910	48.9852
 0.7900	49.0070
 0.7890	48.9728
 0.7880	48.9202
 0.7870	48.9372
 0.7860	48.9012
 0.7850	48.8713
 0.7840	48.8368
 0.7830	48.8241
 0.7820	48.8009
 0.7810	48.7488
 0.7800	48.7171
 0.7790	48.7331
 0.7780	48.6680
 0.7770	48.6245
 0.7760	48.5926
 0.7750	48.5687
 0.7740	48.4714
 0.7730	48.4834
 0.7720	48.4535
 0.7710	48.3657
 0.7700	48.3650
 0.7690	48.3201
 0.7680	48.2591
 0.7670	48.2349
 0.7660	48.1979
 0.7650	48.1449
 0.7640	48.0714
 0.7630	48.0517
 0.7620	48.0041
 0.7610	47.9338
 0.7600	47.8858
 0.7590	47.8341
 0.7580	47.7741
 0.7570	47.6869
 0.7560	47.6628
 0.7550	47.6298
 0.7540	47.5212
 0.7530	47.4965
 0.7520	47.4387
 0.7510	47.3567
 0.7500	47.2818
 0.7490	47.2549
 0.7480	47.1421
 0.7470	47.0679
 0.7460	47.0151
 0.7450	46.9391
 0.7440	46.8590
 0.7430	46.8170
 0.7420	46.7229
 0.7410	46.6291
 0.7400	46.5473
 0.7390	46.4807
 0.7380	46.4113
 0.7370	46.3169
 0.7360	46.2526
 0.7350	46.2023
 0.7340	46.0826
 0.7330	46.0058
 0.7320	45.9211
 0.7310	45.8416
 0.7300	45.7514
 0.7290	45.6953
 0.7280	45.6216
 0.7270	45.5081
 0.7260	45.4645
 0.7250	45.3851
 0.7240	45.2745
 0.7230	45.2042
 0.7220	45.1386
 0.7210	45.0354
 0.7200	44.9587
 0.7190	44.9098
 0.7180	44.8301
 0.7170	44.7200
 0.7160	44.6695
 0.7150	44.5918
 0.7140	44.5168
 0.7130	44.4612
 0.7120	44.3915
 0.7110	44.3255
 0.7100	44.2673
 0.7090	44.2197
 0.7080	44.1563
 0.7070	44.0953
 0.7060	44.0425
 0.7050	43.9925
 0.7040	43.9331
 0.7030	43.9036
 0.7020	43.8577
 0.7010	43.8023
 0.7000	43.7653
 0.6990	43.7243
 0.6980	43.6928
 0.6970	43.6706
 0.6960	43.6344
 0.6950	43.6089
 0.6940	43.5829
 0.6930	43.5741
 0.6920	43.5491
 0.6910	43.5324
 0.6900	43.5185
 0.6890	43.5048
 0.6880	43.4942
 0.6870	43.4691
 0.6860	43.4834
 0.6850	43.4837
 0.6840	43.4804
 0.6830	43.4755
 0.6820	43.4888
 0.6810	43.4942
 0.6800	43.4814
 0.6790	43.4973
 0.6780	43.5146
 0.6770	43.5194
 0.6760	43.5211
 0.6750	43.5323
 0.6740	43.5465
 0.6730	43.5467
 0.6720	43.5575
 0.6710	43.5806
 0.6700	43.5780
 0.6690	43.5782
 0.6680	43.5992
 0.6670	43.6049
 0.6660	43.6025
 0.6650	43.6115
 0.6640	43.6161
 0.6630	43.6155
 0.6620	43.6180
 0.6610	43.6141
 0.6600	43.5960
 0.6590	43.5930
 0.6580	43.5853
 0.6570	43.5619
 0.6560	43.5301
 0.6550	43.5089
 0.6540	43.4911
 0.6530	43.4655
 0.6520	43.4298
 0.6510	43.3950
 0.6500	43.3466
 0.6490	43.2937
 0.6480	43.2397
 0.6470	43.1658
 0.6460	43.1037
 0.6450	43.0382
 0.6440	42.9584
 0.6430	42.8717
 0.6420	42.7823
 0.6410	42.6864
 0.6400	42.5897
 0.6390	42.4851
 0.6380	42.3622
 0.6370	42.2425
 0.6360	42.1270
 0.6350	42.0010
 0.6340	41.8724
 0.6330	41.7309
 0.6320	41.5872
 0.6310	41.4465
 0.6300	41.2894
 0.6290	41.1343
 0.6280	40.9919
 0.6270	40.8422
 0.6260	40.6814
 0.6250	40.5353
 0.6240	40.3925
 0.6230	40.2506
 0.6220	40.1111
 0.6210	39.9772
 0.6200	39.8490
 0.6190	39.7179
 0.6180	39.5889
 0.6170	39.4853
 0.6160	39.3846
 0.6150	39.2803
 0.6140	39.1816
 0.6130	39.0755
 0.6120	38.9774
 0.6110	38.8877
 0.6100	38.8025
 0.6090	38.7210
 0.6080	38.6390
 0.6070	38.5597
 0.6060	38.4696
 0.6050	38.3810
 0.6040	38.2850
 0.6030	38.1886
 0.6020	38.0887
 0.6010	37.9838
 0.6000	37.8722
 0.5990	37.7580
 0.5980	37.6347
 0.5970	37.5042
 0.5960	37.3700
 0.5950	37.2304
 0.5940	37.0731
 0.5930	36.9119
 0.5920	36.7291
 0.5910	36.5426
 0.5900	36.3468
 0.5890	36.1454
 0.5880	35.9231
 0.5870	35.6945
 0.5860	35.4671
 0.5850	35.2422
 0.5840	35.0099
 0.5830	34.7658
 0.5820	34.5225
 0.5810	34.2807
 0.5800	34.0393
 0.5790	33.8067
 0.5780	33.5941
 0.5770	33.3922
 0.5760	33.2167
 0.5750	33.0566
 0.5740	32.9146
 0.5730	32.7895
 0.5720	32.6978
 0.5710	32.6162
 0.5700	32.5600
 0.5690	32.5269
 0.5680	32.5060
 0.5670	32.4871
 0.5660	32.4963
 0.5650	32.5007
 0.5640	32.5145
 0.5630	32.5364
 0.5620	32.5588
 0.5610	32.5661
 0.5600	32.5718
 0.5590	32.5859
 0.5580	32.5875
 0.5570	32.5693
 0.5560	32.5536
 0.5550	32.5364
 0.5540	32.4987
 0.5530	32.4586
 0.5520	32.4099
 0.5510	32.3531
 0.5500	32.2776
 0.5490	32.1954
 0.5480	32.1010
 0.5470	32.0284
 0.5460	31.9197
 0.5450	31.7917
 0.5440	31.6607
 0.5430	31.5041
 0.5420	31.3493
 0.5410	31.1852
 0.5400	31.0060
 0.5390	30.8172
 0.5380	30.6300
 0.5370	30.4371
 0.5360	30.2396
 0.5350	30.0428
 0.5340	29.8353
 0.5330	29.6331
 0.5320	29.4360
 0.5310	29.2399
 0.5300	29.0457
 0.5290	28.8601
 0.5280	28.6797
 0.5270	28.5219
 0.5260	28.3651
 0.5250	28.2232
 0.5240	28.0956
 0.5230	27.9781
 0.5220	27.8772
 0.5210	27.7650
 0.5200	27.6907
 0.5190	27.6146
 0.5180	27.5286
 0.5170	27.4455
 0.5160	27.3713
 0.5150	27.2766
 0.5140	27.1686
 0.5130	27.0512
 0.5120	26.9155
 0.5110	26.7556
 0.5100	26.5680
 0.5090	26.3602
 0.5080	26.1632
 0.5070	25.9533
 0.5060	25.7740
 0.5050	25.6215
 0.5040	25.5096
 0.5030	25.4570
 0.5020	25.4532
 0.5010	25.4936
 0.5000	25.5175
 0.4990	25.5718
 0.4980	25.6246
 0.4970	25.6771
 0.4960	25.7226
 0.4950	25.7798
 0.4940	25.8362
 0.4930	25.8794
 0.4920	25.9586
 0.4910	26.0336
 0.4900	26.1054
 0.4890	26.1672
 0.4880	26.2447
 0.4870	26.3194
 0.4860	26.3622
 0.4850	26.4164
 0.4840	26.4599
 0.4830	26.4959
 0.4820	26.5048
 0.4810	26.5228
 0.4800	26.5446
 0.4790	26.5192
 0.4780	26.5212
 0.4770	26.5074
 0.4760	26.4898
 0.4750	26.4620
 0.4740	26.4346
 0.4730	26.4070
 0.4720	26.3794
 0.4710	26.3628
 0.4700	26.3409
 0.4690	26.3283
 0.4680	26.2943
 0.4670	26.2731
 0.4660	26.2574
 0.4650	26.2235
 0.4640	26.1899
 0.4630	26.1591
 0.4620	26.1218
 0.4610	26.0780
 0.4600	26.0574
 0.4590	26.0469
 0.4580	26.0303
 0.4570	26.0263
 0.4560	26.0325
 0.4550	26.0382
 0.4540	26.0512
 0.4530	26.0657
 0.4520	26.0694
 0.4510	26.0510
 0.4500	26.0517
 0.4490	26.0565
 0.4480	26.0513
 0.4470	26.0080
 0.4460	25.9774
 0.4450	25.9521
 0.4440	25.8972
 0.4430	25.8347
 0.4420	25.7570
 0.4410	25.6727
 0.4400	25.5743
 0.4390	25.4706
 0.4380	25.3585
 0.4370	25.2224
 0.4360	25.0826
 0.4350	24.9486
 0.4340	24.8145
 0.4330	24.6871
 0.4320	24.5899
 0.4310	24.5193
 0.4300	24.4635
 0.4290	24.4140
 0.4280	24.3895
 0.4270	24.3875
 0.4260	24.3717
 0.4250	24.3724
 0.4240	24.3817
 0.4230	24.3925
 0.4220	24.4092
 0.4210	24.4411
 0.4200	24.4761
 0.4190	24.5010
 0.4180	24.5349
 0.4170	24.5591
 0.4160	24.5725
 0.4150	24.5808
 0.4140	24.5825
 0.4130	24.5742
 0.4120	24.5624
 0.4110	24.5385
 0.4100	24.5409
 0.4090	24.5263
 0.4080	24.5048
 0.4070	24.5008
 0.4060	24.5015
 0.4050	24.4760
 0.4040	24.4468
 0.4030	24.4025
 0.4020	24.3496
 0.4010	24.2929
 0.4000	24.2316
