Name: Johannsenite Ca(Mn,Fe^2+)(SiO_3)_2
Type: Mineral
Class: Silicate
Subclass: Inosilicate
Particle Size: Fine
Sample No.: IN-12A
Owner: JPL
Wavelength Range: VSWIR
Origin: USA, Arizona, Graham County, Aravaipa.
Collection Date: N/A
Description: Particle size was 0-45um.Collected by:  Burminco Original ASTER Spectral Library name was jpl.perkin.mineral.silicate.inosilicate.fine.in12a.spectrum.txt
Measurement: Hemispherical reflectance
First Column: X
Second Column: Y
X Units: Wavelength (micrometers)
Y Units:Reflectance (percent)
First X Value:  2.5000
Last X Value:  0.4000
Number of X Values: 2101
Additional Information: mineral.silicate.inosilicate.fine.vswir.in-12a.jpl.perkin.ancillary.txt

 2.5000	49.0066
 2.4990	48.6694
 2.4980	48.9404
 2.4970	48.8398
 2.4960	48.6052
 2.4950	48.8890
 2.4940	48.9043
 2.4930	48.9253
 2.4920	49.1202
 2.4910	49.0286
 2.4900	49.1608
 2.4890	49.2505
 2.4880	49.1462
 2.4870	49.0988
 2.4860	49.1307
 2.4850	49.2039
 2.4840	49.1793
 2.4830	49.2927
 2.4820	49.2961
 2.4810	49.3912
 2.4800	49.3285
 2.4790	49.4525
 2.4780	49.4604
 2.4770	49.4938
 2.4760	49.5149
 2.4750	49.6217
 2.4740	49.6611
 2.4730	49.6657
 2.4720	49.6676
 2.4710	49.7710
 2.4700	49.7671
 2.4690	49.7201
 2.4680	49.9569
 2.4670	49.9198
 2.4660	50.1237
 2.4650	50.0955
 2.4640	50.1831
 2.4630	50.2064
 2.4620	50.2066
 2.4610	50.2624
 2.4600	50.3360
 2.4590	50.3455
 2.4580	50.4807
 2.4570	50.3937
 2.4560	50.4907
 2.4550	50.5233
 2.4540	50.6029
 2.4530	50.5792
 2.4520	50.5902
 2.4510	50.6580
 2.4500	50.6994
 2.4490	50.7992
 2.4480	50.9033
 2.4470	50.8110
 2.4460	50.9750
 2.4450	50.9471
 2.4440	51.0325
 2.4430	51.0780
 2.4420	51.0610
 2.4410	51.1702
 2.4400	51.0681
 2.4390	51.1670
 2.4380	51.2371
 2.4370	51.2478
 2.4360	51.3853
 2.4350	51.3715
 2.4340	51.3965
 2.4330	51.5130
 2.4320	51.5169
 2.4310	51.5499
 2.4300	51.5222
 2.4290	51.5665
 2.4280	51.6748
 2.4270	51.6309
 2.4260	51.6377
 2.4250	51.6719
 2.4240	51.7510
 2.4230	51.7959
 2.4220	51.8479
 2.4210	51.7892
 2.4200	51.8909
 2.4190	51.8882
 2.4180	51.8611
 2.4170	51.9282
 2.4160	51.9685
 2.4150	52.0630
 2.4140	52.1311
 2.4130	52.1855
 2.4120	52.2271
 2.4110	52.1587
 2.4100	52.1368
 2.4090	52.1593
 2.4080	52.2565
 2.4070	52.3458
 2.4060	52.3000
 2.4050	52.2568
 2.4040	52.3828
 2.4030	52.4586
 2.4020	52.4484
 2.4010	52.3859
 2.4000	52.4541
 2.3990	52.4993
 2.3980	52.5468
 2.3970	52.5482
 2.3960	52.5234
 2.3950	52.6037
 2.3940	52.6542
 2.3930	52.6039
 2.3920	52.6681
 2.3910	52.7196
 2.3900	52.7773
 2.3890	52.8141
 2.3880	52.8706
 2.3870	52.9047
 2.3860	53.0084
 2.3850	52.9535
 2.3840	52.9465
 2.3830	53.0092
 2.3820	53.0565
 2.3810	53.0713
 2.3800	53.1238
 2.3790	53.1537
 2.3780	53.1897
 2.3770	53.2093
 2.3760	53.2815
 2.3750	53.3611
 2.3740	53.4143
 2.3730	53.3881
 2.3720	53.4143
 2.3710	53.5079
 2.3700	53.5488
 2.3690	53.5302
 2.3680	53.5357
 2.3670	53.6088
 2.3660	53.6642
 2.3650	53.6875
 2.3640	53.7181
 2.3630	53.7075
 2.3620	53.7347
 2.3610	53.7318
 2.3600	53.7433
 2.3590	53.7822
 2.3580	53.7999
 2.3570	53.8149
 2.3560	53.8398
 2.3550	53.9000
 2.3540	53.8882
 2.3530	53.8432
 2.3520	53.8576
 2.3510	53.8730
 2.3500	53.8770
 2.3490	53.8692
 2.3480	53.9014
 2.3470	53.9383
 2.3460	53.9401
 2.3450	53.9128
 2.3440	53.9133
 2.3430	53.9235
 2.3420	53.8783
 2.3410	53.8780
 2.3400	53.8993
 2.3390	53.8710
 2.3380	53.8813
 2.3370	53.9264
 2.3360	53.9057
 2.3350	53.8701
 2.3340	53.8134
 2.3330	53.8268
 2.3320	53.8127
 2.3310	53.7645
 2.3300	53.7076
 2.3290	53.7422
 2.3280	53.7513
 2.3270	53.7576
 2.3260	53.7079
 2.3250	53.6660
 2.3240	53.6398
 2.3230	53.6155
 2.3220	53.5671
 2.3210	53.5519
 2.3200	53.5270
 2.3190	53.5356
 2.3180	53.4939
 2.3170	53.4591
 2.3160	53.3557
 2.3150	53.3172
 2.3140	53.2964
 2.3130	53.2829
 2.3120	53.2438
 2.3110	53.2440
 2.3100	53.2142
 2.3090	53.1817
 2.3080	53.1399
 2.3070	53.0853
 2.3060	53.0385
 2.3050	52.9910
 2.3040	52.9375
 2.3030	52.9379
 2.3020	52.8916
 2.3010	52.8971
 2.3000	52.8298
 2.2990	52.7904
 2.2980	52.7354
 2.2970	52.7719
 2.2960	52.6993
 2.2950	52.7128
 2.2940	52.6772
 2.2930	52.6945
 2.2920	52.6600
 2.2910	52.6622
 2.2900	52.6309
 2.2890	52.6942
 2.2880	52.7003
 2.2870	52.7020
 2.2860	52.6706
 2.2850	52.7601
 2.2840	52.7675
 2.2830	52.8263
 2.2820	52.7888
 2.2810	52.8509
 2.2800	52.8680
 2.2790	52.9411
 2.2780	52.9147
 2.2770	52.9430
 2.2760	52.9290
 2.2750	53.0007
 2.2740	52.9576
 2.2730	53.0845
 2.2720	53.0683
 2.2710	53.0758
 2.2700	53.0258
 2.2690	53.1075
 2.2680	53.0516
 2.2670	53.1391
 2.2660	53.1563
 2.2650	53.1964
 2.2640	53.1701
 2.2630	53.1496
 2.2620	53.2234
 2.2610	53.1688
 2.2600	53.1382
 2.2590	53.1690
 2.2580	53.2010
 2.2570	53.2035
 2.2560	53.1645
 2.2550	53.2393
 2.2540	53.2137
 2.2530	53.2000
 2.2520	53.2150
 2.2510	53.1864
 2.2500	53.2645
 2.2490	53.2338
 2.2480	53.2806
 2.2470	53.2035
 2.2460	53.2061
 2.2450	53.2617
 2.2440	53.2583
 2.2430	53.2377
 2.2420	53.1712
 2.2410	53.2146
 2.2400	53.2579
 2.2390	53.2601
 2.2380	53.2320
 2.2370	53.2798
 2.2360	53.2249
 2.2350	53.2597
 2.2340	53.1619
 2.2330	53.2550
 2.2320	53.1790
 2.2310	53.2848
 2.2300	53.2433
 2.2290	53.2719
 2.2280	53.1961
 2.2270	53.2453
 2.2260	53.1963
 2.2250	53.1913
 2.2240	53.2000
 2.2230	53.2558
 2.2220	53.2378
 2.2210	53.2719
 2.2200	53.1904
 2.2190	53.2318
 2.2180	53.1635
 2.2170	53.2213
 2.2160	53.1908
 2.2150	53.1832
 2.2140	53.2969
 2.2130	53.2877
 2.2120	53.2638
 2.2110	53.1976
 2.2100	53.3654
 2.2090	53.2835
 2.2080	53.2083
 2.2070	53.3497
 2.2060	53.2988
 2.2050	53.3633
 2.2040	53.3206
 2.2030	53.3193
 2.2020	53.4016
 2.2010	53.2729
 2.2000	53.3796
 2.1990	53.3875
 2.1980	53.3534
 2.1970	53.2726
 2.1960	53.3012
 2.1950	53.4323
 2.1940	53.3820
 2.1930	53.3410
 2.1920	53.2786
 2.1910	53.2897
 2.1900	53.2546
 2.1890	53.3381
 2.1880	53.3029
 2.1870	53.3347
 2.1860	53.3482
 2.1850	53.2741
 2.1840	53.2386
 2.1830	53.2843
 2.1820	53.2874
 2.1810	53.2915
 2.1800	53.3020
 2.1790	53.3113
 2.1780	53.3120
 2.1770	53.2790
 2.1760	53.2642
 2.1750	53.2558
 2.1740	53.2724
 2.1730	53.3316
 2.1720	53.2593
 2.1710	53.3526
 2.1700	53.2783
 2.1690	53.2343
 2.1680	53.3230
 2.1670	53.3991
 2.1660	53.3109
 2.1650	53.2634
 2.1640	53.3463
 2.1630	53.2493
 2.1620	53.2758
 2.1610	53.2304
 2.1600	53.1846
 2.1590	53.2683
 2.1580	53.2360
 2.1570	53.2530
 2.1560	53.2167
 2.1550	53.2897
 2.1540	53.1931
 2.1530	53.2256
 2.1520	53.2102
 2.1510	53.2050
 2.1500	53.1588
 2.1490	53.1852
 2.1480	53.1337
 2.1470	53.1449
 2.1460	53.1492
 2.1450	53.0677
 2.1440	53.0158
 2.1430	53.0097
 2.1420	52.9728
 2.1410	53.0451
 2.1400	53.0096
 2.1390	52.9566
 2.1380	52.8446
 2.1370	52.8733
 2.1360	52.7911
 2.1350	52.7953
 2.1340	52.7995
 2.1330	52.7380
 2.1320	52.6390
 2.1310	52.6259
 2.1300	52.5873
 2.1290	52.5534
 2.1280	52.5046
 2.1270	52.4590
 2.1260	52.4304
 2.1250	52.3497
 2.1240	52.3528
 2.1230	52.3384
 2.1220	52.1943
 2.1210	52.1387
 2.1200	52.1304
 2.1190	52.0854
 2.1180	52.0089
 2.1170	52.0146
 2.1160	51.9715
 2.1150	51.8654
 2.1140	51.7904
 2.1130	51.7488
 2.1120	51.7267
 2.1110	51.6993
 2.1100	51.6268
 2.1090	51.5538
 2.1080	51.4786
 2.1070	51.4352
 2.1060	51.3839
 2.1050	51.3850
 2.1040	51.2998
 2.1030	51.2582
 2.1020	51.2617
 2.1010	51.1458
 2.1000	51.0846
 2.0990	51.0894
 2.0980	51.0830
 2.0970	51.1524
 2.0960	51.0906
 2.0950	51.0427
 2.0940	51.0442
 2.0930	50.9840
 2.0920	50.9775
 2.0910	50.9684
 2.0900	50.9305
 2.0890	50.9162
 2.0880	50.8676
 2.0870	50.8831
 2.0860	50.8235
 2.0850	50.7765
 2.0840	50.8267
 2.0830	50.8210
 2.0820	50.7799
 2.0810	50.7626
 2.0800	50.7231
 2.0790	50.7445
 2.0780	50.7600
 2.0770	50.7136
 2.0760	50.6345
 2.0750	50.6174
 2.0740	50.6139
 2.0730	50.5852
 2.0720	50.5620
 2.0710	50.5282
 2.0700	50.5202
 2.0690	50.5154
 2.0680	50.5057
 2.0670	50.5151
 2.0660	50.4709
 2.0650	50.4046
 2.0640	50.3747
 2.0630	50.2960
 2.0620	50.3089
 2.0610	50.3234
 2.0600	50.2899
 2.0590	50.2208
 2.0580	50.2046
 2.0570	50.1826
 2.0560	50.1733
 2.0550	50.1655
 2.0540	50.1463
 2.0530	50.1599
 2.0520	50.1056
 2.0510	50.0567
 2.0500	50.0300
 2.0490	49.9939
 2.0480	49.9750
 2.0470	49.9306
 2.0460	49.9007
 2.0450	49.8446
 2.0440	49.8250
 2.0430	49.7957
 2.0420	49.8103
 2.0410	49.7891
 2.0400	49.7341
 2.0390	49.6952
 2.0380	49.6189
 2.0370	49.6010
 2.0360	49.5836
 2.0350	49.5470
 2.0340	49.5203
 2.0330	49.4704
 2.0320	49.4520
 2.0310	49.4376
 2.0300	49.3724
 2.0290	49.2858
 2.0280	49.2605
 2.0270	49.2718
 2.0260	49.2191
 2.0250	49.1505
 2.0240	49.1022
 2.0230	49.0298
 2.0220	49.0622
 2.0210	48.9407
 2.0200	48.9570
 2.0190	48.9138
 2.0180	48.8693
 2.0170	48.7881
 2.0160	48.7690
 2.0150	48.7362
 2.0140	48.6266
 2.0130	48.6053
 2.0120	48.6015
 2.0110	48.4806
 2.0100	48.4937
 2.0090	48.4528
 2.0080	48.3657
 2.0070	48.2707
 2.0060	48.3101
 2.0050	48.2805
 2.0040	48.2735
 2.0030	48.1518
 2.0020	48.1640
 2.0010	48.0911
 2.0000	48.0685
 1.9990	47.9794
 1.9980	47.9361
 1.9970	47.8884
 1.9960	47.8578
 1.9950	47.7770
 1.9940	47.7617
 1.9930	47.6107
 1.9920	47.6353
 1.9910	47.5809
 1.9900	47.5187
 1.9890	47.5114
 1.9880	47.4337
 1.9870	47.3515
 1.9860	47.3240
 1.9850	47.2033
 1.9840	47.2261
 1.9830	47.1357
 1.9820	47.0933
 1.9810	47.0104
 1.9800	46.9619
 1.9790	46.9240
 1.9780	46.8903
 1.9770	46.7734
 1.9760	46.7198
 1.9750	46.6823
 1.9740	46.6800
 1.9730	46.5846
 1.9720	46.5680
 1.9710	46.4803
 1.9700	46.5218
 1.9690	46.3851
 1.9680	46.3754
 1.9670	46.2881
 1.9660	46.2586
 1.9650	46.1733
 1.9640	46.1717
 1.9630	46.1117
 1.9620	46.0316
 1.9610	46.0150
 1.9600	45.9791
 1.9590	45.8560
 1.9580	45.8531
 1.9570	45.7590
 1.9560	45.7693
 1.9550	45.6672
 1.9540	45.6470
 1.9530	45.6239
 1.9520	45.6427
 1.9510	45.5232
 1.9500	45.4446
 1.9490	45.3932
 1.9480	45.3682
 1.9470	45.3598
 1.9460	45.3153
 1.9450	45.2522
 1.9440	45.2138
 1.9430	45.0487
 1.9420	45.0928
 1.9410	45.0398
 1.9400	45.0752
 1.9390	44.9075
 1.9380	44.8818
 1.9370	44.8405
 1.9360	44.8064
 1.9350	44.6732
 1.9340	44.7504
 1.9330	44.6215
 1.9320	44.6127
 1.9310	44.6391
 1.9300	44.5707
 1.9290	44.5046
 1.9280	44.4593
 1.9270	44.4730
 1.9260	44.2851
 1.9250	44.3478
 1.9240	44.3280
 1.9230	44.2476
 1.9220	44.2605
 1.9210	44.1790
 1.9200	44.1700
 1.9190	44.1334
 1.9180	44.0774
 1.9170	43.9681
 1.9160	44.0258
 1.9150	43.9432
 1.9140	44.0191
 1.9130	43.9152
 1.9120	43.9787
 1.9110	43.9300
 1.9100	44.0141
 1.9090	43.9962
 1.9080	43.9990
 1.9070	44.0982
 1.9060	44.1742
 1.9050	44.2909
 1.9040	44.3252
 1.9030	44.5389
 1.9020	44.7227
 1.9010	44.8464
 1.9000	45.0659
 1.8990	45.2228
 1.8980	45.3914
 1.8970	45.5041
 1.8960	45.6720
 1.8950	45.8332
 1.8940	46.0130
 1.8930	46.0530
 1.8920	46.1562
 1.8910	46.2158
 1.8900	46.5351
 1.8890	46.5284
 1.8880	46.6745
 1.8870	46.6733
 1.8860	46.8166
 1.8850	46.8184
 1.8840	46.9227
 1.8830	46.9900
 1.8820	46.9740
 1.8810	46.9842
 1.8800	47.0387
 1.8790	46.9927
 1.8780	47.0108
 1.8770	47.0633
 1.8760	47.0035
 1.8750	47.0355
 1.8740	47.0683
 1.8730	47.0443
 1.8720	47.0958
 1.8710	47.1511
 1.8700	47.1325
 1.8690	47.1745
 1.8680	47.1744
 1.8670	47.2313
 1.8660	47.1710
 1.8650	47.1405
 1.8640	47.1639
 1.8630	47.1785
 1.8620	47.1830
 1.8610	47.1379
 1.8600	47.0803
 1.8590	47.0789
 1.8580	47.0627
 1.8570	46.9861
 1.8560	47.0462
 1.8550	46.9999
 1.8540	47.0366
 1.8530	46.9108
 1.8520	46.9368
 1.8510	46.9358
 1.8500	46.9712
 1.8490	46.8662
 1.8480	46.8756
 1.8470	46.8668
 1.8460	46.8458
 1.8450	46.7842
 1.8440	46.7461
 1.8430	46.7542
 1.8420	46.7184
 1.8410	46.6940
 1.8400	46.6685
 1.8390	46.6529
 1.8380	46.6449
 1.8370	46.6165
 1.8360	46.5609
 1.8350	46.5110
 1.8340	46.5604
 1.8330	46.5035
 1.8320	46.5122
 1.8310	46.4257
 1.8300	46.4483
 1.8290	46.4188
 1.8280	46.4378
 1.8270	46.4096
 1.8260	46.3394
 1.8250	46.2761
 1.8240	46.2653
 1.8230	46.2680
 1.8220	46.2171
 1.8210	46.1794
 1.8200	46.1862
 1.8190	46.1390
 1.8180	46.1528
 1.8170	46.1657
 1.8160	46.1343
 1.8150	46.0694
 1.8140	46.0208
 1.8130	45.9859
 1.8120	45.9697
 1.8110	45.9313
 1.8100	45.9527
 1.8090	45.9077
 1.8080	45.8782
 1.8070	45.8899
 1.8060	45.8576
 1.8050	45.8140
 1.8040	45.7601
 1.8030	45.7034
 1.8020	45.7047
 1.8010	45.6576
 1.8000	45.6400
 1.7990	45.6146
 1.7980	45.5581
 1.7970	45.5298
 1.7960	45.5504
 1.7950	45.5177
 1.7940	45.4773
 1.7930	45.4856
 1.7920	45.4465
 1.7910	45.3804
 1.7900	45.3915
 1.7890	45.4033
 1.7880	45.3215
 1.7870	45.2557
 1.7860	45.2177
 1.7850	45.1751
 1.7840	45.1461
 1.7830	45.0967
 1.7820	45.0903
 1.7810	45.0820
 1.7800	45.0368
 1.7790	45.0041
 1.7780	44.9662
 1.7770	44.9516
 1.7760	44.9289
 1.7750	44.9246
 1.7740	44.9236
 1.7730	44.8408
 1.7720	44.7789
 1.7710	44.7548
 1.7700	44.7510
 1.7690	44.7568
 1.7680	44.7051
 1.7670	44.6741
 1.7660	44.6181
 1.7650	44.6049
 1.7640	44.5985
 1.7630	44.5732
 1.7620	44.5187
 1.7610	44.4911
 1.7600	44.4783
 1.7590	44.4609
 1.7580	44.4060
 1.7570	44.3979
 1.7560	44.3875
 1.7550	44.3610
 1.7540	44.3194
 1.7530	44.2892
 1.7520	44.2149
 1.7510	44.2184
 1.7500	44.2103
 1.7490	44.1890
 1.7480	44.1332
 1.7470	44.1315
 1.7460	44.0805
 1.7450	44.0925
 1.7440	44.0849
 1.7430	43.9713
 1.7420	43.9581
 1.7410	43.9784
 1.7400	43.9517
 1.7390	43.9046
 1.7380	43.8723
 1.7370	43.8432
 1.7360	43.7778
 1.7350	43.8262
 1.7340	43.7473
 1.7330	43.7852
 1.7320	43.7747
 1.7310	43.6737
 1.7300	43.6164
 1.7290	43.6795
 1.7280	43.5839
 1.7270	43.5828
 1.7260	43.5796
 1.7250	43.5413
 1.7240	43.4966
 1.7230	43.5264
 1.7220	43.4381
 1.7210	43.4541
 1.7200	43.3424
 1.7190	43.2992
 1.7180	43.3118
 1.7170	43.3100
 1.7160	43.2015
 1.7150	43.1877
 1.7140	43.1460
 1.7130	43.1237
 1.7120	43.0970
 1.7110	43.1198
 1.7100	43.1263
 1.7090	43.0626
 1.7080	42.9278
 1.7070	42.9657
 1.7060	42.9651
 1.7050	42.9253
 1.7040	42.9424
 1.7030	42.8386
 1.7020	42.7688
 1.7010	42.8079
 1.7000	42.7899
 1.6990	42.6873
 1.6980	42.6812
 1.6970	42.7147
 1.6960	42.6212
 1.6950	42.6591
 1.6940	42.5629
 1.6930	42.5512
 1.6920	42.5320
 1.6910	42.5206
 1.6900	42.4178
 1.6890	42.4570
 1.6880	42.3813
 1.6870	42.3443
 1.6860	42.3463
 1.6850	42.2915
 1.6840	42.2252
 1.6830	42.2472
 1.6820	42.1906
 1.6810	42.2114
 1.6800	42.1688
 1.6790	42.1936
 1.6780	42.1044
 1.6770	42.0510
 1.6760	42.0200
 1.6750	42.0128
 1.6740	41.9585
 1.6730	41.9435
 1.6720	41.9107
 1.6710	41.8785
 1.6700	41.8458
 1.6690	41.8905
 1.6680	41.5974
 1.6670	41.8980
 1.6660	41.6893
 1.6650	41.7899
 1.6640	41.7820
 1.6630	41.6445
 1.6620	41.5981
 1.6610	41.5890
 1.6600	41.4868
 1.6590	41.4952
 1.6580	41.4375
 1.6570	41.4948
 1.6560	41.4688
 1.6550	41.4491
 1.6540	41.4185
 1.6530	41.3544
 1.6520	41.2650
 1.6510	41.2741
 1.6500	41.2265
 1.6490	41.2069
 1.6480	41.1105
 1.6470	41.1424
 1.6460	41.1299
 1.6450	41.1307
 1.6440	41.0536
 1.6430	41.0781
 1.6420	40.9883
 1.6410	40.9027
 1.6400	40.9407
 1.6390	40.8970
 1.6380	40.8321
 1.6370	40.8272
 1.6360	40.8148
 1.6350	40.7468
 1.6340	40.6929
 1.6330	40.7467
 1.6320	40.6465
 1.6310	40.6863
 1.6300	40.5874
 1.6290	40.6734
 1.6280	40.5367
 1.6270	40.6177
 1.6260	40.4198
 1.6250	40.4252
 1.6240	40.4235
 1.6230	40.4303
 1.6220	40.3163
 1.6210	40.3780
 1.6200	40.2544
 1.6190	40.2995
 1.6180	40.1779
 1.6170	40.2055
 1.6160	40.1056
 1.6150	40.1744
 1.6140	40.0933
 1.6130	40.0634
 1.6120	40.0101
 1.6110	40.0059
 1.6100	39.9417
 1.6090	39.9564
 1.6080	39.8960
 1.6070	39.9493
 1.6060	39.8206
 1.6050	39.8015
 1.6040	39.7379
 1.6030	39.6966
 1.6020	39.7414
 1.6010	39.7094
 1.6000	39.6130
 1.5990	39.6600
 1.5980	39.5637
 1.5970	39.6337
 1.5960	39.5431
 1.5950	39.5006
 1.5940	39.4140
 1.5930	39.4448
 1.5920	39.3187
 1.5910	39.3564
 1.5900	39.2719
 1.5890	39.2810
 1.5880	39.2405
 1.5870	39.2223
 1.5860	39.1933
 1.5850	39.1624
 1.5840	39.0630
 1.5830	39.0731
 1.5820	38.9756
 1.5810	38.9262
 1.5800	38.8842
 1.5790	38.9477
 1.5780	38.8724
 1.5770	38.8810
 1.5760	38.8640
 1.5750	38.7449
 1.5740	38.7385
 1.5730	38.7520
 1.5720	38.7025
 1.5710	38.7332
 1.5700	38.6139
 1.5690	38.5980
 1.5680	38.5224
 1.5670	38.4691
 1.5660	38.4133
 1.5650	38.4217
 1.5640	38.4089
 1.5630	38.3894
 1.5620	38.3643
 1.5610	38.3484
 1.5600	38.2790
 1.5590	38.2615
 1.5580	38.1986
 1.5570	38.1531
 1.5560	38.1586
 1.5550	38.1247
 1.5540	38.1067
 1.5530	38.0608
 1.5520	37.9766
 1.5510	37.9471
 1.5500	37.9132
 1.5490	37.9032
 1.5480	37.8273
 1.5470	37.8006
 1.5460	37.7815
 1.5450	37.7786
 1.5440	37.7751
 1.5430	37.6962
 1.5420	37.6483
 1.5410	37.6047
 1.5400	37.5429
 1.5390	37.5414
 1.5380	37.5229
 1.5370	37.5025
 1.5360	37.4676
 1.5350	37.4437
 1.5340	37.3320
 1.5330	37.3356
 1.5320	37.2604
 1.5310	37.2559
 1.5300	37.2129
 1.5290	37.1830
 1.5280	37.1637
 1.5270	37.1245
 1.5260	37.0589
 1.5250	37.0448
 1.5240	36.9804
 1.5230	36.9744
 1.5220	36.8946
 1.5210	36.8479
 1.5200	36.8366
 1.5190	36.8504
 1.5180	36.7986
 1.5170	36.7443
 1.5160	36.7073
 1.5150	36.6718
 1.5140	36.6107
 1.5130	36.6189
 1.5120	36.5989
 1.5110	36.5316
 1.5100	36.4521
 1.5090	36.4313
 1.5080	36.4068
 1.5070	36.3561
 1.5060	36.3046
 1.5050	36.2565
 1.5040	36.2307
 1.5030	36.2117
 1.5020	36.1713
 1.5010	36.1217
 1.5000	36.0862
 1.4990	36.0514
 1.4980	35.9932
 1.4970	35.9841
 1.4960	35.9509
 1.4950	35.8805
 1.4940	35.8559
 1.4930	35.8092
 1.4920	35.8550
 1.4910	35.7898
 1.4900	35.7166
 1.4890	35.7096
 1.4880	35.6617
 1.4870	35.6221
 1.4860	35.6123
 1.4850	35.5303
 1.4840	35.4429
 1.4830	35.4320
 1.4820	35.4086
 1.4810	35.3550
 1.4800	35.3509
 1.4790	35.2778
 1.4780	35.2428
 1.4770	35.1851
 1.4760	35.1734
 1.4750	35.1078
 1.4740	35.0811
 1.4730	35.0926
 1.4720	35.0402
 1.4710	34.9372
 1.4700	34.8962
 1.4690	34.9127
 1.4680	34.8795
 1.4670	34.8233
 1.4660	34.8620
 1.4650	34.7627
 1.4640	34.7161
 1.4630	34.6552
 1.4620	34.6494
 1.4610	34.5876
 1.4600	34.5155
 1.4590	34.4927
 1.4580	34.5259
 1.4570	34.4301
 1.4560	34.4112
 1.4550	34.3471
 1.4540	34.3406
 1.4530	34.2654
 1.4520	34.1884
 1.4510	34.1500
 1.4500	34.1747
 1.4490	34.1102
 1.4480	34.0627
 1.4470	34.0391
 1.4460	34.0035
 1.4450	33.9434
 1.4440	33.8961
 1.4430	33.9182
 1.4420	33.8414
 1.4410	33.8337
 1.4400	33.8457
 1.4390	33.7714
 1.4380	33.7266
 1.4370	33.6350
 1.4360	33.6217
 1.4350	33.5195
 1.4340	33.5346
 1.4330	33.4711
 1.4320	33.5026
 1.4310	33.4131
 1.4300	33.3870
 1.4290	33.3386
 1.4280	33.3556
 1.4270	33.2375
 1.4260	33.2495
 1.4250	33.2167
 1.4240	33.1990
 1.4230	33.1529
 1.4220	33.1693
 1.4210	33.0773
 1.4200	33.0103
 1.4190	32.9706
 1.4180	32.9348
 1.4170	32.8726
 1.4160	32.8958
 1.4150	32.8542
 1.4140	32.8104
 1.4130	32.7904
 1.4120	32.8088
 1.4110	32.7308
 1.4100	32.7981
 1.4090	32.6025
 1.4080	32.6802
 1.4070	32.5485
 1.4060	32.5831
 1.4050	32.5867
 1.4040	32.5646
 1.4030	32.5320
 1.4020	32.5598
 1.4010	32.4783
 1.4000	32.4838
 1.3990	32.4138
 1.3980	32.5256
 1.3970	32.3843
 1.3960	32.4053
 1.3950	32.3963
 1.3940	32.3359
 1.3930	32.2699
 1.3920	32.3117
 1.3910	32.2786
 1.3900	32.2355
 1.3890	32.2544
 1.3880	32.2162
 1.3870	32.0752
 1.3860	32.1556
 1.3850	31.9477
 1.3840	32.0416
 1.3830	31.9532
 1.3820	31.9684
 1.3810	31.9278
 1.3800	31.8589
 1.3790	31.8367
 1.3780	31.8604
 1.3770	31.7324
 1.3760	31.7738
 1.3750	31.6606
 1.3740	31.7857
 1.3730	31.5646
 1.3720	31.5980
 1.3710	31.4627
 1.3700	31.5294
 1.3690	31.4536
 1.3680	31.4326
 1.3670	31.3706
 1.3660	31.4249
 1.3650	31.3068
 1.3640	31.2852
 1.3630	31.1815
 1.3620	31.1385
 1.3610	31.0984
 1.3600	31.1954
 1.3590	31.0359
 1.3580	31.1290
 1.3570	31.0255
 1.3560	31.0930
 1.3550	30.8170
 1.3540	31.0554
 1.3530	30.8685
 1.3520	30.8145
 1.3510	30.7470
 1.3500	30.8224
 1.3490	30.6117
 1.3480	30.6787
 1.3470	30.5917
 1.3460	30.6152
 1.3450	30.5326
 1.3440	30.4720
 1.3430	30.4820
 1.3420	30.3935
 1.3410	30.2795
 1.3400	30.3170
 1.3390	30.2377
 1.3380	30.2784
 1.3370	30.1590
 1.3360	30.1198
 1.3350	30.0866
 1.3340	30.1195
 1.3330	29.9776
 1.3320	29.9931
 1.3310	29.9389
 1.3300	29.9287
 1.3290	29.8365
 1.3280	29.8544
 1.3270	29.7675
 1.3260	29.7647
 1.3250	29.6403
 1.3240	29.6836
 1.3230	29.6241
 1.3220	29.6047
 1.3210	29.5059
 1.3200	29.5846
 1.3190	29.5296
 1.3180	29.5202
 1.3170	29.3572
 1.3160	29.3159
 1.3150	29.3292
 1.3140	29.2981
 1.3130	29.2575
 1.3120	29.2203
 1.3110	29.1832
 1.3100	29.0866
 1.3090	29.0603
 1.3080	29.0658
 1.3070	28.9361
 1.3060	28.9683
 1.3050	28.9408
 1.3040	28.8785
 1.3030	28.8579
 1.3020	28.7987
 1.3010	28.7203
 1.3000	28.7172
 1.2990	28.6338
 1.2980	28.6877
 1.2970	28.5619
 1.2960	28.5447
 1.2950	28.5242
 1.2940	28.4860
 1.2930	28.4034
 1.2920	28.4365
 1.2910	28.3401
 1.2900	28.3829
 1.2890	28.2672
 1.2880	28.2446
 1.2870	28.1339
 1.2860	28.1081
 1.2850	28.0836
 1.2840	28.0764
 1.2830	28.0564
 1.2820	27.9641
 1.2810	27.9079
 1.2800	27.9104
 1.2790	27.8414
 1.2780	27.8271
 1.2770	27.7820
 1.2760	27.7374
 1.2750	27.7067
 1.2740	27.7223
 1.2730	27.6047
 1.2720	27.6333
 1.2710	27.5793
 1.2700	27.4996
 1.2690	27.4670
 1.2680	27.4570
 1.2670	27.3968
 1.2660	27.3900
 1.2650	27.3095
 1.2640	27.2835
 1.2630	27.2884
 1.2620	27.2681
 1.2610	27.2018
 1.2600	27.1662
 1.2590	27.0749
 1.2580	27.0697
 1.2570	27.0194
 1.2560	27.0069
 1.2550	27.0010
 1.2540	26.9743
 1.2530	26.9047
 1.2520	26.8465
 1.2510	26.8090
 1.2500	26.8047
 1.2490	26.7420
 1.2480	26.6930
 1.2470	26.6700
 1.2460	26.6452
 1.2450	26.6085
 1.2440	26.5743
 1.2430	26.5429
 1.2420	26.5068
 1.2410	26.4282
 1.2400	26.4650
 1.2390	26.3965
 1.2380	26.3750
 1.2370	26.3662
 1.2360	26.3509
 1.2350	26.2851
 1.2340	26.2113
 1.2330	26.1592
 1.2320	26.1634
 1.2310	26.1231
 1.2300	26.1122
 1.2290	26.0487
 1.2280	26.0186
 1.2270	25.9999
 1.2260	25.9718
 1.2250	25.9852
 1.2240	25.9956
 1.2230	25.9199
 1.2220	25.8442
 1.2210	25.7983
 1.2200	25.7904
 1.2190	25.7779
 1.2180	25.7434
 1.2170	25.6931
 1.2160	25.6855
 1.2150	25.6537
 1.2140	25.6325
 1.2130	25.5817
 1.2120	25.5315
 1.2110	25.5290
 1.2100	25.4532
 1.2090	25.3993
 1.2080	25.4107
 1.2070	25.4260
 1.2060	25.3734
 1.2050	25.3402
 1.2040	25.3416
 1.2030	25.2761
 1.2020	25.2113
 1.2010	25.2584
 1.2000	25.2108
 1.1990	25.1688
 1.1980	25.1307
 1.1970	25.1120
 1.1960	25.0972
 1.1950	25.1076
 1.1940	25.0285
 1.1930	24.9969
 1.1920	24.9270
 1.1910	24.9183
 1.1900	24.8927
 1.1890	24.8927
 1.1880	24.7899
 1.1870	24.8422
 1.1860	24.8427
 1.1850	24.7735
 1.1840	24.7475
 1.1830	24.7228
 1.1820	24.6759
 1.1810	24.6922
 1.1800	24.6351
 1.1790	24.6956
 1.1780	24.6468
 1.1770	24.6199
 1.1760	24.5646
 1.1750	24.5720
 1.1740	24.4894
 1.1730	24.5186
 1.1720	24.4822
 1.1710	24.4445
 1.1700	24.4136
 1.1690	24.4255
 1.1680	24.3829
 1.1670	24.3707
 1.1660	24.3263
 1.1650	24.3112
 1.1640	24.2328
 1.1630	24.2812
 1.1620	24.2111
 1.1610	24.1874
 1.1600	24.1631
 1.1590	24.2234
 1.1580	24.1751
 1.1570	24.1757
 1.1560	24.1056
 1.1550	24.0821
 1.1540	24.0391
 1.1530	24.0289
 1.1520	24.0409
 1.1510	24.0132
 1.1500	23.9572
 1.1490	23.9945
 1.1480	23.9448
 1.1470	23.8853
 1.1460	23.8305
 1.1450	23.9305
 1.1440	23.8444
 1.1430	23.8093
 1.1420	23.7582
 1.1410	23.7413
 1.1400	23.7196
 1.1390	23.7538
 1.1380	23.6472
 1.1370	23.7230
 1.1360	23.6477
 1.1350	23.5967
 1.1340	23.5655
 1.1330	23.6221
 1.1320	23.4984
 1.1310	23.5934
 1.1300	23.4563
 1.1290	23.4717
 1.1280	23.4042
 1.1270	23.4391
 1.1260	23.3660
 1.1250	23.4465
 1.1240	23.4482
 1.1230	23.3980
 1.1220	23.3076
 1.1210	23.2822
 1.1200	23.3026
 1.1190	23.2618
 1.1180	23.2435
 1.1170	23.2331
 1.1160	23.1700
 1.1150	23.1583
 1.1140	23.1493
 1.1130	23.1753
 1.1120	23.2037
 1.1110	23.1800
 1.1100	23.0711
 1.1090	23.1209
 1.1080	23.0114
 1.1070	23.0189
 1.1060	22.9708
 1.1050	23.0433
 1.1040	22.9372
 1.1030	22.9618
 1.1020	22.9011
 1.1010	22.9662
 1.1000	22.8961
 1.0990	22.9386
 1.0980	22.8579
 1.0970	22.7749
 1.0960	22.7980
 1.0950	22.7413
 1.0940	22.7158
 1.0930	22.7791
 1.0920	22.7468
 1.0910	22.7068
 1.0900	22.6315
 1.0890	22.6687
 1.0880	22.6063
 1.0870	22.6248
 1.0860	22.5244
 1.0850	22.5326
 1.0840	22.4934
 1.0830	22.5822
 1.0820	22.3948
 1.0810	22.5393
 1.0800	22.4052
 1.0790	22.3740
 1.0780	22.3160
 1.0770	22.4797
 1.0760	22.3030
 1.0750	22.3674
 1.0740	22.2385
 1.0730	22.2590
 1.0720	22.2112
 1.0710	22.3315
 1.0700	22.0638
 1.0690	22.2644
 1.0680	22.0802
 1.0670	22.1755
 1.0660	22.1459
 1.0650	22.0388
 1.0640	22.1426
 1.0630	22.0272
 1.0620	21.9835
 1.0610	21.9537
 1.0600	21.9692
 1.0590	21.9443
 1.0580	21.8885
 1.0570	21.8977
 1.0560	21.7917
 1.0550	21.7887
 1.0540	21.7251
 1.0530	21.8226
 1.0520	21.6956
 1.0510	21.7757
 1.0500	21.6125
 1.0490	21.7204
 1.0480	21.6240
 1.0470	21.5728
 1.0460	21.6301
 1.0450	21.6107
 1.0440	21.5025
 1.0430	21.5849
 1.0420	21.5034
 1.0410	21.5806
 1.0400	21.5050
 1.0390	21.4122
 1.0380	21.4087
 1.0370	21.3600
 1.0360	21.3167
 1.0350	21.3578
 1.0340	21.2328
 1.0330	21.3185
 1.0320	21.2347
 1.0310	21.2210
 1.0300	21.1654
 1.0290	21.1727
 1.0280	21.1367
 1.0270	21.1331
 1.0260	21.1109
 1.0250	21.0548
 1.0240	21.0073
 1.0230	21.0415
 1.0220	21.0042
 1.0210	21.0419
 1.0200	20.8339
 1.0190	20.9191
 1.0180	20.8564
 1.0170	20.8858
 1.0160	20.8322
 1.0150	20.8008
 1.0140	20.7410
 1.0130	20.8196
 1.0120	20.7085
 1.0110	20.6998
 1.0100	20.7022
 1.0090	20.6718
 1.0080	20.6727
 1.0070	20.6517
 1.0060	20.5837
 1.0050	20.5536
 1.0040	20.5030
 1.0030	20.5610
 1.0020	20.4514
 1.0010	20.5073
 1.0000	20.4569
 0.9990	20.3986
 0.9980	20.3792
 0.9970	20.3612
 0.9960	20.3177
 0.9950	20.3104
 0.9940	20.2476
 0.9930	20.2629
 0.9920	20.2718
 0.9910	20.2526
 0.9900	20.1775
 0.9890	20.2015
 0.9880	20.1423
 0.9870	20.1036
 0.9860	20.0613
 0.9850	20.0910
 0.9840	20.0407
 0.9830	20.0162
 0.9820	19.9796
 0.9810	19.9909
 0.9800	19.9867
 0.9790	19.9759
 0.9780	19.8917
 0.9770	19.9094
 0.9760	19.9084
 0.9750	19.9019
 0.9740	19.8109
 0.9730	19.8321
 0.9720	19.8203
 0.9710	19.8301
 0.9700	19.7289
 0.9690	19.7354
 0.9680	19.7395
 0.9670	19.7634
 0.9660	19.5849
 0.9650	19.6076
 0.9640	19.6825
 0.9630	19.6112
 0.9620	19.5164
 0.9610	19.5616
 0.9600	19.5505
 0.9590	19.5685
 0.9580	19.4917
 0.9570	19.4888
 0.9560	19.4614
 0.9550	19.4347
 0.9540	19.3899
 0.9530	19.4499
 0.9520	19.3907
 0.9510	19.4074
 0.9500	19.4091
 0.9490	19.3593
 0.9480	19.3436
 0.9470	19.3539
 0.9460	19.2824
 0.9450	19.2593
 0.9440	19.2515
 0.9430	19.3058
 0.9420	19.3102
 0.9410	19.2130
 0.9400	19.2195
 0.9390	19.2649
 0.9380	19.1466
 0.9370	19.1026
 0.9360	19.1417
 0.9350	19.1916
 0.9340	19.2026
 0.9330	19.1246
 0.9320	19.0564
 0.9310	19.0647
 0.9300	19.0486
 0.9290	19.0180
 0.9280	19.0052
 0.9270	19.0093
 0.9260	18.9741
 0.9250	18.9240
 0.9240	18.9735
 0.9230	18.9271
 0.9220	18.8894
 0.9210	18.9237
 0.9200	18.8921
 0.9190	18.8147
 0.9180	18.7957
 0.9170	18.8350
 0.9160	18.8454
 0.9150	18.7960
 0.9140	18.7738
 0.9130	18.7803
 0.9120	18.7938
 0.9110	18.7672
 0.9100	18.7406
 0.9090	18.6857
 0.9080	18.6976
 0.9070	18.7070
 0.9060	18.6724
 0.9050	18.6480
 0.9040	18.6551
 0.9030	18.5690
 0.9020	18.5432
 0.9010	18.5108
 0.9000	18.5206
 0.8990	18.5112
 0.8980	18.4685
 0.8970	18.4286
 0.8960	18.4538
 0.8950	18.4338
 0.8940	18.4074
 0.8930	18.3756
 0.8920	18.3947
 0.8910	18.3506
 0.8900	18.4122
 0.8890	18.3503
 0.8880	18.3000
 0.8870	18.2949
 0.8860	18.2377
 0.8850	18.2047
 0.8840	18.2406
 0.8830	18.1430
 0.8820	18.1756
 0.8810	18.1703
 0.8800	18.1471
 0.8790	18.1065
 0.8780	18.0779
 0.8770	18.0426
 0.8760	18.0737
 0.8750	17.9903
 0.8740	17.9893
 0.8730	17.9227
 0.8720	17.8696
 0.8710	17.8616
 0.8700	17.8358
 0.8690	17.8115
 0.8680	17.7615
 0.8670	17.7497
 0.8660	17.7814
 0.8650	17.7971
 0.8640	17.7065
 0.8630	17.6317
 0.8620	17.6511
 0.8610	17.5735
 0.8600	17.8485
 0.8590	17.9103
 0.8580	17.8705
 0.8570	17.8805
 0.8560	17.8421
 0.8550	17.7779
 0.8540	17.7708
 0.8530	17.7427
 0.8520	17.7424
 0.8510	17.7277
 0.8500	17.7131
 0.8490	17.6853
 0.8480	17.6686
 0.8470	17.6367
 0.8460	17.5943
 0.8450	17.5805
 0.8440	17.5561
 0.8430	17.5224
 0.8420	17.5004
 0.8410	17.4672
 0.8400	17.4587
 0.8390	17.4221
 0.8380	17.3912
 0.8370	17.3784
 0.8360	17.3417
 0.8350	17.3169
 0.8340	17.3067
 0.8330	17.2685
 0.8320	17.2394
 0.8310	17.2123
 0.8300	17.1973
 0.8290	17.1647
 0.8280	17.1307
 0.8270	17.1305
 0.8260	17.1043
 0.8250	17.0668
 0.8240	17.0354
 0.8230	17.0026
 0.8220	16.9900
 0.8210	16.9527
 0.8200	16.9479
 0.8190	16.9099
 0.8180	16.8878
 0.8170	16.8694
 0.8160	16.8499
 0.8150	16.8146
 0.8140	16.8037
 0.8130	16.7720
 0.8120	16.7465
 0.8110	16.7376
 0.8100	16.7136
 0.8090	16.6890
 0.8080	16.6530
 0.8070	16.6395
 0.8060	16.6102
 0.8050	16.6011
 0.8040	16.5555
 0.8030	16.5560
 0.8020	16.5072
 0.8010	16.5088
 0.8000	16.4771
 0.7990	16.4481
 0.7980	16.4297
 0.7970	16.4006
 0.7960	16.3726
 0.7950	16.3347
 0.7940	16.3094
 0.7930	16.2981
 0.7920	16.2732
 0.7910	16.2496
 0.7900	16.2352
 0.7890	16.2035
 0.7880	16.1799
 0.7870	16.1704
 0.7860	16.1368
 0.7850	16.1254
 0.7840	16.1009
 0.7830	16.0764
 0.7820	16.0582
 0.7810	16.0325
 0.7800	16.0170
 0.7790	15.9795
 0.7780	15.9664
 0.7770	15.9471
 0.7760	15.9192
 0.7750	15.8985
 0.7740	15.8779
 0.7730	15.8498
 0.7720	15.8230
 0.7710	15.8158
 0.7700	15.7920
 0.7690	15.7718
 0.7680	15.7452
 0.7670	15.7236
 0.7660	15.7032
 0.7650	15.6888
 0.7640	15.6591
 0.7630	15.6360
 0.7620	15.6176
 0.7610	15.5891
 0.7600	15.5820
 0.7590	15.5593
 0.7580	15.5328
 0.7570	15.5234
 0.7560	15.4835
 0.7550	15.4778
 0.7540	15.4615
 0.7530	15.4260
 0.7520	15.4015
 0.7510	15.3856
 0.7500	15.3639
 0.7490	15.3441
 0.7480	15.3166
 0.7470	15.3001
 0.7460	15.2889
 0.7450	15.2564
 0.7440	15.2457
 0.7430	15.2143
 0.7420	15.2025
 0.7410	15.1847
 0.7400	15.1633
 0.7390	15.1443
 0.7380	15.1223
 0.7370	15.0979
 0.7360	15.0805
 0.7350	15.0527
 0.7340	15.0392
 0.7330	15.0207
 0.7320	14.9956
 0.7310	14.9805
 0.7300	14.9640
 0.7290	14.9358
 0.7280	14.9131
 0.7270	14.8998
 0.7260	14.8842
 0.7250	14.8626
 0.7240	14.8374
 0.7230	14.8299
 0.7220	14.8088
 0.7210	14.7927
 0.7200	14.7753
 0.7190	14.7592
 0.7180	14.7328
 0.7170	14.7144
 0.7160	14.6979
 0.7150	14.6795
 0.7140	14.6678
 0.7130	14.6464
 0.7120	14.6350
 0.7110	14.6156
 0.7100	14.6000
 0.7090	14.5868
 0.7080	14.5687
 0.7070	14.5533
 0.7060	14.5400
 0.7050	14.5218
 0.7040	14.5055
 0.7030	14.4926
 0.7020	14.4717
 0.7010	14.4590
 0.7000	14.4409
 0.6990	14.4274
 0.6980	14.4122
 0.6970	14.3912
 0.6960	14.3747
 0.6950	14.3595
 0.6940	14.3420
 0.6930	14.3228
 0.6920	14.3126
 0.6910	14.2960
 0.6900	14.2703
 0.6890	14.2539
 0.6880	14.2334
 0.6870	14.2158
 0.6860	14.1994
 0.6850	14.1850
 0.6840	14.1603
 0.6830	14.1346
 0.6820	14.1093
 0.6810	14.0914
 0.6800	14.0672
 0.6790	14.0378
 0.6780	14.0196
 0.6770	13.9971
 0.6760	13.9760
 0.6750	13.9507
 0.6740	13.9224
 0.6730	13.8971
 0.6720	13.8682
 0.6710	13.8431
 0.6700	13.8175
 0.6690	13.7929
 0.6680	13.7643
 0.6670	13.7372
 0.6660	13.7069
 0.6650	13.6760
 0.6640	13.6475
 0.6630	13.6186
 0.6620	13.5861
 0.6610	13.5542
 0.6600	13.5221
 0.6590	13.4943
 0.6580	13.4623
 0.6570	13.4294
 0.6560	13.3982
 0.6550	13.3669
 0.6540	13.3346
 0.6530	13.3054
 0.6520	13.2723
 0.6510	13.2405
 0.6500	13.2117
 0.6490	13.1786
 0.6480	13.1440
 0.6470	13.1091
 0.6460	13.0770
 0.6450	13.0458
 0.6440	13.0124
 0.6430	12.9781
 0.6420	12.9448
 0.6410	12.9119
 0.6400	12.8801
 0.6390	12.8503
 0.6380	12.8150
 0.6370	12.7814
 0.6360	12.7534
 0.6350	12.7170
 0.6340	12.6772
 0.6330	12.6457
 0.6320	12.6175
 0.6310	12.5851
 0.6300	12.5509
 0.6290	12.5193
 0.6280	12.4867
 0.6270	12.4541
 0.6260	12.4223
 0.6250	12.3865
 0.6240	12.3524
 0.6230	12.3230
 0.6220	12.2913
 0.6210	12.2579
 0.6200	12.2258
 0.6190	12.1956
 0.6180	12.1619
 0.6170	12.1281
 0.6160	12.0962
 0.6150	12.0643
 0.6140	12.0303
 0.6130	11.9991
 0.6120	11.9662
 0.6110	11.9339
 0.6100	11.9009
 0.6090	11.8689
 0.6080	11.8363
 0.6070	11.8021
 0.6060	11.7701
 0.6050	11.7384
 0.6040	11.7037
 0.6030	11.6712
 0.6020	11.6371
 0.6010	11.6028
 0.6000	11.5695
 0.5990	11.5390
 0.5980	11.5063
 0.5970	11.4752
 0.5960	11.4476
 0.5950	11.4151
 0.5940	11.3811
 0.5930	11.3444
 0.5920	11.3059
 0.5910	11.2725
 0.5900	11.2382
 0.5890	11.2040
 0.5880	11.1681
 0.5870	11.1327
 0.5860	11.0957
 0.5850	11.0605
 0.5840	11.0245
 0.5830	10.9846
 0.5820	10.9481
 0.5810	10.9124
 0.5800	10.8736
 0.5790	10.8354
 0.5780	10.7966
 0.5770	10.7565
 0.5760	10.7177
 0.5750	10.6752
 0.5740	10.6344
 0.5730	10.5973
 0.5720	10.5541
 0.5710	10.5104
 0.5700	10.4668
 0.5690	10.4266
 0.5680	10.3841
 0.5670	10.3411
 0.5660	10.2955
 0.5650	10.2497
 0.5640	10.2065
 0.5630	10.1587
 0.5620	10.1087
 0.5610	10.0761
 0.5600	10.0355
 0.5590	 9.9920
 0.5580	 9.9449
 0.5570	 9.8965
 0.5560	 9.8517
 0.5550	 9.8057
 0.5540	 9.7553
 0.5530	 9.7061
 0.5520	 9.6585
 0.5510	 9.6109
 0.5500	 9.5670
 0.5490	 9.5194
 0.5480	 9.4722
 0.5470	 9.4238
 0.5460	 9.3766
 0.5450	 9.3267
 0.5440	 9.2782
 0.5430	 9.2290
 0.5420	 9.1775
 0.5410	 9.1282
 0.5400	 9.0784
 0.5390	 9.0313
 0.5380	 8.9805
 0.5370	 8.9304
 0.5360	 8.8836
 0.5350	 8.8322
 0.5340	 8.7843
 0.5330	 8.7329
 0.5320	 8.6847
 0.5310	 8.6324
 0.5300	 8.5983
 0.5290	 8.5517
 0.5280	 8.5025
 0.5270	 8.4534
 0.5260	 8.4075
 0.5250	 8.3559
 0.5240	 8.3066
 0.5230	 8.2615
 0.5220	 8.2139
 0.5210	 8.1663
 0.5200	 8.1179
 0.5190	 8.0739
 0.5180	 8.0290
 0.5170	 7.9784
 0.5160	 7.9354
 0.5150	 7.8909
 0.5140	 7.8456
 0.5130	 7.8001
 0.5120	 7.7582
 0.5110	 7.7132
 0.5100	 7.6723
 0.5090	 7.6333
 0.5080	 7.5890
 0.5070	 7.5464
 0.5060	 7.5076
 0.5050	 7.4707
 0.5040	 7.4315
 0.5030	 7.3897
 0.5020	 7.3490
 0.5010	 7.3100
 0.5000	 7.2726
 0.4990	 7.2352
 0.4980	 7.1955
 0.4970	 7.1595
 0.4960	 7.1206
 0.4950	 7.0834
 0.4940	 7.0486
 0.4930	 7.0068
 0.4920	 6.9717
 0.4910	 6.9384
 0.4900	 6.9020
 0.4890	 6.8667
 0.4880	 6.8319
 0.4870	 6.7997
 0.4860	 6.7647
 0.4850	 6.7350
 0.4840	 6.7020
 0.4830	 6.6667
 0.4820	 6.6276
 0.4810	 6.5889
 0.4800	 6.5458
 0.4790	 6.5060
 0.4780	 6.4687
 0.4770	 6.4268
 0.4760	 6.3927
 0.4750	 6.3590
 0.4740	 6.3254
 0.4730	 6.2940
 0.4720	 6.2577
 0.4710	 6.2223
 0.4700	 6.1888
 0.4690	 6.1579
 0.4680	 6.1247
 0.4670	 6.0931
 0.4660	 6.0588
 0.4650	 6.0307
 0.4640	 6.0022
 0.4630	 5.9693
 0.4620	 5.9349
 0.4610	 5.9058
 0.4600	 5.8798
 0.4590	 5.8500
 0.4580	 5.8209
 0.4570	 5.7907
 0.4560	 5.7652
 0.4550	 5.7381
 0.4540	 5.7088
 0.4530	 5.6830
 0.4520	 5.6591
 0.4510	 5.6336
 0.4500	 5.6065
 0.4490	 5.5829
 0.4480	 5.5613
 0.4470	 5.5349
 0.4460	 5.5103
 0.4450	 5.4851
 0.4440	 5.4612
 0.4430	 5.4353
 0.4420	 5.4094
 0.4410	 5.3840
 0.4400	 5.3545
 0.4390	 5.3287
 0.4380	 5.3089
 0.4370	 5.2795
 0.4360	 5.2513
 0.4350	 5.2288
 0.4340	 5.2036
 0.4330	 5.1742
 0.4320	 5.1495
 0.4310	 5.1258
 0.4300	 5.0982
 0.4290	 5.0722
 0.4280	 5.0483
 0.4270	 5.0203
 0.4260	 4.9964
 0.4250	 4.9701
 0.4240	 4.9436
 0.4230	 4.9198
 0.4220	 4.8986
 0.4210	 4.8756
 0.4200	 4.8497
 0.4190	 4.8286
 0.4180	 4.8088
 0.4170	 4.7855
 0.4160	 4.7681
 0.4150	 4.7486
 0.4140	 4.7284
 0.4130	 4.7060
 0.4120	 4.6850
 0.4110	 4.6646
 0.4100	 4.6452
 0.4090	 4.6259
 0.4080	 4.6080
 0.4070	 4.5902
 0.4060	 4.5815
 0.4050	 4.5648
 0.4040	 4.5498
 0.4030	 4.5311
 0.4020	 4.5131
 0.4010	 4.4966
 0.4000	 4.4795
