Name: Enstatite Mg_2(SiO_3)_2
Type: Mineral
Class: Silicate
Subclass: Inosilicate
Particle Size: Medium
Sample No.: IN-10B
Owner: JPL
Wavelength Range: VSWIR
Origin: Norway, Telemark.
Collection Date: N/A
Description: Particle size was 45-125um.Collected by:  Burminco Original ASTER Spectral Library name was jpl.perkin.mineral.silicate.inosilicate.medium.in10b.spectrum.txt
Measurement: Hemispherical reflectance
First Column: X
Second Column: Y
X Units: Wavelength (micrometers)
Y Units:Reflectance (percent)
First X Value:  2.5000
Last X Value:  0.4000
Number of X Values: 2101
Additional Information: mineral.silicate.inosilicate.medium.vswir.in-10b.jpl.perkin.ancillary.txt

 2.5000	36.5812
 2.4990	36.3914
 2.4980	36.2861
 2.4970	36.5315
 2.4960	36.1383
 2.4950	36.4344
 2.4940	36.3190
 2.4930	36.1858
 2.4920	36.2968
 2.4910	36.2109
 2.4900	36.1276
 2.4890	36.4078
 2.4880	36.1137
 2.4870	36.3135
 2.4860	36.1703
 2.4850	36.2748
 2.4840	35.9418
 2.4830	36.1735
 2.4820	36.0109
 2.4810	36.2269
 2.4800	36.0779
 2.4790	36.1386
 2.4780	36.1296
 2.4770	36.1293
 2.4760	35.9739
 2.4750	36.1002
 2.4740	35.8448
 2.4730	35.9429
 2.4720	35.9054
 2.4710	35.9431
 2.4700	35.8173
 2.4690	35.9408
 2.4680	35.7904
 2.4670	35.9583
 2.4660	35.8944
 2.4650	35.7578
 2.4640	35.7742
 2.4630	35.9163
 2.4620	35.7900
 2.4610	35.7528
 2.4600	35.5941
 2.4590	35.7548
 2.4580	35.6361
 2.4570	35.7175
 2.4560	35.6753
 2.4550	35.7635
 2.4540	35.5900
 2.4530	35.6152
 2.4520	35.5486
 2.4510	35.6538
 2.4500	35.5889
 2.4490	35.6531
 2.4480	35.4918
 2.4470	35.6797
 2.4460	35.4966
 2.4450	35.6120
 2.4440	35.5213
 2.4430	35.4990
 2.4420	35.4438
 2.4410	35.4525
 2.4400	35.5688
 2.4390	35.5110
 2.4380	35.3843
 2.4370	35.4659
 2.4360	35.3952
 2.4350	35.4916
 2.4340	35.4211
 2.4330	35.4176
 2.4320	35.2850
 2.4310	35.4660
 2.4300	35.4136
 2.4290	35.4242
 2.4280	35.3606
 2.4270	35.3568
 2.4260	35.2603
 2.4250	35.2651
 2.4240	35.1822
 2.4230	35.2922
 2.4220	35.2429
 2.4210	35.2556
 2.4200	35.1953
 2.4190	35.1822
 2.4180	35.1617
 2.4170	35.1496
 2.4160	35.0942
 2.4150	35.1547
 2.4140	35.0716
 2.4130	35.0489
 2.4120	35.0167
 2.4110	35.0442
 2.4100	34.9478
 2.4090	34.9483
 2.4080	34.8952
 2.4070	34.9373
 2.4060	34.7564
 2.4050	34.8455
 2.4040	34.8055
 2.4030	34.7864
 2.4020	34.6968
 2.4010	34.6538
 2.4000	34.6059
 2.3990	34.6378
 2.3980	34.5711
 2.3970	34.5354
 2.3960	34.5054
 2.3950	34.4990
 2.3940	34.4192
 2.3930	34.3879
 2.3920	34.3233
 2.3910	34.2927
 2.3900	34.2489
 2.3890	34.3066
 2.3880	34.2659
 2.3870	34.2368
 2.3860	34.1552
 2.3850	34.2278
 2.3840	34.1629
 2.3830	34.1910
 2.3820	34.2089
 2.3810	34.1913
 2.3800	34.1382
 2.3790	34.1670
 2.3780	34.2197
 2.3770	34.2367
 2.3760	34.2294
 2.3750	34.2318
 2.3740	34.2767
 2.3730	34.2865
 2.3720	34.2855
 2.3710	34.3408
 2.3700	34.3615
 2.3690	34.3565
 2.3680	34.3624
 2.3670	34.3462
 2.3660	34.3706
 2.3650	34.4015
 2.3640	34.3947
 2.3630	34.4434
 2.3620	34.4645
 2.3610	34.4347
 2.3600	34.4216
 2.3590	34.4596
 2.3580	34.4417
 2.3570	34.3981
 2.3560	34.3747
 2.3550	34.3672
 2.3540	34.3959
 2.3530	34.3613
 2.3520	34.3881
 2.3510	34.4000
 2.3500	34.3465
 2.3490	34.2988
 2.3480	34.3058
 2.3470	34.3013
 2.3460	34.2194
 2.3450	34.2423
 2.3440	34.2511
 2.3430	34.1780
 2.3420	34.1611
 2.3410	34.1159
 2.3400	34.0959
 2.3390	34.0723
 2.3380	34.0200
 2.3370	33.9783
 2.3360	33.9354
 2.3350	33.8861
 2.3340	33.8595
 2.3330	33.7730
 2.3320	33.7256
 2.3310	33.6416
 2.3300	33.5634
 2.3290	33.4858
 2.3280	33.4500
 2.3270	33.3701
 2.3260	33.2962
 2.3250	33.2083
 2.3240	33.1164
 2.3230	33.0144
 2.3220	32.9860
 2.3210	32.8287
 2.3200	32.7512
 2.3190	32.6559
 2.3180	32.6145
 2.3170	32.4852
 2.3160	32.3750
 2.3150	32.2790
 2.3140	32.1994
 2.3130	32.1674
 2.3120	32.0940
 2.3110	32.0069
 2.3100	31.9556
 2.3090	31.9472
 2.3080	31.9253
 2.3070	31.9039
 2.3060	31.8343
 2.3050	31.8153
 2.3040	31.8841
 2.3030	31.8100
 2.3020	31.8400
 2.3010	31.8552
 2.3000	31.9049
 2.2990	31.8629
 2.2980	31.8723
 2.2970	31.9210
 2.2960	31.9064
 2.2950	31.8910
 2.2940	31.9800
 2.2930	31.9632
 2.2920	31.9992
 2.2910	31.9841
 2.2900	32.0451
 2.2890	32.0350
 2.2880	32.1206
 2.2870	32.0242
 2.2860	32.1163
 2.2850	32.0763
 2.2840	32.1151
 2.2830	32.1611
 2.2820	32.2351
 2.2810	32.2322
 2.2800	32.2698
 2.2790	32.2134
 2.2780	32.2790
 2.2770	32.2335
 2.2760	32.2904
 2.2750	32.2701
 2.2740	32.2622
 2.2730	32.2210
 2.2720	32.2661
 2.2710	32.2069
 2.2700	32.2596
 2.2690	32.2205
 2.2680	32.1795
 2.2670	32.1454
 2.2660	32.2353
 2.2650	32.1980
 2.2640	32.1668
 2.2630	32.1299
 2.2620	32.1588
 2.2610	32.0812
 2.2600	32.0803
 2.2590	32.0375
 2.2580	32.1329
 2.2570	32.0526
 2.2560	32.0493
 2.2550	32.0673
 2.2540	32.0487
 2.2530	32.0029
 2.2520	31.9877
 2.2510	31.9736
 2.2500	31.9644
 2.2490	31.8400
 2.2480	31.8718
 2.2470	31.8156
 2.2460	31.8221
 2.2450	31.7070
 2.2440	31.7857
 2.2430	31.6618
 2.2420	31.7457
 2.2410	31.6257
 2.2400	31.6931
 2.2390	31.5010
 2.2380	31.4988
 2.2370	31.4892
 2.2360	31.4863
 2.2350	31.4333
 2.2340	31.4362
 2.2330	31.2688
 2.2320	31.4253
 2.2310	31.2905
 2.2300	31.2764
 2.2290	31.2023
 2.2280	31.1782
 2.2270	31.1240
 2.2260	31.1887
 2.2250	31.0480
 2.2240	31.0837
 2.2230	30.9756
 2.2220	31.0193
 2.2210	30.8667
 2.2200	30.9702
 2.2190	30.8240
 2.2180	30.8568
 2.2170	30.7405
 2.2160	30.7991
 2.2150	30.6651
 2.2140	30.7283
 2.2130	30.6245
 2.2120	30.7260
 2.2110	30.5087
 2.2100	30.5888
 2.2090	30.4665
 2.2080	30.4865
 2.2070	30.3767
 2.2060	30.5093
 2.2050	30.3244
 2.2040	30.3769
 2.2030	30.2709
 2.2020	30.2928
 2.2010	30.2100
 2.2000	30.1772
 2.1990	30.1139
 2.1980	30.1788
 2.1970	29.9916
 2.1960	30.0637
 2.1950	29.8502
 2.1940	29.9465
 2.1930	29.7789
 2.1920	29.8294
 2.1910	29.7409
 2.1900	29.7852
 2.1890	29.6661
 2.1880	29.6714
 2.1870	29.5027
 2.1860	29.5263
 2.1850	29.4359
 2.1840	29.4948
 2.1830	29.3112
 2.1820	29.3450
 2.1810	29.2632
 2.1800	29.2788
 2.1790	29.2226
 2.1780	29.1800
 2.1770	29.1268
 2.1760	29.0615
 2.1750	28.9313
 2.1740	28.9453
 2.1730	28.8535
 2.1720	28.8850
 2.1710	28.7493
 2.1700	28.7739
 2.1690	28.6395
 2.1680	28.7324
 2.1670	28.6459
 2.1660	28.5945
 2.1650	28.5159
 2.1640	28.5530
 2.1630	28.3592
 2.1620	28.3771
 2.1610	28.3448
 2.1600	28.2889
 2.1590	28.2039
 2.1580	28.2068
 2.1570	28.1085
 2.1560	28.1355
 2.1550	28.0152
 2.1540	27.9815
 2.1530	27.8799
 2.1520	27.9083
 2.1510	27.7978
 2.1500	27.7926
 2.1490	27.6836
 2.1480	27.6919
 2.1470	27.5689
 2.1460	27.5775
 2.1450	27.4328
 2.1440	27.4690
 2.1430	27.3163
 2.1420	27.3253
 2.1410	27.1887
 2.1400	27.1200
 2.1390	27.0713
 2.1380	27.0089
 2.1370	26.9327
 2.1360	26.9193
 2.1350	26.7188
 2.1340	26.7676
 2.1330	26.7325
 2.1320	26.6782
 2.1310	26.5102
 2.1300	26.5324
 2.1290	26.4305
 2.1280	26.4285
 2.1270	26.3193
 2.1260	26.1736
 2.1250	26.1516
 2.1240	26.0903
 2.1230	25.9536
 2.1220	25.9280
 2.1210	25.8114
 2.1200	25.7983
 2.1190	25.7467
 2.1180	25.6464
 2.1170	25.5411
 2.1160	25.5899
 2.1150	25.4807
 2.1140	25.3927
 2.1130	25.2583
 2.1120	25.2383
 2.1110	25.1781
 2.1100	25.1513
 2.1090	24.9584
 2.1080	24.9404
 2.1070	24.8929
 2.1060	24.8164
 2.1050	24.7508
 2.1040	24.6909
 2.1030	24.6011
 2.1020	24.5324
 2.1010	24.4704
 2.1000	24.4395
 2.0990	24.3567
 2.0980	24.3156
 2.0970	24.2358
 2.0960	24.2062
 2.0950	24.1183
 2.0940	24.0781
 2.0930	23.9803
 2.0920	23.9654
 2.0910	23.9150
 2.0900	23.8464
 2.0890	23.7962
 2.0880	23.8026
 2.0870	23.6935
 2.0860	23.6223
 2.0850	23.5979
 2.0840	23.5726
 2.0830	23.4914
 2.0820	23.4389
 2.0810	23.3789
 2.0800	23.3441
 2.0790	23.2658
 2.0780	23.2203
 2.0770	23.1515
 2.0760	23.1263
 2.0750	23.0915
 2.0740	23.0140
 2.0730	22.9399
 2.0720	22.9006
 2.0710	22.8598
 2.0700	22.8458
 2.0690	22.7820
 2.0680	22.7168
 2.0670	22.6610
 2.0660	22.5827
 2.0650	22.5212
 2.0640	22.4803
 2.0630	22.4443
 2.0620	22.3995
 2.0610	22.3055
 2.0600	22.2043
 2.0590	22.2093
 2.0580	22.1601
 2.0570	22.1282
 2.0560	22.0572
 2.0550	22.0180
 2.0540	21.9610
 2.0530	21.9389
 2.0520	21.8800
 2.0510	21.8126
 2.0500	21.7601
 2.0490	21.7193
 2.0480	21.6344
 2.0470	21.6315
 2.0460	21.5736
 2.0450	21.5569
 2.0440	21.4771
 2.0430	21.4328
 2.0420	21.4336
 2.0410	21.3664
 2.0400	21.2517
 2.0390	21.2792
 2.0380	21.1852
 2.0370	21.1163
 2.0360	21.0891
 2.0350	21.0679
 2.0340	21.0004
 2.0330	21.0143
 2.0320	20.9252
 2.0310	20.8634
 2.0300	20.7476
 2.0290	20.7720
 2.0280	20.7334
 2.0270	20.6851
 2.0260	20.6159
 2.0250	20.5863
 2.0240	20.4970
 2.0230	20.5188
 2.0220	20.4390
 2.0210	20.3914
 2.0200	20.3307
 2.0190	20.3178
 2.0180	20.2132
 2.0170	20.2550
 2.0160	20.1849
 2.0150	20.1354
 2.0140	20.0851
 2.0130	20.0777
 2.0120	19.9814
 2.0110	19.9717
 2.0100	19.9247
 2.0090	19.8634
 2.0080	19.8134
 2.0070	19.8088
 2.0060	19.6915
 2.0050	19.7500
 2.0040	19.6525
 2.0030	19.6878
 2.0020	19.5254
 2.0010	19.5473
 2.0000	19.5098
 1.9990	19.4802
 1.9980	19.4069
 1.9970	19.3936
 1.9960	19.3158
 1.9950	19.3314
 1.9940	19.2314
 1.9930	19.2105
 1.9920	19.1729
 1.9910	19.1612
 1.9900	19.0974
 1.9890	19.0110
 1.9880	18.9978
 1.9870	19.0294
 1.9860	18.9213
 1.9850	18.9570
 1.9840	18.7934
 1.9830	18.8497
 1.9820	18.6955
 1.9810	18.7844
 1.9800	18.7109
 1.9790	18.7030
 1.9780	18.6595
 1.9770	18.6535
 1.9760	18.4923
 1.9750	18.5353
 1.9740	18.5003
 1.9730	18.4467
 1.9720	18.4017
 1.9710	18.4202
 1.9700	18.2660
 1.9690	18.3643
 1.9680	18.2386
 1.9670	18.3477
 1.9660	18.1869
 1.9650	18.2121
 1.9640	18.1147
 1.9630	18.2210
 1.9620	18.1113
 1.9610	18.1499
 1.9600	18.0010
 1.9590	18.1736
 1.9580	17.9685
 1.9570	17.9633
 1.9560	17.9123
 1.9550	18.0211
 1.9540	17.8044
 1.9530	17.9456
 1.9520	17.7778
 1.9510	17.8370
 1.9500	17.7519
 1.9490	17.8091
 1.9480	17.6730
 1.9470	17.6879
 1.9460	17.6310
 1.9450	17.7043
 1.9440	17.6215
 1.9430	17.7146
 1.9420	17.5508
 1.9410	17.5504
 1.9400	17.5016
 1.9390	17.5456
 1.9380	17.3842
 1.9370	17.5175
 1.9360	17.4103
 1.9350	17.4541
 1.9340	17.4329
 1.9330	17.3837
 1.9320	17.2317
 1.9310	17.3942
 1.9300	17.1880
 1.9290	17.3774
 1.9280	17.2862
 1.9270	17.3890
 1.9260	17.0652
 1.9250	17.3095
 1.9240	16.9986
 1.9230	17.2354
 1.9220	17.1325
 1.9210	17.1505
 1.9200	17.0680
 1.9190	17.2587
 1.9180	17.0440
 1.9170	17.1586
 1.9160	17.1185
 1.9150	17.1886
 1.9140	17.0988
 1.9130	17.0359
 1.9120	16.9728
 1.9110	17.1239
 1.9100	16.9886
 1.9090	17.0592
 1.9080	17.0602
 1.9070	16.9959
 1.9060	16.9654
 1.9050	17.0123
 1.9040	16.8960
 1.9030	17.0026
 1.9020	16.9389
 1.9010	17.0454
 1.9000	16.8903
 1.8990	17.0077
 1.8980	16.9105
 1.8970	17.0038
 1.8960	16.9277
 1.8950	17.0362
 1.8940	16.9249
 1.8930	17.0095
 1.8920	16.9075
 1.8910	16.9409
 1.8900	16.9526
 1.8890	16.9982
 1.8880	16.9313
 1.8870	16.9041
 1.8860	16.9502
 1.8850	16.9834
 1.8840	16.9496
 1.8830	16.9846
 1.8820	16.8930
 1.8810	17.0670
 1.8800	16.9169
 1.8790	16.9795
 1.8780	16.9536
 1.8770	16.9166
 1.8760	16.8847
 1.8750	16.9198
 1.8740	16.8506
 1.8730	16.9484
 1.8720	16.8003
 1.8710	16.8728
 1.8700	16.8788
 1.8690	16.9029
 1.8680	16.9099
 1.8670	16.9532
 1.8660	16.9314
 1.8650	16.9399
 1.8640	16.9006
 1.8630	16.9804
 1.8620	16.9183
 1.8610	16.8850
 1.8600	16.9895
 1.8590	17.0138
 1.8580	16.9061
 1.8570	16.9428
 1.8560	16.9456
 1.8550	17.0095
 1.8540	16.9608
 1.8530	16.9686
 1.8520	16.9899
 1.8510	16.9890
 1.8500	16.9254
 1.8490	17.0022
 1.8480	16.9547
 1.8470	16.9889
 1.8460	16.9957
 1.8450	17.0426
 1.8440	16.9899
 1.8430	17.0908
 1.8420	16.9826
 1.8410	17.0160
 1.8400	16.9847
 1.8390	17.0040
 1.8380	16.9977
 1.8370	17.0414
 1.8360	16.9697
 1.8350	17.1065
 1.8340	17.1026
 1.8330	17.1604
 1.8320	17.1413
 1.8310	17.1816
 1.8300	17.1000
 1.8290	17.1113
 1.8280	17.1077
 1.8270	17.1906
 1.8260	17.1887
 1.8250	17.2420
 1.8240	17.2264
 1.8230	17.2568
 1.8220	17.2315
 1.8210	17.2295
 1.8200	17.2558
 1.8190	17.2705
 1.8180	17.2529
 1.8170	17.2815
 1.8160	17.2661
 1.8150	17.3273
 1.8140	17.3802
 1.8130	17.4163
 1.8120	17.3957
 1.8110	17.4134
 1.8100	17.4098
 1.8090	17.4162
 1.8080	17.4624
 1.8070	17.4934
 1.8060	17.4944
 1.8050	17.5424
 1.8040	17.5299
 1.8030	17.5438
 1.8020	17.5435
 1.8010	17.5937
 1.8000	17.6351
 1.7990	17.6169
 1.7980	17.5999
 1.7970	17.6594
 1.7960	17.6907
 1.7950	17.7387
 1.7940	17.7249
 1.7930	17.7291
 1.7920	17.7322
 1.7910	17.7170
 1.7900	17.7561
 1.7890	17.7912
 1.7880	17.8241
 1.7870	17.8665
 1.7860	17.9052
 1.7850	17.8735
 1.7840	17.8925
 1.7830	17.9673
 1.7820	17.9923
 1.7810	17.9752
 1.7800	17.9807
 1.7790	18.0097
 1.7780	18.0447
 1.7770	18.0585
 1.7760	18.0429
 1.7750	18.0475
 1.7740	18.1119
 1.7730	18.1805
 1.7720	18.2310
 1.7710	18.2217
 1.7700	18.2524
 1.7690	18.2700
 1.7680	18.3046
 1.7670	18.3149
 1.7660	18.3563
 1.7650	18.4018
 1.7640	18.4422
 1.7630	18.4327
 1.7620	18.4804
 1.7610	18.5022
 1.7600	18.5633
 1.7590	18.5543
 1.7580	18.5884
 1.7570	18.6250
 1.7560	18.6754
 1.7550	18.7009
 1.7540	18.7199
 1.7530	18.7255
 1.7520	18.7377
 1.7510	18.8107
 1.7500	18.8729
 1.7490	18.8305
 1.7480	18.9038
 1.7470	18.9268
 1.7460	18.9536
 1.7450	18.9790
 1.7440	19.0928
 1.7430	19.0633
 1.7420	19.1881
 1.7410	19.1642
 1.7400	19.2106
 1.7390	19.2081
 1.7380	19.2631
 1.7370	19.2516
 1.7360	19.3466
 1.7350	19.3543
 1.7340	19.4569
 1.7330	19.4787
 1.7320	19.5381
 1.7310	19.4983
 1.7300	19.5894
 1.7290	19.6218
 1.7280	19.6423
 1.7270	19.7034
 1.7260	19.7594
 1.7250	19.7804
 1.7240	19.8863
 1.7230	19.8279
 1.7220	19.9501
 1.7210	19.9433
 1.7200	19.9992
 1.7190	19.9964
 1.7180	20.1012
 1.7170	20.1013
 1.7160	20.2184
 1.7150	20.1685
 1.7140	20.2716
 1.7130	20.2512
 1.7120	20.3603
 1.7110	20.3393
 1.7100	20.4887
 1.7090	20.4188
 1.7080	20.5243
 1.7070	20.5867
 1.7060	20.6231
 1.7050	20.6044
 1.7040	20.7514
 1.7030	20.7645
 1.7020	20.7959
 1.7010	20.8866
 1.7000	20.8993
 1.6990	20.9463
 1.6980	20.9906
 1.6970	21.0598
 1.6960	21.0868
 1.6950	21.0578
 1.6940	21.2044
 1.6930	21.1910
 1.6920	21.3159
 1.6910	21.3517
 1.6900	21.4339
 1.6890	21.4730
 1.6880	21.5343
 1.6870	21.5031
 1.6860	21.6276
 1.6850	21.5648
 1.6840	21.8028
 1.6830	21.7678
 1.6820	21.8749
 1.6810	21.8439
 1.6800	21.8816
 1.6790	21.9836
 1.6780	22.0345
 1.6770	22.1236
 1.6760	22.2090
 1.6750	22.1548
 1.6740	22.3155
 1.6730	22.2659
 1.6720	22.4056
 1.6710	22.4222
 1.6700	22.5507
 1.6690	22.7310
 1.6680	22.5295
 1.6670	22.6997
 1.6660	22.6847
 1.6650	22.6742
 1.6640	22.9591
 1.6630	22.8689
 1.6620	23.0097
 1.6610	23.0000
 1.6600	23.1798
 1.6590	23.1863
 1.6580	23.2011
 1.6570	23.2655
 1.6560	23.4120
 1.6550	23.4627
 1.6540	23.5701
 1.6530	23.5203
 1.6520	23.6438
 1.6510	23.5907
 1.6500	23.8151
 1.6490	23.7109
 1.6480	23.9320
 1.6470	23.8626
 1.6460	24.0797
 1.6450	23.9581
 1.6440	24.1622
 1.6430	24.0669
 1.6420	24.3496
 1.6410	24.1903
 1.6400	24.3973
 1.6390	24.3562
 1.6380	24.5083
 1.6370	24.6137
 1.6360	24.6467
 1.6350	24.6519
 1.6340	24.8406
 1.6330	24.8065
 1.6320	24.9512
 1.6310	25.0090
 1.6300	25.0779
 1.6290	25.1483
 1.6280	25.2306
 1.6270	25.2156
 1.6260	25.4266
 1.6250	25.3124
 1.6240	25.5274
 1.6230	25.5431
 1.6220	25.6937
 1.6210	25.6869
 1.6200	25.7271
 1.6190	25.8255
 1.6180	25.9169
 1.6170	25.9353
 1.6160	26.0516
 1.6150	26.1258
 1.6140	26.1350
 1.6130	26.2428
 1.6120	26.4073
 1.6110	26.3925
 1.6100	26.4536
 1.6090	26.5222
 1.6080	26.5975
 1.6070	26.5856
 1.6060	26.7718
 1.6050	26.8030
 1.6040	26.8740
 1.6030	27.0014
 1.6020	27.1425
 1.6010	27.1287
 1.6000	27.2785
 1.5990	27.2371
 1.5980	27.3701
 1.5970	27.3865
 1.5960	27.6008
 1.5950	27.5274
 1.5940	27.6848
 1.5930	27.7156
 1.5920	27.8963
 1.5910	27.9369
 1.5900	28.0096
 1.5890	28.0505
 1.5880	28.1787
 1.5870	28.2030
 1.5860	28.4329
 1.5850	28.3709
 1.5840	28.5512
 1.5830	28.5548
 1.5820	28.7079
 1.5810	28.7377
 1.5800	28.8235
 1.5790	28.9488
 1.5780	29.0113
 1.5770	28.9907
 1.5760	29.1277
 1.5750	29.2532
 1.5740	29.3822
 1.5730	29.3535
 1.5720	29.5229
 1.5710	29.5538
 1.5700	29.6956
 1.5690	29.6877
 1.5680	29.8383
 1.5670	29.9021
 1.5660	30.0077
 1.5650	30.0741
 1.5640	30.1704
 1.5630	30.1948
 1.5620	30.3308
 1.5610	30.3742
 1.5600	30.5170
 1.5590	30.5786
 1.5580	30.6728
 1.5570	30.7630
 1.5560	30.8608
 1.5550	30.8846
 1.5540	31.0075
 1.5530	31.0404
 1.5520	31.1978
 1.5510	31.3023
 1.5500	31.3825
 1.5490	31.4643
 1.5480	31.5596
 1.5470	31.5505
 1.5460	31.6914
 1.5450	31.7849
 1.5440	31.9049
 1.5430	31.9611
 1.5420	32.0635
 1.5410	32.1162
 1.5400	32.2228
 1.5390	32.3003
 1.5380	32.3515
 1.5370	32.4341
 1.5360	32.6373
 1.5350	32.7029
 1.5340	32.7480
 1.5330	32.8295
 1.5320	32.9526
 1.5310	33.0315
 1.5300	33.0861
 1.5290	33.1299
 1.5280	33.2718
 1.5270	33.3506
 1.5260	33.4583
 1.5250	33.5468
 1.5240	33.5855
 1.5230	33.7037
 1.5220	33.8038
 1.5210	33.8868
 1.5200	34.0089
 1.5190	34.0897
 1.5180	34.1299
 1.5170	34.2112
 1.5160	34.3420
 1.5150	34.4137
 1.5140	34.5003
 1.5130	34.5740
 1.5120	34.6848
 1.5110	34.7368
 1.5100	34.8055
 1.5090	34.9091
 1.5080	34.9914
 1.5070	35.0990
 1.5060	35.1852
 1.5050	35.3153
 1.5040	35.4302
 1.5030	35.4458
 1.5020	35.5191
 1.5010	35.6213
 1.5000	35.7026
 1.4990	35.7942
 1.4980	35.8745
 1.4970	35.9633
 1.4960	36.0403
 1.4950	36.1287
 1.4940	36.2519
 1.4930	36.3518
 1.4920	36.3884
 1.4910	36.5156
 1.4900	36.6278
 1.4890	36.6678
 1.4880	36.7635
 1.4870	36.8323
 1.4860	36.8853
 1.4850	36.9924
 1.4840	37.0716
 1.4830	37.1345
 1.4820	37.1997
 1.4810	37.3217
 1.4800	37.4043
 1.4790	37.5012
 1.4780	37.5359
 1.4770	37.6304
 1.4760	37.6643
 1.4750	37.7561
 1.4740	37.8913
 1.4730	38.0072
 1.4720	38.0658
 1.4710	38.1128
 1.4700	38.1570
 1.4690	38.2545
 1.4680	38.3512
 1.4670	38.4551
 1.4660	38.5441
 1.4650	38.6305
 1.4640	38.7112
 1.4630	38.8292
 1.4620	38.8300
 1.4610	38.8942
 1.4600	39.0064
 1.4590	39.1316
 1.4580	39.1567
 1.4570	39.2674
 1.4560	39.3220
 1.4550	39.4012
 1.4540	39.4684
 1.4530	39.5224
 1.4520	39.5433
 1.4510	39.6903
 1.4500	39.7569
 1.4490	39.8379
 1.4480	39.8980
 1.4470	40.0098
 1.4460	40.0872
 1.4450	40.1939
 1.4440	40.2277
 1.4430	40.2492
 1.4420	40.2844
 1.4410	40.4530
 1.4400	40.5062
 1.4390	40.6719
 1.4380	40.6327
 1.4370	40.7125
 1.4360	40.7398
 1.4350	40.8950
 1.4340	40.9641
 1.4330	41.0429
 1.4320	41.0360
 1.4310	41.1805
 1.4300	41.1820
 1.4290	41.2636
 1.4280	41.3099
 1.4270	41.3409
 1.4260	41.3737
 1.4250	41.4972
 1.4240	41.5440
 1.4230	41.6670
 1.4220	41.7308
 1.4210	41.7752
 1.4200	41.7597
 1.4190	41.8767
 1.4180	41.8663
 1.4170	42.0349
 1.4160	42.0795
 1.4150	42.1457
 1.4140	42.1556
 1.4130	42.2448
 1.4120	42.2535
 1.4110	42.3779
 1.4100	42.3987
 1.4090	42.4215
 1.4080	42.4501
 1.4070	42.5039
 1.4060	42.4343
 1.4050	42.5246
 1.4040	42.5480
 1.4030	42.5764
 1.4020	42.5061
 1.4010	42.3429
 1.4000	42.2078
 1.3990	42.0725
 1.3980	41.5553
 1.3970	41.1190
 1.3960	40.6345
 1.3950	40.3163
 1.3940	40.3985
 1.3930	40.8570
 1.3920	41.5368
 1.3910	42.3538
 1.3900	42.8600
 1.3890	43.2567
 1.3880	43.4489
 1.3870	43.6179
 1.3860	43.6970
 1.3850	43.8401
 1.3840	43.8330
 1.3830	43.9543
 1.3820	43.9667
 1.3810	44.1858
 1.3800	44.2231
 1.3790	44.3168
 1.3780	44.3870
 1.3770	44.5311
 1.3760	44.4146
 1.3750	44.5300
 1.3740	44.5062
 1.3730	44.6309
 1.3720	44.6243
 1.3710	44.7017
 1.3700	44.6532
 1.3690	44.8021
 1.3680	44.8383
 1.3670	44.9348
 1.3660	44.8815
 1.3650	45.0139
 1.3640	44.9624
 1.3630	44.9875
 1.3620	45.0423
 1.3610	45.0726
 1.3600	45.0718
 1.3590	45.2364
 1.3580	45.2343
 1.3570	45.3068
 1.3560	45.2697
 1.3550	45.2908
 1.3540	45.3197
 1.3530	45.4503
 1.3520	45.3834
 1.3510	45.5201
 1.3500	45.4684
 1.3490	45.5918
 1.3480	45.4941
 1.3470	45.6317
 1.3460	45.6030
 1.3450	45.7548
 1.3440	45.7021
 1.3430	45.7759
 1.3420	45.7636
 1.3410	45.8231
 1.3400	45.7697
 1.3390	45.8770
 1.3380	45.8544
 1.3370	45.8932
 1.3360	45.9090
 1.3350	45.9761
 1.3340	46.0263
 1.3330	46.0622
 1.3320	46.0370
 1.3310	46.1515
 1.3300	46.0721
 1.3290	46.0867
 1.3280	46.1037
 1.3270	46.1631
 1.3260	46.1495
 1.3250	46.2804
 1.3240	46.2105
 1.3230	46.2971
 1.3220	46.2466
 1.3210	46.3180
 1.3200	46.2637
 1.3190	46.3429
 1.3180	46.3396
 1.3170	46.4392
 1.3160	46.4600
 1.3150	46.4605
 1.3140	46.4350
 1.3130	46.5199
 1.3120	46.4373
 1.3110	46.5114
 1.3100	46.4775
 1.3090	46.5069
 1.3080	46.5455
 1.3070	46.5644
 1.3060	46.5761
 1.3050	46.6354
 1.3040	46.5888
 1.3030	46.6505
 1.3020	46.6130
 1.3010	46.7191
 1.3000	46.6831
 1.2990	46.7247
 1.2980	46.6577
 1.2970	46.7175
 1.2960	46.6765
 1.2950	46.7703
 1.2940	46.6965
 1.2930	46.7526
 1.2920	46.7311
 1.2910	46.8165
 1.2900	46.7715
 1.2890	46.7938
 1.2880	46.7921
 1.2870	46.8314
 1.2860	46.7843
 1.2850	46.7775
 1.2840	46.8084
 1.2830	46.8962
 1.2820	46.8238
 1.2810	46.8233
 1.2800	46.7962
 1.2790	46.8712
 1.2780	46.8541
 1.2770	46.8825
 1.2760	46.8470
 1.2750	46.9217
 1.2740	46.9088
 1.2730	46.8927
 1.2720	46.8927
 1.2710	46.9045
 1.2700	46.8666
 1.2690	46.8803
 1.2680	46.8779
 1.2670	46.9535
 1.2660	46.9256
 1.2650	46.9690
 1.2640	46.9738
 1.2630	46.9286
 1.2620	46.9162
 1.2610	46.9738
 1.2600	46.9424
 1.2590	46.9589
 1.2580	46.9402
 1.2570	46.9311
 1.2560	46.9223
 1.2550	46.9513
 1.2540	46.9614
 1.2530	47.0127
 1.2520	46.9898
 1.2510	46.9683
 1.2500	46.9285
 1.2490	46.8985
 1.2480	46.8808
 1.2470	46.9228
 1.2460	46.9231
 1.2450	46.9330
 1.2440	46.9093
 1.2430	46.9108
 1.2420	46.8661
 1.2410	46.8474
 1.2400	46.8808
 1.2390	46.9525
 1.2380	46.9216
 1.2370	46.9121
 1.2360	46.8984
 1.2350	46.9004
 1.2340	46.8950
 1.2330	46.9238
 1.2320	46.9077
 1.2310	46.8759
 1.2300	46.8655
 1.2290	46.8857
 1.2280	46.8531
 1.2270	46.8454
 1.2260	46.8800
 1.2250	46.8558
 1.2240	46.8246
 1.2230	46.8032
 1.2220	46.8130
 1.2210	46.8100
 1.2200	46.8217
 1.2190	46.8383
 1.2180	46.7785
 1.2170	46.7310
 1.2160	46.7523
 1.2150	46.7646
 1.2140	46.7609
 1.2130	46.7806
 1.2120	46.7359
 1.2110	46.6969
 1.2100	46.7161
 1.2090	46.7019
 1.2080	46.6717
 1.2070	46.6791
 1.2060	46.6970
 1.2050	46.6798
 1.2040	46.6887
 1.2030	46.6654
 1.2020	46.6169
 1.2010	46.6089
 1.2000	46.6422
 1.1990	46.5918
 1.1980	46.5390
 1.1970	46.5502
 1.1960	46.5711
 1.1950	46.5409
 1.1940	46.5158
 1.1930	46.4729
 1.1920	46.4734
 1.1910	46.5171
 1.1900	46.5080
 1.1890	46.4994
 1.1880	46.4398
 1.1870	46.3854
 1.1860	46.4292
 1.1850	46.3944
 1.1840	46.3807
 1.1830	46.3793
 1.1820	46.4073
 1.1810	46.3937
 1.1800	46.3876
 1.1790	46.3110
 1.1780	46.2934
 1.1770	46.2781
 1.1760	46.2815
 1.1750	46.2696
 1.1740	46.2381
 1.1730	46.1787
 1.1720	46.1876
 1.1710	46.1349
 1.1700	46.1483
 1.1690	46.1635
 1.1680	46.1665
 1.1670	46.0894
 1.1660	46.0651
 1.1650	46.0245
 1.1640	46.0741
 1.1630	46.0353
 1.1620	46.0271
 1.1610	45.9571
 1.1600	46.0072
 1.1590	45.9912
 1.1580	45.9398
 1.1570	45.8587
 1.1560	45.8291
 1.1550	45.8011
 1.1540	45.7913
 1.1530	45.8025
 1.1520	45.7688
 1.1510	45.7117
 1.1500	45.7529
 1.1490	45.6438
 1.1480	45.6479
 1.1470	45.5485
 1.1460	45.5254
 1.1450	45.5312
 1.1440	45.5378
 1.1430	45.4755
 1.1420	45.4217
 1.1410	45.3758
 1.1400	45.4124
 1.1390	45.2605
 1.1380	45.2696
 1.1370	45.1591
 1.1360	45.2380
 1.1350	45.1318
 1.1340	45.1284
 1.1330	45.0440
 1.1320	45.0608
 1.1310	44.9181
 1.1300	44.9409
 1.1290	44.9102
 1.1280	44.8305
 1.1270	44.6483
 1.1260	44.6154
 1.1250	44.5497
 1.1240	44.5801
 1.1230	44.4864
 1.1220	44.4780
 1.1210	44.3398
 1.1200	44.3285
 1.1190	44.2235
 1.1180	44.1738
 1.1170	44.0905
 1.1160	44.0368
 1.1150	43.8814
 1.1140	43.8715
 1.1130	43.7450
 1.1120	43.6977
 1.1110	43.5607
 1.1100	43.5074
 1.1090	43.4294
 1.1080	43.3157
 1.1070	43.2159
 1.1060	43.1702
 1.1050	42.9652
 1.1040	42.9009
 1.1030	42.7519
 1.1020	42.7104
 1.1010	42.5880
 1.1000	42.4990
 1.0990	42.2331
 1.0980	42.2512
 1.0970	42.0734
 1.0960	41.9593
 1.0950	41.7828
 1.0940	41.6533
 1.0930	41.5486
 1.0920	41.4732
 1.0910	41.2410
 1.0900	41.1889
 1.0890	40.8801
 1.0880	40.8282
 1.0870	40.5844
 1.0860	40.4872
 1.0850	40.2539
 1.0840	40.1696
 1.0830	40.0003
 1.0820	39.8024
 1.0810	39.6588
 1.0800	39.4591
 1.0790	39.2486
 1.0780	39.0603
 1.0770	38.8794
 1.0760	38.6849
 1.0750	38.3397
 1.0740	38.3129
 1.0730	37.9996
 1.0720	37.7915
 1.0710	37.5268
 1.0700	37.2375
 1.0690	37.0944
 1.0680	36.9218
 1.0670	36.5462
 1.0660	36.3907
 1.0650	36.1804
 1.0640	35.9579
 1.0630	35.5716
 1.0620	35.4320
 1.0610	35.0773
 1.0600	34.8906
 1.0590	34.5941
 1.0580	34.4266
 1.0570	34.0478
 1.0560	33.8299
 1.0550	33.5122
 1.0540	33.3275
 1.0530	32.9268
 1.0520	32.6851
 1.0510	32.3175
 1.0500	32.1862
 1.0490	31.7581
 1.0480	31.5543
 1.0470	31.1889
 1.0460	31.0125
 1.0450	30.5495
 1.0440	30.3549
 1.0430	30.0094
 1.0420	29.8114
 1.0410	29.3575
 1.0400	29.0937
 1.0390	28.7853
 1.0380	28.5773
 1.0370	28.1333
 1.0360	27.9270
 1.0350	27.5372
 1.0340	27.3584
 1.0330	27.0131
 1.0320	26.7132
 1.0310	26.3040
 1.0300	26.0999
 1.0290	25.8128
 1.0280	25.5455
 1.0270	25.0765
 1.0260	24.8090
 1.0250	24.5060
 1.0240	24.2161
 1.0230	23.9445
 1.0220	23.6341
 1.0210	23.2970
 1.0200	23.1094
 1.0190	22.7036
 1.0180	22.4063
 1.0170	22.1306
 1.0160	21.8665
 1.0150	21.5303
 1.0140	21.3024
 1.0130	20.9696
 1.0120	20.7646
 1.0110	20.3988
 1.0100	20.2257
 1.0090	19.8735
 1.0080	19.6634
 1.0070	19.3373
 1.0060	19.1037
 1.0050	18.7901
 1.0040	18.6631
 1.0030	18.2987
 1.0020	18.0715
 1.0010	17.7401
 1.0000	17.6230
 0.9990	17.3512
 0.9980	17.1135
 0.9970	16.8639
 0.9960	16.6745
 0.9950	16.4155
 0.9940	16.2234
 0.9930	15.9278
 0.9920	15.7979
 0.9910	15.6094
 0.9900	15.3618
 0.9890	15.1190
 0.9880	14.9252
 0.9870	14.6682
 0.9860	14.5412
 0.9850	14.3131
 0.9840	14.2071
 0.9830	13.9831
 0.9820	13.8204
 0.9810	13.6275
 0.9800	13.4665
 0.9790	13.3574
 0.9780	13.2179
 0.9770	12.9829
 0.9760	12.8126
 0.9750	12.6882
 0.9740	12.6021
 0.9730	12.4412
 0.9720	12.3179
 0.9710	12.1411
 0.9700	12.0824
 0.9690	11.9330
 0.9680	11.8260
 0.9670	11.6905
 0.9660	11.5945
 0.9650	11.4329
 0.9640	11.3313
 0.9630	11.1609
 0.9620	11.0896
 0.9610	11.0148
 0.9600	10.9736
 0.9590	10.8111
 0.9580	10.7134
 0.9570	10.5806
 0.9560	10.5265
 0.9550	10.4319
 0.9540	10.4120
 0.9530	10.2857
 0.9520	10.2115
 0.9510	10.1465
 0.9500	10.1310
 0.9490	 9.9670
 0.9480	 9.8866
 0.9470	 9.8534
 0.9460	 9.8047
 0.9450	 9.7633
 0.9440	 9.6958
 0.9430	 9.6257
 0.9420	 9.6043
 0.9410	 9.5425
 0.9400	 9.5399
 0.9390	 9.4241
 0.9380	 9.3481
 0.9370	 9.3378
 0.9360	 9.3004
 0.9350	 9.2649
 0.9340	 9.2106
 0.9330	 9.1960
 0.9320	 9.1687
 0.9310	 9.0834
 0.9300	 9.0649
 0.9290	 9.0715
 0.9280	 9.0406
 0.9270	 9.0219
 0.9260	 9.0016
 0.9250	 9.0048
 0.9240	 8.9855
 0.9230	 8.9314
 0.9220	 8.9041
 0.9210	 8.8870
 0.9200	 8.8730
 0.9190	 8.8635
 0.9180	 8.8227
 0.9170	 8.8965
 0.9160	 8.9035
 0.9150	 8.8607
 0.9140	 8.7979
 0.9130	 8.8168
 0.9120	 8.8394
 0.9110	 8.8445
 0.9100	 8.8088
 0.9090	 8.8481
 0.9080	 8.8435
 0.9070	 8.8457
 0.9060	 8.8486
 0.9050	 8.8970
 0.9040	 8.9099
 0.9030	 8.9177
 0.9020	 8.9085
 0.9010	 8.9866
 0.9000	 8.9568
 0.8990	 8.9506
 0.8980	 9.0136
 0.8970	 9.0474
 0.8960	 8.9675
 0.8950	 9.0008
 0.8940	 9.0518
 0.8930	 9.1299
 0.8920	 9.1049
 0.8910	 9.1535
 0.8900	 9.1845
 0.8890	 9.2538
 0.8880	 9.2082
 0.8870	 9.2706
 0.8860	 9.2743
 0.8850	 9.3838
 0.8840	 9.3845
 0.8830	 9.4869
 0.8820	 9.5448
 0.8810	 9.5535
 0.8800	 9.5531
 0.8790	 9.6800
 0.8780	 9.7145
 0.8770	 9.8142
 0.8760	 9.7802
 0.8750	 9.8805
 0.8740	 9.9480
 0.8730	10.0287
 0.8720	 9.9866
 0.8710	10.1271
 0.8700	10.1725
 0.8690	10.2953
 0.8680	10.2914
 0.8670	10.4917
 0.8660	10.4640
 0.8650	10.5803
 0.8640	10.6055
 0.8630	10.7773
 0.8620	10.7685
 0.8610	10.8695
 0.8600	11.3163
 0.8590	11.5496
 0.8580	11.6428
 0.8570	11.7486
 0.8560	11.8404
 0.8550	11.9655
 0.8540	12.0645
 0.8530	12.1960
 0.8520	12.3231
 0.8510	12.4511
 0.8500	12.5691
 0.8490	12.6997
 0.8480	12.8416
 0.8470	12.9576
 0.8460	13.0924
 0.8450	13.2310
 0.8440	13.3899
 0.8430	13.5379
 0.8420	13.6801
 0.8410	13.8480
 0.8400	13.9860
 0.8390	14.1483
 0.8380	14.2980
 0.8370	14.4714
 0.8360	14.6672
 0.8350	14.8118
 0.8340	15.0013
 0.8330	15.1833
 0.8320	15.3833
 0.8310	15.5699
 0.8300	15.7554
 0.8290	15.9551
 0.8280	16.1721
 0.8270	16.3756
 0.8260	16.5839
 0.8250	16.7884
 0.8240	17.0048
 0.8230	17.2361
 0.8220	17.4558
 0.8210	17.6849
 0.8200	17.9114
 0.8190	18.1772
 0.8180	18.4138
 0.8170	18.6452
 0.8160	18.8872
 0.8150	19.1363
 0.8140	19.4096
 0.8130	19.6731
 0.8120	19.9320
 0.8110	20.1647
 0.8100	20.4418
 0.8090	20.7083
 0.8080	20.9873
 0.8070	21.2758
 0.8060	21.5498
 0.8050	21.8253
 0.8040	22.1369
 0.8030	22.4330
 0.8020	22.7110
 0.8010	23.0139
 0.8000	23.3151
 0.7990	23.6168
 0.7980	23.9371
 0.7970	24.2235
 0.7960	24.5138
 0.7950	24.8114
 0.7940	25.1243
 0.7930	25.4384
 0.7920	25.7655
 0.7910	26.0771
 0.7900	26.3906
 0.7890	26.7101
 0.7880	27.0411
 0.7870	27.3480
 0.7860	27.6649
 0.7850	27.9793
 0.7840	28.3075
 0.7830	28.6243
 0.7820	28.9448
 0.7810	29.2500
 0.7800	29.5690
 0.7790	29.9134
 0.7780	30.2255
 0.7770	30.5194
 0.7760	30.8578
 0.7750	31.1631
 0.7740	31.4649
 0.7730	31.8143
 0.7720	32.0897
 0.7710	32.4149
 0.7700	32.7124
 0.7690	33.0237
 0.7680	33.3156
 0.7670	33.6264
 0.7660	33.8953
 0.7650	34.2039
 0.7640	34.5037
 0.7630	34.7765
 0.7620	35.0795
 0.7610	35.3130
 0.7600	35.5525
 0.7590	35.8385
 0.7580	36.1066
 0.7570	36.3541
 0.7560	36.6290
 0.7550	36.8687
 0.7540	37.1129
 0.7530	37.3813
 0.7520	37.6277
 0.7510	37.8411
 0.7500	38.0594
 0.7490	38.2818
 0.7480	38.4682
 0.7470	38.6632
 0.7460	38.8896
 0.7450	39.0928
 0.7440	39.2750
 0.7430	39.4795
 0.7420	39.6593
 0.7410	39.8541
 0.7400	40.0195
 0.7390	40.1974
 0.7380	40.3719
 0.7370	40.5264
 0.7360	40.6858
 0.7350	40.8371
 0.7340	40.9843
 0.7330	41.1329
 0.7320	41.2426
 0.7310	41.4002
 0.7300	41.5101
 0.7290	41.6454
 0.7280	41.7589
 0.7270	41.8796
 0.7260	42.0013
 0.7250	42.0970
 0.7240	42.1963
 0.7230	42.2789
 0.7220	42.3753
 0.7210	42.4726
 0.7200	42.5427
 0.7190	42.6159
 0.7180	42.7058
 0.7170	42.7773
 0.7160	42.8460
 0.7150	42.9081
 0.7140	42.9666
 0.7130	43.0255
 0.7120	43.0895
 0.7110	43.1312
 0.7100	43.1655
 0.7090	43.2074
 0.7080	43.2573
 0.7070	43.3046
 0.7060	43.3294
 0.7050	43.3625
 0.7040	43.3958
 0.7030	43.4193
 0.7020	43.4359
 0.7010	43.4583
 0.7000	43.4816
 0.6990	43.5001
 0.6980	43.5193
 0.6970	43.5391
 0.6960	43.5488
 0.6950	43.5583
 0.6940	43.5547
 0.6930	43.5589
 0.6920	43.5663
 0.6910	43.5675
 0.6900	43.5629
 0.6890	43.5740
 0.6880	43.5608
 0.6870	43.5701
 0.6860	43.5672
 0.6850	43.5560
 0.6840	43.5482
 0.6830	43.5365
 0.6820	43.5330
 0.6810	43.5242
 0.6800	43.5057
 0.6790	43.4933
 0.6780	43.4753
 0.6770	43.4651
 0.6760	43.4526
 0.6750	43.4365
 0.6740	43.4219
 0.6730	43.4110
 0.6720	43.3838
 0.6710	43.3554
 0.6700	43.3502
 0.6690	43.3319
 0.6680	43.3002
 0.6670	43.2826
 0.6660	43.2643
 0.6650	43.2536
 0.6640	43.2312
 0.6630	43.2033
 0.6620	43.1903
 0.6610	43.1652
 0.6600	43.1387
 0.6590	43.1235
 0.6580	43.0954
 0.6570	43.0764
 0.6560	43.0610
 0.6550	43.0369
 0.6540	43.0160
 0.6530	42.9879
 0.6520	42.9625
 0.6510	42.9398
 0.6500	42.9136
 0.6490	42.8817
 0.6480	42.8663
 0.6470	42.8436
 0.6460	42.8120
 0.6450	42.7921
 0.6440	42.7636
 0.6430	42.7445
 0.6420	42.7247
 0.6410	42.6920
 0.6400	42.6666
 0.6390	42.6408
 0.6380	42.6147
 0.6370	42.5856
 0.6360	42.5538
 0.6350	42.5298
 0.6340	42.5002
 0.6330	42.4685
 0.6320	42.4432
 0.6310	42.4145
 0.6300	42.3789
 0.6290	42.3581
 0.6280	42.3336
 0.6270	42.2933
 0.6260	42.2619
 0.6250	42.2330
 0.6240	42.2037
 0.6230	42.1650
 0.6220	42.1344
 0.6210	42.1071
 0.6200	42.0593
 0.6190	42.0268
 0.6180	42.0112
 0.6170	41.9804
 0.6160	41.9461
 0.6150	41.9200
 0.6140	41.8890
 0.6130	41.8689
 0.6120	41.8416
 0.6110	41.8054
 0.6100	41.7808
 0.6090	41.7550
 0.6080	41.7309
 0.6070	41.7078
 0.6060	41.6809
 0.6050	41.6508
 0.6040	41.6316
 0.6030	41.6101
 0.6020	41.5820
 0.6010	41.5536
 0.6000	41.5278
 0.5990	41.5100
 0.5980	41.4975
 0.5970	41.4769
 0.5960	41.4537
 0.5950	41.4250
 0.5940	41.3907
 0.5930	41.3643
 0.5920	41.3412
 0.5910	41.3092
 0.5900	41.2767
 0.5890	41.2267
 0.5880	41.1927
 0.5870	41.1579
 0.5860	41.1154
 0.5850	41.0770
 0.5840	41.0353
 0.5830	40.9967
 0.5820	40.9649
 0.5810	40.9345
 0.5800	40.8932
 0.5790	40.8642
 0.5780	40.8074
 0.5770	40.7764
 0.5760	40.7407
 0.5750	40.6959
 0.5740	40.6604
 0.5730	40.6171
 0.5720	40.5712
 0.5710	40.5264
 0.5700	40.4853
 0.5690	40.4470
 0.5680	40.4074
 0.5670	40.3723
 0.5660	40.3183
 0.5650	40.2565
 0.5640	40.2017
 0.5630	40.1478
 0.5620	40.0899
 0.5610	40.0131
 0.5600	39.9350
 0.5590	39.8482
 0.5580	39.7467
 0.5570	39.6388
 0.5560	39.5326
 0.5550	39.4046
 0.5540	39.2644
 0.5530	39.1350
 0.5520	39.0030
 0.5510	38.8755
 0.5500	38.7560
 0.5490	38.6680
 0.5480	38.6099
 0.5470	38.5852
 0.5460	38.5927
 0.5450	38.6195
 0.5440	38.6621
 0.5430	38.7330
 0.5420	38.7960
 0.5410	38.8776
 0.5400	38.9424
 0.5390	39.0044
 0.5380	39.0576
 0.5370	39.0991
 0.5360	39.1276
 0.5350	39.1543
 0.5340	39.1657
 0.5330	39.1736
 0.5320	39.1740
 0.5310	39.1634
 0.5300	39.1495
 0.5290	39.1268
 0.5280	39.1003
 0.5270	39.0730
 0.5260	39.0329
 0.5250	38.9961
 0.5240	38.9696
 0.5230	38.9165
 0.5220	38.8743
 0.5210	38.8201
 0.5200	38.7644
 0.5190	38.7089
 0.5180	38.6569
 0.5170	38.5840
 0.5160	38.5173
 0.5150	38.4180
 0.5140	38.3364
 0.5130	38.2257
 0.5120	38.0905
 0.5110	37.9147
 0.5100	37.6915
 0.5090	37.3379
 0.5080	36.8387
 0.5070	36.3101
 0.5060	35.8581
 0.5050	35.6266
 0.5040	35.7037
 0.5030	36.0427
 0.5020	36.4508
 0.5010	36.7541
 0.5000	36.8742
 0.4990	36.9145
 0.4980	36.9101
 0.4970	36.8783
 0.4960	36.8521
 0.4950	36.7924
 0.4940	36.7244
 0.4930	36.6489
 0.4920	36.5714
 0.4910	36.4866
 0.4900	36.3918
 0.4890	36.2914
 0.4880	36.1802
 0.4870	36.0721
 0.4860	35.9567
 0.4850	35.8418
 0.4840	35.7173
 0.4830	35.6047
 0.4820	35.5334
 0.4810	35.4213
 0.4800	35.3348
 0.4790	35.2670
 0.4780	35.1993
 0.4770	35.1364
 0.4760	35.0760
 0.4750	35.0121
 0.4740	34.9509
 0.4730	34.8760
 0.4720	34.7820
 0.4710	34.7003
 0.4700	34.6129
 0.4690	34.5471
 0.4680	34.4898
 0.4670	34.4282
 0.4660	34.4034
 0.4650	34.3627
 0.4640	34.3160
 0.4630	34.2477
 0.4620	34.2032
 0.4610	34.1259
 0.4600	34.0540
 0.4590	33.9584
 0.4580	33.8720
 0.4570	33.7941
 0.4560	33.7058
 0.4550	33.6283
 0.4540	33.5599
 0.4530	33.4778
 0.4520	33.4201
 0.4510	33.3577
 0.4500	33.3406
 0.4490	33.2521
 0.4480	33.1823
 0.4470	33.1127
 0.4460	33.0536
 0.4450	32.9892
 0.4440	32.9553
 0.4430	32.9386
 0.4420	32.9210
 0.4410	32.8986
 0.4400	32.8681
 0.4390	32.8116
 0.4380	32.7378
 0.4370	32.6412
 0.4360	32.5298
 0.4350	32.3976
 0.4340	32.2301
 0.4330	32.0305
 0.4320	31.8367
 0.4310	31.6174
 0.4300	31.3929
 0.4290	31.1784
 0.4280	30.9911
 0.4270	30.8480
 0.4260	30.7535
 0.4250	30.7087
 0.4240	30.7215
 0.4230	30.7522
 0.4220	30.7808
 0.4210	30.7817
 0.4200	30.7674
 0.4190	30.7158
 0.4180	30.6378
 0.4170	30.5451
 0.4160	30.4488
 0.4150	30.3040
 0.4140	30.1709
 0.4130	30.0320
 0.4120	29.8778
 0.4110	29.7217
 0.4100	29.5523
 0.4090	29.3936
 0.4080	29.2184
 0.4070	29.0437
 0.4060	28.8627
 0.4050	28.6727
 0.4040	28.4741
 0.4030	28.2853
 0.4020	28.0889
 0.4010	27.8979
 0.4000	27.7000
