Name: Chlorite
Type: Mineral
Class: Silicate
Subclass: Phyllosilicate
Particle Size: Fine
Sample No.: PS-12E
Owner: JPL
Wavelength Range: VSWIR
Origin: USA, Vermont
Collection Date: N/A
Description: Particle size was 0-45um.Collected by Ward's Original ASTER Spectral Library name was jpl.beckman.mineral.silicate.phyllosilicate.fine.ps12e.spectrum.txt
Measurement: Hemispherical reflectance
First Column: X
Second Column: Y
X Units: Wavelength (micrometers)
Y Units:Reflectance (percent)
First X Value:  0.4000
Last X Value:  2.5000
Number of X Values: 826
Additional Information: mineral.silicate.phyllosilicate.fine.vswir.ps-12e.jpl.beckman.ancillary.txt

 0.4000	25.1300
 0.4010	25.2200
 0.4020	25.2200
 0.4030	25.3900
 0.4040	25.2500
 0.4050	25.3300
 0.4060	25.4200
 0.4070	25.5000
 0.4080	25.6600
 0.4090	25.6100
 0.4100	25.7600
 0.4110	25.8800
 0.4120	25.9000
 0.4130	26.1300
 0.4140	26.0600
 0.4150	26.1900
 0.4160	26.3800
 0.4170	26.4700
 0.4180	26.7100
 0.4190	26.7700
 0.4200	26.9800
 0.4210	27.1800
 0.4220	27.2800
 0.4230	27.4800
 0.4240	27.5400
 0.4250	27.6100
 0.4260	27.8200
 0.4270	27.8300
 0.4280	28.0000
 0.4290	27.9400
 0.4300	28.1000
 0.4310	28.2300
 0.4320	28.3100
 0.4330	28.3900
 0.4340	28.4400
 0.4350	28.5200
 0.4360	28.6100
 0.4370	28.7200
 0.4380	28.9200
 0.4390	29.0000
 0.4400	29.0200
 0.4410	29.0400
 0.4420	29.0800
 0.4430	29.1300
 0.4440	29.0400
 0.4450	29.0400
 0.4460	28.8800
 0.4470	28.9100
 0.4480	28.8700
 0.4490	28.8700
 0.4500	29.0400
 0.4510	28.8600
 0.4520	28.9000
 0.4530	29.0200
 0.4540	29.1300
 0.4550	29.2900
 0.4560	29.2700
 0.4570	29.4400
 0.4580	29.4600
 0.4590	29.4600
 0.4600	29.4500
 0.4610	29.6400
 0.4620	29.8700
 0.4630	29.8700
 0.4640	29.9600
 0.4650	30.0400
 0.4660	30.1900
 0.4670	30.3200
 0.4680	30.4000
 0.4690	30.5800
 0.4700	30.7000
 0.4710	30.7200
 0.4720	30.8700
 0.4730	31.0400
 0.4740	31.2000
 0.4750	31.3700
 0.4760	31.5300
 0.4770	31.6500
 0.4780	31.6800
 0.4790	31.8200
 0.4800	31.9700
 0.4810	32.0700
 0.4820	32.1300
 0.4830	32.2300
 0.4840	32.3300
 0.4850	32.3800
 0.4860	32.3800
 0.4870	32.4200
 0.4880	32.3900
 0.4890	32.3900
 0.4900	32.4400
 0.4910	32.3600
 0.4920	32.3000
 0.4930	32.2800
 0.4940	32.2800
 0.4950	32.4700
 0.4960	32.4900
 0.4970	32.6700
 0.4980	32.7000
 0.4990	32.7600
 0.5000	32.8400
 0.5010	32.9100
 0.5020	33.0900
 0.5030	33.0700
 0.5040	33.1200
 0.5050	33.1000
 0.5060	33.1600
 0.5070	33.2200
 0.5080	33.2000
 0.5090	33.3000
 0.5100	33.2600
 0.5110	33.4000
 0.5120	33.4400
 0.5130	33.3600
 0.5140	33.3600
 0.5150	33.3100
 0.5160	33.4100
 0.5170	33.4200
 0.5180	33.4000
 0.5190	33.3700
 0.5200	33.2200
 0.5210	33.3600
 0.5220	33.3000
 0.5230	33.2200
 0.5240	33.2400
 0.5250	33.1500
 0.5260	33.2100
 0.5270	33.1300
 0.5280	33.0100
 0.5290	33.1100
 0.5300	32.9900
 0.5310	33.1100
 0.5320	33.0500
 0.5330	33.0200
 0.5340	32.9700
 0.5350	32.9300
 0.5360	33.0400
 0.5370	33.0000
 0.5380	32.9200
 0.5390	33.0200
 0.5400	32.9000
 0.5410	33.0000
 0.5420	32.8600
 0.5430	32.7700
 0.5440	32.7900
 0.5450	32.8500
 0.5460	32.7900
 0.5470	32.7200
 0.5480	32.7200
 0.5490	32.7600
 0.5500	32.7000
 0.5510	32.7400
 0.5520	32.6200
 0.5530	32.5600
 0.5540	32.5900
 0.5550	32.5700
 0.5560	32.5300
 0.5570	32.5600
 0.5580	32.4800
 0.5590	32.5300
 0.5600	32.5300
 0.5610	32.5800
 0.5620	32.5400
 0.5630	32.3100
 0.5640	32.3000
 0.5650	32.3000
 0.5660	32.3000
 0.5670	32.2800
 0.5680	32.1100
 0.5690	32.0500
 0.5700	31.9700
 0.5710	32.0100
 0.5720	31.9300
 0.5730	31.7200
 0.5740	31.7000
 0.5750	31.6700
 0.5760	31.5700
 0.5770	31.6100
 0.5780	31.4300
 0.5790	31.3900
 0.5800	31.3700
 0.5810	31.2900
 0.5820	31.2900
 0.5830	31.0500
 0.5840	31.0500
 0.5850	31.0500
 0.5860	30.9900
 0.5870	30.9900
 0.5880	30.7900
 0.5890	30.8300
 0.5900	30.7100
 0.5910	30.6200
 0.5920	30.7100
 0.5930	30.5000
 0.5940	30.4600
 0.5950	30.4200
 0.5960	30.4200
 0.5970	30.3600
 0.5980	30.1700
 0.5990	30.2000
 0.6000	30.1100
 0.6010	30.0900
 0.6020	30.0700
 0.6030	29.8300
 0.6040	29.8900
 0.6050	29.7900
 0.6060	29.7200
 0.6070	29.7900
 0.6080	29.5200
 0.6090	29.4900
 0.6100	29.4400
 0.6110	29.4300
 0.6120	29.4900
 0.6130	29.1800
 0.6140	29.1800
 0.6150	29.1500
 0.6160	28.9700
 0.6170	29.0300
 0.6180	28.8500
 0.6190	28.9200
 0.6200	28.8200
 0.6210	28.6300
 0.6220	28.7000
 0.6230	28.4500
 0.6240	28.4900
 0.6250	28.3800
 0.6260	28.3000
 0.6270	28.3100
 0.6280	28.1300
 0.6290	28.1000
 0.6300	28.0600
 0.6310	27.9700
 0.6320	28.1600
 0.6330	28.0400
 0.6340	28.0200
 0.6350	27.9700
 0.6360	27.9300
 0.6370	28.0200
 0.6380	27.8300
 0.6390	27.8800
 0.6400	27.8200
 0.6410	27.7300
 0.6420	27.7700
 0.6430	27.6000
 0.6440	27.5800
 0.6450	27.5400
 0.6460	27.4300
 0.6470	27.5300
 0.6480	27.2900
 0.6490	27.3000
 0.6500	27.2800
 0.6510	27.1400
 0.6520	27.1500
 0.6530	26.9700
 0.6540	27.0700
 0.6550	26.9800
 0.6560	26.8500
 0.6570	26.9100
 0.6580	26.7200
 0.6590	26.7700
 0.6600	26.7400
 0.6610	26.6500
 0.6620	26.6800
 0.6630	26.3800
 0.6640	26.5200
 0.6650	26.4200
 0.6660	26.3300
 0.6670	26.3700
 0.6680	26.3200
 0.6690	26.2900
 0.6700	26.1300
 0.6710	26.1400
 0.6720	26.1000
 0.6730	26.1200
 0.6740	26.0700
 0.6750	25.9500
 0.6760	25.8700
 0.6770	25.8300
 0.6780	25.8300
 0.6790	25.8800
 0.6800	25.7300
 0.6810	25.7700
 0.6820	25.7600
 0.6830	25.7100
 0.6840	25.7400
 0.6850	25.6600
 0.6860	25.6100
 0.6870	25.6000
 0.6880	25.5000
 0.6890	25.6200
 0.6900	25.4500
 0.6910	25.4300
 0.6920	25.4300
 0.6930	25.4100
 0.6940	25.4200
 0.6950	25.2100
 0.6960	25.0800
 0.6970	25.0300
 0.6980	25.0600
 0.6990	25.1200
 0.7000	24.8400
 0.7010	24.7600
 0.7020	24.8600
 0.7030	24.7800
 0.7040	24.7600
 0.7050	24.8600
 0.7060	24.7800
 0.7070	24.8300
 0.7080	24.7500
 0.7090	24.7100
 0.7100	24.8600
 0.7110	24.7900
 0.7120	24.8800
 0.7130	24.8300
 0.7140	24.7800
 0.7150	24.9500
 0.7160	24.8800
 0.7170	24.8900
 0.7180	24.8300
 0.7190	24.8800
 0.7200	25.0300
 0.7210	24.9500
 0.7220	24.9700
 0.7230	24.9300
 0.7240	24.9800
 0.7250	25.0800
 0.7260	24.9900
 0.7270	25.0500
 0.7280	25.0700
 0.7290	25.1100
 0.7300	25.2200
 0.7310	25.0700
 0.7320	25.2000
 0.7330	25.1500
 0.7340	25.1800
 0.7350	25.3300
 0.7360	25.3400
 0.7370	25.6100
 0.7380	25.6400
 0.7390	25.7400
 0.7400	25.8700
 0.7410	25.7500
 0.7420	25.9600
 0.7430	25.8600
 0.7440	25.8800
 0.7450	25.8700
 0.7460	25.6800
 0.7470	25.7800
 0.7480	25.6900
 0.7490	25.8000
 0.7500	25.8200
 0.7510	25.7800
 0.7520	26.0100
 0.7530	25.9300
 0.7540	26.0000
 0.7550	26.0200
 0.7560	26.0300
 0.7570	26.1400
 0.7580	26.1300
 0.7590	26.3400
 0.7600	26.3500
 0.7610	26.3500
 0.7620	26.4900
 0.7630	26.3900
 0.7640	26.5500
 0.7650	26.5200
 0.7660	26.6300
 0.7670	26.6800
 0.7680	26.6000
 0.7690	26.7300
 0.7700	26.7500
 0.7710	26.8800
 0.7720	26.9700
 0.7730	26.9400
 0.7740	27.0100
 0.7750	26.9300
 0.7760	27.1000
 0.7770	27.1200
 0.7780	27.1000
 0.7790	27.2500
 0.7800	27.1900
 0.7810	27.3500
 0.7820	27.4700
 0.7830	27.3400
 0.7840	27.5900
 0.7850	27.4100
 0.7860	27.5600
 0.7870	27.5500
 0.7880	27.4100
 0.7890	27.6400
 0.7900	27.5500
 0.7910	27.6500
 0.7920	27.6200
 0.7930	27.6100
 0.7940	27.7500
 0.7950	27.7000
 0.7960	27.7600
 0.7970	27.7000
 0.7980	27.6700
 0.7990	27.7600
 0.8000	27.6400
 0.8040	27.6400
 0.8080	27.6800
 0.8120	27.6200
 0.8160	27.5600
 0.8200	27.4900
 0.8240	27.4000
 0.8280	27.3400
 0.8320	27.1800
 0.8360	27.1900
 0.8400	27.0700
 0.8440	26.9700
 0.8480	26.8500
 0.8520	26.7100
 0.8560	26.6200
 0.8600	26.4800
 0.8640	26.4200
 0.8680	26.3700
 0.8720	26.2900
 0.8760	26.2200
 0.8800	26.1700
 0.8840	26.1100
 0.8880	26.1000
 0.8920	26.1300
 0.8960	26.1700
 0.9000	26.1300
 0.9040	26.1700
 0.9080	26.2500
 0.9120	26.2500
 0.9160	26.3800
 0.9200	26.4900
 0.9240	26.6500
 0.9280	26.6500
 0.9320	26.7900
 0.9360	26.8800
 0.9400	26.9800
 0.9440	27.1600
 0.9480	27.2700
 0.9520	27.4400
 0.9560	27.5500
 0.9600	27.6700
 0.9640	27.8000
 0.9680	27.9200
 0.9720	28.0000
 0.9760	28.1000
 0.9800	28.2000
 0.9840	28.3100
 0.9880	28.4100
 0.9920	28.4000
 0.9960	28.5600
 1.0000	28.4500
 1.0040	28.5100
 1.0080	28.6200
 1.0120	28.6600
 1.0160	28.6800
 1.0200	28.7500
 1.0240	28.7100
 1.0280	28.7500
 1.0320	28.7600
 1.0360	28.7000
 1.0400	28.8200
 1.0440	28.8100
 1.0480	28.7700
 1.0520	28.7700
 1.0560	28.8400
 1.0600	28.8200
 1.0640	28.8900
 1.0680	28.9600
 1.0720	28.9800
 1.0760	29.0500
 1.0800	29.0400
 1.0840	29.0300
 1.0880	29.1200
 1.0920	29.1400
 1.0960	29.1800
 1.1000	29.1500
 1.1040	29.1900
 1.1080	29.2400
 1.1120	29.2600
 1.1160	29.3400
 1.1200	29.4400
 1.1240	29.5000
 1.1280	29.5500
 1.1320	29.5800
 1.1360	29.6900
 1.1400	29.8000
 1.1440	29.8300
 1.1480	29.9300
 1.1520	30.1200
 1.1560	30.2100
 1.1600	30.3900
 1.1640	30.4500
 1.1680	30.6000
 1.1720	30.7000
 1.1760	30.8400
 1.1800	31.0100
 1.1840	31.1500
 1.1880	31.2500
 1.1920	31.3700
 1.1960	31.5000
 1.2000	31.5800
 1.2040	31.7200
 1.2080	31.9500
 1.2120	32.0600
 1.2160	32.1900
 1.2200	32.4200
 1.2240	32.5600
 1.2280	32.7000
 1.2320	32.8300
 1.2360	33.0200
 1.2400	33.1900
 1.2440	33.3400
 1.2480	33.4900
 1.2520	33.6400
 1.2560	33.7700
 1.2600	33.9500
 1.2640	34.0900
 1.2680	34.2400
 1.2720	34.4100
 1.2760	34.5700
 1.2800	34.7000
 1.2840	34.8200
 1.2880	34.9600
 1.2920	35.1400
 1.2960	35.2000
 1.3000	35.2800
 1.3040	35.5000
 1.3080	35.5700
 1.3120	35.7000
 1.3160	35.9100
 1.3200	35.9500
 1.3240	36.1200
 1.3280	36.3200
 1.3320	36.4600
 1.3360	36.5900
 1.3400	36.7300
 1.3440	36.7900
 1.3480	36.9900
 1.3520	37.1000
 1.3560	37.3000
 1.3600	37.3900
 1.3640	37.4500
 1.3680	37.6100
 1.3720	37.7800
 1.3760	37.8200
 1.3800	37.4800
 1.3840	36.9300
 1.3880	36.6200
 1.3920	36.8900
 1.3960	37.2900
 1.4000	37.6400
 1.4040	37.7500
 1.4080	37.8900
 1.4120	38.1700
 1.4160	38.4000
 1.4200	38.5900
 1.4240	38.6600
 1.4280	38.6600
 1.4320	38.7300
 1.4360	38.7900
 1.4400	38.8700
 1.4440	38.9900
 1.4480	39.0800
 1.4520	39.1000
 1.4560	39.3500
 1.4600	39.4600
 1.4640	39.6300
 1.4680	39.7200
 1.4720	39.7600
 1.4760	39.9500
 1.4800	40.0100
 1.4840	40.0400
 1.4880	40.2200
 1.4920	40.2800
 1.4960	40.3900
 1.5000	40.3900
 1.5040	40.4600
 1.5080	40.4500
 1.5120	40.6000
 1.5160	40.6700
 1.5200	40.6500
 1.5240	40.7000
 1.5280	40.8000
 1.5320	40.9300
 1.5360	40.9900
 1.5400	41.0500
 1.5440	41.1300
 1.5480	41.2100
 1.5520	41.3400
 1.5560	41.3700
 1.5600	41.4300
 1.5640	41.5500
 1.5680	41.6300
 1.5720	41.7100
 1.5760	41.7700
 1.5800	41.8600
 1.5840	41.9900
 1.5880	42.1000
 1.5920	42.1300
 1.5960	42.3100
 1.6000	42.4200
 1.6040	42.4300
 1.6080	42.5500
 1.6120	42.6500
 1.6160	42.6500
 1.6200	42.7800
 1.6240	42.8700
 1.6280	42.9300
 1.6320	43.0200
 1.6360	43.1300
 1.6400	43.1400
 1.6440	43.2700
 1.6480	43.3400
 1.6520	43.4500
 1.6560	43.4200
 1.6600	43.5200
 1.6640	43.5700
 1.6680	43.5700
 1.6720	43.7300
 1.6760	43.7400
 1.6800	43.8200
 1.6840	43.8900
 1.6880	43.9200
 1.6920	44.0700
 1.6960	44.1300
 1.7000	44.2000
 1.7040	44.2000
 1.7080	44.2900
 1.7120	44.2900
 1.7160	44.4000
 1.7200	44.3900
 1.7240	44.3600
 1.7280	44.3900
 1.7320	44.4500
 1.7360	44.4800
 1.7400	44.5200
 1.7440	44.5500
 1.7480	44.6400
 1.7520	44.6600
 1.7560	44.6600
 1.7600	44.6300
 1.7640	44.7400
 1.7680	44.7500
 1.7720	44.7100
 1.7760	44.8000
 1.7800	44.8700
 1.7840	44.8000
 1.7880	44.9300
 1.7920	44.9000
 1.7960	44.8400
 1.8000	44.9500
 1.8040	44.8700
 1.8080	44.8900
 1.8120	44.8200
 1.8160	44.8700
 1.8200	44.9300
 1.8240	44.8400
 1.8280	44.8900
 1.8320	44.9200
 1.8360	44.8900
 1.8400	44.8500
 1.8440	44.8600
 1.8480	44.8200
 1.8520	44.8100
 1.8560	44.8200
 1.8600	44.7700
 1.8640	44.7600
 1.8680	44.7700
 1.8720	44.7100
 1.8760	44.7300
 1.8800	44.8300
 1.8840	44.8000
 1.8880	44.9100
 1.8920	44.9400
 1.8960	44.9400
 1.9000	44.9600
 1.9040	44.9800
 1.9080	44.9500
 1.9120	44.9900
 1.9160	45.0300
 1.9200	44.9300
 1.9240	44.9400
 1.9280	44.9000
 1.9320	44.8500
 1.9360	44.8000
 1.9400	44.7600
 1.9440	44.7600
 1.9480	44.6300
 1.9520	44.6400
 1.9560	44.6700
 1.9600	44.5700
 1.9640	44.5700
 1.9680	44.4500
 1.9720	44.5000
 1.9760	44.3800
 1.9800	44.4200
 1.9840	44.3900
 1.9880	44.4000
 1.9920	44.4700
 1.9960	44.5500
 2.0000	44.6400
 2.0040	44.6500
 2.0080	44.7200
 2.0120	44.9000
 2.0160	45.0200
 2.0200	45.1700
 2.0240	45.2700
 2.0280	45.4900
 2.0320	45.5200
 2.0360	45.6700
 2.0400	45.6800
 2.0440	45.8100
 2.0480	45.7700
 2.0520	45.7700
 2.0560	45.8400
 2.0600	45.9300
 2.0640	45.9700
 2.0680	45.9500
 2.0720	46.0500
 2.0760	46.0000
 2.0800	46.0400
 2.0840	46.0500
 2.0880	46.1300
 2.0920	46.0600
 2.0960	46.0400
 2.1000	46.1100
 2.1040	46.0600
 2.1080	46.1300
 2.1120	46.1400
 2.1160	46.1200
 2.1200	46.1300
 2.1240	46.1500
 2.1280	46.1200
 2.1320	46.0700
 2.1360	46.1300
 2.1400	46.1000
 2.1440	46.0600
 2.1480	46.0200
 2.1520	46.0500
 2.1560	45.9100
 2.1600	45.8100
 2.1640	45.7500
 2.1680	45.7000
 2.1720	45.7000
 2.1760	45.6500
 2.1800	45.5000
 2.1840	45.4300
 2.1880	45.3000
 2.1920	45.2200
 2.1960	45.1500
 2.2000	44.9800
 2.2040	44.8700
 2.2080	44.6800
 2.2120	44.4600
 2.2160	44.2600
 2.2200	43.9300
 2.2240	43.4400
 2.2280	42.9000
 2.2320	42.3700
 2.2360	41.8200
 2.2400	41.4000
 2.2440	41.1400
 2.2480	40.9100
 2.2520	40.8200
 2.2560	40.8600
 2.2600	40.9200
 2.2640	40.8800
 2.2680	40.8000
 2.2720	40.6700
 2.2760	40.3400
 2.2800	40.0200
 2.2840	39.7700
 2.2880	39.4100
 2.2920	39.1800
 2.2960	38.8700
 2.3000	38.5700
 2.3040	38.3900
 2.3080	37.9300
 2.3120	37.7200
 2.3160	37.5300
 2.3200	37.4200
 2.3240	37.3200
 2.3280	37.2200
 2.3320	37.3400
 2.3360	37.5000
 2.3400	37.6200
 2.3440	37.9700
 2.3480	38.2700
 2.3520	38.6700
 2.3560	39.0300
 2.3600	39.4300
 2.3640	39.7900
 2.3680	40.0300
 2.3720	40.2700
 2.3760	40.5300
 2.3800	40.6200
 2.3840	40.7100
 2.3880	40.8100
 2.3920	40.9700
 2.3960	41.0700
 2.4000	41.2000
 2.4040	41.3300
 2.4080	41.4200
 2.4120	41.5300
 2.4160	41.5000
 2.4200	41.4600
 2.4240	41.3300
 2.4280	41.2900
 2.4320	41.2000
 2.4360	41.0400
 2.4400	40.8400
 2.4440	40.6700
 2.4480	40.5200
 2.4520	40.3300
 2.4560	40.1300
 2.4600	39.9000
 2.4640	39.7200
 2.4680	39.6100
 2.4720	39.5300
 2.4760	39.4100
 2.4800	39.4100
 2.4840	39.4600
 2.4880	39.4400
 2.4920	39.4500
 2.4960	39.4700
 2.5000	39.5500
