Name: Tremolite Ca_2(Mg,Fe^2+)_5Si_8O_22(OH)_2
Type: Mineral
Class: Silicate
Subclass: Inosilicate
Particle Size: Fine
Sample No.: IN-5A
Owner: JPL
Wavelength Range: VSWIR
Origin: None.
Collection Date: N/A
Description: Particle size was 0-45um.Collected by:  JPL Original ASTER Spectral Library name was jpl.perkin.mineral.silicate.inosilicate.fine.in05a.spectrum.txt
Measurement: Hemispherical reflectance
First Column: X
Second Column: Y
X Units: Wavelength (micrometers)
Y Units:Reflectance (percent)
First X Value:  2.5000
Last X Value:  0.4000
Number of X Values: 2101
Additional Information: mineral.silicate.inosilicate.fine.vswir.in-5a.jpl.perkin.ancillary.txt

 2.5000	59.2993
 2.4990	59.0157
 2.4980	58.9883
 2.4970	59.0334
 2.4960	58.5964
 2.4950	58.9676
 2.4940	58.7392
 2.4930	58.7814
 2.4920	58.8767
 2.4910	58.8263
 2.4900	58.8461
 2.4890	58.7522
 2.4880	58.5960
 2.4870	58.7687
 2.4860	58.5510
 2.4850	58.5744
 2.4840	58.6123
 2.4830	58.7978
 2.4820	58.6305
 2.4810	58.5972
 2.4800	58.6190
 2.4790	58.7498
 2.4780	58.4881
 2.4770	58.6441
 2.4760	58.5293
 2.4750	58.4451
 2.4740	58.4264
 2.4730	58.6533
 2.4720	58.4235
 2.4710	58.5024
 2.4700	58.3677
 2.4690	58.4931
 2.4680	58.3662
 2.4670	58.4154
 2.4660	58.4266
 2.4650	58.5031
 2.4640	58.3192
 2.4630	58.4308
 2.4620	58.3849
 2.4610	58.5738
 2.4600	58.3883
 2.4590	58.4267
 2.4580	58.4216
 2.4570	58.5704
 2.4560	58.5845
 2.4550	58.6776
 2.4540	58.6944
 2.4530	58.7865
 2.4520	58.6937
 2.4510	58.8111
 2.4500	58.7956
 2.4490	58.9420
 2.4480	58.9267
 2.4470	59.0314
 2.4460	59.0369
 2.4450	59.1843
 2.4440	59.2550
 2.4430	59.2211
 2.4420	59.2981
 2.4410	59.3822
 2.4400	59.3949
 2.4390	59.4373
 2.4380	59.5392
 2.4370	59.5814
 2.4360	59.7386
 2.4350	59.7561
 2.4340	59.8349
 2.4330	60.0547
 2.4320	60.1122
 2.4310	60.1168
 2.4300	60.1110
 2.4290	60.3176
 2.4280	60.3098
 2.4270	60.3452
 2.4260	60.3169
 2.4250	60.2991
 2.4240	60.4001
 2.4230	60.4113
 2.4220	60.3255
 2.4210	60.2326
 2.4200	60.2975
 2.4190	60.2144
 2.4180	60.1433
 2.4170	60.1080
 2.4160	60.1349
 2.4150	60.0932
 2.4140	60.1112
 2.4130	60.1422
 2.4120	60.0894
 2.4110	60.1188
 2.4100	60.0822
 2.4090	60.0650
 2.4080	60.0472
 2.4070	60.0184
 2.4060	59.8972
 2.4050	59.8269
 2.4040	59.7649
 2.4030	59.6436
 2.4020	59.4733
 2.4010	59.3295
 2.4000	59.0836
 2.3990	58.8557
 2.3980	58.5552
 2.3970	58.3372
 2.3960	57.9987
 2.3950	57.7285
 2.3940	57.2887
 2.3930	56.9319
 2.3920	56.6228
 2.3910	56.2901
 2.3900	55.9549
 2.3890	55.7099
 2.3880	55.4586
 2.3870	55.3150
 2.3860	55.0586
 2.3850	54.9794
 2.3840	54.8907
 2.3830	54.8662
 2.3820	54.9221
 2.3810	55.0043
 2.3800	55.1073
 2.3790	55.2994
 2.3780	55.5588
 2.3770	55.8134
 2.3760	56.1466
 2.3750	56.4703
 2.3740	56.7411
 2.3730	57.1145
 2.3720	57.4693
 2.3710	57.8273
 2.3700	58.1204
 2.3690	58.5099
 2.3680	58.8440
 2.3670	59.1578
 2.3660	59.4561
 2.3650	59.6444
 2.3640	59.8896
 2.3630	60.1828
 2.3620	60.3671
 2.3610	60.5101
 2.3600	60.6626
 2.3590	60.8240
 2.3580	60.9730
 2.3570	61.1543
 2.3560	61.2906
 2.3550	61.4092
 2.3540	61.5157
 2.3530	61.5436
 2.3520	61.6780
 2.3510	61.8313
 2.3500	61.8315
 2.3490	61.8977
 2.3480	61.9949
 2.3470	62.0281
 2.3460	62.0865
 2.3450	62.1555
 2.3440	62.2206
 2.3430	62.2240
 2.3420	62.2135
 2.3410	62.2344
 2.3400	62.2064
 2.3390	62.1659
 2.3380	62.1087
 2.3370	61.9546
 2.3360	61.8432
 2.3350	61.7316
 2.3340	61.5402
 2.3330	61.2346
 2.3320	60.8944
 2.3310	60.4898
 2.3300	60.0763
 2.3290	59.6282
 2.3280	59.1912
 2.3270	58.6591
 2.3260	58.1220
 2.3250	57.5856
 2.3240	56.9716
 2.3230	56.3678
 2.3220	55.7887
 2.3210	55.1906
 2.3200	54.5920
 2.3190	54.0354
 2.3180	53.5455
 2.3170	53.0331
 2.3160	52.6387
 2.3150	52.3014
 2.3140	52.0480
 2.3130	51.7957
 2.3120	51.6361
 2.3110	51.4435
 2.3100	51.4270
 2.3090	51.3533
 2.3080	51.3655
 2.3070	51.3473
 2.3060	51.4256
 2.3050	51.4863
 2.3040	51.5711
 2.3030	51.6256
 2.3020	51.7401
 2.3010	51.8915
 2.3000	51.9531
 2.2990	52.1089
 2.2980	52.2615
 2.2970	52.3775
 2.2960	52.5741
 2.2950	52.7502
 2.2940	53.0091
 2.2930	53.2105
 2.2920	53.5332
 2.2910	53.8398
 2.2900	54.1956
 2.2890	54.5602
 2.2880	54.9233
 2.2870	55.2939
 2.2860	55.7457
 2.2850	56.1638
 2.2840	56.5229
 2.2830	56.7993
 2.2820	57.1921
 2.2810	57.4914
 2.2800	57.8370
 2.2790	58.0491
 2.2780	58.3953
 2.2770	58.6604
 2.2760	58.8748
 2.2750	59.1421
 2.2740	59.3501
 2.2730	59.5658
 2.2720	59.8250
 2.2710	60.0911
 2.2700	60.3677
 2.2690	60.5830
 2.2680	60.8261
 2.2670	60.9785
 2.2660	61.2886
 2.2650	61.4318
 2.2640	61.6689
 2.2630	61.8700
 2.2620	62.0200
 2.2610	62.2105
 2.2600	62.4048
 2.2590	62.5335
 2.2580	62.7158
 2.2570	62.8627
 2.2560	62.8779
 2.2550	62.9883
 2.2540	63.1739
 2.2530	63.1406
 2.2520	63.2041
 2.2510	63.2539
 2.2500	63.3955
 2.2490	63.3548
 2.2480	63.4251
 2.2470	63.4169
 2.2460	63.4948
 2.2450	63.5091
 2.2440	63.5045
 2.2430	63.5742
 2.2420	63.5002
 2.2410	63.5888
 2.2400	63.6407
 2.2390	63.6540
 2.2380	63.6361
 2.2370	63.6976
 2.2360	63.7248
 2.2350	63.6657
 2.2340	63.7715
 2.2330	63.7934
 2.2320	63.7750
 2.2310	63.8000
 2.2300	63.8830
 2.2290	63.7981
 2.2280	63.8838
 2.2270	63.8127
 2.2260	63.8792
 2.2250	63.8336
 2.2240	63.9249
 2.2230	63.7951
 2.2220	63.9708
 2.2210	63.9155
 2.2200	64.0083
 2.2190	63.8664
 2.2180	64.0361
 2.2170	63.8872
 2.2160	64.0727
 2.2150	63.9710
 2.2140	64.0451
 2.2130	63.9958
 2.2120	64.1643
 2.2110	64.0385
 2.2100	64.2076
 2.2090	64.1087
 2.2080	64.0200
 2.2070	64.1247
 2.2060	64.2678
 2.2050	64.2004
 2.2040	64.2705
 2.2030	64.2224
 2.2020	64.2764
 2.2010	64.2648
 2.2000	64.3400
 2.1990	64.2774
 2.1980	64.3207
 2.1970	64.2405
 2.1960	64.3987
 2.1950	64.3909
 2.1940	64.3485
 2.1930	64.3253
 2.1920	64.4190
 2.1910	64.3087
 2.1900	64.3492
 2.1890	64.3584
 2.1880	64.3859
 2.1870	64.3887
 2.1860	64.3699
 2.1850	64.3054
 2.1840	64.3487
 2.1830	64.4354
 2.1820	64.3629
 2.1810	64.3603
 2.1800	64.4163
 2.1790	64.4261
 2.1780	64.4270
 2.1770	64.3640
 2.1760	64.5007
 2.1750	64.4587
 2.1740	64.4487
 2.1730	64.4917
 2.1720	64.5313
 2.1710	64.5541
 2.1700	64.5877
 2.1690	64.5560
 2.1680	64.5930
 2.1670	64.5925
 2.1660	64.5924
 2.1650	64.6203
 2.1640	64.7031
 2.1630	64.7100
 2.1620	64.6408
 2.1610	64.6795
 2.1600	64.6635
 2.1590	64.5724
 2.1580	64.5810
 2.1570	64.6239
 2.1560	64.6890
 2.1550	64.6344
 2.1540	64.6766
 2.1530	64.6438
 2.1520	64.7482
 2.1510	64.6768
 2.1500	64.7349
 2.1490	64.6230
 2.1480	64.6565
 2.1470	64.6742
 2.1460	64.6873
 2.1450	64.6921
 2.1440	64.7219
 2.1430	64.6906
 2.1420	64.6842
 2.1410	64.6364
 2.1400	64.6304
 2.1390	64.6284
 2.1380	64.6357
 2.1370	64.5722
 2.1360	64.5533
 2.1350	64.5386
 2.1340	64.4291
 2.1330	64.3656
 2.1320	64.3461
 2.1310	64.2066
 2.1300	64.2369
 2.1290	64.1926
 2.1280	64.1307
 2.1270	64.0587
 2.1260	64.0593
 2.1250	64.0179
 2.1240	64.0020
 2.1230	63.9186
 2.1220	63.9434
 2.1210	63.8774
 2.1200	63.8616
 2.1190	63.7987
 2.1180	63.7523
 2.1170	63.7080
 2.1160	63.6485
 2.1150	63.5676
 2.1140	63.5013
 2.1130	63.4698
 2.1120	63.5115
 2.1110	63.4845
 2.1100	63.4601
 2.1090	63.4285
 2.1080	63.5099
 2.1070	63.5917
 2.1060	63.6140
 2.1050	63.6473
 2.1040	63.7667
 2.1030	63.8078
 2.1020	63.8586
 2.1010	63.8593
 2.1000	63.9067
 2.0990	64.0041
 2.0980	63.9872
 2.0970	64.0311
 2.0960	64.0649
 2.0950	64.0107
 2.0940	64.0219
 2.0930	64.0782
 2.0920	64.1086
 2.0910	64.1094
 2.0900	64.1221
 2.0890	64.0535
 2.0880	64.0645
 2.0870	64.0713
 2.0860	64.1088
 2.0850	64.1077
 2.0840	64.1200
 2.0830	64.1590
 2.0820	64.1624
 2.0810	64.1381
 2.0800	64.1869
 2.0790	64.2276
 2.0780	64.2823
 2.0770	64.2855
 2.0760	64.2706
 2.0750	64.2920
 2.0740	64.2995
 2.0730	64.3053
 2.0720	64.3817
 2.0710	64.4367
 2.0700	64.4363
 2.0690	64.3935
 2.0680	64.3669
 2.0670	64.4415
 2.0660	64.4984
 2.0650	64.4872
 2.0640	64.4422
 2.0630	64.4454
 2.0620	64.4970
 2.0610	64.5269
 2.0600	64.5489
 2.0590	64.5713
 2.0580	64.5263
 2.0570	64.5256
 2.0560	64.5648
 2.0550	64.5416
 2.0540	64.6033
 2.0530	64.6614
 2.0520	64.6265
 2.0510	64.6306
 2.0500	64.6648
 2.0490	64.6951
 2.0480	64.7129
 2.0470	64.7217
 2.0460	64.7228
 2.0450	64.7400
 2.0440	64.7709
 2.0430	64.8247
 2.0420	64.8174
 2.0410	64.9150
 2.0400	64.9464
 2.0390	64.9730
 2.0380	64.9607
 2.0370	65.0054
 2.0360	64.9725
 2.0350	65.0148
 2.0340	65.0321
 2.0330	64.9892
 2.0320	64.9707
 2.0310	65.0287
 2.0300	65.0514
 2.0290	65.0077
 2.0280	64.9906
 2.0270	65.0356
 2.0260	65.0103
 2.0250	64.9761
 2.0240	64.9777
 2.0230	64.9521
 2.0220	64.9827
 2.0210	65.0263
 2.0200	64.9848
 2.0190	64.9480
 2.0180	64.9293
 2.0170	64.9328
 2.0160	64.8878
 2.0150	64.9043
 2.0140	64.9149
 2.0130	64.9537
 2.0120	64.9091
 2.0110	64.8888
 2.0100	64.9203
 2.0090	64.9439
 2.0080	64.8439
 2.0070	64.9414
 2.0060	64.9192
 2.0050	64.9363
 2.0040	64.9331
 2.0030	64.9731
 2.0020	64.9174
 2.0010	64.9410
 2.0000	64.9709
 1.9990	65.0086
 1.9980	64.9297
 1.9970	64.9380
 1.9960	64.9528
 1.9950	64.9441
 1.9940	64.8782
 1.9930	64.9501
 1.9920	64.8835
 1.9910	64.9165
 1.9900	64.9241
 1.9890	64.9312
 1.9880	64.9186
 1.9870	64.8752
 1.9860	64.9203
 1.9850	64.9648
 1.9840	64.8773
 1.9830	64.9620
 1.9820	64.9022
 1.9810	64.9287
 1.9800	64.8177
 1.9790	64.9090
 1.9780	64.8845
 1.9770	64.9821
 1.9760	64.8940
 1.9750	64.8928
 1.9740	64.8923
 1.9730	64.9362
 1.9720	64.9069
 1.9710	64.8677
 1.9700	64.8908
 1.9690	64.9614
 1.9680	64.9266
 1.9670	64.9058
 1.9660	64.8618
 1.9650	64.9162
 1.9640	64.9233
 1.9630	64.9786
 1.9620	64.9134
 1.9610	64.9277
 1.9600	64.9675
 1.9590	64.9420
 1.9580	64.8409
 1.9570	64.9577
 1.9560	64.9531
 1.9550	64.8774
 1.9540	64.9215
 1.9530	64.9603
 1.9520	64.9672
 1.9510	64.9665
 1.9500	64.9334
 1.9490	64.9853
 1.9480	64.8882
 1.9470	64.9371
 1.9460	64.9317
 1.9450	65.0031
 1.9440	64.9385
 1.9430	64.9386
 1.9420	64.9214
 1.9410	64.9930
 1.9400	64.9415
 1.9390	65.0143
 1.9380	64.9024
 1.9370	65.0215
 1.9360	64.9450
 1.9350	65.0529
 1.9340	64.9683
 1.9330	65.0011
 1.9320	64.9960
 1.9310	65.0519
 1.9300	64.9793
 1.9290	64.9854
 1.9280	65.0156
 1.9270	65.0375
 1.9260	64.9031
 1.9250	65.1753
 1.9240	64.9940
 1.9230	65.0100
 1.9220	64.9899
 1.9210	65.0677
 1.9200	65.0345
 1.9190	65.0806
 1.9180	65.0569
 1.9170	65.1237
 1.9160	65.1208
 1.9150	65.1084
 1.9140	65.0391
 1.9130	65.1341
 1.9120	65.1600
 1.9110	65.1706
 1.9100	65.1714
 1.9090	65.1609
 1.9080	65.2056
 1.9070	65.1885
 1.9060	65.1603
 1.9050	65.2407
 1.9040	65.1988
 1.9030	65.2952
 1.9020	65.2256
 1.9010	65.2958
 1.9000	65.3264
 1.8990	65.3508
 1.8980	65.3721
 1.8970	65.3804
 1.8960	65.3908
 1.8950	65.4778
 1.8940	65.4506
 1.8930	65.4968
 1.8920	65.4424
 1.8910	65.5716
 1.8900	65.5271
 1.8890	65.5273
 1.8880	65.4901
 1.8870	65.5500
 1.8860	65.5501
 1.8850	65.6271
 1.8840	65.6150
 1.8830	65.7121
 1.8820	65.6507
 1.8810	65.7424
 1.8800	65.6492
 1.8790	65.6884
 1.8780	65.6377
 1.8770	65.7378
 1.8760	65.6742
 1.8750	65.7302
 1.8740	65.7362
 1.8730	65.6378
 1.8720	65.6560
 1.8710	65.6849
 1.8700	65.7168
 1.8690	65.7222
 1.8680	65.6484
 1.8670	65.7910
 1.8660	65.7387
 1.8650	65.7719
 1.8640	65.8030
 1.8630	65.8191
 1.8620	65.7082
 1.8610	65.7583
 1.8600	65.7669
 1.8590	65.7674
 1.8580	65.7137
 1.8570	65.7896
 1.8560	65.7137
 1.8550	65.7306
 1.8540	65.7150
 1.8530	65.7518
 1.8520	65.7886
 1.8510	65.8742
 1.8500	65.7843
 1.8490	65.8760
 1.8480	65.8470
 1.8470	65.8121
 1.8460	65.8645
 1.8450	65.9071
 1.8440	65.8497
 1.8430	65.8328
 1.8420	65.9104
 1.8410	65.8997
 1.8400	65.8576
 1.8390	65.8811
 1.8380	65.8653
 1.8370	65.8759
 1.8360	65.8704
 1.8350	65.8829
 1.8340	65.8685
 1.8330	65.9500
 1.8320	65.9148
 1.8310	65.9321
 1.8300	65.8874
 1.8290	65.9358
 1.8280	65.9402
 1.8270	65.9623
 1.8260	65.9531
 1.8250	65.9310
 1.8240	65.9384
 1.8230	66.0216
 1.8220	66.0031
 1.8210	65.9685
 1.8200	65.9319
 1.8190	65.9146
 1.8180	65.9050
 1.8170	65.9664
 1.8160	65.9741
 1.8150	65.9897
 1.8140	66.0427
 1.8130	66.0495
 1.8120	66.0203
 1.8110	66.0141
 1.8100	66.0139
 1.8090	66.0198
 1.8080	66.0474
 1.8070	66.0927
 1.8060	66.0997
 1.8050	66.1099
 1.8040	66.0996
 1.8030	66.0826
 1.8020	66.0864
 1.8010	66.1113
 1.8000	66.0515
 1.7990	66.0603
 1.7980	66.0678
 1.7970	66.0146
 1.7960	66.0260
 1.7950	66.0556
 1.7940	66.0368
 1.7930	66.0543
 1.7920	66.0430
 1.7910	66.0444
 1.7900	66.0375
 1.7890	66.0945
 1.7880	66.0827
 1.7870	66.0247
 1.7860	66.0576
 1.7850	66.0712
 1.7840	66.0025
 1.7830	65.9758
 1.7820	66.0539
 1.7810	66.0813
 1.7800	66.0379
 1.7790	66.0781
 1.7780	66.0994
 1.7770	66.0944
 1.7760	66.0189
 1.7750	65.9862
 1.7740	66.0451
 1.7730	66.0544
 1.7720	66.0480
 1.7710	66.0130
 1.7700	66.0198
 1.7690	66.0472
 1.7680	66.0507
 1.7670	66.0062
 1.7660	66.0423
 1.7650	66.1051
 1.7640	66.0964
 1.7630	66.0478
 1.7620	66.0199
 1.7610	66.0106
 1.7600	66.0156
 1.7590	66.0242
 1.7580	66.0451
 1.7570	66.0455
 1.7560	66.0881
 1.7550	66.0845
 1.7540	66.0251
 1.7530	66.0307
 1.7520	66.0889
 1.7510	66.0888
 1.7500	66.0864
 1.7490	66.1107
 1.7480	66.1543
 1.7470	66.1243
 1.7460	66.0862
 1.7450	66.1164
 1.7440	66.1224
 1.7430	66.1287
 1.7420	66.1175
 1.7410	66.0832
 1.7400	66.1126
 1.7390	66.1361
 1.7380	66.2177
 1.7370	66.2149
 1.7360	66.2171
 1.7350	66.1439
 1.7340	66.1352
 1.7330	66.1334
 1.7320	66.2255
 1.7310	66.1909
 1.7300	66.1894
 1.7290	66.1419
 1.7280	66.2289
 1.7270	66.2335
 1.7260	66.2110
 1.7250	66.1761
 1.7240	66.2012
 1.7230	66.2132
 1.7220	66.2208
 1.7210	66.2342
 1.7200	66.1787
 1.7190	66.2148
 1.7180	66.2064
 1.7170	66.2587
 1.7160	66.2525
 1.7150	66.1947
 1.7140	66.2112
 1.7130	66.2021
 1.7120	66.2350
 1.7110	66.1627
 1.7100	66.2493
 1.7090	66.2192
 1.7080	66.2078
 1.7070	66.1872
 1.7060	66.1543
 1.7050	66.1477
 1.7040	66.1790
 1.7030	66.1593
 1.7020	66.1949
 1.7010	66.1343
 1.7000	66.2067
 1.6990	66.2034
 1.6980	66.2499
 1.6970	66.1748
 1.6960	66.2864
 1.6950	66.1745
 1.6940	66.2208
 1.6930	66.1890
 1.6920	66.2495
 1.6910	66.1733
 1.6900	66.2070
 1.6890	66.1944
 1.6880	66.2117
 1.6870	66.2206
 1.6860	66.2434
 1.6850	66.1227
 1.6840	66.2734
 1.6830	66.2538
 1.6820	66.2193
 1.6810	66.1415
 1.6800	66.1814
 1.6790	66.1824
 1.6780	66.2158
 1.6770	66.2161
 1.6760	66.3082
 1.6750	66.2412
 1.6740	66.2421
 1.6730	66.0989
 1.6720	66.2103
 1.6710	66.1566
 1.6700	66.2277
 1.6690	66.2545
 1.6680	66.1756
 1.6670	66.2302
 1.6660	66.1897
 1.6650	66.1510
 1.6640	66.2764
 1.6630	66.2161
 1.6620	66.2356
 1.6610	66.2372
 1.6600	66.2119
 1.6590	66.1324
 1.6580	66.2166
 1.6570	66.2715
 1.6560	66.1680
 1.6550	66.1504
 1.6540	66.3059
 1.6530	66.2445
 1.6520	66.3062
 1.6510	66.2363
 1.6500	66.3574
 1.6490	66.1386
 1.6480	66.2967
 1.6470	66.1677
 1.6460	66.3107
 1.6450	66.2060
 1.6440	66.1919
 1.6430	66.2267
 1.6420	66.3593
 1.6410	66.1867
 1.6400	66.2572
 1.6390	66.1993
 1.6380	66.2357
 1.6370	66.2336
 1.6360	66.2410
 1.6350	66.2597
 1.6340	66.2712
 1.6330	66.2451
 1.6320	66.2367
 1.6310	66.2042
 1.6300	66.2583
 1.6290	66.1645
 1.6280	66.2725
 1.6270	66.2841
 1.6260	66.2631
 1.6250	66.2797
 1.6240	66.3014
 1.6230	66.2043
 1.6220	66.2494
 1.6210	66.1745
 1.6200	66.3220
 1.6190	66.3060
 1.6180	66.3057
 1.6170	66.2560
 1.6160	66.3342
 1.6150	66.2378
 1.6140	66.2603
 1.6130	66.3292
 1.6120	66.3055
 1.6110	66.2003
 1.6100	66.3278
 1.6090	66.3129
 1.6080	66.3250
 1.6070	66.2562
 1.6060	66.3521
 1.6050	66.2670
 1.6040	66.3048
 1.6030	66.2623
 1.6020	66.3029
 1.6010	66.2564
 1.6000	66.3509
 1.5990	66.2954
 1.5980	66.3113
 1.5970	66.2777
 1.5960	66.2968
 1.5950	66.2566
 1.5940	66.3225
 1.5930	66.2831
 1.5920	66.3308
 1.5910	66.2926
 1.5900	66.2760
 1.5890	66.3349
 1.5880	66.3771
 1.5870	66.3199
 1.5860	66.3070
 1.5850	66.2724
 1.5840	66.3235
 1.5830	66.3015
 1.5820	66.3569
 1.5810	66.3441
 1.5800	66.3354
 1.5790	66.3205
 1.5780	66.3013
 1.5770	66.2848
 1.5760	66.4184
 1.5750	66.2772
 1.5740	66.2949
 1.5730	66.2559
 1.5720	66.2934
 1.5710	66.2786
 1.5700	66.3857
 1.5690	66.3511
 1.5680	66.3196
 1.5670	66.2913
 1.5660	66.3345
 1.5650	66.3244
 1.5640	66.3326
 1.5630	66.3124
 1.5620	66.3220
 1.5610	66.2587
 1.5600	66.2699
 1.5590	66.2798
 1.5580	66.2810
 1.5570	66.2611
 1.5560	66.3270
 1.5550	66.3220
 1.5540	66.3393
 1.5530	66.2570
 1.5520	66.2950
 1.5510	66.2763
 1.5500	66.3068
 1.5490	66.2538
 1.5480	66.2853
 1.5470	66.2852
 1.5460	66.3061
 1.5450	66.2639
 1.5440	66.2792
 1.5430	66.2854
 1.5420	66.2899
 1.5410	66.2901
 1.5400	66.2985
 1.5390	66.2658
 1.5380	66.2713
 1.5370	66.2419
 1.5360	66.2598
 1.5350	66.2559
 1.5340	66.2776
 1.5330	66.2865
 1.5320	66.3067
 1.5310	66.3067
 1.5300	66.2479
 1.5290	66.2335
 1.5280	66.2741
 1.5270	66.2847
 1.5260	66.2938
 1.5250	66.2910
 1.5240	66.3048
 1.5230	66.3322
 1.5220	66.3189
 1.5210	66.2857
 1.5200	66.2925
 1.5190	66.2842
 1.5180	66.2684
 1.5170	66.2584
 1.5160	66.2557
 1.5150	66.2034
 1.5140	66.2409
 1.5130	66.2518
 1.5120	66.2950
 1.5110	66.2822
 1.5100	66.2823
 1.5090	66.3150
 1.5080	66.3173
 1.5070	66.2704
 1.5060	66.2363
 1.5050	66.2612
 1.5040	66.3354
 1.5030	66.3193
 1.5020	66.2729
 1.5010	66.2945
 1.5000	66.3106
 1.4990	66.2745
 1.4980	66.2423
 1.4970	66.2610
 1.4960	66.2249
 1.4950	66.2692
 1.4940	66.3744
 1.4930	66.3075
 1.4920	66.2502
 1.4910	66.2657
 1.4900	66.2597
 1.4890	66.2891
 1.4880	66.2910
 1.4870	66.2751
 1.4860	66.2576
 1.4850	66.2770
 1.4840	66.2683
 1.4830	66.2551
 1.4820	66.2098
 1.4810	66.2034
 1.4800	66.1616
 1.4790	66.1571
 1.4780	66.1465
 1.4770	66.1505
 1.4760	66.0999
 1.4750	66.0969
 1.4740	66.0774
 1.4730	66.0158
 1.4720	65.9902
 1.4710	65.9774
 1.4700	66.0472
 1.4690	66.1554
 1.4680	66.1428
 1.4670	66.2089
 1.4660	66.2026
 1.4650	66.2094
 1.4640	66.2676
 1.4630	66.2544
 1.4620	66.2422
 1.4610	66.3203
 1.4600	66.2905
 1.4590	66.2622
 1.4580	66.2896
 1.4570	66.2534
 1.4560	66.2305
 1.4550	66.2540
 1.4540	66.2437
 1.4530	66.2814
 1.4520	66.3265
 1.4510	66.3114
 1.4500	66.1764
 1.4490	66.2320
 1.4480	66.2488
 1.4470	66.2546
 1.4460	66.2575
 1.4450	66.3152
 1.4440	66.2774
 1.4430	66.2558
 1.4420	66.2730
 1.4410	66.2974
 1.4400	66.2538
 1.4390	66.2609
 1.4380	66.2084
 1.4370	66.3300
 1.4360	66.2675
 1.4350	66.1890
 1.4340	66.2052
 1.4330	66.2556
 1.4320	66.2171
 1.4310	66.2839
 1.4300	66.2181
 1.4290	66.2066
 1.4280	66.2061
 1.4270	66.2412
 1.4260	66.2567
 1.4250	66.2727
 1.4240	66.2010
 1.4230	66.1833
 1.4220	66.2082
 1.4210	66.2727
 1.4200	66.2078
 1.4190	66.2161
 1.4180	66.2285
 1.4170	66.2381
 1.4160	66.2361
 1.4150	66.2377
 1.4140	66.2513
 1.4130	66.1946
 1.4120	66.2066
 1.4110	66.2407
 1.4100	66.2623
 1.4090	66.2850
 1.4080	66.2359
 1.4070	66.2706
 1.4060	66.2492
 1.4050	66.2962
 1.4040	66.1617
 1.4030	66.2159
 1.4020	66.0886
 1.4010	65.9222
 1.4000	65.7677
 1.3990	65.6212
 1.3980	65.2431
 1.3970	64.2634
 1.3960	61.8906
 1.3950	58.6522
 1.3940	55.6609
 1.3930	54.6208
 1.3920	55.8674
 1.3910	58.9991
 1.3900	62.2210
 1.3890	64.6357
 1.3880	65.6677
 1.3870	66.0738
 1.3860	66.1316
 1.3850	66.2400
 1.3840	66.2761
 1.3830	66.2687
 1.3820	66.1449
 1.3810	66.2391
 1.3800	66.2457
 1.3790	66.2785
 1.3780	66.2712
 1.3770	66.3281
 1.3760	66.1902
 1.3750	66.3104
 1.3740	66.2894
 1.3730	66.3181
 1.3720	66.3358
 1.3710	66.3482
 1.3700	66.3186
 1.3690	66.4585
 1.3680	66.3822
 1.3670	66.3610
 1.3660	66.3235
 1.3650	66.5171
 1.3640	66.3884
 1.3630	66.5037
 1.3620	66.3103
 1.3610	66.4171
 1.3600	66.3789
 1.3590	66.3661
 1.3580	66.4436
 1.3570	66.4314
 1.3560	66.4850
 1.3550	66.3632
 1.3540	66.3907
 1.3530	66.4442
 1.3520	66.3750
 1.3510	66.4318
 1.3500	66.3541
 1.3490	66.4724
 1.3480	66.3790
 1.3470	66.3131
 1.3460	66.4094
 1.3450	66.4350
 1.3440	66.4127
 1.3430	66.3724
 1.3420	66.3916
 1.3410	66.4028
 1.3400	66.3653
 1.3390	66.4160
 1.3380	66.3638
 1.3370	66.4062
 1.3360	66.3969
 1.3350	66.4198
 1.3340	66.4033
 1.3330	66.3694
 1.3320	66.3633
 1.3310	66.3657
 1.3300	66.3426
 1.3290	66.4400
 1.3280	66.4145
 1.3270	66.4693
 1.3260	66.3704
 1.3250	66.4847
 1.3240	66.4251
 1.3230	66.4222
 1.3220	66.3917
 1.3210	66.4290
 1.3200	66.3836
 1.3190	66.3818
 1.3180	66.3598
 1.3170	66.3618
 1.3160	66.3730
 1.3150	66.4259
 1.3140	66.3931
 1.3130	66.4472
 1.3120	66.3542
 1.3110	66.3953
 1.3100	66.4155
 1.3090	66.4129
 1.3080	66.4098
 1.3070	66.3486
 1.3060	66.4122
 1.3050	66.4344
 1.3040	66.3729
 1.3030	66.3565
 1.3020	66.3243
 1.3010	66.3204
 1.3000	66.3658
 1.2990	66.3756
 1.2980	66.2883
 1.2970	66.3341
 1.2960	66.3627
 1.2950	66.3642
 1.2940	66.3958
 1.2930	66.3903
 1.2920	66.3718
 1.2910	66.3783
 1.2900	66.4399
 1.2890	66.4448
 1.2880	66.4687
 1.2870	66.4548
 1.2860	66.3589
 1.2850	66.4062
 1.2840	66.4123
 1.2830	66.4081
 1.2820	66.3921
 1.2810	66.3597
 1.2800	66.2723
 1.2790	66.3044
 1.2780	66.3150
 1.2770	66.3335
 1.2760	66.3120
 1.2750	66.3589
 1.2740	66.3588
 1.2730	66.4038
 1.2720	66.3246
 1.2710	66.2930
 1.2700	66.3141
 1.2690	66.4181
 1.2680	66.4165
 1.2670	66.4412
 1.2660	66.4378
 1.2650	66.4831
 1.2640	66.3983
 1.2630	66.3859
 1.2620	66.3729
 1.2610	66.4466
 1.2600	66.4514
 1.2590	66.4990
 1.2580	66.4164
 1.2570	66.4337
 1.2560	66.3826
 1.2550	66.4258
 1.2540	66.4075
 1.2530	66.3917
 1.2520	66.3790
 1.2510	66.4075
 1.2500	66.4251
 1.2490	66.4667
 1.2480	66.3776
 1.2470	66.3996
 1.2460	66.3950
 1.2450	66.4054
 1.2440	66.4160
 1.2430	66.4474
 1.2420	66.4376
 1.2410	66.4072
 1.2400	66.4142
 1.2390	66.3937
 1.2380	66.3909
 1.2370	66.3781
 1.2360	66.3720
 1.2350	66.3791
 1.2340	66.3918
 1.2330	66.4135
 1.2320	66.4081
 1.2310	66.4523
 1.2300	66.4476
 1.2290	66.3958
 1.2280	66.3902
 1.2270	66.4207
 1.2260	66.4006
 1.2250	66.4142
 1.2240	66.3919
 1.2230	66.3495
 1.2220	66.3779
 1.2210	66.3895
 1.2200	66.3919
 1.2190	66.4284
 1.2180	66.4356
 1.2170	66.4011
 1.2160	66.3854
 1.2150	66.3542
 1.2140	66.3934
 1.2130	66.4275
 1.2120	66.4087
 1.2110	66.3979
 1.2100	66.3596
 1.2090	66.3410
 1.2080	66.4033
 1.2070	66.4453
 1.2060	66.3991
 1.2050	66.3795
 1.2040	66.3789
 1.2030	66.4082
 1.2020	66.4041
 1.2010	66.4006
 1.2000	66.3988
 1.1990	66.3892
 1.1980	66.4149
 1.1970	66.3906
 1.1960	66.3420
 1.1950	66.3597
 1.1940	66.3851
 1.1930	66.3618
 1.1920	66.3576
 1.1910	66.4009
 1.1900	66.3946
 1.1890	66.4437
 1.1880	66.4128
 1.1870	66.3626
 1.1860	66.3782
 1.1850	66.3226
 1.1840	66.3817
 1.1830	66.3595
 1.1820	66.3240
 1.1810	66.3619
 1.1800	66.3883
 1.1790	66.3555
 1.1780	66.3818
 1.1770	66.3895
 1.1760	66.3812
 1.1750	66.3639
 1.1740	66.3599
 1.1730	66.3776
 1.1720	66.3536
 1.1710	66.3899
 1.1700	66.3759
 1.1690	66.3698
 1.1680	66.3671
 1.1670	66.3825
 1.1660	66.4150
 1.1650	66.4385
 1.1640	66.4032
 1.1630	66.3035
 1.1620	66.3499
 1.1610	66.3944
 1.1600	66.4263
 1.1590	66.3841
 1.1580	66.3785
 1.1570	66.3488
 1.1560	66.3760
 1.1550	66.3200
 1.1540	66.3331
 1.1530	66.3834
 1.1520	66.3439
 1.1510	66.3442
 1.1500	66.3876
 1.1490	66.2799
 1.1480	66.3453
 1.1470	66.3436
 1.1460	66.3517
 1.1450	66.3683
 1.1440	66.3691
 1.1430	66.3264
 1.1420	66.3588
 1.1410	66.3751
 1.1400	66.4121
 1.1390	66.3084
 1.1380	66.3463
 1.1370	66.3107
 1.1360	66.3638
 1.1350	66.3306
 1.1340	66.3982
 1.1330	66.2852
 1.1320	66.3050
 1.1310	66.2948
 1.1300	66.4016
 1.1290	66.3228
 1.1280	66.3635
 1.1270	66.2921
 1.1260	66.3362
 1.1250	66.2805
 1.1240	66.2962
 1.1230	66.2059
 1.1220	66.3171
 1.1210	66.2698
 1.1200	66.2958
 1.1190	66.2427
 1.1180	66.1956
 1.1170	66.2476
 1.1160	66.3038
 1.1150	66.2852
 1.1140	66.2659
 1.1130	66.2107
 1.1120	66.2125
 1.1110	66.2405
 1.1100	66.2511
 1.1090	66.0785
 1.1080	66.2367
 1.1070	66.1331
 1.1060	66.1411
 1.1050	66.1000
 1.1040	66.2193
 1.1030	66.1129
 1.1020	66.1716
 1.1010	66.1567
 1.1000	66.2286
 1.0990	66.1775
 1.0980	66.1034
 1.0970	66.0635
 1.0960	66.1454
 1.0950	66.0949
 1.0940	66.1203
 1.0930	66.0643
 1.0920	66.0668
 1.0910	66.0307
 1.0900	66.0858
 1.0890	65.9862
 1.0880	66.0795
 1.0870	65.9415
 1.0860	66.0508
 1.0850	65.9626
 1.0840	65.9814
 1.0830	65.9571
 1.0820	65.9569
 1.0810	65.8168
 1.0800	65.9328
 1.0790	65.8504
 1.0780	65.9522
 1.0770	65.7462
 1.0760	65.8999
 1.0750	65.7986
 1.0740	65.8237
 1.0730	65.7485
 1.0720	65.8537
 1.0710	65.7984
 1.0700	65.6731
 1.0690	65.6964
 1.0680	65.7853
 1.0670	65.7121
 1.0660	65.7303
 1.0650	65.6424
 1.0640	65.7227
 1.0630	65.7039
 1.0620	65.6894
 1.0610	65.6566
 1.0600	65.6142
 1.0590	65.6414
 1.0580	65.6492
 1.0570	65.6224
 1.0560	65.6308
 1.0550	65.5787
 1.0540	65.6164
 1.0530	65.6027
 1.0520	65.5262
 1.0510	65.5380
 1.0500	65.5944
 1.0490	65.5163
 1.0480	65.6398
 1.0470	65.5050
 1.0460	65.5908
 1.0450	65.5756
 1.0440	65.6346
 1.0430	65.4639
 1.0420	65.5861
 1.0410	65.5326
 1.0400	65.5889
 1.0390	65.4937
 1.0380	65.5079
 1.0370	65.5866
 1.0360	65.5822
 1.0350	65.5447
 1.0340	65.5795
 1.0330	65.5574
 1.0320	65.5800
 1.0310	65.5555
 1.0300	65.6137
 1.0290	65.5651
 1.0280	65.5868
 1.0270	65.5472
 1.0260	65.6201
 1.0250	65.5647
 1.0240	65.5913
 1.0230	65.5524
 1.0220	65.5890
 1.0210	65.6489
 1.0200	65.6598
 1.0190	65.6509
 1.0180	65.6366
 1.0170	65.6212
 1.0160	65.6791
 1.0150	65.5735
 1.0140	65.6334
 1.0130	65.6631
 1.0120	65.7196
 1.0110	65.6909
 1.0100	65.7909
 1.0090	65.7340
 1.0080	65.7726
 1.0070	65.7357
 1.0060	65.7607
 1.0050	65.7431
 1.0040	65.7529
 1.0030	65.7748
 1.0020	65.8206
 1.0010	65.8191
 1.0000	65.8454
 0.9990	65.7774
 0.9980	65.8404
 0.9970	65.8071
 0.9960	65.8336
 0.9950	65.8856
 0.9940	65.9446
 0.9930	65.8738
 0.9920	65.9376
 0.9910	65.9188
 0.9900	65.9586
 0.9890	65.9944
 0.9880	65.8971
 0.9870	65.8961
 0.9860	65.9619
 0.9850	65.9537
 0.9840	66.0110
 0.9830	66.0661
 0.9820	66.1190
 0.9810	66.0532
 0.9800	66.0037
 0.9790	66.0084
 0.9780	66.0897
 0.9770	66.0759
 0.9760	66.1003
 0.9750	66.0997
 0.9740	66.1036
 0.9730	66.1032
 0.9720	66.0881
 0.9710	66.0602
 0.9700	66.1446
 0.9690	66.1682
 0.9680	66.1299
 0.9670	66.1585
 0.9660	66.1993
 0.9650	66.1613
 0.9640	66.1558
 0.9630	66.2236
 0.9620	66.2318
 0.9610	66.2425
 0.9600	66.2253
 0.9590	66.2548
 0.9580	66.2931
 0.9570	66.2351
 0.9560	66.2776
 0.9550	66.2140
 0.9540	66.1571
 0.9530	66.0828
 0.9520	65.9755
 0.9510	65.8799
 0.9500	65.9092
 0.9490	65.9624
 0.9480	66.0857
 0.9470	66.1760
 0.9460	66.2598
 0.9450	66.3421
 0.9440	66.3969
 0.9430	66.3810
 0.9420	66.4443
 0.9410	66.4323
 0.9400	66.3802
 0.9390	66.3544
 0.9380	66.3862
 0.9370	66.4333
 0.9360	66.4710
 0.9350	66.4171
 0.9340	66.4118
 0.9330	66.4781
 0.9320	66.5325
 0.9310	66.5327
 0.9300	66.4977
 0.9290	66.4814
 0.9280	66.4536
 0.9270	66.4547
 0.9260	66.5093
 0.9250	66.5680
 0.9240	66.5380
 0.9230	66.5103
 0.9220	66.5470
 0.9210	66.6055
 0.9200	66.5554
 0.9190	66.5316
 0.9180	66.5125
 0.9170	66.5360
 0.9160	66.5592
 0.9150	66.5946
 0.9140	66.5998
 0.9130	66.5853
 0.9120	66.6038
 0.9110	66.5868
 0.9100	66.5785
 0.9090	66.5748
 0.9080	66.6004
 0.9070	66.6278
 0.9060	66.6403
 0.9050	66.6158
 0.9040	66.5928
 0.9030	66.5896
 0.9020	66.5335
 0.9010	66.5669
 0.9000	66.6490
 0.8990	66.6892
 0.8980	66.6627
 0.8970	66.6564
 0.8960	66.6178
 0.8950	66.6227
 0.8940	66.6330
 0.8930	66.6974
 0.8920	66.6987
 0.8910	66.6593
 0.8900	66.6422
 0.8890	66.6630
 0.8880	66.6845
 0.8870	66.6965
 0.8860	66.6798
 0.8850	66.7395
 0.8840	66.6784
 0.8830	66.6713
 0.8820	66.6778
 0.8810	66.6732
 0.8800	66.7068
 0.8790	66.7418
 0.8780	66.6982
 0.8770	66.6952
 0.8760	66.6523
 0.8750	66.6931
 0.8740	66.7567
 0.8730	66.7026
 0.8720	66.6542
 0.8710	66.6655
 0.8700	66.6584
 0.8690	66.6780
 0.8680	66.6887
 0.8670	66.6826
 0.8660	66.7111
 0.8650	66.6960
 0.8640	66.6516
 0.8630	66.6772
 0.8620	66.6355
 0.8610	66.6664
 0.8600	66.7820
 0.8590	66.7799
 0.8580	66.7540
 0.8570	66.7923
 0.8560	66.8191
 0.8550	66.8243
 0.8540	66.7535
 0.8530	66.8412
 0.8520	66.8207
 0.8510	66.8389
 0.8500	66.8234
 0.8490	66.8113
 0.8480	66.7999
 0.8470	66.8415
 0.8460	66.8888
 0.8450	66.8585
 0.8440	66.8851
 0.8430	66.8418
 0.8420	66.8969
 0.8410	66.9138
 0.8400	66.9035
 0.8390	66.8460
 0.8380	66.8721
 0.8370	66.8757
 0.8360	66.8510
 0.8350	66.8743
 0.8340	66.8929
 0.8330	66.8890
 0.8320	66.9000
 0.8310	66.8559
 0.8300	66.8671
 0.8290	66.8764
 0.8280	66.8655
 0.8270	66.9106
 0.8260	66.9274
 0.8250	66.9343
 0.8240	66.8504
 0.8230	66.9171
 0.8220	66.9186
 0.8210	66.9395
 0.8200	66.9351
 0.8190	66.9050
 0.8180	66.9107
 0.8170	66.9598
 0.8160	66.8756
 0.8150	66.9549
 0.8140	66.9585
 0.8130	66.9324
 0.8120	66.9667
 0.8110	66.9614
 0.8100	66.9544
 0.8090	66.9450
 0.8080	67.0160
 0.8070	66.9724
 0.8060	66.9505
 0.8050	66.9661
 0.8040	66.9790
 0.8030	66.9765
 0.8020	66.9844
 0.8010	66.9242
 0.8000	66.9611
 0.7990	66.9346
 0.7980	66.9533
 0.7970	66.9148
 0.7960	66.9333
 0.7950	66.8752
 0.7940	66.9209
 0.7930	66.9071
 0.7920	66.9314
 0.7910	66.8792
 0.7900	66.9030
 0.7890	66.9050
 0.7880	66.8723
 0.7870	66.9161
 0.7860	66.8894
 0.7850	66.9098
 0.7840	66.8544
 0.7830	66.8932
 0.7820	66.9036
 0.7810	66.9183
 0.7800	66.8951
 0.7790	66.8865
 0.7780	66.8972
 0.7770	66.9188
 0.7760	66.9330
 0.7750	66.8911
 0.7740	66.9388
 0.7730	66.8599
 0.7720	66.8556
 0.7710	66.8680
 0.7700	66.9086
 0.7690	66.8799
 0.7680	66.8654
 0.7670	66.8816
 0.7660	66.8909
 0.7650	66.8760
 0.7640	66.8607
 0.7630	66.8443
 0.7620	66.8557
 0.7610	66.8972
 0.7600	66.8653
 0.7590	66.8666
 0.7580	66.8670
 0.7570	66.8674
 0.7560	66.8649
 0.7550	66.8766
 0.7540	66.8881
 0.7530	66.8471
 0.7520	66.8612
 0.7510	66.8657
 0.7500	66.8405
 0.7490	66.8637
 0.7480	66.8541
 0.7470	66.8784
 0.7460	66.8358
 0.7450	66.8307
 0.7440	66.8260
 0.7430	66.8581
 0.7420	66.8591
 0.7410	66.8456
 0.7400	66.8512
 0.7390	66.8522
 0.7380	66.8593
 0.7370	66.8598
 0.7360	66.8433
 0.7350	66.8282
 0.7340	66.8448
 0.7330	66.8336
 0.7320	66.8077
 0.7310	66.8301
 0.7300	66.8208
 0.7290	66.8053
 0.7280	66.7909
 0.7270	66.8051
 0.7260	66.8194
 0.7250	66.8116
 0.7240	66.8254
 0.7230	66.8245
 0.7220	66.8039
 0.7210	66.7944
 0.7200	66.7941
 0.7190	66.8028
 0.7180	66.8144
 0.7170	66.8120
 0.7160	66.7946
 0.7150	66.8058
 0.7140	66.8093
 0.7130	66.8177
 0.7120	66.8064
 0.7110	66.7902
 0.7100	66.7797
 0.7090	66.7815
 0.7080	66.7841
 0.7070	66.7513
 0.7060	66.7608
 0.7050	66.7726
 0.7040	66.7567
 0.7030	66.7693
 0.7020	66.7508
 0.7010	66.7555
 0.7000	66.7534
 0.6990	66.7724
 0.6980	66.7726
 0.6970	66.7442
 0.6960	66.7525
 0.6950	66.7241
 0.6940	66.7442
 0.6930	66.7483
 0.6920	66.7367
 0.6910	66.7453
 0.6900	66.7332
 0.6890	66.7181
 0.6880	66.7138
 0.6870	66.7135
 0.6860	66.7262
 0.6850	66.7245
 0.6840	66.7119
 0.6830	66.7025
 0.6820	66.7139
 0.6810	66.7108
 0.6800	66.6936
 0.6790	66.7036
 0.6780	66.7109
 0.6770	66.7069
 0.6760	66.6896
 0.6750	66.6858
 0.6740	66.6892
 0.6730	66.6907
 0.6720	66.6750
 0.6710	66.6711
 0.6700	66.6680
 0.6690	66.6611
 0.6680	66.6567
 0.6670	66.6601
 0.6660	66.6548
 0.6650	66.6463
 0.6640	66.6276
 0.6630	66.6330
 0.6620	66.6350
 0.6610	66.6419
 0.6600	66.6381
 0.6590	66.6370
 0.6580	66.6304
 0.6570	66.6148
 0.6560	66.6151
 0.6550	66.6110
 0.6540	66.6071
 0.6530	66.6161
 0.6520	66.6119
 0.6510	66.5995
 0.6500	66.5983
 0.6490	66.5935
 0.6480	66.5863
 0.6470	66.5772
 0.6460	66.5780
 0.6450	66.5719
 0.6440	66.5704
 0.6430	66.5683
 0.6420	66.5568
 0.6410	66.5495
 0.6400	66.5387
 0.6390	66.5539
 0.6380	66.5463
 0.6370	66.5332
 0.6360	66.5409
 0.6350	66.5443
 0.6340	66.5351
 0.6330	66.5253
 0.6320	66.5322
 0.6310	66.5262
 0.6300	66.5118
 0.6290	66.4992
 0.6280	66.4913
 0.6270	66.4936
 0.6260	66.4959
 0.6250	66.4785
 0.6240	66.4720
 0.6230	66.4666
 0.6220	66.4596
 0.6210	66.4679
 0.6200	66.4706
 0.6190	66.4669
 0.6180	66.4563
 0.6170	66.4436
 0.6160	66.4407
 0.6150	66.4362
 0.6140	66.4257
 0.6130	66.4219
 0.6120	66.4202
 0.6110	66.4028
 0.6100	66.3892
 0.6090	66.3845
 0.6080	66.3899
 0.6070	66.3862
 0.6060	66.3756
 0.6050	66.3718
 0.6040	66.3666
 0.6030	66.3619
 0.6020	66.3494
 0.6010	66.3486
 0.6000	66.3433
 0.5990	66.3438
 0.5980	66.3377
 0.5970	66.3417
 0.5960	66.3580
 0.5950	66.3671
 0.5940	66.3568
 0.5930	66.3430
 0.5920	66.3475
 0.5910	66.3434
 0.5900	66.3223
 0.5890	66.3156
 0.5880	66.3018
 0.5870	66.2903
 0.5860	66.2788
 0.5850	66.2699
 0.5840	66.2746
 0.5830	66.2674
 0.5820	66.2571
 0.5810	66.2443
 0.5800	66.2476
 0.5790	66.2270
 0.5780	66.2146
 0.5770	66.2193
 0.5760	66.2041
 0.5750	66.1901
 0.5740	66.1863
 0.5730	66.1654
 0.5720	66.1499
 0.5710	66.1489
 0.5700	66.1404
 0.5690	66.1343
 0.5680	66.1253
 0.5670	66.1072
 0.5660	66.1013
 0.5650	66.0942
 0.5640	66.0918
 0.5630	66.0738
 0.5620	66.0648
 0.5610	66.0238
 0.5600	66.0184
 0.5590	66.0016
 0.5580	65.9847
 0.5570	65.9842
 0.5560	65.9677
 0.5550	65.9513
 0.5540	65.9409
 0.5530	65.9288
 0.5520	65.9178
 0.5510	65.9012
 0.5500	65.8873
 0.5490	65.8771
 0.5480	65.8553
 0.5470	65.8227
 0.5460	65.8238
 0.5450	65.8058
 0.5440	65.7842
 0.5430	65.7833
 0.5420	65.7602
 0.5410	65.7560
 0.5400	65.7430
 0.5390	65.7218
 0.5380	65.7162
 0.5370	65.6984
 0.5360	65.6898
 0.5350	65.6667
 0.5340	65.6547
 0.5330	65.6302
 0.5320	65.6169
 0.5310	65.5989
 0.5300	65.5763
 0.5290	65.5438
 0.5280	65.5459
 0.5270	65.5389
 0.5260	65.5109
 0.5250	65.4960
 0.5240	65.4883
 0.5230	65.4693
 0.5220	65.4435
 0.5210	65.4249
 0.5200	65.4009
 0.5190	65.3907
 0.5180	65.3817
 0.5170	65.3601
 0.5160	65.3332
 0.5150	65.3152
 0.5140	65.2801
 0.5130	65.2588
 0.5120	65.2313
 0.5110	65.2296
 0.5100	65.1817
 0.5090	65.1499
 0.5080	65.1380
 0.5070	65.1162
 0.5060	65.0933
 0.5050	65.0658
 0.5040	65.0298
 0.5030	65.0161
 0.5020	64.9776
 0.5010	64.9319
 0.5000	64.9138
 0.4990	64.8805
 0.4980	64.8526
 0.4970	64.8105
 0.4960	64.8031
 0.4950	64.7756
 0.4940	64.7444
 0.4930	64.7219
 0.4920	64.6942
 0.4910	64.6536
 0.4900	64.5886
 0.4890	64.5737
 0.4880	64.5290
 0.4870	64.4965
 0.4860	64.4674
 0.4850	64.4331
 0.4840	64.3675
 0.4830	64.3514
 0.4820	64.3199
 0.4810	64.3201
 0.4800	64.2737
 0.4790	64.2874
 0.4780	64.2609
 0.4770	64.2543
 0.4760	64.2438
 0.4750	64.2145
 0.4740	64.1836
 0.4730	64.1550
 0.4720	64.1179
 0.4710	64.0936
 0.4700	64.0786
 0.4690	64.0452
 0.4680	64.0232
 0.4670	64.0058
 0.4660	63.9751
 0.4650	63.9356
 0.4640	63.9179
 0.4630	63.8991
 0.4620	63.8835
 0.4610	63.8422
 0.4600	63.8103
 0.4590	63.7623
 0.4580	63.7351
 0.4570	63.6925
 0.4560	63.6657
 0.4550	63.6296
 0.4540	63.5991
 0.4530	63.5639
 0.4520	63.5324
 0.4510	63.4974
 0.4500	63.4519
 0.4490	63.4058
 0.4480	63.3742
 0.4470	63.3238
 0.4460	63.2738
 0.4450	63.2317
 0.4440	63.1744
 0.4430	63.1396
 0.4420	63.0944
 0.4410	63.0464
 0.4400	62.9998
 0.4390	62.9754
 0.4380	62.9143
 0.4370	62.8833
 0.4360	62.8319
 0.4350	62.7941
 0.4340	62.7349
 0.4330	62.6828
 0.4320	62.6513
 0.4310	62.5900
 0.4300	62.5573
 0.4290	62.5077
 0.4280	62.4487
 0.4270	62.4186
 0.4260	62.3595
 0.4250	62.3120
 0.4240	62.2612
 0.4230	62.2193
 0.4220	62.1741
 0.4210	62.1344
 0.4200	62.0968
 0.4190	62.0361
 0.4180	61.9838
 0.4170	61.9367
 0.4160	61.8891
 0.4150	61.8231
 0.4140	61.7552
 0.4130	61.7194
 0.4120	61.6650
 0.4110	61.6140
 0.4100	61.5520
 0.4090	61.4957
 0.4080	61.4419
 0.4070	61.3901
 0.4060	61.3414
 0.4050	61.2809
 0.4040	61.2212
 0.4030	61.1496
 0.4020	61.0874
 0.4010	61.0175
 0.4000	60.9612
