Name: Graphite C
Type: Mineral
Class: Element
Subclass: None
Particle Size: Medium
Sample No.: E-1A
Owner: JPL
Wavelength Range: VSWIR
Origin: Mexico, Sonora, Morelos, San Jose Mine.
Collection Date: N/A
Description: Particle size was 45-125um. Collected by:  Burminco Original ASTER Spectral Library name was jpl.perkin.mineral.element.none.medium.e01a.spectrum.txt
Measurement: Hemispherical reflectance
First Column: X
Second Column: Y
X Units: Wavelength (micrometers)
Y Units:Reflectance (percent)
First X Value:  2.5000
Last X Value:  0.4000
Number of X Values: 2101
Additional Information: mineral.element.none.medium.vswir.e-1a.jpl.perkin.ancillary.txt

 2.5000	 5.0056
 2.4990	 4.6804
 2.4980	 5.0537
 2.4970	 4.6816
 2.4960	 4.6841
 2.4950	 4.7226
 2.4940	 4.8236
 2.4930	 4.7075
 2.4920	 4.8829
 2.4910	 4.6807
 2.4900	 5.0065
 2.4890	 4.6100
 2.4880	 4.9536
 2.4870	 4.6460
 2.4860	 4.8678
 2.4850	 4.8372
 2.4840	 4.9356
 2.4830	 4.8961
 2.4820	 4.9175
 2.4810	 4.8791
 2.4800	 4.8862
 2.4790	 4.7690
 2.4780	 4.9323
 2.4770	 4.7188
 2.4760	 5.0083
 2.4750	 4.6851
 2.4740	 4.9555
 2.4730	 4.7093
 2.4720	 4.9453
 2.4710	 4.7721
 2.4700	 5.0347
 2.4690	 4.6581
 2.4680	 4.9969
 2.4670	 4.7181
 2.4660	 4.9525
 2.4650	 4.7955
 2.4640	 4.8769
 2.4630	 4.7127
 2.4620	 4.8943
 2.4610	 4.6939
 2.4600	 4.8944
 2.4590	 4.7930
 2.4580	 4.9860
 2.4570	 4.7922
 2.4560	 4.8930
 2.4550	 4.7286
 2.4540	 5.0524
 2.4530	 4.6072
 2.4520	 4.8796
 2.4510	 4.7760
 2.4500	 4.9096
 2.4490	 4.8501
 2.4480	 4.8491
 2.4470	 4.7644
 2.4460	 4.8687
 2.4450	 4.8689
 2.4440	 4.9227
 2.4430	 4.7487
 2.4420	 4.8861
 2.4410	 4.7091
 2.4400	 4.8228
 2.4390	 4.7201
 2.4380	 4.8805
 2.4370	 4.7740
 2.4360	 4.9080
 2.4350	 4.8412
 2.4340	 4.8464
 2.4330	 4.7210
 2.4320	 4.8594
 2.4310	 4.7344
 2.4300	 4.9466
 2.4290	 4.7899
 2.4280	 4.9434
 2.4270	 4.7997
 2.4260	 4.9090
 2.4250	 4.7798
 2.4240	 4.8553
 2.4230	 4.7763
 2.4220	 4.8716
 2.4210	 4.8217
 2.4200	 4.8694
 2.4190	 4.7807
 2.4180	 4.8598
 2.4170	 4.9017
 2.4160	 4.9042
 2.4150	 4.7881
 2.4140	 4.7954
 2.4130	 4.7200
 2.4120	 4.8896
 2.4110	 4.8284
 2.4100	 4.8696
 2.4090	 4.7979
 2.4080	 4.9025
 2.4070	 4.8478
 2.4060	 4.8538
 2.4050	 4.7845
 2.4040	 4.8173
 2.4030	 4.7892
 2.4020	 4.8364
 2.4010	 4.8065
 2.4000	 4.8398
 2.3990	 4.7939
 2.3980	 4.8990
 2.3970	 4.7836
 2.3960	 4.8734
 2.3950	 4.8603
 2.3940	 4.8464
 2.3930	 4.8320
 2.3920	 4.8580
 2.3910	 4.8470
 2.3900	 4.8538
 2.3890	 4.7765
 2.3880	 4.8480
 2.3870	 4.7656
 2.3860	 4.8217
 2.3850	 4.7868
 2.3840	 4.8324
 2.3830	 4.8042
 2.3820	 4.8510
 2.3810	 4.8364
 2.3800	 4.8735
 2.3790	 4.8336
 2.3780	 4.8129
 2.3770	 4.8083
 2.3760	 4.8540
 2.3750	 4.8362
 2.3740	 4.8595
 2.3730	 4.8311
 2.3720	 4.7950
 2.3710	 4.7872
 2.3700	 4.8504
 2.3690	 4.7823
 2.3680	 4.8124
 2.3670	 4.8650
 2.3660	 4.8537
 2.3650	 4.8366
 2.3640	 4.7994
 2.3630	 4.7902
 2.3620	 4.8387
 2.3610	 4.8275
 2.3600	 4.8250
 2.3590	 4.8459
 2.3580	 4.8366
 2.3570	 4.8142
 2.3560	 4.8166
 2.3550	 4.9048
 2.3540	 4.9293
 2.3530	 4.8463
 2.3520	 4.8115
 2.3510	 4.8611
 2.3500	 4.8374
 2.3490	 4.8428
 2.3480	 4.8850
 2.3470	 4.8202
 2.3460	 4.8038
 2.3450	 4.8148
 2.3440	 4.7536
 2.3430	 4.8586
 2.3420	 4.8717
 2.3410	 4.7949
 2.3400	 4.7662
 2.3390	 4.7957
 2.3380	 4.7689
 2.3370	 4.8072
 2.3360	 4.8154
 2.3350	 4.8232
 2.3340	 4.7840
 2.3330	 4.7776
 2.3320	 4.8156
 2.3310	 4.7891
 2.3300	 4.7590
 2.3290	 4.7584
 2.3280	 4.7169
 2.3270	 4.7728
 2.3260	 4.7544
 2.3250	 4.8290
 2.3240	 4.7741
 2.3230	 4.7563
 2.3220	 4.7927
 2.3210	 4.8396
 2.3200	 4.7857
 2.3190	 4.8055
 2.3180	 4.7952
 2.3170	 4.8271
 2.3160	 4.7730
 2.3150	 4.7568
 2.3140	 4.7435
 2.3130	 4.7553
 2.3120	 4.7910
 2.3110	 4.8062
 2.3100	 4.7448
 2.3090	 4.7626
 2.3080	 4.7528
 2.3070	 4.7826
 2.3060	 4.7224
 2.3050	 4.8026
 2.3040	 4.8043
 2.3030	 4.8143
 2.3020	 4.6711
 2.3010	 4.7537
 2.3000	 4.7167
 2.2990	 4.8525
 2.2980	 4.7458
 2.2970	 4.7988
 2.2960	 4.7529
 2.2950	 4.7786
 2.2940	 4.6953
 2.2930	 4.7564
 2.2920	 4.7250
 2.2910	 4.8192
 2.2900	 4.7241
 2.2890	 4.8333
 2.2880	 4.6530
 2.2870	 4.7665
 2.2860	 4.6787
 2.2850	 4.7527
 2.2840	 4.7268
 2.2830	 4.7918
 2.2820	 4.7356
 2.2810	 4.7821
 2.2800	 4.7300
 2.2790	 4.7332
 2.2780	 4.7201
 2.2770	 4.7619
 2.2760	 4.6857
 2.2750	 4.7064
 2.2740	 4.7443
 2.2730	 4.8031
 2.2720	 4.7256
 2.2710	 4.7859
 2.2700	 4.7289
 2.2690	 4.7654
 2.2680	 4.7854
 2.2670	 4.8266
 2.2660	 4.6843
 2.2650	 4.7788
 2.2640	 4.8008
 2.2630	 4.7958
 2.2620	 4.7279
 2.2610	 4.7872
 2.2600	 4.7555
 2.2590	 4.7992
 2.2580	 4.7031
 2.2570	 4.8071
 2.2560	 4.6763
 2.2550	 4.7415
 2.2540	 4.7073
 2.2530	 4.7582
 2.2520	 4.6681
 2.2510	 4.8521
 2.2500	 4.6906
 2.2490	 4.7745
 2.2480	 4.7550
 2.2470	 4.7691
 2.2460	 4.6812
 2.2450	 4.7687
 2.2440	 4.6854
 2.2430	 4.7251
 2.2420	 4.6665
 2.2410	 4.7847
 2.2400	 4.6152
 2.2390	 4.7382
 2.2380	 4.7266
 2.2370	 4.7469
 2.2360	 4.6437
 2.2350	 4.7862
 2.2340	 4.7014
 2.2330	 4.6912
 2.2320	 4.6786
 2.2310	 4.8230
 2.2300	 4.6271
 2.2290	 4.7153
 2.2280	 4.6827
 2.2270	 4.7341
 2.2260	 4.7162
 2.2250	 4.7213
 2.2240	 4.6069
 2.2230	 4.8467
 2.2220	 4.6419
 2.2210	 4.8264
 2.2200	 4.7371
 2.2190	 4.7611
 2.2180	 4.6695
 2.2170	 4.8188
 2.2160	 4.6521
 2.2150	 4.6964
 2.2140	 4.6273
 2.2130	 4.7608
 2.2120	 4.7842
 2.2110	 4.6059
 2.2100	 4.7239
 2.2090	 4.7962
 2.2080	 4.7186
 2.2070	 4.7662
 2.2060	 4.5468
 2.2050	 4.7584
 2.2040	 4.5983
 2.2030	 4.8047
 2.2020	 4.6731
 2.2010	 4.8308
 2.2000	 4.6699
 2.1990	 4.7826
 2.1980	 4.6786
 2.1970	 4.8437
 2.1960	 4.6592
 2.1950	 4.8409
 2.1940	 4.6992
 2.1930	 4.8224
 2.1920	 4.6713
 2.1910	 4.7418
 2.1900	 4.6017
 2.1890	 4.7885
 2.1880	 4.6439
 2.1870	 4.8218
 2.1860	 4.6252
 2.1850	 4.7967
 2.1840	 4.6993
 2.1830	 4.8326
 2.1820	 4.6840
 2.1810	 4.7341
 2.1800	 4.6654
 2.1790	 4.7828
 2.1780	 4.6793
 2.1770	 4.7218
 2.1760	 4.7139
 2.1750	 4.7898
 2.1740	 4.6747
 2.1730	 4.7121
 2.1720	 4.6996
 2.1710	 4.7580
 2.1700	 4.7576
 2.1690	 4.8318
 2.1680	 4.6475
 2.1670	 4.7531
 2.1660	 4.7404
 2.1650	 4.7600
 2.1640	 4.7304
 2.1630	 4.8131
 2.1620	 4.7104
 2.1610	 4.7748
 2.1600	 4.7512
 2.1590	 4.7514
 2.1580	 4.7393
 2.1570	 4.7310
 2.1560	 4.6880
 2.1550	 4.7492
 2.1540	 4.7351
 2.1530	 4.8040
 2.1520	 4.7244
 2.1510	 4.7650
 2.1500	 4.7155
 2.1490	 4.8333
 2.1480	 4.7600
 2.1470	 4.7731
 2.1460	 4.7817
 2.1450	 4.7991
 2.1440	 4.7346
 2.1430	 4.7684
 2.1420	 4.6379
 2.1410	 4.7541
 2.1400	 4.6835
 2.1390	 4.7664
 2.1380	 4.7643
 2.1370	 4.7779
 2.1360	 4.6893
 2.1350	 4.7826
 2.1340	 4.6934
 2.1330	 4.7545
 2.1320	 4.7448
 2.1310	 4.7799
 2.1300	 4.7112
 2.1290	 4.7641
 2.1280	 4.6537
 2.1270	 4.7019
 2.1260	 4.5905
 2.1250	 4.7011
 2.1240	 4.6634
 2.1230	 4.7415
 2.1220	 4.6378
 2.1210	 4.6626
 2.1200	 4.6461
 2.1190	 4.7263
 2.1180	 4.7461
 2.1170	 4.7410
 2.1160	 4.6236
 2.1150	 4.6249
 2.1140	 4.6251
 2.1130	 4.7142
 2.1120	 4.6548
 2.1110	 4.6348
 2.1100	 4.6270
 2.1090	 4.7108
 2.1080	 4.6764
 2.1070	 4.6584
 2.1060	 4.6102
 2.1050	 4.6794
 2.1040	 4.6541
 2.1030	 4.6158
 2.1020	 4.6322
 2.1010	 4.6369
 2.1000	 4.6332
 2.0990	 4.7010
 2.0980	 4.6189
 2.0970	 4.5745
 2.0960	 4.5867
 2.0950	 4.6416
 2.0940	 4.6337
 2.0930	 4.6208
 2.0920	 4.5386
 2.0910	 4.5938
 2.0900	 4.6413
 2.0890	 4.6245
 2.0880	 4.6305
 2.0870	 4.6814
 2.0860	 4.6250
 2.0850	 4.5741
 2.0840	 4.5815
 2.0830	 4.6744
 2.0820	 4.6744
 2.0810	 4.5976
 2.0800	 4.6011
 2.0790	 4.6719
 2.0780	 4.6464
 2.0770	 4.6537
 2.0760	 4.6606
 2.0750	 4.6403
 2.0740	 4.6025
 2.0730	 4.6242
 2.0720	 4.6510
 2.0710	 4.6443
 2.0700	 4.6216
 2.0690	 4.5923
 2.0680	 4.6087
 2.0670	 4.6599
 2.0660	 4.6376
 2.0650	 4.5879
 2.0640	 4.5902
 2.0630	 4.5837
 2.0620	 4.6597
 2.0610	 4.6550
 2.0600	 4.5991
 2.0590	 4.5865
 2.0580	 4.6579
 2.0570	 4.6520
 2.0560	 4.5990
 2.0550	 4.5929
 2.0540	 4.6029
 2.0530	 4.6022
 2.0520	 4.6089
 2.0510	 4.6128
 2.0500	 4.6201
 2.0490	 4.5799
 2.0480	 4.6104
 2.0470	 4.6407
 2.0460	 4.6769
 2.0450	 4.6056
 2.0440	 4.6450
 2.0430	 4.6061
 2.0420	 4.6301
 2.0410	 4.6668
 2.0400	 4.6625
 2.0390	 4.5535
 2.0380	 4.6228
 2.0370	 4.6157
 2.0360	 4.6843
 2.0350	 4.6251
 2.0340	 4.6316
 2.0330	 4.5924
 2.0320	 4.6332
 2.0310	 4.5707
 2.0300	 4.6620
 2.0290	 4.6454
 2.0280	 4.6449
 2.0270	 4.5644
 2.0260	 4.5950
 2.0250	 4.5603
 2.0240	 4.6101
 2.0230	 4.5514
 2.0220	 4.6047
 2.0210	 4.5772
 2.0200	 4.5905
 2.0190	 4.5541
 2.0180	 4.6227
 2.0170	 4.5740
 2.0160	 4.6026
 2.0150	 4.5733
 2.0140	 4.5764
 2.0130	 4.5689
 2.0120	 4.6113
 2.0110	 4.5995
 2.0100	 4.5472
 2.0090	 4.5232
 2.0080	 4.6562
 2.0070	 4.5089
 2.0060	 4.6170
 2.0050	 4.5834
 2.0040	 4.6550
 2.0030	 4.5043
 2.0020	 4.6068
 2.0010	 4.5562
 2.0000	 4.6210
 1.9990	 4.4958
 1.9980	 4.5589
 1.9970	 4.5523
 1.9960	 4.6311
 1.9950	 4.5734
 1.9940	 4.5615
 1.9930	 4.5143
 1.9920	 4.6424
 1.9910	 4.4527
 1.9900	 4.5016
 1.9890	 4.5222
 1.9880	 4.6104
 1.9870	 4.5634
 1.9860	 4.6507
 1.9850	 4.5500
 1.9840	 4.5550
 1.9830	 4.5808
 1.9820	 4.6379
 1.9810	 4.5032
 1.9800	 4.5965
 1.9790	 4.5246
 1.9780	 4.5852
 1.9770	 4.4959
 1.9760	 4.6158
 1.9750	 4.5042
 1.9740	 4.5395
 1.9730	 4.4663
 1.9720	 4.5567
 1.9710	 4.5376
 1.9700	 4.5849
 1.9690	 4.4558
 1.9680	 4.5964
 1.9670	 4.4583
 1.9660	 4.6491
 1.9650	 4.5115
 1.9640	 4.5529
 1.9630	 4.5375
 1.9620	 4.6150
 1.9610	 4.4761
 1.9600	 4.5383
 1.9590	 4.4498
 1.9580	 4.5946
 1.9570	 4.4751
 1.9560	 4.5821
 1.9550	 4.4624
 1.9540	 4.6333
 1.9530	 4.5124
 1.9520	 4.5673
 1.9510	 4.5169
 1.9500	 4.6203
 1.9490	 4.5456
 1.9480	 4.6528
 1.9470	 4.4516
 1.9460	 4.5360
 1.9450	 4.5120
 1.9440	 4.6027
 1.9430	 4.4590
 1.9420	 4.6547
 1.9410	 4.3888
 1.9400	 4.5842
 1.9390	 4.4523
 1.9380	 4.5670
 1.9370	 4.5234
 1.9360	 4.5826
 1.9350	 4.4714
 1.9340	 4.6009
 1.9330	 4.4496
 1.9320	 4.5711
 1.9310	 4.4709
 1.9300	 4.6264
 1.9290	 4.4792
 1.9280	 4.5775
 1.9270	 4.6275
 1.9260	 4.4019
 1.9250	 4.5157
 1.9240	 4.6053
 1.9230	 4.5017
 1.9220	 4.5758
 1.9210	 4.4144
 1.9200	 4.5286
 1.9190	 4.4690
 1.9180	 4.6115
 1.9170	 4.4890
 1.9160	 4.5849
 1.9150	 4.4692
 1.9140	 4.6018
 1.9130	 4.4655
 1.9120	 4.6243
 1.9110	 4.4933
 1.9100	 4.5953
 1.9090	 4.4991
 1.9080	 4.5726
 1.9070	 4.4433
 1.9060	 4.5920
 1.9050	 4.4329
 1.9040	 4.6047
 1.9030	 4.5071
 1.9020	 4.5746
 1.9010	 4.4537
 1.9000	 4.5922
 1.8990	 4.5191
 1.8980	 4.5331
 1.8970	 4.4116
 1.8960	 4.5585
 1.8950	 4.4549
 1.8940	 4.5961
 1.8930	 4.4963
 1.8920	 4.5969
 1.8910	 4.5374
 1.8900	 4.4947
 1.8890	 4.4291
 1.8880	 4.4685
 1.8870	 4.5258
 1.8860	 4.5626
 1.8850	 4.4680
 1.8840	 4.5355
 1.8830	 4.4609
 1.8820	 4.5877
 1.8810	 4.4848
 1.8800	 4.6072
 1.8790	 4.4872
 1.8780	 4.5892
 1.8770	 4.4838
 1.8760	 4.5502
 1.8750	 4.4828
 1.8740	 4.6410
 1.8730	 4.4466
 1.8720	 4.5280
 1.8710	 4.4590
 1.8700	 4.5183
 1.8690	 4.4157
 1.8680	 4.5498
 1.8670	 4.4267
 1.8660	 4.4998
 1.8650	 4.4890
 1.8640	 4.5406
 1.8630	 4.4901
 1.8620	 4.5244
 1.8610	 4.4674
 1.8600	 4.5040
 1.8590	 4.4724
 1.8580	 4.4375
 1.8570	 4.4294
 1.8560	 4.5192
 1.8550	 4.4364
 1.8540	 4.5144
 1.8530	 4.4000
 1.8520	 4.4560
 1.8510	 4.4653
 1.8500	 4.5620
 1.8490	 4.5002
 1.8480	 4.5081
 1.8470	 4.4530
 1.8460	 4.4680
 1.8450	 4.4163
 1.8440	 4.4599
 1.8430	 4.4596
 1.8420	 4.5006
 1.8410	 4.4275
 1.8400	 4.5402
 1.8390	 4.4846
 1.8380	 4.5319
 1.8370	 4.4581
 1.8360	 4.4670
 1.8350	 4.3865
 1.8340	 4.4868
 1.8330	 4.5474
 1.8320	 4.5305
 1.8310	 4.4671
 1.8300	 4.4370
 1.8290	 4.4169
 1.8280	 4.5291
 1.8270	 4.4594
 1.8260	 4.4791
 1.8250	 4.4212
 1.8240	 4.4478
 1.8230	 4.4656
 1.8220	 4.4397
 1.8210	 4.4164
 1.8200	 4.4966
 1.8190	 4.4618
 1.8180	 4.5424
 1.8170	 4.4956
 1.8160	 4.4542
 1.8150	 4.4124
 1.8140	 4.4448
 1.8130	 4.4429
 1.8120	 4.4822
 1.8110	 4.4866
 1.8100	 4.5095
 1.8090	 4.4971
 1.8080	 4.4708
 1.8070	 4.4494
 1.8060	 4.4419
 1.8050	 4.4206
 1.8040	 4.4438
 1.8030	 4.4599
 1.8020	 4.5136
 1.8010	 4.4522
 1.8000	 4.4390
 1.7990	 4.4643
 1.7980	 4.4552
 1.7970	 4.4516
 1.7960	 4.4634
 1.7950	 4.4434
 1.7940	 4.4666
 1.7930	 4.4523
 1.7920	 4.4668
 1.7910	 4.4159
 1.7900	 4.4264
 1.7890	 4.4424
 1.7880	 4.4607
 1.7870	 4.4633
 1.7860	 4.4474
 1.7850	 4.4388
 1.7840	 4.4566
 1.7830	 4.4283
 1.7820	 4.4190
 1.7810	 4.4656
 1.7800	 4.4210
 1.7790	 4.4451
 1.7780	 4.4709
 1.7770	 4.4328
 1.7760	 4.4481
 1.7750	 4.4508
 1.7740	 4.4369
 1.7730	 4.4672
 1.7720	 4.4215
 1.7710	 4.3913
 1.7700	 4.4012
 1.7690	 4.4438
 1.7680	 4.4012
 1.7670	 4.4052
 1.7660	 4.3654
 1.7650	 4.3972
 1.7640	 4.3684
 1.7630	 4.4194
 1.7620	 4.3809
 1.7610	 4.4358
 1.7600	 4.4564
 1.7590	 4.4604
 1.7580	 4.3991
 1.7570	 4.4450
 1.7560	 4.4276
 1.7550	 4.3986
 1.7540	 4.3529
 1.7530	 4.3823
 1.7520	 4.3774
 1.7510	 4.3974
 1.7500	 4.4179
 1.7490	 4.4298
 1.7480	 4.3786
 1.7470	 4.4281
 1.7460	 4.4423
 1.7450	 4.4190
 1.7440	 4.3584
 1.7430	 4.4002
 1.7420	 4.3679
 1.7410	 4.3996
 1.7400	 4.3732
 1.7390	 4.4024
 1.7380	 4.3559
 1.7370	 4.4207
 1.7360	 4.3796
 1.7350	 4.3932
 1.7340	 4.3691
 1.7330	 4.4107
 1.7320	 4.4061
 1.7310	 4.4460
 1.7300	 4.3226
 1.7290	 4.4324
 1.7280	 4.3620
 1.7270	 4.4177
 1.7260	 4.3277
 1.7250	 4.4247
 1.7240	 4.3819
 1.7230	 4.4219
 1.7220	 4.3435
 1.7210	 4.4642
 1.7200	 4.3900
 1.7190	 4.4209
 1.7180	 4.3968
 1.7170	 4.4008
 1.7160	 4.3239
 1.7150	 4.4107
 1.7140	 4.3388
 1.7130	 4.3840
 1.7120	 4.3363
 1.7110	 4.4287
 1.7100	 4.3355
 1.7090	 4.3675
 1.7080	 4.3534
 1.7070	 4.5004
 1.7060	 4.2909
 1.7050	 4.3349
 1.7040	 4.3570
 1.7030	 4.4436
 1.7020	 4.3071
 1.7010	 4.3619
 1.7000	 4.3096
 1.6990	 4.4228
 1.6980	 4.2803
 1.6970	 4.4226
 1.6960	 4.3122
 1.6950	 4.4499
 1.6940	 4.3255
 1.6930	 4.3602
 1.6920	 4.3020
 1.6910	 4.4908
 1.6900	 4.2924
 1.6890	 4.4013
 1.6880	 4.3236
 1.6870	 4.4175
 1.6860	 4.3329
 1.6850	 4.4343
 1.6840	 4.2267
 1.6830	 4.3655
 1.6820	 4.2916
 1.6810	 4.3544
 1.6800	 4.3324
 1.6790	 4.3524
 1.6780	 4.3303
 1.6770	 4.4246
 1.6760	 4.3021
 1.6750	 4.3671
 1.6740	 4.2434
 1.6730	 4.4229
 1.6720	 4.2299
 1.6710	 4.3611
 1.6700	 4.2460
 1.6690	 4.4491
 1.6680	 4.1049
 1.6670	 4.5023
 1.6660	 4.2273
 1.6650	 4.3496
 1.6640	 4.2854
 1.6630	 4.4237
 1.6620	 4.2346
 1.6610	 4.3787
 1.6600	 4.1876
 1.6590	 4.3819
 1.6580	 4.2294
 1.6570	 4.3591
 1.6560	 4.2085
 1.6550	 4.4251
 1.6540	 4.3427
 1.6530	 4.3764
 1.6520	 4.1808
 1.6510	 4.3291
 1.6500	 4.2092
 1.6490	 4.3771
 1.6480	 4.2154
 1.6470	 4.4557
 1.6460	 4.1790
 1.6450	 4.3632
 1.6440	 4.2058
 1.6430	 4.2964
 1.6420	 4.3067
 1.6410	 4.1973
 1.6400	 4.2291
 1.6390	 4.2611
 1.6380	 4.3062
 1.6370	 4.3729
 1.6360	 4.2019
 1.6350	 4.4294
 1.6340	 4.2279
 1.6330	 4.3379
 1.6320	 4.2070
 1.6310	 4.3589
 1.6300	 4.3053
 1.6290	 4.3229
 1.6280	 4.1979
 1.6270	 4.2710
 1.6260	 4.2378
 1.6250	 4.3083
 1.6240	 4.2227
 1.6230	 4.3106
 1.6220	 4.2307
 1.6210	 4.2619
 1.6200	 4.2045
 1.6190	 4.3146
 1.6180	 4.2324
 1.6170	 4.3095
 1.6160	 4.1851
 1.6150	 4.2496
 1.6140	 4.1619
 1.6130	 4.3277
 1.6120	 4.2113
 1.6110	 4.3470
 1.6100	 4.2466
 1.6090	 4.3456
 1.6080	 4.2321
 1.6070	 4.3073
 1.6060	 4.2329
 1.6050	 4.3187
 1.6040	 4.1793
 1.6030	 4.2837
 1.6020	 4.2506
 1.6010	 4.3027
 1.6000	 4.2985
 1.5990	 4.3046
 1.5980	 4.2691
 1.5970	 4.2821
 1.5960	 4.2846
 1.5950	 4.3290
 1.5940	 4.2265
 1.5930	 4.2899
 1.5920	 4.2102
 1.5910	 4.2940
 1.5900	 4.1766
 1.5890	 4.2527
 1.5880	 4.2617
 1.5870	 4.3233
 1.5860	 4.1489
 1.5850	 4.2654
 1.5840	 4.1578
 1.5830	 4.3206
 1.5820	 4.2471
 1.5810	 4.2984
 1.5800	 4.2193
 1.5790	 4.3268
 1.5780	 4.1903
 1.5770	 4.2956
 1.5760	 4.1853
 1.5750	 4.2557
 1.5740	 4.2073
 1.5730	 4.2787
 1.5720	 4.2232
 1.5710	 4.2402
 1.5700	 4.2202
 1.5690	 4.2822
 1.5680	 4.2108
 1.5670	 4.2318
 1.5660	 4.2162
 1.5650	 4.2189
 1.5640	 4.1923
 1.5630	 4.2374
 1.5620	 4.2053
 1.5610	 4.2812
 1.5600	 4.1680
 1.5590	 4.2530
 1.5580	 4.1692
 1.5570	 4.2276
 1.5560	 4.2239
 1.5550	 4.3239
 1.5540	 4.2130
 1.5530	 4.1835
 1.5520	 4.1633
 1.5510	 4.1794
 1.5500	 4.1719
 1.5490	 4.2332
 1.5480	 4.1774
 1.5470	 4.1496
 1.5460	 4.2039
 1.5450	 4.2952
 1.5440	 4.1352
 1.5430	 4.1606
 1.5420	 4.1612
 1.5410	 4.2140
 1.5400	 4.1832
 1.5390	 4.2053
 1.5380	 4.1776
 1.5370	 4.1936
 1.5360	 4.1426
 1.5350	 4.2354
 1.5340	 4.1487
 1.5330	 4.1041
 1.5320	 4.1586
 1.5310	 4.2464
 1.5300	 4.2027
 1.5290	 4.2081
 1.5280	 4.1953
 1.5270	 4.2230
 1.5260	 4.1643
 1.5250	 4.1575
 1.5240	 4.1672
 1.5230	 4.1762
 1.5220	 4.1421
 1.5210	 4.1525
 1.5200	 4.1290
 1.5190	 4.2101
 1.5180	 4.1709
 1.5170	 4.1407
 1.5160	 4.1598
 1.5150	 4.1803
 1.5140	 4.1398
 1.5130	 4.1880
 1.5120	 4.2102
 1.5110	 4.1616
 1.5100	 4.1454
 1.5090	 4.1731
 1.5080	 4.1527
 1.5070	 4.1765
 1.5060	 4.1888
 1.5050	 4.1676
 1.5040	 4.1352
 1.5030	 4.0890
 1.5020	 4.1028
 1.5010	 4.1290
 1.5000	 4.1595
 1.4990	 4.1715
 1.4980	 4.1718
 1.4970	 4.1391
 1.4960	 4.1694
 1.4950	 4.1744
 1.4940	 4.1377
 1.4930	 4.1553
 1.4920	 4.1696
 1.4910	 4.1183
 1.4900	 4.0991
 1.4890	 4.0835
 1.4880	 4.1435
 1.4870	 4.1654
 1.4860	 4.1115
 1.4850	 4.1392
 1.4840	 4.1775
 1.4830	 4.1043
 1.4820	 4.1419
 1.4810	 4.1672
 1.4800	 4.2049
 1.4790	 4.1619
 1.4780	 4.0607
 1.4770	 4.0833
 1.4760	 4.1661
 1.4750	 4.1514
 1.4740	 4.1420
 1.4730	 4.1123
 1.4720	 4.1078
 1.4710	 4.1053
 1.4700	 4.1158
 1.4690	 4.0480
 1.4680	 4.1060
 1.4670	 4.0697
 1.4660	 4.0653
 1.4650	 4.1106
 1.4640	 4.1832
 1.4630	 4.0754
 1.4620	 4.1251
 1.4610	 4.0733
 1.4600	 4.1106
 1.4590	 4.0795
 1.4580	 4.1454
 1.4570	 4.0878
 1.4560	 4.1614
 1.4550	 4.0483
 1.4540	 4.0531
 1.4530	 4.0936
 1.4520	 4.1949
 1.4510	 4.1203
 1.4500	 4.1162
 1.4490	 4.1063
 1.4480	 4.1304
 1.4470	 4.0745
 1.4460	 4.1447
 1.4450	 4.0951
 1.4440	 4.0747
 1.4430	 4.0679
 1.4420	 4.1462
 1.4410	 4.0648
 1.4400	 4.1364
 1.4390	 4.0235
 1.4380	 4.1192
 1.4370	 4.0787
 1.4360	 4.0943
 1.4350	 4.1119
 1.4340	 4.1286
 1.4330	 4.0523
 1.4320	 4.1317
 1.4310	 4.0078
 1.4300	 4.1039
 1.4290	 4.0486
 1.4280	 4.1018
 1.4270	 4.0073
 1.4260	 4.0882
 1.4250	 4.0842
 1.4240	 4.0621
 1.4230	 4.0139
 1.4220	 4.0874
 1.4210	 4.0132
 1.4200	 4.0892
 1.4190	 3.9944
 1.4180	 4.0796
 1.4170	 4.0203
 1.4160	 4.1622
 1.4150	 4.0150
 1.4140	 4.0239
 1.4130	 4.0070
 1.4120	 4.0840
 1.4110	 4.0223
 1.4100	 4.1331
 1.4090	 4.0513
 1.4080	 4.0376
 1.4070	 3.9727
 1.4060	 4.0949
 1.4050	 3.9972
 1.4040	 4.1309
 1.4030	 4.0886
 1.4020	 4.1511
 1.4010	 3.9177
 1.4000	 3.9700
 1.3990	 3.9498
 1.3980	 4.1729
 1.3970	 4.0296
 1.3960	 4.1641
 1.3950	 3.9768
 1.3940	 4.0606
 1.3930	 3.9220
 1.3920	 4.1117
 1.3910	 3.9627
 1.3900	 4.0801
 1.3890	 4.0707
 1.3880	 4.0834
 1.3870	 3.9931
 1.3860	 4.0657
 1.3850	 4.0204
 1.3840	 4.1219
 1.3830	 3.9743
 1.3820	 4.0415
 1.3810	 3.9171
 1.3800	 4.0239
 1.3790	 4.0950
 1.3780	 4.0961
 1.3770	 4.0671
 1.3760	 4.1740
 1.3750	 3.9544
 1.3740	 4.1150
 1.3730	 3.9979
 1.3720	 4.0860
 1.3710	 3.9153
 1.3700	 4.1516
 1.3690	 4.0035
 1.3680	 4.0884
 1.3670	 3.9724
 1.3660	 4.0805
 1.3650	 3.8529
 1.3640	 4.0867
 1.3630	 4.0062
 1.3620	 3.9624
 1.3610	 3.8914
 1.3600	 4.1135
 1.3590	 4.0099
 1.3580	 4.0683
 1.3570	 4.0399
 1.3560	 4.1450
 1.3550	 3.7956
 1.3540	 4.0381
 1.3530	 3.9850
 1.3520	 4.0254
 1.3510	 3.9467
 1.3500	 4.0365
 1.3490	 3.9139
 1.3480	 4.0853
 1.3470	 3.9591
 1.3460	 4.0935
 1.3450	 3.9081
 1.3440	 4.1019
 1.3430	 3.9380
 1.3420	 4.0874
 1.3410	 3.9414
 1.3400	 4.0792
 1.3390	 3.8904
 1.3380	 3.9667
 1.3370	 3.9488
 1.3360	 4.0214
 1.3350	 3.9301
 1.3340	 4.0197
 1.3330	 3.8871
 1.3320	 3.9969
 1.3310	 3.9093
 1.3300	 4.0464
 1.3290	 3.9369
 1.3280	 4.0292
 1.3270	 3.8981
 1.3260	 3.9900
 1.3250	 3.8859
 1.3240	 4.0410
 1.3230	 3.9112
 1.3220	 3.9764
 1.3210	 3.8831
 1.3200	 4.0094
 1.3190	 3.9395
 1.3180	 3.9464
 1.3170	 3.8892
 1.3160	 4.0908
 1.3150	 3.9393
 1.3140	 3.9960
 1.3130	 3.8993
 1.3120	 3.9906
 1.3110	 3.9153
 1.3100	 4.0276
 1.3090	 3.8772
 1.3080	 4.0028
 1.3070	 3.9620
 1.3060	 3.9676
 1.3050	 3.8879
 1.3040	 3.9922
 1.3030	 3.8906
 1.3020	 3.9829
 1.3010	 3.8940
 1.3000	 3.9061
 1.2990	 3.8896
 1.2980	 3.9615
 1.2970	 3.8956
 1.2960	 4.0097
 1.2950	 3.8670
 1.2940	 3.9639
 1.2930	 3.8956
 1.2920	 3.9980
 1.2910	 3.9352
 1.2900	 3.9443
 1.2890	 3.9136
 1.2880	 3.9299
 1.2870	 3.9104
 1.2860	 3.9551
 1.2850	 3.9080
 1.2840	 3.9188
 1.2830	 3.8630
 1.2820	 3.9166
 1.2810	 3.8964
 1.2800	 3.9491
 1.2790	 3.8623
 1.2780	 3.9714
 1.2770	 3.9182
 1.2760	 3.8814
 1.2750	 3.8998
 1.2740	 3.8960
 1.2730	 3.8839
 1.2720	 3.9132
 1.2710	 3.8625
 1.2700	 3.9316
 1.2690	 3.8605
 1.2680	 3.9197
 1.2670	 3.8751
 1.2660	 3.9174
 1.2650	 3.8976
 1.2640	 3.9190
 1.2630	 3.8807
 1.2620	 3.9120
 1.2610	 3.8772
 1.2600	 3.9101
 1.2590	 3.8853
 1.2580	 3.9689
 1.2570	 3.9355
 1.2560	 3.9786
 1.2550	 3.9282
 1.2540	 3.9324
 1.2530	 3.8560
 1.2520	 3.9125
 1.2510	 3.8857
 1.2500	 3.9229
 1.2490	 3.8773
 1.2480	 3.8819
 1.2470	 3.8155
 1.2460	 3.8606
 1.2450	 3.9102
 1.2440	 3.9235
 1.2430	 3.9091
 1.2420	 3.9167
 1.2410	 3.8662
 1.2400	 3.8671
 1.2390	 3.8698
 1.2380	 3.8640
 1.2370	 3.8528
 1.2360	 3.8532
 1.2350	 3.8457
 1.2340	 3.8989
 1.2330	 3.8465
 1.2320	 3.8999
 1.2310	 3.8552
 1.2300	 3.7827
 1.2290	 3.8549
 1.2280	 3.8649
 1.2270	 3.8115
 1.2260	 3.8479
 1.2250	 3.7959
 1.2240	 3.8066
 1.2230	 3.8686
 1.2220	 3.8628
 1.2210	 3.8460
 1.2200	 3.8892
 1.2190	 3.8609
 1.2180	 3.7978
 1.2170	 3.8173
 1.2160	 3.7923
 1.2150	 3.8007
 1.2140	 3.8298
 1.2130	 3.8234
 1.2120	 3.8114
 1.2110	 3.8537
 1.2100	 3.8789
 1.2090	 3.8522
 1.2080	 3.8236
 1.2070	 3.8444
 1.2060	 3.8301
 1.2050	 3.8537
 1.2040	 3.8897
 1.2030	 3.9086
 1.2020	 3.8134
 1.2010	 3.7769
 1.2000	 3.8375
 1.1990	 3.8468
 1.1980	 3.8054
 1.1970	 3.8501
 1.1960	 3.8408
 1.1950	 3.8136
 1.1940	 3.8007
 1.1930	 3.8215
 1.1920	 3.7903
 1.1910	 3.7874
 1.1900	 3.7962
 1.1890	 3.8187
 1.1880	 3.6715
 1.1870	 3.7816
 1.1860	 3.7992
 1.1850	 3.8312
 1.1840	 3.8150
 1.1830	 3.8550
 1.1820	 3.7640
 1.1810	 3.7895
 1.1800	 3.7802
 1.1790	 3.7988
 1.1780	 3.7620
 1.1770	 3.7837
 1.1760	 3.7673
 1.1750	 3.8104
 1.1740	 3.7718
 1.1730	 3.7902
 1.1720	 3.7735
 1.1710	 3.8450
 1.1700	 3.7665
 1.1690	 3.8273
 1.1680	 3.8405
 1.1670	 3.7399
 1.1660	 3.7461
 1.1650	 3.7708
 1.1640	 3.7459
 1.1630	 3.7281
 1.1620	 3.7148
 1.1610	 3.8532
 1.1600	 3.7452
 1.1590	 3.8210
 1.1580	 3.8067
 1.1570	 3.7819
 1.1560	 3.7439
 1.1550	 3.8957
 1.1540	 3.7488
 1.1530	 3.7677
 1.1520	 3.7638
 1.1510	 3.8155
 1.1500	 3.7863
 1.1490	 3.8137
 1.1480	 3.7797
 1.1470	 3.8076
 1.1460	 3.7410
 1.1450	 3.7342
 1.1440	 3.6950
 1.1430	 3.7988
 1.1420	 3.7722
 1.1410	 3.8237
 1.1400	 3.7205
 1.1390	 3.8210
 1.1380	 3.7742
 1.1370	 3.7344
 1.1360	 3.6501
 1.1350	 3.7718
 1.1340	 3.6822
 1.1330	 3.7635
 1.1320	 3.7194
 1.1310	 3.8121
 1.1300	 3.7146
 1.1290	 3.7581
 1.1280	 3.6643
 1.1270	 3.8528
 1.1260	 3.7121
 1.1250	 3.7507
 1.1240	 3.7145
 1.1230	 3.7518
 1.1220	 3.7360
 1.1210	 3.7528
 1.1200	 3.6867
 1.1190	 3.7665
 1.1180	 3.6733
 1.1170	 3.7968
 1.1160	 3.6859
 1.1150	 3.7248
 1.1140	 3.6577
 1.1130	 3.7983
 1.1120	 3.6546
 1.1110	 3.7483
 1.1100	 3.6906
 1.1090	 3.7820
 1.1080	 3.6478
 1.1070	 3.7168
 1.1060	 3.6984
 1.1050	 3.7629
 1.1040	 3.7009
 1.1030	 3.7685
 1.1020	 3.6255
 1.1010	 3.8176
 1.1000	 3.6440
 1.0990	 3.7719
 1.0980	 3.6625
 1.0970	 3.7322
 1.0960	 3.6772
 1.0950	 3.7225
 1.0940	 3.6863
 1.0930	 3.7742
 1.0920	 3.6510
 1.0910	 3.7199
 1.0900	 3.6312
 1.0890	 3.7630
 1.0880	 3.6413
 1.0870	 3.6884
 1.0860	 3.6582
 1.0850	 3.7529
 1.0840	 3.6343
 1.0830	 3.6803
 1.0820	 3.6137
 1.0810	 3.8111
 1.0800	 3.6253
 1.0790	 3.7930
 1.0780	 3.5496
 1.0770	 3.7758
 1.0760	 3.6308
 1.0750	 3.7597
 1.0740	 3.5092
 1.0730	 3.7531
 1.0720	 3.6753
 1.0710	 3.9009
 1.0700	 3.4400
 1.0690	 3.8554
 1.0680	 3.5774
 1.0670	 3.7712
 1.0660	 3.6173
 1.0650	 3.7152
 1.0640	 3.6273
 1.0630	 3.6952
 1.0620	 3.5425
 1.0610	 3.7788
 1.0600	 3.6007
 1.0590	 3.6734
 1.0580	 3.6361
 1.0570	 3.6530
 1.0560	 3.5439
 1.0550	 3.7200
 1.0540	 3.6041
 1.0530	 3.6722
 1.0520	 3.5528
 1.0510	 3.6789
 1.0500	 3.6174
 1.0490	 3.6857
 1.0480	 3.5559
 1.0470	 3.7086
 1.0460	 3.6188
 1.0450	 3.7143
 1.0440	 3.5664
 1.0430	 3.6897
 1.0420	 3.5706
 1.0410	 3.7624
 1.0400	 3.5383
 1.0390	 3.6913
 1.0380	 3.6122
 1.0370	 3.6338
 1.0360	 3.5782
 1.0350	 3.6516
 1.0340	 3.5581
 1.0330	 3.6570
 1.0320	 3.5311
 1.0310	 3.7155
 1.0300	 3.6314
 1.0290	 3.8211
 1.0280	 3.5891
 1.0270	 3.7092
 1.0260	 3.6925
 1.0250	 3.6276
 1.0240	 3.5660
 1.0230	 3.6745
 1.0220	 3.6154
 1.0210	 3.6875
 1.0200	 3.6516
 1.0190	 3.6608
 1.0180	 3.6595
 1.0170	 3.7088
 1.0160	 3.6081
 1.0150	 3.6013
 1.0140	 3.5868
 1.0130	 3.6459
 1.0120	 3.6288
 1.0110	 3.6591
 1.0100	 3.6373
 1.0090	 3.5570
 1.0080	 3.6669
 1.0070	 3.6503
 1.0060	 3.5666
 1.0050	 3.6552
 1.0040	 3.5698
 1.0030	 3.6606
 1.0020	 3.5491
 1.0010	 3.6063
 1.0000	 3.5558
 0.9990	 3.6115
 0.9980	 3.6029
 0.9970	 3.6751
 0.9960	 3.4836
 0.9950	 3.6016
 0.9940	 3.5124
 0.9930	 3.6403
 0.9920	 3.5633
 0.9910	 3.6529
 0.9900	 3.5392
 0.9890	 3.5860
 0.9880	 3.5917
 0.9870	 3.6346
 0.9860	 3.5591
 0.9850	 3.6094
 0.9840	 3.4834
 0.9830	 3.5903
 0.9820	 3.5442
 0.9810	 3.6218
 0.9800	 3.5676
 0.9790	 3.5448
 0.9780	 3.5691
 0.9770	 3.5719
 0.9760	 3.5310
 0.9750	 3.5361
 0.9740	 3.5596
 0.9730	 3.6649
 0.9720	 3.6143
 0.9710	 3.6338
 0.9700	 3.5487
 0.9690	 3.5810
 0.9680	 3.4721
 0.9670	 3.5517
 0.9660	 3.5619
 0.9650	 3.5972
 0.9640	 3.5393
 0.9630	 3.5778
 0.9620	 3.5299
 0.9610	 3.5910
 0.9600	 3.5322
 0.9590	 3.5715
 0.9580	 3.5358
 0.9570	 3.6176
 0.9560	 3.5907
 0.9550	 3.5730
 0.9540	 3.5232
 0.9530	 3.5511
 0.9520	 3.5359
 0.9510	 3.5517
 0.9500	 3.5280
 0.9490	 3.5068
 0.9480	 3.5350
 0.9470	 3.5822
 0.9460	 3.5395
 0.9450	 3.5845
 0.9440	 3.5649
 0.9430	 3.5550
 0.9420	 3.5274
 0.9410	 3.4795
 0.9400	 3.4779
 0.9390	 3.5552
 0.9380	 3.5146
 0.9370	 3.5084
 0.9360	 3.5041
 0.9350	 3.4991
 0.9340	 3.5053
 0.9330	 3.5137
 0.9320	 3.5107
 0.9310	 3.4578
 0.9300	 3.5116
 0.9290	 3.5202
 0.9280	 3.4867
 0.9270	 3.5096
 0.9260	 3.5283
 0.9250	 3.4506
 0.9240	 3.4183
 0.9230	 3.4634
 0.9220	 3.5201
 0.9210	 3.5242
 0.9200	 3.4975
 0.9190	 3.4583
 0.9180	 3.4881
 0.9170	 3.4650
 0.9160	 3.4778
 0.9150	 3.4886
 0.9140	 3.5053
 0.9130	 3.4519
 0.9120	 3.4999
 0.9110	 3.5049
 0.9100	 3.5399
 0.9090	 3.5360
 0.9080	 3.5303
 0.9070	 3.4634
 0.9060	 3.5282
 0.9050	 3.4744
 0.9040	 3.4504
 0.9030	 3.4902
 0.9020	 3.5937
 0.9010	 3.5224
 0.9000	 3.4632
 0.8990	 3.4071
 0.8980	 3.5430
 0.8970	 3.4608
 0.8960	 3.4084
 0.8950	 3.4343
 0.8940	 3.5434
 0.8930	 3.4778
 0.8920	 3.5043
 0.8910	 3.4737
 0.8900	 3.5060
 0.8890	 3.4698
 0.8880	 3.4820
 0.8870	 3.4495
 0.8860	 3.5075
 0.8850	 3.4221
 0.8840	 3.5058
 0.8830	 3.5192
 0.8820	 3.5431
 0.8810	 3.4448
 0.8800	 3.5154
 0.8790	 3.3881
 0.8780	 3.4379
 0.8770	 3.4318
 0.8760	 3.5130
 0.8750	 3.4822
 0.8740	 3.5108
 0.8730	 3.4940
 0.8720	 3.4722
 0.8710	 3.3412
 0.8700	 3.4528
 0.8690	 3.4151
 0.8680	 3.5207
 0.8670	 3.4046
 0.8660	 3.4998
 0.8650	 3.4108
 0.8640	 3.4309
 0.8630	 3.3870
 0.8620	 3.4972
 0.8610	 3.4437
 0.8600	 3.6410
 0.8590	 3.7052
 0.8580	 3.7057
 0.8570	 3.6936
 0.8560	 3.6939
 0.8550	 3.6934
 0.8540	 3.6919
 0.8530	 3.6804
 0.8520	 3.6853
 0.8510	 3.6866
 0.8500	 3.6847
 0.8490	 3.6842
 0.8480	 3.6776
 0.8470	 3.6753
 0.8460	 3.6820
 0.8450	 3.6789
 0.8440	 3.6762
 0.8430	 3.6671
 0.8420	 3.6675
 0.8410	 3.6628
 0.8400	 3.6643
 0.8390	 3.6614
 0.8380	 3.6574
 0.8370	 3.6617
 0.8360	 3.6602
 0.8350	 3.6559
 0.8340	 3.6495
 0.8330	 3.6490
 0.8320	 3.6499
 0.8310	 3.6450
 0.8300	 3.6477
 0.8290	 3.6500
 0.8280	 3.6464
 0.8270	 3.6407
 0.8260	 3.6416
 0.8250	 3.6411
 0.8240	 3.6461
 0.8230	 3.6405
 0.8220	 3.6419
 0.8210	 3.6347
 0.8200	 3.6353
 0.8190	 3.6357
 0.8180	 3.6252
 0.8170	 3.6294
 0.8160	 3.6306
 0.8150	 3.6292
 0.8140	 3.6231
 0.8130	 3.6223
 0.8120	 3.6175
 0.8110	 3.6206
 0.8100	 3.6227
 0.8090	 3.6169
 0.8080	 3.6214
 0.8070	 3.6189
 0.8060	 3.6157
 0.8050	 3.6120
 0.8040	 3.6147
 0.8030	 3.6074
 0.8020	 3.6066
 0.8010	 3.6036
 0.8000	 3.6014
 0.7990	 3.5985
 0.7980	 3.6040
 0.7970	 3.5960
 0.7960	 3.5946
 0.7950	 3.5918
 0.7940	 3.5960
 0.7930	 3.5921
 0.7920	 3.5923
 0.7910	 3.5847
 0.7900	 3.5888
 0.7890	 3.5841
 0.7880	 3.5891
 0.7870	 3.5789
 0.7860	 3.5805
 0.7850	 3.5783
 0.7840	 3.5799
 0.7830	 3.5794
 0.7820	 3.5792
 0.7810	 3.5784
 0.7800	 3.5728
 0.7790	 3.5687
 0.7780	 3.5682
 0.7770	 3.5682
 0.7760	 3.5670
 0.7750	 3.5679
 0.7740	 3.5626
 0.7730	 3.5658
 0.7720	 3.5616
 0.7710	 3.5591
 0.7700	 3.5559
 0.7690	 3.5562
 0.7680	 3.5583
 0.7670	 3.5538
 0.7660	 3.5501
 0.7650	 3.5532
 0.7640	 3.5498
 0.7630	 3.5517
 0.7620	 3.5505
 0.7610	 3.5462
 0.7600	 3.5450
 0.7590	 3.5467
 0.7580	 3.5475
 0.7570	 3.5417
 0.7560	 3.5424
 0.7550	 3.5406
 0.7540	 3.5416
 0.7530	 3.5394
 0.7520	 3.5358
 0.7510	 3.5375
 0.7500	 3.5355
 0.7490	 3.5363
 0.7480	 3.5319
 0.7470	 3.5326
 0.7460	 3.5324
 0.7450	 3.5255
 0.7440	 3.5308
 0.7430	 3.5297
 0.7420	 3.5277
 0.7410	 3.5259
 0.7400	 3.5261
 0.7390	 3.5223
 0.7380	 3.5229
 0.7370	 3.5225
 0.7360	 3.5197
 0.7350	 3.5186
 0.7340	 3.5183
 0.7330	 3.5186
 0.7320	 3.5164
 0.7310	 3.5155
 0.7300	 3.5131
 0.7290	 3.5119
 0.7280	 3.5137
 0.7270	 3.5124
 0.7260	 3.5109
 0.7250	 3.5107
 0.7240	 3.5105
 0.7230	 3.5050
 0.7220	 3.5106
 0.7210	 3.5051
 0.7200	 3.5032
 0.7190	 3.5036
 0.7180	 3.5025
 0.7170	 3.5032
 0.7160	 3.5005
 0.7150	 3.5039
 0.7140	 3.5017
 0.7130	 3.4975
 0.7120	 3.4989
 0.7110	 3.4976
 0.7100	 3.4939
 0.7090	 3.4959
 0.7080	 3.4947
 0.7070	 3.4923
 0.7060	 3.4946
 0.7050	 3.4966
 0.7040	 3.4937
 0.7030	 3.4939
 0.7020	 3.4919
 0.7010	 3.4897
 0.7000	 3.4894
 0.6990	 3.4916
 0.6980	 3.4914
 0.6970	 3.4903
 0.6960	 3.4870
 0.6950	 3.4879
 0.6940	 3.4870
 0.6930	 3.4846
 0.6920	 3.4860
 0.6910	 3.4839
 0.6900	 3.4837
 0.6890	 3.4841
 0.6880	 3.4836
 0.6870	 3.4855
 0.6860	 3.4862
 0.6850	 3.4843
 0.6840	 3.4832
 0.6830	 3.4828
 0.6820	 3.4825
 0.6810	 3.4812
 0.6800	 3.4821
 0.6790	 3.4833
 0.6780	 3.4805
 0.6770	 3.4809
 0.6760	 3.4801
 0.6750	 3.4780
 0.6740	 3.4796
 0.6730	 3.4794
 0.6720	 3.4767
 0.6710	 3.4758
 0.6700	 3.4772
 0.6690	 3.4787
 0.6680	 3.4794
 0.6670	 3.4782
 0.6660	 3.4781
 0.6650	 3.4771
 0.6640	 3.4799
 0.6630	 3.4777
 0.6620	 3.4764
 0.6610	 3.4769
 0.6600	 3.4756
 0.6590	 3.4770
 0.6580	 3.4766
 0.6570	 3.4746
 0.6560	 3.4768
 0.6550	 3.4768
 0.6540	 3.4762
 0.6530	 3.4751
 0.6520	 3.4749
 0.6510	 3.4751
 0.6500	 3.4746
 0.6490	 3.4735
 0.6480	 3.4752
 0.6470	 3.4763
 0.6460	 3.4761
 0.6450	 3.4766
 0.6440	 3.4767
 0.6430	 3.4756
 0.6420	 3.4756
 0.6410	 3.4770
 0.6400	 3.4764
 0.6390	 3.4761
 0.6380	 3.4764
 0.6370	 3.4763
 0.6360	 3.4774
 0.6350	 3.4760
 0.6340	 3.4754
 0.6330	 3.4768
 0.6320	 3.4773
 0.6310	 3.4760
 0.6300	 3.4760
 0.6290	 3.4766
 0.6280	 3.4774
 0.6270	 3.4762
 0.6260	 3.4762
 0.6250	 3.4771
 0.6240	 3.4773
 0.6230	 3.4772
 0.6220	 3.4770
 0.6210	 3.4790
 0.6200	 3.4793
 0.6190	 3.4771
 0.6180	 3.4782
 0.6170	 3.4800
 0.6160	 3.4802
 0.6150	 3.4812
 0.6140	 3.4824
 0.6130	 3.4815
 0.6120	 3.4810
 0.6110	 3.4809
 0.6100	 3.4814
 0.6090	 3.4825
 0.6080	 3.4833
 0.6070	 3.4839
 0.6060	 3.4839
 0.6050	 3.4843
 0.6040	 3.4862
 0.6030	 3.4864
 0.6020	 3.4834
 0.6010	 3.4837
 0.6000	 3.4874
 0.5990	 3.4883
 0.5980	 3.4870
 0.5970	 3.4898
 0.5960	 3.4931
 0.5950	 3.4941
 0.5940	 3.4945
 0.5930	 3.4951
 0.5920	 3.4962
 0.5910	 3.4958
 0.5900	 3.4971
 0.5890	 3.4978
 0.5880	 3.5001
 0.5870	 3.4997
 0.5860	 3.4998
 0.5850	 3.5012
 0.5840	 3.5006
 0.5830	 3.5016
 0.5820	 3.5027
 0.5810	 3.5044
 0.5800	 3.5053
 0.5790	 3.5061
 0.5780	 3.5068
 0.5770	 3.5070
 0.5760	 3.5082
 0.5750	 3.5098
 0.5740	 3.5113
 0.5730	 3.5117
 0.5720	 3.5138
 0.5710	 3.5139
 0.5700	 3.5153
 0.5690	 3.5146
 0.5680	 3.5159
 0.5670	 3.5179
 0.5660	 3.5200
 0.5650	 3.5215
 0.5640	 3.5213
 0.5630	 3.5209
 0.5620	 3.5229
 0.5610	 3.5238
 0.5600	 3.5274
 0.5590	 3.5284
 0.5580	 3.5297
 0.5570	 3.5310
 0.5560	 3.5298
 0.5550	 3.5326
 0.5540	 3.5335
 0.5530	 3.5354
 0.5520	 3.5364
 0.5510	 3.5385
 0.5500	 3.5402
 0.5490	 3.5396
 0.5480	 3.5424
 0.5470	 3.5444
 0.5460	 3.5459
 0.5450	 3.5474
 0.5440	 3.5506
 0.5430	 3.5506
 0.5420	 3.5518
 0.5410	 3.5527
 0.5400	 3.5551
 0.5390	 3.5566
 0.5380	 3.5580
 0.5370	 3.5604
 0.5360	 3.5629
 0.5350	 3.5618
 0.5340	 3.5649
 0.5330	 3.5655
 0.5320	 3.5686
 0.5310	 3.5717
 0.5300	 3.5725
 0.5290	 3.5761
 0.5280	 3.5787
 0.5270	 3.5796
 0.5260	 3.5831
 0.5250	 3.5842
 0.5240	 3.5860
 0.5230	 3.5883
 0.5220	 3.5898
 0.5210	 3.5929
 0.5200	 3.5951
 0.5190	 3.5972
 0.5180	 3.5994
 0.5170	 3.6024
 0.5160	 3.6041
 0.5150	 3.6059
 0.5140	 3.6100
 0.5130	 3.6089
 0.5120	 3.6140
 0.5110	 3.6192
 0.5100	 3.6221
 0.5090	 3.6200
 0.5080	 3.6278
 0.5070	 3.6285
 0.5060	 3.6309
 0.5050	 3.6352
 0.5040	 3.6397
 0.5030	 3.6419
 0.5020	 3.6473
 0.5010	 3.6518
 0.5000	 3.6504
 0.4990	 3.6563
 0.4980	 3.6602
 0.4970	 3.6625
 0.4960	 3.6660
 0.4950	 3.6714
 0.4940	 3.6725
 0.4930	 3.6788
 0.4920	 3.6785
 0.4910	 3.6842
 0.4900	 3.6890
 0.4890	 3.6946
 0.4880	 3.6957
 0.4870	 3.6984
 0.4860	 3.7027
 0.4850	 3.7052
 0.4840	 3.7095
 0.4830	 3.7115
 0.4820	 3.7140
 0.4810	 3.7169
 0.4800	 3.7182
 0.4790	 3.7230
 0.4780	 3.7258
 0.4770	 3.7284
 0.4760	 3.7315
 0.4750	 3.7350
 0.4740	 3.7394
 0.4730	 3.7441
 0.4720	 3.7476
 0.4710	 3.7499
 0.4700	 3.7549
 0.4690	 3.7591
 0.4680	 3.7654
 0.4670	 3.7697
 0.4660	 3.7728
 0.4650	 3.7782
 0.4640	 3.7844
 0.4630	 3.7881
 0.4620	 3.7875
 0.4610	 3.8001
 0.4600	 3.8057
 0.4590	 3.8079
 0.4580	 3.8155
 0.4570	 3.8199
 0.4560	 3.8236
 0.4550	 3.8278
 0.4540	 3.8343
 0.4530	 3.8411
 0.4520	 3.8481
 0.4510	 3.8519
 0.4500	 3.8525
 0.4490	 3.8638
 0.4480	 3.8691
 0.4470	 3.8777
 0.4460	 3.8824
 0.4450	 3.8909
 0.4440	 3.8944
 0.4430	 3.8987
 0.4420	 3.9088
 0.4410	 3.9127
 0.4400	 3.9185
 0.4390	 3.9250
 0.4380	 3.9288
 0.4370	 3.9374
 0.4360	 3.9472
 0.4350	 3.9533
 0.4340	 3.9608
 0.4330	 3.9672
 0.4320	 3.9686
 0.4310	 3.9809
 0.4300	 3.9876
 0.4290	 3.9979
 0.4280	 4.0031
 0.4270	 4.0091
 0.4260	 4.0172
 0.4250	 4.0244
 0.4240	 4.0343
 0.4230	 4.0432
 0.4220	 4.0512
 0.4210	 4.0574
 0.4200	 4.0658
 0.4190	 4.0781
 0.4180	 4.0877
 0.4170	 4.0949
 0.4160	 4.1042
 0.4150	 4.1131
 0.4140	 4.1222
 0.4130	 4.1319
 0.4120	 4.1415
 0.4110	 4.1532
 0.4100	 4.1635
 0.4090	 4.1715
 0.4080	 4.1843
 0.4070	 4.1920
 0.4060	 4.2029
 0.4050	 4.2124
 0.4040	 4.2268
 0.4030	 4.2400
 0.4020	 4.2538
 0.4010	 4.2646
 0.4000	 4.2766
