Name: Topaz Al_2SiO_4(F,OH)_2
Type: Mineral
Class: Silicate
Subclass: Nesosilicate
Particle Size: Medium
Sample No.: NS-6A
Owner: JPL
Wavelength Range: VSWIR
Origin: Australia, Western Australia, Grossmont
Collection Date: N/A
Description: Particle size was 45-125um.Collected by Ward's Original ASTER Spectral Library name was jpl.beckman.mineral.silicate.nesosilicate.medium.ns06a.spectrum.txt
Measurement: Hemispherical reflectance
First Column: X
Second Column: Y
X Units: Wavelength (micrometers)
Y Units:Reflectance (percent)
First X Value:  0.4000
Last X Value:  2.5000
Number of X Values: 826
Additional Information: mineral.silicate.nesosilicate.medium.vswir.ns-6a.jpl.beckman.ancillary.txt

 0.4000	55.9200
 0.4010	56.0700
 0.4020	56.0900
 0.4030	56.0600
 0.4040	56.0100
 0.4050	56.1200
 0.4060	56.2300
 0.4070	56.1400
 0.4080	56.0300
 0.4090	56.1000
 0.4100	56.2400
 0.4110	56.1100
 0.4120	56.1700
 0.4130	56.1300
 0.4140	56.2200
 0.4150	56.1900
 0.4160	56.1400
 0.4170	56.1300
 0.4180	56.3200
 0.4190	56.1900
 0.4200	56.2400
 0.4210	56.1800
 0.4220	56.1400
 0.4230	56.2900
 0.4240	56.2300
 0.4250	56.1600
 0.4260	56.2600
 0.4270	56.2000
 0.4280	56.1800
 0.4290	56.0800
 0.4300	56.1400
 0.4310	56.3100
 0.4320	56.2200
 0.4330	56.1400
 0.4340	56.1600
 0.4350	56.2800
 0.4360	56.3200
 0.4370	56.2500
 0.4380	56.1900
 0.4390	56.3100
 0.4400	56.2500
 0.4410	56.1600
 0.4420	56.2400
 0.4430	56.3800
 0.4440	56.4400
 0.4450	56.3400
 0.4460	56.2900
 0.4470	56.2900
 0.4480	56.3800
 0.4490	56.2900
 0.4500	56.3100
 0.4510	56.3100
 0.4520	56.3100
 0.4530	56.3100
 0.4540	56.2300
 0.4550	56.2400
 0.4560	56.5400
 0.4570	56.3700
 0.4580	56.4000
 0.4590	56.4200
 0.4600	56.4100
 0.4610	56.4100
 0.4620	56.4400
 0.4630	56.3000
 0.4640	56.3900
 0.4650	56.5200
 0.4660	56.4800
 0.4670	56.3700
 0.4680	56.3900
 0.4690	56.4400
 0.4700	56.4000
 0.4710	56.3800
 0.4720	56.4500
 0.4730	56.5300
 0.4740	56.7000
 0.4750	56.4400
 0.4760	56.4000
 0.4770	56.6000
 0.4780	56.5200
 0.4790	56.4200
 0.4800	56.4700
 0.4810	56.5200
 0.4820	56.3800
 0.4830	56.4100
 0.4840	56.4500
 0.4850	56.5400
 0.4860	56.6300
 0.4870	56.3900
 0.4880	56.4200
 0.4890	56.5500
 0.4900	56.4900
 0.4910	56.5200
 0.4920	56.4100
 0.4930	56.4800
 0.4940	56.5300
 0.4950	56.4600
 0.4960	56.4100
 0.4970	56.5500
 0.4980	56.5200
 0.4990	56.5200
 0.5000	56.3300
 0.5010	56.4700
 0.5020	56.5200
 0.5030	56.4700
 0.5040	56.4000
 0.5050	56.4500
 0.5060	56.5700
 0.5070	56.4300
 0.5080	56.4300
 0.5090	56.5400
 0.5100	56.5200
 0.5110	56.5700
 0.5120	56.3500
 0.5130	56.5700
 0.5140	56.6800
 0.5150	56.5700
 0.5160	56.3800
 0.5170	56.4600
 0.5180	56.4900
 0.5190	56.4200
 0.5200	56.3700
 0.5210	56.4700
 0.5220	56.5900
 0.5230	56.6500
 0.5240	56.4900
 0.5250	56.5200
 0.5260	56.7000
 0.5270	56.5100
 0.5280	56.5400
 0.5290	56.4900
 0.5300	56.5400
 0.5310	56.4900
 0.5320	56.4200
 0.5330	56.3100
 0.5340	56.4500
 0.5350	56.4200
 0.5360	56.4300
 0.5370	56.4600
 0.5380	56.5300
 0.5390	56.5500
 0.5400	56.4300
 0.5410	56.3600
 0.5420	56.4100
 0.5430	56.5300
 0.5440	56.3200
 0.5450	56.4000
 0.5460	56.4900
 0.5470	56.5100
 0.5480	56.5900
 0.5490	56.4400
 0.5500	56.4800
 0.5510	56.6500
 0.5520	56.5200
 0.5530	56.4300
 0.5540	56.5000
 0.5550	56.5500
 0.5560	56.5400
 0.5570	56.5500
 0.5580	56.5700
 0.5590	56.6700
 0.5600	56.5400
 0.5610	56.7900
 0.5620	56.7400
 0.5630	56.7700
 0.5640	56.9100
 0.5650	56.8700
 0.5660	56.6300
 0.5670	56.7700
 0.5680	56.6700
 0.5690	56.6200
 0.5700	56.4300
 0.5710	56.4600
 0.5720	56.6600
 0.5730	56.5500
 0.5740	56.2200
 0.5750	56.4000
 0.5760	56.4400
 0.5770	56.5000
 0.5780	56.3800
 0.5790	56.3200
 0.5800	56.4000
 0.5810	56.4000
 0.5820	56.2400
 0.5830	56.2900
 0.5840	56.2200
 0.5850	56.4200
 0.5860	56.3700
 0.5870	56.1800
 0.5880	56.2800
 0.5890	56.4000
 0.5900	56.3700
 0.5910	56.3600
 0.5920	56.3700
 0.5930	56.3700
 0.5940	56.3800
 0.5950	56.2400
 0.5960	56.3200
 0.5970	56.2400
 0.5980	56.4900
 0.5990	56.3800
 0.6000	56.2800
 0.6010	56.4200
 0.6020	56.5900
 0.6030	56.5600
 0.6040	56.4400
 0.6050	56.5300
 0.6060	56.4500
 0.6070	56.4900
 0.6080	56.3300
 0.6090	56.2800
 0.6100	56.5300
 0.6110	56.5200
 0.6120	56.3000
 0.6130	56.4000
 0.6140	56.3800
 0.6150	56.4400
 0.6160	56.3900
 0.6170	56.3400
 0.6180	56.3000
 0.6190	56.3300
 0.6200	56.2800
 0.6210	56.2700
 0.6220	56.3600
 0.6230	56.3500
 0.6240	56.2800
 0.6250	56.3300
 0.6260	56.2900
 0.6270	56.3600
 0.6280	56.3600
 0.6290	56.3000
 0.6300	56.3500
 0.6310	56.3700
 0.6320	56.2600
 0.6330	56.3000
 0.6340	56.3000
 0.6350	56.4000
 0.6360	56.3500
 0.6370	56.2000
 0.6380	56.2400
 0.6390	56.4900
 0.6400	56.3700
 0.6410	56.2600
 0.6420	56.2900
 0.6430	56.3800
 0.6440	56.3400
 0.6450	56.2100
 0.6460	56.1500
 0.6470	56.4100
 0.6480	56.4000
 0.6490	56.1700
 0.6500	56.2800
 0.6510	56.4200
 0.6520	56.3300
 0.6530	56.3100
 0.6540	56.3700
 0.6550	56.3000
 0.6560	56.2600
 0.6570	56.2700
 0.6580	56.3100
 0.6590	56.3100
 0.6600	56.3800
 0.6610	56.2300
 0.6620	56.2900
 0.6630	56.2800
 0.6640	56.3300
 0.6650	56.2900
 0.6660	56.2400
 0.6670	56.3600
 0.6680	56.4400
 0.6690	56.3400
 0.6700	56.3300
 0.6710	56.3000
 0.6720	56.4300
 0.6730	56.2700
 0.6740	56.1900
 0.6750	56.3000
 0.6760	56.4500
 0.6770	56.3500
 0.6780	56.2400
 0.6790	56.3900
 0.6800	56.4100
 0.6810	56.3100
 0.6820	56.2700
 0.6830	56.2600
 0.6840	56.5000
 0.6850	56.3700
 0.6860	56.3000
 0.6870	56.3600
 0.6880	56.4100
 0.6890	56.3700
 0.6900	56.4400
 0.6910	56.4300
 0.6920	56.4300
 0.6930	56.4200
 0.6940	56.3700
 0.6950	56.4200
 0.6960	56.4800
 0.6970	56.4900
 0.6980	56.3300
 0.6990	56.2300
 0.7000	56.2900
 0.7010	56.3800
 0.7020	56.4100
 0.7030	56.4200
 0.7040	56.3600
 0.7050	56.3500
 0.7060	56.4200
 0.7070	56.5600
 0.7080	56.3900
 0.7090	56.3500
 0.7100	56.3700
 0.7110	56.4400
 0.7120	56.3400
 0.7130	56.3800
 0.7140	56.3500
 0.7150	56.5000
 0.7160	56.5200
 0.7170	56.2400
 0.7180	56.3700
 0.7190	56.4400
 0.7200	56.4900
 0.7210	56.4400
 0.7220	56.3000
 0.7230	56.3800
 0.7240	56.3700
 0.7250	56.4200
 0.7260	56.3400
 0.7270	56.4200
 0.7280	56.4500
 0.7290	56.4200
 0.7300	56.2900
 0.7310	56.4300
 0.7320	56.4500
 0.7330	56.6400
 0.7340	56.5400
 0.7350	56.4500
 0.7360	56.5100
 0.7370	56.5500
 0.7380	56.4900
 0.7390	56.4400
 0.7400	56.4400
 0.7410	56.4900
 0.7420	56.5200
 0.7430	56.4800
 0.7440	56.3800
 0.7450	56.4800
 0.7460	56.5100
 0.7470	56.5000
 0.7480	56.4600
 0.7490	56.3800
 0.7500	56.4600
 0.7510	56.6300
 0.7520	56.4900
 0.7530	56.4900
 0.7540	56.5600
 0.7550	56.6300
 0.7560	56.5000
 0.7570	56.3300
 0.7580	56.4800
 0.7590	56.5300
 0.7600	56.6000
 0.7610	56.5100
 0.7620	56.4400
 0.7630	56.4500
 0.7640	56.5800
 0.7650	56.4600
 0.7660	56.4600
 0.7670	56.5100
 0.7680	56.5800
 0.7690	56.5800
 0.7700	56.4400
 0.7710	56.5400
 0.7720	56.6800
 0.7730	56.6700
 0.7740	56.6000
 0.7750	56.4500
 0.7760	56.4900
 0.7770	56.5700
 0.7780	56.5200
 0.7790	56.5300
 0.7800	56.5100
 0.7810	56.6800
 0.7820	56.7200
 0.7830	56.4600
 0.7840	56.5700
 0.7850	56.6000
 0.7860	56.6900
 0.7870	56.6000
 0.7880	56.5900
 0.7890	56.6900
 0.7900	56.7700
 0.7910	56.6500
 0.7920	56.6400
 0.7930	56.6700
 0.7940	56.7700
 0.7950	56.8000
 0.7960	56.7200
 0.7970	56.7500
 0.7980	56.8200
 0.7990	56.8700
 0.8000	57.0600
 0.8040	56.9600
 0.8080	56.9300
 0.8120	57.0400
 0.8160	57.1100
 0.8200	57.0500
 0.8240	57.1500
 0.8280	57.1800
 0.8320	57.2000
 0.8360	57.2400
 0.8400	57.2400
 0.8440	57.2900
 0.8480	57.3100
 0.8520	57.3400
 0.8560	57.3800
 0.8600	57.3700
 0.8640	57.3800
 0.8680	57.3700
 0.8720	57.4100
 0.8760	57.2900
 0.8800	57.2200
 0.8840	57.2200
 0.8880	57.2600
 0.8920	57.2200
 0.8960	57.2000
 0.9000	57.2600
 0.9040	57.2700
 0.9080	57.2900
 0.9120	57.2900
 0.9160	57.3400
 0.9200	57.2700
 0.9240	57.2800
 0.9280	57.3800
 0.9320	57.3700
 0.9360	57.3200
 0.9400	57.4000
 0.9440	57.4200
 0.9480	57.3400
 0.9520	57.3100
 0.9560	57.4200
 0.9600	57.4500
 0.9640	57.4300
 0.9680	57.4600
 0.9720	57.4600
 0.9760	57.4200
 0.9800	57.4400
 0.9840	57.4300
 0.9880	57.4700
 0.9920	57.5000
 0.9960	57.4400
 1.0000	57.4700
 1.0040	57.4200
 1.0080	57.4500
 1.0120	57.4300
 1.0160	57.4400
 1.0200	57.5000
 1.0240	57.4900
 1.0280	57.4600
 1.0320	57.4900
 1.0360	57.5300
 1.0400	57.5500
 1.0440	57.5700
 1.0480	57.5300
 1.0520	57.5500
 1.0560	57.6300
 1.0600	57.6400
 1.0640	57.5900
 1.0680	57.5700
 1.0720	57.5900
 1.0760	57.5500
 1.0800	57.6200
 1.0840	57.6700
 1.0880	57.5500
 1.0920	57.5800
 1.0960	57.6000
 1.1000	57.6100
 1.1040	57.5400
 1.1080	57.6100
 1.1120	57.5900
 1.1160	57.6500
 1.1200	57.6100
 1.1240	57.7000
 1.1280	57.6700
 1.1320	57.6500
 1.1360	57.7400
 1.1400	57.6900
 1.1440	57.7000
 1.1480	57.7100
 1.1520	57.7200
 1.1560	57.6800
 1.1600	57.6900
 1.1640	57.6100
 1.1680	57.6300
 1.1720	57.6600
 1.1760	57.6800
 1.1800	57.6200
 1.1840	57.6200
 1.1880	57.5900
 1.1920	57.6200
 1.1960	57.6300
 1.2000	57.5800
 1.2040	57.6200
 1.2080	57.6000
 1.2120	57.6100
 1.2160	57.6700
 1.2200	57.5800
 1.2240	57.5900
 1.2280	57.6000
 1.2320	57.7000
 1.2360	57.6400
 1.2400	57.7300
 1.2440	57.7000
 1.2480	57.7500
 1.2520	57.8700
 1.2560	57.7900
 1.2600	57.8400
 1.2640	57.8400
 1.2680	57.7800
 1.2720	57.7900
 1.2760	57.7200
 1.2800	57.7200
 1.2840	57.7500
 1.2880	57.7600
 1.2920	57.7300
 1.2960	57.6800
 1.3000	57.7800
 1.3040	57.7700
 1.3080	57.7200
 1.3120	57.6800
 1.3160	57.6600
 1.3200	57.6600
 1.3240	57.7000
 1.3280	57.5800
 1.3320	57.6100
 1.3360	57.5400
 1.3400	57.4800
 1.3440	57.4600
 1.3480	57.5100
 1.3520	57.6700
 1.3560	57.6500
 1.3600	57.6500
 1.3640	57.4900
 1.3680	57.5900
 1.3720	57.5700
 1.3760	57.6200
 1.3800	57.5800
 1.3840	57.4800
 1.3880	57.0300
 1.3920	55.2900
 1.3960	52.6400
 1.4000	51.6600
 1.4040	53.5200
 1.4080	56.0400
 1.4120	57.2000
 1.4160	57.6300
 1.4200	57.8100
 1.4240	57.8000
 1.4280	57.9100
 1.4320	57.8600
 1.4360	57.8400
 1.4400	57.8400
 1.4440	57.9400
 1.4480	57.8900
 1.4520	57.9200
 1.4560	57.8700
 1.4600	57.9600
 1.4640	57.9800
 1.4680	57.8700
 1.4720	57.8800
 1.4760	57.9200
 1.4800	57.9300
 1.4840	57.9700
 1.4880	58.0000
 1.4920	58.0000
 1.4960	58.0100
 1.5000	58.1000
 1.5040	58.1200
 1.5080	58.1500
 1.5120	58.1100
 1.5160	58.1500
 1.5200	58.0900
 1.5240	58.1300
 1.5280	58.1400
 1.5320	58.1300
 1.5360	58.1400
 1.5400	58.1000
 1.5440	58.0600
 1.5480	58.0200
 1.5520	58.0500
 1.5560	58.1200
 1.5600	58.1500
 1.5640	58.1400
 1.5680	58.1200
 1.5720	58.1100
 1.5760	58.2500
 1.5800	58.1500
 1.5840	58.2100
 1.5880	58.2500
 1.5920	58.1500
 1.5960	58.1700
 1.6000	58.2000
 1.6040	58.2100
 1.6080	58.2900
 1.6120	58.3400
 1.6160	58.2800
 1.6200	58.3000
 1.6240	58.2600
 1.6280	58.2300
 1.6320	58.2200
 1.6360	58.2800
 1.6400	58.3200
 1.6440	58.3300
 1.6480	58.4100
 1.6520	58.4400
 1.6560	58.4600
 1.6600	58.4200
 1.6640	58.4400
 1.6680	58.3200
 1.6720	58.1300
 1.6760	57.9700
 1.6800	57.9800
 1.6840	58.1000
 1.6880	58.2700
 1.6920	58.4000
 1.6960	58.4100
 1.7000	58.4900
 1.7040	58.5400
 1.7080	58.4300
 1.7120	58.3400
 1.7160	58.3600
 1.7200	58.4100
 1.7240	58.3700
 1.7280	58.4700
 1.7320	58.4000
 1.7360	58.4700
 1.7400	58.4700
 1.7440	58.4700
 1.7480	58.4700
 1.7520	58.4800
 1.7560	58.5000
 1.7600	58.4700
 1.7640	58.4700
 1.7680	58.4500
 1.7720	58.5500
 1.7760	58.5200
 1.7800	58.5200
 1.7840	58.5800
 1.7880	58.5300
 1.7920	58.6200
 1.7960	58.6000
 1.8000	58.6600
 1.8040	58.5800
 1.8080	58.6400
 1.8120	58.5500
 1.8160	58.5400
 1.8200	58.5400
 1.8240	58.5500
 1.8280	58.5200
 1.8320	58.4400
 1.8360	58.4900
 1.8400	58.4100
 1.8440	58.4700
 1.8480	58.4700
 1.8520	58.4400
 1.8560	58.4500
 1.8600	58.4600
 1.8640	58.4900
 1.8680	58.5100
 1.8720	58.4400
 1.8760	58.4000
 1.8800	58.3800
 1.8840	58.3200
 1.8880	58.3400
 1.8920	58.2500
 1.8960	58.2200
 1.9000	58.1700
 1.9040	58.0500
 1.9080	58.0500
 1.9120	58.1000
 1.9160	58.0400
 1.9200	58.1000
 1.9240	58.1500
 1.9280	58.1300
 1.9320	58.1000
 1.9360	58.2100
 1.9400	58.2100
 1.9440	58.2300
 1.9480	58.2800
 1.9520	58.3100
 1.9560	58.2300
 1.9600	58.2700
 1.9640	58.2700
 1.9680	58.3400
 1.9720	58.1700
 1.9760	58.3100
 1.9800	58.3400
 1.9840	58.3700
 1.9880	58.4600
 1.9920	58.4900
 1.9960	58.5600
 2.0000	58.5600
 2.0040	58.5300
 2.0080	58.5500
 2.0120	58.5500
 2.0160	58.6300
 2.0200	58.6000
 2.0240	58.5600
 2.0280	58.4700
 2.0320	58.4500
 2.0360	58.3400
 2.0400	58.1300
 2.0440	57.7900
 2.0480	57.1100
 2.0520	55.9700
 2.0560	53.8100
 2.0600	50.8900
 2.0640	47.6500
 2.0680	44.4600
 2.0720	41.8400
 2.0760	40.3500
 2.0800	40.4800
 2.0840	42.0700
 2.0880	44.4900
 2.0920	47.4800
 2.0960	50.5700
 2.1000	53.3100
 2.1040	55.1500
 2.1080	56.2200
 2.1120	56.8100
 2.1160	57.0200
 2.1200	56.9000
 2.1240	56.5600
 2.1280	56.0300
 2.1320	55.6300
 2.1360	55.0700
 2.1400	54.6800
 2.1440	54.4400
 2.1480	54.4100
 2.1520	54.5100
 2.1560	54.8500
 2.1600	55.0500
 2.1640	55.3500
 2.1680	55.5900
 2.1720	55.9100
 2.1760	56.0000
 2.1800	56.1800
 2.1840	56.2300
 2.1880	56.1600
 2.1920	56.1600
 2.1960	56.1100
 2.2000	56.1400
 2.2040	56.1300
 2.2080	56.2200
 2.2120	56.5300
 2.2160	56.8800
 2.2200	57.1600
 2.2240	57.4600
 2.2280	57.6500
 2.2320	57.7700
 2.2360	57.7300
 2.2400	57.6200
 2.2440	57.4800
 2.2480	57.3100
 2.2520	57.1300
 2.2560	56.9800
 2.2600	57.0200
 2.2640	57.0500
 2.2680	57.1600
 2.2720	57.1500
 2.2760	57.1900
 2.2800	57.0600
 2.2840	57.0100
 2.2880	56.8400
 2.2920	56.7600
 2.2960	56.3500
 2.3000	56.1900
 2.3040	55.8400
 2.3080	55.5800
 2.3120	55.2900
 2.3160	55.1000
 2.3200	54.9100
 2.3240	54.7800
 2.3280	54.7100
 2.3320	54.5900
 2.3360	54.5100
 2.3400	54.4100
 2.3440	54.4600
 2.3480	54.3300
 2.3520	54.2000
 2.3560	54.0800
 2.3600	53.9200
 2.3640	53.7700
 2.3680	53.6600
 2.3720	53.4900
 2.3760	53.4600
 2.3800	53.2600
 2.3840	53.0700
 2.3880	52.8400
 2.3920	52.6500
 2.3960	52.3800
 2.4000	52.1800
 2.4040	51.8900
 2.4080	51.6900
 2.4120	51.4900
 2.4160	51.3100
 2.4200	51.0700
 2.4240	50.9100
 2.4280	50.7000
 2.4320	50.4400
 2.4360	50.1600
 2.4400	49.7100
 2.4440	49.3500
 2.4480	48.8800
 2.4520	48.2600
 2.4560	47.6400
 2.4600	46.9700
 2.4640	46.3000
 2.4680	45.5200
 2.4720	44.8400
 2.4760	44.0400
 2.4800	43.2800
 2.4840	42.4300
 2.4880	41.6500
 2.4920	40.6800
 2.4960	39.9100
 2.5000	39.1900
