Name: Wollastonite CaSiO_3
Type: Mineral
Class: Silicate
Subclass: Inosilicate
Particle Size: Fine
Sample No.: IN-2A
Owner: JPL
Wavelength Range: VSWIR
Origin: USA, California, Inyo County, Panamint Mountains
Collection Date: N/A
Description: Particle size was 0-45um.Collected by Burminco Original ASTER Spectral Library name was jpl.beckman.mineral.silicate.inosilicate.fine.in02a.spectrum.txt
Measurement: Hemispherical reflectance
First Column: X
Second Column: Y
X Units: Wavelength (micrometers)
Y Units:Reflectance (percent)
First X Value:  0.4000
Last X Value:  2.5000
Number of X Values: 826
Additional Information: mineral.silicate.inosilicate.fine.vswir.in-2a.jpl.beckman.ancillary.txt

 0.4000	78.6000
 0.4010	78.7400
 0.4020	78.7500
 0.4030	78.9100
 0.4040	79.1100
 0.4050	79.0000
 0.4060	79.1100
 0.4070	79.1400
 0.4080	79.2000
 0.4090	79.3700
 0.4100	79.2800
 0.4110	79.3800
 0.4120	79.3900
 0.4130	79.6100
 0.4140	79.7100
 0.4150	79.5400
 0.4160	79.5700
 0.4170	79.6900
 0.4180	79.7900
 0.4190	79.9400
 0.4200	79.7700
 0.4210	79.7600
 0.4220	79.8200
 0.4230	79.8800
 0.4240	79.9200
 0.4250	79.8500
 0.4260	79.8800
 0.4270	80.1300
 0.4280	80.1400
 0.4290	79.9700
 0.4300	79.9400
 0.4310	80.1700
 0.4320	80.3200
 0.4330	80.2700
 0.4340	80.1000
 0.4350	80.1700
 0.4360	80.3600
 0.4370	80.3600
 0.4380	80.3300
 0.4390	80.2400
 0.4400	80.4900
 0.4410	80.5200
 0.4420	80.6400
 0.4430	80.5200
 0.4440	80.5200
 0.4450	80.7800
 0.4460	80.7800
 0.4470	80.6800
 0.4480	80.5700
 0.4490	80.5500
 0.4500	80.7100
 0.4510	80.6900
 0.4520	80.7400
 0.4530	80.7600
 0.4540	80.9300
 0.4550	81.0700
 0.4560	81.0200
 0.4570	80.8900
 0.4580	81.0500
 0.4590	81.1100
 0.4600	81.2300
 0.4610	81.1100
 0.4620	81.1700
 0.4630	81.0900
 0.4640	80.9100
 0.4650	81.0900
 0.4660	81.2300
 0.4670	81.4200
 0.4680	81.2800
 0.4690	81.2200
 0.4700	81.2100
 0.4710	81.3900
 0.4720	81.4800
 0.4730	81.4000
 0.4740	81.4300
 0.4750	81.5800
 0.4760	81.6000
 0.4770	81.5400
 0.4780	81.5000
 0.4790	81.6300
 0.4800	81.7400
 0.4810	81.7800
 0.4820	81.6400
 0.4830	81.7500
 0.4840	81.7800
 0.4850	81.8500
 0.4860	81.8200
 0.4870	81.7100
 0.4880	81.8700
 0.4890	82.0100
 0.4900	81.9100
 0.4910	81.7200
 0.4920	81.8100
 0.4930	81.9000
 0.4940	82.1500
 0.4950	82.0500
 0.4960	81.9000
 0.4970	81.9800
 0.4980	82.1500
 0.4990	82.1700
 0.5000	82.1200
 0.5010	82.1200
 0.5020	82.2600
 0.5030	82.3100
 0.5040	82.1300
 0.5050	82.1300
 0.5060	82.2000
 0.5070	82.4300
 0.5080	82.3600
 0.5090	82.4200
 0.5100	82.4200
 0.5110	82.5100
 0.5120	82.5000
 0.5130	82.5000
 0.5140	82.4500
 0.5150	82.5600
 0.5160	82.6800
 0.5170	82.6000
 0.5180	82.5300
 0.5190	82.6500
 0.5200	82.7300
 0.5210	82.8300
 0.5220	82.6300
 0.5230	82.7400
 0.5240	82.7000
 0.5250	82.7700
 0.5260	82.7600
 0.5270	82.6600
 0.5280	82.8200
 0.5290	82.7300
 0.5300	82.7300
 0.5310	82.6600
 0.5320	82.7100
 0.5330	82.9600
 0.5340	83.0200
 0.5350	82.8300
 0.5360	82.9300
 0.5370	82.9200
 0.5380	82.9800
 0.5390	83.0300
 0.5400	82.8600
 0.5410	83.0600
 0.5420	83.0400
 0.5430	82.9600
 0.5440	82.9800
 0.5450	83.0700
 0.5460	83.2600
 0.5470	83.2700
 0.5480	83.0600
 0.5490	83.2600
 0.5500	83.2200
 0.5510	83.2300
 0.5520	83.1300
 0.5530	83.2600
 0.5540	83.4000
 0.5550	83.4400
 0.5560	83.2100
 0.5570	83.3300
 0.5580	83.3300
 0.5590	83.4400
 0.5600	83.4000
 0.5610	83.8500
 0.5620	83.8500
 0.5630	83.7300
 0.5640	83.9200
 0.5650	83.8400
 0.5660	83.8500
 0.5670	83.6500
 0.5680	83.6600
 0.5690	83.7800
 0.5700	83.6000
 0.5710	83.5900
 0.5720	83.5200
 0.5730	83.5600
 0.5740	83.4800
 0.5750	83.3400
 0.5760	83.3000
 0.5770	83.3900
 0.5780	83.4300
 0.5790	83.3600
 0.5800	83.2800
 0.5810	83.2700
 0.5820	83.3200
 0.5830	83.4100
 0.5840	83.2800
 0.5850	83.2900
 0.5860	83.4200
 0.5870	83.4800
 0.5880	83.3600
 0.5890	83.3000
 0.5900	83.4000
 0.5910	83.5800
 0.5920	83.4300
 0.5930	83.3200
 0.5940	83.3600
 0.5950	83.6400
 0.5960	83.4700
 0.5970	83.3800
 0.5980	83.3600
 0.5990	83.5400
 0.6000	83.4800
 0.6010	83.5900
 0.6020	83.4700
 0.6030	83.6800
 0.6040	83.6500
 0.6050	83.6600
 0.6060	83.4800
 0.6070	83.4100
 0.6080	83.5700
 0.6090	83.4600
 0.6100	83.4800
 0.6110	83.4400
 0.6120	83.5200
 0.6130	83.5900
 0.6140	83.5700
 0.6150	83.4600
 0.6160	83.7200
 0.6170	83.6500
 0.6180	83.5500
 0.6190	83.2900
 0.6200	83.3200
 0.6210	83.5300
 0.6220	83.4600
 0.6230	83.4600
 0.6240	83.4200
 0.6250	83.5300
 0.6260	83.4700
 0.6270	83.4600
 0.6280	83.3900
 0.6290	83.5700
 0.6300	83.5700
 0.6310	83.4200
 0.6320	83.3200
 0.6330	83.4700
 0.6340	83.4500
 0.6350	83.4100
 0.6360	83.3100
 0.6370	83.4800
 0.6380	83.5300
 0.6390	83.3900
 0.6400	83.4400
 0.6410	83.4400
 0.6420	83.5700
 0.6430	83.5200
 0.6440	83.4800
 0.6450	83.3200
 0.6460	83.3600
 0.6470	83.5900
 0.6480	83.3700
 0.6490	83.3800
 0.6500	83.3700
 0.6510	83.4800
 0.6520	83.5000
 0.6530	83.4900
 0.6540	83.4500
 0.6550	83.5200
 0.6560	83.5400
 0.6570	83.4900
 0.6580	83.3200
 0.6590	83.3100
 0.6600	83.3700
 0.6610	83.4200
 0.6620	83.4300
 0.6630	83.3600
 0.6640	83.5400
 0.6650	83.5100
 0.6660	83.4400
 0.6670	83.4100
 0.6680	83.5300
 0.6690	83.5500
 0.6700	83.5300
 0.6710	83.3600
 0.6720	83.3600
 0.6730	83.5300
 0.6740	83.5300
 0.6750	83.5400
 0.6760	83.5400
 0.6770	83.5800
 0.6780	83.6100
 0.6790	83.5000
 0.6800	83.5200
 0.6810	83.5300
 0.6820	83.6600
 0.6830	83.6400
 0.6840	83.4800
 0.6850	83.4300
 0.6860	83.6100
 0.6870	83.6200
 0.6880	83.5600
 0.6890	83.5300
 0.6900	83.6300
 0.6910	83.7200
 0.6920	83.5700
 0.6930	83.6900
 0.6940	83.6100
 0.6950	83.7100
 0.6960	83.8100
 0.6970	83.8000
 0.6980	83.5700
 0.6990	83.5300
 0.7000	83.6000
 0.7010	83.6200
 0.7020	83.3700
 0.7030	83.3700
 0.7040	83.4700
 0.7050	83.4700
 0.7060	83.4800
 0.7070	83.4800
 0.7080	83.4800
 0.7090	83.6400
 0.7100	83.5700
 0.7110	83.4700
 0.7120	83.5900
 0.7130	83.7700
 0.7140	83.6600
 0.7150	83.5700
 0.7160	83.6000
 0.7170	83.6400
 0.7180	83.7600
 0.7190	83.6600
 0.7200	83.5800
 0.7210	83.5900
 0.7220	83.6900
 0.7230	83.6600
 0.7240	83.5500
 0.7250	83.5500
 0.7260	83.7200
 0.7270	83.7900
 0.7280	83.6700
 0.7290	83.5600
 0.7300	83.4800
 0.7310	83.7400
 0.7320	83.5800
 0.7330	83.6600
 0.7340	83.6700
 0.7350	83.6700
 0.7360	83.7100
 0.7370	83.6500
 0.7380	83.5100
 0.7390	83.6600
 0.7400	83.7000
 0.7410	83.7400
 0.7420	83.6100
 0.7430	83.5900
 0.7440	83.7400
 0.7450	83.6600
 0.7460	83.6600
 0.7470	83.5000
 0.7480	83.5800
 0.7490	83.6800
 0.7500	83.6600
 0.7510	83.5600
 0.7520	83.6400
 0.7530	83.8100
 0.7540	83.6700
 0.7550	83.6100
 0.7560	83.4600
 0.7570	83.4800
 0.7580	83.6800
 0.7590	83.5500
 0.7600	83.5500
 0.7610	83.5200
 0.7620	83.6500
 0.7630	83.6400
 0.7640	83.5800
 0.7650	83.5300
 0.7660	83.6000
 0.7670	83.6400
 0.7680	83.6200
 0.7690	83.5200
 0.7700	83.4900
 0.7710	83.6200
 0.7720	83.6000
 0.7730	83.5200
 0.7740	83.5900
 0.7750	83.6500
 0.7760	83.6900
 0.7770	83.5000
 0.7780	83.5300
 0.7790	83.5500
 0.7800	83.6600
 0.7810	83.6600
 0.7820	83.4700
 0.7830	83.5000
 0.7840	83.5000
 0.7850	83.5500
 0.7860	83.3500
 0.7870	83.3600
 0.7880	83.3800
 0.7890	83.4900
 0.7900	83.3700
 0.7910	83.3600
 0.7920	83.5600
 0.7930	83.6100
 0.7940	83.5900
 0.7950	83.4400
 0.7960	83.3300
 0.7970	83.5000
 0.7980	83.5700
 0.7990	83.4800
 0.8000	83.4700
 0.8040	83.5100
 0.8080	83.4600
 0.8120	83.4500
 0.8160	83.4500
 0.8200	83.4800
 0.8240	83.4000
 0.8280	83.3000
 0.8320	83.3200
 0.8360	83.2300
 0.8400	83.1300
 0.8440	83.1600
 0.8480	83.0600
 0.8520	83.0800
 0.8560	83.1000
 0.8600	83.0600
 0.8640	83.0400
 0.8680	82.9400
 0.8720	82.9300
 0.8760	82.7300
 0.8800	82.7500
 0.8840	82.6900
 0.8880	82.6000
 0.8920	82.5700
 0.8960	82.5300
 0.9000	82.4100
 0.9040	82.3400
 0.9080	82.3500
 0.9120	82.2600
 0.9160	82.2300
 0.9200	82.1500
 0.9240	82.2100
 0.9280	82.1500
 0.9320	82.2200
 0.9360	82.1800
 0.9400	82.1200
 0.9440	82.2100
 0.9480	82.2000
 0.9520	82.0900
 0.9560	82.1100
 0.9600	82.1800
 0.9640	82.0300
 0.9680	82.0900
 0.9720	82.0900
 0.9760	82.0300
 0.9800	82.0700
 0.9840	82.0100
 0.9880	82.1000
 0.9920	82.0400
 0.9960	82.0100
 1.0000	82.0700
 1.0040	82.1200
 1.0080	82.1200
 1.0120	82.0900
 1.0160	82.0900
 1.0200	82.0700
 1.0240	82.1300
 1.0280	81.9800
 1.0320	82.0100
 1.0360	81.9500
 1.0400	81.9900
 1.0440	81.9700
 1.0480	81.9000
 1.0520	81.9900
 1.0560	82.0100
 1.0600	82.0100
 1.0640	82.0100
 1.0680	82.1700
 1.0720	82.0100
 1.0760	82.0300
 1.0800	82.0700
 1.0840	82.0100
 1.0880	82.0100
 1.0920	81.9700
 1.0960	81.9200
 1.1000	81.9200
 1.1040	81.9800
 1.1080	81.9200
 1.1120	81.8900
 1.1160	81.8900
 1.1200	82.0000
 1.1240	81.9800
 1.1280	82.0400
 1.1320	81.9900
 1.1360	81.9500
 1.1400	81.9400
 1.1440	81.9900
 1.1480	82.0100
 1.1520	82.0700
 1.1560	81.9800
 1.1600	82.0300
 1.1640	81.9700
 1.1680	82.0300
 1.1720	82.0400
 1.1760	81.8700
 1.1800	81.9300
 1.1840	81.9400
 1.1880	81.9600
 1.1920	82.0500
 1.1960	82.1200
 1.2000	82.1600
 1.2040	82.2200
 1.2080	82.2300
 1.2120	82.2100
 1.2160	82.2000
 1.2200	82.2500
 1.2240	82.3300
 1.2280	82.3100
 1.2320	82.3500
 1.2360	82.4000
 1.2400	82.3800
 1.2440	82.3500
 1.2480	82.4300
 1.2520	82.4000
 1.2560	82.5000
 1.2600	82.5100
 1.2640	82.5800
 1.2680	82.5600
 1.2720	82.6300
 1.2760	82.7100
 1.2800	82.8000
 1.2840	82.7800
 1.2880	82.9000
 1.2920	82.8300
 1.2960	82.8200
 1.3000	82.8200
 1.3040	82.7800
 1.3080	82.9000
 1.3120	82.7600
 1.3160	82.8000
 1.3200	82.8300
 1.3240	82.8900
 1.3280	82.8600
 1.3320	82.9300
 1.3360	82.8700
 1.3400	82.9200
 1.3440	82.9600
 1.3480	83.0500
 1.3520	83.0000
 1.3560	83.0800
 1.3600	83.0800
 1.3640	83.0000
 1.3680	82.9300
 1.3720	82.8900
 1.3760	82.9000
 1.3800	82.8800
 1.3840	82.9200
 1.3880	82.9700
 1.3920	82.8900
 1.3960	82.9600
 1.4000	82.9000
 1.4040	82.8900
 1.4080	82.8900
 1.4120	82.8700
 1.4160	82.9400
 1.4200	82.8900
 1.4240	82.8800
 1.4280	82.8800
 1.4320	82.8600
 1.4360	82.9400
 1.4400	82.8700
 1.4440	82.9000
 1.4480	82.8800
 1.4520	82.8100
 1.4560	82.9500
 1.4600	82.9000
 1.4640	82.8900
 1.4680	82.8300
 1.4720	82.7400
 1.4760	82.7600
 1.4800	82.9500
 1.4840	82.9700
 1.4880	83.1100
 1.4920	83.1700
 1.4960	83.1800
 1.5000	83.0600
 1.5040	83.0700
 1.5080	83.0900
 1.5120	83.0700
 1.5160	83.2100
 1.5200	83.0900
 1.5240	83.0500
 1.5280	83.2400
 1.5320	83.1800
 1.5360	83.1900
 1.5400	83.2400
 1.5440	83.2600
 1.5480	83.1900
 1.5520	83.2000
 1.5560	83.1800
 1.5600	83.1300
 1.5640	83.1300
 1.5680	83.1000
 1.5720	83.1500
 1.5760	83.1700
 1.5800	83.2200
 1.5840	83.1700
 1.5880	83.2700
 1.5920	83.2200
 1.5960	83.2800
 1.6000	83.2300
 1.6040	83.3600
 1.6080	83.2400
 1.6120	83.2400
 1.6160	83.1500
 1.6200	83.2200
 1.6240	83.1900
 1.6280	83.2200
 1.6320	83.2600
 1.6360	83.3400
 1.6400	83.3500
 1.6440	83.4100
 1.6480	83.4000
 1.6520	83.3800
 1.6560	83.3600
 1.6600	83.3600
 1.6640	83.2400
 1.6680	83.4100
 1.6720	83.4100
 1.6760	83.4100
 1.6800	83.3300
 1.6840	83.3600
 1.6880	83.3600
 1.6920	83.3400
 1.6960	83.2800
 1.7000	83.3100
 1.7040	83.3700
 1.7080	83.4700
 1.7120	83.3900
 1.7160	83.4400
 1.7200	83.4800
 1.7240	83.4100
 1.7280	83.4600
 1.7320	83.4500
 1.7360	83.4500
 1.7400	83.4200
 1.7440	83.3700
 1.7480	83.3400
 1.7520	83.2800
 1.7560	83.1900
 1.7600	83.2700
 1.7640	83.2300
 1.7680	83.2100
 1.7720	83.1900
 1.7760	83.2600
 1.7800	83.2300
 1.7840	83.2200
 1.7880	83.2200
 1.7920	83.2200
 1.7960	83.2600
 1.8000	83.3000
 1.8040	83.3900
 1.8080	83.3100
 1.8120	83.3300
 1.8160	83.3300
 1.8200	83.3100
 1.8240	83.3000
 1.8280	83.3000
 1.8320	83.2800
 1.8360	83.2600
 1.8400	83.2000
 1.8440	83.1200
 1.8480	83.1200
 1.8520	83.1300
 1.8560	83.0800
 1.8600	83.0300
 1.8640	82.9900
 1.8680	83.0400
 1.8720	83.0500
 1.8760	82.9100
 1.8800	82.7900
 1.8840	82.7700
 1.8880	82.5000
 1.8920	82.3400
 1.8960	82.2500
 1.9000	81.9600
 1.9040	81.7600
 1.9080	81.6100
 1.9120	81.6500
 1.9160	81.6500
 1.9200	81.6300
 1.9240	81.6400
 1.9280	81.6700
 1.9320	81.7400
 1.9360	81.8100
 1.9400	81.8500
 1.9440	82.0600
 1.9480	82.0700
 1.9520	82.1000
 1.9560	82.1900
 1.9600	82.1600
 1.9640	82.2400
 1.9680	82.3700
 1.9720	82.3300
 1.9760	82.4400
 1.9800	82.4500
 1.9840	82.4400
 1.9880	82.5200
 1.9920	82.6100
 1.9960	82.7300
 2.0000	82.7700
 2.0040	82.8200
 2.0080	82.7900
 2.0120	82.9400
 2.0160	82.9400
 2.0200	83.0600
 2.0240	83.0000
 2.0280	83.1200
 2.0320	83.1200
 2.0360	83.2600
 2.0400	83.2100
 2.0440	83.1900
 2.0480	83.2700
 2.0520	83.3200
 2.0560	83.2500
 2.0600	83.2900
 2.0640	83.2700
 2.0680	83.2800
 2.0720	83.3000
 2.0760	83.3900
 2.0800	83.3700
 2.0840	83.4000
 2.0880	83.4700
 2.0920	83.4500
 2.0960	83.5400
 2.1000	83.6300
 2.1040	83.6500
 2.1080	83.7400
 2.1120	83.7900
 2.1160	83.8100
 2.1200	83.8000
 2.1240	83.7600
 2.1280	83.8400
 2.1320	83.7400
 2.1360	83.7900
 2.1400	83.6700
 2.1440	83.6300
 2.1480	83.5000
 2.1520	83.5000
 2.1560	83.5300
 2.1600	83.4800
 2.1640	83.4200
 2.1680	83.4600
 2.1720	83.3200
 2.1760	83.3000
 2.1800	83.2600
 2.1840	83.1300
 2.1880	83.0600
 2.1920	83.0000
 2.1960	82.9300
 2.2000	82.8900
 2.2040	82.9000
 2.2080	82.7800
 2.2120	82.8100
 2.2160	82.8100
 2.2200	82.7300
 2.2240	82.7300
 2.2280	82.8500
 2.2320	82.7400
 2.2360	82.7800
 2.2400	82.7200
 2.2440	82.7100
 2.2480	82.7600
 2.2520	82.7700
 2.2560	82.7500
 2.2600	82.6400
 2.2640	82.6300
 2.2680	82.7600
 2.2720	82.6400
 2.2760	82.7600
 2.2800	82.7500
 2.2840	82.8000
 2.2880	82.6700
 2.2920	82.6600
 2.2960	82.6300
 2.3000	82.5900
 2.3040	82.5500
 2.3080	82.5000
 2.3120	82.3500
 2.3160	82.2900
 2.3200	82.1000
 2.3240	81.9700
 2.3280	81.8100
 2.3320	81.7000
 2.3360	81.5800
 2.3400	81.5000
 2.3440	81.4700
 2.3480	81.4000
 2.3520	81.3700
 2.3560	81.3100
 2.3600	81.3300
 2.3640	81.3800
 2.3680	81.4100
 2.3720	81.5900
 2.3760	81.5800
 2.3800	81.6400
 2.3840	81.6300
 2.3880	81.7600
 2.3920	81.6800
 2.3960	81.7600
 2.4000	81.8600
 2.4040	81.8800
 2.4080	81.9800
 2.4120	82.0200
 2.4160	82.1100
 2.4200	82.1100
 2.4240	82.1600
 2.4280	82.1200
 2.4320	82.1400
 2.4360	82.1000
 2.4400	82.0300
 2.4440	82.0000
 2.4480	81.9500
 2.4520	81.9300
 2.4560	81.8100
 2.4600	81.6700
 2.4640	81.5800
 2.4680	81.5800
 2.4720	81.4900
 2.4760	81.4600
 2.4800	81.6000
 2.4840	81.6200
 2.4880	81.6600
 2.4920	81.6700
 2.4960	81.6700
 2.5000	81.7900
