Name: Clinochlore (Chlorite) (Mg,Al)_6(Si,Al)_4O_10(OH)_8
Type: Mineral
Class: Silicate
Subclass: Phyllosilicate
Particle Size: Medium
Sample No.: PS-12A
Owner: JPL
Wavelength Range: VSWIR
Origin: USA, California, El Dorado County, Flagstaff Hill.
Collection Date: N/A
Description: Particle size was 45-125um.Collected by:  Clay Mineral Society Original ASTER Spectral Library name was jpl.perkin.mineral.silicate.phyllosilicate.medium.ps12a.spectrum.txt
Measurement: Hemispherical reflectance
First Column: X
Second Column: Y
X Units: Wavelength (micrometers)
Y Units:Reflectance (percent)
First X Value:  2.5000
Last X Value:  0.4000
Number of X Values: 2101
Additional Information: mineral.silicate.phyllosilicate.medium.vswir.ps-12a.jpl.perkin.ancillary.txt

 2.5000	35.5185
 2.4990	35.3731
 2.4980	35.3172
 2.4970	35.7114
 2.4960	35.2620
 2.4950	35.4275
 2.4940	35.4508
 2.4930	35.5504
 2.4920	35.3040
 2.4910	35.7633
 2.4900	35.6269
 2.4890	35.7319
 2.4880	35.6331
 2.4870	35.8789
 2.4860	35.6713
 2.4850	36.1273
 2.4840	35.9399
 2.4830	36.0387
 2.4820	36.0418
 2.4810	36.1761
 2.4800	36.1730
 2.4790	36.5022
 2.4780	36.3633
 2.4770	36.6436
 2.4760	36.4724
 2.4750	36.6598
 2.4740	36.6363
 2.4730	36.8387
 2.4720	36.8191
 2.4710	37.1165
 2.4700	37.0051
 2.4690	37.2477
 2.4680	37.2407
 2.4670	37.4332
 2.4660	37.3925
 2.4650	37.6603
 2.4640	37.8301
 2.4630	37.8494
 2.4620	37.8755
 2.4610	38.1276
 2.4600	38.1218
 2.4590	38.3172
 2.4580	38.3313
 2.4570	38.5316
 2.4560	38.4851
 2.4550	38.7697
 2.4540	38.7485
 2.4530	38.9211
 2.4520	38.9493
 2.4510	39.1594
 2.4500	39.1731
 2.4490	39.2568
 2.4480	39.2588
 2.4470	39.3438
 2.4460	39.4498
 2.4450	39.4973
 2.4440	39.5466
 2.4430	39.6215
 2.4420	39.6497
 2.4410	39.6120
 2.4400	39.6895
 2.4390	39.8269
 2.4380	39.7946
 2.4370	39.9474
 2.4360	39.8209
 2.4350	39.9649
 2.4340	39.9468
 2.4330	40.0024
 2.4320	39.9607
 2.4310	40.0160
 2.4300	40.0161
 2.4290	40.1328
 2.4280	40.1090
 2.4270	40.1890
 2.4260	40.1403
 2.4250	40.2011
 2.4240	40.1820
 2.4230	40.1497
 2.4220	40.0647
 2.4210	40.1521
 2.4200	40.1298
 2.4190	40.1618
 2.4180	40.1261
 2.4170	40.1253
 2.4160	39.9904
 2.4150	40.0271
 2.4140	39.9273
 2.4130	39.8534
 2.4120	39.8473
 2.4110	39.8734
 2.4100	39.8235
 2.4090	39.8400
 2.4080	39.7064
 2.4070	39.7300
 2.4060	39.6492
 2.4050	39.5608
 2.4040	39.4534
 2.4030	39.5284
 2.4020	39.4594
 2.4010	39.4169
 2.4000	39.3290
 2.3990	39.3352
 2.3980	39.2551
 2.3970	39.2086
 2.3960	39.1211
 2.3950	39.0610
 2.3940	39.0293
 2.3930	39.0790
 2.3920	38.9136
 2.3910	38.8403
 2.3900	38.7622
 2.3890	38.6713
 2.3880	38.6298
 2.3870	38.5313
 2.3860	38.4074
 2.3850	38.3348
 2.3840	38.1926
 2.3830	37.9839
 2.3820	37.8452
 2.3810	37.7693
 2.3800	37.5819
 2.3790	37.4371
 2.3780	37.2481
 2.3770	37.0638
 2.3760	36.8308
 2.3750	36.6082
 2.3740	36.4118
 2.3730	36.2562
 2.3720	36.0136
 2.3710	35.7573
 2.3700	35.5168
 2.3690	35.3132
 2.3680	35.0818
 2.3670	34.9039
 2.3660	34.6655
 2.3650	34.3796
 2.3640	34.1772
 2.3630	33.9838
 2.3620	33.7083
 2.3610	33.5036
 2.3600	33.3250
 2.3590	33.1239
 2.3580	32.9180
 2.3570	32.7659
 2.3560	32.5846
 2.3550	32.4417
 2.3540	32.3448
 2.3530	32.2128
 2.3520	32.0272
 2.3510	31.8890
 2.3500	31.7918
 2.3490	31.7315
 2.3480	31.7291
 2.3470	31.6903
 2.3460	31.6348
 2.3450	31.5726
 2.3440	31.5578
 2.3430	31.5642
 2.3420	31.5777
 2.3410	31.6357
 2.3400	31.6745
 2.3390	31.7281
 2.3380	31.8323
 2.3370	31.8524
 2.3360	31.9097
 2.3350	31.9942
 2.3340	32.1424
 2.3330	32.2575
 2.3320	32.4132
 2.3310	32.5826
 2.3300	32.6389
 2.3290	32.6827
 2.3280	32.8396
 2.3270	32.9472
 2.3260	33.1100
 2.3250	33.2764
 2.3240	33.3741
 2.3230	33.4817
 2.3220	33.6072
 2.3210	33.6850
 2.3200	33.7760
 2.3190	33.9015
 2.3180	34.0462
 2.3170	34.1828
 2.3160	34.3009
 2.3150	34.3700
 2.3140	34.5093
 2.3130	34.5407
 2.3120	34.6142
 2.3110	34.6452
 2.3100	34.8535
 2.3090	34.9201
 2.3080	34.9873
 2.3070	35.0695
 2.3060	35.2092
 2.3050	35.2941
 2.3040	35.4361
 2.3030	35.4189
 2.3020	35.6130
 2.3010	35.6883
 2.3000	35.8710
 2.2990	35.9717
 2.2980	36.1603
 2.2970	36.2331
 2.2960	36.3684
 2.2950	36.4867
 2.2940	36.6123
 2.2930	36.7092
 2.2920	36.9241
 2.2910	36.9908
 2.2900	37.1701
 2.2890	37.1997
 2.2880	37.3826
 2.2870	37.3855
 2.2860	37.6225
 2.2850	37.6240
 2.2840	37.8029
 2.2830	37.8702
 2.2820	37.9748
 2.2810	37.9668
 2.2800	38.0505
 2.2790	38.0375
 2.2780	38.0743
 2.2770	38.0035
 2.2760	37.9844
 2.2750	37.9722
 2.2740	37.9461
 2.2730	37.7826
 2.2720	37.7528
 2.2710	37.6050
 2.2700	37.5494
 2.2690	37.3596
 2.2680	37.2204
 2.2670	37.0531
 2.2660	36.9040
 2.2650	36.7305
 2.2640	36.5913
 2.2630	36.3339
 2.2620	36.2917
 2.2610	36.0774
 2.2600	35.9756
 2.2590	35.7779
 2.2580	35.6962
 2.2570	35.5473
 2.2560	35.5601
 2.2550	35.4236
 2.2540	35.5485
 2.2530	35.5605
 2.2520	35.7084
 2.2510	35.7440
 2.2500	35.9658
 2.2490	36.2008
 2.2480	36.4714
 2.2470	36.7037
 2.2460	37.2473
 2.2450	37.5365
 2.2440	38.0026
 2.2430	38.3865
 2.2420	38.9455
 2.2410	39.4326
 2.2400	39.9693
 2.2390	40.4476
 2.2380	40.9804
 2.2370	41.4852
 2.2360	41.9191
 2.2350	42.3691
 2.2340	42.8914
 2.2330	43.2308
 2.2320	43.6593
 2.2310	43.9304
 2.2300	44.3398
 2.2290	44.6927
 2.2280	45.0301
 2.2270	45.2470
 2.2260	45.5629
 2.2250	45.6963
 2.2240	45.9619
 2.2230	46.0766
 2.2220	46.3535
 2.2210	46.5013
 2.2200	46.7522
 2.2190	46.8164
 2.2180	47.0859
 2.2170	47.1180
 2.2160	47.2122
 2.2150	47.2758
 2.2140	47.5119
 2.2130	47.4473
 2.2120	47.6457
 2.2110	47.6552
 2.2100	47.9510
 2.2090	47.8344
 2.2080	48.0101
 2.2070	48.0344
 2.2060	48.1995
 2.2050	48.2024
 2.2040	48.4101
 2.2030	48.3748
 2.2020	48.5203
 2.2010	48.4634
 2.2000	48.6713
 2.1990	48.6583
 2.1980	48.8170
 2.1970	48.7526
 2.1960	48.9211
 2.1950	48.8878
 2.1940	48.9448
 2.1930	49.0107
 2.1920	49.1096
 2.1910	49.0786
 2.1900	49.1718
 2.1890	49.1677
 2.1880	49.2548
 2.1870	49.3581
 2.1860	49.3199
 2.1850	49.3622
 2.1840	49.3998
 2.1830	49.4471
 2.1820	49.5805
 2.1810	49.5528
 2.1800	49.5885
 2.1790	49.6260
 2.1780	49.7304
 2.1770	49.6326
 2.1760	49.8010
 2.1750	49.7750
 2.1740	49.8208
 2.1730	49.8242
 2.1720	49.8581
 2.1710	49.8705
 2.1700	49.8847
 2.1690	49.9106
 2.1680	49.9974
 2.1670	49.9556
 2.1660	49.9749
 2.1650	50.0435
 2.1640	50.0707
 2.1630	50.0218
 2.1620	50.1013
 2.1610	50.1066
 2.1600	50.1068
 2.1590	50.1136
 2.1580	50.1274
 2.1570	50.1445
 2.1560	50.2156
 2.1550	50.1961
 2.1540	50.1555
 2.1530	50.1539
 2.1520	50.1697
 2.1510	50.1572
 2.1500	50.2166
 2.1490	50.1796
 2.1480	50.2334
 2.1470	50.2180
 2.1460	50.1450
 2.1450	50.1407
 2.1440	50.1836
 2.1430	50.1277
 2.1420	50.1086
 2.1410	50.0503
 2.1400	50.0505
 2.1390	49.9730
 2.1380	50.0027
 2.1370	50.0080
 2.1360	49.9807
 2.1350	49.9051
 2.1340	49.8684
 2.1330	49.7417
 2.1320	49.7630
 2.1310	49.7576
 2.1300	49.7169
 2.1290	49.6458
 2.1280	49.6147
 2.1270	49.5721
 2.1260	49.5913
 2.1250	49.4791
 2.1240	49.4278
 2.1230	49.3793
 2.1220	49.4243
 2.1210	49.3906
 2.1200	49.3732
 2.1190	49.2907
 2.1180	49.3137
 2.1170	49.2265
 2.1160	49.2246
 2.1150	49.2087
 2.1140	49.1791
 2.1130	49.1949
 2.1120	49.1413
 2.1110	49.0860
 2.1100	49.0665
 2.1090	49.0994
 2.1080	49.1024
 2.1070	49.0344
 2.1060	49.0214
 2.1050	48.9950
 2.1040	48.9688
 2.1030	48.9224
 2.1020	48.9071
 2.1010	48.8829
 2.1000	48.8883
 2.0990	48.7939
 2.0980	48.8114
 2.0970	48.8096
 2.0960	48.8215
 2.0950	48.8016
 2.0940	48.7950
 2.0930	48.7932
 2.0920	48.7932
 2.0910	48.7244
 2.0900	48.6696
 2.0890	48.6308
 2.0880	48.6022
 2.0870	48.5668
 2.0860	48.5826
 2.0850	48.5053
 2.0840	48.5321
 2.0830	48.5173
 2.0820	48.4690
 2.0810	48.4582
 2.0800	48.4143
 2.0790	48.3621
 2.0780	48.3306
 2.0770	48.2971
 2.0760	48.2863
 2.0750	48.2407
 2.0740	48.2055
 2.0730	48.1919
 2.0720	48.1772
 2.0710	48.0745
 2.0700	48.0070
 2.0690	48.0214
 2.0680	48.0012
 2.0670	47.9329
 2.0660	47.8963
 2.0650	47.8955
 2.0640	47.7940
 2.0630	47.6986
 2.0620	47.6720
 2.0610	47.6729
 2.0600	47.6238
 2.0590	47.5618
 2.0580	47.5040
 2.0570	47.4046
 2.0560	47.3991
 2.0550	47.4108
 2.0540	47.3578
 2.0530	47.2842
 2.0520	47.1684
 2.0510	47.1243
 2.0500	47.0901
 2.0490	47.0413
 2.0480	46.9533
 2.0470	46.8773
 2.0460	46.7721
 2.0450	46.7300
 2.0440	46.6862
 2.0430	46.6475
 2.0420	46.5238
 2.0410	46.4842
 2.0400	46.3778
 2.0390	46.3194
 2.0380	46.2118
 2.0370	46.0837
 2.0360	46.0109
 2.0350	45.9797
 2.0340	45.8314
 2.0330	45.7016
 2.0320	45.5810
 2.0310	45.4740
 2.0300	45.3861
 2.0290	45.3490
 2.0280	45.1825
 2.0270	45.0487
 2.0260	44.9234
 2.0250	44.8476
 2.0240	44.7229
 2.0230	44.5829
 2.0220	44.4814
 2.0210	44.4128
 2.0200	44.2907
 2.0190	44.2431
 2.0180	44.1338
 2.0170	43.9983
 2.0160	43.9367
 2.0150	43.8757
 2.0140	43.7738
 2.0130	43.6780
 2.0120	43.6178
 2.0110	43.5207
 2.0100	43.4772
 2.0090	43.5063
 2.0080	43.3921
 2.0070	43.3353
 2.0060	43.2877
 2.0050	43.2361
 2.0040	43.1814
 2.0030	43.1433
 2.0020	43.1360
 2.0010	43.1613
 2.0000	43.0627
 1.9990	43.0946
 1.9980	43.0314
 1.9970	43.0383
 1.9960	42.9545
 1.9950	43.0362
 1.9940	43.0267
 1.9930	42.9683
 1.9920	42.9729
 1.9910	43.0040
 1.9900	42.9619
 1.9890	43.0050
 1.9880	42.9815
 1.9870	43.0296
 1.9860	43.0017
 1.9850	43.0598
 1.9840	43.0288
 1.9830	43.1547
 1.9820	43.0776
 1.9810	43.1645
 1.9800	43.1517
 1.9790	43.2381
 1.9780	43.2268
 1.9770	43.1989
 1.9760	43.2528
 1.9750	43.2679
 1.9740	43.2188
 1.9730	43.2667
 1.9720	43.2607
 1.9710	43.3144
 1.9700	43.2979
 1.9690	43.3625
 1.9680	43.2361
 1.9670	43.3301
 1.9660	43.2907
 1.9650	43.3059
 1.9640	43.2308
 1.9630	43.2643
 1.9620	43.2134
 1.9610	43.2041
 1.9600	43.0721
 1.9590	43.2058
 1.9580	43.1759
 1.9570	43.1627
 1.9560	43.1249
 1.9550	43.1031
 1.9540	43.0386
 1.9530	43.1952
 1.9520	43.0290
 1.9510	43.1256
 1.9500	43.1413
 1.9490	43.2041
 1.9480	43.1240
 1.9470	43.1826
 1.9460	43.1455
 1.9450	43.2078
 1.9440	43.2224
 1.9430	43.2620
 1.9420	43.1899
 1.9410	43.3082
 1.9400	43.3243
 1.9390	43.3033
 1.9380	43.2066
 1.9370	43.2693
 1.9360	43.2989
 1.9350	43.3706
 1.9340	43.2087
 1.9330	43.2636
 1.9320	43.2380
 1.9310	43.2419
 1.9300	43.1780
 1.9290	43.2318
 1.9280	43.1359
 1.9270	43.2163
 1.9260	43.0773
 1.9250	43.1709
 1.9240	42.9867
 1.9230	43.0831
 1.9220	43.0138
 1.9210	43.0110
 1.9200	42.9193
 1.9190	42.9652
 1.9180	42.8221
 1.9170	42.9187
 1.9160	42.8030
 1.9150	42.8434
 1.9140	42.6837
 1.9130	42.8141
 1.9120	42.6254
 1.9110	42.7500
 1.9100	42.5643
 1.9090	42.6331
 1.9080	42.4942
 1.9070	42.5217
 1.9060	42.4702
 1.9050	42.5000
 1.9040	42.4011
 1.9030	42.4621
 1.9020	42.2971
 1.9010	42.3398
 1.9000	42.2069
 1.8990	42.2609
 1.8980	42.1787
 1.8970	42.2520
 1.8960	42.1430
 1.8950	42.1485
 1.8940	42.0449
 1.8930	42.0842
 1.8920	41.9854
 1.8910	41.9400
 1.8900	41.9115
 1.8890	41.8828
 1.8880	41.7556
 1.8870	41.8027
 1.8860	41.6882
 1.8850	41.7758
 1.8840	41.7342
 1.8830	41.6912
 1.8820	41.5773
 1.8810	41.6900
 1.8800	41.6398
 1.8790	41.6503
 1.8780	41.6225
 1.8770	41.6187
 1.8760	41.5282
 1.8750	41.5227
 1.8740	41.4884
 1.8730	41.5675
 1.8720	41.5167
 1.8710	41.4781
 1.8700	41.4401
 1.8690	41.5464
 1.8680	41.4394
 1.8670	41.5033
 1.8660	41.4544
 1.8650	41.5289
 1.8640	41.4703
 1.8630	41.5079
 1.8620	41.4874
 1.8610	41.4572
 1.8600	41.4253
 1.8590	41.4011
 1.8580	41.3344
 1.8570	41.4174
 1.8560	41.3239
 1.8550	41.3413
 1.8540	41.2874
 1.8530	41.2879
 1.8520	41.2824
 1.8510	41.3199
 1.8500	41.1994
 1.8490	41.3281
 1.8480	41.2371
 1.8470	41.2451
 1.8460	41.2193
 1.8450	41.1706
 1.8440	41.2112
 1.8430	41.1661
 1.8420	41.1009
 1.8410	41.1215
 1.8400	41.0181
 1.8390	41.0495
 1.8380	41.0144
 1.8370	40.9900
 1.8360	40.9285
 1.8350	40.9454
 1.8340	40.8972
 1.8330	40.8786
 1.8320	40.8092
 1.8310	40.8344
 1.8300	40.7185
 1.8290	40.7221
 1.8280	40.6575
 1.8270	40.6666
 1.8260	40.6137
 1.8250	40.6289
 1.8240	40.5833
 1.8230	40.5738
 1.8220	40.5131
 1.8210	40.4581
 1.8200	40.4029
 1.8190	40.3994
 1.8180	40.2997
 1.8170	40.2440
 1.8160	40.2855
 1.8150	40.2513
 1.8140	40.1637
 1.8130	40.1815
 1.8120	40.1422
 1.8110	40.1215
 1.8100	40.0735
 1.8090	40.0653
 1.8080	40.0194
 1.8070	39.9463
 1.8060	39.9225
 1.8050	39.9462
 1.8040	39.8699
 1.8030	39.8518
 1.8020	39.8151
 1.8010	39.7936
 1.8000	39.7509
 1.7990	39.6941
 1.7980	39.6356
 1.7970	39.6091
 1.7960	39.5669
 1.7950	39.4922
 1.7940	39.4671
 1.7930	39.4627
 1.7920	39.3791
 1.7910	39.3337
 1.7900	39.3201
 1.7890	39.3158
 1.7880	39.2510
 1.7870	39.1800
 1.7860	39.1368
 1.7850	39.0922
 1.7840	39.0419
 1.7830	39.0194
 1.7820	38.9913
 1.7810	38.9084
 1.7800	38.8339
 1.7790	38.8296
 1.7780	38.8235
 1.7770	38.7649
 1.7760	38.7216
 1.7750	38.6733
 1.7740	38.6547
 1.7730	38.5669
 1.7720	38.4806
 1.7710	38.4642
 1.7700	38.4390
 1.7690	38.3989
 1.7680	38.3956
 1.7670	38.3372
 1.7660	38.2978
 1.7650	38.2414
 1.7640	38.2027
 1.7630	38.1365
 1.7620	38.1056
 1.7610	38.0635
 1.7600	38.0192
 1.7590	37.9463
 1.7580	37.9290
 1.7570	37.8749
 1.7560	37.8931
 1.7550	37.8144
 1.7540	37.7726
 1.7530	37.6884
 1.7520	37.7310
 1.7510	37.6731
 1.7500	37.6203
 1.7490	37.4830
 1.7480	37.5014
 1.7470	37.4139
 1.7460	37.3899
 1.7450	37.3797
 1.7440	37.3222
 1.7430	37.2162
 1.7420	37.2462
 1.7410	37.1486
 1.7400	37.1406
 1.7390	37.0750
 1.7380	37.0244
 1.7370	36.9756
 1.7360	36.9896
 1.7350	36.8875
 1.7340	36.8774
 1.7330	36.8049
 1.7320	36.7804
 1.7310	36.7032
 1.7300	36.7002
 1.7290	36.6229
 1.7280	36.6079
 1.7270	36.4866
 1.7260	36.5383
 1.7250	36.4137
 1.7240	36.3918
 1.7230	36.2955
 1.7220	36.3649
 1.7210	36.1943
 1.7200	36.2401
 1.7190	36.1233
 1.7180	36.1203
 1.7170	36.0578
 1.7160	36.0047
 1.7150	35.9056
 1.7140	35.9872
 1.7130	35.8428
 1.7120	35.7966
 1.7110	35.6756
 1.7100	35.7008
 1.7090	35.5932
 1.7080	35.5408
 1.7070	35.5223
 1.7060	35.4994
 1.7050	35.4410
 1.7040	35.4031
 1.7030	35.2581
 1.7020	35.2825
 1.7010	35.2283
 1.7000	35.2011
 1.6990	35.0880
 1.6980	35.0837
 1.6970	35.0098
 1.6960	35.0286
 1.6950	34.8288
 1.6940	34.9015
 1.6930	34.8063
 1.6920	34.7683
 1.6910	34.6497
 1.6900	34.7126
 1.6890	34.5839
 1.6880	34.5480
 1.6870	34.4724
 1.6860	34.5065
 1.6850	34.2824
 1.6840	34.4020
 1.6830	34.2928
 1.6820	34.3545
 1.6810	34.1154
 1.6800	34.0974
 1.6790	34.0841
 1.6780	33.9951
 1.6770	33.9689
 1.6760	33.8906
 1.6750	33.8772
 1.6740	33.8128
 1.6730	33.7304
 1.6720	33.7171
 1.6710	33.5810
 1.6700	33.7184
 1.6690	33.6705
 1.6680	33.3853
 1.6670	33.5265
 1.6660	33.4187
 1.6650	33.3558
 1.6640	33.2772
 1.6630	33.2265
 1.6620	33.2117
 1.6610	33.1187
 1.6600	33.0721
 1.6590	32.9972
 1.6580	32.9362
 1.6570	32.8361
 1.6560	32.9268
 1.6550	32.7226
 1.6540	32.7532
 1.6530	32.6280
 1.6520	32.6553
 1.6510	32.5332
 1.6500	32.5061
 1.6490	32.4021
 1.6480	32.4592
 1.6470	32.4204
 1.6460	32.3918
 1.6450	32.2117
 1.6440	32.2631
 1.6430	32.0982
 1.6420	32.2205
 1.6410	31.9989
 1.6400	32.0581
 1.6390	31.9623
 1.6380	31.9252
 1.6370	31.7508
 1.6360	31.8550
 1.6350	31.6985
 1.6340	31.6632
 1.6330	31.6234
 1.6320	31.5823
 1.6310	31.4362
 1.6300	31.5230
 1.6290	31.3603
 1.6280	31.3660
 1.6270	31.2502
 1.6260	31.2847
 1.6250	31.1286
 1.6240	31.1890
 1.6230	31.0078
 1.6220	31.0209
 1.6210	30.9381
 1.6200	30.8599
 1.6190	30.7980
 1.6180	30.8434
 1.6170	30.6953
 1.6160	30.6802
 1.6150	30.6086
 1.6140	30.6155
 1.6130	30.4342
 1.6120	30.5230
 1.6110	30.3844
 1.6100	30.3596
 1.6090	30.1833
 1.6080	30.2358
 1.6070	30.1840
 1.6060	30.1282
 1.6050	30.0176
 1.6040	30.0439
 1.6030	29.9081
 1.6020	29.9206
 1.6010	29.7811
 1.6000	29.8215
 1.5990	29.6905
 1.5980	29.6167
 1.5970	29.5402
 1.5960	29.6141
 1.5950	29.4975
 1.5940	29.4033
 1.5930	29.3358
 1.5920	29.3278
 1.5910	29.2086
 1.5900	29.2168
 1.5890	29.1233
 1.5880	29.1472
 1.5870	28.9452
 1.5860	29.0312
 1.5850	28.8823
 1.5840	28.8345
 1.5830	28.7475
 1.5820	28.6901
 1.5810	28.6793
 1.5800	28.6865
 1.5790	28.6079
 1.5780	28.5543
 1.5770	28.4232
 1.5760	28.4596
 1.5750	28.3756
 1.5740	28.3494
 1.5730	28.1916
 1.5720	28.2343
 1.5710	28.1648
 1.5700	28.0883
 1.5690	28.0310
 1.5680	28.0085
 1.5670	27.9423
 1.5660	27.9042
 1.5650	27.8179
 1.5640	27.8195
 1.5630	27.7441
 1.5620	27.6616
 1.5610	27.6322
 1.5600	27.6182
 1.5590	27.5573
 1.5580	27.5280
 1.5570	27.4525
 1.5560	27.4482
 1.5550	27.3909
 1.5540	27.3775
 1.5530	27.3130
 1.5520	27.2722
 1.5510	27.1349
 1.5500	27.0944
 1.5490	27.0358
 1.5480	27.0232
 1.5470	27.0255
 1.5460	27.0017
 1.5450	26.8707
 1.5440	26.8519
 1.5430	26.7350
 1.5420	26.7112
 1.5410	26.6483
 1.5400	26.6516
 1.5390	26.6241
 1.5380	26.6465
 1.5370	26.5576
 1.5360	26.5408
 1.5350	26.4800
 1.5340	26.4330
 1.5330	26.3704
 1.5320	26.3223
 1.5310	26.2614
 1.5300	26.2306
 1.5290	26.2360
 1.5280	26.2192
 1.5270	26.1200
 1.5260	26.1044
 1.5250	26.0782
 1.5240	26.0471
 1.5230	26.0163
 1.5220	25.9800
 1.5210	25.9380
 1.5200	25.9644
 1.5190	25.8782
 1.5180	25.8707
 1.5170	25.8385
 1.5160	25.7754
 1.5150	25.7132
 1.5140	25.6457
 1.5130	25.6282
 1.5120	25.6412
 1.5110	25.6486
 1.5100	25.5947
 1.5090	25.5276
 1.5080	25.4711
 1.5070	25.4846
 1.5060	25.4766
 1.5050	25.3892
 1.5040	25.3236
 1.5030	25.2708
 1.5020	25.2394
 1.5010	25.1852
 1.5000	25.1574
 1.4990	25.1108
 1.4980	25.0501
 1.4970	25.0078
 1.4960	24.9659
 1.4950	24.9681
 1.4940	24.9306
 1.4930	24.9035
 1.4920	24.8346
 1.4910	24.7767
 1.4900	24.7048
 1.4890	24.7008
 1.4880	24.6613
 1.4870	24.5945
 1.4860	24.5156
 1.4850	24.4821
 1.4840	24.4829
 1.4830	24.4345
 1.4820	24.3390
 1.4810	24.2836
 1.4800	24.2342
 1.4790	24.1915
 1.4780	24.1080
 1.4770	24.0773
 1.4760	23.9892
 1.4750	23.9841
 1.4740	23.9410
 1.4730	23.8729
 1.4720	23.8356
 1.4710	23.7786
 1.4700	23.6847
 1.4690	23.6555
 1.4680	23.5960
 1.4670	23.5658
 1.4660	23.4596
 1.4650	23.4029
 1.4640	23.3977
 1.4630	23.3476
 1.4620	23.2411
 1.4610	23.2323
 1.4600	23.1889
 1.4590	23.1325
 1.4580	23.0531
 1.4570	23.0858
 1.4560	22.9503
 1.4550	22.9182
 1.4540	22.8474
 1.4530	22.8782
 1.4520	22.7541
 1.4510	22.7352
 1.4500	22.6955
 1.4490	22.6219
 1.4480	22.5794
 1.4470	22.5639
 1.4460	22.4799
 1.4450	22.5333
 1.4440	22.4031
 1.4430	22.3615
 1.4420	22.3401
 1.4410	22.3909
 1.4400	22.2810
 1.4390	22.2983
 1.4380	22.1996
 1.4370	22.2063
 1.4360	22.1255
 1.4350	22.1968
 1.4340	22.0986
 1.4330	22.1357
 1.4320	22.0525
 1.4310	22.0290
 1.4300	21.9736
 1.4290	21.9363
 1.4280	21.9019
 1.4270	21.8636
 1.4260	21.8187
 1.4250	21.7297
 1.4240	21.6119
 1.4230	21.6657
 1.4220	21.5525
 1.4210	21.4108
 1.4200	21.2962
 1.4190	21.2625
 1.4180	21.0328
 1.4170	20.8528
 1.4160	20.7020
 1.4150	20.6187
 1.4140	20.4058
 1.4130	20.3751
 1.4120	20.2348
 1.4110	20.2175
 1.4100	20.0442
 1.4090	19.9823
 1.4080	19.8635
 1.4070	19.7856
 1.4060	19.7095
 1.4050	19.6814
 1.4040	19.6857
 1.4030	19.7551
 1.4020	19.6232
 1.4010	19.6840
 1.4000	19.6204
 1.3990	19.7782
 1.3980	19.8096
 1.3970	19.8427
 1.3960	19.8130
 1.3950	19.8825
 1.3940	19.8380
 1.3930	20.0601
 1.3920	20.0285
 1.3910	20.1769
 1.3900	20.2537
 1.3890	20.2798
 1.3880	20.2952
 1.3870	20.3686
 1.3860	20.2328
 1.3850	20.2657
 1.3840	20.2468
 1.3830	20.2400
 1.3820	20.1640
 1.3810	20.1290
 1.3800	20.0458
 1.3790	20.1448
 1.3780	20.0220
 1.3770	20.0690
 1.3760	19.9685
 1.3750	19.9462
 1.3740	19.8111
 1.3730	19.8551
 1.3720	19.7619
 1.3710	19.7202
 1.3700	19.5634
 1.3690	19.6390
 1.3680	19.5805
 1.3670	19.5425
 1.3660	19.4247
 1.3650	19.5091
 1.3640	19.3244
 1.3630	19.4478
 1.3620	19.1345
 1.3610	19.3114
 1.3600	19.1555
 1.3590	19.2233
 1.3580	19.1139
 1.3570	19.1828
 1.3560	19.1357
 1.3550	18.8881
 1.3540	18.8370
 1.3530	18.8137
 1.3520	18.8222
 1.3510	18.8431
 1.3500	18.7195
 1.3490	18.8215
 1.3480	18.5999
 1.3470	18.6111
 1.3460	18.5200
 1.3450	18.5973
 1.3440	18.4060
 1.3430	18.4632
 1.3420	18.2912
 1.3410	18.3576
 1.3400	18.2274
 1.3390	18.2849
 1.3380	18.1597
 1.3370	18.1749
 1.3360	18.0377
 1.3350	18.1052
 1.3340	18.0333
 1.3330	18.0020
 1.3320	17.8818
 1.3310	17.9053
 1.3300	17.7446
 1.3290	17.8413
 1.3280	17.7289
 1.3270	17.6449
 1.3260	17.6268
 1.3250	17.6720
 1.3240	17.5546
 1.3230	17.5439
 1.3220	17.4221
 1.3210	17.4511
 1.3200	17.3212
 1.3190	17.4094
 1.3180	17.2475
 1.3170	17.2431
 1.3160	17.1592
 1.3150	17.2054
 1.3140	17.0053
 1.3130	17.1260
 1.3120	17.0011
 1.3110	17.0028
 1.3100	16.8959
 1.3090	16.8534
 1.3080	16.7774
 1.3070	16.7875
 1.3060	16.7038
 1.3050	16.7985
 1.3040	16.6280
 1.3030	16.6694
 1.3020	16.4884
 1.3010	16.5747
 1.3000	16.4463
 1.2990	16.5148
 1.2980	16.3373
 1.2970	16.3620
 1.2960	16.2303
 1.2950	16.3112
 1.2940	16.2255
 1.2930	16.1962
 1.2920	16.1764
 1.2910	16.1190
 1.2900	16.0196
 1.2890	16.0868
 1.2880	15.9366
 1.2870	15.9153
 1.2860	15.8643
 1.2850	15.8057
 1.2840	15.7452
 1.2830	15.7680
 1.2820	15.6554
 1.2810	15.7245
 1.2800	15.5954
 1.2790	15.5668
 1.2780	15.5174
 1.2770	15.4789
 1.2760	15.4234
 1.2750	15.4170
 1.2740	15.3430
 1.2730	15.3022
 1.2720	15.2399
 1.2710	15.2507
 1.2700	15.2070
 1.2690	15.1953
 1.2680	15.1101
 1.2670	15.1264
 1.2660	15.0001
 1.2650	14.9938
 1.2640	14.9786
 1.2630	14.9310
 1.2620	14.8576
 1.2610	14.8485
 1.2600	14.7085
 1.2590	14.7544
 1.2580	14.7256
 1.2570	14.6879
 1.2560	14.6101
 1.2550	14.6062
 1.2540	14.5450
 1.2530	14.5469
 1.2520	14.4645
 1.2510	14.4367
 1.2500	14.3220
 1.2490	14.3740
 1.2480	14.3021
 1.2470	14.2808
 1.2460	14.2450
 1.2450	14.2427
 1.2440	14.1308
 1.2430	14.1072
 1.2420	14.0540
 1.2410	14.0467
 1.2400	13.9967
 1.2390	13.9973
 1.2380	13.9325
 1.2370	13.9713
 1.2360	13.8564
 1.2350	13.7675
 1.2340	13.7808
 1.2330	13.7819
 1.2320	13.6900
 1.2310	13.6801
 1.2300	13.6253
 1.2290	13.5921
 1.2280	13.6080
 1.2270	13.5538
 1.2260	13.4619
 1.2250	13.4748
 1.2240	13.4422
 1.2230	13.3901
 1.2220	13.3706
 1.2210	13.3938
 1.2200	13.3745
 1.2190	13.3012
 1.2180	13.2337
 1.2170	13.2067
 1.2160	13.2008
 1.2150	13.2013
 1.2140	13.1619
 1.2130	13.0908
 1.2120	13.0448
 1.2110	13.0123
 1.2100	13.0012
 1.2090	12.9582
 1.2080	12.9623
 1.2070	12.9119
 1.2060	12.8438
 1.2050	12.8109
 1.2040	12.8065
 1.2030	12.8056
 1.2020	12.7592
 1.2010	12.6988
 1.2000	12.6722
 1.1990	12.6102
 1.1980	12.6168
 1.1970	12.6212
 1.1960	12.6088
 1.1950	12.5423
 1.1940	12.5096
 1.1930	12.4380
 1.1920	12.4387
 1.1910	12.3956
 1.1900	12.4236
 1.1890	12.4926
 1.1880	12.3281
 1.1870	12.2772
 1.1860	12.2986
 1.1850	12.2087
 1.1840	12.2085
 1.1830	12.2055
 1.1820	12.2086
 1.1810	12.1795
 1.1800	12.1953
 1.1790	12.1212
 1.1780	12.1240
 1.1770	12.0794
 1.1760	12.0821
 1.1750	11.9689
 1.1740	12.0694
 1.1730	11.9760
 1.1720	11.9289
 1.1710	11.9391
 1.1700	11.9218
 1.1690	11.8627
 1.1680	11.8360
 1.1670	11.7845
 1.1660	11.8099
 1.1650	11.8353
 1.1640	11.8330
 1.1630	11.7191
 1.1620	11.7740
 1.1610	11.7198
 1.1600	11.6697
 1.1590	11.6135
 1.1580	11.6754
 1.1570	11.6189
 1.1560	11.6054
 1.1550	11.6240
 1.1540	11.6697
 1.1530	11.5057
 1.1520	11.5422
 1.1510	11.4980
 1.1500	11.5287
 1.1490	11.4595
 1.1480	11.4769
 1.1470	11.4032
 1.1460	11.4306
 1.1450	11.3265
 1.1440	11.4214
 1.1430	11.3526
 1.1420	11.4289
 1.1410	11.3540
 1.1400	11.4350
 1.1390	11.2855
 1.1380	11.3755
 1.1370	11.3435
 1.1360	11.2981
 1.1350	11.1900
 1.1340	11.2239
 1.1330	11.2189
 1.1320	11.3215
 1.1310	11.2099
 1.1300	11.1987
 1.1290	11.1560
 1.1280	11.2320
 1.1270	11.0933
 1.1260	11.1895
 1.1250	11.1599
 1.1240	11.1856
 1.1230	11.0950
 1.1220	11.1105
 1.1210	11.0496
 1.1200	11.0678
 1.1190	11.0197
 1.1180	11.1479
 1.1170	10.9829
 1.1160	11.0340
 1.1150	11.0092
 1.1140	11.0688
 1.1130	10.9128
 1.1120	11.0353
 1.1110	10.9770
 1.1100	10.9427
 1.1090	10.9355
 1.1080	11.0613
 1.1070	10.9354
 1.1060	11.0196
 1.1050	10.8779
 1.1040	10.9945
 1.1030	10.9607
 1.1020	10.9646
 1.1010	10.9443
 1.1000	10.9294
 1.0990	10.8834
 1.0980	10.9126
 1.0970	10.8084
 1.0960	10.9368
 1.0950	10.8331
 1.0940	10.8124
 1.0930	10.8433
 1.0920	10.9049
 1.0910	10.7170
 1.0900	10.9114
 1.0890	10.7277
 1.0880	10.9165
 1.0870	10.7886
 1.0860	10.8621
 1.0850	10.7516
 1.0840	10.8751
 1.0830	10.7958
 1.0820	10.8418
 1.0810	10.8106
 1.0800	10.8214
 1.0790	10.6065
 1.0780	10.9092
 1.0770	10.6804
 1.0760	10.7802
 1.0750	10.7929
 1.0740	10.7532
 1.0730	10.6660
 1.0720	10.8074
 1.0710	10.7817
 1.0700	10.6085
 1.0690	10.7480
 1.0680	10.7971
 1.0670	10.5793
 1.0660	10.8059
 1.0650	10.6238
 1.0640	10.7885
 1.0630	10.7170
 1.0620	10.6770
 1.0610	10.6601
 1.0600	10.7580
 1.0590	10.7000
 1.0580	10.6933
 1.0570	10.6491
 1.0560	10.7580
 1.0550	10.6660
 1.0540	10.7865
 1.0530	10.7307
 1.0520	10.6737
 1.0510	10.5771
 1.0500	10.6944
 1.0490	10.6199
 1.0480	10.7312
 1.0470	10.5772
 1.0460	10.6706
 1.0450	10.6138
 1.0440	10.6642
 1.0430	10.6434
 1.0420	10.6671
 1.0410	10.6212
 1.0400	10.6412
 1.0390	10.6459
 1.0380	10.6868
 1.0370	10.5342
 1.0360	10.6774
 1.0350	10.5684
 1.0340	10.7215
 1.0330	10.5391
 1.0320	10.6735
 1.0310	10.5620
 1.0300	10.6761
 1.0290	10.5811
 1.0280	10.6223
 1.0270	10.5802
 1.0260	10.5873
 1.0250	10.5355
 1.0240	10.5795
 1.0230	10.5316
 1.0220	10.6053
 1.0210	10.5300
 1.0200	10.5894
 1.0190	10.5513
 1.0180	10.5980
 1.0170	10.5364
 1.0160	10.6195
 1.0150	10.5170
 1.0140	10.5212
 1.0130	10.4269
 1.0120	10.5282
 1.0110	10.4552
 1.0100	10.4911
 1.0090	10.4291
 1.0080	10.5283
 1.0070	10.4483
 1.0060	10.5128
 1.0050	10.4247
 1.0040	10.3863
 1.0030	10.3147
 1.0020	10.4851
 1.0010	10.2708
 1.0000	10.3709
 0.9990	10.3688
 0.9980	10.4425
 0.9970	10.3448
 0.9960	10.3585
 0.9950	10.2693
 0.9940	10.3474
 0.9930	10.3197
 0.9920	10.2638
 0.9910	10.2387
 0.9900	10.2469
 0.9890	10.2244
 0.9880	10.2505
 0.9870	10.1832
 0.9860	10.2402
 0.9850	10.1726
 0.9840	10.2201
 0.9830	10.1522
 0.9820	10.1329
 0.9810	10.0727
 0.9800	10.1046
 0.9790	10.0675
 0.9780	10.1103
 0.9770	10.0407
 0.9760	10.0808
 0.9750	 9.9713
 0.9740	10.0285
 0.9730	 9.9774
 0.9720	10.0175
 0.9710	 9.9593
 0.9700	 9.9371
 0.9690	 9.8649
 0.9680	 9.8800
 0.9670	 9.8792
 0.9660	 9.9024
 0.9650	 9.8797
 0.9640	 9.8659
 0.9630	 9.7994
 0.9620	 9.7444
 0.9610	 9.7285
 0.9600	 9.7479
 0.9590	 9.7145
 0.9580	 9.7556
 0.9570	 9.7358
 0.9560	 9.7525
 0.9550	 9.6628
 0.9540	 9.6865
 0.9530	 9.6143
 0.9520	 9.6364
 0.9510	 9.6006
 0.9500	 9.6026
 0.9490	 9.5960
 0.9480	 9.5727
 0.9470	 9.5398
 0.9460	 9.5174
 0.9450	 9.5245
 0.9440	 9.5132
 0.9430	 9.4791
 0.9420	 9.4649
 0.9410	 9.4595
 0.9400	 9.4824
 0.9390	 9.4544
 0.9380	 9.4064
 0.9370	 9.3669
 0.9360	 9.3596
 0.9350	 9.3382
 0.9340	 9.3214
 0.9330	 9.2860
 0.9320	 9.2932
 0.9310	 9.2870
 0.9300	 9.2513
 0.9290	 9.2533
 0.9280	 9.2786
 0.9270	 9.2370
 0.9260	 9.2297
 0.9250	 9.2547
 0.9240	 9.1961
 0.9230	 9.2029
 0.9220	 9.1967
 0.9210	 9.1867
 0.9200	 9.1540
 0.9190	 9.0863
 0.9180	 9.1146
 0.9170	 9.1585
 0.9160	 9.0742
 0.9150	 9.1144
 0.9140	 9.1067
 0.9130	 9.0778
 0.9120	 9.0468
 0.9110	 9.0889
 0.9100	 9.1110
 0.9090	 9.1081
 0.9080	 9.0675
 0.9070	 9.1045
 0.9060	 9.0516
 0.9050	 9.0206
 0.9040	 8.9649
 0.9030	 9.0869
 0.9020	 9.1222
 0.9010	 9.1249
 0.9000	 9.0620
 0.8990	 9.0908
 0.8980	 9.0443
 0.8970	 9.0658
 0.8960	 9.0255
 0.8950	 9.0413
 0.8940	 8.9794
 0.8930	 9.0608
 0.8920	 9.0672
 0.8910	 9.0705
 0.8900	 9.0081
 0.8890	 9.0718
 0.8880	 9.0821
 0.8870	 9.0292
 0.8860	 9.0191
 0.8850	 9.0705
 0.8840	 9.0705
 0.8830	 9.1156
 0.8820	 9.0938
 0.8810	 9.1034
 0.8800	 9.0661
 0.8790	 9.1508
 0.8780	 9.0532
 0.8770	 9.1285
 0.8760	 9.0916
 0.8750	 9.1069
 0.8740	 9.0620
 0.8730	 9.1181
 0.8720	 9.0602
 0.8710	 9.1642
 0.8700	 9.1290
 0.8690	 9.1736
 0.8680	 9.1797
 0.8670	 9.1850
 0.8660	 9.1738
 0.8650	 9.2803
 0.8640	 9.1397
 0.8630	 9.2699
 0.8620	 9.1767
 0.8610	 9.2601
 0.8600	 9.5072
 0.8590	 9.5962
 0.8580	 9.6075
 0.8570	 9.6056
 0.8560	 9.6369
 0.8550	 9.6548
 0.8540	 9.6558
 0.8530	 9.6612
 0.8520	 9.6837
 0.8510	 9.6968
 0.8500	 9.7061
 0.8490	 9.7182
 0.8480	 9.7314
 0.8470	 9.7412
 0.8460	 9.7638
 0.8450	 9.7782
 0.8440	 9.7894
 0.8430	 9.7891
 0.8420	 9.8067
 0.8410	 9.8174
 0.8400	 9.8319
 0.8390	 9.8399
 0.8380	 9.8528
 0.8370	 9.8631
 0.8360	 9.8724
 0.8350	 9.8822
 0.8340	 9.8879
 0.8330	 9.9097
 0.8320	 9.9112
 0.8310	 9.9299
 0.8300	 9.9422
 0.8290	 9.9547
 0.8280	 9.9510
 0.8270	 9.9641
 0.8260	 9.9739
 0.8250	 9.9782
 0.8240	 9.9886
 0.8230	 9.9952
 0.8220	 9.9849
 0.8210	 9.9879
 0.8200	 9.9947
 0.8190	 9.9981
 0.8180	 9.9880
 0.8170	 9.9912
 0.8160	 9.9961
 0.8150	10.0025
 0.8140	 9.9948
 0.8130	10.0110
 0.8120	10.0071
 0.8110	10.0065
 0.8100	10.0017
 0.8090	 9.9899
 0.8080	 9.9957
 0.8070	10.0014
 0.8060	 9.9937
 0.8050	 9.9864
 0.8040	 9.9768
 0.8030	 9.9704
 0.8020	 9.9660
 0.8010	 9.9617
 0.8000	 9.9533
 0.7990	 9.9435
 0.7980	 9.9326
 0.7970	 9.9179
 0.7960	 9.9023
 0.7950	 9.8972
 0.7940	 9.8893
 0.7930	 9.8699
 0.7920	 9.8555
 0.7910	 9.8441
 0.7900	 9.8235
 0.7890	 9.8171
 0.7880	 9.7915
 0.7870	 9.7685
 0.7860	 9.7573
 0.7850	 9.7451
 0.7840	 9.7365
 0.7830	 9.7237
 0.7820	 9.6940
 0.7810	 9.6919
 0.7800	 9.6752
 0.7790	 9.6553
 0.7780	 9.6377
 0.7770	 9.6127
 0.7760	 9.5863
 0.7750	 9.5622
 0.7740	 9.5427
 0.7730	 9.5276
 0.7720	 9.5082
 0.7710	 9.4863
 0.7700	 9.4578
 0.7690	 9.4397
 0.7680	 9.4287
 0.7670	 9.3952
 0.7660	 9.3811
 0.7650	 9.3645
 0.7640	 9.3338
 0.7630	 9.3153
 0.7620	 9.2970
 0.7610	 9.2737
 0.7600	 9.2572
 0.7590	 9.2331
 0.7580	 9.2173
 0.7570	 9.2026
 0.7560	 9.1838
 0.7550	 9.1629
 0.7540	 9.1333
 0.7530	 9.1294
 0.7520	 9.1156
 0.7510	 9.0938
 0.7500	 9.0884
 0.7490	 9.0729
 0.7480	 9.0523
 0.7470	 9.0360
 0.7460	 9.0264
 0.7450	 9.0129
 0.7440	 8.9987
 0.7430	 8.9801
 0.7420	 8.9738
 0.7410	 8.9603
 0.7400	 8.9489
 0.7390	 8.9347
 0.7380	 8.9265
 0.7370	 8.9165
 0.7360	 8.9050
 0.7350	 8.9007
 0.7340	 8.8948
 0.7330	 8.8832
 0.7320	 8.8707
 0.7310	 8.8684
 0.7300	 8.8602
 0.7290	 8.8549
 0.7280	 8.8517
 0.7270	 8.8430
 0.7260	 8.8359
 0.7250	 8.8354
 0.7240	 8.8294
 0.7230	 8.8285
 0.7220	 8.8269
 0.7210	 8.8233
 0.7200	 8.8218
 0.7190	 8.8247
 0.7180	 8.8250
 0.7170	 8.8269
 0.7160	 8.8230
 0.7150	 8.8277
 0.7140	 8.8283
 0.7130	 8.8320
 0.7120	 8.8331
 0.7110	 8.8402
 0.7100	 8.8468
 0.7090	 8.8477
 0.7080	 8.8543
 0.7070	 8.8587
 0.7060	 8.8700
 0.7050	 8.8785
 0.7040	 8.8866
 0.7030	 8.8978
 0.7020	 8.9080
 0.7010	 8.9166
 0.7000	 8.9292
 0.6990	 8.9398
 0.6980	 8.9495
 0.6970	 8.9598
 0.6960	 8.9764
 0.6950	 8.9883
 0.6940	 9.0048
 0.6930	 9.0181
 0.6920	 9.0250
 0.6910	 9.0330
 0.6900	 9.0456
 0.6890	 9.0624
 0.6880	 9.0791
 0.6870	 9.0930
 0.6860	 9.1087
 0.6850	 9.1339
 0.6840	 9.1529
 0.6830	 9.1678
 0.6820	 9.1853
 0.6810	 9.2095
 0.6800	 9.2338
 0.6790	 9.2548
 0.6780	 9.2727
 0.6770	 9.2939
 0.6760	 9.3180
 0.6750	 9.3379
 0.6740	 9.3615
 0.6730	 9.3881
 0.6720	 9.4117
 0.6710	 9.4396
 0.6700	 9.4681
 0.6690	 9.4918
 0.6680	 9.5163
 0.6670	 9.5430
 0.6660	 9.5676
 0.6650	 9.5961
 0.6640	 9.6249
 0.6630	 9.6525
 0.6620	 9.6788
 0.6610	 9.7097
 0.6600	 9.7405
 0.6590	 9.7678
 0.6580	 9.7970
 0.6570	 9.8253
 0.6560	 9.8562
 0.6550	 9.8858
 0.6540	 9.9162
 0.6530	 9.9496
 0.6520	 9.9803
 0.6510	10.0116
 0.6500	10.0429
 0.6490	10.0763
 0.6480	10.1079
 0.6470	10.1398
 0.6460	10.1746
 0.6450	10.2106
 0.6440	10.2452
 0.6430	10.2819
 0.6420	10.3154
 0.6410	10.3496
 0.6400	10.3844
 0.6390	10.4188
 0.6380	10.4547
 0.6370	10.4914
 0.6360	10.5272
 0.6350	10.5612
 0.6340	10.5981
 0.6330	10.6360
 0.6320	10.6721
 0.6310	10.7096
 0.6300	10.7437
 0.6290	10.7775
 0.6280	10.8169
 0.6270	10.8581
 0.6260	10.8975
 0.6250	10.9342
 0.6240	10.9732
 0.6230	11.0092
 0.6220	11.0466
 0.6210	11.0911
 0.6200	11.1318
 0.6190	11.1712
 0.6180	11.2091
 0.6170	11.2504
 0.6160	11.2911
 0.6150	11.3281
 0.6140	11.3697
 0.6130	11.4127
 0.6120	11.4536
 0.6110	11.4923
 0.6100	11.5316
 0.6090	11.5735
 0.6080	11.6122
 0.6070	11.6536
 0.6060	11.6931
 0.6050	11.7326
 0.6040	11.7753
 0.6030	11.8131
 0.6020	11.8511
 0.6010	11.8927
 0.6000	11.9350
 0.5990	11.9818
 0.5980	12.0250
 0.5970	12.0675
 0.5960	12.1057
 0.5950	12.1502
 0.5940	12.1929
 0.5930	12.2324
 0.5920	12.2737
 0.5910	12.3119
 0.5900	12.3517
 0.5890	12.3922
 0.5880	12.4287
 0.5870	12.4703
 0.5860	12.5078
 0.5850	12.5447
 0.5840	12.5825
 0.5830	12.6229
 0.5820	12.6602
 0.5810	12.6951
 0.5800	12.7312
 0.5790	12.7703
 0.5780	12.8044
 0.5770	12.8385
 0.5760	12.8752
 0.5750	12.9070
 0.5740	12.9339
 0.5730	12.9665
 0.5720	12.9984
 0.5710	13.0257
 0.5700	13.0554
 0.5690	13.0827
 0.5680	13.1137
 0.5670	13.1397
 0.5660	13.1648
 0.5650	13.1939
 0.5640	13.2177
 0.5630	13.2423
 0.5620	13.2630
 0.5610	13.2873
 0.5600	13.3090
 0.5590	13.3292
 0.5580	13.3450
 0.5570	13.3684
 0.5560	13.3826
 0.5550	13.3933
 0.5540	13.4062
 0.5530	13.4202
 0.5520	13.4313
 0.5510	13.4378
 0.5500	13.4461
 0.5490	13.4535
 0.5480	13.4551
 0.5470	13.4609
 0.5460	13.4622
 0.5450	13.4696
 0.5440	13.4762
 0.5430	13.4753
 0.5420	13.4709
 0.5410	13.4717
 0.5400	13.4711
 0.5390	13.4725
 0.5380	13.4710
 0.5370	13.4643
 0.5360	13.4674
 0.5350	13.4652
 0.5340	13.4622
 0.5330	13.4651
 0.5320	13.4643
 0.5310	13.4676
 0.5300	13.4745
 0.5290	13.4794
 0.5280	13.4823
 0.5270	13.4888
 0.5260	13.4899
 0.5250	13.4913
 0.5240	13.4987
 0.5230	13.4947
 0.5220	13.4969
 0.5210	13.4901
 0.5200	13.4871
 0.5190	13.4828
 0.5180	13.4686
 0.5170	13.4590
 0.5160	13.4460
 0.5150	13.4260
 0.5140	13.4072
 0.5130	13.3815
 0.5120	13.3546
 0.5110	13.3332
 0.5100	13.3021
 0.5090	13.2722
 0.5080	13.2359
 0.5070	13.1982
 0.5060	13.1573
 0.5050	13.1191
 0.5040	13.0662
 0.5030	13.0119
 0.5020	12.9540
 0.5010	12.8983
 0.5000	12.8235
 0.4990	12.7569
 0.4980	12.6962
 0.4970	12.6364
 0.4960	12.5869
 0.4950	12.5603
 0.4940	12.5461
 0.4930	12.5414
 0.4920	12.5469
 0.4910	12.5614
 0.4900	12.5628
 0.4890	12.5555
 0.4880	12.5276
 0.4870	12.4916
 0.4860	12.4453
 0.4850	12.3870
 0.4840	12.3238
 0.4830	12.2616
 0.4820	12.2023
 0.4810	12.1379
 0.4800	12.0635
 0.4790	11.9953
 0.4780	11.9228
 0.4770	11.8506
 0.4760	11.7813
 0.4750	11.7095
 0.4740	11.6354
 0.4730	11.5627
 0.4720	11.4988
 0.4710	11.4302
 0.4700	11.3607
 0.4690	11.2969
 0.4680	11.2339
 0.4670	11.1779
 0.4660	11.1245
 0.4650	11.0689
 0.4640	11.0261
 0.4630	10.9808
 0.4620	10.9351
 0.4610	10.8937
 0.4600	10.8513
 0.4590	10.8172
 0.4580	10.7796
 0.4570	10.7467
 0.4560	10.7202
 0.4550	10.6966
 0.4540	10.6744
 0.4530	10.6534
 0.4520	10.6382
 0.4510	10.6289
 0.4500	10.6187
 0.4490	10.6152
 0.4480	10.6032
 0.4470	10.5935
 0.4460	10.5805
 0.4450	10.5624
 0.4440	10.5404
 0.4430	10.5089
 0.4420	10.4714
 0.4410	10.4281
 0.4400	10.3829
 0.4390	10.3363
 0.4380	10.2839
 0.4370	10.2424
 0.4360	10.1897
 0.4350	10.1380
 0.4340	10.0855
 0.4330	10.0354
 0.4320	 9.9901
 0.4310	 9.9403
 0.4300	 9.8952
 0.4290	 9.8442
 0.4280	 9.7899
 0.4270	 9.7459
 0.4260	 9.6917
 0.4250	 9.6362
 0.4240	 9.5781
 0.4230	 9.5188
 0.4220	 9.4667
 0.4210	 9.4128
 0.4200	 9.3570
 0.4190	 9.3009
 0.4180	 9.2599
 0.4170	 9.2254
 0.4160	 9.1791
 0.4150	 9.1322
 0.4140	 9.0936
 0.4130	 9.0580
 0.4120	 9.0240
 0.4110	 8.9876
 0.4100	 8.9592
 0.4090	 8.9315
 0.4080	 8.9098
 0.4070	 8.8888
 0.4060	 8.8730
 0.4050	 8.8606
 0.4040	 8.8503
 0.4030	 8.8352
 0.4020	 8.8308
 0.4010	 8.8294
 0.4000	 8.8287
