Name: Realgar AsS
Type: Mineral
Class: Sulfide
Subclass: None
Particle Size: Fine
Sample No.: S-3A
Owner: JPL
Wavelength Range: VSWIR
Origin: 
Collection Date: N/A
Description: Particle size was 0-45um.Collected by JPL Original ASTER Spectral Library name was jpl.beckman.mineral.sulfide.none.fine.s03a.spectrum.txt
Measurement: Hemispherical reflectance
First Column: X
Second Column: Y
X Units: Wavelength (micrometers)
Y Units:Reflectance (percent)
First X Value:  0.4000
Last X Value:  2.5000
Number of X Values: 826
Additional Information: mineral.sulfide.none.fine.vswir.s-3a.jpl.beckman.ancillary.txt

 0.4000	 5.0500
 0.4010	 5.1600
 0.4020	 5.1500
 0.4030	 5.0300
 0.4040	 5.1500
 0.4050	 5.0200
 0.4060	 4.9700
 0.4070	 5.0900
 0.4080	 5.0200
 0.4090	 5.1300
 0.4100	 5.0200
 0.4110	 4.9200
 0.4120	 5.0900
 0.4130	 5.0200
 0.4140	 5.0900
 0.4150	 4.9700
 0.4160	 4.9700
 0.4170	 5.0200
 0.4180	 5.0100
 0.4190	 4.9600
 0.4200	 5.0300
 0.4210	 4.9200
 0.4220	 5.0900
 0.4230	 5.0200
 0.4240	 4.9100
 0.4250	 4.9600
 0.4260	 4.9600
 0.4270	 5.0800
 0.4280	 5.0200
 0.4290	 4.9600
 0.4300	 5.0600
 0.4310	 5.0000
 0.4320	 4.9600
 0.4330	 4.9600
 0.4340	 4.9100
 0.4350	 5.0200
 0.4360	 4.9700
 0.4370	 4.8500
 0.4380	 4.9600
 0.4390	 4.9100
 0.4400	 5.0100
 0.4410	 4.9000
 0.4420	 4.7800
 0.4430	 4.9600
 0.4440	 4.9000
 0.4450	 4.9600
 0.4460	 4.9000
 0.4470	 4.7800
 0.4480	 4.9600
 0.4490	 4.8400
 0.4500	 4.8400
 0.4510	 4.9000
 0.4520	 4.8300
 0.4530	 4.9400
 0.4540	 4.8700
 0.4550	 4.7800
 0.4560	 4.8800
 0.4570	 4.8100
 0.4580	 4.8600
 0.4590	 4.8500
 0.4600	 4.8800
 0.4610	 4.7800
 0.4620	 4.8400
 0.4630	 4.8400
 0.4640	 4.7800
 0.4650	 4.7800
 0.4660	 4.7700
 0.4670	 4.7700
 0.4680	 4.8300
 0.4690	 4.7600
 0.4700	 4.8300
 0.4710	 4.7600
 0.4720	 4.7500
 0.4730	 4.8100
 0.4740	 4.7600
 0.4750	 4.8700
 0.4760	 4.8200
 0.4770	 4.8200
 0.4780	 4.8100
 0.4790	 4.8000
 0.4800	 4.8100
 0.4810	 4.8300
 0.4820	 4.8200
 0.4830	 4.8800
 0.4840	 4.8200
 0.4850	 4.8100
 0.4860	 4.8600
 0.4870	 4.8700
 0.4880	 4.9300
 0.4890	 4.8700
 0.4900	 4.7900
 0.4910	 4.9000
 0.4920	 4.8900
 0.4930	 5.0000
 0.4940	 4.8800
 0.4950	 4.8700
 0.4960	 4.9200
 0.4970	 4.8500
 0.4980	 4.9700
 0.4990	 4.9000
 0.5000	 4.9600
 0.5010	 5.0200
 0.5020	 4.9500
 0.5030	 4.9500
 0.5040	 5.0100
 0.5050	 5.0100
 0.5060	 5.1200
 0.5070	 5.1100
 0.5080	 5.1500
 0.5090	 5.1900
 0.5100	 5.1400
 0.5110	 5.2600
 0.5120	 5.2600
 0.5130	 5.3300
 0.5140	 5.4500
 0.5150	 5.4000
 0.5160	 5.4100
 0.5170	 5.4700
 0.5180	 5.5100
 0.5190	 5.6200
 0.5200	 5.6800
 0.5210	 5.7300
 0.5220	 5.8200
 0.5230	 5.8400
 0.5240	 6.0100
 0.5250	 6.0600
 0.5260	 6.2400
 0.5270	 6.3600
 0.5280	 6.4100
 0.5290	 6.4700
 0.5300	 6.6600
 0.5310	 6.7900
 0.5320	 7.0400
 0.5330	 7.1900
 0.5340	 7.3100
 0.5350	 7.5300
 0.5360	 7.7100
 0.5370	 8.0100
 0.5380	 8.2500
 0.5390	 8.5500
 0.5400	 8.9000
 0.5410	 9.0700
 0.5420	 9.4000
 0.5430	 9.8200
 0.5440	10.2400
 0.5450	10.7100
 0.5460	11.0900
 0.5470	11.5900
 0.5480	12.1000
 0.5490	12.6000
 0.5500	13.3500
 0.5510	13.9100
 0.5520	14.6000
 0.5530	15.3900
 0.5540	16.0000
 0.5550	16.7800
 0.5560	17.6200
 0.5570	18.4200
 0.5580	19.1400
 0.5590	19.4500
 0.5600	19.6700
 0.5610	22.5900
 0.5620	23.8400
 0.5630	24.9300
 0.5640	26.0300
 0.5650	27.5000
 0.5660	28.6800
 0.5670	30.0900
 0.5680	31.4400
 0.5690	32.6900
 0.5700	34.2100
 0.5710	35.4400
 0.5720	36.8500
 0.5730	38.3100
 0.5740	39.7600
 0.5750	41.3400
 0.5760	42.7700
 0.5770	44.0200
 0.5780	45.5700
 0.5790	46.9900
 0.5800	48.4500
 0.5810	49.7900
 0.5820	51.0100
 0.5830	52.5700
 0.5840	53.7400
 0.5850	54.9500
 0.5860	56.2600
 0.5870	57.4700
 0.5880	58.7000
 0.5890	59.8500
 0.5900	60.9300
 0.5910	62.0900
 0.5920	63.0200
 0.5930	63.9200
 0.5940	64.9200
 0.5950	65.6500
 0.5960	66.6600
 0.5970	67.3800
 0.5980	68.0900
 0.5990	68.8600
 0.6000	69.5800
 0.6010	70.2800
 0.6020	70.8000
 0.6030	71.3300
 0.6040	72.0300
 0.6050	72.5700
 0.6060	73.0100
 0.6070	73.5300
 0.6080	73.9200
 0.6090	74.3900
 0.6100	74.6900
 0.6110	74.9700
 0.6120	75.4300
 0.6130	75.6800
 0.6140	76.0200
 0.6150	76.2600
 0.6160	76.4200
 0.6170	76.9200
 0.6180	76.9500
 0.6190	77.1000
 0.6200	77.3700
 0.6210	77.4900
 0.6220	77.8200
 0.6230	77.9700
 0.6240	77.9500
 0.6250	78.2700
 0.6260	78.3100
 0.6270	78.5700
 0.6280	78.7600
 0.6290	78.6100
 0.6300	78.9700
 0.6310	79.0100
 0.6320	79.0700
 0.6330	79.2300
 0.6340	79.3200
 0.6350	79.4500
 0.6360	79.4100
 0.6370	79.4400
 0.6380	79.6200
 0.6390	79.6500
 0.6400	79.8000
 0.6410	79.7500
 0.6420	79.7300
 0.6430	80.0400
 0.6440	80.0000
 0.6450	80.1100
 0.6460	80.2100
 0.6470	80.1700
 0.6480	80.3400
 0.6490	80.3500
 0.6500	80.3900
 0.6510	80.5000
 0.6520	80.4700
 0.6530	80.6900
 0.6540	80.6400
 0.6550	80.7000
 0.6560	80.7400
 0.6570	80.7800
 0.6580	80.8400
 0.6590	80.7700
 0.6600	80.6200
 0.6610	80.8500
 0.6620	80.8700
 0.6630	81.0300
 0.6640	81.0700
 0.6650	80.8800
 0.6660	81.0300
 0.6670	80.9800
 0.6680	81.1700
 0.6690	81.2100
 0.6700	81.0900
 0.6710	81.2700
 0.6720	81.2500
 0.6730	81.3200
 0.6740	81.4500
 0.6750	81.3200
 0.6760	81.4900
 0.6770	81.4000
 0.6780	81.3900
 0.6790	81.5600
 0.6800	81.5200
 0.6810	81.6100
 0.6820	81.6300
 0.6830	81.5700
 0.6840	81.6600
 0.6850	81.6000
 0.6860	81.7900
 0.6870	81.7900
 0.6880	81.7900
 0.6890	81.8900
 0.6900	81.8100
 0.6910	81.9200
 0.6920	81.9400
 0.6930	82.0000
 0.6940	82.0600
 0.6950	81.9400
 0.6960	81.9400
 0.6970	82.1000
 0.6980	82.0600
 0.6990	82.1400
 0.7000	82.1700
 0.7010	82.1300
 0.7020	82.4100
 0.7030	82.3100
 0.7040	82.4000
 0.7050	82.5300
 0.7060	82.6600
 0.7070	82.6600
 0.7080	82.6500
 0.7090	82.6800
 0.7100	82.6700
 0.7110	82.8500
 0.7120	82.8000
 0.7130	82.8700
 0.7140	82.9400
 0.7150	82.8600
 0.7160	82.8700
 0.7170	82.9800
 0.7180	82.9900
 0.7190	83.1500
 0.7200	83.1900
 0.7210	83.1900
 0.7220	83.2000
 0.7230	83.2900
 0.7240	83.4000
 0.7250	83.2900
 0.7260	83.4500
 0.7270	83.4000
 0.7280	83.5800
 0.7290	83.5800
 0.7300	83.5000
 0.7310	83.6600
 0.7320	83.6600
 0.7330	83.7300
 0.7340	83.7400
 0.7350	83.7800
 0.7360	83.8900
 0.7370	84.2400
 0.7380	84.0900
 0.7390	84.1500
 0.7400	84.1300
 0.7410	84.2900
 0.7420	84.3600
 0.7430	84.3100
 0.7440	84.4800
 0.7450	84.6100
 0.7460	84.6700
 0.7470	84.6200
 0.7480	84.6200
 0.7490	84.8400
 0.7500	85.0500
 0.7510	84.9900
 0.7520	85.0100
 0.7530	84.9700
 0.7540	85.0700
 0.7550	85.1300
 0.7560	85.1800
 0.7570	85.3100
 0.7580	85.3400
 0.7590	85.3300
 0.7600	85.3900
 0.7610	85.4200
 0.7620	85.5900
 0.7630	85.7100
 0.7640	85.7100
 0.7650	85.8200
 0.7660	85.7700
 0.7670	85.8800
 0.7680	85.8200
 0.7690	85.9300
 0.7700	86.0500
 0.7710	86.0600
 0.7720	86.1000
 0.7730	86.1000
 0.7740	86.1200
 0.7750	86.3100
 0.7760	86.4100
 0.7770	86.3900
 0.7780	86.4500
 0.7790	86.3400
 0.7800	86.4100
 0.7810	86.3600
 0.7820	86.3600
 0.7830	86.4700
 0.7840	86.6000
 0.7850	86.6500
 0.7860	86.7400
 0.7870	86.5800
 0.7880	86.6500
 0.7890	86.8300
 0.7900	86.7700
 0.7910	86.8200
 0.7920	86.8300
 0.7930	86.8800
 0.7940	86.9800
 0.7950	86.9200
 0.7960	87.0800
 0.7970	86.9700
 0.7980	87.0900
 0.7990	87.0700
 0.8000	87.2700
 0.8040	87.4400
 0.8080	87.4300
 0.8120	87.4500
 0.8160	87.4600
 0.8200	87.5700
 0.8240	87.6200
 0.8280	87.6900
 0.8320	87.6900
 0.8360	87.8600
 0.8400	87.8600
 0.8440	87.9900
 0.8480	87.9600
 0.8520	87.9200
 0.8560	88.0900
 0.8600	88.1500
 0.8640	88.2000
 0.8680	88.2500
 0.8720	88.2700
 0.8760	88.2500
 0.8800	88.3100
 0.8840	88.3200
 0.8880	88.3700
 0.8920	88.4400
 0.8960	88.4300
 0.9000	88.3700
 0.9040	88.4300
 0.9080	88.4300
 0.9120	88.5000
 0.9160	88.4800
 0.9200	88.5500
 0.9240	88.4900
 0.9280	88.5600
 0.9320	88.5600
 0.9360	88.6400
 0.9400	88.7200
 0.9440	88.7700
 0.9480	88.8400
 0.9520	88.7200
 0.9560	88.7700
 0.9600	88.8400
 0.9640	88.9000
 0.9680	88.8900
 0.9720	88.9000
 0.9760	88.8500
 0.9800	88.7900
 0.9840	88.8300
 0.9880	88.9600
 0.9920	89.0300
 0.9960	89.0300
 1.0000	88.9600
 1.0040	89.0800
 1.0080	89.0100
 1.0120	89.0100
 1.0160	89.0300
 1.0200	89.0900
 1.0240	89.1400
 1.0280	89.1400
 1.0320	89.1400
 1.0360	89.1900
 1.0400	89.1900
 1.0440	89.2600
 1.0480	89.1400
 1.0520	89.3200
 1.0560	89.2600
 1.0600	89.2700
 1.0640	89.3200
 1.0680	89.2800
 1.0720	89.3000
 1.0760	89.3800
 1.0800	89.4100
 1.0840	89.4200
 1.0880	89.3800
 1.0920	89.3900
 1.0960	89.4500
 1.1000	89.5000
 1.1040	89.4500
 1.1080	89.5000
 1.1120	89.5600
 1.1160	89.5500
 1.1200	89.6400
 1.1240	89.6400
 1.1280	89.7500
 1.1320	89.7300
 1.1360	89.6900
 1.1400	89.6200
 1.1440	89.6500
 1.1480	89.7000
 1.1520	89.7600
 1.1560	89.7300
 1.1600	89.6600
 1.1640	89.7700
 1.1680	89.7000
 1.1720	89.7100
 1.1760	89.8100
 1.1800	89.8000
 1.1840	89.8600
 1.1880	89.8500
 1.1920	89.7300
 1.1960	89.7300
 1.2000	89.8900
 1.2040	89.9500
 1.2080	89.9500
 1.2120	89.9000
 1.2160	89.8700
 1.2200	90.0000
 1.2240	90.0600
 1.2280	90.0100
 1.2320	90.0800
 1.2360	90.0900
 1.2400	90.1000
 1.2440	90.0600
 1.2480	90.1200
 1.2520	90.2900
 1.2560	90.2300
 1.2600	90.1700
 1.2640	90.2200
 1.2680	90.2800
 1.2720	90.3300
 1.2760	90.3700
 1.2800	90.3600
 1.2840	90.4100
 1.2880	90.4500
 1.2920	90.4500
 1.2960	90.5100
 1.3000	90.4300
 1.3040	90.5300
 1.3080	90.4700
 1.3120	90.5300
 1.3160	90.4800
 1.3200	90.5900
 1.3240	90.5200
 1.3280	90.6200
 1.3320	90.6000
 1.3360	90.6600
 1.3400	90.5500
 1.3440	90.7200
 1.3480	90.7100
 1.3520	90.7700
 1.3560	90.7400
 1.3600	90.8000
 1.3640	90.8000
 1.3680	90.8300
 1.3720	90.9300
 1.3760	90.8500
 1.3800	90.9000
 1.3840	90.9300
 1.3880	90.8600
 1.3920	90.9200
 1.3960	90.8600
 1.4000	91.0400
 1.4040	90.9400
 1.4080	91.0000
 1.4120	90.9400
 1.4160	90.9500
 1.4200	91.0200
 1.4240	91.1000
 1.4280	91.1000
 1.4320	91.1000
 1.4360	91.1700
 1.4400	91.1700
 1.4440	91.1800
 1.4480	91.2300
 1.4520	91.2300
 1.4560	91.3000
 1.4600	91.3000
 1.4640	91.3100
 1.4680	91.3700
 1.4720	91.4300
 1.4760	91.4900
 1.4800	91.4800
 1.4840	91.5300
 1.4880	91.5500
 1.4920	91.6500
 1.4960	91.6400
 1.5000	91.6300
 1.5040	91.6500
 1.5080	91.7000
 1.5120	91.7100
 1.5160	91.8300
 1.5200	91.8800
 1.5240	91.8300
 1.5280	91.8900
 1.5320	91.8900
 1.5360	91.8800
 1.5400	91.9400
 1.5440	91.9400
 1.5480	91.9900
 1.5520	92.0000
 1.5560	92.0600
 1.5600	92.0000
 1.5640	92.1200
 1.5680	92.0700
 1.5720	92.1300
 1.5760	92.1200
 1.5800	92.1800
 1.5840	92.1800
 1.5880	92.1200
 1.5920	92.2400
 1.5960	92.2900
 1.6000	92.2900
 1.6040	92.2800
 1.6080	92.2700
 1.6120	92.2700
 1.6160	92.3200
 1.6200	92.3700
 1.6240	92.2500
 1.6280	92.4100
 1.6320	92.3500
 1.6360	92.3400
 1.6400	92.3200
 1.6440	92.4300
 1.6480	92.4200
 1.6520	92.4900
 1.6560	92.5300
 1.6600	92.5800
 1.6640	92.5700
 1.6680	92.5600
 1.6720	92.5600
 1.6760	92.5500
 1.6800	92.6000
 1.6840	92.5900
 1.6880	92.5800
 1.6920	92.6300
 1.6960	92.5700
 1.7000	92.6200
 1.7040	92.6800
 1.7080	92.6200
 1.7120	92.6700
 1.7160	92.6700
 1.7200	92.6800
 1.7240	92.6200
 1.7280	92.6800
 1.7320	92.6200
 1.7360	92.6700
 1.7400	92.5700
 1.7440	92.5700
 1.7480	92.5700
 1.7520	92.5700
 1.7560	92.5700
 1.7600	92.6200
 1.7640	92.6200
 1.7680	92.5700
 1.7720	92.5200
 1.7760	92.5100
 1.7800	92.5100
 1.7840	92.6200
 1.7880	92.6200
 1.7920	92.6800
 1.7960	92.6200
 1.8000	92.5700
 1.8040	92.6600
 1.8080	92.6300
 1.8120	92.5900
 1.8160	92.6200
 1.8200	92.5300
 1.8240	92.5700
 1.8280	92.5900
 1.8320	92.6100
 1.8360	92.5200
 1.8400	92.6000
 1.8440	92.5100
 1.8480	92.5000
 1.8520	92.4800
 1.8560	92.5300
 1.8600	92.5200
 1.8640	92.4500
 1.8680	92.4300
 1.8720	92.3800
 1.8760	92.2500
 1.8800	92.1900
 1.8840	92.0200
 1.8880	91.9500
 1.8920	91.8400
 1.8960	91.6000
 1.9000	91.5400
 1.9040	91.3600
 1.9080	91.2800
 1.9120	91.2100
 1.9160	91.1700
 1.9200	91.0500
 1.9240	91.0300
 1.9280	90.8900
 1.9320	90.8900
 1.9360	90.8400
 1.9400	90.9400
 1.9440	91.0000
 1.9480	91.0000
 1.9520	91.0400
 1.9560	91.0800
 1.9600	91.1200
 1.9640	91.2900
 1.9680	91.2600
 1.9720	91.3600
 1.9760	91.3400
 1.9800	91.4400
 1.9840	91.5300
 1.9880	91.6200
 1.9920	91.7700
 1.9960	91.9100
 2.0000	92.0200
 2.0040	91.9900
 2.0080	92.0300
 2.0120	92.1400
 2.0160	92.1700
 2.0200	92.3500
 2.0240	92.3300
 2.0280	92.4300
 2.0320	92.4800
 2.0360	92.3900
 2.0400	92.4000
 2.0440	92.5000
 2.0480	92.3700
 2.0520	92.4700
 2.0560	92.4900
 2.0600	92.5700
 2.0640	92.5400
 2.0680	92.5600
 2.0720	92.6800
 2.0760	92.6900
 2.0800	92.8300
 2.0840	92.7900
 2.0880	92.6900
 2.0920	92.7700
 2.0960	92.8400
 2.1000	92.9200
 2.1040	93.0600
 2.1080	93.1300
 2.1120	93.0400
 2.1160	93.2300
 2.1200	93.2000
 2.1240	93.2500
 2.1280	93.1700
 2.1320	93.1400
 2.1360	93.2000
 2.1400	93.0800
 2.1440	93.1200
 2.1480	93.1100
 2.1520	93.0500
 2.1560	92.9500
 2.1600	92.9500
 2.1640	92.8200
 2.1680	92.7700
 2.1720	92.7100
 2.1760	92.7200
 2.1800	92.6700
 2.1840	92.6900
 2.1880	92.6500
 2.1920	92.5600
 2.1960	92.6300
 2.2000	92.5900
 2.2040	92.5400
 2.2080	92.4800
 2.2120	92.4400
 2.2160	92.4800
 2.2200	92.5800
 2.2240	92.5200
 2.2280	92.4600
 2.2320	92.5000
 2.2360	92.4000
 2.2400	92.4200
 2.2440	92.5400
 2.2480	92.5400
 2.2520	92.4600
 2.2560	92.4800
 2.2600	92.3900
 2.2640	92.4500
 2.2680	92.5500
 2.2720	92.4300
 2.2760	92.4400
 2.2800	92.4000
 2.2840	92.4800
 2.2880	92.5000
 2.2920	92.5000
 2.2960	92.4800
 2.3000	92.4100
 2.3040	92.4300
 2.3080	92.4500
 2.3120	92.5300
 2.3160	92.6100
 2.3200	92.6300
 2.3240	92.6100
 2.3280	92.6500
 2.3320	92.7400
 2.3360	92.7700
 2.3400	92.6900
 2.3440	92.5800
 2.3480	92.6400
 2.3520	92.7200
 2.3560	92.6700
 2.3600	92.6900
 2.3640	92.6500
 2.3680	92.5500
 2.3720	92.5900
 2.3760	92.4900
 2.3800	92.5400
 2.3840	92.4500
 2.3880	92.4100
 2.3920	92.3900
 2.3960	92.3300
 2.4000	92.3900
 2.4040	92.3800
 2.4080	92.3700
 2.4120	92.4200
 2.4160	92.3500
 2.4200	92.2400
 2.4240	92.2800
 2.4280	92.1600
 2.4320	92.1600
 2.4360	92.2100
 2.4400	92.1400
 2.4440	92.0300
 2.4480	92.1200
 2.4520	91.9600
 2.4560	92.0100
 2.4600	92.0000
 2.4640	91.8700
 2.4680	91.8100
 2.4720	91.8600
 2.4760	91.7900
 2.4800	91.9000
 2.4840	92.1100
 2.4880	92.1500
 2.4920	92.2100
 2.4960	92.4200
 2.5000	92.4700
