Name: Borax Na_2B_4O_5(OH)_4.8H_2O
Type: Mineral
Class: Borate
Subclass: None
Particle Size: Fine
Sample No.: B-6A
Owner: JPL
Wavelength Range: VSWIR
Origin: USA, California, Kern County, Boron
Collection Date: N/A
Description: Particle size was 0-45um.Collected by Burminco Original ASTER Spectral Library name was jpl.beckman.mineral.borate.none.fine.b06.spectrum.txt
Measurement: Hemispherical reflectance
First Column: X
Second Column: Y
X Units: Wavelength (micrometers)
Y Units:Reflectance (percent)
First X Value:  0.4000
Last X Value:  2.5000
Number of X Values: 826
Additional Information: mineral.borate.none.fine.vswir.b-6a.jpl.beckman.ancillary.txt

 0.4000	86.1900
 0.4010	86.0700
 0.4020	86.1500
 0.4030	86.3200
 0.4040	86.3800
 0.4050	86.4500
 0.4060	86.4000
 0.4070	86.3300
 0.4080	86.3400
 0.4090	86.3500
 0.4100	86.4700
 0.4110	86.4600
 0.4120	86.4500
 0.4130	86.5800
 0.4140	86.4600
 0.4150	86.4500
 0.4160	86.4000
 0.4170	86.4700
 0.4180	86.6000
 0.4190	86.5300
 0.4200	86.6400
 0.4210	86.4500
 0.4220	86.6300
 0.4230	86.8200
 0.4240	86.7100
 0.4250	86.8900
 0.4260	86.7600
 0.4270	86.7700
 0.4280	86.8200
 0.4290	86.8400
 0.4300	86.9600
 0.4310	86.9100
 0.4320	86.9000
 0.4330	87.0000
 0.4340	86.9500
 0.4350	87.1200
 0.4360	87.0500
 0.4370	87.0000
 0.4380	87.2400
 0.4390	87.2400
 0.4400	87.3000
 0.4410	87.1500
 0.4420	87.2000
 0.4430	87.3200
 0.4440	87.2500
 0.4450	87.3100
 0.4460	87.2400
 0.4470	87.3700
 0.4480	87.3700
 0.4490	87.3700
 0.4500	87.4200
 0.4510	87.3700
 0.4520	87.6100
 0.4530	87.4600
 0.4540	87.4700
 0.4550	87.6100
 0.4560	87.5800
 0.4570	87.6500
 0.4580	87.5600
 0.4590	87.6800
 0.4600	87.7100
 0.4610	87.8700
 0.4620	87.8600
 0.4630	87.8700
 0.4640	87.8300
 0.4650	88.0600
 0.4660	87.8300
 0.4670	87.9500
 0.4680	87.9600
 0.4690	88.0300
 0.4700	88.1500
 0.4710	88.0400
 0.4720	88.0900
 0.4730	88.0400
 0.4740	88.0900
 0.4750	88.3900
 0.4760	88.2200
 0.4770	88.2000
 0.4780	88.1500
 0.4790	88.2800
 0.4800	88.4200
 0.4810	88.4700
 0.4820	88.4500
 0.4830	88.3900
 0.4840	88.4100
 0.4850	88.5400
 0.4860	88.5500
 0.4870	88.5400
 0.4880	88.4300
 0.4890	88.5000
 0.4900	88.6300
 0.4910	88.5800
 0.4920	88.5900
 0.4930	88.5000
 0.4940	88.4500
 0.4950	88.5200
 0.4960	88.6500
 0.4970	88.6500
 0.4980	88.6100
 0.4990	88.6200
 0.5000	88.6700
 0.5010	88.6700
 0.5020	88.7400
 0.5030	88.7400
 0.5040	88.6800
 0.5050	88.7400
 0.5060	88.8000
 0.5070	88.9700
 0.5080	88.9100
 0.5090	88.9600
 0.5100	88.9600
 0.5110	89.0200
 0.5120	89.0400
 0.5130	88.9400
 0.5140	88.8800
 0.5150	89.0400
 0.5160	89.1500
 0.5170	89.2100
 0.5180	89.0500
 0.5190	89.1100
 0.5200	89.2200
 0.5210	89.2200
 0.5220	89.2200
 0.5230	89.1700
 0.5240	89.1700
 0.5250	89.2300
 0.5260	89.2400
 0.5270	89.3400
 0.5280	89.2300
 0.5290	89.1100
 0.5300	89.2800
 0.5310	89.1700
 0.5320	89.2700
 0.5330	89.2500
 0.5340	89.1100
 0.5350	89.2000
 0.5360	89.2000
 0.5370	89.3200
 0.5380	89.3700
 0.5390	89.3700
 0.5400	89.3600
 0.5410	89.1900
 0.5420	89.2600
 0.5430	89.2000
 0.5440	89.1500
 0.5450	89.3300
 0.5460	89.2900
 0.5470	89.3500
 0.5480	89.1800
 0.5490	89.1900
 0.5500	89.4900
 0.5510	89.3800
 0.5520	89.5500
 0.5530	89.3200
 0.5540	89.3200
 0.5550	89.4900
 0.5560	89.4300
 0.5570	89.4600
 0.5580	89.4300
 0.5590	89.3500
 0.5600	89.8000
 0.5610	89.7400
 0.5620	89.7400
 0.5630	89.7600
 0.5640	89.8100
 0.5650	89.8100
 0.5660	89.7700
 0.5670	89.7500
 0.5680	89.6900
 0.5690	89.6900
 0.5700	89.6400
 0.5710	89.6300
 0.5720	89.6300
 0.5730	89.5300
 0.5740	89.4800
 0.5750	89.5700
 0.5760	89.6100
 0.5770	89.5400
 0.5780	89.4800
 0.5790	89.4900
 0.5800	89.4900
 0.5810	89.4900
 0.5820	89.4300
 0.5830	89.3200
 0.5840	89.3200
 0.5850	89.3800
 0.5860	89.5500
 0.5870	89.4800
 0.5880	89.4800
 0.5890	89.4900
 0.5900	89.4900
 0.5910	89.6600
 0.5920	89.7200
 0.5930	89.6000
 0.5940	89.6100
 0.5950	89.5000
 0.5960	89.6800
 0.5970	89.6700
 0.5980	89.5700
 0.5990	89.6500
 0.6000	89.6800
 0.6010	89.5300
 0.6020	89.6600
 0.6030	89.6100
 0.6040	89.8400
 0.6050	89.7900
 0.6060	89.7600
 0.6070	89.8200
 0.6080	89.7000
 0.6090	89.8300
 0.6100	89.7700
 0.6110	89.5900
 0.6120	89.7700
 0.6130	89.5900
 0.6140	89.5800
 0.6150	89.5800
 0.6160	89.5900
 0.6170	89.5400
 0.6180	89.6000
 0.6190	89.5900
 0.6200	89.5900
 0.6210	89.6600
 0.6220	89.6600
 0.6230	89.5400
 0.6240	89.7100
 0.6250	89.6400
 0.6260	89.6400
 0.6270	89.7100
 0.6280	89.7200
 0.6290	89.7200
 0.6300	89.6000
 0.6310	89.6500
 0.6320	89.6000
 0.6330	89.8300
 0.6340	89.7700
 0.6350	89.6500
 0.6360	89.6400
 0.6370	89.5800
 0.6380	89.7000
 0.6390	89.7600
 0.6400	89.7100
 0.6410	89.7200
 0.6420	89.5400
 0.6430	89.6500
 0.6440	89.8800
 0.6450	89.6600
 0.6460	89.7800
 0.6470	89.6600
 0.6480	89.8300
 0.6490	89.8700
 0.6500	89.7600
 0.6510	89.7000
 0.6520	89.5900
 0.6530	89.7700
 0.6540	89.7100
 0.6550	89.7700
 0.6560	89.7100
 0.6570	89.6600
 0.6580	89.7700
 0.6590	89.8300
 0.6600	89.7700
 0.6610	89.7100
 0.6620	89.6400
 0.6630	89.8100
 0.6640	89.8200
 0.6650	89.7700
 0.6660	89.7200
 0.6670	89.7800
 0.6680	89.7800
 0.6690	89.8300
 0.6700	89.8300
 0.6710	89.8900
 0.6720	89.7200
 0.6730	89.7700
 0.6740	89.8200
 0.6750	89.7600
 0.6760	89.8100
 0.6770	89.7100
 0.6780	89.7700
 0.6790	89.7800
 0.6800	89.7200
 0.6810	89.8900
 0.6820	89.8300
 0.6830	89.8300
 0.6840	89.9500
 0.6850	89.8400
 0.6860	89.8900
 0.6870	89.8800
 0.6880	89.8200
 0.6890	89.8800
 0.6900	89.7700
 0.6910	89.7800
 0.6920	89.8300
 0.6930	89.7700
 0.6940	89.8800
 0.6950	89.7700
 0.6960	89.8300
 0.6970	89.8300
 0.6980	89.8600
 0.6990	89.8800
 0.7000	89.8200
 0.7010	89.8300
 0.7020	89.7800
 0.7030	89.8400
 0.7040	89.6700
 0.7050	89.7800
 0.7060	89.8200
 0.7070	89.8200
 0.7080	89.8800
 0.7090	89.7800
 0.7100	89.7800
 0.7110	89.8300
 0.7120	89.8300
 0.7130	89.8900
 0.7140	89.7200
 0.7150	89.7800
 0.7160	89.8300
 0.7170	89.7600
 0.7180	89.8200
 0.7190	89.7700
 0.7200	89.8300
 0.7210	89.7800
 0.7220	89.7200
 0.7230	89.8300
 0.7240	89.5500
 0.7250	89.8300
 0.7260	89.8400
 0.7270	89.7800
 0.7280	89.8800
 0.7290	89.6000
 0.7300	89.8900
 0.7310	89.8300
 0.7320	89.7800
 0.7330	89.8400
 0.7340	89.7200
 0.7350	89.7300
 0.7360	89.7800
 0.7370	89.5400
 0.7380	89.6500
 0.7390	89.6500
 0.7400	89.7700
 0.7410	89.7800
 0.7420	89.7300
 0.7430	89.7200
 0.7440	89.5500
 0.7450	89.7200
 0.7460	89.7200
 0.7470	89.6000
 0.7480	89.7100
 0.7490	89.6100
 0.7500	89.8400
 0.7510	89.7900
 0.7520	89.7800
 0.7530	89.8400
 0.7540	89.5500
 0.7550	89.7300
 0.7560	89.7200
 0.7570	89.7200
 0.7580	89.7800
 0.7590	89.5600
 0.7600	89.7800
 0.7610	89.7200
 0.7620	89.6700
 0.7630	89.7900
 0.7640	89.6800
 0.7650	89.9000
 0.7660	89.8400
 0.7670	89.6700
 0.7680	89.7300
 0.7690	89.6200
 0.7700	89.7900
 0.7710	89.7900
 0.7720	89.6200
 0.7730	89.6200
 0.7740	89.6200
 0.7750	89.7800
 0.7760	89.7300
 0.7770	89.6800
 0.7780	89.7900
 0.7790	89.6800
 0.7800	89.7900
 0.7810	89.6200
 0.7820	89.6800
 0.7830	89.7900
 0.7840	89.6200
 0.7850	89.7400
 0.7860	89.6800
 0.7870	89.7400
 0.7880	89.7300
 0.7890	89.6300
 0.7900	89.8000
 0.7910	89.6900
 0.7920	89.7900
 0.7930	89.7800
 0.7940	89.8400
 0.7950	89.9000
 0.7960	89.7900
 0.7970	89.8400
 0.7980	89.8900
 0.7990	89.9400
 0.8000	89.7900
 0.8040	89.8400
 0.8080	89.8400
 0.8120	89.8500
 0.8160	89.8800
 0.8200	89.8900
 0.8240	89.8900
 0.8280	90.0200
 0.8320	89.8900
 0.8360	89.9400
 0.8400	89.9500
 0.8440	89.9400
 0.8480	89.9400
 0.8520	89.9300
 0.8560	89.9400
 0.8600	89.9300
 0.8640	89.9900
 0.8680	89.9900
 0.8720	90.0400
 0.8760	89.9900
 0.8800	89.9800
 0.8840	89.9300
 0.8880	89.9300
 0.8920	89.9200
 0.8960	89.9300
 0.9000	89.9800
 0.9040	89.9900
 0.9080	89.8100
 0.9120	89.9200
 0.9160	89.8100
 0.9200	89.7500
 0.9240	89.8100
 0.9280	89.7600
 0.9320	89.6900
 0.9360	89.5700
 0.9400	89.5000
 0.9440	89.5600
 0.9480	89.4600
 0.9520	89.2600
 0.9560	89.2000
 0.9600	88.9700
 0.9640	88.7800
 0.9680	88.5500
 0.9720	88.4500
 0.9760	88.3800
 0.9800	88.5500
 0.9840	88.5000
 0.9880	88.5600
 0.9920	88.5100
 0.9960	88.6200
 1.0000	88.6600
 1.0040	88.8400
 1.0080	88.8400
 1.0120	88.9900
 1.0160	88.9100
 1.0200	88.9700
 1.0240	89.0300
 1.0280	89.0700
 1.0320	89.1300
 1.0360	89.1400
 1.0400	89.2100
 1.0440	89.2100
 1.0480	89.2200
 1.0520	89.2200
 1.0560	89.2700
 1.0600	89.2700
 1.0640	89.3400
 1.0680	89.4700
 1.0720	89.4300
 1.0760	89.5000
 1.0800	89.4100
 1.0840	89.3200
 1.0880	89.2700
 1.0920	89.2200
 1.0960	89.1600
 1.1000	89.0400
 1.1040	88.9400
 1.1080	88.8800
 1.1120	88.8700
 1.1160	88.8000
 1.1200	88.7900
 1.1240	88.7300
 1.1280	88.7000
 1.1320	88.5600
 1.1360	88.3600
 1.1400	88.0000
 1.1440	87.4400
 1.1480	86.6700
 1.1520	85.9500
 1.1560	85.6600
 1.1600	85.6100
 1.1640	85.7900
 1.1680	85.9000
 1.1720	85.9100
 1.1760	85.9100
 1.1800	85.7900
 1.1840	85.8000
 1.1880	85.6900
 1.1920	85.7300
 1.1960	85.7500
 1.2000	85.7500
 1.2040	85.6300
 1.2080	85.6000
 1.2120	85.4600
 1.2160	85.4900
 1.2200	85.4400
 1.2240	85.4200
 1.2280	85.3700
 1.2320	85.3400
 1.2360	85.3200
 1.2400	85.2800
 1.2440	85.1300
 1.2480	85.1400
 1.2520	85.0900
 1.2560	85.0700
 1.2600	84.8900
 1.2640	84.8800
 1.2680	84.7000
 1.2720	84.6500
 1.2760	84.5400
 1.2800	84.5600
 1.2840	84.6700
 1.2880	84.9000
 1.2920	85.0300
 1.2960	85.1500
 1.3000	85.1800
 1.3040	85.1100
 1.3080	85.0400
 1.3120	84.8200
 1.3160	84.6300
 1.3200	84.3100
 1.3240	84.0100
 1.3280	83.6600
 1.3320	83.3200
 1.3360	82.8900
 1.3400	82.5400
 1.3440	82.1000
 1.3480	81.6700
 1.3520	81.3500
 1.3560	80.9900
 1.3600	80.6000
 1.3640	80.1900
 1.3680	79.7400
 1.3720	79.4400
 1.3760	78.9100
 1.3800	78.2500
 1.3840	77.4500
 1.3880	76.5000
 1.3920	75.3800
 1.3960	74.1800
 1.4000	72.7500
 1.4040	71.0200
 1.4080	68.9200
 1.4120	66.7500
 1.4160	64.8800
 1.4200	63.8200
 1.4240	63.7800
 1.4280	64.2700
 1.4320	64.5300
 1.4360	64.4800
 1.4400	64.0500
 1.4440	63.6300
 1.4480	63.0600
 1.4520	62.4100
 1.4560	61.7500
 1.4600	61.1800
 1.4640	60.6600
 1.4680	60.3700
 1.4720	60.1400
 1.4760	60.0900
 1.4800	60.2700
 1.4840	60.7100
 1.4880	61.2800
 1.4920	61.8900
 1.4960	62.5500
 1.5000	63.0200
 1.5040	63.4900
 1.5080	63.6600
 1.5120	63.6800
 1.5160	63.5700
 1.5200	63.4100
 1.5240	63.1200
 1.5280	62.7900
 1.5320	62.4900
 1.5360	62.2600
 1.5400	62.0800
 1.5440	61.7700
 1.5480	61.6700
 1.5520	61.5000
 1.5560	61.4600
 1.5600	61.3800
 1.5640	61.5200
 1.5680	61.6000
 1.5720	61.7000
 1.5760	61.7600
 1.5800	61.8300
 1.5840	61.7900
 1.5880	61.8100
 1.5920	61.6500
 1.5960	61.5800
 1.6000	61.4200
 1.6040	61.3700
 1.6080	61.2100
 1.6120	61.0900
 1.6160	60.8600
 1.6200	60.6800
 1.6240	60.3900
 1.6280	60.1700
 1.6320	60.0300
 1.6360	59.9400
 1.6400	59.6700
 1.6440	59.4300
 1.6480	59.2100
 1.6520	58.9100
 1.6560	58.7600
 1.6600	58.5500
 1.6640	58.4000
 1.6680	58.2600
 1.6720	58.0800
 1.6760	57.9600
 1.6800	57.8700
 1.6840	57.6700
 1.6880	57.5800
 1.6920	57.4900
 1.6960	57.3900
 1.7000	57.2400
 1.7040	57.2800
 1.7080	57.2500
 1.7120	57.2400
 1.7160	57.2600
 1.7200	57.3300
 1.7240	57.3400
 1.7280	57.3300
 1.7320	57.2900
 1.7360	57.2200
 1.7400	57.1900
 1.7440	57.0800
 1.7480	57.0400
 1.7520	56.9200
 1.7560	56.7800
 1.7600	56.6200
 1.7640	56.3300
 1.7680	56.1200
 1.7720	55.8500
 1.7760	55.5100
 1.7800	55.2900
 1.7840	55.1200
 1.7880	54.9200
 1.7920	54.7900
 1.7960	54.6200
 1.8000	54.4400
 1.8040	54.2300
 1.8080	54.0900
 1.8120	53.9200
 1.8160	53.7100
 1.8200	53.5300
 1.8240	53.3400
 1.8280	53.2300
 1.8320	53.1200
 1.8360	52.8900
 1.8400	52.6600
 1.8440	52.4900
 1.8480	52.2400
 1.8520	51.9200
 1.8560	51.5500
 1.8600	51.0200
 1.8640	50.3500
 1.8680	49.5300
 1.8720	48.6100
 1.8760	47.5300
 1.8800	46.1600
 1.8840	44.5800
 1.8880	42.7000
 1.8920	40.5800
 1.8960	38.4500
 1.9000	36.3700
 1.9040	34.7200
 1.9080	33.4700
 1.9120	32.7000
 1.9160	32.1600
 1.9200	31.8200
 1.9240	31.7400
 1.9280	31.7800
 1.9320	31.9500
 1.9360	32.3500
 1.9400	32.8200
 1.9440	33.3800
 1.9480	33.7900
 1.9520	34.2800
 1.9560	34.7000
 1.9600	35.0200
 1.9640	35.3600
 1.9680	35.5200
 1.9720	35.8300
 1.9760	35.9900
 1.9800	36.1500
 1.9840	36.3000
 1.9880	36.5200
 1.9920	36.7700
 1.9960	36.9000
 2.0000	37.1300
 2.0040	37.3200
 2.0080	37.5100
 2.0120	37.8400
 2.0160	38.0100
 2.0200	38.1700
 2.0240	38.3200
 2.0280	38.5100
 2.0320	38.6600
 2.0360	38.7700
 2.0400	38.8900
 2.0440	39.0300
 2.0480	39.1800
 2.0520	39.3100
 2.0560	39.5600
 2.0600	39.7000
 2.0640	39.6900
 2.0680	39.8000
 2.0720	39.8900
 2.0760	39.9200
 2.0800	39.9100
 2.0840	40.0200
 2.0880	40.0200
 2.0920	40.0300
 2.0960	40.1000
 2.1000	40.2000
 2.1040	40.3500
 2.1080	40.4500
 2.1120	40.5800
 2.1160	40.6500
 2.1200	40.5500
 2.1240	40.4100
 2.1280	40.1300
 2.1320	39.7700
 2.1360	39.3400
 2.1400	38.9600
 2.1440	38.6200
 2.1480	38.5100
 2.1520	38.5100
 2.1560	38.7100
 2.1600	38.9600
 2.1640	39.3500
 2.1680	39.7800
 2.1720	40.0900
 2.1760	40.3900
 2.1800	40.5900
 2.1840	40.7600
 2.1880	40.8300
 2.1920	40.8800
 2.1960	40.8000
 2.2000	40.7300
 2.2040	40.5700
 2.2080	40.4100
 2.2120	40.1900
 2.2160	40.0700
 2.2200	40.0000
 2.2240	39.9100
 2.2280	39.7800
 2.2320	39.7100
 2.2360	39.6700
 2.2400	39.6000
 2.2440	39.5800
 2.2480	39.5500
 2.2520	39.5400
 2.2560	39.4500
 2.2600	39.4200
 2.2640	39.4200
 2.2680	39.4600
 2.2720	39.4600
 2.2760	39.4500
 2.2800	39.3400
 2.2840	39.3300
 2.2880	39.3800
 2.2920	39.3900
 2.2960	39.3700
 2.3000	39.4100
 2.3040	39.3700
 2.3080	39.3700
 2.3120	39.4500
 2.3160	39.5000
 2.3200	39.4000
 2.3240	39.3900
 2.3280	39.4200
 2.3320	39.3700
 2.3360	39.3400
 2.3400	39.2600
 2.3440	39.0700
 2.3480	38.8800
 2.3520	38.6600
 2.3560	38.4100
 2.3600	38.0900
 2.3640	37.7500
 2.3680	37.3400
 2.3720	36.9300
 2.3760	36.4600
 2.3800	35.9600
 2.3840	35.3700
 2.3880	34.8200
 2.3920	34.2700
 2.3960	33.7200
 2.4000	33.2300
 2.4040	32.6500
 2.4080	32.1500
 2.4120	31.6900
 2.4160	31.2300
 2.4200	30.8000
 2.4240	30.5000
 2.4280	30.1100
 2.4320	29.8900
 2.4360	29.5700
 2.4400	29.3600
 2.4440	29.1100
 2.4480	28.8700
 2.4520	28.6500
 2.4560	28.3500
 2.4600	27.9900
 2.4640	27.7200
 2.4680	27.3300
 2.4720	26.9000
 2.4760	26.4400
 2.4800	26.0500
 2.4840	25.5200
 2.4880	25.0900
 2.4920	24.6200
 2.4960	24.1100
 2.5000	23.7800
