Name: Talc Mg_3Si_4O_10(OH)_2
Type: Mineral
Class: Silicate
Subclass: Phyllosilicate
Particle Size: Medium
Sample No.: PS-14A
Owner: JPL
Wavelength Range: VSWIR
Origin: USA, Georgia, Cherokee County, Holly Springs.
Collection Date: N/A
Description: Particle size was 45-125um.Collected by:  Burminco Original ASTER Spectral Library name was jpl.perkin.mineral.silicate.phyllosilicate.medium.ps14a.spectrum.txt
Measurement: Hemispherical reflectance
First Column: X
Second Column: Y
X Units: Wavelength (micrometers)
Y Units:Reflectance (percent)
First X Value:  2.5000
Last X Value:  0.4000
Number of X Values: 2101
Additional Information: mineral.silicate.phyllosilicate.medium.vswir.ps-14a.jpl.perkin.ancillary.txt

 2.5000	63.5582
 2.4990	63.4413
 2.4980	63.4419
 2.4970	63.6417
 2.4960	63.3360
 2.4950	63.5882
 2.4940	63.7077
 2.4930	63.6096
 2.4920	63.8378
 2.4910	64.0971
 2.4900	64.1710
 2.4890	64.2505
 2.4880	64.4112
 2.4870	64.5341
 2.4860	64.7494
 2.4850	64.6339
 2.4840	64.7622
 2.4830	64.6858
 2.4820	64.6087
 2.4810	64.4627
 2.4800	64.2913
 2.4790	64.0956
 2.4780	63.8210
 2.4770	63.4165
 2.4760	63.0641
 2.4750	62.5365
 2.4740	62.1198
 2.4730	61.5248
 2.4720	61.2504
 2.4710	60.4637
 2.4700	60.0452
 2.4690	59.6570
 2.4680	59.3318
 2.4670	58.7054
 2.4660	58.4002
 2.4650	58.2645
 2.4640	58.1055
 2.4630	57.8318
 2.4620	57.7895
 2.4610	57.6609
 2.4600	57.8572
 2.4590	57.8581
 2.4580	58.0258
 2.4570	58.3108
 2.4560	58.5401
 2.4550	58.7936
 2.4540	59.2380
 2.4530	59.3734
 2.4520	59.5893
 2.4510	59.9559
 2.4500	60.3128
 2.4490	60.3535
 2.4480	60.7104
 2.4470	60.8984
 2.4460	61.1549
 2.4450	61.3278
 2.4440	61.4946
 2.4430	61.5278
 2.4420	61.6432
 2.4410	61.6658
 2.4400	61.8513
 2.4390	61.8437
 2.4380	62.0045
 2.4370	61.9386
 2.4360	61.9525
 2.4350	61.9533
 2.4340	61.9474
 2.4330	62.0016
 2.4320	62.1006
 2.4310	62.0825
 2.4300	62.2333
 2.4290	62.2867
 2.4280	62.5008
 2.4270	62.6212
 2.4260	62.8381
 2.4250	62.9477
 2.4240	63.2630
 2.4230	63.4754
 2.4220	63.7422
 2.4210	63.9600
 2.4200	64.2392
 2.4190	64.4927
 2.4180	64.8251
 2.4170	65.0966
 2.4160	65.3274
 2.4150	65.5985
 2.4140	65.7118
 2.4130	65.7029
 2.4120	65.8160
 2.4110	65.8512
 2.4100	65.6701
 2.4090	65.4373
 2.4080	65.0788
 2.4070	64.7058
 2.4060	64.2065
 2.4050	63.5067
 2.4040	62.8472
 2.4030	62.0166
 2.4020	61.2698
 2.4010	60.4010
 2.4000	59.5293
 2.3990	58.6705
 2.3980	57.8250
 2.3970	56.8469
 2.3960	55.9332
 2.3950	55.0091
 2.3940	54.1938
 2.3930	53.4980
 2.3920	52.8643
 2.3910	52.3065
 2.3900	51.8221
 2.3890	51.3957
 2.3880	51.1403
 2.3870	50.9440
 2.3860	50.9413
 2.3850	50.9204
 2.3840	51.0555
 2.3830	51.2589
 2.3820	51.5847
 2.3810	51.9637
 2.3800	52.4325
 2.3790	52.9183
 2.3780	53.4840
 2.3770	54.0607
 2.3760	54.7051
 2.3750	55.3744
 2.3740	56.0216
 2.3730	56.7474
 2.3720	57.5092
 2.3710	58.1800
 2.3700	58.8859
 2.3690	59.5111
 2.3680	60.3014
 2.3670	61.0016
 2.3660	61.6016
 2.3650	62.2617
 2.3640	62.8657
 2.3630	63.4222
 2.3620	63.9545
 2.3610	64.4548
 2.3600	64.9755
 2.3590	65.4238
 2.3580	65.7836
 2.3570	66.1888
 2.3560	66.5999
 2.3550	66.9614
 2.3540	67.2743
 2.3530	67.6041
 2.3520	67.9026
 2.3510	68.2453
 2.3500	68.5540
 2.3490	68.8060
 2.3480	69.0523
 2.3470	69.2664
 2.3460	69.4373
 2.3450	69.6101
 2.3440	69.6556
 2.3430	69.7740
 2.3420	69.7595
 2.3410	69.6070
 2.3400	69.3942
 2.3390	69.0581
 2.3380	68.5805
 2.3370	68.0092
 2.3360	67.3054
 2.3350	66.4288
 2.3340	65.5106
 2.3330	64.5861
 2.3320	63.5077
 2.3310	62.2743
 2.3300	60.9736
 2.3290	59.6411
 2.3280	58.1947
 2.3270	56.6903
 2.3260	55.0915
 2.3250	53.5061
 2.3240	51.8843
 2.3230	50.2254
 2.3220	48.6188
 2.3210	47.0539
 2.3200	45.5396
 2.3190	44.0903
 2.3180	42.7027
 2.3170	41.5028
 2.3160	40.3545
 2.3150	39.3639
 2.3140	38.5021
 2.3130	37.8037
 2.3120	37.2787
 2.3110	36.9333
 2.3100	36.7819
 2.3090	36.7736
 2.3080	36.9762
 2.3070	37.4350
 2.3060	37.8788
 2.3050	38.5155
 2.3040	39.2075
 2.3030	39.9555
 2.3020	40.7250
 2.3010	41.5291
 2.3000	42.2416
 2.2990	42.9196
 2.2980	43.5104
 2.2970	43.9691
 2.2960	44.3762
 2.2950	44.8427
 2.2940	45.0366
 2.2930	45.2428
 2.2920	45.4164
 2.2910	45.6608
 2.2900	45.8569
 2.2890	46.1907
 2.2880	46.5116
 2.2870	46.9866
 2.2860	47.4628
 2.2850	48.2148
 2.2840	49.0800
 2.2830	50.0262
 2.2820	51.0873
 2.2810	52.2973
 2.2800	53.5852
 2.2790	54.9983
 2.2780	56.3561
 2.2770	57.7690
 2.2760	59.0392
 2.2750	60.3365
 2.2740	61.6370
 2.2730	62.8001
 2.2720	63.9308
 2.2710	64.9771
 2.2700	65.8799
 2.2690	66.8295
 2.2680	67.7101
 2.2670	68.5096
 2.2660	69.1998
 2.2650	70.0857
 2.2640	70.7127
 2.2630	71.3938
 2.2620	72.0180
 2.2610	72.6325
 2.2600	73.1381
 2.2590	73.7665
 2.2580	74.3978
 2.2570	74.9090
 2.2560	75.3789
 2.2550	75.8873
 2.2540	76.3148
 2.2530	76.7268
 2.2520	77.1431
 2.2510	77.5390
 2.2500	77.8246
 2.2490	78.1202
 2.2480	78.4218
 2.2470	78.6235
 2.2460	78.7795
 2.2450	78.8687
 2.2440	78.8429
 2.2430	78.8907
 2.2420	78.9209
 2.2410	78.7732
 2.2400	78.5494
 2.2390	78.3438
 2.2380	78.0210
 2.2370	77.7335
 2.2360	77.5650
 2.2350	77.1007
 2.2340	77.0024
 2.2330	76.6760
 2.2320	76.5334
 2.2310	76.4888
 2.2300	76.4516
 2.2290	76.6301
 2.2280	76.7087
 2.2270	76.9463
 2.2260	77.3339
 2.2250	77.8104
 2.2240	78.2144
 2.2230	78.6120
 2.2220	79.1871
 2.2210	79.6078
 2.2200	80.1595
 2.2190	80.5017
 2.2180	80.7867
 2.2170	81.1076
 2.2160	81.3607
 2.2150	81.6561
 2.2140	81.7841
 2.2130	81.8014
 2.2120	81.9377
 2.2110	81.9206
 2.2100	81.9588
 2.2090	81.9761
 2.2080	82.0835
 2.2070	82.1174
 2.2060	82.0650
 2.2050	82.1708
 2.2040	82.1635
 2.2030	82.0468
 2.2020	82.1951
 2.2010	82.2240
 2.2000	82.2559
 2.1990	82.1668
 2.1980	82.1808
 2.1970	82.1513
 2.1960	82.1655
 2.1950	82.1804
 2.1940	82.0237
 2.1930	82.1628
 2.1920	81.9075
 2.1910	81.8805
 2.1900	81.7327
 2.1890	81.6950
 2.1880	81.5489
 2.1870	81.4984
 2.1860	81.3232
 2.1850	81.2549
 2.1840	81.0446
 2.1830	80.9236
 2.1820	80.7943
 2.1810	80.5749
 2.1800	80.4001
 2.1790	80.1632
 2.1780	80.0532
 2.1770	79.9251
 2.1760	79.8541
 2.1750	79.6947
 2.1740	79.7356
 2.1730	79.6696
 2.1720	79.7318
 2.1710	79.7788
 2.1700	79.8534
 2.1690	79.9246
 2.1680	80.1452
 2.1670	80.3020
 2.1660	80.3022
 2.1650	80.4823
 2.1640	80.5914
 2.1630	80.6970
 2.1620	80.8534
 2.1610	81.0747
 2.1600	81.0770
 2.1590	81.1493
 2.1580	81.1717
 2.1570	81.2728
 2.1560	81.2375
 2.1550	81.2872
 2.1540	81.1272
 2.1530	81.0596
 2.1520	81.1892
 2.1510	81.1005
 2.1500	81.0340
 2.1490	80.7826
 2.1480	80.6609
 2.1470	80.5579
 2.1460	80.4352
 2.1450	80.3521
 2.1440	80.2340
 2.1430	80.0774
 2.1420	79.9042
 2.1410	79.8167
 2.1400	79.6784
 2.1390	79.6741
 2.1380	79.5277
 2.1370	79.4165
 2.1360	79.3188
 2.1350	79.2884
 2.1340	79.1809
 2.1330	79.1662
 2.1320	79.0352
 2.1310	79.1449
 2.1300	78.9947
 2.1290	79.0131
 2.1280	79.1324
 2.1270	79.1943
 2.1260	79.2389
 2.1250	79.3940
 2.1240	79.5580
 2.1230	79.6059
 2.1220	79.7582
 2.1210	79.8513
 2.1200	79.9264
 2.1190	79.9230
 2.1180	79.9148
 2.1170	80.0122
 2.1160	80.0696
 2.1150	80.1324
 2.1140	80.0741
 2.1130	80.2109
 2.1120	80.2736
 2.1110	80.3319
 2.1100	80.3748
 2.1090	80.4268
 2.1080	80.4241
 2.1070	80.5421
 2.1060	80.5943
 2.1050	80.6193
 2.1040	80.5806
 2.1030	80.5001
 2.1020	80.4189
 2.1010	80.3561
 2.1000	80.2482
 2.0990	80.1593
 2.0980	80.0999
 2.0970	80.0737
 2.0960	79.9505
 2.0950	79.9144
 2.0940	79.8657
 2.0930	79.7175
 2.0920	79.6597
 2.0910	79.6253
 2.0900	79.5014
 2.0890	79.3667
 2.0880	79.2681
 2.0870	79.1642
 2.0860	79.0587
 2.0850	78.9877
 2.0840	78.7943
 2.0830	78.6355
 2.0820	78.5021
 2.0810	78.2504
 2.0800	78.0975
 2.0790	78.1203
 2.0780	78.0740
 2.0770	78.1565
 2.0760	78.4662
 2.0750	78.7391
 2.0740	79.0873
 2.0730	79.5393
 2.0720	79.9274
 2.0710	80.3321
 2.0700	80.7772
 2.0690	81.1941
 2.0680	81.5795
 2.0670	81.9482
 2.0660	82.1855
 2.0650	82.3584
 2.0640	82.1237
 2.0630	82.3350
 2.0620	82.8466
 2.0610	82.9674
 2.0600	83.0260
 2.0590	83.1145
 2.0580	83.2008
 2.0570	83.2652
 2.0560	83.3650
 2.0550	83.4458
 2.0540	83.4671
 2.0530	83.5532
 2.0520	83.7154
 2.0510	83.7753
 2.0500	83.8874
 2.0490	83.8564
 2.0480	83.8474
 2.0470	83.9129
 2.0460	84.0167
 2.0450	84.1207
 2.0440	84.2118
 2.0430	84.2506
 2.0420	84.2716
 2.0410	84.3194
 2.0400	84.3934
 2.0390	84.4689
 2.0380	84.5699
 2.0370	84.6481
 2.0360	84.6934
 2.0350	84.7171
 2.0340	84.6894
 2.0330	84.7206
 2.0320	84.8265
 2.0310	84.8868
 2.0300	84.8305
 2.0290	84.7768
 2.0280	84.7428
 2.0270	84.6469
 2.0260	84.5331
 2.0250	84.4473
 2.0240	84.3638
 2.0230	84.2106
 2.0220	84.1498
 2.0210	84.0037
 2.0200	83.9613
 2.0190	83.8113
 2.0180	83.7436
 2.0170	83.6207
 2.0160	83.5333
 2.0150	83.5140
 2.0140	83.4943
 2.0130	83.4886
 2.0120	83.6286
 2.0110	83.5993
 2.0100	83.6884
 2.0090	83.7526
 2.0080	83.8032
 2.0070	84.0110
 2.0060	84.2349
 2.0050	84.2743
 2.0040	84.2824
 2.0030	84.4167
 2.0020	84.4829
 2.0010	84.4727
 2.0000	84.6107
 1.9990	84.6775
 1.9980	84.6785
 1.9970	84.6933
 1.9960	84.7991
 1.9950	84.6694
 1.9940	84.7106
 1.9930	84.7337
 1.9920	84.7626
 1.9910	84.8171
 1.9900	84.8414
 1.9890	84.7936
 1.9880	84.8926
 1.9870	84.9550
 1.9860	85.0705
 1.9850	85.0906
 1.9840	85.1877
 1.9830	85.2246
 1.9820	85.2664
 1.9810	85.2307
 1.9800	85.3123
 1.9790	85.3492
 1.9780	85.2753
 1.9770	85.2411
 1.9760	85.3136
 1.9750	85.2307
 1.9740	85.3844
 1.9730	85.3426
 1.9720	85.3524
 1.9710	85.3588
 1.9700	85.3208
 1.9690	85.3240
 1.9680	85.2900
 1.9670	85.3967
 1.9660	85.3546
 1.9650	85.3037
 1.9640	85.3241
 1.9630	85.3271
 1.9620	85.4544
 1.9610	85.2933
 1.9600	85.3902
 1.9590	85.2210
 1.9580	85.2971
 1.9570	85.4063
 1.9560	85.3934
 1.9550	85.2517
 1.9540	85.2455
 1.9530	85.2629
 1.9520	85.3040
 1.9510	85.3355
 1.9500	85.1585
 1.9490	85.3200
 1.9480	85.2830
 1.9470	85.3257
 1.9460	85.3339
 1.9450	85.3234
 1.9440	85.2762
 1.9430	85.2828
 1.9420	85.4192
 1.9410	85.3637
 1.9400	85.3562
 1.9390	85.3873
 1.9380	85.3331
 1.9370	85.5619
 1.9360	85.4240
 1.9350	85.3811
 1.9340	85.4876
 1.9330	85.4486
 1.9320	85.4527
 1.9310	85.5376
 1.9300	85.4590
 1.9290	85.5178
 1.9280	85.4142
 1.9270	85.5428
 1.9260	85.4760
 1.9250	85.5813
 1.9240	85.5478
 1.9230	85.5538
 1.9220	85.5936
 1.9210	85.5738
 1.9200	85.5242
 1.9190	85.5268
 1.9180	85.6217
 1.9170	85.4374
 1.9160	85.5467
 1.9150	85.6010
 1.9140	85.6214
 1.9130	85.6581
 1.9120	85.5938
 1.9110	85.6212
 1.9100	85.6474
 1.9090	85.6181
 1.9080	85.6404
 1.9070	85.7245
 1.9060	85.7801
 1.9050	85.7785
 1.9040	85.7857
 1.9030	85.7697
 1.9020	85.8793
 1.9010	85.8059
 1.9000	85.8306
 1.8990	85.9206
 1.8980	85.9444
 1.8970	85.9376
 1.8960	85.9697
 1.8950	85.9602
 1.8940	86.1292
 1.8930	86.0531
 1.8920	86.0339
 1.8910	86.0626
 1.8900	86.1232
 1.8890	86.2383
 1.8880	86.1886
 1.8870	86.2705
 1.8860	86.2772
 1.8850	86.2047
 1.8840	86.2504
 1.8830	86.3983
 1.8820	86.2564
 1.8810	86.2875
 1.8800	86.3420
 1.8790	86.4344
 1.8780	86.2715
 1.8770	86.3215
 1.8760	86.4303
 1.8750	86.4416
 1.8740	86.4184
 1.8730	86.5318
 1.8720	86.5070
 1.8710	86.5134
 1.8700	86.5712
 1.8690	86.4783
 1.8680	86.6573
 1.8670	86.5788
 1.8660	86.6491
 1.8650	86.5978
 1.8640	86.5601
 1.8630	86.6058
 1.8620	86.7087
 1.8610	86.7060
 1.8600	86.7342
 1.8590	86.7384
 1.8580	86.7537
 1.8570	86.7580
 1.8560	86.8605
 1.8550	86.8047
 1.8540	86.8312
 1.8530	86.8667
 1.8520	86.9098
 1.8510	86.8874
 1.8500	86.9254
 1.8490	86.9525
 1.8480	86.9501
 1.8470	86.9117
 1.8460	86.8875
 1.8450	86.8526
 1.8440	86.7984
 1.8430	86.9386
 1.8420	86.9142
 1.8410	86.7984
 1.8400	86.8569
 1.8390	86.8592
 1.8380	86.7718
 1.8370	86.6681
 1.8360	86.8056
 1.8350	86.7974
 1.8340	86.7645
 1.8330	86.7632
 1.8320	86.8293
 1.8310	86.7361
 1.8300	86.7936
 1.8290	86.7759
 1.8280	86.8103
 1.8270	86.8638
 1.8260	86.9086
 1.8250	86.9260
 1.8240	86.9506
 1.8230	86.9882
 1.8220	86.9855
 1.8210	87.0264
 1.8200	87.0367
 1.8190	87.0928
 1.8180	87.0950
 1.8170	87.1211
 1.8160	87.1779
 1.8150	87.1462
 1.8140	87.2157
 1.8130	87.2062
 1.8120	87.2167
 1.8110	87.2887
 1.8100	87.3397
 1.8090	87.3770
 1.8080	87.4537
 1.8070	87.4433
 1.8060	87.4127
 1.8050	87.4364
 1.8040	87.4991
 1.8030	87.4953
 1.8020	87.4787
 1.8010	87.5882
 1.8000	87.6588
 1.7990	87.5638
 1.7980	87.5669
 1.7970	87.5601
 1.7960	87.5588
 1.7950	87.5938
 1.7940	87.6039
 1.7930	87.5642
 1.7920	87.5550
 1.7910	87.5873
 1.7900	87.5606
 1.7890	87.5629
 1.7880	87.5843
 1.7870	87.6430
 1.7860	87.6013
 1.7850	87.5318
 1.7840	87.5807
 1.7830	87.5667
 1.7820	87.5177
 1.7810	87.5200
 1.7800	87.5504
 1.7790	87.5698
 1.7780	87.6059
 1.7770	87.6347
 1.7760	87.6844
 1.7750	87.6332
 1.7740	87.5373
 1.7730	87.5742
 1.7720	87.6236
 1.7710	87.6140
 1.7700	87.5915
 1.7690	87.6064
 1.7680	87.5941
 1.7670	87.5922
 1.7660	87.6246
 1.7650	87.6238
 1.7640	87.6282
 1.7630	87.6471
 1.7620	87.6562
 1.7610	87.6300
 1.7600	87.6288
 1.7590	87.6186
 1.7580	87.6019
 1.7570	87.6514
 1.7560	87.7224
 1.7550	87.6946
 1.7540	87.6556
 1.7530	87.6774
 1.7520	87.6800
 1.7510	87.6939
 1.7500	87.7017
 1.7490	87.7078
 1.7480	87.6540
 1.7470	87.6774
 1.7460	87.7646
 1.7450	87.7330
 1.7440	87.6872
 1.7430	87.7882
 1.7420	87.7641
 1.7410	87.6863
 1.7400	87.6591
 1.7390	87.7270
 1.7380	87.7865
 1.7370	87.7862
 1.7360	87.7539
 1.7350	87.7577
 1.7340	87.7436
 1.7330	87.7372
 1.7320	87.7239
 1.7310	87.7991
 1.7300	87.7834
 1.7290	87.7810
 1.7280	87.7917
 1.7270	87.8074
 1.7260	87.7625
 1.7250	87.7144
 1.7240	87.7268
 1.7230	87.7618
 1.7220	87.7672
 1.7210	87.8335
 1.7200	87.7935
 1.7190	87.7942
 1.7180	87.7747
 1.7170	87.7814
 1.7160	87.7893
 1.7150	87.8462
 1.7140	87.7232
 1.7130	87.8370
 1.7120	87.8599
 1.7110	87.8041
 1.7100	87.7388
 1.7090	87.8102
 1.7080	87.8321
 1.7070	87.7945
 1.7060	87.7422
 1.7050	87.8631
 1.7040	87.8355
 1.7030	87.8186
 1.7020	87.8092
 1.7010	87.7311
 1.7000	87.7780
 1.6990	87.8171
 1.6980	87.7253
 1.6970	87.7819
 1.6960	87.8202
 1.6950	87.7901
 1.6940	87.7190
 1.6930	87.8322
 1.6920	87.7822
 1.6910	87.7518
 1.6900	87.7915
 1.6890	87.8187
 1.6880	87.7552
 1.6870	87.8304
 1.6860	87.7776
 1.6850	87.7510
 1.6840	87.7979
 1.6830	87.8218
 1.6820	87.8422
 1.6810	87.7770
 1.6800	87.7125
 1.6790	87.8710
 1.6780	87.7966
 1.6770	87.7941
 1.6760	87.7645
 1.6750	87.8523
 1.6740	87.7215
 1.6730	87.8024
 1.6720	87.7605
 1.6710	87.7844
 1.6700	87.9089
 1.6690	87.7388
 1.6680	87.7951
 1.6670	87.8479
 1.6660	87.7301
 1.6650	87.8669
 1.6640	87.8157
 1.6630	87.8676
 1.6620	87.8594
 1.6610	87.8648
 1.6600	87.7686
 1.6590	87.8201
 1.6580	87.8191
 1.6570	87.8635
 1.6560	87.8751
 1.6550	87.7802
 1.6540	87.7636
 1.6530	87.8530
 1.6520	87.8079
 1.6510	87.8853
 1.6500	87.8355
 1.6490	87.8957
 1.6480	87.8558
 1.6470	87.8642
 1.6460	87.9681
 1.6450	87.7994
 1.6440	87.9023
 1.6430	87.8102
 1.6420	87.8248
 1.6410	87.7881
 1.6400	87.8075
 1.6390	87.8447
 1.6380	87.7973
 1.6370	87.7699
 1.6360	87.8292
 1.6350	87.7805
 1.6340	87.7753
 1.6330	87.8990
 1.6320	87.8248
 1.6310	87.8013
 1.6300	87.8669
 1.6290	87.8468
 1.6280	87.8154
 1.6270	87.8403
 1.6260	87.9303
 1.6250	87.8060
 1.6240	87.8160
 1.6230	87.8892
 1.6220	87.9273
 1.6210	87.9055
 1.6200	87.9389
 1.6190	87.9090
 1.6180	87.9158
 1.6170	87.9435
 1.6160	87.8704
 1.6150	87.9149
 1.6140	87.8825
 1.6130	87.8472
 1.6120	87.9120
 1.6110	87.9245
 1.6100	87.9876
 1.6090	87.9592
 1.6080	87.8908
 1.6070	87.9527
 1.6060	87.9876
 1.6050	87.9515
 1.6040	87.9125
 1.6030	87.8775
 1.6020	87.9071
 1.6010	87.9367
 1.6000	87.8904
 1.5990	87.9381
 1.5980	87.9074
 1.5970	87.8332
 1.5960	87.8860
 1.5950	87.9119
 1.5940	87.9351
 1.5930	87.8819
 1.5920	87.8827
 1.5910	87.9537
 1.5900	87.9381
 1.5890	87.9284
 1.5880	87.9922
 1.5870	87.9428
 1.5860	87.9986
 1.5850	87.9400
 1.5840	87.8928
 1.5830	87.9278
 1.5820	87.8863
 1.5810	87.9561
 1.5800	87.9890
 1.5790	87.8547
 1.5780	87.9475
 1.5770	87.9251
 1.5760	87.8419
 1.5750	87.9576
 1.5740	87.9798
 1.5730	87.9747
 1.5720	87.9000
 1.5710	87.9591
 1.5700	87.9654
 1.5690	87.9945
 1.5680	87.8834
 1.5670	87.8841
 1.5660	87.7957
 1.5650	87.9034
 1.5640	87.9270
 1.5630	87.9372
 1.5620	87.9309
 1.5610	87.8606
 1.5600	87.8814
 1.5590	87.8934
 1.5580	87.8883
 1.5570	87.8444
 1.5560	87.8677
 1.5550	87.8655
 1.5540	87.8465
 1.5530	87.8156
 1.5520	87.7867
 1.5510	87.8466
 1.5500	87.8649
 1.5490	87.8441
 1.5480	87.8012
 1.5470	87.7859
 1.5460	87.6971
 1.5450	87.6959
 1.5440	87.6724
 1.5430	87.6550
 1.5420	87.6212
 1.5410	87.5772
 1.5400	87.5862
 1.5390	87.5836
 1.5380	87.6845
 1.5370	87.7213
 1.5360	87.6373
 1.5350	87.5952
 1.5340	87.5754
 1.5330	87.5302
 1.5320	87.4783
 1.5310	87.5211
 1.5300	87.5838
 1.5290	87.6425
 1.5280	87.7097
 1.5270	87.7419
 1.5260	87.7566
 1.5250	87.7727
 1.5240	87.7732
 1.5230	87.7718
 1.5220	87.7350
 1.5210	87.7474
 1.5200	87.8303
 1.5190	87.8117
 1.5180	87.8082
 1.5170	87.7934
 1.5160	87.8462
 1.5150	87.8678
 1.5140	87.8178
 1.5130	87.7694
 1.5120	87.8060
 1.5110	87.8117
 1.5100	87.7124
 1.5090	87.6963
 1.5080	87.7475
 1.5070	87.7544
 1.5060	87.7251
 1.5050	87.7164
 1.5040	87.7055
 1.5030	87.6587
 1.5020	87.6499
 1.5010	87.6756
 1.5000	87.6722
 1.4990	87.6344
 1.4980	87.6627
 1.4970	87.6497
 1.4960	87.6043
 1.4950	87.6787
 1.4940	87.6760
 1.4930	87.6741
 1.4920	87.7542
 1.4910	87.7946
 1.4900	87.7226
 1.4890	87.6339
 1.4880	87.6992
 1.4870	87.7760
 1.4860	87.7363
 1.4850	87.7207
 1.4840	87.7529
 1.4830	87.6924
 1.4820	87.6970
 1.4810	87.7035
 1.4800	87.6865
 1.4790	87.6550
 1.4780	87.6571
 1.4770	87.6003
 1.4760	87.5699
 1.4750	87.5672
 1.4740	87.6802
 1.4730	87.7273
 1.4720	87.7195
 1.4710	87.8030
 1.4700	87.7392
 1.4690	87.6541
 1.4680	87.6731
 1.4670	87.7212
 1.4660	87.7343
 1.4650	87.6868
 1.4640	87.6526
 1.4630	87.6055
 1.4620	87.6084
 1.4610	87.6589
 1.4600	87.5831
 1.4590	87.5720
 1.4580	87.5948
 1.4570	87.6294
 1.4560	87.6559
 1.4550	87.6355
 1.4540	87.6190
 1.4530	87.5537
 1.4520	87.5184
 1.4510	87.4317
 1.4500	87.5384
 1.4490	87.5231
 1.4480	87.5374
 1.4470	87.4799
 1.4460	87.5492
 1.4450	87.5364
 1.4440	87.6034
 1.4430	87.5980
 1.4420	87.5719
 1.4410	87.5660
 1.4400	87.5616
 1.4390	87.4696
 1.4380	87.4958
 1.4370	87.5241
 1.4360	87.5369
 1.4350	87.4989
 1.4340	87.5040
 1.4330	87.4766
 1.4320	87.4615
 1.4310	87.4987
 1.4300	87.4876
 1.4290	87.4431
 1.4280	87.4547
 1.4270	87.3752
 1.4260	87.4429
 1.4250	87.4311
 1.4240	87.3822
 1.4230	87.3759
 1.4220	87.4244
 1.4210	87.4126
 1.4200	87.5200
 1.4190	87.4947
 1.4180	87.5448
 1.4170	87.4794
 1.4160	87.4005
 1.4150	87.3936
 1.4140	87.4862
 1.4130	87.3413
 1.4120	87.4360
 1.4110	87.3832
 1.4100	87.2849
 1.4090	87.0720
 1.4080	86.7024
 1.4070	86.3773
 1.4060	85.9731
 1.4050	85.7874
 1.4040	85.8819
 1.4030	85.6266
 1.4020	84.1498
 1.4010	80.5850
 1.4000	76.5985
 1.3990	72.9863
 1.3980	71.7171
 1.3970	72.4652
 1.3960	72.7222
 1.3950	69.7937
 1.3940	64.2520
 1.3930	58.7074
 1.3920	56.5584
 1.3910	60.3603
 1.3900	67.9648
 1.3890	75.6217
 1.3880	81.4639
 1.3870	84.2549
 1.3860	85.4422
 1.3850	85.9715
 1.3840	86.4994
 1.3830	86.9189
 1.3820	87.1153
 1.3810	87.2423
 1.3800	87.3307
 1.3790	87.2879
 1.3780	87.3264
 1.3770	87.4556
 1.3760	87.4240
 1.3750	87.4478
 1.3740	87.5062
 1.3730	87.5626
 1.3720	87.5260
 1.3710	87.3840
 1.3700	87.4390
 1.3690	87.5810
 1.3680	87.5407
 1.3670	87.4577
 1.3660	87.4709
 1.3650	87.5675
 1.3640	87.4235
 1.3630	87.3029
 1.3620	87.1803
 1.3610	87.1646
 1.3600	87.1902
 1.3590	87.3311
 1.3580	87.3366
 1.3570	87.5056
 1.3560	87.4521
 1.3550	87.3929
 1.3540	87.4144
 1.3530	87.4241
 1.3520	87.3626
 1.3510	87.4665
 1.3500	87.3198
 1.3490	87.2548
 1.3480	87.4332
 1.3470	87.2777
 1.3460	87.3787
 1.3450	87.2960
 1.3440	87.3906
 1.3430	87.3447
 1.3420	87.4097
 1.3410	87.3120
 1.3400	87.2805
 1.3390	87.2324
 1.3380	87.2330
 1.3370	87.3011
 1.3360	87.2391
 1.3350	87.2123
 1.3340	87.1818
 1.3330	87.2076
 1.3320	87.1952
 1.3310	87.2339
 1.3300	87.2069
 1.3290	87.0706
 1.3280	87.1919
 1.3270	87.1327
 1.3260	87.1420
 1.3250	86.9879
 1.3240	87.0032
 1.3230	86.9636
 1.3220	86.9768
 1.3210	87.1173
 1.3200	87.0879
 1.3190	87.0298
 1.3180	87.0432
 1.3170	87.0517
 1.3160	87.1111
 1.3150	87.0963
 1.3140	87.0899
 1.3130	87.1333
 1.3120	87.0897
 1.3110	87.0946
 1.3100	87.0670
 1.3090	86.9984
 1.3080	87.0899
 1.3070	87.0581
 1.3060	87.1079
 1.3050	87.0802
 1.3040	86.9312
 1.3030	86.7401
 1.3020	86.6008
 1.3010	86.4774
 1.3000	86.4731
 1.2990	86.4513
 1.2980	86.5382
 1.2970	86.5933
 1.2960	86.7145
 1.2950	86.6535
 1.2940	86.8620
 1.2930	86.8667
 1.2920	86.9434
 1.2910	86.9551
 1.2900	86.9431
 1.2890	86.8897
 1.2880	86.8935
 1.2870	86.8779
 1.2860	86.7679
 1.2850	86.7450
 1.2840	86.6789
 1.2830	86.5304
 1.2820	86.3892
 1.2810	86.2044
 1.2800	85.8729
 1.2790	85.5737
 1.2780	85.4795
 1.2770	85.5215
 1.2760	85.6549
 1.2750	85.9551
 1.2740	86.2445
 1.2730	86.3574
 1.2720	86.3146
 1.2710	86.2944
 1.2700	86.3236
 1.2690	86.3456
 1.2680	86.4859
 1.2670	86.5614
 1.2660	86.6637
 1.2650	86.6475
 1.2640	86.5981
 1.2630	86.6613
 1.2620	86.6493
 1.2610	86.6055
 1.2600	86.6228
 1.2590	86.5919
 1.2580	86.5797
 1.2570	86.5767
 1.2560	86.5639
 1.2550	86.5520
 1.2540	86.5057
 1.2530	86.5070
 1.2520	86.5188
 1.2510	86.4079
 1.2500	86.3745
 1.2490	86.4556
 1.2480	86.4715
 1.2470	86.4939
 1.2460	86.4630
 1.2450	86.4469
 1.2440	86.3463
 1.2430	86.2842
 1.2420	86.2934
 1.2410	86.2900
 1.2400	86.2459
 1.2390	86.2382
 1.2380	86.2395
 1.2370	86.2558
 1.2360	86.2339
 1.2350	86.1665
 1.2340	86.0937
 1.2330	86.0927
 1.2320	86.1085
 1.2310	86.1052
 1.2300	86.0836
 1.2290	86.0175
 1.2280	85.9802
 1.2270	85.9176
 1.2260	85.9188
 1.2250	85.9423
 1.2240	85.9709
 1.2230	85.9915
 1.2220	85.9084
 1.2210	85.8559
 1.2200	85.8744
 1.2190	85.8140
 1.2180	85.7651
 1.2170	85.7555
 1.2160	85.7382
 1.2150	85.7228
 1.2140	85.7736
 1.2130	85.7571
 1.2120	85.6301
 1.2110	85.5626
 1.2100	85.5982
 1.2090	85.6043
 1.2080	85.5781
 1.2070	85.5559
 1.2060	85.5317
 1.2050	85.4905
 1.2040	85.4287
 1.2030	85.4253
 1.2020	85.4135
 1.2010	85.3741
 1.2000	85.3273
 1.1990	85.3379
 1.1980	85.2858
 1.1970	85.2721
 1.1960	85.2913
 1.1950	85.2083
 1.1940	85.1649
 1.1930	85.1385
 1.1920	85.0664
 1.1910	85.0806
 1.1900	85.0319
 1.1890	85.0146
 1.1880	84.9877
 1.1870	84.9545
 1.1860	84.9443
 1.1850	84.8985
 1.1840	84.8078
 1.1830	84.7802
 1.1820	84.7621
 1.1810	84.7082
 1.1800	84.6686
 1.1790	84.7034
 1.1780	84.6862
 1.1770	84.6091
 1.1760	84.5656
 1.1750	84.4829
 1.1740	84.4872
 1.1730	84.4643
 1.1720	84.4352
 1.1710	84.4875
 1.1700	84.4013
 1.1690	84.3278
 1.1680	84.2426
 1.1670	84.1909
 1.1660	84.1413
 1.1650	84.1693
 1.1640	84.1806
 1.1630	84.0446
 1.1620	84.0433
 1.1610	84.0595
 1.1600	84.0190
 1.1590	83.8735
 1.1580	83.8180
 1.1570	83.9280
 1.1560	83.9097
 1.1550	83.8110
 1.1540	83.6942
 1.1530	83.7982
 1.1520	83.6944
 1.1510	83.6002
 1.1500	83.5052
 1.1490	83.5628
 1.1480	83.5107
 1.1470	83.3544
 1.1460	83.3563
 1.1450	83.3723
 1.1440	83.3393
 1.1430	83.2258
 1.1420	83.1894
 1.1410	83.2006
 1.1400	83.1146
 1.1390	83.0749
 1.1380	82.9987
 1.1370	83.1002
 1.1360	83.0197
 1.1350	83.0161
 1.1340	82.8867
 1.1330	82.8267
 1.1320	82.7655
 1.1310	82.7666
 1.1300	82.5902
 1.1290	82.6159
 1.1280	82.6487
 1.1270	82.5779
 1.1260	82.5467
 1.1250	82.5158
 1.1240	82.3678
 1.1230	82.4208
 1.1220	82.2327
 1.1210	82.2628
 1.1200	82.1644
 1.1190	82.1935
 1.1180	82.1021
 1.1170	82.1355
 1.1160	82.0181
 1.1150	82.0292
 1.1140	82.0568
 1.1130	82.0148
 1.1120	81.8638
 1.1110	81.8353
 1.1100	81.7930
 1.1090	81.7602
 1.1080	81.6581
 1.1070	81.6687
 1.1060	81.6528
 1.1050	81.5683
 1.1040	81.5021
 1.1030	81.4643
 1.1020	81.4886
 1.1010	81.4199
 1.1000	81.3583
 1.0990	81.3587
 1.0980	81.1367
 1.0970	81.2172
 1.0960	81.2194
 1.0950	81.1351
 1.0940	81.1199
 1.0930	81.0565
 1.0920	80.9569
 1.0910	80.9689
 1.0900	80.8560
 1.0890	80.9094
 1.0880	80.9002
 1.0870	80.8025
 1.0860	80.7736
 1.0850	80.8502
 1.0840	80.6940
 1.0830	80.6260
 1.0820	80.5209
 1.0810	80.5203
 1.0800	80.5980
 1.0790	80.5201
 1.0780	80.5633
 1.0770	80.5058
 1.0760	80.4046
 1.0750	80.5042
 1.0740	80.2741
 1.0730	80.3473
 1.0720	80.2167
 1.0710	80.3108
 1.0700	80.2161
 1.0690	80.2188
 1.0680	80.1014
 1.0670	80.1201
 1.0660	80.0727
 1.0650	79.9879
 1.0640	79.9516
 1.0630	80.0465
 1.0620	79.9239
 1.0610	79.8719
 1.0600	79.8491
 1.0590	79.7700
 1.0580	79.8112
 1.0570	79.8248
 1.0560	79.7338
 1.0550	79.7190
 1.0540	79.7412
 1.0530	79.6744
 1.0520	79.5861
 1.0510	79.5763
 1.0500	79.6042
 1.0490	79.6462
 1.0480	79.5653
 1.0470	79.6251
 1.0460	79.6274
 1.0450	79.5483
 1.0440	79.4810
 1.0430	79.4654
 1.0420	79.4449
 1.0410	79.5184
 1.0400	79.3810
 1.0390	79.3607
 1.0380	79.3367
 1.0370	79.3578
 1.0360	79.4364
 1.0350	79.3959
 1.0340	79.3439
 1.0330	79.3275
 1.0320	79.3059
 1.0310	79.3059
 1.0300	79.2019
 1.0290	79.2977
 1.0280	79.2296
 1.0270	79.2099
 1.0260	79.1946
 1.0250	79.2244
 1.0240	79.2593
 1.0230	79.1659
 1.0220	79.2051
 1.0210	79.2196
 1.0200	79.1773
 1.0190	79.2344
 1.0180	79.1299
 1.0170	79.2283
 1.0160	79.1520
 1.0150	79.1771
 1.0140	79.1247
 1.0130	79.2079
 1.0120	79.1933
 1.0110	79.1601
 1.0100	79.1699
 1.0090	79.1609
 1.0080	79.1015
 1.0070	79.1114
 1.0060	79.1093
 1.0050	79.1046
 1.0040	79.1475
 1.0030	79.2330
 1.0020	79.0954
 1.0010	79.2026
 1.0000	79.1563
 0.9990	79.1814
 0.9980	79.1432
 0.9970	79.1809
 0.9960	79.2529
 0.9950	79.2784
 0.9940	79.2317
 0.9930	79.2018
 0.9920	79.2536
 0.9910	79.3312
 0.9900	79.1717
 0.9890	79.2049
 0.9880	79.2720
 0.9870	79.2286
 0.9860	79.2815
 0.9850	79.3154
 0.9840	79.2465
 0.9830	79.2385
 0.9820	79.2884
 0.9810	79.3222
 0.9800	79.2671
 0.9790	79.2898
 0.9780	79.3074
 0.9770	79.3518
 0.9760	79.3797
 0.9750	79.4315
 0.9740	79.4728
 0.9730	79.4225
 0.9720	79.4144
 0.9710	79.4421
 0.9700	79.4020
 0.9690	79.4307
 0.9680	79.4866
 0.9670	79.5114
 0.9660	79.4723
 0.9650	79.4503
 0.9640	79.4950
 0.9630	79.5540
 0.9620	79.5544
 0.9610	79.5423
 0.9600	79.5241
 0.9590	79.5608
 0.9580	79.5205
 0.9570	79.4034
 0.9560	79.3210
 0.9550	79.2375
 0.9540	78.9953
 0.9530	78.6888
 0.9520	78.3070
 0.9510	77.9937
 0.9500	77.7792
 0.9490	77.8409
 0.9480	78.1612
 0.9470	78.5350
 0.9460	78.9437
 0.9450	79.3806
 0.9440	79.6461
 0.9430	79.6690
 0.9420	79.6509
 0.9410	79.6745
 0.9400	79.6711
 0.9390	79.6781
 0.9380	79.7258
 0.9370	79.7271
 0.9360	79.6674
 0.9350	79.7196
 0.9340	79.7334
 0.9330	79.6540
 0.9320	79.6150
 0.9310	79.6733
 0.9300	79.7303
 0.9290	79.7269
 0.9280	79.7286
 0.9270	79.7621
 0.9260	79.7369
 0.9250	79.6773
 0.9240	79.6966
 0.9230	79.6861
 0.9220	79.6870
 0.9210	79.6518
 0.9200	79.6515
 0.9190	79.6980
 0.9180	79.6581
 0.9170	79.6215
 0.9160	79.6534
 0.9150	79.6738
 0.9140	79.6239
 0.9130	79.5852
 0.9120	79.6725
 0.9110	79.6587
 0.9100	79.6199
 0.9090	79.6198
 0.9080	79.6767
 0.9070	79.6029
 0.9060	79.5656
 0.9050	79.6208
 0.9040	79.6177
 0.9030	79.5820
 0.9020	79.5382
 0.9010	79.5055
 0.9000	79.4948
 0.8990	79.5104
 0.8980	79.5236
 0.8970	79.4340
 0.8960	79.3958
 0.8950	79.3694
 0.8940	79.4438
 0.8930	79.4525
 0.8920	79.4406
 0.8910	79.3983
 0.8900	79.4093
 0.8890	79.4584
 0.8880	79.3976
 0.8870	79.2592
 0.8860	79.3273
 0.8850	79.3304
 0.8840	79.3107
 0.8830	79.3329
 0.8820	79.3118
 0.8810	79.2963
 0.8800	79.3053
 0.8790	79.3350
 0.8780	79.3348
 0.8770	79.2584
 0.8760	79.2567
 0.8750	79.3167
 0.8740	79.2971
 0.8730	79.2143
 0.8720	79.1878
 0.8710	79.2072
 0.8700	79.2358
 0.8690	79.2501
 0.8680	79.3093
 0.8670	79.3778
 0.8660	79.3379
 0.8650	79.2688
 0.8640	79.2810
 0.8630	79.3248
 0.8620	79.2581
 0.8610	79.2763
 0.8600	79.1821
 0.8590	79.2038
 0.8580	79.1477
 0.8570	79.1410
 0.8560	79.2326
 0.8550	79.2263
 0.8540	79.3066
 0.8530	79.3145
 0.8520	79.3242
 0.8510	79.1939
 0.8500	79.2679
 0.8490	79.2693
 0.8480	79.3126
 0.8470	79.3710
 0.8460	79.3917
 0.8450	79.4472
 0.8440	79.4875
 0.8430	79.4748
 0.8420	79.4864
 0.8410	79.4926
 0.8400	79.5189
 0.8390	79.5560
 0.8380	79.6253
 0.8370	79.6712
 0.8360	79.7022
 0.8350	79.7671
 0.8340	79.7486
 0.8330	79.8601
 0.8320	79.8748
 0.8310	79.9219
 0.8300	79.9684
 0.8290	79.9983
 0.8280	80.0014
 0.8270	80.0755
 0.8260	80.1166
 0.8250	80.1190
 0.8240	80.2102
 0.8230	80.2711
 0.8220	80.2745
 0.8210	80.3385
 0.8200	80.3949
 0.8190	80.4464
 0.8180	80.5021
 0.8170	80.5411
 0.8160	80.5868
 0.8150	80.6486
 0.8140	80.7013
 0.8130	80.7193
 0.8120	80.7947
 0.8110	80.8858
 0.8100	80.9547
 0.8090	80.9753
 0.8080	80.9989
 0.8070	81.0269
 0.8060	81.1518
 0.8050	81.2055
 0.8040	81.2415
 0.8030	81.3272
 0.8020	81.3920
 0.8010	81.4368
 0.8000	81.4973
 0.7990	81.5500
 0.7980	81.5392
 0.7970	81.6082
 0.7960	81.7085
 0.7950	81.7018
 0.7940	81.7531
 0.7930	81.8600
 0.7920	81.8959
 0.7910	81.9214
 0.7900	82.0478
 0.7890	82.0834
 0.7880	82.0826
 0.7870	82.1773
 0.7860	82.2361
 0.7850	82.3080
 0.7840	82.3502
 0.7830	82.4376
 0.7820	82.4467
 0.7810	82.5545
 0.7800	82.5262
 0.7790	82.6292
 0.7780	82.6581
 0.7770	82.7243
 0.7760	82.7411
 0.7750	82.7738
 0.7740	82.8396
 0.7730	82.9254
 0.7720	82.9130
 0.7710	82.9960
 0.7700	83.0211
 0.7690	83.0909
 0.7680	83.1617
 0.7670	83.2307
 0.7660	83.2675
 0.7650	83.3090
 0.7640	83.3529
 0.7630	83.3915
 0.7620	83.4337
 0.7610	83.4978
 0.7600	83.5133
 0.7590	83.5812
 0.7580	83.6050
 0.7570	83.6437
 0.7560	83.6867
 0.7550	83.7187
 0.7540	83.7613
 0.7530	83.8300
 0.7520	83.8586
 0.7510	83.9116
 0.7500	83.9356
 0.7490	83.9672
 0.7480	84.0078
 0.7470	84.0214
 0.7460	84.0574
 0.7450	84.0989
 0.7440	84.1178
 0.7430	84.1580
 0.7420	84.2212
 0.7410	84.2144
 0.7400	84.2534
 0.7390	84.2748
 0.7380	84.3208
 0.7370	84.3530
 0.7360	84.3578
 0.7350	84.3613
 0.7340	84.4067
 0.7330	84.4264
 0.7320	84.4621
 0.7310	84.4436
 0.7300	84.4092
 0.7290	84.4251
 0.7280	84.4314
 0.7270	84.4488
 0.7260	84.5366
 0.7250	84.6246
 0.7240	84.6953
 0.7230	84.7540
 0.7220	84.7384
 0.7210	84.7653
 0.7200	84.8106
 0.7190	84.8471
 0.7180	84.8719
 0.7170	84.8730
 0.7160	84.8959
 0.7150	84.9230
 0.7140	84.9696
 0.7130	84.9893
 0.7120	85.0196
 0.7110	85.0274
 0.7100	85.0299
 0.7090	85.0623
 0.7080	85.0938
 0.7070	85.0884
 0.7060	85.1279
 0.7050	85.1199
 0.7040	85.1426
 0.7030	85.1505
 0.7020	85.1544
 0.7010	85.1880
 0.7000	85.2029
 0.6990	85.2209
 0.6980	85.2154
 0.6970	85.2407
 0.6960	85.2571
 0.6950	85.2420
 0.6940	85.2622
 0.6930	85.3008
 0.6920	85.2962
 0.6910	85.3123
 0.6900	85.3282
 0.6890	85.3168
 0.6880	85.3268
 0.6870	85.3361
 0.6860	85.3477
 0.6850	85.3459
 0.6840	85.3521
 0.6830	85.3610
 0.6820	85.3641
 0.6810	85.3806
 0.6800	85.3713
 0.6790	85.3469
 0.6780	85.3527
 0.6770	85.3701
 0.6760	85.3732
 0.6750	85.3771
 0.6740	85.3819
 0.6730	85.3728
 0.6720	85.3592
 0.6710	85.3760
 0.6700	85.4026
 0.6690	85.3924
 0.6680	85.3786
 0.6670	85.3867
 0.6660	85.3850
 0.6650	85.3815
 0.6640	85.3761
 0.6630	85.3931
 0.6620	85.4154
 0.6610	85.4156
 0.6600	85.4276
 0.6590	85.4274
 0.6580	85.4353
 0.6570	85.4463
 0.6560	85.4748
 0.6550	85.4995
 0.6540	85.4923
 0.6530	85.4794
 0.6520	85.4852
 0.6510	85.4818
 0.6500	85.4821
 0.6490	85.4881
 0.6480	85.4891
 0.6470	85.4941
 0.6460	85.5025
 0.6450	85.5069
 0.6440	85.5152
 0.6430	85.5457
 0.6420	85.5726
 0.6410	85.5924
 0.6400	85.6122
 0.6390	85.6285
 0.6380	85.6437
 0.6370	85.6812
 0.6360	85.7221
 0.6350	85.7535
 0.6340	85.7897
 0.6330	85.8167
 0.6320	85.8552
 0.6310	85.8993
 0.6300	85.9257
 0.6290	85.9584
 0.6280	85.9981
 0.6270	86.0331
 0.6260	86.0646
 0.6250	86.0983
 0.6240	86.1285
 0.6230	86.1478
 0.6220	86.1782
 0.6210	86.2182
 0.6200	86.2547
 0.6190	86.2881
 0.6180	86.3212
 0.6170	86.3657
 0.6160	86.4084
 0.6150	86.4531
 0.6140	86.4932
 0.6130	86.5239
 0.6120	86.5666
 0.6110	86.6100
 0.6100	86.6442
 0.6090	86.6676
 0.6080	86.6984
 0.6070	86.7389
 0.6060	86.7669
 0.6050	86.7995
 0.6040	86.8485
 0.6030	86.8715
 0.6020	86.8968
 0.6010	86.9350
 0.6000	86.9815
 0.5990	87.0209
 0.5980	87.0482
 0.5970	87.0882
 0.5960	87.1335
 0.5950	87.1953
 0.5940	87.2151
 0.5930	87.2459
 0.5920	87.2676
 0.5910	87.2972
 0.5900	87.3106
 0.5890	87.3243
 0.5880	87.3459
 0.5870	87.3500
 0.5860	87.3733
 0.5850	87.4034
 0.5840	87.4185
 0.5830	87.4427
 0.5820	87.4543
 0.5810	87.4686
 0.5800	87.4926
 0.5790	87.5009
 0.5780	87.5202
 0.5770	87.5287
 0.5760	87.5304
 0.5750	87.5493
 0.5740	87.5480
 0.5730	87.5588
 0.5720	87.5823
 0.5710	87.5784
 0.5700	87.5773
 0.5690	87.5809
 0.5680	87.5970
 0.5670	87.5930
 0.5660	87.6072
 0.5650	87.6191
 0.5640	87.6131
 0.5630	87.6207
 0.5620	87.6347
 0.5610	87.5905
 0.5600	87.5626
 0.5590	87.5677
 0.5580	87.5555
 0.5570	87.5474
 0.5560	87.5731
 0.5550	87.5548
 0.5540	87.5519
 0.5530	87.5417
 0.5520	87.5526
 0.5510	87.5037
 0.5500	87.5253
 0.5490	87.5030
 0.5480	87.4852
 0.5470	87.4765
 0.5460	87.4497
 0.5450	87.4595
 0.5440	87.4514
 0.5430	87.4485
 0.5420	87.4350
 0.5410	87.4236
 0.5400	87.4046
 0.5390	87.3865
 0.5380	87.3891
 0.5370	87.3531
 0.5360	87.3526
 0.5350	87.3272
 0.5340	87.3108
 0.5330	87.2994
 0.5320	87.3023
 0.5310	87.2786
 0.5300	87.2570
 0.5290	87.2480
 0.5280	87.2211
 0.5270	87.2002
 0.5260	87.1766
 0.5250	87.1652
 0.5240	87.1484
 0.5230	87.1383
 0.5220	87.1220
 0.5210	87.1033
 0.5200	87.0892
 0.5190	87.0627
 0.5180	87.0482
 0.5170	87.0104
 0.5160	86.9981
 0.5150	86.9595
 0.5140	86.9325
 0.5130	86.8950
 0.5120	86.8916
 0.5110	86.8497
 0.5100	86.8152
 0.5090	86.8095
 0.5080	86.7696
 0.5070	86.7197
 0.5060	86.6850
 0.5050	86.6461
 0.5040	86.6162
 0.5030	86.5858
 0.5020	86.5390
 0.5010	86.5027
 0.5000	86.4546
 0.4990	86.3976
 0.4980	86.3584
 0.4970	86.3542
 0.4960	86.2941
 0.4950	86.2592
 0.4940	86.2254
 0.4930	86.2211
 0.4920	86.1672
 0.4910	86.1407
 0.4900	86.0745
 0.4890	86.0354
 0.4880	85.9982
 0.4870	85.9386
 0.4860	85.9131
 0.4850	85.8312
 0.4840	85.7937
 0.4830	85.7312
 0.4820	85.7063
 0.4810	85.6564
 0.4800	85.6346
 0.4790	85.6243
 0.4780	85.5982
 0.4770	85.5808
 0.4760	85.5583
 0.4750	85.5280
 0.4740	85.4504
 0.4730	85.4360
 0.4720	85.4081
 0.4710	85.3656
 0.4700	85.3242
 0.4690	85.2925
 0.4680	85.2402
 0.4670	85.2076
 0.4660	85.1661
 0.4650	85.1419
 0.4640	85.1119
 0.4630	85.0610
 0.4620	85.0035
 0.4610	84.9638
 0.4600	84.9323
 0.4590	84.8715
 0.4580	84.8404
 0.4570	84.7976
 0.4560	84.7326
 0.4550	84.7188
 0.4540	84.6726
 0.4530	84.6251
 0.4520	84.5937
 0.4510	84.5463
 0.4500	84.5157
 0.4490	84.4816
 0.4480	84.4228
 0.4470	84.4026
 0.4460	84.3331
 0.4450	84.2794
 0.4440	84.2291
 0.4430	84.1813
 0.4420	84.1500
 0.4410	84.0838
 0.4400	84.0368
 0.4390	84.0024
 0.4380	83.9398
 0.4370	83.8463
 0.4360	83.8210
 0.4350	83.7807
 0.4340	83.7219
 0.4330	83.6543
 0.4320	83.6109
 0.4310	83.5573
 0.4300	83.4890
 0.4290	83.4084
 0.4280	83.3580
 0.4270	83.2695
 0.4260	83.1806
 0.4250	83.0994
 0.4240	83.0065
 0.4230	82.9320
 0.4220	82.8530
 0.4210	82.7533
 0.4200	82.6811
 0.4190	82.5675
 0.4180	82.4832
 0.4170	82.3735
 0.4160	82.2959
 0.4150	82.2052
 0.4140	82.1188
 0.4130	82.0164
 0.4120	81.9320
 0.4110	81.8544
 0.4100	81.7514
 0.4090	81.6841
 0.4080	81.6007
 0.4070	81.5274
 0.4060	81.4516
 0.4050	81.3483
 0.4040	81.2991
 0.4030	81.2177
 0.4020	81.1231
 0.4010	81.0499
 0.4000	80.9744
