Name: Microcline (Feldspar) (K,Na)AlSi_3O_8
Type: Mineral
Class: Silicate
Subclass: Tectosilicate
Particle Size: Fine
Sample No.: TS-17A
Owner: JPL
Wavelength Range: VSWIR
Origin: Unknown.
Collection Date: N/A
Description: Particle size was 0-45um. Collected by:  JPL Original ASTER Spectral Library name was jpl.perkin.mineral.silicate.tectosilicate.fine.ts17a.spectrum.txt
Measurement: Hemispherical reflectance
First Column: X
Second Column: Y
X Units: Wavelength (micrometers)
Y Units:Reflectance (percent)
First X Value:  2.5000
Last X Value:  0.4000
Number of X Values: 2101
Additional Information: mineral.silicate.tectosilicate.fine.vswir.ts-17a.jpl.perkin.ancillary.txt

 2.5000	73.0488
 2.4990	72.9428
 2.4980	72.9888
 2.4970	72.9733
 2.4960	72.7769
 2.4950	73.0268
 2.4940	73.0125
 2.4930	72.9595
 2.4920	73.0294
 2.4910	72.9105
 2.4900	72.9043
 2.4890	73.0101
 2.4880	72.9419
 2.4870	72.9342
 2.4860	73.0431
 2.4850	72.8545
 2.4840	72.9859
 2.4830	73.0813
 2.4820	73.0018
 2.4810	73.0763
 2.4800	72.9567
 2.4790	73.2167
 2.4780	73.1248
 2.4770	73.1628
 2.4760	73.1346
 2.4750	73.1443
 2.4740	73.0464
 2.4730	73.1498
 2.4720	73.1974
 2.4710	73.2083
 2.4700	73.0956
 2.4690	73.1154
 2.4680	73.2626
 2.4670	73.4195
 2.4660	73.2859
 2.4650	73.2539
 2.4640	73.3057
 2.4630	73.3928
 2.4620	73.3033
 2.4610	73.3887
 2.4600	73.3034
 2.4590	73.3350
 2.4580	73.4505
 2.4570	73.4652
 2.4560	73.4136
 2.4550	73.5370
 2.4540	73.5885
 2.4530	73.3486
 2.4520	73.3476
 2.4510	73.3975
 2.4500	73.4053
 2.4490	73.4443
 2.4480	73.3798
 2.4470	73.5116
 2.4460	73.4119
 2.4450	73.4356
 2.4440	73.3274
 2.4430	73.4163
 2.4420	73.4666
 2.4410	73.4920
 2.4400	73.4123
 2.4390	73.5417
 2.4380	73.4987
 2.4370	73.5940
 2.4360	73.5995
 2.4350	73.5203
 2.4340	73.5823
 2.4330	73.6629
 2.4320	73.7251
 2.4310	73.7582
 2.4300	73.7785
 2.4290	73.7110
 2.4280	73.7621
 2.4270	73.7476
 2.4260	73.8582
 2.4250	73.9252
 2.4240	73.9827
 2.4230	73.9186
 2.4220	74.0357
 2.4210	74.1167
 2.4200	74.1315
 2.4190	74.0925
 2.4180	74.1579
 2.4170	74.2068
 2.4160	74.2156
 2.4150	74.4124
 2.4140	74.4248
 2.4130	74.4037
 2.4120	74.4308
 2.4110	74.5258
 2.4100	74.6002
 2.4090	74.6684
 2.4080	74.6594
 2.4070	74.7509
 2.4060	74.7967
 2.4050	74.8212
 2.4040	74.9454
 2.4030	74.9408
 2.4020	74.9735
 2.4010	74.9485
 2.4000	74.9587
 2.3990	75.0069
 2.3980	74.9981
 2.3970	75.1055
 2.3960	75.1123
 2.3950	75.1319
 2.3940	75.1863
 2.3930	75.2065
 2.3920	75.1464
 2.3910	75.1083
 2.3900	75.2282
 2.3890	75.3242
 2.3880	75.3125
 2.3870	75.3304
 2.3860	75.3772
 2.3850	75.4238
 2.3840	75.4279
 2.3830	75.4025
 2.3820	75.4650
 2.3810	75.4384
 2.3800	75.3844
 2.3790	75.3544
 2.3780	75.3947
 2.3770	75.5211
 2.3760	75.5188
 2.3750	75.4936
 2.3740	75.5471
 2.3730	75.5749
 2.3720	75.5960
 2.3710	75.6057
 2.3700	75.5969
 2.3690	75.5739
 2.3680	75.6139
 2.3670	75.6792
 2.3660	75.6878
 2.3650	75.6666
 2.3640	75.6370
 2.3630	75.5971
 2.3620	75.6345
 2.3610	75.6079
 2.3600	75.6033
 2.3590	75.5974
 2.3580	75.5066
 2.3570	75.5942
 2.3560	75.6291
 2.3550	75.5931
 2.3540	75.5313
 2.3530	75.4546
 2.3520	75.4480
 2.3510	75.4983
 2.3500	75.5223
 2.3490	75.4471
 2.3480	75.4136
 2.3470	75.4164
 2.3460	75.4380
 2.3450	75.4645
 2.3440	75.4838
 2.3430	75.5057
 2.3420	75.5630
 2.3410	75.5081
 2.3400	75.4921
 2.3390	75.5532
 2.3380	75.5968
 2.3370	75.5990
 2.3360	75.6072
 2.3350	75.5598
 2.3340	75.5400
 2.3330	75.6121
 2.3320	75.6866
 2.3310	75.7084
 2.3300	75.7707
 2.3290	75.8096
 2.3280	75.8505
 2.3270	75.8714
 2.3260	75.8750
 2.3250	75.8834
 2.3240	75.9928
 2.3230	76.0324
 2.3220	76.0940
 2.3210	76.0525
 2.3200	76.0341
 2.3190	76.1077
 2.3180	76.1663
 2.3170	76.2270
 2.3160	76.2501
 2.3150	76.3535
 2.3140	76.3969
 2.3130	76.3620
 2.3120	76.4251
 2.3110	76.4189
 2.3100	76.4526
 2.3090	76.5288
 2.3080	76.5862
 2.3070	76.5699
 2.3060	76.6699
 2.3050	76.6616
 2.3040	76.7501
 2.3030	76.7004
 2.3020	76.7370
 2.3010	76.7387
 2.3000	76.8275
 2.2990	76.8379
 2.2980	76.8584
 2.2970	76.8969
 2.2960	76.9116
 2.2950	76.9229
 2.2940	76.9183
 2.2930	76.9056
 2.2920	77.0134
 2.2910	77.0085
 2.2900	77.0410
 2.2890	77.0391
 2.2880	77.0289
 2.2870	77.0651
 2.2860	77.0859
 2.2850	77.0627
 2.2840	77.0492
 2.2830	77.0460
 2.2820	77.0779
 2.2810	77.0053
 2.2800	77.0282
 2.2790	77.0593
 2.2780	77.1540
 2.2770	77.0387
 2.2760	77.1382
 2.2750	77.0784
 2.2740	77.0765
 2.2730	77.0965
 2.2720	77.0962
 2.2710	77.1701
 2.2700	77.0679
 2.2690	77.0969
 2.2680	77.1116
 2.2670	77.0935
 2.2660	77.0766
 2.2650	77.1367
 2.2640	77.1173
 2.2630	77.0904
 2.2620	77.0574
 2.2610	77.0387
 2.2600	77.0816
 2.2590	77.0341
 2.2580	77.0611
 2.2570	76.9946
 2.2560	77.0597
 2.2550	76.9233
 2.2540	77.0059
 2.2530	77.0055
 2.2520	77.0282
 2.2510	77.0046
 2.2500	76.9541
 2.2490	76.9698
 2.2480	76.9342
 2.2470	76.9091
 2.2460	77.0612
 2.2450	76.9629
 2.2440	76.9708
 2.2430	76.9261
 2.2420	76.9576
 2.2410	76.9478
 2.2400	77.0085
 2.2390	76.9647
 2.2380	76.9265
 2.2370	76.9048
 2.2360	76.8938
 2.2350	76.8155
 2.2340	76.8574
 2.2330	76.8431
 2.2320	76.8892
 2.2310	76.7647
 2.2300	76.8657
 2.2290	76.8212
 2.2280	76.7713
 2.2270	76.7663
 2.2260	76.7723
 2.2250	76.7022
 2.2240	76.6463
 2.2230	76.5824
 2.2220	76.5823
 2.2210	76.6558
 2.2200	76.5986
 2.2190	76.3619
 2.2180	76.3129
 2.2170	76.2159
 2.2160	76.2246
 2.2150	76.1083
 2.2140	76.0469
 2.2130	75.9427
 2.2120	75.9223
 2.2110	75.7757
 2.2100	75.7830
 2.2090	75.6364
 2.2080	75.6141
 2.2070	75.5066
 2.2060	75.3345
 2.2050	75.3284
 2.2040	75.3348
 2.2030	75.2884
 2.2020	75.2260
 2.2010	75.2554
 2.2000	75.1799
 2.1990	75.1191
 2.1980	75.1648
 2.1970	75.2122
 2.1960	75.2750
 2.1950	75.2672
 2.1940	75.3251
 2.1930	75.3374
 2.1920	75.4658
 2.1910	75.4988
 2.1900	75.5577
 2.1890	75.7900
 2.1880	75.9133
 2.1870	75.9232
 2.1860	76.0820
 2.1850	76.2856
 2.1840	76.4004
 2.1830	76.4851
 2.1820	76.6794
 2.1810	76.7201
 2.1800	76.9379
 2.1790	76.9592
 2.1780	77.0384
 2.1770	77.2462
 2.1760	77.3415
 2.1750	77.4724
 2.1740	77.5952
 2.1730	77.7687
 2.1720	77.7534
 2.1710	77.9046
 2.1700	77.9375
 2.1690	77.9857
 2.1680	78.1060
 2.1670	78.1885
 2.1660	78.2442
 2.1650	78.2973
 2.1640	78.4145
 2.1630	78.4683
 2.1620	78.5397
 2.1610	78.4935
 2.1600	78.5519
 2.1590	78.7024
 2.1580	78.7283
 2.1570	78.7838
 2.1560	78.8614
 2.1550	78.8487
 2.1540	78.8868
 2.1530	78.9642
 2.1520	79.0413
 2.1510	78.9827
 2.1500	79.0228
 2.1490	79.0659
 2.1480	79.0671
 2.1470	79.0884
 2.1460	79.1653
 2.1450	79.1632
 2.1440	79.1823
 2.1430	79.1981
 2.1420	79.2167
 2.1410	79.2568
 2.1400	79.2398
 2.1390	79.2234
 2.1380	79.2443
 2.1370	79.1980
 2.1360	79.1714
 2.1350	79.1680
 2.1340	79.2359
 2.1330	79.1758
 2.1320	79.1173
 2.1310	79.0409
 2.1300	79.0502
 2.1290	79.0926
 2.1280	79.0825
 2.1270	79.0020
 2.1260	79.0060
 2.1250	78.8985
 2.1240	78.8495
 2.1230	78.8459
 2.1220	78.8659
 2.1210	78.7773
 2.1200	78.7363
 2.1190	78.7287
 2.1180	78.6774
 2.1170	78.5933
 2.1160	78.5563
 2.1150	78.5000
 2.1140	78.5924
 2.1130	78.5040
 2.1120	78.4354
 2.1110	78.4436
 2.1100	78.3445
 2.1090	78.3101
 2.1080	78.2901
 2.1070	78.2406
 2.1060	78.2661
 2.1050	78.2354
 2.1040	78.1877
 2.1030	78.0879
 2.1020	78.0570
 2.1010	78.0831
 2.1000	78.0507
 2.0990	78.0052
 2.0980	78.0616
 2.0970	78.1180
 2.0960	78.0923
 2.0950	78.1138
 2.0940	78.1075
 2.0930	78.1075
 2.0920	78.2238
 2.0910	78.2340
 2.0900	78.2125
 2.0890	78.2121
 2.0880	78.2565
 2.0870	78.3005
 2.0860	78.3171
 2.0850	78.2911
 2.0840	78.3091
 2.0830	78.3172
 2.0820	78.3170
 2.0810	78.3246
 2.0800	78.3831
 2.0790	78.4353
 2.0780	78.4156
 2.0770	78.3816
 2.0760	78.3559
 2.0750	78.3869
 2.0740	78.4547
 2.0730	78.4490
 2.0720	78.4168
 2.0710	78.3923
 2.0700	78.4165
 2.0690	78.4851
 2.0680	78.4659
 2.0670	78.4312
 2.0660	78.5286
 2.0650	78.5527
 2.0640	78.5189
 2.0630	78.5747
 2.0620	78.5548
 2.0610	78.5694
 2.0600	78.6212
 2.0590	78.6457
 2.0580	78.6753
 2.0570	78.6603
 2.0560	78.6493
 2.0550	78.6718
 2.0540	78.6534
 2.0530	78.6376
 2.0520	78.6569
 2.0510	78.6517
 2.0500	78.6249
 2.0490	78.6559
 2.0480	78.6716
 2.0470	78.6922
 2.0460	78.6321
 2.0450	78.6039
 2.0440	78.6677
 2.0430	78.6736
 2.0420	78.6488
 2.0410	78.7049
 2.0400	78.8044
 2.0390	78.7936
 2.0380	78.7062
 2.0370	78.7734
 2.0360	78.7894
 2.0350	78.7691
 2.0340	78.6949
 2.0330	78.7089
 2.0320	78.7490
 2.0310	78.7321
 2.0300	78.6975
 2.0290	78.6796
 2.0280	78.6820
 2.0270	78.6354
 2.0260	78.6649
 2.0250	78.6726
 2.0240	78.6842
 2.0230	78.7033
 2.0220	78.6945
 2.0210	78.7367
 2.0200	78.6723
 2.0190	78.6280
 2.0180	78.5846
 2.0170	78.6676
 2.0160	78.6736
 2.0150	78.6112
 2.0140	78.5533
 2.0130	78.6111
 2.0120	78.5584
 2.0110	78.5447
 2.0100	78.5448
 2.0090	78.5552
 2.0080	78.5230
 2.0070	78.5231
 2.0060	78.5436
 2.0050	78.5634
 2.0040	78.5546
 2.0030	78.5402
 2.0020	78.4731
 2.0010	78.5560
 2.0000	78.4879
 1.9990	78.4368
 1.9980	78.4543
 1.9970	78.4060
 1.9960	78.3825
 1.9950	78.3886
 1.9940	78.3572
 1.9930	78.3062
 1.9920	78.2587
 1.9910	78.2934
 1.9900	78.2643
 1.9890	78.2184
 1.9880	78.2344
 1.9870	78.1980
 1.9860	78.1829
 1.9850	78.1680
 1.9840	78.1660
 1.9830	78.1293
 1.9820	78.1112
 1.9810	78.0485
 1.9800	78.0234
 1.9790	78.0079
 1.9780	77.9509
 1.9770	78.0075
 1.9760	78.0438
 1.9750	77.9901
 1.9740	78.0402
 1.9730	77.9474
 1.9720	77.8972
 1.9710	77.9358
 1.9700	77.8903
 1.9690	77.9043
 1.9680	77.8570
 1.9670	77.8189
 1.9660	77.8656
 1.9650	77.8391
 1.9640	77.7485
 1.9630	77.7917
 1.9620	77.8274
 1.9610	77.7598
 1.9600	77.8151
 1.9590	77.7098
 1.9580	77.7387
 1.9570	77.7666
 1.9560	77.7503
 1.9550	77.6789
 1.9540	77.6620
 1.9530	77.6330
 1.9520	77.6156
 1.9510	77.6422
 1.9500	77.6857
 1.9490	77.6396
 1.9480	77.5869
 1.9470	77.6738
 1.9460	77.6467
 1.9450	77.6934
 1.9440	77.5271
 1.9430	77.5447
 1.9420	77.5734
 1.9410	77.6523
 1.9400	77.6659
 1.9390	77.6004
 1.9380	77.5290
 1.9370	77.6241
 1.9360	77.5752
 1.9350	77.6133
 1.9340	77.6236
 1.9330	77.6089
 1.9320	77.6569
 1.9310	77.6300
 1.9300	77.5677
 1.9290	77.6146
 1.9280	77.6107
 1.9270	77.6039
 1.9260	77.6154
 1.9250	77.6236
 1.9240	77.5833
 1.9230	77.6454
 1.9220	77.7329
 1.9210	77.7397
 1.9200	77.6260
 1.9190	77.6798
 1.9180	77.6940
 1.9170	77.7094
 1.9160	77.6730
 1.9150	77.7225
 1.9140	77.8793
 1.9130	77.8675
 1.9120	77.8610
 1.9110	77.8993
 1.9100	77.9146
 1.9090	78.0472
 1.9080	78.0792
 1.9070	78.1011
 1.9060	78.1521
 1.9050	78.1577
 1.9040	78.2775
 1.9030	78.2580
 1.9020	78.3696
 1.9010	78.4963
 1.9000	78.5721
 1.8990	78.5836
 1.8980	78.6845
 1.8970	78.6990
 1.8960	78.7665
 1.8950	78.9441
 1.8940	78.8145
 1.8930	78.9731
 1.8920	78.9876
 1.8910	79.0255
 1.8900	79.0246
 1.8890	79.0881
 1.8880	79.1295
 1.8870	79.2333
 1.8860	79.2769
 1.8850	79.2978
 1.8840	79.3031
 1.8830	79.3141
 1.8820	79.3671
 1.8810	79.3487
 1.8800	79.4211
 1.8790	79.4476
 1.8780	79.4799
 1.8770	79.4811
 1.8760	79.5404
 1.8750	79.5673
 1.8740	79.4774
 1.8730	79.5935
 1.8720	79.5890
 1.8710	79.5388
 1.8700	79.4852
 1.8690	79.6656
 1.8680	79.6898
 1.8670	79.6734
 1.8660	79.6722
 1.8650	79.6906
 1.8640	79.7498
 1.8630	79.7511
 1.8620	79.7263
 1.8610	79.6969
 1.8600	79.7414
 1.8590	79.7494
 1.8580	79.7105
 1.8570	79.7409
 1.8560	79.7316
 1.8550	79.8031
 1.8540	79.7443
 1.8530	79.7784
 1.8520	79.7952
 1.8510	79.7852
 1.8500	79.7765
 1.8490	79.7532
 1.8480	79.7224
 1.8470	79.8180
 1.8460	79.7688
 1.8450	79.8502
 1.8440	79.8376
 1.8430	79.8068
 1.8420	79.8487
 1.8410	79.8026
 1.8400	79.8120
 1.8390	79.8482
 1.8380	79.8066
 1.8370	79.8232
 1.8360	79.8210
 1.8350	79.7854
 1.8340	79.8252
 1.8330	79.8554
 1.8320	79.8183
 1.8310	79.8497
 1.8300	79.8252
 1.8290	79.8333
 1.8280	79.8015
 1.8270	79.8516
 1.8260	79.9053
 1.8250	79.9050
 1.8240	79.8606
 1.8230	79.8747
 1.8220	79.8710
 1.8210	79.8200
 1.8200	79.8506
 1.8190	79.8783
 1.8180	79.8612
 1.8170	79.8668
 1.8160	79.8823
 1.8150	79.9468
 1.8140	79.9037
 1.8130	79.8782
 1.8120	79.9318
 1.8110	79.9565
 1.8100	79.8843
 1.8090	79.8811
 1.8080	79.8501
 1.8070	79.8286
 1.8060	79.8995
 1.8050	79.9154
 1.8040	79.8668
 1.8030	79.9066
 1.8020	79.9481
 1.8010	79.9843
 1.8000	79.9798
 1.7990	79.9470
 1.7980	79.9666
 1.7970	79.9833
 1.7960	79.9418
 1.7950	79.9109
 1.7940	79.9107
 1.7930	79.9447
 1.7920	79.9738
 1.7910	80.0091
 1.7900	79.9524
 1.7890	79.8877
 1.7880	79.8921
 1.7870	79.9118
 1.7860	79.9182
 1.7850	79.8915
 1.7840	79.8387
 1.7830	79.8372
 1.7820	79.8754
 1.7810	79.8679
 1.7800	79.8714
 1.7790	79.8856
 1.7780	79.8659
 1.7770	79.8359
 1.7760	79.8448
 1.7750	79.8367
 1.7740	79.8026
 1.7730	79.8362
 1.7720	79.9051
 1.7710	79.9163
 1.7700	79.8718
 1.7690	79.8785
 1.7680	79.8760
 1.7670	79.8638
 1.7660	79.8614
 1.7650	79.9089
 1.7640	79.9211
 1.7630	79.8529
 1.7620	79.8455
 1.7610	79.8948
 1.7600	79.9053
 1.7590	79.8999
 1.7580	79.9387
 1.7570	79.9114
 1.7560	79.8669
 1.7550	79.8486
 1.7540	79.8582
 1.7530	79.8651
 1.7520	79.8989
 1.7510	79.9345
 1.7500	79.9411
 1.7490	79.9541
 1.7480	79.9231
 1.7470	79.9204
 1.7460	79.9568
 1.7450	79.9589
 1.7440	79.9763
 1.7430	79.9861
 1.7420	79.9731
 1.7410	79.9481
 1.7400	79.9840
 1.7390	79.9841
 1.7380	79.9707
 1.7370	79.9778
 1.7360	79.9958
 1.7350	79.9335
 1.7340	79.9721
 1.7330	80.0456
 1.7320	80.0892
 1.7310	80.0115
 1.7300	80.0123
 1.7290	80.0411
 1.7280	80.0574
 1.7270	80.0565
 1.7260	79.9834
 1.7250	79.9806
 1.7240	79.9709
 1.7230	80.0134
 1.7220	80.0175
 1.7210	80.0003
 1.7200	79.9952
 1.7190	80.0721
 1.7180	80.0299
 1.7170	80.0399
 1.7160	80.0523
 1.7150	80.0342
 1.7140	80.0830
 1.7130	79.9951
 1.7120	80.0790
 1.7110	80.0219
 1.7100	80.0278
 1.7090	79.9976
 1.7080	80.0604
 1.7070	80.0820
 1.7060	79.9943
 1.7050	80.0170
 1.7040	80.0369
 1.7030	80.0008
 1.7020	79.9808
 1.7010	79.9784
 1.7000	79.9984
 1.6990	80.0131
 1.6980	80.0335
 1.6970	80.0210
 1.6960	80.0510
 1.6950	80.0401
 1.6940	79.9544
 1.6930	80.0258
 1.6920	80.0152
 1.6910	80.0035
 1.6900	79.9935
 1.6890	79.9587
 1.6880	79.9953
 1.6870	79.9369
 1.6860	80.0244
 1.6850	79.9384
 1.6840	80.0441
 1.6830	80.0656
 1.6820	80.0716
 1.6810	79.9976
 1.6800	80.0311
 1.6790	79.9587
 1.6780	79.9896
 1.6770	79.9940
 1.6760	79.9901
 1.6750	79.9941
 1.6740	79.9757
 1.6730	79.9256
 1.6720	80.0158
 1.6710	79.9805
 1.6700	79.9921
 1.6690	79.9312
 1.6680	79.8505
 1.6670	79.9733
 1.6660	79.9716
 1.6650	80.0413
 1.6640	79.9604
 1.6630	79.9189
 1.6620	79.9543
 1.6610	79.9607
 1.6600	79.9609
 1.6590	79.9983
 1.6580	80.0651
 1.6570	80.0325
 1.6560	80.0546
 1.6550	80.0605
 1.6540	79.9607
 1.6530	79.9804
 1.6520	80.0024
 1.6510	79.9201
 1.6500	80.0320
 1.6490	80.0038
 1.6480	80.0211
 1.6470	80.0051
 1.6460	79.9837
 1.6450	79.9556
 1.6440	79.9115
 1.6430	80.0658
 1.6420	79.9851
 1.6410	79.9289
 1.6400	80.0835
 1.6390	80.0162
 1.6380	79.9355
 1.6370	79.9318
 1.6360	80.0090
 1.6350	79.9633
 1.6340	79.9800
 1.6330	79.9706
 1.6320	79.9122
 1.6310	79.9880
 1.6300	79.9806
 1.6290	79.9380
 1.6280	79.9591
 1.6270	80.0604
 1.6260	79.9504
 1.6250	79.9542
 1.6240	79.9811
 1.6230	79.9660
 1.6220	80.0225
 1.6210	79.9591
 1.6200	79.9723
 1.6190	80.0212
 1.6180	80.0138
 1.6170	79.9692
 1.6160	79.9999
 1.6150	79.9693
 1.6140	79.9985
 1.6130	79.9592
 1.6120	80.0638
 1.6110	79.9138
 1.6100	79.9677
 1.6090	80.0028
 1.6080	80.0040
 1.6070	79.9690
 1.6060	80.0115
 1.6050	80.0064
 1.6040	79.9496
 1.6030	80.0814
 1.6020	80.0651
 1.6010	79.9319
 1.6000	80.0023
 1.5990	79.9638
 1.5980	79.9875
 1.5970	79.9285
 1.5960	79.9844
 1.5950	79.9345
 1.5940	79.9619
 1.5930	79.9498
 1.5920	79.9999
 1.5910	80.0119
 1.5900	79.9952
 1.5890	79.9769
 1.5880	80.0316
 1.5870	79.9542
 1.5860	79.9574
 1.5850	79.9251
 1.5840	79.9341
 1.5830	79.9239
 1.5820	79.9376
 1.5810	79.9057
 1.5800	80.0017
 1.5790	80.0387
 1.5780	79.9537
 1.5770	79.9817
 1.5760	79.9912
 1.5750	80.0115
 1.5740	79.9581
 1.5730	79.9533
 1.5720	79.9136
 1.5710	79.9065
 1.5700	79.9272
 1.5690	79.8727
 1.5680	79.8806
 1.5670	79.8574
 1.5660	79.8768
 1.5650	79.9428
 1.5640	79.8920
 1.5630	79.9052
 1.5620	79.9095
 1.5610	79.9358
 1.5600	79.9121
 1.5590	79.8416
 1.5580	79.8749
 1.5570	79.9017
 1.5560	79.8693
 1.5550	79.9195
 1.5540	79.9221
 1.5530	79.8288
 1.5520	79.8498
 1.5510	79.8048
 1.5500	79.8798
 1.5490	79.8485
 1.5480	79.8438
 1.5470	79.8386
 1.5460	79.8838
 1.5450	79.8801
 1.5440	79.8890
 1.5430	79.9004
 1.5420	79.8237
 1.5410	79.8584
 1.5400	79.8448
 1.5390	79.7855
 1.5380	79.7420
 1.5370	79.7982
 1.5360	79.8150
 1.5350	79.8061
 1.5340	79.8688
 1.5330	79.7849
 1.5320	79.7858
 1.5310	79.8276
 1.5300	79.8538
 1.5290	79.8325
 1.5280	79.8141
 1.5270	79.7883
 1.5260	79.7850
 1.5250	79.8085
 1.5240	79.8447
 1.5230	79.8075
 1.5220	79.7684
 1.5210	79.7174
 1.5200	79.7164
 1.5190	79.7142
 1.5180	79.7408
 1.5170	79.7603
 1.5160	79.7461
 1.5150	79.6950
 1.5140	79.7316
 1.5130	79.7434
 1.5120	79.7078
 1.5110	79.7025
 1.5100	79.6619
 1.5090	79.6990
 1.5080	79.7487
 1.5070	79.7390
 1.5060	79.7056
 1.5050	79.6534
 1.5040	79.6493
 1.5030	79.6526
 1.5020	79.6816
 1.5010	79.6983
 1.5000	79.6610
 1.4990	79.5988
 1.4980	79.5533
 1.4970	79.6037
 1.4960	79.6643
 1.4950	79.5989
 1.4940	79.5707
 1.4930	79.6053
 1.4920	79.5969
 1.4910	79.6192
 1.4900	79.5984
 1.4890	79.6134
 1.4880	79.6571
 1.4870	79.6128
 1.4860	79.6040
 1.4850	79.6138
 1.4840	79.5879
 1.4830	79.5722
 1.4820	79.5572
 1.4810	79.5539
 1.4800	79.5611
 1.4790	79.5331
 1.4780	79.5003
 1.4770	79.4801
 1.4760	79.4552
 1.4750	79.4797
 1.4740	79.4780
 1.4730	79.4832
 1.4720	79.5265
 1.4710	79.5155
 1.4700	79.4891
 1.4690	79.5111
 1.4680	79.4855
 1.4670	79.5068
 1.4660	79.4571
 1.4650	79.4359
 1.4640	79.4060
 1.4630	79.4534
 1.4620	79.4845
 1.4610	79.4731
 1.4600	79.4317
 1.4590	79.4357
 1.4580	79.4275
 1.4570	79.3734
 1.4560	79.4625
 1.4550	79.4752
 1.4540	79.3734
 1.4530	79.3675
 1.4520	79.3875
 1.4510	79.4266
 1.4500	79.3751
 1.4490	79.3619
 1.4480	79.3402
 1.4470	79.3939
 1.4460	79.3397
 1.4450	79.3593
 1.4440	79.3269
 1.4430	79.2872
 1.4420	79.3360
 1.4410	79.3444
 1.4400	79.2947
 1.4390	79.3055
 1.4380	79.2756
 1.4370	79.2913
 1.4360	79.2549
 1.4350	79.1861
 1.4340	79.2427
 1.4330	79.2086
 1.4320	79.1384
 1.4310	79.1334
 1.4300	79.0250
 1.4290	79.0310
 1.4280	79.0554
 1.4270	79.0243
 1.4260	78.9250
 1.4250	78.9181
 1.4240	78.7949
 1.4230	78.6643
 1.4220	78.5996
 1.4210	78.5209
 1.4200	78.4059
 1.4190	78.2403
 1.4180	78.1788
 1.4170	77.9866
 1.4160	77.8226
 1.4150	77.6722
 1.4140	77.6046
 1.4130	77.6776
 1.4120	77.6102
 1.4110	77.6779
 1.4100	77.7168
 1.4090	77.7398
 1.4080	77.7662
 1.4070	77.8369
 1.4060	77.9303
 1.4050	77.9238
 1.4040	78.0031
 1.4030	78.1020
 1.4020	78.1161
 1.4010	78.2763
 1.4000	78.2617
 1.3990	78.3711
 1.3980	78.5241
 1.3970	78.6604
 1.3960	78.7855
 1.3950	78.8459
 1.3940	78.9420
 1.3930	79.0595
 1.3920	79.1894
 1.3910	79.1921
 1.3900	79.3228
 1.3890	79.3351
 1.3880	79.3895
 1.3870	79.4087
 1.3860	79.3713
 1.3850	79.4672
 1.3840	79.4259
 1.3830	79.4874
 1.3820	79.4446
 1.3810	79.5193
 1.3800	79.4539
 1.3790	79.5192
 1.3780	79.4673
 1.3770	79.5524
 1.3760	79.3803
 1.3750	79.4731
 1.3740	79.4646
 1.3730	79.5013
 1.3720	79.4984
 1.3710	79.4479
 1.3700	79.4197
 1.3690	79.5067
 1.3680	79.4774
 1.3670	79.4673
 1.3660	79.5122
 1.3650	79.4785
 1.3640	79.5064
 1.3630	79.5011
 1.3620	79.3774
 1.3610	79.4844
 1.3600	79.4785
 1.3590	79.4868
 1.3580	79.5034
 1.3570	79.5311
 1.3560	79.4290
 1.3550	79.3772
 1.3540	79.4193
 1.3530	79.4915
 1.3520	79.4113
 1.3510	79.4035
 1.3500	79.3600
 1.3490	79.3399
 1.3480	79.3740
 1.3470	79.3879
 1.3460	79.3516
 1.3450	79.4181
 1.3440	79.4552
 1.3430	79.4219
 1.3420	79.2892
 1.3410	79.3275
 1.3400	79.3779
 1.3390	79.3518
 1.3380	79.3884
 1.3370	79.3265
 1.3360	79.3069
 1.3350	79.3227
 1.3340	79.2626
 1.3330	79.3355
 1.3320	79.3277
 1.3310	79.3808
 1.3300	79.3592
 1.3290	79.3388
 1.3280	79.3529
 1.3270	79.2905
 1.3260	79.2628
 1.3250	79.3599
 1.3240	79.3507
 1.3230	79.1866
 1.3220	79.2485
 1.3210	79.2092
 1.3200	79.2071
 1.3190	79.3662
 1.3180	79.2549
 1.3170	79.2457
 1.3160	79.3031
 1.3150	79.2287
 1.3140	79.2871
 1.3130	79.2256
 1.3120	79.2179
 1.3110	79.2684
 1.3100	79.2539
 1.3090	79.1684
 1.3080	79.2458
 1.3070	79.2433
 1.3060	79.1701
 1.3050	79.2449
 1.3040	79.2308
 1.3030	79.2040
 1.3020	79.2305
 1.3010	79.2061
 1.3000	79.2147
 1.2990	79.2301
 1.2980	79.1639
 1.2970	79.1817
 1.2960	79.1179
 1.2950	79.1905
 1.2940	79.2100
 1.2930	79.1875
 1.2920	79.0787
 1.2910	79.1604
 1.2900	79.2505
 1.2890	79.2393
 1.2880	79.2060
 1.2870	79.1855
 1.2860	79.1617
 1.2850	79.1682
 1.2840	79.1370
 1.2830	79.1086
 1.2820	79.0665
 1.2810	79.1383
 1.2800	79.0600
 1.2790	79.1269
 1.2780	79.1522
 1.2770	79.1669
 1.2760	79.1330
 1.2750	79.1002
 1.2740	79.0291
 1.2730	79.1023
 1.2720	79.1074
 1.2710	79.1572
 1.2700	79.1248
 1.2690	79.0826
 1.2680	79.1180
 1.2670	79.0580
 1.2660	79.0558
 1.2650	79.0895
 1.2640	79.0596
 1.2630	79.0361
 1.2620	79.0424
 1.2610	79.0630
 1.2600	79.0535
 1.2590	79.0641
 1.2580	79.0593
 1.2570	79.0061
 1.2560	78.9281
 1.2550	78.9812
 1.2540	79.0188
 1.2530	78.9959
 1.2520	79.0047
 1.2510	79.0236
 1.2500	78.9534
 1.2490	78.9645
 1.2480	78.9796
 1.2470	78.9576
 1.2460	78.9912
 1.2450	78.9411
 1.2440	78.9035
 1.2430	78.9826
 1.2420	78.9944
 1.2410	78.9437
 1.2400	78.9399
 1.2390	78.9260
 1.2380	78.8965
 1.2370	78.9139
 1.2360	78.9100
 1.2350	78.9205
 1.2340	78.9009
 1.2330	78.8712
 1.2320	78.8337
 1.2310	78.8499
 1.2300	78.8956
 1.2290	78.8749
 1.2280	78.8796
 1.2270	78.9020
 1.2260	78.8792
 1.2250	78.8608
 1.2240	78.8274
 1.2230	78.8239
 1.2220	78.8221
 1.2210	78.8159
 1.2200	78.8134
 1.2190	78.7990
 1.2180	78.8164
 1.2170	78.8237
 1.2160	78.8325
 1.2150	78.7736
 1.2140	78.7655
 1.2130	78.8342
 1.2120	78.7398
 1.2110	78.6853
 1.2100	78.7639
 1.2090	78.7243
 1.2080	78.7243
 1.2070	78.7380
 1.2060	78.7281
 1.2050	78.7644
 1.2040	78.7264
 1.2030	78.7176
 1.2020	78.6886
 1.2010	78.7180
 1.2000	78.7494
 1.1990	78.6911
 1.1980	78.6969
 1.1970	78.7244
 1.1960	78.7050
 1.1950	78.6468
 1.1940	78.6476
 1.1930	78.6565
 1.1920	78.6825
 1.1910	78.6519
 1.1900	78.6507
 1.1890	78.6405
 1.1880	78.5918
 1.1870	78.6416
 1.1860	78.6376
 1.1850	78.6340
 1.1840	78.6361
 1.1830	78.6173
 1.1820	78.6214
 1.1810	78.6422
 1.1800	78.6351
 1.1790	78.6441
 1.1780	78.6309
 1.1770	78.6094
 1.1760	78.6064
 1.1750	78.5754
 1.1740	78.6110
 1.1730	78.5622
 1.1720	78.5861
 1.1710	78.5766
 1.1700	78.5725
 1.1690	78.5292
 1.1680	78.5633
 1.1670	78.5790
 1.1660	78.6348
 1.1650	78.5681
 1.1640	78.5417
 1.1630	78.5468
 1.1620	78.5347
 1.1610	78.5350
 1.1600	78.5452
 1.1590	78.5405
 1.1580	78.5322
 1.1570	78.5231
 1.1560	78.5557
 1.1550	78.4926
 1.1540	78.5418
 1.1530	78.4831
 1.1520	78.5446
 1.1510	78.4662
 1.1500	78.5152
 1.1490	78.4520
 1.1480	78.4795
 1.1470	78.5029
 1.1460	78.4079
 1.1450	78.3958
 1.1440	78.4475
 1.1430	78.3657
 1.1420	78.4662
 1.1410	78.4172
 1.1400	78.4564
 1.1390	78.4200
 1.1380	78.4116
 1.1370	78.4541
 1.1360	78.4605
 1.1350	78.3904
 1.1340	78.3840
 1.1330	78.3997
 1.1320	78.4614
 1.1310	78.4068
 1.1300	78.3182
 1.1290	78.3631
 1.1280	78.3821
 1.1270	78.3896
 1.1260	78.4422
 1.1250	78.3838
 1.1240	78.3951
 1.1230	78.3588
 1.1220	78.3870
 1.1210	78.3244
 1.1200	78.4286
 1.1190	78.3301
 1.1180	78.2862
 1.1170	78.2867
 1.1160	78.3142
 1.1150	78.3582
 1.1140	78.3855
 1.1130	78.2634
 1.1120	78.2417
 1.1110	78.2733
 1.1100	78.2203
 1.1090	78.2323
 1.1080	78.2459
 1.1070	78.2927
 1.1060	78.3021
 1.1050	78.2232
 1.1040	78.2695
 1.1030	78.1788
 1.1020	78.1944
 1.1010	78.2292
 1.1000	78.2537
 1.0990	78.2554
 1.0980	78.1211
 1.0970	78.1990
 1.0960	78.2204
 1.0950	78.1888
 1.0940	78.2104
 1.0930	78.2313
 1.0920	78.2497
 1.0910	78.2309
 1.0900	78.2075
 1.0890	78.1300
 1.0880	78.1907
 1.0870	78.1411
 1.0860	78.0615
 1.0850	78.2454
 1.0840	78.1804
 1.0830	78.1118
 1.0820	78.1883
 1.0810	78.1394
 1.0800	78.1145
 1.0790	78.0721
 1.0780	78.0679
 1.0770	78.0593
 1.0760	78.1464
 1.0750	78.0641
 1.0740	78.2112
 1.0730	78.0625
 1.0720	78.0847
 1.0710	78.0374
 1.0700	78.1379
 1.0690	78.0245
 1.0680	78.0450
 1.0670	77.9713
 1.0660	78.1059
 1.0650	78.1090
 1.0640	78.1050
 1.0630	77.9827
 1.0620	78.0180
 1.0610	77.9865
 1.0600	78.0263
 1.0590	77.9582
 1.0580	77.8919
 1.0570	77.8936
 1.0560	78.0663
 1.0550	78.0213
 1.0540	77.9707
 1.0530	78.0172
 1.0520	78.0032
 1.0510	77.9758
 1.0500	78.0193
 1.0490	77.9348
 1.0480	77.9426
 1.0470	77.9232
 1.0460	77.8943
 1.0450	77.8412
 1.0440	77.9313
 1.0430	77.9625
 1.0420	77.9195
 1.0410	77.8606
 1.0400	77.9142
 1.0390	77.9028
 1.0380	77.8514
 1.0370	77.8841
 1.0360	77.9064
 1.0350	77.8629
 1.0340	77.8209
 1.0330	77.7787
 1.0320	77.9030
 1.0310	77.8951
 1.0300	77.7542
 1.0290	77.7534
 1.0280	77.8762
 1.0270	77.8307
 1.0260	77.7686
 1.0250	77.8577
 1.0240	77.9052
 1.0230	77.8079
 1.0220	77.7997
 1.0210	77.7624
 1.0200	77.8209
 1.0190	77.8191
 1.0180	77.7312
 1.0170	77.7551
 1.0160	77.8303
 1.0150	77.7518
 1.0140	77.7508
 1.0130	77.7217
 1.0120	77.6876
 1.0110	77.7221
 1.0100	77.7335
 1.0090	77.6835
 1.0080	77.6648
 1.0070	77.7487
 1.0060	77.7358
 1.0050	77.6561
 1.0040	77.6092
 1.0030	77.6525
 1.0020	77.6805
 1.0010	77.6045
 1.0000	77.6385
 0.9990	77.7203
 0.9980	77.7129
 0.9970	77.6075
 0.9960	77.6591
 0.9950	77.6011
 0.9940	77.5781
 0.9930	77.5815
 0.9920	77.6210
 0.9910	77.5156
 0.9900	77.6102
 0.9890	77.5468
 0.9880	77.6010
 0.9870	77.6128
 0.9860	77.5862
 0.9850	77.6122
 0.9840	77.6218
 0.9830	77.5512
 0.9820	77.5126
 0.9810	77.5307
 0.9800	77.5703
 0.9790	77.5234
 0.9780	77.5035
 0.9770	77.4725
 0.9760	77.4977
 0.9750	77.4755
 0.9740	77.5156
 0.9730	77.4078
 0.9720	77.3572
 0.9710	77.3734
 0.9700	77.4017
 0.9690	77.4003
 0.9680	77.4465
 0.9670	77.4259
 0.9660	77.4274
 0.9650	77.3784
 0.9640	77.2828
 0.9630	77.2980
 0.9620	77.3236
 0.9610	77.3125
 0.9600	77.3473
 0.9590	77.3162
 0.9580	77.3273
 0.9570	77.3477
 0.9560	77.3781
 0.9550	77.3532
 0.9540	77.3128
 0.9530	77.3033
 0.9520	77.2709
 0.9510	77.2196
 0.9500	77.2374
 0.9490	77.2682
 0.9480	77.2851
 0.9470	77.3080
 0.9460	77.3020
 0.9450	77.2047
 0.9440	77.2291
 0.9430	77.2791
 0.9420	77.2905
 0.9410	77.2748
 0.9400	77.1813
 0.9390	77.1762
 0.9380	77.1869
 0.9370	77.1722
 0.9360	77.1689
 0.9350	77.1293
 0.9340	77.1147
 0.9330	77.1193
 0.9320	77.1531
 0.9310	77.1449
 0.9300	77.0796
 0.9290	77.1013
 0.9280	77.1072
 0.9270	77.0493
 0.9260	77.0853
 0.9250	77.0946
 0.9240	77.1440
 0.9230	77.1315
 0.9220	77.0316
 0.9210	77.0271
 0.9200	76.9910
 0.9190	76.9836
 0.9180	77.0033
 0.9170	76.9719
 0.9160	76.9938
 0.9150	77.0036
 0.9140	76.9530
 0.9130	76.9865
 0.9120	77.0065
 0.9110	76.9370
 0.9100	76.8963
 0.9090	76.8893
 0.9080	76.9066
 0.9070	76.9803
 0.9060	76.9196
 0.9050	76.8438
 0.9040	76.8443
 0.9030	76.9188
 0.9020	76.9114
 0.9010	76.9025
 0.9000	76.9080
 0.8990	76.8774
 0.8980	76.7945
 0.8970	76.8663
 0.8960	76.8771
 0.8950	76.8409
 0.8940	76.8668
 0.8930	76.8675
 0.8920	76.7989
 0.8910	76.7865
 0.8900	76.7798
 0.8890	76.8055
 0.8880	76.8346
 0.8870	76.8189
 0.8860	76.8063
 0.8850	76.8748
 0.8840	76.7969
 0.8830	76.7799
 0.8820	76.7690
 0.8810	76.8283
 0.8800	76.7454
 0.8790	76.7466
 0.8780	76.7650
 0.8770	76.7574
 0.8760	76.7753
 0.8750	76.7976
 0.8740	76.7160
 0.8730	76.7535
 0.8720	76.6987
 0.8710	76.7343
 0.8700	76.7354
 0.8690	76.7346
 0.8680	76.7935
 0.8670	76.7417
 0.8660	76.7074
 0.8650	76.6765
 0.8640	76.7156
 0.8630	76.7674
 0.8620	76.6906
 0.8610	76.6858
 0.8600	76.8068
 0.8590	76.8830
 0.8580	76.8451
 0.8570	76.8045
 0.8560	76.8287
 0.8550	76.8412
 0.8540	76.8397
 0.8530	76.8072
 0.8520	76.8412
 0.8510	76.7711
 0.8500	76.7775
 0.8490	76.7607
 0.8480	76.7131
 0.8470	76.7815
 0.8460	76.7875
 0.8450	76.7892
 0.8440	76.8473
 0.8430	76.7658
 0.8420	76.7657
 0.8410	76.8060
 0.8400	76.8186
 0.8390	76.8067
 0.8380	76.7895
 0.8370	76.7742
 0.8360	76.7862
 0.8350	76.7412
 0.8340	76.7814
 0.8330	76.7615
 0.8320	76.7416
 0.8310	76.7617
 0.8300	76.7484
 0.8290	76.7544
 0.8280	76.7839
 0.8270	76.7723
 0.8260	76.7287
 0.8250	76.7365
 0.8240	76.7474
 0.8230	76.7239
 0.8220	76.7425
 0.8210	76.7491
 0.8200	76.7220
 0.8190	76.6856
 0.8180	76.7499
 0.8170	76.7480
 0.8160	76.6706
 0.8150	76.7472
 0.8140	76.6966
 0.8130	76.7048
 0.8120	76.6633
 0.8110	76.7137
 0.8100	76.7287
 0.8090	76.7097
 0.8080	76.6879
 0.8070	76.7184
 0.8060	76.6998
 0.8050	76.7379
 0.8040	76.6777
 0.8030	76.7270
 0.8020	76.7473
 0.8010	76.7284
 0.8000	76.7244
 0.7990	76.6962
 0.7980	76.6542
 0.7970	76.6574
 0.7960	76.5987
 0.7950	76.5990
 0.7940	76.6029
 0.7930	76.5561
 0.7920	76.5988
 0.7910	76.5940
 0.7900	76.6120
 0.7890	76.6202
 0.7880	76.5740
 0.7870	76.5348
 0.7860	76.6088
 0.7850	76.5583
 0.7840	76.5979
 0.7830	76.5342
 0.7820	76.5326
 0.7810	76.5027
 0.7800	76.5059
 0.7790	76.5194
 0.7780	76.5546
 0.7770	76.4945
 0.7760	76.4919
 0.7750	76.4864
 0.7740	76.4916
 0.7730	76.4952
 0.7720	76.4663
 0.7710	76.4901
 0.7700	76.4747
 0.7690	76.4738
 0.7680	76.4567
 0.7670	76.4671
 0.7660	76.4243
 0.7650	76.4888
 0.7640	76.4458
 0.7630	76.4317
 0.7620	76.4488
 0.7610	76.4224
 0.7600	76.4157
 0.7590	76.4280
 0.7580	76.4010
 0.7570	76.4115
 0.7560	76.4021
 0.7550	76.3811
 0.7540	76.3992
 0.7530	76.3685
 0.7520	76.3549
 0.7510	76.3598
 0.7500	76.3741
 0.7490	76.3562
 0.7480	76.3564
 0.7470	76.3333
 0.7460	76.3421
 0.7450	76.3125
 0.7440	76.2901
 0.7430	76.3002
 0.7420	76.3240
 0.7410	76.3067
 0.7400	76.3075
 0.7390	76.3127
 0.7380	76.2616
 0.7370	76.2837
 0.7360	76.2141
 0.7350	76.2490
 0.7340	76.2261
 0.7330	76.2110
 0.7320	76.2402
 0.7310	76.2342
 0.7300	76.2044
 0.7290	76.1844
 0.7280	76.1932
 0.7270	76.1610
 0.7260	76.1986
 0.7250	76.1841
 0.7240	76.1637
 0.7230	76.1410
 0.7220	76.1261
 0.7210	76.1182
 0.7200	76.1117
 0.7190	76.1181
 0.7180	76.0966
 0.7170	76.1084
 0.7160	76.0938
 0.7150	76.0642
 0.7140	76.0725
 0.7130	76.0614
 0.7120	76.0282
 0.7110	76.0247
 0.7100	76.0113
 0.7090	76.0212
 0.7080	75.9991
 0.7070	75.9849
 0.7060	75.9738
 0.7050	75.9484
 0.7040	75.9616
 0.7030	75.9333
 0.7020	75.9163
 0.7010	75.9063
 0.7000	75.9106
 0.6990	75.9139
 0.6980	75.9050
 0.6970	75.9014
 0.6960	75.8662
 0.6950	75.8542
 0.6940	75.8539
 0.6930	75.8441
 0.6920	75.8357
 0.6910	75.8310
 0.6900	75.8211
 0.6890	75.8098
 0.6880	75.8033
 0.6870	75.8084
 0.6860	75.7939
 0.6850	75.7773
 0.6840	75.7505
 0.6830	75.7354
 0.6820	75.7432
 0.6810	75.7365
 0.6800	75.7115
 0.6790	75.6994
 0.6780	75.6925
 0.6770	75.6925
 0.6760	75.6923
 0.6750	75.6824
 0.6740	75.6675
 0.6730	75.6621
 0.6720	75.6476
 0.6710	75.6366
 0.6700	75.6326
 0.6690	75.6184
 0.6680	75.6141
 0.6670	75.6090
 0.6660	75.5985
 0.6650	75.5983
 0.6640	75.5933
 0.6630	75.5815
 0.6620	75.5593
 0.6610	75.5502
 0.6600	75.5491
 0.6590	75.5513
 0.6580	75.5344
 0.6570	75.5163
 0.6560	75.5109
 0.6550	75.5246
 0.6540	75.5262
 0.6530	75.5170
 0.6520	75.5020
 0.6510	75.4889
 0.6500	75.4905
 0.6490	75.4866
 0.6480	75.4817
 0.6470	75.4688
 0.6460	75.4507
 0.6450	75.4607
 0.6440	75.4474
 0.6430	75.4408
 0.6420	75.4428
 0.6410	75.4196
 0.6400	75.4173
 0.6390	75.4146
 0.6380	75.3994
 0.6370	75.4121
 0.6360	75.4175
 0.6350	75.3895
 0.6340	75.3820
 0.6330	75.3765
 0.6320	75.3624
 0.6310	75.3648
 0.6300	75.3622
 0.6290	75.3466
 0.6280	75.3409
 0.6270	75.3344
 0.6260	75.3147
 0.6250	75.3084
 0.6240	75.2976
 0.6230	75.2687
 0.6220	75.2591
 0.6210	75.2638
 0.6200	75.2637
 0.6190	75.2506
 0.6180	75.2296
 0.6170	75.2320
 0.6160	75.2188
 0.6150	75.1869
 0.6140	75.1792
 0.6130	75.1676
 0.6120	75.1526
 0.6110	75.1306
 0.6100	75.1092
 0.6090	75.0996
 0.6080	75.0744
 0.6070	75.0522
 0.6060	75.0295
 0.6050	74.9954
 0.6040	74.9733
 0.6030	74.9518
 0.6020	74.9254
 0.6010	74.9136
 0.6000	74.8865
 0.5990	74.8633
 0.5980	74.8410
 0.5970	74.8085
 0.5960	74.7818
 0.5950	74.7702
 0.5940	74.7225
 0.5930	74.6775
 0.5920	74.6244
 0.5910	74.5811
 0.5900	74.5171
 0.5890	74.4613
 0.5880	74.4099
 0.5870	74.3723
 0.5860	74.3156
 0.5850	74.2512
 0.5840	74.1873
 0.5830	74.1141
 0.5820	74.0322
 0.5810	73.9676
 0.5800	73.8957
 0.5790	73.8212
 0.5780	73.7453
 0.5770	73.6628
 0.5760	73.5685
 0.5750	73.4666
 0.5740	73.3975
 0.5730	73.3090
 0.5720	73.2164
 0.5710	73.1329
 0.5700	73.0491
 0.5690	72.9550
 0.5680	72.8244
 0.5670	72.7459
 0.5660	72.6365
 0.5650	72.5344
 0.5640	72.4237
 0.5630	72.3176
 0.5620	72.2077
 0.5610	72.1015
 0.5600	71.9976
 0.5590	71.9066
 0.5580	71.7982
 0.5570	71.7059
 0.5560	71.6047
 0.5550	71.4830
 0.5540	71.3908
 0.5530	71.2815
 0.5520	71.1699
 0.5510	71.0730
 0.5500	70.9760
 0.5490	70.8788
 0.5480	70.7853
 0.5470	70.6817
 0.5460	70.5882
 0.5450	70.5093
 0.5440	70.4181
 0.5430	70.3166
 0.5420	70.2433
 0.5410	70.1613
 0.5400	70.0606
 0.5390	69.9779
 0.5380	69.8817
 0.5370	69.8087
 0.5360	69.7142
 0.5350	69.6304
 0.5340	69.5534
 0.5330	69.4657
 0.5320	69.3991
 0.5310	69.3305
 0.5300	69.2629
 0.5290	69.1693
 0.5280	69.1092
 0.5270	69.0333
 0.5260	68.9541
 0.5250	68.8700
 0.5240	68.8039
 0.5230	68.7373
 0.5220	68.6731
 0.5210	68.5963
 0.5200	68.5218
 0.5190	68.4596
 0.5180	68.3949
 0.5170	68.3183
 0.5160	68.2455
 0.5150	68.1852
 0.5140	68.1058
 0.5130	68.0541
 0.5120	67.9833
 0.5110	67.9079
 0.5100	67.8370
 0.5090	67.7578
 0.5080	67.6984
 0.5070	67.6305
 0.5060	67.5591
 0.5050	67.4968
 0.5040	67.4082
 0.5030	67.3252
 0.5020	67.2761
 0.5010	67.2039
 0.5000	67.1200
 0.4990	67.0372
 0.4980	66.9779
 0.4970	66.8995
 0.4960	66.8210
 0.4950	66.7831
 0.4940	66.6859
 0.4930	66.6155
 0.4920	66.5405
 0.4910	66.4669
 0.4900	66.4044
 0.4890	66.3152
 0.4880	66.2581
 0.4870	66.2100
 0.4860	66.0881
 0.4850	66.0439
 0.4840	65.9936
 0.4830	65.9075
 0.4820	65.8553
 0.4810	65.7923
 0.4800	65.7129
 0.4790	65.6510
 0.4780	65.5962
 0.4770	65.5511
 0.4760	65.4910
 0.4750	65.4246
 0.4740	65.3487
 0.4730	65.2879
 0.4720	65.2312
 0.4710	65.1719
 0.4700	65.1209
 0.4690	65.0516
 0.4680	64.9884
 0.4670	64.9318
 0.4660	64.8709
 0.4650	64.8148
 0.4640	64.7331
 0.4630	64.6592
 0.4620	64.5973
 0.4610	64.5255
 0.4600	64.4559
 0.4590	64.3911
 0.4580	64.3077
 0.4570	64.2503
 0.4560	64.1724
 0.4550	64.0825
 0.4540	64.0069
 0.4530	63.9147
 0.4520	63.8183
 0.4510	63.7268
 0.4500	63.6269
 0.4490	63.5232
 0.4480	63.4307
 0.4470	63.3366
 0.4460	63.2197
 0.4450	63.1118
 0.4440	63.0069
 0.4430	62.8892
 0.4420	62.7414
 0.4410	62.6152
 0.4400	62.5093
 0.4390	62.3680
 0.4380	62.2483
 0.4370	62.1082
 0.4360	61.9724
 0.4350	61.8195
 0.4340	61.6975
 0.4330	61.5561
 0.4320	61.4167
 0.4310	61.2774
 0.4300	61.1518
 0.4290	61.0204
 0.4280	60.9051
 0.4270	60.7695
 0.4260	60.6195
 0.4250	60.4864
 0.4240	60.3535
 0.4230	60.2133
 0.4220	60.0656
 0.4210	59.9567
 0.4200	59.8170
 0.4190	59.6775
 0.4180	59.5512
 0.4170	59.4174
 0.4160	59.3183
 0.4150	59.1904
 0.4140	59.0507
 0.4130	58.9055
 0.4120	58.7869
 0.4110	58.6621
 0.4100	58.5413
 0.4090	58.4083
 0.4080	58.2704
 0.4070	58.1371
 0.4060	58.0069
 0.4050	57.8696
 0.4040	57.7206
 0.4030	57.5762
 0.4020	57.4423
 0.4010	57.2862
 0.4000	57.1573
