Name: Jarosite KFe_3^3+(SO_4)_2(OH)_6
Type: Mineral
Class: Sulfate
Subclass: None
Particle Size: Medium
Sample No.: SO-7A
Owner: JPL
Wavelength Range: VSWIR
Origin: Mexico, Chihuahua.
Collection Date: N/A
Description: Particle size was 45-125um. Collected by:  Ward's Original ASTER Spectral Library name was jpl.perkin.mineral.sulfate.none.medium.so07a.spectrum.txt
Measurement: Hemispherical reflectance
First Column: X
Second Column: Y
X Units: Wavelength (micrometers)
Y Units:Reflectance (percent)
First X Value:  2.5000
Last X Value:  0.4000
Number of X Values: 2101
Additional Information: mineral.sulfate.none.medium.vswir.so-7a.jpl.perkin.ancillary.txt

 2.5000	46.0529
 2.4990	45.7238
 2.4980	46.0818
 2.4970	46.0485
 2.4960	45.7869
 2.4950	46.2564
 2.4940	46.0816
 2.4930	46.3477
 2.4920	46.2749
 2.4910	46.4332
 2.4900	46.3631
 2.4890	46.3964
 2.4880	46.4739
 2.4870	46.6139
 2.4860	46.5870
 2.4850	46.4897
 2.4840	46.4895
 2.4830	46.6148
 2.4820	46.5946
 2.4810	46.7739
 2.4800	46.6339
 2.4790	46.7211
 2.4780	46.5322
 2.4770	46.6783
 2.4760	46.4988
 2.4750	46.6612
 2.4740	46.4602
 2.4730	46.6424
 2.4720	46.6612
 2.4710	46.7028
 2.4700	46.8413
 2.4690	46.6583
 2.4680	46.7505
 2.4670	46.6555
 2.4660	46.7081
 2.4650	46.8099
 2.4640	46.8391
 2.4630	46.6620
 2.4620	46.9625
 2.4610	46.9562
 2.4600	46.8838
 2.4590	46.9413
 2.4580	46.9820
 2.4570	47.1367
 2.4560	47.0644
 2.4550	47.1733
 2.4540	47.2275
 2.4530	47.3024
 2.4520	47.3187
 2.4510	47.3646
 2.4500	47.4801
 2.4490	47.4555
 2.4480	47.5062
 2.4470	47.6839
 2.4460	47.7010
 2.4450	47.7526
 2.4440	47.7622
 2.4430	47.8630
 2.4420	47.9774
 2.4410	48.0426
 2.4400	48.0802
 2.4390	48.2326
 2.4380	48.2593
 2.4370	48.2921
 2.4360	48.3957
 2.4350	48.4140
 2.4340	48.4761
 2.4330	48.6213
 2.4320	48.6845
 2.4310	48.7748
 2.4300	48.9216
 2.4290	48.9873
 2.4280	49.0006
 2.4270	49.1409
 2.4260	49.1748
 2.4250	49.2045
 2.4240	49.3010
 2.4230	49.3378
 2.4220	49.4539
 2.4210	49.4588
 2.4200	49.4906
 2.4190	49.6992
 2.4180	49.8029
 2.4170	49.8588
 2.4160	49.9121
 2.4150	50.0244
 2.4140	50.0401
 2.4130	50.1385
 2.4120	50.2319
 2.4110	50.2960
 2.4100	50.3613
 2.4090	50.4301
 2.4080	50.4914
 2.4070	50.5121
 2.4060	50.6683
 2.4050	50.7332
 2.4040	50.8068
 2.4030	50.8141
 2.4020	50.9390
 2.4010	51.1464
 2.4000	51.1622
 2.3990	51.1780
 2.3980	51.2265
 2.3970	51.3562
 2.3960	51.4371
 2.3950	51.5566
 2.3940	51.6541
 2.3930	51.7496
 2.3920	51.8237
 2.3910	51.9258
 2.3900	52.0271
 2.3890	52.1640
 2.3880	52.2752
 2.3870	52.4008
 2.3860	52.4847
 2.3850	52.5852
 2.3840	52.6702
 2.3830	52.7707
 2.3820	52.8525
 2.3810	52.9373
 2.3800	53.0032
 2.3790	53.1576
 2.3780	53.2766
 2.3770	53.3625
 2.3760	53.4727
 2.3750	53.5783
 2.3740	53.6848
 2.3730	53.7598
 2.3720	53.8299
 2.3710	53.9227
 2.3700	54.0091
 2.3690	54.1256
 2.3680	54.1868
 2.3670	54.1979
 2.3660	54.3078
 2.3650	54.4777
 2.3640	54.5398
 2.3630	54.5251
 2.3620	54.5361
 2.3610	54.6065
 2.3600	54.7154
 2.3590	54.7734
 2.3580	54.8000
 2.3570	54.8498
 2.3560	54.9098
 2.3550	54.9587
 2.3540	54.9887
 2.3530	55.0286
 2.3520	55.0339
 2.3510	55.0717
 2.3500	55.1266
 2.3490	55.1129
 2.3480	55.1410
 2.3470	55.1737
 2.3460	55.1889
 2.3450	55.1727
 2.3440	55.1675
 2.3430	55.1541
 2.3420	55.0695
 2.3410	55.0024
 2.3400	55.0156
 2.3390	55.0423
 2.3380	54.9741
 2.3370	54.9269
 2.3360	54.9143
 2.3350	54.8298
 2.3340	54.7438
 2.3330	54.6585
 2.3320	54.5957
 2.3310	54.5135
 2.3300	54.4612
 2.3290	54.3380
 2.3280	54.2256
 2.3270	54.1021
 2.3260	54.0448
 2.3250	53.9358
 2.3240	53.8302
 2.3230	53.7396
 2.3220	53.6813
 2.3210	53.5636
 2.3200	53.4746
 2.3190	53.3188
 2.3180	53.1473
 2.3170	53.0842
 2.3160	53.0149
 2.3150	52.9251
 2.3140	52.7976
 2.3130	52.7230
 2.3120	52.5983
 2.3110	52.4427
 2.3100	52.3525
 2.3090	52.2415
 2.3080	52.1700
 2.3070	52.0671
 2.3060	51.8970
 2.3050	51.7796
 2.3040	51.7675
 2.3030	51.7062
 2.3020	51.5901
 2.3010	51.5258
 2.3000	51.3800
 2.2990	51.2815
 2.2980	51.2525
 2.2970	51.1644
 2.2960	51.1110
 2.2950	50.9379
 2.2940	50.8752
 2.2930	50.7935
 2.2920	50.8217
 2.2910	50.6740
 2.2900	50.6762
 2.2890	50.5800
 2.2880	50.5343
 2.2870	50.5407
 2.2860	50.4736
 2.2850	50.4135
 2.2840	50.4798
 2.2830	50.4203
 2.2820	50.4203
 2.2810	50.4508
 2.2800	50.4791
 2.2790	50.5142
 2.2780	50.6019
 2.2770	50.6003
 2.2760	50.6713
 2.2750	50.6682
 2.2740	50.7625
 2.2730	50.8219
 2.2720	50.9766
 2.2710	51.0614
 2.2700	51.1976
 2.2690	51.2843
 2.2680	51.3805
 2.2670	51.5380
 2.2660	51.6725
 2.2650	51.7264
 2.2640	51.8766
 2.2630	52.0366
 2.2620	52.3303
 2.2610	52.4106
 2.2600	52.5678
 2.2590	52.6682
 2.2580	52.7977
 2.2570	53.0273
 2.2560	53.1746
 2.2550	53.2999
 2.2540	53.4566
 2.2530	53.5432
 2.2520	53.7331
 2.2510	53.8870
 2.2500	53.9845
 2.2490	54.0993
 2.2480	54.2021
 2.2470	54.3428
 2.2460	54.4765
 2.2450	54.5705
 2.2440	54.7877
 2.2430	54.9140
 2.2420	55.0010
 2.2410	55.1114
 2.2400	55.2704
 2.2390	55.3600
 2.2380	55.5504
 2.2370	55.6523
 2.2360	55.8112
 2.2350	55.9356
 2.2340	56.0969
 2.2330	56.2318
 2.2320	56.3729
 2.2310	56.5104
 2.2300	56.5920
 2.2290	56.7247
 2.2280	56.9656
 2.2270	56.9430
 2.2260	57.1018
 2.2250	57.2454
 2.2240	57.2888
 2.2230	57.4093
 2.2220	57.4766
 2.2210	57.5430
 2.2200	57.7235
 2.2190	57.7622
 2.2180	57.8666
 2.2170	57.9224
 2.2160	57.9918
 2.2150	58.0892
 2.2140	58.2169
 2.2130	58.3616
 2.2120	58.3828
 2.2110	58.3646
 2.2100	58.5315
 2.2090	58.5861
 2.2080	58.6965
 2.2070	58.7600
 2.2060	58.8889
 2.2050	58.9304
 2.2040	59.0439
 2.2030	59.2394
 2.2020	59.2477
 2.2010	59.3487
 2.2000	59.4013
 2.1990	59.6184
 2.1980	59.6278
 2.1970	59.7074
 2.1960	59.8171
 2.1950	59.9045
 2.1940	59.9666
 2.1930	60.1764
 2.1920	60.1432
 2.1910	60.2382
 2.1900	60.2908
 2.1890	60.3897
 2.1880	60.4688
 2.1870	60.6656
 2.1860	60.6386
 2.1850	60.6828
 2.1840	60.8331
 2.1830	60.9291
 2.1820	60.9796
 2.1810	61.0522
 2.1800	61.1623
 2.1790	61.3069
 2.1780	61.3325
 2.1770	61.3694
 2.1760	61.4910
 2.1750	61.5101
 2.1740	61.5741
 2.1730	61.6716
 2.1720	61.7422
 2.1710	61.7786
 2.1700	61.8977
 2.1690	61.8707
 2.1680	62.0368
 2.1670	62.0623
 2.1660	62.1599
 2.1650	62.1817
 2.1640	62.3323
 2.1630	62.3903
 2.1620	62.5258
 2.1610	62.4571
 2.1600	62.4945
 2.1590	62.6452
 2.1580	62.6702
 2.1570	62.7663
 2.1560	62.8401
 2.1550	62.8653
 2.1540	62.8889
 2.1530	62.9480
 2.1520	63.0180
 2.1510	63.0882
 2.1500	63.0656
 2.1490	63.1364
 2.1480	63.1893
 2.1470	63.2496
 2.1460	63.2747
 2.1450	63.3658
 2.1440	63.4104
 2.1430	63.4188
 2.1420	63.4224
 2.1410	63.4597
 2.1400	63.5055
 2.1390	63.5473
 2.1380	63.5755
 2.1370	63.5572
 2.1360	63.6244
 2.1350	63.6510
 2.1340	63.6341
 2.1330	63.6804
 2.1320	63.7336
 2.1310	63.7286
 2.1300	63.7185
 2.1290	63.7242
 2.1280	63.7679
 2.1270	63.7752
 2.1260	63.7666
 2.1250	63.7570
 2.1240	63.8571
 2.1230	63.7953
 2.1220	63.7757
 2.1210	63.7531
 2.1200	63.7581
 2.1190	63.7480
 2.1180	63.7043
 2.1170	63.7108
 2.1160	63.7507
 2.1150	63.8045
 2.1140	63.7713
 2.1130	63.6986
 2.1120	63.7429
 2.1110	63.7469
 2.1100	63.6565
 2.1090	63.6676
 2.1080	63.7089
 2.1070	63.7344
 2.1060	63.6206
 2.1050	63.6527
 2.1040	63.6721
 2.1030	63.6881
 2.1020	63.7256
 2.1010	63.6710
 2.1000	63.6615
 2.0990	63.7430
 2.0980	63.7345
 2.0970	63.7398
 2.0960	63.8070
 2.0950	63.8867
 2.0940	63.9045
 2.0930	63.8829
 2.0920	63.8997
 2.0910	63.9772
 2.0900	64.0422
 2.0890	64.0849
 2.0880	64.1457
 2.0870	64.1808
 2.0860	64.2136
 2.0850	64.1953
 2.0840	64.1735
 2.0830	64.2163
 2.0820	64.2468
 2.0810	64.2345
 2.0800	64.3195
 2.0790	64.4067
 2.0780	64.3760
 2.0770	64.3696
 2.0760	64.3994
 2.0750	64.3807
 2.0740	64.4195
 2.0730	64.4840
 2.0720	64.5306
 2.0710	64.5560
 2.0700	64.5598
 2.0690	64.5985
 2.0680	64.6064
 2.0670	64.6117
 2.0660	64.6512
 2.0650	64.6592
 2.0640	64.6971
 2.0630	64.7527
 2.0620	64.7350
 2.0610	64.7767
 2.0600	64.7737
 2.0590	64.7798
 2.0580	64.8236
 2.0570	64.8106
 2.0560	64.8556
 2.0550	64.8837
 2.0540	64.8760
 2.0530	64.9197
 2.0520	64.9710
 2.0510	64.9594
 2.0500	64.9388
 2.0490	64.9804
 2.0480	65.0405
 2.0470	65.0650
 2.0460	65.0587
 2.0450	65.0533
 2.0440	65.0650
 2.0430	65.1587
 2.0420	65.1561
 2.0410	65.1183
 2.0400	65.1432
 2.0390	65.2310
 2.0380	65.1757
 2.0370	65.1579
 2.0360	65.1728
 2.0350	65.1750
 2.0340	65.1769
 2.0330	65.2708
 2.0320	65.2637
 2.0310	65.2658
 2.0300	65.2497
 2.0290	65.2502
 2.0280	65.2983
 2.0270	65.3424
 2.0260	65.3170
 2.0250	65.2724
 2.0240	65.2760
 2.0230	65.3165
 2.0220	65.3377
 2.0210	65.3193
 2.0200	65.3401
 2.0190	65.3443
 2.0180	65.3572
 2.0170	65.3406
 2.0160	65.3365
 2.0150	65.3449
 2.0140	65.3124
 2.0130	65.3283
 2.0120	65.3418
 2.0110	65.3914
 2.0100	65.3737
 2.0090	65.3344
 2.0080	65.3651
 2.0070	65.3706
 2.0060	65.3547
 2.0050	65.3692
 2.0040	65.4148
 2.0030	65.3661
 2.0020	65.3046
 2.0010	65.4146
 2.0000	65.3602
 1.9990	65.3992
 1.9980	65.2802
 1.9970	65.2275
 1.9960	65.2420
 1.9950	65.3354
 1.9940	65.2767
 1.9930	65.2779
 1.9920	65.1950
 1.9910	65.2777
 1.9900	65.2624
 1.9890	65.1827
 1.9880	65.1082
 1.9870	65.0894
 1.9860	65.1414
 1.9850	65.0934
 1.9840	65.0176
 1.9830	65.0364
 1.9820	64.9660
 1.9810	65.0272
 1.9800	64.9622
 1.9790	64.9404
 1.9780	64.9788
 1.9770	64.9545
 1.9760	64.8860
 1.9750	64.8779
 1.9740	64.8036
 1.9730	64.8024
 1.9720	64.7431
 1.9710	64.7812
 1.9700	64.7788
 1.9690	64.7977
 1.9680	64.7390
 1.9670	64.6684
 1.9660	64.6111
 1.9650	64.5895
 1.9640	64.6232
 1.9630	64.6553
 1.9620	64.6836
 1.9610	64.7104
 1.9600	64.5765
 1.9590	64.6822
 1.9580	64.5828
 1.9570	64.5390
 1.9560	64.5173
 1.9550	64.4979
 1.9540	64.5845
 1.9530	64.4569
 1.9520	64.4075
 1.9510	64.5311
 1.9500	64.4219
 1.9490	64.4782
 1.9480	64.4669
 1.9470	64.5163
 1.9460	64.4665
 1.9450	64.4697
 1.9440	64.4955
 1.9430	64.4846
 1.9420	64.4582
 1.9410	64.5699
 1.9400	64.5952
 1.9390	64.5603
 1.9380	64.5779
 1.9370	64.5265
 1.9360	64.6173
 1.9350	64.5585
 1.9340	64.5401
 1.9330	64.6822
 1.9320	64.6459
 1.9310	64.6927
 1.9300	64.5873
 1.9290	64.6641
 1.9280	64.8333
 1.9270	64.8497
 1.9260	64.6864
 1.9250	64.8501
 1.9240	64.8960
 1.9230	64.9112
 1.9220	64.9301
 1.9210	64.9611
 1.9200	64.9171
 1.9190	65.1003
 1.9180	65.1007
 1.9170	65.2262
 1.9160	65.2708
 1.9150	65.2074
 1.9140	65.4066
 1.9130	65.4381
 1.9120	65.3602
 1.9110	65.3811
 1.9100	65.4898
 1.9090	65.5808
 1.9080	65.7076
 1.9070	65.5758
 1.9060	65.6662
 1.9050	65.7082
 1.9040	65.7949
 1.9030	65.8163
 1.9020	65.8307
 1.9010	65.8843
 1.9000	66.0038
 1.8990	65.9931
 1.8980	65.9701
 1.8970	66.0346
 1.8960	65.9843
 1.8950	66.0915
 1.8940	66.0335
 1.8930	66.0510
 1.8920	66.0217
 1.8910	66.0139
 1.8900	65.9162
 1.8890	65.8232
 1.8880	65.8724
 1.8870	65.9344
 1.8860	65.8962
 1.8850	65.8727
 1.8840	65.7532
 1.8830	65.6540
 1.8820	65.6242
 1.8810	65.5275
 1.8800	65.5100
 1.8790	65.4738
 1.8780	65.4298
 1.8770	65.3818
 1.8760	65.3278
 1.8750	65.3268
 1.8740	65.2525
 1.8730	65.2194
 1.8720	65.1344
 1.8710	65.1044
 1.8700	65.0269
 1.8690	64.9974
 1.8680	65.0033
 1.8670	64.9845
 1.8660	65.0080
 1.8650	65.0278
 1.8640	64.9887
 1.8630	65.0005
 1.8620	65.1062
 1.8610	65.0972
 1.8600	65.0798
 1.8590	65.1612
 1.8580	65.1479
 1.8570	65.2434
 1.8560	65.3090
 1.8550	65.3587
 1.8540	65.3761
 1.8530	65.5396
 1.8520	65.5869
 1.8510	65.6713
 1.8500	65.8093
 1.8490	65.9197
 1.8480	66.0237
 1.8470	66.0808
 1.8460	66.1480
 1.8450	66.2924
 1.8440	66.3692
 1.8430	66.4544
 1.8420	66.5810
 1.8410	66.7010
 1.8400	66.7966
 1.8390	66.8818
 1.8380	66.9382
 1.8370	67.0365
 1.8360	67.0938
 1.8350	67.1985
 1.8340	67.3264
 1.8330	67.4725
 1.8320	67.5817
 1.8310	67.6657
 1.8300	67.7032
 1.8290	67.8880
 1.8280	67.9637
 1.8270	68.0436
 1.8260	68.1432
 1.8250	68.2701
 1.8240	68.3303
 1.8230	68.4043
 1.8220	68.4794
 1.8210	68.5372
 1.8200	68.6556
 1.8190	68.6860
 1.8180	68.7679
 1.8170	68.8941
 1.8160	68.9002
 1.8150	68.9468
 1.8140	69.0420
 1.8130	69.0924
 1.8120	69.1013
 1.8110	69.1726
 1.8100	69.2225
 1.8090	69.2718
 1.8080	69.3703
 1.8070	69.3975
 1.8060	69.3965
 1.8050	69.4783
 1.8040	69.5212
 1.8030	69.5193
 1.8020	69.6082
 1.8010	69.6818
 1.8000	69.7377
 1.7990	69.7603
 1.7980	69.7880
 1.7970	69.8893
 1.7960	69.9721
 1.7950	70.0085
 1.7940	70.0126
 1.7930	70.0631
 1.7920	70.0480
 1.7910	70.0574
 1.7900	70.1800
 1.7890	70.2289
 1.7880	70.2412
 1.7870	70.2538
 1.7860	70.3065
 1.7850	70.3738
 1.7840	70.4004
 1.7830	70.4555
 1.7820	70.5374
 1.7810	70.5740
 1.7800	70.6465
 1.7790	70.6767
 1.7780	70.6630
 1.7770	70.7080
 1.7760	70.8120
 1.7750	70.8518
 1.7740	70.8432
 1.7730	70.9044
 1.7720	70.9553
 1.7710	71.0474
 1.7700	71.1544
 1.7690	71.1375
 1.7680	71.1495
 1.7670	71.2662
 1.7660	71.3388
 1.7650	71.3671
 1.7640	71.4099
 1.7630	71.4502
 1.7620	71.4963
 1.7610	71.5623
 1.7600	71.6205
 1.7590	71.6075
 1.7580	71.6855
 1.7570	71.7383
 1.7560	71.7830
 1.7550	71.8752
 1.7540	71.9324
 1.7530	71.9806
 1.7520	72.0493
 1.7510	72.1072
 1.7500	72.1027
 1.7490	72.1613
 1.7480	72.2576
 1.7470	72.2753
 1.7460	72.3330
 1.7450	72.4193
 1.7440	72.4811
 1.7430	72.4953
 1.7420	72.5661
 1.7410	72.5818
 1.7400	72.6121
 1.7390	72.6533
 1.7380	72.7177
 1.7370	72.8172
 1.7360	72.8472
 1.7350	72.9072
 1.7340	72.9781
 1.7330	73.0098
 1.7320	73.0312
 1.7310	73.0519
 1.7300	73.1381
 1.7290	73.1780
 1.7280	73.1725
 1.7270	73.2211
 1.7260	73.3071
 1.7250	73.3158
 1.7240	73.3208
 1.7230	73.3149
 1.7220	73.3962
 1.7210	73.4830
 1.7200	73.4143
 1.7190	73.4803
 1.7180	73.5539
 1.7170	73.5821
 1.7160	73.6653
 1.7150	73.7362
 1.7140	73.7573
 1.7130	73.7491
 1.7120	73.7849
 1.7110	73.7820
 1.7100	73.8778
 1.7090	73.8866
 1.7080	73.8914
 1.7070	73.9463
 1.7060	73.9805
 1.7050	73.9389
 1.7040	74.0570
 1.7030	74.1077
 1.7020	74.1259
 1.7010	74.0746
 1.7000	74.1111
 1.6990	74.0907
 1.6980	74.1351
 1.6970	74.2198
 1.6960	74.3021
 1.6950	74.2648
 1.6940	74.1907
 1.6930	74.1885
 1.6920	74.3024
 1.6910	74.2560
 1.6900	74.2839
 1.6890	74.3853
 1.6880	74.2989
 1.6870	74.4317
 1.6860	74.3745
 1.6850	74.4200
 1.6840	74.4246
 1.6830	74.3495
 1.6820	74.4457
 1.6810	74.5126
 1.6800	74.5412
 1.6790	74.4958
 1.6780	74.5279
 1.6770	74.5975
 1.6760	74.6373
 1.6750	74.5874
 1.6740	74.6277
 1.6730	74.5691
 1.6720	74.7681
 1.6710	74.6868
 1.6700	74.6149
 1.6690	74.7379
 1.6680	74.6686
 1.6670	74.6625
 1.6660	74.7260
 1.6650	74.6554
 1.6640	74.6661
 1.6630	74.7230
 1.6620	74.8308
 1.6610	74.8456
 1.6600	74.8421
 1.6590	74.8624
 1.6580	74.8097
 1.6570	74.7538
 1.6560	74.8412
 1.6550	74.8932
 1.6540	74.8638
 1.6530	75.0855
 1.6520	74.9287
 1.6510	74.9697
 1.6500	75.0274
 1.6490	74.9917
 1.6480	75.0960
 1.6470	74.9650
 1.6460	75.1874
 1.6450	75.1124
 1.6440	75.0395
 1.6430	75.0654
 1.6420	75.1778
 1.6410	75.1709
 1.6400	75.2083
 1.6390	75.2391
 1.6380	75.1778
 1.6370	75.2589
 1.6360	75.2282
 1.6350	75.2187
 1.6340	75.2687
 1.6330	75.3047
 1.6320	75.2837
 1.6310	75.2369
 1.6300	75.3806
 1.6290	75.3795
 1.6280	75.3783
 1.6270	75.4474
 1.6260	75.4539
 1.6250	75.4969
 1.6240	75.5469
 1.6230	75.4516
 1.6220	75.5119
 1.6210	75.5183
 1.6200	75.5598
 1.6190	75.5386
 1.6180	75.5345
 1.6170	75.6213
 1.6160	75.5664
 1.6150	75.4609
 1.6140	75.5491
 1.6130	75.6162
 1.6120	75.6709
 1.6110	75.6612
 1.6100	75.6953
 1.6090	75.6792
 1.6080	75.6371
 1.6070	75.7016
 1.6060	75.7525
 1.6050	75.7195
 1.6040	75.7447
 1.6030	75.7770
 1.6020	75.7164
 1.6010	75.7600
 1.6000	75.6961
 1.5990	75.7627
 1.5980	75.7536
 1.5970	75.7064
 1.5960	75.7368
 1.5950	75.6213
 1.5940	75.7230
 1.5930	75.6866
 1.5920	75.6326
 1.5910	75.7050
 1.5900	75.7167
 1.5890	75.6584
 1.5880	75.6089
 1.5870	75.6095
 1.5860	75.6420
 1.5850	75.5920
 1.5840	75.6467
 1.5830	75.6744
 1.5820	75.6242
 1.5810	75.6482
 1.5800	75.6127
 1.5790	75.6141
 1.5780	75.6195
 1.5770	75.6147
 1.5760	75.6109
 1.5750	75.5651
 1.5740	75.5275
 1.5730	75.5028
 1.5720	75.5282
 1.5710	75.5543
 1.5700	75.5439
 1.5690	75.4766
 1.5680	75.5014
 1.5670	75.4147
 1.5660	75.4806
 1.5650	75.4224
 1.5640	75.4368
 1.5630	75.3249
 1.5620	75.2882
 1.5610	75.2799
 1.5600	75.3093
 1.5590	75.2517
 1.5580	75.2042
 1.5570	75.1871
 1.5560	75.1604
 1.5550	75.1164
 1.5540	75.1296
 1.5530	75.0617
 1.5520	75.0327
 1.5510	75.0532
 1.5500	75.0215
 1.5490	74.9800
 1.5480	75.0213
 1.5470	74.9598
 1.5460	74.8858
 1.5450	74.8733
 1.5440	74.8260
 1.5430	74.8079
 1.5420	74.8261
 1.5410	74.7912
 1.5400	74.7582
 1.5390	74.7233
 1.5380	74.7275
 1.5370	74.6837
 1.5360	74.6588
 1.5350	74.7147
 1.5340	74.6929
 1.5330	74.5822
 1.5320	74.6073
 1.5310	74.6521
 1.5300	74.6169
 1.5290	74.5576
 1.5280	74.5378
 1.5270	74.5273
 1.5260	74.5641
 1.5250	74.5511
 1.5240	74.4876
 1.5230	74.4728
 1.5220	74.5289
 1.5210	74.5395
 1.5200	74.4953
 1.5190	74.4798
 1.5180	74.5123
 1.5170	74.4944
 1.5160	74.4477
 1.5150	74.4586
 1.5140	74.4704
 1.5130	74.4392
 1.5120	74.4344
 1.5110	74.4112
 1.5100	74.4192
 1.5090	74.3604
 1.5080	74.2899
 1.5070	74.2779
 1.5060	74.2675
 1.5050	74.2426
 1.5040	74.1913
 1.5030	74.1367
 1.5020	74.0824
 1.5010	74.0084
 1.5000	73.8915
 1.4990	73.8867
 1.4980	73.8399
 1.4970	73.6898
 1.4960	73.5591
 1.4950	73.4744
 1.4940	73.4044
 1.4930	73.2263
 1.4920	73.0421
 1.4910	72.8943
 1.4900	72.8087
 1.4890	72.7126
 1.4880	72.5848
 1.4870	72.4700
 1.4860	72.3610
 1.4850	72.2688
 1.4840	72.1331
 1.4830	72.1100
 1.4820	72.1619
 1.4810	72.1131
 1.4800	72.0827
 1.4790	72.1371
 1.4780	72.1436
 1.4770	72.1826
 1.4760	72.2019
 1.4750	72.2256
 1.4740	72.3177
 1.4730	72.4427
 1.4720	72.5423
 1.4710	72.6691
 1.4700	72.7504
 1.4690	72.8418
 1.4680	72.9817
 1.4670	73.0721
 1.4660	73.1156
 1.4650	73.2628
 1.4640	73.4264
 1.4630	73.5185
 1.4620	73.6826
 1.4610	73.7913
 1.4600	73.8644
 1.4590	73.9516
 1.4580	74.0753
 1.4570	74.1785
 1.4560	74.2816
 1.4550	74.4547
 1.4540	74.4389
 1.4530	74.5180
 1.4520	74.5623
 1.4510	74.6082
 1.4500	74.6472
 1.4490	74.8029
 1.4480	74.8664
 1.4470	74.9348
 1.4460	74.9399
 1.4450	74.9034
 1.4440	74.9110
 1.4430	75.0202
 1.4420	74.9954
 1.4410	75.0044
 1.4400	75.0697
 1.4390	75.1143
 1.4380	75.1631
 1.4370	75.1154
 1.4360	75.0679
 1.4350	75.0971
 1.4340	75.0610
 1.4330	75.1025
 1.4320	75.1131
 1.4310	75.0974
 1.4300	75.0498
 1.4290	74.9990
 1.4280	75.0053
 1.4270	75.0559
 1.4260	75.0217
 1.4250	75.0439
 1.4240	75.0106
 1.4230	74.9406
 1.4220	74.9420
 1.4210	74.9034
 1.4200	74.8727
 1.4190	74.8950
 1.4180	74.8087
 1.4170	74.7857
 1.4160	74.7786
 1.4150	74.7351
 1.4140	74.7694
 1.4130	74.7020
 1.4120	74.6242
 1.4110	74.6710
 1.4100	74.6379
 1.4090	74.5793
 1.4080	74.6154
 1.4070	74.6355
 1.4060	74.6148
 1.4050	74.6523
 1.4040	74.5587
 1.4030	74.5112
 1.4020	74.5835
 1.4010	74.5937
 1.4000	74.5128
 1.3990	74.5573
 1.3980	74.5382
 1.3970	74.5429
 1.3960	74.5122
 1.3950	74.5261
 1.3940	74.4121
 1.3930	74.4334
 1.3920	74.4020
 1.3910	74.3450
 1.3900	74.2777
 1.3890	74.3073
 1.3880	74.2382
 1.3870	74.1581
 1.3860	74.0977
 1.3850	74.0241
 1.3840	73.9970
 1.3830	73.9395
 1.3820	73.7604
 1.3810	73.7749
 1.3800	73.6160
 1.3790	73.6971
 1.3780	73.6373
 1.3770	73.5685
 1.3760	73.4838
 1.3750	73.3956
 1.3740	73.3087
 1.3730	73.2761
 1.3720	73.1679
 1.3710	73.1899
 1.3700	73.0337
 1.3690	72.8992
 1.3680	72.9948
 1.3670	72.8212
 1.3660	72.7742
 1.3650	72.7227
 1.3640	72.5770
 1.3630	72.5546
 1.3620	72.4285
 1.3610	72.2853
 1.3600	72.2903
 1.3590	72.2189
 1.3580	72.1710
 1.3570	72.0559
 1.3560	71.9418
 1.3550	71.7919
 1.3540	71.7811
 1.3530	71.7182
 1.3520	71.5194
 1.3510	71.4955
 1.3500	71.4451
 1.3490	71.2746
 1.3480	71.2061
 1.3470	71.1636
 1.3460	71.0556
 1.3450	70.8964
 1.3440	70.8775
 1.3430	70.7325
 1.3420	70.6822
 1.3410	70.5549
 1.3400	70.5077
 1.3390	70.3514
 1.3380	70.3299
 1.3370	70.2767
 1.3360	70.1196
 1.3350	70.0194
 1.3340	69.9047
 1.3330	69.7954
 1.3320	69.6599
 1.3310	69.5743
 1.3300	69.5696
 1.3290	69.4241
 1.3280	69.3683
 1.3270	69.2716
 1.3260	69.1906
 1.3250	69.1407
 1.3240	68.9597
 1.3230	68.9089
 1.3220	68.7544
 1.3210	68.6290
 1.3200	68.6198
 1.3190	68.4648
 1.3180	68.3654
 1.3170	68.3608
 1.3160	68.1922
 1.3150	68.2240
 1.3140	68.0835
 1.3130	67.9816
 1.3120	67.8097
 1.3110	67.6847
 1.3100	67.5722
 1.3090	67.4618
 1.3080	67.4010
 1.3070	67.2661
 1.3060	67.2243
 1.3050	67.1538
 1.3040	67.0204
 1.3030	66.9313
 1.3020	66.7267
 1.3010	66.6987
 1.3000	66.5722
 1.2990	66.5322
 1.2980	66.3718
 1.2970	66.2980
 1.2960	66.2073
 1.2950	66.1266
 1.2940	66.0168
 1.2930	65.8982
 1.2920	65.8423
 1.2910	65.6852
 1.2900	65.5863
 1.2890	65.4927
 1.2880	65.4188
 1.2870	65.3252
 1.2860	65.2088
 1.2850	65.0740
 1.2840	64.9448
 1.2830	64.9211
 1.2820	64.7615
 1.2810	64.6267
 1.2800	64.5541
 1.2790	64.4518
 1.2780	64.3708
 1.2770	64.2449
 1.2760	64.0943
 1.2750	64.0346
 1.2740	63.8984
 1.2730	63.7882
 1.2720	63.6505
 1.2710	63.5513
 1.2700	63.4467
 1.2690	63.3567
 1.2680	63.2631
 1.2670	63.0868
 1.2660	63.0425
 1.2650	62.9112
 1.2640	62.7869
 1.2630	62.6915
 1.2620	62.5618
 1.2610	62.4781
 1.2600	62.3738
 1.2590	62.2550
 1.2580	62.1597
 1.2570	62.0713
 1.2560	61.9388
 1.2550	61.7927
 1.2540	61.6973
 1.2530	61.6243
 1.2520	61.4660
 1.2510	61.3932
 1.2500	61.2962
 1.2490	61.1778
 1.2480	61.0963
 1.2470	60.9561
 1.2460	60.8567
 1.2450	60.7579
 1.2440	60.5959
 1.2430	60.4821
 1.2420	60.3697
 1.2410	60.2592
 1.2400	60.1955
 1.2390	60.0890
 1.2380	59.9351
 1.2370	59.7898
 1.2360	59.6877
 1.2350	59.5869
 1.2340	59.4595
 1.2330	59.3722
 1.2320	59.2463
 1.2310	59.1331
 1.2300	59.0832
 1.2290	58.9581
 1.2280	58.8056
 1.2270	58.7431
 1.2260	58.5702
 1.2250	58.4425
 1.2240	58.3741
 1.2230	58.2519
 1.2220	58.1313
 1.2210	58.0361
 1.2200	57.9210
 1.2190	57.8084
 1.2180	57.6738
 1.2170	57.4895
 1.2160	57.3856
 1.2150	57.3303
 1.2140	57.2419
 1.2130	57.0999
 1.2120	56.9410
 1.2110	56.8350
 1.2100	56.7224
 1.2090	56.6275
 1.2080	56.5205
 1.2070	56.3663
 1.2060	56.2709
 1.2050	56.1826
 1.2040	56.0933
 1.2030	56.0163
 1.2020	55.8943
 1.2010	55.7197
 1.2000	55.6075
 1.1990	55.4796
 1.1980	55.3338
 1.1970	55.2422
 1.1960	55.1720
 1.1950	55.0371
 1.1940	54.9752
 1.1930	54.8259
 1.1920	54.6936
 1.1910	54.5981
 1.1900	54.4988
 1.1890	54.3809
 1.1880	54.1864
 1.1870	54.1192
 1.1860	54.0245
 1.1850	53.8413
 1.1840	53.7448
 1.1830	53.6506
 1.1820	53.5211
 1.1810	53.4142
 1.1800	53.3768
 1.1790	53.2953
 1.1780	53.1518
 1.1770	53.0434
 1.1760	52.9182
 1.1750	52.7936
 1.1740	52.7069
 1.1730	52.6073
 1.1720	52.4997
 1.1710	52.3522
 1.1700	52.2451
 1.1690	52.1110
 1.1680	51.9813
 1.1670	51.8834
 1.1660	51.7739
 1.1650	51.6367
 1.1640	51.5121
 1.1630	51.4854
 1.1620	51.3453
 1.1610	51.2268
 1.1600	51.0664
 1.1590	50.9556
 1.1580	50.7697
 1.1570	50.7304
 1.1560	50.6374
 1.1550	50.5124
 1.1540	50.3865
 1.1530	50.2137
 1.1520	50.1427
 1.1510	50.0962
 1.1500	50.0178
 1.1490	49.8816
 1.1480	49.8461
 1.1470	49.7123
 1.1460	49.5603
 1.1450	49.3794
 1.1440	49.3137
 1.1430	49.1374
 1.1420	49.0508
 1.1410	48.8686
 1.1400	48.8700
 1.1390	48.6784
 1.1380	48.5862
 1.1370	48.5417
 1.1360	48.3629
 1.1350	48.3388
 1.1340	48.1971
 1.1330	48.0323
 1.1320	47.9797
 1.1310	47.8575
 1.1300	47.7556
 1.1290	47.6447
 1.1280	47.5896
 1.1270	47.4130
 1.1260	47.2743
 1.1250	47.2321
 1.1240	47.1196
 1.1230	46.9661
 1.1220	46.9291
 1.1210	46.7231
 1.1200	46.6371
 1.1190	46.5184
 1.1180	46.4484
 1.1170	46.3458
 1.1160	46.2666
 1.1150	46.0657
 1.1140	46.0508
 1.1130	45.8994
 1.1120	45.8273
 1.1110	45.7066
 1.1100	45.5453
 1.1090	45.4011
 1.1080	45.3535
 1.1070	45.3092
 1.1060	45.2042
 1.1050	45.0058
 1.1040	44.8993
 1.1030	44.8413
 1.1020	44.7086
 1.1010	44.6308
 1.1000	44.4685
 1.0990	44.4064
 1.0980	44.3386
 1.0970	44.1650
 1.0960	44.1638
 1.0950	44.0355
 1.0940	43.9411
 1.0930	43.8002
 1.0920	43.7044
 1.0910	43.6212
 1.0900	43.5097
 1.0890	43.3703
 1.0880	43.3635
 1.0870	43.1507
 1.0860	43.1653
 1.0850	42.9828
 1.0840	42.9607
 1.0830	42.8350
 1.0820	42.7234
 1.0810	42.5708
 1.0800	42.5487
 1.0790	42.4146
 1.0780	42.2896
 1.0770	42.2085
 1.0760	42.1484
 1.0750	42.0649
 1.0740	41.9765
 1.0730	41.7914
 1.0720	41.7601
 1.0710	41.7287
 1.0700	41.5033
 1.0690	41.4523
 1.0680	41.2926
 1.0670	41.3118
 1.0660	41.2099
 1.0650	41.0005
 1.0640	41.0026
 1.0630	40.8038
 1.0620	40.7719
 1.0610	40.7224
 1.0600	40.5919
 1.0590	40.4419
 1.0580	40.4149
 1.0570	40.2453
 1.0560	40.2118
 1.0550	40.0945
 1.0540	39.9854
 1.0530	39.8678
 1.0520	39.8341
 1.0510	39.6870
 1.0500	39.5987
 1.0490	39.5427
 1.0480	39.4766
 1.0470	39.2958
 1.0460	39.2539
 1.0450	39.1589
 1.0440	39.0804
 1.0430	38.9852
 1.0420	38.9527
 1.0410	38.7668
 1.0400	38.7392
 1.0390	38.6245
 1.0380	38.5846
 1.0370	38.4310
 1.0360	38.4100
 1.0350	38.3045
 1.0340	38.1676
 1.0330	38.0373
 1.0320	38.0024
 1.0310	37.8913
 1.0300	37.8671
 1.0290	37.6567
 1.0280	37.5873
 1.0270	37.5122
 1.0260	37.4772
 1.0250	37.3359
 1.0240	37.3002
 1.0230	37.2117
 1.0220	37.0822
 1.0210	37.0274
 1.0200	36.9065
 1.0190	36.8075
 1.0180	36.7161
 1.0170	36.6248
 1.0160	36.5768
 1.0150	36.5143
 1.0140	36.3595
 1.0130	36.2530
 1.0120	36.2356
 1.0110	36.1675
 1.0100	36.0460
 1.0090	35.9932
 1.0080	35.9730
 1.0070	35.8445
 1.0060	35.7579
 1.0050	35.6845
 1.0040	35.6150
 1.0030	35.4685
 1.0020	35.4005
 1.0010	35.3214
 1.0000	35.2721
 0.9990	35.1203
 0.9980	35.0413
 0.9970	35.0223
 0.9960	34.9767
 0.9950	34.8755
 0.9940	34.7775
 0.9930	34.6534
 0.9920	34.6433
 0.9910	34.6325
 0.9900	34.4952
 0.9890	34.4352
 0.9880	34.3737
 0.9870	34.2084
 0.9860	34.1676
 0.9850	34.1020
 0.9840	34.0361
 0.9830	33.9287
 0.9820	33.8383
 0.9810	33.7918
 0.9800	33.7674
 0.9790	33.6198
 0.9780	33.5340
 0.9770	33.4962
 0.9760	33.5107
 0.9750	33.4136
 0.9740	33.3192
 0.9730	33.2655
 0.9720	33.1970
 0.9710	33.1371
 0.9700	33.1094
 0.9690	33.0099
 0.9680	32.9951
 0.9670	32.9100
 0.9660	32.8441
 0.9650	32.7714
 0.9640	32.7397
 0.9630	32.7016
 0.9620	32.6219
 0.9610	32.5778
 0.9600	32.5426
 0.9590	32.4664
 0.9580	32.4296
 0.9570	32.3786
 0.9560	32.3126
 0.9550	32.2972
 0.9540	32.2312
 0.9530	32.1387
 0.9520	32.1526
 0.9510	32.0815
 0.9500	32.0048
 0.9490	31.9891
 0.9480	31.9982
 0.9470	31.9693
 0.9460	31.8842
 0.9450	31.8073
 0.9440	31.8097
 0.9430	31.7456
 0.9420	31.6808
 0.9410	31.6492
 0.9400	31.6302
 0.9390	31.6566
 0.9380	31.6729
 0.9370	31.5862
 0.9360	31.5475
 0.9350	31.5588
 0.9340	31.4927
 0.9330	31.4335
 0.9320	31.4382
 0.9310	31.4252
 0.9300	31.3644
 0.9290	31.3814
 0.9280	31.4080
 0.9270	31.3815
 0.9260	31.3691
 0.9250	31.3370
 0.9240	31.3172
 0.9230	31.2734
 0.9220	31.2251
 0.9210	31.2185
 0.9200	31.2103
 0.9190	31.2260
 0.9180	31.2107
 0.9170	31.2037
 0.9160	31.1833
 0.9150	31.1854
 0.9140	31.1696
 0.9130	31.1621
 0.9120	31.1959
 0.9110	31.1809
 0.9100	31.1390
 0.9090	31.1729
 0.9080	31.1642
 0.9070	31.2080
 0.9060	31.1902
 0.9050	31.2170
 0.9040	31.1661
 0.9030	31.1646
 0.9020	31.1850
 0.9010	31.2336
 0.9000	31.2375
 0.8990	31.2128
 0.8980	31.1994
 0.8970	31.2598
 0.8960	31.2265
 0.8950	31.3008
 0.8940	31.2583
 0.8930	31.2216
 0.8920	31.2854
 0.8910	31.3543
 0.8900	31.3522
 0.8890	31.3911
 0.8880	31.4400
 0.8870	31.4347
 0.8860	31.4797
 0.8850	31.4718
 0.8840	31.4534
 0.8830	31.4703
 0.8820	31.5071
 0.8810	31.5599
 0.8800	31.5356
 0.8790	31.5809
 0.8780	31.6273
 0.8770	31.6450
 0.8760	31.6914
 0.8750	31.7988
 0.8740	31.7493
 0.8730	31.7994
 0.8720	31.8710
 0.8710	31.8523
 0.8700	31.8700
 0.8690	31.9774
 0.8680	31.9975
 0.8670	32.0548
 0.8660	32.0805
 0.8650	32.1241
 0.8640	32.1079
 0.8630	32.1446
 0.8620	32.1744
 0.8610	32.2585
 0.8600	32.5092
 0.8590	32.6466
 0.8580	32.7083
 0.8570	32.7507
 0.8560	32.7949
 0.8550	32.9009
 0.8540	32.9114
 0.8530	32.9472
 0.8520	33.0403
 0.8510	33.1060
 0.8500	33.1948
 0.8490	33.2541
 0.8480	33.3190
 0.8470	33.3778
 0.8460	33.4285
 0.8450	33.4849
 0.8440	33.5300
 0.8430	33.6253
 0.8420	33.7223
 0.8410	33.7889
 0.8400	33.8585
 0.8390	33.9462
 0.8380	34.0135
 0.8370	34.0829
 0.8360	34.1356
 0.8350	34.2286
 0.8340	34.2970
 0.8330	34.3617
 0.8320	34.4605
 0.8310	34.5643
 0.8300	34.6399
 0.8290	34.7451
 0.8280	34.8382
 0.8270	34.9167
 0.8260	35.0046
 0.8250	35.0980
 0.8240	35.1750
 0.8230	35.2858
 0.8220	35.3803
 0.8210	35.4462
 0.8200	35.5590
 0.8190	35.6811
 0.8180	35.7617
 0.8170	35.8551
 0.8160	35.9661
 0.8150	36.0598
 0.8140	36.1675
 0.8130	36.2738
 0.8120	36.3735
 0.8110	36.4826
 0.8100	36.5912
 0.8090	36.6924
 0.8080	36.7915
 0.8070	36.9117
 0.8060	36.9855
 0.8050	37.0812
 0.8040	37.2212
 0.8030	37.3351
 0.8020	37.4429
 0.8010	37.5615
 0.8000	37.6315
 0.7990	37.7482
 0.7980	37.8460
 0.7970	37.9449
 0.7960	38.0926
 0.7950	38.2127
 0.7940	38.2972
 0.7930	38.4256
 0.7920	38.5350
 0.7910	38.6496
 0.7900	38.7832
 0.7890	38.8861
 0.7880	39.0120
 0.7870	39.1181
 0.7860	39.2624
 0.7850	39.3704
 0.7840	39.4875
 0.7830	39.6261
 0.7820	39.6765
 0.7810	39.8102
 0.7800	39.9116
 0.7790	40.0333
 0.7780	40.1412
 0.7770	40.2723
 0.7760	40.3693
 0.7750	40.4577
 0.7740	40.5717
 0.7730	40.6942
 0.7720	40.8265
 0.7710	40.8900
 0.7700	41.0053
 0.7690	41.1317
 0.7680	41.2376
 0.7670	41.3189
 0.7660	41.3937
 0.7650	41.5210
 0.7640	41.6051
 0.7630	41.7392
 0.7620	41.8221
 0.7610	41.8939
 0.7600	41.9659
 0.7590	42.0655
 0.7580	42.1478
 0.7570	42.2218
 0.7560	42.3028
 0.7550	42.3945
 0.7540	42.4586
 0.7530	42.5239
 0.7520	42.5724
 0.7510	42.6577
 0.7500	42.6983
 0.7490	42.7394
 0.7480	42.7839
 0.7470	42.8436
 0.7460	42.8882
 0.7450	42.9118
 0.7440	42.9450
 0.7430	42.9658
 0.7420	43.0045
 0.7410	43.0257
 0.7400	43.0285
 0.7390	43.0340
 0.7380	43.0535
 0.7370	43.0559
 0.7360	43.0403
 0.7350	43.0295
 0.7340	43.0160
 0.7330	42.9939
 0.7320	42.9839
 0.7310	42.9588
 0.7300	42.9116
 0.7290	42.8812
 0.7280	42.8567
 0.7270	42.7951
 0.7260	42.7426
 0.7250	42.6967
 0.7240	42.6461
 0.7230	42.5750
 0.7220	42.4952
 0.7210	42.4314
 0.7200	42.3640
 0.7190	42.2972
 0.7180	42.2257
 0.7170	42.1470
 0.7160	42.0641
 0.7150	41.9659
 0.7140	41.8822
 0.7130	41.7750
 0.7120	41.6795
 0.7110	41.5894
 0.7100	41.5003
 0.7090	41.4078
 0.7080	41.2960
 0.7070	41.1898
 0.7060	41.0862
 0.7050	40.9778
 0.7040	40.8658
 0.7030	40.7459
 0.7020	40.6446
 0.7010	40.5363
 0.7000	40.4260
 0.6990	40.3119
 0.6980	40.2028
 0.6970	40.0836
 0.6960	39.9715
 0.6950	39.8709
 0.6940	39.7506
 0.6930	39.6231
 0.6920	39.4993
 0.6910	39.3877
 0.6900	39.2801
 0.6890	39.1537
 0.6880	39.0389
 0.6870	38.9227
 0.6860	38.8131
 0.6850	38.6889
 0.6840	38.5620
 0.6830	38.4540
 0.6820	38.3441
 0.6810	38.2156
 0.6800	38.0941
 0.6790	37.9876
 0.6780	37.8738
 0.6770	37.7541
 0.6760	37.6336
 0.6750	37.5113
 0.6740	37.3942
 0.6730	37.2808
 0.6720	37.1626
 0.6710	37.0390
 0.6700	36.9191
 0.6690	36.8049
 0.6680	36.6752
 0.6670	36.5576
 0.6660	36.4475
 0.6650	36.3386
 0.6640	36.2389
 0.6630	36.1191
 0.6620	35.9984
 0.6610	35.8712
 0.6600	35.7572
 0.6590	35.6270
 0.6580	35.4957
 0.6570	35.3671
 0.6560	35.2394
 0.6550	35.1105
 0.6540	34.9812
 0.6530	34.8544
 0.6520	34.7237
 0.6510	34.5948
 0.6500	34.4582
 0.6490	34.3228
 0.6480	34.1837
 0.6470	34.0490
 0.6460	33.9153
 0.6450	33.7765
 0.6440	33.6326
 0.6430	33.4846
 0.6420	33.3376
 0.6410	33.1865
 0.6400	33.0352
 0.6390	32.8889
 0.6380	32.7587
 0.6370	32.6319
 0.6360	32.4777
 0.6350	32.3197
 0.6340	32.1604
 0.6330	32.0005
 0.6320	31.8423
 0.6310	31.6797
 0.6300	31.5107
 0.6290	31.3471
 0.6280	31.1803
 0.6270	31.0092
 0.6260	30.8414
 0.6250	30.6723
 0.6240	30.5006
 0.6230	30.3312
 0.6220	30.1596
 0.6210	29.9802
 0.6200	29.8058
 0.6190	29.6333
 0.6180	29.4547
 0.6170	29.2734
 0.6160	29.0966
 0.6150	28.9289
 0.6140	28.7549
 0.6130	28.5730
 0.6120	28.3956
 0.6110	28.2209
 0.6100	28.0485
 0.6090	27.8738
 0.6080	27.6961
 0.6070	27.5185
 0.6060	27.3472
 0.6050	27.1747
 0.6040	27.0070
 0.6030	26.8378
 0.6020	26.6641
 0.6010	26.5029
 0.6000	26.3398
 0.5990	26.1757
 0.5980	26.0155
 0.5970	25.8606
 0.5960	25.7062
 0.5950	25.5542
 0.5940	25.3988
 0.5930	25.2441
 0.5920	25.0966
 0.5910	24.9489
 0.5900	24.8042
 0.5890	24.6623
 0.5880	24.5206
 0.5870	24.3849
 0.5860	24.2456
 0.5850	24.1095
 0.5840	23.9767
 0.5830	23.8461
 0.5820	23.7217
 0.5810	23.5973
 0.5800	23.4780
 0.5790	23.3591
 0.5780	23.2405
 0.5770	23.1222
 0.5760	23.0059
 0.5750	22.8973
 0.5740	22.7868
 0.5730	22.6802
 0.5720	22.5770
 0.5710	22.4734
 0.5700	22.3712
 0.5690	22.2721
 0.5680	22.1751
 0.5670	22.0787
 0.5660	21.9818
 0.5650	21.8902
 0.5640	21.7962
 0.5630	21.7013
 0.5620	21.6107
 0.5610	22.1399
 0.5600	21.6354
 0.5590	21.3341
 0.5580	21.2499
 0.5570	21.1622
 0.5560	21.0814
 0.5550	20.9990
 0.5540	20.9112
 0.5530	20.8297
 0.5520	20.7436
 0.5510	20.6614
 0.5500	20.5777
 0.5490	20.4977
 0.5480	20.4218
 0.5470	20.3393
 0.5460	20.2553
 0.5450	20.1776
 0.5440	20.0952
 0.5430	20.0144
 0.5420	19.9381
 0.5410	19.8553
 0.5400	19.7761
 0.5390	19.6940
 0.5380	19.6185
 0.5370	19.5373
 0.5360	19.4575
 0.5350	19.3740
 0.5340	19.2908
 0.5330	19.2113
 0.5320	19.1294
 0.5310	19.0473
 0.5300	18.9673
 0.5290	18.8836
 0.5280	18.7962
 0.5270	18.7168
 0.5260	18.6308
 0.5250	18.5443
 0.5240	18.4635
 0.5230	18.3781
 0.5220	18.2886
 0.5210	18.2021
 0.5200	18.1117
 0.5190	18.0195
 0.5180	17.9240
 0.5170	17.8340
 0.5160	17.7368
 0.5150	17.6462
 0.5140	17.5802
 0.5130	17.4817
 0.5120	17.3814
 0.5110	17.2751
 0.5100	17.1675
 0.5090	17.0633
 0.5080	16.9539
 0.5070	16.8397
 0.5060	16.7267
 0.5050	16.6071
 0.5040	16.4832
 0.5030	16.3601
 0.5020	16.2331
 0.5010	16.0977
 0.5000	15.9630
 0.4990	15.8348
 0.4980	15.6891
 0.4970	15.5453
 0.4960	15.4020
 0.4950	15.2586
 0.4940	15.1019
 0.4930	14.9517
 0.4920	14.7853
 0.4910	14.6251
 0.4900	14.4700
 0.4890	14.2973
 0.4880	14.1349
 0.4870	13.9550
 0.4860	13.7830
 0.4850	13.6072
 0.4840	13.4324
 0.4830	13.2593
 0.4820	13.0964
 0.4810	12.9221
 0.4800	12.7648
 0.4790	12.6070
 0.4780	12.4494
 0.4770	12.2906
 0.4760	12.1323
 0.4750	11.9786
 0.4740	11.8222
 0.4730	11.6703
 0.4720	11.5220
 0.4710	11.3733
 0.4700	11.2353
 0.4690	11.0967
 0.4680	10.9630
 0.4670	10.8276
 0.4660	10.6946
 0.4650	10.5669
 0.4640	10.4395
 0.4630	10.3151
 0.4620	10.1887
 0.4610	10.0595
 0.4600	 9.9311
 0.4590	 9.8018
 0.4580	 9.6680
 0.4570	 9.5366
 0.4560	 9.3968
 0.4550	 9.2576
 0.4540	 9.1119
 0.4530	 8.9774
 0.4520	 8.8500
 0.4510	 8.7036
 0.4500	 8.5654
 0.4490	 8.4226
 0.4480	 8.2815
 0.4470	 8.1465
 0.4460	 8.0129
 0.4450	 7.8893
 0.4440	 7.7741
 0.4430	 7.6697
 0.4420	 7.5772
 0.4410	 7.4956
 0.4400	 7.4193
 0.4390	 7.3642
 0.4380	 7.3168
 0.4370	 7.2808
 0.4360	 7.2552
 0.4350	 7.2346
 0.4340	 7.2173
 0.4330	 7.2051
 0.4320	 7.1877
 0.4310	 7.1726
 0.4300	 7.1487
 0.4290	 7.1244
 0.4280	 7.0916
 0.4270	 7.0561
 0.4260	 7.0122
 0.4250	 6.9617
 0.4240	 6.9184
 0.4230	 6.8615
 0.4220	 6.8003
 0.4210	 6.7386
 0.4200	 6.6690
 0.4190	 6.5988
 0.4180	 6.5286
 0.4170	 6.4519
 0.4160	 6.3729
 0.4150	 6.2911
 0.4140	 6.2082
 0.4130	 6.1241
 0.4120	 6.0369
 0.4110	 5.9508
 0.4100	 5.8634
 0.4090	 5.7762
 0.4080	 5.6913
 0.4070	 5.6064
 0.4060	 5.5222
 0.4050	 5.4426
 0.4040	 5.3631
 0.4030	 5.2857
 0.4020	 5.2121
 0.4010	 5.1426
 0.4000	 5.0718
