Name: Rhodochrosite MnCO_3
Type: Mineral
Class: Carbonate
Subclass: None
Particle Size: Fine
Sample No.: C-8A
Owner: JPL
Wavelength Range: VSWIR
Origin: USA, Montana, Silver Bow County, Butte.
Collection Date: N/A
Description: Particle size was 0-45um.Collected by:  Ward's Original ASTER Spectral Library name was jpl.perkin.mineral.carbonate.none.fine.c08a.spectrum.txt
Measurement: Hemispherical reflectance
First Column: X
Second Column: Y
X Units: Wavelength (micrometers)
Y Units:Reflectance (percent)
First X Value:  2.5000
Last X Value:  0.4000
Number of X Values: 2101
Additional Information: mineral.carbonate.none.fine.vswir.c-8a.jpl.perkin.ancillary.txt

 2.5000	64.0861
 2.4990	63.8694
 2.4980	64.1616
 2.4970	64.1586
 2.4960	64.0430
 2.4950	64.1338
 2.4940	64.2648
 2.4930	64.1372
 2.4920	64.3893
 2.4910	64.3656
 2.4900	64.6044
 2.4890	64.5429
 2.4880	64.8423
 2.4870	64.7138
 2.4860	64.9842
 2.4850	65.1801
 2.4840	65.2313
 2.4830	65.4284
 2.4820	65.4928
 2.4810	65.5918
 2.4800	65.6377
 2.4790	65.7214
 2.4780	65.8711
 2.4770	65.9220
 2.4760	66.1438
 2.4750	66.0795
 2.4740	66.3114
 2.4730	66.3622
 2.4720	66.5791
 2.4710	66.5798
 2.4700	66.6143
 2.4690	66.6578
 2.4680	66.9866
 2.4670	66.9252
 2.4660	67.0554
 2.4650	67.1424
 2.4640	67.2230
 2.4630	67.4604
 2.4620	67.4860
 2.4610	67.4854
 2.4600	67.6115
 2.4590	67.6679
 2.4580	67.7517
 2.4570	67.7121
 2.4560	67.7805
 2.4550	67.8724
 2.4540	68.0223
 2.4530	67.9332
 2.4520	68.0896
 2.4510	68.1626
 2.4500	68.1994
 2.4490	68.1532
 2.4480	68.2124
 2.4470	68.2780
 2.4460	68.3336
 2.4450	68.3006
 2.4440	68.4853
 2.4430	68.5161
 2.4420	68.5792
 2.4410	68.5321
 2.4400	68.7052
 2.4390	68.6684
 2.4380	68.6498
 2.4370	68.7043
 2.4360	68.7709
 2.4350	68.7190
 2.4340	68.8439
 2.4330	68.8404
 2.4320	68.9864
 2.4310	68.9661
 2.4300	68.8977
 2.4290	68.9434
 2.4280	68.9617
 2.4270	69.0420
 2.4260	69.0325
 2.4250	69.0937
 2.4240	69.0713
 2.4230	69.1593
 2.4220	69.2474
 2.4210	69.1293
 2.4200	69.1494
 2.4190	69.1971
 2.4180	69.2159
 2.4170	69.2496
 2.4160	69.2355
 2.4150	69.3077
 2.4140	69.3484
 2.4130	69.2643
 2.4120	69.3872
 2.4110	69.5197
 2.4100	69.4867
 2.4090	69.4200
 2.4080	69.4381
 2.4070	69.4780
 2.4060	69.5009
 2.4050	69.4996
 2.4040	69.4523
 2.4030	69.4279
 2.4020	69.4462
 2.4010	69.4735
 2.4000	69.4405
 2.3990	69.4560
 2.3980	69.5071
 2.3970	69.5225
 2.3960	69.4758
 2.3950	69.4979
 2.3940	69.4427
 2.3930	69.3380
 2.3920	69.2926
 2.3910	69.2817
 2.3900	69.2455
 2.3890	69.1678
 2.3880	69.1204
 2.3870	68.9842
 2.3860	68.8966
 2.3850	68.8282
 2.3840	68.7026
 2.3830	68.5781
 2.3820	68.4447
 2.3810	68.3732
 2.3800	68.2893
 2.3790	68.1354
 2.3780	68.0171
 2.3770	67.8244
 2.3760	67.6226
 2.3750	67.5368
 2.3740	67.4469
 2.3730	67.3020
 2.3720	67.2029
 2.3710	67.0988
 2.3700	66.9803
 2.3690	66.9258
 2.3680	66.8943
 2.3670	66.8110
 2.3660	66.7561
 2.3650	66.6181
 2.3640	66.5083
 2.3630	66.5025
 2.3620	66.4799
 2.3610	66.4884
 2.3600	66.4915
 2.3590	66.4743
 2.3580	66.4780
 2.3570	66.5081
 2.3560	66.5276
 2.3550	66.5245
 2.3540	66.5107
 2.3530	66.5452
 2.3520	66.6091
 2.3510	66.6382
 2.3500	66.6877
 2.3490	66.7353
 2.3480	66.7777
 2.3470	66.7994
 2.3460	66.8319
 2.3450	66.8775
 2.3440	66.9061
 2.3430	66.9859
 2.3420	67.0495
 2.3410	67.0559
 2.3400	67.1026
 2.3390	67.1723
 2.3380	67.2098
 2.3370	67.2660
 2.3360	67.2945
 2.3350	67.3094
 2.3340	67.3218
 2.3330	67.3242
 2.3320	67.3690
 2.3310	67.3856
 2.3300	67.4141
 2.3290	67.4057
 2.3280	67.4184
 2.3270	67.4954
 2.3260	67.5207
 2.3250	67.5642
 2.3240	67.6050
 2.3230	67.5990
 2.3220	67.6230
 2.3210	67.6789
 2.3200	67.7050
 2.3190	67.7480
 2.3180	67.7749
 2.3170	67.7790
 2.3160	67.8294
 2.3150	67.8935
 2.3140	67.8651
 2.3130	67.9270
 2.3120	68.0111
 2.3110	68.0024
 2.3100	68.0315
 2.3090	68.0494
 2.3080	68.1226
 2.3070	68.1528
 2.3060	68.1550
 2.3050	68.2425
 2.3040	68.2861
 2.3030	68.3356
 2.3020	68.3905
 2.3010	68.4109
 2.3000	68.4854
 2.2990	68.5380
 2.2980	68.6114
 2.2970	68.6906
 2.2960	68.6529
 2.2950	68.6847
 2.2940	68.7470
 2.2930	68.7981
 2.2920	68.8781
 2.2910	68.9302
 2.2900	68.9318
 2.2890	68.9399
 2.2880	69.0062
 2.2870	69.0815
 2.2860	69.1395
 2.2850	69.1717
 2.2840	69.2174
 2.2830	69.2360
 2.2820	69.2231
 2.2810	69.3195
 2.2800	69.3728
 2.2790	69.3806
 2.2780	69.4213
 2.2770	69.4304
 2.2760	69.4816
 2.2750	69.4925
 2.2740	69.5530
 2.2730	69.6112
 2.2720	69.5859
 2.2710	69.5799
 2.2700	69.6302
 2.2690	69.6827
 2.2680	69.6870
 2.2670	69.6674
 2.2660	69.6967
 2.2650	69.7680
 2.2640	69.7782
 2.2630	69.7509
 2.2620	69.8135
 2.2610	69.8559
 2.2600	69.8700
 2.2590	69.9427
 2.2580	69.8910
 2.2570	69.9395
 2.2560	69.9553
 2.2550	69.9745
 2.2540	69.9868
 2.2530	70.0476
 2.2520	70.0597
 2.2510	70.0231
 2.2500	70.0596
 2.2490	70.0760
 2.2480	70.0725
 2.2470	70.1725
 2.2460	70.1981
 2.2450	70.1649
 2.2440	70.1299
 2.2430	70.2019
 2.2420	70.2222
 2.2410	70.2308
 2.2400	70.2347
 2.2390	70.2152
 2.2380	70.2286
 2.2370	70.2729
 2.2360	70.3015
 2.2350	70.3615
 2.2340	70.2916
 2.2330	70.4263
 2.2320	70.3372
 2.2310	70.3305
 2.2300	70.4203
 2.2290	70.4574
 2.2280	70.5186
 2.2270	70.4842
 2.2260	70.4871
 2.2250	70.5546
 2.2240	70.4768
 2.2230	70.5360
 2.2220	70.4724
 2.2210	70.5684
 2.2200	70.4823
 2.2190	70.6432
 2.2180	70.5275
 2.2170	70.7060
 2.2160	70.6858
 2.2150	70.7320
 2.2140	70.6839
 2.2130	70.7032
 2.2120	70.7510
 2.2110	70.7566
 2.2100	70.7675
 2.2090	70.7398
 2.2080	70.8183
 2.2070	70.8865
 2.2060	70.8524
 2.2050	70.9152
 2.2040	70.9468
 2.2030	70.9608
 2.2020	71.0119
 2.2010	70.9734
 2.2000	71.0233
 2.1990	70.9832
 2.1980	70.9089
 2.1970	71.0139
 2.1960	71.0292
 2.1950	71.1115
 2.1940	71.0328
 2.1930	71.0809
 2.1920	71.0704
 2.1910	71.1373
 2.1900	71.1112
 2.1890	71.1405
 2.1880	71.1269
 2.1870	71.1827
 2.1860	71.1132
 2.1850	71.1343
 2.1840	71.1772
 2.1830	71.1955
 2.1820	71.1472
 2.1810	71.2061
 2.1800	71.2230
 2.1790	71.2077
 2.1780	71.2101
 2.1770	71.3234
 2.1760	71.3018
 2.1750	71.3165
 2.1740	71.3283
 2.1730	71.3006
 2.1720	71.3539
 2.1710	71.3262
 2.1700	71.4186
 2.1690	71.5197
 2.1680	71.4432
 2.1670	71.4218
 2.1660	71.4621
 2.1650	71.5273
 2.1640	71.4695
 2.1630	71.5445
 2.1620	71.4996
 2.1610	71.5849
 2.1600	71.6067
 2.1590	71.6460
 2.1580	71.6479
 2.1570	71.6980
 2.1560	71.7439
 2.1550	71.7301
 2.1540	71.7597
 2.1530	71.8058
 2.1520	71.7721
 2.1510	71.8437
 2.1500	71.9333
 2.1490	71.8875
 2.1480	71.9060
 2.1470	71.9040
 2.1460	71.8839
 2.1450	71.8812
 2.1440	71.8785
 2.1430	71.9461
 2.1420	71.9171
 2.1410	71.9170
 2.1400	71.9166
 2.1390	71.9060
 2.1380	71.8886
 2.1370	71.8916
 2.1360	71.8693
 2.1350	71.8875
 2.1340	71.8627
 2.1330	71.8849
 2.1320	71.8822
 2.1310	71.8525
 2.1300	71.8019
 2.1290	71.7972
 2.1280	71.7713
 2.1270	71.7732
 2.1260	71.7540
 2.1250	71.6885
 2.1240	71.6633
 2.1230	71.6391
 2.1220	71.6403
 2.1210	71.6416
 2.1200	71.6016
 2.1190	71.5607
 2.1180	71.5007
 2.1170	71.4988
 2.1160	71.3875
 2.1150	71.3558
 2.1140	71.4074
 2.1130	71.3360
 2.1120	71.2377
 2.1110	71.1846
 2.1100	71.1645
 2.1090	71.1485
 2.1080	71.1300
 2.1070	71.1208
 2.1060	71.0409
 2.1050	70.9988
 2.1040	70.9493
 2.1030	70.9410
 2.1020	70.9368
 2.1010	70.8808
 2.1000	70.8542
 2.0990	70.9115
 2.0980	70.9014
 2.0970	70.9412
 2.0960	70.9038
 2.0950	70.9178
 2.0940	70.9360
 2.0930	70.9061
 2.0920	70.9367
 2.0910	70.9543
 2.0900	70.9485
 2.0890	71.0079
 2.0880	71.0738
 2.0870	71.0848
 2.0860	71.0481
 2.0850	71.0152
 2.0840	71.0165
 2.0830	71.0803
 2.0820	71.1149
 2.0810	71.0732
 2.0800	71.1003
 2.0790	71.1119
 2.0780	71.0912
 2.0770	71.1465
 2.0760	71.1397
 2.0750	71.0993
 2.0740	71.1252
 2.0730	71.1459
 2.0720	71.1559
 2.0710	71.2009
 2.0700	71.1462
 2.0690	71.1242
 2.0680	71.1648
 2.0670	71.2024
 2.0660	71.2279
 2.0650	71.2335
 2.0640	71.2740
 2.0630	71.2928
 2.0620	71.3067
 2.0610	71.3008
 2.0600	71.2871
 2.0590	71.3092
 2.0580	71.3336
 2.0570	71.3414
 2.0560	71.3735
 2.0550	71.3816
 2.0540	71.4014
 2.0530	71.4009
 2.0520	71.4288
 2.0510	71.4204
 2.0500	71.4142
 2.0490	71.3936
 2.0480	71.4170
 2.0470	71.4276
 2.0460	71.4321
 2.0450	71.4628
 2.0440	71.5153
 2.0430	71.4933
 2.0420	71.4374
 2.0410	71.4276
 2.0400	71.4912
 2.0390	71.4875
 2.0380	71.4461
 2.0370	71.4002
 2.0360	71.4181
 2.0350	71.4715
 2.0340	71.4946
 2.0330	71.4706
 2.0320	71.4374
 2.0310	71.4205
 2.0300	71.4368
 2.0290	71.4233
 2.0280	71.4411
 2.0270	71.4219
 2.0260	71.3945
 2.0250	71.3998
 2.0240	71.3854
 2.0230	71.3849
 2.0220	71.3666
 2.0210	71.3224
 2.0200	71.3356
 2.0190	71.3771
 2.0180	71.3180
 2.0170	71.2740
 2.0160	71.3171
 2.0150	71.3436
 2.0140	71.3092
 2.0130	71.2754
 2.0120	71.2699
 2.0110	71.2450
 2.0100	71.2482
 2.0090	71.2365
 2.0080	71.2939
 2.0070	71.2392
 2.0060	71.2113
 2.0050	71.1936
 2.0040	71.2449
 2.0030	71.2994
 2.0020	71.2948
 2.0010	71.2923
 2.0000	71.3063
 1.9990	71.2771
 1.9980	71.2742
 1.9970	71.2297
 1.9960	71.2938
 1.9950	71.2923
 1.9940	71.3080
 1.9930	71.2638
 1.9920	71.1926
 1.9910	71.2302
 1.9900	71.2765
 1.9890	71.2397
 1.9880	71.2653
 1.9870	71.2377
 1.9860	71.2584
 1.9850	71.2375
 1.9840	71.2983
 1.9830	71.1863
 1.9820	71.1904
 1.9810	71.2109
 1.9800	71.2228
 1.9790	71.1553
 1.9780	71.1569
 1.9770	71.1220
 1.9760	71.1902
 1.9750	71.1305
 1.9740	71.2181
 1.9730	71.1285
 1.9720	71.1901
 1.9710	71.1459
 1.9700	71.1673
 1.9690	71.1207
 1.9680	71.1914
 1.9670	71.1414
 1.9660	71.1827
 1.9650	71.1157
 1.9640	71.0933
 1.9630	71.1035
 1.9620	71.2002
 1.9610	71.1244
 1.9600	71.1726
 1.9590	71.1479
 1.9580	71.1787
 1.9570	71.1914
 1.9560	71.1911
 1.9550	71.1255
 1.9540	71.1334
 1.9530	71.1270
 1.9520	71.1686
 1.9510	71.1322
 1.9500	71.1769
 1.9490	71.1437
 1.9480	71.1741
 1.9470	71.1579
 1.9460	71.1294
 1.9450	71.2258
 1.9440	71.2546
 1.9430	71.1325
 1.9420	71.2384
 1.9410	71.2516
 1.9400	71.1997
 1.9390	71.2274
 1.9380	71.2491
 1.9370	71.2005
 1.9360	71.2080
 1.9350	71.2053
 1.9340	71.1915
 1.9330	71.2613
 1.9320	71.2714
 1.9310	71.2455
 1.9300	71.2159
 1.9290	71.2589
 1.9280	71.2941
 1.9270	71.3295
 1.9260	71.2420
 1.9250	71.3469
 1.9240	71.3503
 1.9230	71.2643
 1.9220	71.3544
 1.9210	71.2929
 1.9200	71.2850
 1.9190	71.3047
 1.9180	71.3811
 1.9170	71.3767
 1.9160	71.3862
 1.9150	71.3590
 1.9140	71.4575
 1.9130	71.4263
 1.9120	71.4575
 1.9110	71.4553
 1.9100	71.4397
 1.9090	71.4719
 1.9080	71.5338
 1.9070	71.4860
 1.9060	71.5059
 1.9050	71.5216
 1.9040	71.5357
 1.9030	71.5102
 1.9020	71.4932
 1.9010	71.5330
 1.9000	71.5276
 1.8990	71.5160
 1.8980	71.4724
 1.8970	71.5142
 1.8960	71.5309
 1.8950	71.4612
 1.8940	71.4887
 1.8930	71.5644
 1.8920	71.4381
 1.8910	71.5522
 1.8900	71.5791
 1.8890	71.5255
 1.8880	71.6149
 1.8870	71.6108
 1.8860	71.6771
 1.8850	71.6762
 1.8840	71.6962
 1.8830	71.7239
 1.8820	71.7200
 1.8810	71.7517
 1.8800	71.7545
 1.8790	71.7871
 1.8780	71.8736
 1.8770	71.8247
 1.8760	71.8529
 1.8750	71.8442
 1.8740	71.8645
 1.8730	71.8973
 1.8720	71.9088
 1.8710	71.8503
 1.8700	71.8551
 1.8690	71.8550
 1.8680	71.9319
 1.8670	71.9088
 1.8660	71.9796
 1.8650	71.9773
 1.8640	71.9916
 1.8630	71.9874
 1.8620	72.0588
 1.8610	71.9860
 1.8600	71.9865
 1.8590	72.0147
 1.8580	72.0103
 1.8570	72.0292
 1.8560	72.0310
 1.8550	72.0455
 1.8540	72.0759
 1.8530	72.0820
 1.8520	72.0868
 1.8510	72.0498
 1.8500	72.0355
 1.8490	72.0518
 1.8480	72.1390
 1.8470	72.1018
 1.8460	72.1080
 1.8450	72.0941
 1.8440	72.1028
 1.8430	72.1033
 1.8420	72.1171
 1.8410	72.1019
 1.8400	72.0939
 1.8390	72.0734
 1.8380	72.0712
 1.8370	72.0917
 1.8360	72.1469
 1.8350	72.1273
 1.8340	72.1087
 1.8330	72.0824
 1.8320	72.1330
 1.8310	72.1325
 1.8300	72.1891
 1.8290	72.1897
 1.8280	72.1402
 1.8270	72.1630
 1.8260	72.1828
 1.8250	72.1673
 1.8240	72.1885
 1.8230	72.1845
 1.8220	72.1958
 1.8210	72.1516
 1.8200	72.1890
 1.8190	72.1956
 1.8180	72.1814
 1.8170	72.1420
 1.8160	72.2090
 1.8150	72.2031
 1.8140	72.1514
 1.8130	72.1678
 1.8120	72.1904
 1.8110	72.1407
 1.8100	72.1607
 1.8090	72.2443
 1.8080	72.2604
 1.8070	72.2645
 1.8060	72.2481
 1.8050	72.2282
 1.8040	72.2375
 1.8030	72.2198
 1.8020	72.2714
 1.8010	72.2566
 1.8000	72.2764
 1.7990	72.2461
 1.7980	72.2409
 1.7970	72.2396
 1.7960	72.2446
 1.7950	72.2353
 1.7940	72.2069
 1.7930	72.1985
 1.7920	72.2712
 1.7910	72.2911
 1.7900	72.2774
 1.7890	72.2439
 1.7880	72.1911
 1.7870	72.2045
 1.7860	72.2229
 1.7850	72.2203
 1.7840	72.2334
 1.7830	72.2782
 1.7820	72.2449
 1.7810	72.1528
 1.7800	72.1403
 1.7790	72.1751
 1.7780	72.2096
 1.7770	72.2412
 1.7760	72.2298
 1.7750	72.2138
 1.7740	72.1935
 1.7730	72.1509
 1.7720	72.1570
 1.7710	72.2032
 1.7700	72.1859
 1.7690	72.1719
 1.7680	72.2019
 1.7670	72.1735
 1.7660	72.1462
 1.7650	72.2006
 1.7640	72.1911
 1.7630	72.1512
 1.7620	72.1954
 1.7610	72.2059
 1.7600	72.2057
 1.7590	72.1813
 1.7580	72.1737
 1.7570	72.1500
 1.7560	72.1208
 1.7550	72.1162
 1.7540	72.1437
 1.7530	72.2215
 1.7520	72.2093
 1.7510	72.1790
 1.7500	72.2401
 1.7490	72.2320
 1.7480	72.1679
 1.7470	72.1872
 1.7460	72.1925
 1.7450	72.2297
 1.7440	72.2337
 1.7430	72.2473
 1.7420	72.2481
 1.7410	72.2803
 1.7400	72.2111
 1.7390	72.2238
 1.7380	72.3343
 1.7370	72.3347
 1.7360	72.2394
 1.7350	72.2933
 1.7340	72.2895
 1.7330	72.2316
 1.7320	72.2004
 1.7310	72.2618
 1.7300	72.3268
 1.7290	72.3614
 1.7280	72.3218
 1.7270	72.2795
 1.7260	72.3251
 1.7250	72.3575
 1.7240	72.3389
 1.7230	72.3219
 1.7220	72.3031
 1.7210	72.2889
 1.7200	72.3594
 1.7190	72.3319
 1.7180	72.3156
 1.7170	72.2620
 1.7160	72.2657
 1.7150	72.3043
 1.7140	72.3323
 1.7130	72.3256
 1.7120	72.3578
 1.7110	72.3605
 1.7100	72.3014
 1.7090	72.3252
 1.7080	72.3314
 1.7070	72.2729
 1.7060	72.2600
 1.7050	72.2500
 1.7040	72.3187
 1.7030	72.3322
 1.7020	72.2840
 1.7010	72.3121
 1.7000	72.3211
 1.6990	72.3131
 1.6980	72.2721
 1.6970	72.2957
 1.6960	72.3196
 1.6950	72.3253
 1.6940	72.3239
 1.6930	72.2840
 1.6920	72.3371
 1.6910	72.3215
 1.6900	72.2232
 1.6890	72.3370
 1.6880	72.2990
 1.6870	72.3469
 1.6860	72.1986
 1.6850	72.2306
 1.6840	72.2501
 1.6830	72.2542
 1.6820	72.3026
 1.6810	72.3176
 1.6800	72.2598
 1.6790	72.2692
 1.6780	72.2630
 1.6770	72.2838
 1.6760	72.2589
 1.6750	72.3243
 1.6740	72.2604
 1.6730	72.3228
 1.6720	72.1988
 1.6710	72.2653
 1.6700	72.3326
 1.6690	72.3231
 1.6680	72.2459
 1.6670	72.3016
 1.6660	72.2969
 1.6650	72.3215
 1.6640	72.2222
 1.6630	72.2411
 1.6620	72.2858
 1.6610	72.3000
 1.6600	72.2462
 1.6590	72.2234
 1.6580	72.2356
 1.6570	72.2798
 1.6560	72.2846
 1.6550	72.2911
 1.6540	72.2533
 1.6530	72.3459
 1.6520	72.3164
 1.6510	72.3076
 1.6500	72.1914
 1.6490	72.2310
 1.6480	72.2731
 1.6470	72.3294
 1.6460	72.3418
 1.6450	72.3255
 1.6440	72.2994
 1.6430	72.2506
 1.6420	72.3684
 1.6410	72.1476
 1.6400	72.2275
 1.6390	72.3223
 1.6380	72.2575
 1.6370	72.2866
 1.6360	72.2562
 1.6350	72.2843
 1.6340	72.2690
 1.6330	72.2863
 1.6320	72.2856
 1.6310	72.2879
 1.6300	72.3530
 1.6290	72.3092
 1.6280	72.2966
 1.6270	72.2811
 1.6260	72.3040
 1.6250	72.3347
 1.6240	72.2921
 1.6230	72.3633
 1.6220	72.2675
 1.6210	72.2873
 1.6200	72.2904
 1.6190	72.3780
 1.6180	72.3201
 1.6170	72.2655
 1.6160	72.2836
 1.6150	72.2982
 1.6140	72.1920
 1.6130	72.2569
 1.6120	72.2551
 1.6110	72.2985
 1.6100	72.2944
 1.6090	72.3504
 1.6080	72.2890
 1.6070	72.3065
 1.6060	72.2765
 1.6050	72.3187
 1.6040	72.3169
 1.6030	72.3093
 1.6020	72.2691
 1.6010	72.3435
 1.6000	72.2803
 1.5990	72.3063
 1.5980	72.2738
 1.5970	72.3644
 1.5960	72.2657
 1.5950	72.2818
 1.5940	72.2855
 1.5930	72.3001
 1.5920	72.2704
 1.5910	72.2678
 1.5900	72.3188
 1.5890	72.2538
 1.5880	72.2515
 1.5870	72.2859
 1.5860	72.2828
 1.5850	72.3204
 1.5840	72.2841
 1.5830	72.3115
 1.5820	72.2074
 1.5810	72.3022
 1.5800	72.2694
 1.5790	72.2959
 1.5780	72.2659
 1.5770	72.2696
 1.5760	72.1922
 1.5750	72.2872
 1.5740	72.3098
 1.5730	72.2595
 1.5720	72.2068
 1.5710	72.2080
 1.5700	72.2173
 1.5690	72.2422
 1.5680	72.2288
 1.5670	72.2742
 1.5660	72.1986
 1.5650	72.2319
 1.5640	72.2919
 1.5630	72.2372
 1.5620	72.2791
 1.5610	72.2785
 1.5600	72.2353
 1.5590	72.2466
 1.5580	72.2488
 1.5570	72.2338
 1.5560	72.1930
 1.5550	72.2618
 1.5540	72.2737
 1.5530	72.2583
 1.5520	72.2259
 1.5510	72.2449
 1.5500	72.1809
 1.5490	72.2124
 1.5480	72.2100
 1.5470	72.2381
 1.5460	72.1982
 1.5450	72.1657
 1.5440	72.1654
 1.5430	72.2039
 1.5420	72.2315
 1.5410	72.2252
 1.5400	72.1995
 1.5390	72.2328
 1.5380	72.2536
 1.5370	72.2449
 1.5360	72.1417
 1.5350	72.1686
 1.5340	72.1612
 1.5330	72.1842
 1.5320	72.1961
 1.5310	72.1547
 1.5300	72.1754
 1.5290	72.1612
 1.5280	72.1623
 1.5270	72.1390
 1.5260	72.1211
 1.5250	72.1825
 1.5240	72.1982
 1.5230	72.1749
 1.5220	72.1518
 1.5210	72.1867
 1.5200	72.1704
 1.5190	72.1141
 1.5180	72.1266
 1.5170	72.1766
 1.5160	72.1575
 1.5150	72.1733
 1.5140	72.1916
 1.5130	72.1264
 1.5120	72.1038
 1.5110	72.1581
 1.5100	72.1615
 1.5090	72.1279
 1.5080	72.1391
 1.5070	72.1372
 1.5060	72.0967
 1.5050	72.1014
 1.5040	72.1409
 1.5030	72.1355
 1.5020	72.1168
 1.5010	72.0832
 1.5000	72.0757
 1.4990	72.1395
 1.4980	72.1492
 1.4970	72.1339
 1.4960	72.0949
 1.4950	72.0995
 1.4940	72.1193
 1.4930	72.0942
 1.4920	72.0751
 1.4910	72.0294
 1.4900	72.0462
 1.4890	72.0354
 1.4880	71.9918
 1.4870	72.0430
 1.4860	72.0354
 1.4850	72.0276
 1.4840	72.0769
 1.4830	72.0603
 1.4820	71.9836
 1.4810	71.9554
 1.4800	72.0483
 1.4790	72.0899
 1.4780	72.0039
 1.4770	71.9674
 1.4760	72.0173
 1.4750	72.0219
 1.4740	72.0307
 1.4730	72.0214
 1.4720	71.9823
 1.4710	72.0073
 1.4700	72.0992
 1.4690	72.0656
 1.4680	72.0145
 1.4670	72.0049
 1.4660	71.9976
 1.4650	72.0021
 1.4640	72.0137
 1.4630	71.9639
 1.4620	72.0231
 1.4610	71.9988
 1.4600	71.9945
 1.4590	72.0146
 1.4580	72.0230
 1.4570	72.0155
 1.4560	71.9947
 1.4550	71.9252
 1.4540	71.9447
 1.4530	71.9581
 1.4520	71.9895
 1.4510	71.9757
 1.4500	71.9783
 1.4490	71.9805
 1.4480	71.9331
 1.4470	71.9769
 1.4460	72.0149
 1.4450	72.0083
 1.4440	71.9923
 1.4430	71.9690
 1.4420	71.9879
 1.4410	71.9265
 1.4400	71.9072
 1.4390	71.9320
 1.4380	71.9331
 1.4370	71.9075
 1.4360	71.9366
 1.4350	71.8689
 1.4340	71.8990
 1.4330	71.9351
 1.4320	71.9094
 1.4310	71.9200
 1.4300	71.9023
 1.4290	71.9270
 1.4280	71.9376
 1.4270	71.9108
 1.4260	71.9022
 1.4250	71.9227
 1.4240	71.8966
 1.4230	71.9757
 1.4220	71.9956
 1.4210	71.9034
 1.4200	71.8788
 1.4190	71.8800
 1.4180	71.8425
 1.4170	71.9045
 1.4160	71.8779
 1.4150	71.8738
 1.4140	71.9160
 1.4130	71.8290
 1.4120	71.8367
 1.4110	71.8650
 1.4100	71.8883
 1.4090	71.8666
 1.4080	71.8787
 1.4070	71.8545
 1.4060	71.9136
 1.4050	71.9200
 1.4040	71.8736
 1.4030	71.8543
 1.4020	71.8778
 1.4010	71.8006
 1.4000	71.7941
 1.3990	71.8758
 1.3980	71.9509
 1.3970	71.9233
 1.3960	71.9848
 1.3950	71.8844
 1.3940	71.9470
 1.3930	71.9078
 1.3920	71.9709
 1.3910	71.8828
 1.3900	71.9338
 1.3890	71.8969
 1.3880	71.9449
 1.3870	71.9412
 1.3860	71.9826
 1.3850	71.9519
 1.3840	71.9206
 1.3830	71.8610
 1.3820	71.8147
 1.3810	71.8534
 1.3800	71.9449
 1.3790	71.9744
 1.3780	71.9095
 1.3770	71.8889
 1.3760	71.8888
 1.3750	71.8133
 1.3740	71.9167
 1.3730	71.8421
 1.3720	71.8919
 1.3710	71.8333
 1.3700	71.8509
 1.3690	71.8148
 1.3680	71.8358
 1.3670	71.8030
 1.3660	71.9339
 1.3650	71.8354
 1.3640	71.8164
 1.3630	71.8588
 1.3620	71.8394
 1.3610	71.8221
 1.3600	71.8612
 1.3590	71.7853
 1.3580	71.8560
 1.3570	71.8225
 1.3560	71.8098
 1.3550	71.6480
 1.3540	71.7900
 1.3530	71.7716
 1.3520	71.8131
 1.3510	71.8025
 1.3500	71.7690
 1.3490	71.7635
 1.3480	71.7899
 1.3470	71.7399
 1.3460	71.7953
 1.3450	71.7188
 1.3440	71.8758
 1.3430	71.7988
 1.3420	71.7825
 1.3410	71.7534
 1.3400	71.7826
 1.3390	71.7268
 1.3380	71.7418
 1.3370	71.7581
 1.3360	71.7251
 1.3350	71.6853
 1.3340	71.7355
 1.3330	71.6987
 1.3320	71.6924
 1.3310	71.7779
 1.3300	71.6951
 1.3290	71.7361
 1.3280	71.6843
 1.3270	71.6820
 1.3260	71.6870
 1.3250	71.6697
 1.3240	71.6635
 1.3230	71.6630
 1.3220	71.5981
 1.3210	71.6242
 1.3200	71.6610
 1.3190	71.6573
 1.3180	71.6490
 1.3170	71.6659
 1.3160	71.6795
 1.3150	71.7042
 1.3140	71.6547
 1.3130	71.5730
 1.3120	71.6973
 1.3110	71.6128
 1.3100	71.6605
 1.3090	71.5531
 1.3080	71.6006
 1.3070	71.6565
 1.3060	71.6512
 1.3050	71.5921
 1.3040	71.6159
 1.3030	71.5707
 1.3020	71.5809
 1.3010	71.5204
 1.3000	71.6177
 1.2990	71.6094
 1.2980	71.5983
 1.2970	71.4985
 1.2960	71.5001
 1.2950	71.5703
 1.2940	71.5730
 1.2930	71.5838
 1.2920	71.5359
 1.2910	71.5142
 1.2900	71.5310
 1.2890	71.5989
 1.2880	71.6113
 1.2870	71.4760
 1.2860	71.4807
 1.2850	71.5463
 1.2840	71.4959
 1.2830	71.4888
 1.2820	71.4881
 1.2810	71.4883
 1.2800	71.5239
 1.2790	71.4958
 1.2780	71.5176
 1.2770	71.5276
 1.2760	71.5186
 1.2750	71.4736
 1.2740	71.4715
 1.2730	71.4463
 1.2720	71.5118
 1.2710	71.5396
 1.2700	71.5266
 1.2690	71.4596
 1.2680	71.4404
 1.2670	71.4455
 1.2660	71.5368
 1.2650	71.5189
 1.2640	71.5001
 1.2630	71.4753
 1.2620	71.4701
 1.2610	71.4732
 1.2600	71.4538
 1.2590	71.4674
 1.2580	71.4798
 1.2570	71.4422
 1.2560	71.4676
 1.2550	71.4199
 1.2540	71.3596
 1.2530	71.3977
 1.2520	71.4380
 1.2510	71.4410
 1.2500	71.4202
 1.2490	71.3731
 1.2480	71.3873
 1.2470	71.3918
 1.2460	71.3910
 1.2450	71.3531
 1.2440	71.3408
 1.2430	71.3637
 1.2420	71.3910
 1.2410	71.3758
 1.2400	71.3655
 1.2390	71.4220
 1.2380	71.4230
 1.2370	71.3542
 1.2360	71.3126
 1.2350	71.3604
 1.2340	71.3271
 1.2330	71.3170
 1.2320	71.3229
 1.2310	71.3010
 1.2300	71.3037
 1.2290	71.3005
 1.2280	71.3086
 1.2270	71.3193
 1.2260	71.3490
 1.2250	71.3436
 1.2240	71.2793
 1.2230	71.2321
 1.2220	71.2515
 1.2210	71.2724
 1.2200	71.2539
 1.2190	71.2675
 1.2180	71.2787
 1.2170	71.2709
 1.2160	71.2476
 1.2150	71.2284
 1.2140	71.2324
 1.2130	71.2348
 1.2120	71.2373
 1.2110	71.2092
 1.2100	71.2440
 1.2090	71.2727
 1.2080	71.2380
 1.2070	71.1979
 1.2060	71.1744
 1.2050	71.1984
 1.2040	71.2170
 1.2030	71.1990
 1.2020	71.2038
 1.2010	71.1623
 1.2000	71.1191
 1.1990	71.1493
 1.1980	71.1609
 1.1970	71.1969
 1.1960	71.1479
 1.1950	71.1427
 1.1940	71.1921
 1.1930	71.1763
 1.1920	71.1445
 1.1910	71.2026
 1.1900	71.1859
 1.1890	71.1204
 1.1880	71.0595
 1.1870	71.0484
 1.1860	71.1044
 1.1850	71.1384
 1.1840	71.0627
 1.1830	71.0869
 1.1820	71.1331
 1.1810	71.1300
 1.1800	71.0726
 1.1790	71.0616
 1.1780	71.0534
 1.1770	71.0228
 1.1760	71.0710
 1.1750	71.0972
 1.1740	71.0371
 1.1730	71.0397
 1.1720	71.0608
 1.1710	71.0950
 1.1700	71.0860
 1.1690	71.0810
 1.1680	71.0576
 1.1670	71.0245
 1.1660	71.0635
 1.1650	71.0608
 1.1640	71.0581
 1.1630	70.9917
 1.1620	71.0119
 1.1610	71.0155
 1.1600	70.9526
 1.1590	70.9425
 1.1580	70.9933
 1.1570	70.9964
 1.1560	70.9783
 1.1550	71.0153
 1.1540	70.9900
 1.1530	71.0048
 1.1520	70.9712
 1.1510	70.9243
 1.1500	70.9336
 1.1490	70.9843
 1.1480	70.9240
 1.1470	70.9605
 1.1460	70.8975
 1.1450	70.9489
 1.1440	70.9172
 1.1430	70.9020
 1.1420	70.8760
 1.1410	70.9392
 1.1400	70.9051
 1.1390	70.8984
 1.1380	70.9231
 1.1370	70.8898
 1.1360	70.9162
 1.1350	70.9307
 1.1340	70.8816
 1.1330	70.8753
 1.1320	70.8360
 1.1310	70.9076
 1.1300	70.8217
 1.1290	70.8906
 1.1280	70.8091
 1.1270	70.7787
 1.1260	70.8825
 1.1250	70.8448
 1.1240	70.8155
 1.1230	70.8013
 1.1220	70.8374
 1.1210	70.8776
 1.1200	70.8194
 1.1190	70.8078
 1.1180	70.7954
 1.1170	70.8558
 1.1160	70.7861
 1.1150	70.8024
 1.1140	70.7686
 1.1130	70.7613
 1.1120	70.7714
 1.1110	70.7768
 1.1100	70.7256
 1.1090	70.7112
 1.1080	70.7070
 1.1070	70.7895
 1.1060	70.6988
 1.1050	70.7405
 1.1040	70.7471
 1.1030	70.6890
 1.1020	70.6393
 1.1010	70.6790
 1.1000	70.7737
 1.0990	70.7304
 1.0980	70.6327
 1.0970	70.6206
 1.0960	70.6243
 1.0950	70.7150
 1.0940	70.6239
 1.0930	70.6549
 1.0920	70.5852
 1.0910	70.6149
 1.0900	70.6190
 1.0890	70.5889
 1.0880	70.5706
 1.0870	70.6339
 1.0860	70.5903
 1.0850	70.6193
 1.0840	70.5837
 1.0830	70.5674
 1.0820	70.5710
 1.0810	70.5366
 1.0800	70.6154
 1.0790	70.5602
 1.0780	70.6102
 1.0770	70.5302
 1.0760	70.5717
 1.0750	70.5452
 1.0740	70.5147
 1.0730	70.5039
 1.0720	70.4574
 1.0710	70.5550
 1.0700	70.4300
 1.0690	70.4819
 1.0680	70.4620
 1.0670	70.4899
 1.0660	70.4899
 1.0650	70.4924
 1.0640	70.3809
 1.0630	70.4744
 1.0620	70.4111
 1.0610	70.4713
 1.0600	70.5096
 1.0590	70.4778
 1.0580	70.3662
 1.0570	70.3788
 1.0560	70.4308
 1.0550	70.4129
 1.0540	70.3392
 1.0530	70.3677
 1.0520	70.3419
 1.0510	70.3468
 1.0500	70.3095
 1.0490	70.3408
 1.0480	70.3079
 1.0470	70.3976
 1.0460	70.3221
 1.0450	70.3315
 1.0440	70.3550
 1.0430	70.3170
 1.0420	70.2685
 1.0410	70.3247
 1.0400	70.3436
 1.0390	70.3190
 1.0380	70.3024
 1.0370	70.3318
 1.0360	70.2450
 1.0350	70.3178
 1.0340	70.2295
 1.0330	70.2464
 1.0320	70.2053
 1.0310	70.2179
 1.0300	70.1846
 1.0290	70.2815
 1.0280	70.2824
 1.0270	70.2985
 1.0260	70.2724
 1.0250	70.2644
 1.0240	70.1972
 1.0230	70.2121
 1.0220	70.1585
 1.0210	70.1801
 1.0200	70.1705
 1.0190	70.1460
 1.0180	70.1161
 1.0170	70.2202
 1.0160	70.0857
 1.0150	70.1598
 1.0140	70.1229
 1.0130	70.1564
 1.0120	70.0588
 1.0110	70.1649
 1.0100	70.1053
 1.0090	70.0989
 1.0080	70.1041
 1.0070	70.0957
 1.0060	70.1202
 1.0050	70.0830
 1.0040	70.0821
 1.0030	70.0281
 1.0020	69.9894
 1.0010	70.0033
 1.0000	70.0544
 0.9990	70.0943
 0.9980	70.0071
 0.9970	69.9604
 0.9960	69.8956
 0.9950	69.9486
 0.9940	70.0197
 0.9930	69.9501
 0.9920	69.9933
 0.9910	69.9692
 0.9900	69.9883
 0.9890	70.0096
 0.9880	69.9783
 0.9870	69.9844
 0.9860	69.9100
 0.9850	69.9044
 0.9840	69.9244
 0.9830	69.9428
 0.9820	69.9116
 0.9810	69.9199
 0.9800	69.9067
 0.9790	69.8724
 0.9780	69.8568
 0.9770	69.8480
 0.9760	69.8435
 0.9750	69.8712
 0.9740	69.8617
 0.9730	69.8346
 0.9720	69.8004
 0.9710	69.8561
 0.9700	69.8671
 0.9690	69.8369
 0.9680	69.7982
 0.9670	69.8184
 0.9660	69.8005
 0.9650	69.8135
 0.9640	69.8047
 0.9630	69.7403
 0.9620	69.7687
 0.9610	69.7701
 0.9600	69.7417
 0.9590	69.7488
 0.9580	69.7472
 0.9570	69.7066
 0.9560	69.7156
 0.9550	69.7299
 0.9540	69.7160
 0.9530	69.6992
 0.9520	69.6646
 0.9510	69.6703
 0.9500	69.6685
 0.9490	69.6536
 0.9480	69.6159
 0.9470	69.6102
 0.9460	69.5838
 0.9450	69.6213
 0.9440	69.5736
 0.9430	69.5588
 0.9420	69.5568
 0.9410	69.5276
 0.9400	69.5510
 0.9390	69.5203
 0.9380	69.4980
 0.9370	69.5165
 0.9360	69.5136
 0.9350	69.5508
 0.9340	69.5522
 0.9330	69.4959
 0.9320	69.4860
 0.9310	69.4214
 0.9300	69.4512
 0.9290	69.5212
 0.9280	69.4746
 0.9270	69.4413
 0.9260	69.4326
 0.9250	69.4195
 0.9240	69.4388
 0.9230	69.4170
 0.9220	69.3938
 0.9210	69.3544
 0.9200	69.3501
 0.9190	69.3441
 0.9180	69.3049
 0.9170	69.2999
 0.9160	69.3382
 0.9150	69.3184
 0.9140	69.2487
 0.9130	69.2351
 0.9120	69.2542
 0.9110	69.2620
 0.9100	69.2495
 0.9090	69.2476
 0.9080	69.2384
 0.9070	69.2182
 0.9060	69.2243
 0.9050	69.1539
 0.9040	69.1021
 0.9030	69.1130
 0.9020	69.1399
 0.9010	69.1190
 0.9000	69.1071
 0.8990	69.1115
 0.8980	69.0943
 0.8970	69.0809
 0.8960	69.1236
 0.8950	69.1051
 0.8940	69.0424
 0.8930	69.0033
 0.8920	69.0349
 0.8910	68.9794
 0.8900	68.9741
 0.8890	68.9583
 0.8880	68.9947
 0.8870	68.9312
 0.8860	68.8893
 0.8850	68.9046
 0.8840	68.9195
 0.8830	68.9205
 0.8820	68.9334
 0.8810	68.9175
 0.8800	68.8575
 0.8790	68.7752
 0.8780	68.7763
 0.8770	68.7882
 0.8760	68.7600
 0.8750	68.7572
 0.8740	68.6718
 0.8730	68.7180
 0.8720	68.7637
 0.8710	68.6853
 0.8700	68.7277
 0.8690	68.7138
 0.8680	68.7060
 0.8670	68.6850
 0.8660	68.6556
 0.8650	68.6642
 0.8640	68.6540
 0.8630	68.5967
 0.8620	68.5561
 0.8610	68.5491
 0.8600	68.6254
 0.8590	68.7290
 0.8580	68.7959
 0.8570	68.6798
 0.8560	68.6763
 0.8550	68.7732
 0.8540	68.7722
 0.8530	68.6078
 0.8520	68.6498
 0.8510	68.7107
 0.8500	68.6840
 0.8490	68.6179
 0.8480	68.6368
 0.8470	68.6020
 0.8460	68.5455
 0.8450	68.5464
 0.8440	68.5616
 0.8430	68.5048
 0.8420	68.4811
 0.8410	68.5202
 0.8400	68.4531
 0.8390	68.4647
 0.8380	68.4747
 0.8370	68.4425
 0.8360	68.4172
 0.8350	68.4484
 0.8340	68.3707
 0.8330	68.3205
 0.8320	68.3635
 0.8310	68.3111
 0.8300	68.2702
 0.8290	68.3097
 0.8280	68.3240
 0.8270	68.2891
 0.8260	68.2781
 0.8250	68.2184
 0.8240	68.1702
 0.8230	68.2094
 0.8220	68.2325
 0.8210	68.2261
 0.8200	68.1758
 0.8190	68.1381
 0.8180	68.1099
 0.8170	68.0991
 0.8160	68.0735
 0.8150	68.0634
 0.8140	68.0738
 0.8130	68.0581
 0.8120	68.0554
 0.8110	68.0218
 0.8100	67.9761
 0.8090	67.9936
 0.8080	67.9421
 0.8070	67.9530
 0.8060	67.9019
 0.8050	67.8917
 0.8040	67.8730
 0.8030	67.8473
 0.8020	67.8675
 0.8010	67.7916
 0.8000	67.8394
 0.7990	67.7769
 0.7980	67.7548
 0.7970	67.7267
 0.7960	67.6547
 0.7950	67.6372
 0.7940	67.6379
 0.7930	67.5847
 0.7920	67.5723
 0.7910	67.5450
 0.7900	67.5377
 0.7890	67.5498
 0.7880	67.5174
 0.7870	67.4800
 0.7860	67.4674
 0.7850	67.4627
 0.7840	67.4481
 0.7830	67.4002
 0.7820	67.3902
 0.7810	67.3589
 0.7800	67.3021
 0.7790	67.2933
 0.7780	67.2641
 0.7770	67.2164
 0.7760	67.2217
 0.7750	67.1779
 0.7740	67.2038
 0.7730	67.1344
 0.7720	67.1434
 0.7710	67.1276
 0.7700	67.0443
 0.7690	67.0626
 0.7680	67.0790
 0.7670	67.0204
 0.7660	67.0184
 0.7650	66.9826
 0.7640	66.9387
 0.7630	66.9403
 0.7620	66.9235
 0.7610	66.8659
 0.7600	66.8455
 0.7590	66.8599
 0.7580	66.8248
 0.7570	66.7841
 0.7560	66.7778
 0.7550	66.7238
 0.7540	66.7218
 0.7530	66.7183
 0.7520	66.6785
 0.7510	66.6519
 0.7500	66.6433
 0.7490	66.6277
 0.7480	66.5907
 0.7470	66.5504
 0.7460	66.5532
 0.7450	66.5074
 0.7440	66.4716
 0.7430	66.4763
 0.7420	66.4459
 0.7410	66.3722
 0.7400	66.3916
 0.7390	66.3821
 0.7380	66.3226
 0.7370	66.3322
 0.7360	66.3053
 0.7350	66.2846
 0.7340	66.2634
 0.7330	66.2810
 0.7320	66.2298
 0.7310	66.1914
 0.7300	66.1628
 0.7290	66.1582
 0.7280	66.1106
 0.7270	66.0955
 0.7260	66.0887
 0.7250	66.0725
 0.7240	66.0351
 0.7230	65.9926
 0.7220	65.9818
 0.7210	65.9566
 0.7200	65.9251
 0.7190	65.9229
 0.7180	65.9015
 0.7170	65.8532
 0.7160	65.8276
 0.7150	65.8311
 0.7140	65.7809
 0.7130	65.7624
 0.7120	65.7644
 0.7110	65.7130
 0.7100	65.6908
 0.7090	65.6629
 0.7080	65.6509
 0.7070	65.6100
 0.7060	65.5849
 0.7050	65.5738
 0.7040	65.5446
 0.7030	65.5428
 0.7020	65.5207
 0.7010	65.4779
 0.7000	65.4392
 0.6990	65.4067
 0.6980	65.3801
 0.6970	65.3606
 0.6960	65.3340
 0.6950	65.3022
 0.6940	65.2994
 0.6930	65.2632
 0.6920	65.2231
 0.6910	65.1896
 0.6900	65.1812
 0.6890	65.1425
 0.6880	65.1148
 0.6870	65.0856
 0.6860	65.0621
 0.6850	65.0282
 0.6840	64.9997
 0.6830	64.9587
 0.6820	64.9283
 0.6810	64.9148
 0.6800	64.8837
 0.6790	64.8518
 0.6780	64.8257
 0.6770	64.7777
 0.6760	64.7356
 0.6750	64.7136
 0.6740	64.6800
 0.6730	64.6462
 0.6720	64.5991
 0.6710	64.5626
 0.6700	64.5298
 0.6690	64.4970
 0.6680	64.4582
 0.6670	64.4292
 0.6660	64.3876
 0.6650	64.3569
 0.6640	64.3219
 0.6630	64.2779
 0.6620	64.2334
 0.6610	64.1836
 0.6600	64.1450
 0.6590	64.1121
 0.6580	64.0719
 0.6570	64.0242
 0.6560	63.9796
 0.6550	63.9273
 0.6540	63.8864
 0.6530	63.8485
 0.6520	63.8115
 0.6510	63.7732
 0.6500	63.7217
 0.6490	63.6842
 0.6480	63.6397
 0.6470	63.5823
 0.6460	63.5370
 0.6450	63.5016
 0.6440	63.4588
 0.6430	63.4227
 0.6420	63.3651
 0.6410	63.3057
 0.6400	63.2638
 0.6390	63.2148
 0.6380	63.1746
 0.6370	63.1374
 0.6360	63.0834
 0.6350	63.0380
 0.6340	63.0006
 0.6330	62.9496
 0.6320	62.8949
 0.6310	62.8592
 0.6300	62.8230
 0.6290	62.7647
 0.6280	62.7053
 0.6270	62.6581
 0.6260	62.6123
 0.6250	62.5620
 0.6240	62.5147
 0.6230	62.4737
 0.6220	62.4221
 0.6210	62.3633
 0.6200	62.3129
 0.6190	62.2544
 0.6180	62.1970
 0.6170	62.1476
 0.6160	62.0951
 0.6150	62.0459
 0.6140	61.9907
 0.6130	61.9338
 0.6120	61.8843
 0.6110	61.8341
 0.6100	61.7777
 0.6090	61.7104
 0.6080	61.6505
 0.6070	61.5977
 0.6060	61.5395
 0.6050	61.4788
 0.6040	61.4094
 0.6030	61.3513
 0.6020	61.2890
 0.6010	61.2105
 0.6000	61.1484
 0.5990	61.1084
 0.5980	61.0496
 0.5970	60.9989
 0.5960	60.9397
 0.5950	60.8705
 0.5940	60.8105
 0.5930	60.7405
 0.5920	60.6616
 0.5910	60.5829
 0.5900	60.5028
 0.5890	60.4332
 0.5880	60.3473
 0.5870	60.2639
 0.5860	60.1912
 0.5850	60.1052
 0.5840	60.0082
 0.5830	59.9211
 0.5820	59.8255
 0.5810	59.7459
 0.5800	59.6663
 0.5790	59.5608
 0.5780	59.4821
 0.5770	59.3971
 0.5760	59.3081
 0.5750	59.2044
 0.5740	59.1158
 0.5730	59.0251
 0.5720	58.9273
 0.5710	58.8384
 0.5700	58.7408
 0.5690	58.6558
 0.5680	58.5622
 0.5670	58.4669
 0.5660	58.3874
 0.5650	58.3074
 0.5640	58.2124
 0.5630	58.1195
 0.5620	58.0345
 0.5610	57.9545
 0.5600	57.8642
 0.5590	57.7894
 0.5580	57.7060
 0.5570	57.6340
 0.5560	57.5308
 0.5550	57.4681
 0.5540	57.3846
 0.5530	57.3279
 0.5520	57.2550
 0.5510	57.1796
 0.5500	57.0971
 0.5490	57.0302
 0.5480	56.9730
 0.5470	56.9047
 0.5460	56.8491
 0.5450	56.7792
 0.5440	56.7196
 0.5430	56.6601
 0.5420	56.6213
 0.5410	56.5503
 0.5400	56.4868
 0.5390	56.4412
 0.5380	56.4010
 0.5370	56.3375
 0.5360	56.2901
 0.5350	56.2479
 0.5340	56.1957
 0.5330	56.1527
 0.5320	56.0991
 0.5310	56.0520
 0.5300	56.0134
 0.5290	55.9731
 0.5280	55.9165
 0.5270	55.8605
 0.5260	55.8052
 0.5250	55.7721
 0.5240	55.7017
 0.5230	55.6644
 0.5220	55.6199
 0.5210	55.5586
 0.5200	55.5180
 0.5190	55.4599
 0.5180	55.4095
 0.5170	55.3612
 0.5160	55.2948
 0.5150	55.2344
 0.5140	55.1850
 0.5130	55.1208
 0.5120	55.0665
 0.5110	55.0067
 0.5100	54.9313
 0.5090	54.8723
 0.5080	54.8100
 0.5070	54.7480
 0.5060	54.6710
 0.5050	54.6117
 0.5040	54.5240
 0.5030	54.4773
 0.5020	54.3924
 0.5010	54.3354
 0.5000	54.2462
 0.4990	54.1758
 0.4980	54.0942
 0.4970	54.0372
 0.4960	53.9758
 0.4950	53.8886
 0.4940	53.8115
 0.4930	53.7281
 0.4920	53.6450
 0.4910	53.5730
 0.4900	53.4978
 0.4890	53.4065
 0.4880	53.3050
 0.4870	53.2193
 0.4860	53.1509
 0.4850	53.0367
 0.4840	52.9515
 0.4830	52.8577
 0.4820	52.7437
 0.4810	52.6497
 0.4800	52.5384
 0.4790	52.4342
 0.4780	52.3229
 0.4770	52.2084
 0.4760	52.0916
 0.4750	51.9863
 0.4740	51.8545
 0.4730	51.7408
 0.4720	51.6027
 0.4710	51.4871
 0.4700	51.3627
 0.4690	51.2287
 0.4680	51.0989
 0.4670	50.9754
 0.4660	50.8389
 0.4650	50.7011
 0.4640	50.5837
 0.4630	50.4301
 0.4620	50.2959
 0.4610	50.1639
 0.4600	50.0295
 0.4590	49.8984
 0.4580	49.7656
 0.4570	49.6388
 0.4560	49.4945
 0.4550	49.3519
 0.4540	49.2166
 0.4530	49.0768
 0.4520	48.9459
 0.4510	48.8113
 0.4500	48.6737
 0.4490	48.5570
 0.4480	48.4401
 0.4470	48.3052
 0.4460	48.1816
 0.4450	48.0568
 0.4440	47.9177
 0.4430	47.7990
 0.4420	47.6935
 0.4410	47.5662
 0.4400	47.4523
 0.4390	47.3265
 0.4380	47.2380
 0.4370	47.1291
 0.4360	47.0259
 0.4350	46.9293
 0.4340	46.8153
 0.4330	46.7165
 0.4320	46.6189
 0.4310	46.5262
 0.4300	46.4277
 0.4290	46.3254
 0.4280	46.2232
 0.4270	46.1176
 0.4260	46.0089
 0.4250	45.9080
 0.4240	45.7916
 0.4230	45.6766
 0.4220	45.5547
 0.4210	45.4371
 0.4200	45.3045
 0.4190	45.1796
 0.4180	45.0361
 0.4170	44.8610
 0.4160	44.6414
 0.4150	44.3890
 0.4140	44.0410
 0.4130	43.5884
 0.4120	42.9066
 0.4110	41.8673
 0.4100	40.5801
 0.4090	39.2428
 0.4080	38.2516
 0.4070	37.9305
 0.4060	38.2946
 0.4050	39.2072
 0.4040	40.3116
 0.4030	41.1764
 0.4020	41.6776
 0.4010	41.9415
 0.4000	42.1146
