Name: Tschermigite (NH_4)Al(SO_4)_2.12H_2O
Type: Mineral
Class: Sulfate
Subclass: None
Particle Size: Coarse
Sample No.: SO-6A
Owner: JPL
Wavelength Range: VSWIR
Origin: USA, Nevada, Esmeralda County, Silver Peak
Collection Date: N/A
Description: Particle size was 125-500um.Collected by Burminco Original ASTER Spectral Library name was jpl.beckman.mineral.sulfate.none.coarse.so06a.spectrum.txt
Measurement: Hemispherical reflectance
First Column: X
Second Column: Y
X Units: Wavelength (micrometers)
Y Units:Reflectance (percent)
First X Value:  0.4000
Last X Value:  2.5000
Number of X Values: 826
Additional Information: mineral.sulfate.none.coarse.vswir.so-6a.jpl.beckman.ancillary.txt

 0.4000	82.9400
 0.4010	83.2900
 0.4020	83.2300
 0.4030	83.4300
 0.4040	83.4900
 0.4050	83.6700
 0.4060	83.8700
 0.4070	83.9500
 0.4080	83.8800
 0.4090	84.1100
 0.4100	84.2300
 0.4110	84.4700
 0.4120	84.5200
 0.4130	84.7000
 0.4140	85.0100
 0.4150	85.0200
 0.4160	85.0700
 0.4170	85.1800
 0.4180	85.4200
 0.4190	85.7300
 0.4200	85.6300
 0.4210	85.5100
 0.4220	85.8000
 0.4230	85.9100
 0.4240	86.0900
 0.4250	86.0500
 0.4260	86.2300
 0.4270	86.3600
 0.4280	86.3600
 0.4290	86.3500
 0.4300	86.4500
 0.4310	86.5800
 0.4320	86.6900
 0.4330	86.6500
 0.4340	86.7200
 0.4350	86.9400
 0.4360	86.8900
 0.4370	87.0600
 0.4380	86.9300
 0.4390	87.2400
 0.4400	87.4100
 0.4410	87.2900
 0.4420	87.2400
 0.4430	87.3100
 0.4440	87.3800
 0.4450	87.4400
 0.4460	87.3200
 0.4470	87.6200
 0.4480	87.7300
 0.4490	87.6200
 0.4500	87.6700
 0.4510	87.6000
 0.4520	87.6800
 0.4530	87.9100
 0.4540	87.7400
 0.4550	87.6400
 0.4560	87.7800
 0.4570	87.9200
 0.4580	88.0000
 0.4590	87.9500
 0.4600	88.1100
 0.4610	88.0600
 0.4620	88.0600
 0.4630	88.0100
 0.4640	88.2000
 0.4650	88.1900
 0.4660	88.1900
 0.4670	88.1200
 0.4680	88.0700
 0.4690	88.2400
 0.4700	88.2900
 0.4710	88.3000
 0.4720	88.2900
 0.4730	88.3000
 0.4740	88.3700
 0.4750	88.4800
 0.4760	88.3100
 0.4770	88.5000
 0.4780	88.4000
 0.4790	88.5200
 0.4800	88.5300
 0.4810	88.4000
 0.4820	88.5100
 0.4830	88.6500
 0.4840	88.5800
 0.4850	88.5900
 0.4860	88.4800
 0.4870	88.4900
 0.4880	88.5500
 0.4890	88.4400
 0.4900	88.5100
 0.4910	88.6300
 0.4920	88.6400
 0.4930	88.4800
 0.4940	88.4900
 0.4950	88.4400
 0.4960	88.5600
 0.4970	88.4600
 0.4980	88.5900
 0.4990	88.4800
 0.5000	88.4800
 0.5010	88.6000
 0.5020	88.4900
 0.5030	88.6600
 0.5040	88.6500
 0.5050	88.6100
 0.5060	88.6100
 0.5070	88.5500
 0.5080	88.6200
 0.5090	88.7300
 0.5100	88.6300
 0.5110	88.6300
 0.5120	88.5700
 0.5130	88.6400
 0.5140	88.6900
 0.5150	88.5200
 0.5160	88.5800
 0.5170	88.6800
 0.5180	88.6400
 0.5190	88.7000
 0.5200	88.5900
 0.5210	88.5900
 0.5220	88.7700
 0.5230	88.5500
 0.5240	88.6500
 0.5250	88.6100
 0.5260	88.6500
 0.5270	88.5400
 0.5280	88.5400
 0.5290	88.5300
 0.5300	88.6300
 0.5310	88.5700
 0.5320	88.5300
 0.5330	88.5100
 0.5340	88.5300
 0.5350	88.4400
 0.5360	88.3700
 0.5370	88.5400
 0.5380	88.7100
 0.5390	88.6400
 0.5400	88.6400
 0.5410	88.5300
 0.5420	88.5900
 0.5430	88.6500
 0.5440	88.4900
 0.5450	88.6200
 0.5460	88.5700
 0.5470	88.5800
 0.5480	88.6400
 0.5490	88.5400
 0.5500	88.6100
 0.5510	88.7800
 0.5520	88.7200
 0.5530	88.7300
 0.5540	88.6200
 0.5550	88.6800
 0.5560	88.7500
 0.5570	88.6200
 0.5580	88.7500
 0.5590	88.8300
 0.5600	88.7100
 0.5610	89.1700
 0.5620	89.0700
 0.5630	88.9500
 0.5640	88.9400
 0.5650	89.0500
 0.5660	89.0400
 0.5670	88.8100
 0.5680	88.8700
 0.5690	88.9300
 0.5700	88.7700
 0.5710	88.6000
 0.5720	88.5400
 0.5730	88.5300
 0.5740	88.5500
 0.5750	88.5200
 0.5760	88.6000
 0.5770	88.7500
 0.5780	88.6700
 0.5790	88.6000
 0.5800	88.4800
 0.5810	88.4800
 0.5820	88.5900
 0.5830	88.3500
 0.5840	88.5900
 0.5850	88.5900
 0.5860	88.6000
 0.5870	88.6500
 0.5880	88.6400
 0.5890	88.7000
 0.5900	88.7600
 0.5910	88.5400
 0.5920	88.6500
 0.5930	88.7000
 0.5940	88.6900
 0.5950	88.8200
 0.5960	88.6500
 0.5970	88.7800
 0.5980	88.9700
 0.5990	88.8200
 0.6000	88.8000
 0.6010	88.8300
 0.6020	88.8500
 0.6030	88.9800
 0.6040	88.7500
 0.6050	88.8200
 0.6060	88.9400
 0.6070	88.9500
 0.6080	89.0200
 0.6090	88.8500
 0.6100	88.8400
 0.6110	88.9600
 0.6120	88.7800
 0.6130	88.7800
 0.6140	88.7300
 0.6150	88.7900
 0.6160	88.8400
 0.6170	88.7900
 0.6180	88.8300
 0.6190	88.8900
 0.6200	88.7800
 0.6210	88.7800
 0.6220	88.7900
 0.6230	88.7800
 0.6240	88.9000
 0.6250	88.7900
 0.6260	88.6800
 0.6270	88.7400
 0.6280	88.8500
 0.6290	88.8900
 0.6300	88.8200
 0.6310	88.8900
 0.6320	88.9500
 0.6330	88.8500
 0.6340	88.9000
 0.6350	88.9000
 0.6360	88.7200
 0.6370	88.9600
 0.6380	88.7900
 0.6390	88.9000
 0.6400	88.9000
 0.6410	88.8300
 0.6420	88.9400
 0.6430	88.7700
 0.6440	88.8400
 0.6450	89.0800
 0.6460	88.8500
 0.6470	88.8500
 0.6480	88.8400
 0.6490	88.9100
 0.6500	89.0100
 0.6510	88.7300
 0.6520	88.9000
 0.6530	88.9500
 0.6540	88.8900
 0.6550	88.9400
 0.6560	88.8900
 0.6570	88.8300
 0.6580	89.0100
 0.6590	88.8400
 0.6600	88.7300
 0.6610	88.9500
 0.6620	88.7900
 0.6630	89.0200
 0.6640	88.7900
 0.6650	88.9600
 0.6660	89.0100
 0.6670	88.9500
 0.6680	88.8900
 0.6690	88.8300
 0.6700	88.9000
 0.6710	88.9000
 0.6720	88.8500
 0.6730	88.8400
 0.6740	88.9600
 0.6750	88.9100
 0.6760	88.8500
 0.6770	88.7900
 0.6780	88.9600
 0.6790	89.0600
 0.6800	88.9400
 0.6810	88.8300
 0.6820	88.8900
 0.6830	88.7800
 0.6840	88.9100
 0.6850	88.8000
 0.6860	88.9100
 0.6870	89.0200
 0.6880	88.8500
 0.6890	88.7400
 0.6900	88.7300
 0.6910	88.7800
 0.6920	88.8900
 0.6930	88.7200
 0.6940	88.9600
 0.6950	88.8500
 0.6960	88.7300
 0.6970	88.8300
 0.6980	88.7600
 0.6990	88.7700
 0.7000	88.8400
 0.7010	88.7500
 0.7020	88.7900
 0.7030	88.6900
 0.7040	88.6300
 0.7050	88.6900
 0.7060	88.7400
 0.7070	88.8000
 0.7080	88.8100
 0.7090	88.8600
 0.7100	88.7400
 0.7110	88.7300
 0.7120	88.7200
 0.7130	88.6200
 0.7140	88.8000
 0.7150	88.6900
 0.7160	88.7400
 0.7170	88.5700
 0.7180	88.6800
 0.7190	88.6900
 0.7200	88.8000
 0.7210	88.6300
 0.7220	88.6200
 0.7230	88.7300
 0.7240	88.6300
 0.7250	88.5300
 0.7260	88.5300
 0.7270	88.5800
 0.7280	88.5800
 0.7290	88.5800
 0.7300	88.5800
 0.7310	88.4600
 0.7320	88.4500
 0.7330	88.5100
 0.7340	88.4600
 0.7350	88.5800
 0.7360	88.6300
 0.7370	88.5200
 0.7380	88.3400
 0.7390	88.3400
 0.7400	88.4100
 0.7410	88.4600
 0.7420	88.4000
 0.7430	88.3300
 0.7440	88.3400
 0.7450	88.1700
 0.7460	88.1800
 0.7470	88.0600
 0.7480	88.1800
 0.7490	88.2400
 0.7500	88.0600
 0.7510	87.9900
 0.7520	87.9800
 0.7530	87.9300
 0.7540	87.9900
 0.7550	87.8900
 0.7560	88.1100
 0.7570	87.9400
 0.7580	87.8300
 0.7590	87.7200
 0.7600	87.8200
 0.7610	87.8100
 0.7620	87.7700
 0.7630	87.7900
 0.7640	87.9000
 0.7650	87.8200
 0.7660	87.7800
 0.7670	87.7700
 0.7680	87.6600
 0.7690	87.7200
 0.7700	87.8200
 0.7710	87.7200
 0.7720	87.6700
 0.7730	87.7300
 0.7740	87.7100
 0.7750	87.8300
 0.7760	87.6700
 0.7770	87.7300
 0.7780	87.8900
 0.7790	87.6500
 0.7800	87.6000
 0.7810	87.6700
 0.7820	87.7400
 0.7830	87.7800
 0.7840	87.6700
 0.7850	87.6300
 0.7860	87.6800
 0.7870	87.7200
 0.7880	87.7100
 0.7890	87.5500
 0.7900	87.6300
 0.7910	87.8000
 0.7920	87.7300
 0.7930	87.5600
 0.7940	87.5500
 0.7950	87.6100
 0.7960	87.7600
 0.7970	87.5800
 0.7980	87.6500
 0.7990	87.7100
 0.8000	87.7100
 0.8040	87.6500
 0.8080	87.7100
 0.8120	87.6200
 0.8160	87.6400
 0.8200	87.5900
 0.8240	87.6000
 0.8280	87.5200
 0.8320	87.4400
 0.8360	87.3800
 0.8400	87.2600
 0.8440	87.2600
 0.8480	87.2100
 0.8520	87.1200
 0.8560	87.0000
 0.8600	86.8900
 0.8640	86.7200
 0.8680	86.7100
 0.8720	86.6400
 0.8760	86.4800
 0.8800	86.2800
 0.8840	86.1100
 0.8880	86.1200
 0.8920	85.9100
 0.8960	85.8000
 0.9000	85.6900
 0.9040	85.6200
 0.9080	85.5600
 0.9120	85.3800
 0.9160	85.1700
 0.9200	85.0300
 0.9240	84.9700
 0.9280	84.7900
 0.9320	84.6100
 0.9360	84.3900
 0.9400	84.1700
 0.9440	84.0000
 0.9480	83.7000
 0.9520	83.2800
 0.9560	82.9500
 0.9600	82.4400
 0.9640	81.8400
 0.9680	81.3200
 0.9720	80.6200
 0.9760	79.9400
 0.9800	79.3700
 0.9840	78.9800
 0.9880	78.7300
 0.9920	78.4200
 0.9960	78.3300
 1.0000	78.2000
 1.0040	78.1200
 1.0080	78.1600
 1.0120	78.2800
 1.0160	78.3600
 1.0200	78.5700
 1.0240	78.7300
 1.0280	78.9300
 1.0320	79.1300
 1.0360	79.4100
 1.0400	79.6700
 1.0440	79.8200
 1.0480	79.9600
 1.0520	79.9100
 1.0560	80.0900
 1.0600	80.0800
 1.0640	80.0300
 1.0680	79.9600
 1.0720	79.8300
 1.0760	79.7500
 1.0800	79.5300
 1.0840	79.4200
 1.0880	79.1700
 1.0920	78.9200
 1.0960	78.6300
 1.1000	78.3200
 1.1040	78.1200
 1.1080	77.8000
 1.1120	77.5200
 1.1160	77.2500
 1.1200	77.1300
 1.1240	76.8700
 1.1280	76.5600
 1.1320	76.1500
 1.1360	75.6100
 1.1400	75.1400
 1.1440	74.5300
 1.1480	73.7200
 1.1520	72.8100
 1.1560	71.7900
 1.1600	70.6600
 1.1640	69.6300
 1.1680	68.7400
 1.1720	67.8200
 1.1760	67.0300
 1.1800	66.4700
 1.1840	65.8500
 1.1880	65.3800
 1.1920	64.8800
 1.1960	64.4000
 1.2000	63.9400
 1.2040	63.5100
 1.2080	63.2200
 1.2120	62.7700
 1.2160	62.4900
 1.2200	62.2300
 1.2240	62.0300
 1.2280	61.8800
 1.2320	61.7200
 1.2360	61.4800
 1.2400	61.2700
 1.2440	61.1700
 1.2480	61.0200
 1.2520	61.2200
 1.2560	61.2300
 1.2600	61.3200
 1.2640	61.3900
 1.2680	61.4200
 1.2720	61.4700
 1.2760	61.4600
 1.2800	61.5100
 1.2840	61.4400
 1.2880	61.3400
 1.2920	61.1200
 1.2960	60.8800
 1.3000	60.4500
 1.3040	60.0600
 1.3080	59.6300
 1.3120	59.1100
 1.3160	58.4200
 1.3200	57.7600
 1.3240	56.9800
 1.3280	56.2100
 1.3320	55.5500
 1.3360	54.7700
 1.3400	53.9800
 1.3440	53.3100
 1.3480	52.6400
 1.3520	52.1600
 1.3560	51.6100
 1.3600	51.1100
 1.3640	50.7200
 1.3680	50.2300
 1.3720	49.8700
 1.3760	49.4700
 1.3800	49.0600
 1.3840	48.5600
 1.3880	47.9600
 1.3920	47.0700
 1.3960	45.9800
 1.4000	44.6800
 1.4040	43.0500
 1.4080	41.1800
 1.4120	39.1700
 1.4160	37.0300
 1.4200	34.7300
 1.4240	32.3200
 1.4280	30.1200
 1.4320	27.9600
 1.4360	26.0500
 1.4400	24.2700
 1.4440	22.7800
 1.4480	21.5700
 1.4520	20.5300
 1.4560	19.7600
 1.4600	19.1300
 1.4640	18.6500
 1.4680	18.2100
 1.4720	17.9300
 1.4760	17.7100
 1.4800	17.7700
 1.4840	17.7500
 1.4880	17.8900
 1.4920	18.0100
 1.4960	17.9900
 1.5000	17.9800
 1.5040	17.8700
 1.5080	17.6800
 1.5120	17.4500
 1.5160	17.2000
 1.5200	16.9500
 1.5240	16.6900
 1.5280	16.4400
 1.5320	16.0800
 1.5360	15.8700
 1.5400	15.6500
 1.5440	15.4300
 1.5480	15.1800
 1.5520	15.1900
 1.5560	14.9400
 1.5600	14.8600
 1.5640	14.8000
 1.5680	14.6200
 1.5720	14.7200
 1.5760	14.6800
 1.5800	14.6800
 1.5840	14.5500
 1.5880	14.5600
 1.5920	14.5100
 1.5960	14.4900
 1.6000	14.4000
 1.6040	14.4100
 1.6080	14.3100
 1.6120	14.2900
 1.6160	14.2300
 1.6200	14.0400
 1.6240	13.9400
 1.6280	13.8900
 1.6320	13.7300
 1.6360	13.5900
 1.6400	13.4700
 1.6440	13.4000
 1.6480	13.2700
 1.6520	13.0700
 1.6560	12.7900
 1.6600	12.6600
 1.6640	12.4700
 1.6680	12.2700
 1.6720	12.1100
 1.6760	11.8700
 1.6800	11.6500
 1.6840	11.4100
 1.6880	11.1700
 1.6920	11.0000
 1.6960	10.7100
 1.7000	10.3600
 1.7040	10.1600
 1.7080	 9.9500
 1.7120	 9.7800
 1.7160	 9.5500
 1.7200	 9.4000
 1.7240	 9.2500
 1.7280	 9.0300
 1.7320	 8.8700
 1.7360	 8.7100
 1.7400	 8.5400
 1.7440	 8.4300
 1.7480	 8.3300
 1.7520	 8.1500
 1.7560	 8.0200
 1.7600	 7.8000
 1.7640	 7.6200
 1.7680	 7.5700
 1.7720	 7.4600
 1.7760	 7.3600
 1.7800	 7.1900
 1.7840	 7.0800
 1.7880	 7.0100
 1.7920	 6.9400
 1.7960	 6.9200
 1.8000	 6.8600
 1.8040	 6.8600
 1.8080	 6.8300
 1.8120	 6.7500
 1.8160	 6.7900
 1.8200	 6.7300
 1.8240	 6.6900
 1.8280	 6.7000
 1.8320	 6.6300
 1.8360	 6.5600
 1.8400	 6.6400
 1.8440	 6.5000
 1.8480	 6.4700
 1.8520	 6.3700
 1.8560	 6.2700
 1.8600	 6.1500
 1.8640	 6.0700
 1.8680	 5.9200
 1.8720	 5.7200
 1.8760	 5.5900
 1.8800	 5.4200
 1.8840	 5.3000
 1.8880	 5.2700
 1.8920	 4.9900
 1.8960	 4.7200
 1.9000	 4.4200
 1.9040	 4.1500
 1.9080	 3.9200
 1.9120	 3.7700
 1.9160	 3.5600
 1.9200	 3.3600
 1.9240	 3.2000
 1.9280	 3.0200
 1.9320	 2.9000
 1.9360	 2.7900
 1.9400	 2.6700
 1.9440	 2.6500
 1.9480	 2.5900
 1.9520	 2.5300
 1.9560	 2.5200
 1.9600	 2.4600
 1.9640	 2.4500
 1.9680	 2.4500
 1.9720	 2.4400
 1.9760	 2.4400
 1.9800	 2.3200
 1.9840	 2.3200
 1.9880	 2.3800
 1.9920	 2.4300
 1.9960	 2.6100
 2.0000	 2.5500
 2.0040	 2.6600
 2.0080	 2.7100
 2.0120	 2.7700
 2.0160	 2.9800
 2.0200	 2.9900
 2.0240	 3.1000
 2.0280	 3.1600
 2.0320	 3.2100
 2.0360	 3.3200
 2.0400	 3.3200
 2.0440	 3.3700
 2.0480	 3.3600
 2.0520	 3.4600
 2.0560	 3.4700
 2.0600	 3.4200
 2.0640	 3.4800
 2.0680	 3.4900
 2.0720	 3.4800
 2.0760	 3.4700
 2.0800	 3.4700
 2.0840	 3.4800
 2.0880	 3.5200
 2.0920	 3.4100
 2.0960	 3.4200
 2.1000	 3.4200
 2.1040	 3.3100
 2.1080	 3.2700
 2.1120	 3.2800
 2.1160	 3.3300
 2.1200	 3.3500
 2.1240	 3.2400
 2.1280	 3.2000
 2.1320	 3.1500
 2.1360	 3.0800
 2.1400	 3.1400
 2.1440	 3.1400
 2.1480	 3.1500
 2.1520	 3.0400
 2.1560	 3.1400
 2.1600	 3.1500
 2.1640	 3.1900
 2.1680	 3.1200
 2.1720	 3.1400
 2.1760	 3.1300
 2.1800	 3.1400
 2.1840	 3.2000
 2.1880	 3.2100
 2.1920	 3.1400
 2.1960	 3.1400
 2.2000	 3.1500
 2.2040	 3.1600
 2.2080	 3.2100
 2.2120	 3.2100
 2.2160	 3.1500
 2.2200	 3.1500
 2.2240	 3.1500
 2.2280	 3.1600
 2.2320	 3.2700
 2.2360	 3.2100
 2.2400	 3.2000
 2.2440	 3.2000
 2.2480	 3.2100
 2.2520	 3.2100
 2.2560	 3.2700
 2.2600	 3.2000
 2.2640	 3.1900
 2.2680	 3.2000
 2.2720	 3.2500
 2.2760	 3.2500
 2.2800	 3.2100
 2.2840	 3.1400
 2.2880	 3.1400
 2.2920	 3.1600
 2.2960	 3.1400
 2.3000	 3.2000
 2.3040	 3.1300
 2.3080	 3.1300
 2.3120	 3.1800
 2.3160	 3.1100
 2.3200	 3.1700
 2.3240	 3.1700
 2.3280	 3.1700
 2.3320	 3.1500
 2.3360	 3.1900
 2.3400	 3.2100
 2.3440	 3.1900
 2.3480	 3.1800
 2.3520	 3.1100
 2.3560	 3.2100
 2.3600	 3.1600
 2.3640	 3.1700
 2.3680	 3.1700
 2.3720	 3.0400
 2.3760	 3.0400
 2.3800	 2.9400
 2.3840	 2.9400
 2.3880	 2.8800
 2.3920	 2.8800
 2.3960	 2.7200
 2.4000	 2.7600
 2.4040	 2.7000
 2.4080	 2.6000
 2.4120	 2.5400
 2.4160	 2.3800
 2.4200	 2.3200
 2.4240	 2.3200
 2.4280	 2.3200
 2.4320	 2.2600
 2.4360	 2.1500
 2.4400	 2.0900
 2.4440	 2.0400
 2.4480	 2.0400
 2.4520	 1.9800
 2.4560	 1.9200
 2.4600	 1.9800
 2.4640	 1.8600
 2.4680	 1.8200
 2.4720	 1.8300
 2.4760	 1.7000
 2.4800	 1.7000
 2.4840	 1.7100
 2.4880	 1.5900
 2.4920	 1.5900
 2.4960	 1.6500
 2.5000	 1.6500
