Name: Labradorite (Feldspar) (NaSi,CaAl)AlSi_2O_8
Type: Mineral
Class: Silicate
Subclass: Tectosilicate
Particle Size: Medium
Sample No.: TS-2B
Owner: JPL
Wavelength Range: VSWIR
Origin: Canada, Quebec, Lake St. John
Collection Date: N/A
Description: Particle size was 45-125um.Collected by Ward's Original ASTER Spectral Library name was jpl.beckman.mineral.silicate.tectosilicate.medium.ts02b.spectrum.txt
Measurement: Hemispherical reflectance
First Column: X
Second Column: Y
X Units: Wavelength (micrometers)
Y Units:Reflectance (percent)
First X Value:  0.4000
Last X Value:  2.5000
Number of X Values: 826
Additional Information: None

 0.4000	23.0000
 0.4010	23.0200
 0.4020	22.9500
 0.4030	22.9800
 0.4040	23.1300
 0.4050	23.0200
 0.4060	23.0200
 0.4070	23.1400
 0.4080	23.1600
 0.4090	23.2000
 0.4100	23.0700
 0.4110	23.0400
 0.4120	23.1600
 0.4130	23.1400
 0.4140	23.0100
 0.4150	23.0700
 0.4160	23.1700
 0.4170	23.1700
 0.4180	23.1700
 0.4190	23.1300
 0.4200	23.1600
 0.4210	23.1900
 0.4220	23.1400
 0.4230	22.9800
 0.4240	23.2200
 0.4250	23.1300
 0.4260	22.9900
 0.4270	23.0600
 0.4280	23.1300
 0.4290	23.2600
 0.4300	23.1700
 0.4310	23.1400
 0.4320	23.2300
 0.4330	23.2800
 0.4340	23.0500
 0.4350	23.1100
 0.4360	23.1300
 0.4370	23.2000
 0.4380	23.1400
 0.4390	23.0200
 0.4400	23.1400
 0.4410	23.2600
 0.4420	23.1400
 0.4430	23.2000
 0.4440	23.2000
 0.4450	23.2200
 0.4460	23.2300
 0.4470	23.1200
 0.4480	22.9800
 0.4490	23.2800
 0.4500	23.2200
 0.4510	23.0700
 0.4520	23.1200
 0.4530	23.1600
 0.4540	23.3100
 0.4550	23.1900
 0.4560	23.0000
 0.4570	23.2700
 0.4580	23.2800
 0.4590	23.2100
 0.4600	23.1000
 0.4610	23.2600
 0.4620	23.1000
 0.4630	23.1300
 0.4640	23.2400
 0.4650	23.3200
 0.4660	23.2100
 0.4670	23.1600
 0.4680	23.2400
 0.4690	23.3400
 0.4700	23.1700
 0.4710	23.1300
 0.4720	23.2100
 0.4730	23.2400
 0.4740	23.2000
 0.4750	23.0500
 0.4760	23.1700
 0.4770	23.2300
 0.4780	23.2400
 0.4790	23.2600
 0.4800	23.1100
 0.4810	23.1300
 0.4820	23.2700
 0.4830	23.1400
 0.4840	23.0800
 0.4850	23.2200
 0.4860	23.2200
 0.4870	23.1700
 0.4880	23.1400
 0.4890	23.2000
 0.4900	23.2600
 0.4910	23.2800
 0.4920	23.1700
 0.4930	23.2900
 0.4940	23.2300
 0.4950	23.2700
 0.4960	23.1700
 0.4970	23.2400
 0.4980	23.2700
 0.4990	23.2700
 0.5000	23.2000
 0.5010	23.2600
 0.5020	23.3600
 0.5030	23.3300
 0.5040	23.3000
 0.5050	23.2200
 0.5060	23.4100
 0.5070	23.3600
 0.5080	23.2600
 0.5090	23.2600
 0.5100	23.3200
 0.5110	23.3600
 0.5120	23.2700
 0.5130	23.2900
 0.5140	23.3200
 0.5150	23.3800
 0.5160	23.3500
 0.5170	23.3200
 0.5180	23.3900
 0.5190	23.4300
 0.5200	23.3000
 0.5210	23.3300
 0.5220	23.4100
 0.5230	23.3200
 0.5240	23.2000
 0.5250	23.2500
 0.5260	23.2900
 0.5270	23.4100
 0.5280	23.4800
 0.5290	23.3800
 0.5300	23.3600
 0.5310	23.4300
 0.5320	23.2900
 0.5330	23.3800
 0.5340	23.4300
 0.5350	23.3800
 0.5360	23.2300
 0.5370	23.3200
 0.5380	23.4500
 0.5390	23.4300
 0.5400	23.4900
 0.5410	23.4200
 0.5420	23.4600
 0.5430	23.4900
 0.5440	23.4000
 0.5450	23.4500
 0.5460	23.5200
 0.5470	23.6200
 0.5480	23.5200
 0.5490	23.5700
 0.5500	23.6400
 0.5510	23.8000
 0.5520	23.7100
 0.5530	23.7100
 0.5540	23.8600
 0.5550	23.9300
 0.5560	23.7400
 0.5570	23.7100
 0.5580	23.8100
 0.5590	23.9200
 0.5600	23.8900
 0.5610	24.1300
 0.5620	24.0900
 0.5630	24.0600
 0.5640	24.0300
 0.5650	24.2200
 0.5660	24.1500
 0.5670	24.1500
 0.5680	24.1300
 0.5690	24.2500
 0.5700	24.3500
 0.5710	24.1900
 0.5720	24.0900
 0.5730	24.3100
 0.5740	24.3500
 0.5750	24.1600
 0.5760	24.3300
 0.5770	24.3900
 0.5780	24.3800
 0.5790	24.4500
 0.5800	24.3400
 0.5810	24.4000
 0.5820	24.4600
 0.5830	24.3700
 0.5840	24.3700
 0.5850	24.5400
 0.5860	24.5600
 0.5870	24.4900
 0.5880	24.6400
 0.5890	24.6100
 0.5900	24.7800
 0.5910	24.6800
 0.5920	24.5900
 0.5930	24.7300
 0.5940	24.8500
 0.5950	24.6700
 0.5960	24.6400
 0.5970	24.9000
 0.5980	24.9600
 0.5990	24.8800
 0.6000	24.9600
 0.6010	25.1000
 0.6020	25.2800
 0.6030	25.1600
 0.6040	25.0100
 0.6050	25.1500
 0.6060	25.2000
 0.6070	25.1600
 0.6080	25.2400
 0.6090	25.1400
 0.6100	25.3000
 0.6110	25.3000
 0.6120	25.3300
 0.6130	25.3300
 0.6140	25.4800
 0.6150	25.4200
 0.6160	25.4700
 0.6170	25.4200
 0.6180	25.3900
 0.6190	25.4900
 0.6200	25.4900
 0.6210	25.3700
 0.6220	25.5600
 0.6230	25.6300
 0.6240	25.5200
 0.6250	25.6200
 0.6260	25.7000
 0.6270	25.7200
 0.6280	25.6800
 0.6290	25.6500
 0.6300	25.7300
 0.6310	25.8600
 0.6320	25.7500
 0.6330	25.6800
 0.6340	25.8900
 0.6350	25.8400
 0.6360	25.8300
 0.6370	25.9800
 0.6380	26.0200
 0.6390	26.1400
 0.6400	26.0300
 0.6410	25.9300
 0.6420	26.0300
 0.6430	26.1600
 0.6440	26.0600
 0.6450	26.1400
 0.6460	26.1000
 0.6470	26.2600
 0.6480	26.3000
 0.6490	26.2400
 0.6500	26.3200
 0.6510	26.4700
 0.6520	26.3900
 0.6530	26.3500
 0.6540	26.3700
 0.6550	26.3700
 0.6560	26.5300
 0.6570	26.5200
 0.6580	26.5200
 0.6590	26.6700
 0.6600	26.6600
 0.6610	26.6300
 0.6620	26.6400
 0.6630	26.9000
 0.6640	26.8300
 0.6650	26.8500
 0.6660	26.7800
 0.6670	26.8400
 0.6680	26.9600
 0.6690	26.9200
 0.6700	26.9100
 0.6710	27.1300
 0.6720	27.2000
 0.6730	27.0800
 0.6740	27.2000
 0.6750	27.2200
 0.6760	27.4200
 0.6770	27.3400
 0.6780	27.2400
 0.6790	27.3300
 0.6800	27.4700
 0.6810	27.3900
 0.6820	27.5100
 0.6830	27.5000
 0.6840	27.6900
 0.6850	27.6000
 0.6860	27.6500
 0.6870	27.6200
 0.6880	27.8000
 0.6890	27.7500
 0.6900	27.8300
 0.6910	27.7600
 0.6920	27.9100
 0.6930	28.0100
 0.6940	27.9400
 0.6950	27.9800
 0.6960	28.1500
 0.6970	28.2200
 0.6980	28.0600
 0.6990	28.2400
 0.7000	28.2400
 0.7010	28.2400
 0.7020	28.4000
 0.7030	28.3100
 0.7040	28.4700
 0.7050	28.4600
 0.7060	28.5000
 0.7070	28.6200
 0.7080	28.7300
 0.7090	28.6200
 0.7100	28.7700
 0.7110	28.8200
 0.7120	28.9000
 0.7130	28.8600
 0.7140	28.8900
 0.7150	28.9600
 0.7160	29.1600
 0.7170	29.0800
 0.7180	28.9900
 0.7190	29.3000
 0.7200	29.3800
 0.7210	29.2400
 0.7220	29.3500
 0.7230	29.3700
 0.7240	29.4900
 0.7250	29.5500
 0.7260	29.4300
 0.7270	29.5800
 0.7280	29.7600
 0.7290	29.7400
 0.7300	29.6400
 0.7310	29.9100
 0.7320	30.0000
 0.7330	29.9100
 0.7340	29.9500
 0.7350	30.0500
 0.7360	30.2000
 0.7370	30.2200
 0.7380	30.2200
 0.7390	30.4100
 0.7400	30.4300
 0.7410	30.3700
 0.7420	30.2900
 0.7430	30.5600
 0.7440	30.5600
 0.7450	30.4900
 0.7460	30.5300
 0.7470	30.6900
 0.7480	30.7500
 0.7490	30.7300
 0.7500	30.6700
 0.7510	30.7600
 0.7520	30.9600
 0.7530	30.8600
 0.7540	30.8000
 0.7550	31.0700
 0.7560	31.0500
 0.7570	30.9200
 0.7580	31.0900
 0.7590	31.0900
 0.7600	31.1300
 0.7610	31.1700
 0.7620	31.2400
 0.7630	31.1900
 0.7640	31.3200
 0.7650	31.3200
 0.7660	31.3400
 0.7670	31.5500
 0.7680	31.5100
 0.7690	31.4400
 0.7700	31.5500
 0.7710	31.7400
 0.7720	31.6300
 0.7730	31.6500
 0.7740	31.8400
 0.7750	31.7000
 0.7760	31.7600
 0.7770	31.7400
 0.7780	31.7800
 0.7790	31.9900
 0.7800	31.9700
 0.7810	31.8500
 0.7820	31.9500
 0.7830	32.0700
 0.7840	32.0900
 0.7850	31.9900
 0.7860	32.1600
 0.7870	32.2200
 0.7880	32.1400
 0.7890	32.1200
 0.7900	32.2600
 0.7910	32.3200
 0.7920	32.2400
 0.7930	32.2000
 0.7940	32.3100
 0.7950	32.5100
 0.7960	32.4200
 0.7970	32.4000
 0.7980	32.5900
 0.7990	32.6100
 0.8000	32.9800
 0.8040	33.0600
 0.8080	33.1100
 0.8120	33.1800
 0.8160	33.3100
 0.8200	33.4200
 0.8240	33.4800
 0.8280	33.6200
 0.8320	33.6800
 0.8360	33.7700
 0.8400	33.9100
 0.8440	33.9100
 0.8480	34.0300
 0.8520	34.1200
 0.8560	34.1600
 0.8600	34.2800
 0.8640	34.2400
 0.8680	34.3500
 0.8720	34.4200
 0.8760	34.4200
 0.8800	34.5500
 0.8840	34.5600
 0.8880	34.6200
 0.8920	34.6100
 0.8960	34.6800
 0.9000	34.7100
 0.9040	34.7400
 0.9080	34.7900
 0.9120	34.8300
 0.9160	34.8800
 0.9200	34.7900
 0.9240	34.8900
 0.9280	34.9500
 0.9320	34.9100
 0.9360	34.9200
 0.9400	35.0300
 0.9440	35.0300
 0.9480	35.0000
 0.9520	35.0100
 0.9560	35.0000
 0.9600	35.0000
 0.9640	34.9500
 0.9680	35.0000
 0.9720	34.9600
 0.9760	34.9200
 0.9800	34.8700
 0.9840	34.8900
 0.9880	34.8200
 0.9920	34.8000
 0.9960	34.8000
 1.0000	34.7600
 1.0040	34.6900
 1.0080	34.6400
 1.0120	34.5600
 1.0160	34.5300
 1.0200	34.5100
 1.0240	34.4700
 1.0280	34.3000
 1.0320	34.3400
 1.0360	34.2400
 1.0400	34.2800
 1.0440	34.1600
 1.0480	34.1300
 1.0520	34.1300
 1.0560	34.0300
 1.0600	33.9300
 1.0640	33.8400
 1.0680	33.8700
 1.0720	33.7700
 1.0760	33.6400
 1.0800	33.6400
 1.0840	33.5800
 1.0880	33.5200
 1.0920	33.4900
 1.0960	33.4900
 1.1000	33.4000
 1.1040	33.3300
 1.1080	33.3000
 1.1120	33.2600
 1.1160	33.2900
 1.1200	33.1400
 1.1240	33.1300
 1.1280	33.1400
 1.1320	33.0500
 1.1360	32.9400
 1.1400	32.8300
 1.1440	32.8000
 1.1480	32.8700
 1.1520	32.7000
 1.1560	32.7000
 1.1600	32.6800
 1.1640	32.5700
 1.1680	32.6100
 1.1720	32.5700
 1.1760	32.4700
 1.1800	32.3600
 1.1840	32.3600
 1.1880	32.3600
 1.1920	32.2400
 1.1960	32.2900
 1.2000	32.2200
 1.2040	32.2300
 1.2080	32.1400
 1.2120	32.1000
 1.2160	31.9600
 1.2200	32.0400
 1.2240	31.9600
 1.2280	31.9600
 1.2320	31.9500
 1.2360	31.9500
 1.2400	31.9700
 1.2440	31.9000
 1.2480	31.8600
 1.2520	31.7600
 1.2560	31.6700
 1.2600	31.7100
 1.2640	31.7100
 1.2680	31.7400
 1.2720	31.5800
 1.2760	31.6200
 1.2800	31.6400
 1.2840	31.5900
 1.2880	31.6500
 1.2920	31.5700
 1.2960	31.5500
 1.3000	31.5300
 1.3040	31.4800
 1.3080	31.4600
 1.3120	31.4400
 1.3160	31.3500
 1.3200	31.4100
 1.3240	31.4100
 1.3280	31.4500
 1.3320	31.4000
 1.3360	31.3300
 1.3400	31.3300
 1.3440	31.3100
 1.3480	31.3900
 1.3520	31.3500
 1.3560	31.4200
 1.3600	31.3700
 1.3640	31.4000
 1.3680	31.3500
 1.3720	31.3300
 1.3760	31.3500
 1.3800	31.2100
 1.3840	31.1900
 1.3880	31.1900
 1.3920	31.1000
 1.3960	31.0200
 1.4000	31.0400
 1.4040	31.0000
 1.4080	31.0400
 1.4120	31.0400
 1.4160	31.0900
 1.4200	31.1100
 1.4240	31.1600
 1.4280	31.1500
 1.4320	31.1500
 1.4360	31.2100
 1.4400	31.2100
 1.4440	31.2500
 1.4480	31.2000
 1.4520	31.1100
 1.4560	31.1100
 1.4600	31.1500
 1.4640	31.2000
 1.4680	31.2400
 1.4720	31.1800
 1.4760	31.2200
 1.4800	31.2000
 1.4840	31.2400
 1.4880	31.2400
 1.4920	31.2400
 1.4960	31.2200
 1.5000	31.2400
 1.5040	31.1300
 1.5080	31.1800
 1.5120	31.2600
 1.5160	31.2000
 1.5200	31.2600
 1.5240	31.2400
 1.5280	31.2600
 1.5320	31.2400
 1.5360	31.2400
 1.5400	31.3000
 1.5440	31.2600
 1.5480	31.3000
 1.5520	31.3000
 1.5560	31.3200
 1.5600	31.3200
 1.5640	31.3000
 1.5680	31.3200
 1.5720	31.3400
 1.5760	31.4200
 1.5800	31.3600
 1.5840	31.4000
 1.5880	31.4000
 1.5920	31.3600
 1.5960	31.4000
 1.6000	31.4500
 1.6040	31.4600
 1.6080	31.5000
 1.6120	31.4100
 1.6160	31.4100
 1.6200	31.3800
 1.6240	31.4200
 1.6280	31.4000
 1.6320	31.4700
 1.6360	31.5200
 1.6400	31.4600
 1.6440	31.5000
 1.6480	31.5500
 1.6520	31.6100
 1.6560	31.6100
 1.6600	31.7000
 1.6640	31.6700
 1.6680	31.6700
 1.6720	31.6300
 1.6760	31.6700
 1.6800	31.6600
 1.6840	31.7200
 1.6880	31.7200
 1.6920	31.8000
 1.6960	31.7700
 1.7000	31.7900
 1.7040	31.8100
 1.7080	31.8400
 1.7120	31.8800
 1.7160	31.8800
 1.7200	31.9200
 1.7240	31.8600
 1.7280	31.9400
 1.7320	31.9200
 1.7360	31.9400
 1.7400	32.0000
 1.7440	31.9600
 1.7480	31.9400
 1.7520	31.9800
 1.7560	32.0000
 1.7600	32.0800
 1.7640	32.0400
 1.7680	32.0800
 1.7720	32.0600
 1.7760	32.0900
 1.7800	32.1500
 1.7840	32.1700
 1.7880	32.1800
 1.7920	32.2500
 1.7960	32.2000
 1.8000	32.2600
 1.8040	32.2700
 1.8080	32.2500
 1.8120	32.3200
 1.8160	32.3700
 1.8200	32.3500
 1.8240	32.4200
 1.8280	32.4200
 1.8320	32.3900
 1.8360	32.4700
 1.8400	32.4500
 1.8440	32.4400
 1.8480	32.4800
 1.8520	32.4700
 1.8560	32.5100
 1.8600	32.5700
 1.8640	32.5700
 1.8680	32.5100
 1.8720	32.5000
 1.8760	32.5800
 1.8800	32.6600
 1.8840	32.5400
 1.8880	32.5300
 1.8920	32.5200
 1.8960	32.5200
 1.9000	32.4900
 1.9040	32.5200
 1.9080	32.5200
 1.9120	32.5800
 1.9160	32.5500
 1.9200	32.5600
 1.9240	32.6200
 1.9280	32.6600
 1.9320	32.6500
 1.9360	32.7100
 1.9400	32.6800
 1.9440	32.7800
 1.9480	32.7800
 1.9520	32.8000
 1.9560	32.8800
 1.9600	32.9800
 1.9640	33.0100
 1.9680	33.0500
 1.9720	33.0500
 1.9760	33.0600
 1.9800	33.1800
 1.9840	33.2400
 1.9880	33.2500
 1.9920	33.3200
 1.9960	33.4000
 2.0000	33.4300
 2.0040	33.4900
 2.0080	33.5600
 2.0120	33.6000
 2.0160	33.7000
 2.0200	33.6600
 2.0240	33.6200
 2.0280	33.7300
 2.0320	33.7400
 2.0360	33.7400
 2.0400	33.8100
 2.0440	33.8300
 2.0480	33.8000
 2.0520	33.8500
 2.0560	33.9300
 2.0600	33.9000
 2.0640	33.9400
 2.0680	34.0600
 2.0720	34.0800
 2.0760	34.1100
 2.0800	34.1600
 2.0840	34.3000
 2.0880	34.3500
 2.0920	34.3200
 2.0960	34.4600
 2.1000	34.4200
 2.1040	34.3900
 2.1080	34.4800
 2.1120	34.5100
 2.1160	34.4700
 2.1200	34.5500
 2.1240	34.5700
 2.1280	34.5900
 2.1320	34.6300
 2.1360	34.6600
 2.1400	34.7200
 2.1440	34.7800
 2.1480	34.7500
 2.1520	34.7700
 2.1560	34.7500
 2.1600	34.7200
 2.1640	34.7100
 2.1680	34.6900
 2.1720	34.7500
 2.1760	34.7600
 2.1800	34.8000
 2.1840	34.7500
 2.1880	34.7300
 2.1920	34.6900
 2.1960	34.7200
 2.2000	34.7600
 2.2040	34.7900
 2.2080	34.7700
 2.2120	34.8000
 2.2160	34.9400
 2.2200	34.9600
 2.2240	35.0100
 2.2280	35.0200
 2.2320	35.1000
 2.2360	35.1300
 2.2400	35.0900
 2.2440	35.0400
 2.2480	35.1400
 2.2520	35.1800
 2.2560	35.2100
 2.2600	35.1900
 2.2640	35.2700
 2.2680	35.2900
 2.2720	35.3000
 2.2760	35.3900
 2.2800	35.3000
 2.2840	35.4700
 2.2880	35.4300
 2.2920	35.5200
 2.2960	35.5500
 2.3000	35.4900
 2.3040	35.5700
 2.3080	35.6800
 2.3120	35.7200
 2.3160	35.7400
 2.3200	35.7800
 2.3240	35.7600
 2.3280	35.8000
 2.3320	35.8700
 2.3360	35.8900
 2.3400	35.9400
 2.3440	35.9100
 2.3480	35.9600
 2.3520	36.0600
 2.3560	36.0500
 2.3600	36.0200
 2.3640	36.1000
 2.3680	36.1500
 2.3720	36.1300
 2.3760	36.1800
 2.3800	36.1700
 2.3840	36.2400
 2.3880	36.2900
 2.3920	36.2600
 2.3960	36.3000
 2.4000	36.2900
 2.4040	36.3700
 2.4080	36.3500
 2.4120	36.4100
 2.4160	36.4500
 2.4200	36.4800
 2.4240	36.4300
 2.4280	36.4900
 2.4320	36.4600
 2.4360	36.5000
 2.4400	36.4900
 2.4440	36.5400
 2.4480	36.6000
 2.4520	36.5500
 2.4560	36.5900
 2.4600	36.6400
 2.4640	36.6300
 2.4680	36.6300
 2.4720	36.7000
 2.4760	36.6800
 2.4800	36.7500
 2.4840	36.8400
 2.4880	36.8900
 2.4920	36.9600
 2.4960	37.0000
 2.5000	37.0600
