Name: Bornite Cu_5FeS_4
Type: Mineral
Class: Sulfide
Subclass: None
Particle Size: Coarse
Sample No.: S-9A
Owner: JPL
Wavelength Range: VSWIR
Origin: USA, Arizona, Pinal County, Superior, Magma Mine
Collection Date: N/A
Description: Particle size was 125-500um.Collected by Burminco Original ASTER Spectral Library name was jpl.beckman.mineral.sulfide.none.coarse.s09a.spectrum.txt
Measurement: Hemispherical reflectance
First Column: X
Second Column: Y
X Units: Wavelength (micrometers)
Y Units:Reflectance (percent)
First X Value:  0.4000
Last X Value:  2.5000
Number of X Values: 826
Additional Information: mineral.sulfide.none.coarse.vswir.s-9a.jpl.beckman.ancillary.txt

 0.4000	 8.3300
 0.4010	 8.2900
 0.4020	 8.2900
 0.4030	 8.2200
 0.4040	 8.1700
 0.4050	 8.1600
 0.4060	 8.2000
 0.4070	 8.1500
 0.4080	 8.1600
 0.4090	 8.0900
 0.4100	 8.0900
 0.4110	 8.0300
 0.4120	 8.0400
 0.4130	 8.0400
 0.4140	 7.9600
 0.4150	 7.9700
 0.4160	 7.9200
 0.4170	 7.9300
 0.4180	 7.9300
 0.4190	 7.8500
 0.4200	 7.8500
 0.4210	 7.8000
 0.4220	 7.8000
 0.4230	 7.8000
 0.4240	 7.6600
 0.4250	 7.6500
 0.4260	 7.6500
 0.4270	 7.6700
 0.4280	 7.7400
 0.4290	 7.5800
 0.4300	 7.5600
 0.4310	 7.5100
 0.4320	 7.5500
 0.4330	 7.5400
 0.4340	 7.4400
 0.4350	 7.4200
 0.4360	 7.4300
 0.4370	 7.4400
 0.4380	 7.4200
 0.4390	 7.3700
 0.4400	 7.3700
 0.4410	 7.3100
 0.4420	 7.2900
 0.4430	 7.2900
 0.4440	 7.2200
 0.4450	 7.2200
 0.4460	 7.2200
 0.4470	 7.2300
 0.4480	 7.1100
 0.4490	 7.1100
 0.4500	 7.1200
 0.4510	 7.0600
 0.4520	 7.0700
 0.4530	 6.9400
 0.4540	 7.0500
 0.4550	 6.9600
 0.4560	 6.9300
 0.4570	 6.9100
 0.4580	 6.8400
 0.4590	 6.8900
 0.4600	 6.9100
 0.4610	 6.8700
 0.4620	 6.8700
 0.4630	 6.8600
 0.4640	 6.8700
 0.4650	 6.8100
 0.4660	 6.6900
 0.4670	 6.7500
 0.4680	 6.7700
 0.4690	 6.7700
 0.4700	 6.7100
 0.4710	 6.5400
 0.4720	 6.5900
 0.4730	 6.5900
 0.4740	 6.6600
 0.4750	 6.6500
 0.4760	 6.5200
 0.4770	 6.5300
 0.4780	 6.4100
 0.4790	 6.5100
 0.4800	 6.6300
 0.4810	 6.4600
 0.4820	 6.4600
 0.4830	 6.3900
 0.4840	 6.3900
 0.4850	 6.3200
 0.4860	 6.2500
 0.4870	 6.3100
 0.4880	 6.3100
 0.4890	 6.3000
 0.4900	 6.2300
 0.4910	 6.1700
 0.4920	 6.2800
 0.4930	 6.1500
 0.4940	 6.1400
 0.4950	 6.0700
 0.4960	 6.1300
 0.4970	 6.1200
 0.4980	 6.0500
 0.4990	 5.9900
 0.5000	 5.9900
 0.5010	 5.9800
 0.5020	 6.0300
 0.5030	 5.9100
 0.5040	 5.9200
 0.5050	 5.9100
 0.5060	 5.8500
 0.5070	 5.8500
 0.5080	 5.8000
 0.5090	 5.8000
 0.5100	 5.7900
 0.5110	 5.7300
 0.5120	 5.8400
 0.5130	 5.6700
 0.5140	 5.6000
 0.5150	 5.7200
 0.5160	 5.6700
 0.5170	 5.7200
 0.5180	 5.5900
 0.5190	 5.5300
 0.5200	 5.5900
 0.5210	 5.5400
 0.5220	 5.5800
 0.5230	 5.5200
 0.5240	 5.4100
 0.5250	 5.5100
 0.5260	 5.4100
 0.5270	 5.4700
 0.5280	 5.4600
 0.5290	 5.3700
 0.5300	 5.3200
 0.5310	 5.3300
 0.5320	 5.4300
 0.5330	 5.4000
 0.5340	 5.2000
 0.5350	 5.1800
 0.5360	 5.1800
 0.5370	 5.3000
 0.5380	 5.1800
 0.5390	 5.1200
 0.5400	 5.1300
 0.5410	 5.1200
 0.5420	 5.1700
 0.5430	 5.1100
 0.5440	 5.0400
 0.5450	 5.0900
 0.5460	 5.0200
 0.5470	 5.0700
 0.5480	 5.0000
 0.5490	 4.9300
 0.5500	 4.9200
 0.5510	 4.9700
 0.5520	 5.0900
 0.5530	 4.9700
 0.5540	 4.8600
 0.5550	 4.9900
 0.5560	 4.9200
 0.5570	 5.0100
 0.5580	 4.9200
 0.5590	 4.8300
 0.5600	 4.8900
 0.5610	 4.8900
 0.5620	 4.9400
 0.5630	 4.8300
 0.5640	 4.8300
 0.5650	 4.7800
 0.5660	 4.7900
 0.5670	 4.8500
 0.5680	 4.7800
 0.5690	 4.7200
 0.5700	 4.8800
 0.5710	 4.7700
 0.5720	 4.8300
 0.5730	 4.7300
 0.5740	 4.7600
 0.5750	 4.8500
 0.5760	 4.6900
 0.5770	 4.7700
 0.5780	 4.6600
 0.5790	 4.6800
 0.5800	 4.8200
 0.5810	 4.6900
 0.5820	 4.7500
 0.5830	 4.7100
 0.5840	 4.6900
 0.5850	 4.7600
 0.5860	 4.6900
 0.5870	 4.6900
 0.5880	 4.7000
 0.5890	 4.6400
 0.5900	 4.7000
 0.5910	 4.6300
 0.5920	 4.6900
 0.5930	 4.6400
 0.5940	 4.7000
 0.5950	 4.7600
 0.5960	 4.6300
 0.5970	 4.6800
 0.5980	 4.6200
 0.5990	 4.6500
 0.6000	 4.7400
 0.6010	 4.7100
 0.6020	 4.7400
 0.6030	 4.6200
 0.6040	 4.6100
 0.6050	 4.7200
 0.6060	 4.8300
 0.6070	 4.8200
 0.6080	 4.7100
 0.6090	 4.7000
 0.6100	 4.7600
 0.6110	 4.6400
 0.6120	 4.8200
 0.6130	 4.7000
 0.6140	 4.8100
 0.6150	 4.8100
 0.6160	 4.7000
 0.6170	 4.7100
 0.6180	 4.7100
 0.6190	 4.8900
 0.6200	 4.8800
 0.6210	 4.7500
 0.6220	 4.8600
 0.6230	 4.7500
 0.6240	 4.8700
 0.6250	 4.8700
 0.6260	 4.8100
 0.6270	 4.8700
 0.6280	 4.7600
 0.6290	 4.9400
 0.6300	 4.8800
 0.6310	 4.7600
 0.6320	 4.9300
 0.6330	 4.8600
 0.6340	 4.9300
 0.6350	 4.8800
 0.6360	 4.8800
 0.6370	 4.9900
 0.6380	 4.9300
 0.6390	 4.9900
 0.6400	 4.9300
 0.6410	 4.8800
 0.6420	 5.0600
 0.6430	 4.9400
 0.6440	 5.0500
 0.6450	 5.0400
 0.6460	 4.9900
 0.6470	 5.1000
 0.6480	 5.0500
 0.6490	 5.1500
 0.6500	 5.0400
 0.6510	 5.0400
 0.6520	 5.0900
 0.6530	 5.1000
 0.6540	 5.2200
 0.6550	 5.2300
 0.6560	 5.1700
 0.6570	 5.2200
 0.6580	 5.2800
 0.6590	 5.3300
 0.6600	 5.2200
 0.6610	 5.1500
 0.6620	 5.3300
 0.6630	 5.2600
 0.6640	 5.3800
 0.6650	 5.3900
 0.6660	 5.2800
 0.6670	 5.4000
 0.6680	 5.4000
 0.6690	 5.5100
 0.6700	 5.4400
 0.6710	 5.4400
 0.6720	 5.5000
 0.6730	 5.4500
 0.6740	 5.5000
 0.6750	 5.4500
 0.6760	 5.5600
 0.6770	 5.6800
 0.6780	 5.5700
 0.6790	 5.6300
 0.6800	 5.5100
 0.6810	 5.5700
 0.6820	 5.7300
 0.6830	 5.7200
 0.6840	 5.7200
 0.6850	 5.6700
 0.6860	 5.7400
 0.6870	 5.7300
 0.6880	 5.7200
 0.6890	 5.7900
 0.6900	 5.7900
 0.6910	 5.9100
 0.6920	 5.8600
 0.6930	 5.7400
 0.6940	 5.9600
 0.6950	 5.8400
 0.6960	 6.0200
 0.6970	 5.9800
 0.6980	 5.9200
 0.6990	 5.9700
 0.7000	 5.9000
 0.7010	 5.9400
 0.7020	 5.9500
 0.7030	 6.0000
 0.7040	 6.0600
 0.7050	 6.1200
 0.7060	 6.1800
 0.7070	 6.0600
 0.7080	 6.1200
 0.7090	 6.0700
 0.7100	 6.1900
 0.7110	 6.2600
 0.7120	 6.1900
 0.7130	 6.3500
 0.7140	 6.2900
 0.7150	 6.3600
 0.7160	 6.3600
 0.7170	 6.3600
 0.7180	 6.3500
 0.7190	 6.3600
 0.7200	 6.3600
 0.7210	 6.3700
 0.7220	 6.3600
 0.7230	 6.4800
 0.7240	 6.4600
 0.7250	 6.4700
 0.7260	 6.5300
 0.7270	 6.4700
 0.7280	 6.5300
 0.7290	 6.6300
 0.7300	 6.6300
 0.7310	 6.6500
 0.7320	 6.5400
 0.7330	 6.7100
 0.7340	 6.6400
 0.7350	 6.6300
 0.7360	 6.7100
 0.7370	 6.7500
 0.7380	 6.8100
 0.7390	 6.7400
 0.7400	 6.8100
 0.7410	 6.7700
 0.7420	 6.8800
 0.7430	 6.9900
 0.7440	 6.9600
 0.7450	 6.8500
 0.7460	 6.9200
 0.7470	 6.9700
 0.7480	 7.0900
 0.7490	 7.0300
 0.7500	 6.9800
 0.7510	 6.9900
 0.7520	 7.0300
 0.7530	 7.1900
 0.7540	 7.0800
 0.7550	 7.0900
 0.7560	 7.1000
 0.7570	 7.1500
 0.7580	 7.2600
 0.7590	 7.2000
 0.7600	 7.1500
 0.7610	 7.2000
 0.7620	 7.2500
 0.7630	 7.3700
 0.7640	 7.3100
 0.7650	 7.2500
 0.7660	 7.3000
 0.7670	 7.2900
 0.7680	 7.4200
 0.7690	 7.4300
 0.7700	 7.4200
 0.7710	 7.4200
 0.7720	 7.4200
 0.7730	 7.5900
 0.7740	 7.5200
 0.7750	 7.5200
 0.7760	 7.5200
 0.7770	 7.5300
 0.7780	 7.6600
 0.7790	 7.6400
 0.7800	 7.6200
 0.7810	 7.6300
 0.7820	 7.7500
 0.7830	 7.7500
 0.7840	 7.6800
 0.7850	 7.7400
 0.7860	 7.7500
 0.7870	 7.8000
 0.7880	 7.8500
 0.7890	 7.8400
 0.7900	 7.8500
 0.7910	 7.8100
 0.7920	 7.9200
 0.7930	 7.9800
 0.7940	 7.9700
 0.7950	 7.9900
 0.7960	 8.0100
 0.7970	 8.1200
 0.7980	 8.0600
 0.7990	 7.9800
 0.8000	 8.3400
 0.8040	 8.3700
 0.8080	 8.4200
 0.8120	 8.5300
 0.8160	 8.5600
 0.8200	 8.7100
 0.8240	 8.7700
 0.8280	 8.7600
 0.8320	 8.8900
 0.8360	 8.9900
 0.8400	 9.0200
 0.8440	 9.0900
 0.8480	 9.0900
 0.8520	 9.1400
 0.8560	 9.2700
 0.8600	 9.2700
 0.8640	 9.2900
 0.8680	 9.3800
 0.8720	 9.4700
 0.8760	 9.5300
 0.8800	 9.5700
 0.8840	 9.6000
 0.8880	 9.6000
 0.8920	 9.6400
 0.8960	 9.7800
 0.9000	 9.7800
 0.9040	 9.7600
 0.9080	 9.8400
 0.9120	 9.8900
 0.9160	 9.9600
 0.9200	10.0000
 0.9240	10.0200
 0.9280	10.0700
 0.9320	10.1200
 0.9360	10.1400
 0.9400	10.1900
 0.9440	10.2200
 0.9480	10.2000
 0.9520	10.3200
 0.9560	10.2700
 0.9600	10.2400
 0.9640	10.3200
 0.9680	10.4000
 0.9720	10.3800
 0.9760	10.4300
 0.9800	10.4400
 0.9840	10.4900
 0.9880	10.5200
 0.9920	10.5600
 0.9960	10.5400
 1.0000	10.6000
 1.0040	10.6100
 1.0080	10.6300
 1.0120	10.6800
 1.0160	10.7200
 1.0200	10.7300
 1.0240	10.7800
 1.0280	10.7400
 1.0320	10.8000
 1.0360	10.7900
 1.0400	10.8900
 1.0440	10.8700
 1.0480	10.8600
 1.0520	10.9500
 1.0560	10.9100
 1.0600	10.9500
 1.0640	11.0100
 1.0680	10.9700
 1.0720	11.0000
 1.0760	10.9800
 1.0800	11.0200
 1.0840	11.0900
 1.0880	11.1200
 1.0920	11.1600
 1.0960	11.2100
 1.1000	11.2200
 1.1040	11.2000
 1.1080	11.1800
 1.1120	11.2400
 1.1160	11.2900
 1.1200	11.2700
 1.1240	11.3200
 1.1280	11.3700
 1.1320	11.3300
 1.1360	11.3200
 1.1400	11.3300
 1.1440	11.3600
 1.1480	11.3700
 1.1520	11.4600
 1.1560	11.4400
 1.1600	11.4900
 1.1640	11.4900
 1.1680	11.4900
 1.1720	11.4900
 1.1760	11.4800
 1.1800	11.4900
 1.1840	11.5300
 1.1880	11.5600
 1.1920	11.5500
 1.1960	11.5700
 1.2000	11.5400
 1.2040	11.6000
 1.2080	11.5600
 1.2120	11.6600
 1.2160	11.6900
 1.2200	11.6600
 1.2240	11.7100
 1.2280	11.7200
 1.2320	11.7400
 1.2360	11.7500
 1.2400	11.7700
 1.2440	11.7400
 1.2480	11.7800
 1.2520	11.8900
 1.2560	11.8200
 1.2600	11.8200
 1.2640	11.8700
 1.2680	11.8900
 1.2720	11.8700
 1.2760	11.8800
 1.2800	11.9500
 1.2840	11.9600
 1.2880	12.0300
 1.2920	11.9800
 1.2960	11.9700
 1.3000	12.0100
 1.3040	12.0400
 1.3080	12.0900
 1.3120	12.0600
 1.3160	12.0600
 1.3200	12.0400
 1.3240	12.0400
 1.3280	12.1000
 1.3320	12.1700
 1.3360	12.2500
 1.3400	12.1700
 1.3440	12.1700
 1.3480	12.1800
 1.3520	12.2200
 1.3560	12.2600
 1.3600	12.2800
 1.3640	12.2100
 1.3680	12.1800
 1.3720	12.2000
 1.3760	12.2700
 1.3800	12.2800
 1.3840	12.2900
 1.3880	12.2900
 1.3920	12.2700
 1.3960	12.3200
 1.4000	12.3700
 1.4040	12.3300
 1.4080	12.3800
 1.4120	12.4100
 1.4160	12.4100
 1.4200	12.4300
 1.4240	12.3700
 1.4280	12.3800
 1.4320	12.4700
 1.4360	12.4600
 1.4400	12.4500
 1.4440	12.4800
 1.4480	12.4800
 1.4520	12.4800
 1.4560	12.4600
 1.4600	12.5000
 1.4640	12.5200
 1.4680	12.5000
 1.4720	12.5400
 1.4760	12.5600
 1.4800	12.5400
 1.4840	12.5800
 1.4880	12.6100
 1.4920	12.5800
 1.4960	12.6200
 1.5000	12.5300
 1.5040	12.6200
 1.5080	12.6100
 1.5120	12.7000
 1.5160	12.6900
 1.5200	12.6900
 1.5240	12.6800
 1.5280	12.7300
 1.5320	12.6300
 1.5360	12.6900
 1.5400	12.6500
 1.5440	12.6900
 1.5480	12.7400
 1.5520	12.7100
 1.5560	12.7000
 1.5600	12.6900
 1.5640	12.7800
 1.5680	12.7300
 1.5720	12.7800
 1.5760	12.8000
 1.5800	12.7300
 1.5840	12.7900
 1.5880	12.8000
 1.5920	12.8200
 1.5960	12.8200
 1.6000	12.7900
 1.6040	12.7900
 1.6080	12.8800
 1.6120	12.8100
 1.6160	12.8100
 1.6200	12.8100
 1.6240	12.8400
 1.6280	12.8600
 1.6320	12.8000
 1.6360	12.8100
 1.6400	12.8400
 1.6440	12.8100
 1.6480	12.8200
 1.6520	12.8300
 1.6560	12.8900
 1.6600	12.8300
 1.6640	12.8200
 1.6680	12.9300
 1.6720	12.9700
 1.6760	12.8800
 1.6800	12.9500
 1.6840	12.9400
 1.6880	12.9500
 1.6920	13.0000
 1.6960	12.9900
 1.7000	12.9600
 1.7040	13.0000
 1.7080	13.0500
 1.7120	13.0900
 1.7160	13.0000
 1.7200	12.9900
 1.7240	13.0200
 1.7280	13.0600
 1.7320	12.9900
 1.7360	13.0200
 1.7400	13.0000
 1.7440	13.0000
 1.7480	13.0100
 1.7520	13.0700
 1.7560	13.0400
 1.7600	12.9900
 1.7640	13.0400
 1.7680	12.9900
 1.7720	13.0500
 1.7760	13.0200
 1.7800	12.9600
 1.7840	12.9900
 1.7880	13.0600
 1.7920	13.0900
 1.7960	13.0300
 1.8000	13.0900
 1.8040	13.0800
 1.8080	13.0800
 1.8120	13.0400
 1.8160	13.0900
 1.8200	13.0800
 1.8240	13.0500
 1.8280	13.1500
 1.8320	13.0500
 1.8360	13.1000
 1.8400	13.1100
 1.8440	13.1300
 1.8480	13.1300
 1.8520	13.1800
 1.8560	13.1800
 1.8600	13.1400
 1.8640	13.1700
 1.8680	13.1100
 1.8720	13.1200
 1.8760	13.1800
 1.8800	13.1900
 1.8840	13.1700
 1.8880	13.1600
 1.8920	13.2200
 1.8960	13.2000
 1.9000	13.2200
 1.9040	13.1500
 1.9080	13.1200
 1.9120	13.1800
 1.9160	13.1700
 1.9200	13.0900
 1.9240	13.0700
 1.9280	13.1100
 1.9320	13.0800
 1.9360	13.0900
 1.9400	13.1500
 1.9440	13.1300
 1.9480	13.1700
 1.9520	13.1200
 1.9560	13.1300
 1.9600	13.1700
 1.9640	13.1800
 1.9680	13.1800
 1.9720	13.1300
 1.9760	13.2100
 1.9800	13.2300
 1.9840	13.2700
 1.9880	13.2700
 1.9920	13.3100
 1.9960	13.3100
 2.0000	13.2800
 2.0040	13.2900
 2.0080	13.3400
 2.0120	13.3200
 2.0160	13.3200
 2.0200	13.3400
 2.0240	13.3400
 2.0280	13.3300
 2.0320	13.2900
 2.0360	13.3400
 2.0400	13.3600
 2.0440	13.3600
 2.0480	13.3900
 2.0520	13.3300
 2.0560	13.4100
 2.0600	13.3200
 2.0640	13.3600
 2.0680	13.3300
 2.0720	13.3800
 2.0760	13.3700
 2.0800	13.4000
 2.0840	13.3800
 2.0880	13.4100
 2.0920	13.4100
 2.0960	13.3400
 2.1000	13.3800
 2.1040	13.4700
 2.1080	13.4700
 2.1120	13.5200
 2.1160	13.5000
 2.1200	13.4500
 2.1240	13.4900
 2.1280	13.4600
 2.1320	13.5200
 2.1360	13.5000
 2.1400	13.5200
 2.1440	13.4400
 2.1480	13.4600
 2.1520	13.4600
 2.1560	13.4600
 2.1600	13.4400
 2.1640	13.4700
 2.1680	13.4900
 2.1720	13.4900
 2.1760	13.5200
 2.1800	13.4900
 2.1840	13.4700
 2.1880	13.5400
 2.1920	13.5400
 2.1960	13.5500
 2.2000	13.5000
 2.2040	13.4800
 2.2080	13.4700
 2.2120	13.4900
 2.2160	13.4800
 2.2200	13.4500
 2.2240	13.4700
 2.2280	13.4600
 2.2320	13.4400
 2.2360	13.5200
 2.2400	13.6100
 2.2440	13.5700
 2.2480	13.5300
 2.2520	13.5500
 2.2560	13.5400
 2.2600	13.5400
 2.2640	13.5800
 2.2680	13.5700
 2.2720	13.5900
 2.2760	13.5800
 2.2800	13.6700
 2.2840	13.6300
 2.2880	13.5800
 2.2920	13.6400
 2.2960	13.6600
 2.3000	13.6000
 2.3040	13.5100
 2.3080	13.4900
 2.3120	13.4800
 2.3160	13.5100
 2.3200	13.4900
 2.3240	13.5100
 2.3280	13.4900
 2.3320	13.5100
 2.3360	13.5400
 2.3400	13.5800
 2.3440	13.6300
 2.3480	13.6100
 2.3520	13.5700
 2.3560	13.6000
 2.3600	13.6100
 2.3640	13.6300
 2.3680	13.6800
 2.3720	13.6800
 2.3760	13.6700
 2.3800	13.7100
 2.3840	13.7400
 2.3880	13.6900
 2.3920	13.7400
 2.3960	13.7300
 2.4000	13.7700
 2.4040	13.7600
 2.4080	13.7500
 2.4120	13.7500
 2.4160	13.8000
 2.4200	13.7600
 2.4240	13.7400
 2.4280	13.8100
 2.4320	13.8400
 2.4360	13.7900
 2.4400	13.8200
 2.4440	13.7500
 2.4480	13.8000
 2.4520	13.7700
 2.4560	13.7500
 2.4600	13.8500
 2.4640	13.8400
 2.4680	13.8200
 2.4720	13.8500
 2.4760	13.8500
 2.4800	13.8400
 2.4840	13.8700
 2.4880	13.9300
 2.4920	13.9800
 2.4960	13.9700
 2.5000	14.0100
