Name: Glauberite Na_2Ca(SO_4)_2
Type: Mineral
Class: Sulfate
Subclass: None
Particle Size: Coarse
Sample No.: SO-8A
Owner: JPL
Wavelength Range: VSWIR
Origin: USA, Arizona, Yavapai County, Campe Verde
Collection Date: N/A
Description: Particle size was 125-500um.Collected by Burminco Original ASTER Spectral Library name was jpl.beckman.mineral.sulfate.none.coarse.so08a.spectrum.txt
Measurement: Hemispherical reflectance
First Column: X
Second Column: Y
X Units: Wavelength (micrometers)
Y Units:Reflectance (percent)
First X Value:  0.4000
Last X Value:  2.5000
Number of X Values: 826
Additional Information: mineral.sulfate.none.coarse.vswir.so-8a.jpl.beckman.ancillary.txt

 0.4000	56.8900
 0.4010	56.9800
 0.4020	57.1500
 0.4030	57.3200
 0.4040	57.4500
 0.4050	57.5000
 0.4060	57.5800
 0.4070	57.6200
 0.4080	57.8500
 0.4090	57.7700
 0.4100	57.9800
 0.4110	58.1400
 0.4120	58.2500
 0.4130	58.3500
 0.4140	58.3500
 0.4150	58.5000
 0.4160	58.6700
 0.4170	58.6400
 0.4180	58.8000
 0.4190	58.8600
 0.4200	58.8700
 0.4210	59.0200
 0.4220	58.9300
 0.4230	59.1500
 0.4240	59.2300
 0.4250	59.3900
 0.4260	59.4500
 0.4270	59.5000
 0.4280	59.6400
 0.4290	59.7000
 0.4300	59.9000
 0.4310	59.9000
 0.4320	60.0600
 0.4330	60.1400
 0.4340	60.2700
 0.4350	60.3000
 0.4360	60.3800
 0.4370	60.5100
 0.4380	60.6300
 0.4390	60.6700
 0.4400	60.6500
 0.4410	60.7700
 0.4420	60.9300
 0.4430	61.0700
 0.4440	61.1300
 0.4450	61.0500
 0.4460	61.1900
 0.4470	61.3100
 0.4480	61.2100
 0.4490	61.4800
 0.4500	61.5400
 0.4510	61.6200
 0.4520	61.6800
 0.4530	61.5400
 0.4540	61.8000
 0.4550	61.8200
 0.4560	61.9300
 0.4570	61.9500
 0.4580	62.0400
 0.4590	62.2100
 0.4600	62.1300
 0.4610	62.3000
 0.4620	62.3800
 0.4630	62.4100
 0.4640	62.4500
 0.4650	62.5900
 0.4660	62.5900
 0.4670	62.4100
 0.4680	62.5500
 0.4690	62.6300
 0.4700	62.7500
 0.4710	62.8700
 0.4720	62.7700
 0.4730	62.9600
 0.4740	63.0200
 0.4750	63.0200
 0.4760	63.1600
 0.4770	62.9800
 0.4780	63.2400
 0.4790	63.1600
 0.4800	63.0800
 0.4810	63.2400
 0.4820	63.3000
 0.4830	63.3700
 0.4840	63.3800
 0.4850	63.3500
 0.4860	63.4300
 0.4870	63.4600
 0.4880	63.6400
 0.4890	63.6000
 0.4900	63.5600
 0.4910	63.7900
 0.4920	63.7100
 0.4930	63.6200
 0.4940	63.8500
 0.4950	63.8300
 0.4960	63.9900
 0.4970	63.9600
 0.4980	63.9000
 0.4990	64.1600
 0.5000	64.0600
 0.5010	64.1100
 0.5020	64.1300
 0.5030	64.3100
 0.5040	64.4200
 0.5050	64.4200
 0.5060	64.3300
 0.5070	64.5800
 0.5080	64.5400
 0.5090	64.6800
 0.5100	64.6600
 0.5110	64.7200
 0.5120	64.7800
 0.5130	64.7200
 0.5140	64.7000
 0.5150	64.8400
 0.5160	64.9300
 0.5170	64.9900
 0.5180	65.0700
 0.5190	65.0700
 0.5200	65.2300
 0.5210	65.2200
 0.5220	65.2000
 0.5230	65.3400
 0.5240	65.2100
 0.5250	65.4600
 0.5260	65.3600
 0.5270	65.2800
 0.5280	65.3500
 0.5290	65.4700
 0.5300	65.5600
 0.5310	65.5400
 0.5320	65.5200
 0.5330	65.7500
 0.5340	65.5600
 0.5350	65.5800
 0.5360	65.6900
 0.5370	65.6500
 0.5380	65.9500
 0.5390	65.8400
 0.5400	65.6800
 0.5410	65.8300
 0.5420	65.8500
 0.5430	66.0000
 0.5440	66.0400
 0.5450	66.0300
 0.5460	66.2000
 0.5470	66.1200
 0.5480	66.2300
 0.5490	66.2300
 0.5500	66.3600
 0.5510	66.5300
 0.5520	66.5000
 0.5530	66.4700
 0.5540	66.5600
 0.5550	66.6200
 0.5560	66.7900
 0.5570	66.7000
 0.5580	66.6900
 0.5590	66.8900
 0.5600	66.7400
 0.5610	67.1700
 0.5620	67.1300
 0.5630	67.1000
 0.5640	67.0200
 0.5650	67.0400
 0.5660	67.2700
 0.5670	67.0900
 0.5680	67.1700
 0.5690	67.1400
 0.5700	67.1000
 0.5710	67.1000
 0.5720	66.8600
 0.5730	67.0600
 0.5740	67.2000
 0.5750	67.0700
 0.5760	67.1800
 0.5770	67.0200
 0.5780	67.1200
 0.5790	67.2700
 0.5800	67.1500
 0.5810	67.1800
 0.5820	67.1600
 0.5830	67.1600
 0.5840	67.1900
 0.5850	67.1700
 0.5860	67.3000
 0.5870	67.5400
 0.5880	67.3900
 0.5890	67.5300
 0.5900	67.4200
 0.5910	67.4600
 0.5920	67.7200
 0.5930	67.4700
 0.5940	67.6700
 0.5950	67.7400
 0.5960	67.6400
 0.5970	67.7000
 0.5980	67.6000
 0.5990	67.7700
 0.6000	67.9300
 0.6010	67.8300
 0.6020	67.8300
 0.6030	67.8500
 0.6040	67.9600
 0.6050	67.7800
 0.6060	67.7300
 0.6070	67.8600
 0.6080	68.0300
 0.6090	67.9300
 0.6100	68.0500
 0.6110	67.8600
 0.6120	67.9900
 0.6130	67.9600
 0.6140	67.7800
 0.6150	67.9500
 0.6160	68.0400
 0.6170	68.0300
 0.6180	67.9600
 0.6190	68.0100
 0.6200	68.0200
 0.6210	68.1300
 0.6220	68.0500
 0.6230	68.1100
 0.6240	68.0800
 0.6250	68.1100
 0.6260	68.1900
 0.6270	68.0400
 0.6280	68.2200
 0.6290	68.4200
 0.6300	68.3400
 0.6310	68.3500
 0.6320	68.2800
 0.6330	68.3500
 0.6340	68.3400
 0.6350	68.2500
 0.6360	68.4700
 0.6370	68.5000
 0.6380	68.5500
 0.6390	68.4600
 0.6400	68.4800
 0.6410	68.5500
 0.6420	68.6100
 0.6430	68.5100
 0.6440	68.5800
 0.6450	68.6300
 0.6460	68.5400
 0.6470	68.5600
 0.6480	68.5200
 0.6490	68.6000
 0.6500	68.7400
 0.6510	68.6700
 0.6520	68.7100
 0.6530	68.6100
 0.6540	68.8900
 0.6550	68.7400
 0.6560	68.6400
 0.6570	68.7900
 0.6580	68.8600
 0.6590	68.8500
 0.6600	68.7800
 0.6610	68.7500
 0.6620	68.7800
 0.6630	68.8900
 0.6640	68.8900
 0.6650	68.9300
 0.6660	68.9800
 0.6670	69.0100
 0.6680	69.0100
 0.6690	68.8100
 0.6700	68.9400
 0.6710	69.1100
 0.6720	69.1000
 0.6730	69.1600
 0.6740	69.0200
 0.6750	69.1800
 0.6760	69.1400
 0.6770	69.0200
 0.6780	69.1800
 0.6790	69.1500
 0.6800	69.1600
 0.6810	69.2000
 0.6820	69.0800
 0.6830	69.2100
 0.6840	69.3600
 0.6850	69.3000
 0.6860	69.3500
 0.6870	69.2200
 0.6880	69.4000
 0.6890	69.4000
 0.6900	69.2700
 0.6910	69.5000
 0.6920	69.4300
 0.6930	69.3700
 0.6940	69.5200
 0.6950	69.3700
 0.6960	69.5700
 0.6970	69.7300
 0.6980	69.5900
 0.6990	69.5500
 0.7000	69.6000
 0.7010	69.5800
 0.7020	69.7100
 0.7030	69.7200
 0.7040	69.8400
 0.7050	69.8500
 0.7060	69.9100
 0.7070	69.9500
 0.7080	69.9200
 0.7090	70.0200
 0.7100	70.0100
 0.7110	70.2400
 0.7120	70.1600
 0.7130	70.1800
 0.7140	70.0500
 0.7150	70.0500
 0.7160	70.1600
 0.7170	70.1800
 0.7180	70.1300
 0.7190	70.1800
 0.7200	70.1100
 0.7210	70.1700
 0.7220	70.3100
 0.7230	70.2400
 0.7240	70.3100
 0.7250	70.4500
 0.7260	70.4100
 0.7270	70.6100
 0.7280	70.5500
 0.7290	70.5400
 0.7300	70.7200
 0.7310	70.6700
 0.7320	70.7000
 0.7330	70.7100
 0.7340	70.7200
 0.7350	70.7800
 0.7360	70.6400
 0.7370	70.7700
 0.7380	70.9800
 0.7390	70.9000
 0.7400	70.8700
 0.7410	71.0100
 0.7420	70.9800
 0.7430	71.0800
 0.7440	71.0400
 0.7450	71.0300
 0.7460	71.1000
 0.7470	71.1300
 0.7480	71.1700
 0.7490	71.1900
 0.7500	71.0700
 0.7510	71.1400
 0.7520	71.1100
 0.7530	71.2200
 0.7540	71.2000
 0.7550	71.3800
 0.7560	71.3900
 0.7570	71.3300
 0.7580	71.3500
 0.7590	71.3900
 0.7600	71.4200
 0.7610	71.5800
 0.7620	71.5200
 0.7630	71.5600
 0.7640	71.5700
 0.7650	71.5200
 0.7660	71.6200
 0.7670	71.4700
 0.7680	71.5300
 0.7690	71.6800
 0.7700	71.7200
 0.7710	71.7500
 0.7720	71.7200
 0.7730	71.7200
 0.7740	71.8900
 0.7750	71.8300
 0.7760	71.8400
 0.7770	71.7900
 0.7780	71.8800
 0.7790	71.9200
 0.7800	71.7700
 0.7810	71.9800
 0.7820	72.1000
 0.7830	72.0700
 0.7840	71.9900
 0.7850	71.9100
 0.7860	71.9100
 0.7870	72.1100
 0.7880	71.9900
 0.7890	72.1500
 0.7900	72.0300
 0.7910	72.0500
 0.7920	72.1800
 0.7930	72.1100
 0.7940	72.1400
 0.7950	72.2900
 0.7960	72.2900
 0.7970	72.2200
 0.7980	72.2300
 0.7990	72.2200
 0.8000	72.4800
 0.8040	72.5300
 0.8080	72.5500
 0.8120	72.6200
 0.8160	72.6100
 0.8200	72.5900
 0.8240	72.7200
 0.8280	72.6600
 0.8320	72.7300
 0.8360	72.7500
 0.8400	72.8000
 0.8440	72.9300
 0.8480	72.9300
 0.8520	72.8900
 0.8560	72.8900
 0.8600	72.9300
 0.8640	72.9300
 0.8680	73.0600
 0.8720	73.0000
 0.8760	72.9700
 0.8800	73.0000
 0.8840	72.9700
 0.8880	73.0300
 0.8920	73.0800
 0.8960	73.0200
 0.9000	73.0100
 0.9040	73.0700
 0.9080	73.0900
 0.9120	73.1200
 0.9160	73.1800
 0.9200	73.2100
 0.9240	73.2400
 0.9280	73.1700
 0.9320	73.2800
 0.9360	73.3100
 0.9400	73.3800
 0.9440	73.3900
 0.9480	73.4300
 0.9520	73.3600
 0.9560	73.4700
 0.9600	73.5300
 0.9640	73.5500
 0.9680	73.6300
 0.9720	73.4900
 0.9760	73.5700
 0.9800	73.7000
 0.9840	73.7200
 0.9880	73.6900
 0.9920	73.7000
 0.9960	73.7000
 1.0000	73.7300
 1.0040	73.8800
 1.0080	73.9400
 1.0120	73.8500
 1.0160	73.8400
 1.0200	73.9200
 1.0240	74.0100
 1.0280	73.9700
 1.0320	73.8400
 1.0360	74.0800
 1.0400	73.9500
 1.0440	74.0800
 1.0480	74.0800
 1.0520	74.0100
 1.0560	74.1300
 1.0600	74.1300
 1.0640	74.1400
 1.0680	74.1400
 1.0720	74.1700
 1.0760	74.1400
 1.0800	74.2400
 1.0840	74.2600
 1.0880	74.3200
 1.0920	74.3400
 1.0960	74.3000
 1.1000	74.3800
 1.1040	74.4100
 1.1080	74.4500
 1.1120	74.3800
 1.1160	74.4000
 1.1200	74.5100
 1.1240	74.6700
 1.1280	74.7100
 1.1320	74.6800
 1.1360	74.5500
 1.1400	74.5800
 1.1440	74.6300
 1.1480	74.6600
 1.1520	74.7300
 1.1560	74.6700
 1.1600	74.7300
 1.1640	74.6900
 1.1680	74.6900
 1.1720	74.8200
 1.1760	74.7900
 1.1800	74.8500
 1.1840	74.8300
 1.1880	74.8700
 1.1920	74.9900
 1.1960	74.9400
 1.2000	74.9600
 1.2040	75.0000
 1.2080	75.0600
 1.2120	75.0800
 1.2160	75.1300
 1.2200	75.1600
 1.2240	75.1400
 1.2280	75.2000
 1.2320	75.3100
 1.2360	75.3200
 1.2400	75.2700
 1.2440	75.4200
 1.2480	75.4000
 1.2520	75.5800
 1.2560	75.5700
 1.2600	75.5100
 1.2640	75.5900
 1.2680	75.5400
 1.2720	75.7300
 1.2760	75.6800
 1.2800	75.7400
 1.2840	75.7100
 1.2880	75.8300
 1.2920	75.8300
 1.2960	75.8400
 1.3000	75.7700
 1.3040	75.8300
 1.3080	75.8900
 1.3120	75.9000
 1.3160	75.9200
 1.3200	75.8900
 1.3240	76.0100
 1.3280	76.0200
 1.3320	76.0100
 1.3360	75.9400
 1.3400	76.0300
 1.3440	76.0200
 1.3480	75.9800
 1.3520	76.0100
 1.3560	76.0800
 1.3600	76.0900
 1.3640	75.9900
 1.3680	76.0500
 1.3720	75.9500
 1.3760	76.0600
 1.3800	75.9100
 1.3840	75.8200
 1.3880	75.7600
 1.3920	75.7800
 1.3960	75.7500
 1.4000	75.5900
 1.4040	75.4900
 1.4080	75.4100
 1.4120	75.4400
 1.4160	75.3700
 1.4200	75.2600
 1.4240	75.3900
 1.4280	75.3000
 1.4320	75.2500
 1.4360	75.2400
 1.4400	75.2100
 1.4440	75.2200
 1.4480	75.3300
 1.4520	75.4000
 1.4560	75.4900
 1.4600	75.5200
 1.4640	75.6500
 1.4680	75.7100
 1.4720	75.8100
 1.4760	75.8400
 1.4800	75.7700
 1.4840	75.8300
 1.4880	76.0600
 1.4920	76.0400
 1.4960	76.0900
 1.5000	76.1900
 1.5040	76.2900
 1.5080	76.4200
 1.5120	76.4100
 1.5160	76.4100
 1.5200	76.4200
 1.5240	76.4900
 1.5280	76.4700
 1.5320	76.4900
 1.5360	76.5900
 1.5400	76.6900
 1.5440	76.6900
 1.5480	76.7600
 1.5520	76.7300
 1.5560	76.7800
 1.5600	76.8600
 1.5640	76.9300
 1.5680	76.9100
 1.5720	76.9700
 1.5760	77.0000
 1.5800	77.0400
 1.5840	77.0700
 1.5880	77.0500
 1.5920	77.0700
 1.5960	77.1400
 1.6000	77.1800
 1.6040	77.2100
 1.6080	77.2200
 1.6120	77.3000
 1.6160	77.2300
 1.6200	77.3000
 1.6240	77.2600
 1.6280	77.3400
 1.6320	77.4000
 1.6360	77.3200
 1.6400	77.4000
 1.6440	77.4200
 1.6480	77.5000
 1.6520	77.4600
 1.6560	77.4800
 1.6600	77.5900
 1.6640	77.4600
 1.6680	77.5000
 1.6720	77.5200
 1.6760	77.6300
 1.6800	77.6000
 1.6840	77.6100
 1.6880	77.5300
 1.6920	77.5700
 1.6960	77.5200
 1.7000	77.6200
 1.7040	77.5500
 1.7080	77.5600
 1.7120	77.5900
 1.7160	77.5000
 1.7200	77.5000
 1.7240	77.5100
 1.7280	77.3700
 1.7320	77.3400
 1.7360	77.3200
 1.7400	77.2800
 1.7440	77.2500
 1.7480	77.2100
 1.7520	77.2500
 1.7560	77.2200
 1.7600	77.2600
 1.7640	77.3500
 1.7680	77.1900
 1.7720	77.2400
 1.7760	77.2800
 1.7800	77.2800
 1.7840	77.3900
 1.7880	77.4200
 1.7920	77.3900
 1.7960	77.3800
 1.8000	77.3500
 1.8040	77.4200
 1.8080	77.4800
 1.8120	77.4500
 1.8160	77.4600
 1.8200	77.4300
 1.8240	77.4800
 1.8280	77.4700
 1.8320	77.4700
 1.8360	77.4700
 1.8400	77.3700
 1.8440	77.4400
 1.8480	77.4700
 1.8520	77.1800
 1.8560	77.1800
 1.8600	77.1600
 1.8640	77.0500
 1.8680	76.8300
 1.8720	76.6400
 1.8760	76.3300
 1.8800	76.0700
 1.8840	75.7300
 1.8880	75.1800
 1.8920	74.6700
 1.8960	74.1000
 1.9000	73.6300
 1.9040	73.1900
 1.9080	72.7400
 1.9120	72.4500
 1.9160	72.2100
 1.9200	71.9900
 1.9240	71.7700
 1.9280	71.6200
 1.9320	71.5100
 1.9360	71.5200
 1.9400	71.4900
 1.9440	71.4900
 1.9480	71.6900
 1.9520	71.9100
 1.9560	72.2000
 1.9600	72.3000
 1.9640	72.5100
 1.9680	72.7200
 1.9720	72.9300
 1.9760	73.2200
 1.9800	73.4100
 1.9840	73.6900
 1.9880	73.9400
 1.9920	74.2700
 1.9960	74.5200
 2.0000	74.8100
 2.0040	75.0300
 2.0080	75.2400
 2.0120	75.4800
 2.0160	75.6300
 2.0200	75.8200
 2.0240	76.0200
 2.0280	75.9700
 2.0320	76.1000
 2.0360	76.1900
 2.0400	76.3600
 2.0440	76.4200
 2.0480	76.4400
 2.0520	76.4800
 2.0560	76.4700
 2.0600	76.5400
 2.0640	76.5500
 2.0680	76.6400
 2.0720	76.7300
 2.0760	76.6500
 2.0800	76.7500
 2.0840	76.8500
 2.0880	76.8000
 2.0920	76.8400
 2.0960	76.8700
 2.1000	76.9400
 2.1040	76.9800
 2.1080	77.0500
 2.1120	77.1000
 2.1160	77.2100
 2.1200	77.2400
 2.1240	77.2400
 2.1280	77.0400
 2.1320	77.1000
 2.1360	77.1500
 2.1400	77.0200
 2.1440	76.9300
 2.1480	76.9800
 2.1520	76.8600
 2.1560	76.7800
 2.1600	76.7300
 2.1640	76.7200
 2.1680	76.5800
 2.1720	76.5700
 2.1760	76.5300
 2.1800	76.5200
 2.1840	76.2500
 2.1880	76.2800
 2.1920	76.2900
 2.1960	76.1400
 2.2000	76.0700
 2.2040	75.9500
 2.2080	75.8900
 2.2120	75.8600
 2.2160	76.0100
 2.2200	75.9500
 2.2240	75.9400
 2.2280	75.9400
 2.2320	76.0900
 2.2360	76.0600
 2.2400	75.8800
 2.2440	76.0700
 2.2480	75.9900
 2.2520	76.0500
 2.2560	75.9700
 2.2600	75.9000
 2.2640	75.9300
 2.2680	75.9700
 2.2720	75.9300
 2.2760	75.8700
 2.2800	75.8600
 2.2840	75.8100
 2.2880	75.7900
 2.2920	75.6900
 2.2960	75.6200
 2.3000	75.4600
 2.3040	75.3400
 2.3080	75.3700
 2.3120	75.3500
 2.3160	75.4500
 2.3200	75.5000
 2.3240	75.3800
 2.3280	75.4100
 2.3320	75.4200
 2.3360	75.4900
 2.3400	75.4300
 2.3440	75.3700
 2.3480	75.3300
 2.3520	75.1900
 2.3560	75.0600
 2.3600	74.9700
 2.3640	74.8500
 2.3680	74.7800
 2.3720	74.6600
 2.3760	74.5200
 2.3800	74.3300
 2.3840	74.0700
 2.3880	73.9600
 2.3920	73.7700
 2.3960	73.6300
 2.4000	73.5700
 2.4040	73.5100
 2.4080	73.4300
 2.4120	73.3000
 2.4160	73.1400
 2.4200	73.0700
 2.4240	72.9200
 2.4280	72.7500
 2.4320	72.6600
 2.4360	72.5600
 2.4400	72.5200
 2.4440	72.4100
 2.4480	72.2400
 2.4520	72.1000
 2.4560	72.0600
 2.4600	71.9400
 2.4640	71.9000
 2.4680	71.8500
 2.4720	71.7600
 2.4760	71.6800
 2.4800	71.7800
 2.4840	71.8900
 2.4880	71.8800
 2.4920	71.9400
 2.4960	71.9900
 2.5000	72.1300
