Name: Halite NaCl
Type: Mineral
Class: Halide
Subclass: None
Particle Size: Coarse
Sample No.: H-3A
Owner: JPL
Wavelength Range: VSWIR
Origin: USA, Michigan, Wayne County, Detroit
Collection Date: N/A
Description: Particle size was 125-500um.Collected by Ward's Original ASTER Spectral Library name was jpl.beckman.mineral.halide.none.coarse.h03a.spectrum.txt
Measurement: Hemispherical reflectance
First Column: X
Second Column: Y
X Units: Wavelength (micrometers)
Y Units:Reflectance (percent)
First X Value:  0.4000
Last X Value:  2.5000
Number of X Values: 826
Additional Information: mineral.halide.none.coarse.vswir.h-3a.jpl.beckman.ancillary.txt

 0.4000	83.7800
 0.4010	83.8600
 0.4020	83.9100
 0.4030	84.0400
 0.4040	84.1100
 0.4050	84.0500
 0.4060	84.0700
 0.4070	84.1200
 0.4080	84.1200
 0.4090	84.2300
 0.4100	84.1900
 0.4110	84.1400
 0.4120	84.1700
 0.4130	84.1100
 0.4140	84.1900
 0.4150	84.3100
 0.4160	84.3100
 0.4170	84.4000
 0.4180	84.3500
 0.4190	84.5400
 0.4200	84.4800
 0.4210	84.4800
 0.4220	84.5300
 0.4230	84.4200
 0.4240	84.6000
 0.4250	84.6800
 0.4260	84.5700
 0.4270	84.6800
 0.4280	84.6100
 0.4290	84.7200
 0.4300	84.8300
 0.4310	84.7700
 0.4320	84.9500
 0.4330	84.8500
 0.4340	84.8400
 0.4350	84.9200
 0.4360	85.0400
 0.4370	85.0800
 0.4380	85.0900
 0.4390	85.2100
 0.4400	85.2600
 0.4410	85.2100
 0.4420	85.2200
 0.4430	85.1700
 0.4440	85.3000
 0.4450	85.3600
 0.4460	85.2500
 0.4470	85.2900
 0.4480	85.1900
 0.4490	85.3600
 0.4500	85.4500
 0.4510	85.3400
 0.4520	85.5800
 0.4530	85.3900
 0.4540	85.3100
 0.4550	85.4600
 0.4560	85.6100
 0.4570	85.6400
 0.4580	85.6100
 0.4590	85.6200
 0.4600	85.6800
 0.4610	85.7200
 0.4620	85.6600
 0.4630	85.6200
 0.4640	85.7900
 0.4650	85.7800
 0.4660	85.6700
 0.4670	85.7300
 0.4680	85.7800
 0.4690	85.7900
 0.4700	85.9000
 0.4710	85.9100
 0.4720	86.0900
 0.4730	85.9100
 0.4740	86.0500
 0.4750	86.1200
 0.4760	86.0000
 0.4770	86.1500
 0.4780	86.0600
 0.4790	86.0800
 0.4800	86.0700
 0.4810	86.0500
 0.4820	86.2400
 0.4830	86.1500
 0.4840	86.1100
 0.4850	86.2100
 0.4860	86.2100
 0.4870	86.2700
 0.4880	86.2300
 0.4890	86.1200
 0.4900	86.1300
 0.4910	86.2600
 0.4920	86.4000
 0.4930	86.3100
 0.4940	86.3300
 0.4950	86.2800
 0.4960	86.3500
 0.4970	86.4700
 0.4980	86.4300
 0.4990	86.4900
 0.5000	86.6200
 0.5010	86.5100
 0.5020	86.5800
 0.5030	86.5800
 0.5040	86.4700
 0.5050	86.6400
 0.5060	86.6400
 0.5070	86.7600
 0.5080	86.7000
 0.5090	86.7500
 0.5100	86.8100
 0.5110	86.6900
 0.5120	86.8000
 0.5130	86.8700
 0.5140	86.8800
 0.5150	86.8900
 0.5160	86.8300
 0.5170	86.9500
 0.5180	86.9600
 0.5190	86.9700
 0.5200	87.0200
 0.5210	87.0700
 0.5220	87.0800
 0.5230	87.0900
 0.5240	87.0200
 0.5250	87.0600
 0.5260	87.0000
 0.5270	87.0800
 0.5280	87.0900
 0.5290	87.1300
 0.5300	87.2200
 0.5310	87.1500
 0.5320	87.1700
 0.5330	87.2200
 0.5340	87.1700
 0.5350	87.2400
 0.5360	87.1200
 0.5370	87.1800
 0.5380	87.2900
 0.5390	87.2800
 0.5400	87.3400
 0.5410	87.2800
 0.5420	87.2900
 0.5430	87.3700
 0.5440	87.3200
 0.5450	87.4500
 0.5460	87.4600
 0.5470	87.4700
 0.5480	87.4800
 0.5490	87.3800
 0.5500	87.6200
 0.5510	87.6200
 0.5520	87.6800
 0.5530	87.6800
 0.5540	87.5000
 0.5550	87.6700
 0.5560	87.6800
 0.5570	87.7400
 0.5580	87.7700
 0.5590	87.6800
 0.5600	87.7800
 0.5610	88.3000
 0.5620	88.1900
 0.5630	88.3100
 0.5640	88.2500
 0.5650	88.2400
 0.5660	88.3000
 0.5670	88.2900
 0.5680	88.4600
 0.5690	88.3600
 0.5700	88.2500
 0.5710	88.3000
 0.5720	88.1200
 0.5730	88.3400
 0.5740	88.0600
 0.5750	88.1300
 0.5760	88.2800
 0.5770	88.2100
 0.5780	88.3700
 0.5790	88.2500
 0.5800	88.1100
 0.5810	88.2300
 0.5820	88.2200
 0.5830	88.3400
 0.5840	88.2200
 0.5850	88.2300
 0.5860	88.2900
 0.5870	88.2300
 0.5880	88.4000
 0.5890	88.2800
 0.5900	88.2300
 0.5910	88.4100
 0.5920	88.3500
 0.5930	88.5200
 0.5940	88.4000
 0.5950	88.4100
 0.5960	88.4700
 0.5970	88.3600
 0.5980	88.5600
 0.5990	88.5300
 0.6000	88.5000
 0.6010	88.5400
 0.6020	88.3900
 0.6030	88.6300
 0.6040	88.6300
 0.6050	88.5900
 0.6060	88.6400
 0.6070	88.5400
 0.6080	88.6500
 0.6090	88.6600
 0.6100	88.6200
 0.6110	88.5600
 0.6120	88.5000
 0.6130	88.5000
 0.6140	88.6100
 0.6150	88.5000
 0.6160	88.5500
 0.6170	88.4900
 0.6180	88.5400
 0.6190	88.4700
 0.6200	88.4300
 0.6210	88.5000
 0.6220	88.4000
 0.6230	88.5000
 0.6240	88.5600
 0.6250	88.5000
 0.6260	88.6200
 0.6270	88.4500
 0.6280	88.5600
 0.6290	88.5500
 0.6300	88.5400
 0.6310	88.6500
 0.6320	88.5500
 0.6330	88.6200
 0.6340	88.6200
 0.6350	88.5000
 0.6360	88.6000
 0.6370	88.4400
 0.6380	88.3900
 0.6390	88.5000
 0.6400	88.5000
 0.6410	88.6500
 0.6420	88.5400
 0.6430	88.5500
 0.6440	88.4900
 0.6450	88.4400
 0.6460	88.6700
 0.6470	88.6200
 0.6480	88.5000
 0.6490	88.5600
 0.6500	88.5000
 0.6510	88.6200
 0.6520	88.7200
 0.6530	88.6100
 0.6540	88.6500
 0.6550	88.5400
 0.6560	88.6400
 0.6570	88.6000
 0.6580	88.5600
 0.6590	88.5000
 0.6600	88.5700
 0.6610	88.6100
 0.6620	88.7200
 0.6630	88.5600
 0.6640	88.8400
 0.6650	88.6200
 0.6660	88.6100
 0.6670	88.7100
 0.6680	88.6500
 0.6690	88.7700
 0.6700	88.6600
 0.6710	88.6300
 0.6720	88.6600
 0.6730	88.5600
 0.6740	88.6600
 0.6750	88.6600
 0.6760	88.6600
 0.6770	88.6700
 0.6780	88.6200
 0.6790	88.7100
 0.6800	88.7000
 0.6810	88.6000
 0.6820	88.7700
 0.6830	88.6200
 0.6840	88.7900
 0.6850	88.7800
 0.6860	88.7200
 0.6870	88.7200
 0.6880	88.6300
 0.6890	88.7300
 0.6900	88.7300
 0.6910	88.6600
 0.6920	88.7100
 0.6930	88.7000
 0.6940	88.8200
 0.6950	88.7700
 0.6960	88.7700
 0.6970	88.8300
 0.6980	88.7600
 0.6990	88.6500
 0.7000	88.7200
 0.7010	88.6800
 0.7020	88.7200
 0.7030	88.8000
 0.7040	88.7300
 0.7050	88.6700
 0.7060	88.7200
 0.7070	88.7300
 0.7080	88.7300
 0.7090	88.6700
 0.7100	88.7200
 0.7110	88.8800
 0.7120	88.9400
 0.7130	88.7800
 0.7140	88.8400
 0.7150	88.7300
 0.7160	88.8400
 0.7170	88.8800
 0.7180	88.7800
 0.7190	88.8400
 0.7200	88.7300
 0.7210	88.7800
 0.7220	88.7100
 0.7230	88.6600
 0.7240	88.6700
 0.7250	88.6800
 0.7260	88.7200
 0.7270	88.7800
 0.7280	88.7400
 0.7290	88.9100
 0.7300	88.6300
 0.7310	88.6700
 0.7320	88.7100
 0.7330	88.7100
 0.7340	88.7800
 0.7350	88.5800
 0.7360	88.6800
 0.7370	88.7300
 0.7380	88.7300
 0.7390	88.7900
 0.7400	88.7900
 0.7410	88.7300
 0.7420	88.7800
 0.7430	88.7800
 0.7440	88.9100
 0.7450	88.7400
 0.7460	88.6800
 0.7470	88.7300
 0.7480	88.7300
 0.7490	88.7400
 0.7500	88.8000
 0.7510	88.6800
 0.7520	88.7900
 0.7530	88.7400
 0.7540	88.6900
 0.7550	88.7400
 0.7560	88.7900
 0.7570	88.8000
 0.7580	88.6900
 0.7590	88.7400
 0.7600	88.7900
 0.7610	88.6300
 0.7620	88.6300
 0.7630	88.6300
 0.7640	88.8000
 0.7650	88.7500
 0.7660	88.7500
 0.7670	88.7000
 0.7680	88.7500
 0.7690	88.7400
 0.7700	88.7400
 0.7710	88.7500
 0.7720	88.6500
 0.7730	88.7500
 0.7740	88.7500
 0.7750	88.8000
 0.7760	88.7500
 0.7770	88.6900
 0.7780	88.6300
 0.7790	88.5900
 0.7800	88.7500
 0.7810	88.6400
 0.7820	88.6900
 0.7830	88.5300
 0.7840	88.7000
 0.7850	88.8700
 0.7860	88.8100
 0.7870	88.8600
 0.7880	88.7400
 0.7890	88.7500
 0.7900	88.8100
 0.7910	88.7500
 0.7920	88.8000
 0.7930	88.5900
 0.7940	88.7500
 0.7950	88.9100
 0.7960	88.8400
 0.7970	88.8900
 0.7980	88.7800
 0.7990	88.7100
 0.8000	88.8300
 0.8040	88.8200
 0.8080	88.8800
 0.8120	88.8100
 0.8160	88.8200
 0.8200	88.8800
 0.8240	88.8300
 0.8280	88.8300
 0.8320	88.9300
 0.8360	88.9200
 0.8400	88.9300
 0.8440	88.9200
 0.8480	88.9300
 0.8520	88.9200
 0.8560	89.0300
 0.8600	89.0200
 0.8640	89.0300
 0.8680	89.0200
 0.8720	89.1400
 0.8760	89.1400
 0.8800	89.0800
 0.8840	89.0200
 0.8880	88.9700
 0.8920	89.0800
 0.8960	89.1400
 0.9000	89.0800
 0.9040	89.1400
 0.9080	89.2000
 0.9120	89.1900
 0.9160	89.2000
 0.9200	89.1900
 0.9240	89.2600
 0.9280	89.2600
 0.9320	89.3200
 0.9360	89.3200
 0.9400	89.3100
 0.9440	89.3100
 0.9480	89.3100
 0.9520	89.3700
 0.9560	89.4400
 0.9600	89.3800
 0.9640	89.3700
 0.9680	89.4400
 0.9720	89.3200
 0.9760	89.3200
 0.9800	89.3300
 0.9840	89.3400
 0.9880	89.3300
 0.9920	89.3200
 0.9960	89.3500
 1.0000	89.3500
 1.0040	89.3200
 1.0080	89.3800
 1.0120	89.2600
 1.0160	89.3800
 1.0200	89.3800
 1.0240	89.3800
 1.0280	89.3800
 1.0320	89.3300
 1.0360	89.3900
 1.0400	89.5100
 1.0440	89.5100
 1.0480	89.4300
 1.0520	89.3900
 1.0560	89.3800
 1.0600	89.5300
 1.0640	89.5200
 1.0680	89.4700
 1.0720	89.5900
 1.0760	89.5500
 1.0800	89.6300
 1.0840	89.5900
 1.0880	89.6100
 1.0920	89.6700
 1.0960	89.6200
 1.1000	89.6100
 1.1040	89.6700
 1.1080	89.6300
 1.1120	89.6300
 1.1160	89.6300
 1.1200	89.7100
 1.1240	89.7700
 1.1280	89.7000
 1.1320	89.6200
 1.1360	89.5400
 1.1400	89.6400
 1.1440	89.4900
 1.1480	89.5800
 1.1520	89.5000
 1.1560	89.5500
 1.1600	89.4800
 1.1640	89.4200
 1.1680	89.4700
 1.1720	89.4000
 1.1760	89.4500
 1.1800	89.4600
 1.1840	89.3900
 1.1880	89.4400
 1.1920	89.4600
 1.1960	89.5000
 1.2000	89.4200
 1.2040	89.6000
 1.2080	89.4900
 1.2120	89.4500
 1.2160	89.4100
 1.2200	89.5000
 1.2240	89.5000
 1.2280	89.4500
 1.2320	89.4500
 1.2360	89.4700
 1.2400	89.4800
 1.2440	89.4900
 1.2480	89.5000
 1.2520	89.5100
 1.2560	89.5200
 1.2600	89.5100
 1.2640	89.6100
 1.2680	89.6000
 1.2720	89.6100
 1.2760	89.5800
 1.2800	89.5700
 1.2840	89.5700
 1.2880	89.6300
 1.2920	89.5200
 1.2960	89.5800
 1.3000	89.4500
 1.3040	89.5600
 1.3080	89.5000
 1.3120	89.4400
 1.3160	89.5400
 1.3200	89.4700
 1.3240	89.4600
 1.3280	89.4600
 1.3320	89.4000
 1.3360	89.4000
 1.3400	89.3800
 1.3440	89.3200
 1.3480	89.3800
 1.3520	89.3800
 1.3560	89.3900
 1.3600	89.3100
 1.3640	89.3000
 1.3680	89.4000
 1.3720	89.3500
 1.3760	89.2300
 1.3800	89.1900
 1.3840	89.1900
 1.3880	89.2000
 1.3920	89.0200
 1.3960	89.0100
 1.4000	88.9000
 1.4040	88.7800
 1.4080	88.6900
 1.4120	88.5100
 1.4160	88.4700
 1.4200	88.4100
 1.4240	88.2400
 1.4280	88.3600
 1.4320	88.3000
 1.4360	88.2700
 1.4400	88.3400
 1.4440	88.3000
 1.4480	88.2900
 1.4520	88.2600
 1.4560	88.2500
 1.4600	88.2400
 1.4640	88.3600
 1.4680	88.4100
 1.4720	88.4600
 1.4760	88.4800
 1.4800	88.5800
 1.4840	88.5200
 1.4880	88.6600
 1.4920	88.7500
 1.4960	88.6600
 1.5000	88.7400
 1.5040	88.7500
 1.5080	88.8600
 1.5120	88.8700
 1.5160	89.0300
 1.5200	89.0300
 1.5240	89.0900
 1.5280	89.1500
 1.5320	89.1000
 1.5360	89.1100
 1.5400	89.1700
 1.5440	89.1800
 1.5480	89.2400
 1.5520	89.1700
 1.5560	89.2300
 1.5600	89.2800
 1.5640	89.2800
 1.5680	89.3400
 1.5720	89.2900
 1.5760	89.3600
 1.5800	89.2900
 1.5840	89.2300
 1.5880	89.2400
 1.5920	89.2800
 1.5960	89.3400
 1.6000	89.4400
 1.6040	89.3200
 1.6080	89.3600
 1.6120	89.3500
 1.6160	89.3600
 1.6200	89.4100
 1.6240	89.4000
 1.6280	89.3400
 1.6320	89.3100
 1.6360	89.3500
 1.6400	89.4600
 1.6440	89.3300
 1.6480	89.4400
 1.6520	89.4400
 1.6560	89.4300
 1.6600	89.5800
 1.6640	89.4600
 1.6680	89.5100
 1.6720	89.4500
 1.6760	89.5500
 1.6800	89.5300
 1.6840	89.4100
 1.6880	89.5300
 1.6920	89.4900
 1.6960	89.5200
 1.7000	89.5800
 1.7040	89.5300
 1.7080	89.5800
 1.7120	89.5800
 1.7160	89.6100
 1.7200	89.6100
 1.7240	89.5700
 1.7280	89.4500
 1.7320	89.5200
 1.7360	89.5300
 1.7400	89.4700
 1.7440	89.4100
 1.7480	89.4000
 1.7520	89.4000
 1.7560	89.4100
 1.7600	89.4400
 1.7640	89.4600
 1.7680	89.2900
 1.7720	89.3500
 1.7760	89.3000
 1.7800	89.3500
 1.7840	89.3100
 1.7880	89.2400
 1.7920	89.2900
 1.7960	89.1700
 1.8000	89.2900
 1.8040	89.2100
 1.8080	89.1900
 1.8120	89.1600
 1.8160	89.2500
 1.8200	89.2700
 1.8240	89.2500
 1.8280	89.2600
 1.8320	89.3000
 1.8360	89.1500
 1.8400	89.2900
 1.8440	89.2500
 1.8480	89.1900
 1.8520	89.1600
 1.8560	89.1100
 1.8600	89.1600
 1.8640	89.0400
 1.8680	88.9100
 1.8720	88.8000
 1.8760	88.6000
 1.8800	88.3100
 1.8840	87.9700
 1.8880	87.6900
 1.8920	87.2900
 1.8960	86.8300
 1.9000	86.4200
 1.9040	85.8200
 1.9080	85.4100
 1.9120	85.1900
 1.9160	84.7500
 1.9200	84.5900
 1.9240	84.5000
 1.9280	84.2800
 1.9320	84.2500
 1.9360	84.2200
 1.9400	84.2800
 1.9440	84.2100
 1.9480	84.2900
 1.9520	84.3300
 1.9560	84.4300
 1.9600	84.4800
 1.9640	84.6100
 1.9680	84.7800
 1.9720	84.9100
 1.9760	85.0200
 1.9800	85.2400
 1.9840	85.5100
 1.9880	85.6500
 1.9920	85.8800
 1.9960	86.1800
 2.0000	86.3800
 2.0040	86.5800
 2.0080	86.7400
 2.0120	86.9300
 2.0160	87.1400
 2.0200	87.3200
 2.0240	87.4800
 2.0280	87.6900
 2.0320	87.7400
 2.0360	87.9300
 2.0400	87.9900
 2.0440	88.1500
 2.0480	88.1900
 2.0520	88.2500
 2.0560	88.3300
 2.0600	88.3600
 2.0640	88.4400
 2.0680	88.5600
 2.0720	88.5300
 2.0760	88.6000
 2.0800	88.6700
 2.0840	88.8600
 2.0880	88.7100
 2.0920	88.9100
 2.0960	88.9200
 2.1000	89.0500
 2.1040	89.1300
 2.1080	89.3000
 2.1120	89.3700
 2.1160	89.4400
 2.1200	89.5100
 2.1240	89.6000
 2.1280	89.5200
 2.1320	89.5400
 2.1360	89.5400
 2.1400	89.5300
 2.1440	89.5600
 2.1480	89.4300
 2.1520	89.4800
 2.1560	89.4500
 2.1600	89.3800
 2.1640	89.3400
 2.1680	89.2200
 2.1720	89.2300
 2.1760	89.3000
 2.1800	89.2400
 2.1840	89.1500
 2.1880	89.1600
 2.1920	89.1800
 2.1960	89.1400
 2.2000	89.1000
 2.2040	89.1000
 2.2080	88.9800
 2.2120	89.0500
 2.2160	89.0300
 2.2200	89.0100
 2.2240	89.0800
 2.2280	89.0300
 2.2320	89.0100
 2.2360	89.0800
 2.2400	89.0400
 2.2440	89.0300
 2.2480	88.9900
 2.2520	88.9200
 2.2560	89.0400
 2.2600	88.9500
 2.2640	89.0100
 2.2680	88.9600
 2.2720	88.9300
 2.2760	88.9700
 2.2800	88.9300
 2.2840	88.9300
 2.2880	88.9000
 2.2920	88.8800
 2.2960	88.7700
 2.3000	88.8100
 2.3040	88.8900
 2.3080	88.8600
 2.3120	88.9300
 2.3160	88.9700
 2.3200	88.9800
 2.3240	89.0900
 2.3280	89.0700
 2.3320	89.0100
 2.3360	88.9400
 2.3400	88.8900
 2.3440	88.8700
 2.3480	88.8500
 2.3520	88.8200
 2.3560	88.7800
 2.3600	88.7500
 2.3640	88.6600
 2.3680	88.5100
 2.3720	88.4800
 2.3760	88.4900
 2.3800	88.4300
 2.3840	88.4000
 2.3880	88.3000
 2.3920	88.2300
 2.3960	88.1800
 2.4000	88.1200
 2.4040	88.1100
 2.4080	88.0000
 2.4120	88.0000
 2.4160	87.8200
 2.4200	87.7700
 2.4240	87.8500
 2.4280	87.6300
 2.4320	87.7000
 2.4360	87.5100
 2.4400	87.3900
 2.4440	87.3300
 2.4480	87.2000
 2.4520	87.1000
 2.4560	87.0400
 2.4600	86.9100
 2.4640	86.8500
 2.4680	86.7900
 2.4720	86.6700
 2.4760	86.7100
 2.4800	86.7100
 2.4840	86.7600
 2.4880	86.7400
 2.4920	86.8100
 2.4960	86.9200
 2.5000	86.9400
