Name: Marcasite FeS_2
Type: Mineral
Class: Sulfide
Subclass: None
Particle Size: Coarse
Sample No.: S-10A
Owner: JPL
Wavelength Range: VSWIR
Origin: USA, Indiana, Jasper County, Rensselaer, Pleasant Ridge Quarry.
Collection Date: N/A
Description: Particle size was 125-500um.Collected by:  Ward's Original ASTER Spectral Library name was jpl.perkin.mineral.sulfide.none.coarse.s10a.spectrum.txt
Measurement: Hemispherical reflectance
First Column: X
Second Column: Y
X Units: Wavelength (micrometers)
Y Units:Reflectance (percent)
First X Value:  2.5000
Last X Value:  0.4000
Number of X Values: 2101
Additional Information: mineral.sulfide.none.coarse.vswir.s-10a.jpl.perkin.ancillary.txt

 2.5000	12.4888
 2.4990	12.0781
 2.4980	12.1186
 2.4970	12.3806
 2.4960	11.7863
 2.4950	12.4503
 2.4940	12.1408
 2.4930	12.2158
 2.4920	12.0830
 2.4910	12.2754
 2.4900	12.2355
 2.4890	12.2636
 2.4880	12.2630
 2.4870	12.4110
 2.4860	12.1501
 2.4850	12.3139
 2.4840	12.2407
 2.4830	12.3226
 2.4820	12.0768
 2.4810	12.3803
 2.4800	12.0059
 2.4790	12.1195
 2.4780	12.1493
 2.4770	12.2312
 2.4760	12.1053
 2.4750	12.2937
 2.4740	12.1260
 2.4730	12.2544
 2.4720	11.9515
 2.4710	12.3772
 2.4700	12.0000
 2.4690	12.3198
 2.4680	12.0415
 2.4670	12.3287
 2.4660	12.1624
 2.4650	12.2992
 2.4640	12.1817
 2.4630	12.2134
 2.4620	12.1233
 2.4610	12.2824
 2.4600	12.0712
 2.4590	12.2293
 2.4580	12.0858
 2.4570	12.1881
 2.4560	12.1226
 2.4550	12.2708
 2.4540	12.1223
 2.4530	12.2197
 2.4520	12.1486
 2.4510	12.1343
 2.4500	12.0902
 2.4490	12.1900
 2.4480	12.1479
 2.4470	12.2983
 2.4460	12.1146
 2.4450	12.2293
 2.4440	12.1746
 2.4430	12.2783
 2.4420	12.1397
 2.4410	12.1999
 2.4400	12.1253
 2.4390	12.1855
 2.4380	12.1252
 2.4370	12.2480
 2.4360	12.1145
 2.4350	12.2196
 2.4340	12.1031
 2.4330	12.1792
 2.4320	12.0054
 2.4310	12.1550
 2.4300	12.1618
 2.4290	12.2446
 2.4280	12.1460
 2.4270	12.2030
 2.4260	12.1403
 2.4250	12.1879
 2.4240	12.1433
 2.4230	12.2299
 2.4220	12.1632
 2.4210	12.2308
 2.4200	12.1146
 2.4190	12.2311
 2.4180	12.0946
 2.4170	12.1422
 2.4160	12.1815
 2.4150	12.2526
 2.4140	12.1242
 2.4130	12.1291
 2.4120	12.1339
 2.4110	12.1683
 2.4100	12.0910
 2.4090	12.1700
 2.4080	12.1560
 2.4070	12.1322
 2.4060	12.0422
 2.4050	12.0898
 2.4040	12.0659
 2.4030	12.1464
 2.4020	12.0899
 2.4010	12.1525
 2.4000	12.1103
 2.3990	12.1565
 2.3980	12.0348
 2.3970	12.1208
 2.3960	12.1068
 2.3950	12.1462
 2.3940	12.1307
 2.3930	12.1197
 2.3920	12.0435
 2.3910	12.1129
 2.3900	12.1363
 2.3890	12.0967
 2.3880	12.0972
 2.3870	12.1303
 2.3860	12.1262
 2.3850	12.1531
 2.3840	12.0820
 2.3830	12.1266
 2.3820	12.1077
 2.3810	12.1203
 2.3800	12.0773
 2.3790	12.1014
 2.3780	12.1223
 2.3770	12.1088
 2.3760	12.0467
 2.3750	12.1001
 2.3740	12.1092
 2.3730	12.1463
 2.3720	12.1303
 2.3710	12.1354
 2.3700	12.0998
 2.3690	12.0598
 2.3680	12.0728
 2.3670	12.1119
 2.3660	12.1050
 2.3650	12.1371
 2.3640	12.1161
 2.3630	12.1274
 2.3620	12.1413
 2.3610	12.1075
 2.3600	12.1071
 2.3590	12.1141
 2.3580	12.0798
 2.3570	12.0794
 2.3560	12.1276
 2.3550	12.1137
 2.3540	12.0838
 2.3530	12.0662
 2.3520	12.0753
 2.3510	12.0479
 2.3500	12.0875
 2.3490	12.1049
 2.3480	12.0955
 2.3470	12.1124
 2.3460	12.0800
 2.3450	12.0777
 2.3440	12.0669
 2.3430	12.0068
 2.3420	12.0152
 2.3410	11.9777
 2.3400	12.0335
 2.3390	12.0714
 2.3380	12.0223
 2.3370	12.0003
 2.3360	12.0561
 2.3350	12.0378
 2.3340	12.0007
 2.3330	12.0017
 2.3320	12.0301
 2.3310	12.0405
 2.3300	12.0399
 2.3290	11.9627
 2.3280	12.0015
 2.3270	12.0118
 2.3260	12.0196
 2.3250	12.0023
 2.3240	12.0180
 2.3230	12.0152
 2.3220	12.0165
 2.3210	11.9568
 2.3200	12.0126
 2.3190	12.0069
 2.3180	12.0395
 2.3170	12.0112
 2.3160	12.0494
 2.3150	11.9936
 2.3140	11.9863
 2.3130	11.9987
 2.3120	12.0301
 2.3110	11.9939
 2.3100	11.9520
 2.3090	11.9287
 2.3080	12.0096
 2.3070	11.9634
 2.3060	11.9464
 2.3050	11.8843
 2.3040	11.9607
 2.3030	11.9917
 2.3020	12.0092
 2.3010	11.9595
 2.3000	12.0023
 2.2990	11.9355
 2.2980	11.9910
 2.2970	11.9883
 2.2960	12.0026
 2.2950	11.9487
 2.2940	11.9306
 2.2930	11.8613
 2.2920	11.9676
 2.2910	11.8901
 2.2900	11.9608
 2.2890	11.8858
 2.2880	11.8870
 2.2870	11.9203
 2.2860	11.8989
 2.2850	11.8574
 2.2840	12.0050
 2.2830	11.8910
 2.2820	11.9708
 2.2810	11.8632
 2.2800	11.9353
 2.2790	11.8736
 2.2780	11.9433
 2.2770	11.8444
 2.2760	11.9178
 2.2750	11.8758
 2.2740	11.7957
 2.2730	11.8158
 2.2720	11.8603
 2.2710	11.8550
 2.2700	11.9258
 2.2690	11.8334
 2.2680	11.9198
 2.2670	11.8369
 2.2660	11.8469
 2.2650	11.7836
 2.2640	11.8517
 2.2630	11.8235
 2.2620	11.8708
 2.2610	11.8106
 2.2600	11.8991
 2.2590	11.8514
 2.2580	11.8696
 2.2570	11.8442
 2.2560	11.8424
 2.2550	11.8152
 2.2540	11.8661
 2.2530	11.7250
 2.2520	11.8244
 2.2510	11.7114
 2.2500	11.8171
 2.2490	11.8326
 2.2480	11.7923
 2.2470	11.7170
 2.2460	11.8262
 2.2450	11.7323
 2.2440	11.8167
 2.2430	11.7484
 2.2420	11.8791
 2.2410	11.6495
 2.2400	11.8203
 2.2390	11.7307
 2.2380	11.7571
 2.2370	11.7182
 2.2360	11.7388
 2.2350	11.7207
 2.2340	11.7557
 2.2330	11.7580
 2.2320	11.7750
 2.2310	11.7254
 2.2300	11.7852
 2.2290	11.7106
 2.2280	11.8346
 2.2270	11.6761
 2.2260	11.7436
 2.2250	11.7339
 2.2240	11.7997
 2.2230	11.7536
 2.2220	11.7998
 2.2210	11.6890
 2.2200	11.8282
 2.2190	11.6516
 2.2180	11.8449
 2.2170	11.7557
 2.2160	11.7528
 2.2150	11.6970
 2.2140	11.7895
 2.2130	11.7374
 2.2120	11.8917
 2.2110	11.4970
 2.2100	11.8312
 2.2090	11.7209
 2.2080	11.7782
 2.2070	11.7147
 2.2060	11.8201
 2.2050	11.7251
 2.2040	11.7829
 2.2030	11.7001
 2.2020	11.8307
 2.2010	11.5982
 2.2000	11.7442
 2.1990	11.6543
 2.1980	11.7559
 2.1970	11.6783
 2.1960	11.7346
 2.1950	11.7093
 2.1940	11.7322
 2.1930	11.6947
 2.1920	11.7576
 2.1910	11.6568
 2.1900	11.7933
 2.1890	11.7285
 2.1880	11.8499
 2.1870	11.6614
 2.1860	11.8018
 2.1850	11.6617
 2.1840	11.7965
 2.1830	11.7213
 2.1820	11.7716
 2.1810	11.7181
 2.1800	11.8392
 2.1790	11.6842
 2.1780	11.7521
 2.1770	11.6655
 2.1760	11.7351
 2.1750	11.6926
 2.1740	11.7799
 2.1730	11.7135
 2.1720	11.7596
 2.1710	11.7360
 2.1700	11.6979
 2.1690	11.7097
 2.1680	11.7399
 2.1670	11.6861
 2.1660	11.7462
 2.1650	11.6974
 2.1640	11.8033
 2.1630	11.6659
 2.1620	11.7098
 2.1610	11.6604
 2.1600	11.7174
 2.1590	11.7019
 2.1580	11.7489
 2.1570	11.7688
 2.1560	11.7612
 2.1550	11.6647
 2.1540	11.7487
 2.1530	11.7080
 2.1520	11.7804
 2.1510	11.6554
 2.1500	11.6716
 2.1490	11.6716
 2.1480	11.7362
 2.1470	11.7419
 2.1460	11.7494
 2.1450	11.6810
 2.1440	11.8195
 2.1430	11.6771
 2.1420	11.6659
 2.1410	11.6688
 2.1400	11.6691
 2.1390	11.6378
 2.1380	11.6780
 2.1370	11.6523
 2.1360	11.6803
 2.1350	11.6085
 2.1340	11.6414
 2.1330	11.5743
 2.1320	11.6704
 2.1310	11.6065
 2.1300	11.6134
 2.1290	11.6164
 2.1280	11.6388
 2.1270	11.5820
 2.1260	11.5984
 2.1250	11.5783
 2.1240	11.5510
 2.1230	11.5544
 2.1220	11.6301
 2.1210	11.5404
 2.1200	11.5544
 2.1190	11.5429
 2.1180	11.4907
 2.1170	11.4908
 2.1160	11.5331
 2.1150	11.4288
 2.1140	11.4957
 2.1130	11.4535
 2.1120	11.5199
 2.1110	11.4586
 2.1100	11.4348
 2.1090	11.4399
 2.1080	11.4273
 2.1070	11.3719
 2.1060	11.4363
 2.1050	11.4087
 2.1040	11.3880
 2.1030	11.3462
 2.1020	11.4040
 2.1010	11.3672
 2.1000	11.3812
 2.0990	11.2702
 2.0980	11.2694
 2.0970	11.3514
 2.0960	11.3711
 2.0950	11.3630
 2.0940	11.3679
 2.0930	11.3685
 2.0920	11.3716
 2.0910	11.3077
 2.0900	11.3343
 2.0890	11.3146
 2.0880	11.4113
 2.0870	11.3961
 2.0860	11.3383
 2.0850	11.3168
 2.0840	11.3569
 2.0830	11.3751
 2.0820	11.3644
 2.0810	11.3389
 2.0800	11.3609
 2.0790	11.3354
 2.0780	11.3141
 2.0770	11.3351
 2.0760	11.3708
 2.0750	11.3376
 2.0740	11.3331
 2.0730	11.3255
 2.0720	11.3160
 2.0710	11.3501
 2.0700	11.3687
 2.0690	11.3405
 2.0680	11.3343
 2.0670	11.3619
 2.0660	11.3480
 2.0650	11.3451
 2.0640	11.3415
 2.0630	11.3265
 2.0620	11.3048
 2.0610	11.2803
 2.0600	11.2592
 2.0590	11.3691
 2.0580	11.3476
 2.0570	11.3040
 2.0560	11.3398
 2.0550	11.3697
 2.0540	11.3251
 2.0530	11.2777
 2.0520	11.2588
 2.0510	11.2751
 2.0500	11.2774
 2.0490	11.3378
 2.0480	11.3003
 2.0470	11.3139
 2.0460	11.3111
 2.0450	11.3075
 2.0440	11.2595
 2.0430	11.3390
 2.0420	11.3366
 2.0410	11.2973
 2.0400	11.2941
 2.0390	11.3311
 2.0380	11.3528
 2.0370	11.3197
 2.0360	11.2435
 2.0350	11.2878
 2.0340	11.2659
 2.0330	11.2913
 2.0320	11.2828
 2.0310	11.3007
 2.0300	11.2815
 2.0290	11.3379
 2.0280	11.2592
 2.0270	11.2760
 2.0260	11.2144
 2.0250	11.2738
 2.0240	11.2202
 2.0230	11.2034
 2.0220	11.2341
 2.0210	11.3163
 2.0200	11.2244
 2.0190	11.2476
 2.0180	11.2046
 2.0170	11.2158
 2.0160	11.1800
 2.0150	11.2441
 2.0140	11.1998
 2.0130	11.2841
 2.0120	11.1620
 2.0110	11.2750
 2.0100	11.2412
 2.0090	11.2378
 2.0080	11.1864
 2.0070	11.2023
 2.0060	11.2262
 2.0050	11.2485
 2.0040	11.2087
 2.0030	11.1933
 2.0020	11.1542
 2.0010	11.2480
 2.0000	11.1815
 1.9990	11.2563
 1.9980	11.1507
 1.9970	11.2011
 1.9960	11.2325
 1.9950	11.1869
 1.9940	11.1459
 1.9930	11.1616
 1.9920	11.1083
 1.9910	11.1279
 1.9900	11.0471
 1.9890	11.1624
 1.9880	11.0599
 1.9870	11.1054
 1.9860	11.0648
 1.9850	11.0804
 1.9840	11.0854
 1.9830	11.1951
 1.9820	11.0604
 1.9810	11.1663
 1.9800	11.0707
 1.9790	11.1551
 1.9780	11.0626
 1.9770	11.1118
 1.9760	11.0955
 1.9750	11.0534
 1.9740	10.9936
 1.9730	11.1026
 1.9720	11.0302
 1.9710	11.0946
 1.9700	10.9942
 1.9690	11.0951
 1.9680	11.0184
 1.9670	11.1492
 1.9660	11.0207
 1.9650	10.9740
 1.9640	10.9401
 1.9630	11.0830
 1.9620	10.9849
 1.9610	11.0480
 1.9600	10.9303
 1.9590	11.0725
 1.9580	10.9621
 1.9570	11.0543
 1.9560	11.0014
 1.9550	11.0363
 1.9540	11.0334
 1.9530	11.0524
 1.9520	10.9271
 1.9510	10.9174
 1.9500	10.9331
 1.9490	11.0893
 1.9480	10.9898
 1.9470	10.9382
 1.9460	10.8363
 1.9450	10.9651
 1.9440	10.9829
 1.9430	10.9794
 1.9420	10.8923
 1.9410	11.0169
 1.9400	10.8733
 1.9390	10.9917
 1.9380	10.9491
 1.9370	11.0778
 1.9360	10.8609
 1.9350	10.9046
 1.9340	10.9319
 1.9330	10.9269
 1.9320	10.8691
 1.9310	10.9124
 1.9300	10.8305
 1.9290	10.9887
 1.9280	10.8562
 1.9270	11.0914
 1.9260	10.6711
 1.9250	11.0721
 1.9240	10.8335
 1.9230	10.8931
 1.9220	10.9326
 1.9210	10.8595
 1.9200	10.8617
 1.9190	10.8877
 1.9180	10.8786
 1.9170	10.9194
 1.9160	10.8853
 1.9150	10.8469
 1.9140	10.8849
 1.9130	10.9333
 1.9120	10.8083
 1.9110	10.9456
 1.9100	10.8423
 1.9090	11.0256
 1.9080	10.8109
 1.9070	10.9379
 1.9060	10.8699
 1.9050	10.8968
 1.9040	10.8826
 1.9030	10.9528
 1.9020	10.8832
 1.9010	10.9552
 1.9000	10.8730
 1.8990	10.8827
 1.8980	10.8330
 1.8970	10.8192
 1.8960	10.8683
 1.8950	10.9345
 1.8940	10.8542
 1.8930	10.9170
 1.8920	10.8983
 1.8910	10.9910
 1.8900	10.7852
 1.8890	10.9203
 1.8880	10.8437
 1.8870	10.9488
 1.8860	10.8216
 1.8850	10.9236
 1.8840	10.8916
 1.8830	10.9019
 1.8820	10.9082
 1.8810	10.9814
 1.8800	10.8792
 1.8790	10.9803
 1.8780	10.8943
 1.8770	10.9981
 1.8760	10.8875
 1.8750	10.9110
 1.8740	10.8827
 1.8730	10.8589
 1.8720	10.7591
 1.8710	10.8799
 1.8700	10.7398
 1.8690	10.8719
 1.8680	10.7509
 1.8670	10.9050
 1.8660	10.8256
 1.8650	10.8973
 1.8640	10.8426
 1.8630	10.8722
 1.8620	10.8665
 1.8610	10.9751
 1.8600	10.8083
 1.8590	10.8183
 1.8580	10.8302
 1.8570	10.8805
 1.8560	10.7504
 1.8550	10.8355
 1.8540	10.7941
 1.8530	10.9051
 1.8520	10.8382
 1.8510	10.9207
 1.8500	10.8116
 1.8490	10.8915
 1.8480	10.8293
 1.8470	10.8727
 1.8460	10.8846
 1.8450	10.8735
 1.8440	10.7504
 1.8430	10.8330
 1.8420	10.8700
 1.8410	10.8400
 1.8400	10.8002
 1.8390	10.8566
 1.8380	10.8098
 1.8370	10.8088
 1.8360	10.7746
 1.8350	10.8122
 1.8340	10.7839
 1.8330	10.8715
 1.8320	10.7854
 1.8310	10.8188
 1.8300	10.7523
 1.8290	10.7397
 1.8280	10.7737
 1.8270	10.7703
 1.8260	10.7360
 1.8250	10.7807
 1.8240	10.7734
 1.8230	10.8111
 1.8220	10.7352
 1.8210	10.7734
 1.8200	10.7515
 1.8190	10.7695
 1.8180	10.7052
 1.8170	10.7301
 1.8160	10.7119
 1.8150	10.7926
 1.8140	10.7300
 1.8130	10.6929
 1.8120	10.7047
 1.8110	10.7658
 1.8100	10.7293
 1.8090	10.7288
 1.8080	10.7081
 1.8070	10.6969
 1.8060	10.6383
 1.8050	10.6759
 1.8040	10.7127
 1.8030	10.6808
 1.8020	10.6512
 1.8010	10.6839
 1.8000	10.6738
 1.7990	10.6403
 1.7980	10.6229
 1.7970	10.7154
 1.7960	10.7169
 1.7950	10.7060
 1.7940	10.7087
 1.7930	10.6496
 1.7920	10.6430
 1.7910	10.6682
 1.7900	10.6406
 1.7890	10.6713
 1.7880	10.6364
 1.7870	10.5973
 1.7860	10.6355
 1.7850	10.6596
 1.7840	10.6384
 1.7830	10.6211
 1.7820	10.5961
 1.7810	10.5188
 1.7800	10.5499
 1.7790	10.6020
 1.7780	10.6154
 1.7770	10.6135
 1.7760	10.6054
 1.7750	10.5916
 1.7740	10.5893
 1.7730	10.5674
 1.7720	10.5976
 1.7710	10.5749
 1.7700	10.5858
 1.7690	10.5821
 1.7680	10.5982
 1.7670	10.5637
 1.7660	10.5368
 1.7650	10.5547
 1.7640	10.5765
 1.7630	10.5553
 1.7620	10.6138
 1.7610	10.5703
 1.7600	10.5552
 1.7590	10.5624
 1.7580	10.5821
 1.7570	10.5462
 1.7560	10.5595
 1.7550	10.5048
 1.7540	10.5497
 1.7530	10.5020
 1.7520	10.4935
 1.7510	10.5117
 1.7500	10.5339
 1.7490	10.5289
 1.7480	10.5382
 1.7470	10.5115
 1.7460	10.5192
 1.7450	10.4810
 1.7440	10.5265
 1.7430	10.5075
 1.7420	10.5357
 1.7410	10.5013
 1.7400	10.5694
 1.7390	10.4671
 1.7380	10.4639
 1.7370	10.4891
 1.7360	10.5048
 1.7350	10.4899
 1.7340	10.5153
 1.7330	10.4711
 1.7320	10.4998
 1.7310	10.4562
 1.7300	10.5656
 1.7290	10.4384
 1.7280	10.4695
 1.7270	10.4534
 1.7260	10.4987
 1.7250	10.4588
 1.7240	10.4395
 1.7230	10.3943
 1.7220	10.4620
 1.7210	10.4094
 1.7200	10.4671
 1.7190	10.4581
 1.7180	10.4922
 1.7170	10.4356
 1.7160	10.4551
 1.7150	10.4567
 1.7140	10.4312
 1.7130	10.3858
 1.7120	10.3946
 1.7110	10.3840
 1.7100	10.4552
 1.7090	10.3732
 1.7080	10.4040
 1.7070	10.4184
 1.7060	10.3872
 1.7050	10.4004
 1.7040	10.4516
 1.7030	10.3905
 1.7020	10.3760
 1.7010	10.3007
 1.7000	10.3975
 1.6990	10.3406
 1.6980	10.4002
 1.6970	10.3406
 1.6960	10.3633
 1.6950	10.3587
 1.6940	10.3490
 1.6930	10.3333
 1.6920	10.2696
 1.6910	10.2554
 1.6900	10.3641
 1.6890	10.2410
 1.6880	10.3467
 1.6870	10.3276
 1.6860	10.3804
 1.6850	10.2499
 1.6840	10.2565
 1.6830	10.2793
 1.6820	10.2864
 1.6810	10.2447
 1.6800	10.3206
 1.6790	10.2020
 1.6780	10.1875
 1.6770	10.2420
 1.6760	10.2888
 1.6750	10.2915
 1.6740	10.1997
 1.6730	10.2364
 1.6720	10.3030
 1.6710	10.1394
 1.6700	10.3512
 1.6690	10.3484
 1.6680	10.0874
 1.6670	10.1343
 1.6660	10.3277
 1.6650	10.1791
 1.6640	10.2142
 1.6630	10.1675
 1.6620	10.2068
 1.6610	10.0901
 1.6600	10.1859
 1.6590	10.1062
 1.6580	10.1401
 1.6570	10.1085
 1.6560	10.2168
 1.6550	10.0832
 1.6540	10.2580
 1.6530	10.0214
 1.6520	10.1507
 1.6510	10.0707
 1.6500	10.1807
 1.6490	10.0911
 1.6480	10.2071
 1.6470	 9.9725
 1.6460	10.1466
 1.6450	 9.9104
 1.6440	10.1662
 1.6430	10.0771
 1.6420	10.2507
 1.6410	 9.9388
 1.6400	10.2693
 1.6390	10.0081
 1.6380	10.1641
 1.6370	 9.9885
 1.6360	10.1616
 1.6350	 9.9984
 1.6340	10.1391
 1.6330	 9.9359
 1.6320	10.1033
 1.6310	10.0172
 1.6300	10.1204
 1.6290	 9.9651
 1.6280	10.0386
 1.6270	 9.9800
 1.6260	10.0368
 1.6250	 9.9935
 1.6240	10.0913
 1.6230	 9.9477
 1.6220	10.0549
 1.6210	 9.9666
 1.6200	10.0580
 1.6190	 9.9347
 1.6180	10.0517
 1.6170	10.0012
 1.6160	10.0680
 1.6150	 9.9998
 1.6140	10.0311
 1.6130	 9.9144
 1.6120	10.0267
 1.6110	 9.9308
 1.6100	 9.9983
 1.6090	 9.8929
 1.6080	 9.9998
 1.6070	 9.9195
 1.6060	10.0122
 1.6050	 9.9401
 1.6040	 9.9709
 1.6030	 9.9849
 1.6020	10.0172
 1.6010	 9.9550
 1.6000	10.0149
 1.5990	 9.9109
 1.5980	 9.9872
 1.5970	 9.8790
 1.5960	 9.9576
 1.5950	 9.9058
 1.5940	 9.8812
 1.5930	 9.8685
 1.5920	 9.9389
 1.5910	 9.8984
 1.5900	 9.9275
 1.5890	 9.8524
 1.5880	 9.9158
 1.5870	 9.8577
 1.5860	 9.8737
 1.5850	 9.8443
 1.5840	 9.9195
 1.5830	 9.8707
 1.5820	 9.9221
 1.5810	 9.8487
 1.5800	 9.8801
 1.5790	 9.8343
 1.5780	 9.8916
 1.5770	 9.8673
 1.5760	 9.8956
 1.5750	 9.8103
 1.5740	 9.8534
 1.5730	 9.8062
 1.5720	 9.8144
 1.5710	 9.7531
 1.5700	 9.8686
 1.5690	 9.8466
 1.5680	 9.8127
 1.5670	 9.7439
 1.5660	 9.7910
 1.5650	 9.8108
 1.5640	 9.8086
 1.5630	 9.7882
 1.5620	 9.8226
 1.5610	 9.7434
 1.5600	 9.8178
 1.5590	 9.7660
 1.5580	 9.7997
 1.5570	 9.6940
 1.5560	 9.7716
 1.5550	 9.7186
 1.5540	 9.7197
 1.5530	 9.7123
 1.5520	 9.7420
 1.5510	 9.7208
 1.5500	 9.7705
 1.5490	 9.7062
 1.5480	 9.7737
 1.5470	 9.7342
 1.5460	 9.7275
 1.5450	 9.6147
 1.5440	 9.6885
 1.5430	 9.7036
 1.5420	 9.6877
 1.5410	 9.6429
 1.5400	 9.6588
 1.5390	 9.6215
 1.5380	 9.6414
 1.5370	 9.6495
 1.5360	 9.6623
 1.5350	 9.6461
 1.5340	 9.6919
 1.5330	 9.6366
 1.5320	 9.6366
 1.5310	 9.6381
 1.5300	 9.6869
 1.5290	 9.6295
 1.5280	 9.6536
 1.5270	 9.5869
 1.5260	 9.5823
 1.5250	 9.5769
 1.5240	 9.6011
 1.5230	 9.6234
 1.5220	 9.6372
 1.5210	 9.6190
 1.5200	 9.5987
 1.5190	 9.5970
 1.5180	 9.5648
 1.5170	 9.5556
 1.5160	 9.6493
 1.5150	 9.6197
 1.5140	 9.6336
 1.5130	 9.6072
 1.5120	 9.5938
 1.5110	 9.5227
 1.5100	 9.5295
 1.5090	 9.5862
 1.5080	 9.5528
 1.5070	 9.5264
 1.5060	 9.5657
 1.5050	 9.5192
 1.5040	 9.5107
 1.5030	 9.5191
 1.5020	 9.5015
 1.5010	 9.4772
 1.5000	 9.5004
 1.4990	 9.5459
 1.4980	 9.5173
 1.4970	 9.5082
 1.4960	 9.4975
 1.4950	 9.5097
 1.4940	 9.5332
 1.4930	 9.5265
 1.4920	 9.4640
 1.4910	 9.4563
 1.4900	 9.5335
 1.4890	 9.4808
 1.4880	 9.4128
 1.4870	 9.4370
 1.4860	 9.4187
 1.4850	 9.4255
 1.4840	 9.3902
 1.4830	 9.4545
 1.4820	 9.4237
 1.4810	 9.3999
 1.4800	 9.4357
 1.4790	 9.4424
 1.4780	 9.3725
 1.4770	 9.4230
 1.4760	 9.4551
 1.4750	 9.3967
 1.4740	 9.3916
 1.4730	 9.4423
 1.4720	 9.3754
 1.4710	 9.3951
 1.4700	 9.3832
 1.4690	 9.4070
 1.4680	 9.3698
 1.4670	 9.3917
 1.4660	 9.3638
 1.4650	 9.4103
 1.4640	 9.3281
 1.4630	 9.3409
 1.4620	 9.3591
 1.4610	 9.3512
 1.4600	 9.2799
 1.4590	 9.3627
 1.4580	 9.3647
 1.4570	 9.3394
 1.4560	 9.2858
 1.4550	 9.3532
 1.4540	 9.3309
 1.4530	 9.3429
 1.4520	 9.3151
 1.4510	 9.3252
 1.4500	 9.2752
 1.4490	 9.2842
 1.4480	 9.2499
 1.4470	 9.3853
 1.4460	 9.2662
 1.4450	 9.2670
 1.4440	 9.3233
 1.4430	 9.3118
 1.4420	 9.3258
 1.4410	 9.3344
 1.4400	 9.2276
 1.4390	 9.2652
 1.4380	 9.2604
 1.4370	 9.2736
 1.4360	 9.1649
 1.4350	 9.2254
 1.4340	 9.1584
 1.4330	 9.2577
 1.4320	 9.2055
 1.4310	 9.2764
 1.4300	 9.1694
 1.4290	 9.2622
 1.4280	 9.2046
 1.4270	 9.2511
 1.4260	 9.1247
 1.4250	 9.1742
 1.4240	 9.1759
 1.4230	 9.1551
 1.4220	 9.1549
 1.4210	 9.2483
 1.4200	 9.1266
 1.4190	 9.2503
 1.4180	 9.1662
 1.4170	 9.2291
 1.4160	 9.1405
 1.4150	 9.2043
 1.4140	 9.1252
 1.4130	 9.1574
 1.4120	 9.1112
 1.4110	 9.2276
 1.4100	 9.1194
 1.4090	 9.1461
 1.4080	 9.1078
 1.4070	 9.1584
 1.4060	 9.0748
 1.4050	 9.1354
 1.4040	 9.0541
 1.4030	 9.2061
 1.4020	 9.1269
 1.4010	 9.0372
 1.4000	 9.0382
 1.3990	 9.1431
 1.3980	 9.0581
 1.3970	 9.1357
 1.3960	 9.1168
 1.3950	 9.1367
 1.3940	 9.0311
 1.3930	 9.1145
 1.3920	 9.0745
 1.3910	 9.2029
 1.3900	 9.0523
 1.3890	 9.1285
 1.3880	 9.0289
 1.3870	 9.1656
 1.3860	 9.1092
 1.3850	 9.1273
 1.3840	 9.1269
 1.3830	 9.0799
 1.3820	 8.9375
 1.3810	 9.0289
 1.3800	 8.9973
 1.3790	 9.0824
 1.3780	 8.9744
 1.3770	 9.1291
 1.3760	 8.9101
 1.3750	 9.0828
 1.3740	 8.9747
 1.3730	 9.0587
 1.3720	 8.9514
 1.3710	 9.0237
 1.3700	 8.9839
 1.3690	 9.0389
 1.3680	 8.8777
 1.3670	 9.0468
 1.3660	 9.0180
 1.3650	 9.0836
 1.3640	 8.9456
 1.3630	 9.0856
 1.3620	 8.8366
 1.3610	 9.0192
 1.3600	 8.9105
 1.3590	 8.9735
 1.3580	 8.9409
 1.3570	 9.0424
 1.3560	 9.0335
 1.3550	 8.8253
 1.3540	 8.8573
 1.3530	 9.0363
 1.3520	 8.7465
 1.3510	 8.9209
 1.3500	 8.8590
 1.3490	 9.0284
 1.3480	 8.7673
 1.3470	 8.8940
 1.3460	 8.8249
 1.3450	 8.8877
 1.3440	 8.8238
 1.3430	 8.9027
 1.3420	 8.7500
 1.3410	 8.9123
 1.3400	 8.8038
 1.3390	 8.8770
 1.3380	 8.7629
 1.3370	 8.8677
 1.3360	 8.7746
 1.3350	 8.8849
 1.3340	 8.8026
 1.3330	 8.7975
 1.3320	 8.7790
 1.3310	 8.8795
 1.3300	 8.7389
 1.3290	 8.8688
 1.3280	 8.7044
 1.3270	 8.8331
 1.3260	 8.7159
 1.3250	 8.8452
 1.3240	 8.7073
 1.3230	 8.9094
 1.3220	 8.7360
 1.3210	 8.7735
 1.3200	 8.7258
 1.3190	 8.7703
 1.3180	 8.7242
 1.3170	 8.8081
 1.3160	 8.7146
 1.3150	 8.7322
 1.3140	 8.6487
 1.3130	 8.7586
 1.3120	 8.7330
 1.3110	 8.7347
 1.3100	 8.6601
 1.3090	 8.7159
 1.3080	 8.6459
 1.3070	 8.7446
 1.3060	 8.6812
 1.3050	 8.6839
 1.3040	 8.6094
 1.3030	 8.7258
 1.3020	 8.6459
 1.3010	 8.6906
 1.3000	 8.6212
 1.2990	 8.6375
 1.2980	 8.5929
 1.2970	 8.6613
 1.2960	 8.6241
 1.2950	 8.6924
 1.2940	 8.6134
 1.2930	 8.6134
 1.2920	 8.6136
 1.2910	 8.6752
 1.2900	 8.5893
 1.2890	 8.6291
 1.2880	 8.5490
 1.2870	 8.5798
 1.2860	 8.5659
 1.2850	 8.6644
 1.2840	 8.6098
 1.2830	 8.6499
 1.2820	 8.5370
 1.2810	 8.5496
 1.2800	 8.6251
 1.2790	 8.6010
 1.2780	 8.5920
 1.2770	 8.5631
 1.2760	 8.5402
 1.2750	 8.5517
 1.2740	 8.5154
 1.2730	 8.5078
 1.2720	 8.5042
 1.2710	 8.5633
 1.2700	 8.4225
 1.2690	 8.4918
 1.2680	 8.4909
 1.2670	 8.4948
 1.2660	 8.4810
 1.2650	 8.4817
 1.2640	 8.4835
 1.2630	 8.5243
 1.2620	 8.4963
 1.2610	 8.4977
 1.2600	 8.4972
 1.2590	 8.5541
 1.2580	 8.4505
 1.2570	 8.4670
 1.2560	 8.4806
 1.2550	 8.4836
 1.2540	 8.4422
 1.2530	 8.4492
 1.2520	 8.4312
 1.2510	 8.4972
 1.2500	 8.4056
 1.2490	 8.4629
 1.2480	 8.4138
 1.2470	 8.4172
 1.2460	 8.4158
 1.2450	 8.4272
 1.2440	 8.4042
 1.2430	 8.4441
 1.2420	 8.3788
 1.2410	 8.3592
 1.2400	 8.3527
 1.2390	 8.4043
 1.2380	 8.3887
 1.2370	 8.4032
 1.2360	 8.3652
 1.2350	 8.3719
 1.2340	 8.3765
 1.2330	 8.3729
 1.2320	 8.3652
 1.2310	 8.3440
 1.2300	 8.3020
 1.2290	 8.2912
 1.2280	 8.3313
 1.2270	 8.3626
 1.2260	 8.3099
 1.2250	 8.2656
 1.2240	 8.2695
 1.2230	 8.2576
 1.2220	 8.2375
 1.2210	 8.2655
 1.2200	 8.2316
 1.2190	 8.2500
 1.2180	 8.2111
 1.2170	 8.2179
 1.2160	 8.2742
 1.2150	 8.2446
 1.2140	 8.2229
 1.2130	 8.2588
 1.2120	 8.2901
 1.2110	 8.2496
 1.2100	 8.2501
 1.2090	 8.2354
 1.2080	 8.2203
 1.2070	 8.2182
 1.2060	 8.2512
 1.2050	 8.2341
 1.2040	 8.2033
 1.2030	 8.1975
 1.2020	 8.2082
 1.2010	 8.1787
 1.2000	 8.1945
 1.1990	 8.1713
 1.1980	 8.1744
 1.1970	 8.1756
 1.1960	 8.1646
 1.1950	 8.1611
 1.1940	 8.1648
 1.1930	 8.1433
 1.1920	 8.1594
 1.1910	 8.1552
 1.1900	 8.1750
 1.1890	 8.2374
 1.1880	 8.0751
 1.1870	 8.0839
 1.1860	 8.1258
 1.1850	 8.0211
 1.1840	 8.0876
 1.1830	 8.0395
 1.1820	 8.0973
 1.1810	 8.1275
 1.1800	 8.0855
 1.1790	 8.0874
 1.1780	 8.1164
 1.1770	 8.0631
 1.1760	 8.1051
 1.1750	 8.0110
 1.1740	 8.0396
 1.1730	 8.0203
 1.1720	 8.0639
 1.1710	 8.0154
 1.1700	 8.0391
 1.1690	 7.9814
 1.1680	 8.0331
 1.1670	 8.0163
 1.1660	 8.0049
 1.1650	 7.9361
 1.1640	 8.0343
 1.1630	 8.0090
 1.1620	 8.1092
 1.1610	 7.9438
 1.1600	 7.9793
 1.1590	 7.9340
 1.1580	 7.9587
 1.1570	 7.8889
 1.1560	 7.9397
 1.1550	 7.9640
 1.1540	 8.0175
 1.1530	 7.9458
 1.1520	 7.9270
 1.1510	 7.8583
 1.1500	 7.9324
 1.1490	 7.8374
 1.1480	 7.9533
 1.1470	 7.9125
 1.1460	 7.9606
 1.1450	 7.8924
 1.1440	 7.9436
 1.1430	 7.8867
 1.1420	 7.9048
 1.1410	 7.8438
 1.1400	 7.9286
 1.1390	 7.8743
 1.1380	 7.9350
 1.1370	 7.8238
 1.1360	 7.8541
 1.1350	 7.8227
 1.1340	 7.8344
 1.1330	 7.8450
 1.1320	 7.8802
 1.1310	 7.7731
 1.1300	 7.8926
 1.1290	 7.7116
 1.1280	 7.8616
 1.1270	 7.7531
 1.1260	 7.7435
 1.1250	 7.7166
 1.1240	 7.7896
 1.1230	 7.7199
 1.1220	 7.7726
 1.1210	 7.6976
 1.1200	 7.7581
 1.1190	 7.7469
 1.1180	 7.8389
 1.1170	 7.6681
 1.1160	 7.7385
 1.1150	 7.6158
 1.1140	 7.6936
 1.1130	 7.6597
 1.1120	 7.8018
 1.1110	 7.6993
 1.1100	 7.6867
 1.1090	 7.6471
 1.1080	 7.7688
 1.1070	 7.5963
 1.1060	 7.7566
 1.1050	 7.5633
 1.1040	 7.7577
 1.1030	 7.6154
 1.1020	 7.6561
 1.1010	 7.5802
 1.1000	 7.6182
 1.0990	 7.5755
 1.0980	 7.7183
 1.0970	 7.5498
 1.0960	 7.7439
 1.0950	 7.5435
 1.0940	 7.7061
 1.0930	 7.5786
 1.0920	 7.6033
 1.0910	 7.6050
 1.0900	 7.5502
 1.0890	 7.4863
 1.0880	 7.6477
 1.0870	 7.5462
 1.0860	 7.5365
 1.0850	 7.5386
 1.0840	 7.5042
 1.0830	 7.4944
 1.0820	 7.5909
 1.0810	 7.4368
 1.0800	 7.5977
 1.0790	 7.4565
 1.0780	 7.6167
 1.0770	 7.4366
 1.0760	 7.5321
 1.0750	 7.5002
 1.0740	 7.5535
 1.0730	 7.3781
 1.0720	 7.5470
 1.0710	 7.5254
 1.0700	 7.3614
 1.0690	 7.4348
 1.0680	 7.5093
 1.0670	 7.3549
 1.0660	 7.4483
 1.0650	 7.3740
 1.0640	 7.4488
 1.0630	 7.3132
 1.0620	 7.4959
 1.0610	 7.4108
 1.0600	 7.5289
 1.0590	 7.3390
 1.0580	 7.4327
 1.0570	 7.3445
 1.0560	 7.4106
 1.0550	 7.4148
 1.0540	 7.3975
 1.0530	 7.2900
 1.0520	 7.4213
 1.0510	 7.2915
 1.0500	 7.4050
 1.0490	 7.2831
 1.0480	 7.4248
 1.0470	 7.2596
 1.0460	 7.3663
 1.0450	 7.3062
 1.0440	 7.4225
 1.0430	 7.3233
 1.0420	 7.3198
 1.0410	 7.3297
 1.0400	 7.3648
 1.0390	 7.2104
 1.0380	 7.3275
 1.0370	 7.2989
 1.0360	 7.3645
 1.0350	 7.2965
 1.0340	 7.3596
 1.0330	 7.1893
 1.0320	 7.3668
 1.0310	 7.2615
 1.0300	 7.3154
 1.0290	 7.2077
 1.0280	 7.3607
 1.0270	 7.0763
 1.0260	 7.2544
 1.0250	 7.1731
 1.0240	 7.3160
 1.0230	 7.1625
 1.0220	 7.2544
 1.0210	 7.1282
 1.0200	 7.2753
 1.0190	 7.1537
 1.0180	 7.1846
 1.0170	 7.1697
 1.0160	 7.2390
 1.0150	 7.1696
 1.0140	 7.2308
 1.0130	 7.1223
 1.0120	 7.1993
 1.0110	 7.1671
 1.0100	 7.2122
 1.0090	 7.1510
 1.0080	 7.2098
 1.0070	 7.0529
 1.0060	 7.1194
 1.0050	 7.0817
 1.0040	 7.2179
 1.0030	 7.1186
 1.0020	 7.1829
 1.0010	 7.0951
 1.0000	 7.1453
 0.9990	 7.0905
 0.9980	 7.1716
 0.9970	 7.1349
 0.9960	 7.1065
 0.9950	 7.0585
 0.9940	 7.1552
 0.9930	 7.0201
 0.9920	 7.1926
 0.9910	 7.0760
 0.9900	 7.0819
 0.9890	 7.0185
 0.9880	 7.0713
 0.9870	 7.0376
 0.9860	 7.0511
 0.9850	 6.9597
 0.9840	 7.0823
 0.9830	 7.0374
 0.9820	 7.0641
 0.9810	 6.9722
 0.9800	 7.0463
 0.9790	 6.9711
 0.9780	 7.0423
 0.9770	 7.0287
 0.9760	 7.0363
 0.9750	 7.0055
 0.9740	 7.0019
 0.9730	 6.9619
 0.9720	 7.0566
 0.9710	 6.9689
 0.9700	 7.0131
 0.9690	 7.0238
 0.9680	 7.0266
 0.9670	 6.9614
 0.9660	 6.9897
 0.9650	 6.9100
 0.9640	 7.0194
 0.9630	 7.0000
 0.9620	 6.9891
 0.9610	 6.9185
 0.9600	 6.9904
 0.9590	 6.9746
 0.9580	 7.0388
 0.9570	 6.9500
 0.9560	 6.9429
 0.9550	 6.9318
 0.9540	 6.9817
 0.9530	 6.9622
 0.9520	 6.9500
 0.9510	 6.9279
 0.9500	 6.9461
 0.9490	 6.8514
 0.9480	 6.9240
 0.9470	 6.9564
 0.9460	 7.0083
 0.9450	 6.9160
 0.9440	 6.8749
 0.9430	 6.8944
 0.9420	 6.9172
 0.9410	 6.9399
 0.9400	 6.9576
 0.9390	 6.9026
 0.9380	 6.8898
 0.9370	 6.9556
 0.9360	 6.9158
 0.9350	 6.9239
 0.9340	 6.9500
 0.9330	 6.8767
 0.9320	 6.8867
 0.9310	 6.8722
 0.9300	 6.8919
 0.9290	 6.9027
 0.9280	 6.9059
 0.9270	 6.9609
 0.9260	 6.9367
 0.9250	 6.8725
 0.9240	 6.8333
 0.9230	 6.9090
 0.9220	 6.9370
 0.9210	 6.9347
 0.9200	 6.8950
 0.9190	 6.8826
 0.9180	 6.8707
 0.9170	 6.8680
 0.9160	 6.8527
 0.9150	 6.8882
 0.9140	 6.8896
 0.9130	 6.8858
 0.9120	 6.8418
 0.9110	 6.8494
 0.9100	 6.8380
 0.9090	 6.8640
 0.9080	 6.8281
 0.9070	 6.8894
 0.9060	 6.8483
 0.9050	 6.8955
 0.9040	 6.8673
 0.9030	 6.8587
 0.9020	 6.8181
 0.9010	 6.8675
 0.9000	 6.8280
 0.8990	 6.8002
 0.8980	 6.7722
 0.8970	 6.8360
 0.8960	 6.8868
 0.8950	 6.8438
 0.8940	 6.7615
 0.8930	 6.8681
 0.8920	 6.7768
 0.8910	 6.7848
 0.8900	 6.7614
 0.8890	 6.8405
 0.8880	 6.8124
 0.8870	 6.8343
 0.8860	 6.7739
 0.8850	 6.8479
 0.8840	 6.7901
 0.8830	 6.7781
 0.8820	 6.7745
 0.8810	 6.8307
 0.8800	 6.7840
 0.8790	 6.8698
 0.8780	 6.7561
 0.8770	 6.8052
 0.8760	 6.7661
 0.8750	 6.8083
 0.8740	 6.7079
 0.8730	 6.8472
 0.8720	 6.7620
 0.8710	 6.7449
 0.8700	 6.7104
 0.8690	 6.7912
 0.8680	 6.7507
 0.8670	 6.8132
 0.8660	 6.7474
 0.8650	 6.7981
 0.8640	 6.7441
 0.8630	 6.8335
 0.8620	 6.8477
 0.8610	 6.7709
 0.8600	 6.9236
 0.8590	 6.9427
 0.8580	 6.9234
 0.8570	 6.9242
 0.8560	 6.9306
 0.8550	 6.9422
 0.8540	 6.9359
 0.8530	 6.9436
 0.8520	 6.9439
 0.8510	 6.9587
 0.8500	 6.9562
 0.8490	 6.9432
 0.8480	 6.9364
 0.8470	 6.9440
 0.8460	 6.9614
 0.8450	 6.9385
 0.8440	 6.9568
 0.8430	 6.9520
 0.8420	 6.9427
 0.8410	 6.9709
 0.8400	 6.9630
 0.8390	 6.9566
 0.8380	 6.9534
 0.8370	 6.9604
 0.8360	 6.9435
 0.8350	 6.9522
 0.8340	 6.9519
 0.8330	 6.9467
 0.8320	 6.9592
 0.8310	 6.9553
 0.8300	 6.9565
 0.8290	 6.9603
 0.8280	 6.9535
 0.8270	 6.9613
 0.8260	 6.9530
 0.8250	 6.9562
 0.8240	 6.9561
 0.8230	 6.9596
 0.8220	 6.9563
 0.8210	 6.9623
 0.8200	 6.9594
 0.8190	 6.9608
 0.8180	 6.9541
 0.8170	 6.9514
 0.8160	 6.9640
 0.8150	 6.9677
 0.8140	 6.9564
 0.8130	 6.9540
 0.8120	 6.9596
 0.8110	 6.9496
 0.8100	 6.9490
 0.8090	 6.9501
 0.8080	 6.9447
 0.8070	 6.9447
 0.8060	 6.9533
 0.8050	 6.9498
 0.8040	 6.9387
 0.8030	 6.9562
 0.8020	 6.9472
 0.8010	 6.9300
 0.8000	 6.9474
 0.7990	 6.9449
 0.7980	 6.9420
 0.7970	 6.9411
 0.7960	 6.9455
 0.7950	 6.9366
 0.7940	 6.9290
 0.7930	 6.9386
 0.7920	 6.9296
 0.7910	 6.9330
 0.7900	 6.9252
 0.7890	 6.9295
 0.7880	 6.9256
 0.7870	 6.9336
 0.7860	 6.9366
 0.7850	 6.9193
 0.7840	 6.9247
 0.7830	 6.9241
 0.7820	 6.9183
 0.7810	 6.9158
 0.7800	 6.9182
 0.7790	 6.9151
 0.7780	 6.9171
 0.7770	 6.9201
 0.7760	 6.9088
 0.7750	 6.9168
 0.7740	 6.9057
 0.7730	 6.8999
 0.7720	 6.9004
 0.7710	 6.9040
 0.7700	 6.8983
 0.7690	 6.8953
 0.7680	 6.8966
 0.7670	 6.8928
 0.7660	 6.8830
 0.7650	 6.8911
 0.7640	 6.8898
 0.7630	 6.8769
 0.7620	 6.8811
 0.7610	 6.8796
 0.7600	 6.8765
 0.7590	 6.8712
 0.7580	 6.8721
 0.7570	 6.8638
 0.7560	 6.8635
 0.7550	 6.8629
 0.7540	 6.8482
 0.7530	 6.8541
 0.7520	 6.8463
 0.7510	 6.8439
 0.7500	 6.8444
 0.7490	 6.8357
 0.7480	 6.8374
 0.7470	 6.8328
 0.7460	 6.8263
 0.7450	 6.8226
 0.7440	 6.8211
 0.7430	 6.8099
 0.7420	 6.8062
 0.7410	 6.8049
 0.7400	 6.7995
 0.7390	 6.7981
 0.7380	 6.7916
 0.7370	 6.7868
 0.7360	 6.7823
 0.7350	 6.7747
 0.7340	 6.7713
 0.7330	 6.7687
 0.7320	 6.7630
 0.7310	 6.7588
 0.7300	 6.7554
 0.7290	 6.7476
 0.7280	 6.7404
 0.7270	 6.7407
 0.7260	 6.7339
 0.7250	 6.7264
 0.7240	 6.7173
 0.7230	 6.7130
 0.7220	 6.7077
 0.7210	 6.7042
 0.7200	 6.6953
 0.7190	 6.6936
 0.7180	 6.6838
 0.7170	 6.6793
 0.7160	 6.6745
 0.7150	 6.6662
 0.7140	 6.6602
 0.7130	 6.6551
 0.7120	 6.6505
 0.7110	 6.6373
 0.7100	 6.6365
 0.7090	 6.6367
 0.7080	 6.6240
 0.7070	 6.6156
 0.7060	 6.6114
 0.7050	 6.6043
 0.7040	 6.5991
 0.7030	 6.5943
 0.7020	 6.5894
 0.7010	 6.5826
 0.7000	 6.5700
 0.6990	 6.5639
 0.6980	 6.5619
 0.6970	 6.5568
 0.6960	 6.5515
 0.6950	 6.5440
 0.6940	 6.5378
 0.6930	 6.5307
 0.6920	 6.5264
 0.6910	 6.5212
 0.6900	 6.5116
 0.6890	 6.5082
 0.6880	 6.5001
 0.6870	 6.4957
 0.6860	 6.4887
 0.6850	 6.4815
 0.6840	 6.4753
 0.6830	 6.4688
 0.6820	 6.4649
 0.6810	 6.4573
 0.6800	 6.4508
 0.6790	 6.4442
 0.6780	 6.4411
 0.6770	 6.4367
 0.6760	 6.4305
 0.6750	 6.4237
 0.6740	 6.4198
 0.6730	 6.4125
 0.6720	 6.4084
 0.6710	 6.4061
 0.6700	 6.4000
 0.6690	 6.3942
 0.6680	 6.3898
 0.6670	 6.3847
 0.6660	 6.3773
 0.6650	 6.3714
 0.6640	 6.3682
 0.6630	 6.3655
 0.6620	 6.3603
 0.6610	 6.3571
 0.6600	 6.3522
 0.6590	 6.3457
 0.6580	 6.3384
 0.6570	 6.3353
 0.6560	 6.3342
 0.6550	 6.3293
 0.6540	 6.3242
 0.6530	 6.3204
 0.6520	 6.3171
 0.6510	 6.3119
 0.6500	 6.3088
 0.6490	 6.3032
 0.6480	 6.2980
 0.6470	 6.2965
 0.6460	 6.2942
 0.6450	 6.2899
 0.6440	 6.2862
 0.6430	 6.2834
 0.6420	 6.2781
 0.6410	 6.2728
 0.6400	 6.2698
 0.6390	 6.2673
 0.6380	 6.2648
 0.6370	 6.2621
 0.6360	 6.2580
 0.6350	 6.2550
 0.6340	 6.2509
 0.6330	 6.2476
 0.6320	 6.2458
 0.6310	 6.2440
 0.6300	 6.2397
 0.6290	 6.2341
 0.6280	 6.2314
 0.6270	 6.2306
 0.6260	 6.2260
 0.6250	 6.2226
 0.6240	 6.2240
 0.6230	 6.2192
 0.6220	 6.2140
 0.6210	 6.2119
 0.6200	 6.2088
 0.6190	 6.2058
 0.6180	 6.2012
 0.6170	 6.1974
 0.6160	 6.1938
 0.6150	 6.1900
 0.6140	 6.1874
 0.6130	 6.1841
 0.6120	 6.1819
 0.6110	 6.1782
 0.6100	 6.1744
 0.6090	 6.1699
 0.6080	 6.1651
 0.6070	 6.1617
 0.6060	 6.1610
 0.6050	 6.1554
 0.6040	 6.1505
 0.6030	 6.1457
 0.6020	 6.1402
 0.6010	 6.1349
 0.6000	 6.1323
 0.5990	 6.1298
 0.5980	 6.1246
 0.5970	 6.1190
 0.5960	 6.1160
 0.5950	 6.1131
 0.5940	 6.1085
 0.5930	 6.1002
 0.5920	 6.0937
 0.5910	 6.0862
 0.5900	 6.0790
 0.5890	 6.0725
 0.5880	 6.0642
 0.5870	 6.0556
 0.5860	 6.0458
 0.5850	 6.0368
 0.5840	 6.0287
 0.5830	 6.0189
 0.5820	 6.0091
 0.5810	 5.9988
 0.5800	 5.9890
 0.5790	 5.9786
 0.5780	 5.9668
 0.5770	 5.9546
 0.5760	 5.9414
 0.5750	 5.9288
 0.5740	 5.9144
 0.5730	 5.8986
 0.5720	 5.8829
 0.5710	 5.8701
 0.5700	 5.8514
 0.5690	 5.8335
 0.5680	 5.8151
 0.5670	 5.7981
 0.5660	 5.7767
 0.5650	 5.7565
 0.5640	 5.7352
 0.5630	 5.7156
 0.5620	 5.6915
 0.5610	 5.6625
 0.5600	 5.6351
 0.5590	 5.6091
 0.5580	 5.5844
 0.5570	 5.5590
 0.5560	 5.5317
 0.5550	 5.5017
 0.5540	 5.4729
 0.5530	 5.4446
 0.5520	 5.4125
 0.5510	 5.3825
 0.5500	 5.3495
 0.5490	 5.3176
 0.5480	 5.2863
 0.5470	 5.2512
 0.5460	 5.2167
 0.5450	 5.1812
 0.5440	 5.1464
 0.5430	 5.1103
 0.5420	 5.0742
 0.5410	 5.0390
 0.5400	 5.0016
 0.5390	 4.9642
 0.5380	 4.9284
 0.5370	 4.8903
 0.5360	 4.8537
 0.5350	 4.8185
 0.5340	 4.7795
 0.5330	 4.7417
 0.5320	 4.7030
 0.5310	 4.6675
 0.5300	 4.6329
 0.5290	 4.5974
 0.5280	 4.5621
 0.5270	 4.5266
 0.5260	 4.4913
 0.5250	 4.4583
 0.5240	 4.4246
 0.5230	 4.3924
 0.5220	 4.3614
 0.5210	 4.3281
 0.5200	 4.2962
 0.5190	 4.2659
 0.5180	 4.2375
 0.5170	 4.2174
 0.5160	 4.1891
 0.5150	 4.1636
 0.5140	 4.1356
 0.5130	 4.1089
 0.5120	 4.0836
 0.5110	 4.0592
 0.5100	 4.0377
 0.5090	 4.0118
 0.5080	 3.9905
 0.5070	 3.9677
 0.5060	 3.9470
 0.5050	 3.9274
 0.5040	 3.9044
 0.5030	 3.8858
 0.5020	 3.8635
 0.5010	 3.8473
 0.5000	 3.8305
 0.4990	 3.8146
 0.4980	 3.7954
 0.4970	 3.7776
 0.4960	 3.7582
 0.4950	 3.7471
 0.4940	 3.7344
 0.4930	 3.7239
 0.4920	 3.7084
 0.4910	 3.6953
 0.4900	 3.6805
 0.4890	 3.6701
 0.4880	 3.6584
 0.4870	 3.6495
 0.4860	 3.6412
 0.4850	 3.6325
 0.4840	 3.6249
 0.4830	 3.6179
 0.4820	 3.6115
 0.4810	 3.6111
 0.4800	 3.6074
 0.4790	 3.6073
 0.4780	 3.6062
 0.4770	 3.6028
 0.4760	 3.6040
 0.4750	 3.6014
 0.4740	 3.6016
 0.4730	 3.5986
 0.4720	 3.6001
 0.4710	 3.6013
 0.4700	 3.6040
 0.4690	 3.6043
 0.4680	 3.6066
 0.4670	 3.6087
 0.4660	 3.6100
 0.4650	 3.6120
 0.4640	 3.6174
 0.4630	 3.6199
 0.4620	 3.6244
 0.4610	 3.6276
 0.4600	 3.6308
 0.4590	 3.6366
 0.4580	 3.6391
 0.4570	 3.6406
 0.4560	 3.6402
 0.4550	 3.6497
 0.4540	 3.6532
 0.4530	 3.6566
 0.4520	 3.6598
 0.4510	 3.6621
 0.4500	 3.6633
 0.4490	 3.6677
 0.4480	 3.6719
 0.4470	 3.6716
 0.4460	 3.6704
 0.4450	 3.6704
 0.4440	 3.6692
 0.4430	 3.6715
 0.4420	 3.6732
 0.4410	 3.6730
 0.4400	 3.6733
 0.4390	 3.6715
 0.4380	 3.6727
 0.4370	 3.6705
 0.4360	 3.6705
 0.4350	 3.6680
 0.4340	 3.6704
 0.4330	 3.6709
 0.4320	 3.6706
 0.4310	 3.6732
 0.4300	 3.6716
 0.4290	 3.6737
 0.4280	 3.6733
 0.4270	 3.6756
 0.4260	 3.6797
 0.4250	 3.6795
 0.4240	 3.6821
 0.4230	 3.6867
 0.4220	 3.6885
 0.4210	 3.6938
 0.4200	 3.6952
 0.4190	 3.6981
 0.4180	 3.7029
 0.4170	 3.7076
 0.4160	 3.7119
 0.4150	 3.7132
 0.4140	 3.7226
 0.4130	 3.7304
 0.4120	 3.7347
 0.4110	 3.7429
 0.4100	 3.7494
 0.4090	 3.7553
 0.4080	 3.7626
 0.4070	 3.7705
 0.4060	 3.7776
 0.4050	 3.7885
 0.4040	 3.7973
 0.4030	 3.8066
 0.4020	 3.8144
 0.4010	 3.8269
 0.4000	 3.8363
