Name: Garnetiferous Mica Schist
Type: Rock
Class: Metamorphic
Subclass: Schist
Particle Size: Solid
Sample No.: Ward84
Owner: JPL
Wavelength Range: All
Origin: Gassets, Windsor County, Vermont.
Collection Date: N/A
Description: The hand specimen is a porphyroblastic, schistose rockcomposed of scaly, silvery mica, quartz and garnet with biotite andsome staurolite and occasional kyanite. Geologic age - Upper Cambrian(?)Ward's Collection of American Rocks. Measurement: Hemispherical reflectanceCollected by:  Ward's Natural Science Original ASTER Spectral Library name was jpl.nicolet.rock.metamorphic.schist.solid.ward84.spectrum.txt
Measurement: Hemispherical reflectance
First Column: X
Second Column: Y 
X Units: Wavelength (micrometers)
Y Units: Reflectance (percent)
First X Value: 15.3416
Last X Value:  1.9998
Number of X Values: 2256
Additional Information: none

15.3416	 2.2065
15.2964	 2.2738
15.2514	 2.1757
15.2066	 2.2775
15.1622	 2.7004
15.1180	 2.8574
15.0740	 2.7769
15.0303	 2.6601
14.9869	 2.4335
14.9437	 2.5647
14.9008	 3.0536
14.8581	 3.2093
14.8156	 2.9947
14.7734	 3.1307
14.7314	 3.2071
14.6897	 3.2398
14.6482	 3.0199
14.6069	 3.1014
14.5659	 3.4172
14.5251	 3.6080
14.4845	 3.6505
14.4442	 3.4381
14.4041	 3.2908
14.3642	 3.3337
14.3245	 3.2952
14.2850	 3.2194
14.2458	 3.2736
14.2068	 3.5345
14.1679	 3.4869
14.1293	 3.4455
14.0909	 3.6221
14.0528	 3.6581
14.0148	 3.6259
13.9770	 3.7953
13.9394	 4.0289
13.9021	 3.9548
13.8649	 3.7416
13.8279	 3.7778
13.7911	 3.9427
13.7546	 3.9664
13.7182	 4.2399
13.6820	 4.2699
13.6460	 4.1557
13.6101	 4.2499
13.5745	 4.4598
13.5391	 4.4473
13.5038	 4.3266
13.4687	 4.3007
13.4339	 4.3397
13.3991	 4.3286
13.3646	 4.4673
13.3302	 4.4883
13.2961	 4.4176
13.2621	 4.3907
13.2282	 4.4787
13.1946	 4.4080
13.1611	 4.2270
13.1278	 4.0367
13.0946	 3.9159
13.0616	 4.0151
13.0288	 4.0907
12.9962	 3.9819
12.9637	 4.2451
12.9313	 4.6112
12.8992	 4.8021
12.8672	 5.0230
12.8353	 5.2257
12.8036	 5.4451
12.7721	 5.5466
12.7407	 5.5231
12.7095	 5.3527
12.6784	 5.1616
12.6475	 5.0550
12.6167	 5.1229
12.5861	 5.3321
12.5556	 5.7137
12.5253	 5.8978
12.4951	 5.6819
12.4651	 5.4773
12.4352	 5.2481
12.4054	 5.1890
12.3758	 4.7312
12.3463	 4.2213
12.3170	 4.0547
12.2878	 4.0459
12.2588	 4.0038
12.2299	 4.0606
12.2011	 4.1589
12.1725	 4.4140
12.1439	 4.7536
12.1156	 4.8794
12.0873	 4.9295
12.0592	 4.9373
12.0312	 4.9952
12.0034	 5.1334
11.9757	 5.4311
11.9481	 5.6878
11.9206	 5.6573
11.8933	 5.6505
11.8661	 5.9166
11.8390	 6.2089
11.8120	 6.4760
11.7852	 6.6864
11.7584	 6.7871
11.7318	 6.8289
11.7053	 6.9641
11.6790	 7.1022
11.6527	 7.1502
11.6266	 7.4447
11.6006	 7.6537
11.5747	 7.6767
11.5489	 7.7922
11.5233	 7.9217
11.4977	 8.0325
11.4723	 8.1438
11.4469	 8.3361
11.4217	 8.5144
11.3966	 8.6274
11.3716	 8.6274
11.3468	 8.5837
11.3220	 8.4171
11.2973	 8.2464
11.2728	 8.2284
11.2483	 8.2772
11.2240	 8.3108
11.1997	 8.4543
11.1756	 8.7873
11.1515	 9.1422
11.1276	 9.4487
11.1038	 9.6731
11.0801	 9.7784
11.0564	 9.9048
11.0329	 9.9279
11.0095	 9.9858
10.9862	 9.9923
10.9629	 9.8039
10.9398	 9.7148
10.9168	 9.7509
10.8938	 9.7597
10.8710	 9.5602
10.8483	 9.4233
10.8256	 9.2950
10.8031	 9.1589
10.7806	 8.9268
10.7582	 8.7905
10.7360	 8.8669
10.7138	 8.8770
10.6917	 8.8122
10.6697	 8.8983
10.6478	 9.0500
10.6260	 9.1442
10.6042	 9.2840
10.5826	 9.4809
10.5610	 9.6279
10.5396	10.0379
10.5182	10.5679
10.4969	10.9744
10.4757	11.3317
10.4546	11.7944
10.4335	12.3882
10.4126	12.9179
10.3917	13.3904
10.3709	13.7785
10.3502	14.1660
10.3296	14.5689
10.3091	14.8982
10.2886	15.1517
10.2683	15.4816
10.2480	15.8572
10.2277	16.0410
10.2076	16.3496
10.1876	16.6754
10.1676	16.9236
10.1477	17.1018
10.1279	17.3226
10.1081	17.8027
10.0885	18.1828
10.0689	18.3771
10.0494	18.4710
10.0299	18.6028
10.0106	18.8778
 9.9913	19.2663
 9.9720	19.5641
 9.9529	19.8526
 9.9338	20.1401
 9.9148	20.2535
 9.8959	20.4663
 9.8771	20.6851
 9.8583	20.8461
 9.8396	21.0804
 9.8210	21.2991
 9.8024	21.5891
 9.7839	21.9822
 9.7655	22.2272
 9.7471	22.3684
 9.7288	22.6214
 9.7106	22.8735
 9.6925	23.2566
 9.6744	23.5363
 9.6564	23.6708
 9.6384	23.7506
 9.6205	23.7769
 9.6027	23.6914
 9.5850	23.4428
 9.5673	23.0169
 9.5497	22.6888
 9.5321	22.3540
 9.5146	22.0231
 9.4972	21.9151
 9.4798	21.8019
 9.4625	21.5335
 9.4453	21.5903
 9.4281	22.0009
 9.4110	22.4093
 9.3940	22.8780
 9.3770	23.4379
 9.3600	23.8501
 9.3432	24.1298
 9.3264	24.3764
 9.3096	24.5778
 9.2930	24.8817
 9.2763	25.4454
 9.2598	25.6978
 9.2432	25.5965
 9.2268	25.4837
 9.2104	25.4905
 9.1941	25.5089
 9.1778	25.4665
 9.1616	25.5393
 9.1454	25.5556
 9.1293	25.4662
 9.1133	25.3065
 9.0973	25.1774
 9.0814	25.0456
 9.0655	24.7151
 9.0497	24.4575
 9.0339	24.2378
 9.0182	24.1380
 9.0025	23.8635
 8.9870	23.6053
 8.9714	23.3276
 8.9559	22.8394
 8.9405	22.3125
 8.9251	21.9849
 8.9097	21.6124
 8.8945	21.1451
 8.8792	20.5770
 8.8641	20.0316
 8.8489	19.5692
 8.8338	19.0344
 8.8188	18.5641
 8.8039	18.0695
 8.7889	17.3920
 8.7741	16.7710
 8.7592	15.9541
 8.7445	15.1078
 8.7297	14.3450
 8.7151	13.6347
 8.7005	12.9406
 8.6859	12.1331
 8.6714	11.2808
 8.6569	10.2492
 8.6425	 9.2141
 8.6281	 8.6869
 8.6137	 8.8041
 8.5994	 9.0907
 8.5852	 9.5143
 8.5710	 9.7973
 8.5569	 9.7836
 8.5428	 9.8120
 8.5287	 9.8628
 8.5147	 9.7737
 8.5008	 9.5228
 8.4869	 9.4206
 8.4730	 9.2729
 8.4592	 9.1128
 8.4454	 9.0254
 8.4316	 9.0441
 8.4180	 9.1298
 8.4043	 9.0290
 8.3907	 8.8173
 8.3772	 8.8182
 8.3637	 8.7887
 8.3502	 8.7664
 8.3368	 8.6642
 8.3234	 8.5244
 8.3100	 8.4505
 8.2967	 8.5850
 8.2835	 8.6059
 8.2703	 8.3408
 8.2571	 8.2588
 8.2440	 8.3867
 8.2309	 8.3881
 8.2179	 8.2845
 8.2049	 8.1764
 8.1919	 8.1288
 8.1790	 8.0008
 8.1661	 7.6574
 8.1532	 7.3555
 8.1404	 7.0538
 8.1277	 6.7063
 8.1150	 6.3706
 8.1023	 6.0318
 8.0897	 5.6468
 8.0770	 5.3767
 8.0645	 5.0633
 8.0520	 4.7196
 8.0395	 4.4801
 8.0270	 4.2477
 8.0146	 4.0772
 8.0023	 3.9001
 7.9899	 3.5332
 7.9776	 3.3066
 7.9654	 3.1914
 7.9532	 2.9728
 7.9410	 2.8534
 7.9288	 2.7741
 7.9167	 2.6630
 7.9047	 2.5848
 7.8926	 2.4205
 7.8807	 2.3658
 7.8687	 2.3137
 7.8568	 2.2443
 7.8449	 2.1843
 7.8330	 2.1073
 7.8212	 2.0753
 7.8094	 2.0609
 7.7977	 1.9238
 7.7860	 1.9202
 7.7743	 2.0497
 7.7627	 2.0594
 7.7511	 1.9660
 7.7395	 1.9410
 7.7280	 1.9118
 7.7165	 1.9102
 7.7050	 1.9602
 7.6936	 2.0106
 7.6822	 1.9405
 7.6708	 1.8628
 7.6595	 1.8452
 7.6482	 1.9627
 7.6369	 1.9994
 7.6257	 1.9680
 7.6145	 2.0919
 7.6033	 2.0876
 7.5922	 2.0485
 7.5811	 2.0532
 7.5700	 2.2039
 7.5590	 2.2144
 7.5480	 2.1585
 7.5370	 2.0883
 7.5261	 2.0925
 7.5152	 2.1047
 7.5043	 2.0871
 7.4935	 2.0677
 7.4826	 2.1103
 7.4718	 2.2344
 7.4611	 2.2944
 7.4504	 2.3332
 7.4397	 2.3260
 7.4290	 2.3090
 7.4184	 2.3330
 7.4078	 2.4552
 7.3972	 2.4373
 7.3867	 2.3381
 7.3762	 2.4371
 7.3657	 2.4839
 7.3553	 2.4811
 7.3449	 2.5478
 7.3345	 2.5760
 7.3241	 2.5372
 7.3138	 2.5269
 7.3035	 2.5783
 7.2932	 2.6355
 7.2830	 2.6610
 7.2727	 2.6757
 7.2626	 2.7808
 7.2524	 2.8456
 7.2423	 2.8426
 7.2322	 2.9215
 7.2221	 2.9871
 7.2120	 2.9457
 7.2020	 2.8786
 7.1921	 2.8910
 7.1821	 2.8737
 7.1722	 2.9388
 7.1623	 3.0881
 7.1524	 3.1007
 7.1425	 3.0326
 7.1327	 3.0119
 7.1229	 3.0735
 7.1131	 3.1488
 7.1034	 3.1403
 7.0937	 3.1538
 7.0840	 3.2574
 7.0743	 3.3061
 7.0647	 3.3173
 7.0551	 3.3378
 7.0455	 3.2909
 7.0359	 3.3267
 7.0264	 3.4346
 7.0169	 3.3751
 7.0074	 3.2575
 6.9979	 3.3072
 6.9885	 3.4399
 6.9791	 3.4662
 6.9697	 3.5291
 6.9604	 3.6456
 6.9510	 3.6030
 6.9417	 3.5861
 6.9324	 3.6768
 6.9232	 3.7746
 6.9140	 3.8651
 6.9047	 3.9083
 6.8956	 3.8658
 6.8864	 3.7875
 6.8773	 3.8150
 6.8682	 3.8822
 6.8591	 3.9552
 6.8500	 3.9382
 6.8410	 3.9346
 6.8320	 3.9547
 6.8230	 4.0038
 6.8140	 4.0240
 6.8051	 4.0455
 6.7962	 4.1646
 6.7873	 4.2764
 6.7784	 4.3429
 6.7695	 4.3818
 6.7607	 4.3261
 6.7519	 4.2987
 6.7431	 4.2783
 6.7344	 4.3160
 6.7256	 4.4759
 6.7169	 4.5501
 6.7082	 4.5078
 6.6996	 4.5236
 6.6909	 4.6110
 6.6823	 4.7005
 6.6737	 4.6906
 6.6651	 4.7051
 6.6566	 4.6912
 6.6480	 4.7130
 6.6395	 4.7276
 6.6310	 4.7324
 6.6226	 4.7279
 6.6141	 4.7629
 6.6057	 4.8452
 6.5973	 4.9111
 6.5889	 4.8906
 6.5805	 4.8899
 6.5722	 4.9378
 6.5639	 4.9771
 6.5556	 5.0321
 6.5473	 5.1495
 6.5390	 5.2540
 6.5308	 5.2101
 6.5226	 5.1850
 6.5144	 5.1149
 6.5062	 5.0728
 6.4981	 5.2118
 6.4900	 5.3321
 6.4818	 5.3670
 6.4737	 5.4321
 6.4657	 5.4199
 6.4576	 5.3333
 6.4496	 5.3139
 6.4416	 5.3931
 6.4336	 5.4441
 6.4256	 5.5626
 6.4177	 5.6966
 6.4097	 5.6272
 6.4018	 5.4632
 6.3939	 5.3940
 6.3860	 5.3836
 6.3782	 5.4734
 6.3704	 5.4815
 6.3625	 5.4631
 6.3547	 5.5442
 6.3470	 5.6033
 6.3392	 5.5112
 6.3315	 5.5377
 6.3237	 5.6255
 6.3160	 5.6061
 6.3083	 5.5274
 6.3007	 5.5391
 6.2930	 5.5999
 6.2854	 5.6375
 6.2778	 5.6747
 6.2702	 5.5893
 6.2626	 5.5503
 6.2551	 5.5109
 6.2476	 5.4908
 6.2400	 5.5575
 6.2325	 5.5288
 6.2251	 5.4564
 6.2176	 5.3875
 6.2101	 5.3828
 6.2027	 5.3201
 6.1953	 5.3169
 6.1879	 5.4097
 6.1805	 5.4022
 6.1732	 5.3515
 6.1658	 5.3197
 6.1585	 5.2691
 6.1512	 5.2159
 6.1439	 5.2640
 6.1367	 5.3522
 6.1294	 5.3401
 6.1222	 5.3331
 6.1149	 5.3805
 6.1077	 5.3637
 6.1006	 5.3093
 6.0934	 5.2867
 6.0862	 5.3652
 6.0791	 5.3409
 6.0720	 5.3060
 6.0649	 5.3467
 6.0578	 5.3133
 6.0507	 5.2990
 6.0437	 5.2802
 6.0366	 5.2143
 6.0296	 5.1969
 6.0226	 5.2070
 6.0156	 5.1695
 6.0087	 5.0954
 6.0017	 5.0881
 5.9948	 5.1216
 5.9878	 5.0967
 5.9809	 4.9508
 5.9740	 4.9771
 5.9672	 5.0772
 5.9603	 5.0828
 5.9535	 5.1052
 5.9466	 5.0878
 5.9398	 5.1428
 5.9330	 5.0851
 5.9262	 5.0325
 5.9195	 5.0305
 5.9127	 5.0236
 5.9060	 5.0686
 5.8993	 5.1180
 5.8926	 5.1060
 5.8859	 5.1149
 5.8792	 5.0680
 5.8726	 5.1063
 5.8659	 5.2138
 5.8593	 5.2154
 5.8527	 5.1998
 5.8461	 5.2172
 5.8395	 5.2679
 5.8329	 5.3338
 5.8264	 5.3300
 5.8198	 5.3039
 5.8133	 5.2586
 5.8068	 5.1875
 5.8003	 5.2286
 5.7938	 5.2687
 5.7874	 5.2815
 5.7809	 5.3144
 5.7745	 5.3667
 5.7680	 5.5230
 5.7616	 5.5022
 5.7552	 5.3928
 5.7489	 5.4297
 5.7425	 5.5053
 5.7361	 5.5491
 5.7298	 5.5874
 5.7235	 5.5818
 5.7172	 5.5423
 5.7109	 5.5308
 5.7046	 5.5912
 5.6983	 5.6570
 5.6921	 5.5964
 5.6858	 5.5049
 5.6796	 5.4201
 5.6734	 5.3979
 5.6672	 5.4263
 5.6610	 5.4839
 5.6548	 5.5238
 5.6487	 5.5330
 5.6425	 5.5824
 5.6364	 5.5673
 5.6303	 5.5099
 5.6242	 5.4319
 5.6181	 5.4038
 5.6120	 5.4569
 5.6059	 5.5184
 5.5999	 5.5111
 5.5938	 5.4341
 5.5878	 5.4293
 5.5818	 5.4419
 5.5758	 5.4835
 5.5698	 5.4470
 5.5638	 5.4744
 5.5578	 5.5241
 5.5519	 5.5200
 5.5460	 5.5004
 5.5400	 5.5240
 5.5341	 5.5963
 5.5282	 5.5907
 5.5223	 5.5654
 5.5164	 5.5841
 5.5106	 5.6162
 5.5047	 5.6562
 5.4989	 5.6449
 5.4931	 5.6435
 5.4873	 5.6763
 5.4815	 5.6919
 5.4757	 5.7476
 5.4699	 5.8213
 5.4641	 5.8809
 5.4584	 5.8249
 5.4527	 5.9311
 5.4469	 6.0209
 5.4412	 5.9098
 5.4355	 5.9036
 5.4298	 5.9550
 5.4241	 5.9840
 5.4185	 6.0034
 5.4128	 5.9814
 5.4072	 5.9822
 5.4015	 5.9810
 5.3959	 6.0769
 5.3903	 6.1766
 5.3847	 6.1365
 5.3791	 6.0902
 5.3735	 6.0309
 5.3680	 6.0716
 5.3624	 6.1425
 5.3569	 6.1472
 5.3514	 6.1276
 5.3458	 6.1805
 5.3403	 6.3509
 5.3348	 6.4498
 5.3294	 6.3969
 5.3239	 6.4346
 5.3184	 6.4755
 5.3130	 6.4458
 5.3075	 6.5350
 5.3021	 6.6409
 5.2967	 6.6882
 5.2913	 6.7643
 5.2859	 6.8068
 5.2805	 6.9100
 5.2751	 6.9667
 5.2698	 7.0011
 5.2644	 7.0939
 5.2591	 7.1921
 5.2538	 7.2529
 5.2485	 7.3229
 5.2431	 7.4665
 5.2378	 7.5311
 5.2326	 7.5250
 5.2273	 7.6052
 5.2220	 7.6912
 5.2168	 7.7807
 5.2115	 7.8919
 5.2063	 7.9915
 5.2011	 8.1072
 5.1959	 8.1008
 5.1907	 8.1720
 5.1855	 8.1973
 5.1803	 8.2279
 5.1751	 8.3559
 5.1700	 8.4333
 5.1648	 8.4760
 5.1597	 8.5671
 5.1545	 8.6424
 5.1494	 8.7750
 5.1443	 8.7693
 5.1392	 8.8170
 5.1341	 8.8953
 5.1291	 8.8651
 5.1240	 8.8376
 5.1189	 8.9652
 5.1139	 9.0691
 5.1088	 9.1448
 5.1038	 9.1669
 5.0988	 9.1724
 5.0938	 9.1679
 5.0888	 9.1606
 5.0838	 9.2738
 5.0788	 9.3574
 5.0738	 9.4266
 5.0689	 9.3825
 5.0639	 9.2831
 5.0590	 9.2194
 5.0541	 9.2957
 5.0491	 9.3898
 5.0442	 9.3545
 5.0393	 9.3049
 5.0344	 9.3090
 5.0296	 9.4183
 5.0247	 9.4642
 5.0198	 9.4888
 5.0150	 9.4881
 5.0101	 9.4740
 5.0053	 9.4951
 5.0004	 9.5094
 4.9956	 9.4855
 4.9908	 9.4329
 4.9860	 9.4606
 4.9812	 9.5176
 4.9765	 9.5628
 4.9717	 9.5711
 4.9669	 9.5446
 4.9622	 9.5440
 4.9574	 9.5505
 4.9527	 9.5503
 4.9480	 9.6163
 4.9432	 9.7120
 4.9385	 9.7032
 4.9338	 9.7049
 4.9291	 9.7010
 4.9245	 9.7596
 4.9198	 9.8915
 4.9151	 9.9643
 4.9105	 9.9235
 4.9058	 9.9865
 4.9012	10.0908
 4.8966	10.1792
 4.8919	10.2605
 4.8873	10.3163
 4.8827	10.3770
 4.8781	10.4621
 4.8736	10.5996
 4.8690	10.7760
 4.8644	10.9038
 4.8599	10.9495
 4.8553	10.9430
 4.8508	11.0059
 4.8462	11.0809
 4.8417	11.1777
 4.8372	11.2910
 4.8327	11.3476
 4.8282	11.3940
 4.8237	11.4765
 4.8192	11.5527
 4.8147	11.5763
 4.8103	11.6219
 4.8058	11.7106
 4.8014	11.7448
 4.7969	11.7905
 4.7925	11.9266
 4.7881	12.0333
 4.7836	12.0488
 4.7792	12.1925
 4.7748	12.3749
 4.7704	12.3375
 4.7660	12.3432
 4.7617	12.4759
 4.7573	12.5935
 4.7530	12.6819
 4.7486	12.7182
 4.7443	12.7799
 4.7399	12.9001
 4.7356	12.9263
 4.7313	12.9643
 4.7270	13.0718
 4.7226	13.0950
 4.7184	13.1349
 4.7141	13.2660
 4.7098	13.3372
 4.7055	13.3258
 4.7012	13.3441
 4.6970	13.3391
 4.6927	13.3198
 4.6885	13.3957
 4.6842	13.4952
 4.6800	13.5036
 4.6758	13.5385
 4.6716	13.5816
 4.6674	13.6813
 4.6632	13.8283
 4.6590	14.0364
 4.6548	14.1942
 4.6506	14.3891
 4.6465	14.5981
 4.6423	14.7242
 4.6382	14.8524
 4.6340	15.0166
 4.6299	15.1378
 4.6258	15.2395
 4.6216	15.3241
 4.6175	15.4304
 4.6134	15.5504
 4.6093	15.7003
 4.6052	15.8445
 4.6011	15.9057
 4.5971	15.9690
 4.5930	16.1421
 4.5889	16.3245
 4.5849	16.4169
 4.5808	16.4142
 4.5768	16.4516
 4.5727	16.5715
 4.5687	16.6445
 4.5647	16.6290
 4.5607	16.6797
 4.5567	16.7661
 4.5526	16.8719
 4.5487	16.8951
 4.5447	16.8761
 4.5407	16.8984
 4.5367	16.9198
 4.5328	16.9979
 4.5288	17.0482
 4.5248	17.0540
 4.5209	16.9505
 4.5170	16.9749
 4.5130	17.0674
 4.5091	17.0234
 4.5052	17.0297
 4.5013	17.0760
 4.4974	16.9758
 4.4935	16.9308
 4.4896	17.0560
 4.4857	17.0294
 4.4818	17.0265
 4.4779	17.0655
 4.4741	17.1277
 4.4702	17.3114
 4.4664	17.4304
 4.4625	17.5016
 4.4587	17.7245
 4.4549	17.9104
 4.4510	18.0714
 4.4472	18.2968
 4.4434	18.3258
 4.4396	18.3475
 4.4358	18.4512
 4.4320	18.5794
 4.4282	18.7000
 4.4245	18.7928
 4.4207	19.0028
 4.4169	19.1614
 4.4132	19.1899
 4.4094	19.3255
 4.4057	19.5104
 4.4019	19.6379
 4.3982	19.7494
 4.3945	19.9627
 4.3907	20.2196
 4.3870	20.3002
 4.3833	20.3322
 4.3796	20.4726
 4.3759	20.5831
 4.3722	20.6314
 4.3685	20.7243
 4.3649	20.8661
 4.3612	20.9820
 4.3575	21.1251
 4.3539	21.2389
 4.3502	21.2999
 4.3466	21.4252
 4.3429	21.5193
 4.3393	21.5157
 4.3357	21.5888
 4.3320	21.6745
 4.3284	21.7726
 4.3248	21.8081
 4.3212	21.7250
 4.3176	21.6981
 4.3140	21.6868
 4.3105	21.6837
 4.3069	21.7309
 4.3033	21.6922
 4.2997	21.7003
 4.2962	21.6680
 4.2926	21.5824
 4.2890	21.6695
 4.2855	21.6882
 4.2820	21.6966
 4.2784	21.7771
 4.2749	21.7867
 4.2714	21.8575
 4.2679	22.0355
 4.2644	22.2030
 4.2609	22.2344
 4.2574	22.2438
 4.2539	22.3648
 4.2504	22.4058
 4.2469	22.2490
 4.2434	22.1785
 4.2400	22.2804
 4.2365	22.3174
 4.2330	22.4132
 4.2296	22.4061
 4.2261	22.3693
 4.2227	22.4451
 4.2193	22.4318
 4.2158	22.4921
 4.2124	22.5716
 4.2090	22.6372
 4.2056	22.6598
 4.2022	22.7590
 4.1988	22.7870
 4.1954	22.8634
 4.1920	22.9895
 4.1886	22.9554
 4.1852	22.8789
 4.1818	22.8587
 4.1785	22.8590
 4.1751	22.9510
 4.1717	23.1463
 4.1684	23.2710
 4.1650	23.3513
 4.1617	23.3280
 4.1584	23.2833
 4.1550	23.3241
 4.1517	23.3428
 4.1484	23.4146
 4.1451	23.4678
 4.1418	23.4958
 4.1384	23.5336
 4.1351	23.6160
 4.1319	23.6628
 4.1286	23.7467
 4.1253	23.8225
 4.1220	23.8935
 4.1187	23.9608
 4.1155	23.9835
 4.1122	24.1085
 4.1089	24.0156
 4.1057	23.8854
 4.1024	23.9429
 4.0992	24.0599
 4.0959	24.0868
 4.0927	24.1494
 4.0895	24.3329
 4.0863	24.3757
 4.0830	24.4421
 4.0798	24.5684
 4.0766	24.6947
 4.0734	24.6516
 4.0702	24.5093
 4.0670	24.5330
 4.0639	24.4986
 4.0607	24.5723
 4.0575	24.6857
 4.0543	24.5964
 4.0511	24.5862
 4.0480	24.6700
 4.0448	24.7125
 4.0417	24.7292
 4.0385	24.6671
 4.0354	24.6582
 4.0323	24.7006
 4.0291	24.6116
 4.0260	24.6092
 4.0229	24.6920
 4.0197	24.7924
 4.0166	24.8327
 4.0135	24.7183
 4.0104	24.7415
 4.0073	24.7687
 4.0042	24.7069
 4.0011	24.8042
 3.9981	24.9026
 3.9950	24.7620
 3.9919	24.8332
 3.9888	25.0483
 3.9857	25.0697
 3.9827	25.0406
 3.9796	25.2136
 3.9766	25.2472
 3.9735	25.1630
 3.9705	25.1007
 3.9675	24.9837
 3.9644	25.0193
 3.9614	25.3228
 3.9584	25.4088
 3.9554	25.3602
 3.9523	25.3586
 3.9493	25.4156
 3.9463	25.4721
 3.9433	25.5059
 3.9403	25.6617
 3.9373	25.7140
 3.9343	25.7360
 3.9314	25.7618
 3.9284	25.7733
 3.9254	25.8315
 3.9224	25.8833
 3.9195	25.9560
 3.9165	25.9766
 3.9136	25.9058
 3.9106	25.7984
 3.9077	25.8679
 3.9047	25.9032
 3.9018	25.8378
 3.8988	25.8258
 3.8959	25.8849
 3.8930	25.9376
 3.8901	25.9825
 3.8872	25.8899
 3.8842	25.8932
 3.8813	26.0385
 3.8784	26.0112
 3.8755	25.9420
 3.8726	25.9194
 3.8697	25.9526
 3.8669	25.9156
 3.8640	25.9124
 3.8611	25.9230
 3.8582	25.8321
 3.8554	25.8611
 3.8525	25.8374
 3.8496	25.8659
 3.8468	26.0111
 3.8439	26.0213
 3.8411	25.9676
 3.8382	25.9362
 3.8354	26.0637
 3.8326	26.1754
 3.8297	26.1699
 3.8269	26.2464
 3.8241	26.2792
 3.8213	26.2432
 3.8185	26.2056
 3.8157	26.1035
 3.8128	26.1197
 3.8100	26.3079
 3.8072	26.3323
 3.8045	26.2666
 3.8017	26.3681
 3.7989	26.3005
 3.7961	26.1970
 3.7933	26.2083
 3.7906	26.3465
 3.7878	26.3590
 3.7850	26.2731
 3.7822	26.1316
 3.7795	26.1190
 3.7767	26.0162
 3.7740	25.8269
 3.7713	25.8529
 3.7685	25.8460
 3.7658	25.6990
 3.7630	25.6375
 3.7603	25.6781
 3.7576	25.6404
 3.7549	25.4284
 3.7521	25.1534
 3.7494	25.0848
 3.7467	25.0287
 3.7440	24.8597
 3.7413	24.6916
 3.7386	24.6539
 3.7359	24.5835
 3.7332	24.5066
 3.7306	24.4139
 3.7279	24.4209
 3.7252	24.4733
 3.7225	24.6415
 3.7199	24.7114
 3.7172	24.5751
 3.7145	24.4922
 3.7119	24.4321
 3.7092	24.4262
 3.7066	24.4400
 3.7039	24.5698
 3.7013	24.6701
 3.6986	24.8418
 3.6960	24.8495
 3.6934	24.8459
 3.6907	24.9122
 3.6881	25.0326
 3.6855	25.1962
 3.6829	25.2592
 3.6803	25.3081
 3.6776	25.2811
 3.6750	25.3630
 3.6724	25.3587
 3.6698	25.1923
 3.6672	25.2177
 3.6646	25.2667
 3.6620	25.3323
 3.6595	25.3841
 3.6569	25.5612
 3.6543	25.7303
 3.6517	25.7700
 3.6492	25.7690
 3.6466	25.7162
 3.6440	25.8398
 3.6415	26.0330
 3.6389	26.1882
 3.6364	26.2179
 3.6338	26.1785
 3.6313	26.2987
 3.6287	26.4577
 3.6262	26.5135
 3.6237	26.5493
 3.6211	26.6540
 3.6186	26.6820
 3.6161	26.5400
 3.6136	26.6028
 3.6111	26.8494
 3.6085	27.0592
 3.6060	27.0429
 3.6035	26.9596
 3.6010	27.0230
 3.5985	26.9712
 3.5960	26.7570
 3.5935	26.6677
 3.5910	26.8244
 3.5886	27.0311
 3.5861	26.9875
 3.5836	26.8524
 3.5811	26.8835
 3.5787	27.0353
 3.5762	26.9769
 3.5737	26.9658
 3.5713	27.2146
 3.5688	27.2098
 3.5663	27.1541
 3.5639	27.1500
 3.5614	27.1386
 3.5590	27.0717
 3.5566	27.0286
 3.5541	26.9663
 3.5517	27.0205
 3.5493	27.0774
 3.5468	27.1756
 3.5444	27.1733
 3.5420	27.1647
 3.5396	27.1574
 3.5372	27.2012
 3.5347	27.1769
 3.5323	27.1418
 3.5299	27.1228
 3.5275	27.1557
 3.5251	27.1795
 3.5227	27.1602
 3.5203	27.3310
 3.5180	27.3738
 3.5156	26.9980
 3.5132	26.8285
 3.5108	26.8862
 3.5084	27.0939
 3.5061	27.1162
 3.5037	26.9607
 3.5013	26.8541
 3.4990	26.8464
 3.4966	26.8794
 3.4943	26.9201
 3.4919	27.0582
 3.4895	27.2696
 3.4872	27.3557
 3.4849	27.3165
 3.4825	27.2929
 3.4802	27.2155
 3.4778	27.2488
 3.4755	27.2459
 3.4732	27.1698
 3.4709	27.1109
 3.4685	27.1218
 3.4662	27.1588
 3.4639	27.1805
 3.4616	27.2187
 3.4593	27.2199
 3.4570	27.0510
 3.4547	26.9803
 3.4524	26.9787
 3.4501	27.0620
 3.4478	27.2005
 3.4455	27.0868
 3.4432	27.1822
 3.4409	27.2183
 3.4386	26.9873
 3.4364	26.8840
 3.4341	26.9292
 3.4318	26.9085
 3.4295	26.6830
 3.4273	26.5426
 3.4250	26.4355
 3.4228	26.2490
 3.4205	26.2394
 3.4182	26.2413
 3.4160	26.2598
 3.4137	26.2751
 3.4115	26.3670
 3.4093	26.2790
 3.4070	26.2284
 3.4048	26.2212
 3.4025	26.2643
 3.4003	26.1971
 3.3981	25.9724
 3.3958	25.9542
 3.3936	26.2574
 3.3914	26.3571
 3.3892	26.1865
 3.3870	25.9842
 3.3848	25.9788
 3.3826	25.9336
 3.3804	25.7701
 3.3782	25.7764
 3.3760	25.8898
 3.3738	26.0086
 3.3716	25.9322
 3.3694	25.7668
 3.3672	25.6686
 3.3650	25.7862
 3.3628	25.8149
 3.3606	25.4828
 3.3585	25.4593
 3.3563	25.7076
 3.3541	25.6417
 3.3520	25.5567
 3.3498	25.6373
 3.3476	25.5746
 3.3455	25.1832
 3.3433	25.0794
 3.3411	25.2074
 3.3390	25.3923
 3.3369	25.4516
 3.3347	25.4501
 3.3326	25.4614
 3.3304	25.3834
 3.3283	25.3001
 3.3262	25.2463
 3.3240	25.2422
 3.3219	25.1513
 3.3198	25.0517
 3.3176	25.0407
 3.3155	25.2833
 3.3134	25.1396
 3.3113	24.9651
 3.3092	25.1492
 3.3071	25.0755
 3.3049	25.1417
 3.3028	25.2113
 3.3007	25.0856
 3.2986	25.0816
 3.2965	25.0852
 3.2944	25.0809
 3.2924	25.1713
 3.2903	25.1165
 3.2882	25.0028
 3.2861	24.9123
 3.2840	24.7428
 3.2819	24.7382
 3.2799	24.6197
 3.2778	24.5948
 3.2757	24.5514
 3.2736	24.5770
 3.2716	24.6069
 3.2695	24.4860
 3.2675	24.4216
 3.2654	24.3851
 3.2634	24.3012
 3.2613	24.4330
 3.2593	24.6287
 3.2572	24.6655
 3.2552	24.5562
 3.2531	24.3142
 3.2511	24.1394
 3.2490	24.2254
 3.2470	24.3545
 3.2450	24.4759
 3.2429	24.3625
 3.2409	24.1124
 3.2389	24.0431
 3.2369	24.0474
 3.2348	24.0448
 3.2328	23.9160
 3.2308	23.8881
 3.2288	24.0640
 3.2268	23.9976
 3.2248	23.6952
 3.2228	23.5121
 3.2208	23.4211
 3.2188	23.5183
 3.2168	23.6922
 3.2148	23.6059
 3.2128	23.4375
 3.2108	23.4480
 3.2088	23.3823
 3.2068	23.5972
 3.2049	23.5911
 3.2029	23.3413
 3.2009	23.1080
 3.1989	23.0352
 3.1970	22.9209
 3.1950	22.9772
 3.1930	22.9558
 3.1911	22.8658
 3.1891	22.7507
 3.1871	22.6899
 3.1852	22.9107
 3.1832	22.9899
 3.1813	22.7298
 3.1793	22.7363
 3.1774	22.8213
 3.1754	22.7461
 3.1735	22.6005
 3.1715	22.3769
 3.1696	22.0998
 3.1677	22.1778
 3.1657	22.4895
 3.1638	22.3961
 3.1619	22.0880
 3.1599	22.0331
 3.1580	22.0887
 3.1561	22.3299
 3.1542	22.2641
 3.1523	22.2237
 3.1503	22.0835
 3.1484	21.7956
 3.1465	21.7795
 3.1446	21.4766
 3.1427	21.4763
 3.1408	21.6043
 3.1389	21.4401
 3.1370	21.6294
 3.1351	21.7527
 3.1332	21.3530
 3.1313	21.2934
 3.1294	21.0876
 3.1275	21.0205
 3.1257	21.2057
 3.1238	21.3374
 3.1219	21.2155
 3.1200	21.1662
 3.1181	21.1157
 3.1163	20.7898
 3.1144	20.7434
 3.1125	20.6264
 3.1107	20.5176
 3.1088	20.7155
 3.1069	21.0665
 3.1051	21.0911
 3.1032	20.8356
 3.1014	20.8618
 3.0995	20.7683
 3.0976	20.8846
 3.0958	21.0022
 3.0940	20.6922
 3.0921	20.5373
 3.0903	20.3823
 3.0884	20.1622
 3.0866	20.0629
 3.0848	20.3606
 3.0829	20.4997
 3.0811	20.5880
 3.0793	20.4163
 3.0774	20.1433
 3.0756	20.2031
 3.0738	20.2795
 3.0720	20.1108
 3.0701	20.0912
 3.0683	20.1231
 3.0665	20.1899
 3.0647	20.1892
 3.0629	20.1572
 3.0611	20.1256
 3.0593	20.0781
 3.0575	19.7881
 3.0557	19.7410
 3.0539	19.8655
 3.0521	20.0063
 3.0503	20.0473
 3.0485	19.9520
 3.0467	19.7910
 3.0449	19.8184
 3.0431	19.9034
 3.0413	19.3901
 3.0396	18.9497
 3.0378	19.1326
 3.0360	19.0160
 3.0342	19.0194
 3.0324	19.3643
 3.0307	19.4961
 3.0289	19.6478
 3.0271	19.6922
 3.0254	19.4400
 3.0236	19.0761
 3.0218	18.9365
 3.0201	19.1385
 3.0183	19.2847
 3.0166	19.2335
 3.0148	19.3273
 3.0130	19.3085
 3.0113	18.9538
 3.0096	19.1380
 3.0078	19.6942
 3.0061	19.5916
 3.0043	19.3626
 3.0026	19.3967
 3.0008	19.5179
 2.9991	19.2289
 2.9974	18.7932
 2.9956	19.0618
 2.9939	19.2448
 2.9922	19.1032
 2.9905	19.1380
 2.9887	19.1006
 2.9870	19.1011
 2.9853	19.1711
 2.9836	19.1178
 2.9819	19.0315
 2.9802	18.7119
 2.9784	18.7560
 2.9767	18.9380
 2.9750	18.8906
 2.9733	18.5217
 2.9716	18.5101
 2.9699	18.8588
 2.9682	18.7557
 2.9665	18.3012
 2.9648	18.3069
 2.9631	18.4099
 2.9614	18.3964
 2.9597	18.4476
 2.9581	18.3895
 2.9564	18.0423
 2.9547	18.3596
 2.9530	18.2907
 2.9513	17.9176
 2.9496	18.1246
 2.9480	18.3501
 2.9463	18.1083
 2.9446	17.6758
 2.9429	17.8522
 2.9413	17.7698
 2.9396	17.6821
 2.9379	17.4007
 2.9363	17.4295
 2.9346	17.4625
 2.9330	17.4528
 2.9313	17.1656
 2.9296	17.2568
 2.9280	17.2940
 2.9263	16.9982
 2.9247	16.9157
 2.9230	16.9774
 2.9214	17.0774
 2.9197	16.9032
 2.9181	16.7972
 2.9165	16.8610
 2.9148	16.9041
 2.9132	16.4643
 2.9116	16.2484
 2.9099	16.7009
 2.9083	16.6042
 2.9067	16.5410
 2.9050	16.7288
 2.9034	16.6354
 2.9018	16.1953
 2.9002	16.4462
 2.8985	16.4856
 2.8969	15.8407
 2.8953	16.1379
 2.8937	16.5695
 2.8921	16.3667
 2.8905	16.4121
 2.8888	16.3428
 2.8872	16.2762
 2.8856	16.5942
 2.8840	16.4332
 2.8824	16.2353
 2.8808	16.2070
 2.8792	16.4780
 2.8776	16.6398
 2.8760	16.7057
 2.8744	16.7344
 2.8728	16.9292
 2.8712	17.1410
 2.8697	17.0760
 2.8681	16.6509
 2.8665	16.4963
 2.8649	16.5980
 2.8633	16.6631
 2.8617	16.1845
 2.8602	16.4374
 2.8586	16.7145
 2.8570	16.4779
 2.8554	16.4250
 2.8539	16.3628
 2.8523	16.0053
 2.8507	16.0079
 2.8492	16.2670
 2.8476	16.1297
 2.8460	16.0744
 2.8445	16.3118
 2.8429	16.0895
 2.8413	15.4618
 2.8398	15.4457
 2.8382	15.2714
 2.8367	14.9822
 2.8351	14.9557
 2.8336	15.0067
 2.8320	15.0790
 2.8305	14.8993
 2.8289	14.8263
 2.8274	14.9331
 2.8259	15.0393
 2.8243	14.8089
 2.8228	14.2693
 2.8213	13.8651
 2.8197	13.5574
 2.8182	13.0278
 2.8167	12.3081
 2.8151	12.1887
 2.8136	11.8753
 2.8121	11.3364
 2.8106	11.1443
 2.8090	11.2603
 2.8075	11.4348
 2.8060	10.9677
 2.8045	10.2845
 2.8030	 9.8379
 2.8014	 9.5434
 2.7999	 9.5329
 2.7984	 8.8838
 2.7969	 7.9568
 2.7954	 8.6139
 2.7939	 8.5337
 2.7924	 8.5288
 2.7909	 8.4876
 2.7894	 7.9470
 2.7879	 7.5659
 2.7864	 7.9112
 2.7849	 8.0889
 2.7834	 7.8635
 2.7819	 7.4418
 2.7804	 6.9896
 2.7789	 6.6006
 2.7774	 6.4162
 2.7759	 6.6572
 2.7745	 6.7927
 2.7730	 7.0954
 2.7715	 6.9792
 2.7700	 6.7804
 2.7685	 6.8176
 2.7671	 6.7848
 2.7656	 6.5881
 2.7641	 6.4604
 2.7626	 6.4466
 2.7612	 6.2791
 2.7597	 5.9636
 2.7582	 5.6783
 2.7568	 5.6955
 2.7553	 5.8981
 2.7538	 6.2669
 2.7524	 6.3171
 2.7509	 6.3161
 2.7494	 6.3800
 2.7480	 6.4601
 2.7465	 5.9695
 2.7451	 5.3016
 2.7436	 5.7743
 2.7422	 6.2775
 2.7407	 6.1595
 2.7393	 5.9552
 2.7378	 5.8944
 2.7364	 5.8992
 2.7350	 6.2385
 2.7335	 6.2904
 2.7321	 5.8709
 2.7306	 5.9679
 2.7292	 6.4185
 2.7278	 6.5076
 2.7263	 6.5182
 2.7249	 6.6995
 2.7235	 6.9128
 2.7220	 6.8201
 2.7206	 7.0708
 2.7192	 7.7290
 2.7178	 8.3511
 2.7163	 8.9371
 2.7149	 9.5131
 2.7135	 9.8115
 2.7121	10.3756
 2.7106	10.9765
 2.7092	11.6120
 2.7078	12.5321
 2.7064	12.8779
 2.7050	13.3882
 2.7036	13.8699
 2.7022	14.2844
 2.7008	14.8754
 2.6994	15.2615
 2.6980	15.6189
 2.6965	15.6412
 2.6951	16.0792
 2.6938	16.8157
 2.6923	16.9517
 2.6910	16.9721
 2.6896	17.2399
 2.6882	17.3045
 2.6868	17.6606
 2.6854	17.8712
 2.6840	17.8590
 2.6826	18.0689
 2.6812	18.4040
 2.6798	18.3342
 2.6784	18.3462
 2.6771	18.6326
 2.6757	18.5621
 2.6743	18.3908
 2.6729	18.9436
 2.6715	19.6717
 2.6702	19.7819
 2.6688	19.3823
 2.6674	19.3086
 2.6660	19.6663
 2.6647	19.6294
 2.6633	19.2959
 2.6619	19.1044
 2.6606	19.3280
 2.6592	19.7948
 2.6578	20.0875
 2.6565	19.9750
 2.6551	19.9839
 2.6538	20.4991
 2.6524	20.5590
 2.6511	20.5853
 2.6497	20.8571
 2.6484	20.8324
 2.6470	20.8563
 2.6456	20.7791
 2.6443	20.7091
 2.6429	20.6769
 2.6416	20.7819
 2.6403	21.1252
 2.6389	21.0433
 2.6376	21.0750
 2.6362	21.0580
 2.6349	20.7627
 2.6336	20.5201
 2.6322	20.6361
 2.6309	20.9997
 2.6296	21.0144
 2.6282	21.0078
 2.6269	21.0746
 2.6256	21.0256
 2.6242	20.8519
 2.6229	20.7546
 2.6216	21.1009
 2.6203	21.2416
 2.6189	21.2267
 2.6176	21.5491
 2.6163	21.4559
 2.6150	21.0174
 2.6136	20.6024
 2.6123	20.7517
 2.6110	20.9002
 2.6097	20.8635
 2.6084	21.1332
 2.6071	21.3475
 2.6058	21.6015
 2.6044	21.7353
 2.6031	21.4550
 2.6018	21.2697
 2.6005	21.1406
 2.5992	21.0566
 2.5979	21.3122
 2.5966	21.3585
 2.5953	21.6740
 2.5940	21.6747
 2.5927	21.4599
 2.5914	21.9848
 2.5901	21.7979
 2.5888	21.2447
 2.5876	21.3418
 2.5863	21.6292
 2.5850	22.0492
 2.5837	22.2071
 2.5824	21.8788
 2.5811	21.7861
 2.5798	22.0010
 2.5785	22.0143
 2.5773	22.1876
 2.5760	22.2340
 2.5747	22.0727
 2.5734	22.0690
 2.5722	22.3244
 2.5709	22.5779
 2.5696	22.3010
 2.5683	22.0507
 2.5671	22.3427
 2.5658	22.2336
 2.5645	22.0588
 2.5633	21.9478
 2.5620	22.2757
 2.5607	22.4707
 2.5595	22.0226
 2.5582	21.8503
 2.5569	22.2996
 2.5557	22.6624
 2.5544	22.4870
 2.5532	22.6302
 2.5519	22.8703
 2.5507	23.1002
 2.5494	23.0879
 2.5481	22.9927
 2.5469	22.9007
 2.5456	22.7956
 2.5444	22.6469
 2.5431	22.7506
 2.5419	22.7471
 2.5406	22.6607
 2.5394	22.7129
 2.5382	22.4829
 2.5369	22.6920
 2.5357	22.6918
 2.5344	22.5870
 2.5332	22.7663
 2.5320	22.7913
 2.5307	22.6792
 2.5295	22.6479
 2.5283	22.6160
 2.5270	22.4262
 2.5258	22.3133
 2.5246	22.3160
 2.5233	22.3506
 2.5221	22.4116
 2.5209	22.5160
 2.5197	22.3094
 2.5184	21.8047
 2.5172	21.7571
 2.5160	22.0412
 2.5148	21.9539
 2.5136	21.7136
 2.5123	21.7210
 2.5111	21.8379
 2.5099	21.6655
 2.5087	21.5264
 2.5075	21.2706
 2.5063	21.8544
 2.5051	22.0809
 2.5038	21.9204
 2.5026	21.9504
 2.5014	21.3916
 2.5002	21.4312
 2.4990	21.5947
 2.4978	21.2443
 2.4966	21.0362
 2.4954	21.1736
 2.4942	21.2215
 2.4930	21.0317
 2.4918	21.0835
 2.4906	21.3416
 2.4894	21.4224
 2.4882	21.4950
 2.4870	21.4658
 2.4858	21.3352
 2.4846	21.0450
 2.4835	21.0969
 2.4823	21.1538
 2.4811	20.9107
 2.4799	20.9376
 2.4787	21.1390
 2.4775	20.9324
 2.4764	20.3878
 2.4752	20.3121
 2.4740	20.5261
 2.4728	20.6108
 2.4716	21.1240
 2.4705	21.1256
 2.4693	20.2657
 2.4681	19.7913
 2.4669	20.1174
 2.4657	20.8704
 2.4646	20.9800
 2.4634	20.4543
 2.4622	19.9679
 2.4611	20.0514
 2.4599	19.9809
 2.4587	19.6037
 2.4576	19.5888
 2.4564	20.1110
 2.4552	20.2434
 2.4541	19.8705
 2.4529	19.2737
 2.4518	19.3299
 2.4506	20.2657
 2.4494	20.4627
 2.4483	19.9119
 2.4471	19.0420
 2.4460	19.1059
 2.4448	19.4092
 2.4437	19.4301
 2.4425	19.5446
 2.4414	19.2701
 2.4402	19.2505
 2.4391	19.4223
 2.4379	19.5757
 2.4368	19.4834
 2.4356	19.6998
 2.4345	19.2121
 2.4333	19.0429
 2.4322	19.7943
 2.4311	19.7585
 2.4299	19.7192
 2.4288	20.2691
 2.4276	20.3814
 2.4265	19.7844
 2.4254	19.5149
 2.4242	19.8481
 2.4231	20.3608
 2.4220	20.1652
 2.4209	20.2613
 2.4197	20.2144
 2.4186	20.2331
 2.4175	20.9943
 2.4163	21.1301
 2.4152	20.7434
 2.4141	20.7922
 2.4130	20.6689
 2.4118	20.4731
 2.4107	20.2916
 2.4096	20.5256
 2.4085	20.9242
 2.4074	21.2705
 2.4063	21.4695
 2.4051	21.4902
 2.4040	20.8380
 2.4029	20.7178
 2.4018	21.1567
 2.4007	21.3479
 2.3996	21.3474
 2.3985	21.2899
 2.3973	21.1792
 2.3962	20.8112
 2.3951	21.0649
 2.3940	21.1786
 2.3929	20.9105
 2.3918	21.0913
 2.3907	21.3053
 2.3896	21.4945
 2.3885	21.3043
 2.3874	21.3116
 2.3863	21.2763
 2.3852	20.9655
 2.3841	20.8795
 2.3830	21.4688
 2.3819	21.4070
 2.3808	20.8952
 2.3798	20.9086
 2.3786	20.9097
 2.3776	20.7846
 2.3765	20.9485
 2.3754	21.4561
 2.3743	21.3371
 2.3732	20.6577
 2.3721	20.4272
 2.3710	20.9433
 2.3700	21.4498
 2.3689	21.0510
 2.3678	20.6417
 2.3667	20.6632
 2.3656	20.9706
 2.3645	21.2756
 2.3635	21.3554
 2.3624	21.3242
 2.3613	21.6904
 2.3603	21.6228
 2.3592	21.0973
 2.3581	20.8149
 2.3570	20.6281
 2.3560	20.8354
 2.3549	21.2653
 2.3538	21.0943
 2.3527	20.8584
 2.3517	20.7718
 2.3506	20.7123
 2.3495	20.5283
 2.3485	20.2808
 2.3474	20.5410
 2.3464	20.3613
 2.3453	20.3230
 2.3442	20.4447
 2.3432	20.5565
 2.3421	20.6597
 2.3411	20.4078
 2.3400	20.5085
 2.3390	20.8088
 2.3379	21.3362
 2.3369	21.2521
 2.3358	21.2267
 2.3347	21.8815
 2.3337	21.9037
 2.3326	21.9452
 2.3316	21.5324
 2.3306	21.0361
 2.3295	21.8218
 2.3285	22.5382
 2.3274	22.2583
 2.3264	22.3679
 2.3253	22.0078
 2.3243	21.9840
 2.3232	22.6939
 2.3222	22.8196
 2.3212	22.6629
 2.3201	22.9858
 2.3191	23.2121
 2.3180	23.5595
 2.3170	23.6821
 2.3160	23.8365
 2.3149	23.9087
 2.3139	23.9466
 2.3129	24.0815
 2.3118	24.2014
 2.3108	24.1619
 2.3098	24.3859
 2.3088	25.2013
 2.3077	25.5558
 2.3067	25.7287
 2.3057	25.6916
 2.3047	25.4199
 2.3036	25.0268
 2.3026	25.1763
 2.3016	25.8460
 2.3006	26.1200
 2.2995	26.1168
 2.2985	26.0803
 2.2975	26.3156
 2.2965	26.4880
 2.2955	26.9790
 2.2944	27.4493
 2.2934	27.0565
 2.2924	26.8462
 2.2914	26.9110
 2.2904	26.7416
 2.2894	26.4504
 2.2884	26.8578
 2.2874	27.7330
 2.2864	27.1104
 2.2854	26.6285
 2.2843	26.8614
 2.2833	26.8830
 2.2823	27.0319
 2.2813	27.5096
 2.2803	27.5743
 2.2793	27.4202
 2.2783	28.0397
 2.2773	28.0910
 2.2763	27.6064
 2.2753	27.4481
 2.2743	27.5442
 2.2733	27.7606
 2.2723	27.5740
 2.2713	27.9590
 2.2703	28.0467
 2.2694	27.4404
 2.2684	27.0872
 2.2674	27.2282
 2.2664	27.2246
 2.2654	27.0261
 2.2644	26.9340
 2.2634	27.2853
 2.2624	27.5734
 2.2614	27.7179
 2.2605	27.9413
 2.2595	27.4293
 2.2585	26.9172
 2.2575	26.7213
 2.2565	26.5830
 2.2555	26.0863
 2.2546	25.6867
 2.2536	25.6940
 2.2526	25.9100
 2.2516	26.1009
 2.2506	25.5625
 2.2497	25.0818
 2.2487	25.6681
 2.2477	25.6669
 2.2467	25.4653
 2.2458	25.6336
 2.2448	26.1256
 2.2438	25.8302
 2.2428	24.8697
 2.2419	24.3161
 2.2409	24.6513
 2.2399	24.8909
 2.2390	24.3285
 2.2380	24.2358
 2.2370	24.8290
 2.2361	24.6959
 2.2351	24.2462
 2.2342	24.3291
 2.2332	25.0246
 2.2322	24.7610
 2.2313	24.5129
 2.2303	24.6478
 2.2294	23.9744
 2.2284	22.9025
 2.2274	22.7763
 2.2265	23.1677
 2.2255	23.2389
 2.2246	23.0901
 2.2236	22.5543
 2.2227	22.2822
 2.2217	22.3043
 2.2208	21.9402
 2.2198	21.8961
 2.2189	21.9457
 2.2179	21.5958
 2.2170	20.9627
 2.2160	21.2133
 2.2151	21.8301
 2.2141	21.3938
 2.2132	20.8796
 2.2122	20.4907
 2.2113	20.1611
 2.2103	19.9541
 2.2094	19.9653
 2.2085	20.2047
 2.2075	20.1245
 2.2066	19.8926
 2.2056	19.6918
 2.2047	19.3237
 2.2038	18.8001
 2.2028	18.3555
 2.2019	18.3064
 2.2010	18.8758
 2.2000	19.5172
 2.1991	19.8306
 2.1982	19.3359
 2.1972	18.9511
 2.1963	19.7788
 2.1954	19.7934
 2.1944	19.3109
 2.1935	19.3915
 2.1926	19.9885
 2.1917	20.1245
 2.1907	20.3613
 2.1898	20.4758
 2.1889	20.3444
 2.1880	20.4043
 2.1870	20.8944
 2.1861	21.1955
 2.1852	21.6541
 2.1843	22.3022
 2.1833	22.2197
 2.1824	22.1656
 2.1815	22.3501
 2.1806	22.8104
 2.1797	23.6014
 2.1788	24.0137
 2.1778	24.0622
 2.1769	24.3734
 2.1760	25.0192
 2.1751	25.2930
 2.1742	25.1786
 2.1733	25.0388
 2.1724	25.3335
 2.1715	26.2164
 2.1706	26.6025
 2.1696	26.5345
 2.1687	27.3392
 2.1678	27.8799
 2.1669	27.8336
 2.1660	28.2271
 2.1651	28.9447
 2.1642	28.5622
 2.1633	27.8318
 2.1624	27.6784
 2.1615	28.4017
 2.1606	29.5804
 2.1597	29.8851
 2.1588	28.8022
 2.1579	28.4814
 2.1570	29.0925
 2.1561	29.7011
 2.1552	30.4924
 2.1543	30.6271
 2.1534	29.5126
 2.1525	29.2749
 2.1517	30.3165
 2.1507	30.3165
 2.1499	30.2655
 2.1490	30.1210
 2.1481	30.0449
 2.1472	30.4367
 2.1463	30.9567
 2.1454	31.3763
 2.1445	31.3676
 2.1436	31.1940
 2.1428	30.9960
 2.1419	31.0676
 2.1410	31.3753
 2.1401	30.8541
 2.1392	30.9692
 2.1383	30.9729
 2.1375	31.2008
 2.1366	32.0024
 2.1357	31.7882
 2.1348	31.4835
 2.1339	31.4127
 2.1331	31.0533
 2.1322	31.2885
 2.1313	31.3800
 2.1304	31.1738
 2.1296	31.3049
 2.1287	31.6948
 2.1278	31.6148
 2.1269	31.4999
 2.1261	31.5266
 2.1252	31.3372
 2.1243	30.9149
 2.1235	31.1957
 2.1226	31.7635
 2.1217	31.4182
 2.1208	30.6687
 2.1200	30.5401
 2.1191	30.8286
 2.1183	31.2538
 2.1174	30.8178
 2.1165	30.4803
 2.1157	31.5325
 2.1148	32.4746
 2.1139	32.1204
 2.1131	31.8489
 2.1122	31.0769
 2.1113	31.1320
 2.1105	32.0587
 2.1096	32.0694
 2.1088	32.2196
 2.1079	32.1877
 2.1071	31.7688
 2.1062	31.3845
 2.1054	31.4288
 2.1045	32.3930
 2.1036	32.7207
 2.1028	32.4198
 2.1019	32.0769
 2.1011	32.7703
 2.1002	33.8016
 2.0994	33.6779
 2.0985	33.4846
 2.0977	34.2285
 2.0968	34.8213
 2.0960	34.3115
 2.0951	34.5571
 2.0943	35.2744
 2.0934	34.9201
 2.0926	34.1752
 2.0918	33.0559
 2.0909	32.7424
 2.0901	33.0418
 2.0892	34.0631
 2.0884	34.5393
 2.0875	35.2691
 2.0867	34.6282
 2.0859	33.9733
 2.0850	34.4697
 2.0842	33.8491
 2.0833	34.6622
 2.0825	35.9126
 2.0817	35.4614
 2.0808	34.7300
 2.0800	35.0068
 2.0792	34.7384
 2.0783	34.7932
 2.0775	35.9398
 2.0767	36.8002
 2.0759	35.8226
 2.0750	34.3877
 2.0742	34.0173
 2.0734	34.7849
 2.0725	36.0177
 2.0717	36.4626
 2.0709	34.4892
 2.0701	34.0591
 2.0692	34.9261
 2.0684	33.6595
 2.0676	34.1704
 2.0667	35.6762
 2.0659	36.1078
 2.0651	36.5552
 2.0643	36.2328
 2.0635	34.9425
 2.0626	34.8653
 2.0618	35.3935
 2.0610	35.5710
 2.0602	35.0371
 2.0594	34.5854
 2.0585	34.9732
 2.0577	35.8010
 2.0569	36.1560
 2.0561	36.4090
 2.0553	36.7912
 2.0545	36.7784
 2.0537	36.3360
 2.0528	35.3900
 2.0520	33.7488
 2.0512	35.1434
 2.0504	36.4040
 2.0496	37.0017
 2.0488	36.7822
 2.0480	35.9168
 2.0472	35.1923
 2.0464	35.5249
 2.0456	35.9258
 2.0447	34.4854
 2.0439	35.0279
 2.0431	36.5479
 2.0423	36.3950
 2.0415	35.7849
 2.0407	36.1154
 2.0399	35.1712
 2.0391	35.2149
 2.0383	35.6532
 2.0375	36.2338
 2.0367	35.7715
 2.0359	35.0443
 2.0351	35.3511
 2.0343	36.3707
 2.0335	36.7625
 2.0327	37.1697
 2.0319	36.5903
 2.0311	36.0641
 2.0303	36.6218
 2.0295	36.1468
 2.0287	34.9091
 2.0280	35.5787
 2.0272	35.8076
 2.0264	35.1340
 2.0256	35.3523
 2.0248	35.8035
 2.0240	36.1071
 2.0232	36.4398
 2.0224	36.3851
 2.0216	36.1952
 2.0208	35.5911
 2.0200	34.6092
 2.0193	35.4863
 2.0185	36.3962
 2.0177	36.2974
 2.0169	35.4396
 2.0161	35.5719
 2.0153	36.1066
 2.0146	35.7125
 2.0138	35.7285
 2.0130	37.1111
 2.0122	36.5411
 2.0114	35.8102
 2.0107	36.1843
 2.0099	35.8710
 2.0091	35.6395
 2.0083	35.2489
 2.0075	36.1848
 2.0068	36.5918
 2.0060	36.1891
 2.0052	35.9269
 2.0044	34.8837
 2.0037	34.8203
 2.0029	35.8749
 2.0021	36.0019
 2.0013	35.8041
 2.0006	35.8044
 1.9998	37.1771
