Name: Basaltic Andesite
Type: rock
Class: Igneous
Subclass: Intermediate
Particle Size: Fine
Sample No.: Andesite_H4
Owner: JHU
Wavelength Range: All
Origin: Agrigan Volcano, Mariana Is., via Smithsonian (Cat. No115263-19)
Collection Date: N/A
Description: A dark gray, porphyritic and vuggy rock.  The phenocrysts are plagioclase laths, orangish-yellow olivine and opaques.Particle size was 0-75 micrometers. Original ASTER Spectral Library name was jhu.becknic.rock.igneous.intermediate.fine.andesi4.spectrum.txt
Measurement: Directional (10 degree) hemispherical reflectance
First Column: X
Second Column: Y
X Units: Wavelength (micrometers)
Y Units:Reflectance (percent)
First X Value: 14.0110
Last X Value:  0.4000
Number of X Values: 2844
Additional Information: rock.igneous.intermediate.fine.all.andesite_h4.jhu.becknic.ancillary.txt

14.0110	 0.0619
13.9730	 0.1767
13.9360	 1.0013
13.8990	 1.3940
13.8610	 0.8250
13.8240	 1.1686
13.7880	 0.9187
13.7510	 0.3867
13.7150	 0.9947
13.6790	 2.0963
13.6430	 1.6875
13.6070	 0.9696
13.5710	 1.0727
13.5360	 1.4460
13.5000	 1.3716
13.4650	 1.8220
13.4300	 1.9164
13.3960	 1.1499
13.3610	 1.0917
13.3270	 1.6676
13.2930	 1.6847
13.2590	 1.4742
13.2250	 1.4855
13.1910	 1.5724
13.1580	 1.3982
13.1240	 1.5844
13.0910	 1.7439
13.0580	 1.5891
13.0260	 1.3865
12.9930	 1.1414
12.9600	 1.3097
12.9280	 1.6228
12.8960	 1.8722
12.8640	 1.8164
12.8320	 1.7871
12.8000	 1.8438
12.7690	 1.7320
12.7370	 1.8958
12.7060	 2.0620
12.6750	 2.0377
12.6440	 2.1694
12.6140	 2.3301
12.5830	 2.1382
12.5520	 2.0700
12.5220	 2.3327
12.4920	 2.6316
12.4620	 2.6208
12.4320	 2.6977
12.4020	 2.9508
12.3730	 3.1985
12.3430	 3.5388
12.3140	 3.7376
12.2850	 3.8590
12.2560	 4.1508
12.2270	 4.2727
12.1980	 4.2896
12.1690	 4.2891
12.1410	 4.3378
12.1130	 4.4751
12.0840	 4.4817
12.0560	 4.4156
12.0280	 4.3938
12.0000	 4.3205
11.9730	 4.1585
11.9450	 4.0772
11.9180	 3.9820
11.8900	 3.9316
11.8630	 3.9792
11.8360	 3.9743
11.8090	 3.9325
11.7820	 3.8719
11.7550	 3.7223
11.7290	 3.6804
11.7020	 3.6014
11.6760	 3.6204
11.6500	 3.5990
11.6240	 3.4865
11.5980	 3.5034
11.5720	 3.5137
11.5460	 3.5649
11.5200	 3.6394
11.4950	 3.5935
11.4690	 3.5489
11.4440	 3.4982
11.4190	 3.4950
11.3940	 3.5250
11.3690	 3.4976
11.3440	 3.4751
11.3190	 3.4753
11.2940	 3.4488
11.2700	 3.4259
11.2450	 3.4399
11.2210	 3.4101
11.1970	 3.3330
11.1730	 3.3059
11.1490	 3.2662
11.1250	 3.2691
11.1010	 3.2309
11.0770	 3.1312
11.0540	 3.1844
11.0300	 3.2515
11.0070	 3.2194
10.9830	 3.2339
10.9600	 3.2418
10.9370	 3.1596
10.9140	 3.1319
10.8910	 3.1863
10.8680	 3.2320
10.8460	 3.1873
10.8230	 3.1964
10.8000	 3.2100
10.7780	 3.1598
10.7550	 3.1549
10.7330	 3.1714
10.7110	 3.1212
10.6890	 3.0417
10.6670	 3.0556
10.6450	 3.0813
10.6230	 3.0989
10.6020	 3.0185
10.5800	 2.9564
10.5580	 2.9977
10.5370	 3.0228
10.5160	 3.0389
10.4940	 3.0300
10.4730	 2.9597
10.4520	 2.9655
10.4310	 2.9852
10.4100	 2.9381
10.3890	 2.8924
10.3680	 2.9121
10.3480	 2.8990
10.3270	 2.8139
10.3060	 2.8050
10.2860	 2.8090
10.2660	 2.7717
10.2450	 2.7204
10.2250	 2.6678
10.2050	 2.6273
10.1850	 2.6824
10.1650	 2.7476
10.1450	 2.7743
10.1250	 2.7771
10.1060	 2.7584
10.0860	 2.7790
10.0660	 2.7710
10.0470	 2.7551
10.0270	 2.7844
10.0080	 2.7654
 9.9887	 2.7452
 9.9695	 2.7626
 9.9504	 2.8013
 9.9313	 2.7358
 9.9123	 2.6829
 9.8934	 2.7309
 9.8746	 2.7724
 9.8558	 2.7855
 9.8371	 2.7494
 9.8185	 2.7276
 9.7999	 2.7068
 9.7814	 2.6771
 9.7630	 2.6730
 9.7447	 2.6981
 9.7264	 2.6815
 9.7082	 2.6158
 9.6900	 2.6020
 9.6719	 2.6124
 9.6539	 2.5730
 9.6360	 2.5945
 9.6181	 2.5976
 9.6003	 2.5015
 9.5825	 2.4753
 9.5649	 2.5008
 9.5472	 2.4886
 9.5297	 2.4556
 9.5122	 2.4073
 9.4948	 2.3749
 9.4774	 2.4039
 9.4601	 2.3707
 9.4429	 2.3229
 9.4257	 2.3529
 9.4086	 2.4223
 9.3916	 2.4182
 9.3746	 2.4426
 9.3577	 2.4649
 9.3408	 2.4276
 9.3240	 2.3871
 9.3073	 2.4384
 9.2906	 2.4834
 9.2740	 2.5071
 9.2574	 2.5434
 9.2409	 2.5929
 9.2245	 2.6241
 9.2081	 2.7511
 9.1918	 2.7862
 9.1755	 2.6838
 9.1593	 2.7389
 9.1431	 2.7834
 9.1270	 2.7593
 9.1110	 2.7527
 9.0950	 2.7996
 9.0791	 2.8186
 9.0632	 2.7743
 9.0474	 2.7875
 9.0316	 2.8629
 9.0159	 2.8059
 9.0003	 2.7467
 8.9847	 2.7694
 8.9691	 2.7485
 8.9536	 2.6880
 8.9382	 2.6595
 8.9228	 2.6545
 8.9075	 2.6381
 8.8922	 2.6623
 8.8770	 2.6571
 8.8618	 2.6346
 8.8467	 2.6356
 8.8316	 2.6200
 8.8166	 2.5774
 8.8016	 2.5411
 8.7867	 2.5533
 8.7718	 2.5294
 8.7570	 2.4787
 8.7422	 2.5233
 8.7275	 2.5514
 8.7129	 2.5746
 8.6982	 2.6023
 8.6837	 2.5898
 8.6692	 2.5308
 8.6547	 2.5015
 8.6403	 2.5132
 8.6259	 2.5376
 8.6116	 2.4928
 8.5973	 2.4509
 8.5830	 2.4933
 8.5688	 2.5380
 8.5547	 2.5554
 8.5406	 2.5641
 8.5266	 2.5645
 8.5126	 2.5408
 8.4986	 2.5205
 8.4847	 2.4984
 8.4708	 2.5090
 8.4570	 2.5216
 8.4432	 2.4766
 8.4295	 2.4143
 8.4158	 2.3917
 8.4022	 2.3792
 8.3886	 2.3330
 8.3750	 2.3158
 8.3615	 2.3700
 8.3481	 2.3847
 8.3347	 2.3320
 8.3213	 2.2992
 8.3079	 2.3156
 8.2946	 2.3065
 8.2814	 2.2692
 8.2682	 2.2432
 8.2550	 2.1907
 8.2419	 2.1616
 8.2288	 2.1418
 8.2158	 2.0925
 8.2028	 2.0867
 8.1898	 2.0852
 8.1769	 2.0395
 8.1640	 2.0013
 8.1512	 1.9995
 8.1384	 1.9945
 8.1256	 1.9652
 8.1129	 1.9322
 8.1002	 1.9629
 8.0876	 1.9519
 8.0750	 1.9135
 8.0624	 1.9418
 8.0499	 1.9833
 8.0374	 1.9788
 8.0250	 1.9812
 8.0126	 2.0072
 8.0002	 1.9517
 7.9879	 1.9437
 7.9756	 2.0862
 7.9634	 2.1464
 7.9512	 2.1654
 7.9390	 2.2333
 7.9268	 2.2671
 7.9147	 2.2714
 7.9027	 2.3067
 7.8906	 2.3379
 7.8786	 2.3880
 7.8667	 2.4467
 7.8548	 2.4954
 7.8429	 2.5554
 7.8310	 2.5720
 7.8192	 2.5797
 7.8075	 2.6210
 7.7957	 2.6555
 7.7840	 2.6784
 7.7723	 2.7176
 7.7607	 2.7940
 7.7491	 2.8617
 7.7375	 2.8870
 7.7260	 2.9189
 7.7145	 2.9868
 7.7031	 3.0490
 7.6916	 3.0748
 7.6802	 3.1200
 7.6689	 3.1997
 7.6575	 3.2763
 7.6462	 3.2951
 7.6350	 3.2979
 7.6238	 3.3276
 7.6126	 3.3951
 7.6014	 3.4605
 7.5903	 3.5179
 7.5792	 3.5772
 7.5681	 3.6382
 7.5571	 3.6972
 7.5461	 3.7525
 7.5351	 3.8049
 7.5242	 3.8578
 7.5133	 3.9077
 7.5024	 3.9639
 7.4916	 4.0291
 7.4807	 4.0877
 7.4700	 4.1285
 7.4592	 4.1878
 7.4485	 4.2496
 7.4378	 4.3200
 7.4272	 4.3387
 7.4165	 4.3990
 7.4059	 4.4868
 7.3954	 4.5517
 7.3848	 4.6075
 7.3743	 4.6664
 7.3639	 4.7275
 7.3534	 4.7798
 7.3430	 4.8473
 7.3326	 4.9003
 7.3223	 4.9359
 7.3119	 4.9982
 7.3016	 5.0733
 7.2914	 5.1278
 7.2811	 5.1876
 7.2709	 5.2348
 7.2607	 5.2950
 7.2506	 5.3548
 7.2404	 5.4156
 7.2303	 5.4759
 7.2203	 5.5254
 7.2102	 5.5603
 7.2002	 5.6187
 7.1902	 5.6702
 7.1803	 5.7377
 7.1703	 5.7945
 7.1604	 5.8141
 7.1506	 5.8835
 7.1407	 5.9498
 7.1309	 6.0096
 7.1211	 6.0506
 7.1113	 6.0924
 7.1016	 6.1376
 7.0919	 6.1722
 7.0822	 6.2337
 7.0725	 6.3049
 7.0629	 6.3384
 7.0533	 6.3722
 7.0437	 6.4233
 7.0341	 6.4652
 7.0246	 6.5086
 7.0151	 6.5423
 7.0056	 6.5688
 6.9962	 6.6150
 6.9867	 6.6782
 6.9773	 6.7260
 6.9679	 6.7345
 6.9586	 6.7629
 6.9493	 6.8299
 6.9400	 6.8789
 6.9307	 6.9291
 6.9214	 6.9626
 6.9122	 6.9893
 6.9030	 7.0327
 6.8938	 7.0901
 6.8847	 7.1339
 6.8755	 7.1709
 6.8664	 7.1946
 6.8573	 7.2070
 6.8483	 7.2773
 6.8393	 7.3228
 6.8302	 7.3280
 6.8213	 7.3488
 6.8123	 7.3877
 6.8034	 7.4171
 6.7944	 7.4550
 6.7855	 7.5056
 6.7767	 7.5249
 6.7678	 7.5394
 6.7590	 7.5790
 6.7502	 7.6005
 6.7414	 7.6317
 6.7327	 7.6610
 6.7239	 7.6577
 6.7152	 7.6524
 6.7065	 7.6732
 6.6979	 7.7192
 6.6892	 7.7055
 6.6806	 7.7023
 6.6720	 7.7412
 6.6634	 7.7587
 6.6549	 7.7937
 6.6464	 7.8127
 6.6378	 7.8031
 6.6294	 7.8304
 6.6209	 7.8541
 6.6124	 7.8792
 6.6040	 7.9171
 6.5956	 7.9192
 6.5872	 7.9186
 6.5789	 7.9327
 6.5705	 7.9741
 6.5622	 8.0135
 6.5539	 8.0273
 6.5456	 8.0594
 6.5374	 8.0927
 6.5292	 8.0941
 6.5209	 8.1086
 6.5128	 8.1525
 6.5046	 8.1560
 6.4964	 8.1537
 6.4883	 8.1891
 6.4802	 8.2038
 6.4721	 8.2413
 6.4640	 8.2810
 6.4560	 8.3044
 6.4480	 8.3250
 6.4399	 8.3402
 6.4320	 8.3226
 6.4240	 8.3283
 6.4160	 8.3496
 6.4081	 8.3683
 6.4002	 8.3803
 6.3923	 8.3920
 6.3844	 8.4206
 6.3766	 8.4244
 6.3687	 8.4042
 6.3609	 8.4228
 6.3531	 8.4202
 6.3454	 8.3946
 6.3376	 8.3995
 6.3299	 8.4054
 6.3221	 8.4012
 6.3144	 8.4241
 6.3068	 8.4288
 6.2991	 8.4063
 6.2914	 8.3580
 6.2838	 8.3444
 6.2762	 8.3514
 6.2686	 8.3433
 6.2611	 8.3171
 6.2535	 8.2922
 6.2460	 8.2929
 6.2385	 8.3006
 6.2310	 8.2769
 6.2235	 8.2696
 6.2160	 8.2755
 6.2086	 8.2605
 6.2011	 8.2402
 6.1937	 8.2188
 6.1863	 8.1963
 6.1790	 8.2141
 6.1716	 8.2130
 6.1643	 8.2005
 6.1570	 8.2067
 6.1496	 8.2303
 6.1424	 8.2472
 6.1351	 8.2816
 6.1278	 8.3250
 6.1206	 8.3421
 6.1134	 8.3592
 6.1062	 8.4231
 6.0990	 8.4802
 6.0918	 8.5099
 6.0847	 8.5734
 6.0776	 8.5908
 6.0704	 8.6290
 6.0633	 8.6867
 6.0563	 8.7093
 6.0492	 8.7108
 6.0421	 8.7813
 6.0351	 8.8549
 6.0281	 8.8889
 6.0211	 8.9294
 6.0141	 8.9862
 6.0071	 9.0182
 6.0002	 9.0743
 5.9932	 9.1364
 5.9863	 9.1800
 5.9794	 9.2325
 5.9725	 9.3056
 5.9657	 9.3621
 5.9588	 9.4280
 5.9520	 9.4870
 5.9451	 9.5364
 5.9383	 9.5623
 5.9315	 9.6164
 5.9247	 9.6886
 5.9180	 9.7670
 5.9112	 9.8198
 5.9045	 9.8395
 5.8978	 9.8857
 5.8911	 9.9281
 5.8844	 9.9501
 5.8777	10.0010
 5.8711	10.0680
 5.8644	10.1220
 5.8578	10.1660
 5.8512	10.2000
 5.8446	10.2760
 5.8380	10.3260
 5.8314	10.3420
 5.8249	10.3660
 5.8184	10.4070
 5.8118	10.4490
 5.8053	10.4700
 5.7988	10.5190
 5.7923	10.5660
 5.7859	10.5840
 5.7794	10.6170
 5.7730	10.6340
 5.7666	10.6330
 5.7602	10.6960
 5.7538	10.7340
 5.7474	10.7420
 5.7410	10.7780
 5.7347	10.8500
 5.7283	10.8710
 5.7220	10.8750
 5.7157	10.8870
 5.7094	10.9080
 5.7031	10.9370
 5.6969	10.9510
 5.6906	10.9880
 5.6844	11.0320
 5.6782	11.0500
 5.6719	11.0550
 5.6657	11.0860
 5.6596	11.1080
 5.6534	11.1200
 5.6472	11.1480
 5.6411	11.1700
 5.6349	11.2180
 5.6288	11.2700
 5.6227	11.2730
 5.6166	11.3040
 5.6106	11.3570
 5.6045	11.3690
 5.5984	11.4010
 5.5924	11.4440
 5.5864	11.4610
 5.5804	11.4910
 5.5744	11.5550
 5.5684	11.6150
 5.5624	11.6120
 5.5564	11.6290
 5.5505	11.6950
 5.5445	11.7360
 5.5386	11.7460
 5.5327	11.7690
 5.5268	11.8190
 5.5209	11.8540
 5.5151	11.8620
 5.5092	11.8990
 5.5033	11.9510
 5.4975	11.9830
 5.4917	12.0040
 5.4859	12.0580
 5.4801	12.0770
 5.4743	12.0590
 5.4685	12.0860
 5.4628	12.1140
 5.4570	12.1530
 5.4513	12.1870
 5.4455	12.2090
 5.4398	12.2320
 5.4341	12.2390
 5.4284	12.2510
 5.4228	12.2810
 5.4171	12.2890
 5.4114	12.3090
 5.4058	12.3220
 5.4002	12.3190
 5.3945	12.3300
 5.3889	12.3280
 5.3833	12.3080
 5.3778	12.3040
 5.3722	12.2740
 5.3666	12.2400
 5.3611	12.2380
 5.3555	12.2090
 5.3500	12.1960
 5.3445	12.2060
 5.3390	12.2320
 5.3335	12.2740
 5.3280	12.2950
 5.3225	12.3300
 5.3171	12.3720
 5.3116	12.4060
 5.3062	12.4460
 5.3008	12.4830
 5.2954	12.5350
 5.2900	12.5940
 5.2846	12.6680
 5.2792	12.7350
 5.2738	12.8250
 5.2684	12.9060
 5.2631	12.9480
 5.2578	13.0040
 5.2524	13.1110
 5.2471	13.2110
 5.2418	13.2920
 5.2365	13.3750
 5.2312	13.4600
 5.2260	13.5360
 5.2207	13.6120
 5.2154	13.6660
 5.2102	13.7050
 5.2050	13.7910
 5.1998	13.8820
 5.1945	13.9360
 5.1893	13.9830
 5.1842	14.0710
 5.1790	14.1130
 5.1738	14.1660
 5.1686	14.2220
 5.1635	14.2490
 5.1584	14.2920
 5.1532	14.3490
 5.1481	14.3820
 5.1430	14.4290
 5.1379	14.4960
 5.1328	14.5190
 5.1277	14.5340
 5.1227	14.5850
 5.1176	14.6320
 5.1126	14.6760
 5.1075	14.7360
 5.1025	14.7810
 5.0975	14.8000
 5.0925	14.8290
 5.0875	14.8230
 5.0825	14.8250
 5.0775	14.8750
 5.0726	14.9260
 5.0676	14.9410
 5.0627	14.9620
 5.0577	15.0160
 5.0528	15.0500
 5.0479	15.0470
 5.0430	15.0570
 5.0380	15.0980
 5.0332	15.1180
 5.0283	15.1500
 5.0234	15.1960
 5.0185	15.2390
 5.0137	15.2900
 5.0088	15.3040
 5.0040	15.3400
 4.9992	15.3960
 4.9944	15.4320
 4.9896	15.4690
 4.9848	15.5280
 4.9800	15.5660
 4.9752	15.5970
 4.9704	15.6720
 4.9657	15.7110
 4.9609	15.7080
 4.9562	15.7510
 4.9514	15.8160
 4.9467	15.8890
 4.9420	15.9420
 4.9373	15.9740
 4.9326	16.0500
 4.9279	16.1420
 4.9232	16.2080
 4.9186	16.2500
 4.9139	16.3230
 4.9092	16.3870
 4.9046	16.4220
 4.9000	16.4700
 4.8953	16.5230
 4.8907	16.5960
 4.8861	16.6480
 4.8815	16.6760
 4.8769	16.7130
 4.8723	16.7700
 4.8678	16.8080
 4.8632	16.8260
 4.8586	16.8520
 4.8541	16.9320
 4.8495	16.9930
 4.8450	17.0120
 4.8405	17.0440
 4.8360	17.1050
 4.8315	17.1360
 4.8270	17.1430
 4.8225	17.1490
 4.8180	17.1700
 4.8135	17.1890
 4.8090	17.2040
 4.8046	17.2350
 4.8001	17.2950
 4.7957	17.3260
 4.7913	17.3440
 4.7868	17.3780
 4.7824	17.4220
 4.7780	17.4430
 4.7736	17.4770
 4.7692	17.4900
 4.7648	17.4850
 4.7605	17.5220
 4.7561	17.5750
 4.7517	17.6080
 4.7474	17.6140
 4.7431	17.6400
 4.7387	17.6970
 4.7344	17.7360
 4.7301	17.7540
 4.7258	17.7820
 4.7215	17.8240
 4.7172	17.8470
 4.7129	17.8790
 4.7086	17.9210
 4.7043	17.9330
 4.7000	17.9530
 4.6958	17.9940
 4.6915	18.0280
 4.6873	18.0390
 4.6831	18.0540
 4.6788	18.0930
 4.6746	18.1420
 4.6704	18.1560
 4.6662	18.1930
 4.6620	18.2300
 4.6578	18.2600
 4.6536	18.2780
 4.6495	18.2970
 4.6453	18.3260
 4.6411	18.3330
 4.6370	18.3720
 4.6328	18.4290
 4.6287	18.4690
 4.6246	18.5210
 4.6205	18.5390
 4.6163	18.5510
 4.6122	18.5760
 4.6081	18.6160
 4.6040	18.6520
 4.6000	18.6790
 4.5959	18.6990
 4.5918	18.7200
 4.5877	18.7710
 4.5837	18.7840
 4.5796	18.7770
 4.5756	18.8220
 4.5716	18.8700
 4.5675	18.9120
 4.5635	18.9630
 4.5595	18.9680
 4.5555	18.9670
 4.5515	18.9760
 4.5475	19.0010
 4.5435	19.0370
 4.5395	19.0780
 4.5356	19.1110
 4.5316	19.1410
 4.5276	19.1470
 4.5237	19.1700
 4.5197	19.2090
 4.5158	19.2110
 4.5119	19.2080
 4.5080	19.2450
 4.5040	19.2970
 4.5001	19.2870
 4.4962	19.2670
 4.4923	19.3160
 4.4884	19.3630
 4.4846	19.3640
 4.4807	19.3810
 4.4768	19.4100
 4.4730	19.4320
 4.4691	19.4490
 4.4652	19.4590
 4.4614	19.4870
 4.4576	19.4950
 4.4537	19.5140
 4.4499	19.5350
 4.4461	19.5330
 4.4423	19.5230
 4.4385	19.5340
 4.4347	19.5630
 4.4309	19.5880
 4.4271	19.5790
 4.4233	19.5870
 4.4196	19.6170
 4.4158	19.6420
 4.4120	19.6470
 4.4083	19.6260
 4.4045	19.6390
 4.4008	19.6630
 4.3971	19.6640
 4.3934	19.6810
 4.3896	19.7090
 4.3859	19.7290
 4.3822	19.7440
 4.3785	19.7840
 4.3748	19.8090
 4.3711	19.7860
 4.3674	19.8130
 4.3638	19.8520
 4.3601	19.8440
 4.3564	19.8770
 4.3528	19.9090
 4.3491	19.8960
 4.3455	19.8890
 4.3418	19.9100
 4.3382	19.9380
 4.3346	19.9630
 4.3310	20.0090
 4.3273	20.0490
 4.3237	20.0460
 4.3201	20.0290
 4.3165	20.0590
 4.3129	20.0590
 4.3094	20.0780
 4.3058	20.1090
 4.3022	20.1210
 4.2986	20.1410
 4.2951	20.1730
 4.2915	20.2000
 4.2880	20.2260
 4.2844	20.2230
 4.2809	20.2090
 4.2774	20.2310
 4.2738	20.2380
 4.2703	20.2650
 4.2668	20.2930
 4.2633	20.2810
 4.2598	20.2880
 4.2563	20.3180
 4.2528	20.3400
 4.2493	20.3570
 4.2458	20.3800
 4.2424	20.3890
 4.2389	20.3810
 4.2354	20.3800
 4.2320	20.4040
 4.2285	20.4170
 4.2251	20.4070
 4.2216	20.4140
 4.2182	20.4340
 4.2148	20.4440
 4.2113	20.4460
 4.2079	20.4510
 4.2045	20.4600
 4.2011	20.4780
 4.1977	20.5030
 4.1943	20.5240
 4.1909	20.5180
 4.1875	20.5270
 4.1841	20.5600
 4.1808	20.5510
 4.1774	20.5510
 4.1740	20.5710
 4.1707	20.5640
 4.1673	20.5850
 4.1640	20.6320
 4.1606	20.6420
 4.1573	20.6180
 4.1540	20.5960
 4.1506	20.5890
 4.1473	20.6180
 4.1440	20.6560
 4.1407	20.6650
 4.1374	20.6670
 4.1341	20.6770
 4.1308	20.6770
 4.1275	20.6680
 4.1242	20.6660
 4.1209	20.7020
 4.1177	20.7230
 4.1144	20.7210
 4.1111	20.7000
 4.1079	20.7100
 4.1046	20.7530
 4.1014	20.7550
 4.0981	20.7330
 4.0949	20.7260
 4.0917	20.7600
 4.0884	20.7750
 4.0852	20.7740
 4.0820	20.8040
 4.0788	20.8250
 4.0756	20.8040
 4.0724	20.7870
 4.0692	20.8160
 4.0660	20.8250
 4.0628	20.8260
 4.0596	20.8310
 4.0565	20.8290
 4.0533	20.8340
 4.0501	20.8440
 4.0470	20.8620
 4.0438	20.8710
 4.0406	20.8730
 4.0375	20.8960
 4.0344	20.8970
 4.0312	20.8870
 4.0281	20.9020
 4.0250	20.9170
 4.0218	20.9000
 4.0187	20.9140
 4.0156	20.9240
 4.0125	20.9580
 4.0094	20.9540
 4.0063	20.9430
 4.0032	20.9250
 4.0001	20.9210
 3.9970	20.9370
 3.9940	20.9570
 3.9909	20.9670
 3.9878	20.9760
 3.9847	20.9950
 3.9817	21.0150
 3.9786	20.9960
 3.9756	21.0030
 3.9725	21.0070
 3.9695	20.9980
 3.9665	21.0080
 3.9634	21.0050
 3.9604	21.0060
 3.9574	21.0300
 3.9544	21.0280
 3.9513	21.0130
 3.9483	21.0300
 3.9453	21.0550
 3.9423	21.0570
 3.9393	21.0480
 3.9363	21.0680
 3.9333	21.0860
 3.9304	21.0880
 3.9274	21.1010
 3.9244	21.1070
 3.9214	21.0770
 3.9185	21.0910
 3.9155	21.1380
 3.9126	21.1160
 3.9096	21.0840
 3.9067	21.1220
 3.9037	21.1560
 3.9008	21.1620
 3.8979	21.1500
 3.8949	21.1550
 3.8920	21.1490
 3.8891	21.1400
 3.8862	21.1640
 3.8833	21.1570
 3.8804	21.1590
 3.8775	21.1680
 3.8746	21.1990
 3.8717	21.1920
 3.8688	21.1900
 3.8659	21.2020
 3.8630	21.2010
 3.8601	21.2040
 3.8573	21.2300
 3.8544	21.2500
 3.8515	21.2270
 3.8487	21.2250
 3.8458	21.2590
 3.8430	21.2390
 3.8401	21.2250
 3.8373	21.2420
 3.8344	21.2300
 3.8316	21.2390
 3.8288	21.2660
 3.8259	21.2690
 3.8231	21.2660
 3.8203	21.2630
 3.8175	21.2840
 3.8147	21.3130
 3.8119	21.2930
 3.8091	21.2660
 3.8063	21.2680
 3.8035	21.2850
 3.8007	21.3010
 3.7979	21.3190
 3.7951	21.3140
 3.7924	21.3120
 3.7896	21.3240
 3.7868	21.3340
 3.7841	21.3430
 3.7813	21.3110
 3.7785	21.2890
 3.7758	21.3110
 3.7730	21.3420
 3.7703	21.3400
 3.7676	21.3620
 3.7648	21.3770
 3.7621	21.3510
 3.7594	21.3260
 3.7566	21.3270
 3.7539	21.3450
 3.7512	21.3570
 3.7485	21.3630
 3.7458	21.3630
 3.7431	21.3870
 3.7404	21.3760
 3.7377	21.3600
 3.7350	21.3660
 3.7323	21.3580
 3.7296	21.3960
 3.7269	21.4160
 3.7242	21.3890
 3.7216	21.3720
 3.7189	21.3760
 3.7162	21.3920
 3.7136	21.4000
 3.7109	21.4100
 3.7083	21.4100
 3.7056	21.3930
 3.7030	21.3900
 3.7003	21.4030
 3.6977	21.4280
 3.6950	21.4280
 3.6924	21.4040
 3.6898	21.4130
 3.6872	21.4220
 3.6845	21.3860
 3.6819	21.3970
 3.6793	21.4160
 3.6767	21.4220
 3.6741	21.4420
 3.6715	21.4410
 3.6689	21.4020
 3.6663	21.4250
 3.6637	21.4530
 3.6611	21.4210
 3.6585	21.4090
 3.6560	21.4470
 3.6534	21.4670
 3.6508	21.4370
 3.6482	21.4510
 3.6457	21.4560
 3.6431	21.4490
 3.6406	21.4540
 3.6380	21.4590
 3.6355	21.4650
 3.6329	21.4580
 3.6304	21.4460
 3.6278	21.4530
 3.6253	21.4760
 3.6227	21.4750
 3.6202	21.4530
 3.6177	21.4670
 3.6152	21.4860
 3.6127	21.4830
 3.6101	21.5030
 3.6076	21.4790
 3.6051	21.4490
 3.6026	21.4340
 3.6001	21.4590
 3.5976	21.4730
 3.5951	21.4500
 3.5926	21.4860
 3.5901	21.4990
 3.5876	21.4810
 3.5852	21.4680
 3.5827	21.4660
 3.5802	21.4810
 3.5777	21.4970
 3.5753	21.4750
 3.5728	21.4940
 3.5704	21.4940
 3.5679	21.4720
 3.5654	21.4880
 3.5630	21.5320
 3.5605	21.5330
 3.5581	21.4860
 3.5557	21.4790
 3.5532	21.5130
 3.5508	21.5030
 3.5484	21.5030
 3.5459	21.5170
 3.5435	21.5280
 3.5411	21.5060
 3.5387	21.4810
 3.5363	21.4920
 3.5338	21.5030
 3.5314	21.4990
 3.5290	21.4940
 3.5266	21.4920
 3.5242	21.5090
 3.5218	21.5200
 3.5195	21.5350
 3.5171	21.5170
 3.5147	21.4720
 3.5123	21.4930
 3.5099	21.5320
 3.5075	21.4970
 3.5052	21.5040
 3.5028	21.5350
 3.5004	21.5390
 3.4981	21.5370
 3.4957	21.5310
 3.4934	21.5230
 3.4910	21.4800
 3.4887	21.5050
 3.4863	21.5380
 3.4840	21.5160
 3.4816	21.4980
 3.4793	21.4930
 3.4770	21.5210
 3.4746	21.5680
 3.4723	21.5580
 3.4700	21.5090
 3.4677	21.4760
 3.4653	21.5020
 3.4630	21.5190
 3.4607	21.5100
 3.4584	21.5020
 3.4561	21.5160
 3.4538	21.5190
 3.4515	21.4810
 3.4492	21.4620
 3.4469	21.5000
 3.4446	21.5200
 3.4423	21.5100
 3.4400	21.5130
 3.4378	21.5220
 3.4355	21.5070
 3.4332	21.4830
 3.4309	21.4730
 3.4287	21.4630
 3.4264	21.4820
 3.4241	21.4880
 3.4219	21.4790
 3.4196	21.4580
 3.4174	21.4460
 3.4151	21.4290
 3.4129	21.4280
 3.4106	21.4230
 3.4084	21.4130
 3.4061	21.4070
 3.4039	21.4060
 3.4017	21.4240
 3.3994	21.4450
 3.3972	21.4500
 3.3950	21.4370
 3.3928	21.4280
 3.3906	21.4400
 3.3883	21.4140
 3.3861	21.4380
 3.3839	21.4240
 3.3817	21.3890
 3.3795	21.3890
 3.3773	21.3940
 3.3751	21.3990
 3.3729	21.4080
 3.3707	21.3970
 3.3685	21.4020
 3.3663	21.3820
 3.3641	21.3770
 3.3620	21.3720
 3.3598	21.3520
 3.3576	21.3440
 3.3554	21.3480
 3.3533	21.3520
 3.3511	21.3540
 3.3489	21.3400
 3.3468	21.3290
 3.3446	21.3200
 3.3425	21.3220
 3.3403	21.3390
 3.3382	21.3360
 3.3360	21.3330
 3.3339	21.3530
 3.3317	21.3260
 3.3296	21.2910
 3.3274	21.2690
 3.3253	21.2520
 3.3232	21.2430
 3.3210	21.2740
 3.3189	21.3000
 3.3168	21.2890
 3.3147	21.2810
 3.3126	21.2380
 3.3104	21.2610
 3.3083	21.2790
 3.3062	21.2510
 3.3041	21.2390
 3.3020	21.2100
 3.2999	21.1860
 3.2978	21.2020
 3.2957	21.2310
 3.2936	21.2060
 3.2915	21.2110
 3.2894	21.2160
 3.2874	21.1800
 3.2853	21.1800
 3.2832	21.1910
 3.2811	21.1960
 3.2790	21.1940
 3.2770	21.1630
 3.2749	21.1420
 3.2728	21.1650
 3.2708	21.1560
 3.2687	21.1360
 3.2666	21.1120
 3.2646	21.0930
 3.2625	21.1160
 3.2605	21.1210
 3.2584	21.1070
 3.2564	21.0910
 3.2543	21.0720
 3.2523	21.0740
 3.2503	21.0810
 3.2482	21.0740
 3.2462	21.0660
 3.2442	21.0790
 3.2421	21.0670
 3.2401	21.0140
 3.2381	20.9930
 3.2361	21.0200
 3.2340	21.0430
 3.2320	21.0250
 3.2300	21.0200
 3.2280	20.9760
 3.2260	20.9480
 3.2240	20.9690
 3.2220	20.9890
 3.2200	21.0130
 3.2180	21.0210
 3.2160	20.9850
 3.2140	20.9390
 3.2120	20.9440
 3.2100	20.9360
 3.2080	20.9090
 3.2060	20.9140
 3.2040	20.9150
 3.2021	20.8650
 3.2001	20.8540
 3.1981	20.8590
 3.1961	20.8960
 3.1942	20.8950
 3.1922	20.8270
 3.1902	20.8320
 3.1883	20.8420
 3.1863	20.8210
 3.1844	20.8100
 3.1824	20.7990
 3.1805	20.8040
 3.1785	20.8100
 3.1766	20.8290
 3.1746	20.8210
 3.1727	20.7800
 3.1707	20.7530
 3.1688	20.7740
 3.1669	20.7810
 3.1649	20.7580
 3.1630	20.7320
 3.1611	20.7380
 3.1591	20.7640
 3.1572	20.7300
 3.1553	20.6920
 3.1534	20.6720
 3.1515	20.6700
 3.1495	20.6430
 3.1476	20.6630
 3.1457	20.6980
 3.1438	20.6420
 3.1419	20.6220
 3.1400	20.6070
 3.1381	20.6090
 3.1362	20.6270
 3.1343	20.6040
 3.1324	20.5670
 3.1305	20.5760
 3.1286	20.6130
 3.1268	20.5660
 3.1249	20.4860
 3.1230	20.5010
 3.1211	20.5560
 3.1192	20.5720
 3.1174	20.5490
 3.1155	20.5120
 3.1136	20.4700
 3.1117	20.4780
 3.1099	20.4820
 3.1080	20.4860
 3.1061	20.4520
 3.1043	20.4240
 3.1024	20.4330
 3.1006	20.4210
 3.0987	20.4090
 3.0969	20.4000
 3.0950	20.3940
 3.0932	20.4050
 3.0913	20.3940
 3.0895	20.3970
 3.0876	20.3870
 3.0858	20.3530
 3.0840	20.3790
 3.0821	20.3890
 3.0803	20.3300
 3.0785	20.2880
 3.0766	20.3100
 3.0748	20.3470
 3.0730	20.3140
 3.0712	20.3170
 3.0694	20.3370
 3.0675	20.3180
 3.0657	20.3200
 3.0639	20.2840
 3.0621	20.2740
 3.0603	20.3290
 3.0585	20.3480
 3.0567	20.3240
 3.0549	20.3040
 3.0531	20.2720
 3.0513	20.2610
 3.0495	20.2790
 3.0477	20.2610
 3.0459	20.2690
 3.0441	20.3080
 3.0423	20.2750
 3.0406	20.2520
 3.0388	20.2890
 3.0370	20.2750
 3.0352	20.2090
 3.0334	20.2140
 3.0317	20.2480
 3.0299	20.2440
 3.0281	20.2240
 3.0264	20.1920
 3.0246	20.1870
 3.0228	20.2270
 3.0211	20.1810
 3.0193	20.1250
 3.0176	20.1430
 3.0158	20.1620
 3.0140	20.1820
 3.0123	20.1940
 3.0105	20.1580
 3.0088	20.1330
 3.0070	20.0850
 3.0053	20.0650
 3.0036	20.0750
 3.0018	20.0660
 3.0001	20.0680
 2.9984	20.0740
 2.9966	20.0380
 2.9949	19.9900
 2.9932	19.9790
 2.9914	20.0110
 2.9897	20.0350
 2.9880	20.0280
 2.9863	19.9790
 2.9845	19.9720
 2.9828	19.9700
 2.9811	19.9470
 2.9794	19.9430
 2.9777	19.9740
 2.9760	19.9810
 2.9743	19.9590
 2.9726	19.9250
 2.9709	19.8990
 2.9692	19.9210
 2.9675	19.9500
 2.9658	19.9500
 2.9641	19.9460
 2.9624	19.9380
 2.9607	19.9240
 2.9590	19.8590
 2.9573	19.8350
 2.9556	19.8620
 2.9539	19.8690
 2.9523	19.8470
 2.9506	19.8290
 2.9489	19.8150
 2.9472	19.8260
 2.9455	19.8230
 2.9439	19.8080
 2.9422	19.8090
 2.9405	19.8190
 2.9389	19.8320
 2.9372	19.8620
 2.9355	19.8100
 2.9339	19.7870
 2.9322	19.8330
 2.9306	19.8300
 2.9289	19.8260
 2.9272	19.7710
 2.9256	19.7400
 2.9239	19.7450
 2.9223	19.7670
 2.9207	19.7670
 2.9190	19.8180
 2.9174	19.8760
 2.9157	19.8260
 2.9141	19.7660
 2.9124	19.8060
 2.9108	19.8020
 2.9092	19.8230
 2.9075	19.8050
 2.9059	19.7700
 2.9043	19.7330
 2.9027	19.7270
 2.9010	19.7480
 2.8994	19.7520
 2.8978	19.7470
 2.8962	19.7210
 2.8946	19.7500
 2.8929	19.8310
 2.8913	19.7810
 2.8897	19.7740
 2.8881	19.7930
 2.8865	19.7610
 2.8849	19.7660
 2.8833	19.7430
 2.8817	19.6640
 2.8801	19.7010
 2.8785	19.7810
 2.8769	19.7910
 2.8753	19.7650
 2.8737	19.7040
 2.8721	19.6930
 2.8705	19.7070
 2.8689	19.7000
 2.8673	19.6940
 2.8658	19.7220
 2.8642	19.7210
 2.8626	19.7140
 2.8610	19.7360
 2.8594	19.7040
 2.8579	19.6870
 2.8563	19.6880
 2.8547	19.6920
 2.8531	19.7220
 2.8516	19.7540
 2.8500	19.7140
 2.8484	19.6390
 2.8469	19.6540
 2.8453	19.7240
 2.8437	19.6920
 2.8422	19.6930
 2.8406	19.7100
 2.8391	19.6850
 2.8375	19.6920
 2.8360	19.7500
 2.8344	19.7690
 2.8329	19.7250
 2.8313	19.6680
 2.8298	19.6800
 2.8282	19.7040
 2.8267	19.6740
 2.8252	19.6830
 2.8236	19.7280
 2.8221	19.7430
 2.8205	19.6730
 2.8190	19.6570
 2.8175	19.6510
 2.8159	19.6400
 2.8144	19.6540
 2.8129	19.6620
 2.8114	19.6720
 2.8098	19.7100
 2.8083	19.6610
 2.8068	19.6430
 2.8053	19.6810
 2.8038	19.6880
 2.8022	19.6910
 2.8007	19.6800
 2.7992	19.6880
 2.7977	19.6800
 2.7962	19.6820
 2.7947	19.6970
 2.7932	19.6540
 2.7917	19.6240
 2.7902	19.6350
 2.7887	19.6520
 2.7872	19.7220
 2.7857	19.7510
 2.7842	19.7070
 2.7827	19.6820
 2.7812	19.7220
 2.7797	19.7680
 2.7782	19.7400
 2.7767	19.7680
 2.7752	19.8160
 2.7738	19.8150
 2.7723	19.7760
 2.7708	19.7730
 2.7693	19.8280
 2.7678	19.8360
 2.7664	19.8510
 2.7649	19.8960
 2.7634	19.8950
 2.7619	19.8720
 2.7605	19.8820
 2.7590	19.9430
 2.7575	19.9300
 2.7561	19.8810
 2.7546	19.9050
 2.7531	19.9710
 2.7517	20.0070
 2.7502	20.0310
 2.7488	20.0990
 2.7473	20.1070
 2.7458	20.1150
 2.7444	20.0770
 2.7429	20.1020
 2.7415	20.1390
 2.7400	20.1970
 2.7386	20.2840
 2.7371	20.3180
 2.7357	20.3200
 2.7343	20.3990
 2.7328	20.4670
 2.7314	20.4770
 2.7299	20.5300
 2.7285	20.5940
 2.7271	20.6440
 2.7256	20.6950
 2.7242	20.7230
 2.7228	20.7550
 2.7213	20.7990
 2.7199	20.9040
 2.7185	21.0190
 2.7171	21.0710
 2.7156	21.1050
 2.7142	21.1180
 2.7128	21.2150
 2.7114	21.2900
 2.7100	21.3270
 2.7085	21.4140
 2.7071	21.4440
 2.7057	21.4300
 2.7043	21.4720
 2.7029	21.5250
 2.7015	21.5320
 2.7001	21.5840
 2.6987	21.6010
 2.6973	21.6120
 2.6959	21.6470
 2.6945	21.6800
 2.6931	21.6610
 2.6917	21.6110
 2.6903	21.6340
 2.6889	21.6770
 2.6875	21.6540
 2.6861	21.6380
 2.6847	21.7360
 2.6833	21.8030
 2.6819	21.7540
 2.6805	21.6780
 2.6791	21.6270
 2.6778	21.6280
 2.6764	21.7140
 2.6750	21.7530
 2.6736	21.7290
 2.6722	21.7010
 2.6709	21.7010
 2.6695	21.6920
 2.6681	21.7370
 2.6667	21.7640
 2.6654	21.7290
 2.6640	21.7620
 2.6626	21.8430
 2.6613	21.8410
 2.6599	21.8370
 2.6585	21.7990
 2.6572	21.8010
 2.6558	21.7960
 2.6545	21.8160
 2.6531	21.8180
 2.6517	21.8080
 2.6504	21.8050
 2.6490	21.7760
 2.6477	21.8190
 2.6463	21.8620
 2.6450	21.8200
 2.6436	21.7810
 2.6423	21.7740
 2.6409	21.7740
 2.6396	21.8040
 2.6382	21.7990
 2.6369	21.7970
 2.6356	21.8340
 2.6342	21.8710
 2.6329	21.8490
 2.6315	21.7720
 2.6302	21.7700
 2.6289	21.8030
 2.6275	21.7490
 2.6262	21.7700
 2.6249	21.8270
 2.6236	21.7600
 2.6222	21.7160
 2.6209	21.7580
 2.6196	21.7810
 2.6183	21.7630
 2.6169	21.7480
 2.6156	21.7320
 2.6143	21.7300
 2.6130	21.7330
 2.6117	21.7220
 2.6103	21.7070
 2.6090	21.6910
 2.6077	21.7130
 2.6064	21.6970
 2.6051	21.6970
 2.6038	21.7080
 2.6025	21.6730
 2.6012	21.6920
 2.5999	21.6970
 2.5986	21.7000
 2.5973	21.7190
 2.5960	21.6460
 2.5947	21.5860
 2.5934	21.5940
 2.5921	21.6360
 2.5908	21.6110
 2.5895	21.6090
 2.5882	21.6200
 2.5869	21.6420
 2.5856	21.6590
 2.5843	21.6090
 2.5830	21.5960
 2.5817	21.5990
 2.5805	21.6260
 2.5792	21.6030
 2.5779	21.5530
 2.5766	21.5920
 2.5753	21.6800
 2.5741	21.6320
 2.5728	21.5770
 2.5715	21.6420
 2.5702	21.5860
 2.5690	21.5310
 2.5677	21.5920
 2.5664	21.6170
 2.5651	21.5580
 2.5639	21.5460
 2.5626	21.6080
 2.5613	21.6310
 2.5601	21.5610
 2.5588	21.5770
 2.5575	21.6160
 2.5563	21.6030
 2.5550	21.5580
 2.5538	21.5520
 2.5525	21.5930
 2.5513	21.6060
 2.5500	21.5290
 2.5487	21.5000
 2.5475	21.5260
 2.5462	21.5640
 2.5450	21.5660
 2.5437	21.5750
 2.5425	21.5840
 2.5413	21.4940
 2.5400	21.4290
 2.5388	21.4430
 2.5375	21.4520
 2.5363	21.4680
 2.5350	21.5700
 2.5338	21.5780
 2.5326	21.4930
 2.5313	21.4840
 2.5301	21.5350
 2.5289	21.5930
 2.5276	21.5210
 2.5264	21.4590
 2.5252	21.4410
 2.5239	21.4110
 2.5227	21.3970
 2.5215	21.4420
 2.5202	21.4550
 2.5190	21.4990
 2.5178	21.4320
 2.5166	21.4360
 2.5154	21.4220
 2.5141	21.3790
 2.5129	21.4070
 2.5117	21.4270
 2.5105	21.4390
 2.5093	21.4560
 2.5081	21.4240
 2.5068	21.3880
 2.5056	21.3840
 2.5044	21.4470
 2.5032	21.4520
 2.5020	21.3990
 2.5008	21.3310
 2.4996	21.3060
 2.4984	21.3820
 2.4972	21.3990
 2.4960	21.3820
 2.4948	21.3820
 2.4936	21.3640
 2.4924	21.3720
 2.4912	21.3740
 2.4900	21.3650
 2.4888	21.3610
 2.4876	21.3730
 2.4864	21.3750
 2.4852	21.3130
 2.4840	21.3450
 2.4828	21.3690
 2.4816	21.3510
 2.4805	21.3640
 2.4793	21.4190
 2.4781	21.4040
 2.4769	21.3110
 2.4757	21.2790
 2.4745	21.3600
 2.4734	21.3740
 2.4722	21.2970
 2.4710	21.3060
 2.4698	21.3450
 2.4686	21.3230
 2.4675	21.2880
 2.4663	21.2990
 2.4651	21.3470
 2.4640	21.3370
 2.4628	21.3110
 2.4616	21.2800
 2.4604	21.2490
 2.4593	21.2740
 2.4581	21.2620
 2.4569	21.2430
 2.4558	21.2450
 2.4546	21.2810
 2.4535	21.3200
 2.4523	21.2950
 2.4511	21.2410
 2.4500	21.2240
 2.4488	21.2460
 2.4477	21.2250
 2.4465	21.1940
 2.4454	21.1490
 2.4442	21.1790
 2.4431	21.2610
 2.4419	21.2530
 2.4408	21.2360
 2.4396	21.2140
 2.4385	21.1280
 2.4373	21.1160
 2.4362	21.1600
 2.4350	21.2280
 2.4339	21.1920
 2.4327	21.1240
 2.4316	21.1390
 2.4305	21.1980
 2.4293	21.2110
 2.4282	21.1510
 2.4270	21.0690
 2.4259	21.0600
 2.4248	21.0940
 2.4236	21.1430
 2.4225	21.1480
 2.4214	21.1020
 2.4202	21.0630
 2.4191	21.1290
 2.4180	21.1410
 2.4169	21.1280
 2.4157	21.1410
 2.4146	21.0650
 2.4135	21.0450
 2.4124	21.1400
 2.4112	21.1480
 2.4101	21.1220
 2.4090	21.0430
 2.4079	21.0250
 2.4068	21.1220
 2.4056	21.1090
 2.4045	21.0600
 2.4034	21.0370
 2.4023	21.0460
 2.4012	21.1220
 2.4001	21.1180
 2.3990	21.0960
 2.3979	21.1290
 2.3967	21.0550
 2.3956	21.0070
 2.3945	21.0030
 2.3934	21.0200
 2.3923	21.0580
 2.3912	20.9850
 2.3901	20.9950
 2.3890	21.0480
 2.3879	21.0370
 2.3868	21.0360
 2.3857	21.1130
 2.3846	21.1180
 2.3835	21.1000
 2.3824	21.1030
 2.3813	21.0970
 2.3802	21.1000
 2.3791	21.0610
 2.3781	21.0330
 2.3770	21.0100
 2.3759	21.0250
 2.3748	21.0820
 2.3737	21.0460
 2.3726	21.0000
 2.3715	20.9730
 2.3704	20.9910
 2.3694	20.9790
 2.3683	21.0200
 2.3672	20.9870
 2.3661	20.9240
 2.3650	20.9980
 2.3640	21.0140
 2.3629	20.9820
 2.3618	21.0280
 2.3607	21.0760
 2.3597	21.0070
 2.3586	20.9060
 2.3575	20.9630
 2.3564	20.9790
 2.3554	21.0060
 2.3543	21.0380
 2.3532	21.0800
 2.3522	21.0610
 2.3511	20.9100
 2.3500	20.8940
 2.3490	20.9180
 2.3479	20.9210
 2.3468	20.9350
 2.3458	20.9330
 2.3447	20.9660
 2.3436	20.9720
 2.3426	20.9330
 2.3415	20.8750
 2.3405	20.9130
 2.3394	20.9660
 2.3384	20.9620
 2.3373	20.9820
 2.3363	20.9970
 2.3352	21.0180
 2.3342	21.0850
 2.3331	20.9940
 2.3321	20.9190
 2.3310	20.9300
 2.3300	20.9590
 2.3289	20.9030
 2.3279	20.8930
 2.3268	20.8500
 2.3258	20.8760
 2.3247	20.9740
 2.3237	20.9940
 2.3226	20.9800
 2.3216	20.9490
 2.3206	20.9510
 2.3195	20.9400
 2.3185	20.9520
 2.3175	20.9540
 2.3164	20.9340
 2.3154	20.9180
 2.3144	20.9440
 2.3133	21.0050
 2.3123	21.0130
 2.3113	21.0030
 2.3102	20.9350
 2.3092	20.9000
 2.3082	20.9260
 2.3071	20.9680
 2.3061	20.9410
 2.3051	20.9290
 2.3041	20.9440
 2.3030	20.9320
 2.3020	20.9340
 2.3010	20.9340
 2.3000	20.9440
 2.2990	20.8860
 2.2979	20.8330
 2.2969	20.9090
 2.2959	20.9320
 2.2949	20.9040
 2.2939	20.9210
 2.2929	20.9720
 2.2918	20.9310
 2.2908	20.8590
 2.2898	20.9070
 2.2888	20.9400
 2.2878	20.9220
 2.2868	20.8990
 2.2858	20.8960
 2.2848	20.9300
 2.2838	20.9430
 2.2828	20.9810
 2.2818	20.9840
 2.2808	20.9250
 2.2798	20.8860
 2.2787	20.9600
 2.2777	20.9730
 2.2767	20.9040
 2.2757	20.9460
 2.2747	21.0080
 2.2738	20.9810
 2.2728	20.9610
 2.2718	20.9670
 2.2708	20.9170
 2.2698	20.9370
 2.2688	20.9510
 2.2678	20.9230
 2.2668	20.9180
 2.2658	20.9410
 2.2648	20.9150
 2.2638	20.8510
 2.2628	20.8800
 2.2618	20.9090
 2.2609	20.9180
 2.2599	20.9400
 2.2589	20.9060
 2.2579	20.9490
 2.2569	21.0070
 2.2559	20.9560
 2.2550	20.8520
 2.2540	20.8530
 2.2530	20.9200
 2.2520	20.8960
 2.2510	20.8910
 2.2501	20.8810
 2.2491	20.9200
 2.2481	20.9610
 2.2471	20.9850
 2.2462	20.9620
 2.2452	20.9430
 2.2442	20.9410
 2.2433	20.9240
 2.2423	20.9390
 2.2413	21.0080
 2.2403	20.9390
 2.2394	20.8970
 2.2384	20.9240
 2.2374	20.9430
 2.2365	20.9000
 2.2355	20.9030
 2.2345	20.9360
 2.2336	20.9760
 2.2326	20.9630
 2.2317	20.9370
 2.2307	20.9550
 2.2297	20.9170
 2.2288	20.9230
 2.2278	20.9070
 2.2269	20.9350
 2.2259	20.9340
 2.2250	20.9410
 2.2240	20.9170
 2.2231	20.9210
 2.2221	20.9930
 2.2211	21.0040
 2.2202	21.0170
 2.2192	20.9980
 2.2183	21.0400
 2.2173	21.0640
 2.2164	21.0030
 2.2155	20.9150
 2.2145	20.9260
 2.2136	20.9850
 2.2126	20.9630
 2.2117	21.0050
 2.2107	21.0690
 2.2098	21.0410
 2.2088	21.0340
 2.2079	21.0220
 2.2070	20.9650
 2.2060	21.0050
 2.2051	21.0530
 2.2041	21.0000
 2.2032	21.0320
 2.2023	21.0810
 2.2013	21.0500
 2.2004	21.0000
 2.1995	20.9410
 2.1985	20.9830
 2.1976	21.0870
 2.1967	21.0850
 2.1957	21.0750
 2.1948	21.1170
 2.1939	21.1800
 2.1930	21.1680
 2.1920	21.0940
 2.1911	21.0820
 2.1902	21.0440
 2.1893	21.0290
 2.1883	21.0790
 2.1874	21.0490
 2.1865	21.0490
 2.1856	21.1140
 2.1846	21.1430
 2.1837	21.0700
 2.1828	21.1090
 2.1819	21.2130
 2.1810	21.1550
 2.1800	21.0860
 2.1791	21.1860
 2.1782	21.2170
 2.1773	21.1610
 2.1764	21.1690
 2.1755	21.1900
 2.1746	21.2060
 2.1736	21.1550
 2.1727	21.0680
 2.1718	21.0830
 2.1709	21.1800
 2.1700	21.2190
 2.1691	21.2470
 2.1682	21.3090
 2.1673	21.2290
 2.1664	21.1490
 2.1655	21.1640
 2.1646	21.2160
 2.1637	21.2220
 2.1628	21.1560
 2.1619	21.1190
 2.1610	21.2040
 2.1601	21.2740
 2.1592	21.2230
 2.1583	21.2300
 2.1574	21.2210
 2.1565	21.1960
 2.1556	21.2120
 2.1547	21.2530
 2.1538	21.2700
 2.1529	21.2920
 2.1520	21.3140
 2.1511	21.2490
 2.1502	21.2510
 2.1493	21.2720
 2.1484	21.2980
 2.1475	21.2870
 2.1466	21.2680
 2.1458	21.2640
 2.1449	21.3020
 2.1440	21.2230
 2.1431	21.2290
 2.1422	21.2790
 2.1413	21.3230
 2.1404	21.2720
 2.1396	21.2300
 2.1387	21.3120
 2.1378	21.3970
 2.1369	21.3140
 2.1360	21.2840
 2.1352	21.3020
 2.1343	21.2970
 2.1334	21.4030
 2.1325	21.4020
 2.1316	21.3270
 2.1308	21.4020
 2.1299	21.4510
 2.1290	21.3860
 2.1281	21.3110
 2.1273	21.3010
 2.1264	21.3640
 2.1255	21.4230
 2.1247	21.3890
 2.1238	21.3980
 2.1229	21.3980
 2.1220	21.3810
 2.1212	21.3730
 2.1203	21.3850
 2.1194	21.3710
 2.1186	21.3210
 2.1177	21.3320
 2.1168	21.3640
 2.1160	21.3520
 2.1151	21.4130
 2.1143	21.4430
 2.1134	21.3560
 2.1125	21.3780
 2.1117	21.4800
 2.1108	21.4430
 2.1100	21.4140
 2.1091	21.3790
 2.1082	21.3900
 2.1074	21.4570
 2.1065	21.5210
 2.1057	21.5670
 2.1048	21.6050
 2.1040	21.4960
 2.1031	21.4380
 2.1023	21.4940
 2.1014	21.4770
 2.1005	21.4570
 2.0997	21.4810
 2.0988	21.5000
 2.0980	21.5170
 2.0971	21.4460
 2.0963	21.4590
 2.0955	21.5260
 2.0946	21.5560
 2.0938	21.5940
 2.0929	21.5700
 2.0921	21.5870
 2.0912	21.5700
 2.0904	21.5270
 2.0895	21.5440
 2.0887	21.5410
 2.0879	21.5560
 2.0870	21.5860
 2.0862	21.5460
 2.0853	21.4940
 2.0845	21.5550
 2.0837	21.5520
 2.0828	21.5270
 2.0820	21.5420
 2.0812	21.5950
 2.0803	21.6740
 2.0795	21.5990
 2.0760	21.5990
 2.0720	21.6560
 2.0680	21.6180
 2.0640	21.5250
 2.0600	21.5250
 2.0560	21.8070
 2.0520	21.9150
 2.0480	21.6150
 2.0440	21.5770
 2.0400	21.7800
 2.0360	21.7040
 2.0320	21.6660
 2.0280	21.7040
 2.0240	21.3910
 2.0200	21.2800
 2.0160	21.2800
 2.0120	21.1960
 2.0080	21.5530
 2.0040	21.4780
 2.0000	21.5150
 1.9960	21.5150
 1.9920	21.3340
 1.9880	21.2970
 1.9840	21.3490
 1.9800	21.3300
 1.9760	21.4670
 1.9720	21.4410
 1.9680	21.4940
 1.9640	21.4760
 1.9600	21.5660
 1.9560	21.6220
 1.9520	21.6970
 1.9480	21.6630
 1.9440	21.7570
 1.9400	21.5960
 1.9360	21.7000
 1.9320	21.4500
 1.9280	21.4330
 1.9240	21.3570
 1.9200	21.2280
 1.9160	21.2220
 1.9120	21.4990
 1.9080	21.5350
 1.9040	21.5390
 1.9000	21.6060
 1.8960	21.5630
 1.8920	21.5400
 1.8880	21.7890
 1.8840	21.4950
 1.8800	21.6100
 1.8760	21.6500
 1.8720	21.6220
 1.8680	21.5150
 1.8640	21.5790
 1.8600	21.4760
 1.8560	21.4340
 1.8520	21.6100
 1.8480	21.6990
 1.8440	21.7280
 1.8400	21.7830
 1.8360	21.8720
 1.8320	21.7800
 1.8280	21.9760
 1.8240	21.9020
 1.8200	21.8470
 1.8160	21.7920
 1.8120	21.9020
 1.8080	21.8250
 1.8040	21.7730
 1.8000	21.7730
 1.7960	21.9070
 1.7920	21.8280
 1.7880	21.5970
 1.7840	21.6150
 1.7800	21.5240
 1.7760	21.7730
 1.7720	21.7920
 1.7680	21.6150
 1.7640	21.6880
 1.7600	21.7060
 1.7560	21.6880
 1.7520	21.8840
 1.7480	21.9020
 1.7440	22.0240
 1.7400	22.0610
 1.7360	22.0470
 1.7320	22.0650
 1.7280	22.0650
 1.7240	22.1540
 1.7200	22.1540
 1.7160	22.1170
 1.7120	22.1500
 1.7080	22.0150
 1.7040	22.2330
 1.7000	22.2140
 1.6960	22.0380
 1.6920	22.0190
 1.6880	22.2330
 1.6840	22.1960
 1.6800	22.1770
 1.6760	22.2140
 1.6720	22.0560
 1.6680	22.0560
 1.6640	22.0380
 1.6600	22.0190
 1.6560	22.1000
 1.6520	22.1920
 1.6480	22.1920
 1.6440	22.2110
 1.6400	22.1550
 1.6360	22.1400
 1.6320	22.1370
 1.6280	22.1920
 1.6240	22.0940
 1.6200	22.0150
 1.6160	22.1550
 1.6120	22.2060
 1.6080	22.2430
 1.6040	22.3940
 1.6000	22.3940
 1.5960	22.2480
 1.5920	22.3180
 1.5880	22.1370
 1.5840	22.0630
 1.5800	22.1140
 1.5760	22.1180
 1.5720	22.1510
 1.5680	22.2390
 1.5640	22.1390
 1.5600	22.2760
 1.5560	22.2010
 1.5520	22.1720
 1.5480	22.2460
 1.5440	22.2460
 1.5400	22.2270
 1.5360	22.1720
 1.5320	22.1720
 1.5280	22.2460
 1.5240	22.2460
 1.5200	22.3150
 1.5160	22.2090
 1.5120	22.1530
 1.5080	22.0660
 1.5040	22.0510
 1.5000	22.1100
 1.4960	21.7140
 1.4920	21.8720
 1.4880	21.9230
 1.4840	21.9410
 1.4800	21.8820
 1.4760	21.9600
 1.4720	21.9600
 1.4680	21.8640
 1.4640	21.9340
 1.4600	21.8980
 1.4560	22.0400
 1.4520	22.1490
 1.4480	22.1680
 1.4440	22.1530
 1.4400	22.2080
 1.4360	22.1750
 1.4320	22.1750
 1.4280	22.1290
 1.4240	22.1110
 1.4200	22.0930
 1.4160	22.0410
 1.4120	22.0990
 1.4080	22.1360
 1.4040	21.8650
 1.4000	22.1540
 1.3960	22.0990
 1.3920	21.8650
 1.3880	21.9200
 1.3840	21.9570
 1.3800	22.0300
 1.3760	22.1540
 1.3720	22.1810
 1.3680	22.1000
 1.3640	22.1950
 1.3600	22.1270
 1.3560	22.2160
 1.3520	22.1180
 1.3480	22.1820
 1.3440	22.1280
 1.3400	22.1370
 1.3360	22.0160
 1.3320	21.9810
 1.3280	21.9630
 1.3240	21.9110
 1.3200	21.8430
 1.3160	21.9150
 1.3120	21.7780
 1.3080	21.7430
 1.3040	21.8490
 1.3000	21.8670
 1.2960	21.8840
 1.2920	21.9380
 1.2880	21.9030
 1.2840	21.9040
 1.2800	21.9760
 1.2760	21.9050
 1.2720	21.9950
 1.2680	22.0840
 1.2640	21.9570
 1.2600	21.9390
 1.2560	21.9570
 1.2520	21.8250
 1.2480	21.8070
 1.2440	21.9320
 1.2400	22.0940
 1.2360	22.0140
 1.2320	21.9770
 1.2280	22.0390
 1.2240	22.0930
 1.2200	22.0670
 1.2160	22.1220
 1.2120	21.9230
 1.2080	22.0120
 1.2040	22.0650
 1.2000	22.0470
 1.1960	21.9930
 1.1920	21.9860
 1.1880	21.9510
 1.1840	21.9160
 1.1800	21.7440
 1.1760	21.9680
 1.1720	22.1620
 1.1680	22.0070
 1.1640	21.8840
 1.1600	21.9190
 1.1560	21.9000
 1.1520	21.8470
 1.1480	21.8470
 1.1440	21.7860
 1.1400	21.9080
 1.1360	22.0140
 1.1320	21.9970
 1.1280	21.9260
 1.1240	21.6970
 1.1200	21.7320
 1.1160	21.6790
 1.1120	21.4850
 1.1080	21.3350
 1.1040	21.3520
 1.1000	21.3860
 1.0960	21.4230
 1.0920	21.3520
 1.0880	21.2290
 1.0840	21.2630
 1.0800	21.1840
 1.0760	20.9900
 1.0720	21.0450
 1.0680	21.0790
 1.0640	20.8750
 1.0600	20.7310
 1.0560	20.6420
 1.0520	20.6030
 1.0480	20.3210
 1.0440	20.2890
 1.0400	20.2100
 1.0360	20.1850
 1.0320	20.2490
 1.0280	20.2970
 1.0240	20.2720
 1.0200	20.0720
 1.0160	20.0870
 1.0120	19.9670
 1.0080	19.8060
 1.0040	19.9000
 1.0000	19.7340
 0.9960	19.7340
 0.9920	19.8580
 0.9880	19.7440
 0.9840	19.7180
 0.9800	19.7330
 0.9760	19.7960
 0.9720	19.6450
 0.9680	19.6030
 0.9640	19.7070
 0.9600	19.6610
 0.9560	19.8120
 0.9520	19.7960
 0.9480	19.7960
 0.9440	19.7960
 0.9400	19.9150
 0.9360	19.9470
 0.9320	20.0760
 0.9280	20.1010
 0.9240	20.1320
 0.9200	20.1320
 0.9160	20.2200
 0.9120	20.3090
 0.9080	20.5560
 0.9040	20.4130
 0.9000	20.4740
 0.8960	20.7000
 0.8920	20.7880
 0.8880	20.9260
 0.8840	20.9100
 0.8800	21.0660
 0.8760	21.1550
 0.8720	21.3490
 0.8680	21.3490
 0.8640	21.3830
 0.8600	21.5760
 0.8560	21.5590
 0.8520	21.6480
 0.8480	21.6660
 0.8440	21.7200
 0.8400	21.7560
 0.8360	21.7910
 0.8320	21.8980
 0.8280	21.9150
 0.8240	21.9690
 0.8200	22.0390
 0.8160	22.0570
 0.8120	22.1620
 0.8080	22.2140
 0.8040	22.2300
 0.8000	22.2110
 0.7990	21.9590
 0.7980	21.9590
 0.7970	21.8810
 0.7960	22.0590
 0.7950	22.0540
 0.7940	22.1500
 0.7930	22.0960
 0.7920	22.2050
 0.7910	22.1420
 0.7900	22.1000
 0.7890	22.1500
 0.7880	22.1920
 0.7870	22.1000
 0.7860	22.3090
 0.7850	22.2410
 0.7840	22.1990
 0.7830	22.3050
 0.7820	22.1170
 0.7810	22.2720
 0.7800	21.9840
 0.7790	22.1340
 0.7780	21.8090
 0.7770	22.1670
 0.7760	22.1710
 0.7750	22.1920
 0.7740	22.1460
 0.7730	22.0710
 0.7720	22.1630
 0.7710	22.1410
 0.7700	22.2260
 0.7690	22.2690
 0.7680	22.2900
 0.7670	22.0340
 0.7660	22.2690
 0.7650	22.1840
 0.7640	22.3890
 0.7630	22.3650
 0.7620	22.3220
 0.7610	22.2050
 0.7600	22.2050
 0.7590	22.2260
 0.7580	22.4750
 0.7570	22.1190
 0.7560	22.2260
 0.7550	22.0130
 0.7540	21.9010
 0.7530	22.2690
 0.7520	22.4080
 0.7510	22.2690
 0.7500	22.2940
 0.7490	22.4100
 0.7480	22.1840
 0.7470	22.1630
 0.7460	22.0130
 0.7450	22.0980
 0.7440	22.3110
 0.7430	22.5930
 0.7420	22.3220
 0.7410	22.4750
 0.7400	22.3330
 0.7390	22.2830
 0.7380	22.2050
 0.7370	22.1400
 0.7360	22.5620
 0.7350	22.1190
 0.7340	22.0230
 0.7330	21.8960
 0.7320	21.8960
 0.7310	22.1010
 0.7300	22.1650
 0.7290	21.9800
 0.7280	22.3040
 0.7270	22.6560
 0.7260	22.5620
 0.7250	22.1400
 0.7240	22.3040
 0.7230	22.5620
 0.7220	22.3260
 0.7210	22.3260
 0.7200	22.2610
 0.7190	22.3890
 0.7180	22.1180
 0.7170	21.9050
 0.7160	22.0050
 0.7150	22.0900
 0.7140	21.9050
 0.7130	21.9470
 0.7120	22.1650
 0.7110	22.3690
 0.7100	22.1290
 0.7090	22.0230
 0.7080	22.0980
 0.7070	22.3010
 0.7060	22.1120
 0.7050	22.2730
 0.7040	22.2300
 0.7030	22.4350
 0.7020	22.4530
 0.7010	22.3320
 0.7000	22.1160
 0.6990	22.0150
 0.6980	22.2220
 0.6970	22.1880
 0.6960	22.2210
 0.6950	22.2440
 0.6940	22.3440
 0.6930	22.2440
 0.6920	22.1230
 0.6910	22.2540
 0.6900	22.3530
 0.6890	22.3530
 0.6880	22.4420
 0.6870	22.3540
 0.6860	22.4200
 0.6850	22.3210
 0.6840	22.2330
 0.6830	22.2330
 0.6820	22.2080
 0.6810	22.0570
 0.6800	22.3070
 0.6790	22.3610
 0.6780	22.2620
 0.6770	22.4520
 0.6760	22.3980
 0.6750	22.3210
 0.6740	22.4100
 0.6730	22.4100
 0.6720	22.3200
 0.6710	22.0230
 0.6700	22.1990
 0.6690	22.2980
 0.6680	22.1550
 0.6670	22.1990
 0.6660	22.0550
 0.6650	22.2080
 0.6640	22.3650
 0.6630	22.4100
 0.6620	22.3650
 0.6610	22.5640
 0.6600	22.2660
 0.6590	22.0230
 0.6580	22.0230
 0.6570	22.2210
 0.6560	21.8580
 0.6550	21.9230
 0.6540	21.9230
 0.6530	21.8580
 0.6520	22.0120
 0.6510	22.1780
 0.6500	22.2330
 0.6490	21.9670
 0.6480	21.9230
 0.6470	22.0220
 0.6460	22.0440
 0.6450	21.9450
 0.6440	21.9450
 0.6430	22.0220
 0.6420	21.9560
 0.6410	22.0660
 0.6400	22.0660
 0.6390	22.1330
 0.6380	22.1110
 0.6370	21.9230
 0.6360	22.0660
 0.6350	21.9450
 0.6340	21.9230
 0.6330	22.1210
 0.6320	22.1440
 0.6310	22.0990
 0.6300	22.0440
 0.6290	21.9340
 0.6280	21.9670
 0.6270	21.9340
 0.6260	22.0780
 0.6250	22.0780
 0.6240	22.0340
 0.6230	22.0560
 0.6220	22.0780
 0.6210	22.0560
 0.6200	21.9560
 0.6190	21.8780
 0.6180	22.0450
 0.6170	22.0010
 0.6160	22.0780
 0.6150	22.0340
 0.6140	21.9560
 0.6130	21.7120
 0.6120	21.7120
 0.6110	21.9560
 0.6100	21.9780
 0.6090	21.8670
 0.6080	21.8000
 0.6070	21.9780
 0.6060	22.0010
 0.6050	21.8000
 0.6040	21.7440
 0.6030	21.8670
 0.6020	21.7660
 0.6010	21.7660
 0.6000	21.8780
 0.5990	21.7990
 0.5980	21.8440
 0.5970	21.7870
 0.5960	21.7870
 0.5950	21.8320
 0.5940	21.8550
 0.5930	21.7310
 0.5920	21.9000
 0.5910	21.9000
 0.5900	21.7980
 0.5890	21.8210
 0.5880	21.7980
 0.5870	21.7980
 0.5860	21.6500
 0.5850	21.5830
 0.5840	21.7980
 0.5830	21.6390
 0.5820	21.5280
 0.5810	21.4830
 0.5800	21.3950
 0.5790	21.4170
 0.5780	21.5970
 0.5770	21.7200
 0.5760	21.7870
 0.5750	21.7870
 0.5740	21.8220
 0.5730	21.7440
 0.5720	21.7340
 0.5710	21.6340
 0.5700	21.6120
 0.5690	21.6120
 0.5680	21.3480
 0.5670	21.3780
 0.5660	21.4650
 0.5650	21.3640
 0.5640	21.0990
 0.5630	21.0640
 0.5620	21.0850
 0.5610	21.1070
 0.5600	21.1930
 0.5590	21.2370
 0.5580	21.0490
 0.5570	21.1210
 0.5560	21.0590
 0.5550	21.1550
 0.5540	20.6800
 0.5530	20.5310
 0.5520	20.4510
 0.5510	20.2020
 0.5500	20.4150
 0.5490	20.3030
 0.5480	20.6200
 0.5470	20.5930
 0.5460	20.4180
 0.5450	20.4950
 0.5440	20.4790
 0.5430	20.4790
 0.5420	20.4810
 0.5410	20.5400
 0.5400	20.3640
 0.5390	20.5220
 0.5380	20.5810
 0.5370	20.4590
 0.5360	20.4790
 0.5350	20.5810
 0.5340	20.4070
 0.5330	20.4070
 0.5320	20.2500
 0.5310	20.3100
 0.5300	20.3300
 0.5290	20.4470
 0.5280	20.3300
 0.5270	20.2300
 0.5260	20.2300
 0.5250	20.1340
 0.5240	20.1900
 0.5230	20.0910
 0.5220	19.9360
 0.5210	20.2290
 0.5200	20.2260
 0.5190	20.1100
 0.5180	20.1100
 0.5170	20.0150
 0.5160	19.9560
 0.5150	19.9960
 0.5140	19.8000
 0.5130	19.8390
 0.5120	20.2500
 0.5110	20.1300
 0.5100	19.9750
 0.5090	19.9170
 0.5080	19.8040
 0.5070	19.7640
 0.5060	19.8220
 0.5050	19.8390
 0.5040	19.6640
 0.5030	19.8420
 0.5020	19.6280
 0.5010	19.7070
 0.5000	19.8220
 0.4990	19.9210
 0.4980	19.7450
 0.4970	19.7640
 0.4960	19.7260
 0.4950	19.6300
 0.4940	19.4190
 0.4930	19.6490
 0.4920	19.8040
 0.4910	19.8040
 0.4900	19.7660
 0.4890	19.4560
 0.4880	19.5700
 0.4870	19.5510
 0.4860	19.4330
 0.4850	19.3580
 0.4840	19.4560
 0.4830	19.5310
 0.4820	19.5350
 0.4810	19.4560
 0.4800	19.2800
 0.4790	19.4560
 0.4780	19.3360
 0.4770	19.4160
 0.4760	19.3180
 0.4750	19.2230
 0.4740	19.2410
 0.4730	19.0650
 0.4720	19.1270
 0.4710	19.1270
 0.4700	19.1270
 0.4690	19.2250
 0.4680	19.2840
 0.4670	19.2430
 0.4660	19.0480
 0.4650	19.0660
 0.4640	18.9700
 0.4630	19.1290
 0.4620	18.9770
 0.4610	19.0740
 0.4600	18.8980
 0.4590	19.0740
 0.4580	19.0990
 0.4570	19.0240
 0.4560	19.0420
 0.4550	19.0600
 0.4540	19.1420
 0.4530	18.9600
 0.4520	18.9300
 0.4510	19.0310
 0.4500	19.3870
 0.4490	18.9950
 0.4480	19.0660
 0.4470	18.9830
 0.4460	18.8320
 0.4450	18.8840
 0.4440	18.8510
 0.4430	18.7660
 0.4420	18.9050
 0.4410	18.9500
 0.4400	19.0340
 0.4390	18.9150
 0.4380	18.7650
 0.4370	18.5440
 0.4360	18.6460
 0.4350	18.8160
 0.4340	18.5590
 0.4330	18.5260
 0.4320	18.8990
 0.4310	18.7120
 0.4300	18.6250
 0.4290	18.7610
 0.4280	18.5540
 0.4270	18.6540
 0.4260	18.5870
 0.4250	18.7610
 0.4240	18.2470
 0.4230	18.1960
 0.4220	18.2420
 0.4210	18.1370
 0.4200	18.2720
 0.4190	18.0870
 0.4180	18.3960
 0.4170	18.2760
 0.4160	18.1650
 0.4150	18.0920
 0.4140	17.9600
 0.4130	18.0210
 0.4120	18.0060
 0.4110	17.9290
 0.4100	17.8570
 0.4090	17.8570
 0.4080	17.8570
 0.4070	17.8150
 0.4060	17.8600
 0.4050	17.6260
 0.4040	17.6710
 0.4030	17.6560
 0.4020	17.6860
 0.4010	17.6110
 0.4000	17.4730
