Name: Dacite
Type: Rock
Class: Intermediate
Subclass: Felsic
Particle Size: Solid
Sample No.: AP-960-157b
Owner: United States Geological Survey, L. C. Rowan
Wavelength Range: All
Origin: Iberian Pyrite Belt, Spain
Collection Date: N/A
Description: Dacite, chloriticSample was Whole Rock Chips. Original ASTER Spectral Library name was usgs.perknic.rock.igneous.felsic.solid.dac157b.spectrum.txt
Measurement: Directional Hemispherical Reflectance
First Column: X
Second Column: Y
X Units: Wavelength (micrometers)
Y Units:Reflectance (percent)
First X Value: 14.0510
Last X Value:  0.4050
Number of X Values: 2530
Additional Information: rock.intermediate.felsic.solid.all.ap-960-157b.usgs.perknic.ancillary.txt

14.0510	 1.7098
14.0130	 1.6377
13.9750	 1.9261
13.9380	 1.9776
13.9000	 2.1424
13.8630	 2.0394
13.8260	 2.0703
13.7900	 1.9467
13.7530	 1.9158
13.7170	 1.9158
13.6800	 2.1012
13.6440	 2.0806
13.6090	 2.0703
13.5730	 2.0188
13.5380	 2.0703
13.5020	 2.0909
13.4670	 2.2351
13.4320	 2.2454
13.3980	 2.2763
13.3630	 2.1836
13.3290	 2.1939
13.2950	 2.1939
13.2610	 2.3484
13.2270	 2.3175
13.1930	 2.3278
13.1600	 2.3381
13.1260	 2.4102
13.0930	 2.3690
13.0600	 2.5132
13.0270	 2.5338
12.9950	 2.4823
12.9620	 2.4205
12.9300	 2.5029
12.8980	 2.5132
12.8660	 2.7295
12.8340	 2.8428
12.8020	 2.9149
12.7710	 2.8119
12.7390	 2.6677
12.7080	 2.5956
12.6770	 2.5338
12.6460	 2.4308
12.6160	 2.5544
12.5850	 2.5647
12.5540	 2.6162
12.5240	 2.6162
12.4940	 2.6883
12.4640	 2.5853
12.4340	 2.5235
12.4040	 2.3896
12.3750	 2.2763
12.3450	 2.0703
12.3160	 2.0188
12.2870	 1.9982
12.2580	 1.9982
12.2290	 2.0394
12.2000	 2.1424
12.1710	 2.1424
12.1430	 2.1630
12.1150	 2.1836
12.0860	 2.3690
12.0580	 2.4308
12.0300	 2.4102
12.0020	 2.3072
11.9750	 2.3690
11.9470	 2.3587
11.9200	 2.4823
11.8920	 2.5235
11.8650	 2.5029
11.8380	 2.4823
11.8110	 2.5956
11.7840	 2.5956
11.7570	 2.7089
11.7310	 2.6574
11.7040	 2.5853
11.6780	 2.6677
11.6520	 2.7810
11.6260	 2.6677
11.6000	 2.6780
11.5740	 2.6780
11.5480	 2.7501
11.5220	 2.8840
11.4970	 3.0179
11.4710	 2.8737
11.4460	 2.8634
11.4210	 2.8943
11.3960	 2.9767
11.3710	 2.9561
11.3460	 3.0488
11.3210	 3.0797
11.2970	 3.0694
11.2720	 2.9767
11.2480	 2.9870
11.2230	 3.0385
11.1990	 3.0179
11.1750	 2.9870
11.1510	 3.0385
11.1270	 3.0282
11.1030	 3.1415
11.0790	 3.1209
11.0560	 3.1209
11.0320	 3.1518
11.0090	 3.2239
10.9850	 3.1209
10.9620	 3.2033
10.9390	 3.3372
10.9160	 3.3887
10.8930	 3.2754
10.8700	 3.2548
10.8480	 3.1621
10.8250	 3.1415
10.8020	 3.1827
10.7800	 3.3166
10.7580	 3.3681
10.7350	 3.3578
10.7130	 3.3372
10.6910	 3.4505
10.6690	 3.4608
10.6470	 3.4711
10.6250	 3.4814
10.6040	 3.5020
10.5820	 3.4711
10.5600	 3.5329
10.5390	 3.5741
10.5180	 3.6153
10.4960	 3.5947
10.4750	 3.6462
10.4540	 3.6565
10.4330	 3.6668
10.4120	 3.6874
10.3910	 3.8110
10.3700	 3.7698
10.3500	 3.7389
10.3290	 3.7183
10.3090	 3.8007
10.2880	 3.8522
10.2680	 3.9140
10.2470	 3.9552
10.2270	 4.0170
10.2070	 4.0067
10.1870	 4.0479
10.1670	 4.0685
10.1470	 4.1303
10.1270	 4.2024
10.1080	 4.2848
10.0880	 4.3054
10.0680	 4.3775
10.0490	 4.4290
10.0290	 4.4908
10.0100	 4.4084
 9.9910	 4.4599
 9.9720	 4.4908
 9.9520	 4.5526
 9.9330	 4.5526
 9.9140	 4.5938
 9.8950	 4.6144
 9.8770	 4.6865
 9.8580	 4.6350
 9.8390	 4.6144
 9.8210	 4.5938
 9.8020	 4.5423
 9.7830	 4.5526
 9.7650	 4.7998
 9.7470	 4.9131
 9.7280	 4.9440
 9.7100	 4.9234
 9.6920	 5.0161
 9.6740	 5.0779
 9.6560	 5.1294
 9.6380	 5.0779
 9.6200	 5.2015
 9.6020	 5.2530
 9.5850	 5.2221
 9.5670	 5.1809
 9.5490	 5.1912
 9.5320	 5.0985
 9.5140	 5.0882
 9.4970	 5.0573
 9.4790	 5.1603
 9.4620	 5.2221
 9.4450	 5.2736
 9.4280	 5.3457
 9.4110	 5.4796
 9.3940	 5.6650
 9.3770	 5.8710
 9.3600	 5.9328
 9.3430	 6.1182
 9.3260	 6.2006
 9.3090	 6.2624
 9.2930	 6.2933
 9.2760	 6.3654
 9.2590	 6.2315
 9.2430	 6.0667
 9.2260	 6.0358
 9.2100	 6.1594
 9.1940	 6.0976
 9.1780	 6.0873
 9.1610	 6.0873
 9.1450	 6.0255
 9.1290	 5.8916
 9.1130	 5.8298
 9.0970	 5.7371
 9.0810	 5.8092
 9.0650	 5.7680
 9.0490	 5.6959
 9.0340	 5.6032
 9.0180	 5.6032
 9.0020	 5.5826
 8.9870	 5.5929
 8.9710	 5.5105
 8.9560	 5.5002
 8.9400	 5.4281
 8.9250	 5.4075
 8.9090	 5.3766
 8.8940	 5.4384
 8.8790	 5.4899
 8.8640	 5.5517
 8.8490	 5.4487
 8.8340	 5.3457
 8.8190	 5.3045
 8.8040	 5.3560
 8.7890	 5.2942
 8.7740	 5.2015
 8.7590	 5.1294
 8.7440	 5.2015
 8.7300	 5.1191
 8.7150	 5.0264
 8.7000	 4.9440
 8.6860	 4.8616
 8.6710	 4.6762
 8.6570	 4.5320
 8.6420	 4.3363
 8.6280	 4.0994
 8.6140	 3.9861
 8.5990	 4.1612
 8.5850	 4.3569
 8.5710	 4.5835
 8.5570	 4.7174
 8.5430	 4.7689
 8.5290	 4.7483
 8.5150	 4.8513
 8.5010	 4.9646
 8.4870	 4.9955
 8.4730	 4.9646
 8.4590	 5.0985
 8.4450	 5.1397
 8.4310	 5.1088
 8.4180	 5.0367
 8.4040	 5.0985
 8.3910	 5.1397
 8.3770	 5.1809
 8.3630	 5.1500
 8.3500	 5.1191
 8.3370	 5.0985
 8.3230	 5.1603
 8.3100	 5.0985
 8.2970	 5.0882
 8.2830	 5.1397
 8.2700	 5.2221
 8.2570	 5.2221
 8.2440	 5.2633
 8.2310	 5.2633
 8.2180	 5.3045
 8.2050	 5.2530
 8.1920	 5.1706
 8.1790	 5.1191
 8.1660	 5.0367
 8.1530	 4.8719
 8.1400	 4.6865
 8.1280	 4.4908
 8.1150	 4.3878
 8.1020	 4.2024
 8.0900	 3.9861
 8.0770	 3.8007
 8.0640	 3.6874
 8.0520	 3.5123
 8.0390	 3.4196
 8.0270	 3.2548
 8.0150	 3.1518
 8.0020	 3.0488
 7.9900	 2.9973
 7.9780	 2.8737
 7.9650	 2.7707
 7.9530	 2.6883
 7.9410	 2.5956
 7.9290	 2.5029
 7.9170	 2.5029
 7.9050	 2.4102
 7.8930	 2.3175
 7.8810	 2.2454
 7.8690	 2.2557
 7.8570	 2.1939
 7.8450	 2.1527
 7.8330	 2.1424
 7.8210	 2.1321
 7.8090	 2.0394
 7.7980	 1.9982
 7.7860	 1.9673
 7.7740	 1.9467
 7.7630	 1.9879
 7.7510	 2.0909
 7.7390	 2.0394
 7.7280	 1.9570
 7.7160	 1.8849
 7.7050	 1.9261
 7.6940	 1.9467
 7.6820	 1.9467
 7.6710	 1.9261
 7.6590	 1.9158
 7.6480	 1.8437
 7.6370	 1.8437
 7.6260	 1.8128
 7.6140	 1.7819
 7.6030	 1.7098
 7.5920	 1.6995
 7.5810	 1.7201
 7.5700	 1.7922
 7.5590	 1.8025
 7.5480	 1.8128
 7.5370	 1.7613
 7.5260	 1.7613
 7.5150	 1.8128
 7.5040	 1.8437
 7.4930	 1.7716
 7.4830	 1.7510
 7.4720	 1.7304
 7.4610	 1.7613
 7.4500	 1.6995
 7.4400	 1.7304
 7.4290	 1.7510
 7.4180	 1.6892
 7.4080	 1.6583
 7.3970	 1.7201
 7.3870	 1.6789
 7.3760	 1.6377
 7.3660	 1.6377
 7.3550	 1.6480
 7.3450	 1.6892
 7.3340	 1.7407
 7.3240	 1.6789
 7.3140	 1.6480
 7.3030	 1.6583
 7.2930	 1.6892
 7.2830	 1.5759
 7.2730	 1.5244
 7.2630	 1.5347
 7.2520	 1.6068
 7.2420	 1.5965
 7.2320	 1.5656
 7.2220	 1.5553
 7.2120	 1.6068
 7.2020	 1.6789
 7.1920	 1.7510
 7.1820	 1.6892
 7.1720	 1.6274
 7.1620	 1.6583
 7.1520	 1.6995
 7.1430	 1.6789
 7.1330	 1.7098
 7.1230	 1.6789
 7.1130	 1.6789
 7.1030	 1.5965
 7.0940	 1.5965
 7.0840	 1.5759
 7.0740	 1.6583
 7.0650	 1.7613
 7.0550	 1.8025
 7.0460	 1.7407
 7.0360	 1.6789
 7.0260	 1.5965
 7.0170	 1.5862
 7.0070	 1.6068
 6.9980	 1.6480
 6.9890	 1.6583
 6.9790	 1.6583
 6.9700	 1.6274
 6.9600	 1.6274
 6.9510	 1.6480
 6.9420	 1.6892
 6.9320	 1.6995
 6.9230	 1.6892
 6.9140	 1.6583
 6.9050	 1.6480
 6.8960	 1.6377
 6.8860	 1.6583
 6.8770	 1.6789
 6.8680	 1.7201
 6.8590	 1.6995
 6.8500	 1.6892
 6.8410	 1.7201
 6.8320	 1.7819
 6.8230	 1.7510
 6.8140	 1.7407
 6.8050	 1.6892
 6.7960	 1.7201
 6.7870	 1.7510
 6.7780	 1.8231
 6.7700	 1.8025
 6.7610	 1.8334
 6.7520	 1.8643
 6.7430	 1.9158
 6.7340	 1.9055
 6.7260	 1.9570
 6.7170	 1.9982
 6.7080	 2.0085
 6.7000	 2.0188
 6.6910	 2.0394
 6.6820	 1.9879
 6.6740	 2.0291
 6.6650	 2.0394
 6.6570	 2.0703
 6.6480	 2.0703
 6.6400	 2.0703
 6.6310	 2.0703
 6.6230	 2.0497
 6.6140	 2.0085
 6.6060	 2.0497
 6.5970	 2.0497
 6.5890	 2.0291
 6.5810	 1.9982
 6.5720	 2.0291
 6.5640	 2.0909
 6.5560	 2.0806
 6.5470	 1.9673
 6.5390	 1.9673
 6.5310	 1.9467
 6.5230	 1.9364
 6.5140	 1.9364
 6.5060	 1.9570
 6.4980	 1.9673
 6.4900	 1.9776
 6.4820	 1.9673
 6.4740	 1.9879
 6.4660	 1.9879
 6.4580	 2.0085
 6.4500	 2.0394
 6.4420	 2.0600
 6.4340	 2.0600
 6.4260	 2.0497
 6.4180	 2.0188
 6.4100	 2.0291
 6.4020	 1.9982
 6.3940	 2.0085
 6.3860	 2.0497
 6.3780	 2.0909
 6.3700	 2.0600
 6.3630	 2.0188
 6.3550	 2.0188
 6.3470	 2.0291
 6.3390	 2.0085
 6.3320	 2.0497
 6.3240	 2.0806
 6.3160	 2.1012
 6.3080	 2.0703
 6.3010	 2.0394
 6.2930	 2.0291
 6.2860	 2.0600
 6.2780	 2.0188
 6.2700	 2.0188
 6.2630	 2.0291
 6.2550	 2.0291
 6.2480	 1.9879
 6.2400	 1.9364
 6.2330	 1.8952
 6.2250	 1.9158
 6.2180	 1.9673
 6.2100	 1.9776
 6.2030	 1.9055
 6.1950	 1.8540
 6.1880	 1.8334
 6.1810	 1.7819
 6.1730	 1.6789
 6.1660	 1.6686
 6.1590	 1.6995
 6.1510	 1.7613
 6.1440	 1.7716
 6.1370	 1.7510
 6.1300	 1.6789
 6.1220	 1.6892
 6.1150	 1.7098
 6.1080	 1.7510
 6.1010	 1.7510
 6.0940	 1.7510
 6.0860	 1.7407
 6.0790	 1.6995
 6.0720	 1.6686
 6.0650	 1.7201
 6.0580	 1.7819
 6.0510	 1.7922
 6.0440	 1.7510
 6.0370	 1.7407
 6.0300	 1.7510
 6.0230	 1.7304
 6.0160	 1.7098
 6.0090	 1.6789
 6.0020	 1.6686
 5.9950	 1.7407
 5.9880	 1.7510
 5.9810	 1.7613
 5.9740	 1.7819
 5.9670	 1.8231
 5.9600	 1.8334
 5.9540	 1.8746
 5.9470	 1.9261
 5.9400	 1.9776
 5.9330	 1.9673
 5.9260	 1.9570
 5.9200	 1.9673
 5.9130	 2.0394
 5.9060	 2.0188
 5.8990	 2.0394
 5.8930	 2.1321
 5.8860	 2.1939
 5.8790	 2.2248
 5.8730	 2.3072
 5.8660	 2.3690
 5.8590	 2.3793
 5.8530	 2.3587
 5.8460	 2.3999
 5.8400	 2.4411
 5.8330	 2.4823
 5.8270	 2.5132
 5.8200	 2.5029
 5.8130	 2.4926
 5.8070	 2.5338
 5.8000	 2.5338
 5.7940	 2.5647
 5.7880	 2.5956
 5.7810	 2.6677
 5.7750	 2.7501
 5.7680	 2.7707
 5.7620	 2.8016
 5.7550	 2.8737
 5.7490	 2.8943
 5.7430	 2.9355
 5.7360	 2.9458
 5.7300	 2.9973
 5.7240	 3.1106
 5.7170	 3.2548
 5.7110	 3.3269
 5.7050	 3.3990
 5.6980	 3.5226
 5.6920	 3.6462
 5.6860	 3.7492
 5.6800	 3.9037
 5.6740	 4.0376
 5.6670	 4.0891
 5.6610	 4.1303
 5.6550	 4.2333
 5.6490	 4.3260
 5.6430	 4.3878
 5.6370	 4.4496
 5.6300	 4.5217
 5.6240	 4.5526
 5.6180	 4.6041
 5.6120	 4.6453
 5.6060	 4.6865
 5.6000	 4.7689
 5.5940	 4.8410
 5.5880	 4.8307
 5.5820	 4.8204
 5.5760	 4.8822
 5.5700	 5.0367
 5.5640	 5.1294
 5.5580	 5.2015
 5.5520	 5.2839
 5.5460	 5.3457
 5.5400	 5.4075
 5.5340	 5.4796
 5.5280	 5.5311
 5.5230	 5.5723
 5.5170	 5.6238
 5.5110	 5.6753
 5.5050	 5.7680
 5.4990	 5.8504
 5.4930	 5.8813
 5.4870	 5.9328
 5.4820	 6.0049
 5.4760	 6.1285
 5.4700	 6.1903
 5.4640	 6.1800
 5.4590	 6.1491
 5.4530	 6.2109
 5.4470	 6.2933
 5.4410	 6.3345
 5.4360	 6.3139
 5.4300	 6.3345
 5.4240	 6.3654
 5.4190	 6.3551
 5.4130	 6.3139
 5.4070	 6.2933
 5.4020	 6.3036
 5.3960	 6.3139
 5.3900	 6.2521
 5.3850	 6.2109
 5.3790	 6.1903
 5.3740	 6.1388
 5.3680	 6.1594
 5.3630	 6.1800
 5.3570	 6.1491
 5.3520	 6.1491
 5.3460	 6.1594
 5.3410	 6.1903
 5.3350	 6.2315
 5.3300	 6.2727
 5.3240	 6.2521
 5.3190	 6.2212
 5.3130	 6.2212
 5.3080	 6.2624
 5.3020	 6.2933
 5.2970	 6.3242
 5.2910	 6.3036
 5.2860	 6.3036
 5.2810	 6.3551
 5.2750	 6.4272
 5.2700	 6.4478
 5.2650	 6.4890
 5.2590	 6.4890
 5.2540	 6.5405
 5.2490	 6.5920
 5.2430	 6.6126
 5.2380	 6.6435
 5.2330	 6.7259
 5.2270	 6.8186
 5.2220	 6.9319
 5.2170	 6.9525
 5.2120	 6.9319
 5.2060	 6.9628
 5.2010	 6.9628
 5.1960	 6.9525
 5.1910	 6.9319
 5.1860	 6.9010
 5.1800	 6.9422
 5.1750	 7.0143
 5.1700	 7.0246
 5.1650	 7.0040
 5.1600	 6.9937
 5.1550	 6.9937
 5.1500	 6.9731
 5.1450	 6.9628
 5.1390	 6.9834
 5.1340	 6.9937
 5.1290	 6.9731
 5.1240	 6.9113
 5.1190	 6.8907
 5.1140	 6.9010
 5.1090	 6.9113
 5.1040	 6.9216
 5.0990	 6.9628
 5.0940	 6.9731
 5.0890	 6.9422
 5.0840	 6.9010
 5.0790	 6.9525
 5.0740	 6.9422
 5.0690	 6.8907
 5.0640	 6.8907
 5.0590	 6.9422
 5.0540	 6.9113
 5.0490	 6.8186
 5.0440	 6.8083
 5.0400	 6.9216
 5.0350	 6.9525
 5.0300	 6.9216
 5.0250	 6.8701
 5.0200	 6.8701
 5.0150	 6.9010
 5.0100	 6.9216
 5.0050	 6.9422
 5.0010	 6.9216
 4.9960	 6.8907
 4.9910	 6.9422
 4.9860	 6.9731
 4.9810	 6.9937
 4.9770	 6.9731
 4.9720	 6.9937
 4.9670	 7.0452
 4.9620	 7.0658
 4.9580	 7.0864
 4.9530	 7.1482
 4.9480	 7.1585
 4.9430	 7.1482
 4.9390	 7.1688
 4.9340	 7.1894
 4.9290	 7.2203
 4.9250	 7.2203
 4.9200	 7.1997
 4.9150	 7.2203
 4.9110	 7.2306
 4.9060	 7.2821
 4.9010	 7.3851
 4.8970	 7.4675
 4.8920	 7.4984
 4.8880	 7.5396
 4.8830	 7.5705
 4.8780	 7.6323
 4.8740	 7.7250
 4.8690	 7.7250
 4.8650	 7.7250
 4.8600	 7.7868
 4.8560	 7.8280
 4.8510	 7.8280
 4.8460	 7.7971
 4.8420	 7.8486
 4.8370	 7.9619
 4.8330	 8.0237
 4.8280	 7.9928
 4.8240	 8.0031
 4.8190	 8.1164
 4.8150	 8.1679
 4.8100	 8.1370
 4.8060	 8.1370
 4.8020	 8.1370
 4.7970	 8.1576
 4.7930	 8.1988
 4.7880	 8.1885
 4.7840	 8.2194
 4.7790	 8.2297
 4.7750	 8.2091
 4.7710	 8.2606
 4.7660	 8.3018
 4.7620	 8.3018
 4.7580	 8.2812
 4.7530	 8.2812
 4.7490	 8.4151
 4.7440	 8.5284
 4.7400	 8.5799
 4.7360	 8.5799
 4.7310	 8.5696
 4.7270	 8.5696
 4.7230	 8.5902
 4.7190	 8.5902
 4.7140	 8.5593
 4.7100	 8.5181
 4.7060	 8.5387
 4.7010	 8.6211
 4.6970	 8.6314
 4.6930	 8.5902
 4.6890	 8.6005
 4.6840	 8.5902
 4.6800	 8.5799
 4.6760	 8.5902
 4.6720	 8.6417
 4.6680	 8.6623
 4.6630	 8.6932
 4.6590	 8.7550
 4.6550	 8.7962
 4.6510	 8.8168
 4.6470	 8.8786
 4.6430	 8.9198
 4.6380	 8.9301
 4.6340	 8.9713
 4.6300	 9.0537
 4.6260	 9.0640
 4.6220	 9.0949
 4.6180	 9.1052
 4.6140	 9.1155
 4.6100	 9.1670
 4.6050	 9.1567
 4.6010	 9.1464
 4.5970	 9.1773
 4.5930	 9.3009
 4.5890	 9.3524
 4.5850	 9.3627
 4.5810	 9.4348
 4.5770	 9.4760
 4.5730	 9.4554
 4.5690	 9.4451
 4.5650	 9.5069
 4.5610	 9.5275
 4.5570	 9.4554
 4.5530	 9.4451
 4.5490	 9.5069
 4.5450	 9.5275
 4.5410	 9.5275
 4.5370	 9.5275
 4.5330	 9.5687
 4.5290	 9.6099
 4.5250	 9.6408
 4.5210	 9.5996
 4.5170	 9.5378
 4.5130	 9.5069
 4.5090	 9.5378
 4.5050	 9.5069
 4.5020	 9.4966
 4.4980	 9.5172
 4.4940	 9.5069
 4.4900	 9.5069
 4.4860	 9.4966
 4.4820	 9.4657
 4.4780	 9.4348
 4.4740	 9.4554
 4.4700	 9.4966
 4.4670	 9.4863
 4.4630	 9.5275
 4.4590	 9.5481
 4.4550	 9.5790
 4.4510	 9.6408
 4.4470	 9.7129
 4.4440	 9.8159
 4.4400	 9.8674
 4.4360	 9.8983
 4.4320	 9.8468
 4.4280	 9.8365
 4.4250	 9.9395
 4.4210	10.0631
 4.4170	10.0837
 4.4130	10.0631
 4.4100	10.1146
 4.4060	10.2073
 4.4020	10.3103
 4.3980	10.4030
 4.3950	10.4339
 4.3910	10.4442
 4.3870	10.4648
 4.3840	10.4854
 4.3800	10.4957
 4.3760	10.5266
 4.3720	10.6399
 4.3690	10.7017
 4.3650	10.7017
 4.3610	10.7326
 4.3580	10.7841
 4.3540	10.8047
 4.3500	10.8150
 4.3470	10.7841
 4.3430	10.7738
 4.3400	10.7738
 4.3360	10.8356
 4.3320	10.9180
 4.3290	10.9180
 4.3250	10.8871
 4.3210	10.8665
 4.3180	10.8562
 4.3140	10.8665
 4.3110	10.8871
 4.3070	10.9180
 4.3040	10.8871
 4.3000	10.8974
 4.2960	10.8562
 4.2930	10.8665
 4.2890	10.9077
 4.2860	10.8768
 4.2820	10.8871
 4.2790	10.8665
 4.2750	10.8974
 4.2720	10.9695
 4.2680	10.9283
 4.2650	10.8974
 4.2610	10.8768
 4.2580	10.8665
 4.2540	10.8665
 4.2510	10.8974
 4.2470	10.9180
 4.2440	10.8768
 4.2400	10.8356
 4.2370	10.9695
 4.2330	11.0416
 4.2300	10.9901
 4.2260	10.9180
 4.2230	10.8562
 4.2190	10.7841
 4.2160	10.7429
 4.2130	10.6296
 4.2090	10.6811
 4.2060	10.7120
 4.2020	10.6193
 4.1990	10.6193
 4.1960	10.6399
 4.1920	10.6605
 4.1890	10.7120
 4.1850	10.6811
 4.1820	10.5678
 4.1790	10.4854
 4.1750	10.5575
 4.1720	10.6296
 4.1690	10.5884
 4.1650	10.5163
 4.1620	10.5369
 4.1590	10.5060
 4.1550	10.4854
 4.1520	10.4854
 4.1490	10.4339
 4.1450	10.4030
 4.1420	10.3721
 4.1390	10.3824
 4.1350	10.4442
 4.1320	10.3824
 4.1290	10.3412
 4.1260	10.3206
 4.1220	10.2897
 4.1190	10.2382
 4.1160	10.2588
 4.1120	10.3000
 4.1090	10.2176
 4.1060	10.1146
 4.1030	10.1043
 4.0990	10.1249
 4.0960	10.1249
 4.0930	10.0940
 4.0900	10.1249
 4.0860	10.0528
 4.0830	 9.9910
 4.0800	 9.9601
 4.0770	 9.8983
 4.0740	 9.8880
 4.0700	 9.9086
 4.0670	 9.8880
 4.0640	 9.9086
 4.0610	 9.9704
 4.0580	 9.8880
 4.0550	 9.8365
 4.0510	 9.7541
 4.0480	 9.6717
 4.0450	 9.6717
 4.0420	 9.6099
 4.0390	 9.6511
 4.0360	 9.7335
 4.0320	 9.6511
 4.0290	 9.5584
 4.0260	 9.5584
 4.0230	 9.5481
 4.0200	 9.5481
 4.0170	 9.5481
 4.0140	 9.5069
 4.0110	 9.4451
 4.0080	 9.4142
 4.0040	 9.3112
 4.0010	 9.3524
 3.9980	 9.3318
 3.9950	 9.3318
 3.9920	 9.3833
 3.9890	 9.4039
 3.9860	 9.3627
 3.9830	 9.2700
 3.9800	 9.3112
 3.9770	 9.3730
 3.9740	 9.2700
 3.9710	 9.2082
 3.9680	 9.1361
 3.9650	 9.1876
 3.9620	 9.2803
 3.9590	 9.2494
 3.9560	 9.1258
 3.9530	 9.0949
 3.9500	 9.1155
 3.9470	 9.1773
 3.9440	 9.2288
 3.9410	 9.1876
 3.9380	 9.0846
 3.9350	 9.0949
 3.9320	 9.0434
 3.9290	 9.0743
 3.9260	 9.1464
 3.9230	 9.1670
 3.9200	 9.0949
 3.9170	 8.9507
 3.9140	 8.9095
 3.9110	 9.0434
 3.9080	 9.0846
 3.9050	 9.0743
 3.9020	 9.0228
 3.8990	 8.9404
 3.8960	 8.8683
 3.8930	 8.8683
 3.8900	 8.8477
 3.8870	 8.8168
 3.8840	 8.8065
 3.8820	 8.8065
 3.8790	 8.7962
 3.8760	 8.8168
 3.8730	 8.8168
 3.8700	 8.7962
 3.8670	 8.7653
 3.8640	 8.7447
 3.8610	 8.6829
 3.8580	 8.6520
 3.8560	 8.6211
 3.8530	 8.5902
 3.8500	 8.5490
 3.8470	 8.5284
 3.8440	 8.4357
 3.8410	 8.4254
 3.8380	 8.4563
 3.8360	 8.4563
 3.8330	 8.3842
 3.8300	 8.3636
 3.8270	 8.3842
 3.8240	 8.3533
 3.8220	 8.3327
 3.8190	 8.2709
 3.8160	 8.1679
 3.8130	 8.2091
 3.8100	 8.1473
 3.8070	 8.0546
 3.8050	 7.9619
 3.8020	 7.9825
 3.7990	 8.0340
 3.7960	 8.0752
 3.7940	 8.0546
 3.7910	 7.9928
 3.7880	 7.9207
 3.7850	 7.9001
 3.7820	 7.8486
 3.7800	 7.7765
 3.7770	 7.7456
 3.7740	 7.8177
 3.7710	 7.8074
 3.7690	 7.7559
 3.7660	 7.6426
 3.7630	 7.5602
 3.7610	 7.4881
 3.7580	 7.5190
 3.7550	 7.5602
 3.7520	 7.5911
 3.7500	 7.5293
 3.7470	 7.5190
 3.7440	 7.5396
 3.7420	 7.4778
 3.7390	 7.3027
 3.7360	 7.2718
 3.7330	 7.2718
 3.7310	 7.3027
 3.7280	 7.2924
 3.7250	 7.2615
 3.7230	 7.1379
 3.7200	 7.1173
 3.7170	 7.0864
 3.7150	 7.2409
 3.7120	 7.2100
 3.7090	 7.0452
 3.7070	 7.0349
 3.7040	 7.0864
 3.7020	 7.0040
 3.6990	 6.9422
 3.6960	 6.9319
 3.6940	 6.9834
 3.6910	 7.0452
 3.6880	 7.0143
 3.6860	 6.8495
 3.6830	 6.7362
 3.6800	 6.8083
 3.6780	 6.8392
 3.6750	 6.7259
 3.6730	 6.7053
 3.6700	 6.8083
 3.6670	 6.8186
 3.6650	 6.7156
 3.6620	 6.6538
 3.6600	 6.4684
 3.6570	 6.4581
 3.6550	 6.4684
 3.6520	 6.4993
 3.6490	 6.5920
 3.6470	 6.6126
 3.6440	 6.4581
 3.6420	 6.3860
 3.6390	 6.4066
 3.6370	 6.3757
 3.6340	 6.3345
 3.6320	 6.3551
 3.6290	 6.3860
 3.6260	 6.3448
 3.6240	 6.2418
 3.6210	 6.3139
 3.6190	 6.3139
 3.6160	 6.2933
 3.6140	 6.2624
 3.6110	 6.2006
 3.6090	 6.0873
 3.6060	 6.0667
 3.6040	 6.0461
 3.6010	 6.1182
 3.5990	 6.0976
 3.5960	 6.0461
 3.5940	 5.8916
 3.5910	 5.8504
 3.5890	 5.9431
 3.5860	 6.0667
 3.5840	 5.9534
 3.5810	 5.8607
 3.5790	 5.8607
 3.5760	 5.7680
 3.5740	 5.7165
 3.5710	 5.7371
 3.5690	 5.7165
 3.5670	 5.6959
 3.5640	 5.6032
 3.5620	 5.5620
 3.5590	 5.5105
 3.5570	 5.5517
 3.5540	 5.5311
 3.5520	 5.5002
 3.5490	 5.4384
 3.5470	 5.4178
 3.5450	 5.3457
 3.5420	 5.2736
 3.5400	 5.2118
 3.5370	 5.2221
 3.5350	 5.1500
 3.5330	 5.1088
 3.5300	 5.1191
 3.5280	 5.0367
 3.5250	 4.9749
 3.5230	 5.0367
 3.5210	 4.9337
 3.5180	 4.7895
 3.5160	 4.7380
 3.5130	 4.7586
 3.5110	 4.6968
 3.5090	 4.5629
 3.5060	 4.4187
 3.5040	 4.3981
 3.5020	 4.3775
 3.4990	 4.4187
 3.4970	 4.4187
 3.4940	 4.4084
 3.4920	 4.3466
 3.4900	 4.3054
 3.4870	 4.3157
 3.4850	 4.3466
 3.4830	 4.1921
 3.4800	 4.0170
 3.4780	 4.0376
 3.4760	 4.1509
 3.4730	 4.1303
 3.4710	 4.0273
 3.4690	 3.9037
 3.4660	 3.9140
 3.4640	 3.9037
 3.4620	 3.8934
 3.4600	 3.8831
 3.4570	 3.9346
 3.4550	 3.9449
 3.4530	 3.8831
 3.4500	 3.8316
 3.4480	 3.8522
 3.4460	 3.8728
 3.4430	 3.8007
 3.4410	 3.7080
 3.4390	 3.8007
 3.4370	 3.7389
 3.4340	 3.6977
 3.4320	 3.7389
 3.4300	 3.6874
 3.4280	 3.5432
 3.4250	 3.5535
 3.4230	 3.5638
 3.4210	 3.5329
 3.4180	 3.4299
 3.4160	 3.4711
 3.4140	 3.5226
 3.4120	 3.5947
 3.4090	 3.5947
 3.4070	 3.5535
 3.4050	 3.6359
 3.4030	 3.6771
 3.4010	 3.5638
 3.3980	 3.5638
 3.3960	 3.5432
 3.3940	 3.5535
 3.3920	 3.5123
 3.3890	 3.5741
 3.3870	 3.6153
 3.3850	 3.6359
 3.3830	 3.6874
 3.3810	 3.6874
 3.3780	 3.6874
 3.3760	 3.6874
 3.3740	 3.6153
 3.3720	 3.7492
 3.3700	 3.8110
 3.3670	 3.8625
 3.3650	 3.8625
 3.3630	 3.8522
 3.3610	 3.8110
 3.3590	 3.8316
 3.3570	 3.8831
 3.3540	 4.0067
 3.3520	 4.0273
 3.3500	 3.9655
 3.3480	 3.8934
 3.3460	 3.9449
 3.3440	 4.0994
 3.3410	 4.3054
 3.3390	 4.3363
 3.3370	 4.2745
 3.3350	 4.1509
 3.3330	 4.0891
 3.3310	 4.0582
 3.3290	 4.1200
 3.3260	 4.2127
 3.3240	 4.2436
 3.3220	 4.1097
 3.3200	 3.9449
 3.3180	 3.9037
 3.3160	 3.9861
 3.3140	 4.0685
 3.3120	 3.9964
 3.3090	 3.9552
 3.3070	 4.1303
 3.3050	 4.1406
 3.3030	 3.9964
 3.3010	 3.8625
 3.2990	 3.8316
 3.2970	 3.7595
 3.2950	 3.7904
 3.2930	 3.8007
 3.2910	 3.7595
 3.2880	 3.7698
 3.2860	 3.7492
 3.2840	 3.7595
 3.2820	 3.7389
 3.2800	 3.7286
 3.2780	 3.7389
 3.2760	 3.7389
 3.2740	 3.7492
 3.2720	 3.7183
 3.2700	 3.6874
 3.2680	 3.5535
 3.2660	 3.5432
 3.2640	 3.5123
 3.2620	 3.4917
 3.2590	 3.5226
 3.2570	 3.5638
 3.2550	 3.5329
 3.2530	 3.6153
 3.2510	 3.5329
 3.2490	 3.4917
 3.2470	 3.5844
 3.2450	 3.5226
 3.2430	 3.3990
 3.2410	 3.3990
 3.2390	 3.4196
 3.2370	 3.2960
 3.2350	 3.2239
 3.2330	 3.3372
 3.2310	 3.2651
 3.2290	 3.2342
 3.2270	 3.2651
 3.2250	 3.3578
 3.2230	 3.3475
 3.2210	 3.3166
 3.2190	 3.1930
 3.2170	 3.1724
 3.2150	 3.1827
 3.2130	 3.1518
 3.2110	 3.0694
 3.2090	 3.1312
 3.2070	 3.1209
 3.2050	 3.0488
 3.2030	 3.0900
 3.2010	 3.1827
 3.1990	 3.0900
 3.1970	 3.0385
 3.1950	 3.0179
 3.1930	 2.9870
 3.1910	 2.9767
 3.1890	 3.0694
 3.1870	 3.1415
 3.1850	 3.0900
 3.1830	 2.9664
 3.1820	 2.9767
 3.1800	 2.9252
 3.1780	 2.9664
 3.1760	 2.9355
 3.1740	 2.9149
 3.1720	 2.9973
 3.1700	 3.0282
 3.1680	 2.9252
 3.1660	 2.9252
 3.1640	 2.9252
 3.1620	 2.9252
 3.1600	 2.8737
 3.1580	 2.8531
 3.1560	 2.7810
 3.1540	 2.7604
 3.1520	 2.7913
 3.1510	 2.8428
 3.1490	 2.8428
 3.1470	 2.8325
 3.1450	 2.7604
 3.1430	 2.8325
 3.1410	 2.8325
 3.1390	 2.7913
 3.1370	 2.6883
 3.1350	 2.7295
 3.1330	 2.5853
 3.1320	 2.5750
 3.1300	 2.7295
 3.1280	 2.7089
 3.1260	 2.6162
 3.1240	 2.6059
 3.1220	 2.5441
 3.1200	 2.5029
 3.1180	 2.4411
 3.1170	 2.3690
 3.1150	 2.3896
 3.1130	 2.5338
 3.1110	 2.5956
 3.1090	 2.5441
 3.1070	 2.5029
 3.1050	 2.5956
 3.1030	 2.5750
 3.1020	 2.4823
 3.1000	 2.4617
 3.0980	 2.4102
 3.0960	 2.3175
 3.0940	 2.3793
 3.0920	 2.4617
 3.0910	 2.4720
 3.0890	 2.3484
 3.0870	 2.3278
 3.0850	 2.3999
 3.0830	 2.2969
 3.0810	 2.2454
 3.0790	 2.3690
 3.0780	 2.3484
 3.0760	 2.4514
 3.0740	 2.4308
 3.0720	 2.3896
 3.0700	 2.3793
 3.0690	 2.3690
 3.0670	 2.3278
 3.0650	 2.3587
 3.0630	 2.2660
 3.0610	 2.3381
 3.0600	 2.4823
 3.0580	 2.4514
 3.0560	 2.3587
 3.0540	 2.2145
 3.0520	 2.1527
 3.0510	 2.2145
 3.0490	 2.1115
 3.0470	 2.2454
 3.0450	 2.3484
 3.0430	 2.3690
 3.0420	 2.3381
 3.0400	 2.4205
 3.0380	 2.3587
 3.0360	 2.2351
 3.0340	 2.1424
 3.0330	 2.1836
 3.0310	 2.1321
 3.0290	 2.2351
 3.0270	 2.3484
 3.0260	 2.4411
 3.0240	 2.5441
 3.0220	 2.4720
 3.0200	 2.2248
 3.0190	 2.1733
 3.0170	 2.1733
 3.0150	 2.1630
 3.0130	 2.1321
 3.0120	 2.2454
 3.0100	 2.2145
 3.0080	 2.1939
 3.0060	 1.9158
 3.0050	 1.9055
 3.0030	 2.0394
 3.0010	 2.0600
 2.9990	 2.0085
 2.9980	 2.1733
 2.9960	 2.2351
 2.9940	 2.1115
 2.9920	 2.1012
 2.9910	 2.0188
 2.9890	 1.9055
 2.9870	 1.9982
 2.9860	 1.8952
 2.9840	 1.9673
 2.9820	 2.1321
 2.9800	 2.1836
 2.9790	 2.1527
 2.9770	 2.0497
 2.9750	 2.0497
 2.9740	 2.1115
 2.9720	 2.1012
 2.9700	 2.1424
 2.9680	 2.0188
 2.9670	 1.8025
 2.9650	 1.8746
 2.9630	 2.0703
 2.9620	 1.9673
 2.9600	 2.0291
 2.9580	 2.0909
 2.9570	 2.1012
 2.9550	 2.1733
 2.9530	 2.1424
 2.9520	 1.9879
 2.9500	 1.9776
 2.9480	 2.0085
 2.9470	 2.1012
 2.9450	 1.9776
 2.9430	 1.8437
 2.9420	 1.9673
 2.9400	 1.9776
 2.9380	 1.8334
 2.9370	 2.1012
 2.9350	 2.2248
 2.9330	 2.1527
 2.9320	 2.1218
 2.9300	 2.0291
 2.9280	 1.8025
 2.9270	 1.8025
 2.9250	 1.8540
 2.9230	 1.9055
 2.9220	 2.0085
 2.9200	 2.0703
 2.9180	 1.9879
 2.9170	 2.0600
 2.9150	 2.1733
 2.9130	 2.1424
 2.9120	 2.0909
 2.9100	 2.1733
 2.9090	 2.0394
 2.9070	 2.0085
 2.9050	 2.1115
 2.9040	 2.1321
 2.9020	 2.0085
 2.9000	 2.1630
 2.8990	 2.0394
 2.8970	 1.9467
 2.8960	 1.9879
 2.8940	 1.9673
 2.8920	 1.9055
 2.8910	 1.9364
 2.8890	 1.9879
 2.8870	 2.0806
 2.8860	 2.1424
 2.8840	 2.1012
 2.8830	 2.0909
 2.8810	 2.2454
 2.8790	 2.2145
 2.8780	 2.1836
 2.8760	 1.9776
 2.8750	 2.0703
 2.8730	 2.1321
 2.8710	 2.1012
 2.8700	 2.1527
 2.8680	 2.3278
 2.8670	 2.2248
 2.8650	 2.1012
 2.8640	 2.1836
 2.8620	 2.4205
 2.8600	 2.4102
 2.8590	 2.4205
 2.8570	 2.2248
 2.8560	 2.1836
 2.8540	 2.2660
 2.8530	 2.2866
 2.8510	 2.1939
 2.8490	 2.2454
 2.8480	 2.3175
 2.8460	 2.2866
 2.8450	 2.3484
 2.8430	 2.3690
 2.8420	 2.2969
 2.8400	 2.2763
 2.8380	 1.9982
 2.8370	 2.1836
 2.8350	 2.6677
 2.8340	 2.6883
 2.8320	 2.3896
 2.8310	 2.3587
 2.8290	 2.4411
 2.8280	 2.5647
 2.8260	 2.4926
 2.8250	 2.5750
 2.8230	 2.6471
 2.8210	 2.6677
 2.8200	 2.6162
 2.8180	 2.5956
 2.8170	 2.5544
 2.8150	 2.6368
 2.8140	 2.5441
 2.8120	 2.6986
 2.8110	 2.9561
 2.8090	 3.1209
 2.8080	 3.0385
 2.8060	 2.9561
 2.8050	 2.6265
 2.8030	 2.6471
 2.8020	 2.7192
 2.8000	 2.7398
 2.7990	 2.9664
 2.7970	 3.1312
 2.7960	 3.0694
 2.7940	 3.0900
 2.7930	 3.0797
 2.7910	 3.1827
 2.7900	 3.2857
 2.7880	 3.1724
 2.7870	 3.2136
 2.7850	 3.5535
 2.7840	 3.4402
 2.7820	 3.2548
 2.7810	 3.1724
 2.7790	 3.4917
 2.7780	 3.6668
 2.7760	 3.6874
 2.7750	 3.6771
 2.7730	 3.8007
 2.7720	 3.9449
 2.7700	 4.0067
 2.7690	 3.8831
 2.7670	 3.9655
 2.7660	 4.1818
 2.7640	 4.0170
 2.7630	 3.9552
 2.7610	 4.0273
 2.7600	 3.9037
 2.7580	 3.9655
 2.7570	 4.1715
 2.7560	 4.3569
 2.7540	 4.3157
 2.7530	 4.5526
 2.7510	 4.7895
 2.7500	 4.9440
 2.7480	 5.0882
 2.7470	 5.0779
 2.7450	 4.9852
 2.7440	 5.2221
 2.7420	 5.4590
 2.7410	 5.6135
 2.7400	 5.7680
 2.7380	 5.7371
 2.7370	 5.8195
 2.7350	 5.9740
 2.7340	 5.9740
 2.7320	 6.3036
 2.7310	 6.5405
 2.7290	 6.7980
 2.7280	 6.9731
 2.7270	 7.1791
 2.7250	 7.1276
 2.7240	 7.3645
 2.7220	 7.6941
 2.7210	 7.9619
 2.7190	 8.0443
 2.7180	 8.4975
 2.7170	 8.5387
 2.7150	 8.5387
 2.7140	 8.5593
 2.7120	 8.5387
 2.7110	 8.3121
 2.7090	 8.0134
 2.7080	 8.0340
 2.7070	 7.9310
 2.7050	 7.8589
 2.7040	 8.1576
 2.7020	 8.3636
 2.7010	 8.7344
 2.7000	 9.1773
 2.6980	 9.7953
 2.6970	10.3206
 2.6950	10.9077
 2.6940	11.4742
 2.6930	12.1231
 2.6910	12.6690
 2.6900	13.2767
 2.6880	13.9977
 2.6870	14.8217
 2.6860	15.2028
 2.6840	15.3573
 2.6830	15.8208
 2.6810	16.2843
 2.6800	16.6139
 2.6790	16.8714
 2.6770	16.9744
 2.6760	17.3658
 2.6750	17.7572
 2.6730	18.0559
 2.6720	18.0250
 2.6700	18.1692
 2.6690	18.2104
 2.6680	18.3443
 2.6660	18.4267
 2.6650	18.7769
 2.6640	19.0756
 2.6620	19.2713
 2.6610	19.3949
 2.6590	19.5391
 2.6580	19.5803
 2.6570	19.9717
 2.6550	20.0644
 2.6540	20.0129
 2.6530	20.0026
 2.6510	20.1880
 2.6500	20.3631
 2.6490	20.6721
 2.6470	20.5382
 2.6460	20.3837
 2.6450	20.2498
 2.6430	20.6000
 2.6420	20.8884
 2.6400	20.9296
 2.6390	20.9605
 2.6380	21.1974
 2.6360	21.2592
 2.6350	21.0635
 2.6340	20.7545
 2.6320	20.9296
 2.6310	21.1562
 2.6300	21.0841
 2.6280	21.3622
 2.6270	21.8154
 2.6260	21.7124
 2.6240	21.4858
 2.6230	21.5167
 2.6220	21.6197
 2.6200	21.4137
 2.6190	21.4652
 2.6180	21.3622
 2.6170	21.6094
 2.6150	22.0008
 2.6140	21.9699
 2.6130	21.9699
 2.6110	22.0214
 2.6100	21.8669
 2.6090	21.8669
 2.6070	21.7433
 2.6060	21.9699
 2.6050	21.9287
 2.6030	21.8978
 2.6020	21.7845
 2.6010	21.8566
 2.5990	21.8669
 2.5980	21.7948
 2.5970	21.8875
 2.5960	22.1347
 2.5940	22.2171
 2.5930	22.1141
 2.5920	22.0729
 2.5900	22.2377
 2.5890	22.1965
 2.5880	22.2789
 2.5860	22.1656
 2.5850	21.7227
 2.5840	21.8360
 2.5830	22.1656
 2.5810	21.9390
 2.5800	22.1862
 2.5790	22.5364
 2.5770	22.4540
 2.5760	22.2686
 2.5750	22.2480
 2.5740	22.1244
 2.5720	22.0317
 2.5710	21.8875
 2.5700	21.8360
 2.5690	21.8051
 2.5670	21.8257
 2.5660	21.9905
 2.5650	22.1450
 2.5630	21.8669
 2.5620	21.7330
 2.5610	21.9596
 2.5600	22.1656
 2.5580	22.0935
 2.5570	22.0832
 2.5560	22.0214
 2.5550	22.0111
 2.5530	21.7639
 2.5520	21.7227
 2.5510	21.7742
 2.5500	21.8669
 2.5480	21.7330
 2.5470	21.6403
 2.5460	21.7742
 2.5450	21.7948
 2.5430	21.6815
 2.5420	21.8051
 2.5410	21.7330
 2.5400	21.6609
 2.5380	21.6815
 2.5370	21.4652
 2.5360	21.5064
 2.5350	21.9699
 2.5330	21.9287
 2.5320	21.6094
 2.5310	21.3931
 2.5300	21.5373
 2.5280	21.7021
 2.5270	21.7124
 2.5260	21.5579
 2.5250	21.4137
 2.5240	21.4961
 2.5220	21.8257
 2.5210	21.8875
 2.5200	21.6506
 2.5190	21.7330
 2.5170	22.0111
 2.5160	21.7330
 2.5150	21.4137
 2.5140	21.5991
 2.5130	22.0111
 2.5110	21.9390
 2.5100	21.7948
 2.5090	21.8360
 2.5080	22.0420
 2.5060	21.9081
 2.5050	21.8463
 2.5040	22.1347
 2.5030	22.2892
 2.5020	22.0214
 2.5000	21.8978
 2.4970	21.8978
 2.4930	22.0978
 2.4890	22.0978
 2.4850	22.1978
 2.4810	22.2978
 2.4770	22.2978
 2.4730	22.3978
 2.4690	22.6978
 2.4650	22.9978
 2.4610	22.9978
 2.4570	23.2978
 2.4530	23.5978
 2.4490	23.9978
 2.4450	24.2978
 2.4410	24.5978
 2.4370	24.8978
 2.4330	25.0978
 2.4290	25.3978
 2.4250	25.7978
 2.4210	26.1978
 2.4170	26.1978
 2.4130	26.2978
 2.4090	26.4978
 2.4050	26.5978
 2.4010	26.8978
 2.3970	27.1978
 2.3930	27.0978
 2.3890	26.6978
 2.3850	26.6978
 2.3810	26.2978
 2.3770	26.1978
 2.3730	25.4978
 2.3690	24.9978
 2.3650	24.3978
 2.3610	23.5978
 2.3570	22.9978
 2.3530	22.3978
 2.3490	21.8978
 2.3450	21.6978
 2.3410	21.2978
 2.3370	21.0978
 2.3330	21.0978
 2.3290	21.2978
 2.3250	21.6978
 2.3210	21.8978
 2.3170	22.2978
 2.3130	22.4978
 2.3090	23.1978
 2.3050	23.5978
 2.3010	25.0978
 2.2970	24.8978
 2.2930	24.9978
 2.2890	25.6978
 2.2850	26.2978
 2.2810	27.3978
 2.2770	28.1978
 2.2730	28.4978
 2.2690	28.4978
 2.2650	28.6978
 2.2610	28.7978
 2.2570	28.6978
 2.2530	28.8978
 2.2490	29.0978
 2.2450	29.5978
 2.2410	29.9978
 2.2370	30.0978
 2.2330	30.5978
 2.2290	30.8978
 2.2250	31.0978
 2.2210	31.4978
 2.2170	31.6978
 2.2130	31.7978
 2.2090	31.7978
 2.2050	32.0978
 2.2010	32.2978
 2.1970	32.3978
 2.1930	32.7978
 2.1890	33.0978
 2.1850	33.4978
 2.1810	33.7978
 2.1770	34.0978
 2.1730	34.3978
 2.1690	34.7978
 2.1650	34.8978
 2.1610	35.1978
 2.1570	35.4978
 2.1530	35.9978
 2.1490	36.0978
 2.1450	36.0978
 2.1410	36.5978
 2.1370	37.0978
 2.1330	37.0978
 2.1290	37.0978
 2.1250	37.0978
 2.1210	37.3978
 2.1170	37.8978
 2.1130	37.8978
 2.1090	38.2978
 2.1050	38.4978
 2.1010	38.3978
 2.0970	38.6978
 2.0930	38.3978
 2.0890	38.7978
 2.0850	38.7978
 2.0810	38.6978
 2.0770	38.6978
 2.0730	38.4978
 2.0690	38.3978
 2.0650	38.2978
 2.0610	38.2978
 2.0570	38.2978
 2.0530	38.3978
 2.0490	38.6978
 2.0450	38.4978
 2.0410	38.4978
 2.0370	38.3978
 2.0330	38.3978
 2.0290	38.1978
 2.0250	38.0978
 2.0210	37.8978
 2.0170	37.7978
 2.0130	37.6978
 2.0090	37.5978
 2.0050	37.3978
 2.0010	37.1978
 1.9970	36.5978
 1.9930	36.0978
 1.9890	36.0978
 1.9850	35.6978
 1.9810	35.6978
 1.9770	35.4978
 1.9730	35.0978
 1.9690	34.9978
 1.9650	34.8978
 1.9610	34.5978
 1.9570	34.2978
 1.9530	33.9978
 1.9490	33.6978
 1.9450	33.2978
 1.9410	33.0978
 1.9370	33.1978
 1.9330	33.2978
 1.9290	33.2978
 1.9250	32.8978
 1.9210	32.6978
 1.9170	32.5978
 1.9130	32.7978
 1.9090	33.2978
 1.9050	33.9978
 1.9010	34.3978
 1.8970	35.1978
 1.8930	36.4978
 1.8890	37.7978
 1.8850	38.3978
 1.8810	39.4978
 1.8770	40.4978
 1.8730	40.9978
 1.8690	40.6978
 1.8650	40.5978
 1.8610	40.9978
 1.8570	41.6978
 1.8530	42.1978
 1.8490	42.4978
 1.8450	42.5978
 1.8410	42.5978
 1.8370	42.6978
 1.8330	42.4978
 1.8290	42.1978
 1.8250	42.2978
 1.8210	42.5978
 1.8170	42.6978
 1.8130	42.2978
 1.8090	42.2978
 1.8050	42.6978
 1.8010	42.4978
 1.7970	42.5978
 1.7930	42.7978
 1.7890	42.8978
 1.7850	42.8978
 1.7810	42.6978
 1.7770	42.7978
 1.7730	42.7978
 1.7690	42.6978
 1.7650	42.7978
 1.7610	42.7978
 1.7570	42.7978
 1.7530	42.4978
 1.7490	42.2978
 1.7450	42.4978
 1.7410	42.6978
 1.7370	42.7978
 1.7330	43.0978
 1.7290	43.1978
 1.7250	43.0978
 1.7210	42.5978
 1.7170	42.5978
 1.7130	42.5978
 1.7090	42.5978
 1.7050	42.6978
 1.7010	42.8978
 1.6970	42.7978
 1.6930	42.6978
 1.6890	42.5978
 1.6850	42.6978
 1.6810	42.5978
 1.6770	42.5978
 1.6730	42.8978
 1.6690	42.7978
 1.6650	42.5978
 1.6610	42.5978
 1.6570	42.6978
 1.6530	42.4978
 1.6490	42.6978
 1.6450	42.2978
 1.6410	42.4978
 1.6370	42.0978
 1.6330	42.0978
 1.6290	42.2978
 1.6250	42.2978
 1.6210	42.0978
 1.6170	41.7978
 1.6130	41.9978
 1.6090	42.0978
 1.6050	42.1978
 1.6010	42.1978
 1.5970	42.0978
 1.5930	42.0978
 1.5890	41.5978
 1.5850	41.1978
 1.5810	40.9978
 1.5770	40.5978
 1.5730	40.5978
 1.5690	40.4978
 1.5650	40.4978
 1.5610	40.5978
 1.5570	40.4978
 1.5530	40.2978
 1.5490	39.9978
 1.5450	39.8978
 1.5410	39.7978
 1.5370	39.8978
 1.5330	40.0978
 1.5290	40.4978
 1.5250	40.3978
 1.5210	40.4978
 1.5170	40.0978
 1.5130	40.0978
 1.5090	39.9978
 1.5050	39.5978
 1.5010	39.1978
 1.4970	39.3978
 1.4930	39.3978
 1.4890	39.2978
 1.4850	39.1978
 1.4810	38.9978
 1.4770	38.6978
 1.4730	38.2978
 1.4690	38.2978
 1.4650	38.0978
 1.4610	37.6978
 1.4570	37.6978
 1.4530	37.6978
 1.4490	37.7978
 1.4450	37.5978
 1.4410	37.3978
 1.4370	37.2978
 1.4330	37.1978
 1.4290	37.0978
 1.4250	36.6978
 1.4210	36.4978
 1.4170	36.0978
 1.4130	35.3978
 1.4090	34.8978
 1.4050	34.9978
 1.4010	34.9978
 1.3970	35.4978
 1.3930	35.8978
 1.3890	35.5978
 1.3850	36.2978
 1.3810	36.6978
 1.3770	36.2978
 1.3730	37.1978
 1.3690	38.0978
 1.3650	37.6978
 1.3610	36.7978
 1.3570	36.5978
 1.3530	37.1978
 1.3490	37.1978
 1.3450	37.1978
 1.3410	37.2978
 1.3370	37.6978
 1.3330	37.2978
 1.3290	36.9978
 1.3250	36.6978
 1.3210	36.4978
 1.3170	36.2978
 1.3130	35.9978
 1.3090	35.9978
 1.3050	35.8978
 1.3010	35.6978
 1.2970	35.5978
 1.2930	35.1978
 1.2890	35.0978
 1.2850	34.8978
 1.2810	34.4978
 1.2770	34.3978
 1.2730	34.0978
 1.2690	33.8978
 1.2650	34.0978
 1.2610	34.3978
 1.2570	34.2978
 1.2530	33.8978
 1.2490	33.4978
 1.2450	33.1978
 1.2410	32.7978
 1.2370	32.6978
 1.2330	32.6978
 1.2290	32.3978
 1.2250	32.3978
 1.2210	32.2978
 1.2170	32.0978
 1.2130	31.6978
 1.2090	31.4978
 1.2050	31.1978
 1.2010	30.9978
 1.1970	30.8978
 1.1930	30.5978
 1.1890	30.4978
 1.1850	30.3978
 1.1810	30.1978
 1.1770	30.0978
 1.1730	29.9978
 1.1690	29.8978
 1.1650	29.5978
 1.1610	29.4978
 1.1570	29.2978
 1.1530	29.2978
 1.1490	29.0978
 1.1450	28.8978
 1.1410	28.8978
 1.1370	28.8978
 1.1330	28.4978
 1.1290	28.2978
 1.1250	27.6978
 1.1210	27.7978
 1.1170	27.7978
 1.1130	27.6978
 1.1090	27.5978
 1.1050	27.5978
 1.1010	27.3978
 1.0970	27.2978
 1.0930	27.0978
 1.0890	26.4978
 1.0850	25.7978
 1.0810	26.5978
 1.0770	26.8978
 1.0730	26.8978
 1.0690	26.6978
 1.0650	26.2978
 1.0610	25.9978
 1.0570	25.9978
 1.0530	25.9978
 1.0490	25.9978
 1.0450	25.6978
 1.0410	25.6978
 1.0370	25.4978
 1.0330	25.4978
 1.0290	25.3978
 1.0250	25.0978
 1.0210	25.3978
 1.0170	25.5978
 1.0130	25.1978
 1.0090	25.1978
 1.0050	25.0978
 1.0010	24.9978
 0.9970	24.6978
 0.9930	24.9978
 0.9890	24.9978
 0.9850	24.6978
 0.9810	24.4978
 0.9770	24.4978
 0.9730	24.0978
 0.9690	24.0978
 0.9650	24.0978
 0.9610	24.0978
 0.9570	23.8978
 0.9530	23.8978
 0.9490	23.7978
 0.9450	23.7978
 0.9410	23.5978
 0.9370	23.3978
 0.9330	23.2978
 0.9290	22.9978
 0.9250	22.8978
 0.9210	22.6978
 0.9170	22.6978
 0.9130	22.6978
 0.9090	22.3978
 0.9050	22.0978
 0.9010	22.0978
 0.8970	21.7978
 0.8930	21.6978
 0.8890	21.5978
 0.8850	21.2978
 0.8810	21.1978
 0.8770	21.1978
 0.8730	20.7978
 0.8690	20.7978
 0.8650	20.5978
 0.8610	20.5978
 0.8570	20.4978
 0.8530	20.4978
 0.8490	20.3978
 0.8450	20.1978
 0.8410	20.0978
 0.8370	20.1978
 0.8330	20.1978
 0.8290	20.1978
 0.8250	20.3978
 0.8210	20.3978
 0.8170	20.3978
 0.8130	20.1978
 0.8090	20.5978
 0.8050	20.3978
 0.8040	23.1978
 0.8030	20.6978
 0.8020	20.3978
 0.8010	20.2978
 0.8000	20.3978
 0.7990	20.1978
 0.7980	20.1978
 0.7970	20.1978
 0.7960	20.2978
 0.7950	20.3978
 0.7940	20.6978
 0.7930	20.4978
 0.7920	20.6978
 0.7910	20.7978
 0.7900	20.8978
 0.7890	20.6978
 0.7880	20.7978
 0.7870	20.7978
 0.7860	20.6978
 0.7850	20.9978
 0.7840	20.8978
 0.7830	20.8978
 0.7820	20.9978
 0.7810	20.7978
 0.7800	20.9978
 0.7790	20.9978
 0.7780	20.9978
 0.7770	20.9978
 0.7760	21.0978
 0.7750	21.2978
 0.7740	21.2978
 0.7730	21.0978
 0.7720	21.2978
 0.7710	21.0978
 0.7700	21.0978
 0.7690	21.0978
 0.7680	20.8978
 0.7670	21.0978
 0.7660	21.2978
 0.7650	21.2978
 0.7640	21.3978
 0.7630	21.3978
 0.7620	20.9978
 0.7610	21.2978
 0.7600	21.3978
 0.7590	21.5978
 0.7580	21.2978
 0.7570	21.3978
 0.7560	21.3978
 0.7550	21.2978
 0.7540	21.4978
 0.7530	21.7978
 0.7520	21.8978
 0.7510	21.4978
 0.7500	21.2978
 0.7490	20.9978
 0.7480	21.0978
 0.7470	21.2978
 0.7460	21.4978
 0.7450	21.0978
 0.7440	21.4978
 0.7430	21.4978
 0.7420	21.2978
 0.7410	21.4978
 0.7400	21.5978
 0.7390	21.3978
 0.7380	21.2978
 0.7370	21.4978
 0.7360	21.2978
 0.7350	21.4978
 0.7340	21.2978
 0.7330	20.9978
 0.7320	20.8978
 0.7310	21.0978
 0.7300	21.0978
 0.7290	20.8978
 0.7280	20.8978
 0.7270	20.9978
 0.7260	20.7978
 0.7250	20.8978
 0.7240	20.7978
 0.7230	20.9978
 0.7220	20.8978
 0.7210	20.7978
 0.7200	20.4978
 0.7190	20.7978
 0.7180	20.9978
 0.7170	20.7978
 0.7160	20.6978
 0.7150	20.3978
 0.7140	20.4978
 0.7130	20.7978
 0.7120	20.6978
 0.7110	20.2978
 0.7100	20.1978
 0.7090	19.8978
 0.7080	19.5978
 0.7070	20.1978
 0.7060	19.7978
 0.7050	19.7978
 0.7040	19.8978
 0.7030	19.5978
 0.7020	19.3978
 0.7010	19.7978
 0.7000	19.6978
 0.6990	19.7978
 0.6980	19.6978
 0.6970	19.5978
 0.6960	19.6978
 0.6950	19.7978
 0.6940	19.8978
 0.6930	19.6978
 0.6920	19.2978
 0.6910	19.2978
 0.6900	19.0978
 0.6890	19.0978
 0.6880	19.0978
 0.6870	19.0978
 0.6860	19.0978
 0.6850	19.1978
 0.6840	19.1978
 0.6830	18.9978
 0.6820	18.7978
 0.6810	18.6978
 0.6800	18.7978
 0.6790	18.9978
 0.6780	19.0978
 0.6770	19.2978
 0.6760	18.9978
 0.6750	18.7978
 0.6740	18.7978
 0.6730	19.1978
 0.6720	18.9978
 0.6710	18.9978
 0.6700	18.9978
 0.6690	18.7978
 0.6680	18.9978
 0.6670	18.7978
 0.6660	18.9978
 0.6650	18.7978
 0.6640	18.7978
 0.6630	18.7978
 0.6620	18.6978
 0.6610	18.6978
 0.6600	18.5978
 0.6590	18.5978
 0.6580	18.4978
 0.6570	18.5978
 0.6560	18.5978
 0.6550	18.6978
 0.6540	18.5978
 0.6530	18.5978
 0.6520	18.5978
 0.6510	18.5978
 0.6500	18.2978
 0.6490	18.5978
 0.6480	18.5978
 0.6470	18.2978
 0.6460	18.4978
 0.6450	18.4978
 0.6440	18.2978
 0.6430	18.4978
 0.6420	18.2978
 0.6410	18.2978
 0.6400	18.2978
 0.6390	18.1978
 0.6380	18.0978
 0.6370	18.2978
 0.6360	18.0978
 0.6350	18.1978
 0.6340	18.1978
 0.6330	17.8978
 0.6320	17.9978
 0.6310	17.9978
 0.6300	17.9978
 0.6290	17.5978
 0.6280	17.5978
 0.6270	17.6978
 0.6260	17.6978
 0.6250	17.8978
 0.6240	17.9978
 0.6230	17.8978
 0.6220	17.8978
 0.6210	17.6978
 0.6200	17.5978
 0.6190	17.6978
 0.6180	17.5978
 0.6170	17.4978
 0.6160	17.1978
 0.6150	17.4978
 0.6140	17.4978
 0.6130	17.3978
 0.6120	17.1978
 0.6110	17.0978
 0.6100	17.0978
 0.6090	17.0978
 0.6080	16.9978
 0.6070	16.7978
 0.6060	16.5978
 0.6050	16.4978
 0.6040	16.5978
 0.6030	16.5978
 0.6020	16.2978
 0.6010	16.4978
 0.6000	16.0978
 0.5990	16.3978
 0.5980	16.0978
 0.5970	15.6978
 0.5960	15.4978
 0.5950	15.4978
 0.5940	15.6978
 0.5930	15.4978
 0.5920	15.1978
 0.5910	14.9978
 0.5900	15.1978
 0.5890	14.8978
 0.5880	14.9978
 0.5870	14.5978
 0.5860	14.6978
 0.5850	14.6978
 0.5840	14.6978
 0.5830	14.2978
 0.5820	14.1978
 0.5810	13.8978
 0.5800	13.8978
 0.5790	13.6978
 0.5780	13.5978
 0.5770	13.2978
 0.5760	13.2978
 0.5750	13.4978
 0.5740	13.1978
 0.5730	13.0978
 0.5720	12.7978
 0.5710	12.6978
 0.5700	12.4978
 0.5690	12.3978
 0.5680	12.0978
 0.5670	11.8978
 0.5660	11.6978
 0.5650	11.4978
 0.5640	11.3978
 0.5630	10.4978
 0.5620	10.4978
 0.5610	10.4978
 0.5600	10.3978
 0.5590	10.2978
 0.5580	10.1978
 0.5570	 9.7978
 0.5560	 9.4978
 0.5550	 9.3978
 0.5540	 9.2978
 0.5530	 8.8978
 0.5520	 8.2978
 0.5510	 8.7978
 0.5500	 8.5978
 0.5490	 8.4978
 0.5480	 8.0978
 0.5470	 7.9978
 0.5460	 8.0978
 0.5450	 7.9978
 0.5440	 8.0978
 0.5430	 7.3978
 0.5420	 7.4978
 0.5410	 7.3978
 0.5400	 7.3978
 0.5390	 7.0978
 0.5380	 6.9978
 0.5370	 6.4978
 0.5360	 6.6978
 0.5350	 6.4978
 0.5340	 6.3978
 0.5330	 6.0978
 0.5320	 6.0978
 0.5310	 5.9978
 0.5300	 5.7978
 0.5290	 5.5978
 0.5280	 5.7978
 0.5270	 5.5978
 0.5260	 5.2978
 0.5250	 5.4978
 0.5240	 5.2978
 0.5230	 5.2978
 0.5220	 4.8978
 0.5210	 4.8978
 0.5200	 4.6978
 0.5190	 4.7978
 0.5180	 4.7978
 0.5170	 4.6978
 0.5160	 4.2978
 0.5150	 4.2978
 0.5140	 4.0978
 0.5130	 3.8978
 0.5120	 3.7978
 0.5110	 3.7978
 0.5100	 3.7978
 0.5090	 3.5978
 0.5080	 3.3978
 0.5070	 3.3978
 0.5060	 3.2978
 0.5050	 3.1978
 0.5040	 2.9978
 0.5030	 2.7978
 0.5020	 2.9978
 0.5010	 2.7978
 0.5000	 2.7978
 0.4990	 2.4978
 0.4980	 2.2978
 0.4970	 2.2978
 0.4960	 2.2978
 0.4950	 2.0978
 0.4940	 2.0978
 0.4930	 2.1978
 0.4920	 1.9978
 0.4910	 1.6978
 0.4900	 1.4978
 0.4890	 1.4978
 0.4880	 1.4978
 0.4870	 1.5978
 0.4860	 1.4978
 0.4850	 1.4978
 0.4840	 1.3978
 0.4830	 1.3978
 0.4820	 1.0978
 0.4810	 1.0978
 0.4800	 1.0978
 0.4790	 0.9978
 0.4780	 1.1978
 0.4770	 0.8978
 0.4760	 1.0978
 0.4750	 0.7978
 0.4740	 0.5978
 0.4730	 0.8978
 0.4720	 0.8978
 0.4710	 0.8978
 0.4700	 0.7978
 0.4690	 0.7978
 0.4680	 0.8978
 0.4670	 0.5978
 0.4660	 0.4978
 0.4650	 0.3978
 0.4640	 0.0978
 0.4630	 1.6978
 0.4620	 1.4978
 0.4610	 1.4978
 0.4600	 1.4978
 0.4590	 1.5978
 0.4580	 1.4978
 0.4570	 1.1978
 0.4560	 1.0978
 0.4550	 0.9978
 0.4540	 1.0978
 0.4530	 1.1978
 0.4520	 1.0978
 0.4510	 1.0978
 0.4500	 0.8978
 0.4490	 0.8978
 0.4480	 0.7978
 0.4470	 0.4978
 0.4460	 0.5978
 0.4450	 0.5978
 0.4440	 0.3978
 0.4430	 0.2978
 0.4420	 0.0978
 0.4410	 0.0978
 0.4400	 0.2978
 0.4390	0.000
 0.4380	0.000
 0.4370	0.000
 0.4360	0.000
 0.4350	0.000
 0.4340	0.000
 0.4330	0.000
 0.4320	0.000
 0.4310	0.000
 0.4300	0.000
 0.4290	0.000
 0.4280	0.000
 0.4270	0.000
 0.4260	0.000
 0.4250	0.000
 0.4240	0.000
 0.4230	0.000
 0.4220	0.000
 0.4210	0.000
 0.4200	0.000
 0.4190	0.000
 0.4180	0.000
 0.4170	0.000
 0.4160	0.000
 0.4150	0.000
 0.4140	0.000
 0.4130	0.000
 0.4120	0.000
 0.4110	0.000
 0.4100	0.000
 0.4090	0.000
 0.4080	0.000
 0.4070	0.000
 0.4060	0.000
 0.4050	0.000
