Name: Arctostaphylos glandulosa 2
Type: vegetation
Class: Shrub
Genus: Arctostaphylos
Species: glandulosa
Sample No.: VH227
Owner: UCSB
Wavelength Range: TIR
Origin: 34.5084; -119.7682; WGS84
Collection Date: 10/13/2013
Description: Samples were collected as part of the HyspIRI Airborne Campaign. 48 individual plants were sampled in three times in 2013 - spring  summer  and fall. The name of the sample includes a 1  2  or 3 which references a different individual of the species. Samples were taken to JPL and processed within 48 hours of collection. The same leaves were processed in the Nicolet and then measured using the ASD.
Measurement: Hemispherical reflectance
First Column: X
Second Column: Y
X Units: Wavelength (micrometers)
Y Units: Reflectance (percentage)
First X Value: 2.501
Last X Value: 15.387
Number of X Values: 1737
Additional Information: vegetation.shrub.arctostaphylos.glandulosa.tir.vh227.ucsb.nicolet.ancillary.txt

 2.5010	 6.4950
 2.5030	 6.4960
 2.5040	 6.3560
 2.5050	 6.2830
 2.5060	 6.3250
 2.5070	 6.0940
 2.5090	 6.1270
 2.5100	 6.3390
 2.5110	 6.3640
 2.5120	 6.2270
 2.5140	 6.1190
 2.5150	 6.1790
 2.5160	 6.3850
 2.5170	 6.4120
 2.5180	 6.5270
 2.5200	 6.4350
 2.5210	 6.2260
 2.5220	 6.2090
 2.5230	 6.2710
 2.5250	 6.2150
 2.5260	 6.4020
 2.5270	 6.3390
 2.5280	 6.2540
 2.5290	 6.1780
 2.5310	 6.2970
 2.5320	 6.2430
 2.5330	 6.3010
 2.5340	 6.1730
 2.5360	 6.2530
 2.5370	 6.3170
 2.5380	 6.4100
 2.5390	 6.2590
 2.5410	 6.3170
 2.5420	 6.3780
 2.5430	 6.4140
 2.5440	 6.5190
 2.5460	 6.4740
 2.5470	 6.1010
 2.5480	 6.1190
 2.5490	 6.0970
 2.5510	 6.1280
 2.5520	 6.2970
 2.5530	 6.2600
 2.5540	 6.1770
 2.5560	 6.3100
 2.5570	 6.3490
 2.5580	 6.4040
 2.5590	 6.2900
 2.5610	 6.3340
 2.5620	 6.3720
 2.5630	 6.2570
 2.5640	 6.3540
 2.5660	 6.4620
 2.5670	 6.2500
 2.5680	 6.2300
 2.5700	 6.4680
 2.5710	 6.6590
 2.5720	 6.6290
 2.5730	 6.4810
 2.5750	 6.1560
 2.5760	 6.1270
 2.5770	 6.2360
 2.5790	 6.4900
 2.5800	 6.4130
 2.5810	 6.4130
 2.5820	 6.4820
 2.5840	 6.6210
 2.5850	 6.6030
 2.5860	 6.5910
 2.5880	 6.5020
 2.5890	 6.4180
 2.5900	 6.1020
 2.5910	 6.3030
 2.5930	 6.4920
 2.5940	 6.4900
 2.5950	 6.4560
 2.5970	 6.4070
 2.5980	 6.3620
 2.5990	 6.5710
 2.6000	 6.5710
 2.6020	 6.3770
 2.6030	 6.3270
 2.6040	 6.3880
 2.6060	 6.2290
 2.6070	 6.2920
 2.6080	 6.5690
 2.6100	 6.5090
 2.6110	 6.5090
 2.6120	 6.5020
 2.6140	 6.2590
 2.6150	 6.2680
 2.6160	 6.2460
 2.6180	 6.2960
 2.6190	 6.2420
 2.6200	 6.1990
 2.6220	 6.3030
 2.6230	 6.4290
 2.6240	 6.3770
 2.6260	 6.1610
 2.6270	 5.8470
 2.6280	 5.9360
 2.6300	 6.0850
 2.6310	 6.3060
 2.6320	 6.4150
 2.6340	 6.2300
 2.6350	 6.0700
 2.6360	 6.0890
 2.6380	 6.0950
 2.6390	 6.1280
 2.6400	 6.0390
 2.6420	 5.9650
 2.6430	 5.9780
 2.6440	 5.9690
 2.6460	 5.8730
 2.6470	 5.9790
 2.6480	 5.9940
 2.6500	 6.0760
 2.6510	 5.9920
 2.6520	 5.7330
 2.6540	 5.6280
 2.6550	 5.6750
 2.6560	 5.7880
 2.6580	 6.0240
 2.6590	 5.9510
 2.6610	 5.9620
 2.6620	 5.8790
 2.6630	 5.8160
 2.6650	 5.6810
 2.6660	 5.9780
 2.6670	 5.9640
 2.6690	 5.7690
 2.6700	 5.7580
 2.6720	 5.7630
 2.6730	 5.6340
 2.6740	 5.8010
 2.6760	 5.7000
 2.6770	 5.7040
 2.6780	 5.7180
 2.6800	 5.7580
 2.6810	 5.7470
 2.6830	 5.6140
 2.6840	 5.4190
 2.6850	 5.5440
 2.6870	 5.4590
 2.6880	 5.2480
 2.6900	 5.3020
 2.6910	 5.4480
 2.6920	 5.3680
 2.6940	 5.5780
 2.6950	 5.6630
 2.6970	 5.4150
 2.6980	 5.2640
 2.6990	 5.5370
 2.7010	 5.3250
 2.7020	 5.0980
 2.7040	 4.9850
 2.7050	 4.9690
 2.7060	 4.9730
 2.7080	 5.1720
 2.7090	 5.0190
 2.7110	 5.0310
 2.7120	 4.9990
 2.7130	 4.9840
 2.7150	 4.9020
 2.7160	 4.9080
 2.7180	 4.9560
 2.7190	 5.3230
 2.7210	 5.1370
 2.7220	 5.1360
 2.7230	 5.0500
 2.7250	 4.8590
 2.7260	 4.8890
 2.7280	 4.8710
 2.7290	 4.5710
 2.7310	 4.7790
 2.7320	 4.7880
 2.7330	 4.5660
 2.7350	 4.4510
 2.7360	 4.6180
 2.7380	 4.5680
 2.7390	 4.5200
 2.7410	 4.6570
 2.7420	 4.6650
 2.7440	 4.5400
 2.7450	 4.4980
 2.7470	 4.4960
 2.7480	 4.7590
 2.7490	 4.8980
 2.7510	 5.0640
 2.7520	 4.8590
 2.7540	 4.8190
 2.7550	 4.5360
 2.7570	 4.3020
 2.7580	 4.7500
 2.7600	 5.2190
 2.7610	 4.6520
 2.7630	 4.3440
 2.7640	 4.6990
 2.7660	 4.8490
 2.7670	 4.3880
 2.7680	 5.1330
 2.7700	 5.6380
 2.7710	 4.9190
 2.7730	 4.3500
 2.7740	 4.5610
 2.7760	 4.4730
 2.7770	 4.4220
 2.7790	 4.2950
 2.7800	 4.2860
 2.7820	 4.1860
 2.7830	 4.3290
 2.7850	 4.4890
 2.7860	 4.5200
 2.7880	 4.3590
 2.7890	 4.2790
 2.7910	 4.3270
 2.7920	 4.6680
 2.7940	 4.3980
 2.7950	 4.1260
 2.7970	 4.2680
 2.7980	 4.3760
 2.8000	 4.2420
 2.8010	 4.2690
 2.8030	 4.2660
 2.8040	 4.1650
 2.8060	 4.1160
 2.8070	 4.1880
 2.8090	 4.2500
 2.8110	 4.2940
 2.8120	 4.2340
 2.8140	 4.2380
 2.8150	 3.9690
 2.8170	 4.0060
 2.8180	 4.1930
 2.8200	 4.2150
 2.8210	 4.2850
 2.8230	 4.5180
 2.8240	 4.3690
 2.8260	 4.1870
 2.8270	 4.1480
 2.8290	 4.3390
 2.8300	 4.3340
 2.8320	 4.4270
 2.8340	 4.2310
 2.8350	 4.0000
 2.8370	 3.9240
 2.8380	 4.1300
 2.8400	 4.1070
 2.8410	 4.0480
 2.8430	 3.9300
 2.8440	 3.8840
 2.8460	 3.9490
 2.8480	 4.0630
 2.8490	 4.0660
 2.8510	 3.9880
 2.8520	 3.8880
 2.8540	 3.7340
 2.8550	 3.6170
 2.8570	 3.6360
 2.8590	 3.6990
 2.8600	 3.9390
 2.8620	 3.8590
 2.8630	 3.7210
 2.8650	 3.6650
 2.8660	 3.9230
 2.8680	 3.9520
 2.8700	 3.8640
 2.8710	 3.7010
 2.8730	 3.7370
 2.8740	 3.6050
 2.8760	 3.8460
 2.8780	 3.8010
 2.8790	 3.4670
 2.8810	 3.9140
 2.8820	 3.8870
 2.8840	 3.6440
 2.8860	 3.7340
 2.8870	 3.6220
 2.8890	 3.9710
 2.8900	 3.9250
 2.8920	 3.9180
 2.8940	 3.8460
 2.8950	 3.9890
 2.8970	 4.0210
 2.8980	 3.7330
 2.9000	 3.2970
 2.9020	 3.5440
 2.9030	 3.8960
 2.9050	 3.8220
 2.9070	 3.6330
 2.9080	 3.7970
 2.9100	 4.1140
 2.9120	 4.0560
 2.9130	 3.9130
 2.9150	 4.0160
 2.9160	 3.7190
 2.9180	 3.9000
 2.9200	 4.0390
 2.9210	 4.1030
 2.9230	 3.9470
 2.9250	 3.9510
 2.9260	 3.7890
 2.9280	 3.7490
 2.9300	 3.8290
 2.9310	 3.9470
 2.9330	 3.6510
 2.9350	 3.8200
 2.9360	 3.8800
 2.9380	 3.8640
 2.9400	 3.7350
 2.9410	 4.0970
 2.9430	 4.0140
 2.9450	 3.9700
 2.9460	 3.6110
 2.9480	 3.4080
 2.9500	 3.4810
 2.9510	 4.0950
 2.9530	 4.7190
 2.9550	 4.8680
 2.9560	 4.4770
 2.9580	 4.5900
 2.9600	 4.8590
 2.9610	 4.6210
 2.9630	 3.1300
 2.9650	 2.0880
 2.9660	 0.9350
 2.9680	 1.7850
 2.9700	 1.7140
 2.9720	 2.5570
 2.9730	 4.0760
 2.9750	 4.6650
 2.9770	 6.1180
 2.9780	 6.2730
 2.9800	 5.4470
 2.9820	 4.1430
 2.9840	 3.4300
 2.9850	 3.1180
 2.9870	 3.4490
 2.9890	 2.4750
 2.9900	 1.8330
 2.9920	 3.5300
 2.9940	 5.1780
 2.9960	 4.7130
 2.9970	 5.1720
 2.9990	 4.3900
 3.0010	 2.2000
 3.0030	 4.3990
 3.0040	 7.0520
 3.0060	 6.6110
 3.0080	 4.6440
 3.0100	 3.6320
 3.0110	 3.7440
 3.0130	 2.9610
 3.0150	 2.4340
 3.0170	 2.5550
 3.0180	 2.7560
 3.0200	 2.9270
 3.0220	 3.6330
 3.0240	 4.2990
 3.0250	 4.4200
 3.0270	 4.0310
 3.0290	 3.9180
 3.0310	 3.6080
 3.0320	 2.6880
 3.0340	 1.4930
 3.0360	 2.5350
 3.0380	 4.1930
 3.0400	 6.4830
 3.0410	 6.9780
 3.0430	 6.3070
 3.0450	 5.4900
 3.0470	 3.6650
 3.0480	 3.8650
 3.0500	 3.0480
 3.0520	 3.2740
 3.0540	 4.8060
 3.0560	 5.3400
 3.0570	 3.4630
 3.0590	 2.6990
 3.0610	 2.6090
 3.0630	 2.0500
 3.0650	 3.5660
 3.0660	 6.0230
 3.0680	 6.8300
 3.0700	 5.2130
 3.0720	 3.1010
 3.0740	 3.5450
 3.0760	 5.0080
 3.0770	 4.5500
 3.0790	 4.3930
 3.0810	 3.9750
 3.0830	 3.7260
 3.0850	 3.4980
 3.0870	 3.6580
 3.0880	 4.2740
 3.0900	 4.2320
 3.0920	 3.7120
 3.0940	 3.8110
 3.0960	 3.8350
 3.0980	 3.7030
 3.0990	 3.7400
 3.1010	 3.6800
 3.1030	 3.5920
 3.1050	 4.0330
 3.1070	 4.2150
 3.1090	 4.2820
 3.1110	 4.3450
 3.1120	 4.2860
 3.1140	 4.2230
 3.1160	 3.8490
 3.1180	 3.9930
 3.1200	 4.0360
 3.1220	 4.0730
 3.1240	 4.3490
 3.1260	 4.2230
 3.1270	 3.6230
 3.1290	 3.9720
 3.1310	 4.0660
 3.1330	 3.7870
 3.1350	 4.3460
 3.1370	 4.6840
 3.1390	 4.2850
 3.1410	 3.8030
 3.1430	 3.3420
 3.1450	 2.3380
 3.1460	 2.4720
 3.1480	 4.1080
 3.1500	 4.9010
 3.1520	 3.6400
 3.1540	 4.1600
 3.1560	 1.7170
 3.1580	 0.9340
 3.1600	 3.4910
 3.1620	 4.4200
 3.1640	 3.9270
 3.1660	 3.6860
 3.1680	 4.1530
 3.1700	 3.8600
 3.1710	 3.9780
 3.1730	 4.3830
 3.1750	 4.2980
 3.1770	 5.0570
 3.1790	 6.0700
 3.1810	 4.4310
 3.1830	 3.1370
 3.1850	 4.0000
 3.1870	 4.0130
 3.1890	 3.9010
 3.1910	 3.9770
 3.1930	 4.0100
 3.1950	 4.1550
 3.1970	 4.2760
 3.1990	 3.8830
 3.2010	 3.7640
 3.2030	 4.1450
 3.2050	 4.1450
 3.2070	 4.1120
 3.2090	 3.9230
 3.2110	 3.6560
 3.2130	 3.6680
 3.2150	 3.8910
 3.2170	 4.1160
 3.2190	 4.0480
 3.2210	 3.8820
 3.2230	 3.9460
 3.2250	 3.7600
 3.2270	 3.5900
 3.2290	 3.7850
 3.2310	 4.1420
 3.2330	 4.1550
 3.2350	 4.1570
 3.2370	 4.0970
 3.2390	 3.8930
 3.2410	 3.9050
 3.2430	 3.7630
 3.2450	 4.1110
 3.2470	 4.8080
 3.2490	 4.7230
 3.2510	 4.3780
 3.2530	 4.0730
 3.2550	 4.2160
 3.2570	 4.6230
 3.2590	 4.4180
 3.2610	 3.8700
 3.2630	 3.8030
 3.2650	 3.9620
 3.2670	 4.0630
 3.2690	 4.3170
 3.2720	 4.0430
 3.2740	 3.5320
 3.2760	 3.6220
 3.2780	 3.9500
 3.2800	 4.0050
 3.2820	 4.0660
 3.2840	 4.0890
 3.2860	 3.8950
 3.2880	 3.6510
 3.2900	 3.5330
 3.2920	 3.8150
 3.2940	 4.2970
 3.2960	 4.2420
 3.2990	 3.6260
 3.3010	 3.7130
 3.3030	 3.5900
 3.3050	 3.7180
 3.3070	 3.9570
 3.3090	 3.6350
 3.3110	 3.6910
 3.3130	 3.8280
 3.3150	 3.5520
 3.3180	 3.4940
 3.3200	 3.8420
 3.3220	 4.1900
 3.3240	 3.9070
 3.3260	 3.7020
 3.3280	 3.7940
 3.3300	 3.7970
 3.3330	 3.5930
 3.3350	 3.3980
 3.3370	 3.4530
 3.3390	 3.5430
 3.3410	 3.3190
 3.3430	 3.2330
 3.3450	 3.4440
 3.3480	 3.6030
 3.3500	 3.4780
 3.3520	 3.3870
 3.3540	 3.3590
 3.3560	 3.4760
 3.3580	 3.3420
 3.3610	 3.2590
 3.3630	 3.4600
 3.3650	 3.4100
 3.3670	 3.2460
 3.3690	 3.2920
 3.3720	 3.2110
 3.3740	 3.1250
 3.3760	 3.1020
 3.3780	 3.1340
 3.3800	 3.1300
 3.3830	 3.2620
 3.3850	 3.4600
 3.3870	 3.3200
 3.3890	 3.1040
 3.3910	 3.2300
 3.3940	 3.1510
 3.3960	 2.8080
 3.3980	 2.8380
 3.4000	 2.9200
 3.4020	 2.9340
 3.4050	 2.8990
 3.4070	 2.8550
 3.4090	 2.9550
 3.4110	 3.0010
 3.4140	 3.0780
 3.4160	 3.3470
 3.4180	 3.8600
 3.4200	 4.6580
 3.4230	 5.8430
 3.4250	 7.0450
 3.4270	 8.0320
 3.4290	 8.5260
 3.4320	 8.1050
 3.4340	 7.3490
 3.4360	 6.8950
 3.4390	 6.5240
 3.4410	 5.9430
 3.4430	 5.5390
 3.4450	 5.3180
 3.4480	 5.2950
 3.4500	 5.1560
 3.4520	 5.0460
 3.4550	 5.4310
 3.4570	 5.2410
 3.4590	 5.4200
 3.4620	 5.3480
 3.4640	 5.0730
 3.4660	 4.9630
 3.4680	 4.8270
 3.4710	 4.6640
 3.4730	 4.6030
 3.4750	 4.4780
 3.4780	 4.4240
 3.4800	 4.3840
 3.4820	 4.2850
 3.4850	 4.2680
 3.4870	 4.3280
 3.4890	 4.1550
 3.4920	 3.9130
 3.4940	 3.7710
 3.4970	 3.7820
 3.4990	 3.7570
 3.5010	 3.7040
 3.5040	 3.8410
 3.5060	 4.6010
 3.5080	 6.1900
 3.5110	 7.6840
 3.5130	 7.9140
 3.5160	 7.3500
 3.5180	 6.7700
 3.5200	 6.4060
 3.5230	 6.1120
 3.5250	 5.9100
 3.5270	 5.8420
 3.5300	 5.7700
 3.5320	 5.5500
 3.5350	 5.3320
 3.5370	 5.4380
 3.5400	 5.3570
 3.5420	 5.0560
 3.5440	 5.0560
 3.5470	 4.9910
 3.5490	 4.9940
 3.5520	 5.0970
 3.5540	 5.2610
 3.5570	 5.1730
 3.5590	 5.1020
 3.5610	 5.0570
 3.5640	 5.0650
 3.5660	 5.0090
 3.5690	 5.0310
 3.5710	 5.1060
 3.5740	 5.2510
 3.5760	 5.0840
 3.5790	 4.9330
 3.5810	 4.8770
 3.5840	 4.8380
 3.5860	 4.7180
 3.5890	 4.7470
 3.5910	 4.5090
 3.5930	 4.6080
 3.5960	 5.0630
 3.5980	 4.8240
 3.6010	 4.5980
 3.6030	 4.8820
 3.6060	 4.9670
 3.6080	 5.1260
 3.6110	 5.0950
 3.6140	 5.0440
 3.6160	 5.0800
 3.6190	 4.8190
 3.6210	 4.7860
 3.6240	 4.9140
 3.6260	 4.8060
 3.6290	 4.7810
 3.6310	 4.7570
 3.6340	 4.6760
 3.6360	 4.7510
 3.6390	 4.8000
 3.6410	 4.6770
 3.6440	 4.7310
 3.6470	 4.7840
 3.6490	 4.7690
 3.6520	 4.8590
 3.6540	 4.9070
 3.6570	 4.8950
 3.6590	 5.0070
 3.6620	 5.0130
 3.6650	 5.0110
 3.6670	 4.8770
 3.6700	 4.7740
 3.6720	 4.7170
 3.6750	 4.7280
 3.6780	 4.7050
 3.6800	 4.6810
 3.6830	 4.8070
 3.6850	 4.8050
 3.6880	 4.8660
 3.6910	 4.9240
 3.6930	 4.8550
 3.6960	 4.7890
 3.6990	 4.7860
 3.7010	 4.8380
 3.7040	 4.8590
 3.7060	 4.8010
 3.7090	 4.6630
 3.7120	 4.6210
 3.7140	 4.6480
 3.7170	 4.6810
 3.7200	 4.6960
 3.7220	 4.7170
 3.7250	 4.6400
 3.7280	 4.7810
 3.7300	 4.9360
 3.7330	 4.7590
 3.7360	 4.6610
 3.7390	 4.7140
 3.7410	 4.7610
 3.7440	 4.8870
 3.7470	 4.7900
 3.7490	 4.5980
 3.7520	 4.4700
 3.7550	 4.4490
 3.7580	 4.5710
 3.7600	 4.6960
 3.7630	 4.6740
 3.7660	 4.8810
 3.7680	 4.9990
 3.7710	 4.8970
 3.7740	 4.7870
 3.7770	 4.7880
 3.7790	 4.7400
 3.7820	 4.8080
 3.7850	 4.8430
 3.7880	 4.7620
 3.7900	 4.7390
 3.7930	 4.7270
 3.7960	 4.7540
 3.7990	 4.7280
 3.8020	 4.6610
 3.8040	 4.6070
 3.8070	 4.7140
 3.8100	 4.7230
 3.8130	 4.5500
 3.8160	 4.5230
 3.8180	 4.6300
 3.8210	 4.8670
 3.8240	 4.9260
 3.8270	 4.7330
 3.8300	 4.7260
 3.8330	 4.8190
 3.8350	 4.6630
 3.8380	 4.6430
 3.8410	 4.8240
 3.8440	 4.9140
 3.8470	 4.9680
 3.8500	 4.9390
 3.8520	 4.7930
 3.8550	 4.6850
 3.8580	 4.7180
 3.8610	 4.7750
 3.8640	 4.8760
 3.8670	 4.9710
 3.8700	 4.9730
 3.8730	 4.9790
 3.8750	 4.8520
 3.8780	 4.7860
 3.8810	 4.7680
 3.8840	 4.7950
 3.8870	 4.8190
 3.8900	 4.7120
 3.8930	 4.6560
 3.8960	 4.6830
 3.8990	 4.6280
 3.9020	 4.7540
 3.9050	 4.9200
 3.9080	 4.9340
 3.9110	 4.8120
 3.9140	 4.8090
 3.9160	 4.8930
 3.9190	 4.8310
 3.9220	 4.7580
 3.9250	 4.7530
 3.9280	 4.7960
 3.9310	 4.8370
 3.9340	 4.8850
 3.9370	 4.9310
 3.9400	 4.8710
 3.9430	 4.8330
 3.9460	 4.7390
 3.9490	 4.6810
 3.9520	 4.7740
 3.9550	 4.8960
 3.9580	 4.8940
 3.9610	 4.7990
 3.9640	 4.7530
 3.9670	 4.8690
 3.9700	 4.8930
 3.9730	 4.8920
 3.9770	 4.8960
 3.9800	 4.8690
 3.9830	 4.8160
 3.9860	 4.7760
 3.9890	 4.7950
 3.9920	 4.8900
 3.9950	 4.9060
 3.9980	 4.8340
 4.0010	 4.7850
 4.0040	 4.8630
 4.0070	 5.0050
 4.0100	 4.9960
 4.0130	 4.9040
 4.0170	 4.8790
 4.0200	 4.9450
 4.0230	 4.9520
 4.0260	 4.8770
 4.0290	 4.8420
 4.0320	 4.7800
 4.0350	 4.8010
 4.0380	 4.8840
 4.0420	 4.9660
 4.0450	 4.8820
 4.0480	 4.7980
 4.0510	 4.8050
 4.0540	 4.8210
 4.0570	 4.8900
 4.0610	 4.8570
 4.0640	 4.8290
 4.0670	 4.9040
 4.0700	 4.8300
 4.0730	 4.9040
 4.0770	 5.0330
 4.0800	 4.9780
 4.0830	 4.9230
 4.0860	 4.9390
 4.0890	 4.9920
 4.0930	 4.9570
 4.0960	 4.9230
 4.0990	 4.8690
 4.1020	 4.8210
 4.1060	 5.0410
 4.1090	 5.1660
 4.1120	 5.1430
 4.1150	 5.0720
 4.1190	 5.0300
 4.1220	 4.9440
 4.1250	 4.9180
 4.1280	 4.9310
 4.1320	 4.9560
 4.1350	 4.9510
 4.1380	 4.9690
 4.1420	 4.9890
 4.1450	 5.0000
 4.1480	 4.9520
 4.1520	 4.9230
 4.1550	 4.9110
 4.1580	 4.9320
 4.1620	 4.9960
 4.1650	 4.9560
 4.1680	 4.9890
 4.1720	 4.9840
 4.1750	 4.9490
 4.1780	 5.0170
 4.1820	 4.9780
 4.1850	 4.9500
 4.1890	 4.9990
 4.1920	 5.0110
 4.1950	 4.9360
 4.1990	 4.9840
 4.2020	 5.0170
 4.2060	 4.9660
 4.2090	 4.9980
 4.2120	 5.0850
 4.2160	 4.8710
 4.2190	 4.6690
 4.2230	 5.0700
 4.2260	 5.5460
 4.2300	 5.4410
 4.2330	 4.7440
 4.2360	 4.2860
 4.2400	 4.4360
 4.2430	 4.8120
 4.2470	 5.1830
 4.2500	 5.1220
 4.2540	 4.8800
 4.2570	 4.8690
 4.2610	 5.0240
 4.2640	 4.8810
 4.2680	 4.6420
 4.2710	 4.6950
 4.2750	 5.0690
 4.2780	 5.2090
 4.2820	 5.2800
 4.2850	 4.9280
 4.2890	 4.7640
 4.2930	 4.9990
 4.2960	 5.1210
 4.3000	 5.3120
 4.3030	 5.3030
 4.3070	 5.1620
 4.3100	 5.0720
 4.3140	 5.0230
 4.3180	 5.0060
 4.3210	 5.0410
 4.3250	 5.0100
 4.3280	 4.9660
 4.3320	 4.9510
 4.3360	 4.9040
 4.3390	 4.8960
 4.3430	 4.9150
 4.3470	 4.9040
 4.3500	 4.9110
 4.3540	 4.8170
 4.3570	 4.8720
 4.3610	 4.9680
 4.3650	 4.9550
 4.3680	 4.9710
 4.3720	 5.0110
 4.3760	 5.0100
 4.3800	 5.0200
 4.3830	 4.9670
 4.3870	 4.8940
 4.3910	 4.7330
 4.3940	 4.7700
 4.3980	 4.9210
 4.4020	 4.9330
 4.4060	 4.9010
 4.4090	 4.9600
 4.4130	 4.9290
 4.4170	 4.8840
 4.4210	 4.8710
 4.4240	 4.7840
 4.4280	 4.7920
 4.4320	 4.8950
 4.4360	 4.9650
 4.4400	 4.9460
 4.4430	 4.9030
 4.4470	 4.8470
 4.4510	 4.8620
 4.4550	 4.8860
 4.4590	 4.8910
 4.4620	 4.9040
 4.4660	 4.8730
 4.4700	 4.8610
 4.4740	 4.8550
 4.4780	 4.8780
 4.4820	 4.8770
 4.4860	 4.8020
 4.4900	 4.7120
 4.4930	 4.7500
 4.4970	 4.8210
 4.5010	 4.8180
 4.5050	 4.7960
 4.5090	 4.6720
 4.5130	 4.6180
 4.5170	 4.6850
 4.5210	 4.7670
 4.5250	 4.8110
 4.5290	 4.7280
 4.5330	 4.7670
 4.5370	 4.8290
 4.5410	 4.9000
 4.5450	 4.8760
 4.5490	 4.8360
 4.5530	 4.7140
 4.5570	 4.6350
 4.5610	 4.6080
 4.5650	 4.7600
 4.5690	 4.7630
 4.5730	 4.6870
 4.5770	 4.7680
 4.5810	 4.8290
 4.5850	 4.7890
 4.5890	 4.7520
 4.5930	 4.7250
 4.5970	 4.8620
 4.6010	 4.9420
 4.6050	 4.8070
 4.6090	 4.6380
 4.6130	 4.7570
 4.6170	 4.8030
 4.6220	 4.8810
 4.6260	 4.8370
 4.6300	 4.6800
 4.6340	 4.6600
 4.6380	 4.6990
 4.6420	 4.7080
 4.6460	 4.7330
 4.6510	 4.7680
 4.6550	 4.7600
 4.6590	 4.8250
 4.6630	 4.8580
 4.6670	 4.6800
 4.6720	 4.5680
 4.6760	 4.7440
 4.6800	 4.8730
 4.6840	 4.8150
 4.6880	 4.7690
 4.6930	 4.7450
 4.6970	 4.7560
 4.7010	 4.7170
 4.7050	 4.7200
 4.7100	 4.7330
 4.7140	 4.7770
 4.7180	 4.7480
 4.7230	 4.7080
 4.7270	 4.6960
 4.7310	 4.6900
 4.7360	 4.7000
 4.7400	 4.7420
 4.7440	 4.7690
 4.7490	 4.7600
 4.7530	 4.7820
 4.7570	 4.8780
 4.7620	 4.7190
 4.7660	 4.6250
 4.7700	 4.6950
 4.7750	 4.6350
 4.7790	 4.5070
 4.7840	 4.4220
 4.7880	 4.5340
 4.7920	 4.5440
 4.7970	 4.3670
 4.8010	 4.6700
 4.8060	 4.8810
 4.8100	 4.7310
 4.8150	 4.6850
 4.8190	 4.7560
 4.8240	 4.6510
 4.8280	 4.6580
 4.8330	 4.7660
 4.8370	 4.7880
 4.8420	 4.7820
 4.8460	 4.7690
 4.8510	 4.7580
 4.8550	 4.7460
 4.8600	 4.7060
 4.8640	 4.6690
 4.8690	 4.7080
 4.8730	 4.7080
 4.8780	 4.6850
 4.8830	 4.7590
 4.8870	 4.7390
 4.8920	 4.7370
 4.8960	 4.7340
 4.9010	 4.6800
 4.9060	 4.7010
 4.9100	 4.7820
 4.9150	 4.7580
 4.9200	 4.6960
 4.9240	 4.6600
 4.9290	 4.7500
 4.9340	 4.7700
 4.9380	 4.7070
 4.9430	 4.6800
 4.9480	 4.6830
 4.9530	 4.6950
 4.9570	 4.7620
 4.9620	 4.7870
 4.9670	 4.7690
 4.9720	 4.7550
 4.9760	 4.7680
 4.9810	 4.7700
 4.9860	 4.7780
 4.9910	 4.7310
 4.9960	 4.7540
 5.0000	 4.8250
 5.0050	 4.8520
 5.0100	 4.8370
 5.0150	 4.8360
 5.0200	 4.8270
 5.0250	 4.8000
 5.0290	 4.7010
 5.0340	 4.7500
 5.0390	 4.8230
 5.0440	 4.8920
 5.0490	 4.8350
 5.0540	 4.7730
 5.0590	 4.7210
 5.0640	 4.7170
 5.0690	 4.7320
 5.0740	 4.8100
 5.0790	 4.8170
 5.0840	 4.8210
 5.0890	 4.7590
 5.0940	 4.7630
 5.0990	 4.7640
 5.1040	 4.7430
 5.1090	 4.7030
 5.1140	 4.8320
 5.1190	 4.9030
 5.1240	 4.8510
 5.1290	 4.7500
 5.1340	 4.6960
 5.1390	 4.7360
 5.1440	 4.7830
 5.1490	 4.6730
 5.1540	 4.6640
 5.1600	 4.6870
 5.1650	 4.8550
 5.1700	 4.9290
 5.1750	 4.9130
 5.1800	 4.8520
 5.1850	 4.8670
 5.1910	 4.9050
 5.1960	 4.8920
 5.2010	 4.7720
 5.2060	 4.6770
 5.2110	 4.6750
 5.2170	 4.8050
 5.2220	 4.8160
 5.2270	 4.8240
 5.2320	 4.7510
 5.2380	 4.7630
 5.2430	 4.8140
 5.2480	 4.8020
 5.2540	 4.8120
 5.2590	 4.8890
 5.2640	 4.8620
 5.2700	 4.8650
 5.2750	 4.8900
 5.2800	 4.9250
 5.2860	 4.8070
 5.2910	 4.8050
 5.2970	 4.7690
 5.3020	 4.7010
 5.3070	 4.6880
 5.3130	 4.7860
 5.3180	 4.8270
 5.3240	 4.8590
 5.3290	 4.8460
 5.3350	 4.8010
 5.3400	 4.7690
 5.3460	 4.8280
 5.3510	 4.8340
 5.3570	 4.8830
 5.3620	 4.8250
 5.3680	 4.7440
 5.3730	 4.7030
 5.3790	 4.7550
 5.3850	 4.7600
 5.3900	 4.7730
 5.3960	 4.7320
 5.4010	 4.7270
 5.4070	 4.7140
 5.4130	 4.7290
 5.4180	 4.6590
 5.4240	 4.6350
 5.4300	 4.6170
 5.4350	 4.6280
 5.4410	 4.6400
 5.4470	 4.7330
 5.4530	 4.7500
 5.4580	 4.7360
 5.4640	 4.5980
 5.4700	 4.6230
 5.4760	 4.6440
 5.4810	 4.6280
 5.4870	 4.6210
 5.4930	 4.6850
 5.4990	 4.6320
 5.5050	 4.6210
 5.5110	 4.5210
 5.5160	 4.4990
 5.5220	 4.5310
 5.5280	 4.5550
 5.5340	 4.5880
 5.5400	 4.6470
 5.5460	 4.4560
 5.5520	 4.4170
 5.5580	 4.4790
 5.5640	 4.4990
 5.5700	 4.5030
 5.5760	 4.5620
 5.5820	 4.4920
 5.5880	 4.4510
 5.5940	 4.3690
 5.6000	 4.3650
 5.6060	 4.3520
 5.6120	 4.3450
 5.6180	 4.2280
 5.6240	 4.2550
 5.6300	 4.3120
 5.6360	 4.3220
 5.6420	 4.1980
 5.6490	 4.2180
 5.6550	 4.2640
 5.6610	 4.1920
 5.6670	 4.1150
 5.6730	 4.0730
 5.6800	 3.9650
 5.6860	 3.9940
 5.6920	 3.9850
 5.6980	 3.9780
 5.7040	 3.9740
 5.7110	 3.9510
 5.7170	 3.8520
 5.7230	 3.8210
 5.7300	 3.7370
 5.7360	 3.8090
 5.7420	 3.7620
 5.7490	 3.7510
 5.7550	 3.7620
 5.7620	 3.9110
 5.7680	 3.9830
 5.7740	 3.9560
 5.7810	 3.8850
 5.7870	 3.9470
 5.7940	 3.9370
 5.8000	 3.9880
 5.8070	 3.8940
 5.8130	 3.8580
 5.8200	 3.8360
 5.8260	 3.9180
 5.8330	 3.9450
 5.8390	 3.9640
 5.8460	 3.8670
 5.8530	 3.8190
 5.8590	 3.8210
 5.8660	 3.8880
 5.8720	 3.9330
 5.8790	 4.0120
 5.8860	 3.9770
 5.8920	 3.9040
 5.8990	 3.9180
 5.9060	 3.9760
 5.9130	 3.9410
 5.9190	 3.9650
 5.9260	 3.9190
 5.9330	 3.9450
 5.9400	 3.9380
 5.9470	 4.1020
 5.9530	 4.1220
 5.9600	 4.0520
 5.9670	 3.9960
 5.9740	 4.0370
 5.9810	 4.0440
 5.9880	 4.1400
 5.9950	 4.0530
 6.0020	 4.0190
 6.0090	 4.0660
 6.0160	 4.1870
 6.0230	 4.1890
 6.0300	 4.2230
 6.0370	 4.1830
 6.0440	 4.2730
 6.0510	 4.1280
 6.0580	 4.2100
 6.0650	 4.2530
 6.0720	 4.2080
 6.0790	 4.2810
 6.0860	 4.4270
 6.0930	 4.3940
 6.1000	 4.4460
 6.1080	 4.3680
 6.1150	 4.3270
 6.1220	 4.2540
 6.1290	 4.2600
 6.1370	 4.2800
 6.1440	 4.3590
 6.1510	 4.3130
 6.1580	 4.4180
 6.1660	 4.3690
 6.1730	 4.2780
 6.1800	 4.1640
 6.1880	 4.1820
 6.1950	 4.1910
 6.2030	 4.2340
 6.2100	 4.2350
 6.2170	 4.3020
 6.2250	 4.2130
 6.2320	 4.2460
 6.2400	 4.2150
 6.2470	 4.2930
 6.2550	 4.3800
 6.2630	 4.3510
 6.2700	 4.2080
 6.2780	 4.2630
 6.2850	 4.2540
 6.2930	 4.3590
 6.3010	 4.3830
 6.3080	 4.3380
 6.3160	 4.2080
 6.3240	 4.2240
 6.3310	 4.2080
 6.3390	 4.2860
 6.3470	 4.3240
 6.3550	 4.4320
 6.3620	 4.3610
 6.3700	 4.3510
 6.3780	 4.2970
 6.3860	 4.3820
 6.3940	 4.3960
 6.4020	 4.3770
 6.4100	 4.1780
 6.4180	 4.2290
 6.4260	 4.2160
 6.4330	 4.1770
 6.4410	 4.1680
 6.4490	 4.2960
 6.4580	 4.2910
 6.4660	 4.2480
 6.4740	 4.2170
 6.4820	 4.3650
 6.4900	 4.2740
 6.4980	 4.2760
 6.5060	 4.2950
 6.5140	 4.3420
 6.5230	 4.2150
 6.5310	 4.2670
 6.5390	 4.3630
 6.5470	 4.3600
 6.5550	 4.2080
 6.5640	 4.2560
 6.5720	 4.1890
 6.5800	 4.1600
 6.5890	 4.0700
 6.5970	 4.0770
 6.6060	 4.0010
 6.6140	 4.0930
 6.6220	 4.0370
 6.6310	 4.0680
 6.6390	 4.0670
 6.6480	 4.1070
 6.6560	 4.1290
 6.6650	 4.2140
 6.6740	 4.1420
 6.6820	 4.0490
 6.6910	 4.0050
 6.6990	 4.1500
 6.7080	 4.1370
 6.7170	 4.0690
 6.7260	 3.8870
 6.7340	 3.8310
 6.7430	 3.7020
 6.7520	 3.6450
 6.7610	 3.5400
 6.7690	 3.6370
 6.7780	 3.7650
 6.7870	 4.3550
 6.7960	 4.7090
 6.8050	 4.4660
 6.8140	 4.0910
 6.8230	 4.0080
 6.8320	 4.3320
 6.8410	 5.0200
 6.8500	 4.8860
 6.8590	 4.5220
 6.8680	 4.4200
 6.8770	 4.4910
 6.8860	 4.4020
 6.8950	 4.3660
 6.9050	 4.2100
 6.9140	 4.1690
 6.9230	 4.0810
 6.9320	 4.1670
 6.9420	 4.1360
 6.9510	 4.1530
 6.9600	 4.1370
 6.9700	 4.1290
 6.9790	 3.9670
 6.9880	 4.0990
 6.9980	 4.2080
 7.0070	 4.3250
 7.0170	 4.2200
 7.0260	 4.1990
 7.0360	 4.0900
 7.0450	 4.0550
 7.0550	 3.9900
 7.0650	 4.1790
 7.0740	 4.2130
 7.0840	 4.2060
 7.0940	 3.9800
 7.1030	 4.0340
 7.1130	 4.0040
 7.1230	 4.0850
 7.1330	 3.9610
 7.1420	 3.9560
 7.1520	 4.0320
 7.1620	 4.2470
 7.1720	 4.1790
 7.1820	 4.1350
 7.1920	 4.0170
 7.2020	 4.0550
 7.2120	 3.9260
 7.2220	 4.0270
 7.2320	 3.9220
 7.2420	 3.8590
 7.2520	 3.8470
 7.2620	 3.9120
 7.2730	 3.8730
 7.2830	 3.8760
 7.2930	 3.7620
 7.3030	 3.9070
 7.3140	 3.9120
 7.3240	 3.9640
 7.3340	 3.8410
 7.3450	 3.8860
 7.3550	 3.8620
 7.3660	 3.9570
 7.3760	 3.8480
 7.3870	 3.8210
 7.3970	 3.7780
 7.4080	 3.8790
 7.4180	 3.8650
 7.4290	 4.0740
 7.4400	 4.0730
 7.4500	 4.0310
 7.4610	 3.8870
 7.4720	 3.9370
 7.4830	 3.8260
 7.4930	 3.8450
 7.5040	 3.9170
 7.5150	 4.0810
 7.5260	 3.9740
 7.5370	 4.0080
 7.5480	 3.8250
 7.5590	 3.8520
 7.5700	 3.8440
 7.5810	 3.9010
 7.5920	 3.7730
 7.6030	 3.8370
 7.6140	 3.8160
 7.6260	 3.8920
 7.6370	 3.9090
 7.6480	 3.9630
 7.6590	 3.8520
 7.6710	 3.8780
 7.6820	 3.7470
 7.6930	 3.8930
 7.7050	 3.7980
 7.7160	 3.8270
 7.7280	 3.7740
 7.7390	 3.8780
 7.7510	 3.8490
 7.7630	 3.9380
 7.7740	 3.8460
 7.7860	 3.8160
 7.7980	 3.6050
 7.8090	 3.6780
 7.8210	 3.6160
 7.8330	 3.6410
 7.8450	 3.5750
 7.8570	 3.7280
 7.8690	 3.7940
 7.8810	 3.8710
 7.8930	 3.7710
 7.9050	 3.7360
 7.9170	 3.5820
 7.9290	 3.7480
 7.9410	 3.6500
 7.9530	 3.7140
 7.9650	 3.6640
 7.9780	 3.7930
 7.9900	 3.7160
 8.0020	 3.6190
 8.0150	 3.5630
 8.0270	 3.6990
 8.0390	 3.6270
 8.0520	 3.6410
 8.0640	 3.5830
 8.0770	 3.8510
 8.0900	 3.6990
 8.1020	 3.7630
 8.1150	 3.5660
 8.1280	 3.6600
 8.1400	 3.6080
 8.1530	 3.7140
 8.1660	 3.6470
 8.1790	 3.9000
 8.1920	 3.8300
 8.2050	 3.8000
 8.2180	 3.6130
 8.2310	 3.7660
 8.2440	 3.6560
 8.2570	 3.7550
 8.2700	 3.7040
 8.2830	 3.8400
 8.2970	 3.8050
 8.3100	 3.9370
 8.3230	 3.9320
 8.3370	 4.0720
 8.3500	 3.8050
 8.3640	 3.9120
 8.3770	 3.8940
 8.3910	 3.9400
 8.4040	 3.6430
 8.4180	 3.7250
 8.4320	 3.7310
 8.4450	 3.8480
 8.4590	 3.8290
 8.4730	 3.9910
 8.4870	 3.7380
 8.5010	 3.7740
 8.5150	 3.5850
 8.5290	 3.7110
 8.5430	 3.4890
 8.5570	 3.6160
 8.5710	 3.6610
 8.5850	 3.8750
 8.5990	 3.6950
 8.6140	 3.8550
 8.6280	 4.0520
 8.6420	 4.2940
 8.6570	 4.0550
 8.6710	 4.1080
 8.6860	 4.0080
 8.7000	 4.1370
 8.7150	 4.0150
 8.7300	 4.0680
 8.7440	 4.0010
 8.7590	 4.2180
 8.7740	 4.1370
 8.7890	 4.1490
 8.8040	 4.1310
 8.8190	 4.3050
 8.8340	 4.2200
 8.8490	 4.2790
 8.8640	 4.0640
 8.8790	 4.2060
 8.8940	 4.1290
 8.9100	 4.2270
 8.9250	 4.1070
 8.9400	 4.2470
 8.9560	 4.2600
 8.9710	 4.3260
 8.9870	 4.0450
 9.0020	 4.1070
 9.0180	 4.1010
 9.0340	 4.3840
 9.0500	 4.2210
 9.0650	 4.4000
 9.0810	 4.0800
 9.0970	 4.0550
 9.1130	 3.8940
 9.1290	 4.0530
 9.1450	 4.2620
 9.1610	 4.5490
 9.1780	 4.2060
 9.1940	 4.1890
 9.2100	 4.1220
 9.2270	 4.2520
 9.2430	 4.1260
 9.2600	 4.2490
 9.2760	 4.1890
 9.2930	 4.6070
 9.3090	 4.4880
 9.3260	 4.4390
 9.3430	 4.4140
 9.3600	 4.5250
 9.3770	 4.3280
 9.3940	 4.6120
 9.4110	 4.4680
 9.4280	 4.6440
 9.4450	 4.5360
 9.4620	 4.6040
 9.4800	 4.4290
 9.4970	 4.5460
 9.5140	 4.3260
 9.5320	 4.6020
 9.5500	 4.4540
 9.5670	 4.6900
 9.5850	 4.6140
 9.6030	 4.6490
 9.6200	 4.4820
 9.6380	 4.6110
 9.6560	 4.5010
 9.6740	 4.7740
 9.6920	 4.6810
 9.7100	 4.7800
 9.7290	 4.3740
 9.7470	 4.5160
 9.7650	 4.6420
 9.7840	 4.7930
 9.8020	 4.4940
 9.8210	 4.7720
 9.8390	 4.7740
 9.8580	 4.8370
 9.8770	 4.6020
 9.8960	 4.7830
 9.9150	 4.7630
 9.9340	 4.7320
 9.9530	 4.4100
 9.9720	 4.5260
 9.9910	 4.3240
10.0100	 4.5120
10.0300	 4.5050
10.0490	 4.6650
10.0690	 4.5110
10.0880	 4.6050
10.1080	 4.5120
10.1280	 4.5970
10.1480	 4.4050
10.1670	 4.5580
10.1870	 4.4210
10.2070	 4.4920
10.2280	 4.3410
10.2480	 4.4650
10.2680	 4.3900
10.2890	 4.6620
10.3090	 4.6090
10.3300	 4.7590
10.3500	 4.7510
10.3710	 4.7480
10.3920	 4.2670
10.4120	 4.3310
10.4330	 4.4280
10.4540	 4.7010
10.4760	 4.5010
10.4970	 4.5550
10.5180	 4.5410
10.5390	 4.7640
10.5610	 4.7240
10.5820	 4.8520
10.6040	 4.5260
10.6260	 4.6550
10.6480	 4.6760
10.6700	 4.9100
10.6920	 4.7500
10.7140	 4.8860
10.7360	 4.5850
10.7580	 4.6770
10.7800	 4.6250
10.8030	 4.8140
10.8250	 4.8280
10.8480	 5.0810
10.8710	 4.7680
10.8940	 4.8680
10.9170	 4.6000
10.9400	 4.7180
10.9630	 4.6800
10.9860	 4.8650
11.0090	 4.6430
11.0330	 4.7390
11.0560	 4.3280
11.0800	 4.4580
11.1040	 4.4590
11.1270	 4.6560
11.1510	 4.5340
11.1750	 4.5630
11.2000	 4.3990
11.2240	 4.6920
11.2480	 4.5490
11.2730	 4.9010
11.2970	 5.2380
11.3220	 5.1080
11.3470	 4.5570
11.3720	 4.7780
11.3970	 4.7400
11.4220	 4.8710
11.4470	 4.5920
11.4720	 4.4860
11.4980	 4.4650
11.5230	 4.8740
11.5490	 4.6980
11.5750	 4.8020
11.6000	 4.7840
11.6260	 4.9340
11.6530	 4.5640
11.6790	 4.6990
11.7050	 4.7160
11.7320	 4.9390
11.7580	 4.6320
11.7850	 4.8510
11.8120	 4.6090
11.8390	 4.7360
11.8660	 4.4000
11.8930	 4.4910
11.9200	 4.4320
11.9480	 4.6620
11.9760	 4.5370
12.0030	 4.7740
12.0310	 4.5670
12.0590	 4.6940
12.0870	 4.3030
12.1150	 4.5350
12.1440	 4.5580
12.1720	 4.7780
12.2010	 4.6150
12.2300	 4.6900
12.2590	 4.5810
12.2880	 4.9640
12.3170	 4.7770
12.3460	 4.9600
12.3760	 4.5980
12.4050	 4.6220
12.4350	 4.1640
12.4650	 4.4380
12.4950	 4.4270
12.5250	 4.7530
12.5550	 4.7280
12.5860	 5.0280
12.6170	 4.6020
12.6470	 4.7300
12.6780	 4.6380
12.7090	 4.8660
12.7410	 4.4250
12.7720	 4.5800
12.8030	 4.4040
12.8350	 4.6310
12.8670	 4.3830
12.8990	 4.5950
12.9310	 4.3070
12.9640	 4.6170
12.9960	 4.4670
13.0290	 4.6950
13.0610	 4.5330
13.0940	 4.9200
13.1280	 4.7560
13.1610	 4.9170
13.1940	 4.5570
13.2280	 4.7230
13.2620	 4.3380
13.2960	 4.3610
13.3300	 4.1970
13.3640	 4.6200
13.3990	 4.3670
13.4340	 4.7040
13.4690	 4.3820
13.5040	 4.2660
13.5390	 3.9120
13.5740	 4.3730
13.6100	 4.1740
13.6460	 4.6860
13.6820	 5.0730
13.7180	 5.2990
13.7540	 4.5020
13.7910	 4.7270
13.8280	 4.5160
13.8650	 4.9400
13.9020	 4.9720
13.9390	 5.4420
13.9770	 4.9180
14.0150	 5.1380
14.0530	 4.8010
14.0910	 5.1200
14.1290	 4.5850
14.1680	 4.7580
14.2070	 4.5140
14.2460	 5.2010
14.2850	 4.7330
14.3240	 5.0530
14.3640	 4.6410
14.4040	 4.8890
14.4440	 4.1850
14.4840	 4.4460
14.5250	 4.0980
14.5660	 4.6390
14.6070	 4.0970
14.6480	 4.5340
14.6900	 4.0780
14.7310	 4.6470
14.7730	 4.5480
14.8150	 5.0720
14.8580	 3.8450
14.9010	 4.0070
14.9440	 3.7290
14.9870	 4.8630
15.0300	 3.4440
15.0740	 4.1630
15.1180	 4.3910
15.1620	 4.9460
15.2060	 4.0650
15.2510	 5.7450
15.2960	 5.7050
15.3410	 5.1780
15.3870	 4.3580
