Name: Abies concolor 1
Type: vegetation
Class: Tree
Genus: Abies
Species: concolor
Sample No.: VH246
Owner: UCSB
Wavelength Range: VSWIR
Origin: 37.044; -119.3035; WGS84
Collection Date: 11/2/2013
Description: Samples were collected as part of the HyspIRI Airborne Campaign. 48 individual plants were sampled in three times in 2013 - spring  summer  and fall. The name of the sample includes a 1  2  or 3 which references a different individual of the species. Samples were taken to JPL and processed within 48 hours of collection. The same leaves were processed in the Nicolet and then measured using the ASD.
Measurement: Bidirectional reflectance
First Column: X
Second Column: Y
X Units: Wavelength (micrometers)
Y Units: Reflectance (percentage)
First X Value: 0.35
Last X Value: 2.5
Number of X Values: 2151
Additional Information: vegetation.tree.abies.concolor.vswir.vh246.ucsb.asd.ancillary.txt

 0.3500	 8.5550
 0.3510	 8.3770
 0.3520	 8.3010
 0.3530	 8.2750
 0.3540	 8.2460
 0.3550	 8.2950
 0.3560	 8.3240
 0.3570	 8.3020
 0.3580	 8.2440
 0.3590	 8.2250
 0.3600	 8.3150
 0.3610	 8.4160
 0.3620	 8.1990
 0.3630	 8.0840
 0.3640	 8.1070
 0.3650	 8.1700
 0.3660	 8.1080
 0.3670	 8.0340
 0.3680	 7.9950
 0.3690	 7.9820
 0.3700	 8.0340
 0.3710	 8.0730
 0.3720	 8.0700
 0.3730	 8.1250
 0.3740	 8.1040
 0.3750	 8.0340
 0.3760	 7.9880
 0.3770	 7.9910
 0.3780	 8.0220
 0.3790	 8.0400
 0.3800	 7.9940
 0.3810	 7.9960
 0.3820	 8.0330
 0.3830	 8.0660
 0.3840	 8.0440
 0.3850	 8.0040
 0.3860	 7.9910
 0.3870	 8.0270
 0.3880	 7.9950
 0.3890	 7.9460
 0.3900	 7.9320
 0.3910	 7.9890
 0.3920	 8.0440
 0.3930	 8.0520
 0.3940	 8.0190
 0.3950	 8.0570
 0.3960	 8.0660
 0.3970	 8.0450
 0.3980	 8.0470
 0.3990	 8.1090
 0.4000	 8.1480
 0.4010	 8.1440
 0.4020	 8.1730
 0.4030	 8.2010
 0.4040	 8.2310
 0.4050	 8.2710
 0.4060	 8.3060
 0.4070	 8.3530
 0.4080	 8.4070
 0.4090	 8.4490
 0.4100	 8.4980
 0.4110	 8.5430
 0.4120	 8.5810
 0.4130	 8.6430
 0.4140	 8.7080
 0.4150	 8.7770
 0.4160	 8.8490
 0.4170	 8.8990
 0.4180	 8.9550
 0.4190	 9.0190
 0.4200	 9.0730
 0.4210	 9.1220
 0.4220	 9.1780
 0.4230	 9.2450
 0.4240	 9.3060
 0.4250	 9.3610
 0.4260	 9.4170
 0.4270	 9.4810
 0.4280	 9.5220
 0.4290	 9.5620
 0.4300	 9.6120
 0.4310	 9.6580
 0.4320	 9.7000
 0.4330	 9.7300
 0.4340	 9.7490
 0.4350	 9.7810
 0.4360	 9.8200
 0.4370	 9.8630
 0.4380	 9.9100
 0.4390	 9.9510
 0.4400	 9.9910
 0.4410	10.0340
 0.4420	10.0670
 0.4430	10.1010
 0.4440	10.1380
 0.4450	10.1770
 0.4460	10.2130
 0.4470	10.2420
 0.4480	10.2670
 0.4490	10.3030
 0.4500	10.3360
 0.4510	10.3720
 0.4520	10.4140
 0.4530	10.4410
 0.4540	10.4660
 0.4550	10.4910
 0.4560	10.5110
 0.4570	10.5290
 0.4580	10.5420
 0.4590	10.5510
 0.4600	10.5590
 0.4610	10.5640
 0.4620	10.5680
 0.4630	10.5750
 0.4640	10.5830
 0.4650	10.5830
 0.4660	10.5780
 0.4670	10.5850
 0.4680	10.5900
 0.4690	10.5820
 0.4700	10.5650
 0.4710	10.5700
 0.4720	10.5810
 0.4730	10.5880
 0.4740	10.5880
 0.4750	10.5920
 0.4760	10.5970
 0.4770	10.6040
 0.4780	10.6090
 0.4790	10.6170
 0.4800	10.6260
 0.4810	10.6310
 0.4820	10.6310
 0.4830	10.6340
 0.4840	10.6440
 0.4850	10.6530
 0.4860	10.6620
 0.4870	10.6770
 0.4880	10.7040
 0.4890	10.7350
 0.4900	10.7720
 0.4910	10.8120
 0.4920	10.8500
 0.4930	10.8900
 0.4940	10.9400
 0.4950	11.0040
 0.4960	11.0750
 0.4970	11.1540
 0.4980	11.2390
 0.4990	11.3310
 0.5000	11.4360
 0.5010	11.5480
 0.5020	11.6690
 0.5030	11.8040
 0.5040	11.9530
 0.5050	12.1130
 0.5060	12.2820
 0.5070	12.4670
 0.5080	12.6730
 0.5090	12.8920
 0.5100	13.1150
 0.5110	13.3610
 0.5120	13.6200
 0.5130	13.8880
 0.5140	14.1720
 0.5150	14.4740
 0.5160	14.7890
 0.5170	15.1100
 0.5180	15.4340
 0.5190	15.7600
 0.5200	16.0860
 0.5210	16.4130
 0.5220	16.7400
 0.5230	17.0560
 0.5240	17.3570
 0.5250	17.6460
 0.5260	17.9130
 0.5270	18.1630
 0.5280	18.4010
 0.5290	18.6120
 0.5300	18.8050
 0.5310	18.9850
 0.5320	19.1490
 0.5330	19.2970
 0.5340	19.4260
 0.5350	19.5380
 0.5360	19.6390
 0.5370	19.7280
 0.5380	19.8080
 0.5390	19.8750
 0.5400	19.9310
 0.5410	19.9820
 0.5420	20.0320
 0.5430	20.0760
 0.5440	20.1290
 0.5450	20.1880
 0.5460	20.2450
 0.5470	20.3060
 0.5480	20.3690
 0.5490	20.4240
 0.5500	20.4640
 0.5510	20.4930
 0.5520	20.5070
 0.5530	20.5040
 0.5540	20.4900
 0.5550	20.4570
 0.5560	20.4030
 0.5570	20.3370
 0.5580	20.2490
 0.5590	20.1460
 0.5600	20.0290
 0.5610	19.8990
 0.5620	19.7610
 0.5630	19.6140
 0.5640	19.4540
 0.5650	19.2950
 0.5660	19.1270
 0.5670	18.9490
 0.5680	18.7690
 0.5690	18.5830
 0.5700	18.3930
 0.5710	18.2010
 0.5720	18.0080
 0.5730	17.8230
 0.5740	17.6460
 0.5750	17.4740
 0.5760	17.3070
 0.5770	17.1480
 0.5780	16.9970
 0.5790	16.8630
 0.5800	16.7350
 0.5810	16.6150
 0.5820	16.5060
 0.5830	16.4000
 0.5840	16.3040
 0.5850	16.2180
 0.5860	16.1280
 0.5870	16.0440
 0.5880	15.9690
 0.5890	15.9040
 0.5900	15.8410
 0.5910	15.7770
 0.5920	15.7120
 0.5930	15.6510
 0.5940	15.6070
 0.5950	15.5710
 0.5960	15.5340
 0.5970	15.4950
 0.5980	15.4520
 0.5990	15.4060
 0.6000	15.3590
 0.6010	15.3130
 0.6020	15.2550
 0.6030	15.1850
 0.6040	15.1160
 0.6050	15.0320
 0.6060	14.9400
 0.6070	14.8450
 0.6080	14.7450
 0.6090	14.6340
 0.6100	14.5120
 0.6110	14.3820
 0.6120	14.2730
 0.6130	14.1760
 0.6140	14.0840
 0.6150	13.9870
 0.6160	13.8980
 0.6170	13.8130
 0.6180	13.7270
 0.6190	13.6490
 0.6200	13.5800
 0.6210	13.5200
 0.6220	13.4660
 0.6230	13.4200
 0.6240	13.3840
 0.6250	13.3570
 0.6260	13.3280
 0.6270	13.3070
 0.6280	13.2920
 0.6290	13.2800
 0.6300	13.2650
 0.6310	13.2530
 0.6320	13.2420
 0.6330	13.2210
 0.6340	13.1940
 0.6350	13.1540
 0.6360	13.0980
 0.6370	13.0270
 0.6380	12.9430
 0.6390	12.8480
 0.6400	12.7440
 0.6410	12.6270
 0.6420	12.5030
 0.6430	12.3790
 0.6440	12.2470
 0.6450	12.1150
 0.6460	11.9850
 0.6470	11.8590
 0.6480	11.7430
 0.6490	11.6360
 0.6500	11.5380
 0.6510	11.4490
 0.6520	11.3700
 0.6530	11.2950
 0.6540	11.2230
 0.6550	11.1490
 0.6560	11.0680
 0.6570	10.9810
 0.6580	10.8880
 0.6590	10.7830
 0.6600	10.6730
 0.6610	10.5620
 0.6620	10.4510
 0.6630	10.3460
 0.6640	10.2470
 0.6650	10.1540
 0.6660	10.0760
 0.6670	10.0070
 0.6680	 9.9480
 0.6690	 9.9040
 0.6700	 9.8690
 0.6710	 9.8450
 0.6720	 9.8320
 0.6730	 9.8300
 0.6740	 9.8330
 0.6750	 9.8420
 0.6760	 9.8600
 0.6770	 9.8810
 0.6780	 9.9130
 0.6790	 9.9590
 0.6800	10.0140
 0.6810	10.0790
 0.6820	10.1640
 0.6830	10.2730
 0.6840	10.4050
 0.6850	10.5680
 0.6860	10.7710
 0.6870	11.0240
 0.6880	11.3270
 0.6890	11.6910
 0.6900	12.1240
 0.6910	12.6300
 0.6920	13.2160
 0.6930	13.8760
 0.6940	14.6090
 0.6950	15.4240
 0.6960	16.3030
 0.6970	17.2410
 0.6980	18.2330
 0.6990	19.2740
 0.7000	20.3500
 0.7010	21.4540
 0.7020	22.5830
 0.7030	23.7210
 0.7040	24.8630
 0.7050	26.0030
 0.7060	27.1460
 0.7070	28.2730
 0.7080	29.3860
 0.7090	30.5000
 0.7100	31.6090
 0.7110	32.7000
 0.7120	33.7720
 0.7130	34.8390
 0.7140	35.8940
 0.7150	36.9290
 0.7160	37.9400
 0.7170	38.9390
 0.7180	39.9220
 0.7190	40.8820
 0.7200	41.8130
 0.7210	42.7290
 0.7220	43.6190
 0.7230	44.4780
 0.7240	45.3110
 0.7250	46.1170
 0.7260	46.8950
 0.7270	47.6400
 0.7280	48.3370
 0.7290	49.0120
 0.7300	49.6600
 0.7310	50.2680
 0.7320	50.8390
 0.7330	51.3840
 0.7340	51.9050
 0.7350	52.3920
 0.7360	52.8530
 0.7370	53.2840
 0.7380	53.6860
 0.7390	54.0640
 0.7400	54.4280
 0.7410	54.7690
 0.7420	55.0740
 0.7430	55.3630
 0.7440	55.6250
 0.7450	55.8650
 0.7460	56.1020
 0.7470	56.3150
 0.7480	56.5000
 0.7490	56.6640
 0.7500	56.8380
 0.7510	56.9860
 0.7520	57.1070
 0.7530	57.2130
 0.7540	57.3130
 0.7550	57.4180
 0.7560	57.5130
 0.7570	57.5730
 0.7580	57.6400
 0.7590	57.7060
 0.7600	57.7610
 0.7610	57.8150
 0.7620	57.8520
 0.7630	57.8880
 0.7640	57.9350
 0.7650	57.9600
 0.7660	57.9760
 0.7670	57.9930
 0.7680	58.0120
 0.7690	58.0270
 0.7700	58.0440
 0.7710	58.0620
 0.7720	58.0650
 0.7730	58.0660
 0.7740	58.0700
 0.7750	58.0810
 0.7760	58.1020
 0.7770	58.1100
 0.7780	58.1120
 0.7790	58.1200
 0.7800	58.1230
 0.7810	58.1240
 0.7820	58.1320
 0.7830	58.1500
 0.7840	58.1600
 0.7850	58.1590
 0.7860	58.1530
 0.7870	58.1590
 0.7880	58.1680
 0.7890	58.1730
 0.7900	58.1720
 0.7910	58.1870
 0.7920	58.1970
 0.7930	58.1990
 0.7940	58.2050
 0.7950	58.2110
 0.7960	58.2190
 0.7970	58.2300
 0.7980	58.2340
 0.7990	58.2350
 0.8000	58.2350
 0.8010	58.2410
 0.8020	58.2620
 0.8030	58.2650
 0.8040	58.2620
 0.8050	58.2760
 0.8060	58.2800
 0.8070	58.2800
 0.8080	58.2810
 0.8090	58.2850
 0.8100	58.2940
 0.8110	58.3120
 0.8120	58.3310
 0.8130	58.3180
 0.8140	58.3160
 0.8150	58.3300
 0.8160	58.3510
 0.8170	58.3540
 0.8180	58.3550
 0.8190	58.3590
 0.8200	58.3670
 0.8210	58.3740
 0.8220	58.3780
 0.8230	58.3820
 0.8240	58.3910
 0.8250	58.3980
 0.8260	58.3930
 0.8270	58.3810
 0.8280	58.3920
 0.8290	58.3940
 0.8300	58.3930
 0.8310	58.3970
 0.8320	58.3950
 0.8330	58.4020
 0.8340	58.4100
 0.8350	58.4020
 0.8360	58.4110
 0.8370	58.4240
 0.8380	58.4370
 0.8390	58.4520
 0.8400	58.4480
 0.8410	58.4540
 0.8420	58.4760
 0.8430	58.4840
 0.8440	58.5020
 0.8450	58.5230
 0.8460	58.5350
 0.8470	58.5380
 0.8480	58.5550
 0.8490	58.5690
 0.8500	58.5600
 0.8510	58.5690
 0.8520	58.5830
 0.8530	58.5980
 0.8540	58.6160
 0.8550	58.6130
 0.8560	58.6150
 0.8570	58.6320
 0.8580	58.6550
 0.8590	58.6650
 0.8600	58.6690
 0.8610	58.6730
 0.8620	58.6800
 0.8630	58.6830
 0.8640	58.6850
 0.8650	58.6900
 0.8660	58.7010
 0.8670	58.7070
 0.8680	58.7060
 0.8690	58.7050
 0.8700	58.7090
 0.8710	58.7200
 0.8720	58.7320
 0.8730	58.7350
 0.8740	58.7340
 0.8750	58.7340
 0.8760	58.7370
 0.8770	58.7380
 0.8780	58.7350
 0.8790	58.7270
 0.8800	58.7200
 0.8810	58.7310
 0.8820	58.7330
 0.8830	58.7280
 0.8840	58.7260
 0.8850	58.7290
 0.8860	58.7220
 0.8870	58.7200
 0.8880	58.7340
 0.8890	58.7320
 0.8900	58.7200
 0.8910	58.7070
 0.8920	58.6980
 0.8930	58.6920
 0.8940	58.6820
 0.8950	58.6750
 0.8960	58.6740
 0.8970	58.6550
 0.8980	58.6400
 0.8990	58.6440
 0.9000	58.6620
 0.9010	58.6520
 0.9020	58.6300
 0.9030	58.6110
 0.9040	58.5950
 0.9050	58.5840
 0.9060	58.5740
 0.9070	58.5650
 0.9080	58.5570
 0.9090	58.5430
 0.9100	58.5330
 0.9110	58.5320
 0.9120	58.5200
 0.9130	58.4920
 0.9140	58.4660
 0.9150	58.4610
 0.9160	58.4540
 0.9170	58.4340
 0.9180	58.4180
 0.9190	58.4200
 0.9200	58.4020
 0.9210	58.3690
 0.9220	58.3330
 0.9230	58.3100
 0.9240	58.2970
 0.9250	58.2670
 0.9260	58.2240
 0.9270	58.1940
 0.9280	58.1600
 0.9290	58.1210
 0.9300	58.0760
 0.9310	58.0220
 0.9320	57.9800
 0.9330	57.9410
 0.9340	57.8930
 0.9350	57.8290
 0.9360	57.7870
 0.9370	57.7410
 0.9380	57.6780
 0.9390	57.6220
 0.9400	57.5600
 0.9410	57.4930
 0.9420	57.4260
 0.9430	57.3590
 0.9440	57.2890
 0.9450	57.2170
 0.9460	57.1380
 0.9470	57.0270
 0.9480	56.9220
 0.9490	56.8190
 0.9500	56.7040
 0.9510	56.5760
 0.9520	56.4510
 0.9530	56.3220
 0.9540	56.1810
 0.9550	56.0400
 0.9560	55.9220
 0.9570	55.8100
 0.9580	55.6850
 0.9590	55.5620
 0.9600	55.4690
 0.9610	55.3920
 0.9620	55.3070
 0.9630	55.2400
 0.9640	55.1870
 0.9650	55.1370
 0.9660	55.0790
 0.9670	55.0370
 0.9680	55.0230
 0.9690	55.0170
 0.9700	54.9970
 0.9710	54.9810
 0.9720	54.9480
 0.9730	54.9240
 0.9740	54.9430
 0.9750	54.9390
 0.9760	54.9460
 0.9770	54.9590
 0.9780	54.9570
 0.9790	54.9630
 0.9800	54.9960
 0.9810	55.0240
 0.9820	55.0100
 0.9830	55.0240
 0.9840	55.0580
 0.9850	55.1080
 0.9860	55.1640
 0.9870	55.1850
 0.9880	55.2260
 0.9890	55.2890
 0.9900	55.3410
 0.9910	55.3810
 0.9920	55.4210
 0.9930	55.4680
 0.9940	55.5220
 0.9950	55.5710
 0.9960	55.6260
 0.9970	55.6970
 0.9980	55.7770
 0.9990	55.8150
 1.0000	55.9490
 1.0010	56.1240
 1.0020	56.2640
 1.0030	56.3150
 1.0040	56.3710
 1.0050	56.4340
 1.0060	56.4940
 1.0070	56.5540
 1.0080	56.6110
 1.0090	56.6610
 1.0100	56.7170
 1.0110	56.7740
 1.0120	56.8310
 1.0130	56.8890
 1.0140	56.9450
 1.0150	57.0020
 1.0160	57.0550
 1.0170	57.1110
 1.0180	57.1660
 1.0190	57.2210
 1.0200	57.2760
 1.0210	57.3280
 1.0220	57.3800
 1.0230	57.4310
 1.0240	57.4810
 1.0250	57.5280
 1.0260	57.5720
 1.0270	57.6160
 1.0280	57.6570
 1.0290	57.7000
 1.0300	57.7460
 1.0310	57.7880
 1.0320	57.8270
 1.0330	57.8680
 1.0340	57.9090
 1.0350	57.9500
 1.0360	57.9950
 1.0370	58.0340
 1.0380	58.0700
 1.0390	58.1010
 1.0400	58.1380
 1.0410	58.1750
 1.0420	58.2090
 1.0430	58.2460
 1.0440	58.2780
 1.0450	58.3050
 1.0460	58.3320
 1.0470	58.3590
 1.0480	58.3850
 1.0490	58.4110
 1.0500	58.4350
 1.0510	58.4580
 1.0520	58.4830
 1.0530	58.5030
 1.0540	58.5200
 1.0550	58.5370
 1.0560	58.5510
 1.0570	58.5650
 1.0580	58.5780
 1.0590	58.5930
 1.0600	58.6080
 1.0610	58.6220
 1.0620	58.6400
 1.0630	58.6500
 1.0640	58.6490
 1.0650	58.6550
 1.0660	58.6620
 1.0670	58.6680
 1.0680	58.6750
 1.0690	58.6870
 1.0700	58.6940
 1.0710	58.6970
 1.0720	58.7000
 1.0730	58.7030
 1.0740	58.7010
 1.0750	58.6910
 1.0760	58.6870
 1.0770	58.6840
 1.0780	58.6780
 1.0790	58.6700
 1.0800	58.6630
 1.0810	58.6530
 1.0820	58.6420
 1.0830	58.6350
 1.0840	58.6230
 1.0850	58.6060
 1.0860	58.5900
 1.0870	58.5730
 1.0880	58.5560
 1.0890	58.5400
 1.0900	58.5260
 1.0910	58.5080
 1.0920	58.4890
 1.0930	58.4660
 1.0940	58.4400
 1.0950	58.4120
 1.0960	58.3780
 1.0970	58.3480
 1.0980	58.3170
 1.0990	58.2870
 1.1000	58.2600
 1.1010	58.2320
 1.1020	58.2040
 1.1030	58.1730
 1.1040	58.1390
 1.1050	58.1040
 1.1060	58.0690
 1.1070	58.0320
 1.1080	57.9940
 1.1090	57.9580
 1.1100	57.9180
 1.1110	57.8760
 1.1120	57.8320
 1.1130	57.7860
 1.1140	57.7380
 1.1150	57.6900
 1.1160	57.6370
 1.1170	57.5830
 1.1180	57.5220
 1.1190	57.4560
 1.1200	57.3860
 1.1210	57.3070
 1.1220	57.2230
 1.1230	57.1320
 1.1240	57.0330
 1.1250	56.9240
 1.1260	56.8110
 1.1270	56.6800
 1.1280	56.5370
 1.1290	56.3820
 1.1300	56.2170
 1.1310	56.0340
 1.1320	55.8380
 1.1330	55.6260
 1.1340	55.3960
 1.1350	55.1540
 1.1360	54.8990
 1.1370	54.6290
 1.1380	54.3470
 1.1390	54.0590
 1.1400	53.7610
 1.1410	53.4640
 1.1420	53.1650
 1.1430	52.8610
 1.1440	52.5630
 1.1450	52.2610
 1.1460	51.9740
 1.1470	51.6860
 1.1480	51.4180
 1.1490	51.1580
 1.1500	50.9170
 1.1510	50.6890
 1.1520	50.4790
 1.1530	50.2860
 1.1540	50.1100
 1.1550	49.9510
 1.1560	49.8090
 1.1570	49.6810
 1.1580	49.5730
 1.1590	49.4780
 1.1600	49.3940
 1.1610	49.3210
 1.1620	49.2580
 1.1630	49.2040
 1.1640	49.1570
 1.1650	49.1160
 1.1660	49.0860
 1.1670	49.0570
 1.1680	49.0330
 1.1690	49.0090
 1.1700	48.9890
 1.1710	48.9670
 1.1720	48.9470
 1.1730	48.9260
 1.1740	48.9050
 1.1750	48.8810
 1.1760	48.8570
 1.1770	48.8320
 1.1780	48.8050
 1.1790	48.7780
 1.1800	48.7490
 1.1810	48.7180
 1.1820	48.6860
 1.1830	48.6530
 1.1840	48.6210
 1.1850	48.5880
 1.1860	48.5550
 1.1870	48.5260
 1.1880	48.4980
 1.1890	48.4710
 1.1900	48.4470
 1.1910	48.4260
 1.1920	48.4100
 1.1930	48.3960
 1.1940	48.3870
 1.1950	48.3820
 1.1960	48.3800
 1.1970	48.3810
 1.1980	48.3840
 1.1990	48.3930
 1.2000	48.4050
 1.2010	48.4190
 1.2020	48.4390
 1.2030	48.4600
 1.2040	48.4850
 1.2050	48.5160
 1.2060	48.5510
 1.2070	48.5890
 1.2080	48.6300
 1.2090	48.6720
 1.2100	48.7160
 1.2110	48.7630
 1.2120	48.8120
 1.2130	48.8650
 1.2140	48.9220
 1.2150	48.9800
 1.2160	49.0410
 1.2170	49.1020
 1.2180	49.1660
 1.2190	49.2310
 1.2200	49.2970
 1.2210	49.3650
 1.2220	49.4320
 1.2230	49.4990
 1.2240	49.5660
 1.2250	49.6320
 1.2260	49.6980
 1.2270	49.7610
 1.2280	49.8240
 1.2290	49.8830
 1.2300	49.9410
 1.2310	49.9960
 1.2320	50.0520
 1.2330	50.1080
 1.2340	50.1620
 1.2350	50.2160
 1.2360	50.2670
 1.2370	50.3150
 1.2380	50.3600
 1.2390	50.4060
 1.2400	50.4490
 1.2410	50.4910
 1.2420	50.5340
 1.2430	50.5760
 1.2440	50.6160
 1.2450	50.6530
 1.2460	50.6880
 1.2470	50.7230
 1.2480	50.7560
 1.2490	50.7860
 1.2500	50.8160
 1.2510	50.8430
 1.2520	50.8680
 1.2530	50.8940
 1.2540	50.9190
 1.2550	50.9400
 1.2560	50.9600
 1.2570	50.9780
 1.2580	50.9960
 1.2590	51.0110
 1.2600	51.0240
 1.2610	51.0350
 1.2620	51.0440
 1.2630	51.0490
 1.2640	51.0530
 1.2650	51.0570
 1.2660	51.0570
 1.2670	51.0560
 1.2680	51.0530
 1.2690	51.0460
 1.2700	51.0380
 1.2710	51.0320
 1.2720	51.0230
 1.2730	51.0110
 1.2740	50.9960
 1.2750	50.9780
 1.2760	50.9570
 1.2770	50.9350
 1.2780	50.9070
 1.2790	50.8790
 1.2800	50.8490
 1.2810	50.8180
 1.2820	50.7860
 1.2830	50.7500
 1.2840	50.7100
 1.2850	50.6660
 1.2860	50.6170
 1.2870	50.5660
 1.2880	50.5110
 1.2890	50.4520
 1.2900	50.3920
 1.2910	50.3300
 1.2920	50.2630
 1.2930	50.1940
 1.2940	50.1200
 1.2950	50.0410
 1.2960	49.9580
 1.2970	49.8710
 1.2980	49.7810
 1.2990	49.6850
 1.3000	49.5850
 1.3010	49.4790
 1.3020	49.3680
 1.3030	49.2540
 1.3040	49.1380
 1.3050	49.0150
 1.3060	48.8870
 1.3070	48.7530
 1.3080	48.6130
 1.3090	48.4700
 1.3100	48.3220
 1.3110	48.1660
 1.3120	48.0050
 1.3130	47.8410
 1.3140	47.6710
 1.3150	47.4960
 1.3160	47.3170
 1.3170	47.1340
 1.3180	46.9430
 1.3190	46.7460
 1.3200	46.5450
 1.3210	46.3370
 1.3220	46.1260
 1.3230	45.9130
 1.3240	45.6950
 1.3250	45.4750
 1.3260	45.2490
 1.3270	45.0170
 1.3280	44.7830
 1.3290	44.5440
 1.3300	44.3050
 1.3310	44.0670
 1.3320	43.8250
 1.3330	43.5850
 1.3340	43.3430
 1.3350	43.0980
 1.3360	42.8570
 1.3370	42.6150
 1.3380	42.3750
 1.3390	42.1360
 1.3400	41.8980
 1.3410	41.6640
 1.3420	41.4340
 1.3430	41.2050
 1.3440	40.9820
 1.3450	40.7600
 1.3460	40.5380
 1.3470	40.3220
 1.3480	40.1090
 1.3490	39.9000
 1.3500	39.6950
 1.3510	39.4910
 1.3520	39.2890
 1.3530	39.0890
 1.3540	38.8900
 1.3550	38.6920
 1.3560	38.4940
 1.3570	38.2930
 1.3580	38.0920
 1.3590	37.8870
 1.3600	37.6770
 1.3610	37.4640
 1.3620	37.2440
 1.3630	37.0180
 1.3640	36.7840
 1.3650	36.5390
 1.3660	36.2860
 1.3670	36.0200
 1.3680	35.7430
 1.3690	35.4520
 1.3700	35.1430
 1.3710	34.8210
 1.3720	34.4830
 1.3730	34.1250
 1.3740	33.7540
 1.3750	33.3610
 1.3760	32.9450
 1.3770	32.5100
 1.3780	32.0480
 1.3790	31.5650
 1.3800	31.0620
 1.3810	30.5330
 1.3820	29.9900
 1.3830	29.4300
 1.3840	28.8570
 1.3850	28.2650
 1.3860	27.6700
 1.3870	27.0570
 1.3880	26.4510
 1.3890	25.8410
 1.3900	25.2300
 1.3910	24.6290
 1.3920	24.0320
 1.3930	23.4380
 1.3940	22.8580
 1.3950	22.2850
 1.3960	21.7270
 1.3970	21.1900
 1.3980	20.6690
 1.3990	20.1740
 1.4000	19.6990
 1.4010	19.2420
 1.4020	18.8110
 1.4030	18.3990
 1.4040	18.0100
 1.4050	17.6460
 1.4060	17.3040
 1.4070	16.9870
 1.4080	16.6910
 1.4090	16.4140
 1.4100	16.1580
 1.4110	15.9190
 1.4120	15.6980
 1.4130	15.4950
 1.4140	15.3090
 1.4150	15.1400
 1.4160	14.9840
 1.4170	14.8420
 1.4180	14.7120
 1.4190	14.5930
 1.4200	14.4850
 1.4210	14.3880
 1.4220	14.3000
 1.4230	14.2210
 1.4240	14.1500
 1.4250	14.0860
 1.4260	14.0290
 1.4270	13.9770
 1.4280	13.9330
 1.4290	13.8940
 1.4300	13.8610
 1.4310	13.8320
 1.4320	13.8080
 1.4330	13.7880
 1.4340	13.7730
 1.4350	13.7610
 1.4360	13.7530
 1.4370	13.7490
 1.4380	13.7480
 1.4390	13.7490
 1.4400	13.7520
 1.4410	13.7580
 1.4420	13.7660
 1.4430	13.7760
 1.4440	13.7870
 1.4450	13.8000
 1.4460	13.8130
 1.4470	13.8270
 1.4480	13.8440
 1.4490	13.8610
 1.4500	13.8790
 1.4510	13.8980
 1.4520	13.9180
 1.4530	13.9390
 1.4540	13.9620
 1.4550	13.9860
 1.4560	14.0110
 1.4570	14.0390
 1.4580	14.0690
 1.4590	14.1020
 1.4600	14.1380
 1.4610	14.1760
 1.4620	14.2170
 1.4630	14.2630
 1.4640	14.3110
 1.4650	14.3630
 1.4660	14.4190
 1.4670	14.4800
 1.4680	14.5450
 1.4690	14.6130
 1.4700	14.6840
 1.4710	14.7590
 1.4720	14.8370
 1.4730	14.9180
 1.4740	15.0020
 1.4750	15.0890
 1.4760	15.1780
 1.4770	15.2700
 1.4780	15.3640
 1.4790	15.4600
 1.4800	15.5580
 1.4810	15.6560
 1.4820	15.7580
 1.4830	15.8590
 1.4840	15.9630
 1.4850	16.0690
 1.4860	16.1740
 1.4870	16.2820
 1.4880	16.3890
 1.4890	16.4960
 1.4900	16.6050
 1.4910	16.7140
 1.4920	16.8260
 1.4930	16.9390
 1.4940	17.0520
 1.4950	17.1660
 1.4960	17.2790
 1.4970	17.3900
 1.4980	17.5040
 1.4990	17.6190
 1.5000	17.7340
 1.5010	17.8520
 1.5020	17.9680
 1.5030	18.0850
 1.5040	18.2010
 1.5050	18.3150
 1.5060	18.4310
 1.5070	18.5450
 1.5080	18.6600
 1.5090	18.7770
 1.5100	18.8930
 1.5110	19.0080
 1.5120	19.1230
 1.5130	19.2350
 1.5140	19.3470
 1.5150	19.4610
 1.5160	19.5740
 1.5170	19.6870
 1.5180	19.7990
 1.5190	19.9110
 1.5200	20.0230
 1.5210	20.1340
 1.5220	20.2430
 1.5230	20.3530
 1.5240	20.4600
 1.5250	20.5670
 1.5260	20.6730
 1.5270	20.7790
 1.5280	20.8850
 1.5290	20.9900
 1.5300	21.0940
 1.5310	21.1980
 1.5320	21.3010
 1.5330	21.4040
 1.5340	21.5050
 1.5350	21.6060
 1.5360	21.7070
 1.5370	21.8060
 1.5380	21.9060
 1.5390	22.0060
 1.5400	22.1040
 1.5410	22.2020
 1.5420	22.2990
 1.5430	22.3960
 1.5440	22.4930
 1.5450	22.5890
 1.5460	22.6860
 1.5470	22.7830
 1.5480	22.8770
 1.5490	22.9720
 1.5500	23.0640
 1.5510	23.1550
 1.5520	23.2470
 1.5530	23.3360
 1.5540	23.4250
 1.5550	23.5140
 1.5560	23.6030
 1.5570	23.6920
 1.5580	23.7800
 1.5590	23.8680
 1.5600	23.9550
 1.5610	24.0390
 1.5620	24.1240
 1.5630	24.2090
 1.5640	24.2920
 1.5650	24.3770
 1.5660	24.4600
 1.5670	24.5420
 1.5680	24.6250
 1.5690	24.7050
 1.5700	24.7850
 1.5710	24.8650
 1.5720	24.9430
 1.5730	25.0220
 1.5740	25.1000
 1.5750	25.1800
 1.5760	25.2590
 1.5770	25.3360
 1.5780	25.4150
 1.5790	25.4920
 1.5800	25.5670
 1.5810	25.6430
 1.5820	25.7190
 1.5830	25.7940
 1.5840	25.8700
 1.5850	25.9450
 1.5860	26.0200
 1.5870	26.0950
 1.5880	26.1680
 1.5890	26.2420
 1.5900	26.3140
 1.5910	26.3850
 1.5920	26.4580
 1.5930	26.5310
 1.5940	26.6050
 1.5950	26.6780
 1.5960	26.7490
 1.5970	26.8200
 1.5980	26.8910
 1.5990	26.9610
 1.6000	27.0310
 1.6010	27.1000
 1.6020	27.1690
 1.6030	27.2380
 1.6040	27.3070
 1.6050	27.3750
 1.6060	27.4410
 1.6070	27.5050
 1.6080	27.5690
 1.6090	27.6310
 1.6100	27.6940
 1.6110	27.7560
 1.6120	27.8160
 1.6130	27.8760
 1.6140	27.9350
 1.6150	27.9920
 1.6160	28.0500
 1.6170	28.1050
 1.6180	28.1590
 1.6190	28.2120
 1.6200	28.2650
 1.6210	28.3180
 1.6220	28.3670
 1.6230	28.4140
 1.6240	28.4590
 1.6250	28.5000
 1.6260	28.5390
 1.6270	28.5780
 1.6280	28.6140
 1.6290	28.6490
 1.6300	28.6840
 1.6310	28.7170
 1.6320	28.7480
 1.6330	28.7800
 1.6340	28.8090
 1.6350	28.8410
 1.6360	28.8740
 1.6370	28.9080
 1.6380	28.9450
 1.6390	28.9790
 1.6400	29.0120
 1.6410	29.0440
 1.6420	29.0760
 1.6430	29.1060
 1.6440	29.1360
 1.6450	29.1640
 1.6460	29.1880
 1.6470	29.2100
 1.6480	29.2290
 1.6490	29.2430
 1.6500	29.2520
 1.6510	29.2570
 1.6520	29.2590
 1.6530	29.2590
 1.6540	29.2580
 1.6550	29.2560
 1.6560	29.2500
 1.6570	29.2430
 1.6580	29.2340
 1.6590	29.2220
 1.6600	29.2100
 1.6610	29.2000
 1.6620	29.1880
 1.6630	29.1750
 1.6640	29.1630
 1.6650	29.1490
 1.6660	29.1340
 1.6670	29.1190
 1.6680	29.1030
 1.6690	29.0860
 1.6700	29.0680
 1.6710	29.0500
 1.6720	29.0290
 1.6730	29.0070
 1.6740	28.9840
 1.6750	28.9580
 1.6760	28.9320
 1.6770	28.9040
 1.6780	28.8740
 1.6790	28.8410
 1.6800	28.8050
 1.6810	28.7680
 1.6820	28.7270
 1.6830	28.6820
 1.6840	28.6370
 1.6850	28.5900
 1.6860	28.5390
 1.6870	28.4880
 1.6880	28.4350
 1.6890	28.3800
 1.6900	28.3240
 1.6910	28.2650
 1.6920	28.2050
 1.6930	28.1440
 1.6940	28.0820
 1.6950	28.0190
 1.6960	27.9580
 1.6970	27.8970
 1.6980	27.8350
 1.6990	27.7740
 1.7000	27.7120
 1.7010	27.6490
 1.7020	27.5870
 1.7030	27.5250
 1.7040	27.4630
 1.7050	27.4020
 1.7060	27.3390
 1.7070	27.2760
 1.7080	27.2130
 1.7090	27.1480
 1.7100	27.0850
 1.7110	27.0240
 1.7120	26.9630
 1.7130	26.9010
 1.7140	26.8370
 1.7150	26.7740
 1.7160	26.7120
 1.7170	26.6520
 1.7180	26.5920
 1.7190	26.5350
 1.7200	26.4790
 1.7210	26.4220
 1.7220	26.3660
 1.7230	26.3120
 1.7240	26.2590
 1.7250	26.2060
 1.7260	26.1560
 1.7270	26.1080
 1.7280	26.0590
 1.7290	26.0120
 1.7300	25.9690
 1.7310	25.9250
 1.7320	25.8840
 1.7330	25.8410
 1.7340	25.7980
 1.7350	25.7550
 1.7360	25.7110
 1.7370	25.6640
 1.7380	25.6180
 1.7390	25.5660
 1.7400	25.5100
 1.7410	25.4520
 1.7420	25.3900
 1.7430	25.3260
 1.7440	25.2600
 1.7450	25.1920
 1.7460	25.1210
 1.7470	25.0500
 1.7480	24.9780
 1.7490	24.9070
 1.7500	24.8370
 1.7510	24.7680
 1.7520	24.6990
 1.7530	24.6320
 1.7540	24.5660
 1.7550	24.5020
 1.7560	24.4400
 1.7570	24.3790
 1.7580	24.3200
 1.7590	24.2640
 1.7600	24.2120
 1.7610	24.1610
 1.7620	24.1110
 1.7630	24.0620
 1.7640	24.0150
 1.7650	23.9730
 1.7660	23.9310
 1.7670	23.8920
 1.7680	23.8530
 1.7690	23.8140
 1.7700	23.7770
 1.7710	23.7400
 1.7720	23.7040
 1.7730	23.6710
 1.7740	23.6370
 1.7750	23.6030
 1.7760	23.5710
 1.7770	23.5400
 1.7780	23.5100
 1.7790	23.4810
 1.7800	23.4550
 1.7810	23.4290
 1.7820	23.4070
 1.7830	23.3880
 1.7840	23.3700
 1.7850	23.3550
 1.7860	23.3400
 1.7870	23.3250
 1.7880	23.3120
 1.7890	23.3010
 1.7900	23.2920
 1.7910	23.2830
 1.7920	23.2730
 1.7930	23.2660
 1.7940	23.2600
 1.7950	23.2550
 1.7960	23.2520
 1.7970	23.2510
 1.7980	23.2500
 1.7990	23.2490
 1.8000	23.2510
 1.8010	23.2510
 1.8020	23.2490
 1.8030	23.2500
 1.8040	23.2510
 1.8050	23.2520
 1.8060	23.2540
 1.8070	23.2550
 1.8080	23.2560
 1.8090	23.2580
 1.8100	23.2610
 1.8110	23.2610
 1.8120	23.2630
 1.8130	23.2620
 1.8140	23.2580
 1.8150	23.2550
 1.8160	23.2520
 1.8170	23.2460
 1.8180	23.2430
 1.8190	23.2380
 1.8200	23.2320
 1.8210	23.2290
 1.8220	23.2210
 1.8230	23.2090
 1.8240	23.1980
 1.8250	23.1860
 1.8260	23.1730
 1.8270	23.1620
 1.8280	23.1470
 1.8290	23.1280
 1.8300	23.1900
 1.8310	23.3540
 1.8320	23.4080
 1.8330	23.3800
 1.8340	23.3500
 1.8350	23.3120
 1.8360	23.2670
 1.8370	23.2210
 1.8380	23.1680
 1.8390	23.1110
 1.8400	23.0520
 1.8410	22.9860
 1.8420	22.9140
 1.8430	22.8360
 1.8440	22.7500
 1.8450	22.6570
 1.8460	22.5570
 1.8470	22.4520
 1.8480	22.3400
 1.8490	22.2180
 1.8500	22.0840
 1.8510	21.9420
 1.8520	21.7860
 1.8530	21.6170
 1.8540	21.4400
 1.8550	21.2530
 1.8560	21.0540
 1.8570	20.8500
 1.8580	20.6330
 1.8590	20.4040
 1.8600	20.1630
 1.8610	19.9120
 1.8620	19.6450
 1.8630	19.3660
 1.8640	19.0760
 1.8650	18.7710
 1.8660	18.4530
 1.8670	18.1220
 1.8680	17.7780
 1.8690	17.4210
 1.8700	17.0540
 1.8710	16.6750
 1.8720	16.2920
 1.8730	15.9020
 1.8740	15.5080
 1.8750	15.1100
 1.8760	14.7060
 1.8770	14.3070
 1.8780	13.9120
 1.8790	13.5190
 1.8800	13.1360
 1.8810	12.7610
 1.8820	12.3890
 1.8830	12.0210
 1.8840	11.6660
 1.8850	11.3160
 1.8860	10.9770
 1.8870	10.6520
 1.8880	10.3390
 1.8890	10.0420
 1.8900	 9.7600
 1.8910	 9.4930
 1.8920	 9.2400
 1.8930	 9.0040
 1.8940	 8.7810
 1.8950	 8.5770
 1.8960	 8.3880
 1.8970	 8.2150
 1.8980	 8.0590
 1.8990	 7.9160
 1.9000	 7.7810
 1.9010	 7.6590
 1.9020	 7.5470
 1.9030	 7.4470
 1.9040	 7.3550
 1.9050	 7.2720
 1.9060	 7.1980
 1.9070	 7.1290
 1.9080	 7.0680
 1.9090	 7.0160
 1.9100	 6.9710
 1.9110	 6.9300
 1.9120	 6.8960
 1.9130	 6.8640
 1.9140	 6.8360
 1.9150	 6.8110
 1.9160	 6.7910
 1.9170	 6.7730
 1.9180	 6.7580
 1.9190	 6.7460
 1.9200	 6.7360
 1.9210	 6.7290
 1.9220	 6.7230
 1.9230	 6.7200
 1.9240	 6.7180
 1.9250	 6.7190
 1.9260	 6.7190
 1.9270	 6.7230
 1.9280	 6.7280
 1.9290	 6.7330
 1.9300	 6.7410
 1.9310	 6.7490
 1.9320	 6.7600
 1.9330	 6.7710
 1.9340	 6.7850
 1.9350	 6.7990
 1.9360	 6.8140
 1.9370	 6.8310
 1.9380	 6.8470
 1.9390	 6.8660
 1.9400	 6.8860
 1.9410	 6.9050
 1.9420	 6.9250
 1.9430	 6.9470
 1.9440	 6.9700
 1.9450	 6.9940
 1.9460	 7.0180
 1.9470	 7.0410
 1.9480	 7.0670
 1.9490	 7.0950
 1.9500	 7.1230
 1.9510	 7.1520
 1.9520	 7.1820
 1.9530	 7.2100
 1.9540	 7.2390
 1.9550	 7.2700
 1.9560	 7.3030
 1.9570	 7.3350
 1.9580	 7.3660
 1.9590	 7.4000
 1.9600	 7.4330
 1.9610	 7.4680
 1.9620	 7.5030
 1.9630	 7.5390
 1.9640	 7.5750
 1.9650	 7.6110
 1.9660	 7.6490
 1.9670	 7.6860
 1.9680	 7.7250
 1.9690	 7.7640
 1.9700	 7.8030
 1.9710	 7.8430
 1.9720	 7.8830
 1.9730	 7.9230
 1.9740	 7.9630
 1.9750	 8.0030
 1.9760	 8.0450
 1.9770	 8.0880
 1.9780	 8.1300
 1.9790	 8.1740
 1.9800	 8.2180
 1.9810	 8.2640
 1.9820	 8.3120
 1.9830	 8.3580
 1.9840	 8.4060
 1.9850	 8.4530
 1.9860	 8.4970
 1.9870	 8.5420
 1.9880	 8.5890
 1.9890	 8.6380
 1.9900	 8.6880
 1.9910	 8.7370
 1.9920	 8.7850
 1.9930	 8.8310
 1.9940	 8.8790
 1.9950	 8.9270
 1.9960	 8.9750
 1.9970	 9.0270
 1.9980	 9.0760
 1.9990	 9.1240
 2.0000	 9.1740
 2.0010	 9.2240
 2.0020	 9.2740
 2.0030	 9.3220
 2.0040	 9.3700
 2.0050	 9.4190
 2.0060	 9.4680
 2.0070	 9.5160
 2.0080	 9.5680
 2.0090	 9.6160
 2.0100	 9.6610
 2.0110	 9.7060
 2.0120	 9.7490
 2.0130	 9.7960
 2.0140	 9.8450
 2.0150	 9.8930
 2.0160	 9.9420
 2.0170	 9.9910
 2.0180	10.0370
 2.0190	10.0830
 2.0200	10.1270
 2.0210	10.1680
 2.0220	10.2100
 2.0230	10.2490
 2.0240	10.2890
 2.0250	10.3290
 2.0260	10.3690
 2.0270	10.4070
 2.0280	10.4470
 2.0290	10.4870
 2.0300	10.5270
 2.0310	10.5640
 2.0320	10.6010
 2.0330	10.6370
 2.0340	10.6720
 2.0350	10.7070
 2.0360	10.7430
 2.0370	10.7770
 2.0380	10.8100
 2.0390	10.8420
 2.0400	10.8720
 2.0410	10.9040
 2.0420	10.9350
 2.0430	10.9670
 2.0440	10.9970
 2.0450	11.0290
 2.0460	11.0580
 2.0470	11.0860
 2.0480	11.1140
 2.0490	11.1410
 2.0500	11.1690
 2.0510	11.1970
 2.0520	11.2260
 2.0530	11.2560
 2.0540	11.2860
 2.0550	11.3150
 2.0560	11.3420
 2.0570	11.3700
 2.0580	11.3970
 2.0590	11.4240
 2.0600	11.4510
 2.0610	11.4770
 2.0620	11.5010
 2.0630	11.5270
 2.0640	11.5520
 2.0650	11.5790
 2.0660	11.6080
 2.0670	11.6360
 2.0680	11.6630
 2.0690	11.6890
 2.0700	11.7140
 2.0710	11.7400
 2.0720	11.7660
 2.0730	11.7910
 2.0740	11.8180
 2.0750	11.8450
 2.0760	11.8720
 2.0770	11.8990
 2.0780	11.9260
 2.0790	11.9520
 2.0800	11.9780
 2.0810	12.0040
 2.0820	12.0300
 2.0830	12.0540
 2.0840	12.0790
 2.0850	12.1030
 2.0860	12.1290
 2.0870	12.1560
 2.0880	12.1820
 2.0890	12.2100
 2.0900	12.2390
 2.0910	12.2650
 2.0920	12.2920
 2.0930	12.3190
 2.0940	12.3440
 2.0950	12.3720
 2.0960	12.4050
 2.0970	12.4330
 2.0980	12.4590
 2.0990	12.4850
 2.1000	12.5080
 2.1010	12.5330
 2.1020	12.5600
 2.1030	12.5870
 2.1040	12.6140
 2.1050	12.6430
 2.1060	12.6710
 2.1070	12.6980
 2.1080	12.7260
 2.1090	12.7560
 2.1100	12.7850
 2.1110	12.8150
 2.1120	12.8440
 2.1130	12.8720
 2.1140	12.9000
 2.1150	12.9270
 2.1160	12.9540
 2.1170	12.9810
 2.1180	13.0070
 2.1190	13.0330
 2.1200	13.0600
 2.1210	13.0880
 2.1220	13.1150
 2.1230	13.1420
 2.1240	13.1690
 2.1250	13.1960
 2.1260	13.2230
 2.1270	13.2500
 2.1280	13.2770
 2.1290	13.3020
 2.1300	13.3230
 2.1310	13.3480
 2.1320	13.3720
 2.1330	13.3970
 2.1340	13.4250
 2.1350	13.4500
 2.1360	13.4740
 2.1370	13.4970
 2.1380	13.5180
 2.1390	13.5410
 2.1400	13.5640
 2.1410	13.5890
 2.1420	13.6140
 2.1430	13.6390
 2.1440	13.6640
 2.1450	13.6900
 2.1460	13.7140
 2.1470	13.7370
 2.1480	13.7600
 2.1490	13.7830
 2.1500	13.8060
 2.1510	13.8280
 2.1520	13.8510
 2.1530	13.8750
 2.1540	13.8980
 2.1550	13.9220
 2.1560	13.9460
 2.1570	13.9680
 2.1580	13.9900
 2.1590	14.0120
 2.1600	14.0330
 2.1610	14.0530
 2.1620	14.0730
 2.1630	14.0930
 2.1640	14.1150
 2.1650	14.1340
 2.1660	14.1530
 2.1670	14.1720
 2.1680	14.1910
 2.1690	14.2090
 2.1700	14.2270
 2.1710	14.2440
 2.1720	14.2580
 2.1730	14.2740
 2.1740	14.2890
 2.1750	14.3060
 2.1760	14.3240
 2.1770	14.3420
 2.1780	14.3600
 2.1790	14.3800
 2.1800	14.4020
 2.1810	14.4210
 2.1820	14.4370
 2.1830	14.4550
 2.1840	14.4710
 2.1850	14.4840
 2.1860	14.5010
 2.1870	14.5210
 2.1880	14.5380
 2.1890	14.5540
 2.1900	14.5700
 2.1910	14.5830
 2.1920	14.5990
 2.1930	14.6180
 2.1940	14.6330
 2.1950	14.6500
 2.1960	14.6640
 2.1970	14.6730
 2.1980	14.6850
 2.1990	14.6970
 2.2000	14.7080
 2.2010	14.7190
 2.2020	14.7300
 2.2030	14.7410
 2.2040	14.7510
 2.2050	14.7610
 2.2060	14.7720
 2.2070	14.7810
 2.2080	14.7880
 2.2090	14.7960
 2.2100	14.8050
 2.2110	14.8100
 2.2120	14.8140
 2.2130	14.8160
 2.2140	14.8140
 2.2150	14.8150
 2.2160	14.8160
 2.2170	14.8160
 2.2180	14.8170
 2.2190	14.8140
 2.2200	14.8080
 2.2210	14.8000
 2.2220	14.7900
 2.2230	14.7780
 2.2240	14.7630
 2.2250	14.7470
 2.2260	14.7300
 2.2270	14.7110
 2.2280	14.6900
 2.2290	14.6680
 2.2300	14.6430
 2.2310	14.6160
 2.2320	14.5890
 2.2330	14.5600
 2.2340	14.5270
 2.2350	14.4890
 2.2360	14.4520
 2.2370	14.4110
 2.2380	14.3720
 2.2390	14.3320
 2.2400	14.2920
 2.2410	14.2520
 2.2420	14.2100
 2.2430	14.1680
 2.2440	14.1230
 2.2450	14.0720
 2.2460	14.0240
 2.2470	13.9790
 2.2480	13.9300
 2.2490	13.8810
 2.2500	13.8290
 2.2510	13.7720
 2.2520	13.7140
 2.2530	13.6540
 2.2540	13.5940
 2.2550	13.5330
 2.2560	13.4720
 2.2570	13.4130
 2.2580	13.3520
 2.2590	13.2890
 2.2600	13.2280
 2.2610	13.1690
 2.2620	13.1090
 2.2630	13.0510
 2.2640	12.9950
 2.2650	12.9420
 2.2660	12.8850
 2.2670	12.8330
 2.2680	12.7820
 2.2690	12.7350
 2.2700	12.6920
 2.2710	12.6460
 2.2720	12.6000
 2.2730	12.5600
 2.2740	12.5220
 2.2750	12.4850
 2.2760	12.4570
 2.2770	12.4240
 2.2780	12.3890
 2.2790	12.3580
 2.2800	12.3310
 2.2810	12.2990
 2.2820	12.2660
 2.2830	12.2330
 2.2840	12.1970
 2.2850	12.1620
 2.2860	12.1260
 2.2870	12.0900
 2.2880	12.0520
 2.2890	12.0150
 2.2900	11.9790
 2.2910	11.9410
 2.2920	11.9020
 2.2930	11.8610
 2.2940	11.8160
 2.2950	11.7730
 2.2960	11.7290
 2.2970	11.6850
 2.2980	11.6430
 2.2990	11.6010
 2.3000	11.5620
 2.3010	11.5260
 2.3020	11.4900
 2.3030	11.4550
 2.3040	11.4220
 2.3050	11.3870
 2.3060	11.3570
 2.3070	11.3360
 2.3080	11.3120
 2.3090	11.2910
 2.3100	11.2740
 2.3110	11.2580
 2.3120	11.2480
 2.3130	11.2450
 2.3140	11.2420
 2.3150	11.2460
 2.3160	11.2420
 2.3170	11.2390
 2.3180	11.2320
 2.3190	11.2210
 2.3200	11.2080
 2.3210	11.1920
 2.3220	11.1770
 2.3230	11.1600
 2.3240	11.1400
 2.3250	11.1220
 2.3260	11.1010
 2.3270	11.0760
 2.3280	11.0520
 2.3290	11.0260
 2.3300	11.0000
 2.3310	10.9740
 2.3320	10.9470
 2.3330	10.9200
 2.3340	10.8910
 2.3350	10.8600
 2.3360	10.8280
 2.3370	10.7940
 2.3380	10.7610
 2.3390	10.7260
 2.3400	10.6930
 2.3410	10.6630
 2.3420	10.6330
 2.3430	10.6040
 2.3440	10.5740
 2.3450	10.5430
 2.3460	10.5130
 2.3470	10.4830
 2.3480	10.4570
 2.3490	10.4330
 2.3500	10.4120
 2.3510	10.3970
 2.3520	10.3790
 2.3530	10.3610
 2.3540	10.3460
 2.3550	10.3230
 2.3560	10.3020
 2.3570	10.2830
 2.3580	10.2630
 2.3590	10.2450
 2.3600	10.2250
 2.3610	10.1960
 2.3620	10.1700
 2.3630	10.1470
 2.3640	10.1260
 2.3650	10.1150
 2.3660	10.0970
 2.3670	10.0770
 2.3680	10.0590
 2.3690	10.0290
 2.3700	 9.9990
 2.3710	 9.9660
 2.3720	 9.9310
 2.3730	 9.9060
 2.3740	 9.8820
 2.3750	 9.8580
 2.3760	 9.8350
 2.3770	 9.8120
 2.3780	 9.7910
 2.3790	 9.7720
 2.3800	 9.7480
 2.3810	 9.7180
 2.3820	 9.6980
 2.3830	 9.6770
 2.3840	 9.6520
 2.3850	 9.6260
 2.3860	 9.5940
 2.3870	 9.5640
 2.3880	 9.5370
 2.3890	 9.5200
 2.3900	 9.5010
 2.3910	 9.4780
 2.3920	 9.4510
 2.3930	 9.4180
 2.3940	 9.3870
 2.3950	 9.3580
 2.3960	 9.3390
 2.3970	 9.3240
 2.3980	 9.3010
 2.3990	 9.2720
 2.4000	 9.2430
 2.4010	 9.2140
 2.4020	 9.1880
 2.4030	 9.1680
 2.4040	 9.1450
 2.4050	 9.1170
 2.4060	 9.0850
 2.4070	 9.0540
 2.4080	 9.0310
 2.4090	 9.0120
 2.4100	 8.9940
 2.4110	 8.9750
 2.4120	 8.9470
 2.4130	 8.9150
 2.4140	 8.8800
 2.4150	 8.8420
 2.4160	 8.8130
 2.4170	 8.7800
 2.4180	 8.7490
 2.4190	 8.7290
 2.4200	 8.7040
 2.4210	 8.6760
 2.4220	 8.6500
 2.4230	 8.6210
 2.4240	 8.5930
 2.4250	 8.5670
 2.4260	 8.5380
 2.4270	 8.5050
 2.4280	 8.4750
 2.4290	 8.4490
 2.4300	 8.4240
 2.4310	 8.4020
 2.4320	 8.3760
 2.4330	 8.3330
 2.4340	 8.2990
 2.4350	 8.2850
 2.4360	 8.2630
 2.4370	 8.2430
 2.4380	 8.2280
 2.4390	 8.1850
 2.4400	 8.1460
 2.4410	 8.1260
 2.4420	 8.1010
 2.4430	 8.0650
 2.4440	 8.0240
 2.4450	 7.9840
 2.4460	 7.9430
 2.4470	 7.9250
 2.4480	 7.9180
 2.4490	 7.8950
 2.4500	 7.8680
 2.4510	 7.8280
 2.4520	 7.7810
 2.4530	 7.7490
 2.4540	 7.7140
 2.4550	 7.6920
 2.4560	 7.6800
 2.4570	 7.6400
 2.4580	 7.6180
 2.4590	 7.6130
 2.4600	 7.5820
 2.4610	 7.5630
 2.4620	 7.5460
 2.4630	 7.5040
 2.4640	 7.4770
 2.4650	 7.4630
 2.4660	 7.4300
 2.4670	 7.4000
 2.4680	 7.3870
 2.4690	 7.3790
 2.4700	 7.3700
 2.4710	 7.3700
 2.4720	 7.3590
 2.4730	 7.3400
 2.4740	 7.3240
 2.4750	 7.3090
 2.4760	 7.2870
 2.4770	 7.2590
 2.4780	 7.2360
 2.4790	 7.2090
 2.4800	 7.1920
 2.4810	 7.1800
 2.4820	 7.1680
 2.4830	 7.1560
 2.4840	 7.1300
 2.4850	 7.1110
 2.4860	 7.1000
 2.4870	 7.0860
 2.4880	 7.0740
 2.4890	 7.0760
 2.4900	 7.0390
 2.4910	 6.9860
 2.4920	 6.9870
 2.4930	 6.9810
 2.4940	 7.0030
 2.4950	 7.0350
 2.4960	 7.0210
 2.4970	 7.0300
 2.4980	 7.0180
 2.4990	 7.0100
 2.5000	 7.0130
