Name: Abies concolor 3
Type: vegetation
Class: Tree
Genus: Abies
Species: concolor
Sample No.: VH167
Owner: UCSB
Wavelength Range: VSWIR
Origin: 37.0439; -119.3058; WGS84
Collection Date: 6/8/2013
Description: Samples were collected as part of the HyspIRI Airborne Campaign. 48 individual plants were sampled in three times in 2013 - spring  summer  and fall. The name of the sample includes a 1  2  or 3 which references a different individual of the species. Samples were taken to JPL and processed within 48 hours of collection. The same leaves were processed in the Nicolet and then measured using the ASD.
Measurement: Bidirectional reflectance
First Column: X
Second Column: Y
X Units: Wavelength (micrometers)
Y Units: Reflectance (percentage)
First X Value: 0.35
Last X Value: 2.5
Number of X Values: 2151
Additional Information: vegetation.tree.abies.concolor.vswir.vh167.ucsb.asd.ancillary.txt

 0.3500	 6.6710
 0.3510	 6.3380
 0.3520	 6.2580
 0.3530	 6.2720
 0.3540	 6.1970
 0.3550	 6.2170
 0.3560	 6.1660
 0.3570	 6.0720
 0.3580	 6.0550
 0.3590	 6.1040
 0.3600	 6.1270
 0.3610	 6.0970
 0.3620	 6.0780
 0.3630	 6.1180
 0.3640	 6.1310
 0.3650	 6.0600
 0.3660	 6.1400
 0.3670	 6.1090
 0.3680	 6.0050
 0.3690	 6.0620
 0.3700	 6.1180
 0.3710	 6.0680
 0.3720	 5.9340
 0.3730	 5.9450
 0.3740	 5.9440
 0.3750	 5.9510
 0.3760	 5.9900
 0.3770	 5.9030
 0.3780	 5.8880
 0.3790	 5.9650
 0.3800	 5.9930
 0.3810	 5.9930
 0.3820	 5.9450
 0.3830	 5.8750
 0.3840	 5.8920
 0.3850	 5.9660
 0.3860	 6.0130
 0.3870	 5.9560
 0.3880	 5.8990
 0.3890	 5.8980
 0.3900	 5.9380
 0.3910	 5.9570
 0.3920	 5.9580
 0.3930	 5.9470
 0.3940	 5.9330
 0.3950	 6.0230
 0.3960	 6.0690
 0.3970	 6.0560
 0.3980	 6.0400
 0.3990	 6.0670
 0.4000	 6.0890
 0.4010	 6.0900
 0.4020	 6.1190
 0.4030	 6.1720
 0.4040	 6.2300
 0.4050	 6.2610
 0.4060	 6.2510
 0.4070	 6.2810
 0.4080	 6.3550
 0.4090	 6.4150
 0.4100	 6.4520
 0.4110	 6.4890
 0.4120	 6.5340
 0.4130	 6.5780
 0.4140	 6.6090
 0.4150	 6.6570
 0.4160	 6.7460
 0.4170	 6.8040
 0.4180	 6.8470
 0.4190	 6.8980
 0.4200	 7.0030
 0.4210	 7.0760
 0.4220	 7.1260
 0.4230	 7.1760
 0.4240	 7.2510
 0.4250	 7.3140
 0.4260	 7.3670
 0.4270	 7.4180
 0.4280	 7.4780
 0.4290	 7.5180
 0.4300	 7.5450
 0.4310	 7.5990
 0.4320	 7.6500
 0.4330	 7.6940
 0.4340	 7.7300
 0.4350	 7.7880
 0.4360	 7.8360
 0.4370	 7.8730
 0.4380	 7.9200
 0.4390	 7.9640
 0.4400	 8.0070
 0.4410	 8.0470
 0.4420	 8.0820
 0.4430	 8.1190
 0.4440	 8.1620
 0.4450	 8.1990
 0.4460	 8.2420
 0.4470	 8.2840
 0.4480	 8.3200
 0.4490	 8.3640
 0.4500	 8.4130
 0.4510	 8.4510
 0.4520	 8.4730
 0.4530	 8.5110
 0.4540	 8.5470
 0.4550	 8.5720
 0.4560	 8.5880
 0.4570	 8.6070
 0.4580	 8.6270
 0.4590	 8.6430
 0.4600	 8.6540
 0.4610	 8.6630
 0.4620	 8.6740
 0.4630	 8.6850
 0.4640	 8.7050
 0.4650	 8.7090
 0.4660	 8.7020
 0.4670	 8.7160
 0.4680	 8.7360
 0.4690	 8.7390
 0.4700	 8.7310
 0.4710	 8.7390
 0.4720	 8.7490
 0.4730	 8.7580
 0.4740	 8.7620
 0.4750	 8.7660
 0.4760	 8.7730
 0.4770	 8.7830
 0.4780	 8.7950
 0.4790	 8.7970
 0.4800	 8.8000
 0.4810	 8.8080
 0.4820	 8.8220
 0.4830	 8.8360
 0.4840	 8.8470
 0.4850	 8.8560
 0.4860	 8.8680
 0.4870	 8.8770
 0.4880	 8.8940
 0.4890	 8.9170
 0.4900	 8.9430
 0.4910	 8.9730
 0.4920	 9.0090
 0.4930	 9.0510
 0.4940	 9.0990
 0.4950	 9.1490
 0.4960	 9.2010
 0.4970	 9.2550
 0.4980	 9.3190
 0.4990	 9.3960
 0.5000	 9.4680
 0.5010	 9.5480
 0.5020	 9.6410
 0.5030	 9.7420
 0.5040	 9.8530
 0.5050	 9.9690
 0.5060	10.0870
 0.5070	10.2240
 0.5080	10.3720
 0.5090	10.5320
 0.5100	10.7030
 0.5110	10.8840
 0.5120	11.0730
 0.5130	11.2710
 0.5140	11.4810
 0.5150	11.7050
 0.5160	11.9390
 0.5170	12.1810
 0.5180	12.4280
 0.5190	12.6830
 0.5200	12.9400
 0.5210	13.1920
 0.5220	13.4490
 0.5230	13.7000
 0.5240	13.9390
 0.5250	14.1700
 0.5260	14.3900
 0.5270	14.5950
 0.5280	14.7820
 0.5290	14.9650
 0.5300	15.1300
 0.5310	15.2750
 0.5320	15.4090
 0.5330	15.5320
 0.5340	15.6420
 0.5350	15.7400
 0.5360	15.8290
 0.5370	15.9070
 0.5380	15.9740
 0.5390	16.0330
 0.5400	16.0940
 0.5410	16.1470
 0.5420	16.1880
 0.5430	16.2360
 0.5440	16.2880
 0.5450	16.3440
 0.5460	16.4040
 0.5470	16.4620
 0.5480	16.5170
 0.5490	16.5670
 0.5500	16.6050
 0.5510	16.6340
 0.5520	16.6500
 0.5530	16.6520
 0.5540	16.6400
 0.5550	16.6120
 0.5560	16.5680
 0.5570	16.5040
 0.5580	16.4290
 0.5590	16.3410
 0.5600	16.2440
 0.5610	16.1430
 0.5620	16.0330
 0.5630	15.9170
 0.5640	15.7980
 0.5650	15.6720
 0.5660	15.5380
 0.5670	15.3950
 0.5680	15.2420
 0.5690	15.0830
 0.5700	14.9230
 0.5710	14.7640
 0.5720	14.6110
 0.5730	14.4620
 0.5740	14.3210
 0.5750	14.1900
 0.5760	14.0720
 0.5770	13.9630
 0.5780	13.8620
 0.5790	13.7640
 0.5800	13.6670
 0.5810	13.5750
 0.5820	13.4920
 0.5830	13.4170
 0.5840	13.3430
 0.5850	13.2700
 0.5860	13.1990
 0.5870	13.1290
 0.5880	13.0610
 0.5890	13.0010
 0.5900	12.9460
 0.5910	12.9030
 0.5920	12.8680
 0.5930	12.8320
 0.5940	12.8020
 0.5950	12.7740
 0.5960	12.7460
 0.5970	12.7200
 0.5980	12.6960
 0.5990	12.6720
 0.6000	12.6450
 0.6010	12.6140
 0.6020	12.5780
 0.6030	12.5380
 0.6040	12.4910
 0.6050	12.4370
 0.6060	12.3750
 0.6070	12.3080
 0.6080	12.2360
 0.6090	12.1550
 0.6100	12.0660
 0.6110	11.9730
 0.6120	11.8940
 0.6130	11.8200
 0.6140	11.7480
 0.6150	11.6740
 0.6160	11.6020
 0.6170	11.5330
 0.6180	11.4700
 0.6190	11.4160
 0.6200	11.3650
 0.6210	11.3190
 0.6220	11.2810
 0.6230	11.2490
 0.6240	11.2180
 0.6250	11.1890
 0.6260	11.1730
 0.6270	11.1580
 0.6280	11.1460
 0.6290	11.1370
 0.6300	11.1270
 0.6310	11.1170
 0.6320	11.1020
 0.6330	11.0780
 0.6340	11.0470
 0.6350	11.0100
 0.6360	10.9630
 0.6370	10.9040
 0.6380	10.8350
 0.6390	10.7600
 0.6400	10.6820
 0.6410	10.5920
 0.6420	10.5010
 0.6430	10.4140
 0.6440	10.3220
 0.6450	10.2290
 0.6460	10.1410
 0.6470	10.0600
 0.6480	 9.9770
 0.6490	 9.9070
 0.6500	 9.8480
 0.6510	 9.7940
 0.6520	 9.7480
 0.6530	 9.7050
 0.6540	 9.6630
 0.6550	 9.6200
 0.6560	 9.5690
 0.6570	 9.5100
 0.6580	 9.4460
 0.6590	 9.3750
 0.6600	 9.2970
 0.6610	 9.2170
 0.6620	 9.1380
 0.6630	 9.0620
 0.6640	 8.9910
 0.6650	 8.9260
 0.6660	 8.8620
 0.6670	 8.8100
 0.6680	 8.7690
 0.6690	 8.7340
 0.6700	 8.7060
 0.6710	 8.6860
 0.6720	 8.6780
 0.6730	 8.6680
 0.6740	 8.6670
 0.6750	 8.6730
 0.6760	 8.6850
 0.6770	 8.7030
 0.6780	 8.7270
 0.6790	 8.7570
 0.6800	 8.7960
 0.6810	 8.8460
 0.6820	 8.9150
 0.6830	 9.0010
 0.6840	 9.1090
 0.6850	 9.2390
 0.6860	 9.3960
 0.6870	 9.5970
 0.6880	 9.8340
 0.6890	10.1180
 0.6900	10.4590
 0.6910	10.8680
 0.6920	11.3380
 0.6930	11.8770
 0.6940	12.4880
 0.6950	13.1660
 0.6960	13.9050
 0.6970	14.7040
 0.6980	15.5640
 0.6990	16.4680
 0.7000	17.4110
 0.7010	18.3840
 0.7020	19.3800
 0.7030	20.3910
 0.7040	21.4100
 0.7050	22.4320
 0.7060	23.4560
 0.7070	24.4900
 0.7080	25.5290
 0.7090	26.5690
 0.7100	27.6170
 0.7110	28.6780
 0.7120	29.7510
 0.7130	30.8310
 0.7140	31.9160
 0.7150	33.0130
 0.7160	34.1210
 0.7170	35.2320
 0.7180	36.3530
 0.7190	37.4820
 0.7200	38.6110
 0.7210	39.7420
 0.7220	40.8680
 0.7230	41.9860
 0.7240	43.0950
 0.7250	44.1980
 0.7260	45.2800
 0.7270	46.3340
 0.7280	47.3740
 0.7290	48.3850
 0.7300	49.3680
 0.7310	50.3220
 0.7320	51.2420
 0.7330	52.1320
 0.7340	52.9910
 0.7350	53.8150
 0.7360	54.6080
 0.7370	55.3650
 0.7380	56.0830
 0.7390	56.7690
 0.7400	57.4190
 0.7410	58.0340
 0.7420	58.6140
 0.7430	59.1580
 0.7440	59.6720
 0.7450	60.1540
 0.7460	60.5950
 0.7470	61.0120
 0.7480	61.4040
 0.7490	61.7630
 0.7500	62.0930
 0.7510	62.3990
 0.7520	62.6790
 0.7530	62.9320
 0.7540	63.1700
 0.7550	63.3920
 0.7560	63.5970
 0.7570	63.7800
 0.7580	63.9410
 0.7590	64.0950
 0.7600	64.2470
 0.7610	64.3820
 0.7620	64.5010
 0.7630	64.6110
 0.7640	64.7160
 0.7650	64.8070
 0.7660	64.8940
 0.7670	64.9730
 0.7680	65.0370
 0.7690	65.1070
 0.7700	65.1760
 0.7710	65.2400
 0.7720	65.3000
 0.7730	65.3520
 0.7740	65.4010
 0.7750	65.4530
 0.7760	65.5020
 0.7770	65.5500
 0.7780	65.5980
 0.7790	65.6460
 0.7800	65.6940
 0.7810	65.7350
 0.7820	65.7690
 0.7830	65.8090
 0.7840	65.8450
 0.7850	65.8780
 0.7860	65.9100
 0.7870	65.9490
 0.7880	65.9890
 0.7890	66.0260
 0.7900	66.0570
 0.7910	66.0870
 0.7920	66.1200
 0.7930	66.1540
 0.7940	66.1810
 0.7950	66.2080
 0.7960	66.2320
 0.7970	66.2550
 0.7980	66.2810
 0.7990	66.3060
 0.8000	66.3290
 0.8010	66.3500
 0.8020	66.3740
 0.8030	66.3970
 0.8040	66.4170
 0.8050	66.4330
 0.8060	66.4470
 0.8070	66.4620
 0.8080	66.4780
 0.8090	66.4870
 0.8100	66.5060
 0.8110	66.5280
 0.8120	66.5430
 0.8130	66.5530
 0.8140	66.5630
 0.8150	66.5760
 0.8160	66.5890
 0.8170	66.6050
 0.8180	66.6180
 0.8190	66.6310
 0.8200	66.6420
 0.8210	66.6510
 0.8220	66.6640
 0.8230	66.6780
 0.8240	66.6860
 0.8250	66.6910
 0.8260	66.6970
 0.8270	66.7030
 0.8280	66.7030
 0.8290	66.6980
 0.8300	66.6960
 0.8310	66.7030
 0.8320	66.7150
 0.8330	66.7240
 0.8340	66.7280
 0.8350	66.7280
 0.8360	66.7470
 0.8370	66.7660
 0.8380	66.7780
 0.8390	66.7890
 0.8400	66.8030
 0.8410	66.8170
 0.8420	66.8340
 0.8430	66.8540
 0.8440	66.8740
 0.8450	66.8960
 0.8460	66.9190
 0.8470	66.9380
 0.8480	66.9600
 0.8490	66.9820
 0.8500	66.9980
 0.8510	67.0150
 0.8520	67.0370
 0.8530	67.0600
 0.8540	67.0750
 0.8550	67.0890
 0.8560	67.1060
 0.8570	67.1280
 0.8580	67.1450
 0.8590	67.1620
 0.8600	67.1780
 0.8610	67.1900
 0.8620	67.2020
 0.8630	67.2200
 0.8640	67.2390
 0.8650	67.2560
 0.8660	67.2680
 0.8670	67.2800
 0.8680	67.2930
 0.8690	67.3110
 0.8700	67.3250
 0.8710	67.3370
 0.8720	67.3490
 0.8730	67.3610
 0.8740	67.3750
 0.8750	67.3910
 0.8760	67.4040
 0.8770	67.4080
 0.8780	67.4190
 0.8790	67.4310
 0.8800	67.4420
 0.8810	67.4600
 0.8820	67.4650
 0.8830	67.4660
 0.8840	67.4680
 0.8850	67.4730
 0.8860	67.4800
 0.8870	67.4860
 0.8880	67.4880
 0.8890	67.4860
 0.8900	67.4850
 0.8910	67.4830
 0.8920	67.4800
 0.8930	67.4930
 0.8940	67.4990
 0.8950	67.4920
 0.8960	67.4840
 0.8970	67.4740
 0.8980	67.4760
 0.8990	67.4830
 0.9000	67.4750
 0.9010	67.4720
 0.9020	67.4700
 0.9030	67.4660
 0.9040	67.4610
 0.9050	67.4560
 0.9060	67.4480
 0.9070	67.4370
 0.9080	67.4220
 0.9090	67.4150
 0.9100	67.4170
 0.9110	67.4200
 0.9120	67.4130
 0.9130	67.4020
 0.9140	67.3930
 0.9150	67.3870
 0.9160	67.3740
 0.9170	67.3590
 0.9180	67.3420
 0.9190	67.3210
 0.9200	67.2990
 0.9210	67.2820
 0.9220	67.2640
 0.9230	67.2390
 0.9240	67.2060
 0.9250	67.1770
 0.9260	67.1410
 0.9270	67.0760
 0.9280	67.0320
 0.9290	66.9950
 0.9300	66.9490
 0.9310	66.8870
 0.9320	66.8320
 0.9330	66.7640
 0.9340	66.6850
 0.9350	66.6180
 0.9360	66.5460
 0.9370	66.4660
 0.9380	66.3820
 0.9390	66.2990
 0.9400	66.2160
 0.9410	66.1200
 0.9420	66.0100
 0.9430	65.9010
 0.9440	65.7880
 0.9450	65.6670
 0.9460	65.5360
 0.9470	65.3850
 0.9480	65.2150
 0.9490	65.0480
 0.9500	64.8900
 0.9510	64.7050
 0.9520	64.4940
 0.9530	64.2820
 0.9540	64.0870
 0.9550	63.8710
 0.9560	63.6660
 0.9570	63.4800
 0.9580	63.3090
 0.9590	63.1380
 0.9600	62.9770
 0.9610	62.8310
 0.9620	62.7030
 0.9630	62.5790
 0.9640	62.4910
 0.9650	62.4240
 0.9660	62.3490
 0.9670	62.2690
 0.9680	62.1960
 0.9690	62.1390
 0.9700	62.0980
 0.9710	62.0430
 0.9720	61.9970
 0.9730	61.9640
 0.9740	61.9400
 0.9750	61.9130
 0.9760	61.9020
 0.9770	61.8960
 0.9780	61.8820
 0.9790	61.8950
 0.9800	61.8990
 0.9810	61.8910
 0.9820	61.8930
 0.9830	61.9280
 0.9840	61.9550
 0.9850	61.9690
 0.9860	61.9870
 0.9870	62.0280
 0.9880	62.0680
 0.9890	62.1160
 0.9900	62.1870
 0.9910	62.2450
 0.9920	62.2850
 0.9930	62.3290
 0.9940	62.4050
 0.9950	62.4850
 0.9960	62.5530
 0.9970	62.6160
 0.9980	62.6880
 0.9990	62.7620
 1.0000	63.0160
 1.0010	63.3830
 1.0020	63.6470
 1.0030	63.7290
 1.0040	63.8170
 1.0050	63.9020
 1.0060	63.9880
 1.0070	64.0790
 1.0080	64.1650
 1.0090	64.2520
 1.0100	64.3380
 1.0110	64.4210
 1.0120	64.5080
 1.0130	64.6010
 1.0140	64.6890
 1.0150	64.7740
 1.0160	64.8620
 1.0170	64.9540
 1.0180	65.0460
 1.0190	65.1390
 1.0200	65.2320
 1.0210	65.3220
 1.0220	65.4060
 1.0230	65.4910
 1.0240	65.5790
 1.0250	65.6620
 1.0260	65.7360
 1.0270	65.8220
 1.0280	65.9150
 1.0290	66.0000
 1.0300	66.0900
 1.0310	66.1720
 1.0320	66.2470
 1.0330	66.3200
 1.0340	66.3940
 1.0350	66.4650
 1.0360	66.5310
 1.0370	66.6010
 1.0380	66.6730
 1.0390	66.7490
 1.0400	66.8190
 1.0410	66.8890
 1.0420	66.9580
 1.0430	67.0260
 1.0440	67.0890
 1.0450	67.1540
 1.0460	67.2120
 1.0470	67.2570
 1.0480	67.3090
 1.0490	67.3620
 1.0500	67.4150
 1.0510	67.4720
 1.0520	67.5260
 1.0530	67.5760
 1.0540	67.6230
 1.0550	67.6700
 1.0560	67.7140
 1.0570	67.7570
 1.0580	67.8010
 1.0590	67.8390
 1.0600	67.8710
 1.0610	67.9040
 1.0620	67.9340
 1.0630	67.9630
 1.0640	67.9930
 1.0650	68.0200
 1.0660	68.0440
 1.0670	68.0670
 1.0680	68.0900
 1.0690	68.1150
 1.0700	68.1340
 1.0710	68.1530
 1.0720	68.1660
 1.0730	68.1720
 1.0740	68.1820
 1.0750	68.1920
 1.0760	68.1990
 1.0770	68.2070
 1.0780	68.2120
 1.0790	68.2130
 1.0800	68.2120
 1.0810	68.2120
 1.0820	68.2080
 1.0830	68.1990
 1.0840	68.1900
 1.0850	68.1780
 1.0860	68.1660
 1.0870	68.1510
 1.0880	68.1340
 1.0890	68.1150
 1.0900	68.0940
 1.0910	68.0690
 1.0920	68.0420
 1.0930	68.0120
 1.0940	67.9770
 1.0950	67.9440
 1.0960	67.9100
 1.0970	67.8750
 1.0980	67.8380
 1.0990	67.7990
 1.1000	67.7560
 1.1010	67.7140
 1.1020	67.6700
 1.1030	67.6260
 1.1040	67.5800
 1.1050	67.5340
 1.1060	67.4860
 1.1070	67.4350
 1.1080	67.3810
 1.1090	67.3260
 1.1100	67.2670
 1.1110	67.2050
 1.1120	67.1420
 1.1130	67.0830
 1.1140	67.0120
 1.1150	66.9380
 1.1160	66.8580
 1.1170	66.7730
 1.1180	66.6800
 1.1190	66.5840
 1.1200	66.4760
 1.1210	66.3560
 1.1220	66.2270
 1.1230	66.0840
 1.1240	65.9330
 1.1250	65.7660
 1.1260	65.5890
 1.1270	65.3890
 1.1280	65.1750
 1.1290	64.9360
 1.1300	64.6770
 1.1310	64.3970
 1.1320	64.0970
 1.1330	63.7780
 1.1340	63.4380
 1.1350	63.0820
 1.1360	62.7080
 1.1370	62.3160
 1.1380	61.9130
 1.1390	61.5000
 1.1400	61.0720
 1.1410	60.6450
 1.1420	60.2130
 1.1430	59.7780
 1.1440	59.3540
 1.1450	58.9290
 1.1460	58.5210
 1.1470	58.1180
 1.1480	57.7340
 1.1490	57.3570
 1.1500	57.0090
 1.1510	56.6770
 1.1520	56.3690
 1.1530	56.0830
 1.1540	55.8200
 1.1550	55.5780
 1.1560	55.3540
 1.1570	55.1510
 1.1580	54.9670
 1.1590	54.7980
 1.1600	54.6470
 1.1610	54.5120
 1.1620	54.3880
 1.1630	54.2750
 1.1640	54.1710
 1.1650	54.0740
 1.1660	53.9900
 1.1670	53.9080
 1.1680	53.8320
 1.1690	53.7610
 1.1700	53.6950
 1.1710	53.6310
 1.1720	53.5740
 1.1730	53.5150
 1.1740	53.4570
 1.1750	53.4000
 1.1760	53.3400
 1.1770	53.2790
 1.1780	53.2180
 1.1790	53.1550
 1.1800	53.0900
 1.1810	53.0270
 1.1820	52.9630
 1.1830	52.8990
 1.1840	52.8360
 1.1850	52.7750
 1.1860	52.7150
 1.1870	52.6560
 1.1880	52.6030
 1.1890	52.5530
 1.1900	52.5080
 1.1910	52.4660
 1.1920	52.4280
 1.1930	52.3940
 1.1940	52.3640
 1.1950	52.3340
 1.1960	52.3130
 1.1970	52.2980
 1.1980	52.2880
 1.1990	52.2870
 1.2000	52.2920
 1.2010	52.3010
 1.2020	52.3160
 1.2030	52.3390
 1.2040	52.3670
 1.2050	52.3990
 1.2060	52.4370
 1.2070	52.4810
 1.2080	52.5320
 1.2090	52.5850
 1.2100	52.6450
 1.2110	52.7090
 1.2120	52.7770
 1.2130	52.8490
 1.2140	52.9280
 1.2150	53.0080
 1.2160	53.0910
 1.2170	53.1750
 1.2180	53.2630
 1.2190	53.3530
 1.2200	53.4430
 1.2210	53.5350
 1.2220	53.6290
 1.2230	53.7230
 1.2240	53.8170
 1.2250	53.9120
 1.2260	54.0040
 1.2270	54.0940
 1.2280	54.1820
 1.2290	54.2690
 1.2300	54.3550
 1.2310	54.4410
 1.2320	54.5240
 1.2330	54.6040
 1.2340	54.6810
 1.2350	54.7520
 1.2360	54.8240
 1.2370	54.8940
 1.2380	54.9640
 1.2390	55.0320
 1.2400	55.0970
 1.2410	55.1630
 1.2420	55.2260
 1.2430	55.2850
 1.2440	55.3460
 1.2450	55.4050
 1.2460	55.4590
 1.2470	55.5130
 1.2480	55.5660
 1.2490	55.6150
 1.2500	55.6630
 1.2510	55.7130
 1.2520	55.7600
 1.2530	55.8030
 1.2540	55.8450
 1.2550	55.8820
 1.2560	55.9140
 1.2570	55.9460
 1.2580	55.9790
 1.2590	56.0080
 1.2600	56.0350
 1.2610	56.0610
 1.2620	56.0850
 1.2630	56.1020
 1.2640	56.1180
 1.2650	56.1330
 1.2660	56.1440
 1.2670	56.1520
 1.2680	56.1570
 1.2690	56.1610
 1.2700	56.1610
 1.2710	56.1570
 1.2720	56.1520
 1.2730	56.1410
 1.2740	56.1290
 1.2750	56.1130
 1.2760	56.0950
 1.2770	56.0750
 1.2780	56.0510
 1.2790	56.0240
 1.2800	55.9940
 1.2810	55.9590
 1.2820	55.9200
 1.2830	55.8760
 1.2840	55.8280
 1.2850	55.7780
 1.2860	55.7260
 1.2870	55.6660
 1.2880	55.6030
 1.2890	55.5330
 1.2900	55.4600
 1.2910	55.3800
 1.2920	55.3000
 1.2930	55.2170
 1.2940	55.1240
 1.2950	55.0260
 1.2960	54.9190
 1.2970	54.8050
 1.2980	54.6880
 1.2990	54.5630
 1.3000	54.4350
 1.3010	54.3030
 1.3020	54.1640
 1.3030	54.0170
 1.3040	53.8620
 1.3050	53.7020
 1.3060	53.5340
 1.3070	53.3630
 1.3080	53.1890
 1.3090	53.0060
 1.3100	52.8170
 1.3110	52.6190
 1.3120	52.4120
 1.3130	52.1990
 1.3140	51.9780
 1.3150	51.7490
 1.3160	51.5180
 1.3170	51.2830
 1.3180	51.0400
 1.3190	50.7910
 1.3200	50.5390
 1.3210	50.2750
 1.3220	50.0080
 1.3230	49.7370
 1.3240	49.4580
 1.3250	49.1810
 1.3260	48.8980
 1.3270	48.6120
 1.3280	48.3250
 1.3290	48.0330
 1.3300	47.7410
 1.3310	47.4480
 1.3320	47.1530
 1.3330	46.8580
 1.3340	46.5630
 1.3350	46.2660
 1.3360	45.9720
 1.3370	45.6790
 1.3380	45.3910
 1.3390	45.1060
 1.3400	44.8260
 1.3410	44.5510
 1.3420	44.2800
 1.3430	44.0120
 1.3440	43.7470
 1.3450	43.4870
 1.3460	43.2270
 1.3470	42.9760
 1.3480	42.7310
 1.3490	42.4900
 1.3500	42.2560
 1.3510	42.0250
 1.3520	41.7950
 1.3530	41.5660
 1.3540	41.3380
 1.3550	41.1140
 1.3560	40.8910
 1.3570	40.6670
 1.3580	40.4440
 1.3590	40.2170
 1.3600	39.9860
 1.3610	39.7520
 1.3620	39.5110
 1.3630	39.2630
 1.3640	39.0080
 1.3650	38.7430
 1.3660	38.4700
 1.3670	38.1840
 1.3680	37.8830
 1.3690	37.5700
 1.3700	37.2380
 1.3710	36.8900
 1.3720	36.5260
 1.3730	36.1380
 1.3740	35.7320
 1.3750	35.3040
 1.3760	34.8490
 1.3770	34.3710
 1.3780	33.8640
 1.3790	33.3320
 1.3800	32.7770
 1.3810	32.1930
 1.3820	31.5950
 1.3830	30.9750
 1.3840	30.3420
 1.3850	29.6890
 1.3860	29.0320
 1.3870	28.3550
 1.3880	27.6850
 1.3890	27.0100
 1.3900	26.3340
 1.3910	25.6700
 1.3920	25.0090
 1.3930	24.3530
 1.3940	23.7130
 1.3950	23.0790
 1.3960	22.4640
 1.3970	21.8710
 1.3980	21.2960
 1.3990	20.7510
 1.4000	20.2270
 1.4010	19.7240
 1.4020	19.2480
 1.4030	18.7930
 1.4040	18.3620
 1.4050	17.9570
 1.4060	17.5750
 1.4070	17.2190
 1.4080	16.8850
 1.4090	16.5700
 1.4100	16.2790
 1.4110	16.0050
 1.4120	15.7510
 1.4130	15.5140
 1.4140	15.2930
 1.4150	15.0910
 1.4160	14.9050
 1.4170	14.7290
 1.4180	14.5680
 1.4190	14.4170
 1.4200	14.2770
 1.4210	14.1470
 1.4220	14.0280
 1.4230	13.9170
 1.4240	13.8140
 1.4250	13.7200
 1.4260	13.6350
 1.4270	13.5550
 1.4280	13.4840
 1.4290	13.4170
 1.4300	13.3570
 1.4310	13.3010
 1.4320	13.2530
 1.4330	13.2070
 1.4340	13.1660
 1.4350	13.1300
 1.4360	13.0980
 1.4370	13.0700
 1.4380	13.0460
 1.4390	13.0260
 1.4400	13.0070
 1.4410	12.9920
 1.4420	12.9800
 1.4430	12.9700
 1.4440	12.9650
 1.4450	12.9610
 1.4460	12.9580
 1.4470	12.9570
 1.4480	12.9570
 1.4490	12.9590
 1.4500	12.9630
 1.4510	12.9680
 1.4520	12.9750
 1.4530	12.9840
 1.4540	12.9940
 1.4550	13.0060
 1.4560	13.0200
 1.4570	13.0370
 1.4580	13.0550
 1.4590	13.0750
 1.4600	13.0990
 1.4610	13.1250
 1.4620	13.1550
 1.4630	13.1880
 1.4640	13.2250
 1.4650	13.2650
 1.4660	13.3100
 1.4670	13.3590
 1.4680	13.4120
 1.4690	13.4670
 1.4700	13.5250
 1.4710	13.5870
 1.4720	13.6520
 1.4730	13.7210
 1.4740	13.7930
 1.4750	13.8660
 1.4760	13.9440
 1.4770	14.0240
 1.4780	14.1050
 1.4790	14.1900
 1.4800	14.2760
 1.4810	14.3640
 1.4820	14.4540
 1.4830	14.5440
 1.4840	14.6370
 1.4850	14.7320
 1.4860	14.8280
 1.4870	14.9260
 1.4880	15.0240
 1.4890	15.1230
 1.4900	15.2240
 1.4910	15.3260
 1.4920	15.4290
 1.4930	15.5340
 1.4940	15.6390
 1.4950	15.7470
 1.4960	15.8530
 1.4970	15.9590
 1.4980	16.0660
 1.4990	16.1740
 1.5000	16.2820
 1.5010	16.3920
 1.5020	16.5030
 1.5030	16.6140
 1.5040	16.7250
 1.5050	16.8360
 1.5060	16.9480
 1.5070	17.0610
 1.5080	17.1730
 1.5090	17.2860
 1.5100	17.4000
 1.5110	17.5120
 1.5120	17.6230
 1.5130	17.7340
 1.5140	17.8460
 1.5150	17.9580
 1.5160	18.0690
 1.5170	18.1810
 1.5180	18.2920
 1.5190	18.4020
 1.5200	18.5130
 1.5210	18.6230
 1.5220	18.7330
 1.5230	18.8450
 1.5240	18.9530
 1.5250	19.0610
 1.5260	19.1680
 1.5270	19.2750
 1.5280	19.3830
 1.5290	19.4890
 1.5300	19.5950
 1.5310	19.7000
 1.5320	19.8040
 1.5330	19.9100
 1.5340	20.0140
 1.5350	20.1180
 1.5360	20.2230
 1.5370	20.3250
 1.5380	20.4260
 1.5390	20.5280
 1.5400	20.6290
 1.5410	20.7300
 1.5420	20.8310
 1.5430	20.9320
 1.5440	21.0310
 1.5450	21.1300
 1.5460	21.2300
 1.5470	21.3280
 1.5480	21.4260
 1.5490	21.5230
 1.5500	21.6200
 1.5510	21.7160
 1.5520	21.8120
 1.5530	21.9060
 1.5540	21.9990
 1.5550	22.0930
 1.5560	22.1850
 1.5570	22.2780
 1.5580	22.3710
 1.5590	22.4610
 1.5600	22.5530
 1.5610	22.6430
 1.5620	22.7310
 1.5630	22.8190
 1.5640	22.9070
 1.5650	22.9950
 1.5660	23.0820
 1.5670	23.1690
 1.5680	23.2560
 1.5690	23.3400
 1.5700	23.4270
 1.5710	23.5120
 1.5720	23.5960
 1.5730	23.6790
 1.5740	23.7620
 1.5750	23.8440
 1.5760	23.9270
 1.5770	24.0080
 1.5780	24.0900
 1.5790	24.1710
 1.5800	24.2520
 1.5810	24.3340
 1.5820	24.4160
 1.5830	24.4970
 1.5840	24.5780
 1.5850	24.6560
 1.5860	24.7350
 1.5870	24.8170
 1.5880	24.8960
 1.5890	24.9770
 1.5900	25.0580
 1.5910	25.1360
 1.5920	25.2160
 1.5930	25.2950
 1.5940	25.3750
 1.5950	25.4550
 1.5960	25.5340
 1.5970	25.6130
 1.5980	25.6920
 1.5990	25.7690
 1.6000	25.8470
 1.6010	25.9240
 1.6020	26.0020
 1.6030	26.0800
 1.6040	26.1570
 1.6050	26.2330
 1.6060	26.3060
 1.6070	26.3800
 1.6080	26.4540
 1.6090	26.5260
 1.6100	26.5980
 1.6110	26.6700
 1.6120	26.7390
 1.6130	26.8100
 1.6140	26.8810
 1.6150	26.9500
 1.6160	27.0170
 1.6170	27.0820
 1.6180	27.1460
 1.6190	27.2090
 1.6200	27.2720
 1.6210	27.3340
 1.6220	27.3930
 1.6230	27.4500
 1.6240	27.5060
 1.6250	27.5590
 1.6260	27.6120
 1.6270	27.6630
 1.6280	27.7130
 1.6290	27.7630
 1.6300	27.8100
 1.6310	27.8560
 1.6320	27.8990
 1.6330	27.9430
 1.6340	27.9840
 1.6350	28.0270
 1.6360	28.0700
 1.6370	28.1120
 1.6380	28.1530
 1.6390	28.1940
 1.6400	28.2350
 1.6410	28.2730
 1.6420	28.3110
 1.6430	28.3450
 1.6440	28.3760
 1.6450	28.4030
 1.6460	28.4270
 1.6470	28.4480
 1.6480	28.4640
 1.6490	28.4780
 1.6500	28.4890
 1.6510	28.4990
 1.6520	28.5050
 1.6530	28.5100
 1.6540	28.5110
 1.6550	28.5110
 1.6560	28.5060
 1.6570	28.5000
 1.6580	28.4960
 1.6590	28.4910
 1.6600	28.4840
 1.6610	28.4770
 1.6620	28.4680
 1.6630	28.4570
 1.6640	28.4490
 1.6650	28.4410
 1.6660	28.4330
 1.6670	28.4250
 1.6680	28.4170
 1.6690	28.4090
 1.6700	28.4000
 1.6710	28.3890
 1.6720	28.3760
 1.6730	28.3600
 1.6740	28.3430
 1.6750	28.3260
 1.6760	28.3060
 1.6770	28.2850
 1.6780	28.2630
 1.6790	28.2360
 1.6800	28.2060
 1.6810	28.1730
 1.6820	28.1370
 1.6830	28.0990
 1.6840	28.0580
 1.6850	28.0150
 1.6860	27.9670
 1.6870	27.9140
 1.6880	27.8580
 1.6890	27.7990
 1.6900	27.7400
 1.6910	27.6800
 1.6920	27.6190
 1.6930	27.5560
 1.6940	27.4920
 1.6950	27.4260
 1.6960	27.3600
 1.6970	27.2930
 1.6980	27.2260
 1.6990	27.1570
 1.7000	27.0900
 1.7010	27.0230
 1.7020	26.9560
 1.7030	26.8910
 1.7040	26.8250
 1.7050	26.7570
 1.7060	26.6890
 1.7070	26.6190
 1.7080	26.5510
 1.7090	26.4830
 1.7100	26.4160
 1.7110	26.3510
 1.7120	26.2870
 1.7130	26.2240
 1.7140	26.1630
 1.7150	26.1050
 1.7160	26.0480
 1.7170	25.9940
 1.7180	25.9430
 1.7190	25.8920
 1.7200	25.8420
 1.7210	25.7930
 1.7220	25.7430
 1.7230	25.6930
 1.7240	25.6460
 1.7250	25.5980
 1.7260	25.5520
 1.7270	25.5090
 1.7280	25.4680
 1.7290	25.4270
 1.7300	25.3890
 1.7310	25.3500
 1.7320	25.3130
 1.7330	25.2740
 1.7340	25.2350
 1.7350	25.1930
 1.7360	25.1470
 1.7370	25.0990
 1.7380	25.0500
 1.7390	24.9960
 1.7400	24.9380
 1.7410	24.8790
 1.7420	24.8140
 1.7430	24.7500
 1.7440	24.6850
 1.7450	24.6180
 1.7460	24.5490
 1.7470	24.4790
 1.7480	24.4060
 1.7490	24.3360
 1.7500	24.2670
 1.7510	24.2000
 1.7520	24.1350
 1.7530	24.0700
 1.7540	24.0030
 1.7550	23.9410
 1.7560	23.8810
 1.7570	23.8230
 1.7580	23.7680
 1.7590	23.7130
 1.7600	23.6590
 1.7610	23.6080
 1.7620	23.5590
 1.7630	23.5150
 1.7640	23.4700
 1.7650	23.4270
 1.7660	23.3850
 1.7670	23.3410
 1.7680	23.3000
 1.7690	23.2630
 1.7700	23.2260
 1.7710	23.1920
 1.7720	23.1580
 1.7730	23.1210
 1.7740	23.0890
 1.7750	23.0580
 1.7760	23.0290
 1.7770	23.0020
 1.7780	22.9790
 1.7790	22.9590
 1.7800	22.9410
 1.7810	22.9270
 1.7820	22.9140
 1.7830	22.9050
 1.7840	22.8960
 1.7850	22.8900
 1.7860	22.8870
 1.7870	22.8860
 1.7880	22.8890
 1.7890	22.8940
 1.7900	22.9000
 1.7910	22.9050
 1.7920	22.9100
 1.7930	22.9170
 1.7940	22.9250
 1.7950	22.9350
 1.7960	22.9470
 1.7970	22.9590
 1.7980	22.9690
 1.7990	22.9810
 1.8000	22.9940
 1.8010	23.0060
 1.8020	23.0190
 1.8030	23.0320
 1.8040	23.0440
 1.8050	23.0570
 1.8060	23.0700
 1.8070	23.0840
 1.8080	23.0970
 1.8090	23.1090
 1.8100	23.1240
 1.8110	23.1330
 1.8120	23.1440
 1.8130	23.1530
 1.8140	23.1600
 1.8150	23.1690
 1.8160	23.1780
 1.8170	23.1830
 1.8180	23.1890
 1.8190	23.1950
 1.8200	23.1980
 1.8210	23.1990
 1.8220	23.2000
 1.8230	23.1980
 1.8240	23.1960
 1.8250	23.1960
 1.8260	23.1930
 1.8270	23.1880
 1.8280	23.1810
 1.8290	23.1730
 1.8300	23.0830
 1.8310	22.9260
 1.8320	22.8220
 1.8330	22.7920
 1.8340	22.7630
 1.8350	22.7340
 1.8360	22.6990
 1.8370	22.6580
 1.8380	22.6120
 1.8390	22.5610
 1.8400	22.5080
 1.8410	22.4460
 1.8420	22.3800
 1.8430	22.3090
 1.8440	22.2270
 1.8450	22.1380
 1.8460	22.0410
 1.8470	21.9320
 1.8480	21.8170
 1.8490	21.6920
 1.8500	21.5600
 1.8510	21.4220
 1.8520	21.2730
 1.8530	21.1060
 1.8540	20.9270
 1.8550	20.7360
 1.8560	20.5280
 1.8570	20.3140
 1.8580	20.0900
 1.8590	19.8530
 1.8600	19.6040
 1.8610	19.3430
 1.8620	19.0680
 1.8630	18.7820
 1.8640	18.4830
 1.8650	18.1680
 1.8660	17.8400
 1.8670	17.4960
 1.8680	17.1390
 1.8690	16.7710
 1.8700	16.3930
 1.8710	16.0040
 1.8720	15.6130
 1.8730	15.2160
 1.8740	14.8110
 1.8750	14.4050
 1.8760	13.9960
 1.8770	13.5890
 1.8780	13.1920
 1.8790	12.7960
 1.8800	12.4100
 1.8810	12.0330
 1.8820	11.6610
 1.8830	11.2940
 1.8840	10.9400
 1.8850	10.5960
 1.8860	10.2620
 1.8870	 9.9410
 1.8880	 9.6350
 1.8890	 9.3480
 1.8900	 9.0750
 1.8910	 8.8190
 1.8920	 8.5780
 1.8930	 8.3550
 1.8940	 8.1430
 1.8950	 7.9460
 1.8960	 7.7690
 1.8970	 7.6040
 1.8980	 7.4530
 1.8990	 7.3170
 1.9000	 7.1890
 1.9010	 7.0780
 1.9020	 6.9710
 1.9030	 6.8770
 1.9040	 6.7930
 1.9050	 6.7150
 1.9060	 6.6470
 1.9070	 6.5860
 1.9080	 6.5310
 1.9090	 6.4820
 1.9100	 6.4380
 1.9110	 6.3960
 1.9120	 6.3650
 1.9130	 6.3300
 1.9140	 6.3030
 1.9150	 6.2770
 1.9160	 6.2540
 1.9170	 6.2320
 1.9180	 6.2120
 1.9190	 6.1990
 1.9200	 6.1870
 1.9210	 6.1740
 1.9220	 6.1630
 1.9230	 6.1510
 1.9240	 6.1440
 1.9250	 6.1360
 1.9260	 6.1320
 1.9270	 6.1320
 1.9280	 6.1310
 1.9290	 6.1310
 1.9300	 6.1310
 1.9310	 6.1340
 1.9320	 6.1370
 1.9330	 6.1420
 1.9340	 6.1450
 1.9350	 6.1490
 1.9360	 6.1540
 1.9370	 6.1610
 1.9380	 6.1690
 1.9390	 6.1790
 1.9400	 6.1940
 1.9410	 6.2050
 1.9420	 6.2190
 1.9430	 6.2320
 1.9440	 6.2470
 1.9450	 6.2610
 1.9460	 6.2740
 1.9470	 6.2870
 1.9480	 6.3020
 1.9490	 6.3190
 1.9500	 6.3370
 1.9510	 6.3560
 1.9520	 6.3770
 1.9530	 6.3930
 1.9540	 6.4100
 1.9550	 6.4300
 1.9560	 6.4500
 1.9570	 6.4710
 1.9580	 6.4970
 1.9590	 6.5190
 1.9600	 6.5430
 1.9610	 6.5660
 1.9620	 6.5870
 1.9630	 6.6100
 1.9640	 6.6330
 1.9650	 6.6580
 1.9660	 6.6810
 1.9670	 6.7090
 1.9680	 6.7350
 1.9690	 6.7650
 1.9700	 6.7940
 1.9710	 6.8220
 1.9720	 6.8520
 1.9730	 6.8820
 1.9740	 6.9140
 1.9750	 6.9450
 1.9760	 6.9750
 1.9770	 7.0060
 1.9780	 7.0340
 1.9790	 7.0650
 1.9800	 7.0990
 1.9810	 7.1310
 1.9820	 7.1650
 1.9830	 7.2000
 1.9840	 7.2370
 1.9850	 7.2710
 1.9860	 7.3020
 1.9870	 7.3360
 1.9880	 7.3690
 1.9890	 7.4040
 1.9900	 7.4400
 1.9910	 7.4770
 1.9920	 7.5140
 1.9930	 7.5500
 1.9940	 7.5850
 1.9950	 7.6220
 1.9960	 7.6580
 1.9970	 7.6960
 1.9980	 7.7340
 1.9990	 7.7740
 2.0000	 7.8150
 2.0010	 7.8550
 2.0020	 7.8950
 2.0030	 7.9320
 2.0040	 7.9710
 2.0050	 8.0090
 2.0060	 8.0510
 2.0070	 8.0890
 2.0080	 8.1290
 2.0090	 8.1660
 2.0100	 8.1990
 2.0110	 8.2350
 2.0120	 8.2730
 2.0130	 8.3110
 2.0140	 8.3510
 2.0150	 8.3920
 2.0160	 8.4340
 2.0170	 8.4730
 2.0180	 8.5120
 2.0190	 8.5520
 2.0200	 8.5890
 2.0210	 8.6240
 2.0220	 8.6560
 2.0230	 8.6940
 2.0240	 8.7280
 2.0250	 8.7600
 2.0260	 8.7950
 2.0270	 8.8280
 2.0280	 8.8610
 2.0290	 8.8940
 2.0300	 8.9250
 2.0310	 8.9590
 2.0320	 8.9850
 2.0330	 9.0180
 2.0340	 9.0500
 2.0350	 9.0810
 2.0360	 9.1150
 2.0370	 9.1430
 2.0380	 9.1730
 2.0390	 9.2040
 2.0400	 9.2300
 2.0410	 9.2580
 2.0420	 9.2840
 2.0430	 9.3130
 2.0440	 9.3380
 2.0450	 9.3650
 2.0460	 9.3900
 2.0470	 9.4130
 2.0480	 9.4390
 2.0490	 9.4630
 2.0500	 9.4880
 2.0510	 9.5150
 2.0520	 9.5410
 2.0530	 9.5690
 2.0540	 9.5930
 2.0550	 9.6210
 2.0560	 9.6460
 2.0570	 9.6680
 2.0580	 9.6900
 2.0590	 9.7120
 2.0600	 9.7320
 2.0610	 9.7550
 2.0620	 9.7810
 2.0630	 9.8060
 2.0640	 9.8330
 2.0650	 9.8570
 2.0660	 9.8820
 2.0670	 9.9050
 2.0680	 9.9270
 2.0690	 9.9520
 2.0700	 9.9740
 2.0710	 9.9980
 2.0720	10.0240
 2.0730	10.0510
 2.0740	10.0760
 2.0750	10.0990
 2.0760	10.1260
 2.0770	10.1520
 2.0780	10.1780
 2.0790	10.2080
 2.0800	10.2330
 2.0810	10.2570
 2.0820	10.2790
 2.0830	10.3000
 2.0840	10.3240
 2.0850	10.3480
 2.0860	10.3710
 2.0870	10.3980
 2.0880	10.4230
 2.0890	10.4490
 2.0900	10.4760
 2.0910	10.5010
 2.0920	10.5270
 2.0930	10.5510
 2.0940	10.5720
 2.0950	10.5960
 2.0960	10.6210
 2.0970	10.6480
 2.0980	10.6770
 2.0990	10.7050
 2.1000	10.7310
 2.1010	10.7590
 2.1020	10.7870
 2.1030	10.8150
 2.1040	10.8430
 2.1050	10.8710
 2.1060	10.8970
 2.1070	10.9220
 2.1080	10.9470
 2.1090	10.9710
 2.1100	10.9970
 2.1110	11.0230
 2.1120	11.0490
 2.1130	11.0770
 2.1140	11.1040
 2.1150	11.1330
 2.1160	11.1590
 2.1170	11.1830
 2.1180	11.2090
 2.1190	11.2350
 2.1200	11.2620
 2.1210	11.2890
 2.1220	11.3190
 2.1230	11.3460
 2.1240	11.3730
 2.1250	11.3990
 2.1260	11.4250
 2.1270	11.4500
 2.1280	11.4730
 2.1290	11.4970
 2.1300	11.5210
 2.1310	11.5460
 2.1320	11.5730
 2.1330	11.5990
 2.1340	11.6250
 2.1350	11.6500
 2.1360	11.6730
 2.1370	11.6960
 2.1380	11.7170
 2.1390	11.7410
 2.1400	11.7640
 2.1410	11.7890
 2.1420	11.8130
 2.1430	11.8380
 2.1440	11.8650
 2.1450	11.8900
 2.1460	11.9170
 2.1470	11.9500
 2.1480	11.9770
 2.1490	12.0020
 2.1500	12.0270
 2.1510	12.0480
 2.1520	12.0730
 2.1530	12.0990
 2.1540	12.1250
 2.1550	12.1510
 2.1560	12.1770
 2.1570	12.2010
 2.1580	12.2270
 2.1590	12.2560
 2.1600	12.2820
 2.1610	12.3060
 2.1620	12.3320
 2.1630	12.3550
 2.1640	12.3760
 2.1650	12.3980
 2.1660	12.4210
 2.1670	12.4430
 2.1680	12.4660
 2.1690	12.4890
 2.1700	12.5130
 2.1710	12.5350
 2.1720	12.5550
 2.1730	12.5770
 2.1740	12.6010
 2.1750	12.6240
 2.1760	12.6490
 2.1770	12.6720
 2.1780	12.6920
 2.1790	12.7140
 2.1800	12.7350
 2.1810	12.7570
 2.1820	12.7810
 2.1830	12.8050
 2.1840	12.8280
 2.1850	12.8520
 2.1860	12.8720
 2.1870	12.8890
 2.1880	12.9090
 2.1890	12.9280
 2.1900	12.9500
 2.1910	12.9770
 2.1920	12.9990
 2.1930	13.0180
 2.1940	13.0370
 2.1950	13.0520
 2.1960	13.0710
 2.1970	13.0910
 2.1980	13.1100
 2.1990	13.1270
 2.2000	13.1450
 2.2010	13.1610
 2.2020	13.1780
 2.2030	13.1980
 2.2040	13.2150
 2.2050	13.2330
 2.2060	13.2480
 2.2070	13.2610
 2.2080	13.2700
 2.2090	13.2820
 2.2100	13.2930
 2.2110	13.3020
 2.2120	13.3120
 2.2130	13.3190
 2.2140	13.3230
 2.2150	13.3270
 2.2160	13.3300
 2.2170	13.3320
 2.2180	13.3310
 2.2190	13.3290
 2.2200	13.3260
 2.2210	13.3200
 2.2220	13.3080
 2.2230	13.3000
 2.2240	13.2930
 2.2250	13.2840
 2.2260	13.2780
 2.2270	13.2670
 2.2280	13.2550
 2.2290	13.2370
 2.2300	13.2170
 2.2310	13.1920
 2.2320	13.1630
 2.2330	13.1330
 2.2340	13.0990
 2.2350	13.0630
 2.2360	13.0280
 2.2370	12.9900
 2.2380	12.9530
 2.2390	12.9170
 2.2400	12.8760
 2.2410	12.8300
 2.2420	12.7850
 2.2430	12.7380
 2.2440	12.6900
 2.2450	12.6420
 2.2460	12.5920
 2.2470	12.5410
 2.2480	12.4850
 2.2490	12.4260
 2.2500	12.3680
 2.2510	12.3040
 2.2520	12.2430
 2.2530	12.1860
 2.2540	12.1270
 2.2550	12.0680
 2.2560	12.0080
 2.2570	11.9480
 2.2580	11.8860
 2.2590	11.8240
 2.2600	11.7590
 2.2610	11.6900
 2.2620	11.6260
 2.2630	11.5620
 2.2640	11.5010
 2.2650	11.4490
 2.2660	11.3940
 2.2670	11.3420
 2.2680	11.2920
 2.2690	11.2420
 2.2700	11.1910
 2.2710	11.1440
 2.2720	11.0970
 2.2730	11.0550
 2.2740	11.0200
 2.2750	10.9800
 2.2760	10.9400
 2.2770	10.9060
 2.2780	10.8720
 2.2790	10.8400
 2.2800	10.8140
 2.2810	10.7840
 2.2820	10.7500
 2.2830	10.7190
 2.2840	10.6890
 2.2850	10.6570
 2.2860	10.6240
 2.2870	10.5920
 2.2880	10.5600
 2.2890	10.5240
 2.2900	10.4880
 2.2910	10.4500
 2.2920	10.4060
 2.2930	10.3650
 2.2940	10.3290
 2.2950	10.2900
 2.2960	10.2490
 2.2970	10.2080
 2.2980	10.1620
 2.2990	10.1190
 2.3000	10.0770
 2.3010	10.0370
 2.3020	10.0010
 2.3030	 9.9630
 2.3040	 9.9240
 2.3050	 9.8920
 2.3060	 9.8740
 2.3070	 9.8520
 2.3080	 9.8350
 2.3090	 9.8200
 2.3100	 9.8050
 2.3110	 9.7900
 2.3120	 9.7780
 2.3130	 9.7700
 2.3140	 9.7590
 2.3150	 9.7480
 2.3160	 9.7370
 2.3170	 9.7250
 2.3180	 9.7150
 2.3190	 9.7110
 2.3200	 9.7010
 2.3210	 9.6970
 2.3220	 9.6870
 2.3230	 9.6730
 2.3240	 9.6570
 2.3250	 9.6410
 2.3260	 9.6200
 2.3270	 9.5940
 2.3280	 9.5690
 2.3290	 9.5380
 2.3300	 9.5120
 2.3310	 9.4870
 2.3320	 9.4630
 2.3330	 9.4410
 2.3340	 9.4140
 2.3350	 9.3910
 2.3360	 9.3620
 2.3370	 9.3230
 2.3380	 9.2910
 2.3390	 9.2580
 2.3400	 9.2270
 2.3410	 9.2010
 2.3420	 9.1770
 2.3430	 9.1550
 2.3440	 9.1300
 2.3450	 9.1070
 2.3460	 9.0840
 2.3470	 9.0580
 2.3480	 9.0330
 2.3490	 9.0140
 2.3500	 8.9940
 2.3510	 8.9720
 2.3520	 8.9510
 2.3530	 8.9330
 2.3540	 8.9140
 2.3550	 8.8860
 2.3560	 8.8760
 2.3570	 8.8610
 2.3580	 8.8450
 2.3590	 8.8370
 2.3600	 8.8180
 2.3610	 8.8000
 2.3620	 8.7830
 2.3630	 8.7590
 2.3640	 8.7400
 2.3650	 8.7230
 2.3660	 8.6930
 2.3670	 8.6660
 2.3680	 8.6350
 2.3690	 8.6050
 2.3700	 8.5860
 2.3710	 8.5710
 2.3720	 8.5600
 2.3730	 8.5500
 2.3740	 8.5320
 2.3750	 8.5050
 2.3760	 8.4740
 2.3770	 8.4500
 2.3780	 8.4240
 2.3790	 8.4040
 2.3800	 8.3830
 2.3810	 8.3630
 2.3820	 8.3450
 2.3830	 8.3190
 2.3840	 8.3000
 2.3850	 8.2760
 2.3860	 8.2490
 2.3870	 8.2320
 2.3880	 8.2090
 2.3890	 8.1950
 2.3900	 8.1890
 2.3910	 8.1680
 2.3920	 8.1440
 2.3930	 8.1250
 2.3940	 8.0900
 2.3950	 8.0630
 2.3960	 8.0410
 2.3970	 8.0120
 2.3980	 7.9850
 2.3990	 7.9680
 2.4000	 7.9510
 2.4010	 7.9330
 2.4020	 7.9210
 2.4030	 7.8950
 2.4040	 7.8630
 2.4050	 7.8320
 2.4060	 7.7950
 2.4070	 7.7680
 2.4080	 7.7540
 2.4090	 7.7470
 2.4100	 7.7330
 2.4110	 7.7190
 2.4120	 7.6950
 2.4130	 7.6720
 2.4140	 7.6600
 2.4150	 7.6410
 2.4160	 7.6210
 2.4170	 7.5950
 2.4180	 7.5630
 2.4190	 7.5400
 2.4200	 7.5130
 2.4210	 7.4760
 2.4220	 7.4390
 2.4230	 7.3970
 2.4240	 7.3670
 2.4250	 7.3560
 2.4260	 7.3450
 2.4270	 7.3410
 2.4280	 7.3330
 2.4290	 7.3060
 2.4300	 7.2840
 2.4310	 7.2500
 2.4320	 7.2140
 2.4330	 7.1910
 2.4340	 7.1620
 2.4350	 7.1390
 2.4360	 7.1230
 2.4370	 7.0950
 2.4380	 7.0710
 2.4390	 7.0520
 2.4400	 7.0190
 2.4410	 6.9920
 2.4420	 6.9750
 2.4430	 6.9360
 2.4440	 6.9040
 2.4450	 6.8720
 2.4460	 6.8300
 2.4470	 6.8090
 2.4480	 6.8010
 2.4490	 6.8160
 2.4500	 6.8250
 2.4510	 6.8180
 2.4520	 6.7950
 2.4530	 6.7530
 2.4540	 6.7150
 2.4550	 6.6930
 2.4560	 6.6730
 2.4570	 6.6530
 2.4580	 6.6230
 2.4590	 6.6070
 2.4600	 6.6100
 2.4610	 6.5990
 2.4620	 6.5830
 2.4630	 6.5540
 2.4640	 6.5110
 2.4650	 6.4850
 2.4660	 6.4710
 2.4670	 6.4490
 2.4680	 6.4250
 2.4690	 6.3740
 2.4700	 6.3500
 2.4710	 6.3390
 2.4720	 6.3250
 2.4730	 6.3340
 2.4740	 6.3320
 2.4750	 6.3230
 2.4760	 6.3200
 2.4770	 6.3190
 2.4780	 6.3050
 2.4790	 6.3010
 2.4800	 6.2810
 2.4810	 6.2350
 2.4820	 6.2160
 2.4830	 6.1710
 2.4840	 6.1480
 2.4850	 6.1420
 2.4860	 6.1140
 2.4870	 6.1060
 2.4880	 6.1220
 2.4890	 6.1100
 2.4900	 6.1360
 2.4910	 6.1690
 2.4920	 6.1620
 2.4930	 6.1590
 2.4940	 6.1310
 2.4950	 6.0860
 2.4960	 6.1060
 2.4970	 6.1270
 2.4980	 6.1480
 2.4990	 6.1660
 2.5000	 6.0960
