Name: Ceanothus megacarpus 3
Type: vegetation
Class: Shrub
Genus: Ceanothus
Species: megacarpus
Sample No.: VH144
Owner: UCSB
Wavelength Range: TIR
Origin: 34.4909; -119.7914; WGS84
Collection Date: 6/3/2013
Description: Samples were collected as part of the HyspIRI Airborne Campaign. 48 individual plants were sampled in three times in 2013 - spring  summer  and fall. The name of the sample includes a 1  2  or 3 which references a different individual of the species. Samples were taken to JPL and processed within 48 hours of collection. The same leaves were processed in the Nicolet and then measured using the ASD.
Measurement: Hemispherical reflectance
First Column: X
Second Column: Y
X Units: Wavelength (micrometers)
Y Units: Reflectance (percentage)
First X Value: 2.501
Last X Value: 15.387
Number of X Values: 1737
Additional Information: vegetation.shrub.ceanothus.megacarpus.tir.vh144.ucsb.nicolet.ancillary.txt

 2.5010	 5.3470
 2.5030	 5.3300
 2.5040	 5.3080
 2.5050	 5.1890
 2.5060	 5.2690
 2.5070	 5.3450
 2.5090	 5.3750
 2.5100	 5.4160
 2.5110	 5.5470
 2.5120	 5.4420
 2.5140	 5.3290
 2.5150	 5.2770
 2.5160	 5.3600
 2.5170	 5.3830
 2.5180	 5.3400
 2.5200	 5.2930
 2.5210	 5.3400
 2.5220	 5.2510
 2.5230	 5.2570
 2.5250	 5.2240
 2.5260	 5.2330
 2.5270	 5.2460
 2.5280	 5.2930
 2.5290	 5.2720
 2.5310	 5.3220
 2.5320	 5.2280
 2.5330	 5.1370
 2.5340	 5.1280
 2.5360	 5.2930
 2.5370	 5.3080
 2.5380	 5.3020
 2.5390	 5.3120
 2.5410	 5.3920
 2.5420	 5.3590
 2.5430	 5.3910
 2.5440	 5.3290
 2.5460	 5.3910
 2.5470	 5.3470
 2.5480	 5.3130
 2.5490	 5.3080
 2.5510	 5.3740
 2.5520	 5.3160
 2.5530	 5.3340
 2.5540	 5.3400
 2.5560	 5.3560
 2.5570	 5.2820
 2.5580	 5.3560
 2.5590	 5.4260
 2.5610	 5.4220
 2.5620	 5.3090
 2.5630	 5.3110
 2.5640	 5.2250
 2.5660	 5.2110
 2.5670	 5.2810
 2.5680	 5.4450
 2.5700	 5.3900
 2.5710	 5.4310
 2.5720	 5.5470
 2.5730	 5.4600
 2.5750	 5.2860
 2.5760	 5.3720
 2.5770	 5.3530
 2.5790	 5.4140
 2.5800	 5.3410
 2.5810	 5.3010
 2.5820	 5.3680
 2.5840	 5.5010
 2.5850	 5.4900
 2.5860	 5.4610
 2.5880	 5.3560
 2.5890	 5.3410
 2.5900	 5.2520
 2.5910	 5.2420
 2.5930	 5.2880
 2.5940	 5.3060
 2.5950	 5.2620
 2.5970	 5.4360
 2.5980	 5.4660
 2.5990	 5.4810
 2.6000	 5.3680
 2.6020	 5.2740
 2.6030	 5.2730
 2.6040	 5.3380
 2.6060	 5.2900
 2.6070	 5.2620
 2.6080	 5.2340
 2.6100	 5.3040
 2.6110	 5.2540
 2.6120	 5.2750
 2.6140	 5.3070
 2.6150	 5.3570
 2.6160	 5.2180
 2.6180	 5.2260
 2.6190	 5.2750
 2.6200	 5.2700
 2.6220	 5.2330
 2.6230	 5.2690
 2.6240	 5.2830
 2.6260	 5.2500
 2.6270	 5.1480
 2.6280	 5.1770
 2.6300	 5.1720
 2.6310	 5.2560
 2.6320	 5.2580
 2.6340	 5.3220
 2.6350	 5.2650
 2.6360	 5.3050
 2.6380	 5.3350
 2.6390	 5.3380
 2.6400	 5.2140
 2.6420	 5.1330
 2.6430	 5.0660
 2.6440	 5.1520
 2.6460	 5.1660
 2.6470	 5.1440
 2.6480	 5.1390
 2.6500	 5.2170
 2.6510	 5.1380
 2.6520	 5.1180
 2.6540	 5.1080
 2.6550	 5.0440
 2.6560	 5.0390
 2.6580	 5.0640
 2.6590	 5.0610
 2.6610	 5.1760
 2.6620	 5.1560
 2.6630	 5.0620
 2.6650	 5.0070
 2.6660	 5.0000
 2.6670	 4.9160
 2.6690	 4.9890
 2.6700	 5.0730
 2.6720	 5.1450
 2.6730	 5.1250
 2.6740	 5.1770
 2.6760	 5.0670
 2.6770	 4.9880
 2.6780	 4.9430
 2.6800	 4.9720
 2.6810	 4.9750
 2.6830	 5.0580
 2.6840	 5.0750
 2.6850	 5.1680
 2.6870	 5.0790
 2.6880	 5.0140
 2.6900	 5.0660
 2.6910	 5.1330
 2.6920	 5.0990
 2.6940	 5.1020
 2.6950	 4.9860
 2.6970	 4.9610
 2.6980	 4.8930
 2.6990	 4.9230
 2.7010	 4.8970
 2.7020	 4.9440
 2.7040	 5.0160
 2.7050	 5.0770
 2.7060	 4.9520
 2.7080	 5.0010
 2.7090	 4.9820
 2.7110	 5.0280
 2.7120	 4.9980
 2.7130	 4.9960
 2.7150	 4.9110
 2.7160	 4.8960
 2.7180	 4.8680
 2.7190	 4.9130
 2.7210	 4.9460
 2.7220	 4.9030
 2.7230	 4.8330
 2.7250	 4.8640
 2.7260	 4.9150
 2.7280	 4.9420
 2.7290	 4.8390
 2.7310	 4.9080
 2.7320	 4.9030
 2.7330	 4.8990
 2.7350	 4.9240
 2.7360	 4.8940
 2.7380	 4.7640
 2.7390	 4.8590
 2.7410	 4.8650
 2.7420	 4.8520
 2.7440	 4.8760
 2.7450	 4.8880
 2.7470	 4.7810
 2.7480	 4.7170
 2.7490	 4.6120
 2.7510	 4.7030
 2.7520	 4.8270
 2.7540	 4.9630
 2.7550	 4.9010
 2.7570	 4.8610
 2.7580	 4.8480
 2.7600	 4.9510
 2.7610	 4.8170
 2.7630	 4.7680
 2.7640	 4.7610
 2.7660	 4.8950
 2.7670	 4.8630
 2.7680	 4.8520
 2.7700	 4.9020
 2.7710	 4.9560
 2.7730	 4.9060
 2.7740	 4.8390
 2.7760	 4.7140
 2.7770	 4.7710
 2.7790	 4.7640
 2.7800	 4.7780
 2.7820	 4.6620
 2.7830	 4.7300
 2.7850	 4.8130
 2.7860	 4.7710
 2.7880	 4.6680
 2.7890	 4.7740
 2.7910	 4.8020
 2.7920	 4.7810
 2.7940	 4.7110
 2.7950	 4.7640
 2.7970	 4.8000
 2.7980	 4.8250
 2.8000	 4.7690
 2.8010	 4.8530
 2.8030	 4.7910
 2.8040	 4.7270
 2.8060	 4.6210
 2.8070	 4.7510
 2.8090	 4.7980
 2.8110	 4.7820
 2.8120	 4.6820
 2.8140	 4.6840
 2.8150	 4.6460
 2.8170	 4.6900
 2.8180	 4.6820
 2.8200	 4.7940
 2.8210	 4.7840
 2.8230	 4.7780
 2.8240	 4.7330
 2.8260	 4.8190
 2.8270	 4.7540
 2.8290	 4.7680
 2.8300	 4.7080
 2.8320	 4.6950
 2.8340	 4.5970
 2.8350	 4.6460
 2.8370	 4.6150
 2.8380	 4.7190
 2.8400	 4.6660
 2.8410	 4.7720
 2.8430	 4.8270
 2.8440	 4.8480
 2.8460	 4.8410
 2.8480	 4.7750
 2.8490	 4.6170
 2.8510	 4.7020
 2.8520	 4.7370
 2.8540	 4.7540
 2.8550	 4.6480
 2.8570	 4.6760
 2.8590	 4.7680
 2.8600	 4.7740
 2.8620	 4.7500
 2.8630	 4.8370
 2.8650	 4.7540
 2.8660	 4.6840
 2.8680	 4.7070
 2.8700	 4.8060
 2.8710	 4.8060
 2.8730	 4.7940
 2.8740	 4.6820
 2.8760	 4.7910
 2.8780	 4.9040
 2.8790	 4.8560
 2.8810	 4.6000
 2.8820	 4.6350
 2.8840	 4.7180
 2.8860	 4.7550
 2.8870	 4.6630
 2.8890	 4.7210
 2.8900	 4.8120
 2.8920	 4.9460
 2.8940	 4.8830
 2.8950	 4.8000
 2.8970	 4.7520
 2.8980	 4.8170
 2.9000	 4.7560
 2.9020	 4.7860
 2.9030	 4.7870
 2.9050	 4.8310
 2.9070	 4.7710
 2.9080	 4.8080
 2.9100	 4.7750
 2.9120	 4.7970
 2.9130	 4.7780
 2.9150	 4.8180
 2.9160	 4.8280
 2.9180	 4.8650
 2.9200	 4.8090
 2.9210	 4.7470
 2.9230	 4.6450
 2.9250	 4.8000
 2.9260	 4.8280
 2.9280	 4.8360
 2.9300	 4.8240
 2.9310	 4.9410
 2.9330	 4.9660
 2.9350	 4.9900
 2.9360	 4.9310
 2.9380	 4.9110
 2.9400	 4.8240
 2.9410	 4.8640
 2.9430	 4.8150
 2.9450	 4.7920
 2.9460	 4.7310
 2.9480	 4.8500
 2.9500	 4.9480
 2.9510	 4.9870
 2.9530	 4.8410
 2.9550	 4.7920
 2.9560	 4.7680
 2.9580	 4.7660
 2.9600	 4.7390
 2.9610	 4.9090
 2.9630	 4.9290
 2.9650	 4.8310
 2.9660	 4.6450
 2.9680	 4.7190
 2.9700	 4.9350
 2.9720	 5.0370
 2.9730	 4.9490
 2.9750	 4.9380
 2.9770	 4.9610
 2.9780	 4.9520
 2.9800	 4.8300
 2.9820	 4.8040
 2.9840	 4.7930
 2.9850	 4.9350
 2.9870	 4.9620
 2.9890	 4.9180
 2.9900	 4.8100
 2.9920	 4.8550
 2.9940	 4.9010
 2.9960	 4.9370
 2.9970	 4.8410
 2.9990	 4.9230
 3.0010	 5.0450
 3.0030	 5.0810
 3.0040	 4.9340
 3.0060	 4.9120
 3.0080	 4.8950
 3.0100	 4.8440
 3.0110	 4.7150
 3.0130	 4.7910
 3.0150	 4.8450
 3.0170	 4.9240
 3.0180	 4.9140
 3.0200	 4.9130
 3.0220	 4.8020
 3.0240	 4.8410
 3.0250	 4.7930
 3.0270	 4.9290
 3.0290	 4.9050
 3.0310	 4.9040
 3.0320	 4.8110
 3.0340	 4.7850
 3.0360	 4.7170
 3.0380	 4.7490
 3.0400	 4.7510
 3.0410	 4.8400
 3.0430	 4.8680
 3.0450	 4.8480
 3.0470	 4.8400
 3.0480	 4.9190
 3.0500	 4.8940
 3.0520	 4.9940
 3.0540	 5.0080
 3.0560	 4.9770
 3.0570	 4.8970
 3.0590	 4.9030
 3.0610	 4.8200
 3.0630	 4.8570
 3.0650	 4.8590
 3.0660	 4.9380
 3.0680	 4.8840
 3.0700	 4.8750
 3.0720	 4.8950
 3.0740	 4.9310
 3.0760	 4.9510
 3.0770	 5.0120
 3.0790	 4.9050
 3.0810	 4.8810
 3.0830	 4.8000
 3.0850	 4.9060
 3.0870	 4.8890
 3.0880	 4.8680
 3.0900	 4.8520
 3.0920	 4.9080
 3.0940	 4.8450
 3.0960	 4.7980
 3.0980	 4.7980
 3.0990	 4.8030
 3.1010	 4.7390
 3.1030	 4.7610
 3.1050	 4.7590
 3.1070	 4.8390
 3.1090	 4.8450
 3.1110	 4.8780
 3.1120	 4.8630
 3.1140	 4.8140
 3.1160	 4.7060
 3.1180	 4.7800
 3.1200	 4.7950
 3.1220	 4.8870
 3.1240	 4.9490
 3.1260	 4.9140
 3.1270	 4.7960
 3.1290	 4.8320
 3.1310	 4.8500
 3.1330	 4.8310
 3.1350	 4.6980
 3.1370	 4.7340
 3.1390	 4.7670
 3.1410	 4.8550
 3.1430	 4.8940
 3.1450	 4.8620
 3.1460	 4.8080
 3.1480	 4.8500
 3.1500	 4.8290
 3.1520	 4.8560
 3.1540	 4.8820
 3.1560	 4.8820
 3.1580	 4.7950
 3.1600	 4.7920
 3.1620	 4.7740
 3.1640	 4.8230
 3.1660	 4.8590
 3.1680	 4.8000
 3.1700	 4.6880
 3.1710	 4.7440
 3.1730	 4.7020
 3.1750	 4.7800
 3.1770	 4.7980
 3.1790	 4.8030
 3.1810	 4.7790
 3.1830	 4.7300
 3.1850	 4.6180
 3.1870	 4.7590
 3.1890	 4.8120
 3.1910	 4.8000
 3.1930	 4.6810
 3.1950	 4.6420
 3.1970	 4.6150
 3.1990	 4.7200
 3.2010	 4.7490
 3.2030	 4.7930
 3.2050	 4.7680
 3.2070	 4.7800
 3.2090	 4.6910
 3.2110	 4.7190
 3.2130	 4.7320
 3.2150	 4.7460
 3.2170	 4.6880
 3.2190	 4.7070
 3.2210	 4.5860
 3.2230	 4.6310
 3.2250	 4.5970
 3.2270	 4.6520
 3.2290	 4.6830
 3.2310	 4.6420
 3.2330	 4.6300
 3.2350	 4.7590
 3.2370	 4.7700
 3.2390	 4.7790
 3.2410	 4.6700
 3.2430	 4.6770
 3.2450	 4.7340
 3.2470	 4.7410
 3.2490	 4.6530
 3.2510	 4.6540
 3.2530	 4.6210
 3.2550	 4.6210
 3.2570	 4.5730
 3.2590	 4.5640
 3.2610	 4.6240
 3.2630	 4.6850
 3.2650	 4.5720
 3.2670	 4.6070
 3.2690	 4.5990
 3.2720	 4.6010
 3.2740	 4.5510
 3.2760	 4.5910
 3.2780	 4.5640
 3.2800	 4.5560
 3.2820	 4.5140
 3.2840	 4.6290
 3.2860	 4.6210
 3.2880	 4.5740
 3.2900	 4.4940
 3.2920	 4.4910
 3.2940	 4.4890
 3.2960	 4.4870
 3.2990	 4.4410
 3.3010	 4.4710
 3.3030	 4.4600
 3.3050	 4.4220
 3.3070	 4.3640
 3.3090	 4.4590
 3.3110	 4.4780
 3.3130	 4.4730
 3.3150	 4.3990
 3.3180	 4.4090
 3.3200	 4.3740
 3.3220	 4.2970
 3.3240	 4.2460
 3.3260	 4.3820
 3.3280	 4.3860
 3.3300	 4.2740
 3.3330	 4.2250
 3.3350	 4.2680
 3.3370	 4.2170
 3.3390	 4.2520
 3.3410	 4.2280
 3.3430	 4.2400
 3.3450	 4.1810
 3.3480	 4.1120
 3.3500	 4.0230
 3.3520	 4.0100
 3.3540	 4.0350
 3.3560	 4.1510
 3.3580	 4.0590
 3.3610	 4.0020
 3.3630	 4.0100
 3.3650	 4.0360
 3.3670	 3.9510
 3.3690	 4.0160
 3.3720	 3.9940
 3.3740	 3.9500
 3.3760	 4.0110
 3.3780	 4.1770
 3.3800	 4.1970
 3.3830	 4.2500
 3.3850	 4.1550
 3.3870	 4.1200
 3.3890	 4.0920
 3.3910	 3.9830
 3.3940	 3.8480
 3.3960	 3.7800
 3.3980	 3.6890
 3.4000	 3.7120
 3.4020	 3.8060
 3.4050	 3.9290
 3.4070	 3.9870
 3.4090	 4.2130
 3.4110	 4.4390
 3.4140	 4.8030
 3.4160	 5.3190
 3.4180	 6.0750
 3.4200	 6.9680
 3.4230	 8.0430
 3.4250	 9.2500
 3.4270	10.6100
 3.4290	11.4450
 3.4320	11.1390
 3.4340	 9.9340
 3.4360	 8.7720
 3.4390	 7.8850
 3.4410	 7.2870
 3.4430	 6.8850
 3.4450	 6.6970
 3.4480	 6.5090
 3.4500	 6.4580
 3.4520	 6.4130
 3.4550	 6.3240
 3.4570	 6.1470
 3.4590	 6.0730
 3.4620	 6.0340
 3.4640	 5.9990
 3.4660	 5.9590
 3.4680	 5.8450
 3.4710	 5.6500
 3.4730	 5.5890
 3.4750	 5.4730
 3.4780	 5.3720
 3.4800	 5.3200
 3.4820	 5.2670
 3.4850	 5.1210
 3.4870	 5.0680
 3.4890	 4.9630
 3.4920	 4.8650
 3.4940	 4.8120
 3.4970	 4.8400
 3.4990	 4.8970
 3.5010	 5.1330
 3.5040	 5.5030
 3.5060	 6.5750
 3.5080	 8.4760
 3.5110	10.2120
 3.5130	10.3130
 3.5160	 9.1980
 3.5180	 8.1280
 3.5200	 7.4970
 3.5230	 7.0840
 3.5250	 6.8410
 3.5270	 6.5600
 3.5300	 6.3730
 3.5320	 6.2800
 3.5350	 6.1820
 3.5370	 5.9890
 3.5400	 5.9840
 3.5420	 5.9370
 3.5440	 5.8740
 3.5470	 5.8670
 3.5490	 5.9140
 3.5520	 5.8280
 3.5540	 5.7330
 3.5570	 5.6900
 3.5590	 5.7250
 3.5610	 5.7560
 3.5640	 5.6750
 3.5660	 5.5860
 3.5690	 5.6050
 3.5710	 5.5890
 3.5740	 5.5900
 3.5760	 5.5370
 3.5790	 5.5500
 3.5810	 5.5040
 3.5840	 5.4990
 3.5860	 5.5190
 3.5890	 5.5420
 3.5910	 5.5240
 3.5930	 5.4810
 3.5960	 5.4240
 3.5980	 5.4560
 3.6010	 5.3790
 3.6030	 5.3970
 3.6060	 5.4150
 3.6080	 5.4080
 3.6110	 5.3730
 3.6140	 5.3930
 3.6160	 5.3500
 3.6190	 5.3360
 3.6210	 5.2840
 3.6240	 5.2310
 3.6260	 5.1750
 3.6290	 5.2280
 3.6310	 5.2390
 3.6340	 5.2560
 3.6360	 5.2010
 3.6390	 5.2020
 3.6410	 5.2650
 3.6440	 5.2840
 3.6470	 5.2220
 3.6490	 5.2560
 3.6520	 5.2480
 3.6540	 5.2290
 3.6570	 5.2030
 3.6590	 5.2460
 3.6620	 5.2370
 3.6650	 5.1980
 3.6670	 5.1090
 3.6700	 5.0980
 3.6720	 5.1300
 3.6750	 5.2490
 3.6780	 5.2720
 3.6800	 5.2400
 3.6830	 5.2350
 3.6850	 5.1950
 3.6880	 5.1700
 3.6910	 5.2550
 3.6930	 5.2580
 3.6960	 5.1820
 3.6990	 5.1550
 3.7010	 5.2040
 3.7040	 5.1560
 3.7060	 5.1580
 3.7090	 5.1470
 3.7120	 5.1090
 3.7140	 5.1450
 3.7170	 5.1520
 3.7200	 5.1200
 3.7220	 5.1650
 3.7250	 5.1070
 3.7280	 5.0470
 3.7300	 5.0770
 3.7330	 5.1860
 3.7360	 5.2070
 3.7390	 5.1780
 3.7410	 5.0890
 3.7440	 5.0410
 3.7470	 5.0770
 3.7490	 5.1890
 3.7520	 5.1670
 3.7550	 5.1710
 3.7580	 5.1860
 3.7600	 5.1400
 3.7630	 5.0950
 3.7660	 5.0930
 3.7680	 5.0840
 3.7710	 5.1430
 3.7740	 5.1150
 3.7770	 5.0800
 3.7790	 5.0730
 3.7820	 5.1080
 3.7850	 5.1420
 3.7880	 5.1380
 3.7900	 5.0880
 3.7930	 5.1400
 3.7960	 5.1620
 3.7990	 5.1440
 3.8020	 5.1340
 3.8040	 5.1940
 3.8070	 5.1620
 3.8100	 5.0820
 3.8130	 5.0540
 3.8160	 5.1500
 3.8180	 5.1640
 3.8210	 5.1390
 3.8240	 5.0440
 3.8270	 5.0950
 3.8300	 5.1450
 3.8330	 5.0780
 3.8350	 5.0320
 3.8380	 5.0590
 3.8410	 5.0490
 3.8440	 5.0610
 3.8470	 5.1140
 3.8500	 5.1300
 3.8520	 5.0840
 3.8550	 5.0920
 3.8580	 5.0190
 3.8610	 4.9940
 3.8640	 4.9980
 3.8670	 5.0610
 3.8700	 5.1390
 3.8730	 5.1610
 3.8750	 5.0730
 3.8780	 5.0680
 3.8810	 5.0420
 3.8840	 5.0330
 3.8870	 5.0870
 3.8900	 5.1920
 3.8930	 5.1490
 3.8960	 5.1260
 3.8990	 5.1330
 3.9020	 5.1780
 3.9050	 5.1400
 3.9080	 5.0880
 3.9110	 5.0850
 3.9140	 5.1130
 3.9160	 5.1020
 3.9190	 5.0850
 3.9220	 4.9820
 3.9250	 4.9920
 3.9280	 5.0290
 3.9310	 5.0320
 3.9340	 5.0650
 3.9370	 5.1090
 3.9400	 5.0900
 3.9430	 5.0930
 3.9460	 5.0310
 3.9490	 4.9920
 3.9520	 4.9980
 3.9550	 5.0500
 3.9580	 5.0760
 3.9610	 5.0940
 3.9640	 5.1010
 3.9670	 5.0660
 3.9700	 5.0600
 3.9730	 5.0660
 3.9770	 5.0700
 3.9800	 5.0560
 3.9830	 5.0270
 3.9860	 5.0330
 3.9890	 5.0530
 3.9920	 5.0620
 3.9950	 5.0270
 3.9980	 5.0620
 4.0010	 5.0930
 4.0040	 5.0820
 4.0070	 5.0600
 4.0100	 5.0750
 4.0130	 5.0740
 4.0170	 5.0600
 4.0200	 4.9850
 4.0230	 5.0190
 4.0260	 5.0700
 4.0290	 5.0400
 4.0320	 4.9690
 4.0350	 5.0160
 4.0380	 5.0670
 4.0420	 5.1050
 4.0450	 5.0310
 4.0480	 4.9740
 4.0510	 4.9990
 4.0540	 5.0530
 4.0570	 5.0760
 4.0610	 5.0840
 4.0640	 5.0530
 4.0670	 5.0360
 4.0700	 5.0800
 4.0730	 5.1300
 4.0770	 5.0390
 4.0800	 4.9820
 4.0830	 5.0280
 4.0860	 5.0310
 4.0890	 5.0260
 4.0930	 5.0510
 4.0960	 5.0560
 4.0990	 5.0640
 4.1020	 5.0760
 4.1060	 5.0820
 4.1090	 5.0450
 4.1120	 5.0010
 4.1150	 4.9680
 4.1190	 5.0000
 4.1220	 5.0560
 4.1250	 5.0850
 4.1280	 5.0940
 4.1320	 5.1040
 4.1350	 5.0740
 4.1380	 5.0850
 4.1420	 5.0980
 4.1450	 5.0670
 4.1480	 5.0320
 4.1520	 5.0380
 4.1550	 5.0440
 4.1580	 5.0920
 4.1620	 5.0950
 4.1650	 5.0490
 4.1680	 5.0160
 4.1720	 5.0350
 4.1750	 5.0030
 4.1780	 4.9990
 4.1820	 5.0620
 4.1850	 5.0700
 4.1890	 5.0420
 4.1920	 5.0620
 4.1950	 5.0080
 4.1990	 5.0070
 4.2020	 5.0800
 4.2060	 5.1630
 4.2090	 5.2140
 4.2120	 5.2660
 4.2160	 5.2890
 4.2190	 5.2710
 4.2230	 5.3440
 4.2260	 5.4730
 4.2300	 5.5850
 4.2330	 5.5400
 4.2360	 5.3410
 4.2400	 5.3250
 4.2430	 5.4290
 4.2470	 5.4540
 4.2500	 5.3410
 4.2540	 5.2090
 4.2570	 5.1330
 4.2610	 5.2130
 4.2640	 5.2770
 4.2680	 5.3450
 4.2710	 5.3100
 4.2750	 5.2820
 4.2780	 5.3590
 4.2820	 5.3660
 4.2850	 5.2430
 4.2890	 5.1860
 4.2930	 5.1880
 4.2960	 5.2820
 4.3000	 5.3110
 4.3030	 5.3340
 4.3070	 5.3120
 4.3100	 5.2620
 4.3140	 5.2530
 4.3180	 5.2350
 4.3210	 5.2430
 4.3250	 5.2220
 4.3280	 5.1660
 4.3320	 5.1360
 4.3360	 5.1080
 4.3390	 5.0600
 4.3430	 5.0230
 4.3470	 5.0420
 4.3500	 5.0660
 4.3540	 5.1150
 4.3570	 5.0730
 4.3610	 4.9620
 4.3650	 4.9360
 4.3680	 4.9490
 4.3720	 4.9290
 4.3760	 4.9320
 4.3800	 4.9570
 4.3830	 4.9880
 4.3870	 4.9840
 4.3910	 4.9750
 4.3940	 5.0130
 4.3980	 5.0050
 4.4020	 5.0130
 4.4060	 4.9960
 4.4090	 5.0010
 4.4130	 4.9860
 4.4170	 4.9860
 4.4210	 5.0340
 4.4240	 5.0170
 4.4280	 5.0120
 4.4320	 5.0130
 4.4360	 4.9440
 4.4400	 4.9560
 4.4430	 4.9990
 4.4470	 4.9660
 4.4510	 5.0040
 4.4550	 4.9960
 4.4590	 4.9550
 4.4620	 4.9360
 4.4660	 4.9870
 4.4700	 4.9740
 4.4740	 4.9270
 4.4780	 4.9850
 4.4820	 5.0170
 4.4860	 4.9650
 4.4900	 4.9360
 4.4930	 4.9580
 4.4970	 4.9690
 4.5010	 4.9530
 4.5050	 4.9090
 4.5090	 4.9350
 4.5130	 4.9850
 4.5170	 5.0070
 4.5210	 4.9500
 4.5250	 4.9140
 4.5290	 4.9560
 4.5330	 4.9390
 4.5370	 4.9310
 4.5410	 4.9710
 4.5450	 4.9480
 4.5490	 4.9260
 4.5530	 4.9220
 4.5570	 4.9130
 4.5610	 4.9400
 4.5650	 4.9980
 4.5690	 4.9910
 4.5730	 4.9730
 4.5770	 4.9350
 4.5810	 4.9460
 4.5850	 4.9930
 4.5890	 4.9780
 4.5930	 4.9390
 4.5970	 4.9270
 4.6010	 4.9320
 4.6050	 4.9510
 4.6090	 4.8790
 4.6130	 4.7790
 4.6170	 4.8240
 4.6220	 4.9130
 4.6260	 4.9170
 4.6300	 4.9340
 4.6340	 4.9380
 4.6380	 4.9310
 4.6420	 4.9110
 4.6460	 4.9150
 4.6510	 4.9260
 4.6550	 4.9030
 4.6590	 4.8780
 4.6630	 4.9040
 4.6670	 4.9490
 4.6720	 4.9530
 4.6760	 4.9010
 4.6800	 4.9100
 4.6840	 4.9200
 4.6880	 4.9310
 4.6930	 4.9190
 4.6970	 4.8770
 4.7010	 4.8820
 4.7050	 4.8800
 4.7100	 4.8170
 4.7140	 4.8560
 4.7180	 4.9050
 4.7230	 4.8810
 4.7270	 4.8760
 4.7310	 4.9020
 4.7360	 4.9360
 4.7400	 4.9820
 4.7440	 5.0170
 4.7490	 4.9620
 4.7530	 4.8610
 4.7570	 4.8590
 4.7620	 4.8710
 4.7660	 4.9330
 4.7700	 4.9160
 4.7750	 4.8400
 4.7790	 4.8150
 4.7840	 4.8220
 4.7880	 4.8780
 4.7920	 4.8860
 4.7970	 4.8560
 4.8010	 4.9320
 4.8060	 4.9430
 4.8100	 4.9300
 4.8150	 4.9250
 4.8190	 4.9010
 4.8240	 4.8580
 4.8280	 4.8850
 4.8330	 4.9410
 4.8370	 4.9430
 4.8420	 4.9330
 4.8460	 4.9440
 4.8510	 4.8560
 4.8550	 4.8220
 4.8600	 4.8300
 4.8640	 4.8460
 4.8690	 4.8920
 4.8730	 4.9010
 4.8780	 4.8280
 4.8830	 4.8020
 4.8870	 4.8210
 4.8920	 4.8790
 4.8960	 4.8820
 4.9010	 4.8130
 4.9060	 4.7900
 4.9100	 4.8410
 4.9150	 4.8820
 4.9200	 4.9330
 4.9240	 4.8910
 4.9290	 4.8660
 4.9340	 4.8710
 4.9380	 4.8850
 4.9430	 4.8850
 4.9480	 4.9130
 4.9530	 4.8960
 4.9570	 4.8970
 4.9620	 4.9020
 4.9670	 4.9130
 4.9720	 4.8890
 4.9760	 4.8960
 4.9810	 4.8590
 4.9860	 4.8610
 4.9910	 4.8100
 4.9960	 4.8000
 5.0000	 4.8370
 5.0050	 4.8580
 5.0100	 4.8320
 5.0150	 4.8620
 5.0200	 4.8360
 5.0250	 4.8590
 5.0290	 4.8400
 5.0340	 4.7700
 5.0390	 4.7710
 5.0440	 4.8470
 5.0490	 4.8310
 5.0540	 4.8440
 5.0590	 4.8630
 5.0640	 4.8870
 5.0690	 4.8520
 5.0740	 4.8460
 5.0790	 4.8400
 5.0840	 4.8820
 5.0890	 4.9200
 5.0940	 4.9110
 5.0990	 4.8460
 5.1040	 4.8770
 5.1090	 4.8890
 5.1140	 4.9160
 5.1190	 4.8790
 5.1240	 4.8500
 5.1290	 4.8820
 5.1340	 4.8360
 5.1390	 4.7770
 5.1440	 4.8410
 5.1490	 4.8710
 5.1540	 4.8500
 5.1600	 4.8340
 5.1650	 4.9190
 5.1700	 4.8730
 5.1750	 4.8320
 5.1800	 4.8180
 5.1850	 4.8620
 5.1910	 4.8860
 5.1960	 4.8780
 5.2010	 4.8270
 5.2060	 4.7780
 5.2110	 4.7420
 5.2170	 4.8150
 5.2220	 4.8720
 5.2270	 4.8380
 5.2320	 4.7650
 5.2380	 4.7840
 5.2430	 4.7570
 5.2480	 4.8030
 5.2540	 4.7810
 5.2590	 4.7970
 5.2640	 4.8240
 5.2700	 4.8740
 5.2750	 4.8490
 5.2800	 4.8120
 5.2860	 4.7860
 5.2910	 4.8590
 5.2970	 4.9120
 5.3020	 4.8690
 5.3070	 4.8070
 5.3130	 4.8290
 5.3180	 4.7940
 5.3240	 4.8020
 5.3290	 4.7980
 5.3350	 4.7550
 5.3400	 4.6940
 5.3460	 4.7440
 5.3510	 4.7390
 5.3570	 4.7420
 5.3620	 4.7510
 5.3680	 4.7860
 5.3730	 4.7460
 5.3790	 4.7280
 5.3850	 4.7520
 5.3900	 4.7750
 5.3960	 4.7220
 5.4010	 4.7910
 5.4070	 4.7910
 5.4130	 4.8000
 5.4180	 4.7580
 5.4240	 4.7400
 5.4300	 4.7080
 5.4350	 4.7670
 5.4410	 4.7040
 5.4470	 4.6490
 5.4530	 4.6580
 5.4580	 4.7090
 5.4640	 4.7160
 5.4700	 4.7420
 5.4760	 4.7270
 5.4810	 4.7390
 5.4870	 4.7280
 5.4930	 4.6910
 5.4990	 4.6180
 5.5050	 4.6810
 5.5110	 4.7250
 5.5160	 4.7200
 5.5220	 4.7110
 5.5280	 4.7510
 5.5340	 4.6870
 5.5400	 4.7110
 5.5460	 4.7240
 5.5520	 4.6870
 5.5580	 4.6460
 5.5640	 4.6430
 5.5700	 4.6100
 5.5760	 4.5890
 5.5820	 4.5450
 5.5880	 4.6270
 5.5940	 4.6010
 5.6000	 4.5880
 5.6060	 4.5730
 5.6120	 4.5680
 5.6180	 4.4750
 5.6240	 4.4980
 5.6300	 4.5120
 5.6360	 4.5210
 5.6420	 4.4870
 5.6490	 4.4370
 5.6550	 4.4130
 5.6610	 4.4570
 5.6670	 4.4090
 5.6730	 4.3600
 5.6800	 4.2730
 5.6860	 4.2210
 5.6920	 4.1590
 5.6980	 4.1830
 5.7040	 4.1790
 5.7110	 4.1280
 5.7170	 4.0410
 5.7230	 4.0480
 5.7300	 3.9370
 5.7360	 3.8750
 5.7420	 3.8510
 5.7490	 3.8730
 5.7550	 3.8990
 5.7620	 3.9660
 5.7680	 3.9980
 5.7740	 4.1550
 5.7810	 4.2310
 5.7870	 4.3030
 5.7940	 4.3380
 5.8000	 4.4420
 5.8070	 4.4570
 5.8130	 4.4720
 5.8200	 4.4320
 5.8260	 4.4720
 5.8330	 4.4790
 5.8390	 4.5130
 5.8460	 4.4960
 5.8530	 4.5380
 5.8590	 4.5770
 5.8660	 4.5870
 5.8720	 4.5600
 5.8790	 4.5870
 5.8860	 4.5190
 5.8920	 4.5000
 5.8990	 4.5250
 5.9060	 4.6150
 5.9130	 4.6030
 5.9190	 4.6760
 5.9260	 4.7760
 5.9330	 4.9300
 5.9400	 5.0170
 5.9470	 5.1510
 5.9530	 5.1750
 5.9600	 5.2770
 5.9670	 5.3200
 5.9740	 5.4190
 5.9810	 5.3120
 5.9880	 5.2720
 5.9950	 5.1820
 6.0020	 5.1520
 6.0090	 5.1720
 6.0160	 5.2930
 6.0230	 5.2530
 6.0300	 5.2520
 6.0370	 5.1930
 6.0440	 5.2080
 6.0510	 5.1330
 6.0580	 5.2190
 6.0650	 5.2560
 6.0720	 5.2700
 6.0790	 5.1720
 6.0860	 5.1380
 6.0930	 5.1350
 6.1000	 5.2680
 6.1080	 5.2950
 6.1150	 5.3230
 6.1220	 5.3010
 6.1290	 5.3090
 6.1370	 5.2550
 6.1440	 5.3240
 6.1510	 5.3120
 6.1580	 5.3010
 6.1660	 5.2470
 6.1730	 5.3360
 6.1800	 5.3360
 6.1880	 5.3470
 6.1950	 5.3510
 6.2030	 5.4240
 6.2100	 5.3590
 6.2170	 5.4130
 6.2250	 5.3820
 6.2320	 5.4480
 6.2400	 5.3980
 6.2470	 5.3770
 6.2550	 5.3470
 6.2630	 5.4090
 6.2700	 5.3440
 6.2780	 5.3520
 6.2850	 5.2820
 6.2930	 5.2900
 6.3010	 5.2820
 6.3080	 5.3660
 6.3160	 5.2810
 6.3240	 5.2840
 6.3310	 5.1810
 6.3390	 5.1690
 6.3470	 5.1690
 6.3550	 5.2170
 6.3620	 5.1470
 6.3700	 5.1590
 6.3780	 5.1380
 6.3860	 5.2080
 6.3940	 5.0930
 6.4020	 5.1420
 6.4100	 5.1540
 6.4180	 5.1570
 6.4260	 5.0470
 6.4330	 5.0850
 6.4410	 5.1020
 6.4490	 5.1070
 6.4580	 4.9600
 6.4660	 4.9090
 6.4740	 4.9670
 6.4820	 5.0720
 6.4900	 5.0060
 6.4980	 5.0010
 6.5060	 4.9160
 6.5140	 4.9450
 6.5230	 4.8750
 6.5310	 4.8790
 6.5390	 4.8140
 6.5470	 4.8800
 6.5550	 4.8330
 6.5640	 4.8350
 6.5720	 4.7400
 6.5800	 4.7650
 6.5890	 4.7870
 6.5970	 4.7950
 6.6060	 4.7730
 6.6140	 4.8680
 6.6220	 4.8190
 6.6310	 4.8500
 6.6390	 4.8040
 6.6480	 4.8220
 6.6560	 4.7480
 6.6650	 4.8270
 6.6740	 4.7740
 6.6820	 4.7560
 6.6910	 4.6950
 6.6990	 4.7570
 6.7080	 4.6530
 6.7170	 4.6990
 6.7260	 4.6730
 6.7340	 4.6500
 6.7430	 4.4940
 6.7520	 4.4280
 6.7610	 4.3850
 6.7690	 4.5050
 6.7780	 4.7150
 6.7870	 5.1920
 6.7960	 5.1490
 6.8050	 4.8600
 6.8140	 4.6530
 6.8230	 4.8170
 6.8320	 5.1750
 6.8410	 5.4750
 6.8500	 5.1720
 6.8590	 4.9770
 6.8680	 4.9090
 6.8770	 4.9980
 6.8860	 4.9950
 6.8950	 5.0610
 6.9050	 4.9910
 6.9140	 5.0310
 6.9230	 4.9900
 6.9320	 4.9800
 6.9420	 4.9230
 6.9510	 5.0640
 6.9600	 5.0530
 6.9700	 5.0820
 6.9790	 5.0180
 6.9880	 5.0530
 6.9980	 4.9270
 7.0070	 4.9340
 7.0170	 4.9330
 7.0260	 5.0260
 7.0360	 4.9800
 7.0450	 5.0210
 7.0550	 4.9990
 7.0650	 5.0670
 7.0740	 4.9530
 7.0840	 4.9940
 7.0940	 4.9380
 7.1030	 4.9100
 7.1130	 4.8390
 7.1230	 4.9390
 7.1330	 4.8800
 7.1420	 4.9250
 7.1520	 4.8510
 7.1620	 4.8600
 7.1720	 4.7460
 7.1820	 4.7480
 7.1920	 4.6710
 7.2020	 4.7350
 7.2120	 4.7600
 7.2220	 4.8910
 7.2320	 4.8590
 7.2420	 4.8390
 7.2520	 4.7440
 7.2620	 4.8250
 7.2730	 4.8200
 7.2830	 4.8800
 7.2930	 4.7540
 7.3030	 4.8030
 7.3140	 4.7760
 7.3240	 4.8400
 7.3340	 4.8530
 7.3450	 4.9100
 7.3550	 4.8160
 7.3660	 4.8570
 7.3760	 4.7960
 7.3870	 4.8410
 7.3970	 4.7740
 7.4080	 4.8060
 7.4180	 4.7760
 7.4290	 4.8550
 7.4400	 4.7590
 7.4500	 4.7900
 7.4610	 4.7590
 7.4720	 4.8570
 7.4830	 4.8490
 7.4930	 4.8920
 7.5040	 4.8310
 7.5150	 4.8880
 7.5260	 4.8340
 7.5370	 4.8620
 7.5480	 4.7420
 7.5590	 4.7500
 7.5700	 4.7340
 7.5810	 4.8090
 7.5920	 4.7520
 7.6030	 4.8050
 7.6140	 4.6700
 7.6260	 4.6500
 7.6370	 4.5800
 7.6480	 4.6460
 7.6590	 4.6110
 7.6710	 4.7580
 7.6820	 4.7750
 7.6930	 4.7230
 7.7050	 4.6030
 7.7160	 4.7270
 7.7280	 4.6230
 7.7390	 4.6700
 7.7510	 4.6350
 7.7630	 4.6820
 7.7740	 4.5280
 7.7860	 4.5410
 7.7980	 4.5740
 7.8090	 4.6860
 7.8210	 4.5980
 7.8330	 4.6470
 7.8450	 4.5650
 7.8570	 4.6070
 7.8690	 4.5150
 7.8810	 4.6050
 7.8930	 4.6220
 7.9050	 4.7610
 7.9170	 4.6750
 7.9290	 4.6230
 7.9410	 4.6140
 7.9530	 4.7350
 7.9650	 4.6650
 7.9780	 4.6720
 7.9900	 4.5450
 8.0020	 4.6510
 8.0150	 4.5540
 8.0270	 4.6820
 8.0390	 4.6650
 8.0520	 4.7220
 8.0640	 4.6650
 8.0770	 4.8170
 8.0900	 4.7470
 8.1020	 4.8510
 8.1150	 4.7130
 8.1280	 4.8060
 8.1400	 4.7770
 8.1530	 4.9490
 8.1660	 4.8020
 8.1790	 4.7450
 8.1920	 4.6750
 8.2050	 4.9190
 8.2180	 4.9120
 8.2310	 4.9920
 8.2440	 4.8030
 8.2570	 4.8250
 8.2700	 4.7610
 8.2830	 4.8590
 8.2970	 4.7290
 8.3100	 4.8480
 8.3230	 4.8050
 8.3370	 4.9240
 8.3500	 4.8580
 8.3640	 4.9640
 8.3770	 4.8300
 8.3910	 4.8620
 8.4040	 4.7890
 8.4180	 4.9690
 8.4320	 4.8720
 8.4450	 4.9610
 8.4590	 4.8220
 8.4730	 4.9150
 8.4870	 4.8450
 8.5010	 4.9480
 8.5150	 4.9270
 8.5290	 5.0990
 8.5430	 5.0780
 8.5570	 5.2990
 8.5710	 5.1900
 8.5850	 5.2050
 8.5990	 5.2180
 8.6140	 5.4550
 8.6280	 5.4040
 8.6420	 5.4110
 8.6570	 5.2780
 8.6710	 5.4400
 8.6860	 5.3840
 8.7000	 5.5180
 8.7150	 5.4260
 8.7300	 5.4990
 8.7440	 5.3850
 8.7590	 5.4390
 8.7740	 5.3580
 8.7890	 5.5250
 8.8040	 5.3940
 8.8190	 5.4900
 8.8340	 5.3770
 8.8490	 5.4610
 8.8640	 5.2520
 8.8790	 5.2620
 8.8940	 5.2230
 8.9100	 5.3870
 8.9250	 5.1450
 8.9400	 5.1730
 8.9560	 5.1550
 8.9710	 5.2140
 8.9870	 5.0970
 9.0020	 5.3220
 9.0180	 5.2520
 9.0340	 5.3550
 9.0500	 5.1740
 9.0650	 5.2730
 9.0810	 5.2570
 9.0970	 5.4910
 9.1130	 5.3640
 9.1290	 5.5580
 9.1450	 5.4400
 9.1610	 5.4630
 9.1780	 5.3920
 9.1940	 5.4770
 9.2100	 5.2420
 9.2270	 5.3920
 9.2430	 5.3580
 9.2600	 5.4500
 9.2760	 5.3010
 9.2930	 5.4520
 9.3090	 5.3870
 9.3260	 5.5640
 9.3430	 5.4160
 9.3600	 5.5280
 9.3770	 5.3280
 9.3940	 5.4810
 9.4110	 5.3900
 9.4280	 5.5640
 9.4450	 5.3800
 9.4620	 5.4220
 9.4800	 5.3680
 9.4970	 5.6210
 9.5140	 5.4220
 9.5320	 5.5490
 9.5500	 5.5510
 9.5670	 5.7060
 9.5850	 5.5940
 9.6030	 5.7370
 9.6200	 5.5750
 9.6380	 5.7890
 9.6560	 5.7290
 9.6740	 5.7200
 9.6920	 5.5140
 9.7100	 5.7300
 9.7290	 5.6580
 9.7470	 5.8870
 9.7650	 5.8240
 9.7840	 5.8960
 9.8020	 5.6660
 9.8210	 5.7750
 9.8390	 5.6500
 9.8580	 5.7020
 9.8770	 5.5840
 9.8960	 5.8450
 9.9150	 5.7600
 9.9340	 5.7560
 9.9530	 5.5530
 9.9720	 5.7530
 9.9910	 5.5520
10.0100	 5.6860
10.0300	 5.6520
10.0490	 5.7660
10.0690	 5.5460
10.0880	 5.6280
10.1080	 5.5230
10.1280	 5.7720
10.1480	 5.6470
10.1670	 5.6570
10.1870	 5.4570
10.2070	 5.5370
10.2280	 5.4020
10.2480	 5.5120
10.2680	 5.3420
10.2890	 5.5510
10.3090	 5.4790
10.3300	 5.4900
10.3500	 5.3430
10.3710	 5.5550
10.3920	 5.4190
10.4120	 5.4580
10.4330	 5.2760
10.4540	 5.4630
10.4760	 5.3460
10.4970	 5.5020
10.5180	 5.3570
10.5390	 5.3010
10.5610	 5.1840
10.5820	 5.5230
10.6040	 5.5000
10.6260	 5.5610
10.6480	 5.3300
10.6700	 5.4840
10.6920	 5.3900
10.7140	 5.5540
10.7360	 5.2930
10.7580	 5.3160
10.7800	 5.1380
10.8030	 5.2820
10.8250	 5.1010
10.8480	 5.2750
10.8710	 5.2610
10.8940	 5.4600
10.9170	 5.3210
10.9400	 5.4690
10.9630	 5.3020
10.9860	 5.4280
11.0090	 5.3900
11.0330	 5.4860
11.0560	 5.3070
11.0800	 5.5640
11.1040	 5.3390
11.1270	 5.3580
11.1510	 5.2590
11.1750	 5.5690
11.2000	 5.3170
11.2240	 5.3750
11.2480	 5.2390
11.2730	 5.3970
11.2970	 5.1760
11.3220	 5.3260
11.3470	 5.3470
11.3720	 5.6440
11.3970	 5.4390
11.4220	 5.5190
11.4470	 5.2490
11.4720	 5.3790
11.4980	 5.2830
11.5230	 5.4370
11.5490	 5.2790
11.5750	 5.5230
11.6000	 5.4730
11.6260	 5.6250
11.6530	 5.2960
11.6790	 5.2920
11.7050	 5.0870
11.7320	 5.3500
11.7580	 5.3550
11.7850	 5.6960
11.8120	 5.4150
11.8390	 5.4770
11.8660	 5.3440
11.8930	 5.5140
11.9200	 5.2090
11.9480	 5.3670
11.9760	 5.2590
12.0030	 5.4960
12.0310	 5.2430
12.0590	 5.4850
12.0870	 5.4500
12.1150	 5.6640
12.1440	 5.4160
12.1720	 5.7200
12.2010	 5.5090
12.2300	 5.6200
12.2590	 5.4640
12.2880	 5.6350
12.3170	 5.4880
12.3460	 5.7500
12.3760	 5.6650
12.4050	 5.8490
12.4350	 5.4880
12.4650	 5.7080
12.4950	 5.6210
12.5250	 6.0160
12.5550	 5.7340
12.5860	 5.8520
12.6170	 5.5670
12.6470	 5.7090
12.6780	 5.4560
12.7090	 5.5660
12.7410	 5.1300
12.7720	 5.2250
12.8030	 5.0230
12.8350	 5.2860
12.8670	 5.0900
12.8990	 5.2910
12.9310	 4.9120
12.9640	 5.1780
12.9960	 5.0900
13.0290	 5.3660
13.0610	 5.2730
13.0940	 5.4850
13.1280	 5.0410
13.1610	 5.0610
13.1940	 4.8640
13.2280	 5.0500
13.2620	 4.7950
13.2960	 5.1690
13.3300	 5.0450
13.3640	 5.3480
13.3990	 5.2000
13.4340	 5.6330
13.4690	 5.1820
13.5040	 5.0620
13.5390	 4.7800
13.5740	 5.1580
13.6100	 4.9780
13.6460	 5.2580
13.6820	 5.2830
13.7180	 5.6980
13.7540	 5.3080
13.7910	 5.3610
13.8280	 4.8920
13.8650	 5.2220
13.9020	 5.3030
13.9390	 5.6350
13.9770	 4.9290
14.0150	 5.1800
14.0530	 4.8100
14.0910	 5.0910
14.1290	 4.9730
14.1680	 5.3670
14.2070	 4.8370
14.2460	 5.1560
14.2850	 4.8810
14.3240	 5.1510
14.3640	 4.6310
14.4040	 4.8100
14.4440	 4.3020
14.4840	 4.9780
14.5250	 4.2980
14.5660	 4.4510
14.6070	 4.0440
14.6480	 4.4980
14.6900	 4.0590
14.7310	 4.4730
14.7730	 4.0240
14.8150	 4.3920
14.8580	 3.9880
14.9010	 4.0560
14.9440	 3.3980
14.9870	 4.7720
15.0300	 4.3970
15.0740	 4.4460
15.1180	 3.9930
15.1620	 4.5030
15.2060	 3.4980
15.2510	 4.5790
15.2960	 4.3750
15.3410	 4.5990
15.3870	 4.0930
