Name: Baccharis pilularis 1
Type: vegetation
Class: Shrub
Genus: Baccharis
Species: pilularis
Sample No.: VH223
Owner: UCSB
Wavelength Range: VSWIR
Origin: 34.5084; -119.7687; WGS84
Collection Date: 10/13/2013
Description: Samples were collected as part of the HyspIRI Airborne Campaign. 48 individual plants were sampled in three times in 2013 - spring  summer  and fall. The name of the sample includes a 1  2  or 3 which references a different individual of the species. Samples were taken to JPL and processed within 48 hours of collection. The same leaves were processed in the Nicolet and then measured using the ASD.
Measurement: Bidirectional reflectance
First Column: X
Second Column: Y
X Units: Wavelength (micrometers)
Y Units: Reflectance (percentage)
First X Value: 0.35
Last X Value: 2.5
Number of X Values: 2151
Additional Information: vegetation.shrub.baccharis.pilularis.vswir.vh223.ucsb.asd.ancillary.txt

 0.3500	 4.5890
 0.3510	 4.4740
 0.3520	 4.3320
 0.3530	 4.2130
 0.3540	 4.1310
 0.3550	 4.0060
 0.3560	 3.9990
 0.3570	 4.0800
 0.3580	 4.1270
 0.3590	 4.1440
 0.3600	 4.1010
 0.3610	 4.0060
 0.3620	 3.9240
 0.3630	 3.8510
 0.3640	 3.8690
 0.3650	 3.9850
 0.3660	 3.8510
 0.3670	 3.7660
 0.3680	 3.7910
 0.3690	 3.8210
 0.3700	 3.8960
 0.3710	 3.8820
 0.3720	 3.7890
 0.3730	 3.9180
 0.3740	 3.9870
 0.3750	 3.9240
 0.3760	 3.7830
 0.3770	 3.8380
 0.3780	 3.9210
 0.3790	 3.9700
 0.3800	 4.0290
 0.3810	 3.9790
 0.3820	 3.9480
 0.3830	 3.9740
 0.3840	 3.7860
 0.3850	 3.7160
 0.3860	 3.7920
 0.3870	 3.9140
 0.3880	 3.9870
 0.3890	 3.9650
 0.3900	 3.8940
 0.3910	 3.9040
 0.3920	 3.8060
 0.3930	 3.7610
 0.3940	 3.8660
 0.3950	 3.8740
 0.3960	 3.8960
 0.3970	 3.8950
 0.3980	 3.7970
 0.3990	 3.8030
 0.4000	 3.8770
 0.4010	 3.9330
 0.4020	 3.8540
 0.4030	 3.8520
 0.4040	 3.8860
 0.4050	 3.8840
 0.4060	 3.9060
 0.4070	 3.8720
 0.4080	 3.8340
 0.4090	 3.9040
 0.4100	 3.9240
 0.4110	 3.9200
 0.4120	 3.9190
 0.4130	 3.8960
 0.4140	 3.8530
 0.4150	 3.8530
 0.4160	 3.9350
 0.4170	 3.9170
 0.4180	 3.8910
 0.4190	 3.9010
 0.4200	 3.9340
 0.4210	 3.9630
 0.4220	 3.9620
 0.4230	 3.9320
 0.4240	 3.9500
 0.4250	 3.9670
 0.4260	 3.9780
 0.4270	 3.9960
 0.4280	 4.0110
 0.4290	 4.0140
 0.4300	 4.0140
 0.4310	 4.0340
 0.4320	 4.0570
 0.4330	 4.0880
 0.4340	 4.1240
 0.4350	 4.1230
 0.4360	 4.1270
 0.4370	 4.1460
 0.4380	 4.1560
 0.4390	 4.1500
 0.4400	 4.1590
 0.4410	 4.1920
 0.4420	 4.2160
 0.4430	 4.2230
 0.4440	 4.2250
 0.4450	 4.2440
 0.4460	 4.2840
 0.4470	 4.3100
 0.4480	 4.3160
 0.4490	 4.3230
 0.4500	 4.3400
 0.4510	 4.3560
 0.4520	 4.3670
 0.4530	 4.4020
 0.4540	 4.4360
 0.4550	 4.4570
 0.4560	 4.4630
 0.4570	 4.4790
 0.4580	 4.4820
 0.4590	 4.4720
 0.4600	 4.4970
 0.4610	 4.5300
 0.4620	 4.5510
 0.4630	 4.5500
 0.4640	 4.5710
 0.4650	 4.5860
 0.4660	 4.5850
 0.4670	 4.5840
 0.4680	 4.5980
 0.4690	 4.6150
 0.4700	 4.6240
 0.4710	 4.6440
 0.4720	 4.6630
 0.4730	 4.6740
 0.4740	 4.6750
 0.4750	 4.6730
 0.4760	 4.6800
 0.4770	 4.6990
 0.4780	 4.7190
 0.4790	 4.7260
 0.4800	 4.7260
 0.4810	 4.7300
 0.4820	 4.7490
 0.4830	 4.7650
 0.4840	 4.7710
 0.4850	 4.7730
 0.4860	 4.7760
 0.4870	 4.7880
 0.4880	 4.8060
 0.4890	 4.8000
 0.4900	 4.8140
 0.4910	 4.8380
 0.4920	 4.8410
 0.4930	 4.8700
 0.4940	 4.8990
 0.4950	 4.9160
 0.4960	 4.9370
 0.4970	 4.9700
 0.4980	 5.0050
 0.4990	 5.0310
 0.5000	 5.0490
 0.5010	 5.0750
 0.5020	 5.1140
 0.5030	 5.1620
 0.5040	 5.2140
 0.5050	 5.2710
 0.5060	 5.3340
 0.5070	 5.3990
 0.5080	 5.4700
 0.5090	 5.5500
 0.5100	 5.6370
 0.5110	 5.7230
 0.5120	 5.8300
 0.5130	 5.9550
 0.5140	 6.0660
 0.5150	 6.1960
 0.5160	 6.3390
 0.5170	 6.4850
 0.5180	 6.6410
 0.5190	 6.8040
 0.5200	 6.9730
 0.5210	 7.1480
 0.5220	 7.3230
 0.5230	 7.5020
 0.5240	 7.6850
 0.5250	 7.8590
 0.5260	 8.0220
 0.5270	 8.1820
 0.5280	 8.3460
 0.5290	 8.5010
 0.5300	 8.6460
 0.5310	 8.7820
 0.5320	 8.9100
 0.5330	 9.0270
 0.5340	 9.1360
 0.5350	 9.2430
 0.5360	 9.3390
 0.5370	 9.4310
 0.5380	 9.5190
 0.5390	 9.6010
 0.5400	 9.6800
 0.5410	 9.7600
 0.5420	 9.8390
 0.5430	 9.9070
 0.5440	 9.9790
 0.5450	10.0470
 0.5460	10.1040
 0.5470	10.1660
 0.5480	10.2230
 0.5490	10.2700
 0.5500	10.3150
 0.5510	10.3500
 0.5520	10.3780
 0.5530	10.4000
 0.5540	10.4080
 0.5550	10.4020
 0.5560	10.3860
 0.5570	10.3620
 0.5580	10.3280
 0.5590	10.2840
 0.5600	10.2310
 0.5610	10.1700
 0.5620	10.1030
 0.5630	10.0300
 0.5640	 9.9490
 0.5650	 9.8590
 0.5660	 9.7670
 0.5670	 9.6710
 0.5680	 9.5640
 0.5690	 9.4580
 0.5700	 9.3520
 0.5710	 9.2410
 0.5720	 9.1290
 0.5730	 9.0280
 0.5740	 8.9390
 0.5750	 8.8520
 0.5760	 8.7590
 0.5770	 8.6750
 0.5780	 8.6040
 0.5790	 8.5270
 0.5800	 8.4630
 0.5810	 8.4040
 0.5820	 8.3390
 0.5830	 8.2760
 0.5840	 8.2140
 0.5850	 8.1560
 0.5860	 8.1090
 0.5870	 8.0720
 0.5880	 8.0400
 0.5890	 8.0090
 0.5900	 7.9720
 0.5910	 7.9480
 0.5920	 7.9340
 0.5930	 7.9140
 0.5940	 7.8990
 0.5950	 7.8860
 0.5960	 7.8720
 0.5970	 7.8520
 0.5980	 7.8360
 0.5990	 7.8170
 0.6000	 7.7890
 0.6010	 7.7650
 0.6020	 7.7390
 0.6030	 7.7100
 0.6040	 7.6800
 0.6050	 7.6420
 0.6060	 7.5980
 0.6070	 7.5510
 0.6080	 7.5050
 0.6090	 7.4510
 0.6100	 7.3970
 0.6110	 7.3520
 0.6120	 7.2990
 0.6130	 7.2400
 0.6140	 7.1830
 0.6150	 7.1300
 0.6160	 7.0770
 0.6170	 7.0300
 0.6180	 6.9910
 0.6190	 6.9560
 0.6200	 6.9230
 0.6210	 6.8940
 0.6220	 6.8730
 0.6230	 6.8570
 0.6240	 6.8420
 0.6250	 6.8300
 0.6260	 6.8200
 0.6270	 6.8160
 0.6280	 6.8150
 0.6290	 6.8150
 0.6300	 6.8130
 0.6310	 6.8130
 0.6320	 6.8150
 0.6330	 6.8110
 0.6340	 6.8020
 0.6350	 6.7850
 0.6360	 6.7620
 0.6370	 6.7380
 0.6380	 6.7060
 0.6390	 6.6630
 0.6400	 6.6070
 0.6410	 6.5550
 0.6420	 6.5010
 0.6430	 6.4410
 0.6440	 6.3750
 0.6450	 6.3100
 0.6460	 6.2500
 0.6470	 6.1930
 0.6480	 6.1380
 0.6490	 6.0910
 0.6500	 6.0470
 0.6510	 6.0000
 0.6520	 5.9690
 0.6530	 5.9410
 0.6540	 5.9030
 0.6550	 5.8690
 0.6560	 5.8300
 0.6570	 5.7860
 0.6580	 5.7440
 0.6590	 5.6950
 0.6600	 5.6420
 0.6610	 5.5890
 0.6620	 5.5390
 0.6630	 5.4910
 0.6640	 5.4470
 0.6650	 5.4100
 0.6660	 5.3710
 0.6670	 5.3410
 0.6680	 5.3180
 0.6690	 5.2960
 0.6700	 5.2800
 0.6710	 5.2720
 0.6720	 5.2710
 0.6730	 5.2670
 0.6740	 5.2670
 0.6750	 5.2730
 0.6760	 5.2820
 0.6770	 5.2920
 0.6780	 5.3100
 0.6790	 5.3350
 0.6800	 5.3610
 0.6810	 5.3960
 0.6820	 5.4370
 0.6830	 5.4850
 0.6840	 5.5490
 0.6850	 5.6330
 0.6860	 5.7330
 0.6870	 5.8500
 0.6880	 6.0050
 0.6890	 6.1930
 0.6900	 6.4160
 0.6910	 6.6890
 0.6920	 7.0100
 0.6930	 7.3870
 0.6940	 7.8270
 0.6950	 8.3310
 0.6960	 8.9020
 0.6970	 9.5320
 0.6980	10.2160
 0.6990	10.9630
 0.7000	11.7600
 0.7010	12.5980
 0.7020	13.4700
 0.7030	14.3930
 0.7040	15.3410
 0.7050	16.2960
 0.7060	17.2770
 0.7070	18.2750
 0.7080	19.2850
 0.7090	20.3070
 0.7100	21.3420
 0.7110	22.3780
 0.7120	23.4140
 0.7130	24.4680
 0.7140	25.5240
 0.7150	26.5760
 0.7160	27.6230
 0.7170	28.6670
 0.7180	29.7100
 0.7190	30.7470
 0.7200	31.7660
 0.7210	32.7740
 0.7220	33.7650
 0.7230	34.7380
 0.7240	35.7010
 0.7250	36.6290
 0.7260	37.5190
 0.7270	38.3780
 0.7280	39.2250
 0.7290	40.0330
 0.7300	40.7970
 0.7310	41.5260
 0.7320	42.2330
 0.7330	42.9080
 0.7340	43.5440
 0.7350	44.1460
 0.7360	44.7080
 0.7370	45.2450
 0.7380	45.7620
 0.7390	46.2310
 0.7400	46.6870
 0.7410	47.1220
 0.7420	47.5160
 0.7430	47.8860
 0.7440	48.2310
 0.7450	48.5540
 0.7460	48.8600
 0.7470	49.1420
 0.7480	49.3980
 0.7490	49.6310
 0.7500	49.8620
 0.7510	50.0700
 0.7520	50.2560
 0.7530	50.4290
 0.7540	50.6000
 0.7550	50.7500
 0.7560	50.8800
 0.7570	51.0130
 0.7580	51.1240
 0.7590	51.2280
 0.7600	51.3330
 0.7610	51.4220
 0.7620	51.4940
 0.7630	51.5650
 0.7640	51.6470
 0.7650	51.7290
 0.7660	51.7950
 0.7670	51.8440
 0.7680	51.8900
 0.7690	51.9500
 0.7700	52.0040
 0.7710	52.0430
 0.7720	52.0810
 0.7730	52.1230
 0.7740	52.1710
 0.7750	52.2170
 0.7760	52.2350
 0.7770	52.2550
 0.7780	52.2880
 0.7790	52.3300
 0.7800	52.3590
 0.7810	52.3850
 0.7820	52.4180
 0.7830	52.4590
 0.7840	52.4820
 0.7850	52.5040
 0.7860	52.5380
 0.7870	52.5770
 0.7880	52.6060
 0.7890	52.6210
 0.7900	52.6260
 0.7910	52.6500
 0.7920	52.6950
 0.7930	52.7370
 0.7940	52.7430
 0.7950	52.7480
 0.7960	52.7730
 0.7970	52.8150
 0.7980	52.8420
 0.7990	52.8640
 0.8000	52.8910
 0.8010	52.9250
 0.8020	52.9480
 0.8030	52.9670
 0.8040	52.9850
 0.8050	53.0100
 0.8060	53.0450
 0.8070	53.0710
 0.8080	53.0880
 0.8090	53.1090
 0.8100	53.1280
 0.8110	53.1560
 0.8120	53.1930
 0.8130	53.2170
 0.8140	53.2360
 0.8150	53.2590
 0.8160	53.2890
 0.8170	53.2990
 0.8180	53.3290
 0.8190	53.3700
 0.8200	53.3950
 0.8210	53.4180
 0.8220	53.4350
 0.8230	53.4500
 0.8240	53.4770
 0.8250	53.5100
 0.8260	53.5380
 0.8270	53.5580
 0.8280	53.5740
 0.8290	53.5950
 0.8300	53.6190
 0.8310	53.6390
 0.8320	53.6410
 0.8330	53.6500
 0.8340	53.6700
 0.8350	53.6940
 0.8360	53.7100
 0.8370	53.7310
 0.8380	53.7590
 0.8390	53.7850
 0.8400	53.8020
 0.8410	53.8220
 0.8420	53.8490
 0.8430	53.8660
 0.8440	53.8690
 0.8450	53.8880
 0.8460	53.9360
 0.8470	53.9690
 0.8480	53.9850
 0.8490	53.9880
 0.8500	53.9920
 0.8510	54.0350
 0.8520	54.0650
 0.8530	54.0710
 0.8540	54.0690
 0.8550	54.0890
 0.8560	54.1180
 0.8570	54.1400
 0.8580	54.1390
 0.8590	54.1450
 0.8600	54.1650
 0.8610	54.1910
 0.8620	54.1930
 0.8630	54.1850
 0.8640	54.1990
 0.8650	54.2410
 0.8660	54.2460
 0.8670	54.2430
 0.8680	54.2440
 0.8690	54.2500
 0.8700	54.2450
 0.8710	54.2620
 0.8720	54.2890
 0.8730	54.2900
 0.8740	54.3000
 0.8750	54.3040
 0.8760	54.3010
 0.8770	54.3100
 0.8780	54.3320
 0.8790	54.3390
 0.8800	54.3290
 0.8810	54.3450
 0.8820	54.3390
 0.8830	54.3320
 0.8840	54.3390
 0.8850	54.3360
 0.8860	54.3370
 0.8870	54.3380
 0.8880	54.3350
 0.8890	54.3330
 0.8900	54.3370
 0.8910	54.3380
 0.8920	54.3300
 0.8930	54.3260
 0.8940	54.3150
 0.8950	54.2950
 0.8960	54.2800
 0.8970	54.2850
 0.8980	54.2870
 0.8990	54.2730
 0.9000	54.2480
 0.9010	54.2470
 0.9020	54.2300
 0.9030	54.2010
 0.9040	54.2320
 0.9050	54.2370
 0.9060	54.2100
 0.9070	54.1730
 0.9080	54.1620
 0.9090	54.1760
 0.9100	54.1880
 0.9110	54.1740
 0.9120	54.1340
 0.9130	54.1340
 0.9140	54.1410
 0.9150	54.1140
 0.9160	54.0890
 0.9170	54.0760
 0.9180	54.0760
 0.9190	54.0810
 0.9200	54.0810
 0.9210	54.0660
 0.9220	54.0330
 0.9230	53.9920
 0.9240	53.9710
 0.9250	53.9660
 0.9260	53.9650
 0.9270	53.9540
 0.9280	53.9080
 0.9290	53.8680
 0.9300	53.8380
 0.9310	53.7900
 0.9320	53.7740
 0.9330	53.7690
 0.9340	53.7470
 0.9350	53.6930
 0.9360	53.6410
 0.9370	53.5990
 0.9380	53.5660
 0.9390	53.5300
 0.9400	53.4850
 0.9410	53.4430
 0.9420	53.4070
 0.9430	53.3530
 0.9440	53.2760
 0.9450	53.2110
 0.9460	53.1740
 0.9470	53.1320
 0.9480	53.0520
 0.9490	52.9410
 0.9500	52.8320
 0.9510	52.7870
 0.9520	52.6880
 0.9530	52.5510
 0.9540	52.4270
 0.9550	52.3250
 0.9560	52.2440
 0.9570	52.1590
 0.9580	52.0500
 0.9590	51.9440
 0.9600	51.8630
 0.9610	51.7790
 0.9620	51.6750
 0.9630	51.6240
 0.9640	51.5660
 0.9650	51.5060
 0.9660	51.4640
 0.9670	51.4090
 0.9680	51.3670
 0.9690	51.3490
 0.9700	51.3480
 0.9710	51.3180
 0.9720	51.2870
 0.9730	51.2590
 0.9740	51.2330
 0.9750	51.2390
 0.9760	51.2140
 0.9770	51.1820
 0.9780	51.1960
 0.9790	51.2180
 0.9800	51.2220
 0.9810	51.2030
 0.9820	51.1820
 0.9830	51.2280
 0.9840	51.2520
 0.9850	51.2550
 0.9860	51.2870
 0.9870	51.3470
 0.9880	51.3740
 0.9890	51.3870
 0.9900	51.4290
 0.9910	51.4770
 0.9920	51.4570
 0.9930	51.4370
 0.9940	51.4170
 0.9950	51.3970
 0.9960	51.3770
 0.9970	51.3570
 0.9980	51.3380
 0.9990	51.3180
 1.0000	51.2980
 1.0010	51.2780
 1.0020	51.2580
 1.0030	51.2380
 1.0040	51.2180
 1.0050	51.1980
 1.0060	51.1780
 1.0070	51.1580
 1.0080	51.1380
 1.0090	51.1190
 1.0100	51.1190
 1.0110	51.1600
 1.0120	51.2040
 1.0130	51.2430
 1.0140	51.2860
 1.0150	51.3380
 1.0160	51.3810
 1.0170	51.4180
 1.0180	51.4660
 1.0190	51.5170
 1.0200	51.5670
 1.0210	51.6150
 1.0220	51.6570
 1.0230	51.7070
 1.0240	51.7590
 1.0250	51.8090
 1.0260	51.8680
 1.0270	51.9140
 1.0280	51.9560
 1.0290	51.9900
 1.0300	52.0080
 1.0310	52.0360
 1.0320	52.0610
 1.0330	52.0900
 1.0340	52.1280
 1.0350	52.1780
 1.0360	52.2180
 1.0370	52.2510
 1.0380	52.2860
 1.0390	52.3170
 1.0400	52.3480
 1.0410	52.3790
 1.0420	52.4130
 1.0430	52.4500
 1.0440	52.4750
 1.0450	52.4960
 1.0460	52.5160
 1.0470	52.5180
 1.0480	52.5360
 1.0490	52.5670
 1.0500	52.5940
 1.0510	52.6240
 1.0520	52.6560
 1.0530	52.6800
 1.0540	52.6980
 1.0550	52.7200
 1.0560	52.7390
 1.0570	52.7560
 1.0580	52.7760
 1.0590	52.7870
 1.0600	52.7850
 1.0610	52.7960
 1.0620	52.8100
 1.0630	52.8230
 1.0640	52.8480
 1.0650	52.8630
 1.0660	52.8710
 1.0670	52.8790
 1.0680	52.8850
 1.0690	52.8870
 1.0700	52.8910
 1.0710	52.8960
 1.0720	52.9000
 1.0730	52.9040
 1.0740	52.9080
 1.0750	52.9130
 1.0760	52.9170
 1.0770	52.9260
 1.0780	52.9280
 1.0790	52.9260
 1.0800	52.9260
 1.0810	52.9280
 1.0820	52.9240
 1.0830	52.9160
 1.0840	52.9110
 1.0850	52.9050
 1.0860	52.8940
 1.0870	52.8880
 1.0880	52.8880
 1.0890	52.8780
 1.0900	52.8570
 1.0910	52.8490
 1.0920	52.8470
 1.0930	52.8350
 1.0940	52.8280
 1.0950	52.8140
 1.0960	52.7880
 1.0970	52.7660
 1.0980	52.7470
 1.0990	52.7240
 1.1000	52.6970
 1.1010	52.6710
 1.1020	52.6440
 1.1030	52.6180
 1.1040	52.5970
 1.1050	52.5710
 1.1060	52.5480
 1.1070	52.5340
 1.1080	52.5050
 1.1090	52.4710
 1.1100	52.4390
 1.1110	52.3990
 1.1120	52.3610
 1.1130	52.3310
 1.1140	52.2900
 1.1150	52.2470
 1.1160	52.1960
 1.1170	52.1410
 1.1180	52.0780
 1.1190	52.0060
 1.1200	51.9290
 1.1210	51.8460
 1.1220	51.7590
 1.1230	51.6700
 1.1240	51.5730
 1.1250	51.4690
 1.1260	51.3590
 1.1270	51.2430
 1.1280	51.1240
 1.1290	50.9910
 1.1300	50.8480
 1.1310	50.6970
 1.1320	50.5340
 1.1330	50.3650
 1.1340	50.1910
 1.1350	50.0060
 1.1360	49.8100
 1.1370	49.6060
 1.1380	49.3910
 1.1390	49.1780
 1.1400	48.9600
 1.1410	48.7340
 1.1420	48.5060
 1.1430	48.2710
 1.1440	48.0370
 1.1450	47.7930
 1.1460	47.5600
 1.1470	47.3260
 1.1480	47.1050
 1.1490	46.8910
 1.1500	46.6870
 1.1510	46.4920
 1.1520	46.3080
 1.1530	46.1310
 1.1540	45.9670
 1.1550	45.8150
 1.1560	45.6730
 1.1570	45.5390
 1.1580	45.4190
 1.1590	45.3050
 1.1600	45.1980
 1.1610	45.1060
 1.1620	45.0220
 1.1630	44.9480
 1.1640	44.8870
 1.1650	44.8280
 1.1660	44.7740
 1.1670	44.7240
 1.1680	44.6800
 1.1690	44.6390
 1.1700	44.6050
 1.1710	44.5690
 1.1720	44.5330
 1.1730	44.5010
 1.1740	44.4700
 1.1750	44.4390
 1.1760	44.4120
 1.1770	44.3880
 1.1780	44.3550
 1.1790	44.3210
 1.1800	44.2840
 1.1810	44.2390
 1.1820	44.1970
 1.1830	44.1560
 1.1840	44.1140
 1.1850	44.0740
 1.1860	44.0380
 1.1870	44.0090
 1.1880	43.9800
 1.1890	43.9530
 1.1900	43.9300
 1.1910	43.9080
 1.1920	43.8880
 1.1930	43.8760
 1.1940	43.8620
 1.1950	43.8490
 1.1960	43.8350
 1.1970	43.8230
 1.1980	43.8140
 1.1990	43.8150
 1.2000	43.8220
 1.2010	43.8340
 1.2020	43.8500
 1.2030	43.8670
 1.2040	43.8900
 1.2050	43.9180
 1.2060	43.9520
 1.2070	43.9890
 1.2080	44.0270
 1.2090	44.0720
 1.2100	44.1250
 1.2110	44.1770
 1.2120	44.2290
 1.2130	44.2880
 1.2140	44.3520
 1.2150	44.4170
 1.2160	44.4870
 1.2170	44.5610
 1.2180	44.6330
 1.2190	44.7020
 1.2200	44.7740
 1.2210	44.8520
 1.2220	44.9260
 1.2230	44.9990
 1.2240	45.0730
 1.2250	45.1450
 1.2260	45.2150
 1.2270	45.2830
 1.2280	45.3540
 1.2290	45.4180
 1.2300	45.4810
 1.2310	45.5470
 1.2320	45.6030
 1.2330	45.6570
 1.2340	45.7130
 1.2350	45.7710
 1.2360	45.8250
 1.2370	45.8780
 1.2380	45.9290
 1.2390	45.9750
 1.2400	46.0130
 1.2410	46.0540
 1.2420	46.0990
 1.2430	46.1400
 1.2440	46.1840
 1.2450	46.2280
 1.2460	46.2660
 1.2470	46.3010
 1.2480	46.3300
 1.2490	46.3570
 1.2500	46.3880
 1.2510	46.4180
 1.2520	46.4510
 1.2530	46.4750
 1.2540	46.4900
 1.2550	46.5080
 1.2560	46.5200
 1.2570	46.5370
 1.2580	46.5600
 1.2590	46.5790
 1.2600	46.5960
 1.2610	46.6140
 1.2620	46.6340
 1.2630	46.6490
 1.2640	46.6560
 1.2650	46.6730
 1.2660	46.6840
 1.2670	46.6790
 1.2680	46.6790
 1.2690	46.6710
 1.2700	46.6600
 1.2710	46.6600
 1.2720	46.6570
 1.2730	46.6480
 1.2740	46.6360
 1.2750	46.6220
 1.2760	46.6110
 1.2770	46.6050
 1.2780	46.5960
 1.2790	46.5790
 1.2800	46.5650
 1.2810	46.5500
 1.2820	46.5300
 1.2830	46.5170
 1.2840	46.4970
 1.2850	46.4660
 1.2860	46.4430
 1.2870	46.4120
 1.2880	46.3760
 1.2890	46.3370
 1.2900	46.2990
 1.2910	46.2470
 1.2920	46.1960
 1.2930	46.1470
 1.2940	46.0950
 1.2950	46.0490
 1.2960	45.9980
 1.2970	45.9450
 1.2980	45.8850
 1.2990	45.8160
 1.3000	45.7420
 1.3010	45.6640
 1.3020	45.5860
 1.3030	45.5040
 1.3040	45.4180
 1.3050	45.3300
 1.3060	45.2350
 1.3070	45.1320
 1.3080	45.0220
 1.3090	44.9100
 1.3100	44.7920
 1.3110	44.6660
 1.3120	44.5390
 1.3130	44.4090
 1.3140	44.2740
 1.3150	44.1370
 1.3160	43.9930
 1.3170	43.8450
 1.3180	43.6900
 1.3190	43.5260
 1.3200	43.3590
 1.3210	43.1810
 1.3220	42.9990
 1.3230	42.8160
 1.3240	42.6290
 1.3250	42.4440
 1.3260	42.2540
 1.3270	42.0530
 1.3280	41.8490
 1.3290	41.6400
 1.3300	41.4310
 1.3310	41.2260
 1.3320	41.0130
 1.3330	40.7990
 1.3340	40.5800
 1.3350	40.3600
 1.3360	40.1410
 1.3370	39.9170
 1.3380	39.6940
 1.3390	39.4690
 1.3400	39.2430
 1.3410	39.0240
 1.3420	38.8090
 1.3430	38.5940
 1.3440	38.3790
 1.3450	38.1680
 1.3460	37.9600
 1.3470	37.7530
 1.3480	37.5470
 1.3490	37.3450
 1.3500	37.1470
 1.3510	36.9460
 1.3520	36.7490
 1.3530	36.5550
 1.3540	36.3630
 1.3550	36.1720
 1.3560	35.9810
 1.3570	35.7940
 1.3580	35.6040
 1.3590	35.4080
 1.3600	35.2130
 1.3610	35.0110
 1.3620	34.8060
 1.3630	34.6000
 1.3640	34.3860
 1.3650	34.1660
 1.3660	33.9390
 1.3670	33.7000
 1.3680	33.4490
 1.3690	33.1890
 1.3700	32.9150
 1.3710	32.6310
 1.3720	32.3350
 1.3730	32.0170
 1.3740	31.6820
 1.3750	31.3290
 1.3760	30.9510
 1.3770	30.5520
 1.3780	30.1310
 1.3790	29.6900
 1.3800	29.2310
 1.3810	28.7490
 1.3820	28.2470
 1.3830	27.7250
 1.3840	27.1850
 1.3850	26.6240
 1.3860	26.0560
 1.3870	25.4690
 1.3880	24.8810
 1.3890	24.2830
 1.3900	23.6750
 1.3910	23.0730
 1.3920	22.4670
 1.3930	21.8640
 1.3940	21.2720
 1.3950	20.6810
 1.3960	20.1000
 1.3970	19.5340
 1.3980	18.9770
 1.3990	18.4430
 1.4000	17.9270
 1.4010	17.4260
 1.4020	16.9490
 1.4030	16.4880
 1.4040	16.0500
 1.4050	15.6350
 1.4060	15.2400
 1.4070	14.8720
 1.4080	14.5270
 1.4090	14.2000
 1.4100	13.8980
 1.4110	13.6140
 1.4120	13.3470
 1.4130	13.1020
 1.4140	12.8750
 1.4150	12.6670
 1.4160	12.4760
 1.4170	12.3000
 1.4180	12.1380
 1.4190	11.9900
 1.4200	11.8540
 1.4210	11.7300
 1.4220	11.6180
 1.4230	11.5160
 1.4240	11.4240
 1.4250	11.3400
 1.4260	11.2670
 1.4270	11.1980
 1.4280	11.1360
 1.4290	11.0810
 1.4300	11.0330
 1.4310	10.9890
 1.4320	10.9530
 1.4330	10.9210
 1.4340	10.8940
 1.4350	10.8710
 1.4360	10.8530
 1.4370	10.8400
 1.4380	10.8290
 1.4390	10.8240
 1.4400	10.8210
 1.4410	10.8190
 1.4420	10.8210
 1.4430	10.8230
 1.4440	10.8280
 1.4450	10.8390
 1.4460	10.8510
 1.4470	10.8670
 1.4480	10.8820
 1.4490	10.8950
 1.4500	10.9070
 1.4510	10.9200
 1.4520	10.9380
 1.4530	10.9560
 1.4540	10.9740
 1.4550	10.9930
 1.4560	11.0090
 1.4570	11.0270
 1.4580	11.0530
 1.4590	11.0790
 1.4600	11.1090
 1.4610	11.1420
 1.4620	11.1760
 1.4630	11.2150
 1.4640	11.2570
 1.4650	11.3020
 1.4660	11.3480
 1.4670	11.3970
 1.4680	11.4490
 1.4690	11.5040
 1.4700	11.5630
 1.4710	11.6280
 1.4720	11.6990
 1.4730	11.7700
 1.4740	11.8460
 1.4750	11.9260
 1.4760	12.0070
 1.4770	12.0890
 1.4780	12.1740
 1.4790	12.2590
 1.4800	12.3460
 1.4810	12.4380
 1.4820	12.5320
 1.4830	12.6250
 1.4840	12.7190
 1.4850	12.8130
 1.4860	12.9080
 1.4870	13.0060
 1.4880	13.1030
 1.4890	13.1990
 1.4900	13.2960
 1.4910	13.3930
 1.4920	13.4930
 1.4930	13.5940
 1.4940	13.6940
 1.4950	13.7960
 1.4960	13.8970
 1.4970	13.9970
 1.4980	14.0990
 1.4990	14.2020
 1.5000	14.3020
 1.5010	14.4020
 1.5020	14.5010
 1.5030	14.6000
 1.5040	14.7000
 1.5050	14.7990
 1.5060	14.9010
 1.5070	15.0050
 1.5080	15.1070
 1.5090	15.2120
 1.5100	15.3160
 1.5110	15.4170
 1.5120	15.5160
 1.5130	15.6110
 1.5140	15.7080
 1.5150	15.8050
 1.5160	15.9030
 1.5170	16.0040
 1.5180	16.1050
 1.5190	16.2010
 1.5200	16.2980
 1.5210	16.3950
 1.5220	16.4900
 1.5230	16.5850
 1.5240	16.6770
 1.5250	16.7680
 1.5260	16.8600
 1.5270	16.9540
 1.5280	17.0480
 1.5290	17.1410
 1.5300	17.2320
 1.5310	17.3230
 1.5320	17.4110
 1.5330	17.5000
 1.5340	17.5850
 1.5350	17.6690
 1.5360	17.7540
 1.5370	17.8380
 1.5380	17.9240
 1.5390	18.0090
 1.5400	18.0900
 1.5410	18.1710
 1.5420	18.2530
 1.5430	18.3350
 1.5440	18.4150
 1.5450	18.4950
 1.5460	18.5740
 1.5470	18.6520
 1.5480	18.7290
 1.5490	18.8080
 1.5500	18.8860
 1.5510	18.9650
 1.5520	19.0430
 1.5530	19.1150
 1.5540	19.1870
 1.5550	19.2590
 1.5560	19.3300
 1.5570	19.4030
 1.5580	19.4750
 1.5590	19.5430
 1.5600	19.6120
 1.5610	19.6810
 1.5620	19.7490
 1.5630	19.8180
 1.5640	19.8860
 1.5650	19.9550
 1.5660	20.0240
 1.5670	20.0940
 1.5680	20.1620
 1.5690	20.2260
 1.5700	20.2910
 1.5710	20.3560
 1.5720	20.4160
 1.5730	20.4780
 1.5740	20.5410
 1.5750	20.6010
 1.5760	20.6660
 1.5770	20.7310
 1.5780	20.7930
 1.5790	20.8570
 1.5800	20.9220
 1.5810	20.9840
 1.5820	21.0460
 1.5830	21.1070
 1.5840	21.1680
 1.5850	21.2300
 1.5860	21.2940
 1.5870	21.3560
 1.5880	21.4160
 1.5890	21.4770
 1.5900	21.5380
 1.5910	21.6000
 1.5920	21.6620
 1.5930	21.7220
 1.5940	21.7820
 1.5950	21.8420
 1.5960	21.8990
 1.5970	21.9570
 1.5980	22.0160
 1.5990	22.0740
 1.6000	22.1340
 1.6010	22.1930
 1.6020	22.2490
 1.6030	22.3070
 1.6040	22.3630
 1.6050	22.4200
 1.6060	22.4780
 1.6070	22.5320
 1.6080	22.5880
 1.6090	22.6420
 1.6100	22.6940
 1.6110	22.7460
 1.6120	22.7960
 1.6130	22.8420
 1.6140	22.8880
 1.6150	22.9380
 1.6160	22.9860
 1.6170	23.0330
 1.6180	23.0770
 1.6190	23.1140
 1.6200	23.1540
 1.6210	23.1970
 1.6220	23.2360
 1.6230	23.2760
 1.6240	23.3140
 1.6250	23.3490
 1.6260	23.3830
 1.6270	23.4200
 1.6280	23.4520
 1.6290	23.4840
 1.6300	23.5160
 1.6310	23.5470
 1.6320	23.5780
 1.6330	23.6080
 1.6340	23.6370
 1.6350	23.6640
 1.6360	23.6860
 1.6370	23.7100
 1.6380	23.7310
 1.6390	23.7540
 1.6400	23.7780
 1.6410	23.7930
 1.6420	23.8070
 1.6430	23.8150
 1.6440	23.8150
 1.6450	23.8200
 1.6460	23.8180
 1.6470	23.8110
 1.6480	23.7960
 1.6490	23.7740
 1.6500	23.7520
 1.6510	23.7300
 1.6520	23.7040
 1.6530	23.6720
 1.6540	23.6340
 1.6550	23.5920
 1.6560	23.5450
 1.6570	23.5000
 1.6580	23.4540
 1.6590	23.4040
 1.6600	23.3570
 1.6610	23.3110
 1.6620	23.2640
 1.6630	23.2250
 1.6640	23.1870
 1.6650	23.1480
 1.6660	23.1130
 1.6670	23.0800
 1.6680	23.0480
 1.6690	23.0220
 1.6700	23.0000
 1.6710	22.9800
 1.6720	22.9610
 1.6730	22.9500
 1.6740	22.9400
 1.6750	22.9300
 1.6760	22.9240
 1.6770	22.9090
 1.6780	22.8950
 1.6790	22.8830
 1.6800	22.8670
 1.6810	22.8530
 1.6820	22.8410
 1.6830	22.8240
 1.6840	22.8050
 1.6850	22.7790
 1.6860	22.7500
 1.6870	22.7160
 1.6880	22.6770
 1.6890	22.6460
 1.6900	22.6080
 1.6910	22.5630
 1.6920	22.5230
 1.6930	22.4790
 1.6940	22.4360
 1.6950	22.3960
 1.6960	22.3500
 1.6970	22.3000
 1.6980	22.2470
 1.6990	22.1910
 1.7000	22.1350
 1.7010	22.0760
 1.7020	22.0150
 1.7030	21.9530
 1.7040	21.8870
 1.7050	21.8140
 1.7060	21.7430
 1.7070	21.6720
 1.7080	21.6030
 1.7090	21.5330
 1.7100	21.4690
 1.7110	21.4070
 1.7120	21.3470
 1.7130	21.2890
 1.7140	21.2300
 1.7150	21.1750
 1.7160	21.1220
 1.7170	21.0740
 1.7180	21.0280
 1.7190	20.9810
 1.7200	20.9380
 1.7210	20.8960
 1.7220	20.8550
 1.7230	20.8200
 1.7240	20.7830
 1.7250	20.7500
 1.7260	20.7190
 1.7270	20.6850
 1.7280	20.6600
 1.7290	20.6340
 1.7300	20.6050
 1.7310	20.5800
 1.7320	20.5540
 1.7330	20.5280
 1.7340	20.5080
 1.7350	20.4830
 1.7360	20.4570
 1.7370	20.4270
 1.7380	20.3970
 1.7390	20.3620
 1.7400	20.3200
 1.7410	20.2790
 1.7420	20.2360
 1.7430	20.1890
 1.7440	20.1380
 1.7450	20.0880
 1.7460	20.0320
 1.7470	19.9790
 1.7480	19.9240
 1.7490	19.8740
 1.7500	19.8240
 1.7510	19.7810
 1.7520	19.7450
 1.7530	19.7050
 1.7540	19.6670
 1.7550	19.6280
 1.7560	19.5890
 1.7570	19.5550
 1.7580	19.5280
 1.7590	19.5030
 1.7600	19.4780
 1.7610	19.4470
 1.7620	19.4200
 1.7630	19.3910
 1.7640	19.3670
 1.7650	19.3520
 1.7660	19.3330
 1.7670	19.3150
 1.7680	19.2950
 1.7690	19.2700
 1.7700	19.2490
 1.7710	19.2300
 1.7720	19.2100
 1.7730	19.1920
 1.7740	19.1740
 1.7750	19.1560
 1.7760	19.1390
 1.7770	19.1260
 1.7780	19.1100
 1.7790	19.0920
 1.7800	19.0780
 1.7810	19.0660
 1.7820	19.0530
 1.7830	19.0400
 1.7840	19.0330
 1.7850	19.0260
 1.7860	19.0220
 1.7870	19.0250
 1.7880	19.0270
 1.7890	19.0280
 1.7900	19.0300
 1.7910	19.0310
 1.7920	19.0280
 1.7930	19.0280
 1.7940	19.0330
 1.7950	19.0360
 1.7960	19.0410
 1.7970	19.0450
 1.7980	19.0480
 1.7990	19.0540
 1.8000	19.0600
 1.8010	19.0680
 1.8020	19.0810
 1.8030	19.0930
 1.8040	19.1100
 1.8050	19.1200
 1.8060	19.1260
 1.8070	19.1350
 1.8080	19.1410
 1.8090	19.1510
 1.8100	19.1670
 1.8110	19.1730
 1.8120	19.1810
 1.8130	19.1860
 1.8140	19.1890
 1.8150	19.1940
 1.8160	19.1930
 1.8170	19.1960
 1.8180	19.2020
 1.8190	19.2070
 1.8200	19.2140
 1.8210	19.2220
 1.8220	19.2290
 1.8230	19.2430
 1.8240	19.2480
 1.8250	19.2420
 1.8260	19.2410
 1.8270	19.1550
 1.8280	19.0680
 1.8290	18.9820
 1.8300	18.8950
 1.8310	18.8080
 1.8320	18.7220
 1.8330	18.6350
 1.8340	18.5490
 1.8350	18.5490
 1.8360	18.5350
 1.8370	18.5070
 1.8380	18.4770
 1.8390	18.4440
 1.8400	18.4040
 1.8410	18.3620
 1.8420	18.3250
 1.8430	18.2740
 1.8440	18.2110
 1.8450	18.1490
 1.8460	18.0710
 1.8470	17.9870
 1.8480	17.8990
 1.8490	17.8000
 1.8500	17.6940
 1.8510	17.5810
 1.8520	17.4620
 1.8530	17.3380
 1.8540	17.2080
 1.8550	17.0670
 1.8560	16.9130
 1.8570	16.7470
 1.8580	16.5700
 1.8590	16.3820
 1.8600	16.1820
 1.8610	15.9700
 1.8620	15.7450
 1.8630	15.5080
 1.8640	15.2630
 1.8650	15.0080
 1.8660	14.7370
 1.8670	14.4450
 1.8680	14.1440
 1.8690	13.8300
 1.8700	13.5040
 1.8710	13.1670
 1.8720	12.8330
 1.8730	12.4780
 1.8740	12.1060
 1.8750	11.7310
 1.8760	11.3460
 1.8770	10.9670
 1.8780	10.5910
 1.8790	10.2170
 1.8800	 9.8530
 1.8810	 9.4950
 1.8820	 9.1370
 1.8830	 8.7870
 1.8840	 8.4450
 1.8850	 8.1000
 1.8860	 7.7650
 1.8870	 7.4480
 1.8880	 7.1470
 1.8890	 6.8570
 1.8900	 6.5740
 1.8910	 6.3110
 1.8920	 6.0600
 1.8930	 5.8240
 1.8940	 5.6120
 1.8950	 5.4270
 1.8960	 5.2470
 1.8970	 5.0760
 1.8980	 4.9270
 1.8990	 4.7950
 1.9000	 4.6750
 1.9010	 4.5820
 1.9020	 4.4840
 1.9030	 4.3920
 1.9040	 4.3060
 1.9050	 4.2310
 1.9060	 4.1670
 1.9070	 4.1190
 1.9080	 4.0820
 1.9090	 4.0430
 1.9100	 4.0110
 1.9110	 3.9810
 1.9120	 3.9520
 1.9130	 3.9270
 1.9140	 3.9070
 1.9150	 3.8870
 1.9160	 3.8680
 1.9170	 3.8520
 1.9180	 3.8410
 1.9190	 3.8300
 1.9200	 3.8240
 1.9210	 3.8230
 1.9220	 3.8200
 1.9230	 3.8150
 1.9240	 3.8130
 1.9250	 3.8100
 1.9260	 3.8140
 1.9270	 3.8160
 1.9280	 3.8210
 1.9290	 3.8240
 1.9300	 3.8240
 1.9310	 3.8320
 1.9320	 3.8360
 1.9330	 3.8400
 1.9340	 3.8460
 1.9350	 3.8520
 1.9360	 3.8540
 1.9370	 3.8630
 1.9380	 3.8780
 1.9390	 3.8920
 1.9400	 3.9090
 1.9410	 3.9230
 1.9420	 3.9360
 1.9430	 3.9470
 1.9440	 3.9590
 1.9450	 3.9710
 1.9460	 3.9870
 1.9470	 4.0060
 1.9480	 4.0240
 1.9490	 4.0460
 1.9500	 4.0600
 1.9510	 4.0720
 1.9520	 4.0910
 1.9530	 4.1150
 1.9540	 4.1380
 1.9550	 4.1610
 1.9560	 4.1880
 1.9570	 4.2100
 1.9580	 4.2290
 1.9590	 4.2500
 1.9600	 4.2690
 1.9610	 4.2900
 1.9620	 4.3150
 1.9630	 4.3330
 1.9640	 4.3520
 1.9650	 4.3760
 1.9660	 4.4050
 1.9670	 4.4380
 1.9680	 4.4700
 1.9690	 4.5080
 1.9700	 4.5420
 1.9710	 4.5710
 1.9720	 4.6020
 1.9730	 4.6340
 1.9740	 4.6600
 1.9750	 4.6880
 1.9760	 4.7170
 1.9770	 4.7460
 1.9780	 4.7780
 1.9790	 4.8120
 1.9800	 4.8480
 1.9810	 4.8850
 1.9820	 4.9300
 1.9830	 4.9630
 1.9840	 4.9870
 1.9850	 5.0180
 1.9860	 5.0470
 1.9870	 5.0730
 1.9880	 5.1100
 1.9890	 5.1510
 1.9900	 5.1880
 1.9910	 5.2260
 1.9920	 5.2620
 1.9930	 5.2940
 1.9940	 5.3320
 1.9950	 5.3700
 1.9960	 5.4100
 1.9970	 5.4540
 1.9980	 5.4960
 1.9990	 5.5400
 2.0000	 5.5760
 2.0010	 5.6130
 2.0020	 5.6520
 2.0030	 5.6880
 2.0040	 5.7230
 2.0050	 5.7580
 2.0060	 5.7880
 2.0070	 5.8250
 2.0080	 5.8660
 2.0090	 5.9060
 2.0100	 5.9550
 2.0110	 5.9960
 2.0120	 6.0320
 2.0130	 6.0670
 2.0140	 6.1030
 2.0150	 6.1340
 2.0160	 6.1680
 2.0170	 6.2040
 2.0180	 6.2400
 2.0190	 6.2770
 2.0200	 6.3130
 2.0210	 6.3520
 2.0220	 6.3870
 2.0230	 6.4200
 2.0240	 6.4520
 2.0250	 6.4830
 2.0260	 6.5130
 2.0270	 6.5380
 2.0280	 6.5720
 2.0290	 6.6090
 2.0300	 6.6350
 2.0310	 6.6610
 2.0320	 6.6850
 2.0330	 6.7100
 2.0340	 6.7330
 2.0350	 6.7540
 2.0360	 6.7730
 2.0370	 6.7940
 2.0380	 6.8110
 2.0390	 6.8290
 2.0400	 6.8500
 2.0410	 6.8720
 2.0420	 6.8940
 2.0430	 6.9130
 2.0440	 6.9290
 2.0450	 6.9470
 2.0460	 6.9610
 2.0470	 6.9660
 2.0480	 6.9820
 2.0490	 7.0040
 2.0500	 7.0230
 2.0510	 7.0470
 2.0520	 7.0690
 2.0530	 7.0920
 2.0540	 7.1110
 2.0550	 7.1270
 2.0560	 7.1410
 2.0570	 7.1530
 2.0580	 7.1670
 2.0590	 7.1840
 2.0600	 7.2090
 2.0610	 7.2260
 2.0620	 7.2430
 2.0630	 7.2570
 2.0640	 7.2630
 2.0650	 7.2760
 2.0660	 7.2900
 2.0670	 7.3080
 2.0680	 7.3320
 2.0690	 7.3530
 2.0700	 7.3730
 2.0710	 7.3940
 2.0720	 7.4200
 2.0730	 7.4370
 2.0740	 7.4540
 2.0750	 7.4710
 2.0760	 7.4830
 2.0770	 7.4890
 2.0780	 7.5000
 2.0790	 7.5110
 2.0800	 7.5220
 2.0810	 7.5330
 2.0820	 7.5440
 2.0830	 7.5580
 2.0840	 7.5710
 2.0850	 7.5810
 2.0860	 7.5970
 2.0870	 7.6180
 2.0880	 7.6350
 2.0890	 7.6520
 2.0900	 7.6720
 2.0910	 7.6890
 2.0920	 7.7000
 2.0930	 7.7140
 2.0940	 7.7300
 2.0950	 7.7450
 2.0960	 7.7560
 2.0970	 7.7700
 2.0980	 7.7880
 2.0990	 7.8030
 2.1000	 7.8230
 2.1010	 7.8370
 2.1020	 7.8410
 2.1030	 7.8510
 2.1040	 7.8580
 2.1050	 7.8660
 2.1060	 7.8800
 2.1070	 7.9000
 2.1080	 7.9180
 2.1090	 7.9400
 2.1100	 7.9580
 2.1110	 7.9780
 2.1120	 7.9940
 2.1130	 8.0110
 2.1140	 8.0230
 2.1150	 8.0330
 2.1160	 8.0400
 2.1170	 8.0390
 2.1180	 8.0450
 2.1190	 8.0510
 2.1200	 8.0590
 2.1210	 8.0710
 2.1220	 8.0900
 2.1230	 8.0960
 2.1240	 8.0990
 2.1250	 8.1030
 2.1260	 8.1000
 2.1270	 8.1040
 2.1280	 8.1110
 2.1290	 8.1190
 2.1300	 8.1300
 2.1310	 8.1390
 2.1320	 8.1540
 2.1330	 8.1640
 2.1340	 8.1740
 2.1350	 8.1800
 2.1360	 8.1750
 2.1370	 8.1810
 2.1380	 8.1890
 2.1390	 8.1990
 2.1400	 8.2190
 2.1410	 8.2390
 2.1420	 8.2520
 2.1430	 8.2590
 2.1440	 8.2740
 2.1450	 8.2930
 2.1460	 8.3070
 2.1470	 8.3220
 2.1480	 8.3380
 2.1490	 8.3500
 2.1500	 8.3660
 2.1510	 8.3900
 2.1520	 8.4080
 2.1530	 8.4170
 2.1540	 8.4370
 2.1550	 8.4620
 2.1560	 8.4880
 2.1570	 8.5220
 2.1580	 8.5520
 2.1590	 8.5830
 2.1600	 8.6050
 2.1610	 8.6340
 2.1620	 8.6570
 2.1630	 8.6810
 2.1640	 8.7050
 2.1650	 8.7270
 2.1660	 8.7430
 2.1670	 8.7680
 2.1680	 8.7940
 2.1690	 8.8250
 2.1700	 8.8710
 2.1710	 8.8990
 2.1720	 8.9230
 2.1730	 8.9410
 2.1740	 8.9350
 2.1750	 8.9520
 2.1760	 8.9860
 2.1770	 9.0080
 2.1780	 9.0380
 2.1790	 9.0620
 2.1800	 9.0630
 2.1810	 9.0820
 2.1820	 9.1110
 2.1830	 9.1410
 2.1840	 9.1720
 2.1850	 9.2160
 2.1860	 9.2400
 2.1870	 9.2540
 2.1880	 9.2740
 2.1890	 9.2810
 2.1900	 9.3050
 2.1910	 9.3500
 2.1920	 9.3700
 2.1930	 9.3810
 2.1940	 9.3990
 2.1950	 9.3990
 2.1960	 9.4160
 2.1970	 9.4530
 2.1980	 9.4820
 2.1990	 9.5130
 2.2000	 9.5420
 2.2010	 9.5720
 2.2020	 9.5990
 2.2030	 9.6240
 2.2040	 9.6440
 2.2050	 9.6600
 2.2060	 9.6710
 2.2070	 9.6900
 2.2080	 9.7100
 2.2090	 9.7310
 2.2100	 9.7620
 2.2110	 9.7780
 2.2120	 9.7860
 2.2130	 9.7980
 2.2140	 9.8030
 2.2150	 9.8170
 2.2160	 9.8440
 2.2170	 9.8550
 2.2180	 9.8580
 2.2190	 9.8670
 2.2200	 9.8710
 2.2210	 9.8760
 2.2220	 9.8900
 2.2230	 9.8960
 2.2240	 9.9000
 2.2250	 9.8980
 2.2260	 9.8930
 2.2270	 9.8850
 2.2280	 9.8700
 2.2290	 9.8530
 2.2300	 9.8310
 2.2310	 9.8100
 2.2320	 9.7930
 2.2330	 9.7670
 2.2340	 9.7430
 2.2350	 9.7190
 2.2360	 9.7020
 2.2370	 9.6860
 2.2380	 9.6660
 2.2390	 9.6580
 2.2400	 9.6250
 2.2410	 9.5790
 2.2420	 9.5320
 2.2430	 9.4690
 2.2440	 9.4160
 2.2450	 9.3580
 2.2460	 9.3110
 2.2470	 9.2740
 2.2480	 9.2320
 2.2490	 9.1990
 2.2500	 9.1570
 2.2510	 9.1140
 2.2520	 9.0660
 2.2530	 9.0120
 2.2540	 8.9580
 2.2550	 8.8890
 2.2560	 8.8350
 2.2570	 8.7900
 2.2580	 8.7420
 2.2590	 8.7080
 2.2600	 8.6650
 2.2610	 8.6120
 2.2620	 8.5600
 2.2630	 8.5080
 2.2640	 8.4590
 2.2650	 8.4270
 2.2660	 8.3950
 2.2670	 8.3600
 2.2680	 8.3300
 2.2690	 8.2880
 2.2700	 8.2370
 2.2710	 8.1910
 2.2720	 8.1400
 2.2730	 8.1000
 2.2740	 8.0660
 2.2750	 8.0310
 2.2760	 8.0070
 2.2770	 7.9670
 2.2780	 7.9140
 2.2790	 7.8740
 2.2800	 7.8310
 2.2810	 7.7980
 2.2820	 7.7810
 2.2830	 7.7540
 2.2840	 7.7260
 2.2850	 7.6960
 2.2860	 7.6630
 2.2870	 7.6290
 2.2880	 7.5930
 2.2890	 7.5570
 2.2900	 7.5250
 2.2910	 7.4850
 2.2920	 7.4340
 2.2930	 7.3910
 2.2940	 7.3370
 2.2950	 7.2990
 2.2960	 7.2850
 2.2970	 7.2570
 2.2980	 7.2240
 2.2990	 7.2000
 2.3000	 7.1630
 2.3010	 7.1160
 2.3020	 7.0890
 2.3030	 7.0670
 2.3040	 7.0550
 2.3050	 7.0550
 2.3060	 7.0450
 2.3070	 7.0220
 2.3080	 7.0060
 2.3090	 6.9740
 2.3100	 6.9490
 2.3110	 6.9490
 2.3120	 6.9480
 2.3130	 6.9620
 2.3140	 6.9630
 2.3150	 6.9620
 2.3160	 6.9650
 2.3170	 6.9660
 2.3180	 6.9560
 2.3190	 6.9470
 2.3200	 6.9410
 2.3210	 6.9240
 2.3220	 6.9160
 2.3230	 6.9220
 2.3240	 6.9130
 2.3250	 6.8980
 2.3260	 6.8730
 2.3270	 6.8280
 2.3280	 6.8040
 2.3290	 6.7860
 2.3300	 6.7690
 2.3310	 6.7710
 2.3320	 6.7600
 2.3330	 6.7440
 2.3340	 6.7130
 2.3350	 6.6610
 2.3360	 6.6290
 2.3370	 6.5900
 2.3380	 6.5650
 2.3390	 6.5760
 2.3400	 6.5550
 2.3410	 6.5100
 2.3420	 6.4790
 2.3430	 6.4310
 2.3440	 6.4020
 2.3450	 6.4030
 2.3460	 6.3860
 2.3470	 6.3720
 2.3480	 6.3530
 2.3490	 6.3140
 2.3500	 6.2920
 2.3510	 6.2680
 2.3520	 6.2570
 2.3530	 6.2620
 2.3540	 6.2690
 2.3550	 6.2790
 2.3560	 6.2800
 2.3570	 6.2570
 2.3580	 6.2520
 2.3590	 6.2560
 2.3600	 6.2510
 2.3610	 6.2520
 2.3620	 6.2480
 2.3630	 6.2250
 2.3640	 6.2110
 2.3650	 6.1990
 2.3660	 6.1880
 2.3670	 6.1830
 2.3680	 6.1770
 2.3690	 6.1730
 2.3700	 6.1390
 2.3710	 6.1050
 2.3720	 6.0810
 2.3730	 6.0430
 2.3740	 6.0260
 2.3750	 6.0110
 2.3760	 5.9910
 2.3770	 5.9810
 2.3780	 5.9710
 2.3790	 5.9550
 2.3800	 5.9360
 2.3810	 5.9270
 2.3820	 5.9140
 2.3830	 5.9110
 2.3840	 5.9010
 2.3850	 5.8580
 2.3860	 5.8440
 2.3870	 5.8320
 2.3880	 5.8000
 2.3890	 5.8110
 2.3900	 5.8150
 2.3910	 5.7830
 2.3920	 5.7610
 2.3930	 5.7170
 2.3940	 5.6770
 2.3950	 5.6670
 2.3960	 5.6420
 2.3970	 5.6290
 2.3980	 5.5940
 2.3990	 5.5330
 2.4000	 5.5150
 2.4010	 5.5080
 2.4020	 5.4730
 2.4030	 5.4520
 2.4040	 5.4280
 2.4050	 5.3830
 2.4060	 5.3780
 2.4070	 5.3870
 2.4080	 5.3810
 2.4090	 5.3510
 2.4100	 5.3150
 2.4110	 5.3050
 2.4120	 5.2740
 2.4130	 5.2610
 2.4140	 5.2780
 2.4150	 5.2820
 2.4160	 5.3030
 2.4170	 5.3180
 2.4180	 5.2920
 2.4190	 5.2130
 2.4200	 5.1290
 2.4210	 5.0670
 2.4220	 5.0380
 2.4230	 5.0790
 2.4240	 5.1180
 2.4250	 5.1240
 2.4260	 5.1020
 2.4270	 5.0810
 2.4280	 5.0440
 2.4290	 4.9940
 2.4300	 4.9790
 2.4310	 4.9580
 2.4320	 4.9260
 2.4330	 4.8770
 2.4340	 4.8420
 2.4350	 4.7920
 2.4360	 4.7430
 2.4370	 4.7600
 2.4380	 4.7590
 2.4390	 4.7650
 2.4400	 4.7440
 2.4410	 4.7040
 2.4420	 4.6830
 2.4430	 4.6460
 2.4440	 4.6320
 2.4450	 4.5970
 2.4460	 4.5900
 2.4470	 4.5990
 2.4480	 4.5780
 2.4490	 4.5950
 2.4500	 4.5970
 2.4510	 4.5950
 2.4520	 4.5980
 2.4530	 4.5740
 2.4540	 4.5770
 2.4550	 4.5520
 2.4560	 4.4840
 2.4570	 4.4590
 2.4580	 4.4380
 2.4590	 4.4130
 2.4600	 4.3500
 2.4610	 4.2850
 2.4620	 4.2540
 2.4630	 4.2210
 2.4640	 4.2780
 2.4650	 4.3180
 2.4660	 4.2950
 2.4670	 4.2780
 2.4680	 4.2570
 2.4690	 4.2400
 2.4700	 4.2380
 2.4710	 4.2020
 2.4720	 4.1870
 2.4730	 4.1950
 2.4740	 4.2180
 2.4750	 4.2800
 2.4760	 4.3200
 2.4770	 4.4000
 2.4780	 4.3900
 2.4790	 4.3090
 2.4800	 4.2500
 2.4810	 4.1100
 2.4820	 4.1210
 2.4830	 4.0660
 2.4840	 4.0180
 2.4850	 4.0860
 2.4860	 4.1140
 2.4870	 4.1550
 2.4880	 4.1850
 2.4890	 4.1570
 2.4900	 4.1940
 2.4910	 4.1970
 2.4920	 4.1520
 2.4930	 4.0930
 2.4940	 3.9760
 2.4950	 3.8790
 2.4960	 3.8960
 2.4970	 3.9630
 2.4980	 3.9540
 2.4990	 3.9420
 2.5000	 3.8760
