Name: Baccharis pilularis 1
Type: vegetation
Class: Shrub
Genus: Baccharis
Species: pilularis
Sample No.: VH097
Owner: UCSB
Wavelength Range: TIR
Origin: 34.418; -119.8455; WGS84
Collection Date: 6/3/2013
Description: Samples were collected as part of the HyspIRI Airborne Campaign. 48 individual plants were sampled in three times in 2013 - spring  summer  and fall. The name of the sample includes a 1  2  or 3 which references a different individual of the species. Samples were taken to JPL and processed within 48 hours of collection. The same leaves were processed in the Nicolet and then measured using the ASD.
Measurement: Hemispherical reflectance
First Column: X
Second Column: Y
X Units: Wavelength (micrometers)
Y Units: Reflectance (percentage)
First X Value: 2.501
Last X Value: 15.387
Number of X Values: 1737
Additional Information: vegetation.shrub.baccharis.pilularis.tir.vh097.ucsb.nicolet.ancillary.txt

 2.5010	 2.7450
 2.5030	 2.7260
 2.5040	 2.7040
 2.5050	 2.6790
 2.5060	 2.6930
 2.5070	 2.7000
 2.5090	 2.7300
 2.5100	 2.7310
 2.5110	 2.7130
 2.5120	 2.6640
 2.5140	 2.6780
 2.5150	 2.6570
 2.5160	 2.6750
 2.5170	 2.6900
 2.5180	 2.7090
 2.5200	 2.7050
 2.5210	 2.7210
 2.5220	 2.6890
 2.5230	 2.7110
 2.5250	 2.7410
 2.5260	 2.7620
 2.5270	 2.7270
 2.5280	 2.7580
 2.5290	 2.7960
 2.5310	 2.7810
 2.5320	 2.7040
 2.5330	 2.6890
 2.5340	 2.6540
 2.5360	 2.6440
 2.5370	 2.6940
 2.5380	 2.7640
 2.5390	 2.7580
 2.5410	 2.7640
 2.5420	 2.7590
 2.5430	 2.7770
 2.5440	 2.7750
 2.5460	 2.8030
 2.5470	 2.7890
 2.5480	 2.7900
 2.5490	 2.7460
 2.5510	 2.7370
 2.5520	 2.7200
 2.5530	 2.7720
 2.5540	 2.7290
 2.5560	 2.7640
 2.5570	 2.8040
 2.5580	 2.7950
 2.5590	 2.7760
 2.5610	 2.8260
 2.5620	 2.8350
 2.5630	 2.8280
 2.5640	 2.7790
 2.5660	 2.8060
 2.5670	 2.8330
 2.5680	 2.8760
 2.5700	 2.8850
 2.5710	 2.8640
 2.5720	 2.8170
 2.5730	 2.8410
 2.5750	 2.8370
 2.5760	 2.8700
 2.5770	 2.8590
 2.5790	 2.8750
 2.5800	 2.8670
 2.5810	 2.8430
 2.5820	 2.8030
 2.5840	 2.8490
 2.5850	 2.8520
 2.5860	 2.8450
 2.5880	 2.8520
 2.5890	 2.8800
 2.5900	 2.8570
 2.5910	 2.8760
 2.5930	 2.8530
 2.5940	 2.8220
 2.5950	 2.7720
 2.5970	 2.7620
 2.5980	 2.7700
 2.5990	 2.8140
 2.6000	 2.8330
 2.6020	 2.8340
 2.6030	 2.8270
 2.6040	 2.8660
 2.6060	 2.8450
 2.6070	 2.8440
 2.6080	 2.8450
 2.6100	 2.8750
 2.6110	 2.8240
 2.6120	 2.7880
 2.6140	 2.7990
 2.6150	 2.8310
 2.6160	 2.8080
 2.6180	 2.8060
 2.6190	 2.8160
 2.6200	 2.8100
 2.6220	 2.7890
 2.6230	 2.7970
 2.6240	 2.7630
 2.6260	 2.7710
 2.6270	 2.7760
 2.6280	 2.7520
 2.6300	 2.7140
 2.6310	 2.7170
 2.6320	 2.7290
 2.6340	 2.7600
 2.6350	 2.7500
 2.6360	 2.7560
 2.6380	 2.7130
 2.6390	 2.7360
 2.6400	 2.7410
 2.6420	 2.7470
 2.6430	 2.7540
 2.6440	 2.7400
 2.6460	 2.6380
 2.6470	 2.6460
 2.6480	 2.6890
 2.6500	 2.7060
 2.6510	 2.6480
 2.6520	 2.6050
 2.6540	 2.5570
 2.6550	 2.5850
 2.6560	 2.5990
 2.6580	 2.6550
 2.6590	 2.6240
 2.6610	 2.6090
 2.6620	 2.6140
 2.6630	 2.5980
 2.6650	 2.5470
 2.6660	 2.5900
 2.6670	 2.6150
 2.6690	 2.6130
 2.6700	 2.5170
 2.6720	 2.4740
 2.6730	 2.4530
 2.6740	 2.4660
 2.6760	 2.4160
 2.6770	 2.4420
 2.6780	 2.4340
 2.6800	 2.4290
 2.6810	 2.4260
 2.6830	 2.4510
 2.6840	 2.4480
 2.6850	 2.4610
 2.6870	 2.4330
 2.6880	 2.4000
 2.6900	 2.3860
 2.6910	 2.4380
 2.6920	 2.4060
 2.6940	 2.3790
 2.6950	 2.3140
 2.6970	 2.3010
 2.6980	 2.3250
 2.6990	 2.3140
 2.7010	 2.2380
 2.7020	 2.2480
 2.7040	 2.2050
 2.7050	 2.1930
 2.7060	 2.1880
 2.7080	 2.2490
 2.7090	 2.2180
 2.7110	 2.2230
 2.7120	 2.2240
 2.7130	 2.2590
 2.7150	 2.2060
 2.7160	 2.1900
 2.7180	 2.1730
 2.7190	 2.1990
 2.7210	 2.1250
 2.7220	 2.0930
 2.7230	 2.1200
 2.7250	 2.1540
 2.7260	 2.1180
 2.7280	 2.1420
 2.7290	 2.1210
 2.7310	 2.0970
 2.7320	 2.0530
 2.7330	 2.0450
 2.7350	 2.0280
 2.7360	 2.0590
 2.7380	 2.0150
 2.7390	 2.0050
 2.7410	 2.0130
 2.7420	 2.0340
 2.7440	 1.9580
 2.7450	 1.9490
 2.7470	 1.9590
 2.7480	 1.9830
 2.7490	 1.9600
 2.7510	 1.9480
 2.7520	 1.8830
 2.7540	 1.8680
 2.7550	 1.8600
 2.7570	 1.8860
 2.7580	 1.8940
 2.7600	 1.8870
 2.7610	 1.8430
 2.7630	 1.8690
 2.7640	 1.9220
 2.7660	 1.9250
 2.7670	 1.8150
 2.7680	 1.7830
 2.7700	 1.8010
 2.7710	 1.7950
 2.7730	 1.7720
 2.7740	 1.8380
 2.7760	 1.8900
 2.7770	 1.8650
 2.7790	 1.7920
 2.7800	 1.7970
 2.7820	 1.7650
 2.7830	 1.7820
 2.7850	 1.7660
 2.7860	 1.7770
 2.7880	 1.7790
 2.7890	 1.7360
 2.7910	 1.6910
 2.7920	 1.7510
 2.7940	 1.7450
 2.7950	 1.7280
 2.7970	 1.6910
 2.7980	 1.6850
 2.8000	 1.6710
 2.8010	 1.7440
 2.8030	 1.7450
 2.8040	 1.7210
 2.8060	 1.6690
 2.8070	 1.7030
 2.8090	 1.7060
 2.8110	 1.6740
 2.8120	 1.6440
 2.8140	 1.7110
 2.8150	 1.7220
 2.8170	 1.6980
 2.8180	 1.6240
 2.8200	 1.6650
 2.8210	 1.6420
 2.8230	 1.6550
 2.8240	 1.6830
 2.8260	 1.7170
 2.8270	 1.6580
 2.8290	 1.6680
 2.8300	 1.6390
 2.8320	 1.6630
 2.8340	 1.6270
 2.8350	 1.5760
 2.8370	 1.5440
 2.8380	 1.5740
 2.8400	 1.6250
 2.8410	 1.6770
 2.8430	 1.6420
 2.8440	 1.5810
 2.8460	 1.5410
 2.8480	 1.6090
 2.8490	 1.6090
 2.8510	 1.6220
 2.8520	 1.6120
 2.8540	 1.6070
 2.8550	 1.5860
 2.8570	 1.6130
 2.8590	 1.5820
 2.8600	 1.6150
 2.8620	 1.5990
 2.8630	 1.5980
 2.8650	 1.5590
 2.8660	 1.5880
 2.8680	 1.5510
 2.8700	 1.5350
 2.8710	 1.5520
 2.8730	 1.5970
 2.8740	 1.5700
 2.8760	 1.6070
 2.8780	 1.6110
 2.8790	 1.6290
 2.8810	 1.6100
 2.8820	 1.5970
 2.8840	 1.5920
 2.8860	 1.5740
 2.8870	 1.5260
 2.8890	 1.5400
 2.8900	 1.5730
 2.8920	 1.6070
 2.8940	 1.6050
 2.8950	 1.5650
 2.8970	 1.5130
 2.8980	 1.5350
 2.9000	 1.5480
 2.9020	 1.5990
 2.9030	 1.6320
 2.9050	 1.6410
 2.9070	 1.6200
 2.9080	 1.5990
 2.9100	 1.5720
 2.9120	 1.5980
 2.9130	 1.5470
 2.9150	 1.5420
 2.9160	 1.5800
 2.9180	 1.6200
 2.9200	 1.6140
 2.9210	 1.6260
 2.9230	 1.5630
 2.9250	 1.5840
 2.9260	 1.6030
 2.9280	 1.6300
 2.9300	 1.6220
 2.9310	 1.6160
 2.9330	 1.6010
 2.9350	 1.6080
 2.9360	 1.5960
 2.9380	 1.6510
 2.9400	 1.6870
 2.9410	 1.6860
 2.9430	 1.6290
 2.9450	 1.6360
 2.9460	 1.6330
 2.9480	 1.6740
 2.9500	 1.6990
 2.9510	 1.6790
 2.9530	 1.6330
 2.9550	 1.6950
 2.9560	 1.6910
 2.9580	 1.6580
 2.9600	 1.6370
 2.9610	 1.6770
 2.9630	 1.6360
 2.9650	 1.6750
 2.9660	 1.6650
 2.9680	 1.6490
 2.9700	 1.6540
 2.9720	 1.6450
 2.9730	 1.6660
 2.9750	 1.7140
 2.9770	 1.6490
 2.9780	 1.6530
 2.9800	 1.6840
 2.9820	 1.7280
 2.9840	 1.7110
 2.9850	 1.7220
 2.9870	 1.6950
 2.9890	 1.6950
 2.9900	 1.7060
 2.9920	 1.7480
 2.9940	 1.7460
 2.9960	 1.7350
 2.9970	 1.7150
 2.9990	 1.7480
 3.0010	 1.7400
 3.0030	 1.7480
 3.0040	 1.7100
 3.0060	 1.6830
 3.0080	 1.6970
 3.0100	 1.7430
 3.0110	 1.7290
 3.0130	 1.7370
 3.0150	 1.7310
 3.0170	 1.7650
 3.0180	 1.7530
 3.0200	 1.7860
 3.0220	 1.7600
 3.0240	 1.7320
 3.0250	 1.7400
 3.0270	 1.7660
 3.0290	 1.7530
 3.0310	 1.7590
 3.0320	 1.7850
 3.0340	 1.8070
 3.0360	 1.7440
 3.0380	 1.7660
 3.0400	 1.8040
 3.0410	 1.8200
 3.0430	 1.7650
 3.0450	 1.7530
 3.0470	 1.7700
 3.0480	 1.8380
 3.0500	 1.8480
 3.0520	 1.8310
 3.0540	 1.7750
 3.0560	 1.7930
 3.0570	 1.8200
 3.0590	 1.8640
 3.0610	 1.9220
 3.0630	 1.9390
 3.0650	 1.8340
 3.0660	 1.8250
 3.0680	 1.8650
 3.0700	 1.8630
 3.0720	 1.8450
 3.0740	 1.8600
 3.0760	 1.8470
 3.0770	 1.8930
 3.0790	 1.8770
 3.0810	 1.8590
 3.0830	 1.8800
 3.0850	 1.9280
 3.0870	 1.9380
 3.0880	 1.9740
 3.0900	 1.9380
 3.0920	 1.9280
 3.0940	 1.9340
 3.0960	 1.9530
 3.0980	 1.9100
 3.0990	 1.9000
 3.1010	 1.8600
 3.1030	 1.9000
 3.1050	 1.9320
 3.1070	 1.9670
 3.1090	 1.9610
 3.1110	 1.9570
 3.1120	 1.9770
 3.1140	 2.0040
 3.1160	 1.9600
 3.1180	 2.0130
 3.1200	 2.0390
 3.1220	 1.9920
 3.1240	 1.9240
 3.1260	 1.9570
 3.1270	 1.9520
 3.1290	 1.9580
 3.1310	 1.9570
 3.1330	 1.9730
 3.1350	 1.9770
 3.1370	 1.9950
 3.1390	 1.9990
 3.1410	 2.0540
 3.1430	 2.0150
 3.1450	 1.9910
 3.1460	 2.0090
 3.1480	 2.0790
 3.1500	 2.0280
 3.1520	 2.0240
 3.1540	 2.0440
 3.1560	 2.0580
 3.1580	 2.0420
 3.1600	 2.0550
 3.1620	 2.0590
 3.1640	 2.0520
 3.1660	 2.0060
 3.1680	 2.0630
 3.1700	 2.0840
 3.1710	 2.1230
 3.1730	 2.1300
 3.1750	 2.1170
 3.1770	 2.0580
 3.1790	 2.0440
 3.1810	 2.0810
 3.1830	 2.1290
 3.1850	 2.1180
 3.1870	 2.1540
 3.1890	 2.1340
 3.1910	 2.1270
 3.1930	 2.1030
 3.1950	 2.1560
 3.1970	 2.1480
 3.1990	 2.1240
 3.2010	 2.1120
 3.2030	 2.1420
 3.2050	 2.1110
 3.2070	 2.1370
 3.2090	 2.1410
 3.2110	 2.1670
 3.2130	 2.1470
 3.2150	 2.1580
 3.2170	 2.1430
 3.2190	 2.1890
 3.2210	 2.2000
 3.2230	 2.2200
 3.2250	 2.2040
 3.2270	 2.1730
 3.2290	 2.1550
 3.2310	 2.1570
 3.2330	 2.1190
 3.2350	 2.1930
 3.2370	 2.2390
 3.2390	 2.2120
 3.2410	 2.1920
 3.2430	 2.2350
 3.2450	 2.2190
 3.2470	 2.1750
 3.2490	 2.1750
 3.2510	 2.2180
 3.2530	 2.2260
 3.2550	 2.2310
 3.2570	 2.2050
 3.2590	 2.2190
 3.2610	 2.1960
 3.2630	 2.2450
 3.2650	 2.2490
 3.2670	 2.2390
 3.2690	 2.2430
 3.2720	 2.2890
 3.2740	 2.2680
 3.2760	 2.2780
 3.2780	 2.2560
 3.2800	 2.2590
 3.2820	 2.2260
 3.2840	 2.2470
 3.2860	 2.2220
 3.2880	 2.2320
 3.2900	 2.2070
 3.2920	 2.2250
 3.2940	 2.2400
 3.2960	 2.2560
 3.2990	 2.2070
 3.3010	 2.2100
 3.3030	 2.2280
 3.3050	 2.2600
 3.3070	 2.2090
 3.3090	 2.2150
 3.3110	 2.2420
 3.3130	 2.2750
 3.3150	 2.2700
 3.3180	 2.2610
 3.3200	 2.2180
 3.3220	 2.2430
 3.3240	 2.2410
 3.3260	 2.2250
 3.3280	 2.1680
 3.3300	 2.1750
 3.3330	 2.1520
 3.3350	 2.1440
 3.3370	 2.1390
 3.3390	 2.2090
 3.3410	 2.2340
 3.3430	 2.2310
 3.3450	 2.2060
 3.3480	 2.1660
 3.3500	 2.1170
 3.3520	 2.1070
 3.3540	 2.0690
 3.3560	 2.0640
 3.3580	 2.0700
 3.3610	 2.0690
 3.3630	 1.9760
 3.3650	 1.9800
 3.3670	 2.0360
 3.3690	 2.0500
 3.3720	 2.0030
 3.3740	 1.9910
 3.3760	 1.9590
 3.3780	 1.9940
 3.3800	 1.9970
 3.3830	 1.9930
 3.3850	 1.9680
 3.3870	 1.9560
 3.3890	 1.9420
 3.3910	 2.0070
 3.3940	 2.0680
 3.3960	 2.0840
 3.3980	 2.0690
 3.4000	 2.0680
 3.4020	 2.0560
 3.4050	 2.0900
 3.4070	 2.0410
 3.4090	 2.0270
 3.4110	 2.0700
 3.4140	 2.1600
 3.4160	 2.2070
 3.4180	 2.2000
 3.4200	 2.1960
 3.4230	 2.3060
 3.4250	 2.4330
 3.4270	 2.5820
 3.4290	 2.6590
 3.4320	 2.6650
 3.4340	 2.5870
 3.4360	 2.5410
 3.4390	 2.4450
 3.4410	 2.4350
 3.4430	 2.4150
 3.4450	 2.4180
 3.4480	 2.4870
 3.4500	 2.5370
 3.4520	 2.5070
 3.4550	 2.5070
 3.4570	 2.4790
 3.4590	 2.5090
 3.4620	 2.5170
 3.4640	 2.5370
 3.4660	 2.5110
 3.4680	 2.5030
 3.4710	 2.5110
 3.4730	 2.4980
 3.4750	 2.4820
 3.4780	 2.4540
 3.4800	 2.4160
 3.4820	 2.4090
 3.4850	 2.4030
 3.4870	 2.4690
 3.4890	 2.4760
 3.4920	 2.5040
 3.4940	 2.4550
 3.4970	 2.4800
 3.4990	 2.5120
 3.5010	 2.5500
 3.5040	 2.5440
 3.5060	 2.6280
 3.5080	 2.7680
 3.5110	 2.9150
 3.5130	 2.9460
 3.5160	 2.9730
 3.5180	 2.8930
 3.5200	 2.8810
 3.5230	 2.8980
 3.5250	 2.8840
 3.5270	 2.8270
 3.5300	 2.8300
 3.5320	 2.8460
 3.5350	 2.8460
 3.5370	 2.7960
 3.5400	 2.7800
 3.5420	 2.8050
 3.5440	 2.8520
 3.5470	 2.8750
 3.5490	 2.9000
 3.5520	 2.8850
 3.5540	 2.9300
 3.5570	 2.9150
 3.5590	 2.8820
 3.5610	 2.8590
 3.5640	 2.8900
 3.5660	 2.9400
 3.5690	 2.9660
 3.5710	 2.9510
 3.5740	 3.0110
 3.5760	 2.9820
 3.5790	 2.9470
 3.5810	 2.9410
 3.5840	 3.0250
 3.5860	 3.0270
 3.5890	 3.0450
 3.5910	 3.0310
 3.5930	 2.9940
 3.5960	 3.0090
 3.5980	 3.0520
 3.6010	 3.0150
 3.6030	 3.0040
 3.6060	 2.9910
 3.6080	 2.9930
 3.6110	 2.9790
 3.6140	 2.9920
 3.6160	 3.0130
 3.6190	 3.0570
 3.6210	 3.0610
 3.6240	 3.0570
 3.6260	 2.9810
 3.6290	 2.9620
 3.6310	 3.0040
 3.6340	 3.0680
 3.6360	 3.0570
 3.6390	 3.0730
 3.6410	 3.0560
 3.6440	 3.0230
 3.6470	 3.0230
 3.6490	 3.0970
 3.6520	 3.1340
 3.6540	 3.1300
 3.6570	 3.0660
 3.6590	 3.0660
 3.6620	 3.0370
 3.6650	 3.0360
 3.6670	 3.0820
 3.6700	 3.1630
 3.6720	 3.1720
 3.6750	 3.1650
 3.6780	 3.1420
 3.6800	 3.1350
 3.6830	 3.1130
 3.6850	 3.1110
 3.6880	 3.1140
 3.6910	 3.1500
 3.6930	 3.1480
 3.6960	 3.1570
 3.6990	 3.1790
 3.7010	 3.1720
 3.7040	 3.1710
 3.7060	 3.2270
 3.7090	 3.2400
 3.7120	 3.2090
 3.7140	 3.1580
 3.7170	 3.1990
 3.7200	 3.2670
 3.7220	 3.2640
 3.7250	 3.2070
 3.7280	 3.2330
 3.7300	 3.2170
 3.7330	 3.2170
 3.7360	 3.2210
 3.7390	 3.2450
 3.7410	 3.2240
 3.7440	 3.2230
 3.7470	 3.2260
 3.7490	 3.2530
 3.7520	 3.2670
 3.7550	 3.2430
 3.7580	 3.2080
 3.7600	 3.2680
 3.7630	 3.3070
 3.7660	 3.3150
 3.7680	 3.2740
 3.7710	 3.2420
 3.7740	 3.2160
 3.7770	 3.2700
 3.7790	 3.3120
 3.7820	 3.3080
 3.7850	 3.2580
 3.7880	 3.2860
 3.7900	 3.3280
 3.7930	 3.3470
 3.7960	 3.3200
 3.7990	 3.3060
 3.8020	 3.3110
 3.8040	 3.3700
 3.8070	 3.4070
 3.8100	 3.4270
 3.8130	 3.3740
 3.8160	 3.3500
 3.8180	 3.3690
 3.8210	 3.3970
 3.8240	 3.3830
 3.8270	 3.4430
 3.8300	 3.4520
 3.8330	 3.4000
 3.8350	 3.4100
 3.8380	 3.4800
 3.8410	 3.4710
 3.8440	 3.4440
 3.8470	 3.4230
 3.8500	 3.4290
 3.8520	 3.4310
 3.8550	 3.4500
 3.8580	 3.4420
 3.8610	 3.4990
 3.8640	 3.5080
 3.8670	 3.4630
 3.8700	 3.4390
 3.8730	 3.4620
 3.8750	 3.4500
 3.8780	 3.4900
 3.8810	 3.5080
 3.8840	 3.5300
 3.8870	 3.4970
 3.8900	 3.4940
 3.8930	 3.4990
 3.8960	 3.5060
 3.8990	 3.5380
 3.9020	 3.5590
 3.9050	 3.5080
 3.9080	 3.5310
 3.9110	 3.5440
 3.9140	 3.5160
 3.9160	 3.4800
 3.9190	 3.4900
 3.9220	 3.4780
 3.9250	 3.5230
 3.9280	 3.5320
 3.9310	 3.5130
 3.9340	 3.4760
 3.9370	 3.4680
 3.9400	 3.5270
 3.9430	 3.5610
 3.9460	 3.5250
 3.9490	 3.5120
 3.9520	 3.5190
 3.9550	 3.5600
 3.9580	 3.5390
 3.9610	 3.5760
 3.9640	 3.5670
 3.9670	 3.5480
 3.9700	 3.5610
 3.9730	 3.6060
 3.9770	 3.6180
 3.9800	 3.5890
 3.9830	 3.5750
 3.9860	 3.6120
 3.9890	 3.6420
 3.9920	 3.6520
 3.9950	 3.6070
 3.9980	 3.5860
 4.0010	 3.5630
 4.0040	 3.6140
 4.0070	 3.6170
 4.0100	 3.6000
 4.0130	 3.5720
 4.0170	 3.5900
 4.0200	 3.5880
 4.0230	 3.5950
 4.0260	 3.6110
 4.0290	 3.5910
 4.0320	 3.5690
 4.0350	 3.6380
 4.0380	 3.6570
 4.0420	 3.6050
 4.0450	 3.5750
 4.0480	 3.5790
 4.0510	 3.5890
 4.0540	 3.6270
 4.0570	 3.6330
 4.0610	 3.6380
 4.0640	 3.6350
 4.0670	 3.6580
 4.0700	 3.6570
 4.0730	 3.6360
 4.0770	 3.6340
 4.0800	 3.6400
 4.0830	 3.6340
 4.0860	 3.6670
 4.0890	 3.6660
 4.0930	 3.6600
 4.0960	 3.6590
 4.0990	 3.6230
 4.1020	 3.5870
 4.1060	 3.6200
 4.1090	 3.6540
 4.1120	 3.6710
 4.1150	 3.6380
 4.1190	 3.6530
 4.1220	 3.6670
 4.1250	 3.7040
 4.1280	 3.6980
 4.1320	 3.6750
 4.1350	 3.6400
 4.1380	 3.6260
 4.1420	 3.6480
 4.1450	 3.6490
 4.1480	 3.6430
 4.1520	 3.6640
 4.1550	 3.6630
 4.1580	 3.6780
 4.1620	 3.6700
 4.1650	 3.6090
 4.1680	 3.6270
 4.1720	 3.6530
 4.1750	 3.6190
 4.1780	 3.6290
 4.1820	 3.6320
 4.1850	 3.5920
 4.1890	 3.5630
 4.1920	 3.5600
 4.1950	 3.4940
 4.1990	 3.3770
 4.2020	 3.1870
 4.2060	 3.0150
 4.2090	 2.8040
 4.2120	 2.5440
 4.2160	 2.3210
 4.2190	 2.1390
 4.2230	 1.9610
 4.2260	 1.8270
 4.2300	 1.7570
 4.2330	 1.7180
 4.2360	 1.6920
 4.2400	 1.7300
 4.2430	 1.8160
 4.2470	 1.9650
 4.2500	 2.1800
 4.2540	 2.4860
 4.2570	 2.7290
 4.2610	 2.5760
 4.2640	 2.2850
 4.2680	 2.1440
 4.2710	 2.0510
 4.2750	 2.0500
 4.2780	 2.0630
 4.2820	 2.0940
 4.2850	 2.1070
 4.2890	 2.1650
 4.2930	 2.2600
 4.2960	 2.2670
 4.3000	 2.2930
 4.3030	 2.3630
 4.3070	 2.4300
 4.3100	 2.5510
 4.3140	 2.6600
 4.3180	 2.7660
 4.3210	 2.8310
 4.3250	 2.8680
 4.3280	 2.9270
 4.3320	 3.0590
 4.3360	 3.1530
 4.3390	 3.2030
 4.3430	 3.2240
 4.3470	 3.3020
 4.3500	 3.3720
 4.3540	 3.3580
 4.3570	 3.3440
 4.3610	 3.3800
 4.3650	 3.3970
 4.3680	 3.4330
 4.3720	 3.4530
 4.3760	 3.4200
 4.3800	 3.4120
 4.3830	 3.4210
 4.3870	 3.3920
 4.3910	 3.3950
 4.3940	 3.4250
 4.3980	 3.4450
 4.4020	 3.4130
 4.4060	 3.4050
 4.4090	 3.4080
 4.4130	 3.3760
 4.4170	 3.3440
 4.4210	 3.3440
 4.4240	 3.3070
 4.4280	 3.2970
 4.4320	 3.3680
 4.4360	 3.4490
 4.4400	 3.4610
 4.4430	 3.4570
 4.4470	 3.4270
 4.4510	 3.3940
 4.4550	 3.3540
 4.4590	 3.3440
 4.4620	 3.3850
 4.4660	 3.4110
 4.4700	 3.4000
 4.4740	 3.4150
 4.4780	 3.3930
 4.4820	 3.3540
 4.4860	 3.3620
 4.4900	 3.3610
 4.4930	 3.3880
 4.4970	 3.4340
 4.5010	 3.4310
 4.5050	 3.4130
 4.5090	 3.4170
 4.5130	 3.4230
 4.5170	 3.4160
 4.5210	 3.3860
 4.5250	 3.3930
 4.5290	 3.4240
 4.5330	 3.4070
 4.5370	 3.3850
 4.5410	 3.3870
 4.5450	 3.4170
 4.5490	 3.3990
 4.5530	 3.3620
 4.5570	 3.3670
 4.5610	 3.3470
 4.5650	 3.3490
 4.5690	 3.3970
 4.5730	 3.4200
 4.5770	 3.3990
 4.5810	 3.3850
 4.5850	 3.3970
 4.5890	 3.4080
 4.5930	 3.4190
 4.5970	 3.3790
 4.6010	 3.3820
 4.6050	 3.4070
 4.6090	 3.3740
 4.6130	 3.3810
 4.6170	 3.3970
 4.6220	 3.3880
 4.6260	 3.3800
 4.6300	 3.3590
 4.6340	 3.3600
 4.6380	 3.3910
 4.6420	 3.3660
 4.6460	 3.3540
 4.6510	 3.3720
 4.6550	 3.3620
 4.6590	 3.3180
 4.6630	 3.3130
 4.6670	 3.3530
 4.6720	 3.3990
 4.6760	 3.4040
 4.6800	 3.3860
 4.6840	 3.3860
 4.6880	 3.3750
 4.6930	 3.3420
 4.6970	 3.3140
 4.7010	 3.3270
 4.7050	 3.3570
 4.7100	 3.3500
 4.7140	 3.3040
 4.7180	 3.3040
 4.7230	 3.3010
 4.7270	 3.3190
 4.7310	 3.3390
 4.7360	 3.3230
 4.7400	 3.3090
 4.7440	 3.3400
 4.7490	 3.3790
 4.7530	 3.3810
 4.7570	 3.3350
 4.7620	 3.2970
 4.7660	 3.3020
 4.7700	 3.2930
 4.7750	 3.3100
 4.7790	 3.3100
 4.7840	 3.3050
 4.7880	 3.2940
 4.7920	 3.3140
 4.7970	 3.3360
 4.8010	 3.3410
 4.8060	 3.3100
 4.8100	 3.3030
 4.8150	 3.3120
 4.8190	 3.3210
 4.8240	 3.3000
 4.8280	 3.3070
 4.8330	 3.3330
 4.8370	 3.3200
 4.8420	 3.2530
 4.8460	 3.2480
 4.8510	 3.3000
 4.8550	 3.3290
 4.8600	 3.3130
 4.8640	 3.3300
 4.8690	 3.2750
 4.8730	 3.2510
 4.8780	 3.2820
 4.8830	 3.3100
 4.8870	 3.2910
 4.8920	 3.2960
 4.8960	 3.2550
 4.9010	 3.2620
 4.9060	 3.2520
 4.9100	 3.2700
 4.9150	 3.2600
 4.9200	 3.2400
 4.9240	 3.2290
 4.9290	 3.2320
 4.9340	 3.2950
 4.9380	 3.2960
 4.9430	 3.2680
 4.9480	 3.2900
 4.9530	 3.3060
 4.9570	 3.3060
 4.9620	 3.3010
 4.9670	 3.3060
 4.9720	 3.3120
 4.9760	 3.2710
 4.9810	 3.2360
 4.9860	 3.2540
 4.9910	 3.2910
 4.9960	 3.2860
 5.0000	 3.2690
 5.0050	 3.3020
 5.0100	 3.2910
 5.0150	 3.2780
 5.0200	 3.2580
 5.0250	 3.2790
 5.0290	 3.2620
 5.0340	 3.2890
 5.0390	 3.2490
 5.0440	 3.2290
 5.0490	 3.2540
 5.0540	 3.2620
 5.0590	 3.2410
 5.0640	 3.2400
 5.0690	 3.2650
 5.0740	 3.2580
 5.0790	 3.2420
 5.0840	 3.2510
 5.0890	 3.2380
 5.0940	 3.2550
 5.0990	 3.2000
 5.1040	 3.1820
 5.1090	 3.2180
 5.1140	 3.2540
 5.1190	 3.2690
 5.1240	 3.2930
 5.1290	 3.2780
 5.1340	 3.2630
 5.1390	 3.2690
 5.1440	 3.2830
 5.1490	 3.2550
 5.1540	 3.2480
 5.1600	 3.2540
 5.1650	 3.2930
 5.1700	 3.3010
 5.1750	 3.2980
 5.1800	 3.2960
 5.1850	 3.3030
 5.1910	 3.2890
 5.1960	 3.2870
 5.2010	 3.2620
 5.2060	 3.2560
 5.2110	 3.2600
 5.2170	 3.2390
 5.2220	 3.2390
 5.2270	 3.2600
 5.2320	 3.2340
 5.2380	 3.2320
 5.2430	 3.2620
 5.2480	 3.2320
 5.2540	 3.2140
 5.2590	 3.2500
 5.2640	 3.1890
 5.2700	 3.1900
 5.2750	 3.1780
 5.2800	 3.1630
 5.2860	 3.1730
 5.2910	 3.2250
 5.2970	 3.2370
 5.3020	 3.2390
 5.3070	 3.2460
 5.3130	 3.2670
 5.3180	 3.2450
 5.3240	 3.2260
 5.3290	 3.1670
 5.3350	 3.1830
 5.3400	 3.1920
 5.3460	 3.1930
 5.3510	 3.1450
 5.3570	 3.1790
 5.3620	 3.2220
 5.3680	 3.2320
 5.3730	 3.1750
 5.3790	 3.1450
 5.3850	 3.1350
 5.3900	 3.1960
 5.3960	 3.2020
 5.4010	 3.2170
 5.4070	 3.1980
 5.4130	 3.1870
 5.4180	 3.1250
 5.4240	 3.0920
 5.4300	 3.1170
 5.4350	 3.1440
 5.4410	 3.1520
 5.4470	 3.1320
 5.4530	 3.0960
 5.4580	 3.1110
 5.4640	 3.0990
 5.4700	 3.1020
 5.4760	 3.0110
 5.4810	 3.0160
 5.4870	 3.0320
 5.4930	 3.0560
 5.4990	 3.0260
 5.5050	 3.0050
 5.5110	 2.9740
 5.5160	 2.9770
 5.5220	 2.9820
 5.5280	 2.9380
 5.5340	 2.8940
 5.5400	 2.9570
 5.5460	 2.9580
 5.5520	 2.9480
 5.5580	 2.9050
 5.5640	 2.8870
 5.5700	 2.7840
 5.5760	 2.7270
 5.5820	 2.7130
 5.5880	 2.7560
 5.5940	 2.7430
 5.6000	 2.7590
 5.6060	 2.6800
 5.6120	 2.6430
 5.6180	 2.6330
 5.6240	 2.6220
 5.6300	 2.5420
 5.6360	 2.5400
 5.6420	 2.5470
 5.6490	 2.5380
 5.6550	 2.4530
 5.6610	 2.4250
 5.6670	 2.4170
 5.6730	 2.4150
 5.6800	 2.3630
 5.6860	 2.3420
 5.6920	 2.3320
 5.6980	 2.3120
 5.7040	 2.2620
 5.7110	 2.2520
 5.7170	 2.2090
 5.7230	 2.1610
 5.7300	 2.1090
 5.7360	 2.1400
 5.7420	 2.1580
 5.7490	 2.1740
 5.7550	 2.1500
 5.7620	 2.1880
 5.7680	 2.1970
 5.7740	 2.2720
 5.7810	 2.3040
 5.7870	 2.3730
 5.7940	 2.3960
 5.8000	 2.4680
 5.8070	 2.4510
 5.8130	 2.4640
 5.8200	 2.4480
 5.8260	 2.4860
 5.8330	 2.4990
 5.8390	 2.5540
 5.8460	 2.5250
 5.8530	 2.5300
 5.8590	 2.5680
 5.8660	 2.6020
 5.8720	 2.5380
 5.8790	 2.5210
 5.8860	 2.4900
 5.8920	 2.4850
 5.8990	 2.4840
 5.9060	 2.5160
 5.9130	 2.5070
 5.9190	 2.5460
 5.9260	 2.5380
 5.9330	 2.5220
 5.9400	 2.4730
 5.9470	 2.5290
 5.9530	 2.5500
 5.9600	 2.5250
 5.9670	 2.4880
 5.9740	 2.5170
 5.9810	 2.4760
 5.9880	 2.4910
 5.9950	 2.4570
 6.0020	 2.4770
 6.0090	 2.4420
 6.0160	 2.4530
 6.0230	 2.4270
 6.0300	 2.4330
 6.0370	 2.4000
 6.0440	 2.3910
 6.0510	 2.3730
 6.0580	 2.3960
 6.0650	 2.3600
 6.0720	 2.4170
 6.0790	 2.4140
 6.0860	 2.4000
 6.0930	 2.3620
 6.1000	 2.3990
 6.1080	 2.3540
 6.1150	 2.3590
 6.1220	 2.3830
 6.1290	 2.4030
 6.1370	 2.3420
 6.1440	 2.3370
 6.1510	 2.3550
 6.1580	 2.3720
 6.1660	 2.3450
 6.1730	 2.3810
 6.1800	 2.3270
 6.1880	 2.3290
 6.1950	 2.3100
 6.2030	 2.3180
 6.2100	 2.2720
 6.2170	 2.2990
 6.2250	 2.3200
 6.2320	 2.3660
 6.2400	 2.3430
 6.2470	 2.3340
 6.2550	 2.2890
 6.2630	 2.3010
 6.2700	 2.3050
 6.2780	 2.4100
 6.2850	 2.4090
 6.2930	 2.3980
 6.3010	 2.3560
 6.3080	 2.3520
 6.3160	 2.3340
 6.3240	 2.3360
 6.3310	 2.3170
 6.3390	 2.3270
 6.3470	 2.3260
 6.3550	 2.4240
 6.3620	 2.4010
 6.3700	 2.4330
 6.3780	 2.4430
 6.3860	 2.4310
 6.3940	 2.3830
 6.4020	 2.3930
 6.4100	 2.4200
 6.4180	 2.4910
 6.4260	 2.4900
 6.4330	 2.5110
 6.4410	 2.4590
 6.4490	 2.4960
 6.4580	 2.5200
 6.4660	 2.5380
 6.4740	 2.4850
 6.4820	 2.4930
 6.4900	 2.4630
 6.4980	 2.4670
 6.5060	 2.4660
 6.5140	 2.5340
 6.5230	 2.5080
 6.5310	 2.5040
 6.5390	 2.4760
 6.5470	 2.4900
 6.5550	 2.4080
 6.5640	 2.3890
 6.5720	 2.3740
 6.5800	 2.4190
 6.5890	 2.3940
 6.5970	 2.4180
 6.6060	 2.4290
 6.6140	 2.4490
 6.6220	 2.4370
 6.6310	 2.4580
 6.6390	 2.3510
 6.6480	 2.3510
 6.6560	 2.3840
 6.6650	 2.4660
 6.6740	 2.4320
 6.6820	 2.4410
 6.6910	 2.4460
 6.6990	 2.4440
 6.7080	 2.3800
 6.7170	 2.3480
 6.7260	 2.2490
 6.7340	 2.2890
 6.7430	 2.2710
 6.7520	 2.2960
 6.7610	 2.2450
 6.7690	 2.2240
 6.7780	 2.1410
 6.7870	 2.1950
 6.7960	 2.1880
 6.8050	 2.1660
 6.8140	 2.1380
 6.8230	 2.1840
 6.8320	 2.1960
 6.8410	 2.2480
 6.8500	 2.1740
 6.8590	 2.1670
 6.8680	 2.1550
 6.8770	 2.2240
 6.8860	 2.1860
 6.8950	 2.2150
 6.9050	 2.2260
 6.9140	 2.2890
 6.9230	 2.2560
 6.9320	 2.3110
 6.9420	 2.2820
 6.9510	 2.2870
 6.9600	 2.2520
 6.9700	 2.2810
 6.9790	 2.2280
 6.9880	 2.2820
 6.9980	 2.2690
 7.0070	 2.2550
 7.0170	 2.2210
 7.0260	 2.2560
 7.0360	 2.2510
 7.0450	 2.2680
 7.0550	 2.1980
 7.0650	 2.2360
 7.0740	 2.2410
 7.0840	 2.2660
 7.0940	 2.2020
 7.1030	 2.2660
 7.1130	 2.2180
 7.1230	 2.2170
 7.1330	 2.2150
 7.1420	 2.2140
 7.1520	 2.1790
 7.1620	 2.1940
 7.1720	 2.1080
 7.1820	 2.1490
 7.1920	 2.1240
 7.2020	 2.1360
 7.2120	 2.1420
 7.2220	 2.2120
 7.2320	 2.1940
 7.2420	 2.2500
 7.2520	 2.2140
 7.2620	 2.2090
 7.2730	 2.1970
 7.2830	 2.2220
 7.2930	 2.1610
 7.3030	 2.2500
 7.3140	 2.2300
 7.3240	 2.2380
 7.3340	 2.1850
 7.3450	 2.1960
 7.3550	 2.1800
 7.3660	 2.2250
 7.3760	 2.2440
 7.3870	 2.3080
 7.3970	 2.2550
 7.4080	 2.2710
 7.4180	 2.2770
 7.4290	 2.3640
 7.4400	 2.2680
 7.4500	 2.2430
 7.4610	 2.2160
 7.4720	 2.2760
 7.4830	 2.2690
 7.4930	 2.2830
 7.5040	 2.2080
 7.5150	 2.2850
 7.5260	 2.3040
 7.5370	 2.3140
 7.5480	 2.2910
 7.5590	 2.3320
 7.5700	 2.2120
 7.5810	 2.1960
 7.5920	 2.1680
 7.6030	 2.1990
 7.6140	 2.1270
 7.6260	 2.1120
 7.6370	 2.0390
 7.6480	 2.1150
 7.6590	 2.1040
 7.6710	 2.1480
 7.6820	 2.1230
 7.6930	 2.1610
 7.7050	 2.1690
 7.7160	 2.2160
 7.7280	 2.1470
 7.7390	 2.1390
 7.7510	 2.0910
 7.7630	 2.0940
 7.7740	 2.0630
 7.7860	 2.0960
 7.7980	 2.0460
 7.8090	 2.0750
 7.8210	 2.0870
 7.8330	 2.1620
 7.8450	 2.0670
 7.8570	 2.1000
 7.8690	 2.0470
 7.8810	 2.0350
 7.8930	 1.9970
 7.9050	 1.9880
 7.9170	 1.8870
 7.9290	 1.9310
 7.9410	 1.9270
 7.9530	 1.9630
 7.9650	 1.9410
 7.9780	 1.9870
 7.9900	 1.9180
 8.0020	 1.9250
 8.0150	 1.8620
 8.0270	 1.9030
 8.0390	 1.8590
 8.0520	 1.8610
 8.0640	 1.7970
 8.0770	 1.8050
 8.0900	 1.6940
 8.1020	 1.6870
 8.1150	 1.6530
 8.1280	 1.7220
 8.1400	 1.6660
 8.1530	 1.6800
 8.1660	 1.6390
 8.1790	 1.7230
 8.1920	 1.6980
 8.2050	 1.7290
 8.2180	 1.6870
 8.2310	 1.6860
 8.2440	 1.5750
 8.2570	 1.6190
 8.2700	 1.5970
 8.2830	 1.6810
 8.2970	 1.6410
 8.3100	 1.6550
 8.3230	 1.6300
 8.3370	 1.7110
 8.3500	 1.7120
 8.3640	 1.8010
 8.3770	 1.7600
 8.3910	 1.7740
 8.4040	 1.7280
 8.4180	 1.7730
 8.4320	 1.7210
 8.4450	 1.7130
 8.4590	 1.6420
 8.4730	 1.7050
 8.4870	 1.7050
 8.5010	 1.7700
 8.5150	 1.7620
 8.5290	 1.8170
 8.5430	 1.7610
 8.5570	 1.7650
 8.5710	 1.7770
 8.5850	 1.9040
 8.5990	 1.9120
 8.6140	 1.9430
 8.6280	 1.8850
 8.6420	 1.9370
 8.6570	 1.8840
 8.6710	 1.8960
 8.6860	 1.8660
 8.7000	 1.9360
 8.7150	 1.8820
 8.7300	 1.8980
 8.7440	 1.8410
 8.7590	 1.8780
 8.7740	 1.8440
 8.7890	 1.9070
 8.8040	 1.8460
 8.8190	 1.8350
 8.8340	 1.8240
 8.8490	 1.8530
 8.8640	 1.8150
 8.8790	 1.8710
 8.8940	 1.8120
 8.9100	 1.8310
 8.9250	 1.8010
 8.9400	 1.8540
 8.9560	 1.7770
 8.9710	 1.8220
 8.9870	 1.7900
 9.0020	 1.8360
 9.0180	 1.7680
 9.0340	 1.7400
 9.0500	 1.6970
 9.0650	 1.7890
 9.0810	 1.7340
 9.0970	 1.7740
 9.1130	 1.6890
 9.1290	 1.7540
 9.1450	 1.7270
 9.1610	 1.7580
 9.1780	 1.7410
 9.1940	 1.7700
 9.2100	 1.7090
 9.2270	 1.7910
 9.2430	 1.7820
 9.2600	 1.8330
 9.2760	 1.7220
 9.2930	 1.7250
 9.3090	 1.6820
 9.3260	 1.7420
 9.3430	 1.7090
 9.3600	 1.7830
 9.3770	 1.7150
 9.3940	 1.7680
 9.4110	 1.7180
 9.4280	 1.7700
 9.4450	 1.6960
 9.4620	 1.7230
 9.4800	 1.6900
 9.4970	 1.7730
 9.5140	 1.6790
 9.5320	 1.6950
 9.5500	 1.6470
 9.5670	 1.7520
 9.5850	 1.7360
 9.6030	 1.7840
 9.6200	 1.7470
 9.6380	 1.8130
 9.6560	 1.7310
 9.6740	 1.8210
 9.6920	 1.8290
 9.7100	 1.8880
 9.7290	 1.8460
 9.7470	 1.8730
 9.7650	 1.7530
 9.7840	 1.8110
 9.8020	 1.8090
 9.8210	 1.8560
 9.8390	 1.8190
 9.8580	 1.8660
 9.8770	 1.8380
 9.8960	 1.9170
 9.9150	 1.8390
 9.9340	 1.8890
 9.9530	 1.8560
 9.9720	 1.9100
 9.9910	 1.8310
10.0100	 1.8960
10.0300	 1.8420
10.0490	 1.8640
10.0690	 1.7820
10.0880	 1.8960
10.1080	 1.9160
10.1280	 1.9600
10.1480	 1.8860
10.1670	 1.9370
10.1870	 1.8480
10.2070	 1.9130
10.2280	 1.8860
10.2480	 1.9390
10.2680	 1.8700
10.2890	 1.9370
10.3090	 1.8680
10.3300	 1.8880
10.3500	 1.8640
10.3710	 1.9440
10.3920	 1.9030
10.4120	 1.8700
10.4330	 1.7250
10.4540	 1.8360
10.4760	 1.8050
10.4970	 1.8230
10.5180	 1.7580
10.5390	 1.8380
10.5610	 1.7790
10.5820	 1.8310
10.6040	 1.7490
10.6260	 1.7990
10.6480	 1.7370
10.6700	 1.7610
10.6920	 1.7710
10.7140	 1.8830
10.7360	 1.8020
10.7580	 1.8290
10.7800	 1.7160
10.8030	 1.7210
10.8250	 1.6900
10.8480	 1.7850
10.8710	 1.7170
10.8940	 1.7680
10.9170	 1.7160
10.9400	 1.7710
10.9630	 1.6700
10.9860	 1.7580
11.0090	 1.7760
11.0330	 1.8290
11.0560	 1.7460
11.0800	 1.7700
11.1040	 1.6590
11.1270	 1.7280
11.1510	 1.6520
11.1750	 1.6950
11.2000	 1.6760
11.2240	 1.7740
11.2480	 1.6610
11.2730	 1.6970
11.2970	 1.6590
11.3220	 1.7240
11.3470	 1.6690
11.3720	 1.7120
11.3970	 1.6200
11.4220	 1.6440
11.4470	 1.5830
11.4720	 1.6460
11.4980	 1.5080
11.5230	 1.5660
11.5490	 1.4860
11.5750	 1.6010
11.6000	 1.6060
11.6260	 1.6540
11.6530	 1.5330
11.6790	 1.5930
11.7050	 1.5450
11.7320	 1.5840
11.7580	 1.4840
11.7850	 1.5270
11.8120	 1.4530
11.8390	 1.5570
11.8660	 1.4660
11.8930	 1.4900
11.9200	 1.3960
11.9480	 1.4610
11.9760	 1.4100
12.0030	 1.4760
12.0310	 1.3710
12.0590	 1.4640
12.0870	 1.4030
12.1150	 1.4310
12.1440	 1.2990
12.1720	 1.4000
12.2010	 1.3700
12.2300	 1.4300
12.2590	 1.3280
12.2880	 1.3650
12.3170	 1.2800
12.3460	 1.3430
12.3760	 1.2960
12.4050	 1.3910
12.4350	 1.2930
12.4650	 1.3350
12.4950	 1.2570
12.5250	 1.3230
12.5550	 1.2460
12.5860	 1.3370
12.6170	 1.2560
12.6470	 1.3140
12.6780	 1.2470
12.7090	 1.3380
12.7410	 1.2680
12.7720	 1.3180
12.8030	 1.2090
12.8350	 1.2640
12.8670	 1.1580
12.8990	 1.2750
12.9310	 1.2220
12.9640	 1.2710
12.9960	 1.1660
13.0290	 1.2520
13.0610	 1.1950
13.0940	 1.2420
13.1280	 1.1320
13.1610	 1.2420
13.1940	 1.1960
13.2280	 1.3290
13.2620	 1.1220
13.2960	 1.1310
13.3300	 1.1080
13.3640	 1.1640
13.3990	 1.0570
13.4340	 1.1010
13.4690	 1.0480
13.5040	 1.1060
13.5390	 1.0150
13.5740	 1.0880
13.6100	 0.9530
13.6460	 0.9970
13.6820	 0.9070
13.7180	 1.0410
13.7540	 1.0420
13.7910	 1.0720
13.8280	 0.9510
13.8650	 1.0650
13.9020	 0.9420
13.9390	 0.9350
13.9770	 0.8990
14.0150	 1.0220
14.0530	 0.9060
14.0910	 0.9720
14.1290	 0.8760
14.1680	 0.9430
14.2070	 0.8190
14.2460	 0.8770
14.2850	 0.8260
14.3240	 0.9080
14.3640	 0.8120
14.4040	 0.8800
14.4440	 0.7300
14.4840	 0.7630
14.5250	 0.6930
14.5660	 0.8000
14.6070	 0.6340
14.6480	 0.7030
14.6900	 0.6810
14.7310	 0.7690
14.7730	 0.6690
14.8150	 0.7480
14.8580	 0.6270
14.9010	 0.6460
14.9440	 0.3850
14.9870	 0.4540
15.0300	 0.5140
15.0740	 0.6970
15.1180	 0.5980
15.1620	 0.6340
15.2060	 0.5170
15.2510	 0.5830
15.2960	 0.4750
15.3410	 0.5570
15.3870	 0.4640
