Name: Abies concolor 3
Type: vegetation
Class: Tree
Genus: Abies
Species: concolor
Sample No.: VH265
Owner: UCSB
Wavelength Range: TIR
Origin: 37.0439; -119.3058; WGS84
Collection Date: 11/2/2013
Description: Samples were collected as part of the HyspIRI Airborne Campaign. 48 individual plants were sampled in three times in 2013 - spring  summer  and fall. The name of the sample includes a 1  2  or 3 which references a different individual of the species. Samples were taken to JPL and processed within 48 hours of collection. The same leaves were processed in the Nicolet and then measured using the ASD.
Measurement: Hemispherical reflectance
First Column: X
Second Column: Y
X Units: Wavelength (micrometers)
Y Units: Reflectance (percentage)
First X Value: 2.501
Last X Value: 15.387
Number of X Values: 1737
Additional Information: vegetation.tree.abies.concolor.tir.vh265.ucsb.nicolet.ancillary.txt

 2.5010	 7.2930
 2.5030	 7.1590
 2.5040	 7.0940
 2.5050	 6.9850
 2.5060	 6.8530
 2.5070	 6.7510
 2.5090	 6.8610
 2.5100	 7.0010
 2.5110	 7.0670
 2.5120	 6.9860
 2.5140	 6.9530
 2.5150	 6.9720
 2.5160	 7.0170
 2.5170	 6.9350
 2.5180	 6.9740
 2.5200	 6.9530
 2.5210	 6.9800
 2.5220	 6.9760
 2.5230	 6.9710
 2.5250	 6.7610
 2.5260	 6.6630
 2.5270	 6.7150
 2.5280	 6.8880
 2.5290	 6.9570
 2.5310	 7.1440
 2.5320	 7.1000
 2.5330	 7.0760
 2.5340	 6.8930
 2.5360	 6.7760
 2.5370	 6.7400
 2.5380	 6.7620
 2.5390	 6.9210
 2.5410	 7.0650
 2.5420	 7.0050
 2.5430	 6.9940
 2.5440	 6.9490
 2.5460	 6.9030
 2.5470	 6.8570
 2.5480	 6.9160
 2.5490	 6.8990
 2.5510	 6.9490
 2.5520	 6.9060
 2.5530	 6.9590
 2.5540	 7.1370
 2.5560	 7.1280
 2.5570	 6.8370
 2.5580	 6.7350
 2.5590	 6.7760
 2.5610	 6.9350
 2.5620	 7.0730
 2.5630	 7.0120
 2.5640	 7.0140
 2.5660	 7.0820
 2.5670	 6.9340
 2.5680	 6.7960
 2.5700	 6.7780
 2.5710	 6.9300
 2.5720	 6.9420
 2.5730	 7.0280
 2.5750	 7.1130
 2.5760	 7.0920
 2.5770	 6.9690
 2.5790	 6.8550
 2.5800	 6.7190
 2.5810	 6.8240
 2.5820	 6.8870
 2.5840	 6.8650
 2.5850	 6.8650
 2.5860	 7.0190
 2.5880	 6.8080
 2.5890	 6.8020
 2.5900	 6.7910
 2.5910	 6.7530
 2.5930	 6.6520
 2.5940	 6.5860
 2.5950	 6.7270
 2.5970	 6.9690
 2.5980	 7.0690
 2.5990	 7.0660
 2.6000	 6.9240
 2.6020	 6.9230
 2.6030	 6.8960
 2.6040	 6.9570
 2.6060	 6.8490
 2.6070	 6.8500
 2.6080	 6.8590
 2.6100	 6.9280
 2.6110	 6.9230
 2.6120	 6.9730
 2.6140	 6.8780
 2.6150	 6.8080
 2.6160	 6.6560
 2.6180	 6.6670
 2.6190	 6.7360
 2.6200	 6.6380
 2.6220	 6.6080
 2.6230	 6.6780
 2.6240	 6.7010
 2.6260	 6.9120
 2.6270	 6.8120
 2.6280	 6.7150
 2.6300	 6.5880
 2.6310	 6.6840
 2.6320	 6.7670
 2.6340	 6.7680
 2.6350	 6.6280
 2.6360	 6.6100
 2.6380	 6.5450
 2.6390	 6.6360
 2.6400	 6.6010
 2.6420	 6.6690
 2.6430	 6.6910
 2.6440	 6.6840
 2.6460	 6.6600
 2.6470	 6.7400
 2.6480	 6.5270
 2.6500	 6.3420
 2.6510	 6.3160
 2.6520	 6.3700
 2.6540	 6.3710
 2.6550	 6.4990
 2.6560	 6.3410
 2.6580	 6.4200
 2.6590	 6.4200
 2.6610	 6.4160
 2.6620	 6.3110
 2.6630	 6.1550
 2.6650	 6.0030
 2.6660	 5.9910
 2.6670	 5.9650
 2.6690	 6.1180
 2.6700	 6.1100
 2.6720	 6.1370
 2.6730	 6.1830
 2.6740	 6.1870
 2.6760	 5.9980
 2.6770	 6.0630
 2.6780	 6.1250
 2.6800	 6.1230
 2.6810	 5.9340
 2.6830	 5.9570
 2.6840	 6.0850
 2.6850	 6.1780
 2.6870	 6.0170
 2.6880	 5.9580
 2.6900	 5.8660
 2.6910	 5.7450
 2.6920	 5.7240
 2.6940	 5.8420
 2.6950	 5.8290
 2.6970	 5.7860
 2.6980	 5.8270
 2.6990	 6.1230
 2.7010	 6.2320
 2.7020	 6.1160
 2.7040	 5.9130
 2.7050	 5.9960
 2.7060	 5.9440
 2.7080	 5.8380
 2.7090	 5.7190
 2.7110	 5.6640
 2.7120	 5.6880
 2.7130	 5.8790
 2.7150	 5.8620
 2.7160	 5.8750
 2.7180	 5.8470
 2.7190	 5.8790
 2.7210	 5.6380
 2.7220	 5.6410
 2.7230	 5.6440
 2.7250	 5.5910
 2.7260	 5.6090
 2.7280	 5.7830
 2.7290	 5.8080
 2.7310	 5.7800
 2.7320	 5.6970
 2.7330	 5.8300
 2.7350	 5.6680
 2.7360	 5.6200
 2.7380	 5.4700
 2.7390	 5.4470
 2.7410	 5.5720
 2.7420	 5.6900
 2.7440	 5.9540
 2.7450	 6.0640
 2.7470	 5.6990
 2.7480	 5.5790
 2.7490	 5.8680
 2.7510	 6.0860
 2.7520	 5.8100
 2.7540	 5.3580
 2.7550	 5.4290
 2.7570	 5.8440
 2.7580	 5.8020
 2.7600	 5.8780
 2.7610	 5.8860
 2.7630	 5.7420
 2.7640	 5.4700
 2.7660	 5.4850
 2.7670	 5.6920
 2.7680	 5.8520
 2.7700	 5.6350
 2.7710	 5.6880
 2.7730	 5.8100
 2.7740	 5.8010
 2.7760	 5.7600
 2.7770	 5.6280
 2.7790	 5.5330
 2.7800	 5.5730
 2.7820	 5.4940
 2.7830	 5.6050
 2.7850	 5.5620
 2.7860	 5.6060
 2.7880	 5.5160
 2.7890	 5.5600
 2.7910	 5.5910
 2.7920	 5.6920
 2.7940	 5.5600
 2.7950	 5.6490
 2.7970	 5.7320
 2.7980	 5.7410
 2.8000	 5.7100
 2.8010	 5.7710
 2.8030	 5.5390
 2.8040	 5.4330
 2.8060	 5.3800
 2.8070	 5.5770
 2.8090	 5.7680
 2.8110	 5.8660
 2.8120	 5.7070
 2.8140	 5.6470
 2.8150	 5.6360
 2.8170	 5.8200
 2.8180	 5.8830
 2.8200	 5.8960
 2.8210	 5.8960
 2.8230	 5.8410
 2.8240	 5.6560
 2.8260	 5.7190
 2.8270	 5.6820
 2.8290	 5.8170
 2.8300	 5.7840
 2.8320	 5.7270
 2.8340	 5.6540
 2.8350	 5.6220
 2.8370	 5.6690
 2.8380	 5.8080
 2.8400	 5.7290
 2.8410	 5.6980
 2.8430	 5.6420
 2.8440	 5.6120
 2.8460	 5.5020
 2.8480	 5.6000
 2.8490	 5.6820
 2.8510	 5.5410
 2.8520	 5.3690
 2.8540	 5.4240
 2.8550	 5.5120
 2.8570	 5.6930
 2.8590	 5.6580
 2.8600	 5.6150
 2.8620	 5.6930
 2.8630	 5.6500
 2.8650	 5.4560
 2.8660	 5.5210
 2.8680	 5.6520
 2.8700	 5.8050
 2.8710	 5.7910
 2.8730	 5.6460
 2.8740	 5.6510
 2.8760	 5.8050
 2.8780	 5.6960
 2.8790	 5.6200
 2.8810	 5.5440
 2.8820	 5.4190
 2.8840	 5.2400
 2.8860	 5.4320
 2.8870	 5.5170
 2.8890	 5.4960
 2.8900	 5.6970
 2.8920	 5.8720
 2.8940	 5.5590
 2.8950	 5.5060
 2.8970	 5.4840
 2.8980	 5.3990
 2.9000	 5.4370
 2.9020	 5.6350
 2.9030	 5.8930
 2.9050	 6.1630
 2.9070	 5.9690
 2.9080	 5.7440
 2.9100	 5.5170
 2.9120	 5.5150
 2.9130	 5.4190
 2.9150	 5.5490
 2.9160	 5.5730
 2.9180	 5.6980
 2.9200	 5.6710
 2.9210	 5.6270
 2.9230	 5.5190
 2.9250	 5.7370
 2.9260	 5.8810
 2.9280	 5.8000
 2.9300	 5.6040
 2.9310	 5.7020
 2.9330	 5.8690
 2.9350	 5.8660
 2.9360	 5.4590
 2.9380	 5.4890
 2.9400	 5.8910
 2.9410	 6.3710
 2.9430	 6.0720
 2.9450	 5.9720
 2.9460	 5.5790
 2.9480	 5.3520
 2.9500	 5.3380
 2.9510	 5.0630
 2.9530	 4.9480
 2.9550	 5.2740
 2.9560	 5.1770
 2.9580	 5.2620
 2.9600	 4.7530
 2.9610	 4.9980
 2.9630	 5.5270
 2.9650	 5.9000
 2.9660	 5.5610
 2.9680	 5.6230
 2.9700	 6.2500
 2.9720	 6.8850
 2.9730	 6.0830
 2.9750	 4.7200
 2.9770	 4.8080
 2.9780	 5.7270
 2.9800	 5.7790
 2.9820	 5.8970
 2.9840	 5.6220
 2.9850	 5.3500
 2.9870	 5.5050
 2.9890	 5.6650
 2.9900	 6.5900
 2.9920	 6.8260
 2.9940	 6.1860
 2.9960	 6.9480
 2.9970	 6.2590
 2.9990	 6.5730
 3.0010	 6.4280
 3.0030	 5.9300
 3.0040	 5.9020
 3.0060	 5.6620
 3.0080	 5.6140
 3.0100	 6.2740
 3.0110	 6.5860
 3.0130	 6.3770
 3.0150	 5.8800
 3.0170	 5.0080
 3.0180	 5.4170
 3.0200	 5.9020
 3.0220	 5.5380
 3.0240	 5.3240
 3.0250	 5.6390
 3.0270	 5.9130
 3.0290	 6.0180
 3.0310	 5.8560
 3.0320	 5.9090
 3.0340	 5.9850
 3.0360	 5.6610
 3.0380	 5.2900
 3.0400	 5.5690
 3.0410	 5.8440
 3.0430	 5.7630
 3.0450	 5.1870
 3.0470	 5.3010
 3.0480	 6.7470
 3.0500	 5.3710
 3.0520	 4.2690
 3.0540	 6.9290
 3.0560	 7.5790
 3.0570	 5.3450
 3.0590	 4.3000
 3.0610	 4.8360
 3.0630	 5.5390
 3.0650	 5.6100
 3.0660	 6.1310
 3.0680	 5.8600
 3.0700	 4.9920
 3.0720	 4.8940
 3.0740	 5.0080
 3.0760	 5.2500
 3.0770	 5.5670
 3.0790	 5.4330
 3.0810	 5.5300
 3.0830	 5.6630
 3.0850	 5.7630
 3.0870	 5.7690
 3.0880	 5.8330
 3.0900	 5.7550
 3.0920	 5.6100
 3.0940	 5.6350
 3.0960	 5.7620
 3.0980	 5.5870
 3.0990	 5.5650
 3.1010	 5.5030
 3.1030	 5.5450
 3.1050	 5.5330
 3.1070	 5.3150
 3.1090	 5.3930
 3.1110	 5.3400
 3.1120	 5.3260
 3.1140	 5.5410
 3.1160	 5.8340
 3.1180	 5.6800
 3.1200	 5.4640
 3.1220	 5.6110
 3.1240	 5.6990
 3.1260	 5.7390
 3.1270	 5.8970
 3.1290	 5.5830
 3.1310	 5.3860
 3.1330	 5.4840
 3.1350	 5.4340
 3.1370	 6.0080
 3.1390	 5.2950
 3.1410	 4.6860
 3.1430	 5.9690
 3.1450	 5.0880
 3.1460	 4.1010
 3.1480	 5.7470
 3.1500	 6.9210
 3.1520	 6.6010
 3.1540	 5.5720
 3.1560	 5.3060
 3.1580	 5.2430
 3.1600	 6.1860
 3.1620	 6.6930
 3.1640	 5.9890
 3.1660	 5.3270
 3.1680	 5.5930
 3.1700	 5.8830
 3.1710	 5.4430
 3.1730	 5.2920
 3.1750	 5.3850
 3.1770	 5.0650
 3.1790	 4.8700
 3.1810	 3.7500
 3.1830	 4.6550
 3.1850	 6.2110
 3.1870	 6.3970
 3.1890	 5.6900
 3.1910	 5.5020
 3.1930	 5.7090
 3.1950	 5.8020
 3.1970	 5.5220
 3.1990	 5.6310
 3.2010	 5.8520
 3.2030	 5.6870
 3.2050	 5.4640
 3.2070	 5.3450
 3.2090	 5.4380
 3.2110	 5.6510
 3.2130	 5.6400
 3.2150	 5.5650
 3.2170	 5.5520
 3.2190	 5.6920
 3.2210	 5.6930
 3.2230	 5.6930
 3.2250	 5.4900
 3.2270	 5.4820
 3.2290	 5.6440
 3.2310	 5.7340
 3.2330	 5.5520
 3.2350	 5.8350
 3.2370	 5.8860
 3.2390	 5.7160
 3.2410	 5.6420
 3.2430	 5.7240
 3.2450	 5.9240
 3.2470	 5.8530
 3.2490	 5.6270
 3.2510	 5.5570
 3.2530	 5.5880
 3.2550	 5.6160
 3.2570	 5.5260
 3.2590	 5.4160
 3.2610	 5.3730
 3.2630	 5.5590
 3.2650	 5.5550
 3.2670	 5.4520
 3.2690	 5.4180
 3.2720	 5.4780
 3.2740	 5.3610
 3.2760	 5.3770
 3.2780	 5.3760
 3.2800	 5.4100
 3.2820	 5.4710
 3.2840	 5.5860
 3.2860	 5.6280
 3.2880	 5.5930
 3.2900	 5.5280
 3.2920	 5.5180
 3.2940	 5.5050
 3.2960	 5.4170
 3.2990	 5.4480
 3.3010	 5.6300
 3.3030	 5.6460
 3.3050	 5.3790
 3.3070	 5.3260
 3.3090	 5.1620
 3.3110	 4.9670
 3.3130	 5.0840
 3.3150	 5.2350
 3.3180	 5.2780
 3.3200	 5.2200
 3.3220	 5.0560
 3.3240	 5.0090
 3.3260	 5.2480
 3.3280	 5.3300
 3.3300	 5.3690
 3.3330	 5.2670
 3.3350	 5.0780
 3.3370	 5.1510
 3.3390	 5.2990
 3.3410	 5.3000
 3.3430	 5.4910
 3.3450	 5.3440
 3.3480	 5.2130
 3.3500	 5.1880
 3.3520	 5.2000
 3.3540	 5.2430
 3.3560	 5.3230
 3.3580	 5.1450
 3.3610	 5.0970
 3.3630	 4.9980
 3.3650	 5.0430
 3.3670	 5.1700
 3.3690	 5.2790
 3.3720	 5.1160
 3.3740	 5.0260
 3.3760	 5.0830
 3.3780	 5.1880
 3.3800	 5.1670
 3.3830	 5.2140
 3.3850	 5.1980
 3.3870	 5.2880
 3.3890	 5.2010
 3.3910	 5.0890
 3.3940	 5.0490
 3.3960	 4.9750
 3.3980	 4.8180
 3.4000	 4.8560
 3.4020	 4.9620
 3.4050	 4.9730
 3.4070	 4.9600
 3.4090	 5.2100
 3.4110	 5.3440
 3.4140	 5.4960
 3.4160	 5.6140
 3.4180	 5.7470
 3.4200	 5.9200
 3.4230	 6.3520
 3.4250	 6.8880
 3.4270	 7.4580
 3.4290	 7.6320
 3.4320	 7.4770
 3.4340	 7.2970
 3.4360	 7.0790
 3.4390	 6.8750
 3.4410	 6.6680
 3.4430	 6.4030
 3.4450	 6.5340
 3.4480	 6.6230
 3.4500	 6.5110
 3.4520	 6.3050
 3.4550	 6.2990
 3.4570	 6.2030
 3.4590	 6.1700
 3.4620	 6.1280
 3.4640	 6.2840
 3.4660	 6.3180
 3.4680	 6.1840
 3.4710	 6.0960
 3.4730	 6.0790
 3.4750	 5.9510
 3.4780	 5.9200
 3.4800	 5.8710
 3.4820	 5.8030
 3.4850	 5.6410
 3.4870	 5.6900
 3.4890	 5.6320
 3.4920	 5.5680
 3.4940	 5.6040
 3.4970	 5.5660
 3.4990	 5.5190
 3.5010	 5.5940
 3.5040	 5.8020
 3.5060	 6.3830
 3.5080	 7.0510
 3.5110	 7.4750
 3.5130	 7.4010
 3.5160	 7.1600
 3.5180	 6.8650
 3.5200	 6.8240
 3.5230	 6.6520
 3.5250	 6.5480
 3.5270	 6.4810
 3.5300	 6.3410
 3.5320	 6.2110
 3.5350	 6.2550
 3.5370	 6.3460
 3.5400	 6.3570
 3.5420	 6.2590
 3.5440	 6.2850
 3.5470	 6.1930
 3.5490	 6.1490
 3.5520	 6.0880
 3.5540	 6.1380
 3.5570	 6.0870
 3.5590	 6.0120
 3.5610	 6.0210
 3.5640	 6.0120
 3.5660	 6.0630
 3.5690	 6.1590
 3.5710	 6.0770
 3.5740	 5.9790
 3.5760	 5.9090
 3.5790	 5.9510
 3.5810	 6.0130
 3.5840	 6.0790
 3.5860	 6.1230
 3.5890	 6.1120
 3.5910	 6.0340
 3.5930	 5.8610
 3.5960	 5.8700
 3.5980	 5.9600
 3.6010	 5.8640
 3.6030	 5.8850
 3.6060	 5.7410
 3.6080	 5.7650
 3.6110	 5.8620
 3.6140	 5.9330
 3.6160	 5.8860
 3.6190	 5.8140
 3.6210	 5.8600
 3.6240	 5.9360
 3.6260	 5.8870
 3.6290	 5.9010
 3.6310	 5.9630
 3.6340	 6.0550
 3.6360	 6.0270
 3.6390	 6.0510
 3.6410	 5.9550
 3.6440	 5.8080
 3.6470	 5.7380
 3.6490	 5.8150
 3.6520	 5.9300
 3.6540	 5.9350
 3.6570	 5.8630
 3.6590	 5.9970
 3.6620	 5.9210
 3.6650	 5.7750
 3.6670	 5.9130
 3.6700	 6.1070
 3.6720	 5.9290
 3.6750	 5.8720
 3.6780	 5.8280
 3.6800	 5.7250
 3.6830	 5.7310
 3.6850	 5.7540
 3.6880	 5.7620
 3.6910	 5.8410
 3.6930	 5.8540
 3.6960	 5.8830
 3.6990	 5.8280
 3.7010	 5.8260
 3.7040	 5.8680
 3.7060	 5.9760
 3.7090	 5.9190
 3.7120	 5.8220
 3.7140	 5.8970
 3.7170	 6.0030
 3.7200	 5.9230
 3.7220	 5.9300
 3.7250	 5.8920
 3.7280	 5.8250
 3.7300	 5.7830
 3.7330	 5.9020
 3.7360	 5.9680
 3.7390	 6.0370
 3.7410	 5.9640
 3.7440	 5.7880
 3.7470	 5.7500
 3.7490	 5.7700
 3.7520	 5.7960
 3.7550	 5.9940
 3.7580	 5.9110
 3.7600	 5.7150
 3.7630	 5.7970
 3.7660	 5.9610
 3.7680	 5.9460
 3.7710	 5.9450
 3.7740	 5.9090
 3.7770	 5.9390
 3.7790	 5.9420
 3.7820	 5.9360
 3.7850	 5.9520
 3.7880	 5.9920
 3.7900	 5.9730
 3.7930	 5.9510
 3.7960	 5.8570
 3.7990	 5.8840
 3.8020	 5.8620
 3.8040	 5.8130
 3.8070	 5.8140
 3.8100	 5.9290
 3.8130	 5.9450
 3.8160	 5.9200
 3.8180	 5.7990
 3.8210	 5.8380
 3.8240	 5.8640
 3.8270	 5.9610
 3.8300	 5.9420
 3.8330	 5.9390
 3.8350	 6.0070
 3.8380	 5.9880
 3.8410	 5.9020
 3.8440	 6.0390
 3.8470	 5.9900
 3.8500	 5.8340
 3.8520	 5.8540
 3.8550	 5.9420
 3.8580	 5.8990
 3.8610	 5.9040
 3.8640	 5.9490
 3.8670	 6.0560
 3.8700	 6.0220
 3.8730	 5.9000
 3.8750	 5.9040
 3.8780	 5.9520
 3.8810	 5.9620
 3.8840	 5.9660
 3.8870	 5.8760
 3.8900	 5.9630
 3.8930	 6.0050
 3.8960	 5.9950
 3.8990	 5.9370
 3.9020	 5.9150
 3.9050	 5.8860
 3.9080	 5.9240
 3.9110	 6.0390
 3.9140	 6.0920
 3.9160	 6.1240
 3.9190	 6.0620
 3.9220	 5.9330
 3.9250	 5.8810
 3.9280	 5.8980
 3.9310	 5.9720
 3.9340	 5.9880
 3.9370	 6.0130
 3.9400	 5.9330
 3.9430	 5.8930
 3.9460	 5.9090
 3.9490	 5.9630
 3.9520	 5.9750
 3.9550	 6.0380
 3.9580	 5.9670
 3.9610	 5.9340
 3.9640	 5.9820
 3.9670	 6.0770
 3.9700	 6.0640
 3.9730	 5.9720
 3.9770	 5.9290
 3.9800	 5.9860
 3.9830	 6.0470
 3.9860	 6.1080
 3.9890	 6.0780
 3.9920	 6.0230
 3.9950	 5.9850
 3.9980	 6.0300
 4.0010	 6.0830
 4.0040	 6.1070
 4.0070	 6.0790
 4.0100	 6.0950
 4.0130	 6.0530
 4.0170	 6.0330
 4.0200	 6.0100
 4.0230	 5.9810
 4.0260	 5.9860
 4.0290	 6.0360
 4.0320	 5.9280
 4.0350	 5.8950
 4.0380	 5.9690
 4.0420	 5.9630
 4.0450	 5.8960
 4.0480	 5.8990
 4.0510	 5.9190
 4.0540	 5.8960
 4.0570	 5.8390
 4.0610	 5.9010
 4.0640	 5.9860
 4.0670	 6.0380
 4.0700	 5.9990
 4.0730	 6.0090
 4.0770	 5.9490
 4.0800	 5.9060
 4.0830	 5.9430
 4.0860	 5.9580
 4.0890	 5.9120
 4.0930	 5.9210
 4.0960	 5.8710
 4.0990	 5.9550
 4.1020	 5.9630
 4.1060	 5.9310
 4.1090	 5.9740
 4.1120	 6.0140
 4.1150	 5.9770
 4.1190	 5.9850
 4.1220	 5.9730
 4.1250	 5.9510
 4.1280	 5.9860
 4.1320	 6.0760
 4.1350	 6.0670
 4.1380	 5.9890
 4.1420	 6.0200
 4.1450	 6.0330
 4.1480	 5.9620
 4.1520	 5.9670
 4.1550	 5.9510
 4.1580	 6.0050
 4.1620	 6.0110
 4.1650	 5.9980
 4.1680	 5.9610
 4.1720	 5.9200
 4.1750	 5.9140
 4.1780	 5.8930
 4.1820	 5.8960
 4.1850	 6.0100
 4.1890	 6.0270
 4.1920	 6.0430
 4.1950	 5.9710
 4.1990	 5.8940
 4.2020	 5.8160
 4.2060	 5.7640
 4.2090	 5.7410
 4.2120	 5.7470
 4.2160	 5.7960
 4.2190	 5.8580
 4.2230	 5.7150
 4.2260	 5.6160
 4.2300	 5.3450
 4.2330	 5.1340
 4.2360	 5.0420
 4.2400	 5.1230
 4.2430	 5.3260
 4.2470	 5.6060
 4.2500	 5.7010
 4.2540	 5.6460
 4.2570	 5.4100
 4.2610	 5.2930
 4.2640	 5.4400
 4.2680	 5.6430
 4.2710	 5.6540
 4.2750	 5.7130
 4.2780	 5.8060
 4.2820	 5.7400
 4.2850	 5.6580
 4.2890	 5.7550
 4.2930	 5.8990
 4.2960	 5.9720
 4.3000	 5.6920
 4.3030	 5.7290
 4.3070	 5.8630
 4.3100	 5.7390
 4.3140	 5.6920
 4.3180	 5.7990
 4.3210	 5.6960
 4.3250	 5.7140
 4.3280	 5.8170
 4.3320	 5.7910
 4.3360	 5.7770
 4.3390	 5.7830
 4.3430	 5.7420
 4.3470	 5.7540
 4.3500	 5.7600
 4.3540	 5.8720
 4.3570	 5.8550
 4.3610	 5.7740
 4.3650	 5.7760
 4.3680	 5.7860
 4.3720	 5.8230
 4.3760	 5.8970
 4.3800	 5.9200
 4.3830	 5.9010
 4.3870	 5.9050
 4.3910	 5.8970
 4.3940	 5.8290
 4.3980	 5.8030
 4.4020	 5.8220
 4.4060	 5.8260
 4.4090	 5.8230
 4.4130	 5.8250
 4.4170	 5.8150
 4.4210	 5.7940
 4.4240	 5.8140
 4.4280	 5.9070
 4.4320	 5.8940
 4.4360	 5.8810
 4.4400	 5.9640
 4.4430	 5.9290
 4.4470	 5.8040
 4.4510	 5.8850
 4.4550	 5.9060
 4.4590	 5.9000
 4.4620	 5.9470
 4.4660	 5.8960
 4.4700	 5.8840
 4.4740	 5.9080
 4.4780	 5.8670
 4.4820	 5.8030
 4.4860	 5.7100
 4.4900	 5.7600
 4.4930	 5.8400
 4.4970	 5.9210
 4.5010	 5.9360
 4.5050	 5.8520
 4.5090	 5.8100
 4.5130	 5.8190
 4.5170	 5.8750
 4.5210	 5.8810
 4.5250	 5.8730
 4.5290	 5.8930
 4.5330	 5.9150
 4.5370	 5.8050
 4.5410	 5.7980
 4.5450	 5.8250
 4.5490	 5.7830
 4.5530	 5.7520
 4.5570	 5.7910
 4.5610	 5.8650
 4.5650	 5.7660
 4.5690	 5.6750
 4.5730	 5.7180
 4.5770	 5.7420
 4.5810	 5.7870
 4.5850	 5.7840
 4.5890	 5.8030
 4.5930	 5.7790
 4.5970	 5.8030
 4.6010	 5.8220
 4.6050	 5.8450
 4.6090	 5.8180
 4.6130	 5.8520
 4.6170	 5.9250
 4.6220	 5.9320
 4.6260	 5.7640
 4.6300	 5.7410
 4.6340	 5.8540
 4.6380	 5.8010
 4.6420	 5.7400
 4.6460	 5.7690
 4.6510	 5.7660
 4.6550	 5.7610
 4.6590	 5.7270
 4.6630	 5.7250
 4.6670	 5.7700
 4.6720	 5.7660
 4.6760	 5.6920
 4.6800	 5.6590
 4.6840	 5.7410
 4.6880	 5.7280
 4.6930	 5.6690
 4.6970	 5.6740
 4.7010	 5.7400
 4.7050	 5.7950
 4.7100	 5.7710
 4.7140	 5.7330
 4.7180	 5.7490
 4.7230	 5.7440
 4.7270	 5.7030
 4.7310	 5.7000
 4.7360	 5.7550
 4.7400	 5.7710
 4.7440	 5.7430
 4.7490	 5.7620
 4.7530	 5.7990
 4.7570	 5.8320
 4.7620	 5.8610
 4.7660	 5.7330
 4.7700	 5.7140
 4.7750	 5.7750
 4.7790	 5.7150
 4.7840	 5.6600
 4.7880	 5.8930
 4.7920	 5.8500
 4.7970	 5.7060
 4.8010	 5.7260
 4.8060	 5.6500
 4.8100	 5.6500
 4.8150	 5.7330
 4.8190	 5.8340
 4.8240	 5.8100
 4.8280	 5.7590
 4.8330	 5.7830
 4.8370	 5.7720
 4.8420	 5.6960
 4.8460	 5.7600
 4.8510	 5.7690
 4.8550	 5.7430
 4.8600	 5.7230
 4.8640	 5.7210
 4.8690	 5.7020
 4.8730	 5.7430
 4.8780	 5.7870
 4.8830	 5.7600
 4.8870	 5.7010
 4.8920	 5.6600
 4.8960	 5.7530
 4.9010	 5.8470
 4.9060	 5.8250
 4.9100	 5.8340
 4.9150	 5.7590
 4.9200	 5.7690
 4.9240	 5.8530
 4.9290	 5.7850
 4.9340	 5.7220
 4.9380	 5.7320
 4.9430	 5.8700
 4.9480	 5.8900
 4.9530	 5.8040
 4.9570	 5.7410
 4.9620	 5.7860
 4.9670	 5.8380
 4.9720	 5.7660
 4.9760	 5.6750
 4.9810	 5.7080
 4.9860	 5.8140
 4.9910	 5.8340
 4.9960	 5.8840
 5.0000	 5.9120
 5.0050	 5.8810
 5.0100	 5.8020
 5.0150	 5.7700
 5.0200	 5.8290
 5.0250	 5.9170
 5.0290	 5.8810
 5.0340	 5.8010
 5.0390	 5.7440
 5.0440	 5.7700
 5.0490	 5.7620
 5.0540	 5.7130
 5.0590	 5.7180
 5.0640	 5.8180
 5.0690	 5.9180
 5.0740	 5.8120
 5.0790	 5.7640
 5.0840	 5.8450
 5.0890	 5.8690
 5.0940	 5.8960
 5.0990	 5.8620
 5.1040	 5.7900
 5.1090	 5.8040
 5.1140	 5.8070
 5.1190	 5.7980
 5.1240	 5.8640
 5.1290	 5.8830
 5.1340	 5.9200
 5.1390	 5.9570
 5.1440	 5.9430
 5.1490	 5.8640
 5.1540	 5.6980
 5.1600	 5.6570
 5.1650	 5.7780
 5.1700	 5.8100
 5.1750	 5.8420
 5.1800	 5.7930
 5.1850	 5.8140
 5.1910	 5.8150
 5.1960	 5.7750
 5.2010	 5.8140
 5.2060	 5.8460
 5.2110	 5.7500
 5.2170	 5.8360
 5.2220	 5.9190
 5.2270	 5.9190
 5.2320	 5.8530
 5.2380	 5.8670
 5.2430	 5.9030
 5.2480	 5.8620
 5.2540	 5.8640
 5.2590	 5.8040
 5.2640	 5.7480
 5.2700	 5.7970
 5.2750	 5.7420
 5.2800	 5.6910
 5.2860	 5.7440
 5.2910	 5.8100
 5.2970	 5.7920
 5.3020	 5.7870
 5.3070	 5.7820
 5.3130	 5.8610
 5.3180	 5.9080
 5.3240	 5.9200
 5.3290	 5.8760
 5.3350	 5.8890
 5.3400	 5.8380
 5.3460	 5.7650
 5.3510	 5.7320
 5.3570	 5.7210
 5.3620	 5.7280
 5.3680	 5.8320
 5.3730	 5.8130
 5.3790	 5.8070
 5.3850	 5.7800
 5.3900	 5.7010
 5.3960	 5.7150
 5.4010	 5.7240
 5.4070	 5.7250
 5.4130	 5.8410
 5.4180	 5.8080
 5.4240	 5.7840
 5.4300	 5.8200
 5.4350	 5.8430
 5.4410	 5.8070
 5.4470	 5.6850
 5.4530	 5.5550
 5.4580	 5.6220
 5.4640	 5.6280
 5.4700	 5.6390
 5.4760	 5.7600
 5.4810	 5.8330
 5.4870	 5.7100
 5.4930	 5.7070
 5.4990	 5.6640
 5.5050	 5.6340
 5.5110	 5.6090
 5.5160	 5.6130
 5.5220	 5.6370
 5.5280	 5.6600
 5.5340	 5.6280
 5.5400	 5.6710
 5.5460	 5.6490
 5.5520	 5.6400
 5.5580	 5.6300
 5.5640	 5.6410
 5.5700	 5.6380
 5.5760	 5.6100
 5.5820	 5.5170
 5.5880	 5.5720
 5.5940	 5.5930
 5.6000	 5.6090
 5.6060	 5.5490
 5.6120	 5.5760
 5.6180	 5.4420
 5.6240	 5.3890
 5.6300	 5.3900
 5.6360	 5.3720
 5.6420	 5.2710
 5.6490	 5.2710
 5.6550	 5.2710
 5.6610	 5.3150
 5.6670	 5.2830
 5.6730	 5.2510
 5.6800	 5.2270
 5.6860	 5.2070
 5.6920	 5.0850
 5.6980	 5.0460
 5.7040	 4.9590
 5.7110	 4.9180
 5.7170	 4.8780
 5.7230	 4.7800
 5.7300	 4.6530
 5.7360	 4.7130
 5.7420	 4.8000
 5.7490	 4.9440
 5.7550	 5.2130
 5.7620	 5.3650
 5.7680	 5.4380
 5.7740	 5.6700
 5.7810	 5.8580
 5.7870	 5.9380
 5.7940	 5.8420
 5.8000	 5.8640
 5.8070	 5.9120
 5.8130	 5.8560
 5.8200	 5.6910
 5.8260	 5.7020
 5.8330	 5.7880
 5.8390	 5.8920
 5.8460	 5.9160
 5.8530	 5.8390
 5.8590	 5.7370
 5.8660	 5.8440
 5.8720	 5.8460
 5.8790	 5.7220
 5.8860	 5.7490
 5.8920	 5.9060
 5.8990	 5.8720
 5.9060	 5.8920
 5.9130	 5.9120
 5.9190	 5.9680
 5.9260	 6.0120
 5.9330	 5.8780
 5.9400	 5.8050
 5.9470	 6.1230
 5.9530	 6.2170
 5.9600	 6.2150
 5.9670	 6.0410
 5.9740	 6.0680
 5.9810	 6.0590
 5.9880	 6.0580
 5.9950	 6.0420
 6.0020	 6.0790
 6.0090	 6.1450
 6.0160	 6.2120
 6.0230	 6.1500
 6.0300	 6.2230
 6.0370	 6.1630
 6.0440	 5.9990
 6.0510	 5.8790
 6.0580	 6.0710
 6.0650	 6.0410
 6.0720	 6.0340
 6.0790	 6.1700
 6.0860	 6.3180
 6.0930	 6.2370
 6.1000	 6.2100
 6.1080	 6.1770
 6.1150	 6.1760
 6.1220	 6.2170
 6.1290	 6.3490
 6.1370	 6.3700
 6.1440	 6.4560
 6.1510	 6.4990
 6.1580	 6.5740
 6.1660	 6.5430
 6.1730	 6.5620
 6.1800	 6.4900
 6.1880	 6.4990
 6.1950	 6.5880
 6.2030	 6.5490
 6.2100	 6.3780
 6.2170	 6.3360
 6.2250	 6.3280
 6.2320	 6.5370
 6.2400	 6.6370
 6.2470	 6.5920
 6.2550	 6.3390
 6.2630	 6.4080
 6.2700	 6.3740
 6.2780	 6.3240
 6.2850	 6.3080
 6.2930	 6.3300
 6.3010	 6.2100
 6.3080	 6.1800
 6.3160	 6.2900
 6.3240	 6.3220
 6.3310	 6.1540
 6.3390	 5.9800
 6.3470	 5.8640
 6.3550	 6.0740
 6.3620	 6.0300
 6.3700	 5.9430
 6.3780	 5.9120
 6.3860	 6.0180
 6.3940	 6.0100
 6.4020	 5.9790
 6.4100	 5.7660
 6.4180	 5.7260
 6.4260	 5.6910
 6.4330	 5.6840
 6.4410	 5.7270
 6.4490	 5.8190
 6.4580	 5.7980
 6.4660	 5.8290
 6.4740	 5.7610
 6.4820	 5.7640
 6.4900	 5.7210
 6.4980	 5.7750
 6.5060	 5.8090
 6.5140	 5.6910
 6.5230	 5.5710
 6.5310	 5.6920
 6.5390	 5.7610
 6.5470	 5.7550
 6.5550	 5.6510
 6.5640	 5.5770
 6.5720	 5.4240
 6.5800	 5.4840
 6.5890	 5.5190
 6.5970	 5.6180
 6.6060	 5.6550
 6.6140	 5.7370
 6.6220	 5.7090
 6.6310	 5.7830
 6.6390	 5.7450
 6.6480	 5.7880
 6.6560	 5.7340
 6.6650	 5.8030
 6.6740	 5.6810
 6.6820	 5.5520
 6.6910	 5.6050
 6.6990	 5.6950
 6.7080	 5.5660
 6.7170	 5.5410
 6.7260	 5.5280
 6.7340	 5.6680
 6.7430	 5.6630
 6.7520	 5.6120
 6.7610	 5.5700
 6.7690	 5.6700
 6.7780	 5.6700
 6.7870	 5.7530
 6.7960	 5.8080
 6.8050	 5.8340
 6.8140	 5.5670
 6.8230	 5.6210
 6.8320	 5.8910
 6.8410	 6.1030
 6.8500	 6.1000
 6.8590	 6.0030
 6.8680	 5.7570
 6.8770	 5.8430
 6.8860	 5.7650
 6.8950	 5.8410
 6.9050	 5.8420
 6.9140	 5.8550
 6.9230	 5.8310
 6.9320	 5.9830
 6.9420	 5.9500
 6.9510	 5.9280
 6.9600	 5.7380
 6.9700	 5.7800
 6.9790	 5.7350
 6.9880	 5.7620
 6.9980	 5.8050
 7.0070	 5.8960
 7.0170	 5.8220
 7.0260	 5.8680
 7.0360	 5.8090
 7.0450	 5.8060
 7.0550	 5.8460
 7.0650	 5.8600
 7.0740	 5.7440
 7.0840	 5.8430
 7.0940	 5.8830
 7.1030	 5.8540
 7.1130	 5.7490
 7.1230	 5.9180
 7.1330	 5.9490
 7.1420	 5.8870
 7.1520	 5.6280
 7.1620	 5.7340
 7.1720	 5.8330
 7.1820	 5.9980
 7.1920	 5.9030
 7.2020	 5.7920
 7.2120	 5.6650
 7.2220	 5.6770
 7.2320	 5.7870
 7.2420	 5.8620
 7.2520	 5.7480
 7.2620	 5.8130
 7.2730	 5.8980
 7.2830	 5.9280
 7.2930	 5.7300
 7.3030	 5.6860
 7.3140	 5.7040
 7.3240	 5.8130
 7.3340	 5.7200
 7.3450	 5.7620
 7.3550	 5.7390
 7.3660	 5.7330
 7.3760	 5.6440
 7.3870	 5.6610
 7.3970	 5.6060
 7.4080	 5.7670
 7.4180	 5.7800
 7.4290	 5.8860
 7.4400	 5.7930
 7.4500	 5.7260
 7.4610	 5.6370
 7.4720	 5.7400
 7.4830	 5.6730
 7.4930	 5.6980
 7.5040	 5.6840
 7.5150	 5.7500
 7.5260	 5.5700
 7.5370	 5.7040
 7.5480	 5.7590
 7.5590	 5.8350
 7.5700	 5.8960
 7.5810	 6.0770
 7.5920	 6.0270
 7.6030	 6.0370
 7.6140	 5.8980
 7.6260	 5.9430
 7.6370	 5.9310
 7.6480	 5.8920
 7.6590	 5.7800
 7.6710	 5.8420
 7.6820	 5.6730
 7.6930	 5.6820
 7.7050	 5.6010
 7.7160	 5.6440
 7.7280	 5.6330
 7.7390	 5.7370
 7.7510	 5.7590
 7.7630	 5.7570
 7.7740	 5.6760
 7.7860	 5.8210
 7.7980	 5.7550
 7.8090	 5.6670
 7.8210	 5.4510
 7.8330	 5.4430
 7.8450	 5.4130
 7.8570	 5.5490
 7.8690	 5.5150
 7.8810	 5.5670
 7.8930	 5.4090
 7.9050	 5.4950
 7.9170	 5.5230
 7.9290	 5.6340
 7.9410	 5.6340
 7.9530	 5.7080
 7.9650	 5.5240
 7.9780	 5.5110
 7.9900	 5.5690
 8.0020	 5.6550
 8.0150	 5.4550
 8.0270	 5.4870
 8.0390	 5.4900
 8.0520	 5.6660
 8.0640	 5.4890
 8.0770	 5.5700
 8.0900	 5.5440
 8.1020	 5.6970
 8.1150	 5.7170
 8.1280	 5.8170
 8.1400	 5.7010
 8.1530	 5.7590
 8.1660	 5.6300
 8.1790	 5.6510
 8.1920	 5.4750
 8.2050	 5.6110
 8.2180	 5.6180
 8.2310	 5.7090
 8.2440	 5.6060
 8.2570	 5.7440
 8.2700	 5.5780
 8.2830	 5.6290
 8.2970	 5.6140
 8.3100	 5.6460
 8.3230	 5.5960
 8.3370	 5.8890
 8.3500	 5.8390
 8.3640	 5.7860
 8.3770	 5.6010
 8.3910	 5.6550
 8.4040	 5.7430
 8.4180	 5.8860
 8.4320	 5.7140
 8.4450	 5.9220
 8.4590	 5.8210
 8.4730	 5.7080
 8.4870	 5.7630
 8.5010	 6.1100
 8.5150	 6.1720
 8.5290	 6.2110
 8.5430	 5.9360
 8.5570	 6.0320
 8.5710	 6.0240
 8.5850	 6.0620
 8.5990	 5.9610
 8.6140	 6.0800
 8.6280	 6.0030
 8.6420	 5.9630
 8.6570	 5.9460
 8.6710	 6.2500
 8.6860	 6.1220
 8.7000	 6.1210
 8.7150	 6.0650
 8.7300	 6.2160
 8.7440	 6.2160
 8.7590	 6.2200
 8.7740	 6.0590
 8.7890	 6.1630
 8.8040	 5.9700
 8.8190	 5.9150
 8.8340	 5.9570
 8.8490	 6.2010
 8.8640	 6.1660
 8.8790	 6.2860
 8.8940	 5.9590
 8.9100	 5.9550
 8.9250	 5.8600
 8.9400	 5.9570
 8.9560	 5.9880
 8.9710	 6.1950
 8.9870	 5.9560
 9.0020	 6.1430
 9.0180	 6.3100
 9.0340	 6.3970
 9.0500	 6.1370
 9.0650	 6.1080
 9.0810	 5.9750
 9.0970	 6.0910
 9.1130	 5.8940
 9.1290	 6.0620
 9.1450	 6.0580
 9.1610	 6.2620
 9.1780	 6.1640
 9.1940	 6.1480
 9.2100	 6.0330
 9.2270	 6.3020
 9.2430	 6.1860
 9.2600	 6.2280
 9.2760	 6.2090
 9.2930	 6.4320
 9.3090	 6.2320
 9.3260	 6.2390
 9.3430	 6.2800
 9.3600	 6.3180
 9.3770	 6.2610
 9.3940	 6.5360
 9.4110	 6.2650
 9.4280	 6.2200
 9.4450	 6.2640
 9.4620	 6.4030
 9.4800	 6.2250
 9.4970	 6.3810
 9.5140	 6.1080
 9.5320	 6.2000
 9.5500	 6.3140
 9.5670	 6.7080
 9.5850	 6.5320
 9.6030	 6.4200
 9.6200	 6.2440
 9.6380	 6.4500
 9.6560	 6.3460
 9.6740	 6.4760
 9.6920	 6.3740
 9.7100	 6.5560
 9.7290	 6.4280
 9.7470	 6.4960
 9.7650	 6.0990
 9.7840	 6.0040
 9.8020	 5.9220
 9.8210	 6.2120
 9.8390	 6.2450
 9.8580	 6.2930
 9.8770	 6.1720
 9.8960	 6.2900
 9.9150	 6.1370
 9.9340	 6.2250
 9.9530	 6.0940
 9.9720	 6.2480
 9.9910	 6.1890
10.0100	 6.3290
10.0300	 6.1870
10.0490	 6.2350
10.0690	 5.9280
10.0880	 6.0500
10.1080	 6.1470
10.1280	 6.2410
10.1480	 6.0590
10.1670	 6.1800
10.1870	 5.9630
10.2070	 5.9670
10.2280	 5.9100
10.2480	 6.1640
10.2680	 5.9780
10.2890	 5.8430
10.3090	 5.7060
10.3300	 5.9270
10.3500	 5.7500
10.3710	 5.9330
10.3920	 5.8610
10.4120	 5.9120
10.4330	 5.8450
10.4540	 6.0440
10.4760	 5.8800
10.4970	 6.0800
10.5180	 5.9630
10.5390	 5.9330
10.5610	 5.7280
10.5820	 5.9470
10.6040	 5.8430
10.6260	 5.9800
10.6480	 5.8910
10.6700	 6.0450
10.6920	 5.9740
10.7140	 6.1490
10.7360	 6.0490
10.7580	 6.1660
10.7800	 5.9300
10.8030	 5.8730
10.8250	 5.6400
10.8480	 5.9780
10.8710	 5.9540
10.8940	 6.1030
10.9170	 6.0660
10.9400	 6.1660
10.9630	 5.9250
10.9860	 6.0030
11.0090	 5.9740
11.0330	 6.0580
11.0560	 5.8240
11.0800	 6.0110
11.1040	 5.9120
11.1270	 6.0690
11.1510	 5.6730
11.1750	 5.8610
11.2000	 5.7790
11.2240	 5.8860
11.2480	 5.8980
11.2730	 6.1990
11.2970	 5.9540
11.3220	 5.9980
11.3470	 5.7410
11.3720	 5.8640
11.3970	 5.8660
11.4220	 6.1750
11.4470	 5.3700
11.4720	 4.4560
11.4980	 5.1620
11.5230	 5.9820
11.5490	 5.7970
11.5750	 5.9320
11.6000	 5.7090
11.6260	 5.7160
11.6530	 5.6680
11.6790	 5.9530
11.7050	 5.7630
11.7320	 5.8880
11.7580	 5.7550
11.7850	 5.9990
11.8120	 5.7440
11.8390	 5.6870
11.8660	 5.5560
11.8930	 5.7950
11.9200	 5.6740
11.9480	 5.8360
11.9760	 5.4840
12.0030	 5.6710
12.0310	 5.6830
12.0590	 5.8070
12.0870	 5.6630
12.1150	 5.8180
12.1440	 5.5950
12.1720	 5.9700
12.2010	 5.7120
12.2300	 5.7280
12.2590	 5.6210
12.2880	 5.8830
12.3170	 5.4520
12.3460	 5.7200
12.3760	 5.6980
12.4050	 5.8480
12.4350	 5.6240
12.4650	 5.9100
12.4950	 5.8560
12.5250	 6.0250
12.5550	 5.7130
12.5860	 5.9120
12.6170	 5.6040
12.6470	 5.8530
12.6780	 5.7890
12.7090	 6.0790
12.7410	 5.9420
12.7720	 6.0220
12.8030	 5.5770
12.8350	 5.6190
12.8670	 5.3340
12.8990	 5.4800
12.9310	 5.2070
12.9640	 5.5240
12.9960	 5.5520
13.0290	 5.8350
13.0610	 5.5550
13.0940	 5.8310
13.1280	 5.6390
13.1610	 5.8180
13.1940	 5.3530
13.2280	 5.6260
13.2620	 5.6250
13.2960	 5.8430
13.3300	 5.5550
13.3640	 5.8810
13.3990	 5.6080
13.4340	 5.8290
13.4690	 5.4860
13.5040	 5.5440
13.5390	 5.2480
13.5740	 5.5800
13.6100	 5.5350
13.6460	 5.9560
13.6820	 5.6790
13.7180	 6.1330
13.7540	 6.0970
13.7910	 6.1970
13.8280	 5.6760
13.8650	 5.9400
13.9020	 6.0670
13.9390	 6.3310
13.9770	 5.7390
14.0150	 6.1890
14.0530	 6.0620
14.0910	 6.2980
14.1290	 6.0190
14.1680	 6.2710
14.2070	 5.7160
14.2460	 5.8620
14.2850	 5.5330
14.3240	 5.8770
14.3640	 5.3410
14.4040	 6.0560
14.4440	 6.1950
14.4840	 6.4270
14.5250	 5.4340
14.5660	 5.6740
14.6070	 5.7180
14.6480	 5.9130
14.6900	 4.8100
14.7310	 5.2990
14.7730	 5.6500
14.8150	 6.7640
14.8580	 6.1140
14.9010	 5.8130
14.9440	 5.2490
14.9870	 6.6300
15.0300	 5.6600
15.0740	 6.1060
15.1180	 5.6570
15.1620	 5.6940
15.2060	 5.0750
15.2510	 6.3810
15.2960	 5.8360
15.3410	 5.7650
15.3870	 4.7040
