Name: Phyllostachys vivax
Type: vegetation
Class: Tree
Genus: Phyllostachys
Species: vivax
Sample No.: JPL125
Owner: JPL
Wavelength Range: VSWIR
Origin: 34.12505; -118.11546;; WGS84
Collection Date: 9/7/2016
Description: Samples were collected at the Huntington Garden in San Marino California as part of a JPL Subcontract studying HyTES imagery. Samples were taken to JPL and processed within 48 hours of collection. The same leaves were processed in the Nicolet and then measured using the ASD.
Measurement: Bidirectional reflectance
First Column: X
Second Column: Y
X Units: Wavelength (micrometer)
Y Units: Reflectance (percentage)
First X Value: 0.35
Last X Value: 2.5
Number of X Values: 2151
Additional Information: vegetation.tree.phyllostachys.vivax.vswir.jpl125.jpl.asd.ancillary.txt

 0.3500	 9.8490
 0.3510	 9.9980
 0.3520	10.0420
 0.3530	 9.9850
 0.3540	 9.9030
 0.3550	 9.8190
 0.3560	 9.7900
 0.3570	 9.8160
 0.3580	 9.8620
 0.3590	 9.8350
 0.3600	 9.8720
 0.3610	 9.9570
 0.3620	 9.8290
 0.3630	 9.7550
 0.3640	 9.7580
 0.3650	 9.7970
 0.3660	 9.8510
 0.3670	 9.8240
 0.3680	 9.7370
 0.3690	 9.6960
 0.3700	 9.7190
 0.3710	 9.7560
 0.3720	 9.7650
 0.3730	 9.7340
 0.3740	 9.7200
 0.3750	 9.7230
 0.3760	 9.7230
 0.3770	 9.7010
 0.3780	 9.6830
 0.3790	 9.6920
 0.3800	 9.7370
 0.3810	 9.7220
 0.3820	 9.7120
 0.3830	 9.7360
 0.3840	 9.6770
 0.3850	 9.6460
 0.3860	 9.6640
 0.3870	 9.7020
 0.3880	 9.6720
 0.3890	 9.6740
 0.3900	 9.7160
 0.3910	 9.7000
 0.3920	 9.6970
 0.3930	 9.6970
 0.3940	 9.6840
 0.3950	 9.6950
 0.3960	 9.7050
 0.3970	 9.7140
 0.3980	 9.7300
 0.3990	 9.7070
 0.4000	 9.6770
 0.4010	 9.6630
 0.4020	 9.6720
 0.4030	 9.6730
 0.4040	 9.6720
 0.4050	 9.6830
 0.4060	 9.6960
 0.4070	 9.7130
 0.4080	 9.7350
 0.4090	 9.7570
 0.4100	 9.7430
 0.4110	 9.7360
 0.4120	 9.7550
 0.4130	 9.7720
 0.4140	 9.7730
 0.4150	 9.7690
 0.4160	 9.7740
 0.4170	 9.7700
 0.4180	 9.7730
 0.4190	 9.7810
 0.4200	 9.7750
 0.4210	 9.7940
 0.4220	 9.8040
 0.4230	 9.7860
 0.4240	 9.7780
 0.4250	 9.7800
 0.4260	 9.7830
 0.4270	 9.7760
 0.4280	 9.7730
 0.4290	 9.7700
 0.4300	 9.7610
 0.4310	 9.7340
 0.4320	 9.7080
 0.4330	 9.6860
 0.4340	 9.6700
 0.4350	 9.6540
 0.4360	 9.6500
 0.4370	 9.6590
 0.4380	 9.6730
 0.4390	 9.6980
 0.4400	 9.7330
 0.4410	 9.7700
 0.4420	 9.7860
 0.4430	 9.7920
 0.4440	 9.7960
 0.4450	 9.8050
 0.4460	 9.8100
 0.4470	 9.8110
 0.4480	 9.8120
 0.4490	 9.8230
 0.4500	 9.8320
 0.4510	 9.8400
 0.4520	 9.8490
 0.4530	 9.8470
 0.4540	 9.8510
 0.4550	 9.8610
 0.4560	 9.8650
 0.4570	 9.8660
 0.4580	 9.8660
 0.4590	 9.8690
 0.4600	 9.8710
 0.4610	 9.8760
 0.4620	 9.8790
 0.4630	 9.8780
 0.4640	 9.8820
 0.4650	 9.8830
 0.4660	 9.8800
 0.4670	 9.8760
 0.4680	 9.8790
 0.4690	 9.8860
 0.4700	 9.8900
 0.4710	 9.8850
 0.4720	 9.8860
 0.4730	 9.8920
 0.4740	 9.8960
 0.4750	 9.9070
 0.4760	 9.9110
 0.4770	 9.9050
 0.4780	 9.9150
 0.4790	 9.9170
 0.4800	 9.9150
 0.4810	 9.9150
 0.4820	 9.9030
 0.4830	 9.8900
 0.4840	 9.8800
 0.4850	 9.8760
 0.4860	 9.8650
 0.4870	 9.8580
 0.4880	 9.8610
 0.4890	 9.8720
 0.4900	 9.8840
 0.4910	 9.8990
 0.4920	 9.9220
 0.4930	 9.9380
 0.4940	 9.9550
 0.4950	 9.9760
 0.4960	10.0040
 0.4970	10.0270
 0.4980	10.0500
 0.4990	10.0810
 0.5000	10.1130
 0.5010	10.1500
 0.5020	10.1920
 0.5030	10.2350
 0.5040	10.2810
 0.5050	10.3340
 0.5060	10.3950
 0.5070	10.4620
 0.5080	10.5350
 0.5090	10.6150
 0.5100	10.7040
 0.5110	10.8000
 0.5120	10.9110
 0.5130	11.0360
 0.5140	11.1710
 0.5150	11.3160
 0.5160	11.4690
 0.5170	11.6320
 0.5180	11.8110
 0.5190	11.9930
 0.5200	12.1790
 0.5210	12.3730
 0.5220	12.5670
 0.5230	12.7580
 0.5240	12.9470
 0.5250	13.1320
 0.5260	13.3120
 0.5270	13.4830
 0.5280	13.6420
 0.5290	13.7860
 0.5300	13.9190
 0.5310	14.0410
 0.5320	14.1510
 0.5330	14.2480
 0.5340	14.3340
 0.5350	14.4100
 0.5360	14.4730
 0.5370	14.5200
 0.5380	14.5530
 0.5390	14.5680
 0.5400	14.5590
 0.5410	14.5270
 0.5420	14.4860
 0.5430	14.4640
 0.5440	14.4690
 0.5450	14.5050
 0.5460	14.5670
 0.5470	14.6380
 0.5480	14.7000
 0.5490	14.7410
 0.5500	14.7600
 0.5510	14.7720
 0.5520	14.7780
 0.5530	14.7750
 0.5540	14.7690
 0.5550	14.7550
 0.5560	14.7280
 0.5570	14.6800
 0.5580	14.6190
 0.5590	14.5470
 0.5600	14.4650
 0.5610	14.3680
 0.5620	14.2600
 0.5630	14.1450
 0.5640	14.0230
 0.5650	13.8990
 0.5660	13.7720
 0.5670	13.6430
 0.5680	13.5110
 0.5690	13.3810
 0.5700	13.2560
 0.5710	13.1360
 0.5720	13.0190
 0.5730	12.9090
 0.5740	12.8070
 0.5750	12.7150
 0.5760	12.6300
 0.5770	12.5460
 0.5780	12.4590
 0.5790	12.3710
 0.5800	12.2900
 0.5810	12.2180
 0.5820	12.1510
 0.5830	12.0880
 0.5840	12.0370
 0.5850	11.9950
 0.5860	11.9540
 0.5870	11.9080
 0.5880	11.8660
 0.5890	11.8350
 0.5900	11.8140
 0.5910	11.7920
 0.5920	11.7670
 0.5930	11.7400
 0.5940	11.7190
 0.5950	11.7030
 0.5960	11.6920
 0.5970	11.6770
 0.5980	11.6560
 0.5990	11.6350
 0.6000	11.6170
 0.6010	11.6010
 0.6020	11.5820
 0.6030	11.5560
 0.6040	11.5230
 0.6050	11.4870
 0.6060	11.4490
 0.6070	11.4080
 0.6080	11.3580
 0.6090	11.2840
 0.6100	11.1760
 0.6110	11.0420
 0.6120	10.9980
 0.6130	11.0060
 0.6140	11.0220
 0.6150	11.0020
 0.6160	10.9780
 0.6170	10.9520
 0.6180	10.9210
 0.6190	10.8820
 0.6200	10.8480
 0.6210	10.8220
 0.6220	10.8040
 0.6230	10.7880
 0.6240	10.7740
 0.6250	10.7630
 0.6260	10.7540
 0.6270	10.7480
 0.6280	10.7410
 0.6290	10.7310
 0.6300	10.7140
 0.6310	10.7030
 0.6320	10.7010
 0.6330	10.6990
 0.6340	10.6890
 0.6350	10.6700
 0.6360	10.6460
 0.6370	10.6160
 0.6380	10.5820
 0.6390	10.5430
 0.6400	10.5030
 0.6410	10.4650
 0.6420	10.4270
 0.6430	10.3880
 0.6440	10.3500
 0.6450	10.3140
 0.6460	10.2820
 0.6470	10.2550
 0.6480	10.2320
 0.6490	10.2110
 0.6500	10.1930
 0.6510	10.1840
 0.6520	10.1800
 0.6530	10.1770
 0.6540	10.1740
 0.6550	10.1720
 0.6560	10.1680
 0.6570	10.1630
 0.6580	10.1560
 0.6590	10.1500
 0.6600	10.1440
 0.6610	10.1350
 0.6620	10.1250
 0.6630	10.1210
 0.6640	10.1210
 0.6650	10.1240
 0.6660	10.1270
 0.6670	10.1340
 0.6680	10.1450
 0.6690	10.1570
 0.6700	10.1750
 0.6710	10.1950
 0.6720	10.2180
 0.6730	10.2420
 0.6740	10.2720
 0.6750	10.3040
 0.6760	10.3370
 0.6770	10.3750
 0.6780	10.4120
 0.6790	10.4500
 0.6800	10.4940
 0.6810	10.5420
 0.6820	10.5890
 0.6830	10.6340
 0.6840	10.6810
 0.6850	10.7300
 0.6860	10.7820
 0.6870	10.8370
 0.6880	10.9050
 0.6890	10.9900
 0.6900	11.0990
 0.6910	11.2320
 0.6920	11.4040
 0.6930	11.6180
 0.6940	11.8810
 0.6950	12.2050
 0.6960	12.5860
 0.6970	13.0260
 0.6980	13.5210
 0.6990	14.0680
 0.7000	14.6640
 0.7010	15.3000
 0.7020	15.9650
 0.7030	16.6580
 0.7040	17.3680
 0.7050	18.0870
 0.7060	18.8120
 0.7070	19.5420
 0.7080	20.2760
 0.7090	21.0180
 0.7100	21.7640
 0.7110	22.5080
 0.7120	23.2500
 0.7130	23.9960
 0.7140	24.7460
 0.7150	25.4960
 0.7160	26.2410
 0.7170	26.9850
 0.7180	27.7260
 0.7190	28.4650
 0.7200	29.2000
 0.7210	29.9260
 0.7220	30.6450
 0.7230	31.3560
 0.7240	32.0570
 0.7250	32.7430
 0.7260	33.4140
 0.7270	34.0720
 0.7280	34.7090
 0.7290	35.3280
 0.7300	35.9290
 0.7310	36.5090
 0.7320	37.0680
 0.7330	37.6050
 0.7340	38.1210
 0.7350	38.6120
 0.7360	39.0810
 0.7370	39.5270
 0.7380	39.9500
 0.7390	40.3490
 0.7400	40.7250
 0.7410	41.0790
 0.7420	41.4130
 0.7430	41.7190
 0.7440	42.0040
 0.7450	42.2710
 0.7460	42.5160
 0.7470	42.7400
 0.7480	42.9460
 0.7490	43.1340
 0.7500	43.3040
 0.7510	43.4600
 0.7520	43.6030
 0.7530	43.7330
 0.7540	43.8510
 0.7550	43.9570
 0.7560	44.0520
 0.7570	44.1360
 0.7580	44.2130
 0.7590	44.2840
 0.7600	44.3490
 0.7610	44.4040
 0.7620	44.4520
 0.7630	44.4970
 0.7640	44.5400
 0.7650	44.5770
 0.7660	44.6060
 0.7670	44.6310
 0.7680	44.6530
 0.7690	44.6720
 0.7700	44.6880
 0.7710	44.7040
 0.7720	44.7140
 0.7730	44.7250
 0.7740	44.7350
 0.7750	44.7440
 0.7760	44.7520
 0.7770	44.7580
 0.7780	44.7640
 0.7790	44.7690
 0.7800	44.7750
 0.7810	44.7810
 0.7820	44.7850
 0.7830	44.7870
 0.7840	44.7870
 0.7850	44.7880
 0.7860	44.7890
 0.7870	44.7850
 0.7880	44.7820
 0.7890	44.7810
 0.7900	44.7800
 0.7910	44.7760
 0.7920	44.7710
 0.7930	44.7660
 0.7940	44.7610
 0.7950	44.7540
 0.7960	44.7450
 0.7970	44.7360
 0.7980	44.7270
 0.7990	44.7150
 0.8000	44.7020
 0.8010	44.6900
 0.8020	44.6800
 0.8030	44.6680
 0.8040	44.6530
 0.8050	44.6390
 0.8060	44.6270
 0.8070	44.6120
 0.8080	44.5930
 0.8090	44.5730
 0.8100	44.5570
 0.8110	44.5430
 0.8120	44.5270
 0.8130	44.5080
 0.8140	44.4880
 0.8150	44.4680
 0.8160	44.4520
 0.8170	44.4340
 0.8180	44.4160
 0.8190	44.3990
 0.8200	44.3790
 0.8210	44.3620
 0.8220	44.3420
 0.8230	44.3220
 0.8240	44.3030
 0.8250	44.2850
 0.8260	44.2660
 0.8270	44.2450
 0.8280	44.2290
 0.8290	44.2110
 0.8300	44.1910
 0.8310	44.1730
 0.8320	44.1610
 0.8330	44.1470
 0.8340	44.1290
 0.8350	44.1100
 0.8360	44.0970
 0.8370	44.0850
 0.8380	44.0720
 0.8390	44.0570
 0.8400	44.0400
 0.8410	44.0280
 0.8420	44.0200
 0.8430	44.0090
 0.8440	43.9980
 0.8450	43.9880
 0.8460	43.9810
 0.8470	43.9720
 0.8480	43.9630
 0.8490	43.9550
 0.8500	43.9470
 0.8510	43.9380
 0.8520	43.9320
 0.8530	43.9290
 0.8540	43.9250
 0.8550	43.9210
 0.8560	43.9180
 0.8570	43.9130
 0.8580	43.9100
 0.8590	43.9110
 0.8600	43.9130
 0.8610	43.9130
 0.8620	43.9150
 0.8630	43.9160
 0.8640	43.9150
 0.8650	43.9140
 0.8660	43.9150
 0.8670	43.9200
 0.8680	43.9260
 0.8690	43.9260
 0.8700	43.9300
 0.8710	43.9350
 0.8720	43.9390
 0.8730	43.9450
 0.8740	43.9560
 0.8750	43.9640
 0.8760	43.9680
 0.8770	43.9780
 0.8780	43.9880
 0.8790	43.9940
 0.8800	43.9990
 0.8810	44.0100
 0.8820	44.0200
 0.8830	44.0290
 0.8840	44.0380
 0.8850	44.0460
 0.8860	44.0520
 0.8870	44.0600
 0.8880	44.0710
 0.8890	44.0830
 0.8900	44.0920
 0.8910	44.1020
 0.8920	44.1150
 0.8930	44.1240
 0.8940	44.1330
 0.8950	44.1430
 0.8960	44.1540
 0.8970	44.1640
 0.8980	44.1710
 0.8990	44.1780
 0.9000	44.1910
 0.9010	44.1990
 0.9020	44.2050
 0.9030	44.2140
 0.9040	44.2270
 0.9050	44.2360
 0.9060	44.2420
 0.9070	44.2490
 0.9080	44.2580
 0.9090	44.2630
 0.9100	44.2700
 0.9110	44.2810
 0.9120	44.2870
 0.9130	44.2910
 0.9140	44.2950
 0.9150	44.3010
 0.9160	44.3020
 0.9170	44.3020
 0.9180	44.3070
 0.9190	44.3140
 0.9200	44.3130
 0.9210	44.3130
 0.9220	44.3140
 0.9230	44.3120
 0.9240	44.3130
 0.9250	44.3110
 0.9260	44.3060
 0.9270	44.3040
 0.9280	44.3000
 0.9290	44.2940
 0.9300	44.2870
 0.9310	44.2770
 0.9320	44.2700
 0.9330	44.2650
 0.9340	44.2590
 0.9350	44.2480
 0.9360	44.2400
 0.9370	44.2300
 0.9380	44.2160
 0.9390	44.2030
 0.9400	44.1890
 0.9410	44.1760
 0.9420	44.1670
 0.9430	44.1600
 0.9440	44.1420
 0.9450	44.1200
 0.9460	44.1030
 0.9470	44.0810
 0.9480	44.0670
 0.9490	44.0540
 0.9500	44.0310
 0.9510	44.0000
 0.9520	43.9750
 0.9530	43.9540
 0.9540	43.9330
 0.9550	43.9150
 0.9560	43.8870
 0.9570	43.8580
 0.9580	43.8370
 0.9590	43.8140
 0.9600	43.7930
 0.9610	43.7730
 0.9620	43.7510
 0.9630	43.7400
 0.9640	43.7210
 0.9650	43.7040
 0.9660	43.6970
 0.9670	43.6820
 0.9680	43.6730
 0.9690	43.6650
 0.9700	43.6500
 0.9710	43.6340
 0.9720	43.6240
 0.9730	43.6180
 0.9740	43.6130
 0.9750	43.6040
 0.9760	43.6000
 0.9770	43.5960
 0.9780	43.5870
 0.9790	43.5860
 0.9800	43.5830
 0.9810	43.5800
 0.9820	43.5810
 0.9830	43.5720
 0.9840	43.5650
 0.9850	43.5660
 0.9860	43.5710
 0.9870	43.5670
 0.9880	43.5580
 0.9890	43.5480
 0.9900	43.5460
 0.9910	43.5510
 0.9920	43.5520
 0.9930	43.5510
 0.9940	43.5500
 0.9950	43.5520
 0.9960	43.5520
 0.9970	43.5450
 0.9980	43.5320
 0.9990	43.5480
 1.0000	43.5570
 1.0010	44.4300
 1.0020	44.4270
 1.0030	44.4260
 1.0040	44.4250
 1.0050	44.4260
 1.0060	44.4270
 1.0070	44.4250
 1.0080	44.4230
 1.0090	44.4200
 1.0100	44.4200
 1.0110	44.4210
 1.0120	44.4210
 1.0130	44.4230
 1.0140	44.4220
 1.0150	44.4190
 1.0160	44.4130
 1.0170	44.4090
 1.0180	44.4110
 1.0190	44.4120
 1.0200	44.4130
 1.0210	44.4130
 1.0220	44.4140
 1.0230	44.4160
 1.0240	44.4180
 1.0250	44.4210
 1.0260	44.4240
 1.0270	44.4260
 1.0280	44.4250
 1.0290	44.4250
 1.0300	44.4240
 1.0310	44.4250
 1.0320	44.4270
 1.0330	44.4320
 1.0340	44.4390
 1.0350	44.4440
 1.0360	44.4430
 1.0370	44.4420
 1.0380	44.4430
 1.0390	44.4390
 1.0400	44.4410
 1.0410	44.4500
 1.0420	44.4520
 1.0430	44.4550
 1.0440	44.4560
 1.0450	44.4540
 1.0460	44.4550
 1.0470	44.4610
 1.0480	44.4630
 1.0490	44.4650
 1.0500	44.4660
 1.0510	44.4640
 1.0520	44.4610
 1.0530	44.4590
 1.0540	44.4570
 1.0550	44.4560
 1.0560	44.4550
 1.0570	44.4540
 1.0580	44.4550
 1.0590	44.4530
 1.0600	44.4510
 1.0610	44.4470
 1.0620	44.4400
 1.0630	44.4350
 1.0640	44.4290
 1.0650	44.4240
 1.0660	44.4230
 1.0670	44.4190
 1.0680	44.4150
 1.0690	44.4110
 1.0700	44.4060
 1.0710	44.4000
 1.0720	44.3950
 1.0730	44.3910
 1.0740	44.3870
 1.0750	44.3820
 1.0760	44.3770
 1.0770	44.3700
 1.0780	44.3650
 1.0790	44.3600
 1.0800	44.3550
 1.0810	44.3510
 1.0820	44.3470
 1.0830	44.3410
 1.0840	44.3370
 1.0850	44.3330
 1.0860	44.3300
 1.0870	44.3270
 1.0880	44.3250
 1.0890	44.3220
 1.0900	44.3200
 1.0910	44.3180
 1.0920	44.3160
 1.0930	44.3130
 1.0940	44.3110
 1.0950	44.3080
 1.0960	44.3060
 1.0970	44.3030
 1.0980	44.3000
 1.0990	44.2980
 1.1000	44.2950
 1.1010	44.2930
 1.1020	44.2920
 1.1030	44.2920
 1.1040	44.2910
 1.1050	44.2920
 1.1060	44.2920
 1.1070	44.2940
 1.1080	44.2940
 1.1090	44.2930
 1.1100	44.2930
 1.1110	44.2930
 1.1120	44.2920
 1.1130	44.2920
 1.1140	44.2900
 1.1150	44.2870
 1.1160	44.2850
 1.1170	44.2830
 1.1180	44.2800
 1.1190	44.2750
 1.1200	44.2710
 1.1210	44.2670
 1.1220	44.2610
 1.1230	44.2530
 1.1240	44.2460
 1.1250	44.2360
 1.1260	44.2230
 1.1270	44.2100
 1.1280	44.1960
 1.1290	44.1790
 1.1300	44.1630
 1.1310	44.1420
 1.1320	44.1190
 1.1330	44.0920
 1.1340	44.0600
 1.1350	44.0270
 1.1360	43.9910
 1.1370	43.9530
 1.1380	43.9160
 1.1390	43.8750
 1.1400	43.8330
 1.1410	43.7910
 1.1420	43.7460
 1.1430	43.7010
 1.1440	43.6550
 1.1450	43.6090
 1.1460	43.5620
 1.1470	43.5140
 1.1480	43.4700
 1.1490	43.4260
 1.1500	43.3870
 1.1510	43.3510
 1.1520	43.3160
 1.1530	43.2810
 1.1540	43.2490
 1.1550	43.2180
 1.1560	43.1900
 1.1570	43.1640
 1.1580	43.1400
 1.1590	43.1200
 1.1600	43.1030
 1.1610	43.0880
 1.1620	43.0750
 1.1630	43.0620
 1.1640	43.0500
 1.1650	43.0400
 1.1660	43.0320
 1.1670	43.0240
 1.1680	43.0170
 1.1690	43.0100
 1.1700	43.0030
 1.1710	42.9980
 1.1720	42.9950
 1.1730	42.9900
 1.1740	42.9840
 1.1750	42.9770
 1.1760	42.9700
 1.1770	42.9620
 1.1780	42.9530
 1.1790	42.9470
 1.1800	42.9380
 1.1810	42.9270
 1.1820	42.9190
 1.1830	42.9090
 1.1840	42.9000
 1.1850	42.8920
 1.1860	42.8840
 1.1870	42.8760
 1.1880	42.8690
 1.1890	42.8620
 1.1900	42.8550
 1.1910	42.8490
 1.1920	42.8430
 1.1930	42.8370
 1.1940	42.8320
 1.1950	42.8260
 1.1960	42.8220
 1.1970	42.8170
 1.1980	42.8140
 1.1990	42.8120
 1.2000	42.8100
 1.2010	42.8100
 1.2020	42.8070
 1.2030	42.8050
 1.2040	42.8040
 1.2050	42.8040
 1.2060	42.8040
 1.2070	42.8040
 1.2080	42.8040
 1.2090	42.8050
 1.2100	42.8070
 1.2110	42.8090
 1.2120	42.8130
 1.2130	42.8160
 1.2140	42.8180
 1.2150	42.8210
 1.2160	42.8250
 1.2170	42.8270
 1.2180	42.8310
 1.2190	42.8340
 1.2200	42.8370
 1.2210	42.8420
 1.2220	42.8460
 1.2230	42.8520
 1.2240	42.8570
 1.2250	42.8630
 1.2260	42.8690
 1.2270	42.8750
 1.2280	42.8790
 1.2290	42.8820
 1.2300	42.8860
 1.2310	42.8910
 1.2320	42.8960
 1.2330	42.9000
 1.2340	42.9050
 1.2350	42.9080
 1.2360	42.9110
 1.2370	42.9130
 1.2380	42.9160
 1.2390	42.9200
 1.2400	42.9220
 1.2410	42.9240
 1.2420	42.9270
 1.2430	42.9280
 1.2440	42.9300
 1.2450	42.9320
 1.2460	42.9350
 1.2470	42.9370
 1.2480	42.9360
 1.2490	42.9370
 1.2500	42.9380
 1.2510	42.9360
 1.2520	42.9350
 1.2530	42.9340
 1.2540	42.9320
 1.2550	42.9310
 1.2560	42.9300
 1.2570	42.9270
 1.2580	42.9230
 1.2590	42.9200
 1.2600	42.9170
 1.2610	42.9140
 1.2620	42.9110
 1.2630	42.9090
 1.2640	42.9050
 1.2650	42.8990
 1.2660	42.8940
 1.2670	42.8880
 1.2680	42.8820
 1.2690	42.8770
 1.2700	42.8730
 1.2710	42.8670
 1.2720	42.8610
 1.2730	42.8560
 1.2740	42.8490
 1.2750	42.8440
 1.2760	42.8370
 1.2770	42.8290
 1.2780	42.8210
 1.2790	42.8130
 1.2800	42.8030
 1.2810	42.7950
 1.2820	42.7850
 1.2830	42.7720
 1.2840	42.7600
 1.2850	42.7460
 1.2860	42.7310
 1.2870	42.7140
 1.2880	42.6980
 1.2890	42.6770
 1.2900	42.6560
 1.2910	42.6330
 1.2920	42.6080
 1.2930	42.5830
 1.2940	42.5570
 1.2950	42.5310
 1.2960	42.5050
 1.2970	42.4750
 1.2980	42.4450
 1.2990	42.4150
 1.3000	42.3820
 1.3010	42.3500
 1.3020	42.3180
 1.3030	42.2840
 1.3040	42.2500
 1.3050	42.2150
 1.3060	42.1790
 1.3070	42.1440
 1.3080	42.1110
 1.3090	42.0770
 1.3100	42.0440
 1.3110	42.0100
 1.3120	41.9730
 1.3130	41.9350
 1.3140	41.8980
 1.3150	41.8600
 1.3160	41.8220
 1.3170	41.7840
 1.3180	41.7470
 1.3190	41.7070
 1.3200	41.6680
 1.3210	41.6300
 1.3220	41.5900
 1.3230	41.5500
 1.3240	41.5090
 1.3250	41.4670
 1.3260	41.4250
 1.3270	41.3800
 1.3280	41.3350
 1.3290	41.2890
 1.3300	41.2430
 1.3310	41.1970
 1.3320	41.1520
 1.3330	41.1060
 1.3340	41.0580
 1.3350	41.0110
 1.3360	40.9640
 1.3370	40.9170
 1.3380	40.8700
 1.3390	40.8210
 1.3400	40.7720
 1.3410	40.7230
 1.3420	40.6750
 1.3430	40.6260
 1.3440	40.5780
 1.3450	40.5300
 1.3460	40.4800
 1.3470	40.4320
 1.3480	40.3830
 1.3490	40.3360
 1.3500	40.2890
 1.3510	40.2420
 1.3520	40.1940
 1.3530	40.1460
 1.3540	40.0960
 1.3550	40.0470
 1.3560	39.9980
 1.3570	39.9470
 1.3580	39.8950
 1.3590	39.8410
 1.3600	39.7850
 1.3610	39.7280
 1.3620	39.6680
 1.3630	39.6060
 1.3640	39.5410
 1.3650	39.4720
 1.3660	39.4000
 1.3670	39.3240
 1.3680	39.2430
 1.3690	39.1570
 1.3700	39.0620
 1.3710	38.9620
 1.3720	38.8550
 1.3730	38.7370
 1.3740	38.6120
 1.3750	38.4750
 1.3760	38.3250
 1.3770	38.1620
 1.3780	37.9850
 1.3790	37.7930
 1.3800	37.5880
 1.3810	37.3660
 1.3820	37.1300
 1.3830	36.8810
 1.3840	36.6160
 1.3850	36.3360
 1.3860	36.0430
 1.3870	35.7330
 1.3880	35.4140
 1.3890	35.0830
 1.3900	34.7390
 1.3910	34.3890
 1.3920	34.0290
 1.3930	33.6600
 1.3940	33.2860
 1.3950	32.9060
 1.3960	32.5240
 1.3970	32.1440
 1.3980	31.7670
 1.3990	31.3980
 1.4000	31.0340
 1.4010	30.6750
 1.4020	30.3260
 1.4030	29.9840
 1.4040	29.6530
 1.4050	29.3360
 1.4060	29.0310
 1.4070	28.7430
 1.4080	28.4690
 1.4090	28.2070
 1.4100	27.9610
 1.4110	27.7280
 1.4120	27.5100
 1.4130	27.3070
 1.4140	27.1170
 1.4150	26.9420
 1.4160	26.7800
 1.4170	26.6300
 1.4180	26.4920
 1.4190	26.3650
 1.4200	26.2470
 1.4210	26.1390
 1.4220	26.0410
 1.4230	25.9530
 1.4240	25.8720
 1.4250	25.7990
 1.4260	25.7350
 1.4270	25.6760
 1.4280	25.6240
 1.4290	25.5770
 1.4300	25.5360
 1.4310	25.5000
 1.4320	25.4710
 1.4330	25.4460
 1.4340	25.4280
 1.4350	25.4120
 1.4360	25.4010
 1.4370	25.3940
 1.4380	25.3900
 1.4390	25.3880
 1.4400	25.3900
 1.4410	25.3950
 1.4420	25.4010
 1.4430	25.4110
 1.4440	25.4210
 1.4450	25.4330
 1.4460	25.4470
 1.4470	25.4630
 1.4480	25.4780
 1.4490	25.4950
 1.4500	25.5140
 1.4510	25.5340
 1.4520	25.5550
 1.4530	25.5770
 1.4540	25.6010
 1.4550	25.6270
 1.4560	25.6540
 1.4570	25.6830
 1.4580	25.7150
 1.4590	25.7500
 1.4600	25.7880
 1.4610	25.8300
 1.4620	25.8760
 1.4630	25.9260
 1.4640	25.9800
 1.4650	26.0390
 1.4660	26.1020
 1.4670	26.1690
 1.4680	26.2400
 1.4690	26.3140
 1.4700	26.3920
 1.4710	26.4740
 1.4720	26.5580
 1.4730	26.6450
 1.4740	26.7350
 1.4750	26.8270
 1.4760	26.9220
 1.4770	27.0190
 1.4780	27.1160
 1.4790	27.2160
 1.4800	27.3160
 1.4810	27.4170
 1.4820	27.5190
 1.4830	27.6220
 1.4840	27.7250
 1.4850	27.8290
 1.4860	27.9330
 1.4870	28.0380
 1.4880	28.1420
 1.4890	28.2460
 1.4900	28.3510
 1.4910	28.4550
 1.4920	28.5590
 1.4930	28.6650
 1.4940	28.7700
 1.4950	28.8750
 1.4960	28.9780
 1.4970	29.0820
 1.4980	29.1850
 1.4990	29.2870
 1.5000	29.3890
 1.5010	29.4920
 1.5020	29.5950
 1.5030	29.6980
 1.5040	29.8000
 1.5050	29.9000
 1.5060	30.0000
 1.5070	30.0990
 1.5080	30.1990
 1.5090	30.2980
 1.5100	30.3970
 1.5110	30.4950
 1.5120	30.5930
 1.5130	30.6890
 1.5140	30.7850
 1.5150	30.8810
 1.5160	30.9750
 1.5170	31.0680
 1.5180	31.1610
 1.5190	31.2520
 1.5200	31.3420
 1.5210	31.4310
 1.5220	31.5190
 1.5230	31.6060
 1.5240	31.6920
 1.5250	31.7790
 1.5260	31.8640
 1.5270	31.9490
 1.5280	32.0320
 1.5290	32.1140
 1.5300	32.1960
 1.5310	32.2780
 1.5320	32.3570
 1.5330	32.4360
 1.5340	32.5130
 1.5350	32.5870
 1.5360	32.6610
 1.5370	32.7340
 1.5380	32.8060
 1.5390	32.8790
 1.5400	32.9500
 1.5410	33.0220
 1.5420	33.0920
 1.5430	33.1610
 1.5440	33.2300
 1.5450	33.2960
 1.5460	33.3620
 1.5470	33.4280
 1.5480	33.4920
 1.5490	33.5560
 1.5500	33.6190
 1.5510	33.6800
 1.5520	33.7410
 1.5530	33.8020
 1.5540	33.8610
 1.5550	33.9190
 1.5560	33.9740
 1.5570	34.0290
 1.5580	34.0840
 1.5590	34.1400
 1.5600	34.1940
 1.5610	34.2470
 1.5620	34.2980
 1.5630	34.3470
 1.5640	34.3970
 1.5650	34.4470
 1.5660	34.4970
 1.5670	34.5460
 1.5680	34.5930
 1.5690	34.6380
 1.5700	34.6810
 1.5710	34.7250
 1.5720	34.7690
 1.5730	34.8130
 1.5740	34.8580
 1.5750	34.9010
 1.5760	34.9440
 1.5770	34.9860
 1.5780	35.0260
 1.5790	35.0670
 1.5800	35.1090
 1.5810	35.1500
 1.5820	35.1920
 1.5830	35.2330
 1.5840	35.2730
 1.5850	35.3140
 1.5860	35.3530
 1.5870	35.3940
 1.5880	35.4340
 1.5890	35.4740
 1.5900	35.5130
 1.5910	35.5540
 1.5920	35.5950
 1.5930	35.6330
 1.5940	35.6710
 1.5950	35.7080
 1.5960	35.7450
 1.5970	35.7840
 1.5980	35.8240
 1.5990	35.8630
 1.6000	35.9010
 1.6010	35.9370
 1.6020	35.9730
 1.6030	36.0080
 1.6040	36.0440
 1.6050	36.0800
 1.6060	36.1150
 1.6070	36.1470
 1.6080	36.1820
 1.6090	36.2140
 1.6100	36.2450
 1.6110	36.2780
 1.6120	36.3090
 1.6130	36.3380
 1.6140	36.3690
 1.6150	36.3980
 1.6160	36.4260
 1.6170	36.4550
 1.6180	36.4830
 1.6190	36.5110
 1.6200	36.5380
 1.6210	36.5660
 1.6220	36.5920
 1.6230	36.6170
 1.6240	36.6420
 1.6250	36.6670
 1.6260	36.6900
 1.6270	36.7140
 1.6280	36.7370
 1.6290	36.7580
 1.6300	36.7790
 1.6310	36.7990
 1.6320	36.8200
 1.6330	36.8400
 1.6340	36.8620
 1.6350	36.8800
 1.6360	36.8950
 1.6370	36.9110
 1.6380	36.9260
 1.6390	36.9400
 1.6400	36.9550
 1.6410	36.9690
 1.6420	36.9830
 1.6430	36.9940
 1.6440	37.0040
 1.6450	37.0150
 1.6460	37.0240
 1.6470	37.0350
 1.6480	37.0460
 1.6490	37.0560
 1.6500	37.0650
 1.6510	37.0730
 1.6520	37.0770
 1.6530	37.0790
 1.6540	37.0810
 1.6550	37.0820
 1.6560	37.0810
 1.6570	37.0810
 1.6580	37.0780
 1.6590	37.0720
 1.6600	37.0660
 1.6610	37.0610
 1.6620	37.0570
 1.6630	37.0550
 1.6640	37.0510
 1.6650	37.0450
 1.6660	37.0390
 1.6670	37.0330
 1.6680	37.0270
 1.6690	37.0200
 1.6700	37.0100
 1.6710	37.0010
 1.6720	36.9920
 1.6730	36.9790
 1.6740	36.9670
 1.6750	36.9540
 1.6760	36.9380
 1.6770	36.9220
 1.6780	36.9060
 1.6790	36.8870
 1.6800	36.8670
 1.6810	36.8460
 1.6820	36.8230
 1.6830	36.8000
 1.6840	36.7790
 1.6850	36.7560
 1.6860	36.7330
 1.6870	36.7080
 1.6880	36.6820
 1.6890	36.6550
 1.6900	36.6300
 1.6910	36.6040
 1.6920	36.5790
 1.6930	36.5530
 1.6940	36.5280
 1.6950	36.5040
 1.6960	36.4790
 1.6970	36.4550
 1.6980	36.4290
 1.6990	36.4020
 1.7000	36.3760
 1.7010	36.3500
 1.7020	36.3240
 1.7030	36.3000
 1.7040	36.2740
 1.7050	36.2450
 1.7060	36.2180
 1.7070	36.1910
 1.7080	36.1640
 1.7090	36.1380
 1.7100	36.1110
 1.7110	36.0850
 1.7120	36.0560
 1.7130	36.0290
 1.7140	36.0000
 1.7150	35.9700
 1.7160	35.9400
 1.7170	35.9100
 1.7180	35.8800
 1.7190	35.8500
 1.7200	35.8210
 1.7210	35.7930
 1.7220	35.7660
 1.7230	35.7390
 1.7240	35.7120
 1.7250	35.6850
 1.7260	35.6580
 1.7270	35.6310
 1.7280	35.6070
 1.7290	35.5840
 1.7300	35.5640
 1.7310	35.5430
 1.7320	35.5220
 1.7330	35.5030
 1.7340	35.4870
 1.7350	35.4690
 1.7360	35.4540
 1.7370	35.4360
 1.7380	35.4150
 1.7390	35.3930
 1.7400	35.3700
 1.7410	35.3450
 1.7420	35.3170
 1.7430	35.2880
 1.7440	35.2580
 1.7450	35.2260
 1.7460	35.1900
 1.7470	35.1540
 1.7480	35.1150
 1.7490	35.0780
 1.7500	35.0400
 1.7510	35.0030
 1.7520	34.9660
 1.7530	34.9270
 1.7540	34.8880
 1.7550	34.8470
 1.7560	34.8050
 1.7570	34.7630
 1.7580	34.7220
 1.7590	34.6810
 1.7600	34.6410
 1.7610	34.6000
 1.7620	34.5620
 1.7630	34.5270
 1.7640	34.4920
 1.7650	34.4590
 1.7660	34.4270
 1.7670	34.3980
 1.7680	34.3690
 1.7690	34.3430
 1.7700	34.3180
 1.7710	34.2940
 1.7720	34.2700
 1.7730	34.2450
 1.7740	34.2220
 1.7750	34.1980
 1.7760	34.1760
 1.7770	34.1570
 1.7780	34.1370
 1.7790	34.1180
 1.7800	34.0990
 1.7810	34.0820
 1.7820	34.0660
 1.7830	34.0510
 1.7840	34.0380
 1.7850	34.0260
 1.7860	34.0140
 1.7870	34.0040
 1.7880	33.9960
 1.7890	33.9890
 1.7900	33.9850
 1.7910	33.9800
 1.7920	33.9750
 1.7930	33.9720
 1.7940	33.9700
 1.7950	33.9700
 1.7960	33.9730
 1.7970	33.9750
 1.7980	33.9780
 1.7990	33.9800
 1.8000	33.9810
 1.8010	33.9830
 1.8020	33.9850
 1.8030	33.9880
 1.8040	33.9930
 1.8050	33.9960
 1.8060	33.9970
 1.8070	34.0000
 1.8080	34.0020
 1.8090	34.0060
 1.8100	34.0120
 1.8110	34.0160
 1.8120	34.0190
 1.8130	34.0200
 1.8140	34.0180
 1.8150	34.0170
 1.8160	34.0170
 1.8170	34.0190
 1.8180	34.0210
 1.8190	34.0230
 1.8200	34.0220
 1.8210	34.0180
 1.8220	34.0160
 1.8230	34.0150
 1.8240	34.0110
 1.8250	34.0070
 1.8260	34.0020
 1.8270	33.9930
 1.8280	33.9850
 1.8290	33.9780
 1.8300	33.9700
 1.8310	34.3760
 1.8320	34.3640
 1.8330	34.3480
 1.8340	34.3280
 1.8350	34.3060
 1.8360	34.2800
 1.8370	34.2490
 1.8380	34.2180
 1.8390	34.1850
 1.8400	34.1510
 1.8410	34.1110
 1.8420	34.0690
 1.8430	34.0220
 1.8440	33.9660
 1.8450	33.9070
 1.8460	33.8450
 1.8470	33.7770
 1.8480	33.7030
 1.8490	33.6210
 1.8500	33.5300
 1.8510	33.4310
 1.8520	33.3240
 1.8530	33.2060
 1.8540	33.0850
 1.8550	32.9570
 1.8560	32.8160
 1.8570	32.6650
 1.8580	32.4990
 1.8590	32.3220
 1.8600	32.1320
 1.8610	31.9290
 1.8620	31.7120
 1.8630	31.4830
 1.8640	31.2390
 1.8650	30.9780
 1.8660	30.7010
 1.8670	30.4020
 1.8680	30.0850
 1.8690	29.7510
 1.8700	29.3970
 1.8710	29.0250
 1.8720	28.6400
 1.8730	28.2380
 1.8740	27.8180
 1.8750	27.3850
 1.8760	26.9370
 1.8770	26.4790
 1.8780	26.0130
 1.8790	25.5340
 1.8800	25.0540
 1.8810	24.5690
 1.8820	24.0770
 1.8830	23.5800
 1.8840	23.0830
 1.8850	22.5820
 1.8860	22.0820
 1.8870	21.5890
 1.8880	21.1030
 1.8890	20.6310
 1.8900	20.1730
 1.8910	19.7340
 1.8920	19.3080
 1.8930	18.9050
 1.8940	18.5180
 1.8950	18.1540
 1.8960	17.8110
 1.8970	17.4900
 1.8980	17.1930
 1.8990	16.9200
 1.9000	16.6650
 1.9010	16.4340
 1.9020	16.2190
 1.9030	16.0250
 1.9040	15.8480
 1.9050	15.6900
 1.9060	15.5500
 1.9070	15.4250
 1.9080	15.3160
 1.9090	15.2190
 1.9100	15.1330
 1.9110	15.0550
 1.9120	14.9890
 1.9130	14.9290
 1.9140	14.8760
 1.9150	14.8310
 1.9160	14.7920
 1.9170	14.7590
 1.9180	14.7310
 1.9190	14.7080
 1.9200	14.6890
 1.9210	14.6750
 1.9220	14.6640
 1.9230	14.6590
 1.9240	14.6550
 1.9250	14.6550
 1.9260	14.6570
 1.9270	14.6620
 1.9280	14.6710
 1.9290	14.6840
 1.9300	14.6990
 1.9310	14.7160
 1.9320	14.7350
 1.9330	14.7560
 1.9340	14.7760
 1.9350	14.8010
 1.9360	14.8290
 1.9370	14.8590
 1.9380	14.8920
 1.9390	14.9270
 1.9400	14.9640
 1.9410	15.0030
 1.9420	15.0420
 1.9430	15.0840
 1.9440	15.1270
 1.9450	15.1690
 1.9460	15.2160
 1.9470	15.2660
 1.9480	15.3160
 1.9490	15.3670
 1.9500	15.4210
 1.9510	15.4740
 1.9520	15.5300
 1.9530	15.5890
 1.9540	15.6470
 1.9550	15.7080
 1.9560	15.7720
 1.9570	15.8350
 1.9580	15.8990
 1.9590	15.9640
 1.9600	16.0300
 1.9610	16.0960
 1.9620	16.1630
 1.9630	16.2320
 1.9640	16.3030
 1.9650	16.3750
 1.9660	16.4470
 1.9670	16.5210
 1.9680	16.5960
 1.9690	16.6700
 1.9700	16.7470
 1.9710	16.8250
 1.9720	16.9030
 1.9730	16.9810
 1.9740	17.0610
 1.9750	17.1420
 1.9760	17.2250
 1.9770	17.3090
 1.9780	17.3930
 1.9790	17.4780
 1.9800	17.5630
 1.9810	17.6490
 1.9820	17.7370
 1.9830	17.8240
 1.9840	17.9120
 1.9850	18.0000
 1.9860	18.0900
 1.9870	18.1790
 1.9880	18.2680
 1.9890	18.3590
 1.9900	18.4490
 1.9910	18.5380
 1.9920	18.6290
 1.9930	18.7210
 1.9940	18.8120
 1.9950	18.9030
 1.9960	18.9940
 1.9970	19.0830
 1.9980	19.1740
 1.9990	19.2670
 2.0000	19.3590
 2.0010	19.4490
 2.0020	19.5410
 2.0030	19.6300
 2.0040	19.7180
 2.0050	19.8070
 2.0060	19.8980
 2.0070	19.9870
 2.0080	20.0750
 2.0090	20.1620
 2.0100	20.2470
 2.0110	20.3330
 2.0120	20.4180
 2.0130	20.5030
 2.0140	20.5880
 2.0150	20.6710
 2.0160	20.7530
 2.0170	20.8340
 2.0180	20.9150
 2.0190	20.9940
 2.0200	21.0730
 2.0210	21.1540
 2.0220	21.2320
 2.0230	21.3090
 2.0240	21.3840
 2.0250	21.4580
 2.0260	21.5290
 2.0270	21.5980
 2.0280	21.6660
 2.0290	21.7340
 2.0300	21.8000
 2.0310	21.8650
 2.0320	21.9300
 2.0330	21.9920
 2.0340	22.0510
 2.0350	22.1100
 2.0360	22.1700
 2.0370	22.2260
 2.0380	22.2810
 2.0390	22.3350
 2.0400	22.3860
 2.0410	22.4380
 2.0420	22.4910
 2.0430	22.5420
 2.0440	22.5920
 2.0450	22.6410
 2.0460	22.6890
 2.0470	22.7350
 2.0480	22.7830
 2.0490	22.8330
 2.0500	22.8810
 2.0510	22.9300
 2.0520	22.9780
 2.0530	23.0250
 2.0540	23.0720
 2.0550	23.1190
 2.0560	23.1650
 2.0570	23.2130
 2.0580	23.2600
 2.0590	23.3090
 2.0600	23.3590
 2.0610	23.4080
 2.0620	23.4570
 2.0630	23.5060
 2.0640	23.5560
 2.0650	23.6060
 2.0660	23.6580
 2.0670	23.7090
 2.0680	23.7580
 2.0690	23.8100
 2.0700	23.8630
 2.0710	23.9160
 2.0720	23.9700
 2.0730	24.0230
 2.0740	24.0750
 2.0750	24.1240
 2.0760	24.1760
 2.0770	24.2280
 2.0780	24.2790
 2.0790	24.3310
 2.0800	24.3820
 2.0810	24.4310
 2.0820	24.4820
 2.0830	24.5330
 2.0840	24.5850
 2.0850	24.6400
 2.0860	24.6910
 2.0870	24.7410
 2.0880	24.7920
 2.0890	24.8410
 2.0900	24.8870
 2.0910	24.9360
 2.0920	24.9860
 2.0930	25.0330
 2.0940	25.0800
 2.0950	25.1280
 2.0960	25.1740
 2.0970	25.2220
 2.0980	25.2700
 2.0990	25.3160
 2.1000	25.3620
 2.1010	25.4080
 2.1020	25.4540
 2.1030	25.4990
 2.1040	25.5470
 2.1050	25.5920
 2.1060	25.6370
 2.1070	25.6810
 2.1080	25.7250
 2.1090	25.7680
 2.1100	25.8120
 2.1110	25.8560
 2.1120	25.9000
 2.1130	25.9440
 2.1140	25.9890
 2.1150	26.0350
 2.1160	26.0790
 2.1170	26.1240
 2.1180	26.1670
 2.1190	26.2100
 2.1200	26.2520
 2.1210	26.2920
 2.1220	26.3340
 2.1230	26.3750
 2.1240	26.4150
 2.1250	26.4560
 2.1260	26.4970
 2.1270	26.5380
 2.1280	26.5800
 2.1290	26.6170
 2.1300	26.6530
 2.1310	26.6860
 2.1320	26.7130
 2.1330	26.7430
 2.1340	26.7730
 2.1350	26.8030
 2.1360	26.8340
 2.1370	26.8640
 2.1380	26.8910
 2.1390	26.9200
 2.1400	26.9490
 2.1410	26.9770
 2.1420	27.0020
 2.1430	27.0260
 2.1440	27.0490
 2.1450	27.0680
 2.1460	27.0890
 2.1470	27.1110
 2.1480	27.1320
 2.1490	27.1540
 2.1500	27.1720
 2.1510	27.1910
 2.1520	27.2080
 2.1530	27.2200
 2.1540	27.2330
 2.1550	27.2460
 2.1560	27.2570
 2.1570	27.2680
 2.1580	27.2780
 2.1590	27.2850
 2.1600	27.2910
 2.1610	27.3030
 2.1620	27.3130
 2.1630	27.3220
 2.1640	27.3330
 2.1650	27.3410
 2.1660	27.3470
 2.1670	27.3520
 2.1680	27.3550
 2.1690	27.3600
 2.1700	27.3600
 2.1710	27.3670
 2.1720	27.3800
 2.1730	27.3890
 2.1740	27.4010
 2.1750	27.4110
 2.1760	27.4160
 2.1770	27.4250
 2.1780	27.4360
 2.1790	27.4460
 2.1800	27.4560
 2.1810	27.4670
 2.1820	27.4810
 2.1830	27.4920
 2.1840	27.5020
 2.1850	27.5140
 2.1860	27.5240
 2.1870	27.5310
 2.1880	27.5410
 2.1890	27.5520
 2.1900	27.5620
 2.1910	27.5730
 2.1920	27.5830
 2.1930	27.5930
 2.1940	27.6020
 2.1950	27.6100
 2.1960	27.6180
 2.1970	27.6260
 2.1980	27.6330
 2.1990	27.6380
 2.2000	27.6430
 2.2010	27.6450
 2.2020	27.6480
 2.2030	27.6530
 2.2040	27.6550
 2.2050	27.6560
 2.2060	27.6560
 2.2070	27.6540
 2.2080	27.6510
 2.2090	27.6460
 2.2100	27.6390
 2.2110	27.6320
 2.2120	27.6220
 2.2130	27.6140
 2.2140	27.6050
 2.2150	27.5940
 2.2160	27.5840
 2.2170	27.5710
 2.2180	27.5570
 2.2190	27.5440
 2.2200	27.5300
 2.2210	27.5160
 2.2220	27.5020
 2.2230	27.4850
 2.2240	27.4670
 2.2250	27.4450
 2.2260	27.4210
 2.2270	27.3930
 2.2280	27.3600
 2.2290	27.3240
 2.2300	27.2840
 2.2310	27.2380
 2.2320	27.1930
 2.2330	27.1420
 2.2340	27.0880
 2.2350	27.0300
 2.2360	26.9710
 2.2370	26.9070
 2.2380	26.8470
 2.2390	26.7860
 2.2400	26.7250
 2.2410	26.6650
 2.2420	26.6040
 2.2430	26.5410
 2.2440	26.4840
 2.2450	26.4270
 2.2460	26.3750
 2.2470	26.3290
 2.2480	26.2850
 2.2490	26.2440
 2.2500	26.2040
 2.2510	26.1680
 2.2520	26.1320
 2.2530	26.0960
 2.2540	26.0610
 2.2550	26.0260
 2.2560	25.9910
 2.2570	25.9560
 2.2580	25.9200
 2.2590	25.8830
 2.2600	25.8430
 2.2610	25.8010
 2.2620	25.7560
 2.2630	25.7110
 2.2640	25.6630
 2.2650	25.6160
 2.2660	25.5700
 2.2670	25.5250
 2.2680	25.4800
 2.2690	25.4370
 2.2700	25.3950
 2.2710	25.3520
 2.2720	25.3060
 2.2730	25.2660
 2.2740	25.2270
 2.2750	25.1910
 2.2760	25.1600
 2.2770	25.1270
 2.2780	25.0970
 2.2790	25.0660
 2.2800	25.0350
 2.2810	25.0080
 2.2820	24.9860
 2.2830	24.9610
 2.2840	24.9410
 2.2850	24.9160
 2.2860	24.8870
 2.2870	24.8570
 2.2880	24.8240
 2.2890	24.7910
 2.2900	24.7550
 2.2910	24.7200
 2.2920	24.6870
 2.2930	24.6490
 2.2940	24.6120
 2.2950	24.5690
 2.2960	24.5170
 2.2970	24.4690
 2.2980	24.4190
 2.2990	24.3720
 2.3000	24.3210
 2.3010	24.2680
 2.3020	24.2130
 2.3030	24.1550
 2.3040	24.1040
 2.3050	24.0540
 2.3060	24.0050
 2.3070	23.9550
 2.3080	23.9040
 2.3090	23.8560
 2.3100	23.8120
 2.3110	23.7760
 2.3120	23.7450
 2.3130	23.7220
 2.3140	23.6960
 2.3150	23.6720
 2.3160	23.6510
 2.3170	23.6310
 2.3180	23.6100
 2.3190	23.5900
 2.3200	23.5700
 2.3210	23.5470
 2.3220	23.5270
 2.3230	23.5120
 2.3240	23.4910
 2.3250	23.4670
 2.3260	23.4420
 2.3270	23.4150
 2.3280	23.3850
 2.3290	23.3540
 2.3300	23.3210
 2.3310	23.2850
 2.3320	23.2500
 2.3330	23.2160
 2.3340	23.1790
 2.3350	23.1400
 2.3360	23.1040
 2.3370	23.0700
 2.3380	23.0330
 2.3390	22.9980
 2.3400	22.9600
 2.3410	22.9170
 2.3420	22.8780
 2.3430	22.8390
 2.3440	22.8010
 2.3450	22.7640
 2.3460	22.7270
 2.3470	22.6920
 2.3480	22.6560
 2.3490	22.6190
 2.3500	22.5850
 2.3510	22.5520
 2.3520	22.5210
 2.3530	22.4910
 2.3540	22.4670
 2.3550	22.4500
 2.3560	22.4290
 2.3570	22.4080
 2.3580	22.3870
 2.3590	22.3570
 2.3600	22.3310
 2.3610	22.3030
 2.3620	22.2770
 2.3630	22.2510
 2.3640	22.2210
 2.3650	22.1940
 2.3660	22.1600
 2.3670	22.1200
 2.3680	22.0850
 2.3690	22.0490
 2.3700	22.0150
 2.3710	21.9800
 2.3720	21.9430
 2.3730	21.9010
 2.3740	21.8610
 2.3750	21.8250
 2.3760	21.7820
 2.3770	21.7420
 2.3780	21.7030
 2.3790	21.6570
 2.3800	21.6150
 2.3810	21.5710
 2.3820	21.5280
 2.3830	21.4940
 2.3840	21.4590
 2.3850	21.4220
 2.3860	21.3860
 2.3870	21.3410
 2.3880	21.2970
 2.3890	21.2610
 2.3900	21.2200
 2.3910	21.1730
 2.3920	21.1300
 2.3930	21.0870
 2.3940	21.0430
 2.3950	21.0040
 2.3960	20.9650
 2.3970	20.9200
 2.3980	20.8730
 2.3990	20.8280
 2.4000	20.7840
 2.4010	20.7390
 2.4020	20.6940
 2.4030	20.6500
 2.4040	20.6050
 2.4050	20.5590
 2.4060	20.5150
 2.4070	20.4680
 2.4080	20.4230
 2.4090	20.3820
 2.4100	20.3360
 2.4110	20.2880
 2.4120	20.2420
 2.4130	20.1970
 2.4140	20.1560
 2.4150	20.1130
 2.4160	20.0670
 2.4170	20.0180
 2.4180	19.9650
 2.4190	19.9200
 2.4200	19.8790
 2.4210	19.8280
 2.4220	19.7780
 2.4230	19.7220
 2.4240	19.6570
 2.4250	19.6040
 2.4260	19.5570
 2.4270	19.5060
 2.4280	19.4590
 2.4290	19.4070
 2.4300	19.3480
 2.4310	19.2950
 2.4320	19.2410
 2.4330	19.1840
 2.4340	19.1340
 2.4350	19.0820
 2.4360	19.0350
 2.4370	18.9900
 2.4380	18.9360
 2.4390	18.8850
 2.4400	18.8270
 2.4410	18.7680
 2.4420	18.7220
 2.4430	18.6710
 2.4440	18.6220
 2.4450	18.5820
 2.4460	18.5320
 2.4470	18.4910
 2.4480	18.4500
 2.4490	18.4030
 2.4500	18.3630
 2.4510	18.3080
 2.4520	18.2460
 2.4530	18.1840
 2.4540	18.1150
 2.4550	18.0550
 2.4560	18.0060
 2.4570	17.9570
 2.4580	17.9170
 2.4590	17.8760
 2.4600	17.8380
 2.4610	17.8120
 2.4620	17.7720
 2.4630	17.7290
 2.4640	17.6860
 2.4650	17.6290
 2.4660	17.5730
 2.4670	17.5100
 2.4680	17.4570
 2.4690	17.4130
 2.4700	17.3670
 2.4710	17.3370
 2.4720	17.2980
 2.4730	17.2390
 2.4740	17.2010
 2.4750	17.1770
 2.4760	17.1450
 2.4770	17.1260
 2.4780	17.0990
 2.4790	17.0600
 2.4800	17.0310
 2.4810	17.0010
 2.4820	16.9630
 2.4830	16.9390
 2.4840	16.9120
 2.4850	16.8890
 2.4860	16.8780
 2.4870	16.8840
 2.4880	16.8610
 2.4890	16.8380
 2.4900	16.8300
 2.4910	16.7890
 2.4920	16.7560
 2.4930	16.7400
 2.4940	16.7030
 2.4950	16.6780
 2.4960	16.6880
 2.4970	16.6900
 2.4980	16.6820
 2.4990	16.6920
 2.5000	16.6790
