Name: Quercus agrifolia 2
Type: vegetation
Class: Tree
Genus: Quercus
Species: agrifolia
Sample No.: VH176
Owner: UCSB
Wavelength Range: VSWIR
Origin: 34.7156; -120.0603; WGS84
Collection Date: 6/9/2013
Description: Samples were collected as part of the HyspIRI Airborne Campaign. 48 individual plants were sampled in three times in 2013 - spring  summer  and fall. The name of the sample includes a 1  2  or 3 which references a different individual of the species. Samples were taken to JPL and processed within 48 hours of collection. The same leaves were processed in the Nicolet and then measured using the ASD.
Measurement: Bidirectional reflectance
First Column: X
Second Column: Y
X Units: Wavelength (micrometers)
Y Units: Reflectance (percentage)
First X Value: 0.35
Last X Value: 2.5
Number of X Values: 2151
Additional Information: vegetation.tree.quercus.agrifolia.vswir.vh176.ucsb.asd.ancillary.txt

 0.3500	 4.8490
 0.3510	 4.7180
 0.3520	 4.7700
 0.3530	 4.8020
 0.3540	 4.6230
 0.3550	 4.4810
 0.3560	 4.6090
 0.3570	 4.7910
 0.3580	 4.6530
 0.3590	 4.6450
 0.3600	 4.6040
 0.3610	 4.5170
 0.3620	 4.6770
 0.3630	 4.7610
 0.3640	 4.7220
 0.3650	 4.6110
 0.3660	 4.5460
 0.3670	 4.6000
 0.3680	 4.6980
 0.3690	 4.6680
 0.3700	 4.6190
 0.3710	 4.6360
 0.3720	 4.7100
 0.3730	 4.6550
 0.3740	 4.6390
 0.3750	 4.6430
 0.3760	 4.6070
 0.3770	 4.5660
 0.3780	 4.5490
 0.3790	 4.5530
 0.3800	 4.5460
 0.3810	 4.6200
 0.3820	 4.6300
 0.3830	 4.5150
 0.3840	 4.5010
 0.3850	 4.5780
 0.3860	 4.6220
 0.3870	 4.5140
 0.3880	 4.4950
 0.3890	 4.5220
 0.3900	 4.5260
 0.3910	 4.4510
 0.3920	 4.5220
 0.3930	 4.6070
 0.3940	 4.5860
 0.3950	 4.5930
 0.3960	 4.5790
 0.3970	 4.5570
 0.3980	 4.5490
 0.3990	 4.5880
 0.4000	 4.6240
 0.4010	 4.6280
 0.4020	 4.6090
 0.4030	 4.5990
 0.4040	 4.6130
 0.4050	 4.6550
 0.4060	 4.6940
 0.4070	 4.7120
 0.4080	 4.7080
 0.4090	 4.6950
 0.4100	 4.7100
 0.4110	 4.7250
 0.4120	 4.7300
 0.4130	 4.7760
 0.4140	 4.7950
 0.4150	 4.8040
 0.4160	 4.8400
 0.4170	 4.8550
 0.4180	 4.8850
 0.4190	 4.9290
 0.4200	 4.9290
 0.4210	 4.9480
 0.4220	 4.9650
 0.4230	 4.9720
 0.4240	 5.0210
 0.4250	 5.0600
 0.4260	 5.0760
 0.4270	 5.0960
 0.4280	 5.1260
 0.4290	 5.1350
 0.4300	 5.1280
 0.4310	 5.1600
 0.4320	 5.1940
 0.4330	 5.2160
 0.4340	 5.2300
 0.4350	 5.2650
 0.4360	 5.2700
 0.4370	 5.2580
 0.4380	 5.2850
 0.4390	 5.3030
 0.4400	 5.3200
 0.4410	 5.3400
 0.4420	 5.3500
 0.4430	 5.3580
 0.4440	 5.3690
 0.4450	 5.3810
 0.4460	 5.4090
 0.4470	 5.4330
 0.4480	 5.4410
 0.4490	 5.4510
 0.4500	 5.4600
 0.4510	 5.4750
 0.4520	 5.5000
 0.4530	 5.4980
 0.4540	 5.4980
 0.4550	 5.5000
 0.4560	 5.4980
 0.4570	 5.5240
 0.4580	 5.5400
 0.4590	 5.5400
 0.4600	 5.5590
 0.4610	 5.5600
 0.4620	 5.5540
 0.4630	 5.5670
 0.4640	 5.5560
 0.4650	 5.5630
 0.4660	 5.5820
 0.4670	 5.5790
 0.4680	 5.5790
 0.4690	 5.5820
 0.4700	 5.5840
 0.4710	 5.5940
 0.4720	 5.5810
 0.4730	 5.5680
 0.4740	 5.5960
 0.4750	 5.6000
 0.4760	 5.6000
 0.4770	 5.6100
 0.4780	 5.6160
 0.4790	 5.6130
 0.4800	 5.6040
 0.4810	 5.5940
 0.4820	 5.6070
 0.4830	 5.6160
 0.4840	 5.6160
 0.4850	 5.6290
 0.4860	 5.6400
 0.4870	 5.6490
 0.4880	 5.6550
 0.4890	 5.6660
 0.4900	 5.6810
 0.4910	 5.6960
 0.4920	 5.7080
 0.4930	 5.7280
 0.4940	 5.7490
 0.4950	 5.7690
 0.4960	 5.7880
 0.4970	 5.8080
 0.4980	 5.8360
 0.4990	 5.8710
 0.5000	 5.9110
 0.5010	 5.9500
 0.5020	 5.9910
 0.5030	 6.0320
 0.5040	 6.0940
 0.5050	 6.1600
 0.5060	 6.2170
 0.5070	 6.2890
 0.5080	 6.3710
 0.5090	 6.4580
 0.5100	 6.5550
 0.5110	 6.6570
 0.5120	 6.7670
 0.5130	 6.8880
 0.5140	 7.0190
 0.5150	 7.1660
 0.5160	 7.3230
 0.5170	 7.4840
 0.5180	 7.6570
 0.5190	 7.8430
 0.5200	 8.0340
 0.5210	 8.2210
 0.5220	 8.4070
 0.5230	 8.5940
 0.5240	 8.7940
 0.5250	 8.9860
 0.5260	 9.1670
 0.5270	 9.3350
 0.5280	 9.4970
 0.5290	 9.6540
 0.5300	 9.8070
 0.5310	 9.9470
 0.5320	10.0670
 0.5330	10.1800
 0.5340	10.2860
 0.5350	10.3770
 0.5360	10.4640
 0.5370	10.5460
 0.5380	10.6190
 0.5390	10.6890
 0.5400	10.7550
 0.5410	10.8170
 0.5420	10.8760
 0.5430	10.9330
 0.5440	10.9890
 0.5450	11.0420
 0.5460	11.0900
 0.5470	11.1290
 0.5480	11.1640
 0.5490	11.1960
 0.5500	11.2280
 0.5510	11.2540
 0.5520	11.2700
 0.5530	11.2720
 0.5540	11.2630
 0.5550	11.2420
 0.5560	11.2080
 0.5570	11.1630
 0.5580	11.1090
 0.5590	11.0470
 0.5600	10.9750
 0.5610	10.8880
 0.5620	10.8010
 0.5630	10.7090
 0.5640	10.6040
 0.5650	10.5000
 0.5660	10.3810
 0.5670	10.2450
 0.5680	10.1050
 0.5690	 9.9660
 0.5700	 9.8290
 0.5710	 9.6930
 0.5720	 9.5640
 0.5730	 9.4380
 0.5740	 9.3220
 0.5750	 9.2200
 0.5760	 9.1430
 0.5770	 9.0760
 0.5780	 9.0060
 0.5790	 8.9370
 0.5800	 8.8710
 0.5810	 8.8060
 0.5820	 8.7330
 0.5830	 8.6710
 0.5840	 8.6110
 0.5850	 8.5490
 0.5860	 8.4810
 0.5870	 8.4170
 0.5880	 8.3540
 0.5890	 8.2980
 0.5900	 8.2690
 0.5910	 8.2540
 0.5920	 8.2400
 0.5930	 8.2220
 0.5940	 8.1990
 0.5950	 8.1700
 0.5960	 8.1400
 0.5970	 8.1060
 0.5980	 8.0790
 0.5990	 8.0560
 0.6000	 8.0350
 0.6010	 8.0140
 0.6020	 7.9860
 0.6030	 7.9510
 0.6040	 7.9170
 0.6050	 7.8750
 0.6060	 7.8260
 0.6070	 7.7710
 0.6080	 7.7160
 0.6090	 7.6620
 0.6100	 7.6060
 0.6110	 7.5530
 0.6120	 7.4920
 0.6130	 7.4290
 0.6140	 7.3700
 0.6150	 7.3160
 0.6160	 7.2640
 0.6170	 7.2180
 0.6180	 7.1780
 0.6190	 7.1340
 0.6200	 7.0970
 0.6210	 7.0660
 0.6220	 7.0410
 0.6230	 7.0200
 0.6240	 7.0010
 0.6250	 6.9830
 0.6260	 6.9640
 0.6270	 6.9540
 0.6280	 6.9470
 0.6290	 6.9420
 0.6300	 6.9340
 0.6310	 6.9260
 0.6320	 6.9200
 0.6330	 6.9080
 0.6340	 6.8930
 0.6350	 6.8740
 0.6360	 6.8480
 0.6370	 6.8160
 0.6380	 6.7790
 0.6390	 6.7340
 0.6400	 6.6850
 0.6410	 6.6340
 0.6420	 6.5800
 0.6430	 6.5230
 0.6440	 6.4690
 0.6450	 6.4140
 0.6460	 6.3610
 0.6470	 6.3100
 0.6480	 6.2610
 0.6490	 6.2190
 0.6500	 6.1880
 0.6510	 6.1570
 0.6520	 6.1220
 0.6530	 6.0920
 0.6540	 6.0640
 0.6550	 6.0350
 0.6560	 6.0010
 0.6570	 5.9620
 0.6580	 5.9260
 0.6590	 5.8890
 0.6600	 5.8480
 0.6610	 5.8050
 0.6620	 5.7690
 0.6630	 5.7290
 0.6640	 5.6940
 0.6650	 5.6660
 0.6660	 5.6400
 0.6670	 5.6190
 0.6680	 5.6010
 0.6690	 5.5930
 0.6700	 5.5870
 0.6710	 5.5810
 0.6720	 5.5770
 0.6730	 5.5750
 0.6740	 5.5790
 0.6750	 5.5890
 0.6760	 5.6010
 0.6770	 5.6130
 0.6780	 5.6310
 0.6790	 5.6520
 0.6800	 5.6690
 0.6810	 5.6990
 0.6820	 5.7330
 0.6830	 5.7770
 0.6840	 5.8300
 0.6850	 5.8940
 0.6860	 5.9700
 0.6870	 6.0630
 0.6880	 6.1760
 0.6890	 6.3180
 0.6900	 6.4940
 0.6910	 6.7080
 0.6920	 6.9650
 0.6930	 7.2750
 0.6940	 7.6440
 0.6950	 8.0760
 0.6960	 8.5630
 0.6970	 9.1170
 0.6980	 9.7410
 0.6990	10.4200
 0.7000	11.1540
 0.7010	11.9370
 0.7020	12.7590
 0.7030	13.6150
 0.7040	14.4970
 0.7050	15.3950
 0.7060	16.3010
 0.7070	17.2110
 0.7080	18.1220
 0.7090	19.0310
 0.7100	19.9400
 0.7110	20.8430
 0.7120	21.7330
 0.7130	22.6090
 0.7140	23.4820
 0.7150	24.3440
 0.7160	25.1890
 0.7170	26.0180
 0.7180	26.8290
 0.7190	27.6210
 0.7200	28.3990
 0.7210	29.1530
 0.7220	29.8900
 0.7230	30.6080
 0.7240	31.3010
 0.7250	31.9680
 0.7260	32.6090
 0.7270	33.2260
 0.7280	33.8170
 0.7290	34.3780
 0.7300	34.9130
 0.7310	35.4240
 0.7320	35.9110
 0.7330	36.3720
 0.7340	36.8080
 0.7350	37.2240
 0.7360	37.6150
 0.7370	37.9830
 0.7380	38.3320
 0.7390	38.6600
 0.7400	38.9710
 0.7410	39.2630
 0.7420	39.5300
 0.7430	39.7820
 0.7440	40.0200
 0.7450	40.2430
 0.7460	40.4480
 0.7470	40.6360
 0.7480	40.8100
 0.7490	40.9740
 0.7500	41.1280
 0.7510	41.2660
 0.7520	41.3920
 0.7530	41.5100
 0.7540	41.6190
 0.7550	41.7170
 0.7560	41.8040
 0.7570	41.8840
 0.7580	41.9640
 0.7590	42.0350
 0.7600	42.0940
 0.7610	42.1540
 0.7620	42.2060
 0.7630	42.2530
 0.7640	42.3000
 0.7650	42.3380
 0.7660	42.3720
 0.7670	42.4050
 0.7680	42.4400
 0.7690	42.4680
 0.7700	42.4990
 0.7710	42.5290
 0.7720	42.5430
 0.7730	42.5630
 0.7740	42.5850
 0.7750	42.6050
 0.7760	42.6200
 0.7770	42.6400
 0.7780	42.6590
 0.7790	42.6690
 0.7800	42.6800
 0.7810	42.6970
 0.7820	42.7180
 0.7830	42.7300
 0.7840	42.7390
 0.7850	42.7460
 0.7860	42.7520
 0.7870	42.7660
 0.7880	42.7830
 0.7890	42.7970
 0.7900	42.8040
 0.7910	42.8130
 0.7920	42.8240
 0.7930	42.8350
 0.7940	42.8410
 0.7950	42.8500
 0.7960	42.8570
 0.7970	42.8620
 0.7980	42.8750
 0.7990	42.8790
 0.8000	42.8820
 0.8010	42.8900
 0.8020	42.8970
 0.8030	42.9000
 0.8040	42.9020
 0.8050	42.9060
 0.8060	42.9030
 0.8070	42.9080
 0.8080	42.9180
 0.8090	42.9210
 0.8100	42.9220
 0.8110	42.9260
 0.8120	42.9320
 0.8130	42.9380
 0.8140	42.9400
 0.8150	42.9390
 0.8160	42.9380
 0.8170	42.9440
 0.8180	42.9450
 0.8190	42.9460
 0.8200	42.9560
 0.8210	42.9560
 0.8220	42.9560
 0.8230	42.9570
 0.8240	42.9530
 0.8250	42.9520
 0.8260	42.9540
 0.8270	42.9580
 0.8280	42.9590
 0.8290	42.9620
 0.8300	42.9650
 0.8310	42.9640
 0.8320	42.9610
 0.8330	42.9640
 0.8340	42.9680
 0.8350	42.9660
 0.8360	42.9710
 0.8370	42.9750
 0.8380	42.9750
 0.8390	42.9780
 0.8400	42.9810
 0.8410	42.9870
 0.8420	42.9960
 0.8430	43.0080
 0.8440	43.0160
 0.8450	43.0190
 0.8460	43.0220
 0.8470	43.0290
 0.8480	43.0380
 0.8490	43.0450
 0.8500	43.0490
 0.8510	43.0540
 0.8520	43.0640
 0.8530	43.0760
 0.8540	43.0820
 0.8550	43.0840
 0.8560	43.0860
 0.8570	43.0940
 0.8580	43.1110
 0.8590	43.1120
 0.8600	43.1150
 0.8610	43.1280
 0.8620	43.1390
 0.8630	43.1430
 0.8640	43.1450
 0.8650	43.1500
 0.8660	43.1560
 0.8670	43.1650
 0.8680	43.1720
 0.8690	43.1720
 0.8700	43.1850
 0.8710	43.1920
 0.8720	43.1980
 0.8730	43.2100
 0.8740	43.2150
 0.8750	43.2200
 0.8760	43.2290
 0.8770	43.2380
 0.8780	43.2400
 0.8790	43.2450
 0.8800	43.2570
 0.8810	43.2680
 0.8820	43.2700
 0.8830	43.2700
 0.8840	43.2710
 0.8850	43.2690
 0.8860	43.2810
 0.8870	43.2930
 0.8880	43.2890
 0.8890	43.2950
 0.8900	43.2990
 0.8910	43.3050
 0.8920	43.3180
 0.8930	43.3200
 0.8940	43.3230
 0.8950	43.3280
 0.8960	43.3300
 0.8970	43.3300
 0.8980	43.3320
 0.8990	43.3340
 0.9000	43.3330
 0.9010	43.3470
 0.9020	43.3530
 0.9030	43.3480
 0.9040	43.3560
 0.9050	43.3650
 0.9060	43.3680
 0.9070	43.3650
 0.9080	43.3710
 0.9090	43.3780
 0.9100	43.3790
 0.9110	43.3740
 0.9120	43.3760
 0.9130	43.3800
 0.9140	43.3810
 0.9150	43.3800
 0.9160	43.3880
 0.9170	43.3860
 0.9180	43.3820
 0.9190	43.3900
 0.9200	43.3890
 0.9210	43.3850
 0.9220	43.3830
 0.9230	43.3810
 0.9240	43.3720
 0.9250	43.3720
 0.9260	43.3770
 0.9270	43.3710
 0.9280	43.3600
 0.9290	43.3550
 0.9300	43.3520
 0.9310	43.3360
 0.9320	43.3260
 0.9330	43.3130
 0.9340	43.2960
 0.9350	43.2920
 0.9360	43.2840
 0.9370	43.2640
 0.9380	43.2380
 0.9390	43.2270
 0.9400	43.2160
 0.9410	43.2020
 0.9420	43.1840
 0.9430	43.1560
 0.9440	43.1410
 0.9450	43.1240
 0.9460	43.0940
 0.9470	43.0670
 0.9480	43.0370
 0.9490	42.9980
 0.9500	42.9520
 0.9510	42.9180
 0.9520	42.8820
 0.9530	42.8330
 0.9540	42.7760
 0.9550	42.7390
 0.9560	42.6940
 0.9570	42.6470
 0.9580	42.6100
 0.9590	42.5700
 0.9600	42.5300
 0.9610	42.4920
 0.9620	42.4560
 0.9630	42.4250
 0.9640	42.4010
 0.9650	42.3830
 0.9660	42.3680
 0.9670	42.3580
 0.9680	42.3440
 0.9690	42.3290
 0.9700	42.3210
 0.9710	42.3150
 0.9720	42.3100
 0.9730	42.3060
 0.9740	42.3060
 0.9750	42.2850
 0.9760	42.2730
 0.9770	42.2860
 0.9780	42.3150
 0.9790	42.2990
 0.9800	42.2970
 0.9810	42.3120
 0.9820	42.3190
 0.9830	42.3200
 0.9840	42.3290
 0.9850	42.3430
 0.9860	42.3550
 0.9870	42.3730
 0.9880	42.3860
 0.9890	42.3970
 0.9900	42.4120
 0.9910	42.4280
 0.9920	42.4490
 0.9930	42.4680
 0.9940	42.4770
 0.9950	42.5080
 0.9960	42.5400
 0.9970	42.5570
 0.9980	42.5590
 0.9990	42.6020
 1.0000	42.7150
 1.0010	42.8940
 1.0020	43.0020
 1.0030	43.0250
 1.0040	43.0520
 1.0050	43.0750
 1.0060	43.0940
 1.0070	43.1110
 1.0080	43.1300
 1.0090	43.1470
 1.0100	43.1660
 1.0110	43.1840
 1.0120	43.2050
 1.0130	43.2280
 1.0140	43.2480
 1.0150	43.2690
 1.0160	43.2950
 1.0170	43.3160
 1.0180	43.3300
 1.0190	43.3480
 1.0200	43.3630
 1.0210	43.3760
 1.0220	43.3960
 1.0230	43.4130
 1.0240	43.4290
 1.0250	43.4480
 1.0260	43.4690
 1.0270	43.4870
 1.0280	43.5070
 1.0290	43.5250
 1.0300	43.5400
 1.0310	43.5550
 1.0320	43.5700
 1.0330	43.5830
 1.0340	43.5950
 1.0350	43.6080
 1.0360	43.6240
 1.0370	43.6400
 1.0380	43.6540
 1.0390	43.6680
 1.0400	43.6800
 1.0410	43.6890
 1.0420	43.7020
 1.0430	43.7180
 1.0440	43.7310
 1.0450	43.7460
 1.0460	43.7590
 1.0470	43.7710
 1.0480	43.7830
 1.0490	43.7940
 1.0500	43.8070
 1.0510	43.8210
 1.0520	43.8310
 1.0530	43.8400
 1.0540	43.8480
 1.0550	43.8570
 1.0560	43.8660
 1.0570	43.8720
 1.0580	43.8790
 1.0590	43.8860
 1.0600	43.8910
 1.0610	43.8950
 1.0620	43.9020
 1.0630	43.9070
 1.0640	43.9090
 1.0650	43.9110
 1.0660	43.9120
 1.0670	43.9140
 1.0680	43.9160
 1.0690	43.9170
 1.0700	43.9190
 1.0710	43.9230
 1.0720	43.9250
 1.0730	43.9260
 1.0740	43.9270
 1.0750	43.9290
 1.0760	43.9280
 1.0770	43.9250
 1.0780	43.9210
 1.0790	43.9130
 1.0800	43.9080
 1.0810	43.9040
 1.0820	43.9010
 1.0830	43.8990
 1.0840	43.8960
 1.0850	43.8910
 1.0860	43.8870
 1.0870	43.8840
 1.0880	43.8810
 1.0890	43.8770
 1.0900	43.8740
 1.0910	43.8680
 1.0920	43.8570
 1.0930	43.8490
 1.0940	43.8400
 1.0950	43.8310
 1.0960	43.8220
 1.0970	43.8150
 1.0980	43.8090
 1.0990	43.8020
 1.1000	43.7970
 1.1010	43.7900
 1.1020	43.7810
 1.1030	43.7720
 1.1040	43.7650
 1.1050	43.7540
 1.1060	43.7430
 1.1070	43.7300
 1.1080	43.7200
 1.1090	43.7100
 1.1100	43.6990
 1.1110	43.6910
 1.1120	43.6780
 1.1130	43.6610
 1.1140	43.6450
 1.1150	43.6280
 1.1160	43.6100
 1.1170	43.5910
 1.1180	43.5700
 1.1190	43.5490
 1.1200	43.5250
 1.1210	43.4990
 1.1220	43.4700
 1.1230	43.4390
 1.1240	43.4070
 1.1250	43.3700
 1.1260	43.3340
 1.1270	43.2900
 1.1280	43.2400
 1.1290	43.1850
 1.1300	43.1250
 1.1310	43.0610
 1.1320	42.9930
 1.1330	42.9180
 1.1340	42.8380
 1.1350	42.7510
 1.1360	42.6580
 1.1370	42.5580
 1.1380	42.4530
 1.1390	42.3440
 1.1400	42.2300
 1.1410	42.1130
 1.1420	41.9940
 1.1430	41.8690
 1.1440	41.7460
 1.1450	41.6200
 1.1460	41.4990
 1.1470	41.3770
 1.1480	41.2600
 1.1490	41.1440
 1.1500	41.0350
 1.1510	40.9290
 1.1520	40.8300
 1.1530	40.7360
 1.1540	40.6490
 1.1550	40.5680
 1.1560	40.4960
 1.1570	40.4300
 1.1580	40.3720
 1.1590	40.3200
 1.1600	40.2730
 1.1610	40.2310
 1.1620	40.1930
 1.1630	40.1600
 1.1640	40.1330
 1.1650	40.1080
 1.1660	40.0880
 1.1670	40.0690
 1.1680	40.0540
 1.1690	40.0380
 1.1700	40.0250
 1.1710	40.0120
 1.1720	40.0010
 1.1730	39.9890
 1.1740	39.9780
 1.1750	39.9670
 1.1760	39.9550
 1.1770	39.9440
 1.1780	39.9310
 1.1790	39.9170
 1.1800	39.9010
 1.1810	39.8840
 1.1820	39.8680
 1.1830	39.8510
 1.1840	39.8330
 1.1850	39.8180
 1.1860	39.8020
 1.1870	39.7860
 1.1880	39.7710
 1.1890	39.7580
 1.1900	39.7460
 1.1910	39.7360
 1.1920	39.7270
 1.1930	39.7190
 1.1940	39.7120
 1.1950	39.7060
 1.1960	39.7010
 1.1970	39.6960
 1.1980	39.6940
 1.1990	39.6940
 1.2000	39.6920
 1.2010	39.6940
 1.2020	39.6960
 1.2030	39.7010
 1.2040	39.7080
 1.2050	39.7150
 1.2060	39.7240
 1.2070	39.7330
 1.2080	39.7420
 1.2090	39.7540
 1.2100	39.7670
 1.2110	39.7840
 1.2120	39.8040
 1.2130	39.8260
 1.2140	39.8510
 1.2150	39.8780
 1.2160	39.9080
 1.2170	39.9390
 1.2180	39.9690
 1.2190	40.0030
 1.2200	40.0390
 1.2210	40.0740
 1.2220	40.1150
 1.2230	40.1560
 1.2240	40.1930
 1.2250	40.2280
 1.2260	40.2640
 1.2270	40.2990
 1.2280	40.3330
 1.2290	40.3680
 1.2300	40.4030
 1.2310	40.4350
 1.2320	40.4660
 1.2330	40.4980
 1.2340	40.5270
 1.2350	40.5540
 1.2360	40.5810
 1.2370	40.6080
 1.2380	40.6340
 1.2390	40.6560
 1.2400	40.6790
 1.2410	40.7020
 1.2420	40.7230
 1.2430	40.7450
 1.2440	40.7650
 1.2450	40.7830
 1.2460	40.8020
 1.2470	40.8190
 1.2480	40.8380
 1.2490	40.8560
 1.2500	40.8720
 1.2510	40.8870
 1.2520	40.9010
 1.2530	40.9140
 1.2540	40.9260
 1.2550	40.9390
 1.2560	40.9520
 1.2570	40.9630
 1.2580	40.9720
 1.2590	40.9790
 1.2600	40.9820
 1.2610	40.9880
 1.2620	40.9920
 1.2630	40.9970
 1.2640	41.0020
 1.2650	41.0040
 1.2660	41.0050
 1.2670	41.0060
 1.2680	41.0080
 1.2690	41.0090
 1.2700	41.0100
 1.2710	41.0080
 1.2720	41.0050
 1.2730	40.9990
 1.2740	40.9930
 1.2750	40.9890
 1.2760	40.9830
 1.2770	40.9780
 1.2780	40.9720
 1.2790	40.9630
 1.2800	40.9540
 1.2810	40.9430
 1.2820	40.9330
 1.2830	40.9250
 1.2840	40.9140
 1.2850	40.8980
 1.2860	40.8820
 1.2870	40.8640
 1.2880	40.8430
 1.2890	40.8190
 1.2900	40.7970
 1.2910	40.7720
 1.2920	40.7440
 1.2930	40.7140
 1.2940	40.6830
 1.2950	40.6500
 1.2960	40.6130
 1.2970	40.5750
 1.2980	40.5360
 1.2990	40.4940
 1.3000	40.4490
 1.3010	40.4030
 1.3020	40.3530
 1.3030	40.3000
 1.3040	40.2440
 1.3050	40.1870
 1.3060	40.1270
 1.3070	40.0650
 1.3080	40.0040
 1.3090	39.9400
 1.3100	39.8730
 1.3110	39.8020
 1.3120	39.7260
 1.3130	39.6490
 1.3140	39.5690
 1.3150	39.4870
 1.3160	39.4030
 1.3170	39.3190
 1.3180	39.2280
 1.3190	39.1340
 1.3200	39.0390
 1.3210	38.9380
 1.3220	38.8370
 1.3230	38.7330
 1.3240	38.6230
 1.3250	38.5130
 1.3260	38.3990
 1.3270	38.2810
 1.3280	38.1640
 1.3290	38.0430
 1.3300	37.9200
 1.3310	37.7960
 1.3320	37.6680
 1.3330	37.5390
 1.3340	37.4090
 1.3350	37.2780
 1.3360	37.1450
 1.3370	37.0130
 1.3380	36.8800
 1.3390	36.7470
 1.3400	36.6130
 1.3410	36.4800
 1.3420	36.3490
 1.3430	36.2170
 1.3440	36.0870
 1.3450	35.9570
 1.3460	35.8270
 1.3470	35.6990
 1.3480	35.5710
 1.3490	35.4450
 1.3500	35.3200
 1.3510	35.1970
 1.3520	35.0720
 1.3530	34.9510
 1.3540	34.8290
 1.3550	34.7060
 1.3560	34.5830
 1.3570	34.4580
 1.3580	34.3330
 1.3590	34.2060
 1.3600	34.0770
 1.3610	33.9450
 1.3620	33.8090
 1.3630	33.6670
 1.3640	33.5180
 1.3650	33.3630
 1.3660	33.2010
 1.3670	33.0310
 1.3680	32.8540
 1.3690	32.6670
 1.3700	32.4660
 1.3710	32.2560
 1.3720	32.0340
 1.3730	31.7960
 1.3740	31.5460
 1.3750	31.2790
 1.3760	30.9920
 1.3770	30.6870
 1.3780	30.3580
 1.3790	30.0090
 1.3800	29.6390
 1.3810	29.2430
 1.3820	28.8310
 1.3830	28.4000
 1.3840	27.9510
 1.3850	27.4830
 1.3860	27.0020
 1.3870	26.4990
 1.3880	25.9920
 1.3890	25.4730
 1.3900	24.9440
 1.3910	24.4160
 1.3920	23.8820
 1.3930	23.3440
 1.3940	22.8090
 1.3950	22.2720
 1.3960	21.7410
 1.3970	21.2210
 1.3980	20.7100
 1.3990	20.2180
 1.4000	19.7380
 1.4010	19.2720
 1.4020	18.8260
 1.4030	18.3920
 1.4040	17.9800
 1.4050	17.5900
 1.4060	17.2190
 1.4070	16.8710
 1.4080	16.5430
 1.4090	16.2320
 1.4100	15.9450
 1.4110	15.6760
 1.4120	15.4270
 1.4130	15.1970
 1.4140	14.9840
 1.4150	14.7880
 1.4160	14.6080
 1.4170	14.4420
 1.4180	14.2910
 1.4190	14.1530
 1.4200	14.0260
 1.4210	13.9110
 1.4220	13.8070
 1.4230	13.7140
 1.4240	13.6310
 1.4250	13.5550
 1.4260	13.4900
 1.4270	13.4290
 1.4280	13.3770
 1.4290	13.3310
 1.4300	13.2920
 1.4310	13.2580
 1.4320	13.2320
 1.4330	13.2100
 1.4340	13.1930
 1.4350	13.1790
 1.4360	13.1690
 1.4370	13.1630
 1.4380	13.1610
 1.4390	13.1620
 1.4400	13.1660
 1.4410	13.1720
 1.4420	13.1800
 1.4430	13.1900
 1.4440	13.2030
 1.4450	13.2170
 1.4460	13.2330
 1.4470	13.2500
 1.4480	13.2690
 1.4490	13.2880
 1.4500	13.3090
 1.4510	13.3310
 1.4520	13.3540
 1.4530	13.3780
 1.4540	13.4030
 1.4550	13.4290
 1.4560	13.4570
 1.4570	13.4870
 1.4580	13.5180
 1.4590	13.5520
 1.4600	13.5890
 1.4610	13.6300
 1.4620	13.6730
 1.4630	13.7220
 1.4640	13.7740
 1.4650	13.8300
 1.4660	13.8900
 1.4670	13.9550
 1.4680	14.0230
 1.4690	14.0950
 1.4700	14.1720
 1.4710	14.2540
 1.4720	14.3380
 1.4730	14.4260
 1.4740	14.5170
 1.4750	14.6090
 1.4760	14.7060
 1.4770	14.8040
 1.4780	14.9040
 1.4790	15.0060
 1.4800	15.1090
 1.4810	15.2150
 1.4820	15.3210
 1.4830	15.4300
 1.4840	15.5400
 1.4850	15.6500
 1.4860	15.7590
 1.4870	15.8700
 1.4880	15.9810
 1.4890	16.0920
 1.4900	16.2040
 1.4910	16.3190
 1.4920	16.4320
 1.4930	16.5460
 1.4940	16.6600
 1.4950	16.7750
 1.4960	16.8890
 1.4970	17.0040
 1.4980	17.1190
 1.4990	17.2330
 1.5000	17.3480
 1.5010	17.4650
 1.5020	17.5790
 1.5030	17.6940
 1.5040	17.8070
 1.5050	17.9180
 1.5060	18.0310
 1.5070	18.1450
 1.5080	18.2580
 1.5090	18.3710
 1.5100	18.4840
 1.5110	18.5950
 1.5120	18.7050
 1.5130	18.8140
 1.5140	18.9230
 1.5150	19.0300
 1.5160	19.1360
 1.5170	19.2430
 1.5180	19.3490
 1.5190	19.4540
 1.5200	19.5580
 1.5210	19.6590
 1.5220	19.7600
 1.5230	19.8600
 1.5240	19.9600
 1.5250	20.0590
 1.5260	20.1580
 1.5270	20.2560
 1.5280	20.3530
 1.5290	20.4490
 1.5300	20.5430
 1.5310	20.6350
 1.5320	20.7260
 1.5330	20.8180
 1.5340	20.9090
 1.5350	20.9990
 1.5360	21.0890
 1.5370	21.1780
 1.5380	21.2650
 1.5390	21.3520
 1.5400	21.4380
 1.5410	21.5240
 1.5420	21.6070
 1.5430	21.6900
 1.5440	21.7730
 1.5450	21.8550
 1.5460	21.9360
 1.5470	22.0190
 1.5480	22.0990
 1.5490	22.1790
 1.5500	22.2590
 1.5510	22.3370
 1.5520	22.4160
 1.5530	22.4920
 1.5540	22.5670
 1.5550	22.6430
 1.5560	22.7160
 1.5570	22.7900
 1.5580	22.8630
 1.5590	22.9350
 1.5600	23.0060
 1.5610	23.0760
 1.5620	23.1460
 1.5630	23.2160
 1.5640	23.2830
 1.5650	23.3520
 1.5660	23.4190
 1.5670	23.4850
 1.5680	23.5530
 1.5690	23.6200
 1.5700	23.6840
 1.5710	23.7490
 1.5720	23.8120
 1.5730	23.8760
 1.5740	23.9410
 1.5750	24.0060
 1.5760	24.0710
 1.5770	24.1350
 1.5780	24.1990
 1.5790	24.2620
 1.5800	24.3250
 1.5810	24.3880
 1.5820	24.4500
 1.5830	24.5110
 1.5840	24.5730
 1.5850	24.6350
 1.5860	24.6970
 1.5870	24.7590
 1.5880	24.8200
 1.5890	24.8820
 1.5900	24.9440
 1.5910	25.0050
 1.5920	25.0670
 1.5930	25.1280
 1.5940	25.1890
 1.5950	25.2500
 1.5960	25.3100
 1.5970	25.3690
 1.5980	25.4290
 1.5990	25.4870
 1.6000	25.5470
 1.6010	25.6070
 1.6020	25.6660
 1.6030	25.7250
 1.6040	25.7840
 1.6050	25.8410
 1.6060	25.8970
 1.6070	25.9520
 1.6080	26.0040
 1.6090	26.0570
 1.6100	26.1090
 1.6110	26.1590
 1.6120	26.2090
 1.6130	26.2590
 1.6140	26.3060
 1.6150	26.3530
 1.6160	26.4020
 1.6170	26.4490
 1.6180	26.4950
 1.6190	26.5430
 1.6200	26.5880
 1.6210	26.6310
 1.6220	26.6750
 1.6230	26.7160
 1.6240	26.7560
 1.6250	26.7950
 1.6260	26.8350
 1.6270	26.8720
 1.6280	26.9090
 1.6290	26.9450
 1.6300	26.9810
 1.6310	27.0150
 1.6320	27.0470
 1.6330	27.0790
 1.6340	27.1080
 1.6350	27.1370
 1.6360	27.1660
 1.6370	27.1910
 1.6380	27.2130
 1.6390	27.2330
 1.6400	27.2510
 1.6410	27.2670
 1.6420	27.2820
 1.6430	27.2950
 1.6440	27.3050
 1.6450	27.3120
 1.6460	27.3160
 1.6470	27.3190
 1.6480	27.3210
 1.6490	27.3210
 1.6500	27.3190
 1.6510	27.3140
 1.6520	27.3070
 1.6530	27.2980
 1.6540	27.2900
 1.6550	27.2780
 1.6560	27.2680
 1.6570	27.2590
 1.6580	27.2480
 1.6590	27.2380
 1.6600	27.2290
 1.6610	27.2180
 1.6620	27.2090
 1.6630	27.2020
 1.6640	27.1960
 1.6650	27.1880
 1.6660	27.1820
 1.6670	27.1740
 1.6680	27.1640
 1.6690	27.1540
 1.6700	27.1420
 1.6710	27.1290
 1.6720	27.1140
 1.6730	27.0980
 1.6740	27.0790
 1.6750	27.0590
 1.6760	27.0380
 1.6770	27.0130
 1.6780	26.9850
 1.6790	26.9550
 1.6800	26.9210
 1.6810	26.8870
 1.6820	26.8510
 1.6830	26.8130
 1.6840	26.7710
 1.6850	26.7280
 1.6860	26.6820
 1.6870	26.6350
 1.6880	26.5880
 1.6890	26.5360
 1.6900	26.4850
 1.6910	26.4300
 1.6920	26.3770
 1.6930	26.3260
 1.6940	26.2740
 1.6950	26.2230
 1.6960	26.1710
 1.6970	26.1180
 1.6980	26.0660
 1.6990	26.0130
 1.7000	25.9590
 1.7010	25.9050
 1.7020	25.8480
 1.7030	25.7890
 1.7040	25.7310
 1.7050	25.6730
 1.7060	25.6150
 1.7070	25.5580
 1.7080	25.4980
 1.7090	25.4370
 1.7100	25.3760
 1.7110	25.3150
 1.7120	25.2540
 1.7130	25.1930
 1.7140	25.1310
 1.7150	25.0710
 1.7160	25.0110
 1.7170	24.9510
 1.7180	24.8920
 1.7190	24.8340
 1.7200	24.7760
 1.7210	24.7210
 1.7220	24.6660
 1.7230	24.6110
 1.7240	24.5580
 1.7250	24.5050
 1.7260	24.4550
 1.7270	24.4110
 1.7280	24.3710
 1.7290	24.3330
 1.7300	24.3010
 1.7310	24.2740
 1.7320	24.2530
 1.7330	24.2340
 1.7340	24.2220
 1.7350	24.2080
 1.7360	24.1950
 1.7370	24.1790
 1.7380	24.1620
 1.7390	24.1410
 1.7400	24.1200
 1.7410	24.0920
 1.7420	24.0610
 1.7430	24.0260
 1.7440	23.9860
 1.7450	23.9450
 1.7460	23.9020
 1.7470	23.8560
 1.7480	23.8070
 1.7490	23.7550
 1.7500	23.6980
 1.7510	23.6440
 1.7520	23.5890
 1.7530	23.5320
 1.7540	23.4750
 1.7550	23.4190
 1.7560	23.3630
 1.7570	23.3090
 1.7580	23.2580
 1.7590	23.2050
 1.7600	23.1530
 1.7610	23.1060
 1.7620	23.0590
 1.7630	23.0150
 1.7640	22.9720
 1.7650	22.9310
 1.7660	22.8930
 1.7670	22.8600
 1.7680	22.8280
 1.7690	22.8000
 1.7700	22.7730
 1.7710	22.7470
 1.7720	22.7220
 1.7730	22.6990
 1.7740	22.6750
 1.7750	22.6510
 1.7760	22.6280
 1.7770	22.6070
 1.7780	22.5850
 1.7790	22.5640
 1.7800	22.5440
 1.7810	22.5240
 1.7820	22.5060
 1.7830	22.4890
 1.7840	22.4730
 1.7850	22.4570
 1.7860	22.4450
 1.7870	22.4340
 1.7880	22.4240
 1.7890	22.4160
 1.7900	22.4070
 1.7910	22.4010
 1.7920	22.3970
 1.7930	22.3930
 1.7940	22.3890
 1.7950	22.3870
 1.7960	22.3860
 1.7970	22.3850
 1.7980	22.3870
 1.7990	22.3900
 1.8000	22.3930
 1.8010	22.3960
 1.8020	22.4000
 1.8030	22.4050
 1.8040	22.4120
 1.8050	22.4170
 1.8060	22.4220
 1.8070	22.4270
 1.8080	22.4300
 1.8090	22.4350
 1.8100	22.4430
 1.8110	22.4480
 1.8120	22.4540
 1.8130	22.4580
 1.8140	22.4630
 1.8150	22.4700
 1.8160	22.4740
 1.8170	22.4800
 1.8180	22.4840
 1.8190	22.4870
 1.8200	22.4880
 1.8210	22.4870
 1.8220	22.4860
 1.8230	22.4840
 1.8240	22.4820
 1.8250	22.4800
 1.8260	22.4770
 1.8270	22.4730
 1.8280	22.4680
 1.8290	22.4630
 1.8300	22.4120
 1.8310	22.3260
 1.8320	22.2650
 1.8330	22.2470
 1.8340	22.2270
 1.8350	22.2000
 1.8360	22.1710
 1.8370	22.1360
 1.8380	22.0980
 1.8390	22.0560
 1.8400	22.0130
 1.8410	21.9610
 1.8420	21.9030
 1.8430	21.8400
 1.8440	21.7700
 1.8450	21.6940
 1.8460	21.6160
 1.8470	21.5280
 1.8480	21.4270
 1.8490	21.3170
 1.8500	21.1980
 1.8510	21.0690
 1.8520	20.9270
 1.8530	20.7780
 1.8540	20.6240
 1.8550	20.4580
 1.8560	20.2820
 1.8570	20.0940
 1.8580	19.8890
 1.8590	19.6730
 1.8600	19.4430
 1.8610	19.1990
 1.8620	18.9410
 1.8630	18.6730
 1.8640	18.3880
 1.8650	18.0870
 1.8660	17.7710
 1.8670	17.4340
 1.8680	17.0860
 1.8690	16.7250
 1.8700	16.3480
 1.8710	15.9570
 1.8720	15.5580
 1.8730	15.1460
 1.8740	14.7240
 1.8750	14.2970
 1.8760	13.8640
 1.8770	13.4300
 1.8780	12.9970
 1.8790	12.5620
 1.8800	12.1380
 1.8810	11.7190
 1.8820	11.3040
 1.8830	10.8940
 1.8840	10.4930
 1.8850	10.0980
 1.8860	 9.7110
 1.8870	 9.3420
 1.8880	 8.9850
 1.8890	 8.6480
 1.8900	 8.3300
 1.8910	 8.0290
 1.8920	 7.7430
 1.8930	 7.4810
 1.8940	 7.2350
 1.8950	 7.0050
 1.8960	 6.7940
 1.8970	 6.6000
 1.8980	 6.4270
 1.8990	 6.2680
 1.9000	 6.1230
 1.9010	 5.9980
 1.9020	 5.8790
 1.9030	 5.7760
 1.9040	 5.6840
 1.9050	 5.6000
 1.9060	 5.5260
 1.9070	 5.4640
 1.9080	 5.4090
 1.9090	 5.3600
 1.9100	 5.3180
 1.9110	 5.2800
 1.9120	 5.2460
 1.9130	 5.2150
 1.9140	 5.1910
 1.9150	 5.1700
 1.9160	 5.1530
 1.9170	 5.1360
 1.9180	 5.1230
 1.9190	 5.1110
 1.9200	 5.1030
 1.9210	 5.0990
 1.9220	 5.0950
 1.9230	 5.0940
 1.9240	 5.0940
 1.9250	 5.0910
 1.9260	 5.0920
 1.9270	 5.0940
 1.9280	 5.0990
 1.9290	 5.1060
 1.9300	 5.1150
 1.9310	 5.1220
 1.9320	 5.1320
 1.9330	 5.1400
 1.9340	 5.1500
 1.9350	 5.1600
 1.9360	 5.1740
 1.9370	 5.1880
 1.9380	 5.2040
 1.9390	 5.2230
 1.9400	 5.2410
 1.9410	 5.2590
 1.9420	 5.2750
 1.9430	 5.2940
 1.9440	 5.3150
 1.9450	 5.3340
 1.9460	 5.3540
 1.9470	 5.3780
 1.9480	 5.4030
 1.9490	 5.4300
 1.9500	 5.4550
 1.9510	 5.4810
 1.9520	 5.5110
 1.9530	 5.5410
 1.9540	 5.5710
 1.9550	 5.6000
 1.9560	 5.6300
 1.9570	 5.6590
 1.9580	 5.6840
 1.9590	 5.7140
 1.9600	 5.7460
 1.9610	 5.7780
 1.9620	 5.8140
 1.9630	 5.8480
 1.9640	 5.8820
 1.9650	 5.9200
 1.9660	 5.9550
 1.9670	 5.9900
 1.9680	 6.0280
 1.9690	 6.0670
 1.9700	 6.1080
 1.9710	 6.1470
 1.9720	 6.1880
 1.9730	 6.2280
 1.9740	 6.2700
 1.9750	 6.3120
 1.9760	 6.3590
 1.9770	 6.4020
 1.9780	 6.4470
 1.9790	 6.4930
 1.9800	 6.5370
 1.9810	 6.5820
 1.9820	 6.6300
 1.9830	 6.6780
 1.9840	 6.7260
 1.9850	 6.7750
 1.9860	 6.8260
 1.9870	 6.8760
 1.9880	 6.9290
 1.9890	 6.9810
 1.9900	 7.0340
 1.9910	 7.0860
 1.9920	 7.1380
 1.9930	 7.1890
 1.9940	 7.2400
 1.9950	 7.2890
 1.9960	 7.3400
 1.9970	 7.3880
 1.9980	 7.4390
 1.9990	 7.4910
 2.0000	 7.5430
 2.0010	 7.5950
 2.0020	 7.6480
 2.0030	 7.6980
 2.0040	 7.7480
 2.0050	 7.7990
 2.0060	 7.8480
 2.0070	 7.9000
 2.0080	 7.9520
 2.0090	 8.0030
 2.0100	 8.0560
 2.0110	 8.1070
 2.0120	 8.1560
 2.0130	 8.2060
 2.0140	 8.2540
 2.0150	 8.3010
 2.0160	 8.3450
 2.0170	 8.3900
 2.0180	 8.4330
 2.0190	 8.4780
 2.0200	 8.5210
 2.0210	 8.5620
 2.0220	 8.6020
 2.0230	 8.6430
 2.0240	 8.6830
 2.0250	 8.7210
 2.0260	 8.7580
 2.0270	 8.7950
 2.0280	 8.8320
 2.0290	 8.8670
 2.0300	 8.9000
 2.0310	 8.9330
 2.0320	 8.9670
 2.0330	 8.9980
 2.0340	 9.0300
 2.0350	 9.0600
 2.0360	 9.0890
 2.0370	 9.1180
 2.0380	 9.1480
 2.0390	 9.1730
 2.0400	 9.1970
 2.0410	 9.2200
 2.0420	 9.2440
 2.0430	 9.2660
 2.0440	 9.2900
 2.0450	 9.3150
 2.0460	 9.3350
 2.0470	 9.3560
 2.0480	 9.3750
 2.0490	 9.3930
 2.0500	 9.4100
 2.0510	 9.4310
 2.0520	 9.4510
 2.0530	 9.4730
 2.0540	 9.4930
 2.0550	 9.5120
 2.0560	 9.5310
 2.0570	 9.5520
 2.0580	 9.5740
 2.0590	 9.5970
 2.0600	 9.6210
 2.0610	 9.6440
 2.0620	 9.6690
 2.0630	 9.6900
 2.0640	 9.7110
 2.0650	 9.7300
 2.0660	 9.7480
 2.0670	 9.7670
 2.0680	 9.7900
 2.0690	 9.8120
 2.0700	 9.8340
 2.0710	 9.8560
 2.0720	 9.8800
 2.0730	 9.9010
 2.0740	 9.9250
 2.0750	 9.9480
 2.0760	 9.9700
 2.0770	 9.9940
 2.0780	10.0140
 2.0790	10.0320
 2.0800	10.0520
 2.0810	10.0720
 2.0820	10.0930
 2.0830	10.1180
 2.0840	10.1420
 2.0850	10.1630
 2.0860	10.1860
 2.0870	10.2100
 2.0880	10.2350
 2.0890	10.2580
 2.0900	10.2840
 2.0910	10.3070
 2.0920	10.3270
 2.0930	10.3470
 2.0940	10.3660
 2.0950	10.3850
 2.0960	10.4070
 2.0970	10.4300
 2.0980	10.4550
 2.0990	10.4800
 2.1000	10.5050
 2.1010	10.5280
 2.1020	10.5510
 2.1030	10.5750
 2.1040	10.5950
 2.1050	10.6190
 2.1060	10.6430
 2.1070	10.6660
 2.1080	10.6880
 2.1090	10.7090
 2.1100	10.7310
 2.1110	10.7510
 2.1120	10.7740
 2.1130	10.8020
 2.1140	10.8260
 2.1150	10.8470
 2.1160	10.8710
 2.1170	10.8920
 2.1180	10.9120
 2.1190	10.9350
 2.1200	10.9560
 2.1210	10.9750
 2.1220	10.9970
 2.1230	11.0190
 2.1240	11.0430
 2.1250	11.0660
 2.1260	11.0890
 2.1270	11.1110
 2.1280	11.1330
 2.1290	11.1540
 2.1300	11.1730
 2.1310	11.1950
 2.1320	11.2190
 2.1330	11.2400
 2.1340	11.2600
 2.1350	11.2830
 2.1360	11.3040
 2.1370	11.3250
 2.1380	11.3480
 2.1390	11.3710
 2.1400	11.3940
 2.1410	11.4140
 2.1420	11.4360
 2.1430	11.4620
 2.1440	11.4850
 2.1450	11.5060
 2.1460	11.5280
 2.1470	11.5490
 2.1480	11.5710
 2.1490	11.5930
 2.1500	11.6150
 2.1510	11.6370
 2.1520	11.6580
 2.1530	11.6800
 2.1540	11.7000
 2.1550	11.7190
 2.1560	11.7380
 2.1570	11.7550
 2.1580	11.7740
 2.1590	11.7930
 2.1600	11.8120
 2.1610	11.8330
 2.1620	11.8530
 2.1630	11.8730
 2.1640	11.8930
 2.1650	11.9090
 2.1660	11.9220
 2.1670	11.9390
 2.1680	11.9550
 2.1690	11.9740
 2.1700	11.9990
 2.1710	12.0180
 2.1720	12.0340
 2.1730	12.0530
 2.1740	12.0690
 2.1750	12.0890
 2.1760	12.1140
 2.1770	12.1340
 2.1780	12.1510
 2.1790	12.1710
 2.1800	12.1900
 2.1810	12.2090
 2.1820	12.2300
 2.1830	12.2500
 2.1840	12.2690
 2.1850	12.2840
 2.1860	12.3030
 2.1870	12.3220
 2.1880	12.3410
 2.1890	12.3630
 2.1900	12.3840
 2.1910	12.4040
 2.1920	12.4250
 2.1930	12.4480
 2.1940	12.4680
 2.1950	12.4880
 2.1960	12.5060
 2.1970	12.5190
 2.1980	12.5350
 2.1990	12.5540
 2.2000	12.5710
 2.2010	12.5880
 2.2020	12.6050
 2.2030	12.6240
 2.2040	12.6390
 2.2050	12.6520
 2.2060	12.6680
 2.2070	12.6810
 2.2080	12.6910
 2.2090	12.7030
 2.2100	12.7170
 2.2110	12.7270
 2.2120	12.7340
 2.2130	12.7420
 2.2140	12.7530
 2.2150	12.7570
 2.2160	12.7590
 2.2170	12.7610
 2.2180	12.7580
 2.2190	12.7570
 2.2200	12.7600
 2.2210	12.7570
 2.2220	12.7510
 2.2230	12.7420
 2.2240	12.7290
 2.2250	12.7150
 2.2260	12.6990
 2.2270	12.6810
 2.2280	12.6650
 2.2290	12.6410
 2.2300	12.6100
 2.2310	12.5780
 2.2320	12.5390
 2.2330	12.4950
 2.2340	12.4540
 2.2350	12.4150
 2.2360	12.3710
 2.2370	12.3280
 2.2380	12.2800
 2.2390	12.2260
 2.2400	12.1750
 2.2410	12.1250
 2.2420	12.0710
 2.2430	12.0160
 2.2440	11.9590
 2.2450	11.8970
 2.2460	11.8360
 2.2470	11.7710
 2.2480	11.7100
 2.2490	11.6490
 2.2500	11.5880
 2.2510	11.5330
 2.2520	11.4720
 2.2530	11.4040
 2.2540	11.3420
 2.2550	11.2770
 2.2560	11.2160
 2.2570	11.1610
 2.2580	11.1050
 2.2590	11.0470
 2.2600	10.9920
 2.2610	10.9390
 2.2620	10.8850
 2.2630	10.8300
 2.2640	10.7780
 2.2650	10.7290
 2.2660	10.6790
 2.2670	10.6340
 2.2680	10.5950
 2.2690	10.5510
 2.2700	10.5100
 2.2710	10.4680
 2.2720	10.4230
 2.2730	10.3790
 2.2740	10.3350
 2.2750	10.2950
 2.2760	10.2570
 2.2770	10.2230
 2.2780	10.1960
 2.2790	10.1640
 2.2800	10.1330
 2.2810	10.1000
 2.2820	10.0660
 2.2830	10.0340
 2.2840	10.0040
 2.2850	 9.9750
 2.2860	 9.9470
 2.2870	 9.9150
 2.2880	 9.8820
 2.2890	 9.8470
 2.2900	 9.8140
 2.2910	 9.7780
 2.2920	 9.7400
 2.2930	 9.7010
 2.2940	 9.6590
 2.2950	 9.6150
 2.2960	 9.5720
 2.2970	 9.5300
 2.2980	 9.4880
 2.2990	 9.4410
 2.3000	 9.3950
 2.3010	 9.3540
 2.3020	 9.3110
 2.3030	 9.2660
 2.3040	 9.2250
 2.3050	 9.1820
 2.3060	 9.1400
 2.3070	 9.1040
 2.3080	 9.0710
 2.3090	 9.0420
 2.3100	 9.0220
 2.3110	 9.0040
 2.3120	 8.9870
 2.3130	 8.9760
 2.3140	 8.9650
 2.3150	 8.9520
 2.3160	 8.9430
 2.3170	 8.9380
 2.3180	 8.9340
 2.3190	 8.9370
 2.3200	 8.9380
 2.3210	 8.9470
 2.3220	 8.9450
 2.3230	 8.9370
 2.3240	 8.9340
 2.3250	 8.9270
 2.3260	 8.9130
 2.3270	 8.9000
 2.3280	 8.8780
 2.3290	 8.8390
 2.3300	 8.8140
 2.3310	 8.7950
 2.3320	 8.7710
 2.3330	 8.7530
 2.3340	 8.7330
 2.3350	 8.7030
 2.3360	 8.6780
 2.3370	 8.6510
 2.3380	 8.6280
 2.3390	 8.6060
 2.3400	 8.5780
 2.3410	 8.5410
 2.3420	 8.5140
 2.3430	 8.4770
 2.3440	 8.4490
 2.3450	 8.4300
 2.3460	 8.4070
 2.3470	 8.3820
 2.3480	 8.3570
 2.3490	 8.3270
 2.3500	 8.3080
 2.3510	 8.2980
 2.3520	 8.2840
 2.3530	 8.2720
 2.3540	 8.2640
 2.3550	 8.2420
 2.3560	 8.2210
 2.3570	 8.2020
 2.3580	 8.1850
 2.3590	 8.1800
 2.3600	 8.1790
 2.3610	 8.1720
 2.3620	 8.1680
 2.3630	 8.1520
 2.3640	 8.1330
 2.3650	 8.1150
 2.3660	 8.0910
 2.3670	 8.0720
 2.3680	 8.0520
 2.3690	 8.0300
 2.3700	 8.0110
 2.3710	 7.9830
 2.3720	 7.9480
 2.3730	 7.9090
 2.3740	 7.8740
 2.3750	 7.8550
 2.3760	 7.8450
 2.3770	 7.8380
 2.3780	 7.8240
 2.3790	 7.8030
 2.3800	 7.7740
 2.3810	 7.7440
 2.3820	 7.7110
 2.3830	 7.6770
 2.3840	 7.6470
 2.3850	 7.6270
 2.3860	 7.6080
 2.3870	 7.5860
 2.3880	 7.5590
 2.3890	 7.5250
 2.3900	 7.4870
 2.3910	 7.4580
 2.3920	 7.4410
 2.3930	 7.4200
 2.3940	 7.4010
 2.3950	 7.3790
 2.3960	 7.3480
 2.3970	 7.3210
 2.3980	 7.3040
 2.3990	 7.2800
 2.4000	 7.2540
 2.4010	 7.2260
 2.4020	 7.1910
 2.4030	 7.1630
 2.4040	 7.1410
 2.4050	 7.1170
 2.4060	 7.0990
 2.4070	 7.0650
 2.4080	 7.0300
 2.4090	 6.9940
 2.4100	 6.9560
 2.4110	 6.9330
 2.4120	 6.9020
 2.4130	 6.8710
 2.4140	 6.8520
 2.4150	 6.8200
 2.4160	 6.7990
 2.4170	 6.7750
 2.4180	 6.7460
 2.4190	 6.7150
 2.4200	 6.6760
 2.4210	 6.6470
 2.4220	 6.6210
 2.4230	 6.5900
 2.4240	 6.5710
 2.4250	 6.5440
 2.4260	 6.5100
 2.4270	 6.4840
 2.4280	 6.4590
 2.4290	 6.4310
 2.4300	 6.3960
 2.4310	 6.3670
 2.4320	 6.3280
 2.4330	 6.2950
 2.4340	 6.2730
 2.4350	 6.2500
 2.4360	 6.2170
 2.4370	 6.1860
 2.4380	 6.1590
 2.4390	 6.1340
 2.4400	 6.1080
 2.4410	 6.0820
 2.4420	 6.0530
 2.4430	 6.0130
 2.4440	 5.9910
 2.4450	 5.9750
 2.4460	 5.9600
 2.4470	 5.9570
 2.4480	 5.9500
 2.4490	 5.9400
 2.4500	 5.9160
 2.4510	 5.8790
 2.4520	 5.8410
 2.4530	 5.8110
 2.4540	 5.7870
 2.4550	 5.7510
 2.4560	 5.7140
 2.4570	 5.6760
 2.4580	 5.6380
 2.4590	 5.6280
 2.4600	 5.6240
 2.4610	 5.6080
 2.4620	 5.5930
 2.4630	 5.5770
 2.4640	 5.5640
 2.4650	 5.5480
 2.4660	 5.5170
 2.4670	 5.4960
 2.4680	 5.4720
 2.4690	 5.4690
 2.4700	 5.4610
 2.4710	 5.4550
 2.4720	 5.4370
 2.4730	 5.4000
 2.4740	 5.3810
 2.4750	 5.3720
 2.4760	 5.3580
 2.4770	 5.3500
 2.4780	 5.3360
 2.4790	 5.2940
 2.4800	 5.2830
 2.4810	 5.2890
 2.4820	 5.3290
 2.4830	 5.3280
 2.4840	 5.2900
 2.4850	 5.2840
 2.4860	 5.2330
 2.4870	 5.1900
 2.4880	 5.2100
 2.4890	 5.2060
 2.4900	 5.1890
 2.4910	 5.2100
 2.4920	 5.2130
 2.4930	 5.1740
 2.4940	 5.1690
 2.4950	 5.1470
 2.4960	 5.1010
 2.4970	 5.1150
 2.4980	 5.1420
 2.4990	 5.1330
 2.5000	 5.1380
