Name: Salix babylonica
Type: vegetation
Class: Tree
Genus: Salix
Species: babylonica
Sample No.: JPL183
Owner: JPL
Wavelength Range: TIR
Origin: 34.12797; -118.11609; WGS84
Collection Date: 10/3/2016
Description: Samples were collected at the Huntington Garden in San Marino California as part of a JPL Subcontract studying HyTES imagery. Samples were taken to JPL and processed within 48 hours of collection. The same leaves were processed in the Nicolet and then measured using the ASD.
Measurement: Hemispherical reflectance
First Column: X
Second Column: Y
X Units: Wavelength (micrometer)
Y Units: Reflectance (percentage)
First X Value: 2.501
Last X Value: 15.387
Number of X Values: 1737
Additional Information: vegetation.tree.salix.babylonica.tir.jpl183.jpl.nicolet.ancillary.txt

 2.5010	 6.7930
 2.5030	 6.7710
 2.5040	 6.7800
 2.5050	 6.7130
 2.5060	 6.6800
 2.5070	 6.6620
 2.5090	 6.6840
 2.5100	 6.6600
 2.5110	 6.6010
 2.5120	 6.5720
 2.5140	 6.5660
 2.5150	 6.5690
 2.5160	 6.5970
 2.5170	 6.5980
 2.5180	 6.5980
 2.5200	 6.5640
 2.5210	 6.5170
 2.5220	 6.5410
 2.5230	 6.5580
 2.5250	 6.5250
 2.5260	 6.5810
 2.5270	 6.5300
 2.5280	 6.4780
 2.5300	 6.4980
 2.5310	 6.4730
 2.5320	 6.4050
 2.5330	 6.3850
 2.5340	 6.3650
 2.5360	 6.3660
 2.5370	 6.3790
 2.5380	 6.4570
 2.5390	 6.4670
 2.5410	 6.5170
 2.5420	 6.4620
 2.5430	 6.3460
 2.5440	 6.3480
 2.5460	 6.4460
 2.5470	 6.3950
 2.5480	 6.3660
 2.5490	 6.3910
 2.5510	 6.3510
 2.5520	 6.3180
 2.5530	 6.3580
 2.5540	 6.4240
 2.5560	 6.5190
 2.5570	 6.5030
 2.5580	 6.4970
 2.5590	 6.3930
 2.5610	 6.0950
 2.5620	 5.8170
 2.5630	 5.8160
 2.5650	 5.9100
 2.5660	 6.2060
 2.5670	 6.4850
 2.5680	 6.4380
 2.5700	 6.0970
 2.5710	 6.1630
 2.5720	 6.3440
 2.5730	 6.0140
 2.5750	 6.0310
 2.5760	 6.1630
 2.5770	 6.0170
 2.5790	 6.2400
 2.5800	 6.3960
 2.5810	 6.1370
 2.5820	 5.9680
 2.5840	 5.7030
 2.5850	 5.7020
 2.5860	 6.0590
 2.5880	 5.9150
 2.5890	 5.9910
 2.5900	 6.1130
 2.5910	 6.2380
 2.5930	 6.0560
 2.5940	 5.4000
 2.5950	 4.7680
 2.5970	 5.3320
 2.5980	 5.9970
 2.5990	 6.2360
 2.6010	 6.1150
 2.6020	 5.9050
 2.6030	 5.7650
 2.6040	 5.5870
 2.6060	 5.3640
 2.6070	 5.5130
 2.6080	 5.7050
 2.6100	 5.7900
 2.6110	 5.9000
 2.6120	 5.9560
 2.6140	 5.8030
 2.6150	 5.8550
 2.6160	 5.5680
 2.6180	 5.2260
 2.6190	 5.4760
 2.6200	 5.3290
 2.6220	 5.2680
 2.6230	 5.7330
 2.6240	 5.8440
 2.6260	 5.7030
 2.6270	 5.3120
 2.6280	 5.4900
 2.6300	 5.4370
 2.6310	 5.1040
 2.6320	 5.3530
 2.6340	 5.4970
 2.6350	 5.4760
 2.6360	 5.6940
 2.6380	 5.7080
 2.6390	 5.6630
 2.6400	 5.5800
 2.6420	 5.5190
 2.6430	 5.4450
 2.6440	 5.5070
 2.6460	 5.3160
 2.6470	 5.3100
 2.6480	 5.4750
 2.6500	 5.5050
 2.6510	 5.3950
 2.6520	 5.1910
 2.6540	 5.1330
 2.6550	 5.2320
 2.6570	 5.1830
 2.6580	 5.3070
 2.6590	 5.1060
 2.6610	 4.9570
 2.6620	 5.0000
 2.6630	 5.1010
 2.6650	 4.7250
 2.6660	 4.3120
 2.6670	 4.3300
 2.6690	 4.6630
 2.6700	 4.3470
 2.6720	 4.2760
 2.6730	 4.8400
 2.6740	 4.9600
 2.6760	 4.7050
 2.6770	 4.4350
 2.6780	 4.5270
 2.6800	 4.7270
 2.6810	 4.9950
 2.6830	 5.0800
 2.6840	 4.8660
 2.6850	 4.8620
 2.6870	 4.8040
 2.6880	 4.8680
 2.6900	 4.9790
 2.6910	 5.0600
 2.6920	 4.9350
 2.6940	 4.5720
 2.6950	 4.3660
 2.6970	 4.6300
 2.6980	 4.9470
 2.6990	 5.1340
 2.7010	 5.0250
 2.7020	 4.9010
 2.7040	 4.9900
 2.7050	 5.0540
 2.7060	 5.0130
 2.7080	 4.9330
 2.7090	 4.5980
 2.7110	 4.3590
 2.7120	 4.5040
 2.7130	 4.9290
 2.7150	 5.0470
 2.7160	 4.9900
 2.7180	 4.7740
 2.7190	 4.6400
 2.7210	 4.2200
 2.7220	 4.3150
 2.7230	 4.4900
 2.7250	 4.3050
 2.7260	 4.4770
 2.7280	 4.8520
 2.7290	 4.9980
 2.7310	 5.0290
 2.7320	 5.0390
 2.7340	 4.9450
 2.7350	 4.6740
 2.7360	 4.7560
 2.7380	 4.7730
 2.7390	 4.3650
 2.7410	 4.1300
 2.7420	 4.3360
 2.7440	 4.7150
 2.7450	 4.8600
 2.7470	 4.8600
 2.7480	 4.9660
 2.7490	 4.9480
 2.7510	 4.9200
 2.7520	 4.8530
 2.7540	 4.7370
 2.7550	 4.2620
 2.7570	 4.2480
 2.7580	 4.7270
 2.7600	 4.9510
 2.7610	 4.8580
 2.7630	 4.5900
 2.7640	 4.5060
 2.7660	 4.6850
 2.7670	 4.6640
 2.7690	 4.6370
 2.7700	 4.6530
 2.7720	 4.6360
 2.7730	 4.7050
 2.7740	 4.8040
 2.7760	 4.8010
 2.7770	 4.8220
 2.7790	 4.8450
 2.7800	 4.8170
 2.7820	 4.7300
 2.7830	 4.8030
 2.7850	 4.8380
 2.7860	 4.6910
 2.7880	 4.5430
 2.7890	 4.7000
 2.7910	 4.8710
 2.7920	 4.9290
 2.7940	 4.8850
 2.7950	 4.8770
 2.7970	 4.8810
 2.7980	 4.9210
 2.8000	 4.9660
 2.8010	 4.9030
 2.8030	 4.6210
 2.8040	 4.6060
 2.8060	 4.8060
 2.8080	 4.9460
 2.8090	 4.8740
 2.8110	 4.8660
 2.8120	 4.9280
 2.8140	 4.9290
 2.8150	 4.8840
 2.8170	 4.9470
 2.8180	 4.8980
 2.8200	 4.8160
 2.8210	 4.7660
 2.8230	 4.8680
 2.8240	 4.9150
 2.8260	 4.9230
 2.8270	 4.8930
 2.8290	 4.9020
 2.8310	 4.9420
 2.8320	 4.9510
 2.8340	 4.8500
 2.8350	 4.8060
 2.8370	 4.8050
 2.8380	 4.8900
 2.8400	 4.9900
 2.8410	 5.0100
 2.8430	 4.9530
 2.8440	 4.9950
 2.8460	 4.9830
 2.8480	 4.9550
 2.8490	 4.9070
 2.8510	 4.9510
 2.8520	 4.9610
 2.8540	 4.9410
 2.8550	 4.8680
 2.8570	 4.8850
 2.8590	 4.9600
 2.8600	 4.9720
 2.8620	 4.9130
 2.8630	 4.9090
 2.8650	 4.9360
 2.8660	 5.0370
 2.8680	 5.0340
 2.8700	 5.0590
 2.8710	 4.9930
 2.8730	 4.9650
 2.8740	 4.9630
 2.8760	 4.9970
 2.8780	 4.9800
 2.8790	 4.9920
 2.8810	 5.0390
 2.8820	 5.0480
 2.8840	 5.0080
 2.8860	 5.0150
 2.8870	 4.9250
 2.8890	 4.9460
 2.8900	 5.0150
 2.8920	 5.0350
 2.8940	 5.0310
 2.8950	 5.1160
 2.8970	 5.1310
 2.8990	 5.0720
 2.9000	 4.9480
 2.9020	 4.9910
 2.9030	 5.0670
 2.9050	 5.0900
 2.9070	 5.0160
 2.9080	 4.9980
 2.9100	 5.0530
 2.9120	 5.1100
 2.9130	 5.0910
 2.9150	 5.0740
 2.9160	 5.0480
 2.9180	 5.0870
 2.9200	 5.0780
 2.9210	 5.0870
 2.9230	 5.0740
 2.9250	 5.1320
 2.9260	 5.1640
 2.9280	 5.1520
 2.9300	 5.0900
 2.9310	 5.0720
 2.9330	 5.0950
 2.9350	 5.1010
 2.9360	 5.0740
 2.9380	 5.0890
 2.9400	 5.1090
 2.9410	 5.1700
 2.9430	 5.1340
 2.9450	 5.1390
 2.9460	 5.1020
 2.9480	 5.1640
 2.9500	 5.2190
 2.9510	 5.1720
 2.9530	 5.1060
 2.9550	 5.1260
 2.9560	 5.0970
 2.9580	 5.1140
 2.9600	 5.1400
 2.9610	 5.1730
 2.9630	 5.1360
 2.9650	 5.1760
 2.9670	 5.2160
 2.9680	 5.1460
 2.9700	 5.0640
 2.9720	 5.1380
 2.9730	 5.2170
 2.9750	 5.2610
 2.9770	 5.2130
 2.9780	 5.1380
 2.9800	 5.0780
 2.9820	 5.1500
 2.9840	 5.1600
 2.9850	 5.1570
 2.9870	 5.1030
 2.9890	 5.0980
 2.9900	 5.0830
 2.9920	 5.1120
 2.9940	 5.1290
 2.9960	 5.1310
 2.9970	 5.1180
 2.9990	 5.1520
 3.0010	 5.1280
 3.0030	 5.0860
 3.0040	 5.0870
 3.0060	 5.1890
 3.0080	 5.1620
 3.0100	 5.1180
 3.0110	 5.1230
 3.0130	 5.1430
 3.0150	 5.1440
 3.0170	 5.1850
 3.0180	 5.1550
 3.0200	 5.1640
 3.0220	 5.1340
 3.0240	 5.1530
 3.0250	 5.1720
 3.0270	 5.1980
 3.0290	 5.1630
 3.0310	 5.1880
 3.0320	 5.1570
 3.0340	 5.1770
 3.0360	 5.2250
 3.0380	 5.2250
 3.0400	 5.1540
 3.0410	 5.1500
 3.0430	 5.1320
 3.0450	 5.1250
 3.0470	 5.1340
 3.0480	 5.2340
 3.0500	 5.1550
 3.0520	 5.0700
 3.0540	 5.0880
 3.0560	 5.1410
 3.0570	 5.1420
 3.0590	 5.1560
 3.0610	 5.1480
 3.0630	 5.1760
 3.0650	 5.1390
 3.0670	 5.1090
 3.0680	 5.0880
 3.0700	 5.1230
 3.0720	 5.1400
 3.0740	 5.1150
 3.0760	 5.0620
 3.0770	 5.0850
 3.0790	 5.0960
 3.0810	 5.1840
 3.0830	 5.1850
 3.0850	 5.1590
 3.0870	 5.1050
 3.0880	 5.0740
 3.0900	 5.0320
 3.0920	 5.0620
 3.0940	 5.0690
 3.0960	 5.0920
 3.0980	 5.1480
 3.1000	 5.1790
 3.1010	 5.1130
 3.1030	 5.1220
 3.1050	 5.1260
 3.1070	 5.1010
 3.1090	 5.0670
 3.1110	 5.0660
 3.1130	 5.0380
 3.1140	 5.0530
 3.1160	 5.0470
 3.1180	 5.0710
 3.1200	 5.0700
 3.1220	 5.1170
 3.1240	 5.1400
 3.1260	 5.1330
 3.1280	 5.1010
 3.1290	 5.1110
 3.1310	 5.0950
 3.1330	 5.1090
 3.1350	 5.0640
 3.1370	 5.0870
 3.1390	 5.1080
 3.1410	 5.0890
 3.1430	 5.0660
 3.1450	 5.1330
 3.1470	 5.0810
 3.1480	 5.0340
 3.1500	 5.0170
 3.1520	 5.0510
 3.1540	 5.0320
 3.1560	 5.0260
 3.1580	 5.0480
 3.1600	 5.0380
 3.1620	 4.9840
 3.1640	 5.0100
 3.1660	 4.9890
 3.1680	 5.0170
 3.1700	 5.0450
 3.1720	 4.9930
 3.1730	 4.9630
 3.1750	 4.9900
 3.1770	 4.9650
 3.1790	 5.0380
 3.1810	 5.0480
 3.1830	 5.0310
 3.1850	 4.9800
 3.1870	 4.9690
 3.1890	 4.9640
 3.1910	 4.9640
 3.1930	 4.9260
 3.1950	 4.9730
 3.1970	 4.9830
 3.1990	 4.9910
 3.2010	 4.9980
 3.2030	 5.0260
 3.2050	 5.0340
 3.2070	 4.9880
 3.2090	 4.9320
 3.2110	 4.9740
 3.2130	 4.9570
 3.2150	 4.9220
 3.2170	 4.9360
 3.2190	 5.0080
 3.2210	 5.0150
 3.2230	 4.9570
 3.2250	 4.8880
 3.2270	 4.9320
 3.2290	 4.9590
 3.2310	 4.9700
 3.2330	 4.9210
 3.2350	 4.9390
 3.2370	 4.9160
 3.2390	 4.9000
 3.2410	 4.9110
 3.2430	 4.9610
 3.2450	 4.9690
 3.2470	 4.9510
 3.2490	 4.8810
 3.2510	 4.8880
 3.2530	 4.8670
 3.2550	 4.9140
 3.2570	 4.9740
 3.2590	 4.9770
 3.2610	 4.8990
 3.2630	 4.8830
 3.2650	 4.8960
 3.2670	 4.9070
 3.2700	 4.8910
 3.2720	 4.8790
 3.2740	 4.8580
 3.2760	 4.9020
 3.2780	 4.9090
 3.2800	 4.8830
 3.2820	 4.8410
 3.2840	 4.8560
 3.2860	 4.8370
 3.2880	 4.8300
 3.2900	 4.8090
 3.2920	 4.8240
 3.2940	 4.8440
 3.2970	 4.8500
 3.2990	 4.8220
 3.3010	 4.8260
 3.3030	 4.8250
 3.3050	 4.8070
 3.3070	 4.8010
 3.3090	 4.8540
 3.3110	 4.8360
 3.3130	 4.8470
 3.3160	 4.7830
 3.3180	 4.7270
 3.3200	 4.7430
 3.3220	 4.7720
 3.3240	 4.7820
 3.3260	 4.8010
 3.3280	 4.7850
 3.3300	 4.7700
 3.3330	 4.7230
 3.3350	 4.7180
 3.3370	 4.6820
 3.3390	 4.6680
 3.3410	 4.6820
 3.3430	 4.7230
 3.3450	 4.7000
 3.3480	 4.6510
 3.3500	 4.6290
 3.3520	 4.6700
 3.3540	 4.6460
 3.3560	 4.6030
 3.3580	 4.5640
 3.3610	 4.5910
 3.3630	 4.5760
 3.3650	 4.5160
 3.3670	 4.4540
 3.3690	 4.4440
 3.3720	 4.4720
 3.3740	 4.4740
 3.3760	 4.4520
 3.3780	 4.4850
 3.3800	 4.5030
 3.3830	 4.5160
 3.3850	 4.4920
 3.3870	 4.4880
 3.3890	 4.4440
 3.3910	 4.4400
 3.3940	 4.4320
 3.3960	 4.4270
 3.3980	 4.4570
 3.4000	 4.4930
 3.4030	 4.4930
 3.4050	 4.5620
 3.4070	 4.6180
 3.4090	 4.6860
 3.4110	 4.7460
 3.4140	 4.8520
 3.4160	 4.9650
 3.4180	 5.1230
 3.4200	 5.2950
 3.4230	 5.4740
 3.4250	 5.6580
 3.4270	 5.9060
 3.4300	 6.0470
 3.4320	 5.9910
 3.4340	 5.8110
 3.4360	 5.6450
 3.4390	 5.5040
 3.4410	 5.4550
 3.4430	 5.4320
 3.4450	 5.4130
 3.4480	 5.3760
 3.4500	 5.3610
 3.4520	 5.3280
 3.4550	 5.3380
 3.4570	 5.3440
 3.4590	 5.3750
 3.4620	 5.3330
 3.4640	 5.2850
 3.4660	 5.2380
 3.4690	 5.2240
 3.4710	 5.1900
 3.4730	 5.1220
 3.4760	 5.1250
 3.4780	 5.0980
 3.4800	 5.0030
 3.4830	 5.0320
 3.4850	 5.0070
 3.4870	 4.9740
 3.4900	 4.9570
 3.4920	 4.9580
 3.4940	 4.9450
 3.4970	 4.9880
 3.4990	 5.0550
 3.5010	 5.1320
 3.5040	 5.2580
 3.5060	 5.4870
 3.5080	 5.7570
 3.5110	 5.9830
 3.5130	 5.9580
 3.5160	 5.7940
 3.5180	 5.6020
 3.5200	 5.5050
 3.5230	 5.4650
 3.5250	 5.4240
 3.5280	 5.3900
 3.5300	 5.4260
 3.5320	 5.3640
 3.5350	 5.3280
 3.5370	 5.3260
 3.5400	 5.3140
 3.5420	 5.2910
 3.5440	 5.3020
 3.5470	 5.3130
 3.5490	 5.3040
 3.5520	 5.2700
 3.5540	 5.2440
 3.5570	 5.2320
 3.5590	 5.2370
 3.5610	 5.2460
 3.5640	 5.2610
 3.5660	 5.2200
 3.5690	 5.1810
 3.5710	 5.1980
 3.5740	 5.2170
 3.5760	 5.1700
 3.5790	 5.2120
 3.5810	 5.1900
 3.5840	 5.1540
 3.5860	 5.1510
 3.5890	 5.1760
 3.5910	 5.1540
 3.5940	 5.1480
 3.5960	 5.1560
 3.5990	 5.1360
 3.6010	 5.1450
 3.6040	 5.2120
 3.6060	 5.1890
 3.6090	 5.1390
 3.6110	 5.1010
 3.6140	 5.0900
 3.6160	 5.1140
 3.6190	 5.1690
 3.6210	 5.1520
 3.6240	 5.1340
 3.6260	 5.1200
 3.6290	 5.1600
 3.6310	 5.1990
 3.6340	 5.1840
 3.6360	 5.1370
 3.6390	 5.1410
 3.6410	 5.1470
 3.6440	 5.1370
 3.6470	 5.1180
 3.6490	 5.1210
 3.6520	 5.1100
 3.6540	 5.1160
 3.6570	 5.1140
 3.6590	 5.1250
 3.6620	 5.1250
 3.6650	 5.1310
 3.6670	 5.1130
 3.6700	 5.0800
 3.6720	 5.0770
 3.6750	 5.1250
 3.6780	 5.1220
 3.6800	 5.1060
 3.6830	 5.1130
 3.6850	 5.1320
 3.6880	 5.1040
 3.6910	 5.1240
 3.6930	 5.1240
 3.6960	 5.1320
 3.6990	 5.1550
 3.7010	 5.1570
 3.7040	 5.1450
 3.7070	 5.1470
 3.7090	 5.1060
 3.7120	 5.1160
 3.7150	 5.1510
 3.7170	 5.1730
 3.7200	 5.1500
 3.7230	 5.1280
 3.7250	 5.1120
 3.7280	 5.1330
 3.7310	 5.1180
 3.7330	 5.1100
 3.7360	 5.1310
 3.7390	 5.1680
 3.7410	 5.2000
 3.7440	 5.1780
 3.7470	 5.1420
 3.7490	 5.1410
 3.7520	 5.1350
 3.7550	 5.1160
 3.7580	 5.1150
 3.7600	 5.1370
 3.7630	 5.1520
 3.7660	 5.1950
 3.7690	 5.1920
 3.7710	 5.1940
 3.7740	 5.1930
 3.7770	 5.1940
 3.7790	 5.1700
 3.7820	 5.1820
 3.7850	 5.1570
 3.7880	 5.1490
 3.7910	 5.1740
 3.7930	 5.1920
 3.7960	 5.1830
 3.7990	 5.2100
 3.8020	 5.1980
 3.8040	 5.1920
 3.8070	 5.2110
 3.8100	 5.2400
 3.8130	 5.2320
 3.8160	 5.2230
 3.8180	 5.2390
 3.8210	 5.2870
 3.8240	 5.2770
 3.8270	 5.2190
 3.8300	 5.1860
 3.8330	 5.1990
 3.8350	 5.1970
 3.8380	 5.2170
 3.8410	 5.2640
 3.8440	 5.2750
 3.8470	 5.2720
 3.8500	 5.2730
 3.8520	 5.2540
 3.8550	 5.2560
 3.8580	 5.2440
 3.8610	 5.2210
 3.8640	 5.2150
 3.8670	 5.2560
 3.8700	 5.2790
 3.8730	 5.2700
 3.8760	 5.2480
 3.8780	 5.2520
 3.8810	 5.2660
 3.8840	 5.2850
 3.8870	 5.2580
 3.8900	 5.2890
 3.8930	 5.3040
 3.8960	 5.2690
 3.8990	 5.2500
 3.9020	 5.2470
 3.9050	 5.2510
 3.9080	 5.2690
 3.9110	 5.2760
 3.9140	 5.2990
 3.9170	 5.3150
 3.9190	 5.3160
 3.9220	 5.3080
 3.9250	 5.3220
 3.9280	 5.2980
 3.9310	 5.2530
 3.9340	 5.2610
 3.9370	 5.2900
 3.9400	 5.2790
 3.9430	 5.2620
 3.9460	 5.2880
 3.9490	 5.3260
 3.9520	 5.2870
 3.9550	 5.2460
 3.9580	 5.2670
 3.9610	 5.2910
 3.9640	 5.3000
 3.9670	 5.2720
 3.9700	 5.2360
 3.9740	 5.2450
 3.9770	 5.2590
 3.9800	 5.2900
 3.9830	 5.3010
 3.9860	 5.2870
 3.9890	 5.2830
 3.9920	 5.3010
 3.9950	 5.2980
 3.9980	 5.2790
 4.0010	 5.2730
 4.0040	 5.3120
 4.0070	 5.3070
 4.0100	 5.2920
 4.0140	 5.2930
 4.0170	 5.2680
 4.0200	 5.2600
 4.0230	 5.2880
 4.0260	 5.3040
 4.0290	 5.3180
 4.0320	 5.2990
 4.0350	 5.2760
 4.0390	 5.2650
 4.0420	 5.2820
 4.0450	 5.2750
 4.0480	 5.2840
 4.0510	 5.2830
 4.0540	 5.2770
 4.0570	 5.2720
 4.0610	 5.2800
 4.0640	 5.2960
 4.0670	 5.2770
 4.0700	 5.2460
 4.0730	 5.2430
 4.0770	 5.2300
 4.0800	 5.2520
 4.0830	 5.2920
 4.0860	 5.2970
 4.0890	 5.2790
 4.0930	 5.2780
 4.0960	 5.2800
 4.0990	 5.2920
 4.1020	 5.2810
 4.1060	 5.2510
 4.1090	 5.2240
 4.1120	 5.1940
 4.1150	 5.2060
 4.1190	 5.2510
 4.1220	 5.2640
 4.1250	 5.2620
 4.1290	 5.2440
 4.1320	 5.2540
 4.1350	 5.2920
 4.1380	 5.2930
 4.1420	 5.2700
 4.1450	 5.2610
 4.1480	 5.2680
 4.1520	 5.2560
 4.1550	 5.2420
 4.1580	 5.2390
 4.1620	 5.2250
 4.1650	 5.2240
 4.1680	 5.2490
 4.1720	 5.2770
 4.1750	 5.2790
 4.1780	 5.2870
 4.1820	 5.2520
 4.1850	 5.1980
 4.1890	 5.1700
 4.1920	 5.1970
 4.1950	 5.2620
 4.1990	 5.2880
 4.2020	 5.2810
 4.2060	 5.3070
 4.2090	 5.3410
 4.2120	 5.3580
 4.2160	 5.3550
 4.2190	 5.3830
 4.2230	 5.4080
 4.2260	 5.4010
 4.2300	 5.4490
 4.2330	 5.4850
 4.2360	 5.3740
 4.2400	 5.3330
 4.2430	 5.3370
 4.2470	 5.2850
 4.2500	 5.2770
 4.2540	 5.2800
 4.2570	 5.3100
 4.2610	 5.3360
 4.2640	 5.3230
 4.2680	 5.3620
 4.2710	 5.4370
 4.2750	 5.4420
 4.2780	 5.3800
 4.2820	 5.3060
 4.2850	 5.2640
 4.2890	 5.2620
 4.2930	 5.2470
 4.2960	 5.2220
 4.3000	 5.2770
 4.3030	 5.2920
 4.3070	 5.2420
 4.3100	 5.2210
 4.3140	 5.2450
 4.3180	 5.2390
 4.3210	 5.2290
 4.3250	 5.2220
 4.3280	 5.2050
 4.3320	 5.1650
 4.3360	 5.1770
 4.3390	 5.1660
 4.3430	 5.1200
 4.3470	 5.0920
 4.3500	 5.1080
 4.3540	 5.1330
 4.3580	 5.1360
 4.3610	 5.1250
 4.3650	 5.1390
 4.3690	 5.1480
 4.3720	 5.1540
 4.3760	 5.1240
 4.3800	 5.1200
 4.3830	 5.1190
 4.3870	 5.1090
 4.3910	 5.1150
 4.3940	 5.1210
 4.3980	 5.1060
 4.4020	 5.1350
 4.4060	 5.1510
 4.4090	 5.0980
 4.4130	 5.0620
 4.4170	 5.0880
 4.4210	 5.0970
 4.4240	 5.0870
 4.4280	 5.1010
 4.4320	 5.1090
 4.4360	 5.0630
 4.4400	 5.0720
 4.4430	 5.0950
 4.4470	 5.1010
 4.4510	 5.0970
 4.4550	 5.0870
 4.4590	 5.0700
 4.4630	 5.0780
 4.4660	 5.0220
 4.4700	 5.0060
 4.4740	 5.0460
 4.4780	 5.0520
 4.4820	 5.0360
 4.4860	 5.0730
 4.4900	 5.0860
 4.4930	 5.0450
 4.4970	 5.0190
 4.5010	 5.0310
 4.5050	 5.0460
 4.5090	 5.0330
 4.5130	 4.9830
 4.5170	 4.9650
 4.5210	 4.9800
 4.5250	 5.0250
 4.5290	 5.0590
 4.5330	 5.0530
 4.5370	 5.0220
 4.5410	 5.0260
 4.5450	 5.0040
 4.5490	 5.0100
 4.5530	 5.0060
 4.5570	 4.9980
 4.5610	 5.0000
 4.5650	 5.0110
 4.5690	 5.0080
 4.5730	 4.9940
 4.5770	 4.9900
 4.5810	 5.0180
 4.5850	 5.0140
 4.5890	 5.0040
 4.5930	 4.9850
 4.5970	 4.9700
 4.6010	 4.9680
 4.6050	 4.9600
 4.6090	 4.9480
 4.6130	 4.9640
 4.6170	 4.9390
 4.6220	 4.9390
 4.6260	 4.9450
 4.6300	 4.9330
 4.6340	 4.9160
 4.6380	 4.9250
 4.6420	 4.9500
 4.6460	 4.9660
 4.6510	 4.9570
 4.6550	 4.9580
 4.6590	 4.9320
 4.6630	 4.9160
 4.6670	 4.9230
 4.6720	 4.9280
 4.6760	 4.9160
 4.6800	 4.9420
 4.6840	 4.9420
 4.6880	 4.9430
 4.6930	 4.9310
 4.6970	 4.9200
 4.7010	 4.8960
 4.7050	 4.8770
 4.7100	 4.8610
 4.7140	 4.8810
 4.7180	 4.8840
 4.7230	 4.8890
 4.7270	 4.8730
 4.7310	 4.8520
 4.7360	 4.8490
 4.7400	 4.9070
 4.7440	 4.9140
 4.7490	 4.8800
 4.7530	 4.8620
 4.7570	 4.8920
 4.7620	 4.8760
 4.7660	 4.8620
 4.7700	 4.8550
 4.7750	 4.8430
 4.7790	 4.8320
 4.7840	 4.8590
 4.7880	 4.8620
 4.7920	 4.8520
 4.7970	 4.8530
 4.8010	 4.8550
 4.8060	 4.8540
 4.8100	 4.8600
 4.8150	 4.8710
 4.8190	 4.9000
 4.8240	 4.8710
 4.8280	 4.8200
 4.8330	 4.8030
 4.8370	 4.8280
 4.8420	 4.8120
 4.8460	 4.8120
 4.8510	 4.8130
 4.8550	 4.8010
 4.8600	 4.8130
 4.8640	 4.7990
 4.8690	 4.7640
 4.8740	 4.7810
 4.8780	 4.7930
 4.8830	 4.8000
 4.8870	 4.8040
 4.8920	 4.7940
 4.8970	 4.7640
 4.9010	 4.8180
 4.9060	 4.8230
 4.9100	 4.7780
 4.9150	 4.7840
 4.9200	 4.8210
 4.9240	 4.7860
 4.9290	 4.8060
 4.9340	 4.8270
 4.9390	 4.8070
 4.9430	 4.7850
 4.9480	 4.7900
 4.9530	 4.7530
 4.9570	 4.6980
 4.9620	 4.6990
 4.9670	 4.7460
 4.9720	 4.7280
 4.9760	 4.7700
 4.9810	 4.7930
 4.9860	 4.7820
 4.9910	 4.7570
 4.9960	 4.7420
 5.0000	 4.7290
 5.0050	 4.7290
 5.0100	 4.7170
 5.0150	 4.7230
 5.0200	 4.6750
 5.0250	 4.7200
 5.0300	 4.7490
 5.0340	 4.7520
 5.0390	 4.7320
 5.0440	 4.7250
 5.0490	 4.7190
 5.0540	 4.7210
 5.0590	 4.7000
 5.0640	 4.7330
 5.0690	 4.7770
 5.0740	 4.7800
 5.0790	 4.7180
 5.0840	 4.6630
 5.0890	 4.6580
 5.0940	 4.7000
 5.0990	 4.7320
 5.1040	 4.7650
 5.1090	 4.7350
 5.1140	 4.7280
 5.1190	 4.7220
 5.1240	 4.7130
 5.1290	 4.6770
 5.1340	 4.6580
 5.1390	 4.6430
 5.1440	 4.6150
 5.1490	 4.5740
 5.1550	 4.6520
 5.1600	 4.6780
 5.1650	 4.7010
 5.1700	 4.7010
 5.1750	 4.6980
 5.1800	 4.6740
 5.1850	 4.7140
 5.1910	 4.6830
 5.1960	 4.6340
 5.2010	 4.5560
 5.2060	 4.6210
 5.2110	 4.5620
 5.2170	 4.5260
 5.2220	 4.6030
 5.2270	 4.6420
 5.2330	 4.5980
 5.2380	 4.5560
 5.2430	 4.5940
 5.2480	 4.6350
 5.2540	 4.6090
 5.2590	 4.6160
 5.2640	 4.6040
 5.2700	 4.6270
 5.2750	 4.5920
 5.2800	 4.5700
 5.2860	 4.5850
 5.2910	 4.4910
 5.2970	 4.4630
 5.3020	 4.5570
 5.3080	 4.5500
 5.3130	 4.5600
 5.3180	 4.5420
 5.3240	 4.5200
 5.3290	 4.5060
 5.3350	 4.5430
 5.3400	 4.4880
 5.3460	 4.3380
 5.3510	 4.2000
 5.3570	 4.3240
 5.3620	 4.4620
 5.3680	 4.5160
 5.3740	 4.4570
 5.3790	 4.4540
 5.3850	 4.4590
 5.3900	 4.4680
 5.3960	 4.4440
 5.4010	 4.4820
 5.4070	 4.4010
 5.4130	 4.3090
 5.4180	 4.1420
 5.4240	 4.0420
 5.4300	 4.2630
 5.4350	 4.4070
 5.4410	 4.3650
 5.4470	 4.3610
 5.4530	 4.3240
 5.4580	 4.2480
 5.4640	 4.0560
 5.4700	 4.1320
 5.4760	 4.1640
 5.4810	 4.1200
 5.4870	 4.2060
 5.4930	 4.2520
 5.4990	 4.2390
 5.5050	 4.2350
 5.5110	 4.2630
 5.5160	 4.2160
 5.5220	 4.0980
 5.5280	 4.1420
 5.5340	 4.1930
 5.5400	 4.2310
 5.5460	 4.1680
 5.5520	 4.0510
 5.5580	 4.0160
 5.5640	 4.0850
 5.5700	 4.0550
 5.5760	 3.8870
 5.5820	 3.7690
 5.5880	 3.9870
 5.5940	 4.0990
 5.6000	 4.0340
 5.6060	 3.9790
 5.6120	 4.0010
 5.6180	 3.9440
 5.6240	 4.0400
 5.6300	 4.0090
 5.6360	 3.7780
 5.6420	 3.4590
 5.6490	 3.6060
 5.6550	 3.7170
 5.6610	 3.8370
 5.6670	 3.9380
 5.6730	 3.7710
 5.6800	 3.7040
 5.6860	 3.7980
 5.6920	 3.7040
 5.6980	 3.7660
 5.7050	 3.6850
 5.7110	 3.4610
 5.7170	 3.4690
 5.7230	 3.5910
 5.7300	 3.6390
 5.7360	 3.6310
 5.7420	 3.5930
 5.7490	 3.5780
 5.7550	 3.7440
 5.7620	 3.5980
 5.7680	 3.3150
 5.7740	 3.7840
 5.7810	 4.1280
 5.7870	 4.3130
 5.7940	 4.3800
 5.8000	 4.3880
 5.8070	 4.3920
 5.8130	 4.2630
 5.8200	 3.8290
 5.8260	 3.7910
 5.8330	 4.0630
 5.8390	 4.3810
 5.8460	 4.5330
 5.8530	 4.5460
 5.8590	 4.3670
 5.8660	 4.2820
 5.8730	 4.2830
 5.8790	 3.7630
 5.8860	 3.7330
 5.8930	 3.9520
 5.8990	 3.8610
 5.9060	 4.3680
 5.9130	 4.5210
 5.9190	 4.4670
 5.9260	 4.4020
 5.9330	 3.9360
 5.9400	 3.5760
 5.9470	 4.1090
 5.9530	 4.3960
 5.9600	 4.4610
 5.9670	 4.1170
 5.9740	 4.1250
 5.9810	 4.2270
 5.9880	 4.0210
 5.9950	 4.0660
 6.0020	 4.4440
 6.0090	 4.4010
 6.0160	 4.2730
 6.0230	 4.4180
 6.0300	 4.5310
 6.0370	 4.3970
 6.0440	 3.7990
 6.0510	 3.2800
 6.0580	 4.0010
 6.0650	 4.2670
 6.0720	 3.9590
 6.0790	 4.1150
 6.0860	 4.5330
 6.0930	 4.6040
 6.1010	 4.5750
 6.1080	 4.2320
 6.1150	 3.9540
 6.1220	 4.3350
 6.1290	 4.7600
 6.1370	 4.7040
 6.1440	 4.6140
 6.1510	 4.5780
 6.1580	 4.4460
 6.1660	 4.5210
 6.1730	 4.7890
 6.1800	 4.4450
 6.1880	 4.1960
 6.1950	 4.5740
 6.2030	 4.8280
 6.2100	 4.8240
 6.2180	 4.8530
 6.2250	 4.8060
 6.2320	 4.8490
 6.2400	 4.8620
 6.2480	 4.9500
 6.2550	 4.9520
 6.2630	 4.9520
 6.2700	 4.8550
 6.2780	 4.8840
 6.2850	 4.9340
 6.2930	 4.9990
 6.3010	 4.9590
 6.3080	 4.9680
 6.3160	 4.9440
 6.3240	 4.9460
 6.3310	 4.8860
 6.3390	 4.5210
 6.3470	 4.2360
 6.3550	 4.6870
 6.3620	 4.7120
 6.3700	 4.3730
 6.3780	 4.4570
 6.3860	 4.6610
 6.3940	 4.6350
 6.4020	 4.4830
 6.4100	 3.6510
 6.4180	 3.3790
 6.4260	 3.9940
 6.4340	 4.3000
 6.4420	 4.4920
 6.4500	 4.5640
 6.4580	 4.5170
 6.4660	 4.5240
 6.4740	 4.2000
 6.4820	 3.9440
 6.4900	 3.5240
 6.4980	 3.6030
 6.5060	 4.2130
 6.5140	 4.3640
 6.5230	 4.1260
 6.5310	 4.4060
 6.5390	 4.4270
 6.5470	 4.2520
 6.5560	 4.0930
 6.5640	 4.0370
 6.5720	 3.6980
 6.5800	 3.8650
 6.5890	 3.9800
 6.5970	 4.0530
 6.6060	 4.2350
 6.6140	 4.2720
 6.6230	 4.1240
 6.6310	 3.6610
 6.6390	 3.3520
 6.6480	 3.9780
 6.6570	 4.4090
 6.6650	 4.3300
 6.6740	 4.0990
 6.6820	 4.0120
 6.6910	 4.2160
 6.7000	 4.3750
 6.7080	 4.0420
 6.7170	 3.9820
 6.7260	 4.1350
 6.7340	 4.3980
 6.7430	 4.4360
 6.7520	 4.4050
 6.7610	 4.3950
 6.7690	 4.2280
 6.7780	 3.9540
 6.7870	 3.7600
 6.7960	 3.7750
 6.8050	 4.1760
 6.8140	 4.2460
 6.8230	 4.1310
 6.8320	 4.1500
 6.8410	 4.4010
 6.8500	 4.1520
 6.8590	 3.6650
 6.8680	 3.6460
 6.8770	 4.2510
 6.8860	 4.4200
 6.8960	 4.4460
 6.9050	 4.3090
 6.9140	 4.4250
 6.9230	 4.5320
 6.9320	 4.6070
 6.9420	 4.5740
 6.9510	 4.4150
 6.9600	 4.0380
 6.9700	 4.3300
 6.9790	 4.6130
 6.9880	 4.6240
 6.9980	 4.5760
 7.0070	 4.7370
 7.0170	 4.6620
 7.0260	 4.6600
 7.0360	 4.5610
 7.0450	 4.2610
 7.0550	 4.3720
 7.0650	 4.7250
 7.0740	 4.7670
 7.0840	 4.7860
 7.0940	 4.7350
 7.1030	 4.7490
 7.1130	 4.6090
 7.1230	 4.6220
 7.1330	 4.6600
 7.1420	 4.5500
 7.1520	 4.3740
 7.1620	 4.3640
 7.1720	 4.2690
 7.1820	 4.4880
 7.1920	 4.5300
 7.2020	 4.4540
 7.2120	 4.3600
 7.2220	 4.5420
 7.2320	 4.5900
 7.2420	 4.6420
 7.2520	 4.5680
 7.2620	 4.6200
 7.2730	 4.4850
 7.2830	 4.5410
 7.2930	 4.5970
 7.3030	 4.6220
 7.3140	 4.6150
 7.3240	 4.6700
 7.3340	 4.4840
 7.3450	 4.4900
 7.3550	 4.5490
 7.3660	 4.6630
 7.3760	 4.6430
 7.3870	 4.6700
 7.3970	 4.6260
 7.4080	 4.6610
 7.4180	 4.6400
 7.4290	 4.6990
 7.4400	 4.6650
 7.4500	 4.6700
 7.4610	 4.5850
 7.4720	 4.6490
 7.4830	 4.6630
 7.4930	 4.7440
 7.5040	 4.7210
 7.5150	 4.7350
 7.5260	 4.7120
 7.5370	 4.7530
 7.5480	 4.7130
 7.5590	 4.7450
 7.5700	 4.7020
 7.5810	 4.7430
 7.5920	 4.7080
 7.6030	 4.7250
 7.6140	 4.6330
 7.6260	 4.6990
 7.6370	 4.6990
 7.6480	 4.7520
 7.6590	 4.6920
 7.6710	 4.6800
 7.6820	 4.6370
 7.6940	 4.6920
 7.7050	 4.6210
 7.7160	 4.6330
 7.7280	 4.5730
 7.7390	 4.5940
 7.7510	 4.5230
 7.7630	 4.5280
 7.7740	 4.5080
 7.7860	 4.5740
 7.7980	 4.5380
 7.8090	 4.5820
 7.8210	 4.5730
 7.8330	 4.5720
 7.8450	 4.5210
 7.8570	 4.5940
 7.8690	 4.5830
 7.8810	 4.6530
 7.8930	 4.6340
 7.9050	 4.7330
 7.9170	 4.6830
 7.9290	 4.6930
 7.9410	 4.6700
 7.9530	 4.7520
 7.9650	 4.7200
 7.9780	 4.8120
 7.9900	 4.7990
 8.0020	 4.8200
 8.0150	 4.7590
 8.0270	 4.8710
 8.0390	 4.8530
 8.0520	 4.8790
 8.0640	 4.8120
 8.0770	 4.9230
 8.0900	 4.9570
 8.1020	 5.0800
 8.1150	 4.9980
 8.1280	 5.0110
 8.1400	 4.9600
 8.1530	 5.0410
 8.1660	 4.9220
 8.1790	 4.9140
 8.1920	 4.9010
 8.2050	 4.9720
 8.2180	 4.7890
 8.2310	 4.8390
 8.2440	 4.8640
 8.2570	 4.9130
 8.2700	 4.8240
 8.2830	 4.9310
 8.2970	 4.9360
 8.3100	 5.0040
 8.3230	 4.9550
 8.3370	 5.0440
 8.3500	 4.9720
 8.3640	 5.0360
 8.3770	 5.0350
 8.3910	 5.1840
 8.4040	 5.1480
 8.4180	 5.2300
 8.4320	 5.1590
 8.4450	 5.2740
 8.4590	 5.2920
 8.4730	 5.4780
 8.4870	 5.5220
 8.5010	 5.6610
 8.5150	 5.6470
 8.5290	 5.8150
 8.5430	 5.8690
 8.5570	 6.1020
 8.5710	 6.2000
 8.5850	 6.3620
 8.5990	 6.4130
 8.6140	 6.5080
 8.6280	 6.3820
 8.6420	 6.4690
 8.6570	 6.4580
 8.6710	 6.5340
 8.6860	 6.4160
 8.7000	 6.4370
 8.7150	 6.3250
 8.7300	 6.4170
 8.7440	 6.3850
 8.7590	 6.4570
 8.7740	 6.3220
 8.7890	 6.3020
 8.8040	 6.2510
 8.8190	 6.4050
 8.8340	 6.2910
 8.8490	 6.3390
 8.8640	 6.3500
 8.8790	 6.5320
 8.8940	 6.4960
 8.9100	 6.6750
 8.9250	 6.6890
 8.9400	 6.7860
 8.9560	 6.7990
 8.9710	 6.9530
 8.9870	 6.9280
 9.0020	 7.0110
 9.0180	 6.9500
 9.0340	 7.0500
 9.0500	 6.9340
 9.0650	 7.0110
 9.0810	 6.9350
 9.0970	 6.9820
 9.1130	 6.8320
 9.1290	 6.8820
 9.1450	 6.7170
 9.1620	 6.7620
 9.1780	 6.6850
 9.1940	 6.7570
 9.2100	 6.7480
 9.2270	 6.9270
 9.2430	 6.9390
 9.2600	 7.1580
 9.2760	 7.1270
 9.2930	 7.2720
 9.3100	 7.2580
 9.3260	 7.3610
 9.3430	 7.2350
 9.3600	 7.2770
 9.3770	 7.2370
 9.3940	 7.2390
 9.4110	 7.0730
 9.4280	 7.2410
 9.4450	 7.2320
 9.4620	 7.3470
 9.4800	 7.3240
 9.4970	 7.3600
 9.5150	 7.1760
 9.5320	 7.2310
 9.5500	 7.1170
 9.5670	 7.2130
 9.5850	 7.1950
 9.6030	 7.3770
 9.6200	 7.4240
 9.6380	 7.5910
 9.6560	 7.4800
 9.6740	 7.4920
 9.6920	 7.3460
 9.7110	 7.4370
 9.7290	 7.3180
 9.7470	 7.3440
 9.7650	 7.2430
 9.7840	 7.2930
 9.8020	 7.1320
 9.8210	 7.1300
 9.8390	 6.9590
 9.8580	 7.0000
 9.8770	 6.9890
 9.8960	 7.0270
 9.9150	 6.7690
 9.9340	 6.7350
 9.9530	 6.5170
 9.9720	 6.3820
 9.9910	 6.1730
10.0100	 6.2030
10.0300	 6.0600
10.0490	 6.0860
10.0690	 5.9300
10.0880	 5.9430
10.1080	 5.8350
10.1280	 5.8930
10.1480	 5.7920
10.1670	 5.8320
10.1870	 5.7040
10.2070	 5.7420
10.2280	 5.6420
10.2480	 5.7260
10.2680	 5.6790
10.2890	 5.8400
10.3090	 5.8060
10.3300	 5.9000
10.3500	 5.8280
10.3710	 5.9240
10.3920	 5.8080
10.4120	 5.7890
10.4330	 5.6030
10.4540	 5.6240
10.4760	 5.4990
10.4970	 5.4790
10.5180	 5.3320
10.5390	 5.3990
10.5610	 5.2520
10.5820	 5.2800
10.6040	 5.1930
10.6260	 5.2860
10.6480	 5.1790
10.6700	 5.2480
10.6920	 5.1760
10.7140	 5.2890
10.7360	 5.2390
10.7580	 5.4090
10.7800	 5.3410
10.8030	 5.3630
10.8250	 5.2420
10.8480	 5.3270
10.8710	 5.2110
10.8940	 5.2700
10.9170	 5.2220
10.9400	 5.3720
10.9630	 5.3340
10.9860	 5.4970
11.0090	 5.3850
11.0330	 5.4370
11.0560	 5.3890
11.0800	 5.5220
11.1040	 5.3350
11.1270	 5.4050
11.1510	 5.3780
11.1750	 5.4820
11.2000	 5.3300
11.2240	 5.4200
11.2480	 5.3390
11.2730	 5.4330
11.2970	 5.3230
11.3220	 5.4160
11.3470	 5.3470
11.3720	 5.5240
11.3970	 5.4380
11.4220	 5.5370
11.4470	 5.4490
11.4720	 5.5270
11.4980	 5.4610
11.5230	 5.6070
11.5490	 5.4870
11.5750	 5.6490
11.6000	 5.6120
11.6260	 5.7190
11.6530	 5.5580
11.6790	 5.6420
11.7050	 5.5540
11.7320	 5.7570
11.7580	 5.7600
11.7850	 5.8170
11.8120	 5.7160
11.8390	 5.8520
11.8660	 5.7800
11.8930	 5.9010
11.9200	 5.8110
11.9480	 5.9140
11.9760	 5.7490
12.0030	 5.8700
12.0310	 5.7520
12.0590	 5.8630
12.0870	 5.8860
12.1150	 6.1410
12.1440	 5.9650
12.1720	 6.0730
12.2010	 5.9710
12.2300	 6.0440
12.2590	 5.8970
12.2880	 6.0530
12.3170	 5.9410
12.3460	 6.1130
12.3760	 6.0010
12.4050	 6.1550
12.4350	 6.0350
12.4650	 6.1840
12.4950	 6.1100
12.5250	 6.2000
12.5550	 5.9690
12.5860	 6.0650
12.6170	 6.0110
12.6470	 6.2510
12.6780	 6.1060
12.7090	 6.1860
12.7410	 6.0280
12.7720	 6.1460
12.8030	 5.9900
12.8350	 6.1530
12.8670	 6.0180
12.8990	 6.1460
12.9310	 6.0110
12.9640	 6.2190
12.9960	 6.0440
13.0290	 6.0730
13.0610	 5.9390
13.0940	 6.1610
13.1280	 6.0150
13.1610	 6.1020
13.1940	 5.9040
13.2280	 6.1430
13.2620	 5.9660
13.2960	 5.9820
13.3300	 5.7790
13.3640	 5.9270
13.3990	 5.7960
13.4340	 5.9570
13.4690	 5.8030
13.5040	 5.9410
13.5390	 5.7640
13.5740	 5.9120
13.6100	 5.7200
13.6460	 5.7230
13.6820	 5.5330
13.7180	 6.0040
13.7540	 6.1580
13.7910	 6.1270
13.8280	 5.5940
13.8650	 5.7880
13.9020	 5.7310
13.9390	 6.0610
13.9770	 5.8140
14.0150	 5.9820
14.0530	 5.8280
14.0910	 5.9350
14.1290	 5.7290
14.1680	 5.8880
14.2070	 5.6180
14.2460	 5.8990
14.2850	 5.6540
14.3240	 5.7520
14.3640	 5.4430
14.4040	 5.5870
14.4440	 5.3090
14.4840	 5.6230
14.5250	 5.3780
14.5660	 5.6770
14.6070	 5.3540
14.6480	 5.4900
14.6900	 5.1770
14.7310	 5.4930
14.7730	 5.2250
14.8150	 5.4090
14.8580	 5.0680
14.9010	 5.3860
14.9440	 5.3540
14.9870	 5.8380
15.0300	 4.9870
15.0740	 5.1310
15.1180	 4.7810
15.1620	 5.2790
15.2060	 5.0350
15.2510	 5.3500
15.2960	 4.7220
15.3410	 4.9980
15.3870	 4.5800
