Name: Quercus robur
Type: vegetation
Class: Tree
Genus: Quercus
Species: robur
Sample No.: JPL178
Owner: JPL
Wavelength Range: TIR
Origin: 34.12873; -118.11324; WGS84
Collection Date: 10/3/2016
Description: Samples were collected at the Huntington Garden in San Marino California as part of a JPL Subcontract studying HyTES imagery. Samples were taken to JPL and processed within 48 hours of collection. The same leaves were processed in the Nicolet and then measured using the ASD.
Measurement: Hemispherical reflectance
First Column: X
Second Column: Y
X Units: Wavelength (micrometer)
Y Units: Reflectance (percentage)
First X Value: 2.501
Last X Value: 15.387
Number of X Values: 1737
Additional Information: vegetation.tree.quercus.robur.tir.jpl178.jpl.nicolet.ancillary.txt

 2.5010	 5.1720
 2.5030	 5.1460
 2.5040	 5.2290
 2.5050	 5.2090
 2.5060	 5.1460
 2.5070	 5.0930
 2.5090	 5.0860
 2.5100	 5.0890
 2.5110	 5.0680
 2.5120	 5.0080
 2.5140	 5.0220
 2.5150	 5.0210
 2.5160	 5.0630
 2.5170	 5.0530
 2.5180	 5.0460
 2.5200	 5.0140
 2.5210	 5.0420
 2.5220	 5.0130
 2.5230	 4.9880
 2.5250	 4.9310
 2.5260	 4.9310
 2.5270	 4.9640
 2.5280	 5.0360
 2.5300	 5.0370
 2.5310	 5.0100
 2.5320	 4.8970
 2.5330	 4.8920
 2.5340	 4.9580
 2.5360	 4.9760
 2.5370	 4.9210
 2.5380	 4.9510
 2.5390	 4.9120
 2.5410	 4.9200
 2.5420	 4.9220
 2.5430	 4.9330
 2.5440	 4.9300
 2.5460	 4.9590
 2.5470	 5.0160
 2.5480	 5.0270
 2.5490	 4.9750
 2.5510	 4.9720
 2.5520	 4.8920
 2.5530	 4.9020
 2.5540	 5.0070
 2.5560	 5.0540
 2.5570	 5.0040
 2.5580	 5.0450
 2.5590	 4.9950
 2.5610	 4.9410
 2.5620	 4.9100
 2.5630	 4.9810
 2.5650	 4.9550
 2.5660	 4.9780
 2.5670	 5.0030
 2.5680	 5.0560
 2.5700	 5.0880
 2.5710	 5.1080
 2.5720	 5.0270
 2.5730	 4.9710
 2.5750	 5.0050
 2.5760	 5.0730
 2.5770	 5.0460
 2.5790	 5.0520
 2.5800	 5.0140
 2.5810	 4.9570
 2.5820	 4.8940
 2.5840	 4.8760
 2.5850	 4.8970
 2.5860	 4.9450
 2.5880	 4.9210
 2.5890	 4.9480
 2.5900	 4.9390
 2.5910	 4.9560
 2.5930	 4.9330
 2.5940	 4.8030
 2.5950	 4.6230
 2.5970	 4.6820
 2.5980	 4.7630
 2.5990	 4.8290
 2.6010	 4.7760
 2.6020	 4.7790
 2.6030	 4.7670
 2.6040	 4.7070
 2.6060	 4.5820
 2.6070	 4.6110
 2.6080	 4.5830
 2.6100	 4.5480
 2.6110	 4.5430
 2.6120	 4.4760
 2.6140	 4.4240
 2.6150	 4.4250
 2.6160	 4.2870
 2.6180	 4.2670
 2.6190	 4.3150
 2.6200	 4.3090
 2.6220	 4.2390
 2.6230	 4.1980
 2.6240	 4.1660
 2.6260	 4.1820
 2.6270	 4.1160
 2.6280	 4.0490
 2.6300	 3.9860
 2.6310	 3.9860
 2.6320	 3.9400
 2.6340	 3.9360
 2.6350	 3.9310
 2.6360	 3.9070
 2.6380	 3.8110
 2.6390	 3.8160
 2.6400	 3.8110
 2.6420	 3.7550
 2.6430	 3.6950
 2.6440	 3.6480
 2.6460	 3.5720
 2.6470	 3.6250
 2.6480	 3.5670
 2.6500	 3.4560
 2.6510	 3.4020
 2.6520	 3.4590
 2.6540	 3.4420
 2.6550	 3.4640
 2.6570	 3.4100
 2.6580	 3.3490
 2.6590	 3.2960
 2.6610	 3.2680
 2.6620	 3.2080
 2.6630	 3.2230
 2.6650	 3.2160
 2.6660	 3.2270
 2.6670	 3.1570
 2.6690	 3.1280
 2.6700	 3.1020
 2.6720	 3.1280
 2.6730	 3.1560
 2.6740	 3.0780
 2.6760	 2.9790
 2.6770	 2.9720
 2.6780	 2.9520
 2.6800	 2.9210
 2.6810	 2.9150
 2.6830	 2.9560
 2.6840	 2.8600
 2.6850	 2.8280
 2.6870	 2.7760
 2.6880	 2.7940
 2.6900	 2.7400
 2.6910	 2.7010
 2.6920	 2.6850
 2.6940	 2.6470
 2.6950	 2.5920
 2.6970	 2.5970
 2.6980	 2.5420
 2.6990	 2.5310
 2.7010	 2.4790
 2.7020	 2.4210
 2.7040	 2.4270
 2.7050	 2.5190
 2.7060	 2.5600
 2.7080	 2.5370
 2.7090	 2.4470
 2.7110	 2.4210
 2.7120	 2.3740
 2.7130	 2.3970
 2.7150	 2.3750
 2.7160	 2.3810
 2.7180	 2.4080
 2.7190	 2.4340
 2.7210	 2.4040
 2.7220	 2.4180
 2.7230	 2.3120
 2.7250	 2.3050
 2.7260	 2.3150
 2.7280	 2.3530
 2.7290	 2.3090
 2.7310	 2.3470
 2.7320	 2.3620
 2.7340	 2.3790
 2.7350	 2.3460
 2.7360	 2.3190
 2.7380	 2.2350
 2.7390	 2.2150
 2.7410	 2.2320
 2.7420	 2.2320
 2.7440	 2.1440
 2.7450	 2.1400
 2.7470	 2.1980
 2.7480	 2.2620
 2.7490	 2.2140
 2.7510	 2.2070
 2.7520	 2.1890
 2.7540	 2.2120
 2.7550	 2.1400
 2.7570	 2.1560
 2.7580	 2.1660
 2.7600	 2.1680
 2.7610	 2.1340
 2.7630	 2.1330
 2.7640	 2.0670
 2.7660	 2.0960
 2.7670	 2.1130
 2.7690	 2.1280
 2.7700	 2.0220
 2.7720	 2.0140
 2.7730	 2.0300
 2.7740	 2.0800
 2.7760	 2.0880
 2.7770	 2.1090
 2.7790	 2.1230
 2.7800	 2.1550
 2.7820	 2.1390
 2.7830	 2.1380
 2.7850	 2.0850
 2.7860	 2.0980
 2.7880	 2.0100
 2.7890	 2.0300
 2.7910	 2.0950
 2.7920	 2.1310
 2.7940	 2.0960
 2.7950	 2.1170
 2.7970	 2.0620
 2.7980	 2.0530
 2.8000	 2.0830
 2.8010	 2.0790
 2.8030	 2.0550
 2.8040	 2.0870
 2.8060	 2.1080
 2.8080	 2.1080
 2.8090	 2.0820
 2.8110	 2.0510
 2.8120	 2.0260
 2.8140	 2.0580
 2.8150	 2.0540
 2.8170	 2.0420
 2.8180	 1.9570
 2.8200	 2.0110
 2.8210	 2.0580
 2.8230	 2.0500
 2.8240	 1.9520
 2.8260	 1.9620
 2.8270	 1.9750
 2.8290	 2.0140
 2.8310	 2.0010
 2.8320	 2.0110
 2.8340	 1.9980
 2.8350	 2.0290
 2.8370	 2.0480
 2.8380	 2.0800
 2.8400	 2.0710
 2.8410	 2.0910
 2.8430	 2.0180
 2.8440	 1.9820
 2.8460	 1.9890
 2.8480	 2.0910
 2.8490	 2.0440
 2.8510	 2.0020
 2.8520	 2.0130
 2.8540	 2.0160
 2.8550	 1.9760
 2.8570	 1.9790
 2.8590	 1.9620
 2.8600	 2.0090
 2.8620	 1.9970
 2.8630	 2.0090
 2.8650	 1.9940
 2.8660	 2.0240
 2.8680	 1.9860
 2.8700	 1.9680
 2.8710	 1.9690
 2.8730	 2.0020
 2.8740	 1.9510
 2.8760	 1.9550
 2.8780	 1.9230
 2.8790	 1.9940
 2.8810	 2.0420
 2.8820	 2.0580
 2.8840	 1.9330
 2.8860	 1.9170
 2.8870	 1.9300
 2.8890	 1.9910
 2.8900	 1.9750
 2.8920	 2.0030
 2.8940	 1.9570
 2.8950	 1.9560
 2.8970	 1.9730
 2.8990	 2.0350
 2.9000	 2.0340
 2.9020	 2.0340
 2.9030	 1.9940
 2.9050	 1.9870
 2.9070	 1.9440
 2.9080	 1.9550
 2.9100	 1.9610
 2.9120	 1.9890
 2.9130	 1.9570
 2.9150	 2.0050
 2.9160	 1.9800
 2.9180	 2.0070
 2.9200	 2.0210
 2.9210	 2.0280
 2.9230	 1.9990
 2.9250	 2.0120
 2.9260	 1.9680
 2.9280	 1.9580
 2.9300	 1.9810
 2.9310	 2.0220
 2.9330	 1.9520
 2.9350	 1.9730
 2.9360	 2.0210
 2.9380	 2.0350
 2.9400	 2.0290
 2.9410	 2.0150
 2.9430	 1.9530
 2.9450	 1.9880
 2.9460	 1.9570
 2.9480	 1.9470
 2.9500	 1.9310
 2.9510	 1.9680
 2.9530	 1.9810
 2.9550	 1.9980
 2.9560	 1.9760
 2.9580	 2.0150
 2.9600	 2.0100
 2.9610	 2.0270
 2.9630	 1.9540
 2.9650	 1.9120
 2.9670	 1.9190
 2.9680	 1.9660
 2.9700	 1.9980
 2.9720	 2.0640
 2.9730	 2.0840
 2.9750	 2.0970
 2.9770	 2.0190
 2.9780	 1.9830
 2.9800	 1.9530
 2.9820	 2.0020
 2.9840	 1.9690
 2.9850	 1.9750
 2.9870	 2.0120
 2.9890	 2.0400
 2.9900	 1.9890
 2.9920	 1.9880
 2.9940	 1.9340
 2.9960	 1.9950
 2.9970	 2.0280
 2.9990	 2.0270
 3.0010	 1.9860
 3.0030	 2.0270
 3.0040	 2.0020
 3.0060	 2.0070
 3.0080	 2.0590
 3.0100	 2.1310
 3.0110	 2.0530
 3.0130	 1.9550
 3.0150	 1.9080
 3.0170	 1.9600
 3.0180	 1.9260
 3.0200	 1.9880
 3.0220	 1.9920
 3.0240	 2.0150
 3.0250	 2.0330
 3.0270	 2.0680
 3.0290	 2.0490
 3.0310	 2.0630
 3.0320	 2.0250
 3.0340	 2.0210
 3.0360	 1.9990
 3.0380	 1.9880
 3.0400	 1.9140
 3.0410	 1.9070
 3.0430	 1.9520
 3.0450	 2.0850
 3.0470	 2.0890
 3.0480	 2.0460
 3.0500	 2.0090
 3.0520	 2.0350
 3.0540	 2.0030
 3.0560	 1.9990
 3.0570	 1.9920
 3.0590	 2.0210
 3.0610	 2.0150
 3.0630	 2.0540
 3.0650	 2.0650
 3.0670	 2.0530
 3.0680	 1.9660
 3.0700	 2.0210
 3.0720	 2.0720
 3.0740	 2.0770
 3.0760	 2.0270
 3.0770	 2.0250
 3.0790	 2.0050
 3.0810	 1.9860
 3.0830	 1.9570
 3.0850	 2.0550
 3.0870	 2.0640
 3.0880	 2.0740
 3.0900	 2.0520
 3.0920	 2.0510
 3.0940	 2.0220
 3.0960	 2.0240
 3.0980	 2.0750
 3.1000	 2.1510
 3.1010	 2.0840
 3.1030	 2.0690
 3.1050	 2.0810
 3.1070	 2.0820
 3.1090	 2.0830
 3.1110	 2.0710
 3.1130	 2.0500
 3.1140	 2.1230
 3.1160	 2.0790
 3.1180	 2.0360
 3.1200	 2.0020
 3.1220	 2.0810
 3.1240	 2.0920
 3.1260	 2.0910
 3.1280	 2.0970
 3.1290	 2.1420
 3.1310	 2.1340
 3.1330	 2.1070
 3.1350	 2.0890
 3.1370	 2.1100
 3.1390	 2.0880
 3.1410	 2.0950
 3.1430	 2.0470
 3.1450	 2.0790
 3.1470	 2.0260
 3.1480	 2.0200
 3.1500	 2.0370
 3.1520	 2.0810
 3.1540	 2.0870
 3.1560	 2.1170
 3.1580	 2.1300
 3.1600	 2.1410
 3.1620	 2.0700
 3.1640	 2.0490
 3.1660	 2.0470
 3.1680	 2.0780
 3.1700	 2.0680
 3.1720	 2.0750
 3.1730	 2.0230
 3.1750	 2.0740
 3.1770	 2.0920
 3.1790	 2.0820
 3.1810	 2.0610
 3.1830	 2.0930
 3.1850	 2.0720
 3.1870	 2.1020
 3.1890	 2.1120
 3.1910	 2.1010
 3.1930	 2.0710
 3.1950	 2.0670
 3.1970	 2.0460
 3.1990	 2.0490
 3.2010	 2.0390
 3.2030	 2.0700
 3.2050	 2.0320
 3.2070	 2.0030
 3.2090	 2.0140
 3.2110	 2.0580
 3.2130	 2.0310
 3.2150	 2.1150
 3.2170	 2.1210
 3.2190	 2.0600
 3.2210	 2.0370
 3.2230	 2.0850
 3.2250	 2.0480
 3.2270	 2.0500
 3.2290	 2.0490
 3.2310	 2.0570
 3.2330	 2.0500
 3.2350	 2.0480
 3.2370	 2.0150
 3.2390	 2.0500
 3.2410	 2.0450
 3.2430	 2.0910
 3.2450	 2.0880
 3.2470	 2.0870
 3.2490	 2.0850
 3.2510	 2.1060
 3.2530	 2.1030
 3.2550	 2.0910
 3.2570	 2.0740
 3.2590	 2.1210
 3.2610	 2.1240
 3.2630	 2.0930
 3.2650	 2.0560
 3.2670	 2.0600
 3.2700	 2.0490
 3.2720	 2.0740
 3.2740	 2.0870
 3.2760	 2.1080
 3.2780	 2.1140
 3.2800	 2.1500
 3.2820	 2.1050
 3.2840	 2.1020
 3.2860	 2.0890
 3.2880	 2.0780
 3.2900	 2.0500
 3.2920	 2.0860
 3.2940	 2.0870
 3.2970	 2.0940
 3.2990	 2.0400
 3.3010	 2.0220
 3.3030	 2.0080
 3.3050	 2.0630
 3.3070	 2.1170
 3.3090	 2.1530
 3.3110	 2.1190
 3.3130	 2.0910
 3.3160	 2.0600
 3.3180	 2.0420
 3.3200	 2.0600
 3.3220	 2.0760
 3.3240	 2.0150
 3.3260	 2.0330
 3.3280	 2.0290
 3.3300	 2.0280
 3.3330	 2.0570
 3.3350	 2.0810
 3.3370	 2.0770
 3.3390	 2.1050
 3.3410	 2.0700
 3.3430	 2.0470
 3.3450	 2.0210
 3.3480	 1.9960
 3.3500	 1.9840
 3.3520	 2.0110
 3.3540	 1.9950
 3.3560	 1.9660
 3.3580	 1.9340
 3.3610	 1.9830
 3.3630	 1.9690
 3.3650	 1.9700
 3.3670	 1.9430
 3.3690	 1.9340
 3.3720	 1.8980
 3.3740	 1.9180
 3.3760	 1.9250
 3.3780	 1.9270
 3.3800	 1.9070
 3.3830	 1.9120
 3.3850	 1.9070
 3.3870	 1.9290
 3.3890	 1.9260
 3.3910	 1.8920
 3.3940	 1.8050
 3.3960	 1.8510
 3.3980	 1.8490
 3.4000	 1.8400
 3.4030	 1.8420
 3.4050	 1.8840
 3.4070	 1.9200
 3.4090	 1.9890
 3.4110	 2.0250
 3.4140	 2.0550
 3.4160	 2.1110
 3.4180	 2.2790
 3.4200	 2.4610
 3.4230	 2.8230
 3.4250	 3.2370
 3.4270	 3.5500
 3.4300	 3.6430
 3.4320	 3.5200
 3.4340	 3.2310
 3.4360	 3.0490
 3.4390	 2.9410
 3.4410	 2.8330
 3.4430	 2.6730
 3.4450	 2.6150
 3.4480	 2.6540
 3.4500	 2.6780
 3.4520	 2.6120
 3.4550	 2.5600
 3.4570	 2.5280
 3.4590	 2.5220
 3.4620	 2.4880
 3.4640	 2.5150
 3.4660	 2.5500
 3.4690	 2.5630
 3.4710	 2.4960
 3.4730	 2.4540
 3.4760	 2.4020
 3.4780	 2.3920
 3.4800	 2.3390
 3.4830	 2.3140
 3.4850	 2.2990
 3.4870	 2.3220
 3.4900	 2.2810
 3.4920	 2.2120
 3.4940	 2.2010
 3.4970	 2.2170
 3.4990	 2.1880
 3.5010	 2.2290
 3.5040	 2.3300
 3.5060	 2.6450
 3.5080	 3.1420
 3.5110	 3.5460
 3.5130	 3.5270
 3.5160	 3.3320
 3.5180	 3.1800
 3.5200	 3.0390
 3.5230	 2.8820
 3.5250	 2.7720
 3.5280	 2.7080
 3.5300	 2.7160
 3.5320	 2.6990
 3.5350	 2.6900
 3.5370	 2.6710
 3.5400	 2.6660
 3.5420	 2.6290
 3.5440	 2.6180
 3.5470	 2.5730
 3.5490	 2.5430
 3.5520	 2.5350
 3.5540	 2.5820
 3.5570	 2.5740
 3.5590	 2.6190
 3.5610	 2.5950
 3.5640	 2.5440
 3.5660	 2.5340
 3.5690	 2.5640
 3.5710	 2.5450
 3.5740	 2.5500
 3.5760	 2.5390
 3.5790	 2.5570
 3.5810	 2.5620
 3.5840	 2.5320
 3.5860	 2.5260
 3.5890	 2.5610
 3.5910	 2.5750
 3.5940	 2.5680
 3.5960	 2.5450
 3.5990	 2.5740
 3.6010	 2.5570
 3.6040	 2.5560
 3.6060	 2.5400
 3.6090	 2.5340
 3.6110	 2.4790
 3.6140	 2.4820
 3.6160	 2.5250
 3.6190	 2.5220
 3.6210	 2.5180
 3.6240	 2.5460
 3.6260	 2.5360
 3.6290	 2.5260
 3.6310	 2.5280
 3.6340	 2.5180
 3.6360	 2.4980
 3.6390	 2.5470
 3.6410	 2.5260
 3.6440	 2.4940
 3.6470	 2.5160
 3.6490	 2.5770
 3.6520	 2.5870
 3.6540	 2.5990
 3.6570	 2.5750
 3.6590	 2.5630
 3.6620	 2.5380
 3.6650	 2.5470
 3.6670	 2.5420
 3.6700	 2.5200
 3.6720	 2.4930
 3.6750	 2.4980
 3.6780	 2.5250
 3.6800	 2.5460
 3.6830	 2.5390
 3.6850	 2.5880
 3.6880	 2.5830
 3.6910	 2.5830
 3.6930	 2.5640
 3.6960	 2.5500
 3.6990	 2.5450
 3.7010	 2.5420
 3.7040	 2.5490
 3.7070	 2.5740
 3.7090	 2.5860
 3.7120	 2.5900
 3.7150	 2.5700
 3.7170	 2.6040
 3.7200	 2.6060
 3.7230	 2.5410
 3.7250	 2.5210
 3.7280	 2.5830
 3.7310	 2.5940
 3.7330	 2.5800
 3.7360	 2.5620
 3.7390	 2.5780
 3.7410	 2.5800
 3.7440	 2.6180
 3.7470	 2.6010
 3.7490	 2.5830
 3.7520	 2.5940
 3.7550	 2.6010
 3.7580	 2.5820
 3.7600	 2.6170
 3.7630	 2.6200
 3.7660	 2.6170
 3.7690	 2.5920
 3.7710	 2.5720
 3.7740	 2.6220
 3.7770	 2.6450
 3.7790	 2.6150
 3.7820	 2.6410
 3.7850	 2.6540
 3.7880	 2.6300
 3.7910	 2.6110
 3.7930	 2.6470
 3.7960	 2.6300
 3.7990	 2.6000
 3.8020	 2.6170
 3.8040	 2.6500
 3.8070	 2.6560
 3.8100	 2.6720
 3.8130	 2.6440
 3.8160	 2.6500
 3.8180	 2.7060
 3.8210	 2.7360
 3.8240	 2.7070
 3.8270	 2.6640
 3.8300	 2.6570
 3.8330	 2.6900
 3.8350	 2.7250
 3.8380	 2.7240
 3.8410	 2.7230
 3.8440	 2.7190
 3.8470	 2.6940
 3.8500	 2.7070
 3.8520	 2.7190
 3.8550	 2.7470
 3.8580	 2.7330
 3.8610	 2.7260
 3.8640	 2.7290
 3.8670	 2.7370
 3.8700	 2.7320
 3.8730	 2.7350
 3.8760	 2.7430
 3.8780	 2.7670
 3.8810	 2.7820
 3.8840	 2.7870
 3.8870	 2.7550
 3.8900	 2.7310
 3.8930	 2.7290
 3.8960	 2.7620
 3.8990	 2.7720
 3.9020	 2.7770
 3.9050	 2.7820
 3.9080	 2.7820
 3.9110	 2.7430
 3.9140	 2.7340
 3.9170	 2.7440
 3.9190	 2.7650
 3.9220	 2.8080
 3.9250	 2.8500
 3.9280	 2.8500
 3.9310	 2.8260
 3.9340	 2.8190
 3.9370	 2.8280
 3.9400	 2.7850
 3.9430	 2.7810
 3.9460	 2.7880
 3.9490	 2.8090
 3.9520	 2.8100
 3.9550	 2.8000
 3.9580	 2.8390
 3.9610	 2.8460
 3.9640	 2.8450
 3.9670	 2.8220
 3.9700	 2.7960
 3.9740	 2.8470
 3.9770	 2.8280
 3.9800	 2.8060
 3.9830	 2.8280
 3.9860	 2.8470
 3.9890	 2.8230
 3.9920	 2.8130
 3.9950	 2.7880
 3.9980	 2.8150
 4.0010	 2.8680
 4.0040	 2.8870
 4.0070	 2.8460
 4.0100	 2.8240
 4.0140	 2.8300
 4.0170	 2.8320
 4.0200	 2.8270
 4.0230	 2.8230
 4.0260	 2.8060
 4.0290	 2.8230
 4.0320	 2.8260
 4.0350	 2.8340
 4.0390	 2.8320
 4.0420	 2.8390
 4.0450	 2.8470
 4.0480	 2.8380
 4.0510	 2.8640
 4.0540	 2.8700
 4.0570	 2.8450
 4.0610	 2.8490
 4.0640	 2.8380
 4.0670	 2.8380
 4.0700	 2.8540
 4.0730	 2.8680
 4.0770	 2.8830
 4.0800	 2.8910
 4.0830	 2.8670
 4.0860	 2.8350
 4.0890	 2.8380
 4.0930	 2.8650
 4.0960	 2.8610
 4.0990	 2.8590
 4.1020	 2.8620
 4.1060	 2.8470
 4.1090	 2.8390
 4.1120	 2.8600
 4.1150	 2.8340
 4.1190	 2.8360
 4.1220	 2.8420
 4.1250	 2.8200
 4.1290	 2.8290
 4.1320	 2.8290
 4.1350	 2.8370
 4.1380	 2.8570
 4.1420	 2.8710
 4.1450	 2.8650
 4.1480	 2.8490
 4.1520	 2.8470
 4.1550	 2.8240
 4.1580	 2.8230
 4.1620	 2.8510
 4.1650	 2.8430
 4.1680	 2.8100
 4.1720	 2.8200
 4.1750	 2.8080
 4.1780	 2.7930
 4.1820	 2.8060
 4.1850	 2.8070
 4.1890	 2.8010
 4.1920	 2.8300
 4.1950	 2.8550
 4.1990	 2.8520
 4.2020	 2.8390
 4.2060	 2.8370
 4.2090	 2.8360
 4.2120	 2.8140
 4.2160	 2.8260
 4.2190	 2.8330
 4.2230	 2.8230
 4.2260	 2.8710
 4.2300	 2.9360
 4.2330	 2.9630
 4.2360	 3.0060
 4.2400	 2.9840
 4.2430	 2.9380
 4.2470	 2.9330
 4.2500	 2.9290
 4.2540	 2.8620
 4.2570	 2.7930
 4.2610	 2.8400
 4.2640	 2.9230
 4.2680	 2.9200
 4.2710	 2.9140
 4.2750	 2.9140
 4.2780	 2.8610
 4.2820	 2.8270
 4.2850	 2.8420
 4.2890	 2.7830
 4.2930	 2.7560
 4.2960	 2.7800
 4.3000	 2.8250
 4.3030	 2.8140
 4.3070	 2.7880
 4.3100	 2.7920
 4.3140	 2.7940
 4.3180	 2.7370
 4.3210	 2.7300
 4.3250	 2.7200
 4.3280	 2.7070
 4.3320	 2.7090
 4.3360	 2.7100
 4.3390	 2.6900
 4.3430	 2.6610
 4.3470	 2.6450
 4.3500	 2.6440
 4.3540	 2.6380
 4.3580	 2.6430
 4.3610	 2.6530
 4.3650	 2.6610
 4.3690	 2.6290
 4.3720	 2.6120
 4.3760	 2.6180
 4.3800	 2.6280
 4.3830	 2.6300
 4.3870	 2.6340
 4.3910	 2.6210
 4.3940	 2.6170
 4.3980	 2.6150
 4.4020	 2.6490
 4.4060	 2.6440
 4.4090	 2.6130
 4.4130	 2.5850
 4.4170	 2.5880
 4.4210	 2.5950
 4.4240	 2.6070
 4.4280	 2.5910
 4.4320	 2.5840
 4.4360	 2.5920
 4.4400	 2.5690
 4.4430	 2.5470
 4.4470	 2.5290
 4.4510	 2.5430
 4.4550	 2.5600
 4.4590	 2.5590
 4.4630	 2.5650
 4.4660	 2.5830
 4.4700	 2.5710
 4.4740	 2.5240
 4.4780	 2.5400
 4.4820	 2.5650
 4.4860	 2.5800
 4.4900	 2.5690
 4.4930	 2.5200
 4.4970	 2.5120
 4.5010	 2.5310
 4.5050	 2.5690
 4.5090	 2.5590
 4.5130	 2.5150
 4.5170	 2.5310
 4.5210	 2.5480
 4.5250	 2.5630
 4.5290	 2.5440
 4.5330	 2.5100
 4.5370	 2.5100
 4.5410	 2.5300
 4.5450	 2.5180
 4.5490	 2.5130
 4.5530	 2.5160
 4.5570	 2.5610
 4.5610	 2.5650
 4.5650	 2.5090
 4.5690	 2.4850
 4.5730	 2.5130
 4.5770	 2.4990
 4.5810	 2.4790
 4.5850	 2.4860
 4.5890	 2.5090
 4.5930	 2.4860
 4.5970	 2.4320
 4.6010	 2.4220
 4.6050	 2.4570
 4.6090	 2.4940
 4.6130	 2.5200
 4.6170	 2.5130
 4.6220	 2.5060
 4.6260	 2.4800
 4.6300	 2.4830
 4.6340	 2.4930
 4.6380	 2.4790
 4.6420	 2.4640
 4.6460	 2.4860
 4.6510	 2.4860
 4.6550	 2.4780
 4.6590	 2.4810
 4.6630	 2.4890
 4.6670	 2.4500
 4.6720	 2.4640
 4.6760	 2.4720
 4.6800	 2.4510
 4.6840	 2.4210
 4.6880	 2.4540
 4.6930	 2.4790
 4.6970	 2.4850
 4.7010	 2.4720
 4.7050	 2.4790
 4.7100	 2.4980
 4.7140	 2.5000
 4.7180	 2.4490
 4.7230	 2.4450
 4.7270	 2.4420
 4.7310	 2.4480
 4.7360	 2.4500
 4.7400	 2.4540
 4.7440	 2.4350
 4.7490	 2.4570
 4.7530	 2.4660
 4.7570	 2.4650
 4.7620	 2.4470
 4.7660	 2.4510
 4.7700	 2.4560
 4.7750	 2.4920
 4.7790	 2.5040
 4.7840	 2.5030
 4.7880	 2.4880
 4.7920	 2.4870
 4.7970	 2.4580
 4.8010	 2.4630
 4.8060	 2.4770
 4.8100	 2.4790
 4.8150	 2.4370
 4.8190	 2.4420
 4.8240	 2.4650
 4.8280	 2.4640
 4.8330	 2.4390
 4.8370	 2.4470
 4.8420	 2.4410
 4.8460	 2.4440
 4.8510	 2.4380
 4.8550	 2.4560
 4.8600	 2.4560
 4.8640	 2.4500
 4.8690	 2.4300
 4.8740	 2.4370
 4.8780	 2.4480
 4.8830	 2.4620
 4.8870	 2.4410
 4.8920	 2.4460
 4.8970	 2.4440
 4.9010	 2.4580
 4.9060	 2.4630
 4.9100	 2.4630
 4.9150	 2.4440
 4.9200	 2.4610
 4.9240	 2.4460
 4.9290	 2.4420
 4.9340	 2.4600
 4.9390	 2.4640
 4.9430	 2.4470
 4.9480	 2.4480
 4.9530	 2.4590
 4.9570	 2.5040
 4.9620	 2.5170
 4.9670	 2.5350
 4.9720	 2.5180
 4.9760	 2.5000
 4.9810	 2.4610
 4.9860	 2.4900
 4.9910	 2.4980
 4.9960	 2.4840
 5.0000	 2.4810
 5.0050	 2.5160
 5.0100	 2.4990
 5.0150	 2.4660
 5.0200	 2.4610
 5.0250	 2.5030
 5.0300	 2.4760
 5.0340	 2.4850
 5.0390	 2.5120
 5.0440	 2.5250
 5.0490	 2.5020
 5.0540	 2.5090
 5.0590	 2.5110
 5.0640	 2.5220
 5.0690	 2.4790
 5.0740	 2.4760
 5.0790	 2.5050
 5.0840	 2.5340
 5.0890	 2.5340
 5.0940	 2.5600
 5.0990	 2.5330
 5.1040	 2.5330
 5.1090	 2.5220
 5.1140	 2.4980
 5.1190	 2.4700
 5.1240	 2.4860
 5.1290	 2.4870
 5.1340	 2.5250
 5.1390	 2.5410
 5.1440	 2.5580
 5.1490	 2.5390
 5.1550	 2.5480
 5.1600	 2.5410
 5.1650	 2.5810
 5.1700	 2.5750
 5.1750	 2.5540
 5.1800	 2.5260
 5.1850	 2.5480
 5.1910	 2.5830
 5.1960	 2.6050
 5.2010	 2.5810
 5.2060	 2.5520
 5.2110	 2.5100
 5.2170	 2.5310
 5.2220	 2.5510
 5.2270	 2.5720
 5.2330	 2.5520
 5.2380	 2.5710
 5.2430	 2.5430
 5.2480	 2.5510
 5.2540	 2.5390
 5.2590	 2.5560
 5.2640	 2.5720
 5.2700	 2.5700
 5.2750	 2.5390
 5.2800	 2.5690
 5.2860	 2.5540
 5.2910	 2.5670
 5.2970	 2.5610
 5.3020	 2.5740
 5.3080	 2.5270
 5.3130	 2.5420
 5.3180	 2.5370
 5.3240	 2.5460
 5.3290	 2.5350
 5.3350	 2.5270
 5.3400	 2.5180
 5.3460	 2.5390
 5.3510	 2.5220
 5.3570	 2.5690
 5.3620	 2.5660
 5.3680	 2.5540
 5.3740	 2.5170
 5.3790	 2.5320
 5.3850	 2.5130
 5.3900	 2.5150
 5.3960	 2.4990
 5.4010	 2.5350
 5.4070	 2.5520
 5.4130	 2.5600
 5.4180	 2.5110
 5.4240	 2.4660
 5.4300	 2.4380
 5.4350	 2.4720
 5.4410	 2.4710
 5.4470	 2.4910
 5.4530	 2.4740
 5.4580	 2.4660
 5.4640	 2.4380
 5.4700	 2.4560
 5.4760	 2.4540
 5.4810	 2.4580
 5.4870	 2.4310
 5.4930	 2.4470
 5.4990	 2.4170
 5.5050	 2.4310
 5.5110	 2.4310
 5.5160	 2.4420
 5.5220	 2.4210
 5.5280	 2.4300
 5.5340	 2.4070
 5.5400	 2.4090
 5.5460	 2.4000
 5.5520	 2.3880
 5.5580	 2.3500
 5.5640	 2.3720
 5.5700	 2.3720
 5.5760	 2.3560
 5.5820	 2.3190
 5.5880	 2.3280
 5.5940	 2.3090
 5.6000	 2.2860
 5.6060	 2.2460
 5.6120	 2.2380
 5.6180	 2.2170
 5.6240	 2.2430
 5.6300	 2.2270
 5.6360	 2.2080
 5.6420	 2.1440
 5.6490	 2.1240
 5.6550	 2.0790
 5.6610	 2.0660
 5.6670	 2.0230
 5.6730	 2.0200
 5.6800	 2.0050
 5.6860	 1.9970
 5.6920	 1.9350
 5.6980	 1.9580
 5.7050	 1.9580
 5.7110	 1.9860
 5.7170	 1.9760
 5.7230	 1.9640
 5.7300	 1.9430
 5.7360	 1.9280
 5.7420	 1.8160
 5.7490	 1.7890
 5.7550	 1.7600
 5.7620	 1.7130
 5.7680	 1.6750
 5.7740	 1.7090
 5.7810	 1.7070
 5.7870	 1.7780
 5.7940	 1.8690
 5.8000	 1.9150
 5.8070	 1.8980
 5.8130	 1.9600
 5.8200	 1.9710
 5.8260	 2.0060
 5.8330	 2.0160
 5.8390	 2.0580
 5.8460	 2.0660
 5.8530	 2.1400
 5.8590	 2.1740
 5.8660	 2.2350
 5.8730	 2.2180
 5.8790	 2.2520
 5.8860	 2.2850
 5.8930	 2.3310
 5.8990	 2.3220
 5.9060	 2.4080
 5.9130	 2.4220
 5.9190	 2.4460
 5.9260	 2.4080
 5.9330	 2.4400
 5.9400	 2.4440
 5.9470	 2.4790
 5.9530	 2.4490
 5.9600	 2.4320
 5.9670	 2.3610
 5.9740	 2.4080
 5.9810	 2.4080
 5.9880	 2.4040
 5.9950	 2.3830
 6.0020	 2.3690
 6.0090	 2.2790
 6.0160	 2.3060
 6.0230	 2.3000
 6.0300	 2.3090
 6.0370	 2.2810
 6.0440	 2.2960
 6.0510	 2.2810
 6.0580	 2.3390
 6.0650	 2.3610
 6.0720	 2.4500
 6.0790	 2.4590
 6.0860	 2.4750
 6.0930	 2.4180
 6.1010	 2.4240
 6.1080	 2.4130
 6.1150	 2.4620
 6.1220	 2.4340
 6.1290	 2.4480
 6.1370	 2.4200
 6.1440	 2.3870
 6.1510	 2.3420
 6.1580	 2.3650
 6.1660	 2.3420
 6.1730	 2.3780
 6.1800	 2.3210
 6.1880	 2.3240
 6.1950	 2.3000
 6.2030	 2.3160
 6.2100	 2.3330
 6.2180	 2.3950
 6.2250	 2.3530
 6.2320	 2.4290
 6.2400	 2.4780
 6.2480	 2.4730
 6.2550	 2.4220
 6.2630	 2.4670
 6.2700	 2.4400
 6.2780	 2.4900
 6.2850	 2.4940
 6.2930	 2.5250
 6.3010	 2.4620
 6.3080	 2.4690
 6.3160	 2.4510
 6.3240	 2.4810
 6.3310	 2.4590
 6.3390	 2.4980
 6.3470	 2.4870
 6.3550	 2.5350
 6.3620	 2.5070
 6.3700	 2.5220
 6.3780	 2.4690
 6.3860	 2.4710
 6.3940	 2.4760
 6.4020	 2.4810
 6.4100	 2.3900
 6.4180	 2.4410
 6.4260	 2.4880
 6.4340	 2.5190
 6.4420	 2.4780
 6.4500	 2.4650
 6.4580	 2.4500
 6.4660	 2.4480
 6.4740	 2.3540
 6.4820	 2.3580
 6.4900	 2.3290
 6.4980	 2.3860
 6.5060	 2.3760
 6.5140	 2.3750
 6.5230	 2.3380
 6.5310	 2.3210
 6.5390	 2.2770
 6.5470	 2.3040
 6.5560	 2.2150
 6.5640	 2.1550
 6.5720	 2.0690
 6.5800	 2.0810
 6.5890	 2.0570
 6.5970	 2.1410
 6.6060	 2.2090
 6.6140	 2.2520
 6.6230	 2.2530
 6.6310	 2.3290
 6.6390	 2.3120
 6.6480	 2.3580
 6.6570	 2.3510
 6.6650	 2.3620
 6.6740	 2.3180
 6.6820	 2.3260
 6.6910	 2.3130
 6.7000	 2.3390
 6.7080	 2.2970
 6.7170	 2.3290
 6.7260	 2.3340
 6.7340	 2.3770
 6.7430	 2.3180
 6.7520	 2.2970
 6.7610	 2.2700
 6.7690	 2.2940
 6.7780	 2.3130
 6.7870	 2.4970
 6.7960	 2.4540
 6.8050	 2.3190
 6.8140	 2.2600
 6.8230	 2.3740
 6.8320	 2.5030
 6.8410	 2.6160
 6.8500	 2.4650
 6.8590	 2.3630
 6.8680	 2.2570
 6.8770	 2.3050
 6.8860	 2.3180
 6.8960	 2.3840
 6.9050	 2.4000
 6.9140	 2.4410
 6.9230	 2.3600
 6.9320	 2.4040
 6.9420	 2.3750
 6.9510	 2.4160
 6.9600	 2.4130
 6.9700	 2.4770
 6.9790	 2.4570
 6.9880	 2.4840
 6.9980	 2.4670
 7.0070	 2.5100
 7.0170	 2.4860
 7.0260	 2.5250
 7.0360	 2.5050
 7.0450	 2.5090
 7.0550	 2.4490
 7.0650	 2.4940
 7.0740	 2.4830
 7.0840	 2.5310
 7.0940	 2.4610
 7.1030	 2.4860
 7.1130	 2.4520
 7.1230	 2.4300
 7.1330	 2.3560
 7.1420	 2.3810
 7.1520	 2.3400
 7.1620	 2.3430
 7.1720	 2.2830
 7.1820	 2.3140
 7.1920	 2.2770
 7.2020	 2.3040
 7.2120	 2.3050
 7.2220	 2.3360
 7.2320	 2.2730
 7.2420	 2.3220
 7.2520	 2.3500
 7.2620	 2.4030
 7.2730	 2.3310
 7.2830	 2.3340
 7.2930	 2.3150
 7.3030	 2.3490
 7.3140	 2.3340
 7.3240	 2.4130
 7.3340	 2.3870
 7.3450	 2.4640
 7.3550	 2.4550
 7.3660	 2.5140
 7.3760	 2.5020
 7.3870	 2.5430
 7.3970	 2.5440
 7.4080	 2.5970
 7.4180	 2.5710
 7.4290	 2.6240
 7.4400	 2.5720
 7.4500	 2.6250
 7.4610	 2.6180
 7.4720	 2.6400
 7.4830	 2.5360
 7.4930	 2.5790
 7.5040	 2.5990
 7.5150	 2.6500
 7.5260	 2.5720
 7.5370	 2.5470
 7.5480	 2.5470
 7.5590	 2.6060
 7.5700	 2.5480
 7.5810	 2.5780
 7.5920	 2.5090
 7.6030	 2.5110
 7.6140	 2.4490
 7.6260	 2.4610
 7.6370	 2.4220
 7.6480	 2.4480
 7.6590	 2.4110
 7.6710	 2.4640
 7.6820	 2.3780
 7.6940	 2.4320
 7.7050	 2.4410
 7.7160	 2.4610
 7.7280	 2.4110
 7.7390	 2.4280
 7.7510	 2.3570
 7.7630	 2.4270
 7.7740	 2.3970
 7.7860	 2.4690
 7.7980	 2.4490
 7.8090	 2.4690
 7.8210	 2.4400
 7.8330	 2.5540
 7.8450	 2.5560
 7.8570	 2.5950
 7.8690	 2.5880
 7.8810	 2.6450
 7.8930	 2.5680
 7.9050	 2.6220
 7.9170	 2.6060
 7.9290	 2.6710
 7.9410	 2.6890
 7.9530	 2.7780
 7.9650	 2.7040
 7.9780	 2.7720
 7.9900	 2.7620
 8.0020	 2.8650
 8.0150	 2.8410
 8.0270	 2.8490
 8.0390	 2.8080
 8.0520	 2.9440
 8.0640	 2.9170
 8.0770	 3.0220
 8.0900	 2.9820
 8.1020	 3.0190
 8.1150	 3.0010
 8.1280	 3.1180
 8.1400	 3.0910
 8.1530	 3.1020
 8.1660	 3.0300
 8.1790	 3.1110
 8.1920	 3.0110
 8.2050	 3.0800
 8.2180	 3.0720
 8.2310	 3.1930
 8.2440	 3.1570
 8.2570	 3.2180
 8.2700	 3.2620
 8.2830	 3.4490
 8.2970	 3.5070
 8.3100	 3.6280
 8.3230	 3.5920
 8.3370	 3.6780
 8.3500	 3.6260
 8.3640	 3.6360
 8.3770	 3.5280
 8.3910	 3.5990
 8.4040	 3.5190
 8.4180	 3.5750
 8.4320	 3.4820
 8.4450	 3.5150
 8.4590	 3.5470
 8.4730	 3.7700
 8.4870	 3.8750
 8.5010	 4.0770
 8.5150	 4.0720
 8.5290	 4.2720
 8.5430	 4.3800
 8.5570	 4.5790
 8.5710	 4.6160
 8.5850	 4.6900
 8.5990	 4.6800
 8.6140	 4.8510
 8.6280	 4.7930
 8.6420	 4.7750
 8.6570	 4.6550
 8.6710	 4.7240
 8.6860	 4.7020
 8.7000	 4.7560
 8.7150	 4.6340
 8.7300	 4.6860
 8.7440	 4.6490
 8.7590	 4.7890
 8.7740	 4.7990
 8.7890	 4.9890
 8.8040	 4.9680
 8.8190	 5.0580
 8.8340	 4.9520
 8.8490	 4.9910
 8.8640	 4.9430
 8.8790	 5.0750
 8.8940	 5.0540
 8.9100	 5.0850
 8.9250	 4.9860
 8.9400	 5.0930
 8.9560	 4.9680
 8.9710	 5.0150
 8.9870	 4.9560
 9.0020	 5.0000
 9.0180	 4.8870
 9.0340	 4.8730
 9.0500	 4.7150
 9.0650	 4.8500
 9.0810	 4.8370
 9.0970	 4.8990
 9.1130	 4.7900
 9.1290	 4.8290
 9.1450	 4.6820
 9.1620	 4.6500
 9.1780	 4.5580
 9.1940	 4.6950
 9.2100	 4.5960
 9.2270	 4.6660
 9.2430	 4.6500
 9.2600	 4.7490
 9.2760	 4.7020
 9.2930	 4.7750
 9.3100	 4.6480
 9.3260	 4.6450
 9.3430	 4.4910
 9.3600	 4.4830
 9.3770	 4.3800
 9.3940	 4.5680
 9.4110	 4.4910
 9.4280	 4.5420
 9.4450	 4.4770
 9.4620	 4.5450
 9.4800	 4.3980
 9.4970	 4.4280
 9.5150	 4.2160
 9.5320	 4.1750
 9.5500	 4.0270
 9.5670	 4.0770
 9.5850	 3.9340
 9.6030	 3.9800
 9.6200	 3.9210
 9.6380	 4.0010
 9.6560	 3.8390
 9.6740	 3.8590
 9.6920	 3.7550
 9.7110	 3.7330
 9.7290	 3.5410
 9.7470	 3.6080
 9.7650	 3.4960
 9.7840	 3.5360
 9.8020	 3.4010
 9.8210	 3.5280
 9.8390	 3.3720
 9.8580	 3.3650
 9.8770	 3.2970
 9.8960	 3.3120
 9.9150	 3.2280
 9.9340	 3.3150
 9.9530	 3.2160
 9.9720	 3.2180
 9.9910	 3.0630
10.0100	 3.1430
10.0300	 3.0050
10.0490	 2.9880
10.0690	 2.9030
10.0880	 2.9530
10.1080	 2.8410
10.1280	 2.8360
10.1480	 2.7240
10.1670	 2.8640
10.1870	 2.7770
10.2070	 2.7800
10.2280	 2.6620
10.2480	 2.7560
10.2680	 2.6780
10.2890	 2.7260
10.3090	 2.6370
10.3300	 2.7410
10.3500	 2.6560
10.3710	 2.7460
10.3920	 2.6530
10.4120	 2.6990
10.4330	 2.5980
10.4540	 2.7220
10.4760	 2.6300
10.4970	 2.6610
10.5180	 2.5660
10.5390	 2.7050
10.5610	 2.6060
10.5820	 2.6640
10.6040	 2.6180
10.6260	 2.7130
10.6480	 2.6320
10.6700	 2.6930
10.6920	 2.6320
10.7140	 2.7470
10.7360	 2.6440
10.7580	 2.7570
10.7800	 2.6540
10.8030	 2.7120
10.8250	 2.5970
10.8480	 2.6820
10.8710	 2.6560
10.8940	 2.8180
10.9170	 2.7120
10.9400	 2.8200
10.9630	 2.7370
10.9860	 2.8490
11.0090	 2.7520
11.0330	 2.7830
11.0560	 2.6850
11.0800	 2.8400
11.1040	 2.7890
11.1270	 2.8810
11.1510	 2.7410
11.1750	 2.8390
11.2000	 2.7810
11.2240	 2.8910
11.2480	 2.8190
11.2730	 2.9480
11.2970	 2.8480
11.3220	 3.0040
11.3470	 2.9050
11.3720	 3.0010
11.3970	 2.9700
11.4220	 3.1200
11.4470	 2.9820
11.4720	 3.1100
11.4980	 3.0510
11.5230	 3.1820
11.5490	 3.0400
11.5750	 3.1390
11.6000	 3.0520
11.6260	 3.1960
11.6530	 3.1610
11.6790	 3.2570
11.7050	 3.0940
11.7320	 3.2620
11.7580	 3.2020
11.7850	 3.3080
11.8120	 3.1650
11.8390	 3.3480
11.8660	 3.3620
11.8930	 3.5740
11.9200	 3.5140
11.9480	 3.6510
11.9760	 3.5390
12.0030	 3.7770
12.0310	 3.7200
12.0590	 3.8640
12.0870	 3.7550
12.1150	 3.8700
12.1440	 3.6150
12.1720	 3.6760
12.2010	 3.7180
12.2300	 3.9720
12.2590	 3.8540
12.2880	 3.9830
12.3170	 3.8080
12.3460	 3.9690
12.3760	 3.8700
12.4050	 4.0390
12.4350	 3.8880
12.4650	 4.0140
12.4950	 3.9800
12.5250	 4.1180
12.5550	 3.8720
12.5860	 3.9640
12.6170	 3.8890
12.6470	 4.0060
12.6780	 3.8730
12.7090	 4.0410
12.7410	 3.8560
12.7720	 3.9990
12.8030	 3.8970
12.8350	 4.0500
12.8670	 3.9210
12.8990	 4.0870
12.9310	 3.9650
12.9640	 4.1250
12.9960	 4.0040
13.0290	 4.1550
13.0610	 4.0200
13.0940	 4.1690
13.1280	 3.9850
13.1610	 4.1310
13.1940	 3.9850
13.2280	 4.1280
13.2620	 3.9950
13.2960	 4.1360
13.3300	 3.9540
13.3640	 4.1370
13.3990	 4.0020
13.4340	 4.1100
13.4690	 3.9010
13.5040	 4.0620
13.5390	 3.9230
13.5740	 4.1280
13.6100	 3.9570
13.6460	 4.0870
13.6820	 3.9310
13.7180	 4.1810
13.7540	 4.1350
13.7910	 4.2460
13.8280	 3.8930
13.8650	 4.2430
13.9020	 4.2030
13.9390	 4.3750
13.9770	 4.0790
14.0150	 4.1900
14.0530	 4.0320
14.0910	 4.2680
14.1290	 3.9960
14.1680	 4.1610
14.2070	 3.9010
14.2460	 4.0720
14.2850	 3.8600
14.3240	 4.0980
14.3640	 3.8850
14.4040	 4.0410
14.4440	 3.7320
14.4840	 4.0370
14.5250	 3.7310
14.5660	 3.9250
14.6070	 3.6180
14.6480	 3.9150
14.6900	 3.6900
14.7310	 3.8910
14.7730	 3.6770
14.8150	 4.0240
14.8580	 3.7500
14.9010	 4.0100
14.9440	 3.8980
14.9870	 4.3810
15.0300	 3.5560
15.0740	 3.6600
15.1180	 3.3210
15.1620	 3.6250
15.2060	 3.3610
15.2510	 3.9050
15.2960	 3.5260
15.3410	 3.8710
15.3870	 2.1740
