Name: Umbellularia californica 2
Type: vegetation
Class: Shrub
Genus: Umbellularia
Species: californica
Sample No.: VH106
Owner: UCSB
Wavelength Range: VSWIR
Origin: 34.5074; -119.7632; WGS84
Collection Date: 6/3/2013
Description: Samples were collected as part of the HyspIRI Airborne Campaign. 48 individual plants were sampled in three times in 2013 - spring  summer  and fall. The name of the sample includes a 1  2  or 3 which references a different individual of the species. Samples were taken to JPL and processed within 48 hours of collection. The same leaves were processed in the Nicolet and then measured using the ASD.
Measurement: Bidirectional reflectance
First Column: X
Second Column: Y
X Units: Wavelength (micrometers)
Y Units: Reflectance (percentage)
First X Value: 0.35
Last X Value: 2.5
Number of X Values: 2151
Additional Information: vegetation.shrub.umbellularia.californica.vswir.vh106.ucsb.asd.ancillary.txt

 0.3500	 5.9070
 0.3510	 5.8040
 0.3520	 5.7680
 0.3530	 5.8100
 0.3540	 5.8830
 0.3550	 5.8000
 0.3560	 5.8070
 0.3570	 5.8050
 0.3580	 5.5800
 0.3590	 5.6050
 0.3600	 5.6570
 0.3610	 5.6180
 0.3620	 5.6150
 0.3630	 5.5610
 0.3640	 5.5040
 0.3650	 5.5130
 0.3660	 5.6380
 0.3670	 5.6430
 0.3680	 5.5460
 0.3690	 5.5350
 0.3700	 5.5920
 0.3710	 5.5980
 0.3720	 5.5280
 0.3730	 5.5530
 0.3740	 5.5330
 0.3750	 5.4690
 0.3760	 5.4270
 0.3770	 5.5490
 0.3780	 5.5980
 0.3790	 5.5430
 0.3800	 5.5340
 0.3810	 5.4570
 0.3820	 5.4510
 0.3830	 5.5490
 0.3840	 5.4540
 0.3850	 5.4500
 0.3860	 5.5100
 0.3870	 5.5150
 0.3880	 5.5210
 0.3890	 5.5250
 0.3900	 5.5180
 0.3910	 5.4970
 0.3920	 5.4640
 0.3930	 5.4510
 0.3940	 5.4740
 0.3950	 5.4930
 0.3960	 5.5060
 0.3970	 5.4940
 0.3980	 5.4440
 0.3990	 5.4430
 0.4000	 5.4730
 0.4010	 5.4990
 0.4020	 5.4800
 0.4030	 5.4680
 0.4040	 5.4710
 0.4050	 5.4820
 0.4060	 5.4940
 0.4070	 5.4820
 0.4080	 5.4630
 0.4090	 5.4710
 0.4100	 5.4970
 0.4110	 5.5200
 0.4120	 5.5280
 0.4130	 5.5120
 0.4140	 5.5230
 0.4150	 5.5560
 0.4160	 5.5870
 0.4170	 5.6130
 0.4180	 5.6220
 0.4190	 5.6300
 0.4200	 5.6710
 0.4210	 5.6800
 0.4220	 5.6860
 0.4230	 5.7190
 0.4240	 5.7520
 0.4250	 5.7720
 0.4260	 5.7840
 0.4270	 5.8050
 0.4280	 5.8350
 0.4290	 5.8640
 0.4300	 5.8890
 0.4310	 5.9240
 0.4320	 5.9410
 0.4330	 5.9560
 0.4340	 5.9890
 0.4350	 6.0130
 0.4360	 6.0290
 0.4370	 6.0410
 0.4380	 6.0540
 0.4390	 6.0560
 0.4400	 6.0660
 0.4410	 6.0890
 0.4420	 6.1010
 0.4430	 6.1150
 0.4440	 6.1280
 0.4450	 6.1360
 0.4460	 6.1640
 0.4470	 6.1920
 0.4480	 6.2060
 0.4490	 6.2090
 0.4500	 6.2320
 0.4510	 6.2610
 0.4520	 6.2800
 0.4530	 6.2950
 0.4540	 6.3080
 0.4550	 6.3210
 0.4560	 6.3300
 0.4570	 6.3460
 0.4580	 6.3530
 0.4590	 6.3500
 0.4600	 6.3690
 0.4610	 6.3800
 0.4620	 6.3800
 0.4630	 6.3790
 0.4640	 6.3970
 0.4650	 6.4100
 0.4660	 6.4120
 0.4670	 6.4140
 0.4680	 6.4190
 0.4690	 6.4220
 0.4700	 6.4230
 0.4710	 6.4300
 0.4720	 6.4320
 0.4730	 6.4290
 0.4740	 6.4250
 0.4750	 6.4280
 0.4760	 6.4360
 0.4770	 6.4430
 0.4780	 6.4370
 0.4790	 6.4410
 0.4800	 6.4480
 0.4810	 6.4450
 0.4820	 6.4600
 0.4830	 6.4740
 0.4840	 6.4830
 0.4850	 6.4950
 0.4860	 6.5050
 0.4870	 6.5200
 0.4880	 6.5450
 0.4890	 6.5630
 0.4900	 6.5790
 0.4910	 6.6010
 0.4920	 6.6380
 0.4930	 6.6720
 0.4940	 6.7120
 0.4950	 6.7580
 0.4960	 6.7980
 0.4970	 6.8480
 0.4980	 6.9050
 0.4990	 6.9660
 0.5000	 7.0350
 0.5010	 7.1140
 0.5020	 7.2030
 0.5030	 7.2970
 0.5040	 7.4020
 0.5050	 7.5190
 0.5060	 7.6500
 0.5070	 7.7870
 0.5080	 7.9430
 0.5090	 8.1190
 0.5100	 8.3080
 0.5110	 8.5130
 0.5120	 8.7310
 0.5130	 8.9600
 0.5140	 9.2090
 0.5150	 9.4750
 0.5160	 9.7610
 0.5170	10.0680
 0.5180	10.3850
 0.5190	10.7140
 0.5200	11.0530
 0.5210	11.3970
 0.5220	11.7420
 0.5230	12.0830
 0.5240	12.4210
 0.5250	12.7620
 0.5260	13.0940
 0.5270	13.4100
 0.5280	13.7070
 0.5290	13.9850
 0.5300	14.2490
 0.5310	14.5010
 0.5320	14.7380
 0.5330	14.9570
 0.5340	15.1560
 0.5350	15.3360
 0.5360	15.4960
 0.5370	15.6460
 0.5380	15.7880
 0.5390	15.9110
 0.5400	16.0320
 0.5410	16.1470
 0.5420	16.2540
 0.5430	16.3570
 0.5440	16.4540
 0.5450	16.5390
 0.5460	16.6070
 0.5470	16.6650
 0.5480	16.7130
 0.5490	16.7550
 0.5500	16.7950
 0.5510	16.8240
 0.5520	16.8360
 0.5530	16.8290
 0.5540	16.8020
 0.5550	16.7560
 0.5560	16.6910
 0.5570	16.6060
 0.5580	16.5090
 0.5590	16.3950
 0.5600	16.2630
 0.5610	16.1230
 0.5620	15.9720
 0.5630	15.8090
 0.5640	15.6320
 0.5650	15.4410
 0.5660	15.2360
 0.5670	15.0220
 0.5680	14.8060
 0.5690	14.5850
 0.5700	14.3620
 0.5710	14.1400
 0.5720	13.9270
 0.5730	13.7230
 0.5740	13.5320
 0.5750	13.3590
 0.5760	13.1990
 0.5770	13.0470
 0.5780	12.9000
 0.5790	12.7630
 0.5800	12.6330
 0.5810	12.5090
 0.5820	12.3910
 0.5830	12.2720
 0.5840	12.1580
 0.5850	12.0510
 0.5860	11.9490
 0.5870	11.8560
 0.5880	11.7740
 0.5890	11.7010
 0.5900	11.6410
 0.5910	11.5860
 0.5920	11.5330
 0.5930	11.4840
 0.5940	11.4360
 0.5950	11.3890
 0.5960	11.3420
 0.5970	11.2900
 0.5980	11.2390
 0.5990	11.1880
 0.6000	11.1340
 0.6010	11.0760
 0.6020	11.0150
 0.6030	10.9510
 0.6040	10.8810
 0.6050	10.8100
 0.6060	10.7330
 0.6070	10.6470
 0.6080	10.5590
 0.6090	10.4690
 0.6100	10.3790
 0.6110	10.2900
 0.6120	10.1920
 0.6130	10.0860
 0.6140	 9.9800
 0.6150	 9.8840
 0.6160	 9.7920
 0.6170	 9.7040
 0.6180	 9.6220
 0.6190	 9.5460
 0.6200	 9.4780
 0.6210	 9.4200
 0.6220	 9.3700
 0.6230	 9.3240
 0.6240	 9.2850
 0.6250	 9.2530
 0.6260	 9.2270
 0.6270	 9.2070
 0.6280	 9.1900
 0.6290	 9.1740
 0.6300	 9.1570
 0.6310	 9.1390
 0.6320	 9.1160
 0.6330	 9.0850
 0.6340	 9.0470
 0.6350	 8.9980
 0.6360	 8.9340
 0.6370	 8.8550
 0.6380	 8.7630
 0.6390	 8.6620
 0.6400	 8.5540
 0.6410	 8.4350
 0.6420	 8.3140
 0.6430	 8.1950
 0.6440	 8.0730
 0.6450	 7.9550
 0.6460	 7.8450
 0.6470	 7.7460
 0.6480	 7.6560
 0.6490	 7.5760
 0.6500	 7.5080
 0.6510	 7.4510
 0.6520	 7.4010
 0.6530	 7.3560
 0.6540	 7.3140
 0.6550	 7.2630
 0.6560	 7.2150
 0.6570	 7.1640
 0.6580	 7.1060
 0.6590	 7.0410
 0.6600	 6.9720
 0.6610	 6.9030
 0.6620	 6.8370
 0.6630	 6.7730
 0.6640	 6.7120
 0.6650	 6.6590
 0.6660	 6.6130
 0.6670	 6.5720
 0.6680	 6.5390
 0.6690	 6.5140
 0.6700	 6.4980
 0.6710	 6.4910
 0.6720	 6.4890
 0.6730	 6.4860
 0.6740	 6.4900
 0.6750	 6.5000
 0.6760	 6.5140
 0.6770	 6.5360
 0.6780	 6.5600
 0.6790	 6.5890
 0.6800	 6.6240
 0.6810	 6.6710
 0.6820	 6.7280
 0.6830	 6.7970
 0.6840	 6.8820
 0.6850	 6.9910
 0.6860	 7.1320
 0.6870	 7.3110
 0.6880	 7.5350
 0.6890	 7.8150
 0.6900	 8.1610
 0.6910	 8.5890
 0.6920	 9.1030
 0.6930	 9.7050
 0.6940	10.3990
 0.6950	11.1840
 0.6960	12.0610
 0.6970	13.0180
 0.6980	14.0430
 0.6990	15.1310
 0.7000	16.2690
 0.7010	17.4420
 0.7020	18.6360
 0.7030	19.8390
 0.7040	21.0410
 0.7050	22.2350
 0.7060	23.4210
 0.7070	24.5870
 0.7080	25.7340
 0.7090	26.8660
 0.7100	27.9790
 0.7110	29.0760
 0.7120	30.1570
 0.7130	31.2160
 0.7140	32.2590
 0.7150	33.2860
 0.7160	34.2910
 0.7170	35.2770
 0.7180	36.2420
 0.7190	37.1900
 0.7200	38.1210
 0.7210	39.0260
 0.7220	39.9040
 0.7230	40.7600
 0.7240	41.5930
 0.7250	42.3990
 0.7260	43.1760
 0.7270	43.9230
 0.7280	44.6430
 0.7290	45.3300
 0.7300	45.9840
 0.7310	46.6120
 0.7320	47.2070
 0.7330	47.7750
 0.7340	48.3170
 0.7350	48.8260
 0.7360	49.3080
 0.7370	49.7640
 0.7380	50.1960
 0.7390	50.5970
 0.7400	50.9830
 0.7410	51.3460
 0.7420	51.6770
 0.7430	51.9860
 0.7440	52.2760
 0.7450	52.5470
 0.7460	52.7990
 0.7470	53.0280
 0.7480	53.2390
 0.7490	53.4360
 0.7500	53.6180
 0.7510	53.7830
 0.7520	53.9330
 0.7530	54.0700
 0.7540	54.1940
 0.7550	54.3060
 0.7560	54.4080
 0.7570	54.5030
 0.7580	54.5900
 0.7590	54.6690
 0.7600	54.7390
 0.7610	54.8040
 0.7620	54.8620
 0.7630	54.9140
 0.7640	54.9640
 0.7650	55.0080
 0.7660	55.0480
 0.7670	55.0840
 0.7680	55.1140
 0.7690	55.1450
 0.7700	55.1720
 0.7710	55.1960
 0.7720	55.2170
 0.7730	55.2390
 0.7740	55.2600
 0.7750	55.2760
 0.7760	55.2930
 0.7770	55.3110
 0.7780	55.3290
 0.7790	55.3460
 0.7800	55.3600
 0.7810	55.3770
 0.7820	55.3960
 0.7830	55.4040
 0.7840	55.4110
 0.7850	55.4220
 0.7860	55.4370
 0.7870	55.4440
 0.7880	55.4500
 0.7890	55.4600
 0.7900	55.4700
 0.7910	55.4780
 0.7920	55.4860
 0.7930	55.4930
 0.7940	55.4980
 0.7950	55.5000
 0.7960	55.5050
 0.7970	55.5110
 0.7980	55.5070
 0.7990	55.5070
 0.8000	55.5060
 0.8010	55.5030
 0.8020	55.5040
 0.8030	55.5020
 0.8040	55.4970
 0.8050	55.4920
 0.8060	55.4880
 0.8070	55.4820
 0.8080	55.4760
 0.8090	55.4700
 0.8100	55.4600
 0.8110	55.4480
 0.8120	55.4390
 0.8130	55.4340
 0.8140	55.4220
 0.8150	55.4070
 0.8160	55.3950
 0.8170	55.3850
 0.8180	55.3720
 0.8190	55.3580
 0.8200	55.3450
 0.8210	55.3380
 0.8220	55.3290
 0.8230	55.3150
 0.8240	55.2980
 0.8250	55.2790
 0.8260	55.2620
 0.8270	55.2480
 0.8280	55.2280
 0.8290	55.2140
 0.8300	55.2020
 0.8310	55.1860
 0.8320	55.1750
 0.8330	55.1590
 0.8340	55.1410
 0.8350	55.1240
 0.8360	55.1140
 0.8370	55.1090
 0.8380	55.1040
 0.8390	55.0940
 0.8400	55.0850
 0.8410	55.0770
 0.8420	55.0710
 0.8430	55.0680
 0.8440	55.0660
 0.8450	55.0600
 0.8460	55.0530
 0.8470	55.0450
 0.8480	55.0410
 0.8490	55.0400
 0.8500	55.0400
 0.8510	55.0360
 0.8520	55.0320
 0.8530	55.0310
 0.8540	55.0360
 0.8550	55.0270
 0.8560	55.0230
 0.8570	55.0270
 0.8580	55.0230
 0.8590	55.0180
 0.8600	55.0220
 0.8610	55.0310
 0.8620	55.0250
 0.8630	55.0200
 0.8640	55.0210
 0.8650	55.0260
 0.8660	55.0350
 0.8670	55.0340
 0.8680	55.0310
 0.8690	55.0320
 0.8700	55.0310
 0.8710	55.0300
 0.8720	55.0330
 0.8730	55.0390
 0.8740	55.0430
 0.8750	55.0460
 0.8760	55.0480
 0.8770	55.0510
 0.8780	55.0580
 0.8790	55.0660
 0.8800	55.0730
 0.8810	55.0780
 0.8820	55.0770
 0.8830	55.0770
 0.8840	55.0830
 0.8850	55.0870
 0.8860	55.0920
 0.8870	55.1020
 0.8880	55.1130
 0.8890	55.1030
 0.8900	55.1040
 0.8910	55.1160
 0.8920	55.1240
 0.8930	55.1290
 0.8940	55.1290
 0.8950	55.1290
 0.8960	55.1350
 0.8970	55.1430
 0.8980	55.1480
 0.8990	55.1470
 0.9000	55.1430
 0.9010	55.1530
 0.9020	55.1600
 0.9030	55.1580
 0.9040	55.1680
 0.9050	55.1720
 0.9060	55.1710
 0.9070	55.1700
 0.9080	55.1750
 0.9090	55.1730
 0.9100	55.1700
 0.9110	55.1720
 0.9120	55.1810
 0.9130	55.1770
 0.9140	55.1720
 0.9150	55.1810
 0.9160	55.1810
 0.9170	55.1840
 0.9180	55.1860
 0.9190	55.1790
 0.9200	55.1790
 0.9210	55.1720
 0.9220	55.1580
 0.9230	55.1420
 0.9240	55.1340
 0.9250	55.1190
 0.9260	55.1000
 0.9270	55.0900
 0.9280	55.0660
 0.9290	55.0430
 0.9300	55.0260
 0.9310	55.0070
 0.9320	54.9890
 0.9330	54.9660
 0.9340	54.9330
 0.9350	54.8900
 0.9360	54.8660
 0.9370	54.8380
 0.9380	54.7970
 0.9390	54.7670
 0.9400	54.7280
 0.9410	54.6900
 0.9420	54.6560
 0.9430	54.6110
 0.9440	54.5640
 0.9450	54.5110
 0.9460	54.4540
 0.9470	54.4020
 0.9480	54.3390
 0.9490	54.2700
 0.9500	54.1990
 0.9510	54.1280
 0.9520	54.0330
 0.9530	53.9370
 0.9540	53.8640
 0.9550	53.7880
 0.9560	53.7120
 0.9570	53.6320
 0.9580	53.5500
 0.9590	53.4910
 0.9600	53.4390
 0.9610	53.3840
 0.9620	53.3290
 0.9630	53.2940
 0.9640	53.2500
 0.9650	53.2110
 0.9660	53.1990
 0.9670	53.1680
 0.9680	53.1500
 0.9690	53.1460
 0.9700	53.1390
 0.9710	53.1060
 0.9720	53.0950
 0.9730	53.0960
 0.9740	53.0830
 0.9750	53.0890
 0.9760	53.0860
 0.9770	53.0770
 0.9780	53.0810
 0.9790	53.0890
 0.9800	53.0930
 0.9810	53.0960
 0.9820	53.1090
 0.9830	53.1200
 0.9840	53.1290
 0.9850	53.1390
 0.9860	53.1550
 0.9870	53.1700
 0.9880	53.1690
 0.9890	53.1770
 0.9900	53.2200
 0.9910	53.2340
 0.9920	53.2890
 0.9930	53.3450
 0.9940	53.4010
 0.9950	53.4570
 0.9960	53.5130
 0.9970	53.5690
 0.9980	53.6240
 0.9990	53.6800
 1.0000	53.7360
 1.0010	53.7920
 1.0020	53.8480
 1.0030	53.9030
 1.0040	53.9590
 1.0050	54.0150
 1.0060	54.0710
 1.0070	54.1270
 1.0080	54.1830
 1.0090	54.2380
 1.0100	54.2380
 1.0110	54.2570
 1.0120	54.2780
 1.0130	54.3010
 1.0140	54.3250
 1.0150	54.3530
 1.0160	54.3730
 1.0170	54.3970
 1.0180	54.4190
 1.0190	54.4380
 1.0200	54.4620
 1.0210	54.4820
 1.0220	54.5040
 1.0230	54.5250
 1.0240	54.5460
 1.0250	54.5660
 1.0260	54.5850
 1.0270	54.6030
 1.0280	54.6200
 1.0290	54.6360
 1.0300	54.6500
 1.0310	54.6680
 1.0320	54.6880
 1.0330	54.7070
 1.0340	54.7240
 1.0350	54.7370
 1.0360	54.7460
 1.0370	54.7520
 1.0380	54.7680
 1.0390	54.7910
 1.0400	54.8100
 1.0410	54.8350
 1.0420	54.8520
 1.0430	54.8620
 1.0440	54.8730
 1.0450	54.8800
 1.0460	54.8880
 1.0470	54.8930
 1.0480	54.9020
 1.0490	54.9160
 1.0500	54.9270
 1.0510	54.9410
 1.0520	54.9550
 1.0530	54.9630
 1.0540	54.9650
 1.0550	54.9710
 1.0560	54.9760
 1.0570	54.9830
 1.0580	54.9960
 1.0590	55.0000
 1.0600	54.9990
 1.0610	54.9990
 1.0620	54.9950
 1.0630	54.9950
 1.0640	55.0000
 1.0650	55.0020
 1.0660	55.0010
 1.0670	55.0010
 1.0680	55.0010
 1.0690	54.9980
 1.0700	54.9960
 1.0710	54.9950
 1.0720	54.9910
 1.0730	54.9830
 1.0740	54.9780
 1.0750	54.9750
 1.0760	54.9690
 1.0770	54.9610
 1.0780	54.9560
 1.0790	54.9500
 1.0800	54.9440
 1.0810	54.9400
 1.0820	54.9350
 1.0830	54.9300
 1.0840	54.9210
 1.0850	54.9090
 1.0860	54.8960
 1.0870	54.8840
 1.0880	54.8670
 1.0890	54.8530
 1.0900	54.8430
 1.0910	54.8290
 1.0920	54.8140
 1.0930	54.7990
 1.0940	54.7850
 1.0950	54.7700
 1.0960	54.7570
 1.0970	54.7400
 1.0980	54.7190
 1.0990	54.7020
 1.1000	54.6830
 1.1010	54.6640
 1.1020	54.6470
 1.1030	54.6310
 1.1040	54.6080
 1.1050	54.5880
 1.1060	54.5680
 1.1070	54.5480
 1.1080	54.5280
 1.1090	54.5090
 1.1100	54.4870
 1.1110	54.4640
 1.1120	54.4380
 1.1130	54.4070
 1.1140	54.3790
 1.1150	54.3530
 1.1160	54.3230
 1.1170	54.2960
 1.1180	54.2650
 1.1190	54.2320
 1.1200	54.1940
 1.1210	54.1540
 1.1220	54.1100
 1.1230	54.0570
 1.1240	54.0030
 1.1250	53.9420
 1.1260	53.8760
 1.1270	53.8000
 1.1280	53.7190
 1.1290	53.6260
 1.1300	53.5250
 1.1310	53.4130
 1.1320	53.2890
 1.1330	53.1580
 1.1340	53.0210
 1.1350	52.8710
 1.1360	52.7110
 1.1370	52.5440
 1.1380	52.3690
 1.1390	52.1860
 1.1400	52.0000
 1.1410	51.8130
 1.1420	51.6210
 1.1430	51.4280
 1.1440	51.2410
 1.1450	51.0530
 1.1460	50.8760
 1.1470	50.7040
 1.1480	50.5430
 1.1490	50.3880
 1.1500	50.2460
 1.1510	50.1120
 1.1520	49.9910
 1.1530	49.8810
 1.1540	49.7820
 1.1550	49.6950
 1.1560	49.6170
 1.1570	49.5510
 1.1580	49.4940
 1.1590	49.4420
 1.1600	49.3980
 1.1610	49.3600
 1.1620	49.3280
 1.1630	49.3030
 1.1640	49.2800
 1.1650	49.2600
 1.1660	49.2440
 1.1670	49.2290
 1.1680	49.2200
 1.1690	49.2080
 1.1700	49.1960
 1.1710	49.1840
 1.1720	49.1690
 1.1730	49.1560
 1.1740	49.1460
 1.1750	49.1350
 1.1760	49.1230
 1.1770	49.1110
 1.1780	49.0940
 1.1790	49.0750
 1.1800	49.0570
 1.1810	49.0370
 1.1820	49.0170
 1.1830	48.9980
 1.1840	48.9780
 1.1850	48.9570
 1.1860	48.9390
 1.1870	48.9230
 1.1880	48.9080
 1.1890	48.8920
 1.1900	48.8810
 1.1910	48.8700
 1.1920	48.8640
 1.1930	48.8620
 1.1940	48.8600
 1.1950	48.8630
 1.1960	48.8660
 1.1970	48.8700
 1.1980	48.8760
 1.1990	48.8840
 1.2000	48.8940
 1.2010	48.9050
 1.2020	48.9190
 1.2030	48.9330
 1.2040	48.9490
 1.2050	48.9700
 1.2060	48.9910
 1.2070	49.0140
 1.2080	49.0370
 1.2090	49.0620
 1.2100	49.0880
 1.2110	49.1150
 1.2120	49.1450
 1.2130	49.1750
 1.2140	49.2020
 1.2150	49.2350
 1.2160	49.2710
 1.2170	49.3060
 1.2180	49.3430
 1.2190	49.3800
 1.2200	49.4140
 1.2210	49.4520
 1.2220	49.4910
 1.2230	49.5270
 1.2240	49.5620
 1.2250	49.5960
 1.2260	49.6300
 1.2270	49.6640
 1.2280	49.6960
 1.2290	49.7270
 1.2300	49.7570
 1.2310	49.7850
 1.2320	49.8130
 1.2330	49.8420
 1.2340	49.8680
 1.2350	49.8900
 1.2360	49.9140
 1.2370	49.9360
 1.2380	49.9550
 1.2390	49.9760
 1.2400	49.9950
 1.2410	50.0130
 1.2420	50.0290
 1.2430	50.0440
 1.2440	50.0620
 1.2450	50.0780
 1.2460	50.0930
 1.2470	50.1090
 1.2480	50.1240
 1.2490	50.1370
 1.2500	50.1500
 1.2510	50.1600
 1.2520	50.1680
 1.2530	50.1780
 1.2540	50.1860
 1.2550	50.1910
 1.2560	50.1940
 1.2570	50.1960
 1.2580	50.1970
 1.2590	50.1970
 1.2600	50.1990
 1.2610	50.1990
 1.2620	50.1970
 1.2630	50.1950
 1.2640	50.1910
 1.2650	50.1860
 1.2660	50.1800
 1.2670	50.1710
 1.2680	50.1610
 1.2690	50.1490
 1.2700	50.1350
 1.2710	50.1220
 1.2720	50.1080
 1.2730	50.0920
 1.2740	50.0750
 1.2750	50.0540
 1.2760	50.0320
 1.2770	50.0120
 1.2780	49.9870
 1.2790	49.9590
 1.2800	49.9310
 1.2810	49.9010
 1.2820	49.8680
 1.2830	49.8380
 1.2840	49.8040
 1.2850	49.7670
 1.2860	49.7310
 1.2870	49.6920
 1.2880	49.6500
 1.2890	49.6080
 1.2900	49.5640
 1.2910	49.5150
 1.2920	49.4650
 1.2930	49.4130
 1.2940	49.3550
 1.2950	49.2950
 1.2960	49.2310
 1.2970	49.1630
 1.2980	49.0940
 1.2990	49.0220
 1.3000	48.9510
 1.3010	48.8760
 1.3020	48.7980
 1.3030	48.7200
 1.3040	48.6350
 1.3050	48.5450
 1.3060	48.4540
 1.3070	48.3570
 1.3080	48.2530
 1.3090	48.1500
 1.3100	48.0440
 1.3110	47.9330
 1.3120	47.8200
 1.3130	47.7040
 1.3140	47.5820
 1.3150	47.4550
 1.3160	47.3260
 1.3170	47.1930
 1.3180	47.0570
 1.3190	46.9170
 1.3200	46.7730
 1.3210	46.6260
 1.3220	46.4740
 1.3230	46.3180
 1.3240	46.1600
 1.3250	46.0010
 1.3260	45.8370
 1.3270	45.6720
 1.3280	45.5040
 1.3290	45.3320
 1.3300	45.1590
 1.3310	44.9850
 1.3320	44.8070
 1.3330	44.6330
 1.3340	44.4580
 1.3350	44.2820
 1.3360	44.1060
 1.3370	43.9270
 1.3380	43.7480
 1.3390	43.5720
 1.3400	43.3960
 1.3410	43.2230
 1.3420	43.0510
 1.3430	42.8780
 1.3440	42.7060
 1.3450	42.5360
 1.3460	42.3640
 1.3470	42.1970
 1.3480	42.0310
 1.3490	41.8670
 1.3500	41.7040
 1.3510	41.5430
 1.3520	41.3790
 1.3530	41.2150
 1.3540	41.0520
 1.3550	40.8850
 1.3560	40.7160
 1.3570	40.5470
 1.3580	40.3760
 1.3590	40.2020
 1.3600	40.0250
 1.3610	39.8430
 1.3620	39.6520
 1.3630	39.4540
 1.3640	39.2470
 1.3650	39.0290
 1.3660	38.8040
 1.3670	38.5680
 1.3680	38.3160
 1.3690	38.0510
 1.3700	37.7650
 1.3710	37.4620
 1.3720	37.1410
 1.3730	36.7990
 1.3740	36.4380
 1.3750	36.0540
 1.3760	35.6420
 1.3770	35.2060
 1.3780	34.7380
 1.3790	34.2470
 1.3800	33.7310
 1.3810	33.1850
 1.3820	32.6220
 1.3830	32.0370
 1.3840	31.4340
 1.3850	30.8100
 1.3860	30.1780
 1.3870	29.5240
 1.3880	28.8720
 1.3890	28.2130
 1.3900	27.5470
 1.3910	26.8890
 1.3920	26.2300
 1.3930	25.5740
 1.3940	24.9290
 1.3950	24.2880
 1.3960	23.6640
 1.3970	23.0600
 1.3980	22.4730
 1.3990	21.9140
 1.4000	21.3780
 1.4010	20.8600
 1.4020	20.3710
 1.4030	19.9040
 1.4040	19.4650
 1.4050	19.0550
 1.4060	18.6680
 1.4070	18.3100
 1.4080	17.9760
 1.4090	17.6650
 1.4100	17.3780
 1.4110	17.1120
 1.4120	16.8670
 1.4130	16.6440
 1.4140	16.4390
 1.4150	16.2550
 1.4160	16.0880
 1.4170	15.9340
 1.4180	15.7960
 1.4190	15.6690
 1.4200	15.5550
 1.4210	15.4530
 1.4220	15.3610
 1.4230	15.2790
 1.4240	15.2070
 1.4250	15.1410
 1.4260	15.0860
 1.4270	15.0350
 1.4280	14.9930
 1.4290	14.9550
 1.4300	14.9230
 1.4310	14.8970
 1.4320	14.8770
 1.4330	14.8620
 1.4340	14.8520
 1.4350	14.8440
 1.4360	14.8400
 1.4370	14.8400
 1.4380	14.8430
 1.4390	14.8490
 1.4400	14.8580
 1.4410	14.8690
 1.4420	14.8820
 1.4430	14.8980
 1.4440	14.9160
 1.4450	14.9350
 1.4460	14.9560
 1.4470	14.9790
 1.4480	15.0030
 1.4490	15.0270
 1.4500	15.0520
 1.4510	15.0790
 1.4520	15.1060
 1.4530	15.1350
 1.4540	15.1660
 1.4550	15.2000
 1.4560	15.2370
 1.4570	15.2770
 1.4580	15.3210
 1.4590	15.3670
 1.4600	15.4170
 1.4610	15.4720
 1.4620	15.5310
 1.4630	15.5980
 1.4640	15.6680
 1.4650	15.7440
 1.4660	15.8250
 1.4670	15.9090
 1.4680	16.0000
 1.4690	16.0960
 1.4700	16.1960
 1.4710	16.3020
 1.4720	16.4100
 1.4730	16.5230
 1.4740	16.6410
 1.4750	16.7610
 1.4760	16.8850
 1.4770	17.0120
 1.4780	17.1390
 1.4790	17.2690
 1.4800	17.4000
 1.4810	17.5310
 1.4820	17.6660
 1.4830	17.8030
 1.4840	17.9420
 1.4850	18.0810
 1.4860	18.2210
 1.4870	18.3640
 1.4880	18.5060
 1.4890	18.6500
 1.4900	18.7950
 1.4910	18.9420
 1.4920	19.0890
 1.4930	19.2360
 1.4940	19.3840
 1.4950	19.5330
 1.4960	19.6830
 1.4970	19.8320
 1.4980	19.9820
 1.4990	20.1330
 1.5000	20.2840
 1.5010	20.4360
 1.5020	20.5870
 1.5030	20.7380
 1.5040	20.8890
 1.5050	21.0390
 1.5060	21.1890
 1.5070	21.3400
 1.5080	21.4900
 1.5090	21.6400
 1.5100	21.7900
 1.5110	21.9390
 1.5120	22.0900
 1.5130	22.2380
 1.5140	22.3860
 1.5150	22.5340
 1.5160	22.6810
 1.5170	22.8290
 1.5180	22.9750
 1.5190	23.1200
 1.5200	23.2650
 1.5210	23.4080
 1.5220	23.5520
 1.5230	23.6950
 1.5240	23.8370
 1.5250	23.9790
 1.5260	24.1200
 1.5270	24.2600
 1.5280	24.4010
 1.5290	24.5380
 1.5300	24.6760
 1.5310	24.8120
 1.5320	24.9460
 1.5330	25.0810
 1.5340	25.2130
 1.5350	25.3440
 1.5360	25.4760
 1.5370	25.6060
 1.5380	25.7360
 1.5390	25.8660
 1.5400	25.9940
 1.5410	26.1220
 1.5420	26.2470
 1.5430	26.3710
 1.5440	26.4950
 1.5450	26.6160
 1.5460	26.7400
 1.5470	26.8630
 1.5480	26.9810
 1.5490	27.1020
 1.5500	27.2200
 1.5510	27.3360
 1.5520	27.4540
 1.5530	27.5680
 1.5540	27.6800
 1.5550	27.7920
 1.5560	27.9030
 1.5570	28.0140
 1.5580	28.1220
 1.5590	28.2300
 1.5600	28.3380
 1.5610	28.4410
 1.5620	28.5450
 1.5630	28.6490
 1.5640	28.7490
 1.5650	28.8510
 1.5660	28.9520
 1.5670	29.0510
 1.5680	29.1490
 1.5690	29.2460
 1.5700	29.3410
 1.5710	29.4360
 1.5720	29.5310
 1.5730	29.6230
 1.5740	29.7170
 1.5750	29.8080
 1.5760	29.8980
 1.5770	29.9880
 1.5780	30.0760
 1.5790	30.1630
 1.5800	30.2510
 1.5810	30.3380
 1.5820	30.4230
 1.5830	30.5080
 1.5840	30.5940
 1.5850	30.6770
 1.5860	30.7570
 1.5870	30.8380
 1.5880	30.9170
 1.5890	30.9960
 1.5900	31.0770
 1.5910	31.1540
 1.5920	31.2300
 1.5930	31.3050
 1.5940	31.3790
 1.5950	31.4540
 1.5960	31.5270
 1.5970	31.5980
 1.5980	31.6710
 1.5990	31.7410
 1.6000	31.8110
 1.6010	31.8790
 1.6020	31.9440
 1.6030	32.0090
 1.6040	32.0730
 1.6050	32.1350
 1.6060	32.1970
 1.6070	32.2590
 1.6080	32.3180
 1.6090	32.3760
 1.6100	32.4340
 1.6110	32.4910
 1.6120	32.5470
 1.6130	32.6030
 1.6140	32.6550
 1.6150	32.7040
 1.6160	32.7520
 1.6170	32.7950
 1.6180	32.8360
 1.6190	32.8770
 1.6200	32.9130
 1.6210	32.9480
 1.6220	32.9800
 1.6230	33.0090
 1.6240	33.0340
 1.6250	33.0560
 1.6260	33.0740
 1.6270	33.0900
 1.6280	33.1030
 1.6290	33.1200
 1.6300	33.1370
 1.6310	33.1580
 1.6320	33.1780
 1.6330	33.2050
 1.6340	33.2340
 1.6350	33.2690
 1.6360	33.3100
 1.6370	33.3520
 1.6380	33.3990
 1.6390	33.4440
 1.6400	33.4910
 1.6410	33.5370
 1.6420	33.5840
 1.6430	33.6270
 1.6440	33.6700
 1.6450	33.7080
 1.6460	33.7420
 1.6470	33.7730
 1.6480	33.7990
 1.6490	33.8210
 1.6500	33.8400
 1.6510	33.8550
 1.6520	33.8660
 1.6530	33.8720
 1.6540	33.8770
 1.6550	33.8770
 1.6560	33.8730
 1.6570	33.8680
 1.6580	33.8590
 1.6590	33.8480
 1.6600	33.8360
 1.6610	33.8210
 1.6620	33.8030
 1.6630	33.7830
 1.6640	33.7620
 1.6650	33.7390
 1.6660	33.7140
 1.6670	33.6880
 1.6680	33.6580
 1.6690	33.6240
 1.6700	33.5890
 1.6710	33.5530
 1.6720	33.5170
 1.6730	33.4820
 1.6740	33.4420
 1.6750	33.4000
 1.6760	33.3570
 1.6770	33.3120
 1.6780	33.2670
 1.6790	33.2200
 1.6800	33.1720
 1.6810	33.1210
 1.6820	33.0680
 1.6830	33.0140
 1.6840	32.9560
 1.6850	32.8950
 1.6860	32.8380
 1.6870	32.7810
 1.6880	32.7250
 1.6890	32.6700
 1.6900	32.6140
 1.6910	32.5580
 1.6920	32.5030
 1.6930	32.4500
 1.6940	32.3970
 1.6950	32.3460
 1.6960	32.2930
 1.6970	32.2410
 1.6980	32.1880
 1.6990	32.1340
 1.7000	32.0820
 1.7010	32.0310
 1.7020	31.9790
 1.7030	31.9270
 1.7040	31.8750
 1.7050	31.8220
 1.7060	31.7710
 1.7070	31.7210
 1.7080	31.6690
 1.7090	31.6160
 1.7100	31.5630
 1.7110	31.5090
 1.7120	31.4560
 1.7130	31.4030
 1.7140	31.3480
 1.7150	31.2940
 1.7160	31.2400
 1.7170	31.1860
 1.7180	31.1310
 1.7190	31.0770
 1.7200	31.0230
 1.7210	30.9670
 1.7220	30.9100
 1.7230	30.8550
 1.7240	30.8000
 1.7250	30.7480
 1.7260	30.6950
 1.7270	30.6410
 1.7280	30.5870
 1.7290	30.5350
 1.7300	30.4860
 1.7310	30.4390
 1.7320	30.3930
 1.7330	30.3450
 1.7340	30.3010
 1.7350	30.2530
 1.7360	30.2050
 1.7370	30.1540
 1.7380	30.1030
 1.7390	30.0470
 1.7400	29.9890
 1.7410	29.9260
 1.7420	29.8570
 1.7430	29.7870
 1.7440	29.7140
 1.7450	29.6370
 1.7460	29.5580
 1.7470	29.4770
 1.7480	29.3910
 1.7490	29.3070
 1.7500	29.2230
 1.7510	29.1390
 1.7520	29.0550
 1.7530	28.9720
 1.7540	28.8890
 1.7550	28.8060
 1.7560	28.7260
 1.7570	28.6480
 1.7580	28.5730
 1.7590	28.5020
 1.7600	28.4310
 1.7610	28.3640
 1.7620	28.2980
 1.7630	28.2340
 1.7640	28.1730
 1.7650	28.1170
 1.7660	28.0600
 1.7670	28.0070
 1.7680	27.9540
 1.7690	27.9000
 1.7700	27.8510
 1.7710	27.8060
 1.7720	27.7600
 1.7730	27.7160
 1.7740	27.6730
 1.7750	27.6280
 1.7760	27.5880
 1.7770	27.5500
 1.7780	27.5130
 1.7790	27.4780
 1.7800	27.4460
 1.7810	27.4160
 1.7820	27.3870
 1.7830	27.3600
 1.7840	27.3340
 1.7850	27.3090
 1.7860	27.2870
 1.7870	27.2660
 1.7880	27.2450
 1.7890	27.2250
 1.7900	27.2080
 1.7910	27.1910
 1.7920	27.1770
 1.7930	27.1630
 1.7940	27.1490
 1.7950	27.1370
 1.7960	27.1280
 1.7970	27.1190
 1.7980	27.1110
 1.7990	27.1050
 1.8000	27.1000
 1.8010	27.0970
 1.8020	27.0960
 1.8030	27.0940
 1.8040	27.0940
 1.8050	27.0920
 1.8060	27.0900
 1.8070	27.0870
 1.8080	27.0830
 1.8090	27.0790
 1.8100	27.0740
 1.8110	27.0690
 1.8120	27.0650
 1.8130	27.0580
 1.8140	27.0530
 1.8150	27.0470
 1.8160	27.0370
 1.8170	27.0290
 1.8180	27.0200
 1.8190	27.0080
 1.8200	26.9940
 1.8210	26.9760
 1.8220	26.9580
 1.8230	26.9400
 1.8240	26.9210
 1.8250	26.9040
 1.8260	26.8810
 1.8270	26.8190
 1.8280	26.7570
 1.8290	26.6950
 1.8300	26.6330
 1.8310	26.5710
 1.8320	26.5100
 1.8330	26.4480
 1.8340	26.3860
 1.8350	26.3860
 1.8360	26.3200
 1.8370	26.2450
 1.8380	26.1690
 1.8390	26.0880
 1.8400	26.0050
 1.8410	25.9100
 1.8420	25.8110
 1.8430	25.7010
 1.8440	25.5790
 1.8450	25.4520
 1.8460	25.3170
 1.8470	25.1690
 1.8480	25.0130
 1.8490	24.8400
 1.8500	24.6570
 1.8510	24.4610
 1.8520	24.2550
 1.8530	24.0330
 1.8540	23.8040
 1.8550	23.5590
 1.8560	23.2950
 1.8570	23.0150
 1.8580	22.7180
 1.8590	22.4090
 1.8600	22.0830
 1.8610	21.7460
 1.8620	21.3940
 1.8630	21.0230
 1.8640	20.6350
 1.8650	20.2300
 1.8660	19.8070
 1.8670	19.3660
 1.8680	18.9100
 1.8690	18.4360
 1.8700	17.9470
 1.8710	17.4400
 1.8720	16.9300
 1.8730	16.4110
 1.8740	15.8870
 1.8750	15.3660
 1.8760	14.8370
 1.8770	14.3140
 1.8780	13.7980
 1.8790	13.2830
 1.8800	12.7850
 1.8810	12.3000
 1.8820	11.8210
 1.8830	11.3520
 1.8840	10.9000
 1.8850	10.4560
 1.8860	10.0300
 1.8870	 9.6240
 1.8880	 9.2370
 1.8890	 8.8730
 1.8900	 8.5320
 1.8910	 8.2140
 1.8920	 7.9150
 1.8930	 7.6400
 1.8940	 7.3860
 1.8950	 7.1540
 1.8960	 6.9420
 1.8970	 6.7490
 1.8980	 6.5760
 1.8990	 6.4200
 1.9000	 6.2790
 1.9010	 6.1570
 1.9020	 6.0430
 1.9030	 5.9440
 1.9040	 5.8570
 1.9050	 5.7790
 1.9060	 5.7120
 1.9070	 5.6530
 1.9080	 5.6040
 1.9090	 5.5590
 1.9100	 5.5180
 1.9110	 5.4830
 1.9120	 5.4540
 1.9130	 5.4270
 1.9140	 5.4040
 1.9150	 5.3850
 1.9160	 5.3670
 1.9170	 5.3530
 1.9180	 5.3440
 1.9190	 5.3360
 1.9200	 5.3310
 1.9210	 5.3260
 1.9220	 5.3220
 1.9230	 5.3180
 1.9240	 5.3170
 1.9250	 5.3190
 1.9260	 5.3210
 1.9270	 5.3260
 1.9280	 5.3330
 1.9290	 5.3390
 1.9300	 5.3450
 1.9310	 5.3520
 1.9320	 5.3600
 1.9330	 5.3700
 1.9340	 5.3810
 1.9350	 5.3940
 1.9360	 5.4110
 1.9370	 5.4260
 1.9380	 5.4410
 1.9390	 5.4580
 1.9400	 5.4740
 1.9410	 5.4930
 1.9420	 5.5140
 1.9430	 5.5380
 1.9440	 5.5600
 1.9450	 5.5800
 1.9460	 5.6030
 1.9470	 5.6270
 1.9480	 5.6510
 1.9490	 5.6750
 1.9500	 5.7030
 1.9510	 5.7300
 1.9520	 5.7540
 1.9530	 5.7810
 1.9540	 5.8090
 1.9550	 5.8380
 1.9560	 5.8680
 1.9570	 5.9010
 1.9580	 5.9390
 1.9590	 5.9740
 1.9600	 6.0110
 1.9610	 6.0470
 1.9620	 6.0820
 1.9630	 6.1160
 1.9640	 6.1510
 1.9650	 6.1890
 1.9660	 6.2290
 1.9670	 6.2690
 1.9680	 6.3100
 1.9690	 6.3530
 1.9700	 6.3950
 1.9710	 6.4380
 1.9720	 6.4810
 1.9730	 6.5260
 1.9740	 6.5700
 1.9750	 6.6170
 1.9760	 6.6660
 1.9770	 6.7160
 1.9780	 6.7680
 1.9790	 6.8180
 1.9800	 6.8660
 1.9810	 6.9170
 1.9820	 6.9660
 1.9830	 7.0190
 1.9840	 7.0730
 1.9850	 7.1290
 1.9860	 7.1860
 1.9870	 7.2430
 1.9880	 7.2990
 1.9890	 7.3570
 1.9900	 7.4150
 1.9910	 7.4720
 1.9920	 7.5310
 1.9930	 7.5920
 1.9940	 7.6520
 1.9950	 7.7100
 1.9960	 7.7710
 1.9970	 7.8320
 1.9980	 7.8940
 1.9990	 7.9560
 2.0000	 8.0190
 2.0010	 8.0800
 2.0020	 8.1420
 2.0030	 8.2040
 2.0040	 8.2640
 2.0050	 8.3270
 2.0060	 8.3890
 2.0070	 8.4530
 2.0080	 8.5170
 2.0090	 8.5810
 2.0100	 8.6460
 2.0110	 8.7100
 2.0120	 8.7740
 2.0130	 8.8370
 2.0140	 8.9010
 2.0150	 8.9640
 2.0160	 9.0280
 2.0170	 9.0910
 2.0180	 9.1540
 2.0190	 9.2180
 2.0200	 9.2790
 2.0210	 9.3360
 2.0220	 9.3970
 2.0230	 9.4570
 2.0240	 9.5170
 2.0250	 9.5790
 2.0260	 9.6400
 2.0270	 9.6990
 2.0280	 9.7590
 2.0290	 9.8190
 2.0300	 9.8770
 2.0310	 9.9350
 2.0320	 9.9930
 2.0330	10.0510
 2.0340	10.1090
 2.0350	10.1650
 2.0360	10.2210
 2.0370	10.2760
 2.0380	10.3310
 2.0390	10.3860
 2.0400	10.4430
 2.0410	10.4980
 2.0420	10.5530
 2.0430	10.6070
 2.0440	10.6590
 2.0450	10.7090
 2.0460	10.7600
 2.0470	10.8120
 2.0480	10.8640
 2.0490	10.9170
 2.0500	10.9700
 2.0510	11.0220
 2.0520	11.0760
 2.0530	11.1290
 2.0540	11.1830
 2.0550	11.2380
 2.0560	11.2930
 2.0570	11.3490
 2.0580	11.4040
 2.0590	11.4600
 2.0600	11.5150
 2.0610	11.5710
 2.0620	11.6270
 2.0630	11.6820
 2.0640	11.7350
 2.0650	11.7890
 2.0660	11.8430
 2.0670	11.8980
 2.0680	11.9540
 2.0690	12.0100
 2.0700	12.0670
 2.0710	12.1230
 2.0720	12.1790
 2.0730	12.2340
 2.0740	12.2890
 2.0750	12.3430
 2.0760	12.3980
 2.0770	12.4550
 2.0780	12.5100
 2.0790	12.5660
 2.0800	12.6200
 2.0810	12.6720
 2.0820	12.7260
 2.0830	12.7800
 2.0840	12.8340
 2.0850	12.8890
 2.0860	12.9440
 2.0870	13.0010
 2.0880	13.0570
 2.0890	13.1110
 2.0900	13.1660
 2.0910	13.2170
 2.0920	13.2650
 2.0930	13.3150
 2.0940	13.3650
 2.0950	13.4150
 2.0960	13.4670
 2.0970	13.5170
 2.0980	13.5670
 2.0990	13.6170
 2.1000	13.6670
 2.1010	13.7160
 2.1020	13.7630
 2.1030	13.8110
 2.1040	13.8580
 2.1050	13.9060
 2.1060	13.9540
 2.1070	14.0020
 2.1080	14.0490
 2.1090	14.0960
 2.1100	14.1430
 2.1110	14.1890
 2.1120	14.2350
 2.1130	14.2820
 2.1140	14.3270
 2.1150	14.3720
 2.1160	14.4170
 2.1170	14.4590
 2.1180	14.5030
 2.1190	14.5480
 2.1200	14.5910
 2.1210	14.6330
 2.1220	14.6760
 2.1230	14.7150
 2.1240	14.7520
 2.1250	14.7890
 2.1260	14.8240
 2.1270	14.8610
 2.1280	14.8990
 2.1290	14.9360
 2.1300	14.9740
 2.1310	15.0110
 2.1320	15.0490
 2.1330	15.0850
 2.1340	15.1200
 2.1350	15.1530
 2.1360	15.1810
 2.1370	15.2120
 2.1380	15.2460
 2.1390	15.2760
 2.1400	15.3080
 2.1410	15.3370
 2.1420	15.3630
 2.1430	15.3850
 2.1440	15.4120
 2.1450	15.4410
 2.1460	15.4670
 2.1470	15.4940
 2.1480	15.5180
 2.1490	15.5360
 2.1500	15.5580
 2.1510	15.5800
 2.1520	15.6020
 2.1530	15.6270
 2.1540	15.6500
 2.1550	15.6740
 2.1560	15.6970
 2.1570	15.7190
 2.1580	15.7410
 2.1590	15.7640
 2.1600	15.7850
 2.1610	15.8050
 2.1620	15.8230
 2.1630	15.8410
 2.1640	15.8550
 2.1650	15.8740
 2.1660	15.8950
 2.1670	15.9140
 2.1680	15.9350
 2.1690	15.9550
 2.1700	15.9740
 2.1710	15.9910
 2.1720	16.0060
 2.1730	16.0220
 2.1740	16.0340
 2.1750	16.0510
 2.1760	16.0760
 2.1770	16.0960
 2.1780	16.1150
 2.1790	16.1340
 2.1800	16.1480
 2.1810	16.1640
 2.1820	16.1820
 2.1830	16.2000
 2.1840	16.2170
 2.1850	16.2310
 2.1860	16.2480
 2.1870	16.2630
 2.1880	16.2780
 2.1890	16.2940
 2.1900	16.3090
 2.1910	16.3260
 2.1920	16.3390
 2.1930	16.3540
 2.1940	16.3650
 2.1950	16.3690
 2.1960	16.3780
 2.1970	16.3880
 2.1980	16.3960
 2.1990	16.4070
 2.2000	16.4120
 2.2010	16.4130
 2.2020	16.4130
 2.2030	16.4100
 2.2040	16.4060
 2.2050	16.3980
 2.2060	16.3910
 2.2070	16.3890
 2.2080	16.3880
 2.2090	16.3820
 2.2100	16.3810
 2.2110	16.3700
 2.2120	16.3490
 2.2130	16.3370
 2.2140	16.3270
 2.2150	16.3140
 2.2160	16.3060
 2.2170	16.2920
 2.2180	16.2730
 2.2190	16.2550
 2.2200	16.2360
 2.2210	16.2150
 2.2220	16.1910
 2.2230	16.1680
 2.2240	16.1450
 2.2250	16.1210
 2.2260	16.0980
 2.2270	16.0740
 2.2280	16.0480
 2.2290	16.0210
 2.2300	15.9920
 2.2310	15.9650
 2.2320	15.9350
 2.2330	15.9010
 2.2340	15.8670
 2.2350	15.8320
 2.2360	15.7940
 2.2370	15.7530
 2.2380	15.7130
 2.2390	15.6730
 2.2400	15.6320
 2.2410	15.5910
 2.2420	15.5480
 2.2430	15.5010
 2.2440	15.4540
 2.2450	15.4030
 2.2460	15.3540
 2.2470	15.3020
 2.2480	15.2530
 2.2490	15.2070
 2.2500	15.1580
 2.2510	15.1090
 2.2520	15.0580
 2.2530	15.0030
 2.2540	14.9480
 2.2550	14.8910
 2.2560	14.8340
 2.2570	14.7750
 2.2580	14.7150
 2.2590	14.6520
 2.2600	14.5910
 2.2610	14.5300
 2.2620	14.4660
 2.2630	14.3990
 2.2640	14.3330
 2.2650	14.2690
 2.2660	14.2080
 2.2670	14.1480
 2.2680	14.0930
 2.2690	14.0340
 2.2700	13.9690
 2.2710	13.9120
 2.2720	13.8580
 2.2730	13.8060
 2.2740	13.7560
 2.2750	13.7070
 2.2760	13.6590
 2.2770	13.6110
 2.2780	13.5660
 2.2790	13.5150
 2.2800	13.4580
 2.2810	13.4030
 2.2820	13.3430
 2.2830	13.2870
 2.2840	13.2340
 2.2850	13.1770
 2.2860	13.1210
 2.2870	13.0610
 2.2880	12.9930
 2.2890	12.9310
 2.2900	12.8710
 2.2910	12.8090
 2.2920	12.7510
 2.2930	12.6890
 2.2940	12.6200
 2.2950	12.5550
 2.2960	12.4890
 2.2970	12.4270
 2.2980	12.3680
 2.2990	12.3070
 2.3000	12.2460
 2.3010	12.1910
 2.3020	12.1390
 2.3030	12.0900
 2.3040	12.0440
 2.3050	12.0060
 2.3060	11.9690
 2.3070	11.9320
 2.3080	11.9000
 2.3090	11.8680
 2.3100	11.8430
 2.3110	11.8220
 2.3120	11.8010
 2.3130	11.7860
 2.3140	11.7700
 2.3150	11.7540
 2.3160	11.7410
 2.3170	11.7320
 2.3180	11.7170
 2.3190	11.7000
 2.3200	11.6830
 2.3210	11.6630
 2.3220	11.6400
 2.3230	11.6140
 2.3240	11.5890
 2.3250	11.5640
 2.3260	11.5340
 2.3270	11.5060
 2.3280	11.4720
 2.3290	11.4310
 2.3300	11.3890
 2.3310	11.3460
 2.3320	11.2980
 2.3330	11.2410
 2.3340	11.1910
 2.3350	11.1420
 2.3360	11.0920
 2.3370	11.0470
 2.3380	10.9980
 2.3390	10.9410
 2.3400	10.8900
 2.3410	10.8370
 2.3420	10.7900
 2.3430	10.7500
 2.3440	10.7090
 2.3450	10.6730
 2.3460	10.6360
 2.3470	10.5990
 2.3480	10.5610
 2.3490	10.5240
 2.3500	10.4880
 2.3510	10.4500
 2.3520	10.4180
 2.3530	10.3920
 2.3540	10.3620
 2.3550	10.3320
 2.3560	10.3110
 2.3570	10.2750
 2.3580	10.2450
 2.3590	10.2150
 2.3600	10.1750
 2.3610	10.1430
 2.3620	10.1080
 2.3630	10.0700
 2.3640	10.0280
 2.3650	 9.9800
 2.3660	 9.9400
 2.3670	 9.9020
 2.3680	 9.8650
 2.3690	 9.8340
 2.3700	 9.7990
 2.3710	 9.7570
 2.3720	 9.7130
 2.3730	 9.6700
 2.3740	 9.6280
 2.3750	 9.5880
 2.3760	 9.5550
 2.3770	 9.5270
 2.3780	 9.4870
 2.3790	 9.4470
 2.3800	 9.4050
 2.3810	 9.3660
 2.3820	 9.3310
 2.3830	 9.2860
 2.3840	 9.2500
 2.3850	 9.2140
 2.3860	 9.1640
 2.3870	 9.1250
 2.3880	 9.0870
 2.3890	 9.0350
 2.3900	 8.9880
 2.3910	 8.9470
 2.3920	 8.9130
 2.3930	 8.8770
 2.3940	 8.8390
 2.3950	 8.8070
 2.3960	 8.7630
 2.3970	 8.7170
 2.3980	 8.6820
 2.3990	 8.6360
 2.4000	 8.5910
 2.4010	 8.5560
 2.4020	 8.5160
 2.4030	 8.4850
 2.4040	 8.4560
 2.4050	 8.4090
 2.4060	 8.3660
 2.4070	 8.3140
 2.4080	 8.2580
 2.4090	 8.2340
 2.4100	 8.2050
 2.4110	 8.1630
 2.4120	 8.1330
 2.4130	 8.0860
 2.4140	 8.0350
 2.4150	 8.0000
 2.4160	 7.9610
 2.4170	 7.9310
 2.4180	 7.9040
 2.4190	 7.8800
 2.4200	 7.8580
 2.4210	 7.8240
 2.4220	 7.7860
 2.4230	 7.7460
 2.4240	 7.7000
 2.4250	 7.6530
 2.4260	 7.6070
 2.4270	 7.5680
 2.4280	 7.5310
 2.4290	 7.4900
 2.4300	 7.4590
 2.4310	 7.4200
 2.4320	 7.3850
 2.4330	 7.3630
 2.4340	 7.3170
 2.4350	 7.2840
 2.4360	 7.2560
 2.4370	 7.1980
 2.4380	 7.1510
 2.4390	 7.1190
 2.4400	 7.0780
 2.4410	 7.0530
 2.4420	 7.0440
 2.4430	 7.0150
 2.4440	 6.9700
 2.4450	 6.9320
 2.4460	 6.8990
 2.4470	 6.8590
 2.4480	 6.8160
 2.4490	 6.7650
 2.4500	 6.7250
 2.4510	 6.6920
 2.4520	 6.6550
 2.4530	 6.6370
 2.4540	 6.6050
 2.4550	 6.5790
 2.4560	 6.5560
 2.4570	 6.5080
 2.4580	 6.4730
 2.4590	 6.4350
 2.4600	 6.3920
 2.4610	 6.3710
 2.4620	 6.3440
 2.4630	 6.3150
 2.4640	 6.3100
 2.4650	 6.3030
 2.4660	 6.2800
 2.4670	 6.2470
 2.4680	 6.1980
 2.4690	 6.1530
 2.4700	 6.1220
 2.4710	 6.0990
 2.4720	 6.0850
 2.4730	 6.0880
 2.4740	 6.0750
 2.4750	 6.0700
 2.4760	 6.0600
 2.4770	 6.0270
 2.4780	 6.0140
 2.4790	 6.0180
 2.4800	 5.9940
 2.4810	 5.9460
 2.4820	 5.9250
 2.4830	 5.9200
 2.4840	 5.9030
 2.4850	 5.8960
 2.4860	 5.8800
 2.4870	 5.8470
 2.4880	 5.7870
 2.4890	 5.7390
 2.4900	 5.7380
 2.4910	 5.7470
 2.4920	 5.7960
 2.4930	 5.8470
 2.4940	 5.8620
 2.4950	 5.8410
 2.4960	 5.8070
 2.4970	 5.8140
 2.4980	 5.7840
 2.4990	 5.7210
 2.5000	 5.7010
