Name: Acer rubrum
Type: Vegetation
Class: Tree
Genus: Acer
Species: rubrum
Sample No.: ACRU-3-21
Owner: UCSB
Wavelength Range: TIR
Origin: USA; Massachusetts; Harvard Forest
Collection Date: 7/8/2013
Description: Samples were collected as part of NSF Macrosystem Biology proposal titled: Collaborative Research: Thermal controls on ecosystem metabolism and function: scaling from leaves to canopies to regions. Samples were collected and overnighted to JPL facilities for processing. The same leaves were processed in the Nicolet and then measured using the ASD.
Measurement: Hemispherical reflectance
First Column: X
Second Column: Y
X Units: Wavelength (micrometers)
Y Units: Reflectance (percentage)
First X Value: 2.501
Last X Value: 15.387
Number of X Values: 1737
Additional Information: vegetation.tree.acer.rubrum.tir.acru-3-21.ucsb.nicolet.ancillary.txt

 2.5010	20.5290
 2.5030	20.3570
 2.5040	19.8880
 2.5050	19.7970
 2.5060	19.9090
 2.5070	19.8490
 2.5090	19.9920
 2.5100	20.0800
 2.5110	20.0290
 2.5120	19.8820
 2.5140	19.7600
 2.5150	19.7100
 2.5160	19.9170
 2.5170	19.8640
 2.5180	19.7640
 2.5200	19.7700
 2.5210	19.9030
 2.5220	19.9110
 2.5230	19.7330
 2.5250	19.5770
 2.5260	19.7630
 2.5270	19.7330
 2.5280	19.6000
 2.5290	19.5900
 2.5310	19.8460
 2.5320	19.7810
 2.5330	19.5720
 2.5340	19.4760
 2.5360	19.7120
 2.5370	19.6750
 2.5380	19.6900
 2.5390	19.7590
 2.5410	19.7980
 2.5420	19.6420
 2.5430	19.7670
 2.5440	19.8650
 2.5460	19.7000
 2.5470	19.7030
 2.5480	19.7010
 2.5490	19.6790
 2.5510	19.8780
 2.5520	19.8670
 2.5530	19.6660
 2.5540	19.5220
 2.5560	19.6600
 2.5570	19.7860
 2.5580	19.7010
 2.5590	19.7390
 2.5610	19.9680
 2.5620	19.9020
 2.5630	19.9130
 2.5640	19.9270
 2.5660	19.8240
 2.5670	19.8340
 2.5680	19.8540
 2.5700	19.8400
 2.5710	19.9180
 2.5720	19.9440
 2.5730	20.0040
 2.5750	20.0300
 2.5760	19.7800
 2.5770	19.6310
 2.5790	19.9190
 2.5800	19.9630
 2.5810	20.0150
 2.5820	20.2520
 2.5840	20.2960
 2.5850	19.9550
 2.5860	19.6840
 2.5880	19.7110
 2.5890	19.6260
 2.5900	19.2900
 2.5910	19.4300
 2.5930	19.4150
 2.5940	19.5450
 2.5950	19.6380
 2.5970	19.5430
 2.5980	19.3660
 2.5990	19.4160
 2.6000	19.2630
 2.6020	19.2420
 2.6030	19.4370
 2.6040	19.5250
 2.6060	19.3760
 2.6070	19.2410
 2.6080	19.0520
 2.6100	18.9120
 2.6110	19.0550
 2.6120	19.2580
 2.6140	19.2980
 2.6150	19.3620
 2.6160	19.2950
 2.6180	19.1470
 2.6190	19.0590
 2.6200	19.1260
 2.6220	19.0370
 2.6230	19.0230
 2.6240	18.8580
 2.6260	18.7750
 2.6270	18.6970
 2.6280	18.7450
 2.6300	18.6720
 2.6310	18.5860
 2.6320	18.3780
 2.6340	18.2890
 2.6350	18.2980
 2.6360	18.2370
 2.6380	18.0380
 2.6390	18.1200
 2.6400	18.0230
 2.6420	17.8960
 2.6430	17.9680
 2.6440	17.9020
 2.6460	17.7730
 2.6470	17.7610
 2.6480	17.6800
 2.6500	17.7230
 2.6510	17.7120
 2.6520	17.7360
 2.6540	17.7010
 2.6550	17.6830
 2.6560	17.5700
 2.6580	17.5240
 2.6590	17.4220
 2.6610	17.2800
 2.6620	17.1080
 2.6630	16.9100
 2.6650	16.6420
 2.6660	16.6950
 2.6670	16.6710
 2.6690	16.7800
 2.6700	16.6570
 2.6720	16.3970
 2.6730	16.3020
 2.6740	16.4700
 2.6760	16.5400
 2.6770	16.4770
 2.6780	16.3870
 2.6800	16.4180
 2.6810	16.2910
 2.6830	16.1280
 2.6840	15.9850
 2.6850	16.1350
 2.6870	16.2270
 2.6880	16.1320
 2.6900	16.0760
 2.6910	16.1110
 2.6920	16.1230
 2.6940	16.2080
 2.6950	15.9510
 2.6970	15.9720
 2.6980	15.9670
 2.6990	15.7700
 2.7010	15.7710
 2.7020	15.7640
 2.7040	15.6030
 2.7050	15.6650
 2.7060	15.6870
 2.7080	15.7280
 2.7090	15.6120
 2.7110	15.5160
 2.7120	15.4970
 2.7130	15.6090
 2.7150	15.6300
 2.7160	15.5180
 2.7180	15.2860
 2.7190	15.3470
 2.7210	15.4910
 2.7220	15.4920
 2.7230	15.5310
 2.7250	15.1940
 2.7260	15.2090
 2.7280	15.5290
 2.7290	15.2950
 2.7310	15.3000
 2.7320	15.4800
 2.7330	15.6880
 2.7350	15.6070
 2.7360	15.4910
 2.7380	15.4020
 2.7390	15.5270
 2.7410	15.4390
 2.7420	15.3210
 2.7440	15.5440
 2.7450	15.4720
 2.7470	15.1140
 2.7480	15.0300
 2.7490	14.1550
 2.7510	13.6220
 2.7520	14.7670
 2.7540	15.4970
 2.7550	14.7880
 2.7570	14.5750
 2.7580	15.0150
 2.7600	15.0700
 2.7610	15.1530
 2.7630	15.4980
 2.7640	15.2230
 2.7660	15.4830
 2.7670	15.8160
 2.7680	15.5730
 2.7700	15.2500
 2.7710	15.1850
 2.7730	15.2020
 2.7740	15.0880
 2.7760	15.1190
 2.7770	15.1670
 2.7790	15.1510
 2.7800	15.4800
 2.7820	15.6660
 2.7830	15.2870
 2.7850	15.1250
 2.7860	15.1800
 2.7880	15.1900
 2.7890	15.2900
 2.7910	15.4270
 2.7920	15.3110
 2.7940	15.3320
 2.7950	15.6210
 2.7970	15.9530
 2.7980	15.8370
 2.8000	15.3870
 2.8010	15.2660
 2.8030	15.3840
 2.8040	15.4420
 2.8060	15.4040
 2.8070	15.3930
 2.8090	15.4530
 2.8110	15.5460
 2.8120	15.4020
 2.8140	15.5030
 2.8150	15.4800
 2.8170	15.3600
 2.8180	15.3550
 2.8200	15.4650
 2.8210	15.4900
 2.8230	15.2180
 2.8240	15.0510
 2.8260	15.3160
 2.8270	15.5950
 2.8290	15.7390
 2.8300	15.6910
 2.8320	15.6560
 2.8340	15.6390
 2.8350	15.5260
 2.8370	15.4950
 2.8380	15.5570
 2.8400	15.3270
 2.8410	15.1880
 2.8430	15.4070
 2.8440	15.5080
 2.8460	15.5670
 2.8480	15.7040
 2.8490	15.6230
 2.8510	15.6700
 2.8520	15.6630
 2.8540	15.7970
 2.8550	15.6400
 2.8570	15.6070
 2.8590	15.6820
 2.8600	15.7080
 2.8620	15.6230
 2.8630	15.6760
 2.8650	15.7080
 2.8660	15.6810
 2.8680	15.4050
 2.8700	15.4700
 2.8710	15.7810
 2.8730	15.8260
 2.8740	15.8170
 2.8760	15.7080
 2.8780	15.5720
 2.8790	15.5310
 2.8810	16.0170
 2.8820	16.5110
 2.8840	16.8410
 2.8860	16.5250
 2.8870	15.9870
 2.8890	15.9840
 2.8900	16.2280
 2.8920	16.6700
 2.8940	16.4050
 2.8950	16.3030
 2.8970	16.4860
 2.8980	16.4340
 2.9000	16.1230
 2.9020	15.9290
 2.9030	15.8130
 2.9050	15.9510
 2.9070	15.8290
 2.9080	15.6700
 2.9100	15.8720
 2.9120	16.0800
 2.9130	15.8720
 2.9150	15.9790
 2.9160	16.0520
 2.9180	16.1030
 2.9200	16.1800
 2.9210	16.2500
 2.9230	16.1440
 2.9250	15.9880
 2.9260	15.9470
 2.9280	15.9370
 2.9300	15.8630
 2.9310	16.0420
 2.9330	15.9910
 2.9350	15.8100
 2.9360	15.8310
 2.9380	16.0930
 2.9400	16.3180
 2.9410	16.2480
 2.9430	16.2810
 2.9450	16.6690
 2.9460	16.5640
 2.9480	16.0670
 2.9500	16.0900
 2.9510	16.5030
 2.9530	16.2260
 2.9550	16.1290
 2.9560	15.8770
 2.9580	15.1310
 2.9600	15.2110
 2.9610	15.0400
 2.9630	14.5960
 2.9650	14.3570
 2.9660	14.2800
 2.9680	15.7400
 2.9700	16.6980
 2.9720	16.0070
 2.9730	16.8910
 2.9750	16.6080
 2.9770	16.1690
 2.9780	16.2660
 2.9800	15.1860
 2.9820	16.4160
 2.9840	17.8020
 2.9850	16.7330
 2.9870	16.0780
 2.9890	16.0290
 2.9900	15.1360
 2.9920	15.7120
 2.9940	17.2320
 2.9960	18.5120
 2.9970	20.3040
 2.9990	20.5500
 3.0010	18.5030
 3.0030	17.6630
 3.0040	17.4010
 3.0060	17.1510
 3.0080	16.5520
 3.0100	16.1230
 3.0110	16.2740
 3.0130	16.7590
 3.0150	17.3540
 3.0170	17.5430
 3.0180	16.9600
 3.0200	16.9040
 3.0220	16.2900
 3.0240	15.7990
 3.0250	15.6960
 3.0270	16.2300
 3.0290	16.4370
 3.0310	16.5800
 3.0320	16.8630
 3.0340	16.9590
 3.0360	17.6540
 3.0380	18.0650
 3.0400	17.7150
 3.0410	17.4190
 3.0430	16.8160
 3.0450	16.1160
 3.0470	14.4730
 3.0480	15.3950
 3.0500	17.4770
 3.0520	19.0960
 3.0540	15.3240
 3.0560	12.9910
 3.0570	15.3470
 3.0590	16.6630
 3.0610	16.6010
 3.0630	16.9590
 3.0650	17.6360
 3.0660	17.2060
 3.0680	16.0380
 3.0700	16.5900
 3.0720	16.6020
 3.0740	15.8770
 3.0760	15.9240
 3.0770	16.2950
 3.0790	16.3420
 3.0810	16.7890
 3.0830	16.7930
 3.0850	16.5460
 3.0870	16.6130
 3.0880	16.5310
 3.0900	16.0100
 3.0920	16.2250
 3.0940	16.4880
 3.0960	16.6410
 3.0980	16.2820
 3.0990	16.4080
 3.1010	16.0610
 3.1030	16.1010
 3.1050	16.0300
 3.1070	15.6830
 3.1090	15.9560
 3.1110	16.4550
 3.1120	16.5100
 3.1140	17.0470
 3.1160	17.3670
 3.1180	17.4020
 3.1200	16.5590
 3.1220	16.0000
 3.1240	16.4320
 3.1260	16.7400
 3.1270	16.0950
 3.1290	16.1150
 3.1310	16.2260
 3.1330	16.1890
 3.1350	16.0350
 3.1370	16.2790
 3.1390	16.3920
 3.1410	17.1490
 3.1430	17.6580
 3.1450	17.1550
 3.1460	17.1720
 3.1480	16.1160
 3.1500	16.1350
 3.1520	17.0930
 3.1540	15.9170
 3.1560	14.4180
 3.1580	16.0020
 3.1600	18.3600
 3.1620	18.2480
 3.1640	17.4470
 3.1660	16.3810
 3.1680	17.6820
 3.1700	17.7340
 3.1710	16.5580
 3.1730	17.2360
 3.1750	18.1100
 3.1770	19.6310
 3.1790	18.7180
 3.1810	16.6960
 3.1830	15.2990
 3.1850	13.2580
 3.1870	13.2970
 3.1890	15.1790
 3.1910	16.2470
 3.1930	16.2550
 3.1950	16.3790
 3.1970	16.2470
 3.1990	16.1800
 3.2010	16.3070
 3.2030	16.3680
 3.2050	16.2630
 3.2070	16.4070
 3.2090	16.4680
 3.2110	16.2580
 3.2130	16.1390
 3.2150	16.5160
 3.2170	16.3550
 3.2190	16.3130
 3.2210	16.5730
 3.2230	16.7700
 3.2250	16.5340
 3.2270	16.4390
 3.2290	16.4480
 3.2310	16.4030
 3.2330	16.4280
 3.2350	16.9110
 3.2370	16.7450
 3.2390	16.2490
 3.2410	16.0490
 3.2430	16.0320
 3.2450	16.2300
 3.2470	16.7030
 3.2490	16.5040
 3.2510	16.1220
 3.2530	16.2890
 3.2550	16.4410
 3.2570	16.4760
 3.2590	16.8060
 3.2610	16.6310
 3.2630	16.5480
 3.2650	16.4410
 3.2670	15.9850
 3.2690	15.8070
 3.2720	16.4850
 3.2740	16.5770
 3.2760	16.4590
 3.2780	16.3630
 3.2800	16.2250
 3.2820	16.3140
 3.2840	16.2270
 3.2860	15.9920
 3.2880	16.0270
 3.2900	15.8910
 3.2920	15.9600
 3.2940	16.2290
 3.2960	16.3040
 3.2990	16.2820
 3.3010	16.4410
 3.3030	16.3080
 3.3050	16.2750
 3.3070	16.5490
 3.3090	16.4030
 3.3110	16.2820
 3.3130	16.0910
 3.3150	15.9290
 3.3180	16.1170
 3.3200	15.9670
 3.3220	15.6590
 3.3240	15.8470
 3.3260	16.2970
 3.3280	16.5190
 3.3300	16.2530
 3.3330	15.8490
 3.3350	15.7460
 3.3370	15.9140
 3.3390	16.0410
 3.3410	16.1020
 3.3430	16.2270
 3.3450	16.2510
 3.3480	16.2090
 3.3500	15.9740
 3.3520	15.9370
 3.3540	16.0280
 3.3560	16.1590
 3.3580	16.0820
 3.3610	15.8590
 3.3630	15.7240
 3.3650	15.9070
 3.3670	16.0590
 3.3690	16.1300
 3.3720	16.0870
 3.3740	16.1230
 3.3760	16.0520
 3.3780	16.1050
 3.3800	16.1000
 3.3830	16.1420
 3.3850	16.1160
 3.3870	16.2120
 3.3890	16.1960
 3.3910	16.0120
 3.3940	16.0110
 3.3960	16.2850
 3.3980	16.3140
 3.4000	16.3070
 3.4020	16.3040
 3.4050	16.3460
 3.4070	16.4780
 3.4090	16.7720
 3.4110	16.6590
 3.4140	16.6880
 3.4160	16.8600
 3.4180	17.0910
 3.4200	17.2240
 3.4230	17.4930
 3.4250	17.6320
 3.4270	17.7200
 3.4290	17.7040
 3.4320	17.7730
 3.4340	17.8370
 3.4360	17.6800
 3.4390	17.3410
 3.4410	17.2250
 3.4430	17.1660
 3.4450	17.1650
 3.4480	17.2500
 3.4500	17.2800
 3.4520	16.7700
 3.4550	16.5230
 3.4570	16.6080
 3.4590	16.8930
 3.4620	17.0840
 3.4640	17.1420
 3.4660	17.1160
 3.4680	16.9560
 3.4710	16.8580
 3.4730	16.8520
 3.4750	16.7280
 3.4780	16.6240
 3.4800	16.3360
 3.4820	16.3990
 3.4850	16.6100
 3.4870	16.6590
 3.4890	16.5700
 3.4920	16.5960
 3.4940	16.5720
 3.4970	16.6260
 3.4990	16.7320
 3.5010	16.9340
 3.5040	17.0940
 3.5060	17.2040
 3.5080	17.3570
 3.5110	17.5520
 3.5130	17.5900
 3.5160	17.5100
 3.5180	17.3760
 3.5200	17.1740
 3.5230	16.9890
 3.5250	16.9340
 3.5270	17.0360
 3.5300	16.9990
 3.5320	16.8400
 3.5350	16.8760
 3.5370	16.8110
 3.5400	16.7140
 3.5420	16.6290
 3.5440	16.6520
 3.5470	16.5250
 3.5490	16.4340
 3.5520	16.5030
 3.5540	16.5770
 3.5570	16.6120
 3.5590	16.6960
 3.5610	16.6000
 3.5640	16.5620
 3.5660	16.4880
 3.5690	16.4390
 3.5710	16.4860
 3.5740	16.5300
 3.5760	16.5710
 3.5790	16.5000
 3.5810	16.4250
 3.5840	16.6040
 3.5860	16.7480
 3.5890	16.3630
 3.5910	15.9650
 3.5930	16.2540
 3.5960	16.2900
 3.5980	16.3650
 3.6010	16.4200
 3.6030	16.5440
 3.6060	16.4740
 3.6080	16.3170
 3.6110	16.2830
 3.6140	16.3270
 3.6160	16.3380
 3.6190	16.3130
 3.6210	16.3240
 3.6240	16.2950
 3.6260	16.3590
 3.6290	16.3930
 3.6310	16.3380
 3.6340	16.2620
 3.6360	16.1480
 3.6390	16.3520
 3.6410	16.3950
 3.6440	16.3490
 3.6470	16.2830
 3.6490	16.2380
 3.6520	16.1830
 3.6540	16.2510
 3.6570	16.4290
 3.6590	16.5470
 3.6620	16.4120
 3.6650	16.2990
 3.6670	16.1890
 3.6700	16.2500
 3.6720	16.3210
 3.6750	16.3020
 3.6780	16.3320
 3.6800	16.3620
 3.6830	16.2620
 3.6850	16.2630
 3.6880	16.2750
 3.6910	16.2990
 3.6930	16.3270
 3.6960	16.2760
 3.6990	16.2340
 3.7010	16.2120
 3.7040	16.2630
 3.7060	16.2840
 3.7090	16.3100
 3.7120	16.4740
 3.7140	16.3980
 3.7170	16.1830
 3.7200	16.0820
 3.7220	16.1640
 3.7250	16.2620
 3.7280	16.4370
 3.7300	16.4150
 3.7330	16.2650
 3.7360	16.2230
 3.7390	16.1470
 3.7410	16.1570
 3.7440	16.2240
 3.7470	16.1830
 3.7490	16.3860
 3.7520	16.4550
 3.7550	16.2880
 3.7580	16.2320
 3.7600	16.1840
 3.7630	16.2560
 3.7660	16.3480
 3.7680	16.1690
 3.7710	16.1600
 3.7740	16.2200
 3.7770	16.2820
 3.7790	16.2470
 3.7820	16.3040
 3.7850	16.3870
 3.7880	16.3390
 3.7900	16.1910
 3.7930	16.1690
 3.7960	16.2260
 3.7990	16.2670
 3.8020	16.3380
 3.8040	16.2380
 3.8070	16.1110
 3.8100	16.2590
 3.8130	16.4330
 3.8160	16.4170
 3.8180	16.3310
 3.8210	16.2220
 3.8240	16.0920
 3.8270	16.2550
 3.8300	16.3840
 3.8330	16.3470
 3.8350	16.2710
 3.8380	16.4000
 3.8410	16.4790
 3.8440	16.5230
 3.8470	16.2510
 3.8500	16.1250
 3.8520	16.2120
 3.8550	16.4110
 3.8580	16.4300
 3.8610	16.3420
 3.8640	16.3770
 3.8670	16.3620
 3.8700	16.1430
 3.8730	16.1680
 3.8750	16.2940
 3.8780	16.3770
 3.8810	16.4440
 3.8840	16.4900
 3.8870	16.3100
 3.8900	16.1940
 3.8930	16.1800
 3.8960	16.2380
 3.8990	16.3040
 3.9020	16.2890
 3.9050	16.2360
 3.9080	16.2090
 3.9110	16.3340
 3.9140	16.4180
 3.9160	16.3790
 3.9190	16.3860
 3.9220	16.4270
 3.9250	16.4240
 3.9280	16.4280
 3.9310	16.5260
 3.9340	16.4750
 3.9370	16.4710
 3.9400	16.5330
 3.9430	16.5480
 3.9460	16.5290
 3.9490	16.4790
 3.9520	16.4500
 3.9550	16.5160
 3.9580	16.5360
 3.9610	16.4770
 3.9640	16.4140
 3.9670	16.5160
 3.9700	16.5420
 3.9730	16.5320
 3.9770	16.5010
 3.9800	16.5180
 3.9830	16.4940
 3.9860	16.3940
 3.9890	16.4360
 3.9920	16.4510
 3.9950	16.4240
 3.9980	16.4400
 4.0010	16.4690
 4.0040	16.6150
 4.0070	16.5630
 4.0100	16.4400
 4.0130	16.4320
 4.0170	16.4630
 4.0200	16.4510
 4.0230	16.3270
 4.0260	16.3260
 4.0290	16.4760
 4.0320	16.5840
 4.0350	16.4960
 4.0380	16.4840
 4.0420	16.5660
 4.0450	16.5840
 4.0480	16.5470
 4.0510	16.4850
 4.0540	16.3860
 4.0570	16.3790
 4.0610	16.4480
 4.0640	16.4090
 4.0670	16.3420
 4.0700	16.2640
 4.0730	16.3980
 4.0770	16.3020
 4.0800	16.1460
 4.0830	16.1660
 4.0860	16.2160
 4.0890	16.2930
 4.0930	16.4220
 4.0960	16.4730
 4.0990	16.4420
 4.1020	16.4140
 4.1060	16.2830
 4.1090	16.1100
 4.1120	16.1220
 4.1150	16.1090
 4.1190	16.2440
 4.1220	16.4770
 4.1250	16.4670
 4.1280	16.4250
 4.1320	16.4180
 4.1350	16.2960
 4.1380	16.3060
 4.1420	16.3000
 4.1450	16.2640
 4.1480	16.2440
 4.1520	16.2570
 4.1550	16.2760
 4.1580	16.2770
 4.1620	16.3250
 4.1650	16.3750
 4.1680	16.3070
 4.1720	16.2790
 4.1750	16.1880
 4.1780	16.2910
 4.1820	16.4170
 4.1850	16.4210
 4.1890	16.2940
 4.1920	16.3540
 4.1950	16.4160
 4.1990	16.4630
 4.2020	16.5660
 4.2060	16.6480
 4.2090	16.5930
 4.2120	16.4690
 4.2160	16.4010
 4.2190	16.4880
 4.2230	16.5350
 4.2260	16.3030
 4.2300	16.4300
 4.2330	16.0010
 4.2360	16.0330
 4.2400	16.3720
 4.2430	16.0400
 4.2470	15.9520
 4.2500	16.1830
 4.2540	15.8550
 4.2570	15.9800
 4.2610	16.5310
 4.2640	16.7020
 4.2680	16.5060
 4.2710	16.4300
 4.2750	16.5940
 4.2780	16.4870
 4.2820	16.1680
 4.2850	16.1110
 4.2890	16.1860
 4.2930	16.1110
 4.2960	16.0580
 4.3000	16.0400
 4.3030	16.0840
 4.3070	16.0390
 4.3100	15.8040
 4.3140	15.6540
 4.3180	15.6550
 4.3210	15.7280
 4.3250	15.8270
 4.3280	15.6250
 4.3320	15.5150
 4.3360	15.5310
 4.3390	15.6050
 4.3430	15.6170
 4.3470	15.6100
 4.3500	15.6270
 4.3540	15.6060
 4.3570	15.5380
 4.3610	15.6950
 4.3650	15.6390
 4.3680	15.4360
 4.3720	15.4300
 4.3760	15.5100
 4.3800	15.4380
 4.3830	15.3940
 4.3870	15.4060
 4.3910	15.3500
 4.3940	15.2270
 4.3980	15.2160
 4.4020	15.3030
 4.4060	15.3110
 4.4090	15.2830
 4.4130	15.3100
 4.4170	15.2650
 4.4210	15.2390
 4.4240	15.2630
 4.4280	15.3360
 4.4320	15.3100
 4.4360	15.2690
 4.4400	15.2730
 4.4430	15.2700
 4.4470	15.2270
 4.4510	15.1930
 4.4550	15.2300
 4.4590	15.2240
 4.4620	15.2300
 4.4660	15.2310
 4.4700	15.1690
 4.4740	15.2280
 4.4780	15.2070
 4.4820	15.1210
 4.4860	15.0770
 4.4900	15.1380
 4.4930	15.2490
 4.4970	15.2730
 4.5010	15.2160
 4.5050	15.1780
 4.5090	15.1970
 4.5130	15.3000
 4.5170	15.3170
 4.5210	15.2470
 4.5250	15.2390
 4.5290	15.3050
 4.5330	15.3270
 4.5370	15.2780
 4.5410	15.2390
 4.5450	15.2710
 4.5490	15.2810
 4.5530	15.1300
 4.5570	15.0220
 4.5610	15.0970
 4.5650	15.1100
 4.5690	15.0430
 4.5730	15.1240
 4.5770	15.1650
 4.5810	15.1280
 4.5850	15.1890
 4.5890	15.2280
 4.5930	15.2540
 4.5970	15.2960
 4.6010	15.3610
 4.6050	15.4660
 4.6090	15.4470
 4.6130	15.3930
 4.6170	15.3160
 4.6220	15.1620
 4.6260	15.0610
 4.6300	14.9630
 4.6340	15.0980
 4.6380	15.1130
 4.6420	15.0330
 4.6460	15.0370
 4.6510	15.0870
 4.6550	15.0640
 4.6590	15.0320
 4.6630	15.0530
 4.6670	15.1280
 4.6720	15.0910
 4.6760	14.9120
 4.6800	14.8510
 4.6840	15.0560
 4.6880	15.1180
 4.6930	14.9950
 4.6970	14.8640
 4.7010	14.8900
 4.7050	15.0310
 4.7100	15.0910
 4.7140	15.0160
 4.7180	14.9450
 4.7230	14.9270
 4.7270	14.9980
 4.7310	14.9640
 4.7360	14.8740
 4.7400	14.8430
 4.7440	14.8000
 4.7490	14.8180
 4.7530	14.8590
 4.7570	14.8380
 4.7620	14.8610
 4.7660	14.8490
 4.7700	14.9080
 4.7750	14.9950
 4.7790	15.1140
 4.7840	14.8120
 4.7880	14.4480
 4.7920	14.4060
 4.7970	14.6260
 4.8010	14.7450
 4.8060	14.5010
 4.8100	14.5640
 4.8150	14.7320
 4.8190	14.6570
 4.8240	14.5810
 4.8280	14.5890
 4.8330	14.6510
 4.8370	14.6530
 4.8420	14.5950
 4.8460	14.5610
 4.8510	14.6140
 4.8550	14.6830
 4.8600	14.6360
 4.8640	14.5520
 4.8690	14.5230
 4.8730	14.5960
 4.8780	14.6010
 4.8830	14.5590
 4.8870	14.5340
 4.8920	14.4700
 4.8960	14.4430
 4.9010	14.5070
 4.9060	14.5180
 4.9100	14.4340
 4.9150	14.4000
 4.9200	14.4630
 4.9240	14.5400
 4.9290	14.5220
 4.9340	14.3370
 4.9380	14.2260
 4.9430	14.3010
 4.9480	14.3300
 4.9530	14.2710
 4.9570	14.3830
 4.9620	14.5260
 4.9670	14.4850
 4.9720	14.3800
 4.9760	14.3840
 4.9810	14.4410
 4.9860	14.4280
 4.9910	14.3690
 4.9960	14.3770
 5.0000	14.3840
 5.0050	14.3520
 5.0100	14.3760
 5.0150	14.3080
 5.0200	14.2930
 5.0250	14.3450
 5.0290	14.2790
 5.0340	14.2280
 5.0390	14.2710
 5.0440	14.4010
 5.0490	14.4670
 5.0540	14.3980
 5.0590	14.2910
 5.0640	14.2950
 5.0690	14.2940
 5.0740	14.2770
 5.0790	14.3670
 5.0840	14.3940
 5.0890	14.3820
 5.0940	14.3610
 5.0990	14.3700
 5.1040	14.4430
 5.1090	14.4670
 5.1140	14.4050
 5.1190	14.3760
 5.1240	14.3840
 5.1290	14.4380
 5.1340	14.4970
 5.1390	14.4100
 5.1440	14.3490
 5.1490	14.3810
 5.1540	14.5280
 5.1600	14.6070
 5.1650	14.4870
 5.1700	14.3420
 5.1750	14.3680
 5.1800	14.3760
 5.1850	14.4550
 5.1910	14.5500
 5.1960	14.5180
 5.2010	14.5020
 5.2060	14.4510
 5.2110	14.4020
 5.2170	14.2960
 5.2220	14.2330
 5.2270	14.3040
 5.2320	14.4280
 5.2380	14.4290
 5.2430	14.4180
 5.2480	14.4120
 5.2540	14.3940
 5.2590	14.3930
 5.2640	14.4030
 5.2700	14.3650
 5.2750	14.3360
 5.2800	14.4060
 5.2860	14.3430
 5.2910	14.2100
 5.2970	14.2250
 5.3020	14.2620
 5.3070	14.2650
 5.3130	14.3310
 5.3180	14.4440
 5.3240	14.4340
 5.3290	14.3170
 5.3350	14.3570
 5.3400	14.4720
 5.3460	14.4160
 5.3510	14.3770
 5.3570	14.5970
 5.3620	14.5780
 5.3680	14.4780
 5.3730	14.3830
 5.3790	14.3520
 5.3850	14.3300
 5.3900	14.2530
 5.3960	14.2660
 5.4010	14.3690
 5.4070	14.3690
 5.4130	14.2920
 5.4180	14.3170
 5.4240	14.3560
 5.4300	14.2420
 5.4350	14.1550
 5.4410	14.1020
 5.4470	14.1380
 5.4530	14.1810
 5.4580	14.2460
 5.4640	14.2410
 5.4700	14.2640
 5.4760	14.2850
 5.4810	14.2230
 5.4870	14.0920
 5.4930	14.1350
 5.4990	14.1990
 5.5050	14.0800
 5.5110	14.0240
 5.5160	14.0890
 5.5220	14.0800
 5.5280	13.9930
 5.5340	13.9380
 5.5400	14.0310
 5.5460	14.1310
 5.5520	14.0800
 5.5580	13.9740
 5.5640	13.9840
 5.5700	14.0140
 5.5760	14.0400
 5.5820	13.8970
 5.5880	13.8350
 5.5940	13.9060
 5.6000	13.9750
 5.6060	13.9180
 5.6120	13.8890
 5.6180	13.7840
 5.6240	13.8430
 5.6300	13.9070
 5.6360	13.8520
 5.6420	13.7670
 5.6490	13.7610
 5.6550	13.6750
 5.6610	13.6690
 5.6670	13.7010
 5.6730	13.7060
 5.6800	13.6770
 5.6860	13.6680
 5.6920	13.4600
 5.6980	13.3920
 5.7040	13.4250
 5.7110	13.4870
 5.7170	13.4660
 5.7230	13.3760
 5.7300	13.3830
 5.7360	13.4570
 5.7420	13.4890
 5.7490	13.5710
 5.7550	13.6120
 5.7620	13.8040
 5.7680	13.8760
 5.7740	13.8470
 5.7810	13.8640
 5.7870	13.9340
 5.7940	14.0430
 5.8000	14.2600
 5.8070	14.2950
 5.8130	14.3120
 5.8200	14.3270
 5.8260	14.4180
 5.8330	14.3550
 5.8390	14.3570
 5.8460	14.4260
 5.8530	14.5390
 5.8590	14.5210
 5.8660	14.4740
 5.8720	14.5470
 5.8790	14.6150
 5.8860	14.5060
 5.8920	14.6420
 5.8990	14.7210
 5.9060	14.7890
 5.9130	14.7840
 5.9190	14.7990
 5.9260	14.8190
 5.9330	14.9070
 5.9400	14.8850
 5.9470	14.8870
 5.9530	14.8290
 5.9600	14.8120
 5.9670	14.8160
 5.9740	14.8070
 5.9810	14.7880
 5.9880	14.8250
 5.9950	14.8720
 6.0020	14.9800
 6.0090	15.0000
 6.0160	15.0800
 6.0230	14.9890
 6.0300	14.9550
 6.0370	14.9860
 6.0440	15.0200
 6.0510	14.9600
 6.0580	14.9850
 6.0650	15.0650
 6.0720	15.1100
 6.0790	15.1160
 6.0860	15.1070
 6.0930	15.0590
 6.1000	15.1530
 6.1080	15.1880
 6.1150	15.2550
 6.1220	15.1250
 6.1290	15.0240
 6.1370	15.0130
 6.1440	15.0220
 6.1510	14.9500
 6.1580	14.9750
 6.1660	15.0370
 6.1730	15.1390
 6.1800	15.0750
 6.1880	15.0750
 6.1950	15.0810
 6.2030	15.1040
 6.2100	15.0360
 6.2170	15.0240
 6.2250	15.0270
 6.2320	15.0120
 6.2400	15.0030
 6.2470	15.0660
 6.2550	14.9710
 6.2630	14.9470
 6.2700	14.8890
 6.2780	14.9130
 6.2850	14.9860
 6.2930	15.1120
 6.3010	14.9750
 6.3080	14.9410
 6.3160	15.0300
 6.3240	15.1240
 6.3310	15.0180
 6.3390	14.9460
 6.3470	14.9030
 6.3550	14.8940
 6.3620	14.9090
 6.3700	14.9970
 6.3780	15.0360
 6.3860	15.0440
 6.3940	14.9500
 6.4020	14.9380
 6.4100	14.9250
 6.4180	14.8580
 6.4260	14.7840
 6.4330	14.8620
 6.4410	14.8110
 6.4490	14.7670
 6.4580	14.6270
 6.4660	14.6930
 6.4740	14.8350
 6.4820	14.9840
 6.4900	14.9660
 6.4980	14.8560
 6.5060	14.7070
 6.5140	14.7190
 6.5230	14.6410
 6.5310	14.5460
 6.5390	14.4620
 6.5470	14.5430
 6.5550	14.5240
 6.5640	14.5370
 6.5720	14.4350
 6.5800	14.3810
 6.5890	14.5090
 6.5970	14.7040
 6.6060	14.6910
 6.6140	14.6870
 6.6220	14.7740
 6.6310	14.9610
 6.6390	14.8160
 6.6480	14.6290
 6.6560	14.6460
 6.6650	14.7440
 6.6740	14.6620
 6.6820	14.6720
 6.6910	14.7120
 6.6990	14.7040
 6.7080	14.5530
 6.7170	14.6770
 6.7260	14.7300
 6.7340	14.6780
 6.7430	14.5510
 6.7520	14.5480
 6.7610	14.5510
 6.7690	14.7470
 6.7780	14.6550
 6.7870	14.5770
 6.7960	14.5570
 6.8050	14.6550
 6.8140	14.6110
 6.8230	14.7030
 6.8320	14.7890
 6.8410	14.8450
 6.8500	14.8670
 6.8590	14.9460
 6.8680	14.8200
 6.8770	14.9400
 6.8860	15.0800
 6.8950	15.1050
 6.9050	14.9860
 6.9140	15.1060
 6.9230	15.2440
 6.9320	15.3000
 6.9420	15.2660
 6.9510	15.2780
 6.9600	15.2280
 6.9700	15.2970
 6.9790	15.1980
 6.9880	15.2040
 6.9980	15.2710
 7.0070	15.3020
 7.0170	15.1350
 7.0260	15.1240
 7.0360	15.3000
 7.0450	15.3330
 7.0550	15.1130
 7.0650	15.0830
 7.0740	15.0880
 7.0840	15.0900
 7.0940	14.8390
 7.1030	14.8030
 7.1130	14.8960
 7.1230	15.0310
 7.1330	14.9290
 7.1420	14.9290
 7.1520	14.9850
 7.1620	15.0630
 7.1720	14.9190
 7.1820	14.8410
 7.1920	14.8920
 7.2020	15.1660
 7.2120	15.1400
 7.2220	15.1470
 7.2320	15.0540
 7.2420	14.9440
 7.2520	14.9050
 7.2620	15.1030
 7.2730	15.1160
 7.2830	15.0820
 7.2930	14.9680
 7.3030	15.0140
 7.3140	15.0330
 7.3240	15.0730
 7.3340	14.9170
 7.3450	14.9280
 7.3550	14.9570
 7.3660	15.0680
 7.3760	15.0450
 7.3870	15.0080
 7.3970	14.9040
 7.4080	15.0620
 7.4180	15.1090
 7.4290	15.0570
 7.4400	15.0430
 7.4500	15.2360
 7.4610	15.2270
 7.4720	15.2560
 7.4830	15.1340
 7.4930	15.1010
 7.5040	15.1430
 7.5150	15.2580
 7.5260	15.1840
 7.5370	15.2790
 7.5480	15.2400
 7.5590	15.2330
 7.5700	15.3120
 7.5810	15.3240
 7.5920	15.1980
 7.6030	15.2590
 7.6140	15.1720
 7.6260	15.2220
 7.6370	15.1050
 7.6480	15.1010
 7.6590	15.0250
 7.6710	15.0180
 7.6820	14.9890
 7.6930	15.0530
 7.7050	15.0140
 7.7160	15.0930
 7.7280	15.0420
 7.7390	14.9510
 7.7510	14.7620
 7.7630	14.8350
 7.7740	14.8010
 7.7860	14.9020
 7.7980	14.9060
 7.8090	15.0420
 7.8210	14.9580
 7.8330	14.8720
 7.8450	14.8970
 7.8570	15.0450
 7.8690	14.9620
 7.8810	14.9800
 7.8930	15.0870
 7.9050	15.2390
 7.9170	15.0790
 7.9290	14.9990
 7.9410	14.8850
 7.9530	14.9940
 7.9650	15.0020
 7.9780	15.0720
 7.9900	15.0250
 8.0020	15.0880
 8.0150	15.0700
 8.0270	15.1650
 8.0390	15.1010
 8.0520	15.1950
 8.0640	15.3430
 8.0770	15.3760
 8.0900	15.1400
 8.1020	15.2550
 8.1150	15.1280
 8.1280	15.2580
 8.1400	15.3570
 8.1530	15.5090
 8.1660	15.5270
 8.1790	15.4830
 8.1920	15.2260
 8.2050	15.4210
 8.2180	15.5940
 8.2310	15.7850
 8.2440	15.6840
 8.2570	15.6950
 8.2700	15.6240
 8.2830	15.8850
 8.2970	15.7450
 8.3100	15.6300
 8.3230	15.6770
 8.3370	15.8510
 8.3500	15.9520
 8.3640	15.9970
 8.3770	15.8640
 8.3910	16.0300
 8.4040	15.8660
 8.4180	15.8230
 8.4320	15.8410
 8.4450	16.1110
 8.4590	16.2890
 8.4730	16.3550
 8.4870	16.0820
 8.5010	16.0900
 8.5150	16.0360
 8.5290	16.1730
 8.5430	16.1810
 8.5570	16.1910
 8.5710	16.0090
 8.5850	16.2240
 8.5990	16.2000
 8.6140	16.2640
 8.6280	16.1560
 8.6420	16.0260
 8.6570	15.9630
 8.6710	16.2060
 8.6860	16.3040
 8.7000	16.4480
 8.7150	16.1880
 8.7300	16.1520
 8.7440	16.0730
 8.7590	16.3110
 8.7740	16.3570
 8.7890	16.3680
 8.8040	16.2230
 8.8190	16.2310
 8.8340	15.9510
 8.8490	15.8050
 8.8640	15.5690
 8.8790	15.7360
 8.8940	15.7480
 8.9100	15.6970
 8.9250	15.7030
 8.9400	16.0010
 8.9560	15.8420
 8.9710	15.7470
 8.9870	15.6880
 9.0020	15.9570
 9.0180	15.8710
 9.0340	15.9010
 9.0500	15.9220
 9.0650	16.0850
 9.0810	16.0900
 9.0970	16.0020
 9.1130	15.8260
 9.1290	16.0330
 9.1450	16.1470
 9.1610	16.1730
 9.1780	15.9690
 9.1940	15.9500
 9.2100	15.7630
 9.2270	16.0230
 9.2430	16.2770
 9.2600	16.4980
 9.2760	16.3070
 9.2930	16.2610
 9.3090	16.1850
 9.3260	16.4450
 9.3430	16.2630
 9.3600	16.2790
 9.3770	16.1980
 9.3940	16.1980
 9.4110	15.9860
 9.4280	16.0940
 9.4450	16.1880
 9.4620	16.3900
 9.4800	16.4100
 9.4970	16.5010
 9.5140	16.3300
 9.5320	16.6450
 9.5500	16.6860
 9.5670	16.7300
 9.5850	16.5600
 9.6030	16.7620
 9.6200	16.8470
 9.6380	16.8140
 9.6560	16.6040
 9.6740	16.7130
 9.6920	16.5420
 9.7100	16.4390
 9.7290	16.3500
 9.7470	16.4640
 9.7650	16.3870
 9.7840	16.6070
 9.8020	16.4950
 9.8210	16.5200
 9.8390	16.3210
 9.8580	16.4690
 9.8770	16.5170
 9.8960	16.6300
 9.9150	16.3460
 9.9340	16.4390
 9.9530	16.2230
 9.9720	16.2010
 9.9910	16.2040
10.0100	16.4550
10.0300	16.4490
10.0490	16.5840
10.0690	16.3840
10.0880	16.3300
10.1080	16.1750
10.1280	16.2470
10.1480	16.3550
10.1670	16.5520
10.1870	16.2270
10.2070	16.3200
10.2280	16.3530
10.2480	16.3690
10.2680	16.2030
10.2890	16.1940
10.3090	15.9230
10.3300	16.1090
10.3500	16.0260
10.3710	16.1010
10.3920	16.1190
10.4120	16.4090
10.4330	16.3000
10.4540	16.2440
10.4760	16.0960
10.4970	16.0470
10.5180	15.8840
10.5390	16.1290
10.5610	16.1660
10.5820	16.3280
10.6040	16.1950
10.6260	16.3830
10.6480	16.2960
10.6700	16.3540
10.6920	16.3050
10.7140	16.4220
10.7360	16.4340
10.7580	16.5720
10.7800	16.2850
10.8030	16.2670
10.8250	16.3040
10.8480	16.4560
10.8710	16.2370
10.8940	16.5430
10.9170	16.6480
10.9400	16.6860
10.9630	16.3730
10.9860	16.3440
11.0090	16.2300
11.0330	16.4970
11.0560	16.3650
11.0800	16.5220
11.1040	17.0790
11.1270	17.1870
11.1510	16.4330
11.1750	16.3420
11.2000	16.2600
11.2240	16.3080
11.2480	16.2880
11.2730	17.6170
11.2970	18.4870
11.3220	17.5720
11.3470	16.4520
11.3720	16.5130
11.3970	16.5040
11.4220	16.8180
11.4470	16.7940
11.4720	16.9350
11.4980	16.5900
11.5230	16.4100
11.5490	16.1490
11.5750	16.2910
11.6000	16.2130
11.6260	16.2850
11.6530	16.1390
11.6790	16.3830
11.7050	16.1020
11.7320	16.1530
11.7580	16.1390
11.7850	16.0990
11.8120	15.8730
11.8390	16.0210
11.8660	15.8440
11.8930	15.8900
11.9200	15.7460
11.9480	16.0650
11.9760	15.9420
12.0030	15.9100
12.0310	15.7820
12.0590	16.3130
12.0870	16.0800
12.1150	16.1170
12.1440	16.0550
12.1720	16.2540
12.2010	16.0610
12.2300	16.1390
12.2590	16.1320
12.2880	16.3600
12.3170	15.9390
12.3460	16.0380
12.3760	15.9470
12.4050	16.2710
12.4350	16.1090
12.4650	16.1210
12.4950	15.9830
12.5250	16.2390
12.5550	16.1290
12.5860	16.2000
12.6170	16.1140
12.6470	16.3810
12.6780	16.1100
12.7090	15.9460
12.7410	15.6510
12.7720	15.8890
12.8030	15.8720
12.8350	16.1610
12.8670	15.8750
12.8990	16.2090
12.9310	15.9890
12.9640	15.9830
12.9960	15.6070
13.0290	16.0300
13.0610	16.1920
13.0940	16.3200
13.1280	15.8640
13.1610	15.9290
13.1940	15.6630
13.2280	16.0820
13.2620	15.9790
13.2960	15.8620
13.3300	15.4430
13.3640	15.8020
13.3990	15.8130
13.4340	15.8580
13.4690	15.3170
13.5040	15.6560
13.5390	15.4610
13.5740	15.6120
13.6100	15.3030
13.6460	15.3510
13.6820	15.0330
13.7180	15.3360
13.7540	14.9950
13.7910	15.4090
13.8280	15.2770
13.8650	15.7480
13.9020	15.3350
13.9390	15.3670
13.9770	15.1510
14.0150	15.2810
14.0530	14.9370
14.0910	15.5180
14.1290	15.4550
14.1680	15.4270
14.2070	15.0090
14.2460	15.4890
14.2850	14.8320
14.3240	15.1700
14.3640	15.2820
14.4040	15.4930
14.4440	15.0850
14.4840	15.4820
14.5250	15.1750
14.5660	15.2260
14.6070	14.7140
14.6480	15.0670
14.6900	14.6560
14.7310	15.0290
14.7730	14.4330
14.8150	14.7700
14.8580	15.0960
14.9010	16.0240
14.9440	18.6530
14.9870	19.0070
15.0300	14.9740
15.0740	15.1880
15.1180	15.1460
15.1620	15.9780
15.2060	15.2080
15.2510	15.2860
15.2960	14.4020
15.3410	14.2510
15.3870	13.4780
