Name: Quercus agrifolia 1
Type: vegetation
Class: Tree
Genus: Quercus
Species: agrifolia
Sample No.: VH075
Owner: UCSB
Wavelength Range: TIR
Origin: 34.7153; -120.0601; WGS84
Collection Date: 4/21/2013
Description: Samples were collected as part of the HyspIRI Airborne Campaign. 48 individual plants were sampled in three times in 2013 - spring  summer  and fall. The name of the sample includes a 1  2  or 3 which references a different individual of the species. Samples were taken to JPL and processed within 48 hours of collection. The same leaves were processed in the Nicolet and then measured using the ASD.
Measurement: Hemispherical reflectance
First Column: X
Second Column: Y
X Units: Wavelength (micrometers)
Y Units: Reflectance (percentage)
First X Value: 2.501
Last X Value: 15.387
Number of X Values: 1737
Additional Information: vegetation.tree.quercus.agrifolia.tir.vh075.ucsb.nicolet.ancillary.txt

 2.5010	 6.6610
 2.5030	 6.5970
 2.5040	 6.5990
 2.5050	 6.5890
 2.5060	 6.6110
 2.5070	 6.5390
 2.5090	 6.5340
 2.5100	 6.5840
 2.5110	 6.5120
 2.5120	 6.4430
 2.5140	 6.5470
 2.5150	 6.5110
 2.5160	 6.3840
 2.5170	 6.4460
 2.5180	 6.5600
 2.5200	 6.5160
 2.5210	 6.4540
 2.5220	 6.4120
 2.5230	 6.4900
 2.5250	 6.5450
 2.5260	 6.4800
 2.5270	 6.4670
 2.5280	 6.4910
 2.5290	 6.5050
 2.5310	 6.4380
 2.5320	 6.3550
 2.5330	 6.4510
 2.5340	 6.5930
 2.5360	 6.5430
 2.5370	 6.3720
 2.5380	 6.4230
 2.5390	 6.5670
 2.5410	 6.5930
 2.5420	 6.5340
 2.5430	 6.4960
 2.5440	 6.4800
 2.5460	 6.4380
 2.5470	 6.4700
 2.5480	 6.4960
 2.5490	 6.4730
 2.5510	 6.5660
 2.5520	 6.6220
 2.5530	 6.6400
 2.5540	 6.5750
 2.5560	 6.5410
 2.5570	 6.4940
 2.5580	 6.4970
 2.5590	 6.5360
 2.5610	 6.6210
 2.5620	 6.6120
 2.5630	 6.5680
 2.5640	 6.5550
 2.5660	 6.5410
 2.5670	 6.4470
 2.5680	 6.4210
 2.5700	 6.4830
 2.5710	 6.5440
 2.5720	 6.5030
 2.5730	 6.4920
 2.5750	 6.5830
 2.5760	 6.6360
 2.5770	 6.5580
 2.5790	 6.5900
 2.5800	 6.5490
 2.5810	 6.4930
 2.5820	 6.5490
 2.5840	 6.6450
 2.5850	 6.6150
 2.5860	 6.5860
 2.5880	 6.5680
 2.5890	 6.5510
 2.5900	 6.6480
 2.5910	 6.7210
 2.5930	 6.6140
 2.5940	 6.6620
 2.5950	 6.6780
 2.5970	 6.5670
 2.5980	 6.5170
 2.5990	 6.5780
 2.6000	 6.4920
 2.6020	 6.4110
 2.6030	 6.3650
 2.6040	 6.3740
 2.6060	 6.5140
 2.6070	 6.5750
 2.6080	 6.5000
 2.6100	 6.4760
 2.6110	 6.4470
 2.6120	 6.4430
 2.6140	 6.5000
 2.6150	 6.4930
 2.6160	 6.4840
 2.6180	 6.4690
 2.6190	 6.3120
 2.6200	 6.3120
 2.6220	 6.3760
 2.6230	 6.3840
 2.6240	 6.3040
 2.6260	 6.3690
 2.6270	 6.4430
 2.6280	 6.3670
 2.6300	 6.2630
 2.6310	 6.2710
 2.6320	 6.2000
 2.6340	 6.1300
 2.6350	 6.0450
 2.6360	 6.1450
 2.6380	 6.2420
 2.6390	 6.0880
 2.6400	 6.0470
 2.6420	 6.1910
 2.6430	 6.2110
 2.6440	 6.1210
 2.6460	 6.0400
 2.6470	 6.0340
 2.6480	 6.0320
 2.6500	 6.0460
 2.6510	 5.9990
 2.6520	 6.0210
 2.6540	 6.0150
 2.6550	 6.0140
 2.6560	 6.0810
 2.6580	 6.0970
 2.6590	 5.9780
 2.6610	 5.9500
 2.6620	 5.9510
 2.6630	 6.0030
 2.6650	 5.9770
 2.6660	 5.8500
 2.6670	 5.8080
 2.6690	 5.8370
 2.6700	 5.9050
 2.6720	 5.9540
 2.6730	 5.9030
 2.6740	 5.8620
 2.6760	 5.7860
 2.6770	 5.7250
 2.6780	 5.7980
 2.6800	 5.8650
 2.6810	 5.8470
 2.6830	 5.8030
 2.6840	 5.7180
 2.6850	 5.6950
 2.6870	 5.6710
 2.6880	 5.7570
 2.6900	 5.7270
 2.6910	 5.6540
 2.6920	 5.6220
 2.6940	 5.6520
 2.6950	 5.6160
 2.6970	 5.5560
 2.6980	 5.5580
 2.6990	 5.5490
 2.7010	 5.4690
 2.7020	 5.4750
 2.7040	 5.5940
 2.7050	 5.6400
 2.7060	 5.4840
 2.7080	 5.4440
 2.7090	 5.5250
 2.7110	 5.5420
 2.7120	 5.4480
 2.7130	 5.4460
 2.7150	 5.3990
 2.7160	 5.4110
 2.7180	 5.3690
 2.7190	 5.2870
 2.7210	 5.2480
 2.7220	 5.3130
 2.7230	 5.2690
 2.7250	 5.2960
 2.7260	 5.3500
 2.7280	 5.3210
 2.7290	 5.2270
 2.7310	 5.1940
 2.7320	 5.2090
 2.7330	 5.1920
 2.7350	 5.1920
 2.7360	 5.2550
 2.7380	 5.1130
 2.7390	 5.1430
 2.7410	 5.2880
 2.7420	 5.2690
 2.7440	 5.2200
 2.7450	 5.2480
 2.7470	 5.2110
 2.7480	 5.2180
 2.7490	 5.1970
 2.7510	 5.1870
 2.7520	 5.1460
 2.7540	 5.1710
 2.7550	 5.1860
 2.7570	 5.1530
 2.7580	 5.0820
 2.7600	 5.1660
 2.7610	 5.1570
 2.7630	 5.1030
 2.7640	 5.1210
 2.7660	 5.0750
 2.7670	 4.9800
 2.7680	 5.0950
 2.7700	 5.1220
 2.7710	 5.0520
 2.7730	 5.0730
 2.7740	 5.1550
 2.7760	 5.1670
 2.7770	 5.1170
 2.7790	 5.0080
 2.7800	 5.1050
 2.7820	 5.2830
 2.7830	 5.2220
 2.7850	 5.1230
 2.7860	 5.1430
 2.7880	 5.1040
 2.7890	 5.1040
 2.7910	 5.0980
 2.7920	 4.9980
 2.7940	 4.8830
 2.7950	 4.9800
 2.7970	 5.0030
 2.7980	 4.9960
 2.8000	 4.9680
 2.8010	 4.9190
 2.8030	 4.9170
 2.8040	 4.9150
 2.8060	 4.9470
 2.8070	 5.0810
 2.8090	 4.9960
 2.8110	 5.0180
 2.8120	 5.0040
 2.8140	 4.9830
 2.8150	 4.9610
 2.8170	 4.9500
 2.8180	 4.9240
 2.8200	 4.9330
 2.8210	 5.0310
 2.8230	 5.0950
 2.8240	 5.0980
 2.8260	 5.1290
 2.8270	 5.0630
 2.8290	 5.0870
 2.8300	 5.0050
 2.8320	 4.9790
 2.8340	 5.0570
 2.8350	 5.0780
 2.8370	 4.9670
 2.8380	 4.9970
 2.8400	 5.0750
 2.8410	 5.1350
 2.8430	 5.0790
 2.8440	 5.0030
 2.8460	 5.0580
 2.8480	 5.0670
 2.8490	 4.9540
 2.8510	 4.9350
 2.8520	 4.8970
 2.8540	 4.9260
 2.8550	 4.9350
 2.8570	 4.9410
 2.8590	 4.9190
 2.8600	 4.8560
 2.8620	 4.9470
 2.8630	 5.1400
 2.8650	 5.1140
 2.8660	 5.0380
 2.8680	 5.0510
 2.8700	 5.2050
 2.8710	 5.0180
 2.8730	 4.8010
 2.8740	 4.8440
 2.8760	 5.0090
 2.8780	 5.0100
 2.8790	 5.0130
 2.8810	 4.9060
 2.8820	 4.8760
 2.8840	 4.8680
 2.8860	 5.0090
 2.8870	 5.0510
 2.8890	 4.9660
 2.8900	 4.9800
 2.8920	 5.0570
 2.8940	 5.1090
 2.8950	 5.1090
 2.8970	 5.0680
 2.8980	 5.0350
 2.9000	 5.1240
 2.9020	 5.1440
 2.9030	 5.0640
 2.9050	 5.0080
 2.9070	 5.0200
 2.9080	 4.9860
 2.9100	 4.7830
 2.9120	 4.9150
 2.9130	 4.9780
 2.9150	 5.0670
 2.9160	 5.1370
 2.9180	 5.0680
 2.9200	 4.9770
 2.9210	 4.9680
 2.9230	 5.0080
 2.9250	 5.0130
 2.9260	 4.9160
 2.9280	 5.0060
 2.9300	 5.1030
 2.9310	 5.1340
 2.9330	 5.1340
 2.9350	 5.1030
 2.9360	 5.0350
 2.9380	 5.2090
 2.9400	 5.1830
 2.9410	 4.9760
 2.9430	 4.9480
 2.9450	 5.0010
 2.9460	 5.0160
 2.9480	 5.0400
 2.9500	 4.9510
 2.9510	 5.0780
 2.9530	 5.1750
 2.9550	 5.2400
 2.9560	 5.0540
 2.9580	 5.0100
 2.9600	 5.1070
 2.9610	 5.1680
 2.9630	 5.1800
 2.9650	 5.2450
 2.9660	 5.3180
 2.9680	 5.5290
 2.9700	 5.4290
 2.9720	 5.0990
 2.9730	 4.8620
 2.9750	 4.9220
 2.9770	 5.4580
 2.9780	 5.9910
 2.9800	 5.8440
 2.9820	 5.4740
 2.9840	 5.0720
 2.9850	 4.9010
 2.9870	 5.0540
 2.9890	 5.2860
 2.9900	 5.4620
 2.9920	 5.5210
 2.9940	 5.0400
 2.9960	 4.5700
 2.9970	 4.7460
 2.9990	 5.1120
 3.0010	 5.3590
 3.0030	 5.2680
 3.0040	 5.0780
 3.0060	 5.0060
 3.0080	 5.1300
 3.0100	 5.0610
 3.0110	 5.0150
 3.0130	 5.4360
 3.0150	 5.5090
 3.0170	 5.4920
 3.0180	 5.3370
 3.0200	 4.9800
 3.0220	 4.9620
 3.0240	 5.1790
 3.0250	 5.1150
 3.0270	 5.1490
 3.0290	 5.1540
 3.0310	 5.0820
 3.0320	 4.9420
 3.0340	 5.2030
 3.0360	 5.2090
 3.0380	 5.0310
 3.0400	 5.1440
 3.0410	 5.2690
 3.0430	 5.2070
 3.0450	 5.4250
 3.0470	 5.2690
 3.0480	 4.8950
 3.0500	 5.0560
 3.0520	 5.2720
 3.0540	 5.1520
 3.0560	 5.4910
 3.0570	 5.3760
 3.0590	 5.0760
 3.0610	 5.0940
 3.0630	 5.4630
 3.0650	 5.6490
 3.0660	 5.4450
 3.0680	 5.1570
 3.0700	 5.0140
 3.0720	 4.9800
 3.0740	 5.0840
 3.0760	 5.2210
 3.0770	 5.2090
 3.0790	 5.0990
 3.0810	 5.1280
 3.0830	 5.2450
 3.0850	 5.3020
 3.0870	 5.1350
 3.0880	 5.0500
 3.0900	 5.1320
 3.0920	 5.2490
 3.0940	 5.2200
 3.0960	 5.2930
 3.0980	 5.2690
 3.0990	 5.1650
 3.1010	 5.1740
 3.1030	 5.2440
 3.1050	 5.1620
 3.1070	 5.2310
 3.1090	 5.2760
 3.1110	 5.1720
 3.1120	 5.1370
 3.1140	 5.1510
 3.1160	 5.0450
 3.1180	 5.0550
 3.1200	 5.0730
 3.1220	 5.1280
 3.1240	 5.0740
 3.1260	 5.0860
 3.1270	 5.1910
 3.1290	 5.2510
 3.1310	 5.2160
 3.1330	 5.1630
 3.1350	 5.0490
 3.1370	 5.0980
 3.1390	 5.0960
 3.1410	 4.8940
 3.1430	 4.7460
 3.1450	 4.8920
 3.1460	 5.2340
 3.1480	 5.3560
 3.1500	 5.2660
 3.1520	 5.3180
 3.1540	 5.2450
 3.1560	 5.1910
 3.1580	 5.1590
 3.1600	 5.0910
 3.1620	 5.0130
 3.1640	 5.0060
 3.1660	 5.2380
 3.1680	 5.2090
 3.1700	 4.8580
 3.1710	 4.6330
 3.1730	 4.4990
 3.1750	 4.7650
 3.1770	 5.0680
 3.1790	 4.9820
 3.1810	 5.0320
 3.1830	 5.3630
 3.1850	 5.3040
 3.1870	 5.3160
 3.1890	 5.4250
 3.1910	 5.3930
 3.1930	 5.4060
 3.1950	 5.3000
 3.1970	 5.1700
 3.1990	 5.1680
 3.2010	 5.2050
 3.2030	 5.2190
 3.2050	 5.1810
 3.2070	 5.1710
 3.2090	 5.1460
 3.2110	 5.0470
 3.2130	 5.0440
 3.2150	 5.0950
 3.2170	 5.1210
 3.2190	 5.1880
 3.2210	 5.1730
 3.2230	 5.0910
 3.2250	 5.0640
 3.2270	 5.1300
 3.2290	 5.0510
 3.2310	 5.0030
 3.2330	 5.0670
 3.2350	 5.1090
 3.2370	 5.1880
 3.2390	 5.1700
 3.2410	 5.1490
 3.2430	 5.1280
 3.2450	 5.0800
 3.2470	 5.0810
 3.2490	 5.1060
 3.2510	 4.9870
 3.2530	 4.9620
 3.2550	 5.0300
 3.2570	 5.0270
 3.2590	 4.9770
 3.2610	 4.9980
 3.2630	 4.9400
 3.2650	 4.8200
 3.2670	 4.9160
 3.2690	 5.1190
 3.2720	 5.2170
 3.2740	 5.1440
 3.2760	 5.0650
 3.2780	 5.1040
 3.2800	 5.1530
 3.2820	 5.1380
 3.2840	 5.0140
 3.2860	 5.0220
 3.2880	 5.1410
 3.2900	 5.1510
 3.2920	 5.0430
 3.2940	 4.9480
 3.2960	 5.0300
 3.2990	 5.0330
 3.3010	 5.0210
 3.3030	 4.9700
 3.3050	 4.9880
 3.3070	 4.9510
 3.3090	 4.9210
 3.3110	 4.9180
 3.3130	 4.9910
 3.3150	 5.0160
 3.3180	 5.0180
 3.3200	 4.8970
 3.3220	 4.9030
 3.3240	 5.0160
 3.3260	 5.0520
 3.3280	 5.0510
 3.3300	 5.0480
 3.3330	 4.9400
 3.3350	 4.9110
 3.3370	 4.9030
 3.3390	 4.9370
 3.3410	 4.9460
 3.3430	 4.9310
 3.3450	 4.8810
 3.3480	 4.8220
 3.3500	 4.8420
 3.3520	 4.8580
 3.3540	 4.8490
 3.3560	 4.8090
 3.3580	 4.6860
 3.3610	 4.6340
 3.3630	 4.6480
 3.3650	 4.7130
 3.3670	 4.7390
 3.3690	 4.7390
 3.3720	 4.7230
 3.3740	 4.6580
 3.3760	 4.6120
 3.3780	 4.6880
 3.3800	 4.6760
 3.3830	 4.6750
 3.3850	 4.7030
 3.3870	 4.6270
 3.3890	 4.5560
 3.3910	 4.5430
 3.3940	 4.6040
 3.3960	 4.7330
 3.3980	 4.6730
 3.4000	 4.5590
 3.4020	 4.4980
 3.4050	 4.4630
 3.4070	 4.4480
 3.4090	 4.4370
 3.4110	 4.3650
 3.4140	 4.3530
 3.4160	 4.4810
 3.4180	 4.6390
 3.4200	 4.8590
 3.4230	 5.3110
 3.4250	 5.9900
 3.4270	 6.7240
 3.4290	 7.2620
 3.4320	 7.4020
 3.4340	 7.1230
 3.4360	 6.7260
 3.4390	 6.4790
 3.4410	 6.3300
 3.4430	 6.1730
 3.4450	 6.0700
 3.4480	 5.8920
 3.4500	 5.7620
 3.4520	 5.7740
 3.4550	 5.8330
 3.4570	 5.8280
 3.4590	 5.8460
 3.4620	 5.8490
 3.4640	 5.7530
 3.4660	 5.6440
 3.4680	 5.6130
 3.4710	 5.6340
 3.4730	 5.6090
 3.4750	 5.6020
 3.4780	 5.5480
 3.4800	 5.4270
 3.4820	 5.3720
 3.4850	 5.3540
 3.4870	 5.2640
 3.4890	 5.1820
 3.4920	 5.1800
 3.4940	 5.1210
 3.4970	 5.0390
 3.4990	 5.0250
 3.5010	 5.0100
 3.5040	 5.0210
 3.5060	 5.3130
 3.5080	 6.0410
 3.5110	 6.8450
 3.5130	 7.1860
 3.5160	 7.0090
 3.5180	 6.7060
 3.5200	 6.4750
 3.5230	 6.3050
 3.5250	 6.2060
 3.5270	 6.1310
 3.5300	 6.1000
 3.5320	 5.9990
 3.5350	 5.9070
 3.5370	 5.9450
 3.5400	 6.0050
 3.5420	 5.9220
 3.5440	 5.7680
 3.5470	 5.7150
 3.5490	 5.6840
 3.5520	 5.7210
 3.5540	 5.7870
 3.5570	 5.7960
 3.5590	 5.8130
 3.5610	 5.7260
 3.5640	 5.6520
 3.5660	 5.6600
 3.5690	 5.7120
 3.5710	 5.7500
 3.5740	 5.7130
 3.5760	 5.7120
 3.5790	 5.6900
 3.5810	 5.6600
 3.5840	 5.6500
 3.5860	 5.6620
 3.5890	 5.6490
 3.5910	 5.6700
 3.5930	 5.6990
 3.5960	 5.7250
 3.5980	 5.6720
 3.6010	 5.6140
 3.6030	 5.6030
 3.6060	 5.6300
 3.6080	 5.5640
 3.6110	 5.5110
 3.6140	 5.5100
 3.6160	 5.5510
 3.6190	 5.5560
 3.6210	 5.5310
 3.6240	 5.5600
 3.6260	 5.5510
 3.6290	 5.5370
 3.6310	 5.5700
 3.6340	 5.6000
 3.6360	 5.6110
 3.6390	 5.5340
 3.6410	 5.5290
 3.6440	 5.6240
 3.6470	 5.6010
 3.6490	 5.5220
 3.6520	 5.5110
 3.6540	 5.5320
 3.6570	 5.5760
 3.6590	 5.5940
 3.6620	 5.5910
 3.6650	 5.5710
 3.6670	 5.5330
 3.6700	 5.5420
 3.6720	 5.5250
 3.6750	 5.4970
 3.6780	 5.5080
 3.6800	 5.5010
 3.6830	 5.5220
 3.6850	 5.4900
 3.6880	 5.4760
 3.6910	 5.4590
 3.6930	 5.4260
 3.6960	 5.4290
 3.6990	 5.4800
 3.7010	 5.4840
 3.7040	 5.4820
 3.7060	 5.4830
 3.7090	 5.4930
 3.7120	 5.4540
 3.7140	 5.4710
 3.7170	 5.4780
 3.7200	 5.4600
 3.7220	 5.4600
 3.7250	 5.5310
 3.7280	 5.5160
 3.7300	 5.4730
 3.7330	 5.4790
 3.7360	 5.3960
 3.7390	 5.4190
 3.7410	 5.4490
 3.7440	 5.4420
 3.7470	 5.4850
 3.7490	 5.5270
 3.7520	 5.5240
 3.7550	 5.4610
 3.7580	 5.4760
 3.7600	 5.4810
 3.7630	 5.4770
 3.7660	 5.5000
 3.7680	 5.5020
 3.7710	 5.4620
 3.7740	 5.4520
 3.7770	 5.4330
 3.7790	 5.4660
 3.7820	 5.5120
 3.7850	 5.4890
 3.7880	 5.4780
 3.7900	 5.5190
 3.7930	 5.5320
 3.7960	 5.4820
 3.7990	 5.4380
 3.8020	 5.4360
 3.8040	 5.4260
 3.8070	 5.4670
 3.8100	 5.4830
 3.8130	 5.4670
 3.8160	 5.5100
 3.8180	 5.5700
 3.8210	 5.5090
 3.8240	 5.4690
 3.8270	 5.4630
 3.8300	 5.4860
 3.8330	 5.5510
 3.8350	 5.5310
 3.8380	 5.4970
 3.8410	 5.5090
 3.8440	 5.5080
 3.8470	 5.4770
 3.8500	 5.4860
 3.8520	 5.5190
 3.8550	 5.5270
 3.8580	 5.5290
 3.8610	 5.4540
 3.8640	 5.3640
 3.8670	 5.4130
 3.8700	 5.4760
 3.8730	 5.4710
 3.8750	 5.4790
 3.8780	 5.4230
 3.8810	 5.4110
 3.8840	 5.4230
 3.8870	 5.4610
 3.8900	 5.4740
 3.8930	 5.4330
 3.8960	 5.4110
 3.8990	 5.4600
 3.9020	 5.5310
 3.9050	 5.5450
 3.9080	 5.5280
 3.9110	 5.4930
 3.9140	 5.4950
 3.9160	 5.5200
 3.9190	 5.4530
 3.9220	 5.4600
 3.9250	 5.5400
 3.9280	 5.5300
 3.9310	 5.5130
 3.9340	 5.5240
 3.9370	 5.5290
 3.9400	 5.5590
 3.9430	 5.5170
 3.9460	 5.4560
 3.9490	 5.4800
 3.9520	 5.5650
 3.9550	 5.5810
 3.9580	 5.5600
 3.9610	 5.5100
 3.9640	 5.4750
 3.9670	 5.4560
 3.9700	 5.4880
 3.9730	 5.5320
 3.9770	 5.5160
 3.9800	 5.5040
 3.9830	 5.5220
 3.9860	 5.5100
 3.9890	 5.5090
 3.9920	 5.5040
 3.9950	 5.4900
 3.9980	 5.4540
 4.0010	 5.4880
 4.0040	 5.5050
 4.0070	 5.5470
 4.0100	 5.5670
 4.0130	 5.5380
 4.0170	 5.4650
 4.0200	 5.5300
 4.0230	 5.5470
 4.0260	 5.4890
 4.0290	 5.4360
 4.0320	 5.4470
 4.0350	 5.4870
 4.0380	 5.5320
 4.0420	 5.4920
 4.0450	 5.4360
 4.0480	 5.4020
 4.0510	 5.4500
 4.0540	 5.5310
 4.0570	 5.5500
 4.0610	 5.4990
 4.0640	 5.4290
 4.0670	 5.4700
 4.0700	 5.5710
 4.0730	 5.5900
 4.0770	 5.5110
 4.0800	 5.4320
 4.0830	 5.4780
 4.0860	 5.5450
 4.0890	 5.5350
 4.0930	 5.4580
 4.0960	 5.4720
 4.0990	 5.4980
 4.1020	 5.5450
 4.1060	 5.5400
 4.1090	 5.4840
 4.1120	 5.4260
 4.1150	 5.4380
 4.1190	 5.4940
 4.1220	 5.5830
 4.1250	 5.5750
 4.1280	 5.5540
 4.1320	 5.5220
 4.1350	 5.4710
 4.1380	 5.4540
 4.1420	 5.4620
 4.1450	 5.4400
 4.1480	 5.4830
 4.1520	 5.5130
 4.1550	 5.5190
 4.1580	 5.5070
 4.1620	 5.4510
 4.1650	 5.4480
 4.1680	 5.4920
 4.1720	 5.4810
 4.1750	 5.4240
 4.1780	 5.3900
 4.1820	 5.4380
 4.1850	 5.5110
 4.1890	 5.5210
 4.1920	 5.4800
 4.1950	 5.5100
 4.1990	 5.4760
 4.2020	 5.5410
 4.2060	 5.6500
 4.2090	 5.6680
 4.2120	 5.8110
 4.2160	 5.9230
 4.2190	 5.8250
 4.2230	 5.9720
 4.2260	 6.2050
 4.2300	 6.0000
 4.2330	 5.8920
 4.2360	 6.0630
 4.2400	 6.2430
 4.2430	 6.1360
 4.2470	 5.9950
 4.2500	 5.8100
 4.2540	 5.6420
 4.2570	 5.6960
 4.2610	 5.7320
 4.2640	 5.7410
 4.2680	 5.8000
 4.2710	 6.1260
 4.2750	 6.0590
 4.2780	 5.9160
 4.2820	 5.7080
 4.2850	 5.5770
 4.2890	 5.6950
 4.2930	 5.6620
 4.2960	 5.5440
 4.3000	 5.5860
 4.3030	 5.6330
 4.3070	 5.6020
 4.3100	 5.5660
 4.3140	 5.5850
 4.3180	 5.6320
 4.3210	 5.6570
 4.3250	 5.6430
 4.3280	 5.5870
 4.3320	 5.4280
 4.3360	 5.4480
 4.3390	 5.4850
 4.3430	 5.5010
 4.3470	 5.4690
 4.3500	 5.4240
 4.3540	 5.3770
 4.3570	 5.3680
 4.3610	 5.4110
 4.3650	 5.4380
 4.3680	 5.4250
 4.3720	 5.4290
 4.3760	 5.4080
 4.3800	 5.4230
 4.3830	 5.3850
 4.3870	 5.3640
 4.3910	 5.3190
 4.3940	 5.3320
 4.3980	 5.2680
 4.4020	 5.2300
 4.4060	 5.2510
 4.4090	 5.3460
 4.4130	 5.3490
 4.4170	 5.2950
 4.4210	 5.2340
 4.4240	 5.2470
 4.4280	 5.2810
 4.4320	 5.3300
 4.4360	 5.3380
 4.4400	 5.3350
 4.4430	 5.3290
 4.4470	 5.3650
 4.4510	 5.3050
 4.4550	 5.2570
 4.4590	 5.2410
 4.4620	 5.2940
 4.4660	 5.3330
 4.4700	 5.3690
 4.4740	 5.3290
 4.4780	 5.3260
 4.4820	 5.3020
 4.4860	 5.3060
 4.4900	 5.3560
 4.4930	 5.3460
 4.4970	 5.3000
 4.5010	 5.2810
 4.5050	 5.2580
 4.5090	 5.3460
 4.5130	 5.3510
 4.5170	 5.2990
 4.5210	 5.2520
 4.5250	 5.2870
 4.5290	 5.2680
 4.5330	 5.2880
 4.5370	 5.2980
 4.5410	 5.3140
 4.5450	 5.2990
 4.5490	 5.2950
 4.5530	 5.2470
 4.5570	 5.2220
 4.5610	 5.2110
 4.5650	 5.2810
 4.5690	 5.2710
 4.5730	 5.2820
 4.5770	 5.2840
 4.5810	 5.2930
 4.5850	 5.2900
 4.5890	 5.3260
 4.5930	 5.2860
 4.5970	 5.2400
 4.6010	 5.2040
 4.6050	 5.2210
 4.6090	 5.2890
 4.6130	 5.3350
 4.6170	 5.3690
 4.6220	 5.3970
 4.6260	 5.3160
 4.6300	 5.1720
 4.6340	 5.0330
 4.6380	 5.1350
 4.6420	 5.2490
 4.6460	 5.2870
 4.6510	 5.2380
 4.6550	 5.2580
 4.6590	 5.2370
 4.6630	 5.2480
 4.6670	 5.1960
 4.6720	 5.1680
 4.6760	 5.2050
 4.6800	 5.2720
 4.6840	 5.2040
 4.6880	 5.2020
 4.6930	 5.2320
 4.6970	 5.2070
 4.7010	 5.1740
 4.7050	 5.1910
 4.7100	 5.1630
 4.7140	 5.1720
 4.7180	 5.1580
 4.7230	 5.1460
 4.7270	 5.1630
 4.7310	 5.1290
 4.7360	 5.1410
 4.7400	 5.2280
 4.7440	 5.2090
 4.7490	 5.2130
 4.7530	 5.1880
 4.7570	 5.2150
 4.7620	 5.2170
 4.7660	 5.1650
 4.7700	 5.0810
 4.7750	 5.1230
 4.7790	 5.1110
 4.7840	 5.1910
 4.7880	 5.2580
 4.7920	 5.1080
 4.7970	 5.0600
 4.8010	 5.1930
 4.8060	 5.1510
 4.8100	 5.1100
 4.8150	 5.0610
 4.8190	 5.1360
 4.8240	 5.2070
 4.8280	 5.2080
 4.8330	 5.1460
 4.8370	 5.1830
 4.8420	 5.1760
 4.8460	 5.1500
 4.8510	 5.1240
 4.8550	 5.1610
 4.8600	 5.1250
 4.8640	 5.1570
 4.8690	 5.1310
 4.8730	 5.0980
 4.8780	 5.1180
 4.8830	 5.1420
 4.8870	 5.0950
 4.8920	 5.1350
 4.8960	 5.1340
 4.9010	 5.1570
 4.9060	 5.1200
 4.9100	 5.0980
 4.9150	 5.1120
 4.9200	 5.1440
 4.9240	 5.1000
 4.9290	 5.0750
 4.9340	 5.0870
 4.9380	 5.1090
 4.9430	 5.1080
 4.9480	 5.1490
 4.9530	 5.1190
 4.9570	 5.1280
 4.9620	 5.0850
 4.9670	 5.1170
 4.9720	 5.1160
 4.9760	 5.1590
 4.9810	 5.1000
 4.9860	 5.0990
 4.9910	 5.1120
 4.9960	 5.1560
 5.0000	 5.1420
 5.0050	 5.1520
 5.0100	 5.1450
 5.0150	 5.1890
 5.0200	 5.1690
 5.0250	 5.1410
 5.0290	 5.1110
 5.0340	 5.1700
 5.0390	 5.1400
 5.0440	 5.1220
 5.0490	 5.1190
 5.0540	 5.1570
 5.0590	 5.0990
 5.0640	 5.1190
 5.0690	 5.1160
 5.0740	 5.0800
 5.0790	 5.0480
 5.0840	 5.0960
 5.0890	 5.0910
 5.0940	 5.1210
 5.0990	 5.0730
 5.1040	 5.0540
 5.1090	 5.0170
 5.1140	 5.1050
 5.1190	 5.1640
 5.1240	 5.1700
 5.1290	 5.0960
 5.1340	 5.0530
 5.1390	 5.0350
 5.1440	 5.0740
 5.1490	 5.0950
 5.1540	 5.0950
 5.1600	 5.0730
 5.1650	 5.1570
 5.1700	 5.1240
 5.1750	 5.0760
 5.1800	 5.0660
 5.1850	 5.1960
 5.1910	 5.1810
 5.1960	 5.1200
 5.2010	 5.0720
 5.2060	 5.1310
 5.2110	 5.1790
 5.2170	 5.1980
 5.2220	 5.1290
 5.2270	 5.0420
 5.2320	 5.0020
 5.2380	 5.0870
 5.2430	 5.1090
 5.2480	 5.1550
 5.2540	 5.0620
 5.2590	 5.0530
 5.2640	 5.0870
 5.2700	 5.1400
 5.2750	 5.1240
 5.2800	 5.1160
 5.2860	 5.0450
 5.2910	 5.0380
 5.2970	 5.0360
 5.3020	 5.0590
 5.3070	 5.0270
 5.3130	 5.0780
 5.3180	 5.0960
 5.3240	 5.1130
 5.3290	 5.0610
 5.3350	 5.1230
 5.3400	 5.1100
 5.3460	 5.1340
 5.3510	 5.1380
 5.3570	 5.1150
 5.3620	 5.0190
 5.3680	 5.0140
 5.3730	 5.0250
 5.3790	 5.0460
 5.3850	 5.0560
 5.3900	 5.1020
 5.3960	 5.1140
 5.4010	 5.1340
 5.4070	 5.0990
 5.4130	 5.0960
 5.4180	 5.0080
 5.4240	 5.0420
 5.4300	 5.0080
 5.4350	 5.0080
 5.4410	 4.9670
 5.4470	 5.0390
 5.4530	 5.0470
 5.4580	 5.0460
 5.4640	 4.9700
 5.4700	 4.9980
 5.4760	 4.9960
 5.4810	 4.9870
 5.4870	 4.9330
 5.4930	 4.9700
 5.4990	 4.9220
 5.5050	 4.9370
 5.5110	 4.9420
 5.5160	 4.9600
 5.5220	 4.9250
 5.5280	 4.9270
 5.5340	 4.9050
 5.5400	 4.9620
 5.5460	 4.9560
 5.5520	 4.9790
 5.5580	 4.8970
 5.5640	 4.9300
 5.5700	 4.9030
 5.5760	 5.0020
 5.5820	 5.0280
 5.5880	 4.9850
 5.5940	 4.8850
 5.6000	 4.8760
 5.6060	 4.8380
 5.6120	 4.8720
 5.6180	 4.9180
 5.6240	 4.9350
 5.6300	 4.8170
 5.6360	 4.8100
 5.6420	 4.8010
 5.6490	 4.8130
 5.6550	 4.7830
 5.6610	 4.8020
 5.6670	 4.7720
 5.6730	 4.7680
 5.6800	 4.7130
 5.6860	 4.6730
 5.6920	 4.6120
 5.6980	 4.6310
 5.7040	 4.5920
 5.7110	 4.5590
 5.7170	 4.5100
 5.7230	 4.4920
 5.7300	 4.4710
 5.7360	 4.4890
 5.7420	 4.4260
 5.7490	 4.5290
 5.7550	 4.6580
 5.7620	 4.7910
 5.7680	 4.7920
 5.7740	 4.9050
 5.7810	 4.9370
 5.7870	 4.9580
 5.7940	 4.9340
 5.8000	 4.9480
 5.8070	 4.9280
 5.8130	 4.9940
 5.8200	 4.9240
 5.8260	 4.9540
 5.8330	 4.9520
 5.8390	 5.0160
 5.8460	 4.9760
 5.8530	 5.0310
 5.8590	 5.0020
 5.8660	 5.0550
 5.8720	 5.0520
 5.8790	 5.0350
 5.8860	 5.0640
 5.8920	 5.1830
 5.8990	 5.1260
 5.9060	 5.1480
 5.9130	 5.1030
 5.9190	 5.0820
 5.9260	 5.0520
 5.9330	 5.0920
 5.9400	 5.0850
 5.9470	 5.1330
 5.9530	 5.0690
 5.9600	 5.1070
 5.9670	 5.0850
 5.9740	 5.1270
 5.9810	 5.0810
 5.9880	 5.1660
 5.9950	 5.1540
 6.0020	 5.1900
 6.0090	 5.2070
 6.0160	 5.2200
 6.0230	 5.1360
 6.0300	 5.2100
 6.0370	 5.1930
 6.0440	 5.1840
 6.0510	 5.1220
 6.0580	 5.1940
 6.0650	 5.2470
 6.0720	 5.2860
 6.0790	 5.1900
 6.0860	 5.1700
 6.0930	 5.1030
 6.1000	 5.2710
 6.1080	 5.2490
 6.1150	 5.2100
 6.1220	 5.1700
 6.1290	 5.2590
 6.1370	 5.2180
 6.1440	 5.2340
 6.1510	 5.1110
 6.1580	 5.1550
 6.1660	 5.1390
 6.1730	 5.2030
 6.1800	 5.1230
 6.1880	 5.1490
 6.1950	 5.1680
 6.2030	 5.2410
 6.2100	 5.1480
 6.2170	 5.1560
 6.2250	 5.1020
 6.2320	 5.1630
 6.2400	 5.1690
 6.2470	 5.2190
 6.2550	 5.1810
 6.2630	 5.2750
 6.2700	 5.1730
 6.2780	 5.2120
 6.2850	 5.2050
 6.2930	 5.1930
 6.3010	 5.1370
 6.3080	 5.2200
 6.3160	 5.1040
 6.3240	 5.0870
 6.3310	 5.1270
 6.3390	 5.2030
 6.3470	 5.1270
 6.3550	 5.1380
 6.3620	 5.1010
 6.3700	 5.1430
 6.3780	 5.0970
 6.3860	 5.1200
 6.3940	 5.0500
 6.4020	 5.1570
 6.4100	 5.1360
 6.4180	 5.2120
 6.4260	 5.1290
 6.4330	 5.0530
 6.4410	 4.9400
 6.4490	 5.0170
 6.4580	 4.9790
 6.4660	 5.0330
 6.4740	 5.0240
 6.4820	 5.0890
 6.4900	 5.0350
 6.4980	 5.0660
 6.5060	 4.9830
 6.5140	 5.0060
 6.5230	 4.9290
 6.5310	 4.9470
 6.5390	 4.9010
 6.5470	 4.9310
 6.5550	 4.8770
 6.5640	 4.9330
 6.5720	 4.8940
 6.5800	 4.9310
 6.5890	 4.8680
 6.5970	 4.9090
 6.6060	 4.8960
 6.6140	 4.9300
 6.6220	 4.8560
 6.6310	 4.9420
 6.6390	 4.9050
 6.6480	 4.9220
 6.6560	 4.9050
 6.6650	 4.9930
 6.6740	 4.8670
 6.6820	 4.8410
 6.6910	 4.8430
 6.6990	 4.8890
 6.7080	 4.7870
 6.7170	 4.8050
 6.7260	 4.7550
 6.7340	 4.7820
 6.7430	 4.7090
 6.7520	 4.7100
 6.7610	 4.5680
 6.7690	 4.5660
 6.7780	 4.5840
 6.7870	 4.9240
 6.7960	 5.1550
 6.8050	 5.0890
 6.8140	 4.8530
 6.8230	 4.8210
 6.8320	 4.9810
 6.8410	 5.4110
 6.8500	 5.4970
 6.8590	 5.4410
 6.8680	 5.2640
 6.8770	 5.2410
 6.8860	 5.1820
 6.8950	 5.1460
 6.9050	 5.0230
 6.9140	 5.1430
 6.9230	 5.1610
 6.9320	 5.1990
 6.9420	 5.1250
 6.9510	 5.0960
 6.9600	 4.9960
 6.9700	 5.0400
 6.9790	 5.1050
 6.9880	 5.2140
 6.9980	 5.1040
 7.0070	 5.1620
 7.0170	 5.1510
 7.0260	 5.1810
 7.0360	 5.0440
 7.0450	 5.1140
 7.0550	 5.1290
 7.0650	 5.1500
 7.0740	 5.0890
 7.0840	 5.1520
 7.0940	 5.1360
 7.1030	 5.1950
 7.1130	 5.1800
 7.1230	 5.1620
 7.1330	 5.0270
 7.1420	 5.1030
 7.1520	 5.1240
 7.1620	 5.1240
 7.1720	 5.0240
 7.1820	 5.1100
 7.1920	 5.1110
 7.2020	 5.1130
 7.2120	 4.9490
 7.2220	 4.9730
 7.2320	 4.9490
 7.2420	 5.0470
 7.2520	 5.0100
 7.2620	 5.0410
 7.2730	 4.9890
 7.2830	 5.0790
 7.2930	 4.9860
 7.3030	 5.0790
 7.3140	 5.0060
 7.3240	 5.0430
 7.3340	 5.0110
 7.3450	 5.0480
 7.3550	 4.9810
 7.3660	 5.1020
 7.3760	 5.0390
 7.3870	 5.0530
 7.3970	 4.9660
 7.4080	 5.0480
 7.4180	 5.0500
 7.4290	 5.0410
 7.4400	 4.8930
 7.4500	 4.9770
 7.4610	 5.0150
 7.4720	 5.1210
 7.4830	 5.0070
 7.4930	 5.0220
 7.5040	 4.9160
 7.5150	 5.0090
 7.5260	 5.0250
 7.5370	 5.0870
 7.5480	 4.9550
 7.5590	 5.0260
 7.5700	 4.9770
 7.5810	 5.0000
 7.5920	 4.9270
 7.6030	 5.0110
 7.6140	 4.9550
 7.6260	 5.0150
 7.6370	 4.9620
 7.6480	 5.0100
 7.6590	 4.9240
 7.6710	 5.0530
 7.6820	 5.0070
 7.6930	 4.9490
 7.7050	 4.8830
 7.7160	 4.9860
 7.7280	 4.8810
 7.7390	 4.9230
 7.7510	 4.9270
 7.7630	 5.0490
 7.7740	 4.9690
 7.7860	 5.0290
 7.7980	 4.8980
 7.8090	 4.8700
 7.8210	 4.8460
 7.8330	 4.9600
 7.8450	 4.8740
 7.8570	 4.9550
 7.8690	 4.9250
 7.8810	 5.0110
 7.8930	 4.8930
 7.9050	 4.9310
 7.9170	 4.8630
 7.9290	 4.9310
 7.9410	 4.8730
 7.9530	 4.9610
 7.9650	 4.8410
 7.9780	 4.8440
 7.9900	 4.7580
 8.0020	 4.9020
 8.0150	 4.8750
 8.0270	 4.9250
 8.0390	 4.8140
 8.0520	 4.8640
 8.0640	 4.8250
 8.0770	 5.0150
 8.0900	 4.9290
 8.1020	 5.0240
 8.1150	 4.9150
 8.1280	 5.0070
 8.1400	 4.9060
 8.1530	 5.0090
 8.1660	 4.9620
 8.1790	 5.0090
 8.1920	 4.9230
 8.2050	 5.0820
 8.2180	 4.9690
 8.2310	 4.9920
 8.2440	 4.8700
 8.2570	 5.0450
 8.2700	 5.0320
 8.2830	 5.2020
 8.2970	 5.0510
 8.3100	 5.1350
 8.3230	 5.0860
 8.3370	 5.1490
 8.3500	 5.0750
 8.3640	 5.1480
 8.3770	 4.9800
 8.3910	 5.0570
 8.4040	 5.0070
 8.4180	 5.1120
 8.4320	 5.0590
 8.4450	 5.2190
 8.4590	 5.0960
 8.4730	 5.1770
 8.4870	 5.1310
 8.5010	 5.2370
 8.5150	 5.1610
 8.5290	 5.2450
 8.5430	 5.1310
 8.5570	 5.2650
 8.5710	 5.1940
 8.5850	 5.3040
 8.5990	 5.2000
 8.6140	 5.3320
 8.6280	 5.2550
 8.6420	 5.3790
 8.6570	 5.2380
 8.6710	 5.3320
 8.6860	 5.2850
 8.7000	 5.4470
 8.7150	 5.2760
 8.7300	 5.4460
 8.7440	 5.3900
 8.7590	 5.4980
 8.7740	 5.3210
 8.7890	 5.3890
 8.8040	 5.2710
 8.8190	 5.4400
 8.8340	 5.4470
 8.8490	 5.6470
 8.8640	 5.5820
 8.8790	 5.5570
 8.8940	 5.2780
 8.9100	 5.3570
 8.9250	 5.3740
 8.9400	 5.4540
 8.9560	 5.2780
 8.9710	 5.4820
 8.9870	 5.4650
 9.0020	 5.5300
 9.0180	 5.4380
 9.0340	 5.5710
 9.0500	 5.4070
 9.0650	 5.5090
 9.0810	 5.4620
 9.0970	 5.5170
 9.1130	 5.3470
 9.1290	 5.4980
 9.1450	 5.4490
 9.1610	 5.7620
 9.1780	 5.6210
 9.1940	 5.5400
 9.2100	 5.3380
 9.2270	 5.5720
 9.2430	 5.5090
 9.2600	 5.7050
 9.2760	 5.5540
 9.2930	 5.6340
 9.3090	 5.4950
 9.3260	 5.5540
 9.3430	 5.4190
 9.3600	 5.6350
 9.3770	 5.5050
 9.3940	 5.5930
 9.4110	 5.4180
 9.4280	 5.6090
 9.4450	 5.4580
 9.4620	 5.4940
 9.4800	 5.3910
 9.4970	 5.5440
 9.5140	 5.5070
 9.5320	 5.6850
 9.5500	 5.5940
 9.5670	 5.7100
 9.5850	 5.5480
 9.6030	 5.6550
 9.6200	 5.5630
 9.6380	 5.7270
 9.6560	 5.6260
 9.6740	 5.7980
 9.6920	 5.6880
 9.7100	 5.7420
 9.7290	 5.6140
 9.7470	 5.8230
 9.7650	 5.6570
 9.7840	 5.6890
 9.8020	 5.4430
 9.8210	 5.4520
 9.8390	 5.3970
 9.8580	 5.6060
 9.8770	 5.4780
 9.8960	 5.6420
 9.9150	 5.5650
 9.9340	 5.7020
 9.9530	 5.5100
 9.9720	 5.6200
 9.9910	 5.5280
10.0100	 5.6050
10.0300	 5.3830
10.0490	 5.4570
10.0690	 5.3190
10.0880	 5.4500
10.1080	 5.3880
10.1280	 5.5720
10.1480	 5.4040
10.1670	 5.4140
10.1870	 5.2850
10.2070	 5.4920
10.2280	 5.3850
10.2480	 5.4130
10.2680	 5.2490
10.2890	 5.3750
10.3090	 5.2530
10.3300	 5.3220
10.3500	 5.2620
10.3710	 5.4880
10.3920	 5.3920
10.4120	 5.5300
10.4330	 5.4510
10.4540	 5.5640
10.4760	 5.3170
10.4970	 5.3800
10.5180	 5.3110
10.5390	 5.4690
10.5610	 5.3190
10.5820	 5.4970
10.6040	 5.3440
10.6260	 5.3840
10.6480	 5.2980
10.6700	 5.4670
10.6920	 5.1830
10.7140	 5.2650
10.7360	 5.2670
10.7580	 5.4990
10.7800	 5.3570
10.8030	 5.4840
10.8250	 5.3810
10.8480	 5.5110
10.8710	 5.3280
10.8940	 5.4430
10.9170	 5.3160
10.9400	 5.4480
10.9630	 5.2340
10.9860	 5.2870
11.0090	 5.0970
11.0330	 5.1850
11.0560	 5.0260
11.0800	 5.2880
11.1040	 5.6130
11.1270	 5.8220
11.1510	 5.2460
11.1750	 5.3230
11.2000	 5.0990
11.2240	 5.2980
11.2480	 5.1810
11.2730	 5.3780
11.2970	 5.2170
11.3220	 5.3930
11.3470	 5.3270
11.3720	 5.5060
11.3970	 5.2780
11.4220	 5.3190
11.4470	 5.1540
11.4720	 5.3500
11.4980	 5.1820
11.5230	 5.3420
11.5490	 5.0830
11.5750	 5.1780
11.6000	 5.0160
11.6260	 5.2190
11.6530	 5.1400
11.6790	 5.3690
11.7050	 5.2300
11.7320	 5.2910
11.7580	 5.0290
11.7850	 5.1330
11.8120	 4.9730
11.8390	 5.2760
11.8660	 5.1450
11.8930	 5.2930
11.9200	 5.0470
11.9480	 5.1350
11.9760	 4.9080
12.0030	 5.2030
12.0310	 5.1480
12.0590	 5.3620
12.0870	 4.9760
12.1150	 5.0120
12.1440	 5.0520
12.1720	 5.2760
12.2010	 4.9510
12.2300	 5.1470
12.2590	 4.9490
12.2880	 5.0850
12.3170	 4.9580
12.3460	 5.3410
12.3760	 5.1690
12.4050	 5.2430
12.4350	 4.9410
12.4650	 5.1230
12.4950	 4.8180
12.5250	 5.0610
12.5550	 4.9360
12.5860	 5.2220
12.6170	 4.9910
12.6470	 5.1430
12.6780	 4.9150
12.7090	 5.0500
12.7410	 4.8250
12.7720	 5.1040
12.8030	 4.9320
12.8350	 5.0520
12.8670	 4.8980
12.8990	 5.1600
12.9310	 4.9370
12.9640	 5.0440
12.9960	 4.7470
13.0290	 4.9860
13.0610	 5.0070
13.0940	 5.3620
13.1280	 5.0280
13.1610	 5.1500
13.1940	 4.9330
13.2280	 5.1950
13.2620	 4.8930
13.2960	 5.0380
13.3300	 4.7120
13.3640	 4.9150
13.3990	 4.8520
13.4340	 5.2450
13.4690	 4.8750
13.5040	 4.9420
13.5390	 4.6370
13.5740	 4.9870
13.6100	 4.8000
13.6460	 5.0140
13.6820	 4.8500
13.7180	 5.3630
13.7540	 5.1260
13.7910	 5.2260
13.8280	 4.7450
13.8650	 4.9010
13.9020	 5.0630
13.9390	 5.8140
13.9770	 5.4230
14.0150	 5.5960
14.0530	 5.3210
14.0910	 5.5630
14.1290	 5.0860
14.1680	 5.3230
14.2070	 5.0010
14.2460	 5.2790
14.2850	 4.9460
14.3240	 5.3940
14.3640	 5.3020
14.4040	 5.6690
14.4440	 4.9910
14.4840	 5.4860
14.5250	 5.0430
14.5660	 5.3230
14.6070	 4.8830
14.6480	 5.5220
14.6900	 5.1420
14.7310	 5.5340
14.7730	 5.0230
14.8150	 5.5270
14.8580	 5.1170
14.9010	 5.5560
14.9440	 4.6880
14.9870	 5.6400
15.0300	 5.0560
15.0740	 5.3310
15.1180	 4.8370
15.1620	 5.5450
15.2060	 5.1600
15.2510	 5.6610
15.2960	 5.0860
15.3410	 5.7470
15.3870	 4.8670
