Name: Ceanothus spinosus 3
Type: vegetation
Class: Shrub
Genus: Ceanothus
Species: spinosus
Sample No.: VH204
Owner: UCSB
Wavelength Range: TIR
Origin: 34.4906; -119.7908; WGS84
Collection Date: 10/13/2013
Description: Samples were collected as part of the HyspIRI Airborne Campaign. 48 individual plants were sampled in three times in 2013 - spring  summer  and fall. The name of the sample includes a 1  2  or 3 which references a different individual of the species. Samples were taken to JPL and processed within 48 hours of collection. The same leaves were processed in the Nicolet and then measured using the ASD.
Measurement: Hemispherical reflectance
First Column: X
Second Column: Y
X Units: Wavelength (micrometers)
Y Units: Reflectance (percentage)
First X Value: 2.501
Last X Value: 15.387
Number of X Values: 1737
Additional Information: vegetation.shrub.ceanothus.spinosus.tir.vh204.ucsb.nicolet.ancillary.txt

 2.5010	10.4960
 2.5030	10.3950
 2.5040	10.3070
 2.5050	10.5440
 2.5060	10.6890
 2.5070	10.6020
 2.5090	10.5880
 2.5100	10.2480
 2.5110	10.1670
 2.5120	10.2020
 2.5140	10.1300
 2.5150	10.0840
 2.5160	10.0050
 2.5170	10.0400
 2.5180	10.3010
 2.5200	10.2550
 2.5210	10.2350
 2.5220	10.2900
 2.5230	10.3490
 2.5250	10.2850
 2.5260	10.1750
 2.5270	10.1850
 2.5280	10.1510
 2.5290	10.1580
 2.5310	10.1560
 2.5320	10.0600
 2.5330	10.1180
 2.5340	10.2280
 2.5360	10.2730
 2.5370	10.0410
 2.5380	 9.9380
 2.5390	 9.9230
 2.5410	10.0060
 2.5420	10.1620
 2.5430	10.2770
 2.5440	10.1720
 2.5460	10.0140
 2.5470	 9.9540
 2.5480	10.0960
 2.5490	10.2730
 2.5510	10.4750
 2.5520	10.3620
 2.5530	10.2150
 2.5540	10.1720
 2.5560	10.2260
 2.5570	10.1410
 2.5580	10.1810
 2.5590	10.2140
 2.5610	10.2860
 2.5620	10.3250
 2.5630	10.3050
 2.5640	10.2640
 2.5660	10.1510
 2.5670	10.0800
 2.5680	10.1970
 2.5700	10.0970
 2.5710	10.0910
 2.5720	10.0940
 2.5730	10.0960
 2.5750	10.3100
 2.5760	10.5280
 2.5770	10.2350
 2.5790	 9.9980
 2.5800	10.0470
 2.5810	10.2160
 2.5820	10.1760
 2.5840	10.1270
 2.5850	10.0510
 2.5860	 9.9550
 2.5880	 9.8300
 2.5890	 9.8880
 2.5900	 9.6940
 2.5910	 9.8170
 2.5930	10.0230
 2.5940	 9.9870
 2.5950	 9.9220
 2.5970	 9.9640
 2.5980	 9.7650
 2.5990	 9.7330
 2.6000	 9.6510
 2.6020	 9.5600
 2.6030	 9.5180
 2.6040	 9.5180
 2.6060	 9.5480
 2.6070	 9.6060
 2.6080	 9.5370
 2.6100	 9.5960
 2.6110	 9.6590
 2.6120	 9.6240
 2.6140	 9.5650
 2.6150	 9.4510
 2.6160	 9.2080
 2.6180	 9.1170
 2.6190	 9.1590
 2.6200	 9.2940
 2.6220	 9.2370
 2.6230	 9.2680
 2.6240	 9.1580
 2.6260	 8.9440
 2.6270	 8.7670
 2.6280	 8.7110
 2.6300	 8.7860
 2.6310	 8.9250
 2.6320	 8.9120
 2.6340	 8.7120
 2.6350	 8.6650
 2.6360	 8.8380
 2.6380	 8.6960
 2.6390	 8.5110
 2.6400	 8.4470
 2.6420	 8.5180
 2.6430	 8.3350
 2.6440	 8.2560
 2.6460	 8.2800
 2.6470	 8.2620
 2.6480	 8.1380
 2.6500	 8.1790
 2.6510	 8.1820
 2.6520	 8.0560
 2.6540	 7.8590
 2.6550	 7.6980
 2.6560	 7.5240
 2.6580	 7.7230
 2.6590	 7.7830
 2.6610	 7.8620
 2.6620	 7.8570
 2.6630	 7.6200
 2.6650	 7.3160
 2.6660	 7.3050
 2.6670	 7.2990
 2.6690	 7.2180
 2.6700	 7.0520
 2.6720	 7.0280
 2.6730	 6.9080
 2.6740	 6.7710
 2.6760	 6.5600
 2.6770	 6.5360
 2.6780	 6.5000
 2.6800	 6.7310
 2.6810	 6.7720
 2.6830	 6.5290
 2.6840	 6.3960
 2.6850	 6.4600
 2.6870	 6.1820
 2.6880	 5.9140
 2.6900	 5.8110
 2.6910	 5.9650
 2.6920	 5.8340
 2.6940	 5.5720
 2.6950	 5.4960
 2.6970	 5.5490
 2.6980	 5.4610
 2.6990	 5.3510
 2.7010	 5.3640
 2.7020	 5.3280
 2.7040	 4.9550
 2.7050	 4.9290
 2.7060	 5.0540
 2.7080	 5.1310
 2.7090	 5.1990
 2.7110	 4.9970
 2.7120	 4.6960
 2.7130	 4.8170
 2.7150	 4.9300
 2.7160	 4.8700
 2.7180	 4.6150
 2.7190	 4.6670
 2.7210	 4.8050
 2.7220	 4.8810
 2.7230	 4.6360
 2.7250	 4.6710
 2.7260	 4.8000
 2.7280	 4.7100
 2.7290	 4.5860
 2.7310	 4.6290
 2.7320	 4.5720
 2.7330	 4.6730
 2.7350	 4.6480
 2.7360	 4.6680
 2.7380	 4.4400
 2.7390	 4.5430
 2.7410	 4.5590
 2.7420	 4.1880
 2.7440	 3.9740
 2.7450	 4.8430
 2.7470	 5.0830
 2.7480	 4.4990
 2.7490	 4.7170
 2.7510	 5.5690
 2.7520	 5.1340
 2.7540	 4.1930
 2.7550	 4.5980
 2.7570	 4.6410
 2.7580	 4.5520
 2.7600	 4.7340
 2.7610	 4.7330
 2.7630	 4.6590
 2.7640	 4.7600
 2.7660	 4.4120
 2.7670	 3.9540
 2.7680	 4.2430
 2.7700	 4.3000
 2.7710	 4.3020
 2.7730	 4.1890
 2.7740	 4.3100
 2.7760	 4.6090
 2.7770	 4.6950
 2.7790	 4.7880
 2.7800	 4.8640
 2.7820	 4.3290
 2.7830	 4.4380
 2.7850	 4.4970
 2.7860	 4.3340
 2.7880	 4.7110
 2.7890	 4.9590
 2.7910	 4.7530
 2.7920	 4.7560
 2.7940	 4.7730
 2.7950	 4.6910
 2.7970	 4.4560
 2.7980	 4.3890
 2.8000	 4.5380
 2.8010	 4.8220
 2.8030	 4.9020
 2.8040	 4.9140
 2.8060	 4.6900
 2.8070	 4.7220
 2.8090	 4.8590
 2.8110	 4.9970
 2.8120	 4.8250
 2.8140	 4.6110
 2.8150	 4.5310
 2.8170	 4.6880
 2.8180	 4.6880
 2.8200	 4.8220
 2.8210	 4.6640
 2.8230	 4.6910
 2.8240	 4.7450
 2.8260	 4.6160
 2.8270	 4.3510
 2.8290	 4.3590
 2.8300	 4.5850
 2.8320	 4.6620
 2.8340	 4.4260
 2.8350	 4.5270
 2.8370	 4.7520
 2.8380	 4.8930
 2.8400	 4.8680
 2.8410	 4.7920
 2.8430	 4.8890
 2.8440	 4.8780
 2.8460	 4.7460
 2.8480	 4.7930
 2.8490	 4.7790
 2.8510	 4.7460
 2.8520	 4.7700
 2.8540	 4.9180
 2.8550	 4.9640
 2.8570	 5.0060
 2.8590	 4.9530
 2.8600	 4.9000
 2.8620	 4.6620
 2.8630	 4.7640
 2.8650	 5.0590
 2.8660	 5.2040
 2.8680	 5.1360
 2.8700	 5.2250
 2.8710	 5.0060
 2.8730	 4.8320
 2.8740	 4.9220
 2.8760	 5.0120
 2.8780	 5.2230
 2.8790	 5.2980
 2.8810	 4.6700
 2.8820	 5.0200
 2.8840	 5.2990
 2.8860	 4.8730
 2.8870	 5.0540
 2.8890	 5.3720
 2.8900	 5.3270
 2.8920	 4.8410
 2.8940	 4.5880
 2.8950	 4.8200
 2.8970	 4.7010
 2.8980	 4.6520
 2.9000	 4.7330
 2.9020	 4.8570
 2.9030	 4.7090
 2.9050	 5.1610
 2.9070	 5.1590
 2.9080	 5.0530
 2.9100	 5.2310
 2.9120	 5.1090
 2.9130	 4.9930
 2.9150	 4.9990
 2.9160	 4.8870
 2.9180	 4.9720
 2.9200	 4.9680
 2.9210	 4.9220
 2.9230	 4.8700
 2.9250	 4.7210
 2.9260	 4.6250
 2.9280	 4.6740
 2.9300	 4.5760
 2.9310	 4.5160
 2.9330	 4.6940
 2.9350	 4.9950
 2.9360	 5.1120
 2.9380	 5.0750
 2.9400	 5.0220
 2.9410	 5.0540
 2.9430	 4.4190
 2.9450	 4.0030
 2.9460	 3.9390
 2.9480	 4.1760
 2.9500	 4.9720
 2.9510	 5.2260
 2.9530	 4.7750
 2.9550	 4.6720
 2.9560	 4.9820
 2.9580	 4.6900
 2.9600	 4.1920
 2.9610	 4.2080
 2.9630	 4.0810
 2.9650	 4.0410
 2.9660	 3.2320
 2.9680	 2.1800
 2.9700	 2.9860
 2.9720	 5.8670
 2.9730	 7.7210
 2.9750	 6.1310
 2.9770	 3.6330
 2.9780	 1.9090
 2.9800	 2.2070
 2.9820	 3.4970
 2.9840	 4.4500
 2.9850	 5.4040
 2.9870	 5.0370
 2.9890	 3.8310
 2.9900	 1.6280
 2.9920	 0.8600
 2.9940	 2.8810
 2.9960	 4.4530
 2.9970	 4.9340
 2.9990	 5.6870
 3.0010	 4.6550
 3.0030	 4.0130
 3.0040	 4.1350
 3.0060	 4.1500
 3.0080	 3.7630
 3.0100	 3.2700
 3.0110	 4.4000
 3.0130	 6.1380
 3.0150	 5.1940
 3.0170	 4.6410
 3.0180	 4.1060
 3.0200	 3.7710
 3.0220	 4.0680
 3.0240	 3.9700
 3.0250	 4.0070
 3.0270	 5.0360
 3.0290	 4.5310
 3.0310	 3.3290
 3.0320	 3.3460
 3.0340	 3.7500
 3.0360	 4.8990
 3.0380	 4.9980
 3.0400	 6.0410
 3.0410	 5.8860
 3.0430	 4.5860
 3.0450	 4.6880
 3.0470	 3.5710
 3.0480	 2.6410
 3.0500	 2.0510
 3.0520	 2.7490
 3.0540	 4.0300
 3.0560	 4.9290
 3.0570	 4.2340
 3.0590	 4.1730
 3.0610	 4.1990
 3.0630	 4.3000
 3.0650	 4.6940
 3.0660	 4.7060
 3.0680	 4.2010
 3.0700	 5.0490
 3.0720	 5.0350
 3.0740	 4.4370
 3.0760	 3.7790
 3.0770	 4.0440
 3.0790	 4.8780
 3.0810	 4.9880
 3.0830	 4.7020
 3.0850	 4.6070
 3.0870	 4.5390
 3.0880	 5.0040
 3.0900	 4.7930
 3.0920	 4.4800
 3.0940	 4.2900
 3.0960	 4.3490
 3.0980	 4.4320
 3.0990	 4.5840
 3.1010	 4.2890
 3.1030	 4.5900
 3.1050	 4.9990
 3.1070	 4.7360
 3.1090	 4.0840
 3.1110	 4.1810
 3.1120	 4.6700
 3.1140	 4.3780
 3.1160	 3.6570
 3.1180	 3.9280
 3.1200	 4.4660
 3.1220	 4.6160
 3.1240	 4.1250
 3.1260	 4.0680
 3.1270	 4.0190
 3.1290	 4.4820
 3.1310	 4.4670
 3.1330	 4.4540
 3.1350	 4.8250
 3.1370	 4.2890
 3.1390	 4.0210
 3.1410	 4.6530
 3.1430	 4.6530
 3.1450	 3.3220
 3.1460	 1.3280
 3.1480	 2.3920
 3.1500	 4.3640
 3.1520	 2.4890
 3.1540	 1.5640
 3.1560	 3.3090
 3.1580	 2.5020
 3.1600	 3.3930
 3.1620	 7.2090
 3.1640	 6.7290
 3.1660	 3.8200
 3.1680	 5.6330
 3.1700	 5.8930
 3.1710	 4.8750
 3.1730	 4.0040
 3.1750	 3.8960
 3.1770	 7.3910
 3.1790	 9.0110
 3.1810	 5.2540
 3.1830	 4.6050
 3.1850	 5.9230
 3.1870	 4.5430
 3.1890	 3.6780
 3.1910	 4.6900
 3.1930	 5.2160
 3.1950	 4.2950
 3.1970	 4.1110
 3.1990	 4.1880
 3.2010	 4.2240
 3.2030	 4.3120
 3.2050	 4.3050
 3.2070	 4.2250
 3.2090	 4.1910
 3.2110	 4.2150
 3.2130	 4.5410
 3.2150	 4.7730
 3.2170	 4.3500
 3.2190	 3.9630
 3.2210	 3.9410
 3.2230	 4.2160
 3.2250	 4.3070
 3.2270	 4.2080
 3.2290	 4.0480
 3.2310	 4.0220
 3.2330	 4.1670
 3.2350	 4.2520
 3.2370	 4.0890
 3.2390	 4.1850
 3.2410	 4.3000
 3.2430	 3.8870
 3.2450	 3.7280
 3.2470	 4.1580
 3.2490	 4.4040
 3.2510	 4.2860
 3.2530	 4.3500
 3.2550	 4.1500
 3.2570	 3.6260
 3.2590	 3.8750
 3.2610	 4.4800
 3.2630	 4.6140
 3.2650	 4.4460
 3.2670	 4.1800
 3.2690	 3.8410
 3.2720	 3.9180
 3.2740	 4.0420
 3.2760	 3.8810
 3.2780	 3.7560
 3.2800	 3.8550
 3.2820	 3.8490
 3.2840	 3.7240
 3.2860	 3.6530
 3.2880	 4.0850
 3.2900	 4.3380
 3.2920	 4.2950
 3.2940	 4.3550
 3.2960	 4.3160
 3.2990	 4.0300
 3.3010	 3.6820
 3.3030	 3.6520
 3.3050	 3.4800
 3.3070	 3.5440
 3.3090	 3.8290
 3.3110	 4.0790
 3.3130	 4.3320
 3.3150	 3.9360
 3.3180	 3.4200
 3.3200	 3.6240
 3.3220	 4.0480
 3.3240	 4.0720
 3.3260	 3.9960
 3.3280	 3.5980
 3.3300	 3.3940
 3.3330	 3.5750
 3.3350	 3.9290
 3.3370	 4.0480
 3.3390	 4.0390
 3.3410	 3.9890
 3.3430	 3.7530
 3.3450	 3.6530
 3.3480	 3.7910
 3.3500	 3.8770
 3.3520	 4.1400
 3.3540	 4.0550
 3.3560	 3.7550
 3.3580	 3.6160
 3.3610	 3.5060
 3.3630	 3.4650
 3.3650	 3.6430
 3.3670	 3.6660
 3.3690	 3.6280
 3.3720	 3.5810
 3.3740	 3.6610
 3.3760	 3.6400
 3.3780	 3.6120
 3.3800	 3.6700
 3.3830	 3.7220
 3.3850	 3.7230
 3.3870	 3.8040
 3.3890	 3.7850
 3.3910	 3.5080
 3.3940	 3.2890
 3.3960	 3.6440
 3.3980	 3.6850
 3.4000	 3.5300
 3.4020	 3.4770
 3.4050	 3.5880
 3.4070	 3.7810
 3.4090	 4.0820
 3.4110	 4.3060
 3.4140	 4.5370
 3.4160	 4.7400
 3.4180	 5.0900
 3.4200	 5.2970
 3.4230	 5.7840
 3.4250	 6.5210
 3.4270	 7.3370
 3.4290	 7.5070
 3.4320	 7.1760
 3.4340	 6.7330
 3.4360	 6.3360
 3.4390	 5.8450
 3.4410	 5.6050
 3.4430	 5.4760
 3.4450	 5.0980
 3.4480	 4.4990
 3.4500	 5.1100
 3.4520	 5.6190
 3.4550	 5.1060
 3.4570	 5.1100
 3.4590	 5.1410
 3.4620	 5.0400
 3.4640	 5.0290
 3.4660	 4.8890
 3.4680	 4.8990
 3.4710	 5.0050
 3.4730	 4.8780
 3.4750	 4.7610
 3.4780	 4.6970
 3.4800	 4.6300
 3.4820	 4.6290
 3.4850	 4.5670
 3.4870	 4.4520
 3.4890	 4.4210
 3.4920	 4.5860
 3.4940	 4.6250
 3.4970	 4.6530
 3.4990	 4.7320
 3.5010	 4.7250
 3.5040	 5.0040
 3.5060	 5.6510
 3.5080	 6.3810
 3.5110	 6.7580
 3.5130	 6.5230
 3.5160	 6.1390
 3.5180	 6.0040
 3.5200	 5.8660
 3.5230	 5.7640
 3.5250	 5.7720
 3.5270	 5.5730
 3.5300	 5.4380
 3.5320	 5.4920
 3.5350	 5.5580
 3.5370	 5.4650
 3.5400	 5.4420
 3.5420	 5.3790
 3.5440	 5.2780
 3.5470	 5.1910
 3.5490	 5.1820
 3.5520	 5.3080
 3.5540	 5.4120
 3.5570	 5.3660
 3.5590	 5.2430
 3.5610	 5.1860
 3.5640	 5.2290
 3.5660	 5.2810
 3.5690	 5.1920
 3.5710	 5.0010
 3.5740	 5.0260
 3.5760	 5.1600
 3.5790	 5.1520
 3.5810	 4.9490
 3.5840	 5.0700
 3.5860	 5.3320
 3.5890	 5.5160
 3.5910	 5.4220
 3.5930	 5.3430
 3.5960	 5.1000
 3.5980	 4.7900
 3.6010	 4.9650
 3.6030	 5.0870
 3.6060	 5.0970
 3.6080	 5.4630
 3.6110	 5.5600
 3.6140	 5.3610
 3.6160	 5.3630
 3.6190	 5.3830
 3.6210	 5.2190
 3.6240	 5.1390
 3.6260	 5.1040
 3.6290	 5.2130
 3.6310	 5.2000
 3.6340	 5.0810
 3.6360	 5.0020
 3.6390	 5.1440
 3.6410	 5.2410
 3.6440	 5.1790
 3.6470	 5.1320
 3.6490	 5.1630
 3.6520	 5.2260
 3.6540	 5.1130
 3.6570	 5.1320
 3.6590	 5.1300
 3.6620	 5.1350
 3.6650	 5.1790
 3.6670	 5.2270
 3.6700	 5.2380
 3.6720	 5.2890
 3.6750	 5.4310
 3.6780	 5.3630
 3.6800	 5.2040
 3.6830	 5.2080
 3.6850	 5.4410
 3.6880	 5.4170
 3.6910	 5.3120
 3.6930	 5.2630
 3.6960	 5.3220
 3.6990	 5.3890
 3.7010	 5.3490
 3.7040	 5.3540
 3.7060	 5.4960
 3.7090	 5.4380
 3.7120	 5.3250
 3.7140	 5.2800
 3.7170	 5.3500
 3.7200	 5.4120
 3.7220	 5.4140
 3.7250	 5.3700
 3.7280	 5.4900
 3.7300	 5.6240
 3.7330	 5.4550
 3.7360	 5.3780
 3.7390	 5.4650
 3.7410	 5.5350
 3.7440	 5.6350
 3.7470	 5.4880
 3.7490	 5.5080
 3.7520	 5.5820
 3.7550	 5.5060
 3.7580	 5.5660
 3.7600	 5.7470
 3.7630	 5.8320
 3.7660	 5.8230
 3.7680	 5.7800
 3.7710	 5.8530
 3.7740	 5.8200
 3.7770	 5.6140
 3.7790	 5.5700
 3.7820	 5.7460
 3.7850	 5.8280
 3.7880	 5.7910
 3.7900	 5.7780
 3.7930	 5.7850
 3.7960	 5.7470
 3.7990	 5.6420
 3.8020	 5.7150
 3.8040	 5.9510
 3.8070	 5.9310
 3.8100	 5.8210
 3.8130	 5.8130
 3.8160	 5.7590
 3.8180	 5.7390
 3.8210	 5.7710
 3.8240	 5.9250
 3.8270	 5.9150
 3.8300	 5.9240
 3.8330	 6.0220
 3.8350	 6.1520
 3.8380	 6.0920
 3.8410	 5.9670
 3.8440	 6.1730
 3.8470	 6.1450
 3.8500	 5.9450
 3.8520	 5.7370
 3.8550	 5.8380
 3.8580	 6.0740
 3.8610	 6.2110
 3.8640	 6.1410
 3.8670	 6.1150
 3.8700	 6.0550
 3.8730	 6.0520
 3.8750	 6.0450
 3.8780	 6.0810
 3.8810	 6.0860
 3.8840	 6.1330
 3.8870	 6.2230
 3.8900	 6.1630
 3.8930	 5.9410
 3.8960	 5.8860
 3.8990	 6.0720
 3.9020	 6.2690
 3.9050	 6.2900
 3.9080	 6.2600
 3.9110	 6.3780
 3.9140	 6.4320
 3.9160	 6.3210
 3.9190	 6.3660
 3.9220	 6.4120
 3.9250	 6.3270
 3.9280	 6.3770
 3.9310	 6.4190
 3.9340	 6.3490
 3.9370	 6.2760
 3.9400	 6.3700
 3.9430	 6.4060
 3.9460	 6.2880
 3.9490	 6.3100
 3.9520	 6.4600
 3.9550	 6.5770
 3.9580	 6.5800
 3.9610	 6.5830
 3.9640	 6.5150
 3.9670	 6.5860
 3.9700	 6.5450
 3.9730	 6.4610
 3.9770	 6.4780
 3.9800	 6.4970
 3.9830	 6.5490
 3.9860	 6.6490
 3.9890	 6.5280
 3.9920	 6.4870
 3.9950	 6.5200
 3.9980	 6.5280
 4.0010	 6.4820
 4.0040	 6.4260
 4.0070	 6.4730
 4.0100	 6.5810
 4.0130	 6.6150
 4.0170	 6.6210
 4.0200	 6.7300
 4.0230	 6.7780
 4.0260	 6.6060
 4.0290	 6.4510
 4.0320	 6.5430
 4.0350	 6.7310
 4.0380	 6.6900
 4.0420	 6.5480
 4.0450	 6.5380
 4.0480	 6.6020
 4.0510	 6.6060
 4.0540	 6.6250
 4.0570	 6.6410
 4.0610	 6.7480
 4.0640	 6.9230
 4.0670	 6.8350
 4.0700	 6.6980
 4.0730	 6.6350
 4.0770	 6.6570
 4.0800	 6.7960
 4.0830	 6.6940
 4.0860	 6.5840
 4.0890	 6.7970
 4.0930	 6.8190
 4.0960	 6.6380
 4.0990	 6.6790
 4.1020	 6.5660
 4.1060	 6.4550
 4.1090	 6.3500
 4.1120	 6.4210
 4.1150	 6.7440
 4.1190	 6.7680
 4.1220	 6.6430
 4.1250	 6.7120
 4.1280	 6.6970
 4.1320	 6.6830
 4.1350	 6.7000
 4.1380	 6.6980
 4.1420	 6.6480
 4.1450	 6.5520
 4.1480	 6.5500
 4.1520	 6.5810
 4.1550	 6.6090
 4.1580	 6.6270
 4.1620	 6.6400
 4.1650	 6.6880
 4.1680	 6.7230
 4.1720	 6.7170
 4.1750	 6.6580
 4.1780	 6.6090
 4.1820	 6.6410
 4.1850	 6.7000
 4.1890	 6.7130
 4.1920	 6.6750
 4.1950	 6.6590
 4.1990	 6.6950
 4.2020	 6.6570
 4.2060	 6.7310
 4.2090	 6.7710
 4.2120	 6.6810
 4.2160	 6.6710
 4.2190	 6.6790
 4.2230	 6.5190
 4.2260	 6.6680
 4.2300	 6.8550
 4.2330	 6.6210
 4.2360	 6.1850
 4.2400	 6.0620
 4.2430	 6.2580
 4.2470	 6.4220
 4.2500	 6.5510
 4.2540	 6.5250
 4.2570	 6.4610
 4.2610	 6.5790
 4.2640	 6.5640
 4.2680	 6.3680
 4.2710	 6.3150
 4.2750	 6.3060
 4.2780	 6.2230
 4.2820	 6.1690
 4.2850	 6.2750
 4.2890	 6.4270
 4.2930	 6.2770
 4.2960	 6.3450
 4.3000	 6.3510
 4.3030	 6.0980
 4.3070	 6.0600
 4.3100	 6.1710
 4.3140	 6.1440
 4.3180	 6.2160
 4.3210	 6.2400
 4.3250	 6.1750
 4.3280	 6.2250
 4.3320	 6.3120
 4.3360	 6.1960
 4.3390	 6.1440
 4.3430	 6.2460
 4.3470	 6.2130
 4.3500	 6.0860
 4.3540	 6.0450
 4.3570	 6.0990
 4.3610	 6.1690
 4.3650	 6.2270
 4.3680	 6.1830
 4.3720	 6.1380
 4.3760	 6.1090
 4.3800	 6.0840
 4.3830	 6.1350
 4.3870	 6.0930
 4.3910	 6.0040
 4.3940	 5.9990
 4.3980	 5.9650
 4.4020	 5.9760
 4.4060	 5.9380
 4.4090	 5.8510
 4.4130	 5.8610
 4.4170	 5.9000
 4.4210	 5.8270
 4.4240	 5.8560
 4.4280	 5.8660
 4.4320	 5.8700
 4.4360	 5.8180
 4.4400	 5.7840
 4.4430	 5.8030
 4.4470	 5.8460
 4.4510	 5.8500
 4.4550	 5.8770
 4.4590	 5.8790
 4.4620	 5.8200
 4.4660	 5.8080
 4.4700	 5.7790
 4.4740	 5.7340
 4.4780	 5.6660
 4.4820	 5.6370
 4.4860	 5.7080
 4.4900	 5.7250
 4.4930	 5.6410
 4.4970	 5.5190
 4.5010	 5.5870
 4.5050	 5.6720
 4.5090	 5.5950
 4.5130	 5.5780
 4.5170	 5.6120
 4.5210	 5.5920
 4.5250	 5.5640
 4.5290	 5.4980
 4.5330	 5.5260
 4.5370	 5.5510
 4.5410	 5.6010
 4.5450	 5.6130
 4.5490	 5.5650
 4.5530	 5.5630
 4.5570	 5.6190
 4.5610	 5.5890
 4.5650	 5.4190
 4.5690	 5.3240
 4.5730	 5.4270
 4.5770	 5.5040
 4.5810	 5.6130
 4.5850	 5.6300
 4.5890	 5.5900
 4.5930	 5.5500
 4.5970	 5.5100
 4.6010	 5.4460
 4.6050	 5.4310
 4.6090	 5.3970
 4.6130	 5.2670
 4.6170	 5.4590
 4.6220	 5.4670
 4.6260	 5.5130
 4.6300	 5.5120
 4.6340	 5.2010
 4.6380	 5.1040
 4.6420	 5.3870
 4.6460	 5.3270
 4.6510	 5.2680
 4.6550	 5.3650
 4.6590	 5.3030
 4.6630	 5.3520
 4.6670	 5.3660
 4.6720	 5.3390
 4.6760	 5.3200
 4.6800	 5.3370
 4.6840	 5.3690
 4.6880	 5.4380
 4.6930	 5.4230
 4.6970	 5.4260
 4.7010	 5.4040
 4.7050	 5.3110
 4.7100	 5.3160
 4.7140	 5.3050
 4.7180	 5.2760
 4.7230	 5.2650
 4.7270	 5.2690
 4.7310	 5.3350
 4.7360	 5.3760
 4.7400	 5.3560
 4.7440	 5.2950
 4.7490	 5.2550
 4.7530	 5.2770
 4.7570	 5.2240
 4.7620	 5.1860
 4.7660	 5.2240
 4.7700	 5.1440
 4.7750	 5.3300
 4.7790	 5.4340
 4.7840	 5.5690
 4.7880	 5.5410
 4.7920	 5.3570
 4.7970	 5.3250
 4.8010	 5.2810
 4.8060	 5.3550
 4.8100	 5.4020
 4.8150	 5.4240
 4.8190	 5.4740
 4.8240	 5.4660
 4.8280	 5.3020
 4.8330	 5.1780
 4.8370	 5.1990
 4.8420	 5.3240
 4.8460	 5.4600
 4.8510	 5.4320
 4.8550	 5.3800
 4.8600	 5.3340
 4.8640	 5.3310
 4.8690	 5.4130
 4.8730	 5.4670
 4.8780	 5.4300
 4.8830	 5.4350
 4.8870	 5.5050
 4.8920	 5.5500
 4.8960	 5.4660
 4.9010	 5.4690
 4.9060	 5.5050
 4.9100	 5.4890
 4.9150	 5.4200
 4.9200	 5.3940
 4.9240	 5.3940
 4.9290	 5.4270
 4.9340	 5.4300
 4.9380	 5.4500
 4.9430	 5.5460
 4.9480	 5.6140
 4.9530	 5.5510
 4.9570	 5.5170
 4.9620	 5.5480
 4.9670	 5.5690
 4.9720	 5.5000
 4.9760	 5.4710
 4.9810	 5.5240
 4.9860	 5.5680
 4.9910	 5.4970
 4.9960	 5.5160
 5.0000	 5.5510
 5.0050	 5.6350
 5.0100	 5.7500
 5.0150	 5.7100
 5.0200	 5.6780
 5.0250	 5.7380
 5.0290	 5.6960
 5.0340	 5.6590
 5.0390	 5.6480
 5.0440	 5.7120
 5.0490	 5.7430
 5.0540	 5.7350
 5.0590	 5.6860
 5.0640	 5.6990
 5.0690	 5.7190
 5.0740	 5.8060
 5.0790	 5.8480
 5.0840	 5.8460
 5.0890	 5.8000
 5.0940	 5.8350
 5.0990	 5.8440
 5.1040	 5.8400
 5.1090	 5.8090
 5.1140	 5.7860
 5.1190	 5.8420
 5.1240	 5.8300
 5.1290	 5.8070
 5.1340	 5.8640
 5.1390	 5.9210
 5.1440	 5.9350
 5.1490	 5.9230
 5.1540	 6.0410
 5.1600	 5.9910
 5.1650	 5.9520
 5.1700	 5.9930
 5.1750	 5.9680
 5.1800	 5.8200
 5.1850	 5.7220
 5.1910	 5.7520
 5.1960	 5.9060
 5.2010	 5.9280
 5.2060	 5.9140
 5.2110	 5.9120
 5.2170	 5.8840
 5.2220	 5.8590
 5.2270	 5.9280
 5.2320	 5.9550
 5.2380	 5.9770
 5.2430	 5.9630
 5.2480	 5.9940
 5.2540	 6.0190
 5.2590	 6.0790
 5.2640	 6.0250
 5.2700	 5.9630
 5.2750	 5.9180
 5.2800	 5.8600
 5.2860	 5.7990
 5.2910	 5.7970
 5.2970	 5.7490
 5.3020	 5.7790
 5.3070	 5.8550
 5.3130	 5.8950
 5.3180	 5.9050
 5.3240	 5.9510
 5.3290	 5.9430
 5.3350	 5.9530
 5.3400	 5.8570
 5.3460	 5.8340
 5.3510	 5.8300
 5.3570	 5.8860
 5.3620	 5.8560
 5.3680	 5.7970
 5.3730	 5.7470
 5.3790	 5.7350
 5.3850	 5.6790
 5.3900	 5.6900
 5.3960	 5.6450
 5.4010	 5.6740
 5.4070	 5.7060
 5.4130	 5.7750
 5.4180	 5.7600
 5.4240	 5.7840
 5.4300	 5.7620
 5.4350	 5.7040
 5.4410	 5.6550
 5.4470	 5.6530
 5.4530	 5.4570
 5.4580	 5.3990
 5.4640	 5.4150
 5.4700	 5.4340
 5.4760	 5.4110
 5.4810	 5.3890
 5.4870	 5.4030
 5.4930	 5.4410
 5.4990	 5.4080
 5.5050	 5.3320
 5.5110	 5.2560
 5.5160	 5.2670
 5.5220	 5.1980
 5.5280	 5.1510
 5.5340	 5.0940
 5.5400	 5.1360
 5.5460	 5.1500
 5.5520	 5.1490
 5.5580	 5.0170
 5.5640	 5.0110
 5.5700	 4.9150
 5.5760	 4.8210
 5.5820	 4.8260
 5.5880	 4.8240
 5.5940	 4.7080
 5.6000	 4.7000
 5.6060	 4.6610
 5.6120	 4.6370
 5.6180	 4.5260
 5.6240	 4.4250
 5.6300	 4.4390
 5.6360	 4.4580
 5.6420	 4.2900
 5.6490	 4.2400
 5.6550	 4.1130
 5.6610	 4.0530
 5.6670	 4.0600
 5.6730	 4.0020
 5.6800	 3.9640
 5.6860	 3.9320
 5.6920	 3.7600
 5.6980	 3.6800
 5.7040	 3.5680
 5.7110	 3.3970
 5.7170	 3.3200
 5.7230	 3.3690
 5.7300	 3.2570
 5.7360	 3.2430
 5.7420	 3.3530
 5.7490	 3.5470
 5.7550	 3.8720
 5.7620	 4.2100
 5.7680	 4.3290
 5.7740	 4.5470
 5.7810	 4.6910
 5.7870	 4.8540
 5.7940	 4.9560
 5.8000	 5.0560
 5.8070	 4.9600
 5.8130	 4.9100
 5.8200	 4.8840
 5.8260	 4.9130
 5.8330	 4.9030
 5.8390	 4.9900
 5.8460	 4.9800
 5.8530	 5.1150
 5.8590	 5.1750
 5.8660	 5.1670
 5.8720	 5.1010
 5.8790	 5.1080
 5.8860	 5.0460
 5.8920	 5.1420
 5.8990	 5.0280
 5.9060	 4.9420
 5.9130	 4.8990
 5.9190	 4.7940
 5.9260	 4.6810
 5.9330	 4.6100
 5.9400	 4.3840
 5.9470	 4.4160
 5.9530	 4.4000
 5.9600	 4.4920
 5.9670	 4.4350
 5.9740	 4.2240
 5.9810	 4.1140
 5.9880	 4.2180
 5.9950	 4.2330
 6.0020	 4.2250
 6.0090	 4.1900
 6.0160	 4.1510
 6.0230	 4.0240
 6.0300	 4.1370
 6.0370	 4.1360
 6.0440	 4.1760
 6.0510	 3.9760
 6.0580	 3.8560
 6.0650	 3.9670
 6.0720	 4.0690
 6.0790	 3.9290
 6.0860	 3.8990
 6.0930	 3.8490
 6.1000	 3.9480
 6.1080	 3.9770
 6.1150	 3.9630
 6.1220	 3.9120
 6.1290	 4.0720
 6.1370	 4.0230
 6.1440	 4.0190
 6.1510	 3.9950
 6.1580	 4.1330
 6.1660	 4.0030
 6.1730	 3.9910
 6.1800	 3.8740
 6.1880	 3.8830
 6.1950	 3.9500
 6.2030	 3.9810
 6.2100	 3.9320
 6.2170	 4.0350
 6.2250	 3.9600
 6.2320	 4.0470
 6.2400	 4.1360
 6.2470	 4.1420
 6.2550	 4.0130
 6.2630	 4.0300
 6.2700	 4.0270
 6.2780	 4.1460
 6.2850	 4.0740
 6.2930	 4.0850
 6.3010	 4.1320
 6.3080	 4.1300
 6.3160	 4.0750
 6.3240	 4.2050
 6.3310	 4.2300
 6.3390	 4.1660
 6.3470	 4.0880
 6.3550	 4.2980
 6.3620	 4.3150
 6.3700	 4.2320
 6.3780	 4.1380
 6.3860	 4.2360
 6.3940	 4.2250
 6.4020	 4.2990
 6.4100	 4.1770
 6.4180	 4.1090
 6.4260	 4.1160
 6.4330	 4.1590
 6.4410	 4.0410
 6.4490	 4.0410
 6.4580	 3.9170
 6.4660	 4.0270
 6.4740	 3.9840
 6.4820	 3.9910
 6.4900	 3.8710
 6.4980	 3.9860
 6.5060	 4.1020
 6.5140	 4.1810
 6.5230	 4.1170
 6.5310	 4.2210
 6.5390	 4.1390
 6.5470	 3.9840
 6.5550	 3.8860
 6.5640	 4.0040
 6.5720	 3.9920
 6.5800	 4.0510
 6.5890	 4.1190
 6.5970	 4.2010
 6.6060	 4.1520
 6.6140	 4.2590
 6.6220	 4.2350
 6.6310	 4.2360
 6.6390	 4.1190
 6.6480	 4.1890
 6.6560	 4.2020
 6.6650	 4.2140
 6.6740	 4.0590
 6.6820	 4.1120
 6.6910	 4.2000
 6.6990	 4.1750
 6.7080	 4.0440
 6.7170	 3.9800
 6.7260	 3.9160
 6.7340	 3.9480
 6.7430	 3.8640
 6.7520	 3.9220
 6.7610	 3.8720
 6.7690	 3.8890
 6.7780	 3.8730
 6.7870	 3.9890
 6.7960	 3.9880
 6.8050	 4.0000
 6.8140	 3.9660
 6.8230	 4.0830
 6.8320	 4.1770
 6.8410	 4.3900
 6.8500	 4.3300
 6.8590	 4.2660
 6.8680	 4.1310
 6.8770	 4.1540
 6.8860	 4.1680
 6.8950	 4.1510
 6.9050	 3.9400
 6.9140	 4.0660
 6.9230	 4.0530
 6.9320	 4.0930
 6.9420	 4.1470
 6.9510	 4.2350
 6.9600	 4.1380
 6.9700	 4.1990
 6.9790	 4.1340
 6.9880	 4.1770
 6.9980	 4.0360
 7.0070	 4.0100
 7.0170	 3.9990
 7.0260	 4.1110
 7.0360	 3.9680
 7.0450	 3.9200
 7.0550	 3.8490
 7.0650	 3.9620
 7.0740	 3.9250
 7.0840	 3.9880
 7.0940	 4.0390
 7.1030	 4.1280
 7.1130	 3.9850
 7.1230	 3.9450
 7.1330	 3.8420
 7.1420	 3.9570
 7.1520	 3.9580
 7.1620	 3.9790
 7.1720	 3.8920
 7.1820	 3.9780
 7.1920	 3.9080
 7.2020	 3.9210
 7.2120	 3.8320
 7.2220	 3.9700
 7.2320	 4.0110
 7.2420	 3.9870
 7.2520	 3.8080
 7.2620	 3.8610
 7.2730	 3.8500
 7.2830	 3.8780
 7.2930	 3.8840
 7.3030	 4.0250
 7.3140	 3.9050
 7.3240	 3.9840
 7.3340	 3.9030
 7.3450	 3.8940
 7.3550	 3.7610
 7.3660	 3.7960
 7.3760	 3.8690
 7.3870	 4.1150
 7.3970	 3.9740
 7.4080	 3.8770
 7.4180	 3.8610
 7.4290	 3.9930
 7.4400	 3.9440
 7.4500	 3.9240
 7.4610	 3.7770
 7.4720	 3.8700
 7.4830	 3.8910
 7.4930	 3.9100
 7.5040	 3.7790
 7.5150	 3.8600
 7.5260	 3.7560
 7.5370	 3.7440
 7.5480	 3.7180
 7.5590	 3.8790
 7.5700	 3.8160
 7.5810	 3.8280
 7.5920	 3.7840
 7.6030	 3.7460
 7.6140	 3.6270
 7.6260	 3.8690
 7.6370	 3.9910
 7.6480	 4.0290
 7.6590	 3.9430
 7.6710	 3.9360
 7.6820	 3.8140
 7.6930	 3.8930
 7.7050	 3.9030
 7.7160	 3.9970
 7.7280	 3.9070
 7.7390	 3.9840
 7.7510	 3.9120
 7.7630	 3.9280
 7.7740	 3.9470
 7.7860	 4.0540
 7.7980	 3.9170
 7.8090	 3.9500
 7.8210	 3.8420
 7.8330	 3.9460
 7.8450	 3.8980
 7.8570	 3.9390
 7.8690	 3.9780
 7.8810	 4.0660
 7.8930	 3.9420
 7.9050	 3.9450
 7.9170	 3.9680
 7.9290	 4.0530
 7.9410	 3.9770
 7.9530	 4.1220
 7.9650	 4.0840
 7.9780	 4.1200
 7.9900	 4.0810
 8.0020	 4.2950
 8.0150	 4.2060
 8.0270	 4.0760
 8.0390	 3.9060
 8.0520	 4.0720
 8.0640	 4.0310
 8.0770	 4.1310
 8.0900	 4.0950
 8.1020	 4.3200
 8.1150	 4.3430
 8.1280	 4.3590
 8.1400	 4.1240
 8.1530	 4.2350
 8.1660	 4.0600
 8.1790	 4.2520
 8.1920	 4.3140
 8.2050	 4.4560
 8.2180	 4.4990
 8.2310	 4.6600
 8.2440	 4.4850
 8.2570	 4.5180
 8.2700	 4.3870
 8.2830	 4.5540
 8.2970	 4.5380
 8.3100	 4.6150
 8.3230	 4.5110
 8.3370	 4.6460
 8.3500	 4.6480
 8.3640	 4.8250
 8.3770	 4.6510
 8.3910	 4.8110
 8.4040	 4.7840
 8.4180	 4.7900
 8.4320	 4.7840
 8.4450	 5.1360
 8.4590	 4.9930
 8.4730	 5.1190
 8.4870	 5.1200
 8.5010	 5.2530
 8.5150	 5.0020
 8.5290	 4.9160
 8.5430	 4.7560
 8.5570	 4.9070
 8.5710	 4.8620
 8.5850	 4.9540
 8.5990	 4.6660
 8.6140	 4.5260
 8.6280	 4.2640
 8.6420	 4.3620
 8.6570	 4.4380
 8.6710	 4.4930
 8.6860	 4.2270
 8.7000	 4.2970
 8.7150	 4.3090
 8.7300	 4.6620
 8.7440	 4.5640
 8.7590	 4.5490
 8.7740	 4.2470
 8.7890	 4.3950
 8.8040	 4.4890
 8.8190	 4.5430
 8.8340	 4.2890
 8.8490	 4.3110
 8.8640	 4.1850
 8.8790	 4.3230
 8.8940	 4.1170
 8.9100	 4.0940
 8.9250	 3.8050
 8.9400	 3.8780
 8.9560	 3.6640
 8.9710	 3.6190
 8.9870	 3.4000
 9.0020	 3.4380
 9.0180	 3.3030
 9.0340	 3.5550
 9.0500	 3.4640
 9.0650	 3.6360
 9.0810	 3.6310
 9.0970	 3.8140
 9.1130	 3.7980
 9.1290	 3.8420
 9.1450	 3.5680
 9.1610	 3.7140
 9.1780	 3.6130
 9.1940	 3.6840
 9.2100	 3.5280
 9.2270	 3.6590
 9.2430	 3.4380
 9.2600	 3.5230
 9.2760	 3.2940
 9.2930	 3.2620
 9.3090	 3.0150
 9.3260	 3.1820
 9.3430	 3.1340
 9.3600	 3.3650
 9.3770	 3.2970
 9.3940	 3.4420
 9.4110	 3.3890
 9.4280	 3.5750
 9.4450	 3.3860
 9.4620	 3.4380
 9.4800	 3.4660
 9.4970	 3.5220
 9.5140	 3.3000
 9.5320	 3.5490
 9.5500	 3.3120
 9.5670	 3.4080
 9.5850	 3.3010
 9.6030	 3.4870
 9.6200	 3.3450
 9.6380	 3.4220
 9.6560	 3.3070
 9.6740	 3.4840
 9.6920	 3.2390
 9.7100	 3.3930
 9.7290	 3.2190
 9.7470	 3.2930
 9.7650	 3.1950
 9.7840	 3.3900
 9.8020	 3.3200
 9.8210	 3.3880
 9.8390	 3.2890
 9.8580	 3.5660
 9.8770	 3.5490
 9.8960	 3.7300
 9.9150	 3.4210
 9.9340	 3.6220
 9.9530	 3.7600
 9.9720	 4.1100
 9.9910	 4.0330
10.0100	 4.0530
10.0300	 3.8840
10.0490	 4.0040
10.0690	 3.7310
10.0880	 3.8450
10.1080	 3.8640
10.1280	 4.2070
10.1480	 4.1280
10.1670	 4.0440
10.1870	 3.8340
10.2070	 4.0750
10.2280	 4.0130
10.2480	 4.2030
10.2680	 3.8480
10.2890	 3.8150
10.3090	 3.6280
10.3300	 3.6350
10.3500	 3.4850
10.3710	 3.6860
10.3920	 3.7010
10.4120	 3.9250
10.4330	 3.8800
10.4540	 4.0890
10.4760	 3.9710
10.4970	 4.0850
10.5180	 3.9070
10.5390	 4.1930
10.5610	 4.1620
10.5820	 4.4010
10.6040	 4.1240
10.6260	 4.0440
10.6480	 3.9660
10.6700	 4.2580
10.6920	 4.1170
10.7140	 4.2690
10.7360	 4.1030
10.7580	 4.2390
10.7800	 3.9090
10.8030	 3.8300
10.8250	 3.5210
10.8480	 3.5710
10.8710	 3.5800
10.8940	 3.8200
10.9170	 3.5710
10.9400	 3.8600
10.9630	 3.8820
10.9860	 3.9590
11.0090	 3.6630
11.0330	 3.7520
11.0560	 3.5440
11.0800	 3.7110
11.1040	 3.5810
11.1270	 3.6960
11.1510	 3.6540
11.1750	 3.8900
11.2000	 3.4080
11.2240	 3.1110
11.2480	 3.1090
11.2730	 4.0770
11.2970	 4.5560
11.3220	 4.0580
11.3470	 3.4880
11.3720	 3.8030
11.3970	 3.5720
11.4220	 3.6440
11.4470	 3.6160
11.4720	 3.7960
11.4980	 3.4410
11.5230	 3.4770
11.5490	 3.1230
11.5750	 3.2480
11.6000	 2.9250
11.6260	 3.2180
11.6530	 3.0980
11.6790	 3.3710
11.7050	 3.1550
11.7320	 3.2700
11.7580	 3.2020
11.7850	 3.4080
11.8120	 3.0370
11.8390	 3.1940
11.8660	 2.9520
11.8930	 2.9630
11.9200	 2.6640
11.9480	 2.9450
11.9760	 2.7590
12.0030	 2.9350
12.0310	 2.8730
12.0590	 3.1080
12.0870	 2.8150
12.1150	 2.9350
12.1440	 2.7520
12.1720	 3.0070
12.2010	 2.8380
12.2300	 3.0750
12.2590	 2.8190
12.2880	 2.9660
12.3170	 2.6780
12.3460	 2.8470
12.3760	 2.5200
12.4050	 2.8560
12.4350	 2.7300
12.4650	 2.9540
12.4950	 2.5460
12.5250	 2.7950
12.5550	 2.7470
12.5860	 3.0460
12.6170	 2.7500
12.6470	 2.9610
12.6780	 2.6870
12.7090	 2.7830
12.7410	 2.4590
12.7720	 2.6070
12.8030	 2.2870
12.8350	 2.5040
12.8670	 2.2610
12.8990	 2.5090
12.9310	 2.3320
12.9640	 2.4030
12.9960	 2.0570
13.0290	 2.5300
13.0610	 2.4770
13.0940	 2.7640
13.1280	 2.4890
13.1610	 2.5230
13.1940	 2.3130
13.2280	 2.8860
13.2620	 2.6860
13.2960	 2.7700
13.3300	 2.3700
13.3640	 2.5650
13.3990	 2.3150
13.4340	 2.5280
13.4690	 2.1700
13.5040	 2.6500
13.5390	 2.5030
13.5740	 2.7410
13.6100	 2.5760
13.6460	 2.8700
13.6820	 2.5540
13.7180	 2.7410
13.7540	 2.2180
13.7910	 2.3920
13.8280	 2.4800
13.8650	 2.8500
13.9020	 2.2760
13.9390	 2.4180
13.9770	 2.0560
14.0150	 2.5290
14.0530	 2.0050
14.0910	 2.0140
14.1290	 1.9440
14.1680	 2.7480
14.2070	 2.4820
14.2460	 2.5780
14.2850	 2.2440
14.3240	 2.7160
14.3640	 2.3610
14.4040	 2.7230
14.4440	 2.2300
14.4840	 2.8260
14.5250	 2.5010
14.5660	 2.6140
14.6070	 1.8520
14.6480	 2.7050
14.6900	 2.4290
14.7310	 2.8520
14.7730	 2.4130
14.8150	 2.9940
14.8580	 2.3040
14.9010	 2.6210
14.9440	 1.0600
14.9870	 2.2680
15.0300	 2.2000
15.0740	 2.6640
15.1180	 2.2920
15.1620	 3.1080
15.2060	 2.6970
15.2510	 3.7670
15.2960	 3.3610
15.3410	 3.8930
15.3870	 2.8470
