Name: Ceanothus spinosus 3
Type: vegetation
Class: Shrub
Genus: Ceanothus
Species: spinosus
Sample No.: VH203
Owner: UCSB
Wavelength Range: VSWIR
Origin: 34.4906; -119.7908; WGS84
Collection Date: 10/13/2013
Description: Samples were collected as part of the HyspIRI Airborne Campaign. 48 individual plants were sampled in three times in 2013 - spring  summer  and fall. The name of the sample includes a 1  2  or 3 which references a different individual of the species. Samples were taken to JPL and processed within 48 hours of collection. The same leaves were processed in the Nicolet and then measured using the ASD.
Measurement: Bidirectional reflectance
First Column: X
Second Column: Y
X Units: Wavelength (micrometers)
Y Units: Reflectance (percentage)
First X Value: 0.35
Last X Value: 2.5
Number of X Values: 2151
Additional Information: vegetation.shrub.ceanothus.spinosus.vswir.vh203.ucsb.asd.ancillary.txt

 0.3500	11.7090
 0.3510	11.6080
 0.3520	11.4710
 0.3530	11.3230
 0.3540	11.1980
 0.3550	11.1700
 0.3560	11.2150
 0.3570	11.2710
 0.3580	11.2760
 0.3590	11.2940
 0.3600	11.3030
 0.3610	11.2570
 0.3620	11.0660
 0.3630	11.0300
 0.3640	11.0880
 0.3650	11.0990
 0.3660	11.0180
 0.3670	10.9660
 0.3680	10.9600
 0.3690	10.9500
 0.3700	10.9930
 0.3710	10.9780
 0.3720	10.8940
 0.3730	10.9630
 0.3740	11.0390
 0.3750	11.0250
 0.3760	10.8990
 0.3770	10.8820
 0.3780	10.9610
 0.3790	11.0370
 0.3800	10.9630
 0.3810	10.9190
 0.3820	10.9610
 0.3830	11.0270
 0.3840	10.8410
 0.3850	10.7420
 0.3860	10.7640
 0.3870	10.8240
 0.3880	10.8900
 0.3890	10.8670
 0.3900	10.7920
 0.3910	10.8280
 0.3920	10.7360
 0.3930	10.6860
 0.3940	10.7890
 0.3950	10.8060
 0.3960	10.8080
 0.3970	10.7760
 0.3980	10.6800
 0.3990	10.6860
 0.4000	10.7240
 0.4010	10.7310
 0.4020	10.6760
 0.4030	10.6730
 0.4040	10.6990
 0.4050	10.7070
 0.4060	10.7130
 0.4070	10.6820
 0.4080	10.6630
 0.4090	10.7390
 0.4100	10.7670
 0.4110	10.7780
 0.4120	10.7950
 0.4130	10.7780
 0.4140	10.7770
 0.4150	10.8050
 0.4160	10.8520
 0.4170	10.8530
 0.4180	10.8560
 0.4190	10.8830
 0.4200	10.9210
 0.4210	10.9660
 0.4220	10.9860
 0.4230	10.9730
 0.4240	11.0020
 0.4250	11.0460
 0.4260	11.0870
 0.4270	11.1120
 0.4280	11.1270
 0.4290	11.1360
 0.4300	11.1490
 0.4310	11.1720
 0.4320	11.1770
 0.4330	11.1780
 0.4340	11.1930
 0.4350	11.1990
 0.4360	11.2190
 0.4370	11.2510
 0.4380	11.2760
 0.4390	11.2940
 0.4400	11.3330
 0.4410	11.3950
 0.4420	11.4120
 0.4430	11.4230
 0.4440	11.4370
 0.4450	11.4580
 0.4460	11.4820
 0.4470	11.4980
 0.4480	11.5030
 0.4490	11.5050
 0.4500	11.5100
 0.4510	11.5240
 0.4520	11.5490
 0.4530	11.5770
 0.4540	11.6000
 0.4550	11.6140
 0.4560	11.6230
 0.4570	11.6380
 0.4580	11.6450
 0.4590	11.6390
 0.4600	11.6440
 0.4610	11.6580
 0.4620	11.6690
 0.4630	11.6670
 0.4640	11.6850
 0.4650	11.6950
 0.4660	11.6900
 0.4670	11.6830
 0.4680	11.6860
 0.4690	11.6900
 0.4700	11.6900
 0.4710	11.7090
 0.4720	11.7260
 0.4730	11.7290
 0.4740	11.7140
 0.4750	11.7080
 0.4760	11.7150
 0.4770	11.7310
 0.4780	11.7430
 0.4790	11.7430
 0.4800	11.7380
 0.4810	11.7390
 0.4820	11.7460
 0.4830	11.7490
 0.4840	11.7500
 0.4850	11.7580
 0.4860	11.7620
 0.4870	11.7710
 0.4880	11.7910
 0.4890	11.8090
 0.4900	11.8430
 0.4910	11.8780
 0.4920	11.8940
 0.4930	11.9300
 0.4940	11.9720
 0.4950	12.0150
 0.4960	12.0720
 0.4970	12.1300
 0.4980	12.1860
 0.4990	12.2400
 0.5000	12.2880
 0.5010	12.3510
 0.5020	12.4330
 0.5030	12.5200
 0.5040	12.6040
 0.5050	12.6970
 0.5060	12.8070
 0.5070	12.9230
 0.5080	13.0440
 0.5090	13.1770
 0.5100	13.3250
 0.5110	13.4730
 0.5120	13.6420
 0.5130	13.8310
 0.5140	14.0100
 0.5150	14.2180
 0.5160	14.4460
 0.5170	14.6760
 0.5180	14.9040
 0.5190	15.1440
 0.5200	15.3990
 0.5210	15.6650
 0.5220	15.9290
 0.5230	16.1960
 0.5240	16.4640
 0.5250	16.7190
 0.5260	16.9730
 0.5270	17.2250
 0.5280	17.4700
 0.5290	17.6990
 0.5300	17.9170
 0.5310	18.1250
 0.5320	18.3180
 0.5330	18.5020
 0.5340	18.6740
 0.5350	18.8310
 0.5360	18.9790
 0.5370	19.1150
 0.5380	19.2410
 0.5390	19.3580
 0.5400	19.4460
 0.5410	19.5220
 0.5420	19.5980
 0.5430	19.6580
 0.5440	19.7380
 0.5450	19.8340
 0.5460	19.9280
 0.5470	20.0500
 0.5480	20.1680
 0.5490	20.2590
 0.5500	20.3190
 0.5510	20.3640
 0.5520	20.3990
 0.5530	20.4220
 0.5540	20.4290
 0.5550	20.4190
 0.5560	20.3950
 0.5570	20.3610
 0.5580	20.3080
 0.5590	20.2420
 0.5600	20.1660
 0.5610	20.0770
 0.5620	19.9840
 0.5630	19.8850
 0.5640	19.7760
 0.5650	19.6570
 0.5660	19.5270
 0.5670	19.3820
 0.5680	19.2210
 0.5690	19.0530
 0.5700	18.8860
 0.5710	18.7240
 0.5720	18.5610
 0.5730	18.4090
 0.5740	18.2760
 0.5750	18.1650
 0.5760	18.0410
 0.5770	17.9310
 0.5780	17.8460
 0.5790	17.7570
 0.5800	17.6740
 0.5810	17.5960
 0.5820	17.5140
 0.5830	17.4270
 0.5840	17.3470
 0.5850	17.2740
 0.5860	17.1920
 0.5870	17.1060
 0.5880	17.0220
 0.5890	16.9440
 0.5900	16.8820
 0.5910	16.8430
 0.5920	16.8180
 0.5930	16.7910
 0.5940	16.7700
 0.5950	16.7510
 0.5960	16.7310
 0.5970	16.7010
 0.5980	16.6720
 0.5990	16.6370
 0.6000	16.5910
 0.6010	16.5690
 0.6020	16.5410
 0.6030	16.4980
 0.6040	16.4540
 0.6050	16.3980
 0.6060	16.3330
 0.6070	16.2600
 0.6080	16.1830
 0.6090	16.0860
 0.6100	15.9620
 0.6110	15.8210
 0.6120	15.7460
 0.6130	15.7080
 0.6140	15.6750
 0.6150	15.6190
 0.6160	15.5560
 0.6170	15.4950
 0.6180	15.4420
 0.6190	15.3930
 0.6200	15.3440
 0.6210	15.3000
 0.6220	15.2700
 0.6230	15.2480
 0.6240	15.2320
 0.6250	15.2210
 0.6260	15.2160
 0.6270	15.2110
 0.6280	15.2060
 0.6290	15.2000
 0.6300	15.1940
 0.6310	15.1930
 0.6320	15.1980
 0.6330	15.2000
 0.6340	15.1840
 0.6350	15.1560
 0.6360	15.1200
 0.6370	15.0720
 0.6380	15.0140
 0.6390	14.9430
 0.6400	14.8520
 0.6410	14.7580
 0.6420	14.6600
 0.6430	14.5590
 0.6440	14.4520
 0.6450	14.3520
 0.6460	14.2580
 0.6470	14.1640
 0.6480	14.0730
 0.6490	13.9960
 0.6500	13.9320
 0.6510	13.8730
 0.6520	13.8260
 0.6530	13.7820
 0.6540	13.7370
 0.6550	13.6890
 0.6560	13.6330
 0.6570	13.5740
 0.6580	13.5160
 0.6590	13.4460
 0.6600	13.3720
 0.6610	13.3000
 0.6620	13.2340
 0.6630	13.1660
 0.6640	13.1040
 0.6650	13.0530
 0.6660	12.9980
 0.6670	12.9570
 0.6680	12.9270
 0.6690	12.8970
 0.6700	12.8840
 0.6710	12.8780
 0.6720	12.8740
 0.6730	12.8750
 0.6740	12.8880
 0.6750	12.9050
 0.6760	12.9220
 0.6770	12.9470
 0.6780	12.9830
 0.6790	13.0250
 0.6800	13.0690
 0.6810	13.1280
 0.6820	13.1990
 0.6830	13.2810
 0.6840	13.3870
 0.6850	13.5230
 0.6860	13.6850
 0.6870	13.8710
 0.6880	14.1020
 0.6890	14.3910
 0.6900	14.7410
 0.6910	15.1500
 0.6920	15.6270
 0.6930	16.1830
 0.6940	16.8240
 0.6950	17.5560
 0.6960	18.3690
 0.6970	19.2530
 0.6980	20.2030
 0.6990	21.2180
 0.7000	22.2890
 0.7010	23.3980
 0.7020	24.5230
 0.7030	25.6720
 0.7040	26.8260
 0.7050	27.9670
 0.7060	29.1030
 0.7070	30.2100
 0.7080	31.2930
 0.7090	32.3680
 0.7100	33.4260
 0.7110	34.4410
 0.7120	35.4140
 0.7130	36.3700
 0.7140	37.2990
 0.7150	38.1920
 0.7160	39.0450
 0.7170	39.8650
 0.7180	40.6580
 0.7190	41.4190
 0.7200	42.1400
 0.7210	42.8290
 0.7220	43.4830
 0.7230	44.1070
 0.7240	44.7180
 0.7250	45.2940
 0.7260	45.8180
 0.7270	46.2980
 0.7280	46.8000
 0.7290	47.2470
 0.7300	47.6450
 0.7310	48.0320
 0.7320	48.4160
 0.7330	48.7620
 0.7340	49.0690
 0.7350	49.3750
 0.7360	49.6600
 0.7370	49.9210
 0.7380	50.1590
 0.7390	50.3780
 0.7400	50.6090
 0.7410	50.8260
 0.7420	50.9970
 0.7430	51.1600
 0.7440	51.3130
 0.7450	51.4610
 0.7460	51.6090
 0.7470	51.7310
 0.7480	51.8400
 0.7490	51.9460
 0.7500	52.0410
 0.7510	52.1120
 0.7520	52.1770
 0.7530	52.2600
 0.7540	52.3550
 0.7550	52.4170
 0.7560	52.4480
 0.7570	52.4910
 0.7580	52.5380
 0.7590	52.5860
 0.7600	52.6290
 0.7610	52.6660
 0.7620	52.6990
 0.7630	52.7240
 0.7640	52.7390
 0.7650	52.7530
 0.7660	52.7800
 0.7670	52.8100
 0.7680	52.8240
 0.7690	52.8380
 0.7700	52.8530
 0.7710	52.8650
 0.7720	52.8720
 0.7730	52.8920
 0.7740	52.9050
 0.7750	52.9010
 0.7760	52.9170
 0.7770	52.9230
 0.7780	52.9260
 0.7790	52.9500
 0.7800	52.9720
 0.7810	52.9750
 0.7820	52.9720
 0.7830	53.0030
 0.7840	53.0170
 0.7850	53.0180
 0.7860	53.0180
 0.7870	53.0340
 0.7880	53.0500
 0.7890	53.0580
 0.7900	53.0580
 0.7910	53.0720
 0.7920	53.0850
 0.7930	53.0920
 0.7940	53.0930
 0.7950	53.1050
 0.7960	53.1160
 0.7970	53.1180
 0.7980	53.1180
 0.7990	53.1350
 0.8000	53.1570
 0.8010	53.1690
 0.8020	53.1780
 0.8030	53.1850
 0.8040	53.2010
 0.8050	53.2300
 0.8060	53.2190
 0.8070	53.2090
 0.8080	53.2160
 0.8090	53.2320
 0.8100	53.2530
 0.8110	53.2710
 0.8120	53.2790
 0.8130	53.2750
 0.8140	53.2820
 0.8150	53.2890
 0.8160	53.2840
 0.8170	53.2950
 0.8180	53.3260
 0.8190	53.3570
 0.8200	53.3630
 0.8210	53.3550
 0.8220	53.3470
 0.8230	53.3490
 0.8240	53.3640
 0.8250	53.3950
 0.8260	53.4090
 0.8270	53.4010
 0.8280	53.4140
 0.8290	53.4210
 0.8300	53.4260
 0.8310	53.4360
 0.8320	53.4360
 0.8330	53.4410
 0.8340	53.4570
 0.8350	53.4790
 0.8360	53.4640
 0.8370	53.4620
 0.8380	53.4840
 0.8390	53.5010
 0.8400	53.5110
 0.8410	53.5090
 0.8420	53.5020
 0.8430	53.5090
 0.8440	53.4940
 0.8450	53.5040
 0.8460	53.5580
 0.8470	53.5560
 0.8480	53.5690
 0.8490	53.5810
 0.8500	53.5680
 0.8510	53.5850
 0.8520	53.6160
 0.8530	53.6310
 0.8540	53.6080
 0.8550	53.5990
 0.8560	53.6130
 0.8570	53.6290
 0.8580	53.6130
 0.8590	53.6090
 0.8600	53.6270
 0.8610	53.6530
 0.8620	53.6590
 0.8630	53.6360
 0.8640	53.6300
 0.8650	53.6650
 0.8660	53.6740
 0.8670	53.6740
 0.8680	53.6700
 0.8690	53.6660
 0.8700	53.6590
 0.8710	53.6680
 0.8720	53.6720
 0.8730	53.6470
 0.8740	53.6690
 0.8750	53.7010
 0.8760	53.7080
 0.8770	53.6780
 0.8780	53.6770
 0.8790	53.6810
 0.8800	53.6780
 0.8810	53.6920
 0.8820	53.7030
 0.8830	53.7000
 0.8840	53.6810
 0.8850	53.6600
 0.8860	53.6670
 0.8870	53.6840
 0.8880	53.6870
 0.8890	53.6710
 0.8900	53.6730
 0.8910	53.6890
 0.8920	53.6950
 0.8930	53.6900
 0.8940	53.6790
 0.8950	53.6640
 0.8960	53.6460
 0.8970	53.6460
 0.8980	53.6590
 0.8990	53.6690
 0.9000	53.6560
 0.9010	53.6410
 0.9020	53.6180
 0.9030	53.6050
 0.9040	53.6490
 0.9050	53.6480
 0.9060	53.6230
 0.9070	53.6100
 0.9080	53.6190
 0.9090	53.6280
 0.9100	53.6320
 0.9110	53.6260
 0.9120	53.5850
 0.9130	53.5870
 0.9140	53.6100
 0.9150	53.6120
 0.9160	53.6050
 0.9170	53.5910
 0.9180	53.5920
 0.9190	53.6230
 0.9200	53.6190
 0.9210	53.5990
 0.9220	53.5760
 0.9230	53.5580
 0.9240	53.5420
 0.9250	53.5440
 0.9260	53.5530
 0.9270	53.5350
 0.9280	53.5170
 0.9290	53.5080
 0.9300	53.4970
 0.9310	53.4590
 0.9320	53.4360
 0.9330	53.4370
 0.9340	53.4460
 0.9350	53.4330
 0.9360	53.4070
 0.9370	53.3750
 0.9380	53.3430
 0.9390	53.3200
 0.9400	53.3220
 0.9410	53.3180
 0.9420	53.2900
 0.9430	53.2570
 0.9440	53.2240
 0.9450	53.2000
 0.9460	53.1970
 0.9470	53.2230
 0.9480	53.1960
 0.9490	53.1380
 0.9500	53.0850
 0.9510	53.0320
 0.9520	52.9680
 0.9530	52.9150
 0.9540	52.8860
 0.9550	52.8450
 0.9560	52.8180
 0.9570	52.7960
 0.9580	52.7620
 0.9590	52.7050
 0.9600	52.6590
 0.9610	52.6270
 0.9620	52.6010
 0.9630	52.5830
 0.9640	52.5410
 0.9650	52.5000
 0.9660	52.4950
 0.9670	52.4700
 0.9680	52.4530
 0.9690	52.4600
 0.9700	52.4800
 0.9710	52.4270
 0.9720	52.3900
 0.9730	52.3760
 0.9740	52.3610
 0.9750	52.3780
 0.9760	52.3660
 0.9770	52.3470
 0.9780	52.3730
 0.9790	52.4040
 0.9800	52.4290
 0.9810	52.4200
 0.9820	52.3710
 0.9830	52.4100
 0.9840	52.4310
 0.9850	52.4200
 0.9860	52.4220
 0.9870	52.4670
 0.9880	52.4780
 0.9890	52.4640
 0.9900	52.4710
 0.9910	52.4970
 0.9920	52.5480
 0.9930	52.5980
 0.9940	52.6490
 0.9950	52.7000
 0.9960	52.7510
 0.9970	52.8020
 0.9980	52.8520
 0.9990	52.9030
 1.0000	52.9540
 1.0010	53.0050
 1.0020	53.0560
 1.0030	53.1060
 1.0040	53.1570
 1.0050	53.2080
 1.0060	53.2590
 1.0070	53.3090
 1.0080	53.3600
 1.0090	53.4110
 1.0100	53.4110
 1.0110	53.4230
 1.0120	53.4350
 1.0130	53.4400
 1.0140	53.4510
 1.0150	53.4700
 1.0160	53.4840
 1.0170	53.4900
 1.0180	53.5100
 1.0190	53.5410
 1.0200	53.5670
 1.0210	53.5950
 1.0220	53.6140
 1.0230	53.6320
 1.0240	53.6390
 1.0250	53.6550
 1.0260	53.6760
 1.0270	53.6950
 1.0280	53.7200
 1.0290	53.7330
 1.0300	53.7330
 1.0310	53.7430
 1.0320	53.7510
 1.0330	53.7570
 1.0340	53.7770
 1.0350	53.8040
 1.0360	53.8190
 1.0370	53.8280
 1.0380	53.8370
 1.0390	53.8400
 1.0400	53.8480
 1.0410	53.8590
 1.0420	53.8690
 1.0430	53.8820
 1.0440	53.8890
 1.0450	53.8920
 1.0460	53.8980
 1.0470	53.9000
 1.0480	53.9040
 1.0490	53.9140
 1.0500	53.9200
 1.0510	53.9180
 1.0520	53.9270
 1.0530	53.9320
 1.0540	53.9370
 1.0550	53.9430
 1.0560	53.9550
 1.0570	53.9560
 1.0580	53.9520
 1.0590	53.9510
 1.0600	53.9440
 1.0610	53.9440
 1.0620	53.9550
 1.0630	53.9580
 1.0640	53.9560
 1.0650	53.9590
 1.0660	53.9690
 1.0670	53.9690
 1.0680	53.9670
 1.0690	53.9660
 1.0700	53.9620
 1.0710	53.9460
 1.0720	53.9430
 1.0730	53.9470
 1.0740	53.9450
 1.0750	53.9430
 1.0760	53.9410
 1.0770	53.9340
 1.0780	53.9320
 1.0790	53.9350
 1.0800	53.9330
 1.0810	53.9300
 1.0820	53.9270
 1.0830	53.9170
 1.0840	53.9140
 1.0850	53.9150
 1.0860	53.9190
 1.0870	53.9200
 1.0880	53.9280
 1.0890	53.9240
 1.0900	53.9100
 1.0910	53.9100
 1.0920	53.9180
 1.0930	53.9160
 1.0940	53.9190
 1.0950	53.9160
 1.0960	53.9020
 1.0970	53.8920
 1.0980	53.8880
 1.0990	53.8770
 1.1000	53.8540
 1.1010	53.8400
 1.1020	53.8260
 1.1030	53.8120
 1.1040	53.8080
 1.1050	53.8090
 1.1060	53.8080
 1.1070	53.8120
 1.1080	53.8080
 1.1090	53.8030
 1.1100	53.7950
 1.1110	53.7820
 1.1120	53.7700
 1.1130	53.7560
 1.1140	53.7430
 1.1150	53.7350
 1.1160	53.7190
 1.1170	53.7030
 1.1180	53.6820
 1.1190	53.6530
 1.1200	53.6260
 1.1210	53.5960
 1.1220	53.5670
 1.1230	53.5430
 1.1240	53.5130
 1.1250	53.4800
 1.1260	53.4480
 1.1270	53.4120
 1.1280	53.3710
 1.1290	53.3260
 1.1300	53.2800
 1.1310	53.2280
 1.1320	53.1700
 1.1330	53.1080
 1.1340	53.0410
 1.1350	52.9720
 1.1360	52.9010
 1.1370	52.8230
 1.1380	52.7430
 1.1390	52.6590
 1.1400	52.5710
 1.1410	52.4810
 1.1420	52.3830
 1.1430	52.2870
 1.1440	52.1890
 1.1450	52.0830
 1.1460	51.9830
 1.1470	51.8830
 1.1480	51.7890
 1.1490	51.6940
 1.1500	51.6070
 1.1510	51.5250
 1.1520	51.4480
 1.1530	51.3760
 1.1540	51.3080
 1.1550	51.2470
 1.1560	51.1890
 1.1570	51.1290
 1.1580	51.0790
 1.1590	51.0330
 1.1600	50.9880
 1.1610	50.9520
 1.1620	50.9190
 1.1630	50.8910
 1.1640	50.8700
 1.1650	50.8530
 1.1660	50.8430
 1.1670	50.8350
 1.1680	50.8330
 1.1690	50.8280
 1.1700	50.8260
 1.1710	50.8220
 1.1720	50.8140
 1.1730	50.8130
 1.1740	50.8150
 1.1750	50.8140
 1.1760	50.8160
 1.1770	50.8200
 1.1780	50.8110
 1.1790	50.8070
 1.1800	50.8010
 1.1810	50.7860
 1.1820	50.7780
 1.1830	50.7710
 1.1840	50.7620
 1.1850	50.7560
 1.1860	50.7510
 1.1870	50.7510
 1.1880	50.7480
 1.1890	50.7460
 1.1900	50.7480
 1.1910	50.7510
 1.1920	50.7520
 1.1930	50.7570
 1.1940	50.7600
 1.1950	50.7590
 1.1960	50.7570
 1.1970	50.7580
 1.1980	50.7640
 1.1990	50.7720
 1.2000	50.7820
 1.2010	50.7930
 1.2020	50.8020
 1.2030	50.8110
 1.2040	50.8280
 1.2050	50.8440
 1.2060	50.8600
 1.2070	50.8740
 1.2080	50.8850
 1.2090	50.8990
 1.2100	50.9150
 1.2110	50.9320
 1.2120	50.9500
 1.2130	50.9700
 1.2140	50.9960
 1.2150	51.0170
 1.2160	51.0370
 1.2170	51.0590
 1.2180	51.0830
 1.2190	51.0930
 1.2200	51.1080
 1.2210	51.1300
 1.2220	51.1460
 1.2230	51.1630
 1.2240	51.1850
 1.2250	51.2060
 1.2260	51.2260
 1.2270	51.2470
 1.2280	51.2680
 1.2290	51.2820
 1.2300	51.2990
 1.2310	51.3170
 1.2320	51.3290
 1.2330	51.3410
 1.2340	51.3580
 1.2350	51.3760
 1.2360	51.3930
 1.2370	51.4120
 1.2380	51.4290
 1.2390	51.4420
 1.2400	51.4480
 1.2410	51.4620
 1.2420	51.4780
 1.2430	51.4870
 1.2440	51.5020
 1.2450	51.5100
 1.2460	51.5150
 1.2470	51.5270
 1.2480	51.5300
 1.2490	51.5380
 1.2500	51.5510
 1.2510	51.5590
 1.2520	51.5750
 1.2530	51.5830
 1.2540	51.5780
 1.2550	51.5810
 1.2560	51.5790
 1.2570	51.5760
 1.2580	51.5860
 1.2590	51.5930
 1.2600	51.6010
 1.2610	51.6070
 1.2620	51.6170
 1.2630	51.6200
 1.2640	51.6160
 1.2650	51.6210
 1.2660	51.6260
 1.2670	51.6180
 1.2680	51.6140
 1.2690	51.6090
 1.2700	51.6010
 1.2710	51.6010
 1.2720	51.6000
 1.2730	51.5900
 1.2740	51.5760
 1.2750	51.5630
 1.2760	51.5520
 1.2770	51.5430
 1.2780	51.5320
 1.2790	51.5190
 1.2800	51.5060
 1.2810	51.4910
 1.2820	51.4720
 1.2830	51.4560
 1.2840	51.4390
 1.2850	51.4190
 1.2860	51.4060
 1.2870	51.3880
 1.2880	51.3680
 1.2890	51.3480
 1.2900	51.3260
 1.2910	51.2950
 1.2920	51.2680
 1.2930	51.2390
 1.2940	51.2070
 1.2950	51.1840
 1.2960	51.1580
 1.2970	51.1290
 1.2980	51.1000
 1.2990	51.0640
 1.3000	51.0230
 1.3010	50.9800
 1.3020	50.9390
 1.3030	50.8940
 1.3040	50.8520
 1.3050	50.8090
 1.3060	50.7610
 1.3070	50.7140
 1.3080	50.6620
 1.3090	50.6060
 1.3100	50.5490
 1.3110	50.4880
 1.3120	50.4270
 1.3130	50.3680
 1.3140	50.3070
 1.3150	50.2470
 1.3160	50.1810
 1.3170	50.1130
 1.3180	50.0390
 1.3190	49.9590
 1.3200	49.8770
 1.3210	49.7900
 1.3220	49.7020
 1.3230	49.6140
 1.3240	49.5240
 1.3250	49.4380
 1.3260	49.3470
 1.3270	49.2450
 1.3280	49.1450
 1.3290	49.0440
 1.3300	48.9420
 1.3310	48.8450
 1.3320	48.7390
 1.3330	48.6300
 1.3340	48.5210
 1.3350	48.4100
 1.3360	48.2970
 1.3370	48.1810
 1.3380	48.0630
 1.3390	47.9440
 1.3400	47.8260
 1.3410	47.7080
 1.3420	47.5890
 1.3430	47.4720
 1.3440	47.3560
 1.3450	47.2430
 1.3460	47.1330
 1.3470	47.0250
 1.3480	46.9160
 1.3490	46.8080
 1.3500	46.7030
 1.3510	46.5940
 1.3520	46.4880
 1.3530	46.3800
 1.3540	46.2760
 1.3550	46.1730
 1.3560	46.0670
 1.3570	45.9650
 1.3580	45.8630
 1.3590	45.7580
 1.3600	45.6520
 1.3610	45.5400
 1.3620	45.4250
 1.3630	45.3080
 1.3640	45.1830
 1.3650	45.0500
 1.3660	44.9070
 1.3670	44.7500
 1.3680	44.5810
 1.3690	44.4080
 1.3700	44.2300
 1.3710	44.0460
 1.3720	43.8550
 1.3730	43.6500
 1.3740	43.4270
 1.3750	43.1860
 1.3760	42.9310
 1.3770	42.6570
 1.3780	42.3680
 1.3790	42.0660
 1.3800	41.7440
 1.3810	41.4020
 1.3820	41.0380
 1.3830	40.6520
 1.3840	40.2460
 1.3850	39.8130
 1.3860	39.3710
 1.3870	38.9130
 1.3880	38.4420
 1.3890	37.9560
 1.3900	37.4540
 1.3910	36.9470
 1.3920	36.4260
 1.3930	35.8990
 1.3940	35.3720
 1.3950	34.8310
 1.3960	34.2940
 1.3970	33.7680
 1.3980	33.2430
 1.3990	32.7330
 1.4000	32.2300
 1.4010	31.7310
 1.4020	31.2510
 1.4030	30.7840
 1.4040	30.3360
 1.4050	29.9100
 1.4060	29.4950
 1.4070	29.1060
 1.4080	28.7360
 1.4090	28.3800
 1.4100	28.0450
 1.4110	27.7250
 1.4120	27.4260
 1.4130	27.1500
 1.4140	26.8900
 1.4150	26.6550
 1.4160	26.4360
 1.4170	26.2310
 1.4180	26.0480
 1.4190	25.8770
 1.4200	25.7210
 1.4210	25.5820
 1.4220	25.4550
 1.4230	25.3410
 1.4240	25.2400
 1.4250	25.1480
 1.4260	25.0660
 1.4270	24.9940
 1.4280	24.9320
 1.4290	24.8770
 1.4300	24.8320
 1.4310	24.7910
 1.4320	24.7560
 1.4330	24.7260
 1.4340	24.7020
 1.4350	24.6830
 1.4360	24.6720
 1.4370	24.6650
 1.4380	24.6640
 1.4390	24.6660
 1.4400	24.6740
 1.4410	24.6860
 1.4420	24.7010
 1.4430	24.7180
 1.4440	24.7410
 1.4450	24.7630
 1.4460	24.7840
 1.4470	24.8110
 1.4480	24.8380
 1.4490	24.8650
 1.4500	24.8950
 1.4510	24.9230
 1.4520	24.9510
 1.4530	24.9820
 1.4540	25.0120
 1.4550	25.0440
 1.4560	25.0770
 1.4570	25.1140
 1.4580	25.1570
 1.4590	25.2040
 1.4600	25.2540
 1.4610	25.3060
 1.4620	25.3600
 1.4630	25.4180
 1.4640	25.4800
 1.4650	25.5460
 1.4660	25.6170
 1.4670	25.6910
 1.4680	25.7690
 1.4690	25.8550
 1.4700	25.9460
 1.4710	26.0400
 1.4720	26.1360
 1.4730	26.2350
 1.4740	26.3390
 1.4750	26.4440
 1.4760	26.5580
 1.4770	26.6720
 1.4780	26.7840
 1.4790	26.9000
 1.4800	27.0150
 1.4810	27.1320
 1.4820	27.2510
 1.4830	27.3700
 1.4840	27.4910
 1.4850	27.6110
 1.4860	27.7360
 1.4870	27.8600
 1.4880	27.9830
 1.4890	28.1050
 1.4900	28.2260
 1.4910	28.3460
 1.4920	28.4650
 1.4930	28.5840
 1.4940	28.7030
 1.4950	28.8190
 1.4960	28.9380
 1.4970	29.0610
 1.4980	29.1800
 1.4990	29.2990
 1.5000	29.4180
 1.5010	29.5330
 1.5020	29.6480
 1.5030	29.7650
 1.5040	29.8810
 1.5050	29.9960
 1.5060	30.1130
 1.5070	30.2340
 1.5080	30.3480
 1.5090	30.4580
 1.5100	30.5670
 1.5110	30.6730
 1.5120	30.7780
 1.5130	30.8840
 1.5140	30.9910
 1.5150	31.0980
 1.5160	31.2030
 1.5170	31.3090
 1.5180	31.4150
 1.5190	31.5180
 1.5200	31.6180
 1.5210	31.7160
 1.5220	31.8140
 1.5230	31.9120
 1.5240	32.0080
 1.5250	32.1060
 1.5260	32.2000
 1.5270	32.2920
 1.5280	32.3870
 1.5290	32.4770
 1.5300	32.5680
 1.5310	32.6610
 1.5320	32.7490
 1.5330	32.8340
 1.5340	32.9170
 1.5350	33.0010
 1.5360	33.0860
 1.5370	33.1750
 1.5380	33.2620
 1.5390	33.3430
 1.5400	33.4210
 1.5410	33.4960
 1.5420	33.5720
 1.5430	33.6530
 1.5440	33.7370
 1.5450	33.8150
 1.5460	33.8940
 1.5470	33.9720
 1.5480	34.0460
 1.5490	34.1230
 1.5500	34.1950
 1.5510	34.2660
 1.5520	34.3360
 1.5530	34.4000
 1.5540	34.4650
 1.5550	34.5320
 1.5560	34.5950
 1.5570	34.6590
 1.5580	34.7210
 1.5590	34.7790
 1.5600	34.8420
 1.5610	34.9050
 1.5620	34.9670
 1.5630	35.0310
 1.5640	35.0890
 1.5650	35.1480
 1.5660	35.2120
 1.5670	35.2750
 1.5680	35.3380
 1.5690	35.3950
 1.5700	35.4510
 1.5710	35.5080
 1.5720	35.5600
 1.5730	35.6110
 1.5740	35.6610
 1.5750	35.7100
 1.5760	35.7650
 1.5770	35.8210
 1.5780	35.8790
 1.5790	35.9360
 1.5800	35.9930
 1.5810	36.0480
 1.5820	36.1030
 1.5830	36.1610
 1.5840	36.2180
 1.5850	36.2780
 1.5860	36.3370
 1.5870	36.3890
 1.5880	36.4420
 1.5890	36.4960
 1.5900	36.5490
 1.5910	36.6070
 1.5920	36.6650
 1.5930	36.7150
 1.5940	36.7630
 1.5950	36.8100
 1.5960	36.8490
 1.5970	36.8920
 1.5980	36.9380
 1.5990	36.9810
 1.6000	37.0290
 1.6010	37.0760
 1.6020	37.1170
 1.6030	37.1630
 1.6040	37.2040
 1.6050	37.2440
 1.6060	37.2870
 1.6070	37.3220
 1.6080	37.3600
 1.6090	37.3990
 1.6100	37.4330
 1.6110	37.4730
 1.6120	37.5170
 1.6130	37.5550
 1.6140	37.5940
 1.6150	37.6320
 1.6160	37.6660
 1.6170	37.7020
 1.6180	37.7370
 1.6190	37.7690
 1.6200	37.8030
 1.6210	37.8390
 1.6220	37.8740
 1.6230	37.9090
 1.6240	37.9400
 1.6250	37.9690
 1.6260	37.9980
 1.6270	38.0300
 1.6280	38.0600
 1.6290	38.0850
 1.6300	38.1090
 1.6310	38.1310
 1.6320	38.1490
 1.6330	38.1690
 1.6340	38.1900
 1.6350	38.2090
 1.6360	38.2270
 1.6370	38.2430
 1.6380	38.2570
 1.6390	38.2720
 1.6400	38.2890
 1.6410	38.3010
 1.6420	38.3130
 1.6430	38.3190
 1.6440	38.3220
 1.6450	38.3260
 1.6460	38.3280
 1.6470	38.3270
 1.6480	38.3160
 1.6490	38.3030
 1.6500	38.2890
 1.6510	38.2770
 1.6520	38.2630
 1.6530	38.2460
 1.6540	38.2260
 1.6550	38.2040
 1.6560	38.1870
 1.6570	38.1680
 1.6580	38.1480
 1.6590	38.1240
 1.6600	38.0980
 1.6610	38.0790
 1.6620	38.0620
 1.6630	38.0530
 1.6640	38.0440
 1.6650	38.0290
 1.6660	38.0160
 1.6670	38.0080
 1.6680	38.0050
 1.6690	38.0050
 1.6700	38.0070
 1.6710	38.0040
 1.6720	38.0000
 1.6730	38.0000
 1.6740	38.0030
 1.6750	38.0020
 1.6760	37.9980
 1.6770	37.9910
 1.6780	37.9750
 1.6790	37.9580
 1.6800	37.9420
 1.6810	37.9240
 1.6820	37.9060
 1.6830	37.8890
 1.6840	37.8720
 1.6850	37.8560
 1.6860	37.8340
 1.6870	37.8070
 1.6880	37.7810
 1.6890	37.7520
 1.6900	37.7250
 1.6910	37.7030
 1.6920	37.6770
 1.6930	37.6450
 1.6940	37.6160
 1.6950	37.5840
 1.6960	37.5570
 1.6970	37.5350
 1.6980	37.5080
 1.6990	37.4830
 1.7000	37.4560
 1.7010	37.4210
 1.7020	37.3910
 1.7030	37.3650
 1.7040	37.3320
 1.7050	37.3000
 1.7060	37.2620
 1.7070	37.2170
 1.7080	37.1750
 1.7090	37.1300
 1.7100	37.0900
 1.7110	37.0520
 1.7120	37.0150
 1.7130	36.9720
 1.7140	36.9220
 1.7150	36.8770
 1.7160	36.8250
 1.7170	36.7780
 1.7180	36.7380
 1.7190	36.6890
 1.7200	36.6460
 1.7210	36.6020
 1.7220	36.5560
 1.7230	36.5210
 1.7240	36.4780
 1.7250	36.4340
 1.7260	36.3900
 1.7270	36.3380
 1.7280	36.2860
 1.7290	36.2340
 1.7300	36.1840
 1.7310	36.1370
 1.7320	36.0980
 1.7330	36.0540
 1.7340	36.0080
 1.7350	35.9660
 1.7360	35.9280
 1.7370	35.8880
 1.7380	35.8530
 1.7390	35.8130
 1.7400	35.7630
 1.7410	35.7240
 1.7420	35.6900
 1.7430	35.6530
 1.7440	35.6230
 1.7450	35.5870
 1.7460	35.5440
 1.7470	35.5040
 1.7480	35.4630
 1.7490	35.4250
 1.7500	35.3880
 1.7510	35.3500
 1.7520	35.3180
 1.7530	35.2760
 1.7540	35.2290
 1.7550	35.1870
 1.7560	35.1450
 1.7570	35.1100
 1.7580	35.0790
 1.7590	35.0500
 1.7600	35.0170
 1.7610	34.9860
 1.7620	34.9500
 1.7630	34.9020
 1.7640	34.8620
 1.7650	34.8230
 1.7660	34.7870
 1.7670	34.7580
 1.7680	34.7270
 1.7690	34.6970
 1.7700	34.6640
 1.7710	34.6270
 1.7720	34.5960
 1.7730	34.5660
 1.7740	34.5350
 1.7750	34.5070
 1.7760	34.4780
 1.7770	34.4460
 1.7780	34.4180
 1.7790	34.3940
 1.7800	34.3700
 1.7810	34.3490
 1.7820	34.3240
 1.7830	34.2980
 1.7840	34.2770
 1.7850	34.2520
 1.7860	34.2390
 1.7870	34.2340
 1.7880	34.2290
 1.7890	34.2290
 1.7900	34.2190
 1.7910	34.2100
 1.7920	34.1930
 1.7930	34.1810
 1.7940	34.1730
 1.7950	34.1660
 1.7960	34.1620
 1.7970	34.1560
 1.7980	34.1470
 1.7990	34.1410
 1.8000	34.1320
 1.8010	34.1330
 1.8020	34.1440
 1.8030	34.1540
 1.8040	34.1730
 1.8050	34.1810
 1.8060	34.1840
 1.8070	34.1840
 1.8080	34.1750
 1.8090	34.1750
 1.8100	34.1780
 1.8110	34.1770
 1.8120	34.1850
 1.8130	34.1850
 1.8140	34.1860
 1.8150	34.1900
 1.8160	34.1850
 1.8170	34.1840
 1.8180	34.1910
 1.8190	34.1930
 1.8200	34.1930
 1.8210	34.1900
 1.8220	34.1870
 1.8230	34.1860
 1.8240	34.1840
 1.8250	34.1820
 1.8260	34.1750
 1.8270	34.0590
 1.8280	33.9430
 1.8290	33.8260
 1.8300	33.7100
 1.8310	33.5940
 1.8320	33.4770
 1.8330	33.3610
 1.8340	33.2450
 1.8350	33.2450
 1.8360	33.2160
 1.8370	33.1850
 1.8380	33.1530
 1.8390	33.1130
 1.8400	33.0600
 1.8410	33.0080
 1.8420	32.9550
 1.8430	32.8980
 1.8440	32.8270
 1.8450	32.7550
 1.8460	32.6880
 1.8470	32.6150
 1.8480	32.5340
 1.8490	32.4460
 1.8500	32.3440
 1.8510	32.2250
 1.8520	32.0940
 1.8530	31.9640
 1.8540	31.8280
 1.8550	31.6800
 1.8560	31.5220
 1.8570	31.3490
 1.8580	31.1680
 1.8590	30.9750
 1.8600	30.7740
 1.8610	30.5520
 1.8620	30.3190
 1.8630	30.0750
 1.8640	29.8170
 1.8650	29.5540
 1.8660	29.2660
 1.8670	28.9510
 1.8680	28.6300
 1.8690	28.2900
 1.8700	27.9250
 1.8710	27.5430
 1.8720	27.1500
 1.8730	26.7260
 1.8740	26.2850
 1.8750	25.8460
 1.8760	25.3940
 1.8770	24.9390
 1.8780	24.4720
 1.8790	23.9930
 1.8800	23.5180
 1.8810	23.0410
 1.8820	22.5560
 1.8830	22.0700
 1.8840	21.5840
 1.8850	21.0860
 1.8860	20.5990
 1.8870	20.1320
 1.8880	19.6760
 1.8890	19.2340
 1.8900	18.8010
 1.8910	18.3900
 1.8920	17.9900
 1.8930	17.6130
 1.8940	17.2570
 1.8950	16.9290
 1.8960	16.6180
 1.8970	16.3240
 1.8980	16.0580
 1.8990	15.8080
 1.9000	15.5770
 1.9010	15.3700
 1.9020	15.1750
 1.9030	14.9970
 1.9040	14.8410
 1.9050	14.7040
 1.9060	14.5760
 1.9070	14.4680
 1.9080	14.3770
 1.9090	14.2880
 1.9100	14.2120
 1.9110	14.1390
 1.9120	14.0650
 1.9130	14.0050
 1.9140	13.9520
 1.9150	13.9140
 1.9160	13.8900
 1.9170	13.8800
 1.9180	13.8640
 1.9190	13.8410
 1.9200	13.8200
 1.9210	13.8030
 1.9220	13.7910
 1.9230	13.7890
 1.9240	13.7860
 1.9250	13.7820
 1.9260	13.7820
 1.9270	13.7950
 1.9280	13.8120
 1.9290	13.8350
 1.9300	13.8660
 1.9310	13.8870
 1.9320	13.9010
 1.9330	13.9180
 1.9340	13.9270
 1.9350	13.9450
 1.9360	13.9640
 1.9370	13.9900
 1.9380	14.0240
 1.9390	14.0610
 1.9400	14.0950
 1.9410	14.1350
 1.9420	14.1670
 1.9430	14.1910
 1.9440	14.2250
 1.9450	14.2580
 1.9460	14.2950
 1.9470	14.3410
 1.9480	14.3840
 1.9490	14.4250
 1.9500	14.4690
 1.9510	14.5190
 1.9520	14.5710
 1.9530	14.6270
 1.9540	14.6860
 1.9550	14.7390
 1.9560	14.7860
 1.9570	14.8380
 1.9580	14.8910
 1.9590	14.9410
 1.9600	14.9890
 1.9610	15.0400
 1.9620	15.0940
 1.9630	15.1390
 1.9640	15.1880
 1.9650	15.2400
 1.9660	15.2920
 1.9670	15.3520
 1.9680	15.4140
 1.9690	15.4870
 1.9700	15.5510
 1.9710	15.6160
 1.9720	15.6760
 1.9730	15.7300
 1.9740	15.7870
 1.9750	15.8450
 1.9760	15.9010
 1.9770	15.9680
 1.9780	16.0450
 1.9790	16.1160
 1.9800	16.1870
 1.9810	16.2610
 1.9820	16.3290
 1.9830	16.4050
 1.9840	16.4940
 1.9850	16.5750
 1.9860	16.6580
 1.9870	16.7420
 1.9880	16.8150
 1.9890	16.8810
 1.9900	16.9430
 1.9910	17.0050
 1.9920	17.0750
 1.9930	17.1470
 1.9940	17.2250
 1.9950	17.3160
 1.9960	17.3920
 1.9970	17.4640
 1.9980	17.5390
 1.9990	17.6070
 2.0000	17.6770
 2.0010	17.7530
 2.0020	17.8290
 2.0030	17.8950
 2.0040	17.9550
 2.0050	18.0240
 2.0060	18.0940
 2.0070	18.1640
 2.0080	18.2440
 2.0090	18.3180
 2.0100	18.3900
 2.0110	18.4610
 2.0120	18.5300
 2.0130	18.5980
 2.0140	18.6720
 2.0150	18.7320
 2.0160	18.7930
 2.0170	18.8570
 2.0180	18.9150
 2.0190	18.9650
 2.0200	19.0210
 2.0210	19.0820
 2.0220	19.1350
 2.0230	19.1870
 2.0240	19.2380
 2.0250	19.2850
 2.0260	19.3310
 2.0270	19.3760
 2.0280	19.4270
 2.0290	19.4700
 2.0300	19.5180
 2.0310	19.5630
 2.0320	19.6080
 2.0330	19.6520
 2.0340	19.6980
 2.0350	19.7360
 2.0360	19.7690
 2.0370	19.8060
 2.0380	19.8400
 2.0390	19.8710
 2.0400	19.9090
 2.0410	19.9390
 2.0420	19.9590
 2.0430	19.9820
 2.0440	20.0010
 2.0450	20.0140
 2.0460	20.0350
 2.0470	20.0560
 2.0480	20.0820
 2.0490	20.1190
 2.0500	20.1460
 2.0510	20.1690
 2.0520	20.1940
 2.0530	20.2130
 2.0540	20.2350
 2.0550	20.2550
 2.0560	20.2850
 2.0570	20.3090
 2.0580	20.3380
 2.0590	20.3630
 2.0600	20.3870
 2.0610	20.4100
 2.0620	20.4310
 2.0630	20.4540
 2.0640	20.4780
 2.0650	20.5020
 2.0660	20.5310
 2.0670	20.5510
 2.0680	20.5640
 2.0690	20.5810
 2.0700	20.5980
 2.0710	20.6130
 2.0720	20.6260
 2.0730	20.6470
 2.0740	20.6650
 2.0750	20.6800
 2.0760	20.6950
 2.0770	20.7110
 2.0780	20.7270
 2.0790	20.7410
 2.0800	20.7580
 2.0810	20.7780
 2.0820	20.8020
 2.0830	20.8330
 2.0840	20.8570
 2.0850	20.8790
 2.0860	20.9020
 2.0870	20.9280
 2.0880	20.9360
 2.0890	20.9520
 2.0900	20.9730
 2.0910	20.9900
 2.0920	20.9990
 2.0930	21.0190
 2.0940	21.0450
 2.0950	21.0640
 2.0960	21.0800
 2.0970	21.1010
 2.0980	21.1160
 2.0990	21.1350
 2.1000	21.1630
 2.1010	21.1850
 2.1020	21.2050
 2.1030	21.2220
 2.1040	21.2370
 2.1050	21.2510
 2.1060	21.2620
 2.1070	21.2690
 2.1080	21.2780
 2.1090	21.2850
 2.1100	21.2960
 2.1110	21.3060
 2.1120	21.3220
 2.1130	21.3500
 2.1140	21.3650
 2.1150	21.3790
 2.1160	21.3910
 2.1170	21.3880
 2.1180	21.3950
 2.1190	21.4040
 2.1200	21.4180
 2.1210	21.4380
 2.1220	21.4650
 2.1230	21.4820
 2.1240	21.4990
 2.1250	21.5180
 2.1260	21.5290
 2.1270	21.5480
 2.1280	21.5790
 2.1290	21.5960
 2.1300	21.6050
 2.1310	21.6190
 2.1320	21.6290
 2.1330	21.6400
 2.1340	21.6550
 2.1350	21.6670
 2.1360	21.6710
 2.1370	21.6830
 2.1380	21.7000
 2.1390	21.7170
 2.1400	21.7380
 2.1410	21.7570
 2.1420	21.7740
 2.1430	21.7860
 2.1440	21.8060
 2.1450	21.8310
 2.1460	21.8520
 2.1470	21.8750
 2.1480	21.9000
 2.1490	21.9250
 2.1500	21.9480
 2.1510	21.9790
 2.1520	21.9970
 2.1530	21.9980
 2.1540	22.0120
 2.1550	22.0250
 2.1560	22.0450
 2.1570	22.0810
 2.1580	22.1070
 2.1590	22.1340
 2.1600	22.1540
 2.1610	22.1680
 2.1620	22.1860
 2.1630	22.2130
 2.1640	22.2500
 2.1650	22.2760
 2.1660	22.3120
 2.1670	22.3300
 2.1680	22.3280
 2.1690	22.3430
 2.1700	22.3630
 2.1710	22.3780
 2.1720	22.4000
 2.1730	22.4200
 2.1740	22.4290
 2.1750	22.4520
 2.1760	22.4930
 2.1770	22.5190
 2.1780	22.5440
 2.1790	22.5630
 2.1800	22.5590
 2.1810	22.5710
 2.1820	22.5880
 2.1830	22.6110
 2.1840	22.6380
 2.1850	22.6790
 2.1860	22.7090
 2.1870	22.7380
 2.1880	22.7600
 2.1890	22.7660
 2.1900	22.7930
 2.1910	22.8270
 2.1920	22.8550
 2.1930	22.8970
 2.1940	22.9250
 2.1950	22.9380
 2.1960	22.9580
 2.1970	22.9820
 2.1980	23.0000
 2.1990	23.0140
 2.2000	23.0260
 2.2010	23.0290
 2.2020	23.0420
 2.2030	23.0600
 2.2040	23.0810
 2.2050	23.1130
 2.2060	23.1370
 2.2070	23.1700
 2.2080	23.2040
 2.2090	23.2400
 2.2100	23.2840
 2.2110	23.3160
 2.2120	23.3460
 2.2130	23.3690
 2.2140	23.3840
 2.2150	23.4000
 2.2160	23.4070
 2.2170	23.4220
 2.2180	23.4420
 2.2190	23.4540
 2.2200	23.4670
 2.2210	23.4750
 2.2220	23.4780
 2.2230	23.4750
 2.2240	23.4650
 2.2250	23.4590
 2.2260	23.4500
 2.2270	23.4410
 2.2280	23.4460
 2.2290	23.4360
 2.2300	23.4160
 2.2310	23.3930
 2.2320	23.3670
 2.2330	23.3420
 2.2340	23.3170
 2.2350	23.2990
 2.2360	23.2640
 2.2370	23.2200
 2.2380	23.1780
 2.2390	23.1260
 2.2400	23.0880
 2.2410	23.0650
 2.2420	23.0180
 2.2430	22.9620
 2.2440	22.9090
 2.2450	22.8390
 2.2460	22.7810
 2.2470	22.7350
 2.2480	22.6850
 2.2490	22.6290
 2.2500	22.5830
 2.2510	22.5510
 2.2520	22.5080
 2.2530	22.4680
 2.2540	22.4250
 2.2550	22.3620
 2.2560	22.3200
 2.2570	22.3020
 2.2580	22.2630
 2.2590	22.2320
 2.2600	22.1880
 2.2610	22.1170
 2.2620	22.0510
 2.2630	21.9950
 2.2640	21.9520
 2.2650	21.9180
 2.2660	21.8770
 2.2670	21.8430
 2.2680	21.8160
 2.2690	21.7770
 2.2700	21.7370
 2.2710	21.6960
 2.2720	21.6430
 2.2730	21.6100
 2.2740	21.5860
 2.2750	21.5650
 2.2760	21.5630
 2.2770	21.5360
 2.2780	21.4970
 2.2790	21.4650
 2.2800	21.4240
 2.2810	21.3900
 2.2820	21.3750
 2.2830	21.3410
 2.2840	21.2930
 2.2850	21.2560
 2.2860	21.2120
 2.2870	21.1740
 2.2880	21.1460
 2.2890	21.1160
 2.2900	21.0870
 2.2910	21.0570
 2.2920	21.0290
 2.2930	21.0010
 2.2940	20.9580
 2.2950	20.9360
 2.2960	20.9380
 2.2970	20.9230
 2.2980	20.9100
 2.2990	20.9010
 2.3000	20.8670
 2.3010	20.8340
 2.3020	20.8070
 2.3030	20.7600
 2.3040	20.7150
 2.3050	20.6930
 2.3060	20.6640
 2.3070	20.6460
 2.3080	20.6290
 2.3090	20.5840
 2.3100	20.5460
 2.3110	20.5050
 2.3120	20.4750
 2.3130	20.4540
 2.3140	20.4260
 2.3150	20.4000
 2.3160	20.3820
 2.3170	20.3680
 2.3180	20.3410
 2.3190	20.3150
 2.3200	20.2920
 2.3210	20.2560
 2.3220	20.2290
 2.3230	20.2240
 2.3240	20.1950
 2.3250	20.1490
 2.3260	20.1120
 2.3270	20.0590
 2.3280	20.0310
 2.3290	20.0220
 2.3300	20.0040
 2.3310	20.0060
 2.3320	19.9870
 2.3330	19.9550
 2.3340	19.9190
 2.3350	19.8660
 2.3360	19.8260
 2.3370	19.7920
 2.3380	19.7550
 2.3390	19.7260
 2.3400	19.6900
 2.3410	19.6300
 2.3420	19.5970
 2.3430	19.5850
 2.3440	19.5640
 2.3450	19.5610
 2.3460	19.5430
 2.3470	19.5100
 2.3480	19.4760
 2.3490	19.4290
 2.3500	19.3940
 2.3510	19.3600
 2.3520	19.3300
 2.3530	19.3080
 2.3540	19.2990
 2.3550	19.2880
 2.3560	19.2660
 2.3570	19.2350
 2.3580	19.2010
 2.3590	19.1650
 2.3600	19.1380
 2.3610	19.1310
 2.3620	19.1150
 2.3630	19.0750
 2.3640	19.0460
 2.3650	19.0270
 2.3660	19.0160
 2.3670	18.9960
 2.3680	18.9670
 2.3690	18.9310
 2.3700	18.8750
 2.3710	18.8600
 2.3720	18.8680
 2.3730	18.8400
 2.3740	18.8390
 2.3750	18.8310
 2.3760	18.7690
 2.3770	18.7540
 2.3780	18.7240
 2.3790	18.6570
 2.3800	18.6610
 2.3810	18.6400
 2.3820	18.5990
 2.3830	18.6010
 2.3840	18.5560
 2.3850	18.5020
 2.3860	18.4660
 2.3870	18.3990
 2.3880	18.3370
 2.3890	18.2940
 2.3900	18.2450
 2.3910	18.2010
 2.3920	18.1920
 2.3930	18.1630
 2.3940	18.1040
 2.3950	18.0630
 2.3960	18.0090
 2.3970	17.9510
 2.3980	17.8960
 2.3990	17.8280
 2.4000	17.7960
 2.4010	17.8080
 2.4020	17.8010
 2.4030	17.7850
 2.4040	17.7770
 2.4050	17.7050
 2.4060	17.6410
 2.4070	17.6490
 2.4080	17.6150
 2.4090	17.5740
 2.4100	17.5360
 2.4110	17.4590
 2.4120	17.3700
 2.4130	17.3150
 2.4140	17.3200
 2.4150	17.3100
 2.4160	17.3140
 2.4170	17.3170
 2.4180	17.2470
 2.4190	17.1800
 2.4200	17.1170
 2.4210	17.0580
 2.4220	17.0050
 2.4230	16.9450
 2.4240	16.8870
 2.4250	16.8240
 2.4260	16.7890
 2.4270	16.7600
 2.4280	16.7300
 2.4290	16.6920
 2.4300	16.6410
 2.4310	16.5980
 2.4320	16.5300
 2.4330	16.4620
 2.4340	16.4040
 2.4350	16.3980
 2.4360	16.4680
 2.4370	16.4930
 2.4380	16.4870
 2.4390	16.4140
 2.4400	16.2320
 2.4410	16.1190
 2.4420	16.0440
 2.4430	15.9900
 2.4440	16.0080
 2.4450	15.9750
 2.4460	15.9330
 2.4470	15.9190
 2.4480	15.8590
 2.4490	15.8620
 2.4500	15.9000
 2.4510	15.8750
 2.4520	15.8880
 2.4530	15.8780
 2.4540	15.8310
 2.4550	15.8100
 2.4560	15.7760
 2.4570	15.7520
 2.4580	15.7210
 2.4590	15.6930
 2.4600	15.6390
 2.4610	15.5580
 2.4620	15.4800
 2.4630	15.3920
 2.4640	15.3380
 2.4650	15.3460
 2.4660	15.3770
 2.4670	15.4050
 2.4680	15.3780
 2.4690	15.3040
 2.4700	15.2470
 2.4710	15.1810
 2.4720	15.1550
 2.4730	15.1330
 2.4740	15.1110
 2.4750	15.0880
 2.4760	15.0940
 2.4770	15.2010
 2.4780	15.1840
 2.4790	15.0770
 2.4800	15.0130
 2.4810	14.8440
 2.4820	14.8610
 2.4830	14.9340
 2.4840	14.9870
 2.4850	15.0430
 2.4860	14.9990
 2.4870	15.0070
 2.4880	15.1320
 2.4890	15.2030
 2.4900	15.1850
 2.4910	15.1760
 2.4920	15.1420
 2.4930	15.0860
 2.4940	15.1210
 2.4950	15.0760
 2.4960	15.0000
 2.4970	14.9880
 2.4980	15.0140
 2.4990	15.2360
 2.5000	15.4250
