Name: Bambusa beecheyana
Type: vegetation
Class: Tree
Genus: Bambusa
Species: beecheyana
Sample No.: JPL245
Owner: JPL
Wavelength Range: VSWIR
Origin: 34.12536; -118.11136; WGS84
Collection Date: 10/6/2016
Description: Samples were collected at the Huntington Garden in San Marino California as part of a JPL Subcontract studying HyTES imagery. Samples were taken to JPL and processed within 48 hours of collection. The same leaves were processed in the Nicolet and then measured using the ASD.
Measurement: Bidirectional reflectance
First Column: X
Second Column: Y
X Units: Wavelength (micrometer)
Y Units: Reflectance (percentage)
First X Value: 0.35
Last X Value: 2.5
Number of X Values: 2151
Additional Information: vegetation.tree.bambusa.beecheyana.vswir.jpl245.jpl.asd.ancillary.txt

 0.3500	 7.3930
 0.3510	 7.2860
 0.3520	 7.2660
 0.3530	 7.3160
 0.3540	 7.3990
 0.3550	 7.4040
 0.3560	 7.3840
 0.3570	 7.3370
 0.3580	 7.2420
 0.3590	 7.1720
 0.3600	 7.1710
 0.3610	 7.2290
 0.3620	 7.2800
 0.3630	 7.2520
 0.3640	 7.1880
 0.3650	 7.1580
 0.3660	 7.1840
 0.3670	 7.2160
 0.3680	 7.2230
 0.3690	 7.1950
 0.3700	 7.2010
 0.3710	 7.2070
 0.3720	 7.1920
 0.3730	 7.1890
 0.3740	 7.1830
 0.3750	 7.1410
 0.3760	 7.0640
 0.3770	 7.1280
 0.3780	 7.1790
 0.3790	 7.1700
 0.3800	 7.1590
 0.3810	 7.1930
 0.3820	 7.2060
 0.3830	 7.1730
 0.3840	 7.2080
 0.3850	 7.2010
 0.3860	 7.1630
 0.3870	 7.1500
 0.3880	 7.1960
 0.3890	 7.2430
 0.3900	 7.2620
 0.3910	 7.2530
 0.3920	 7.2220
 0.3930	 7.2190
 0.3940	 7.2680
 0.3950	 7.2980
 0.3960	 7.2930
 0.3970	 7.2740
 0.3980	 7.2730
 0.3990	 7.2890
 0.4000	 7.3140
 0.4010	 7.3260
 0.4020	 7.2870
 0.4030	 7.3100
 0.4040	 7.3450
 0.4050	 7.3330
 0.4060	 7.3250
 0.4070	 7.3410
 0.4080	 7.3600
 0.4090	 7.3460
 0.4100	 7.3830
 0.4110	 7.4110
 0.4120	 7.4020
 0.4130	 7.4240
 0.4140	 7.4270
 0.4150	 7.4220
 0.4160	 7.4330
 0.4170	 7.4400
 0.4180	 7.4460
 0.4190	 7.4510
 0.4200	 7.4540
 0.4210	 7.4650
 0.4220	 7.4710
 0.4230	 7.4660
 0.4240	 7.4760
 0.4250	 7.4760
 0.4260	 7.4670
 0.4270	 7.4650
 0.4280	 7.4710
 0.4290	 7.4760
 0.4300	 7.4710
 0.4310	 7.4510
 0.4320	 7.4400
 0.4330	 7.4340
 0.4340	 7.4220
 0.4350	 7.4110
 0.4360	 7.4020
 0.4370	 7.4030
 0.4380	 7.4240
 0.4390	 7.4420
 0.4400	 7.4530
 0.4410	 7.4610
 0.4420	 7.4740
 0.4430	 7.4810
 0.4440	 7.4840
 0.4450	 7.4870
 0.4460	 7.4860
 0.4470	 7.4860
 0.4480	 7.4900
 0.4490	 7.4980
 0.4500	 7.5030
 0.4510	 7.5090
 0.4520	 7.5180
 0.4530	 7.5140
 0.4540	 7.5080
 0.4550	 7.5080
 0.4560	 7.5160
 0.4570	 7.5270
 0.4580	 7.5350
 0.4590	 7.5370
 0.4600	 7.5350
 0.4610	 7.5350
 0.4620	 7.5330
 0.4630	 7.5240
 0.4640	 7.5240
 0.4650	 7.5270
 0.4660	 7.5290
 0.4670	 7.5290
 0.4680	 7.5270
 0.4690	 7.5260
 0.4700	 7.5280
 0.4710	 7.5240
 0.4720	 7.5180
 0.4730	 7.5180
 0.4740	 7.5260
 0.4750	 7.5290
 0.4760	 7.5290
 0.4770	 7.5280
 0.4780	 7.5290
 0.4790	 7.5270
 0.4800	 7.5280
 0.4810	 7.5330
 0.4820	 7.5270
 0.4830	 7.5230
 0.4840	 7.5240
 0.4850	 7.5230
 0.4860	 7.5160
 0.4870	 7.5160
 0.4880	 7.5280
 0.4890	 7.5380
 0.4900	 7.5440
 0.4910	 7.5490
 0.4920	 7.5560
 0.4930	 7.5710
 0.4940	 7.5880
 0.4950	 7.6050
 0.4960	 7.6250
 0.4970	 7.6450
 0.4980	 7.6710
 0.4990	 7.7040
 0.5000	 7.7350
 0.5010	 7.7690
 0.5020	 7.8090
 0.5030	 7.8520
 0.5040	 7.9010
 0.5050	 7.9550
 0.5060	 8.0150
 0.5070	 8.0870
 0.5080	 8.1640
 0.5090	 8.2490
 0.5100	 8.3460
 0.5110	 8.4550
 0.5120	 8.5730
 0.5130	 8.7000
 0.5140	 8.8420
 0.5150	 8.9990
 0.5160	 9.1660
 0.5170	 9.3420
 0.5180	 9.5310
 0.5190	 9.7300
 0.5200	 9.9370
 0.5210	10.1520
 0.5220	10.3610
 0.5230	10.5700
 0.5240	10.7800
 0.5250	10.9830
 0.5260	11.1770
 0.5270	11.3610
 0.5280	11.5320
 0.5290	11.6920
 0.5300	11.8380
 0.5310	11.9680
 0.5320	12.0820
 0.5330	12.1890
 0.5340	12.2840
 0.5350	12.3650
 0.5360	12.4290
 0.5370	12.4830
 0.5380	12.5310
 0.5390	12.5670
 0.5400	12.5880
 0.5410	12.6010
 0.5420	12.6130
 0.5430	12.6270
 0.5440	12.6450
 0.5450	12.6690
 0.5460	12.6990
 0.5470	12.7310
 0.5480	12.7580
 0.5490	12.7770
 0.5500	12.7850
 0.5510	12.7880
 0.5520	12.7850
 0.5530	12.7730
 0.5540	12.7490
 0.5550	12.7120
 0.5560	12.6600
 0.5570	12.5960
 0.5580	12.5200
 0.5590	12.4340
 0.5600	12.3400
 0.5610	12.2360
 0.5620	12.1230
 0.5630	12.0030
 0.5640	11.8760
 0.5650	11.7470
 0.5660	11.6150
 0.5670	11.4770
 0.5680	11.3350
 0.5690	11.1950
 0.5700	11.0580
 0.5710	10.9250
 0.5720	10.7930
 0.5730	10.6640
 0.5740	10.5430
 0.5750	10.4320
 0.5760	10.3310
 0.5770	10.2370
 0.5780	10.1480
 0.5790	10.0670
 0.5800	 9.9880
 0.5810	 9.9110
 0.5820	 9.8390
 0.5830	 9.7730
 0.5840	 9.7160
 0.5850	 9.6660
 0.5860	 9.6170
 0.5870	 9.5660
 0.5880	 9.5160
 0.5890	 9.4740
 0.5900	 9.4340
 0.5910	 9.3960
 0.5920	 9.3590
 0.5930	 9.3240
 0.5940	 9.2950
 0.5950	 9.2750
 0.5960	 9.2620
 0.5970	 9.2510
 0.5980	 9.2370
 0.5990	 9.2210
 0.6000	 9.2050
 0.6010	 9.1860
 0.6020	 9.1610
 0.6030	 9.1290
 0.6040	 9.0950
 0.6050	 9.0560
 0.6060	 9.0130
 0.6070	 8.9660
 0.6080	 8.9130
 0.6090	 8.8500
 0.6100	 8.7740
 0.6110	 8.6920
 0.6120	 8.6400
 0.6130	 8.6090
 0.6140	 8.5820
 0.6150	 8.5440
 0.6160	 8.5040
 0.6170	 8.4640
 0.6180	 8.4230
 0.6190	 8.3860
 0.6200	 8.3530
 0.6210	 8.3240
 0.6220	 8.3000
 0.6230	 8.2810
 0.6240	 8.2650
 0.6250	 8.2510
 0.6260	 8.2370
 0.6270	 8.2260
 0.6280	 8.2180
 0.6290	 8.2110
 0.6300	 8.1990
 0.6310	 8.1880
 0.6320	 8.1810
 0.6330	 8.1710
 0.6340	 8.1550
 0.6350	 8.1330
 0.6360	 8.1090
 0.6370	 8.0790
 0.6380	 8.0450
 0.6390	 8.0090
 0.6400	 7.9750
 0.6410	 7.9360
 0.6420	 7.8970
 0.6430	 7.8610
 0.6440	 7.8280
 0.6450	 7.7950
 0.6460	 7.7620
 0.6470	 7.7340
 0.6480	 7.7100
 0.6490	 7.6880
 0.6500	 7.6690
 0.6510	 7.6560
 0.6520	 7.6490
 0.6530	 7.6430
 0.6540	 7.6370
 0.6550	 7.6320
 0.6560	 7.6260
 0.6570	 7.6170
 0.6580	 7.6080
 0.6590	 7.5990
 0.6600	 7.5900
 0.6610	 7.5810
 0.6620	 7.5740
 0.6630	 7.5720
 0.6640	 7.5740
 0.6650	 7.5800
 0.6660	 7.5910
 0.6670	 7.6030
 0.6680	 7.6180
 0.6690	 7.6400
 0.6700	 7.6670
 0.6710	 7.6980
 0.6720	 7.7320
 0.6730	 7.7710
 0.6740	 7.8160
 0.6750	 7.8650
 0.6760	 7.9180
 0.6770	 7.9740
 0.6780	 8.0350
 0.6790	 8.1010
 0.6800	 8.1710
 0.6810	 8.2430
 0.6820	 8.3170
 0.6830	 8.3890
 0.6840	 8.4570
 0.6850	 8.5240
 0.6860	 8.5920
 0.6870	 8.6600
 0.6880	 8.7330
 0.6890	 8.8170
 0.6900	 8.9260
 0.6910	 9.0720
 0.6920	 9.2570
 0.6930	 9.4920
 0.6940	 9.7850
 0.6950	10.1460
 0.6960	10.5740
 0.6970	11.0680
 0.6980	11.6230
 0.6990	12.2350
 0.7000	12.8950
 0.7010	13.5950
 0.7020	14.3260
 0.7030	15.0770
 0.7040	15.8410
 0.7050	16.6130
 0.7060	17.3860
 0.7070	18.1630
 0.7080	18.9410
 0.7090	19.7190
 0.7100	20.5000
 0.7110	21.2820
 0.7120	22.0640
 0.7130	22.8470
 0.7140	23.6350
 0.7150	24.4250
 0.7160	25.2150
 0.7170	26.0110
 0.7180	26.8060
 0.7190	27.5980
 0.7200	28.3860
 0.7210	29.1740
 0.7220	29.9570
 0.7230	30.7300
 0.7240	31.4940
 0.7250	32.2470
 0.7260	32.9870
 0.7270	33.7120
 0.7280	34.4200
 0.7290	35.1100
 0.7300	35.7810
 0.7310	36.4300
 0.7320	37.0580
 0.7330	37.6630
 0.7340	38.2420
 0.7350	38.7940
 0.7360	39.3230
 0.7370	39.8260
 0.7380	40.3010
 0.7390	40.7480
 0.7400	41.1680
 0.7410	41.5600
 0.7420	41.9260
 0.7430	42.2660
 0.7440	42.5760
 0.7450	42.8590
 0.7460	43.1180
 0.7470	43.3550
 0.7480	43.5680
 0.7490	43.7590
 0.7500	43.9310
 0.7510	44.0840
 0.7520	44.2190
 0.7530	44.3400
 0.7540	44.4500
 0.7550	44.5470
 0.7560	44.6300
 0.7570	44.7050
 0.7580	44.7710
 0.7590	44.8300
 0.7600	44.8810
 0.7610	44.9250
 0.7620	44.9600
 0.7630	44.9860
 0.7640	45.0070
 0.7650	45.0260
 0.7660	45.0390
 0.7670	45.0470
 0.7680	45.0510
 0.7690	45.0540
 0.7700	45.0530
 0.7710	45.0510
 0.7720	45.0480
 0.7730	45.0430
 0.7740	45.0390
 0.7750	45.0340
 0.7760	45.0300
 0.7770	45.0240
 0.7780	45.0180
 0.7790	45.0140
 0.7800	45.0080
 0.7810	45.0030
 0.7820	44.9990
 0.7830	44.9940
 0.7840	44.9870
 0.7850	44.9790
 0.7860	44.9700
 0.7870	44.9630
 0.7880	44.9580
 0.7890	44.9530
 0.7900	44.9430
 0.7910	44.9320
 0.7920	44.9220
 0.7930	44.9110
 0.7940	44.9020
 0.7950	44.8910
 0.7960	44.8790
 0.7970	44.8650
 0.7980	44.8510
 0.7990	44.8370
 0.8000	44.8230
 0.8010	44.8080
 0.8020	44.7930
 0.8030	44.7760
 0.8040	44.7580
 0.8050	44.7410
 0.8060	44.7260
 0.8070	44.7070
 0.8080	44.6860
 0.8090	44.6670
 0.8100	44.6480
 0.8110	44.6280
 0.8120	44.6070
 0.8130	44.5870
 0.8140	44.5660
 0.8150	44.5440
 0.8160	44.5200
 0.8170	44.4980
 0.8180	44.4790
 0.8190	44.4610
 0.8200	44.4380
 0.8210	44.4170
 0.8220	44.3960
 0.8230	44.3740
 0.8240	44.3510
 0.8250	44.3280
 0.8260	44.3070
 0.8270	44.2880
 0.8280	44.2680
 0.8290	44.2490
 0.8300	44.2300
 0.8310	44.2110
 0.8320	44.1880
 0.8330	44.1680
 0.8340	44.1510
 0.8350	44.1340
 0.8360	44.1180
 0.8370	44.1010
 0.8380	44.0840
 0.8390	44.0690
 0.8400	44.0540
 0.8410	44.0410
 0.8420	44.0300
 0.8430	44.0140
 0.8440	44.0010
 0.8450	43.9920
 0.8460	43.9820
 0.8470	43.9690
 0.8480	43.9600
 0.8490	43.9520
 0.8500	43.9440
 0.8510	43.9360
 0.8520	43.9300
 0.8530	43.9250
 0.8540	43.9180
 0.8550	43.9120
 0.8560	43.9080
 0.8570	43.9050
 0.8580	43.9000
 0.8590	43.8980
 0.8600	43.8960
 0.8610	43.8940
 0.8620	43.8930
 0.8630	43.8940
 0.8640	43.8950
 0.8650	43.8910
 0.8660	43.8910
 0.8670	43.8930
 0.8680	43.8960
 0.8690	43.8990
 0.8700	43.8970
 0.8710	43.8970
 0.8720	43.9030
 0.8730	43.9110
 0.8740	43.9140
 0.8750	43.9160
 0.8760	43.9200
 0.8770	43.9220
 0.8780	43.9280
 0.8790	43.9370
 0.8800	43.9450
 0.8810	43.9510
 0.8820	43.9550
 0.8830	43.9610
 0.8840	43.9680
 0.8850	43.9710
 0.8860	43.9750
 0.8870	43.9820
 0.8880	43.9890
 0.8890	43.9920
 0.8900	43.9990
 0.8910	44.0080
 0.8920	44.0130
 0.8930	44.0180
 0.8940	44.0220
 0.8950	44.0270
 0.8960	44.0350
 0.8970	44.0380
 0.8980	44.0430
 0.8990	44.0510
 0.9000	44.0560
 0.9010	44.0590
 0.9020	44.0660
 0.9030	44.0740
 0.9040	44.0770
 0.9050	44.0740
 0.9060	44.0760
 0.9070	44.0840
 0.9080	44.0890
 0.9090	44.0890
 0.9100	44.0870
 0.9110	44.0890
 0.9120	44.0940
 0.9130	44.1000
 0.9140	44.1040
 0.9150	44.1010
 0.9160	44.1010
 0.9170	44.0980
 0.9180	44.0950
 0.9190	44.0980
 0.9200	44.0970
 0.9210	44.0960
 0.9220	44.0930
 0.9230	44.0860
 0.9240	44.0820
 0.9250	44.0770
 0.9260	44.0700
 0.9270	44.0640
 0.9280	44.0610
 0.9290	44.0560
 0.9300	44.0460
 0.9310	44.0370
 0.9320	44.0290
 0.9330	44.0210
 0.9340	44.0100
 0.9350	43.9950
 0.9360	43.9860
 0.9370	43.9750
 0.9380	43.9580
 0.9390	43.9370
 0.9400	43.9250
 0.9410	43.9160
 0.9420	43.9020
 0.9430	43.8860
 0.9440	43.8650
 0.9450	43.8480
 0.9460	43.8360
 0.9470	43.8100
 0.9480	43.7920
 0.9490	43.7720
 0.9500	43.7420
 0.9510	43.7210
 0.9520	43.7000
 0.9530	43.6770
 0.9540	43.6540
 0.9550	43.6330
 0.9560	43.6050
 0.9570	43.5760
 0.9580	43.5560
 0.9590	43.5360
 0.9600	43.5150
 0.9610	43.4960
 0.9620	43.4770
 0.9630	43.4560
 0.9640	43.4350
 0.9650	43.4150
 0.9660	43.3970
 0.9670	43.3840
 0.9680	43.3790
 0.9690	43.3690
 0.9700	43.3450
 0.9710	43.3320
 0.9720	43.3230
 0.9730	43.3120
 0.9740	43.2970
 0.9750	43.2980
 0.9760	43.2880
 0.9770	43.2740
 0.9780	43.2730
 0.9790	43.2590
 0.9800	43.2500
 0.9810	43.2470
 0.9820	43.2440
 0.9830	43.2350
 0.9840	43.2280
 0.9850	43.2220
 0.9860	43.2160
 0.9870	43.2030
 0.9880	43.1950
 0.9890	43.1990
 0.9900	43.2110
 0.9910	43.2100
 0.9920	43.1990
 0.9930	43.1860
 0.9940	43.1750
 0.9950	43.1730
 0.9960	43.1830
 0.9970	43.1900
 0.9980	43.1760
 0.9990	43.1610
 1.0000	43.1720
 1.0010	44.1400
 1.0020	44.1390
 1.0030	44.1370
 1.0040	44.1370
 1.0050	44.1400
 1.0060	44.1410
 1.0070	44.1380
 1.0080	44.1360
 1.0090	44.1300
 1.0100	44.1270
 1.0110	44.1280
 1.0120	44.1280
 1.0130	44.1300
 1.0140	44.1310
 1.0150	44.1300
 1.0160	44.1270
 1.0170	44.1260
 1.0180	44.1240
 1.0190	44.1250
 1.0200	44.1300
 1.0210	44.1290
 1.0220	44.1270
 1.0230	44.1280
 1.0240	44.1270
 1.0250	44.1260
 1.0260	44.1250
 1.0270	44.1260
 1.0280	44.1230
 1.0290	44.1250
 1.0300	44.1360
 1.0310	44.1400
 1.0320	44.1410
 1.0330	44.1440
 1.0340	44.1420
 1.0350	44.1410
 1.0360	44.1430
 1.0370	44.1440
 1.0380	44.1460
 1.0390	44.1470
 1.0400	44.1490
 1.0410	44.1490
 1.0420	44.1510
 1.0430	44.1560
 1.0440	44.1580
 1.0450	44.1590
 1.0460	44.1610
 1.0470	44.1630
 1.0480	44.1640
 1.0490	44.1640
 1.0500	44.1650
 1.0510	44.1650
 1.0520	44.1640
 1.0530	44.1640
 1.0540	44.1640
 1.0550	44.1650
 1.0560	44.1670
 1.0570	44.1660
 1.0580	44.1650
 1.0590	44.1620
 1.0600	44.1580
 1.0610	44.1530
 1.0620	44.1470
 1.0630	44.1430
 1.0640	44.1390
 1.0650	44.1330
 1.0660	44.1290
 1.0670	44.1240
 1.0680	44.1180
 1.0690	44.1090
 1.0700	44.1060
 1.0710	44.1050
 1.0720	44.1010
 1.0730	44.1000
 1.0740	44.0950
 1.0750	44.0880
 1.0760	44.0820
 1.0770	44.0770
 1.0780	44.0710
 1.0790	44.0630
 1.0800	44.0570
 1.0810	44.0500
 1.0820	44.0450
 1.0830	44.0430
 1.0840	44.0390
 1.0850	44.0360
 1.0860	44.0320
 1.0870	44.0270
 1.0880	44.0210
 1.0890	44.0160
 1.0900	44.0100
 1.0910	44.0050
 1.0920	43.9990
 1.0930	43.9940
 1.0940	43.9870
 1.0950	43.9840
 1.0960	43.9850
 1.0970	43.9820
 1.0980	43.9790
 1.0990	43.9770
 1.1000	43.9720
 1.1010	43.9680
 1.1020	43.9640
 1.1030	43.9620
 1.1040	43.9590
 1.1050	43.9550
 1.1060	43.9530
 1.1070	43.9520
 1.1080	43.9500
 1.1090	43.9460
 1.1100	43.9430
 1.1110	43.9400
 1.1120	43.9360
 1.1130	43.9320
 1.1140	43.9280
 1.1150	43.9230
 1.1160	43.9200
 1.1170	43.9200
 1.1180	43.9160
 1.1190	43.9080
 1.1200	43.9020
 1.1210	43.8930
 1.1220	43.8820
 1.1230	43.8740
 1.1240	43.8660
 1.1250	43.8560
 1.1260	43.8440
 1.1270	43.8310
 1.1280	43.8140
 1.1290	43.7960
 1.1300	43.7770
 1.1310	43.7570
 1.1320	43.7360
 1.1330	43.7100
 1.1340	43.6820
 1.1350	43.6520
 1.1360	43.6190
 1.1370	43.5820
 1.1380	43.5460
 1.1390	43.5090
 1.1400	43.4680
 1.1410	43.4260
 1.1420	43.3840
 1.1430	43.3400
 1.1440	43.2960
 1.1450	43.2510
 1.1460	43.2080
 1.1470	43.1640
 1.1480	43.1220
 1.1490	43.0820
 1.1500	43.0440
 1.1510	43.0080
 1.1520	42.9730
 1.1530	42.9380
 1.1540	42.9070
 1.1550	42.8750
 1.1560	42.8470
 1.1570	42.8230
 1.1580	42.8020
 1.1590	42.7820
 1.1600	42.7630
 1.1610	42.7450
 1.1620	42.7280
 1.1630	42.7120
 1.1640	42.7000
 1.1650	42.6880
 1.1660	42.6750
 1.1670	42.6630
 1.1680	42.6500
 1.1690	42.6400
 1.1700	42.6300
 1.1710	42.6220
 1.1720	42.6150
 1.1730	42.6060
 1.1740	42.5980
 1.1750	42.5880
 1.1760	42.5780
 1.1770	42.5700
 1.1780	42.5600
 1.1790	42.5500
 1.1800	42.5420
 1.1810	42.5320
 1.1820	42.5230
 1.1830	42.5140
 1.1840	42.5020
 1.1850	42.4890
 1.1860	42.4780
 1.1870	42.4650
 1.1880	42.4550
 1.1890	42.4490
 1.1900	42.4400
 1.1910	42.4310
 1.1920	42.4240
 1.1930	42.4170
 1.1940	42.4100
 1.1950	42.4050
 1.1960	42.3990
 1.1970	42.3920
 1.1980	42.3870
 1.1990	42.3830
 1.2000	42.3790
 1.2010	42.3750
 1.2020	42.3750
 1.2030	42.3730
 1.2040	42.3690
 1.2050	42.3680
 1.2060	42.3660
 1.2070	42.3640
 1.2080	42.3660
 1.2090	42.3670
 1.2100	42.3690
 1.2110	42.3700
 1.2120	42.3710
 1.2130	42.3720
 1.2140	42.3720
 1.2150	42.3730
 1.2160	42.3760
 1.2170	42.3780
 1.2180	42.3830
 1.2190	42.3890
 1.2200	42.3930
 1.2210	42.3980
 1.2220	42.4020
 1.2230	42.4030
 1.2240	42.4070
 1.2250	42.4110
 1.2260	42.4150
 1.2270	42.4200
 1.2280	42.4240
 1.2290	42.4270
 1.2300	42.4300
 1.2310	42.4330
 1.2320	42.4370
 1.2330	42.4410
 1.2340	42.4440
 1.2350	42.4470
 1.2360	42.4480
 1.2370	42.4490
 1.2380	42.4490
 1.2390	42.4510
 1.2400	42.4510
 1.2410	42.4510
 1.2420	42.4530
 1.2430	42.4540
 1.2440	42.4550
 1.2450	42.4590
 1.2460	42.4610
 1.2470	42.4620
 1.2480	42.4620
 1.2490	42.4620
 1.2500	42.4600
 1.2510	42.4590
 1.2520	42.4580
 1.2530	42.4570
 1.2540	42.4550
 1.2550	42.4540
 1.2560	42.4530
 1.2570	42.4500
 1.2580	42.4470
 1.2590	42.4430
 1.2600	42.4370
 1.2610	42.4330
 1.2620	42.4280
 1.2630	42.4250
 1.2640	42.4210
 1.2650	42.4150
 1.2660	42.4090
 1.2670	42.4030
 1.2680	42.3970
 1.2690	42.3920
 1.2700	42.3880
 1.2710	42.3840
 1.2720	42.3810
 1.2730	42.3760
 1.2740	42.3690
 1.2750	42.3630
 1.2760	42.3580
 1.2770	42.3510
 1.2780	42.3440
 1.2790	42.3360
 1.2800	42.3260
 1.2810	42.3160
 1.2820	42.3040
 1.2830	42.2910
 1.2840	42.2790
 1.2850	42.2650
 1.2860	42.2510
 1.2870	42.2360
 1.2880	42.2220
 1.2890	42.2040
 1.2900	42.1860
 1.2910	42.1660
 1.2920	42.1440
 1.2930	42.1210
 1.2940	42.0950
 1.2950	42.0690
 1.2960	42.0410
 1.2970	42.0140
 1.2980	41.9880
 1.2990	41.9600
 1.3000	41.9330
 1.3010	41.9020
 1.3020	41.8690
 1.3030	41.8370
 1.3040	41.8030
 1.3050	41.7710
 1.3060	41.7400
 1.3070	41.7060
 1.3080	41.6740
 1.3090	41.6400
 1.3100	41.6060
 1.3110	41.5720
 1.3120	41.5360
 1.3130	41.5000
 1.3140	41.4630
 1.3150	41.4260
 1.3160	41.3880
 1.3170	41.3500
 1.3180	41.3110
 1.3190	41.2740
 1.3200	41.2360
 1.3210	41.1970
 1.3220	41.1600
 1.3230	41.1190
 1.3240	41.0780
 1.3250	41.0370
 1.3260	40.9950
 1.3270	40.9530
 1.3280	40.9110
 1.3290	40.8680
 1.3300	40.8230
 1.3310	40.7770
 1.3320	40.7310
 1.3330	40.6840
 1.3340	40.6370
 1.3350	40.5920
 1.3360	40.5460
 1.3370	40.5000
 1.3380	40.4540
 1.3390	40.4080
 1.3400	40.3610
 1.3410	40.3150
 1.3420	40.2690
 1.3430	40.2220
 1.3440	40.1770
 1.3450	40.1320
 1.3460	40.0860
 1.3470	40.0410
 1.3480	39.9970
 1.3490	39.9520
 1.3500	39.9070
 1.3510	39.8630
 1.3520	39.8160
 1.3530	39.7700
 1.3540	39.7230
 1.3550	39.6750
 1.3560	39.6270
 1.3570	39.5790
 1.3580	39.5300
 1.3590	39.4810
 1.3600	39.4300
 1.3610	39.3780
 1.3620	39.3240
 1.3630	39.2670
 1.3640	39.2070
 1.3650	39.1440
 1.3660	39.0770
 1.3670	39.0060
 1.3680	38.9300
 1.3690	38.8490
 1.3700	38.7620
 1.3710	38.6690
 1.3720	38.5690
 1.3730	38.4610
 1.3740	38.3440
 1.3750	38.2150
 1.3760	38.0740
 1.3770	37.9210
 1.3780	37.7540
 1.3790	37.5740
 1.3800	37.3820
 1.3810	37.1730
 1.3820	36.9520
 1.3830	36.7180
 1.3840	36.4670
 1.3850	36.2030
 1.3860	35.9240
 1.3870	35.6280
 1.3880	35.3230
 1.3890	35.0050
 1.3900	34.6740
 1.3910	34.3370
 1.3920	33.9910
 1.3930	33.6350
 1.3940	33.2750
 1.3950	32.9060
 1.3960	32.5360
 1.3970	32.1660
 1.3980	31.7970
 1.3990	31.4350
 1.4000	31.0770
 1.4010	30.7220
 1.4020	30.3770
 1.4030	30.0390
 1.4040	29.7120
 1.4050	29.3950
 1.4060	29.0890
 1.4070	28.7960
 1.4080	28.5160
 1.4090	28.2490
 1.4100	27.9960
 1.4110	27.7560
 1.4120	27.5290
 1.4130	27.3150
 1.4140	27.1150
 1.4150	26.9290
 1.4160	26.7540
 1.4170	26.5910
 1.4180	26.4400
 1.4190	26.2970
 1.4200	26.1630
 1.4210	26.0400
 1.4220	25.9240
 1.4230	25.8190
 1.4240	25.7230
 1.4250	25.6340
 1.4260	25.5530
 1.4270	25.4770
 1.4280	25.4090
 1.4290	25.3470
 1.4300	25.2910
 1.4310	25.2400
 1.4320	25.1950
 1.4330	25.1550
 1.4340	25.1210
 1.4350	25.0900
 1.4360	25.0650
 1.4370	25.0440
 1.4380	25.0260
 1.4390	25.0110
 1.4400	24.9980
 1.4410	24.9890
 1.4420	24.9840
 1.4430	24.9810
 1.4440	24.9800
 1.4450	24.9820
 1.4460	24.9850
 1.4470	24.9900
 1.4480	24.9970
 1.4490	25.0050
 1.4500	25.0160
 1.4510	25.0280
 1.4520	25.0410
 1.4530	25.0570
 1.4540	25.0720
 1.4550	25.0910
 1.4560	25.1120
 1.4570	25.1360
 1.4580	25.1630
 1.4590	25.1930
 1.4600	25.2250
 1.4610	25.2610
 1.4620	25.3010
 1.4630	25.3460
 1.4640	25.3940
 1.4650	25.4460
 1.4660	25.5030
 1.4670	25.5640
 1.4680	25.6300
 1.4690	25.7000
 1.4700	25.7730
 1.4710	25.8510
 1.4720	25.9320
 1.4730	26.0150
 1.4740	26.1000
 1.4750	26.1860
 1.4760	26.2750
 1.4770	26.3670
 1.4780	26.4600
 1.4790	26.5560
 1.4800	26.6530
 1.4810	26.7500
 1.4820	26.8480
 1.4830	26.9470
 1.4840	27.0460
 1.4850	27.1460
 1.4860	27.2470
 1.4870	27.3480
 1.4880	27.4480
 1.4890	27.5490
 1.4900	27.6510
 1.4910	27.7520
 1.4920	27.8540
 1.4930	27.9570
 1.4940	28.0590
 1.4950	28.1610
 1.4960	28.2620
 1.4970	28.3610
 1.4980	28.4620
 1.4990	28.5630
 1.5000	28.6640
 1.5010	28.7680
 1.5020	28.8690
 1.5030	28.9710
 1.5040	29.0710
 1.5050	29.1680
 1.5060	29.2660
 1.5070	29.3640
 1.5080	29.4620
 1.5090	29.5600
 1.5100	29.6580
 1.5110	29.7550
 1.5120	29.8500
 1.5130	29.9440
 1.5140	30.0390
 1.5150	30.1320
 1.5160	30.2230
 1.5170	30.3160
 1.5180	30.4070
 1.5190	30.4970
 1.5200	30.5880
 1.5210	30.6760
 1.5220	30.7620
 1.5230	30.8490
 1.5240	30.9340
 1.5250	31.0180
 1.5260	31.1020
 1.5270	31.1850
 1.5280	31.2680
 1.5290	31.3470
 1.5300	31.4260
 1.5310	31.5050
 1.5320	31.5810
 1.5330	31.6570
 1.5340	31.7310
 1.5350	31.8040
 1.5360	31.8770
 1.5370	31.9480
 1.5380	32.0200
 1.5390	32.0910
 1.5400	32.1600
 1.5410	32.2280
 1.5420	32.2960
 1.5430	32.3630
 1.5440	32.4300
 1.5450	32.4960
 1.5460	32.5610
 1.5470	32.6250
 1.5480	32.6870
 1.5490	32.7500
 1.5500	32.8110
 1.5510	32.8720
 1.5520	32.9320
 1.5530	32.9900
 1.5540	33.0490
 1.5550	33.1070
 1.5560	33.1640
 1.5570	33.2200
 1.5580	33.2750
 1.5590	33.3270
 1.5600	33.3800
 1.5610	33.4320
 1.5620	33.4830
 1.5630	33.5340
 1.5640	33.5830
 1.5650	33.6310
 1.5660	33.6780
 1.5670	33.7250
 1.5680	33.7720
 1.5690	33.8170
 1.5700	33.8610
 1.5710	33.9040
 1.5720	33.9460
 1.5730	33.9890
 1.5740	34.0330
 1.5750	34.0760
 1.5760	34.1190
 1.5770	34.1610
 1.5780	34.2000
 1.5790	34.2410
 1.5800	34.2800
 1.5810	34.3190
 1.5820	34.3590
 1.5830	34.3990
 1.5840	34.4390
 1.5850	34.4790
 1.5860	34.5190
 1.5870	34.5600
 1.5880	34.5970
 1.5890	34.6340
 1.5900	34.6710
 1.5910	34.7090
 1.5920	34.7480
 1.5930	34.7880
 1.5940	34.8280
 1.5950	34.8660
 1.5960	34.9040
 1.5970	34.9420
 1.5980	34.9790
 1.5990	35.0170
 1.6000	35.0530
 1.6010	35.0860
 1.6020	35.1210
 1.6030	35.1540
 1.6040	35.1900
 1.6050	35.2260
 1.6060	35.2590
 1.6070	35.2930
 1.6080	35.3250
 1.6090	35.3550
 1.6100	35.3860
 1.6110	35.4160
 1.6120	35.4450
 1.6130	35.4720
 1.6140	35.5000
 1.6150	35.5270
 1.6160	35.5550
 1.6170	35.5820
 1.6180	35.6090
 1.6190	35.6360
 1.6200	35.6600
 1.6210	35.6860
 1.6220	35.7100
 1.6230	35.7350
 1.6240	35.7600
 1.6250	35.7830
 1.6260	35.8060
 1.6270	35.8270
 1.6280	35.8470
 1.6290	35.8680
 1.6300	35.8890
 1.6310	35.9080
 1.6320	35.9270
 1.6330	35.9440
 1.6340	35.9600
 1.6350	35.9760
 1.6360	35.9920
 1.6370	36.0070
 1.6380	36.0220
 1.6390	36.0350
 1.6400	36.0470
 1.6410	36.0590
 1.6420	36.0700
 1.6430	36.0810
 1.6440	36.0920
 1.6450	36.1020
 1.6460	36.1130
 1.6470	36.1210
 1.6480	36.1270
 1.6490	36.1350
 1.6500	36.1410
 1.6510	36.1460
 1.6520	36.1500
 1.6530	36.1510
 1.6540	36.1510
 1.6550	36.1500
 1.6560	36.1490
 1.6570	36.1450
 1.6580	36.1400
 1.6590	36.1360
 1.6600	36.1320
 1.6610	36.1300
 1.6620	36.1270
 1.6630	36.1250
 1.6640	36.1210
 1.6650	36.1160
 1.6660	36.1120
 1.6670	36.1050
 1.6680	36.0990
 1.6690	36.0940
 1.6700	36.0860
 1.6710	36.0760
 1.6720	36.0660
 1.6730	36.0500
 1.6740	36.0350
 1.6750	36.0190
 1.6760	36.0000
 1.6770	35.9840
 1.6780	35.9640
 1.6790	35.9440
 1.6800	35.9230
 1.6810	35.8980
 1.6820	35.8720
 1.6830	35.8460
 1.6840	35.8180
 1.6850	35.7880
 1.6860	35.7610
 1.6870	35.7320
 1.6880	35.7030
 1.6890	35.6750
 1.6900	35.6470
 1.6910	35.6170
 1.6920	35.5890
 1.6930	35.5620
 1.6940	35.5340
 1.6950	35.5080
 1.6960	35.4810
 1.6970	35.4530
 1.6980	35.4260
 1.6990	35.4020
 1.7000	35.3760
 1.7010	35.3500
 1.7020	35.3250
 1.7030	35.2980
 1.7040	35.2720
 1.7050	35.2470
 1.7060	35.2220
 1.7070	35.1980
 1.7080	35.1710
 1.7090	35.1420
 1.7100	35.1130
 1.7110	35.0820
 1.7120	35.0520
 1.7130	35.0260
 1.7140	34.9960
 1.7150	34.9660
 1.7160	34.9390
 1.7170	34.9100
 1.7180	34.8850
 1.7190	34.8600
 1.7200	34.8300
 1.7210	34.8000
 1.7220	34.7700
 1.7230	34.7400
 1.7240	34.7130
 1.7250	34.6840
 1.7260	34.6560
 1.7270	34.6310
 1.7280	34.6070
 1.7290	34.5840
 1.7300	34.5600
 1.7310	34.5390
 1.7320	34.5190
 1.7330	34.5000
 1.7340	34.4860
 1.7350	34.4690
 1.7360	34.4530
 1.7370	34.4360
 1.7380	34.4190
 1.7390	34.3990
 1.7400	34.3780
 1.7410	34.3560
 1.7420	34.3320
 1.7430	34.3070
 1.7440	34.2820
 1.7450	34.2530
 1.7460	34.2190
 1.7470	34.1860
 1.7480	34.1530
 1.7490	34.1170
 1.7500	34.0790
 1.7510	34.0430
 1.7520	34.0040
 1.7530	33.9670
 1.7540	33.9330
 1.7550	33.8950
 1.7560	33.8540
 1.7570	33.8150
 1.7580	33.7740
 1.7590	33.7360
 1.7600	33.7010
 1.7610	33.6650
 1.7620	33.6310
 1.7630	33.5970
 1.7640	33.5650
 1.7650	33.5350
 1.7660	33.5050
 1.7670	33.4760
 1.7680	33.4490
 1.7690	33.4250
 1.7700	33.4010
 1.7710	33.3790
 1.7720	33.3560
 1.7730	33.3330
 1.7740	33.3120
 1.7750	33.2910
 1.7760	33.2720
 1.7770	33.2530
 1.7780	33.2370
 1.7790	33.2220
 1.7800	33.2080
 1.7810	33.1950
 1.7820	33.1830
 1.7830	33.1690
 1.7840	33.1590
 1.7850	33.1500
 1.7860	33.1420
 1.7870	33.1370
 1.7880	33.1310
 1.7890	33.1280
 1.7900	33.1240
 1.7910	33.1210
 1.7920	33.1180
 1.7930	33.1170
 1.7940	33.1180
 1.7950	33.1190
 1.7960	33.1200
 1.7970	33.1210
 1.7980	33.1220
 1.7990	33.1240
 1.8000	33.1290
 1.8010	33.1330
 1.8020	33.1380
 1.8030	33.1430
 1.8040	33.1470
 1.8050	33.1520
 1.8060	33.1570
 1.8070	33.1620
 1.8080	33.1670
 1.8090	33.1720
 1.8100	33.1780
 1.8110	33.1830
 1.8120	33.1860
 1.8130	33.1880
 1.8140	33.1880
 1.8150	33.1870
 1.8160	33.1850
 1.8170	33.1890
 1.8180	33.1930
 1.8190	33.1970
 1.8200	33.1980
 1.8210	33.1960
 1.8220	33.1940
 1.8230	33.1930
 1.8240	33.1910
 1.8250	33.1890
 1.8260	33.1850
 1.8270	33.1780
 1.8280	33.1700
 1.8290	33.1590
 1.8300	33.1480
 1.8310	33.1800
 1.8320	33.1660
 1.8330	33.1450
 1.8340	33.1220
 1.8350	33.1030
 1.8360	33.0760
 1.8370	33.0480
 1.8380	33.0220
 1.8390	32.9900
 1.8400	32.9540
 1.8410	32.9160
 1.8420	32.8780
 1.8430	32.8320
 1.8440	32.7820
 1.8450	32.7270
 1.8460	32.6660
 1.8470	32.6010
 1.8480	32.5290
 1.8490	32.4480
 1.8500	32.3600
 1.8510	32.2650
 1.8520	32.1590
 1.8530	32.0460
 1.8540	31.9290
 1.8550	31.8030
 1.8560	31.6680
 1.8570	31.5220
 1.8580	31.3630
 1.8590	31.1920
 1.8600	31.0070
 1.8610	30.8070
 1.8620	30.5940
 1.8630	30.3680
 1.8640	30.1280
 1.8650	29.8720
 1.8660	29.6000
 1.8670	29.3120
 1.8680	29.0030
 1.8690	28.6740
 1.8700	28.3260
 1.8710	27.9600
 1.8720	27.5790
 1.8730	27.1770
 1.8740	26.7570
 1.8750	26.3210
 1.8760	25.8660
 1.8770	25.4020
 1.8780	24.9260
 1.8790	24.4310
 1.8800	23.9330
 1.8810	23.4260
 1.8820	22.9060
 1.8830	22.3800
 1.8840	21.8540
 1.8850	21.3210
 1.8860	20.7900
 1.8870	20.2630
 1.8880	19.7380
 1.8890	19.2220
 1.8900	18.7150
 1.8910	18.2260
 1.8920	17.7470
 1.8930	17.2930
 1.8940	16.8570
 1.8950	16.4430
 1.8960	16.0530
 1.8970	15.6830
 1.8980	15.3350
 1.8990	15.0130
 1.9000	14.7100
 1.9010	14.4310
 1.9020	14.1720
 1.9030	13.9370
 1.9040	13.7190
 1.9050	13.5240
 1.9060	13.3470
 1.9070	13.1860
 1.9080	13.0410
 1.9090	12.9100
 1.9100	12.7900
 1.9110	12.6830
 1.9120	12.5920
 1.9130	12.5080
 1.9140	12.4340
 1.9150	12.3680
 1.9160	12.3120
 1.9170	12.2580
 1.9180	12.2100
 1.9190	12.1700
 1.9200	12.1320
 1.9210	12.1010
 1.9220	12.0760
 1.9230	12.0610
 1.9240	12.0460
 1.9250	12.0360
 1.9260	12.0310
 1.9270	12.0300
 1.9280	12.0310
 1.9290	12.0350
 1.9300	12.0430
 1.9310	12.0540
 1.9320	12.0690
 1.9330	12.0870
 1.9340	12.1120
 1.9350	12.1380
 1.9360	12.1660
 1.9370	12.1980
 1.9380	12.2320
 1.9390	12.2710
 1.9400	12.3110
 1.9410	12.3520
 1.9420	12.3940
 1.9430	12.4380
 1.9440	12.4840
 1.9450	12.5310
 1.9460	12.5820
 1.9470	12.6360
 1.9480	12.6910
 1.9490	12.7480
 1.9500	12.8070
 1.9510	12.8670
 1.9520	12.9270
 1.9530	12.9910
 1.9540	13.0550
 1.9550	13.1210
 1.9560	13.1920
 1.9570	13.2620
 1.9580	13.3360
 1.9590	13.4080
 1.9600	13.4790
 1.9610	13.5520
 1.9620	13.6270
 1.9630	13.6990
 1.9640	13.7770
 1.9650	13.8560
 1.9660	13.9310
 1.9670	14.0130
 1.9680	14.0950
 1.9690	14.1770
 1.9700	14.2610
 1.9710	14.3470
 1.9720	14.4330
 1.9730	14.5210
 1.9740	14.6070
 1.9750	14.6960
 1.9760	14.7860
 1.9770	14.8730
 1.9780	14.9610
 1.9790	15.0500
 1.9800	15.1390
 1.9810	15.2310
 1.9820	15.3260
 1.9830	15.4200
 1.9840	15.5160
 1.9850	15.6110
 1.9860	15.7060
 1.9870	15.8020
 1.9880	15.8960
 1.9890	15.9940
 1.9900	16.0940
 1.9910	16.1910
 1.9920	16.2870
 1.9930	16.3840
 1.9940	16.4810
 1.9950	16.5750
 1.9960	16.6710
 1.9970	16.7670
 1.9980	16.8630
 1.9990	16.9580
 2.0000	17.0540
 2.0010	17.1490
 2.0020	17.2450
 2.0030	17.3390
 2.0040	17.4330
 2.0050	17.5270
 2.0060	17.6230
 2.0070	17.7150
 2.0080	17.8040
 2.0090	17.8950
 2.0100	17.9840
 2.0110	18.0720
 2.0120	18.1600
 2.0130	18.2480
 2.0140	18.3360
 2.0150	18.4240
 2.0160	18.5130
 2.0170	18.6010
 2.0180	18.6860
 2.0190	18.7680
 2.0200	18.8490
 2.0210	18.9260
 2.0220	19.0040
 2.0230	19.0810
 2.0240	19.1570
 2.0250	19.2320
 2.0260	19.3050
 2.0270	19.3750
 2.0280	19.4460
 2.0290	19.5160
 2.0300	19.5840
 2.0310	19.6510
 2.0320	19.7150
 2.0330	19.7800
 2.0340	19.8450
 2.0350	19.9060
 2.0360	19.9650
 2.0370	20.0230
 2.0380	20.0770
 2.0390	20.1310
 2.0400	20.1860
 2.0410	20.2380
 2.0420	20.2890
 2.0430	20.3370
 2.0440	20.3870
 2.0450	20.4360
 2.0460	20.4850
 2.0470	20.5350
 2.0480	20.5820
 2.0490	20.6280
 2.0500	20.6740
 2.0510	20.7180
 2.0520	20.7650
 2.0530	20.8140
 2.0540	20.8630
 2.0550	20.9130
 2.0560	20.9660
 2.0570	21.0150
 2.0580	21.0630
 2.0590	21.1130
 2.0600	21.1630
 2.0610	21.2160
 2.0620	21.2750
 2.0630	21.3290
 2.0640	21.3810
 2.0650	21.4350
 2.0660	21.4880
 2.0670	21.5430
 2.0680	21.6000
 2.0690	21.6570
 2.0700	21.7140
 2.0710	21.7700
 2.0720	21.8280
 2.0730	21.8830
 2.0740	21.9360
 2.0750	21.9880
 2.0760	22.0400
 2.0770	22.0900
 2.0780	22.1430
 2.0790	22.1960
 2.0800	22.2510
 2.0810	22.3090
 2.0820	22.3650
 2.0830	22.4240
 2.0840	22.4790
 2.0850	22.5320
 2.0860	22.5840
 2.0870	22.6310
 2.0880	22.6780
 2.0890	22.7270
 2.0900	22.7750
 2.0910	22.8270
 2.0920	22.8820
 2.0930	22.9330
 2.0940	22.9830
 2.0950	23.0310
 2.0960	23.0740
 2.0970	23.1210
 2.0980	23.1680
 2.0990	23.2170
 2.1000	23.2680
 2.1010	23.3170
 2.1020	23.3660
 2.1030	23.4130
 2.1040	23.4580
 2.1050	23.5040
 2.1060	23.5480
 2.1070	23.5900
 2.1080	23.6340
 2.1090	23.6790
 2.1100	23.7230
 2.1110	23.7670
 2.1120	23.8120
 2.1130	23.8580
 2.1140	23.9020
 2.1150	23.9480
 2.1160	23.9930
 2.1170	24.0380
 2.1180	24.0810
 2.1190	24.1230
 2.1200	24.1660
 2.1210	24.2090
 2.1220	24.2500
 2.1230	24.2910
 2.1240	24.3320
 2.1250	24.3710
 2.1260	24.4080
 2.1270	24.4470
 2.1280	24.4870
 2.1290	24.5250
 2.1300	24.5630
 2.1310	24.5980
 2.1320	24.6330
 2.1330	24.6650
 2.1340	24.6950
 2.1350	24.7230
 2.1360	24.7470
 2.1370	24.7730
 2.1380	24.7980
 2.1390	24.8230
 2.1400	24.8500
 2.1410	24.8750
 2.1420	24.9000
 2.1430	24.9240
 2.1440	24.9470
 2.1450	24.9690
 2.1460	24.9900
 2.1470	25.0100
 2.1480	25.0290
 2.1490	25.0450
 2.1500	25.0620
 2.1510	25.0770
 2.1520	25.0930
 2.1530	25.1100
 2.1540	25.1240
 2.1550	25.1360
 2.1560	25.1470
 2.1570	25.1540
 2.1580	25.1620
 2.1590	25.1720
 2.1600	25.1800
 2.1610	25.1850
 2.1620	25.1910
 2.1630	25.1970
 2.1640	25.2000
 2.1650	25.2050
 2.1660	25.2130
 2.1670	25.2180
 2.1680	25.2200
 2.1690	25.2270
 2.1700	25.2380
 2.1710	25.2470
 2.1720	25.2570
 2.1730	25.2670
 2.1740	25.2740
 2.1750	25.2850
 2.1760	25.2990
 2.1770	25.3120
 2.1780	25.3220
 2.1790	25.3360
 2.1800	25.3540
 2.1810	25.3690
 2.1820	25.3850
 2.1830	25.4020
 2.1840	25.4130
 2.1850	25.4200
 2.1860	25.4290
 2.1870	25.4370
 2.1880	25.4470
 2.1890	25.4600
 2.1900	25.4730
 2.1910	25.4870
 2.1920	25.4980
 2.1930	25.5080
 2.1940	25.5170
 2.1950	25.5220
 2.1960	25.5300
 2.1970	25.5370
 2.1980	25.5440
 2.1990	25.5550
 2.2000	25.5610
 2.2010	25.5660
 2.2020	25.5680
 2.2030	25.5630
 2.2040	25.5610
 2.2050	25.5580
 2.2060	25.5520
 2.2070	25.5460
 2.2080	25.5400
 2.2090	25.5330
 2.2100	25.5250
 2.2110	25.5180
 2.2120	25.5130
 2.2130	25.5040
 2.2140	25.4920
 2.2150	25.4810
 2.2160	25.4690
 2.2170	25.4570
 2.2180	25.4480
 2.2190	25.4330
 2.2200	25.4150
 2.2210	25.3960
 2.2220	25.3700
 2.2230	25.3470
 2.2240	25.3270
 2.2250	25.3020
 2.2260	25.2780
 2.2270	25.2480
 2.2280	25.2170
 2.2290	25.1770
 2.2300	25.1310
 2.2310	25.0790
 2.2320	25.0240
 2.2330	24.9650
 2.2340	24.9060
 2.2350	24.8470
 2.2360	24.7830
 2.2370	24.7160
 2.2380	24.6460
 2.2390	24.5710
 2.2400	24.4990
 2.2410	24.4180
 2.2420	24.3510
 2.2430	24.2860
 2.2440	24.2300
 2.2450	24.1880
 2.2460	24.1400
 2.2470	24.0960
 2.2480	24.0560
 2.2490	24.0140
 2.2500	23.9790
 2.2510	23.9580
 2.2520	23.9290
 2.2530	23.9020
 2.2540	23.8710
 2.2550	23.8350
 2.2560	23.8000
 2.2570	23.7680
 2.2580	23.7310
 2.2590	23.6920
 2.2600	23.6520
 2.2610	23.6090
 2.2620	23.5650
 2.2630	23.5240
 2.2640	23.4800
 2.2650	23.4340
 2.2660	23.3870
 2.2670	23.3390
 2.2680	23.2900
 2.2690	23.2420
 2.2700	23.1940
 2.2710	23.1470
 2.2720	23.0970
 2.2730	23.0540
 2.2740	23.0150
 2.2750	22.9760
 2.2760	22.9410
 2.2770	22.9030
 2.2780	22.8610
 2.2790	22.8270
 2.2800	22.7950
 2.2810	22.7650
 2.2820	22.7400
 2.2830	22.7130
 2.2840	22.6830
 2.2850	22.6540
 2.2860	22.6310
 2.2870	22.6020
 2.2880	22.5720
 2.2890	22.5370
 2.2900	22.4950
 2.2910	22.4560
 2.2920	22.4160
 2.2930	22.3740
 2.2940	22.3360
 2.2950	22.2920
 2.2960	22.2450
 2.2970	22.1960
 2.2980	22.1420
 2.2990	22.0870
 2.3000	22.0340
 2.3010	21.9760
 2.3020	21.9100
 2.3030	21.8440
 2.3040	21.7850
 2.3050	21.7260
 2.3060	21.6740
 2.3070	21.6260
 2.3080	21.5720
 2.3090	21.5160
 2.3100	21.4580
 2.3110	21.4050
 2.3120	21.3600
 2.3130	21.3150
 2.3140	21.2820
 2.3150	21.2610
 2.3160	21.2410
 2.3170	21.2300
 2.3180	21.2160
 2.3190	21.2050
 2.3200	21.1930
 2.3210	21.1810
 2.3220	21.1630
 2.3230	21.1460
 2.3240	21.1220
 2.3250	21.0850
 2.3260	21.0550
 2.3270	21.0250
 2.3280	20.9960
 2.3290	20.9730
 2.3300	20.9400
 2.3310	20.8980
 2.3320	20.8640
 2.3330	20.8300
 2.3340	20.7940
 2.3350	20.7670
 2.3360	20.7300
 2.3370	20.6810
 2.3380	20.6380
 2.3390	20.5940
 2.3400	20.5510
 2.3410	20.5080
 2.3420	20.4670
 2.3430	20.4280
 2.3440	20.3870
 2.3450	20.3470
 2.3460	20.3090
 2.3470	20.2730
 2.3480	20.2340
 2.3490	20.1890
 2.3500	20.1520
 2.3510	20.1150
 2.3520	20.0800
 2.3530	20.0500
 2.3540	20.0310
 2.3550	20.0030
 2.3560	19.9740
 2.3570	19.9460
 2.3580	19.9180
 2.3590	19.8930
 2.3600	19.8640
 2.3610	19.8410
 2.3620	19.8190
 2.3630	19.7850
 2.3640	19.7510
 2.3650	19.7160
 2.3660	19.6830
 2.3670	19.6560
 2.3680	19.6280
 2.3690	19.5970
 2.3700	19.5590
 2.3710	19.5180
 2.3720	19.4820
 2.3730	19.4460
 2.3740	19.4080
 2.3750	19.3710
 2.3760	19.3300
 2.3770	19.2820
 2.3780	19.2340
 2.3790	19.1910
 2.3800	19.1390
 2.3810	19.0860
 2.3820	19.0430
 2.3830	18.9950
 2.3840	18.9530
 2.3850	18.9180
 2.3860	18.8760
 2.3870	18.8370
 2.3880	18.8010
 2.3890	18.7550
 2.3900	18.7060
 2.3910	18.6580
 2.3920	18.6080
 2.3930	18.5640
 2.3940	18.5200
 2.3950	18.4700
 2.3960	18.4200
 2.3970	18.3650
 2.3980	18.3170
 2.3990	18.2750
 2.4000	18.2260
 2.4010	18.1880
 2.4020	18.1490
 2.4030	18.0990
 2.4040	18.0550
 2.4050	18.0030
 2.4060	17.9490
 2.4070	17.8930
 2.4080	17.8400
 2.4090	17.7860
 2.4100	17.7300
 2.4110	17.6750
 2.4120	17.6160
 2.4130	17.5660
 2.4140	17.5260
 2.4150	17.4820
 2.4160	17.4370
 2.4170	17.3790
 2.4180	17.3160
 2.4190	17.2600
 2.4200	17.2130
 2.4210	17.1750
 2.4220	17.1280
 2.4230	17.0800
 2.4240	17.0310
 2.4250	16.9720
 2.4260	16.9220
 2.4270	16.8670
 2.4280	16.8090
 2.4290	16.7600
 2.4300	16.7020
 2.4310	16.6360
 2.4320	16.5660
 2.4330	16.4970
 2.4340	16.4330
 2.4350	16.3780
 2.4360	16.3320
 2.4370	16.2880
 2.4380	16.2330
 2.4390	16.1600
 2.4400	16.0920
 2.4410	16.0180
 2.4420	15.9460
 2.4430	15.8970
 2.4440	15.8330
 2.4450	15.7770
 2.4460	15.7420
 2.4470	15.6810
 2.4480	15.6270
 2.4490	15.5860
 2.4500	15.5240
 2.4510	15.4730
 2.4520	15.4350
 2.4530	15.3810
 2.4540	15.3070
 2.4550	15.2250
 2.4560	15.1570
 2.4570	15.0910
 2.4580	15.0440
 2.4590	15.0170
 2.4600	14.9810
 2.4610	14.9310
 2.4620	14.8670
 2.4630	14.8160
 2.4640	14.7510
 2.4650	14.6900
 2.4660	14.6630
 2.4670	14.6080
 2.4680	14.5600
 2.4690	14.5290
 2.4700	14.4780
 2.4710	14.4180
 2.4720	14.3630
 2.4730	14.2890
 2.4740	14.2460
 2.4750	14.2360
 2.4760	14.2160
 2.4770	14.2170
 2.4780	14.1860
 2.4790	14.1190
 2.4800	14.0750
 2.4810	14.0320
 2.4820	14.0000
 2.4830	13.9710
 2.4840	13.9310
 2.4850	13.8870
 2.4860	13.8720
 2.4870	13.8420
 2.4880	13.8180
 2.4890	13.8120
 2.4900	13.7650
 2.4910	13.7400
 2.4920	13.7420
 2.4930	13.7060
 2.4940	13.6640
 2.4950	13.6420
 2.4960	13.5960
 2.4970	13.5500
 2.4980	13.5500
 2.4990	13.5460
 2.5000	13.5420
