Name: Ceanothus megacarpus 3
Type: vegetation
Class: Shrub
Genus: Ceanothus
Species: megacarpus
Sample No.: VH144
Owner: UCSB
Wavelength Range: VSWIR
Origin: 34.4909; -119.7914; WGS84
Collection Date: 6/3/2013
Description: Samples were collected as part of the HyspIRI Airborne Campaign. 48 individual plants were sampled in three times in 2013 - spring  summer  and fall. The name of the sample includes a 1  2  or 3 which references a different individual of the species. Samples were taken to JPL and processed within 48 hours of collection. The same leaves were processed in the Nicolet and then measured using the ASD.
Measurement: Bidirectional reflectance
First Column: X
Second Column: Y
X Units: Wavelength (micrometers)
Y Units: Reflectance (percentage)
First X Value: 0.35
Last X Value: 2.5
Number of X Values: 2151
Additional Information: vegetation.shrub.ceanothus.megacarpus.vswir.vh144.ucsb.asd.ancillary.txt

 0.3500	 4.3910
 0.3510	 4.3770
 0.3520	 4.3990
 0.3530	 4.4490
 0.3540	 4.4990
 0.3550	 4.4250
 0.3560	 4.4030
 0.3570	 4.3980
 0.3580	 4.2980
 0.3590	 4.2870
 0.3600	 4.2970
 0.3610	 4.2850
 0.3620	 4.2740
 0.3630	 4.2640
 0.3640	 4.2580
 0.3650	 4.2500
 0.3660	 4.1760
 0.3670	 4.2330
 0.3680	 4.3540
 0.3690	 4.3100
 0.3700	 4.2660
 0.3710	 4.2690
 0.3720	 4.2940
 0.3730	 4.2160
 0.3740	 4.1790
 0.3750	 4.1860
 0.3760	 4.2010
 0.3770	 4.2410
 0.3780	 4.2640
 0.3790	 4.2810
 0.3800	 4.3360
 0.3810	 4.2240
 0.3820	 4.1080
 0.3830	 4.1140
 0.3840	 4.1410
 0.3850	 4.2320
 0.3860	 4.2750
 0.3870	 4.1630
 0.3880	 4.1410
 0.3890	 4.1450
 0.3900	 4.1540
 0.3910	 4.2050
 0.3920	 4.1940
 0.3930	 4.1690
 0.3940	 4.1800
 0.3950	 4.1950
 0.3960	 4.1810
 0.3970	 4.1590
 0.3980	 4.1700
 0.3990	 4.1860
 0.4000	 4.1670
 0.4010	 4.1190
 0.4020	 4.1010
 0.4030	 4.1280
 0.4040	 4.1600
 0.4050	 4.1590
 0.4060	 4.1200
 0.4070	 4.1110
 0.4080	 4.1270
 0.4090	 4.1220
 0.4100	 4.1050
 0.4110	 4.0980
 0.4120	 4.1110
 0.4130	 4.1370
 0.4140	 4.1440
 0.4150	 4.1490
 0.4160	 4.1710
 0.4170	 4.1710
 0.4180	 4.1620
 0.4190	 4.1580
 0.4200	 4.1730
 0.4210	 4.1800
 0.4220	 4.1910
 0.4230	 4.2200
 0.4240	 4.2580
 0.4250	 4.2960
 0.4260	 4.3230
 0.4270	 4.3330
 0.4280	 4.3550
 0.4290	 4.3820
 0.4300	 4.4110
 0.4310	 4.4460
 0.4320	 4.4720
 0.4330	 4.4950
 0.4340	 4.5270
 0.4350	 4.5670
 0.4360	 4.5970
 0.4370	 4.6170
 0.4380	 4.6400
 0.4390	 4.6590
 0.4400	 4.6790
 0.4410	 4.7000
 0.4420	 4.7180
 0.4430	 4.7450
 0.4440	 4.7700
 0.4450	 4.7810
 0.4460	 4.8090
 0.4470	 4.8330
 0.4480	 4.8470
 0.4490	 4.8720
 0.4500	 4.8890
 0.4510	 4.9070
 0.4520	 4.9310
 0.4530	 4.9480
 0.4540	 4.9560
 0.4550	 4.9610
 0.4560	 4.9730
 0.4570	 5.0060
 0.4580	 5.0330
 0.4590	 5.0370
 0.4600	 5.0280
 0.4610	 5.0390
 0.4620	 5.0590
 0.4630	 5.0670
 0.4640	 5.0670
 0.4650	 5.0700
 0.4660	 5.0790
 0.4670	 5.0890
 0.4680	 5.0960
 0.4690	 5.0960
 0.4700	 5.0880
 0.4710	 5.0940
 0.4720	 5.0980
 0.4730	 5.1000
 0.4740	 5.1060
 0.4750	 5.1020
 0.4760	 5.1000
 0.4770	 5.1040
 0.4780	 5.0970
 0.4790	 5.1050
 0.4800	 5.1190
 0.4810	 5.1200
 0.4820	 5.1150
 0.4830	 5.1240
 0.4840	 5.1450
 0.4850	 5.1530
 0.4860	 5.1660
 0.4870	 5.1820
 0.4880	 5.1940
 0.4890	 5.2000
 0.4900	 5.2150
 0.4910	 5.2370
 0.4920	 5.2520
 0.4930	 5.2690
 0.4940	 5.2900
 0.4950	 5.3160
 0.4960	 5.3480
 0.4970	 5.3750
 0.4980	 5.4010
 0.4990	 5.4340
 0.5000	 5.4710
 0.5010	 5.5170
 0.5020	 5.5650
 0.5030	 5.6070
 0.5040	 5.6660
 0.5050	 5.7310
 0.5060	 5.7920
 0.5070	 5.8590
 0.5080	 5.9430
 0.5090	 6.0340
 0.5100	 6.1170
 0.5110	 6.2080
 0.5120	 6.3090
 0.5130	 6.4190
 0.5140	 6.5360
 0.5150	 6.6620
 0.5160	 6.7940
 0.5170	 6.9320
 0.5180	 7.0780
 0.5190	 7.2230
 0.5200	 7.3720
 0.5210	 7.5350
 0.5220	 7.6990
 0.5230	 7.8590
 0.5240	 8.0130
 0.5250	 8.1630
 0.5260	 8.3140
 0.5270	 8.4610
 0.5280	 8.5960
 0.5290	 8.7240
 0.5300	 8.8430
 0.5310	 8.9520
 0.5320	 9.0530
 0.5330	 9.1450
 0.5340	 9.2300
 0.5350	 9.3100
 0.5360	 9.3820
 0.5370	 9.4430
 0.5380	 9.4970
 0.5390	 9.5560
 0.5400	 9.6130
 0.5410	 9.6690
 0.5420	 9.7230
 0.5430	 9.7680
 0.5440	 9.8100
 0.5450	 9.8490
 0.5460	 9.8860
 0.5470	 9.9080
 0.5480	 9.9270
 0.5490	 9.9470
 0.5500	 9.9630
 0.5510	 9.9740
 0.5520	 9.9770
 0.5530	 9.9680
 0.5540	 9.9550
 0.5550	 9.9300
 0.5560	 9.8940
 0.5570	 9.8490
 0.5580	 9.7920
 0.5590	 9.7310
 0.5600	 9.6680
 0.5610	 9.6020
 0.5620	 9.5290
 0.5630	 9.4530
 0.5640	 9.3790
 0.5650	 9.3000
 0.5660	 9.2140
 0.5670	 9.1220
 0.5680	 9.0290
 0.5690	 8.9290
 0.5700	 8.8270
 0.5710	 8.7280
 0.5720	 8.6390
 0.5730	 8.5560
 0.5740	 8.4770
 0.5750	 8.4050
 0.5760	 8.3280
 0.5770	 8.2490
 0.5780	 8.1740
 0.5790	 8.1180
 0.5800	 8.0670
 0.5810	 8.0180
 0.5820	 7.9730
 0.5830	 7.9350
 0.5840	 7.8920
 0.5850	 7.8440
 0.5860	 7.8030
 0.5870	 7.7610
 0.5880	 7.7190
 0.5890	 7.6830
 0.5900	 7.6520
 0.5910	 7.6250
 0.5920	 7.6040
 0.5930	 7.5900
 0.5940	 7.5790
 0.5950	 7.5710
 0.5960	 7.5610
 0.5970	 7.5420
 0.5980	 7.5210
 0.5990	 7.4980
 0.6000	 7.4710
 0.6010	 7.4440
 0.6020	 7.4170
 0.6030	 7.3890
 0.6040	 7.3540
 0.6050	 7.3190
 0.6060	 7.2830
 0.6070	 7.2430
 0.6080	 7.2000
 0.6090	 7.1600
 0.6100	 7.1210
 0.6110	 7.0810
 0.6120	 7.0340
 0.6130	 6.9820
 0.6140	 6.9280
 0.6150	 6.8800
 0.6160	 6.8350
 0.6170	 6.7920
 0.6180	 6.7530
 0.6190	 6.7190
 0.6200	 6.6910
 0.6210	 6.6660
 0.6220	 6.6390
 0.6230	 6.6200
 0.6240	 6.6050
 0.6250	 6.5920
 0.6260	 6.5790
 0.6270	 6.5680
 0.6280	 6.5590
 0.6290	 6.5540
 0.6300	 6.5500
 0.6310	 6.5440
 0.6320	 6.5350
 0.6330	 6.5260
 0.6340	 6.5090
 0.6350	 6.4870
 0.6360	 6.4640
 0.6370	 6.4330
 0.6380	 6.3980
 0.6390	 6.3570
 0.6400	 6.3090
 0.6410	 6.2550
 0.6420	 6.2010
 0.6430	 6.1490
 0.6440	 6.0960
 0.6450	 6.0420
 0.6460	 5.9910
 0.6470	 5.9420
 0.6480	 5.8980
 0.6490	 5.8570
 0.6500	 5.8200
 0.6510	 5.7890
 0.6520	 5.7580
 0.6530	 5.7320
 0.6540	 5.7090
 0.6550	 5.6790
 0.6560	 5.6460
 0.6570	 5.6120
 0.6580	 5.5790
 0.6590	 5.5400
 0.6600	 5.4990
 0.6610	 5.4590
 0.6620	 5.4220
 0.6630	 5.3850
 0.6640	 5.3480
 0.6650	 5.3130
 0.6660	 5.2860
 0.6670	 5.2640
 0.6680	 5.2450
 0.6690	 5.2250
 0.6700	 5.2130
 0.6710	 5.2070
 0.6720	 5.2030
 0.6730	 5.2050
 0.6740	 5.2090
 0.6750	 5.2150
 0.6760	 5.2230
 0.6770	 5.2370
 0.6780	 5.2550
 0.6790	 5.2760
 0.6800	 5.2980
 0.6810	 5.3280
 0.6820	 5.3640
 0.6830	 5.4070
 0.6840	 5.4610
 0.6850	 5.5290
 0.6860	 5.6110
 0.6870	 5.7070
 0.6880	 5.8280
 0.6890	 5.9750
 0.6900	 6.1490
 0.6910	 6.3540
 0.6920	 6.6030
 0.6930	 6.8910
 0.6940	 7.2150
 0.6950	 7.5860
 0.6960	 8.0030
 0.6970	 8.4640
 0.6980	 8.9660
 0.6990	 9.5050
 0.7000	10.0770
 0.7010	10.6820
 0.7020	11.3180
 0.7030	11.9750
 0.7040	12.6480
 0.7050	13.3350
 0.7060	14.0390
 0.7070	14.7520
 0.7080	15.4690
 0.7090	16.1890
 0.7100	16.9140
 0.7110	17.6430
 0.7120	18.3760
 0.7130	19.1040
 0.7140	19.8320
 0.7150	20.5570
 0.7160	21.2740
 0.7170	21.9910
 0.7180	22.6990
 0.7190	23.3970
 0.7200	24.0880
 0.7210	24.7620
 0.7220	25.4240
 0.7230	26.0720
 0.7240	26.7040
 0.7250	27.3170
 0.7260	27.9090
 0.7270	28.4770
 0.7280	29.0280
 0.7290	29.5520
 0.7300	30.0530
 0.7310	30.5330
 0.7320	30.9890
 0.7330	31.4220
 0.7340	31.8330
 0.7350	32.2240
 0.7360	32.5930
 0.7370	32.9410
 0.7380	33.2690
 0.7390	33.5800
 0.7400	33.8700
 0.7410	34.1410
 0.7420	34.3980
 0.7430	34.6330
 0.7440	34.8520
 0.7450	35.0580
 0.7460	35.2480
 0.7470	35.4260
 0.7480	35.5890
 0.7490	35.7380
 0.7500	35.8770
 0.7510	36.0020
 0.7520	36.1160
 0.7530	36.2240
 0.7540	36.3250
 0.7550	36.4150
 0.7560	36.4940
 0.7570	36.5650
 0.7580	36.6370
 0.7590	36.7040
 0.7600	36.7620
 0.7610	36.8180
 0.7620	36.8670
 0.7630	36.9110
 0.7640	36.9520
 0.7650	36.9910
 0.7660	37.0300
 0.7670	37.0650
 0.7680	37.0960
 0.7690	37.1210
 0.7700	37.1470
 0.7710	37.1720
 0.7720	37.1930
 0.7730	37.2190
 0.7740	37.2430
 0.7750	37.2620
 0.7760	37.2870
 0.7770	37.3080
 0.7780	37.3260
 0.7790	37.3420
 0.7800	37.3600
 0.7810	37.3810
 0.7820	37.4010
 0.7830	37.4140
 0.7840	37.4330
 0.7850	37.4520
 0.7860	37.4640
 0.7870	37.4800
 0.7880	37.4950
 0.7890	37.5090
 0.7900	37.5230
 0.7910	37.5350
 0.7920	37.5480
 0.7930	37.5610
 0.7940	37.5760
 0.7950	37.5850
 0.7960	37.5930
 0.7970	37.6040
 0.7980	37.6130
 0.7990	37.6200
 0.8000	37.6280
 0.8010	37.6370
 0.8020	37.6420
 0.8030	37.6480
 0.8040	37.6530
 0.8050	37.6540
 0.8060	37.6570
 0.8070	37.6620
 0.8080	37.6660
 0.8090	37.6680
 0.8100	37.6690
 0.8110	37.6700
 0.8120	37.6720
 0.8130	37.6720
 0.8140	37.6680
 0.8150	37.6650
 0.8160	37.6660
 0.8170	37.6640
 0.8180	37.6610
 0.8190	37.6600
 0.8200	37.6630
 0.8210	37.6590
 0.8220	37.6520
 0.8230	37.6440
 0.8240	37.6390
 0.8250	37.6370
 0.8260	37.6310
 0.8270	37.6200
 0.8280	37.6160
 0.8290	37.6090
 0.8300	37.6000
 0.8310	37.5910
 0.8320	37.5780
 0.8330	37.5720
 0.8340	37.5700
 0.8350	37.5600
 0.8360	37.5560
 0.8370	37.5530
 0.8380	37.5470
 0.8390	37.5390
 0.8400	37.5370
 0.8410	37.5400
 0.8420	37.5440
 0.8430	37.5390
 0.8440	37.5370
 0.8450	37.5430
 0.8460	37.5550
 0.8470	37.5480
 0.8480	37.5480
 0.8490	37.5510
 0.8500	37.5520
 0.8510	37.5630
 0.8520	37.5650
 0.8530	37.5600
 0.8540	37.5610
 0.8550	37.5640
 0.8560	37.5700
 0.8570	37.5770
 0.8580	37.5790
 0.8590	37.5780
 0.8600	37.5820
 0.8610	37.5900
 0.8620	37.5900
 0.8630	37.5910
 0.8640	37.5950
 0.8650	37.6000
 0.8660	37.6040
 0.8670	37.6080
 0.8680	37.6110
 0.8690	37.6190
 0.8700	37.6310
 0.8710	37.6450
 0.8720	37.6510
 0.8730	37.6470
 0.8740	37.6550
 0.8750	37.6660
 0.8760	37.6770
 0.8770	37.6890
 0.8780	37.6930
 0.8790	37.6940
 0.8800	37.7000
 0.8810	37.7170
 0.8820	37.7230
 0.8830	37.7230
 0.8840	37.7250
 0.8850	37.7230
 0.8860	37.7360
 0.8870	37.7500
 0.8880	37.7490
 0.8890	37.7520
 0.8900	37.7530
 0.8910	37.7550
 0.8920	37.7620
 0.8930	37.7670
 0.8940	37.7690
 0.8950	37.7710
 0.8960	37.7760
 0.8970	37.7740
 0.8980	37.7750
 0.8990	37.7800
 0.9000	37.7830
 0.9010	37.7880
 0.9020	37.7930
 0.9030	37.7950
 0.9040	37.7930
 0.9050	37.7970
 0.9060	37.8050
 0.9070	37.8090
 0.9080	37.8020
 0.9090	37.7990
 0.9100	37.8000
 0.9110	37.8020
 0.9120	37.7950
 0.9130	37.8000
 0.9140	37.8090
 0.9150	37.8080
 0.9160	37.8020
 0.9170	37.7960
 0.9180	37.7910
 0.9190	37.7880
 0.9200	37.7880
 0.9210	37.7790
 0.9220	37.7620
 0.9230	37.7510
 0.9240	37.7410
 0.9250	37.7330
 0.9260	37.7210
 0.9270	37.7000
 0.9280	37.6770
 0.9290	37.6580
 0.9300	37.6410
 0.9310	37.6120
 0.9320	37.5940
 0.9330	37.5710
 0.9340	37.5380
 0.9350	37.4990
 0.9360	37.4710
 0.9370	37.4410
 0.9380	37.4000
 0.9390	37.3590
 0.9400	37.3240
 0.9410	37.2880
 0.9420	37.2470
 0.9430	37.1960
 0.9440	37.1510
 0.9450	37.1070
 0.9460	37.0550
 0.9470	36.9890
 0.9480	36.9230
 0.9490	36.8510
 0.9500	36.7680
 0.9510	36.6990
 0.9520	36.6100
 0.9530	36.5100
 0.9540	36.4170
 0.9550	36.3340
 0.9560	36.2390
 0.9570	36.1410
 0.9580	36.0560
 0.9590	35.9770
 0.9600	35.8920
 0.9610	35.8120
 0.9620	35.7470
 0.9630	35.6980
 0.9640	35.6460
 0.9650	35.5990
 0.9660	35.5680
 0.9670	35.5280
 0.9680	35.4840
 0.9690	35.4500
 0.9700	35.4350
 0.9710	35.3980
 0.9720	35.3730
 0.9730	35.3610
 0.9740	35.3450
 0.9750	35.3230
 0.9760	35.3160
 0.9770	35.3180
 0.9780	35.3150
 0.9790	35.3020
 0.9800	35.2950
 0.9810	35.3050
 0.9820	35.3280
 0.9830	35.3250
 0.9840	35.3250
 0.9850	35.3400
 0.9860	35.3670
 0.9870	35.3950
 0.9880	35.4140
 0.9890	35.4280
 0.9900	35.4490
 0.9910	35.4740
 0.9920	35.5440
 0.9930	35.6130
 0.9940	35.6830
 0.9950	35.7520
 0.9960	35.8220
 0.9970	35.8910
 0.9980	35.9610
 0.9990	36.0300
 1.0000	36.1000
 1.0010	36.1690
 1.0020	36.2380
 1.0030	36.3080
 1.0040	36.3770
 1.0050	36.4470
 1.0060	36.5160
 1.0070	36.5860
 1.0080	36.6550
 1.0090	36.7250
 1.0100	36.7250
 1.0110	36.7620
 1.0120	36.7980
 1.0130	36.8330
 1.0140	36.8690
 1.0150	36.9050
 1.0160	36.9390
 1.0170	36.9740
 1.0180	37.0130
 1.0190	37.0480
 1.0200	37.0820
 1.0210	37.1180
 1.0220	37.1510
 1.0230	37.1830
 1.0240	37.2140
 1.0250	37.2450
 1.0260	37.2720
 1.0270	37.3020
 1.0280	37.3350
 1.0290	37.3640
 1.0300	37.3940
 1.0310	37.4210
 1.0320	37.4430
 1.0330	37.4700
 1.0340	37.4960
 1.0350	37.5210
 1.0360	37.5460
 1.0370	37.5710
 1.0380	37.5960
 1.0390	37.6240
 1.0400	37.6470
 1.0410	37.6700
 1.0420	37.6910
 1.0430	37.7060
 1.0440	37.7240
 1.0450	37.7430
 1.0460	37.7610
 1.0470	37.7770
 1.0480	37.7950
 1.0490	37.8110
 1.0500	37.8280
 1.0510	37.8470
 1.0520	37.8680
 1.0530	37.8830
 1.0540	37.8950
 1.0550	37.9090
 1.0560	37.9210
 1.0570	37.9320
 1.0580	37.9440
 1.0590	37.9560
 1.0600	37.9640
 1.0610	37.9730
 1.0620	37.9840
 1.0630	37.9950
 1.0640	38.0070
 1.0650	38.0180
 1.0660	38.0320
 1.0670	38.0410
 1.0680	38.0470
 1.0690	38.0490
 1.0700	38.0530
 1.0710	38.0530
 1.0720	38.0570
 1.0730	38.0620
 1.0740	38.0650
 1.0750	38.0700
 1.0760	38.0720
 1.0770	38.0720
 1.0780	38.0740
 1.0790	38.0790
 1.0800	38.0800
 1.0810	38.0820
 1.0820	38.0830
 1.0830	38.0830
 1.0840	38.0800
 1.0850	38.0770
 1.0860	38.0710
 1.0870	38.0640
 1.0880	38.0530
 1.0890	38.0450
 1.0900	38.0380
 1.0910	38.0300
 1.0920	38.0220
 1.0930	38.0120
 1.0940	38.0000
 1.0950	37.9900
 1.0960	37.9810
 1.0970	37.9690
 1.0980	37.9590
 1.0990	37.9440
 1.1000	37.9220
 1.1010	37.9050
 1.1020	37.8910
 1.1030	37.8720
 1.1040	37.8540
 1.1050	37.8350
 1.1060	37.8140
 1.1070	37.7890
 1.1080	37.7630
 1.1090	37.7380
 1.1100	37.7110
 1.1110	37.6810
 1.1120	37.6500
 1.1130	37.6190
 1.1140	37.5840
 1.1150	37.5470
 1.1160	37.5060
 1.1170	37.4640
 1.1180	37.4160
 1.1190	37.3640
 1.1200	37.3090
 1.1210	37.2530
 1.1220	37.1920
 1.1230	37.1270
 1.1240	37.0600
 1.1250	36.9840
 1.1260	36.9020
 1.1270	36.8150
 1.1280	36.7220
 1.1290	36.6220
 1.1300	36.5170
 1.1310	36.4040
 1.1320	36.2850
 1.1330	36.1580
 1.1340	36.0260
 1.1350	35.8850
 1.1360	35.7380
 1.1370	35.5840
 1.1380	35.4230
 1.1390	35.2550
 1.1400	35.0780
 1.1410	34.8980
 1.1420	34.7150
 1.1430	34.5290
 1.1440	34.3410
 1.1450	34.1470
 1.1460	33.9580
 1.1470	33.7640
 1.1480	33.5810
 1.1490	33.4020
 1.1500	33.2330
 1.1510	33.0690
 1.1520	32.9160
 1.1530	32.7680
 1.1540	32.6350
 1.1550	32.5130
 1.1560	32.4030
 1.1570	32.3040
 1.1580	32.2160
 1.1590	32.1370
 1.1600	32.0680
 1.1610	32.0080
 1.1620	31.9580
 1.1630	31.9150
 1.1640	31.8790
 1.1650	31.8490
 1.1660	31.8300
 1.1670	31.8100
 1.1680	31.7970
 1.1690	31.7840
 1.1700	31.7710
 1.1710	31.7610
 1.1720	31.7560
 1.1730	31.7490
 1.1740	31.7450
 1.1750	31.7380
 1.1760	31.7290
 1.1770	31.7200
 1.1780	31.7080
 1.1790	31.6960
 1.1800	31.6850
 1.1810	31.6720
 1.1820	31.6580
 1.1830	31.6430
 1.1840	31.6280
 1.1850	31.6130
 1.1860	31.6000
 1.1870	31.5870
 1.1880	31.5750
 1.1890	31.5620
 1.1900	31.5510
 1.1910	31.5400
 1.1920	31.5320
 1.1930	31.5260
 1.1940	31.5210
 1.1950	31.5180
 1.1960	31.5170
 1.1970	31.5160
 1.1980	31.5180
 1.1990	31.5230
 1.2000	31.5300
 1.2010	31.5400
 1.2020	31.5520
 1.2030	31.5640
 1.2040	31.5810
 1.2050	31.5970
 1.2060	31.6140
 1.2070	31.6350
 1.2080	31.6570
 1.2090	31.6810
 1.2100	31.7090
 1.2110	31.7370
 1.2120	31.7670
 1.2130	31.7990
 1.2140	31.8310
 1.2150	31.8660
 1.2160	31.9030
 1.2170	31.9390
 1.2180	31.9770
 1.2190	32.0160
 1.2200	32.0540
 1.2210	32.0930
 1.2220	32.1310
 1.2230	32.1700
 1.2240	32.2100
 1.2250	32.2500
 1.2260	32.2890
 1.2270	32.3250
 1.2280	32.3590
 1.2290	32.3930
 1.2300	32.4290
 1.2310	32.4620
 1.2320	32.4940
 1.2330	32.5260
 1.2340	32.5570
 1.2350	32.5850
 1.2360	32.6140
 1.2370	32.6450
 1.2380	32.6730
 1.2390	32.6990
 1.2400	32.7260
 1.2410	32.7510
 1.2420	32.7750
 1.2430	32.7990
 1.2440	32.8240
 1.2450	32.8450
 1.2460	32.8660
 1.2470	32.8870
 1.2480	32.9060
 1.2490	32.9250
 1.2500	32.9430
 1.2510	32.9580
 1.2520	32.9740
 1.2530	32.9880
 1.2540	33.0030
 1.2550	33.0170
 1.2560	33.0280
 1.2570	33.0370
 1.2580	33.0460
 1.2590	33.0530
 1.2600	33.0600
 1.2610	33.0670
 1.2620	33.0730
 1.2630	33.0770
 1.2640	33.0790
 1.2650	33.0800
 1.2660	33.0800
 1.2670	33.0790
 1.2680	33.0750
 1.2690	33.0720
 1.2700	33.0680
 1.2710	33.0620
 1.2720	33.0550
 1.2730	33.0440
 1.2740	33.0310
 1.2750	33.0180
 1.2760	33.0040
 1.2770	32.9900
 1.2780	32.9740
 1.2790	32.9550
 1.2800	32.9350
 1.2810	32.9140
 1.2820	32.8910
 1.2830	32.8660
 1.2840	32.8410
 1.2850	32.8110
 1.2860	32.7800
 1.2870	32.7470
 1.2880	32.7130
 1.2890	32.6770
 1.2900	32.6390
 1.2910	32.6000
 1.2920	32.5590
 1.2930	32.5140
 1.2940	32.4660
 1.2950	32.4160
 1.2960	32.3620
 1.2970	32.3040
 1.2980	32.2450
 1.2990	32.1860
 1.3000	32.1220
 1.3010	32.0560
 1.3020	31.9860
 1.3030	31.9110
 1.3040	31.8330
 1.3050	31.7530
 1.3060	31.6680
 1.3070	31.5780
 1.3080	31.4870
 1.3090	31.3930
 1.3100	31.2960
 1.3110	31.1950
 1.3120	31.0890
 1.3130	30.9790
 1.3140	30.8650
 1.3150	30.7460
 1.3160	30.6230
 1.3170	30.4960
 1.3180	30.3640
 1.3190	30.2290
 1.3200	30.0920
 1.3210	29.9470
 1.3220	29.8000
 1.3230	29.6490
 1.3240	29.4930
 1.3250	29.3370
 1.3260	29.1770
 1.3270	29.0130
 1.3280	28.8460
 1.3290	28.6750
 1.3300	28.5030
 1.3310	28.3300
 1.3320	28.1550
 1.3330	27.9790
 1.3340	27.8020
 1.3350	27.6200
 1.3360	27.4400
 1.3370	27.2590
 1.3380	27.0780
 1.3390	26.9000
 1.3400	26.7210
 1.3410	26.5440
 1.3420	26.3700
 1.3430	26.1980
 1.3440	26.0270
 1.3450	25.8580
 1.3460	25.6890
 1.3470	25.5230
 1.3480	25.3560
 1.3490	25.1960
 1.3500	25.0390
 1.3510	24.8840
 1.3520	24.7300
 1.3530	24.5770
 1.3540	24.4230
 1.3550	24.2700
 1.3560	24.1180
 1.3570	23.9670
 1.3580	23.8170
 1.3590	23.6640
 1.3600	23.5090
 1.3610	23.3530
 1.3620	23.1930
 1.3630	23.0300
 1.3640	22.8620
 1.3650	22.6890
 1.3660	22.5110
 1.3670	22.3260
 1.3680	22.1320
 1.3690	21.9300
 1.3700	21.7150
 1.3710	21.4900
 1.3720	21.2540
 1.3730	21.0040
 1.3740	20.7430
 1.3750	20.4680
 1.3760	20.1740
 1.3770	19.8640
 1.3780	19.5340
 1.3790	19.1870
 1.3800	18.8270
 1.3810	18.4490
 1.3820	18.0610
 1.3830	17.6600
 1.3840	17.2490
 1.3850	16.8250
 1.3860	16.3970
 1.3870	15.9570
 1.3880	15.5210
 1.3890	15.0810
 1.3900	14.6400
 1.3910	14.2070
 1.3920	13.7740
 1.3930	13.3450
 1.3940	12.9260
 1.3950	12.5100
 1.3960	12.1070
 1.3970	11.7200
 1.3980	11.3450
 1.3990	10.9900
 1.4000	10.6510
 1.4010	10.3230
 1.4020	10.0140
 1.4030	 9.7210
 1.4040	 9.4450
 1.4050	 9.1870
 1.4060	 8.9470
 1.4070	 8.7250
 1.4080	 8.5190
 1.4090	 8.3260
 1.4100	 8.1500
 1.4110	 7.9850
 1.4120	 7.8340
 1.4130	 7.6960
 1.4140	 7.5690
 1.4150	 7.4550
 1.4160	 7.3520
 1.4170	 7.2580
 1.4180	 7.1730
 1.4190	 7.0940
 1.4200	 7.0240
 1.4210	 6.9600
 1.4220	 6.9030
 1.4230	 6.8510
 1.4240	 6.8060
 1.4250	 6.7650
 1.4260	 6.7290
 1.4270	 6.6970
 1.4280	 6.6700
 1.4290	 6.6450
 1.4300	 6.6240
 1.4310	 6.6060
 1.4320	 6.5900
 1.4330	 6.5770
 1.4340	 6.5680
 1.4350	 6.5600
 1.4360	 6.5550
 1.4370	 6.5510
 1.4380	 6.5500
 1.4390	 6.5490
 1.4400	 6.5500
 1.4410	 6.5520
 1.4420	 6.5570
 1.4430	 6.5610
 1.4440	 6.5680
 1.4450	 6.5760
 1.4460	 6.5850
 1.4470	 6.5950
 1.4480	 6.6050
 1.4490	 6.6150
 1.4500	 6.6250
 1.4510	 6.6350
 1.4520	 6.6460
 1.4530	 6.6580
 1.4540	 6.6710
 1.4550	 6.6860
 1.4560	 6.7000
 1.4570	 6.7160
 1.4580	 6.7320
 1.4590	 6.7480
 1.4600	 6.7660
 1.4610	 6.7850
 1.4620	 6.8060
 1.4630	 6.8290
 1.4640	 6.8530
 1.4650	 6.8800
 1.4660	 6.9090
 1.4670	 6.9400
 1.4680	 6.9740
 1.4690	 7.0090
 1.4700	 7.0470
 1.4710	 7.0870
 1.4720	 7.1280
 1.4730	 7.1720
 1.4740	 7.2160
 1.4750	 7.2630
 1.4760	 7.3130
 1.4770	 7.3640
 1.4780	 7.4170
 1.4790	 7.4700
 1.4800	 7.5240
 1.4810	 7.5800
 1.4820	 7.6380
 1.4830	 7.6960
 1.4840	 7.7550
 1.4850	 7.8140
 1.4860	 7.8740
 1.4870	 7.9360
 1.4880	 7.9970
 1.4890	 8.0580
 1.4900	 8.1200
 1.4910	 8.1820
 1.4920	 8.2450
 1.4930	 8.3100
 1.4940	 8.3740
 1.4950	 8.4390
 1.4960	 8.5040
 1.4970	 8.5680
 1.4980	 8.6330
 1.4990	 8.6990
 1.5000	 8.7650
 1.5010	 8.8310
 1.5020	 8.8970
 1.5030	 8.9630
 1.5040	 9.0290
 1.5050	 9.0960
 1.5060	 9.1630
 1.5070	 9.2300
 1.5080	 9.2970
 1.5090	 9.3630
 1.5100	 9.4300
 1.5110	 9.4970
 1.5120	 9.5640
 1.5130	 9.6290
 1.5140	 9.6960
 1.5150	 9.7620
 1.5160	 9.8270
 1.5170	 9.8930
 1.5180	 9.9570
 1.5190	10.0220
 1.5200	10.0870
 1.5210	10.1510
 1.5220	10.2150
 1.5230	10.2780
 1.5240	10.3420
 1.5250	10.4060
 1.5260	10.4690
 1.5270	10.5320
 1.5280	10.5950
 1.5290	10.6560
 1.5300	10.7170
 1.5310	10.7790
 1.5320	10.8390
 1.5330	10.8990
 1.5340	10.9590
 1.5350	11.0170
 1.5360	11.0760
 1.5370	11.1350
 1.5380	11.1940
 1.5390	11.2520
 1.5400	11.3090
 1.5410	11.3670
 1.5420	11.4230
 1.5430	11.4790
 1.5440	11.5370
 1.5450	11.5930
 1.5460	11.6490
 1.5470	11.7060
 1.5480	11.7610
 1.5490	11.8160
 1.5500	11.8700
 1.5510	11.9230
 1.5520	11.9780
 1.5530	12.0320
 1.5540	12.0850
 1.5550	12.1390
 1.5560	12.1900
 1.5570	12.2410
 1.5580	12.2920
 1.5590	12.3430
 1.5600	12.3940
 1.5610	12.4430
 1.5620	12.4920
 1.5630	12.5400
 1.5640	12.5880
 1.5650	12.6370
 1.5660	12.6850
 1.5670	12.7330
 1.5680	12.7820
 1.5690	12.8300
 1.5700	12.8780
 1.5710	12.9250
 1.5720	12.9710
 1.5730	13.0170
 1.5740	13.0640
 1.5750	13.1090
 1.5760	13.1560
 1.5770	13.2030
 1.5780	13.2480
 1.5790	13.2950
 1.5800	13.3400
 1.5810	13.3840
 1.5820	13.4300
 1.5830	13.4750
 1.5840	13.5200
 1.5850	13.5650
 1.5860	13.6090
 1.5870	13.6540
 1.5880	13.6970
 1.5890	13.7420
 1.5900	13.7870
 1.5910	13.8300
 1.5920	13.8740
 1.5930	13.9180
 1.5940	13.9610
 1.5950	14.0040
 1.5960	14.0470
 1.5970	14.0900
 1.5980	14.1320
 1.5990	14.1740
 1.6000	14.2170
 1.6010	14.2580
 1.6020	14.2990
 1.6030	14.3400
 1.6040	14.3810
 1.6050	14.4220
 1.6060	14.4620
 1.6070	14.5020
 1.6080	14.5400
 1.6090	14.5780
 1.6100	14.6150
 1.6110	14.6530
 1.6120	14.6890
 1.6130	14.7260
 1.6140	14.7630
 1.6150	14.7980
 1.6160	14.8330
 1.6170	14.8680
 1.6180	14.9020
 1.6190	14.9360
 1.6200	14.9690
 1.6210	15.0030
 1.6220	15.0350
 1.6230	15.0650
 1.6240	15.0950
 1.6250	15.1230
 1.6260	15.1500
 1.6270	15.1780
 1.6280	15.2060
 1.6290	15.2310
 1.6300	15.2560
 1.6310	15.2800
 1.6320	15.3020
 1.6330	15.3240
 1.6340	15.3450
 1.6350	15.3630
 1.6360	15.3810
 1.6370	15.3960
 1.6380	15.4090
 1.6390	15.4190
 1.6400	15.4280
 1.6410	15.4330
 1.6420	15.4360
 1.6430	15.4360
 1.6440	15.4330
 1.6450	15.4270
 1.6460	15.4190
 1.6470	15.4090
 1.6480	15.3950
 1.6490	15.3800
 1.6500	15.3640
 1.6510	15.3470
 1.6520	15.3280
 1.6530	15.3060
 1.6540	15.2830
 1.6550	15.2580
 1.6560	15.2330
 1.6570	15.2080
 1.6580	15.1850
 1.6590	15.1640
 1.6600	15.1450
 1.6610	15.1290
 1.6620	15.1160
 1.6630	15.1050
 1.6640	15.0980
 1.6650	15.0970
 1.6660	15.0990
 1.6670	15.1060
 1.6680	15.1170
 1.6690	15.1290
 1.6700	15.1440
 1.6710	15.1610
 1.6720	15.1780
 1.6730	15.1980
 1.6740	15.2180
 1.6750	15.2370
 1.6760	15.2560
 1.6770	15.2720
 1.6780	15.2850
 1.6790	15.2950
 1.6800	15.3020
 1.6810	15.3060
 1.6820	15.3100
 1.6830	15.3110
 1.6840	15.3080
 1.6850	15.3030
 1.6860	15.2950
 1.6870	15.2850
 1.6880	15.2730
 1.6890	15.2610
 1.6900	15.2460
 1.6910	15.2280
 1.6920	15.2100
 1.6930	15.1890
 1.6940	15.1680
 1.6950	15.1490
 1.6960	15.1280
 1.6970	15.1050
 1.6980	15.0800
 1.6990	15.0530
 1.7000	15.0240
 1.7010	14.9930
 1.7020	14.9620
 1.7030	14.9320
 1.7040	14.9000
 1.7050	14.8670
 1.7060	14.8340
 1.7070	14.7980
 1.7080	14.7620
 1.7090	14.7250
 1.7100	14.6870
 1.7110	14.6470
 1.7120	14.6090
 1.7130	14.5700
 1.7140	14.5310
 1.7150	14.4910
 1.7160	14.4500
 1.7170	14.4100
 1.7180	14.3710
 1.7190	14.3320
 1.7200	14.2910
 1.7210	14.2490
 1.7220	14.2070
 1.7230	14.1650
 1.7240	14.1250
 1.7250	14.0850
 1.7260	14.0450
 1.7270	14.0070
 1.7280	13.9710
 1.7290	13.9350
 1.7300	13.9020
 1.7310	13.8690
 1.7320	13.8360
 1.7330	13.8040
 1.7340	13.7730
 1.7350	13.7410
 1.7360	13.7110
 1.7370	13.6790
 1.7380	13.6460
 1.7390	13.6130
 1.7400	13.5810
 1.7410	13.5480
 1.7420	13.5140
 1.7430	13.4780
 1.7440	13.4400
 1.7450	13.4030
 1.7460	13.3640
 1.7470	13.3270
 1.7480	13.2900
 1.7490	13.2530
 1.7500	13.2180
 1.7510	13.1820
 1.7520	13.1460
 1.7530	13.1100
 1.7540	13.0720
 1.7550	13.0360
 1.7560	13.0000
 1.7570	12.9630
 1.7580	12.9290
 1.7590	12.8950
 1.7600	12.8610
 1.7610	12.8290
 1.7620	12.7960
 1.7630	12.7620
 1.7640	12.7290
 1.7650	12.6990
 1.7660	12.6700
 1.7670	12.6420
 1.7680	12.6150
 1.7690	12.5870
 1.7700	12.5600
 1.7710	12.5330
 1.7720	12.5070
 1.7730	12.4810
 1.7740	12.4570
 1.7750	12.4340
 1.7760	12.4100
 1.7770	12.3870
 1.7780	12.3660
 1.7790	12.3450
 1.7800	12.3250
 1.7810	12.3070
 1.7820	12.2900
 1.7830	12.2730
 1.7840	12.2580
 1.7850	12.2450
 1.7860	12.2330
 1.7870	12.2210
 1.7880	12.2120
 1.7890	12.2030
 1.7900	12.1930
 1.7910	12.1840
 1.7920	12.1760
 1.7930	12.1700
 1.7940	12.1660
 1.7950	12.1630
 1.7960	12.1610
 1.7970	12.1590
 1.7980	12.1580
 1.7990	12.1570
 1.8000	12.1570
 1.8010	12.1560
 1.8020	12.1570
 1.8030	12.1570
 1.8040	12.1580
 1.8050	12.1600
 1.8060	12.1630
 1.8070	12.1660
 1.8080	12.1680
 1.8090	12.1690
 1.8100	12.1700
 1.8110	12.1700
 1.8120	12.1710
 1.8130	12.1750
 1.8140	12.1760
 1.8150	12.1760
 1.8160	12.1750
 1.8170	12.1730
 1.8180	12.1710
 1.8190	12.1710
 1.8200	12.1690
 1.8210	12.1640
 1.8220	12.1600
 1.8230	12.1580
 1.8240	12.1540
 1.8250	12.1490
 1.8260	12.1430
 1.8270	12.0850
 1.8280	12.0260
 1.8290	11.9670
 1.8300	11.9080
 1.8310	11.8500
 1.8320	11.7910
 1.8330	11.7320
 1.8340	11.6740
 1.8350	11.6740
 1.8360	11.6520
 1.8370	11.6260
 1.8380	11.6000
 1.8390	11.5720
 1.8400	11.5440
 1.8410	11.5090
 1.8420	11.4700
 1.8430	11.4260
 1.8440	11.3790
 1.8450	11.3320
 1.8460	11.2830
 1.8470	11.2290
 1.8480	11.1670
 1.8490	11.0990
 1.8500	11.0250
 1.8510	10.9430
 1.8520	10.8560
 1.8530	10.7650
 1.8540	10.6690
 1.8550	10.5660
 1.8560	10.4560
 1.8570	10.3390
 1.8580	10.2120
 1.8590	10.0790
 1.8600	 9.9390
 1.8610	 9.7940
 1.8620	 9.6400
 1.8630	 9.4820
 1.8640	 9.3200
 1.8650	 9.1470
 1.8660	 8.9690
 1.8670	 8.7810
 1.8680	 8.5860
 1.8690	 8.3860
 1.8700	 8.1830
 1.8710	 7.9750
 1.8720	 7.7660
 1.8730	 7.5540
 1.8740	 7.3390
 1.8750	 7.1240
 1.8760	 6.9100
 1.8770	 6.7020
 1.8780	 6.5020
 1.8790	 6.3060
 1.8800	 6.1160
 1.8810	 5.9330
 1.8820	 5.7550
 1.8830	 5.5800
 1.8840	 5.4150
 1.8850	 5.2600
 1.8860	 5.1130
 1.8870	 4.9750
 1.8880	 4.8440
 1.8890	 4.7200
 1.8900	 4.6070
 1.8910	 4.5030
 1.8920	 4.4080
 1.8930	 4.3230
 1.8940	 4.2450
 1.8950	 4.1750
 1.8960	 4.1120
 1.8970	 4.0540
 1.8980	 4.0030
 1.8990	 3.9590
 1.9000	 3.9180
 1.9010	 3.8820
 1.9020	 3.8500
 1.9030	 3.8230
 1.9040	 3.7970
 1.9050	 3.7780
 1.9060	 3.7620
 1.9070	 3.7480
 1.9080	 3.7370
 1.9090	 3.7260
 1.9100	 3.7140
 1.9110	 3.7040
 1.9120	 3.6970
 1.9130	 3.6890
 1.9140	 3.6810
 1.9150	 3.6760
 1.9160	 3.6720
 1.9170	 3.6690
 1.9180	 3.6690
 1.9190	 3.6710
 1.9200	 3.6700
 1.9210	 3.6660
 1.9220	 3.6650
 1.9230	 3.6630
 1.9240	 3.6630
 1.9250	 3.6640
 1.9260	 3.6670
 1.9270	 3.6680
 1.9280	 3.6680
 1.9290	 3.6690
 1.9300	 3.6690
 1.9310	 3.6700
 1.9320	 3.6720
 1.9330	 3.6740
 1.9340	 3.6780
 1.9350	 3.6800
 1.9360	 3.6820
 1.9370	 3.6840
 1.9380	 3.6860
 1.9390	 3.6890
 1.9400	 3.6910
 1.9410	 3.6950
 1.9420	 3.6980
 1.9430	 3.7010
 1.9440	 3.7040
 1.9450	 3.7080
 1.9460	 3.7120
 1.9470	 3.7150
 1.9480	 3.7200
 1.9490	 3.7240
 1.9500	 3.7300
 1.9510	 3.7370
 1.9520	 3.7410
 1.9530	 3.7490
 1.9540	 3.7560
 1.9550	 3.7630
 1.9560	 3.7700
 1.9570	 3.7760
 1.9580	 3.7800
 1.9590	 3.7860
 1.9600	 3.7920
 1.9610	 3.7990
 1.9620	 3.8050
 1.9630	 3.8120
 1.9640	 3.8210
 1.9650	 3.8330
 1.9660	 3.8430
 1.9670	 3.8530
 1.9680	 3.8620
 1.9690	 3.8680
 1.9700	 3.8760
 1.9710	 3.8840
 1.9720	 3.8930
 1.9730	 3.9030
 1.9740	 3.9130
 1.9750	 3.9230
 1.9760	 3.9330
 1.9770	 3.9440
 1.9780	 3.9540
 1.9790	 3.9650
 1.9800	 3.9780
 1.9810	 3.9910
 1.9820	 4.0020
 1.9830	 4.0140
 1.9840	 4.0240
 1.9850	 4.0350
 1.9860	 4.0460
 1.9870	 4.0580
 1.9880	 4.0710
 1.9890	 4.0840
 1.9900	 4.1000
 1.9910	 4.1150
 1.9920	 4.1280
 1.9930	 4.1400
 1.9940	 4.1540
 1.9950	 4.1650
 1.9960	 4.1800
 1.9970	 4.2000
 1.9980	 4.2150
 1.9990	 4.2290
 2.0000	 4.2440
 2.0010	 4.2570
 2.0020	 4.2690
 2.0030	 4.2850
 2.0040	 4.3010
 2.0050	 4.3170
 2.0060	 4.3350
 2.0070	 4.3510
 2.0080	 4.3670
 2.0090	 4.3830
 2.0100	 4.3990
 2.0110	 4.4160
 2.0120	 4.4330
 2.0130	 4.4480
 2.0140	 4.4630
 2.0150	 4.4770
 2.0160	 4.4910
 2.0170	 4.5070
 2.0180	 4.5220
 2.0190	 4.5390
 2.0200	 4.5540
 2.0210	 4.5700
 2.0220	 4.5840
 2.0230	 4.5950
 2.0240	 4.6080
 2.0250	 4.6220
 2.0260	 4.6340
 2.0270	 4.6460
 2.0280	 4.6610
 2.0290	 4.6750
 2.0300	 4.6870
 2.0310	 4.7000
 2.0320	 4.7130
 2.0330	 4.7250
 2.0340	 4.7350
 2.0350	 4.7460
 2.0360	 4.7580
 2.0370	 4.7680
 2.0380	 4.7760
 2.0390	 4.7850
 2.0400	 4.7920
 2.0410	 4.8020
 2.0420	 4.8120
 2.0430	 4.8250
 2.0440	 4.8340
 2.0450	 4.8430
 2.0460	 4.8500
 2.0470	 4.8550
 2.0480	 4.8620
 2.0490	 4.8680
 2.0500	 4.8760
 2.0510	 4.8860
 2.0520	 4.8940
 2.0530	 4.9030
 2.0540	 4.9110
 2.0550	 4.9180
 2.0560	 4.9240
 2.0570	 4.9290
 2.0580	 4.9370
 2.0590	 4.9450
 2.0600	 4.9540
 2.0610	 4.9620
 2.0620	 4.9700
 2.0630	 4.9770
 2.0640	 4.9810
 2.0650	 4.9870
 2.0660	 4.9960
 2.0670	 5.0040
 2.0680	 5.0130
 2.0690	 5.0210
 2.0700	 5.0260
 2.0710	 5.0320
 2.0720	 5.0380
 2.0730	 5.0430
 2.0740	 5.0510
 2.0750	 5.0620
 2.0760	 5.0690
 2.0770	 5.0770
 2.0780	 5.0830
 2.0790	 5.0850
 2.0800	 5.0900
 2.0810	 5.0940
 2.0820	 5.1010
 2.0830	 5.1100
 2.0840	 5.1170
 2.0850	 5.1240
 2.0860	 5.1300
 2.0870	 5.1340
 2.0880	 5.1390
 2.0890	 5.1450
 2.0900	 5.1530
 2.0910	 5.1600
 2.0920	 5.1670
 2.0930	 5.1730
 2.0940	 5.1800
 2.0950	 5.1870
 2.0960	 5.1940
 2.0970	 5.2010
 2.0980	 5.2090
 2.0990	 5.2150
 2.1000	 5.2180
 2.1010	 5.2240
 2.1020	 5.2310
 2.1030	 5.2370
 2.1040	 5.2440
 2.1050	 5.2500
 2.1060	 5.2550
 2.1070	 5.2590
 2.1080	 5.2640
 2.1090	 5.2700
 2.1100	 5.2770
 2.1110	 5.2830
 2.1120	 5.2900
 2.1130	 5.2980
 2.1140	 5.3040
 2.1150	 5.3080
 2.1160	 5.3130
 2.1170	 5.3160
 2.1180	 5.3200
 2.1190	 5.3260
 2.1200	 5.3310
 2.1210	 5.3380
 2.1220	 5.3430
 2.1230	 5.3490
 2.1240	 5.3530
 2.1250	 5.3590
 2.1260	 5.3640
 2.1270	 5.3690
 2.1280	 5.3750
 2.1290	 5.3800
 2.1300	 5.3850
 2.1310	 5.3910
 2.1320	 5.3980
 2.1330	 5.4050
 2.1340	 5.4140
 2.1350	 5.4210
 2.1360	 5.4260
 2.1370	 5.4330
 2.1380	 5.4400
 2.1390	 5.4470
 2.1400	 5.4560
 2.1410	 5.4650
 2.1420	 5.4730
 2.1430	 5.4780
 2.1440	 5.4860
 2.1450	 5.4930
 2.1460	 5.5010
 2.1470	 5.5110
 2.1480	 5.5210
 2.1490	 5.5290
 2.1500	 5.5400
 2.1510	 5.5530
 2.1520	 5.5640
 2.1530	 5.5760
 2.1540	 5.5870
 2.1550	 5.5950
 2.1560	 5.6050
 2.1570	 5.6150
 2.1580	 5.6270
 2.1590	 5.6420
 2.1600	 5.6540
 2.1610	 5.6680
 2.1620	 5.6840
 2.1630	 5.6950
 2.1640	 5.7030
 2.1650	 5.7130
 2.1660	 5.7240
 2.1670	 5.7320
 2.1680	 5.7410
 2.1690	 5.7500
 2.1700	 5.7570
 2.1710	 5.7670
 2.1720	 5.7810
 2.1730	 5.7930
 2.1740	 5.8040
 2.1750	 5.8150
 2.1760	 5.8270
 2.1770	 5.8390
 2.1780	 5.8520
 2.1790	 5.8630
 2.1800	 5.8730
 2.1810	 5.8830
 2.1820	 5.8910
 2.1830	 5.8990
 2.1840	 5.9080
 2.1850	 5.9180
 2.1860	 5.9260
 2.1870	 5.9340
 2.1880	 5.9440
 2.1890	 5.9530
 2.1900	 5.9630
 2.1910	 5.9780
 2.1920	 5.9900
 2.1930	 5.9980
 2.1940	 6.0110
 2.1950	 6.0270
 2.1960	 6.0390
 2.1970	 6.0530
 2.1980	 6.0660
 2.1990	 6.0750
 2.2000	 6.0860
 2.2010	 6.1010
 2.2020	 6.1120
 2.2030	 6.1200
 2.2040	 6.1290
 2.2050	 6.1390
 2.2060	 6.1490
 2.2070	 6.1580
 2.2080	 6.1670
 2.2090	 6.1770
 2.2100	 6.1850
 2.2110	 6.1940
 2.2120	 6.2030
 2.2130	 6.2090
 2.2140	 6.2120
 2.2150	 6.2180
 2.2160	 6.2250
 2.2170	 6.2320
 2.2180	 6.2430
 2.2190	 6.2490
 2.2200	 6.2510
 2.2210	 6.2550
 2.2220	 6.2570
 2.2230	 6.2600
 2.2240	 6.2680
 2.2250	 6.2690
 2.2260	 6.2660
 2.2270	 6.2640
 2.2280	 6.2560
 2.2290	 6.2510
 2.2300	 6.2480
 2.2310	 6.2460
 2.2320	 6.2410
 2.2330	 6.2320
 2.2340	 6.2240
 2.2350	 6.2130
 2.2360	 6.2030
 2.2370	 6.1960
 2.2380	 6.1840
 2.2390	 6.1690
 2.2400	 6.1540
 2.2410	 6.1340
 2.2420	 6.1180
 2.2430	 6.1070
 2.2440	 6.0890
 2.2450	 6.0710
 2.2460	 6.0510
 2.2470	 6.0230
 2.2480	 6.0030
 2.2490	 5.9880
 2.2500	 5.9690
 2.2510	 5.9540
 2.2520	 5.9330
 2.2530	 5.9050
 2.2540	 5.8820
 2.2550	 5.8580
 2.2560	 5.8370
 2.2570	 5.8230
 2.2580	 5.8030
 2.2590	 5.7800
 2.2600	 5.7580
 2.2610	 5.7330
 2.2620	 5.7080
 2.2630	 5.6910
 2.2640	 5.6750
 2.2650	 5.6550
 2.2660	 5.6400
 2.2670	 5.6250
 2.2680	 5.6070
 2.2690	 5.5900
 2.2700	 5.5770
 2.2710	 5.5590
 2.2720	 5.5360
 2.2730	 5.5190
 2.2740	 5.5020
 2.2750	 5.4880
 2.2760	 5.4770
 2.2770	 5.4650
 2.2780	 5.4570
 2.2790	 5.4430
 2.2800	 5.4220
 2.2810	 5.4080
 2.2820	 5.3940
 2.2830	 5.3810
 2.2840	 5.3770
 2.2850	 5.3650
 2.2860	 5.3500
 2.2870	 5.3340
 2.2880	 5.3140
 2.2890	 5.2980
 2.2900	 5.2850
 2.2910	 5.2710
 2.2920	 5.2590
 2.2930	 5.2460
 2.2940	 5.2280
 2.2950	 5.2150
 2.2960	 5.2090
 2.2970	 5.1970
 2.2980	 5.1860
 2.2990	 5.1760
 2.3000	 5.1580
 2.3010	 5.1400
 2.3020	 5.1270
 2.3030	 5.1120
 2.3040	 5.0960
 2.3050	 5.0790
 2.3060	 5.0630
 2.3070	 5.0510
 2.3080	 5.0420
 2.3090	 5.0380
 2.3100	 5.0310
 2.3110	 5.0210
 2.3120	 5.0110
 2.3130	 4.9980
 2.3140	 4.9880
 2.3150	 4.9760
 2.3160	 4.9700
 2.3170	 4.9710
 2.3180	 4.9650
 2.3190	 4.9610
 2.3200	 4.9530
 2.3210	 4.9370
 2.3220	 4.9270
 2.3230	 4.9190
 2.3240	 4.9080
 2.3250	 4.8970
 2.3260	 4.8860
 2.3270	 4.8720
 2.3280	 4.8610
 2.3290	 4.8570
 2.3300	 4.8490
 2.3310	 4.8390
 2.3320	 4.8330
 2.3330	 4.8280
 2.3340	 4.8210
 2.3350	 4.8150
 2.3360	 4.8080
 2.3370	 4.7960
 2.3380	 4.7890
 2.3390	 4.7860
 2.3400	 4.7780
 2.3410	 4.7700
 2.3420	 4.7620
 2.3430	 4.7510
 2.3440	 4.7380
 2.3450	 4.7210
 2.3460	 4.7100
 2.3470	 4.6990
 2.3480	 4.6890
 2.3490	 4.6870
 2.3500	 4.6790
 2.3510	 4.6630
 2.3520	 4.6570
 2.3530	 4.6560
 2.3540	 4.6560
 2.3550	 4.6660
 2.3560	 4.6640
 2.3570	 4.6540
 2.3580	 4.6450
 2.3590	 4.6320
 2.3600	 4.6240
 2.3610	 4.6130
 2.3620	 4.6000
 2.3630	 4.5870
 2.3640	 4.5720
 2.3650	 4.5620
 2.3660	 4.5520
 2.3670	 4.5520
 2.3680	 4.5460
 2.3690	 4.5340
 2.3700	 4.5320
 2.3710	 4.5210
 2.3720	 4.5140
 2.3730	 4.5110
 2.3740	 4.5020
 2.3750	 4.4930
 2.3760	 4.4840
 2.3770	 4.4750
 2.3780	 4.4700
 2.3790	 4.4660
 2.3800	 4.4600
 2.3810	 4.4550
 2.3820	 4.4460
 2.3830	 4.4380
 2.3840	 4.4320
 2.3850	 4.4190
 2.3860	 4.4070
 2.3870	 4.4010
 2.3880	 4.3940
 2.3890	 4.3900
 2.3900	 4.3870
 2.3910	 4.3720
 2.3920	 4.3560
 2.3930	 4.3480
 2.3940	 4.3330
 2.3950	 4.3200
 2.3960	 4.3070
 2.3970	 4.2910
 2.3980	 4.2920
 2.3990	 4.2990
 2.4000	 4.2950
 2.4010	 4.2890
 2.4020	 4.2740
 2.4030	 4.2500
 2.4040	 4.2310
 2.4050	 4.2210
 2.4060	 4.2130
 2.4070	 4.2100
 2.4080	 4.2100
 2.4090	 4.2050
 2.4100	 4.1960
 2.4110	 4.1870
 2.4120	 4.1820
 2.4130	 4.1700
 2.4140	 4.1610
 2.4150	 4.1600
 2.4160	 4.1600
 2.4170	 4.1620
 2.4180	 4.1480
 2.4190	 4.1260
 2.4200	 4.1040
 2.4210	 4.0840
 2.4220	 4.0850
 2.4230	 4.0920
 2.4240	 4.0880
 2.4250	 4.0940
 2.4260	 4.0950
 2.4270	 4.0680
 2.4280	 4.0480
 2.4290	 4.0310
 2.4300	 4.0030
 2.4310	 4.0060
 2.4320	 4.0120
 2.4330	 4.0090
 2.4340	 4.0150
 2.4350	 4.0020
 2.4360	 3.9910
 2.4370	 3.9880
 2.4380	 3.9840
 2.4390	 3.9850
 2.4400	 3.9740
 2.4410	 3.9590
 2.4420	 3.9500
 2.4430	 3.9470
 2.4440	 3.9530
 2.4450	 3.9560
 2.4460	 3.9520
 2.4470	 3.9520
 2.4480	 3.9490
 2.4490	 3.9510
 2.4500	 3.9560
 2.4510	 3.9390
 2.4520	 3.9270
 2.4530	 3.9220
 2.4540	 3.8980
 2.4550	 3.8910
 2.4560	 3.8940
 2.4570	 3.8790
 2.4580	 3.8770
 2.4590	 3.8770
 2.4600	 3.8730
 2.4610	 3.8820
 2.4620	 3.8760
 2.4630	 3.8520
 2.4640	 3.8340
 2.4650	 3.8330
 2.4660	 3.8330
 2.4670	 3.8390
 2.4680	 3.8580
 2.4690	 3.8490
 2.4700	 3.8460
 2.4710	 3.8490
 2.4720	 3.8390
 2.4730	 3.8180
 2.4740	 3.8080
 2.4750	 3.8050
 2.4760	 3.8030
 2.4770	 3.8010
 2.4780	 3.7970
 2.4790	 3.7890
 2.4800	 3.7910
 2.4810	 3.8100
 2.4820	 3.8010
 2.4830	 3.7800
 2.4840	 3.7530
 2.4850	 3.7500
 2.4860	 3.7810
 2.4870	 3.8330
 2.4880	 3.8490
 2.4890	 3.8360
 2.4900	 3.8490
 2.4910	 3.8430
 2.4920	 3.8450
 2.4930	 3.8730
 2.4940	 3.8560
 2.4950	 3.8150
 2.4960	 3.7980
 2.4970	 3.7800
 2.4980	 3.7580
 2.4990	 3.7590
 2.5000	 3.7650
