Name: Agave attenuata
Type: vegetation
Class: Shrub
Genus: Agave
Species: attenuata
Sample No.: JPL062
Owner: JPL
Wavelength Range: TIR
Origin: 34.12717; - 118.11108; WGS84
Collection Date: 2/2/2016
Description: Samples were collected at the Huntington Garden in San Marino California as part of a JPL Subcontract studying HyTES imagery. Samples were taken to JPL and processed within 48 hours of collection. The same leaves were processed in the Nicolet and then measured using the ASD.
Measurement: Hemispherical reflectance
First Column: X
Second Column: Y
X Units: Wavelength (micrometer)
Y Units: Reflectance (percentage)
First X Value: 2.501
Last X Value: 15.387
Number of X Values: 1737
Additional Information: 

 2.5010	 3.1080
 2.5030	 3.1170
 2.5040	 3.1530
 2.5050	 3.1090
 2.5060	 3.0850
 2.5070	 3.0090
 2.5090	 2.9960
 2.5100	 3.0170
 2.5110	 3.0290
 2.5120	 3.0090
 2.5140	 3.0080
 2.5150	 2.9680
 2.5160	 2.9970
 2.5170	 3.0150
 2.5180	 3.0480
 2.5200	 3.0500
 2.5210	 3.0920
 2.5220	 3.0310
 2.5230	 3.0410
 2.5250	 2.9880
 2.5260	 2.9960
 2.5270	 3.0190
 2.5280	 3.0440
 2.5300	 3.0490
 2.5310	 3.0730
 2.5320	 3.0970
 2.5330	 3.0600
 2.5340	 2.9760
 2.5360	 3.0660
 2.5370	 3.0930
 2.5380	 3.0810
 2.5390	 3.0030
 2.5410	 3.0570
 2.5420	 3.0940
 2.5430	 3.1020
 2.5440	 3.0120
 2.5460	 3.0500
 2.5470	 3.0330
 2.5480	 3.0130
 2.5490	 3.0490
 2.5510	 3.0840
 2.5520	 3.0000
 2.5530	 3.0180
 2.5540	 3.1210
 2.5560	 3.1200
 2.5570	 2.9620
 2.5580	 2.9180
 2.5590	 2.9460
 2.5610	 3.0000
 2.5620	 2.9650
 2.5630	 3.0090
 2.5650	 3.0600
 2.5660	 3.0750
 2.5670	 3.0500
 2.5680	 3.0600
 2.5700	 2.9890
 2.5710	 2.9730
 2.5720	 2.9600
 2.5730	 2.9840
 2.5750	 2.9790
 2.5760	 3.0100
 2.5770	 3.0040
 2.5790	 3.0710
 2.5800	 3.0930
 2.5810	 3.0900
 2.5820	 3.0770
 2.5840	 3.0440
 2.5850	 2.9530
 2.5860	 2.9860
 2.5880	 2.9870
 2.5890	 3.0290
 2.5900	 3.0070
 2.5910	 3.0470
 2.5930	 3.0440
 2.5940	 2.9500
 2.5950	 2.8660
 2.5970	 3.0390
 2.5980	 3.1200
 2.5990	 3.0910
 2.6010	 3.0230
 2.6020	 3.0650
 2.6030	 3.0190
 2.6040	 2.9880
 2.6060	 2.9000
 2.6070	 2.9270
 2.6080	 2.9680
 2.6100	 2.9840
 2.6110	 2.9900
 2.6120	 3.0290
 2.6140	 3.0560
 2.6150	 3.0310
 2.6160	 2.9270
 2.6180	 2.9660
 2.6190	 2.9740
 2.6200	 2.9150
 2.6220	 2.8730
 2.6230	 2.9390
 2.6240	 2.9530
 2.6260	 2.9520
 2.6270	 2.8920
 2.6280	 2.9620
 2.6300	 2.9620
 2.6310	 2.8800
 2.6320	 2.8410
 2.6340	 2.9460
 2.6350	 2.9710
 2.6360	 2.9850
 2.6380	 2.9290
 2.6390	 2.9370
 2.6400	 2.9650
 2.6420	 2.9650
 2.6430	 2.9080
 2.6440	 2.9160
 2.6460	 2.9020
 2.6470	 2.9400
 2.6480	 2.9560
 2.6500	 3.0230
 2.6510	 2.9890
 2.6520	 2.9310
 2.6540	 2.9510
 2.6550	 3.0120
 2.6570	 2.9730
 2.6580	 2.9710
 2.6590	 2.9900
 2.6610	 2.9930
 2.6620	 2.9240
 2.6630	 2.8710
 2.6650	 2.8140
 2.6660	 2.8290
 2.6670	 2.8200
 2.6690	 2.8480
 2.6700	 2.8120
 2.6720	 2.8630
 2.6730	 2.9200
 2.6740	 2.9150
 2.6760	 2.8600
 2.6770	 2.8580
 2.6780	 2.8460
 2.6800	 2.8660
 2.6810	 2.9160
 2.6830	 2.9460
 2.6840	 2.8930
 2.6850	 2.9040
 2.6870	 2.8640
 2.6880	 2.8640
 2.6900	 2.8520
 2.6910	 2.9140
 2.6920	 2.9150
 2.6940	 2.8790
 2.6950	 2.8570
 2.6970	 2.8770
 2.6980	 2.8860
 2.6990	 2.9440
 2.7010	 2.8850
 2.7020	 2.8690
 2.7040	 2.8150
 2.7050	 2.8500
 2.7060	 2.8950
 2.7080	 2.9460
 2.7090	 2.8900
 2.7110	 2.8350
 2.7120	 2.8610
 2.7130	 2.9860
 2.7150	 2.9640
 2.7160	 2.9080
 2.7180	 2.8420
 2.7190	 2.8620
 2.7210	 2.7950
 2.7220	 2.7580
 2.7230	 2.8170
 2.7250	 2.8930
 2.7260	 2.8300
 2.7280	 2.8990
 2.7290	 2.9580
 2.7310	 2.9670
 2.7320	 2.9080
 2.7340	 2.9510
 2.7350	 2.9470
 2.7360	 2.9310
 2.7380	 2.8490
 2.7390	 2.8330
 2.7410	 2.7960
 2.7420	 2.8720
 2.7440	 2.9040
 2.7450	 2.9080
 2.7470	 2.8800
 2.7480	 2.9250
 2.7490	 2.8760
 2.7510	 2.8860
 2.7520	 2.8370
 2.7540	 2.8370
 2.7550	 2.7760
 2.7570	 2.8050
 2.7580	 2.8680
 2.7600	 2.8950
 2.7610	 2.8720
 2.7630	 2.8600
 2.7640	 2.8250
 2.7660	 2.8530
 2.7670	 2.8080
 2.7690	 2.7840
 2.7700	 2.8240
 2.7720	 2.9520
 2.7730	 2.9400
 2.7740	 2.9070
 2.7760	 2.8460
 2.7770	 2.9620
 2.7790	 2.9940
 2.7800	 2.9660
 2.7820	 2.9390
 2.7830	 2.9440
 2.7850	 2.8860
 2.7860	 2.8630
 2.7880	 2.8230
 2.7890	 2.8990
 2.7910	 2.9670
 2.7920	 3.0070
 2.7940	 2.9160
 2.7950	 2.8450
 2.7970	 2.8280
 2.7980	 2.8960
 2.8000	 2.9350
 2.8010	 2.8980
 2.8030	 2.7850
 2.8040	 2.8260
 2.8060	 2.8590
 2.8080	 2.8880
 2.8090	 2.8640
 2.8110	 2.9060
 2.8120	 2.8440
 2.8140	 2.8000
 2.8150	 2.8110
 2.8170	 2.9190
 2.8180	 2.9030
 2.8200	 2.9240
 2.8210	 2.9140
 2.8230	 2.9040
 2.8240	 2.9170
 2.8260	 2.9480
 2.8270	 2.8960
 2.8290	 2.9540
 2.8310	 2.9520
 2.8320	 2.9540
 2.8340	 2.9190
 2.8350	 2.9000
 2.8370	 2.8620
 2.8380	 2.9370
 2.8400	 2.9430
 2.8410	 2.9640
 2.8430	 2.9210
 2.8440	 2.9090
 2.8460	 2.8670
 2.8480	 2.8910
 2.8490	 2.8590
 2.8510	 2.8850
 2.8520	 2.8280
 2.8540	 2.8720
 2.8550	 2.9100
 2.8570	 2.9050
 2.8590	 2.8700
 2.8600	 2.8880
 2.8620	 2.8550
 2.8630	 2.8990
 2.8650	 2.9190
 2.8660	 2.9170
 2.8680	 2.9060
 2.8700	 2.8960
 2.8710	 2.8580
 2.8730	 2.9110
 2.8740	 2.8870
 2.8760	 2.8670
 2.8780	 2.8320
 2.8790	 2.8480
 2.8810	 2.7850
 2.8820	 2.7810
 2.8840	 2.8370
 2.8860	 2.9200
 2.8870	 2.8930
 2.8890	 2.8330
 2.8900	 2.7530
 2.8920	 2.8340
 2.8940	 2.8360
 2.8950	 2.8710
 2.8970	 2.8770
 2.8990	 2.8890
 2.9000	 2.8960
 2.9020	 2.9120
 2.9030	 2.8770
 2.9050	 2.9120
 2.9070	 2.8410
 2.9080	 2.8780
 2.9100	 2.8490
 2.9120	 2.8400
 2.9130	 2.7990
 2.9150	 2.8550
 2.9160	 2.8870
 2.9180	 2.9680
 2.9200	 2.8970
 2.9210	 2.8330
 2.9230	 2.8740
 2.9250	 2.9370
 2.9260	 2.9380
 2.9280	 2.9410
 2.9300	 2.8490
 2.9310	 2.8570
 2.9330	 2.8360
 2.9350	 2.8810
 2.9360	 2.8640
 2.9380	 2.8190
 2.9400	 2.7240
 2.9410	 2.7760
 2.9430	 2.7850
 2.9450	 2.7990
 2.9460	 2.8010
 2.9480	 2.8450
 2.9500	 2.8380
 2.9510	 2.8500
 2.9530	 2.8400
 2.9550	 2.8680
 2.9560	 2.8300
 2.9580	 2.8350
 2.9600	 2.8410
 2.9610	 2.8270
 2.9630	 2.7410
 2.9650	 2.7660
 2.9670	 2.8000
 2.9680	 2.8300
 2.9700	 2.7720
 2.9720	 2.8030
 2.9730	 2.8280
 2.9750	 2.7770
 2.9770	 2.6970
 2.9780	 2.7070
 2.9800	 2.7280
 2.9820	 2.7070
 2.9840	 2.6670
 2.9850	 2.7480
 2.9870	 2.7410
 2.9890	 2.7480
 2.9900	 2.7360
 2.9920	 2.7570
 2.9940	 2.7360
 2.9960	 2.7950
 2.9970	 2.7610
 2.9990	 2.7520
 3.0010	 2.7680
 3.0030	 2.7460
 3.0040	 2.7190
 3.0060	 2.7540
 3.0080	 2.7010
 3.0100	 2.7250
 3.0110	 2.7460
 3.0130	 2.7370
 3.0150	 2.7000
 3.0170	 2.7590
 3.0180	 2.6860
 3.0200	 2.7000
 3.0220	 2.6930
 3.0240	 2.7160
 3.0250	 2.7240
 3.0270	 2.6990
 3.0290	 2.6960
 3.0310	 2.7390
 3.0320	 2.7080
 3.0340	 2.7190
 3.0360	 2.6860
 3.0380	 2.6740
 3.0400	 2.6270
 3.0410	 2.6550
 3.0430	 2.6560
 3.0450	 2.6700
 3.0470	 2.6780
 3.0480	 2.6860
 3.0500	 2.6930
 3.0520	 2.7510
 3.0540	 2.6910
 3.0560	 2.6640
 3.0570	 2.6610
 3.0590	 2.6600
 3.0610	 2.6900
 3.0630	 2.6860
 3.0650	 2.6130
 3.0670	 2.6590
 3.0680	 2.6720
 3.0700	 2.7140
 3.0720	 2.7050
 3.0740	 2.6970
 3.0760	 2.6520
 3.0770	 2.6650
 3.0790	 2.6240
 3.0810	 2.6360
 3.0830	 2.6120
 3.0850	 2.6770
 3.0870	 2.6440
 3.0880	 2.6330
 3.0900	 2.6050
 3.0920	 2.6270
 3.0940	 2.6390
 3.0960	 2.6670
 3.0980	 2.6260
 3.1000	 2.6110
 3.1010	 2.6150
 3.1030	 2.6460
 3.1050	 2.6390
 3.1070	 2.6470
 3.1090	 2.6160
 3.1110	 2.6520
 3.1130	 2.6620
 3.1140	 2.6680
 3.1160	 2.6610
 3.1180	 2.6910
 3.1200	 2.6390
 3.1220	 2.6240
 3.1240	 2.5460
 3.1260	 2.5780
 3.1280	 2.6330
 3.1290	 2.6630
 3.1310	 2.5950
 3.1330	 2.6150
 3.1350	 2.5790
 3.1370	 2.6050
 3.1390	 2.6280
 3.1410	 2.6120
 3.1430	 2.5620
 3.1450	 2.5430
 3.1470	 2.5280
 3.1480	 2.5420
 3.1500	 2.5940
 3.1520	 2.6340
 3.1540	 2.5630
 3.1560	 2.5200
 3.1580	 2.5120
 3.1600	 2.5330
 3.1620	 2.5040
 3.1640	 2.5280
 3.1660	 2.5660
 3.1680	 2.5910
 3.1700	 2.5300
 3.1720	 2.4840
 3.1730	 2.4610
 3.1750	 2.4880
 3.1770	 2.5310
 3.1790	 2.5840
 3.1810	 2.5400
 3.1830	 2.5250
 3.1850	 2.5010
 3.1870	 2.5110
 3.1890	 2.5050
 3.1910	 2.5190
 3.1930	 2.5220
 3.1950	 2.5390
 3.1970	 2.5150
 3.1990	 2.5450
 3.2010	 2.5140
 3.2030	 2.5120
 3.2050	 2.4770
 3.2070	 2.4850
 3.2090	 2.5070
 3.2110	 2.5410
 3.2130	 2.5120
 3.2150	 2.5090
 3.2170	 2.4530
 3.2190	 2.4530
 3.2210	 2.4790
 3.2230	 2.4860
 3.2250	 2.4700
 3.2270	 2.4750
 3.2290	 2.4560
 3.2310	 2.4640
 3.2330	 2.4450
 3.2350	 2.4970
 3.2370	 2.5050
 3.2390	 2.5290
 3.2410	 2.4930
 3.2430	 2.4630
 3.2450	 2.4390
 3.2470	 2.4950
 3.2490	 2.4970
 3.2510	 2.4490
 3.2530	 2.4070
 3.2550	 2.4490
 3.2570	 2.4460
 3.2590	 2.4240
 3.2610	 2.4140
 3.2630	 2.4430
 3.2650	 2.4350
 3.2670	 2.4570
 3.2700	 2.4560
 3.2720	 2.4690
 3.2740	 2.4020
 3.2760	 2.3650
 3.2780	 2.3570
 3.2800	 2.3870
 3.2820	 2.3760
 3.2840	 2.3870
 3.2860	 2.3520
 3.2880	 2.3870
 3.2900	 2.3790
 3.2920	 2.3620
 3.2940	 2.3960
 3.2970	 2.4150
 3.2990	 2.3720
 3.3010	 2.3770
 3.3030	 2.3480
 3.3050	 2.3510
 3.3070	 2.3290
 3.3090	 2.3670
 3.3110	 2.3710
 3.3130	 2.3250
 3.3160	 2.2640
 3.3180	 2.2900
 3.3200	 2.2790
 3.3220	 2.3050
 3.3240	 2.3240
 3.3260	 2.3190
 3.3280	 2.3040
 3.3300	 2.3430
 3.3330	 2.2980
 3.3350	 2.2700
 3.3370	 2.2710
 3.3390	 2.2780
 3.3410	 2.2540
 3.3430	 2.2220
 3.3450	 2.1810
 3.3480	 2.2060
 3.3500	 2.1840
 3.3520	 2.1860
 3.3540	 2.1350
 3.3560	 2.1400
 3.3580	 2.1360
 3.3610	 2.1750
 3.3630	 2.1180
 3.3650	 2.0950
 3.3670	 2.0430
 3.3690	 2.0180
 3.3720	 1.9950
 3.3740	 2.0240
 3.3760	 2.0130
 3.3780	 2.0080
 3.3800	 2.0570
 3.3830	 2.1240
 3.3850	 2.0650
 3.3870	 2.0280
 3.3890	 2.0070
 3.3910	 1.9480
 3.3940	 1.8850
 3.3960	 1.8990
 3.3980	 1.8730
 3.4000	 1.8170
 3.4030	 1.7270
 3.4050	 1.7200
 3.4070	 1.6780
 3.4090	 1.6740
 3.4110	 1.7050
 3.4140	 1.7600
 3.4160	 1.8540
 3.4180	 2.0610
 3.4200	 2.3230
 3.4230	 2.7270
 3.4250	 3.2080
 3.4270	 3.6990
 3.4300	 4.0510
 3.4320	 4.1800
 3.4340	 4.0650
 3.4360	 3.8720
 3.4390	 3.6630
 3.4410	 3.5280
 3.4430	 3.3880
 3.4450	 3.3390
 3.4480	 3.3070
 3.4500	 3.2430
 3.4520	 3.1670
 3.4550	 3.1790
 3.4570	 3.1510
 3.4590	 3.1570
 3.4620	 3.1410
 3.4640	 3.1040
 3.4660	 3.0490
 3.4690	 3.0560
 3.4710	 3.0040
 3.4730	 2.9490
 3.4760	 2.8690
 3.4780	 2.8680
 3.4800	 2.8180
 3.4830	 2.7920
 3.4850	 2.7730
 3.4870	 2.7460
 3.4900	 2.6400
 3.4920	 2.5730
 3.4940	 2.5020
 3.4970	 2.4380
 3.4990	 2.3790
 3.5010	 2.3830
 3.5040	 2.4120
 3.5060	 2.6270
 3.5080	 3.1780
 3.5110	 3.8700
 3.5130	 4.2250
 3.5160	 4.1900
 3.5180	 3.9800
 3.5200	 3.8490
 3.5230	 3.7150
 3.5250	 3.5990
 3.5280	 3.4760
 3.5300	 3.4100
 3.5320	 3.3640
 3.5350	 3.3460
 3.5370	 3.3250
 3.5400	 3.2910
 3.5420	 3.2410
 3.5440	 3.1920
 3.5470	 3.1520
 3.5490	 3.1940
 3.5520	 3.1730
 3.5540	 3.1300
 3.5570	 3.0990
 3.5590	 3.1080
 3.5610	 3.0710
 3.5640	 3.0700
 3.5660	 3.0540
 3.5690	 3.0250
 3.5710	 3.0230
 3.5740	 3.0400
 3.5760	 3.0230
 3.5790	 3.0210
 3.5810	 2.9830
 3.5840	 3.0100
 3.5860	 3.0250
 3.5890	 3.0260
 3.5910	 3.0130
 3.5940	 2.9620
 3.5960	 2.9290
 3.5990	 2.9600
 3.6010	 2.9770
 3.6040	 2.9890
 3.6060	 2.9540
 3.6090	 2.9540
 3.6110	 2.9230
 3.6140	 2.9010
 3.6160	 2.8830
 3.6190	 2.8940
 3.6210	 2.8820
 3.6240	 2.9020
 3.6260	 2.9040
 3.6290	 2.8640
 3.6310	 2.8500
 3.6340	 2.8960
 3.6360	 2.9020
 3.6390	 2.9070
 3.6410	 2.8890
 3.6440	 2.8760
 3.6470	 2.8670
 3.6490	 2.8760
 3.6520	 2.8670
 3.6540	 2.8650
 3.6570	 2.8340
 3.6590	 2.8130
 3.6620	 2.7600
 3.6650	 2.7910
 3.6670	 2.8130
 3.6700	 2.8450
 3.6720	 2.8390
 3.6750	 2.8190
 3.6780	 2.8040
 3.6800	 2.8180
 3.6830	 2.8320
 3.6850	 2.8790
 3.6880	 2.8510
 3.6910	 2.8270
 3.6930	 2.8080
 3.6960	 2.7790
 3.6990	 2.7700
 3.7010	 2.8130
 3.7040	 2.8020
 3.7070	 2.8250
 3.7090	 2.8200
 3.7120	 2.8020
 3.7150	 2.8170
 3.7170	 2.8660
 3.7200	 2.8120
 3.7230	 2.8050
 3.7250	 2.7940
 3.7280	 2.7910
 3.7310	 2.7710
 3.7330	 2.7710
 3.7360	 2.7730
 3.7390	 2.7840
 3.7410	 2.7840
 3.7440	 2.7820
 3.7470	 2.7340
 3.7490	 2.7420
 3.7520	 2.7560
 3.7550	 2.7880
 3.7580	 2.7880
 3.7600	 2.7900
 3.7630	 2.7970
 3.7660	 2.8200
 3.7690	 2.7940
 3.7710	 2.7770
 3.7740	 2.7820
 3.7770	 2.7890
 3.7790	 2.7560
 3.7820	 2.7810
 3.7850	 2.7840
 3.7880	 2.7720
 3.7910	 2.7560
 3.7930	 2.7130
 3.7960	 2.6880
 3.7990	 2.7380
 3.8020	 2.7660
 3.8040	 2.7830
 3.8070	 2.7430
 3.8100	 2.7090
 3.8130	 2.7190
 3.8160	 2.7490
 3.8180	 2.7420
 3.8210	 2.7400
 3.8240	 2.7180
 3.8270	 2.7230
 3.8300	 2.7400
 3.8330	 2.7560
 3.8350	 2.7080
 3.8380	 2.7110
 3.8410	 2.7330
 3.8440	 2.7190
 3.8470	 2.7050
 3.8500	 2.7480
 3.8520	 2.7490
 3.8550	 2.7320
 3.8580	 2.7180
 3.8610	 2.7470
 3.8640	 2.7330
 3.8670	 2.7320
 3.8700	 2.7320
 3.8730	 2.6960
 3.8760	 2.6600
 3.8780	 2.6660
 3.8810	 2.6690
 3.8840	 2.6940
 3.8870	 2.6970
 3.8900	 2.6900
 3.8930	 2.6830
 3.8960	 2.7160
 3.8990	 2.7370
 3.9020	 2.7480
 3.9050	 2.7140
 3.9080	 2.6970
 3.9110	 2.6860
 3.9140	 2.7150
 3.9170	 2.6860
 3.9190	 2.6810
 3.9220	 2.7000
 3.9250	 2.6790
 3.9280	 2.6700
 3.9310	 2.6990
 3.9340	 2.6580
 3.9370	 2.6340
 3.9400	 2.6240
 3.9430	 2.6190
 3.9460	 2.6340
 3.9490	 2.6710
 3.9520	 2.6830
 3.9550	 2.6920
 3.9580	 2.6780
 3.9610	 2.6540
 3.9640	 2.6560
 3.9670	 2.6910
 3.9700	 2.6570
 3.9740	 2.6640
 3.9770	 2.6710
 3.9800	 2.6810
 3.9830	 2.6940
 3.9860	 2.6870
 3.9890	 2.6540
 3.9920	 2.6450
 3.9950	 2.6410
 3.9980	 2.6380
 4.0010	 2.6170
 4.0040	 2.6340
 4.0070	 2.6220
 4.0100	 2.6390
 4.0140	 2.6540
 4.0170	 2.6530
 4.0200	 2.6320
 4.0230	 2.6290
 4.0260	 2.6400
 4.0290	 2.6560
 4.0320	 2.6270
 4.0350	 2.6580
 4.0390	 2.6680
 4.0420	 2.6470
 4.0450	 2.6270
 4.0480	 2.6310
 4.0510	 2.6550
 4.0540	 2.6890
 4.0570	 2.6630
 4.0610	 2.6140
 4.0640	 2.5860
 4.0670	 2.6270
 4.0700	 2.6480
 4.0730	 2.6510
 4.0770	 2.6530
 4.0800	 2.6860
 4.0830	 2.6670
 4.0860	 2.6460
 4.0890	 2.6430
 4.0930	 2.6140
 4.0960	 2.6050
 4.0990	 2.6180
 4.1020	 2.6000
 4.1060	 2.5870
 4.1090	 2.6190
 4.1120	 2.6360
 4.1150	 2.6100
 4.1190	 2.6160
 4.1220	 2.6080
 4.1250	 2.6040
 4.1290	 2.6020
 4.1320	 2.6160
 4.1350	 2.6290
 4.1380	 2.6370
 4.1420	 2.5960
 4.1450	 2.5470
 4.1480	 2.5560
 4.1520	 2.6140
 4.1550	 2.6410
 4.1580	 2.6450
 4.1620	 2.6190
 4.1650	 2.5790
 4.1680	 2.5600
 4.1720	 2.5810
 4.1750	 2.5860
 4.1780	 2.5950
 4.1820	 2.5880
 4.1850	 2.5920
 4.1890	 2.5980
 4.1920	 2.5810
 4.1950	 2.5620
 4.1990	 2.6330
 4.2020	 2.6380
 4.2060	 2.6070
 4.2090	 2.6350
 4.2120	 2.6540
 4.2160	 2.6550
 4.2190	 2.7110
 4.2230	 2.7050
 4.2260	 2.5830
 4.2300	 2.5740
 4.2330	 2.6060
 4.2360	 2.5220
 4.2400	 2.5660
 4.2430	 2.5670
 4.2470	 2.5800
 4.2500	 2.6230
 4.2540	 2.6480
 4.2570	 2.6470
 4.2610	 2.6690
 4.2640	 2.6430
 4.2680	 2.5980
 4.2710	 2.6540
 4.2750	 2.6260
 4.2780	 2.5820
 4.2820	 2.6320
 4.2850	 2.6300
 4.2890	 2.6500
 4.2930	 2.6630
 4.2960	 2.6340
 4.3000	 2.5670
 4.3030	 2.5600
 4.3070	 2.6140
 4.3100	 2.6140
 4.3140	 2.5920
 4.3180	 2.5780
 4.3210	 2.5990
 4.3250	 2.6040
 4.3280	 2.5830
 4.3320	 2.5910
 4.3360	 2.5610
 4.3390	 2.5980
 4.3430	 2.6300
 4.3470	 2.6010
 4.3500	 2.6370
 4.3540	 2.6430
 4.3580	 2.5820
 4.3610	 2.5810
 4.3650	 2.5880
 4.3690	 2.5740
 4.3720	 2.5860
 4.3760	 2.5910
 4.3800	 2.6110
 4.3830	 2.6350
 4.3870	 2.6250
 4.3910	 2.6320
 4.3940	 2.6500
 4.3980	 2.6350
 4.4020	 2.5930
 4.4060	 2.5710
 4.4090	 2.5920
 4.4130	 2.6280
 4.4170	 2.6060
 4.4210	 2.6000
 4.4240	 2.6020
 4.4280	 2.6010
 4.4320	 2.6070
 4.4360	 2.5810
 4.4400	 2.5850
 4.4430	 2.5980
 4.4470	 2.5880
 4.4510	 2.5840
 4.4550	 2.6090
 4.4590	 2.5910
 4.4630	 2.5650
 4.4660	 2.5690
 4.4700	 2.6170
 4.4740	 2.6510
 4.4780	 2.6470
 4.4820	 2.6340
 4.4860	 2.6070
 4.4900	 2.5850
 4.4930	 2.5850
 4.4970	 2.6000
 4.5010	 2.5980
 4.5050	 2.5960
 4.5090	 2.5890
 4.5130	 2.6200
 4.5170	 2.6350
 4.5210	 2.6230
 4.5250	 2.6150
 4.5290	 2.6000
 4.5330	 2.6040
 4.5370	 2.6370
 4.5410	 2.6160
 4.5450	 2.5910
 4.5490	 2.5910
 4.5530	 2.5880
 4.5570	 2.5860
 4.5610	 2.6010
 4.5650	 2.6170
 4.5690	 2.6480
 4.5730	 2.6590
 4.5770	 2.6590
 4.5810	 2.6390
 4.5850	 2.6330
 4.5890	 2.6320
 4.5930	 2.5910
 4.5970	 2.6000
 4.6010	 2.6340
 4.6050	 2.6270
 4.6090	 2.6430
 4.6130	 2.6370
 4.6170	 2.6020
 4.6220	 2.6030
 4.6260	 2.6420
 4.6300	 2.6670
 4.6340	 2.6580
 4.6380	 2.6470
 4.6420	 2.6120
 4.6460	 2.5980
 4.6510	 2.6130
 4.6550	 2.6480
 4.6590	 2.6450
 4.6630	 2.6180
 4.6670	 2.6170
 4.6720	 2.6080
 4.6760	 2.6040
 4.6800	 2.6360
 4.6840	 2.6770
 4.6880	 2.6900
 4.6930	 2.6380
 4.6970	 2.6540
 4.7010	 2.6550
 4.7050	 2.6430
 4.7100	 2.6250
 4.7140	 2.6600
 4.7180	 2.7110
 4.7230	 2.7060
 4.7270	 2.6680
 4.7310	 2.6320
 4.7360	 2.6390
 4.7400	 2.6550
 4.7440	 2.6310
 4.7490	 2.6180
 4.7530	 2.6030
 4.7570	 2.6180
 4.7620	 2.6460
 4.7660	 2.6620
 4.7700	 2.6430
 4.7750	 2.6410
 4.7790	 2.6560
 4.7840	 2.6830
 4.7880	 2.6710
 4.7920	 2.6800
 4.7970	 2.6800
 4.8010	 2.6500
 4.8060	 2.6430
 4.8100	 2.6880
 4.8150	 2.6960
 4.8190	 2.6960
 4.8240	 2.6830
 4.8280	 2.6610
 4.8330	 2.6890
 4.8370	 2.7090
 4.8420	 2.6950
 4.8460	 2.7160
 4.8510	 2.7120
 4.8550	 2.6780
 4.8600	 2.6490
 4.8640	 2.6650
 4.8690	 2.6650
 4.8740	 2.6940
 4.8780	 2.7190
 4.8830	 2.7190
 4.8870	 2.6870
 4.8920	 2.6890
 4.8970	 2.6940
 4.9010	 2.7050
 4.9060	 2.7090
 4.9100	 2.7220
 4.9150	 2.7170
 4.9200	 2.6890
 4.9240	 2.6390
 4.9290	 2.6630
 4.9340	 2.6900
 4.9390	 2.6600
 4.9430	 2.6560
 4.9480	 2.6490
 4.9530	 2.6490
 4.9570	 2.6920
 4.9620	 2.7110
 4.9670	 2.7280
 4.9720	 2.7130
 4.9760	 2.7180
 4.9810	 2.6850
 4.9860	 2.7080
 4.9910	 2.7330
 4.9960	 2.7020
 5.0000	 2.6700
 5.0050	 2.6930
 5.0100	 2.7080
 5.0150	 2.7300
 5.0200	 2.7040
 5.0250	 2.6850
 5.0300	 2.6740
 5.0340	 2.7320
 5.0390	 2.7550
 5.0440	 2.7420
 5.0490	 2.7080
 5.0540	 2.7040
 5.0590	 2.7080
 5.0640	 2.7040
 5.0690	 2.6970
 5.0740	 2.7090
 5.0790	 2.7130
 5.0840	 2.7270
 5.0890	 2.7250
 5.0940	 2.7070
 5.0990	 2.6790
 5.1040	 2.7160
 5.1090	 2.7330
 5.1140	 2.7230
 5.1190	 2.7160
 5.1240	 2.7470
 5.1290	 2.7120
 5.1340	 2.6840
 5.1390	 2.6920
 5.1440	 2.7280
 5.1490	 2.7710
 5.1550	 2.7870
 5.1600	 2.7530
 5.1650	 2.7420
 5.1700	 2.7070
 5.1750	 2.7000
 5.1800	 2.7050
 5.1850	 2.7070
 5.1910	 2.6930
 5.1960	 2.6970
 5.2010	 2.6870
 5.2060	 2.6870
 5.2110	 2.6870
 5.2170	 2.6990
 5.2220	 2.7190
 5.2270	 2.7330
 5.2330	 2.6940
 5.2380	 2.7100
 5.2430	 2.7220
 5.2480	 2.7240
 5.2540	 2.7310
 5.2590	 2.7530
 5.2640	 2.7220
 5.2700	 2.6950
 5.2750	 2.6900
 5.2800	 2.7190
 5.2860	 2.7200
 5.2910	 2.7020
 5.2970	 2.7180
 5.3020	 2.7330
 5.3080	 2.7260
 5.3130	 2.7360
 5.3180	 2.7190
 5.3240	 2.7380
 5.3290	 2.7560
 5.3350	 2.7640
 5.3400	 2.7030
 5.3460	 2.6900
 5.3510	 2.6770
 5.3570	 2.7300
 5.3620	 2.7410
 5.3680	 2.7240
 5.3740	 2.7120
 5.3790	 2.7200
 5.3850	 2.7030
 5.3900	 2.7030
 5.3960	 2.6960
 5.4010	 2.7200
 5.4070	 2.7050
 5.4130	 2.7030
 5.4180	 2.6960
 5.4240	 2.6760
 5.4300	 2.6550
 5.4350	 2.6480
 5.4410	 2.6550
 5.4470	 2.6730
 5.4530	 2.6420
 5.4580	 2.6360
 5.4640	 2.6160
 5.4700	 2.6510
 5.4760	 2.6580
 5.4810	 2.6790
 5.4870	 2.6910
 5.4930	 2.6980
 5.4990	 2.6920
 5.5050	 2.7020
 5.5110	 2.6700
 5.5160	 2.6640
 5.5220	 2.6560
 5.5280	 2.6570
 5.5340	 2.6380
 5.5400	 2.6310
 5.5460	 2.6240
 5.5520	 2.6290
 5.5580	 2.6170
 5.5640	 2.6660
 5.5700	 2.6580
 5.5760	 2.5880
 5.5820	 2.5570
 5.5880	 2.6230
 5.5940	 2.6550
 5.6000	 2.6520
 5.6060	 2.5860
 5.6120	 2.5860
 5.6180	 2.5700
 5.6240	 2.5950
 5.6300	 2.5890
 5.6360	 2.5690
 5.6420	 2.5080
 5.6490	 2.5530
 5.6550	 2.5590
 5.6610	 2.5740
 5.6670	 2.5630
 5.6730	 2.5320
 5.6800	 2.5210
 5.6860	 2.5330
 5.6920	 2.4710
 5.6980	 2.4370
 5.7050	 2.4110
 5.7110	 2.3830
 5.7170	 2.3260
 5.7230	 2.3470
 5.7300	 2.3330
 5.7360	 2.2790
 5.7420	 2.2220
 5.7490	 2.2490
 5.7550	 2.2750
 5.7620	 2.2460
 5.7680	 2.2240
 5.7740	 2.3330
 5.7810	 2.3740
 5.7870	 2.4240
 5.7940	 2.4390
 5.8000	 2.4990
 5.8070	 2.5290
 5.8130	 2.5380
 5.8200	 2.4910
 5.8260	 2.5160
 5.8330	 2.5560
 5.8390	 2.6110
 5.8460	 2.6630
 5.8530	 2.7060
 5.8590	 2.6530
 5.8660	 2.6690
 5.8730	 2.7120
 5.8790	 2.6790
 5.8860	 2.6680
 5.8930	 2.7210
 5.8990	 2.6970
 5.9060	 2.7590
 5.9130	 2.7820
 5.9190	 2.7880
 5.9260	 2.7490
 5.9330	 2.7070
 5.9400	 2.6870
 5.9470	 2.7790
 5.9530	 2.7740
 5.9600	 2.7810
 5.9670	 2.6980
 5.9740	 2.6850
 5.9810	 2.6820
 5.9880	 2.6950
 5.9950	 2.6620
 6.0020	 2.6830
 6.0090	 2.6380
 6.0160	 2.6300
 6.0230	 2.6600
 6.0300	 2.6980
 6.0370	 2.6270
 6.0440	 2.5020
 6.0510	 2.4110
 6.0580	 2.5290
 6.0650	 2.5310
 6.0720	 2.4980
 6.0790	 2.4580
 6.0860	 2.5080
 6.0930	 2.5220
 6.1010	 2.5310
 6.1080	 2.4740
 6.1150	 2.4870
 6.1220	 2.4850
 6.1290	 2.5450
 6.1370	 2.5160
 6.1440	 2.5280
 6.1510	 2.5190
 6.1580	 2.5250
 6.1660	 2.5260
 6.1730	 2.5050
 6.1800	 2.4230
 6.1880	 2.4240
 6.1950	 2.4810
 6.2030	 2.5620
 6.2100	 2.5360
 6.2180	 2.5600
 6.2250	 2.5220
 6.2320	 2.4850
 6.2400	 2.4480
 6.2480	 2.5520
 6.2550	 2.5610
 6.2630	 2.5530
 6.2700	 2.5050
 6.2780	 2.5190
 6.2850	 2.4950
 6.2930	 2.5350
 6.3010	 2.5510
 6.3080	 2.5760
 6.3160	 2.5690
 6.3240	 2.5880
 6.3310	 2.5780
 6.3390	 2.5380
 6.3470	 2.4080
 6.3550	 2.4860
 6.3620	 2.5340
 6.3700	 2.5440
 6.3780	 2.5180
 6.3860	 2.5550
 6.3940	 2.5850
 6.4020	 2.6030
 6.4100	 2.4510
 6.4180	 2.4470
 6.4260	 2.5200
 6.4340	 2.5770
 6.4420	 2.5840
 6.4500	 2.6010
 6.4580	 2.5990
 6.4660	 2.6170
 6.4740	 2.5440
 6.4820	 2.5060
 6.4900	 2.4430
 6.4980	 2.4920
 6.5060	 2.5470
 6.5140	 2.5720
 6.5230	 2.5060
 6.5310	 2.5740
 6.5390	 2.5450
 6.5470	 2.5520
 6.5560	 2.5280
 6.5640	 2.5010
 6.5720	 2.4340
 6.5800	 2.5060
 6.5890	 2.4850
 6.5970	 2.4970
 6.6060	 2.4590
 6.6140	 2.4570
 6.6230	 2.4220
 6.6310	 2.4080
 6.6390	 2.3580
 6.6480	 2.4290
 6.6570	 2.4320
 6.6650	 2.4880
 6.6740	 2.4760
 6.6820	 2.4760
 6.6910	 2.4260
 6.7000	 2.4510
 6.7080	 2.3940
 6.7170	 2.4010
 6.7260	 2.3720
 6.7340	 2.3940
 6.7430	 2.3670
 6.7520	 2.3480
 6.7610	 2.3160
 6.7690	 2.3120
 6.7780	 2.2340
 6.7870	 2.4130
 6.7960	 2.5420
 6.8050	 2.5440
 6.8140	 2.4550
 6.8230	 2.4350
 6.8320	 2.6610
 6.8410	 3.0310
 6.8500	 2.9560
 6.8590	 2.7230
 6.8680	 2.6080
 6.8770	 2.7030
 6.8860	 2.6980
 6.8960	 2.6960
 6.9050	 2.6180
 6.9140	 2.6370
 6.9230	 2.5870
 6.9320	 2.6070
 6.9420	 2.5810
 6.9510	 2.6060
 6.9600	 2.5500
 6.9700	 2.5710
 6.9790	 2.5140
 6.9880	 2.5340
 6.9980	 2.4690
 7.0070	 2.4710
 7.0170	 2.4650
 7.0260	 2.5190
 7.0360	 2.4510
 7.0450	 2.4460
 7.0550	 2.5240
 7.0650	 2.6260
 7.0740	 2.5810
 7.0840	 2.5820
 7.0940	 2.5580
 7.1030	 2.6360
 7.1130	 2.5720
 7.1230	 2.5520
 7.1330	 2.5480
 7.1420	 2.6050
 7.1520	 2.5360
 7.1620	 2.5630
 7.1720	 2.4900
 7.1820	 2.4980
 7.1920	 2.4490
 7.2020	 2.4750
 7.2120	 2.4630
 7.2220	 2.4910
 7.2320	 2.4280
 7.2420	 2.4640
 7.2520	 2.4530
 7.2620	 2.4730
 7.2730	 2.4510
 7.2830	 2.5090
 7.2930	 2.4520
 7.3030	 2.4710
 7.3140	 2.4520
 7.3240	 2.4780
 7.3340	 2.4540
 7.3450	 2.5060
 7.3550	 2.4680
 7.3660	 2.4680
 7.3760	 2.4470
 7.3870	 2.5050
 7.3970	 2.4630
 7.4080	 2.4880
 7.4180	 2.4660
 7.4290	 2.4750
 7.4400	 2.4260
 7.4500	 2.4380
 7.4610	 2.3670
 7.4720	 2.3720
 7.4830	 2.3290
 7.4930	 2.3760
 7.5040	 2.3450
 7.5150	 2.3910
 7.5260	 2.3990
 7.5370	 2.4640
 7.5480	 2.4240
 7.5590	 2.4460
 7.5700	 2.3980
 7.5810	 2.4370
 7.5920	 2.4020
 7.6030	 2.3860
 7.6140	 2.3930
 7.6260	 2.4660
 7.6370	 2.4100
 7.6480	 2.3960
 7.6590	 2.3630
 7.6710	 2.4370
 7.6820	 2.4300
 7.6940	 2.4280
 7.7050	 2.3380
 7.7160	 2.3540
 7.7280	 2.3470
 7.7390	 2.4340
 7.7510	 2.3760
 7.7630	 2.3600
 7.7740	 2.3440
 7.7860	 2.4060
 7.7980	 2.3510
 7.8090	 2.4000
 7.8210	 2.3710
 7.8330	 2.3690
 7.8450	 2.3280
 7.8570	 2.3880
 7.8690	 2.3540
 7.8810	 2.3970
 7.8930	 2.3560
 7.9050	 2.3810
 7.9170	 2.3410
 7.9290	 2.3850
 7.9410	 2.3340
 7.9530	 2.3630
 7.9650	 2.3410
 7.9780	 2.3860
 7.9900	 2.3400
 8.0020	 2.3340
 8.0150	 2.2770
 8.0270	 2.3740
 8.0390	 2.3400
 8.0520	 2.3480
 8.0640	 2.2760
 8.0770	 2.3850
 8.0900	 2.3840
 8.1020	 2.4150
 8.1150	 2.3730
 8.1280	 2.4050
 8.1400	 2.3840
 8.1530	 2.4910
 8.1660	 2.3950
 8.1790	 2.4420
 8.1920	 2.4170
 8.2050	 2.4270
 8.2180	 2.2680
 8.2310	 2.3160
 8.2440	 2.3090
 8.2570	 2.3690
 8.2700	 2.3010
 8.2830	 2.4070
 8.2970	 2.3220
 8.3100	 2.3170
 8.3230	 2.1890
 8.3370	 2.1910
 8.3500	 2.1520
 8.3640	 2.2830
 8.3770	 2.2040
 8.3910	 2.2250
 8.4040	 2.1680
 8.4180	 2.1960
 8.4320	 2.1020
 8.4450	 2.0900
 8.4590	 2.0450
 8.4730	 2.1680
 8.4870	 2.0610
 8.5010	 2.0750
 8.5150	 2.0740
 8.5290	 2.2140
 8.5430	 2.1140
 8.5570	 2.1650
 8.5710	 2.1610
 8.5850	 2.3150
 8.5990	 2.2690
 8.6140	 2.2950
 8.6280	 2.3090
 8.6420	 2.4450
 8.6570	 2.3570
 8.6710	 2.4560
 8.6860	 2.4770
 8.7000	 2.6090
 8.7150	 2.5210
 8.7300	 2.5140
 8.7440	 2.4960
 8.7590	 2.6420
 8.7740	 2.5470
 8.7890	 2.5660
 8.8040	 2.5170
 8.8190	 2.5850
 8.8340	 2.4530
 8.8490	 2.4950
 8.8640	 2.4190
 8.8790	 2.5130
 8.8940	 2.4980
 8.9100	 2.6080
 8.9250	 2.5690
 8.9400	 2.7180
 8.9560	 2.6890
 8.9710	 2.8240
 8.9870	 2.7510
 9.0020	 2.8140
 9.0180	 2.8490
 9.0340	 2.9990
 9.0500	 2.9230
 9.0650	 2.9810
 9.0810	 2.9340
 9.0970	 3.0030
 9.1130	 2.9280
 9.1290	 2.9540
 9.1450	 2.7920
 9.1620	 2.8450
 9.1780	 2.7870
 9.1940	 2.8900
 9.2100	 2.8570
 9.2270	 2.8640
 9.2430	 2.7910
 9.2600	 3.0070
 9.2760	 2.9640
 9.2930	 3.0090
 9.3100	 2.9510
 9.3260	 3.0460
 9.3430	 2.9850
 9.3600	 3.0620
 9.3770	 2.9780
 9.3940	 3.0540
 9.4110	 3.0440
 9.4280	 3.1810
 9.4450	 3.1010
 9.4620	 3.1690
 9.4800	 3.0890
 9.4970	 3.1720
 9.5150	 3.1530
 9.5320	 3.2580
 9.5500	 3.1060
 9.5670	 3.1580
 9.5850	 3.0860
 9.6030	 3.2100
 9.6200	 3.1960
 9.6380	 3.3500
 9.6560	 3.2900
 9.6740	 3.4050
 9.6920	 3.3550
 9.7110	 3.3920
 9.7290	 3.3320
 9.7470	 3.4630
 9.7650	 3.3860
 9.7840	 3.4410
 9.8020	 3.3610
 9.8210	 3.5010
 9.8390	 3.4790
 9.8580	 3.5730
 9.8770	 3.4200
 9.8960	 3.5130
 9.9150	 3.3950
 9.9340	 3.3580
 9.9530	 3.2440
 9.9720	 3.3590
 9.9910	 3.2970
10.0100	 3.2550
10.0300	 3.0490
10.0490	 3.0500
10.0690	 2.9330
10.0880	 2.9960
10.1080	 2.9010
10.1280	 2.9470
10.1480	 2.8900
10.1670	 2.8560
10.1870	 2.7240
10.2070	 2.8430
10.2280	 2.7030
10.2480	 2.7700
10.2680	 2.6760
10.2890	 2.7380
10.3090	 2.6870
10.3300	 2.7940
10.3500	 2.7290
10.3710	 2.8100
10.3920	 2.7310
10.4120	 2.8130
10.4330	 2.7600
10.4540	 2.8330
10.4760	 2.7290
10.4970	 2.7880
10.5180	 2.6760
10.5390	 2.6420
10.5610	 2.5390
10.5820	 2.6620
10.6040	 2.5720
10.6260	 2.6270
10.6480	 2.5290
10.6700	 2.6220
10.6920	 2.5340
10.7140	 2.5900
10.7360	 2.4690
10.7580	 2.5620
10.7800	 2.5160
10.8030	 2.6170
10.8250	 2.4730
10.8480	 2.5660
10.8710	 2.5490
10.8940	 2.6670
10.9170	 2.5910
10.9400	 2.7040
10.9630	 2.6080
10.9860	 2.6560
11.0090	 2.5760
11.0330	 2.7270
11.0560	 2.6570
11.0800	 2.7500
11.1040	 2.6380
11.1270	 2.7470
11.1510	 2.6550
11.1750	 2.7070
11.2000	 2.6010
11.2240	 2.6580
11.2480	 2.5540
11.2730	 2.6690
11.2970	 2.6580
11.3220	 2.8250
11.3470	 2.7720
11.3720	 2.8950
11.3970	 2.7840
11.4220	 2.9140
11.4470	 2.9260
11.4720	 3.0990
11.4980	 2.9350
11.5230	 3.0320
11.5490	 2.9400
11.5750	 3.0740
11.6000	 2.9800
11.6260	 3.1110
11.6530	 3.0260
11.6790	 3.1230
11.7050	 3.0350
11.7320	 3.1340
11.7580	 3.0510
11.7850	 3.1960
11.8120	 3.0910
11.8390	 3.1660
11.8660	 3.0790
11.8930	 3.2900
11.9200	 3.3260
11.9480	 3.4980
11.9760	 3.3740
12.0030	 3.4850
12.0310	 3.3970
12.0590	 3.5240
12.0870	 3.4400
12.1150	 3.6320
12.1440	 3.5770
12.1720	 3.6930
12.2010	 3.5660
12.2300	 3.7240
12.2590	 3.6490
12.2880	 3.8720
12.3170	 3.9210
12.3460	 4.1050
12.3760	 3.9810
12.4050	 4.1010
12.4350	 3.9630
12.4650	 4.0830
12.4950	 4.0620
12.5250	 4.3270
12.5550	 4.1660
12.5860	 4.2240
12.6170	 4.1130
12.6470	 4.3860
12.6780	 4.2740
12.7090	 4.3280
12.7410	 4.2140
12.7720	 4.4470
12.8030	 4.3600
12.8350	 4.5270
12.8670	 4.3720
12.8990	 4.5080
12.9310	 4.4590
12.9640	 4.5460
12.9960	 4.4080
13.0290	 4.6330
13.0610	 4.5650
13.0940	 4.7380
13.1280	 4.5380
13.1610	 4.6380
13.1940	 4.5040
13.2280	 4.7380
13.2620	 4.5640
13.2960	 4.5760
13.3300	 4.4300
13.3640	 4.6810
13.3990	 4.5280
13.4340	 4.6820
13.4690	 4.5550
13.5040	 4.7070
13.5390	 4.5730
13.5740	 4.7250
13.6100	 4.4540
13.6460	 4.6250
13.6820	 4.5010
13.7180	 4.7710
13.7540	 4.7210
13.7910	 4.9060
13.8280	 4.6930
13.8650	 4.9900
13.9020	 5.1540
13.9390	 5.4430
13.9770	 5.2910
14.0150	 5.4440
14.0530	 5.2310
14.0910	 5.4320
14.1290	 5.1480
14.1680	 5.3050
14.2070	 5.1080
14.2460	 5.4280
14.2850	 5.2440
14.3240	 5.4410
14.3640	 5.2400
14.4040	 5.4740
14.4440	 5.2340
14.4840	 5.2630
14.5250	 4.8740
14.5660	 5.2220
14.6070	 5.1050
14.6480	 5.4410
14.6900	 5.1720
14.7310	 5.2860
14.7730	 4.9360
14.8150	 5.1700
14.8580	 4.7660
14.9010	 5.1700
14.9440	 4.8210
14.9870	 5.0450
15.0300	 4.7550
15.0740	 5.0140
15.1180	 4.7680
15.1620	 5.0910
15.2060	 4.6590
15.2510	 5.1570
15.2960	 4.8780
15.3410	 5.2040
15.3870	 0.0000
