Name: Cassia leptophylla
Type: vegetation
Class: Tree
Genus: Cassia
Species: leptophylla
Sample No.: JPL253
Owner: JPL
Wavelength Range: VSWIR
Origin: 34.13059; -118.11104; WGS84
Collection Date: 10/6/2016
Description: Samples were collected at the Huntington Garden in San Marino California as part of a JPL Subcontract studying HyTES imagery. Samples were taken to JPL and processed within 48 hours of collection. The same leaves were processed in the Nicolet and then measured using the ASD.
Measurement: Bidirectional reflectance
First Column: X
Second Column: Y
X Units: Wavelength (micrometer)
Y Units: Reflectance (percentage)
First X Value: 0.35
Last X Value: 2.5
Number of X Values: 2151
Additional Information: vegetation.tree.cassia.leptophylla.vswir.jpl253.jpl.asd.ancillary.txt

 0.3500	 6.0810
 0.3510	 5.9240
 0.3520	 5.7700
 0.3530	 5.7150
 0.3540	 5.7750
 0.3550	 5.8050
 0.3560	 5.7860
 0.3570	 5.7580
 0.3580	 5.7740
 0.3590	 5.7910
 0.3600	 5.7590
 0.3610	 5.6790
 0.3620	 5.6190
 0.3630	 5.6370
 0.3640	 5.6880
 0.3650	 5.7100
 0.3660	 5.6970
 0.3670	 5.6450
 0.3680	 5.6010
 0.3690	 5.6330
 0.3700	 5.5990
 0.3710	 5.6040
 0.3720	 5.6720
 0.3730	 5.6330
 0.3740	 5.5840
 0.3750	 5.5480
 0.3760	 5.5320
 0.3770	 5.5910
 0.3780	 5.6030
 0.3790	 5.5790
 0.3800	 5.6320
 0.3810	 5.6500
 0.3820	 5.6260
 0.3830	 5.5880
 0.3840	 5.5990
 0.3850	 5.5330
 0.3860	 5.4710
 0.3870	 5.5310
 0.3880	 5.5810
 0.3890	 5.5860
 0.3900	 5.5500
 0.3910	 5.5090
 0.3920	 5.4880
 0.3930	 5.4850
 0.3940	 5.4920
 0.3950	 5.5160
 0.3960	 5.5170
 0.3970	 5.5080
 0.3980	 5.5200
 0.3990	 5.5180
 0.4000	 5.5110
 0.4010	 5.5070
 0.4020	 5.5040
 0.4030	 5.5140
 0.4040	 5.5160
 0.4050	 5.4970
 0.4060	 5.5000
 0.4070	 5.5080
 0.4080	 5.5150
 0.4090	 5.5220
 0.4100	 5.5110
 0.4110	 5.5030
 0.4120	 5.5100
 0.4130	 5.5190
 0.4140	 5.5310
 0.4150	 5.5370
 0.4160	 5.5320
 0.4170	 5.5510
 0.4180	 5.5710
 0.4190	 5.5830
 0.4200	 5.5880
 0.4210	 5.5890
 0.4220	 5.5950
 0.4230	 5.6060
 0.4240	 5.6020
 0.4250	 5.6090
 0.4260	 5.6190
 0.4270	 5.6170
 0.4280	 5.6240
 0.4290	 5.6320
 0.4300	 5.6350
 0.4310	 5.6320
 0.4320	 5.6210
 0.4330	 5.6160
 0.4340	 5.6250
 0.4350	 5.6270
 0.4360	 5.6290
 0.4370	 5.6330
 0.4380	 5.6330
 0.4390	 5.6530
 0.4400	 5.6710
 0.4410	 5.6750
 0.4420	 5.6810
 0.4430	 5.6800
 0.4440	 5.6780
 0.4450	 5.6860
 0.4460	 5.6970
 0.4470	 5.7080
 0.4480	 5.7150
 0.4490	 5.7140
 0.4500	 5.7190
 0.4510	 5.7280
 0.4520	 5.7350
 0.4530	 5.7350
 0.4540	 5.7390
 0.4550	 5.7490
 0.4560	 5.7640
 0.4570	 5.7700
 0.4580	 5.7680
 0.4590	 5.7650
 0.4600	 5.7660
 0.4610	 5.7690
 0.4620	 5.7730
 0.4630	 5.7770
 0.4640	 5.7780
 0.4650	 5.7770
 0.4660	 5.7750
 0.4670	 5.7730
 0.4680	 5.7760
 0.4690	 5.7820
 0.4700	 5.7870
 0.4710	 5.7860
 0.4720	 5.7890
 0.4730	 5.7910
 0.4740	 5.7840
 0.4750	 5.7840
 0.4760	 5.7900
 0.4770	 5.7990
 0.4780	 5.7950
 0.4790	 5.7930
 0.4800	 5.7930
 0.4810	 5.7920
 0.4820	 5.7950
 0.4830	 5.8000
 0.4840	 5.8030
 0.4850	 5.8040
 0.4860	 5.8050
 0.4870	 5.8070
 0.4880	 5.8100
 0.4890	 5.8210
 0.4900	 5.8300
 0.4910	 5.8380
 0.4920	 5.8550
 0.4930	 5.8660
 0.4940	 5.8770
 0.4950	 5.8930
 0.4960	 5.9150
 0.4970	 5.9300
 0.4980	 5.9440
 0.4990	 5.9640
 0.5000	 5.9860
 0.5010	 6.0150
 0.5020	 6.0490
 0.5030	 6.0800
 0.5040	 6.1120
 0.5050	 6.1490
 0.5060	 6.1930
 0.5070	 6.2410
 0.5080	 6.2920
 0.5090	 6.3470
 0.5100	 6.4100
 0.5110	 6.4830
 0.5120	 6.5630
 0.5130	 6.6480
 0.5140	 6.7400
 0.5150	 6.8400
 0.5160	 6.9510
 0.5170	 7.0750
 0.5180	 7.2030
 0.5190	 7.3370
 0.5200	 7.4790
 0.5210	 7.6290
 0.5220	 7.7800
 0.5230	 7.9330
 0.5240	 8.0890
 0.5250	 8.2440
 0.5260	 8.3970
 0.5270	 8.5450
 0.5280	 8.6820
 0.5290	 8.8160
 0.5300	 8.9430
 0.5310	 9.0610
 0.5320	 9.1720
 0.5330	 9.2730
 0.5340	 9.3660
 0.5350	 9.4530
 0.5360	 9.5270
 0.5370	 9.5910
 0.5380	 9.6470
 0.5390	 9.6970
 0.5400	 9.7410
 0.5410	 9.7810
 0.5420	 9.8160
 0.5430	 9.8500
 0.5440	 9.8820
 0.5450	 9.9150
 0.5460	 9.9500
 0.5470	 9.9800
 0.5480	10.0070
 0.5490	10.0310
 0.5500	10.0470
 0.5510	10.0570
 0.5520	10.0570
 0.5530	10.0480
 0.5540	10.0290
 0.5550	 9.9950
 0.5560	 9.9480
 0.5570	 9.8920
 0.5580	 9.8220
 0.5590	 9.7470
 0.5600	 9.6710
 0.5610	 9.5910
 0.5620	 9.5080
 0.5630	 9.4220
 0.5640	 9.3330
 0.5650	 9.2450
 0.5660	 9.1570
 0.5670	 9.0670
 0.5680	 8.9730
 0.5690	 8.8720
 0.5700	 8.7650
 0.5710	 8.6580
 0.5720	 8.5600
 0.5730	 8.4680
 0.5740	 8.3800
 0.5750	 8.2950
 0.5760	 8.2090
 0.5770	 8.1280
 0.5780	 8.0570
 0.5790	 7.9970
 0.5800	 7.9430
 0.5810	 7.8900
 0.5820	 7.8330
 0.5830	 7.7730
 0.5840	 7.7150
 0.5850	 7.6610
 0.5860	 7.6150
 0.5870	 7.5820
 0.5880	 7.5610
 0.5890	 7.5490
 0.5900	 7.5330
 0.5910	 7.5100
 0.5920	 7.4850
 0.5930	 7.4650
 0.5940	 7.4480
 0.5950	 7.4310
 0.5960	 7.4110
 0.5970	 7.3890
 0.5980	 7.3650
 0.5990	 7.3410
 0.6000	 7.3180
 0.6010	 7.2940
 0.6020	 7.2690
 0.6030	 7.2430
 0.6040	 7.2140
 0.6050	 7.1850
 0.6060	 7.1540
 0.6070	 7.1210
 0.6080	 7.0870
 0.6090	 7.0500
 0.6100	 7.0070
 0.6110	 6.9570
 0.6120	 6.9220
 0.6130	 6.8930
 0.6140	 6.8630
 0.6150	 6.8290
 0.6160	 6.7970
 0.6170	 6.7660
 0.6180	 6.7390
 0.6190	 6.7110
 0.6200	 6.6870
 0.6210	 6.6670
 0.6220	 6.6500
 0.6230	 6.6350
 0.6240	 6.6220
 0.6250	 6.6110
 0.6260	 6.6050
 0.6270	 6.5990
 0.6280	 6.5940
 0.6290	 6.5890
 0.6300	 6.5830
 0.6310	 6.5770
 0.6320	 6.5710
 0.6330	 6.5680
 0.6340	 6.5570
 0.6350	 6.5400
 0.6360	 6.5200
 0.6370	 6.4930
 0.6380	 6.4640
 0.6390	 6.4320
 0.6400	 6.3970
 0.6410	 6.3630
 0.6420	 6.3280
 0.6430	 6.2930
 0.6440	 6.2600
 0.6450	 6.2290
 0.6460	 6.2030
 0.6470	 6.1790
 0.6480	 6.1550
 0.6490	 6.1370
 0.6500	 6.1240
 0.6510	 6.1130
 0.6520	 6.1030
 0.6530	 6.0960
 0.6540	 6.0930
 0.6550	 6.0880
 0.6560	 6.0820
 0.6570	 6.0750
 0.6580	 6.0670
 0.6590	 6.0590
 0.6600	 6.0500
 0.6610	 6.0400
 0.6620	 6.0330
 0.6630	 6.0280
 0.6640	 6.0260
 0.6650	 6.0270
 0.6660	 6.0310
 0.6670	 6.0370
 0.6680	 6.0480
 0.6690	 6.0640
 0.6700	 6.0820
 0.6710	 6.1040
 0.6720	 6.1290
 0.6730	 6.1580
 0.6740	 6.1920
 0.6750	 6.2290
 0.6760	 6.2670
 0.6770	 6.3110
 0.6780	 6.3610
 0.6790	 6.4130
 0.6800	 6.4650
 0.6810	 6.5220
 0.6820	 6.5820
 0.6830	 6.6440
 0.6840	 6.7030
 0.6850	 6.7630
 0.6860	 6.8230
 0.6870	 6.8860
 0.6880	 6.9560
 0.6890	 7.0390
 0.6900	 7.1450
 0.6910	 7.2810
 0.6920	 7.4580
 0.6930	 7.6830
 0.6940	 7.9640
 0.6950	 8.3080
 0.6960	 8.7220
 0.6970	 9.2040
 0.6980	 9.7480
 0.6990	10.3610
 0.7000	11.0300
 0.7010	11.7510
 0.7020	12.5170
 0.7030	13.3170
 0.7040	14.1470
 0.7050	15.0010
 0.7060	15.8730
 0.7070	16.7580
 0.7080	17.6550
 0.7090	18.5630
 0.7100	19.4790
 0.7110	20.4040
 0.7120	21.3350
 0.7130	22.2710
 0.7140	23.2110
 0.7150	24.1520
 0.7160	25.0940
 0.7170	26.0380
 0.7180	26.9780
 0.7190	27.9120
 0.7200	28.8340
 0.7210	29.7480
 0.7220	30.6500
 0.7230	31.5360
 0.7240	32.4010
 0.7250	33.2480
 0.7260	34.0710
 0.7270	34.8680
 0.7280	35.6370
 0.7290	36.3800
 0.7300	37.0960
 0.7310	37.7780
 0.7320	38.4330
 0.7330	39.0570
 0.7340	39.6490
 0.7350	40.2050
 0.7360	40.7330
 0.7370	41.2320
 0.7380	41.7010
 0.7390	42.1430
 0.7400	42.5560
 0.7410	42.9420
 0.7420	43.3000
 0.7430	43.6280
 0.7440	43.9280
 0.7450	44.2040
 0.7460	44.4550
 0.7470	44.6850
 0.7480	44.8930
 0.7490	45.0780
 0.7500	45.2510
 0.7510	45.4070
 0.7520	45.5440
 0.7530	45.6660
 0.7540	45.7780
 0.7550	45.8760
 0.7560	45.9620
 0.7570	46.0430
 0.7580	46.1130
 0.7590	46.1750
 0.7600	46.2320
 0.7610	46.2840
 0.7620	46.3280
 0.7630	46.3650
 0.7640	46.3950
 0.7650	46.4240
 0.7660	46.4490
 0.7670	46.4680
 0.7680	46.4830
 0.7690	46.4940
 0.7700	46.5060
 0.7710	46.5190
 0.7720	46.5290
 0.7730	46.5390
 0.7740	46.5490
 0.7750	46.5590
 0.7760	46.5630
 0.7770	46.5670
 0.7780	46.5720
 0.7790	46.5790
 0.7800	46.5870
 0.7810	46.5970
 0.7820	46.6060
 0.7830	46.6100
 0.7840	46.6150
 0.7850	46.6220
 0.7860	46.6280
 0.7870	46.6320
 0.7880	46.6350
 0.7890	46.6370
 0.7900	46.6380
 0.7910	46.6410
 0.7920	46.6440
 0.7930	46.6450
 0.7940	46.6480
 0.7950	46.6500
 0.7960	46.6500
 0.7970	46.6480
 0.7980	46.6440
 0.7990	46.6410
 0.8000	46.6380
 0.8010	46.6320
 0.8020	46.6290
 0.8030	46.6280
 0.8040	46.6250
 0.8050	46.6180
 0.8060	46.6140
 0.8070	46.6090
 0.8080	46.6030
 0.8090	46.5960
 0.8100	46.5880
 0.8110	46.5790
 0.8120	46.5680
 0.8130	46.5570
 0.8140	46.5490
 0.8150	46.5420
 0.8160	46.5320
 0.8170	46.5210
 0.8180	46.5140
 0.8190	46.5070
 0.8200	46.4950
 0.8210	46.4830
 0.8220	46.4710
 0.8230	46.4590
 0.8240	46.4490
 0.8250	46.4360
 0.8260	46.4230
 0.8270	46.4150
 0.8280	46.4070
 0.8290	46.3990
 0.8300	46.3890
 0.8310	46.3780
 0.8320	46.3660
 0.8330	46.3590
 0.8340	46.3520
 0.8350	46.3400
 0.8360	46.3320
 0.8370	46.3260
 0.8380	46.3220
 0.8390	46.3170
 0.8400	46.3110
 0.8410	46.3080
 0.8420	46.3060
 0.8430	46.2980
 0.8440	46.2940
 0.8450	46.2890
 0.8460	46.2840
 0.8470	46.2840
 0.8480	46.2840
 0.8490	46.2820
 0.8500	46.2770
 0.8510	46.2740
 0.8520	46.2730
 0.8530	46.2720
 0.8540	46.2720
 0.8550	46.2690
 0.8560	46.2680
 0.8570	46.2680
 0.8580	46.2710
 0.8590	46.2730
 0.8600	46.2770
 0.8610	46.2820
 0.8620	46.2830
 0.8630	46.2860
 0.8640	46.2910
 0.8650	46.2950
 0.8660	46.2980
 0.8670	46.3040
 0.8680	46.3110
 0.8690	46.3180
 0.8700	46.3240
 0.8710	46.3310
 0.8720	46.3370
 0.8730	46.3430
 0.8740	46.3490
 0.8750	46.3580
 0.8760	46.3660
 0.8770	46.3660
 0.8780	46.3660
 0.8790	46.3740
 0.8800	46.3880
 0.8810	46.3950
 0.8820	46.4030
 0.8830	46.4110
 0.8840	46.4170
 0.8850	46.4230
 0.8860	46.4320
 0.8870	46.4420
 0.8880	46.4490
 0.8890	46.4520
 0.8900	46.4600
 0.8910	46.4710
 0.8920	46.4780
 0.8930	46.4830
 0.8940	46.4900
 0.8950	46.4950
 0.8960	46.4990
 0.8970	46.5080
 0.8980	46.5150
 0.8990	46.5220
 0.9000	46.5360
 0.9010	46.5430
 0.9020	46.5480
 0.9030	46.5550
 0.9040	46.5640
 0.9050	46.5710
 0.9060	46.5770
 0.9070	46.5820
 0.9080	46.5890
 0.9090	46.5930
 0.9100	46.5960
 0.9110	46.6010
 0.9120	46.6100
 0.9130	46.6160
 0.9140	46.6180
 0.9150	46.6170
 0.9160	46.6200
 0.9170	46.6220
 0.9180	46.6240
 0.9190	46.6290
 0.9200	46.6330
 0.9210	46.6310
 0.9220	46.6260
 0.9230	46.6280
 0.9240	46.6300
 0.9250	46.6270
 0.9260	46.6210
 0.9270	46.6220
 0.9280	46.6130
 0.9290	46.5980
 0.9300	46.5860
 0.9310	46.5840
 0.9320	46.5810
 0.9330	46.5740
 0.9340	46.5620
 0.9350	46.5480
 0.9360	46.5390
 0.9370	46.5290
 0.9380	46.5140
 0.9390	46.4990
 0.9400	46.4820
 0.9410	46.4710
 0.9420	46.4640
 0.9430	46.4420
 0.9440	46.4220
 0.9450	46.4000
 0.9460	46.3770
 0.9470	46.3570
 0.9480	46.3370
 0.9490	46.3100
 0.9500	46.2780
 0.9510	46.2570
 0.9520	46.2250
 0.9530	46.1900
 0.9540	46.1630
 0.9550	46.1230
 0.9560	46.0930
 0.9570	46.0710
 0.9580	46.0450
 0.9590	46.0170
 0.9600	45.9900
 0.9610	45.9660
 0.9620	45.9450
 0.9630	45.9150
 0.9640	45.8970
 0.9650	45.8860
 0.9660	45.8690
 0.9670	45.8570
 0.9680	45.8430
 0.9690	45.8280
 0.9700	45.8150
 0.9710	45.7970
 0.9720	45.7880
 0.9730	45.7870
 0.9740	45.7840
 0.9750	45.7750
 0.9760	45.7710
 0.9770	45.7730
 0.9780	45.7770
 0.9790	45.7690
 0.9800	45.7540
 0.9810	45.7420
 0.9820	45.7380
 0.9830	45.7420
 0.9840	45.7490
 0.9850	45.7480
 0.9860	45.7330
 0.9870	45.7300
 0.9880	45.7380
 0.9890	45.7450
 0.9900	45.7380
 0.9910	45.7430
 0.9920	45.7530
 0.9930	45.7630
 0.9940	45.7750
 0.9950	45.7790
 0.9960	45.7890
 0.9970	45.7980
 0.9980	45.7960
 0.9990	45.8000
 1.0000	45.8040
 1.0010	45.9330
 1.0020	45.9350
 1.0030	45.9390
 1.0040	45.9450
 1.0050	45.9530
 1.0060	45.9630
 1.0070	45.9700
 1.0080	45.9780
 1.0090	45.9890
 1.0100	45.9950
 1.0110	45.9960
 1.0120	46.0020
 1.0130	46.0080
 1.0140	46.0140
 1.0150	46.0240
 1.0160	46.0330
 1.0170	46.0390
 1.0180	46.0440
 1.0190	46.0530
 1.0200	46.0590
 1.0210	46.0630
 1.0220	46.0660
 1.0230	46.0720
 1.0240	46.0790
 1.0250	46.0860
 1.0260	46.0950
 1.0270	46.1020
 1.0280	46.1080
 1.0290	46.1130
 1.0300	46.1170
 1.0310	46.1220
 1.0320	46.1290
 1.0330	46.1310
 1.0340	46.1380
 1.0350	46.1460
 1.0360	46.1500
 1.0370	46.1550
 1.0380	46.1570
 1.0390	46.1550
 1.0400	46.1590
 1.0410	46.1630
 1.0420	46.1670
 1.0430	46.1720
 1.0440	46.1760
 1.0450	46.1800
 1.0460	46.1830
 1.0470	46.1840
 1.0480	46.1880
 1.0490	46.1920
 1.0500	46.1940
 1.0510	46.1960
 1.0520	46.1990
 1.0530	46.2010
 1.0540	46.2020
 1.0550	46.2030
 1.0560	46.2050
 1.0570	46.2090
 1.0580	46.2110
 1.0590	46.2140
 1.0600	46.2210
 1.0610	46.2240
 1.0620	46.2250
 1.0630	46.2260
 1.0640	46.2270
 1.0650	46.2280
 1.0660	46.2290
 1.0670	46.2310
 1.0680	46.2340
 1.0690	46.2370
 1.0700	46.2400
 1.0710	46.2460
 1.0720	46.2490
 1.0730	46.2520
 1.0740	46.2530
 1.0750	46.2500
 1.0760	46.2510
 1.0770	46.2530
 1.0780	46.2540
 1.0790	46.2590
 1.0800	46.2600
 1.0810	46.2590
 1.0820	46.2580
 1.0830	46.2560
 1.0840	46.2550
 1.0850	46.2520
 1.0860	46.2520
 1.0870	46.2500
 1.0880	46.2470
 1.0890	46.2460
 1.0900	46.2460
 1.0910	46.2450
 1.0920	46.2460
 1.0930	46.2430
 1.0940	46.2350
 1.0950	46.2290
 1.0960	46.2220
 1.0970	46.2180
 1.0980	46.2190
 1.0990	46.2150
 1.1000	46.2080
 1.1010	46.2040
 1.1020	46.1980
 1.1030	46.1930
 1.1040	46.1900
 1.1050	46.1860
 1.1060	46.1800
 1.1070	46.1720
 1.1080	46.1640
 1.1090	46.1570
 1.1100	46.1490
 1.1110	46.1420
 1.1120	46.1340
 1.1130	46.1260
 1.1140	46.1170
 1.1150	46.1090
 1.1160	46.0990
 1.1170	46.0860
 1.1180	46.0740
 1.1190	46.0600
 1.1200	46.0450
 1.1210	46.0300
 1.1220	46.0150
 1.1230	45.9980
 1.1240	45.9790
 1.1250	45.9570
 1.1260	45.9340
 1.1270	45.9050
 1.1280	45.8720
 1.1290	45.8370
 1.1300	45.7990
 1.1310	45.7580
 1.1320	45.7150
 1.1330	45.6680
 1.1340	45.6200
 1.1350	45.5660
 1.1360	45.5080
 1.1370	45.4480
 1.1380	45.3820
 1.1390	45.3130
 1.1400	45.2430
 1.1410	45.1720
 1.1420	45.0980
 1.1430	45.0220
 1.1440	44.9490
 1.1450	44.8740
 1.1460	44.8020
 1.1470	44.7320
 1.1480	44.6630
 1.1490	44.5940
 1.1500	44.5300
 1.1510	44.4680
 1.1520	44.4100
 1.1530	44.3530
 1.1540	44.3030
 1.1550	44.2570
 1.1560	44.2130
 1.1570	44.1740
 1.1580	44.1390
 1.1590	44.1050
 1.1600	44.0740
 1.1610	44.0450
 1.1620	44.0190
 1.1630	43.9970
 1.1640	43.9760
 1.1650	43.9560
 1.1660	43.9390
 1.1670	43.9230
 1.1680	43.9090
 1.1690	43.8960
 1.1700	43.8840
 1.1710	43.8720
 1.1720	43.8590
 1.1730	43.8470
 1.1740	43.8360
 1.1750	43.8240
 1.1760	43.8110
 1.1770	43.7980
 1.1780	43.7840
 1.1790	43.7690
 1.1800	43.7550
 1.1810	43.7420
 1.1820	43.7300
 1.1830	43.7180
 1.1840	43.7020
 1.1850	43.6880
 1.1860	43.6740
 1.1870	43.6600
 1.1880	43.6480
 1.1890	43.6390
 1.1900	43.6280
 1.1910	43.6190
 1.1920	43.6100
 1.1930	43.6010
 1.1940	43.5920
 1.1950	43.5840
 1.1960	43.5760
 1.1970	43.5700
 1.1980	43.5670
 1.1990	43.5660
 1.2000	43.5660
 1.2010	43.5660
 1.2020	43.5650
 1.2030	43.5660
 1.2040	43.5700
 1.2050	43.5740
 1.2060	43.5780
 1.2070	43.5840
 1.2080	43.5880
 1.2090	43.5940
 1.2100	43.6020
 1.2110	43.6100
 1.2120	43.6180
 1.2130	43.6290
 1.2140	43.6410
 1.2150	43.6540
 1.2160	43.6690
 1.2170	43.6820
 1.2180	43.6950
 1.2190	43.7080
 1.2200	43.7210
 1.2210	43.7350
 1.2220	43.7490
 1.2230	43.7640
 1.2240	43.7810
 1.2250	43.7960
 1.2260	43.8110
 1.2270	43.8250
 1.2280	43.8380
 1.2290	43.8500
 1.2300	43.8610
 1.2310	43.8730
 1.2320	43.8850
 1.2330	43.8970
 1.2340	43.9080
 1.2350	43.9190
 1.2360	43.9290
 1.2370	43.9380
 1.2380	43.9490
 1.2390	43.9570
 1.2400	43.9660
 1.2410	43.9760
 1.2420	43.9830
 1.2430	43.9900
 1.2440	43.9980
 1.2450	44.0020
 1.2460	44.0060
 1.2470	44.0110
 1.2480	44.0140
 1.2490	44.0210
 1.2500	44.0270
 1.2510	44.0320
 1.2520	44.0390
 1.2530	44.0420
 1.2540	44.0450
 1.2550	44.0490
 1.2560	44.0500
 1.2570	44.0520
 1.2580	44.0540
 1.2590	44.0550
 1.2600	44.0570
 1.2610	44.0570
 1.2620	44.0540
 1.2630	44.0510
 1.2640	44.0470
 1.2650	44.0410
 1.2660	44.0370
 1.2670	44.0320
 1.2680	44.0270
 1.2690	44.0220
 1.2700	44.0180
 1.2710	44.0130
 1.2720	44.0050
 1.2730	43.9950
 1.2740	43.9830
 1.2750	43.9710
 1.2760	43.9600
 1.2770	43.9490
 1.2780	43.9380
 1.2790	43.9250
 1.2800	43.9120
 1.2810	43.8980
 1.2820	43.8850
 1.2830	43.8700
 1.2840	43.8540
 1.2850	43.8360
 1.2860	43.8180
 1.2870	43.8000
 1.2880	43.7820
 1.2890	43.7650
 1.2900	43.7460
 1.2910	43.7260
 1.2920	43.7070
 1.2930	43.6840
 1.2940	43.6600
 1.2950	43.6370
 1.2960	43.6110
 1.2970	43.5840
 1.2980	43.5600
 1.2990	43.5360
 1.3000	43.5090
 1.3010	43.4800
 1.3020	43.4500
 1.3030	43.4170
 1.3040	43.3830
 1.3050	43.3490
 1.3060	43.3110
 1.3070	43.2720
 1.3080	43.2340
 1.3090	43.1950
 1.3100	43.1550
 1.3110	43.1130
 1.3120	43.0670
 1.3130	43.0200
 1.3140	42.9710
 1.3150	42.9220
 1.3160	42.8700
 1.3170	42.8160
 1.3180	42.7580
 1.3190	42.6980
 1.3200	42.6370
 1.3210	42.5750
 1.3220	42.5130
 1.3230	42.4490
 1.3240	42.3840
 1.3250	42.3180
 1.3260	42.2490
 1.3270	42.1790
 1.3280	42.1060
 1.3290	42.0310
 1.3300	41.9560
 1.3310	41.8790
 1.3320	41.8010
 1.3330	41.7220
 1.3340	41.6410
 1.3350	41.5610
 1.3360	41.4800
 1.3370	41.3970
 1.3380	41.3150
 1.3390	41.2310
 1.3400	41.1470
 1.3410	41.0640
 1.3420	40.9800
 1.3430	40.8980
 1.3440	40.8170
 1.3450	40.7360
 1.3460	40.6550
 1.3470	40.5750
 1.3480	40.4940
 1.3490	40.4160
 1.3500	40.3380
 1.3510	40.2610
 1.3520	40.1820
 1.3530	40.1060
 1.3540	40.0270
 1.3550	39.9470
 1.3560	39.8690
 1.3570	39.7890
 1.3580	39.7090
 1.3590	39.6270
 1.3600	39.5440
 1.3610	39.4580
 1.3620	39.3660
 1.3630	39.2710
 1.3640	39.1710
 1.3650	39.0660
 1.3660	38.9550
 1.3670	38.8390
 1.3680	38.7140
 1.3690	38.5810
 1.3700	38.4380
 1.3710	38.2860
 1.3720	38.1240
 1.3730	37.9490
 1.3740	37.7610
 1.3750	37.5570
 1.3760	37.3360
 1.3770	37.1000
 1.3780	36.8440
 1.3790	36.5710
 1.3800	36.2780
 1.3810	35.9630
 1.3820	35.6310
 1.3830	35.2810
 1.3840	34.9120
 1.3850	34.5250
 1.3860	34.1210
 1.3870	33.6960
 1.3880	33.2600
 1.3890	32.8080
 1.3900	32.3410
 1.3910	31.8690
 1.3920	31.3870
 1.3930	30.8990
 1.3940	30.4100
 1.3950	29.9140
 1.3960	29.4200
 1.3970	28.9310
 1.3980	28.4450
 1.3990	27.9730
 1.4000	27.5110
 1.4010	27.0560
 1.4020	26.6160
 1.4030	26.1870
 1.4040	25.7730
 1.4050	25.3770
 1.4060	24.9980
 1.4070	24.6400
 1.4080	24.2970
 1.4090	23.9710
 1.4100	23.6640
 1.4110	23.3730
 1.4120	23.1000
 1.4130	22.8470
 1.4140	22.6070
 1.4150	22.3860
 1.4160	22.1800
 1.4170	21.9860
 1.4180	21.8090
 1.4190	21.6410
 1.4200	21.4850
 1.4210	21.3420
 1.4220	21.2080
 1.4230	21.0850
 1.4240	20.9740
 1.4250	20.8690
 1.4260	20.7730
 1.4270	20.6840
 1.4280	20.6040
 1.4290	20.5300
 1.4300	20.4640
 1.4310	20.4030
 1.4320	20.3500
 1.4330	20.3010
 1.4340	20.2600
 1.4350	20.2230
 1.4360	20.1900
 1.4370	20.1630
 1.4380	20.1410
 1.4390	20.1220
 1.4400	20.1070
 1.4410	20.0970
 1.4420	20.0890
 1.4430	20.0850
 1.4440	20.0830
 1.4450	20.0830
 1.4460	20.0850
 1.4470	20.0890
 1.4480	20.0950
 1.4490	20.1040
 1.4500	20.1160
 1.4510	20.1290
 1.4520	20.1430
 1.4530	20.1600
 1.4540	20.1770
 1.4550	20.1990
 1.4560	20.2240
 1.4570	20.2510
 1.4580	20.2810
 1.4590	20.3150
 1.4600	20.3530
 1.4610	20.3950
 1.4620	20.4410
 1.4630	20.4920
 1.4640	20.5480
 1.4650	20.6080
 1.4660	20.6750
 1.4670	20.7460
 1.4680	20.8230
 1.4690	20.9040
 1.4700	20.9890
 1.4710	21.0790
 1.4720	21.1720
 1.4730	21.2670
 1.4740	21.3660
 1.4750	21.4680
 1.4760	21.5740
 1.4770	21.6830
 1.4780	21.7930
 1.4790	21.9070
 1.4800	22.0200
 1.4810	22.1350
 1.4820	22.2510
 1.4830	22.3690
 1.4840	22.4900
 1.4850	22.6100
 1.4860	22.7330
 1.4870	22.8570
 1.4880	22.9790
 1.4890	23.1030
 1.4900	23.2270
 1.4910	23.3500
 1.4920	23.4750
 1.4930	23.6010
 1.4940	23.7270
 1.4950	23.8540
 1.4960	23.9790
 1.4970	24.1020
 1.4980	24.2270
 1.4990	24.3520
 1.5000	24.4780
 1.5010	24.6060
 1.5020	24.7330
 1.5030	24.8600
 1.5040	24.9850
 1.5050	25.1070
 1.5060	25.2320
 1.5070	25.3580
 1.5080	25.4820
 1.5090	25.6060
 1.5100	25.7310
 1.5110	25.8520
 1.5120	25.9740
 1.5130	26.0950
 1.5140	26.2160
 1.5150	26.3360
 1.5160	26.4550
 1.5170	26.5740
 1.5180	26.6910
 1.5190	26.8080
 1.5200	26.9230
 1.5210	27.0370
 1.5220	27.1500
 1.5230	27.2610
 1.5240	27.3710
 1.5250	27.4830
 1.5260	27.5920
 1.5270	27.7020
 1.5280	27.8100
 1.5290	27.9140
 1.5300	28.0180
 1.5310	28.1220
 1.5320	28.2250
 1.5330	28.3290
 1.5340	28.4300
 1.5350	28.5290
 1.5360	28.6280
 1.5370	28.7250
 1.5380	28.8200
 1.5390	28.9160
 1.5400	29.0100
 1.5410	29.1030
 1.5420	29.1970
 1.5430	29.2880
 1.5440	29.3770
 1.5450	29.4660
 1.5460	29.5560
 1.5470	29.6450
 1.5480	29.7330
 1.5490	29.8200
 1.5500	29.9050
 1.5510	29.9890
 1.5520	30.0730
 1.5530	30.1540
 1.5540	30.2340
 1.5550	30.3140
 1.5560	30.3920
 1.5570	30.4690
 1.5580	30.5460
 1.5590	30.6210
 1.5600	30.6960
 1.5610	30.7690
 1.5620	30.8420
 1.5630	30.9130
 1.5640	30.9830
 1.5650	31.0520
 1.5660	31.1200
 1.5670	31.1860
 1.5680	31.2530
 1.5690	31.3180
 1.5700	31.3820
 1.5710	31.4470
 1.5720	31.5110
 1.5730	31.5760
 1.5740	31.6390
 1.5750	31.7020
 1.5760	31.7640
 1.5770	31.8240
 1.5780	31.8850
 1.5790	31.9440
 1.5800	32.0020
 1.5810	32.0600
 1.5820	32.1170
 1.5830	32.1750
 1.5840	32.2330
 1.5850	32.2890
 1.5860	32.3460
 1.5870	32.4010
 1.5880	32.4550
 1.5890	32.5100
 1.5900	32.5630
 1.5910	32.6170
 1.5920	32.6710
 1.5930	32.7250
 1.5940	32.7790
 1.5950	32.8310
 1.5960	32.8810
 1.5970	32.9310
 1.5980	32.9810
 1.5990	33.0290
 1.6000	33.0780
 1.6010	33.1270
 1.6020	33.1750
 1.6030	33.2230
 1.6040	33.2690
 1.6050	33.3130
 1.6060	33.3580
 1.6070	33.4010
 1.6080	33.4440
 1.6090	33.4880
 1.6100	33.5300
 1.6110	33.5720
 1.6120	33.6110
 1.6130	33.6500
 1.6140	33.6900
 1.6150	33.7290
 1.6160	33.7680
 1.6170	33.8040
 1.6180	33.8410
 1.6190	33.8760
 1.6200	33.9110
 1.6210	33.9450
 1.6220	33.9780
 1.6230	34.0090
 1.6240	34.0400
 1.6250	34.0720
 1.6260	34.1030
 1.6270	34.1330
 1.6280	34.1620
 1.6290	34.1920
 1.6300	34.2200
 1.6310	34.2490
 1.6320	34.2790
 1.6330	34.3050
 1.6340	34.3300
 1.6350	34.3550
 1.6360	34.3780
 1.6370	34.4020
 1.6380	34.4270
 1.6390	34.4480
 1.6400	34.4680
 1.6410	34.4860
 1.6420	34.5020
 1.6430	34.5180
 1.6440	34.5330
 1.6450	34.5480
 1.6460	34.5610
 1.6470	34.5740
 1.6480	34.5850
 1.6490	34.5930
 1.6500	34.5990
 1.6510	34.6020
 1.6520	34.6040
 1.6530	34.6090
 1.6540	34.6130
 1.6550	34.6150
 1.6560	34.6160
 1.6570	34.6140
 1.6580	34.6120
 1.6590	34.6090
 1.6600	34.6050
 1.6610	34.6000
 1.6620	34.5960
 1.6630	34.5920
 1.6640	34.5870
 1.6650	34.5800
 1.6660	34.5700
 1.6670	34.5610
 1.6680	34.5510
 1.6690	34.5410
 1.6700	34.5310
 1.6710	34.5180
 1.6720	34.5040
 1.6730	34.4870
 1.6740	34.4710
 1.6750	34.4550
 1.6760	34.4360
 1.6770	34.4180
 1.6780	34.3980
 1.6790	34.3740
 1.6800	34.3500
 1.6810	34.3260
 1.6820	34.2980
 1.6830	34.2680
 1.6840	34.2370
 1.6850	34.2020
 1.6860	34.1660
 1.6870	34.1310
 1.6880	34.0950
 1.6890	34.0560
 1.6900	34.0170
 1.6910	33.9760
 1.6920	33.9360
 1.6930	33.8970
 1.6940	33.8560
 1.6950	33.8130
 1.6960	33.7720
 1.6970	33.7330
 1.6980	33.6920
 1.6990	33.6540
 1.7000	33.6130
 1.7010	33.5720
 1.7020	33.5310
 1.7030	33.4880
 1.7040	33.4470
 1.7050	33.4050
 1.7060	33.3620
 1.7070	33.3190
 1.7080	33.2740
 1.7090	33.2260
 1.7100	33.1810
 1.7110	33.1370
 1.7120	33.0930
 1.7130	33.0470
 1.7140	33.0030
 1.7150	32.9600
 1.7160	32.9190
 1.7170	32.8780
 1.7180	32.8390
 1.7190	32.7960
 1.7200	32.7560
 1.7210	32.7160
 1.7220	32.6760
 1.7230	32.6370
 1.7240	32.5990
 1.7250	32.5590
 1.7260	32.5220
 1.7270	32.4860
 1.7280	32.4530
 1.7290	32.4210
 1.7300	32.3910
 1.7310	32.3630
 1.7320	32.3380
 1.7330	32.3120
 1.7340	32.2860
 1.7350	32.2610
 1.7360	32.2370
 1.7370	32.2100
 1.7380	32.1850
 1.7390	32.1560
 1.7400	32.1240
 1.7410	32.0890
 1.7420	32.0500
 1.7430	32.0100
 1.7440	31.9660
 1.7450	31.9230
 1.7460	31.8780
 1.7470	31.8320
 1.7480	31.7830
 1.7490	31.7330
 1.7500	31.6810
 1.7510	31.6310
 1.7520	31.5790
 1.7530	31.5280
 1.7540	31.4780
 1.7550	31.4250
 1.7560	31.3730
 1.7570	31.3240
 1.7580	31.2740
 1.7590	31.2280
 1.7600	31.1840
 1.7610	31.1350
 1.7620	31.0910
 1.7630	31.0460
 1.7640	31.0050
 1.7650	30.9700
 1.7660	30.9360
 1.7670	30.9030
 1.7680	30.8710
 1.7690	30.8400
 1.7700	30.8090
 1.7710	30.7790
 1.7720	30.7480
 1.7730	30.7150
 1.7740	30.6860
 1.7750	30.6600
 1.7760	30.6350
 1.7770	30.6130
 1.7780	30.5910
 1.7790	30.5680
 1.7800	30.5480
 1.7810	30.5310
 1.7820	30.5150
 1.7830	30.5010
 1.7840	30.4890
 1.7850	30.4800
 1.7860	30.4720
 1.7870	30.4670
 1.7880	30.4610
 1.7890	30.4590
 1.7900	30.4550
 1.7910	30.4530
 1.7920	30.4540
 1.7930	30.4550
 1.7940	30.4560
 1.7950	30.4580
 1.7960	30.4590
 1.7970	30.4620
 1.7980	30.4660
 1.7990	30.4720
 1.8000	30.4790
 1.8010	30.4850
 1.8020	30.4940
 1.8030	30.4990
 1.8040	30.5030
 1.8050	30.5070
 1.8060	30.5090
 1.8070	30.5150
 1.8080	30.5220
 1.8090	30.5280
 1.8100	30.5360
 1.8110	30.5410
 1.8120	30.5450
 1.8130	30.5460
 1.8140	30.5470
 1.8150	30.5500
 1.8160	30.5510
 1.8170	30.5510
 1.8180	30.5530
 1.8190	30.5470
 1.8200	30.5440
 1.8210	30.5430
 1.8220	30.5380
 1.8230	30.5330
 1.8240	30.5270
 1.8250	30.5180
 1.8260	30.5100
 1.8270	30.5020
 1.8280	30.4920
 1.8290	30.4800
 1.8300	30.4660
 1.8310	30.0340
 1.8320	30.0170
 1.8330	29.9970
 1.8340	29.9690
 1.8350	29.9390
 1.8360	29.9100
 1.8370	29.8740
 1.8380	29.8280
 1.8390	29.7820
 1.8400	29.7340
 1.8410	29.6780
 1.8420	29.6160
 1.8430	29.5560
 1.8440	29.4890
 1.8450	29.4130
 1.8460	29.3320
 1.8470	29.2420
 1.8480	29.1420
 1.8490	29.0310
 1.8500	28.9140
 1.8510	28.7910
 1.8520	28.6570
 1.8530	28.5070
 1.8540	28.3510
 1.8550	28.1810
 1.8560	27.9950
 1.8570	27.8020
 1.8580	27.5930
 1.8590	27.3690
 1.8600	27.1300
 1.8610	26.8790
 1.8620	26.6090
 1.8630	26.3270
 1.8640	26.0320
 1.8650	25.7130
 1.8660	25.3780
 1.8670	25.0200
 1.8680	24.6400
 1.8690	24.2470
 1.8700	23.8320
 1.8710	23.3980
 1.8720	22.9510
 1.8730	22.4880
 1.8740	22.0050
 1.8750	21.5100
 1.8760	20.9960
 1.8770	20.4720
 1.8780	19.9400
 1.8790	19.3950
 1.8800	18.8540
 1.8810	18.3120
 1.8820	17.7660
 1.8830	17.2150
 1.8840	16.6700
 1.8850	16.1230
 1.8860	15.5810
 1.8870	15.0550
 1.8880	14.5380
 1.8890	14.0370
 1.8900	13.5560
 1.8910	13.0940
 1.8920	12.6460
 1.8930	12.2220
 1.8940	11.8210
 1.8950	11.4440
 1.8960	11.0890
 1.8970	10.7570
 1.8980	10.4520
 1.8990	10.1690
 1.9000	 9.9070
 1.9010	 9.6710
 1.9020	 9.4520
 1.9030	 9.2540
 1.9040	 9.0730
 1.9050	 8.9120
 1.9060	 8.7640
 1.9070	 8.6350
 1.9080	 8.5210
 1.9090	 8.4150
 1.9100	 8.3210
 1.9110	 8.2340
 1.9120	 8.1550
 1.9130	 8.0850
 1.9140	 8.0250
 1.9150	 7.9710
 1.9160	 7.9230
 1.9170	 7.8820
 1.9180	 7.8450
 1.9190	 7.8140
 1.9200	 7.7870
 1.9210	 7.7640
 1.9220	 7.7440
 1.9230	 7.7280
 1.9240	 7.7160
 1.9250	 7.7070
 1.9260	 7.7010
 1.9270	 7.6990
 1.9280	 7.7010
 1.9290	 7.7040
 1.9300	 7.7080
 1.9310	 7.7140
 1.9320	 7.7240
 1.9330	 7.7350
 1.9340	 7.7480
 1.9350	 7.7650
 1.9360	 7.7850
 1.9370	 7.8060
 1.9380	 7.8310
 1.9390	 7.8580
 1.9400	 7.8830
 1.9410	 7.9100
 1.9420	 7.9410
 1.9430	 7.9720
 1.9440	 8.0050
 1.9450	 8.0410
 1.9460	 8.0760
 1.9470	 8.1090
 1.9480	 8.1470
 1.9490	 8.1870
 1.9500	 8.2290
 1.9510	 8.2710
 1.9520	 8.3180
 1.9530	 8.3630
 1.9540	 8.4110
 1.9550	 8.4600
 1.9560	 8.5110
 1.9570	 8.5620
 1.9580	 8.6120
 1.9590	 8.6650
 1.9600	 8.7180
 1.9610	 8.7730
 1.9620	 8.8290
 1.9630	 8.8880
 1.9640	 8.9470
 1.9650	 9.0080
 1.9660	 9.0730
 1.9670	 9.1400
 1.9680	 9.2050
 1.9690	 9.2710
 1.9700	 9.3380
 1.9710	 9.4040
 1.9720	 9.4700
 1.9730	 9.5350
 1.9740	 9.6040
 1.9750	 9.6720
 1.9760	 9.7410
 1.9770	 9.8140
 1.9780	 9.8890
 1.9790	 9.9630
 1.9800	10.0390
 1.9810	10.1150
 1.9820	10.1900
 1.9830	10.2670
 1.9840	10.3460
 1.9850	10.4240
 1.9860	10.5040
 1.9870	10.5800
 1.9880	10.6580
 1.9890	10.7360
 1.9900	10.8160
 1.9910	10.9000
 1.9920	10.9820
 1.9930	11.0650
 1.9940	11.1470
 1.9950	11.2290
 1.9960	11.3110
 1.9970	11.3920
 1.9980	11.4740
 1.9990	11.5570
 2.0000	11.6400
 2.0010	11.7230
 2.0020	11.8100
 2.0030	11.8970
 2.0040	11.9830
 2.0050	12.0660
 2.0060	12.1470
 2.0070	12.2280
 2.0080	12.3080
 2.0090	12.3880
 2.0100	12.4690
 2.0110	12.5490
 2.0120	12.6280
 2.0130	12.7070
 2.0140	12.7870
 2.0150	12.8700
 2.0160	12.9520
 2.0170	13.0330
 2.0180	13.1110
 2.0190	13.1860
 2.0200	13.2610
 2.0210	13.3350
 2.0220	13.4090
 2.0230	13.4830
 2.0240	13.5560
 2.0250	13.6290
 2.0260	13.7000
 2.0270	13.7690
 2.0280	13.8390
 2.0290	13.9070
 2.0300	13.9730
 2.0310	14.0410
 2.0320	14.1100
 2.0330	14.1750
 2.0340	14.2390
 2.0350	14.3020
 2.0360	14.3620
 2.0370	14.4220
 2.0380	14.4820
 2.0390	14.5410
 2.0400	14.5970
 2.0410	14.6530
 2.0420	14.7080
 2.0430	14.7630
 2.0440	14.8180
 2.0450	14.8720
 2.0460	14.9260
 2.0470	14.9780
 2.0480	15.0320
 2.0490	15.0850
 2.0500	15.1380
 2.0510	15.1900
 2.0520	15.2450
 2.0530	15.3010
 2.0540	15.3560
 2.0550	15.4120
 2.0560	15.4690
 2.0570	15.5260
 2.0580	15.5820
 2.0590	15.6390
 2.0600	15.6970
 2.0610	15.7560
 2.0620	15.8130
 2.0630	15.8730
 2.0640	15.9370
 2.0650	15.9990
 2.0660	16.0620
 2.0670	16.1240
 2.0680	16.1850
 2.0690	16.2470
 2.0700	16.3100
 2.0710	16.3720
 2.0720	16.4340
 2.0730	16.4940
 2.0740	16.5540
 2.0750	16.6120
 2.0760	16.6730
 2.0770	16.7380
 2.0780	16.7970
 2.0790	16.8560
 2.0800	16.9140
 2.0810	16.9660
 2.0820	17.0230
 2.0830	17.0850
 2.0840	17.1430
 2.0850	17.2030
 2.0860	17.2610
 2.0870	17.3140
 2.0880	17.3670
 2.0890	17.4230
 2.0900	17.4810
 2.0910	17.5350
 2.0920	17.5900
 2.0930	17.6440
 2.0940	17.6960
 2.0950	17.7480
 2.0960	17.8010
 2.0970	17.8540
 2.0980	17.9040
 2.0990	17.9580
 2.1000	18.0170
 2.1010	18.0720
 2.1020	18.1250
 2.1030	18.1780
 2.1040	18.2260
 2.1050	18.2730
 2.1060	18.3230
 2.1070	18.3730
 2.1080	18.4230
 2.1090	18.4750
 2.1100	18.5260
 2.1110	18.5770
 2.1120	18.6270
 2.1130	18.6750
 2.1140	18.7230
 2.1150	18.7680
 2.1160	18.8150
 2.1170	18.8660
 2.1180	18.9120
 2.1190	18.9570
 2.1200	19.0020
 2.1210	19.0460
 2.1220	19.0880
 2.1230	19.1310
 2.1240	19.1760
 2.1250	19.2190
 2.1260	19.2590
 2.1270	19.2990
 2.1280	19.3380
 2.1290	19.3760
 2.1300	19.4120
 2.1310	19.4480
 2.1320	19.4840
 2.1330	19.5200
 2.1340	19.5570
 2.1350	19.5900
 2.1360	19.6230
 2.1370	19.6520
 2.1380	19.6770
 2.1390	19.7030
 2.1400	19.7280
 2.1410	19.7550
 2.1420	19.7800
 2.1430	19.8040
 2.1440	19.8280
 2.1450	19.8510
 2.1460	19.8760
 2.1470	19.9030
 2.1480	19.9280
 2.1490	19.9530
 2.1500	19.9760
 2.1510	19.9960
 2.1520	20.0170
 2.1530	20.0370
 2.1540	20.0550
 2.1550	20.0700
 2.1560	20.0870
 2.1570	20.1030
 2.1580	20.1190
 2.1590	20.1360
 2.1600	20.1560
 2.1610	20.1730
 2.1620	20.1890
 2.1630	20.2050
 2.1640	20.2200
 2.1650	20.2350
 2.1660	20.2500
 2.1670	20.2650
 2.1680	20.2790
 2.1690	20.2950
 2.1700	20.3140
 2.1710	20.3320
 2.1720	20.3530
 2.1730	20.3730
 2.1740	20.3910
 2.1750	20.4110
 2.1760	20.4340
 2.1770	20.4530
 2.1780	20.4680
 2.1790	20.4860
 2.1800	20.5040
 2.1810	20.5240
 2.1820	20.5490
 2.1830	20.5770
 2.1840	20.6010
 2.1850	20.6260
 2.1860	20.6480
 2.1870	20.6670
 2.1880	20.6920
 2.1890	20.7210
 2.1900	20.7470
 2.1910	20.7780
 2.1920	20.8020
 2.1930	20.8210
 2.1940	20.8400
 2.1950	20.8570
 2.1960	20.8750
 2.1970	20.8910
 2.1980	20.9080
 2.1990	20.9230
 2.2000	20.9410
 2.2010	20.9630
 2.2020	20.9810
 2.2030	20.9980
 2.2040	21.0170
 2.2050	21.0340
 2.2060	21.0510
 2.2070	21.0660
 2.2080	21.0820
 2.2090	21.0950
 2.2100	21.1030
 2.2110	21.1140
 2.2120	21.1280
 2.2130	21.1370
 2.2140	21.1460
 2.2150	21.1520
 2.2160	21.1560
 2.2170	21.1590
 2.2180	21.1620
 2.2190	21.1640
 2.2200	21.1640
 2.2210	21.1620
 2.2220	21.1580
 2.2230	21.1530
 2.2240	21.1450
 2.2250	21.1370
 2.2260	21.1300
 2.2270	21.1170
 2.2280	21.1020
 2.2290	21.0840
 2.2300	21.0590
 2.2310	21.0350
 2.2320	21.0110
 2.2330	20.9830
 2.2340	20.9530
 2.2350	20.9220
 2.2360	20.8840
 2.2370	20.8400
 2.2380	20.7960
 2.2390	20.7470
 2.2400	20.6990
 2.2410	20.6500
 2.2420	20.5980
 2.2430	20.5450
 2.2440	20.4870
 2.2450	20.4260
 2.2460	20.3630
 2.2470	20.2930
 2.2480	20.2270
 2.2490	20.1630
 2.2500	20.0950
 2.2510	20.0280
 2.2520	19.9560
 2.2530	19.8750
 2.2540	19.7990
 2.2550	19.7220
 2.2560	19.6460
 2.2570	19.5710
 2.2580	19.4990
 2.2590	19.4320
 2.2600	19.3600
 2.2610	19.2890
 2.2620	19.2180
 2.2630	19.1380
 2.2640	19.0610
 2.2650	18.9940
 2.2660	18.9240
 2.2670	18.8570
 2.2680	18.7940
 2.2690	18.7300
 2.2700	18.6650
 2.2710	18.6040
 2.2720	18.5490
 2.2730	18.4930
 2.2740	18.4370
 2.2750	18.3850
 2.2760	18.3350
 2.2770	18.2880
 2.2780	18.2450
 2.2790	18.2010
 2.2800	18.1610
 2.2810	18.1170
 2.2820	18.0690
 2.2830	18.0250
 2.2840	17.9830
 2.2850	17.9360
 2.2860	17.8910
 2.2870	17.8420
 2.2880	17.7820
 2.2890	17.7290
 2.2900	17.6810
 2.2910	17.6290
 2.2920	17.5810
 2.2930	17.5260
 2.2940	17.4620
 2.2950	17.4020
 2.2960	17.3370
 2.2970	17.2770
 2.2980	17.2210
 2.2990	17.1660
 2.3000	17.1060
 2.3010	17.0470
 2.3020	16.9890
 2.3030	16.9310
 2.3040	16.8750
 2.3050	16.8180
 2.3060	16.7590
 2.3070	16.7070
 2.3080	16.6640
 2.3090	16.6250
 2.3100	16.5900
 2.3110	16.5530
 2.3120	16.5220
 2.3130	16.4900
 2.3140	16.4670
 2.3150	16.4510
 2.3160	16.4350
 2.3170	16.4220
 2.3180	16.4090
 2.3190	16.4000
 2.3200	16.3870
 2.3210	16.3770
 2.3220	16.3560
 2.3230	16.3290
 2.3240	16.3000
 2.3250	16.2640
 2.3260	16.2270
 2.3270	16.1850
 2.3280	16.1440
 2.3290	16.1020
 2.3300	16.0600
 2.3310	16.0210
 2.3320	15.9750
 2.3330	15.9180
 2.3340	15.8710
 2.3350	15.8250
 2.3360	15.7770
 2.3370	15.7370
 2.3380	15.6910
 2.3390	15.6400
 2.3400	15.5900
 2.3410	15.5390
 2.3420	15.4890
 2.3430	15.4370
 2.3440	15.3850
 2.3450	15.3330
 2.3460	15.2850
 2.3470	15.2360
 2.3480	15.1930
 2.3490	15.1590
 2.3500	15.1210
 2.3510	15.0840
 2.3520	15.0500
 2.3530	15.0180
 2.3540	14.9860
 2.3550	14.9550
 2.3560	14.9190
 2.3570	14.8790
 2.3580	14.8410
 2.3590	14.8030
 2.3600	14.7690
 2.3610	14.7400
 2.3620	14.7050
 2.3630	14.6670
 2.3640	14.6320
 2.3650	14.5970
 2.3660	14.5530
 2.3670	14.5080
 2.3680	14.4690
 2.3690	14.4160
 2.3700	14.3670
 2.3710	14.3330
 2.3720	14.2910
 2.3730	14.2510
 2.3740	14.2140
 2.3750	14.1710
 2.3760	14.1240
 2.3770	14.0820
 2.3780	14.0440
 2.3790	14.0010
 2.3800	13.9580
 2.3810	13.9210
 2.3820	13.8730
 2.3830	13.8180
 2.3840	13.7560
 2.3850	13.6860
 2.3860	13.6300
 2.3870	13.5910
 2.3880	13.5460
 2.3890	13.5110
 2.3900	13.4750
 2.3910	13.4230
 2.3920	13.3800
 2.3930	13.3360
 2.3940	13.2880
 2.3950	13.2490
 2.3960	13.2030
 2.3970	13.1490
 2.3980	13.0990
 2.3990	13.0480
 2.4000	13.0080
 2.4010	12.9660
 2.4020	12.9180
 2.4030	12.8660
 2.4040	12.8150
 2.4050	12.7720
 2.4060	12.7250
 2.4070	12.6790
 2.4080	12.6230
 2.4090	12.5610
 2.4100	12.5120
 2.4110	12.4620
 2.4120	12.4100
 2.4130	12.3570
 2.4140	12.2970
 2.4150	12.2420
 2.4160	12.2000
 2.4170	12.1540
 2.4180	12.1000
 2.4190	12.0530
 2.4200	11.9990
 2.4210	11.9370
 2.4220	11.8990
 2.4230	11.8480
 2.4240	11.7860
 2.4250	11.7390
 2.4260	11.6930
 2.4270	11.6590
 2.4280	11.6270
 2.4290	11.5780
 2.4300	11.5140
 2.4310	11.4360
 2.4320	11.3650
 2.4330	11.3190
 2.4340	11.2690
 2.4350	11.2240
 2.4360	11.1730
 2.4370	11.0980
 2.4380	11.0380
 2.4390	10.9870
 2.4400	10.9330
 2.4410	10.8700
 2.4420	10.8290
 2.4430	10.7920
 2.4440	10.7430
 2.4450	10.7120
 2.4460	10.6660
 2.4470	10.6130
 2.4480	10.5600
 2.4490	10.5190
 2.4500	10.4930
 2.4510	10.4350
 2.4520	10.3780
 2.4530	10.3200
 2.4540	10.2380
 2.4550	10.1680
 2.4560	10.1100
 2.4570	10.0580
 2.4580	10.0210
 2.4590	 9.9960
 2.4600	 9.9640
 2.4610	 9.9240
 2.4620	 9.8890
 2.4630	 9.8340
 2.4640	 9.7940
 2.4650	 9.7700
 2.4660	 9.7180
 2.4670	 9.6740
 2.4680	 9.6320
 2.4690	 9.5870
 2.4700	 9.5470
 2.4710	 9.5280
 2.4720	 9.4990
 2.4730	 9.4510
 2.4740	 9.4150
 2.4750	 9.3860
 2.4760	 9.3560
 2.4770	 9.3360
 2.4780	 9.3150
 2.4790	 9.2850
 2.4800	 9.2540
 2.4810	 9.2160
 2.4820	 9.1730
 2.4830	 9.1480
 2.4840	 9.0980
 2.4850	 9.0820
 2.4860	 9.0710
 2.4870	 9.0250
 2.4880	 9.0040
 2.4890	 8.9630
 2.4900	 8.9150
 2.4910	 8.9260
 2.4920	 8.9350
 2.4930	 8.9410
 2.4940	 8.9450
 2.4950	 8.9130
 2.4960	 8.9390
 2.4970	 8.9500
 2.4980	 8.8790
 2.4990	 8.8820
 2.5000	 8.8660
