Name: Quercus douglasii 2
Type: vegetation
Class: Tree
Genus: Quercus
Species: douglasii
Sample No.: VH078
Owner: UCSB
Wavelength Range: VSWIR
Origin: 34.7157; -120.0601; WGS84
Collection Date: 4/21/2013
Description: Samples were collected as part of the HyspIRI Airborne Campaign. 48 individual plants were sampled in three times in 2013 - spring  summer  and fall. The name of the sample includes a 1  2  or 3 which references a different individual of the species. Samples were taken to JPL and processed within 48 hours of collection. The same leaves were processed in the Nicolet and then measured using the ASD.
Measurement: Bidirectional reflectance
First Column: X
Second Column: Y
X Units: Wavelength (micrometers)
Y Units: Reflectance (percentage)
First X Value: 0.35
Last X Value: 2.5
Number of X Values: 2151
Additional Information: vegetation.tree.quercus.douglasii.vswir.vh078.ucsb.asd.ancillary.txt

 0.3500	 5.2290
 0.3510	 5.0590
 0.3520	 4.9620
 0.3530	 4.9270
 0.3540	 4.9080
 0.3550	 4.9670
 0.3560	 4.8920
 0.3570	 4.7690
 0.3580	 4.8080
 0.3590	 4.8470
 0.3600	 4.8940
 0.3610	 4.9300
 0.3620	 4.8830
 0.3630	 4.7800
 0.3640	 4.7410
 0.3650	 4.8330
 0.3660	 4.8480
 0.3670	 4.8570
 0.3680	 4.8780
 0.3690	 4.8870
 0.3700	 4.8760
 0.3710	 4.8420
 0.3720	 4.7910
 0.3730	 4.7280
 0.3740	 4.7900
 0.3750	 4.8860
 0.3760	 4.8860
 0.3770	 4.8710
 0.3780	 4.8000
 0.3790	 4.7320
 0.3800	 4.7940
 0.3810	 4.8080
 0.3820	 4.8020
 0.3830	 4.8240
 0.3840	 4.8950
 0.3850	 4.9210
 0.3860	 4.9130
 0.3870	 4.9170
 0.3880	 4.9070
 0.3890	 4.9100
 0.3900	 4.9400
 0.3910	 4.9940
 0.3920	 5.0200
 0.3930	 5.0010
 0.3940	 4.9670
 0.3950	 5.0520
 0.3960	 5.0710
 0.3970	 5.0360
 0.3980	 5.0460
 0.3990	 5.0450
 0.4000	 5.0310
 0.4010	 5.0260
 0.4020	 5.0810
 0.4030	 5.0970
 0.4040	 5.1270
 0.4050	 5.2140
 0.4060	 5.2230
 0.4070	 5.2180
 0.4080	 5.2220
 0.4090	 5.2270
 0.4100	 5.2450
 0.4110	 5.2890
 0.4120	 5.3470
 0.4130	 5.3660
 0.4140	 5.3560
 0.4150	 5.3490
 0.4160	 5.3740
 0.4170	 5.4270
 0.4180	 5.4610
 0.4190	 5.4720
 0.4200	 5.4940
 0.4210	 5.5270
 0.4220	 5.5590
 0.4230	 5.5880
 0.4240	 5.6430
 0.4250	 5.6780
 0.4260	 5.6930
 0.4270	 5.7120
 0.4280	 5.7400
 0.4290	 5.7680
 0.4300	 5.7970
 0.4310	 5.8440
 0.4320	 5.8770
 0.4330	 5.8940
 0.4340	 5.9020
 0.4350	 5.9200
 0.4360	 5.9420
 0.4370	 5.9620
 0.4380	 5.9780
 0.4390	 5.9910
 0.4400	 6.0070
 0.4410	 6.0260
 0.4420	 6.0390
 0.4430	 6.0330
 0.4440	 6.0320
 0.4450	 6.0620
 0.4460	 6.0910
 0.4470	 6.0990
 0.4480	 6.0910
 0.4490	 6.0950
 0.4500	 6.1030
 0.4510	 6.1140
 0.4520	 6.1260
 0.4530	 6.1390
 0.4540	 6.1500
 0.4550	 6.1530
 0.4560	 6.1490
 0.4570	 6.1630
 0.4580	 6.1680
 0.4590	 6.1560
 0.4600	 6.1730
 0.4610	 6.1750
 0.4620	 6.1710
 0.4630	 6.1830
 0.4640	 6.1890
 0.4650	 6.1890
 0.4660	 6.1850
 0.4670	 6.1790
 0.4680	 6.1890
 0.4690	 6.1930
 0.4700	 6.1790
 0.4710	 6.1930
 0.4720	 6.1910
 0.4730	 6.1780
 0.4740	 6.1830
 0.4750	 6.1830
 0.4760	 6.1810
 0.4770	 6.1830
 0.4780	 6.1860
 0.4790	 6.1880
 0.4800	 6.1880
 0.4810	 6.1880
 0.4820	 6.1920
 0.4830	 6.1880
 0.4840	 6.1830
 0.4850	 6.2020
 0.4860	 6.2100
 0.4870	 6.2090
 0.4880	 6.2090
 0.4890	 6.2150
 0.4900	 6.2220
 0.4910	 6.2300
 0.4920	 6.2430
 0.4930	 6.2500
 0.4940	 6.2510
 0.4950	 6.2530
 0.4960	 6.2670
 0.4970	 6.2870
 0.4980	 6.3080
 0.4990	 6.3270
 0.5000	 6.3540
 0.5010	 6.3740
 0.5020	 6.3870
 0.5030	 6.4130
 0.5040	 6.4460
 0.5050	 6.4860
 0.5060	 6.5340
 0.5070	 6.5880
 0.5080	 6.6450
 0.5090	 6.7030
 0.5100	 6.7640
 0.5110	 6.8440
 0.5120	 6.9300
 0.5130	 7.0190
 0.5140	 7.1290
 0.5150	 7.2460
 0.5160	 7.3740
 0.5170	 7.5170
 0.5180	 7.6590
 0.5190	 7.8160
 0.5200	 7.9850
 0.5210	 8.1530
 0.5220	 8.3340
 0.5230	 8.5200
 0.5240	 8.7020
 0.5250	 8.8780
 0.5260	 9.0540
 0.5270	 9.2270
 0.5280	 9.3920
 0.5290	 9.5420
 0.5300	 9.6880
 0.5310	 9.8290
 0.5320	 9.9500
 0.5330	10.0680
 0.5340	10.1820
 0.5350	10.2840
 0.5360	10.3750
 0.5370	10.4600
 0.5380	10.5390
 0.5390	10.6100
 0.5400	10.6820
 0.5410	10.7570
 0.5420	10.8320
 0.5430	10.8990
 0.5440	10.9570
 0.5450	11.0090
 0.5460	11.0590
 0.5470	11.0970
 0.5480	11.1320
 0.5490	11.1670
 0.5500	11.2000
 0.5510	11.2220
 0.5520	11.2350
 0.5530	11.2410
 0.5540	11.2270
 0.5550	11.2040
 0.5560	11.1700
 0.5570	11.1150
 0.5580	11.0510
 0.5590	10.9770
 0.5600	10.8930
 0.5610	10.7970
 0.5620	10.6950
 0.5630	10.5900
 0.5640	10.4800
 0.5650	10.3640
 0.5660	10.2450
 0.5670	10.1230
 0.5680	 9.9990
 0.5690	 9.8680
 0.5700	 9.7350
 0.5710	 9.6050
 0.5720	 9.4810
 0.5730	 9.3590
 0.5740	 9.2420
 0.5750	 9.1320
 0.5760	 9.0250
 0.5770	 8.9240
 0.5780	 8.8300
 0.5790	 8.7490
 0.5800	 8.6770
 0.5810	 8.6090
 0.5820	 8.5400
 0.5830	 8.4800
 0.5840	 8.4180
 0.5850	 8.3580
 0.5860	 8.3160
 0.5870	 8.2740
 0.5880	 8.2340
 0.5890	 8.2000
 0.5900	 8.1620
 0.5910	 8.1230
 0.5920	 8.0900
 0.5930	 8.0670
 0.5940	 8.0470
 0.5950	 8.0280
 0.5960	 8.0120
 0.5970	 8.0030
 0.5980	 7.9840
 0.5990	 7.9590
 0.6000	 7.9350
 0.6010	 7.9100
 0.6020	 7.8820
 0.6030	 7.8490
 0.6040	 7.8090
 0.6050	 7.7660
 0.6060	 7.7220
 0.6070	 7.6790
 0.6080	 7.6250
 0.6090	 7.5760
 0.6100	 7.5340
 0.6110	 7.4950
 0.6120	 7.4420
 0.6130	 7.3800
 0.6140	 7.3200
 0.6150	 7.2680
 0.6160	 7.2140
 0.6170	 7.1640
 0.6180	 7.1270
 0.6190	 7.0940
 0.6200	 7.0640
 0.6210	 7.0340
 0.6220	 7.0080
 0.6230	 6.9830
 0.6240	 6.9630
 0.6250	 6.9520
 0.6260	 6.9370
 0.6270	 6.9220
 0.6280	 6.9120
 0.6290	 6.9080
 0.6300	 6.9020
 0.6310	 6.8970
 0.6320	 6.8900
 0.6330	 6.8770
 0.6340	 6.8640
 0.6350	 6.8500
 0.6360	 6.8320
 0.6370	 6.8090
 0.6380	 6.7790
 0.6390	 6.7470
 0.6400	 6.7190
 0.6410	 6.6830
 0.6420	 6.6430
 0.6430	 6.6030
 0.6440	 6.5650
 0.6450	 6.5270
 0.6460	 6.4900
 0.6470	 6.4570
 0.6480	 6.4210
 0.6490	 6.3910
 0.6500	 6.3670
 0.6510	 6.3390
 0.6520	 6.3140
 0.6530	 6.2920
 0.6540	 6.2720
 0.6550	 6.2510
 0.6560	 6.2260
 0.6570	 6.1970
 0.6580	 6.1680
 0.6590	 6.1410
 0.6600	 6.1150
 0.6610	 6.0900
 0.6620	 6.0630
 0.6630	 6.0400
 0.6640	 6.0180
 0.6650	 5.9960
 0.6660	 5.9850
 0.6670	 5.9740
 0.6680	 5.9640
 0.6690	 5.9580
 0.6700	 5.9490
 0.6710	 5.9440
 0.6720	 5.9470
 0.6730	 5.9510
 0.6740	 5.9560
 0.6750	 5.9630
 0.6760	 5.9700
 0.6770	 5.9820
 0.6780	 5.9940
 0.6790	 6.0080
 0.6800	 6.0270
 0.6810	 6.0470
 0.6820	 6.0680
 0.6830	 6.0920
 0.6840	 6.1230
 0.6850	 6.1620
 0.6860	 6.2080
 0.6870	 6.2610
 0.6880	 6.3250
 0.6890	 6.4120
 0.6900	 6.5240
 0.6910	 6.6650
 0.6920	 6.8520
 0.6930	 7.0860
 0.6940	 7.3690
 0.6950	 7.7110
 0.6960	 8.1160
 0.6970	 8.5860
 0.6980	 9.1210
 0.6990	 9.7250
 0.7000	10.3920
 0.7010	11.1130
 0.7020	11.8810
 0.7030	12.6950
 0.7040	13.5400
 0.7050	14.4070
 0.7060	15.3110
 0.7070	16.2340
 0.7080	17.1650
 0.7090	18.1020
 0.7100	19.0490
 0.7110	20.0070
 0.7120	20.9730
 0.7130	21.9400
 0.7140	22.9090
 0.7150	23.8790
 0.7160	24.8470
 0.7170	25.8100
 0.7180	26.7670
 0.7190	27.7170
 0.7200	28.6570
 0.7210	29.5820
 0.7220	30.4950
 0.7230	31.3920
 0.7240	32.2610
 0.7250	33.1140
 0.7260	33.9430
 0.7270	34.7420
 0.7280	35.5160
 0.7290	36.2620
 0.7300	36.9740
 0.7310	37.6530
 0.7320	38.3080
 0.7330	38.9360
 0.7340	39.5320
 0.7350	40.0990
 0.7360	40.6320
 0.7370	41.1390
 0.7380	41.6250
 0.7390	42.0810
 0.7400	42.5050
 0.7410	42.9020
 0.7420	43.2840
 0.7430	43.6380
 0.7440	43.9710
 0.7450	44.2810
 0.7460	44.5680
 0.7470	44.8350
 0.7480	45.0830
 0.7490	45.3130
 0.7500	45.5260
 0.7510	45.7240
 0.7520	45.9070
 0.7530	46.0780
 0.7540	46.2290
 0.7550	46.3670
 0.7560	46.4960
 0.7570	46.6130
 0.7580	46.7180
 0.7590	46.8140
 0.7600	46.9030
 0.7610	46.9900
 0.7620	47.0680
 0.7630	47.1380
 0.7640	47.2030
 0.7650	47.2600
 0.7660	47.3160
 0.7670	47.3670
 0.7680	47.4090
 0.7690	47.4500
 0.7700	47.4870
 0.7710	47.5220
 0.7720	47.5600
 0.7730	47.5920
 0.7740	47.6210
 0.7750	47.6490
 0.7760	47.6750
 0.7770	47.7010
 0.7780	47.7250
 0.7790	47.7450
 0.7800	47.7670
 0.7810	47.7880
 0.7820	47.8070
 0.7830	47.8230
 0.7840	47.8380
 0.7850	47.8560
 0.7860	47.8770
 0.7870	47.8930
 0.7880	47.9020
 0.7890	47.9110
 0.7900	47.9280
 0.7910	47.9350
 0.7920	47.9460
 0.7930	47.9590
 0.7940	47.9670
 0.7950	47.9770
 0.7960	47.9840
 0.7970	47.9900
 0.7980	48.0020
 0.7990	48.0110
 0.8000	48.0120
 0.8010	48.0070
 0.8020	48.0130
 0.8030	48.0190
 0.8040	48.0200
 0.8050	48.0180
 0.8060	48.0210
 0.8070	48.0200
 0.8080	48.0150
 0.8090	48.0100
 0.8100	48.0110
 0.8110	48.0110
 0.8120	48.0060
 0.8130	48.0010
 0.8140	47.9970
 0.8150	47.9930
 0.8160	47.9860
 0.8170	47.9780
 0.8180	47.9740
 0.8190	47.9730
 0.8200	47.9700
 0.8210	47.9550
 0.8220	47.9440
 0.8230	47.9400
 0.8240	47.9310
 0.8250	47.9200
 0.8260	47.9090
 0.8270	47.8980
 0.8280	47.8880
 0.8290	47.8830
 0.8300	47.8760
 0.8310	47.8640
 0.8320	47.8530
 0.8330	47.8440
 0.8340	47.8370
 0.8350	47.8300
 0.8360	47.8280
 0.8370	47.8200
 0.8380	47.8100
 0.8390	47.8090
 0.8400	47.8060
 0.8410	47.8030
 0.8420	47.8000
 0.8430	47.7990
 0.8440	47.7950
 0.8450	47.7900
 0.8460	47.7910
 0.8470	47.7890
 0.8480	47.7900
 0.8490	47.7890
 0.8500	47.7870
 0.8510	47.7870
 0.8520	47.7870
 0.8530	47.7890
 0.8540	47.7980
 0.8550	47.7980
 0.8560	47.7970
 0.8570	47.8000
 0.8580	47.8020
 0.8590	47.8030
 0.8600	47.8060
 0.8610	47.8100
 0.8620	47.8130
 0.8630	47.8160
 0.8640	47.8220
 0.8650	47.8310
 0.8660	47.8390
 0.8670	47.8390
 0.8680	47.8400
 0.8690	47.8500
 0.8700	47.8560
 0.8710	47.8600
 0.8720	47.8620
 0.8730	47.8600
 0.8740	47.8750
 0.8750	47.8840
 0.8760	47.8850
 0.8770	47.8970
 0.8780	47.9080
 0.8790	47.9040
 0.8800	47.8940
 0.8810	47.9150
 0.8820	47.9260
 0.8830	47.9300
 0.8840	47.9370
 0.8850	47.9410
 0.8860	47.9480
 0.8870	47.9570
 0.8880	47.9640
 0.8890	47.9630
 0.8900	47.9710
 0.8910	47.9820
 0.8920	47.9820
 0.8930	47.9920
 0.8940	47.9980
 0.8950	48.0010
 0.8960	48.0050
 0.8970	48.0120
 0.8980	48.0220
 0.8990	48.0300
 0.9000	48.0370
 0.9010	48.0360
 0.9020	48.0410
 0.9030	48.0520
 0.9040	48.0540
 0.9050	48.0560
 0.9060	48.0600
 0.9070	48.0690
 0.9080	48.0810
 0.9090	48.0830
 0.9100	48.0820
 0.9110	48.0880
 0.9120	48.1020
 0.9130	48.1010
 0.9140	48.0980
 0.9150	48.1060
 0.9160	48.1010
 0.9170	48.1010
 0.9180	48.1090
 0.9190	48.1200
 0.9200	48.1190
 0.9210	48.1120
 0.9220	48.1060
 0.9230	48.1070
 0.9240	48.0940
 0.9250	48.0790
 0.9260	48.0720
 0.9270	48.0730
 0.9280	48.0670
 0.9290	48.0520
 0.9300	48.0320
 0.9310	48.0120
 0.9320	47.9930
 0.9330	47.9770
 0.9340	47.9640
 0.9350	47.9570
 0.9360	47.9460
 0.9370	47.9110
 0.9380	47.8640
 0.9390	47.8600
 0.9400	47.8280
 0.9410	47.7950
 0.9420	47.7800
 0.9430	47.7480
 0.9440	47.7160
 0.9450	47.6780
 0.9460	47.6350
 0.9470	47.6080
 0.9480	47.5730
 0.9490	47.5220
 0.9500	47.4580
 0.9510	47.4100
 0.9520	47.3640
 0.9530	47.2980
 0.9540	47.2070
 0.9550	47.1520
 0.9560	47.1000
 0.9570	47.0330
 0.9580	46.9570
 0.9590	46.9150
 0.9600	46.8740
 0.9610	46.8410
 0.9620	46.8230
 0.9630	46.7780
 0.9640	46.7360
 0.9650	46.7040
 0.9660	46.6810
 0.9670	46.6700
 0.9680	46.6450
 0.9690	46.6150
 0.9700	46.5980
 0.9710	46.5970
 0.9720	46.5880
 0.9730	46.5760
 0.9740	46.5770
 0.9750	46.5730
 0.9760	46.5650
 0.9770	46.5570
 0.9780	46.5560
 0.9790	46.5580
 0.9800	46.5500
 0.9810	46.5510
 0.9820	46.5790
 0.9830	46.5660
 0.9840	46.5560
 0.9850	46.5770
 0.9860	46.6260
 0.9870	46.6290
 0.9880	46.6320
 0.9890	46.6530
 0.9900	46.6810
 0.9910	46.6570
 0.9920	46.6810
 0.9930	46.7040
 0.9940	46.7270
 0.9950	46.7510
 0.9960	46.7740
 0.9970	46.7970
 0.9980	46.8210
 0.9990	46.8440
 1.0000	46.8670
 1.0010	46.8900
 1.0020	46.9140
 1.0030	46.9370
 1.0040	46.9600
 1.0050	46.9840
 1.0060	47.0070
 1.0070	47.0300
 1.0080	47.0530
 1.0090	47.0770
 1.0100	47.0770
 1.0110	47.0950
 1.0120	47.1130
 1.0130	47.1270
 1.0140	47.1440
 1.0150	47.1640
 1.0160	47.1880
 1.0170	47.2080
 1.0180	47.2230
 1.0190	47.2460
 1.0200	47.2630
 1.0210	47.2750
 1.0220	47.2940
 1.0230	47.3080
 1.0240	47.3160
 1.0250	47.3310
 1.0260	47.3510
 1.0270	47.3660
 1.0280	47.3810
 1.0290	47.3960
 1.0300	47.4090
 1.0310	47.4230
 1.0320	47.4380
 1.0330	47.4530
 1.0340	47.4690
 1.0350	47.4800
 1.0360	47.4860
 1.0370	47.4990
 1.0380	47.5120
 1.0390	47.5230
 1.0400	47.5360
 1.0410	47.5560
 1.0420	47.5680
 1.0430	47.5770
 1.0440	47.5880
 1.0450	47.6000
 1.0460	47.6090
 1.0470	47.6190
 1.0480	47.6290
 1.0490	47.6350
 1.0500	47.6410
 1.0510	47.6470
 1.0520	47.6510
 1.0530	47.6580
 1.0540	47.6620
 1.0550	47.6710
 1.0560	47.6840
 1.0570	47.6910
 1.0580	47.6970
 1.0590	47.7030
 1.0600	47.7080
 1.0610	47.7120
 1.0620	47.7180
 1.0630	47.7230
 1.0640	47.7280
 1.0650	47.7300
 1.0660	47.7280
 1.0670	47.7300
 1.0680	47.7330
 1.0690	47.7370
 1.0700	47.7390
 1.0710	47.7440
 1.0720	47.7460
 1.0730	47.7420
 1.0740	47.7420
 1.0750	47.7440
 1.0760	47.7450
 1.0770	47.7480
 1.0780	47.7470
 1.0790	47.7450
 1.0800	47.7440
 1.0810	47.7440
 1.0820	47.7410
 1.0830	47.7390
 1.0840	47.7370
 1.0850	47.7320
 1.0860	47.7250
 1.0870	47.7210
 1.0880	47.7210
 1.0890	47.7140
 1.0900	47.7040
 1.0910	47.6960
 1.0920	47.6830
 1.0930	47.6740
 1.0940	47.6690
 1.0950	47.6620
 1.0960	47.6550
 1.0970	47.6450
 1.0980	47.6330
 1.0990	47.6230
 1.1000	47.6110
 1.1010	47.6010
 1.1020	47.5950
 1.1030	47.5890
 1.1040	47.5770
 1.1050	47.5660
 1.1060	47.5530
 1.1070	47.5370
 1.1080	47.5230
 1.1090	47.5100
 1.1100	47.4950
 1.1110	47.4800
 1.1120	47.4650
 1.1130	47.4520
 1.1140	47.4350
 1.1150	47.4180
 1.1160	47.3970
 1.1170	47.3700
 1.1180	47.3460
 1.1190	47.3220
 1.1200	47.2970
 1.1210	47.2710
 1.1220	47.2410
 1.1230	47.2050
 1.1240	47.1660
 1.1250	47.1230
 1.1260	47.0760
 1.1270	47.0230
 1.1280	46.9660
 1.1290	46.9020
 1.1300	46.8340
 1.1310	46.7570
 1.1320	46.6760
 1.1330	46.5860
 1.1340	46.4870
 1.1350	46.3840
 1.1360	46.2760
 1.1370	46.1610
 1.1380	46.0430
 1.1390	45.9180
 1.1400	45.7840
 1.1410	45.6500
 1.1420	45.5130
 1.1430	45.3720
 1.1440	45.2320
 1.1450	45.0890
 1.1460	44.9530
 1.1470	44.8160
 1.1480	44.6860
 1.1490	44.5590
 1.1500	44.4400
 1.1510	44.3230
 1.1520	44.2180
 1.1530	44.1210
 1.1540	44.0330
 1.1550	43.9560
 1.1560	43.8820
 1.1570	43.8130
 1.1580	43.7550
 1.1590	43.7010
 1.1600	43.6560
 1.1610	43.6190
 1.1620	43.5860
 1.1630	43.5580
 1.1640	43.5310
 1.1650	43.5090
 1.1660	43.4900
 1.1670	43.4740
 1.1680	43.4620
 1.1690	43.4500
 1.1700	43.4430
 1.1710	43.4340
 1.1720	43.4260
 1.1730	43.4170
 1.1740	43.4070
 1.1750	43.3990
 1.1760	43.3910
 1.1770	43.3820
 1.1780	43.3700
 1.1790	43.3580
 1.1800	43.3450
 1.1810	43.3300
 1.1820	43.3200
 1.1830	43.3100
 1.1840	43.2970
 1.1850	43.2860
 1.1860	43.2750
 1.1870	43.2640
 1.1880	43.2540
 1.1890	43.2470
 1.1900	43.2400
 1.1910	43.2330
 1.1920	43.2290
 1.1930	43.2270
 1.1940	43.2260
 1.1950	43.2260
 1.1960	43.2300
 1.1970	43.2320
 1.1980	43.2360
 1.1990	43.2440
 1.2000	43.2510
 1.2010	43.2580
 1.2020	43.2660
 1.2030	43.2750
 1.2040	43.2830
 1.2050	43.2930
 1.2060	43.3070
 1.2070	43.3210
 1.2080	43.3340
 1.2090	43.3490
 1.2100	43.3660
 1.2110	43.3830
 1.2120	43.4010
 1.2130	43.4190
 1.2140	43.4380
 1.2150	43.4570
 1.2160	43.4750
 1.2170	43.4950
 1.2180	43.5150
 1.2190	43.5380
 1.2200	43.5630
 1.2210	43.5850
 1.2220	43.6070
 1.2230	43.6300
 1.2240	43.6510
 1.2250	43.6720
 1.2260	43.6930
 1.2270	43.7130
 1.2280	43.7350
 1.2290	43.7580
 1.2300	43.7800
 1.2310	43.8010
 1.2320	43.8210
 1.2330	43.8390
 1.2340	43.8570
 1.2350	43.8770
 1.2360	43.8940
 1.2370	43.9100
 1.2380	43.9260
 1.2390	43.9420
 1.2400	43.9590
 1.2410	43.9770
 1.2420	43.9930
 1.2430	44.0060
 1.2440	44.0180
 1.2450	44.0290
 1.2460	44.0410
 1.2470	44.0530
 1.2480	44.0630
 1.2490	44.0740
 1.2500	44.0830
 1.2510	44.0910
 1.2520	44.0980
 1.2530	44.1060
 1.2540	44.1130
 1.2550	44.1170
 1.2560	44.1220
 1.2570	44.1260
 1.2580	44.1310
 1.2590	44.1340
 1.2600	44.1380
 1.2610	44.1390
 1.2620	44.1360
 1.2630	44.1310
 1.2640	44.1260
 1.2650	44.1230
 1.2660	44.1220
 1.2670	44.1210
 1.2680	44.1180
 1.2690	44.1120
 1.2700	44.1030
 1.2710	44.0910
 1.2720	44.0810
 1.2730	44.0700
 1.2740	44.0560
 1.2750	44.0450
 1.2760	44.0320
 1.2770	44.0180
 1.2780	44.0050
 1.2790	43.9910
 1.2800	43.9740
 1.2810	43.9560
 1.2820	43.9370
 1.2830	43.9150
 1.2840	43.8920
 1.2850	43.8680
 1.2860	43.8420
 1.2870	43.8150
 1.2880	43.7880
 1.2890	43.7580
 1.2900	43.7270
 1.2910	43.6920
 1.2920	43.6520
 1.2930	43.6120
 1.2940	43.5710
 1.2950	43.5290
 1.2960	43.4890
 1.2970	43.4440
 1.2980	43.3970
 1.2990	43.3480
 1.3000	43.2960
 1.3010	43.2410
 1.3020	43.1840
 1.3030	43.1240
 1.3040	43.0610
 1.3050	42.9950
 1.3060	42.9290
 1.3070	42.8610
 1.3080	42.7880
 1.3090	42.7130
 1.3100	42.6330
 1.3110	42.5470
 1.3120	42.4610
 1.3130	42.3740
 1.3140	42.2830
 1.3150	42.1930
 1.3160	42.0960
 1.3170	41.9960
 1.3180	41.8910
 1.3190	41.7810
 1.3200	41.6710
 1.3210	41.5570
 1.3220	41.4390
 1.3230	41.3210
 1.3240	41.1980
 1.3250	41.0710
 1.3260	40.9440
 1.3270	40.8160
 1.3280	40.6840
 1.3290	40.5500
 1.3300	40.4140
 1.3310	40.2740
 1.3320	40.1320
 1.3330	39.9910
 1.3340	39.8500
 1.3350	39.7070
 1.3360	39.5640
 1.3370	39.4190
 1.3380	39.2730
 1.3390	39.1280
 1.3400	38.9840
 1.3410	38.8400
 1.3420	38.6970
 1.3430	38.5560
 1.3440	38.4150
 1.3450	38.2750
 1.3460	38.1360
 1.3470	37.9990
 1.3480	37.8620
 1.3490	37.7270
 1.3500	37.5950
 1.3510	37.4620
 1.3520	37.3290
 1.3530	37.1960
 1.3540	37.0630
 1.3550	36.9320
 1.3560	36.8000
 1.3570	36.6660
 1.3580	36.5320
 1.3590	36.3940
 1.3600	36.2520
 1.3610	36.1090
 1.3620	35.9580
 1.3630	35.8030
 1.3640	35.6420
 1.3650	35.4720
 1.3660	35.2990
 1.3670	35.1140
 1.3680	34.9170
 1.3690	34.7100
 1.3700	34.4870
 1.3710	34.2520
 1.3720	34.0020
 1.3730	33.7330
 1.3740	33.4480
 1.3750	33.1440
 1.3760	32.8180
 1.3770	32.4710
 1.3780	32.0990
 1.3790	31.7040
 1.3800	31.2870
 1.3810	30.8440
 1.3820	30.3830
 1.3830	29.9010
 1.3840	29.4010
 1.3850	28.8800
 1.3860	28.3470
 1.3870	27.7920
 1.3880	27.2340
 1.3890	26.6630
 1.3900	26.0830
 1.3910	25.5040
 1.3920	24.9210
 1.3930	24.3360
 1.3940	23.7560
 1.3950	23.1750
 1.3960	22.6050
 1.3970	22.0460
 1.3980	21.5000
 1.3990	20.9770
 1.4000	20.4690
 1.4010	19.9770
 1.4020	19.5090
 1.4030	19.0570
 1.4040	18.6280
 1.4050	18.2250
 1.4060	17.8420
 1.4070	17.4840
 1.4080	17.1510
 1.4090	16.8360
 1.4100	16.5450
 1.4110	16.2740
 1.4120	16.0210
 1.4130	15.7880
 1.4140	15.5730
 1.4150	15.3780
 1.4160	15.2000
 1.4170	15.0380
 1.4180	14.8900
 1.4190	14.7540
 1.4200	14.6290
 1.4210	14.5170
 1.4220	14.4150
 1.4230	14.3230
 1.4240	14.2420
 1.4250	14.1680
 1.4260	14.1030
 1.4270	14.0450
 1.4280	13.9930
 1.4290	13.9480
 1.4300	13.9090
 1.4310	13.8760
 1.4320	13.8490
 1.4330	13.8260
 1.4340	13.8090
 1.4350	13.7940
 1.4360	13.7830
 1.4370	13.7760
 1.4380	13.7720
 1.4390	13.7710
 1.4400	13.7740
 1.4410	13.7800
 1.4420	13.7880
 1.4430	13.7980
 1.4440	13.8100
 1.4450	13.8220
 1.4460	13.8360
 1.4470	13.8510
 1.4480	13.8670
 1.4490	13.8850
 1.4500	13.9030
 1.4510	13.9230
 1.4520	13.9450
 1.4530	13.9680
 1.4540	13.9910
 1.4550	14.0160
 1.4560	14.0430
 1.4570	14.0730
 1.4580	14.1070
 1.4590	14.1430
 1.4600	14.1830
 1.4610	14.2260
 1.4620	14.2720
 1.4630	14.3240
 1.4640	14.3800
 1.4650	14.4410
 1.4660	14.5070
 1.4670	14.5760
 1.4680	14.6520
 1.4690	14.7320
 1.4700	14.8160
 1.4710	14.9050
 1.4720	14.9950
 1.4730	15.0910
 1.4740	15.1880
 1.4750	15.2900
 1.4760	15.3960
 1.4770	15.5030
 1.4780	15.6110
 1.4790	15.7220
 1.4800	15.8340
 1.4810	15.9480
 1.4820	16.0640
 1.4830	16.1810
 1.4840	16.3010
 1.4850	16.4200
 1.4860	16.5390
 1.4870	16.6610
 1.4880	16.7810
 1.4890	16.9020
 1.4900	17.0240
 1.4910	17.1470
 1.4920	17.2710
 1.4930	17.3950
 1.4940	17.5200
 1.4950	17.6460
 1.4960	17.7720
 1.4970	17.8970
 1.4980	18.0230
 1.4990	18.1500
 1.5000	18.2760
 1.5010	18.4020
 1.5020	18.5280
 1.5030	18.6540
 1.5040	18.7800
 1.5050	18.9060
 1.5060	19.0320
 1.5070	19.1570
 1.5080	19.2820
 1.5090	19.4070
 1.5100	19.5320
 1.5110	19.6560
 1.5120	19.7810
 1.5130	19.9040
 1.5140	20.0270
 1.5150	20.1490
 1.5160	20.2690
 1.5170	20.3910
 1.5180	20.5110
 1.5190	20.6320
 1.5200	20.7530
 1.5210	20.8700
 1.5220	20.9880
 1.5230	21.1050
 1.5240	21.2210
 1.5250	21.3370
 1.5260	21.4510
 1.5270	21.5650
 1.5280	21.6770
 1.5290	21.7880
 1.5300	21.8990
 1.5310	22.0080
 1.5320	22.1150
 1.5330	22.2250
 1.5340	22.3320
 1.5350	22.4380
 1.5360	22.5440
 1.5370	22.6470
 1.5380	22.7480
 1.5390	22.8510
 1.5400	22.9530
 1.5410	23.0580
 1.5420	23.1610
 1.5430	23.2620
 1.5440	23.3620
 1.5450	23.4580
 1.5460	23.5540
 1.5470	23.6520
 1.5480	23.7470
 1.5490	23.8420
 1.5500	23.9360
 1.5510	24.0290
 1.5520	24.1210
 1.5530	24.2110
 1.5540	24.2990
 1.5550	24.3870
 1.5560	24.4740
 1.5570	24.5600
 1.5580	24.6460
 1.5590	24.7310
 1.5600	24.8150
 1.5610	24.8970
 1.5620	24.9780
 1.5630	25.0580
 1.5640	25.1360
 1.5650	25.2160
 1.5660	25.2970
 1.5670	25.3750
 1.5680	25.4530
 1.5690	25.5290
 1.5700	25.6020
 1.5710	25.6760
 1.5720	25.7500
 1.5730	25.8240
 1.5740	25.8980
 1.5750	25.9710
 1.5760	26.0440
 1.5770	26.1150
 1.5780	26.1870
 1.5790	26.2580
 1.5800	26.3280
 1.5810	26.3980
 1.5820	26.4670
 1.5830	26.5350
 1.5840	26.6030
 1.5850	26.6700
 1.5860	26.7370
 1.5870	26.8030
 1.5880	26.8700
 1.5890	26.9350
 1.5900	27.0000
 1.5910	27.0630
 1.5920	27.1280
 1.5930	27.1920
 1.5940	27.2560
 1.5950	27.3190
 1.5960	27.3810
 1.5970	27.4420
 1.5980	27.5030
 1.5990	27.5630
 1.6000	27.6240
 1.6010	27.6830
 1.6020	27.7420
 1.6030	27.8010
 1.6040	27.8580
 1.6050	27.9140
 1.6060	27.9680
 1.6070	28.0220
 1.6080	28.0750
 1.6090	28.1290
 1.6100	28.1800
 1.6110	28.2310
 1.6120	28.2790
 1.6130	28.3280
 1.6140	28.3790
 1.6150	28.4280
 1.6160	28.4760
 1.6170	28.5210
 1.6180	28.5640
 1.6190	28.6080
 1.6200	28.6520
 1.6210	28.6960
 1.6220	28.7390
 1.6230	28.7790
 1.6240	28.8190
 1.6250	28.8600
 1.6260	28.8990
 1.6270	28.9390
 1.6280	28.9770
 1.6290	29.0140
 1.6300	29.0510
 1.6310	29.0870
 1.6320	29.1220
 1.6330	29.1560
 1.6340	29.1900
 1.6350	29.2220
 1.6360	29.2510
 1.6370	29.2810
 1.6380	29.3080
 1.6390	29.3340
 1.6400	29.3600
 1.6410	29.3830
 1.6420	29.4050
 1.6430	29.4240
 1.6440	29.4430
 1.6450	29.4590
 1.6460	29.4720
 1.6470	29.4830
 1.6480	29.4940
 1.6490	29.5030
 1.6500	29.5100
 1.6510	29.5150
 1.6520	29.5180
 1.6530	29.5200
 1.6540	29.5230
 1.6550	29.5240
 1.6560	29.5250
 1.6570	29.5240
 1.6580	29.5210
 1.6590	29.5170
 1.6600	29.5130
 1.6610	29.5080
 1.6620	29.5040
 1.6630	29.5020
 1.6640	29.5000
 1.6650	29.4970
 1.6660	29.4940
 1.6670	29.4890
 1.6680	29.4830
 1.6690	29.4780
 1.6700	29.4730
 1.6710	29.4670
 1.6720	29.4580
 1.6730	29.4480
 1.6740	29.4360
 1.6750	29.4200
 1.6760	29.4020
 1.6770	29.3820
 1.6780	29.3570
 1.6790	29.3310
 1.6800	29.3040
 1.6810	29.2750
 1.6820	29.2440
 1.6830	29.2090
 1.6840	29.1720
 1.6850	29.1320
 1.6860	29.0910
 1.6870	29.0480
 1.6880	29.0050
 1.6890	28.9610
 1.6900	28.9170
 1.6910	28.8730
 1.6920	28.8300
 1.6930	28.7890
 1.6940	28.7460
 1.6950	28.7050
 1.6960	28.6640
 1.6970	28.6210
 1.6980	28.5780
 1.6990	28.5370
 1.7000	28.4940
 1.7010	28.4500
 1.7020	28.4060
 1.7030	28.3610
 1.7040	28.3160
 1.7050	28.2720
 1.7060	28.2270
 1.7070	28.1810
 1.7080	28.1340
 1.7090	28.0860
 1.7100	28.0380
 1.7110	27.9900
 1.7120	27.9420
 1.7130	27.8930
 1.7140	27.8440
 1.7150	27.7950
 1.7160	27.7470
 1.7170	27.6980
 1.7180	27.6480
 1.7190	27.6000
 1.7200	27.5520
 1.7210	27.5030
 1.7220	27.4550
 1.7230	27.4070
 1.7240	27.3580
 1.7250	27.3100
 1.7260	27.2620
 1.7270	27.2170
 1.7280	27.1700
 1.7290	27.1240
 1.7300	27.0780
 1.7310	27.0320
 1.7320	26.9860
 1.7330	26.9390
 1.7340	26.8910
 1.7350	26.8440
 1.7360	26.7980
 1.7370	26.7510
 1.7380	26.7050
 1.7390	26.6560
 1.7400	26.6050
 1.7410	26.5530
 1.7420	26.5010
 1.7430	26.4480
 1.7440	26.3960
 1.7450	26.3400
 1.7460	26.2810
 1.7470	26.2240
 1.7480	26.1670
 1.7490	26.1100
 1.7500	26.0550
 1.7510	25.9970
 1.7520	25.9360
 1.7530	25.8760
 1.7540	25.8150
 1.7550	25.7550
 1.7560	25.6970
 1.7570	25.6350
 1.7580	25.5730
 1.7590	25.5150
 1.7600	25.4550
 1.7610	25.3990
 1.7620	25.3430
 1.7630	25.2860
 1.7640	25.2320
 1.7650	25.1800
 1.7660	25.1290
 1.7670	25.0800
 1.7680	25.0320
 1.7690	24.9870
 1.7700	24.9420
 1.7710	24.8980
 1.7720	24.8560
 1.7730	24.8170
 1.7740	24.7780
 1.7750	24.7400
 1.7760	24.7020
 1.7770	24.6640
 1.7780	24.6280
 1.7790	24.5930
 1.7800	24.5620
 1.7810	24.5320
 1.7820	24.5030
 1.7830	24.4770
 1.7840	24.4530
 1.7850	24.4290
 1.7860	24.4070
 1.7870	24.3880
 1.7880	24.3700
 1.7890	24.3520
 1.7900	24.3370
 1.7910	24.3230
 1.7920	24.3110
 1.7930	24.3000
 1.7940	24.2910
 1.7950	24.2830
 1.7960	24.2760
 1.7970	24.2710
 1.7980	24.2690
 1.7990	24.2670
 1.8000	24.2660
 1.8010	24.2660
 1.8020	24.2670
 1.8030	24.2680
 1.8040	24.2700
 1.8050	24.2700
 1.8060	24.2680
 1.8070	24.2680
 1.8080	24.2690
 1.8090	24.2700
 1.8100	24.2700
 1.8110	24.2720
 1.8120	24.2730
 1.8130	24.2710
 1.8140	24.2690
 1.8150	24.2660
 1.8160	24.2600
 1.8170	24.2580
 1.8180	24.2580
 1.8190	24.2550
 1.8200	24.2520
 1.8210	24.2490
 1.8220	24.2420
 1.8230	24.2320
 1.8240	24.2210
 1.8250	24.2050
 1.8260	24.1910
 1.8270	24.1300
 1.8280	24.0680
 1.8290	24.0070
 1.8300	23.9460
 1.8310	23.8840
 1.8320	23.8230
 1.8330	23.7620
 1.8340	23.7000
 1.8350	23.7000
 1.8360	23.6550
 1.8370	23.6090
 1.8380	23.5550
 1.8390	23.4980
 1.8400	23.4400
 1.8410	23.3730
 1.8420	23.3030
 1.8430	23.2250
 1.8440	23.1370
 1.8450	23.0410
 1.8460	22.9360
 1.8470	22.8250
 1.8480	22.7060
 1.8490	22.5750
 1.8500	22.4330
 1.8510	22.2800
 1.8520	22.1180
 1.8530	21.9440
 1.8540	21.7620
 1.8550	21.5710
 1.8560	21.3610
 1.8570	21.1370
 1.8580	20.8980
 1.8590	20.6450
 1.8600	20.3760
 1.8610	20.0960
 1.8620	19.8060
 1.8630	19.5010
 1.8640	19.1820
 1.8650	18.8470
 1.8660	18.4920
 1.8670	18.1170
 1.8680	17.7270
 1.8690	17.3220
 1.8700	16.9020
 1.8710	16.4660
 1.8720	16.0230
 1.8730	15.5700
 1.8740	15.1070
 1.8750	14.6410
 1.8760	14.1690
 1.8770	13.6950
 1.8780	13.2260
 1.8790	12.7560
 1.8800	12.2960
 1.8810	11.8420
 1.8820	11.3940
 1.8830	10.9510
 1.8840	10.5200
 1.8850	10.0990
 1.8860	 9.6900
 1.8870	 9.2970
 1.8880	 8.9190
 1.8890	 8.5620
 1.8900	 8.2240
 1.8910	 7.9060
 1.8920	 7.6060
 1.8930	 7.3290
 1.8940	 7.0710
 1.8950	 6.8340
 1.8960	 6.6160
 1.8970	 6.4150
 1.8980	 6.2360
 1.8990	 6.0720
 1.9000	 5.9240
 1.9010	 5.7970
 1.9020	 5.6780
 1.9030	 5.5740
 1.9040	 5.4830
 1.9050	 5.4030
 1.9060	 5.3320
 1.9070	 5.2700
 1.9080	 5.2140
 1.9090	 5.1650
 1.9100	 5.1210
 1.9110	 5.0810
 1.9120	 5.0470
 1.9130	 5.0170
 1.9140	 4.9910
 1.9150	 4.9690
 1.9160	 4.9530
 1.9170	 4.9380
 1.9180	 4.9270
 1.9190	 4.9180
 1.9200	 4.9080
 1.9210	 4.9020
 1.9220	 4.8980
 1.9230	 4.8970
 1.9240	 4.8960
 1.9250	 4.8960
 1.9260	 4.8970
 1.9270	 4.9010
 1.9280	 4.9060
 1.9290	 4.9120
 1.9300	 4.9200
 1.9310	 4.9280
 1.9320	 4.9360
 1.9330	 4.9460
 1.9340	 4.9580
 1.9350	 4.9700
 1.9360	 4.9820
 1.9370	 4.9940
 1.9380	 5.0070
 1.9390	 5.0200
 1.9400	 5.0360
 1.9410	 5.0550
 1.9420	 5.0740
 1.9430	 5.0960
 1.9440	 5.1170
 1.9450	 5.1350
 1.9460	 5.1580
 1.9470	 5.1830
 1.9480	 5.2060
 1.9490	 5.2290
 1.9500	 5.2550
 1.9510	 5.2790
 1.9520	 5.3030
 1.9530	 5.3320
 1.9540	 5.3610
 1.9550	 5.3890
 1.9560	 5.4180
 1.9570	 5.4470
 1.9580	 5.4770
 1.9590	 5.5070
 1.9600	 5.5380
 1.9610	 5.5700
 1.9620	 5.6020
 1.9630	 5.6360
 1.9640	 5.6710
 1.9650	 5.7070
 1.9660	 5.7410
 1.9670	 5.7770
 1.9680	 5.8140
 1.9690	 5.8520
 1.9700	 5.8910
 1.9710	 5.9320
 1.9720	 5.9740
 1.9730	 6.0160
 1.9740	 6.0590
 1.9750	 6.1030
 1.9760	 6.1490
 1.9770	 6.1920
 1.9780	 6.2360
 1.9790	 6.2810
 1.9800	 6.3260
 1.9810	 6.3730
 1.9820	 6.4220
 1.9830	 6.4710
 1.9840	 6.5210
 1.9850	 6.5710
 1.9860	 6.6220
 1.9870	 6.6720
 1.9880	 6.7220
 1.9890	 6.7740
 1.9900	 6.8250
 1.9910	 6.8770
 1.9920	 6.9290
 1.9930	 6.9810
 1.9940	 7.0340
 1.9950	 7.0900
 1.9960	 7.1460
 1.9970	 7.2040
 1.9980	 7.2610
 1.9990	 7.3180
 2.0000	 7.3720
 2.0010	 7.4270
 2.0020	 7.4830
 2.0030	 7.5380
 2.0040	 7.5930
 2.0050	 7.6500
 2.0060	 7.7080
 2.0070	 7.7640
 2.0080	 7.8230
 2.0090	 7.8790
 2.0100	 7.9330
 2.0110	 7.9880
 2.0120	 8.0430
 2.0130	 8.0970
 2.0140	 8.1530
 2.0150	 8.2090
 2.0160	 8.2630
 2.0170	 8.3170
 2.0180	 8.3700
 2.0190	 8.4190
 2.0200	 8.4700
 2.0210	 8.5210
 2.0220	 8.5710
 2.0230	 8.6240
 2.0240	 8.6740
 2.0250	 8.7230
 2.0260	 8.7710
 2.0270	 8.8180
 2.0280	 8.8660
 2.0290	 8.9130
 2.0300	 8.9590
 2.0310	 9.0040
 2.0320	 9.0460
 2.0330	 9.0900
 2.0340	 9.1340
 2.0350	 9.1770
 2.0360	 9.2190
 2.0370	 9.2590
 2.0380	 9.2970
 2.0390	 9.3360
 2.0400	 9.3770
 2.0410	 9.4150
 2.0420	 9.4510
 2.0430	 9.4890
 2.0440	 9.5260
 2.0450	 9.5630
 2.0460	 9.5990
 2.0470	 9.6360
 2.0480	 9.6710
 2.0490	 9.7040
 2.0500	 9.7400
 2.0510	 9.7780
 2.0520	 9.8140
 2.0530	 9.8510
 2.0540	 9.8880
 2.0550	 9.9240
 2.0560	 9.9570
 2.0570	 9.9950
 2.0580	10.0350
 2.0590	10.0730
 2.0600	10.1120
 2.0610	10.1490
 2.0620	10.1850
 2.0630	10.2230
 2.0640	10.2620
 2.0650	10.3020
 2.0660	10.3440
 2.0670	10.3850
 2.0680	10.4250
 2.0690	10.4650
 2.0700	10.5010
 2.0710	10.5400
 2.0720	10.5790
 2.0730	10.6200
 2.0740	10.6610
 2.0750	10.7040
 2.0760	10.7440
 2.0770	10.7840
 2.0780	10.8220
 2.0790	10.8580
 2.0800	10.8950
 2.0810	10.9290
 2.0820	10.9660
 2.0830	11.0040
 2.0840	11.0420
 2.0850	11.0830
 2.0860	11.1220
 2.0870	11.1610
 2.0880	11.1970
 2.0890	11.2340
 2.0900	11.2700
 2.0910	11.3060
 2.0920	11.3410
 2.0930	11.3750
 2.0940	11.4070
 2.0950	11.4410
 2.0960	11.4760
 2.0970	11.5090
 2.0980	11.5430
 2.0990	11.5770
 2.1000	11.6090
 2.1010	11.6420
 2.1020	11.6760
 2.1030	11.7090
 2.1040	11.7420
 2.1050	11.7750
 2.1060	11.8060
 2.1070	11.8360
 2.1080	11.8680
 2.1090	11.9000
 2.1100	11.9320
 2.1110	11.9640
 2.1120	11.9960
 2.1130	12.0280
 2.1140	12.0590
 2.1150	12.0900
 2.1160	12.1210
 2.1170	12.1490
 2.1180	12.1790
 2.1190	12.2080
 2.1200	12.2360
 2.1210	12.2630
 2.1220	12.2890
 2.1230	12.3160
 2.1240	12.3410
 2.1250	12.3690
 2.1260	12.3990
 2.1270	12.4250
 2.1280	12.4490
 2.1290	12.4740
 2.1300	12.4960
 2.1310	12.5190
 2.1320	12.5450
 2.1330	12.5660
 2.1340	12.5840
 2.1350	12.6030
 2.1360	12.6200
 2.1370	12.6380
 2.1380	12.6570
 2.1390	12.6770
 2.1400	12.6950
 2.1410	12.7160
 2.1420	12.7350
 2.1430	12.7550
 2.1440	12.7740
 2.1450	12.7920
 2.1460	12.8100
 2.1470	12.8250
 2.1480	12.8430
 2.1490	12.8620
 2.1500	12.8780
 2.1510	12.8950
 2.1520	12.9110
 2.1530	12.9230
 2.1540	12.9370
 2.1550	12.9520
 2.1560	12.9650
 2.1570	12.9770
 2.1580	12.9910
 2.1590	13.0050
 2.1600	13.0170
 2.1610	13.0310
 2.1620	13.0440
 2.1630	13.0570
 2.1640	13.0670
 2.1650	13.0790
 2.1660	13.0900
 2.1670	13.1040
 2.1680	13.1200
 2.1690	13.1340
 2.1700	13.1490
 2.1710	13.1630
 2.1720	13.1740
 2.1730	13.1880
 2.1740	13.2040
 2.1750	13.2210
 2.1760	13.2420
 2.1770	13.2610
 2.1780	13.2800
 2.1790	13.2990
 2.1800	13.3170
 2.1810	13.3360
 2.1820	13.3570
 2.1830	13.3780
 2.1840	13.3960
 2.1850	13.4120
 2.1860	13.4330
 2.1870	13.4550
 2.1880	13.4770
 2.1890	13.5060
 2.1900	13.5280
 2.1910	13.5470
 2.1920	13.5670
 2.1930	13.5850
 2.1940	13.6030
 2.1950	13.6210
 2.1960	13.6390
 2.1970	13.6590
 2.1980	13.6780
 2.1990	13.7000
 2.2000	13.7200
 2.2010	13.7400
 2.2020	13.7600
 2.2030	13.7810
 2.2040	13.7990
 2.2050	13.8150
 2.2060	13.8290
 2.2070	13.8430
 2.2080	13.8540
 2.2090	13.8680
 2.2100	13.8850
 2.2110	13.8960
 2.2120	13.9030
 2.2130	13.9120
 2.2140	13.9200
 2.2150	13.9280
 2.2160	13.9420
 2.2170	13.9480
 2.2180	13.9500
 2.2190	13.9520
 2.2200	13.9490
 2.2210	13.9510
 2.2220	13.9570
 2.2230	13.9560
 2.2240	13.9550
 2.2250	13.9520
 2.2260	13.9450
 2.2270	13.9350
 2.2280	13.9230
 2.2290	13.9100
 2.2300	13.8940
 2.2310	13.8760
 2.2320	13.8540
 2.2330	13.8320
 2.2340	13.8090
 2.2350	13.7830
 2.2360	13.7560
 2.2370	13.7330
 2.2380	13.6990
 2.2390	13.6570
 2.2400	13.6200
 2.2410	13.5800
 2.2420	13.5400
 2.2430	13.5010
 2.2440	13.4590
 2.2450	13.4120
 2.2460	13.3690
 2.2470	13.3300
 2.2480	13.2870
 2.2490	13.2440
 2.2500	13.1990
 2.2510	13.1490
 2.2520	13.1020
 2.2530	13.0580
 2.2540	13.0090
 2.2550	12.9600
 2.2560	12.9110
 2.2570	12.8590
 2.2580	12.8080
 2.2590	12.7550
 2.2600	12.7050
 2.2610	12.6540
 2.2620	12.6070
 2.2630	12.5650
 2.2640	12.5270
 2.2650	12.4860
 2.2660	12.4430
 2.2670	12.3950
 2.2680	12.3400
 2.2690	12.2910
 2.2700	12.2410
 2.2710	12.1930
 2.2720	12.1490
 2.2730	12.1040
 2.2740	12.0600
 2.2750	12.0180
 2.2760	11.9800
 2.2770	11.9400
 2.2780	11.9010
 2.2790	11.8630
 2.2800	11.8280
 2.2810	11.7900
 2.2820	11.7510
 2.2830	11.7140
 2.2840	11.6750
 2.2850	11.6370
 2.2860	11.6030
 2.2870	11.5650
 2.2880	11.5250
 2.2890	11.4850
 2.2900	11.4420
 2.2910	11.4020
 2.2920	11.3640
 2.2930	11.3270
 2.2940	11.2930
 2.2950	11.2570
 2.2960	11.2190
 2.2970	11.1800
 2.2980	11.1390
 2.2990	11.0970
 2.3000	11.0590
 2.3010	11.0190
 2.3020	10.9800
 2.3030	10.9470
 2.3040	10.9090
 2.3050	10.8730
 2.3060	10.8340
 2.3070	10.7940
 2.3080	10.7590
 2.3090	10.7250
 2.3100	10.6960
 2.3110	10.6710
 2.3120	10.6430
 2.3130	10.6120
 2.3140	10.5880
 2.3150	10.5640
 2.3160	10.5430
 2.3170	10.5300
 2.3180	10.5110
 2.3190	10.4900
 2.3200	10.4660
 2.3210	10.4360
 2.3220	10.4080
 2.3230	10.3770
 2.3240	10.3490
 2.3250	10.3240
 2.3260	10.2950
 2.3270	10.2650
 2.3280	10.2310
 2.3290	10.1930
 2.3300	10.1580
 2.3310	10.1230
 2.3320	10.0890
 2.3330	10.0600
 2.3340	10.0230
 2.3350	 9.9790
 2.3360	 9.9420
 2.3370	 9.9050
 2.3380	 9.8660
 2.3390	 9.8310
 2.3400	 9.7940
 2.3410	 9.7520
 2.3420	 9.7130
 2.3430	 9.6760
 2.3440	 9.6420
 2.3450	 9.6090
 2.3460	 9.5780
 2.3470	 9.5550
 2.3480	 9.5250
 2.3490	 9.4920
 2.3500	 9.4620
 2.3510	 9.4290
 2.3520	 9.3970
 2.3530	 9.3670
 2.3540	 9.3380
 2.3550	 9.3010
 2.3560	 9.2760
 2.3570	 9.2510
 2.3580	 9.2250
 2.3590	 9.2050
 2.3600	 9.1820
 2.3610	 9.1520
 2.3620	 9.1190
 2.3630	 9.0870
 2.3640	 9.0560
 2.3650	 9.0300
 2.3660	 9.0110
 2.3670	 8.9880
 2.3680	 8.9600
 2.3690	 8.9350
 2.3700	 8.9040
 2.3710	 8.8620
 2.3720	 8.8210
 2.3730	 8.7800
 2.3740	 8.7430
 2.3750	 8.7100
 2.3760	 8.6800
 2.3770	 8.6510
 2.3780	 8.6260
 2.3790	 8.6010
 2.3800	 8.5690
 2.3810	 8.5330
 2.3820	 8.4850
 2.3830	 8.4490
 2.3840	 8.4240
 2.3850	 8.3890
 2.3860	 8.3530
 2.3870	 8.3120
 2.3880	 8.2700
 2.3890	 8.2330
 2.3900	 8.1970
 2.3910	 8.1600
 2.3920	 8.1220
 2.3930	 8.0800
 2.3940	 8.0400
 2.3950	 8.0120
 2.3960	 7.9810
 2.3970	 7.9480
 2.3980	 7.9240
 2.3990	 7.8960
 2.4000	 7.8560
 2.4010	 7.8150
 2.4020	 7.7800
 2.4030	 7.7450
 2.4040	 7.7080
 2.4050	 7.6700
 2.4060	 7.6250
 2.4070	 7.5770
 2.4080	 7.5290
 2.4090	 7.4880
 2.4100	 7.4690
 2.4110	 7.4440
 2.4120	 7.4090
 2.4130	 7.3750
 2.4140	 7.3330
 2.4150	 7.3020
 2.4160	 7.2740
 2.4170	 7.2370
 2.4180	 7.2000
 2.4190	 7.1530
 2.4200	 7.1050
 2.4210	 7.0690
 2.4220	 7.0280
 2.4230	 6.9860
 2.4240	 6.9500
 2.4250	 6.9100
 2.4260	 6.8760
 2.4270	 6.8390
 2.4280	 6.7840
 2.4290	 6.7350
 2.4300	 6.6930
 2.4310	 6.6620
 2.4320	 6.6430
 2.4330	 6.6260
 2.4340	 6.6000
 2.4350	 6.5600
 2.4360	 6.5300
 2.4370	 6.5010
 2.4380	 6.4730
 2.4390	 6.4620
 2.4400	 6.4380
 2.4410	 6.4020
 2.4420	 6.3700
 2.4430	 6.3220
 2.4440	 6.2730
 2.4450	 6.2410
 2.4460	 6.2020
 2.4470	 6.1730
 2.4480	 6.1550
 2.4490	 6.1230
 2.4500	 6.1020
 2.4510	 6.0680
 2.4520	 6.0180
 2.4530	 5.9760
 2.4540	 5.9280
 2.4550	 5.8900
 2.4560	 5.8630
 2.4570	 5.8390
 2.4580	 5.8150
 2.4590	 5.7970
 2.4600	 5.7910
 2.4610	 5.7720
 2.4620	 5.7590
 2.4630	 5.7480
 2.4640	 5.7080
 2.4650	 5.6830
 2.4660	 5.6590
 2.4670	 5.6220
 2.4680	 5.6090
 2.4690	 5.5850
 2.4700	 5.5660
 2.4710	 5.5580
 2.4720	 5.5280
 2.4730	 5.4860
 2.4740	 5.4490
 2.4750	 5.3890
 2.4760	 5.3610
 2.4770	 5.3490
 2.4780	 5.3410
 2.4790	 5.3560
 2.4800	 5.3450
 2.4810	 5.3280
 2.4820	 5.2950
 2.4830	 5.2850
 2.4840	 5.2710
 2.4850	 5.2650
 2.4860	 5.2760
 2.4870	 5.2680
 2.4880	 5.2550
 2.4890	 5.2390
 2.4900	 5.2320
 2.4910	 5.2070
 2.4920	 5.1630
 2.4930	 5.1300
 2.4940	 5.1470
 2.4950	 5.1650
 2.4960	 5.1620
 2.4970	 5.2010
 2.4980	 5.1930
 2.4990	 5.1330
 2.5000	 5.1100
