Name: Ceanothus spinosus 3
Type: vegetation
Class: Shrub
Genus: Ceanothus
Species: spinosus
Sample No.: VH131
Owner: UCSB
Wavelength Range: VSWIR
Origin: 34.4906; -119.7908; WGS84
Collection Date: 6/3/2013
Description: Samples were collected as part of the HyspIRI Airborne Campaign. 48 individual plants were sampled in three times in 2013 - spring  summer  and fall. The name of the sample includes a 1  2  or 3 which references a different individual of the species. Samples were taken to JPL and processed within 48 hours of collection. The same leaves were processed in the Nicolet and then measured using the ASD.
Measurement: Bidirectional reflectance
First Column: X
Second Column: Y
X Units: Wavelength (micrometers)
Y Units: Reflectance (percentage)
First X Value: 0.35
Last X Value: 2.5
Number of X Values: 2151
Additional Information: vegetation.shrub.ceanothus.spinosus.vswir.vh131.ucsb.asd.ancillary.txt

 0.3500	11.2530
 0.3510	11.2960
 0.3520	11.2970
 0.3530	11.2270
 0.3540	11.1600
 0.3550	11.2660
 0.3560	11.3410
 0.3570	11.3450
 0.3580	11.3310
 0.3590	11.2850
 0.3600	11.1930
 0.3610	11.0930
 0.3620	11.0930
 0.3630	11.0800
 0.3640	11.0870
 0.3650	11.1460
 0.3660	11.1590
 0.3670	11.1750
 0.3680	11.1560
 0.3690	11.0320
 0.3700	11.0480
 0.3710	11.0790
 0.3720	11.0370
 0.3730	11.0040
 0.3740	10.8980
 0.3750	10.8750
 0.3760	11.0490
 0.3770	10.9920
 0.3780	10.9260
 0.3790	10.9150
 0.3800	10.8680
 0.3810	10.8720
 0.3820	10.9400
 0.3830	11.0260
 0.3840	10.9850
 0.3850	10.9140
 0.3860	10.8600
 0.3870	10.8440
 0.3880	10.8520
 0.3890	10.8560
 0.3900	10.8630
 0.3910	10.9050
 0.3920	10.8850
 0.3930	10.8550
 0.3940	10.8580
 0.3950	10.8390
 0.3960	10.8040
 0.3970	10.7850
 0.3980	10.8120
 0.3990	10.8310
 0.4000	10.8430
 0.4010	10.8400
 0.4020	10.8000
 0.4030	10.7510
 0.4040	10.7420
 0.4050	10.7900
 0.4060	10.7860
 0.4070	10.7690
 0.4080	10.7670
 0.4090	10.7940
 0.4100	10.8190
 0.4110	10.8300
 0.4120	10.8320
 0.4130	10.8590
 0.4140	10.8780
 0.4150	10.8970
 0.4160	10.9360
 0.4170	10.9760
 0.4180	10.9940
 0.4190	11.0070
 0.4200	11.0680
 0.4210	11.1050
 0.4220	11.1200
 0.4230	11.1290
 0.4240	11.1470
 0.4250	11.1810
 0.4260	11.2260
 0.4270	11.2670
 0.4280	11.2910
 0.4290	11.3030
 0.4300	11.3120
 0.4310	11.3220
 0.4320	11.3270
 0.4330	11.3340
 0.4340	11.3510
 0.4350	11.3630
 0.4360	11.3820
 0.4370	11.4050
 0.4380	11.4150
 0.4390	11.4320
 0.4400	11.4600
 0.4410	11.4910
 0.4420	11.5050
 0.4430	11.5170
 0.4440	11.5310
 0.4450	11.5440
 0.4460	11.5500
 0.4470	11.5700
 0.4480	11.6000
 0.4490	11.6120
 0.4500	11.6270
 0.4510	11.6380
 0.4520	11.6390
 0.4530	11.6650
 0.4540	11.6680
 0.4550	11.6580
 0.4560	11.6790
 0.4570	11.6970
 0.4580	11.7000
 0.4590	11.6910
 0.4600	11.6930
 0.4610	11.7000
 0.4620	11.7050
 0.4630	11.7050
 0.4640	11.7010
 0.4650	11.7060
 0.4660	11.7110
 0.4670	11.6960
 0.4680	11.6930
 0.4690	11.6990
 0.4700	11.7050
 0.4710	11.7040
 0.4720	11.7000
 0.4730	11.7010
 0.4740	11.7150
 0.4750	11.7080
 0.4760	11.7000
 0.4770	11.7020
 0.4780	11.7080
 0.4790	11.7180
 0.4800	11.7220
 0.4810	11.7160
 0.4820	11.7180
 0.4830	11.7210
 0.4840	11.7240
 0.4850	11.7320
 0.4860	11.7390
 0.4870	11.7510
 0.4880	11.7710
 0.4890	11.7800
 0.4900	11.7890
 0.4910	11.8040
 0.4920	11.8220
 0.4930	11.8410
 0.4940	11.8630
 0.4950	11.8910
 0.4960	11.9200
 0.4970	11.9440
 0.4980	11.9760
 0.4990	12.0230
 0.5000	12.0590
 0.5010	12.0960
 0.5020	12.1410
 0.5030	12.1980
 0.5040	12.2580
 0.5050	12.3170
 0.5060	12.3770
 0.5070	12.4490
 0.5080	12.5280
 0.5090	12.6170
 0.5100	12.7200
 0.5110	12.8320
 0.5120	12.9490
 0.5130	13.0720
 0.5140	13.2020
 0.5150	13.3540
 0.5160	13.5190
 0.5170	13.6890
 0.5180	13.8620
 0.5190	14.0480
 0.5200	14.2460
 0.5210	14.4460
 0.5220	14.6480
 0.5230	14.8540
 0.5240	15.0660
 0.5250	15.2680
 0.5260	15.4650
 0.5270	15.6550
 0.5280	15.8330
 0.5290	16.0000
 0.5300	16.1590
 0.5310	16.3120
 0.5320	16.4480
 0.5330	16.5680
 0.5340	16.6760
 0.5350	16.7730
 0.5360	16.8620
 0.5370	16.9450
 0.5380	17.0180
 0.5390	17.0760
 0.5400	17.1340
 0.5410	17.1860
 0.5420	17.2270
 0.5430	17.2720
 0.5440	17.3130
 0.5450	17.3530
 0.5460	17.3960
 0.5470	17.4490
 0.5480	17.5030
 0.5490	17.5470
 0.5500	17.5670
 0.5510	17.5780
 0.5520	17.5820
 0.5530	17.5770
 0.5540	17.5580
 0.5550	17.5260
 0.5560	17.4820
 0.5570	17.4190
 0.5580	17.3410
 0.5590	17.2520
 0.5600	17.1570
 0.5610	17.0610
 0.5620	16.9590
 0.5630	16.8490
 0.5640	16.7300
 0.5650	16.5970
 0.5660	16.4560
 0.5670	16.3120
 0.5680	16.1700
 0.5690	16.0290
 0.5700	15.8870
 0.5710	15.7450
 0.5720	15.6080
 0.5730	15.4830
 0.5740	15.3750
 0.5750	15.2850
 0.5760	15.2130
 0.5770	15.1450
 0.5780	15.0730
 0.5790	14.9980
 0.5800	14.9260
 0.5810	14.8590
 0.5820	14.7970
 0.5830	14.7320
 0.5840	14.6610
 0.5850	14.5880
 0.5860	14.5280
 0.5870	14.4630
 0.5880	14.4030
 0.5890	14.3590
 0.5900	14.3350
 0.5910	14.3280
 0.5920	14.3240
 0.5930	14.3070
 0.5940	14.2850
 0.5950	14.2630
 0.5960	14.2440
 0.5970	14.2280
 0.5980	14.2060
 0.5990	14.1770
 0.6000	14.1450
 0.6010	14.1120
 0.6020	14.0770
 0.6030	14.0420
 0.6040	14.0090
 0.6050	13.9700
 0.6060	13.9250
 0.6070	13.8740
 0.6080	13.8170
 0.6090	13.7580
 0.6100	13.6920
 0.6110	13.6160
 0.6120	13.5560
 0.6130	13.5080
 0.6140	13.4620
 0.6150	13.4110
 0.6160	13.3650
 0.6170	13.3210
 0.6180	13.2760
 0.6190	13.2370
 0.6200	13.2010
 0.6210	13.1680
 0.6220	13.1420
 0.6230	13.1190
 0.6240	13.1010
 0.6250	13.0870
 0.6260	13.0700
 0.6270	13.0570
 0.6280	13.0480
 0.6290	13.0400
 0.6300	13.0320
 0.6310	13.0230
 0.6320	13.0150
 0.6330	13.0060
 0.6340	12.9910
 0.6350	12.9700
 0.6360	12.9450
 0.6370	12.9120
 0.6380	12.8750
 0.6390	12.8360
 0.6400	12.7930
 0.6410	12.7440
 0.6420	12.6920
 0.6430	12.6410
 0.6440	12.5940
 0.6450	12.5440
 0.6460	12.4940
 0.6470	12.4470
 0.6480	12.4070
 0.6490	12.3710
 0.6500	12.3370
 0.6510	12.3060
 0.6520	12.2830
 0.6530	12.2600
 0.6540	12.2350
 0.6550	12.2100
 0.6560	12.1830
 0.6570	12.1520
 0.6580	12.1200
 0.6590	12.0880
 0.6600	12.0540
 0.6610	12.0160
 0.6620	11.9800
 0.6630	11.9500
 0.6640	11.9250
 0.6650	11.9030
 0.6660	11.8800
 0.6670	11.8630
 0.6680	11.8540
 0.6690	11.8490
 0.6700	11.8480
 0.6710	11.8520
 0.6720	11.8570
 0.6730	11.8640
 0.6740	11.8760
 0.6750	11.8930
 0.6760	11.9150
 0.6770	11.9390
 0.6780	11.9640
 0.6790	11.9900
 0.6800	12.0180
 0.6810	12.0560
 0.6820	12.1000
 0.6830	12.1470
 0.6840	12.2030
 0.6850	12.2660
 0.6860	12.3390
 0.6870	12.4270
 0.6880	12.5360
 0.6890	12.6680
 0.6900	12.8300
 0.6910	13.0280
 0.6920	13.2730
 0.6930	13.5670
 0.6940	13.9140
 0.6950	14.3260
 0.6960	14.8050
 0.6970	15.3490
 0.6980	15.9560
 0.6990	16.6310
 0.7000	17.3640
 0.7010	18.1510
 0.7020	18.9880
 0.7030	19.8680
 0.7040	20.7790
 0.7050	21.7120
 0.7060	22.6710
 0.7070	23.6480
 0.7080	24.6410
 0.7090	25.6510
 0.7100	26.6660
 0.7110	27.6950
 0.7120	28.7350
 0.7130	29.7730
 0.7140	30.8150
 0.7150	31.8620
 0.7160	32.9100
 0.7170	33.9520
 0.7180	34.9900
 0.7190	36.0230
 0.7200	37.0470
 0.7210	38.0610
 0.7220	39.0590
 0.7230	40.0390
 0.7240	41.0000
 0.7250	41.9370
 0.7260	42.8510
 0.7270	43.7400
 0.7280	44.5910
 0.7290	45.4170
 0.7300	46.2140
 0.7310	46.9720
 0.7320	47.7000
 0.7330	48.3960
 0.7340	49.0590
 0.7350	49.6860
 0.7360	50.2830
 0.7370	50.8500
 0.7380	51.3840
 0.7390	51.8900
 0.7400	52.3650
 0.7410	52.8130
 0.7420	53.2350
 0.7430	53.6230
 0.7440	53.9850
 0.7450	54.3240
 0.7460	54.6360
 0.7470	54.9320
 0.7480	55.2020
 0.7490	55.4440
 0.7500	55.6780
 0.7510	55.8940
 0.7520	56.0890
 0.7530	56.2680
 0.7540	56.4330
 0.7550	56.5810
 0.7560	56.7140
 0.7570	56.8400
 0.7580	56.9530
 0.7590	57.0580
 0.7600	57.1600
 0.7610	57.2490
 0.7620	57.3250
 0.7630	57.3980
 0.7640	57.4730
 0.7650	57.5310
 0.7660	57.5880
 0.7670	57.6460
 0.7680	57.6960
 0.7690	57.7390
 0.7700	57.7760
 0.7710	57.8120
 0.7720	57.8520
 0.7730	57.8900
 0.7740	57.9210
 0.7750	57.9460
 0.7760	57.9720
 0.7770	58.0030
 0.7780	58.0340
 0.7790	58.0580
 0.7800	58.0820
 0.7810	58.1090
 0.7820	58.1350
 0.7830	58.1520
 0.7840	58.1750
 0.7850	58.1980
 0.7860	58.2150
 0.7870	58.2290
 0.7880	58.2460
 0.7890	58.2650
 0.7900	58.2820
 0.7910	58.2990
 0.7920	58.3130
 0.7930	58.3260
 0.7940	58.3380
 0.7950	58.3530
 0.7960	58.3670
 0.7970	58.3780
 0.7980	58.3900
 0.7990	58.3940
 0.8000	58.3970
 0.8010	58.4040
 0.8020	58.4040
 0.8030	58.4110
 0.8040	58.4210
 0.8050	58.4250
 0.8060	58.4280
 0.8070	58.4260
 0.8080	58.4230
 0.8090	58.4230
 0.8100	58.4190
 0.8110	58.4170
 0.8120	58.4190
 0.8130	58.4260
 0.8140	58.4200
 0.8150	58.4090
 0.8160	58.4040
 0.8170	58.3980
 0.8180	58.3970
 0.8190	58.3940
 0.8200	58.3840
 0.8210	58.3830
 0.8220	58.3830
 0.8230	58.3770
 0.8240	58.3660
 0.8250	58.3640
 0.8260	58.3570
 0.8270	58.3420
 0.8280	58.3330
 0.8290	58.3190
 0.8300	58.3100
 0.8310	58.3120
 0.8320	58.3110
 0.8330	58.3010
 0.8340	58.2890
 0.8350	58.2820
 0.8360	58.2810
 0.8370	58.2840
 0.8380	58.2840
 0.8390	58.2730
 0.8400	58.2730
 0.8410	58.2780
 0.8420	58.2790
 0.8430	58.2750
 0.8440	58.2720
 0.8450	58.2750
 0.8460	58.2840
 0.8470	58.2830
 0.8480	58.2860
 0.8490	58.2910
 0.8500	58.2940
 0.8510	58.2990
 0.8520	58.3020
 0.8530	58.3060
 0.8540	58.3100
 0.8550	58.3180
 0.8560	58.3220
 0.8570	58.3240
 0.8580	58.3310
 0.8590	58.3350
 0.8600	58.3440
 0.8610	58.3600
 0.8620	58.3650
 0.8630	58.3700
 0.8640	58.3690
 0.8650	58.3640
 0.8660	58.3810
 0.8670	58.3940
 0.8680	58.4000
 0.8690	58.4050
 0.8700	58.4160
 0.8710	58.4260
 0.8720	58.4360
 0.8730	58.4460
 0.8740	58.4560
 0.8750	58.4660
 0.8760	58.4780
 0.8770	58.4900
 0.8780	58.4970
 0.8790	58.5050
 0.8800	58.5140
 0.8810	58.5240
 0.8820	58.5280
 0.8830	58.5350
 0.8840	58.5500
 0.8850	58.5600
 0.8860	58.5670
 0.8870	58.5720
 0.8880	58.5790
 0.8890	58.5960
 0.8900	58.6040
 0.8910	58.6060
 0.8920	58.6150
 0.8930	58.6310
 0.8940	58.6370
 0.8950	58.6390
 0.8960	58.6510
 0.8970	58.6570
 0.8980	58.6620
 0.8990	58.6680
 0.9000	58.6690
 0.9010	58.6790
 0.9020	58.6930
 0.9030	58.7070
 0.9040	58.7170
 0.9050	58.7250
 0.9060	58.7270
 0.9070	58.7220
 0.9080	58.7200
 0.9090	58.7320
 0.9100	58.7470
 0.9110	58.7550
 0.9120	58.7540
 0.9130	58.7610
 0.9140	58.7710
 0.9150	58.7750
 0.9160	58.7740
 0.9170	58.7770
 0.9180	58.7860
 0.9190	58.7930
 0.9200	58.7890
 0.9210	58.7880
 0.9220	58.7900
 0.9230	58.7810
 0.9240	58.7770
 0.9250	58.7770
 0.9260	58.7720
 0.9270	58.7540
 0.9280	58.7390
 0.9290	58.7250
 0.9300	58.7100
 0.9310	58.6900
 0.9320	58.6630
 0.9330	58.6440
 0.9340	58.6350
 0.9350	58.6170
 0.9360	58.5970
 0.9370	58.5730
 0.9380	58.5430
 0.9390	58.5150
 0.9400	58.4810
 0.9410	58.4490
 0.9420	58.4230
 0.9430	58.3980
 0.9440	58.3600
 0.9450	58.3170
 0.9460	58.2750
 0.9470	58.2230
 0.9480	58.1690
 0.9490	58.1130
 0.9500	58.0520
 0.9510	57.9830
 0.9520	57.9270
 0.9530	57.8660
 0.9540	57.7840
 0.9550	57.7060
 0.9560	57.6360
 0.9570	57.5720
 0.9580	57.5080
 0.9590	57.4440
 0.9600	57.3830
 0.9610	57.3220
 0.9620	57.2620
 0.9630	57.2270
 0.9640	57.1920
 0.9650	57.1600
 0.9660	57.1380
 0.9670	57.1090
 0.9680	57.0700
 0.9690	57.0290
 0.9700	56.9990
 0.9710	57.0090
 0.9720	57.0010
 0.9730	56.9770
 0.9740	56.9560
 0.9750	56.9300
 0.9760	56.9250
 0.9770	56.9320
 0.9780	56.9270
 0.9790	56.9200
 0.9800	56.9100
 0.9810	56.9000
 0.9820	56.8950
 0.9830	56.9160
 0.9840	56.9300
 0.9850	56.9340
 0.9860	56.9380
 0.9870	56.9460
 0.9880	56.9700
 0.9890	57.0000
 0.9900	57.0160
 0.9910	57.0280
 0.9920	57.0690
 0.9930	57.1090
 0.9940	57.1500
 0.9950	57.1900
 0.9960	57.2310
 0.9970	57.2720
 0.9980	57.3120
 0.9990	57.3530
 1.0000	57.3940
 1.0010	57.4340
 1.0020	57.4750
 1.0030	57.5150
 1.0040	57.5560
 1.0050	57.5970
 1.0060	57.6370
 1.0070	57.6780
 1.0080	57.7180
 1.0090	57.7590
 1.0100	57.7590
 1.0110	57.7870
 1.0120	57.8120
 1.0130	57.8300
 1.0140	57.8540
 1.0150	57.8820
 1.0160	57.9110
 1.0170	57.9330
 1.0180	57.9530
 1.0190	57.9740
 1.0200	57.9930
 1.0210	58.0150
 1.0220	58.0380
 1.0230	58.0570
 1.0240	58.0710
 1.0250	58.0910
 1.0260	58.1110
 1.0270	58.1310
 1.0280	58.1550
 1.0290	58.1770
 1.0300	58.1990
 1.0310	58.2200
 1.0320	58.2420
 1.0330	58.2580
 1.0340	58.2730
 1.0350	58.2890
 1.0360	58.2970
 1.0370	58.3090
 1.0380	58.3260
 1.0390	58.3480
 1.0400	58.3650
 1.0410	58.3900
 1.0420	58.4060
 1.0430	58.4120
 1.0440	58.4240
 1.0450	58.4380
 1.0460	58.4530
 1.0470	58.4730
 1.0480	58.4890
 1.0490	58.5020
 1.0500	58.5150
 1.0510	58.5240
 1.0520	58.5350
 1.0530	58.5480
 1.0540	58.5640
 1.0550	58.5760
 1.0560	58.5860
 1.0570	58.5970
 1.0580	58.6070
 1.0590	58.6160
 1.0600	58.6260
 1.0610	58.6370
 1.0620	58.6490
 1.0630	58.6580
 1.0640	58.6690
 1.0650	58.6780
 1.0660	58.6830
 1.0670	58.6900
 1.0680	58.6980
 1.0690	58.7100
 1.0700	58.7150
 1.0710	58.7180
 1.0720	58.7220
 1.0730	58.7230
 1.0740	58.7270
 1.0750	58.7340
 1.0760	58.7400
 1.0770	58.7450
 1.0780	58.7480
 1.0790	58.7530
 1.0800	58.7550
 1.0810	58.7560
 1.0820	58.7540
 1.0830	58.7480
 1.0840	58.7440
 1.0850	58.7420
 1.0860	58.7370
 1.0870	58.7320
 1.0880	58.7290
 1.0890	58.7240
 1.0900	58.7170
 1.0910	58.7100
 1.0920	58.7060
 1.0930	58.6990
 1.0940	58.6920
 1.0950	58.6810
 1.0960	58.6680
 1.0970	58.6560
 1.0980	58.6440
 1.0990	58.6320
 1.1000	58.6220
 1.1010	58.6100
 1.1020	58.5960
 1.1030	58.5810
 1.1040	58.5660
 1.1050	58.5480
 1.1060	58.5300
 1.1070	58.5100
 1.1080	58.4920
 1.1090	58.4730
 1.1100	58.4540
 1.1110	58.4370
 1.1120	58.4150
 1.1130	58.3910
 1.1140	58.3640
 1.1150	58.3300
 1.1160	58.2990
 1.1170	58.2690
 1.1180	58.2370
 1.1190	58.2080
 1.1200	58.1740
 1.1210	58.1300
 1.1220	58.0850
 1.1230	58.0390
 1.1240	57.9900
 1.1250	57.9360
 1.1260	57.8810
 1.1270	57.8180
 1.1280	57.7480
 1.1290	57.6720
 1.1300	57.5920
 1.1310	57.5040
 1.1320	57.4070
 1.1330	57.3070
 1.1340	57.2030
 1.1350	57.0910
 1.1360	56.9730
 1.1370	56.8490
 1.1380	56.7160
 1.1390	56.5770
 1.1400	56.4330
 1.1410	56.2880
 1.1420	56.1380
 1.1430	55.9860
 1.1440	55.8340
 1.1450	55.6780
 1.1460	55.5250
 1.1470	55.3730
 1.1480	55.2250
 1.1490	55.0760
 1.1500	54.9380
 1.1510	54.8030
 1.1520	54.6790
 1.1530	54.5630
 1.1540	54.4550
 1.1550	54.3550
 1.1560	54.2670
 1.1570	54.1870
 1.1580	54.1110
 1.1590	54.0460
 1.1600	53.9880
 1.1610	53.9360
 1.1620	53.8940
 1.1630	53.8550
 1.1640	53.8230
 1.1650	53.7950
 1.1660	53.7740
 1.1670	53.7530
 1.1680	53.7390
 1.1690	53.7220
 1.1700	53.7070
 1.1710	53.6940
 1.1720	53.6820
 1.1730	53.6710
 1.1740	53.6600
 1.1750	53.6510
 1.1760	53.6430
 1.1770	53.6360
 1.1780	53.6250
 1.1790	53.6160
 1.1800	53.6030
 1.1810	53.5880
 1.1820	53.5810
 1.1830	53.5710
 1.1840	53.5600
 1.1850	53.5530
 1.1860	53.5400
 1.1870	53.5280
 1.1880	53.5170
 1.1890	53.5050
 1.1900	53.4970
 1.1910	53.4940
 1.1920	53.4910
 1.1930	53.4920
 1.1940	53.4930
 1.1950	53.4940
 1.1960	53.4970
 1.1970	53.5020
 1.1980	53.5100
 1.1990	53.5220
 1.2000	53.5320
 1.2010	53.5420
 1.2020	53.5530
 1.2030	53.5650
 1.2040	53.5800
 1.2050	53.5990
 1.2060	53.6180
 1.2070	53.6370
 1.2080	53.6560
 1.2090	53.6750
 1.2100	53.6960
 1.2110	53.7180
 1.2120	53.7410
 1.2130	53.7640
 1.2140	53.7860
 1.2150	53.8110
 1.2160	53.8360
 1.2170	53.8630
 1.2180	53.8900
 1.2190	53.9140
 1.2200	53.9380
 1.2210	53.9620
 1.2220	53.9880
 1.2230	54.0180
 1.2240	54.0430
 1.2250	54.0640
 1.2260	54.0890
 1.2270	54.1090
 1.2280	54.1330
 1.2290	54.1600
 1.2300	54.1810
 1.2310	54.2030
 1.2320	54.2240
 1.2330	54.2410
 1.2340	54.2600
 1.2350	54.2800
 1.2360	54.2990
 1.2370	54.3160
 1.2380	54.3350
 1.2390	54.3540
 1.2400	54.3710
 1.2410	54.3880
 1.2420	54.4050
 1.2430	54.4210
 1.2440	54.4360
 1.2450	54.4480
 1.2460	54.4620
 1.2470	54.4760
 1.2480	54.4890
 1.2490	54.5040
 1.2500	54.5160
 1.2510	54.5250
 1.2520	54.5330
 1.2530	54.5420
 1.2540	54.5500
 1.2550	54.5570
 1.2560	54.5650
 1.2570	54.5710
 1.2580	54.5770
 1.2590	54.5830
 1.2600	54.5870
 1.2610	54.5900
 1.2620	54.5920
 1.2630	54.5930
 1.2640	54.5900
 1.2650	54.5900
 1.2660	54.5890
 1.2670	54.5860
 1.2680	54.5830
 1.2690	54.5770
 1.2700	54.5700
 1.2710	54.5620
 1.2720	54.5530
 1.2730	54.5430
 1.2740	54.5310
 1.2750	54.5160
 1.2760	54.5020
 1.2770	54.4870
 1.2780	54.4710
 1.2790	54.4570
 1.2800	54.4390
 1.2810	54.4210
 1.2820	54.3990
 1.2830	54.3760
 1.2840	54.3550
 1.2850	54.3330
 1.2860	54.3090
 1.2870	54.2840
 1.2880	54.2580
 1.2890	54.2300
 1.2900	54.2030
 1.2910	54.1760
 1.2920	54.1490
 1.2930	54.1160
 1.2940	54.0810
 1.2950	54.0440
 1.2960	54.0050
 1.2970	53.9640
 1.2980	53.9200
 1.2990	53.8750
 1.3000	53.8260
 1.3010	53.7750
 1.3020	53.7230
 1.3030	53.6660
 1.3040	53.6030
 1.3050	53.5380
 1.3060	53.4700
 1.3070	53.3970
 1.3080	53.3220
 1.3090	53.2450
 1.3100	53.1610
 1.3110	53.0740
 1.3120	52.9840
 1.3130	52.8890
 1.3140	52.7920
 1.3150	52.6930
 1.3160	52.5900
 1.3170	52.4830
 1.3180	52.3720
 1.3190	52.2570
 1.3200	52.1360
 1.3210	52.0100
 1.3220	51.8800
 1.3230	51.7460
 1.3240	51.6050
 1.3250	51.4650
 1.3260	51.3240
 1.3270	51.1800
 1.3280	51.0340
 1.3290	50.8830
 1.3300	50.7300
 1.3310	50.5740
 1.3320	50.4160
 1.3330	50.2590
 1.3340	50.1010
 1.3350	49.9380
 1.3360	49.7750
 1.3370	49.6100
 1.3380	49.4420
 1.3390	49.2760
 1.3400	49.1140
 1.3410	48.9520
 1.3420	48.7920
 1.3430	48.6310
 1.3440	48.4720
 1.3450	48.3150
 1.3460	48.1600
 1.3470	48.0070
 1.3480	47.8570
 1.3490	47.7060
 1.3500	47.5560
 1.3510	47.4060
 1.3520	47.2570
 1.3530	47.1080
 1.3540	46.9600
 1.3550	46.8120
 1.3560	46.6650
 1.3570	46.5160
 1.3580	46.3670
 1.3590	46.2170
 1.3600	46.0620
 1.3610	45.9060
 1.3620	45.7480
 1.3630	45.5850
 1.3640	45.4160
 1.3650	45.2410
 1.3660	45.0600
 1.3670	44.8690
 1.3680	44.6680
 1.3690	44.4560
 1.3700	44.2310
 1.3710	43.9920
 1.3720	43.7410
 1.3730	43.4750
 1.3740	43.1930
 1.3750	42.8920
 1.3760	42.5680
 1.3770	42.2210
 1.3780	41.8500
 1.3790	41.4570
 1.3800	41.0430
 1.3810	40.6020
 1.3820	40.1430
 1.3830	39.6640
 1.3840	39.1660
 1.3850	38.6470
 1.3860	38.1140
 1.3870	37.5600
 1.3880	36.9990
 1.3890	36.4250
 1.3900	35.8410
 1.3910	35.2550
 1.3920	34.6620
 1.3930	34.0650
 1.3940	33.4710
 1.3950	32.8740
 1.3960	32.2850
 1.3970	31.7060
 1.3980	31.1350
 1.3990	30.5850
 1.4000	30.0490
 1.4010	29.5260
 1.4020	29.0260
 1.4030	28.5400
 1.4040	28.0740
 1.4050	27.6300
 1.4060	27.2060
 1.4070	26.8090
 1.4080	26.4330
 1.4090	26.0780
 1.4100	25.7460
 1.4110	25.4340
 1.4120	25.1420
 1.4130	24.8730
 1.4140	24.6200
 1.4150	24.3890
 1.4160	24.1760
 1.4170	23.9780
 1.4180	23.7970
 1.4190	23.6300
 1.4200	23.4760
 1.4210	23.3370
 1.4220	23.2100
 1.4230	23.0950
 1.4240	22.9910
 1.4250	22.8950
 1.4260	22.8110
 1.4270	22.7340
 1.4280	22.6640
 1.4290	22.6030
 1.4300	22.5510
 1.4310	22.5040
 1.4320	22.4680
 1.4330	22.4340
 1.4340	22.4060
 1.4350	22.3830
 1.4360	22.3660
 1.4370	22.3520
 1.4380	22.3430
 1.4390	22.3380
 1.4400	22.3360
 1.4410	22.3390
 1.4420	22.3430
 1.4430	22.3510
 1.4440	22.3610
 1.4450	22.3730
 1.4460	22.3870
 1.4470	22.4030
 1.4480	22.4190
 1.4490	22.4370
 1.4500	22.4570
 1.4510	22.4790
 1.4520	22.5010
 1.4530	22.5250
 1.4540	22.5500
 1.4550	22.5760
 1.4560	22.6050
 1.4570	22.6350
 1.4580	22.6700
 1.4590	22.7050
 1.4600	22.7450
 1.4610	22.7890
 1.4620	22.8360
 1.4630	22.8880
 1.4640	22.9440
 1.4650	23.0020
 1.4660	23.0660
 1.4670	23.1330
 1.4680	23.2070
 1.4690	23.2860
 1.4700	23.3710
 1.4710	23.4590
 1.4720	23.5510
 1.4730	23.6460
 1.4740	23.7430
 1.4750	23.8430
 1.4760	23.9480
 1.4770	24.0550
 1.4780	24.1630
 1.4790	24.2750
 1.4800	24.3870
 1.4810	24.5010
 1.4820	24.6170
 1.4830	24.7360
 1.4840	24.8550
 1.4850	24.9750
 1.4860	25.0950
 1.4870	25.2160
 1.4880	25.3360
 1.4890	25.4570
 1.4900	25.5780
 1.4910	25.7000
 1.4920	25.8220
 1.4930	25.9450
 1.4940	26.0670
 1.4950	26.1920
 1.4960	26.3150
 1.4970	26.4380
 1.4980	26.5610
 1.4990	26.6840
 1.5000	26.8070
 1.5010	26.9310
 1.5020	27.0530
 1.5030	27.1740
 1.5040	27.2950
 1.5050	27.4150
 1.5060	27.5350
 1.5070	27.6560
 1.5080	27.7760
 1.5090	27.8960
 1.5100	28.0140
 1.5110	28.1330
 1.5120	28.2510
 1.5130	28.3670
 1.5140	28.4840
 1.5150	28.5990
 1.5160	28.7110
 1.5170	28.8250
 1.5180	28.9380
 1.5190	29.0510
 1.5200	29.1650
 1.5210	29.2750
 1.5220	29.3840
 1.5230	29.4940
 1.5240	29.6020
 1.5250	29.7110
 1.5260	29.8180
 1.5270	29.9230
 1.5280	30.0290
 1.5290	30.1300
 1.5300	30.2330
 1.5310	30.3360
 1.5320	30.4370
 1.5330	30.5380
 1.5340	30.6390
 1.5350	30.7380
 1.5360	30.8370
 1.5370	30.9350
 1.5380	31.0330
 1.5390	31.1280
 1.5400	31.2210
 1.5410	31.3130
 1.5420	31.4050
 1.5430	31.4970
 1.5440	31.5890
 1.5450	31.6810
 1.5460	31.7700
 1.5470	31.8570
 1.5480	31.9440
 1.5490	32.0300
 1.5500	32.1170
 1.5510	32.2030
 1.5520	32.2870
 1.5530	32.3690
 1.5540	32.4500
 1.5550	32.5310
 1.5560	32.6100
 1.5570	32.6900
 1.5580	32.7700
 1.5590	32.8470
 1.5600	32.9240
 1.5610	33.0000
 1.5620	33.0740
 1.5630	33.1490
 1.5640	33.2250
 1.5650	33.2970
 1.5660	33.3680
 1.5670	33.4390
 1.5680	33.5090
 1.5690	33.5790
 1.5700	33.6500
 1.5710	33.7180
 1.5720	33.7840
 1.5730	33.8510
 1.5740	33.9170
 1.5750	33.9840
 1.5760	34.0500
 1.5770	34.1140
 1.5780	34.1790
 1.5790	34.2420
 1.5800	34.3060
 1.5810	34.3710
 1.5820	34.4330
 1.5830	34.4940
 1.5840	34.5570
 1.5850	34.6170
 1.5860	34.6780
 1.5870	34.7400
 1.5880	34.7990
 1.5890	34.8580
 1.5900	34.9180
 1.5910	34.9770
 1.5920	35.0350
 1.5930	35.0930
 1.5940	35.1490
 1.5950	35.2040
 1.5960	35.2600
 1.5970	35.3180
 1.5980	35.3740
 1.5990	35.4290
 1.6000	35.4840
 1.6010	35.5350
 1.6020	35.5860
 1.6030	35.6390
 1.6040	35.6900
 1.6050	35.7410
 1.6060	35.7920
 1.6070	35.8410
 1.6080	35.8880
 1.6090	35.9360
 1.6100	35.9820
 1.6110	36.0290
 1.6120	36.0740
 1.6130	36.1190
 1.6140	36.1630
 1.6150	36.2060
 1.6160	36.2490
 1.6170	36.2910
 1.6180	36.3330
 1.6190	36.3750
 1.6200	36.4160
 1.6210	36.4560
 1.6220	36.4950
 1.6230	36.5300
 1.6240	36.5660
 1.6250	36.6010
 1.6260	36.6360
 1.6270	36.6720
 1.6280	36.7070
 1.6290	36.7400
 1.6300	36.7730
 1.6310	36.8040
 1.6320	36.8350
 1.6330	36.8640
 1.6340	36.8930
 1.6350	36.9190
 1.6360	36.9410
 1.6370	36.9620
 1.6380	36.9810
 1.6390	36.9980
 1.6400	37.0140
 1.6410	37.0270
 1.6420	37.0370
 1.6430	37.0450
 1.6440	37.0500
 1.6450	37.0510
 1.6460	37.0510
 1.6470	37.0490
 1.6480	37.0450
 1.6490	37.0390
 1.6500	37.0300
 1.6510	37.0200
 1.6520	37.0090
 1.6530	36.9980
 1.6540	36.9870
 1.6550	36.9730
 1.6560	36.9590
 1.6570	36.9420
 1.6580	36.9250
 1.6590	36.9110
 1.6600	36.8980
 1.6610	36.8860
 1.6620	36.8760
 1.6630	36.8680
 1.6640	36.8620
 1.6650	36.8570
 1.6660	36.8520
 1.6670	36.8470
 1.6680	36.8440
 1.6690	36.8410
 1.6700	36.8380
 1.6710	36.8360
 1.6720	36.8340
 1.6730	36.8300
 1.6740	36.8280
 1.6750	36.8220
 1.6760	36.8150
 1.6770	36.8070
 1.6780	36.7960
 1.6790	36.7860
 1.6800	36.7740
 1.6810	36.7600
 1.6820	36.7470
 1.6830	36.7300
 1.6840	36.7110
 1.6850	36.6910
 1.6860	36.6650
 1.6870	36.6380
 1.6880	36.6080
 1.6890	36.5760
 1.6900	36.5460
 1.6910	36.5170
 1.6920	36.4860
 1.6930	36.4580
 1.6940	36.4270
 1.6950	36.3930
 1.6960	36.3600
 1.6970	36.3270
 1.6980	36.2920
 1.6990	36.2590
 1.7000	36.2240
 1.7010	36.1880
 1.7020	36.1510
 1.7030	36.1110
 1.7040	36.0710
 1.7050	36.0300
 1.7060	35.9880
 1.7070	35.9440
 1.7080	35.9010
 1.7090	35.8560
 1.7100	35.8110
 1.7110	35.7660
 1.7120	35.7190
 1.7130	35.6710
 1.7140	35.6220
 1.7150	35.5730
 1.7160	35.5250
 1.7170	35.4750
 1.7180	35.4260
 1.7190	35.3750
 1.7200	35.3220
 1.7210	35.2700
 1.7220	35.2150
 1.7230	35.1600
 1.7240	35.1020
 1.7250	35.0450
 1.7260	34.9900
 1.7270	34.9360
 1.7280	34.8820
 1.7290	34.8300
 1.7300	34.7770
 1.7310	34.7250
 1.7320	34.6770
 1.7330	34.6280
 1.7340	34.5820
 1.7350	34.5330
 1.7360	34.4840
 1.7370	34.4350
 1.7380	34.3830
 1.7390	34.3330
 1.7400	34.2830
 1.7410	34.2340
 1.7420	34.1850
 1.7430	34.1360
 1.7440	34.0870
 1.7450	34.0390
 1.7460	33.9910
 1.7470	33.9440
 1.7480	33.8970
 1.7490	33.8500
 1.7500	33.8020
 1.7510	33.7530
 1.7520	33.7030
 1.7530	33.6550
 1.7540	33.6080
 1.7550	33.5610
 1.7560	33.5130
 1.7570	33.4630
 1.7580	33.4140
 1.7590	33.3660
 1.7600	33.3170
 1.7610	33.2700
 1.7620	33.2230
 1.7630	33.1740
 1.7640	33.1270
 1.7650	33.0810
 1.7660	33.0370
 1.7670	32.9950
 1.7680	32.9530
 1.7690	32.9110
 1.7700	32.8700
 1.7710	32.8280
 1.7720	32.7880
 1.7730	32.7490
 1.7740	32.7120
 1.7750	32.6780
 1.7760	32.6430
 1.7770	32.6100
 1.7780	32.5770
 1.7790	32.5420
 1.7800	32.5130
 1.7810	32.4880
 1.7820	32.4620
 1.7830	32.4370
 1.7840	32.4120
 1.7850	32.3860
 1.7860	32.3630
 1.7870	32.3430
 1.7880	32.3240
 1.7890	32.3070
 1.7900	32.2960
 1.7910	32.2830
 1.7920	32.2700
 1.7930	32.2590
 1.7940	32.2470
 1.7950	32.2380
 1.7960	32.2340
 1.7970	32.2300
 1.7980	32.2290
 1.7990	32.2270
 1.8000	32.2240
 1.8010	32.2230
 1.8020	32.2240
 1.8030	32.2230
 1.8040	32.2250
 1.8050	32.2250
 1.8060	32.2250
 1.8070	32.2260
 1.8080	32.2300
 1.8090	32.2320
 1.8100	32.2320
 1.8110	32.2330
 1.8120	32.2330
 1.8130	32.2360
 1.8140	32.2380
 1.8150	32.2390
 1.8160	32.2380
 1.8170	32.2370
 1.8180	32.2340
 1.8190	32.2330
 1.8200	32.2300
 1.8210	32.2260
 1.8220	32.2210
 1.8230	32.2100
 1.8240	32.2030
 1.8250	32.1980
 1.8260	32.1910
 1.8270	32.1410
 1.8280	32.0900
 1.8290	32.0390
 1.8300	31.9880
 1.8310	31.9380
 1.8320	31.8870
 1.8330	31.8360
 1.8340	31.7850
 1.8350	31.7850
 1.8360	31.7470
 1.8370	31.7070
 1.8380	31.6590
 1.8390	31.6080
 1.8400	31.5600
 1.8410	31.5000
 1.8420	31.4320
 1.8430	31.3630
 1.8440	31.2830
 1.8450	31.1960
 1.8460	31.1090
 1.8470	31.0140
 1.8480	30.9110
 1.8490	30.7990
 1.8500	30.6740
 1.8510	30.5360
 1.8520	30.3890
 1.8530	30.2340
 1.8540	30.0670
 1.8550	29.8880
 1.8560	29.6950
 1.8570	29.4860
 1.8580	29.2640
 1.8590	29.0310
 1.8600	28.7860
 1.8610	28.5270
 1.8620	28.2490
 1.8630	27.9570
 1.8640	27.6490
 1.8650	27.3200
 1.8660	26.9760
 1.8670	26.6140
 1.8680	26.2310
 1.8690	25.8310
 1.8700	25.4150
 1.8710	24.9820
 1.8720	24.5380
 1.8730	24.0790
 1.8740	23.6090
 1.8750	23.1310
 1.8760	22.6410
 1.8770	22.1480
 1.8780	21.6520
 1.8790	21.1470
 1.8800	20.6490
 1.8810	20.1520
 1.8820	19.6560
 1.8830	19.1620
 1.8840	18.6790
 1.8850	18.1970
 1.8860	17.7190
 1.8870	17.2560
 1.8880	16.8050
 1.8890	16.3730
 1.8900	15.9610
 1.8910	15.5670
 1.8920	15.1890
 1.8930	14.8330
 1.8940	14.4950
 1.8950	14.1800
 1.8960	13.8890
 1.8970	13.6210
 1.8980	13.3750
 1.8990	13.1480
 1.9000	12.9380
 1.9010	12.7470
 1.9020	12.5720
 1.9030	12.4150
 1.9040	12.2760
 1.9050	12.1520
 1.9060	12.0410
 1.9070	11.9420
 1.9080	11.8530
 1.9090	11.7770
 1.9100	11.7100
 1.9110	11.6500
 1.9120	11.6020
 1.9130	11.5570
 1.9140	11.5180
 1.9150	11.4840
 1.9160	11.4570
 1.9170	11.4300
 1.9180	11.4040
 1.9190	11.3790
 1.9200	11.3590
 1.9210	11.3460
 1.9220	11.3370
 1.9230	11.3360
 1.9240	11.3340
 1.9250	11.3350
 1.9260	11.3360
 1.9270	11.3380
 1.9280	11.3440
 1.9290	11.3520
 1.9300	11.3600
 1.9310	11.3730
 1.9320	11.3880
 1.9330	11.4020
 1.9340	11.4180
 1.9350	11.4330
 1.9360	11.4470
 1.9370	11.4630
 1.9380	11.4790
 1.9390	11.4980
 1.9400	11.5210
 1.9410	11.5460
 1.9420	11.5710
 1.9430	11.6020
 1.9440	11.6300
 1.9450	11.6560
 1.9460	11.6840
 1.9470	11.7140
 1.9480	11.7440
 1.9490	11.7730
 1.9500	11.8050
 1.9510	11.8400
 1.9520	11.8740
 1.9530	11.9060
 1.9540	11.9430
 1.9550	11.9800
 1.9560	12.0170
 1.9570	12.0560
 1.9580	12.0990
 1.9590	12.1420
 1.9600	12.1860
 1.9610	12.2300
 1.9620	12.2780
 1.9630	12.3250
 1.9640	12.3700
 1.9650	12.4150
 1.9660	12.4620
 1.9670	12.5100
 1.9680	12.5580
 1.9690	12.6070
 1.9700	12.6580
 1.9710	12.7100
 1.9720	12.7630
 1.9730	12.8160
 1.9740	12.8740
 1.9750	12.9270
 1.9760	12.9810
 1.9770	13.0380
 1.9780	13.0920
 1.9790	13.1490
 1.9800	13.2090
 1.9810	13.2690
 1.9820	13.3300
 1.9830	13.3930
 1.9840	13.4560
 1.9850	13.5190
 1.9860	13.5840
 1.9870	13.6500
 1.9880	13.7140
 1.9890	13.7800
 1.9900	13.8450
 1.9910	13.9090
 1.9920	13.9750
 1.9930	14.0450
 1.9940	14.1130
 1.9950	14.1830
 1.9960	14.2510
 1.9970	14.3180
 1.9980	14.3860
 1.9990	14.4520
 2.0000	14.5200
 2.0010	14.5860
 2.0020	14.6520
 2.0030	14.7190
 2.0040	14.7850
 2.0050	14.8530
 2.0060	14.9230
 2.0070	14.9930
 2.0080	15.0650
 2.0090	15.1320
 2.0100	15.1950
 2.0110	15.2600
 2.0120	15.3240
 2.0130	15.3870
 2.0140	15.4520
 2.0150	15.5170
 2.0160	15.5800
 2.0170	15.6420
 2.0180	15.7040
 2.0190	15.7640
 2.0200	15.8250
 2.0210	15.8870
 2.0220	15.9450
 2.0230	16.0000
 2.0240	16.0560
 2.0250	16.1100
 2.0260	16.1640
 2.0270	16.2210
 2.0280	16.2760
 2.0290	16.3280
 2.0300	16.3770
 2.0310	16.4270
 2.0320	16.4750
 2.0330	16.5220
 2.0340	16.5710
 2.0350	16.6140
 2.0360	16.6500
 2.0370	16.6900
 2.0380	16.7290
 2.0390	16.7680
 2.0400	16.8120
 2.0410	16.8520
 2.0420	16.8920
 2.0430	16.9290
 2.0440	16.9630
 2.0450	16.9940
 2.0460	17.0260
 2.0470	17.0530
 2.0480	17.0870
 2.0490	17.1240
 2.0500	17.1590
 2.0510	17.1950
 2.0520	17.2300
 2.0530	17.2620
 2.0540	17.2960
 2.0550	17.3280
 2.0560	17.3620
 2.0570	17.3950
 2.0580	17.4300
 2.0590	17.4640
 2.0600	17.4990
 2.0610	17.5320
 2.0620	17.5660
 2.0630	17.5980
 2.0640	17.6280
 2.0650	17.6610
 2.0660	17.6940
 2.0670	17.7300
 2.0680	17.7730
 2.0690	17.8110
 2.0700	17.8500
 2.0710	17.8850
 2.0720	17.9160
 2.0730	17.9460
 2.0740	17.9770
 2.0750	18.0050
 2.0760	18.0370
 2.0770	18.0720
 2.0780	18.1050
 2.0790	18.1390
 2.0800	18.1710
 2.0810	18.2010
 2.0820	18.2320
 2.0830	18.2620
 2.0840	18.2910
 2.0850	18.3170
 2.0860	18.3460
 2.0870	18.3760
 2.0880	18.4050
 2.0890	18.4340
 2.0900	18.4670
 2.0910	18.4950
 2.0920	18.5230
 2.0930	18.5470
 2.0940	18.5670
 2.0950	18.5900
 2.0960	18.6110
 2.0970	18.6350
 2.0980	18.6630
 2.0990	18.6880
 2.1000	18.7130
 2.1010	18.7370
 2.1020	18.7600
 2.1030	18.7830
 2.1040	18.8050
 2.1050	18.8290
 2.1060	18.8520
 2.1070	18.8730
 2.1080	18.8980
 2.1090	18.9250
 2.1100	18.9480
 2.1110	18.9710
 2.1120	18.9920
 2.1130	19.0080
 2.1140	19.0280
 2.1150	19.0470
 2.1160	19.0680
 2.1170	19.0920
 2.1180	19.1130
 2.1190	19.1380
 2.1200	19.1590
 2.1210	19.1770
 2.1220	19.1920
 2.1230	19.2080
 2.1240	19.2220
 2.1250	19.2400
 2.1260	19.2610
 2.1270	19.2780
 2.1280	19.2970
 2.1290	19.3140
 2.1300	19.3260
 2.1310	19.3430
 2.1320	19.3620
 2.1330	19.3790
 2.1340	19.3940
 2.1350	19.4110
 2.1360	19.4250
 2.1370	19.4410
 2.1380	19.4570
 2.1390	19.4750
 2.1400	19.4920
 2.1410	19.5090
 2.1420	19.5270
 2.1430	19.5450
 2.1440	19.5630
 2.1450	19.5780
 2.1460	19.5970
 2.1470	19.6180
 2.1480	19.6390
 2.1490	19.6630
 2.1500	19.6830
 2.1510	19.7000
 2.1520	19.7200
 2.1530	19.7380
 2.1540	19.7590
 2.1550	19.7860
 2.1560	19.8080
 2.1570	19.8290
 2.1580	19.8480
 2.1590	19.8650
 2.1600	19.8780
 2.1610	19.8930
 2.1620	19.9070
 2.1630	19.9210
 2.1640	19.9360
 2.1650	19.9510
 2.1660	19.9650
 2.1670	19.9820
 2.1680	20.0010
 2.1690	20.0190
 2.1700	20.0390
 2.1710	20.0570
 2.1720	20.0750
 2.1730	20.0920
 2.1740	20.1050
 2.1750	20.1230
 2.1760	20.1410
 2.1770	20.1610
 2.1780	20.1890
 2.1790	20.2120
 2.1800	20.2330
 2.1810	20.2550
 2.1820	20.2740
 2.1830	20.2950
 2.1840	20.3150
 2.1850	20.3350
 2.1860	20.3570
 2.1870	20.3780
 2.1880	20.4010
 2.1890	20.4280
 2.1900	20.4530
 2.1910	20.4780
 2.1920	20.5050
 2.1930	20.5360
 2.1940	20.5620
 2.1950	20.5880
 2.1960	20.6140
 2.1970	20.6390
 2.1980	20.6630
 2.1990	20.6870
 2.2000	20.7100
 2.2010	20.7290
 2.2020	20.7500
 2.2030	20.7730
 2.2040	20.7960
 2.2050	20.8200
 2.2060	20.8420
 2.2070	20.8630
 2.2080	20.8840
 2.2090	20.9010
 2.2100	20.9150
 2.2110	20.9310
 2.2120	20.9450
 2.2130	20.9590
 2.2140	20.9730
 2.2150	20.9850
 2.2160	20.9950
 2.2170	21.0050
 2.2180	21.0140
 2.2190	21.0210
 2.2200	21.0270
 2.2210	21.0320
 2.2220	21.0360
 2.2230	21.0390
 2.2240	21.0440
 2.2250	21.0400
 2.2260	21.0290
 2.2270	21.0170
 2.2280	20.9950
 2.2290	20.9770
 2.2300	20.9610
 2.2310	20.9470
 2.2320	20.9300
 2.2330	20.9150
 2.2340	20.8940
 2.2350	20.8710
 2.2360	20.8440
 2.2370	20.8140
 2.2380	20.7830
 2.2390	20.7500
 2.2400	20.7140
 2.2410	20.6760
 2.2420	20.6350
 2.2430	20.5870
 2.2440	20.5410
 2.2450	20.4910
 2.2460	20.4460
 2.2470	20.4050
 2.2480	20.3620
 2.2490	20.3230
 2.2500	20.2810
 2.2510	20.2350
 2.2520	20.1910
 2.2530	20.1500
 2.2540	20.1050
 2.2550	20.0600
 2.2560	20.0110
 2.2570	19.9560
 2.2580	19.9050
 2.2590	19.8530
 2.2600	19.8050
 2.2610	19.7620
 2.2620	19.7180
 2.2630	19.6690
 2.2640	19.6210
 2.2650	19.5730
 2.2660	19.5250
 2.2670	19.4800
 2.2680	19.4400
 2.2690	19.3980
 2.2700	19.3580
 2.2710	19.3190
 2.2720	19.2820
 2.2730	19.2460
 2.2740	19.2120
 2.2750	19.1740
 2.2760	19.1330
 2.2770	19.0960
 2.2780	19.0600
 2.2790	19.0240
 2.2800	18.9920
 2.2810	18.9550
 2.2820	18.9140
 2.2830	18.8770
 2.2840	18.8400
 2.2850	18.8060
 2.2860	18.7770
 2.2870	18.7460
 2.2880	18.7160
 2.2890	18.6850
 2.2900	18.6550
 2.2910	18.6220
 2.2920	18.5900
 2.2930	18.5540
 2.2940	18.5100
 2.2950	18.4730
 2.2960	18.4350
 2.2970	18.4010
 2.2980	18.3740
 2.2990	18.3480
 2.3000	18.3160
 2.3010	18.2780
 2.3020	18.2360
 2.3030	18.1970
 2.3040	18.1570
 2.3050	18.1180
 2.3060	18.0810
 2.3070	18.0400
 2.3080	18.0050
 2.3090	17.9750
 2.3100	17.9480
 2.3110	17.9230
 2.3120	17.8950
 2.3130	17.8670
 2.3140	17.8390
 2.3150	17.8070
 2.3160	17.7800
 2.3170	17.7590
 2.3180	17.7300
 2.3190	17.7020
 2.3200	17.6720
 2.3210	17.6380
 2.3220	17.6070
 2.3230	17.5790
 2.3240	17.5450
 2.3250	17.5110
 2.3260	17.4760
 2.3270	17.4370
 2.3280	17.4010
 2.3290	17.3630
 2.3300	17.3260
 2.3310	17.2930
 2.3320	17.2530
 2.3330	17.2100
 2.3340	17.1710
 2.3350	17.1300
 2.3360	17.0930
 2.3370	17.0650
 2.3380	17.0290
 2.3390	16.9850
 2.3400	16.9490
 2.3410	16.9180
 2.3420	16.8810
 2.3430	16.8460
 2.3440	16.8110
 2.3450	16.7710
 2.3460	16.7320
 2.3470	16.6990
 2.3480	16.6600
 2.3490	16.6090
 2.3500	16.5700
 2.3510	16.5350
 2.3520	16.5050
 2.3530	16.4840
 2.3540	16.4690
 2.3550	16.4520
 2.3560	16.4300
 2.3570	16.4030
 2.3580	16.3710
 2.3590	16.3340
 2.3600	16.3000
 2.3610	16.2660
 2.3620	16.2340
 2.3630	16.2010
 2.3640	16.1670
 2.3650	16.1370
 2.3660	16.1010
 2.3670	16.0610
 2.3680	16.0250
 2.3690	15.9830
 2.3700	15.9440
 2.3710	15.9160
 2.3720	15.8800
 2.3730	15.8490
 2.3740	15.8240
 2.3750	15.7870
 2.3760	15.7560
 2.3770	15.7330
 2.3780	15.6990
 2.3790	15.6610
 2.3800	15.6310
 2.3810	15.5930
 2.3820	15.5540
 2.3830	15.5270
 2.3840	15.4940
 2.3850	15.4510
 2.3860	15.4090
 2.3870	15.3600
 2.3880	15.3080
 2.3890	15.2670
 2.3900	15.2250
 2.3910	15.1860
 2.3920	15.1580
 2.3930	15.1240
 2.3940	15.0890
 2.3950	15.0520
 2.3960	15.0080
 2.3970	14.9610
 2.3980	14.9120
 2.3990	14.8690
 2.4000	14.8290
 2.4010	14.7870
 2.4020	14.7420
 2.4030	14.6940
 2.4040	14.6540
 2.4050	14.6180
 2.4060	14.5810
 2.4070	14.5420
 2.4080	14.4970
 2.4090	14.4400
 2.4100	14.3860
 2.4110	14.3390
 2.4120	14.2910
 2.4130	14.2520
 2.4140	14.2110
 2.4150	14.1630
 2.4160	14.1220
 2.4170	14.0900
 2.4180	14.0620
 2.4190	14.0370
 2.4200	13.9990
 2.4210	13.9380
 2.4220	13.8730
 2.4230	13.8130
 2.4240	13.7640
 2.4250	13.7310
 2.4260	13.7060
 2.4270	13.6800
 2.4280	13.6550
 2.4290	13.6280
 2.4300	13.5890
 2.4310	13.5450
 2.4320	13.4970
 2.4330	13.4560
 2.4340	13.4150
 2.4350	13.3660
 2.4360	13.3210
 2.4370	13.2650
 2.4380	13.2140
 2.4390	13.1800
 2.4400	13.1370
 2.4410	13.0950
 2.4420	13.0500
 2.4430	12.9990
 2.4440	12.9640
 2.4450	12.9230
 2.4460	12.8790
 2.4470	12.8580
 2.4480	12.8270
 2.4490	12.7850
 2.4500	12.7640
 2.4510	12.7320
 2.4520	12.6860
 2.4530	12.6570
 2.4540	12.6170
 2.4550	12.5500
 2.4560	12.5040
 2.4570	12.4650
 2.4580	12.4330
 2.4590	12.4200
 2.4600	12.4020
 2.4610	12.3780
 2.4620	12.3370
 2.4630	12.2960
 2.4640	12.2630
 2.4650	12.2180
 2.4660	12.1950
 2.4670	12.1950
 2.4680	12.1660
 2.4690	12.1580
 2.4700	12.1280
 2.4710	12.0620
 2.4720	12.0320
 2.4730	12.0070
 2.4740	11.9870
 2.4750	11.9990
 2.4760	11.9770
 2.4770	11.9370
 2.4780	11.9050
 2.4790	11.8550
 2.4800	11.8230
 2.4810	11.8020
 2.4820	11.7870
 2.4830	11.7700
 2.4840	11.7610
 2.4850	11.7560
 2.4860	11.7550
 2.4870	11.7420
 2.4880	11.7580
 2.4890	11.7490
 2.4900	11.6960
 2.4910	11.7070
 2.4920	11.6820
 2.4930	11.6360
 2.4940	11.6470
 2.4950	11.6460
 2.4960	11.6600
 2.4970	11.6730
 2.4980	11.6510
 2.4990	11.6060
 2.5000	11.5540
