Name: Abies concolor 2
Type: vegetation
Class: Tree
Genus: Abies
Species: concolor
Sample No.: VH063
Owner: UCSB
Wavelength Range: VSWIR
Origin: 37.0437; -119.3025; WGS84
Collection Date: 4/20/2013
Description: Samples were collected as part of the HyspIRI Airborne Campaign. 48 individual plants were sampled in three times in 2013 - spring  summer  and fall. The name of the sample includes a 1  2  or 3 which references a different individual of the species. Samples were taken to JPL and processed within 48 hours of collection. The same leaves were processed in the Nicolet and then measured using the ASD.
Measurement: Bidirectional reflectance
First Column: X
Second Column: Y
X Units: Wavelength (micrometers)
Y Units: Reflectance (percentage)
First X Value: 0.35
Last X Value: 2.5
Number of X Values: 2151
Additional Information: vegetation.tree.abies.concolor.vswir.vh063.ucsb.asd.ancillary.txt

 0.3500	 7.7360
 0.3510	 7.5670
 0.3520	 7.5990
 0.3530	 7.6520
 0.3540	 7.5360
 0.3550	 7.4030
 0.3560	 7.3760
 0.3570	 7.4130
 0.3580	 7.3930
 0.3590	 7.3520
 0.3600	 7.3030
 0.3610	 7.2560
 0.3620	 7.2150
 0.3630	 7.3250
 0.3640	 7.4010
 0.3650	 7.2750
 0.3660	 7.1490
 0.3670	 7.1110
 0.3680	 7.1510
 0.3690	 7.1880
 0.3700	 7.1480
 0.3710	 7.1050
 0.3720	 7.1240
 0.3730	 7.2350
 0.3740	 7.2680
 0.3750	 7.2070
 0.3760	 7.1070
 0.3770	 7.0570
 0.3780	 7.1110
 0.3790	 7.1860
 0.3800	 7.1090
 0.3810	 7.1020
 0.3820	 7.0880
 0.3830	 7.0220
 0.3840	 7.0500
 0.3850	 7.0330
 0.3860	 6.9990
 0.3870	 7.0220
 0.3880	 7.0470
 0.3890	 7.0280
 0.3900	 7.0070
 0.3910	 7.0970
 0.3920	 7.0880
 0.3930	 7.0510
 0.3940	 7.0720
 0.3950	 7.1240
 0.3960	 7.1360
 0.3970	 7.1090
 0.3980	 7.0880
 0.3990	 7.1210
 0.4000	 7.1440
 0.4010	 7.1320
 0.4020	 7.1190
 0.4030	 7.1420
 0.4040	 7.1760
 0.4050	 7.1940
 0.4060	 7.2180
 0.4070	 7.2540
 0.4080	 7.2920
 0.4090	 7.3130
 0.4100	 7.3360
 0.4110	 7.3710
 0.4120	 7.4160
 0.4130	 7.4490
 0.4140	 7.4870
 0.4150	 7.5320
 0.4160	 7.5850
 0.4170	 7.6560
 0.4180	 7.6970
 0.4190	 7.7200
 0.4200	 7.7890
 0.4210	 7.8330
 0.4220	 7.8820
 0.4230	 7.9590
 0.4240	 8.0220
 0.4250	 8.0650
 0.4260	 8.1080
 0.4270	 8.1760
 0.4280	 8.2270
 0.4290	 8.2640
 0.4300	 8.2970
 0.4310	 8.3420
 0.4320	 8.3760
 0.4330	 8.4080
 0.4340	 8.4470
 0.4350	 8.4790
 0.4360	 8.5080
 0.4370	 8.5430
 0.4380	 8.5920
 0.4390	 8.6390
 0.4400	 8.6700
 0.4410	 8.6880
 0.4420	 8.7360
 0.4430	 8.7630
 0.4440	 8.7800
 0.4450	 8.8140
 0.4460	 8.8370
 0.4470	 8.8630
 0.4480	 8.8940
 0.4490	 8.9230
 0.4500	 8.9550
 0.4510	 8.9830
 0.4520	 9.0030
 0.4530	 9.0210
 0.4540	 9.0390
 0.4550	 9.0560
 0.4560	 9.0680
 0.4570	 9.0680
 0.4580	 9.0700
 0.4590	 9.0800
 0.4600	 9.0870
 0.4610	 9.0860
 0.4620	 9.0870
 0.4630	 9.0960
 0.4640	 9.0930
 0.4650	 9.0900
 0.4660	 9.0910
 0.4670	 9.0930
 0.4680	 9.0870
 0.4690	 9.0840
 0.4700	 9.0920
 0.4710	 9.0910
 0.4720	 9.0790
 0.4730	 9.0700
 0.4740	 9.0780
 0.4750	 9.0770
 0.4760	 9.0750
 0.4770	 9.0760
 0.4780	 9.0730
 0.4790	 9.0690
 0.4800	 9.0720
 0.4810	 9.0850
 0.4820	 9.0870
 0.4830	 9.0880
 0.4840	 9.0870
 0.4850	 9.0760
 0.4860	 9.0770
 0.4870	 9.0860
 0.4880	 9.0970
 0.4890	 9.1090
 0.4900	 9.1200
 0.4910	 9.1350
 0.4920	 9.1630
 0.4930	 9.1830
 0.4940	 9.2050
 0.4950	 9.2330
 0.4960	 9.2670
 0.4970	 9.3060
 0.4980	 9.3480
 0.4990	 9.3910
 0.5000	 9.4380
 0.5010	 9.4980
 0.5020	 9.5660
 0.5030	 9.6270
 0.5040	 9.7050
 0.5050	 9.7950
 0.5060	 9.8900
 0.5070	 9.9890
 0.5080	10.0980
 0.5090	10.2200
 0.5100	10.3520
 0.5110	10.4910
 0.5120	10.6420
 0.5130	10.8030
 0.5140	10.9730
 0.5150	11.1530
 0.5160	11.3440
 0.5170	11.5460
 0.5180	11.7480
 0.5190	11.9590
 0.5200	12.1770
 0.5210	12.3890
 0.5220	12.5990
 0.5230	12.8050
 0.5240	13.0040
 0.5250	13.1910
 0.5260	13.3690
 0.5270	13.5370
 0.5280	13.6910
 0.5290	13.8290
 0.5300	13.9580
 0.5310	14.0780
 0.5320	14.1820
 0.5330	14.2740
 0.5340	14.3580
 0.5350	14.4370
 0.5360	14.5070
 0.5370	14.5630
 0.5380	14.6120
 0.5390	14.6630
 0.5400	14.7040
 0.5410	14.7420
 0.5420	14.7810
 0.5430	14.8130
 0.5440	14.8500
 0.5450	14.8910
 0.5460	14.9330
 0.5470	14.9810
 0.5480	15.0240
 0.5490	15.0540
 0.5500	15.0760
 0.5510	15.0970
 0.5520	15.1100
 0.5530	15.1060
 0.5540	15.0880
 0.5550	15.0580
 0.5560	15.0140
 0.5570	14.9510
 0.5580	14.8770
 0.5590	14.7920
 0.5600	14.6990
 0.5610	14.6010
 0.5620	14.5010
 0.5630	14.3950
 0.5640	14.2810
 0.5650	14.1620
 0.5660	14.0380
 0.5670	13.9060
 0.5680	13.7640
 0.5690	13.6180
 0.5700	13.4760
 0.5710	13.3390
 0.5720	13.2040
 0.5730	13.0750
 0.5740	12.9570
 0.5750	12.8540
 0.5760	12.7510
 0.5770	12.6530
 0.5780	12.5620
 0.5790	12.4750
 0.5800	12.3910
 0.5810	12.3090
 0.5820	12.2330
 0.5830	12.1680
 0.5840	12.1030
 0.5850	12.0330
 0.5860	11.9620
 0.5870	11.8990
 0.5880	11.8390
 0.5890	11.7800
 0.5900	11.7370
 0.5910	11.7030
 0.5920	11.6750
 0.5930	11.6510
 0.5940	11.6230
 0.5950	11.5980
 0.5960	11.5780
 0.5970	11.5560
 0.5980	11.5270
 0.5990	11.4940
 0.6000	11.4640
 0.6010	11.4330
 0.6020	11.3970
 0.6030	11.3560
 0.6040	11.3140
 0.6050	11.2600
 0.6060	11.2000
 0.6070	11.1400
 0.6080	11.0730
 0.6090	11.0020
 0.6100	10.9280
 0.6110	10.8500
 0.6120	10.7810
 0.6130	10.7130
 0.6140	10.6450
 0.6150	10.5840
 0.6160	10.5220
 0.6170	10.4610
 0.6180	10.4070
 0.6190	10.3560
 0.6200	10.3100
 0.6210	10.2680
 0.6220	10.2340
 0.6230	10.2030
 0.6240	10.1750
 0.6250	10.1510
 0.6260	10.1330
 0.6270	10.1170
 0.6280	10.1020
 0.6290	10.0900
 0.6300	10.0820
 0.6310	10.0720
 0.6320	10.0570
 0.6330	10.0370
 0.6340	10.0130
 0.6350	 9.9840
 0.6360	 9.9490
 0.6370	 9.9020
 0.6380	 9.8480
 0.6390	 9.7880
 0.6400	 9.7250
 0.6410	 9.6590
 0.6420	 9.5900
 0.6430	 9.5200
 0.6440	 9.4480
 0.6450	 9.3730
 0.6460	 9.2990
 0.6470	 9.2330
 0.6480	 9.1700
 0.6490	 9.1140
 0.6500	 9.0670
 0.6510	 9.0240
 0.6520	 8.9880
 0.6530	 8.9520
 0.6540	 8.9100
 0.6550	 8.8700
 0.6560	 8.8280
 0.6570	 8.7810
 0.6580	 8.7280
 0.6590	 8.6720
 0.6600	 8.6130
 0.6610	 8.5530
 0.6620	 8.4950
 0.6630	 8.4350
 0.6640	 8.3770
 0.6650	 8.3280
 0.6660	 8.2850
 0.6670	 8.2470
 0.6680	 8.2140
 0.6690	 8.1900
 0.6700	 8.1720
 0.6710	 8.1580
 0.6720	 8.1500
 0.6730	 8.1470
 0.6740	 8.1510
 0.6750	 8.1610
 0.6760	 8.1720
 0.6770	 8.1830
 0.6780	 8.2010
 0.6790	 8.2270
 0.6800	 8.2600
 0.6810	 8.3010
 0.6820	 8.3520
 0.6830	 8.4130
 0.6840	 8.4930
 0.6850	 8.5890
 0.6860	 8.7040
 0.6870	 8.8460
 0.6880	 9.0220
 0.6890	 9.2400
 0.6900	 9.5050
 0.6910	 9.8180
 0.6920	10.1830
 0.6930	10.6080
 0.6940	11.0980
 0.6950	11.6480
 0.6960	12.2530
 0.6970	12.9120
 0.6980	13.6260
 0.6990	14.3870
 0.7000	15.1850
 0.7010	16.0130
 0.7020	16.8640
 0.7030	17.7370
 0.7040	18.6240
 0.7050	19.5170
 0.7060	20.4230
 0.7070	21.3360
 0.7080	22.2540
 0.7090	23.1790
 0.7100	24.1200
 0.7110	25.0730
 0.7120	26.0360
 0.7130	27.0050
 0.7140	27.9870
 0.7150	28.9840
 0.7160	29.9940
 0.7170	31.0070
 0.7180	32.0300
 0.7190	33.0630
 0.7200	34.1010
 0.7210	35.1420
 0.7220	36.1860
 0.7230	37.2300
 0.7240	38.2670
 0.7250	39.2930
 0.7260	40.3080
 0.7270	41.3130
 0.7280	42.2970
 0.7290	43.2570
 0.7300	44.1950
 0.7310	45.1140
 0.7320	46.0060
 0.7330	46.8700
 0.7340	47.7040
 0.7350	48.5050
 0.7360	49.2790
 0.7370	50.0250
 0.7380	50.7390
 0.7390	51.4140
 0.7400	52.0580
 0.7410	52.6770
 0.7420	53.2690
 0.7430	53.8170
 0.7440	54.3390
 0.7450	54.8340
 0.7460	55.2890
 0.7470	55.7200
 0.7480	56.1220
 0.7490	56.4900
 0.7500	56.8310
 0.7510	57.1500
 0.7520	57.4410
 0.7530	57.7020
 0.7540	57.9500
 0.7550	58.1790
 0.7560	58.3880
 0.7570	58.5790
 0.7580	58.7520
 0.7590	58.9140
 0.7600	59.0650
 0.7610	59.2020
 0.7620	59.3180
 0.7630	59.4220
 0.7640	59.5250
 0.7650	59.6230
 0.7660	59.7130
 0.7670	59.7940
 0.7680	59.8680
 0.7690	59.9340
 0.7700	59.9960
 0.7710	60.0550
 0.7720	60.1080
 0.7730	60.1560
 0.7740	60.2020
 0.7750	60.2480
 0.7760	60.2870
 0.7770	60.3320
 0.7780	60.3790
 0.7790	60.4190
 0.7800	60.4480
 0.7810	60.4770
 0.7820	60.5140
 0.7830	60.5540
 0.7840	60.5800
 0.7850	60.6040
 0.7860	60.6370
 0.7870	60.6760
 0.7880	60.7050
 0.7890	60.7270
 0.7900	60.7490
 0.7910	60.7770
 0.7920	60.8050
 0.7930	60.8300
 0.7940	60.8520
 0.7950	60.8680
 0.7960	60.8860
 0.7970	60.9060
 0.7980	60.9260
 0.7990	60.9460
 0.8000	60.9650
 0.8010	60.9810
 0.8020	60.9980
 0.8030	61.0110
 0.8040	61.0230
 0.8050	61.0370
 0.8060	61.0480
 0.8070	61.0570
 0.8080	61.0690
 0.8090	61.0840
 0.8100	61.0930
 0.8110	61.1020
 0.8120	61.1140
 0.8130	61.1200
 0.8140	61.1270
 0.8150	61.1340
 0.8160	61.1420
 0.8170	61.1480
 0.8180	61.1580
 0.8190	61.1700
 0.8200	61.1800
 0.8210	61.1850
 0.8220	61.1910
 0.8230	61.1960
 0.8240	61.1990
 0.8250	61.2040
 0.8260	61.2040
 0.8270	61.1990
 0.8280	61.2070
 0.8290	61.2050
 0.8300	61.2010
 0.8310	61.2010
 0.8320	61.2010
 0.8330	61.2050
 0.8340	61.2100
 0.8350	61.2170
 0.8360	61.2220
 0.8370	61.2250
 0.8380	61.2320
 0.8390	61.2510
 0.8400	61.2630
 0.8410	61.2770
 0.8420	61.2960
 0.8430	61.3040
 0.8440	61.3200
 0.8450	61.3400
 0.8460	61.3550
 0.8470	61.3740
 0.8480	61.3890
 0.8490	61.4020
 0.8500	61.4160
 0.8510	61.4260
 0.8520	61.4410
 0.8530	61.4610
 0.8540	61.4780
 0.8550	61.4920
 0.8560	61.5060
 0.8570	61.5190
 0.8580	61.5300
 0.8590	61.5510
 0.8600	61.5680
 0.8610	61.5750
 0.8620	61.5900
 0.8630	61.5950
 0.8640	61.6010
 0.8650	61.6190
 0.8660	61.6380
 0.8670	61.6520
 0.8680	61.6600
 0.8690	61.6650
 0.8700	61.6720
 0.8710	61.6830
 0.8720	61.6960
 0.8730	61.7120
 0.8740	61.7230
 0.8750	61.7310
 0.8760	61.7410
 0.8770	61.7500
 0.8780	61.7520
 0.8790	61.7600
 0.8800	61.7740
 0.8810	61.7760
 0.8820	61.7820
 0.8830	61.7880
 0.8840	61.7880
 0.8850	61.7890
 0.8860	61.7920
 0.8870	61.7990
 0.8880	61.8090
 0.8890	61.8080
 0.8900	61.8060
 0.8910	61.8060
 0.8920	61.8050
 0.8930	61.8010
 0.8940	61.7980
 0.8950	61.7930
 0.8960	61.7840
 0.8970	61.7860
 0.8980	61.7830
 0.8990	61.7740
 0.9000	61.7660
 0.9010	61.7540
 0.9020	61.7490
 0.9030	61.7500
 0.9040	61.7430
 0.9050	61.7400
 0.9060	61.7390
 0.9070	61.7330
 0.9080	61.7130
 0.9090	61.7100
 0.9100	61.7090
 0.9110	61.6980
 0.9120	61.6920
 0.9130	61.6800
 0.9140	61.6690
 0.9150	61.6640
 0.9160	61.6630
 0.9170	61.6520
 0.9180	61.6330
 0.9190	61.6160
 0.9200	61.6130
 0.9210	61.5930
 0.9220	61.5610
 0.9230	61.5390
 0.9240	61.4990
 0.9250	61.4690
 0.9260	61.4480
 0.9270	61.4080
 0.9280	61.3610
 0.9290	61.3230
 0.9300	61.2890
 0.9310	61.2320
 0.9320	61.1790
 0.9330	61.1210
 0.9340	61.0550
 0.9350	60.9930
 0.9360	60.9190
 0.9370	60.8530
 0.9380	60.7890
 0.9390	60.6880
 0.9400	60.6250
 0.9410	60.5600
 0.9420	60.4630
 0.9430	60.3660
 0.9440	60.2660
 0.9450	60.1520
 0.9460	60.0230
 0.9470	59.9010
 0.9480	59.7420
 0.9490	59.5810
 0.9500	59.4430
 0.9510	59.2780
 0.9520	59.1020
 0.9530	58.9210
 0.9540	58.7380
 0.9550	58.5550
 0.9560	58.3640
 0.9570	58.1840
 0.9580	58.0310
 0.9590	57.8650
 0.9600	57.7320
 0.9610	57.6200
 0.9620	57.5030
 0.9630	57.4000
 0.9640	57.3060
 0.9650	57.2200
 0.9660	57.1420
 0.9670	57.0820
 0.9680	57.0230
 0.9690	56.9660
 0.9700	56.9140
 0.9710	56.8630
 0.9720	56.8260
 0.9730	56.7990
 0.9740	56.7700
 0.9750	56.7410
 0.9760	56.7230
 0.9770	56.7170
 0.9780	56.7150
 0.9790	56.6960
 0.9800	56.6950
 0.9810	56.7090
 0.9820	56.7140
 0.9830	56.7200
 0.9840	56.7170
 0.9850	56.7320
 0.9860	56.7890
 0.9870	56.8120
 0.9880	56.8450
 0.9890	56.8950
 0.9900	56.9470
 0.9910	56.9770
 0.9920	57.1500
 0.9930	57.3220
 0.9940	57.4950
 0.9950	57.6680
 0.9960	57.8410
 0.9970	58.0130
 0.9980	58.1860
 0.9990	58.3590
 1.0000	58.5320
 1.0010	58.7050
 1.0020	58.8770
 1.0030	59.0500
 1.0040	59.2230
 1.0050	59.3960
 1.0060	59.5680
 1.0070	59.7410
 1.0080	59.9140
 1.0090	60.0870
 1.0100	60.0870
 1.0110	60.1570
 1.0120	60.2350
 1.0130	60.3170
 1.0140	60.4000
 1.0150	60.4900
 1.0160	60.5700
 1.0170	60.6520
 1.0180	60.7370
 1.0190	60.8130
 1.0200	60.8930
 1.0210	60.9790
 1.0220	61.0620
 1.0230	61.1430
 1.0240	61.2270
 1.0250	61.3070
 1.0260	61.3800
 1.0270	61.4570
 1.0280	61.5380
 1.0290	61.6150
 1.0300	61.6870
 1.0310	61.7610
 1.0320	61.8370
 1.0330	61.9090
 1.0340	61.9800
 1.0350	62.0520
 1.0360	62.1230
 1.0370	62.1950
 1.0380	62.2620
 1.0390	62.3290
 1.0400	62.3920
 1.0410	62.4480
 1.0420	62.5080
 1.0430	62.5730
 1.0440	62.6300
 1.0450	62.6810
 1.0460	62.7370
 1.0470	62.7910
 1.0480	62.8440
 1.0490	62.9020
 1.0500	62.9540
 1.0510	63.0030
 1.0520	63.0480
 1.0530	63.0890
 1.0540	63.1250
 1.0550	63.1670
 1.0560	63.2100
 1.0570	63.2480
 1.0580	63.2890
 1.0590	63.3240
 1.0600	63.3490
 1.0610	63.3780
 1.0620	63.4070
 1.0630	63.4340
 1.0640	63.4570
 1.0650	63.4820
 1.0660	63.5110
 1.0670	63.5320
 1.0680	63.5490
 1.0690	63.5640
 1.0700	63.5760
 1.0710	63.5820
 1.0720	63.5900
 1.0730	63.5960
 1.0740	63.6040
 1.0750	63.6150
 1.0760	63.6190
 1.0770	63.6240
 1.0780	63.6240
 1.0790	63.6150
 1.0800	63.6100
 1.0810	63.6090
 1.0820	63.6020
 1.0830	63.5940
 1.0840	63.5830
 1.0850	63.5690
 1.0860	63.5540
 1.0870	63.5360
 1.0880	63.5160
 1.0890	63.4950
 1.0900	63.4700
 1.0910	63.4460
 1.0920	63.4230
 1.0930	63.3960
 1.0940	63.3640
 1.0950	63.3340
 1.0960	63.3070
 1.0970	63.2720
 1.0980	63.2350
 1.0990	63.1980
 1.1000	63.1550
 1.1010	63.1140
 1.1020	63.0750
 1.1030	63.0360
 1.1040	62.9930
 1.1050	62.9510
 1.1060	62.9080
 1.1070	62.8660
 1.1080	62.8190
 1.1090	62.7710
 1.1100	62.7180
 1.1110	62.6620
 1.1120	62.6030
 1.1130	62.5410
 1.1140	62.4750
 1.1150	62.4090
 1.1160	62.3370
 1.1170	62.2650
 1.1180	62.1830
 1.1190	62.0960
 1.1200	61.9990
 1.1210	61.8970
 1.1220	61.7820
 1.1230	61.6550
 1.1240	61.5190
 1.1250	61.3660
 1.1260	61.2000
 1.1270	61.0160
 1.1280	60.8180
 1.1290	60.6010
 1.1300	60.3690
 1.1310	60.1130
 1.1320	59.8380
 1.1330	59.5450
 1.1340	59.2270
 1.1350	58.8980
 1.1360	58.5550
 1.1370	58.1960
 1.1380	57.8250
 1.1390	57.4460
 1.1400	57.0540
 1.1410	56.6620
 1.1420	56.2700
 1.1430	55.8770
 1.1440	55.4880
 1.1450	55.0940
 1.1460	54.7200
 1.1470	54.3450
 1.1480	53.9940
 1.1490	53.6570
 1.1500	53.3410
 1.1510	53.0380
 1.1520	52.7560
 1.1530	52.4940
 1.1540	52.2500
 1.1550	52.0220
 1.1560	51.8130
 1.1570	51.6240
 1.1580	51.4540
 1.1590	51.2990
 1.1600	51.1580
 1.1610	51.0300
 1.1620	50.9100
 1.1630	50.8020
 1.1640	50.7030
 1.1650	50.6100
 1.1660	50.5270
 1.1670	50.4480
 1.1680	50.3770
 1.1690	50.3080
 1.1700	50.2440
 1.1710	50.1810
 1.1720	50.1220
 1.1730	50.0620
 1.1740	50.0040
 1.1750	49.9470
 1.1760	49.8870
 1.1770	49.8250
 1.1780	49.7620
 1.1790	49.7010
 1.1800	49.6400
 1.1810	49.5780
 1.1820	49.5130
 1.1830	49.4510
 1.1840	49.3890
 1.1850	49.3280
 1.1860	49.2710
 1.1870	49.2160
 1.1880	49.1640
 1.1890	49.1150
 1.1900	49.0700
 1.1910	49.0250
 1.1920	48.9880
 1.1930	48.9560
 1.1940	48.9290
 1.1950	48.9100
 1.1960	48.8950
 1.1970	48.8830
 1.1980	48.8770
 1.1990	48.8770
 1.2000	48.8810
 1.2010	48.8920
 1.2020	48.9080
 1.2030	48.9280
 1.2040	48.9540
 1.2050	48.9850
 1.2060	49.0190
 1.2070	49.0590
 1.2080	49.1050
 1.2090	49.1550
 1.2100	49.2110
 1.2110	49.2710
 1.2120	49.3340
 1.2130	49.4020
 1.2140	49.4750
 1.2150	49.5500
 1.2160	49.6280
 1.2170	49.7060
 1.2180	49.7880
 1.2190	49.8720
 1.2200	49.9580
 1.2210	50.0490
 1.2220	50.1390
 1.2230	50.2270
 1.2240	50.3140
 1.2250	50.3990
 1.2260	50.4830
 1.2270	50.5650
 1.2280	50.6470
 1.2290	50.7270
 1.2300	50.8070
 1.2310	50.8860
 1.2320	50.9610
 1.2330	51.0320
 1.2340	51.1020
 1.2350	51.1680
 1.2360	51.2340
 1.2370	51.2990
 1.2380	51.3650
 1.2390	51.4280
 1.2400	51.4870
 1.2410	51.5450
 1.2420	51.6000
 1.2430	51.6540
 1.2440	51.7100
 1.2450	51.7620
 1.2460	51.8120
 1.2470	51.8610
 1.2480	51.9090
 1.2490	51.9550
 1.2500	51.9990
 1.2510	52.0400
 1.2520	52.0800
 1.2530	52.1190
 1.2540	52.1540
 1.2550	52.1900
 1.2560	52.2250
 1.2570	52.2520
 1.2580	52.2770
 1.2590	52.3020
 1.2600	52.3250
 1.2610	52.3460
 1.2620	52.3670
 1.2630	52.3870
 1.2640	52.4020
 1.2650	52.4150
 1.2660	52.4270
 1.2670	52.4360
 1.2680	52.4410
 1.2690	52.4430
 1.2700	52.4420
 1.2710	52.4360
 1.2720	52.4300
 1.2730	52.4230
 1.2740	52.4140
 1.2750	52.4050
 1.2760	52.3910
 1.2770	52.3730
 1.2780	52.3520
 1.2790	52.3260
 1.2800	52.3000
 1.2810	52.2710
 1.2820	52.2370
 1.2830	52.1990
 1.2840	52.1580
 1.2850	52.1130
 1.2860	52.0630
 1.2870	52.0090
 1.2880	51.9510
 1.2890	51.8870
 1.2900	51.8180
 1.2910	51.7450
 1.2920	51.6670
 1.2930	51.5840
 1.2940	51.4960
 1.2950	51.4030
 1.2960	51.3040
 1.2970	51.1970
 1.2980	51.0830
 1.2990	50.9660
 1.3000	50.8440
 1.3010	50.7160
 1.3020	50.5870
 1.3030	50.4500
 1.3040	50.3050
 1.3050	50.1580
 1.3060	50.0030
 1.3070	49.8420
 1.3080	49.6770
 1.3090	49.5040
 1.3100	49.3240
 1.3110	49.1420
 1.3120	48.9510
 1.3130	48.7560
 1.3140	48.5550
 1.3150	48.3470
 1.3160	48.1360
 1.3170	47.9210
 1.3180	47.7010
 1.3190	47.4740
 1.3200	47.2420
 1.3210	47.0020
 1.3220	46.7620
 1.3230	46.5180
 1.3240	46.2690
 1.3250	46.0190
 1.3260	45.7620
 1.3270	45.5020
 1.3280	45.2430
 1.3290	44.9770
 1.3300	44.7100
 1.3310	44.4420
 1.3320	44.1710
 1.3330	43.9050
 1.3340	43.6400
 1.3350	43.3750
 1.3360	43.1110
 1.3370	42.8490
 1.3380	42.5890
 1.3390	42.3310
 1.3400	42.0760
 1.3410	41.8270
 1.3420	41.5820
 1.3430	41.3400
 1.3440	41.1020
 1.3450	40.8680
 1.3460	40.6350
 1.3470	40.4090
 1.3480	40.1870
 1.3490	39.9720
 1.3500	39.7620
 1.3510	39.5550
 1.3520	39.3480
 1.3530	39.1430
 1.3540	38.9380
 1.3550	38.7360
 1.3560	38.5350
 1.3570	38.3350
 1.3580	38.1340
 1.3590	37.9290
 1.3600	37.7210
 1.3610	37.5090
 1.3620	37.2890
 1.3630	37.0650
 1.3640	36.8340
 1.3650	36.5930
 1.3660	36.3460
 1.3670	36.0890
 1.3680	35.8180
 1.3690	35.5340
 1.3700	35.2330
 1.3710	34.9180
 1.3720	34.5860
 1.3730	34.2340
 1.3740	33.8650
 1.3750	33.4750
 1.3760	33.0610
 1.3770	32.6240
 1.3780	32.1600
 1.3790	31.6750
 1.3800	31.1690
 1.3810	30.6370
 1.3820	30.0910
 1.3830	29.5270
 1.3840	28.9500
 1.3850	28.3540
 1.3860	27.7530
 1.3870	27.1340
 1.3880	26.5200
 1.3890	25.9000
 1.3900	25.2780
 1.3910	24.6670
 1.3920	24.0580
 1.3930	23.4530
 1.3940	22.8620
 1.3950	22.2780
 1.3960	21.7100
 1.3970	21.1600
 1.3980	20.6280
 1.3990	20.1190
 1.4000	19.6290
 1.4010	19.1600
 1.4020	18.7130
 1.4030	18.2840
 1.4040	17.8790
 1.4050	17.4960
 1.4060	17.1330
 1.4070	16.7960
 1.4080	16.4780
 1.4090	16.1780
 1.4100	15.8990
 1.4110	15.6370
 1.4120	15.3930
 1.4130	15.1670
 1.4140	14.9560
 1.4150	14.7620
 1.4160	14.5800
 1.4170	14.4110
 1.4180	14.2540
 1.4190	14.1070
 1.4200	13.9710
 1.4210	13.8450
 1.4220	13.7280
 1.4230	13.6210
 1.4240	13.5220
 1.4250	13.4290
 1.4260	13.3450
 1.4270	13.2670
 1.4280	13.1950
 1.4290	13.1300
 1.4300	13.0710
 1.4310	13.0160
 1.4320	12.9690
 1.4330	12.9240
 1.4340	12.8830
 1.4350	12.8470
 1.4360	12.8140
 1.4370	12.7850
 1.4380	12.7600
 1.4390	12.7400
 1.4400	12.7230
 1.4410	12.7080
 1.4420	12.6970
 1.4430	12.6870
 1.4440	12.6810
 1.4450	12.6760
 1.4460	12.6720
 1.4470	12.6720
 1.4480	12.6730
 1.4490	12.6750
 1.4500	12.6800
 1.4510	12.6840
 1.4520	12.6910
 1.4530	12.6990
 1.4540	12.7080
 1.4550	12.7210
 1.4560	12.7350
 1.4570	12.7500
 1.4580	12.7680
 1.4590	12.7880
 1.4600	12.8110
 1.4610	12.8370
 1.4620	12.8650
 1.4630	12.8960
 1.4640	12.9300
 1.4650	12.9690
 1.4660	13.0120
 1.4670	13.0580
 1.4680	13.1070
 1.4690	13.1590
 1.4700	13.2150
 1.4710	13.2750
 1.4720	13.3360
 1.4730	13.4020
 1.4740	13.4700
 1.4750	13.5400
 1.4760	13.6140
 1.4770	13.6900
 1.4780	13.7680
 1.4790	13.8500
 1.4800	13.9310
 1.4810	14.0130
 1.4820	14.0980
 1.4830	14.1830
 1.4840	14.2710
 1.4850	14.3610
 1.4860	14.4520
 1.4870	14.5430
 1.4880	14.6360
 1.4890	14.7280
 1.4900	14.8220
 1.4910	14.9170
 1.4920	15.0140
 1.4930	15.1130
 1.4940	15.2120
 1.4950	15.3120
 1.4960	15.4120
 1.4970	15.5110
 1.4980	15.6120
 1.4990	15.7140
 1.5000	15.8160
 1.5010	15.9190
 1.5020	16.0210
 1.5030	16.1230
 1.5040	16.2270
 1.5050	16.3300
 1.5060	16.4330
 1.5070	16.5390
 1.5080	16.6430
 1.5090	16.7480
 1.5100	16.8520
 1.5110	16.9550
 1.5120	17.0600
 1.5130	17.1640
 1.5140	17.2680
 1.5150	17.3720
 1.5160	17.4750
 1.5170	17.5770
 1.5180	17.6780
 1.5190	17.7780
 1.5200	17.8800
 1.5210	17.9800
 1.5220	18.0800
 1.5230	18.1810
 1.5240	18.2810
 1.5250	18.3810
 1.5260	18.4790
 1.5270	18.5770
 1.5280	18.6730
 1.5290	18.7680
 1.5300	18.8640
 1.5310	18.9590
 1.5320	19.0530
 1.5330	19.1490
 1.5340	19.2440
 1.5350	19.3370
 1.5360	19.4310
 1.5370	19.5230
 1.5380	19.6140
 1.5390	19.7070
 1.5400	19.7980
 1.5410	19.8890
 1.5420	19.9790
 1.5430	20.0690
 1.5440	20.1600
 1.5450	20.2480
 1.5460	20.3370
 1.5470	20.4260
 1.5480	20.5120
 1.5490	20.6000
 1.5500	20.6870
 1.5510	20.7730
 1.5520	20.8600
 1.5530	20.9450
 1.5540	21.0300
 1.5550	21.1160
 1.5560	21.2000
 1.5570	21.2810
 1.5580	21.3630
 1.5590	21.4440
 1.5600	21.5240
 1.5610	21.6030
 1.5620	21.6820
 1.5630	21.7610
 1.5640	21.8380
 1.5650	21.9170
 1.5660	21.9960
 1.5670	22.0750
 1.5680	22.1540
 1.5690	22.2310
 1.5700	22.3090
 1.5710	22.3870
 1.5720	22.4630
 1.5730	22.5400
 1.5740	22.6160
 1.5750	22.6900
 1.5760	22.7660
 1.5770	22.8410
 1.5780	22.9160
 1.5790	22.9900
 1.5800	23.0630
 1.5810	23.1380
 1.5820	23.2130
 1.5830	23.2860
 1.5840	23.3620
 1.5850	23.4340
 1.5860	23.5070
 1.5870	23.5820
 1.5880	23.6550
 1.5890	23.7280
 1.5900	23.8010
 1.5910	23.8750
 1.5920	23.9480
 1.5930	24.0210
 1.5940	24.0940
 1.5950	24.1660
 1.5960	24.2390
 1.5970	24.3130
 1.5980	24.3870
 1.5990	24.4610
 1.6000	24.5350
 1.6010	24.6060
 1.6020	24.6770
 1.6030	24.7470
 1.6040	24.8160
 1.6050	24.8860
 1.6060	24.9540
 1.6070	25.0230
 1.6080	25.0920
 1.6090	25.1600
 1.6100	25.2290
 1.6110	25.2960
 1.6120	25.3610
 1.6130	25.4260
 1.6140	25.4900
 1.6150	25.5530
 1.6160	25.6170
 1.6170	25.6790
 1.6180	25.7410
 1.6190	25.8000
 1.6200	25.8580
 1.6210	25.9150
 1.6220	25.9700
 1.6230	26.0240
 1.6240	26.0790
 1.6250	26.1300
 1.6260	26.1800
 1.6270	26.2290
 1.6280	26.2760
 1.6290	26.3220
 1.6300	26.3640
 1.6310	26.4060
 1.6320	26.4470
 1.6330	26.4880
 1.6340	26.5280
 1.6350	26.5660
 1.6360	26.6030
 1.6370	26.6410
 1.6380	26.6770
 1.6390	26.7140
 1.6400	26.7510
 1.6410	26.7870
 1.6420	26.8230
 1.6430	26.8570
 1.6440	26.8890
 1.6450	26.9200
 1.6460	26.9470
 1.6470	26.9700
 1.6480	26.9920
 1.6490	27.0100
 1.6500	27.0250
 1.6510	27.0390
 1.6520	27.0490
 1.6530	27.0570
 1.6540	27.0610
 1.6550	27.0620
 1.6560	27.0610
 1.6570	27.0600
 1.6580	27.0580
 1.6590	27.0550
 1.6600	27.0520
 1.6610	27.0460
 1.6620	27.0400
 1.6630	27.0330
 1.6640	27.0260
 1.6650	27.0200
 1.6660	27.0150
 1.6670	27.0080
 1.6680	27.0000
 1.6690	26.9890
 1.6700	26.9760
 1.6710	26.9630
 1.6720	26.9510
 1.6730	26.9370
 1.6740	26.9230
 1.6750	26.9060
 1.6760	26.8850
 1.6770	26.8620
 1.6780	26.8350
 1.6790	26.8070
 1.6800	26.7770
 1.6810	26.7420
 1.6820	26.7050
 1.6830	26.6650
 1.6840	26.6200
 1.6850	26.5740
 1.6860	26.5240
 1.6870	26.4710
 1.6880	26.4190
 1.6890	26.3650
 1.6900	26.3080
 1.6910	26.2500
 1.6920	26.1900
 1.6930	26.1270
 1.6940	26.0660
 1.6950	26.0050
 1.6960	25.9440
 1.6970	25.8830
 1.6980	25.8230
 1.6990	25.7630
 1.7000	25.7020
 1.7010	25.6390
 1.7020	25.5790
 1.7030	25.5190
 1.7040	25.4600
 1.7050	25.4020
 1.7060	25.3430
 1.7070	25.2820
 1.7080	25.2240
 1.7090	25.1670
 1.7100	25.1110
 1.7110	25.0570
 1.7120	25.0010
 1.7130	24.9470
 1.7140	24.8930
 1.7150	24.8380
 1.7160	24.7840
 1.7170	24.7310
 1.7180	24.6800
 1.7190	24.6310
 1.7200	24.5830
 1.7210	24.5330
 1.7220	24.4840
 1.7230	24.4340
 1.7240	24.3840
 1.7250	24.3360
 1.7260	24.2870
 1.7270	24.2400
 1.7280	24.1970
 1.7290	24.1550
 1.7300	24.1150
 1.7310	24.0760
 1.7320	24.0390
 1.7330	24.0000
 1.7340	23.9640
 1.7350	23.9240
 1.7360	23.8840
 1.7370	23.8400
 1.7380	23.7950
 1.7390	23.7460
 1.7400	23.6940
 1.7410	23.6400
 1.7420	23.5810
 1.7430	23.5230
 1.7440	23.4660
 1.7450	23.4050
 1.7460	23.3420
 1.7470	23.2790
 1.7480	23.2110
 1.7490	23.1490
 1.7500	23.0910
 1.7510	23.0300
 1.7520	22.9700
 1.7530	22.9120
 1.7540	22.8530
 1.7550	22.8000
 1.7560	22.7490
 1.7570	22.6970
 1.7580	22.6480
 1.7590	22.6000
 1.7600	22.5530
 1.7610	22.5090
 1.7620	22.4680
 1.7630	22.4300
 1.7640	22.3930
 1.7650	22.3580
 1.7660	22.3230
 1.7670	22.2890
 1.7680	22.2570
 1.7690	22.2290
 1.7700	22.2010
 1.7710	22.1730
 1.7720	22.1470
 1.7730	22.1190
 1.7740	22.0940
 1.7750	22.0720
 1.7760	22.0490
 1.7770	22.0240
 1.7780	22.0030
 1.7790	21.9830
 1.7800	21.9670
 1.7810	21.9560
 1.7820	21.9450
 1.7830	21.9350
 1.7840	21.9290
 1.7850	21.9240
 1.7860	21.9210
 1.7870	21.9190
 1.7880	21.9180
 1.7890	21.9170
 1.7900	21.9220
 1.7910	21.9250
 1.7920	21.9300
 1.7930	21.9350
 1.7940	21.9370
 1.7950	21.9430
 1.7960	21.9520
 1.7970	21.9620
 1.7980	21.9780
 1.7990	21.9900
 1.8000	22.0010
 1.8010	22.0120
 1.8020	22.0220
 1.8030	22.0340
 1.8040	22.0470
 1.8050	22.0590
 1.8060	22.0690
 1.8070	22.0820
 1.8080	22.0970
 1.8090	22.1080
 1.8100	22.1200
 1.8110	22.1270
 1.8120	22.1360
 1.8130	22.1460
 1.8140	22.1530
 1.8150	22.1640
 1.8160	22.1740
 1.8170	22.1820
 1.8180	22.1900
 1.8190	22.1930
 1.8200	22.1970
 1.8210	22.2020
 1.8220	22.2050
 1.8230	22.2090
 1.8240	22.2100
 1.8250	22.2080
 1.8260	22.2080
 1.8270	22.1750
 1.8280	22.1420
 1.8290	22.1090
 1.8300	22.0760
 1.8310	22.0430
 1.8320	22.0110
 1.8330	21.9780
 1.8340	21.9450
 1.8350	21.9450
 1.8360	21.9120
 1.8370	21.8780
 1.8380	21.8350
 1.8390	21.7880
 1.8400	21.7390
 1.8410	21.6830
 1.8420	21.6220
 1.8430	21.5570
 1.8440	21.4850
 1.8450	21.4060
 1.8460	21.3190
 1.8470	21.2250
 1.8480	21.1250
 1.8490	21.0130
 1.8500	20.8910
 1.8510	20.7600
 1.8520	20.6200
 1.8530	20.4690
 1.8540	20.3110
 1.8550	20.1410
 1.8560	19.9580
 1.8570	19.7650
 1.8580	19.5580
 1.8590	19.3400
 1.8600	19.1100
 1.8610	18.8710
 1.8620	18.6170
 1.8630	18.3540
 1.8640	18.0810
 1.8650	17.7890
 1.8660	17.4830
 1.8670	17.1630
 1.8680	16.8310
 1.8690	16.4900
 1.8700	16.1380
 1.8710	15.7760
 1.8720	15.4090
 1.8730	15.0320
 1.8740	14.6500
 1.8750	14.2680
 1.8760	13.8790
 1.8770	13.4910
 1.8780	13.1070
 1.8790	12.7210
 1.8800	12.3440
 1.8810	11.9720
 1.8820	11.6050
 1.8830	11.2420
 1.8840	10.8910
 1.8850	10.5440
 1.8860	10.2080
 1.8870	 9.8870
 1.8880	 9.5760
 1.8890	 9.2810
 1.8900	 9.0010
 1.8910	 8.7340
 1.8920	 8.4790
 1.8930	 8.2430
 1.8940	 8.0200
 1.8950	 7.8130
 1.8960	 7.6220
 1.8970	 7.4430
 1.8980	 7.2800
 1.8990	 7.1290
 1.9000	 6.9900
 1.9010	 6.8650
 1.9020	 6.7480
 1.9030	 6.6420
 1.9040	 6.5470
 1.9050	 6.4610
 1.9060	 6.3820
 1.9070	 6.3140
 1.9080	 6.2510
 1.9090	 6.1920
 1.9100	 6.1380
 1.9110	 6.0910
 1.9120	 6.0500
 1.9130	 6.0110
 1.9140	 5.9770
 1.9150	 5.9480
 1.9160	 5.9190
 1.9170	 5.8940
 1.9180	 5.8730
 1.9190	 5.8540
 1.9200	 5.8380
 1.9210	 5.8210
 1.9220	 5.8070
 1.9230	 5.7960
 1.9240	 5.7870
 1.9250	 5.7800
 1.9260	 5.7740
 1.9270	 5.7720
 1.9280	 5.7710
 1.9290	 5.7690
 1.9300	 5.7710
 1.9310	 5.7750
 1.9320	 5.7780
 1.9330	 5.7840
 1.9340	 5.7940
 1.9350	 5.8020
 1.9360	 5.8120
 1.9370	 5.8210
 1.9380	 5.8300
 1.9390	 5.8420
 1.9400	 5.8550
 1.9410	 5.8670
 1.9420	 5.8840
 1.9430	 5.9000
 1.9440	 5.9170
 1.9450	 5.9350
 1.9460	 5.9530
 1.9470	 5.9690
 1.9480	 5.9880
 1.9490	 6.0060
 1.9500	 6.0280
 1.9510	 6.0500
 1.9520	 6.0750
 1.9530	 6.1000
 1.9540	 6.1230
 1.9550	 6.1460
 1.9560	 6.1700
 1.9570	 6.1940
 1.9580	 6.2180
 1.9590	 6.2440
 1.9600	 6.2730
 1.9610	 6.3000
 1.9620	 6.3290
 1.9630	 6.3580
 1.9640	 6.3860
 1.9650	 6.4150
 1.9660	 6.4450
 1.9670	 6.4760
 1.9680	 6.5070
 1.9690	 6.5370
 1.9700	 6.5690
 1.9710	 6.6040
 1.9720	 6.6370
 1.9730	 6.6720
 1.9740	 6.7070
 1.9750	 6.7390
 1.9760	 6.7720
 1.9770	 6.8080
 1.9780	 6.8430
 1.9790	 6.8790
 1.9800	 6.9160
 1.9810	 6.9550
 1.9820	 6.9960
 1.9830	 7.0350
 1.9840	 7.0750
 1.9850	 7.1130
 1.9860	 7.1480
 1.9870	 7.1830
 1.9880	 7.2220
 1.9890	 7.2600
 1.9900	 7.3010
 1.9910	 7.3430
 1.9920	 7.3850
 1.9930	 7.4280
 1.9940	 7.4690
 1.9950	 7.5090
 1.9960	 7.5510
 1.9970	 7.5910
 1.9980	 7.6320
 1.9990	 7.6760
 2.0000	 7.7200
 2.0010	 7.7620
 2.0020	 7.8040
 2.0030	 7.8450
 2.0040	 7.8860
 2.0050	 7.9270
 2.0060	 7.9680
 2.0070	 8.0080
 2.0080	 8.0490
 2.0090	 8.0890
 2.0100	 8.1310
 2.0110	 8.1720
 2.0120	 8.2130
 2.0130	 8.2540
 2.0140	 8.2940
 2.0150	 8.3340
 2.0160	 8.3740
 2.0170	 8.4120
 2.0180	 8.4500
 2.0190	 8.4870
 2.0200	 8.5240
 2.0210	 8.5620
 2.0220	 8.5970
 2.0230	 8.6310
 2.0240	 8.6650
 2.0250	 8.6960
 2.0260	 8.7290
 2.0270	 8.7640
 2.0280	 8.7970
 2.0290	 8.8310
 2.0300	 8.8660
 2.0310	 8.8970
 2.0320	 8.9250
 2.0330	 8.9550
 2.0340	 8.9820
 2.0350	 9.0100
 2.0360	 9.0400
 2.0370	 9.0680
 2.0380	 9.0930
 2.0390	 9.1210
 2.0400	 9.1500
 2.0410	 9.1780
 2.0420	 9.2050
 2.0430	 9.2320
 2.0440	 9.2580
 2.0450	 9.2820
 2.0460	 9.3050
 2.0470	 9.3270
 2.0480	 9.3490
 2.0490	 9.3700
 2.0500	 9.3920
 2.0510	 9.4160
 2.0520	 9.4390
 2.0530	 9.4640
 2.0540	 9.4880
 2.0550	 9.5100
 2.0560	 9.5330
 2.0570	 9.5560
 2.0580	 9.5780
 2.0590	 9.6010
 2.0600	 9.6260
 2.0610	 9.6500
 2.0620	 9.6740
 2.0630	 9.6970
 2.0640	 9.7180
 2.0650	 9.7400
 2.0660	 9.7610
 2.0670	 9.7830
 2.0680	 9.8050
 2.0690	 9.8280
 2.0700	 9.8540
 2.0710	 9.8770
 2.0720	 9.8990
 2.0730	 9.9210
 2.0740	 9.9420
 2.0750	 9.9610
 2.0760	 9.9830
 2.0770	10.0070
 2.0780	10.0290
 2.0790	10.0510
 2.0800	10.0730
 2.0810	10.0930
 2.0820	10.1160
 2.0830	10.1430
 2.0840	10.1680
 2.0850	10.1920
 2.0860	10.2160
 2.0870	10.2390
 2.0880	10.2610
 2.0890	10.2840
 2.0900	10.3080
 2.0910	10.3310
 2.0920	10.3520
 2.0930	10.3750
 2.0940	10.3980
 2.0950	10.4220
 2.0960	10.4480
 2.0970	10.4730
 2.0980	10.4970
 2.0990	10.5210
 2.1000	10.5460
 2.1010	10.5690
 2.1020	10.5920
 2.1030	10.6140
 2.1040	10.6340
 2.1050	10.6580
 2.1060	10.6820
 2.1070	10.7070
 2.1080	10.7310
 2.1090	10.7570
 2.1100	10.7820
 2.1110	10.8070
 2.1120	10.8320
 2.1130	10.8570
 2.1140	10.8820
 2.1150	10.9080
 2.1160	10.9330
 2.1170	10.9600
 2.1180	10.9860
 2.1190	11.0120
 2.1200	11.0370
 2.1210	11.0580
 2.1220	11.0820
 2.1230	11.1060
 2.1240	11.1290
 2.1250	11.1540
 2.1260	11.1820
 2.1270	11.2070
 2.1280	11.2310
 2.1290	11.2550
 2.1300	11.2780
 2.1310	11.3010
 2.1320	11.3230
 2.1330	11.3460
 2.1340	11.3700
 2.1350	11.3940
 2.1360	11.4210
 2.1370	11.4460
 2.1380	11.4700
 2.1390	11.4940
 2.1400	11.5160
 2.1410	11.5370
 2.1420	11.5610
 2.1430	11.5860
 2.1440	11.6100
 2.1450	11.6360
 2.1460	11.6610
 2.1470	11.6830
 2.1480	11.7080
 2.1490	11.7330
 2.1500	11.7580
 2.1510	11.7830
 2.1520	11.8090
 2.1530	11.8370
 2.1540	11.8600
 2.1550	11.8800
 2.1560	11.9020
 2.1570	11.9220
 2.1580	11.9430
 2.1590	11.9670
 2.1600	11.9940
 2.1610	12.0190
 2.1620	12.0410
 2.1630	12.0630
 2.1640	12.0820
 2.1650	12.1030
 2.1660	12.1240
 2.1670	12.1430
 2.1680	12.1630
 2.1690	12.1820
 2.1700	12.1980
 2.1710	12.2170
 2.1720	12.2400
 2.1730	12.2610
 2.1740	12.2830
 2.1750	12.3050
 2.1760	12.3250
 2.1770	12.3480
 2.1780	12.3730
 2.1790	12.3970
 2.1800	12.4220
 2.1810	12.4450
 2.1820	12.4700
 2.1830	12.4910
 2.1840	12.5120
 2.1850	12.5320
 2.1860	12.5520
 2.1870	12.5690
 2.1880	12.5890
 2.1890	12.6080
 2.1900	12.6290
 2.1910	12.6510
 2.1920	12.6730
 2.1930	12.6980
 2.1940	12.7190
 2.1950	12.7390
 2.1960	12.7580
 2.1970	12.7740
 2.1980	12.7920
 2.1990	12.8120
 2.2000	12.8300
 2.2010	12.8460
 2.2020	12.8630
 2.2030	12.8840
 2.2040	12.8990
 2.2050	12.9110
 2.2060	12.9260
 2.2070	12.9380
 2.2080	12.9440
 2.2090	12.9570
 2.2100	12.9740
 2.2110	12.9860
 2.2120	12.9990
 2.2130	13.0060
 2.2140	13.0090
 2.2150	13.0120
 2.2160	13.0120
 2.2170	13.0130
 2.2180	13.0170
 2.2190	13.0180
 2.2200	13.0220
 2.2210	13.0200
 2.2220	13.0140
 2.2230	13.0090
 2.2240	13.0020
 2.2250	12.9920
 2.2260	12.9810
 2.2270	12.9680
 2.2280	12.9500
 2.2290	12.9310
 2.2300	12.9110
 2.2310	12.8880
 2.2320	12.8600
 2.2330	12.8290
 2.2340	12.7970
 2.2350	12.7610
 2.2360	12.7260
 2.2370	12.6910
 2.2380	12.6560
 2.2390	12.6230
 2.2400	12.5830
 2.2410	12.5380
 2.2420	12.4950
 2.2430	12.4470
 2.2440	12.4000
 2.2450	12.3550
 2.2460	12.3050
 2.2470	12.2500
 2.2480	12.1990
 2.2490	12.1490
 2.2500	12.0970
 2.2510	12.0510
 2.2520	11.9940
 2.2530	11.9320
 2.2540	11.8690
 2.2550	11.7950
 2.2560	11.7290
 2.2570	11.6690
 2.2580	11.6060
 2.2590	11.5460
 2.2600	11.4830
 2.2610	11.4150
 2.2620	11.3490
 2.2630	11.2840
 2.2640	11.2210
 2.2650	11.1640
 2.2660	11.1090
 2.2670	11.0560
 2.2680	11.0070
 2.2690	10.9580
 2.2700	10.9110
 2.2710	10.8640
 2.2720	10.8160
 2.2730	10.7750
 2.2740	10.7350
 2.2750	10.6970
 2.2760	10.6640
 2.2770	10.6300
 2.2780	10.5960
 2.2790	10.5630
 2.2800	10.5340
 2.2810	10.5040
 2.2820	10.4730
 2.2830	10.4410
 2.2840	10.4080
 2.2850	10.3750
 2.2860	10.3390
 2.2870	10.3050
 2.2880	10.2720
 2.2890	10.2390
 2.2900	10.2060
 2.2910	10.1730
 2.2920	10.1410
 2.2930	10.1060
 2.2940	10.0720
 2.2950	10.0350
 2.2960	 9.9970
 2.2970	 9.9570
 2.2980	 9.9140
 2.2990	 9.8680
 2.3000	 9.8230
 2.3010	 9.7820
 2.3020	 9.7440
 2.3030	 9.7130
 2.3040	 9.6860
 2.3050	 9.6550
 2.3060	 9.6240
 2.3070	 9.5990
 2.3080	 9.5750
 2.3090	 9.5560
 2.3100	 9.5510
 2.3110	 9.5420
 2.3120	 9.5320
 2.3130	 9.5210
 2.3140	 9.5130
 2.3150	 9.5030
 2.3160	 9.4990
 2.3170	 9.5030
 2.3180	 9.5000
 2.3190	 9.4970
 2.3200	 9.4900
 2.3210	 9.4810
 2.3220	 9.4720
 2.3230	 9.4620
 2.3240	 9.4490
 2.3250	 9.4370
 2.3260	 9.4190
 2.3270	 9.3920
 2.3280	 9.3700
 2.3290	 9.3460
 2.3300	 9.3210
 2.3310	 9.2920
 2.3320	 9.2720
 2.3330	 9.2570
 2.3340	 9.2360
 2.3350	 9.2220
 2.3360	 9.1960
 2.3370	 9.1500
 2.3380	 9.1200
 2.3390	 9.0930
 2.3400	 9.0680
 2.3410	 9.0510
 2.3420	 9.0290
 2.3430	 9.0020
 2.3440	 8.9760
 2.3450	 8.9500
 2.3460	 8.9210
 2.3470	 8.8850
 2.3480	 8.8580
 2.3490	 8.8340
 2.3500	 8.8100
 2.3510	 8.7910
 2.3520	 8.7750
 2.3530	 8.7590
 2.3540	 8.7510
 2.3550	 8.7410
 2.3560	 8.7300
 2.3570	 8.7110
 2.3580	 8.6870
 2.3590	 8.6660
 2.3600	 8.6500
 2.3610	 8.6380
 2.3620	 8.6210
 2.3630	 8.6080
 2.3640	 8.5910
 2.3650	 8.5690
 2.3660	 8.5530
 2.3670	 8.5290
 2.3680	 8.5030
 2.3690	 8.4750
 2.3700	 8.4540
 2.3710	 8.4420
 2.3720	 8.4230
 2.3730	 8.4020
 2.3740	 8.3760
 2.3750	 8.3490
 2.3760	 8.3240
 2.3770	 8.3080
 2.3780	 8.2930
 2.3790	 8.2730
 2.3800	 8.2540
 2.3810	 8.2300
 2.3820	 8.2080
 2.3830	 8.1850
 2.3840	 8.1630
 2.3850	 8.1500
 2.3860	 8.1260
 2.3870	 8.1050
 2.3880	 8.0850
 2.3890	 8.0580
 2.3900	 8.0370
 2.3910	 8.0180
 2.3920	 7.9960
 2.3930	 7.9760
 2.3940	 7.9530
 2.3950	 7.9260
 2.3960	 7.9120
 2.3970	 7.8910
 2.3980	 7.8660
 2.3990	 7.8460
 2.4000	 7.8130
 2.4010	 7.7920
 2.4020	 7.7640
 2.4030	 7.7330
 2.4040	 7.7140
 2.4050	 7.6870
 2.4060	 7.6590
 2.4070	 7.6450
 2.4080	 7.6270
 2.4090	 7.5990
 2.4100	 7.5880
 2.4110	 7.5650
 2.4120	 7.5240
 2.4130	 7.5040
 2.4140	 7.4720
 2.4150	 7.4390
 2.4160	 7.4230
 2.4170	 7.3880
 2.4180	 7.3570
 2.4190	 7.3360
 2.4200	 7.3060
 2.4210	 7.2980
 2.4220	 7.2860
 2.4230	 7.2550
 2.4240	 7.2250
 2.4250	 7.1990
 2.4260	 7.1690
 2.4270	 7.1440
 2.4280	 7.1340
 2.4290	 7.1050
 2.4300	 7.0720
 2.4310	 7.0520
 2.4320	 7.0220
 2.4330	 6.9880
 2.4340	 6.9510
 2.4350	 6.9170
 2.4360	 6.8860
 2.4370	 6.8610
 2.4380	 6.8520
 2.4390	 6.8310
 2.4400	 6.8040
 2.4410	 6.7840
 2.4420	 6.7520
 2.4430	 6.7090
 2.4440	 6.6740
 2.4450	 6.6480
 2.4460	 6.6230
 2.4470	 6.6090
 2.4480	 6.5910
 2.4490	 6.5770
 2.4500	 6.5620
 2.4510	 6.5440
 2.4520	 6.5250
 2.4530	 6.4890
 2.4540	 6.4490
 2.4550	 6.4130
 2.4560	 6.3880
 2.4570	 6.3560
 2.4580	 6.3220
 2.4590	 6.2890
 2.4600	 6.2490
 2.4610	 6.2250
 2.4620	 6.2090
 2.4630	 6.2100
 2.4640	 6.2270
 2.4650	 6.2260
 2.4660	 6.2290
 2.4670	 6.2260
 2.4680	 6.2070
 2.4690	 6.1810
 2.4700	 6.1590
 2.4710	 6.1240
 2.4720	 6.0960
 2.4730	 6.0840
 2.4740	 6.0610
 2.4750	 6.0190
 2.4760	 5.9990
 2.4770	 5.9780
 2.4780	 5.9770
 2.4790	 6.0070
 2.4800	 6.0080
 2.4810	 6.0160
 2.4820	 5.9790
 2.4830	 5.9340
 2.4840	 5.9100
 2.4850	 5.8820
 2.4860	 5.8860
 2.4870	 5.9200
 2.4880	 5.8910
 2.4890	 5.8750
 2.4900	 5.8800
 2.4910	 5.8570
 2.4920	 5.8640
 2.4930	 5.8800
 2.4940	 5.8730
 2.4950	 5.8400
 2.4960	 5.8500
 2.4970	 5.8670
 2.4980	 5.8830
 2.4990	 5.9520
 2.5000	 5.9570
