Name: Caesalpina cacalaco
Type: vegetation
Class: Tree
Genus: Caesalpina
Species: cacalaco
Sample No.: JPL138
Owner: JPL
Wavelength Range: VSWIR
Origin: 34.1263; -118.11396; WGS84
Collection Date: 9/14/2016
Description: Samples were collected at the Huntington Garden in San Marino California as part of a JPL Subcontract studying HyTES imagery. Samples were taken to JPL and processed within 48 hours of collection. The same leaves were processed in the Nicolet and then measured using the ASD.
Measurement: Bidirectional reflectance
First Column: X
Second Column: Y
X Units: Wavelength (micrometer)
Y Units: Reflectance (percentage)
First X Value: 0.35
Last X Value: 2.5
Number of X Values: 2151
Additional Information: vegetation.tree.caesalpina.cacalaco.vswir.jpl138.jpl.asd.ancillary.txt

 0.3500	 4.8700
 0.3510	 4.7760
 0.3520	 4.7430
 0.3530	 4.7710
 0.3540	 4.8090
 0.3550	 4.7540
 0.3560	 4.6710
 0.3570	 4.6050
 0.3580	 4.5810
 0.3590	 4.5250
 0.3600	 4.4970
 0.3610	 4.5100
 0.3620	 4.4980
 0.3630	 4.4560
 0.3640	 4.4160
 0.3650	 4.4120
 0.3660	 4.4520
 0.3670	 4.4630
 0.3680	 4.4390
 0.3690	 4.4180
 0.3700	 4.3340
 0.3710	 4.3190
 0.3720	 4.3980
 0.3730	 4.3700
 0.3740	 4.2850
 0.3750	 4.2470
 0.3760	 4.3270
 0.3770	 4.3800
 0.3780	 4.3290
 0.3790	 4.2390
 0.3800	 4.2780
 0.3810	 4.3120
 0.3820	 4.2910
 0.3830	 4.2250
 0.3840	 4.2130
 0.3850	 4.2360
 0.3860	 4.2460
 0.3870	 4.2050
 0.3880	 4.1890
 0.3890	 4.1860
 0.3900	 4.1860
 0.3910	 4.1910
 0.3920	 4.1740
 0.3930	 4.1570
 0.3940	 4.1630
 0.3950	 4.1850
 0.3960	 4.1890
 0.3970	 4.1690
 0.3980	 4.1400
 0.3990	 4.1590
 0.4000	 4.1450
 0.4010	 4.0940
 0.4020	 4.1150
 0.4030	 4.1250
 0.4040	 4.1150
 0.4050	 4.1040
 0.4060	 4.1380
 0.4070	 4.1570
 0.4080	 4.1500
 0.4090	 4.1440
 0.4100	 4.1500
 0.4110	 4.1630
 0.4120	 4.1810
 0.4130	 4.2090
 0.4140	 4.2400
 0.4150	 4.2800
 0.4160	 4.3330
 0.4170	 4.3650
 0.4180	 4.4020
 0.4190	 4.4480
 0.4200	 4.4890
 0.4210	 4.5310
 0.4220	 4.5770
 0.4230	 4.6250
 0.4240	 4.6800
 0.4250	 4.7420
 0.4260	 4.8030
 0.4270	 4.8550
 0.4280	 4.9110
 0.4290	 4.9660
 0.4300	 5.0160
 0.4310	 5.0620
 0.4320	 5.1100
 0.4330	 5.1570
 0.4340	 5.1980
 0.4350	 5.2320
 0.4360	 5.2680
 0.4370	 5.3040
 0.4380	 5.3340
 0.4390	 5.3600
 0.4400	 5.3860
 0.4410	 5.4140
 0.4420	 5.4360
 0.4430	 5.4540
 0.4440	 5.4760
 0.4450	 5.5090
 0.4460	 5.5330
 0.4470	 5.5500
 0.4480	 5.5640
 0.4490	 5.5830
 0.4500	 5.6000
 0.4510	 5.6120
 0.4520	 5.6230
 0.4530	 5.6410
 0.4540	 5.6650
 0.4550	 5.6880
 0.4560	 5.7040
 0.4570	 5.7090
 0.4580	 5.7110
 0.4590	 5.7150
 0.4600	 5.7230
 0.4610	 5.7300
 0.4620	 5.7340
 0.4630	 5.7370
 0.4640	 5.7430
 0.4650	 5.7480
 0.4660	 5.7510
 0.4670	 5.7510
 0.4680	 5.7550
 0.4690	 5.7550
 0.4700	 5.7470
 0.4710	 5.7360
 0.4720	 5.7340
 0.4730	 5.7360
 0.4740	 5.7310
 0.4750	 5.7300
 0.4760	 5.7320
 0.4770	 5.7310
 0.4780	 5.7190
 0.4790	 5.7180
 0.4800	 5.7220
 0.4810	 5.7250
 0.4820	 5.7300
 0.4830	 5.7330
 0.4840	 5.7330
 0.4850	 5.7390
 0.4860	 5.7510
 0.4870	 5.7670
 0.4880	 5.7850
 0.4890	 5.8050
 0.4900	 5.8250
 0.4910	 5.8470
 0.4920	 5.8730
 0.4930	 5.8980
 0.4940	 5.9290
 0.4950	 5.9690
 0.4960	 6.0080
 0.4970	 6.0550
 0.4980	 6.1100
 0.4990	 6.1690
 0.5000	 6.2330
 0.5010	 6.3080
 0.5020	 6.3910
 0.5030	 6.4790
 0.5040	 6.5850
 0.5050	 6.7040
 0.5060	 6.8320
 0.5070	 6.9760
 0.5080	 7.1330
 0.5090	 7.3040
 0.5100	 7.4890
 0.5110	 7.6860
 0.5120	 7.9010
 0.5130	 8.1360
 0.5140	 8.3940
 0.5150	 8.6690
 0.5160	 8.9570
 0.5170	 9.2600
 0.5180	 9.5710
 0.5190	 9.8990
 0.5200	10.2410
 0.5210	10.5840
 0.5220	10.9310
 0.5230	11.2760
 0.5240	11.6150
 0.5250	11.9420
 0.5260	12.2600
 0.5270	12.5670
 0.5280	12.8540
 0.5290	13.1180
 0.5300	13.3650
 0.5310	13.5960
 0.5320	13.8060
 0.5330	13.9940
 0.5340	14.1660
 0.5350	14.3240
 0.5360	14.4620
 0.5370	14.5860
 0.5380	14.6990
 0.5390	14.8020
 0.5400	14.9140
 0.5410	15.0330
 0.5420	15.1490
 0.5430	15.2420
 0.5440	15.3110
 0.5450	15.3570
 0.5460	15.3810
 0.5470	15.3920
 0.5480	15.4010
 0.5490	15.4170
 0.5500	15.4410
 0.5510	15.4570
 0.5520	15.4560
 0.5530	15.4370
 0.5540	15.3980
 0.5550	15.3380
 0.5560	15.2580
 0.5570	15.1650
 0.5580	15.0540
 0.5590	14.9310
 0.5600	14.8010
 0.5610	14.6630
 0.5620	14.5200
 0.5630	14.3730
 0.5640	14.2170
 0.5650	14.0530
 0.5660	13.8830
 0.5670	13.7080
 0.5680	13.5210
 0.5690	13.3280
 0.5700	13.1280
 0.5710	12.9210
 0.5720	12.7240
 0.5730	12.5340
 0.5740	12.3510
 0.5750	12.1760
 0.5760	12.0090
 0.5770	11.8510
 0.5780	11.7050
 0.5790	11.5730
 0.5800	11.4530
 0.5810	11.3420
 0.5820	11.2360
 0.5830	11.1320
 0.5840	11.0290
 0.5850	10.9320
 0.5860	10.8460
 0.5870	10.7730
 0.5880	10.7060
 0.5890	10.6390
 0.5900	10.5770
 0.5910	10.5160
 0.5920	10.4600
 0.5930	10.4150
 0.5940	10.3760
 0.5950	10.3400
 0.5960	10.3080
 0.5970	10.2800
 0.5980	10.2500
 0.5990	10.2170
 0.6000	10.1790
 0.6010	10.1300
 0.6020	10.0720
 0.6030	10.0070
 0.6040	 9.9330
 0.6050	 9.8460
 0.6060	 9.7510
 0.6070	 9.6490
 0.6080	 9.5390
 0.6090	 9.4330
 0.6100	 9.3370
 0.6110	 9.2480
 0.6120	 9.1320
 0.6130	 8.9960
 0.6140	 8.8550
 0.6150	 8.7370
 0.6160	 8.6250
 0.6170	 8.5210
 0.6180	 8.4280
 0.6190	 8.3470
 0.6200	 8.2760
 0.6210	 8.2110
 0.6220	 8.1530
 0.6230	 8.1020
 0.6240	 8.0580
 0.6250	 8.0210
 0.6260	 7.9910
 0.6270	 7.9660
 0.6280	 7.9470
 0.6290	 7.9320
 0.6300	 7.9230
 0.6310	 7.9160
 0.6320	 7.9030
 0.6330	 7.8810
 0.6340	 7.8520
 0.6350	 7.8140
 0.6360	 7.7690
 0.6370	 7.7120
 0.6380	 7.6440
 0.6390	 7.5670
 0.6400	 7.4830
 0.6410	 7.3930
 0.6420	 7.3000
 0.6430	 7.2070
 0.6440	 7.1090
 0.6450	 7.0110
 0.6460	 6.9150
 0.6470	 6.8240
 0.6480	 6.7370
 0.6490	 6.6600
 0.6500	 6.5950
 0.6510	 6.5350
 0.6520	 6.4770
 0.6530	 6.4230
 0.6540	 6.3680
 0.6550	 6.3070
 0.6560	 6.2380
 0.6570	 6.1640
 0.6580	 6.0860
 0.6590	 6.0040
 0.6600	 5.9210
 0.6610	 5.8400
 0.6620	 5.7630
 0.6630	 5.6880
 0.6640	 5.6230
 0.6650	 5.5680
 0.6660	 5.5200
 0.6670	 5.4830
 0.6680	 5.4550
 0.6690	 5.4340
 0.6700	 5.4260
 0.6710	 5.4240
 0.6720	 5.4260
 0.6730	 5.4320
 0.6740	 5.4480
 0.6750	 5.4700
 0.6760	 5.4950
 0.6770	 5.5300
 0.6780	 5.5690
 0.6790	 5.6120
 0.6800	 5.6630
 0.6810	 5.7220
 0.6820	 5.7930
 0.6830	 5.8750
 0.6840	 5.9690
 0.6850	 6.0830
 0.6860	 6.2210
 0.6870	 6.3870
 0.6880	 6.5960
 0.6890	 6.8570
 0.6900	 7.1820
 0.6910	 7.5830
 0.6920	 8.0690
 0.6930	 8.6420
 0.6940	 9.3010
 0.6950	10.0470
 0.6960	10.8770
 0.6970	11.7810
 0.6980	12.7520
 0.6990	13.7800
 0.7000	14.8540
 0.7010	15.9630
 0.7020	17.0960
 0.7030	18.2460
 0.7040	19.4050
 0.7050	20.5670
 0.7060	21.7250
 0.7070	22.8770
 0.7080	24.0210
 0.7090	25.1600
 0.7100	26.2900
 0.7110	27.4160
 0.7120	28.5360
 0.7130	29.6430
 0.7140	30.7350
 0.7150	31.8160
 0.7160	32.8880
 0.7170	33.9470
 0.7180	34.9870
 0.7190	36.0070
 0.7200	37.0030
 0.7210	37.9790
 0.7220	38.9280
 0.7230	39.8450
 0.7240	40.7340
 0.7250	41.5860
 0.7260	42.4030
 0.7270	43.1880
 0.7280	43.9350
 0.7290	44.6430
 0.7300	45.3160
 0.7310	45.9550
 0.7320	46.5560
 0.7330	47.1220
 0.7340	47.6560
 0.7350	48.1580
 0.7360	48.6250
 0.7370	49.0600
 0.7380	49.4650
 0.7390	49.8460
 0.7400	50.1990
 0.7410	50.5240
 0.7420	50.8250
 0.7430	51.1010
 0.7440	51.3530
 0.7450	51.5840
 0.7460	51.7970
 0.7470	51.9900
 0.7480	52.1630
 0.7490	52.3210
 0.7500	52.4650
 0.7510	52.5960
 0.7520	52.7130
 0.7530	52.8200
 0.7540	52.9160
 0.7550	53.0030
 0.7560	53.0820
 0.7570	53.1540
 0.7580	53.2180
 0.7590	53.2770
 0.7600	53.3350
 0.7610	53.3840
 0.7620	53.4270
 0.7630	53.4670
 0.7640	53.5030
 0.7650	53.5340
 0.7660	53.5600
 0.7670	53.5850
 0.7680	53.6090
 0.7690	53.6310
 0.7700	53.6510
 0.7710	53.6690
 0.7720	53.6810
 0.7730	53.6960
 0.7740	53.7120
 0.7750	53.7260
 0.7760	53.7400
 0.7770	53.7490
 0.7780	53.7560
 0.7790	53.7650
 0.7800	53.7760
 0.7810	53.7870
 0.7820	53.7960
 0.7830	53.8000
 0.7840	53.8050
 0.7850	53.8100
 0.7860	53.8140
 0.7870	53.8180
 0.7880	53.8190
 0.7890	53.8180
 0.7900	53.8160
 0.7910	53.8190
 0.7920	53.8210
 0.7930	53.8170
 0.7940	53.8100
 0.7950	53.8050
 0.7960	53.8010
 0.7970	53.7930
 0.7980	53.7840
 0.7990	53.7740
 0.8000	53.7640
 0.8010	53.7530
 0.8020	53.7390
 0.8030	53.7280
 0.8040	53.7170
 0.8050	53.7010
 0.8060	53.6870
 0.8070	53.6690
 0.8080	53.6500
 0.8090	53.6370
 0.8100	53.6160
 0.8110	53.5970
 0.8120	53.5820
 0.8130	53.5600
 0.8140	53.5380
 0.8150	53.5170
 0.8160	53.4960
 0.8170	53.4750
 0.8180	53.4520
 0.8190	53.4290
 0.8200	53.4090
 0.8210	53.3890
 0.8220	53.3650
 0.8230	53.3400
 0.8240	53.3210
 0.8250	53.2970
 0.8260	53.2720
 0.8270	53.2500
 0.8280	53.2250
 0.8290	53.2000
 0.8300	53.1740
 0.8310	53.1490
 0.8320	53.1250
 0.8330	53.1020
 0.8340	53.0820
 0.8350	53.0630
 0.8360	53.0460
 0.8370	53.0310
 0.8380	53.0170
 0.8390	53.0020
 0.8400	52.9890
 0.8410	52.9740
 0.8420	52.9590
 0.8430	52.9480
 0.8440	52.9380
 0.8450	52.9310
 0.8460	52.9250
 0.8470	52.9160
 0.8480	52.9080
 0.8490	52.9020
 0.8500	52.8940
 0.8510	52.8920
 0.8520	52.8910
 0.8530	52.8890
 0.8540	52.8840
 0.8550	52.8810
 0.8560	52.8790
 0.8570	52.8800
 0.8580	52.8840
 0.8590	52.8840
 0.8600	52.8860
 0.8610	52.8930
 0.8620	52.8950
 0.8630	52.9000
 0.8640	52.9060
 0.8650	52.9130
 0.8660	52.9200
 0.8670	52.9260
 0.8680	52.9320
 0.8690	52.9410
 0.8700	52.9540
 0.8710	52.9650
 0.8720	52.9740
 0.8730	52.9810
 0.8740	52.9920
 0.8750	53.0040
 0.8760	53.0180
 0.8770	53.0320
 0.8780	53.0440
 0.8790	53.0540
 0.8800	53.0640
 0.8810	53.0760
 0.8820	53.0830
 0.8830	53.0960
 0.8840	53.1190
 0.8850	53.1280
 0.8860	53.1400
 0.8870	53.1540
 0.8880	53.1660
 0.8890	53.1760
 0.8900	53.1910
 0.8910	53.2070
 0.8920	53.2160
 0.8930	53.2300
 0.8940	53.2460
 0.8950	53.2590
 0.8960	53.2690
 0.8970	53.2810
 0.8980	53.2900
 0.8990	53.2970
 0.9000	53.3040
 0.9010	53.3170
 0.9020	53.3300
 0.9030	53.3410
 0.9040	53.3500
 0.9050	53.3580
 0.9060	53.3650
 0.9070	53.3710
 0.9080	53.3790
 0.9090	53.3890
 0.9100	53.3940
 0.9110	53.3910
 0.9120	53.3950
 0.9130	53.4030
 0.9140	53.4050
 0.9150	53.3970
 0.9160	53.4020
 0.9170	53.4010
 0.9180	53.3960
 0.9190	53.3920
 0.9200	53.3820
 0.9210	53.3750
 0.9220	53.3680
 0.9230	53.3560
 0.9240	53.3460
 0.9250	53.3280
 0.9260	53.3070
 0.9270	53.2930
 0.9280	53.2670
 0.9290	53.2380
 0.9300	53.2130
 0.9310	53.1880
 0.9320	53.1490
 0.9330	53.1090
 0.9340	53.0760
 0.9350	53.0410
 0.9360	53.0040
 0.9370	52.9630
 0.9380	52.9200
 0.9390	52.8810
 0.9400	52.8390
 0.9410	52.7870
 0.9420	52.7280
 0.9430	52.6800
 0.9440	52.6290
 0.9450	52.5680
 0.9460	52.4970
 0.9470	52.4280
 0.9480	52.3640
 0.9490	52.2890
 0.9500	52.1950
 0.9510	52.1070
 0.9520	52.0170
 0.9530	51.9230
 0.9540	51.8280
 0.9550	51.7360
 0.9560	51.6420
 0.9570	51.5520
 0.9580	51.4720
 0.9590	51.3990
 0.9600	51.3360
 0.9610	51.2760
 0.9620	51.2130
 0.9630	51.1560
 0.9640	51.1060
 0.9650	51.0630
 0.9660	51.0250
 0.9670	50.9950
 0.9680	50.9670
 0.9690	50.9390
 0.9700	50.9130
 0.9710	50.8940
 0.9720	50.8710
 0.9730	50.8470
 0.9740	50.8310
 0.9750	50.8200
 0.9760	50.7990
 0.9770	50.7810
 0.9780	50.7820
 0.9790	50.7780
 0.9800	50.7820
 0.9810	50.7800
 0.9820	50.7570
 0.9830	50.7580
 0.9840	50.7860
 0.9850	50.8040
 0.9860	50.7840
 0.9870	50.7950
 0.9880	50.8080
 0.9890	50.8170
 0.9900	50.8290
 0.9910	50.8480
 0.9920	50.8570
 0.9930	50.8700
 0.9940	50.9040
 0.9950	50.9170
 0.9960	50.9320
 0.9970	50.9530
 0.9980	50.9770
 0.9990	51.0090
 1.0000	51.0330
 1.0010	51.1060
 1.0020	51.1310
 1.0030	51.1550
 1.0040	51.1760
 1.0050	51.2020
 1.0060	51.2310
 1.0070	51.2550
 1.0080	51.2790
 1.0090	51.3000
 1.0100	51.3240
 1.0110	51.3460
 1.0120	51.3700
 1.0130	51.3950
 1.0140	51.4200
 1.0150	51.4440
 1.0160	51.4710
 1.0170	51.4980
 1.0180	51.5220
 1.0190	51.5430
 1.0200	51.5640
 1.0210	51.5890
 1.0220	51.6120
 1.0230	51.6360
 1.0240	51.6640
 1.0250	51.6870
 1.0260	51.7030
 1.0270	51.7270
 1.0280	51.7550
 1.0290	51.7760
 1.0300	51.7990
 1.0310	51.8200
 1.0320	51.8350
 1.0330	51.8540
 1.0340	51.8790
 1.0350	51.8980
 1.0360	51.9170
 1.0370	51.9360
 1.0380	51.9530
 1.0390	51.9680
 1.0400	51.9830
 1.0410	51.9970
 1.0420	52.0100
 1.0430	52.0210
 1.0440	52.0340
 1.0450	52.0490
 1.0460	52.0640
 1.0470	52.0790
 1.0480	52.0940
 1.0490	52.1110
 1.0500	52.1250
 1.0510	52.1380
 1.0520	52.1510
 1.0530	52.1620
 1.0540	52.1680
 1.0550	52.1770
 1.0560	52.1840
 1.0570	52.1960
 1.0580	52.2110
 1.0590	52.2220
 1.0600	52.2330
 1.0610	52.2410
 1.0620	52.2420
 1.0630	52.2490
 1.0640	52.2610
 1.0650	52.2690
 1.0660	52.2780
 1.0670	52.2850
 1.0680	52.2900
 1.0690	52.2910
 1.0700	52.2940
 1.0710	52.2950
 1.0720	52.3000
 1.0730	52.3100
 1.0740	52.3140
 1.0750	52.3200
 1.0760	52.3220
 1.0770	52.3180
 1.0780	52.3160
 1.0790	52.3160
 1.0800	52.3150
 1.0810	52.3150
 1.0820	52.3130
 1.0830	52.3080
 1.0840	52.3040
 1.0850	52.3010
 1.0860	52.2950
 1.0870	52.2900
 1.0880	52.2880
 1.0890	52.2820
 1.0900	52.2730
 1.0910	52.2650
 1.0920	52.2560
 1.0930	52.2470
 1.0940	52.2390
 1.0950	52.2280
 1.0960	52.2160
 1.0970	52.2020
 1.0980	52.1810
 1.0990	52.1660
 1.1000	52.1530
 1.1010	52.1390
 1.1020	52.1270
 1.1030	52.1180
 1.1040	52.1030
 1.1050	52.0840
 1.1060	52.0650
 1.1070	52.0420
 1.1080	52.0220
 1.1090	52.0030
 1.1100	51.9830
 1.1110	51.9620
 1.1120	51.9400
 1.1130	51.9180
 1.1140	51.8920
 1.1150	51.8650
 1.1160	51.8360
 1.1170	51.8040
 1.1180	51.7700
 1.1190	51.7360
 1.1200	51.6980
 1.1210	51.6560
 1.1220	51.6100
 1.1230	51.5590
 1.1240	51.5040
 1.1250	51.4440
 1.1260	51.3820
 1.1270	51.3120
 1.1280	51.2390
 1.1290	51.1540
 1.1300	51.0640
 1.1310	50.9610
 1.1320	50.8490
 1.1330	50.7280
 1.1340	50.5970
 1.1350	50.4570
 1.1360	50.3090
 1.1370	50.1510
 1.1380	49.9870
 1.1390	49.8150
 1.1400	49.6370
 1.1410	49.4560
 1.1420	49.2690
 1.1430	49.0790
 1.1440	48.8940
 1.1450	48.7060
 1.1460	48.5240
 1.1470	48.3430
 1.1480	48.1700
 1.1490	47.9960
 1.1500	47.8380
 1.1510	47.6880
 1.1520	47.5470
 1.1530	47.4160
 1.1540	47.2950
 1.1550	47.1830
 1.1560	47.0800
 1.1570	46.9890
 1.1580	46.9080
 1.1590	46.8350
 1.1600	46.7700
 1.1610	46.7120
 1.1620	46.6590
 1.1630	46.6120
 1.1640	46.5720
 1.1650	46.5350
 1.1660	46.5010
 1.1670	46.4710
 1.1680	46.4450
 1.1690	46.4190
 1.1700	46.3980
 1.1710	46.3760
 1.1720	46.3550
 1.1730	46.3330
 1.1740	46.3110
 1.1750	46.2890
 1.1760	46.2700
 1.1770	46.2510
 1.1780	46.2310
 1.1790	46.2130
 1.1800	46.1910
 1.1810	46.1680
 1.1820	46.1450
 1.1830	46.1230
 1.1840	46.1030
 1.1850	46.0810
 1.1860	46.0590
 1.1870	46.0380
 1.1880	46.0180
 1.1890	45.9980
 1.1900	45.9830
 1.1910	45.9710
 1.1920	45.9610
 1.1930	45.9530
 1.1940	45.9460
 1.1950	45.9420
 1.1960	45.9380
 1.1970	45.9350
 1.1980	45.9350
 1.1990	45.9370
 1.2000	45.9400
 1.2010	45.9440
 1.2020	45.9530
 1.2030	45.9630
 1.2040	45.9750
 1.2050	45.9880
 1.2060	46.0010
 1.2070	46.0160
 1.2080	46.0330
 1.2090	46.0510
 1.2100	46.0700
 1.2110	46.0900
 1.2120	46.1100
 1.2130	46.1310
 1.2140	46.1540
 1.2150	46.1770
 1.2160	46.2000
 1.2170	46.2240
 1.2180	46.2490
 1.2190	46.2740
 1.2200	46.3000
 1.2210	46.3270
 1.2220	46.3530
 1.2230	46.3810
 1.2240	46.4060
 1.2250	46.4300
 1.2260	46.4560
 1.2270	46.4790
 1.2280	46.5030
 1.2290	46.5270
 1.2300	46.5510
 1.2310	46.5740
 1.2320	46.5980
 1.2330	46.6190
 1.2340	46.6400
 1.2350	46.6580
 1.2360	46.6770
 1.2370	46.6940
 1.2380	46.7120
 1.2390	46.7290
 1.2400	46.7460
 1.2410	46.7650
 1.2420	46.7820
 1.2430	46.8010
 1.2440	46.8200
 1.2450	46.8360
 1.2460	46.8540
 1.2470	46.8680
 1.2480	46.8790
 1.2490	46.8930
 1.2500	46.9060
 1.2510	46.9170
 1.2520	46.9290
 1.2530	46.9360
 1.2540	46.9410
 1.2550	46.9480
 1.2560	46.9550
 1.2570	46.9600
 1.2580	46.9650
 1.2590	46.9680
 1.2600	46.9680
 1.2610	46.9690
 1.2620	46.9690
 1.2630	46.9690
 1.2640	46.9680
 1.2650	46.9640
 1.2660	46.9590
 1.2670	46.9540
 1.2680	46.9450
 1.2690	46.9350
 1.2700	46.9240
 1.2710	46.9090
 1.2720	46.8940
 1.2730	46.8790
 1.2740	46.8620
 1.2750	46.8450
 1.2760	46.8240
 1.2770	46.8000
 1.2780	46.7740
 1.2790	46.7450
 1.2800	46.7160
 1.2810	46.6870
 1.2820	46.6560
 1.2830	46.6210
 1.2840	46.5860
 1.2850	46.5490
 1.2860	46.5110
 1.2870	46.4700
 1.2880	46.4290
 1.2890	46.3860
 1.2900	46.3380
 1.2910	46.2880
 1.2920	46.2380
 1.2930	46.1860
 1.2940	46.1300
 1.2950	46.0720
 1.2960	46.0110
 1.2970	45.9450
 1.2980	45.8800
 1.2990	45.8140
 1.3000	45.7450
 1.3010	45.6730
 1.3020	45.5970
 1.3030	45.5150
 1.3040	45.4310
 1.3050	45.3470
 1.3060	45.2570
 1.3070	45.1660
 1.3080	45.0690
 1.3090	44.9660
 1.3100	44.8610
 1.3110	44.7550
 1.3120	44.6440
 1.3130	44.5310
 1.3140	44.4130
 1.3150	44.2890
 1.3160	44.1610
 1.3170	44.0300
 1.3180	43.8960
 1.3190	43.7580
 1.3200	43.6170
 1.3210	43.4700
 1.3220	43.3190
 1.3230	43.1660
 1.3240	43.0100
 1.3250	42.8540
 1.3260	42.6940
 1.3270	42.5300
 1.3280	42.3650
 1.3290	42.1950
 1.3300	42.0210
 1.3310	41.8470
 1.3320	41.6710
 1.3330	41.4930
 1.3340	41.3160
 1.3350	41.1390
 1.3360	40.9610
 1.3370	40.7820
 1.3380	40.6050
 1.3390	40.4270
 1.3400	40.2510
 1.3410	40.0780
 1.3420	39.9080
 1.3430	39.7380
 1.3440	39.5710
 1.3450	39.4040
 1.3460	39.2380
 1.3470	39.0750
 1.3480	38.9120
 1.3490	38.7530
 1.3500	38.5990
 1.3510	38.4450
 1.3520	38.2910
 1.3530	38.1380
 1.3540	37.9820
 1.3550	37.8270
 1.3560	37.6740
 1.3570	37.5200
 1.3580	37.3650
 1.3590	37.2080
 1.3600	37.0450
 1.3610	36.8770
 1.3620	36.7020
 1.3630	36.5220
 1.3640	36.3340
 1.3650	36.1360
 1.3660	35.9320
 1.3670	35.7150
 1.3680	35.4860
 1.3690	35.2440
 1.3700	34.9820
 1.3710	34.7060
 1.3720	34.4130
 1.3730	34.0980
 1.3740	33.7650
 1.3750	33.4100
 1.3760	33.0270
 1.3770	32.6200
 1.3780	32.1820
 1.3790	31.7190
 1.3800	31.2310
 1.3810	30.7120
 1.3820	30.1730
 1.3830	29.6120
 1.3840	29.0280
 1.3850	28.4210
 1.3860	27.8010
 1.3870	27.1560
 1.3880	26.5100
 1.3890	25.8530
 1.3900	25.1880
 1.3910	24.5280
 1.3920	23.8670
 1.3930	23.2040
 1.3940	22.5500
 1.3950	21.8980
 1.3960	21.2590
 1.3970	20.6380
 1.3980	20.0340
 1.3990	19.4560
 1.4000	18.8990
 1.4010	18.3620
 1.4020	17.8520
 1.4030	17.3620
 1.4040	16.8980
 1.4050	16.4610
 1.4060	16.0460
 1.4070	15.6620
 1.4080	15.3020
 1.4090	14.9620
 1.4100	14.6490
 1.4110	14.3540
 1.4120	14.0800
 1.4130	13.8280
 1.4140	13.5930
 1.4150	13.3780
 1.4160	13.1790
 1.4170	12.9950
 1.4180	12.8260
 1.4190	12.6700
 1.4200	12.5260
 1.4210	12.3940
 1.4220	12.2720
 1.4230	12.1610
 1.4240	12.0580
 1.4250	11.9630
 1.4260	11.8780
 1.4270	11.7980
 1.4280	11.7250
 1.4290	11.6590
 1.4300	11.6000
 1.4310	11.5450
 1.4320	11.4970
 1.4330	11.4530
 1.4340	11.4140
 1.4350	11.3780
 1.4360	11.3460
 1.4370	11.3190
 1.4380	11.2950
 1.4390	11.2750
 1.4400	11.2590
 1.4410	11.2450
 1.4420	11.2340
 1.4430	11.2260
 1.4440	11.2200
 1.4450	11.2180
 1.4460	11.2170
 1.4470	11.2180
 1.4480	11.2220
 1.4490	11.2260
 1.4500	11.2320
 1.4510	11.2410
 1.4520	11.2510
 1.4530	11.2630
 1.4540	11.2760
 1.4550	11.2920
 1.4560	11.3100
 1.4570	11.3310
 1.4580	11.3550
 1.4590	11.3830
 1.4600	11.4130
 1.4610	11.4480
 1.4620	11.4860
 1.4630	11.5310
 1.4640	11.5800
 1.4650	11.6340
 1.4660	11.6920
 1.4670	11.7530
 1.4680	11.8200
 1.4690	11.8920
 1.4700	11.9670
 1.4710	12.0470
 1.4720	12.1300
 1.4730	12.2160
 1.4740	12.3080
 1.4750	12.4030
 1.4760	12.5030
 1.4770	12.6050
 1.4780	12.7080
 1.4790	12.8140
 1.4800	12.9210
 1.4810	13.0310
 1.4820	13.1440
 1.4830	13.2580
 1.4840	13.3750
 1.4850	13.4920
 1.4860	13.6120
 1.4870	13.7330
 1.4880	13.8550
 1.4890	13.9780
 1.4900	14.1030
 1.4910	14.2290
 1.4920	14.3560
 1.4930	14.4860
 1.4940	14.6150
 1.4950	14.7450
 1.4960	14.8760
 1.4970	15.0050
 1.4980	15.1370
 1.4990	15.2690
 1.5000	15.4020
 1.5010	15.5370
 1.5020	15.6720
 1.5030	15.8080
 1.5040	15.9430
 1.5050	16.0760
 1.5060	16.2120
 1.5070	16.3480
 1.5080	16.4850
 1.5090	16.6220
 1.5100	16.7600
 1.5110	16.8970
 1.5120	17.0340
 1.5130	17.1690
 1.5140	17.3030
 1.5150	17.4370
 1.5160	17.5720
 1.5170	17.7080
 1.5180	17.8430
 1.5190	17.9780
 1.5200	18.1130
 1.5210	18.2450
 1.5220	18.3780
 1.5230	18.5110
 1.5240	18.6450
 1.5250	18.7790
 1.5260	18.9110
 1.5270	19.0420
 1.5280	19.1710
 1.5290	19.2980
 1.5300	19.4270
 1.5310	19.5560
 1.5320	19.6840
 1.5330	19.8120
 1.5340	19.9380
 1.5350	20.0620
 1.5360	20.1860
 1.5370	20.3080
 1.5380	20.4300
 1.5390	20.5530
 1.5400	20.6750
 1.5410	20.7960
 1.5420	20.9170
 1.5430	21.0370
 1.5440	21.1560
 1.5450	21.2730
 1.5460	21.3880
 1.5470	21.5020
 1.5480	21.6170
 1.5490	21.7330
 1.5500	21.8470
 1.5510	21.9600
 1.5520	22.0710
 1.5530	22.1780
 1.5540	22.2870
 1.5550	22.3940
 1.5560	22.5000
 1.5570	22.6050
 1.5580	22.7090
 1.5590	22.8120
 1.5600	22.9160
 1.5610	23.0180
 1.5620	23.1180
 1.5630	23.2190
 1.5640	23.3180
 1.5650	23.4150
 1.5660	23.5110
 1.5670	23.6060
 1.5680	23.7010
 1.5690	23.7940
 1.5700	23.8860
 1.5710	23.9770
 1.5720	24.0690
 1.5730	24.1600
 1.5740	24.2500
 1.5750	24.3390
 1.5760	24.4270
 1.5770	24.5120
 1.5780	24.5970
 1.5790	24.6820
 1.5800	24.7650
 1.5810	24.8490
 1.5820	24.9340
 1.5830	25.0180
 1.5840	25.1010
 1.5850	25.1810
 1.5860	25.2600
 1.5870	25.3390
 1.5880	25.4160
 1.5890	25.4930
 1.5900	25.5700
 1.5910	25.6450
 1.5920	25.7200
 1.5930	25.7930
 1.5940	25.8660
 1.5950	25.9380
 1.5960	26.0090
 1.5970	26.0810
 1.5980	26.1520
 1.5990	26.2220
 1.6000	26.2900
 1.6010	26.3550
 1.6020	26.4200
 1.6030	26.4840
 1.6040	26.5460
 1.6050	26.6080
 1.6060	26.6680
 1.6070	26.7240
 1.6080	26.7820
 1.6090	26.8360
 1.6100	26.8890
 1.6110	26.9420
 1.6120	26.9910
 1.6130	27.0410
 1.6140	27.0900
 1.6150	27.1380
 1.6160	27.1880
 1.6170	27.2350
 1.6180	27.2830
 1.6190	27.3330
 1.6200	27.3820
 1.6210	27.4330
 1.6220	27.4830
 1.6230	27.5280
 1.6240	27.5740
 1.6250	27.6190
 1.6260	27.6620
 1.6270	27.7060
 1.6280	27.7460
 1.6290	27.7850
 1.6300	27.8230
 1.6310	27.8600
 1.6320	27.8960
 1.6330	27.9310
 1.6340	27.9660
 1.6350	28.0000
 1.6360	28.0310
 1.6370	28.0610
 1.6380	28.0900
 1.6390	28.1170
 1.6400	28.1430
 1.6410	28.1660
 1.6420	28.1880
 1.6430	28.2080
 1.6440	28.2270
 1.6450	28.2400
 1.6460	28.2510
 1.6470	28.2590
 1.6480	28.2650
 1.6490	28.2720
 1.6500	28.2790
 1.6510	28.2840
 1.6520	28.2890
 1.6530	28.2940
 1.6540	28.2980
 1.6550	28.3040
 1.6560	28.3110
 1.6570	28.3220
 1.6580	28.3350
 1.6590	28.3480
 1.6600	28.3650
 1.6610	28.3830
 1.6620	28.4020
 1.6630	28.4240
 1.6640	28.4480
 1.6650	28.4700
 1.6660	28.4900
 1.6670	28.5120
 1.6680	28.5310
 1.6690	28.5480
 1.6700	28.5620
 1.6710	28.5720
 1.6720	28.5790
 1.6730	28.5840
 1.6740	28.5850
 1.6750	28.5850
 1.6760	28.5790
 1.6770	28.5690
 1.6780	28.5560
 1.6790	28.5380
 1.6800	28.5160
 1.6810	28.4900
 1.6820	28.4640
 1.6830	28.4330
 1.6840	28.4000
 1.6850	28.3660
 1.6860	28.3300
 1.6870	28.2940
 1.6880	28.2570
 1.6890	28.2200
 1.6900	28.1820
 1.6910	28.1440
 1.6920	28.1070
 1.6930	28.0720
 1.6940	28.0370
 1.6950	28.0010
 1.6960	27.9660
 1.6970	27.9300
 1.6980	27.8940
 1.6990	27.8580
 1.7000	27.8220
 1.7010	27.7840
 1.7020	27.7460
 1.7030	27.7100
 1.7040	27.6710
 1.7050	27.6320
 1.7060	27.5910
 1.7070	27.5480
 1.7080	27.5060
 1.7090	27.4630
 1.7100	27.4190
 1.7110	27.3750
 1.7120	27.3270
 1.7130	27.2780
 1.7140	27.2300
 1.7150	27.1800
 1.7160	27.1290
 1.7170	27.0790
 1.7180	27.0280
 1.7190	26.9760
 1.7200	26.9240
 1.7210	26.8700
 1.7220	26.8120
 1.7230	26.7540
 1.7240	26.6960
 1.7250	26.6370
 1.7260	26.5770
 1.7270	26.5200
 1.7280	26.4630
 1.7290	26.4050
 1.7300	26.3480
 1.7310	26.2930
 1.7320	26.2390
 1.7330	26.1870
 1.7340	26.1380
 1.7350	26.0860
 1.7360	26.0330
 1.7370	25.9790
 1.7380	25.9240
 1.7390	25.8690
 1.7400	25.8150
 1.7410	25.7570
 1.7420	25.6970
 1.7430	25.6350
 1.7440	25.5690
 1.7450	25.5030
 1.7460	25.4360
 1.7470	25.3680
 1.7480	25.2990
 1.7490	25.2270
 1.7500	25.1530
 1.7510	25.0800
 1.7520	25.0040
 1.7530	24.9310
 1.7540	24.8600
 1.7550	24.7870
 1.7560	24.7130
 1.7570	24.6380
 1.7580	24.5650
 1.7590	24.4940
 1.7600	24.4250
 1.7610	24.3560
 1.7620	24.2900
 1.7630	24.2260
 1.7640	24.1630
 1.7650	24.1010
 1.7660	24.0420
 1.7670	23.9820
 1.7680	23.9260
 1.7690	23.8730
 1.7700	23.8210
 1.7710	23.7720
 1.7720	23.7240
 1.7730	23.6770
 1.7740	23.6330
 1.7750	23.5900
 1.7760	23.5490
 1.7770	23.5080
 1.7780	23.4710
 1.7790	23.4350
 1.7800	23.4010
 1.7810	23.3710
 1.7820	23.3420
 1.7830	23.3130
 1.7840	23.2880
 1.7850	23.2670
 1.7860	23.2470
 1.7870	23.2290
 1.7880	23.2120
 1.7890	23.1970
 1.7900	23.1840
 1.7910	23.1720
 1.7920	23.1630
 1.7930	23.1550
 1.7940	23.1490
 1.7950	23.1450
 1.7960	23.1430
 1.7970	23.1430
 1.7980	23.1460
 1.7990	23.1480
 1.8000	23.1490
 1.8010	23.1510
 1.8020	23.1530
 1.8030	23.1560
 1.8040	23.1590
 1.8050	23.1630
 1.8060	23.1680
 1.8070	23.1710
 1.8080	23.1750
 1.8090	23.1800
 1.8100	23.1830
 1.8110	23.1880
 1.8120	23.1930
 1.8130	23.1960
 1.8140	23.1990
 1.8150	23.1990
 1.8160	23.1980
 1.8170	23.1950
 1.8180	23.1930
 1.8190	23.1910
 1.8200	23.1870
 1.8210	23.1840
 1.8220	23.1770
 1.8230	23.1650
 1.8240	23.1550
 1.8250	23.1430
 1.8260	23.1300
 1.8270	23.1180
 1.8280	23.1020
 1.8290	23.0790
 1.8300	23.0580
 1.8310	23.1300
 1.8320	23.0980
 1.8330	23.0610
 1.8340	23.0270
 1.8350	22.9830
 1.8360	22.9300
 1.8370	22.8760
 1.8380	22.8150
 1.8390	22.7500
 1.8400	22.6860
 1.8410	22.6110
 1.8420	22.5300
 1.8430	22.4400
 1.8440	22.3410
 1.8450	22.2340
 1.8460	22.1230
 1.8470	22.0010
 1.8480	21.8700
 1.8490	21.7290
 1.8500	21.5760
 1.8510	21.4120
 1.8520	21.2350
 1.8530	21.0430
 1.8540	20.8440
 1.8550	20.6280
 1.8560	20.3980
 1.8570	20.1610
 1.8580	19.9040
 1.8590	19.6340
 1.8600	19.3480
 1.8610	19.0550
 1.8620	18.7400
 1.8630	18.4130
 1.8640	18.0730
 1.8650	17.7110
 1.8660	17.3350
 1.8670	16.9400
 1.8680	16.5330
 1.8690	16.1100
 1.8700	15.6750
 1.8710	15.2260
 1.8720	14.7750
 1.8730	14.3110
 1.8740	13.8400
 1.8750	13.3680
 1.8760	12.8910
 1.8770	12.4190
 1.8780	11.9520
 1.8790	11.4860
 1.8800	11.0360
 1.8810	10.5970
 1.8820	10.1620
 1.8830	 9.7370
 1.8840	 9.3250
 1.8850	 8.9230
 1.8860	 8.5390
 1.8870	 8.1750
 1.8880	 7.8270
 1.8890	 7.5010
 1.8900	 7.1920
 1.8910	 6.9040
 1.8920	 6.6330
 1.8930	 6.3890
 1.8940	 6.1630
 1.8950	 5.9550
 1.8960	 5.7650
 1.8970	 5.5910
 1.8980	 5.4390
 1.8990	 5.3020
 1.9000	 5.1760
 1.9010	 5.0700
 1.9020	 4.9710
 1.9030	 4.8810
 1.9040	 4.8030
 1.9050	 4.7360
 1.9060	 4.6770
 1.9070	 4.6240
 1.9080	 4.5770
 1.9090	 4.5340
 1.9100	 4.4980
 1.9110	 4.4660
 1.9120	 4.4390
 1.9130	 4.4150
 1.9140	 4.3960
 1.9150	 4.3790
 1.9160	 4.3650
 1.9170	 4.3530
 1.9180	 4.3430
 1.9190	 4.3360
 1.9200	 4.3250
 1.9210	 4.3130
 1.9220	 4.3070
 1.9230	 4.3010
 1.9240	 4.2990
 1.9250	 4.3010
 1.9260	 4.3060
 1.9270	 4.3070
 1.9280	 4.3090
 1.9290	 4.3120
 1.9300	 4.3130
 1.9310	 4.3160
 1.9320	 4.3220
 1.9330	 4.3250
 1.9340	 4.3240
 1.9350	 4.3300
 1.9360	 4.3390
 1.9370	 4.3480
 1.9380	 4.3590
 1.9390	 4.3700
 1.9400	 4.3790
 1.9410	 4.3890
 1.9420	 4.3980
 1.9430	 4.4090
 1.9440	 4.4210
 1.9450	 4.4320
 1.9460	 4.4440
 1.9470	 4.4560
 1.9480	 4.4700
 1.9490	 4.4850
 1.9500	 4.5000
 1.9510	 4.5170
 1.9520	 4.5360
 1.9530	 4.5560
 1.9540	 4.5750
 1.9550	 4.5940
 1.9560	 4.6110
 1.9570	 4.6300
 1.9580	 4.6490
 1.9590	 4.6690
 1.9600	 4.6900
 1.9610	 4.7100
 1.9620	 4.7280
 1.9630	 4.7500
 1.9640	 4.7760
 1.9650	 4.8020
 1.9660	 4.8290
 1.9670	 4.8550
 1.9680	 4.8800
 1.9690	 4.9000
 1.9700	 4.9260
 1.9710	 4.9550
 1.9720	 4.9840
 1.9730	 5.0150
 1.9740	 5.0460
 1.9750	 5.0740
 1.9760	 5.1040
 1.9770	 5.1370
 1.9780	 5.1700
 1.9790	 5.2040
 1.9800	 5.2390
 1.9810	 5.2730
 1.9820	 5.3040
 1.9830	 5.3380
 1.9840	 5.3740
 1.9850	 5.4090
 1.9860	 5.4440
 1.9870	 5.4790
 1.9880	 5.5170
 1.9890	 5.5550
 1.9900	 5.5940
 1.9910	 5.6350
 1.9920	 5.6740
 1.9930	 5.7130
 1.9940	 5.7530
 1.9950	 5.7930
 1.9960	 5.8340
 1.9970	 5.8760
 1.9980	 5.9190
 1.9990	 5.9640
 2.0000	 6.0070
 2.0010	 6.0500
 2.0020	 6.0960
 2.0030	 6.1400
 2.0040	 6.1830
 2.0050	 6.2280
 2.0060	 6.2720
 2.0070	 6.3160
 2.0080	 6.3630
 2.0090	 6.4080
 2.0100	 6.4490
 2.0110	 6.4950
 2.0120	 6.5430
 2.0130	 6.5900
 2.0140	 6.6390
 2.0150	 6.6890
 2.0160	 6.7360
 2.0170	 6.7820
 2.0180	 6.8290
 2.0190	 6.8800
 2.0200	 6.9270
 2.0210	 6.9720
 2.0220	 7.0190
 2.0230	 7.0640
 2.0240	 7.1100
 2.0250	 7.1600
 2.0260	 7.2050
 2.0270	 7.2460
 2.0280	 7.2910
 2.0290	 7.3340
 2.0300	 7.3750
 2.0310	 7.4210
 2.0320	 7.4700
 2.0330	 7.5170
 2.0340	 7.5650
 2.0350	 7.6100
 2.0360	 7.6510
 2.0370	 7.6950
 2.0380	 7.7380
 2.0390	 7.7810
 2.0400	 7.8250
 2.0410	 7.8680
 2.0420	 7.9100
 2.0430	 7.9520
 2.0440	 7.9940
 2.0450	 8.0370
 2.0460	 8.0780
 2.0470	 8.1170
 2.0480	 8.1570
 2.0490	 8.1960
 2.0500	 8.2370
 2.0510	 8.2820
 2.0520	 8.3240
 2.0530	 8.3640
 2.0540	 8.4070
 2.0550	 8.4510
 2.0560	 8.4940
 2.0570	 8.5420
 2.0580	 8.5900
 2.0590	 8.6340
 2.0600	 8.6750
 2.0610	 8.7180
 2.0620	 8.7580
 2.0630	 8.8010
 2.0640	 8.8470
 2.0650	 8.8910
 2.0660	 8.9350
 2.0670	 8.9790
 2.0680	 9.0230
 2.0690	 9.0660
 2.0700	 9.1070
 2.0710	 9.1490
 2.0720	 9.1910
 2.0730	 9.2340
 2.0740	 9.2790
 2.0750	 9.3270
 2.0760	 9.3730
 2.0770	 9.4210
 2.0780	 9.4660
 2.0790	 9.5110
 2.0800	 9.5540
 2.0810	 9.5960
 2.0820	 9.6390
 2.0830	 9.6790
 2.0840	 9.7220
 2.0850	 9.7680
 2.0860	 9.8100
 2.0870	 9.8500
 2.0880	 9.8900
 2.0890	 9.9290
 2.0900	 9.9620
 2.0910	10.0030
 2.0920	10.0460
 2.0930	10.0890
 2.0940	10.1360
 2.0950	10.1800
 2.0960	10.2240
 2.0970	10.2640
 2.0980	10.2990
 2.0990	10.3380
 2.1000	10.3740
 2.1010	10.4130
 2.1020	10.4590
 2.1030	10.4990
 2.1040	10.5370
 2.1050	10.5710
 2.1060	10.6090
 2.1070	10.6440
 2.1080	10.6820
 2.1090	10.7250
 2.1100	10.7630
 2.1110	10.7990
 2.1120	10.8360
 2.1130	10.8730
 2.1140	10.9090
 2.1150	10.9480
 2.1160	10.9830
 2.1170	11.0160
 2.1180	11.0480
 2.1190	11.0740
 2.1200	11.1040
 2.1210	11.1370
 2.1220	11.1670
 2.1230	11.1960
 2.1240	11.2270
 2.1250	11.2570
 2.1260	11.2840
 2.1270	11.3140
 2.1280	11.3440
 2.1290	11.3740
 2.1300	11.4060
 2.1310	11.4360
 2.1320	11.4650
 2.1330	11.4960
 2.1340	11.5270
 2.1350	11.5580
 2.1360	11.5930
 2.1370	11.6250
 2.1380	11.6540
 2.1390	11.6850
 2.1400	11.7140
 2.1410	11.7450
 2.1420	11.7760
 2.1430	11.8070
 2.1440	11.8370
 2.1450	11.8640
 2.1460	11.8940
 2.1470	11.9240
 2.1480	11.9550
 2.1490	11.9880
 2.1500	12.0180
 2.1510	12.0470
 2.1520	12.0740
 2.1530	12.0960
 2.1540	12.1210
 2.1550	12.1450
 2.1560	12.1700
 2.1570	12.1980
 2.1580	12.2240
 2.1590	12.2490
 2.1600	12.2740
 2.1610	12.2970
 2.1620	12.3190
 2.1630	12.3410
 2.1640	12.3610
 2.1650	12.3840
 2.1660	12.4090
 2.1670	12.4300
 2.1680	12.4510
 2.1690	12.4680
 2.1700	12.4800
 2.1710	12.4980
 2.1720	12.5130
 2.1730	12.5340
 2.1740	12.5630
 2.1750	12.5850
 2.1760	12.6040
 2.1770	12.6270
 2.1780	12.6500
 2.1790	12.6720
 2.1800	12.7030
 2.1810	12.7260
 2.1820	12.7400
 2.1830	12.7580
 2.1840	12.7760
 2.1850	12.7910
 2.1860	12.8140
 2.1870	12.8430
 2.1880	12.8660
 2.1890	12.8890
 2.1900	12.9110
 2.1910	12.9300
 2.1920	12.9520
 2.1930	12.9790
 2.1940	13.0000
 2.1950	13.0180
 2.1960	13.0360
 2.1970	13.0480
 2.1980	13.0640
 2.1990	13.0820
 2.2000	13.1000
 2.2010	13.1210
 2.2020	13.1380
 2.2030	13.1530
 2.2040	13.1670
 2.2050	13.1770
 2.2060	13.1880
 2.2070	13.1980
 2.2080	13.2100
 2.2090	13.2210
 2.2100	13.2330
 2.2110	13.2430
 2.2120	13.2550
 2.2130	13.2650
 2.2140	13.2730
 2.2150	13.2810
 2.2160	13.2910
 2.2170	13.2980
 2.2180	13.3070
 2.2190	13.3120
 2.2200	13.3140
 2.2210	13.3150
 2.2220	13.3110
 2.2230	13.3100
 2.2240	13.3130
 2.2250	13.3120
 2.2260	13.3120
 2.2270	13.3080
 2.2280	13.3010
 2.2290	13.2910
 2.2300	13.2780
 2.2310	13.2610
 2.2320	13.2460
 2.2330	13.2320
 2.2340	13.2130
 2.2350	13.1970
 2.2360	13.1770
 2.2370	13.1510
 2.2380	13.1260
 2.2390	13.1040
 2.2400	13.0750
 2.2410	13.0370
 2.2420	13.0060
 2.2430	12.9770
 2.2440	12.9430
 2.2450	12.9120
 2.2460	12.8770
 2.2470	12.8380
 2.2480	12.7970
 2.2490	12.7510
 2.2500	12.7100
 2.2510	12.6710
 2.2520	12.6260
 2.2530	12.5820
 2.2540	12.5360
 2.2550	12.4790
 2.2560	12.4300
 2.2570	12.3900
 2.2580	12.3420
 2.2590	12.2940
 2.2600	12.2440
 2.2610	12.1900
 2.2620	12.1360
 2.2630	12.0920
 2.2640	12.0430
 2.2650	11.9920
 2.2660	11.9460
 2.2670	11.8980
 2.2680	11.8480
 2.2690	11.8010
 2.2700	11.7580
 2.2710	11.7150
 2.2720	11.6710
 2.2730	11.6330
 2.2740	11.6010
 2.2750	11.5630
 2.2760	11.5260
 2.2770	11.4890
 2.2780	11.4490
 2.2790	11.4110
 2.2800	11.3740
 2.2810	11.3380
 2.2820	11.3040
 2.2830	11.2670
 2.2840	11.2290
 2.2850	11.1940
 2.2860	11.1580
 2.2870	11.1220
 2.2880	11.0910
 2.2890	11.0540
 2.2900	11.0110
 2.2910	10.9710
 2.2920	10.9290
 2.2930	10.8880
 2.2940	10.8510
 2.2950	10.8120
 2.2960	10.7740
 2.2970	10.7330
 2.2980	10.6890
 2.2990	10.6460
 2.3000	10.6010
 2.3010	10.5500
 2.3020	10.4990
 2.3030	10.4480
 2.3040	10.3990
 2.3050	10.3530
 2.3060	10.3160
 2.3070	10.2800
 2.3080	10.2440
 2.3090	10.2110
 2.3100	10.1730
 2.3110	10.1400
 2.3120	10.1090
 2.3130	10.0810
 2.3140	10.0550
 2.3150	10.0330
 2.3160	10.0090
 2.3170	 9.9870
 2.3180	 9.9630
 2.3190	 9.9400
 2.3200	 9.9160
 2.3210	 9.8940
 2.3220	 9.8690
 2.3230	 9.8440
 2.3240	 9.8170
 2.3250	 9.7900
 2.3260	 9.7600
 2.3270	 9.7260
 2.3280	 9.6950
 2.3290	 9.6610
 2.3300	 9.6290
 2.3310	 9.6000
 2.3320	 9.5660
 2.3330	 9.5290
 2.3340	 9.4930
 2.3350	 9.4560
 2.3360	 9.4190
 2.3370	 9.3820
 2.3380	 9.3450
 2.3390	 9.3120
 2.3400	 9.2720
 2.3410	 9.2260
 2.3420	 9.1860
 2.3430	 9.1390
 2.3440	 9.0990
 2.3450	 9.0700
 2.3460	 9.0360
 2.3470	 9.0030
 2.3480	 8.9700
 2.3490	 8.9340
 2.3500	 8.9000
 2.3510	 8.8680
 2.3520	 8.8350
 2.3530	 8.8050
 2.3540	 8.7730
 2.3550	 8.7420
 2.3560	 8.7140
 2.3570	 8.6870
 2.3580	 8.6630
 2.3590	 8.6500
 2.3600	 8.6250
 2.3610	 8.5980
 2.3620	 8.5740
 2.3630	 8.5290
 2.3640	 8.4890
 2.3650	 8.4560
 2.3660	 8.4190
 2.3670	 8.3950
 2.3680	 8.3700
 2.3690	 8.3410
 2.3700	 8.3170
 2.3710	 8.2900
 2.3720	 8.2550
 2.3730	 8.2160
 2.3740	 8.1790
 2.3750	 8.1350
 2.3760	 8.0950
 2.3770	 8.0710
 2.3780	 8.0330
 2.3790	 7.9930
 2.3800	 7.9650
 2.3810	 7.9130
 2.3820	 7.8660
 2.3830	 7.8270
 2.3840	 7.7780
 2.3850	 7.7460
 2.3860	 7.7220
 2.3870	 7.6910
 2.3880	 7.6570
 2.3890	 7.6200
 2.3900	 7.5770
 2.3910	 7.5410
 2.3920	 7.5130
 2.3930	 7.4840
 2.3940	 7.4510
 2.3950	 7.4120
 2.3960	 7.3820
 2.3970	 7.3470
 2.3980	 7.3110
 2.3990	 7.2930
 2.4000	 7.2620
 2.4010	 7.2280
 2.4020	 7.2010
 2.4030	 7.1540
 2.4040	 7.1090
 2.4050	 7.0720
 2.4060	 7.0380
 2.4070	 7.0140
 2.4080	 6.9960
 2.4090	 6.9760
 2.4100	 6.9470
 2.4110	 6.9240
 2.4120	 6.8890
 2.4130	 6.8420
 2.4140	 6.8090
 2.4150	 6.7660
 2.4160	 6.7240
 2.4170	 6.6970
 2.4180	 6.6720
 2.4190	 6.6530
 2.4200	 6.6350
 2.4210	 6.6090
 2.4220	 6.5740
 2.4230	 6.5340
 2.4240	 6.4970
 2.4250	 6.4650
 2.4260	 6.4400
 2.4270	 6.4280
 2.4280	 6.4100
 2.4290	 6.3830
 2.4300	 6.3620
 2.4310	 6.3410
 2.4320	 6.3040
 2.4330	 6.2690
 2.4340	 6.2340
 2.4350	 6.2060
 2.4360	 6.1950
 2.4370	 6.1710
 2.4380	 6.1490
 2.4390	 6.1000
 2.4400	 6.0410
 2.4410	 6.0320
 2.4420	 6.0120
 2.4430	 5.9800
 2.4440	 5.9590
 2.4450	 5.9230
 2.4460	 5.8740
 2.4470	 5.8490
 2.4480	 5.8280
 2.4490	 5.7680
 2.4500	 5.7220
 2.4510	 5.6990
 2.4520	 5.6850
 2.4530	 5.7000
 2.4540	 5.7010
 2.4550	 5.6740
 2.4560	 5.6360
 2.4570	 5.6020
 2.4580	 5.5940
 2.4590	 5.5900
 2.4600	 5.5830
 2.4610	 5.5910
 2.4620	 5.5800
 2.4630	 5.5440
 2.4640	 5.5300
 2.4650	 5.4820
 2.4660	 5.4320
 2.4670	 5.4520
 2.4680	 5.4490
 2.4690	 5.4310
 2.4700	 5.4070
 2.4710	 5.3480
 2.4720	 5.3350
 2.4730	 5.3610
 2.4740	 5.3490
 2.4750	 5.3420
 2.4760	 5.3170
 2.4770	 5.2470
 2.4780	 5.2210
 2.4790	 5.2180
 2.4800	 5.2180
 2.4810	 5.2370
 2.4820	 5.2210
 2.4830	 5.2030
 2.4840	 5.1730
 2.4850	 5.1430
 2.4860	 5.1520
 2.4870	 5.1670
 2.4880	 5.1890
 2.4890	 5.2020
 2.4900	 5.1710
 2.4910	 5.1590
 2.4920	 5.1520
 2.4930	 5.1790
 2.4940	 5.1920
 2.4950	 5.1690
 2.4960	 5.2010
 2.4970	 5.1510
 2.4980	 5.0810
 2.4990	 5.0940
 2.5000	 5.0660
