Name: Betula papyrifera
Type: Vegetation
Class: Tree
Genus: Betula
Species: papyrifera
Sample No.: BEPA-2-37
Owner: UCSB
Wavelength Range: VSWIR
Origin: USA; Massachusetts; Harvard Forest
Collection Date: 7/8/2013
Description: Samples were collected as part of NSF Macrosystem Biology proposal titled: Collaborative Research: Thermal controls on ecosystem metabolism and function: scaling from leaves to canopies to regions. Samples were collected and overnighted to JPL facilities for processing. The same leaves were processed in the Nicolet and then measured using the ASD.
Measurement: Bidirectional reflectance
First Column: X
Second Column: Y
X Units: Wavelength (micrometers)
Y Units: Reflectance (percentage)
First X Value: 0.35
Last X Value: 2.5
Number of X Values: 2151
Additional Information: vegetation.tree.betula.papyrifera.vswir.bepa-2-37.ucsb.asd.ancillary.txt

 0.3500	 4.6990
 0.3510	 4.8060
 0.3520	 4.8350
 0.3530	 4.8340
 0.3540	 4.8720
 0.3550	 4.7760
 0.3560	 4.8430
 0.3570	 4.9610
 0.3580	 4.8530
 0.3590	 4.6980
 0.3600	 4.7230
 0.3610	 4.8970
 0.3620	 4.8360
 0.3630	 4.8310
 0.3640	 4.8850
 0.3650	 4.9040
 0.3660	 4.6960
 0.3670	 4.6200
 0.3680	 4.7500
 0.3690	 4.9330
 0.3700	 4.9320
 0.3710	 4.8470
 0.3720	 4.7630
 0.3730	 4.6290
 0.3740	 4.7210
 0.3750	 4.8570
 0.3760	 4.7950
 0.3770	 4.7580
 0.3780	 4.7140
 0.3790	 4.6940
 0.3800	 4.7800
 0.3810	 4.8620
 0.3820	 4.8390
 0.3830	 4.7250
 0.3840	 4.7720
 0.3850	 4.7790
 0.3860	 4.7470
 0.3870	 4.7500
 0.3880	 4.8200
 0.3890	 4.8560
 0.3900	 4.8320
 0.3910	 4.7950
 0.3920	 4.7950
 0.3930	 4.8340
 0.3940	 4.8880
 0.3950	 4.8770
 0.3960	 4.8750
 0.3970	 4.8730
 0.3980	 4.8340
 0.3990	 4.8280
 0.4000	 4.8320
 0.4010	 4.8290
 0.4020	 4.8230
 0.4030	 4.8240
 0.4040	 4.8420
 0.4050	 4.8830
 0.4060	 4.9200
 0.4070	 4.9520
 0.4080	 4.9640
 0.4090	 4.9390
 0.4100	 4.9420
 0.4110	 4.9740
 0.4120	 5.0070
 0.4130	 4.9840
 0.4140	 5.0090
 0.4150	 5.0450
 0.4160	 5.0340
 0.4170	 5.0500
 0.4180	 5.0700
 0.4190	 5.0790
 0.4200	 5.0780
 0.4210	 5.0980
 0.4220	 5.1310
 0.4230	 5.1620
 0.4240	 5.1710
 0.4250	 5.1730
 0.4260	 5.1770
 0.4270	 5.1880
 0.4280	 5.2080
 0.4290	 5.2230
 0.4300	 5.2290
 0.4310	 5.2370
 0.4320	 5.2530
 0.4330	 5.2650
 0.4340	 5.2650
 0.4350	 5.2780
 0.4360	 5.2830
 0.4370	 5.2790
 0.4380	 5.2810
 0.4390	 5.3030
 0.4400	 5.3120
 0.4410	 5.2930
 0.4420	 5.2970
 0.4430	 5.2870
 0.4440	 5.2820
 0.4450	 5.3120
 0.4460	 5.3410
 0.4470	 5.3490
 0.4480	 5.3430
 0.4490	 5.3630
 0.4500	 5.3660
 0.4510	 5.3670
 0.4520	 5.3820
 0.4530	 5.3890
 0.4540	 5.3910
 0.4550	 5.3960
 0.4560	 5.4130
 0.4570	 5.4120
 0.4580	 5.4070
 0.4590	 5.4070
 0.4600	 5.4100
 0.4610	 5.4150
 0.4620	 5.4210
 0.4630	 5.4250
 0.4640	 5.4150
 0.4650	 5.4080
 0.4660	 5.4100
 0.4670	 5.4190
 0.4680	 5.4190
 0.4690	 5.4150
 0.4700	 5.4170
 0.4710	 5.4320
 0.4720	 5.4300
 0.4730	 5.4240
 0.4740	 5.4370
 0.4750	 5.4360
 0.4760	 5.4260
 0.4770	 5.4170
 0.4780	 5.4210
 0.4790	 5.4250
 0.4800	 5.4260
 0.4810	 5.4230
 0.4820	 5.4400
 0.4830	 5.4420
 0.4840	 5.4280
 0.4850	 5.4290
 0.4860	 5.4320
 0.4870	 5.4460
 0.4880	 5.4680
 0.4890	 5.4670
 0.4900	 5.4710
 0.4910	 5.4820
 0.4920	 5.4910
 0.4930	 5.4960
 0.4940	 5.5020
 0.4950	 5.5150
 0.4960	 5.5380
 0.4970	 5.5450
 0.4980	 5.5560
 0.4990	 5.5920
 0.5000	 5.6060
 0.5010	 5.6210
 0.5020	 5.6450
 0.5030	 5.6730
 0.5040	 5.6980
 0.5050	 5.7270
 0.5060	 5.7690
 0.5070	 5.8240
 0.5080	 5.8750
 0.5090	 5.9330
 0.5100	 6.0140
 0.5110	 6.0760
 0.5120	 6.1500
 0.5130	 6.2490
 0.5140	 6.3610
 0.5150	 6.4780
 0.5160	 6.6070
 0.5170	 6.7530
 0.5180	 6.8960
 0.5190	 7.0560
 0.5200	 7.2330
 0.5210	 7.4130
 0.5220	 7.5940
 0.5230	 7.7820
 0.5240	 7.9740
 0.5250	 8.1550
 0.5260	 8.3370
 0.5270	 8.5150
 0.5280	 8.6800
 0.5290	 8.8410
 0.5300	 8.9830
 0.5310	 9.1090
 0.5320	 9.2410
 0.5330	 9.3440
 0.5340	 9.4320
 0.5350	 9.5220
 0.5360	 9.5890
 0.5370	 9.6580
 0.5380	 9.7270
 0.5390	 9.7820
 0.5400	 9.8280
 0.5410	 9.8730
 0.5420	 9.9220
 0.5430	 9.9670
 0.5440	10.0170
 0.5450	10.0680
 0.5460	10.1100
 0.5470	10.1340
 0.5480	10.1480
 0.5490	10.1590
 0.5500	10.1800
 0.5510	10.2000
 0.5520	10.2070
 0.5530	10.1980
 0.5540	10.1870
 0.5550	10.1590
 0.5560	10.1120
 0.5570	10.0540
 0.5580	 9.9870
 0.5590	 9.9100
 0.5600	 9.8230
 0.5610	 9.7320
 0.5620	 9.6290
 0.5630	 9.5160
 0.5640	 9.3970
 0.5650	 9.2730
 0.5660	 9.1380
 0.5670	 8.9970
 0.5680	 8.8610
 0.5690	 8.7210
 0.5700	 8.5820
 0.5710	 8.4480
 0.5720	 8.3210
 0.5730	 8.1980
 0.5740	 8.0810
 0.5750	 7.9760
 0.5760	 7.8870
 0.5770	 7.8040
 0.5780	 7.7230
 0.5790	 7.6500
 0.5800	 7.5750
 0.5810	 7.5000
 0.5820	 7.4340
 0.5830	 7.3740
 0.5840	 7.3200
 0.5850	 7.2680
 0.5860	 7.2200
 0.5870	 7.1740
 0.5880	 7.1300
 0.5890	 7.0870
 0.5900	 7.0530
 0.5910	 7.0240
 0.5920	 7.0010
 0.5930	 6.9830
 0.5940	 6.9630
 0.5950	 6.9390
 0.5960	 6.9150
 0.5970	 6.8970
 0.5980	 6.8760
 0.5990	 6.8520
 0.6000	 6.8300
 0.6010	 6.8100
 0.6020	 6.7890
 0.6030	 6.7640
 0.6040	 6.7370
 0.6050	 6.7080
 0.6060	 6.6730
 0.6070	 6.6340
 0.6080	 6.6000
 0.6090	 6.5680
 0.6100	 6.5320
 0.6110	 6.4870
 0.6120	 6.4430
 0.6130	 6.4000
 0.6140	 6.3570
 0.6150	 6.3150
 0.6160	 6.2810
 0.6170	 6.2500
 0.6180	 6.2180
 0.6190	 6.1860
 0.6200	 6.1610
 0.6210	 6.1420
 0.6220	 6.1210
 0.6230	 6.1030
 0.6240	 6.0890
 0.6250	 6.0810
 0.6260	 6.0710
 0.6270	 6.0640
 0.6280	 6.0560
 0.6290	 6.0450
 0.6300	 6.0380
 0.6310	 6.0320
 0.6320	 6.0240
 0.6330	 6.0150
 0.6340	 5.9930
 0.6350	 5.9720
 0.6360	 5.9570
 0.6370	 5.9310
 0.6380	 5.8990
 0.6390	 5.8670
 0.6400	 5.8370
 0.6410	 5.8090
 0.6420	 5.7750
 0.6430	 5.7390
 0.6440	 5.7120
 0.6450	 5.6850
 0.6460	 5.6590
 0.6470	 5.6370
 0.6480	 5.6130
 0.6490	 5.5940
 0.6500	 5.5790
 0.6510	 5.5700
 0.6520	 5.5570
 0.6530	 5.5440
 0.6540	 5.5350
 0.6550	 5.5260
 0.6560	 5.5180
 0.6570	 5.5090
 0.6580	 5.4950
 0.6590	 5.4850
 0.6600	 5.4730
 0.6610	 5.4570
 0.6620	 5.4440
 0.6630	 5.4330
 0.6640	 5.4240
 0.6650	 5.4200
 0.6660	 5.4160
 0.6670	 5.4120
 0.6680	 5.4100
 0.6690	 5.4110
 0.6700	 5.4220
 0.6710	 5.4310
 0.6720	 5.4360
 0.6730	 5.4460
 0.6740	 5.4590
 0.6750	 5.4780
 0.6760	 5.5020
 0.6770	 5.5220
 0.6780	 5.5430
 0.6790	 5.5680
 0.6800	 5.6010
 0.6810	 5.6320
 0.6820	 5.6620
 0.6830	 5.6940
 0.6840	 5.7310
 0.6850	 5.7730
 0.6860	 5.8200
 0.6870	 5.8700
 0.6880	 5.9290
 0.6890	 6.0000
 0.6900	 6.0910
 0.6910	 6.2130
 0.6920	 6.3690
 0.6930	 6.5690
 0.6940	 6.8260
 0.6950	 7.1430
 0.6960	 7.5330
 0.6970	 8.0010
 0.6980	 8.5490
 0.6990	 9.1610
 0.7000	 9.8470
 0.7010	10.6050
 0.7020	11.4220
 0.7030	12.2830
 0.7040	13.1850
 0.7050	14.1230
 0.7060	15.0770
 0.7070	16.0540
 0.7080	17.0450
 0.7090	18.0410
 0.7100	19.0470
 0.7110	20.0610
 0.7120	21.0770
 0.7130	22.0840
 0.7140	23.0910
 0.7150	24.0910
 0.7160	25.0750
 0.7170	26.0530
 0.7180	27.0080
 0.7190	27.9390
 0.7200	28.8520
 0.7210	29.7430
 0.7220	30.6130
 0.7230	31.4570
 0.7240	32.2620
 0.7250	33.0240
 0.7260	33.7600
 0.7270	34.4790
 0.7280	35.1470
 0.7290	35.7890
 0.7300	36.4010
 0.7310	36.9730
 0.7320	37.5230
 0.7330	38.0260
 0.7340	38.4910
 0.7350	38.9580
 0.7360	39.3690
 0.7370	39.7470
 0.7380	40.1150
 0.7390	40.4450
 0.7400	40.7710
 0.7410	41.0760
 0.7420	41.3340
 0.7430	41.5680
 0.7440	41.7930
 0.7450	42.0150
 0.7460	42.2260
 0.7470	42.4010
 0.7480	42.5450
 0.7490	42.6750
 0.7500	42.8250
 0.7510	42.9440
 0.7520	43.0410
 0.7530	43.1410
 0.7540	43.2270
 0.7550	43.3080
 0.7560	43.3860
 0.7570	43.4570
 0.7580	43.5040
 0.7590	43.5560
 0.7600	43.6210
 0.7610	43.6500
 0.7620	43.6910
 0.7630	43.7350
 0.7640	43.7630
 0.7650	43.7910
 0.7660	43.8050
 0.7670	43.8220
 0.7680	43.8630
 0.7690	43.8700
 0.7700	43.8800
 0.7710	43.9090
 0.7720	43.9280
 0.7730	43.9340
 0.7740	43.9420
 0.7750	43.9660
 0.7760	43.9750
 0.7770	43.9840
 0.7780	43.9910
 0.7790	43.9930
 0.7800	44.0180
 0.7810	44.0410
 0.7820	44.0490
 0.7830	44.0430
 0.7840	44.0470
 0.7850	44.0530
 0.7860	44.0590
 0.7870	44.0860
 0.7880	44.1020
 0.7890	44.1120
 0.7900	44.1270
 0.7910	44.1260
 0.7920	44.1180
 0.7930	44.1190
 0.7940	44.1390
 0.7950	44.1600
 0.7960	44.1620
 0.7970	44.1490
 0.7980	44.1630
 0.7990	44.1780
 0.8000	44.1920
 0.8010	44.1980
 0.8020	44.1800
 0.8030	44.1710
 0.8040	44.1780
 0.8050	44.1880
 0.8060	44.1760
 0.8070	44.1770
 0.8080	44.1920
 0.8090	44.1890
 0.8100	44.1880
 0.8110	44.1890
 0.8120	44.1850
 0.8130	44.1690
 0.8140	44.1660
 0.8150	44.1720
 0.8160	44.1790
 0.8170	44.1810
 0.8180	44.1720
 0.8190	44.1560
 0.8200	44.1470
 0.8210	44.1610
 0.8220	44.1620
 0.8230	44.1480
 0.8240	44.1530
 0.8250	44.1460
 0.8260	44.1410
 0.8270	44.1430
 0.8280	44.1320
 0.8290	44.1320
 0.8300	44.1300
 0.8310	44.1110
 0.8320	44.0960
 0.8330	44.1020
 0.8340	44.1160
 0.8350	44.1150
 0.8360	44.1020
 0.8370	44.0970
 0.8380	44.1040
 0.8390	44.1050
 0.8400	44.0950
 0.8410	44.0920
 0.8420	44.0970
 0.8430	44.0890
 0.8440	44.0840
 0.8450	44.0840
 0.8460	44.0860
 0.8470	44.0890
 0.8480	44.0940
 0.8490	44.0990
 0.8500	44.0980
 0.8510	44.1010
 0.8520	44.0960
 0.8530	44.0910
 0.8540	44.1030
 0.8550	44.1070
 0.8560	44.1080
 0.8570	44.1090
 0.8580	44.1080
 0.8590	44.1120
 0.8600	44.1190
 0.8610	44.1230
 0.8620	44.1180
 0.8630	44.1150
 0.8640	44.1120
 0.8650	44.1090
 0.8660	44.1190
 0.8670	44.1170
 0.8680	44.1210
 0.8690	44.1510
 0.8700	44.1670
 0.8710	44.1640
 0.8720	44.1540
 0.8730	44.1520
 0.8740	44.1650
 0.8750	44.1850
 0.8760	44.1960
 0.8770	44.1870
 0.8780	44.1870
 0.8790	44.1880
 0.8800	44.1900
 0.8810	44.1990
 0.8820	44.1900
 0.8830	44.1900
 0.8840	44.2090
 0.8850	44.1950
 0.8860	44.2120
 0.8870	44.2310
 0.8880	44.2210
 0.8890	44.2350
 0.8900	44.2440
 0.8910	44.2470
 0.8920	44.2520
 0.8930	44.2470
 0.8940	44.2630
 0.8950	44.2890
 0.8960	44.2890
 0.8970	44.2780
 0.8980	44.2730
 0.8990	44.2770
 0.9000	44.2740
 0.9010	44.2710
 0.9020	44.2920
 0.9030	44.3270
 0.9040	44.3190
 0.9050	44.3000
 0.9060	44.3020
 0.9070	44.3270
 0.9080	44.3250
 0.9090	44.3240
 0.9100	44.3300
 0.9110	44.3400
 0.9120	44.3520
 0.9130	44.3550
 0.9140	44.3520
 0.9150	44.3530
 0.9160	44.3780
 0.9170	44.3770
 0.9180	44.3670
 0.9190	44.3830
 0.9200	44.3830
 0.9210	44.3780
 0.9220	44.3810
 0.9230	44.3980
 0.9240	44.3920
 0.9250	44.3770
 0.9260	44.3630
 0.9270	44.3560
 0.9280	44.3690
 0.9290	44.3850
 0.9300	44.3850
 0.9310	44.3530
 0.9320	44.3450
 0.9330	44.3480
 0.9340	44.3430
 0.9350	44.3190
 0.9360	44.3280
 0.9370	44.3270
 0.9380	44.3020
 0.9390	44.3070
 0.9400	44.2960
 0.9410	44.2920
 0.9420	44.3000
 0.9430	44.2670
 0.9440	44.2660
 0.9450	44.2660
 0.9460	44.2440
 0.9470	44.2310
 0.9480	44.2040
 0.9490	44.1680
 0.9500	44.1420
 0.9510	44.1420
 0.9520	44.1270
 0.9530	44.0900
 0.9540	44.0470
 0.9550	44.0240
 0.9560	44.0010
 0.9570	43.9780
 0.9580	43.9550
 0.9590	43.9320
 0.9600	43.9030
 0.9610	43.8820
 0.9620	43.8790
 0.9630	43.8620
 0.9640	43.8410
 0.9650	43.8370
 0.9660	43.8540
 0.9670	43.8300
 0.9680	43.7990
 0.9690	43.7830
 0.9700	43.7890
 0.9710	43.7940
 0.9720	43.7830
 0.9730	43.7680
 0.9740	43.7730
 0.9750	43.7820
 0.9760	43.7990
 0.9770	43.8070
 0.9780	43.7900
 0.9790	43.7870
 0.9800	43.7910
 0.9810	43.7850
 0.9820	43.7590
 0.9830	43.7530
 0.9840	43.7440
 0.9850	43.7510
 0.9860	43.7950
 0.9870	43.7990
 0.9880	43.8140
 0.9890	43.8210
 0.9900	43.7870
 0.9910	43.7730
 0.9920	43.8090
 0.9930	43.8460
 0.9940	43.8820
 0.9950	43.9190
 0.9960	43.9550
 0.9970	43.9920
 0.9980	44.0280
 0.9990	44.0650
 1.0000	44.1010
 1.0010	44.1380
 1.0020	44.1740
 1.0030	44.2110
 1.0040	44.2470
 1.0050	44.2840
 1.0060	44.3200
 1.0070	44.3570
 1.0080	44.3930
 1.0090	44.4300
 1.0100	44.4300
 1.0110	44.4430
 1.0120	44.4510
 1.0130	44.4560
 1.0140	44.4610
 1.0150	44.4670
 1.0160	44.4680
 1.0170	44.4640
 1.0180	44.4720
 1.0190	44.4800
 1.0200	44.4820
 1.0210	44.4930
 1.0220	44.5030
 1.0230	44.5070
 1.0240	44.5050
 1.0250	44.5120
 1.0260	44.5180
 1.0270	44.5250
 1.0280	44.5400
 1.0290	44.5490
 1.0300	44.5570
 1.0310	44.5630
 1.0320	44.5660
 1.0330	44.5710
 1.0340	44.5740
 1.0350	44.5700
 1.0360	44.5720
 1.0370	44.5680
 1.0380	44.5710
 1.0390	44.5740
 1.0400	44.5830
 1.0410	44.6020
 1.0420	44.6110
 1.0430	44.6220
 1.0440	44.6260
 1.0450	44.6200
 1.0460	44.6180
 1.0470	44.6170
 1.0480	44.6160
 1.0490	44.6130
 1.0500	44.6140
 1.0510	44.6150
 1.0520	44.6210
 1.0530	44.6250
 1.0540	44.6310
 1.0550	44.6370
 1.0560	44.6440
 1.0570	44.6480
 1.0580	44.6500
 1.0590	44.6540
 1.0600	44.6540
 1.0610	44.6560
 1.0620	44.6610
 1.0630	44.6640
 1.0640	44.6630
 1.0650	44.6650
 1.0660	44.6730
 1.0670	44.6750
 1.0680	44.6740
 1.0690	44.6730
 1.0700	44.6730
 1.0710	44.6710
 1.0720	44.6710
 1.0730	44.6790
 1.0740	44.6800
 1.0750	44.6780
 1.0760	44.6760
 1.0770	44.6720
 1.0780	44.6700
 1.0790	44.6690
 1.0800	44.6670
 1.0810	44.6650
 1.0820	44.6650
 1.0830	44.6670
 1.0840	44.6680
 1.0850	44.6750
 1.0860	44.6770
 1.0870	44.6750
 1.0880	44.6700
 1.0890	44.6650
 1.0900	44.6560
 1.0910	44.6480
 1.0920	44.6400
 1.0930	44.6340
 1.0940	44.6280
 1.0950	44.6230
 1.0960	44.6220
 1.0970	44.6190
 1.0980	44.6160
 1.0990	44.6130
 1.1000	44.6140
 1.1010	44.6100
 1.1020	44.6030
 1.1030	44.5960
 1.1040	44.5890
 1.1050	44.5810
 1.1060	44.5710
 1.1070	44.5610
 1.1080	44.5520
 1.1090	44.5420
 1.1100	44.5330
 1.1110	44.5300
 1.1120	44.5220
 1.1130	44.5100
 1.1140	44.5010
 1.1150	44.4890
 1.1160	44.4800
 1.1170	44.4760
 1.1180	44.4680
 1.1190	44.4570
 1.1200	44.4490
 1.1210	44.4380
 1.1220	44.4230
 1.1230	44.4080
 1.1240	44.3910
 1.1250	44.3700
 1.1260	44.3450
 1.1270	44.3180
 1.1280	44.2890
 1.1290	44.2590
 1.1300	44.2290
 1.1310	44.1950
 1.1320	44.1590
 1.1330	44.1200
 1.1340	44.0800
 1.1350	44.0330
 1.1360	43.9820
 1.1370	43.9290
 1.1380	43.8670
 1.1390	43.8040
 1.1400	43.7420
 1.1410	43.6770
 1.1420	43.6090
 1.1430	43.5430
 1.1440	43.4800
 1.1450	43.4190
 1.1460	43.3580
 1.1470	43.2980
 1.1480	43.2420
 1.1490	43.1830
 1.1500	43.1310
 1.1510	43.0840
 1.1520	43.0380
 1.1530	42.9930
 1.1540	42.9530
 1.1550	42.9180
 1.1560	42.8850
 1.1570	42.8570
 1.1580	42.8340
 1.1590	42.8100
 1.1600	42.7870
 1.1610	42.7680
 1.1620	42.7530
 1.1630	42.7410
 1.1640	42.7260
 1.1650	42.7140
 1.1660	42.7000
 1.1670	42.6900
 1.1680	42.6850
 1.1690	42.6810
 1.1700	42.6820
 1.1710	42.6770
 1.1720	42.6680
 1.1730	42.6620
 1.1740	42.6530
 1.1750	42.6480
 1.1760	42.6500
 1.1770	42.6460
 1.1780	42.6390
 1.1790	42.6350
 1.1800	42.6260
 1.1810	42.6180
 1.1820	42.6100
 1.1830	42.6010
 1.1840	42.5910
 1.1850	42.5810
 1.1860	42.5720
 1.1870	42.5650
 1.1880	42.5580
 1.1890	42.5520
 1.1900	42.5490
 1.1910	42.5470
 1.1920	42.5450
 1.1930	42.5460
 1.1940	42.5450
 1.1950	42.5400
 1.1960	42.5400
 1.1970	42.5370
 1.1980	42.5350
 1.1990	42.5380
 1.2000	42.5380
 1.2010	42.5410
 1.2020	42.5440
 1.2030	42.5450
 1.2040	42.5480
 1.2050	42.5510
 1.2060	42.5550
 1.2070	42.5580
 1.2080	42.5630
 1.2090	42.5680
 1.2100	42.5740
 1.2110	42.5830
 1.2120	42.5970
 1.2130	42.6050
 1.2140	42.6150
 1.2150	42.6250
 1.2160	42.6310
 1.2170	42.6410
 1.2180	42.6570
 1.2190	42.6710
 1.2200	42.6830
 1.2210	42.6960
 1.2220	42.7060
 1.2230	42.7170
 1.2240	42.7310
 1.2250	42.7420
 1.2260	42.7530
 1.2270	42.7660
 1.2280	42.7780
 1.2290	42.7940
 1.2300	42.8090
 1.2310	42.8230
 1.2320	42.8330
 1.2330	42.8390
 1.2340	42.8480
 1.2350	42.8540
 1.2360	42.8620
 1.2370	42.8740
 1.2380	42.8840
 1.2390	42.8900
 1.2400	42.8960
 1.2410	42.9000
 1.2420	42.9030
 1.2430	42.9070
 1.2440	42.9090
 1.2450	42.9130
 1.2460	42.9180
 1.2470	42.9270
 1.2480	42.9370
 1.2490	42.9430
 1.2500	42.9500
 1.2510	42.9610
 1.2520	42.9670
 1.2530	42.9750
 1.2540	42.9830
 1.2550	42.9810
 1.2560	42.9820
 1.2570	42.9850
 1.2580	42.9810
 1.2590	42.9790
 1.2600	42.9810
 1.2610	42.9800
 1.2620	42.9740
 1.2630	42.9720
 1.2640	42.9710
 1.2650	42.9640
 1.2660	42.9580
 1.2670	42.9520
 1.2680	42.9430
 1.2690	42.9350
 1.2700	42.9290
 1.2710	42.9240
 1.2720	42.9190
 1.2730	42.9140
 1.2740	42.9070
 1.2750	42.9010
 1.2760	42.8950
 1.2770	42.8880
 1.2780	42.8800
 1.2790	42.8670
 1.2800	42.8550
 1.2810	42.8440
 1.2820	42.8290
 1.2830	42.8190
 1.2840	42.8100
 1.2850	42.7970
 1.2860	42.7850
 1.2870	42.7740
 1.2880	42.7630
 1.2890	42.7480
 1.2900	42.7370
 1.2910	42.7250
 1.2920	42.7070
 1.2930	42.6910
 1.2940	42.6720
 1.2950	42.6510
 1.2960	42.6330
 1.2970	42.6120
 1.2980	42.5880
 1.2990	42.5640
 1.3000	42.5400
 1.3010	42.5150
 1.3020	42.4890
 1.3030	42.4600
 1.3040	42.4270
 1.3050	42.3930
 1.3060	42.3570
 1.3070	42.3190
 1.3080	42.2840
 1.3090	42.2470
 1.3100	42.2070
 1.3110	42.1700
 1.3120	42.1290
 1.3130	42.0840
 1.3140	42.0400
 1.3150	41.9980
 1.3160	41.9470
 1.3170	41.8930
 1.3180	41.8380
 1.3190	41.7820
 1.3200	41.7240
 1.3210	41.6660
 1.3220	41.6090
 1.3230	41.5470
 1.3240	41.4830
 1.3250	41.4190
 1.3260	41.3530
 1.3270	41.2870
 1.3280	41.2160
 1.3290	41.1460
 1.3300	41.0750
 1.3310	41.0010
 1.3320	40.9270
 1.3330	40.8550
 1.3340	40.7810
 1.3350	40.7050
 1.3360	40.6250
 1.3370	40.5430
 1.3380	40.4610
 1.3390	40.3820
 1.3400	40.3030
 1.3410	40.2250
 1.3420	40.1450
 1.3430	40.0650
 1.3440	39.9840
 1.3450	39.9040
 1.3460	39.8230
 1.3470	39.7460
 1.3480	39.6710
 1.3490	39.5950
 1.3500	39.5210
 1.3510	39.4450
 1.3520	39.3690
 1.3530	39.2900
 1.3540	39.2120
 1.3550	39.1360
 1.3560	39.0590
 1.3570	38.9820
 1.3580	38.9060
 1.3590	38.8280
 1.3600	38.7450
 1.3610	38.6580
 1.3620	38.5670
 1.3630	38.4750
 1.3640	38.3800
 1.3650	38.2830
 1.3660	38.1810
 1.3670	38.0710
 1.3680	37.9520
 1.3690	37.8240
 1.3700	37.6860
 1.3710	37.5380
 1.3720	37.3790
 1.3730	37.2090
 1.3740	37.0280
 1.3750	36.8330
 1.3760	36.6190
 1.3770	36.3900
 1.3780	36.1400
 1.3790	35.8720
 1.3800	35.5860
 1.3810	35.2790
 1.3820	34.9550
 1.3830	34.6160
 1.3840	34.2560
 1.3850	33.8790
 1.3860	33.4860
 1.3870	33.0720
 1.3880	32.6510
 1.3890	32.2160
 1.3900	31.7690
 1.3910	31.3180
 1.3920	30.8530
 1.3930	30.3790
 1.3940	29.9040
 1.3950	29.4190
 1.3960	28.9380
 1.3970	28.4620
 1.3980	27.9880
 1.3990	27.5270
 1.4000	27.0740
 1.4010	26.6280
 1.4020	26.1980
 1.4030	25.7760
 1.4040	25.3710
 1.4050	24.9870
 1.4060	24.6180
 1.4070	24.2730
 1.4080	23.9460
 1.4090	23.6330
 1.4100	23.3410
 1.4110	23.0640
 1.4120	22.8060
 1.4130	22.5680
 1.4140	22.3470
 1.4150	22.1450
 1.4160	21.9570
 1.4170	21.7830
 1.4180	21.6220
 1.4190	21.4750
 1.4200	21.3390
 1.4210	21.2170
 1.4220	21.1070
 1.4230	21.0080
 1.4240	20.9190
 1.4250	20.8370
 1.4260	20.7650
 1.4270	20.6990
 1.4280	20.6400
 1.4290	20.5890
 1.4300	20.5460
 1.4310	20.5100
 1.4320	20.4850
 1.4330	20.4610
 1.4340	20.4450
 1.4350	20.4310
 1.4360	20.4210
 1.4370	20.4130
 1.4380	20.4120
 1.4390	20.4130
 1.4400	20.4170
 1.4410	20.4250
 1.4420	20.4360
 1.4430	20.4490
 1.4440	20.4660
 1.4450	20.4840
 1.4460	20.5060
 1.4470	20.5300
 1.4480	20.5540
 1.4490	20.5780
 1.4500	20.6010
 1.4510	20.6240
 1.4520	20.6510
 1.4530	20.6800
 1.4540	20.7120
 1.4550	20.7470
 1.4560	20.7840
 1.4570	20.8250
 1.4580	20.8670
 1.4590	20.9110
 1.4600	20.9610
 1.4610	21.0150
 1.4620	21.0750
 1.4630	21.1420
 1.4640	21.2110
 1.4650	21.2860
 1.4660	21.3670
 1.4670	21.4530
 1.4680	21.5450
 1.4690	21.6410
 1.4700	21.7430
 1.4710	21.8510
 1.4720	21.9620
 1.4730	22.0750
 1.4740	22.1910
 1.4750	22.3080
 1.4760	22.4270
 1.4770	22.5460
 1.4780	22.6690
 1.4790	22.7930
 1.4800	22.9180
 1.4810	23.0480
 1.4820	23.1780
 1.4830	23.3080
 1.4840	23.4400
 1.4850	23.5740
 1.4860	23.7060
 1.4870	23.8410
 1.4880	23.9750
 1.4890	24.1070
 1.4900	24.2400
 1.4910	24.3720
 1.4920	24.5040
 1.4930	24.6360
 1.4940	24.7680
 1.4950	24.9020
 1.4960	25.0350
 1.4970	25.1650
 1.4980	25.2970
 1.4990	25.4290
 1.5000	25.5620
 1.5010	25.6970
 1.5020	25.8280
 1.5030	25.9570
 1.5040	26.0860
 1.5050	26.2110
 1.5060	26.3380
 1.5070	26.4650
 1.5080	26.5900
 1.5090	26.7140
 1.5100	26.8370
 1.5110	26.9590
 1.5120	27.0790
 1.5130	27.1970
 1.5140	27.3150
 1.5150	27.4330
 1.5160	27.5500
 1.5170	27.6690
 1.5180	27.7850
 1.5190	27.9000
 1.5200	28.0150
 1.5210	28.1240
 1.5220	28.2340
 1.5230	28.3450
 1.5240	28.4540
 1.5250	28.5650
 1.5260	28.6730
 1.5270	28.7770
 1.5280	28.8810
 1.5290	28.9830
 1.5300	29.0870
 1.5310	29.1870
 1.5320	29.2860
 1.5330	29.3860
 1.5340	29.4850
 1.5350	29.5850
 1.5360	29.6860
 1.5370	29.7800
 1.5380	29.8720
 1.5390	29.9620
 1.5400	30.0490
 1.5410	30.1370
 1.5420	30.2250
 1.5430	30.3130
 1.5440	30.4000
 1.5450	30.4860
 1.5460	30.5700
 1.5470	30.6530
 1.5480	30.7330
 1.5490	30.8150
 1.5500	30.8970
 1.5510	30.9760
 1.5520	31.0560
 1.5530	31.1330
 1.5540	31.2070
 1.5550	31.2840
 1.5560	31.3550
 1.5570	31.4250
 1.5580	31.4990
 1.5590	31.5710
 1.5600	31.6440
 1.5610	31.7170
 1.5620	31.7870
 1.5630	31.8550
 1.5640	31.9210
 1.5650	31.9830
 1.5660	32.0470
 1.5670	32.1120
 1.5680	32.1780
 1.5690	32.2410
 1.5700	32.3010
 1.5710	32.3610
 1.5720	32.4190
 1.5730	32.4780
 1.5740	32.5360
 1.5750	32.5920
 1.5760	32.6520
 1.5770	32.7120
 1.5780	32.7700
 1.5790	32.8260
 1.5800	32.8760
 1.5810	32.9270
 1.5820	32.9800
 1.5830	33.0350
 1.5840	33.0910
 1.5850	33.1440
 1.5860	33.1960
 1.5870	33.2470
 1.5880	33.2960
 1.5890	33.3470
 1.5900	33.3930
 1.5910	33.4360
 1.5920	33.4800
 1.5930	33.5220
 1.5940	33.5680
 1.5950	33.6150
 1.5960	33.6630
 1.5970	33.7120
 1.5980	33.7570
 1.5990	33.8040
 1.6000	33.8520
 1.6010	33.8940
 1.6020	33.9350
 1.6030	33.9750
 1.6040	34.0080
 1.6050	34.0420
 1.6060	34.0800
 1.6070	34.1180
 1.6080	34.1560
 1.6090	34.1960
 1.6100	34.2320
 1.6110	34.2690
 1.6120	34.3080
 1.6130	34.3430
 1.6140	34.3780
 1.6150	34.4140
 1.6160	34.4480
 1.6170	34.4810
 1.6180	34.5120
 1.6190	34.5410
 1.6200	34.5670
 1.6210	34.5920
 1.6220	34.6160
 1.6230	34.6410
 1.6240	34.6660
 1.6250	34.6910
 1.6260	34.7200
 1.6270	34.7470
 1.6280	34.7760
 1.6290	34.8030
 1.6300	34.8290
 1.6310	34.8530
 1.6320	34.8760
 1.6330	34.8990
 1.6340	34.9210
 1.6350	34.9440
 1.6360	34.9680
 1.6370	34.9880
 1.6380	35.0100
 1.6390	35.0280
 1.6400	35.0410
 1.6410	35.0560
 1.6420	35.0730
 1.6430	35.0870
 1.6440	35.1000
 1.6450	35.1110
 1.6460	35.1180
 1.6470	35.1260
 1.6480	35.1330
 1.6490	35.1360
 1.6500	35.1420
 1.6510	35.1460
 1.6520	35.1470
 1.6530	35.1510
 1.6540	35.1530
 1.6550	35.1540
 1.6560	35.1570
 1.6570	35.1550
 1.6580	35.1510
 1.6590	35.1490
 1.6600	35.1440
 1.6610	35.1410
 1.6620	35.1380
 1.6630	35.1340
 1.6640	35.1280
 1.6650	35.1210
 1.6660	35.1150
 1.6670	35.1110
 1.6680	35.1080
 1.6690	35.1070
 1.6700	35.1010
 1.6710	35.0880
 1.6720	35.0730
 1.6730	35.0570
 1.6740	35.0420
 1.6750	35.0280
 1.6760	35.0140
 1.6770	34.9980
 1.6780	34.9830
 1.6790	34.9670
 1.6800	34.9480
 1.6810	34.9260
 1.6820	34.9010
 1.6830	34.8740
 1.6840	34.8500
 1.6850	34.8270
 1.6860	34.8020
 1.6870	34.7790
 1.6880	34.7560
 1.6890	34.7290
 1.6900	34.7000
 1.6910	34.6700
 1.6920	34.6380
 1.6930	34.6050
 1.6940	34.5720
 1.6950	34.5370
 1.6960	34.5040
 1.6970	34.4730
 1.6980	34.4400
 1.6990	34.4080
 1.7000	34.3730
 1.7010	34.3350
 1.7020	34.3000
 1.7030	34.2640
 1.7040	34.2280
 1.7050	34.1940
 1.7060	34.1570
 1.7070	34.1190
 1.7080	34.0820
 1.7090	34.0440
 1.7100	34.0070
 1.7110	33.9720
 1.7120	33.9310
 1.7130	33.8920
 1.7140	33.8500
 1.7150	33.8040
 1.7160	33.7620
 1.7170	33.7210
 1.7180	33.6790
 1.7190	33.6350
 1.7200	33.5890
 1.7210	33.5400
 1.7220	33.4940
 1.7230	33.4510
 1.7240	33.4090
 1.7250	33.3670
 1.7260	33.3230
 1.7270	33.2820
 1.7280	33.2440
 1.7290	33.2060
 1.7300	33.1740
 1.7310	33.1430
 1.7320	33.1160
 1.7330	33.0880
 1.7340	33.0600
 1.7350	33.0320
 1.7360	33.0000
 1.7370	32.9710
 1.7380	32.9450
 1.7390	32.9150
 1.7400	32.8870
 1.7410	32.8550
 1.7420	32.8200
 1.7430	32.7850
 1.7440	32.7480
 1.7450	32.7110
 1.7460	32.6730
 1.7470	32.6310
 1.7480	32.5890
 1.7490	32.5430
 1.7500	32.4950
 1.7510	32.4460
 1.7520	32.3960
 1.7530	32.3460
 1.7540	32.2960
 1.7550	32.2460
 1.7560	32.1940
 1.7570	32.1410
 1.7580	32.0890
 1.7590	32.0380
 1.7600	31.9860
 1.7610	31.9350
 1.7620	31.8870
 1.7630	31.8410
 1.7640	31.8000
 1.7650	31.7650
 1.7660	31.7280
 1.7670	31.6920
 1.7680	31.6590
 1.7690	31.6290
 1.7700	31.5980
 1.7710	31.5690
 1.7720	31.5400
 1.7730	31.5100
 1.7740	31.4820
 1.7750	31.4560
 1.7760	31.4290
 1.7770	31.4000
 1.7780	31.3740
 1.7790	31.3490
 1.7800	31.3250
 1.7810	31.3020
 1.7820	31.2810
 1.7830	31.2640
 1.7840	31.2420
 1.7850	31.2200
 1.7860	31.1980
 1.7870	31.1720
 1.7880	31.1540
 1.7890	31.1380
 1.7900	31.1270
 1.7910	31.1160
 1.7920	31.1070
 1.7930	31.1010
 1.7940	31.0960
 1.7950	31.0910
 1.7960	31.0890
 1.7970	31.0860
 1.7980	31.0810
 1.7990	31.0790
 1.8000	31.0790
 1.8010	31.0790
 1.8020	31.0790
 1.8030	31.0790
 1.8040	31.0790
 1.8050	31.0810
 1.8060	31.0890
 1.8070	31.0880
 1.8080	31.0840
 1.8090	31.0790
 1.8100	31.0640
 1.8110	31.0640
 1.8120	31.0680
 1.8130	31.0710
 1.8140	31.0750
 1.8150	31.0690
 1.8160	31.0590
 1.8170	31.0550
 1.8180	31.0530
 1.8190	31.0510
 1.8200	31.0480
 1.8210	31.0390
 1.8220	31.0320
 1.8230	31.0300
 1.8240	31.0210
 1.8250	31.0040
 1.8260	30.9920
 1.8270	30.9720
 1.8280	30.9520
 1.8290	30.9320
 1.8300	30.9120
 1.8310	30.8910
 1.8320	30.8710
 1.8330	30.8510
 1.8340	30.8310
 1.8350	30.8310
 1.8360	30.7890
 1.8370	30.7500
 1.8380	30.7080
 1.8390	30.6570
 1.8400	30.6020
 1.8410	30.5380
 1.8420	30.4620
 1.8430	30.3830
 1.8440	30.3070
 1.8450	30.2300
 1.8460	30.1480
 1.8470	30.0530
 1.8480	29.9440
 1.8490	29.8250
 1.8500	29.6940
 1.8510	29.5500
 1.8520	29.4030
 1.8530	29.2450
 1.8540	29.0780
 1.8550	28.9030
 1.8560	28.7100
 1.8570	28.5000
 1.8580	28.2740
 1.8590	28.0360
 1.8600	27.7810
 1.8610	27.5140
 1.8620	27.2270
 1.8630	26.9240
 1.8640	26.6020
 1.8650	26.2550
 1.8660	25.8880
 1.8670	25.4920
 1.8680	25.0710
 1.8690	24.6330
 1.8700	24.1710
 1.8710	23.6900
 1.8720	23.1920
 1.8730	22.6720
 1.8740	22.1290
 1.8750	21.5710
 1.8760	20.9960
 1.8770	20.4150
 1.8780	19.8280
 1.8790	19.2290
 1.8800	18.6350
 1.8810	18.0390
 1.8820	17.4390
 1.8830	16.8300
 1.8840	16.2250
 1.8850	15.6210
 1.8860	15.0200
 1.8870	14.4360
 1.8880	13.8650
 1.8890	13.3120
 1.8900	12.7770
 1.8910	12.2660
 1.8920	11.7710
 1.8930	11.3060
 1.8940	10.8630
 1.8950	10.4440
 1.8960	10.0540
 1.8970	 9.6860
 1.8980	 9.3460
 1.8990	 9.0360
 1.9000	 8.7490
 1.9010	 8.4930
 1.9020	 8.2560
 1.9030	 8.0430
 1.9040	 7.8490
 1.9050	 7.6830
 1.9060	 7.5310
 1.9070	 7.3990
 1.9080	 7.2820
 1.9090	 7.1720
 1.9100	 7.0750
 1.9110	 6.9900
 1.9120	 6.9180
 1.9130	 6.8540
 1.9140	 6.8010
 1.9150	 6.7530
 1.9160	 6.7140
 1.9170	 6.6800
 1.9180	 6.6510
 1.9190	 6.6250
 1.9200	 6.6050
 1.9210	 6.5920
 1.9220	 6.5820
 1.9230	 6.5790
 1.9240	 6.5770
 1.9250	 6.5780
 1.9260	 6.5800
 1.9270	 6.5850
 1.9280	 6.5950
 1.9290	 6.6070
 1.9300	 6.6240
 1.9310	 6.6450
 1.9320	 6.6680
 1.9330	 6.6920
 1.9340	 6.7180
 1.9350	 6.7480
 1.9360	 6.7800
 1.9370	 6.8150
 1.9380	 6.8560
 1.9390	 6.8980
 1.9400	 6.9360
 1.9410	 6.9750
 1.9420	 7.0150
 1.9430	 7.0580
 1.9440	 7.1050
 1.9450	 7.1580
 1.9460	 7.2110
 1.9470	 7.2670
 1.9480	 7.3230
 1.9490	 7.3820
 1.9500	 7.4430
 1.9510	 7.5030
 1.9520	 7.5660
 1.9530	 7.6320
 1.9540	 7.6960
 1.9550	 7.7630
 1.9560	 7.8340
 1.9570	 7.9020
 1.9580	 7.9670
 1.9590	 8.0360
 1.9600	 8.1020
 1.9610	 8.1740
 1.9620	 8.2510
 1.9630	 8.3300
 1.9640	 8.4110
 1.9650	 8.4900
 1.9660	 8.5700
 1.9670	 8.6550
 1.9680	 8.7390
 1.9690	 8.8250
 1.9700	 8.9110
 1.9710	 8.9970
 1.9720	 9.0830
 1.9730	 9.1710
 1.9740	 9.2580
 1.9750	 9.3460
 1.9760	 9.4380
 1.9770	 9.5310
 1.9780	 9.6250
 1.9790	 9.7200
 1.9800	 9.8150
 1.9810	 9.9100
 1.9820	10.0090
 1.9830	10.1050
 1.9840	10.1970
 1.9850	10.2940
 1.9860	10.3930
 1.9870	10.4890
 1.9880	10.5890
 1.9890	10.6970
 1.9900	10.8040
 1.9910	10.9050
 1.9920	11.0060
 1.9930	11.1050
 1.9940	11.2040
 1.9950	11.2980
 1.9960	11.4000
 1.9970	11.5080
 1.9980	11.6130
 1.9990	11.7230
 2.0000	11.8310
 2.0010	11.9310
 2.0020	12.0360
 2.0030	12.1360
 2.0040	12.2320
 2.0050	12.3300
 2.0060	12.4290
 2.0070	12.5270
 2.0080	12.6250
 2.0090	12.7240
 2.0100	12.8240
 2.0110	12.9220
 2.0120	13.0220
 2.0130	13.1210
 2.0140	13.2160
 2.0150	13.3100
 2.0160	13.4070
 2.0170	13.5060
 2.0180	13.6030
 2.0190	13.7050
 2.0200	13.7980
 2.0210	13.8830
 2.0220	13.9700
 2.0230	14.0520
 2.0240	14.1380
 2.0250	14.2260
 2.0260	14.3130
 2.0270	14.4000
 2.0280	14.4850
 2.0290	14.5640
 2.0300	14.6440
 2.0310	14.7210
 2.0320	14.7920
 2.0330	14.8660
 2.0340	14.9400
 2.0350	15.0130
 2.0360	15.0850
 2.0370	15.1570
 2.0380	15.2270
 2.0390	15.2970
 2.0400	15.3700
 2.0410	15.4370
 2.0420	15.4970
 2.0430	15.5630
 2.0440	15.6240
 2.0450	15.6800
 2.0460	15.7410
 2.0470	15.8050
 2.0480	15.8690
 2.0490	15.9320
 2.0500	15.9990
 2.0510	16.0730
 2.0520	16.1400
 2.0530	16.2070
 2.0540	16.2730
 2.0550	16.3300
 2.0560	16.3950
 2.0570	16.4650
 2.0580	16.5320
 2.0590	16.5990
 2.0600	16.6690
 2.0610	16.7350
 2.0620	16.7970
 2.0630	16.8640
 2.0640	16.9340
 2.0650	17.0010
 2.0660	17.0710
 2.0670	17.1400
 2.0680	17.2080
 2.0690	17.2760
 2.0700	17.3460
 2.0710	17.4140
 2.0720	17.4830
 2.0730	17.5470
 2.0740	17.6150
 2.0750	17.6860
 2.0760	17.7520
 2.0770	17.8150
 2.0780	17.8830
 2.0790	17.9510
 2.0800	18.0170
 2.0810	18.0910
 2.0820	18.1530
 2.0830	18.2040
 2.0840	18.2600
 2.0850	18.3100
 2.0860	18.3660
 2.0870	18.4250
 2.0880	18.4890
 2.0890	18.5500
 2.0900	18.6140
 2.0910	18.6720
 2.0920	18.7270
 2.0930	18.7820
 2.0940	18.8330
 2.0950	18.8860
 2.0960	18.9400
 2.0970	18.9940
 2.0980	19.0480
 2.0990	19.1040
 2.1000	19.1670
 2.1010	19.2230
 2.1020	19.2760
 2.1030	19.3300
 2.1040	19.3800
 2.1050	19.4320
 2.1060	19.4850
 2.1070	19.5400
 2.1080	19.5900
 2.1090	19.6350
 2.1100	19.6860
 2.1110	19.7390
 2.1120	19.7890
 2.1130	19.8440
 2.1140	19.8940
 2.1150	19.9390
 2.1160	19.9840
 2.1170	20.0280
 2.1180	20.0730
 2.1190	20.1190
 2.1200	20.1650
 2.1210	20.2150
 2.1220	20.2610
 2.1230	20.3030
 2.1240	20.3420
 2.1250	20.3800
 2.1260	20.4130
 2.1270	20.4470
 2.1280	20.4800
 2.1290	20.5160
 2.1300	20.5560
 2.1310	20.5930
 2.1320	20.6310
 2.1330	20.6680
 2.1340	20.7060
 2.1350	20.7370
 2.1360	20.7590
 2.1370	20.7890
 2.1380	20.8180
 2.1390	20.8450
 2.1400	20.8740
 2.1410	20.9090
 2.1420	20.9370
 2.1430	20.9570
 2.1440	20.9820
 2.1450	21.0090
 2.1460	21.0310
 2.1470	21.0470
 2.1480	21.0700
 2.1490	21.0940
 2.1500	21.1160
 2.1510	21.1420
 2.1520	21.1620
 2.1530	21.1750
 2.1540	21.1940
 2.1550	21.2180
 2.1560	21.2360
 2.1570	21.2540
 2.1580	21.2710
 2.1590	21.2860
 2.1600	21.2950
 2.1610	21.3100
 2.1620	21.3340
 2.1630	21.3500
 2.1640	21.3670
 2.1650	21.3830
 2.1660	21.3950
 2.1670	21.4080
 2.1680	21.4200
 2.1690	21.4350
 2.1700	21.4500
 2.1710	21.4640
 2.1720	21.4830
 2.1730	21.4990
 2.1740	21.5090
 2.1750	21.5270
 2.1760	21.5530
 2.1770	21.5730
 2.1780	21.5920
 2.1790	21.6130
 2.1800	21.6290
 2.1810	21.6490
 2.1820	21.6730
 2.1830	21.6990
 2.1840	21.7200
 2.1850	21.7410
 2.1860	21.7580
 2.1870	21.7700
 2.1880	21.7870
 2.1890	21.8040
 2.1900	21.8220
 2.1910	21.8380
 2.1920	21.8600
 2.1930	21.8830
 2.1940	21.9090
 2.1950	21.9420
 2.1960	21.9730
 2.1970	22.0050
 2.1980	22.0340
 2.1990	22.0670
 2.2000	22.0900
 2.2010	22.1070
 2.2020	22.1230
 2.2030	22.1240
 2.2040	22.1360
 2.2050	22.1520
 2.2060	22.1690
 2.2070	22.1870
 2.2080	22.2140
 2.2090	22.2300
 2.2100	22.2420
 2.2110	22.2510
 2.2120	22.2520
 2.2130	22.2600
 2.2140	22.2700
 2.2150	22.2780
 2.2160	22.2930
 2.2170	22.2940
 2.2180	22.2850
 2.2190	22.2810
 2.2200	22.2700
 2.2210	22.2640
 2.2220	22.2660
 2.2230	22.2580
 2.2240	22.2450
 2.2250	22.2310
 2.2260	22.2100
 2.2270	22.1920
 2.2280	22.1790
 2.2290	22.1600
 2.2300	22.1390
 2.2310	22.1140
 2.2320	22.0800
 2.2330	22.0520
 2.2340	22.0190
 2.2350	21.9820
 2.2360	21.9510
 2.2370	21.9220
 2.2380	21.8890
 2.2390	21.8620
 2.2400	21.8210
 2.2410	21.7680
 2.2420	21.7200
 2.2430	21.6670
 2.2440	21.6160
 2.2450	21.5660
 2.2460	21.5140
 2.2470	21.4620
 2.2480	21.4040
 2.2490	21.3410
 2.2500	21.2800
 2.2510	21.2160
 2.2520	21.1520
 2.2530	21.0920
 2.2540	21.0280
 2.2550	20.9560
 2.2560	20.8900
 2.2570	20.8260
 2.2580	20.7600
 2.2590	20.6970
 2.2600	20.6310
 2.2610	20.5640
 2.2620	20.4910
 2.2630	20.4230
 2.2640	20.3570
 2.2650	20.2860
 2.2660	20.2210
 2.2670	20.1570
 2.2680	20.0960
 2.2690	20.0280
 2.2700	19.9580
 2.2710	19.8910
 2.2720	19.8160
 2.2730	19.7550
 2.2740	19.7090
 2.2750	19.6490
 2.2760	19.5850
 2.2770	19.5270
 2.2780	19.4690
 2.2790	19.4100
 2.2800	19.3590
 2.2810	19.3030
 2.2820	19.2390
 2.2830	19.1800
 2.2840	19.1270
 2.2850	19.0690
 2.2860	19.0070
 2.2870	18.9530
 2.2880	18.9070
 2.2890	18.8500
 2.2900	18.7940
 2.2910	18.7350
 2.2920	18.6700
 2.2930	18.6020
 2.2940	18.5280
 2.2950	18.4600
 2.2960	18.3890
 2.2970	18.3200
 2.2980	18.2590
 2.2990	18.1930
 2.3000	18.1250
 2.3010	18.0560
 2.3020	17.9870
 2.3030	17.9220
 2.3040	17.8520
 2.3050	17.7820
 2.3060	17.7140
 2.3070	17.6490
 2.3080	17.5940
 2.3090	17.5370
 2.3100	17.4860
 2.3110	17.4460
 2.3120	17.4060
 2.3130	17.3680
 2.3140	17.3380
 2.3150	17.3140
 2.3160	17.2940
 2.3170	17.2850
 2.3180	17.2660
 2.3190	17.2440
 2.3200	17.2270
 2.3210	17.2090
 2.3220	17.1870
 2.3230	17.1770
 2.3240	17.1510
 2.3250	17.1140
 2.3260	17.0760
 2.3270	17.0320
 2.3280	16.9870
 2.3290	16.9360
 2.3300	16.8850
 2.3310	16.8350
 2.3320	16.7810
 2.3330	16.7270
 2.3340	16.6690
 2.3350	16.6050
 2.3360	16.5430
 2.3370	16.4720
 2.3380	16.4110
 2.3390	16.3620
 2.3400	16.3020
 2.3410	16.2420
 2.3420	16.1870
 2.3430	16.1260
 2.3440	16.0720
 2.3450	16.0330
 2.3460	15.9810
 2.3470	15.9260
 2.3480	15.8640
 2.3490	15.7800
 2.3500	15.7130
 2.3510	15.6450
 2.3520	15.5880
 2.3530	15.5420
 2.3540	15.5090
 2.3550	15.4680
 2.3560	15.4310
 2.3570	15.4140
 2.3580	15.3890
 2.3590	15.3680
 2.3600	15.3400
 2.3610	15.2830
 2.3620	15.2280
 2.3630	15.1670
 2.3640	15.1030
 2.3650	15.0420
 2.3660	14.9860
 2.3670	14.9450
 2.3680	14.8980
 2.3690	14.8610
 2.3700	14.8210
 2.3710	14.7690
 2.3720	14.7160
 2.3730	14.6410
 2.3740	14.5730
 2.3750	14.5220
 2.3760	14.4690
 2.3770	14.4330
 2.3780	14.4020
 2.3790	14.3550
 2.3800	14.3090
 2.3810	14.2660
 2.3820	14.2100
 2.3830	14.1390
 2.3840	14.0640
 2.3850	13.9880
 2.3860	13.9110
 2.3870	13.8520
 2.3880	13.8000
 2.3890	13.7360
 2.3900	13.6720
 2.3910	13.6050
 2.3920	13.5250
 2.3930	13.4580
 2.3940	13.4070
 2.3950	13.3510
 2.3960	13.3030
 2.3970	13.2560
 2.3980	13.2040
 2.3990	13.1410
 2.4000	13.0730
 2.4010	13.0160
 2.4020	12.9450
 2.4030	12.8700
 2.4040	12.8140
 2.4050	12.7480
 2.4060	12.6820
 2.4070	12.6250
 2.4080	12.5610
 2.4090	12.4990
 2.4100	12.4380
 2.4110	12.3730
 2.4120	12.3190
 2.4130	12.2670
 2.4140	12.2100
 2.4150	12.1670
 2.4160	12.1110
 2.4170	12.0290
 2.4180	11.9350
 2.4190	11.8200
 2.4200	11.7200
 2.4210	11.6430
 2.4220	11.5830
 2.4230	11.5510
 2.4240	11.4990
 2.4250	11.4390
 2.4260	11.3830
 2.4270	11.3060
 2.4280	11.2410
 2.4290	11.1790
 2.4300	11.1030
 2.4310	11.0380
 2.4320	10.9730
 2.4330	10.9110
 2.4340	10.8500
 2.4350	10.7860
 2.4360	10.7260
 2.4370	10.6510
 2.4380	10.5700
 2.4390	10.4960
 2.4400	10.4170
 2.4410	10.3600
 2.4420	10.3140
 2.4430	10.2560
 2.4440	10.2040
 2.4450	10.1350
 2.4460	10.0470
 2.4470	 9.9740
 2.4480	 9.8960
 2.4490	 9.8390
 2.4500	 9.8200
 2.4510	 9.7850
 2.4520	 9.7570
 2.4530	 9.7060
 2.4540	 9.6150
 2.4550	 9.5550
 2.4560	 9.4790
 2.4570	 9.4140
 2.4580	 9.3760
 2.4590	 9.3050
 2.4600	 9.2340
 2.4610	 9.1500
 2.4620	 9.0740
 2.4630	 9.0130
 2.4640	 8.9540
 2.4650	 8.9310
 2.4660	 8.8690
 2.4670	 8.8050
 2.4680	 8.7990
 2.4690	 8.7610
 2.4700	 8.7090
 2.4710	 8.6190
 2.4720	 8.5440
 2.4730	 8.4560
 2.4740	 8.4050
 2.4750	 8.4180
 2.4760	 8.4040
 2.4770	 8.3860
 2.4780	 8.3590
 2.4790	 8.3120
 2.4800	 8.2440
 2.4810	 8.1470
 2.4820	 8.1030
 2.4830	 8.0890
 2.4840	 8.1390
 2.4850	 8.1840
 2.4860	 8.1740
 2.4870	 8.1470
 2.4880	 8.1380
 2.4890	 8.1150
 2.4900	 8.0810
 2.4910	 8.0560
 2.4920	 7.9730
 2.4930	 7.8930
 2.4940	 7.8620
 2.4950	 7.8300
 2.4960	 7.8080
 2.4970	 7.8060
 2.4980	 7.7930
 2.4990	 7.7100
 2.5000	 7.6090
