Name: Quercus lobata 3
Type: vegetation
Class: Tree
Genus: Quercus
Species: lobata
Sample No.: VH186
Owner: UCSB
Wavelength Range: VSWIR
Origin: 34.7151; -120.0588; WGS84
Collection Date: 6/9/2013
Description: Samples were collected as part of the HyspIRI Airborne Campaign. 48 individual plants were sampled in three times in 2013 - spring  summer  and fall. The name of the sample includes a 1  2  or 3 which references a different individual of the species. Samples were taken to JPL and processed within 48 hours of collection. The same leaves were processed in the Nicolet and then measured using the ASD.
Measurement: Bidirectional reflectance
First Column: X
Second Column: Y
X Units: Wavelength (micrometers)
Y Units: Reflectance (percentage)
First X Value: 0.35
Last X Value: 2.5
Number of X Values: 2151
Additional Information: vegetation.tree.quercus.lobata.vswir.vh186.ucsb.asd.ancillary.txt

 0.3500	 4.1540
 0.3510	 4.2580
 0.3520	 4.2610
 0.3530	 4.3080
 0.3540	 4.4460
 0.3550	 4.2590
 0.3560	 4.0030
 0.3570	 3.9050
 0.3580	 4.0910
 0.3590	 4.1310
 0.3600	 4.1220
 0.3610	 4.1230
 0.3620	 4.0380
 0.3630	 4.0820
 0.3640	 4.1770
 0.3650	 4.1930
 0.3660	 4.1360
 0.3670	 4.1570
 0.3680	 4.2400
 0.3690	 4.2440
 0.3700	 4.1230
 0.3710	 4.0930
 0.3720	 4.2030
 0.3730	 4.1410
 0.3740	 4.1850
 0.3750	 4.2490
 0.3760	 4.1920
 0.3770	 4.2170
 0.3780	 4.2350
 0.3790	 4.2290
 0.3800	 4.2510
 0.3810	 4.2640
 0.3820	 4.2750
 0.3830	 4.3020
 0.3840	 4.3780
 0.3850	 4.4200
 0.3860	 4.4360
 0.3870	 4.4690
 0.3880	 4.4840
 0.3890	 4.4790
 0.3900	 4.4780
 0.3910	 4.5370
 0.3920	 4.6390
 0.3930	 4.6790
 0.3940	 4.6250
 0.3950	 4.6530
 0.3960	 4.7260
 0.3970	 4.7870
 0.3980	 4.8030
 0.3990	 4.8420
 0.4000	 4.8810
 0.4010	 4.9190
 0.4020	 5.0110
 0.4030	 5.0640
 0.4040	 5.1000
 0.4050	 5.1560
 0.4060	 5.2110
 0.4070	 5.2450
 0.4080	 5.2720
 0.4090	 5.3340
 0.4100	 5.3870
 0.4110	 5.4450
 0.4120	 5.5160
 0.4130	 5.5870
 0.4140	 5.6550
 0.4150	 5.7000
 0.4160	 5.7220
 0.4170	 5.7800
 0.4180	 5.8470
 0.4190	 5.8990
 0.4200	 5.9200
 0.4210	 5.9540
 0.4220	 6.0050
 0.4230	 6.0660
 0.4240	 6.1200
 0.4250	 6.1530
 0.4260	 6.1800
 0.4270	 6.2150
 0.4280	 6.2340
 0.4290	 6.2500
 0.4300	 6.2800
 0.4310	 6.3380
 0.4320	 6.3760
 0.4330	 6.3990
 0.4340	 6.4300
 0.4350	 6.4610
 0.4360	 6.4810
 0.4370	 6.4930
 0.4380	 6.5050
 0.4390	 6.5060
 0.4400	 6.5110
 0.4410	 6.5310
 0.4420	 6.5490
 0.4430	 6.5610
 0.4440	 6.5750
 0.4450	 6.5920
 0.4460	 6.6110
 0.4470	 6.6280
 0.4480	 6.6400
 0.4490	 6.6520
 0.4500	 6.6680
 0.4510	 6.6870
 0.4520	 6.7090
 0.4530	 6.7110
 0.4540	 6.7090
 0.4550	 6.7090
 0.4560	 6.7220
 0.4570	 6.7370
 0.4580	 6.7490
 0.4590	 6.7530
 0.4600	 6.7470
 0.4610	 6.7540
 0.4620	 6.7690
 0.4630	 6.7720
 0.4640	 6.7700
 0.4650	 6.7760
 0.4660	 6.7910
 0.4670	 6.7980
 0.4680	 6.8050
 0.4690	 6.7970
 0.4700	 6.7750
 0.4710	 6.7910
 0.4720	 6.8070
 0.4730	 6.8120
 0.4740	 6.8110
 0.4750	 6.8100
 0.4760	 6.8170
 0.4770	 6.8270
 0.4780	 6.8200
 0.4790	 6.8220
 0.4800	 6.8270
 0.4810	 6.8300
 0.4820	 6.8260
 0.4830	 6.8270
 0.4840	 6.8390
 0.4850	 6.8540
 0.4860	 6.8690
 0.4870	 6.8820
 0.4880	 6.8900
 0.4890	 6.8990
 0.4900	 6.9090
 0.4910	 6.9170
 0.4920	 6.9260
 0.4930	 6.9450
 0.4940	 6.9590
 0.4950	 6.9670
 0.4960	 6.9860
 0.4970	 7.0060
 0.4980	 7.0300
 0.4990	 7.0530
 0.5000	 7.0770
 0.5010	 7.1130
 0.5020	 7.1530
 0.5030	 7.1810
 0.5040	 7.2230
 0.5050	 7.2760
 0.5060	 7.3340
 0.5070	 7.3930
 0.5080	 7.4630
 0.5090	 7.5400
 0.5100	 7.6250
 0.5110	 7.7240
 0.5120	 7.8300
 0.5130	 7.9500
 0.5140	 8.0820
 0.5150	 8.2300
 0.5160	 8.3890
 0.5170	 8.5570
 0.5180	 8.7330
 0.5190	 8.9230
 0.5200	 9.1230
 0.5210	 9.3240
 0.5220	 9.5330
 0.5230	 9.7410
 0.5240	 9.9480
 0.5250	10.1490
 0.5260	10.3410
 0.5270	10.5220
 0.5280	10.6900
 0.5290	10.8480
 0.5300	10.9990
 0.5310	11.1380
 0.5320	11.2600
 0.5330	11.3720
 0.5340	11.4740
 0.5350	11.5640
 0.5360	11.6470
 0.5370	11.7200
 0.5380	11.7840
 0.5390	11.8390
 0.5400	11.8980
 0.5410	11.9590
 0.5420	12.0190
 0.5430	12.0740
 0.5440	12.1240
 0.5450	12.1690
 0.5460	12.2090
 0.5470	12.2360
 0.5480	12.2590
 0.5490	12.2830
 0.5500	12.3060
 0.5510	12.3160
 0.5520	12.3150
 0.5530	12.3060
 0.5540	12.2830
 0.5550	12.2470
 0.5560	12.1940
 0.5570	12.1260
 0.5580	12.0510
 0.5590	11.9650
 0.5600	11.8700
 0.5610	11.7720
 0.5620	11.6730
 0.5630	11.5690
 0.5640	11.4580
 0.5650	11.3370
 0.5660	11.2050
 0.5670	11.0620
 0.5680	10.9200
 0.5690	10.7740
 0.5700	10.6300
 0.5710	10.4920
 0.5720	10.3640
 0.5730	10.2460
 0.5740	10.1420
 0.5750	10.0540
 0.5760	 9.9680
 0.5770	 9.8780
 0.5780	 9.7930
 0.5790	 9.7200
 0.5800	 9.6470
 0.5810	 9.5780
 0.5820	 9.5230
 0.5830	 9.4740
 0.5840	 9.4190
 0.5850	 9.3560
 0.5860	 9.2890
 0.5870	 9.2290
 0.5880	 9.1760
 0.5890	 9.1290
 0.5900	 9.1030
 0.5910	 9.0910
 0.5920	 9.0870
 0.5930	 9.0830
 0.5940	 9.0750
 0.5950	 9.0620
 0.5960	 9.0410
 0.5970	 9.0200
 0.5980	 8.9900
 0.5990	 8.9610
 0.6000	 8.9290
 0.6010	 8.8960
 0.6020	 8.8650
 0.6030	 8.8360
 0.6040	 8.8000
 0.6050	 8.7610
 0.6060	 8.7180
 0.6070	 8.6720
 0.6080	 8.6250
 0.6090	 8.5780
 0.6100	 8.5340
 0.6110	 8.4970
 0.6120	 8.4430
 0.6130	 8.3840
 0.6140	 8.3320
 0.6150	 8.2850
 0.6160	 8.2400
 0.6170	 8.1990
 0.6180	 8.1610
 0.6190	 8.1260
 0.6200	 8.0970
 0.6210	 8.0710
 0.6220	 8.0470
 0.6230	 8.0280
 0.6240	 8.0150
 0.6250	 8.0000
 0.6260	 7.9910
 0.6270	 7.9810
 0.6280	 7.9740
 0.6290	 7.9690
 0.6300	 7.9640
 0.6310	 7.9580
 0.6320	 7.9530
 0.6330	 7.9450
 0.6340	 7.9350
 0.6350	 7.9200
 0.6360	 7.8970
 0.6370	 7.8750
 0.6380	 7.8480
 0.6390	 7.8170
 0.6400	 7.7830
 0.6410	 7.7460
 0.6420	 7.7060
 0.6430	 7.6670
 0.6440	 7.6300
 0.6450	 7.5940
 0.6460	 7.5590
 0.6470	 7.5290
 0.6480	 7.4990
 0.6490	 7.4730
 0.6500	 7.4560
 0.6510	 7.4360
 0.6520	 7.4140
 0.6530	 7.3930
 0.6540	 7.3770
 0.6550	 7.3630
 0.6560	 7.3490
 0.6570	 7.3290
 0.6580	 7.3070
 0.6590	 7.2900
 0.6600	 7.2730
 0.6610	 7.2510
 0.6620	 7.2340
 0.6630	 7.2180
 0.6640	 7.2100
 0.6650	 7.2020
 0.6660	 7.1990
 0.6670	 7.1950
 0.6680	 7.1920
 0.6690	 7.2000
 0.6700	 7.2060
 0.6710	 7.2150
 0.6720	 7.2290
 0.6730	 7.2400
 0.6740	 7.2560
 0.6750	 7.2750
 0.6760	 7.2970
 0.6770	 7.3230
 0.6780	 7.3490
 0.6790	 7.3710
 0.6800	 7.4030
 0.6810	 7.4390
 0.6820	 7.4760
 0.6830	 7.5150
 0.6840	 7.5580
 0.6850	 7.6060
 0.6860	 7.6590
 0.6870	 7.7210
 0.6880	 7.8000
 0.6890	 7.8940
 0.6900	 8.0120
 0.6910	 8.1650
 0.6920	 8.3630
 0.6930	 8.6090
 0.6940	 8.9070
 0.6950	 9.2770
 0.6960	 9.7110
 0.6970	10.2160
 0.6980	10.7950
 0.6990	11.4410
 0.7000	12.1460
 0.7010	12.9040
 0.7020	13.7100
 0.7030	14.5470
 0.7040	15.4140
 0.7050	16.3060
 0.7060	17.2120
 0.7070	18.1280
 0.7080	19.0480
 0.7090	19.9670
 0.7100	20.8840
 0.7110	21.8050
 0.7120	22.7240
 0.7130	23.6310
 0.7140	24.5300
 0.7150	25.4210
 0.7160	26.3010
 0.7170	27.1640
 0.7180	28.0180
 0.7190	28.8580
 0.7200	29.6770
 0.7210	30.4770
 0.7220	31.2570
 0.7230	32.0150
 0.7240	32.7500
 0.7250	33.4590
 0.7260	34.1430
 0.7270	34.8020
 0.7280	35.4320
 0.7290	36.0310
 0.7300	36.6020
 0.7310	37.1500
 0.7320	37.6690
 0.7330	38.1610
 0.7340	38.6270
 0.7350	39.0670
 0.7360	39.4840
 0.7370	39.8770
 0.7380	40.2430
 0.7390	40.5870
 0.7400	40.9080
 0.7410	41.2100
 0.7420	41.4930
 0.7430	41.7570
 0.7440	42.0010
 0.7450	42.2260
 0.7460	42.4300
 0.7470	42.6210
 0.7480	42.7950
 0.7490	42.9500
 0.7500	43.0970
 0.7510	43.2300
 0.7520	43.3510
 0.7530	43.4690
 0.7540	43.5710
 0.7550	43.6590
 0.7560	43.7380
 0.7570	43.8110
 0.7580	43.8790
 0.7590	43.9410
 0.7600	43.9980
 0.7610	44.0500
 0.7620	44.0970
 0.7630	44.1370
 0.7640	44.1730
 0.7650	44.2070
 0.7660	44.2390
 0.7670	44.2670
 0.7680	44.2920
 0.7690	44.3130
 0.7700	44.3330
 0.7710	44.3520
 0.7720	44.3690
 0.7730	44.3830
 0.7740	44.3960
 0.7750	44.4110
 0.7760	44.4250
 0.7770	44.4410
 0.7780	44.4560
 0.7790	44.4640
 0.7800	44.4790
 0.7810	44.4970
 0.7820	44.5120
 0.7830	44.5210
 0.7840	44.5280
 0.7850	44.5370
 0.7860	44.5490
 0.7870	44.5570
 0.7880	44.5670
 0.7890	44.5780
 0.7900	44.5890
 0.7910	44.5970
 0.7920	44.6010
 0.7930	44.6050
 0.7940	44.6150
 0.7950	44.6230
 0.7960	44.6270
 0.7970	44.6280
 0.7980	44.6360
 0.7990	44.6420
 0.8000	44.6450
 0.8010	44.6470
 0.8020	44.6450
 0.8030	44.6450
 0.8040	44.6480
 0.8050	44.6520
 0.8060	44.6480
 0.8070	44.6460
 0.8080	44.6470
 0.8090	44.6410
 0.8100	44.6400
 0.8110	44.6420
 0.8120	44.6430
 0.8130	44.6410
 0.8140	44.6330
 0.8150	44.6240
 0.8160	44.6210
 0.8170	44.6220
 0.8180	44.6170
 0.8190	44.6090
 0.8200	44.6070
 0.8210	44.6050
 0.8220	44.6000
 0.8230	44.5920
 0.8240	44.5770
 0.8250	44.5720
 0.8260	44.5680
 0.8270	44.5600
 0.8280	44.5530
 0.8290	44.5440
 0.8300	44.5360
 0.8310	44.5340
 0.8320	44.5260
 0.8330	44.5220
 0.8340	44.5200
 0.8350	44.5110
 0.8360	44.5050
 0.8370	44.4980
 0.8380	44.4920
 0.8390	44.4910
 0.8400	44.4890
 0.8410	44.4870
 0.8420	44.4870
 0.8430	44.4910
 0.8440	44.4850
 0.8450	44.4790
 0.8460	44.4800
 0.8470	44.4830
 0.8480	44.4860
 0.8490	44.4850
 0.8500	44.4800
 0.8510	44.4800
 0.8520	44.4830
 0.8530	44.4840
 0.8540	44.4800
 0.8550	44.4780
 0.8560	44.4770
 0.8570	44.4780
 0.8580	44.4880
 0.8590	44.4910
 0.8600	44.4900
 0.8610	44.4910
 0.8620	44.4930
 0.8630	44.4930
 0.8640	44.4940
 0.8650	44.4980
 0.8660	44.5050
 0.8670	44.5080
 0.8680	44.5090
 0.8690	44.5110
 0.8700	44.5180
 0.8710	44.5250
 0.8720	44.5290
 0.8730	44.5320
 0.8740	44.5390
 0.8750	44.5410
 0.8760	44.5410
 0.8770	44.5520
 0.8780	44.5640
 0.8790	44.5740
 0.8800	44.5770
 0.8810	44.5750
 0.8820	44.5730
 0.8830	44.5780
 0.8840	44.5880
 0.8850	44.5880
 0.8860	44.5910
 0.8870	44.5960
 0.8880	44.6010
 0.8890	44.6080
 0.8900	44.6130
 0.8910	44.6150
 0.8920	44.6170
 0.8930	44.6260
 0.8940	44.6310
 0.8950	44.6330
 0.8960	44.6420
 0.8970	44.6470
 0.8980	44.6500
 0.8990	44.6520
 0.9000	44.6540
 0.9010	44.6600
 0.9020	44.6640
 0.9030	44.6670
 0.9040	44.6730
 0.9050	44.6830
 0.9060	44.6940
 0.9070	44.6990
 0.9080	44.6960
 0.9090	44.6960
 0.9100	44.7000
 0.9110	44.7050
 0.9120	44.7090
 0.9130	44.7150
 0.9140	44.7220
 0.9150	44.7280
 0.9160	44.7300
 0.9170	44.7280
 0.9180	44.7300
 0.9190	44.7400
 0.9200	44.7320
 0.9210	44.7220
 0.9220	44.7190
 0.9230	44.7200
 0.9240	44.7220
 0.9250	44.7210
 0.9260	44.7140
 0.9270	44.7010
 0.9280	44.6950
 0.9290	44.6880
 0.9300	44.6780
 0.9310	44.6680
 0.9320	44.6600
 0.9330	44.6500
 0.9340	44.6360
 0.9350	44.6250
 0.9360	44.6170
 0.9370	44.6000
 0.9380	44.5740
 0.9390	44.5610
 0.9400	44.5500
 0.9410	44.5350
 0.9420	44.5160
 0.9430	44.4980
 0.9440	44.4760
 0.9450	44.4480
 0.9460	44.4190
 0.9470	44.3930
 0.9480	44.3590
 0.9490	44.3270
 0.9500	44.3040
 0.9510	44.2620
 0.9520	44.2200
 0.9530	44.1830
 0.9540	44.1490
 0.9550	44.1010
 0.9560	44.0610
 0.9570	44.0260
 0.9580	43.9860
 0.9590	43.9370
 0.9600	43.9030
 0.9610	43.8800
 0.9620	43.8550
 0.9630	43.8210
 0.9640	43.7990
 0.9650	43.7820
 0.9660	43.7580
 0.9670	43.7420
 0.9680	43.7320
 0.9690	43.7240
 0.9700	43.7140
 0.9710	43.7090
 0.9720	43.7020
 0.9730	43.6900
 0.9740	43.6710
 0.9750	43.6570
 0.9760	43.6530
 0.9770	43.6590
 0.9780	43.6640
 0.9790	43.6660
 0.9800	43.6590
 0.9810	43.6480
 0.9820	43.6430
 0.9830	43.6530
 0.9840	43.6570
 0.9850	43.6580
 0.9860	43.6690
 0.9870	43.6680
 0.9880	43.6730
 0.9890	43.6890
 0.9900	43.7070
 0.9910	43.7120
 0.9920	43.7070
 0.9930	43.7110
 0.9940	43.7380
 0.9950	43.7460
 0.9960	43.7590
 0.9970	43.7720
 0.9980	43.7750
 0.9990	43.8040
 1.0000	43.9390
 1.0010	44.1690
 1.0020	44.2990
 1.0030	44.3140
 1.0040	44.3270
 1.0050	44.3420
 1.0060	44.3580
 1.0070	44.3720
 1.0080	44.3850
 1.0090	44.3980
 1.0100	44.4120
 1.0110	44.4250
 1.0120	44.4370
 1.0130	44.4490
 1.0140	44.4620
 1.0150	44.4750
 1.0160	44.4840
 1.0170	44.4970
 1.0180	44.5120
 1.0190	44.5220
 1.0200	44.5340
 1.0210	44.5470
 1.0220	44.5570
 1.0230	44.5660
 1.0240	44.5720
 1.0250	44.5830
 1.0260	44.5960
 1.0270	44.6060
 1.0280	44.6180
 1.0290	44.6300
 1.0300	44.6370
 1.0310	44.6470
 1.0320	44.6600
 1.0330	44.6720
 1.0340	44.6830
 1.0350	44.6900
 1.0360	44.6990
 1.0370	44.7090
 1.0380	44.7170
 1.0390	44.7260
 1.0400	44.7330
 1.0410	44.7380
 1.0420	44.7460
 1.0430	44.7560
 1.0440	44.7650
 1.0450	44.7760
 1.0460	44.7840
 1.0470	44.7890
 1.0480	44.7960
 1.0490	44.8050
 1.0500	44.8120
 1.0510	44.8210
 1.0520	44.8270
 1.0530	44.8330
 1.0540	44.8350
 1.0550	44.8410
 1.0560	44.8490
 1.0570	44.8520
 1.0580	44.8550
 1.0590	44.8590
 1.0600	44.8600
 1.0610	44.8640
 1.0620	44.8710
 1.0630	44.8750
 1.0640	44.8770
 1.0650	44.8790
 1.0660	44.8800
 1.0670	44.8800
 1.0680	44.8810
 1.0690	44.8800
 1.0700	44.8790
 1.0710	44.8760
 1.0720	44.8760
 1.0730	44.8770
 1.0740	44.8760
 1.0750	44.8760
 1.0760	44.8740
 1.0770	44.8670
 1.0780	44.8640
 1.0790	44.8630
 1.0800	44.8620
 1.0810	44.8620
 1.0820	44.8620
 1.0830	44.8660
 1.0840	44.8640
 1.0850	44.8580
 1.0860	44.8520
 1.0870	44.8490
 1.0880	44.8420
 1.0890	44.8380
 1.0900	44.8380
 1.0910	44.8340
 1.0920	44.8270
 1.0930	44.8180
 1.0940	44.8080
 1.0950	44.8000
 1.0960	44.7900
 1.0970	44.7820
 1.0980	44.7770
 1.0990	44.7700
 1.1000	44.7600
 1.1010	44.7520
 1.1020	44.7470
 1.1030	44.7410
 1.1040	44.7340
 1.1050	44.7260
 1.1060	44.7180
 1.1070	44.7090
 1.1080	44.6990
 1.1090	44.6910
 1.1100	44.6810
 1.1110	44.6700
 1.1120	44.6580
 1.1130	44.6460
 1.1140	44.6340
 1.1150	44.6230
 1.1160	44.6100
 1.1170	44.5980
 1.1180	44.5820
 1.1190	44.5640
 1.1200	44.5450
 1.1210	44.5230
 1.1220	44.5020
 1.1230	44.4770
 1.1240	44.4510
 1.1250	44.4210
 1.1260	44.3890
 1.1270	44.3520
 1.1280	44.3120
 1.1290	44.2680
 1.1300	44.2210
 1.1310	44.1680
 1.1320	44.1110
 1.1330	44.0490
 1.1340	43.9810
 1.1350	43.9110
 1.1360	43.8380
 1.1370	43.7580
 1.1380	43.6750
 1.1390	43.5880
 1.1400	43.4950
 1.1410	43.4010
 1.1420	43.3060
 1.1430	43.2070
 1.1440	43.1090
 1.1450	43.0090
 1.1460	42.9120
 1.1470	42.8120
 1.1480	42.7180
 1.1490	42.6240
 1.1500	42.5370
 1.1510	42.4520
 1.1520	42.3740
 1.1530	42.3020
 1.1540	42.2360
 1.1550	42.1770
 1.1560	42.1230
 1.1570	42.0750
 1.1580	42.0340
 1.1590	41.9960
 1.1600	41.9610
 1.1610	41.9300
 1.1620	41.9040
 1.1630	41.8830
 1.1640	41.8660
 1.1650	41.8510
 1.1660	41.8420
 1.1670	41.8310
 1.1680	41.8210
 1.1690	41.8140
 1.1700	41.8090
 1.1710	41.8040
 1.1720	41.8030
 1.1730	41.7990
 1.1740	41.7930
 1.1750	41.7850
 1.1760	41.7770
 1.1770	41.7700
 1.1780	41.7640
 1.1790	41.7570
 1.1800	41.7500
 1.1810	41.7430
 1.1820	41.7330
 1.1830	41.7230
 1.1840	41.7160
 1.1850	41.7080
 1.1860	41.7010
 1.1870	41.6940
 1.1880	41.6870
 1.1890	41.6770
 1.1900	41.6710
 1.1910	41.6670
 1.1920	41.6630
 1.1930	41.6610
 1.1940	41.6600
 1.1950	41.6600
 1.1960	41.6600
 1.1970	41.6620
 1.1980	41.6640
 1.1990	41.6660
 1.2000	41.6700
 1.2010	41.6740
 1.2020	41.6790
 1.2030	41.6860
 1.2040	41.6930
 1.2050	41.7020
 1.2060	41.7110
 1.2070	41.7210
 1.2080	41.7320
 1.2090	41.7440
 1.2100	41.7590
 1.2110	41.7740
 1.2120	41.7890
 1.2130	41.8040
 1.2140	41.8200
 1.2150	41.8370
 1.2160	41.8530
 1.2170	41.8690
 1.2180	41.8860
 1.2190	41.9040
 1.2200	41.9210
 1.2210	41.9380
 1.2220	41.9560
 1.2230	41.9710
 1.2240	41.9870
 1.2250	42.0050
 1.2260	42.0240
 1.2270	42.0430
 1.2280	42.0600
 1.2290	42.0770
 1.2300	42.0940
 1.2310	42.1080
 1.2320	42.1230
 1.2330	42.1370
 1.2340	42.1500
 1.2350	42.1630
 1.2360	42.1760
 1.2370	42.1900
 1.2380	42.2030
 1.2390	42.2180
 1.2400	42.2300
 1.2410	42.2420
 1.2420	42.2550
 1.2430	42.2640
 1.2440	42.2730
 1.2450	42.2830
 1.2460	42.2900
 1.2470	42.2980
 1.2480	42.3080
 1.2490	42.3160
 1.2500	42.3250
 1.2510	42.3360
 1.2520	42.3450
 1.2530	42.3510
 1.2540	42.3570
 1.2550	42.3600
 1.2560	42.3620
 1.2570	42.3650
 1.2580	42.3670
 1.2590	42.3690
 1.2600	42.3710
 1.2610	42.3730
 1.2620	42.3750
 1.2630	42.3780
 1.2640	42.3790
 1.2650	42.3790
 1.2660	42.3770
 1.2670	42.3710
 1.2680	42.3670
 1.2690	42.3620
 1.2700	42.3570
 1.2710	42.3520
 1.2720	42.3450
 1.2730	42.3370
 1.2740	42.3290
 1.2750	42.3210
 1.2760	42.3130
 1.2770	42.3010
 1.2780	42.2880
 1.2790	42.2760
 1.2800	42.2660
 1.2810	42.2540
 1.2820	42.2430
 1.2830	42.2320
 1.2840	42.2180
 1.2850	42.2020
 1.2860	42.1850
 1.2870	42.1670
 1.2880	42.1460
 1.2890	42.1240
 1.2900	42.1030
 1.2910	42.0820
 1.2920	42.0590
 1.2930	42.0350
 1.2940	42.0070
 1.2950	41.9790
 1.2960	41.9480
 1.2970	41.9150
 1.2980	41.8840
 1.2990	41.8530
 1.3000	41.8190
 1.3010	41.7850
 1.3020	41.7460
 1.3030	41.7020
 1.3040	41.6580
 1.3050	41.6130
 1.3060	41.5680
 1.3070	41.5220
 1.3080	41.4730
 1.3090	41.4200
 1.3100	41.3630
 1.3110	41.3030
 1.3120	41.2440
 1.3130	41.1830
 1.3140	41.1190
 1.3150	41.0540
 1.3160	40.9850
 1.3170	40.9110
 1.3180	40.8360
 1.3190	40.7600
 1.3200	40.6830
 1.3210	40.6020
 1.3220	40.5180
 1.3230	40.4310
 1.3240	40.3420
 1.3250	40.2530
 1.3260	40.1620
 1.3270	40.0690
 1.3280	39.9730
 1.3290	39.8720
 1.3300	39.7700
 1.3310	39.6650
 1.3320	39.5570
 1.3330	39.4520
 1.3340	39.3450
 1.3350	39.2380
 1.3360	39.1310
 1.3370	39.0200
 1.3380	38.9090
 1.3390	38.8010
 1.3400	38.6890
 1.3410	38.5790
 1.3420	38.4720
 1.3430	38.3620
 1.3440	38.2530
 1.3450	38.1460
 1.3460	38.0390
 1.3470	37.9340
 1.3480	37.8300
 1.3490	37.7270
 1.3500	37.6240
 1.3510	37.5210
 1.3520	37.4160
 1.3530	37.3120
 1.3540	37.2080
 1.3550	37.1040
 1.3560	37.0000
 1.3570	36.8940
 1.3580	36.7880
 1.3590	36.6800
 1.3600	36.5680
 1.3610	36.4550
 1.3620	36.3370
 1.3630	36.2140
 1.3640	36.0860
 1.3650	35.9510
 1.3660	35.8110
 1.3670	35.6620
 1.3680	35.5070
 1.3690	35.3440
 1.3700	35.1680
 1.3710	34.9820
 1.3720	34.7830
 1.3730	34.5690
 1.3740	34.3420
 1.3750	34.0990
 1.3760	33.8380
 1.3770	33.5570
 1.3780	33.2560
 1.3790	32.9350
 1.3800	32.5930
 1.3810	32.2280
 1.3820	31.8480
 1.3830	31.4510
 1.3840	31.0330
 1.3850	30.5970
 1.3860	30.1460
 1.3870	29.6730
 1.3880	29.1960
 1.3890	28.7060
 1.3900	28.2040
 1.3910	27.6990
 1.3920	27.1870
 1.3930	26.6680
 1.3940	26.1490
 1.3950	25.6270
 1.3960	25.1080
 1.3970	24.5950
 1.3980	24.0910
 1.3990	23.6020
 1.4000	23.1250
 1.4010	22.6590
 1.4020	22.2120
 1.4030	21.7780
 1.4040	21.3630
 1.4050	20.9690
 1.4060	20.5920
 1.4070	20.2400
 1.4080	19.9080
 1.4090	19.5940
 1.4100	19.3020
 1.4110	19.0280
 1.4120	18.7730
 1.4130	18.5380
 1.4140	18.3200
 1.4150	18.1230
 1.4160	17.9410
 1.4170	17.7730
 1.4180	17.6210
 1.4190	17.4820
 1.4200	17.3550
 1.4210	17.2410
 1.4220	17.1380
 1.4230	17.0470
 1.4240	16.9660
 1.4250	16.8920
 1.4260	16.8290
 1.4270	16.7720
 1.4280	16.7240
 1.4290	16.6820
 1.4300	16.6470
 1.4310	16.6170
 1.4320	16.5940
 1.4330	16.5740
 1.4340	16.5590
 1.4350	16.5490
 1.4360	16.5430
 1.4370	16.5400
 1.4380	16.5400
 1.4390	16.5440
 1.4400	16.5490
 1.4410	16.5570
 1.4420	16.5680
 1.4430	16.5810
 1.4440	16.5940
 1.4450	16.6100
 1.4460	16.6280
 1.4470	16.6480
 1.4480	16.6690
 1.4490	16.6900
 1.4500	16.7130
 1.4510	16.7360
 1.4520	16.7600
 1.4530	16.7850
 1.4540	16.8100
 1.4550	16.8370
 1.4560	16.8660
 1.4570	16.8980
 1.4580	16.9330
 1.4590	16.9710
 1.4600	17.0120
 1.4610	17.0570
 1.4620	17.1060
 1.4630	17.1600
 1.4640	17.2170
 1.4650	17.2790
 1.4660	17.3450
 1.4670	17.4160
 1.4680	17.4910
 1.4690	17.5700
 1.4700	17.6540
 1.4710	17.7430
 1.4720	17.8350
 1.4730	17.9300
 1.4740	18.0290
 1.4750	18.1300
 1.4760	18.2350
 1.4770	18.3440
 1.4780	18.4520
 1.4790	18.5630
 1.4800	18.6740
 1.4810	18.7870
 1.4820	18.9030
 1.4830	19.0200
 1.4840	19.1390
 1.4850	19.2570
 1.4860	19.3750
 1.4870	19.4940
 1.4880	19.6120
 1.4890	19.7310
 1.4900	19.8510
 1.4910	19.9700
 1.4920	20.0910
 1.4930	20.2130
 1.4940	20.3340
 1.4950	20.4560
 1.4960	20.5760
 1.4970	20.6940
 1.4980	20.8140
 1.4990	20.9350
 1.5000	21.0550
 1.5010	21.1750
 1.5020	21.2940
 1.5030	21.4130
 1.5040	21.5310
 1.5050	21.6480
 1.5060	21.7660
 1.5070	21.8820
 1.5080	21.9980
 1.5090	22.1140
 1.5100	22.2290
 1.5110	22.3410
 1.5120	22.4550
 1.5130	22.5670
 1.5140	22.6790
 1.5150	22.7900
 1.5160	22.9000
 1.5170	23.0090
 1.5180	23.1180
 1.5190	23.2250
 1.5200	23.3310
 1.5210	23.4350
 1.5220	23.5370
 1.5230	23.6390
 1.5240	23.7400
 1.5250	23.8410
 1.5260	23.9420
 1.5270	24.0410
 1.5280	24.1400
 1.5290	24.2370
 1.5300	24.3330
 1.5310	24.4270
 1.5320	24.5210
 1.5330	24.6140
 1.5340	24.7040
 1.5350	24.7940
 1.5360	24.8840
 1.5370	24.9720
 1.5380	25.0600
 1.5390	25.1480
 1.5400	25.2350
 1.5410	25.3210
 1.5420	25.4060
 1.5430	25.4910
 1.5440	25.5740
 1.5450	25.6560
 1.5460	25.7360
 1.5470	25.8150
 1.5480	25.8950
 1.5490	25.9730
 1.5500	26.0510
 1.5510	26.1280
 1.5520	26.2050
 1.5530	26.2790
 1.5540	26.3540
 1.5550	26.4280
 1.5560	26.5000
 1.5570	26.5720
 1.5580	26.6420
 1.5590	26.7120
 1.5600	26.7810
 1.5610	26.8480
 1.5620	26.9150
 1.5630	26.9820
 1.5640	27.0470
 1.5650	27.1120
 1.5660	27.1760
 1.5670	27.2400
 1.5680	27.3030
 1.5690	27.3670
 1.5700	27.4300
 1.5710	27.4930
 1.5720	27.5560
 1.5730	27.6190
 1.5740	27.6800
 1.5750	27.7410
 1.5760	27.8000
 1.5770	27.8590
 1.5780	27.9170
 1.5790	27.9760
 1.5800	28.0340
 1.5810	28.0930
 1.5820	28.1500
 1.5830	28.2070
 1.5840	28.2660
 1.5850	28.3220
 1.5860	28.3770
 1.5870	28.4320
 1.5880	28.4850
 1.5890	28.5380
 1.5900	28.5930
 1.5910	28.6450
 1.5920	28.6980
 1.5930	28.7490
 1.5940	28.8010
 1.5950	28.8510
 1.5960	28.9010
 1.5970	28.9520
 1.5980	29.0020
 1.5990	29.0530
 1.6000	29.1020
 1.6010	29.1510
 1.6020	29.2000
 1.6030	29.2480
 1.6040	29.2960
 1.6050	29.3440
 1.6060	29.3890
 1.6070	29.4330
 1.6080	29.4770
 1.6090	29.5210
 1.6100	29.5650
 1.6110	29.6100
 1.6120	29.6520
 1.6130	29.6920
 1.6140	29.7320
 1.6150	29.7690
 1.6160	29.8080
 1.6170	29.8470
 1.6180	29.8860
 1.6190	29.9250
 1.6200	29.9620
 1.6210	29.9980
 1.6220	30.0330
 1.6230	30.0660
 1.6240	30.1000
 1.6250	30.1320
 1.6260	30.1630
 1.6270	30.1940
 1.6280	30.2270
 1.6290	30.2580
 1.6300	30.2890
 1.6310	30.3190
 1.6320	30.3460
 1.6330	30.3730
 1.6340	30.3980
 1.6350	30.4230
 1.6360	30.4460
 1.6370	30.4670
 1.6380	30.4890
 1.6390	30.5080
 1.6400	30.5250
 1.6410	30.5400
 1.6420	30.5530
 1.6430	30.5650
 1.6440	30.5760
 1.6450	30.5850
 1.6460	30.5920
 1.6470	30.5980
 1.6480	30.6020
 1.6490	30.6020
 1.6500	30.6030
 1.6510	30.6010
 1.6520	30.5980
 1.6530	30.5960
 1.6540	30.5900
 1.6550	30.5840
 1.6560	30.5770
 1.6570	30.5680
 1.6580	30.5600
 1.6590	30.5550
 1.6600	30.5500
 1.6610	30.5440
 1.6620	30.5400
 1.6630	30.5370
 1.6640	30.5340
 1.6650	30.5300
 1.6660	30.5270
 1.6670	30.5250
 1.6680	30.5240
 1.6690	30.5230
 1.6700	30.5230
 1.6710	30.5200
 1.6720	30.5140
 1.6730	30.5080
 1.6740	30.5010
 1.6750	30.4910
 1.6760	30.4800
 1.6770	30.4660
 1.6780	30.4500
 1.6790	30.4350
 1.6800	30.4160
 1.6810	30.3940
 1.6820	30.3690
 1.6830	30.3410
 1.6840	30.3120
 1.6850	30.2810
 1.6860	30.2490
 1.6870	30.2150
 1.6880	30.1780
 1.6890	30.1400
 1.6900	30.1010
 1.6910	30.0610
 1.6920	30.0220
 1.6930	29.9830
 1.6940	29.9430
 1.6950	29.9050
 1.6960	29.8640
 1.6970	29.8230
 1.6980	29.7810
 1.6990	29.7370
 1.7000	29.6960
 1.7010	29.6560
 1.7020	29.6160
 1.7030	29.5770
 1.7040	29.5350
 1.7050	29.4890
 1.7060	29.4450
 1.7070	29.4010
 1.7080	29.3580
 1.7090	29.3160
 1.7100	29.2750
 1.7110	29.2340
 1.7120	29.1920
 1.7130	29.1520
 1.7140	29.1110
 1.7150	29.0700
 1.7160	29.0280
 1.7170	28.9860
 1.7180	28.9440
 1.7190	28.9020
 1.7200	28.8600
 1.7210	28.8210
 1.7220	28.7800
 1.7230	28.7390
 1.7240	28.7000
 1.7250	28.6600
 1.7260	28.6200
 1.7270	28.5810
 1.7280	28.5440
 1.7290	28.5070
 1.7300	28.4720
 1.7310	28.4360
 1.7320	28.4010
 1.7330	28.3640
 1.7340	28.3260
 1.7350	28.2880
 1.7360	28.2490
 1.7370	28.2080
 1.7380	28.1680
 1.7390	28.1250
 1.7400	28.0800
 1.7410	28.0340
 1.7420	27.9880
 1.7430	27.9420
 1.7440	27.8940
 1.7450	27.8440
 1.7460	27.7930
 1.7470	27.7420
 1.7480	27.6900
 1.7490	27.6390
 1.7500	27.5880
 1.7510	27.5380
 1.7520	27.4890
 1.7530	27.4370
 1.7540	27.3850
 1.7550	27.3320
 1.7560	27.2800
 1.7570	27.2300
 1.7580	27.1790
 1.7590	27.1300
 1.7600	27.0810
 1.7610	27.0340
 1.7620	26.9880
 1.7630	26.9420
 1.7640	26.8980
 1.7650	26.8580
 1.7660	26.8170
 1.7670	26.7760
 1.7680	26.7370
 1.7690	26.6990
 1.7700	26.6610
 1.7710	26.6250
 1.7720	26.5890
 1.7730	26.5530
 1.7740	26.5180
 1.7750	26.4830
 1.7760	26.4500
 1.7770	26.4180
 1.7780	26.3870
 1.7790	26.3570
 1.7800	26.3300
 1.7810	26.3040
 1.7820	26.2800
 1.7830	26.2610
 1.7840	26.2390
 1.7850	26.2170
 1.7860	26.1960
 1.7870	26.1760
 1.7880	26.1570
 1.7890	26.1440
 1.7900	26.1350
 1.7910	26.1240
 1.7920	26.1140
 1.7930	26.1050
 1.7940	26.0970
 1.7950	26.0910
 1.7960	26.0910
 1.7970	26.0880
 1.7980	26.0870
 1.7990	26.0850
 1.8000	26.0820
 1.8010	26.0810
 1.8020	26.0820
 1.8030	26.0830
 1.8040	26.0860
 1.8050	26.0870
 1.8060	26.0870
 1.8070	26.0880
 1.8080	26.0880
 1.8090	26.0900
 1.8100	26.0950
 1.8110	26.0980
 1.8120	26.0990
 1.8130	26.1000
 1.8140	26.1020
 1.8150	26.1020
 1.8160	26.1030
 1.8170	26.1050
 1.8180	26.1030
 1.8190	26.0980
 1.8200	26.0950
 1.8210	26.0910
 1.8220	26.0860
 1.8230	26.0830
 1.8240	26.0780
 1.8250	26.0670
 1.8260	26.0600
 1.8270	26.0540
 1.8280	26.0440
 1.8290	26.0360
 1.8300	25.9910
 1.8310	25.9270
 1.8320	25.8730
 1.8330	25.8480
 1.8340	25.8170
 1.8350	25.7820
 1.8360	25.7460
 1.8370	25.7060
 1.8380	25.6620
 1.8390	25.6120
 1.8400	25.5560
 1.8410	25.4970
 1.8420	25.4350
 1.8430	25.3660
 1.8440	25.2910
 1.8450	25.2110
 1.8460	25.1200
 1.8470	25.0240
 1.8480	24.9230
 1.8490	24.8080
 1.8500	24.6850
 1.8510	24.5540
 1.8520	24.4130
 1.8530	24.2590
 1.8540	24.0980
 1.8550	23.9220
 1.8560	23.7320
 1.8570	23.5330
 1.8580	23.3200
 1.8590	23.0960
 1.8600	22.8630
 1.8610	22.6160
 1.8620	22.3500
 1.8630	22.0700
 1.8640	21.7720
 1.8650	21.4570
 1.8660	21.1300
 1.8670	20.7830
 1.8680	20.4190
 1.8690	20.0430
 1.8700	19.6460
 1.8710	19.2310
 1.8720	18.8050
 1.8730	18.3680
 1.8740	17.9170
 1.8750	17.4600
 1.8760	16.9960
 1.8770	16.5300
 1.8780	16.0610
 1.8790	15.5900
 1.8800	15.1250
 1.8810	14.6610
 1.8820	14.1970
 1.8830	13.7380
 1.8840	13.2860
 1.8850	12.8390
 1.8860	12.4050
 1.8870	11.9840
 1.8880	11.5780
 1.8890	11.1910
 1.8900	10.8210
 1.8910	10.4700
 1.8920	10.1360
 1.8930	 9.8220
 1.8940	 9.5290
 1.8950	 9.2580
 1.8960	 9.0090
 1.8970	 8.7810
 1.8980	 8.5730
 1.8990	 8.3820
 1.9000	 8.2070
 1.9010	 8.0490
 1.9020	 7.9080
 1.9030	 7.7800
 1.9040	 7.6690
 1.9050	 7.5700
 1.9060	 7.4820
 1.9070	 7.4070
 1.9080	 7.3410
 1.9090	 7.2810
 1.9100	 7.2320
 1.9110	 7.1870
 1.9120	 7.1470
 1.9130	 7.1120
 1.9140	 7.0830
 1.9150	 7.0600
 1.9160	 7.0400
 1.9170	 7.0250
 1.9180	 7.0130
 1.9190	 7.0020
 1.9200	 6.9950
 1.9210	 6.9890
 1.9220	 6.9850
 1.9230	 6.9850
 1.9240	 6.9850
 1.9250	 6.9880
 1.9260	 6.9930
 1.9270	 7.0010
 1.9280	 7.0050
 1.9290	 7.0170
 1.9300	 7.0250
 1.9310	 7.0370
 1.9320	 7.0530
 1.9330	 7.0690
 1.9340	 7.0840
 1.9350	 7.0990
 1.9360	 7.1150
 1.9370	 7.1360
 1.9380	 7.1580
 1.9390	 7.1810
 1.9400	 7.2070
 1.9410	 7.2300
 1.9420	 7.2540
 1.9430	 7.2770
 1.9440	 7.3030
 1.9450	 7.3290
 1.9460	 7.3570
 1.9470	 7.3850
 1.9480	 7.4130
 1.9490	 7.4430
 1.9500	 7.4730
 1.9510	 7.5050
 1.9520	 7.5390
 1.9530	 7.5750
 1.9540	 7.6110
 1.9550	 7.6470
 1.9560	 7.6850
 1.9570	 7.7220
 1.9580	 7.7580
 1.9590	 7.7980
 1.9600	 7.8380
 1.9610	 7.8780
 1.9620	 7.9220
 1.9630	 7.9630
 1.9640	 8.0090
 1.9650	 8.0520
 1.9660	 8.0960
 1.9670	 8.1390
 1.9680	 8.1850
 1.9690	 8.2310
 1.9700	 8.2820
 1.9710	 8.3340
 1.9720	 8.3850
 1.9730	 8.4370
 1.9740	 8.4860
 1.9750	 8.5360
 1.9760	 8.5870
 1.9770	 8.6410
 1.9780	 8.6940
 1.9790	 8.7530
 1.9800	 8.8130
 1.9810	 8.8720
 1.9820	 8.9330
 1.9830	 8.9920
 1.9840	 9.0490
 1.9850	 9.1090
 1.9860	 9.1670
 1.9870	 9.2230
 1.9880	 9.2840
 1.9890	 9.3440
 1.9900	 9.4080
 1.9910	 9.4710
 1.9920	 9.5350
 1.9930	 9.5990
 1.9940	 9.6620
 1.9950	 9.7250
 1.9960	 9.7890
 1.9970	 9.8520
 1.9980	 9.9140
 1.9990	 9.9810
 2.0000	10.0450
 2.0010	10.1090
 2.0020	10.1740
 2.0030	10.2360
 2.0040	10.3000
 2.0050	10.3640
 2.0060	10.4300
 2.0070	10.4930
 2.0080	10.5560
 2.0090	10.6180
 2.0100	10.6800
 2.0110	10.7400
 2.0120	10.7980
 2.0130	10.8580
 2.0140	10.9170
 2.0150	10.9750
 2.0160	11.0370
 2.0170	11.0980
 2.0180	11.1570
 2.0190	11.2140
 2.0200	11.2700
 2.0210	11.3250
 2.0220	11.3780
 2.0230	11.4320
 2.0240	11.4830
 2.0250	11.5310
 2.0260	11.5800
 2.0270	11.6270
 2.0280	11.6730
 2.0290	11.7190
 2.0300	11.7650
 2.0310	11.8110
 2.0320	11.8590
 2.0330	11.9030
 2.0340	11.9450
 2.0350	11.9870
 2.0360	12.0240
 2.0370	12.0640
 2.0380	12.1070
 2.0390	12.1470
 2.0400	12.1850
 2.0410	12.2220
 2.0420	12.2570
 2.0430	12.2890
 2.0440	12.3210
 2.0450	12.3530
 2.0460	12.3850
 2.0470	12.4160
 2.0480	12.4470
 2.0490	12.4780
 2.0500	12.5100
 2.0510	12.5420
 2.0520	12.5740
 2.0530	12.6070
 2.0540	12.6390
 2.0550	12.6700
 2.0560	12.7000
 2.0570	12.7300
 2.0580	12.7620
 2.0590	12.7940
 2.0600	12.8280
 2.0610	12.8610
 2.0620	12.8970
 2.0630	12.9280
 2.0640	12.9570
 2.0650	12.9890
 2.0660	13.0200
 2.0670	13.0530
 2.0680	13.0910
 2.0690	13.1260
 2.0700	13.1580
 2.0710	13.1910
 2.0720	13.2230
 2.0730	13.2530
 2.0740	13.2850
 2.0750	13.3170
 2.0760	13.3480
 2.0770	13.3790
 2.0780	13.4110
 2.0790	13.4420
 2.0800	13.4720
 2.0810	13.5020
 2.0820	13.5310
 2.0830	13.5570
 2.0840	13.5870
 2.0850	13.6190
 2.0860	13.6490
 2.0870	13.6780
 2.0880	13.7050
 2.0890	13.7330
 2.0900	13.7560
 2.0910	13.7840
 2.0920	13.8140
 2.0930	13.8430
 2.0940	13.8740
 2.0950	13.9040
 2.0960	13.9360
 2.0970	13.9640
 2.0980	13.9900
 2.0990	14.0170
 2.1000	14.0440
 2.1010	14.0710
 2.1020	14.1000
 2.1030	14.1270
 2.1040	14.1540
 2.1050	14.1780
 2.1060	14.2030
 2.1070	14.2280
 2.1080	14.2530
 2.1090	14.2780
 2.1100	14.3040
 2.1110	14.3290
 2.1120	14.3550
 2.1130	14.3820
 2.1140	14.4080
 2.1150	14.4340
 2.1160	14.4580
 2.1170	14.4780
 2.1180	14.5020
 2.1190	14.5290
 2.1200	14.5530
 2.1210	14.5760
 2.1220	14.6020
 2.1230	14.6250
 2.1240	14.6450
 2.1250	14.6680
 2.1260	14.6930
 2.1270	14.7160
 2.1280	14.7400
 2.1290	14.7630
 2.1300	14.7860
 2.1310	14.8070
 2.1320	14.8260
 2.1330	14.8460
 2.1340	14.8670
 2.1350	14.8870
 2.1360	14.9100
 2.1370	14.9290
 2.1380	14.9440
 2.1390	14.9620
 2.1400	14.9800
 2.1410	14.9980
 2.1420	15.0190
 2.1430	15.0430
 2.1440	15.0650
 2.1450	15.0890
 2.1460	15.1100
 2.1470	15.1290
 2.1480	15.1480
 2.1490	15.1650
 2.1500	15.1830
 2.1510	15.2010
 2.1520	15.2200
 2.1530	15.2400
 2.1540	15.2590
 2.1550	15.2760
 2.1560	15.2950
 2.1570	15.3150
 2.1580	15.3330
 2.1590	15.3520
 2.1600	15.3690
 2.1610	15.3840
 2.1620	15.3990
 2.1630	15.4130
 2.1640	15.4260
 2.1650	15.4390
 2.1660	15.4490
 2.1670	15.4630
 2.1680	15.4790
 2.1690	15.4950
 2.1700	15.5140
 2.1710	15.5310
 2.1720	15.5480
 2.1730	15.5660
 2.1740	15.5850
 2.1750	15.6030
 2.1760	15.6210
 2.1770	15.6400
 2.1780	15.6560
 2.1790	15.6740
 2.1800	15.6940
 2.1810	15.7140
 2.1820	15.7320
 2.1830	15.7540
 2.1840	15.7770
 2.1850	15.8000
 2.1860	15.8230
 2.1870	15.8490
 2.1880	15.8700
 2.1890	15.8870
 2.1900	15.9070
 2.1910	15.9260
 2.1920	15.9460
 2.1930	15.9670
 2.1940	15.9880
 2.1950	16.0090
 2.1960	16.0300
 2.1970	16.0520
 2.1980	16.0740
 2.1990	16.0990
 2.2000	16.1200
 2.2010	16.1380
 2.2020	16.1580
 2.2030	16.1780
 2.2040	16.1950
 2.2050	16.2130
 2.2060	16.2300
 2.2070	16.2460
 2.2080	16.2590
 2.2090	16.2730
 2.2100	16.2890
 2.2110	16.3040
 2.2120	16.3180
 2.2130	16.3330
 2.2140	16.3500
 2.2150	16.3620
 2.2160	16.3710
 2.2170	16.3790
 2.2180	16.3840
 2.2190	16.3900
 2.2200	16.3970
 2.2210	16.4010
 2.2220	16.4010
 2.2230	16.4010
 2.2240	16.4010
 2.2250	16.3980
 2.2260	16.3980
 2.2270	16.3920
 2.2280	16.3790
 2.2290	16.3660
 2.2300	16.3500
 2.2310	16.3310
 2.2320	16.3110
 2.2330	16.2930
 2.2340	16.2690
 2.2350	16.2420
 2.2360	16.2120
 2.2370	16.1790
 2.2380	16.1460
 2.2390	16.1110
 2.2400	16.0750
 2.2410	16.0400
 2.2420	16.0000
 2.2430	15.9560
 2.2440	15.9120
 2.2450	15.8620
 2.2460	15.8150
 2.2470	15.7680
 2.2480	15.7200
 2.2490	15.6730
 2.2500	15.6250
 2.2510	15.5770
 2.2520	15.5260
 2.2530	15.4740
 2.2540	15.4220
 2.2550	15.3690
 2.2560	15.3160
 2.2570	15.2640
 2.2580	15.2100
 2.2590	15.1520
 2.2600	15.0980
 2.2610	15.0440
 2.2620	14.9930
 2.2630	14.9440
 2.2640	14.8980
 2.2650	14.8510
 2.2660	14.8030
 2.2670	14.7570
 2.2680	14.7110
 2.2690	14.6650
 2.2700	14.6210
 2.2710	14.5740
 2.2720	14.5260
 2.2730	14.4800
 2.2740	14.4330
 2.2750	14.3890
 2.2760	14.3500
 2.2770	14.3060
 2.2780	14.2600
 2.2790	14.2190
 2.2800	14.1750
 2.2810	14.1370
 2.2820	14.1060
 2.2830	14.0710
 2.2840	14.0350
 2.2850	14.0000
 2.2860	13.9640
 2.2870	13.9270
 2.2880	13.8890
 2.2890	13.8500
 2.2900	13.8080
 2.2910	13.7680
 2.2920	13.7260
 2.2930	13.6860
 2.2940	13.6500
 2.2950	13.6100
 2.2960	13.5650
 2.2970	13.5220
 2.2980	13.4780
 2.2990	13.4330
 2.3000	13.3940
 2.3010	13.3620
 2.3020	13.3340
 2.3030	13.3020
 2.3040	13.2660
 2.3050	13.2280
 2.3060	13.1830
 2.3070	13.1410
 2.3080	13.1090
 2.3090	13.0800
 2.3100	13.0540
 2.3110	13.0310
 2.3120	13.0070
 2.3130	12.9850
 2.3140	12.9620
 2.3150	12.9390
 2.3160	12.9160
 2.3170	12.8890
 2.3180	12.8690
 2.3190	12.8560
 2.3200	12.8370
 2.3210	12.8220
 2.3220	12.7970
 2.3230	12.7630
 2.3240	12.7330
 2.3250	12.7000
 2.3260	12.6690
 2.3270	12.6410
 2.3280	12.6100
 2.3290	12.5800
 2.3300	12.5510
 2.3310	12.5280
 2.3320	12.4970
 2.3330	12.4630
 2.3340	12.4260
 2.3350	12.3800
 2.3360	12.3400
 2.3370	12.3010
 2.3380	12.2630
 2.3390	12.2250
 2.3400	12.1880
 2.3410	12.1530
 2.3420	12.1200
 2.3430	12.0920
 2.3440	12.0590
 2.3450	12.0240
 2.3460	11.9910
 2.3470	11.9540
 2.3480	11.9230
 2.3490	11.9000
 2.3500	11.8720
 2.3510	11.8430
 2.3520	11.8170
 2.3530	11.7930
 2.3540	11.7670
 2.3550	11.7490
 2.3560	11.7350
 2.3570	11.7070
 2.3580	11.6860
 2.3590	11.6700
 2.3600	11.6470
 2.3610	11.6260
 2.3620	11.6000
 2.3630	11.5720
 2.3640	11.5390
 2.3650	11.5110
 2.3660	11.4870
 2.3670	11.4500
 2.3680	11.4170
 2.3690	11.3810
 2.3700	11.3390
 2.3710	11.3050
 2.3720	11.2710
 2.3730	11.2480
 2.3740	11.2260
 2.3750	11.2080
 2.3760	11.1880
 2.3770	11.1470
 2.3780	11.1120
 2.3790	11.0720
 2.3800	11.0230
 2.3810	10.9850
 2.3820	10.9500
 2.3830	10.9160
 2.3840	10.8790
 2.3850	10.8460
 2.3860	10.8170
 2.3870	10.7800
 2.3880	10.7520
 2.3890	10.7200
 2.3900	10.6820
 2.3910	10.6540
 2.3920	10.6100
 2.3930	10.5620
 2.3940	10.5200
 2.3950	10.4700
 2.3960	10.4350
 2.3970	10.4120
 2.3980	10.3790
 2.3990	10.3480
 2.4000	10.3100
 2.4010	10.2630
 2.4020	10.2250
 2.4030	10.1820
 2.4040	10.1370
 2.4050	10.1040
 2.4060	10.0750
 2.4070	10.0420
 2.4080	10.0030
 2.4090	 9.9600
 2.4100	 9.9040
 2.4110	 9.8580
 2.4120	 9.8250
 2.4130	 9.7950
 2.4140	 9.7670
 2.4150	 9.7390
 2.4160	 9.6940
 2.4170	 9.6550
 2.4180	 9.6070
 2.4190	 9.5590
 2.4200	 9.5240
 2.4210	 9.4790
 2.4220	 9.4390
 2.4230	 9.4010
 2.4240	 9.3550
 2.4250	 9.3150
 2.4260	 9.2790
 2.4270	 9.2510
 2.4280	 9.2250
 2.4290	 9.1800
 2.4300	 9.1410
 2.4310	 9.0950
 2.4320	 9.0410
 2.4330	 9.0000
 2.4340	 8.9500
 2.4350	 8.9000
 2.4360	 8.8650
 2.4370	 8.8270
 2.4380	 8.7890
 2.4390	 8.7630
 2.4400	 8.7360
 2.4410	 8.7000
 2.4420	 8.6710
 2.4430	 8.6330
 2.4440	 8.5830
 2.4450	 8.5480
 2.4460	 8.5100
 2.4470	 8.4830
 2.4480	 8.4610
 2.4490	 8.4100
 2.4500	 8.3730
 2.4510	 8.3390
 2.4520	 8.3000
 2.4530	 8.2890
 2.4540	 8.2640
 2.4550	 8.2160
 2.4560	 8.1730
 2.4570	 8.1170
 2.4580	 8.0740
 2.4590	 8.0510
 2.4600	 8.0220
 2.4610	 7.9900
 2.4620	 7.9650
 2.4630	 7.9420
 2.4640	 7.9260
 2.4650	 7.9110
 2.4660	 7.8800
 2.4670	 7.8470
 2.4680	 7.8260
 2.4690	 7.8350
 2.4700	 7.8290
 2.4710	 7.8290
 2.4720	 7.8090
 2.4730	 7.7520
 2.4740	 7.7210
 2.4750	 7.6950
 2.4760	 7.6720
 2.4770	 7.6810
 2.4780	 7.6590
 2.4790	 7.6110
 2.4800	 7.5870
 2.4810	 7.5730
 2.4820	 7.5570
 2.4830	 7.5380
 2.4840	 7.5130
 2.4850	 7.4830
 2.4860	 7.4640
 2.4870	 7.4690
 2.4880	 7.4660
 2.4890	 7.4550
 2.4900	 7.4330
 2.4910	 7.4230
 2.4920	 7.3950
 2.4930	 7.3690
 2.4940	 7.3830
 2.4950	 7.3840
 2.4960	 7.4040
 2.4970	 7.4080
 2.4980	 7.3900
 2.4990	 7.3710
 2.5000	 7.3160
