Name: Ehretia austin-smithii
Type: vegetation
Class: Tree
Genus: Ehretia
Species: austin-smithii
Sample No.: JPL210
Owner: JPL
Wavelength Range: VSWIR
Origin: 34.12625; -118.11137; WGS84
Collection Date: 10/3/2016
Description: Samples were collected at the Huntington Garden in San Marino California as part of a JPL Subcontract studying HyTES imagery. Samples were taken to JPL and processed within 48 hours of collection. The same leaves were processed in the Nicolet and then measured using the ASD.
Measurement: Bidirectional reflectance
First Column: X
Second Column: Y
X Units: Wavelength (micrometer)
Y Units: Reflectance (percentage)
First X Value: 0.35
Last X Value: 2.5
Number of X Values: 2151
Additional Information: vegetation.tree.ehretia.austin-smithii.vswir.jpl210.jpl.asd.ancillary.txt

 0.3500	 7.6220
 0.3510	 7.6600
 0.3520	 7.6500
 0.3530	 7.5890
 0.3540	 7.5280
 0.3550	 7.5300
 0.3560	 7.5560
 0.3570	 7.5710
 0.3580	 7.5430
 0.3590	 7.3960
 0.3600	 7.3380
 0.3610	 7.4240
 0.3620	 7.4660
 0.3630	 7.4880
 0.3640	 7.4690
 0.3650	 7.4110
 0.3660	 7.4130
 0.3670	 7.4380
 0.3680	 7.4510
 0.3690	 7.4250
 0.3700	 7.4440
 0.3710	 7.4490
 0.3720	 7.4110
 0.3730	 7.3900
 0.3740	 7.3810
 0.3750	 7.3750
 0.3760	 7.3680
 0.3770	 7.3870
 0.3780	 7.3960
 0.3790	 7.3770
 0.3800	 7.3360
 0.3810	 7.3490
 0.3820	 7.3800
 0.3830	 7.3950
 0.3840	 7.3910
 0.3850	 7.4070
 0.3860	 7.4190
 0.3870	 7.3940
 0.3880	 7.3680
 0.3890	 7.3640
 0.3900	 7.3790
 0.3910	 7.3940
 0.3920	 7.4090
 0.3930	 7.4170
 0.3940	 7.4110
 0.3950	 7.3970
 0.3960	 7.4100
 0.3970	 7.4270
 0.3980	 7.4080
 0.3990	 7.3810
 0.4000	 7.3780
 0.4010	 7.4020
 0.4020	 7.4170
 0.4030	 7.4140
 0.4040	 7.4160
 0.4050	 7.4360
 0.4060	 7.4260
 0.4070	 7.4190
 0.4080	 7.4180
 0.4090	 7.4110
 0.4100	 7.4390
 0.4110	 7.4610
 0.4120	 7.4550
 0.4130	 7.4530
 0.4140	 7.4710
 0.4150	 7.4920
 0.4160	 7.4940
 0.4170	 7.4890
 0.4180	 7.4920
 0.4190	 7.5020
 0.4200	 7.5050
 0.4210	 7.5200
 0.4220	 7.5320
 0.4230	 7.5310
 0.4240	 7.5330
 0.4250	 7.5410
 0.4260	 7.5480
 0.4270	 7.5440
 0.4280	 7.5470
 0.4290	 7.5530
 0.4300	 7.5540
 0.4310	 7.5420
 0.4320	 7.5360
 0.4330	 7.5290
 0.4340	 7.5110
 0.4350	 7.5090
 0.4360	 7.5190
 0.4370	 7.5330
 0.4380	 7.5440
 0.4390	 7.5620
 0.4400	 7.5760
 0.4410	 7.5820
 0.4420	 7.6070
 0.4430	 7.6150
 0.4440	 7.6160
 0.4450	 7.6290
 0.4460	 7.6380
 0.4470	 7.6480
 0.4480	 7.6590
 0.4490	 7.6670
 0.4500	 7.6710
 0.4510	 7.6770
 0.4520	 7.6880
 0.4530	 7.7020
 0.4540	 7.7070
 0.4550	 7.7090
 0.4560	 7.7180
 0.4570	 7.7240
 0.4580	 7.7280
 0.4590	 7.7340
 0.4600	 7.7380
 0.4610	 7.7510
 0.4620	 7.7640
 0.4630	 7.7670
 0.4640	 7.7680
 0.4650	 7.7710
 0.4660	 7.7760
 0.4670	 7.7800
 0.4680	 7.7820
 0.4690	 7.7830
 0.4700	 7.7830
 0.4710	 7.7860
 0.4720	 7.7940
 0.4730	 7.8010
 0.4740	 7.8010
 0.4750	 7.8030
 0.4760	 7.8070
 0.4770	 7.8150
 0.4780	 7.8230
 0.4790	 7.8240
 0.4800	 7.8230
 0.4810	 7.8260
 0.4820	 7.8210
 0.4830	 7.8190
 0.4840	 7.8200
 0.4850	 7.8210
 0.4860	 7.8230
 0.4870	 7.8300
 0.4880	 7.8440
 0.4890	 7.8630
 0.4900	 7.8760
 0.4910	 7.8860
 0.4920	 7.9030
 0.4930	 7.9220
 0.4940	 7.9390
 0.4950	 7.9550
 0.4960	 7.9790
 0.4970	 8.0100
 0.4980	 8.0380
 0.4990	 8.0580
 0.5000	 8.0900
 0.5010	 8.1240
 0.5020	 8.1600
 0.5030	 8.2020
 0.5040	 8.2520
 0.5050	 8.3050
 0.5060	 8.3590
 0.5070	 8.4200
 0.5080	 8.4880
 0.5090	 8.5670
 0.5100	 8.6630
 0.5110	 8.7600
 0.5120	 8.8660
 0.5130	 8.9840
 0.5140	 9.1150
 0.5150	 9.2630
 0.5160	 9.4210
 0.5170	 9.5850
 0.5180	 9.7590
 0.5190	 9.9460
 0.5200	10.1430
 0.5210	10.3500
 0.5220	10.5590
 0.5230	10.7700
 0.5240	10.9840
 0.5250	11.1950
 0.5260	11.3990
 0.5270	11.5960
 0.5280	11.7890
 0.5290	11.9730
 0.5300	12.1470
 0.5310	12.3090
 0.5320	12.4560
 0.5330	12.5940
 0.5340	12.7210
 0.5350	12.8350
 0.5360	12.9350
 0.5370	13.0260
 0.5380	13.1080
 0.5390	13.1750
 0.5400	13.2250
 0.5410	13.2620
 0.5420	13.2940
 0.5430	13.3270
 0.5440	13.3720
 0.5450	13.4300
 0.5460	13.4950
 0.5470	13.5630
 0.5480	13.6270
 0.5490	13.6790
 0.5500	13.7150
 0.5510	13.7400
 0.5520	13.7550
 0.5530	13.7620
 0.5540	13.7570
 0.5550	13.7360
 0.5560	13.6980
 0.5570	13.6460
 0.5580	13.5840
 0.5590	13.5110
 0.5600	13.4260
 0.5610	13.3350
 0.5620	13.2390
 0.5630	13.1370
 0.5640	13.0310
 0.5650	12.9200
 0.5660	12.8040
 0.5670	12.6820
 0.5680	12.5560
 0.5690	12.4270
 0.5700	12.2960
 0.5710	12.1640
 0.5720	12.0350
 0.5730	11.9110
 0.5740	11.7920
 0.5750	11.6800
 0.5760	11.5740
 0.5770	11.4730
 0.5780	11.3810
 0.5790	11.2940
 0.5800	11.2150
 0.5810	11.1410
 0.5820	11.0700
 0.5830	11.0020
 0.5840	10.9410
 0.5850	10.8880
 0.5860	10.8380
 0.5870	10.7860
 0.5880	10.7390
 0.5890	10.7010
 0.5900	10.6700
 0.5910	10.6390
 0.5920	10.6080
 0.5930	10.5790
 0.5940	10.5560
 0.5950	10.5370
 0.5960	10.5220
 0.5970	10.5030
 0.5980	10.4840
 0.5990	10.4640
 0.6000	10.4420
 0.6010	10.4210
 0.6020	10.3950
 0.6030	10.3620
 0.6040	10.3260
 0.6050	10.2840
 0.6060	10.2360
 0.6070	10.1850
 0.6080	10.1320
 0.6090	10.0640
 0.6100	 9.9790
 0.6110	 9.8850
 0.6120	 9.8290
 0.6130	 9.7920
 0.6140	 9.7590
 0.6150	 9.7170
 0.6160	 9.6750
 0.6170	 9.6320
 0.6180	 9.5880
 0.6190	 9.5470
 0.6200	 9.5090
 0.6210	 9.4760
 0.6220	 9.4500
 0.6230	 9.4290
 0.6240	 9.4150
 0.6250	 9.4040
 0.6260	 9.3920
 0.6270	 9.3850
 0.6280	 9.3810
 0.6290	 9.3760
 0.6300	 9.3690
 0.6310	 9.3640
 0.6320	 9.3610
 0.6330	 9.3520
 0.6340	 9.3400
 0.6350	 9.3220
 0.6360	 9.2980
 0.6370	 9.2680
 0.6380	 9.2310
 0.6390	 9.1890
 0.6400	 9.1430
 0.6410	 9.0950
 0.6420	 9.0480
 0.6430	 9.0010
 0.6440	 8.9540
 0.6450	 8.9060
 0.6460	 8.8590
 0.6470	 8.8160
 0.6480	 8.7780
 0.6490	 8.7450
 0.6500	 8.7200
 0.6510	 8.7010
 0.6520	 8.6850
 0.6530	 8.6730
 0.6540	 8.6630
 0.6550	 8.6490
 0.6560	 8.6350
 0.6570	 8.6190
 0.6580	 8.5990
 0.6590	 8.5810
 0.6600	 8.5640
 0.6610	 8.5460
 0.6620	 8.5280
 0.6630	 8.5140
 0.6640	 8.5050
 0.6650	 8.5010
 0.6660	 8.4990
 0.6670	 8.5030
 0.6680	 8.5100
 0.6690	 8.5180
 0.6700	 8.5340
 0.6710	 8.5540
 0.6720	 8.5760
 0.6730	 8.6030
 0.6740	 8.6330
 0.6750	 8.6670
 0.6760	 8.7050
 0.6770	 8.7450
 0.6780	 8.7880
 0.6790	 8.8350
 0.6800	 8.8870
 0.6810	 8.9420
 0.6820	 8.9970
 0.6830	 9.0540
 0.6840	 9.1130
 0.6850	 9.1760
 0.6860	 9.2430
 0.6870	 9.3190
 0.6880	 9.4080
 0.6890	 9.5210
 0.6900	 9.6690
 0.6910	 9.8590
 0.6920	10.1010
 0.6930	10.4040
 0.6940	10.7750
 0.6950	11.2170
 0.6960	11.7250
 0.6970	12.2940
 0.6980	12.9240
 0.6990	13.6030
 0.7000	14.3230
 0.7010	15.0760
 0.7020	15.8520
 0.7030	16.6420
 0.7040	17.4390
 0.7050	18.2400
 0.7060	19.0420
 0.7070	19.8440
 0.7080	20.6430
 0.7090	21.4420
 0.7100	22.2440
 0.7110	23.0420
 0.7120	23.8370
 0.7130	24.6330
 0.7140	25.4260
 0.7150	26.2150
 0.7160	26.9990
 0.7170	27.7730
 0.7180	28.5400
 0.7190	29.2980
 0.7200	30.0410
 0.7210	30.7710
 0.7220	31.4850
 0.7230	32.1800
 0.7240	32.8570
 0.7250	33.5100
 0.7260	34.1410
 0.7270	34.7500
 0.7280	35.3350
 0.7290	35.8930
 0.7300	36.4270
 0.7310	36.9370
 0.7320	37.4200
 0.7330	37.8780
 0.7340	38.3110
 0.7350	38.7180
 0.7360	39.1030
 0.7370	39.4640
 0.7380	39.8010
 0.7390	40.1150
 0.7400	40.4080
 0.7410	40.6800
 0.7420	40.9300
 0.7430	41.1630
 0.7440	41.3760
 0.7450	41.5690
 0.7460	41.7460
 0.7470	41.9070
 0.7480	42.0540
 0.7490	42.1860
 0.7500	42.3080
 0.7510	42.4180
 0.7520	42.5170
 0.7530	42.6080
 0.7540	42.6900
 0.7550	42.7650
 0.7560	42.8350
 0.7570	42.8970
 0.7580	42.9570
 0.7590	43.0100
 0.7600	43.0570
 0.7610	43.1010
 0.7620	43.1450
 0.7630	43.1830
 0.7640	43.2150
 0.7650	43.2480
 0.7660	43.2770
 0.7670	43.3020
 0.7680	43.3250
 0.7690	43.3480
 0.7700	43.3700
 0.7710	43.3900
 0.7720	43.4080
 0.7730	43.4270
 0.7740	43.4470
 0.7750	43.4660
 0.7760	43.4860
 0.7770	43.5060
 0.7780	43.5260
 0.7790	43.5450
 0.7800	43.5610
 0.7810	43.5790
 0.7820	43.5980
 0.7830	43.6150
 0.7840	43.6330
 0.7850	43.6520
 0.7860	43.6690
 0.7870	43.6850
 0.7880	43.7030
 0.7890	43.7190
 0.7900	43.7330
 0.7910	43.7460
 0.7920	43.7620
 0.7930	43.7790
 0.7940	43.7910
 0.7950	43.8040
 0.7960	43.8160
 0.7970	43.8280
 0.7980	43.8390
 0.7990	43.8470
 0.8000	43.8540
 0.8010	43.8610
 0.8020	43.8690
 0.8030	43.8770
 0.8040	43.8850
 0.8050	43.8940
 0.8060	43.9000
 0.8070	43.9060
 0.8080	43.9120
 0.8090	43.9120
 0.8100	43.9160
 0.8110	43.9200
 0.8120	43.9220
 0.8130	43.9260
 0.8140	43.9280
 0.8150	43.9300
 0.8160	43.9350
 0.8170	43.9350
 0.8180	43.9340
 0.8190	43.9340
 0.8200	43.9370
 0.8210	43.9390
 0.8220	43.9400
 0.8230	43.9390
 0.8240	43.9380
 0.8250	43.9380
 0.8260	43.9400
 0.8270	43.9420
 0.8280	43.9390
 0.8290	43.9400
 0.8300	43.9410
 0.8310	43.9390
 0.8320	43.9400
 0.8330	43.9390
 0.8340	43.9390
 0.8350	43.9410
 0.8360	43.9430
 0.8370	43.9460
 0.8380	43.9500
 0.8390	43.9520
 0.8400	43.9550
 0.8410	43.9600
 0.8420	43.9670
 0.8430	43.9700
 0.8440	43.9770
 0.8450	43.9830
 0.8460	43.9860
 0.8470	43.9910
 0.8480	43.9990
 0.8490	44.0060
 0.8500	44.0080
 0.8510	44.0170
 0.8520	44.0260
 0.8530	44.0350
 0.8540	44.0440
 0.8550	44.0550
 0.8560	44.0630
 0.8570	44.0710
 0.8580	44.0810
 0.8590	44.0930
 0.8600	44.1050
 0.8610	44.1160
 0.8620	44.1250
 0.8630	44.1330
 0.8640	44.1420
 0.8650	44.1550
 0.8660	44.1680
 0.8670	44.1850
 0.8680	44.1980
 0.8690	44.2040
 0.8700	44.2170
 0.8710	44.2320
 0.8720	44.2460
 0.8730	44.2570
 0.8740	44.2710
 0.8750	44.2850
 0.8760	44.2980
 0.8770	44.3120
 0.8780	44.3290
 0.8790	44.3450
 0.8800	44.3570
 0.8810	44.3710
 0.8820	44.3860
 0.8830	44.4020
 0.8840	44.4160
 0.8850	44.4300
 0.8860	44.4440
 0.8870	44.4570
 0.8880	44.4700
 0.8890	44.4840
 0.8900	44.5020
 0.8910	44.5190
 0.8920	44.5330
 0.8930	44.5430
 0.8940	44.5540
 0.8950	44.5690
 0.8960	44.5850
 0.8970	44.5980
 0.8980	44.6100
 0.8990	44.6240
 0.9000	44.6370
 0.9010	44.6480
 0.9020	44.6630
 0.9030	44.6790
 0.9040	44.6870
 0.9050	44.6970
 0.9060	44.7100
 0.9070	44.7240
 0.9080	44.7390
 0.9090	44.7510
 0.9100	44.7610
 0.9110	44.7730
 0.9120	44.7830
 0.9130	44.7910
 0.9140	44.8000
 0.9150	44.8130
 0.9160	44.8190
 0.9170	44.8310
 0.9180	44.8430
 0.9190	44.8460
 0.9200	44.8520
 0.9210	44.8580
 0.9220	44.8620
 0.9230	44.8680
 0.9240	44.8750
 0.9250	44.8810
 0.9260	44.8830
 0.9270	44.8810
 0.9280	44.8770
 0.9290	44.8770
 0.9300	44.8800
 0.9310	44.8820
 0.9320	44.8770
 0.9330	44.8710
 0.9340	44.8670
 0.9350	44.8590
 0.9360	44.8530
 0.9370	44.8530
 0.9380	44.8510
 0.9390	44.8330
 0.9400	44.8210
 0.9410	44.8140
 0.9420	44.8050
 0.9430	44.7900
 0.9440	44.7790
 0.9450	44.7680
 0.9460	44.7500
 0.9470	44.7310
 0.9480	44.7120
 0.9490	44.6930
 0.9500	44.6710
 0.9510	44.6430
 0.9520	44.6230
 0.9530	44.6020
 0.9540	44.5730
 0.9550	44.5430
 0.9560	44.5180
 0.9570	44.4930
 0.9580	44.4650
 0.9590	44.4470
 0.9600	44.4330
 0.9610	44.4200
 0.9620	44.4050
 0.9630	44.3880
 0.9640	44.3720
 0.9650	44.3620
 0.9660	44.3560
 0.9670	44.3470
 0.9680	44.3360
 0.9690	44.3260
 0.9700	44.3210
 0.9710	44.3170
 0.9720	44.3170
 0.9730	44.3170
 0.9740	44.3120
 0.9750	44.3040
 0.9760	44.3010
 0.9770	44.3020
 0.9780	44.3050
 0.9790	44.3010
 0.9800	44.3150
 0.9810	44.3300
 0.9820	44.3170
 0.9830	44.3150
 0.9840	44.3200
 0.9850	44.3290
 0.9860	44.3390
 0.9870	44.3350
 0.9880	44.3290
 0.9890	44.3340
 0.9900	44.3560
 0.9910	44.3540
 0.9920	44.3510
 0.9930	44.3620
 0.9940	44.3850
 0.9950	44.3900
 0.9960	44.4000
 0.9970	44.4100
 0.9980	44.4080
 0.9990	44.4070
 1.0000	44.4160
 1.0010	44.4960
 1.0020	44.5060
 1.0030	44.5170
 1.0040	44.5300
 1.0050	44.5420
 1.0060	44.5560
 1.0070	44.5720
 1.0080	44.5850
 1.0090	44.5930
 1.0100	44.6040
 1.0110	44.6180
 1.0120	44.6280
 1.0130	44.6350
 1.0140	44.6450
 1.0150	44.6550
 1.0160	44.6650
 1.0170	44.6790
 1.0180	44.6900
 1.0190	44.7010
 1.0200	44.7120
 1.0210	44.7220
 1.0220	44.7340
 1.0230	44.7440
 1.0240	44.7520
 1.0250	44.7630
 1.0260	44.7750
 1.0270	44.7880
 1.0280	44.8050
 1.0290	44.8170
 1.0300	44.8280
 1.0310	44.8380
 1.0320	44.8460
 1.0330	44.8540
 1.0340	44.8640
 1.0350	44.8720
 1.0360	44.8840
 1.0370	44.8950
 1.0380	44.9050
 1.0390	44.9180
 1.0400	44.9290
 1.0410	44.9360
 1.0420	44.9460
 1.0430	44.9560
 1.0440	44.9650
 1.0450	44.9740
 1.0460	44.9830
 1.0470	44.9910
 1.0480	44.9990
 1.0490	45.0080
 1.0500	45.0150
 1.0510	45.0200
 1.0520	45.0240
 1.0530	45.0310
 1.0540	45.0380
 1.0550	45.0470
 1.0560	45.0600
 1.0570	45.0670
 1.0580	45.0720
 1.0590	45.0760
 1.0600	45.0760
 1.0610	45.0790
 1.0620	45.0830
 1.0630	45.0880
 1.0640	45.0970
 1.0650	45.1030
 1.0660	45.1060
 1.0670	45.1100
 1.0680	45.1140
 1.0690	45.1150
 1.0700	45.1190
 1.0710	45.1250
 1.0720	45.1290
 1.0730	45.1330
 1.0740	45.1370
 1.0750	45.1390
 1.0760	45.1420
 1.0770	45.1460
 1.0780	45.1490
 1.0790	45.1530
 1.0800	45.1560
 1.0810	45.1590
 1.0820	45.1610
 1.0830	45.1620
 1.0840	45.1650
 1.0850	45.1680
 1.0860	45.1700
 1.0870	45.1740
 1.0880	45.1780
 1.0890	45.1810
 1.0900	45.1830
 1.0910	45.1840
 1.0920	45.1850
 1.0930	45.1860
 1.0940	45.1880
 1.0950	45.1890
 1.0960	45.1910
 1.0970	45.1930
 1.0980	45.1950
 1.0990	45.1950
 1.1000	45.1950
 1.1010	45.1940
 1.1020	45.1930
 1.1030	45.1900
 1.1040	45.1910
 1.1050	45.1940
 1.1060	45.1950
 1.1070	45.1980
 1.1080	45.1980
 1.1090	45.1970
 1.1100	45.1950
 1.1110	45.1910
 1.1120	45.1900
 1.1130	45.1880
 1.1140	45.1870
 1.1150	45.1880
 1.1160	45.1850
 1.1170	45.1810
 1.1180	45.1750
 1.1190	45.1680
 1.1200	45.1570
 1.1210	45.1470
 1.1220	45.1370
 1.1230	45.1250
 1.1240	45.1120
 1.1250	45.0970
 1.1260	45.0810
 1.1270	45.0600
 1.1280	45.0360
 1.1290	45.0090
 1.1300	44.9800
 1.1310	44.9460
 1.1320	44.9100
 1.1330	44.8710
 1.1340	44.8290
 1.1350	44.7830
 1.1360	44.7330
 1.1370	44.6810
 1.1380	44.6260
 1.1390	44.5650
 1.1400	44.5030
 1.1410	44.4420
 1.1420	44.3790
 1.1430	44.3150
 1.1440	44.2520
 1.1450	44.1870
 1.1460	44.1240
 1.1470	44.0620
 1.1480	44.0030
 1.1490	43.9440
 1.1500	43.8900
 1.1510	43.8360
 1.1520	43.7880
 1.1530	43.7430
 1.1540	43.7020
 1.1550	43.6640
 1.1560	43.6300
 1.1570	43.5970
 1.1580	43.5680
 1.1590	43.5420
 1.1600	43.5170
 1.1610	43.4950
 1.1620	43.4770
 1.1630	43.4590
 1.1640	43.4440
 1.1650	43.4300
 1.1660	43.4170
 1.1670	43.4060
 1.1680	43.3990
 1.1690	43.3910
 1.1700	43.3860
 1.1710	43.3790
 1.1720	43.3690
 1.1730	43.3620
 1.1740	43.3550
 1.1750	43.3490
 1.1760	43.3420
 1.1770	43.3370
 1.1780	43.3320
 1.1790	43.3260
 1.1800	43.3210
 1.1810	43.3160
 1.1820	43.3090
 1.1830	43.3020
 1.1840	43.2980
 1.1850	43.2920
 1.1860	43.2860
 1.1870	43.2810
 1.1880	43.2760
 1.1890	43.2710
 1.1900	43.2680
 1.1910	43.2680
 1.1920	43.2670
 1.1930	43.2660
 1.1940	43.2650
 1.1950	43.2630
 1.1960	43.2630
 1.1970	43.2620
 1.1980	43.2640
 1.1990	43.2690
 1.2000	43.2710
 1.2010	43.2750
 1.2020	43.2810
 1.2030	43.2860
 1.2040	43.2940
 1.2050	43.3030
 1.2060	43.3120
 1.2070	43.3210
 1.2080	43.3310
 1.2090	43.3390
 1.2100	43.3480
 1.2110	43.3580
 1.2120	43.3700
 1.2130	43.3790
 1.2140	43.3890
 1.2150	43.3990
 1.2160	43.4070
 1.2170	43.4200
 1.2180	43.4320
 1.2190	43.4450
 1.2200	43.4570
 1.2210	43.4680
 1.2220	43.4780
 1.2230	43.4890
 1.2240	43.5000
 1.2250	43.5130
 1.2260	43.5260
 1.2270	43.5390
 1.2280	43.5510
 1.2290	43.5620
 1.2300	43.5730
 1.2310	43.5820
 1.2320	43.5920
 1.2330	43.6030
 1.2340	43.6130
 1.2350	43.6220
 1.2360	43.6320
 1.2370	43.6410
 1.2380	43.6490
 1.2390	43.6580
 1.2400	43.6680
 1.2410	43.6770
 1.2420	43.6850
 1.2430	43.6930
 1.2440	43.6990
 1.2450	43.7060
 1.2460	43.7130
 1.2470	43.7220
 1.2480	43.7300
 1.2490	43.7380
 1.2500	43.7450
 1.2510	43.7490
 1.2520	43.7540
 1.2530	43.7580
 1.2540	43.7610
 1.2550	43.7650
 1.2560	43.7690
 1.2570	43.7720
 1.2580	43.7750
 1.2590	43.7780
 1.2600	43.7790
 1.2610	43.7810
 1.2620	43.7820
 1.2630	43.7840
 1.2640	43.7830
 1.2650	43.7820
 1.2660	43.7800
 1.2670	43.7790
 1.2680	43.7780
 1.2690	43.7770
 1.2700	43.7750
 1.2710	43.7710
 1.2720	43.7650
 1.2730	43.7590
 1.2740	43.7550
 1.2750	43.7490
 1.2760	43.7430
 1.2770	43.7370
 1.2780	43.7280
 1.2790	43.7200
 1.2800	43.7090
 1.2810	43.6970
 1.2820	43.6860
 1.2830	43.6730
 1.2840	43.6600
 1.2850	43.6490
 1.2860	43.6360
 1.2870	43.6200
 1.2880	43.6030
 1.2890	43.5840
 1.2900	43.5640
 1.2910	43.5430
 1.2920	43.5240
 1.2930	43.5050
 1.2940	43.4840
 1.2950	43.4580
 1.2960	43.4320
 1.2970	43.4060
 1.2980	43.3770
 1.2990	43.3480
 1.3000	43.3210
 1.3010	43.2890
 1.3020	43.2580
 1.3030	43.2260
 1.3040	43.1930
 1.3050	43.1600
 1.3060	43.1250
 1.3070	43.0870
 1.3080	43.0460
 1.3090	43.0040
 1.3100	42.9610
 1.3110	42.9190
 1.3120	42.8750
 1.3130	42.8300
 1.3140	42.7830
 1.3150	42.7360
 1.3160	42.6870
 1.3170	42.6360
 1.3180	42.5830
 1.3190	42.5270
 1.3200	42.4700
 1.3210	42.4130
 1.3220	42.3550
 1.3230	42.2960
 1.3240	42.2340
 1.3250	42.1720
 1.3260	42.1090
 1.3270	42.0430
 1.3280	41.9740
 1.3290	41.9070
 1.3300	41.8360
 1.3310	41.7630
 1.3320	41.6910
 1.3330	41.6190
 1.3340	41.5440
 1.3350	41.4710
 1.3360	41.3980
 1.3370	41.3220
 1.3380	41.2470
 1.3390	41.1710
 1.3400	41.0940
 1.3410	41.0200
 1.3420	40.9470
 1.3430	40.8740
 1.3440	40.8010
 1.3450	40.7280
 1.3460	40.6530
 1.3470	40.5810
 1.3480	40.5110
 1.3490	40.4410
 1.3500	40.3720
 1.3510	40.3030
 1.3520	40.2340
 1.3530	40.1650
 1.3540	40.0940
 1.3550	40.0230
 1.3560	39.9510
 1.3570	39.8780
 1.3580	39.8060
 1.3590	39.7340
 1.3600	39.6580
 1.3610	39.5800
 1.3620	39.4980
 1.3630	39.4120
 1.3640	39.3210
 1.3650	39.2250
 1.3660	39.1240
 1.3670	39.0190
 1.3680	38.9050
 1.3690	38.7850
 1.3700	38.6530
 1.3710	38.5120
 1.3720	38.3600
 1.3730	38.1950
 1.3740	38.0200
 1.3750	37.8310
 1.3760	37.6250
 1.3770	37.4010
 1.3780	37.1570
 1.3790	36.8960
 1.3800	36.6180
 1.3810	36.3170
 1.3820	36.0000
 1.3830	35.6660
 1.3840	35.3130
 1.3850	34.9400
 1.3860	34.5520
 1.3870	34.1430
 1.3880	33.7260
 1.3890	33.2960
 1.3900	32.8530
 1.3910	32.4050
 1.3920	31.9480
 1.3930	31.4820
 1.3940	31.0150
 1.3950	30.5420
 1.3960	30.0720
 1.3970	29.6050
 1.3980	29.1440
 1.3990	28.6960
 1.4000	28.2570
 1.4010	27.8260
 1.4020	27.4090
 1.4030	27.0040
 1.4040	26.6130
 1.4050	26.2400
 1.4060	25.8830
 1.4070	25.5460
 1.4080	25.2250
 1.4090	24.9190
 1.4100	24.6330
 1.4110	24.3600
 1.4120	24.1040
 1.4130	23.8650
 1.4140	23.6400
 1.4150	23.4320
 1.4160	23.2390
 1.4170	23.0580
 1.4180	22.8890
 1.4190	22.7300
 1.4200	22.5820
 1.4210	22.4440
 1.4220	22.3160
 1.4230	22.2000
 1.4240	22.0940
 1.4250	21.9930
 1.4260	21.9010
 1.4270	21.8150
 1.4280	21.7360
 1.4290	21.6630
 1.4300	21.5990
 1.4310	21.5390
 1.4320	21.4840
 1.4330	21.4340
 1.4340	21.3880
 1.4350	21.3480
 1.4360	21.3120
 1.4370	21.2810
 1.4380	21.2530
 1.4390	21.2290
 1.4400	21.2080
 1.4410	21.1900
 1.4420	21.1750
 1.4430	21.1640
 1.4440	21.1540
 1.4450	21.1470
 1.4460	21.1400
 1.4470	21.1370
 1.4480	21.1360
 1.4490	21.1370
 1.4500	21.1410
 1.4510	21.1460
 1.4520	21.1520
 1.4530	21.1600
 1.4540	21.1700
 1.4550	21.1830
 1.4560	21.1980
 1.4570	21.2160
 1.4580	21.2380
 1.4590	21.2630
 1.4600	21.2920
 1.4610	21.3240
 1.4620	21.3610
 1.4630	21.4030
 1.4640	21.4480
 1.4650	21.4990
 1.4660	21.5540
 1.4670	21.6120
 1.4680	21.6760
 1.4690	21.7440
 1.4700	21.8170
 1.4710	21.8950
 1.4720	21.9750
 1.4730	22.0590
 1.4740	22.1470
 1.4750	22.2370
 1.4760	22.3320
 1.4770	22.4290
 1.4780	22.5270
 1.4790	22.6290
 1.4800	22.7300
 1.4810	22.8320
 1.4820	22.9380
 1.4830	23.0430
 1.4840	23.1520
 1.4850	23.2620
 1.4860	23.3740
 1.4870	23.4870
 1.4880	23.5980
 1.4890	23.7100
 1.4900	23.8230
 1.4910	23.9360
 1.4920	24.0490
 1.4930	24.1650
 1.4940	24.2800
 1.4950	24.3960
 1.4960	24.5120
 1.4970	24.6280
 1.4980	24.7450
 1.4990	24.8630
 1.5000	24.9800
 1.5010	25.0970
 1.5020	25.2140
 1.5030	25.3300
 1.5040	25.4460
 1.5050	25.5630
 1.5060	25.6790
 1.5070	25.7950
 1.5080	25.9110
 1.5090	26.0260
 1.5100	26.1410
 1.5110	26.2560
 1.5120	26.3730
 1.5130	26.4880
 1.5140	26.5990
 1.5150	26.7100
 1.5160	26.8200
 1.5170	26.9310
 1.5180	27.0440
 1.5190	27.1550
 1.5200	27.2650
 1.5210	27.3720
 1.5220	27.4780
 1.5230	27.5840
 1.5240	27.6890
 1.5250	27.7960
 1.5260	27.9030
 1.5270	28.0080
 1.5280	28.1110
 1.5290	28.2110
 1.5300	28.3110
 1.5310	28.4110
 1.5320	28.5090
 1.5330	28.6070
 1.5340	28.7050
 1.5350	28.8020
 1.5360	28.9000
 1.5370	28.9950
 1.5380	29.0880
 1.5390	29.1810
 1.5400	29.2710
 1.5410	29.3630
 1.5420	29.4540
 1.5430	29.5420
 1.5440	29.6320
 1.5450	29.7210
 1.5460	29.8090
 1.5470	29.8970
 1.5480	29.9830
 1.5490	30.0670
 1.5500	30.1500
 1.5510	30.2320
 1.5520	30.3130
 1.5530	30.3930
 1.5540	30.4730
 1.5550	30.5500
 1.5560	30.6260
 1.5570	30.7020
 1.5580	30.7770
 1.5590	30.8520
 1.5600	30.9270
 1.5610	30.9980
 1.5620	31.0700
 1.5630	31.1400
 1.5640	31.2100
 1.5650	31.2800
 1.5660	31.3480
 1.5670	31.4160
 1.5680	31.4820
 1.5690	31.5460
 1.5700	31.6100
 1.5710	31.6740
 1.5720	31.7370
 1.5730	31.8010
 1.5740	31.8620
 1.5750	31.9210
 1.5760	31.9820
 1.5770	32.0400
 1.5780	32.0990
 1.5790	32.1580
 1.5800	32.2140
 1.5810	32.2690
 1.5820	32.3240
 1.5830	32.3790
 1.5840	32.4360
 1.5850	32.4920
 1.5860	32.5470
 1.5870	32.6010
 1.5880	32.6540
 1.5890	32.7070
 1.5900	32.7590
 1.5910	32.8100
 1.5920	32.8600
 1.5930	32.9090
 1.5940	32.9560
 1.5950	33.0030
 1.5960	33.0510
 1.5970	33.0970
 1.5980	33.1410
 1.5990	33.1890
 1.6000	33.2340
 1.6010	33.2780
 1.6020	33.3250
 1.6030	33.3700
 1.6040	33.4110
 1.6050	33.4550
 1.6060	33.4960
 1.6070	33.5350
 1.6080	33.5770
 1.6090	33.6180
 1.6100	33.6580
 1.6110	33.6990
 1.6120	33.7370
 1.6130	33.7730
 1.6140	33.8090
 1.6150	33.8420
 1.6160	33.8750
 1.6170	33.9110
 1.6180	33.9450
 1.6190	33.9800
 1.6200	34.0140
 1.6210	34.0450
 1.6220	34.0740
 1.6230	34.1050
 1.6240	34.1350
 1.6250	34.1630
 1.6260	34.1910
 1.6270	34.2180
 1.6280	34.2450
 1.6290	34.2720
 1.6300	34.3000
 1.6310	34.3260
 1.6320	34.3510
 1.6330	34.3750
 1.6340	34.3990
 1.6350	34.4220
 1.6360	34.4430
 1.6370	34.4660
 1.6380	34.4880
 1.6390	34.5090
 1.6400	34.5310
 1.6410	34.5510
 1.6420	34.5680
 1.6430	34.5840
 1.6440	34.6000
 1.6450	34.6130
 1.6460	34.6240
 1.6470	34.6370
 1.6480	34.6480
 1.6490	34.6580
 1.6500	34.6690
 1.6510	34.6760
 1.6520	34.6800
 1.6530	34.6830
 1.6540	34.6840
 1.6550	34.6820
 1.6560	34.6790
 1.6570	34.6740
 1.6580	34.6690
 1.6590	34.6600
 1.6600	34.6500
 1.6610	34.6400
 1.6620	34.6270
 1.6630	34.6150
 1.6640	34.6030
 1.6650	34.5900
 1.6660	34.5760
 1.6670	34.5620
 1.6680	34.5490
 1.6690	34.5360
 1.6700	34.5240
 1.6710	34.5100
 1.6720	34.4970
 1.6730	34.4850
 1.6740	34.4720
 1.6750	34.4620
 1.6760	34.4510
 1.6770	34.4390
 1.6780	34.4270
 1.6790	34.4150
 1.6800	34.4010
 1.6810	34.3860
 1.6820	34.3720
 1.6830	34.3560
 1.6840	34.3390
 1.6850	34.3220
 1.6860	34.3030
 1.6870	34.2850
 1.6880	34.2670
 1.6890	34.2490
 1.6900	34.2310
 1.6910	34.2150
 1.6920	34.1970
 1.6930	34.1760
 1.6940	34.1570
 1.6950	34.1410
 1.6960	34.1220
 1.6970	34.1050
 1.6980	34.0850
 1.6990	34.0620
 1.7000	34.0400
 1.7010	34.0180
 1.7020	33.9950
 1.7030	33.9710
 1.7040	33.9460
 1.7050	33.9220
 1.7060	33.8940
 1.7070	33.8670
 1.7080	33.8370
 1.7090	33.8030
 1.7100	33.7700
 1.7110	33.7350
 1.7120	33.7000
 1.7130	33.6660
 1.7140	33.6320
 1.7150	33.5970
 1.7160	33.5600
 1.7170	33.5220
 1.7180	33.4810
 1.7190	33.4420
 1.7200	33.4030
 1.7210	33.3660
 1.7220	33.3300
 1.7230	33.2900
 1.7240	33.2510
 1.7250	33.2110
 1.7260	33.1720
 1.7270	33.1340
 1.7280	33.0960
 1.7290	33.0610
 1.7300	33.0240
 1.7310	32.9910
 1.7320	32.9620
 1.7330	32.9310
 1.7340	32.9030
 1.7350	32.8740
 1.7360	32.8440
 1.7370	32.8150
 1.7380	32.7880
 1.7390	32.7580
 1.7400	32.7260
 1.7410	32.6930
 1.7420	32.6570
 1.7430	32.6200
 1.7440	32.5830
 1.7450	32.5450
 1.7460	32.5070
 1.7470	32.4690
 1.7480	32.4300
 1.7490	32.3890
 1.7500	32.3460
 1.7510	32.3040
 1.7520	32.2620
 1.7530	32.2190
 1.7540	32.1760
 1.7550	32.1320
 1.7560	32.0860
 1.7570	32.0420
 1.7580	31.9990
 1.7590	31.9560
 1.7600	31.9130
 1.7610	31.8720
 1.7620	31.8310
 1.7630	31.7900
 1.7640	31.7510
 1.7650	31.7120
 1.7660	31.6770
 1.7670	31.6450
 1.7680	31.6120
 1.7690	31.5790
 1.7700	31.5480
 1.7710	31.5190
 1.7720	31.4900
 1.7730	31.4630
 1.7740	31.4370
 1.7750	31.4100
 1.7760	31.3860
 1.7770	31.3660
 1.7780	31.3430
 1.7790	31.3220
 1.7800	31.3000
 1.7810	31.2760
 1.7820	31.2590
 1.7830	31.2440
 1.7840	31.2300
 1.7850	31.2190
 1.7860	31.2090
 1.7870	31.1970
 1.7880	31.1910
 1.7890	31.1860
 1.7900	31.1820
 1.7910	31.1780
 1.7920	31.1730
 1.7930	31.1710
 1.7940	31.1700
 1.7950	31.1700
 1.7960	31.1710
 1.7970	31.1730
 1.7980	31.1750
 1.7990	31.1790
 1.8000	31.1850
 1.8010	31.1900
 1.8020	31.1970
 1.8030	31.2040
 1.8040	31.2120
 1.8050	31.2190
 1.8060	31.2250
 1.8070	31.2320
 1.8080	31.2360
 1.8090	31.2420
 1.8100	31.2490
 1.8110	31.2550
 1.8120	31.2610
 1.8130	31.2650
 1.8140	31.2690
 1.8150	31.2730
 1.8160	31.2750
 1.8170	31.2770
 1.8180	31.2780
 1.8190	31.2770
 1.8200	31.2770
 1.8210	31.2790
 1.8220	31.2770
 1.8230	31.2710
 1.8240	31.2660
 1.8250	31.2570
 1.8260	31.2500
 1.8270	31.2460
 1.8280	31.2360
 1.8290	31.2240
 1.8300	31.2080
 1.8310	31.0410
 1.8320	31.0180
 1.8330	30.9980
 1.8340	30.9700
 1.8350	30.9390
 1.8360	30.9090
 1.8370	30.8750
 1.8380	30.8340
 1.8390	30.7880
 1.8400	30.7360
 1.8410	30.6810
 1.8420	30.6200
 1.8430	30.5590
 1.8440	30.4890
 1.8450	30.4160
 1.8460	30.3360
 1.8470	30.2440
 1.8480	30.1470
 1.8490	30.0410
 1.8500	29.9260
 1.8510	29.8000
 1.8520	29.6690
 1.8530	29.5310
 1.8540	29.3830
 1.8550	29.2230
 1.8560	29.0500
 1.8570	28.8650
 1.8580	28.6630
 1.8590	28.4490
 1.8600	28.2230
 1.8610	27.9840
 1.8620	27.7270
 1.8630	27.4590
 1.8640	27.1740
 1.8650	26.8700
 1.8660	26.5490
 1.8670	26.2060
 1.8680	25.8450
 1.8690	25.4670
 1.8700	25.0700
 1.8710	24.6550
 1.8720	24.2300
 1.8730	23.7880
 1.8740	23.3310
 1.8750	22.8670
 1.8760	22.3840
 1.8770	21.8960
 1.8780	21.4100
 1.8790	20.9080
 1.8800	20.4100
 1.8810	19.9110
 1.8820	19.4110
 1.8830	18.9040
 1.8840	18.4030
 1.8850	17.9020
 1.8860	17.4060
 1.8870	16.9250
 1.8880	16.4540
 1.8890	15.9990
 1.8900	15.5600
 1.8910	15.1400
 1.8920	14.7320
 1.8930	14.3470
 1.8940	13.9840
 1.8950	13.6450
 1.8960	13.3310
 1.8970	13.0380
 1.8980	12.7650
 1.8990	12.5130
 1.9000	12.2800
 1.9010	12.0660
 1.9020	11.8680
 1.9030	11.6910
 1.9040	11.5300
 1.9050	11.3850
 1.9060	11.2560
 1.9070	11.1430
 1.9080	11.0410
 1.9090	10.9490
 1.9100	10.8660
 1.9110	10.7920
 1.9120	10.7270
 1.9130	10.6690
 1.9140	10.6180
 1.9150	10.5730
 1.9160	10.5360
 1.9170	10.5020
 1.9180	10.4680
 1.9190	10.4410
 1.9200	10.4160
 1.9210	10.3940
 1.9220	10.3760
 1.9230	10.3630
 1.9240	10.3520
 1.9250	10.3430
 1.9260	10.3350
 1.9270	10.3320
 1.9280	10.3290
 1.9290	10.3280
 1.9300	10.3300
 1.9310	10.3320
 1.9320	10.3380
 1.9330	10.3450
 1.9340	10.3520
 1.9350	10.3640
 1.9360	10.3780
 1.9370	10.3930
 1.9380	10.4110
 1.9390	10.4300
 1.9400	10.4500
 1.9410	10.4700
 1.9420	10.4930
 1.9430	10.5180
 1.9440	10.5420
 1.9450	10.5670
 1.9460	10.5930
 1.9470	10.6180
 1.9480	10.6460
 1.9490	10.6760
 1.9500	10.7080
 1.9510	10.7380
 1.9520	10.7710
 1.9530	10.8090
 1.9540	10.8460
 1.9550	10.8840
 1.9560	10.9270
 1.9570	10.9670
 1.9580	11.0070
 1.9590	11.0470
 1.9600	11.0860
 1.9610	11.1280
 1.9620	11.1730
 1.9630	11.2170
 1.9640	11.2660
 1.9650	11.3170
 1.9660	11.3620
 1.9670	11.4120
 1.9680	11.4620
 1.9690	11.5080
 1.9700	11.5590
 1.9710	11.6140
 1.9720	11.6670
 1.9730	11.7200
 1.9740	11.7750
 1.9750	11.8310
 1.9760	11.8880
 1.9770	11.9470
 1.9780	12.0070
 1.9790	12.0660
 1.9800	12.1230
 1.9810	12.1820
 1.9820	12.2400
 1.9830	12.3020
 1.9840	12.3690
 1.9850	12.4340
 1.9860	12.4990
 1.9870	12.5650
 1.9880	12.6320
 1.9890	12.7000
 1.9900	12.7680
 1.9910	12.8360
 1.9920	12.9040
 1.9930	12.9700
 1.9940	13.0380
 1.9950	13.1100
 1.9960	13.1800
 1.9970	13.2500
 1.9980	13.3210
 1.9990	13.3900
 2.0000	13.4590
 2.0010	13.5310
 2.0020	13.6030
 2.0030	13.6740
 2.0040	13.7460
 2.0050	13.8190
 2.0060	13.8920
 2.0070	13.9650
 2.0080	14.0410
 2.0090	14.1140
 2.0100	14.1830
 2.0110	14.2540
 2.0120	14.3260
 2.0130	14.3990
 2.0140	14.4720
 2.0150	14.5460
 2.0160	14.6160
 2.0170	14.6850
 2.0180	14.7560
 2.0190	14.8270
 2.0200	14.8980
 2.0210	14.9700
 2.0220	15.0410
 2.0230	15.1110
 2.0240	15.1810
 2.0250	15.2510
 2.0260	15.3200
 2.0270	15.3890
 2.0280	15.4540
 2.0290	15.5190
 2.0300	15.5870
 2.0310	15.6540
 2.0320	15.7240
 2.0330	15.7900
 2.0340	15.8530
 2.0350	15.9180
 2.0360	15.9820
 2.0370	16.0440
 2.0380	16.1070
 2.0390	16.1670
 2.0400	16.2230
 2.0410	16.2800
 2.0420	16.3360
 2.0430	16.3950
 2.0440	16.4530
 2.0450	16.5120
 2.0460	16.5700
 2.0470	16.6260
 2.0480	16.6830
 2.0490	16.7400
 2.0500	16.7980
 2.0510	16.8560
 2.0520	16.9140
 2.0530	16.9740
 2.0540	17.0330
 2.0550	17.0890
 2.0560	17.1450
 2.0570	17.2020
 2.0580	17.2600
 2.0590	17.3210
 2.0600	17.3850
 2.0610	17.4460
 2.0620	17.5080
 2.0630	17.5690
 2.0640	17.6300
 2.0650	17.6920
 2.0660	17.7550
 2.0670	17.8180
 2.0680	17.8820
 2.0690	17.9460
 2.0700	18.0100
 2.0710	18.0740
 2.0720	18.1390
 2.0730	18.2030
 2.0740	18.2650
 2.0750	18.3280
 2.0760	18.3880
 2.0770	18.4410
 2.0780	18.5010
 2.0790	18.5620
 2.0800	18.6220
 2.0810	18.6860
 2.0820	18.7470
 2.0830	18.8030
 2.0840	18.8600
 2.0850	18.9160
 2.0860	18.9730
 2.0870	19.0270
 2.0880	19.0850
 2.0890	19.1440
 2.0900	19.2050
 2.0910	19.2620
 2.0920	19.3200
 2.0930	19.3750
 2.0940	19.4240
 2.0950	19.4770
 2.0960	19.5310
 2.0970	19.5850
 2.0980	19.6400
 2.0990	19.6950
 2.1000	19.7500
 2.1010	19.8030
 2.1020	19.8530
 2.1030	19.9050
 2.1040	19.9580
 2.1050	20.0090
 2.1060	20.0610
 2.1070	20.1140
 2.1080	20.1650
 2.1090	20.2140
 2.1100	20.2650
 2.1110	20.3160
 2.1120	20.3660
 2.1130	20.4160
 2.1140	20.4650
 2.1150	20.5140
 2.1160	20.5600
 2.1170	20.6020
 2.1180	20.6450
 2.1190	20.6880
 2.1200	20.7310
 2.1210	20.7750
 2.1220	20.8210
 2.1230	20.8620
 2.1240	20.9000
 2.1250	20.9380
 2.1260	20.9740
 2.1270	21.0110
 2.1280	21.0500
 2.1290	21.0850
 2.1300	21.1210
 2.1310	21.1530
 2.1320	21.1770
 2.1330	21.2080
 2.1340	21.2420
 2.1350	21.2730
 2.1360	21.3080
 2.1370	21.3390
 2.1380	21.3650
 2.1390	21.3930
 2.1400	21.4190
 2.1410	21.4470
 2.1420	21.4720
 2.1430	21.4970
 2.1440	21.5200
 2.1450	21.5420
 2.1460	21.5640
 2.1470	21.5870
 2.1480	21.6080
 2.1490	21.6280
 2.1500	21.6500
 2.1510	21.6700
 2.1520	21.6910
 2.1530	21.7160
 2.1540	21.7370
 2.1550	21.7540
 2.1560	21.7740
 2.1570	21.7920
 2.1580	21.8110
 2.1590	21.8300
 2.1600	21.8500
 2.1610	21.8690
 2.1620	21.8910
 2.1630	21.9110
 2.1640	21.9330
 2.1650	21.9530
 2.1660	21.9720
 2.1670	21.9900
 2.1680	22.0070
 2.1690	22.0240
 2.1700	22.0390
 2.1710	22.0570
 2.1720	22.0750
 2.1730	22.0950
 2.1740	22.1210
 2.1750	22.1410
 2.1760	22.1580
 2.1770	22.1770
 2.1780	22.1960
 2.1790	22.2140
 2.1800	22.2360
 2.1810	22.2550
 2.1820	22.2680
 2.1830	22.2830
 2.1840	22.3030
 2.1850	22.3240
 2.1860	22.3450
 2.1870	22.3710
 2.1880	22.3910
 2.1890	22.4060
 2.1900	22.4250
 2.1910	22.4470
 2.1920	22.4650
 2.1930	22.4820
 2.1940	22.4980
 2.1950	22.5100
 2.1960	22.5260
 2.1970	22.5450
 2.1980	22.5640
 2.1990	22.5860
 2.2000	22.6030
 2.2010	22.6160
 2.2020	22.6310
 2.2030	22.6460
 2.2040	22.6600
 2.2050	22.6750
 2.2060	22.6890
 2.2070	22.7020
 2.2080	22.7110
 2.2090	22.7220
 2.2100	22.7340
 2.2110	22.7420
 2.2120	22.7460
 2.2130	22.7520
 2.2140	22.7540
 2.2150	22.7610
 2.2160	22.7720
 2.2170	22.7780
 2.2180	22.7870
 2.2190	22.7910
 2.2200	22.7910
 2.2210	22.7900
 2.2220	22.7840
 2.2230	22.7810
 2.2240	22.7790
 2.2250	22.7740
 2.2260	22.7680
 2.2270	22.7610
 2.2280	22.7500
 2.2290	22.7400
 2.2300	22.7350
 2.2310	22.7230
 2.2320	22.7050
 2.2330	22.6890
 2.2340	22.6670
 2.2350	22.6380
 2.2360	22.6110
 2.2370	22.5820
 2.2380	22.5510
 2.2390	22.5200
 2.2400	22.4850
 2.2410	22.4460
 2.2420	22.4080
 2.2430	22.3680
 2.2440	22.3270
 2.2450	22.2870
 2.2460	22.2440
 2.2470	22.2010
 2.2480	22.1550
 2.2490	22.1090
 2.2500	22.0630
 2.2510	22.0160
 2.2520	21.9690
 2.2530	21.9220
 2.2540	21.8730
 2.2550	21.8230
 2.2560	21.7710
 2.2570	21.7180
 2.2580	21.6620
 2.2590	21.6010
 2.2600	21.5430
 2.2610	21.4840
 2.2620	21.4250
 2.2630	21.3620
 2.2640	21.3010
 2.2650	21.2480
 2.2660	21.1930
 2.2670	21.1380
 2.2680	21.0900
 2.2690	21.0360
 2.2700	20.9760
 2.2710	20.9210
 2.2720	20.8690
 2.2730	20.8150
 2.2740	20.7580
 2.2750	20.7060
 2.2760	20.6560
 2.2770	20.6090
 2.2780	20.5670
 2.2790	20.5220
 2.2800	20.4780
 2.2810	20.4310
 2.2820	20.3770
 2.2830	20.3300
 2.2840	20.2860
 2.2850	20.2410
 2.2860	20.2000
 2.2870	20.1550
 2.2880	20.1030
 2.2890	20.0560
 2.2900	20.0090
 2.2910	19.9640
 2.2920	19.9270
 2.2930	19.8820
 2.2940	19.8320
 2.2950	19.7840
 2.2960	19.7320
 2.2970	19.6810
 2.2980	19.6320
 2.2990	19.5880
 2.3000	19.5420
 2.3010	19.4940
 2.3020	19.4460
 2.3030	19.3960
 2.3040	19.3470
 2.3050	19.3050
 2.3060	19.2730
 2.3070	19.2420
 2.3080	19.2050
 2.3090	19.1650
 2.3100	19.1230
 2.3110	19.0840
 2.3120	19.0510
 2.3130	19.0250
 2.3140	19.0000
 2.3150	18.9820
 2.3160	18.9580
 2.3170	18.9350
 2.3180	18.9080
 2.3190	18.8760
 2.3200	18.8460
 2.3210	18.8160
 2.3220	18.7840
 2.3230	18.7500
 2.3240	18.7180
 2.3250	18.6880
 2.3260	18.6500
 2.3270	18.6110
 2.3280	18.5700
 2.3290	18.5190
 2.3300	18.4760
 2.3310	18.4400
 2.3320	18.3980
 2.3330	18.3550
 2.3340	18.3130
 2.3350	18.2700
 2.3360	18.2250
 2.3370	18.1810
 2.3380	18.1330
 2.3390	18.0790
 2.3400	18.0310
 2.3410	17.9830
 2.3420	17.9380
 2.3430	17.8980
 2.3440	17.8520
 2.3450	17.8070
 2.3460	17.7590
 2.3470	17.7060
 2.3480	17.6550
 2.3490	17.6000
 2.3500	17.5530
 2.3510	17.5120
 2.3520	17.4680
 2.3530	17.4300
 2.3540	17.3890
 2.3550	17.3450
 2.3560	17.3070
 2.3570	17.2750
 2.3580	17.2450
 2.3590	17.2120
 2.3600	17.1760
 2.3610	17.1350
 2.3620	17.0890
 2.3630	17.0360
 2.3640	16.9880
 2.3650	16.9400
 2.3660	16.8980
 2.3670	16.8610
 2.3680	16.8200
 2.3690	16.7840
 2.3700	16.7450
 2.3710	16.7050
 2.3720	16.6650
 2.3730	16.6210
 2.3740	16.5750
 2.3750	16.5300
 2.3760	16.4820
 2.3770	16.4220
 2.3780	16.3650
 2.3790	16.3150
 2.3800	16.2580
 2.3810	16.2110
 2.3820	16.1670
 2.3830	16.1170
 2.3840	16.0750
 2.3850	16.0300
 2.3860	15.9810
 2.3870	15.9270
 2.3880	15.8780
 2.3890	15.8250
 2.3900	15.7710
 2.3910	15.7400
 2.3920	15.6920
 2.3930	15.6380
 2.3940	15.5940
 2.3950	15.5340
 2.3960	15.4740
 2.3970	15.4250
 2.3980	15.3740
 2.3990	15.3260
 2.4000	15.2910
 2.4010	15.2460
 2.4020	15.2000
 2.4030	15.1620
 2.4040	15.1150
 2.4050	15.0650
 2.4060	15.0140
 2.4070	14.9600
 2.4080	14.8990
 2.4090	14.8610
 2.4100	14.8370
 2.4110	14.7880
 2.4120	14.7390
 2.4130	14.6920
 2.4140	14.6350
 2.4150	14.5960
 2.4160	14.5590
 2.4170	14.5060
 2.4180	14.4600
 2.4190	14.4070
 2.4200	14.3530
 2.4210	14.3030
 2.4220	14.2480
 2.4230	14.2070
 2.4240	14.1770
 2.4250	14.1480
 2.4260	14.1080
 2.4270	14.0520
 2.4280	13.9920
 2.4290	13.9280
 2.4300	13.8720
 2.4310	13.8340
 2.4320	13.7890
 2.4330	13.7300
 2.4340	13.6760
 2.4350	13.6170
 2.4360	13.5620
 2.4370	13.5190
 2.4380	13.4820
 2.4390	13.4370
 2.4400	13.3830
 2.4410	13.3350
 2.4420	13.2780
 2.4430	13.2380
 2.4440	13.2100
 2.4450	13.1630
 2.4460	13.1260
 2.4470	13.0800
 2.4480	13.0340
 2.4490	13.0160
 2.4500	12.9900
 2.4510	12.9600
 2.4520	12.9250
 2.4530	12.8700
 2.4540	12.8240
 2.4550	12.7950
 2.4560	12.7490
 2.4570	12.6890
 2.4580	12.6350
 2.4590	12.5780
 2.4600	12.5130
 2.4610	12.4820
 2.4620	12.4810
 2.4630	12.4520
 2.4640	12.4380
 2.4650	12.4220
 2.4660	12.3740
 2.4670	12.3490
 2.4680	12.3290
 2.4690	12.3050
 2.4700	12.2650
 2.4710	12.2010
 2.4720	12.1550
 2.4730	12.1140
 2.4740	12.0890
 2.4750	12.0720
 2.4760	12.0610
 2.4770	12.0590
 2.4780	12.0330
 2.4790	12.0230
 2.4800	11.9950
 2.4810	11.9430
 2.4820	11.9360
 2.4830	11.8730
 2.4840	11.8390
 2.4850	11.8160
 2.4860	11.7670
 2.4870	11.7510
 2.4880	11.7620
 2.4890	11.7660
 2.4900	11.7460
 2.4910	11.7290
 2.4920	11.7230
 2.4930	11.7290
 2.4940	11.7380
 2.4950	11.7020
 2.4960	11.6940
 2.4970	11.6770
 2.4980	11.6640
 2.4990	11.7440
 2.5000	11.7360
