Name: Quercus agrifolia 3
Type: vegetation
Class: Tree
Genus: Quercus
Species: agrifolia
Sample No.: VH083
Owner: UCSB
Wavelength Range: VSWIR
Origin: 34.7165; -120.0603; WGS84
Collection Date: 4/21/2013
Description: Samples were collected as part of the HyspIRI Airborne Campaign. 48 individual plants were sampled in three times in 2013 - spring  summer  and fall. The name of the sample includes a 1  2  or 3 which references a different individual of the species. Samples were taken to JPL and processed within 48 hours of collection. The same leaves were processed in the Nicolet and then measured using the ASD.
Measurement: Bidirectional reflectance
First Column: X
Second Column: Y
X Units: Wavelength (micrometers)
Y Units: Reflectance (percentage)
First X Value: 0.35
Last X Value: 2.5
Number of X Values: 2151
Additional Information: vegetation.tree.quercus.agrifolia.vswir.vh083.ucsb.asd.ancillary.txt

 0.3500	 3.8700
 0.3510	 3.7710
 0.3520	 3.7610
 0.3530	 3.8040
 0.3540	 3.8340
 0.3550	 3.7310
 0.3560	 3.6950
 0.3570	 3.7420
 0.3580	 3.7840
 0.3590	 3.7880
 0.3600	 3.7690
 0.3610	 3.7130
 0.3620	 3.5490
 0.3630	 3.5440
 0.3640	 3.5980
 0.3650	 3.5810
 0.3660	 3.6150
 0.3670	 3.6610
 0.3680	 3.6420
 0.3690	 3.4950
 0.3700	 3.5610
 0.3710	 3.6250
 0.3720	 3.5790
 0.3730	 3.6520
 0.3740	 3.6610
 0.3750	 3.6200
 0.3760	 3.5970
 0.3770	 3.5920
 0.3780	 3.5950
 0.3790	 3.5960
 0.3800	 3.5860
 0.3810	 3.5940
 0.3820	 3.5730
 0.3830	 3.5230
 0.3840	 3.5880
 0.3850	 3.5760
 0.3860	 3.5400
 0.3870	 3.5820
 0.3880	 3.5330
 0.3890	 3.4880
 0.3900	 3.5070
 0.3910	 3.5930
 0.3920	 3.4990
 0.3930	 3.3940
 0.3940	 3.4420
 0.3950	 3.5840
 0.3960	 3.6210
 0.3970	 3.5500
 0.3980	 3.4750
 0.3990	 3.4910
 0.4000	 3.5210
 0.4010	 3.5260
 0.4020	 3.5380
 0.4030	 3.5180
 0.4040	 3.5170
 0.4050	 3.5680
 0.4060	 3.5800
 0.4070	 3.5880
 0.4080	 3.6000
 0.4090	 3.6060
 0.4100	 3.6040
 0.4110	 3.6110
 0.4120	 3.6290
 0.4130	 3.6350
 0.4140	 3.6380
 0.4150	 3.6580
 0.4160	 3.7030
 0.4170	 3.6990
 0.4180	 3.6890
 0.4190	 3.6970
 0.4200	 3.7130
 0.4210	 3.7250
 0.4220	 3.7430
 0.4230	 3.7700
 0.4240	 3.7680
 0.4250	 3.7890
 0.4260	 3.8210
 0.4270	 3.8240
 0.4280	 3.8240
 0.4290	 3.8360
 0.4300	 3.8600
 0.4310	 3.8730
 0.4320	 3.8810
 0.4330	 3.8910
 0.4340	 3.9100
 0.4350	 3.9250
 0.4360	 3.9360
 0.4370	 3.9440
 0.4380	 3.9500
 0.4390	 3.9380
 0.4400	 3.9330
 0.4410	 3.9440
 0.4420	 3.9300
 0.4430	 3.9320
 0.4440	 3.9510
 0.4450	 3.9730
 0.4460	 3.9670
 0.4470	 3.9750
 0.4480	 4.0020
 0.4490	 4.0040
 0.4500	 3.9970
 0.4510	 4.0010
 0.4520	 4.0220
 0.4530	 4.0320
 0.4540	 4.0360
 0.4550	 4.0390
 0.4560	 4.0440
 0.4570	 4.0460
 0.4580	 4.0490
 0.4590	 4.0570
 0.4600	 4.0670
 0.4610	 4.0610
 0.4620	 4.0520
 0.4630	 4.0600
 0.4640	 4.0840
 0.4650	 4.0910
 0.4660	 4.0780
 0.4670	 4.0820
 0.4680	 4.0800
 0.4690	 4.0750
 0.4700	 4.0780
 0.4710	 4.0950
 0.4720	 4.0940
 0.4730	 4.0860
 0.4740	 4.0980
 0.4750	 4.0940
 0.4760	 4.0950
 0.4770	 4.1030
 0.4780	 4.0950
 0.4790	 4.0900
 0.4800	 4.0930
 0.4810	 4.1010
 0.4820	 4.0970
 0.4830	 4.0960
 0.4840	 4.1040
 0.4850	 4.1140
 0.4860	 4.1160
 0.4870	 4.1210
 0.4880	 4.1370
 0.4890	 4.1390
 0.4900	 4.1510
 0.4910	 4.1700
 0.4920	 4.1850
 0.4930	 4.2080
 0.4940	 4.2280
 0.4950	 4.2420
 0.4960	 4.2600
 0.4970	 4.2850
 0.4980	 4.3070
 0.4990	 4.3190
 0.5000	 4.3510
 0.5010	 4.3860
 0.5020	 4.4200
 0.5030	 4.4620
 0.5040	 4.5130
 0.5050	 4.5610
 0.5060	 4.6050
 0.5070	 4.6700
 0.5080	 4.7380
 0.5090	 4.8070
 0.5100	 4.8870
 0.5110	 4.9790
 0.5120	 5.0840
 0.5130	 5.1950
 0.5140	 5.2960
 0.5150	 5.4160
 0.5160	 5.5570
 0.5170	 5.7100
 0.5180	 5.8620
 0.5190	 6.0300
 0.5200	 6.2120
 0.5210	 6.3920
 0.5220	 6.5750
 0.5230	 6.7600
 0.5240	 6.9460
 0.5250	 7.1340
 0.5260	 7.3160
 0.5270	 7.4920
 0.5280	 7.6590
 0.5290	 7.8230
 0.5300	 7.9750
 0.5310	 8.1130
 0.5320	 8.2420
 0.5330	 8.3710
 0.5340	 8.4880
 0.5350	 8.5840
 0.5360	 8.6770
 0.5370	 8.7630
 0.5380	 8.8420
 0.5390	 8.9160
 0.5400	 8.9870
 0.5410	 9.0580
 0.5420	 9.1270
 0.5430	 9.1940
 0.5440	 9.2520
 0.5450	 9.3020
 0.5460	 9.3490
 0.5470	 9.3790
 0.5480	 9.4050
 0.5490	 9.4360
 0.5500	 9.4710
 0.5510	 9.4920
 0.5520	 9.5010
 0.5530	 9.5010
 0.5540	 9.4900
 0.5550	 9.4710
 0.5560	 9.4400
 0.5570	 9.3940
 0.5580	 9.3400
 0.5590	 9.2760
 0.5600	 9.2030
 0.5610	 9.1260
 0.5620	 9.0450
 0.5630	 8.9590
 0.5640	 8.8640
 0.5650	 8.7580
 0.5660	 8.6460
 0.5670	 8.5300
 0.5680	 8.4110
 0.5690	 8.2910
 0.5700	 8.1680
 0.5710	 8.0410
 0.5720	 7.9140
 0.5730	 7.7940
 0.5740	 7.6840
 0.5750	 7.5890
 0.5760	 7.5020
 0.5770	 7.4250
 0.5780	 7.3550
 0.5790	 7.2770
 0.5800	 7.2000
 0.5810	 7.1300
 0.5820	 7.0660
 0.5830	 7.0050
 0.5840	 6.9420
 0.5850	 6.8790
 0.5860	 6.8210
 0.5870	 6.7700
 0.5880	 6.7250
 0.5890	 6.6870
 0.5900	 6.6630
 0.5910	 6.6390
 0.5920	 6.6140
 0.5930	 6.5940
 0.5940	 6.5670
 0.5950	 6.5400
 0.5960	 6.5190
 0.5970	 6.4970
 0.5980	 6.4780
 0.5990	 6.4560
 0.6000	 6.4280
 0.6010	 6.4020
 0.6020	 6.3740
 0.6030	 6.3440
 0.6040	 6.3090
 0.6050	 6.2670
 0.6060	 6.2210
 0.6070	 6.1750
 0.6080	 6.1240
 0.6090	 6.0730
 0.6100	 6.0270
 0.6110	 5.9870
 0.6120	 5.9280
 0.6130	 5.8630
 0.6140	 5.8050
 0.6150	 5.7470
 0.6160	 5.6940
 0.6170	 5.6460
 0.6180	 5.6030
 0.6190	 5.5680
 0.6200	 5.5360
 0.6210	 5.5060
 0.6220	 5.4800
 0.6230	 5.4580
 0.6240	 5.4380
 0.6250	 5.4200
 0.6260	 5.4080
 0.6270	 5.4020
 0.6280	 5.3960
 0.6290	 5.3870
 0.6300	 5.3860
 0.6310	 5.3840
 0.6320	 5.3760
 0.6330	 5.3670
 0.6340	 5.3560
 0.6350	 5.3410
 0.6360	 5.3200
 0.6370	 5.2930
 0.6380	 5.2600
 0.6390	 5.2250
 0.6400	 5.1870
 0.6410	 5.1470
 0.6420	 5.1020
 0.6430	 5.0530
 0.6440	 5.0040
 0.6450	 4.9540
 0.6460	 4.9060
 0.6470	 4.8640
 0.6480	 4.8260
 0.6490	 4.7900
 0.6500	 4.7570
 0.6510	 4.7280
 0.6520	 4.6970
 0.6530	 4.6700
 0.6540	 4.6470
 0.6550	 4.6140
 0.6560	 4.5830
 0.6570	 4.5530
 0.6580	 4.5180
 0.6590	 4.4820
 0.6600	 4.4450
 0.6610	 4.4070
 0.6620	 4.3740
 0.6630	 4.3420
 0.6640	 4.3100
 0.6650	 4.2800
 0.6660	 4.2580
 0.6670	 4.2410
 0.6680	 4.2270
 0.6690	 4.2140
 0.6700	 4.2130
 0.6710	 4.2150
 0.6720	 4.2170
 0.6730	 4.2160
 0.6740	 4.2220
 0.6750	 4.2320
 0.6760	 4.2460
 0.6770	 4.2650
 0.6780	 4.2830
 0.6790	 4.3030
 0.6800	 4.3310
 0.6810	 4.3630
 0.6820	 4.3990
 0.6830	 4.4400
 0.6840	 4.4880
 0.6850	 4.5480
 0.6860	 4.6170
 0.6870	 4.6970
 0.6880	 4.7940
 0.6890	 4.9160
 0.6900	 5.0680
 0.6910	 5.2530
 0.6920	 5.4820
 0.6930	 5.7620
 0.6940	 6.0970
 0.6950	 6.4880
 0.6960	 6.9460
 0.6970	 7.4700
 0.6980	 8.0580
 0.6990	 8.7050
 0.7000	 9.4050
 0.7010	10.1540
 0.7020	10.9470
 0.7030	11.7730
 0.7040	12.6230
 0.7050	13.4870
 0.7060	14.3570
 0.7070	15.2320
 0.7080	16.1090
 0.7090	16.9820
 0.7100	17.8500
 0.7110	18.7110
 0.7120	19.5650
 0.7130	20.4100
 0.7140	21.2380
 0.7150	22.0530
 0.7160	22.8590
 0.7170	23.6470
 0.7180	24.4150
 0.7190	25.1650
 0.7200	25.9000
 0.7210	26.6150
 0.7220	27.3070
 0.7230	27.9760
 0.7240	28.6200
 0.7250	29.2390
 0.7260	29.8330
 0.7270	30.3990
 0.7280	30.9400
 0.7290	31.4580
 0.7300	31.9500
 0.7310	32.4160
 0.7320	32.8600
 0.7330	33.2790
 0.7340	33.6720
 0.7350	34.0390
 0.7360	34.3920
 0.7370	34.7240
 0.7380	35.0310
 0.7390	35.3260
 0.7400	35.5990
 0.7410	35.8510
 0.7420	36.0890
 0.7430	36.3120
 0.7440	36.5180
 0.7450	36.7060
 0.7460	36.8770
 0.7470	37.0380
 0.7480	37.1860
 0.7490	37.3200
 0.7500	37.4460
 0.7510	37.5570
 0.7520	37.6560
 0.7530	37.7480
 0.7540	37.8350
 0.7550	37.9150
 0.7560	37.9880
 0.7570	38.0570
 0.7580	38.1130
 0.7590	38.1640
 0.7600	38.2150
 0.7610	38.2610
 0.7620	38.3010
 0.7630	38.3370
 0.7640	38.3690
 0.7650	38.4000
 0.7660	38.4270
 0.7670	38.4500
 0.7680	38.4720
 0.7690	38.4900
 0.7700	38.5060
 0.7710	38.5230
 0.7720	38.5390
 0.7730	38.5550
 0.7740	38.5680
 0.7750	38.5800
 0.7760	38.5990
 0.7770	38.6120
 0.7780	38.6210
 0.7790	38.6340
 0.7800	38.6460
 0.7810	38.6580
 0.7820	38.6690
 0.7830	38.6760
 0.7840	38.6870
 0.7850	38.6960
 0.7860	38.7010
 0.7870	38.7170
 0.7880	38.7240
 0.7890	38.7290
 0.7900	38.7420
 0.7910	38.7540
 0.7920	38.7620
 0.7930	38.7690
 0.7940	38.7810
 0.7950	38.7920
 0.7960	38.7990
 0.7970	38.8040
 0.7980	38.8120
 0.7990	38.8220
 0.8000	38.8310
 0.8010	38.8380
 0.8020	38.8470
 0.8030	38.8530
 0.8040	38.8560
 0.8050	38.8600
 0.8060	38.8690
 0.8070	38.8760
 0.8080	38.8790
 0.8090	38.8820
 0.8100	38.8910
 0.8110	38.9000
 0.8120	38.9030
 0.8130	38.9060
 0.8140	38.9110
 0.8150	38.9180
 0.8160	38.9240
 0.8170	38.9310
 0.8180	38.9360
 0.8190	38.9390
 0.8200	38.9440
 0.8210	38.9560
 0.8220	38.9700
 0.8230	38.9800
 0.8240	38.9840
 0.8250	38.9840
 0.8260	38.9910
 0.8270	39.0040
 0.8280	39.0040
 0.8290	39.0130
 0.8300	39.0200
 0.8310	39.0160
 0.8320	39.0200
 0.8330	39.0250
 0.8340	39.0330
 0.8350	39.0430
 0.8360	39.0500
 0.8370	39.0570
 0.8380	39.0650
 0.8390	39.0710
 0.8400	39.0850
 0.8410	39.0960
 0.8420	39.1030
 0.8430	39.1120
 0.8440	39.1180
 0.8450	39.1260
 0.8460	39.1380
 0.8470	39.1470
 0.8480	39.1620
 0.8490	39.1780
 0.8500	39.1890
 0.8510	39.1890
 0.8520	39.1930
 0.8530	39.2020
 0.8540	39.2090
 0.8550	39.2220
 0.8560	39.2330
 0.8570	39.2400
 0.8580	39.2410
 0.8590	39.2520
 0.8600	39.2630
 0.8610	39.2680
 0.8620	39.2760
 0.8630	39.2860
 0.8640	39.2950
 0.8650	39.3020
 0.8660	39.3120
 0.8670	39.3220
 0.8680	39.3280
 0.8690	39.3260
 0.8700	39.3390
 0.8710	39.3530
 0.8720	39.3630
 0.8730	39.3690
 0.8740	39.3770
 0.8750	39.3810
 0.8760	39.3810
 0.8770	39.3890
 0.8780	39.4000
 0.8790	39.4080
 0.8800	39.4130
 0.8810	39.4160
 0.8820	39.4240
 0.8830	39.4310
 0.8840	39.4350
 0.8850	39.4420
 0.8860	39.4420
 0.8870	39.4400
 0.8880	39.4400
 0.8890	39.4510
 0.8900	39.4600
 0.8910	39.4620
 0.8920	39.4570
 0.8930	39.4610
 0.8940	39.4660
 0.8950	39.4710
 0.8960	39.4740
 0.8970	39.4720
 0.8980	39.4740
 0.8990	39.4800
 0.9000	39.4760
 0.9010	39.4830
 0.9020	39.4920
 0.9030	39.4990
 0.9040	39.5030
 0.9050	39.5040
 0.9060	39.4970
 0.9070	39.4900
 0.9080	39.5060
 0.9090	39.5130
 0.9100	39.5140
 0.9110	39.5150
 0.9120	39.5140
 0.9130	39.5110
 0.9140	39.5090
 0.9150	39.5090
 0.9160	39.5120
 0.9170	39.5130
 0.9180	39.5140
 0.9190	39.5200
 0.9200	39.5170
 0.9210	39.5160
 0.9220	39.5140
 0.9230	39.5040
 0.9240	39.5030
 0.9250	39.4970
 0.9260	39.4880
 0.9270	39.4900
 0.9280	39.4840
 0.9290	39.4720
 0.9300	39.4610
 0.9310	39.4590
 0.9320	39.4470
 0.9330	39.4380
 0.9340	39.4330
 0.9350	39.4140
 0.9360	39.3990
 0.9370	39.3870
 0.9380	39.3770
 0.9390	39.3760
 0.9400	39.3740
 0.9410	39.3650
 0.9420	39.3460
 0.9430	39.3250
 0.9440	39.3120
 0.9450	39.2950
 0.9460	39.2660
 0.9470	39.2400
 0.9480	39.2030
 0.9490	39.1760
 0.9500	39.1660
 0.9510	39.1290
 0.9520	39.0960
 0.9530	39.0670
 0.9540	39.0330
 0.9550	38.9820
 0.9560	38.9390
 0.9570	38.9030
 0.9580	38.8670
 0.9590	38.8370
 0.9600	38.8090
 0.9610	38.7830
 0.9620	38.7570
 0.9630	38.7300
 0.9640	38.7080
 0.9650	38.6940
 0.9660	38.6860
 0.9670	38.6670
 0.9680	38.6620
 0.9690	38.6610
 0.9700	38.6420
 0.9710	38.6260
 0.9720	38.6340
 0.9730	38.6470
 0.9740	38.6330
 0.9750	38.6160
 0.9760	38.6280
 0.9770	38.6410
 0.9780	38.6170
 0.9790	38.6320
 0.9800	38.6550
 0.9810	38.6610
 0.9820	38.6490
 0.9830	38.6600
 0.9840	38.6720
 0.9850	38.6880
 0.9860	38.7150
 0.9870	38.7210
 0.9880	38.7190
 0.9890	38.7250
 0.9900	38.7420
 0.9910	38.7430
 0.9920	38.7500
 0.9930	38.7570
 0.9940	38.7650
 0.9950	38.7720
 0.9960	38.7790
 0.9970	38.7860
 0.9980	38.7930
 0.9990	38.8000
 1.0000	38.8080
 1.0010	38.8150
 1.0020	38.8220
 1.0030	38.8290
 1.0040	38.8360
 1.0050	38.8440
 1.0060	38.8510
 1.0070	38.8580
 1.0080	38.8650
 1.0090	38.8720
 1.0100	38.8720
 1.0110	38.8880
 1.0120	38.9080
 1.0130	38.9270
 1.0140	38.9460
 1.0150	38.9670
 1.0160	38.9900
 1.0170	39.0060
 1.0180	39.0250
 1.0190	39.0460
 1.0200	39.0620
 1.0210	39.0790
 1.0220	39.0990
 1.0230	39.1180
 1.0240	39.1360
 1.0250	39.1530
 1.0260	39.1720
 1.0270	39.1880
 1.0280	39.2020
 1.0290	39.2160
 1.0300	39.2290
 1.0310	39.2420
 1.0320	39.2520
 1.0330	39.2650
 1.0340	39.2850
 1.0350	39.2980
 1.0360	39.3120
 1.0370	39.3270
 1.0380	39.3380
 1.0390	39.3450
 1.0400	39.3550
 1.0410	39.3670
 1.0420	39.3790
 1.0430	39.3910
 1.0440	39.4020
 1.0450	39.4100
 1.0460	39.4200
 1.0470	39.4270
 1.0480	39.4360
 1.0490	39.4480
 1.0500	39.4580
 1.0510	39.4690
 1.0520	39.4750
 1.0530	39.4830
 1.0540	39.4870
 1.0550	39.4960
 1.0560	39.5060
 1.0570	39.5160
 1.0580	39.5270
 1.0590	39.5370
 1.0600	39.5470
 1.0610	39.5570
 1.0620	39.5680
 1.0630	39.5770
 1.0640	39.5850
 1.0650	39.5950
 1.0660	39.6050
 1.0670	39.6140
 1.0680	39.6230
 1.0690	39.6330
 1.0700	39.6410
 1.0710	39.6480
 1.0720	39.6560
 1.0730	39.6650
 1.0740	39.6740
 1.0750	39.6860
 1.0760	39.6950
 1.0770	39.7040
 1.0780	39.7100
 1.0790	39.7130
 1.0800	39.7180
 1.0810	39.7230
 1.0820	39.7280
 1.0830	39.7330
 1.0840	39.7380
 1.0850	39.7430
 1.0860	39.7490
 1.0870	39.7530
 1.0880	39.7570
 1.0890	39.7590
 1.0900	39.7610
 1.0910	39.7610
 1.0920	39.7610
 1.0930	39.7610
 1.0940	39.7610
 1.0950	39.7600
 1.0960	39.7610
 1.0970	39.7590
 1.0980	39.7550
 1.0990	39.7500
 1.1000	39.7430
 1.1010	39.7360
 1.1020	39.7290
 1.1030	39.7230
 1.1040	39.7190
 1.1050	39.7160
 1.1060	39.7120
 1.1070	39.7090
 1.1080	39.7020
 1.1090	39.6940
 1.1100	39.6840
 1.1110	39.6710
 1.1120	39.6590
 1.1130	39.6440
 1.1140	39.6300
 1.1150	39.6160
 1.1160	39.6000
 1.1170	39.5870
 1.1180	39.5690
 1.1190	39.5500
 1.1200	39.5270
 1.1210	39.5010
 1.1220	39.4720
 1.1230	39.4420
 1.1240	39.4120
 1.1250	39.3790
 1.1260	39.3440
 1.1270	39.3040
 1.1280	39.2610
 1.1290	39.2130
 1.1300	39.1610
 1.1310	39.1050
 1.1320	39.0480
 1.1330	38.9830
 1.1340	38.9150
 1.1350	38.8420
 1.1360	38.7620
 1.1370	38.6780
 1.1380	38.5910
 1.1390	38.5000
 1.1400	38.4030
 1.1410	38.3040
 1.1420	38.2000
 1.1430	38.0950
 1.1440	37.9910
 1.1450	37.8850
 1.1460	37.7820
 1.1470	37.6770
 1.1480	37.5770
 1.1490	37.4790
 1.1500	37.3860
 1.1510	37.2940
 1.1520	37.2100
 1.1530	37.1290
 1.1540	37.0550
 1.1550	36.9870
 1.1560	36.9250
 1.1570	36.8700
 1.1580	36.8220
 1.1590	36.7760
 1.1600	36.7350
 1.1610	36.6970
 1.1620	36.6650
 1.1630	36.6370
 1.1640	36.6140
 1.1650	36.5940
 1.1660	36.5770
 1.1670	36.5620
 1.1680	36.5510
 1.1690	36.5390
 1.1700	36.5300
 1.1710	36.5210
 1.1720	36.5140
 1.1730	36.5060
 1.1740	36.4980
 1.1750	36.4890
 1.1760	36.4780
 1.1770	36.4670
 1.1780	36.4580
 1.1790	36.4470
 1.1800	36.4350
 1.1810	36.4230
 1.1820	36.4090
 1.1830	36.3970
 1.1840	36.3850
 1.1850	36.3740
 1.1860	36.3620
 1.1870	36.3510
 1.1880	36.3410
 1.1890	36.3300
 1.1900	36.3210
 1.1910	36.3150
 1.1920	36.3080
 1.1930	36.3000
 1.1940	36.2940
 1.1950	36.2890
 1.1960	36.2850
 1.1970	36.2830
 1.1980	36.2820
 1.1990	36.2820
 1.2000	36.2820
 1.2010	36.2800
 1.2020	36.2810
 1.2030	36.2830
 1.2040	36.2860
 1.2050	36.2930
 1.2060	36.3030
 1.2070	36.3120
 1.2080	36.3250
 1.2090	36.3400
 1.2100	36.3550
 1.2110	36.3710
 1.2120	36.3880
 1.2130	36.4080
 1.2140	36.4300
 1.2150	36.4560
 1.2160	36.4870
 1.2170	36.5190
 1.2180	36.5510
 1.2190	36.5850
 1.2200	36.6200
 1.2210	36.6560
 1.2220	36.6930
 1.2230	36.7310
 1.2240	36.7700
 1.2250	36.8080
 1.2260	36.8440
 1.2270	36.8810
 1.2280	36.9150
 1.2290	36.9490
 1.2300	36.9820
 1.2310	37.0140
 1.2320	37.0460
 1.2330	37.0770
 1.2340	37.1060
 1.2350	37.1350
 1.2360	37.1630
 1.2370	37.1890
 1.2380	37.2150
 1.2390	37.2390
 1.2400	37.2610
 1.2410	37.2850
 1.2420	37.3070
 1.2430	37.3270
 1.2440	37.3490
 1.2450	37.3700
 1.2460	37.3900
 1.2470	37.4100
 1.2480	37.4290
 1.2490	37.4470
 1.2500	37.4620
 1.2510	37.4790
 1.2520	37.4960
 1.2530	37.5110
 1.2540	37.5260
 1.2550	37.5400
 1.2560	37.5520
 1.2570	37.5630
 1.2580	37.5730
 1.2590	37.5840
 1.2600	37.5950
 1.2610	37.6040
 1.2620	37.6130
 1.2630	37.6190
 1.2640	37.6230
 1.2650	37.6270
 1.2660	37.6290
 1.2670	37.6320
 1.2680	37.6360
 1.2690	37.6350
 1.2700	37.6330
 1.2710	37.6320
 1.2720	37.6280
 1.2730	37.6230
 1.2740	37.6180
 1.2750	37.6120
 1.2760	37.6060
 1.2770	37.6010
 1.2780	37.5960
 1.2790	37.5890
 1.2800	37.5810
 1.2810	37.5720
 1.2820	37.5600
 1.2830	37.5480
 1.2840	37.5350
 1.2850	37.5230
 1.2860	37.5120
 1.2870	37.4980
 1.2880	37.4820
 1.2890	37.4680
 1.2900	37.4500
 1.2910	37.4290
 1.2920	37.4120
 1.2930	37.3930
 1.2940	37.3740
 1.2950	37.3550
 1.2960	37.3340
 1.2970	37.3130
 1.2980	37.2910
 1.2990	37.2660
 1.3000	37.2400
 1.3010	37.2100
 1.3020	37.1760
 1.3030	37.1430
 1.3040	37.1090
 1.3050	37.0730
 1.3060	37.0350
 1.3070	36.9940
 1.3080	36.9500
 1.3090	36.9030
 1.3100	36.8540
 1.3110	36.8000
 1.3120	36.7410
 1.3130	36.6820
 1.3140	36.6190
 1.3150	36.5520
 1.3160	36.4830
 1.3170	36.4140
 1.3180	36.3400
 1.3190	36.2590
 1.3200	36.1780
 1.3210	36.0910
 1.3220	36.0030
 1.3230	35.9130
 1.3240	35.8180
 1.3250	35.7210
 1.3260	35.6200
 1.3270	35.5160
 1.3280	35.4100
 1.3290	35.3010
 1.3300	35.1880
 1.3310	35.0730
 1.3320	34.9560
 1.3330	34.8380
 1.3340	34.7190
 1.3350	34.5970
 1.3360	34.4740
 1.3370	34.3480
 1.3380	34.2210
 1.3390	34.0960
 1.3400	33.9710
 1.3410	33.8470
 1.3420	33.7230
 1.3430	33.5990
 1.3440	33.4750
 1.3450	33.3530
 1.3460	33.2310
 1.3470	33.1120
 1.3480	32.9930
 1.3490	32.8760
 1.3500	32.7620
 1.3510	32.6480
 1.3520	32.5330
 1.3530	32.4200
 1.3540	32.3050
 1.3550	32.1910
 1.3560	32.0780
 1.3570	31.9620
 1.3580	31.8470
 1.3590	31.7290
 1.3600	31.6080
 1.3610	31.4850
 1.3620	31.3590
 1.3630	31.2300
 1.3640	31.0960
 1.3650	30.9540
 1.3660	30.8090
 1.3670	30.6560
 1.3680	30.4950
 1.3690	30.3270
 1.3700	30.1470
 1.3710	29.9570
 1.3720	29.7550
 1.3730	29.5400
 1.3740	29.3130
 1.3750	29.0700
 1.3760	28.8100
 1.3770	28.5320
 1.3780	28.2330
 1.3790	27.9150
 1.3800	27.5770
 1.3810	27.2160
 1.3820	26.8400
 1.3830	26.4460
 1.3840	26.0340
 1.3850	25.6030
 1.3860	25.1600
 1.3870	24.6960
 1.3880	24.2270
 1.3890	23.7460
 1.3900	23.2550
 1.3910	22.7620
 1.3920	22.2640
 1.3930	21.7640
 1.3940	21.2670
 1.3950	20.7650
 1.3960	20.2710
 1.3970	19.7820
 1.3980	19.3020
 1.3990	18.8400
 1.4000	18.3880
 1.4010	17.9490
 1.4020	17.5270
 1.4030	17.1170
 1.4040	16.7260
 1.4050	16.3540
 1.4060	15.9980
 1.4070	15.6640
 1.4080	15.3490
 1.4090	15.0500
 1.4100	14.7740
 1.4110	14.5130
 1.4120	14.2700
 1.4130	14.0450
 1.4140	13.8360
 1.4150	13.6440
 1.4160	13.4680
 1.4170	13.3050
 1.4180	13.1570
 1.4190	13.0200
 1.4200	12.8940
 1.4210	12.7790
 1.4220	12.6750
 1.4230	12.5810
 1.4240	12.4960
 1.4250	12.4170
 1.4260	12.3480
 1.4270	12.2840
 1.4280	12.2270
 1.4290	12.1760
 1.4300	12.1320
 1.4310	12.0930
 1.4320	12.0610
 1.4330	12.0330
 1.4340	12.0100
 1.4350	11.9890
 1.4360	11.9730
 1.4370	11.9600
 1.4380	11.9520
 1.4390	11.9470
 1.4400	11.9450
 1.4410	11.9460
 1.4420	11.9480
 1.4430	11.9520
 1.4440	11.9590
 1.4450	11.9670
 1.4460	11.9760
 1.4470	11.9870
 1.4480	11.9980
 1.4490	12.0110
 1.4500	12.0270
 1.4510	12.0440
 1.4520	12.0610
 1.4530	12.0790
 1.4540	12.0980
 1.4550	12.1180
 1.4560	12.1410
 1.4570	12.1650
 1.4580	12.1920
 1.4590	12.2210
 1.4600	12.2540
 1.4610	12.2900
 1.4620	12.3280
 1.4630	12.3720
 1.4640	12.4180
 1.4650	12.4680
 1.4660	12.5230
 1.4670	12.5830
 1.4680	12.6460
 1.4690	12.7130
 1.4700	12.7840
 1.4710	12.8580
 1.4720	12.9360
 1.4730	13.0170
 1.4740	13.1020
 1.4750	13.1880
 1.4760	13.2780
 1.4770	13.3700
 1.4780	13.4650
 1.4790	13.5620
 1.4800	13.6580
 1.4810	13.7560
 1.4820	13.8540
 1.4830	13.9540
 1.4840	14.0560
 1.4850	14.1580
 1.4860	14.2610
 1.4870	14.3650
 1.4880	14.4690
 1.4890	14.5740
 1.4900	14.6790
 1.4910	14.7850
 1.4920	14.8910
 1.4930	14.9970
 1.4940	15.1040
 1.4950	15.2150
 1.4960	15.3220
 1.4970	15.4290
 1.4980	15.5370
 1.4990	15.6430
 1.5000	15.7510
 1.5010	15.8590
 1.5020	15.9670
 1.5030	16.0760
 1.5040	16.1840
 1.5050	16.2890
 1.5060	16.3960
 1.5070	16.5010
 1.5080	16.6060
 1.5090	16.7130
 1.5100	16.8200
 1.5110	16.9250
 1.5120	17.0300
 1.5130	17.1320
 1.5140	17.2340
 1.5150	17.3360
 1.5160	17.4380
 1.5170	17.5400
 1.5180	17.6410
 1.5190	17.7410
 1.5200	17.8400
 1.5210	17.9370
 1.5220	18.0340
 1.5230	18.1310
 1.5240	18.2270
 1.5250	18.3210
 1.5260	18.4150
 1.5270	18.5070
 1.5280	18.5990
 1.5290	18.6890
 1.5300	18.7780
 1.5310	18.8670
 1.5320	18.9530
 1.5330	19.0400
 1.5340	19.1260
 1.5350	19.2110
 1.5360	19.2960
 1.5370	19.3800
 1.5380	19.4640
 1.5390	19.5480
 1.5400	19.6310
 1.5410	19.7140
 1.5420	19.7950
 1.5430	19.8750
 1.5440	19.9560
 1.5450	20.0340
 1.5460	20.1120
 1.5470	20.1930
 1.5480	20.2700
 1.5490	20.3480
 1.5500	20.4240
 1.5510	20.4970
 1.5520	20.5710
 1.5530	20.6440
 1.5540	20.7180
 1.5550	20.7920
 1.5560	20.8640
 1.5570	20.9350
 1.5580	21.0040
 1.5590	21.0720
 1.5600	21.1410
 1.5610	21.2070
 1.5620	21.2730
 1.5630	21.3370
 1.5640	21.4000
 1.5650	21.4650
 1.5660	21.5290
 1.5670	21.5930
 1.5680	21.6560
 1.5690	21.7170
 1.5700	21.7760
 1.5710	21.8360
 1.5720	21.8960
 1.5730	21.9550
 1.5740	22.0140
 1.5750	22.0740
 1.5760	22.1330
 1.5770	22.1920
 1.5780	22.2510
 1.5790	22.3080
 1.5800	22.3650
 1.5810	22.4230
 1.5820	22.4810
 1.5830	22.5400
 1.5840	22.5990
 1.5850	22.6570
 1.5860	22.7140
 1.5870	22.7710
 1.5880	22.8280
 1.5890	22.8850
 1.5900	22.9410
 1.5910	22.9980
 1.5920	23.0550
 1.5930	23.1110
 1.5940	23.1670
 1.5950	23.2230
 1.5960	23.2780
 1.5970	23.3340
 1.5980	23.3890
 1.5990	23.4440
 1.6000	23.5000
 1.6010	23.5530
 1.6020	23.6060
 1.6030	23.6600
 1.6040	23.7100
 1.6050	23.7620
 1.6060	23.8140
 1.6070	23.8640
 1.6080	23.9150
 1.6090	23.9650
 1.6100	24.0140
 1.6110	24.0640
 1.6120	24.1100
 1.6130	24.1570
 1.6140	24.2020
 1.6150	24.2450
 1.6160	24.2880
 1.6170	24.3290
 1.6180	24.3700
 1.6190	24.4110
 1.6200	24.4490
 1.6210	24.4880
 1.6220	24.5250
 1.6230	24.5620
 1.6240	24.5980
 1.6250	24.6320
 1.6260	24.6660
 1.6270	24.6990
 1.6280	24.7300
 1.6290	24.7610
 1.6300	24.7920
 1.6310	24.8200
 1.6320	24.8470
 1.6330	24.8720
 1.6340	24.8950
 1.6350	24.9170
 1.6360	24.9370
 1.6370	24.9560
 1.6380	24.9730
 1.6390	24.9870
 1.6400	25.0000
 1.6410	25.0100
 1.6420	25.0170
 1.6430	25.0240
 1.6440	25.0290
 1.6450	25.0300
 1.6460	25.0290
 1.6470	25.0250
 1.6480	25.0190
 1.6490	25.0110
 1.6500	25.0020
 1.6510	24.9920
 1.6520	24.9820
 1.6530	24.9700
 1.6540	24.9570
 1.6550	24.9440
 1.6560	24.9290
 1.6570	24.9140
 1.6580	24.9010
 1.6590	24.8880
 1.6600	24.8770
 1.6610	24.8650
 1.6620	24.8530
 1.6630	24.8420
 1.6640	24.8320
 1.6650	24.8250
 1.6660	24.8170
 1.6670	24.8070
 1.6680	24.7990
 1.6690	24.7900
 1.6700	24.7820
 1.6710	24.7730
 1.6720	24.7620
 1.6730	24.7480
 1.6740	24.7320
 1.6750	24.7130
 1.6760	24.6950
 1.6770	24.6750
 1.6780	24.6510
 1.6790	24.6270
 1.6800	24.5990
 1.6810	24.5660
 1.6820	24.5310
 1.6830	24.4940
 1.6840	24.4540
 1.6850	24.4140
 1.6860	24.3720
 1.6870	24.3280
 1.6880	24.2840
 1.6890	24.2370
 1.6900	24.1890
 1.6910	24.1390
 1.6920	24.0890
 1.6930	24.0380
 1.6940	23.9870
 1.6950	23.9380
 1.6960	23.8870
 1.6970	23.8370
 1.6980	23.7840
 1.6990	23.7300
 1.7000	23.6740
 1.7010	23.6160
 1.7020	23.5590
 1.7030	23.5030
 1.7040	23.4450
 1.7050	23.3870
 1.7060	23.3250
 1.7070	23.2600
 1.7080	23.1970
 1.7090	23.1330
 1.7100	23.0690
 1.7110	23.0060
 1.7120	22.9430
 1.7130	22.8800
 1.7140	22.8170
 1.7150	22.7540
 1.7160	22.6920
 1.7170	22.6320
 1.7180	22.5740
 1.7190	22.5170
 1.7200	22.4610
 1.7210	22.4050
 1.7220	22.3530
 1.7230	22.3030
 1.7240	22.2530
 1.7250	22.2060
 1.7260	22.1630
 1.7270	22.1240
 1.7280	22.0930
 1.7290	22.0680
 1.7300	22.0470
 1.7310	22.0320
 1.7320	22.0230
 1.7330	22.0170
 1.7340	22.0190
 1.7350	22.0180
 1.7360	22.0210
 1.7370	22.0190
 1.7380	22.0170
 1.7390	22.0100
 1.7400	22.0010
 1.7410	21.9870
 1.7420	21.9680
 1.7430	21.9440
 1.7440	21.9150
 1.7450	21.8820
 1.7460	21.8430
 1.7470	21.8030
 1.7480	21.7590
 1.7490	21.7130
 1.7500	21.6650
 1.7510	21.6170
 1.7520	21.5670
 1.7530	21.5170
 1.7540	21.4660
 1.7550	21.4120
 1.7560	21.3580
 1.7570	21.3050
 1.7580	21.2530
 1.7590	21.2020
 1.7600	21.1530
 1.7610	21.1040
 1.7620	21.0610
 1.7630	21.0220
 1.7640	20.9860
 1.7650	20.9530
 1.7660	20.9230
 1.7670	20.8970
 1.7680	20.8730
 1.7690	20.8530
 1.7700	20.8320
 1.7710	20.8140
 1.7720	20.7950
 1.7730	20.7750
 1.7740	20.7560
 1.7750	20.7380
 1.7760	20.7200
 1.7770	20.7030
 1.7780	20.6860
 1.7790	20.6690
 1.7800	20.6520
 1.7810	20.6340
 1.7820	20.6190
 1.7830	20.6040
 1.7840	20.5930
 1.7850	20.5860
 1.7860	20.5750
 1.7870	20.5650
 1.7880	20.5570
 1.7890	20.5500
 1.7900	20.5480
 1.7910	20.5440
 1.7920	20.5380
 1.7930	20.5350
 1.7940	20.5320
 1.7950	20.5310
 1.7960	20.5330
 1.7970	20.5350
 1.7980	20.5360
 1.7990	20.5380
 1.8000	20.5410
 1.8010	20.5450
 1.8020	20.5490
 1.8030	20.5540
 1.8040	20.5590
 1.8050	20.5640
 1.8060	20.5720
 1.8070	20.5770
 1.8080	20.5810
 1.8090	20.5850
 1.8100	20.5870
 1.8110	20.5920
 1.8120	20.5980
 1.8130	20.6010
 1.8140	20.6060
 1.8150	20.6110
 1.8160	20.6150
 1.8170	20.6200
 1.8180	20.6230
 1.8190	20.6270
 1.8200	20.6290
 1.8210	20.6280
 1.8220	20.6280
 1.8230	20.6270
 1.8240	20.6260
 1.8250	20.6250
 1.8260	20.6220
 1.8270	20.5970
 1.8280	20.5720
 1.8290	20.5460
 1.8300	20.5210
 1.8310	20.4960
 1.8320	20.4700
 1.8330	20.4450
 1.8340	20.4200
 1.8350	20.4200
 1.8360	20.3910
 1.8370	20.3600
 1.8380	20.3230
 1.8390	20.2840
 1.8400	20.2430
 1.8410	20.1940
 1.8420	20.1420
 1.8430	20.0810
 1.8440	20.0150
 1.8450	19.9420
 1.8460	19.8650
 1.8470	19.7850
 1.8480	19.6970
 1.8490	19.6000
 1.8500	19.4920
 1.8510	19.3730
 1.8520	19.2450
 1.8530	19.1070
 1.8540	18.9590
 1.8550	18.8030
 1.8560	18.6350
 1.8570	18.4560
 1.8580	18.2660
 1.8590	18.0640
 1.8600	17.8500
 1.8610	17.6220
 1.8620	17.3820
 1.8630	17.1280
 1.8640	16.8570
 1.8650	16.5740
 1.8660	16.2770
 1.8670	15.9600
 1.8680	15.6310
 1.8690	15.2880
 1.8700	14.9300
 1.8710	14.5560
 1.8720	14.1750
 1.8730	13.7780
 1.8740	13.3730
 1.8750	12.9650
 1.8760	12.5460
 1.8770	12.1290
 1.8780	11.7100
 1.8790	11.2870
 1.8800	10.8720
 1.8810	10.4620
 1.8820	10.0510
 1.8830	 9.6450
 1.8840	 9.2460
 1.8850	 8.8530
 1.8860	 8.4730
 1.8870	 8.1070
 1.8880	 7.7520
 1.8890	 7.4150
 1.8900	 7.0950
 1.8910	 6.7920
 1.8920	 6.5040
 1.8930	 6.2370
 1.8940	 5.9860
 1.8950	 5.7540
 1.8960	 5.5420
 1.8970	 5.3460
 1.8980	 5.1680
 1.8990	 5.0050
 1.9000	 4.8550
 1.9010	 4.7250
 1.9020	 4.6030
 1.9030	 4.4950
 1.9040	 4.3990
 1.9050	 4.3130
 1.9060	 4.2330
 1.9070	 4.1640
 1.9080	 4.1030
 1.9090	 4.0510
 1.9100	 4.0050
 1.9110	 3.9650
 1.9120	 3.9340
 1.9130	 3.9040
 1.9140	 3.8760
 1.9150	 3.8540
 1.9160	 3.8360
 1.9170	 3.8200
 1.9180	 3.8080
 1.9190	 3.7950
 1.9200	 3.7820
 1.9210	 3.7740
 1.9220	 3.7660
 1.9230	 3.7620
 1.9240	 3.7590
 1.9250	 3.7600
 1.9260	 3.7590
 1.9270	 3.7610
 1.9280	 3.7660
 1.9290	 3.7690
 1.9300	 3.7740
 1.9310	 3.7810
 1.9320	 3.7850
 1.9330	 3.7940
 1.9340	 3.8050
 1.9350	 3.8170
 1.9360	 3.8300
 1.9370	 3.8440
 1.9380	 3.8590
 1.9390	 3.8720
 1.9400	 3.8870
 1.9410	 3.9040
 1.9420	 3.9210
 1.9430	 3.9420
 1.9440	 3.9620
 1.9450	 3.9830
 1.9460	 4.0040
 1.9470	 4.0230
 1.9480	 4.0440
 1.9490	 4.0650
 1.9500	 4.0900
 1.9510	 4.1150
 1.9520	 4.1410
 1.9530	 4.1670
 1.9540	 4.1940
 1.9550	 4.2210
 1.9560	 4.2480
 1.9570	 4.2790
 1.9580	 4.3130
 1.9590	 4.3450
 1.9600	 4.3770
 1.9610	 4.4090
 1.9620	 4.4410
 1.9630	 4.4710
 1.9640	 4.5050
 1.9650	 4.5410
 1.9660	 4.5770
 1.9670	 4.6140
 1.9680	 4.6520
 1.9690	 4.6910
 1.9700	 4.7290
 1.9710	 4.7660
 1.9720	 4.8050
 1.9730	 4.8450
 1.9740	 4.8870
 1.9750	 4.9280
 1.9760	 4.9710
 1.9770	 5.0140
 1.9780	 5.0540
 1.9790	 5.0980
 1.9800	 5.1440
 1.9810	 5.1890
 1.9820	 5.2350
 1.9830	 5.2820
 1.9840	 5.3290
 1.9850	 5.3770
 1.9860	 5.4250
 1.9870	 5.4740
 1.9880	 5.5220
 1.9890	 5.5700
 1.9900	 5.6190
 1.9910	 5.6660
 1.9920	 5.7160
 1.9930	 5.7670
 1.9940	 5.8180
 1.9950	 5.8700
 1.9960	 5.9210
 1.9970	 5.9710
 1.9980	 6.0220
 1.9990	 6.0730
 2.0000	 6.1230
 2.0010	 6.1720
 2.0020	 6.2220
 2.0030	 6.2710
 2.0040	 6.3200
 2.0050	 6.3710
 2.0060	 6.4230
 2.0070	 6.4750
 2.0080	 6.5310
 2.0090	 6.5840
 2.0100	 6.6370
 2.0110	 6.6870
 2.0120	 6.7350
 2.0130	 6.7810
 2.0140	 6.8270
 2.0150	 6.8750
 2.0160	 6.9240
 2.0170	 6.9720
 2.0180	 7.0190
 2.0190	 7.0640
 2.0200	 7.1090
 2.0210	 7.1530
 2.0220	 7.1970
 2.0230	 7.2400
 2.0240	 7.2810
 2.0250	 7.3200
 2.0260	 7.3600
 2.0270	 7.3980
 2.0280	 7.4350
 2.0290	 7.4740
 2.0300	 7.5120
 2.0310	 7.5490
 2.0320	 7.5850
 2.0330	 7.6190
 2.0340	 7.6510
 2.0350	 7.6820
 2.0360	 7.7100
 2.0370	 7.7400
 2.0380	 7.7690
 2.0390	 7.7970
 2.0400	 7.8240
 2.0410	 7.8500
 2.0420	 7.8760
 2.0430	 7.8990
 2.0440	 7.9230
 2.0450	 7.9450
 2.0460	 7.9670
 2.0470	 7.9890
 2.0480	 8.0120
 2.0490	 8.0350
 2.0500	 8.0580
 2.0510	 8.0820
 2.0520	 8.1050
 2.0530	 8.1310
 2.0540	 8.1550
 2.0550	 8.1790
 2.0560	 8.2010
 2.0570	 8.2230
 2.0580	 8.2450
 2.0590	 8.2680
 2.0600	 8.2900
 2.0610	 8.3120
 2.0620	 8.3340
 2.0630	 8.3560
 2.0640	 8.3780
 2.0650	 8.4010
 2.0660	 8.4250
 2.0670	 8.4500
 2.0680	 8.4770
 2.0690	 8.5020
 2.0700	 8.5280
 2.0710	 8.5520
 2.0720	 8.5750
 2.0730	 8.5990
 2.0740	 8.6220
 2.0750	 8.6450
 2.0760	 8.6680
 2.0770	 8.6900
 2.0780	 8.7140
 2.0790	 8.7390
 2.0800	 8.7640
 2.0810	 8.7880
 2.0820	 8.8120
 2.0830	 8.8350
 2.0840	 8.8580
 2.0850	 8.8790
 2.0860	 8.9020
 2.0870	 8.9230
 2.0880	 8.9480
 2.0890	 8.9720
 2.0900	 8.9970
 2.0910	 9.0190
 2.0920	 9.0390
 2.0930	 9.0610
 2.0940	 9.0810
 2.0950	 9.1050
 2.0960	 9.1320
 2.0970	 9.1550
 2.0980	 9.1780
 2.0990	 9.2000
 2.1000	 9.2180
 2.1010	 9.2390
 2.1020	 9.2610
 2.1030	 9.2830
 2.1040	 9.3080
 2.1050	 9.3320
 2.1060	 9.3540
 2.1070	 9.3770
 2.1080	 9.3990
 2.1090	 9.4190
 2.1100	 9.4410
 2.1110	 9.4640
 2.1120	 9.4870
 2.1130	 9.5130
 2.1140	 9.5350
 2.1150	 9.5540
 2.1160	 9.5740
 2.1170	 9.5930
 2.1180	 9.6110
 2.1190	 9.6270
 2.1200	 9.6450
 2.1210	 9.6630
 2.1220	 9.6830
 2.1230	 9.7030
 2.1240	 9.7270
 2.1250	 9.7470
 2.1260	 9.7630
 2.1270	 9.7820
 2.1280	 9.7980
 2.1290	 9.8160
 2.1300	 9.8360
 2.1310	 9.8540
 2.1320	 9.8720
 2.1330	 9.8900
 2.1340	 9.9080
 2.1350	 9.9260
 2.1360	 9.9440
 2.1370	 9.9630
 2.1380	 9.9820
 2.1390	10.0030
 2.1400	10.0260
 2.1410	10.0480
 2.1420	10.0680
 2.1430	10.0880
 2.1440	10.1090
 2.1450	10.1280
 2.1460	10.1500
 2.1470	10.1740
 2.1480	10.1970
 2.1490	10.2200
 2.1500	10.2410
 2.1510	10.2600
 2.1520	10.2820
 2.1530	10.3040
 2.1540	10.3240
 2.1550	10.3460
 2.1560	10.3660
 2.1570	10.3810
 2.1580	10.3990
 2.1590	10.4170
 2.1600	10.4370
 2.1610	10.4590
 2.1620	10.4810
 2.1630	10.4990
 2.1640	10.5180
 2.1650	10.5330
 2.1660	10.5430
 2.1670	10.5590
 2.1680	10.5750
 2.1690	10.5930
 2.1700	10.6140
 2.1710	10.6330
 2.1720	10.6490
 2.1730	10.6690
 2.1740	10.6930
 2.1750	10.7120
 2.1760	10.7300
 2.1770	10.7500
 2.1780	10.7680
 2.1790	10.7860
 2.1800	10.8070
 2.1810	10.8260
 2.1820	10.8440
 2.1830	10.8600
 2.1840	10.8780
 2.1850	10.8950
 2.1860	10.9140
 2.1870	10.9340
 2.1880	10.9530
 2.1890	10.9730
 2.1900	10.9920
 2.1910	11.0090
 2.1920	11.0300
 2.1930	11.0550
 2.1940	11.0780
 2.1950	11.1030
 2.1960	11.1250
 2.1970	11.1440
 2.1980	11.1620
 2.1990	11.1790
 2.2000	11.1940
 2.2010	11.2060
 2.2020	11.2190
 2.2030	11.2330
 2.2040	11.2460
 2.2050	11.2580
 2.2060	11.2750
 2.2070	11.2870
 2.2080	11.2990
 2.2090	11.3110
 2.2100	11.3230
 2.2110	11.3330
 2.2120	11.3430
 2.2130	11.3500
 2.2140	11.3540
 2.2150	11.3570
 2.2160	11.3580
 2.2170	11.3570
 2.2180	11.3550
 2.2190	11.3500
 2.2200	11.3430
 2.2210	11.3360
 2.2220	11.3290
 2.2230	11.3200
 2.2240	11.3120
 2.2250	11.2990
 2.2260	11.2800
 2.2270	11.2590
 2.2280	11.2330
 2.2290	11.2040
 2.2300	11.1680
 2.2310	11.1320
 2.2320	11.0950
 2.2330	11.0530
 2.2340	11.0110
 2.2350	10.9690
 2.2360	10.9240
 2.2370	10.8750
 2.2380	10.8260
 2.2390	10.7770
 2.2400	10.7250
 2.2410	10.6710
 2.2420	10.6150
 2.2430	10.5550
 2.2440	10.4950
 2.2450	10.4320
 2.2460	10.3720
 2.2470	10.3120
 2.2480	10.2530
 2.2490	10.1960
 2.2500	10.1380
 2.2510	10.0800
 2.2520	10.0230
 2.2530	 9.9680
 2.2540	 9.9120
 2.2550	 9.8530
 2.2560	 9.7970
 2.2570	 9.7410
 2.2580	 9.6850
 2.2590	 9.6290
 2.2600	 9.5770
 2.2610	 9.5260
 2.2620	 9.4770
 2.2630	 9.4320
 2.2640	 9.3870
 2.2650	 9.3420
 2.2660	 9.2950
 2.2670	 9.2500
 2.2680	 9.2070
 2.2690	 9.1660
 2.2700	 9.1270
 2.2710	 9.0860
 2.2720	 9.0450
 2.2730	 9.0070
 2.2740	 8.9660
 2.2750	 8.9340
 2.2760	 8.9110
 2.2770	 8.8830
 2.2780	 8.8590
 2.2790	 8.8320
 2.2800	 8.8010
 2.2810	 8.7730
 2.2820	 8.7480
 2.2830	 8.7200
 2.2840	 8.6910
 2.2850	 8.6580
 2.2860	 8.6200
 2.2870	 8.5850
 2.2880	 8.5500
 2.2890	 8.5130
 2.2900	 8.4790
 2.2910	 8.4390
 2.2920	 8.3900
 2.2930	 8.3470
 2.2940	 8.3040
 2.2950	 8.2590
 2.2960	 8.2160
 2.2970	 8.1700
 2.2980	 8.1220
 2.2990	 8.0700
 2.3000	 8.0190
 2.3010	 7.9710
 2.3020	 7.9250
 2.3030	 7.8810
 2.3040	 7.8360
 2.3050	 7.7970
 2.3060	 7.7530
 2.3070	 7.7100
 2.3080	 7.6720
 2.3090	 7.6320
 2.3100	 7.6030
 2.3110	 7.5820
 2.3120	 7.5630
 2.3130	 7.5510
 2.3140	 7.5440
 2.3150	 7.5420
 2.3160	 7.5400
 2.3170	 7.5460
 2.3180	 7.5490
 2.3190	 7.5510
 2.3200	 7.5530
 2.3210	 7.5570
 2.3220	 7.5570
 2.3230	 7.5550
 2.3240	 7.5510
 2.3250	 7.5470
 2.3260	 7.5360
 2.3270	 7.5180
 2.3280	 7.5010
 2.3290	 7.4790
 2.3300	 7.4590
 2.3310	 7.4430
 2.3320	 7.4230
 2.3330	 7.4050
 2.3340	 7.3810
 2.3350	 7.3500
 2.3360	 7.3220
 2.3370	 7.2900
 2.3380	 7.2640
 2.3390	 7.2470
 2.3400	 7.2220
 2.3410	 7.1950
 2.3420	 7.1670
 2.3430	 7.1320
 2.3440	 7.1020
 2.3450	 7.0710
 2.3460	 7.0440
 2.3470	 7.0210
 2.3480	 6.9980
 2.3490	 6.9790
 2.3500	 6.9580
 2.3510	 6.9330
 2.3520	 6.9120
 2.3530	 6.8940
 2.3540	 6.8730
 2.3550	 6.8570
 2.3560	 6.8470
 2.3570	 6.8450
 2.3580	 6.8490
 2.3590	 6.8490
 2.3600	 6.8490
 2.3610	 6.8370
 2.3620	 6.8130
 2.3630	 6.7970
 2.3640	 6.7790
 2.3650	 6.7570
 2.3660	 6.7430
 2.3670	 6.7260
 2.3680	 6.7020
 2.3690	 6.6830
 2.3700	 6.6600
 2.3710	 6.6360
 2.3720	 6.6120
 2.3730	 6.5820
 2.3740	 6.5590
 2.3750	 6.5460
 2.3760	 6.5320
 2.3770	 6.5140
 2.3780	 6.4970
 2.3790	 6.4670
 2.3800	 6.4330
 2.3810	 6.4050
 2.3820	 6.3740
 2.3830	 6.3450
 2.3840	 6.3230
 2.3850	 6.3030
 2.3860	 6.2830
 2.3870	 6.2620
 2.3880	 6.2330
 2.3890	 6.2050
 2.3900	 6.1830
 2.3910	 6.1600
 2.3920	 6.1340
 2.3930	 6.1070
 2.3940	 6.0800
 2.3950	 6.0550
 2.3960	 6.0390
 2.3970	 6.0150
 2.3980	 5.9870
 2.3990	 5.9690
 2.4000	 5.9460
 2.4010	 5.9240
 2.4020	 5.9010
 2.4030	 5.8620
 2.4040	 5.8150
 2.4050	 5.7790
 2.4060	 5.7590
 2.4070	 5.7400
 2.4080	 5.7220
 2.4090	 5.7000
 2.4100	 5.6690
 2.4110	 5.6320
 2.4120	 5.5880
 2.4130	 5.5550
 2.4140	 5.5190
 2.4150	 5.4930
 2.4160	 5.4890
 2.4170	 5.4750
 2.4180	 5.4600
 2.4190	 5.4400
 2.4200	 5.4060
 2.4210	 5.3750
 2.4220	 5.3440
 2.4230	 5.3140
 2.4240	 5.2950
 2.4250	 5.2770
 2.4260	 5.2510
 2.4270	 5.2140
 2.4280	 5.1730
 2.4290	 5.1330
 2.4300	 5.0910
 2.4310	 5.0620
 2.4320	 5.0480
 2.4330	 5.0220
 2.4340	 4.9930
 2.4350	 4.9790
 2.4360	 4.9540
 2.4370	 4.9250
 2.4380	 4.9090
 2.4390	 4.8830
 2.4400	 4.8460
 2.4410	 4.8210
 2.4420	 4.7930
 2.4430	 4.7670
 2.4440	 4.7470
 2.4450	 4.7200
 2.4460	 4.6970
 2.4470	 4.6630
 2.4480	 4.6300
 2.4490	 4.6130
 2.4500	 4.5830
 2.4510	 4.5610
 2.4520	 4.5460
 2.4530	 4.5130
 2.4540	 4.4910
 2.4550	 4.4690
 2.4560	 4.4390
 2.4570	 4.4140
 2.4580	 4.3780
 2.4590	 4.3500
 2.4600	 4.3420
 2.4610	 4.3330
 2.4620	 4.3300
 2.4630	 4.3220
 2.4640	 4.3000
 2.4650	 4.2780
 2.4660	 4.2570
 2.4670	 4.2380
 2.4680	 4.2370
 2.4690	 4.2480
 2.4700	 4.2360
 2.4710	 4.2200
 2.4720	 4.2030
 2.4730	 4.1670
 2.4740	 4.1460
 2.4750	 4.1350
 2.4760	 4.1140
 2.4770	 4.0850
 2.4780	 4.0650
 2.4790	 4.0520
 2.4800	 4.0290
 2.4810	 4.0040
 2.4820	 3.9870
 2.4830	 3.9830
 2.4840	 3.9970
 2.4850	 3.9990
 2.4860	 4.0040
 2.4870	 3.9960
 2.4880	 3.9910
 2.4890	 4.0130
 2.4900	 4.0060
 2.4910	 3.9760
 2.4920	 3.9550
 2.4930	 3.9230
 2.4940	 3.9050
 2.4950	 3.9200
 2.4960	 3.9360
 2.4970	 3.9220
 2.4980	 3.9470
 2.4990	 3.9450
 2.5000	 3.8960
