Name: Acer rubrum
Type: Vegetation
Class: Tree
Genus: Acer
Species: rubrum
Sample No.: ACRU-1-15
Owner: UCSB
Wavelength Range: TIR
Origin: USA; Massachusetts; Harvard Forest
Collection Date: 7/8/2013
Description: Samples were collected as part of NSF Macrosystem Biology proposal titled: Collaborative Research: Thermal controls on ecosystem metabolism and function: scaling from leaves to canopies to regions. Samples were collected and overnighted to JPL facilities for processing. The same leaves were processed in the Nicolet and then measured using the ASD.
Measurement: Hemispherical reflectance
First Column: X
Second Column: Y
X Units: Wavelength (micrometers)
Y Units: Reflectance (percentage)
First X Value: 2.501
Last X Value: 15.387
Number of X Values: 1737
Additional Information: vegetation.tree.acer.rubrum.tir.acru-1-15.ucsb.nicolet.ancillary.txt

 2.5010	 7.8540
 2.5030	 7.9280
 2.5040	 8.1530
 2.5050	 7.9610
 2.5060	 7.7890
 2.5070	 8.0650
 2.5090	 8.1480
 2.5100	 7.7700
 2.5110	 7.8170
 2.5120	 7.9990
 2.5140	 7.9980
 2.5150	 7.9580
 2.5160	 7.8880
 2.5170	 7.7810
 2.5180	 7.8050
 2.5200	 7.9360
 2.5210	 7.8380
 2.5220	 7.7320
 2.5230	 7.9670
 2.5250	 7.8980
 2.5260	 7.8520
 2.5270	 7.6630
 2.5280	 7.4080
 2.5290	 7.4370
 2.5310	 7.7210
 2.5320	 7.5850
 2.5330	 7.4790
 2.5340	 7.6060
 2.5360	 7.8550
 2.5370	 7.8250
 2.5380	 7.7770
 2.5390	 7.8250
 2.5410	 7.7360
 2.5420	 7.7080
 2.5430	 7.9360
 2.5440	 7.9150
 2.5460	 7.8070
 2.5470	 7.6780
 2.5480	 7.8290
 2.5490	 7.8420
 2.5510	 7.8370
 2.5520	 7.8680
 2.5530	 7.8230
 2.5540	 7.6650
 2.5560	 7.4960
 2.5570	 7.6700
 2.5580	 8.0440
 2.5590	 8.2990
 2.5610	 8.2960
 2.5620	 8.0090
 2.5630	 7.8650
 2.5640	 7.7460
 2.5660	 7.7060
 2.5670	 7.8480
 2.5680	 8.0760
 2.5700	 8.0010
 2.5710	 7.8120
 2.5720	 7.9090
 2.5730	 8.0210
 2.5750	 7.9470
 2.5760	 7.9610
 2.5770	 8.0690
 2.5790	 8.0840
 2.5800	 7.8430
 2.5810	 7.8270
 2.5820	 7.7470
 2.5840	 7.8740
 2.5850	 8.0730
 2.5860	 8.2240
 2.5880	 7.9550
 2.5890	 7.6050
 2.5900	 7.5640
 2.5910	 7.7970
 2.5930	 7.8180
 2.5940	 7.6080
 2.5950	 7.1880
 2.5970	 7.1810
 2.5980	 7.5470
 2.5990	 7.7050
 2.6000	 7.6610
 2.6020	 7.7230
 2.6030	 7.6660
 2.6040	 7.6330
 2.6060	 7.3750
 2.6070	 7.1510
 2.6080	 7.1270
 2.6100	 7.1920
 2.6110	 7.1120
 2.6120	 7.1610
 2.6140	 7.1450
 2.6150	 7.1000
 2.6160	 6.9960
 2.6180	 6.8690
 2.6190	 6.5090
 2.6200	 6.5110
 2.6220	 6.6020
 2.6230	 6.7390
 2.6240	 6.7080
 2.6260	 6.6120
 2.6270	 6.6380
 2.6280	 6.5880
 2.6300	 6.3170
 2.6310	 6.3630
 2.6320	 6.3530
 2.6340	 6.2890
 2.6350	 6.2960
 2.6360	 6.4340
 2.6380	 6.4270
 2.6390	 6.4080
 2.6400	 6.3390
 2.6420	 6.3220
 2.6430	 6.1190
 2.6440	 5.9470
 2.6460	 5.9990
 2.6470	 5.9890
 2.6480	 5.9440
 2.6500	 6.0180
 2.6510	 5.7260
 2.6520	 5.4040
 2.6540	 5.2250
 2.6550	 5.3730
 2.6560	 5.4110
 2.6580	 5.4650
 2.6590	 5.4020
 2.6610	 5.4470
 2.6620	 5.3500
 2.6630	 5.3040
 2.6650	 5.3280
 2.6660	 5.4100
 2.6670	 5.3940
 2.6690	 5.4010
 2.6700	 5.3590
 2.6720	 5.2870
 2.6730	 5.0430
 2.6740	 4.7380
 2.6760	 4.7940
 2.6770	 5.0610
 2.6780	 5.0090
 2.6800	 4.8320
 2.6810	 4.7720
 2.6830	 4.9060
 2.6840	 4.9910
 2.6850	 5.0560
 2.6870	 4.8870
 2.6880	 4.9850
 2.6900	 4.9550
 2.6910	 4.7900
 2.6920	 4.7300
 2.6940	 4.7930
 2.6950	 4.9790
 2.6970	 5.0590
 2.6980	 5.0250
 2.6990	 5.0680
 2.7010	 4.9780
 2.7020	 4.8820
 2.7040	 4.8110
 2.7050	 4.6460
 2.7060	 4.5270
 2.7080	 4.7020
 2.7090	 4.6890
 2.7110	 4.6290
 2.7120	 4.6910
 2.7130	 4.6710
 2.7150	 4.5440
 2.7160	 4.6700
 2.7180	 4.5940
 2.7190	 4.5930
 2.7210	 4.5920
 2.7220	 4.6420
 2.7230	 4.7310
 2.7250	 4.8420
 2.7260	 4.7950
 2.7280	 4.5210
 2.7290	 4.5570
 2.7310	 4.8680
 2.7320	 4.7320
 2.7330	 4.4160
 2.7350	 4.4210
 2.7360	 4.9040
 2.7380	 4.9870
 2.7390	 4.8000
 2.7410	 4.5720
 2.7420	 4.5770
 2.7440	 4.6190
 2.7450	 4.8080
 2.7470	 4.9120
 2.7480	 4.7660
 2.7490	 4.4350
 2.7510	 4.4590
 2.7520	 4.4070
 2.7540	 4.6690
 2.7550	 4.6330
 2.7570	 4.5950
 2.7580	 4.3140
 2.7600	 4.6750
 2.7610	 4.9630
 2.7630	 4.6540
 2.7640	 4.4050
 2.7660	 4.2560
 2.7670	 4.1590
 2.7680	 4.5100
 2.7700	 4.9590
 2.7710	 4.7120
 2.7730	 4.5630
 2.7740	 4.6870
 2.7760	 4.8410
 2.7770	 4.8790
 2.7790	 4.6090
 2.7800	 4.7090
 2.7820	 5.0590
 2.7830	 5.1100
 2.7850	 4.7750
 2.7860	 4.6610
 2.7880	 4.6320
 2.7890	 4.7840
 2.7910	 4.8290
 2.7920	 5.0010
 2.7940	 4.8880
 2.7950	 4.7980
 2.7970	 4.5710
 2.7980	 4.4350
 2.8000	 4.3830
 2.8010	 4.6740
 2.8030	 4.8830
 2.8040	 4.9960
 2.8060	 4.8770
 2.8070	 4.7530
 2.8090	 4.7070
 2.8110	 4.8870
 2.8120	 4.8100
 2.8140	 4.8470
 2.8150	 4.9780
 2.8170	 4.7670
 2.8180	 4.3990
 2.8200	 4.7830
 2.8210	 5.1140
 2.8230	 4.9170
 2.8240	 4.7120
 2.8260	 4.5310
 2.8270	 4.3290
 2.8290	 4.3720
 2.8300	 4.4800
 2.8320	 4.5490
 2.8340	 4.6740
 2.8350	 4.7020
 2.8370	 4.5800
 2.8380	 4.6750
 2.8400	 5.0840
 2.8410	 5.2390
 2.8430	 4.8970
 2.8440	 4.7770
 2.8460	 4.7940
 2.8480	 4.7480
 2.8490	 4.7790
 2.8510	 4.8800
 2.8520	 4.6690
 2.8540	 4.5580
 2.8550	 4.5780
 2.8570	 4.6270
 2.8590	 4.7210
 2.8600	 4.8160
 2.8620	 4.7990
 2.8630	 4.7720
 2.8650	 4.7730
 2.8660	 4.4720
 2.8680	 4.2610
 2.8700	 4.6950
 2.8710	 4.9450
 2.8730	 4.8110
 2.8740	 4.9110
 2.8760	 5.0980
 2.8780	 4.9060
 2.8790	 4.7950
 2.8810	 4.4200
 2.8820	 4.5000
 2.8840	 4.6480
 2.8860	 4.5890
 2.8870	 4.5700
 2.8890	 5.1080
 2.8900	 5.3080
 2.8920	 4.9950
 2.8940	 4.5360
 2.8950	 4.3140
 2.8970	 4.1090
 2.8980	 4.3150
 2.9000	 4.5520
 2.9020	 4.7610
 2.9030	 4.6980
 2.9050	 4.2990
 2.9070	 4.0520
 2.9080	 4.4170
 2.9100	 4.5870
 2.9120	 4.6960
 2.9130	 4.7020
 2.9150	 4.6840
 2.9160	 4.5230
 2.9180	 4.6670
 2.9200	 4.8330
 2.9210	 4.7420
 2.9230	 4.4680
 2.9250	 4.3630
 2.9260	 4.4000
 2.9280	 4.6810
 2.9300	 4.6870
 2.9310	 4.6850
 2.9330	 4.6040
 2.9350	 4.5760
 2.9360	 4.5110
 2.9380	 4.5090
 2.9400	 4.6680
 2.9410	 4.8420
 2.9430	 4.6880
 2.9450	 4.5450
 2.9460	 4.6360
 2.9480	 4.8950
 2.9500	 4.9100
 2.9510	 4.4020
 2.9530	 4.4340
 2.9550	 4.7970
 2.9560	 5.0680
 2.9580	 4.9900
 2.9600	 5.1050
 2.9610	 4.7340
 2.9630	 4.4930
 2.9650	 4.9530
 2.9660	 3.2340
 2.9680	 2.7230
 2.9700	 4.9670
 2.9720	 5.6400
 2.9730	 4.9790
 2.9750	 5.4180
 2.9770	 4.9850
 2.9780	 3.2300
 2.9800	 4.3370
 2.9820	 3.7640
 2.9840	 2.7250
 2.9850	 4.3690
 2.9870	 5.2070
 2.9890	 3.8430
 2.9900	 3.0830
 2.9920	 4.1170
 2.9940	 4.5340
 2.9960	 4.5170
 2.9970	 4.5190
 2.9990	 3.1650
 3.0010	 3.3170
 3.0030	 3.8330
 3.0040	 3.5960
 3.0060	 4.0920
 3.0080	 5.0270
 3.0100	 5.4430
 3.0110	 4.3120
 3.0130	 3.6310
 3.0150	 4.0080
 3.0170	 3.8090
 3.0180	 3.9430
 3.0200	 5.3090
 3.0220	 4.9210
 3.0240	 4.5320
 3.0250	 4.1400
 3.0270	 4.3750
 3.0290	 4.5420
 3.0310	 3.9160
 3.0320	 3.0590
 3.0340	 3.7200
 3.0360	 4.9330
 3.0380	 5.4980
 3.0400	 4.9280
 3.0410	 6.0820
 3.0430	 8.1310
 3.0450	 6.4300
 3.0470	 2.7380
 3.0480	 2.8710
 3.0500	 3.9840
 3.0520	 5.7860
 3.0540	 5.4970
 3.0560	 4.1790
 3.0570	 4.6760
 3.0590	 3.3450
 3.0610	 3.6810
 3.0630	 4.3170
 3.0650	 4.1040
 3.0660	 4.7540
 3.0680	 4.0000
 3.0700	 2.9460
 3.0720	 3.6650
 3.0740	 4.8660
 3.0760	 4.7520
 3.0770	 4.2420
 3.0790	 4.1650
 3.0810	 4.2480
 3.0830	 4.2930
 3.0850	 4.2010
 3.0870	 4.2690
 3.0880	 4.3980
 3.0900	 4.1300
 3.0920	 4.2260
 3.0940	 4.0600
 3.0960	 4.0540
 3.0980	 4.4080
 3.0990	 4.7210
 3.1010	 4.3990
 3.1030	 3.9910
 3.1050	 4.2740
 3.1070	 4.4990
 3.1090	 4.2750
 3.1110	 3.9600
 3.1120	 4.3520
 3.1140	 5.1090
 3.1160	 4.6430
 3.1180	 3.9590
 3.1200	 3.8690
 3.1220	 3.9460
 3.1240	 4.2060
 3.1260	 4.6260
 3.1270	 4.2670
 3.1290	 3.8550
 3.1310	 3.5340
 3.1330	 3.7750
 3.1350	 4.0450
 3.1370	 3.9240
 3.1390	 2.8920
 3.1410	 2.1750
 3.1430	 2.1070
 3.1450	 3.3160
 3.1460	 4.6040
 3.1480	 4.5950
 3.1500	 4.0230
 3.1520	 4.6840
 3.1540	 4.7050
 3.1560	 4.2140
 3.1580	 3.7210
 3.1600	 3.9620
 3.1620	 4.2170
 3.1640	 4.3500
 3.1660	 6.4430
 3.1680	 7.1270
 3.1700	 5.2610
 3.1710	 5.8160
 3.1730	 4.5310
 3.1750	 3.1130
 3.1770	 3.3410
 3.1790	 5.4210
 3.1810	 3.6300
 3.1830	 4.0080
 3.1850	 5.5300
 3.1870	 4.8030
 3.1890	 4.2410
 3.1910	 4.5180
 3.1930	 4.2780
 3.1950	 3.9640
 3.1970	 3.8250
 3.1990	 3.9230
 3.2010	 4.0900
 3.2030	 4.2060
 3.2050	 4.1450
 3.2070	 3.9480
 3.2090	 4.0290
 3.2110	 4.0890
 3.2130	 3.9040
 3.2150	 4.0250
 3.2170	 4.2610
 3.2190	 4.2750
 3.2210	 4.1640
 3.2230	 4.0740
 3.2250	 3.9920
 3.2270	 4.1290
 3.2290	 4.1560
 3.2310	 4.0010
 3.2330	 3.8120
 3.2350	 3.8270
 3.2370	 4.1840
 3.2390	 4.3170
 3.2410	 4.1380
 3.2430	 3.9030
 3.2450	 3.6460
 3.2470	 3.7020
 3.2490	 4.0890
 3.2510	 4.1550
 3.2530	 3.8670
 3.2550	 3.9220
 3.2570	 3.8860
 3.2590	 4.1600
 3.2610	 4.2470
 3.2630	 3.9930
 3.2650	 3.9590
 3.2670	 4.0780
 3.2690	 3.8970
 3.2720	 3.9290
 3.2740	 4.0730
 3.2760	 3.9900
 3.2780	 4.0010
 3.2800	 4.0390
 3.2820	 3.6390
 3.2840	 3.6280
 3.2860	 3.6790
 3.2880	 3.7140
 3.2900	 3.7420
 3.2920	 4.0920
 3.2940	 4.1020
 3.2960	 3.8800
 3.2990	 4.0280
 3.3010	 4.1390
 3.3030	 4.0800
 3.3050	 4.0330
 3.3070	 3.9360
 3.3090	 3.7120
 3.3110	 3.5580
 3.3130	 3.5830
 3.3150	 3.5220
 3.3180	 3.4400
 3.3200	 3.5800
 3.3220	 3.6560
 3.3240	 3.5640
 3.3260	 3.7880
 3.3280	 4.0870
 3.3300	 4.0270
 3.3330	 3.7950
 3.3350	 3.7570
 3.3370	 3.9090
 3.3390	 3.9760
 3.3410	 3.8790
 3.3430	 3.8170
 3.3450	 3.8920
 3.3480	 3.9780
 3.3500	 3.9040
 3.3520	 3.8910
 3.3540	 3.7680
 3.3560	 3.5760
 3.3580	 3.6680
 3.3610	 3.8540
 3.3630	 3.8630
 3.3650	 3.8250
 3.3670	 3.7260
 3.3690	 3.8560
 3.3720	 3.9890
 3.3740	 3.9210
 3.3760	 3.7410
 3.3780	 3.5260
 3.3800	 3.5510
 3.3830	 3.7670
 3.3850	 3.7880
 3.3870	 3.7690
 3.3890	 3.6900
 3.3910	 3.7170
 3.3940	 3.6190
 3.3960	 3.7190
 3.3980	 4.0100
 3.4000	 4.1530
 3.4020	 4.1650
 3.4050	 3.9780
 3.4070	 4.0100
 3.4090	 4.2490
 3.4110	 4.4730
 3.4140	 4.8100
 3.4160	 5.0100
 3.4180	 5.0390
 3.4200	 5.2620
 3.4230	 5.6360
 3.4250	 5.7360
 3.4270	 5.9570
 3.4290	 6.3460
 3.4320	 6.3810
 3.4340	 5.9920
 3.4360	 5.6110
 3.4390	 5.4120
 3.4410	 5.4550
 3.4430	 5.2460
 3.4450	 5.1660
 3.4480	 5.3040
 3.4500	 5.1820
 3.4520	 4.8510
 3.4550	 4.8710
 3.4570	 5.1930
 3.4590	 5.2890
 3.4620	 5.1340
 3.4640	 4.9130
 3.4660	 4.9650
 3.4680	 4.8800
 3.4710	 4.7260
 3.4730	 4.7540
 3.4750	 4.6670
 3.4780	 4.6160
 3.4800	 4.5770
 3.4820	 4.6900
 3.4850	 4.7390
 3.4870	 4.7730
 3.4890	 4.6690
 3.4920	 4.6710
 3.4940	 4.7520
 3.4970	 4.9040
 3.4990	 4.8080
 3.5010	 4.8420
 3.5040	 5.2030
 3.5060	 5.7040
 3.5080	 5.9770
 3.5110	 6.1540
 3.5130	 5.9740
 3.5160	 5.7660
 3.5180	 5.5860
 3.5200	 5.4640
 3.5230	 5.2790
 3.5250	 5.2180
 3.5270	 5.1830
 3.5300	 5.0220
 3.5320	 4.8250
 3.5350	 4.8310
 3.5370	 4.7910
 3.5400	 4.7720
 3.5420	 4.8870
 3.5440	 5.0550
 3.5470	 5.0390
 3.5490	 5.1070
 3.5520	 5.0350
 3.5540	 4.8090
 3.5570	 4.6510
 3.5590	 4.6520
 3.5610	 4.6070
 3.5640	 4.6060
 3.5660	 4.6490
 3.5690	 4.8820
 3.5710	 4.9480
 3.5740	 4.7380
 3.5760	 4.6710
 3.5790	 4.6550
 3.5810	 4.5340
 3.5840	 4.6580
 3.5860	 4.6580
 3.5890	 4.2690
 3.5910	 4.4880
 3.5930	 5.0400
 3.5960	 4.9050
 3.5980	 4.5770
 3.6010	 4.3850
 3.6030	 4.5140
 3.6060	 4.6990
 3.6080	 4.8110
 3.6110	 4.7400
 3.6140	 4.7040
 3.6160	 4.7210
 3.6190	 4.6700
 3.6210	 4.4940
 3.6240	 4.5080
 3.6260	 4.6200
 3.6290	 4.5630
 3.6310	 4.2910
 3.6340	 4.4680
 3.6360	 4.7950
 3.6390	 4.8640
 3.6410	 4.7320
 3.6440	 4.6260
 3.6470	 4.5550
 3.6490	 4.5040
 3.6520	 4.4950
 3.6540	 4.5550
 3.6570	 4.4780
 3.6590	 4.4860
 3.6620	 4.6190
 3.6650	 4.7300
 3.6670	 4.5870
 3.6700	 4.6060
 3.6720	 4.5850
 3.6750	 4.5680
 3.6780	 4.5720
 3.6800	 4.6660
 3.6830	 4.6490
 3.6850	 4.5240
 3.6880	 4.4580
 3.6910	 4.5360
 3.6930	 4.5590
 3.6960	 4.5720
 3.6990	 4.5730
 3.7010	 4.5370
 3.7040	 4.5660
 3.7060	 4.5670
 3.7090	 4.5700
 3.7120	 4.5510
 3.7140	 4.5320
 3.7170	 4.6290
 3.7200	 4.6330
 3.7220	 4.8020
 3.7250	 4.8020
 3.7280	 4.6840
 3.7300	 4.7980
 3.7330	 4.9800
 3.7360	 4.8100
 3.7390	 4.4940
 3.7410	 4.4390
 3.7440	 4.5500
 3.7470	 4.5040
 3.7490	 4.3850
 3.7520	 4.3010
 3.7550	 4.4120
 3.7580	 4.5860
 3.7600	 4.5890
 3.7630	 4.4670
 3.7660	 4.5680
 3.7680	 4.6920
 3.7710	 4.6670
 3.7740	 4.6150
 3.7770	 4.6530
 3.7790	 4.5930
 3.7820	 4.6260
 3.7850	 4.6500
 3.7880	 4.5790
 3.7900	 4.4570
 3.7930	 4.4040
 3.7960	 4.4240
 3.7990	 4.5290
 3.8020	 4.5180
 3.8040	 4.6050
 3.8070	 4.5290
 3.8100	 4.4190
 3.8130	 4.3510
 3.8160	 4.5610
 3.8180	 4.6480
 3.8210	 4.6320
 3.8240	 4.4380
 3.8270	 4.3410
 3.8300	 4.2550
 3.8330	 4.2920
 3.8350	 4.4160
 3.8380	 4.4970
 3.8410	 4.5750
 3.8440	 4.6840
 3.8470	 4.5810
 3.8500	 4.5470
 3.8520	 4.5380
 3.8550	 4.4550
 3.8580	 4.5040
 3.8610	 4.6250
 3.8640	 4.6670
 3.8670	 4.6420
 3.8700	 4.5560
 3.8730	 4.6160
 3.8750	 4.5770
 3.8780	 4.5250
 3.8810	 4.5950
 3.8840	 4.6430
 3.8870	 4.6310
 3.8900	 4.6270
 3.8930	 4.5190
 3.8960	 4.5120
 3.8990	 4.5770
 3.9020	 4.5410
 3.9050	 4.4860
 3.9080	 4.6140
 3.9110	 4.6860
 3.9140	 4.6180
 3.9160	 4.6050
 3.9190	 4.6110
 3.9220	 4.6170
 3.9250	 4.6490
 3.9280	 4.6060
 3.9310	 4.6700
 3.9340	 4.7480
 3.9370	 4.7150
 3.9400	 4.5850
 3.9430	 4.5890
 3.9460	 4.5660
 3.9490	 4.5620
 3.9520	 4.6150
 3.9550	 4.7280
 3.9580	 4.6710
 3.9610	 4.6740
 3.9640	 4.7480
 3.9670	 4.7980
 3.9700	 4.7800
 3.9730	 4.8280
 3.9770	 4.7440
 3.9800	 4.5740
 3.9830	 4.5510
 3.9860	 4.7090
 3.9890	 4.7440
 3.9920	 4.6730
 3.9950	 4.5190
 3.9980	 4.4910
 4.0010	 4.5410
 4.0040	 4.5970
 4.0070	 4.6480
 4.0100	 4.6620
 4.0130	 4.6690
 4.0170	 4.7430
 4.0200	 4.6500
 4.0230	 4.6250
 4.0260	 4.7020
 4.0290	 4.6970
 4.0320	 4.7120
 4.0350	 4.8450
 4.0380	 4.7730
 4.0420	 4.6650
 4.0450	 4.6260
 4.0480	 4.5970
 4.0510	 4.6070
 4.0540	 4.6290
 4.0570	 4.7020
 4.0610	 4.8420
 4.0640	 4.7120
 4.0670	 4.6320
 4.0700	 4.6620
 4.0730	 4.7490
 4.0770	 4.7780
 4.0800	 4.7310
 4.0830	 4.6700
 4.0860	 4.6370
 4.0890	 4.6350
 4.0930	 4.5430
 4.0960	 4.5610
 4.0990	 4.5820
 4.1020	 4.6230
 4.1060	 4.7650
 4.1090	 4.6210
 4.1120	 4.5490
 4.1150	 4.7390
 4.1190	 4.8700
 4.1220	 4.8110
 4.1250	 4.7060
 4.1280	 4.7240
 4.1320	 4.7390
 4.1350	 4.7500
 4.1380	 4.7020
 4.1420	 4.5950
 4.1450	 4.5930
 4.1480	 4.5410
 4.1520	 4.5900
 4.1550	 4.6680
 4.1580	 4.6570
 4.1620	 4.6830
 4.1650	 4.7230
 4.1680	 4.7310
 4.1720	 4.7050
 4.1750	 4.7100
 4.1780	 4.7410
 4.1820	 4.7050
 4.1850	 4.6820
 4.1890	 4.7050
 4.1920	 4.7370
 4.1950	 4.6960
 4.1990	 4.6150
 4.2020	 4.5110
 4.2060	 4.4080
 4.2090	 4.2360
 4.2120	 4.1280
 4.2160	 4.1640
 4.2190	 4.2580
 4.2230	 4.3780
 4.2260	 4.2490
 4.2300	 3.9250
 4.2330	 3.7990
 4.2360	 3.9080
 4.2400	 4.0880
 4.2430	 3.9460
 4.2470	 3.9270
 4.2500	 4.2400
 4.2540	 4.4310
 4.2570	 4.3690
 4.2610	 3.9200
 4.2640	 3.4910
 4.2680	 3.0700
 4.2710	 2.9970
 4.2750	 3.6320
 4.2780	 3.9810
 4.2820	 4.3720
 4.2850	 4.3750
 4.2890	 4.2570
 4.2930	 4.3550
 4.2960	 4.5520
 4.3000	 4.5390
 4.3030	 4.5230
 4.3070	 4.3250
 4.3100	 4.2460
 4.3140	 4.3070
 4.3180	 4.3890
 4.3210	 4.3260
 4.3250	 4.2650
 4.3280	 4.2970
 4.3320	 4.2810
 4.3360	 4.3280
 4.3390	 4.4530
 4.3430	 4.5170
 4.3470	 4.4910
 4.3500	 4.5570
 4.3540	 4.6110
 4.3570	 4.5180
 4.3610	 4.3780
 4.3650	 4.4090
 4.3680	 4.4890
 4.3720	 4.5310
 4.3760	 4.5460
 4.3800	 4.5170
 4.3830	 4.4680
 4.3870	 4.4870
 4.3910	 4.5060
 4.3940	 4.3950
 4.3980	 4.4010
 4.4020	 4.4170
 4.4060	 4.4520
 4.4090	 4.5160
 4.4130	 4.5440
 4.4170	 4.4290
 4.4210	 4.3730
 4.4240	 4.4200
 4.4280	 4.5100
 4.4320	 4.5330
 4.4360	 4.4650
 4.4400	 4.4410
 4.4430	 4.3710
 4.4470	 4.3110
 4.4510	 4.5440
 4.4550	 4.6140
 4.4590	 4.4940
 4.4620	 4.3700
 4.4660	 4.4070
 4.4700	 4.4250
 4.4740	 4.4080
 4.4780	 4.4350
 4.4820	 4.5580
 4.4860	 4.5800
 4.4900	 4.5970
 4.4930	 4.5170
 4.4970	 4.3670
 4.5010	 4.4120
 4.5050	 4.5040
 4.5090	 4.4530
 4.5130	 4.4200
 4.5170	 4.3470
 4.5210	 4.3830
 4.5250	 4.3580
 4.5290	 4.3420
 4.5330	 4.4210
 4.5370	 4.4850
 4.5410	 4.4310
 4.5450	 4.4290
 4.5490	 4.4880
 4.5530	 4.5100
 4.5570	 4.3560
 4.5610	 4.3340
 4.5650	 4.3620
 4.5690	 4.3090
 4.5730	 4.3320
 4.5770	 4.3440
 4.5810	 4.3750
 4.5850	 4.3390
 4.5890	 4.2950
 4.5930	 4.3670
 4.5970	 4.2420
 4.6010	 4.1200
 4.6050	 4.1770
 4.6090	 4.0740
 4.6130	 4.0240
 4.6170	 4.2040
 4.6220	 4.3040
 4.6260	 4.2610
 4.6300	 4.2400
 4.6340	 4.3180
 4.6380	 4.3740
 4.6420	 4.4590
 4.6460	 4.5240
 4.6510	 4.5290
 4.6550	 4.4710
 4.6590	 4.3370
 4.6630	 4.3370
 4.6670	 4.3170
 4.6720	 4.2890
 4.6760	 4.3120
 4.6800	 4.1880
 4.6840	 4.3610
 4.6880	 4.5100
 4.6930	 4.3660
 4.6970	 4.2940
 4.7010	 4.3310
 4.7050	 4.4460
 4.7100	 4.5160
 4.7140	 4.5030
 4.7180	 4.4650
 4.7230	 4.4140
 4.7270	 4.2910
 4.7310	 4.2350
 4.7360	 4.2800
 4.7400	 4.3120
 4.7440	 4.3670
 4.7490	 4.2880
 4.7530	 4.3070
 4.7570	 4.3590
 4.7620	 4.3460
 4.7660	 4.2270
 4.7700	 4.1670
 4.7750	 4.2040
 4.7790	 4.2950
 4.7840	 4.1780
 4.7880	 3.7230
 4.7920	 3.8690
 4.7970	 4.2470
 4.8010	 4.3710
 4.8060	 4.3900
 4.8100	 4.3480
 4.8150	 4.3900
 4.8190	 4.5320
 4.8240	 4.4350
 4.8280	 4.2730
 4.8330	 4.1920
 4.8370	 4.1970
 4.8420	 4.2760
 4.8460	 4.4700
 4.8510	 4.4210
 4.8550	 4.3480
 4.8600	 4.3570
 4.8640	 4.4070
 4.8690	 4.3320
 4.8730	 4.3250
 4.8780	 4.3950
 4.8830	 4.3690
 4.8870	 4.3220
 4.8920	 4.2350
 4.8960	 4.2500
 4.9010	 4.4020
 4.9060	 4.3990
 4.9100	 4.3360
 4.9150	 4.2930
 4.9200	 4.3520
 4.9240	 4.3270
 4.9290	 4.2790
 4.9340	 4.2900
 4.9380	 4.3530
 4.9430	 4.3290
 4.9480	 4.3220
 4.9530	 4.3610
 4.9570	 4.4280
 4.9620	 4.4410
 4.9670	 4.3520
 4.9720	 4.3310
 4.9760	 4.3600
 4.9810	 4.3560
 4.9860	 4.3950
 4.9910	 4.3560
 4.9960	 4.4560
 5.0000	 4.4570
 5.0050	 4.4970
 5.0100	 4.4530
 5.0150	 4.3500
 5.0200	 4.2660
 5.0250	 4.3130
 5.0290	 4.3750
 5.0340	 4.3240
 5.0390	 4.4230
 5.0440	 4.5060
 5.0490	 4.4040
 5.0540	 4.3680
 5.0590	 4.3530
 5.0640	 4.3520
 5.0690	 4.3340
 5.0740	 4.3390
 5.0790	 4.3680
 5.0840	 4.4360
 5.0890	 4.4120
 5.0940	 4.4270
 5.0990	 4.3720
 5.1040	 4.2860
 5.1090	 4.3310
 5.1140	 4.3720
 5.1190	 4.2720
 5.1240	 4.2770
 5.1290	 4.2830
 5.1340	 4.3910
 5.1390	 4.4190
 5.1440	 4.4750
 5.1490	 4.3970
 5.1540	 4.3270
 5.1600	 4.4050
 5.1650	 4.5090
 5.1700	 4.4930
 5.1750	 4.6120
 5.1800	 4.5690
 5.1850	 4.5130
 5.1910	 4.4950
 5.1960	 4.4860
 5.2010	 4.4730
 5.2060	 4.3860
 5.2110	 4.4090
 5.2170	 4.4190
 5.2220	 4.3580
 5.2270	 4.4210
 5.2320	 4.5280
 5.2380	 4.6750
 5.2430	 4.5950
 5.2480	 4.5360
 5.2540	 4.4850
 5.2590	 4.4370
 5.2640	 4.4590
 5.2700	 4.4820
 5.2750	 4.4220
 5.2800	 4.3550
 5.2860	 4.3560
 5.2910	 4.3260
 5.2970	 4.3520
 5.3020	 4.4080
 5.3070	 4.3420
 5.3130	 4.2630
 5.3180	 4.3750
 5.3240	 4.4460
 5.3290	 4.3180
 5.3350	 4.2750
 5.3400	 4.2880
 5.3460	 4.4100
 5.3510	 4.4490
 5.3570	 4.4270
 5.3620	 4.4340
 5.3680	 4.4360
 5.3730	 4.3070
 5.3790	 4.3190
 5.3850	 4.3700
 5.3900	 4.4230
 5.3960	 4.4010
 5.4010	 4.4570
 5.4070	 4.4210
 5.4130	 4.3550
 5.4180	 4.2940
 5.4240	 4.2850
 5.4300	 4.1830
 5.4350	 4.1760
 5.4410	 4.2030
 5.4470	 4.2490
 5.4530	 4.3560
 5.4580	 4.3530
 5.4640	 4.3650
 5.4700	 4.2670
 5.4760	 4.1940
 5.4810	 4.3490
 5.4870	 4.4110
 5.4930	 4.3330
 5.4990	 4.2110
 5.5050	 4.1920
 5.5110	 4.2410
 5.5160	 4.1990
 5.5220	 4.1300
 5.5280	 4.2030
 5.5340	 4.1630
 5.5400	 4.0400
 5.5460	 4.1070
 5.5520	 4.2470
 5.5580	 4.1480
 5.5640	 4.1300
 5.5700	 4.1530
 5.5760	 4.1860
 5.5820	 4.1230
 5.5880	 4.0910
 5.5940	 3.9420
 5.6000	 3.8740
 5.6060	 3.9730
 5.6120	 3.9930
 5.6180	 3.9200
 5.6240	 3.9320
 5.6300	 3.8800
 5.6360	 3.8370
 5.6420	 3.8110
 5.6490	 3.8420
 5.6550	 3.7030
 5.6610	 3.7640
 5.6670	 3.8020
 5.6730	 3.7580
 5.6800	 3.5160
 5.6860	 3.4560
 5.6920	 3.5160
 5.6980	 3.5290
 5.7040	 3.5310
 5.7110	 3.4910
 5.7170	 3.3350
 5.7230	 3.2240
 5.7300	 3.0380
 5.7360	 3.0200
 5.7420	 3.1180
 5.7490	 3.1990
 5.7550	 3.2090
 5.7620	 3.4080
 5.7680	 3.6590
 5.7740	 3.8670
 5.7810	 3.9900
 5.7870	 4.1300
 5.7940	 4.2070
 5.8000	 4.3090
 5.8070	 4.3630
 5.8130	 4.4670
 5.8200	 4.5480
 5.8260	 4.5990
 5.8330	 4.5820
 5.8390	 4.6560
 5.8460	 4.7210
 5.8530	 4.8420
 5.8590	 4.7870
 5.8660	 4.9010
 5.8720	 4.8800
 5.8790	 4.9260
 5.8860	 4.8910
 5.8920	 4.9000
 5.8990	 4.9610
 5.9060	 5.0150
 5.9130	 5.0910
 5.9190	 5.1700
 5.9260	 5.0540
 5.9330	 5.1900
 5.9400	 5.2360
 5.9470	 5.2340
 5.9530	 5.1740
 5.9600	 5.2490
 5.9670	 5.2580
 5.9740	 5.2710
 5.9810	 5.1750
 5.9880	 5.2300
 5.9950	 5.2400
 6.0020	 5.1740
 6.0090	 5.2480
 6.0160	 5.4050
 6.0230	 5.3780
 6.0300	 5.3720
 6.0370	 5.2960
 6.0440	 5.2670
 6.0510	 5.2540
 6.0580	 5.3720
 6.0650	 5.3980
 6.0720	 5.4660
 6.0790	 5.3180
 6.0860	 5.3280
 6.0930	 5.3210
 6.1000	 5.3400
 6.1080	 5.4720
 6.1150	 5.5270
 6.1220	 5.2960
 6.1290	 5.2680
 6.1370	 5.2340
 6.1440	 5.2330
 6.1510	 5.2380
 6.1580	 5.2420
 6.1660	 5.0040
 6.1730	 4.8430
 6.1800	 4.7950
 6.1880	 4.9800
 6.1950	 5.0850
 6.2030	 5.0870
 6.2100	 5.1190
 6.2170	 5.2500
 6.2250	 5.2970
 6.2320	 5.2290
 6.2400	 5.0710
 6.2470	 5.0900
 6.2550	 4.9780
 6.2630	 5.0280
 6.2700	 5.1440
 6.2780	 5.1900
 6.2850	 4.9890
 6.2930	 5.1040
 6.3010	 5.2330
 6.3080	 5.2990
 6.3160	 5.0760
 6.3240	 4.9550
 6.3310	 4.9240
 6.3390	 4.9490
 6.3470	 4.9730
 6.3550	 5.0270
 6.3620	 5.0550
 6.3700	 5.0420
 6.3780	 4.9800
 6.3860	 4.9630
 6.3940	 4.8030
 6.4020	 4.8200
 6.4100	 4.8160
 6.4180	 4.8880
 6.4260	 4.9100
 6.4330	 4.9080
 6.4410	 4.8550
 6.4490	 4.8390
 6.4580	 4.6860
 6.4660	 4.7510
 6.4740	 4.8090
 6.4820	 4.8510
 6.4900	 4.7430
 6.4980	 4.7310
 6.5060	 4.7540
 6.5140	 4.7460
 6.5230	 4.5150
 6.5310	 4.5280
 6.5390	 4.5060
 6.5470	 4.5850
 6.5550	 4.5100
 6.5640	 4.4570
 6.5720	 4.3200
 6.5800	 4.4020
 6.5890	 4.4770
 6.5970	 4.7160
 6.6060	 4.8120
 6.6140	 5.0740
 6.6220	 5.1440
 6.6310	 5.1400
 6.6390	 5.1050
 6.6480	 5.0810
 6.6560	 4.9920
 6.6650	 5.0420
 6.6740	 5.0370
 6.6820	 5.0860
 6.6910	 4.8300
 6.6990	 4.7740
 6.7080	 4.7820
 6.7170	 4.8440
 6.7260	 4.7960
 6.7340	 4.7250
 6.7430	 4.5670
 6.7520	 4.7120
 6.7610	 4.6940
 6.7690	 4.6530
 6.7780	 4.6150
 6.7870	 4.6170
 6.7960	 4.4340
 6.8050	 4.3650
 6.8140	 4.4150
 6.8230	 4.5970
 6.8320	 4.6990
 6.8410	 4.7550
 6.8500	 4.7580
 6.8590	 4.9160
 6.8680	 4.9420
 6.8770	 5.1990
 6.8860	 5.2830
 6.8950	 5.2060
 6.9050	 5.0890
 6.9140	 5.2720
 6.9230	 5.4190
 6.9320	 5.4900
 6.9420	 5.3700
 6.9510	 5.4090
 6.9600	 5.3970
 6.9700	 5.4360
 6.9790	 5.4230
 6.9880	 5.5610
 6.9980	 5.4270
 7.0070	 5.2810
 7.0170	 5.1800
 7.0260	 5.2370
 7.0360	 5.2030
 7.0450	 5.2680
 7.0550	 5.1310
 7.0650	 5.0670
 7.0740	 4.9120
 7.0840	 4.9270
 7.0940	 4.9840
 7.1030	 5.1830
 7.1130	 5.1520
 7.1230	 5.1160
 7.1330	 5.0410
 7.1420	 5.0030
 7.1520	 4.8600
 7.1620	 5.0190
 7.1720	 4.9820
 7.1820	 4.9810
 7.1920	 4.9660
 7.2020	 4.9520
 7.2120	 4.9190
 7.2220	 4.9790
 7.2320	 4.9150
 7.2420	 5.0550
 7.2520	 5.0000
 7.2620	 4.8970
 7.2730	 4.9310
 7.2830	 5.1210
 7.2930	 4.9850
 7.3030	 4.9840
 7.3140	 4.8890
 7.3240	 4.9070
 7.3340	 4.8690
 7.3450	 4.9300
 7.3550	 4.9520
 7.3660	 5.1150
 7.3760	 5.1440
 7.3870	 5.2880
 7.3970	 5.1430
 7.4080	 5.1860
 7.4180	 5.2010
 7.4290	 5.2460
 7.4400	 5.2770
 7.4500	 5.6230
 7.4610	 5.6510
 7.4720	 5.6340
 7.4830	 5.5030
 7.4930	 5.4960
 7.5040	 5.4410
 7.5150	 5.4510
 7.5260	 5.4290
 7.5370	 5.4460
 7.5480	 5.3170
 7.5590	 5.4650
 7.5700	 5.4420
 7.5810	 5.6180
 7.5920	 5.5510
 7.6030	 5.5270
 7.6140	 5.5710
 7.6260	 5.6540
 7.6370	 5.5380
 7.6480	 5.3360
 7.6590	 5.1630
 7.6710	 5.2270
 7.6820	 5.1950
 7.6930	 5.3150
 7.7050	 5.2060
 7.7160	 5.2120
 7.7280	 5.1530
 7.7390	 5.2380
 7.7510	 5.2100
 7.7630	 5.2080
 7.7740	 5.1080
 7.7860	 5.1350
 7.7980	 5.0230
 7.8090	 5.0840
 7.8210	 5.1480
 7.8330	 5.2920
 7.8450	 5.1270
 7.8570	 4.9870
 7.8690	 4.9390
 7.8810	 5.2280
 7.8930	 5.3280
 7.9050	 5.2090
 7.9170	 5.0570
 7.9290	 5.3890
 7.9410	 5.3990
 7.9530	 5.4230
 7.9650	 5.2020
 7.9780	 5.1840
 7.9900	 5.2230
 8.0020	 5.3680
 8.0150	 5.3470
 8.0270	 5.4090
 8.0390	 5.3930
 8.0520	 5.6250
 8.0640	 5.4720
 8.0770	 5.4340
 8.0900	 5.3100
 8.1020	 5.4500
 8.1150	 5.5300
 8.1280	 5.7020
 8.1400	 5.6380
 8.1530	 5.6610
 8.1660	 5.4630
 8.1790	 5.7150
 8.1920	 5.8140
 8.2050	 5.9460
 8.2180	 5.8450
 8.2310	 5.8840
 8.2440	 5.7850
 8.2570	 5.9570
 8.2700	 5.8090
 8.2830	 5.8320
 8.2970	 5.7630
 8.3100	 5.8320
 8.3230	 5.8160
 8.3370	 5.8060
 8.3500	 5.5900
 8.3640	 5.6900
 8.3770	 5.5980
 8.3910	 5.8760
 8.4040	 5.9080
 8.4180	 6.0290
 8.4320	 5.9540
 8.4450	 6.0510
 8.4590	 5.7540
 8.4730	 5.8610
 8.4870	 5.8980
 8.5010	 6.0320
 8.5150	 5.9480
 8.5290	 6.2830
 8.5430	 6.3380
 8.5570	 6.5780
 8.5710	 6.5180
 8.5850	 6.5170
 8.5990	 6.3120
 8.6140	 6.3140
 8.6280	 6.0350
 8.6420	 5.9470
 8.6570	 5.8860
 8.6710	 5.9550
 8.6860	 5.8150
 8.7000	 5.8780
 8.7150	 5.5700
 8.7300	 5.7940
 8.7440	 6.0260
 8.7590	 6.0650
 8.7740	 5.7990
 8.7890	 6.1110
 8.8040	 6.2360
 8.8190	 6.2430
 8.8340	 5.8630
 8.8490	 5.8050
 8.8640	 5.7330
 8.8790	 5.8170
 8.8940	 5.5370
 8.9100	 5.5030
 8.9250	 5.2160
 8.9400	 5.1890
 8.9560	 5.2380
 8.9710	 5.3090
 8.9870	 5.1180
 9.0020	 5.1280
 9.0180	 4.9600
 9.0340	 4.8010
 9.0500	 4.4920
 9.0650	 4.6850
 9.0810	 4.5440
 9.0970	 4.7250
 9.1130	 4.6320
 9.1290	 4.7290
 9.1450	 4.4910
 9.1610	 4.6130
 9.1780	 4.6580
 9.1940	 4.7080
 9.2100	 4.6240
 9.2270	 4.8240
 9.2430	 4.5190
 9.2600	 4.6280
 9.2760	 4.5300
 9.2930	 4.8230
 9.3090	 4.5930
 9.3260	 4.4750
 9.3430	 4.3710
 9.3600	 4.4310
 9.3770	 4.3110
 9.3940	 4.3980
 9.4110	 4.1110
 9.4280	 4.3690
 9.4450	 4.1750
 9.4620	 4.4580
 9.4800	 4.5510
 9.4970	 4.6620
 9.5140	 4.3770
 9.5320	 4.6200
 9.5500	 4.6100
 9.5670	 4.8670
 9.5850	 4.9940
 9.6030	 5.1240
 9.6200	 4.8470
 9.6380	 4.9800
 9.6560	 4.9730
 9.6740	 5.1250
 9.6920	 4.9200
 9.7100	 4.8770
 9.7290	 4.5910
 9.7470	 4.8840
 9.7650	 4.9280
 9.7840	 5.0090
 9.8020	 4.8980
 9.8210	 4.9870
 9.8390	 4.6820
 9.8580	 4.7680
 9.8770	 4.7900
 9.8960	 4.9920
 9.9150	 4.9510
 9.9340	 5.1790
 9.9530	 5.0290
 9.9720	 5.0960
 9.9910	 5.0010
10.0100	 5.2350
10.0300	 5.1630
10.0490	 5.3040
10.0690	 5.2310
10.0880	 5.5040
10.1080	 5.4160
10.1280	 5.3190
10.1480	 5.0200
10.1670	 5.2290
10.1870	 5.3880
10.2070	 5.6200
10.2280	 5.5380
10.2480	 5.6550
10.2680	 5.4520
10.2890	 5.7300
10.3090	 5.6330
10.3300	 5.7490
10.3500	 5.6590
10.3710	 5.7310
10.3920	 5.6330
10.4120	 5.7500
10.4330	 5.7000
10.4540	 5.7880
10.4760	 5.7900
10.4970	 6.1110
10.5180	 5.8870
10.5390	 5.9350
10.5610	 5.8400
10.5820	 6.0830
10.6040	 6.0830
10.6260	 6.2910
10.6480	 6.1170
10.6700	 6.1740
10.6920	 6.2100
10.7140	 6.5730
10.7360	 6.4600
10.7580	 6.6330
10.7800	 6.5080
10.8030	 6.4900
10.8250	 6.2190
10.8480	 6.4210
10.8710	 6.4270
10.8940	 6.5220
10.9170	 6.4790
10.9400	 6.8100
10.9630	 6.6690
10.9860	 6.7950
11.0090	 6.5330
11.0330	 6.5700
11.0560	 6.3890
11.0800	 6.4530
11.1040	 5.9450
11.1270	 6.1110
11.1510	 6.1870
11.1750	 6.3700
11.2000	 6.2760
11.2240	 6.5360
11.2480	 6.8140
11.2730	 7.0270
11.2970	 7.3810
11.3220	 7.5740
11.3470	 6.7900
11.3720	 6.8230
11.3970	 6.6350
11.4220	 6.8090
11.4470	 6.6750
11.4720	 6.8660
11.4980	 6.6940
11.5230	 6.8360
11.5490	 6.6340
11.5750	 6.7440
11.6000	 6.4030
11.6260	 6.2760
11.6530	 6.1130
11.6790	 6.3960
11.7050	 6.1230
11.7320	 6.4480
11.7580	 6.4560
11.7850	 6.5700
11.8120	 6.3490
11.8390	 6.3630
11.8660	 6.2940
11.8930	 6.2990
11.9200	 6.1800
11.9480	 6.4540
11.9760	 6.3120
12.0030	 6.4180
12.0310	 6.3150
12.0590	 6.4690
12.0870	 6.0620
12.1150	 6.2200
12.1440	 6.0480
12.1720	 6.1270
12.2010	 5.9460
12.2300	 6.2870
12.2590	 6.1120
12.2880	 6.3780
12.3170	 6.0100
12.3460	 6.1400
12.3760	 5.8740
12.4050	 6.0030
12.4350	 5.9040
12.4650	 5.9800
12.4950	 5.5620
12.5250	 5.8690
12.5550	 5.7380
12.5860	 5.8300
12.6170	 5.8260
12.6470	 6.1850
12.6780	 5.6910
12.7090	 5.9530
12.7410	 5.7450
12.7720	 5.8940
12.8030	 5.7140
12.8350	 5.8370
12.8670	 5.4280
12.8990	 5.4820
12.9310	 5.4520
12.9640	 5.8280
12.9960	 5.5210
13.0290	 5.5210
13.0610	 4.9400
13.0940	 5.1710
13.1280	 5.2230
13.1610	 5.7130
13.1940	 5.3690
13.2280	 5.1590
13.2620	 4.8730
13.2960	 5.2400
13.3300	 4.8740
13.3640	 5.2150
13.3990	 4.9900
13.4340	 5.1250
13.4690	 4.7120
13.5040	 5.0030
13.5390	 4.5320
13.5740	 4.7340
13.6100	 4.4690
13.6460	 4.7090
13.6820	 4.5880
13.7180	 4.8550
13.7540	 4.0010
13.7910	 4.2270
13.8280	 4.2370
13.8650	 4.6020
13.9020	 4.4350
13.9390	 4.7940
13.9770	 4.4490
14.0150	 4.6590
14.0530	 4.5990
14.0910	 4.7910
14.1290	 4.3630
14.1680	 4.6480
14.2070	 4.2230
14.2460	 4.3900
14.2850	 4.1450
14.3240	 4.4090
14.3640	 3.5590
14.4040	 3.6270
14.4440	 3.4570
14.4840	 4.0390
14.5250	 3.4060
14.5660	 3.5330
14.6070	 3.1030
14.6480	 3.0290
14.6900	 2.7300
14.7310	 3.6910
14.7730	 3.4800
14.8150	 3.6690
14.8580	 3.0640
14.9010	 4.4720
14.9440	 7.9140
14.9870	 8.7910
15.0300	 3.6450
15.0740	 3.4590
15.1180	 2.4910
15.1620	 3.1910
15.2060	 3.1070
15.2510	 4.1670
15.2960	 3.3360
15.3410	 3.4310
15.3870	 2.9300
