Name: Phyllostachys vivax
Type: vegetation
Class: Tree
Genus: Phyllostachys
Species: vivax
Sample No.: JPL126
Owner: JPL
Wavelength Range: VSWIR
Origin: 34.12505; -118.11546;; WGS84
Collection Date: 9/7/2016
Description: Samples were collected at the Huntington Garden in San Marino California as part of a JPL Subcontract studying HyTES imagery. Samples were taken to JPL and processed within 48 hours of collection. The same leaves were processed in the Nicolet and then measured using the ASD.
Measurement: Bidirectional reflectance
First Column: X
Second Column: Y
X Units: Wavelength (micrometer)
Y Units: Reflectance (percentage)
First X Value: 0.35
Last X Value: 2.5
Number of X Values: 2151
Additional Information: vegetation.tree.phyllostachys.vivax.vswir.jpl126.jpl.asd.ancillary.txt

 0.3500	 9.6660
 0.3510	 9.4460
 0.3520	 9.4300
 0.3530	 9.5140
 0.3540	 9.5310
 0.3550	 9.4370
 0.3560	 9.3850
 0.3570	 9.3990
 0.3580	 9.4240
 0.3590	 9.3530
 0.3600	 9.3040
 0.3610	 9.3230
 0.3620	 9.3220
 0.3630	 9.3780
 0.3640	 9.3850
 0.3650	 9.2680
 0.3660	 9.2400
 0.3670	 9.2480
 0.3680	 9.2560
 0.3690	 9.2500
 0.3700	 9.2500
 0.3710	 9.2620
 0.3720	 9.2770
 0.3730	 9.2530
 0.3740	 9.2570
 0.3750	 9.2500
 0.3760	 9.1940
 0.3770	 9.1800
 0.3780	 9.2250
 0.3790	 9.2760
 0.3800	 9.2310
 0.3810	 9.2240
 0.3820	 9.1990
 0.3830	 9.1350
 0.3840	 9.1570
 0.3850	 9.1770
 0.3860	 9.1770
 0.3870	 9.1660
 0.3880	 9.1700
 0.3890	 9.1970
 0.3900	 9.2270
 0.3910	 9.2180
 0.3920	 9.2010
 0.3930	 9.2070
 0.3940	 9.2340
 0.3950	 9.1830
 0.3960	 9.1810
 0.3970	 9.2040
 0.3980	 9.1710
 0.3990	 9.1640
 0.4000	 9.1710
 0.4010	 9.1720
 0.4020	 9.1520
 0.4030	 9.1480
 0.4040	 9.1610
 0.4050	 9.1780
 0.4060	 9.1760
 0.4070	 9.1880
 0.4080	 9.2120
 0.4090	 9.2230
 0.4100	 9.2300
 0.4110	 9.2360
 0.4120	 9.2430
 0.4130	 9.2510
 0.4140	 9.2630
 0.4150	 9.2670
 0.4160	 9.2540
 0.4170	 9.2620
 0.4180	 9.2620
 0.4190	 9.2540
 0.4200	 9.2670
 0.4210	 9.2670
 0.4220	 9.2600
 0.4230	 9.2580
 0.4240	 9.2630
 0.4250	 9.2630
 0.4260	 9.2540
 0.4270	 9.2420
 0.4280	 9.2440
 0.4290	 9.2440
 0.4300	 9.2340
 0.4310	 9.2190
 0.4320	 9.1940
 0.4330	 9.1660
 0.4340	 9.1400
 0.4350	 9.1240
 0.4360	 9.1220
 0.4370	 9.1320
 0.4380	 9.1530
 0.4390	 9.1760
 0.4400	 9.2020
 0.4410	 9.2280
 0.4420	 9.2460
 0.4430	 9.2560
 0.4440	 9.2610
 0.4450	 9.2630
 0.4460	 9.2660
 0.4470	 9.2690
 0.4480	 9.2740
 0.4490	 9.2810
 0.4500	 9.2880
 0.4510	 9.2920
 0.4520	 9.2910
 0.4530	 9.3000
 0.4540	 9.3060
 0.4550	 9.3070
 0.4560	 9.3090
 0.4570	 9.3110
 0.4580	 9.3120
 0.4590	 9.3150
 0.4600	 9.3230
 0.4610	 9.3240
 0.4620	 9.3210
 0.4630	 9.3250
 0.4640	 9.3250
 0.4650	 9.3220
 0.4660	 9.3230
 0.4670	 9.3320
 0.4680	 9.3310
 0.4690	 9.3260
 0.4700	 9.3270
 0.4710	 9.3340
 0.4720	 9.3420
 0.4730	 9.3450
 0.4740	 9.3420
 0.4750	 9.3440
 0.4760	 9.3500
 0.4770	 9.3550
 0.4780	 9.3550
 0.4790	 9.3590
 0.4800	 9.3630
 0.4810	 9.3580
 0.4820	 9.3490
 0.4830	 9.3380
 0.4840	 9.3290
 0.4850	 9.3310
 0.4860	 9.3260
 0.4870	 9.3210
 0.4880	 9.3230
 0.4890	 9.3350
 0.4900	 9.3450
 0.4910	 9.3550
 0.4920	 9.3700
 0.4930	 9.3900
 0.4940	 9.4120
 0.4950	 9.4330
 0.4960	 9.4600
 0.4970	 9.4840
 0.4980	 9.5090
 0.4990	 9.5400
 0.5000	 9.5750
 0.5010	 9.6130
 0.5020	 9.6560
 0.5030	 9.6990
 0.5040	 9.7430
 0.5050	 9.7970
 0.5060	 9.8650
 0.5070	 9.9320
 0.5080	10.0090
 0.5090	10.0940
 0.5100	10.1860
 0.5110	10.2900
 0.5120	10.4090
 0.5130	10.5400
 0.5140	10.6780
 0.5150	10.8250
 0.5160	10.9830
 0.5170	11.1550
 0.5180	11.3360
 0.5190	11.5230
 0.5200	11.7150
 0.5210	11.9130
 0.5220	12.1130
 0.5230	12.3100
 0.5240	12.5030
 0.5250	12.6930
 0.5260	12.8750
 0.5270	13.0460
 0.5280	13.2030
 0.5290	13.3460
 0.5300	13.4780
 0.5310	13.6010
 0.5320	13.7090
 0.5330	13.8040
 0.5340	13.8880
 0.5350	13.9590
 0.5360	14.0150
 0.5370	14.0620
 0.5380	14.1000
 0.5390	14.1190
 0.5400	14.1180
 0.5410	14.1010
 0.5420	14.0770
 0.5430	14.0640
 0.5440	14.0740
 0.5450	14.1080
 0.5460	14.1590
 0.5470	14.2150
 0.5480	14.2660
 0.5490	14.3010
 0.5500	14.3180
 0.5510	14.3250
 0.5520	14.3270
 0.5530	14.3230
 0.5540	14.3120
 0.5550	14.2870
 0.5560	14.2480
 0.5570	14.1940
 0.5580	14.1230
 0.5590	14.0410
 0.5600	13.9490
 0.5610	13.8450
 0.5620	13.7330
 0.5630	13.6190
 0.5640	13.5010
 0.5650	13.3820
 0.5660	13.2610
 0.5670	13.1420
 0.5680	13.0260
 0.5690	12.9030
 0.5700	12.7780
 0.5710	12.6570
 0.5720	12.5410
 0.5730	12.4290
 0.5740	12.3230
 0.5750	12.2260
 0.5760	12.1310
 0.5770	12.0390
 0.5780	11.9480
 0.5790	11.8540
 0.5800	11.7720
 0.5810	11.7030
 0.5820	11.6420
 0.5830	11.5870
 0.5840	11.5350
 0.5850	11.4840
 0.5860	11.4390
 0.5870	11.3930
 0.5880	11.3560
 0.5890	11.3360
 0.5900	11.3170
 0.5910	11.2940
 0.5920	11.2650
 0.5930	11.2360
 0.5940	11.2170
 0.5950	11.2050
 0.5960	11.1920
 0.5970	11.1720
 0.5980	11.1480
 0.5990	11.1230
 0.6000	11.0990
 0.6010	11.0770
 0.6020	11.0540
 0.6030	11.0270
 0.6040	10.9980
 0.6050	10.9650
 0.6060	10.9270
 0.6070	10.8860
 0.6080	10.8370
 0.6090	10.7670
 0.6100	10.6680
 0.6110	10.5500
 0.6120	10.5050
 0.6130	10.5030
 0.6140	10.5060
 0.6150	10.4840
 0.6160	10.4570
 0.6170	10.4270
 0.6180	10.3940
 0.6190	10.3570
 0.6200	10.3220
 0.6210	10.2920
 0.6220	10.2720
 0.6230	10.2550
 0.6240	10.2410
 0.6250	10.2290
 0.6260	10.2190
 0.6270	10.2120
 0.6280	10.2050
 0.6290	10.1940
 0.6300	10.1800
 0.6310	10.1700
 0.6320	10.1640
 0.6330	10.1600
 0.6340	10.1470
 0.6350	10.1280
 0.6360	10.1040
 0.6370	10.0730
 0.6380	10.0390
 0.6390	10.0030
 0.6400	 9.9640
 0.6410	 9.9250
 0.6420	 9.8840
 0.6430	 9.8440
 0.6440	 9.8060
 0.6450	 9.7710
 0.6460	 9.7380
 0.6470	 9.7080
 0.6480	 9.6830
 0.6490	 9.6620
 0.6500	 9.6460
 0.6510	 9.6330
 0.6520	 9.6280
 0.6530	 9.6250
 0.6540	 9.6210
 0.6550	 9.6170
 0.6560	 9.6120
 0.6570	 9.6060
 0.6580	 9.6000
 0.6590	 9.5890
 0.6600	 9.5790
 0.6610	 9.5710
 0.6620	 9.5620
 0.6630	 9.5550
 0.6640	 9.5500
 0.6650	 9.5490
 0.6660	 9.5530
 0.6670	 9.5580
 0.6680	 9.5640
 0.6690	 9.5740
 0.6700	 9.5910
 0.6710	 9.6100
 0.6720	 9.6300
 0.6730	 9.6510
 0.6740	 9.6770
 0.6750	 9.7070
 0.6760	 9.7360
 0.6770	 9.7680
 0.6780	 9.8030
 0.6790	 9.8410
 0.6800	 9.8830
 0.6810	 9.9250
 0.6820	 9.9690
 0.6830	10.0170
 0.6840	10.0620
 0.6850	10.1090
 0.6860	10.1610
 0.6870	10.2180
 0.6880	10.2880
 0.6890	10.3740
 0.6900	10.4820
 0.6910	10.6230
 0.6920	10.7970
 0.6930	11.0110
 0.6940	11.2730
 0.6950	11.5960
 0.6960	11.9760
 0.6970	12.4110
 0.6980	12.9030
 0.6990	13.4480
 0.7000	14.0400
 0.7010	14.6700
 0.7020	15.3320
 0.7030	16.0160
 0.7040	16.7180
 0.7050	17.4320
 0.7060	18.1530
 0.7070	18.8760
 0.7080	19.6010
 0.7090	20.3320
 0.7100	21.0630
 0.7110	21.7930
 0.7120	22.5210
 0.7130	23.2480
 0.7140	23.9730
 0.7150	24.6960
 0.7160	25.4140
 0.7170	26.1300
 0.7180	26.8390
 0.7190	27.5420
 0.7200	28.2390
 0.7210	28.9260
 0.7220	29.6040
 0.7230	30.2700
 0.7240	30.9250
 0.7250	31.5650
 0.7260	32.1890
 0.7270	32.7950
 0.7280	33.3840
 0.7290	33.9550
 0.7300	34.5060
 0.7310	35.0350
 0.7320	35.5450
 0.7330	36.0360
 0.7340	36.5050
 0.7350	36.9520
 0.7360	37.3770
 0.7370	37.7800
 0.7380	38.1610
 0.7390	38.5210
 0.7400	38.8590
 0.7410	39.1780
 0.7420	39.4760
 0.7430	39.7520
 0.7440	40.0090
 0.7450	40.2460
 0.7460	40.4630
 0.7470	40.6650
 0.7480	40.8500
 0.7490	41.0190
 0.7500	41.1710
 0.7510	41.3090
 0.7520	41.4370
 0.7530	41.5540
 0.7540	41.6610
 0.7550	41.7550
 0.7560	41.8390
 0.7570	41.9170
 0.7580	41.9840
 0.7590	42.0450
 0.7600	42.1020
 0.7610	42.1520
 0.7620	42.1960
 0.7630	42.2360
 0.7640	42.2720
 0.7650	42.3020
 0.7660	42.3280
 0.7670	42.3490
 0.7680	42.3690
 0.7690	42.3850
 0.7700	42.4000
 0.7710	42.4120
 0.7720	42.4220
 0.7730	42.4320
 0.7740	42.4390
 0.7750	42.4440
 0.7760	42.4510
 0.7770	42.4570
 0.7780	42.4610
 0.7790	42.4660
 0.7800	42.4690
 0.7810	42.4700
 0.7820	42.4710
 0.7830	42.4720
 0.7840	42.4720
 0.7850	42.4710
 0.7860	42.4700
 0.7870	42.4660
 0.7880	42.4620
 0.7890	42.4590
 0.7900	42.4560
 0.7910	42.4500
 0.7920	42.4440
 0.7930	42.4380
 0.7940	42.4270
 0.7950	42.4180
 0.7960	42.4090
 0.7970	42.4000
 0.7980	42.3910
 0.7990	42.3770
 0.8000	42.3620
 0.8010	42.3500
 0.8020	42.3370
 0.8030	42.3220
 0.8040	42.3060
 0.8050	42.2920
 0.8060	42.2790
 0.8070	42.2630
 0.8080	42.2430
 0.8090	42.2230
 0.8100	42.2060
 0.8110	42.1890
 0.8120	42.1700
 0.8130	42.1520
 0.8140	42.1360
 0.8150	42.1160
 0.8160	42.0920
 0.8170	42.0720
 0.8180	42.0540
 0.8190	42.0360
 0.8200	42.0160
 0.8210	41.9940
 0.8220	41.9740
 0.8230	41.9550
 0.8240	41.9350
 0.8250	41.9160
 0.8260	41.8970
 0.8270	41.8760
 0.8280	41.8550
 0.8290	41.8340
 0.8300	41.8150
 0.8310	41.7980
 0.8320	41.7820
 0.8330	41.7660
 0.8340	41.7490
 0.8350	41.7330
 0.8360	41.7170
 0.8370	41.7000
 0.8380	41.6840
 0.8390	41.6720
 0.8400	41.6600
 0.8410	41.6460
 0.8420	41.6330
 0.8430	41.6250
 0.8440	41.6110
 0.8450	41.6000
 0.8460	41.5940
 0.8470	41.5840
 0.8480	41.5730
 0.8490	41.5650
 0.8500	41.5590
 0.8510	41.5530
 0.8520	41.5480
 0.8530	41.5420
 0.8540	41.5350
 0.8550	41.5310
 0.8560	41.5270
 0.8570	41.5230
 0.8580	41.5200
 0.8590	41.5210
 0.8600	41.5220
 0.8610	41.5230
 0.8620	41.5240
 0.8630	41.5230
 0.8640	41.5240
 0.8650	41.5260
 0.8660	41.5270
 0.8670	41.5290
 0.8680	41.5350
 0.8690	41.5460
 0.8700	41.5450
 0.8710	41.5460
 0.8720	41.5510
 0.8730	41.5600
 0.8740	41.5660
 0.8750	41.5710
 0.8760	41.5780
 0.8770	41.5880
 0.8780	41.5990
 0.8790	41.6070
 0.8800	41.6150
 0.8810	41.6270
 0.8820	41.6330
 0.8830	41.6380
 0.8840	41.6500
 0.8850	41.6610
 0.8860	41.6730
 0.8870	41.6830
 0.8880	41.6890
 0.8890	41.6970
 0.8900	41.7100
 0.8910	41.7220
 0.8920	41.7280
 0.8930	41.7360
 0.8940	41.7450
 0.8950	41.7560
 0.8960	41.7690
 0.8970	41.7800
 0.8980	41.7900
 0.8990	41.8020
 0.9000	41.8110
 0.9010	41.8190
 0.9020	41.8290
 0.9030	41.8400
 0.9040	41.8430
 0.9050	41.8540
 0.9060	41.8660
 0.9070	41.8740
 0.9080	41.8780
 0.9090	41.8850
 0.9100	41.8930
 0.9110	41.8960
 0.9120	41.9010
 0.9130	41.9070
 0.9140	41.9130
 0.9150	41.9180
 0.9160	41.9210
 0.9170	41.9220
 0.9180	41.9230
 0.9190	41.9260
 0.9200	41.9240
 0.9210	41.9220
 0.9220	41.9210
 0.9230	41.9200
 0.9240	41.9220
 0.9250	41.9200
 0.9260	41.9140
 0.9270	41.9100
 0.9280	41.9050
 0.9290	41.8980
 0.9300	41.8900
 0.9310	41.8840
 0.9320	41.8770
 0.9330	41.8680
 0.9340	41.8590
 0.9350	41.8540
 0.9360	41.8420
 0.9370	41.8300
 0.9380	41.8210
 0.9390	41.8070
 0.9400	41.7970
 0.9410	41.7870
 0.9420	41.7730
 0.9430	41.7590
 0.9440	41.7400
 0.9450	41.7230
 0.9460	41.7100
 0.9470	41.6920
 0.9480	41.6710
 0.9490	41.6500
 0.9500	41.6290
 0.9510	41.6060
 0.9520	41.5830
 0.9530	41.5580
 0.9540	41.5300
 0.9550	41.5130
 0.9560	41.4960
 0.9570	41.4750
 0.9580	41.4510
 0.9590	41.4220
 0.9600	41.3960
 0.9610	41.3780
 0.9620	41.3680
 0.9630	41.3520
 0.9640	41.3410
 0.9650	41.3260
 0.9660	41.3000
 0.9670	41.2970
 0.9680	41.2890
 0.9690	41.2750
 0.9700	41.2630
 0.9710	41.2480
 0.9720	41.2380
 0.9730	41.2290
 0.9740	41.2160
 0.9750	41.2150
 0.9760	41.2110
 0.9770	41.2000
 0.9780	41.1890
 0.9790	41.1820
 0.9800	41.1720
 0.9810	41.1650
 0.9820	41.1630
 0.9830	41.1630
 0.9840	41.1580
 0.9850	41.1540
 0.9860	41.1570
 0.9870	41.1540
 0.9880	41.1460
 0.9890	41.1400
 0.9900	41.1400
 0.9910	41.1350
 0.9920	41.1270
 0.9930	41.1220
 0.9940	41.1250
 0.9950	41.1240
 0.9960	41.1140
 0.9970	41.0990
 0.9980	41.0870
 0.9990	41.1000
 1.0000	41.1080
 1.0010	41.7200
 1.0020	41.7180
 1.0030	41.7130
 1.0040	41.7120
 1.0050	41.7090
 1.0060	41.7070
 1.0070	41.7070
 1.0080	41.7060
 1.0090	41.7050
 1.0100	41.7040
 1.0110	41.7020
 1.0120	41.7010
 1.0130	41.7010
 1.0140	41.7000
 1.0150	41.6990
 1.0160	41.7010
 1.0170	41.7000
 1.0180	41.6960
 1.0190	41.6910
 1.0200	41.6880
 1.0210	41.6870
 1.0220	41.6900
 1.0230	41.6920
 1.0240	41.6980
 1.0250	41.6970
 1.0260	41.6910
 1.0270	41.6890
 1.0280	41.6860
 1.0290	41.6860
 1.0300	41.6900
 1.0310	41.6920
 1.0320	41.6920
 1.0330	41.6930
 1.0340	41.6960
 1.0350	41.6960
 1.0360	41.6950
 1.0370	41.6960
 1.0380	41.6970
 1.0390	41.6980
 1.0400	41.6990
 1.0410	41.7010
 1.0420	41.7020
 1.0430	41.7010
 1.0440	41.7010
 1.0450	41.7020
 1.0460	41.7030
 1.0470	41.7020
 1.0480	41.7020
 1.0490	41.7030
 1.0500	41.7030
 1.0510	41.7020
 1.0520	41.7020
 1.0530	41.7010
 1.0540	41.6990
 1.0550	41.6970
 1.0560	41.6960
 1.0570	41.6940
 1.0580	41.6880
 1.0590	41.6860
 1.0600	41.6850
 1.0610	41.6840
 1.0620	41.6880
 1.0630	41.6880
 1.0640	41.6860
 1.0650	41.6840
 1.0660	41.6790
 1.0670	41.6750
 1.0680	41.6730
 1.0690	41.6700
 1.0700	41.6680
 1.0710	41.6670
 1.0720	41.6650
 1.0730	41.6630
 1.0740	41.6600
 1.0750	41.6580
 1.0760	41.6550
 1.0770	41.6520
 1.0780	41.6490
 1.0790	41.6440
 1.0800	41.6410
 1.0810	41.6380
 1.0820	41.6360
 1.0830	41.6360
 1.0840	41.6360
 1.0850	41.6350
 1.0860	41.6330
 1.0870	41.6320
 1.0880	41.6300
 1.0890	41.6290
 1.0900	41.6280
 1.0910	41.6270
 1.0920	41.6270
 1.0930	41.6260
 1.0940	41.6260
 1.0950	41.6260
 1.0960	41.6260
 1.0970	41.6250
 1.0980	41.6240
 1.0990	41.6240
 1.1000	41.6260
 1.1010	41.6270
 1.1020	41.6270
 1.1030	41.6280
 1.1040	41.6250
 1.1050	41.6240
 1.1060	41.6230
 1.1070	41.6230
 1.1080	41.6230
 1.1090	41.6240
 1.1100	41.6250
 1.1110	41.6270
 1.1120	41.6260
 1.1130	41.6230
 1.1140	41.6210
 1.1150	41.6200
 1.1160	41.6180
 1.1170	41.6160
 1.1180	41.6140
 1.1190	41.6090
 1.1200	41.6040
 1.1210	41.5980
 1.1220	41.5920
 1.1230	41.5840
 1.1240	41.5760
 1.1250	41.5670
 1.1260	41.5570
 1.1270	41.5460
 1.1280	41.5340
 1.1290	41.5190
 1.1300	41.5020
 1.1310	41.4820
 1.1320	41.4590
 1.1330	41.4340
 1.1340	41.4080
 1.1350	41.3790
 1.1360	41.3490
 1.1370	41.3160
 1.1380	41.2810
 1.1390	41.2460
 1.1400	41.2080
 1.1410	41.1690
 1.1420	41.1310
 1.1430	41.0900
 1.1440	41.0490
 1.1450	41.0080
 1.1460	40.9670
 1.1470	40.9230
 1.1480	40.8850
 1.1490	40.8480
 1.1500	40.8120
 1.1510	40.7790
 1.1520	40.7470
 1.1530	40.7150
 1.1540	40.6870
 1.1550	40.6600
 1.1560	40.6370
 1.1570	40.6160
 1.1580	40.5980
 1.1590	40.5810
 1.1600	40.5670
 1.1610	40.5540
 1.1620	40.5420
 1.1630	40.5320
 1.1640	40.5210
 1.1650	40.5120
 1.1660	40.5040
 1.1670	40.4970
 1.1680	40.4910
 1.1690	40.4860
 1.1700	40.4820
 1.1710	40.4770
 1.1720	40.4720
 1.1730	40.4670
 1.1740	40.4630
 1.1750	40.4590
 1.1760	40.4540
 1.1770	40.4460
 1.1780	40.4390
 1.1790	40.4310
 1.1800	40.4230
 1.1810	40.4180
 1.1820	40.4110
 1.1830	40.4010
 1.1840	40.3930
 1.1850	40.3840
 1.1860	40.3760
 1.1870	40.3700
 1.1880	40.3630
 1.1890	40.3570
 1.1900	40.3500
 1.1910	40.3420
 1.1920	40.3350
 1.1930	40.3290
 1.1940	40.3230
 1.1950	40.3160
 1.1960	40.3120
 1.1970	40.3080
 1.1980	40.3040
 1.1990	40.3020
 1.2000	40.3000
 1.2010	40.2970
 1.2020	40.2960
 1.2030	40.2940
 1.2040	40.2920
 1.2050	40.2900
 1.2060	40.2900
 1.2070	40.2900
 1.2080	40.2910
 1.2090	40.2930
 1.2100	40.2930
 1.2110	40.2940
 1.2120	40.2960
 1.2130	40.2970
 1.2140	40.2980
 1.2150	40.3000
 1.2160	40.3020
 1.2170	40.3060
 1.2180	40.3100
 1.2190	40.3140
 1.2200	40.3200
 1.2210	40.3230
 1.2220	40.3270
 1.2230	40.3320
 1.2240	40.3360
 1.2250	40.3400
 1.2260	40.3460
 1.2270	40.3530
 1.2280	40.3570
 1.2290	40.3610
 1.2300	40.3650
 1.2310	40.3670
 1.2320	40.3700
 1.2330	40.3720
 1.2340	40.3750
 1.2350	40.3780
 1.2360	40.3800
 1.2370	40.3820
 1.2380	40.3840
 1.2390	40.3860
 1.2400	40.3870
 1.2410	40.3900
 1.2420	40.3940
 1.2430	40.3960
 1.2440	40.3990
 1.2450	40.4000
 1.2460	40.3980
 1.2470	40.3970
 1.2480	40.3960
 1.2490	40.3950
 1.2500	40.3960
 1.2510	40.3960
 1.2520	40.3970
 1.2530	40.3960
 1.2540	40.3950
 1.2550	40.3940
 1.2560	40.3900
 1.2570	40.3860
 1.2580	40.3830
 1.2590	40.3800
 1.2600	40.3770
 1.2610	40.3740
 1.2620	40.3710
 1.2630	40.3680
 1.2640	40.3630
 1.2650	40.3580
 1.2660	40.3530
 1.2670	40.3470
 1.2680	40.3420
 1.2690	40.3380
 1.2700	40.3330
 1.2710	40.3280
 1.2720	40.3230
 1.2730	40.3160
 1.2740	40.3100
 1.2750	40.3020
 1.2760	40.2950
 1.2770	40.2880
 1.2780	40.2780
 1.2790	40.2680
 1.2800	40.2580
 1.2810	40.2490
 1.2820	40.2390
 1.2830	40.2290
 1.2840	40.2160
 1.2850	40.2030
 1.2860	40.1880
 1.2870	40.1720
 1.2880	40.1560
 1.2890	40.1400
 1.2900	40.1220
 1.2910	40.1040
 1.2920	40.0850
 1.2930	40.0660
 1.2940	40.0460
 1.2950	40.0240
 1.2960	40.0020
 1.2970	39.9780
 1.2980	39.9550
 1.2990	39.9320
 1.3000	39.9080
 1.3010	39.8830
 1.3020	39.8580
 1.3030	39.8320
 1.3040	39.8050
 1.3050	39.7770
 1.3060	39.7490
 1.3070	39.7220
 1.3080	39.6940
 1.3090	39.6660
 1.3100	39.6380
 1.3110	39.6080
 1.3120	39.5780
 1.3130	39.5490
 1.3140	39.5180
 1.3150	39.4870
 1.3160	39.4550
 1.3170	39.4220
 1.3180	39.3900
 1.3190	39.3580
 1.3200	39.3240
 1.3210	39.2930
 1.3220	39.2580
 1.3230	39.2230
 1.3240	39.1900
 1.3250	39.1550
 1.3260	39.1170
 1.3270	39.0800
 1.3280	39.0400
 1.3290	39.0000
 1.3300	38.9600
 1.3310	38.9190
 1.3320	38.8790
 1.3330	38.8390
 1.3340	38.7980
 1.3350	38.7560
 1.3360	38.7130
 1.3370	38.6700
 1.3380	38.6280
 1.3390	38.5850
 1.3400	38.5420
 1.3410	38.5000
 1.3420	38.4570
 1.3430	38.4140
 1.3440	38.3710
 1.3450	38.3280
 1.3460	38.2830
 1.3470	38.2400
 1.3480	38.1970
 1.3490	38.1540
 1.3500	38.1120
 1.3510	38.0690
 1.3520	38.0250
 1.3530	37.9790
 1.3540	37.9320
 1.3550	37.8860
 1.3560	37.8400
 1.3570	37.7930
 1.3580	37.7450
 1.3590	37.6960
 1.3600	37.6450
 1.3610	37.5950
 1.3620	37.5420
 1.3630	37.4860
 1.3640	37.4270
 1.3650	37.3640
 1.3660	37.3000
 1.3670	37.2310
 1.3680	37.1590
 1.3690	37.0820
 1.3700	36.9970
 1.3710	36.9060
 1.3720	36.8080
 1.3730	36.7010
 1.3740	36.5870
 1.3750	36.4630
 1.3760	36.3280
 1.3770	36.1820
 1.3780	36.0220
 1.3790	35.8490
 1.3800	35.6640
 1.3810	35.4640
 1.3820	35.2520
 1.3830	35.0270
 1.3840	34.7880
 1.3850	34.5350
 1.3860	34.2710
 1.3870	33.9920
 1.3880	33.7040
 1.3890	33.4060
 1.3900	33.0950
 1.3910	32.7780
 1.3920	32.4510
 1.3930	32.1160
 1.3940	31.7780
 1.3950	31.4320
 1.3960	31.0850
 1.3970	30.7380
 1.3980	30.3930
 1.3990	30.0560
 1.4000	29.7230
 1.4010	29.3940
 1.4020	29.0740
 1.4030	28.7600
 1.4040	28.4570
 1.4050	28.1660
 1.4060	27.8870
 1.4070	27.6240
 1.4080	27.3720
 1.4090	27.1310
 1.4100	26.9050
 1.4110	26.6900
 1.4120	26.4900
 1.4130	26.3030
 1.4140	26.1280
 1.4150	25.9680
 1.4160	25.8200
 1.4170	25.6830
 1.4180	25.5580
 1.4190	25.4420
 1.4200	25.3370
 1.4210	25.2410
 1.4220	25.1530
 1.4230	25.0750
 1.4240	25.0040
 1.4250	24.9400
 1.4260	24.8830
 1.4270	24.8310
 1.4280	24.7860
 1.4290	24.7470
 1.4300	24.7140
 1.4310	24.6860
 1.4320	24.6630
 1.4330	24.6450
 1.4340	24.6310
 1.4350	24.6210
 1.4360	24.6130
 1.4370	24.6100
 1.4380	24.6100
 1.4390	24.6120
 1.4400	24.6190
 1.4410	24.6270
 1.4420	24.6370
 1.4430	24.6500
 1.4440	24.6630
 1.4450	24.6780
 1.4460	24.6940
 1.4470	24.7130
 1.4480	24.7320
 1.4490	24.7510
 1.4500	24.7720
 1.4510	24.7930
 1.4520	24.8150
 1.4530	24.8390
 1.4540	24.8630
 1.4550	24.8890
 1.4560	24.9170
 1.4570	24.9470
 1.4580	24.9800
 1.4590	25.0150
 1.4600	25.0540
 1.4610	25.0960
 1.4620	25.1410
 1.4630	25.1900
 1.4640	25.2420
 1.4650	25.2990
 1.4660	25.3590
 1.4670	25.4230
 1.4680	25.4920
 1.4690	25.5640
 1.4700	25.6400
 1.4710	25.7200
 1.4720	25.8020
 1.4730	25.8850
 1.4740	25.9720
 1.4750	26.0600
 1.4760	26.1500
 1.4770	26.2430
 1.4780	26.3360
 1.4790	26.4320
 1.4800	26.5270
 1.4810	26.6220
 1.4820	26.7190
 1.4830	26.8150
 1.4840	26.9130
 1.4850	27.0110
 1.4860	27.1080
 1.4870	27.2080
 1.4880	27.3080
 1.4890	27.4060
 1.4900	27.5050
 1.4910	27.6020
 1.4920	27.7000
 1.4930	27.7970
 1.4940	27.8940
 1.4950	27.9920
 1.4960	28.0890
 1.4970	28.1850
 1.4980	28.2810
 1.4990	28.3760
 1.5000	28.4710
 1.5010	28.5670
 1.5020	28.6620
 1.5030	28.7580
 1.5040	28.8510
 1.5050	28.9430
 1.5060	29.0350
 1.5070	29.1260
 1.5080	29.2170
 1.5090	29.3090
 1.5100	29.3990
 1.5110	29.4890
 1.5120	29.5790
 1.5130	29.6660
 1.5140	29.7540
 1.5150	29.8410
 1.5160	29.9270
 1.5170	30.0120
 1.5180	30.0960
 1.5190	30.1780
 1.5200	30.2600
 1.5210	30.3410
 1.5220	30.4210
 1.5230	30.5000
 1.5240	30.5780
 1.5250	30.6540
 1.5260	30.7310
 1.5270	30.8060
 1.5280	30.8810
 1.5290	30.9540
 1.5300	31.0260
 1.5310	31.0980
 1.5320	31.1670
 1.5330	31.2350
 1.5340	31.3020
 1.5350	31.3680
 1.5360	31.4340
 1.5370	31.4990
 1.5380	31.5640
 1.5390	31.6290
 1.5400	31.6920
 1.5410	31.7550
 1.5420	31.8160
 1.5430	31.8750
 1.5440	31.9350
 1.5450	31.9930
 1.5460	32.0490
 1.5470	32.1060
 1.5480	32.1620
 1.5490	32.2190
 1.5500	32.2760
 1.5510	32.3310
 1.5520	32.3840
 1.5530	32.4340
 1.5540	32.4840
 1.5550	32.5350
 1.5560	32.5840
 1.5570	32.6340
 1.5580	32.6820
 1.5590	32.7280
 1.5600	32.7750
 1.5610	32.8210
 1.5620	32.8660
 1.5630	32.9110
 1.5640	32.9540
 1.5650	32.9960
 1.5660	33.0390
 1.5670	33.0790
 1.5680	33.1190
 1.5690	33.1590
 1.5700	33.1970
 1.5710	33.2360
 1.5720	33.2750
 1.5730	33.3130
 1.5740	33.3520
 1.5750	33.3900
 1.5760	33.4270
 1.5770	33.4630
 1.5780	33.4990
 1.5790	33.5340
 1.5800	33.5700
 1.5810	33.6060
 1.5820	33.6430
 1.5830	33.6790
 1.5840	33.7150
 1.5850	33.7490
 1.5860	33.7840
 1.5870	33.8200
 1.5880	33.8550
 1.5890	33.8900
 1.5900	33.9250
 1.5910	33.9590
 1.5920	33.9940
 1.5930	34.0280
 1.5940	34.0610
 1.5950	34.0940
 1.5960	34.1270
 1.5970	34.1610
 1.5980	34.1940
 1.5990	34.2260
 1.6000	34.2570
 1.6010	34.2880
 1.6020	34.3190
 1.6030	34.3510
 1.6040	34.3810
 1.6050	34.4110
 1.6060	34.4400
 1.6070	34.4680
 1.6080	34.4960
 1.6090	34.5240
 1.6100	34.5530
 1.6110	34.5820
 1.6120	34.6090
 1.6130	34.6370
 1.6140	34.6630
 1.6150	34.6870
 1.6160	34.7110
 1.6170	34.7340
 1.6180	34.7570
 1.6190	34.7800
 1.6200	34.8030
 1.6210	34.8270
 1.6220	34.8490
 1.6230	34.8710
 1.6240	34.8930
 1.6250	34.9130
 1.6260	34.9340
 1.6270	34.9530
 1.6280	34.9710
 1.6290	34.9900
 1.6300	35.0090
 1.6310	35.0270
 1.6320	35.0450
 1.6330	35.0610
 1.6340	35.0770
 1.6350	35.0920
 1.6360	35.1070
 1.6370	35.1210
 1.6380	35.1330
 1.6390	35.1450
 1.6400	35.1560
 1.6410	35.1680
 1.6420	35.1800
 1.6430	35.1900
 1.6440	35.2000
 1.6450	35.2080
 1.6460	35.2160
 1.6470	35.2240
 1.6480	35.2330
 1.6490	35.2400
 1.6500	35.2460
 1.6510	35.2510
 1.6520	35.2530
 1.6530	35.2530
 1.6540	35.2530
 1.6550	35.2520
 1.6560	35.2500
 1.6570	35.2470
 1.6580	35.2450
 1.6590	35.2410
 1.6600	35.2370
 1.6610	35.2320
 1.6620	35.2260
 1.6630	35.2220
 1.6640	35.2170
 1.6650	35.2110
 1.6660	35.2070
 1.6670	35.2000
 1.6680	35.1940
 1.6690	35.1860
 1.6700	35.1780
 1.6710	35.1700
 1.6720	35.1610
 1.6730	35.1510
 1.6740	35.1390
 1.6750	35.1250
 1.6760	35.1100
 1.6770	35.0950
 1.6780	35.0780
 1.6790	35.0610
 1.6800	35.0430
 1.6810	35.0240
 1.6820	35.0040
 1.6830	34.9830
 1.6840	34.9610
 1.6850	34.9370
 1.6860	34.9140
 1.6870	34.8910
 1.6880	34.8680
 1.6890	34.8440
 1.6900	34.8190
 1.6910	34.7910
 1.6920	34.7660
 1.6930	34.7420
 1.6940	34.7170
 1.6950	34.6950
 1.6960	34.6710
 1.6970	34.6470
 1.6980	34.6220
 1.6990	34.5970
 1.7000	34.5720
 1.7010	34.5480
 1.7020	34.5220
 1.7030	34.4950
 1.7040	34.4690
 1.7050	34.4420
 1.7060	34.4150
 1.7070	34.3890
 1.7080	34.3630
 1.7090	34.3350
 1.7100	34.3080
 1.7110	34.2810
 1.7120	34.2520
 1.7130	34.2240
 1.7140	34.1970
 1.7150	34.1680
 1.7160	34.1410
 1.7170	34.1130
 1.7180	34.0860
 1.7190	34.0590
 1.7200	34.0320
 1.7210	34.0050
 1.7220	33.9790
 1.7230	33.9520
 1.7240	33.9270
 1.7250	33.9040
 1.7260	33.8810
 1.7270	33.8580
 1.7280	33.8370
 1.7290	33.8160
 1.7300	33.7980
 1.7310	33.7810
 1.7320	33.7650
 1.7330	33.7500
 1.7340	33.7360
 1.7350	33.7220
 1.7360	33.7090
 1.7370	33.6930
 1.7380	33.6770
 1.7390	33.6590
 1.7400	33.6390
 1.7410	33.6170
 1.7420	33.5930
 1.7430	33.5660
 1.7440	33.5380
 1.7450	33.5080
 1.7460	33.4750
 1.7470	33.4420
 1.7480	33.4060
 1.7490	33.3710
 1.7500	33.3360
 1.7510	33.3010
 1.7520	33.2650
 1.7530	33.2280
 1.7540	33.1910
 1.7550	33.1530
 1.7560	33.1150
 1.7570	33.0770
 1.7580	33.0390
 1.7590	33.0020
 1.7600	32.9650
 1.7610	32.9300
 1.7620	32.8960
 1.7630	32.8630
 1.7640	32.8310
 1.7650	32.8020
 1.7660	32.7730
 1.7670	32.7460
 1.7680	32.7200
 1.7690	32.6960
 1.7700	32.6710
 1.7710	32.6460
 1.7720	32.6230
 1.7730	32.6000
 1.7740	32.5790
 1.7750	32.5600
 1.7760	32.5410
 1.7770	32.5230
 1.7780	32.5050
 1.7790	32.4870
 1.7800	32.4710
 1.7810	32.4560
 1.7820	32.4410
 1.7830	32.4280
 1.7840	32.4160
 1.7850	32.4040
 1.7860	32.3950
 1.7870	32.3870
 1.7880	32.3810
 1.7890	32.3760
 1.7900	32.3690
 1.7910	32.3630
 1.7920	32.3570
 1.7930	32.3540
 1.7940	32.3550
 1.7950	32.3550
 1.7960	32.3560
 1.7970	32.3570
 1.7980	32.3560
 1.7990	32.3570
 1.8000	32.3590
 1.8010	32.3590
 1.8020	32.3580
 1.8030	32.3580
 1.8040	32.3560
 1.8050	32.3570
 1.8060	32.3620
 1.8070	32.3660
 1.8080	32.3710
 1.8090	32.3740
 1.8100	32.3760
 1.8110	32.3780
 1.8120	32.3770
 1.8130	32.3770
 1.8140	32.3770
 1.8150	32.3750
 1.8160	32.3750
 1.8170	32.3750
 1.8180	32.3740
 1.8190	32.3730
 1.8200	32.3710
 1.8210	32.3670
 1.8220	32.3640
 1.8230	32.3620
 1.8240	32.3590
 1.8250	32.3570
 1.8260	32.3510
 1.8270	32.3430
 1.8280	32.3320
 1.8290	32.3160
 1.8300	32.3010
 1.8310	32.8880
 1.8320	32.8720
 1.8330	32.8530
 1.8340	32.8340
 1.8350	32.8120
 1.8360	32.7850
 1.8370	32.7560
 1.8380	32.7260
 1.8390	32.6940
 1.8400	32.6620
 1.8410	32.6250
 1.8420	32.5860
 1.8430	32.5430
 1.8440	32.4950
 1.8450	32.4450
 1.8460	32.3880
 1.8470	32.3230
 1.8480	32.2510
 1.8490	32.1740
 1.8500	32.0910
 1.8510	32.0040
 1.8520	31.9090
 1.8530	31.8070
 1.8540	31.6960
 1.8550	31.5730
 1.8560	31.4390
 1.8570	31.2950
 1.8580	31.1380
 1.8590	30.9740
 1.8600	30.8010
 1.8610	30.6170
 1.8620	30.4170
 1.8630	30.2070
 1.8640	29.9780
 1.8650	29.7340
 1.8660	29.4780
 1.8670	29.2010
 1.8680	28.9060
 1.8690	28.5940
 1.8700	28.2610
 1.8710	27.9080
 1.8720	27.5430
 1.8730	27.1610
 1.8740	26.7620
 1.8750	26.3520
 1.8760	25.9230
 1.8770	25.4870
 1.8780	25.0440
 1.8790	24.5880
 1.8800	24.1300
 1.8810	23.6690
 1.8820	23.2000
 1.8830	22.7220
 1.8840	22.2440
 1.8850	21.7600
 1.8860	21.2770
 1.8870	20.7980
 1.8880	20.3230
 1.8890	19.8620
 1.8900	19.4130
 1.8910	18.9800
 1.8920	18.5570
 1.8930	18.1560
 1.8940	17.7700
 1.8950	17.4030
 1.8960	17.0600
 1.8970	16.7360
 1.8980	16.4360
 1.8990	16.1590
 1.9000	15.9000
 1.9010	15.6640
 1.9020	15.4460
 1.9030	15.2470
 1.9040	15.0640
 1.9050	14.9020
 1.9060	14.7570
 1.9070	14.6290
 1.9080	14.5170
 1.9090	14.4170
 1.9100	14.3290
 1.9110	14.2480
 1.9120	14.1790
 1.9130	14.1170
 1.9140	14.0640
 1.9150	14.0190
 1.9160	13.9830
 1.9170	13.9520
 1.9180	13.9260
 1.9190	13.9030
 1.9200	13.8850
 1.9210	13.8720
 1.9220	13.8620
 1.9230	13.8580
 1.9240	13.8580
 1.9250	13.8620
 1.9260	13.8680
 1.9270	13.8780
 1.9280	13.8900
 1.9290	13.9050
 1.9300	13.9250
 1.9310	13.9460
 1.9320	13.9700
 1.9330	13.9970
 1.9340	14.0260
 1.9350	14.0570
 1.9360	14.0910
 1.9370	14.1270
 1.9380	14.1660
 1.9390	14.2050
 1.9400	14.2490
 1.9410	14.2940
 1.9420	14.3410
 1.9430	14.3900
 1.9440	14.4400
 1.9450	14.4920
 1.9460	14.5440
 1.9470	14.5980
 1.9480	14.6540
 1.9490	14.7110
 1.9500	14.7700
 1.9510	14.8300
 1.9520	14.8920
 1.9530	14.9560
 1.9540	15.0210
 1.9550	15.0880
 1.9560	15.1560
 1.9570	15.2240
 1.9580	15.2940
 1.9590	15.3630
 1.9600	15.4340
 1.9610	15.5060
 1.9620	15.5790
 1.9630	15.6530
 1.9640	15.7290
 1.9650	15.8050
 1.9660	15.8820
 1.9670	15.9600
 1.9680	16.0390
 1.9690	16.1190
 1.9700	16.2000
 1.9710	16.2830
 1.9720	16.3670
 1.9730	16.4510
 1.9740	16.5370
 1.9750	16.6230
 1.9760	16.7100
 1.9770	16.7980
 1.9780	16.8870
 1.9790	16.9760
 1.9800	17.0650
 1.9810	17.1570
 1.9820	17.2500
 1.9830	17.3420
 1.9840	17.4350
 1.9850	17.5270
 1.9860	17.6190
 1.9870	17.7090
 1.9880	17.8020
 1.9890	17.8960
 1.9900	17.9900
 1.9910	18.0850
 1.9920	18.1780
 1.9930	18.2720
 1.9940	18.3660
 1.9950	18.4580
 1.9960	18.5520
 1.9970	18.6470
 1.9980	18.7410
 1.9990	18.8340
 2.0000	18.9280
 2.0010	19.0210
 2.0020	19.1130
 2.0030	19.2050
 2.0040	19.2940
 2.0050	19.3840
 2.0060	19.4720
 2.0070	19.5620
 2.0080	19.6540
 2.0090	19.7430
 2.0100	19.8300
 2.0110	19.9160
 2.0120	19.9990
 2.0130	20.0820
 2.0140	20.1640
 2.0150	20.2460
 2.0160	20.3290
 2.0170	20.4100
 2.0180	20.4900
 2.0190	20.5720
 2.0200	20.6500
 2.0210	20.7260
 2.0220	20.8020
 2.0230	20.8760
 2.0240	20.9500
 2.0250	21.0240
 2.0260	21.0950
 2.0270	21.1640
 2.0280	21.2330
 2.0290	21.2990
 2.0300	21.3640
 2.0310	21.4270
 2.0320	21.4890
 2.0330	21.5510
 2.0340	21.6130
 2.0350	21.6720
 2.0360	21.7290
 2.0370	21.7850
 2.0380	21.8370
 2.0390	21.8890
 2.0400	21.9430
 2.0410	21.9940
 2.0420	22.0420
 2.0430	22.0920
 2.0440	22.1400
 2.0450	22.1860
 2.0460	22.2330
 2.0470	22.2810
 2.0480	22.3270
 2.0490	22.3720
 2.0500	22.4170
 2.0510	22.4620
 2.0520	22.5080
 2.0530	22.5550
 2.0540	22.6020
 2.0550	22.6480
 2.0560	22.6940
 2.0570	22.7380
 2.0580	22.7820
 2.0590	22.8270
 2.0600	22.8720
 2.0610	22.9180
 2.0620	22.9660
 2.0630	23.0140
 2.0640	23.0650
 2.0650	23.1130
 2.0660	23.1600
 2.0670	23.2080
 2.0680	23.2550
 2.0690	23.3030
 2.0700	23.3500
 2.0710	23.3980
 2.0720	23.4460
 2.0730	23.4940
 2.0740	23.5430
 2.0750	23.5950
 2.0760	23.6440
 2.0770	23.6930
 2.0780	23.7400
 2.0790	23.7820
 2.0800	23.8300
 2.0810	23.8790
 2.0820	23.9270
 2.0830	23.9770
 2.0840	24.0260
 2.0850	24.0710
 2.0860	24.1170
 2.0870	24.1630
 2.0880	24.2100
 2.0890	24.2560
 2.0900	24.3020
 2.0910	24.3470
 2.0920	24.3910
 2.0930	24.4360
 2.0940	24.4810
 2.0950	24.5260
 2.0960	24.5710
 2.0970	24.6160
 2.0980	24.6600
 2.0990	24.7030
 2.1000	24.7440
 2.1010	24.7870
 2.1020	24.8310
 2.1030	24.8740
 2.1040	24.9160
 2.1050	24.9590
 2.1060	25.0020
 2.1070	25.0440
 2.1080	25.0870
 2.1090	25.1340
 2.1100	25.1770
 2.1110	25.2190
 2.1120	25.2620
 2.1130	25.3040
 2.1140	25.3450
 2.1150	25.3850
 2.1160	25.4250
 2.1170	25.4620
 2.1180	25.5000
 2.1190	25.5390
 2.1200	25.5770
 2.1210	25.6170
 2.1220	25.6550
 2.1230	25.6930
 2.1240	25.7300
 2.1250	25.7680
 2.1260	25.8070
 2.1270	25.8440
 2.1280	25.8810
 2.1290	25.9170
 2.1300	25.9510
 2.1310	25.9840
 2.1320	26.0170
 2.1330	26.0480
 2.1340	26.0770
 2.1350	26.1060
 2.1360	26.1330
 2.1370	26.1610
 2.1380	26.1880
 2.1390	26.2150
 2.1400	26.2420
 2.1410	26.2690
 2.1420	26.2930
 2.1430	26.3160
 2.1440	26.3390
 2.1450	26.3610
 2.1460	26.3840
 2.1470	26.4100
 2.1480	26.4300
 2.1490	26.4480
 2.1500	26.4650
 2.1510	26.4790
 2.1520	26.4950
 2.1530	26.5130
 2.1540	26.5270
 2.1550	26.5390
 2.1560	26.5510
 2.1570	26.5610
 2.1580	26.5710
 2.1590	26.5810
 2.1600	26.5910
 2.1610	26.6020
 2.1620	26.6130
 2.1630	26.6210
 2.1640	26.6280
 2.1650	26.6350
 2.1660	26.6360
 2.1670	26.6420
 2.1680	26.6510
 2.1690	26.6580
 2.1700	26.6660
 2.1710	26.6750
 2.1720	26.6840
 2.1730	26.6930
 2.1740	26.7040
 2.1750	26.7130
 2.1760	26.7180
 2.1770	26.7260
 2.1780	26.7330
 2.1790	26.7410
 2.1800	26.7520
 2.1810	26.7610
 2.1820	26.7700
 2.1830	26.7780
 2.1840	26.7880
 2.1850	26.7980
 2.1860	26.8080
 2.1870	26.8180
 2.1880	26.8270
 2.1890	26.8340
 2.1900	26.8430
 2.1910	26.8520
 2.1920	26.8610
 2.1930	26.8720
 2.1940	26.8800
 2.1950	26.8870
 2.1960	26.8940
 2.1970	26.9000
 2.1980	26.9040
 2.1990	26.9060
 2.2000	26.9090
 2.2010	26.9080
 2.2020	26.9100
 2.2030	26.9170
 2.2040	26.9200
 2.2050	26.9230
 2.2060	26.9200
 2.2070	26.9170
 2.2080	26.9090
 2.2090	26.9030
 2.2100	26.8970
 2.2110	26.8890
 2.2120	26.8790
 2.2130	26.8710
 2.2140	26.8610
 2.2150	26.8520
 2.2160	26.8460
 2.2170	26.8360
 2.2180	26.8220
 2.2190	26.8090
 2.2200	26.7940
 2.2210	26.7790
 2.2220	26.7660
 2.2230	26.7490
 2.2240	26.7320
 2.2250	26.7120
 2.2260	26.6900
 2.2270	26.6630
 2.2280	26.6340
 2.2290	26.6000
 2.2300	26.5590
 2.2310	26.5170
 2.2320	26.4700
 2.2330	26.4240
 2.2340	26.3740
 2.2350	26.3230
 2.2360	26.2660
 2.2370	26.2020
 2.2380	26.1430
 2.2390	26.0800
 2.2400	26.0210
 2.2410	25.9650
 2.2420	25.9100
 2.2430	25.8580
 2.2440	25.8080
 2.2450	25.7590
 2.2460	25.7130
 2.2470	25.6680
 2.2480	25.6260
 2.2490	25.5860
 2.2500	25.5500
 2.2510	25.5210
 2.2520	25.4870
 2.2530	25.4580
 2.2540	25.4220
 2.2550	25.3760
 2.2560	25.3360
 2.2570	25.2970
 2.2580	25.2580
 2.2590	25.2260
 2.2600	25.1870
 2.2610	25.1470
 2.2620	25.1020
 2.2630	25.0520
 2.2640	25.0020
 2.2650	24.9570
 2.2660	24.9120
 2.2670	24.8670
 2.2680	24.8240
 2.2690	24.7820
 2.2700	24.7370
 2.2710	24.6970
 2.2720	24.6610
 2.2730	24.6280
 2.2740	24.5980
 2.2750	24.5670
 2.2760	24.5420
 2.2770	24.5110
 2.2780	24.4730
 2.2790	24.4440
 2.2800	24.4180
 2.2810	24.3890
 2.2820	24.3650
 2.2830	24.3360
 2.2840	24.3010
 2.2850	24.2700
 2.2860	24.2440
 2.2870	24.2160
 2.2880	24.1900
 2.2890	24.1590
 2.2900	24.1220
 2.2910	24.0860
 2.2920	24.0470
 2.2930	24.0070
 2.2940	23.9710
 2.2950	23.9290
 2.2960	23.8860
 2.2970	23.8380
 2.2980	23.7840
 2.2990	23.7300
 2.3000	23.6760
 2.3010	23.6220
 2.3020	23.5710
 2.3030	23.5170
 2.3040	23.4600
 2.3050	23.4030
 2.3060	23.3470
 2.3070	23.2920
 2.3080	23.2440
 2.3090	23.1980
 2.3100	23.1590
 2.3110	23.1240
 2.3120	23.0910
 2.3130	23.0610
 2.3140	23.0360
 2.3150	23.0180
 2.3160	22.9980
 2.3170	22.9820
 2.3180	22.9670
 2.3190	22.9520
 2.3200	22.9370
 2.3210	22.9270
 2.3220	22.9120
 2.3230	22.8960
 2.3240	22.8780
 2.3250	22.8600
 2.3260	22.8380
 2.3270	22.8140
 2.3280	22.7890
 2.3290	22.7640
 2.3300	22.7350
 2.3310	22.7030
 2.3320	22.6720
 2.3330	22.6360
 2.3340	22.6040
 2.3350	22.5750
 2.3360	22.5420
 2.3370	22.5060
 2.3380	22.4710
 2.3390	22.4320
 2.3400	22.3950
 2.3410	22.3600
 2.3420	22.3220
 2.3430	22.2830
 2.3440	22.2420
 2.3450	22.1940
 2.3460	22.1550
 2.3470	22.1200
 2.3480	22.0880
 2.3490	22.0670
 2.3500	22.0400
 2.3510	22.0090
 2.3520	21.9810
 2.3530	21.9520
 2.3540	21.9230
 2.3550	21.9000
 2.3560	21.8810
 2.3570	21.8640
 2.3580	21.8460
 2.3590	21.8270
 2.3600	21.8090
 2.3610	21.7830
 2.3620	21.7530
 2.3630	21.7240
 2.3640	21.6910
 2.3650	21.6610
 2.3660	21.6340
 2.3670	21.6030
 2.3680	21.5670
 2.3690	21.5320
 2.3700	21.5030
 2.3710	21.4680
 2.3720	21.4330
 2.3730	21.3980
 2.3740	21.3570
 2.3750	21.3210
 2.3760	21.2840
 2.3770	21.2490
 2.3780	21.2120
 2.3790	21.1670
 2.3800	21.1250
 2.3810	21.0870
 2.3820	21.0480
 2.3830	21.0120
 2.3840	20.9740
 2.3850	20.9340
 2.3860	20.8970
 2.3870	20.8620
 2.3880	20.8260
 2.3890	20.7810
 2.3900	20.7300
 2.3910	20.6780
 2.3920	20.6330
 2.3930	20.5960
 2.3940	20.5600
 2.3950	20.5250
 2.3960	20.4880
 2.3970	20.4500
 2.3980	20.4080
 2.3990	20.3660
 2.4000	20.3280
 2.4010	20.2880
 2.4020	20.2440
 2.4030	20.1990
 2.4040	20.1560
 2.4050	20.1150
 2.4060	20.0760
 2.4070	20.0400
 2.4080	19.9990
 2.4090	19.9470
 2.4100	19.9030
 2.4110	19.8650
 2.4120	19.8190
 2.4130	19.7730
 2.4140	19.7260
 2.4150	19.6770
 2.4160	19.6300
 2.4170	19.5890
 2.4180	19.5520
 2.4190	19.5060
 2.4200	19.4600
 2.4210	19.4080
 2.4220	19.3540
 2.4230	19.3070
 2.4240	19.2500
 2.4250	19.2020
 2.4260	19.1540
 2.4270	19.0980
 2.4280	19.0500
 2.4290	18.9970
 2.4300	18.9430
 2.4310	18.8900
 2.4320	18.8280
 2.4330	18.7700
 2.4340	18.7200
 2.4350	18.6770
 2.4360	18.6390
 2.4370	18.5990
 2.4380	18.5510
 2.4390	18.5000
 2.4400	18.4520
 2.4410	18.4100
 2.4420	18.3580
 2.4430	18.3020
 2.4440	18.2430
 2.4450	18.1680
 2.4460	18.1100
 2.4470	18.0630
 2.4480	18.0150
 2.4490	17.9800
 2.4500	17.9360
 2.4510	17.8860
 2.4520	17.8310
 2.4530	17.7650
 2.4540	17.7020
 2.4550	17.6270
 2.4560	17.5640
 2.4570	17.5230
 2.4580	17.4780
 2.4590	17.4350
 2.4600	17.3900
 2.4610	17.3320
 2.4620	17.2860
 2.4630	17.2590
 2.4640	17.2210
 2.4650	17.1810
 2.4660	17.1380
 2.4670	17.0850
 2.4680	17.0400
 2.4690	17.0080
 2.4700	16.9690
 2.4710	16.9360
 2.4720	16.8960
 2.4730	16.8460
 2.4740	16.8010
 2.4750	16.7490
 2.4760	16.7020
 2.4770	16.6540
 2.4780	16.6250
 2.4790	16.6170
 2.4800	16.5950
 2.4810	16.5900
 2.4820	16.5500
 2.4830	16.5120
 2.4840	16.4840
 2.4850	16.4330
 2.4860	16.4110
 2.4870	16.3740
 2.4880	16.3300
 2.4890	16.3290
 2.4900	16.3040
 2.4910	16.2890
 2.4920	16.2870
 2.4930	16.2600
 2.4940	16.2470
 2.4950	16.2480
 2.4960	16.2500
 2.4970	16.2430
 2.4980	16.2310
 2.4990	16.2120
 2.5000	16.1580
