Name: Arctostaphylos glandulosa 1
Type: vegetation
Class: Shrub
Genus: Arctostaphylos
Species: glandulosa
Sample No.: VH146
Owner: UCSB
Wavelength Range: VSWIR
Origin: 37.0432; -119.304; WGS84
Collection Date: 6/8/2013
Description: Samples were collected as part of the HyspIRI Airborne Campaign. 48 individual plants were sampled in three times in 2013 - spring  summer  and fall. The name of the sample includes a 1  2  or 3 which references a different individual of the species. Samples were taken to JPL and processed within 48 hours of collection. The same leaves were processed in the Nicolet and then measured using the ASD.
Measurement: Bidirectional reflectance
First Column: X
Second Column: Y
X Units: Wavelength (micrometers)
Y Units: Reflectance (percentage)
First X Value: 0.35
Last X Value: 2.5
Number of X Values: 2151
Additional Information: vegetation.shrub.arctostaphylos.glandulosa.vswir.vh146.ucsb.asd.ancillary.txt

 0.3500	 4.0660
 0.3510	 3.7810
 0.3520	 3.7550
 0.3530	 3.7660
 0.3540	 3.6270
 0.3550	 3.8120
 0.3560	 3.7780
 0.3570	 3.6240
 0.3580	 3.7240
 0.3590	 3.7600
 0.3600	 3.7260
 0.3610	 3.6820
 0.3620	 3.7450
 0.3630	 3.6960
 0.3640	 3.6200
 0.3650	 3.6290
 0.3660	 3.5560
 0.3670	 3.5720
 0.3680	 3.6800
 0.3690	 3.7430
 0.3700	 3.6380
 0.3710	 3.6010
 0.3720	 3.7150
 0.3730	 3.6590
 0.3740	 3.6550
 0.3750	 3.6750
 0.3760	 3.6400
 0.3770	 3.6200
 0.3780	 3.6110
 0.3790	 3.6130
 0.3800	 3.6320
 0.3810	 3.6150
 0.3820	 3.5920
 0.3830	 3.5950
 0.3840	 3.6180
 0.3850	 3.6610
 0.3860	 3.7030
 0.3870	 3.7240
 0.3880	 3.7930
 0.3890	 3.7840
 0.3900	 3.7070
 0.3910	 3.7270
 0.3920	 3.7680
 0.3930	 3.8230
 0.3940	 3.8770
 0.3950	 3.9010
 0.3960	 3.9670
 0.3970	 4.0300
 0.3980	 4.0200
 0.3990	 4.0970
 0.4000	 4.1400
 0.4010	 4.1330
 0.4020	 4.2020
 0.4030	 4.2750
 0.4040	 4.3350
 0.4050	 4.3720
 0.4060	 4.3830
 0.4070	 4.4450
 0.4080	 4.5270
 0.4090	 4.5280
 0.4100	 4.5670
 0.4110	 4.6080
 0.4120	 4.6290
 0.4130	 4.6860
 0.4140	 4.7350
 0.4150	 4.7650
 0.4160	 4.7890
 0.4170	 4.8260
 0.4180	 4.8700
 0.4190	 4.9130
 0.4200	 4.9430
 0.4210	 4.9560
 0.4220	 4.9770
 0.4230	 5.0160
 0.4240	 5.0570
 0.4250	 5.0670
 0.4260	 5.0680
 0.4270	 5.0840
 0.4280	 5.0930
 0.4290	 5.1100
 0.4300	 5.1360
 0.4310	 5.1440
 0.4320	 5.1560
 0.4330	 5.1730
 0.4340	 5.1850
 0.4350	 5.2040
 0.4360	 5.2220
 0.4370	 5.2410
 0.4380	 5.2500
 0.4390	 5.2630
 0.4400	 5.2820
 0.4410	 5.3130
 0.4420	 5.3460
 0.4430	 5.3850
 0.4440	 5.4230
 0.4450	 5.4530
 0.4460	 5.5100
 0.4470	 5.5610
 0.4480	 5.5970
 0.4490	 5.6680
 0.4500	 5.7210
 0.4510	 5.7680
 0.4520	 5.8220
 0.4530	 5.8690
 0.4540	 5.9050
 0.4550	 5.9360
 0.4560	 5.9690
 0.4570	 5.9910
 0.4580	 6.0150
 0.4590	 6.0440
 0.4600	 6.0620
 0.4610	 6.0730
 0.4620	 6.0870
 0.4630	 6.1070
 0.4640	 6.1090
 0.4650	 6.1090
 0.4660	 6.1150
 0.4670	 6.1310
 0.4680	 6.1410
 0.4690	 6.1450
 0.4700	 6.1520
 0.4710	 6.1590
 0.4720	 6.1690
 0.4730	 6.1790
 0.4740	 6.1900
 0.4750	 6.2070
 0.4760	 6.2230
 0.4770	 6.2380
 0.4780	 6.2590
 0.4790	 6.2660
 0.4800	 6.2760
 0.4810	 6.3020
 0.4820	 6.3130
 0.4830	 6.3190
 0.4840	 6.3330
 0.4850	 6.3730
 0.4860	 6.4110
 0.4870	 6.4430
 0.4880	 6.4760
 0.4890	 6.5350
 0.4900	 6.5950
 0.4910	 6.6600
 0.4920	 6.7370
 0.4930	 6.8270
 0.4940	 6.9310
 0.4950	 7.0450
 0.4960	 7.1640
 0.4970	 7.3030
 0.4980	 7.4630
 0.4990	 7.6350
 0.5000	 7.8100
 0.5010	 8.0080
 0.5020	 8.2360
 0.5030	 8.4820
 0.5040	 8.7480
 0.5050	 9.0340
 0.5060	 9.3330
 0.5070	 9.6460
 0.5080	 9.9860
 0.5090	10.3480
 0.5100	10.7260
 0.5110	11.1160
 0.5120	11.5270
 0.5130	11.9590
 0.5140	12.3980
 0.5150	12.8400
 0.5160	13.2870
 0.5170	13.7420
 0.5180	14.2050
 0.5190	14.6650
 0.5200	15.1170
 0.5210	15.5560
 0.5220	15.9800
 0.5230	16.3850
 0.5240	16.7710
 0.5250	17.1380
 0.5260	17.4780
 0.5270	17.7900
 0.5280	18.0750
 0.5290	18.3340
 0.5300	18.5720
 0.5310	18.7890
 0.5320	18.9860
 0.5330	19.1600
 0.5340	19.3140
 0.5350	19.4500
 0.5360	19.5720
 0.5370	19.6800
 0.5380	19.7770
 0.5390	19.8640
 0.5400	19.9460
 0.5410	20.0270
 0.5420	20.1070
 0.5430	20.1830
 0.5440	20.2540
 0.5450	20.3220
 0.5460	20.3840
 0.5470	20.4300
 0.5480	20.4740
 0.5490	20.5190
 0.5500	20.5560
 0.5510	20.5870
 0.5520	20.6030
 0.5530	20.5960
 0.5540	20.5710
 0.5550	20.5230
 0.5560	20.4530
 0.5570	20.3610
 0.5580	20.2470
 0.5590	20.1210
 0.5600	19.9860
 0.5610	19.8320
 0.5620	19.6690
 0.5630	19.4960
 0.5640	19.3070
 0.5650	19.1040
 0.5660	18.8960
 0.5670	18.6840
 0.5680	18.4630
 0.5690	18.2260
 0.5700	17.9840
 0.5710	17.7470
 0.5720	17.5120
 0.5730	17.2810
 0.5740	17.0570
 0.5750	16.8450
 0.5760	16.6480
 0.5770	16.4620
 0.5780	16.2830
 0.5790	16.1170
 0.5800	15.9600
 0.5810	15.8130
 0.5820	15.6760
 0.5830	15.5410
 0.5840	15.4110
 0.5850	15.2880
 0.5860	15.1780
 0.5870	15.0720
 0.5880	14.9680
 0.5890	14.8670
 0.5900	14.7730
 0.5910	14.6940
 0.5920	14.6240
 0.5930	14.5580
 0.5940	14.4990
 0.5950	14.4440
 0.5960	14.3930
 0.5970	14.3470
 0.5980	14.2960
 0.5990	14.2430
 0.6000	14.1900
 0.6010	14.1260
 0.6020	14.0550
 0.6030	13.9780
 0.6040	13.8900
 0.6050	13.7930
 0.6060	13.6870
 0.6070	13.5740
 0.6080	13.4500
 0.6090	13.3190
 0.6100	13.1870
 0.6110	13.0570
 0.6120	12.9150
 0.6130	12.7660
 0.6140	12.6160
 0.6150	12.4760
 0.6160	12.3400
 0.6170	12.2090
 0.6180	12.0870
 0.6190	11.9830
 0.6200	11.8900
 0.6210	11.8050
 0.6220	11.7260
 0.6230	11.6620
 0.6240	11.6100
 0.6250	11.5680
 0.6260	11.5310
 0.6270	11.5030
 0.6280	11.4850
 0.6290	11.4720
 0.6300	11.4590
 0.6310	11.4400
 0.6320	11.4120
 0.6330	11.3690
 0.6340	11.3090
 0.6350	11.2330
 0.6360	11.1390
 0.6370	11.0200
 0.6380	10.8820
 0.6390	10.7270
 0.6400	10.5570
 0.6410	10.3740
 0.6420	10.1820
 0.6430	 9.9840
 0.6440	 9.7840
 0.6450	 9.5780
 0.6460	 9.3710
 0.6470	 9.1850
 0.6480	 9.0130
 0.6490	 8.8630
 0.6500	 8.7330
 0.6510	 8.6230
 0.6520	 8.5300
 0.6530	 8.4450
 0.6540	 8.3620
 0.6550	 8.2720
 0.6560	 8.1700
 0.6570	 8.0530
 0.6580	 7.9200
 0.6590	 7.7740
 0.6600	 7.6120
 0.6610	 7.4380
 0.6620	 7.2700
 0.6630	 7.1060
 0.6640	 6.9470
 0.6650	 6.7980
 0.6660	 6.6630
 0.6670	 6.5470
 0.6680	 6.4430
 0.6690	 6.3570
 0.6700	 6.2880
 0.6710	 6.2340
 0.6720	 6.1960
 0.6730	 6.1750
 0.6740	 6.1620
 0.6750	 6.1650
 0.6760	 6.1830
 0.6770	 6.2030
 0.6780	 6.2390
 0.6790	 6.3000
 0.6800	 6.3740
 0.6810	 6.4700
 0.6820	 6.6000
 0.6830	 6.7730
 0.6840	 6.9900
 0.6850	 7.2670
 0.6860	 7.6130
 0.6870	 8.0340
 0.6880	 8.5560
 0.6890	 9.1730
 0.6900	 9.8870
 0.6910	10.6980
 0.6920	11.6060
 0.6930	12.5970
 0.6940	13.6580
 0.6950	14.7790
 0.6960	15.9390
 0.6970	17.1300
 0.6980	18.3490
 0.6990	19.5830
 0.7000	20.8210
 0.7010	22.0540
 0.7020	23.2820
 0.7030	24.4910
 0.7040	25.6810
 0.7050	26.8540
 0.7060	28.0100
 0.7070	29.1470
 0.7080	30.2690
 0.7090	31.3810
 0.7100	32.4770
 0.7110	33.5640
 0.7120	34.6450
 0.7130	35.7200
 0.7140	36.7840
 0.7150	37.8400
 0.7160	38.8870
 0.7170	39.9260
 0.7180	40.9580
 0.7190	41.9810
 0.7200	42.9900
 0.7210	43.9850
 0.7220	44.9670
 0.7230	45.9320
 0.7240	46.8760
 0.7250	47.7890
 0.7260	48.6740
 0.7270	49.5340
 0.7280	50.3690
 0.7290	51.1760
 0.7300	51.9520
 0.7310	52.6920
 0.7320	53.4040
 0.7330	54.0800
 0.7340	54.7190
 0.7350	55.3310
 0.7360	55.9110
 0.7370	56.4570
 0.7380	56.9720
 0.7390	57.4630
 0.7400	57.9210
 0.7410	58.3460
 0.7420	58.7400
 0.7430	59.1110
 0.7440	59.4570
 0.7450	59.7770
 0.7460	60.0660
 0.7470	60.3380
 0.7480	60.5850
 0.7490	60.8060
 0.7500	61.0130
 0.7510	61.2020
 0.7520	61.3690
 0.7530	61.5200
 0.7540	61.6650
 0.7550	61.7930
 0.7560	61.9040
 0.7570	62.0040
 0.7580	62.1000
 0.7590	62.1850
 0.7600	62.2570
 0.7610	62.3300
 0.7620	62.3970
 0.7630	62.4580
 0.7640	62.5150
 0.7650	62.5600
 0.7660	62.6030
 0.7670	62.6440
 0.7680	62.6780
 0.7690	62.7080
 0.7700	62.7330
 0.7710	62.7560
 0.7720	62.7790
 0.7730	62.7990
 0.7740	62.8210
 0.7750	62.8480
 0.7760	62.8640
 0.7770	62.8840
 0.7780	62.9070
 0.7790	62.9240
 0.7800	62.9400
 0.7810	62.9570
 0.7820	62.9760
 0.7830	63.0010
 0.7840	63.0170
 0.7850	63.0280
 0.7860	63.0400
 0.7870	63.0520
 0.7880	63.0690
 0.7890	63.0900
 0.7900	63.1110
 0.7910	63.1230
 0.7920	63.1300
 0.7930	63.1390
 0.7940	63.1560
 0.7950	63.1680
 0.7960	63.1770
 0.7970	63.1850
 0.7980	63.2000
 0.7990	63.2110
 0.8000	63.2200
 0.8010	63.2290
 0.8020	63.2340
 0.8030	63.2410
 0.8040	63.2480
 0.8050	63.2530
 0.8060	63.2500
 0.8070	63.2530
 0.8080	63.2630
 0.8090	63.2680
 0.8100	63.2710
 0.8110	63.2790
 0.8120	63.2930
 0.8130	63.2960
 0.8140	63.2980
 0.8150	63.2980
 0.8160	63.2960
 0.8170	63.3000
 0.8180	63.3080
 0.8190	63.3110
 0.8200	63.3050
 0.8210	63.3070
 0.8220	63.3120
 0.8230	63.3130
 0.8240	63.3110
 0.8250	63.3160
 0.8260	63.3150
 0.8270	63.3050
 0.8280	63.2970
 0.8290	63.2940
 0.8300	63.2880
 0.8310	63.2760
 0.8320	63.2770
 0.8330	63.2750
 0.8340	63.2710
 0.8350	63.2720
 0.8360	63.2750
 0.8370	63.2780
 0.8380	63.2830
 0.8390	63.2930
 0.8400	63.3030
 0.8410	63.3110
 0.8420	63.3160
 0.8430	63.3180
 0.8440	63.3320
 0.8450	63.3420
 0.8460	63.3410
 0.8470	63.3530
 0.8480	63.3680
 0.8490	63.3790
 0.8500	63.3840
 0.8510	63.3940
 0.8520	63.4040
 0.8530	63.4120
 0.8540	63.4180
 0.8550	63.4230
 0.8560	63.4340
 0.8570	63.4480
 0.8580	63.4480
 0.8590	63.4550
 0.8600	63.4660
 0.8610	63.4790
 0.8620	63.4900
 0.8630	63.4910
 0.8640	63.4910
 0.8650	63.4970
 0.8660	63.5020
 0.8670	63.5050
 0.8680	63.5090
 0.8690	63.5170
 0.8700	63.5190
 0.8710	63.5250
 0.8720	63.5300
 0.8730	63.5240
 0.8740	63.5320
 0.8750	63.5350
 0.8760	63.5320
 0.8770	63.5370
 0.8780	63.5430
 0.8790	63.5400
 0.8800	63.5310
 0.8810	63.5310
 0.8820	63.5220
 0.8830	63.5180
 0.8840	63.5250
 0.8850	63.5230
 0.8860	63.5160
 0.8870	63.5100
 0.8880	63.5040
 0.8890	63.4870
 0.8900	63.4810
 0.8910	63.4820
 0.8920	63.4720
 0.8930	63.4560
 0.8940	63.4410
 0.8950	63.4300
 0.8960	63.4200
 0.8970	63.4090
 0.8980	63.3990
 0.8990	63.3880
 0.9000	63.3720
 0.9010	63.3650
 0.9020	63.3640
 0.9030	63.3600
 0.9040	63.3420
 0.9050	63.3250
 0.9060	63.3100
 0.9070	63.2940
 0.9080	63.2700
 0.9090	63.2570
 0.9100	63.2440
 0.9110	63.2210
 0.9120	63.1970
 0.9130	63.1840
 0.9140	63.1700
 0.9150	63.1410
 0.9160	63.1180
 0.9170	63.0990
 0.9180	63.0780
 0.9190	63.0490
 0.9200	63.0280
 0.9210	63.0060
 0.9220	62.9790
 0.9230	62.9500
 0.9240	62.9240
 0.9250	62.8870
 0.9260	62.8370
 0.9270	62.7870
 0.9280	62.7530
 0.9290	62.7200
 0.9300	62.6710
 0.9310	62.6000
 0.9320	62.5520
 0.9330	62.5000
 0.9340	62.4340
 0.9350	62.3720
 0.9360	62.3060
 0.9370	62.2420
 0.9380	62.1760
 0.9390	62.0900
 0.9400	62.0220
 0.9410	61.9540
 0.9420	61.8690
 0.9430	61.7680
 0.9440	61.6680
 0.9450	61.5700
 0.9460	61.4640
 0.9470	61.3290
 0.9480	61.1920
 0.9490	61.0510
 0.9500	60.8990
 0.9510	60.7320
 0.9520	60.5750
 0.9530	60.4150
 0.9540	60.2330
 0.9550	60.0470
 0.9560	59.8670
 0.9570	59.7070
 0.9580	59.5690
 0.9590	59.4330
 0.9600	59.3080
 0.9610	59.1950
 0.9620	59.0950
 0.9630	59.0010
 0.9640	58.9070
 0.9650	58.8270
 0.9660	58.7690
 0.9670	58.7070
 0.9680	58.6530
 0.9690	58.6040
 0.9700	58.5520
 0.9710	58.5030
 0.9720	58.4720
 0.9730	58.4450
 0.9740	58.4070
 0.9750	58.3860
 0.9760	58.3490
 0.9770	58.3120
 0.9780	58.3060
 0.9790	58.3100
 0.9800	58.3160
 0.9810	58.3190
 0.9820	58.3180
 0.9830	58.2980
 0.9840	58.3130
 0.9850	58.3530
 0.9860	58.3780
 0.9870	58.4110
 0.9880	58.4460
 0.9890	58.4790
 0.9900	58.5100
 0.9910	58.5480
 0.9920	58.6080
 0.9930	58.6720
 0.9940	58.7120
 0.9950	58.7440
 0.9960	58.7830
 0.9970	58.8380
 0.9980	58.9100
 0.9990	58.9520
 1.0000	59.0010
 1.0010	58.9780
 1.0020	59.0250
 1.0030	59.0850
 1.0040	59.1510
 1.0050	59.2180
 1.0060	59.2810
 1.0070	59.3460
 1.0080	59.4130
 1.0090	59.4790
 1.0100	59.5470
 1.0110	59.6160
 1.0120	59.6880
 1.0130	59.7640
 1.0140	59.8370
 1.0150	59.9150
 1.0160	59.9850
 1.0170	60.0500
 1.0180	60.1130
 1.0190	60.1790
 1.0200	60.2490
 1.0210	60.3180
 1.0220	60.3830
 1.0230	60.4480
 1.0240	60.5070
 1.0250	60.5700
 1.0260	60.6340
 1.0270	60.6980
 1.0280	60.7640
 1.0290	60.8290
 1.0300	60.9010
 1.0310	60.9640
 1.0320	61.0210
 1.0330	61.0810
 1.0340	61.1440
 1.0350	61.1980
 1.0360	61.2540
 1.0370	61.3100
 1.0380	61.3620
 1.0390	61.4080
 1.0400	61.4580
 1.0410	61.5110
 1.0420	61.5620
 1.0430	61.6130
 1.0440	61.6590
 1.0450	61.7040
 1.0460	61.7470
 1.0470	61.7870
 1.0480	61.8270
 1.0490	61.8650
 1.0500	61.9040
 1.0510	61.9420
 1.0520	61.9820
 1.0530	62.0200
 1.0540	62.0610
 1.0550	62.0950
 1.0560	62.1230
 1.0570	62.1520
 1.0580	62.1790
 1.0590	62.2040
 1.0600	62.2330
 1.0610	62.2550
 1.0620	62.2680
 1.0630	62.2880
 1.0640	62.3090
 1.0650	62.3290
 1.0660	62.3540
 1.0670	62.3750
 1.0680	62.3930
 1.0690	62.4110
 1.0700	62.4210
 1.0710	62.4260
 1.0720	62.4320
 1.0730	62.4320
 1.0740	62.4340
 1.0750	62.4390
 1.0760	62.4400
 1.0770	62.4390
 1.0780	62.4370
 1.0790	62.4340
 1.0800	62.4280
 1.0810	62.4180
 1.0820	62.4110
 1.0830	62.4060
 1.0840	62.3970
 1.0850	62.3860
 1.0860	62.3750
 1.0870	62.3600
 1.0880	62.3420
 1.0890	62.3240
 1.0900	62.3090
 1.0910	62.2850
 1.0920	62.2570
 1.0930	62.2290
 1.0940	62.1950
 1.0950	62.1640
 1.0960	62.1340
 1.0970	62.1040
 1.0980	62.0760
 1.0990	62.0450
 1.1000	62.0140
 1.1010	61.9810
 1.1020	61.9470
 1.1030	61.9100
 1.1040	61.8730
 1.1050	61.8340
 1.1060	61.7940
 1.1070	61.7540
 1.1080	61.7120
 1.1090	61.6670
 1.1100	61.6220
 1.1110	61.5780
 1.1120	61.5280
 1.1130	61.4780
 1.1140	61.4240
 1.1150	61.3640
 1.1160	61.3020
 1.1170	61.2410
 1.1180	61.1700
 1.1190	61.0950
 1.1200	61.0130
 1.1210	60.9240
 1.1220	60.8250
 1.1230	60.7170
 1.1240	60.5990
 1.1250	60.4660
 1.1260	60.3230
 1.1270	60.1610
 1.1280	59.9860
 1.1290	59.7940
 1.1300	59.5850
 1.1310	59.3620
 1.1320	59.1240
 1.1330	58.8700
 1.1340	58.6000
 1.1350	58.3140
 1.1360	58.0110
 1.1370	57.6950
 1.1380	57.3660
 1.1390	57.0300
 1.1400	56.6830
 1.1410	56.3340
 1.1420	55.9860
 1.1430	55.6340
 1.1440	55.2890
 1.1450	54.9430
 1.1460	54.6110
 1.1470	54.2820
 1.1480	53.9690
 1.1490	53.6650
 1.1500	53.3790
 1.1510	53.1000
 1.1520	52.8430
 1.1530	52.6040
 1.1540	52.3820
 1.1550	52.1770
 1.1560	51.9880
 1.1570	51.8160
 1.1580	51.6570
 1.1590	51.5100
 1.1600	51.3770
 1.1610	51.2560
 1.1620	51.1450
 1.1630	51.0440
 1.1640	50.9510
 1.1650	50.8650
 1.1660	50.7890
 1.1670	50.7160
 1.1680	50.6500
 1.1690	50.5850
 1.1700	50.5260
 1.1710	50.4640
 1.1720	50.4040
 1.1730	50.3460
 1.1740	50.2900
 1.1750	50.2320
 1.1760	50.1730
 1.1770	50.1170
 1.1780	50.0560
 1.1790	49.9940
 1.1800	49.9350
 1.1810	49.8720
 1.1820	49.8080
 1.1830	49.7440
 1.1840	49.6790
 1.1850	49.6120
 1.1860	49.5490
 1.1870	49.4870
 1.1880	49.4280
 1.1890	49.3720
 1.1900	49.3180
 1.1910	49.2650
 1.1920	49.2160
 1.1930	49.1690
 1.1940	49.1270
 1.1950	49.0860
 1.1960	49.0540
 1.1970	49.0260
 1.1980	49.0040
 1.1990	48.9920
 1.2000	48.9810
 1.2010	48.9760
 1.2020	48.9760
 1.2030	48.9820
 1.2040	48.9960
 1.2050	49.0170
 1.2060	49.0410
 1.2070	49.0720
 1.2080	49.1100
 1.2090	49.1530
 1.2100	49.2010
 1.2110	49.2550
 1.2120	49.3150
 1.2130	49.3790
 1.2140	49.4490
 1.2150	49.5230
 1.2160	49.6040
 1.2170	49.6830
 1.2180	49.7670
 1.2190	49.8540
 1.2200	49.9420
 1.2210	50.0340
 1.2220	50.1260
 1.2230	50.2160
 1.2240	50.3070
 1.2250	50.3970
 1.2260	50.4830
 1.2270	50.5700
 1.2280	50.6550
 1.2290	50.7370
 1.2300	50.8160
 1.2310	50.8940
 1.2320	50.9710
 1.2330	51.0440
 1.2340	51.1140
 1.2350	51.1820
 1.2360	51.2490
 1.2370	51.3120
 1.2380	51.3760
 1.2390	51.4410
 1.2400	51.5000
 1.2410	51.5570
 1.2420	51.6110
 1.2430	51.6620
 1.2440	51.7140
 1.2450	51.7620
 1.2460	51.8080
 1.2470	51.8540
 1.2480	51.8970
 1.2490	51.9410
 1.2500	51.9830
 1.2510	52.0230
 1.2520	52.0610
 1.2530	52.0960
 1.2540	52.1290
 1.2550	52.1600
 1.2560	52.1880
 1.2570	52.2150
 1.2580	52.2400
 1.2590	52.2640
 1.2600	52.2870
 1.2610	52.3070
 1.2620	52.3260
 1.2630	52.3410
 1.2640	52.3530
 1.2650	52.3630
 1.2660	52.3720
 1.2670	52.3820
 1.2680	52.3870
 1.2690	52.3870
 1.2700	52.3880
 1.2710	52.3870
 1.2720	52.3820
 1.2730	52.3790
 1.2740	52.3720
 1.2750	52.3610
 1.2760	52.3480
 1.2770	52.3330
 1.2780	52.3140
 1.2790	52.2890
 1.2800	52.2640
 1.2810	52.2380
 1.2820	52.2090
 1.2830	52.1770
 1.2840	52.1420
 1.2850	52.1040
 1.2860	52.0610
 1.2870	52.0160
 1.2880	51.9700
 1.2890	51.9190
 1.2900	51.8620
 1.2910	51.8040
 1.2920	51.7420
 1.2930	51.6730
 1.2940	51.6020
 1.2950	51.5260
 1.2960	51.4440
 1.2970	51.3550
 1.2980	51.2620
 1.2990	51.1650
 1.3000	51.0650
 1.3010	50.9630
 1.3020	50.8560
 1.3030	50.7420
 1.3040	50.6230
 1.3050	50.5000
 1.3060	50.3720
 1.3070	50.2400
 1.3080	50.1030
 1.3090	49.9590
 1.3100	49.8100
 1.3110	49.6540
 1.3120	49.4920
 1.3130	49.3270
 1.3140	49.1560
 1.3150	48.9800
 1.3160	48.8000
 1.3170	48.6160
 1.3180	48.4280
 1.3190	48.2330
 1.3200	48.0340
 1.3210	47.8290
 1.3220	47.6190
 1.3230	47.4080
 1.3240	47.1950
 1.3250	46.9790
 1.3260	46.7580
 1.3270	46.5330
 1.3280	46.3040
 1.3290	46.0730
 1.3300	45.8420
 1.3310	45.6100
 1.3320	45.3780
 1.3330	45.1460
 1.3340	44.9170
 1.3350	44.6870
 1.3360	44.4600
 1.3370	44.2320
 1.3380	44.0050
 1.3390	43.7800
 1.3400	43.5570
 1.3410	43.3400
 1.3420	43.1250
 1.3430	42.9130
 1.3440	42.7070
 1.3450	42.5040
 1.3460	42.3050
 1.3470	42.1090
 1.3480	41.9130
 1.3490	41.7230
 1.3500	41.5360
 1.3510	41.3510
 1.3520	41.1690
 1.3530	40.9900
 1.3540	40.8110
 1.3550	40.6320
 1.3560	40.4540
 1.3570	40.2760
 1.3580	40.0970
 1.3590	39.9150
 1.3600	39.7290
 1.3610	39.5370
 1.3620	39.3410
 1.3630	39.1390
 1.3640	38.9310
 1.3650	38.7160
 1.3660	38.4940
 1.3670	38.2620
 1.3680	38.0200
 1.3690	37.7670
 1.3700	37.4970
 1.3710	37.2150
 1.3720	36.9210
 1.3730	36.6080
 1.3740	36.2810
 1.3750	35.9380
 1.3760	35.5730
 1.3770	35.1850
 1.3780	34.7750
 1.3790	34.3440
 1.3800	33.8930
 1.3810	33.4190
 1.3820	32.9300
 1.3830	32.4230
 1.3840	31.9020
 1.3850	31.3630
 1.3860	30.8170
 1.3870	30.2540
 1.3880	29.6920
 1.3890	29.1240
 1.3900	28.5510
 1.3910	27.9830
 1.3920	27.4130
 1.3930	26.8440
 1.3940	26.2830
 1.3950	25.7230
 1.3960	25.1770
 1.3970	24.6440
 1.3980	24.1210
 1.3990	23.6220
 1.4000	23.1360
 1.4010	22.6610
 1.4020	22.2080
 1.4030	21.7680
 1.4040	21.3470
 1.4050	20.9480
 1.4060	20.5650
 1.4070	20.2050
 1.4080	19.8630
 1.4090	19.5370
 1.4100	19.2300
 1.4110	18.9400
 1.4120	18.6650
 1.4130	18.4090
 1.4140	18.1690
 1.4150	17.9440
 1.4160	17.7340
 1.4170	17.5360
 1.4180	17.3510
 1.4190	17.1780
 1.4200	17.0150
 1.4210	16.8630
 1.4220	16.7210
 1.4230	16.5890
 1.4240	16.4670
 1.4250	16.3530
 1.4260	16.2490
 1.4270	16.1510
 1.4280	16.0600
 1.4290	15.9750
 1.4300	15.8980
 1.4310	15.8280
 1.4320	15.7650
 1.4330	15.7070
 1.4340	15.6550
 1.4350	15.6070
 1.4360	15.5640
 1.4370	15.5270
 1.4380	15.4950
 1.4390	15.4660
 1.4400	15.4410
 1.4410	15.4210
 1.4420	15.4020
 1.4430	15.3880
 1.4440	15.3770
 1.4450	15.3700
 1.4460	15.3650
 1.4470	15.3610
 1.4480	15.3600
 1.4490	15.3610
 1.4500	15.3640
 1.4510	15.3690
 1.4520	15.3760
 1.4530	15.3850
 1.4540	15.3960
 1.4550	15.4090
 1.4560	15.4240
 1.4570	15.4420
 1.4580	15.4630
 1.4590	15.4860
 1.4600	15.5140
 1.4610	15.5450
 1.4620	15.5790
 1.4630	15.6180
 1.4640	15.6600
 1.4650	15.7040
 1.4660	15.7520
 1.4670	15.8050
 1.4680	15.8620
 1.4690	15.9240
 1.4700	15.9890
 1.4710	16.0580
 1.4720	16.1290
 1.4730	16.2040
 1.4740	16.2820
 1.4750	16.3630
 1.4760	16.4480
 1.4770	16.5350
 1.4780	16.6230
 1.4790	16.7140
 1.4800	16.8050
 1.4810	16.8980
 1.4820	16.9950
 1.4830	17.0930
 1.4840	17.1940
 1.4850	17.2960
 1.4860	17.3970
 1.4870	17.5000
 1.4880	17.6030
 1.4890	17.7060
 1.4900	17.8110
 1.4910	17.9170
 1.4920	18.0230
 1.4930	18.1310
 1.4940	18.2390
 1.4950	18.3490
 1.4960	18.4580
 1.4970	18.5680
 1.4980	18.6790
 1.4990	18.7890
 1.5000	18.8990
 1.5010	19.0100
 1.5020	19.1210
 1.5030	19.2320
 1.5040	19.3420
 1.5050	19.4500
 1.5060	19.5600
 1.5070	19.6690
 1.5080	19.7790
 1.5090	19.8890
 1.5100	19.9990
 1.5110	20.1080
 1.5120	20.2170
 1.5130	20.3240
 1.5140	20.4300
 1.5150	20.5370
 1.5160	20.6420
 1.5170	20.7470
 1.5180	20.8520
 1.5190	20.9570
 1.5200	21.0610
 1.5210	21.1640
 1.5220	21.2660
 1.5230	21.3680
 1.5240	21.4670
 1.5250	21.5660
 1.5260	21.6660
 1.5270	21.7650
 1.5280	21.8630
 1.5290	21.9600
 1.5300	22.0550
 1.5310	22.1500
 1.5320	22.2440
 1.5330	22.3370
 1.5340	22.4300
 1.5350	22.5210
 1.5360	22.6110
 1.5370	22.7000
 1.5380	22.7870
 1.5390	22.8760
 1.5400	22.9640
 1.5410	23.0530
 1.5420	23.1410
 1.5430	23.2280
 1.5440	23.3140
 1.5450	23.3990
 1.5460	23.4840
 1.5470	23.5680
 1.5480	23.6510
 1.5490	23.7350
 1.5500	23.8180
 1.5510	23.9000
 1.5520	23.9830
 1.5530	24.0650
 1.5540	24.1470
 1.5550	24.2290
 1.5560	24.3070
 1.5570	24.3860
 1.5580	24.4640
 1.5590	24.5410
 1.5600	24.6190
 1.5610	24.6960
 1.5620	24.7720
 1.5630	24.8480
 1.5640	24.9250
 1.5650	25.0000
 1.5660	25.0750
 1.5670	25.1490
 1.5680	25.2220
 1.5690	25.2950
 1.5700	25.3690
 1.5710	25.4420
 1.5720	25.5150
 1.5730	25.5870
 1.5740	25.6590
 1.5750	25.7300
 1.5760	25.8000
 1.5770	25.8710
 1.5780	25.9420
 1.5790	26.0120
 1.5800	26.0850
 1.5810	26.1580
 1.5820	26.2280
 1.5830	26.2990
 1.5840	26.3690
 1.5850	26.4380
 1.5860	26.5070
 1.5870	26.5780
 1.5880	26.6480
 1.5890	26.7200
 1.5900	26.7920
 1.5910	26.8640
 1.5920	26.9370
 1.5930	27.0070
 1.5940	27.0780
 1.5950	27.1500
 1.5960	27.2220
 1.5970	27.2930
 1.5980	27.3650
 1.5990	27.4360
 1.6000	27.5080
 1.6010	27.5790
 1.6020	27.6500
 1.6030	27.7200
 1.6040	27.7890
 1.6050	27.8580
 1.6060	27.9280
 1.6070	27.9970
 1.6080	28.0650
 1.6090	28.1330
 1.6100	28.2010
 1.6110	28.2670
 1.6120	28.3330
 1.6130	28.3990
 1.6140	28.4630
 1.6150	28.5270
 1.6160	28.5890
 1.6170	28.6490
 1.6180	28.7090
 1.6190	28.7680
 1.6200	28.8270
 1.6210	28.8840
 1.6220	28.9400
 1.6230	28.9950
 1.6240	29.0500
 1.6250	29.1020
 1.6260	29.1520
 1.6270	29.2040
 1.6280	29.2530
 1.6290	29.3040
 1.6300	29.3580
 1.6310	29.4090
 1.6320	29.4580
 1.6330	29.5070
 1.6340	29.5540
 1.6350	29.6010
 1.6360	29.6470
 1.6370	29.6930
 1.6380	29.7390
 1.6390	29.7820
 1.6400	29.8220
 1.6410	29.8610
 1.6420	29.8970
 1.6430	29.9330
 1.6440	29.9690
 1.6450	30.0000
 1.6460	30.0290
 1.6470	30.0560
 1.6480	30.0780
 1.6490	30.0990
 1.6500	30.1200
 1.6510	30.1370
 1.6520	30.1510
 1.6530	30.1620
 1.6540	30.1700
 1.6550	30.1770
 1.6560	30.1800
 1.6570	30.1830
 1.6580	30.1850
 1.6590	30.1850
 1.6600	30.1840
 1.6610	30.1830
 1.6620	30.1790
 1.6630	30.1750
 1.6640	30.1730
 1.6650	30.1690
 1.6660	30.1650
 1.6670	30.1610
 1.6680	30.1560
 1.6690	30.1510
 1.6700	30.1450
 1.6710	30.1400
 1.6720	30.1320
 1.6730	30.1230
 1.6740	30.1110
 1.6750	30.0990
 1.6760	30.0820
 1.6770	30.0620
 1.6780	30.0390
 1.6790	30.0100
 1.6800	29.9770
 1.6810	29.9450
 1.6820	29.9060
 1.6830	29.8640
 1.6840	29.8190
 1.6850	29.7680
 1.6860	29.7140
 1.6870	29.6580
 1.6880	29.5990
 1.6890	29.5380
 1.6900	29.4720
 1.6910	29.4040
 1.6920	29.3340
 1.6930	29.2590
 1.6940	29.1840
 1.6950	29.1080
 1.6960	29.0320
 1.6970	28.9570
 1.6980	28.8780
 1.6990	28.7980
 1.7000	28.7170
 1.7010	28.6320
 1.7020	28.5510
 1.7030	28.4700
 1.7040	28.3910
 1.7050	28.3110
 1.7060	28.2340
 1.7070	28.1580
 1.7080	28.0850
 1.7090	28.0140
 1.7100	27.9450
 1.7110	27.8780
 1.7120	27.8140
 1.7130	27.7520
 1.7140	27.6930
 1.7150	27.6370
 1.7160	27.5810
 1.7170	27.5270
 1.7180	27.4760
 1.7190	27.4250
 1.7200	27.3750
 1.7210	27.3270
 1.7220	27.2780
 1.7230	27.2300
 1.7240	27.1840
 1.7250	27.1410
 1.7260	27.1010
 1.7270	27.0660
 1.7280	27.0360
 1.7290	27.0080
 1.7300	26.9840
 1.7310	26.9610
 1.7320	26.9410
 1.7330	26.9220
 1.7340	26.9060
 1.7350	26.8860
 1.7360	26.8680
 1.7370	26.8420
 1.7380	26.8130
 1.7390	26.7790
 1.7400	26.7390
 1.7410	26.6940
 1.7420	26.6430
 1.7430	26.5900
 1.7440	26.5300
 1.7450	26.4700
 1.7460	26.4080
 1.7470	26.3450
 1.7480	26.2800
 1.7490	26.2150
 1.7500	26.1470
 1.7510	26.0830
 1.7520	26.0180
 1.7530	25.9580
 1.7540	25.9000
 1.7550	25.8430
 1.7560	25.7890
 1.7570	25.7350
 1.7580	25.6840
 1.7590	25.6380
 1.7600	25.5930
 1.7610	25.5480
 1.7620	25.5070
 1.7630	25.4670
 1.7640	25.4310
 1.7650	25.4030
 1.7660	25.3730
 1.7670	25.3440
 1.7680	25.3150
 1.7690	25.2840
 1.7700	25.2560
 1.7710	25.2280
 1.7720	25.2040
 1.7730	25.1830
 1.7740	25.1620
 1.7750	25.1420
 1.7760	25.1230
 1.7770	25.1060
 1.7780	25.0890
 1.7790	25.0740
 1.7800	25.0620
 1.7810	25.0490
 1.7820	25.0400
 1.7830	25.0350
 1.7840	25.0300
 1.7850	25.0280
 1.7860	25.0260
 1.7870	25.0260
 1.7880	25.0300
 1.7890	25.0360
 1.7900	25.0440
 1.7910	25.0540
 1.7920	25.0650
 1.7930	25.0770
 1.7940	25.0910
 1.7950	25.1050
 1.7960	25.1190
 1.7970	25.1340
 1.7980	25.1510
 1.7990	25.1680
 1.8000	25.1860
 1.8010	25.2040
 1.8020	25.2200
 1.8030	25.2390
 1.8040	25.2600
 1.8050	25.2790
 1.8060	25.2990
 1.8070	25.3180
 1.8080	25.3360
 1.8090	25.3540
 1.8100	25.3720
 1.8110	25.3900
 1.8120	25.4060
 1.8130	25.4220
 1.8140	25.4360
 1.8150	25.4490
 1.8160	25.4610
 1.8170	25.4720
 1.8180	25.4840
 1.8190	25.4940
 1.8200	25.5040
 1.8210	25.5140
 1.8220	25.5240
 1.8230	25.5370
 1.8240	25.5450
 1.8250	25.5480
 1.8260	25.5500
 1.8270	25.5460
 1.8280	25.5470
 1.8290	25.5540
 1.8300	25.5430
 1.8310	25.5240
 1.8320	25.5030
 1.8330	25.4910
 1.8340	25.4730
 1.8350	25.4540
 1.8360	25.4310
 1.8370	25.4040
 1.8380	25.3750
 1.8390	25.3400
 1.8400	25.2980
 1.8410	25.2510
 1.8420	25.2000
 1.8430	25.1410
 1.8440	25.0750
 1.8450	25.0010
 1.8460	24.9220
 1.8470	24.8310
 1.8480	24.7290
 1.8490	24.6230
 1.8500	24.5060
 1.8510	24.3790
 1.8520	24.2420
 1.8530	24.0940
 1.8540	23.9330
 1.8550	23.7620
 1.8560	23.5800
 1.8570	23.3880
 1.8580	23.1850
 1.8590	22.9670
 1.8600	22.7340
 1.8610	22.4890
 1.8620	22.2310
 1.8630	21.9590
 1.8640	21.6720
 1.8650	21.3690
 1.8660	21.0520
 1.8670	20.7120
 1.8680	20.3560
 1.8690	19.9850
 1.8700	19.5980
 1.8710	19.1940
 1.8720	18.7820
 1.8730	18.3580
 1.8740	17.9220
 1.8750	17.4770
 1.8760	17.0210
 1.8770	16.5610
 1.8780	16.0980
 1.8790	15.6270
 1.8800	15.1600
 1.8810	14.6930
 1.8820	14.2230
 1.8830	13.7550
 1.8840	13.2940
 1.8850	12.8310
 1.8860	12.3760
 1.8870	11.9300
 1.8880	11.4870
 1.8890	11.0600
 1.8900	10.6470
 1.8910	10.2480
 1.8920	 9.8610
 1.8930	 9.4950
 1.8940	 9.1460
 1.8950	 8.8170
 1.8960	 8.5080
 1.8970	 8.2140
 1.8980	 7.9420
 1.8990	 7.6850
 1.9000	 7.4460
 1.9010	 7.2270
 1.9020	 7.0200
 1.9030	 6.8310
 1.9040	 6.6590
 1.9050	 6.5050
 1.9060	 6.3610
 1.9070	 6.2350
 1.9080	 6.1190
 1.9090	 6.0120
 1.9100	 5.9170
 1.9110	 5.8290
 1.9120	 5.7490
 1.9130	 5.6770
 1.9140	 5.6150
 1.9150	 5.5600
 1.9160	 5.5100
 1.9170	 5.4620
 1.9180	 5.4190
 1.9190	 5.3790
 1.9200	 5.3450
 1.9210	 5.3180
 1.9220	 5.2920
 1.9230	 5.2730
 1.9240	 5.2560
 1.9250	 5.2430
 1.9260	 5.2320
 1.9270	 5.2270
 1.9280	 5.2230
 1.9290	 5.2230
 1.9300	 5.2230
 1.9310	 5.2260
 1.9320	 5.2310
 1.9330	 5.2380
 1.9340	 5.2480
 1.9350	 5.2600
 1.9360	 5.2720
 1.9370	 5.2890
 1.9380	 5.3080
 1.9390	 5.3300
 1.9400	 5.3550
 1.9410	 5.3830
 1.9420	 5.4100
 1.9430	 5.4400
 1.9440	 5.4710
 1.9450	 5.5000
 1.9460	 5.5320
 1.9470	 5.5690
 1.9480	 5.6040
 1.9490	 5.6410
 1.9500	 5.6820
 1.9510	 5.7190
 1.9520	 5.7580
 1.9530	 5.7980
 1.9540	 5.8410
 1.9550	 5.8850
 1.9560	 5.9330
 1.9570	 5.9790
 1.9580	 6.0250
 1.9590	 6.0740
 1.9600	 6.1230
 1.9610	 6.1720
 1.9620	 6.2220
 1.9630	 6.2730
 1.9640	 6.3260
 1.9650	 6.3780
 1.9660	 6.4360
 1.9670	 6.4930
 1.9680	 6.5480
 1.9690	 6.6070
 1.9700	 6.6650
 1.9710	 6.7240
 1.9720	 6.7830
 1.9730	 6.8430
 1.9740	 6.9070
 1.9750	 6.9660
 1.9760	 7.0280
 1.9770	 7.0940
 1.9780	 7.1560
 1.9790	 7.2200
 1.9800	 7.2860
 1.9810	 7.3510
 1.9820	 7.4150
 1.9830	 7.4790
 1.9840	 7.5430
 1.9850	 7.6080
 1.9860	 7.6760
 1.9870	 7.7400
 1.9880	 7.8080
 1.9890	 7.8760
 1.9900	 7.9460
 1.9910	 8.0140
 1.9920	 8.0790
 1.9930	 8.1450
 1.9940	 8.2110
 1.9950	 8.2770
 1.9960	 8.3430
 1.9970	 8.4140
 1.9980	 8.4830
 1.9990	 8.5510
 2.0000	 8.6180
 2.0010	 8.6850
 2.0020	 8.7540
 2.0030	 8.8190
 2.0040	 8.8850
 2.0050	 8.9510
 2.0060	 9.0160
 2.0070	 9.0840
 2.0080	 9.1550
 2.0090	 9.2200
 2.0100	 9.2830
 2.0110	 9.3470
 2.0120	 9.4080
 2.0130	 9.4680
 2.0140	 9.5300
 2.0150	 9.5920
 2.0160	 9.6550
 2.0170	 9.7170
 2.0180	 9.7770
 2.0190	 9.8350
 2.0200	 9.8930
 2.0210	 9.9450
 2.0220	 9.9980
 2.0230	10.0490
 2.0240	10.1010
 2.0250	10.1540
 2.0260	10.2040
 2.0270	10.2550
 2.0280	10.3050
 2.0290	10.3510
 2.0300	10.3960
 2.0310	10.4430
 2.0320	10.4890
 2.0330	10.5340
 2.0340	10.5810
 2.0350	10.6220
 2.0360	10.6590
 2.0370	10.6980
 2.0380	10.7360
 2.0390	10.7740
 2.0400	10.8120
 2.0410	10.8500
 2.0420	10.8870
 2.0430	10.9220
 2.0440	10.9580
 2.0450	10.9950
 2.0460	11.0290
 2.0470	11.0590
 2.0480	11.0910
 2.0490	11.1210
 2.0500	11.1510
 2.0510	11.1790
 2.0520	11.2080
 2.0530	11.2360
 2.0540	11.2640
 2.0550	11.2910
 2.0560	11.3220
 2.0570	11.3520
 2.0580	11.3810
 2.0590	11.4100
 2.0600	11.4400
 2.0610	11.4690
 2.0620	11.4990
 2.0630	11.5270
 2.0640	11.5540
 2.0650	11.5830
 2.0660	11.6110
 2.0670	11.6400
 2.0680	11.6700
 2.0690	11.7000
 2.0700	11.7280
 2.0710	11.7570
 2.0720	11.7850
 2.0730	11.8150
 2.0740	11.8420
 2.0750	11.8690
 2.0760	11.8960
 2.0770	11.9200
 2.0780	11.9490
 2.0790	11.9820
 2.0800	12.0120
 2.0810	12.0440
 2.0820	12.0750
 2.0830	12.1030
 2.0840	12.1340
 2.0850	12.1690
 2.0860	12.2000
 2.0870	12.2300
 2.0880	12.2600
 2.0890	12.2900
 2.0900	12.3180
 2.0910	12.3500
 2.0920	12.3870
 2.0930	12.4180
 2.0940	12.4480
 2.0950	12.4790
 2.0960	12.5070
 2.0970	12.5390
 2.0980	12.5730
 2.0990	12.6070
 2.1000	12.6450
 2.1010	12.6800
 2.1020	12.7120
 2.1030	12.7450
 2.1040	12.7760
 2.1050	12.8090
 2.1060	12.8430
 2.1070	12.8790
 2.1080	12.9150
 2.1090	12.9540
 2.1100	12.9900
 2.1110	13.0260
 2.1120	13.0620
 2.1130	13.0950
 2.1140	13.1320
 2.1150	13.1720
 2.1160	13.2110
 2.1170	13.2540
 2.1180	13.2920
 2.1190	13.3280
 2.1200	13.3630
 2.1210	13.3970
 2.1220	13.4290
 2.1230	13.4630
 2.1240	13.4950
 2.1250	13.5320
 2.1260	13.5720
 2.1270	13.6080
 2.1280	13.6460
 2.1290	13.6820
 2.1300	13.7140
 2.1310	13.7480
 2.1320	13.7820
 2.1330	13.8170
 2.1340	13.8530
 2.1350	13.8870
 2.1360	13.9210
 2.1370	13.9560
 2.1380	13.9890
 2.1390	14.0250
 2.1400	14.0620
 2.1410	14.1020
 2.1420	14.1390
 2.1430	14.1770
 2.1440	14.2130
 2.1450	14.2470
 2.1460	14.2830
 2.1470	14.3190
 2.1480	14.3570
 2.1490	14.3980
 2.1500	14.4360
 2.1510	14.4730
 2.1520	14.5090
 2.1530	14.5400
 2.1540	14.5760
 2.1550	14.6130
 2.1560	14.6480
 2.1570	14.6860
 2.1580	14.7220
 2.1590	14.7560
 2.1600	14.7890
 2.1610	14.8240
 2.1620	14.8600
 2.1630	14.8940
 2.1640	14.9280
 2.1650	14.9610
 2.1660	14.9940
 2.1670	15.0260
 2.1680	15.0560
 2.1690	15.0870
 2.1700	15.1180
 2.1710	15.1500
 2.1720	15.1840
 2.1730	15.2160
 2.1740	15.2490
 2.1750	15.2800
 2.1760	15.3120
 2.1770	15.3420
 2.1780	15.3720
 2.1790	15.4000
 2.1800	15.4270
 2.1810	15.4550
 2.1820	15.4840
 2.1830	15.5120
 2.1840	15.5400
 2.1850	15.5680
 2.1860	15.5960
 2.1870	15.6230
 2.1880	15.6490
 2.1890	15.6730
 2.1900	15.6990
 2.1910	15.7230
 2.1920	15.7490
 2.1930	15.7810
 2.1940	15.8070
 2.1950	15.8310
 2.1960	15.8550
 2.1970	15.8760
 2.1980	15.8990
 2.1990	15.9260
 2.2000	15.9470
 2.2010	15.9660
 2.2020	15.9850
 2.2030	16.0000
 2.2040	16.0170
 2.2050	16.0370
 2.2060	16.0580
 2.2070	16.0740
 2.2080	16.0910
 2.2090	16.1040
 2.2100	16.1110
 2.2110	16.1210
 2.2120	16.1280
 2.2130	16.1360
 2.2140	16.1460
 2.2150	16.1510
 2.2160	16.1540
 2.2170	16.1550
 2.2180	16.1520
 2.2190	16.1500
 2.2200	16.1450
 2.2210	16.1400
 2.2220	16.1380
 2.2230	16.1280
 2.2240	16.1140
 2.2250	16.0990
 2.2260	16.0780
 2.2270	16.0560
 2.2280	16.0360
 2.2290	16.0110
 2.2300	15.9810
 2.2310	15.9480
 2.2320	15.9140
 2.2330	15.8820
 2.2340	15.8460
 2.2350	15.8120
 2.2360	15.7680
 2.2370	15.7190
 2.2380	15.6680
 2.2390	15.6090
 2.2400	15.5520
 2.2410	15.4940
 2.2420	15.4350
 2.2430	15.3760
 2.2440	15.3130
 2.2450	15.2470
 2.2460	15.1810
 2.2470	15.1110
 2.2480	15.0400
 2.2490	14.9670
 2.2500	14.8910
 2.2510	14.8090
 2.2520	14.7300
 2.2530	14.6520
 2.2540	14.5710
 2.2550	14.4880
 2.2560	14.4070
 2.2570	14.3250
 2.2580	14.2420
 2.2590	14.1600
 2.2600	14.0740
 2.2610	13.9820
 2.2620	13.8910
 2.2630	13.8080
 2.2640	13.7230
 2.2650	13.6410
 2.2660	13.5640
 2.2670	13.4820
 2.2680	13.3970
 2.2690	13.3190
 2.2700	13.2440
 2.2710	13.1700
 2.2720	13.0990
 2.2730	13.0330
 2.2740	12.9730
 2.2750	12.9120
 2.2760	12.8580
 2.2770	12.7990
 2.2780	12.7350
 2.2790	12.6770
 2.2800	12.6220
 2.2810	12.5670
 2.2820	12.5170
 2.2830	12.4650
 2.2840	12.4080
 2.2850	12.3560
 2.2860	12.3070
 2.2870	12.2570
 2.2880	12.2110
 2.2890	12.1600
 2.2900	12.1050
 2.2910	12.0490
 2.2920	11.9900
 2.2930	11.9300
 2.2940	11.8650
 2.2950	11.8040
 2.2960	11.7430
 2.2970	11.6830
 2.2980	11.6250
 2.2990	11.5680
 2.3000	11.5080
 2.3010	11.4490
 2.3020	11.3880
 2.3030	11.3320
 2.3040	11.2880
 2.3050	11.2490
 2.3060	11.2110
 2.3070	11.1810
 2.3080	11.1540
 2.3090	11.1260
 2.3100	11.1090
 2.3110	11.0980
 2.3120	11.0890
 2.3130	11.0840
 2.3140	11.0800
 2.3150	11.0800
 2.3160	11.0790
 2.3170	11.0770
 2.3180	11.0760
 2.3190	11.0770
 2.3200	11.0760
 2.3210	11.0780
 2.3220	11.0710
 2.3230	11.0620
 2.3240	11.0460
 2.3250	11.0200
 2.3260	10.9990
 2.3270	10.9750
 2.3280	10.9510
 2.3290	10.9270
 2.3300	10.8980
 2.3310	10.8660
 2.3320	10.8290
 2.3330	10.7840
 2.3340	10.7440
 2.3350	10.7060
 2.3360	10.6650
 2.3370	10.6250
 2.3380	10.5850
 2.3390	10.5400
 2.3400	10.4990
 2.3410	10.4630
 2.3420	10.4230
 2.3430	10.3780
 2.3440	10.3370
 2.3450	10.2980
 2.3460	10.2620
 2.3470	10.2280
 2.3480	10.2000
 2.3490	10.1750
 2.3500	10.1490
 2.3510	10.1260
 2.3520	10.1080
 2.3530	10.0940
 2.3540	10.0740
 2.3550	10.0540
 2.3560	10.0420
 2.3570	10.0190
 2.3580	 9.9910
 2.3590	 9.9690
 2.3600	 9.9490
 2.3610	 9.9270
 2.3620	 9.9040
 2.3630	 9.8810
 2.3640	 9.8550
 2.3650	 9.8260
 2.3660	 9.7980
 2.3670	 9.7730
 2.3680	 9.7370
 2.3690	 9.7060
 2.3700	 9.6840
 2.3710	 9.6470
 2.3720	 9.6200
 2.3730	 9.5830
 2.3740	 9.5360
 2.3750	 9.5020
 2.3760	 9.4700
 2.3770	 9.4370
 2.3780	 9.4110
 2.3790	 9.3740
 2.3800	 9.3330
 2.3810	 9.3010
 2.3820	 9.2650
 2.3830	 9.2370
 2.3840	 9.2090
 2.3850	 9.1810
 2.3860	 9.1560
 2.3870	 9.1250
 2.3880	 9.0850
 2.3890	 9.0480
 2.3900	 9.0160
 2.3910	 8.9910
 2.3920	 8.9700
 2.3930	 8.9450
 2.3940	 8.9100
 2.3950	 8.8640
 2.3960	 8.8290
 2.3970	 8.7960
 2.3980	 8.7530
 2.3990	 8.7170
 2.4000	 8.6760
 2.4010	 8.6360
 2.4020	 8.6060
 2.4030	 8.5740
 2.4040	 8.5440
 2.4050	 8.5050
 2.4060	 8.4650
 2.4070	 8.4240
 2.4080	 8.3750
 2.4090	 8.3340
 2.4100	 8.2960
 2.4110	 8.2600
 2.4120	 8.2310
 2.4130	 8.1990
 2.4140	 8.1560
 2.4150	 8.1030
 2.4160	 8.0530
 2.4170	 8.0100
 2.4180	 7.9710
 2.4190	 7.9390
 2.4200	 7.9040
 2.4210	 7.8730
 2.4220	 7.8400
 2.4230	 7.7880
 2.4240	 7.7390
 2.4250	 7.7050
 2.4260	 7.6600
 2.4270	 7.6080
 2.4280	 7.5750
 2.4290	 7.5250
 2.4300	 7.4690
 2.4310	 7.4370
 2.4320	 7.3930
 2.4330	 7.3380
 2.4340	 7.2930
 2.4350	 7.2440
 2.4360	 7.2160
 2.4370	 7.1890
 2.4380	 7.1360
 2.4390	 7.0940
 2.4400	 7.0470
 2.4410	 6.9920
 2.4420	 6.9540
 2.4430	 6.9070
 2.4440	 6.8670
 2.4450	 6.8420
 2.4460	 6.8160
 2.4470	 6.7850
 2.4480	 6.7360
 2.4490	 6.6800
 2.4500	 6.6220
 2.4510	 6.5680
 2.4520	 6.5300
 2.4530	 6.4790
 2.4540	 6.4240
 2.4550	 6.3840
 2.4560	 6.3340
 2.4570	 6.2840
 2.4580	 6.2480
 2.4590	 6.2030
 2.4600	 6.1670
 2.4610	 6.1600
 2.4620	 6.1460
 2.4630	 6.1230
 2.4640	 6.1110
 2.4650	 6.0660
 2.4660	 6.0070
 2.4670	 5.9660
 2.4680	 5.9210
 2.4690	 5.9230
 2.4700	 5.9140
 2.4710	 5.9230
 2.4720	 5.9000
 2.4730	 5.8430
 2.4740	 5.8000
 2.4750	 5.7580
 2.4760	 5.7220
 2.4770	 5.6900
 2.4780	 5.6570
 2.4790	 5.5950
 2.4800	 5.5580
 2.4810	 5.5610
 2.4820	 5.5450
 2.4830	 5.5500
 2.4840	 5.5640
 2.4850	 5.5530
 2.4860	 5.5390
 2.4870	 5.5330
 2.4880	 5.5100
 2.4890	 5.4650
 2.4900	 5.4170
 2.4910	 5.3800
 2.4920	 5.3620
 2.4930	 5.3660
 2.4940	 5.3680
 2.4950	 5.3510
 2.4960	 5.3410
 2.4970	 5.3140
 2.4980	 5.3130
 2.4990	 5.3630
 2.5000	 5.3480
