Name: Quercus douglasii 3
Type: vegetation
Class: Tree
Genus: Quercus
Species: douglasii
Sample No.: VH081
Owner: UCSB
Wavelength Range: VSWIR
Origin: 34.7165; -120.0605; WGS84
Collection Date: 4/21/2013
Description: Samples were collected as part of the HyspIRI Airborne Campaign. 48 individual plants were sampled in three times in 2013 - spring  summer  and fall. The name of the sample includes a 1  2  or 3 which references a different individual of the species. Samples were taken to JPL and processed within 48 hours of collection. The same leaves were processed in the Nicolet and then measured using the ASD.
Measurement: Bidirectional reflectance
First Column: X
Second Column: Y
X Units: Wavelength (micrometers)
Y Units: Reflectance (percentage)
First X Value: 0.35
Last X Value: 2.5
Number of X Values: 2151
Additional Information: vegetation.tree.quercus.douglasii.vswir.vh081.ucsb.asd.ancillary.txt

 0.3500	 4.9560
 0.3510	 5.2000
 0.3520	 5.1790
 0.3530	 5.1060
 0.3540	 5.2030
 0.3550	 5.0960
 0.3560	 5.0850
 0.3570	 5.0980
 0.3580	 4.9200
 0.3590	 4.8790
 0.3600	 4.9870
 0.3610	 5.1130
 0.3620	 4.9850
 0.3630	 4.9220
 0.3640	 4.9240
 0.3650	 4.9290
 0.3660	 4.9720
 0.3670	 4.9680
 0.3680	 4.9420
 0.3690	 4.9850
 0.3700	 5.0130
 0.3710	 4.9970
 0.3720	 4.9440
 0.3730	 4.8820
 0.3740	 5.0240
 0.3750	 5.1560
 0.3760	 5.0300
 0.3770	 4.9590
 0.3780	 4.9400
 0.3790	 4.9490
 0.3800	 4.9510
 0.3810	 4.9590
 0.3820	 4.9410
 0.3830	 4.9130
 0.3840	 5.0090
 0.3850	 5.0500
 0.3860	 5.0130
 0.3870	 4.9580
 0.3880	 5.0140
 0.3890	 5.0650
 0.3900	 5.0890
 0.3910	 5.1740
 0.3920	 5.1410
 0.3930	 5.0750
 0.3940	 5.0630
 0.3950	 5.0650
 0.3960	 5.1140
 0.3970	 5.1870
 0.3980	 5.2370
 0.3990	 5.2580
 0.4000	 5.2760
 0.4010	 5.3040
 0.4020	 5.3350
 0.4030	 5.3450
 0.4040	 5.3870
 0.4050	 5.4850
 0.4060	 5.4910
 0.4070	 5.5110
 0.4080	 5.5710
 0.4090	 5.6450
 0.4100	 5.7210
 0.4110	 5.7650
 0.4120	 5.7770
 0.4130	 5.8190
 0.4140	 5.8900
 0.4150	 5.9590
 0.4160	 5.9950
 0.4170	 6.0380
 0.4180	 6.1040
 0.4190	 6.1750
 0.4200	 6.2140
 0.4210	 6.2820
 0.4220	 6.3590
 0.4230	 6.4150
 0.4240	 6.4390
 0.4250	 6.4790
 0.4260	 6.5370
 0.4270	 6.5900
 0.4280	 6.6410
 0.4290	 6.6780
 0.4300	 6.7040
 0.4310	 6.7380
 0.4320	 6.7770
 0.4330	 6.8130
 0.4340	 6.8400
 0.4350	 6.8740
 0.4360	 6.9120
 0.4370	 6.9500
 0.4380	 6.9810
 0.4390	 6.9740
 0.4400	 6.9820
 0.4410	 7.0260
 0.4420	 7.0430
 0.4430	 7.0600
 0.4440	 7.0670
 0.4450	 7.0540
 0.4460	 7.0700
 0.4470	 7.0980
 0.4480	 7.1270
 0.4490	 7.1510
 0.4500	 7.1680
 0.4510	 7.1780
 0.4520	 7.1850
 0.4530	 7.1930
 0.4540	 7.2050
 0.4550	 7.2170
 0.4560	 7.2250
 0.4570	 7.2280
 0.4580	 7.2340
 0.4590	 7.2460
 0.4600	 7.2580
 0.4610	 7.2600
 0.4620	 7.2560
 0.4630	 7.2570
 0.4640	 7.2640
 0.4650	 7.2710
 0.4660	 7.2730
 0.4670	 7.2690
 0.4680	 7.2690
 0.4690	 7.2690
 0.4700	 7.2660
 0.4710	 7.2760
 0.4720	 7.2760
 0.4730	 7.2690
 0.4740	 7.2700
 0.4750	 7.2570
 0.4760	 7.2570
 0.4770	 7.2760
 0.4780	 7.2790
 0.4790	 7.2780
 0.4800	 7.2760
 0.4810	 7.2720
 0.4820	 7.2710
 0.4830	 7.2760
 0.4840	 7.2860
 0.4850	 7.2970
 0.4860	 7.3050
 0.4870	 7.3100
 0.4880	 7.3110
 0.4890	 7.3140
 0.4900	 7.3280
 0.4910	 7.3440
 0.4920	 7.3500
 0.4930	 7.3680
 0.4940	 7.3870
 0.4950	 7.4010
 0.4960	 7.4160
 0.4970	 7.4460
 0.4980	 7.4760
 0.4990	 7.4950
 0.5000	 7.5380
 0.5010	 7.5760
 0.5020	 7.6070
 0.5030	 7.6510
 0.5040	 7.7110
 0.5050	 7.7760
 0.5060	 7.8430
 0.5070	 7.9200
 0.5080	 8.0110
 0.5090	 8.1110
 0.5100	 8.2160
 0.5110	 8.3340
 0.5120	 8.4680
 0.5130	 8.6190
 0.5140	 8.7830
 0.5150	 8.9610
 0.5160	 9.1550
 0.5170	 9.3650
 0.5180	 9.5760
 0.5190	 9.7980
 0.5200	10.0360
 0.5210	10.2860
 0.5220	10.5390
 0.5230	10.7880
 0.5240	11.0300
 0.5250	11.2740
 0.5260	11.5150
 0.5270	11.7490
 0.5280	11.9680
 0.5290	12.1740
 0.5300	12.3700
 0.5310	12.5530
 0.5320	12.7170
 0.5330	12.8700
 0.5340	13.0120
 0.5350	13.1420
 0.5360	13.2550
 0.5370	13.3600
 0.5380	13.4590
 0.5390	13.5480
 0.5400	13.6350
 0.5410	13.7200
 0.5420	13.8040
 0.5430	13.8870
 0.5440	13.9550
 0.5450	14.0130
 0.5460	14.0700
 0.5470	14.1100
 0.5480	14.1480
 0.5490	14.1900
 0.5500	14.2310
 0.5510	14.2540
 0.5520	14.2590
 0.5530	14.2500
 0.5540	14.2230
 0.5550	14.1840
 0.5560	14.1320
 0.5570	14.0700
 0.5580	13.9900
 0.5590	13.9010
 0.5600	13.8060
 0.5610	13.6990
 0.5620	13.5900
 0.5630	13.4760
 0.5640	13.3470
 0.5650	13.2080
 0.5660	13.0630
 0.5670	12.9130
 0.5680	12.7570
 0.5690	12.5920
 0.5700	12.4220
 0.5710	12.2500
 0.5720	12.0730
 0.5730	11.9040
 0.5740	11.7490
 0.5750	11.6070
 0.5760	11.4780
 0.5770	11.3620
 0.5780	11.2590
 0.5790	11.1730
 0.5800	11.0960
 0.5810	11.0170
 0.5820	10.9280
 0.5830	10.8320
 0.5840	10.7390
 0.5850	10.6550
 0.5860	10.5770
 0.5870	10.5060
 0.5880	10.4430
 0.5890	10.3930
 0.5900	10.3490
 0.5910	10.3110
 0.5920	10.2770
 0.5930	10.2430
 0.5940	10.2090
 0.5950	10.1780
 0.5960	10.1480
 0.5970	10.1200
 0.5980	10.0920
 0.5990	10.0600
 0.6000	10.0220
 0.6010	 9.9740
 0.6020	 9.9300
 0.6030	 9.8910
 0.6040	 9.8440
 0.6050	 9.7890
 0.6060	 9.7280
 0.6070	 9.6660
 0.6080	 9.5990
 0.6090	 9.5280
 0.6100	 9.4570
 0.6110	 9.3880
 0.6120	 9.3110
 0.6130	 9.2280
 0.6140	 9.1440
 0.6150	 9.0680
 0.6160	 9.0000
 0.6170	 8.9350
 0.6180	 8.8730
 0.6190	 8.8190
 0.6200	 8.7740
 0.6210	 8.7340
 0.6220	 8.6930
 0.6230	 8.6560
 0.6240	 8.6260
 0.6250	 8.6040
 0.6260	 8.5820
 0.6270	 8.5680
 0.6280	 8.5580
 0.6290	 8.5440
 0.6300	 8.5330
 0.6310	 8.5220
 0.6320	 8.5100
 0.6330	 8.4940
 0.6340	 8.4740
 0.6350	 8.4460
 0.6360	 8.4080
 0.6370	 8.3650
 0.6380	 8.3170
 0.6390	 8.2630
 0.6400	 8.2030
 0.6410	 8.1380
 0.6420	 8.0700
 0.6430	 8.0020
 0.6440	 7.9340
 0.6450	 7.8650
 0.6460	 7.7980
 0.6470	 7.7380
 0.6480	 7.6830
 0.6490	 7.6320
 0.6500	 7.5860
 0.6510	 7.5500
 0.6520	 7.5180
 0.6530	 7.4890
 0.6540	 7.4570
 0.6550	 7.4200
 0.6560	 7.3900
 0.6570	 7.3560
 0.6580	 7.3080
 0.6590	 7.2640
 0.6600	 7.2190
 0.6610	 7.1750
 0.6620	 7.1410
 0.6630	 7.1070
 0.6640	 7.0740
 0.6650	 7.0460
 0.6660	 7.0220
 0.6670	 7.0060
 0.6680	 6.9970
 0.6690	 6.9880
 0.6700	 6.9850
 0.6710	 6.9880
 0.6720	 6.9930
 0.6730	 6.9950
 0.6740	 7.0020
 0.6750	 7.0150
 0.6760	 7.0320
 0.6770	 7.0460
 0.6780	 7.0660
 0.6790	 7.0940
 0.6800	 7.1200
 0.6810	 7.1510
 0.6820	 7.1870
 0.6830	 7.2300
 0.6840	 7.2770
 0.6850	 7.3340
 0.6860	 7.4040
 0.6870	 7.4920
 0.6880	 7.6050
 0.6890	 7.7550
 0.6900	 7.9490
 0.6910	 8.1880
 0.6920	 8.4910
 0.6930	 8.8640
 0.6940	 9.3100
 0.6950	 9.8290
 0.6960	10.4180
 0.6970	11.0790
 0.6980	11.8090
 0.6990	12.5950
 0.7000	13.4290
 0.7010	14.3050
 0.7020	15.2140
 0.7030	16.1440
 0.7040	17.0860
 0.7050	18.0320
 0.7060	18.9760
 0.7070	19.9170
 0.7080	20.8530
 0.7090	21.7850
 0.7100	22.7080
 0.7110	23.6210
 0.7120	24.5230
 0.7130	25.4130
 0.7140	26.2880
 0.7150	27.1500
 0.7160	28.0000
 0.7170	28.8440
 0.7180	29.6640
 0.7190	30.4600
 0.7200	31.2440
 0.7210	32.0070
 0.7220	32.7460
 0.7230	33.4620
 0.7240	34.1570
 0.7250	34.8250
 0.7260	35.4680
 0.7270	36.0860
 0.7280	36.6680
 0.7290	37.2260
 0.7300	37.7600
 0.7310	38.2660
 0.7320	38.7440
 0.7330	39.1970
 0.7340	39.6270
 0.7350	40.0310
 0.7360	40.4090
 0.7370	40.7660
 0.7380	41.1030
 0.7390	41.4180
 0.7400	41.7070
 0.7410	41.9780
 0.7420	42.2360
 0.7430	42.4730
 0.7440	42.6920
 0.7450	42.8970
 0.7460	43.0860
 0.7470	43.2590
 0.7480	43.4170
 0.7490	43.5600
 0.7500	43.6930
 0.7510	43.8130
 0.7520	43.9230
 0.7530	44.0290
 0.7540	44.1210
 0.7550	44.2030
 0.7560	44.2810
 0.7570	44.3580
 0.7580	44.4240
 0.7590	44.4820
 0.7600	44.5350
 0.7610	44.5870
 0.7620	44.6370
 0.7630	44.6820
 0.7640	44.7180
 0.7650	44.7490
 0.7660	44.7820
 0.7670	44.8150
 0.7680	44.8430
 0.7690	44.8720
 0.7700	44.8970
 0.7710	44.9170
 0.7720	44.9410
 0.7730	44.9630
 0.7740	44.9810
 0.7750	44.9980
 0.7760	45.0240
 0.7770	45.0450
 0.7780	45.0620
 0.7790	45.0790
 0.7800	45.0950
 0.7810	45.1160
 0.7820	45.1370
 0.7830	45.1460
 0.7840	45.1640
 0.7850	45.1800
 0.7860	45.1900
 0.7870	45.2090
 0.7880	45.2240
 0.7890	45.2360
 0.7900	45.2510
 0.7910	45.2690
 0.7920	45.2820
 0.7930	45.2900
 0.7940	45.2970
 0.7950	45.3090
 0.7960	45.3230
 0.7970	45.3350
 0.7980	45.3380
 0.7990	45.3480
 0.8000	45.3580
 0.8010	45.3630
 0.8020	45.3670
 0.8030	45.3730
 0.8040	45.3790
 0.8050	45.3820
 0.8060	45.3840
 0.8070	45.3870
 0.8080	45.3910
 0.8090	45.3920
 0.8100	45.3900
 0.8110	45.3880
 0.8120	45.3890
 0.8130	45.3910
 0.8140	45.3900
 0.8150	45.3860
 0.8160	45.3830
 0.8170	45.3820
 0.8180	45.3840
 0.8190	45.3830
 0.8200	45.3740
 0.8210	45.3730
 0.8220	45.3690
 0.8230	45.3630
 0.8240	45.3610
 0.8250	45.3600
 0.8260	45.3530
 0.8270	45.3420
 0.8280	45.3440
 0.8290	45.3380
 0.8300	45.3280
 0.8310	45.3200
 0.8320	45.3150
 0.8330	45.3120
 0.8340	45.3080
 0.8350	45.3050
 0.8360	45.3010
 0.8370	45.3010
 0.8380	45.3030
 0.8390	45.3010
 0.8400	45.2980
 0.8410	45.2950
 0.8420	45.2940
 0.8430	45.2990
 0.8440	45.3050
 0.8450	45.3050
 0.8460	45.2990
 0.8470	45.3020
 0.8480	45.3110
 0.8490	45.3180
 0.8500	45.3150
 0.8510	45.3140
 0.8520	45.3190
 0.8530	45.3260
 0.8540	45.3260
 0.8550	45.3250
 0.8560	45.3290
 0.8570	45.3370
 0.8580	45.3400
 0.8590	45.3470
 0.8600	45.3530
 0.8610	45.3570
 0.8620	45.3680
 0.8630	45.3710
 0.8640	45.3730
 0.8650	45.3820
 0.8660	45.3900
 0.8670	45.3930
 0.8680	45.3960
 0.8690	45.4060
 0.8700	45.4150
 0.8710	45.4180
 0.8720	45.4200
 0.8730	45.4310
 0.8740	45.4470
 0.8750	45.4600
 0.8760	45.4660
 0.8770	45.4710
 0.8780	45.4760
 0.8790	45.4820
 0.8800	45.4860
 0.8810	45.4870
 0.8820	45.5010
 0.8830	45.5120
 0.8840	45.5120
 0.8850	45.5280
 0.8860	45.5380
 0.8870	45.5410
 0.8880	45.5460
 0.8890	45.5580
 0.8900	45.5720
 0.8910	45.5810
 0.8920	45.5860
 0.8930	45.5970
 0.8940	45.6070
 0.8950	45.6150
 0.8960	45.6210
 0.8970	45.6210
 0.8980	45.6240
 0.8990	45.6330
 0.9000	45.6450
 0.9010	45.6500
 0.9020	45.6520
 0.9030	45.6540
 0.9040	45.6510
 0.9050	45.6670
 0.9060	45.6900
 0.9070	45.7030
 0.9080	45.7050
 0.9090	45.7100
 0.9100	45.7130
 0.9110	45.7130
 0.9120	45.7300
 0.9130	45.7420
 0.9140	45.7430
 0.9150	45.7380
 0.9160	45.7370
 0.9170	45.7380
 0.9180	45.7440
 0.9190	45.7570
 0.9200	45.7600
 0.9210	45.7470
 0.9220	45.7360
 0.9230	45.7480
 0.9240	45.7470
 0.9250	45.7420
 0.9260	45.7350
 0.9270	45.7240
 0.9280	45.7190
 0.9290	45.7120
 0.9300	45.7000
 0.9310	45.6840
 0.9320	45.6730
 0.9330	45.6650
 0.9340	45.6590
 0.9350	45.6560
 0.9360	45.6350
 0.9370	45.6120
 0.9380	45.5920
 0.9390	45.5570
 0.9400	45.5420
 0.9410	45.5320
 0.9420	45.5100
 0.9430	45.4730
 0.9440	45.4440
 0.9450	45.4160
 0.9460	45.3790
 0.9470	45.3530
 0.9480	45.3130
 0.9490	45.2670
 0.9500	45.2220
 0.9510	45.1740
 0.9520	45.1210
 0.9530	45.0680
 0.9540	45.0180
 0.9550	44.9540
 0.9560	44.8930
 0.9570	44.8390
 0.9580	44.7890
 0.9590	44.7550
 0.9600	44.7110
 0.9610	44.6780
 0.9620	44.6710
 0.9630	44.6300
 0.9640	44.6040
 0.9650	44.5860
 0.9660	44.5570
 0.9670	44.5340
 0.9680	44.5240
 0.9690	44.5080
 0.9700	44.4760
 0.9710	44.4860
 0.9720	44.4820
 0.9730	44.4710
 0.9740	44.4780
 0.9750	44.4870
 0.9760	44.4830
 0.9770	44.4670
 0.9780	44.4490
 0.9790	44.4630
 0.9800	44.4500
 0.9810	44.4380
 0.9820	44.4760
 0.9830	44.4980
 0.9840	44.4840
 0.9850	44.4690
 0.9860	44.4960
 0.9870	44.5210
 0.9880	44.5240
 0.9890	44.5270
 0.9900	44.5520
 0.9910	44.5280
 0.9920	44.5640
 0.9930	44.6000
 0.9940	44.6360
 0.9950	44.6720
 0.9960	44.7080
 0.9970	44.7440
 0.9980	44.7800
 0.9990	44.8160
 1.0000	44.8520
 1.0010	44.8880
 1.0020	44.9240
 1.0030	44.9600
 1.0040	44.9960
 1.0050	45.0320
 1.0060	45.0680
 1.0070	45.1040
 1.0080	45.1400
 1.0090	45.1760
 1.0100	45.1760
 1.0110	45.1890
 1.0120	45.2040
 1.0130	45.2120
 1.0140	45.2260
 1.0150	45.2460
 1.0160	45.2670
 1.0170	45.2850
 1.0180	45.3010
 1.0190	45.3140
 1.0200	45.3280
 1.0210	45.3430
 1.0220	45.3580
 1.0230	45.3750
 1.0240	45.3950
 1.0250	45.4110
 1.0260	45.4270
 1.0270	45.4410
 1.0280	45.4480
 1.0290	45.4610
 1.0300	45.4790
 1.0310	45.4940
 1.0320	45.5130
 1.0330	45.5330
 1.0340	45.5450
 1.0350	45.5540
 1.0360	45.5610
 1.0370	45.5670
 1.0380	45.5770
 1.0390	45.5880
 1.0400	45.6000
 1.0410	45.6170
 1.0420	45.6280
 1.0430	45.6360
 1.0440	45.6450
 1.0450	45.6540
 1.0460	45.6630
 1.0470	45.6730
 1.0480	45.6820
 1.0490	45.6880
 1.0500	45.6950
 1.0510	45.7040
 1.0520	45.7130
 1.0530	45.7210
 1.0540	45.7300
 1.0550	45.7370
 1.0560	45.7420
 1.0570	45.7470
 1.0580	45.7510
 1.0590	45.7550
 1.0600	45.7590
 1.0610	45.7610
 1.0620	45.7630
 1.0630	45.7640
 1.0640	45.7660
 1.0650	45.7660
 1.0660	45.7660
 1.0670	45.7670
 1.0680	45.7680
 1.0690	45.7690
 1.0700	45.7700
 1.0710	45.7710
 1.0720	45.7710
 1.0730	45.7700
 1.0740	45.7680
 1.0750	45.7660
 1.0760	45.7640
 1.0770	45.7610
 1.0780	45.7590
 1.0790	45.7570
 1.0800	45.7530
 1.0810	45.7460
 1.0820	45.7420
 1.0830	45.7380
 1.0840	45.7340
 1.0850	45.7290
 1.0860	45.7260
 1.0870	45.7200
 1.0880	45.7130
 1.0890	45.7050
 1.0900	45.6960
 1.0910	45.6880
 1.0920	45.6810
 1.0930	45.6720
 1.0940	45.6620
 1.0950	45.6530
 1.0960	45.6390
 1.0970	45.6300
 1.0980	45.6260
 1.0990	45.6170
 1.1000	45.6090
 1.1010	45.5980
 1.1020	45.5850
 1.1030	45.5720
 1.1040	45.5620
 1.1050	45.5510
 1.1060	45.5400
 1.1070	45.5300
 1.1080	45.5180
 1.1090	45.5040
 1.1100	45.4910
 1.1110	45.4760
 1.1120	45.4620
 1.1130	45.4490
 1.1140	45.4330
 1.1150	45.4150
 1.1160	45.3960
 1.1170	45.3740
 1.1180	45.3520
 1.1190	45.3300
 1.1200	45.3090
 1.1210	45.2850
 1.1220	45.2600
 1.1230	45.2300
 1.1240	45.1950
 1.1250	45.1560
 1.1260	45.1120
 1.1270	45.0650
 1.1280	45.0140
 1.1290	44.9580
 1.1300	44.8960
 1.1310	44.8290
 1.1320	44.7570
 1.1330	44.6780
 1.1340	44.5950
 1.1350	44.5040
 1.1360	44.4060
 1.1370	44.3020
 1.1380	44.1900
 1.1390	44.0720
 1.1400	43.9510
 1.1410	43.8270
 1.1420	43.7020
 1.1430	43.5770
 1.1440	43.4530
 1.1450	43.3260
 1.1460	43.2030
 1.1470	43.0800
 1.1480	42.9630
 1.1490	42.8490
 1.1500	42.7440
 1.1510	42.6440
 1.1520	42.5510
 1.1530	42.4640
 1.1540	42.3850
 1.1550	42.3130
 1.1560	42.2480
 1.1570	42.1910
 1.1580	42.1400
 1.1590	42.0960
 1.1600	42.0580
 1.1610	42.0260
 1.1620	41.9980
 1.1630	41.9740
 1.1640	41.9520
 1.1650	41.9330
 1.1660	41.9170
 1.1670	41.9040
 1.1680	41.8960
 1.1690	41.8870
 1.1700	41.8810
 1.1710	41.8740
 1.1720	41.8690
 1.1730	41.8620
 1.1740	41.8560
 1.1750	41.8480
 1.1760	41.8400
 1.1770	41.8320
 1.1780	41.8240
 1.1790	41.8160
 1.1800	41.8070
 1.1810	41.7970
 1.1820	41.7870
 1.1830	41.7760
 1.1840	41.7650
 1.1850	41.7560
 1.1860	41.7460
 1.1870	41.7370
 1.1880	41.7300
 1.1890	41.7250
 1.1900	41.7200
 1.1910	41.7170
 1.1920	41.7140
 1.1930	41.7110
 1.1940	41.7090
 1.1950	41.7060
 1.1960	41.7070
 1.1970	41.7070
 1.1980	41.7100
 1.1990	41.7170
 1.2000	41.7220
 1.2010	41.7260
 1.2020	41.7330
 1.2030	41.7410
 1.2040	41.7500
 1.2050	41.7620
 1.2060	41.7720
 1.2070	41.7820
 1.2080	41.7920
 1.2090	41.8020
 1.2100	41.8140
 1.2110	41.8270
 1.2120	41.8390
 1.2130	41.8530
 1.2140	41.8680
 1.2150	41.8840
 1.2160	41.9010
 1.2170	41.9180
 1.2180	41.9360
 1.2190	41.9550
 1.2200	41.9730
 1.2210	41.9910
 1.2220	42.0090
 1.2230	42.0250
 1.2240	42.0430
 1.2250	42.0620
 1.2260	42.0800
 1.2270	42.0990
 1.2280	42.1180
 1.2290	42.1330
 1.2300	42.1470
 1.2310	42.1630
 1.2320	42.1770
 1.2330	42.1920
 1.2340	42.2060
 1.2350	42.2200
 1.2360	42.2340
 1.2370	42.2490
 1.2380	42.2610
 1.2390	42.2730
 1.2400	42.2840
 1.2410	42.2930
 1.2420	42.3010
 1.2430	42.3110
 1.2440	42.3210
 1.2450	42.3310
 1.2460	42.3430
 1.2470	42.3540
 1.2480	42.3640
 1.2490	42.3750
 1.2500	42.3820
 1.2510	42.3880
 1.2520	42.3910
 1.2530	42.3950
 1.2540	42.3990
 1.2550	42.4060
 1.2560	42.4130
 1.2570	42.4160
 1.2580	42.4190
 1.2590	42.4200
 1.2600	42.4170
 1.2610	42.4160
 1.2620	42.4170
 1.2630	42.4150
 1.2640	42.4110
 1.2650	42.4100
 1.2660	42.4060
 1.2670	42.4010
 1.2680	42.3980
 1.2690	42.3920
 1.2700	42.3830
 1.2710	42.3730
 1.2720	42.3610
 1.2730	42.3500
 1.2740	42.3390
 1.2750	42.3270
 1.2760	42.3140
 1.2770	42.2970
 1.2780	42.2810
 1.2790	42.2660
 1.2800	42.2500
 1.2810	42.2330
 1.2820	42.2140
 1.2830	42.1930
 1.2840	42.1720
 1.2850	42.1470
 1.2860	42.1220
 1.2870	42.0950
 1.2880	42.0670
 1.2890	42.0360
 1.2900	42.0030
 1.2910	41.9690
 1.2920	41.9330
 1.2930	41.8950
 1.2940	41.8560
 1.2950	41.8160
 1.2960	41.7730
 1.2970	41.7260
 1.2980	41.6770
 1.2990	41.6280
 1.3000	41.5770
 1.3010	41.5260
 1.3020	41.4730
 1.3030	41.4150
 1.3040	41.3530
 1.3050	41.2890
 1.3060	41.2230
 1.3070	41.1540
 1.3080	41.0840
 1.3090	41.0110
 1.3100	40.9340
 1.3110	40.8540
 1.3120	40.7720
 1.3130	40.6870
 1.3140	40.6010
 1.3150	40.5150
 1.3160	40.4250
 1.3170	40.3330
 1.3180	40.2380
 1.3190	40.1400
 1.3200	40.0360
 1.3210	39.9300
 1.3220	39.8220
 1.3230	39.7100
 1.3240	39.5940
 1.3250	39.4790
 1.3260	39.3620
 1.3270	39.2450
 1.3280	39.1260
 1.3290	39.0040
 1.3300	38.8800
 1.3310	38.7540
 1.3320	38.6280
 1.3330	38.5030
 1.3340	38.3740
 1.3350	38.2430
 1.3360	38.1130
 1.3370	37.9800
 1.3380	37.8490
 1.3390	37.7200
 1.3400	37.5920
 1.3410	37.4640
 1.3420	37.3380
 1.3430	37.2110
 1.3440	37.0850
 1.3450	36.9600
 1.3460	36.8360
 1.3470	36.7140
 1.3480	36.5940
 1.3490	36.4740
 1.3500	36.3550
 1.3510	36.2360
 1.3520	36.1160
 1.3530	35.9970
 1.3540	35.8790
 1.3550	35.7600
 1.3560	35.6390
 1.3570	35.5180
 1.3580	35.3980
 1.3590	35.2740
 1.3600	35.1460
 1.3610	35.0150
 1.3620	34.8780
 1.3630	34.7370
 1.3640	34.5910
 1.3650	34.4370
 1.3660	34.2760
 1.3670	34.1050
 1.3680	33.9230
 1.3690	33.7290
 1.3700	33.5200
 1.3710	33.2990
 1.3720	33.0640
 1.3730	32.8120
 1.3740	32.5450
 1.3750	32.2590
 1.3760	31.9520
 1.3770	31.6260
 1.3780	31.2750
 1.3790	30.9020
 1.3800	30.5080
 1.3810	30.0880
 1.3820	29.6520
 1.3830	29.1970
 1.3840	28.7250
 1.3850	28.2350
 1.3860	27.7320
 1.3870	27.2070
 1.3880	26.6790
 1.3890	26.1370
 1.3900	25.5860
 1.3910	25.0380
 1.3920	24.4850
 1.3930	23.9310
 1.3940	23.3810
 1.3950	22.8300
 1.3960	22.2890
 1.3970	21.7600
 1.3980	21.2430
 1.3990	20.7480
 1.4000	20.2680
 1.4010	19.8020
 1.4020	19.3590
 1.4030	18.9310
 1.4040	18.5230
 1.4050	18.1390
 1.4060	17.7750
 1.4070	17.4370
 1.4080	17.1190
 1.4090	16.8210
 1.4100	16.5440
 1.4110	16.2850
 1.4120	16.0450
 1.4130	15.8260
 1.4140	15.6230
 1.4150	15.4380
 1.4160	15.2690
 1.4170	15.1130
 1.4180	14.9700
 1.4190	14.8390
 1.4200	14.7200
 1.4210	14.6120
 1.4220	14.5150
 1.4230	14.4280
 1.4240	14.3500
 1.4250	14.2790
 1.4260	14.2170
 1.4270	14.1600
 1.4280	14.1110
 1.4290	14.0670
 1.4300	14.0300
 1.4310	13.9970
 1.4320	13.9710
 1.4330	13.9480
 1.4340	13.9310
 1.4350	13.9160
 1.4360	13.9050
 1.4370	13.8980
 1.4380	13.8920
 1.4390	13.8910
 1.4400	13.8920
 1.4410	13.8960
 1.4420	13.9010
 1.4430	13.9090
 1.4440	13.9170
 1.4450	13.9260
 1.4460	13.9390
 1.4470	13.9530
 1.4480	13.9680
 1.4490	13.9840
 1.4500	14.0010
 1.4510	14.0180
 1.4520	14.0380
 1.4530	14.0590
 1.4540	14.0810
 1.4550	14.1050
 1.4560	14.1310
 1.4570	14.1600
 1.4580	14.1920
 1.4590	14.2270
 1.4600	14.2670
 1.4610	14.3090
 1.4620	14.3560
 1.4630	14.4070
 1.4640	14.4610
 1.4650	14.5200
 1.4660	14.5840
 1.4670	14.6530
 1.4680	14.7280
 1.4690	14.8060
 1.4700	14.8890
 1.4710	14.9760
 1.4720	15.0660
 1.4730	15.1600
 1.4740	15.2560
 1.4750	15.3530
 1.4760	15.4550
 1.4770	15.5600
 1.4780	15.6670
 1.4790	15.7770
 1.4800	15.8870
 1.4810	15.9990
 1.4820	16.1120
 1.4830	16.2270
 1.4840	16.3430
 1.4850	16.4600
 1.4860	16.5780
 1.4870	16.6970
 1.4880	16.8150
 1.4890	16.9330
 1.4900	17.0530
 1.4910	17.1730
 1.4920	17.2940
 1.4930	17.4160
 1.4940	17.5380
 1.4950	17.6620
 1.4960	17.7850
 1.4970	17.9080
 1.4980	18.0320
 1.4990	18.1550
 1.5000	18.2790
 1.5010	18.4040
 1.5020	18.5270
 1.5030	18.6490
 1.5040	18.7720
 1.5050	18.8920
 1.5060	19.0150
 1.5070	19.1380
 1.5080	19.2610
 1.5090	19.3840
 1.5100	19.5060
 1.5110	19.6270
 1.5120	19.7470
 1.5130	19.8660
 1.5140	19.9850
 1.5150	20.1030
 1.5160	20.2210
 1.5170	20.3400
 1.5180	20.4570
 1.5190	20.5740
 1.5200	20.6920
 1.5210	20.8050
 1.5220	20.9190
 1.5230	21.0330
 1.5240	21.1450
 1.5250	21.2570
 1.5260	21.3680
 1.5270	21.4760
 1.5280	21.5860
 1.5290	21.6950
 1.5300	21.8020
 1.5310	21.9100
 1.5320	22.0160
 1.5330	22.1200
 1.5340	22.2240
 1.5350	22.3280
 1.5360	22.4300
 1.5370	22.5310
 1.5380	22.6330
 1.5390	22.7340
 1.5400	22.8320
 1.5410	22.9320
 1.5420	23.0300
 1.5430	23.1240
 1.5440	23.2190
 1.5450	23.3140
 1.5460	23.4080
 1.5470	23.5020
 1.5480	23.5940
 1.5490	23.6850
 1.5500	23.7760
 1.5510	23.8640
 1.5520	23.9530
 1.5530	24.0400
 1.5540	24.1260
 1.5550	24.2120
 1.5560	24.2980
 1.5570	24.3820
 1.5580	24.4650
 1.5590	24.5470
 1.5600	24.6280
 1.5610	24.7070
 1.5620	24.7840
 1.5630	24.8620
 1.5640	24.9390
 1.5650	25.0170
 1.5660	25.0940
 1.5670	25.1680
 1.5680	25.2420
 1.5690	25.3140
 1.5700	25.3860
 1.5710	25.4580
 1.5720	25.5280
 1.5730	25.5980
 1.5740	25.6690
 1.5750	25.7390
 1.5760	25.8090
 1.5770	25.8770
 1.5780	25.9440
 1.5790	26.0110
 1.5800	26.0770
 1.5810	26.1440
 1.5820	26.2090
 1.5830	26.2740
 1.5840	26.3390
 1.5850	26.4020
 1.5860	26.4650
 1.5870	26.5270
 1.5880	26.5870
 1.5890	26.6480
 1.5900	26.7090
 1.5910	26.7690
 1.5920	26.8300
 1.5930	26.8900
 1.5940	26.9470
 1.5950	27.0070
 1.5960	27.0640
 1.5970	27.1200
 1.5980	27.1750
 1.5990	27.2290
 1.6000	27.2820
 1.6010	27.3360
 1.6020	27.3880
 1.6030	27.4400
 1.6040	27.4910
 1.6050	27.5400
 1.6060	27.5900
 1.6070	27.6380
 1.6080	27.6870
 1.6090	27.7350
 1.6100	27.7830
 1.6110	27.8290
 1.6120	27.8730
 1.6130	27.9170
 1.6140	27.9600
 1.6150	28.0020
 1.6160	28.0450
 1.6170	28.0870
 1.6180	28.1300
 1.6190	28.1710
 1.6200	28.2090
 1.6210	28.2480
 1.6220	28.2870
 1.6230	28.3240
 1.6240	28.3630
 1.6250	28.3990
 1.6260	28.4340
 1.6270	28.4680
 1.6280	28.5020
 1.6290	28.5360
 1.6300	28.5690
 1.6310	28.6010
 1.6320	28.6330
 1.6330	28.6630
 1.6340	28.6920
 1.6350	28.7200
 1.6360	28.7450
 1.6370	28.7700
 1.6380	28.7950
 1.6390	28.8190
 1.6400	28.8410
 1.6410	28.8620
 1.6420	28.8830
 1.6430	28.9020
 1.6440	28.9200
 1.6450	28.9350
 1.6460	28.9480
 1.6470	28.9590
 1.6480	28.9690
 1.6490	28.9770
 1.6500	28.9840
 1.6510	28.9910
 1.6520	28.9970
 1.6530	29.0010
 1.6540	29.0050
 1.6550	29.0080
 1.6560	29.0080
 1.6570	29.0080
 1.6580	29.0080
 1.6590	29.0070
 1.6600	29.0060
 1.6610	29.0060
 1.6620	29.0060
 1.6630	29.0050
 1.6640	29.0060
 1.6650	29.0080
 1.6660	29.0100
 1.6670	29.0120
 1.6680	29.0150
 1.6690	29.0180
 1.6700	29.0180
 1.6710	29.0170
 1.6720	29.0150
 1.6730	29.0100
 1.6740	29.0030
 1.6750	28.9950
 1.6760	28.9860
 1.6770	28.9750
 1.6780	28.9610
 1.6790	28.9440
 1.6800	28.9240
 1.6810	28.9000
 1.6820	28.8760
 1.6830	28.8500
 1.6840	28.8210
 1.6850	28.7920
 1.6860	28.7610
 1.6870	28.7280
 1.6880	28.6950
 1.6890	28.6590
 1.6900	28.6230
 1.6910	28.5850
 1.6920	28.5490
 1.6930	28.5140
 1.6940	28.4790
 1.6950	28.4450
 1.6960	28.4110
 1.6970	28.3760
 1.6980	28.3410
 1.6990	28.3070
 1.7000	28.2710
 1.7010	28.2330
 1.7020	28.1950
 1.7030	28.1570
 1.7040	28.1170
 1.7050	28.0770
 1.7060	28.0350
 1.7070	27.9900
 1.7080	27.9470
 1.7090	27.9030
 1.7100	27.8580
 1.7110	27.8130
 1.7120	27.7680
 1.7130	27.7240
 1.7140	27.6830
 1.7150	27.6420
 1.7160	27.5960
 1.7170	27.5510
 1.7180	27.5040
 1.7190	27.4570
 1.7200	27.4110
 1.7210	27.3660
 1.7220	27.3200
 1.7230	27.2730
 1.7240	27.2260
 1.7250	27.1780
 1.7260	27.1310
 1.7270	27.0850
 1.7280	27.0370
 1.7290	26.9890
 1.7300	26.9430
 1.7310	26.8980
 1.7320	26.8550
 1.7330	26.8110
 1.7340	26.7670
 1.7350	26.7220
 1.7360	26.6760
 1.7370	26.6300
 1.7380	26.5840
 1.7390	26.5360
 1.7400	26.4870
 1.7410	26.4380
 1.7420	26.3860
 1.7430	26.3330
 1.7440	26.2800
 1.7450	26.2260
 1.7460	26.1720
 1.7470	26.1160
 1.7480	26.0580
 1.7490	26.0010
 1.7500	25.9420
 1.7510	25.8820
 1.7520	25.8220
 1.7530	25.7610
 1.7540	25.6960
 1.7550	25.6340
 1.7560	25.5730
 1.7570	25.5130
 1.7580	25.4540
 1.7590	25.3940
 1.7600	25.3350
 1.7610	25.2740
 1.7620	25.2160
 1.7630	25.1590
 1.7640	25.1030
 1.7650	25.0520
 1.7660	25.0000
 1.7670	24.9480
 1.7680	24.8990
 1.7690	24.8520
 1.7700	24.8060
 1.7710	24.7620
 1.7720	24.7190
 1.7730	24.6750
 1.7740	24.6340
 1.7750	24.5940
 1.7760	24.5560
 1.7770	24.5210
 1.7780	24.4860
 1.7790	24.4510
 1.7800	24.4190
 1.7810	24.3870
 1.7820	24.3570
 1.7830	24.3300
 1.7840	24.3050
 1.7850	24.2820
 1.7860	24.2580
 1.7870	24.2350
 1.7880	24.2140
 1.7890	24.1940
 1.7900	24.1840
 1.7910	24.1710
 1.7920	24.1580
 1.7930	24.1470
 1.7940	24.1340
 1.7950	24.1250
 1.7960	24.1210
 1.7970	24.1160
 1.7980	24.1130
 1.7990	24.1090
 1.8000	24.1040
 1.8010	24.1010
 1.8020	24.0970
 1.8030	24.0970
 1.8040	24.0980
 1.8050	24.1000
 1.8060	24.1040
 1.8070	24.1030
 1.8080	24.1000
 1.8090	24.0990
 1.8100	24.0950
 1.8110	24.0940
 1.8120	24.0930
 1.8130	24.0900
 1.8140	24.0860
 1.8150	24.0830
 1.8160	24.0800
 1.8170	24.0790
 1.8180	24.0760
 1.8190	24.0740
 1.8200	24.0690
 1.8210	24.0580
 1.8220	24.0480
 1.8230	24.0360
 1.8240	24.0250
 1.8250	24.0170
 1.8260	24.0040
 1.8270	23.9380
 1.8280	23.8730
 1.8290	23.8070
 1.8300	23.7410
 1.8310	23.6760
 1.8320	23.6100
 1.8330	23.5440
 1.8340	23.4790
 1.8350	23.4790
 1.8360	23.4340
 1.8370	23.3840
 1.8380	23.3340
 1.8390	23.2760
 1.8400	23.2130
 1.8410	23.1420
 1.8420	23.0650
 1.8430	22.9850
 1.8440	22.8970
 1.8450	22.8010
 1.8460	22.7000
 1.8470	22.5880
 1.8480	22.4640
 1.8490	22.3330
 1.8500	22.1930
 1.8510	22.0440
 1.8520	21.8820
 1.8530	21.7090
 1.8540	21.5260
 1.8550	21.3290
 1.8560	21.1250
 1.8570	20.9110
 1.8580	20.6770
 1.8590	20.4310
 1.8600	20.1720
 1.8610	19.8990
 1.8620	19.6070
 1.8630	19.3080
 1.8640	18.9930
 1.8650	18.6580
 1.8660	18.3090
 1.8670	17.9410
 1.8680	17.5570
 1.8690	17.1590
 1.8700	16.7450
 1.8710	16.3140
 1.8720	15.8770
 1.8730	15.4290
 1.8740	14.9720
 1.8750	14.5130
 1.8760	14.0460
 1.8770	13.5810
 1.8780	13.1200
 1.8790	12.6540
 1.8800	12.1990
 1.8810	11.7490
 1.8820	11.3040
 1.8830	10.8620
 1.8840	10.4320
 1.8850	10.0110
 1.8860	 9.6000
 1.8870	 9.2070
 1.8880	 8.8300
 1.8890	 8.4750
 1.8900	 8.1400
 1.8910	 7.8240
 1.8920	 7.5250
 1.8930	 7.2500
 1.8940	 6.9920
 1.8950	 6.7540
 1.8960	 6.5360
 1.8970	 6.3360
 1.8980	 6.1560
 1.8990	 5.9910
 1.9000	 5.8410
 1.9010	 5.7100
 1.9020	 5.5900
 1.9030	 5.4840
 1.9040	 5.3910
 1.9050	 5.3090
 1.9060	 5.2340
 1.9070	 5.1710
 1.9080	 5.1150
 1.9090	 5.0670
 1.9100	 5.0260
 1.9110	 4.9860
 1.9120	 4.9500
 1.9130	 4.9190
 1.9140	 4.8930
 1.9150	 4.8720
 1.9160	 4.8560
 1.9170	 4.8440
 1.9180	 4.8340
 1.9190	 4.8260
 1.9200	 4.8180
 1.9210	 4.8130
 1.9220	 4.8100
 1.9230	 4.8080
 1.9240	 4.8080
 1.9250	 4.8110
 1.9260	 4.8140
 1.9270	 4.8180
 1.9280	 4.8230
 1.9290	 4.8280
 1.9300	 4.8360
 1.9310	 4.8460
 1.9320	 4.8550
 1.9330	 4.8660
 1.9340	 4.8790
 1.9350	 4.8920
 1.9360	 4.9050
 1.9370	 4.9200
 1.9380	 4.9360
 1.9390	 4.9520
 1.9400	 4.9700
 1.9410	 4.9890
 1.9420	 5.0090
 1.9430	 5.0290
 1.9440	 5.0500
 1.9450	 5.0740
 1.9460	 5.0960
 1.9470	 5.1190
 1.9480	 5.1430
 1.9490	 5.1680
 1.9500	 5.1920
 1.9510	 5.2190
 1.9520	 5.2450
 1.9530	 5.2720
 1.9540	 5.3010
 1.9550	 5.3310
 1.9560	 5.3610
 1.9570	 5.3920
 1.9580	 5.4220
 1.9590	 5.4550
 1.9600	 5.4910
 1.9610	 5.5260
 1.9620	 5.5620
 1.9630	 5.5990
 1.9640	 5.6360
 1.9650	 5.6720
 1.9660	 5.7090
 1.9670	 5.7460
 1.9680	 5.7840
 1.9690	 5.8190
 1.9700	 5.8580
 1.9710	 5.8990
 1.9720	 5.9410
 1.9730	 5.9840
 1.9740	 6.0300
 1.9750	 6.0750
 1.9760	 6.1200
 1.9770	 6.1670
 1.9780	 6.2130
 1.9790	 6.2590
 1.9800	 6.3060
 1.9810	 6.3530
 1.9820	 6.4000
 1.9830	 6.4490
 1.9840	 6.5020
 1.9850	 6.5530
 1.9860	 6.6040
 1.9870	 6.6570
 1.9880	 6.7100
 1.9890	 6.7620
 1.9900	 6.8160
 1.9910	 6.8710
 1.9920	 6.9240
 1.9930	 6.9760
 1.9940	 7.0310
 1.9950	 7.0910
 1.9960	 7.1470
 1.9970	 7.2030
 1.9980	 7.2600
 1.9990	 7.3150
 2.0000	 7.3690
 2.0010	 7.4260
 2.0020	 7.4840
 2.0030	 7.5390
 2.0040	 7.5970
 2.0050	 7.6540
 2.0060	 7.7110
 2.0070	 7.7690
 2.0080	 7.8270
 2.0090	 7.8850
 2.0100	 7.9460
 2.0110	 8.0040
 2.0120	 8.0620
 2.0130	 8.1160
 2.0140	 8.1720
 2.0150	 8.2280
 2.0160	 8.2820
 2.0170	 8.3380
 2.0180	 8.3930
 2.0190	 8.4450
 2.0200	 8.4990
 2.0210	 8.5540
 2.0220	 8.6090
 2.0230	 8.6640
 2.0240	 8.7170
 2.0250	 8.7700
 2.0260	 8.8210
 2.0270	 8.8680
 2.0280	 8.9150
 2.0290	 8.9660
 2.0300	 9.0170
 2.0310	 9.0660
 2.0320	 9.1160
 2.0330	 9.1630
 2.0340	 9.2070
 2.0350	 9.2520
 2.0360	 9.2950
 2.0370	 9.3390
 2.0380	 9.3830
 2.0390	 9.4260
 2.0400	 9.4720
 2.0410	 9.5150
 2.0420	 9.5550
 2.0430	 9.5960
 2.0440	 9.6360
 2.0450	 9.6750
 2.0460	 9.7150
 2.0470	 9.7560
 2.0480	 9.7970
 2.0490	 9.8380
 2.0500	 9.8780
 2.0510	 9.9170
 2.0520	 9.9570
 2.0530	 9.9960
 2.0540	10.0360
 2.0550	10.0770
 2.0560	10.1180
 2.0570	10.1550
 2.0580	10.1960
 2.0590	10.2360
 2.0600	10.2730
 2.0610	10.3150
 2.0620	10.3590
 2.0630	10.4020
 2.0640	10.4460
 2.0650	10.4880
 2.0660	10.5270
 2.0670	10.5690
 2.0680	10.6100
 2.0690	10.6520
 2.0700	10.6950
 2.0710	10.7380
 2.0720	10.7810
 2.0730	10.8230
 2.0740	10.8650
 2.0750	10.9080
 2.0760	10.9470
 2.0770	10.9820
 2.0780	11.0190
 2.0790	11.0530
 2.0800	11.0920
 2.0810	11.1330
 2.0820	11.1740
 2.0830	11.2170
 2.0840	11.2580
 2.0850	11.2970
 2.0860	11.3350
 2.0870	11.3730
 2.0880	11.4090
 2.0890	11.4450
 2.0900	11.4830
 2.0910	11.5190
 2.0920	11.5530
 2.0930	11.5900
 2.0940	11.6280
 2.0950	11.6650
 2.0960	11.7050
 2.0970	11.7420
 2.0980	11.7780
 2.0990	11.8140
 2.1000	11.8500
 2.1010	11.8850
 2.1020	11.9200
 2.1030	11.9540
 2.1040	11.9890
 2.1050	12.0230
 2.1060	12.0590
 2.1070	12.0940
 2.1080	12.1290
 2.1090	12.1670
 2.1100	12.2010
 2.1110	12.2360
 2.1120	12.2680
 2.1130	12.2980
 2.1140	12.3270
 2.1150	12.3540
 2.1160	12.3830
 2.1170	12.4140
 2.1180	12.4440
 2.1190	12.4760
 2.1200	12.5080
 2.1210	12.5370
 2.1220	12.5680
 2.1230	12.6000
 2.1240	12.6330
 2.1250	12.6620
 2.1260	12.6900
 2.1270	12.7170
 2.1280	12.7410
 2.1290	12.7650
 2.1300	12.7890
 2.1310	12.8140
 2.1320	12.8370
 2.1330	12.8610
 2.1340	12.8870
 2.1350	12.9110
 2.1360	12.9350
 2.1370	12.9570
 2.1380	12.9790
 2.1390	13.0000
 2.1400	13.0200
 2.1410	13.0410
 2.1420	13.0620
 2.1430	13.0830
 2.1440	13.1030
 2.1450	13.1230
 2.1460	13.1430
 2.1470	13.1630
 2.1480	13.1820
 2.1490	13.2010
 2.1500	13.2200
 2.1510	13.2390
 2.1520	13.2570
 2.1530	13.2750
 2.1540	13.2920
 2.1550	13.3070
 2.1560	13.3230
 2.1570	13.3400
 2.1580	13.3570
 2.1590	13.3740
 2.1600	13.3880
 2.1610	13.4020
 2.1620	13.4150
 2.1630	13.4280
 2.1640	13.4400
 2.1650	13.4530
 2.1660	13.4680
 2.1670	13.4810
 2.1680	13.4940
 2.1690	13.5070
 2.1700	13.5180
 2.1710	13.5320
 2.1720	13.5470
 2.1730	13.5630
 2.1740	13.5820
 2.1750	13.5990
 2.1760	13.6170
 2.1770	13.6340
 2.1780	13.6510
 2.1790	13.6670
 2.1800	13.6830
 2.1810	13.7000
 2.1820	13.7170
 2.1830	13.7330
 2.1840	13.7500
 2.1850	13.7680
 2.1860	13.7860
 2.1870	13.8070
 2.1880	13.8250
 2.1890	13.8440
 2.1900	13.8620
 2.1910	13.8780
 2.1920	13.8950
 2.1930	13.9140
 2.1940	13.9330
 2.1950	13.9550
 2.1960	13.9740
 2.1970	13.9940
 2.1980	14.0120
 2.1990	14.0260
 2.2000	14.0420
 2.2010	14.0590
 2.2020	14.0740
 2.2030	14.0890
 2.2040	14.1040
 2.2050	14.1180
 2.2060	14.1300
 2.2070	14.1450
 2.2080	14.1620
 2.2090	14.1750
 2.2100	14.1890
 2.2110	14.2000
 2.2120	14.2050
 2.2130	14.2160
 2.2140	14.2280
 2.2150	14.2390
 2.2160	14.2530
 2.2170	14.2610
 2.2180	14.2650
 2.2190	14.2680
 2.2200	14.2710
 2.2210	14.2710
 2.2220	14.2690
 2.2230	14.2670
 2.2240	14.2630
 2.2250	14.2570
 2.2260	14.2500
 2.2270	14.2420
 2.2280	14.2310
 2.2290	14.2190
 2.2300	14.2040
 2.2310	14.1900
 2.2320	14.1760
 2.2330	14.1570
 2.2340	14.1370
 2.2350	14.1180
 2.2360	14.0920
 2.2370	14.0600
 2.2380	14.0310
 2.2390	14.0000
 2.2400	13.9710
 2.2410	13.9440
 2.2420	13.9130
 2.2430	13.8820
 2.2440	13.8450
 2.2450	13.8020
 2.2460	13.7630
 2.2470	13.7200
 2.2480	13.6810
 2.2490	13.6490
 2.2500	13.6130
 2.2510	13.5790
 2.2520	13.5410
 2.2530	13.5010
 2.2540	13.4590
 2.2550	13.4130
 2.2560	13.3700
 2.2570	13.3270
 2.2580	13.2840
 2.2590	13.2420
 2.2600	13.2000
 2.2610	13.1570
 2.2620	13.1160
 2.2630	13.0720
 2.2640	13.0310
 2.2650	12.9880
 2.2660	12.9400
 2.2670	12.8960
 2.2680	12.8520
 2.2690	12.8100
 2.2700	12.7680
 2.2710	12.7280
 2.2720	12.6900
 2.2730	12.6520
 2.2740	12.6170
 2.2750	12.5780
 2.2760	12.5350
 2.2770	12.4940
 2.2780	12.4500
 2.2790	12.4080
 2.2800	12.3670
 2.2810	12.3280
 2.2820	12.2920
 2.2830	12.2530
 2.2840	12.2160
 2.2850	12.1770
 2.2860	12.1320
 2.2870	12.0930
 2.2880	12.0570
 2.2890	12.0210
 2.2900	11.9890
 2.2910	11.9510
 2.2920	11.9070
 2.2930	11.8670
 2.2940	11.8280
 2.2950	11.7880
 2.2960	11.7500
 2.2970	11.7080
 2.2980	11.6620
 2.2990	11.6150
 2.3000	11.5690
 2.3010	11.5300
 2.3020	11.4920
 2.3030	11.4510
 2.3040	11.4090
 2.3050	11.3640
 2.3060	11.3200
 2.3070	11.2790
 2.3080	11.2490
 2.3090	11.2190
 2.3100	11.1900
 2.3110	11.1630
 2.3120	11.1340
 2.3130	11.1010
 2.3140	11.0720
 2.3150	11.0440
 2.3160	11.0160
 2.3170	10.9880
 2.3180	10.9610
 2.3190	10.9370
 2.3200	10.9120
 2.3210	10.8880
 2.3220	10.8610
 2.3230	10.8330
 2.3240	10.8010
 2.3250	10.7630
 2.3260	10.7310
 2.3270	10.6990
 2.3280	10.6660
 2.3290	10.6400
 2.3300	10.6070
 2.3310	10.5700
 2.3320	10.5340
 2.3330	10.4980
 2.3340	10.4590
 2.3350	10.4210
 2.3360	10.3790
 2.3370	10.3280
 2.3380	10.2870
 2.3390	10.2510
 2.3400	10.2120
 2.3410	10.1780
 2.3420	10.1420
 2.3430	10.1050
 2.3440	10.0660
 2.3450	10.0260
 2.3460	 9.9910
 2.3470	 9.9560
 2.3480	 9.9190
 2.3490	 9.8840
 2.3500	 9.8510
 2.3510	 9.8110
 2.3520	 9.7790
 2.3530	 9.7530
 2.3540	 9.7320
 2.3550	 9.7060
 2.3560	 9.6820
 2.3570	 9.6570
 2.3580	 9.6250
 2.3590	 9.5910
 2.3600	 9.5560
 2.3610	 9.5200
 2.3620	 9.4850
 2.3630	 9.4570
 2.3640	 9.4380
 2.3650	 9.4130
 2.3660	 9.3800
 2.3670	 9.3530
 2.3680	 9.3160
 2.3690	 9.2750
 2.3700	 9.2400
 2.3710	 9.2010
 2.3720	 9.1570
 2.3730	 9.1190
 2.3740	 9.0850
 2.3750	 9.0540
 2.3760	 9.0240
 2.3770	 8.9920
 2.3780	 8.9640
 2.3790	 8.9260
 2.3800	 8.8850
 2.3810	 8.8520
 2.3820	 8.8120
 2.3830	 8.7730
 2.3840	 8.7380
 2.3850	 8.7050
 2.3860	 8.6700
 2.3870	 8.6350
 2.3880	 8.6010
 2.3890	 8.5620
 2.3900	 8.5290
 2.3910	 8.5010
 2.3920	 8.4690
 2.3930	 8.4290
 2.3940	 8.3860
 2.3950	 8.3400
 2.3960	 8.2970
 2.3970	 8.2600
 2.3980	 8.2200
 2.3990	 8.1850
 2.4000	 8.1440
 2.4010	 8.0990
 2.4020	 8.0680
 2.4030	 8.0240
 2.4040	 7.9860
 2.4050	 7.9510
 2.4060	 7.9110
 2.4070	 7.8820
 2.4080	 7.8490
 2.4090	 7.8030
 2.4100	 7.7520
 2.4110	 7.7120
 2.4120	 7.6780
 2.4130	 7.6510
 2.4140	 7.6250
 2.4150	 7.5860
 2.4160	 7.5410
 2.4170	 7.4950
 2.4180	 7.4650
 2.4190	 7.4380
 2.4200	 7.4040
 2.4210	 7.3790
 2.4220	 7.3430
 2.4230	 7.2960
 2.4240	 7.2560
 2.4250	 7.2120
 2.4260	 7.1760
 2.4270	 7.1360
 2.4280	 7.0850
 2.4290	 7.0410
 2.4300	 7.0000
 2.4310	 6.9630
 2.4320	 6.9310
 2.4330	 6.8980
 2.4340	 6.8760
 2.4350	 6.8600
 2.4360	 6.8420
 2.4370	 6.8150
 2.4380	 6.7770
 2.4390	 6.7400
 2.4400	 6.7000
 2.4410	 6.6450
 2.4420	 6.5860
 2.4430	 6.5320
 2.4440	 6.4810
 2.4450	 6.4510
 2.4460	 6.4300
 2.4470	 6.4020
 2.4480	 6.3640
 2.4490	 6.3230
 2.4500	 6.2880
 2.4510	 6.2510
 2.4520	 6.2250
 2.4530	 6.2030
 2.4540	 6.1790
 2.4550	 6.1510
 2.4560	 6.1180
 2.4570	 6.0890
 2.4580	 6.0590
 2.4590	 6.0380
 2.4600	 6.0080
 2.4610	 5.9690
 2.4620	 5.9580
 2.4630	 5.9410
 2.4640	 5.9120
 2.4650	 5.8960
 2.4660	 5.8700
 2.4670	 5.8390
 2.4680	 5.8190
 2.4690	 5.7960
 2.4700	 5.7730
 2.4710	 5.7320
 2.4720	 5.7060
 2.4730	 5.7070
 2.4740	 5.6840
 2.4750	 5.6400
 2.4760	 5.6220
 2.4770	 5.6040
 2.4780	 5.5950
 2.4790	 5.6170
 2.4800	 5.6270
 2.4810	 5.6320
 2.4820	 5.6080
 2.4830	 5.6150
 2.4840	 5.5930
 2.4850	 5.5740
 2.4860	 5.5700
 2.4870	 5.5270
 2.4880	 5.5130
 2.4890	 5.4910
 2.4900	 5.4670
 2.4910	 5.4890
 2.4920	 5.4900
 2.4930	 5.5090
 2.4940	 5.5410
 2.4950	 5.4990
 2.4960	 5.4620
 2.4970	 5.4280
 2.4980	 5.3430
 2.4990	 5.3310
 2.5000	 5.3920
