Name: Phyllostachys aurea
Type: vegetation
Class: Tree
Genus: Phyllostachys
Species: aurea
Sample No.: JPL089
Owner: JPL
Wavelength Range: VSWIR
Origin: 34.12517; - 118.1154; WGS84
Collection Date: 2/2/2016
Description: Samples were collected at the Huntington Garden in San Marino California as part of a JPL Subcontract studying HyTES imagery. Samples were taken to JPL and processed within 48 hours of collection. The same leaves were processed in the Nicolet and then measured using the ASD.
Measurement: Bidirectional reflectance
First Column: X
Second Column: Y
X Units: Wavelength (micrometer)
Y Units: Reflectance (percentage)
First X Value: 0.35
Last X Value: 2.5
Number of X Values: 2151
Additional Information: 

 0.3500	 4.7750
 0.3510	 6.8160
 0.3520	 5.4620
 0.3530	 3.3000
 0.3540	 3.1070
 0.3550	 3.6860
 0.3560	 4.1680
 0.3570	 4.3470
 0.3580	 4.3770
 0.3590	 4.3460
 0.3600	 4.3580
 0.3610	 4.2850
 0.3620	 3.6430
 0.3630	 3.7410
 0.3640	 4.2120
 0.3650	 4.3810
 0.3660	 4.1790
 0.3670	 3.7320
 0.3680	 3.6140
 0.3690	 4.5140
 0.3700	 4.8430
 0.3710	 4.2360
 0.3720	 3.2290
 0.3730	 3.8520
 0.3740	 4.2710
 0.3750	 4.1960
 0.3760	 3.9340
 0.3770	 4.0910
 0.3780	 3.9670
 0.3790	 3.7940
 0.3800	 4.5070
 0.3810	 4.6020
 0.3820	 4.6620
 0.3830	 5.0090
 0.3840	 4.5790
 0.3850	 4.3850
 0.3860	 4.1570
 0.3870	 3.4760
 0.3880	 3.9630
 0.3890	 4.4480
 0.3900	 4.4210
 0.3910	 4.2410
 0.3920	 4.4760
 0.3930	 4.5710
 0.3940	 4.2100
 0.3950	 4.2740
 0.3960	 4.3370
 0.3970	 4.2180
 0.3980	 3.9360
 0.3990	 4.0370
 0.4000	 4.3460
 0.4010	 4.5450
 0.4020	 4.2370
 0.4030	 4.1320
 0.4040	 4.1440
 0.4050	 4.1100
 0.4060	 4.4110
 0.4070	 4.2860
 0.4080	 3.9920
 0.4090	 4.3560
 0.4100	 4.6650
 0.4110	 4.6310
 0.4120	 4.3190
 0.4130	 4.2890
 0.4140	 4.2840
 0.4150	 4.2740
 0.4160	 4.2810
 0.4170	 4.2580
 0.4180	 4.2430
 0.4190	 4.2790
 0.4200	 4.3980
 0.4210	 4.4190
 0.4220	 4.4180
 0.4230	 4.4670
 0.4240	 4.5050
 0.4250	 4.4600
 0.4260	 4.4260
 0.4270	 4.5320
 0.4280	 4.5500
 0.4290	 4.4990
 0.4300	 4.4610
 0.4310	 4.5660
 0.4320	 4.5940
 0.4330	 4.5380
 0.4340	 4.4630
 0.4350	 4.4730
 0.4360	 4.5180
 0.4370	 4.5430
 0.4380	 4.5090
 0.4390	 4.5320
 0.4400	 4.5980
 0.4410	 4.6570
 0.4420	 4.6170
 0.4430	 4.5830
 0.4440	 4.5620
 0.4450	 4.5350
 0.4460	 4.5890
 0.4470	 4.6290
 0.4480	 4.6440
 0.4490	 4.7300
 0.4500	 4.7710
 0.4510	 4.7120
 0.4520	 4.5810
 0.4530	 4.6030
 0.4540	 4.6460
 0.4550	 4.6580
 0.4560	 4.6460
 0.4570	 4.6620
 0.4580	 4.7070
 0.4590	 4.7490
 0.4600	 4.7140
 0.4610	 4.6540
 0.4620	 4.6650
 0.4630	 4.7960
 0.4640	 4.7760
 0.4650	 4.7320
 0.4660	 4.7430
 0.4670	 4.8210
 0.4680	 4.8740
 0.4690	 4.8840
 0.4700	 4.8490
 0.4710	 4.7350
 0.4720	 4.7570
 0.4730	 4.8410
 0.4740	 4.7900
 0.4750	 4.8160
 0.4760	 4.8770
 0.4770	 4.9070
 0.4780	 4.8460
 0.4790	 4.8010
 0.4800	 4.7600
 0.4810	 4.7040
 0.4820	 4.7760
 0.4830	 4.8300
 0.4840	 4.8180
 0.4850	 4.7920
 0.4860	 4.8700
 0.4870	 4.9320
 0.4880	 4.9000
 0.4890	 4.9190
 0.4900	 4.8890
 0.4910	 4.8640
 0.4920	 4.9440
 0.4930	 4.9990
 0.4940	 5.0140
 0.4950	 5.0100
 0.4960	 5.0420
 0.4970	 5.0650
 0.4980	 5.1020
 0.4990	 5.1750
 0.5000	 5.2590
 0.5010	 5.3370
 0.5020	 5.3980
 0.5030	 5.4340
 0.5040	 5.5080
 0.5050	 5.6310
 0.5060	 5.7720
 0.5070	 5.8060
 0.5080	 5.9100
 0.5090	 6.0760
 0.5100	 6.2220
 0.5110	 6.3670
 0.5120	 6.5540
 0.5130	 6.7830
 0.5140	 6.9940
 0.5150	 7.2200
 0.5160	 7.4340
 0.5170	 7.6300
 0.5180	 7.9200
 0.5190	 8.1980
 0.5200	 8.4580
 0.5210	 8.7690
 0.5220	 9.0960
 0.5230	 9.3830
 0.5240	 9.6170
 0.5250	 9.8580
 0.5260	10.1410
 0.5270	10.4220
 0.5280	10.6380
 0.5290	10.8420
 0.5300	11.0450
 0.5310	11.2460
 0.5320	11.4290
 0.5330	11.5780
 0.5340	11.7130
 0.5350	11.8490
 0.5360	11.9440
 0.5370	12.0540
 0.5380	12.1890
 0.5390	12.3200
 0.5400	12.4200
 0.5410	12.5100
 0.5420	12.6040
 0.5430	12.6970
 0.5440	12.7760
 0.5450	12.8300
 0.5460	12.8570
 0.5470	12.8800
 0.5480	12.8750
 0.5490	12.8590
 0.5500	12.9090
 0.5510	12.9450
 0.5520	12.9570
 0.5530	12.9540
 0.5540	12.9390
 0.5550	12.8990
 0.5560	12.8410
 0.5570	12.7880
 0.5580	12.7240
 0.5590	12.6450
 0.5600	12.5520
 0.5610	12.4560
 0.5620	12.3260
 0.5630	12.1930
 0.5640	12.0920
 0.5650	11.9470
 0.5660	11.7910
 0.5670	11.6410
 0.5680	11.4920
 0.5690	11.3330
 0.5700	11.1670
 0.5710	10.9960
 0.5720	10.8120
 0.5730	10.6470
 0.5740	10.5100
 0.5750	10.3830
 0.5760	10.2510
 0.5770	10.1360
 0.5780	10.0400
 0.5790	 9.9080
 0.5800	 9.7910
 0.5810	 9.6970
 0.5820	 9.6140
 0.5830	 9.5240
 0.5840	 9.4610
 0.5850	 9.4100
 0.5860	 9.3100
 0.5870	 9.2340
 0.5880	 9.1820
 0.5890	 9.1360
 0.5900	 9.0910
 0.5910	 9.0320
 0.5920	 8.9750
 0.5930	 8.9480
 0.5940	 8.9100
 0.5950	 8.8620
 0.5960	 8.8230
 0.5970	 8.8340
 0.5980	 8.8120
 0.5990	 8.7700
 0.6000	 8.7370
 0.6010	 8.6830
 0.6020	 8.6400
 0.6030	 8.6100
 0.6040	 8.5630
 0.6050	 8.5200
 0.6060	 8.4540
 0.6070	 8.3540
 0.6080	 8.2720
 0.6090	 8.1930
 0.6100	 8.1330
 0.6110	 8.1060
 0.6120	 8.0290
 0.6130	 7.9220
 0.6140	 7.8130
 0.6150	 7.7280
 0.6160	 7.6380
 0.6170	 7.5510
 0.6180	 7.4810
 0.6190	 7.4510
 0.6200	 7.4060
 0.6210	 7.3350
 0.6220	 7.2670
 0.6230	 7.2320
 0.6240	 7.2050
 0.6250	 7.1720
 0.6260	 7.1580
 0.6270	 7.1470
 0.6280	 7.1460
 0.6290	 7.1650
 0.6300	 7.1560
 0.6310	 7.1220
 0.6320	 7.0850
 0.6330	 7.0810
 0.6340	 7.0810
 0.6350	 7.0630
 0.6360	 7.0150
 0.6370	 6.9490
 0.6380	 6.8950
 0.6390	 6.8470
 0.6400	 6.7810
 0.6410	 6.7140
 0.6420	 6.6360
 0.6430	 6.5500
 0.6440	 6.4870
 0.6450	 6.4010
 0.6460	 6.3050
 0.6470	 6.2290
 0.6480	 6.1810
 0.6490	 6.1380
 0.6500	 6.0840
 0.6510	 6.0200
 0.6520	 5.9760
 0.6530	 5.9350
 0.6540	 5.8890
 0.6550	 5.8690
 0.6560	 5.8440
 0.6570	 5.8010
 0.6580	 5.7380
 0.6590	 5.6980
 0.6600	 5.6420
 0.6610	 5.5670
 0.6620	 5.5090
 0.6630	 5.4630
 0.6640	 5.4220
 0.6650	 5.3790
 0.6660	 5.3290
 0.6670	 5.3030
 0.6680	 5.2970
 0.6690	 5.2910
 0.6700	 5.2600
 0.6710	 5.2370
 0.6720	 5.2430
 0.6730	 5.2670
 0.6740	 5.2620
 0.6750	 5.2620
 0.6760	 5.2990
 0.6770	 5.3150
 0.6780	 5.3360
 0.6790	 5.3690
 0.6800	 5.4130
 0.6810	 5.4710
 0.6820	 5.5120
 0.6830	 5.5460
 0.6840	 5.6500
 0.6850	 5.7530
 0.6860	 5.8500
 0.6870	 5.9620
 0.6880	 6.1130
 0.6890	 6.3080
 0.6900	 6.5530
 0.6910	 6.8520
 0.6920	 7.1980
 0.6930	 7.5960
 0.6940	 8.0630
 0.6950	 8.6440
 0.6960	 9.2600
 0.6970	 9.9100
 0.6980	10.6180
 0.6990	11.3610
 0.7000	12.1420
 0.7010	12.9540
 0.7020	13.7850
 0.7030	14.5860
 0.7040	15.3710
 0.7050	16.1580
 0.7060	16.9380
 0.7070	17.6940
 0.7080	18.4250
 0.7090	19.1410
 0.7100	19.8510
 0.7110	20.5640
 0.7120	21.2660
 0.7130	21.9360
 0.7140	22.6230
 0.7150	23.2970
 0.7160	23.9360
 0.7170	24.5850
 0.7180	25.2470
 0.7190	25.8960
 0.7200	26.5010
 0.7210	27.1330
 0.7220	27.7610
 0.7230	28.3660
 0.7240	28.9550
 0.7250	29.5160
 0.7260	30.0570
 0.7270	30.5940
 0.7280	31.1490
 0.7290	31.6670
 0.7300	32.1460
 0.7310	32.6030
 0.7320	33.0590
 0.7330	33.5010
 0.7340	33.9240
 0.7350	34.3330
 0.7360	34.6920
 0.7370	35.0310
 0.7380	35.3700
 0.7390	35.6870
 0.7400	35.9790
 0.7410	36.2500
 0.7420	36.5080
 0.7430	36.7580
 0.7440	36.9860
 0.7450	37.1850
 0.7460	37.3570
 0.7470	37.5410
 0.7480	37.7160
 0.7490	37.8620
 0.7500	37.9840
 0.7510	38.1000
 0.7520	38.2090
 0.7530	38.3060
 0.7540	38.3990
 0.7550	38.4790
 0.7560	38.5470
 0.7570	38.6130
 0.7580	38.6710
 0.7590	38.7330
 0.7600	38.7940
 0.7610	38.8200
 0.7620	38.8670
 0.7630	38.9140
 0.7640	38.9320
 0.7650	38.9510
 0.7660	38.9850
 0.7670	39.0150
 0.7680	39.0100
 0.7690	39.0190
 0.7700	39.0300
 0.7710	39.0420
 0.7720	39.0800
 0.7730	39.0800
 0.7740	39.0770
 0.7750	39.0990
 0.7760	39.0900
 0.7770	39.0850
 0.7780	39.0910
 0.7790	39.1040
 0.7800	39.1110
 0.7810	39.1010
 0.7820	39.0860
 0.7830	39.0900
 0.7840	39.0840
 0.7850	39.0840
 0.7860	39.0960
 0.7870	39.0840
 0.7880	39.0760
 0.7890	39.0790
 0.7900	39.0860
 0.7910	39.0620
 0.7920	39.0550
 0.7930	39.0610
 0.7940	39.0440
 0.7950	39.0430
 0.7960	39.0400
 0.7970	39.0240
 0.7980	38.9990
 0.7990	38.9930
 0.8000	38.9980
 0.8010	39.0000
 0.8020	39.0010
 0.8030	38.9730
 0.8040	38.9380
 0.8050	38.9280
 0.8060	38.9180
 0.8070	38.9040
 0.8080	38.8840
 0.8090	38.8610
 0.8100	38.8560
 0.8110	38.8550
 0.8120	38.8420
 0.8130	38.8170
 0.8140	38.8160
 0.8150	38.8290
 0.8160	38.8280
 0.8170	38.7780
 0.8180	38.7620
 0.8190	38.7780
 0.8200	38.7840
 0.8210	38.7560
 0.8220	38.7280
 0.8230	38.7170
 0.8240	38.7170
 0.8250	38.7140
 0.8260	38.7120
 0.8270	38.7060
 0.8280	38.6690
 0.8290	38.6580
 0.8300	38.6570
 0.8310	38.6430
 0.8320	38.6280
 0.8330	38.6280
 0.8340	38.6260
 0.8350	38.6040
 0.8360	38.5970
 0.8370	38.6040
 0.8380	38.6130
 0.8390	38.6060
 0.8400	38.6050
 0.8410	38.6120
 0.8420	38.6210
 0.8430	38.6100
 0.8440	38.5910
 0.8450	38.5830
 0.8460	38.5990
 0.8470	38.6310
 0.8480	38.6290
 0.8490	38.6120
 0.8500	38.6160
 0.8510	38.6240
 0.8520	38.6380
 0.8530	38.6490
 0.8540	38.6450
 0.8550	38.6490
 0.8560	38.6560
 0.8570	38.6560
 0.8580	38.6410
 0.8590	38.6650
 0.8600	38.6880
 0.8610	38.6830
 0.8620	38.6710
 0.8630	38.6710
 0.8640	38.6820
 0.8650	38.6960
 0.8660	38.6890
 0.8670	38.7060
 0.8680	38.7260
 0.8690	38.7210
 0.8700	38.7430
 0.8710	38.7510
 0.8720	38.7550
 0.8730	38.7820
 0.8740	38.7790
 0.8750	38.7860
 0.8760	38.8110
 0.8770	38.8210
 0.8780	38.8310
 0.8790	38.8350
 0.8800	38.8360
 0.8810	38.8450
 0.8820	38.8550
 0.8830	38.8760
 0.8840	38.9020
 0.8850	38.8870
 0.8860	38.8750
 0.8870	38.8710
 0.8880	38.8720
 0.8890	38.9020
 0.8900	38.9040
 0.8910	38.8910
 0.8920	38.9000
 0.8930	38.9380
 0.8940	38.9530
 0.8950	38.9450
 0.8960	38.9410
 0.8970	38.9190
 0.8980	38.9270
 0.8990	38.9600
 0.9000	38.9660
 0.9010	38.9990
 0.9020	38.9920
 0.9030	38.9430
 0.9040	38.9490
 0.9050	38.9680
 0.9060	38.9720
 0.9070	38.9510
 0.9080	38.9300
 0.9090	38.9520
 0.9100	38.9800
 0.9110	38.9810
 0.9120	38.9740
 0.9130	38.9840
 0.9140	38.9870
 0.9150	38.9550
 0.9160	38.9050
 0.9170	38.9110
 0.9180	38.9490
 0.9190	38.9590
 0.9200	38.9350
 0.9210	38.9360
 0.9220	38.9510
 0.9230	38.9410
 0.9240	38.9930
 0.9250	38.9510
 0.9260	38.8670
 0.9270	38.9180
 0.9280	38.9600
 0.9290	38.9360
 0.9300	38.8860
 0.9310	38.9130
 0.9320	38.8630
 0.9330	38.8400
 0.9340	38.8770
 0.9350	38.8860
 0.9360	38.8490
 0.9370	38.8340
 0.9380	38.8430
 0.9390	38.7760
 0.9400	38.7480
 0.9410	38.7780
 0.9420	38.8150
 0.9430	38.7530
 0.9440	38.7360
 0.9450	38.7210
 0.9460	38.6680
 0.9470	38.6190
 0.9480	38.6430
 0.9490	38.6720
 0.9500	38.6350
 0.9510	38.5500
 0.9520	38.5730
 0.9530	38.6110
 0.9540	38.5680
 0.9550	38.5620
 0.9560	38.5250
 0.9570	38.4540
 0.9580	38.3890
 0.9590	38.4600
 0.9600	38.4830
 0.9610	38.4470
 0.9620	38.4020
 0.9630	38.3520
 0.9640	38.3830
 0.9650	38.4270
 0.9660	38.3930
 0.9670	38.3810
 0.9680	38.3890
 0.9690	38.3750
 0.9700	38.3120
 0.9710	38.3020
 0.9720	38.2880
 0.9730	38.2250
 0.9740	38.1180
 0.9750	38.1370
 0.9760	38.2320
 0.9770	38.3130
 0.9780	38.2980
 0.9790	38.1930
 0.9800	38.1670
 0.9810	38.2050
 0.9820	38.2120
 0.9830	38.2070
 0.9840	38.2190
 0.9850	38.2380
 0.9860	38.2410
 0.9870	38.2270
 0.9880	38.2450
 0.9890	38.2930
 0.9900	38.3250
 0.9910	38.2580
 0.9920	38.1780
 0.9930	38.1500
 0.9940	38.1790
 0.9950	38.1270
 0.9960	38.0700
 0.9970	38.1110
 0.9980	38.2650
 0.9990	38.1700
 1.0000	38.1090
 1.0010	38.4000
 1.0020	38.4110
 1.0030	38.4020
 1.0040	38.3600
 1.0050	38.3540
 1.0060	38.3520
 1.0070	38.3600
 1.0080	38.3610
 1.0090	38.3680
 1.0100	38.3660
 1.0110	38.3490
 1.0120	38.3350
 1.0130	38.3340
 1.0140	38.3280
 1.0150	38.3060
 1.0160	38.3070
 1.0170	38.3060
 1.0180	38.2970
 1.0190	38.2900
 1.0200	38.3030
 1.0210	38.3410
 1.0220	38.3610
 1.0230	38.3700
 1.0240	38.3730
 1.0250	38.3740
 1.0260	38.3540
 1.0270	38.3530
 1.0280	38.3660
 1.0290	38.3760
 1.0300	38.3980
 1.0310	38.4050
 1.0320	38.4220
 1.0330	38.3980
 1.0340	38.3830
 1.0350	38.3520
 1.0360	38.3380
 1.0370	38.3590
 1.0380	38.3700
 1.0390	38.4080
 1.0400	38.4150
 1.0410	38.4020
 1.0420	38.4010
 1.0430	38.3810
 1.0440	38.3860
 1.0450	38.4160
 1.0460	38.4330
 1.0470	38.4640
 1.0480	38.4770
 1.0490	38.4750
 1.0500	38.4740
 1.0510	38.4620
 1.0520	38.4490
 1.0530	38.4520
 1.0540	38.4640
 1.0550	38.4700
 1.0560	38.4910
 1.0570	38.4880
 1.0580	38.4660
 1.0590	38.4540
 1.0600	38.4350
 1.0610	38.4270
 1.0620	38.4180
 1.0630	38.4240
 1.0640	38.4450
 1.0650	38.4570
 1.0660	38.4850
 1.0670	38.4970
 1.0680	38.5020
 1.0690	38.4960
 1.0700	38.4860
 1.0710	38.4650
 1.0720	38.4510
 1.0730	38.4220
 1.0740	38.4230
 1.0750	38.4480
 1.0760	38.4550
 1.0770	38.4690
 1.0780	38.4800
 1.0790	38.4830
 1.0800	38.4840
 1.0810	38.4930
 1.0820	38.4950
 1.0830	38.4860
 1.0840	38.4800
 1.0850	38.4690
 1.0860	38.4660
 1.0870	38.4730
 1.0880	38.4860
 1.0890	38.4930
 1.0900	38.5150
 1.0910	38.5120
 1.0920	38.4870
 1.0930	38.4760
 1.0940	38.4620
 1.0950	38.4500
 1.0960	38.4400
 1.0970	38.4340
 1.0980	38.4310
 1.0990	38.4240
 1.1000	38.4240
 1.1010	38.4180
 1.1020	38.4010
 1.1030	38.3860
 1.1040	38.3900
 1.1050	38.3980
 1.1060	38.4030
 1.1070	38.4250
 1.1080	38.4210
 1.1090	38.4020
 1.1100	38.3830
 1.1110	38.3490
 1.1120	38.3340
 1.1130	38.3200
 1.1140	38.3160
 1.1150	38.3330
 1.1160	38.3340
 1.1170	38.3300
 1.1180	38.3290
 1.1190	38.3230
 1.1200	38.3180
 1.1210	38.3100
 1.1220	38.3090
 1.1230	38.3030
 1.1240	38.2920
 1.1250	38.2750
 1.1260	38.2550
 1.1270	38.2290
 1.1280	38.1900
 1.1290	38.1600
 1.1300	38.1270
 1.1310	38.1060
 1.1320	38.0960
 1.1330	38.0810
 1.1340	38.0800
 1.1350	38.0610
 1.1360	38.0320
 1.1370	38.0000
 1.1380	37.9620
 1.1390	37.9130
 1.1400	37.8650
 1.1410	37.8170
 1.1420	37.7630
 1.1430	37.7120
 1.1440	37.6760
 1.1450	37.6500
 1.1460	37.6160
 1.1470	37.5930
 1.1480	37.5590
 1.1490	37.5090
 1.1500	37.4690
 1.1510	37.4280
 1.1520	37.3930
 1.1530	37.3670
 1.1540	37.3370
 1.1550	37.3060
 1.1560	37.2810
 1.1570	37.2590
 1.1580	37.2250
 1.1590	37.2080
 1.1600	37.1950
 1.1610	37.1720
 1.1620	37.1650
 1.1630	37.1640
 1.1640	37.1630
 1.1650	37.1580
 1.1660	37.1610
 1.1670	37.1520
 1.1680	37.1300
 1.1690	37.1100
 1.1700	37.0850
 1.1710	37.0660
 1.1720	37.0470
 1.1730	37.0360
 1.1740	37.0310
 1.1750	37.0310
 1.1760	37.0310
 1.1770	37.0220
 1.1780	37.0030
 1.1790	36.9800
 1.1800	36.9620
 1.1810	36.9540
 1.1820	36.9570
 1.1830	36.9580
 1.1840	36.9610
 1.1850	36.9520
 1.1860	36.9350
 1.1870	36.9270
 1.1880	36.9120
 1.1890	36.8870
 1.1900	36.8750
 1.1910	36.8580
 1.1920	36.8540
 1.1930	36.8760
 1.1940	36.8730
 1.1950	36.8660
 1.1960	36.8570
 1.1970	36.8300
 1.1980	36.8100
 1.1990	36.8040
 1.2000	36.8180
 1.2010	36.8390
 1.2020	36.8480
 1.2030	36.8520
 1.2040	36.8440
 1.2050	36.8370
 1.2060	36.8350
 1.2070	36.8290
 1.2080	36.8310
 1.2090	36.8300
 1.2100	36.8260
 1.2110	36.8250
 1.2120	36.8260
 1.2130	36.8310
 1.2140	36.8400
 1.2150	36.8440
 1.2160	36.8460
 1.2170	36.8470
 1.2180	36.8540
 1.2190	36.8660
 1.2200	36.8770
 1.2210	36.8830
 1.2220	36.8840
 1.2230	36.8800
 1.2240	36.8880
 1.2250	36.8960
 1.2260	36.8880
 1.2270	36.8840
 1.2280	36.8810
 1.2290	36.8810
 1.2300	36.8940
 1.2310	36.9160
 1.2320	36.9400
 1.2330	36.9520
 1.2340	36.9590
 1.2350	36.9580
 1.2360	36.9600
 1.2370	36.9530
 1.2380	36.9570
 1.2390	36.9600
 1.2400	36.9690
 1.2410	36.9810
 1.2420	36.9860
 1.2430	37.0000
 1.2440	37.0080
 1.2450	37.0020
 1.2460	37.0110
 1.2470	37.0160
 1.2480	37.0160
 1.2490	37.0250
 1.2500	37.0230
 1.2510	37.0180
 1.2520	37.0170
 1.2530	37.0120
 1.2540	37.0070
 1.2550	37.0130
 1.2560	37.0170
 1.2570	37.0210
 1.2580	37.0240
 1.2590	37.0250
 1.2600	37.0230
 1.2610	37.0230
 1.2620	37.0240
 1.2630	37.0230
 1.2640	37.0240
 1.2650	37.0150
 1.2660	37.0040
 1.2670	36.9920
 1.2680	36.9760
 1.2690	36.9650
 1.2700	36.9650
 1.2710	36.9670
 1.2720	36.9700
 1.2730	36.9710
 1.2740	36.9600
 1.2750	36.9450
 1.2760	36.9310
 1.2770	36.9310
 1.2780	36.9300
 1.2790	36.9240
 1.2800	36.9300
 1.2810	36.9180
 1.2820	36.8950
 1.2830	36.8890
 1.2840	36.8880
 1.2850	36.8860
 1.2860	36.8880
 1.2870	36.8880
 1.2880	36.8890
 1.2890	36.8790
 1.2900	36.8670
 1.2910	36.8610
 1.2920	36.8580
 1.2930	36.8450
 1.2940	36.8270
 1.2950	36.8130
 1.2960	36.7990
 1.2970	36.7780
 1.2980	36.7660
 1.2990	36.7620
 1.3000	36.7400
 1.3010	36.7200
 1.3020	36.7060
 1.3030	36.6810
 1.3040	36.6580
 1.3050	36.6320
 1.3060	36.6150
 1.3070	36.6060
 1.3080	36.5980
 1.3090	36.5950
 1.3100	36.5750
 1.3110	36.5420
 1.3120	36.4980
 1.3130	36.4520
 1.3140	36.4190
 1.3150	36.3960
 1.3160	36.3690
 1.3170	36.3510
 1.3180	36.3300
 1.3190	36.2980
 1.3200	36.2480
 1.3210	36.2050
 1.3220	36.1660
 1.3230	36.1330
 1.3240	36.1050
 1.3250	36.0760
 1.3260	36.0440
 1.3270	35.9980
 1.3280	35.9510
 1.3290	35.9030
 1.3300	35.8530
 1.3310	35.8020
 1.3320	35.7530
 1.3330	35.7140
 1.3340	35.6750
 1.3350	35.6350
 1.3360	35.5950
 1.3370	35.5520
 1.3380	35.5140
 1.3390	35.4760
 1.3400	35.4310
 1.3410	35.3780
 1.3420	35.3250
 1.3430	35.2730
 1.3440	35.2220
 1.3450	35.1740
 1.3460	35.1340
 1.3470	35.0870
 1.3480	35.0390
 1.3490	34.9910
 1.3500	34.9420
 1.3510	34.8870
 1.3520	34.8390
 1.3530	34.7880
 1.3540	34.7380
 1.3550	34.7000
 1.3560	34.6550
 1.3570	34.6140
 1.3580	34.5780
 1.3590	34.5300
 1.3600	34.4790
 1.3610	34.4230
 1.3620	34.3680
 1.3630	34.3070
 1.3640	34.2420
 1.3650	34.1820
 1.3660	34.1210
 1.3670	34.0590
 1.3680	34.0000
 1.3690	33.9280
 1.3700	33.8490
 1.3710	33.7670
 1.3720	33.6750
 1.3730	33.5860
 1.3740	33.4820
 1.3750	33.3640
 1.3760	33.2460
 1.3770	33.1150
 1.3780	32.9700
 1.3790	32.8200
 1.3800	32.6560
 1.3810	32.4770
 1.3820	32.2860
 1.3830	32.0840
 1.3840	31.8710
 1.3850	31.6450
 1.3860	31.4090
 1.3870	31.1640
 1.3880	30.9050
 1.3890	30.6330
 1.3900	30.3520
 1.3910	30.0630
 1.3920	29.7640
 1.3930	29.4590
 1.3940	29.1490
 1.3950	28.8320
 1.3960	28.5140
 1.3970	28.1940
 1.3980	27.8720
 1.3990	27.5590
 1.4000	27.2480
 1.4010	26.9430
 1.4020	26.6440
 1.4030	26.3440
 1.4040	26.0540
 1.4050	25.7740
 1.4060	25.4970
 1.4070	25.2390
 1.4080	24.9870
 1.4090	24.7440
 1.4100	24.5200
 1.4110	24.2990
 1.4120	24.0930
 1.4130	23.9030
 1.4140	23.7170
 1.4150	23.5470
 1.4160	23.3860
 1.4170	23.2290
 1.4180	23.0850
 1.4190	22.9520
 1.4200	22.8260
 1.4210	22.7090
 1.4220	22.6010
 1.4230	22.4990
 1.4240	22.4020
 1.4250	22.3150
 1.4260	22.2350
 1.4270	22.1630
 1.4280	22.1020
 1.4290	22.0420
 1.4300	21.9890
 1.4310	21.9380
 1.4320	21.8870
 1.4330	21.8460
 1.4340	21.8140
 1.4350	21.7830
 1.4360	21.7550
 1.4370	21.7360
 1.4380	21.7150
 1.4390	21.6990
 1.4400	21.6880
 1.4410	21.6800
 1.4420	21.6730
 1.4430	21.6660
 1.4440	21.6610
 1.4450	21.6550
 1.4460	21.6510
 1.4470	21.6500
 1.4480	21.6550
 1.4490	21.6650
 1.4500	21.6740
 1.4510	21.6830
 1.4520	21.6910
 1.4530	21.7020
 1.4540	21.7150
 1.4550	21.7340
 1.4560	21.7590
 1.4570	21.7840
 1.4580	21.8110
 1.4590	21.8350
 1.4600	21.8610
 1.4610	21.8910
 1.4620	21.9180
 1.4630	21.9560
 1.4640	21.9960
 1.4650	22.0360
 1.4660	22.0870
 1.4670	22.1380
 1.4680	22.1960
 1.4690	22.2600
 1.4700	22.3210
 1.4710	22.3870
 1.4720	22.4560
 1.4730	22.5220
 1.4740	22.5930
 1.4750	22.6710
 1.4760	22.7470
 1.4770	22.8270
 1.4780	22.9080
 1.4790	22.9930
 1.4800	23.0810
 1.4810	23.1700
 1.4820	23.2600
 1.4830	23.3460
 1.4840	23.4320
 1.4850	23.5170
 1.4860	23.6000
 1.4870	23.6870
 1.4880	23.7730
 1.4890	23.8600
 1.4900	23.9460
 1.4910	24.0320
 1.4920	24.1220
 1.4930	24.2150
 1.4940	24.3030
 1.4950	24.3920
 1.4960	24.4790
 1.4970	24.5560
 1.4980	24.6400
 1.4990	24.7300
 1.5000	24.8160
 1.5010	24.9020
 1.5020	24.9920
 1.5030	25.0820
 1.5040	25.1730
 1.5050	25.2660
 1.5060	25.3530
 1.5070	25.4380
 1.5080	25.5220
 1.5090	25.6010
 1.5100	25.6820
 1.5110	25.7660
 1.5120	25.8460
 1.5130	25.9210
 1.5140	25.9990
 1.5150	26.0740
 1.5160	26.1500
 1.5170	26.2270
 1.5180	26.3060
 1.5190	26.3820
 1.5200	26.4570
 1.5210	26.5400
 1.5220	26.6190
 1.5230	26.6930
 1.5240	26.7650
 1.5250	26.8300
 1.5260	26.8930
 1.5270	26.9620
 1.5280	27.0330
 1.5290	27.1000
 1.5300	27.1760
 1.5310	27.2430
 1.5320	27.3050
 1.5330	27.3710
 1.5340	27.4320
 1.5350	27.4960
 1.5360	27.5640
 1.5370	27.6250
 1.5380	27.6830
 1.5390	27.7360
 1.5400	27.7860
 1.5410	27.8430
 1.5420	27.9010
 1.5430	27.9590
 1.5440	28.0220
 1.5450	28.0770
 1.5460	28.1270
 1.5470	28.1810
 1.5480	28.2370
 1.5490	28.2880
 1.5500	28.3390
 1.5510	28.3890
 1.5520	28.4390
 1.5530	28.4910
 1.5540	28.5450
 1.5550	28.5950
 1.5560	28.6370
 1.5570	28.6790
 1.5580	28.7200
 1.5590	28.7660
 1.5600	28.8180
 1.5610	28.8610
 1.5620	28.9050
 1.5630	28.9430
 1.5640	28.9700
 1.5650	29.0070
 1.5660	29.0450
 1.5670	29.0800
 1.5680	29.1220
 1.5690	29.1680
 1.5700	29.2130
 1.5710	29.2580
 1.5720	29.3020
 1.5730	29.3410
 1.5740	29.3710
 1.5750	29.4040
 1.5760	29.4470
 1.5770	29.4870
 1.5780	29.5310
 1.5790	29.5790
 1.5800	29.6090
 1.5810	29.6320
 1.5820	29.6600
 1.5830	29.6850
 1.5840	29.7160
 1.5850	29.7530
 1.5860	29.7820
 1.5870	29.8080
 1.5880	29.8330
 1.5890	29.8590
 1.5900	29.8900
 1.5910	29.9180
 1.5920	29.9560
 1.5930	29.9930
 1.5940	30.0230
 1.5950	30.0660
 1.5960	30.0990
 1.5970	30.1260
 1.5980	30.1590
 1.5990	30.1890
 1.6000	30.2310
 1.6010	30.2740
 1.6020	30.3160
 1.6030	30.3490
 1.6040	30.3660
 1.6050	30.3860
 1.6060	30.4060
 1.6070	30.4260
 1.6080	30.4590
 1.6090	30.4900
 1.6100	30.5150
 1.6110	30.5430
 1.6120	30.5720
 1.6130	30.6010
 1.6140	30.6300
 1.6150	30.6590
 1.6160	30.6850
 1.6170	30.7010
 1.6180	30.7170
 1.6190	30.7380
 1.6200	30.7600
 1.6210	30.7910
 1.6220	30.8220
 1.6230	30.8450
 1.6240	30.8660
 1.6250	30.8800
 1.6260	30.8970
 1.6270	30.9130
 1.6280	30.9270
 1.6290	30.9450
 1.6300	30.9600
 1.6310	30.9790
 1.6320	31.0090
 1.6330	31.0220
 1.6340	31.0270
 1.6350	31.0380
 1.6360	31.0370
 1.6370	31.0470
 1.6380	31.0610
 1.6390	31.0730
 1.6400	31.0900
 1.6410	31.1030
 1.6420	31.1180
 1.6430	31.1290
 1.6440	31.1350
 1.6450	31.1470
 1.6460	31.1550
 1.6470	31.1610
 1.6480	31.1600
 1.6490	31.1600
 1.6500	31.1540
 1.6510	31.1500
 1.6520	31.1570
 1.6530	31.1610
 1.6540	31.1640
 1.6550	31.1700
 1.6560	31.1720
 1.6570	31.1630
 1.6580	31.1520
 1.6590	31.1410
 1.6600	31.1290
 1.6610	31.1250
 1.6620	31.1240
 1.6630	31.1200
 1.6640	31.1160
 1.6650	31.1140
 1.6660	31.1090
 1.6670	31.1010
 1.6680	31.0940
 1.6690	31.0840
 1.6700	31.0660
 1.6710	31.0560
 1.6720	31.0500
 1.6730	31.0380
 1.6740	31.0350
 1.6750	31.0180
 1.6760	30.9860
 1.6770	30.9590
 1.6780	30.9290
 1.6790	30.9040
 1.6800	30.8880
 1.6810	30.8660
 1.6820	30.8420
 1.6830	30.8160
 1.6840	30.7860
 1.6850	30.7480
 1.6860	30.7160
 1.6870	30.6840
 1.6880	30.6460
 1.6890	30.6200
 1.6900	30.5840
 1.6910	30.5410
 1.6920	30.5030
 1.6930	30.4560
 1.6940	30.4240
 1.6950	30.4000
 1.6960	30.3760
 1.6970	30.3620
 1.6980	30.3420
 1.6990	30.3260
 1.7000	30.3000
 1.7010	30.2660
 1.7020	30.2340
 1.7030	30.1960
 1.7040	30.1630
 1.7050	30.1390
 1.7060	30.1080
 1.7070	30.0690
 1.7080	30.0360
 1.7090	30.0020
 1.7100	29.9700
 1.7110	29.9420
 1.7120	29.9210
 1.7130	29.8970
 1.7140	29.8600
 1.7150	29.8260
 1.7160	29.7860
 1.7170	29.7430
 1.7180	29.7130
 1.7190	29.6870
 1.7200	29.6730
 1.7210	29.6530
 1.7220	29.6290
 1.7230	29.6120
 1.7240	29.5860
 1.7250	29.5610
 1.7260	29.5480
 1.7270	29.5320
 1.7280	29.5110
 1.7290	29.5010
 1.7300	29.4900
 1.7310	29.4790
 1.7320	29.4720
 1.7330	29.4620
 1.7340	29.4460
 1.7350	29.4420
 1.7360	29.4540
 1.7370	29.4500
 1.7380	29.4500
 1.7390	29.4370
 1.7400	29.4010
 1.7410	29.3780
 1.7420	29.3560
 1.7430	29.3350
 1.7440	29.3200
 1.7450	29.2930
 1.7460	29.2570
 1.7470	29.2260
 1.7480	29.1830
 1.7490	29.1610
 1.7500	29.1570
 1.7510	29.1330
 1.7520	29.1160
 1.7530	29.0750
 1.7540	29.0090
 1.7550	28.9630
 1.7560	28.9120
 1.7570	28.8830
 1.7580	28.8640
 1.7590	28.8430
 1.7600	28.8220
 1.7610	28.7770
 1.7620	28.7470
 1.7630	28.7170
 1.7640	28.6910
 1.7650	28.6830
 1.7660	28.6640
 1.7670	28.6400
 1.7680	28.6130
 1.7690	28.5700
 1.7700	28.5480
 1.7710	28.5390
 1.7720	28.5200
 1.7730	28.5050
 1.7740	28.4950
 1.7750	28.4820
 1.7760	28.4680
 1.7770	28.4700
 1.7780	28.4550
 1.7790	28.4190
 1.7800	28.4020
 1.7810	28.3880
 1.7820	28.3840
 1.7830	28.3920
 1.7840	28.3940
 1.7850	28.4000
 1.7860	28.3980
 1.7870	28.3880
 1.7880	28.3840
 1.7890	28.3830
 1.7900	28.4040
 1.7910	28.4080
 1.7920	28.4010
 1.7930	28.4010
 1.7940	28.3860
 1.7950	28.3870
 1.7960	28.4090
 1.7970	28.4210
 1.7980	28.4350
 1.7990	28.4410
 1.8000	28.4380
 1.8010	28.4370
 1.8020	28.4280
 1.8030	28.4320
 1.8040	28.4430
 1.8050	28.4570
 1.8060	28.4870
 1.8070	28.4950
 1.8080	28.4920
 1.8090	28.4940
 1.8100	28.4830
 1.8110	28.4890
 1.8120	28.4970
 1.8130	28.4870
 1.8140	28.4940
 1.8150	28.4980
 1.8160	28.4880
 1.8170	28.4880
 1.8180	28.4920
 1.8190	28.4930
 1.8200	28.5000
 1.8210	28.5220
 1.8220	28.5250
 1.8230	28.5190
 1.8240	28.5110
 1.8250	28.4830
 1.8260	28.4650
 1.8270	28.4450
 1.8280	28.4370
 1.8290	28.4350
 1.8300	28.4220
 1.8310	28.7340
 1.8320	28.7150
 1.8330	28.6980
 1.8340	28.7050
 1.8350	28.7110
 1.8360	28.7000
 1.8370	28.6910
 1.8380	28.6450
 1.8390	28.6220
 1.8400	28.6150
 1.8410	28.5900
 1.8420	28.5620
 1.8430	28.5400
 1.8440	28.4990
 1.8450	28.4320
 1.8460	28.3920
 1.8470	28.3640
 1.8480	28.3310
 1.8490	28.2420
 1.8500	28.1510
 1.8510	28.0380
 1.8520	27.9260
 1.8530	27.7960
 1.8540	27.6990
 1.8550	27.6040
 1.8560	27.4720
 1.8570	27.3400
 1.8580	27.2070
 1.8590	27.0600
 1.8600	26.8980
 1.8610	26.7370
 1.8620	26.5490
 1.8630	26.3260
 1.8640	26.0980
 1.8650	25.8740
 1.8660	25.6540
 1.8670	25.4260
 1.8680	25.1670
 1.8690	24.8800
 1.8700	24.5790
 1.8710	24.2570
 1.8720	23.9110
 1.8730	23.5620
 1.8740	23.2030
 1.8750	22.8290
 1.8760	22.4570
 1.8770	22.0400
 1.8780	21.6140
 1.8790	21.1760
 1.8800	20.7210
 1.8810	20.2420
 1.8820	19.7810
 1.8830	19.2950
 1.8840	18.8000
 1.8850	18.2960
 1.8860	17.7810
 1.8870	17.2690
 1.8880	16.7640
 1.8890	16.2630
 1.8900	15.7720
 1.8910	15.2950
 1.8920	14.8300
 1.8930	14.3670
 1.8940	13.9180
 1.8950	13.4920
 1.8960	13.1000
 1.8970	12.7300
 1.8980	12.3910
 1.8990	12.0860
 1.9000	11.7750
 1.9010	11.4610
 1.9020	11.1770
 1.9030	10.9070
 1.9040	10.6540
 1.9050	10.4310
 1.9060	10.2420
 1.9070	10.0690
 1.9080	 9.9150
 1.9090	 9.7610
 1.9100	 9.6310
 1.9110	 9.5080
 1.9120	 9.3880
 1.9130	 9.2850
 1.9140	 9.2010
 1.9150	 9.1200
 1.9160	 9.0530
 1.9170	 8.9940
 1.9180	 8.9330
 1.9190	 8.8800
 1.9200	 8.8240
 1.9210	 8.7870
 1.9220	 8.7640
 1.9230	 8.7580
 1.9240	 8.7550
 1.9250	 8.7680
 1.9260	 8.7790
 1.9270	 8.7860
 1.9280	 8.7940
 1.9290	 8.7890
 1.9300	 8.7800
 1.9310	 8.7770
 1.9320	 8.7860
 1.9330	 8.8060
 1.9340	 8.8480
 1.9350	 8.8810
 1.9360	 8.9210
 1.9370	 8.9530
 1.9380	 8.9780
 1.9390	 9.0090
 1.9400	 9.0450
 1.9410	 9.0890
 1.9420	 9.1330
 1.9430	 9.1860
 1.9440	 9.2320
 1.9450	 9.2630
 1.9460	 9.3100
 1.9470	 9.3680
 1.9480	 9.4220
 1.9490	 9.4790
 1.9500	 9.5460
 1.9510	 9.5980
 1.9520	 9.6530
 1.9530	 9.7270
 1.9540	 9.7930
 1.9550	 9.8660
 1.9560	 9.9470
 1.9570	10.0280
 1.9580	10.1190
 1.9590	10.1950
 1.9600	10.2640
 1.9610	10.3400
 1.9620	10.4070
 1.9630	10.4730
 1.9640	10.5540
 1.9650	10.6430
 1.9660	10.7440
 1.9670	10.8370
 1.9680	10.9270
 1.9690	11.0200
 1.9700	11.1100
 1.9710	11.1890
 1.9720	11.2750
 1.9730	11.3660
 1.9740	11.4520
 1.9750	11.5490
 1.9760	11.6310
 1.9770	11.7100
 1.9780	11.8020
 1.9790	11.9000
 1.9800	12.0050
 1.9810	12.1030
 1.9820	12.2160
 1.9830	12.3100
 1.9840	12.3770
 1.9850	12.4620
 1.9860	12.5400
 1.9870	12.6380
 1.9880	12.7380
 1.9890	12.8530
 1.9900	12.9700
 1.9910	13.0600
 1.9920	13.1570
 1.9930	13.2450
 1.9940	13.3370
 1.9950	13.4320
 1.9960	13.5270
 1.9970	13.6230
 1.9980	13.7190
 1.9990	13.8250
 2.0000	13.9070
 2.0010	13.9870
 2.0020	14.0750
 2.0030	14.1620
 2.0040	14.2550
 2.0050	14.3400
 2.0060	14.4260
 2.0070	14.5090
 2.0080	14.5830
 2.0090	14.6650
 2.0100	14.7630
 2.0110	14.8420
 2.0120	14.9090
 2.0130	14.9720
 2.0140	15.0420
 2.0150	15.1310
 2.0160	15.2470
 2.0170	15.3680
 2.0180	15.4650
 2.0190	15.5560
 2.0200	15.6380
 2.0210	15.7030
 2.0220	15.7710
 2.0230	15.8300
 2.0240	15.8950
 2.0250	15.9570
 2.0260	16.0170
 2.0270	16.0780
 2.0280	16.1510
 2.0290	16.2070
 2.0300	16.2700
 2.0310	16.3260
 2.0320	16.3750
 2.0330	16.4320
 2.0340	16.4940
 2.0350	16.5490
 2.0360	16.6060
 2.0370	16.6580
 2.0380	16.6880
 2.0390	16.7430
 2.0400	16.8300
 2.0410	16.8920
 2.0420	16.9540
 2.0430	17.0180
 2.0440	17.0640
 2.0450	17.0760
 2.0460	17.1190
 2.0470	17.1720
 2.0480	17.2170
 2.0490	17.2710
 2.0500	17.3150
 2.0510	17.3420
 2.0520	17.3840
 2.0530	17.4370
 2.0540	17.4790
 2.0550	17.5180
 2.0560	17.5620
 2.0570	17.5950
 2.0580	17.6160
 2.0590	17.6500
 2.0600	17.6870
 2.0610	17.7290
 2.0620	17.7810
 2.0630	17.8250
 2.0640	17.8710
 2.0650	17.9100
 2.0660	17.9370
 2.0670	17.9720
 2.0680	18.0070
 2.0690	18.0490
 2.0700	18.1000
 2.0710	18.1500
 2.0720	18.2110
 2.0730	18.2550
 2.0740	18.3030
 2.0750	18.3460
 2.0760	18.3990
 2.0770	18.4620
 2.0780	18.5110
 2.0790	18.5640
 2.0800	18.6020
 2.0810	18.6080
 2.0820	18.6400
 2.0830	18.6730
 2.0840	18.7170
 2.0850	18.7800
 2.0860	18.8400
 2.0870	18.9040
 2.0880	18.9710
 2.0890	19.0310
 2.0900	19.1000
 2.0910	19.1290
 2.0920	19.1230
 2.0930	19.1550
 2.0940	19.1780
 2.0950	19.2140
 2.0960	19.2910
 2.0970	19.3360
 2.0980	19.3530
 2.0990	19.3890
 2.1000	19.4270
 2.1010	19.4690
 2.1020	19.5220
 2.1030	19.5700
 2.1040	19.6200
 2.1050	19.6630
 2.1060	19.7150
 2.1070	19.7740
 2.1080	19.8190
 2.1090	19.8660
 2.1100	19.9000
 2.1110	19.9120
 2.1120	19.9410
 2.1130	19.9680
 2.1140	20.0030
 2.1150	20.0450
 2.1160	20.0890
 2.1170	20.1410
 2.1180	20.1850
 2.1190	20.2220
 2.1200	20.2660
 2.1210	20.3100
 2.1220	20.3570
 2.1230	20.3940
 2.1240	20.4400
 2.1250	20.4660
 2.1260	20.4660
 2.1270	20.4880
 2.1280	20.5010
 2.1290	20.5380
 2.1300	20.5990
 2.1310	20.6480
 2.1320	20.7110
 2.1330	20.7600
 2.1340	20.8080
 2.1350	20.8370
 2.1360	20.8470
 2.1370	20.8600
 2.1380	20.8390
 2.1390	20.8490
 2.1400	20.8760
 2.1410	20.9170
 2.1420	20.9390
 2.1430	20.9670
 2.1440	20.9980
 2.1450	21.0190
 2.1460	21.0420
 2.1470	21.0840
 2.1480	21.1020
 2.1490	21.0840
 2.1500	21.1040
 2.1510	21.1380
 2.1520	21.1700
 2.1530	21.2170
 2.1540	21.2630
 2.1550	21.3240
 2.1560	21.3560
 2.1570	21.3950
 2.1580	21.4060
 2.1590	21.3820
 2.1600	21.3360
 2.1610	21.3300
 2.1620	21.3120
 2.1630	21.3180
 2.1640	21.3600
 2.1650	21.3670
 2.1660	21.3710
 2.1670	21.3610
 2.1680	21.3170
 2.1690	21.3120
 2.1700	21.3140
 2.1710	21.3220
 2.1720	21.3510
 2.1730	21.3840
 2.1740	21.4330
 2.1750	21.4640
 2.1760	21.4930
 2.1770	21.5280
 2.1780	21.5470
 2.1790	21.5770
 2.1800	21.6510
 2.1810	21.6830
 2.1820	21.6870
 2.1830	21.6840
 2.1840	21.6790
 2.1850	21.6380
 2.1860	21.6370
 2.1870	21.6570
 2.1880	21.6700
 2.1890	21.6960
 2.1900	21.7150
 2.1910	21.7430
 2.1920	21.7490
 2.1930	21.7340
 2.1940	21.7400
 2.1950	21.7380
 2.1960	21.7440
 2.1970	21.7760
 2.1980	21.7900
 2.1990	21.7870
 2.2000	21.7950
 2.2010	21.8030
 2.2020	21.8090
 2.2030	21.8170
 2.2040	21.8250
 2.2050	21.8240
 2.2060	21.8490
 2.2070	21.8350
 2.2080	21.8080
 2.2090	21.7870
 2.2100	21.7380
 2.2110	21.7200
 2.2120	21.7240
 2.2130	21.7150
 2.2140	21.7270
 2.2150	21.6920
 2.2160	21.6050
 2.2170	21.5830
 2.2180	21.5580
 2.2190	21.5490
 2.2200	21.6060
 2.2210	21.6250
 2.2220	21.6310
 2.2230	21.6160
 2.2240	21.5890
 2.2250	21.5550
 2.2260	21.4790
 2.2270	21.4300
 2.2280	21.4010
 2.2290	21.3630
 2.2300	21.3040
 2.2310	21.3020
 2.2320	21.2380
 2.2330	21.1600
 2.2340	21.1150
 2.2350	21.0710
 2.2360	21.0090
 2.2370	20.9730
 2.2380	20.9020
 2.2390	20.7760
 2.2400	20.7130
 2.2410	20.6770
 2.2420	20.6170
 2.2430	20.5680
 2.2440	20.5100
 2.2450	20.4190
 2.2460	20.3740
 2.2470	20.3760
 2.2480	20.3360
 2.2490	20.2970
 2.2500	20.2440
 2.2510	20.1550
 2.2520	20.0820
 2.2530	19.9990
 2.2540	19.9450
 2.2550	19.9180
 2.2560	19.8740
 2.2570	19.8530
 2.2580	19.8190
 2.2590	19.7650
 2.2600	19.7120
 2.2610	19.6580
 2.2620	19.6080
 2.2630	19.5380
 2.2640	19.4740
 2.2650	19.4280
 2.2660	19.3680
 2.2670	19.3180
 2.2680	19.2780
 2.2690	19.2390
 2.2700	19.1970
 2.2710	19.1720
 2.2720	19.1700
 2.2730	19.1310
 2.2740	19.0880
 2.2750	19.0310
 2.2760	18.9350
 2.2770	18.8680
 2.2780	18.7980
 2.2790	18.7480
 2.2800	18.7150
 2.2810	18.6850
 2.2820	18.6700
 2.2830	18.6610
 2.2840	18.6730
 2.2850	18.6570
 2.2860	18.6550
 2.2870	18.6140
 2.2880	18.5300
 2.2890	18.4520
 2.2900	18.3260
 2.2910	18.2640
 2.2920	18.2440
 2.2930	18.2040
 2.2940	18.2060
 2.2950	18.1710
 2.2960	18.0740
 2.2970	18.0280
 2.2980	17.9820
 2.2990	17.9930
 2.3000	18.0110
 2.3010	17.9900
 2.3020	17.9530
 2.3030	17.8590
 2.3040	17.7550
 2.3050	17.6860
 2.3060	17.6030
 2.3070	17.5320
 2.3080	17.4740
 2.3090	17.3580
 2.3100	17.2720
 2.3110	17.2240
 2.3120	17.1690
 2.3130	17.1280
 2.3140	17.1020
 2.3150	17.0890
 2.3160	17.0560
 2.3170	17.0280
 2.3180	17.0020
 2.3190	16.9530
 2.3200	16.9380
 2.3210	16.9610
 2.3220	16.9570
 2.3230	16.9290
 2.3240	16.9610
 2.3250	17.0130
 2.3260	17.0610
 2.3270	17.1840
 2.3280	17.2120
 2.3290	17.1920
 2.3300	17.1600
 2.3310	17.0800
 2.3320	17.0110
 2.3330	16.9160
 2.3340	16.8470
 2.3350	16.7840
 2.3360	16.7270
 2.3370	16.6910
 2.3380	16.6440
 2.3390	16.5600
 2.3400	16.5320
 2.3410	16.5550
 2.3420	16.5380
 2.3430	16.5630
 2.3440	16.5380
 2.3450	16.4410
 2.3460	16.3730
 2.3470	16.3020
 2.3480	16.2360
 2.3490	16.1680
 2.3500	16.1200
 2.3510	16.0810
 2.3520	16.0460
 2.3530	16.0180
 2.3540	16.0100
 2.3550	16.0340
 2.3560	16.0570
 2.3570	16.1030
 2.3580	16.1140
 2.3590	16.0550
 2.3600	15.9870
 2.3610	15.8570
 2.3620	15.7960
 2.3630	15.8100
 2.3640	15.8260
 2.3650	15.8580
 2.3660	15.8460
 2.3670	15.8140
 2.3680	15.7480
 2.3690	15.6970
 2.3700	15.6950
 2.3710	15.6970
 2.3720	15.7060
 2.3730	15.7360
 2.3740	15.7100
 2.3750	15.6910
 2.3760	15.6510
 2.3770	15.5220
 2.3780	15.4830
 2.3790	15.4600
 2.3800	15.4040
 2.3810	15.4510
 2.3820	15.4980
 2.3830	15.4400
 2.3840	15.3340
 2.3850	15.1650
 2.3860	15.0480
 2.3870	14.9770
 2.3880	14.8870
 2.3890	14.8550
 2.3900	14.7730
 2.3910	14.7080
 2.3920	14.6920
 2.3930	14.6650
 2.3940	14.6550
 2.3950	14.6110
 2.3960	14.5500
 2.3970	14.4760
 2.3980	14.3750
 2.3990	14.3230
 2.4000	14.3100
 2.4010	14.3250
 2.4020	14.3880
 2.4030	14.3800
 2.4040	14.3640
 2.4050	14.3640
 2.4060	14.3260
 2.4070	14.3220
 2.4080	14.2530
 2.4090	14.1620
 2.4100	14.1790
 2.4110	14.1400
 2.4120	14.0810
 2.4130	14.0480
 2.4140	13.9060
 2.4150	13.8060
 2.4160	13.7370
 2.4170	13.6890
 2.4180	13.7030
 2.4190	13.6690
 2.4200	13.6180
 2.4210	13.5670
 2.4220	13.4790
 2.4230	13.4010
 2.4240	13.4280
 2.4250	13.4160
 2.4260	13.4030
 2.4270	13.4370
 2.4280	13.3520
 2.4290	13.2920
 2.4300	13.2060
 2.4310	13.0490
 2.4320	12.9150
 2.4330	12.7840
 2.4340	12.6710
 2.4350	12.5960
 2.4360	12.6820
 2.4370	12.7530
 2.4380	12.7550
 2.4390	12.8210
 2.4400	12.6920
 2.4410	12.5340
 2.4420	12.4650
 2.4430	12.4030
 2.4440	12.3990
 2.4450	12.3740
 2.4460	12.2990
 2.4470	12.1410
 2.4480	11.9330
 2.4490	11.7510
 2.4500	11.6870
 2.4510	11.6260
 2.4520	11.5870
 2.4530	11.5610
 2.4540	11.4560
 2.4550	11.4040
 2.4560	11.3460
 2.4570	11.3430
 2.4580	11.4400
 2.4590	11.4500
 2.4600	11.3730
 2.4610	11.2590
 2.4620	11.0160
 2.4630	10.8780
 2.4640	10.9060
 2.4650	10.8830
 2.4660	11.0540
 2.4670	11.1560
 2.4680	11.0480
 2.4690	10.9420
 2.4700	10.7990
 2.4710	10.5330
 2.4720	10.3980
 2.4730	10.3780
 2.4740	10.3070
 2.4750	10.2080
 2.4760	10.2060
 2.4770	10.2300
 2.4780	10.2250
 2.4790	10.2960
 2.4800	10.3010
 2.4810	10.2420
 2.4820	10.2210
 2.4830	10.2840
 2.4840	10.3210
 2.4850	10.2830
 2.4860	10.3340
 2.4870	10.1660
 2.4880	 9.9110
 2.4890	 9.9540
 2.4900	 9.9920
 2.4910	10.0760
 2.4920	10.0980
 2.4930	 9.9180
 2.4940	 9.8370
 2.4950	 9.7720
 2.4960	 9.8710
 2.4970	10.0140
 2.4980	 9.9330
 2.4990	10.0360
 2.5000	10.3810
