Name: Quercus suber
Type: vegetation
Class: Tree
Genus: Quercus
Species: suber
Sample No.: JPL175
Owner: JPL
Wavelength Range: VSWIR
Origin: 34.12913; -118.11246; WGS84
Collection Date: 10/3/2016
Description: Samples were collected at the Huntington Garden in San Marino California as part of a JPL Subcontract studying HyTES imagery. Samples were taken to JPL and processed within 48 hours of collection. The same leaves were processed in the Nicolet and then measured using the ASD.
Measurement: Bidirectional reflectance
First Column: X
Second Column: Y
X Units: Wavelength (micrometer)
Y Units: Reflectance (percentage)
First X Value: 0.35
Last X Value: 2.5
Number of X Values: 2151
Additional Information: vegetation.tree.quercus.suber.vswir.jpl175.jpl.asd.ancillary.txt

 0.3500	 7.4180
 0.3510	 7.3510
 0.3520	 7.2990
 0.3530	 7.2860
 0.3540	 7.2950
 0.3550	 7.2330
 0.3560	 7.1930
 0.3570	 7.2130
 0.3580	 7.2740
 0.3590	 7.1460
 0.3600	 7.1000
 0.3610	 7.2140
 0.3620	 7.2300
 0.3630	 7.1770
 0.3640	 7.1500
 0.3650	 7.2010
 0.3660	 7.1570
 0.3670	 7.1330
 0.3680	 7.1230
 0.3690	 7.0530
 0.3700	 7.0700
 0.3710	 7.0970
 0.3720	 7.0840
 0.3730	 7.0910
 0.3740	 7.0490
 0.3750	 7.0180
 0.3760	 7.0630
 0.3770	 7.1060
 0.3780	 7.0890
 0.3790	 7.0440
 0.3800	 7.0750
 0.3810	 7.1040
 0.3820	 7.0720
 0.3830	 6.9930
 0.3840	 7.0190
 0.3850	 7.0610
 0.3860	 7.0820
 0.3870	 7.0700
 0.3880	 7.0010
 0.3890	 6.9880
 0.3900	 7.0380
 0.3910	 7.0460
 0.3920	 7.0450
 0.3930	 7.0380
 0.3940	 7.0250
 0.3950	 7.0100
 0.3960	 7.0280
 0.3970	 7.0700
 0.3980	 7.0970
 0.3990	 7.0750
 0.4000	 7.0630
 0.4010	 7.0780
 0.4020	 7.0690
 0.4030	 7.0920
 0.4040	 7.1180
 0.4050	 7.1170
 0.4060	 7.1420
 0.4070	 7.1530
 0.4080	 7.1600
 0.4090	 7.1990
 0.4100	 7.2180
 0.4110	 7.2310
 0.4120	 7.2480
 0.4130	 7.2660
 0.4140	 7.2860
 0.4150	 7.3040
 0.4160	 7.3210
 0.4170	 7.3540
 0.4180	 7.3770
 0.4190	 7.3840
 0.4200	 7.3930
 0.4210	 7.4220
 0.4220	 7.4490
 0.4230	 7.4600
 0.4240	 7.4890
 0.4250	 7.5040
 0.4260	 7.5070
 0.4270	 7.5190
 0.4280	 7.5360
 0.4290	 7.5480
 0.4300	 7.5500
 0.4310	 7.5450
 0.4320	 7.5510
 0.4330	 7.5620
 0.4340	 7.5660
 0.4350	 7.5610
 0.4360	 7.5690
 0.4370	 7.5890
 0.4380	 7.5990
 0.4390	 7.6240
 0.4400	 7.6490
 0.4410	 7.6630
 0.4420	 7.6830
 0.4430	 7.6920
 0.4440	 7.6950
 0.4450	 7.7050
 0.4460	 7.7170
 0.4470	 7.7300
 0.4480	 7.7410
 0.4490	 7.7530
 0.4500	 7.7600
 0.4510	 7.7670
 0.4520	 7.7750
 0.4530	 7.7950
 0.4540	 7.8030
 0.4550	 7.8010
 0.4560	 7.8080
 0.4570	 7.8150
 0.4580	 7.8220
 0.4590	 7.8280
 0.4600	 7.8360
 0.4610	 7.8440
 0.4620	 7.8490
 0.4630	 7.8490
 0.4640	 7.8500
 0.4650	 7.8550
 0.4660	 7.8620
 0.4670	 7.8670
 0.4680	 7.8690
 0.4690	 7.8710
 0.4700	 7.8760
 0.4710	 7.8850
 0.4720	 7.8890
 0.4730	 7.8900
 0.4740	 7.8940
 0.4750	 7.8950
 0.4760	 7.8990
 0.4770	 7.9070
 0.4780	 7.9110
 0.4790	 7.9080
 0.4800	 7.9080
 0.4810	 7.9170
 0.4820	 7.9200
 0.4830	 7.9160
 0.4840	 7.9110
 0.4850	 7.9150
 0.4860	 7.9140
 0.4870	 7.9160
 0.4880	 7.9250
 0.4890	 7.9370
 0.4900	 7.9470
 0.4910	 7.9570
 0.4920	 7.9720
 0.4930	 7.9820
 0.4940	 7.9960
 0.4950	 8.0160
 0.4960	 8.0330
 0.4970	 8.0520
 0.4980	 8.0720
 0.4990	 8.0900
 0.5000	 8.1170
 0.5010	 8.1470
 0.5020	 8.1780
 0.5030	 8.2030
 0.5040	 8.2330
 0.5050	 8.2700
 0.5060	 8.3120
 0.5070	 8.3560
 0.5080	 8.4040
 0.5090	 8.4590
 0.5100	 8.5220
 0.5110	 8.5890
 0.5120	 8.6630
 0.5130	 8.7460
 0.5140	 8.8330
 0.5150	 8.9300
 0.5160	 9.0390
 0.5170	 9.1570
 0.5180	 9.2790
 0.5190	 9.4080
 0.5200	 9.5470
 0.5210	 9.6960
 0.5220	 9.8490
 0.5230	10.0040
 0.5240	10.1600
 0.5250	10.3150
 0.5260	10.4620
 0.5270	10.6040
 0.5280	10.7470
 0.5290	10.8820
 0.5300	11.0080
 0.5310	11.1250
 0.5320	11.2310
 0.5330	11.3300
 0.5340	11.4210
 0.5350	11.5010
 0.5360	11.5690
 0.5370	11.6280
 0.5380	11.6780
 0.5390	11.7200
 0.5400	11.7460
 0.5410	11.7630
 0.5420	11.7780
 0.5430	11.7940
 0.5440	11.8200
 0.5450	11.8560
 0.5460	11.8990
 0.5470	11.9450
 0.5480	11.9900
 0.5490	12.0270
 0.5500	12.0520
 0.5510	12.0710
 0.5520	12.0850
 0.5530	12.0910
 0.5540	12.0850
 0.5550	12.0660
 0.5560	12.0350
 0.5570	11.9920
 0.5580	11.9370
 0.5590	11.8720
 0.5600	11.7980
 0.5610	11.7190
 0.5620	11.6300
 0.5630	11.5330
 0.5640	11.4330
 0.5650	11.3340
 0.5660	11.2360
 0.5670	11.1400
 0.5680	11.0440
 0.5690	10.9450
 0.5700	10.8440
 0.5710	10.7420
 0.5720	10.6450
 0.5730	10.5520
 0.5740	10.4640
 0.5750	10.3800
 0.5760	10.3050
 0.5770	10.2340
 0.5780	10.1680
 0.5790	10.1070
 0.5800	10.0520
 0.5810	10.0010
 0.5820	 9.9520
 0.5830	 9.9070
 0.5840	 9.8650
 0.5850	 9.8270
 0.5860	 9.7950
 0.5870	 9.7610
 0.5880	 9.7300
 0.5890	 9.7090
 0.5900	 9.6830
 0.5910	 9.6570
 0.5920	 9.6320
 0.5930	 9.6090
 0.5940	 9.5950
 0.5950	 9.5910
 0.5960	 9.5950
 0.5970	 9.6010
 0.5980	 9.6000
 0.5990	 9.5930
 0.6000	 9.5830
 0.6010	 9.5720
 0.6020	 9.5590
 0.6030	 9.5430
 0.6040	 9.5170
 0.6050	 9.4890
 0.6060	 9.4560
 0.6070	 9.4190
 0.6080	 9.3770
 0.6090	 9.3250
 0.6100	 9.2600
 0.6110	 9.1860
 0.6120	 9.1460
 0.6130	 9.1270
 0.6140	 9.1160
 0.6150	 9.0910
 0.6160	 9.0670
 0.6170	 9.0430
 0.6180	 9.0180
 0.6190	 8.9960
 0.6200	 8.9730
 0.6210	 8.9520
 0.6220	 8.9390
 0.6230	 8.9280
 0.6240	 8.9200
 0.6250	 8.9140
 0.6260	 8.9070
 0.6270	 8.9020
 0.6280	 8.9000
 0.6290	 8.8990
 0.6300	 8.8950
 0.6310	 8.8900
 0.6320	 8.8870
 0.6330	 8.8900
 0.6340	 8.8870
 0.6350	 8.8790
 0.6360	 8.8670
 0.6370	 8.8510
 0.6380	 8.8320
 0.6390	 8.8110
 0.6400	 8.7900
 0.6410	 8.7660
 0.6420	 8.7420
 0.6430	 8.7170
 0.6440	 8.6920
 0.6450	 8.6680
 0.6460	 8.6450
 0.6470	 8.6230
 0.6480	 8.6070
 0.6490	 8.5920
 0.6500	 8.5770
 0.6510	 8.5680
 0.6520	 8.5630
 0.6530	 8.5580
 0.6540	 8.5500
 0.6550	 8.5410
 0.6560	 8.5320
 0.6570	 8.5230
 0.6580	 8.5130
 0.6590	 8.5030
 0.6600	 8.4930
 0.6610	 8.4830
 0.6620	 8.4740
 0.6630	 8.4650
 0.6640	 8.4590
 0.6650	 8.4580
 0.6660	 8.4590
 0.6670	 8.4610
 0.6680	 8.4660
 0.6690	 8.4770
 0.6700	 8.4860
 0.6710	 8.4990
 0.6720	 8.5180
 0.6730	 8.5380
 0.6740	 8.5590
 0.6750	 8.5830
 0.6760	 8.6110
 0.6770	 8.6410
 0.6780	 8.6740
 0.6790	 8.7090
 0.6800	 8.7470
 0.6810	 8.7870
 0.6820	 8.8280
 0.6830	 8.8710
 0.6840	 8.9200
 0.6850	 8.9700
 0.6860	 9.0190
 0.6870	 9.0700
 0.6880	 9.1330
 0.6890	 9.2070
 0.6900	 9.2960
 0.6910	 9.4110
 0.6920	 9.5590
 0.6930	 9.7470
 0.6940	 9.9810
 0.6950	10.2710
 0.6960	10.6190
 0.6970	11.0270
 0.6980	11.4940
 0.6990	12.0210
 0.7000	12.6060
 0.7010	13.2430
 0.7020	13.9230
 0.7030	14.6420
 0.7040	15.3930
 0.7050	16.1680
 0.7060	16.9650
 0.7070	17.7830
 0.7080	18.6190
 0.7090	19.4730
 0.7100	20.3410
 0.7110	21.2280
 0.7120	22.1330
 0.7130	23.0500
 0.7140	23.9810
 0.7150	24.9250
 0.7160	25.8790
 0.7170	26.8420
 0.7180	27.8110
 0.7190	28.7840
 0.7200	29.7580
 0.7210	30.7320
 0.7220	31.7020
 0.7230	32.6630
 0.7240	33.6140
 0.7250	34.5480
 0.7260	35.4630
 0.7270	36.3590
 0.7280	37.2320
 0.7290	38.0780
 0.7300	38.8950
 0.7310	39.6820
 0.7320	40.4430
 0.7330	41.1720
 0.7340	41.8660
 0.7350	42.5280
 0.7360	43.1600
 0.7370	43.7590
 0.7380	44.3240
 0.7390	44.8570
 0.7400	45.3560
 0.7410	45.8240
 0.7420	46.2630
 0.7430	46.6750
 0.7440	47.0570
 0.7450	47.4090
 0.7460	47.7360
 0.7470	48.0360
 0.7480	48.3110
 0.7490	48.5630
 0.7500	48.7900
 0.7510	48.9990
 0.7520	49.1900
 0.7530	49.3650
 0.7540	49.5240
 0.7550	49.6700
 0.7560	49.8010
 0.7570	49.9200
 0.7580	50.0250
 0.7590	50.1220
 0.7600	50.2120
 0.7610	50.2940
 0.7620	50.3650
 0.7630	50.4290
 0.7640	50.4890
 0.7650	50.5420
 0.7660	50.5870
 0.7670	50.6270
 0.7680	50.6700
 0.7690	50.7030
 0.7700	50.7350
 0.7710	50.7660
 0.7720	50.7930
 0.7730	50.8170
 0.7740	50.8390
 0.7750	50.8600
 0.7760	50.8800
 0.7770	50.8980
 0.7780	50.9160
 0.7790	50.9360
 0.7800	50.9530
 0.7810	50.9680
 0.7820	50.9830
 0.7830	50.9990
 0.7840	51.0150
 0.7850	51.0290
 0.7860	51.0400
 0.7870	51.0530
 0.7880	51.0630
 0.7890	51.0730
 0.7900	51.0820
 0.7910	51.0930
 0.7920	51.1030
 0.7930	51.1120
 0.7940	51.1180
 0.7950	51.1250
 0.7960	51.1300
 0.7970	51.1360
 0.7980	51.1400
 0.7990	51.1440
 0.8000	51.1470
 0.8010	51.1500
 0.8020	51.1550
 0.8030	51.1610
 0.8040	51.1650
 0.8050	51.1630
 0.8060	51.1640
 0.8070	51.1640
 0.8080	51.1650
 0.8090	51.1690
 0.8100	51.1700
 0.8110	51.1680
 0.8120	51.1670
 0.8130	51.1690
 0.8140	51.1670
 0.8150	51.1670
 0.8160	51.1690
 0.8170	51.1670
 0.8180	51.1630
 0.8190	51.1610
 0.8200	51.1600
 0.8210	51.1610
 0.8220	51.1650
 0.8230	51.1670
 0.8240	51.1650
 0.8250	51.1650
 0.8260	51.1650
 0.8270	51.1650
 0.8280	51.1630
 0.8290	51.1630
 0.8300	51.1640
 0.8310	51.1630
 0.8320	51.1660
 0.8330	51.1680
 0.8340	51.1720
 0.8350	51.1770
 0.8360	51.1790
 0.8370	51.1820
 0.8380	51.1860
 0.8390	51.1920
 0.8400	51.1970
 0.8410	51.2030
 0.8420	51.2070
 0.8430	51.2110
 0.8440	51.2180
 0.8450	51.2260
 0.8460	51.2350
 0.8470	51.2460
 0.8480	51.2530
 0.8490	51.2580
 0.8500	51.2670
 0.8510	51.2780
 0.8520	51.2880
 0.8530	51.2980
 0.8540	51.3080
 0.8550	51.3160
 0.8560	51.3250
 0.8570	51.3330
 0.8580	51.3430
 0.8590	51.3580
 0.8600	51.3710
 0.8610	51.3790
 0.8620	51.3890
 0.8630	51.4040
 0.8640	51.4190
 0.8650	51.4300
 0.8660	51.4450
 0.8670	51.4580
 0.8680	51.4690
 0.8690	51.4800
 0.8700	51.4910
 0.8710	51.5020
 0.8720	51.5160
 0.8730	51.5320
 0.8740	51.5450
 0.8750	51.5550
 0.8760	51.5650
 0.8770	51.5820
 0.8780	51.6000
 0.8790	51.6120
 0.8800	51.6230
 0.8810	51.6420
 0.8820	51.6580
 0.8830	51.6700
 0.8840	51.6800
 0.8850	51.6930
 0.8860	51.7010
 0.8870	51.7110
 0.8880	51.7280
 0.8890	51.7390
 0.8900	51.7490
 0.8910	51.7620
 0.8920	51.7780
 0.8930	51.7930
 0.8940	51.8030
 0.8950	51.8120
 0.8960	51.8260
 0.8970	51.8370
 0.8980	51.8460
 0.8990	51.8580
 0.9000	51.8750
 0.9010	51.8850
 0.9020	51.8920
 0.9030	51.9000
 0.9040	51.9080
 0.9050	51.9170
 0.9060	51.9260
 0.9070	51.9360
 0.9080	51.9520
 0.9090	51.9660
 0.9100	51.9730
 0.9110	51.9770
 0.9120	51.9870
 0.9130	51.9970
 0.9140	52.0050
 0.9150	52.0090
 0.9160	52.0150
 0.9170	52.0250
 0.9180	52.0340
 0.9190	52.0340
 0.9200	52.0390
 0.9210	52.0450
 0.9220	52.0460
 0.9230	52.0380
 0.9240	52.0420
 0.9250	52.0490
 0.9260	52.0480
 0.9270	52.0380
 0.9280	52.0320
 0.9290	52.0280
 0.9300	52.0240
 0.9310	52.0180
 0.9320	52.0140
 0.9330	52.0050
 0.9340	51.9900
 0.9350	51.9790
 0.9360	51.9710
 0.9370	51.9630
 0.9380	51.9520
 0.9390	51.9370
 0.9400	51.9240
 0.9410	51.9080
 0.9420	51.8890
 0.9430	51.8760
 0.9440	51.8570
 0.9450	51.8330
 0.9460	51.8070
 0.9470	51.7850
 0.9480	51.7590
 0.9490	51.7240
 0.9500	51.6820
 0.9510	51.6500
 0.9520	51.6160
 0.9530	51.5770
 0.9540	51.5320
 0.9550	51.4880
 0.9560	51.4440
 0.9570	51.4050
 0.9580	51.3710
 0.9590	51.3310
 0.9600	51.3010
 0.9610	51.2830
 0.9620	51.2680
 0.9630	51.2370
 0.9640	51.2090
 0.9650	51.1870
 0.9660	51.1690
 0.9670	51.1630
 0.9680	51.1570
 0.9690	51.1470
 0.9700	51.1370
 0.9710	51.1380
 0.9720	51.1330
 0.9730	51.1230
 0.9740	51.1170
 0.9750	51.1140
 0.9760	51.1110
 0.9770	51.1070
 0.9780	51.1060
 0.9790	51.1070
 0.9800	51.1060
 0.9810	51.1070
 0.9820	51.1190
 0.9830	51.1360
 0.9840	51.1430
 0.9850	51.1480
 0.9860	51.1620
 0.9870	51.1640
 0.9880	51.1740
 0.9890	51.1860
 0.9900	51.1870
 0.9910	51.2030
 0.9920	51.2250
 0.9930	51.2430
 0.9940	51.2530
 0.9950	51.2750
 0.9960	51.2900
 0.9970	51.3070
 0.9980	51.3430
 0.9990	51.3520
 1.0000	51.3530
 1.0010	52.5400
 1.0020	52.5550
 1.0030	52.5700
 1.0040	52.5860
 1.0050	52.6020
 1.0060	52.6230
 1.0070	52.6430
 1.0080	52.6600
 1.0090	52.6740
 1.0100	52.6920
 1.0110	52.7070
 1.0120	52.7250
 1.0130	52.7500
 1.0140	52.7700
 1.0150	52.7880
 1.0160	52.8070
 1.0170	52.8240
 1.0180	52.8390
 1.0190	52.8570
 1.0200	52.8750
 1.0210	52.8900
 1.0220	52.9050
 1.0230	52.9230
 1.0240	52.9390
 1.0250	52.9570
 1.0260	52.9770
 1.0270	52.9950
 1.0280	53.0140
 1.0290	53.0290
 1.0300	53.0430
 1.0310	53.0570
 1.0320	53.0700
 1.0330	53.0800
 1.0340	53.0940
 1.0350	53.1120
 1.0360	53.1330
 1.0370	53.1500
 1.0380	53.1660
 1.0390	53.1820
 1.0400	53.1960
 1.0410	53.2060
 1.0420	53.2170
 1.0430	53.2290
 1.0440	53.2410
 1.0450	53.2540
 1.0460	53.2660
 1.0470	53.2780
 1.0480	53.2890
 1.0490	53.2970
 1.0500	53.3060
 1.0510	53.3120
 1.0520	53.3220
 1.0530	53.3300
 1.0540	53.3380
 1.0550	53.3440
 1.0560	53.3480
 1.0570	53.3540
 1.0580	53.3580
 1.0590	53.3650
 1.0600	53.3760
 1.0610	53.3840
 1.0620	53.3950
 1.0630	53.4000
 1.0640	53.3990
 1.0650	53.4010
 1.0660	53.4020
 1.0670	53.4030
 1.0680	53.4060
 1.0690	53.4110
 1.0700	53.4130
 1.0710	53.4130
 1.0720	53.4130
 1.0730	53.4120
 1.0740	53.4120
 1.0750	53.4120
 1.0760	53.4130
 1.0770	53.4140
 1.0780	53.4140
 1.0790	53.4160
 1.0800	53.4160
 1.0810	53.4130
 1.0820	53.4130
 1.0830	53.4130
 1.0840	53.4130
 1.0850	53.4130
 1.0860	53.4150
 1.0870	53.4140
 1.0880	53.4110
 1.0890	53.4070
 1.0900	53.4010
 1.0910	53.3990
 1.0920	53.3970
 1.0930	53.3960
 1.0940	53.3980
 1.0950	53.3960
 1.0960	53.3940
 1.0970	53.3920
 1.0980	53.3900
 1.0990	53.3870
 1.1000	53.3820
 1.1010	53.3780
 1.1020	53.3730
 1.1030	53.3700
 1.1040	53.3660
 1.1050	53.3620
 1.1060	53.3570
 1.1070	53.3510
 1.1080	53.3450
 1.1090	53.3400
 1.1100	53.3350
 1.1110	53.3290
 1.1120	53.3230
 1.1130	53.3170
 1.1140	53.3110
 1.1150	53.3060
 1.1160	53.2970
 1.1170	53.2880
 1.1180	53.2760
 1.1190	53.2620
 1.1200	53.2430
 1.1210	53.2250
 1.1220	53.2050
 1.1230	53.1830
 1.1240	53.1620
 1.1250	53.1340
 1.1260	53.1050
 1.1270	53.0690
 1.1280	53.0280
 1.1290	52.9830
 1.1300	52.9370
 1.1310	52.8830
 1.1320	52.8230
 1.1330	52.7570
 1.1340	52.6850
 1.1350	52.6090
 1.1360	52.5300
 1.1370	52.4450
 1.1380	52.3570
 1.1390	52.2630
 1.1400	52.1650
 1.1410	52.0640
 1.1420	51.9600
 1.1430	51.8530
 1.1440	51.7460
 1.1450	51.6360
 1.1460	51.5300
 1.1470	51.4230
 1.1480	51.3210
 1.1490	51.2200
 1.1500	51.1240
 1.1510	51.0270
 1.1520	50.9400
 1.1530	50.8600
 1.1540	50.7840
 1.1550	50.7140
 1.1560	50.6490
 1.1570	50.5880
 1.1580	50.5310
 1.1590	50.4820
 1.1600	50.4400
 1.1610	50.4020
 1.1620	50.3670
 1.1630	50.3340
 1.1640	50.3020
 1.1650	50.2750
 1.1660	50.2500
 1.1670	50.2290
 1.1680	50.2140
 1.1690	50.1980
 1.1700	50.1840
 1.1710	50.1690
 1.1720	50.1540
 1.1730	50.1390
 1.1740	50.1240
 1.1750	50.1110
 1.1760	50.0970
 1.1770	50.0830
 1.1780	50.0690
 1.1790	50.0540
 1.1800	50.0370
 1.1810	50.0220
 1.1820	50.0080
 1.1830	49.9920
 1.1840	49.9770
 1.1850	49.9610
 1.1860	49.9440
 1.1870	49.9300
 1.1880	49.9170
 1.1890	49.9050
 1.1900	49.8930
 1.1910	49.8800
 1.1920	49.8700
 1.1930	49.8620
 1.1940	49.8560
 1.1950	49.8520
 1.1960	49.8500
 1.1970	49.8470
 1.1980	49.8450
 1.1990	49.8440
 1.2000	49.8440
 1.2010	49.8470
 1.2020	49.8510
 1.2030	49.8570
 1.2040	49.8650
 1.2050	49.8730
 1.2060	49.8800
 1.2070	49.8930
 1.2080	49.9040
 1.2090	49.9150
 1.2100	49.9320
 1.2110	49.9490
 1.2120	49.9660
 1.2130	49.9850
 1.2140	50.0060
 1.2150	50.0280
 1.2160	50.0510
 1.2170	50.0760
 1.2180	50.1050
 1.2190	50.1350
 1.2200	50.1640
 1.2210	50.1920
 1.2220	50.2180
 1.2230	50.2460
 1.2240	50.2750
 1.2250	50.3050
 1.2260	50.3340
 1.2270	50.3610
 1.2280	50.3880
 1.2290	50.4150
 1.2300	50.4400
 1.2310	50.4640
 1.2320	50.4880
 1.2330	50.5100
 1.2340	50.5320
 1.2350	50.5550
 1.2360	50.5770
 1.2370	50.5980
 1.2380	50.6180
 1.2390	50.6370
 1.2400	50.6540
 1.2410	50.6690
 1.2420	50.6830
 1.2430	50.6980
 1.2440	50.7150
 1.2450	50.7300
 1.2460	50.7470
 1.2470	50.7620
 1.2480	50.7770
 1.2490	50.7910
 1.2500	50.8040
 1.2510	50.8140
 1.2520	50.8240
 1.2530	50.8350
 1.2540	50.8450
 1.2550	50.8550
 1.2560	50.8630
 1.2570	50.8680
 1.2580	50.8750
 1.2590	50.8820
 1.2600	50.8890
 1.2610	50.8940
 1.2620	50.9000
 1.2630	50.9020
 1.2640	50.9040
 1.2650	50.9050
 1.2660	50.9050
 1.2670	50.9040
 1.2680	50.9030
 1.2690	50.9010
 1.2700	50.8970
 1.2710	50.8940
 1.2720	50.8900
 1.2730	50.8850
 1.2740	50.8800
 1.2750	50.8750
 1.2760	50.8690
 1.2770	50.8590
 1.2780	50.8510
 1.2790	50.8410
 1.2800	50.8280
 1.2810	50.8140
 1.2820	50.7970
 1.2830	50.7790
 1.2840	50.7620
 1.2850	50.7420
 1.2860	50.7210
 1.2870	50.6970
 1.2880	50.6690
 1.2890	50.6400
 1.2900	50.6100
 1.2910	50.5790
 1.2920	50.5470
 1.2930	50.5130
 1.2940	50.4740
 1.2950	50.4350
 1.2960	50.3960
 1.2970	50.3520
 1.2980	50.3070
 1.2990	50.2600
 1.3000	50.2100
 1.3010	50.1600
 1.3020	50.1100
 1.3030	50.0560
 1.3040	50.0000
 1.3050	49.9410
 1.3060	49.8800
 1.3070	49.8190
 1.3080	49.7570
 1.3090	49.6920
 1.3100	49.6250
 1.3110	49.5560
 1.3120	49.4860
 1.3130	49.4150
 1.3140	49.3420
 1.3150	49.2670
 1.3160	49.1890
 1.3170	49.1070
 1.3180	49.0230
 1.3190	48.9380
 1.3200	48.8510
 1.3210	48.7640
 1.3220	48.6750
 1.3230	48.5830
 1.3240	48.4870
 1.3250	48.3890
 1.3260	48.2880
 1.3270	48.1840
 1.3280	48.0790
 1.3290	47.9740
 1.3300	47.8680
 1.3310	47.7620
 1.3320	47.6530
 1.3330	47.5420
 1.3340	47.4280
 1.3350	47.3140
 1.3360	47.2000
 1.3370	47.0850
 1.3380	46.9720
 1.3390	46.8570
 1.3400	46.7420
 1.3410	46.6280
 1.3420	46.5130
 1.3430	46.4000
 1.3440	46.2880
 1.3450	46.1770
 1.3460	46.0690
 1.3470	45.9610
 1.3480	45.8550
 1.3490	45.7500
 1.3500	45.6460
 1.3510	45.5430
 1.3520	45.4400
 1.3530	45.3390
 1.3540	45.2370
 1.3550	45.1350
 1.3560	45.0340
 1.3570	44.9280
 1.3580	44.8210
 1.3590	44.7130
 1.3600	44.5990
 1.3610	44.4820
 1.3620	44.3620
 1.3630	44.2350
 1.3640	44.1050
 1.3650	43.9690
 1.3660	43.8260
 1.3670	43.6750
 1.3680	43.5140
 1.3690	43.3410
 1.3700	43.1570
 1.3710	42.9610
 1.3720	42.7510
 1.3730	42.5260
 1.3740	42.2850
 1.3750	42.0250
 1.3760	41.7440
 1.3770	41.4420
 1.3780	41.1140
 1.3790	40.7640
 1.3800	40.3900
 1.3810	39.9880
 1.3820	39.5670
 1.3830	39.1240
 1.3840	38.6580
 1.3850	38.1690
 1.3860	37.6620
 1.3870	37.1310
 1.3880	36.5910
 1.3890	36.0340
 1.3900	35.4620
 1.3910	34.8860
 1.3920	34.3000
 1.3930	33.7060
 1.3940	33.1130
 1.3950	32.5160
 1.3960	31.9230
 1.3970	31.3400
 1.3980	30.7630
 1.3990	30.2030
 1.4000	29.6570
 1.4010	29.1230
 1.4020	28.6090
 1.4030	28.1090
 1.4040	27.6300
 1.4050	27.1730
 1.4060	26.7360
 1.4070	26.3230
 1.4080	25.9300
 1.4090	25.5560
 1.4100	25.2070
 1.4110	24.8770
 1.4120	24.5690
 1.4130	24.2820
 1.4140	24.0130
 1.4150	23.7640
 1.4160	23.5330
 1.4170	23.3170
 1.4180	23.1190
 1.4190	22.9340
 1.4200	22.7640
 1.4210	22.6070
 1.4220	22.4610
 1.4230	22.3270
 1.4240	22.2040
 1.4250	22.0900
 1.4260	21.9860
 1.4270	21.8910
 1.4280	21.8070
 1.4290	21.7280
 1.4300	21.6590
 1.4310	21.5950
 1.4320	21.5390
 1.4330	21.4880
 1.4340	21.4420
 1.4350	21.4020
 1.4360	21.3690
 1.4370	21.3390
 1.4380	21.3130
 1.4390	21.2920
 1.4400	21.2750
 1.4410	21.2620
 1.4420	21.2530
 1.4430	21.2460
 1.4440	21.2420
 1.4450	21.2410
 1.4460	21.2410
 1.4470	21.2450
 1.4480	21.2510
 1.4490	21.2590
 1.4500	21.2690
 1.4510	21.2800
 1.4520	21.2930
 1.4530	21.3080
 1.4540	21.3250
 1.4550	21.3440
 1.4560	21.3660
 1.4570	21.3920
 1.4580	21.4210
 1.4590	21.4530
 1.4600	21.4880
 1.4610	21.5290
 1.4620	21.5730
 1.4630	21.6220
 1.4640	21.6750
 1.4650	21.7330
 1.4660	21.7970
 1.4670	21.8670
 1.4680	21.9420
 1.4690	22.0220
 1.4700	22.1070
 1.4710	22.1980
 1.4720	22.2930
 1.4730	22.3910
 1.4740	22.4930
 1.4750	22.5970
 1.4760	22.7060
 1.4770	22.8170
 1.4780	22.9300
 1.4790	23.0470
 1.4800	23.1650
 1.4810	23.2830
 1.4820	23.4060
 1.4830	23.5290
 1.4840	23.6540
 1.4850	23.7820
 1.4860	23.9090
 1.4870	24.0390
 1.4880	24.1690
 1.4890	24.2990
 1.4900	24.4290
 1.4910	24.5600
 1.4920	24.6920
 1.4930	24.8250
 1.4940	24.9580
 1.4950	25.0950
 1.4960	25.2290
 1.4970	25.3620
 1.4980	25.4960
 1.4990	25.6290
 1.5000	25.7640
 1.5010	25.9030
 1.5020	26.0390
 1.5030	26.1750
 1.5040	26.3110
 1.5050	26.4430
 1.5060	26.5780
 1.5070	26.7130
 1.5080	26.8470
 1.5090	26.9830
 1.5100	27.1180
 1.5110	27.2510
 1.5120	27.3850
 1.5130	27.5160
 1.5140	27.6480
 1.5150	27.7810
 1.5160	27.9120
 1.5170	28.0420
 1.5180	28.1720
 1.5190	28.3000
 1.5200	28.4300
 1.5210	28.5580
 1.5220	28.6860
 1.5230	28.8120
 1.5240	28.9360
 1.5250	29.0600
 1.5260	29.1830
 1.5270	29.3070
 1.5280	29.4290
 1.5290	29.5470
 1.5300	29.6660
 1.5310	29.7840
 1.5320	29.9010
 1.5330	30.0180
 1.5340	30.1340
 1.5350	30.2490
 1.5360	30.3630
 1.5370	30.4760
 1.5380	30.5880
 1.5390	30.7010
 1.5400	30.8100
 1.5410	30.9190
 1.5420	31.0270
 1.5430	31.1330
 1.5440	31.2400
 1.5450	31.3470
 1.5460	31.4510
 1.5470	31.5560
 1.5480	31.6600
 1.5490	31.7620
 1.5500	31.8640
 1.5510	31.9630
 1.5520	32.0600
 1.5530	32.1570
 1.5540	32.2540
 1.5550	32.3530
 1.5560	32.4480
 1.5570	32.5410
 1.5580	32.6320
 1.5590	32.7220
 1.5600	32.8110
 1.5610	32.9000
 1.5620	32.9880
 1.5630	33.0750
 1.5640	33.1600
 1.5650	33.2460
 1.5660	33.3290
 1.5670	33.4100
 1.5680	33.4930
 1.5690	33.5730
 1.5700	33.6520
 1.5710	33.7330
 1.5720	33.8120
 1.5730	33.8910
 1.5740	33.9700
 1.5750	34.0490
 1.5760	34.1270
 1.5770	34.2040
 1.5780	34.2800
 1.5790	34.3550
 1.5800	34.4310
 1.5810	34.5070
 1.5820	34.5810
 1.5830	34.6550
 1.5840	34.7290
 1.5850	34.8010
 1.5860	34.8720
 1.5870	34.9440
 1.5880	35.0120
 1.5890	35.0830
 1.5900	35.1540
 1.5910	35.2260
 1.5920	35.2970
 1.5930	35.3660
 1.5940	35.4330
 1.5950	35.4990
 1.5960	35.5660
 1.5970	35.6350
 1.5980	35.7030
 1.5990	35.7710
 1.6000	35.8370
 1.6010	35.9020
 1.6020	35.9660
 1.6030	36.0310
 1.6040	36.0940
 1.6050	36.1560
 1.6060	36.2170
 1.6070	36.2770
 1.6080	36.3360
 1.6090	36.3950
 1.6100	36.4540
 1.6110	36.5120
 1.6120	36.5680
 1.6130	36.6240
 1.6140	36.6790
 1.6150	36.7330
 1.6160	36.7880
 1.6170	36.8420
 1.6180	36.8920
 1.6190	36.9430
 1.6200	36.9920
 1.6210	37.0400
 1.6220	37.0890
 1.6230	37.1340
 1.6240	37.1800
 1.6250	37.2260
 1.6260	37.2730
 1.6270	37.3200
 1.6280	37.3650
 1.6290	37.4080
 1.6300	37.4460
 1.6310	37.4860
 1.6320	37.5260
 1.6330	37.5630
 1.6340	37.5990
 1.6350	37.6350
 1.6360	37.6700
 1.6370	37.7030
 1.6380	37.7380
 1.6390	37.7690
 1.6400	37.7960
 1.6410	37.8220
 1.6420	37.8460
 1.6430	37.8690
 1.6440	37.8890
 1.6450	37.9090
 1.6460	37.9280
 1.6470	37.9440
 1.6480	37.9590
 1.6490	37.9720
 1.6500	37.9820
 1.6510	37.9910
 1.6520	37.9970
 1.6530	38.0000
 1.6540	38.0020
 1.6550	38.0030
 1.6560	38.0010
 1.6570	37.9960
 1.6580	37.9920
 1.6590	37.9870
 1.6600	37.9810
 1.6610	37.9760
 1.6620	37.9700
 1.6630	37.9640
 1.6640	37.9570
 1.6650	37.9510
 1.6660	37.9450
 1.6670	37.9380
 1.6680	37.9340
 1.6690	37.9280
 1.6700	37.9190
 1.6710	37.9110
 1.6720	37.9000
 1.6730	37.8890
 1.6740	37.8790
 1.6750	37.8670
 1.6760	37.8500
 1.6770	37.8310
 1.6780	37.8100
 1.6790	37.7860
 1.6800	37.7590
 1.6810	37.7300
 1.6820	37.6990
 1.6830	37.6670
 1.6840	37.6330
 1.6850	37.5970
 1.6860	37.5580
 1.6870	37.5180
 1.6880	37.4770
 1.6890	37.4350
 1.6900	37.3920
 1.6910	37.3500
 1.6920	37.3060
 1.6930	37.2600
 1.6940	37.2150
 1.6950	37.1690
 1.6960	37.1220
 1.6970	37.0760
 1.6980	37.0300
 1.6990	36.9820
 1.7000	36.9330
 1.7010	36.8840
 1.7020	36.8340
 1.7030	36.7800
 1.7040	36.7270
 1.7050	36.6720
 1.7060	36.6180
 1.7070	36.5620
 1.7080	36.5080
 1.7090	36.4550
 1.7100	36.4020
 1.7110	36.3500
 1.7120	36.2950
 1.7130	36.2390
 1.7140	36.1850
 1.7150	36.1310
 1.7160	36.0770
 1.7170	36.0240
 1.7180	35.9740
 1.7190	35.9260
 1.7200	35.8780
 1.7210	35.8300
 1.7220	35.7790
 1.7230	35.7270
 1.7240	35.6790
 1.7250	35.6320
 1.7260	35.5860
 1.7270	35.5460
 1.7280	35.5070
 1.7290	35.4730
 1.7300	35.4440
 1.7310	35.4170
 1.7320	35.3950
 1.7330	35.3740
 1.7340	35.3560
 1.7350	35.3370
 1.7360	35.3190
 1.7370	35.2980
 1.7380	35.2760
 1.7390	35.2500
 1.7400	35.2200
 1.7410	35.1860
 1.7420	35.1480
 1.7430	35.1080
 1.7440	35.0640
 1.7450	35.0180
 1.7460	34.9710
 1.7470	34.9220
 1.7480	34.8720
 1.7490	34.8200
 1.7500	34.7680
 1.7510	34.7130
 1.7520	34.6560
 1.7530	34.5990
 1.7540	34.5400
 1.7550	34.4840
 1.7560	34.4280
 1.7570	34.3730
 1.7580	34.3190
 1.7590	34.2650
 1.7600	34.2160
 1.7610	34.1680
 1.7620	34.1210
 1.7630	34.0740
 1.7640	34.0310
 1.7650	33.9920
 1.7660	33.9540
 1.7670	33.9200
 1.7680	33.8880
 1.7690	33.8560
 1.7700	33.8270
 1.7710	33.8010
 1.7720	33.7750
 1.7730	33.7520
 1.7740	33.7280
 1.7750	33.7040
 1.7760	33.6810
 1.7770	33.6560
 1.7780	33.6350
 1.7790	33.6140
 1.7800	33.5960
 1.7810	33.5800
 1.7820	33.5640
 1.7830	33.5500
 1.7840	33.5380
 1.7850	33.5260
 1.7860	33.5170
 1.7870	33.5110
 1.7880	33.5060
 1.7890	33.5000
 1.7900	33.5000
 1.7910	33.5000
 1.7920	33.5030
 1.7930	33.5060
 1.7940	33.5080
 1.7950	33.5140
 1.7960	33.5230
 1.7970	33.5310
 1.7980	33.5410
 1.7990	33.5520
 1.8000	33.5620
 1.8010	33.5730
 1.8020	33.5860
 1.8030	33.5990
 1.8040	33.6130
 1.8050	33.6260
 1.8060	33.6400
 1.8070	33.6530
 1.8080	33.6660
 1.8090	33.6780
 1.8100	33.6900
 1.8110	33.7020
 1.8120	33.7130
 1.8130	33.7250
 1.8140	33.7360
 1.8150	33.7470
 1.8160	33.7580
 1.8170	33.7680
 1.8180	33.7740
 1.8190	33.7790
 1.8200	33.7840
 1.8210	33.7900
 1.8220	33.7940
 1.8230	33.7970
 1.8240	33.7990
 1.8250	33.8000
 1.8260	33.7990
 1.8270	33.7950
 1.8280	33.7920
 1.8290	33.7890
 1.8300	33.7810
 1.8310	34.4580
 1.8320	34.4440
 1.8330	34.4260
 1.8340	34.4050
 1.8350	34.3840
 1.8360	34.3580
 1.8370	34.3230
 1.8380	34.2850
 1.8390	34.2390
 1.8400	34.1840
 1.8410	34.1260
 1.8420	34.0670
 1.8430	33.9990
 1.8440	33.9270
 1.8450	33.8470
 1.8460	33.7540
 1.8470	33.6540
 1.8480	33.5450
 1.8490	33.4270
 1.8500	33.2950
 1.8510	33.1530
 1.8520	32.9980
 1.8530	32.8320
 1.8540	32.6540
 1.8550	32.4660
 1.8560	32.2660
 1.8570	32.0550
 1.8580	31.8230
 1.8590	31.5740
 1.8600	31.3080
 1.8610	31.0280
 1.8620	30.7240
 1.8630	30.4080
 1.8640	30.0740
 1.8650	29.7200
 1.8660	29.3510
 1.8670	28.9600
 1.8680	28.5500
 1.8690	28.1210
 1.8700	27.6700
 1.8710	27.1960
 1.8720	26.7070
 1.8730	26.2040
 1.8740	25.6860
 1.8750	25.1610
 1.8760	24.6250
 1.8770	24.0860
 1.8780	23.5430
 1.8790	22.9970
 1.8800	22.4560
 1.8810	21.9170
 1.8820	21.3740
 1.8830	20.8320
 1.8840	20.2990
 1.8850	19.7690
 1.8860	19.2550
 1.8870	18.7580
 1.8880	18.2720
 1.8890	17.8100
 1.8900	17.3690
 1.8910	16.9490
 1.8920	16.5470
 1.8930	16.1740
 1.8940	15.8210
 1.8950	15.4920
 1.8960	15.1920
 1.8970	14.9150
 1.8980	14.6640
 1.8990	14.4350
 1.9000	14.2240
 1.9010	14.0360
 1.9020	13.8630
 1.9030	13.7100
 1.9040	13.5740
 1.9050	13.4540
 1.9060	13.3460
 1.9070	13.2520
 1.9080	13.1690
 1.9090	13.0920
 1.9100	13.0240
 1.9110	12.9650
 1.9120	12.9170
 1.9130	12.8730
 1.9140	12.8370
 1.9150	12.8100
 1.9160	12.7830
 1.9170	12.7570
 1.9180	12.7370
 1.9190	12.7190
 1.9200	12.7030
 1.9210	12.6930
 1.9220	12.6840
 1.9230	12.6780
 1.9240	12.6720
 1.9250	12.6700
 1.9260	12.6690
 1.9270	12.6680
 1.9280	12.6690
 1.9290	12.6700
 1.9300	12.6730
 1.9310	12.6800
 1.9320	12.6870
 1.9330	12.6980
 1.9340	12.7160
 1.9350	12.7300
 1.9360	12.7460
 1.9370	12.7620
 1.9380	12.7770
 1.9390	12.7950
 1.9400	12.8140
 1.9410	12.8360
 1.9420	12.8590
 1.9430	12.8790
 1.9440	12.9020
 1.9450	12.9260
 1.9460	12.9510
 1.9470	12.9790
 1.9480	13.0070
 1.9490	13.0350
 1.9500	13.0640
 1.9510	13.0960
 1.9520	13.1280
 1.9530	13.1590
 1.9540	13.1930
 1.9550	13.2280
 1.9560	13.2630
 1.9570	13.2990
 1.9580	13.3370
 1.9590	13.3750
 1.9600	13.4120
 1.9610	13.4510
 1.9620	13.4920
 1.9630	13.5350
 1.9640	13.5810
 1.9650	13.6250
 1.9660	13.6710
 1.9670	13.7190
 1.9680	13.7660
 1.9690	13.8120
 1.9700	13.8610
 1.9710	13.9090
 1.9720	13.9600
 1.9730	14.0130
 1.9740	14.0670
 1.9750	14.1220
 1.9760	14.1790
 1.9770	14.2370
 1.9780	14.2930
 1.9790	14.3510
 1.9800	14.4080
 1.9810	14.4670
 1.9820	14.5260
 1.9830	14.5870
 1.9840	14.6520
 1.9850	14.7140
 1.9860	14.7760
 1.9870	14.8380
 1.9880	14.9040
 1.9890	14.9660
 1.9900	15.0310
 1.9910	15.0980
 1.9920	15.1630
 1.9930	15.2240
 1.9940	15.2900
 1.9950	15.3550
 1.9960	15.4230
 1.9970	15.4940
 1.9980	15.5630
 1.9990	15.6320
 2.0000	15.7020
 2.0010	15.7710
 2.0020	15.8420
 2.0030	15.9120
 2.0040	15.9850
 2.0050	16.0550
 2.0060	16.1250
 2.0070	16.1950
 2.0080	16.2650
 2.0090	16.3350
 2.0100	16.4060
 2.0110	16.4760
 2.0120	16.5450
 2.0130	16.6170
 2.0140	16.6890
 2.0150	16.7580
 2.0160	16.8290
 2.0170	16.8970
 2.0180	16.9660
 2.0190	17.0340
 2.0200	17.1040
 2.0210	17.1740
 2.0220	17.2430
 2.0230	17.3120
 2.0240	17.3780
 2.0250	17.4400
 2.0260	17.5040
 2.0270	17.5670
 2.0280	17.6310
 2.0290	17.6920
 2.0300	17.7500
 2.0310	17.8100
 2.0320	17.8680
 2.0330	17.9250
 2.0340	17.9850
 2.0350	18.0420
 2.0360	18.0940
 2.0370	18.1480
 2.0380	18.2010
 2.0390	18.2530
 2.0400	18.3030
 2.0410	18.3540
 2.0420	18.4060
 2.0430	18.4550
 2.0440	18.5050
 2.0450	18.5550
 2.0460	18.6050
 2.0470	18.6550
 2.0480	18.7020
 2.0490	18.7470
 2.0500	18.7930
 2.0510	18.8380
 2.0520	18.8830
 2.0530	18.9310
 2.0540	18.9780
 2.0550	19.0250
 2.0560	19.0710
 2.0570	19.1200
 2.0580	19.1690
 2.0590	19.2190
 2.0600	19.2700
 2.0610	19.3180
 2.0620	19.3630
 2.0630	19.4130
 2.0640	19.4620
 2.0650	19.5130
 2.0660	19.5680
 2.0670	19.6200
 2.0680	19.6710
 2.0690	19.7220
 2.0700	19.7730
 2.0710	19.8240
 2.0720	19.8730
 2.0730	19.9250
 2.0740	19.9760
 2.0750	20.0280
 2.0760	20.0790
 2.0770	20.1320
 2.0780	20.1830
 2.0790	20.2310
 2.0800	20.2820
 2.0810	20.3340
 2.0820	20.3850
 2.0830	20.4370
 2.0840	20.4870
 2.0850	20.5360
 2.0860	20.5840
 2.0870	20.6330
 2.0880	20.6800
 2.0890	20.7270
 2.0900	20.7740
 2.0910	20.8210
 2.0920	20.8680
 2.0930	20.9120
 2.0940	20.9520
 2.0950	20.9970
 2.0960	21.0390
 2.0970	21.0860
 2.0980	21.1400
 2.0990	21.1900
 2.1000	21.2430
 2.1010	21.2900
 2.1020	21.3310
 2.1030	21.3740
 2.1040	21.4150
 2.1050	21.4540
 2.1060	21.4960
 2.1070	21.5380
 2.1080	21.5810
 2.1090	21.6250
 2.1100	21.6680
 2.1110	21.7110
 2.1120	21.7550
 2.1130	21.7980
 2.1140	21.8410
 2.1150	21.8860
 2.1160	21.9280
 2.1170	21.9650
 2.1180	22.0070
 2.1190	22.0530
 2.1200	22.0950
 2.1210	22.1370
 2.1220	22.1780
 2.1230	22.2160
 2.1240	22.2490
 2.1250	22.2850
 2.1260	22.3240
 2.1270	22.3580
 2.1280	22.3910
 2.1290	22.4240
 2.1300	22.4530
 2.1310	22.4870
 2.1320	22.5230
 2.1330	22.5570
 2.1340	22.5920
 2.1350	22.6240
 2.1360	22.6560
 2.1370	22.6840
 2.1380	22.7070
 2.1390	22.7330
 2.1400	22.7560
 2.1410	22.7800
 2.1420	22.8080
 2.1430	22.8390
 2.1440	22.8700
 2.1450	22.9030
 2.1460	22.9320
 2.1470	22.9620
 2.1480	22.9890
 2.1490	23.0120
 2.1500	23.0380
 2.1510	23.0660
 2.1520	23.0910
 2.1530	23.1140
 2.1540	23.1380
 2.1550	23.1600
 2.1560	23.1820
 2.1570	23.2060
 2.1580	23.2270
 2.1590	23.2470
 2.1600	23.2660
 2.1610	23.2860
 2.1620	23.3060
 2.1630	23.3250
 2.1640	23.3430
 2.1650	23.3620
 2.1660	23.3800
 2.1670	23.4000
 2.1680	23.4220
 2.1690	23.4450
 2.1700	23.4710
 2.1710	23.4930
 2.1720	23.5140
 2.1730	23.5340
 2.1740	23.5490
 2.1750	23.5700
 2.1760	23.5950
 2.1770	23.6170
 2.1780	23.6410
 2.1790	23.6640
 2.1800	23.6830
 2.1810	23.7070
 2.1820	23.7330
 2.1830	23.7630
 2.1840	23.7910
 2.1850	23.8230
 2.1860	23.8500
 2.1870	23.8740
 2.1880	23.9000
 2.1890	23.9240
 2.1900	23.9500
 2.1910	23.9770
 2.1920	24.0050
 2.1930	24.0330
 2.1940	24.0620
 2.1950	24.0940
 2.1960	24.1220
 2.1970	24.1490
 2.1980	24.1760
 2.1990	24.2020
 2.2000	24.2270
 2.2010	24.2520
 2.2020	24.2770
 2.2030	24.3000
 2.2040	24.3220
 2.2050	24.3420
 2.2060	24.3650
 2.2070	24.3850
 2.2080	24.4030
 2.2090	24.4210
 2.2100	24.4390
 2.2110	24.4570
 2.2120	24.4730
 2.2130	24.4870
 2.2140	24.5000
 2.2150	24.5130
 2.2160	24.5240
 2.2170	24.5350
 2.2180	24.5460
 2.2190	24.5530
 2.2200	24.5550
 2.2210	24.5550
 2.2220	24.5520
 2.2230	24.5450
 2.2240	24.5350
 2.2250	24.5240
 2.2260	24.5110
 2.2270	24.4950
 2.2280	24.4800
 2.2290	24.4590
 2.2300	24.4310
 2.2310	24.4020
 2.2320	24.3710
 2.2330	24.3370
 2.2340	24.3030
 2.2350	24.2710
 2.2360	24.2300
 2.2370	24.1850
 2.2380	24.1380
 2.2390	24.0860
 2.2400	24.0340
 2.2410	23.9780
 2.2420	23.9240
 2.2430	23.8690
 2.2440	23.8130
 2.2450	23.7580
 2.2460	23.6990
 2.2470	23.6380
 2.2480	23.5730
 2.2490	23.5030
 2.2500	23.4350
 2.2510	23.3630
 2.2520	23.2930
 2.2530	23.2210
 2.2540	23.1520
 2.2550	23.0850
 2.2560	23.0190
 2.2570	22.9610
 2.2580	22.8980
 2.2590	22.8310
 2.2600	22.7640
 2.2610	22.6930
 2.2620	22.6220
 2.2630	22.5610
 2.2640	22.5040
 2.2650	22.4470
 2.2660	22.3920
 2.2670	22.3350
 2.2680	22.2710
 2.2690	22.2160
 2.2700	22.1640
 2.2710	22.1140
 2.2720	22.0660
 2.2730	22.0210
 2.2740	21.9800
 2.2750	21.9390
 2.2760	21.9040
 2.2770	21.8630
 2.2780	21.8200
 2.2790	21.7780
 2.2800	21.7320
 2.2810	21.6920
 2.2820	21.6540
 2.2830	21.6160
 2.2840	21.5840
 2.2850	21.5480
 2.2860	21.5130
 2.2870	21.4710
 2.2880	21.4200
 2.2890	21.3740
 2.2900	21.3260
 2.2910	21.2780
 2.2920	21.2340
 2.2930	21.1850
 2.2940	21.1290
 2.2950	21.0750
 2.2960	21.0190
 2.2970	20.9640
 2.2980	20.9070
 2.2990	20.8570
 2.3000	20.8020
 2.3010	20.7450
 2.3020	20.6870
 2.3030	20.6300
 2.3040	20.5780
 2.3050	20.5280
 2.3060	20.4770
 2.3070	20.4320
 2.3080	20.3870
 2.3090	20.3490
 2.3100	20.3250
 2.3110	20.3000
 2.3120	20.2810
 2.3130	20.2740
 2.3140	20.2590
 2.3150	20.2420
 2.3160	20.2330
 2.3170	20.2280
 2.3180	20.2210
 2.3190	20.2210
 2.3200	20.2160
 2.3210	20.2090
 2.3220	20.1950
 2.3230	20.1790
 2.3240	20.1600
 2.3250	20.1320
 2.3260	20.1100
 2.3270	20.0930
 2.3280	20.0680
 2.3290	20.0430
 2.3300	20.0120
 2.3310	19.9740
 2.3320	19.9350
 2.3330	19.8950
 2.3340	19.8500
 2.3350	19.7940
 2.3360	19.7470
 2.3370	19.7000
 2.3380	19.6530
 2.3390	19.6110
 2.3400	19.5700
 2.3410	19.5320
 2.3420	19.4900
 2.3430	19.4490
 2.3440	19.4070
 2.3450	19.3610
 2.3460	19.3180
 2.3470	19.2780
 2.3480	19.2400
 2.3490	19.1990
 2.3500	19.1620
 2.3510	19.1280
 2.3520	19.1000
 2.3530	19.0770
 2.3540	19.0570
 2.3550	19.0430
 2.3560	19.0280
 2.3570	19.0170
 2.3580	18.9960
 2.3590	18.9700
 2.3600	18.9490
 2.3610	18.9250
 2.3620	18.9030
 2.3630	18.8770
 2.3640	18.8410
 2.3650	18.8040
 2.3660	18.7620
 2.3670	18.7280
 2.3680	18.6990
 2.3690	18.6600
 2.3700	18.6220
 2.3710	18.5790
 2.3720	18.5330
 2.3730	18.5030
 2.3740	18.4750
 2.3750	18.4490
 2.3760	18.4270
 2.3770	18.3980
 2.3780	18.3580
 2.3790	18.3170
 2.3800	18.2750
 2.3810	18.2320
 2.3820	18.1870
 2.3830	18.1420
 2.3840	18.1050
 2.3850	18.0680
 2.3860	18.0300
 2.3870	18.0020
 2.3880	17.9700
 2.3890	17.9270
 2.3900	17.8900
 2.3910	17.8470
 2.3920	17.8030
 2.3930	17.7620
 2.3940	17.7170
 2.3950	17.6800
 2.3960	17.6470
 2.3970	17.6170
 2.3980	17.5910
 2.3990	17.5600
 2.4000	17.5250
 2.4010	17.4940
 2.4020	17.4620
 2.4030	17.4360
 2.4040	17.4150
 2.4050	17.3800
 2.4060	17.3450
 2.4070	17.3010
 2.4080	17.2400
 2.4090	17.1780
 2.4100	17.1120
 2.4110	17.0630
 2.4120	17.0340
 2.4130	17.0100
 2.4140	16.9960
 2.4150	16.9670
 2.4160	16.9030
 2.4170	16.8510
 2.4180	16.8050
 2.4190	16.7500
 2.4200	16.7260
 2.4210	16.6970
 2.4220	16.6510
 2.4230	16.6240
 2.4240	16.5850
 2.4250	16.5270
 2.4260	16.4790
 2.4270	16.4380
 2.4280	16.3910
 2.4290	16.3510
 2.4300	16.3130
 2.4310	16.2640
 2.4320	16.2180
 2.4330	16.1870
 2.4340	16.1580
 2.4350	16.1210
 2.4360	16.0850
 2.4370	16.0390
 2.4380	15.9850
 2.4390	15.9470
 2.4400	15.9160
 2.4410	15.8900
 2.4420	15.8660
 2.4430	15.8310
 2.4440	15.7770
 2.4450	15.7210
 2.4460	15.6920
 2.4470	15.6650
 2.4480	15.6570
 2.4490	15.6600
 2.4500	15.6230
 2.4510	15.5750
 2.4520	15.5170
 2.4530	15.4590
 2.4540	15.4320
 2.4550	15.4110
 2.4560	15.3830
 2.4570	15.3430
 2.4580	15.3090
 2.4590	15.2860
 2.4600	15.2590
 2.4610	15.2360
 2.4620	15.1940
 2.4630	15.1420
 2.4640	15.1080
 2.4650	15.0970
 2.4660	15.0970
 2.4670	15.0730
 2.4680	15.0480
 2.4690	15.0290
 2.4700	15.0090
 2.4710	15.0220
 2.4720	15.0080
 2.4730	14.9560
 2.4740	14.9360
 2.4750	14.9200
 2.4760	14.9000
 2.4770	14.9120
 2.4780	14.8850
 2.4790	14.8160
 2.4800	14.7900
 2.4810	14.7680
 2.4820	14.7640
 2.4830	14.7710
 2.4840	14.7400
 2.4850	14.7000
 2.4860	14.7010
 2.4870	14.6730
 2.4880	14.6450
 2.4890	14.6510
 2.4900	14.6000
 2.4910	14.5610
 2.4920	14.5840
 2.4930	14.5720
 2.4940	14.5690
 2.4950	14.6510
 2.4960	14.6780
 2.4970	14.6830
 2.4980	14.7260
 2.4990	14.6980
 2.5000	14.6190
