Name: Baccharis pilularis 3
Type: vegetation
Class: Shrub
Genus: Baccharis
Species: pilularis
Sample No.: VH126
Owner: UCSB
Wavelength Range: VSWIR
Origin: 34.5088; -119.7683; WGS84
Collection Date: 6/3/2013
Description: Samples were collected as part of the HyspIRI Airborne Campaign. 48 individual plants were sampled in three times in 2013 - spring  summer  and fall. The name of the sample includes a 1  2  or 3 which references a different individual of the species. Samples were taken to JPL and processed within 48 hours of collection. The same leaves were processed in the Nicolet and then measured using the ASD.
Measurement: Bidirectional reflectance
First Column: X
Second Column: Y
X Units: Wavelength (micrometers)
Y Units: Reflectance (percentage)
First X Value: 0.35
Last X Value: 2.5
Number of X Values: 2151
Additional Information: vegetation.shrub.baccharis.pilularis.vswir.vh126.ucsb.asd.ancillary.txt

 0.3500	 3.6630
 0.3510	 3.7090
 0.3520	 3.5880
 0.3530	 3.5700
 0.3540	 3.7560
 0.3550	 3.5970
 0.3560	 3.4940
 0.3570	 3.5170
 0.3580	 3.5460
 0.3590	 3.4180
 0.3600	 3.3890
 0.3610	 3.5090
 0.3620	 3.4990
 0.3630	 3.4940
 0.3640	 3.4670
 0.3650	 3.4010
 0.3660	 3.4680
 0.3670	 3.5430
 0.3680	 3.5490
 0.3690	 3.4620
 0.3700	 3.4940
 0.3710	 3.5330
 0.3720	 3.5270
 0.3730	 3.6150
 0.3740	 3.6370
 0.3750	 3.6310
 0.3760	 3.6620
 0.3770	 3.5960
 0.3780	 3.5980
 0.3790	 3.6560
 0.3800	 3.6190
 0.3810	 3.6640
 0.3820	 3.7160
 0.3830	 3.7130
 0.3840	 3.7040
 0.3850	 3.6840
 0.3860	 3.6580
 0.3870	 3.6440
 0.3880	 3.6810
 0.3890	 3.7250
 0.3900	 3.7450
 0.3910	 3.7320
 0.3920	 3.7960
 0.3930	 3.8930
 0.3940	 3.9410
 0.3950	 3.8260
 0.3960	 3.8610
 0.3970	 3.9710
 0.3980	 3.9330
 0.3990	 3.9370
 0.4000	 3.9810
 0.4010	 4.0400
 0.4020	 4.0860
 0.4030	 4.0990
 0.4040	 4.0950
 0.4050	 4.1060
 0.4060	 4.1580
 0.4070	 4.1900
 0.4080	 4.1990
 0.4090	 4.2220
 0.4100	 4.2610
 0.4110	 4.2740
 0.4120	 4.2610
 0.4130	 4.2980
 0.4140	 4.3460
 0.4150	 4.3810
 0.4160	 4.3930
 0.4170	 4.4190
 0.4180	 4.4500
 0.4190	 4.4750
 0.4200	 4.4900
 0.4210	 4.5180
 0.4220	 4.5430
 0.4230	 4.5550
 0.4240	 4.5850
 0.4250	 4.6080
 0.4260	 4.6200
 0.4270	 4.6330
 0.4280	 4.6580
 0.4290	 4.6870
 0.4300	 4.7110
 0.4310	 4.7170
 0.4320	 4.7200
 0.4330	 4.7350
 0.4340	 4.7690
 0.4350	 4.7880
 0.4360	 4.8040
 0.4370	 4.8180
 0.4380	 4.8240
 0.4390	 4.8230
 0.4400	 4.8370
 0.4410	 4.8660
 0.4420	 4.8610
 0.4430	 4.8630
 0.4440	 4.8750
 0.4450	 4.8870
 0.4460	 4.9080
 0.4470	 4.9190
 0.4480	 4.9190
 0.4490	 4.9320
 0.4500	 4.9420
 0.4510	 4.9560
 0.4520	 4.9780
 0.4530	 4.9850
 0.4540	 4.9900
 0.4550	 5.0000
 0.4560	 5.0090
 0.4570	 5.0160
 0.4580	 5.0260
 0.4590	 5.0390
 0.4600	 5.0480
 0.4610	 5.0520
 0.4620	 5.0520
 0.4630	 5.0520
 0.4640	 5.0740
 0.4650	 5.0760
 0.4660	 5.0580
 0.4670	 5.0670
 0.4680	 5.0910
 0.4690	 5.1020
 0.4700	 5.0890
 0.4710	 5.0980
 0.4720	 5.1000
 0.4730	 5.0910
 0.4740	 5.0830
 0.4750	 5.1000
 0.4760	 5.1100
 0.4770	 5.1030
 0.4780	 5.1050
 0.4790	 5.1080
 0.4800	 5.1120
 0.4810	 5.1160
 0.4820	 5.1240
 0.4830	 5.1230
 0.4840	 5.1200
 0.4850	 5.1390
 0.4860	 5.1460
 0.4870	 5.1440
 0.4880	 5.1480
 0.4890	 5.1630
 0.4900	 5.1720
 0.4910	 5.1750
 0.4920	 5.1800
 0.4930	 5.1990
 0.4940	 5.2140
 0.4950	 5.2210
 0.4960	 5.2350
 0.4970	 5.2540
 0.4980	 5.2690
 0.4990	 5.2770
 0.5000	 5.2990
 0.5010	 5.3250
 0.5020	 5.3530
 0.5030	 5.3850
 0.5040	 5.4170
 0.5050	 5.4500
 0.5060	 5.4900
 0.5070	 5.5400
 0.5080	 5.5910
 0.5090	 5.6470
 0.5100	 5.7160
 0.5110	 5.7890
 0.5120	 5.8630
 0.5130	 5.9420
 0.5140	 6.0380
 0.5150	 6.1410
 0.5160	 6.2510
 0.5170	 6.3710
 0.5180	 6.4930
 0.5190	 6.6290
 0.5200	 6.7760
 0.5210	 6.9210
 0.5220	 7.0770
 0.5230	 7.2380
 0.5240	 7.3960
 0.5250	 7.5500
 0.5260	 7.6980
 0.5270	 7.8440
 0.5280	 7.9870
 0.5290	 8.1260
 0.5300	 8.2550
 0.5310	 8.3710
 0.5320	 8.4820
 0.5330	 8.5820
 0.5340	 8.6740
 0.5350	 8.7580
 0.5360	 8.8370
 0.5370	 8.9120
 0.5380	 8.9770
 0.5390	 9.0250
 0.5400	 9.0880
 0.5410	 9.1550
 0.5420	 9.2120
 0.5430	 9.2650
 0.5440	 9.3120
 0.5450	 9.3560
 0.5460	 9.3970
 0.5470	 9.4230
 0.5480	 9.4450
 0.5490	 9.4680
 0.5500	 9.4920
 0.5510	 9.5080
 0.5520	 9.5170
 0.5530	 9.5190
 0.5540	 9.5060
 0.5550	 9.4830
 0.5560	 9.4500
 0.5570	 9.4020
 0.5580	 9.3470
 0.5590	 9.2860
 0.5600	 9.2170
 0.5610	 9.1410
 0.5620	 9.0600
 0.5630	 8.9710
 0.5640	 8.8760
 0.5650	 8.7780
 0.5660	 8.6810
 0.5670	 8.5840
 0.5680	 8.4790
 0.5690	 8.3730
 0.5700	 8.2660
 0.5710	 8.1590
 0.5720	 8.0580
 0.5730	 7.9620
 0.5740	 7.8700
 0.5750	 7.7790
 0.5760	 7.6890
 0.5770	 7.6080
 0.5780	 7.5370
 0.5790	 7.4730
 0.5800	 7.4130
 0.5810	 7.3550
 0.5820	 7.2960
 0.5830	 7.2460
 0.5840	 7.1980
 0.5850	 7.1560
 0.5860	 7.1210
 0.5870	 7.0890
 0.5880	 7.0600
 0.5890	 7.0330
 0.5900	 7.0010
 0.5910	 6.9700
 0.5920	 6.9430
 0.5930	 6.9220
 0.5940	 6.9100
 0.5950	 6.9010
 0.5960	 6.8910
 0.5970	 6.8810
 0.5980	 6.8700
 0.5990	 6.8560
 0.6000	 6.8380
 0.6010	 6.8190
 0.6020	 6.7980
 0.6030	 6.7730
 0.6040	 6.7420
 0.6050	 6.7130
 0.6060	 6.6800
 0.6070	 6.6420
 0.6080	 6.6030
 0.6090	 6.5640
 0.6100	 6.5300
 0.6110	 6.5010
 0.6120	 6.4620
 0.6130	 6.4120
 0.6140	 6.3580
 0.6150	 6.3120
 0.6160	 6.2710
 0.6170	 6.2330
 0.6180	 6.1990
 0.6190	 6.1740
 0.6200	 6.1500
 0.6210	 6.1270
 0.6220	 6.1100
 0.6230	 6.0900
 0.6240	 6.0750
 0.6250	 6.0680
 0.6260	 6.0530
 0.6270	 6.0440
 0.6280	 6.0400
 0.6290	 6.0350
 0.6300	 6.0300
 0.6310	 6.0270
 0.6320	 6.0230
 0.6330	 6.0120
 0.6340	 6.0020
 0.6350	 5.9880
 0.6360	 5.9680
 0.6370	 5.9470
 0.6380	 5.9200
 0.6390	 5.8900
 0.6400	 5.8620
 0.6410	 5.8290
 0.6420	 5.7980
 0.6430	 5.7690
 0.6440	 5.7290
 0.6450	 5.6930
 0.6460	 5.6610
 0.6470	 5.6280
 0.6480	 5.5950
 0.6490	 5.5680
 0.6500	 5.5460
 0.6510	 5.5270
 0.6520	 5.5090
 0.6530	 5.4920
 0.6540	 5.4770
 0.6550	 5.4550
 0.6560	 5.4360
 0.6570	 5.4160
 0.6580	 5.3910
 0.6590	 5.3670
 0.6600	 5.3430
 0.6610	 5.3190
 0.6620	 5.2940
 0.6630	 5.2710
 0.6640	 5.2520
 0.6650	 5.2350
 0.6660	 5.2250
 0.6670	 5.2140
 0.6680	 5.2030
 0.6690	 5.1990
 0.6700	 5.1940
 0.6710	 5.1920
 0.6720	 5.1950
 0.6730	 5.1960
 0.6740	 5.2020
 0.6750	 5.2100
 0.6760	 5.2170
 0.6770	 5.2330
 0.6780	 5.2470
 0.6790	 5.2610
 0.6800	 5.2810
 0.6810	 5.3000
 0.6820	 5.3250
 0.6830	 5.3570
 0.6840	 5.3900
 0.6850	 5.4300
 0.6860	 5.4810
 0.6870	 5.5430
 0.6880	 5.6110
 0.6890	 5.6990
 0.6900	 5.8140
 0.6910	 5.9580
 0.6920	 6.1330
 0.6930	 6.3430
 0.6940	 6.5980
 0.6950	 6.9060
 0.6960	 7.2620
 0.6970	 7.6690
 0.6980	 8.1290
 0.6990	 8.6440
 0.7000	 9.2110
 0.7010	 9.8260
 0.7020	10.4850
 0.7030	11.1750
 0.7040	11.9020
 0.7050	12.6660
 0.7060	13.4520
 0.7070	14.2590
 0.7080	15.0880
 0.7090	15.9440
 0.7100	16.8170
 0.7110	17.7120
 0.7120	18.6280
 0.7130	19.5560
 0.7140	20.5050
 0.7150	21.4710
 0.7160	22.4460
 0.7170	23.4280
 0.7180	24.4180
 0.7190	25.4130
 0.7200	26.4120
 0.7210	27.4060
 0.7220	28.3980
 0.7230	29.3830
 0.7240	30.3500
 0.7250	31.3050
 0.7260	32.2430
 0.7270	33.1580
 0.7280	34.0440
 0.7290	34.9020
 0.7300	35.7310
 0.7310	36.5300
 0.7320	37.3000
 0.7330	38.0350
 0.7340	38.7350
 0.7350	39.4030
 0.7360	40.0400
 0.7370	40.6420
 0.7380	41.2100
 0.7390	41.7550
 0.7400	42.2610
 0.7410	42.7340
 0.7420	43.1880
 0.7430	43.6080
 0.7440	43.9970
 0.7450	44.3580
 0.7460	44.6940
 0.7470	45.0130
 0.7480	45.3090
 0.7490	45.5770
 0.7500	45.8240
 0.7510	46.0520
 0.7520	46.2620
 0.7530	46.4570
 0.7540	46.6360
 0.7550	46.7990
 0.7560	46.9470
 0.7570	47.0780
 0.7580	47.2000
 0.7590	47.3180
 0.7600	47.4290
 0.7610	47.5290
 0.7620	47.6180
 0.7630	47.6980
 0.7640	47.7740
 0.7650	47.8400
 0.7660	47.9030
 0.7670	47.9650
 0.7680	48.0220
 0.7690	48.0730
 0.7700	48.1210
 0.7710	48.1690
 0.7720	48.2120
 0.7730	48.2490
 0.7740	48.2880
 0.7750	48.3280
 0.7760	48.3570
 0.7770	48.3890
 0.7780	48.4260
 0.7790	48.4600
 0.7800	48.4920
 0.7810	48.5200
 0.7820	48.5440
 0.7830	48.5680
 0.7840	48.5970
 0.7850	48.6250
 0.7860	48.6500
 0.7870	48.6780
 0.7880	48.7040
 0.7890	48.7280
 0.7900	48.7510
 0.7910	48.7680
 0.7920	48.7860
 0.7930	48.8080
 0.7940	48.8280
 0.7950	48.8460
 0.7960	48.8630
 0.7970	48.8800
 0.7980	48.8990
 0.7990	48.9140
 0.8000	48.9260
 0.8010	48.9380
 0.8020	48.9520
 0.8030	48.9670
 0.8040	48.9790
 0.8050	48.9850
 0.8060	49.0030
 0.8070	49.0110
 0.8080	49.0100
 0.8090	49.0230
 0.8100	49.0340
 0.8110	49.0410
 0.8120	49.0470
 0.8130	49.0550
 0.8140	49.0600
 0.8150	49.0650
 0.8160	49.0690
 0.8170	49.0700
 0.8180	49.0740
 0.8190	49.0760
 0.8200	49.0740
 0.8210	49.0770
 0.8220	49.0780
 0.8230	49.0760
 0.8240	49.0760
 0.8250	49.0760
 0.8260	49.0750
 0.8270	49.0720
 0.8280	49.0670
 0.8290	49.0640
 0.8300	49.0580
 0.8310	49.0500
 0.8320	49.0460
 0.8330	49.0470
 0.8340	49.0450
 0.8350	49.0370
 0.8360	49.0360
 0.8370	49.0410
 0.8380	49.0450
 0.8390	49.0400
 0.8400	49.0360
 0.8410	49.0440
 0.8420	49.0600
 0.8430	49.0620
 0.8440	49.0630
 0.8450	49.0660
 0.8460	49.0700
 0.8470	49.0700
 0.8480	49.0770
 0.8490	49.0850
 0.8500	49.0860
 0.8510	49.0870
 0.8520	49.0960
 0.8530	49.1070
 0.8540	49.1130
 0.8550	49.1220
 0.8560	49.1270
 0.8570	49.1290
 0.8580	49.1340
 0.8590	49.1430
 0.8600	49.1500
 0.8610	49.1540
 0.8620	49.1610
 0.8630	49.1650
 0.8640	49.1690
 0.8650	49.1760
 0.8660	49.1860
 0.8670	49.1930
 0.8680	49.1950
 0.8690	49.1950
 0.8700	49.2060
 0.8710	49.2130
 0.8720	49.2190
 0.8730	49.2380
 0.8740	49.2430
 0.8750	49.2440
 0.8760	49.2540
 0.8770	49.2720
 0.8780	49.2820
 0.8790	49.2830
 0.8800	49.2840
 0.8810	49.2960
 0.8820	49.3020
 0.8830	49.3020
 0.8840	49.3050
 0.8850	49.3190
 0.8860	49.3240
 0.8870	49.3240
 0.8880	49.3270
 0.8890	49.3380
 0.8900	49.3360
 0.8910	49.3310
 0.8920	49.3400
 0.8930	49.3490
 0.8940	49.3490
 0.8950	49.3490
 0.8960	49.3620
 0.8970	49.3670
 0.8980	49.3710
 0.8990	49.3760
 0.9000	49.3750
 0.9010	49.3800
 0.9020	49.3830
 0.9030	49.3780
 0.9040	49.3740
 0.9050	49.3810
 0.9060	49.3850
 0.9070	49.3820
 0.9080	49.3880
 0.9090	49.3890
 0.9100	49.3860
 0.9110	49.3840
 0.9120	49.3800
 0.9130	49.3850
 0.9140	49.3900
 0.9150	49.3840
 0.9160	49.3790
 0.9170	49.3740
 0.9180	49.3720
 0.9190	49.3720
 0.9200	49.3640
 0.9210	49.3480
 0.9220	49.3330
 0.9230	49.3260
 0.9240	49.3110
 0.9250	49.2900
 0.9260	49.2690
 0.9270	49.2500
 0.9280	49.2350
 0.9290	49.2110
 0.9300	49.1790
 0.9310	49.1520
 0.9320	49.1190
 0.9330	49.0860
 0.9340	49.0550
 0.9350	49.0210
 0.9360	48.9740
 0.9370	48.9270
 0.9380	48.8920
 0.9390	48.8730
 0.9400	48.8240
 0.9410	48.7710
 0.9420	48.7250
 0.9430	48.6560
 0.9440	48.5980
 0.9450	48.5370
 0.9460	48.4620
 0.9470	48.3820
 0.9480	48.3020
 0.9490	48.2190
 0.9500	48.1260
 0.9510	48.0190
 0.9520	47.9260
 0.9530	47.8280
 0.9540	47.7080
 0.9550	47.5890
 0.9560	47.4850
 0.9570	47.3840
 0.9580	47.2760
 0.9590	47.1880
 0.9600	47.1080
 0.9610	47.0420
 0.9620	46.9890
 0.9630	46.9210
 0.9640	46.8570
 0.9650	46.8170
 0.9660	46.8030
 0.9670	46.7590
 0.9680	46.7250
 0.9690	46.7030
 0.9700	46.6820
 0.9710	46.6570
 0.9720	46.6370
 0.9730	46.6310
 0.9740	46.6380
 0.9750	46.6220
 0.9760	46.6070
 0.9770	46.5990
 0.9780	46.5970
 0.9790	46.6190
 0.9800	46.6290
 0.9810	46.6310
 0.9820	46.6480
 0.9830	46.6710
 0.9840	46.6890
 0.9850	46.7040
 0.9860	46.7250
 0.9870	46.7640
 0.9880	46.7980
 0.9890	46.8230
 0.9900	46.8510
 0.9910	46.8990
 0.9920	46.9490
 0.9930	46.9980
 0.9940	47.0470
 0.9950	47.0970
 0.9960	47.1460
 0.9970	47.1950
 0.9980	47.2450
 0.9990	47.2940
 1.0000	47.3430
 1.0010	47.3930
 1.0020	47.4420
 1.0030	47.4910
 1.0040	47.5410
 1.0050	47.5900
 1.0060	47.6390
 1.0070	47.6890
 1.0080	47.7380
 1.0090	47.7880
 1.0100	47.7880
 1.0110	47.8380
 1.0120	47.8800
 1.0130	47.9160
 1.0140	47.9580
 1.0150	48.0050
 1.0160	48.0440
 1.0170	48.0810
 1.0180	48.1210
 1.0190	48.1540
 1.0200	48.1860
 1.0210	48.2250
 1.0220	48.2660
 1.0230	48.3050
 1.0240	48.3500
 1.0250	48.3870
 1.0260	48.4180
 1.0270	48.4530
 1.0280	48.4850
 1.0290	48.5190
 1.0300	48.5550
 1.0310	48.5910
 1.0320	48.6290
 1.0330	48.6650
 1.0340	48.7050
 1.0350	48.7410
 1.0360	48.7720
 1.0370	48.8040
 1.0380	48.8320
 1.0390	48.8540
 1.0400	48.8810
 1.0410	48.9080
 1.0420	48.9340
 1.0430	48.9630
 1.0440	48.9890
 1.0450	49.0110
 1.0460	49.0340
 1.0470	49.0580
 1.0480	49.0810
 1.0490	49.1020
 1.0500	49.1220
 1.0510	49.1400
 1.0520	49.1580
 1.0530	49.1750
 1.0540	49.1900
 1.0550	49.2070
 1.0560	49.2240
 1.0570	49.2390
 1.0580	49.2540
 1.0590	49.2690
 1.0600	49.2840
 1.0610	49.2970
 1.0620	49.3110
 1.0630	49.3200
 1.0640	49.3190
 1.0650	49.3250
 1.0660	49.3300
 1.0670	49.3360
 1.0680	49.3430
 1.0690	49.3560
 1.0700	49.3610
 1.0710	49.3600
 1.0720	49.3640
 1.0730	49.3670
 1.0740	49.3680
 1.0750	49.3740
 1.0760	49.3730
 1.0770	49.3690
 1.0780	49.3650
 1.0790	49.3550
 1.0800	49.3500
 1.0810	49.3460
 1.0820	49.3410
 1.0830	49.3390
 1.0840	49.3340
 1.0850	49.3280
 1.0860	49.3200
 1.0870	49.3080
 1.0880	49.2940
 1.0890	49.2800
 1.0900	49.2620
 1.0910	49.2480
 1.0920	49.2370
 1.0930	49.2230
 1.0940	49.2080
 1.0950	49.1920
 1.0960	49.1720
 1.0970	49.1520
 1.0980	49.1320
 1.0990	49.1120
 1.1000	49.0920
 1.1010	49.0720
 1.1020	49.0530
 1.1030	49.0310
 1.1040	49.0080
 1.1050	48.9850
 1.1060	48.9600
 1.1070	48.9330
 1.1080	48.9070
 1.1090	48.8820
 1.1100	48.8550
 1.1110	48.8300
 1.1120	48.8000
 1.1130	48.7680
 1.1140	48.7350
 1.1150	48.7010
 1.1160	48.6630
 1.1170	48.6230
 1.1180	48.5770
 1.1190	48.5270
 1.1200	48.4730
 1.1210	48.4140
 1.1220	48.3490
 1.1230	48.2770
 1.1240	48.2000
 1.1250	48.1140
 1.1260	48.0240
 1.1270	47.9190
 1.1280	47.8060
 1.1290	47.6810
 1.1300	47.5480
 1.1310	47.4020
 1.1320	47.2450
 1.1330	47.0770
 1.1340	46.8970
 1.1350	46.7060
 1.1360	46.5070
 1.1370	46.2940
 1.1380	46.0710
 1.1390	45.8430
 1.1400	45.6070
 1.1410	45.3730
 1.1420	45.1360
 1.1430	44.8950
 1.1440	44.6570
 1.1450	44.4150
 1.1460	44.1830
 1.1470	43.9510
 1.1480	43.7330
 1.1490	43.5220
 1.1500	43.3260
 1.1510	43.1400
 1.1520	42.9670
 1.1530	42.8060
 1.1540	42.6580
 1.1550	42.5220
 1.1560	42.3990
 1.1570	42.2880
 1.1580	42.1890
 1.1590	42.1000
 1.1600	42.0220
 1.1610	41.9550
 1.1620	41.8950
 1.1630	41.8430
 1.1640	41.7960
 1.1650	41.7540
 1.1660	41.7200
 1.1670	41.6860
 1.1680	41.6560
 1.1690	41.6280
 1.1700	41.6040
 1.1710	41.5800
 1.1720	41.5600
 1.1730	41.5380
 1.1740	41.5170
 1.1750	41.4950
 1.1760	41.4740
 1.1770	41.4520
 1.1780	41.4280
 1.1790	41.4040
 1.1800	41.3790
 1.1810	41.3490
 1.1820	41.3210
 1.1830	41.2940
 1.1840	41.2630
 1.1850	41.2350
 1.1860	41.2100
 1.1870	41.1860
 1.1880	41.1630
 1.1890	41.1430
 1.1900	41.1250
 1.1910	41.1070
 1.1920	41.0930
 1.1930	41.0800
 1.1940	41.0710
 1.1950	41.0660
 1.1960	41.0620
 1.1970	41.0610
 1.1980	41.0640
 1.1990	41.0680
 1.2000	41.0720
 1.2010	41.0810
 1.2020	41.0930
 1.2030	41.1080
 1.2040	41.1270
 1.2050	41.1470
 1.2060	41.1690
 1.2070	41.1950
 1.2080	41.2220
 1.2090	41.2530
 1.2100	41.2870
 1.2110	41.3230
 1.2120	41.3610
 1.2130	41.4030
 1.2140	41.4470
 1.2150	41.4940
 1.2160	41.5440
 1.2170	41.5930
 1.2180	41.6440
 1.2190	41.6950
 1.2200	41.7460
 1.2210	41.8020
 1.2220	41.8580
 1.2230	41.9130
 1.2240	41.9700
 1.2250	42.0220
 1.2260	42.0740
 1.2270	42.1270
 1.2280	42.1740
 1.2290	42.2220
 1.2300	42.2690
 1.2310	42.3110
 1.2320	42.3540
 1.2330	42.3960
 1.2340	42.4360
 1.2350	42.4740
 1.2360	42.5120
 1.2370	42.5500
 1.2380	42.5860
 1.2390	42.6210
 1.2400	42.6530
 1.2410	42.6860
 1.2420	42.7170
 1.2430	42.7460
 1.2440	42.7780
 1.2450	42.8090
 1.2460	42.8370
 1.2470	42.8630
 1.2480	42.8890
 1.2490	42.9110
 1.2500	42.9310
 1.2510	42.9540
 1.2520	42.9730
 1.2530	42.9900
 1.2540	43.0070
 1.2550	43.0210
 1.2560	43.0340
 1.2570	43.0480
 1.2580	43.0610
 1.2590	43.0710
 1.2600	43.0800
 1.2610	43.0870
 1.2620	43.0910
 1.2630	43.0930
 1.2640	43.0950
 1.2650	43.0950
 1.2660	43.0940
 1.2670	43.0900
 1.2680	43.0850
 1.2690	43.0770
 1.2700	43.0680
 1.2710	43.0590
 1.2720	43.0480
 1.2730	43.0350
 1.2740	43.0200
 1.2750	43.0040
 1.2760	42.9870
 1.2770	42.9690
 1.2780	42.9490
 1.2790	42.9270
 1.2800	42.9020
 1.2810	42.8740
 1.2820	42.8430
 1.2830	42.8090
 1.2840	42.7730
 1.2850	42.7360
 1.2860	42.6970
 1.2870	42.6550
 1.2880	42.6100
 1.2890	42.5620
 1.2900	42.5120
 1.2910	42.4580
 1.2920	42.4010
 1.2930	42.3400
 1.2940	42.2750
 1.2950	42.2050
 1.2960	42.1340
 1.2970	42.0620
 1.2980	41.9850
 1.2990	41.9030
 1.3000	41.8190
 1.3010	41.7290
 1.3020	41.6370
 1.3030	41.5410
 1.3040	41.4370
 1.3050	41.3300
 1.3060	41.2180
 1.3070	41.1030
 1.3080	40.9880
 1.3090	40.8670
 1.3100	40.7430
 1.3110	40.6140
 1.3120	40.4790
 1.3130	40.3410
 1.3140	40.1990
 1.3150	40.0520
 1.3160	39.9000
 1.3170	39.7450
 1.3180	39.5840
 1.3190	39.4180
 1.3200	39.2510
 1.3210	39.0770
 1.3220	38.9010
 1.3230	38.7210
 1.3240	38.5340
 1.3250	38.3460
 1.3260	38.1550
 1.3270	37.9610
 1.3280	37.7670
 1.3290	37.5670
 1.3300	37.3680
 1.3310	37.1660
 1.3320	36.9620
 1.3330	36.7570
 1.3340	36.5530
 1.3350	36.3470
 1.3360	36.1450
 1.3370	35.9410
 1.3380	35.7380
 1.3390	35.5350
 1.3400	35.3320
 1.3410	35.1330
 1.3420	34.9370
 1.3430	34.7430
 1.3440	34.5510
 1.3450	34.3610
 1.3460	34.1720
 1.3470	33.9860
 1.3480	33.8020
 1.3490	33.6220
 1.3500	33.4450
 1.3510	33.2700
 1.3520	33.0950
 1.3530	32.9230
 1.3540	32.7500
 1.3550	32.5780
 1.3560	32.4060
 1.3570	32.2310
 1.3580	32.0570
 1.3590	31.8790
 1.3600	31.6970
 1.3610	31.5130
 1.3620	31.3220
 1.3630	31.1250
 1.3640	30.9210
 1.3650	30.7070
 1.3660	30.4860
 1.3670	30.2540
 1.3680	30.0110
 1.3690	29.7560
 1.3700	29.4840
 1.3710	29.1990
 1.3720	28.8980
 1.3730	28.5770
 1.3740	28.2410
 1.3750	27.8860
 1.3760	27.5070
 1.3770	27.1090
 1.3780	26.6850
 1.3790	26.2380
 1.3800	25.7700
 1.3810	25.2770
 1.3820	24.7720
 1.3830	24.2490
 1.3840	23.7130
 1.3850	23.1610
 1.3860	22.6030
 1.3870	22.0270
 1.3880	21.4580
 1.3890	20.8850
 1.3900	20.3090
 1.3910	19.7440
 1.3920	19.1810
 1.3930	18.6230
 1.3940	18.0780
 1.3950	17.5390
 1.3960	17.0160
 1.3970	16.5110
 1.3980	16.0220
 1.3990	15.5590
 1.4000	15.1160
 1.4010	14.6920
 1.4020	14.2930
 1.4030	13.9110
 1.4040	13.5510
 1.4050	13.2160
 1.4060	12.9000
 1.4070	12.6090
 1.4080	12.3390
 1.4090	12.0860
 1.4100	11.8540
 1.4110	11.6370
 1.4120	11.4360
 1.4130	11.2520
 1.4140	11.0820
 1.4150	10.9270
 1.4160	10.7850
 1.4170	10.6550
 1.4180	10.5360
 1.4190	10.4270
 1.4200	10.3270
 1.4210	10.2370
 1.4220	10.1540
 1.4230	10.0790
 1.4240	10.0100
 1.4250	 9.9470
 1.4260	 9.8910
 1.4270	 9.8400
 1.4280	 9.7950
 1.4290	 9.7540
 1.4300	 9.7190
 1.4310	 9.6870
 1.4320	 9.6590
 1.4330	 9.6360
 1.4340	 9.6170
 1.4350	 9.6000
 1.4360	 9.5860
 1.4370	 9.5740
 1.4380	 9.5650
 1.4390	 9.5590
 1.4400	 9.5550
 1.4410	 9.5540
 1.4420	 9.5550
 1.4430	 9.5580
 1.4440	 9.5620
 1.4450	 9.5680
 1.4460	 9.5740
 1.4470	 9.5820
 1.4480	 9.5910
 1.4490	 9.6010
 1.4500	 9.6120
 1.4510	 9.6240
 1.4520	 9.6370
 1.4530	 9.6500
 1.4540	 9.6650
 1.4550	 9.6820
 1.4560	 9.7000
 1.4570	 9.7200
 1.4580	 9.7430
 1.4590	 9.7660
 1.4600	 9.7930
 1.4610	 9.8220
 1.4620	 9.8540
 1.4630	 9.8900
 1.4640	 9.9290
 1.4650	 9.9720
 1.4660	10.0180
 1.4670	10.0680
 1.4680	10.1200
 1.4690	10.1750
 1.4700	10.2330
 1.4710	10.2960
 1.4720	10.3600
 1.4730	10.4260
 1.4740	10.4960
 1.4750	10.5670
 1.4760	10.6420
 1.4770	10.7200
 1.4780	10.7980
 1.4790	10.8800
 1.4800	10.9620
 1.4810	11.0450
 1.4820	11.1300
 1.4830	11.2170
 1.4840	11.3060
 1.4850	11.3960
 1.4860	11.4860
 1.4870	11.5790
 1.4880	11.6710
 1.4890	11.7640
 1.4900	11.8580
 1.4910	11.9530
 1.4920	12.0500
 1.4930	12.1490
 1.4940	12.2470
 1.4950	12.3460
 1.4960	12.4450
 1.4970	12.5440
 1.4980	12.6450
 1.4990	12.7470
 1.5000	12.8490
 1.5010	12.9520
 1.5020	13.0550
 1.5030	13.1590
 1.5040	13.2620
 1.5050	13.3660
 1.5060	13.4710
 1.5070	13.5760
 1.5080	13.6810
 1.5090	13.7860
 1.5100	13.8930
 1.5110	13.9980
 1.5120	14.1040
 1.5130	14.2100
 1.5140	14.3140
 1.5150	14.4180
 1.5160	14.5230
 1.5170	14.6290
 1.5180	14.7350
 1.5190	14.8420
 1.5200	14.9480
 1.5210	15.0520
 1.5220	15.1560
 1.5230	15.2610
 1.5240	15.3640
 1.5250	15.4690
 1.5260	15.5730
 1.5270	15.6760
 1.5280	15.7800
 1.5290	15.8820
 1.5300	15.9830
 1.5310	16.0840
 1.5320	16.1860
 1.5330	16.2870
 1.5340	16.3880
 1.5350	16.4880
 1.5360	16.5880
 1.5370	16.6850
 1.5380	16.7830
 1.5390	16.8810
 1.5400	16.9780
 1.5410	17.0750
 1.5420	17.1720
 1.5430	17.2670
 1.5440	17.3620
 1.5450	17.4580
 1.5460	17.5520
 1.5470	17.6460
 1.5480	17.7400
 1.5490	17.8330
 1.5500	17.9260
 1.5510	18.0170
 1.5520	18.1090
 1.5530	18.1980
 1.5540	18.2870
 1.5550	18.3770
 1.5560	18.4650
 1.5570	18.5520
 1.5580	18.6380
 1.5590	18.7240
 1.5600	18.8100
 1.5610	18.8940
 1.5620	18.9780
 1.5630	19.0610
 1.5640	19.1410
 1.5650	19.2220
 1.5660	19.3030
 1.5670	19.3820
 1.5680	19.4610
 1.5690	19.5400
 1.5700	19.6190
 1.5710	19.6970
 1.5720	19.7740
 1.5730	19.8500
 1.5740	19.9260
 1.5750	20.0020
 1.5760	20.0790
 1.5770	20.1540
 1.5780	20.2300
 1.5790	20.3050
 1.5800	20.3780
 1.5810	20.4530
 1.5820	20.5250
 1.5830	20.5970
 1.5840	20.6700
 1.5850	20.7430
 1.5860	20.8140
 1.5870	20.8860
 1.5880	20.9560
 1.5890	21.0250
 1.5900	21.0950
 1.5910	21.1640
 1.5920	21.2340
 1.5930	21.3030
 1.5940	21.3710
 1.5950	21.4400
 1.5960	21.5060
 1.5970	21.5720
 1.5980	21.6390
 1.5990	21.7030
 1.6000	21.7670
 1.6010	21.8320
 1.6020	21.8940
 1.6030	21.9570
 1.6040	22.0200
 1.6050	22.0810
 1.6060	22.1410
 1.6070	22.2010
 1.6080	22.2610
 1.6090	22.3190
 1.6100	22.3790
 1.6110	22.4370
 1.6120	22.4940
 1.6130	22.5500
 1.6140	22.6030
 1.6150	22.6570
 1.6160	22.7090
 1.6170	22.7600
 1.6180	22.8120
 1.6190	22.8620
 1.6200	22.9100
 1.6210	22.9590
 1.6220	23.0070
 1.6230	23.0530
 1.6240	23.1000
 1.6250	23.1450
 1.6260	23.1900
 1.6270	23.2340
 1.6280	23.2770
 1.6290	23.3190
 1.6300	23.3580
 1.6310	23.3980
 1.6320	23.4380
 1.6330	23.4760
 1.6340	23.5130
 1.6350	23.5490
 1.6360	23.5840
 1.6370	23.6170
 1.6380	23.6490
 1.6390	23.6800
 1.6400	23.7080
 1.6410	23.7340
 1.6420	23.7600
 1.6430	23.7820
 1.6440	23.8010
 1.6450	23.8200
 1.6460	23.8370
 1.6470	23.8520
 1.6480	23.8640
 1.6490	23.8730
 1.6500	23.8780
 1.6510	23.8800
 1.6520	23.8810
 1.6530	23.8800
 1.6540	23.8770
 1.6550	23.8700
 1.6560	23.8600
 1.6570	23.8500
 1.6580	23.8380
 1.6590	23.8240
 1.6600	23.8110
 1.6610	23.7970
 1.6620	23.7800
 1.6630	23.7660
 1.6640	23.7520
 1.6650	23.7360
 1.6660	23.7210
 1.6670	23.7070
 1.6680	23.6920
 1.6690	23.6780
 1.6700	23.6640
 1.6710	23.6490
 1.6720	23.6330
 1.6730	23.6160
 1.6740	23.5990
 1.6750	23.5790
 1.6760	23.5590
 1.6770	23.5390
 1.6780	23.5150
 1.6790	23.4910
 1.6800	23.4670
 1.6810	23.4420
 1.6820	23.4170
 1.6830	23.3900
 1.6840	23.3610
 1.6850	23.3320
 1.6860	23.3040
 1.6870	23.2740
 1.6880	23.2430
 1.6890	23.2070
 1.6900	23.1700
 1.6910	23.1310
 1.6920	23.0910
 1.6930	23.0510
 1.6940	23.0080
 1.6950	22.9640
 1.6960	22.9190
 1.6970	22.8730
 1.6980	22.8250
 1.6990	22.7740
 1.7000	22.7220
 1.7010	22.6650
 1.7020	22.6090
 1.7030	22.5530
 1.7040	22.4960
 1.7050	22.4380
 1.7060	22.3790
 1.7070	22.3180
 1.7080	22.2590
 1.7090	22.2000
 1.7100	22.1400
 1.7110	22.0810
 1.7120	22.0240
 1.7130	21.9660
 1.7140	21.9090
 1.7150	21.8520
 1.7160	21.7950
 1.7170	21.7390
 1.7180	21.6820
 1.7190	21.6260
 1.7200	21.5710
 1.7210	21.5160
 1.7220	21.4630
 1.7230	21.4100
 1.7240	21.3580
 1.7250	21.3060
 1.7260	21.2560
 1.7270	21.2100
 1.7280	21.1670
 1.7290	21.1270
 1.7300	21.0880
 1.7310	21.0490
 1.7320	21.0120
 1.7330	20.9750
 1.7340	20.9400
 1.7350	20.9040
 1.7360	20.8680
 1.7370	20.8290
 1.7380	20.7890
 1.7390	20.7460
 1.7400	20.6990
 1.7410	20.6510
 1.7420	20.6020
 1.7430	20.5480
 1.7440	20.4910
 1.7450	20.4330
 1.7460	20.3700
 1.7470	20.3100
 1.7480	20.2490
 1.7490	20.1890
 1.7500	20.1280
 1.7510	20.0680
 1.7520	20.0080
 1.7530	19.9460
 1.7540	19.8840
 1.7550	19.8230
 1.7560	19.7630
 1.7570	19.7040
 1.7580	19.6470
 1.7590	19.5940
 1.7600	19.5430
 1.7610	19.4960
 1.7620	19.4480
 1.7630	19.3980
 1.7640	19.3520
 1.7650	19.3080
 1.7660	19.2670
 1.7670	19.2310
 1.7680	19.1940
 1.7690	19.1560
 1.7700	19.1210
 1.7710	19.0850
 1.7720	19.0520
 1.7730	19.0220
 1.7740	18.9910
 1.7750	18.9610
 1.7760	18.9300
 1.7770	18.8970
 1.7780	18.8690
 1.7790	18.8420
 1.7800	18.8170
 1.7810	18.7940
 1.7820	18.7720
 1.7830	18.7490
 1.7840	18.7280
 1.7850	18.7100
 1.7860	18.6930
 1.7870	18.6760
 1.7880	18.6620
 1.7890	18.6520
 1.7900	18.6440
 1.7910	18.6360
 1.7920	18.6300
 1.7930	18.6240
 1.7940	18.6190
 1.7950	18.6150
 1.7960	18.6110
 1.7970	18.6090
 1.7980	18.6110
 1.7990	18.6120
 1.8000	18.6130
 1.8010	18.6160
 1.8020	18.6200
 1.8030	18.6240
 1.8040	18.6310
 1.8050	18.6360
 1.8060	18.6410
 1.8070	18.6450
 1.8080	18.6480
 1.8090	18.6510
 1.8100	18.6570
 1.8110	18.6600
 1.8120	18.6610
 1.8130	18.6620
 1.8140	18.6640
 1.8150	18.6660
 1.8160	18.6680
 1.8170	18.6690
 1.8180	18.6680
 1.8190	18.6680
 1.8200	18.6660
 1.8210	18.6620
 1.8220	18.6570
 1.8230	18.6530
 1.8240	18.6460
 1.8250	18.6360
 1.8260	18.6260
 1.8270	18.5840
 1.8280	18.5430
 1.8290	18.5020
 1.8300	18.4600
 1.8310	18.4190
 1.8320	18.3780
 1.8330	18.3360
 1.8340	18.2950
 1.8350	18.2950
 1.8360	18.2550
 1.8370	18.2080
 1.8380	18.1590
 1.8390	18.1060
 1.8400	18.0500
 1.8410	17.9880
 1.8420	17.9230
 1.8430	17.8490
 1.8440	17.7690
 1.8450	17.6820
 1.8460	17.5900
 1.8470	17.4890
 1.8480	17.3790
 1.8490	17.2590
 1.8500	17.1310
 1.8510	16.9930
 1.8520	16.8460
 1.8530	16.6880
 1.8540	16.5230
 1.8550	16.3470
 1.8560	16.1570
 1.8570	15.9600
 1.8580	15.7480
 1.8590	15.5270
 1.8600	15.2920
 1.8610	15.0520
 1.8620	14.7980
 1.8630	14.5350
 1.8640	14.2600
 1.8650	13.9710
 1.8660	13.6690
 1.8670	13.3550
 1.8680	13.0320
 1.8690	12.6980
 1.8700	12.3560
 1.8710	12.0050
 1.8720	11.6530
 1.8730	11.2950
 1.8740	10.9360
 1.8750	10.5800
 1.8760	10.2210
 1.8770	 9.8680
 1.8780	 9.5230
 1.8790	 9.1840
 1.8800	 8.8580
 1.8810	 8.5420
 1.8820	 8.2330
 1.8830	 7.9340
 1.8840	 7.6490
 1.8850	 7.3720
 1.8860	 7.1110
 1.8870	 6.8640
 1.8880	 6.6290
 1.8890	 6.4130
 1.8900	 6.2120
 1.8910	 6.0260
 1.8920	 5.8550
 1.8930	 5.7010
 1.8940	 5.5580
 1.8950	 5.4290
 1.8960	 5.3120
 1.8970	 5.2080
 1.8980	 5.1170
 1.8990	 5.0350
 1.9000	 4.9610
 1.9010	 4.9000
 1.9020	 4.8420
 1.9030	 4.7890
 1.9040	 4.7460
 1.9050	 4.7090
 1.9060	 4.6740
 1.9070	 4.6450
 1.9080	 4.6190
 1.9090	 4.5940
 1.9100	 4.5730
 1.9110	 4.5540
 1.9120	 4.5390
 1.9130	 4.5250
 1.9140	 4.5130
 1.9150	 4.5030
 1.9160	 4.4950
 1.9170	 4.4900
 1.9180	 4.4850
 1.9190	 4.4810
 1.9200	 4.4750
 1.9210	 4.4700
 1.9220	 4.4660
 1.9230	 4.4630
 1.9240	 4.4620
 1.9250	 4.4610
 1.9260	 4.4620
 1.9270	 4.4620
 1.9280	 4.4610
 1.9290	 4.4620
 1.9300	 4.4630
 1.9310	 4.4640
 1.9320	 4.4690
 1.9330	 4.4740
 1.9340	 4.4810
 1.9350	 4.4860
 1.9360	 4.4900
 1.9370	 4.4950
 1.9380	 4.5000
 1.9390	 4.5030
 1.9400	 4.5090
 1.9410	 4.5170
 1.9420	 4.5240
 1.9430	 4.5330
 1.9440	 4.5420
 1.9450	 4.5500
 1.9460	 4.5590
 1.9470	 4.5690
 1.9480	 4.5770
 1.9490	 4.5830
 1.9500	 4.5910
 1.9510	 4.6010
 1.9520	 4.6090
 1.9530	 4.6200
 1.9540	 4.6330
 1.9550	 4.6450
 1.9560	 4.6550
 1.9570	 4.6670
 1.9580	 4.6790
 1.9590	 4.6920
 1.9600	 4.7070
 1.9610	 4.7210
 1.9620	 4.7370
 1.9630	 4.7510
 1.9640	 4.7640
 1.9650	 4.7770
 1.9660	 4.7910
 1.9670	 4.8050
 1.9680	 4.8210
 1.9690	 4.8400
 1.9700	 4.8570
 1.9710	 4.8760
 1.9720	 4.8940
 1.9730	 4.9150
 1.9740	 4.9330
 1.9750	 4.9510
 1.9760	 4.9700
 1.9770	 4.9870
 1.9780	 5.0040
 1.9790	 5.0230
 1.9800	 5.0440
 1.9810	 5.0650
 1.9820	 5.0870
 1.9830	 5.1090
 1.9840	 5.1290
 1.9850	 5.1510
 1.9860	 5.1740
 1.9870	 5.1990
 1.9880	 5.2270
 1.9890	 5.2550
 1.9900	 5.2820
 1.9910	 5.3080
 1.9920	 5.3340
 1.9930	 5.3600
 1.9940	 5.3860
 1.9950	 5.4120
 1.9960	 5.4390
 1.9970	 5.4650
 1.9980	 5.4920
 1.9990	 5.5210
 2.0000	 5.5500
 2.0010	 5.5770
 2.0020	 5.6060
 2.0030	 5.6320
 2.0040	 5.6590
 2.0050	 5.6880
 2.0060	 5.7200
 2.0070	 5.7500
 2.0080	 5.7780
 2.0090	 5.8070
 2.0100	 5.8370
 2.0110	 5.8670
 2.0120	 5.8970
 2.0130	 5.9300
 2.0140	 5.9580
 2.0150	 5.9860
 2.0160	 6.0160
 2.0170	 6.0450
 2.0180	 6.0760
 2.0190	 6.1100
 2.0200	 6.1400
 2.0210	 6.1700
 2.0220	 6.1990
 2.0230	 6.2260
 2.0240	 6.2540
 2.0250	 6.2840
 2.0260	 6.3130
 2.0270	 6.3410
 2.0280	 6.3690
 2.0290	 6.3990
 2.0300	 6.4280
 2.0310	 6.4570
 2.0320	 6.4880
 2.0330	 6.5150
 2.0340	 6.5390
 2.0350	 6.5640
 2.0360	 6.5880
 2.0370	 6.6120
 2.0380	 6.6340
 2.0390	 6.6590
 2.0400	 6.6840
 2.0410	 6.7070
 2.0420	 6.7310
 2.0430	 6.7540
 2.0440	 6.7780
 2.0450	 6.8010
 2.0460	 6.8250
 2.0470	 6.8510
 2.0480	 6.8740
 2.0490	 6.8960
 2.0500	 6.9190
 2.0510	 6.9420
 2.0520	 6.9650
 2.0530	 6.9890
 2.0540	 7.0130
 2.0550	 7.0370
 2.0560	 7.0620
 2.0570	 7.0870
 2.0580	 7.1130
 2.0590	 7.1380
 2.0600	 7.1620
 2.0610	 7.1890
 2.0620	 7.2150
 2.0630	 7.2420
 2.0640	 7.2730
 2.0650	 7.3000
 2.0660	 7.3250
 2.0670	 7.3510
 2.0680	 7.3750
 2.0690	 7.4010
 2.0700	 7.4310
 2.0710	 7.4600
 2.0720	 7.4880
 2.0730	 7.5160
 2.0740	 7.5430
 2.0750	 7.5680
 2.0760	 7.5950
 2.0770	 7.6230
 2.0780	 7.6510
 2.0790	 7.6810
 2.0800	 7.7090
 2.0810	 7.7340
 2.0820	 7.7600
 2.0830	 7.7850
 2.0840	 7.8100
 2.0850	 7.8370
 2.0860	 7.8640
 2.0870	 7.8910
 2.0880	 7.9180
 2.0890	 7.9460
 2.0900	 7.9750
 2.0910	 8.0030
 2.0920	 8.0320
 2.0930	 8.0610
 2.0940	 8.0890
 2.0950	 8.1170
 2.0960	 8.1440
 2.0970	 8.1710
 2.0980	 8.1970
 2.0990	 8.2220
 2.1000	 8.2440
 2.1010	 8.2690
 2.1020	 8.2940
 2.1030	 8.3190
 2.1040	 8.3460
 2.1050	 8.3760
 2.1060	 8.4020
 2.1070	 8.4260
 2.1080	 8.4530
 2.1090	 8.4790
 2.1100	 8.5050
 2.1110	 8.5320
 2.1120	 8.5580
 2.1130	 8.5830
 2.1140	 8.6070
 2.1150	 8.6290
 2.1160	 8.6520
 2.1170	 8.6740
 2.1180	 8.6950
 2.1190	 8.7140
 2.1200	 8.7350
 2.1210	 8.7560
 2.1220	 8.7770
 2.1230	 8.7990
 2.1240	 8.8240
 2.1250	 8.8460
 2.1260	 8.8650
 2.1270	 8.8860
 2.1280	 8.9060
 2.1290	 8.9260
 2.1300	 8.9430
 2.1310	 8.9610
 2.1320	 8.9780
 2.1330	 8.9960
 2.1340	 9.0160
 2.1350	 9.0340
 2.1360	 9.0520
 2.1370	 9.0700
 2.1380	 9.0860
 2.1390	 9.1020
 2.1400	 9.1170
 2.1410	 9.1360
 2.1420	 9.1540
 2.1430	 9.1730
 2.1440	 9.1910
 2.1450	 9.2110
 2.1460	 9.2280
 2.1470	 9.2450
 2.1480	 9.2630
 2.1490	 9.2810
 2.1500	 9.2980
 2.1510	 9.3190
 2.1520	 9.3350
 2.1530	 9.3470
 2.1540	 9.3620
 2.1550	 9.3750
 2.1560	 9.3900
 2.1570	 9.4100
 2.1580	 9.4270
 2.1590	 9.4420
 2.1600	 9.4580
 2.1610	 9.4740
 2.1620	 9.4890
 2.1630	 9.5060
 2.1640	 9.5240
 2.1650	 9.5420
 2.1660	 9.5610
 2.1670	 9.5790
 2.1680	 9.5970
 2.1690	 9.6140
 2.1700	 9.6300
 2.1710	 9.6450
 2.1720	 9.6560
 2.1730	 9.6710
 2.1740	 9.6860
 2.1750	 9.7030
 2.1760	 9.7260
 2.1770	 9.7430
 2.1780	 9.7570
 2.1790	 9.7730
 2.1800	 9.7860
 2.1810	 9.8000
 2.1820	 9.8150
 2.1830	 9.8330
 2.1840	 9.8500
 2.1850	 9.8670
 2.1860	 9.8820
 2.1870	 9.8960
 2.1880	 9.9140
 2.1890	 9.9330
 2.1900	 9.9500
 2.1910	 9.9680
 2.1920	 9.9850
 2.1930	 9.9980
 2.1940	10.0140
 2.1950	10.0330
 2.1960	10.0490
 2.1970	10.0640
 2.1980	10.0790
 2.1990	10.0940
 2.2000	10.1080
 2.2010	10.1200
 2.2020	10.1320
 2.2030	10.1410
 2.2040	10.1530
 2.2050	10.1670
 2.2060	10.1800
 2.2070	10.1920
 2.2080	10.2070
 2.2090	10.2170
 2.2100	10.2250
 2.2110	10.2320
 2.2120	10.2370
 2.2130	10.2420
 2.2140	10.2470
 2.2150	10.2520
 2.2160	10.2590
 2.2170	10.2630
 2.2180	10.2660
 2.2190	10.2670
 2.2200	10.2670
 2.2210	10.2660
 2.2220	10.2650
 2.2230	10.2590
 2.2240	10.2500
 2.2250	10.2420
 2.2260	10.2300
 2.2270	10.2200
 2.2280	10.2150
 2.2290	10.2040
 2.2300	10.1890
 2.2310	10.1750
 2.2320	10.1550
 2.2330	10.1350
 2.2340	10.1110
 2.2350	10.0860
 2.2360	10.0570
 2.2370	10.0230
 2.2380	 9.9910
 2.2390	 9.9600
 2.2400	 9.9280
 2.2410	 9.8960
 2.2420	 9.8630
 2.2430	 9.8310
 2.2440	 9.7940
 2.2450	 9.7550
 2.2460	 9.7160
 2.2470	 9.6760
 2.2480	 9.6350
 2.2490	 9.5960
 2.2500	 9.5540
 2.2510	 9.5080
 2.2520	 9.4660
 2.2530	 9.4270
 2.2540	 9.3860
 2.2550	 9.3480
 2.2560	 9.3070
 2.2570	 9.2600
 2.2580	 9.2180
 2.2590	 9.1780
 2.2600	 9.1370
 2.2610	 9.0960
 2.2620	 9.0560
 2.2630	 9.0180
 2.2640	 8.9790
 2.2650	 8.9410
 2.2660	 8.9080
 2.2670	 8.8710
 2.2680	 8.8310
 2.2690	 8.7960
 2.2700	 8.7620
 2.2710	 8.7260
 2.2720	 8.6920
 2.2730	 8.6580
 2.2740	 8.6250
 2.2750	 8.5900
 2.2760	 8.5520
 2.2770	 8.5180
 2.2780	 8.4840
 2.2790	 8.4530
 2.2800	 8.4280
 2.2810	 8.4000
 2.2820	 8.3710
 2.2830	 8.3430
 2.2840	 8.3160
 2.2850	 8.2870
 2.2860	 8.2590
 2.2870	 8.2270
 2.2880	 8.1910
 2.2890	 8.1550
 2.2900	 8.1160
 2.2910	 8.0800
 2.2920	 8.0450
 2.2930	 8.0110
 2.2940	 7.9800
 2.2950	 7.9480
 2.2960	 7.9160
 2.2970	 7.8840
 2.2980	 7.8540
 2.2990	 7.8210
 2.3000	 7.7910
 2.3010	 7.7590
 2.3020	 7.7310
 2.3030	 7.7020
 2.3040	 7.6690
 2.3050	 7.6410
 2.3060	 7.6120
 2.3070	 7.5850
 2.3080	 7.5700
 2.3090	 7.5570
 2.3100	 7.5440
 2.3110	 7.5350
 2.3120	 7.5240
 2.3130	 7.5120
 2.3140	 7.5010
 2.3150	 7.4880
 2.3160	 7.4790
 2.3170	 7.4710
 2.3180	 7.4600
 2.3190	 7.4510
 2.3200	 7.4360
 2.3210	 7.4150
 2.3220	 7.3960
 2.3230	 7.3750
 2.3240	 7.3550
 2.3250	 7.3330
 2.3260	 7.3110
 2.3270	 7.2890
 2.3280	 7.2670
 2.3290	 7.2460
 2.3300	 7.2220
 2.3310	 7.1970
 2.3320	 7.1690
 2.3330	 7.1370
 2.3340	 7.1090
 2.3350	 7.0790
 2.3360	 7.0550
 2.3370	 7.0380
 2.3380	 7.0180
 2.3390	 7.0040
 2.3400	 6.9820
 2.3410	 6.9550
 2.3420	 6.9280
 2.3430	 6.8940
 2.3440	 6.8650
 2.3450	 6.8370
 2.3460	 6.8140
 2.3470	 6.7970
 2.3480	 6.7780
 2.3490	 6.7600
 2.3500	 6.7420
 2.3510	 6.7190
 2.3520	 6.7010
 2.3530	 6.6870
 2.3540	 6.6750
 2.3550	 6.6540
 2.3560	 6.6360
 2.3570	 6.6160
 2.3580	 6.5890
 2.3590	 6.5700
 2.3600	 6.5560
 2.3610	 6.5430
 2.3620	 6.5320
 2.3630	 6.5230
 2.3640	 6.5070
 2.3650	 6.4780
 2.3660	 6.4540
 2.3670	 6.4350
 2.3680	 6.4090
 2.3690	 6.3930
 2.3700	 6.3830
 2.3710	 6.3700
 2.3720	 6.3610
 2.3730	 6.3530
 2.3740	 6.3330
 2.3750	 6.3080
 2.3760	 6.2790
 2.3770	 6.2520
 2.3780	 6.2320
 2.3790	 6.2180
 2.3800	 6.2090
 2.3810	 6.1930
 2.3820	 6.1720
 2.3830	 6.1490
 2.3840	 6.1230
 2.3850	 6.1050
 2.3860	 6.0870
 2.3870	 6.0620
 2.3880	 6.0480
 2.3890	 6.0350
 2.3900	 6.0200
 2.3910	 6.0060
 2.3920	 5.9820
 2.3930	 5.9540
 2.3940	 5.9270
 2.3950	 5.9040
 2.3960	 5.8860
 2.3970	 5.8650
 2.3980	 5.8500
 2.3990	 5.8340
 2.4000	 5.8140
 2.4010	 5.8010
 2.4020	 5.7820
 2.4030	 5.7630
 2.4040	 5.7530
 2.4050	 5.7390
 2.4060	 5.7250
 2.4070	 5.7070
 2.4080	 5.6750
 2.4090	 5.6450
 2.4100	 5.6190
 2.4110	 5.6020
 2.4120	 5.5920
 2.4130	 5.5770
 2.4140	 5.5570
 2.4150	 5.5370
 2.4160	 5.5080
 2.4170	 5.4780
 2.4180	 5.4650
 2.4190	 5.4450
 2.4200	 5.4290
 2.4210	 5.4310
 2.4220	 5.4110
 2.4230	 5.3890
 2.4240	 5.3770
 2.4250	 5.3530
 2.4260	 5.3400
 2.4270	 5.3340
 2.4280	 5.3290
 2.4290	 5.3140
 2.4300	 5.2970
 2.4310	 5.2830
 2.4320	 5.2510
 2.4330	 5.2320
 2.4340	 5.2230
 2.4350	 5.2010
 2.4360	 5.1810
 2.4370	 5.1590
 2.4380	 5.1330
 2.4390	 5.1090
 2.4400	 5.0850
 2.4410	 5.0600
 2.4420	 5.0310
 2.4430	 5.0090
 2.4440	 5.0050
 2.4450	 5.0100
 2.4460	 5.0110
 2.4470	 5.0030
 2.4480	 4.9830
 2.4490	 4.9470
 2.4500	 4.9100
 2.4510	 4.8720
 2.4520	 4.8360
 2.4530	 4.8180
 2.4540	 4.8170
 2.4550	 4.8080
 2.4560	 4.8070
 2.4570	 4.8100
 2.4580	 4.7900
 2.4590	 4.7880
 2.4600	 4.7870
 2.4610	 4.7690
 2.4620	 4.7540
 2.4630	 4.7360
 2.4640	 4.7300
 2.4650	 4.7230
 2.4660	 4.7190
 2.4670	 4.7150
 2.4680	 4.6950
 2.4690	 4.6560
 2.4700	 4.6390
 2.4710	 4.6290
 2.4720	 4.6020
 2.4730	 4.5830
 2.4740	 4.5830
 2.4750	 4.5750
 2.4760	 4.5770
 2.4770	 4.6080
 2.4780	 4.6080
 2.4790	 4.5910
 2.4800	 4.5820
 2.4810	 4.5680
 2.4820	 4.5430
 2.4830	 4.5210
 2.4840	 4.4970
 2.4850	 4.5080
 2.4860	 4.5210
 2.4870	 4.5200
 2.4880	 4.5220
 2.4890	 4.5260
 2.4900	 4.5550
 2.4910	 4.5730
 2.4920	 4.5560
 2.4930	 4.5440
 2.4940	 4.5290
 2.4950	 4.5090
 2.4960	 4.5430
 2.4970	 4.5590
 2.4980	 4.5330
 2.4990	 4.5550
 2.5000	 4.5570
