Name: Quercus rubra
Type: Vegetation
Class: Tree
Genus: Quercus
Species: rubra
Sample No.: QURU-3-9
Owner: UCSB
Wavelength Range: VSWIR
Origin: USA; Massachusetts; Harvard Forest
Collection Date: 7/8/2013
Description: Samples were collected as part of NSF Macrosystem Biology proposal titled: Collaborative Research: Thermal controls on ecosystem metabolism and function: scaling from leaves to canopies to regions. Samples were collected and overnighted to JPL facilities for processing. The same leaves were processed in the Nicolet and then measured using the ASD.
Measurement: Bidirectional reflectance
First Column: X
Second Column: Y
X Units: Wavelength (micrometers)
Y Units: Reflectance (percentage)
First X Value: 0.35
Last X Value: 2.5
Number of X Values: 2151
Additional Information: vegetation.tree.quercus.rubra.vswir.quru-3-9.ucsb.asd.ancillary.txt

 0.3500	 4.4640
 0.3510	 4.1310
 0.3520	 3.9070
 0.3530	 4.0000
 0.3540	 4.3500
 0.3550	 4.3020
 0.3560	 4.1100
 0.3570	 3.9970
 0.3580	 4.0990
 0.3590	 4.0410
 0.3600	 3.8820
 0.3610	 3.7770
 0.3620	 3.9630
 0.3630	 3.9350
 0.3640	 3.8850
 0.3650	 4.0310
 0.3660	 3.9950
 0.3670	 3.8930
 0.3680	 3.8490
 0.3690	 3.9590
 0.3700	 3.9420
 0.3710	 3.8750
 0.3720	 3.8630
 0.3730	 3.9860
 0.3740	 3.9800
 0.3750	 3.8610
 0.3760	 3.7620
 0.3770	 3.9030
 0.3780	 4.0220
 0.3790	 3.9880
 0.3800	 3.8260
 0.3810	 3.8480
 0.3820	 3.9080
 0.3830	 3.8820
 0.3840	 3.8740
 0.3850	 3.8740
 0.3860	 3.8780
 0.3870	 3.8780
 0.3880	 3.8570
 0.3890	 3.8720
 0.3900	 3.9090
 0.3910	 3.8720
 0.3920	 3.8480
 0.3930	 3.8360
 0.3940	 3.8310
 0.3950	 3.8700
 0.3960	 3.8450
 0.3970	 3.8090
 0.3980	 3.8640
 0.3990	 3.8730
 0.4000	 3.8950
 0.4010	 3.9300
 0.4020	 3.8770
 0.4030	 3.8490
 0.4040	 3.8710
 0.4050	 3.9140
 0.4060	 3.8590
 0.4070	 3.8430
 0.4080	 3.8640
 0.4090	 3.8380
 0.4100	 3.8480
 0.4110	 3.8450
 0.4120	 3.8110
 0.4130	 3.8190
 0.4140	 3.8200
 0.4150	 3.8430
 0.4160	 3.9030
 0.4170	 3.8750
 0.4180	 3.8510
 0.4190	 3.8700
 0.4200	 3.9040
 0.4210	 3.8870
 0.4220	 3.8660
 0.4230	 3.8820
 0.4240	 3.9090
 0.4250	 3.9210
 0.4260	 3.9250
 0.4270	 3.9410
 0.4280	 3.9600
 0.4290	 3.9790
 0.4300	 4.0000
 0.4310	 4.0180
 0.4320	 4.0340
 0.4330	 4.0520
 0.4340	 4.0770
 0.4350	 4.0990
 0.4360	 4.1150
 0.4370	 4.1260
 0.4380	 4.1300
 0.4390	 4.1100
 0.4400	 4.1000
 0.4410	 4.1200
 0.4420	 4.1240
 0.4430	 4.1270
 0.4440	 4.1300
 0.4450	 4.1350
 0.4460	 4.1520
 0.4470	 4.1770
 0.4480	 4.2000
 0.4490	 4.2030
 0.4500	 4.2040
 0.4510	 4.2040
 0.4520	 4.2030
 0.4530	 4.2300
 0.4540	 4.2420
 0.4550	 4.2430
 0.4560	 4.2620
 0.4570	 4.2570
 0.4580	 4.2520
 0.4590	 4.2630
 0.4600	 4.2690
 0.4610	 4.2760
 0.4620	 4.2770
 0.4630	 4.2700
 0.4640	 4.2770
 0.4650	 4.2960
 0.4660	 4.3070
 0.4670	 4.2810
 0.4680	 4.2790
 0.4690	 4.2860
 0.4700	 4.2850
 0.4710	 4.3040
 0.4720	 4.3010
 0.4730	 4.2850
 0.4740	 4.2880
 0.4750	 4.2830
 0.4760	 4.2850
 0.4770	 4.2990
 0.4780	 4.3040
 0.4790	 4.2940
 0.4800	 4.2850
 0.4810	 4.2940
 0.4820	 4.2970
 0.4830	 4.3030
 0.4840	 4.3120
 0.4850	 4.3140
 0.4860	 4.3140
 0.4870	 4.3240
 0.4880	 4.3400
 0.4890	 4.3280
 0.4900	 4.3310
 0.4910	 4.3500
 0.4920	 4.3630
 0.4930	 4.3680
 0.4940	 4.3800
 0.4950	 4.3990
 0.4960	 4.4050
 0.4970	 4.4260
 0.4980	 4.4480
 0.4990	 4.4510
 0.5000	 4.4710
 0.5010	 4.4980
 0.5020	 4.5280
 0.5030	 4.5620
 0.5040	 4.5880
 0.5050	 4.6210
 0.5060	 4.6680
 0.5070	 4.7030
 0.5080	 4.7550
 0.5090	 4.8200
 0.5100	 4.8800
 0.5110	 4.9560
 0.5120	 5.0390
 0.5130	 5.1260
 0.5140	 5.2150
 0.5150	 5.3190
 0.5160	 5.4400
 0.5170	 5.5730
 0.5180	 5.7070
 0.5190	 5.8500
 0.5200	 6.0020
 0.5210	 6.1620
 0.5220	 6.3160
 0.5230	 6.4740
 0.5240	 6.6400
 0.5250	 6.8000
 0.5260	 6.9560
 0.5270	 7.1050
 0.5280	 7.2440
 0.5290	 7.3760
 0.5300	 7.5020
 0.5310	 7.6210
 0.5320	 7.7260
 0.5330	 7.8180
 0.5340	 7.9050
 0.5350	 7.9890
 0.5360	 8.0490
 0.5370	 8.1080
 0.5380	 8.1700
 0.5390	 8.2230
 0.5400	 8.2700
 0.5410	 8.3210
 0.5420	 8.3760
 0.5430	 8.4300
 0.5440	 8.4820
 0.5450	 8.5330
 0.5460	 8.5790
 0.5470	 8.5810
 0.5480	 8.5730
 0.5490	 8.5760
 0.5500	 8.5910
 0.5510	 8.6010
 0.5520	 8.6010
 0.5530	 8.5940
 0.5540	 8.5800
 0.5550	 8.5550
 0.5560	 8.5160
 0.5570	 8.4620
 0.5580	 8.3970
 0.5590	 8.3250
 0.5600	 8.2470
 0.5610	 8.1610
 0.5620	 8.0710
 0.5630	 7.9770
 0.5640	 7.8730
 0.5650	 7.7650
 0.5660	 7.6490
 0.5670	 7.5290
 0.5680	 7.4150
 0.5690	 7.2970
 0.5700	 7.1770
 0.5710	 7.0610
 0.5720	 6.9540
 0.5730	 6.8500
 0.5740	 6.7480
 0.5750	 6.6520
 0.5760	 6.5630
 0.5770	 6.4850
 0.5780	 6.4150
 0.5790	 6.3460
 0.5800	 6.2760
 0.5810	 6.2090
 0.5820	 6.1530
 0.5830	 6.1120
 0.5840	 6.0690
 0.5850	 6.0230
 0.5860	 5.9930
 0.5870	 5.9660
 0.5880	 5.9370
 0.5890	 5.9060
 0.5900	 5.8740
 0.5910	 5.8440
 0.5920	 5.8160
 0.5930	 5.7900
 0.5940	 5.7710
 0.5950	 5.7570
 0.5960	 5.7450
 0.5970	 5.7250
 0.5980	 5.7110
 0.5990	 5.7000
 0.6000	 5.6850
 0.6010	 5.6660
 0.6020	 5.6410
 0.6030	 5.6130
 0.6040	 5.5910
 0.6050	 5.5610
 0.6060	 5.5270
 0.6070	 5.4950
 0.6080	 5.4590
 0.6090	 5.4220
 0.6100	 5.3920
 0.6110	 5.3730
 0.6120	 5.3290
 0.6130	 5.2750
 0.6140	 5.2280
 0.6150	 5.1880
 0.6160	 5.1480
 0.6170	 5.1110
 0.6180	 5.0830
 0.6190	 5.0580
 0.6200	 5.0360
 0.6210	 5.0170
 0.6220	 5.0000
 0.6230	 4.9810
 0.6240	 4.9660
 0.6250	 4.9560
 0.6260	 4.9460
 0.6270	 4.9380
 0.6280	 4.9330
 0.6290	 4.9310
 0.6300	 4.9250
 0.6310	 4.9200
 0.6320	 4.9140
 0.6330	 4.9040
 0.6340	 4.8950
 0.6350	 4.8850
 0.6360	 4.8710
 0.6370	 4.8500
 0.6380	 4.8310
 0.6390	 4.8120
 0.6400	 4.7850
 0.6410	 4.7560
 0.6420	 4.7290
 0.6430	 4.7040
 0.6440	 4.6800
 0.6450	 4.6510
 0.6460	 4.6220
 0.6470	 4.5990
 0.6480	 4.5730
 0.6490	 4.5520
 0.6500	 4.5360
 0.6510	 4.5190
 0.6520	 4.5020
 0.6530	 4.4850
 0.6540	 4.4680
 0.6550	 4.4510
 0.6560	 4.4370
 0.6570	 4.4210
 0.6580	 4.4000
 0.6590	 4.3830
 0.6600	 4.3620
 0.6610	 4.3380
 0.6620	 4.3210
 0.6630	 4.3060
 0.6640	 4.2930
 0.6650	 4.2790
 0.6660	 4.2710
 0.6670	 4.2630
 0.6680	 4.2570
 0.6690	 4.2590
 0.6700	 4.2630
 0.6710	 4.2680
 0.6720	 4.2740
 0.6730	 4.2860
 0.6740	 4.2970
 0.6750	 4.3100
 0.6760	 4.3270
 0.6770	 4.3460
 0.6780	 4.3680
 0.6790	 4.3940
 0.6800	 4.4210
 0.6810	 4.4490
 0.6820	 4.4800
 0.6830	 4.5180
 0.6840	 4.5620
 0.6850	 4.6050
 0.6860	 4.6510
 0.6870	 4.7070
 0.6880	 4.7690
 0.6890	 4.8470
 0.6900	 4.9420
 0.6910	 5.0470
 0.6920	 5.1880
 0.6930	 5.3670
 0.6940	 5.5870
 0.6950	 5.8550
 0.6960	 6.1810
 0.6970	 6.5680
 0.6980	 7.0190
 0.6990	 7.5330
 0.7000	 8.1130
 0.7010	 8.7520
 0.7020	 9.4390
 0.7030	10.1820
 0.7040	10.9680
 0.7050	11.7850
 0.7060	12.6320
 0.7070	13.4960
 0.7080	14.3780
 0.7090	15.2850
 0.7100	16.1970
 0.7110	17.1220
 0.7120	18.0580
 0.7130	18.9890
 0.7140	19.9240
 0.7150	20.8600
 0.7160	21.7930
 0.7170	22.7280
 0.7180	23.6460
 0.7190	24.5530
 0.7200	25.4580
 0.7210	26.3460
 0.7220	27.2150
 0.7230	28.0650
 0.7240	28.8920
 0.7250	29.6980
 0.7260	30.4790
 0.7270	31.2300
 0.7280	31.9500
 0.7290	32.6450
 0.7300	33.3100
 0.7310	33.9430
 0.7320	34.5480
 0.7330	35.1240
 0.7340	35.6680
 0.7350	36.1850
 0.7360	36.6720
 0.7370	37.1360
 0.7380	37.5790
 0.7390	37.9790
 0.7400	38.3560
 0.7410	38.7150
 0.7420	39.0550
 0.7430	39.3580
 0.7440	39.6430
 0.7450	39.9150
 0.7460	40.1570
 0.7470	40.3830
 0.7480	40.5950
 0.7490	40.7890
 0.7500	40.9570
 0.7510	41.1130
 0.7520	41.2580
 0.7530	41.3910
 0.7540	41.5120
 0.7550	41.6240
 0.7560	41.7240
 0.7570	41.8030
 0.7580	41.8840
 0.7590	41.9610
 0.7600	42.0240
 0.7610	42.0630
 0.7620	42.1250
 0.7630	42.1830
 0.7640	42.2060
 0.7650	42.2450
 0.7660	42.2790
 0.7670	42.3030
 0.7680	42.3220
 0.7690	42.3430
 0.7700	42.3690
 0.7710	42.3930
 0.7720	42.3930
 0.7730	42.4110
 0.7740	42.4320
 0.7750	42.4400
 0.7760	42.4490
 0.7770	42.4600
 0.7780	42.4720
 0.7790	42.4800
 0.7800	42.4910
 0.7810	42.4940
 0.7820	42.4910
 0.7830	42.5030
 0.7840	42.5140
 0.7850	42.5230
 0.7860	42.5310
 0.7870	42.5270
 0.7880	42.5350
 0.7890	42.5480
 0.7900	42.5520
 0.7910	42.5490
 0.7920	42.5490
 0.7930	42.5550
 0.7940	42.5600
 0.7950	42.5580
 0.7960	42.5570
 0.7970	42.5600
 0.7980	42.5660
 0.7990	42.5680
 0.8000	42.5650
 0.8010	42.5600
 0.8020	42.5550
 0.8030	42.5550
 0.8040	42.5570
 0.8050	42.5560
 0.8060	42.5450
 0.8070	42.5450
 0.8080	42.5530
 0.8090	42.5430
 0.8100	42.5340
 0.8110	42.5340
 0.8120	42.5380
 0.8130	42.5300
 0.8140	42.5220
 0.8150	42.5130
 0.8160	42.5030
 0.8170	42.4950
 0.8180	42.4940
 0.8190	42.4950
 0.8200	42.4870
 0.8210	42.4800
 0.8220	42.4810
 0.8230	42.4800
 0.8240	42.4640
 0.8250	42.4540
 0.8260	42.4520
 0.8270	42.4520
 0.8280	42.4460
 0.8290	42.4420
 0.8300	42.4380
 0.8310	42.4290
 0.8320	42.4170
 0.8330	42.4150
 0.8340	42.4160
 0.8350	42.4080
 0.8360	42.4030
 0.8370	42.3910
 0.8380	42.3830
 0.8390	42.4010
 0.8400	42.4000
 0.8410	42.3900
 0.8420	42.3860
 0.8430	42.3930
 0.8440	42.3950
 0.8450	42.3890
 0.8460	42.3830
 0.8470	42.3950
 0.8480	42.3980
 0.8490	42.3930
 0.8500	42.3890
 0.8510	42.3860
 0.8520	42.3930
 0.8530	42.3990
 0.8540	42.3900
 0.8550	42.3920
 0.8560	42.3970
 0.8570	42.4000
 0.8580	42.3950
 0.8590	42.3940
 0.8600	42.3950
 0.8610	42.3960
 0.8620	42.4050
 0.8630	42.4060
 0.8640	42.4060
 0.8650	42.4110
 0.8660	42.4140
 0.8670	42.4130
 0.8680	42.4120
 0.8690	42.4130
 0.8700	42.4180
 0.8710	42.4200
 0.8720	42.4180
 0.8730	42.4140
 0.8740	42.4220
 0.8750	42.4230
 0.8760	42.4170
 0.8770	42.4310
 0.8780	42.4400
 0.8790	42.4350
 0.8800	42.4240
 0.8810	42.4310
 0.8820	42.4390
 0.8830	42.4430
 0.8840	42.4440
 0.8850	42.4430
 0.8860	42.4470
 0.8870	42.4540
 0.8880	42.4560
 0.8890	42.4400
 0.8900	42.4340
 0.8910	42.4420
 0.8920	42.4540
 0.8930	42.4470
 0.8940	42.4490
 0.8950	42.4590
 0.8960	42.4540
 0.8970	42.4590
 0.8980	42.4670
 0.8990	42.4710
 0.9000	42.4590
 0.9010	42.4520
 0.9020	42.4520
 0.9030	42.4570
 0.9040	42.4580
 0.9050	42.4660
 0.9060	42.4620
 0.9070	42.4450
 0.9080	42.4510
 0.9090	42.4610
 0.9100	42.4670
 0.9110	42.4630
 0.9120	42.4570
 0.9130	42.4640
 0.9140	42.4680
 0.9150	42.4550
 0.9160	42.4730
 0.9170	42.4680
 0.9180	42.4520
 0.9190	42.4520
 0.9200	42.4590
 0.9210	42.4570
 0.9220	42.4490
 0.9230	42.4450
 0.9240	42.4440
 0.9250	42.4330
 0.9260	42.4160
 0.9270	42.4010
 0.9280	42.3970
 0.9290	42.3840
 0.9300	42.3650
 0.9310	42.3590
 0.9320	42.3640
 0.9330	42.3620
 0.9340	42.3500
 0.9350	42.3380
 0.9360	42.3100
 0.9370	42.2800
 0.9380	42.2610
 0.9390	42.2570
 0.9400	42.2460
 0.9410	42.2290
 0.9420	42.2130
 0.9430	42.2030
 0.9440	42.1780
 0.9450	42.1530
 0.9460	42.1360
 0.9470	42.1040
 0.9480	42.0510
 0.9490	42.0100
 0.9500	41.9910
 0.9510	41.9310
 0.9520	41.8920
 0.9530	41.8680
 0.9540	41.8350
 0.9550	41.7990
 0.9560	41.7480
 0.9570	41.6950
 0.9580	41.6540
 0.9590	41.6270
 0.9600	41.6100
 0.9610	41.5900
 0.9620	41.5590
 0.9630	41.5310
 0.9640	41.4970
 0.9650	41.4780
 0.9660	41.4870
 0.9670	41.4630
 0.9680	41.4340
 0.9690	41.4120
 0.9700	41.3990
 0.9710	41.3880
 0.9720	41.3820
 0.9730	41.3810
 0.9740	41.3810
 0.9750	41.3790
 0.9760	41.3640
 0.9770	41.3520
 0.9780	41.3600
 0.9790	41.3600
 0.9800	41.3480
 0.9810	41.3260
 0.9820	41.3030
 0.9830	41.3270
 0.9840	41.3410
 0.9850	41.3320
 0.9860	41.3180
 0.9870	41.3520
 0.9880	41.3900
 0.9890	41.4100
 0.9900	41.4060
 0.9910	41.3810
 0.9920	41.4120
 0.9930	41.4420
 0.9940	41.4720
 0.9950	41.5020
 0.9960	41.5330
 0.9970	41.5630
 0.9980	41.5930
 0.9990	41.6230
 1.0000	41.6540
 1.0010	41.6840
 1.0020	41.7140
 1.0030	41.7440
 1.0040	41.7750
 1.0050	41.8050
 1.0060	41.8350
 1.0070	41.8650
 1.0080	41.8960
 1.0090	41.9260
 1.0100	41.9260
 1.0110	41.9410
 1.0120	41.9530
 1.0130	41.9730
 1.0140	41.9850
 1.0150	41.9930
 1.0160	41.9940
 1.0170	42.0000
 1.0180	42.0090
 1.0190	42.0230
 1.0200	42.0370
 1.0210	42.0470
 1.0220	42.0530
 1.0230	42.0630
 1.0240	42.0730
 1.0250	42.0800
 1.0260	42.0860
 1.0270	42.0920
 1.0280	42.0920
 1.0290	42.0970
 1.0300	42.1070
 1.0310	42.1170
 1.0320	42.1330
 1.0330	42.1400
 1.0340	42.1540
 1.0350	42.1680
 1.0360	42.1740
 1.0370	42.1830
 1.0380	42.1880
 1.0390	42.1830
 1.0400	42.1870
 1.0410	42.1930
 1.0420	42.1990
 1.0430	42.2090
 1.0440	42.2150
 1.0450	42.2210
 1.0460	42.2260
 1.0470	42.2290
 1.0480	42.2320
 1.0490	42.2350
 1.0500	42.2380
 1.0510	42.2380
 1.0520	42.2490
 1.0530	42.2530
 1.0540	42.2570
 1.0550	42.2570
 1.0560	42.2570
 1.0570	42.2530
 1.0580	42.2410
 1.0590	42.2380
 1.0600	42.2330
 1.0610	42.2340
 1.0620	42.2490
 1.0630	42.2530
 1.0640	42.2520
 1.0650	42.2520
 1.0660	42.2460
 1.0670	42.2420
 1.0680	42.2390
 1.0690	42.2360
 1.0700	42.2350
 1.0710	42.2330
 1.0720	42.2350
 1.0730	42.2440
 1.0740	42.2440
 1.0750	42.2420
 1.0760	42.2400
 1.0770	42.2320
 1.0780	42.2260
 1.0790	42.2240
 1.0800	42.2180
 1.0810	42.2070
 1.0820	42.2000
 1.0830	42.1950
 1.0840	42.1910
 1.0850	42.1880
 1.0860	42.1890
 1.0870	42.1880
 1.0880	42.1870
 1.0890	42.1800
 1.0900	42.1700
 1.0910	42.1610
 1.0920	42.1460
 1.0930	42.1370
 1.0940	42.1350
 1.0950	42.1260
 1.0960	42.1140
 1.0970	42.1060
 1.0980	42.0980
 1.0990	42.0890
 1.1000	42.0820
 1.1010	42.0730
 1.1020	42.0590
 1.1030	42.0440
 1.1040	42.0340
 1.1050	42.0230
 1.1060	42.0150
 1.1070	42.0120
 1.1080	42.0030
 1.1090	41.9950
 1.1100	41.9820
 1.1110	41.9610
 1.1120	41.9460
 1.1130	41.9340
 1.1140	41.9180
 1.1150	41.9050
 1.1160	41.8890
 1.1170	41.8680
 1.1180	41.8470
 1.1190	41.8270
 1.1200	41.8050
 1.1210	41.7830
 1.1220	41.7590
 1.1230	41.7330
 1.1240	41.7050
 1.1250	41.6730
 1.1260	41.6370
 1.1270	41.5990
 1.1280	41.5590
 1.1290	41.5140
 1.1300	41.4670
 1.1310	41.4140
 1.1320	41.3580
 1.1330	41.2960
 1.1340	41.2260
 1.1350	41.1540
 1.1360	41.0760
 1.1370	41.0000
 1.1380	40.9180
 1.1390	40.8290
 1.1400	40.7420
 1.1410	40.6490
 1.1420	40.5540
 1.1430	40.4660
 1.1440	40.3730
 1.1450	40.2750
 1.1460	40.1820
 1.1470	40.0880
 1.1480	39.9990
 1.1490	39.9120
 1.1500	39.8280
 1.1510	39.7450
 1.1520	39.6680
 1.1530	39.5940
 1.1540	39.5270
 1.1550	39.4650
 1.1560	39.4110
 1.1570	39.3650
 1.1580	39.3240
 1.1590	39.2870
 1.1600	39.2560
 1.1610	39.2260
 1.1620	39.1990
 1.1630	39.1760
 1.1640	39.1550
 1.1650	39.1370
 1.1660	39.1240
 1.1670	39.1100
 1.1680	39.0990
 1.1690	39.0860
 1.1700	39.0680
 1.1710	39.0550
 1.1720	39.0460
 1.1730	39.0340
 1.1740	39.0230
 1.1750	39.0140
 1.1760	39.0020
 1.1770	38.9900
 1.1780	38.9790
 1.1790	38.9710
 1.1800	38.9600
 1.1810	38.9480
 1.1820	38.9390
 1.1830	38.9240
 1.1840	38.9090
 1.1850	38.8990
 1.1860	38.8870
 1.1870	38.8740
 1.1880	38.8630
 1.1890	38.8530
 1.1900	38.8430
 1.1910	38.8350
 1.1920	38.8290
 1.1930	38.8280
 1.1940	38.8230
 1.1950	38.8190
 1.1960	38.8150
 1.1970	38.8120
 1.1980	38.8070
 1.1990	38.8050
 1.2000	38.8050
 1.2010	38.8020
 1.2020	38.8080
 1.2030	38.8160
 1.2040	38.8220
 1.2050	38.8320
 1.2060	38.8360
 1.2070	38.8400
 1.2080	38.8470
 1.2090	38.8530
 1.2100	38.8620
 1.2110	38.8730
 1.2120	38.8860
 1.2130	38.8990
 1.2140	38.9140
 1.2150	38.9290
 1.2160	38.9480
 1.2170	38.9660
 1.2180	38.9820
 1.2190	39.0000
 1.2200	39.0150
 1.2210	39.0300
 1.2220	39.0480
 1.2230	39.0660
 1.2240	39.0870
 1.2250	39.1080
 1.2260	39.1270
 1.2270	39.1440
 1.2280	39.1590
 1.2290	39.1750
 1.2300	39.1940
 1.2310	39.2130
 1.2320	39.2310
 1.2330	39.2490
 1.2340	39.2640
 1.2350	39.2770
 1.2360	39.2900
 1.2370	39.3010
 1.2380	39.3080
 1.2390	39.3150
 1.2400	39.3230
 1.2410	39.3310
 1.2420	39.3440
 1.2430	39.3610
 1.2440	39.3730
 1.2450	39.3830
 1.2460	39.3910
 1.2470	39.3950
 1.2480	39.3990
 1.2490	39.4090
 1.2500	39.4180
 1.2510	39.4210
 1.2520	39.4270
 1.2530	39.4310
 1.2540	39.4340
 1.2550	39.4390
 1.2560	39.4390
 1.2570	39.4430
 1.2580	39.4470
 1.2590	39.4490
 1.2600	39.4550
 1.2610	39.4560
 1.2620	39.4530
 1.2630	39.4460
 1.2640	39.4430
 1.2650	39.4360
 1.2660	39.4300
 1.2670	39.4280
 1.2680	39.4220
 1.2690	39.4140
 1.2700	39.4080
 1.2710	39.3980
 1.2720	39.3920
 1.2730	39.3850
 1.2740	39.3750
 1.2750	39.3650
 1.2760	39.3510
 1.2770	39.3340
 1.2780	39.3230
 1.2790	39.3090
 1.2800	39.2910
 1.2810	39.2750
 1.2820	39.2600
 1.2830	39.2470
 1.2840	39.2350
 1.2850	39.2190
 1.2860	39.2030
 1.2870	39.1850
 1.2880	39.1640
 1.2890	39.1430
 1.2900	39.1230
 1.2910	39.0980
 1.2920	39.0700
 1.2930	39.0400
 1.2940	39.0080
 1.2950	38.9780
 1.2960	38.9480
 1.2970	38.9120
 1.2980	38.8770
 1.2990	38.8390
 1.3000	38.7970
 1.3010	38.7560
 1.3020	38.7130
 1.3030	38.6710
 1.3040	38.6300
 1.3050	38.5860
 1.3060	38.5380
 1.3070	38.4840
 1.3080	38.4280
 1.3090	38.3740
 1.3100	38.3180
 1.3110	38.2580
 1.3120	38.1950
 1.3130	38.1320
 1.3140	38.0660
 1.3150	37.9980
 1.3160	37.9290
 1.3170	37.8580
 1.3180	37.7840
 1.3190	37.7090
 1.3200	37.6320
 1.3210	37.5500
 1.3220	37.4630
 1.3230	37.3720
 1.3240	37.2810
 1.3250	37.1900
 1.3260	37.0950
 1.3270	37.0020
 1.3280	36.9090
 1.3290	36.8110
 1.3300	36.7140
 1.3310	36.6120
 1.3320	36.5040
 1.3330	36.4010
 1.3340	36.2980
 1.3350	36.1940
 1.3360	36.0880
 1.3370	35.9810
 1.3380	35.8710
 1.3390	35.7590
 1.3400	35.6500
 1.3410	35.5420
 1.3420	35.4350
 1.3430	35.3290
 1.3440	35.2220
 1.3450	35.1160
 1.3460	35.0090
 1.3470	34.9030
 1.3480	34.7960
 1.3490	34.6910
 1.3500	34.5880
 1.3510	34.4840
 1.3520	34.3820
 1.3530	34.2790
 1.3540	34.1730
 1.3550	34.0700
 1.3560	33.9670
 1.3570	33.8630
 1.3580	33.7590
 1.3590	33.6510
 1.3600	33.5380
 1.3610	33.4220
 1.3620	33.3030
 1.3630	33.1790
 1.3640	33.0490
 1.3650	32.9130
 1.3660	32.7690
 1.3670	32.6170
 1.3680	32.4580
 1.3690	32.2910
 1.3700	32.1100
 1.3710	31.9200
 1.3720	31.7170
 1.3730	31.4980
 1.3740	31.2670
 1.3750	31.0210
 1.3760	30.7570
 1.3770	30.4730
 1.3780	30.1640
 1.3790	29.8370
 1.3800	29.4910
 1.3810	29.1220
 1.3820	28.7340
 1.3830	28.3260
 1.3840	27.8980
 1.3850	27.4480
 1.3860	26.9860
 1.3870	26.5050
 1.3880	26.0160
 1.3890	25.5150
 1.3900	25.0000
 1.3910	24.4810
 1.3920	23.9560
 1.3930	23.4220
 1.3940	22.8860
 1.3950	22.3480
 1.3960	21.8140
 1.3970	21.2880
 1.3980	20.7730
 1.3990	20.2730
 1.4000	19.7850
 1.4010	19.3060
 1.4020	18.8470
 1.4030	18.4020
 1.4040	17.9750
 1.4050	17.5710
 1.4060	17.1860
 1.4070	16.8240
 1.4080	16.4830
 1.4090	16.1630
 1.4100	15.8650
 1.4110	15.5850
 1.4120	15.3250
 1.4130	15.0830
 1.4140	14.8570
 1.4150	14.6530
 1.4160	14.4640
 1.4170	14.2900
 1.4180	14.1340
 1.4190	13.9880
 1.4200	13.8560
 1.4210	13.7390
 1.4220	13.6320
 1.4230	13.5360
 1.4240	13.4490
 1.4250	13.3710
 1.4260	13.3010
 1.4270	13.2390
 1.4280	13.1870
 1.4290	13.1410
 1.4300	13.1020
 1.4310	13.0680
 1.4320	13.0400
 1.4330	13.0160
 1.4340	12.9990
 1.4350	12.9860
 1.4360	12.9780
 1.4370	12.9740
 1.4380	12.9740
 1.4390	12.9750
 1.4400	12.9810
 1.4410	12.9890
 1.4420	13.0000
 1.4430	13.0140
 1.4440	13.0300
 1.4450	13.0510
 1.4460	13.0710
 1.4470	13.0910
 1.4480	13.1130
 1.4490	13.1350
 1.4500	13.1570
 1.4510	13.1810
 1.4520	13.2050
 1.4530	13.2290
 1.4540	13.2540
 1.4550	13.2850
 1.4560	13.3190
 1.4570	13.3550
 1.4580	13.3940
 1.4590	13.4350
 1.4600	13.4770
 1.4610	13.5230
 1.4620	13.5760
 1.4630	13.6310
 1.4640	13.6910
 1.4650	13.7570
 1.4660	13.8270
 1.4670	13.9010
 1.4680	13.9820
 1.4690	14.0690
 1.4700	14.1600
 1.4710	14.2540
 1.4720	14.3520
 1.4730	14.4520
 1.4740	14.5550
 1.4750	14.6610
 1.4760	14.7710
 1.4770	14.8810
 1.4780	14.9930
 1.4790	15.1070
 1.4800	15.2230
 1.4810	15.3400
 1.4820	15.4590
 1.4830	15.5790
 1.4840	15.6990
 1.4850	15.8210
 1.4860	15.9430
 1.4870	16.0670
 1.4880	16.1910
 1.4890	16.3130
 1.4900	16.4370
 1.4910	16.5630
 1.4920	16.6880
 1.4930	16.8160
 1.4940	16.9410
 1.4950	17.0650
 1.4960	17.1900
 1.4970	17.3120
 1.4980	17.4360
 1.4990	17.5610
 1.5000	17.6850
 1.5010	17.8120
 1.5020	17.9370
 1.5030	18.0620
 1.5040	18.1860
 1.5050	18.3090
 1.5060	18.4320
 1.5070	18.5550
 1.5080	18.6770
 1.5090	18.8000
 1.5100	18.9190
 1.5110	19.0380
 1.5120	19.1570
 1.5130	19.2730
 1.5140	19.3900
 1.5150	19.5070
 1.5160	19.6210
 1.5170	19.7360
 1.5180	19.8490
 1.5190	19.9610
 1.5200	20.0730
 1.5210	20.1840
 1.5220	20.2970
 1.5230	20.4080
 1.5240	20.5140
 1.5250	20.6210
 1.5260	20.7260
 1.5270	20.8290
 1.5280	20.9330
 1.5290	21.0370
 1.5300	21.1400
 1.5310	21.2410
 1.5320	21.3390
 1.5330	21.4370
 1.5340	21.5330
 1.5350	21.6300
 1.5360	21.7280
 1.5370	21.8230
 1.5380	21.9170
 1.5390	22.0100
 1.5400	22.1010
 1.5410	22.1940
 1.5420	22.2850
 1.5430	22.3730
 1.5440	22.4640
 1.5450	22.5520
 1.5460	22.6390
 1.5470	22.7270
 1.5480	22.8110
 1.5490	22.8940
 1.5500	22.9760
 1.5510	23.0560
 1.5520	23.1360
 1.5530	23.2180
 1.5540	23.2990
 1.5550	23.3790
 1.5560	23.4570
 1.5570	23.5320
 1.5580	23.6050
 1.5590	23.6790
 1.5600	23.7510
 1.5610	23.8240
 1.5620	23.8960
 1.5630	23.9650
 1.5640	24.0340
 1.5650	24.1020
 1.5660	24.1680
 1.5670	24.2360
 1.5680	24.3040
 1.5690	24.3710
 1.5700	24.4400
 1.5710	24.5090
 1.5720	24.5710
 1.5730	24.6310
 1.5740	24.6900
 1.5750	24.7510
 1.5760	24.8140
 1.5770	24.8760
 1.5780	24.9390
 1.5790	25.0000
 1.5800	25.0590
 1.5810	25.1180
 1.5820	25.1760
 1.5830	25.2320
 1.5840	25.2890
 1.5850	25.3450
 1.5860	25.4020
 1.5870	25.4570
 1.5880	25.5120
 1.5890	25.5680
 1.5900	25.6210
 1.5910	25.6780
 1.5920	25.7370
 1.5930	25.7910
 1.5940	25.8440
 1.5950	25.8970
 1.5960	25.9470
 1.5970	25.9980
 1.5980	26.0520
 1.5990	26.1040
 1.6000	26.1550
 1.6010	26.2030
 1.6020	26.2520
 1.6030	26.3020
 1.6040	26.3510
 1.6050	26.4010
 1.6060	26.4540
 1.6070	26.5020
 1.6080	26.5460
 1.6090	26.5920
 1.6100	26.6350
 1.6110	26.6790
 1.6120	26.7260
 1.6130	26.7670
 1.6140	26.8060
 1.6150	26.8430
 1.6160	26.8780
 1.6170	26.9140
 1.6180	26.9480
 1.6190	26.9840
 1.6200	27.0180
 1.6210	27.0530
 1.6220	27.0900
 1.6230	27.1260
 1.6240	27.1590
 1.6250	27.1910
 1.6260	27.2230
 1.6270	27.2550
 1.6280	27.2860
 1.6290	27.3160
 1.6300	27.3440
 1.6310	27.3720
 1.6320	27.4020
 1.6330	27.4290
 1.6340	27.4560
 1.6350	27.4790
 1.6360	27.5000
 1.6370	27.5200
 1.6380	27.5370
 1.6390	27.5550
 1.6400	27.5730
 1.6410	27.5880
 1.6420	27.6040
 1.6430	27.6150
 1.6440	27.6220
 1.6450	27.6270
 1.6460	27.6280
 1.6470	27.6260
 1.6480	27.6270
 1.6490	27.6290
 1.6500	27.6280
 1.6510	27.6240
 1.6520	27.6170
 1.6530	27.6020
 1.6540	27.5900
 1.6550	27.5780
 1.6560	27.5610
 1.6570	27.5490
 1.6580	27.5360
 1.6590	27.5190
 1.6600	27.5070
 1.6610	27.4920
 1.6620	27.4740
 1.6630	27.4620
 1.6640	27.4480
 1.6650	27.4370
 1.6660	27.4270
 1.6670	27.4130
 1.6680	27.3990
 1.6690	27.3860
 1.6700	27.3730
 1.6710	27.3610
 1.6720	27.3510
 1.6730	27.3400
 1.6740	27.3240
 1.6750	27.3080
 1.6760	27.2910
 1.6770	27.2690
 1.6780	27.2510
 1.6790	27.2330
 1.6800	27.2110
 1.6810	27.1920
 1.6820	27.1690
 1.6830	27.1430
 1.6840	27.1180
 1.6850	27.0840
 1.6860	27.0480
 1.6870	27.0130
 1.6880	26.9760
 1.6890	26.9430
 1.6900	26.9080
 1.6910	26.8700
 1.6920	26.8310
 1.6930	26.7880
 1.6940	26.7480
 1.6950	26.7090
 1.6960	26.6680
 1.6970	26.6270
 1.6980	26.5850
 1.6990	26.5400
 1.7000	26.4950
 1.7010	26.4500
 1.7020	26.4050
 1.7030	26.3600
 1.7040	26.3160
 1.7050	26.2740
 1.7060	26.2260
 1.7070	26.1740
 1.7080	26.1230
 1.7090	26.0660
 1.7100	26.0130
 1.7110	25.9600
 1.7120	25.9040
 1.7130	25.8510
 1.7140	25.7970
 1.7150	25.7440
 1.7160	25.6930
 1.7170	25.6400
 1.7180	25.5870
 1.7190	25.5340
 1.7200	25.4820
 1.7210	25.4290
 1.7220	25.3760
 1.7230	25.3230
 1.7240	25.2700
 1.7250	25.2170
 1.7260	25.1710
 1.7270	25.1260
 1.7280	25.0830
 1.7290	25.0440
 1.7300	25.0060
 1.7310	24.9720
 1.7320	24.9420
 1.7330	24.9130
 1.7340	24.8880
 1.7350	24.8610
 1.7360	24.8360
 1.7370	24.8080
 1.7380	24.7780
 1.7390	24.7470
 1.7400	24.7120
 1.7410	24.6780
 1.7420	24.6450
 1.7430	24.6060
 1.7440	24.5640
 1.7450	24.5190
 1.7460	24.4660
 1.7470	24.4180
 1.7480	24.3710
 1.7490	24.3230
 1.7500	24.2760
 1.7510	24.2260
 1.7520	24.1730
 1.7530	24.1220
 1.7540	24.0680
 1.7550	24.0210
 1.7560	23.9700
 1.7570	23.9150
 1.7580	23.8600
 1.7590	23.8050
 1.7600	23.7510
 1.7610	23.7030
 1.7620	23.6570
 1.7630	23.6160
 1.7640	23.5740
 1.7650	23.5350
 1.7660	23.4960
 1.7670	23.4550
 1.7680	23.4180
 1.7690	23.3830
 1.7700	23.3500
 1.7710	23.3170
 1.7720	23.2870
 1.7730	23.2620
 1.7740	23.2330
 1.7750	23.2060
 1.7760	23.1770
 1.7770	23.1430
 1.7780	23.1150
 1.7790	23.0910
 1.7800	23.0650
 1.7810	23.0430
 1.7820	23.0190
 1.7830	22.9930
 1.7840	22.9700
 1.7850	22.9500
 1.7860	22.9300
 1.7870	22.9100
 1.7880	22.8920
 1.7890	22.8770
 1.7900	22.8670
 1.7910	22.8570
 1.7920	22.8470
 1.7930	22.8370
 1.7940	22.8270
 1.7950	22.8200
 1.7960	22.8170
 1.7970	22.8140
 1.7980	22.8130
 1.7990	22.8110
 1.8000	22.8080
 1.8010	22.8050
 1.8020	22.8020
 1.8030	22.7990
 1.8040	22.7930
 1.8050	22.7910
 1.8060	22.7910
 1.8070	22.7900
 1.8080	22.7920
 1.8090	22.7920
 1.8100	22.7880
 1.8110	22.7960
 1.8120	22.8020
 1.8130	22.8010
 1.8140	22.8040
 1.8150	22.7980
 1.8160	22.7880
 1.8170	22.7860
 1.8180	22.7880
 1.8190	22.7890
 1.8200	22.7870
 1.8210	22.7830
 1.8220	22.7780
 1.8230	22.7720
 1.8240	22.7670
 1.8250	22.7630
 1.8260	22.7570
 1.8270	22.7130
 1.8280	22.6690
 1.8290	22.6250
 1.8300	22.5810
 1.8310	22.5370
 1.8320	22.4930
 1.8330	22.4490
 1.8340	22.4050
 1.8350	22.4050
 1.8360	22.3650
 1.8370	22.3220
 1.8380	22.2750
 1.8390	22.2200
 1.8400	22.1590
 1.8410	22.0940
 1.8420	22.0220
 1.8430	21.9400
 1.8440	21.8660
 1.8450	21.7900
 1.8460	21.7060
 1.8470	21.6130
 1.8480	21.5000
 1.8490	21.3770
 1.8500	21.2470
 1.8510	21.1090
 1.8520	20.9550
 1.8530	20.7930
 1.8540	20.6240
 1.8550	20.4360
 1.8560	20.2410
 1.8570	20.0370
 1.8580	19.8130
 1.8590	19.5790
 1.8600	19.3330
 1.8610	19.0720
 1.8620	18.7930
 1.8630	18.5010
 1.8640	18.1950
 1.8650	17.8680
 1.8660	17.5270
 1.8670	17.1690
 1.8680	16.7870
 1.8690	16.3820
 1.8700	15.9590
 1.8710	15.5170
 1.8720	15.0600
 1.8730	14.5930
 1.8740	14.1190
 1.8750	13.6360
 1.8760	13.1420
 1.8770	12.6510
 1.8780	12.1570
 1.8790	11.6570
 1.8800	11.1700
 1.8810	10.6900
 1.8820	10.2090
 1.8830	 9.7360
 1.8840	 9.2790
 1.8850	 8.8250
 1.8860	 8.3860
 1.8870	 7.9620
 1.8880	 7.5450
 1.8890	 7.1520
 1.8900	 6.7800
 1.8910	 6.4290
 1.8920	 6.0940
 1.8930	 5.7900
 1.8940	 5.5040
 1.8950	 5.2410
 1.8960	 5.0100
 1.8970	 4.8010
 1.8980	 4.6100
 1.8990	 4.4400
 1.9000	 4.2810
 1.9010	 4.1300
 1.9020	 3.9990
 1.9030	 3.8880
 1.9040	 3.7880
 1.9050	 3.6960
 1.9060	 3.6220
 1.9070	 3.5600
 1.9080	 3.5020
 1.9090	 3.4560
 1.9100	 3.4170
 1.9110	 3.3780
 1.9120	 3.3430
 1.9130	 3.3110
 1.9140	 3.2810
 1.9150	 3.2550
 1.9160	 3.2370
 1.9170	 3.2180
 1.9180	 3.2050
 1.9190	 3.1970
 1.9200	 3.1910
 1.9210	 3.1890
 1.9220	 3.1880
 1.9230	 3.1900
 1.9240	 3.1910
 1.9250	 3.1890
 1.9260	 3.1930
 1.9270	 3.1990
 1.9280	 3.2010
 1.9290	 3.2080
 1.9300	 3.2120
 1.9310	 3.2180
 1.9320	 3.2300
 1.9330	 3.2440
 1.9340	 3.2640
 1.9350	 3.2800
 1.9360	 3.2950
 1.9370	 3.3120
 1.9380	 3.3280
 1.9390	 3.3440
 1.9400	 3.3650
 1.9410	 3.3850
 1.9420	 3.4040
 1.9430	 3.4250
 1.9440	 3.4440
 1.9450	 3.4640
 1.9460	 3.4860
 1.9470	 3.5100
 1.9480	 3.5330
 1.9490	 3.5590
 1.9500	 3.5850
 1.9510	 3.6060
 1.9520	 3.6320
 1.9530	 3.6620
 1.9540	 3.6890
 1.9550	 3.7210
 1.9560	 3.7590
 1.9570	 3.7950
 1.9580	 3.8310
 1.9590	 3.8660
 1.9600	 3.8940
 1.9610	 3.9290
 1.9620	 3.9640
 1.9630	 4.0050
 1.9640	 4.0500
 1.9650	 4.0950
 1.9660	 4.1340
 1.9670	 4.1720
 1.9680	 4.2120
 1.9690	 4.2490
 1.9700	 4.2900
 1.9710	 4.3340
 1.9720	 4.3800
 1.9730	 4.4240
 1.9740	 4.4760
 1.9750	 4.5280
 1.9760	 4.5830
 1.9770	 4.6350
 1.9780	 4.6800
 1.9790	 4.7300
 1.9800	 4.7800
 1.9810	 4.8320
 1.9820	 4.8870
 1.9830	 4.9440
 1.9840	 5.0050
 1.9850	 5.0610
 1.9860	 5.1170
 1.9870	 5.1770
 1.9880	 5.2290
 1.9890	 5.2810
 1.9900	 5.3440
 1.9910	 5.4000
 1.9920	 5.4600
 1.9930	 5.5240
 1.9940	 5.5840
 1.9950	 5.6420
 1.9960	 5.7040
 1.9970	 5.7710
 1.9980	 5.8350
 1.9990	 5.9020
 2.0000	 5.9670
 2.0010	 6.0310
 2.0020	 6.0920
 2.0030	 6.1550
 2.0040	 6.2180
 2.0050	 6.2800
 2.0060	 6.3400
 2.0070	 6.4050
 2.0080	 6.4740
 2.0090	 6.5380
 2.0100	 6.6030
 2.0110	 6.6660
 2.0120	 6.7280
 2.0130	 6.7840
 2.0140	 6.8410
 2.0150	 6.8980
 2.0160	 6.9540
 2.0170	 7.0100
 2.0180	 7.0690
 2.0190	 7.1330
 2.0200	 7.1920
 2.0210	 7.2530
 2.0220	 7.3080
 2.0230	 7.3570
 2.0240	 7.4100
 2.0250	 7.4640
 2.0260	 7.5150
 2.0270	 7.5630
 2.0280	 7.6150
 2.0290	 7.6670
 2.0300	 7.7130
 2.0310	 7.7600
 2.0320	 7.8090
 2.0330	 7.8550
 2.0340	 7.8990
 2.0350	 7.9420
 2.0360	 7.9840
 2.0370	 8.0260
 2.0380	 8.0640
 2.0390	 8.1050
 2.0400	 8.1480
 2.0410	 8.1880
 2.0420	 8.2280
 2.0430	 8.2700
 2.0440	 8.3040
 2.0450	 8.3320
 2.0460	 8.3640
 2.0470	 8.3900
 2.0480	 8.4240
 2.0490	 8.4660
 2.0500	 8.5020
 2.0510	 8.5340
 2.0520	 8.5700
 2.0530	 8.6060
 2.0540	 8.6410
 2.0550	 8.6770
 2.0560	 8.7150
 2.0570	 8.7540
 2.0580	 8.7910
 2.0590	 8.8320
 2.0600	 8.8780
 2.0610	 8.9200
 2.0620	 8.9650
 2.0630	 9.0040
 2.0640	 9.0410
 2.0650	 9.0780
 2.0660	 9.1070
 2.0670	 9.1440
 2.0680	 9.1850
 2.0690	 9.2260
 2.0700	 9.2730
 2.0710	 9.3140
 2.0720	 9.3540
 2.0730	 9.3910
 2.0740	 9.4300
 2.0750	 9.4680
 2.0760	 9.5090
 2.0770	 9.5580
 2.0780	 9.5960
 2.0790	 9.6280
 2.0800	 9.6620
 2.0810	 9.6900
 2.0820	 9.7230
 2.0830	 9.7620
 2.0840	 9.7970
 2.0850	 9.8290
 2.0860	 9.8610
 2.0870	 9.8890
 2.0880	 9.9200
 2.0890	 9.9500
 2.0900	 9.9810
 2.0910	10.0130
 2.0920	10.0460
 2.0930	10.0820
 2.0940	10.1220
 2.0950	10.1590
 2.0960	10.1990
 2.0970	10.2350
 2.0980	10.2680
 2.0990	10.3000
 2.1000	10.3270
 2.1010	10.3590
 2.1020	10.3950
 2.1030	10.4290
 2.1040	10.4680
 2.1050	10.5020
 2.1060	10.5310
 2.1070	10.5550
 2.1080	10.5800
 2.1090	10.6000
 2.1100	10.6240
 2.1110	10.6460
 2.1120	10.6730
 2.1130	10.7060
 2.1140	10.7370
 2.1150	10.7750
 2.1160	10.8050
 2.1170	10.8300
 2.1180	10.8570
 2.1190	10.8830
 2.1200	10.9070
 2.1210	10.9270
 2.1220	10.9510
 2.1230	10.9740
 2.1240	10.9940
 2.1250	11.0140
 2.1260	11.0350
 2.1270	11.0550
 2.1280	11.0680
 2.1290	11.0880
 2.1300	11.1130
 2.1310	11.1340
 2.1320	11.1590
 2.1330	11.1760
 2.1340	11.1840
 2.1350	11.1990
 2.1360	11.2130
 2.1370	11.2300
 2.1380	11.2590
 2.1390	11.2790
 2.1400	11.2930
 2.1410	11.3040
 2.1420	11.3210
 2.1430	11.3330
 2.1440	11.3520
 2.1450	11.3800
 2.1460	11.4030
 2.1470	11.4230
 2.1480	11.4470
 2.1490	11.4720
 2.1500	11.4990
 2.1510	11.5350
 2.1520	11.5620
 2.1530	11.5850
 2.1540	11.6070
 2.1550	11.6220
 2.1560	11.6390
 2.1570	11.6560
 2.1580	11.6720
 2.1590	11.6880
 2.1600	11.7000
 2.1610	11.7160
 2.1620	11.7360
 2.1630	11.7600
 2.1640	11.7930
 2.1650	11.8150
 2.1660	11.8380
 2.1670	11.8580
 2.1680	11.8710
 2.1690	11.8890
 2.1700	11.9090
 2.1710	11.9290
 2.1720	11.9480
 2.1730	11.9710
 2.1740	11.9980
 2.1750	12.0210
 2.1760	12.0470
 2.1770	12.0670
 2.1780	12.0790
 2.1790	12.0970
 2.1800	12.1170
 2.1810	12.1380
 2.1820	12.1640
 2.1830	12.1910
 2.1840	12.2130
 2.1850	12.2320
 2.1860	12.2580
 2.1870	12.2850
 2.1880	12.3140
 2.1890	12.3510
 2.1900	12.3810
 2.1910	12.4100
 2.1920	12.4330
 2.1930	12.4480
 2.1940	12.4680
 2.1950	12.4860
 2.1960	12.5040
 2.1970	12.5240
 2.1980	12.5440
 2.1990	12.5580
 2.2000	12.5780
 2.2010	12.6080
 2.2020	12.6320
 2.2030	12.6600
 2.2040	12.6810
 2.2050	12.6950
 2.2060	12.7070
 2.2070	12.7200
 2.2080	12.7290
 2.2090	12.7380
 2.2100	12.7450
 2.2110	12.7590
 2.2120	12.7770
 2.2130	12.7940
 2.2140	12.8180
 2.2150	12.8380
 2.2160	12.8610
 2.2170	12.8710
 2.2180	12.8780
 2.2190	12.8800
 2.2200	12.8660
 2.2210	12.8600
 2.2220	12.8570
 2.2230	12.8520
 2.2240	12.8460
 2.2250	12.8380
 2.2260	12.8310
 2.2270	12.8180
 2.2280	12.8000
 2.2290	12.7820
 2.2300	12.7600
 2.2310	12.7380
 2.2320	12.7130
 2.2330	12.6850
 2.2340	12.6540
 2.2350	12.6180
 2.2360	12.5830
 2.2370	12.5490
 2.2380	12.5100
 2.2390	12.4680
 2.2400	12.4230
 2.2410	12.3730
 2.2420	12.3200
 2.2430	12.2580
 2.2440	12.2030
 2.2450	12.1480
 2.2460	12.0950
 2.2470	12.0480
 2.2480	11.9970
 2.2490	11.9440
 2.2500	11.8890
 2.2510	11.8320
 2.2520	11.7780
 2.2530	11.7260
 2.2540	11.6690
 2.2550	11.6170
 2.2560	11.5540
 2.2570	11.4760
 2.2580	11.4060
 2.2590	11.3300
 2.2600	11.2650
 2.2610	11.2100
 2.2620	11.1620
 2.2630	11.1170
 2.2640	11.0720
 2.2650	11.0220
 2.2660	10.9770
 2.2670	10.9220
 2.2680	10.8620
 2.2690	10.8000
 2.2700	10.7260
 2.2710	10.6690
 2.2720	10.6170
 2.2730	10.5700
 2.2740	10.5390
 2.2750	10.4930
 2.2760	10.4410
 2.2770	10.3960
 2.2780	10.3490
 2.2790	10.3030
 2.2800	10.2610
 2.2810	10.2180
 2.2820	10.1740
 2.2830	10.1310
 2.2840	10.0930
 2.2850	10.0530
 2.2860	10.0140
 2.2870	 9.9690
 2.2880	 9.9190
 2.2890	 9.8710
 2.2900	 9.8170
 2.2910	 9.7690
 2.2920	 9.7280
 2.2930	 9.6860
 2.2940	 9.6510
 2.2950	 9.6080
 2.2960	 9.5630
 2.2970	 9.5150
 2.2980	 9.4540
 2.2990	 9.4040
 2.3000	 9.3550
 2.3010	 9.2990
 2.3020	 9.2570
 2.3030	 9.2110
 2.3040	 9.1590
 2.3050	 9.1060
 2.3060	 9.0560
 2.3070	 9.0090
 2.3080	 8.9600
 2.3090	 8.9240
 2.3100	 8.8880
 2.3110	 8.8470
 2.3120	 8.8270
 2.3130	 8.8290
 2.3140	 8.8200
 2.3150	 8.8190
 2.3160	 8.8080
 2.3170	 8.7870
 2.3180	 8.7740
 2.3190	 8.7670
 2.3200	 8.7470
 2.3210	 8.7220
 2.3220	 8.7000
 2.3230	 8.6700
 2.3240	 8.6490
 2.3250	 8.6390
 2.3260	 8.6180
 2.3270	 8.5950
 2.3280	 8.5650
 2.3290	 8.5290
 2.3300	 8.4900
 2.3310	 8.4400
 2.3320	 8.3990
 2.3330	 8.3590
 2.3340	 8.3200
 2.3350	 8.2850
 2.3360	 8.2440
 2.3370	 8.1960
 2.3380	 8.1550
 2.3390	 8.1150
 2.3400	 8.0780
 2.3410	 8.0540
 2.3420	 8.0150
 2.3430	 7.9620
 2.3440	 7.9210
 2.3450	 7.8760
 2.3460	 7.8350
 2.3470	 7.8040
 2.3480	 7.7720
 2.3490	 7.7390
 2.3500	 7.7100
 2.3510	 7.6930
 2.3520	 7.6720
 2.3530	 7.6510
 2.3540	 7.6270
 2.3550	 7.6090
 2.3560	 7.5770
 2.3570	 7.5420
 2.3580	 7.5090
 2.3590	 7.4680
 2.3600	 7.4290
 2.3610	 7.3990
 2.3620	 7.3790
 2.3630	 7.3660
 2.3640	 7.3440
 2.3650	 7.3160
 2.3660	 7.2840
 2.3670	 7.2580
 2.3680	 7.2330
 2.3690	 7.1890
 2.3700	 7.1540
 2.3710	 7.1080
 2.3720	 7.0560
 2.3730	 7.0270
 2.3740	 6.9830
 2.3750	 6.9600
 2.3760	 6.9480
 2.3770	 6.9230
 2.3780	 6.9070
 2.3790	 6.8770
 2.3800	 6.8390
 2.3810	 6.7970
 2.3820	 6.7500
 2.3830	 6.7100
 2.3840	 6.6670
 2.3850	 6.6280
 2.3860	 6.6070
 2.3870	 6.5780
 2.3880	 6.5350
 2.3890	 6.4930
 2.3900	 6.4620
 2.3910	 6.4310
 2.3920	 6.3870
 2.3930	 6.3480
 2.3940	 6.3190
 2.3950	 6.2850
 2.3960	 6.2510
 2.3970	 6.2230
 2.3980	 6.1720
 2.3990	 6.1110
 2.4000	 6.0670
 2.4010	 6.0370
 2.4020	 6.0300
 2.4030	 6.0110
 2.4040	 5.9910
 2.4050	 5.9680
 2.4060	 5.8990
 2.4070	 5.8400
 2.4080	 5.7860
 2.4090	 5.7420
 2.4100	 5.7160
 2.4110	 5.6880
 2.4120	 5.6720
 2.4130	 5.6500
 2.4140	 5.6130
 2.4150	 5.5710
 2.4160	 5.5390
 2.4170	 5.4860
 2.4180	 5.4340
 2.4190	 5.4100
 2.4200	 5.3750
 2.4210	 5.3600
 2.4220	 5.3490
 2.4230	 5.3090
 2.4240	 5.2780
 2.4250	 5.2470
 2.4260	 5.1960
 2.4270	 5.1370
 2.4280	 5.0850
 2.4290	 5.0200
 2.4300	 4.9580
 2.4310	 4.9220
 2.4320	 4.8920
 2.4330	 4.8570
 2.4340	 4.8180
 2.4350	 4.7910
 2.4360	 4.7460
 2.4370	 4.7070
 2.4380	 4.6780
 2.4390	 4.6200
 2.4400	 4.6050
 2.4410	 4.5830
 2.4420	 4.5300
 2.4430	 4.5100
 2.4440	 4.4820
 2.4450	 4.4270
 2.4460	 4.3970
 2.4470	 4.3700
 2.4480	 4.3200
 2.4490	 4.3060
 2.4500	 4.2940
 2.4510	 4.2790
 2.4520	 4.2550
 2.4530	 4.1870
 2.4540	 4.1440
 2.4550	 4.1120
 2.4560	 4.0700
 2.4570	 4.0340
 2.4580	 4.0110
 2.4590	 3.9660
 2.4600	 3.9260
 2.4610	 3.9560
 2.4620	 3.9330
 2.4630	 3.9080
 2.4640	 3.9100
 2.4650	 3.8580
 2.4660	 3.8460
 2.4670	 3.8220
 2.4680	 3.8120
 2.4690	 3.8140
 2.4700	 3.7990
 2.4710	 3.7990
 2.4720	 3.7810
 2.4730	 3.7450
 2.4740	 3.7210
 2.4750	 3.7150
 2.4760	 3.6790
 2.4770	 3.5900
 2.4780	 3.5680
 2.4790	 3.5870
 2.4800	 3.5720
 2.4810	 3.6040
 2.4820	 3.5580
 2.4830	 3.4590
 2.4840	 3.4140
 2.4850	 3.3620
 2.4860	 3.3570
 2.4870	 3.3560
 2.4880	 3.3940
 2.4890	 3.4640
 2.4900	 3.4520
 2.4910	 3.4070
 2.4920	 3.3300
 2.4930	 3.2640
 2.4940	 3.1940
 2.4950	 3.1780
 2.4960	 3.2370
 2.4970	 3.2140
 2.4980	 3.2180
 2.4990	 3.3300
 2.5000	 3.3540
