Name: Salvia leucophylla 2
Type: vegetation
Class: Shrub
Genus: Salvia
Species: leucophylla
Sample No.: VH189
Owner: UCSB
Wavelength Range: VSWIR
Origin: 34.698; -120.0477; WGS84
Collection Date: 6/9/2013
Description: Samples were collected as part of the HyspIRI Airborne Campaign. 48 individual plants were sampled in three times in 2013 - spring  summer  and fall. The name of the sample includes a 1  2  or 3 which references a different individual of the species. Samples were taken to JPL and processed within 48 hours of collection. The same leaves were processed in the Nicolet and then measured using the ASD.
Measurement: Bidirectional reflectance
First Column: X
Second Column: Y
X Units: Wavelength (micrometers)
Y Units: Reflectance (percentage)
First X Value: 0.35
Last X Value: 2.5
Number of X Values: 2151
Additional Information: vegetation.shrub.salvia.leucophylla.vswir.vh189.ucsb.asd.ancillary.txt

 0.3500	 5.0970
 0.3510	 5.1590
 0.3520	 5.0780
 0.3530	 5.0930
 0.3540	 5.3220
 0.3550	 5.2350
 0.3560	 5.2040
 0.3570	 5.2360
 0.3580	 5.1540
 0.3590	 5.1860
 0.3600	 5.2450
 0.3610	 5.2940
 0.3620	 5.3920
 0.3630	 5.3950
 0.3640	 5.3720
 0.3650	 5.3960
 0.3660	 5.3620
 0.3670	 5.3610
 0.3680	 5.4240
 0.3690	 5.5320
 0.3700	 5.6530
 0.3710	 5.7330
 0.3720	 5.7570
 0.3730	 5.7790
 0.3740	 5.7660
 0.3750	 5.7920
 0.3760	 5.9130
 0.3770	 5.9140
 0.3780	 5.9530
 0.3790	 6.0380
 0.3800	 6.0490
 0.3810	 6.0970
 0.3820	 6.1040
 0.3830	 6.0540
 0.3840	 6.1410
 0.3850	 6.2380
 0.3860	 6.2880
 0.3870	 6.2800
 0.3880	 6.3170
 0.3890	 6.3890
 0.3900	 6.4640
 0.3910	 6.4920
 0.3920	 6.5060
 0.3930	 6.5380
 0.3940	 6.5990
 0.3950	 6.5930
 0.3960	 6.6470
 0.3970	 6.7180
 0.3980	 6.7090
 0.3990	 6.7080
 0.4000	 6.7620
 0.4010	 6.8370
 0.4020	 6.8060
 0.4030	 6.8330
 0.4040	 6.9050
 0.4050	 6.9700
 0.4060	 6.9990
 0.4070	 7.0110
 0.4080	 7.0230
 0.4090	 7.0380
 0.4100	 7.0960
 0.4110	 7.1450
 0.4120	 7.1640
 0.4130	 7.2350
 0.4140	 7.2850
 0.4150	 7.3270
 0.4160	 7.3810
 0.4170	 7.4190
 0.4180	 7.4610
 0.4190	 7.5170
 0.4200	 7.5670
 0.4210	 7.6310
 0.4220	 7.6880
 0.4230	 7.7350
 0.4240	 7.7930
 0.4250	 7.8410
 0.4260	 7.8830
 0.4270	 7.9340
 0.4280	 7.9940
 0.4290	 8.0490
 0.4300	 8.1020
 0.4310	 8.1480
 0.4320	 8.2070
 0.4330	 8.2670
 0.4340	 8.3230
 0.4350	 8.3730
 0.4360	 8.4150
 0.4370	 8.4540
 0.4380	 8.4990
 0.4390	 8.5370
 0.4400	 8.5660
 0.4410	 8.5910
 0.4420	 8.6340
 0.4430	 8.6790
 0.4440	 8.7150
 0.4450	 8.7400
 0.4460	 8.7770
 0.4470	 8.8160
 0.4480	 8.8460
 0.4490	 8.8750
 0.4500	 8.9100
 0.4510	 8.9470
 0.4520	 8.9720
 0.4530	 9.0050
 0.4540	 9.0360
 0.4550	 9.0640
 0.4560	 9.0900
 0.4570	 9.1210
 0.4580	 9.1570
 0.4590	 9.1960
 0.4600	 9.2080
 0.4610	 9.2290
 0.4620	 9.2590
 0.4630	 9.2910
 0.4640	 9.3190
 0.4650	 9.3470
 0.4660	 9.3700
 0.4670	 9.3820
 0.4680	 9.4090
 0.4690	 9.4370
 0.4700	 9.4530
 0.4710	 9.4860
 0.4720	 9.5070
 0.4730	 9.5180
 0.4740	 9.5360
 0.4750	 9.5660
 0.4760	 9.5830
 0.4770	 9.5800
 0.4780	 9.5850
 0.4790	 9.6060
 0.4800	 9.6260
 0.4810	 9.6340
 0.4820	 9.6550
 0.4830	 9.6780
 0.4840	 9.7000
 0.4850	 9.7220
 0.4860	 9.7490
 0.4870	 9.7790
 0.4880	 9.8090
 0.4890	 9.8330
 0.4900	 9.8580
 0.4910	 9.8920
 0.4920	 9.9390
 0.4930	 9.9820
 0.4940	10.0210
 0.4950	10.0610
 0.4960	10.1170
 0.4970	10.1710
 0.4980	10.2200
 0.4990	10.2790
 0.5000	10.3510
 0.5010	10.4270
 0.5020	10.5060
 0.5030	10.5890
 0.5040	10.6830
 0.5050	10.7810
 0.5060	10.8880
 0.5070	11.0080
 0.5080	11.1250
 0.5090	11.2440
 0.5100	11.3810
 0.5110	11.5220
 0.5120	11.6680
 0.5130	11.8240
 0.5140	11.9900
 0.5150	12.1610
 0.5160	12.3350
 0.5170	12.5110
 0.5180	12.7000
 0.5190	12.8870
 0.5200	13.0730
 0.5210	13.2690
 0.5220	13.4660
 0.5230	13.6620
 0.5240	13.8550
 0.5250	14.0420
 0.5260	14.2320
 0.5270	14.4230
 0.5280	14.6080
 0.5290	14.7840
 0.5300	14.9580
 0.5310	15.1340
 0.5320	15.3060
 0.5330	15.4680
 0.5340	15.6240
 0.5350	15.7790
 0.5360	15.9340
 0.5370	16.0850
 0.5380	16.2310
 0.5390	16.3790
 0.5400	16.5260
 0.5410	16.6750
 0.5420	16.8260
 0.5430	16.9730
 0.5440	17.1090
 0.5450	17.2320
 0.5460	17.3380
 0.5470	17.4180
 0.5480	17.4950
 0.5490	17.5800
 0.5500	17.6680
 0.5510	17.7530
 0.5520	17.8340
 0.5530	17.9080
 0.5540	17.9700
 0.5550	18.0270
 0.5560	18.0810
 0.5570	18.1300
 0.5580	18.1750
 0.5590	18.2150
 0.5600	18.2490
 0.5610	18.2840
 0.5620	18.3140
 0.5630	18.3430
 0.5640	18.3720
 0.5650	18.3930
 0.5660	18.4050
 0.5670	18.4080
 0.5680	18.3970
 0.5690	18.3780
 0.5700	18.3590
 0.5710	18.3480
 0.5720	18.3380
 0.5730	18.3250
 0.5740	18.3120
 0.5750	18.3020
 0.5760	18.2990
 0.5770	18.2950
 0.5780	18.2860
 0.5790	18.2730
 0.5800	18.2680
 0.5810	18.2720
 0.5820	18.2830
 0.5830	18.2960
 0.5840	18.2980
 0.5850	18.2870
 0.5860	18.2770
 0.5870	18.2760
 0.5880	18.2770
 0.5890	18.2760
 0.5900	18.2830
 0.5910	18.3020
 0.5920	18.3270
 0.5930	18.3520
 0.5940	18.3760
 0.5950	18.3960
 0.5960	18.4140
 0.5970	18.4290
 0.5980	18.4430
 0.5990	18.4580
 0.6000	18.4750
 0.6010	18.4900
 0.6020	18.4990
 0.6030	18.5010
 0.6040	18.4970
 0.6050	18.4890
 0.6060	18.4740
 0.6070	18.4550
 0.6080	18.4360
 0.6090	18.4230
 0.6100	18.4220
 0.6110	18.4300
 0.6120	18.3990
 0.6130	18.3410
 0.6140	18.2790
 0.6150	18.2390
 0.6160	18.2030
 0.6170	18.1690
 0.6180	18.1420
 0.6190	18.1150
 0.6200	18.0970
 0.6210	18.0860
 0.6220	18.0750
 0.6230	18.0690
 0.6240	18.0690
 0.6250	18.0740
 0.6260	18.0800
 0.6270	18.0960
 0.6280	18.1160
 0.6290	18.1320
 0.6300	18.1520
 0.6310	18.1690
 0.6320	18.1800
 0.6330	18.1820
 0.6340	18.1760
 0.6350	18.1600
 0.6360	18.1300
 0.6370	18.0890
 0.6380	18.0330
 0.6390	17.9630
 0.6400	17.8790
 0.6410	17.7810
 0.6420	17.6770
 0.6430	17.5700
 0.6440	17.4570
 0.6450	17.3430
 0.6460	17.2280
 0.6470	17.1130
 0.6480	17.0120
 0.6490	16.9240
 0.6500	16.8470
 0.6510	16.7780
 0.6520	16.7190
 0.6530	16.6630
 0.6540	16.6060
 0.6550	16.5410
 0.6560	16.4680
 0.6570	16.3860
 0.6580	16.2920
 0.6590	16.1830
 0.6600	16.0610
 0.6610	15.9290
 0.6620	15.7960
 0.6630	15.6600
 0.6640	15.5240
 0.6650	15.3930
 0.6660	15.2720
 0.6670	15.1620
 0.6680	15.0650
 0.6690	14.9830
 0.6700	14.9160
 0.6710	14.8640
 0.6720	14.8290
 0.6730	14.8130
 0.6740	14.8070
 0.6750	14.8090
 0.6760	14.8230
 0.6770	14.8520
 0.6780	14.8920
 0.6790	14.9450
 0.6800	15.0240
 0.6810	15.1320
 0.6820	15.2720
 0.6830	15.4490
 0.6840	15.6770
 0.6850	15.9520
 0.6860	16.2800
 0.6870	16.6650
 0.6880	17.1020
 0.6890	17.5900
 0.6900	18.1250
 0.6910	18.6990
 0.6920	19.3110
 0.6930	19.9510
 0.6940	20.6100
 0.6950	21.2840
 0.6960	21.9650
 0.6970	22.6490
 0.6980	23.3310
 0.6990	24.0010
 0.7000	24.6600
 0.7010	25.3040
 0.7020	25.9220
 0.7030	26.5150
 0.7040	27.0830
 0.7050	27.6250
 0.7060	28.1390
 0.7070	28.6180
 0.7080	29.0700
 0.7090	29.5070
 0.7100	29.9120
 0.7110	30.2940
 0.7120	30.6550
 0.7130	30.9900
 0.7140	31.3070
 0.7150	31.6090
 0.7160	31.8930
 0.7170	32.1580
 0.7180	32.4090
 0.7190	32.6480
 0.7200	32.8770
 0.7210	33.0910
 0.7220	33.2900
 0.7230	33.4780
 0.7240	33.6600
 0.7250	33.8260
 0.7260	33.9890
 0.7270	34.1490
 0.7280	34.2850
 0.7290	34.4180
 0.7300	34.5500
 0.7310	34.6710
 0.7320	34.7880
 0.7330	34.8980
 0.7340	35.0010
 0.7350	35.0980
 0.7360	35.1950
 0.7370	35.2890
 0.7380	35.3790
 0.7390	35.4640
 0.7400	35.5470
 0.7410	35.6270
 0.7420	35.7010
 0.7430	35.7740
 0.7440	35.8470
 0.7450	35.9190
 0.7460	35.9860
 0.7470	36.0500
 0.7480	36.1110
 0.7490	36.1710
 0.7500	36.2330
 0.7510	36.2880
 0.7520	36.3420
 0.7530	36.4030
 0.7540	36.4540
 0.7550	36.5070
 0.7560	36.5630
 0.7570	36.6140
 0.7580	36.6660
 0.7590	36.7160
 0.7600	36.7630
 0.7610	36.8130
 0.7620	36.8630
 0.7630	36.9110
 0.7640	36.9560
 0.7650	37.0050
 0.7660	37.0520
 0.7670	37.0980
 0.7680	37.1450
 0.7690	37.1910
 0.7700	37.2340
 0.7710	37.2770
 0.7720	37.3250
 0.7730	37.3700
 0.7740	37.4120
 0.7750	37.4540
 0.7760	37.4990
 0.7770	37.5420
 0.7780	37.5840
 0.7790	37.6270
 0.7800	37.6700
 0.7810	37.7130
 0.7820	37.7550
 0.7830	37.7960
 0.7840	37.8380
 0.7850	37.8790
 0.7860	37.9160
 0.7870	37.9530
 0.7880	37.9910
 0.7890	38.0290
 0.7900	38.0680
 0.7910	38.1080
 0.7920	38.1450
 0.7930	38.1800
 0.7940	38.2140
 0.7950	38.2450
 0.7960	38.2780
 0.7970	38.3120
 0.7980	38.3410
 0.7990	38.3750
 0.8000	38.4090
 0.8010	38.4380
 0.8020	38.4670
 0.8030	38.4900
 0.8040	38.5120
 0.8050	38.5370
 0.8060	38.5660
 0.8070	38.5920
 0.8080	38.6130
 0.8090	38.6340
 0.8100	38.6570
 0.8110	38.6850
 0.8120	38.7130
 0.8130	38.7280
 0.8140	38.7440
 0.8150	38.7580
 0.8160	38.7700
 0.8170	38.7930
 0.8180	38.8110
 0.8190	38.8250
 0.8200	38.8420
 0.8210	38.8540
 0.8220	38.8680
 0.8230	38.8850
 0.8240	38.8990
 0.8250	38.9120
 0.8260	38.9240
 0.8270	38.9370
 0.8280	38.9490
 0.8290	38.9600
 0.8300	38.9730
 0.8310	38.9880
 0.8320	38.9940
 0.8330	39.0020
 0.8340	39.0130
 0.8350	39.0270
 0.8360	39.0380
 0.8370	39.0500
 0.8380	39.0640
 0.8390	39.0800
 0.8400	39.0920
 0.8410	39.1050
 0.8420	39.1220
 0.8430	39.1400
 0.8440	39.1480
 0.8450	39.1580
 0.8460	39.1810
 0.8470	39.1950
 0.8480	39.2100
 0.8490	39.2280
 0.8500	39.2470
 0.8510	39.2620
 0.8520	39.2770
 0.8530	39.2910
 0.8540	39.3040
 0.8550	39.3260
 0.8560	39.3510
 0.8570	39.3700
 0.8580	39.3780
 0.8590	39.3940
 0.8600	39.4150
 0.8610	39.4380
 0.8620	39.4590
 0.8630	39.4810
 0.8640	39.5010
 0.8650	39.5150
 0.8660	39.5330
 0.8670	39.5550
 0.8680	39.5820
 0.8690	39.6110
 0.8700	39.6300
 0.8710	39.6480
 0.8720	39.6690
 0.8730	39.6970
 0.8740	39.7190
 0.8750	39.7430
 0.8760	39.7680
 0.8770	39.7880
 0.8780	39.8160
 0.8790	39.8440
 0.8800	39.8680
 0.8810	39.8910
 0.8820	39.9170
 0.8830	39.9440
 0.8840	39.9700
 0.8850	39.9900
 0.8860	40.0120
 0.8870	40.0390
 0.8880	40.0720
 0.8890	40.0960
 0.8900	40.1150
 0.8910	40.1390
 0.8920	40.1770
 0.8930	40.2030
 0.8940	40.2240
 0.8950	40.2460
 0.8960	40.2730
 0.8970	40.2910
 0.8980	40.3140
 0.8990	40.3440
 0.9000	40.3710
 0.9010	40.4010
 0.9020	40.4260
 0.9030	40.4470
 0.9040	40.4750
 0.9050	40.4980
 0.9060	40.5160
 0.9070	40.5330
 0.9080	40.5540
 0.9090	40.5770
 0.9100	40.6010
 0.9110	40.6260
 0.9120	40.6560
 0.9130	40.6780
 0.9140	40.6920
 0.9150	40.7030
 0.9160	40.7260
 0.9170	40.7510
 0.9180	40.7770
 0.9190	40.8020
 0.9200	40.8180
 0.9210	40.8360
 0.9220	40.8600
 0.9230	40.8840
 0.9240	40.9050
 0.9250	40.9210
 0.9260	40.9330
 0.9270	40.9420
 0.9280	40.9480
 0.9290	40.9610
 0.9300	40.9780
 0.9310	40.9890
 0.9320	40.9980
 0.9330	41.0090
 0.9340	41.0200
 0.9350	41.0270
 0.9360	41.0340
 0.9370	41.0440
 0.9380	41.0580
 0.9390	41.0730
 0.9400	41.0850
 0.9410	41.0870
 0.9420	41.0790
 0.9430	41.0790
 0.9440	41.0760
 0.9450	41.0720
 0.9460	41.0680
 0.9470	41.0620
 0.9480	41.0500
 0.9490	41.0370
 0.9500	41.0280
 0.9510	41.0310
 0.9520	41.0260
 0.9530	41.0120
 0.9540	40.9940
 0.9550	40.9790
 0.9560	40.9610
 0.9570	40.9440
 0.9580	40.9340
 0.9590	40.9200
 0.9600	40.9080
 0.9610	40.9010
 0.9620	40.8940
 0.9630	40.8780
 0.9640	40.8730
 0.9650	40.8720
 0.9660	40.8660
 0.9670	40.8690
 0.9680	40.8700
 0.9690	40.8690
 0.9700	40.8670
 0.9710	40.8730
 0.9720	40.8720
 0.9730	40.8720
 0.9740	40.8820
 0.9750	40.8800
 0.9760	40.8850
 0.9770	40.8910
 0.9780	40.8850
 0.9790	40.8800
 0.9800	40.8850
 0.9810	40.8950
 0.9820	40.9030
 0.9830	40.9130
 0.9840	40.9270
 0.9850	40.9330
 0.9860	40.9300
 0.9870	40.9550
 0.9880	40.9710
 0.9890	40.9700
 0.9900	40.9660
 0.9910	40.9840
 0.9920	41.0050
 0.9930	41.0220
 0.9940	41.0350
 0.9950	41.0420
 0.9960	41.0380
 0.9970	41.0410
 0.9980	41.0710
 0.9990	41.0880
 1.0000	41.2140
 1.0010	41.4430
 1.0020	41.5690
 1.0030	41.5800
 1.0040	41.5900
 1.0050	41.5980
 1.0060	41.6090
 1.0070	41.6250
 1.0080	41.6370
 1.0090	41.6500
 1.0100	41.6640
 1.0110	41.6770
 1.0120	41.6900
 1.0130	41.7080
 1.0140	41.7220
 1.0150	41.7330
 1.0160	41.7410
 1.0170	41.7470
 1.0180	41.7560
 1.0190	41.7680
 1.0200	41.7800
 1.0210	41.7960
 1.0220	41.8110
 1.0230	41.8240
 1.0240	41.8350
 1.0250	41.8470
 1.0260	41.8580
 1.0270	41.8670
 1.0280	41.8770
 1.0290	41.8870
 1.0300	41.8930
 1.0310	41.9030
 1.0320	41.9150
 1.0330	41.9260
 1.0340	41.9400
 1.0350	41.9510
 1.0360	41.9630
 1.0370	41.9730
 1.0380	41.9820
 1.0390	41.9880
 1.0400	41.9960
 1.0410	42.0020
 1.0420	42.0110
 1.0430	42.0230
 1.0440	42.0310
 1.0450	42.0360
 1.0460	42.0450
 1.0470	42.0530
 1.0480	42.0620
 1.0490	42.0750
 1.0500	42.0860
 1.0510	42.0960
 1.0520	42.1020
 1.0530	42.1100
 1.0540	42.1170
 1.0550	42.1260
 1.0560	42.1350
 1.0570	42.1440
 1.0580	42.1530
 1.0590	42.1610
 1.0600	42.1660
 1.0610	42.1750
 1.0620	42.1890
 1.0630	42.1980
 1.0640	42.2070
 1.0650	42.2160
 1.0660	42.2240
 1.0670	42.2310
 1.0680	42.2370
 1.0690	42.2440
 1.0700	42.2520
 1.0710	42.2570
 1.0720	42.2660
 1.0730	42.2790
 1.0740	42.2890
 1.0750	42.3020
 1.0760	42.3100
 1.0770	42.3130
 1.0780	42.3190
 1.0790	42.3230
 1.0800	42.3270
 1.0810	42.3330
 1.0820	42.3390
 1.0830	42.3460
 1.0840	42.3510
 1.0850	42.3580
 1.0860	42.3650
 1.0870	42.3710
 1.0880	42.3760
 1.0890	42.3810
 1.0900	42.3840
 1.0910	42.3880
 1.0920	42.3940
 1.0930	42.3960
 1.0940	42.3950
 1.0950	42.3960
 1.0960	42.3950
 1.0970	42.3950
 1.0980	42.3980
 1.0990	42.4000
 1.1000	42.4030
 1.1010	42.4040
 1.1020	42.4040
 1.1030	42.4040
 1.1040	42.4040
 1.1050	42.4010
 1.1060	42.4000
 1.1070	42.3990
 1.1080	42.3970
 1.1090	42.3940
 1.1100	42.3900
 1.1110	42.3840
 1.1120	42.3790
 1.1130	42.3730
 1.1140	42.3680
 1.1150	42.3660
 1.1160	42.3620
 1.1170	42.3580
 1.1180	42.3510
 1.1190	42.3420
 1.1200	42.3340
 1.1210	42.3250
 1.1220	42.3120
 1.1230	42.2960
 1.1240	42.2790
 1.1250	42.2600
 1.1260	42.2380
 1.1270	42.2160
 1.1280	42.1930
 1.1290	42.1670
 1.1300	42.1400
 1.1310	42.1080
 1.1320	42.0740
 1.1330	42.0360
 1.1340	41.9930
 1.1350	41.9480
 1.1360	41.9000
 1.1370	41.8480
 1.1380	41.7940
 1.1390	41.7370
 1.1400	41.6800
 1.1410	41.6220
 1.1420	41.5620
 1.1430	41.5030
 1.1440	41.4430
 1.1450	41.3800
 1.1460	41.3200
 1.1470	41.2590
 1.1480	41.2030
 1.1490	41.1490
 1.1500	41.0980
 1.1510	41.0510
 1.1520	41.0050
 1.1530	40.9620
 1.1540	40.9220
 1.1550	40.8850
 1.1560	40.8510
 1.1570	40.8190
 1.1580	40.7890
 1.1590	40.7640
 1.1600	40.7410
 1.1610	40.7220
 1.1620	40.7040
 1.1630	40.6860
 1.1640	40.6690
 1.1650	40.6540
 1.1660	40.6410
 1.1670	40.6270
 1.1680	40.6140
 1.1690	40.6000
 1.1700	40.5850
 1.1710	40.5710
 1.1720	40.5590
 1.1730	40.5460
 1.1740	40.5330
 1.1750	40.5200
 1.1760	40.5070
 1.1770	40.4950
 1.1780	40.4820
 1.1790	40.4680
 1.1800	40.4550
 1.1810	40.4400
 1.1820	40.4260
 1.1830	40.4130
 1.1840	40.4000
 1.1850	40.3870
 1.1860	40.3770
 1.1870	40.3680
 1.1880	40.3610
 1.1890	40.3570
 1.1900	40.3550
 1.1910	40.3540
 1.1920	40.3550
 1.1930	40.3570
 1.1940	40.3600
 1.1950	40.3650
 1.1960	40.3700
 1.1970	40.3770
 1.1980	40.3840
 1.1990	40.3940
 1.2000	40.4060
 1.2010	40.4200
 1.2020	40.4330
 1.2030	40.4430
 1.2040	40.4560
 1.2050	40.4710
 1.2060	40.4850
 1.2070	40.5020
 1.2080	40.5190
 1.2090	40.5340
 1.2100	40.5510
 1.2110	40.5690
 1.2120	40.5880
 1.2130	40.6070
 1.2140	40.6300
 1.2150	40.6510
 1.2160	40.6730
 1.2170	40.6940
 1.2180	40.7170
 1.2190	40.7390
 1.2200	40.7620
 1.2210	40.7880
 1.2220	40.8120
 1.2230	40.8340
 1.2240	40.8560
 1.2250	40.8770
 1.2260	40.8970
 1.2270	40.9180
 1.2280	40.9400
 1.2290	40.9610
 1.2300	40.9790
 1.2310	40.9970
 1.2320	41.0150
 1.2330	41.0310
 1.2340	41.0460
 1.2350	41.0630
 1.2360	41.0780
 1.2370	41.0910
 1.2380	41.1030
 1.2390	41.1160
 1.2400	41.1290
 1.2410	41.1420
 1.2420	41.1540
 1.2430	41.1650
 1.2440	41.1760
 1.2450	41.1870
 1.2460	41.2000
 1.2470	41.2120
 1.2480	41.2240
 1.2490	41.2370
 1.2500	41.2460
 1.2510	41.2530
 1.2520	41.2620
 1.2530	41.2690
 1.2540	41.2770
 1.2550	41.2830
 1.2560	41.2890
 1.2570	41.2950
 1.2580	41.3000
 1.2590	41.3060
 1.2600	41.3120
 1.2610	41.3170
 1.2620	41.3200
 1.2630	41.3230
 1.2640	41.3270
 1.2650	41.3310
 1.2660	41.3360
 1.2670	41.3370
 1.2680	41.3370
 1.2690	41.3370
 1.2700	41.3350
 1.2710	41.3320
 1.2720	41.3290
 1.2730	41.3240
 1.2740	41.3210
 1.2750	41.3170
 1.2760	41.3130
 1.2770	41.3090
 1.2780	41.3000
 1.2790	41.2900
 1.2800	41.2830
 1.2810	41.2750
 1.2820	41.2690
 1.2830	41.2650
 1.2840	41.2590
 1.2850	41.2480
 1.2860	41.2370
 1.2870	41.2260
 1.2880	41.2140
 1.2890	41.2030
 1.2900	41.1940
 1.2910	41.1850
 1.2920	41.1740
 1.2930	41.1630
 1.2940	41.1510
 1.2950	41.1390
 1.2960	41.1260
 1.2970	41.1120
 1.2980	41.0970
 1.2990	41.0820
 1.3000	41.0660
 1.3010	41.0510
 1.3020	41.0340
 1.3030	41.0120
 1.3040	40.9880
 1.3050	40.9630
 1.3060	40.9350
 1.3070	40.9060
 1.3080	40.8770
 1.3090	40.8470
 1.3100	40.8140
 1.3110	40.7780
 1.3120	40.7400
 1.3130	40.7010
 1.3140	40.6600
 1.3150	40.6200
 1.3160	40.5760
 1.3170	40.5320
 1.3180	40.4840
 1.3190	40.4370
 1.3200	40.3870
 1.3210	40.3360
 1.3220	40.2830
 1.3230	40.2240
 1.3240	40.1640
 1.3250	40.1060
 1.3260	40.0450
 1.3270	39.9830
 1.3280	39.9220
 1.3290	39.8580
 1.3300	39.7910
 1.3310	39.7240
 1.3320	39.6530
 1.3330	39.5810
 1.3340	39.5090
 1.3350	39.4360
 1.3360	39.3640
 1.3370	39.2890
 1.3380	39.2120
 1.3390	39.1350
 1.3400	39.0560
 1.3410	38.9790
 1.3420	38.9030
 1.3430	38.8260
 1.3440	38.7500
 1.3450	38.6740
 1.3460	38.5950
 1.3470	38.5180
 1.3480	38.4410
 1.3490	38.3650
 1.3500	38.2900
 1.3510	38.2140
 1.3520	38.1390
 1.3530	38.0620
 1.3540	37.9840
 1.3550	37.9080
 1.3560	37.8320
 1.3570	37.7540
 1.3580	37.6780
 1.3590	37.6000
 1.3600	37.5200
 1.3610	37.4390
 1.3620	37.3560
 1.3630	37.2700
 1.3640	37.1840
 1.3650	37.0960
 1.3660	37.0050
 1.3670	36.9090
 1.3680	36.8050
 1.3690	36.6950
 1.3700	36.5780
 1.3710	36.4530
 1.3720	36.3190
 1.3730	36.1760
 1.3740	36.0240
 1.3750	35.8610
 1.3760	35.6860
 1.3770	35.4970
 1.3780	35.2920
 1.3790	35.0750
 1.3800	34.8450
 1.3810	34.5980
 1.3820	34.3400
 1.3830	34.0700
 1.3840	33.7860
 1.3850	33.4900
 1.3860	33.1820
 1.3870	32.8580
 1.3880	32.5280
 1.3890	32.1860
 1.3900	31.8350
 1.3910	31.4800
 1.3920	31.1190
 1.3930	30.7510
 1.3940	30.3800
 1.3950	30.0040
 1.3960	29.6300
 1.3970	29.2590
 1.3980	28.8910
 1.3990	28.5330
 1.4000	28.1790
 1.4010	27.8310
 1.4020	27.4950
 1.4030	27.1660
 1.4040	26.8490
 1.4050	26.5470
 1.4060	26.2550
 1.4070	25.9780
 1.4080	25.7140
 1.4090	25.4630
 1.4100	25.2280
 1.4110	25.0060
 1.4120	24.7960
 1.4130	24.6010
 1.4140	24.4180
 1.4150	24.2500
 1.4160	24.0970
 1.4170	23.9530
 1.4180	23.8210
 1.4190	23.7000
 1.4200	23.5890
 1.4210	23.4870
 1.4220	23.3940
 1.4230	23.3110
 1.4240	23.2340
 1.4250	23.1650
 1.4260	23.1060
 1.4270	23.0500
 1.4280	23.0000
 1.4290	22.9560
 1.4300	22.9160
 1.4310	22.8830
 1.4320	22.8580
 1.4330	22.8350
 1.4340	22.8190
 1.4350	22.8040
 1.4360	22.7930
 1.4370	22.7860
 1.4380	22.7820
 1.4390	22.7820
 1.4400	22.7850
 1.4410	22.7900
 1.4420	22.7970
 1.4430	22.8060
 1.4440	22.8160
 1.4450	22.8280
 1.4460	22.8420
 1.4470	22.8560
 1.4480	22.8720
 1.4490	22.8890
 1.4500	22.9070
 1.4510	22.9270
 1.4520	22.9470
 1.4530	22.9670
 1.4540	22.9890
 1.4550	23.0130
 1.4560	23.0380
 1.4570	23.0670
 1.4580	23.0980
 1.4590	23.1310
 1.4600	23.1680
 1.4610	23.2060
 1.4620	23.2470
 1.4630	23.2930
 1.4640	23.3430
 1.4650	23.3950
 1.4660	23.4530
 1.4670	23.5130
 1.4680	23.5770
 1.4690	23.6460
 1.4700	23.7170
 1.4710	23.7920
 1.4720	23.8690
 1.4730	23.9480
 1.4740	24.0310
 1.4750	24.1160
 1.4760	24.2040
 1.4770	24.2950
 1.4780	24.3870
 1.4790	24.4800
 1.4800	24.5740
 1.4810	24.6680
 1.4820	24.7630
 1.4830	24.8580
 1.4840	24.9550
 1.4850	25.0530
 1.4860	25.1500
 1.4870	25.2490
 1.4880	25.3460
 1.4890	25.4430
 1.4900	25.5420
 1.4910	25.6420
 1.4920	25.7410
 1.4930	25.8400
 1.4940	25.9380
 1.4950	26.0360
 1.4960	26.1330
 1.4970	26.2300
 1.4980	26.3270
 1.4990	26.4240
 1.5000	26.5220
 1.5010	26.6210
 1.5020	26.7180
 1.5030	26.8170
 1.5040	26.9130
 1.5050	27.0060
 1.5060	27.1010
 1.5070	27.1950
 1.5080	27.2880
 1.5090	27.3820
 1.5100	27.4750
 1.5110	27.5650
 1.5120	27.6560
 1.5130	27.7440
 1.5140	27.8310
 1.5150	27.9180
 1.5160	28.0030
 1.5170	28.0890
 1.5180	28.1730
 1.5190	28.2570
 1.5200	28.3400
 1.5210	28.4200
 1.5220	28.5010
 1.5230	28.5820
 1.5240	28.6630
 1.5250	28.7430
 1.5260	28.8210
 1.5270	28.8950
 1.5280	28.9700
 1.5290	29.0420
 1.5300	29.1140
 1.5310	29.1870
 1.5320	29.2580
 1.5330	29.3290
 1.5340	29.3990
 1.5350	29.4690
 1.5360	29.5370
 1.5370	29.6040
 1.5380	29.6700
 1.5390	29.7360
 1.5400	29.8000
 1.5410	29.8640
 1.5420	29.9260
 1.5430	29.9890
 1.5440	30.0510
 1.5450	30.1120
 1.5460	30.1730
 1.5470	30.2330
 1.5480	30.2910
 1.5490	30.3500
 1.5500	30.4080
 1.5510	30.4640
 1.5520	30.5190
 1.5530	30.5740
 1.5540	30.6250
 1.5550	30.6780
 1.5560	30.7310
 1.5570	30.7850
 1.5580	30.8380
 1.5590	30.8900
 1.5600	30.9390
 1.5610	30.9880
 1.5620	31.0350
 1.5630	31.0850
 1.5640	31.1360
 1.5650	31.1870
 1.5660	31.2360
 1.5670	31.2850
 1.5680	31.3330
 1.5690	31.3800
 1.5700	31.4280
 1.5710	31.4740
 1.5720	31.5170
 1.5730	31.5610
 1.5740	31.6040
 1.5750	31.6460
 1.5760	31.6900
 1.5770	31.7330
 1.5780	31.7750
 1.5790	31.8200
 1.5800	31.8630
 1.5810	31.9040
 1.5820	31.9450
 1.5830	31.9850
 1.5840	32.0240
 1.5850	32.0640
 1.5860	32.1050
 1.5870	32.1460
 1.5880	32.1870
 1.5890	32.2280
 1.5900	32.2680
 1.5910	32.3080
 1.5920	32.3470
 1.5930	32.3850
 1.5940	32.4220
 1.5950	32.4600
 1.5960	32.4970
 1.5970	32.5360
 1.5980	32.5740
 1.5990	32.6100
 1.6000	32.6460
 1.6010	32.6800
 1.6020	32.7140
 1.6030	32.7500
 1.6040	32.7830
 1.6050	32.8170
 1.6060	32.8510
 1.6070	32.8820
 1.6080	32.9160
 1.6090	32.9480
 1.6100	32.9770
 1.6110	33.0070
 1.6120	33.0330
 1.6130	33.0620
 1.6140	33.0910
 1.6150	33.1190
 1.6160	33.1470
 1.6170	33.1740
 1.6180	33.1990
 1.6190	33.2250
 1.6200	33.2470
 1.6210	33.2700
 1.6220	33.2940
 1.6230	33.3150
 1.6240	33.3370
 1.6250	33.3570
 1.6260	33.3760
 1.6270	33.3960
 1.6280	33.4150
 1.6290	33.4330
 1.6300	33.4520
 1.6310	33.4690
 1.6320	33.4850
 1.6330	33.5010
 1.6340	33.5180
 1.6350	33.5340
 1.6360	33.5500
 1.6370	33.5660
 1.6380	33.5800
 1.6390	33.5940
 1.6400	33.6080
 1.6410	33.6220
 1.6420	33.6360
 1.6430	33.6490
 1.6440	33.6600
 1.6450	33.6710
 1.6460	33.6790
 1.6470	33.6870
 1.6480	33.6920
 1.6490	33.6950
 1.6500	33.6990
 1.6510	33.7010
 1.6520	33.6980
 1.6530	33.6950
 1.6540	33.6910
 1.6550	33.6850
 1.6560	33.6780
 1.6570	33.6710
 1.6580	33.6610
 1.6590	33.6480
 1.6600	33.6330
 1.6610	33.6170
 1.6620	33.6010
 1.6630	33.5850
 1.6640	33.5660
 1.6650	33.5470
 1.6660	33.5260
 1.6670	33.5010
 1.6680	33.4760
 1.6690	33.4480
 1.6700	33.4170
 1.6710	33.3830
 1.6720	33.3480
 1.6730	33.3110
 1.6740	33.2700
 1.6750	33.2260
 1.6760	33.1820
 1.6770	33.1350
 1.6780	33.0830
 1.6790	33.0310
 1.6800	32.9750
 1.6810	32.9140
 1.6820	32.8550
 1.6830	32.7930
 1.6840	32.7280
 1.6850	32.6640
 1.6860	32.5980
 1.6870	32.5340
 1.6880	32.4690
 1.6890	32.4050
 1.6900	32.3420
 1.6910	32.2780
 1.6920	32.2160
 1.6930	32.1530
 1.6940	32.0930
 1.6950	32.0350
 1.6960	31.9790
 1.6970	31.9270
 1.6980	31.8760
 1.6990	31.8260
 1.7000	31.7810
 1.7010	31.7390
 1.7020	31.6990
 1.7030	31.6630
 1.7040	31.6250
 1.7050	31.5860
 1.7060	31.5460
 1.7070	31.5060
 1.7080	31.4660
 1.7090	31.4260
 1.7100	31.3880
 1.7110	31.3510
 1.7120	31.3130
 1.7130	31.2760
 1.7140	31.2400
 1.7150	31.2040
 1.7160	31.1700
 1.7170	31.1370
 1.7180	31.1040
 1.7190	31.0730
 1.7200	31.0430
 1.7210	31.0120
 1.7220	30.9800
 1.7230	30.9500
 1.7240	30.9180
 1.7250	30.8900
 1.7260	30.8650
 1.7270	30.8420
 1.7280	30.8220
 1.7290	30.8020
 1.7300	30.7860
 1.7310	30.7710
 1.7320	30.7590
 1.7330	30.7490
 1.7340	30.7400
 1.7350	30.7310
 1.7360	30.7240
 1.7370	30.7140
 1.7380	30.7040
 1.7390	30.6900
 1.7400	30.6740
 1.7410	30.6550
 1.7420	30.6320
 1.7430	30.6080
 1.7440	30.5820
 1.7450	30.5540
 1.7460	30.5230
 1.7470	30.4950
 1.7480	30.4660
 1.7490	30.4360
 1.7500	30.4060
 1.7510	30.3770
 1.7520	30.3470
 1.7530	30.3190
 1.7540	30.2940
 1.7550	30.2700
 1.7560	30.2470
 1.7570	30.2250
 1.7580	30.2040
 1.7590	30.1830
 1.7600	30.1630
 1.7610	30.1460
 1.7620	30.1300
 1.7630	30.1180
 1.7640	30.1050
 1.7650	30.0940
 1.7660	30.0830
 1.7670	30.0730
 1.7680	30.0640
 1.7690	30.0560
 1.7700	30.0490
 1.7710	30.0440
 1.7720	30.0390
 1.7730	30.0360
 1.7740	30.0300
 1.7750	30.0240
 1.7760	30.0160
 1.7770	30.0050
 1.7780	29.9970
 1.7790	29.9880
 1.7800	29.9840
 1.7810	29.9870
 1.7820	29.9850
 1.7830	29.9840
 1.7840	29.9810
 1.7850	29.9730
 1.7860	29.9710
 1.7870	29.9700
 1.7880	29.9700
 1.7890	29.9730
 1.7900	29.9740
 1.7910	29.9750
 1.7920	29.9760
 1.7930	29.9790
 1.7940	29.9830
 1.7950	29.9870
 1.7960	29.9920
 1.7970	29.9970
 1.7980	30.0030
 1.7990	30.0070
 1.8000	30.0110
 1.8010	30.0160
 1.8020	30.0210
 1.8030	30.0270
 1.8040	30.0360
 1.8050	30.0420
 1.8060	30.0460
 1.8070	30.0520
 1.8080	30.0570
 1.8090	30.0630
 1.8100	30.0680
 1.8110	30.0720
 1.8120	30.0770
 1.8130	30.0820
 1.8140	30.0880
 1.8150	30.0910
 1.8160	30.0920
 1.8170	30.0920
 1.8180	30.0920
 1.8190	30.0920
 1.8200	30.0940
 1.8210	30.0990
 1.8220	30.1010
 1.8230	30.1050
 1.8240	30.1050
 1.8250	30.1010
 1.8260	30.0960
 1.8270	30.0860
 1.8280	30.0770
 1.8290	30.0670
 1.8300	30.0360
 1.8310	29.9940
 1.8320	29.9650
 1.8330	29.9500
 1.8340	29.9290
 1.8350	29.9060
 1.8360	29.8800
 1.8370	29.8520
 1.8380	29.8250
 1.8390	29.7930
 1.8400	29.7600
 1.8410	29.7210
 1.8420	29.6790
 1.8430	29.6330
 1.8440	29.5790
 1.8450	29.5220
 1.8460	29.4630
 1.8470	29.3960
 1.8480	29.3240
 1.8490	29.2490
 1.8500	29.1640
 1.8510	29.0700
 1.8520	28.9700
 1.8530	28.8610
 1.8540	28.7450
 1.8550	28.6210
 1.8560	28.4870
 1.8570	28.3470
 1.8580	28.1930
 1.8590	28.0280
 1.8600	27.8540
 1.8610	27.6680
 1.8620	27.4650
 1.8630	27.2530
 1.8640	27.0260
 1.8650	26.7800
 1.8660	26.5230
 1.8670	26.2480
 1.8680	25.9590
 1.8690	25.6540
 1.8700	25.3320
 1.8710	24.9940
 1.8720	24.6460
 1.8730	24.2820
 1.8740	23.9060
 1.8750	23.5230
 1.8760	23.1270
 1.8770	22.7260
 1.8780	22.3180
 1.8790	21.8970
 1.8800	21.4780
 1.8810	21.0570
 1.8820	20.6270
 1.8830	20.1920
 1.8840	19.7620
 1.8850	19.3260
 1.8860	18.8890
 1.8870	18.4620
 1.8880	18.0370
 1.8890	17.6190
 1.8900	17.2140
 1.8910	16.8210
 1.8920	16.4340
 1.8930	16.0700
 1.8940	15.7220
 1.8950	15.3860
 1.8960	15.0710
 1.8970	14.7710
 1.8980	14.4880
 1.8990	14.2230
 1.9000	13.9740
 1.9010	13.7420
 1.9020	13.5270
 1.9030	13.3290
 1.9040	13.1500
 1.9050	12.9870
 1.9060	12.8350
 1.9070	12.6990
 1.9080	12.5750
 1.9090	12.4630
 1.9100	12.3650
 1.9110	12.2760
 1.9120	12.2010
 1.9130	12.1310
 1.9140	12.0710
 1.9150	12.0160
 1.9160	11.9660
 1.9170	11.9250
 1.9180	11.8890
 1.9190	11.8600
 1.9200	11.8380
 1.9210	11.8190
 1.9220	11.8020
 1.9230	11.7880
 1.9240	11.7780
 1.9250	11.7710
 1.9260	11.7690
 1.9270	11.7760
 1.9280	11.7840
 1.9290	11.7950
 1.9300	11.8080
 1.9310	11.8230
 1.9320	11.8400
 1.9330	11.8600
 1.9340	11.8850
 1.9350	11.9110
 1.9360	11.9410
 1.9370	11.9710
 1.9380	12.0010
 1.9390	12.0340
 1.9400	12.0700
 1.9410	12.1080
 1.9420	12.1470
 1.9430	12.1880
 1.9440	12.2310
 1.9450	12.2750
 1.9460	12.3220
 1.9470	12.3750
 1.9480	12.4250
 1.9490	12.4750
 1.9500	12.5250
 1.9510	12.5780
 1.9520	12.6330
 1.9530	12.6880
 1.9540	12.7430
 1.9550	12.8000
 1.9560	12.8590
 1.9570	12.9170
 1.9580	12.9780
 1.9590	13.0380
 1.9600	13.0980
 1.9610	13.1600
 1.9620	13.2220
 1.9630	13.2870
 1.9640	13.3540
 1.9650	13.4180
 1.9660	13.4820
 1.9670	13.5490
 1.9680	13.6160
 1.9690	13.6820
 1.9700	13.7510
 1.9710	13.8240
 1.9720	13.8950
 1.9730	13.9650
 1.9740	14.0370
 1.9750	14.1110
 1.9760	14.1860
 1.9770	14.2630
 1.9780	14.3400
 1.9790	14.4160
 1.9800	14.4900
 1.9810	14.5660
 1.9820	14.6420
 1.9830	14.7190
 1.9840	14.7990
 1.9850	14.8770
 1.9860	14.9540
 1.9870	15.0320
 1.9880	15.1090
 1.9890	15.1850
 1.9900	15.2620
 1.9910	15.3400
 1.9920	15.4190
 1.9930	15.4990
 1.9940	15.5770
 1.9950	15.6550
 1.9960	15.7320
 1.9970	15.8060
 1.9980	15.8820
 1.9990	15.9580
 2.0000	16.0360
 2.0010	16.1130
 2.0020	16.1890
 2.0030	16.2620
 2.0040	16.3330
 2.0050	16.4080
 2.0060	16.4830
 2.0070	16.5570
 2.0080	16.6320
 2.0090	16.7040
 2.0100	16.7730
 2.0110	16.8420
 2.0120	16.9120
 2.0130	16.9810
 2.0140	17.0480
 2.0150	17.1130
 2.0160	17.1790
 2.0170	17.2430
 2.0180	17.3060
 2.0190	17.3690
 2.0200	17.4280
 2.0210	17.4830
 2.0220	17.5410
 2.0230	17.5980
 2.0240	17.6550
 2.0250	17.7130
 2.0260	17.7680
 2.0270	17.8240
 2.0280	17.8760
 2.0290	17.9250
 2.0300	17.9750
 2.0310	18.0230
 2.0320	18.0680
 2.0330	18.1150
 2.0340	18.1620
 2.0350	18.2070
 2.0360	18.2520
 2.0370	18.2940
 2.0380	18.3340
 2.0390	18.3730
 2.0400	18.4100
 2.0410	18.4470
 2.0420	18.4860
 2.0430	18.5230
 2.0440	18.5590
 2.0450	18.5930
 2.0460	18.6270
 2.0470	18.6590
 2.0480	18.6910
 2.0490	18.7240
 2.0500	18.7570
 2.0510	18.7870
 2.0520	18.8180
 2.0530	18.8460
 2.0540	18.8770
 2.0550	18.9080
 2.0560	18.9420
 2.0570	18.9770
 2.0580	19.0120
 2.0590	19.0470
 2.0600	19.0810
 2.0610	19.1140
 2.0620	19.1480
 2.0630	19.1810
 2.0640	19.2130
 2.0650	19.2450
 2.0660	19.2780
 2.0670	19.3120
 2.0680	19.3490
 2.0690	19.3820
 2.0700	19.4110
 2.0710	19.4440
 2.0720	19.4780
 2.0730	19.5120
 2.0740	19.5480
 2.0750	19.5920
 2.0760	19.6270
 2.0770	19.6570
 2.0780	19.6910
 2.0790	19.7210
 2.0800	19.7530
 2.0810	19.7870
 2.0820	19.8210
 2.0830	19.8540
 2.0840	19.8880
 2.0850	19.9250
 2.0860	19.9600
 2.0870	19.9930
 2.0880	20.0280
 2.0890	20.0630
 2.0900	20.0960
 2.0910	20.1310
 2.0920	20.1680
 2.0930	20.2010
 2.0940	20.2320
 2.0950	20.2640
 2.0960	20.2950
 2.0970	20.3270
 2.0980	20.3610
 2.0990	20.3940
 2.1000	20.4260
 2.1010	20.4580
 2.1020	20.4900
 2.1030	20.5220
 2.1040	20.5560
 2.1050	20.5890
 2.1060	20.6220
 2.1070	20.6560
 2.1080	20.6880
 2.1090	20.7170
 2.1100	20.7490
 2.1110	20.7810
 2.1120	20.8130
 2.1130	20.8470
 2.1140	20.8800
 2.1150	20.9100
 2.1160	20.9440
 2.1170	20.9830
 2.1180	21.0180
 2.1190	21.0550
 2.1200	21.0880
 2.1210	21.1180
 2.1220	21.1460
 2.1230	21.1740
 2.1240	21.1990
 2.1250	21.2270
 2.1260	21.2560
 2.1270	21.2830
 2.1280	21.3090
 2.1290	21.3360
 2.1300	21.3620
 2.1310	21.3900
 2.1320	21.4190
 2.1330	21.4470
 2.1340	21.4770
 2.1350	21.5020
 2.1360	21.5230
 2.1370	21.5450
 2.1380	21.5620
 2.1390	21.5830
 2.1400	21.6080
 2.1410	21.6320
 2.1420	21.6560
 2.1430	21.6810
 2.1440	21.7040
 2.1450	21.7250
 2.1460	21.7450
 2.1470	21.7610
 2.1480	21.7810
 2.1490	21.8020
 2.1500	21.8220
 2.1510	21.8450
 2.1520	21.8670
 2.1530	21.8860
 2.1540	21.9070
 2.1550	21.9310
 2.1560	21.9530
 2.1570	21.9760
 2.1580	21.9960
 2.1590	22.0140
 2.1600	22.0300
 2.1610	22.0450
 2.1620	22.0600
 2.1630	22.0770
 2.1640	22.0960
 2.1650	22.1110
 2.1660	22.1260
 2.1670	22.1420
 2.1680	22.1580
 2.1690	22.1740
 2.1700	22.1900
 2.1710	22.2090
 2.1720	22.2290
 2.1730	22.2470
 2.1740	22.2690
 2.1750	22.2870
 2.1760	22.2970
 2.1770	22.3130
 2.1780	22.3320
 2.1790	22.3500
 2.1800	22.3700
 2.1810	22.3890
 2.1820	22.4050
 2.1830	22.4220
 2.1840	22.4380
 2.1850	22.4540
 2.1860	22.4710
 2.1870	22.4880
 2.1880	22.5040
 2.1890	22.5210
 2.1900	22.5370
 2.1910	22.5520
 2.1920	22.5680
 2.1930	22.5850
 2.1940	22.6010
 2.1950	22.6200
 2.1960	22.6340
 2.1970	22.6460
 2.1980	22.6570
 2.1990	22.6660
 2.2000	22.6720
 2.2010	22.6750
 2.2020	22.6810
 2.2030	22.6890
 2.2040	22.6960
 2.2050	22.7060
 2.2060	22.7160
 2.2070	22.7230
 2.2080	22.7260
 2.2090	22.7330
 2.2100	22.7440
 2.2110	22.7470
 2.2120	22.7490
 2.2130	22.7470
 2.2140	22.7380
 2.2150	22.7340
 2.2160	22.7290
 2.2170	22.7280
 2.2180	22.7330
 2.2190	22.7320
 2.2200	22.7350
 2.2210	22.7280
 2.2220	22.7100
 2.2230	22.6940
 2.2240	22.6750
 2.2250	22.6540
 2.2260	22.6350
 2.2270	22.6090
 2.2280	22.5760
 2.2290	22.5450
 2.2300	22.5130
 2.2310	22.4780
 2.2320	22.4400
 2.2330	22.3990
 2.2340	22.3560
 2.2350	22.3060
 2.2360	22.2580
 2.2370	22.2110
 2.2380	22.1580
 2.2390	22.1010
 2.2400	22.0430
 2.2410	21.9820
 2.2420	21.9190
 2.2430	21.8530
 2.2440	21.7840
 2.2450	21.7100
 2.2460	21.6360
 2.2470	21.5590
 2.2480	21.4810
 2.2490	21.4040
 2.2500	21.3210
 2.2510	21.2310
 2.2520	21.1440
 2.2530	21.0500
 2.2540	20.9620
 2.2550	20.8800
 2.2560	20.7940
 2.2570	20.7110
 2.2580	20.6240
 2.2590	20.5330
 2.2600	20.4440
 2.2610	20.3570
 2.2620	20.2680
 2.2630	20.1820
 2.2640	20.1030
 2.2650	20.0240
 2.2660	19.9480
 2.2670	19.8720
 2.2680	19.7970
 2.2690	19.7210
 2.2700	19.6440
 2.2710	19.5720
 2.2720	19.5000
 2.2730	19.4360
 2.2740	19.3800
 2.2750	19.3200
 2.2760	19.2630
 2.2770	19.2040
 2.2780	19.1380
 2.2790	19.0780
 2.2800	19.0230
 2.2810	18.9660
 2.2820	18.9120
 2.2830	18.8540
 2.2840	18.7910
 2.2850	18.7300
 2.2860	18.6690
 2.2870	18.6050
 2.2880	18.5430
 2.2890	18.4780
 2.2900	18.4070
 2.2910	18.3400
 2.2920	18.2770
 2.2930	18.2100
 2.2940	18.1410
 2.2950	18.0760
 2.2960	18.0110
 2.2970	17.9470
 2.2980	17.8880
 2.2990	17.8270
 2.3000	17.7640
 2.3010	17.7090
 2.3020	17.6660
 2.3030	17.6290
 2.3040	17.5970
 2.3050	17.5660
 2.3060	17.5400
 2.3070	17.5190
 2.3080	17.5060
 2.3090	17.5060
 2.3100	17.5060
 2.3110	17.5100
 2.3120	17.5200
 2.3130	17.5360
 2.3140	17.5490
 2.3150	17.5670
 2.3160	17.5790
 2.3170	17.5870
 2.3180	17.5970
 2.3190	17.6070
 2.3200	17.6120
 2.3210	17.6190
 2.3220	17.6170
 2.3230	17.6090
 2.3240	17.6010
 2.3250	17.5880
 2.3260	17.5740
 2.3270	17.5600
 2.3280	17.5390
 2.3290	17.5120
 2.3300	17.4860
 2.3310	17.4570
 2.3320	17.4260
 2.3330	17.3930
 2.3340	17.3580
 2.3350	17.3160
 2.3360	17.2780
 2.3370	17.2390
 2.3380	17.2030
 2.3390	17.1690
 2.3400	17.1340
 2.3410	17.1020
 2.3420	17.0640
 2.3430	17.0200
 2.3440	16.9790
 2.3450	16.9320
 2.3460	16.8960
 2.3470	16.8630
 2.3480	16.8380
 2.3490	16.8300
 2.3500	16.8090
 2.3510	16.7880
 2.3520	16.7690
 2.3530	16.7400
 2.3540	16.7190
 2.3550	16.7200
 2.3560	16.7120
 2.3570	16.7020
 2.3580	16.6910
 2.3590	16.6640
 2.3600	16.6390
 2.3610	16.6200
 2.3620	16.6010
 2.3630	16.5850
 2.3640	16.5610
 2.3650	16.5370
 2.3660	16.5160
 2.3670	16.4980
 2.3680	16.4890
 2.3690	16.4750
 2.3700	16.4500
 2.3710	16.4270
 2.3720	16.4010
 2.3730	16.3740
 2.3740	16.3530
 2.3750	16.3240
 2.3760	16.2880
 2.3770	16.2590
 2.3780	16.2350
 2.3790	16.2100
 2.3800	16.1800
 2.3810	16.1510
 2.3820	16.1190
 2.3830	16.0770
 2.3840	16.0420
 2.3850	16.0080
 2.3860	15.9740
 2.3870	15.9480
 2.3880	15.9170
 2.3890	15.8830
 2.3900	15.8490
 2.3910	15.8030
 2.3920	15.7640
 2.3930	15.7150
 2.3940	15.6560
 2.3950	15.6160
 2.3960	15.5820
 2.3970	15.5610
 2.3980	15.5400
 2.3990	15.5120
 2.4000	15.4800
 2.4010	15.4290
 2.4020	15.3760
 2.4030	15.3150
 2.4040	15.2580
 2.4050	15.2070
 2.4060	15.1680
 2.4070	15.1480
 2.4080	15.1180
 2.4090	15.0840
 2.4100	15.0520
 2.4110	15.0170
 2.4120	14.9790
 2.4130	14.9440
 2.4140	14.9120
 2.4150	14.8690
 2.4160	14.8250
 2.4170	14.7790
 2.4180	14.7220
 2.4190	14.6720
 2.4200	14.6300
 2.4210	14.5920
 2.4220	14.5620
 2.4230	14.5320
 2.4240	14.4850
 2.4250	14.4360
 2.4260	14.3870
 2.4270	14.3330
 2.4280	14.2890
 2.4290	14.2350
 2.4300	14.1840
 2.4310	14.1410
 2.4320	14.0960
 2.4330	14.0500
 2.4340	13.9960
 2.4350	13.9410
 2.4360	13.8710
 2.4370	13.8200
 2.4380	13.7960
 2.4390	13.7540
 2.4400	13.7160
 2.4410	13.6630
 2.4420	13.5940
 2.4430	13.5420
 2.4440	13.5000
 2.4450	13.4700
 2.4460	13.4190
 2.4470	13.3750
 2.4480	13.3460
 2.4490	13.3030
 2.4500	13.2760
 2.4510	13.2230
 2.4520	13.1400
 2.4530	13.0760
 2.4540	13.0210
 2.4550	12.9810
 2.4560	12.9600
 2.4570	12.9280
 2.4580	12.8780
 2.4590	12.8210
 2.4600	12.7500
 2.4610	12.6760
 2.4620	12.6310
 2.4630	12.5820
 2.4640	12.5410
 2.4650	12.5150
 2.4660	12.4650
 2.4670	12.4470
 2.4680	12.4470
 2.4690	12.4270
 2.4700	12.3960
 2.4710	12.3370
 2.4720	12.2970
 2.4730	12.2660
 2.4740	12.2290
 2.4750	12.1870
 2.4760	12.1490
 2.4770	12.1030
 2.4780	12.0750
 2.4790	12.0790
 2.4800	12.0580
 2.4810	12.0260
 2.4820	11.9930
 2.4830	11.9570
 2.4840	11.9530
 2.4850	11.9420
 2.4860	11.9050
 2.4870	11.8770
 2.4880	11.8630
 2.4890	11.8410
 2.4900	11.8330
 2.4910	11.8440
 2.4920	11.8230
 2.4930	11.8160
 2.4940	11.8140
 2.4950	11.7740
 2.4960	11.7320
 2.4970	11.6730
 2.4980	11.6700
 2.4990	11.6870
 2.5000	11.6950
