Name: Heteromeles arbutifolia 2
Type: vegetation
Class: Shrub
Genus: Heteromeles
Species: arbutifolia
Sample No.: VH208
Owner: UCSB
Wavelength Range: TIR
Origin: 34.4907; -119.7912; WGS84
Collection Date: 10/13/2013
Description: Samples were collected as part of the HyspIRI Airborne Campaign. 48 individual plants were sampled in three times in 2013 - spring  summer  and fall. The name of the sample includes a 1  2  or 3 which references a different individual of the species. Samples were taken to JPL and processed within 48 hours of collection. The same leaves were processed in the Nicolet and then measured using the ASD.
Measurement: Hemispherical reflectance
First Column: X
Second Column: Y
X Units: Wavelength (micrometers)
Y Units: Reflectance (percentage)
First X Value: 2.501
Last X Value: 15.387
Number of X Values: 1737
Additional Information: vegetation.shrub.heteromeles.arbutifolia.tir.vh208.ucsb.nicolet.ancillary.txt

 2.5010	 7.1460
 2.5030	 7.2360
 2.5040	 7.5040
 2.5050	 7.4440
 2.5060	 7.4690
 2.5070	 7.6620
 2.5090	 7.7670
 2.5100	 7.3530
 2.5110	 7.1100
 2.5120	 7.1960
 2.5140	 7.2270
 2.5150	 7.2020
 2.5160	 7.3390
 2.5170	 7.2460
 2.5180	 7.1560
 2.5200	 7.1050
 2.5210	 7.2210
 2.5220	 7.2610
 2.5230	 7.3160
 2.5250	 7.1060
 2.5260	 7.0030
 2.5270	 6.9760
 2.5280	 7.1510
 2.5290	 7.2560
 2.5310	 7.3000
 2.5320	 7.1030
 2.5330	 7.0270
 2.5340	 7.2550
 2.5360	 7.4340
 2.5370	 7.1460
 2.5380	 6.9440
 2.5390	 6.9530
 2.5410	 7.1460
 2.5420	 7.1830
 2.5430	 7.2710
 2.5440	 7.2370
 2.5460	 7.0550
 2.5470	 6.9430
 2.5480	 7.1930
 2.5490	 7.2960
 2.5510	 7.1930
 2.5520	 7.1840
 2.5530	 7.2310
 2.5540	 7.1310
 2.5560	 7.1310
 2.5570	 7.0960
 2.5580	 7.2750
 2.5590	 7.2540
 2.5610	 7.2210
 2.5620	 7.2260
 2.5630	 7.2410
 2.5640	 7.1070
 2.5660	 7.1080
 2.5670	 7.1530
 2.5680	 7.1390
 2.5700	 7.0250
 2.5710	 7.0250
 2.5720	 7.2240
 2.5730	 7.3970
 2.5750	 7.2020
 2.5760	 6.9980
 2.5770	 6.9020
 2.5790	 7.0260
 2.5800	 7.0330
 2.5810	 7.1490
 2.5820	 7.2210
 2.5840	 7.4220
 2.5850	 7.3540
 2.5860	 7.0390
 2.5880	 7.0190
 2.5890	 7.2150
 2.5900	 7.1570
 2.5910	 6.9950
 2.5930	 6.9360
 2.5940	 6.9940
 2.5950	 6.9530
 2.5970	 7.1380
 2.5980	 7.1290
 2.5990	 7.1320
 2.6000	 7.1390
 2.6020	 7.0720
 2.6030	 6.9290
 2.6040	 6.8710
 2.6060	 6.7680
 2.6070	 6.7940
 2.6080	 6.8660
 2.6100	 6.8110
 2.6110	 6.6800
 2.6120	 6.7020
 2.6140	 6.6410
 2.6150	 6.6160
 2.6160	 6.5360
 2.6180	 6.5400
 2.6190	 6.4870
 2.6200	 6.7090
 2.6220	 6.5400
 2.6230	 6.1920
 2.6240	 6.0690
 2.6260	 6.1700
 2.6270	 6.0350
 2.6280	 6.0980
 2.6300	 6.3770
 2.6310	 6.2500
 2.6320	 6.1420
 2.6340	 6.1560
 2.6350	 5.9680
 2.6360	 6.0280
 2.6380	 6.0240
 2.6390	 5.9280
 2.6400	 5.9010
 2.6420	 6.0360
 2.6430	 6.0270
 2.6440	 5.9590
 2.6460	 5.7530
 2.6470	 5.6480
 2.6480	 5.6890
 2.6500	 5.7140
 2.6510	 5.5580
 2.6520	 5.5410
 2.6540	 5.5070
 2.6550	 5.4230
 2.6560	 5.5510
 2.6580	 5.5700
 2.6590	 5.3410
 2.6610	 5.1660
 2.6620	 5.2760
 2.6630	 5.5140
 2.6650	 5.5060
 2.6660	 5.4870
 2.6670	 5.4170
 2.6690	 5.5290
 2.6700	 5.6900
 2.6720	 5.7120
 2.6730	 5.5200
 2.6740	 5.3070
 2.6760	 5.2100
 2.6770	 5.3400
 2.6780	 5.4100
 2.6800	 5.2500
 2.6810	 5.1150
 2.6830	 5.1630
 2.6840	 5.2700
 2.6850	 5.2780
 2.6870	 4.9990
 2.6880	 4.9200
 2.6900	 4.9420
 2.6910	 5.0440
 2.6920	 5.0520
 2.6940	 4.9620
 2.6950	 4.9220
 2.6970	 5.0480
 2.6980	 4.9830
 2.6990	 5.2600
 2.7010	 5.3890
 2.7020	 5.3270
 2.7040	 5.3140
 2.7050	 5.1340
 2.7060	 4.9860
 2.7080	 5.0130
 2.7090	 4.9690
 2.7110	 4.8940
 2.7120	 5.0090
 2.7130	 5.1290
 2.7150	 5.0350
 2.7160	 4.9630
 2.7180	 4.8790
 2.7190	 5.0020
 2.7210	 4.8010
 2.7220	 4.4860
 2.7230	 4.7380
 2.7250	 5.0300
 2.7260	 5.0010
 2.7280	 5.0270
 2.7290	 5.1270
 2.7310	 5.0820
 2.7320	 5.0360
 2.7330	 5.0160
 2.7350	 4.8690
 2.7360	 4.4820
 2.7380	 4.7620
 2.7390	 5.0400
 2.7410	 4.8290
 2.7420	 5.1820
 2.7440	 5.4530
 2.7450	 5.0860
 2.7470	 4.6410
 2.7480	 4.7510
 2.7490	 5.0150
 2.7510	 3.8550
 2.7520	 3.3610
 2.7540	 4.2300
 2.7550	 4.9830
 2.7570	 4.9330
 2.7580	 4.6050
 2.7600	 5.1780
 2.7610	 5.4590
 2.7630	 4.9980
 2.7640	 4.9240
 2.7660	 5.1900
 2.7670	 5.0510
 2.7680	 4.8260
 2.7700	 4.9900
 2.7710	 5.1990
 2.7730	 4.9330
 2.7740	 5.1210
 2.7760	 5.2690
 2.7770	 5.1690
 2.7790	 5.0390
 2.7800	 4.8230
 2.7820	 4.7840
 2.7830	 4.8240
 2.7850	 4.8450
 2.7860	 5.0260
 2.7880	 4.8730
 2.7890	 4.9070
 2.7910	 4.8850
 2.7920	 4.8610
 2.7940	 4.9250
 2.7950	 4.6440
 2.7970	 4.4660
 2.7980	 4.8680
 2.8000	 4.9340
 2.8010	 5.0190
 2.8030	 5.0120
 2.8040	 5.1890
 2.8060	 5.0790
 2.8070	 4.8450
 2.8090	 4.8040
 2.8110	 4.8330
 2.8120	 4.8070
 2.8140	 5.0750
 2.8150	 5.0720
 2.8170	 4.9180
 2.8180	 4.8900
 2.8200	 4.9940
 2.8210	 5.0480
 2.8230	 5.3380
 2.8240	 5.3460
 2.8260	 5.1380
 2.8270	 5.1100
 2.8290	 5.0630
 2.8300	 5.0750
 2.8320	 5.1530
 2.8340	 5.2740
 2.8350	 5.3020
 2.8370	 4.8990
 2.8380	 4.5210
 2.8400	 4.4680
 2.8410	 4.7800
 2.8430	 4.9390
 2.8440	 4.9730
 2.8460	 5.0480
 2.8480	 5.3270
 2.8490	 5.1610
 2.8510	 4.9530
 2.8520	 4.8020
 2.8540	 4.9840
 2.8550	 5.0200
 2.8570	 5.0240
 2.8590	 4.8680
 2.8600	 4.8090
 2.8620	 4.8280
 2.8630	 4.8950
 2.8650	 4.8980
 2.8660	 5.0110
 2.8680	 4.9110
 2.8700	 4.5890
 2.8710	 4.5320
 2.8730	 4.8830
 2.8740	 5.2730
 2.8760	 4.9330
 2.8780	 4.7240
 2.8790	 5.1490
 2.8810	 4.9990
 2.8820	 5.2600
 2.8840	 5.6610
 2.8860	 5.4180
 2.8870	 5.1590
 2.8890	 5.2090
 2.8900	 5.1630
 2.8920	 4.9440
 2.8940	 4.6270
 2.8950	 4.4700
 2.8970	 4.5910
 2.8980	 4.3640
 2.9000	 4.7560
 2.9020	 5.1340
 2.9030	 5.1640
 2.9050	 5.4070
 2.9070	 5.6560
 2.9080	 5.4290
 2.9100	 5.2200
 2.9120	 4.8940
 2.9130	 4.8570
 2.9150	 5.1590
 2.9160	 5.3810
 2.9180	 5.2840
 2.9200	 5.0550
 2.9210	 5.0670
 2.9230	 5.1240
 2.9250	 5.1830
 2.9260	 5.0320
 2.9280	 4.9410
 2.9300	 4.8800
 2.9310	 5.0100
 2.9330	 4.9770
 2.9350	 4.9290
 2.9360	 4.8670
 2.9380	 4.8830
 2.9400	 4.9440
 2.9410	 4.8660
 2.9430	 4.9100
 2.9450	 5.2950
 2.9460	 5.4050
 2.9480	 4.8070
 2.9500	 4.3370
 2.9510	 4.7830
 2.9530	 5.9580
 2.9550	 6.2510
 2.9560	 5.5740
 2.9580	 4.5880
 2.9600	 4.4250
 2.9610	 4.5390
 2.9630	 4.7340
 2.9650	 5.8470
 2.9660	 6.2820
 2.9680	 5.9790
 2.9700	 4.7920
 2.9720	 3.9700
 2.9730	 5.5450
 2.9750	 7.2100
 2.9770	 6.9540
 2.9780	 5.6170
 2.9800	 5.4410
 2.9820	 5.8160
 2.9840	 5.5870
 2.9850	 5.1700
 2.9870	 4.3200
 2.9890	 5.0260
 2.9900	 7.1870
 2.9920	 8.4410
 2.9940	 8.3540
 2.9960	 7.6170
 2.9970	 5.7290
 2.9990	 5.1270
 3.0010	 4.8510
 3.0030	 4.2730
 3.0040	 5.4550
 3.0060	 4.2600
 3.0080	 4.6660
 3.0100	 5.9490
 3.0110	 6.1200
 3.0130	 6.3570
 3.0150	 5.5230
 3.0170	 5.9920
 3.0180	 6.3040
 3.0200	 5.1440
 3.0220	 3.9820
 3.0240	 4.5150
 3.0250	 4.3700
 3.0270	 4.3080
 3.0290	 5.6750
 3.0310	 4.9640
 3.0320	 3.0160
 3.0340	 3.1920
 3.0360	 4.7400
 3.0380	 6.2490
 3.0400	 5.7870
 3.0410	 4.0750
 3.0430	 3.1880
 3.0450	 1.5100
 3.0470	 2.6420
 3.0480	 5.5230
 3.0500	 7.1410
 3.0520	 7.4270
 3.0540	 6.6860
 3.0560	 4.4030
 3.0570	 3.5520
 3.0590	 4.0370
 3.0610	 4.6900
 3.0630	 5.2720
 3.0650	 5.2000
 3.0660	 5.5620
 3.0680	 5.4910
 3.0700	 4.4310
 3.0720	 5.3350
 3.0740	 6.1930
 3.0760	 5.0170
 3.0770	 4.0270
 3.0790	 4.3280
 3.0810	 4.7370
 3.0830	 4.9570
 3.0850	 5.1730
 3.0870	 5.4030
 3.0880	 5.5700
 3.0900	 5.5290
 3.0920	 5.0760
 3.0940	 4.9020
 3.0960	 5.3170
 3.0980	 5.3440
 3.0990	 5.2810
 3.1010	 5.2600
 3.1030	 5.3070
 3.1050	 5.1990
 3.1070	 5.5110
 3.1090	 5.3680
 3.1110	 5.1450
 3.1120	 5.2620
 3.1140	 4.9540
 3.1160	 4.6570
 3.1180	 4.7690
 3.1200	 4.9030
 3.1220	 5.0510
 3.1240	 5.2690
 3.1260	 5.5370
 3.1270	 5.4950
 3.1290	 5.1820
 3.1310	 4.5920
 3.1330	 4.0130
 3.1350	 4.5990
 3.1370	 5.4200
 3.1390	 4.9470
 3.1410	 4.7560
 3.1430	 4.6120
 3.1450	 3.4940
 3.1460	 4.3280
 3.1480	 5.1100
 3.1500	 3.7490
 3.1520	 3.6780
 3.1540	 4.4740
 3.1560	 4.7260
 3.1580	 7.0380
 3.1600	 8.9340
 3.1620	 8.3720
 3.1640	 7.8900
 3.1660	 4.8580
 3.1680	 3.4900
 3.1700	 4.2550
 3.1710	 5.0990
 3.1730	 5.3080
 3.1750	 4.2260
 3.1770	 5.8150
 3.1790	 6.1850
 3.1810	 5.3150
 3.1830	 5.0190
 3.1850	 4.9470
 3.1870	 5.8850
 3.1890	 6.1330
 3.1910	 5.3610
 3.1930	 4.7250
 3.1950	 5.0690
 3.1970	 5.2930
 3.1990	 4.9860
 3.2010	 4.7740
 3.2030	 4.9680
 3.2050	 4.9010
 3.2070	 4.9550
 3.2090	 5.1450
 3.2110	 5.0460
 3.2130	 5.1050
 3.2150	 5.3600
 3.2170	 5.2890
 3.2190	 5.0390
 3.2210	 5.0680
 3.2230	 5.1770
 3.2250	 5.0170
 3.2270	 4.9660
 3.2290	 5.1750
 3.2310	 5.1600
 3.2330	 4.8870
 3.2350	 4.6240
 3.2370	 4.6320
 3.2390	 5.2310
 3.2410	 4.9420
 3.2430	 4.2350
 3.2450	 4.5650
 3.2470	 5.3250
 3.2490	 5.6090
 3.2510	 5.1490
 3.2530	 5.1510
 3.2550	 5.2680
 3.2570	 4.9040
 3.2590	 4.4740
 3.2610	 4.2720
 3.2630	 4.7890
 3.2650	 4.7960
 3.2670	 4.7260
 3.2690	 4.9430
 3.2720	 4.9160
 3.2740	 4.7230
 3.2760	 4.9560
 3.2780	 5.1170
 3.2800	 4.9050
 3.2820	 4.6630
 3.2840	 4.6100
 3.2860	 4.6510
 3.2880	 4.7830
 3.2900	 4.5410
 3.2920	 4.2340
 3.2940	 4.6260
 3.2960	 5.1500
 3.2990	 5.1710
 3.3010	 5.1630
 3.3030	 4.9980
 3.3050	 4.7650
 3.3070	 4.6230
 3.3090	 4.5290
 3.3110	 4.5790
 3.3130	 4.8270
 3.3150	 4.6590
 3.3180	 4.2670
 3.3200	 4.4300
 3.3220	 4.8650
 3.3240	 4.9810
 3.3260	 4.9080
 3.3280	 4.5630
 3.3300	 4.3550
 3.3330	 4.3560
 3.3350	 4.2330
 3.3370	 4.3500
 3.3390	 4.6120
 3.3410	 4.6280
 3.3430	 4.5810
 3.3450	 4.4870
 3.3480	 4.4280
 3.3500	 4.3860
 3.3520	 4.4500
 3.3540	 4.5390
 3.3560	 4.6930
 3.3580	 4.7070
 3.3610	 4.5630
 3.3630	 4.5710
 3.3650	 4.5660
 3.3670	 4.5660
 3.3690	 4.4980
 3.3720	 4.4010
 3.3740	 4.4580
 3.3760	 4.5540
 3.3780	 4.6520
 3.3800	 4.6080
 3.3830	 4.5790
 3.3850	 4.5570
 3.3870	 4.6350
 3.3890	 4.7770
 3.3910	 4.7960
 3.3940	 4.6600
 3.3960	 4.5820
 3.3980	 4.5060
 3.4000	 4.5620
 3.4020	 4.8300
 3.4050	 4.9480
 3.4070	 4.9790
 3.4090	 5.1030
 3.4110	 5.2210
 3.4140	 5.3810
 3.4160	 5.6750
 3.4180	 6.1350
 3.4200	 6.7330
 3.4230	 7.3080
 3.4250	 7.9470
 3.4270	 8.6370
 3.4290	 9.0080
 3.4320	 8.6210
 3.4340	 7.8060
 3.4360	 7.2620
 3.4390	 6.9070
 3.4410	 6.5700
 3.4430	 6.3180
 3.4450	 6.1720
 3.4480	 5.6720
 3.4500	 5.7100
 3.4520	 5.9070
 3.4550	 6.0740
 3.4570	 6.2660
 3.4590	 6.3550
 3.4620	 6.2250
 3.4640	 5.8960
 3.4660	 5.8030
 3.4680	 5.8850
 3.4710	 5.7050
 3.4730	 5.6840
 3.4750	 5.5760
 3.4780	 5.6920
 3.4800	 5.8580
 3.4820	 5.7540
 3.4850	 5.6060
 3.4870	 5.6610
 3.4890	 5.6020
 3.4920	 5.5430
 3.4940	 5.4570
 3.4970	 5.5230
 3.4990	 5.5580
 3.5010	 5.9010
 3.5040	 6.2730
 3.5060	 6.7100
 3.5080	 7.7020
 3.5110	 8.5150
 3.5130	 8.1860
 3.5160	 7.5120
 3.5180	 6.8760
 3.5200	 6.3830
 3.5230	 6.1790
 3.5250	 6.0910
 3.5270	 6.0150
 3.5300	 6.0210
 3.5320	 6.0170
 3.5350	 6.0200
 3.5370	 6.0320
 3.5400	 6.1300
 3.5420	 6.0040
 3.5440	 5.9590
 3.5470	 6.0430
 3.5490	 5.9000
 3.5520	 5.5550
 3.5540	 5.6220
 3.5570	 5.7860
 3.5590	 5.7150
 3.5610	 5.7370
 3.5640	 5.8300
 3.5660	 5.7610
 3.5690	 5.7000
 3.5710	 5.7600
 3.5740	 5.7020
 3.5760	 5.5270
 3.5790	 5.4820
 3.5810	 5.6660
 3.5840	 5.9570
 3.5860	 5.8500
 3.5890	 5.8960
 3.5910	 6.0560
 3.5930	 5.9990
 3.5960	 5.6370
 3.5980	 5.4370
 3.6010	 5.3570
 3.6030	 5.1100
 3.6060	 5.3770
 3.6080	 5.6220
 3.6110	 5.6090
 3.6140	 5.5860
 3.6160	 5.6350
 3.6190	 5.7110
 3.6210	 5.4990
 3.6240	 5.4830
 3.6260	 5.5040
 3.6290	 5.4740
 3.6310	 5.5680
 3.6340	 5.5400
 3.6360	 5.5730
 3.6390	 5.5370
 3.6410	 5.5250
 3.6440	 5.6440
 3.6470	 5.6550
 3.6490	 5.6120
 3.6520	 5.5460
 3.6540	 5.5250
 3.6570	 5.4120
 3.6590	 5.2980
 3.6620	 5.3980
 3.6650	 5.6030
 3.6670	 5.6170
 3.6700	 5.5270
 3.6720	 5.3940
 3.6750	 5.2790
 3.6780	 5.3460
 3.6800	 5.5870
 3.6830	 5.7770
 3.6850	 5.6780
 3.6880	 5.5110
 3.6910	 5.4980
 3.6930	 5.5320
 3.6960	 5.5410
 3.6990	 5.4880
 3.7010	 5.5320
 3.7040	 5.4710
 3.7060	 5.3660
 3.7090	 5.5040
 3.7120	 5.5460
 3.7140	 5.4070
 3.7170	 5.4270
 3.7200	 5.6010
 3.7220	 5.6930
 3.7250	 5.6170
 3.7280	 5.4910
 3.7300	 5.5480
 3.7330	 5.6710
 3.7360	 5.5760
 3.7390	 5.5870
 3.7410	 5.6490
 3.7440	 5.5410
 3.7470	 5.5330
 3.7490	 5.8390
 3.7520	 5.8730
 3.7550	 5.7920
 3.7580	 5.6090
 3.7600	 5.3920
 3.7630	 5.5390
 3.7660	 5.7650
 3.7680	 5.8590
 3.7710	 5.7550
 3.7740	 5.5740
 3.7770	 5.5670
 3.7790	 5.4700
 3.7820	 5.3960
 3.7850	 5.5010
 3.7880	 5.6290
 3.7900	 5.6850
 3.7930	 5.8070
 3.7960	 5.7900
 3.7990	 5.6980
 3.8020	 5.6670
 3.8040	 5.6790
 3.8070	 5.6930
 3.8100	 5.7100
 3.8130	 5.5800
 3.8160	 5.3310
 3.8180	 5.3400
 3.8210	 5.5020
 3.8240	 5.6360
 3.8270	 5.6640
 3.8300	 5.5950
 3.8330	 5.6050
 3.8350	 5.6540
 3.8380	 5.5910
 3.8410	 5.5330
 3.8440	 5.6060
 3.8470	 5.8050
 3.8500	 5.8320
 3.8520	 5.7770
 3.8550	 5.7180
 3.8580	 5.6880
 3.8610	 5.6950
 3.8640	 5.6710
 3.8670	 5.6260
 3.8700	 5.6630
 3.8730	 5.7760
 3.8750	 5.7100
 3.8780	 5.6760
 3.8810	 5.7640
 3.8840	 5.7610
 3.8870	 5.6580
 3.8900	 5.6660
 3.8930	 5.6030
 3.8960	 5.5320
 3.8990	 5.5740
 3.9020	 5.6250
 3.9050	 5.6490
 3.9080	 5.6590
 3.9110	 5.7170
 3.9140	 5.7680
 3.9160	 5.7000
 3.9190	 5.6630
 3.9220	 5.6780
 3.9250	 5.6560
 3.9280	 5.6370
 3.9310	 5.6750
 3.9340	 5.7300
 3.9370	 5.7120
 3.9400	 5.6600
 3.9430	 5.6600
 3.9460	 5.6020
 3.9490	 5.6520
 3.9520	 5.7220
 3.9550	 5.6770
 3.9580	 5.5850
 3.9610	 5.5900
 3.9640	 5.6840
 3.9670	 5.6840
 3.9700	 5.5960
 3.9730	 5.6280
 3.9770	 5.6640
 3.9800	 5.6880
 3.9830	 5.6920
 3.9860	 5.7320
 3.9890	 5.7140
 3.9920	 5.6940
 3.9950	 5.6800
 3.9980	 5.7440
 4.0010	 5.7320
 4.0040	 5.6560
 4.0070	 5.6570
 4.0100	 5.6600
 4.0130	 5.5840
 4.0170	 5.6020
 4.0200	 5.6040
 4.0230	 5.5680
 4.0260	 5.6000
 4.0290	 5.6690
 4.0320	 5.5850
 4.0350	 5.6070
 4.0380	 5.6350
 4.0420	 5.5650
 4.0450	 5.5200
 4.0480	 5.5590
 4.0510	 5.5740
 4.0540	 5.5860
 4.0570	 5.6910
 4.0610	 5.6830
 4.0640	 5.5420
 4.0670	 5.3780
 4.0700	 5.3930
 4.0730	 5.5630
 4.0770	 5.5950
 4.0800	 5.5020
 4.0830	 5.4630
 4.0860	 5.4680
 4.0890	 5.4800
 4.0930	 5.5340
 4.0960	 5.5970
 4.0990	 5.6520
 4.1020	 5.5510
 4.1060	 5.6450
 4.1090	 5.8300
 4.1120	 5.8460
 4.1150	 5.5780
 4.1190	 5.3930
 4.1220	 5.4750
 4.1250	 5.5180
 4.1280	 5.5470
 4.1320	 5.5060
 4.1350	 5.4480
 4.1380	 5.3610
 4.1420	 5.3610
 4.1450	 5.5410
 4.1480	 5.5390
 4.1520	 5.4430
 4.1550	 5.4360
 4.1580	 5.4850
 4.1620	 5.4780
 4.1650	 5.4970
 4.1680	 5.4710
 4.1720	 5.4380
 4.1750	 5.3440
 4.1780	 5.3520
 4.1820	 5.4010
 4.1850	 5.4970
 4.1890	 5.4540
 4.1920	 5.3490
 4.1950	 5.3470
 4.1990	 5.4400
 4.2020	 5.4610
 4.2060	 5.5620
 4.2090	 5.6620
 4.2120	 5.6590
 4.2160	 5.7040
 4.2190	 5.7490
 4.2230	 6.0960
 4.2260	 6.0400
 4.2300	 6.1110
 4.2330	 6.3750
 4.2360	 6.2040
 4.2400	 5.8750
 4.2430	 6.0220
 4.2470	 6.1260
 4.2500	 6.2550
 4.2540	 6.0520
 4.2570	 5.7640
 4.2610	 5.8100
 4.2640	 5.9290
 4.2680	 5.9080
 4.2710	 5.9360
 4.2750	 5.8800
 4.2780	 5.9230
 4.2820	 5.8950
 4.2850	 5.8760
 4.2890	 5.8480
 4.2930	 5.6270
 4.2960	 5.5820
 4.3000	 5.7370
 4.3030	 5.8870
 4.3070	 5.8790
 4.3100	 5.8110
 4.3140	 5.7390
 4.3180	 5.6310
 4.3210	 5.5060
 4.3250	 5.3880
 4.3280	 5.3530
 4.3320	 5.3690
 4.3360	 5.3730
 4.3390	 5.3440
 4.3430	 5.2900
 4.3470	 5.3340
 4.3500	 5.3610
 4.3540	 5.3410
 4.3570	 5.3090
 4.3610	 5.2280
 4.3650	 5.1430
 4.3680	 5.1240
 4.3720	 5.1700
 4.3760	 5.2140
 4.3800	 5.2150
 4.3830	 5.1440
 4.3870	 5.1290
 4.3910	 5.1830
 4.3940	 5.1870
 4.3980	 5.0830
 4.4020	 5.0910
 4.4060	 5.1540
 4.4090	 5.1330
 4.4130	 5.1490
 4.4170	 5.2520
 4.4210	 5.2720
 4.4240	 5.2290
 4.4280	 5.1850
 4.4320	 5.0750
 4.4360	 5.1440
 4.4400	 5.2150
 4.4430	 5.2310
 4.4470	 5.1560
 4.4510	 4.9620
 4.4550	 4.9550
 4.4590	 4.9990
 4.4620	 4.9760
 4.4660	 4.9760
 4.4700	 4.9780
 4.4740	 4.9910
 4.4780	 5.0930
 4.4820	 5.0580
 4.4860	 4.9990
 4.4900	 4.9570
 4.4930	 4.9090
 4.4970	 4.8700
 4.5010	 4.9460
 4.5050	 5.0160
 4.5090	 4.9840
 4.5130	 4.9940
 4.5170	 5.0180
 4.5210	 5.0530
 4.5250	 5.0770
 4.5290	 5.0120
 4.5330	 4.9960
 4.5370	 4.9510
 4.5410	 4.9510
 4.5450	 5.0290
 4.5490	 5.0780
 4.5530	 4.9980
 4.5570	 4.9510
 4.5610	 4.9860
 4.5650	 4.9480
 4.5690	 4.8730
 4.5730	 4.8030
 4.5770	 4.8570
 4.5810	 4.9830
 4.5850	 5.0170
 4.5890	 5.0790
 4.5930	 5.0440
 4.5970	 4.9140
 4.6010	 4.9270
 4.6050	 5.0600
 4.6090	 5.0420
 4.6130	 5.0540
 4.6170	 5.1430
 4.6220	 5.1550
 4.6260	 5.0180
 4.6300	 4.9430
 4.6340	 4.8970
 4.6380	 4.9750
 4.6420	 5.0200
 4.6460	 5.0000
 4.6510	 4.9470
 4.6550	 4.9460
 4.6590	 4.9080
 4.6630	 4.9060
 4.6670	 4.9200
 4.6720	 4.9500
 4.6760	 4.9640
 4.6800	 4.9400
 4.6840	 4.8090
 4.6880	 4.7380
 4.6930	 4.8010
 4.6970	 4.9170
 4.7010	 4.9390
 4.7050	 4.9490
 4.7100	 4.9130
 4.7140	 4.8950
 4.7180	 4.9850
 4.7230	 5.0310
 4.7270	 4.9590
 4.7310	 4.9350
 4.7360	 4.9110
 4.7400	 4.9340
 4.7440	 4.9610
 4.7490	 4.8700
 4.7530	 4.8430
 4.7570	 4.8550
 4.7620	 4.8630
 4.7660	 4.8580
 4.7700	 4.8040
 4.7750	 4.8900
 4.7790	 4.7540
 4.7840	 4.7240
 4.7880	 4.9580
 4.7920	 4.8940
 4.7970	 4.9110
 4.8010	 4.8780
 4.8060	 4.8270
 4.8100	 4.8870
 4.8150	 4.8600
 4.8190	 4.8540
 4.8240	 4.8000
 4.8280	 4.8080
 4.8330	 4.7590
 4.8370	 4.7800
 4.8420	 4.7600
 4.8460	 4.8130
 4.8510	 4.8060
 4.8550	 4.8390
 4.8600	 4.8540
 4.8640	 4.8610
 4.8690	 4.9280
 4.8730	 4.8070
 4.8780	 4.7410
 4.8830	 4.8610
 4.8870	 4.7600
 4.8920	 4.7770
 4.8960	 4.8470
 4.9010	 4.8780
 4.9060	 4.8330
 4.9100	 4.8650
 4.9150	 4.8990
 4.9200	 4.8570
 4.9240	 4.8170
 4.9290	 4.8770
 4.9340	 4.9320
 4.9380	 4.9210
 4.9430	 4.7910
 4.9480	 4.7770
 4.9530	 4.8270
 4.9570	 4.9220
 4.9620	 4.8460
 4.9670	 4.7420
 4.9720	 4.7610
 4.9760	 4.7650
 4.9810	 4.7400
 4.9860	 4.7640
 4.9910	 4.7810
 4.9960	 4.7920
 5.0000	 4.7670
 5.0050	 4.8400
 5.0100	 4.7770
 5.0150	 4.6860
 5.0200	 4.8040
 5.0250	 4.8990
 5.0290	 4.8690
 5.0340	 4.8860
 5.0390	 4.7700
 5.0440	 4.7370
 5.0490	 4.8140
 5.0540	 4.8450
 5.0590	 4.8760
 5.0640	 4.8820
 5.0690	 4.7860
 5.0740	 4.8470
 5.0790	 4.8520
 5.0840	 4.8660
 5.0890	 4.8180
 5.0940	 4.7720
 5.0990	 4.8490
 5.1040	 4.9400
 5.1090	 4.9380
 5.1140	 4.9210
 5.1190	 4.7850
 5.1240	 4.7330
 5.1290	 4.9220
 5.1340	 4.9790
 5.1390	 4.8590
 5.1440	 4.8360
 5.1490	 4.8030
 5.1540	 4.8380
 5.1600	 4.8630
 5.1650	 4.8770
 5.1700	 4.8250
 5.1750	 4.7590
 5.1800	 4.6850
 5.1850	 4.7280
 5.1910	 4.7830
 5.1960	 4.7890
 5.2010	 4.7140
 5.2060	 4.6110
 5.2110	 4.6140
 5.2170	 4.8280
 5.2220	 4.9350
 5.2270	 4.9170
 5.2320	 4.8860
 5.2380	 4.8560
 5.2430	 4.7250
 5.2480	 4.7930
 5.2540	 4.8670
 5.2590	 4.9270
 5.2640	 4.8490
 5.2700	 4.7970
 5.2750	 4.8010
 5.2800	 4.8210
 5.2860	 4.7880
 5.2910	 4.7440
 5.2970	 4.7140
 5.3020	 4.7630
 5.3070	 4.7810
 5.3130	 4.8140
 5.3180	 4.7730
 5.3240	 4.7430
 5.3290	 4.7510
 5.3350	 4.7790
 5.3400	 4.7300
 5.3460	 4.8320
 5.3510	 4.8500
 5.3570	 4.8050
 5.3620	 4.7560
 5.3680	 4.7690
 5.3730	 4.6760
 5.3790	 4.6670
 5.3850	 4.7040
 5.3900	 4.7560
 5.3960	 4.7660
 5.4010	 4.7650
 5.4070	 4.7710
 5.4130	 4.7840
 5.4180	 4.7660
 5.4240	 4.7380
 5.4300	 4.5710
 5.4350	 4.5920
 5.4410	 4.6200
 5.4470	 4.5810
 5.4530	 4.6240
 5.4580	 4.6310
 5.4640	 4.5750
 5.4700	 4.6230
 5.4760	 4.7170
 5.4810	 4.7440
 5.4870	 4.6610
 5.4930	 4.6890
 5.4990	 4.6690
 5.5050	 4.6390
 5.5110	 4.5650
 5.5160	 4.5490
 5.5220	 4.4870
 5.5280	 4.4820
 5.5340	 4.4920
 5.5400	 4.5720
 5.5460	 4.6020
 5.5520	 4.5880
 5.5580	 4.4710
 5.5640	 4.4230
 5.5700	 4.4330
 5.5760	 4.5000
 5.5820	 4.4650
 5.5880	 4.4930
 5.5940	 4.4390
 5.6000	 4.4310
 5.6060	 4.3870
 5.6120	 4.3990
 5.6180	 4.3660
 5.6240	 4.3230
 5.6300	 4.2690
 5.6360	 4.2920
 5.6420	 4.2850
 5.6490	 4.2740
 5.6550	 4.1180
 5.6610	 4.0880
 5.6670	 4.1650
 5.6730	 4.1760
 5.6800	 4.1650
 5.6860	 4.1960
 5.6920	 4.0520
 5.6980	 3.9520
 5.7040	 3.9570
 5.7110	 3.9810
 5.7170	 3.8470
 5.7230	 3.8320
 5.7300	 3.7400
 5.7360	 3.6640
 5.7420	 3.5850
 5.7490	 3.6430
 5.7550	 3.5790
 5.7620	 3.6140
 5.7680	 3.8860
 5.7740	 4.1630
 5.7810	 4.4140
 5.7870	 4.7270
 5.7940	 4.8510
 5.8000	 4.9430
 5.8070	 5.0170
 5.8130	 5.0430
 5.8200	 5.0770
 5.8260	 5.2250
 5.8330	 5.2060
 5.8390	 5.1900
 5.8460	 5.2000
 5.8530	 5.3040
 5.8590	 5.2580
 5.8660	 5.1900
 5.8720	 5.0570
 5.8790	 5.0180
 5.8860	 5.0330
 5.8920	 5.0820
 5.8990	 4.9820
 5.9060	 5.0140
 5.9130	 4.9940
 5.9190	 5.0110
 5.9260	 5.0840
 5.9330	 5.1770
 5.9400	 5.2050
 5.9470	 5.2560
 5.9530	 5.2740
 5.9600	 5.2900
 5.9670	 5.1970
 5.9740	 5.2410
 5.9810	 5.2410
 5.9880	 5.2320
 5.9950	 5.1030
 6.0020	 5.1350
 6.0090	 5.1230
 6.0160	 5.1850
 6.0230	 5.0870
 6.0300	 5.1180
 6.0370	 5.0560
 6.0440	 5.1850
 6.0510	 5.1830
 6.0580	 5.1400
 6.0650	 5.0500
 6.0720	 5.0240
 6.0790	 4.9740
 6.0860	 5.1400
 6.0930	 5.1750
 6.1000	 5.2120
 6.1080	 5.1900
 6.1150	 5.2840
 6.1220	 5.2090
 6.1290	 5.1870
 6.1370	 5.1630
 6.1440	 5.2600
 6.1510	 5.2600
 6.1580	 5.2790
 6.1660	 5.1770
 6.1730	 5.1580
 6.1800	 5.0470
 6.1880	 5.1580
 6.1950	 5.1820
 6.2030	 5.1120
 6.2100	 5.0810
 6.2170	 5.2970
 6.2250	 5.3510
 6.2320	 5.3400
 6.2400	 5.2240
 6.2470	 5.1890
 6.2550	 4.9580
 6.2630	 4.9740
 6.2700	 5.1830
 6.2780	 5.2050
 6.2850	 5.0440
 6.2930	 5.1030
 6.3010	 5.1490
 6.3080	 5.1280
 6.3160	 4.9820
 6.3240	 4.9840
 6.3310	 4.9740
 6.3390	 5.0780
 6.3470	 4.9940
 6.3550	 5.0090
 6.3620	 5.0100
 6.3700	 4.9870
 6.3780	 4.9870
 6.3860	 5.1100
 6.3940	 5.0390
 6.4020	 4.8810
 6.4100	 4.8280
 6.4180	 4.9400
 6.4260	 4.9560
 6.4330	 4.9380
 6.4410	 4.7800
 6.4490	 4.7460
 6.4580	 4.7740
 6.4660	 4.8540
 6.4740	 4.8810
 6.4820	 4.8870
 6.4900	 4.8190
 6.4980	 4.8460
 6.5060	 4.7270
 6.5140	 4.8190
 6.5230	 4.7710
 6.5310	 4.7150
 6.5390	 4.6610
 6.5470	 4.7040
 6.5550	 4.6260
 6.5640	 4.7390
 6.5720	 4.7260
 6.5800	 4.6190
 6.5890	 4.6200
 6.5970	 4.7670
 6.6060	 4.7600
 6.6140	 4.8160
 6.6220	 4.7610
 6.6310	 4.7500
 6.6390	 4.6420
 6.6480	 4.6920
 6.6560	 4.6180
 6.6650	 4.6090
 6.6740	 4.6010
 6.6820	 4.6830
 6.6910	 4.5960
 6.6990	 4.5690
 6.7080	 4.5430
 6.7170	 4.5410
 6.7260	 4.4740
 6.7340	 4.5160
 6.7430	 4.3560
 6.7520	 4.4750
 6.7610	 4.4520
 6.7690	 4.4610
 6.7780	 4.4630
 6.7870	 4.6050
 6.7960	 4.5080
 6.8050	 4.3700
 6.8140	 4.3360
 6.8230	 4.5300
 6.8320	 4.6730
 6.8410	 4.8050
 6.8500	 4.7330
 6.8590	 4.8350
 6.8680	 4.8670
 6.8770	 4.8540
 6.8860	 4.8610
 6.8950	 5.0260
 6.9050	 4.9460
 6.9140	 4.9250
 6.9230	 4.9490
 6.9320	 5.0440
 6.9420	 4.9180
 6.9510	 4.8580
 6.9600	 4.7600
 6.9700	 4.8130
 6.9790	 4.8650
 6.9880	 5.0200
 6.9980	 4.9800
 7.0070	 5.0290
 7.0170	 4.9320
 7.0260	 4.9360
 7.0360	 4.9680
 7.0450	 5.0640
 7.0550	 5.0390
 7.0650	 5.0710
 7.0740	 4.9240
 7.0840	 5.0200
 7.0940	 4.9680
 7.1030	 4.9740
 7.1130	 4.9950
 7.1230	 5.0520
 7.1330	 4.8890
 7.1420	 4.9110
 7.1520	 4.8220
 7.1620	 4.7360
 7.1720	 4.6210
 7.1820	 4.7200
 7.1920	 4.6900
 7.2020	 4.7460
 7.2120	 4.7510
 7.2220	 4.7970
 7.2320	 4.7070
 7.2420	 4.8010
 7.2520	 4.8580
 7.2620	 5.0190
 7.2730	 4.9880
 7.2830	 5.0210
 7.2930	 4.9310
 7.3030	 4.9490
 7.3140	 4.8930
 7.3240	 4.8770
 7.3340	 4.7800
 7.3450	 4.8940
 7.3550	 4.9310
 7.3660	 4.9470
 7.3760	 4.8410
 7.3870	 4.8760
 7.3970	 4.9130
 7.4080	 4.9780
 7.4180	 4.7750
 7.4290	 4.8780
 7.4400	 4.9140
 7.4500	 4.9490
 7.4610	 4.8880
 7.4720	 4.9110
 7.4830	 4.8020
 7.4930	 4.8830
 7.5040	 4.8460
 7.5150	 4.8300
 7.5260	 4.8160
 7.5370	 4.9160
 7.5480	 4.8060
 7.5590	 4.8020
 7.5700	 4.7820
 7.5810	 4.8620
 7.5920	 4.8560
 7.6030	 4.9460
 7.6140	 4.8590
 7.6260	 4.8870
 7.6370	 4.8180
 7.6480	 4.8010
 7.6590	 4.7710
 7.6710	 4.8130
 7.6820	 4.7490
 7.6930	 4.9360
 7.7050	 4.8850
 7.7160	 4.8480
 7.7280	 4.6280
 7.7390	 4.6670
 7.7510	 4.6840
 7.7630	 4.7530
 7.7740	 4.6630
 7.7860	 4.6610
 7.7980	 4.6080
 7.8090	 4.8240
 7.8210	 4.8300
 7.8330	 4.9020
 7.8450	 4.8490
 7.8570	 4.9740
 7.8690	 4.8500
 7.8810	 4.7940
 7.8930	 4.7720
 7.9050	 4.9030
 7.9170	 4.7410
 7.9290	 4.7220
 7.9410	 4.6920
 7.9530	 4.7900
 7.9650	 4.6340
 7.9780	 4.7260
 7.9900	 4.7760
 8.0020	 4.9160
 8.0150	 4.9070
 8.0270	 4.9850
 8.0390	 4.9220
 8.0520	 4.9630
 8.0640	 4.9370
 8.0770	 5.0570
 8.0900	 4.9740
 8.1020	 5.0660
 8.1150	 4.8450
 8.1280	 4.8910
 8.1400	 4.8720
 8.1530	 5.0190
 8.1660	 4.8660
 8.1790	 4.8790
 8.1920	 4.8200
 8.2050	 4.8880
 8.2180	 4.7020
 8.2310	 4.9410
 8.2440	 5.0190
 8.2570	 5.2080
 8.2700	 4.9360
 8.2830	 4.8890
 8.2970	 4.7360
 8.3100	 4.7130
 8.3230	 4.7710
 8.3370	 5.0220
 8.3500	 4.8340
 8.3640	 4.8120
 8.3770	 4.7260
 8.3910	 4.8260
 8.4040	 4.8170
 8.4180	 4.9570
 8.4320	 4.7950
 8.4450	 4.8120
 8.4590	 4.7340
 8.4730	 4.8880
 8.4870	 4.9110
 8.5010	 5.2030
 8.5150	 5.1630
 8.5290	 5.2260
 8.5430	 5.2160
 8.5570	 5.4360
 8.5710	 5.4160
 8.5850	 5.5830
 8.5990	 5.6090
 8.6140	 5.9440
 8.6280	 5.9270
 8.6420	 6.0420
 8.6570	 5.8690
 8.6710	 5.9210
 8.6860	 5.8350
 8.7000	 6.1160
 8.7150	 6.1210
 8.7300	 6.1650
 8.7440	 5.9760
 8.7590	 6.1130
 8.7740	 6.0520
 8.7890	 6.2040
 8.8040	 6.1360
 8.8190	 6.0450
 8.8340	 5.7890
 8.8490	 6.0230
 8.8640	 5.8640
 8.8790	 5.9280
 8.8940	 6.0290
 8.9100	 6.0450
 8.9250	 5.9190
 8.9400	 6.2370
 8.9560	 6.1110
 8.9710	 6.1720
 8.9870	 6.2620
 9.0020	 6.4740
 9.0180	 6.2520
 9.0340	 6.3590
 9.0500	 6.3340
 9.0650	 6.5560
 9.0810	 6.3660
 9.0970	 6.2520
 9.1130	 6.1540
 9.1290	 6.1950
 9.1450	 5.9560
 9.1610	 6.1420
 9.1780	 6.0320
 9.1940	 6.0270
 9.2100	 5.8490
 9.2270	 6.0540
 9.2430	 6.1780
 9.2600	 6.2370
 9.2760	 5.9650
 9.2930	 5.9900
 9.3090	 5.8780
 9.3260	 5.8720
 9.3430	 5.7880
 9.3600	 6.2540
 9.3770	 6.0380
 9.3940	 5.8790
 9.4110	 5.7970
 9.4280	 5.9680
 9.4450	 5.8110
 9.4620	 5.9950
 9.4800	 5.9550
 9.4970	 6.0710
 9.5140	 5.7890
 9.5320	 5.9930
 9.5500	 5.9020
 9.5670	 6.0860
 9.5850	 6.0830
 9.6030	 6.1800
 9.6200	 6.0310
 9.6380	 6.3320
 9.6560	 6.3070
 9.6740	 6.2930
 9.6920	 6.0350
 9.7100	 6.3110
 9.7290	 6.2760
 9.7470	 6.4690
 9.7650	 6.3740
 9.7840	 6.2780
 9.8020	 6.0030
 9.8210	 6.3370
 9.8390	 6.3170
 9.8580	 6.3640
 9.8770	 6.0330
 9.8960	 5.9830
 9.9150	 5.8420
 9.9340	 5.9510
 9.9530	 5.7080
 9.9720	 5.7700
 9.9910	 5.7230
10.0100	 5.7950
10.0300	 5.7120
10.0490	 5.8240
10.0690	 5.5390
10.0880	 5.7310
10.1080	 5.6270
10.1280	 5.6700
10.1480	 5.5360
10.1670	 5.6210
10.1870	 5.2970
10.2070	 5.3150
10.2280	 5.3270
10.2480	 5.4630
10.2680	 5.4060
10.2890	 5.7120
10.3090	 5.5630
10.3300	 5.5990
10.3500	 5.4980
10.3710	 5.7750
10.3920	 5.6620
10.4120	 5.7160
10.4330	 5.4120
10.4540	 5.5110
10.4760	 5.4170
10.4970	 5.5440
10.5180	 5.2640
10.5390	 5.2930
10.5610	 5.2530
10.5820	 5.3100
10.6040	 5.0750
10.6260	 5.2120
10.6480	 5.0620
10.6700	 5.2080
10.6920	 5.0740
10.7140	 5.2520
10.7360	 5.2180
10.7580	 5.4050
10.7800	 5.1190
10.8030	 5.2200
10.8250	 5.1620
10.8480	 5.3880
10.8710	 5.3090
10.8940	 5.2710
10.9170	 5.0650
10.9400	 5.4500
10.9630	 5.3530
10.9860	 5.5170
11.0090	 5.2850
11.0330	 5.3310
11.0560	 5.2480
11.0800	 5.5530
11.1040	 5.4580
11.1270	 5.5590
11.1510	 5.3210
11.1750	 5.5670
11.2000	 5.3960
11.2240	 5.5340
11.2480	 5.3220
11.2730	 5.7370
11.2970	 5.5740
11.3220	 5.6470
11.3470	 5.7310
11.3720	 5.9000
11.3970	 5.7040
11.4220	 5.8810
11.4470	 5.8590
11.4720	 6.1550
11.4980	 5.7700
11.5230	 5.7020
11.5490	 5.7030
11.5750	 6.0750
11.6000	 5.8710
11.6260	 6.0110
11.6530	 6.0060
11.6790	 6.3040
11.7050	 6.1300
11.7320	 6.1520
11.7580	 5.8520
11.7850	 6.0770
11.8120	 5.9820
11.8390	 6.1970
11.8660	 6.0000
11.8930	 6.3370
11.9200	 6.2960
11.9480	 6.5460
11.9760	 6.2640
12.0030	 6.3100
12.0310	 6.1140
12.0590	 6.4100
12.0870	 6.3300
12.1150	 6.3650
12.1440	 6.1270
12.1720	 6.4770
12.2010	 6.3030
12.2300	 6.5920
12.2590	 6.5460
12.2880	 6.7180
12.3170	 6.5820
12.3460	 6.7660
12.3760	 6.4560
12.4050	 6.5500
12.4350	 6.5530
12.4650	 7.0000
12.4950	 6.5350
12.5250	 6.6040
12.5550	 6.6330
12.5860	 6.5830
12.6170	 6.2670
12.6470	 6.7170
12.6780	 6.4630
12.7090	 6.7710
12.7410	 6.5990
12.7720	 6.6350
12.8030	 6.5210
12.8350	 6.8920
12.8670	 6.8310
12.8990	 7.0240
12.9310	 6.7970
12.9640	 6.8690
12.9960	 6.5540
13.0290	 6.9630
13.0610	 6.7690
13.0940	 6.9300
13.1280	 6.7830
13.1610	 6.8550
13.1940	 6.4700
13.2280	 6.7980
13.2620	 6.5560
13.2960	 6.6480
13.3300	 6.3930
13.3640	 6.6550
13.3990	 6.3570
13.4340	 6.3920
13.4690	 5.9920
13.5040	 6.5020
13.5390	 6.5100
13.5740	 6.8810
13.6100	 6.4460
13.6460	 6.5400
13.6820	 6.1610
13.7180	 6.4620
13.7540	 6.1220
13.7910	 6.2550
13.8280	 6.1380
13.8650	 6.5850
13.9020	 6.5810
13.9390	 6.6030
13.9770	 6.2520
14.0150	 6.6420
14.0530	 6.4780
14.0910	 6.6450
14.1290	 6.0470
14.1680	 6.4190
14.2070	 6.1590
14.2460	 6.4610
14.2850	 6.0290
14.3240	 6.6060
14.3640	 6.1830
14.4040	 6.2420
14.4440	 5.8160
14.4840	 6.6650
14.5250	 6.6470
14.5660	 6.7920
14.6070	 5.6830
14.6480	 6.0670
14.6900	 5.9270
14.7310	 6.4870
14.7730	 6.1310
14.8150	 6.5360
14.8580	 5.9240
14.9010	 6.3390
14.9440	 5.5280
14.9870	 6.2610
15.0300	 5.5000
15.0740	 5.7910
15.1180	 5.4220
15.1620	 6.1100
15.2060	 4.8260
15.2510	 5.6800
15.2960	 5.9340
15.3410	 6.5810
15.3870	 5.5550
