Name: Pinus lambertiana 1
Type: vegetation
Class: Tree
Genus: Pinus
Species: lambertiana
Sample No.: VH052
Owner: UCSB
Wavelength Range: VSWIR
Origin: 37.043; -119.3043; WGS84
Collection Date: 4/20/2013
Description: Samples were collected as part of the HyspIRI Airborne Campaign. 48 individual plants were sampled in three times in 2013 - spring  summer  and fall. The name of the sample includes a 1  2  or 3 which references a different individual of the species. Samples were taken to JPL and processed within 48 hours of collection. The same leaves were processed in the Nicolet and then measured using the ASD.
Measurement: Bidirectional reflectance
First Column: X
Second Column: Y
X Units: Wavelength (micrometers)
Y Units: Reflectance (percentage)
First X Value: 0.35
Last X Value: 2.5
Number of X Values: 2151
Additional Information: vegetation.tree.pinus.lambertiana.vswir.vh052.ucsb.asd.ancillary.txt

 0.3500	 6.6830
 0.3510	 6.5830
 0.3520	 6.5800
 0.3530	 6.5160
 0.3540	 6.3300
 0.3550	 6.4600
 0.3560	 6.4650
 0.3570	 6.3180
 0.3580	 6.2200
 0.3590	 6.3730
 0.3600	 6.4010
 0.3610	 6.2120
 0.3620	 6.1620
 0.3630	 6.2030
 0.3640	 6.2510
 0.3650	 6.2460
 0.3660	 6.3070
 0.3670	 6.2960
 0.3680	 6.2220
 0.3690	 6.1860
 0.3700	 6.1200
 0.3710	 6.1430
 0.3720	 6.2550
 0.3730	 6.2010
 0.3740	 6.1750
 0.3750	 6.1430
 0.3760	 6.0470
 0.3770	 6.0570
 0.3780	 6.1340
 0.3790	 6.2330
 0.3800	 6.3090
 0.3810	 6.2360
 0.3820	 6.1120
 0.3830	 6.0400
 0.3840	 6.0510
 0.3850	 6.0550
 0.3860	 6.0280
 0.3870	 5.9850
 0.3880	 5.9690
 0.3890	 6.0100
 0.3900	 6.0610
 0.3910	 6.0050
 0.3920	 6.0010
 0.3930	 6.0250
 0.3940	 6.0330
 0.3950	 6.0460
 0.3960	 6.0120
 0.3970	 5.9620
 0.3980	 5.9570
 0.3990	 5.9830
 0.4000	 5.9740
 0.4010	 5.9380
 0.4020	 5.9820
 0.4030	 5.9710
 0.4040	 5.9560
 0.4050	 5.9940
 0.4060	 6.0050
 0.4070	 6.0190
 0.4080	 6.0310
 0.4090	 6.0210
 0.4100	 6.0460
 0.4110	 6.0760
 0.4120	 6.0920
 0.4130	 6.1130
 0.4140	 6.1300
 0.4150	 6.1580
 0.4160	 6.2030
 0.4170	 6.2240
 0.4180	 6.2570
 0.4190	 6.3130
 0.4200	 6.3790
 0.4210	 6.4460
 0.4220	 6.4980
 0.4230	 6.5290
 0.4240	 6.5590
 0.4250	 6.6020
 0.4260	 6.6470
 0.4270	 6.6820
 0.4280	 6.7350
 0.4290	 6.7750
 0.4300	 6.7960
 0.4310	 6.8210
 0.4320	 6.8560
 0.4330	 6.8930
 0.4340	 6.9230
 0.4350	 6.9350
 0.4360	 6.9550
 0.4370	 6.9900
 0.4380	 7.0290
 0.4390	 7.0550
 0.4400	 7.0710
 0.4410	 7.0830
 0.4420	 7.1080
 0.4430	 7.1260
 0.4440	 7.1360
 0.4450	 7.1450
 0.4460	 7.1610
 0.4470	 7.1810
 0.4480	 7.2010
 0.4490	 7.2180
 0.4500	 7.2230
 0.4510	 7.2270
 0.4520	 7.2400
 0.4530	 7.2560
 0.4540	 7.2700
 0.4550	 7.2780
 0.4560	 7.2760
 0.4570	 7.2710
 0.4580	 7.2730
 0.4590	 7.2830
 0.4600	 7.2950
 0.4610	 7.3040
 0.4620	 7.3080
 0.4630	 7.3040
 0.4640	 7.3050
 0.4650	 7.3020
 0.4660	 7.2980
 0.4670	 7.3080
 0.4680	 7.3170
 0.4690	 7.3220
 0.4700	 7.3210
 0.4710	 7.3260
 0.4720	 7.3200
 0.4730	 7.3070
 0.4740	 7.3000
 0.4750	 7.3080
 0.4760	 7.3130
 0.4770	 7.3110
 0.4780	 7.3200
 0.4790	 7.3120
 0.4800	 7.3010
 0.4810	 7.3020
 0.4820	 7.2920
 0.4830	 7.2900
 0.4840	 7.2960
 0.4850	 7.2930
 0.4860	 7.2910
 0.4870	 7.2940
 0.4880	 7.3000
 0.4890	 7.3130
 0.4900	 7.3330
 0.4910	 7.3470
 0.4920	 7.3400
 0.4930	 7.3510
 0.4940	 7.3730
 0.4950	 7.3990
 0.4960	 7.4290
 0.4970	 7.4560
 0.4980	 7.4830
 0.4990	 7.5180
 0.5000	 7.5700
 0.5010	 7.6140
 0.5020	 7.6550
 0.5030	 7.7200
 0.5040	 7.7900
 0.5050	 7.8670
 0.5060	 7.9540
 0.5070	 8.0570
 0.5080	 8.1590
 0.5090	 8.2680
 0.5100	 8.4010
 0.5110	 8.5410
 0.5120	 8.7000
 0.5130	 8.8780
 0.5140	 9.0650
 0.5150	 9.2600
 0.5160	 9.4720
 0.5170	 9.7050
 0.5180	 9.9400
 0.5190	10.1900
 0.5200	10.4510
 0.5210	10.7120
 0.5220	10.9840
 0.5230	11.2590
 0.5240	11.5310
 0.5250	11.8000
 0.5260	12.0640
 0.5270	12.3210
 0.5280	12.5670
 0.5290	12.8070
 0.5300	13.0330
 0.5310	13.2430
 0.5320	13.4430
 0.5330	13.6310
 0.5340	13.8090
 0.5350	13.9770
 0.5360	14.1350
 0.5370	14.2770
 0.5380	14.4050
 0.5390	14.5300
 0.5400	14.6450
 0.5410	14.7510
 0.5420	14.8520
 0.5430	14.9510
 0.5440	15.0510
 0.5450	15.1480
 0.5460	15.2420
 0.5470	15.3370
 0.5480	15.4290
 0.5490	15.5100
 0.5500	15.5730
 0.5510	15.6270
 0.5520	15.6680
 0.5530	15.6910
 0.5540	15.6960
 0.5550	15.6860
 0.5560	15.6550
 0.5570	15.5970
 0.5580	15.5260
 0.5590	15.4450
 0.5600	15.3560
 0.5610	15.2580
 0.5620	15.1520
 0.5630	15.0380
 0.5640	14.9140
 0.5650	14.7850
 0.5660	14.6440
 0.5670	14.4910
 0.5680	14.3340
 0.5690	14.1680
 0.5700	13.9970
 0.5710	13.8250
 0.5720	13.6560
 0.5730	13.4900
 0.5740	13.3330
 0.5750	13.1910
 0.5760	13.0470
 0.5770	12.9110
 0.5780	12.7890
 0.5790	12.6730
 0.5800	12.5650
 0.5810	12.4660
 0.5820	12.3740
 0.5830	12.2880
 0.5840	12.2070
 0.5850	12.1280
 0.5860	12.0520
 0.5870	11.9780
 0.5880	11.9070
 0.5890	11.8390
 0.5900	11.7820
 0.5910	11.7340
 0.5920	11.6960
 0.5930	11.6650
 0.5940	11.6350
 0.5950	11.6090
 0.5960	11.5850
 0.5970	11.5530
 0.5980	11.5220
 0.5990	11.4900
 0.6000	11.4530
 0.6010	11.4160
 0.6020	11.3670
 0.6030	11.3050
 0.6040	11.2370
 0.6050	11.1610
 0.6060	11.0780
 0.6070	10.9880
 0.6080	10.8880
 0.6090	10.7850
 0.6100	10.6760
 0.6110	10.5580
 0.6120	10.4490
 0.6130	10.3490
 0.6140	10.2540
 0.6150	10.1550
 0.6160	10.0610
 0.6170	 9.9740
 0.6180	 9.8940
 0.6190	 9.8230
 0.6200	 9.7570
 0.6210	 9.6990
 0.6220	 9.6510
 0.6230	 9.6090
 0.6240	 9.5750
 0.6250	 9.5450
 0.6260	 9.5170
 0.6270	 9.4920
 0.6280	 9.4730
 0.6290	 9.4650
 0.6300	 9.4510
 0.6310	 9.4410
 0.6320	 9.4340
 0.6330	 9.4180
 0.6340	 9.4000
 0.6350	 9.3740
 0.6360	 9.3350
 0.6370	 9.2860
 0.6380	 9.2270
 0.6390	 9.1590
 0.6400	 9.0880
 0.6410	 9.0080
 0.6420	 8.9220
 0.6430	 8.8310
 0.6440	 8.7360
 0.6450	 8.6410
 0.6460	 8.5460
 0.6470	 8.4520
 0.6480	 8.3630
 0.6490	 8.2810
 0.6500	 8.2060
 0.6510	 8.1400
 0.6520	 8.0780
 0.6530	 8.0200
 0.6540	 7.9630
 0.6550	 7.8930
 0.6560	 7.8190
 0.6570	 7.7410
 0.6580	 7.6550
 0.6590	 7.5620
 0.6600	 7.4670
 0.6610	 7.3740
 0.6620	 7.2870
 0.6630	 7.1990
 0.6640	 7.1180
 0.6650	 7.0490
 0.6660	 6.9880
 0.6670	 6.9340
 0.6680	 6.8900
 0.6690	 6.8550
 0.6700	 6.8310
 0.6710	 6.8110
 0.6720	 6.7950
 0.6730	 6.7850
 0.6740	 6.7850
 0.6750	 6.7910
 0.6760	 6.7970
 0.6770	 6.8080
 0.6780	 6.8230
 0.6790	 6.8440
 0.6800	 6.8700
 0.6810	 6.9080
 0.6820	 6.9550
 0.6830	 7.0140
 0.6840	 7.0960
 0.6850	 7.2010
 0.6860	 7.3350
 0.6870	 7.5060
 0.6880	 7.7290
 0.6890	 8.0130
 0.6900	 8.3650
 0.6910	 8.7890
 0.6920	 9.2910
 0.6930	 9.8710
 0.6940	10.5250
 0.6950	11.2470
 0.6960	12.0300
 0.6970	12.8670
 0.6980	13.7540
 0.6990	14.6800
 0.7000	15.6350
 0.7010	16.6110
 0.7020	17.6120
 0.7030	18.6150
 0.7040	19.6200
 0.7050	20.6260
 0.7060	21.6360
 0.7070	22.6430
 0.7080	23.6470
 0.7090	24.6520
 0.7100	25.6530
 0.7110	26.6580
 0.7120	27.6660
 0.7130	28.6640
 0.7140	29.6660
 0.7150	30.6730
 0.7160	31.6790
 0.7170	32.6820
 0.7180	33.6810
 0.7190	34.6750
 0.7200	35.6660
 0.7210	36.6460
 0.7220	37.6200
 0.7230	38.5860
 0.7240	39.5360
 0.7250	40.4620
 0.7260	41.3690
 0.7270	42.2590
 0.7280	43.1160
 0.7290	43.9450
 0.7300	44.7470
 0.7310	45.5190
 0.7320	46.2580
 0.7330	46.9710
 0.7340	47.6580
 0.7350	48.3070
 0.7360	48.9310
 0.7370	49.5220
 0.7380	50.0770
 0.7390	50.6040
 0.7400	51.1050
 0.7410	51.5780
 0.7420	52.0220
 0.7430	52.4350
 0.7440	52.8250
 0.7450	53.1880
 0.7460	53.5140
 0.7470	53.8270
 0.7480	54.1190
 0.7490	54.3820
 0.7500	54.6250
 0.7510	54.8580
 0.7520	55.0720
 0.7530	55.2590
 0.7540	55.4360
 0.7550	55.5990
 0.7560	55.7450
 0.7570	55.8770
 0.7580	56.0020
 0.7590	56.1150
 0.7600	56.2170
 0.7610	56.3140
 0.7620	56.4040
 0.7630	56.4860
 0.7640	56.5600
 0.7650	56.6250
 0.7660	56.6900
 0.7670	56.7540
 0.7680	56.8100
 0.7690	56.8560
 0.7700	56.9040
 0.7710	56.9570
 0.7720	57.0060
 0.7730	57.0420
 0.7740	57.0740
 0.7750	57.1130
 0.7760	57.1480
 0.7770	57.1860
 0.7780	57.2230
 0.7790	57.2510
 0.7800	57.2790
 0.7810	57.3110
 0.7820	57.3470
 0.7830	57.3790
 0.7840	57.4000
 0.7850	57.4210
 0.7860	57.4500
 0.7870	57.4810
 0.7880	57.5020
 0.7890	57.5210
 0.7900	57.5500
 0.7910	57.5670
 0.7920	57.5860
 0.7930	57.6090
 0.7940	57.6320
 0.7950	57.6470
 0.7960	57.6590
 0.7970	57.6750
 0.7980	57.6940
 0.7990	57.7100
 0.8000	57.7230
 0.8010	57.7340
 0.8020	57.7450
 0.8030	57.7580
 0.8040	57.7710
 0.8050	57.7810
 0.8060	57.7940
 0.8070	57.8010
 0.8080	57.8050
 0.8090	57.8190
 0.8100	57.8300
 0.8110	57.8370
 0.8120	57.8420
 0.8130	57.8450
 0.8140	57.8470
 0.8150	57.8480
 0.8160	57.8490
 0.8170	57.8630
 0.8180	57.8690
 0.8190	57.8670
 0.8200	57.8700
 0.8210	57.8800
 0.8220	57.8870
 0.8230	57.8880
 0.8240	57.8820
 0.8250	57.8820
 0.8260	57.8850
 0.8270	57.8860
 0.8280	57.8760
 0.8290	57.8640
 0.8300	57.8560
 0.8310	57.8550
 0.8320	57.8500
 0.8330	57.8500
 0.8340	57.8490
 0.8350	57.8380
 0.8360	57.8430
 0.8370	57.8500
 0.8380	57.8530
 0.8390	57.8590
 0.8400	57.8700
 0.8410	57.8830
 0.8420	57.8930
 0.8430	57.8960
 0.8440	57.9000
 0.8450	57.9110
 0.8460	57.9300
 0.8470	57.9440
 0.8480	57.9530
 0.8490	57.9610
 0.8500	57.9730
 0.8510	57.9810
 0.8520	57.9970
 0.8530	58.0140
 0.8540	58.0200
 0.8550	58.0250
 0.8560	58.0350
 0.8570	58.0460
 0.8580	58.0510
 0.8590	58.0630
 0.8600	58.0780
 0.8610	58.0910
 0.8620	58.1020
 0.8630	58.1090
 0.8640	58.1160
 0.8650	58.1280
 0.8660	58.1340
 0.8670	58.1470
 0.8680	58.1620
 0.8690	58.1700
 0.8700	58.1670
 0.8710	58.1720
 0.8720	58.1850
 0.8730	58.1930
 0.8740	58.2010
 0.8750	58.2070
 0.8760	58.2170
 0.8770	58.2370
 0.8780	58.2380
 0.8790	58.2360
 0.8800	58.2430
 0.8810	58.2450
 0.8820	58.2490
 0.8830	58.2530
 0.8840	58.2530
 0.8850	58.2500
 0.8860	58.2550
 0.8870	58.2580
 0.8880	58.2520
 0.8890	58.2540
 0.8900	58.2480
 0.8910	58.2430
 0.8920	58.2540
 0.8930	58.2450
 0.8940	58.2320
 0.8950	58.2240
 0.8960	58.2230
 0.8970	58.2160
 0.8980	58.2180
 0.8990	58.2210
 0.9000	58.1960
 0.9010	58.1810
 0.9020	58.1730
 0.9030	58.1660
 0.9040	58.1580
 0.9050	58.1480
 0.9060	58.1360
 0.9070	58.1240
 0.9080	58.1130
 0.9090	58.1030
 0.9100	58.0940
 0.9110	58.0830
 0.9120	58.0630
 0.9130	58.0540
 0.9140	58.0480
 0.9150	58.0340
 0.9160	58.0330
 0.9170	58.0160
 0.9180	57.9910
 0.9190	57.9760
 0.9200	57.9550
 0.9210	57.9310
 0.9220	57.9030
 0.9230	57.8720
 0.9240	57.8460
 0.9250	57.8060
 0.9260	57.7540
 0.9270	57.7080
 0.9280	57.6570
 0.9290	57.6120
 0.9300	57.5700
 0.9310	57.5160
 0.9320	57.4400
 0.9330	57.3610
 0.9340	57.2890
 0.9350	57.2190
 0.9360	57.1580
 0.9370	57.0900
 0.9380	57.0050
 0.9390	56.9130
 0.9400	56.8240
 0.9410	56.7270
 0.9420	56.6210
 0.9430	56.5310
 0.9440	56.4260
 0.9450	56.3010
 0.9460	56.1650
 0.9470	56.0190
 0.9480	55.8720
 0.9490	55.7190
 0.9500	55.5520
 0.9510	55.3650
 0.9520	55.1800
 0.9530	54.9940
 0.9540	54.8030
 0.9550	54.6190
 0.9560	54.4420
 0.9570	54.2630
 0.9580	54.0770
 0.9590	53.9200
 0.9600	53.7470
 0.9610	53.5990
 0.9620	53.5150
 0.9630	53.4000
 0.9640	53.3070
 0.9650	53.2150
 0.9660	53.0990
 0.9670	53.0310
 0.9680	52.9790
 0.9690	52.9240
 0.9700	52.8610
 0.9710	52.8190
 0.9720	52.7780
 0.9730	52.7320
 0.9740	52.6890
 0.9750	52.6600
 0.9760	52.6480
 0.9770	52.6280
 0.9780	52.5810
 0.9790	52.5610
 0.9800	52.5730
 0.9810	52.5870
 0.9820	52.5700
 0.9830	52.5500
 0.9840	52.5690
 0.9850	52.6100
 0.9860	52.6310
 0.9870	52.6300
 0.9880	52.6710
 0.9890	52.7380
 0.9900	52.7840
 0.9910	52.8220
 0.9920	52.9370
 0.9930	53.0530
 0.9940	53.1680
 0.9950	53.2830
 0.9960	53.3990
 0.9970	53.5140
 0.9980	53.6290
 0.9990	53.7450
 1.0000	53.8600
 1.0010	53.9750
 1.0020	54.0910
 1.0030	54.2060
 1.0040	54.3210
 1.0050	54.4360
 1.0060	54.5520
 1.0070	54.6670
 1.0080	54.7820
 1.0090	54.8980
 1.0100	54.8980
 1.0110	54.9770
 1.0120	55.0570
 1.0130	55.1420
 1.0140	55.2220
 1.0150	55.2970
 1.0160	55.3780
 1.0170	55.4620
 1.0180	55.5410
 1.0190	55.6190
 1.0200	55.6950
 1.0210	55.7700
 1.0220	55.8490
 1.0230	55.9250
 1.0240	56.0050
 1.0250	56.0800
 1.0260	56.1470
 1.0270	56.2210
 1.0280	56.3010
 1.0290	56.3740
 1.0300	56.4460
 1.0310	56.5160
 1.0320	56.5800
 1.0330	56.6470
 1.0340	56.7190
 1.0350	56.7900
 1.0360	56.8580
 1.0370	56.9230
 1.0380	56.9870
 1.0390	57.0510
 1.0400	57.1090
 1.0410	57.1650
 1.0420	57.2230
 1.0430	57.2770
 1.0440	57.3320
 1.0450	57.3930
 1.0460	57.4440
 1.0470	57.4880
 1.0480	57.5350
 1.0490	57.5800
 1.0500	57.6240
 1.0510	57.6670
 1.0520	57.7120
 1.0530	57.7550
 1.0540	57.7950
 1.0550	57.8350
 1.0560	57.8750
 1.0570	57.9110
 1.0580	57.9430
 1.0590	57.9730
 1.0600	57.9980
 1.0610	58.0250
 1.0620	58.0540
 1.0630	58.0790
 1.0640	58.1070
 1.0650	58.1300
 1.0660	58.1470
 1.0670	58.1650
 1.0680	58.1820
 1.0690	58.1990
 1.0700	58.2110
 1.0710	58.2210
 1.0720	58.2280
 1.0730	58.2300
 1.0740	58.2350
 1.0750	58.2390
 1.0760	58.2430
 1.0770	58.2510
 1.0780	58.2510
 1.0790	58.2490
 1.0800	58.2440
 1.0810	58.2320
 1.0820	58.2210
 1.0830	58.2110
 1.0840	58.1980
 1.0850	58.1830
 1.0860	58.1680
 1.0870	58.1510
 1.0880	58.1320
 1.0890	58.1110
 1.0900	58.0910
 1.0910	58.0650
 1.0920	58.0350
 1.0930	58.0060
 1.0940	57.9740
 1.0950	57.9410
 1.0960	57.9060
 1.0970	57.8690
 1.0980	57.8270
 1.0990	57.7880
 1.1000	57.7510
 1.1010	57.7100
 1.1020	57.6690
 1.1030	57.6250
 1.1040	57.5810
 1.1050	57.5370
 1.1060	57.4920
 1.1070	57.4490
 1.1080	57.4020
 1.1090	57.3550
 1.1100	57.3010
 1.1110	57.2430
 1.1120	57.1840
 1.1130	57.1190
 1.1140	57.0530
 1.1150	56.9910
 1.1160	56.9180
 1.1170	56.8420
 1.1180	56.7570
 1.1190	56.6660
 1.1200	56.5670
 1.1210	56.4620
 1.1220	56.3470
 1.1230	56.2190
 1.1240	56.0820
 1.1250	55.9310
 1.1260	55.7700
 1.1270	55.5900
 1.1280	55.3980
 1.1290	55.1870
 1.1300	54.9620
 1.1310	54.7160
 1.1320	54.4550
 1.1330	54.1770
 1.1340	53.8800
 1.1350	53.5690
 1.1360	53.2410
 1.1370	52.9000
 1.1380	52.5460
 1.1390	52.1850
 1.1400	51.8170
 1.1410	51.4480
 1.1420	51.0760
 1.1430	50.7030
 1.1440	50.3350
 1.1450	49.9640
 1.1460	49.6070
 1.1470	49.2510
 1.1480	48.9150
 1.1490	48.5890
 1.1500	48.2840
 1.1510	47.9940
 1.1520	47.7220
 1.1530	47.4670
 1.1540	47.2290
 1.1550	47.0070
 1.1560	46.8030
 1.1570	46.6170
 1.1580	46.4490
 1.1590	46.2950
 1.1600	46.1540
 1.1610	46.0270
 1.1620	45.9100
 1.1630	45.8060
 1.1640	45.7110
 1.1650	45.6230
 1.1660	45.5460
 1.1670	45.4730
 1.1680	45.4080
 1.1690	45.3450
 1.1700	45.2880
 1.1710	45.2320
 1.1720	45.1820
 1.1730	45.1300
 1.1740	45.0790
 1.1750	45.0290
 1.1760	44.9770
 1.1770	44.9230
 1.1780	44.8670
 1.1790	44.8100
 1.1800	44.7510
 1.1810	44.6920
 1.1820	44.6380
 1.1830	44.5860
 1.1840	44.5310
 1.1850	44.4780
 1.1860	44.4260
 1.1870	44.3730
 1.1880	44.3260
 1.1890	44.2830
 1.1900	44.2410
 1.1910	44.1990
 1.1920	44.1650
 1.1930	44.1350
 1.1940	44.1100
 1.1950	44.0900
 1.1960	44.0750
 1.1970	44.0620
 1.1980	44.0530
 1.1990	44.0490
 1.2000	44.0480
 1.2010	44.0510
 1.2020	44.0580
 1.2030	44.0680
 1.2040	44.0820
 1.2050	44.1000
 1.2060	44.1210
 1.2070	44.1470
 1.2080	44.1770
 1.2090	44.2110
 1.2100	44.2480
 1.2110	44.2900
 1.2120	44.3370
 1.2130	44.3850
 1.2140	44.4360
 1.2150	44.4920
 1.2160	44.5510
 1.2170	44.6160
 1.2180	44.6830
 1.2190	44.7500
 1.2200	44.8190
 1.2210	44.8880
 1.2220	44.9570
 1.2230	45.0290
 1.2240	45.1010
 1.2250	45.1720
 1.2260	45.2440
 1.2270	45.3150
 1.2280	45.3830
 1.2290	45.4500
 1.2300	45.5150
 1.2310	45.5810
 1.2320	45.6460
 1.2330	45.7080
 1.2340	45.7690
 1.2350	45.8280
 1.2360	45.8860
 1.2370	45.9420
 1.2380	45.9970
 1.2390	46.0510
 1.2400	46.1020
 1.2410	46.1550
 1.2420	46.2070
 1.2430	46.2580
 1.2440	46.3080
 1.2450	46.3540
 1.2460	46.3980
 1.2470	46.4400
 1.2480	46.4800
 1.2490	46.5190
 1.2500	46.5540
 1.2510	46.5890
 1.2520	46.6230
 1.2530	46.6560
 1.2540	46.6890
 1.2550	46.7190
 1.2560	46.7460
 1.2570	46.7710
 1.2580	46.7940
 1.2590	46.8150
 1.2600	46.8350
 1.2610	46.8530
 1.2620	46.8700
 1.2630	46.8840
 1.2640	46.8950
 1.2650	46.9040
 1.2660	46.9110
 1.2670	46.9160
 1.2680	46.9210
 1.2690	46.9230
 1.2700	46.9220
 1.2710	46.9200
 1.2720	46.9140
 1.2730	46.9070
 1.2740	46.8960
 1.2750	46.8820
 1.2760	46.8670
 1.2770	46.8510
 1.2780	46.8320
 1.2790	46.8110
 1.2800	46.7870
 1.2810	46.7560
 1.2820	46.7250
 1.2830	46.6910
 1.2840	46.6540
 1.2850	46.6140
 1.2860	46.5690
 1.2870	46.5200
 1.2880	46.4670
 1.2890	46.4080
 1.2900	46.3470
 1.2910	46.2800
 1.2920	46.2060
 1.2930	46.1290
 1.2940	46.0470
 1.2950	45.9580
 1.2960	45.8670
 1.2970	45.7690
 1.2980	45.6650
 1.2990	45.5570
 1.3000	45.4460
 1.3010	45.3280
 1.3020	45.2080
 1.3030	45.0830
 1.3040	44.9470
 1.3050	44.8080
 1.3060	44.6620
 1.3070	44.5080
 1.3080	44.3530
 1.3090	44.1950
 1.3100	44.0330
 1.3110	43.8650
 1.3120	43.6880
 1.3130	43.5050
 1.3140	43.3170
 1.3150	43.1210
 1.3160	42.9240
 1.3170	42.7240
 1.3180	42.5190
 1.3190	42.3080
 1.3200	42.0920
 1.3210	41.8700
 1.3220	41.6450
 1.3230	41.4180
 1.3240	41.1860
 1.3250	40.9510
 1.3260	40.7140
 1.3270	40.4720
 1.3280	40.2320
 1.3290	39.9870
 1.3300	39.7400
 1.3310	39.4940
 1.3320	39.2450
 1.3330	38.9970
 1.3340	38.7510
 1.3350	38.5040
 1.3360	38.2590
 1.3370	38.0150
 1.3380	37.7730
 1.3390	37.5330
 1.3400	37.2960
 1.3410	37.0650
 1.3420	36.8390
 1.3430	36.6150
 1.3440	36.3950
 1.3450	36.1790
 1.3460	35.9660
 1.3470	35.7600
 1.3480	35.5590
 1.3490	35.3610
 1.3500	35.1690
 1.3510	34.9770
 1.3520	34.7870
 1.3530	34.6000
 1.3540	34.4130
 1.3550	34.2280
 1.3560	34.0450
 1.3570	33.8610
 1.3580	33.6770
 1.3590	33.4920
 1.3600	33.3040
 1.3610	33.1130
 1.3620	32.9170
 1.3630	32.7160
 1.3640	32.5080
 1.3650	32.2930
 1.3660	32.0730
 1.3670	31.8430
 1.3680	31.6020
 1.3690	31.3500
 1.3700	31.0830
 1.3710	30.8030
 1.3720	30.5070
 1.3730	30.1950
 1.3740	29.8700
 1.3750	29.5260
 1.3760	29.1630
 1.3770	28.7790
 1.3780	28.3700
 1.3790	27.9420
 1.3800	27.4960
 1.3810	27.0290
 1.3820	26.5490
 1.3830	26.0540
 1.3840	25.5470
 1.3850	25.0230
 1.3860	24.4940
 1.3870	23.9490
 1.3880	23.4090
 1.3890	22.8640
 1.3900	22.3190
 1.3910	21.7840
 1.3920	21.2500
 1.3930	20.7220
 1.3940	20.2050
 1.3950	19.6940
 1.3960	19.1970
 1.3970	18.7170
 1.3980	18.2520
 1.3990	17.8100
 1.4000	17.3840
 1.4010	16.9750
 1.4020	16.5890
 1.4030	16.2160
 1.4040	15.8630
 1.4050	15.5310
 1.4060	15.2160
 1.4070	14.9220
 1.4080	14.6470
 1.4090	14.3880
 1.4100	14.1450
 1.4110	13.9160
 1.4120	13.7030
 1.4130	13.5040
 1.4140	13.3190
 1.4150	13.1500
 1.4160	12.9920
 1.4170	12.8450
 1.4180	12.7080
 1.4190	12.5790
 1.4200	12.4600
 1.4210	12.3500
 1.4220	12.2470
 1.4230	12.1540
 1.4240	12.0670
 1.4250	11.9860
 1.4260	11.9130
 1.4270	11.8440
 1.4280	11.7820
 1.4290	11.7240
 1.4300	11.6720
 1.4310	11.6250
 1.4320	11.5840
 1.4330	11.5450
 1.4340	11.5090
 1.4350	11.4770
 1.4360	11.4480
 1.4370	11.4230
 1.4380	11.4020
 1.4390	11.3830
 1.4400	11.3660
 1.4410	11.3520
 1.4420	11.3400
 1.4430	11.3310
 1.4440	11.3240
 1.4450	11.3190
 1.4460	11.3150
 1.4470	11.3130
 1.4480	11.3120
 1.4490	11.3130
 1.4500	11.3160
 1.4510	11.3210
 1.4520	11.3270
 1.4530	11.3330
 1.4540	11.3390
 1.4550	11.3480
 1.4560	11.3580
 1.4570	11.3700
 1.4580	11.3850
 1.4590	11.4020
 1.4600	11.4200
 1.4610	11.4400
 1.4620	11.4630
 1.4630	11.4900
 1.4640	11.5180
 1.4650	11.5490
 1.4660	11.5840
 1.4670	11.6210
 1.4680	11.6620
 1.4690	11.7060
 1.4700	11.7520
 1.4710	11.8000
 1.4720	11.8520
 1.4730	11.9060
 1.4740	11.9630
 1.4750	12.0220
 1.4760	12.0830
 1.4770	12.1440
 1.4780	12.2090
 1.4790	12.2750
 1.4800	12.3430
 1.4810	12.4130
 1.4820	12.4840
 1.4830	12.5550
 1.4840	12.6290
 1.4850	12.7030
 1.4860	12.7780
 1.4870	12.8560
 1.4880	12.9340
 1.4890	13.0120
 1.4900	13.0900
 1.4910	13.1690
 1.4920	13.2490
 1.4930	13.3310
 1.4940	13.4130
 1.4950	13.4960
 1.4960	13.5790
 1.4970	13.6610
 1.4980	13.7440
 1.4990	13.8300
 1.5000	13.9150
 1.5010	14.0010
 1.5020	14.0870
 1.5030	14.1730
 1.5040	14.2590
 1.5050	14.3450
 1.5060	14.4310
 1.5070	14.5170
 1.5080	14.6040
 1.5090	14.6910
 1.5100	14.7780
 1.5110	14.8650
 1.5120	14.9530
 1.5130	15.0370
 1.5140	15.1220
 1.5150	15.2090
 1.5160	15.2940
 1.5170	15.3800
 1.5180	15.4660
 1.5190	15.5510
 1.5200	15.6350
 1.5210	15.7190
 1.5220	15.8020
 1.5230	15.8850
 1.5240	15.9670
 1.5250	16.0490
 1.5260	16.1310
 1.5270	16.2120
 1.5280	16.2930
 1.5290	16.3730
 1.5300	16.4530
 1.5310	16.5320
 1.5320	16.6110
 1.5330	16.6900
 1.5340	16.7700
 1.5350	16.8470
 1.5360	16.9250
 1.5370	17.0020
 1.5380	17.0790
 1.5390	17.1570
 1.5400	17.2330
 1.5410	17.3090
 1.5420	17.3840
 1.5430	17.4580
 1.5440	17.5320
 1.5450	17.6050
 1.5460	17.6790
 1.5470	17.7520
 1.5480	17.8240
 1.5490	17.8970
 1.5500	17.9690
 1.5510	18.0410
 1.5520	18.1130
 1.5530	18.1850
 1.5540	18.2550
 1.5550	18.3250
 1.5560	18.3930
 1.5570	18.4610
 1.5580	18.5310
 1.5590	18.5990
 1.5600	18.6690
 1.5610	18.7360
 1.5620	18.8030
 1.5630	18.8700
 1.5640	18.9350
 1.5650	19.0010
 1.5660	19.0660
 1.5670	19.1320
 1.5680	19.1970
 1.5690	19.2610
 1.5700	19.3240
 1.5710	19.3860
 1.5720	19.4470
 1.5730	19.5110
 1.5740	19.5750
 1.5750	19.6380
 1.5760	19.7020
 1.5770	19.7660
 1.5780	19.8270
 1.5790	19.8890
 1.5800	19.9520
 1.5810	20.0140
 1.5820	20.0760
 1.5830	20.1380
 1.5840	20.2000
 1.5850	20.2610
 1.5860	20.3230
 1.5870	20.3840
 1.5880	20.4460
 1.5890	20.5080
 1.5900	20.5690
 1.5910	20.6320
 1.5920	20.6950
 1.5930	20.7570
 1.5940	20.8200
 1.5950	20.8820
 1.5960	20.9440
 1.5970	21.0080
 1.5980	21.0710
 1.5990	21.1330
 1.6000	21.1940
 1.6010	21.2530
 1.6020	21.3130
 1.6030	21.3730
 1.6040	21.4330
 1.6050	21.4930
 1.6060	21.5530
 1.6070	21.6110
 1.6080	21.6680
 1.6090	21.7240
 1.6100	21.7810
 1.6110	21.8380
 1.6120	21.8920
 1.6130	21.9470
 1.6140	22.0000
 1.6150	22.0520
 1.6160	22.1060
 1.6170	22.1590
 1.6180	22.2110
 1.6190	22.2620
 1.6200	22.3100
 1.6210	22.3570
 1.6220	22.4040
 1.6230	22.4500
 1.6240	22.4950
 1.6250	22.5390
 1.6260	22.5800
 1.6270	22.6230
 1.6280	22.6650
 1.6290	22.7060
 1.6300	22.7460
 1.6310	22.7850
 1.6320	22.8240
 1.6330	22.8630
 1.6340	22.9050
 1.6350	22.9430
 1.6360	22.9790
 1.6370	23.0160
 1.6380	23.0510
 1.6390	23.0860
 1.6400	23.1210
 1.6410	23.1530
 1.6420	23.1830
 1.6430	23.2100
 1.6440	23.2340
 1.6450	23.2560
 1.6460	23.2760
 1.6470	23.2940
 1.6480	23.3080
 1.6490	23.3210
 1.6500	23.3300
 1.6510	23.3380
 1.6520	23.3450
 1.6530	23.3460
 1.6540	23.3460
 1.6550	23.3450
 1.6560	23.3410
 1.6570	23.3360
 1.6580	23.3310
 1.6590	23.3260
 1.6600	23.3200
 1.6610	23.3160
 1.6620	23.3120
 1.6630	23.3070
 1.6640	23.3030
 1.6650	23.3000
 1.6660	23.2980
 1.6670	23.2960
 1.6680	23.2940
 1.6690	23.2910
 1.6700	23.2880
 1.6710	23.2870
 1.6720	23.2850
 1.6730	23.2800
 1.6740	23.2740
 1.6750	23.2660
 1.6760	23.2580
 1.6770	23.2510
 1.6780	23.2440
 1.6790	23.2370
 1.6800	23.2260
 1.6810	23.2130
 1.6820	23.2000
 1.6830	23.1840
 1.6840	23.1660
 1.6850	23.1450
 1.6860	23.1200
 1.6870	23.0920
 1.6880	23.0630
 1.6890	23.0310
 1.6900	22.9970
 1.6910	22.9600
 1.6920	22.9220
 1.6930	22.8830
 1.6940	22.8440
 1.6950	22.8040
 1.6960	22.7620
 1.6970	22.7180
 1.6980	22.6750
 1.6990	22.6310
 1.7000	22.5880
 1.7010	22.5480
 1.7020	22.5060
 1.7030	22.4630
 1.7040	22.4210
 1.7050	22.3760
 1.7060	22.3340
 1.7070	22.2930
 1.7080	22.2530
 1.7090	22.2130
 1.7100	22.1730
 1.7110	22.1340
 1.7120	22.0950
 1.7130	22.0540
 1.7140	22.0120
 1.7150	21.9700
 1.7160	21.9270
 1.7170	21.8830
 1.7180	21.8390
 1.7190	21.7940
 1.7200	21.7470
 1.7210	21.7010
 1.7220	21.6540
 1.7230	21.6060
 1.7240	21.5600
 1.7250	21.5140
 1.7260	21.4660
 1.7270	21.4210
 1.7280	21.3760
 1.7290	21.3300
 1.7300	21.2870
 1.7310	21.2450
 1.7320	21.2050
 1.7330	21.1650
 1.7340	21.1270
 1.7350	21.0870
 1.7360	21.0470
 1.7370	21.0060
 1.7380	20.9620
 1.7390	20.9190
 1.7400	20.8740
 1.7410	20.8280
 1.7420	20.7830
 1.7430	20.7340
 1.7440	20.6840
 1.7450	20.6320
 1.7460	20.5780
 1.7470	20.5260
 1.7480	20.4740
 1.7490	20.4230
 1.7500	20.3740
 1.7510	20.3230
 1.7520	20.2740
 1.7530	20.2220
 1.7540	20.1680
 1.7550	20.1160
 1.7560	20.0650
 1.7570	20.0180
 1.7580	19.9720
 1.7590	19.9260
 1.7600	19.8790
 1.7610	19.8330
 1.7620	19.7900
 1.7630	19.7480
 1.7640	19.7080
 1.7650	19.6700
 1.7660	19.6340
 1.7670	19.5980
 1.7680	19.5650
 1.7690	19.5350
 1.7700	19.5040
 1.7710	19.4730
 1.7720	19.4440
 1.7730	19.4160
 1.7740	19.3910
 1.7750	19.3700
 1.7760	19.3470
 1.7770	19.3230
 1.7780	19.3020
 1.7790	19.2810
 1.7800	19.2630
 1.7810	19.2490
 1.7820	19.2350
 1.7830	19.2220
 1.7840	19.2110
 1.7850	19.2030
 1.7860	19.1940
 1.7870	19.1870
 1.7880	19.1810
 1.7890	19.1770
 1.7900	19.1750
 1.7910	19.1750
 1.7920	19.1770
 1.7930	19.1790
 1.7940	19.1850
 1.7950	19.1910
 1.7960	19.1950
 1.7970	19.2010
 1.7980	19.2070
 1.7990	19.2140
 1.8000	19.2230
 1.8010	19.2310
 1.8020	19.2370
 1.8030	19.2460
 1.8040	19.2540
 1.8050	19.2640
 1.8060	19.2770
 1.8070	19.2860
 1.8080	19.2930
 1.8090	19.3020
 1.8100	19.3100
 1.8110	19.3200
 1.8120	19.3290
 1.8130	19.3350
 1.8140	19.3400
 1.8150	19.3460
 1.8160	19.3510
 1.8170	19.3570
 1.8180	19.3630
 1.8190	19.3650
 1.8200	19.3670
 1.8210	19.3680
 1.8220	19.3680
 1.8230	19.3690
 1.8240	19.3690
 1.8250	19.3690
 1.8260	19.3690
 1.8270	19.3400
 1.8280	19.3100
 1.8290	19.2810
 1.8300	19.2510
 1.8310	19.2220
 1.8320	19.1930
 1.8330	19.1630
 1.8340	19.1340
 1.8350	19.1340
 1.8360	19.1080
 1.8370	19.0790
 1.8380	19.0480
 1.8390	19.0120
 1.8400	18.9740
 1.8410	18.9290
 1.8420	18.8790
 1.8430	18.8220
 1.8440	18.7610
 1.8450	18.6950
 1.8460	18.6200
 1.8470	18.5420
 1.8480	18.4580
 1.8490	18.3610
 1.8500	18.2580
 1.8510	18.1500
 1.8520	18.0320
 1.8530	17.9020
 1.8540	17.7650
 1.8550	17.6180
 1.8560	17.4620
 1.8570	17.3000
 1.8580	17.1280
 1.8590	16.9470
 1.8600	16.7570
 1.8610	16.5540
 1.8620	16.3400
 1.8630	16.1190
 1.8640	15.8840
 1.8650	15.6380
 1.8660	15.3830
 1.8670	15.1150
 1.8680	14.8390
 1.8690	14.5510
 1.8700	14.2530
 1.8710	13.9440
 1.8720	13.6320
 1.8730	13.3130
 1.8740	12.9910
 1.8750	12.6690
 1.8760	12.3400
 1.8770	12.0110
 1.8780	11.6860
 1.8790	11.3610
 1.8800	11.0420
 1.8810	10.7280
 1.8820	10.4180
 1.8830	10.1100
 1.8840	 9.8100
 1.8850	 9.5170
 1.8860	 9.2310
 1.8870	 8.9530
 1.8880	 8.6840
 1.8890	 8.4290
 1.8900	 8.1850
 1.8910	 7.9570
 1.8920	 7.7430
 1.8930	 7.5430
 1.8940	 7.3520
 1.8950	 7.1730
 1.8960	 7.0050
 1.8970	 6.8480
 1.8980	 6.7060
 1.8990	 6.5740
 1.9000	 6.4520
 1.9010	 6.3420
 1.9020	 6.2400
 1.9030	 6.1490
 1.9040	 6.0680
 1.9050	 5.9930
 1.9060	 5.9260
 1.9070	 5.8660
 1.9080	 5.8120
 1.9090	 5.7630
 1.9100	 5.7180
 1.9110	 5.6780
 1.9120	 5.6430
 1.9130	 5.6110
 1.9140	 5.5860
 1.9150	 5.5620
 1.9160	 5.5390
 1.9170	 5.5170
 1.9180	 5.4980
 1.9190	 5.4820
 1.9200	 5.4670
 1.9210	 5.4570
 1.9220	 5.4460
 1.9230	 5.4370
 1.9240	 5.4300
 1.9250	 5.4280
 1.9260	 5.4240
 1.9270	 5.4210
 1.9280	 5.4180
 1.9290	 5.4140
 1.9300	 5.4120
 1.9310	 5.4140
 1.9320	 5.4190
 1.9330	 5.4220
 1.9340	 5.4270
 1.9350	 5.4320
 1.9360	 5.4360
 1.9370	 5.4430
 1.9380	 5.4520
 1.9390	 5.4640
 1.9400	 5.4770
 1.9410	 5.4920
 1.9420	 5.5060
 1.9430	 5.5210
 1.9440	 5.5350
 1.9450	 5.5480
 1.9460	 5.5620
 1.9470	 5.5760
 1.9480	 5.5920
 1.9490	 5.6080
 1.9500	 5.6280
 1.9510	 5.6500
 1.9520	 5.6680
 1.9530	 5.6870
 1.9540	 5.7070
 1.9550	 5.7270
 1.9560	 5.7470
 1.9570	 5.7670
 1.9580	 5.7870
 1.9590	 5.8080
 1.9600	 5.8290
 1.9610	 5.8520
 1.9620	 5.8770
 1.9630	 5.9010
 1.9640	 5.9240
 1.9650	 5.9460
 1.9660	 5.9700
 1.9670	 5.9940
 1.9680	 6.0200
 1.9690	 6.0480
 1.9700	 6.0760
 1.9710	 6.1050
 1.9720	 6.1330
 1.9730	 6.1620
 1.9740	 6.1920
 1.9750	 6.2220
 1.9760	 6.2510
 1.9770	 6.2810
 1.9780	 6.3090
 1.9790	 6.3390
 1.9800	 6.3690
 1.9810	 6.4000
 1.9820	 6.4330
 1.9830	 6.4670
 1.9840	 6.5020
 1.9850	 6.5360
 1.9860	 6.5720
 1.9870	 6.6050
 1.9880	 6.6370
 1.9890	 6.6720
 1.9900	 6.7050
 1.9910	 6.7390
 1.9920	 6.7730
 1.9930	 6.8050
 1.9940	 6.8390
 1.9950	 6.8750
 1.9960	 6.9100
 1.9970	 6.9460
 1.9980	 6.9820
 1.9990	 7.0180
 2.0000	 7.0550
 2.0010	 7.0900
 2.0020	 7.1260
 2.0030	 7.1620
 2.0040	 7.1960
 2.0050	 7.2320
 2.0060	 7.2710
 2.0070	 7.3080
 2.0080	 7.3430
 2.0090	 7.3780
 2.0100	 7.4120
 2.0110	 7.4450
 2.0120	 7.4770
 2.0130	 7.5090
 2.0140	 7.5450
 2.0150	 7.5800
 2.0160	 7.6120
 2.0170	 7.6450
 2.0180	 7.6780
 2.0190	 7.7070
 2.0200	 7.7390
 2.0210	 7.7740
 2.0220	 7.8060
 2.0230	 7.8370
 2.0240	 7.8680
 2.0250	 7.8980
 2.0260	 7.9290
 2.0270	 7.9600
 2.0280	 7.9910
 2.0290	 8.0190
 2.0300	 8.0470
 2.0310	 8.0730
 2.0320	 8.0940
 2.0330	 8.1200
 2.0340	 8.1490
 2.0350	 8.1730
 2.0360	 8.1940
 2.0370	 8.2180
 2.0380	 8.2390
 2.0390	 8.2610
 2.0400	 8.2860
 2.0410	 8.3080
 2.0420	 8.3290
 2.0430	 8.3500
 2.0440	 8.3710
 2.0450	 8.3920
 2.0460	 8.4130
 2.0470	 8.4320
 2.0480	 8.4530
 2.0490	 8.4770
 2.0500	 8.4960
 2.0510	 8.5150
 2.0520	 8.5330
 2.0530	 8.5460
 2.0540	 8.5630
 2.0550	 8.5810
 2.0560	 8.6010
 2.0570	 8.6200
 2.0580	 8.6400
 2.0590	 8.6580
 2.0600	 8.6750
 2.0610	 8.6940
 2.0620	 8.7130
 2.0630	 8.7320
 2.0640	 8.7520
 2.0650	 8.7700
 2.0660	 8.7880
 2.0670	 8.8060
 2.0680	 8.8250
 2.0690	 8.8430
 2.0700	 8.8620
 2.0710	 8.8810
 2.0720	 8.8980
 2.0730	 8.9180
 2.0740	 8.9350
 2.0750	 8.9530
 2.0760	 8.9720
 2.0770	 8.9930
 2.0780	 9.0110
 2.0790	 9.0300
 2.0800	 9.0490
 2.0810	 9.0640
 2.0820	 9.0810
 2.0830	 9.0970
 2.0840	 9.1160
 2.0850	 9.1350
 2.0860	 9.1550
 2.0870	 9.1760
 2.0880	 9.1980
 2.0890	 9.2180
 2.0900	 9.2350
 2.0910	 9.2540
 2.0920	 9.2720
 2.0930	 9.2880
 2.0940	 9.3040
 2.0950	 9.3210
 2.0960	 9.3360
 2.0970	 9.3560
 2.0980	 9.3800
 2.0990	 9.4020
 2.1000	 9.4250
 2.1010	 9.4460
 2.1020	 9.4630
 2.1030	 9.4830
 2.1040	 9.5040
 2.1050	 9.5240
 2.1060	 9.5420
 2.1070	 9.5590
 2.1080	 9.5770
 2.1090	 9.5920
 2.1100	 9.6100
 2.1110	 9.6280
 2.1120	 9.6480
 2.1130	 9.6690
 2.1140	 9.6890
 2.1150	 9.7110
 2.1160	 9.7320
 2.1170	 9.7520
 2.1180	 9.7720
 2.1190	 9.7940
 2.1200	 9.8140
 2.1210	 9.8330
 2.1220	 9.8520
 2.1230	 9.8730
 2.1240	 9.8940
 2.1250	 9.9140
 2.1260	 9.9370
 2.1270	 9.9580
 2.1280	 9.9770
 2.1290	 9.9970
 2.1300	10.0180
 2.1310	10.0380
 2.1320	10.0590
 2.1330	10.0780
 2.1340	10.0960
 2.1350	10.1150
 2.1360	10.1350
 2.1370	10.1540
 2.1380	10.1710
 2.1390	10.1900
 2.1400	10.2100
 2.1410	10.2300
 2.1420	10.2500
 2.1430	10.2720
 2.1440	10.2920
 2.1450	10.3090
 2.1460	10.3280
 2.1470	10.3460
 2.1480	10.3670
 2.1490	10.3890
 2.1500	10.4100
 2.1510	10.4340
 2.1520	10.4560
 2.1530	10.4780
 2.1540	10.4990
 2.1550	10.5210
 2.1560	10.5420
 2.1570	10.5620
 2.1580	10.5820
 2.1590	10.6010
 2.1600	10.6210
 2.1610	10.6400
 2.1620	10.6570
 2.1630	10.6770
 2.1640	10.6970
 2.1650	10.7160
 2.1660	10.7360
 2.1670	10.7550
 2.1680	10.7710
 2.1690	10.7880
 2.1700	10.8060
 2.1710	10.8250
 2.1720	10.8440
 2.1730	10.8630
 2.1740	10.8860
 2.1750	10.9050
 2.1760	10.9220
 2.1770	10.9400
 2.1780	10.9520
 2.1790	10.9680
 2.1800	10.9870
 2.1810	11.0050
 2.1820	11.0240
 2.1830	11.0430
 2.1840	11.0620
 2.1850	11.0820
 2.1860	11.1000
 2.1870	11.1180
 2.1880	11.1360
 2.1890	11.1520
 2.1900	11.1680
 2.1910	11.1860
 2.1920	11.2020
 2.1930	11.2170
 2.1940	11.2310
 2.1950	11.2440
 2.1960	11.2580
 2.1970	11.2720
 2.1980	11.2880
 2.1990	11.3090
 2.2000	11.3240
 2.2010	11.3380
 2.2020	11.3520
 2.2030	11.3630
 2.2040	11.3760
 2.2050	11.3910
 2.2060	11.4060
 2.2070	11.4190
 2.2080	11.4300
 2.2090	11.4420
 2.2100	11.4540
 2.2110	11.4640
 2.2120	11.4720
 2.2130	11.4810
 2.2140	11.4920
 2.2150	11.4980
 2.2160	11.5050
 2.2170	11.5090
 2.2180	11.5070
 2.2190	11.5070
 2.2200	11.5050
 2.2210	11.5050
 2.2220	11.5050
 2.2230	11.5040
 2.2240	11.5050
 2.2250	11.5000
 2.2260	11.4900
 2.2270	11.4800
 2.2280	11.4660
 2.2290	11.4520
 2.2300	11.4380
 2.2310	11.4200
 2.2320	11.4020
 2.2330	11.3840
 2.2340	11.3620
 2.2350	11.3400
 2.2360	11.3150
 2.2370	11.2860
 2.2380	11.2590
 2.2390	11.2300
 2.2400	11.1990
 2.2410	11.1660
 2.2420	11.1320
 2.2430	11.0950
 2.2440	11.0570
 2.2450	11.0190
 2.2460	10.9790
 2.2470	10.9330
 2.2480	10.8920
 2.2490	10.8500
 2.2500	10.8090
 2.2510	10.7730
 2.2520	10.7310
 2.2530	10.6840
 2.2540	10.6380
 2.2550	10.5900
 2.2560	10.5430
 2.2570	10.4980
 2.2580	10.4530
 2.2590	10.4070
 2.2600	10.3610
 2.2610	10.3150
 2.2620	10.2680
 2.2630	10.2230
 2.2640	10.1760
 2.2650	10.1320
 2.2660	10.0890
 2.2670	10.0460
 2.2680	10.0020
 2.2690	 9.9630
 2.2700	 9.9240
 2.2710	 9.8910
 2.2720	 9.8630
 2.2730	 9.8340
 2.2740	 9.8070
 2.2750	 9.7820
 2.2760	 9.7570
 2.2770	 9.7320
 2.2780	 9.7110
 2.2790	 9.6880
 2.2800	 9.6630
 2.2810	 9.6410
 2.2820	 9.6240
 2.2830	 9.6050
 2.2840	 9.5850
 2.2850	 9.5670
 2.2860	 9.5490
 2.2870	 9.5300
 2.2880	 9.5150
 2.2890	 9.4960
 2.2900	 9.4730
 2.2910	 9.4520
 2.2920	 9.4320
 2.2930	 9.4090
 2.2940	 9.3880
 2.2950	 9.3620
 2.2960	 9.3280
 2.2970	 9.2990
 2.2980	 9.2730
 2.2990	 9.2370
 2.3000	 9.2100
 2.3010	 9.1850
 2.3020	 9.1520
 2.3030	 9.1230
 2.3040	 9.0950
 2.3050	 9.0620
 2.3060	 9.0300
 2.3070	 9.0050
 2.3080	 8.9790
 2.3090	 8.9590
 2.3100	 8.9470
 2.3110	 8.9350
 2.3120	 8.9230
 2.3130	 8.9140
 2.3140	 8.9040
 2.3150	 8.8940
 2.3160	 8.8840
 2.3170	 8.8770
 2.3180	 8.8640
 2.3190	 8.8470
 2.3200	 8.8360
 2.3210	 8.8230
 2.3220	 8.8110
 2.3230	 8.8070
 2.3240	 8.7930
 2.3250	 8.7730
 2.3260	 8.7540
 2.3270	 8.7290
 2.3280	 8.7100
 2.3290	 8.6960
 2.3300	 8.6790
 2.3310	 8.6680
 2.3320	 8.6510
 2.3330	 8.6330
 2.3340	 8.6080
 2.3350	 8.5770
 2.3360	 8.5470
 2.3370	 8.5080
 2.3380	 8.4830
 2.3390	 8.4740
 2.3400	 8.4520
 2.3410	 8.4310
 2.3420	 8.4090
 2.3430	 8.3730
 2.3440	 8.3480
 2.3450	 8.3370
 2.3460	 8.3180
 2.3470	 8.3020
 2.3480	 8.2850
 2.3490	 8.2650
 2.3500	 8.2440
 2.3510	 8.2190
 2.3520	 8.2000
 2.3530	 8.1830
 2.3540	 8.1730
 2.3550	 8.1650
 2.3560	 8.1630
 2.3570	 8.1510
 2.3580	 8.1340
 2.3590	 8.1180
 2.3600	 8.1000
 2.3610	 8.0870
 2.3620	 8.0780
 2.3630	 8.0700
 2.3640	 8.0490
 2.3650	 8.0170
 2.3660	 7.9870
 2.3670	 7.9590
 2.3680	 7.9430
 2.3690	 7.9290
 2.3700	 7.9100
 2.3710	 7.9000
 2.3720	 7.8830
 2.3730	 7.8600
 2.3740	 7.8480
 2.3750	 7.8290
 2.3760	 7.7980
 2.3770	 7.7770
 2.3780	 7.7610
 2.3790	 7.7320
 2.3800	 7.7090
 2.3810	 7.6870
 2.3820	 7.6600
 2.3830	 7.6400
 2.3840	 7.6250
 2.3850	 7.6110
 2.3860	 7.5970
 2.3870	 7.5880
 2.3880	 7.5750
 2.3890	 7.5490
 2.3900	 7.5250
 2.3910	 7.4980
 2.3920	 7.4730
 2.3930	 7.4600
 2.3940	 7.4510
 2.3950	 7.4470
 2.3960	 7.4290
 2.3970	 7.4000
 2.3980	 7.3770
 2.3990	 7.3470
 2.4000	 7.3200
 2.4010	 7.2970
 2.4020	 7.2670
 2.4030	 7.2460
 2.4040	 7.2250
 2.4050	 7.2070
 2.4060	 7.1980
 2.4070	 7.1870
 2.4080	 7.1770
 2.4090	 7.1710
 2.4100	 7.1500
 2.4110	 7.1130
 2.4120	 7.0830
 2.4130	 7.0480
 2.4140	 7.0110
 2.4150	 6.9970
 2.4160	 6.9700
 2.4170	 6.9440
 2.4180	 6.9350
 2.4190	 6.9180
 2.4200	 6.8980
 2.4210	 6.8820
 2.4220	 6.8670
 2.4230	 6.8510
 2.4240	 6.8320
 2.4250	 6.8120
 2.4260	 6.7950
 2.4270	 6.7730
 2.4280	 6.7510
 2.4290	 6.7390
 2.4300	 6.7240
 2.4310	 6.7020
 2.4320	 6.6790
 2.4330	 6.6460
 2.4340	 6.6150
 2.4350	 6.5810
 2.4360	 6.5570
 2.4370	 6.5410
 2.4380	 6.5150
 2.4390	 6.5100
 2.4400	 6.4960
 2.4410	 6.4560
 2.4420	 6.4170
 2.4430	 6.3730
 2.4440	 6.3350
 2.4450	 6.3330
 2.4460	 6.3240
 2.4470	 6.2980
 2.4480	 6.2780
 2.4490	 6.2470
 2.4500	 6.2210
 2.4510	 6.2090
 2.4520	 6.1920
 2.4530	 6.1780
 2.4540	 6.1550
 2.4550	 6.1260
 2.4560	 6.1050
 2.4570	 6.0670
 2.4580	 6.0240
 2.4590	 6.0000
 2.4600	 5.9760
 2.4610	 5.9600
 2.4620	 5.9610
 2.4630	 5.9600
 2.4640	 5.9440
 2.4650	 5.9430
 2.4660	 5.9440
 2.4670	 5.9430
 2.4680	 5.9320
 2.4690	 5.8890
 2.4700	 5.8710
 2.4710	 5.8570
 2.4720	 5.8470
 2.4730	 5.8640
 2.4740	 5.8560
 2.4750	 5.8180
 2.4760	 5.8030
 2.4770	 5.8010
 2.4780	 5.7860
 2.4790	 5.7780
 2.4800	 5.7630
 2.4810	 5.7130
 2.4820	 5.7210
 2.4830	 5.7500
 2.4840	 5.7670
 2.4850	 5.7730
 2.4860	 5.7640
 2.4870	 5.7400
 2.4880	 5.7210
 2.4890	 5.7130
 2.4900	 5.6930
 2.4910	 5.6880
 2.4920	 5.7000
 2.4930	 5.6990
 2.4940	 5.6850
 2.4950	 5.6630
 2.4960	 5.6140
 2.4970	 5.6130
 2.4980	 5.6970
 2.4990	 5.7110
 2.5000	 5.6840
