Name: Baccharis pilularis 3
Type: vegetation
Class: Shrub
Genus: Baccharis
Species: pilularis
Sample No.: VH198
Owner: UCSB
Wavelength Range: TIR
Origin: 34.4185; -119.8457; WGS84
Collection Date: 10/13/2013
Description: Samples were collected as part of the HyspIRI Airborne Campaign. 48 individual plants were sampled in three times in 2013 - spring  summer  and fall. The name of the sample includes a 1  2  or 3 which references a different individual of the species. Samples were taken to JPL and processed within 48 hours of collection. The same leaves were processed in the Nicolet and then measured using the ASD.
Measurement: Hemispherical reflectance
First Column: X
Second Column: Y
X Units: Wavelength (micrometers)
Y Units: Reflectance (percentage)
First X Value: 2.501
Last X Value: 15.387
Number of X Values: 1737
Additional Information: vegetation.shrub.baccharis.pilularis.tir.vh198.ucsb.nicolet.ancillary.txt

 2.5010	 9.7220
 2.5030	 9.6860
 2.5040	 9.5760
 2.5050	 9.3000
 2.5060	 9.2690
 2.5070	 9.3900
 2.5090	 9.4740
 2.5100	 9.1140
 2.5110	 9.0340
 2.5120	 9.2680
 2.5140	 9.3380
 2.5150	 9.1810
 2.5160	 9.1470
 2.5170	 9.2240
 2.5180	 9.2730
 2.5200	 9.1330
 2.5210	 9.1820
 2.5220	 9.3250
 2.5230	 9.3220
 2.5250	 9.1540
 2.5260	 9.0850
 2.5270	 9.0120
 2.5280	 9.0000
 2.5290	 8.9030
 2.5310	 8.7660
 2.5320	 8.8840
 2.5330	 9.0600
 2.5340	 9.0440
 2.5360	 9.2660
 2.5370	 9.2160
 2.5380	 9.0540
 2.5390	 9.1110
 2.5410	 9.0720
 2.5420	 9.0330
 2.5430	 9.1300
 2.5440	 8.9070
 2.5460	 8.9560
 2.5470	 8.9290
 2.5480	 8.8870
 2.5490	 8.9580
 2.5510	 9.3080
 2.5520	 9.3790
 2.5530	 9.2640
 2.5540	 9.1760
 2.5560	 9.2080
 2.5570	 9.2450
 2.5580	 9.3270
 2.5590	 9.3270
 2.5610	 9.2820
 2.5620	 9.1320
 2.5630	 9.1300
 2.5640	 9.1540
 2.5660	 9.2450
 2.5670	 9.1410
 2.5680	 9.0380
 2.5700	 9.1410
 2.5710	 9.2320
 2.5720	 9.2740
 2.5730	 9.2990
 2.5750	 9.2340
 2.5760	 9.1590
 2.5770	 9.0740
 2.5790	 9.3680
 2.5800	 9.5370
 2.5810	 9.3390
 2.5820	 9.1240
 2.5840	 9.1230
 2.5850	 9.4290
 2.5860	 9.7760
 2.5880	 9.4470
 2.5890	 9.0910
 2.5900	 8.7970
 2.5910	 8.8350
 2.5930	 9.0150
 2.5940	 9.1170
 2.5950	 9.0530
 2.5970	 9.0160
 2.5980	 8.8950
 2.5990	 8.8290
 2.6000	 8.9230
 2.6020	 9.1130
 2.6030	 9.0890
 2.6040	 8.8950
 2.6060	 8.7480
 2.6070	 8.8370
 2.6080	 8.8590
 2.6100	 8.7310
 2.6110	 8.6510
 2.6120	 8.6830
 2.6140	 8.6150
 2.6150	 8.7280
 2.6160	 8.7830
 2.6180	 8.8420
 2.6190	 8.7350
 2.6200	 8.5580
 2.6220	 8.6130
 2.6230	 8.6060
 2.6240	 8.4120
 2.6260	 8.1410
 2.6270	 8.0830
 2.6280	 8.3820
 2.6300	 8.2560
 2.6310	 8.1650
 2.6320	 8.2840
 2.6340	 8.2930
 2.6350	 8.1660
 2.6360	 8.1380
 2.6380	 7.9880
 2.6390	 7.9720
 2.6400	 7.9240
 2.6420	 7.9920
 2.6430	 7.9650
 2.6440	 7.9830
 2.6460	 7.9040
 2.6470	 7.8400
 2.6480	 7.6420
 2.6500	 7.5570
 2.6510	 7.5370
 2.6520	 7.7130
 2.6540	 7.9660
 2.6550	 7.9670
 2.6560	 7.9290
 2.6580	 8.0720
 2.6590	 7.7260
 2.6610	 7.6050
 2.6620	 7.4940
 2.6630	 7.3710
 2.6650	 7.2640
 2.6660	 7.3640
 2.6670	 7.4010
 2.6690	 7.2750
 2.6700	 7.1640
 2.6720	 7.2260
 2.6730	 7.2410
 2.6740	 7.2920
 2.6760	 7.2740
 2.6770	 7.2320
 2.6780	 6.9850
 2.6800	 6.9420
 2.6810	 7.0590
 2.6830	 6.9840
 2.6840	 6.7900
 2.6850	 6.8740
 2.6870	 6.8530
 2.6880	 6.6780
 2.6900	 6.4580
 2.6910	 6.3680
 2.6920	 6.3920
 2.6940	 6.4800
 2.6950	 6.3580
 2.6970	 6.3110
 2.6980	 6.4800
 2.6990	 6.6270
 2.7010	 6.4500
 2.7020	 6.3000
 2.7040	 6.1940
 2.7050	 6.2120
 2.7060	 6.1520
 2.7080	 6.1390
 2.7090	 6.0760
 2.7110	 6.2040
 2.7120	 6.4050
 2.7130	 6.5010
 2.7150	 6.3260
 2.7160	 6.1830
 2.7180	 5.8090
 2.7190	 5.6680
 2.7210	 5.7720
 2.7220	 5.6510
 2.7230	 5.4690
 2.7250	 5.7490
 2.7260	 5.8200
 2.7280	 5.5870
 2.7290	 5.4930
 2.7310	 5.5660
 2.7320	 5.5690
 2.7330	 5.5880
 2.7350	 5.4380
 2.7360	 5.4650
 2.7380	 5.4320
 2.7390	 5.5010
 2.7410	 5.6680
 2.7420	 5.9120
 2.7440	 5.6150
 2.7450	 5.6270
 2.7470	 5.4390
 2.7480	 4.8990
 2.7490	 5.7200
 2.7510	 5.8950
 2.7520	 4.8260
 2.7540	 5.0380
 2.7550	 5.5930
 2.7570	 5.8870
 2.7580	 5.9100
 2.7600	 5.8920
 2.7610	 5.8450
 2.7630	 5.5770
 2.7640	 5.0510
 2.7660	 4.6940
 2.7670	 4.5730
 2.7680	 4.8900
 2.7700	 5.2670
 2.7710	 5.3900
 2.7730	 5.6220
 2.7740	 5.7000
 2.7760	 5.7030
 2.7770	 5.5290
 2.7790	 5.0240
 2.7800	 4.9860
 2.7820	 5.0630
 2.7830	 5.2420
 2.7850	 5.3190
 2.7860	 5.0810
 2.7880	 5.0000
 2.7890	 5.2870
 2.7910	 5.2080
 2.7920	 5.0920
 2.7940	 5.1030
 2.7950	 5.4420
 2.7970	 5.5300
 2.7980	 5.2740
 2.8000	 4.9760
 2.8010	 5.0920
 2.8030	 5.1050
 2.8040	 5.1320
 2.8060	 4.9640
 2.8070	 5.0260
 2.8090	 5.1060
 2.8110	 5.1470
 2.8120	 4.9370
 2.8140	 4.8070
 2.8150	 4.9220
 2.8170	 4.9280
 2.8180	 4.8060
 2.8200	 4.9500
 2.8210	 4.8440
 2.8230	 4.5890
 2.8240	 4.7060
 2.8260	 5.0340
 2.8270	 4.9690
 2.8290	 5.2260
 2.8300	 5.5750
 2.8320	 5.0620
 2.8340	 4.6960
 2.8350	 5.0350
 2.8370	 5.1790
 2.8380	 5.2410
 2.8400	 5.1760
 2.8410	 5.0210
 2.8430	 4.7150
 2.8440	 4.7310
 2.8460	 4.6420
 2.8480	 4.8110
 2.8490	 4.9130
 2.8510	 4.8430
 2.8520	 4.6630
 2.8540	 4.8370
 2.8550	 4.9510
 2.8570	 5.1430
 2.8590	 5.1190
 2.8600	 5.0410
 2.8620	 5.0240
 2.8630	 5.0740
 2.8650	 5.0370
 2.8660	 5.0890
 2.8680	 4.9490
 2.8700	 5.0510
 2.8710	 4.9280
 2.8730	 4.6860
 2.8740	 4.2620
 2.8760	 4.3460
 2.8780	 5.0070
 2.8790	 5.3610
 2.8810	 5.0890
 2.8820	 4.8250
 2.8840	 4.7250
 2.8860	 5.0680
 2.8870	 4.9370
 2.8890	 4.7530
 2.8900	 4.6890
 2.8920	 4.5430
 2.8940	 4.7350
 2.8950	 4.9590
 2.8970	 5.1880
 2.8980	 5.2670
 2.9000	 5.2150
 2.9020	 4.7650
 2.9030	 4.1820
 2.9050	 4.6770
 2.9070	 5.1000
 2.9080	 4.9980
 2.9100	 4.8020
 2.9120	 4.8880
 2.9130	 4.8200
 2.9150	 5.1250
 2.9160	 5.2610
 2.9180	 5.0880
 2.9200	 4.9140
 2.9210	 4.8700
 2.9230	 4.8240
 2.9250	 4.9600
 2.9260	 5.1200
 2.9280	 5.1920
 2.9300	 4.9470
 2.9310	 4.7720
 2.9330	 4.9260
 2.9350	 5.1840
 2.9360	 5.1870
 2.9380	 5.0560
 2.9400	 4.8500
 2.9410	 4.8390
 2.9430	 5.1830
 2.9450	 4.8540
 2.9460	 4.3220
 2.9480	 4.3780
 2.9500	 4.3360
 2.9510	 4.1770
 2.9530	 4.1070
 2.9550	 4.0290
 2.9560	 4.3170
 2.9580	 4.1390
 2.9600	 3.7380
 2.9610	 3.5100
 2.9630	 4.3030
 2.9650	 5.7590
 2.9660	 6.2720
 2.9680	 5.3400
 2.9700	 4.5260
 2.9720	 4.0390
 2.9730	 4.0780
 2.9750	 4.8590
 2.9770	 4.2680
 2.9780	 4.9120
 2.9800	 6.5660
 2.9820	 6.9950
 2.9840	 5.9610
 2.9850	 5.7070
 2.9870	 5.1090
 2.9890	 4.1770
 2.9900	 3.3370
 2.9920	 3.4040
 2.9940	 3.5360
 2.9960	 4.8830
 2.9970	 5.1300
 2.9990	 5.2540
 3.0010	 6.1650
 3.0030	 6.1360
 3.0040	 6.0590
 3.0060	 5.8910
 3.0080	 5.2990
 3.0100	 5.4540
 3.0110	 4.5240
 3.0130	 3.5330
 3.0150	 4.1590
 3.0170	 5.9170
 3.0180	 6.0440
 3.0200	 5.3520
 3.0220	 4.6930
 3.0240	 4.7600
 3.0250	 5.6760
 3.0270	 6.0080
 3.0290	 5.9440
 3.0310	 6.2030
 3.0320	 5.5530
 3.0340	 5.1310
 3.0360	 5.3880
 3.0380	 4.0760
 3.0400	 4.0590
 3.0410	 4.2960
 3.0430	 4.4260
 3.0450	 5.5290
 3.0470	 5.4920
 3.0480	 5.9240
 3.0500	 5.9130
 3.0520	 4.3890
 3.0540	 2.9540
 3.0560	 1.5010
 3.0570	 2.4820
 3.0590	 4.9650
 3.0610	 6.4230
 3.0630	 6.0300
 3.0650	 4.6270
 3.0660	 5.4170
 3.0680	 6.3720
 3.0700	 5.1710
 3.0720	 4.7840
 3.0740	 4.9080
 3.0760	 4.9790
 3.0770	 5.6060
 3.0790	 5.6480
 3.0810	 5.1840
 3.0830	 4.8490
 3.0850	 4.7630
 3.0870	 4.8740
 3.0880	 5.3210
 3.0900	 5.3190
 3.0920	 5.1490
 3.0940	 4.8050
 3.0960	 4.7950
 3.0980	 4.7620
 3.0990	 4.9340
 3.1010	 5.0010
 3.1030	 5.1940
 3.1050	 4.8560
 3.1070	 4.5680
 3.1090	 4.6690
 3.1110	 4.9100
 3.1120	 4.9870
 3.1140	 4.7700
 3.1160	 4.5710
 3.1180	 4.5320
 3.1200	 4.5670
 3.1220	 4.5480
 3.1240	 4.9770
 3.1260	 5.5510
 3.1270	 5.2480
 3.1290	 5.3180
 3.1310	 5.1240
 3.1330	 5.2690
 3.1350	 5.6430
 3.1370	 5.3000
 3.1390	 5.7310
 3.1410	 6.0510
 3.1430	 5.6920
 3.1450	 5.1210
 3.1460	 4.8450
 3.1480	 5.4920
 3.1500	 5.7360
 3.1520	 5.7910
 3.1540	 5.6960
 3.1560	 3.9440
 3.1580	 2.1770
 3.1600	 3.2260
 3.1620	 3.9370
 3.1640	 4.0740
 3.1660	 5.1440
 3.1680	 6.4330
 3.1700	 4.4620
 3.1710	 3.9750
 3.1730	 4.7340
 3.1750	 4.2040
 3.1770	 3.0360
 3.1790	 2.9210
 3.1810	 4.2760
 3.1830	 4.6010
 3.1850	 4.7840
 3.1870	 4.9060
 3.1890	 5.3600
 3.1910	 5.6450
 3.1930	 5.0600
 3.1950	 4.5420
 3.1970	 4.5480
 3.1990	 4.8050
 3.2010	 5.1100
 3.2030	 5.2500
 3.2050	 4.9720
 3.2070	 4.7450
 3.2090	 4.6500
 3.2110	 4.6290
 3.2130	 4.5340
 3.2150	 4.7930
 3.2170	 4.9490
 3.2190	 4.9820
 3.2210	 4.8370
 3.2230	 4.5670
 3.2250	 4.7440
 3.2270	 5.0540
 3.2290	 5.4130
 3.2310	 5.4720
 3.2330	 5.2850
 3.2350	 4.9750
 3.2370	 4.7240
 3.2390	 4.5540
 3.2410	 4.6770
 3.2430	 4.9810
 3.2450	 5.3780
 3.2470	 5.1750
 3.2490	 4.7360
 3.2510	 4.8160
 3.2530	 4.8210
 3.2550	 4.1520
 3.2570	 4.0470
 3.2590	 4.2060
 3.2610	 4.0390
 3.2630	 4.4630
 3.2650	 4.7820
 3.2670	 4.6560
 3.2690	 4.6190
 3.2720	 4.6510
 3.2740	 4.7610
 3.2760	 4.7580
 3.2780	 4.7400
 3.2800	 5.2210
 3.2820	 5.4100
 3.2840	 4.9150
 3.2860	 4.5940
 3.2880	 4.4850
 3.2900	 4.8750
 3.2920	 5.0960
 3.2940	 4.8700
 3.2960	 4.9890
 3.2990	 5.0740
 3.3010	 4.9000
 3.3030	 4.8560
 3.3050	 5.2770
 3.3070	 5.1630
 3.3090	 4.7830
 3.3110	 4.7350
 3.3130	 4.8910
 3.3150	 4.9980
 3.3180	 5.0740
 3.3200	 4.7620
 3.3220	 4.7460
 3.3240	 4.8380
 3.3260	 5.1140
 3.3280	 5.0750
 3.3300	 4.6470
 3.3330	 4.5390
 3.3350	 4.6580
 3.3370	 4.5830
 3.3390	 4.7100
 3.3410	 4.9750
 3.3430	 4.9340
 3.3450	 4.5610
 3.3480	 4.4260
 3.3500	 4.6010
 3.3520	 4.7160
 3.3540	 4.6260
 3.3560	 4.4460
 3.3580	 4.3700
 3.3610	 4.3940
 3.3630	 4.3760
 3.3650	 4.5550
 3.3670	 4.5510
 3.3690	 4.5110
 3.3720	 4.6280
 3.3740	 4.7650
 3.3760	 4.7020
 3.3780	 4.6570
 3.3800	 4.6940
 3.3830	 4.5570
 3.3850	 4.5820
 3.3870	 4.7860
 3.3890	 4.8100
 3.3910	 4.5020
 3.3940	 4.5350
 3.3960	 4.7970
 3.3980	 4.8100
 3.4000	 4.7230
 3.4020	 4.6670
 3.4050	 4.7420
 3.4070	 4.7990
 3.4090	 4.8760
 3.4110	 4.9990
 3.4140	 5.0350
 3.4160	 5.1510
 3.4180	 5.3020
 3.4200	 5.3220
 3.4230	 5.4820
 3.4250	 5.6410
 3.4270	 5.8500
 3.4290	 6.1200
 3.4320	 6.1270
 3.4340	 5.8190
 3.4360	 5.5610
 3.4390	 5.5900
 3.4410	 5.4930
 3.4430	 5.5020
 3.4450	 5.7730
 3.4480	 5.7420
 3.4500	 5.6800
 3.4520	 5.4970
 3.4550	 5.3190
 3.4570	 5.3170
 3.4590	 5.2820
 3.4620	 5.2210
 3.4640	 5.2900
 3.4660	 5.0900
 3.4680	 4.9810
 3.4710	 5.0430
 3.4730	 5.3470
 3.4750	 5.3480
 3.4780	 5.3030
 3.4800	 5.1940
 3.4820	 5.0660
 3.4850	 5.0830
 3.4870	 5.2620
 3.4890	 5.3200
 3.4920	 5.3000
 3.4940	 5.3790
 3.4970	 5.3450
 3.4990	 5.2310
 3.5010	 5.2470
 3.5040	 5.4800
 3.5060	 5.9060
 3.5080	 6.0610
 3.5110	 5.9080
 3.5130	 5.7850
 3.5160	 5.5850
 3.5180	 5.4320
 3.5200	 5.6300
 3.5230	 5.5850
 3.5250	 5.5950
 3.5270	 5.6990
 3.5300	 5.5730
 3.5320	 5.3710
 3.5350	 5.2720
 3.5370	 5.2700
 3.5400	 5.5070
 3.5420	 5.5580
 3.5440	 5.4860
 3.5470	 5.6550
 3.5490	 5.6740
 3.5520	 5.4660
 3.5540	 5.4760
 3.5570	 5.5760
 3.5590	 5.7280
 3.5610	 5.6730
 3.5640	 5.4790
 3.5660	 5.5040
 3.5690	 5.4910
 3.5710	 5.4690
 3.5740	 5.6020
 3.5760	 5.5810
 3.5790	 5.5150
 3.5810	 5.4370
 3.5840	 5.2870
 3.5860	 5.4060
 3.5890	 5.5680
 3.5910	 5.3370
 3.5930	 5.1510
 3.5960	 5.0520
 3.5980	 5.2730
 3.6010	 5.8550
 3.6030	 5.9350
 3.6060	 5.4670
 3.6080	 5.2340
 3.6110	 5.2900
 3.6140	 5.3990
 3.6160	 5.4780
 3.6190	 5.5450
 3.6210	 5.5500
 3.6240	 5.6190
 3.6260	 5.6620
 3.6290	 5.8470
 3.6310	 5.7780
 3.6340	 5.7670
 3.6360	 5.6920
 3.6390	 5.5880
 3.6410	 5.6290
 3.6440	 5.7190
 3.6470	 5.6310
 3.6490	 5.6050
 3.6520	 5.6940
 3.6540	 5.7410
 3.6570	 5.7510
 3.6590	 5.7000
 3.6620	 5.5540
 3.6650	 5.6450
 3.6670	 5.8500
 3.6700	 5.8200
 3.6720	 5.6360
 3.6750	 5.5740
 3.6780	 5.5880
 3.6800	 5.5760
 3.6830	 5.5900
 3.6850	 5.6710
 3.6880	 5.7290
 3.6910	 5.7380
 3.6930	 5.6200
 3.6960	 5.5630
 3.6990	 5.6650
 3.7010	 5.7240
 3.7040	 5.6830
 3.7060	 5.6210
 3.7090	 5.6670
 3.7120	 5.9060
 3.7140	 5.9480
 3.7170	 5.8230
 3.7200	 5.8590
 3.7220	 6.0050
 3.7250	 6.0430
 3.7280	 5.9820
 3.7300	 5.9570
 3.7330	 6.0380
 3.7360	 6.0410
 3.7390	 6.0040
 3.7410	 5.9960
 3.7440	 5.9650
 3.7470	 5.9530
 3.7490	 6.1110
 3.7520	 6.2220
 3.7550	 6.0800
 3.7580	 5.7970
 3.7600	 5.8340
 3.7630	 6.0090
 3.7660	 6.0280
 3.7680	 5.9910
 3.7710	 5.8290
 3.7740	 5.7430
 3.7770	 5.9960
 3.7790	 6.1000
 3.7820	 5.9480
 3.7850	 5.8710
 3.7880	 5.9490
 3.7900	 6.0490
 3.7930	 6.0400
 3.7960	 5.9970
 3.7990	 5.9850
 3.8020	 5.9370
 3.8040	 5.9800
 3.8070	 6.0120
 3.8100	 5.9840
 3.8130	 6.0210
 3.8160	 6.0930
 3.8180	 6.0980
 3.8210	 6.0720
 3.8240	 6.0020
 3.8270	 6.0020
 3.8300	 5.9840
 3.8330	 5.9510
 3.8350	 5.9780
 3.8380	 5.9850
 3.8410	 5.9740
 3.8440	 5.8720
 3.8470	 5.9630
 3.8500	 6.0770
 3.8520	 6.1800
 3.8550	 6.1760
 3.8580	 5.9740
 3.8610	 5.9040
 3.8640	 6.0200
 3.8670	 6.1470
 3.8700	 6.1040
 3.8730	 6.0620
 3.8750	 6.1020
 3.8780	 6.1430
 3.8810	 6.0910
 3.8840	 6.0910
 3.8870	 6.1550
 3.8900	 6.1700
 3.8930	 6.2070
 3.8960	 6.2510
 3.8990	 6.1870
 3.9020	 6.1190
 3.9050	 6.1300
 3.9080	 6.2310
 3.9110	 6.2800
 3.9140	 6.2710
 3.9160	 6.2330
 3.9190	 6.2070
 3.9220	 6.1550
 3.9250	 6.1850
 3.9280	 6.2630
 3.9310	 6.2580
 3.9340	 6.1360
 3.9370	 6.2820
 3.9400	 6.3550
 3.9430	 6.2550
 3.9460	 6.2150
 3.9490	 6.2460
 3.9520	 6.2670
 3.9550	 6.2700
 3.9580	 6.2070
 3.9610	 6.1880
 3.9640	 6.1810
 3.9670	 6.2180
 3.9700	 6.3280
 3.9730	 6.3860
 3.9770	 6.2870
 3.9800	 6.2300
 3.9830	 6.2540
 3.9860	 6.2720
 3.9890	 6.2930
 3.9920	 6.3340
 3.9950	 6.3120
 3.9980	 6.2340
 4.0010	 6.2710
 4.0040	 6.3570
 4.0070	 6.3230
 4.0100	 6.2210
 4.0130	 6.1520
 4.0170	 6.2100
 4.0200	 6.2570
 4.0230	 6.2390
 4.0260	 6.2490
 4.0290	 6.2560
 4.0320	 6.3060
 4.0350	 6.3020
 4.0380	 6.2540
 4.0420	 6.2120
 4.0450	 6.1390
 4.0480	 6.0920
 4.0510	 6.1090
 4.0540	 6.1290
 4.0570	 6.2360
 4.0610	 6.3880
 4.0640	 6.3840
 4.0670	 6.3810
 4.0700	 6.3140
 4.0730	 6.1260
 4.0770	 6.2580
 4.0800	 6.2380
 4.0830	 6.2280
 4.0860	 6.3620
 4.0890	 6.3150
 4.0930	 6.2840
 4.0960	 6.1850
 4.0990	 6.2090
 4.1020	 6.5140
 4.1060	 6.5830
 4.1090	 6.4620
 4.1120	 6.3370
 4.1150	 6.3590
 4.1190	 6.4010
 4.1220	 6.4200
 4.1250	 6.3830
 4.1280	 6.3000
 4.1320	 6.3040
 4.1350	 6.2830
 4.1380	 6.2580
 4.1420	 6.2780
 4.1450	 6.2500
 4.1480	 6.2370
 4.1520	 6.2590
 4.1550	 6.2230
 4.1580	 6.1720
 4.1620	 6.1660
 4.1650	 6.1950
 4.1680	 6.1570
 4.1720	 6.1360
 4.1750	 6.2310
 4.1780	 6.3240
 4.1820	 6.2560
 4.1850	 6.2450
 4.1890	 6.2730
 4.1920	 6.2430
 4.1950	 6.2950
 4.1990	 6.3450
 4.2020	 6.5240
 4.2060	 6.5780
 4.2090	 6.2780
 4.2120	 6.1420
 4.2160	 6.3540
 4.2190	 6.3330
 4.2230	 6.5390
 4.2260	 6.8980
 4.2300	 6.7250
 4.2330	 6.5050
 4.2360	 6.1770
 4.2400	 5.8330
 4.2430	 6.4970
 4.2470	 7.2070
 4.2500	 6.6410
 4.2540	 6.3850
 4.2570	 7.0060
 4.2610	 6.9370
 4.2640	 6.2850
 4.2680	 6.4270
 4.2710	 6.4500
 4.2750	 6.5000
 4.2780	 6.4830
 4.2820	 6.3400
 4.2850	 6.2640
 4.2890	 6.1480
 4.2930	 6.1670
 4.2960	 6.2130
 4.3000	 6.3860
 4.3030	 6.4790
 4.3070	 6.2660
 4.3100	 6.0940
 4.3140	 6.0030
 4.3180	 6.1470
 4.3210	 6.1930
 4.3250	 6.0850
 4.3280	 5.9800
 4.3320	 5.9810
 4.3360	 5.9700
 4.3390	 5.9660
 4.3430	 5.9220
 4.3470	 6.0530
 4.3500	 6.0230
 4.3540	 5.9690
 4.3570	 6.0150
 4.3610	 5.9020
 4.3650	 5.9190
 4.3680	 5.9470
 4.3720	 5.8790
 4.3760	 5.8850
 4.3800	 5.8840
 4.3830	 5.8350
 4.3870	 5.7870
 4.3910	 5.9000
 4.3940	 5.9250
 4.3980	 5.8460
 4.4020	 5.7740
 4.4060	 5.7190
 4.4090	 5.8600
 4.4130	 5.8780
 4.4170	 5.7930
 4.4210	 5.7990
 4.4240	 5.8460
 4.4280	 5.8660
 4.4320	 5.9150
 4.4360	 5.8900
 4.4400	 5.8850
 4.4430	 5.9220
 4.4470	 5.8280
 4.4510	 5.6960
 4.4550	 5.7390
 4.4590	 5.8210
 4.4620	 5.8440
 4.4660	 5.8200
 4.4700	 5.7770
 4.4740	 5.7570
 4.4780	 5.7910
 4.4820	 5.8130
 4.4860	 5.7540
 4.4900	 5.7420
 4.4930	 5.7270
 4.4970	 5.6550
 4.5010	 5.6350
 4.5050	 5.6330
 4.5090	 5.6600
 4.5130	 5.6580
 4.5170	 5.6000
 4.5210	 5.6590
 4.5250	 5.7700
 4.5290	 5.7060
 4.5330	 5.7040
 4.5370	 5.6460
 4.5410	 5.6260
 4.5450	 5.6370
 4.5490	 5.6110
 4.5530	 5.5840
 4.5570	 5.6140
 4.5610	 5.7330
 4.5650	 5.7500
 4.5690	 5.6400
 4.5730	 5.6130
 4.5770	 5.6280
 4.5810	 5.6750
 4.5850	 5.5640
 4.5890	 5.4810
 4.5930	 5.5290
 4.5970	 5.6840
 4.6010	 5.6870
 4.6050	 5.6200
 4.6090	 5.6090
 4.6130	 5.7530
 4.6170	 5.7990
 4.6220	 5.6280
 4.6260	 5.4830
 4.6300	 5.5130
 4.6340	 5.5870
 4.6380	 5.5480
 4.6420	 5.4270
 4.6460	 5.3460
 4.6510	 5.3590
 4.6550	 5.5110
 4.6590	 5.6210
 4.6630	 5.6450
 4.6670	 5.6110
 4.6720	 5.6710
 4.6760	 5.5850
 4.6800	 5.4760
 4.6840	 5.4330
 4.6880	 5.4520
 4.6930	 5.4820
 4.6970	 5.5030
 4.7010	 5.5170
 4.7050	 5.5290
 4.7100	 5.4460
 4.7140	 5.4750
 4.7180	 5.6080
 4.7230	 5.6290
 4.7270	 5.6050
 4.7310	 5.5790
 4.7360	 5.5440
 4.7400	 5.6080
 4.7440	 5.6570
 4.7490	 5.6160
 4.7530	 5.5530
 4.7570	 5.5360
 4.7620	 5.5200
 4.7660	 5.4760
 4.7700	 5.4940
 4.7750	 5.5600
 4.7790	 5.6080
 4.7840	 5.7380
 4.7880	 5.8250
 4.7920	 5.7250
 4.7970	 5.7220
 4.8010	 5.5320
 4.8060	 5.4920
 4.8100	 5.5430
 4.8150	 5.4930
 4.8190	 5.5970
 4.8240	 5.6120
 4.8280	 5.4080
 4.8330	 5.3240
 4.8370	 5.4370
 4.8420	 5.4820
 4.8460	 5.4990
 4.8510	 5.4780
 4.8550	 5.4890
 4.8600	 5.5110
 4.8640	 5.5540
 4.8690	 5.5340
 4.8730	 5.5380
 4.8780	 5.5240
 4.8830	 5.4980
 4.8870	 5.5230
 4.8920	 5.5470
 4.8960	 5.5400
 4.9010	 5.4680
 4.9060	 5.4560
 4.9100	 5.5630
 4.9150	 5.5990
 4.9200	 5.6120
 4.9240	 5.5710
 4.9290	 5.5550
 4.9340	 5.4750
 4.9380	 5.5310
 4.9430	 5.6300
 4.9480	 5.6650
 4.9530	 5.6610
 4.9570	 5.6250
 4.9620	 5.5890
 4.9670	 5.6650
 4.9720	 5.7230
 4.9760	 5.6600
 4.9810	 5.5660
 4.9860	 5.6320
 4.9910	 5.6240
 4.9960	 5.6240
 5.0000	 5.6400
 5.0050	 5.6340
 5.0100	 5.6560
 5.0150	 5.7240
 5.0200	 5.6480
 5.0250	 5.6410
 5.0290	 5.6520
 5.0340	 5.5730
 5.0390	 5.6070
 5.0440	 5.6370
 5.0490	 5.6270
 5.0540	 5.6540
 5.0590	 5.6830
 5.0640	 5.6260
 5.0690	 5.5930
 5.0740	 5.6880
 5.0790	 5.6550
 5.0840	 5.6810
 5.0890	 5.7060
 5.0940	 5.6930
 5.0990	 5.6640
 5.1040	 5.7290
 5.1090	 5.6480
 5.1140	 5.6050
 5.1190	 5.6640
 5.1240	 5.7970
 5.1290	 5.7340
 5.1340	 5.6830
 5.1390	 5.7610
 5.1440	 5.8430
 5.1490	 5.7860
 5.1540	 5.7530
 5.1600	 5.6740
 5.1650	 5.6280
 5.1700	 5.6650
 5.1750	 5.8010
 5.1800	 5.8640
 5.1850	 5.7530
 5.1910	 5.6370
 5.1960	 5.6670
 5.2010	 5.6910
 5.2060	 5.7750
 5.2110	 5.6490
 5.2170	 5.5960
 5.2220	 5.6620
 5.2270	 5.7840
 5.2320	 5.7290
 5.2380	 5.5910
 5.2430	 5.5870
 5.2480	 5.6390
 5.2540	 5.6960
 5.2590	 5.8390
 5.2640	 5.8540
 5.2700	 5.8160
 5.2750	 5.7680
 5.2800	 5.8170
 5.2860	 5.8150
 5.2910	 5.7310
 5.2970	 5.6550
 5.3020	 5.7560
 5.3070	 5.7630
 5.3130	 5.7410
 5.3180	 5.7480
 5.3240	 5.7280
 5.3290	 5.6170
 5.3350	 5.6370
 5.3400	 5.7390
 5.3460	 5.7480
 5.3510	 5.6730
 5.3570	 5.7210
 5.3620	 5.7220
 5.3680	 5.6570
 5.3730	 5.5300
 5.3790	 5.5510
 5.3850	 5.5490
 5.3900	 5.5510
 5.3960	 5.5160
 5.4010	 5.5760
 5.4070	 5.6130
 5.4130	 5.6750
 5.4180	 5.6360
 5.4240	 5.5770
 5.4300	 5.4910
 5.4350	 5.4590
 5.4410	 5.3780
 5.4470	 5.3860
 5.4530	 5.4420
 5.4580	 5.4220
 5.4640	 5.3000
 5.4700	 5.3700
 5.4760	 5.4120
 5.4810	 5.3440
 5.4870	 5.2840
 5.4930	 5.3190
 5.4990	 5.3010
 5.5050	 5.2210
 5.5110	 5.1200
 5.5160	 5.2050
 5.5220	 5.2230
 5.5280	 5.1960
 5.5340	 5.1220
 5.5400	 5.1070
 5.5460	 5.0860
 5.5520	 4.9860
 5.5580	 4.8850
 5.5640	 4.9680
 5.5700	 4.9420
 5.5760	 4.9210
 5.5820	 4.8270
 5.5880	 4.8130
 5.5940	 4.8110
 5.6000	 4.8260
 5.6060	 4.6600
 5.6120	 4.6050
 5.6180	 4.6250
 5.6240	 4.6570
 5.6300	 4.7000
 5.6360	 4.6630
 5.6420	 4.5050
 5.6490	 4.4740
 5.6550	 4.5370
 5.6610	 4.6650
 5.6670	 4.5310
 5.6730	 4.4550
 5.6800	 4.5140
 5.6860	 4.4780
 5.6920	 4.2830
 5.6980	 4.2420
 5.7040	 4.2720
 5.7110	 4.3150
 5.7170	 4.3470
 5.7230	 4.3440
 5.7300	 4.2660
 5.7360	 4.3210
 5.7420	 4.2680
 5.7490	 4.2540
 5.7550	 4.3270
 5.7620	 4.4330
 5.7680	 4.4870
 5.7740	 4.6410
 5.7810	 4.6670
 5.7870	 4.6650
 5.7940	 4.6430
 5.8000	 4.7170
 5.8070	 4.6370
 5.8130	 4.6960
 5.8200	 4.7970
 5.8260	 4.8210
 5.8330	 4.7790
 5.8390	 4.8630
 5.8460	 4.8540
 5.8530	 4.8940
 5.8590	 4.9370
 5.8660	 4.9340
 5.8720	 4.8270
 5.8790	 4.8120
 5.8860	 4.7640
 5.8920	 4.7910
 5.8990	 4.7790
 5.9060	 4.8680
 5.9130	 4.8310
 5.9190	 4.8450
 5.9260	 4.8670
 5.9330	 4.7980
 5.9400	 4.8140
 5.9470	 4.9600
 5.9530	 4.9890
 5.9600	 5.0400
 5.9670	 5.0340
 5.9740	 5.0440
 5.9810	 4.9370
 5.9880	 4.9430
 5.9950	 4.9230
 6.0020	 4.9850
 6.0090	 4.8920
 6.0160	 4.9150
 6.0230	 4.9170
 6.0300	 4.9240
 6.0370	 4.8930
 6.0440	 4.8410
 6.0510	 4.8300
 6.0580	 5.0350
 6.0650	 5.0810
 6.0720	 5.1180
 6.0790	 4.9900
 6.0860	 4.9470
 6.0930	 4.9640
 6.1000	 5.0870
 6.1080	 5.0530
 6.1150	 5.0560
 6.1220	 5.0310
 6.1290	 5.0640
 6.1370	 4.9380
 6.1440	 4.9340
 6.1510	 4.9290
 6.1580	 4.9690
 6.1660	 4.9200
 6.1730	 4.9490
 6.1800	 4.9210
 6.1880	 4.8770
 6.1950	 4.7950
 6.2030	 4.9220
 6.2100	 5.0370
 6.2170	 5.0810
 6.2250	 4.9530
 6.2320	 4.9860
 6.2400	 4.9470
 6.2470	 4.9660
 6.2550	 4.9860
 6.2630	 5.0200
 6.2700	 4.9260
 6.2780	 4.9230
 6.2850	 4.9060
 6.2930	 4.9280
 6.3010	 4.8810
 6.3080	 4.9440
 6.3160	 4.9020
 6.3240	 4.9110
 6.3310	 4.8010
 6.3390	 4.8900
 6.3470	 4.9500
 6.3550	 5.0070
 6.3620	 4.8940
 6.3700	 4.9340
 6.3780	 4.9160
 6.3860	 4.9600
 6.3940	 5.0040
 6.4020	 5.0540
 6.4100	 4.8260
 6.4180	 4.8000
 6.4260	 4.8220
 6.4330	 4.9090
 6.4410	 4.9230
 6.4490	 4.9070
 6.4580	 4.7990
 6.4660	 4.8840
 6.4740	 4.8740
 6.4820	 4.8220
 6.4900	 4.6490
 6.4980	 4.6830
 6.5060	 4.7140
 6.5140	 4.7780
 6.5230	 4.7290
 6.5310	 4.7950
 6.5390	 4.6800
 6.5470	 4.6490
 6.5550	 4.5980
 6.5640	 4.7160
 6.5720	 4.6980
 6.5800	 4.7330
 6.5890	 4.6750
 6.5970	 4.6940
 6.6060	 4.6600
 6.6140	 4.6920
 6.6220	 4.6470
 6.6310	 4.6730
 6.6390	 4.6250
 6.6480	 4.6810
 6.6560	 4.7190
 6.6650	 4.7010
 6.6740	 4.4790
 6.6820	 4.4480
 6.6910	 4.4450
 6.6990	 4.5690
 6.7080	 4.5610
 6.7170	 4.5420
 6.7260	 4.4480
 6.7340	 4.5100
 6.7430	 4.4610
 6.7520	 4.4640
 6.7610	 4.4040
 6.7690	 4.4520
 6.7780	 4.3670
 6.7870	 4.5000
 6.7960	 4.5280
 6.8050	 4.5720
 6.8140	 4.5700
 6.8230	 4.5900
 6.8320	 4.6130
 6.8410	 4.7790
 6.8500	 4.7500
 6.8590	 4.7000
 6.8680	 4.5600
 6.8770	 4.6490
 6.8860	 4.7700
 6.8950	 4.7950
 6.9050	 4.6570
 6.9140	 4.7660
 6.9230	 4.7460
 6.9320	 4.6800
 6.9420	 4.6570
 6.9510	 4.8000
 6.9600	 4.7480
 6.9700	 4.8460
 6.9790	 4.8850
 6.9880	 4.9250
 6.9980	 4.8210
 7.0070	 4.8300
 7.0170	 4.7970
 7.0260	 4.8240
 7.0360	 4.7490
 7.0450	 4.7360
 7.0550	 4.8430
 7.0650	 5.0330
 7.0740	 4.9070
 7.0840	 4.8280
 7.0940	 4.8120
 7.1030	 4.8840
 7.1130	 4.7870
 7.1230	 4.7960
 7.1330	 4.7150
 7.1420	 4.6830
 7.1520	 4.6810
 7.1620	 4.6950
 7.1720	 4.5710
 7.1820	 4.6570
 7.1920	 4.5980
 7.2020	 4.6360
 7.2120	 4.5790
 7.2220	 4.6410
 7.2320	 4.6180
 7.2420	 4.7540
 7.2520	 4.7750
 7.2620	 4.8430
 7.2730	 4.7950
 7.2830	 4.8560
 7.2930	 4.8140
 7.3030	 4.9420
 7.3140	 4.9270
 7.3240	 4.8370
 7.3340	 4.6990
 7.3450	 4.7970
 7.3550	 4.8250
 7.3660	 4.8500
 7.3760	 4.7040
 7.3870	 4.7460
 7.3970	 4.7660
 7.4080	 4.8330
 7.4180	 4.8230
 7.4290	 4.8630
 7.4400	 4.6800
 7.4500	 4.7250
 7.4610	 4.6760
 7.4720	 4.6930
 7.4830	 4.6540
 7.4930	 4.7680
 7.5040	 4.6300
 7.5150	 4.7550
 7.5260	 4.7510
 7.5370	 4.7280
 7.5480	 4.5840
 7.5590	 4.6130
 7.5700	 4.6070
 7.5810	 4.6340
 7.5920	 4.5100
 7.6030	 4.6120
 7.6140	 4.5410
 7.6260	 4.5660
 7.6370	 4.5630
 7.6480	 4.5530
 7.6590	 4.4550
 7.6710	 4.5250
 7.6820	 4.4910
 7.6930	 4.6530
 7.7050	 4.6600
 7.7160	 4.6700
 7.7280	 4.5070
 7.7390	 4.5440
 7.7510	 4.5270
 7.7630	 4.6510
 7.7740	 4.5310
 7.7860	 4.5620
 7.7980	 4.5970
 7.8090	 4.7020
 7.8210	 4.6380
 7.8330	 4.6080
 7.8450	 4.5870
 7.8570	 4.7350
 7.8690	 4.6470
 7.8810	 4.6180
 7.8930	 4.5090
 7.9050	 4.5740
 7.9170	 4.5360
 7.9290	 4.7440
 7.9410	 4.8220
 7.9530	 4.8740
 7.9650	 4.6930
 7.9780	 4.6760
 7.9900	 4.6010
 8.0020	 4.7670
 8.0150	 4.6870
 8.0270	 4.6860
 8.0390	 4.6350
 8.0520	 4.8130
 8.0640	 4.7850
 8.0770	 4.9490
 8.0900	 4.9130
 8.1020	 4.9320
 8.1150	 4.8330
 8.1280	 4.8130
 8.1400	 4.6030
 8.1530	 4.7480
 8.1660	 4.7990
 8.1790	 4.9460
 8.1920	 4.7880
 8.2050	 4.7260
 8.2180	 4.5420
 8.2310	 4.7090
 8.2440	 4.6430
 8.2570	 4.8510
 8.2700	 4.7440
 8.2830	 4.7560
 8.2970	 4.6870
 8.3100	 4.7600
 8.3230	 4.5730
 8.3370	 4.7380
 8.3500	 4.8070
 8.3640	 4.9400
 8.3770	 4.7890
 8.3910	 4.7360
 8.4040	 4.7080
 8.4180	 4.8260
 8.4320	 4.7770
 8.4450	 5.0670
 8.4590	 4.7860
 8.4730	 4.7700
 8.4870	 4.6050
 8.5010	 4.6310
 8.5150	 4.6690
 8.5290	 4.8620
 8.5430	 4.8130
 8.5570	 5.0910
 8.5710	 5.0670
 8.5850	 5.0840
 8.5990	 4.9180
 8.6140	 5.0450
 8.6280	 5.0770
 8.6420	 5.3240
 8.6570	 5.2270
 8.6710	 5.3060
 8.6860	 5.1520
 8.7000	 5.3370
 8.7150	 5.3320
 8.7300	 5.6020
 8.7440	 5.3690
 8.7590	 5.2540
 8.7740	 5.2430
 8.7890	 5.5050
 8.8040	 5.3430
 8.8190	 5.3280
 8.8340	 5.1400
 8.8490	 5.2170
 8.8640	 5.0410
 8.8790	 5.1580
 8.8940	 5.0850
 8.9100	 5.2610
 8.9250	 5.1250
 8.9400	 5.1240
 8.9560	 4.9440
 8.9710	 5.1960
 8.9870	 5.2510
 9.0020	 5.2890
 9.0180	 5.1140
 9.0340	 5.2820
 9.0500	 5.2280
 9.0650	 5.3470
 9.0810	 5.3710
 9.0970	 5.4970
 9.1130	 5.3190
 9.1290	 5.3640
 9.1450	 5.1670
 9.1610	 5.3270
 9.1780	 5.2810
 9.1940	 5.3980
 9.2100	 5.3270
 9.2270	 5.4670
 9.2430	 5.3040
 9.2600	 5.3300
 9.2760	 5.1500
 9.2930	 5.3710
 9.3090	 5.2140
 9.3260	 5.3600
 9.3430	 5.2510
 9.3600	 5.4370
 9.3770	 5.3970
 9.3940	 5.4570
 9.4110	 5.1370
 9.4280	 5.2990
 9.4450	 5.2490
 9.4620	 5.4480
 9.4800	 5.4080
 9.4970	 5.5590
 9.5140	 5.3000
 9.5320	 5.4840
 9.5500	 5.3690
 9.5670	 5.4850
 9.5850	 5.2850
 9.6030	 5.4450
 9.6200	 5.4210
 9.6380	 5.3810
 9.6560	 5.2420
 9.6740	 5.5440
 9.6920	 5.4740
 9.7100	 5.5910
 9.7290	 5.5040
 9.7470	 5.7220
 9.7650	 5.4890
 9.7840	 5.6310
 9.8020	 5.4990
 9.8210	 5.5820
 9.8390	 5.4810
 9.8580	 5.7010
 9.8770	 5.7410
 9.8960	 5.9760
 9.9150	 5.7720
 9.9340	 5.7630
 9.9530	 5.7330
 9.9720	 5.9480
 9.9910	 5.6850
10.0100	 5.6750
10.0300	 5.6440
10.0490	 5.8460
10.0690	 5.7670
10.0880	 5.7400
10.1080	 5.5150
10.1280	 5.5930
10.1480	 5.4810
10.1670	 5.3390
10.1870	 5.2500
10.2070	 5.6990
10.2280	 5.6210
10.2480	 5.7320
10.2680	 5.6640
10.2890	 5.8600
10.3090	 5.6870
10.3300	 5.6310
10.3500	 5.4140
10.3710	 5.6450
10.3920	 5.5120
10.4120	 5.5970
10.4330	 5.4490
10.4540	 5.5650
10.4760	 5.4120
10.4970	 5.5680
10.5180	 5.3810
10.5390	 5.6230
10.5610	 5.4600
10.5820	 5.5630
10.6040	 5.5310
10.6260	 5.6160
10.6480	 5.5870
10.6700	 5.7030
10.6920	 5.3850
10.7140	 5.4180
10.7360	 5.3880
10.7580	 5.6040
10.7800	 5.5420
10.8030	 5.7910
10.8250	 5.5910
10.8480	 5.5490
10.8710	 5.3960
10.8940	 5.5260
10.9170	 5.4150
10.9400	 5.6630
10.9630	 5.5980
10.9860	 5.6070
11.0090	 5.2640
11.0330	 5.4360
11.0560	 5.4410
11.0800	 5.5940
11.1040	 5.3530
11.1270	 5.6660
11.1510	 5.5270
11.1750	 5.6250
11.2000	 5.2890
11.2240	 5.5490
11.2480	 5.4050
11.2730	 5.3260
11.2970	 5.1330
11.3220	 5.6040
11.3470	 5.4520
11.3720	 5.6290
11.3970	 5.5210
11.4220	 5.7370
11.4470	 5.5160
11.4720	 5.6440
11.4980	 5.5130
11.5230	 5.7600
11.5490	 5.5940
11.5750	 5.6440
11.6000	 5.1570
11.6260	 5.2650
11.6530	 5.3460
11.6790	 5.6710
11.7050	 5.4350
11.7320	 5.4550
11.7580	 5.1190
11.7850	 5.1960
11.8120	 5.0730
11.8390	 5.4890
11.8660	 5.5320
11.8930	 5.7140
11.9200	 5.5670
11.9480	 5.7080
11.9760	 5.3480
12.0030	 5.5150
12.0310	 5.5330
12.0590	 5.7990
12.0870	 5.3300
12.1150	 5.3510
12.1440	 5.3080
12.1720	 5.6640
12.2010	 5.5030
12.2300	 5.5920
12.2590	 5.2330
12.2880	 5.4370
12.3170	 5.3000
12.3460	 5.5760
12.3760	 5.4580
12.4050	 5.4780
12.4350	 5.2590
12.4650	 5.6810
12.4950	 5.4940
12.5250	 5.6400
12.5550	 5.3990
12.5860	 5.6200
12.6170	 5.4400
12.6470	 5.6370
12.6780	 5.4390
12.7090	 5.6390
12.7410	 5.3360
12.7720	 5.6750
12.8030	 5.5960
12.8350	 5.7580
12.8670	 5.4960
12.8990	 5.6850
12.9310	 5.3210
12.9640	 5.5680
12.9960	 5.4420
13.0290	 5.7800
13.0610	 5.4120
13.0940	 5.5690
13.1280	 5.5700
13.1610	 5.8850
13.1940	 5.5700
13.2280	 5.8260
13.2620	 5.3840
13.2960	 5.4830
13.3300	 5.3430
13.3640	 5.6490
13.3990	 5.4420
13.4340	 5.6110
13.4690	 5.0230
13.5040	 5.0330
13.5390	 4.9680
13.5740	 5.4220
13.6100	 4.9170
13.6460	 5.2300
13.6820	 5.2370
13.7180	 5.7010
13.7540	 5.0600
13.7910	 5.2000
13.8280	 5.1590
13.8650	 5.5070
13.9020	 5.1660
13.9390	 5.3760
13.9770	 4.9320
14.0150	 5.3860
14.0530	 5.2280
14.0910	 5.5760
14.1290	 5.4480
14.1680	 5.9290
14.2070	 5.7560
14.2460	 5.9850
14.2850	 5.4710
14.3240	 5.5990
14.3640	 5.1190
14.4040	 5.6710
14.4440	 5.2710
14.4840	 5.6440
14.5250	 5.1290
14.5660	 5.5130
14.6070	 5.5920
14.6480	 6.3740
14.6900	 5.4990
14.7310	 5.8030
14.7730	 5.4000
14.8150	 6.1840
14.8580	 5.9050
14.9010	 6.2960
14.9440	 5.5870
14.9870	 6.5430
15.0300	 5.5970
15.0740	 5.3700
15.1180	 4.3590
15.1620	 4.9860
15.2060	 4.5130
15.2510	 5.3140
15.2960	 4.6340
15.3410	 5.3020
15.3870	 4.4800
