Name: Quercus douglasii 3
Type: vegetation
Class: Tree
Genus: Quercus
Species: douglasii
Sample No.: VH177
Owner: UCSB
Wavelength Range: TIR
Origin: 34.7165; -120.0605; WGS84
Collection Date: 6/9/2013
Description: Samples were collected as part of the HyspIRI Airborne Campaign. 48 individual plants were sampled in three times in 2013 - spring  summer  and fall. The name of the sample includes a 1  2  or 3 which references a different individual of the species. Samples were taken to JPL and processed within 48 hours of collection. The same leaves were processed in the Nicolet and then measured using the ASD.
Measurement: Hemispherical reflectance
First Column: X
Second Column: Y
X Units: Wavelength (micrometers)
Y Units: Reflectance (percentage)
First X Value: 2.501
Last X Value: 15.387
Number of X Values: 1737
Additional Information: vegetation.tree.quercus.douglasii.tir.vh177.ucsb.nicolet.ancillary.txt

 2.5010	 6.3320
 2.5030	 6.2880
 2.5040	 6.3870
 2.5050	 6.2850
 2.5060	 6.2920
 2.5070	 6.3770
 2.5090	 6.3730
 2.5100	 6.2940
 2.5110	 6.1440
 2.5120	 6.1010
 2.5140	 6.1460
 2.5150	 6.1370
 2.5160	 6.1530
 2.5170	 6.2090
 2.5180	 6.1620
 2.5200	 6.1170
 2.5210	 6.1960
 2.5220	 6.1510
 2.5230	 6.1710
 2.5250	 6.1920
 2.5260	 6.1800
 2.5270	 6.0800
 2.5280	 6.0060
 2.5290	 6.0810
 2.5310	 6.2270
 2.5320	 6.1190
 2.5330	 6.0700
 2.5340	 6.1250
 2.5360	 6.1080
 2.5370	 6.1070
 2.5380	 6.2880
 2.5390	 6.1690
 2.5410	 6.0270
 2.5420	 6.0370
 2.5430	 6.1510
 2.5440	 6.1910
 2.5460	 6.1910
 2.5470	 6.1500
 2.5480	 6.1370
 2.5490	 6.2300
 2.5510	 6.3030
 2.5520	 6.2470
 2.5530	 6.2110
 2.5540	 6.2380
 2.5560	 6.2330
 2.5570	 6.2040
 2.5580	 6.2830
 2.5590	 6.2280
 2.5610	 6.1890
 2.5620	 6.2330
 2.5630	 6.2000
 2.5640	 6.1030
 2.5660	 6.2420
 2.5670	 6.2790
 2.5680	 6.2410
 2.5700	 6.2490
 2.5710	 6.2500
 2.5720	 6.3140
 2.5730	 6.3320
 2.5750	 6.3280
 2.5760	 6.2670
 2.5770	 6.0980
 2.5790	 6.0630
 2.5800	 6.1140
 2.5810	 6.1550
 2.5820	 6.0170
 2.5840	 6.0500
 2.5850	 6.1490
 2.5860	 6.3150
 2.5880	 6.1690
 2.5890	 5.9760
 2.5900	 6.0570
 2.5910	 6.1710
 2.5930	 6.2700
 2.5940	 6.1950
 2.5950	 6.0070
 2.5970	 6.1440
 2.5980	 6.0590
 2.5990	 6.0160
 2.6000	 6.0050
 2.6020	 6.0590
 2.6030	 6.0290
 2.6040	 5.9840
 2.6060	 6.0340
 2.6070	 6.1120
 2.6080	 6.1350
 2.6100	 6.1450
 2.6110	 6.1350
 2.6120	 6.0720
 2.6140	 5.9120
 2.6150	 5.9360
 2.6160	 5.9220
 2.6180	 5.7470
 2.6190	 5.7940
 2.6200	 5.8300
 2.6220	 5.8060
 2.6230	 5.8410
 2.6240	 5.7150
 2.6260	 5.7040
 2.6270	 5.7220
 2.6280	 5.7160
 2.6300	 5.5850
 2.6310	 5.5450
 2.6320	 5.6590
 2.6340	 5.7870
 2.6350	 5.6860
 2.6360	 5.5980
 2.6380	 5.6500
 2.6390	 5.6320
 2.6400	 5.5440
 2.6420	 5.5400
 2.6430	 5.4630
 2.6440	 5.4640
 2.6460	 5.4550
 2.6470	 5.4880
 2.6480	 5.4590
 2.6500	 5.2560
 2.6510	 5.2420
 2.6520	 5.3980
 2.6540	 5.3740
 2.6550	 5.3300
 2.6560	 5.2390
 2.6580	 5.2090
 2.6590	 5.2420
 2.6610	 5.2400
 2.6620	 5.1760
 2.6630	 5.1560
 2.6650	 5.0800
 2.6660	 5.1790
 2.6670	 5.0920
 2.6690	 5.1570
 2.6700	 5.1700
 2.6720	 5.0060
 2.6730	 5.0030
 2.6740	 5.1340
 2.6760	 5.0820
 2.6770	 5.0130
 2.6780	 4.8900
 2.6800	 4.8530
 2.6810	 4.9720
 2.6830	 5.1020
 2.6840	 4.9890
 2.6850	 4.9230
 2.6870	 4.8900
 2.6880	 4.8690
 2.6900	 4.8760
 2.6910	 4.9780
 2.6920	 4.9370
 2.6940	 4.8410
 2.6950	 4.8310
 2.6970	 4.9190
 2.6980	 4.8450
 2.6990	 4.6960
 2.7010	 4.6130
 2.7020	 4.6680
 2.7040	 4.6610
 2.7050	 4.6970
 2.7060	 4.5800
 2.7080	 4.5160
 2.7090	 4.6710
 2.7110	 4.7230
 2.7120	 4.5320
 2.7130	 4.4380
 2.7150	 4.5200
 2.7160	 4.5100
 2.7180	 4.3610
 2.7190	 4.4100
 2.7210	 4.3630
 2.7220	 4.3830
 2.7230	 4.3210
 2.7250	 4.3280
 2.7260	 4.3460
 2.7280	 4.3560
 2.7290	 4.2640
 2.7310	 4.2320
 2.7320	 4.2690
 2.7330	 4.2950
 2.7350	 4.1140
 2.7360	 3.9620
 2.7380	 3.8970
 2.7390	 3.9330
 2.7410	 3.9920
 2.7420	 4.2080
 2.7440	 4.0980
 2.7450	 4.1310
 2.7470	 4.2480
 2.7480	 4.2870
 2.7490	 4.0430
 2.7510	 4.0200
 2.7520	 4.1440
 2.7540	 4.1470
 2.7550	 4.2490
 2.7570	 4.2460
 2.7580	 3.7790
 2.7600	 3.6190
 2.7610	 3.7000
 2.7630	 3.7170
 2.7640	 3.8660
 2.7660	 4.0040
 2.7670	 3.8940
 2.7680	 3.6900
 2.7700	 3.7120
 2.7710	 3.9630
 2.7730	 3.9450
 2.7740	 3.8860
 2.7760	 3.9770
 2.7770	 4.0530
 2.7790	 3.9120
 2.7800	 3.7240
 2.7820	 3.5140
 2.7830	 3.5450
 2.7850	 3.5200
 2.7860	 3.6180
 2.7880	 3.7610
 2.7890	 3.8880
 2.7910	 3.7830
 2.7920	 3.5200
 2.7940	 3.4010
 2.7950	 3.4920
 2.7970	 3.4990
 2.7980	 3.6130
 2.8000	 3.6270
 2.8010	 3.5650
 2.8030	 3.6020
 2.8040	 3.7060
 2.8060	 3.5010
 2.8070	 3.4430
 2.8090	 3.5650
 2.8110	 3.6300
 2.8120	 3.5310
 2.8140	 3.5150
 2.8150	 3.4860
 2.8170	 3.6010
 2.8180	 3.4930
 2.8200	 3.3620
 2.8210	 3.5580
 2.8230	 3.6440
 2.8240	 3.3320
 2.8260	 3.3160
 2.8270	 3.4700
 2.8290	 3.4080
 2.8300	 3.2950
 2.8320	 3.4560
 2.8340	 3.4230
 2.8350	 3.3330
 2.8370	 3.2370
 2.8380	 3.3040
 2.8400	 3.4010
 2.8410	 3.4540
 2.8430	 3.3470
 2.8440	 3.3180
 2.8460	 3.3840
 2.8480	 3.4200
 2.8490	 3.3890
 2.8510	 3.4560
 2.8520	 3.3570
 2.8540	 3.3990
 2.8550	 3.4000
 2.8570	 3.3780
 2.8590	 3.3830
 2.8600	 3.4490
 2.8620	 3.3710
 2.8630	 3.5550
 2.8650	 3.5630
 2.8660	 3.3500
 2.8680	 3.2120
 2.8700	 3.2680
 2.8710	 3.4100
 2.8730	 3.4480
 2.8740	 3.2490
 2.8760	 3.2970
 2.8780	 3.3490
 2.8790	 3.2560
 2.8810	 3.0470
 2.8820	 3.2650
 2.8840	 3.6510
 2.8860	 3.8230
 2.8870	 3.5290
 2.8890	 3.1980
 2.8900	 3.0950
 2.8920	 3.3410
 2.8940	 3.4070
 2.8950	 3.3500
 2.8970	 3.4630
 2.8980	 3.4790
 2.9000	 3.3740
 2.9020	 3.3260
 2.9030	 3.2550
 2.9050	 3.2850
 2.9070	 3.2800
 2.9080	 3.2590
 2.9100	 3.3710
 2.9120	 3.3580
 2.9130	 3.2900
 2.9150	 3.3760
 2.9160	 3.5440
 2.9180	 3.6090
 2.9200	 3.4690
 2.9210	 3.5070
 2.9230	 3.6110
 2.9250	 3.5120
 2.9260	 3.2610
 2.9280	 3.3650
 2.9300	 3.3480
 2.9310	 3.3300
 2.9330	 3.4030
 2.9350	 3.4640
 2.9360	 3.4360
 2.9380	 3.3940
 2.9400	 3.5450
 2.9410	 3.7070
 2.9430	 3.4830
 2.9450	 3.3080
 2.9460	 3.5340
 2.9480	 3.6760
 2.9500	 3.2030
 2.9510	 2.7640
 2.9530	 2.8760
 2.9550	 3.2120
 2.9560	 3.2420
 2.9580	 3.0740
 2.9600	 3.0560
 2.9610	 3.3320
 2.9630	 3.0460
 2.9650	 2.1770
 2.9660	 2.2600
 2.9680	 2.9000
 2.9700	 3.1460
 2.9720	 3.7580
 2.9730	 3.1820
 2.9750	 2.7640
 2.9770	 2.8170
 2.9780	 2.7740
 2.9800	 3.2850
 2.9820	 4.3120
 2.9840	 4.6600
 2.9850	 4.4290
 2.9870	 4.2620
 2.9890	 4.1320
 2.9900	 4.4360
 2.9920	 5.1990
 2.9940	 6.0620
 2.9960	 6.1500
 2.9970	 4.9560
 2.9990	 4.4930
 3.0010	 4.5760
 3.0030	 4.1130
 3.0040	 3.7840
 3.0060	 3.6720
 3.0080	 3.5670
 3.0100	 3.3110
 3.0110	 2.8370
 3.0130	 2.4580
 3.0150	 3.1300
 3.0170	 3.7460
 3.0180	 3.6460
 3.0200	 3.4370
 3.0220	 3.2370
 3.0240	 3.1050
 3.0250	 3.2250
 3.0270	 3.5220
 3.0290	 3.5380
 3.0310	 3.6010
 3.0320	 3.7200
 3.0340	 3.5570
 3.0360	 4.2480
 3.0380	 4.2450
 3.0400	 4.1950
 3.0410	 3.9370
 3.0430	 2.3290
 3.0450	 1.0630
 3.0470	 2.2230
 3.0480	 4.5740
 3.0500	 3.7840
 3.0520	 1.3700
 3.0540	 1.1800
 3.0560	 1.6680
 3.0570	 1.3190
 3.0590	 1.3120
 3.0610	 2.1830
 3.0630	 3.6510
 3.0650	 4.2650
 3.0660	 3.6700
 3.0680	 2.9910
 3.0700	 3.0950
 3.0720	 2.6530
 3.0740	 3.2580
 3.0760	 3.4570
 3.0770	 3.3460
 3.0790	 3.5100
 3.0810	 3.7560
 3.0830	 3.7240
 3.0850	 3.6850
 3.0870	 3.6500
 3.0880	 3.6280
 3.0900	 3.5090
 3.0920	 3.5990
 3.0940	 3.5900
 3.0960	 3.6320
 3.0980	 3.5870
 3.0990	 3.6000
 3.1010	 3.5280
 3.1030	 3.6690
 3.1050	 3.6740
 3.1070	 3.6860
 3.1090	 3.3740
 3.1110	 3.3880
 3.1120	 3.6610
 3.1140	 3.5050
 3.1160	 3.4720
 3.1180	 3.6080
 3.1200	 3.6140
 3.1220	 3.7600
 3.1240	 3.8170
 3.1260	 3.7580
 3.1270	 3.3750
 3.1290	 3.2670
 3.1310	 3.6250
 3.1330	 3.9100
 3.1350	 3.6680
 3.1370	 3.9960
 3.1390	 4.8700
 3.1410	 5.4370
 3.1430	 4.4490
 3.1450	 3.4740
 3.1460	 3.4100
 3.1480	 3.6980
 3.1500	 3.7750
 3.1520	 3.7700
 3.1540	 4.1810
 3.1560	 4.7370
 3.1580	 4.5680
 3.1600	 4.0670
 3.1620	 4.1070
 3.1640	 3.9770
 3.1660	 3.4460
 3.1680	 2.8880
 3.1700	 2.5170
 3.1710	 2.1610
 3.1730	 1.8350
 3.1750	 2.7490
 3.1770	 3.4790
 3.1790	 3.2690
 3.1810	 3.4550
 3.1830	 3.7240
 3.1850	 3.4790
 3.1870	 3.2270
 3.1890	 3.5040
 3.1910	 3.9520
 3.1930	 3.8840
 3.1950	 3.7090
 3.1970	 3.6780
 3.1990	 3.7460
 3.2010	 3.9150
 3.2030	 3.8400
 3.2050	 3.8710
 3.2070	 3.8790
 3.2090	 3.7330
 3.2110	 3.8090
 3.2130	 3.6990
 3.2150	 3.7660
 3.2170	 3.9300
 3.2190	 3.9350
 3.2210	 3.7830
 3.2230	 3.7140
 3.2250	 3.8480
 3.2270	 3.9770
 3.2290	 3.8810
 3.2310	 3.7430
 3.2330	 3.8790
 3.2350	 4.1880
 3.2370	 4.1090
 3.2390	 3.9150
 3.2410	 3.7980
 3.2430	 3.9440
 3.2450	 3.9960
 3.2470	 3.9360
 3.2490	 3.9160
 3.2510	 4.1810
 3.2530	 4.4660
 3.2550	 4.2750
 3.2570	 3.8230
 3.2590	 3.9840
 3.2610	 4.3690
 3.2630	 3.8830
 3.2650	 3.5700
 3.2670	 3.8880
 3.2690	 4.0600
 3.2720	 4.1870
 3.2740	 3.9760
 3.2760	 3.8170
 3.2780	 4.0280
 3.2800	 4.0170
 3.2820	 3.8600
 3.2840	 3.9410
 3.2860	 3.9910
 3.2880	 3.9150
 3.2900	 3.9460
 3.2920	 3.8990
 3.2940	 3.6650
 3.2960	 3.9030
 3.2990	 4.1910
 3.3010	 4.2130
 3.3030	 4.0010
 3.3050	 3.9830
 3.3070	 4.0740
 3.3090	 4.0200
 3.3110	 3.9470
 3.3130	 3.9640
 3.3150	 3.9170
 3.3180	 3.8710
 3.3200	 3.8720
 3.3220	 3.8060
 3.3240	 3.8370
 3.3260	 3.9030
 3.3280	 3.8520
 3.3300	 3.8800
 3.3330	 4.0250
 3.3350	 4.1320
 3.3370	 4.0770
 3.3390	 4.0700
 3.3410	 4.0000
 3.3430	 3.9250
 3.3450	 3.7470
 3.3480	 3.6220
 3.3500	 3.7110
 3.3520	 3.7770
 3.3540	 3.6240
 3.3560	 3.6430
 3.3580	 3.7040
 3.3610	 3.7660
 3.3630	 3.6250
 3.3650	 3.6590
 3.3670	 3.6200
 3.3690	 3.4930
 3.3720	 3.5090
 3.3740	 3.5550
 3.3760	 3.5890
 3.3780	 3.6390
 3.3800	 3.6640
 3.3830	 3.6780
 3.3850	 3.5940
 3.3870	 3.4980
 3.3890	 3.4870
 3.3910	 3.5610
 3.3940	 3.4870
 3.3960	 3.3650
 3.3980	 3.3610
 3.4000	 3.3160
 3.4020	 3.3500
 3.4050	 3.6420
 3.4070	 3.6810
 3.4090	 3.7540
 3.4110	 3.8670
 3.4140	 4.0480
 3.4160	 4.2670
 3.4180	 4.4920
 3.4200	 4.7290
 3.4230	 5.0110
 3.4250	 5.2020
 3.4270	 5.4450
 3.4290	 5.4440
 3.4320	 5.2100
 3.4340	 4.8680
 3.4360	 4.6790
 3.4390	 4.5810
 3.4410	 4.5690
 3.4430	 4.5820
 3.4450	 4.4510
 3.4480	 4.2410
 3.4500	 4.1800
 3.4520	 4.1670
 3.4550	 4.2800
 3.4570	 4.2980
 3.4590	 4.1250
 3.4620	 4.1340
 3.4640	 4.0750
 3.4660	 3.9800
 3.4680	 4.0800
 3.4710	 4.1050
 3.4730	 4.1130
 3.4750	 4.0680
 3.4780	 4.0470
 3.4800	 4.0800
 3.4820	 4.0250
 3.4850	 3.9340
 3.4870	 3.9740
 3.4890	 3.9940
 3.4920	 3.9430
 3.4940	 3.9280
 3.4970	 4.0070
 3.4990	 4.0470
 3.5010	 4.1310
 3.5040	 4.3440
 3.5060	 4.7120
 3.5080	 5.2250
 3.5110	 5.5980
 3.5130	 5.5200
 3.5160	 5.2700
 3.5180	 5.0250
 3.5200	 4.7900
 3.5230	 4.7160
 3.5250	 4.7800
 3.5270	 4.6870
 3.5300	 4.6440
 3.5320	 4.6450
 3.5350	 4.6510
 3.5370	 4.6110
 3.5400	 4.5690
 3.5420	 4.4450
 3.5440	 4.4770
 3.5470	 4.5460
 3.5490	 4.5450
 3.5520	 4.5080
 3.5540	 4.5430
 3.5570	 4.5720
 3.5590	 4.6010
 3.5610	 4.6410
 3.5640	 4.7060
 3.5660	 4.6350
 3.5690	 4.6290
 3.5710	 4.6210
 3.5740	 4.5340
 3.5760	 4.5980
 3.5790	 4.6080
 3.5810	 4.5270
 3.5840	 4.5210
 3.5860	 4.6070
 3.5890	 4.6810
 3.5910	 4.6310
 3.5930	 4.5170
 3.5960	 4.5420
 3.5980	 4.5690
 3.6010	 4.4760
 3.6030	 4.5900
 3.6060	 4.5660
 3.6080	 4.5650
 3.6110	 4.5540
 3.6140	 4.6190
 3.6160	 4.6420
 3.6190	 4.6490
 3.6210	 4.6050
 3.6240	 4.5800
 3.6260	 4.6140
 3.6290	 4.5900
 3.6310	 4.4930
 3.6340	 4.5750
 3.6360	 4.5780
 3.6390	 4.5450
 3.6410	 4.5460
 3.6440	 4.6200
 3.6470	 4.5740
 3.6490	 4.5860
 3.6520	 4.6030
 3.6540	 4.6120
 3.6570	 4.5720
 3.6590	 4.5610
 3.6620	 4.5900
 3.6650	 4.6250
 3.6670	 4.5910
 3.6700	 4.5360
 3.6720	 4.5200
 3.6750	 4.6230
 3.6780	 4.7010
 3.6800	 4.6810
 3.6830	 4.5700
 3.6850	 4.5380
 3.6880	 4.5120
 3.6910	 4.4990
 3.6930	 4.4940
 3.6960	 4.5260
 3.6990	 4.5280
 3.7010	 4.5530
 3.7040	 4.5550
 3.7060	 4.6050
 3.7090	 4.6350
 3.7120	 4.6260
 3.7140	 4.6080
 3.7170	 4.6500
 3.7200	 4.7650
 3.7220	 4.7550
 3.7250	 4.6090
 3.7280	 4.5730
 3.7300	 4.5370
 3.7330	 4.5270
 3.7360	 4.6010
 3.7390	 4.6210
 3.7410	 4.5400
 3.7440	 4.6410
 3.7470	 4.7080
 3.7490	 4.7290
 3.7520	 4.7170
 3.7550	 4.6680
 3.7580	 4.5890
 3.7600	 4.7070
 3.7630	 4.7450
 3.7660	 4.8010
 3.7680	 4.8330
 3.7710	 4.8240
 3.7740	 4.8580
 3.7770	 4.8420
 3.7790	 4.8460
 3.7820	 4.7530
 3.7850	 4.6260
 3.7880	 4.5820
 3.7900	 4.6670
 3.7930	 4.7430
 3.7960	 4.7180
 3.7990	 4.7670
 3.8020	 4.7090
 3.8040	 4.6710
 3.8070	 4.7210
 3.8100	 4.7360
 3.8130	 4.6840
 3.8160	 4.6870
 3.8180	 4.7010
 3.8210	 4.7030
 3.8240	 4.6020
 3.8270	 4.5890
 3.8300	 4.5970
 3.8330	 4.5960
 3.8350	 4.7130
 3.8380	 4.7980
 3.8410	 4.7100
 3.8440	 4.6660
 3.8470	 4.6620
 3.8500	 4.6190
 3.8520	 4.6790
 3.8550	 4.8290
 3.8580	 4.8440
 3.8610	 4.8040
 3.8640	 4.8100
 3.8670	 4.8080
 3.8700	 4.7850
 3.8730	 4.7640
 3.8750	 4.7620
 3.8780	 4.7730
 3.8810	 4.7590
 3.8840	 4.7020
 3.8870	 4.6900
 3.8900	 4.7310
 3.8930	 4.7210
 3.8960	 4.6700
 3.8990	 4.7090
 3.9020	 4.7790
 3.9050	 4.8110
 3.9080	 4.7810
 3.9110	 4.8330
 3.9140	 4.8840
 3.9160	 4.8090
 3.9190	 4.7860
 3.9220	 4.7890
 3.9250	 4.7890
 3.9280	 4.7610
 3.9310	 4.7450
 3.9340	 4.7330
 3.9370	 4.7670
 3.9400	 4.7540
 3.9430	 4.7950
 3.9460	 4.8840
 3.9490	 4.8340
 3.9520	 4.7450
 3.9550	 4.7800
 3.9580	 4.8260
 3.9610	 4.8380
 3.9640	 4.8190
 3.9670	 4.7930
 3.9700	 4.7650
 3.9730	 4.8080
 3.9770	 4.7660
 3.9800	 4.7910
 3.9830	 4.8450
 3.9860	 4.8330
 3.9890	 4.8070
 3.9920	 4.8190
 3.9950	 4.7970
 3.9980	 4.8400
 4.0010	 4.8410
 4.0040	 4.8460
 4.0070	 4.8630
 4.0100	 4.8670
 4.0130	 4.8690
 4.0170	 4.8670
 4.0200	 4.9480
 4.0230	 4.9680
 4.0260	 4.8980
 4.0290	 4.8280
 4.0320	 4.7990
 4.0350	 4.8340
 4.0380	 4.8300
 4.0420	 4.8590
 4.0450	 4.8580
 4.0480	 4.8400
 4.0510	 4.9090
 4.0540	 4.9890
 4.0570	 4.9460
 4.0610	 4.8570
 4.0640	 4.8650
 4.0670	 4.9290
 4.0700	 4.8540
 4.0730	 4.8100
 4.0770	 4.8350
 4.0800	 4.8110
 4.0830	 4.7480
 4.0860	 4.7580
 4.0890	 4.7820
 4.0930	 4.8130
 4.0960	 4.9040
 4.0990	 4.9610
 4.1020	 4.9700
 4.1060	 4.9400
 4.1090	 4.8970
 4.1120	 4.9230
 4.1150	 4.8980
 4.1190	 4.8430
 4.1220	 4.8310
 4.1250	 4.9440
 4.1280	 5.0080
 4.1320	 4.9540
 4.1350	 4.9040
 4.1380	 4.9270
 4.1420	 4.9010
 4.1450	 4.8510
 4.1480	 4.8370
 4.1520	 4.8620
 4.1550	 4.8680
 4.1580	 4.8870
 4.1620	 4.9480
 4.1650	 4.9380
 4.1680	 4.9340
 4.1720	 4.9090
 4.1750	 4.8910
 4.1780	 4.9240
 4.1820	 4.9250
 4.1850	 4.8860
 4.1890	 4.8660
 4.1920	 4.8890
 4.1950	 4.9590
 4.1990	 4.9550
 4.2020	 4.7980
 4.2060	 4.7380
 4.2090	 4.7860
 4.2120	 4.7460
 4.2160	 4.7850
 4.2190	 4.6420
 4.2230	 4.7590
 4.2260	 5.0120
 4.2300	 4.7520
 4.2330	 4.5610
 4.2360	 4.8870
 4.2400	 4.9360
 4.2430	 4.7820
 4.2470	 4.6460
 4.2500	 4.5720
 4.2540	 4.6380
 4.2570	 4.7350
 4.2610	 4.7470
 4.2640	 4.6390
 4.2680	 4.5930
 4.2710	 4.5370
 4.2750	 4.4720
 4.2780	 4.5110
 4.2820	 4.6390
 4.2850	 4.6750
 4.2890	 4.6040
 4.2930	 4.6490
 4.2960	 4.7210
 4.3000	 4.7170
 4.3030	 4.7160
 4.3070	 4.7090
 4.3100	 4.6620
 4.3140	 4.6610
 4.3180	 4.6850
 4.3210	 4.6560
 4.3250	 4.6760
 4.3280	 4.7700
 4.3320	 4.7840
 4.3360	 4.7560
 4.3390	 4.7650
 4.3430	 4.8530
 4.3470	 4.8350
 4.3500	 4.7590
 4.3540	 4.7650
 4.3570	 4.8100
 4.3610	 4.8340
 4.3650	 4.8070
 4.3680	 4.7680
 4.3720	 4.8070
 4.3760	 4.8800
 4.3800	 4.8920
 4.3830	 4.8340
 4.3870	 4.8620
 4.3910	 4.8880
 4.3940	 4.8790
 4.3980	 4.8790
 4.4020	 4.8620
 4.4060	 4.8480
 4.4090	 4.8670
 4.4130	 4.8420
 4.4170	 4.8400
 4.4210	 4.8590
 4.4240	 4.9050
 4.4280	 4.8670
 4.4320	 4.8500
 4.4360	 4.8580
 4.4400	 4.8260
 4.4430	 4.8790
 4.4470	 4.9080
 4.4510	 4.8290
 4.4550	 4.8280
 4.4590	 4.8280
 4.4620	 4.8200
 4.4660	 4.7990
 4.4700	 4.8060
 4.4740	 4.7380
 4.4780	 4.7440
 4.4820	 4.8000
 4.4860	 4.7860
 4.4900	 4.7540
 4.4930	 4.7600
 4.4970	 4.7400
 4.5010	 4.7730
 4.5050	 4.8170
 4.5090	 4.8450
 4.5130	 4.7890
 4.5170	 4.7860
 4.5210	 4.8140
 4.5250	 4.7840
 4.5290	 4.7260
 4.5330	 4.7580
 4.5370	 4.7480
 4.5410	 4.7570
 4.5450	 4.7800
 4.5490	 4.7470
 4.5530	 4.7620
 4.5570	 4.8670
 4.5610	 4.7970
 4.5650	 4.7220
 4.5690	 4.7110
 4.5730	 4.7230
 4.5770	 4.6960
 4.5810	 4.7510
 4.5850	 4.7850
 4.5890	 4.7070
 4.5930	 4.7010
 4.5970	 4.8110
 4.6010	 4.8140
 4.6050	 4.6760
 4.6090	 4.5450
 4.6130	 4.4360
 4.6170	 4.4890
 4.6220	 4.6490
 4.6260	 4.6820
 4.6300	 4.6600
 4.6340	 4.6530
 4.6380	 4.6640
 4.6420	 4.7340
 4.6460	 4.7660
 4.6510	 4.7300
 4.6550	 4.6340
 4.6590	 4.6180
 4.6630	 4.7230
 4.6670	 4.7690
 4.6720	 4.7770
 4.6760	 4.7380
 4.6800	 4.7200
 4.6840	 4.6370
 4.6880	 4.6200
 4.6930	 4.6750
 4.6970	 4.7620
 4.7010	 4.7520
 4.7050	 4.7560
 4.7100	 4.6960
 4.7140	 4.6690
 4.7180	 4.7130
 4.7230	 4.7240
 4.7270	 4.6590
 4.7310	 4.6570
 4.7360	 4.7020
 4.7400	 4.7460
 4.7440	 4.7090
 4.7490	 4.6370
 4.7530	 4.5860
 4.7570	 4.6140
 4.7620	 4.6250
 4.7660	 4.6870
 4.7700	 4.8090
 4.7750	 4.8810
 4.7790	 4.8310
 4.7840	 4.9310
 4.7880	 4.9070
 4.7920	 4.6760
 4.7970	 4.4760
 4.8010	 4.5710
 4.8060	 4.7560
 4.8100	 4.8180
 4.8150	 4.7730
 4.8190	 4.6740
 4.8240	 4.7080
 4.8280	 4.8000
 4.8330	 4.7320
 4.8370	 4.7250
 4.8420	 4.7380
 4.8460	 4.7370
 4.8510	 4.7300
 4.8550	 4.7390
 4.8600	 4.7700
 4.8640	 4.7880
 4.8690	 4.7370
 4.8730	 4.7400
 4.8780	 4.7250
 4.8830	 4.7350
 4.8870	 4.7290
 4.8920	 4.7070
 4.8960	 4.6660
 4.9010	 4.7160
 4.9060	 4.7330
 4.9100	 4.7200
 4.9150	 4.7220
 4.9200	 4.7400
 4.9240	 4.7400
 4.9290	 4.7570
 4.9340	 4.7200
 4.9380	 4.7440
 4.9430	 4.7340
 4.9480	 4.7450
 4.9530	 4.7360
 4.9570	 4.7520
 4.9620	 4.7180
 4.9670	 4.7600
 4.9720	 4.7520
 4.9760	 4.7620
 4.9810	 4.7480
 4.9860	 4.7620
 4.9910	 4.7310
 4.9960	 4.7690
 5.0000	 4.8060
 5.0050	 4.7860
 5.0100	 4.7470
 5.0150	 4.7870
 5.0200	 4.8110
 5.0250	 4.8080
 5.0290	 4.8030
 5.0340	 4.8060
 5.0390	 4.8150
 5.0440	 4.8420
 5.0490	 4.8120
 5.0540	 4.7960
 5.0590	 4.7860
 5.0640	 4.7940
 5.0690	 4.8100
 5.0740	 4.8880
 5.0790	 4.8670
 5.0840	 4.8280
 5.0890	 4.7810
 5.0940	 4.8150
 5.0990	 4.8050
 5.1040	 4.8400
 5.1090	 4.8400
 5.1140	 4.8240
 5.1190	 4.7330
 5.1240	 4.7410
 5.1290	 4.7660
 5.1340	 4.8220
 5.1390	 4.7780
 5.1440	 4.7290
 5.1490	 4.7310
 5.1540	 4.8160
 5.1600	 4.7720
 5.1650	 4.7780
 5.1700	 4.8080
 5.1750	 4.8540
 5.1800	 4.7850
 5.1850	 4.8060
 5.1910	 4.8440
 5.1960	 4.8540
 5.2010	 4.7830
 5.2060	 4.7710
 5.2110	 4.7670
 5.2170	 4.7750
 5.2220	 4.7490
 5.2270	 4.7630
 5.2320	 4.7110
 5.2380	 4.7430
 5.2430	 4.7910
 5.2480	 4.7830
 5.2540	 4.7970
 5.2590	 4.8480
 5.2640	 4.7610
 5.2700	 4.7970
 5.2750	 4.8360
 5.2800	 4.8400
 5.2860	 4.7610
 5.2910	 4.6790
 5.2970	 4.6640
 5.3020	 4.7110
 5.3070	 4.7060
 5.3130	 4.7880
 5.3180	 4.8320
 5.3240	 4.9030
 5.3290	 4.8590
 5.3350	 4.8010
 5.3400	 4.7060
 5.3460	 4.7250
 5.3510	 4.6680
 5.3570	 4.6640
 5.3620	 4.7190
 5.3680	 4.7500
 5.3730	 4.7260
 5.3790	 4.7420
 5.3850	 4.7530
 5.3900	 4.7060
 5.3960	 4.5650
 5.4010	 4.6040
 5.4070	 4.6230
 5.4130	 4.6190
 5.4180	 4.5990
 5.4240	 4.6530
 5.4300	 4.6560
 5.4350	 4.6340
 5.4410	 4.5690
 5.4470	 4.5640
 5.4530	 4.5660
 5.4580	 4.5960
 5.4640	 4.5940
 5.4700	 4.5960
 5.4760	 4.5490
 5.4810	 4.4760
 5.4870	 4.4120
 5.4930	 4.4640
 5.4990	 4.4620
 5.5050	 4.4750
 5.5110	 4.4140
 5.5160	 4.3980
 5.5220	 4.4090
 5.5280	 4.3760
 5.5340	 4.2910
 5.5400	 4.3590
 5.5460	 4.2810
 5.5520	 4.2390
 5.5580	 4.2300
 5.5640	 4.2560
 5.5700	 4.1730
 5.5760	 4.1330
 5.5820	 4.1280
 5.5880	 4.1150
 5.5940	 4.0310
 5.6000	 4.0300
 5.6060	 3.9480
 5.6120	 3.9230
 5.6180	 3.8640
 5.6240	 3.8550
 5.6300	 3.7620
 5.6360	 3.7690
 5.6420	 3.6670
 5.6490	 3.5510
 5.6550	 3.4330
 5.6610	 3.4060
 5.6670	 3.3530
 5.6730	 3.2950
 5.6800	 3.1190
 5.6860	 3.0760
 5.6920	 3.0570
 5.6980	 3.0220
 5.7040	 2.9930
 5.7110	 2.9890
 5.7170	 2.8910
 5.7230	 2.9100
 5.7300	 2.8480
 5.7360	 2.8430
 5.7420	 2.7650
 5.7490	 2.7740
 5.7550	 2.8280
 5.7620	 2.9850
 5.7680	 3.0930
 5.7740	 3.2750
 5.7810	 3.3780
 5.7870	 3.5220
 5.7940	 3.5940
 5.8000	 3.7530
 5.8070	 3.8550
 5.8130	 3.9860
 5.8200	 3.9270
 5.8260	 3.9600
 5.8330	 4.0660
 5.8390	 4.2220
 5.8460	 4.2660
 5.8530	 4.3360
 5.8590	 4.4000
 5.8660	 4.5100
 5.8720	 4.5170
 5.8790	 4.6160
 5.8860	 4.6670
 5.8920	 4.6800
 5.8990	 4.6270
 5.9060	 4.7010
 5.9130	 4.6760
 5.9190	 4.6630
 5.9260	 4.6220
 5.9330	 4.6750
 5.9400	 4.6250
 5.9470	 4.6020
 5.9530	 4.5240
 5.9600	 4.4920
 5.9670	 4.3410
 5.9740	 4.3140
 5.9810	 4.2890
 5.9880	 4.2480
 5.9950	 4.1490
 6.0020	 4.1320
 6.0090	 4.0000
 6.0160	 3.9800
 6.0230	 3.9720
 6.0300	 4.0160
 6.0370	 3.9930
 6.0440	 4.0640
 6.0510	 4.0940
 6.0580	 4.2320
 6.0650	 4.2220
 6.0720	 4.2990
 6.0790	 4.3420
 6.0860	 4.4010
 6.0930	 4.3590
 6.1000	 4.3400
 6.1080	 4.2460
 6.1150	 4.3260
 6.1220	 4.2760
 6.1290	 4.1940
 6.1370	 4.1030
 6.1440	 4.1180
 6.1510	 4.0090
 6.1580	 3.9970
 6.1660	 4.0010
 6.1730	 4.0140
 6.1800	 3.9500
 6.1880	 3.9380
 6.1950	 3.9200
 6.2030	 4.0580
 6.2100	 4.0360
 6.2170	 4.0590
 6.2250	 4.0920
 6.2320	 4.2500
 6.2400	 4.2660
 6.2470	 4.3470
 6.2550	 4.3830
 6.2630	 4.3930
 6.2700	 4.2840
 6.2780	 4.4310
 6.2850	 4.4730
 6.2930	 4.4750
 6.3010	 4.4890
 6.3080	 4.6160
 6.3160	 4.6020
 6.3240	 4.6750
 6.3310	 4.7230
 6.3390	 4.8160
 6.3470	 4.7750
 6.3550	 4.7930
 6.3620	 4.7310
 6.3700	 4.8350
 6.3780	 4.8150
 6.3860	 4.8470
 6.3940	 4.8410
 6.4020	 4.8540
 6.4100	 4.8000
 6.4180	 4.8960
 6.4260	 4.8090
 6.4330	 4.7970
 6.4410	 4.7080
 6.4490	 4.8690
 6.4580	 4.9070
 6.4660	 4.9710
 6.4740	 4.8270
 6.4820	 4.7910
 6.4900	 4.7260
 6.4980	 4.7250
 6.5060	 4.6370
 6.5140	 4.6680
 6.5230	 4.5510
 6.5310	 4.5440
 6.5390	 4.4820
 6.5470	 4.4200
 6.5550	 4.2380
 6.5640	 4.1850
 6.5720	 4.0710
 6.5800	 4.1870
 6.5890	 4.1860
 6.5970	 4.3040
 6.6060	 4.3600
 6.6140	 4.4650
 6.6220	 4.4280
 6.6310	 4.5460
 6.6390	 4.6080
 6.6480	 4.6400
 6.6560	 4.6640
 6.6650	 4.7320
 6.6740	 4.6850
 6.6820	 4.7250
 6.6910	 4.6310
 6.6990	 4.6660
 6.7080	 4.6180
 6.7170	 4.7160
 6.7260	 4.7080
 6.7340	 4.6760
 6.7430	 4.5350
 6.7520	 4.5260
 6.7610	 4.4110
 6.7690	 4.4120
 6.7780	 4.3950
 6.7870	 4.5170
 6.7960	 4.3900
 6.8050	 4.2460
 6.8140	 4.0790
 6.8230	 4.2060
 6.8320	 4.4400
 6.8410	 4.6550
 6.8500	 4.4930
 6.8590	 4.4360
 6.8680	 4.3070
 6.8770	 4.3670
 6.8860	 4.4240
 6.8950	 4.5000
 6.9050	 4.4060
 6.9140	 4.4590
 6.9230	 4.3890
 6.9320	 4.4410
 6.9420	 4.4070
 6.9510	 4.4900
 6.9600	 4.4980
 6.9700	 4.5870
 6.9790	 4.4690
 6.9880	 4.4780
 6.9980	 4.4670
 7.0070	 4.4690
 7.0170	 4.3490
 7.0260	 4.4130
 7.0360	 4.4080
 7.0450	 4.4930
 7.0550	 4.4960
 7.0650	 4.5980
 7.0740	 4.4950
 7.0840	 4.4870
 7.0940	 4.3960
 7.1030	 4.5210
 7.1130	 4.4400
 7.1230	 4.4090
 7.1330	 4.3390
 7.1420	 4.3560
 7.1520	 4.2480
 7.1620	 4.3600
 7.1720	 4.3110
 7.1820	 4.2760
 7.1920	 4.1370
 7.2020	 4.1770
 7.2120	 4.1530
 7.2220	 4.1970
 7.2320	 4.0400
 7.2420	 4.0950
 7.2520	 4.1030
 7.2620	 4.0870
 7.2730	 3.9150
 7.2830	 3.9480
 7.2930	 3.9930
 7.3030	 4.1370
 7.3140	 4.1140
 7.3240	 4.2180
 7.3340	 4.2760
 7.3450	 4.5170
 7.3550	 4.5490
 7.3660	 4.5450
 7.3760	 4.5670
 7.3870	 4.7340
 7.3970	 4.7220
 7.4080	 4.7860
 7.4180	 4.7290
 7.4290	 4.7980
 7.4400	 4.7790
 7.4500	 4.7930
 7.4610	 4.6390
 7.4720	 4.6520
 7.4830	 4.6180
 7.4930	 4.6830
 7.5040	 4.6410
 7.5150	 4.6420
 7.5260	 4.4690
 7.5370	 4.4650
 7.5480	 4.3460
 7.5590	 4.3780
 7.5700	 4.3410
 7.5810	 4.3540
 7.5920	 4.2460
 7.6030	 4.2730
 7.6140	 4.2380
 7.6260	 4.3580
 7.6370	 4.2780
 7.6480	 4.3420
 7.6590	 4.2950
 7.6710	 4.3230
 7.6820	 4.2910
 7.6930	 4.3680
 7.7050	 4.2880
 7.7160	 4.3190
 7.7280	 4.2960
 7.7390	 4.3900
 7.7510	 4.2810
 7.7630	 4.2570
 7.7740	 4.1770
 7.7860	 4.3100
 7.7980	 4.2910
 7.8090	 4.3750
 7.8210	 4.3310
 7.8330	 4.3800
 7.8450	 4.2510
 7.8570	 4.3340
 7.8690	 4.2820
 7.8810	 4.3340
 7.8930	 4.2850
 7.9050	 4.3210
 7.9170	 4.2730
 7.9290	 4.4110
 7.9410	 4.3210
 7.9530	 4.2890
 7.9650	 4.2010
 7.9780	 4.2600
 7.9900	 4.1470
 8.0020	 4.2290
 8.0150	 4.0660
 8.0270	 4.1900
 8.0390	 4.1440
 8.0520	 4.1280
 8.0640	 4.0160
 8.0770	 4.0510
 8.0900	 3.9060
 8.1020	 3.9520
 8.1150	 3.7800
 8.1280	 3.8220
 8.1400	 3.7450
 8.1530	 3.7940
 8.1660	 3.6740
 8.1790	 3.6660
 8.1920	 3.5620
 8.2050	 3.6180
 8.2180	 3.4620
 8.2310	 3.5150
 8.2440	 3.4440
 8.2570	 3.6530
 8.2700	 3.6360
 8.2830	 3.6380
 8.2970	 3.5860
 8.3100	 3.7410
 8.3230	 3.6330
 8.3370	 3.7630
 8.3500	 3.7080
 8.3640	 3.7590
 8.3770	 3.6010
 8.3910	 3.7040
 8.4040	 3.5720
 8.4180	 3.6060
 8.4320	 3.3420
 8.4450	 3.2860
 8.4590	 3.1410
 8.4730	 3.2410
 8.4870	 3.1880
 8.5010	 3.4320
 8.5150	 3.3990
 8.5290	 3.5940
 8.5430	 3.6670
 8.5570	 3.9410
 8.5710	 3.8930
 8.5850	 3.9530
 8.5990	 3.8430
 8.6140	 3.9580
 8.6280	 3.6660
 8.6420	 3.7100
 8.6570	 3.7720
 8.6710	 3.8870
 8.6860	 3.8030
 8.7000	 3.9370
 8.7150	 3.7800
 8.7300	 3.9210
 8.7440	 3.7690
 8.7590	 3.8180
 8.7740	 3.6990
 8.7890	 3.7920
 8.8040	 3.6050
 8.8190	 3.6220
 8.8340	 3.5640
 8.8490	 3.6830
 8.8640	 3.3960
 8.8790	 3.4860
 8.8940	 3.3770
 8.9100	 3.4460
 8.9250	 3.3680
 8.9400	 3.5610
 8.9560	 3.4200
 8.9710	 3.3740
 8.9870	 3.1390
 9.0020	 3.2430
 9.0180	 3.1080
 9.0340	 3.3450
 9.0500	 3.2470
 9.0650	 3.2900
 9.0810	 3.2230
 9.0970	 3.4480
 9.1130	 3.3270
 9.1290	 3.3690
 9.1450	 3.2470
 9.1610	 3.3510
 9.1780	 3.0910
 9.1940	 3.2310
 9.2100	 3.2340
 9.2270	 3.4720
 9.2430	 3.3810
 9.2600	 3.4640
 9.2760	 3.3310
 9.2930	 3.5640
 9.3090	 3.5230
 9.3260	 3.6410
 9.3430	 3.5340
 9.3600	 3.7270
 9.3770	 3.5890
 9.3940	 3.8390
 9.4110	 3.7600
 9.4280	 3.9960
 9.4450	 3.9690
 9.4620	 4.1950
 9.4800	 4.1830
 9.4970	 4.3290
 9.5140	 4.2100
 9.5320	 4.4830
 9.5500	 4.4010
 9.5670	 4.5760
 9.5850	 4.3690
 9.6030	 4.5960
 9.6200	 4.5170
 9.6380	 4.5590
 9.6560	 4.4830
 9.6740	 4.7490
 9.6920	 4.5390
 9.7100	 4.6860
 9.7290	 4.7470
 9.7470	 5.0070
 9.7650	 4.8950
 9.7840	 5.0270
 9.8020	 4.9170
 9.8210	 5.0000
 9.8390	 4.8520
 9.8580	 5.1080
 9.8770	 5.1340
 9.8960	 5.3270
 9.9150	 4.9900
 9.9340	 4.9750
 9.9530	 4.9700
 9.9720	 5.1120
 9.9910	 4.8840
10.0100	 5.0000
10.0300	 4.8470
10.0490	 4.8570
10.0690	 4.6490
10.0880	 4.7640
10.1080	 4.6790
10.1280	 4.9380
10.1480	 4.7710
10.1670	 4.8430
10.1870	 4.7240
10.2070	 4.8010
10.2280	 4.6630
10.2480	 4.8440
10.2680	 4.6580
10.2890	 4.7190
10.3090	 4.6520
10.3300	 4.9320
10.3500	 4.9540
10.3710	 5.0650
10.3920	 4.9690
10.4120	 5.2240
10.4330	 5.1500
10.4540	 5.2860
10.4760	 5.1430
10.4970	 5.2380
10.5180	 5.1020
10.5390	 5.1890
10.5610	 5.0150
10.5820	 5.3330
10.6040	 5.2630
10.6260	 5.3420
10.6480	 5.1530
10.6700	 5.2680
10.6920	 5.2390
10.7140	 5.4130
10.7360	 5.2050
10.7580	 5.3020
10.7800	 5.2390
10.8030	 5.3750
10.8250	 5.2920
10.8480	 5.4410
10.8710	 5.2730
10.8940	 5.3460
10.9170	 5.2000
10.9400	 5.3270
10.9630	 5.2070
10.9860	 5.3050
11.0090	 5.1420
11.0330	 5.2510
11.0560	 5.1040
11.0800	 5.2730
11.1040	 5.2540
11.1270	 5.3430
11.1510	 4.9960
11.1750	 5.1120
11.2000	 4.8400
11.2240	 5.0900
11.2480	 5.1280
11.2730	 4.9660
11.2970	 4.3370
11.3220	 4.9010
11.3470	 5.1430
11.3720	 5.2950
11.3970	 5.0540
11.4220	 5.2120
11.4470	 4.9770
11.4720	 5.1070
11.4980	 4.9420
11.5230	 5.1170
11.5490	 4.9750
11.5750	 5.1430
11.6000	 5.0080
11.6260	 5.0990
11.6530	 4.7650
11.6790	 4.9050
11.7050	 4.7660
11.7320	 4.9430
11.7580	 4.7290
11.7850	 4.8020
11.8120	 4.6750
11.8390	 4.9370
11.8660	 4.7000
11.8930	 4.8090
11.9200	 4.6560
11.9480	 4.8300
11.9760	 4.5140
12.0030	 4.7690
12.0310	 4.6680
12.0590	 4.8850
12.0870	 4.6420
12.1150	 4.8790
12.1440	 4.7360
12.1720	 4.7180
12.2010	 4.3670
12.2300	 4.9230
12.2590	 4.7500
12.2880	 4.8200
12.3170	 4.5850
12.3460	 4.7170
12.3760	 4.5560
12.4050	 4.8350
12.4350	 4.6800
12.4650	 4.9420
12.4950	 4.6350
12.5250	 4.8130
12.5550	 4.4800
12.5860	 4.6140
12.6170	 4.4720
12.6470	 4.8440
12.6780	 4.7620
12.7090	 4.8820
12.7410	 4.7030
12.7720	 5.1190
12.8030	 4.9690
12.8350	 5.0930
12.8670	 4.9390
12.8990	 5.2770
12.9310	 4.9320
12.9640	 5.1040
12.9960	 5.0230
13.0290	 5.2970
13.0610	 5.0430
13.0940	 5.1790
13.1280	 4.9940
13.1610	 5.2620
13.1940	 4.7640
13.2280	 4.9050
13.2620	 4.5830
13.2960	 4.8320
13.3300	 4.6690
13.3640	 4.9400
13.3990	 4.6560
13.4340	 4.9860
13.4690	 4.8660
13.5040	 4.9500
13.5390	 4.5070
13.5740	 4.8260
13.6100	 4.7090
13.6460	 5.1120
13.6820	 4.7380
13.7180	 4.9300
13.7540	 4.7930
13.7910	 5.1040
13.8280	 4.6120
13.8650	 4.9940
13.9020	 4.7090
13.9390	 4.9150
13.9770	 4.6300
14.0150	 4.7430
14.0530	 4.3080
14.0910	 4.6110
14.1290	 4.1200
14.1680	 4.5470
14.2070	 4.2550
14.2460	 4.4310
14.2850	 4.1200
14.3240	 4.6330
14.3640	 4.3580
14.4040	 4.5390
14.4440	 4.0510
14.4840	 4.6530
14.5250	 4.0290
14.5660	 4.3270
14.6070	 3.9420
14.6480	 4.3810
14.6900	 3.7030
14.7310	 4.1830
14.7730	 4.0960
14.8150	 4.7330
14.8580	 4.2830
14.9010	 4.8320
14.9440	 3.5160
14.9870	 4.2880
15.0300	 3.7160
15.0740	 4.0060
15.1180	 3.6640
15.1620	 4.5180
15.2060	 3.9960
15.2510	 4.1870
15.2960	 3.5730
15.3410	 4.0780
15.3870	 3.0030
