Name: Salvia leucophylla 1
Type: vegetation
Class: Shrub
Genus: Salvia
Species: leucophylla
Sample No.: VH091
Owner: UCSB
Wavelength Range: VSWIR
Origin: 34.698; -120.0477; WGS84
Collection Date: 4/21/2013
Description: Samples were collected as part of the HyspIRI Airborne Campaign. 48 individual plants were sampled in three times in 2013 - spring  summer  and fall. The name of the sample includes a 1  2  or 3 which references a different individual of the species. Samples were taken to JPL and processed within 48 hours of collection. The same leaves were processed in the Nicolet and then measured using the ASD.
Measurement: Bidirectional reflectance
First Column: X
Second Column: Y
X Units: Wavelength (micrometers)
Y Units: Reflectance (percentage)
First X Value: 0.35
Last X Value: 2.5
Number of X Values: 2151
Additional Information: vegetation.shrub.salvia.leucophylla.vswir.vh091.ucsb.asd.ancillary.txt

 0.3500	 3.4930
 0.3510	 3.7670
 0.3520	 3.9770
 0.3530	 3.9540
 0.3540	 3.7690
 0.3550	 3.8620
 0.3560	 3.8940
 0.3570	 3.8570
 0.3580	 3.8990
 0.3590	 3.9610
 0.3600	 4.0190
 0.3610	 4.0700
 0.3620	 4.1360
 0.3630	 4.2350
 0.3640	 4.2530
 0.3650	 4.1540
 0.3660	 4.3170
 0.3670	 4.3960
 0.3680	 4.3760
 0.3690	 4.4600
 0.3700	 4.5300
 0.3710	 4.6050
 0.3720	 4.7030
 0.3730	 4.8030
 0.3740	 4.8460
 0.3750	 4.8690
 0.3760	 4.9350
 0.3770	 5.0710
 0.3780	 5.1760
 0.3790	 5.2370
 0.3800	 5.3180
 0.3810	 5.4290
 0.3820	 5.5470
 0.3830	 5.6520
 0.3840	 5.7400
 0.3850	 5.8400
 0.3860	 5.9400
 0.3870	 6.0200
 0.3880	 6.1490
 0.3890	 6.2660
 0.3900	 6.3600
 0.3910	 6.4700
 0.3920	 6.5830
 0.3930	 6.7050
 0.3940	 6.8250
 0.3950	 6.8660
 0.3960	 6.8840
 0.3970	 6.9640
 0.3980	 7.1560
 0.3990	 7.1870
 0.4000	 7.1970
 0.4010	 7.2800
 0.4020	 7.4130
 0.4030	 7.5020
 0.4040	 7.5610
 0.4050	 7.6220
 0.4060	 7.6660
 0.4070	 7.7250
 0.4080	 7.7890
 0.4090	 7.8250
 0.4100	 7.9030
 0.4110	 7.9740
 0.4120	 8.0200
 0.4130	 8.1080
 0.4140	 8.1910
 0.4150	 8.2620
 0.4160	 8.3290
 0.4170	 8.4150
 0.4180	 8.4990
 0.4190	 8.5770
 0.4200	 8.6580
 0.4210	 8.7360
 0.4220	 8.8230
 0.4230	 8.9180
 0.4240	 8.9800
 0.4250	 9.0340
 0.4260	 9.1090
 0.4270	 9.2220
 0.4280	 9.2790
 0.4290	 9.3340
 0.4300	 9.4170
 0.4310	 9.5150
 0.4320	 9.6000
 0.4330	 9.6820
 0.4340	 9.7740
 0.4350	 9.8460
 0.4360	 9.9260
 0.4370	10.0010
 0.4380	10.0370
 0.4390	10.0840
 0.4400	10.1460
 0.4410	10.2120
 0.4420	10.2680
 0.4430	10.3120
 0.4440	10.3640
 0.4450	10.4390
 0.4460	10.4780
 0.4470	10.5180
 0.4480	10.5710
 0.4490	10.6120
 0.4500	10.6520
 0.4510	10.6950
 0.4520	10.7390
 0.4530	10.7590
 0.4540	10.7880
 0.4550	10.8320
 0.4560	10.8740
 0.4570	10.9000
 0.4580	10.9260
 0.4590	10.9620
 0.4600	10.9920
 0.4610	11.0220
 0.4620	11.0510
 0.4630	11.0780
 0.4640	11.0980
 0.4650	11.1090
 0.4660	11.1170
 0.4670	11.1390
 0.4680	11.1650
 0.4690	11.1840
 0.4700	11.1900
 0.4710	11.1950
 0.4720	11.2110
 0.4730	11.2340
 0.4740	11.2510
 0.4750	11.2590
 0.4760	11.2690
 0.4770	11.2870
 0.4780	11.3040
 0.4790	11.3160
 0.4800	11.3240
 0.4810	11.3330
 0.4820	11.3520
 0.4830	11.3680
 0.4840	11.3820
 0.4850	11.4010
 0.4860	11.4180
 0.4870	11.4330
 0.4880	11.4460
 0.4890	11.4600
 0.4900	11.4800
 0.4910	11.5010
 0.4920	11.5200
 0.4930	11.5470
 0.4940	11.5780
 0.4950	11.6060
 0.4960	11.6280
 0.4970	11.6670
 0.4980	11.7100
 0.4990	11.7430
 0.5000	11.7880
 0.5010	11.8360
 0.5020	11.8850
 0.5030	11.9450
 0.5040	12.0090
 0.5050	12.0770
 0.5060	12.1520
 0.5070	12.2320
 0.5080	12.3210
 0.5090	12.4200
 0.5100	12.5300
 0.5110	12.6430
 0.5120	12.7680
 0.5130	12.9080
 0.5140	13.0540
 0.5150	13.2100
 0.5160	13.3790
 0.5170	13.5620
 0.5180	13.7490
 0.5190	13.9440
 0.5200	14.1470
 0.5210	14.3590
 0.5220	14.5750
 0.5230	14.7920
 0.5240	15.0080
 0.5250	15.2250
 0.5260	15.4370
 0.5270	15.6460
 0.5280	15.8530
 0.5290	16.0410
 0.5300	16.2260
 0.5310	16.4130
 0.5320	16.5900
 0.5330	16.7520
 0.5340	16.9070
 0.5350	17.0620
 0.5360	17.2080
 0.5370	17.3340
 0.5380	17.4520
 0.5390	17.5840
 0.5400	17.7140
 0.5410	17.8380
 0.5420	17.9550
 0.5430	18.0670
 0.5440	18.1730
 0.5450	18.2720
 0.5460	18.3630
 0.5470	18.4290
 0.5480	18.4900
 0.5490	18.5520
 0.5500	18.6110
 0.5510	18.6660
 0.5520	18.7140
 0.5530	18.7500
 0.5540	18.7710
 0.5550	18.7830
 0.5560	18.7860
 0.5570	18.7750
 0.5580	18.7540
 0.5590	18.7230
 0.5600	18.6820
 0.5610	18.6370
 0.5620	18.5840
 0.5630	18.5210
 0.5640	18.4480
 0.5650	18.3750
 0.5660	18.3020
 0.5670	18.2260
 0.5680	18.1420
 0.5690	18.0520
 0.5700	17.9590
 0.5710	17.8650
 0.5720	17.7620
 0.5730	17.6630
 0.5740	17.5680
 0.5750	17.4760
 0.5760	17.3870
 0.5770	17.3040
 0.5780	17.2300
 0.5790	17.1590
 0.5800	17.0930
 0.5810	17.0320
 0.5820	16.9740
 0.5830	16.9210
 0.5840	16.8740
 0.5850	16.8330
 0.5860	16.7990
 0.5870	16.7670
 0.5880	16.7360
 0.5890	16.7030
 0.5900	16.6690
 0.5910	16.6410
 0.5920	16.6200
 0.5930	16.6040
 0.5940	16.5900
 0.5950	16.5810
 0.5960	16.5800
 0.5970	16.5830
 0.5980	16.5800
 0.5990	16.5690
 0.6000	16.5550
 0.6010	16.5330
 0.6020	16.5020
 0.6030	16.4660
 0.6040	16.4260
 0.6050	16.3790
 0.6060	16.3250
 0.6070	16.2630
 0.6080	16.2010
 0.6090	16.1360
 0.6100	16.0750
 0.6110	16.0220
 0.6120	15.9440
 0.6130	15.8510
 0.6140	15.7580
 0.6150	15.6800
 0.6160	15.6080
 0.6170	15.5430
 0.6180	15.4820
 0.6190	15.4280
 0.6200	15.3830
 0.6210	15.3420
 0.6220	15.3000
 0.6230	15.2690
 0.6240	15.2460
 0.6250	15.2250
 0.6260	15.2090
 0.6270	15.1980
 0.6280	15.1930
 0.6290	15.1890
 0.6300	15.1890
 0.6310	15.1890
 0.6320	15.1850
 0.6330	15.1780
 0.6340	15.1620
 0.6350	15.1410
 0.6360	15.1150
 0.6370	15.0770
 0.6380	15.0320
 0.6390	14.9780
 0.6400	14.9120
 0.6410	14.8440
 0.6420	14.7720
 0.6430	14.6940
 0.6440	14.6110
 0.6450	14.5240
 0.6460	14.4370
 0.6470	14.3510
 0.6480	14.2660
 0.6490	14.1820
 0.6500	14.1040
 0.6510	14.0330
 0.6520	13.9590
 0.6530	13.8860
 0.6540	13.8160
 0.6550	13.7400
 0.6560	13.6530
 0.6570	13.5590
 0.6580	13.4630
 0.6590	13.3590
 0.6600	13.2510
 0.6610	13.1460
 0.6620	13.0460
 0.6630	12.9470
 0.6640	12.8550
 0.6650	12.7750
 0.6660	12.7010
 0.6670	12.6340
 0.6680	12.5780
 0.6690	12.5410
 0.6700	12.5060
 0.6710	12.4790
 0.6720	12.4600
 0.6730	12.4460
 0.6740	12.4460
 0.6750	12.4510
 0.6760	12.4540
 0.6770	12.4620
 0.6780	12.4760
 0.6790	12.4980
 0.6800	12.5360
 0.6810	12.5790
 0.6820	12.6360
 0.6830	12.7140
 0.6840	12.8100
 0.6850	12.9310
 0.6860	13.0860
 0.6870	13.2820
 0.6880	13.5210
 0.6890	13.8070
 0.6900	14.1480
 0.6910	14.5540
 0.6920	15.0230
 0.6930	15.5530
 0.6940	16.1420
 0.6950	16.7910
 0.6960	17.5010
 0.6970	18.2640
 0.6980	19.0680
 0.6990	19.9180
 0.7000	20.8010
 0.7010	21.7100
 0.7020	22.6390
 0.7030	23.5750
 0.7040	24.5130
 0.7050	25.4480
 0.7060	26.3800
 0.7070	27.3010
 0.7080	28.2110
 0.7090	29.1110
 0.7100	29.9860
 0.7110	30.8500
 0.7120	31.7050
 0.7130	32.5420
 0.7140	33.3530
 0.7150	34.1490
 0.7160	34.9350
 0.7170	35.6980
 0.7180	36.4400
 0.7190	37.1600
 0.7200	37.8600
 0.7210	38.5450
 0.7220	39.2070
 0.7230	39.8400
 0.7240	40.4490
 0.7250	41.0340
 0.7260	41.5950
 0.7270	42.1300
 0.7280	42.6360
 0.7290	43.1250
 0.7300	43.5900
 0.7310	44.0210
 0.7320	44.4350
 0.7330	44.8280
 0.7340	45.2000
 0.7350	45.5530
 0.7360	45.8830
 0.7370	46.1970
 0.7380	46.4970
 0.7390	46.7790
 0.7400	47.0430
 0.7410	47.2900
 0.7420	47.5240
 0.7430	47.7480
 0.7440	47.9580
 0.7450	48.1510
 0.7460	48.3340
 0.7470	48.5090
 0.7480	48.6760
 0.7490	48.8330
 0.7500	48.9720
 0.7510	49.1020
 0.7520	49.2300
 0.7530	49.3550
 0.7540	49.4630
 0.7550	49.5660
 0.7560	49.6670
 0.7570	49.7600
 0.7580	49.8460
 0.7590	49.9340
 0.7600	50.0220
 0.7610	50.0930
 0.7620	50.1590
 0.7630	50.2280
 0.7640	50.2970
 0.7650	50.3600
 0.7660	50.4210
 0.7670	50.4810
 0.7680	50.5360
 0.7690	50.5970
 0.7700	50.6530
 0.7710	50.7030
 0.7720	50.7560
 0.7730	50.8090
 0.7740	50.8570
 0.7750	50.8990
 0.7760	50.9510
 0.7770	50.9990
 0.7780	51.0440
 0.7790	51.0950
 0.7800	51.1370
 0.7810	51.1800
 0.7820	51.2270
 0.7830	51.2740
 0.7840	51.3190
 0.7850	51.3600
 0.7860	51.3970
 0.7870	51.4360
 0.7880	51.4790
 0.7890	51.5190
 0.7900	51.5530
 0.7910	51.6030
 0.7920	51.6440
 0.7930	51.6750
 0.7940	51.7110
 0.7950	51.7430
 0.7960	51.7770
 0.7970	51.8150
 0.7980	51.8480
 0.7990	51.8790
 0.8000	51.9070
 0.8010	51.9320
 0.8020	51.9690
 0.8030	52.0010
 0.8040	52.0260
 0.8050	52.0470
 0.8060	52.0680
 0.8070	52.0930
 0.8080	52.1190
 0.8090	52.1360
 0.8100	52.1560
 0.8110	52.1760
 0.8120	52.1960
 0.8130	52.2230
 0.8140	52.2420
 0.8150	52.2560
 0.8160	52.2730
 0.8170	52.2870
 0.8180	52.3040
 0.8190	52.3190
 0.8200	52.3300
 0.8210	52.3410
 0.8220	52.3510
 0.8230	52.3640
 0.8240	52.3800
 0.8250	52.3920
 0.8260	52.4050
 0.8270	52.4180
 0.8280	52.4200
 0.8290	52.4310
 0.8300	52.4420
 0.8310	52.4440
 0.8320	52.4540
 0.8330	52.4670
 0.8340	52.4800
 0.8350	52.4910
 0.8360	52.4940
 0.8370	52.5020
 0.8380	52.5200
 0.8390	52.5400
 0.8400	52.5560
 0.8410	52.5690
 0.8420	52.5810
 0.8430	52.5910
 0.8440	52.6040
 0.8450	52.6230
 0.8460	52.6470
 0.8470	52.6590
 0.8480	52.6740
 0.8490	52.6930
 0.8500	52.7120
 0.8510	52.7310
 0.8520	52.7480
 0.8530	52.7640
 0.8540	52.7820
 0.8550	52.8030
 0.8560	52.8230
 0.8570	52.8410
 0.8580	52.8630
 0.8590	52.8830
 0.8600	52.9050
 0.8610	52.9300
 0.8620	52.9490
 0.8630	52.9740
 0.8640	52.9990
 0.8650	53.0220
 0.8660	53.0470
 0.8670	53.0670
 0.8680	53.0890
 0.8690	53.1210
 0.8700	53.1560
 0.8710	53.1900
 0.8720	53.2170
 0.8730	53.2370
 0.8740	53.2600
 0.8750	53.2970
 0.8760	53.3370
 0.8770	53.3590
 0.8780	53.3950
 0.8790	53.4290
 0.8800	53.4540
 0.8810	53.4910
 0.8820	53.5220
 0.8830	53.5570
 0.8840	53.5970
 0.8850	53.6290
 0.8860	53.6620
 0.8870	53.6970
 0.8880	53.7350
 0.8890	53.7680
 0.8900	53.7970
 0.8910	53.8250
 0.8920	53.8580
 0.8930	53.8950
 0.8940	53.9290
 0.8950	53.9620
 0.8960	54.0000
 0.8970	54.0380
 0.8980	54.0720
 0.8990	54.1030
 0.9000	54.1370
 0.9010	54.1720
 0.9020	54.2040
 0.9030	54.2310
 0.9040	54.2620
 0.9050	54.3050
 0.9060	54.3420
 0.9070	54.3690
 0.9080	54.4140
 0.9090	54.4350
 0.9100	54.4540
 0.9110	54.4930
 0.9120	54.5300
 0.9130	54.5590
 0.9140	54.5910
 0.9150	54.6350
 0.9160	54.6630
 0.9170	54.6950
 0.9180	54.7260
 0.9190	54.7450
 0.9200	54.7670
 0.9210	54.7920
 0.9220	54.8160
 0.9230	54.8330
 0.9240	54.8520
 0.9250	54.8750
 0.9260	54.8970
 0.9270	54.9120
 0.9280	54.9170
 0.9290	54.9260
 0.9300	54.9410
 0.9310	54.9560
 0.9320	54.9570
 0.9330	54.9600
 0.9340	54.9700
 0.9350	54.9780
 0.9360	54.9880
 0.9370	54.9890
 0.9380	54.9770
 0.9390	54.9730
 0.9400	54.9700
 0.9410	54.9670
 0.9420	54.9590
 0.9430	54.9370
 0.9440	54.9170
 0.9450	54.9020
 0.9460	54.8890
 0.9470	54.8700
 0.9480	54.8300
 0.9490	54.7850
 0.9500	54.7500
 0.9510	54.7170
 0.9520	54.6740
 0.9530	54.6170
 0.9540	54.5550
 0.9550	54.5100
 0.9560	54.4690
 0.9570	54.4260
 0.9580	54.3810
 0.9590	54.3350
 0.9600	54.2940
 0.9610	54.2710
 0.9620	54.2680
 0.9630	54.2420
 0.9640	54.2050
 0.9650	54.1770
 0.9660	54.1750
 0.9670	54.1650
 0.9680	54.1610
 0.9690	54.1710
 0.9700	54.1880
 0.9710	54.1770
 0.9720	54.1590
 0.9730	54.1460
 0.9740	54.1390
 0.9750	54.1370
 0.9760	54.1190
 0.9770	54.1150
 0.9780	54.1570
 0.9790	54.1660
 0.9800	54.1720
 0.9810	54.1840
 0.9820	54.1960
 0.9830	54.2180
 0.9840	54.2300
 0.9850	54.2510
 0.9860	54.2990
 0.9870	54.2880
 0.9880	54.2920
 0.9890	54.3170
 0.9900	54.3390
 0.9910	54.3590
 0.9920	54.4390
 0.9930	54.5200
 0.9940	54.6000
 0.9950	54.6810
 0.9960	54.7620
 0.9970	54.8420
 0.9980	54.9230
 0.9990	55.0030
 1.0000	55.0840
 1.0010	55.1650
 1.0020	55.2450
 1.0030	55.3260
 1.0040	55.4060
 1.0050	55.4870
 1.0060	55.5670
 1.0070	55.6480
 1.0080	55.7290
 1.0090	55.8090
 1.0100	55.8090
 1.0110	55.8340
 1.0120	55.8590
 1.0130	55.8880
 1.0140	55.9130
 1.0150	55.9380
 1.0160	55.9620
 1.0170	55.9830
 1.0180	56.0030
 1.0190	56.0230
 1.0200	56.0440
 1.0210	56.0650
 1.0220	56.0880
 1.0230	56.1130
 1.0240	56.1400
 1.0250	56.1650
 1.0260	56.1920
 1.0270	56.2170
 1.0280	56.2420
 1.0290	56.2650
 1.0300	56.2850
 1.0310	56.3090
 1.0320	56.3330
 1.0330	56.3550
 1.0340	56.3750
 1.0350	56.3960
 1.0360	56.4190
 1.0370	56.4380
 1.0380	56.4560
 1.0390	56.4760
 1.0400	56.4930
 1.0410	56.5020
 1.0420	56.5200
 1.0430	56.5460
 1.0440	56.5650
 1.0450	56.5860
 1.0460	56.6020
 1.0470	56.6130
 1.0480	56.6260
 1.0490	56.6380
 1.0500	56.6500
 1.0510	56.6620
 1.0520	56.6760
 1.0530	56.6890
 1.0540	56.7040
 1.0550	56.7140
 1.0560	56.7200
 1.0570	56.7300
 1.0580	56.7390
 1.0590	56.7510
 1.0600	56.7720
 1.0610	56.7850
 1.0620	56.7940
 1.0630	56.8020
 1.0640	56.8050
 1.0650	56.8100
 1.0660	56.8200
 1.0670	56.8260
 1.0680	56.8310
 1.0690	56.8360
 1.0700	56.8400
 1.0710	56.8410
 1.0720	56.8450
 1.0730	56.8480
 1.0740	56.8550
 1.0750	56.8640
 1.0760	56.8700
 1.0770	56.8790
 1.0780	56.8830
 1.0790	56.8820
 1.0800	56.8830
 1.0810	56.8810
 1.0820	56.8820
 1.0830	56.8860
 1.0840	56.8860
 1.0850	56.8860
 1.0860	56.8840
 1.0870	56.8830
 1.0880	56.8780
 1.0890	56.8760
 1.0900	56.8740
 1.0910	56.8720
 1.0920	56.8710
 1.0930	56.8670
 1.0940	56.8610
 1.0950	56.8570
 1.0960	56.8510
 1.0970	56.8450
 1.0980	56.8400
 1.0990	56.8340
 1.1000	56.8230
 1.1010	56.8150
 1.1020	56.8060
 1.1030	56.7970
 1.1040	56.7940
 1.1050	56.7890
 1.1060	56.7790
 1.1070	56.7660
 1.1080	56.7540
 1.1090	56.7360
 1.1100	56.7220
 1.1110	56.7090
 1.1120	56.6970
 1.1130	56.6880
 1.1140	56.6730
 1.1150	56.6580
 1.1160	56.6400
 1.1170	56.6150
 1.1180	56.5910
 1.1190	56.5680
 1.1200	56.5410
 1.1210	56.5120
 1.1220	56.4820
 1.1230	56.4420
 1.1240	56.4010
 1.1250	56.3530
 1.1260	56.3010
 1.1270	56.2410
 1.1280	56.1770
 1.1290	56.1050
 1.1300	56.0260
 1.1310	55.9380
 1.1320	55.8440
 1.1330	55.7420
 1.1340	55.6310
 1.1350	55.5140
 1.1360	55.3890
 1.1370	55.2590
 1.1380	55.1220
 1.1390	54.9790
 1.1400	54.8310
 1.1410	54.6810
 1.1420	54.5260
 1.1430	54.3720
 1.1440	54.2180
 1.1450	54.0610
 1.1460	53.9110
 1.1470	53.7600
 1.1480	53.6200
 1.1490	53.4860
 1.1500	53.3590
 1.1510	53.2380
 1.1520	53.1240
 1.1530	53.0150
 1.1540	52.9170
 1.1550	52.8270
 1.1560	52.7460
 1.1570	52.6740
 1.1580	52.6090
 1.1590	52.5530
 1.1600	52.5010
 1.1610	52.4550
 1.1620	52.4140
 1.1630	52.3720
 1.1640	52.3360
 1.1650	52.3030
 1.1660	52.2730
 1.1670	52.2450
 1.1680	52.2220
 1.1690	52.1990
 1.1700	52.1770
 1.1710	52.1550
 1.1720	52.1330
 1.1730	52.1110
 1.1740	52.0870
 1.1750	52.0660
 1.1760	52.0420
 1.1770	52.0190
 1.1780	51.9930
 1.1790	51.9630
 1.1800	51.9370
 1.1810	51.9080
 1.1820	51.8810
 1.1830	51.8590
 1.1840	51.8340
 1.1850	51.8110
 1.1860	51.7910
 1.1870	51.7730
 1.1880	51.7580
 1.1890	51.7460
 1.1900	51.7360
 1.1910	51.7280
 1.1920	51.7260
 1.1930	51.7270
 1.1940	51.7300
 1.1950	51.7360
 1.1960	51.7440
 1.1970	51.7510
 1.1980	51.7620
 1.1990	51.7750
 1.2000	51.7890
 1.2010	51.8100
 1.2020	51.8300
 1.2030	51.8520
 1.2040	51.8780
 1.2050	51.9020
 1.2060	51.9260
 1.2070	51.9570
 1.2080	51.9860
 1.2090	52.0180
 1.2100	52.0550
 1.2110	52.0910
 1.2120	52.1250
 1.2130	52.1630
 1.2140	52.2010
 1.2150	52.2420
 1.2160	52.2860
 1.2170	52.3310
 1.2180	52.3790
 1.2190	52.4220
 1.2200	52.4640
 1.2210	52.5080
 1.2220	52.5500
 1.2230	52.5920
 1.2240	52.6350
 1.2250	52.6760
 1.2260	52.7160
 1.2270	52.7550
 1.2280	52.7930
 1.2290	52.8310
 1.2300	52.8680
 1.2310	52.9030
 1.2320	52.9390
 1.2330	52.9720
 1.2340	53.0030
 1.2350	53.0330
 1.2360	53.0610
 1.2370	53.0860
 1.2380	53.1100
 1.2390	53.1360
 1.2400	53.1620
 1.2410	53.1880
 1.2420	53.2130
 1.2430	53.2360
 1.2440	53.2590
 1.2450	53.2820
 1.2460	53.3040
 1.2470	53.3260
 1.2480	53.3450
 1.2490	53.3640
 1.2500	53.3810
 1.2510	53.4000
 1.2520	53.4170
 1.2530	53.4320
 1.2540	53.4480
 1.2550	53.4600
 1.2560	53.4680
 1.2570	53.4780
 1.2580	53.4860
 1.2590	53.4940
 1.2600	53.5030
 1.2610	53.5100
 1.2620	53.5150
 1.2630	53.5190
 1.2640	53.5210
 1.2650	53.5220
 1.2660	53.5230
 1.2670	53.5230
 1.2680	53.5220
 1.2690	53.5200
 1.2700	53.5150
 1.2710	53.5080
 1.2720	53.4990
 1.2730	53.4900
 1.2740	53.4810
 1.2750	53.4710
 1.2760	53.4610
 1.2770	53.4470
 1.2780	53.4310
 1.2790	53.4150
 1.2800	53.4010
 1.2810	53.3880
 1.2820	53.3700
 1.2830	53.3480
 1.2840	53.3250
 1.2850	53.3000
 1.2860	53.2760
 1.2870	53.2480
 1.2880	53.2200
 1.2890	53.1870
 1.2900	53.1500
 1.2910	53.1110
 1.2920	53.0700
 1.2930	53.0290
 1.2940	52.9870
 1.2950	52.9430
 1.2960	52.8970
 1.2970	52.8480
 1.2980	52.7960
 1.2990	52.7400
 1.3000	52.6810
 1.3010	52.6220
 1.3020	52.5610
 1.3030	52.4970
 1.3040	52.4340
 1.3050	52.3670
 1.3060	52.2930
 1.3070	52.2200
 1.3080	52.1430
 1.3090	52.0620
 1.3100	51.9800
 1.3110	51.8920
 1.3120	51.7980
 1.3130	51.7010
 1.3140	51.6030
 1.3150	51.5040
 1.3160	51.4010
 1.3170	51.2970
 1.3180	51.1890
 1.3190	51.0770
 1.3200	50.9590
 1.3210	50.8380
 1.3220	50.7150
 1.3230	50.5890
 1.3240	50.4590
 1.3250	50.3280
 1.3260	50.1940
 1.3270	50.0550
 1.3280	49.9170
 1.3290	49.7740
 1.3300	49.6300
 1.3310	49.4840
 1.3320	49.3330
 1.3330	49.1830
 1.3340	49.0330
 1.3350	48.8820
 1.3360	48.7320
 1.3370	48.5820
 1.3380	48.4280
 1.3390	48.2720
 1.3400	48.1160
 1.3410	47.9610
 1.3420	47.8070
 1.3430	47.6560
 1.3440	47.5060
 1.3450	47.3540
 1.3460	47.2020
 1.3470	47.0520
 1.3480	46.9030
 1.3490	46.7550
 1.3500	46.6110
 1.3510	46.4680
 1.3520	46.3220
 1.3530	46.1780
 1.3540	46.0340
 1.3550	45.8880
 1.3560	45.7420
 1.3570	45.5930
 1.3580	45.4450
 1.3590	45.2950
 1.3600	45.1410
 1.3610	44.9850
 1.3620	44.8210
 1.3630	44.6520
 1.3640	44.4780
 1.3650	44.2960
 1.3660	44.1080
 1.3670	43.9090
 1.3680	43.6980
 1.3690	43.4750
 1.3700	43.2390
 1.3710	42.9890
 1.3720	42.7250
 1.3730	42.4430
 1.3740	42.1450
 1.3750	41.8270
 1.3760	41.4860
 1.3770	41.1230
 1.3780	40.7350
 1.3790	40.3250
 1.3800	39.8920
 1.3810	39.4340
 1.3820	38.9590
 1.3830	38.4650
 1.3840	37.9530
 1.3850	37.4230
 1.3860	36.8800
 1.3870	36.3160
 1.3880	35.7490
 1.3890	35.1690
 1.3900	34.5800
 1.3910	33.9930
 1.3920	33.4010
 1.3930	32.8080
 1.3940	32.2220
 1.3950	31.6360
 1.3960	31.0600
 1.3970	30.4950
 1.3980	29.9420
 1.3990	29.4110
 1.4000	28.8940
 1.4010	28.3930
 1.4020	27.9160
 1.4030	27.4530
 1.4040	27.0130
 1.4050	26.5980
 1.4060	26.2020
 1.4070	25.8330
 1.4080	25.4850
 1.4090	25.1560
 1.4100	24.8510
 1.4110	24.5650
 1.4120	24.3000
 1.4130	24.0550
 1.4140	23.8270
 1.4150	23.6200
 1.4160	23.4290
 1.4170	23.2530
 1.4180	23.0920
 1.4190	22.9450
 1.4200	22.8090
 1.4210	22.6880
 1.4220	22.5780
 1.4230	22.4790
 1.4240	22.3900
 1.4250	22.3080
 1.4260	22.2360
 1.4270	22.1700
 1.4280	22.1130
 1.4290	22.0610
 1.4300	22.0160
 1.4310	21.9780
 1.4320	21.9460
 1.4330	21.9190
 1.4340	21.8990
 1.4350	21.8820
 1.4360	21.8690
 1.4370	21.8610
 1.4380	21.8570
 1.4390	21.8550
 1.4400	21.8580
 1.4410	21.8620
 1.4420	21.8710
 1.4430	21.8820
 1.4440	21.8940
 1.4450	21.9090
 1.4460	21.9240
 1.4470	21.9410
 1.4480	21.9590
 1.4490	21.9790
 1.4500	22.0000
 1.4510	22.0230
 1.4520	22.0470
 1.4530	22.0710
 1.4540	22.0980
 1.4550	22.1270
 1.4560	22.1580
 1.4570	22.1930
 1.4580	22.2310
 1.4590	22.2730
 1.4600	22.3190
 1.4610	22.3680
 1.4620	22.4220
 1.4630	22.4820
 1.4640	22.5460
 1.4650	22.6140
 1.4660	22.6870
 1.4670	22.7650
 1.4680	22.8480
 1.4690	22.9360
 1.4700	23.0290
 1.4710	23.1260
 1.4720	23.2260
 1.4730	23.3300
 1.4740	23.4380
 1.4750	23.5480
 1.4760	23.6630
 1.4770	23.7790
 1.4780	23.8970
 1.4790	24.0170
 1.4800	24.1390
 1.4810	24.2610
 1.4820	24.3860
 1.4830	24.5120
 1.4840	24.6390
 1.4850	24.7670
 1.4860	24.8970
 1.4870	25.0300
 1.4880	25.1610
 1.4890	25.2930
 1.4900	25.4250
 1.4910	25.5570
 1.4920	25.6900
 1.4930	25.8250
 1.4940	25.9600
 1.4950	26.0960
 1.4960	26.2320
 1.4970	26.3680
 1.4980	26.5030
 1.4990	26.6390
 1.5000	26.7740
 1.5010	26.9090
 1.5020	27.0440
 1.5030	27.1810
 1.5040	27.3160
 1.5050	27.4500
 1.5060	27.5850
 1.5070	27.7180
 1.5080	27.8510
 1.5090	27.9860
 1.5100	28.1190
 1.5110	28.2500
 1.5120	28.3830
 1.5130	28.5130
 1.5140	28.6440
 1.5150	28.7740
 1.5160	28.9030
 1.5170	29.0320
 1.5180	29.1590
 1.5190	29.2850
 1.5200	29.4110
 1.5210	29.5330
 1.5220	29.6560
 1.5230	29.7790
 1.5240	29.9010
 1.5250	30.0220
 1.5260	30.1420
 1.5270	30.2600
 1.5280	30.3790
 1.5290	30.4960
 1.5300	30.6130
 1.5310	30.7290
 1.5320	30.8400
 1.5330	30.9510
 1.5340	31.0620
 1.5350	31.1710
 1.5360	31.2820
 1.5370	31.3910
 1.5380	31.5000
 1.5390	31.6090
 1.5400	31.7130
 1.5410	31.8190
 1.5420	31.9230
 1.5430	32.0250
 1.5440	32.1280
 1.5450	32.2290
 1.5460	32.3290
 1.5470	32.4290
 1.5480	32.5280
 1.5490	32.6270
 1.5500	32.7250
 1.5510	32.8210
 1.5520	32.9160
 1.5530	33.0100
 1.5540	33.1030
 1.5550	33.1950
 1.5560	33.2840
 1.5570	33.3720
 1.5580	33.4600
 1.5590	33.5490
 1.5600	33.6370
 1.5610	33.7230
 1.5620	33.8080
 1.5630	33.8910
 1.5640	33.9740
 1.5650	34.0580
 1.5660	34.1400
 1.5670	34.2230
 1.5680	34.3050
 1.5690	34.3860
 1.5700	34.4650
 1.5710	34.5440
 1.5720	34.6210
 1.5730	34.7000
 1.5740	34.7790
 1.5750	34.8550
 1.5760	34.9300
 1.5770	35.0030
 1.5780	35.0760
 1.5790	35.1500
 1.5800	35.2230
 1.5810	35.2940
 1.5820	35.3650
 1.5830	35.4340
 1.5840	35.5040
 1.5850	35.5750
 1.5860	35.6460
 1.5870	35.7150
 1.5880	35.7860
 1.5890	35.8550
 1.5900	35.9210
 1.5910	35.9870
 1.5920	36.0530
 1.5930	36.1190
 1.5940	36.1850
 1.5950	36.2530
 1.5960	36.3190
 1.5970	36.3830
 1.5980	36.4470
 1.5990	36.5090
 1.6000	36.5690
 1.6010	36.6290
 1.6020	36.6910
 1.6030	36.7500
 1.6040	36.8100
 1.6050	36.8680
 1.6060	36.9220
 1.6070	36.9770
 1.6080	37.0310
 1.6090	37.0840
 1.6100	37.1390
 1.6110	37.1920
 1.6120	37.2440
 1.6130	37.2960
 1.6140	37.3460
 1.6150	37.3960
 1.6160	37.4450
 1.6170	37.4900
 1.6180	37.5370
 1.6190	37.5810
 1.6200	37.6230
 1.6210	37.6640
 1.6220	37.7020
 1.6230	37.7390
 1.6240	37.7770
 1.6250	37.8140
 1.6260	37.8500
 1.6270	37.8850
 1.6280	37.9160
 1.6290	37.9480
 1.6300	37.9800
 1.6310	38.0130
 1.6320	38.0470
 1.6330	38.0790
 1.6340	38.1110
 1.6350	38.1410
 1.6360	38.1700
 1.6370	38.1970
 1.6380	38.2220
 1.6390	38.2480
 1.6400	38.2710
 1.6410	38.2960
 1.6420	38.3210
 1.6430	38.3420
 1.6440	38.3610
 1.6450	38.3780
 1.6460	38.3930
 1.6470	38.4060
 1.6480	38.4150
 1.6490	38.4220
 1.6500	38.4270
 1.6510	38.4300
 1.6520	38.4340
 1.6530	38.4340
 1.6540	38.4310
 1.6550	38.4260
 1.6560	38.4190
 1.6570	38.4100
 1.6580	38.4000
 1.6590	38.3890
 1.6600	38.3760
 1.6610	38.3600
 1.6620	38.3420
 1.6630	38.3200
 1.6640	38.2970
 1.6650	38.2730
 1.6660	38.2470
 1.6670	38.2220
 1.6680	38.1930
 1.6690	38.1600
 1.6700	38.1240
 1.6710	38.0830
 1.6720	38.0390
 1.6730	37.9900
 1.6740	37.9370
 1.6750	37.8800
 1.6760	37.8170
 1.6770	37.7520
 1.6780	37.6850
 1.6790	37.6120
 1.6800	37.5380
 1.6810	37.4630
 1.6820	37.3820
 1.6830	37.3000
 1.6840	37.2170
 1.6850	37.1300
 1.6860	37.0430
 1.6870	36.9550
 1.6880	36.8680
 1.6890	36.7790
 1.6900	36.6900
 1.6910	36.5990
 1.6920	36.5100
 1.6930	36.4220
 1.6940	36.3360
 1.6950	36.2520
 1.6960	36.1710
 1.6970	36.0930
 1.6980	36.0170
 1.6990	35.9450
 1.7000	35.8740
 1.7010	35.8070
 1.7020	35.7380
 1.7030	35.6730
 1.7040	35.6060
 1.7050	35.5360
 1.7060	35.4690
 1.7070	35.4030
 1.7080	35.3370
 1.7090	35.2710
 1.7100	35.2060
 1.7110	35.1390
 1.7120	35.0750
 1.7130	35.0130
 1.7140	34.9530
 1.7150	34.8960
 1.7160	34.8410
 1.7170	34.7890
 1.7180	34.7410
 1.7190	34.6950
 1.7200	34.6510
 1.7210	34.6080
 1.7220	34.5650
 1.7230	34.5240
 1.7240	34.4860
 1.7250	34.4510
 1.7260	34.4170
 1.7270	34.3840
 1.7280	34.3530
 1.7290	34.3240
 1.7300	34.3000
 1.7310	34.2750
 1.7320	34.2540
 1.7330	34.2320
 1.7340	34.2100
 1.7350	34.1880
 1.7360	34.1650
 1.7370	34.1390
 1.7380	34.1130
 1.7390	34.0820
 1.7400	34.0470
 1.7410	34.0090
 1.7420	33.9650
 1.7430	33.9190
 1.7440	33.8700
 1.7450	33.8180
 1.7460	33.7630
 1.7470	33.7080
 1.7480	33.6500
 1.7490	33.5950
 1.7500	33.5430
 1.7510	33.4890
 1.7520	33.4340
 1.7530	33.3820
 1.7540	33.3300
 1.7550	33.2820
 1.7560	33.2350
 1.7570	33.1900
 1.7580	33.1460
 1.7590	33.1050
 1.7600	33.0670
 1.7610	33.0280
 1.7620	32.9920
 1.7630	32.9560
 1.7640	32.9230
 1.7650	32.8920
 1.7660	32.8630
 1.7670	32.8380
 1.7680	32.8120
 1.7690	32.7870
 1.7700	32.7630
 1.7710	32.7380
 1.7720	32.7150
 1.7730	32.6930
 1.7740	32.6720
 1.7750	32.6530
 1.7760	32.6330
 1.7770	32.6140
 1.7780	32.5960
 1.7790	32.5780
 1.7800	32.5630
 1.7810	32.5510
 1.7820	32.5390
 1.7830	32.5290
 1.7840	32.5220
 1.7850	32.5170
 1.7860	32.5130
 1.7870	32.5120
 1.7880	32.5100
 1.7890	32.5080
 1.7900	32.5060
 1.7910	32.5060
 1.7920	32.5080
 1.7930	32.5100
 1.7940	32.5150
 1.7950	32.5190
 1.7960	32.5200
 1.7970	32.5240
 1.7980	32.5290
 1.7990	32.5350
 1.8000	32.5440
 1.8010	32.5520
 1.8020	32.5580
 1.8030	32.5650
 1.8040	32.5720
 1.8050	32.5800
 1.8060	32.5900
 1.8070	32.5970
 1.8080	32.6030
 1.8090	32.6090
 1.8100	32.6120
 1.8110	32.6190
 1.8120	32.6280
 1.8130	32.6360
 1.8140	32.6420
 1.8150	32.6430
 1.8160	32.6430
 1.8170	32.6410
 1.8180	32.6400
 1.8190	32.6400
 1.8200	32.6390
 1.8210	32.6370
 1.8220	32.6340
 1.8230	32.6320
 1.8240	32.6270
 1.8250	32.6210
 1.8260	32.6140
 1.8270	32.5890
 1.8280	32.5640
 1.8290	32.5390
 1.8300	32.5130
 1.8310	32.4880
 1.8320	32.4630
 1.8330	32.4380
 1.8340	32.4130
 1.8350	32.4130
 1.8360	32.3690
 1.8370	32.3210
 1.8380	32.2720
 1.8390	32.2160
 1.8400	32.1600
 1.8410	32.0920
 1.8420	32.0180
 1.8430	31.9350
 1.8440	31.8450
 1.8450	31.7510
 1.8460	31.6460
 1.8470	31.5350
 1.8480	31.4130
 1.8490	31.2760
 1.8500	31.1310
 1.8510	30.9800
 1.8520	30.8140
 1.8530	30.6340
 1.8540	30.4490
 1.8550	30.2460
 1.8560	30.0260
 1.8570	29.7970
 1.8580	29.5540
 1.8590	29.2950
 1.8600	29.0210
 1.8610	28.7320
 1.8620	28.4260
 1.8630	28.1030
 1.8640	27.7620
 1.8650	27.4060
 1.8660	27.0340
 1.8670	26.6360
 1.8680	26.2210
 1.8690	25.7890
 1.8700	25.3410
 1.8710	24.8750
 1.8720	24.4010
 1.8730	23.9160
 1.8740	23.4210
 1.8750	22.9170
 1.8760	22.3990
 1.8770	21.8790
 1.8780	21.3530
 1.8790	20.8240
 1.8800	20.3050
 1.8810	19.7920
 1.8820	19.2790
 1.8830	18.7700
 1.8840	18.2680
 1.8850	17.7670
 1.8860	17.2790
 1.8870	16.8040
 1.8880	16.3420
 1.8890	15.9020
 1.8900	15.4770
 1.8910	15.0730
 1.8920	14.6850
 1.8930	14.3230
 1.8940	13.9800
 1.8950	13.6590
 1.8960	13.3630
 1.8970	13.0850
 1.8980	12.8280
 1.8990	12.5890
 1.9000	12.3690
 1.9010	12.1710
 1.9020	11.9870
 1.9030	11.8210
 1.9040	11.6720
 1.9050	11.5380
 1.9060	11.4150
 1.9070	11.3060
 1.9080	11.2110
 1.9090	11.1250
 1.9100	11.0510
 1.9110	10.9830
 1.9120	10.9250
 1.9130	10.8720
 1.9140	10.8280
 1.9150	10.7870
 1.9160	10.7520
 1.9170	10.7220
 1.9180	10.6950
 1.9190	10.6720
 1.9200	10.6560
 1.9210	10.6440
 1.9220	10.6330
 1.9230	10.6250
 1.9240	10.6200
 1.9250	10.6160
 1.9260	10.6160
 1.9270	10.6220
 1.9280	10.6310
 1.9290	10.6420
 1.9300	10.6530
 1.9310	10.6650
 1.9320	10.6800
 1.9330	10.6960
 1.9340	10.7170
 1.9350	10.7370
 1.9360	10.7580
 1.9370	10.7820
 1.9380	10.8070
 1.9390	10.8320
 1.9400	10.8600
 1.9410	10.8910
 1.9420	10.9260
 1.9430	10.9600
 1.9440	10.9960
 1.9450	11.0320
 1.9460	11.0690
 1.9470	11.1060
 1.9480	11.1470
 1.9490	11.1900
 1.9500	11.2330
 1.9510	11.2760
 1.9520	11.3200
 1.9530	11.3660
 1.9540	11.4140
 1.9550	11.4630
 1.9560	11.5150
 1.9570	11.5660
 1.9580	11.6160
 1.9590	11.6680
 1.9600	11.7210
 1.9610	11.7740
 1.9620	11.8270
 1.9630	11.8810
 1.9640	11.9380
 1.9650	11.9950
 1.9660	12.0540
 1.9670	12.1140
 1.9680	12.1740
 1.9690	12.2320
 1.9700	12.2930
 1.9710	12.3550
 1.9720	12.4190
 1.9730	12.4860
 1.9740	12.5520
 1.9750	12.6190
 1.9760	12.6870
 1.9770	12.7540
 1.9780	12.8230
 1.9790	12.8920
 1.9800	12.9610
 1.9810	13.0320
 1.9820	13.1060
 1.9830	13.1770
 1.9840	13.2470
 1.9850	13.3190
 1.9860	13.3890
 1.9870	13.4640
 1.9880	13.5400
 1.9890	13.6150
 1.9900	13.6930
 1.9910	13.7680
 1.9920	13.8440
 1.9930	13.9230
 1.9940	13.9980
 1.9950	14.0690
 1.9960	14.1440
 1.9970	14.2190
 1.9980	14.2940
 1.9990	14.3730
 2.0000	14.4490
 2.0010	14.5230
 2.0020	14.6010
 2.0030	14.6780
 2.0040	14.7540
 2.0050	14.8290
 2.0060	14.9060
 2.0070	14.9800
 2.0080	15.0500
 2.0090	15.1210
 2.0100	15.1910
 2.0110	15.2620
 2.0120	15.3360
 2.0130	15.4070
 2.0140	15.4770
 2.0150	15.5490
 2.0160	15.6210
 2.0170	15.6930
 2.0180	15.7620
 2.0190	15.8300
 2.0200	15.8970
 2.0210	15.9560
 2.0220	16.0200
 2.0230	16.0850
 2.0240	16.1480
 2.0250	16.2100
 2.0260	16.2730
 2.0270	16.3350
 2.0280	16.3990
 2.0290	16.4590
 2.0300	16.5170
 2.0310	16.5730
 2.0320	16.6250
 2.0330	16.6780
 2.0340	16.7340
 2.0350	16.7860
 2.0360	16.8340
 2.0370	16.8850
 2.0380	16.9340
 2.0390	16.9820
 2.0400	17.0280
 2.0410	17.0770
 2.0420	17.1250
 2.0430	17.1720
 2.0440	17.2180
 2.0450	17.2650
 2.0460	17.3090
 2.0470	17.3490
 2.0480	17.3910
 2.0490	17.4350
 2.0500	17.4780
 2.0510	17.5210
 2.0520	17.5640
 2.0530	17.6040
 2.0540	17.6470
 2.0550	17.6930
 2.0560	17.7370
 2.0570	17.7820
 2.0580	17.8290
 2.0590	17.8740
 2.0600	17.9180
 2.0610	17.9650
 2.0620	18.0120
 2.0630	18.0590
 2.0640	18.1080
 2.0650	18.1550
 2.0660	18.1980
 2.0670	18.2450
 2.0680	18.2910
 2.0690	18.3380
 2.0700	18.3900
 2.0710	18.4390
 2.0720	18.4880
 2.0730	18.5360
 2.0740	18.5850
 2.0750	18.6340
 2.0760	18.6830
 2.0770	18.7330
 2.0780	18.7800
 2.0790	18.8230
 2.0800	18.8680
 2.0810	18.9120
 2.0820	18.9580
 2.0830	19.0080
 2.0840	19.0570
 2.0850	19.1090
 2.0860	19.1570
 2.0870	19.2030
 2.0880	19.2500
 2.0890	19.2950
 2.0900	19.3350
 2.0910	19.3800
 2.0920	19.4230
 2.0930	19.4690
 2.0940	19.5190
 2.0950	19.5650
 2.0960	19.6110
 2.0970	19.6570
 2.0980	19.7010
 2.0990	19.7460
 2.1000	19.7900
 2.1010	19.8330
 2.1020	19.8750
 2.1030	19.9170
 2.1040	19.9600
 2.1050	20.0000
 2.1060	20.0410
 2.1070	20.0800
 2.1080	20.1220
 2.1090	20.1660
 2.1100	20.2100
 2.1110	20.2590
 2.1120	20.3020
 2.1130	20.3420
 2.1140	20.3810
 2.1150	20.4170
 2.1160	20.4540
 2.1170	20.4870
 2.1180	20.5230
 2.1190	20.5620
 2.1200	20.6000
 2.1210	20.6390
 2.1220	20.6780
 2.1230	20.7160
 2.1240	20.7520
 2.1250	20.7880
 2.1260	20.8250
 2.1270	20.8600
 2.1280	20.8920
 2.1290	20.9260
 2.1300	20.9610
 2.1310	20.9930
 2.1320	21.0250
 2.1330	21.0570
 2.1340	21.0850
 2.1350	21.1140
 2.1360	21.1440
 2.1370	21.1730
 2.1380	21.2010
 2.1390	21.2270
 2.1400	21.2520
 2.1410	21.2770
 2.1420	21.3020
 2.1430	21.3250
 2.1440	21.3510
 2.1450	21.3800
 2.1460	21.4050
 2.1470	21.4260
 2.1480	21.4500
 2.1490	21.4720
 2.1500	21.4950
 2.1510	21.5180
 2.1520	21.5430
 2.1530	21.5700
 2.1540	21.5920
 2.1550	21.6150
 2.1560	21.6350
 2.1570	21.6460
 2.1580	21.6630
 2.1590	21.6820
 2.1600	21.7020
 2.1610	21.7240
 2.1620	21.7450
 2.1630	21.7660
 2.1640	21.7880
 2.1650	21.8050
 2.1660	21.8180
 2.1670	21.8370
 2.1680	21.8570
 2.1690	21.8750
 2.1700	21.8980
 2.1710	21.9180
 2.1720	21.9340
 2.1730	21.9540
 2.1740	21.9810
 2.1750	22.0030
 2.1760	22.0250
 2.1770	22.0450
 2.1780	22.0620
 2.1790	22.0810
 2.1800	22.1050
 2.1810	22.1260
 2.1820	22.1470
 2.1830	22.1660
 2.1840	22.1870
 2.1850	22.2060
 2.1860	22.2290
 2.1870	22.2570
 2.1880	22.2800
 2.1890	22.3040
 2.1900	22.3250
 2.1910	22.3420
 2.1920	22.3620
 2.1930	22.3850
 2.1940	22.4050
 2.1950	22.4270
 2.1960	22.4470
 2.1970	22.4630
 2.1980	22.4800
 2.1990	22.4990
 2.2000	22.5150
 2.2010	22.5290
 2.2020	22.5430
 2.2030	22.5530
 2.2040	22.5650
 2.2050	22.5760
 2.2060	22.5910
 2.2070	22.6010
 2.2080	22.6090
 2.2090	22.6160
 2.2100	22.6190
 2.2110	22.6230
 2.2120	22.6310
 2.2130	22.6320
 2.2140	22.6270
 2.2150	22.6230
 2.2160	22.6130
 2.2170	22.6090
 2.2180	22.6080
 2.2190	22.6030
 2.2200	22.6020
 2.2210	22.5930
 2.2220	22.5800
 2.2230	22.5670
 2.2240	22.5550
 2.2250	22.5360
 2.2260	22.5160
 2.2270	22.4920
 2.2280	22.4600
 2.2290	22.4260
 2.2300	22.3870
 2.2310	22.3510
 2.2320	22.3120
 2.2330	22.2670
 2.2340	22.2240
 2.2350	22.1820
 2.2360	22.1340
 2.2370	22.0860
 2.2380	22.0320
 2.2390	21.9740
 2.2400	21.9110
 2.2410	21.8440
 2.2420	21.7730
 2.2430	21.6970
 2.2440	21.6230
 2.2450	21.5500
 2.2460	21.4720
 2.2470	21.3920
 2.2480	21.3080
 2.2490	21.2160
 2.2500	21.1280
 2.2510	21.0420
 2.2520	20.9530
 2.2530	20.8650
 2.2540	20.7720
 2.2550	20.6730
 2.2560	20.5770
 2.2570	20.4780
 2.2580	20.3810
 2.2590	20.2880
 2.2600	20.1940
 2.2610	20.1030
 2.2620	20.0110
 2.2630	19.9170
 2.2640	19.8250
 2.2650	19.7350
 2.2660	19.6460
 2.2670	19.5600
 2.2680	19.4780
 2.2690	19.3960
 2.2700	19.3130
 2.2710	19.2370
 2.2720	19.1640
 2.2730	19.0910
 2.2740	19.0230
 2.2750	18.9550
 2.2760	18.8880
 2.2770	18.8200
 2.2780	18.7520
 2.2790	18.6870
 2.2800	18.6190
 2.2810	18.5550
 2.2820	18.4980
 2.2830	18.4350
 2.2840	18.3690
 2.2850	18.3010
 2.2860	18.2280
 2.2870	18.1580
 2.2880	18.0910
 2.2890	18.0210
 2.2900	17.9540
 2.2910	17.8800
 2.2920	17.7970
 2.2930	17.7160
 2.2940	17.6300
 2.2950	17.5490
 2.2960	17.4690
 2.2970	17.3950
 2.2980	17.3250
 2.2990	17.2580
 2.3000	17.1920
 2.3010	17.1340
 2.3020	17.0830
 2.3030	17.0330
 2.3040	16.9940
 2.3050	16.9570
 2.3060	16.9280
 2.3070	16.9070
 2.3080	16.8830
 2.3090	16.8720
 2.3100	16.8670
 2.3110	16.8620
 2.3120	16.8670
 2.3130	16.8830
 2.3140	16.8950
 2.3150	16.9120
 2.3160	16.9230
 2.3170	16.9340
 2.3180	16.9420
 2.3190	16.9470
 2.3200	16.9470
 2.3210	16.9470
 2.3220	16.9400
 2.3230	16.9240
 2.3240	16.9100
 2.3250	16.8930
 2.3260	16.8740
 2.3270	16.8560
 2.3280	16.8270
 2.3290	16.7870
 2.3300	16.7510
 2.3310	16.7080
 2.3320	16.6690
 2.3330	16.6400
 2.3340	16.5960
 2.3350	16.5370
 2.3360	16.4900
 2.3370	16.4400
 2.3380	16.3940
 2.3390	16.3630
 2.3400	16.3210
 2.3410	16.2660
 2.3420	16.2200
 2.3430	16.1720
 2.3440	16.1280
 2.3450	16.0890
 2.3460	16.0510
 2.3470	16.0140
 2.3480	15.9800
 2.3490	15.9510
 2.3500	15.9220
 2.3510	15.8940
 2.3520	15.8690
 2.3530	15.8480
 2.3540	15.8270
 2.3550	15.8110
 2.3560	15.7990
 2.3570	15.7810
 2.3580	15.7610
 2.3590	15.7460
 2.3600	15.7180
 2.3610	15.6830
 2.3620	15.6540
 2.3630	15.6200
 2.3640	15.5870
 2.3650	15.5690
 2.3660	15.5480
 2.3670	15.5260
 2.3680	15.5050
 2.3690	15.4750
 2.3700	15.4480
 2.3710	15.4180
 2.3720	15.3870
 2.3730	15.3610
 2.3740	15.3330
 2.3750	15.3050
 2.3760	15.2720
 2.3770	15.2330
 2.3780	15.1960
 2.3790	15.1630
 2.3800	15.1330
 2.3810	15.1090
 2.3820	15.0850
 2.3830	15.0480
 2.3840	15.0010
 2.3850	14.9530
 2.3860	14.9010
 2.3870	14.8570
 2.3880	14.8160
 2.3890	14.7730
 2.3900	14.7370
 2.3910	14.6960
 2.3920	14.6610
 2.3930	14.6280
 2.3940	14.5840
 2.3950	14.5380
 2.3960	14.4930
 2.3970	14.4450
 2.3980	14.4080
 2.3990	14.3720
 2.4000	14.3310
 2.4010	14.3010
 2.4020	14.2640
 2.4030	14.2200
 2.4040	14.1870
 2.4050	14.1440
 2.4060	14.0970
 2.4070	14.0650
 2.4080	14.0360
 2.4090	13.9980
 2.4100	13.9570
 2.4110	13.9020
 2.4120	13.8520
 2.4130	13.8220
 2.4140	13.7850
 2.4150	13.7630
 2.4160	13.7360
 2.4170	13.6810
 2.4180	13.6480
 2.4190	13.6170
 2.4200	13.5620
 2.4210	13.5200
 2.4220	13.4830
 2.4230	13.4260
 2.4240	13.3830
 2.4250	13.3450
 2.4260	13.2940
 2.4270	13.2440
 2.4280	13.1980
 2.4290	13.1500
 2.4300	13.1010
 2.4310	13.0610
 2.4320	13.0160
 2.4330	12.9750
 2.4340	12.9300
 2.4350	12.8830
 2.4360	12.8460
 2.4370	12.7820
 2.4380	12.7380
 2.4390	12.6960
 2.4400	12.6350
 2.4410	12.6050
 2.4420	12.5470
 2.4430	12.4790
 2.4440	12.4390
 2.4450	12.3990
 2.4460	12.3710
 2.4470	12.3420
 2.4480	12.3020
 2.4490	12.2510
 2.4500	12.1920
 2.4510	12.1440
 2.4520	12.1110
 2.4530	12.0710
 2.4540	12.0220
 2.4550	11.9680
 2.4560	11.9010
 2.4570	11.8360
 2.4580	11.7880
 2.4590	11.7570
 2.4600	11.7270
 2.4610	11.6880
 2.4620	11.6650
 2.4630	11.6520
 2.4640	11.6270
 2.4650	11.6120
 2.4660	11.6110
 2.4670	11.5690
 2.4680	11.5190
 2.4690	11.4580
 2.4700	11.4150
 2.4710	11.3780
 2.4720	11.3470
 2.4730	11.3550
 2.4740	11.3250
 2.4750	11.2590
 2.4760	11.2140
 2.4770	11.1460
 2.4780	11.1210
 2.4790	11.1480
 2.4800	11.1540
 2.4810	11.1750
 2.4820	11.1530
 2.4830	11.1140
 2.4840	11.0700
 2.4850	11.0460
 2.4860	11.0390
 2.4870	11.0300
 2.4880	10.9980
 2.4890	10.9880
 2.4900	10.9900
 2.4910	10.9790
 2.4920	10.9790
 2.4930	10.9580
 2.4940	10.9410
 2.4950	10.9180
 2.4960	10.9470
 2.4970	10.9840
 2.4980	10.9110
 2.4990	10.8750
 2.5000	10.8710
