Name: Quercus lobata 2
Type: vegetation
Class: Tree
Genus: Quercus
Species: lobata
Sample No.: VH183
Owner: UCSB
Wavelength Range: VSWIR
Origin: 34.7146; -120.0588; WGS84
Collection Date: 6/9/2013
Description: Samples were collected as part of the HyspIRI Airborne Campaign. 48 individual plants were sampled in three times in 2013 - spring  summer  and fall. The name of the sample includes a 1  2  or 3 which references a different individual of the species. Samples were taken to JPL and processed within 48 hours of collection. The same leaves were processed in the Nicolet and then measured using the ASD.
Measurement: Bidirectional reflectance
First Column: X
Second Column: Y
X Units: Wavelength (micrometers)
Y Units: Reflectance (percentage)
First X Value: 0.35
Last X Value: 2.5
Number of X Values: 2151
Additional Information: vegetation.tree.quercus.lobata.vswir.vh183.ucsb.asd.ancillary.txt

 0.3500	 6.5350
 0.3510	 6.5310
 0.3520	 6.5670
 0.3530	 6.5520
 0.3540	 6.4120
 0.3550	 6.3330
 0.3560	 6.2820
 0.3570	 6.3070
 0.3580	 6.4580
 0.3590	 6.4510
 0.3600	 6.2950
 0.3610	 6.1330
 0.3620	 6.2450
 0.3630	 6.3050
 0.3640	 6.3530
 0.3650	 6.4460
 0.3660	 6.3440
 0.3670	 6.3170
 0.3680	 6.3930
 0.3690	 6.4160
 0.3700	 6.4400
 0.3710	 6.4210
 0.3720	 6.3680
 0.3730	 6.3950
 0.3740	 6.3570
 0.3750	 6.2890
 0.3760	 6.2680
 0.3770	 6.3500
 0.3780	 6.4260
 0.3790	 6.4500
 0.3800	 6.4620
 0.3810	 6.4390
 0.3820	 6.4490
 0.3830	 6.5050
 0.3840	 6.4920
 0.3850	 6.4920
 0.3860	 6.5510
 0.3870	 6.6680
 0.3880	 6.6710
 0.3890	 6.6500
 0.3900	 6.6530
 0.3910	 6.6940
 0.3920	 6.7670
 0.3930	 6.8500
 0.3940	 6.9140
 0.3950	 6.9390
 0.3960	 6.9440
 0.3970	 6.9510
 0.3980	 6.9860
 0.3990	 7.0640
 0.4000	 7.1400
 0.4010	 7.1930
 0.4020	 7.2400
 0.4030	 7.2690
 0.4040	 7.3090
 0.4050	 7.3700
 0.4060	 7.4240
 0.4070	 7.4820
 0.4080	 7.5440
 0.4090	 7.6050
 0.4100	 7.6900
 0.4110	 7.7570
 0.4120	 7.7950
 0.4130	 7.8550
 0.4140	 7.9210
 0.4150	 8.0040
 0.4160	 8.1000
 0.4170	 8.1590
 0.4180	 8.2100
 0.4190	 8.2680
 0.4200	 8.3450
 0.4210	 8.4180
 0.4220	 8.4810
 0.4230	 8.5370
 0.4240	 8.5720
 0.4250	 8.6160
 0.4260	 8.6660
 0.4270	 8.7110
 0.4280	 8.7620
 0.4290	 8.8020
 0.4300	 8.8310
 0.4310	 8.8710
 0.4320	 8.8920
 0.4330	 8.9160
 0.4340	 8.9580
 0.4350	 8.9810
 0.4360	 9.0040
 0.4370	 9.0310
 0.4380	 9.0520
 0.4390	 9.0770
 0.4400	 9.1020
 0.4410	 9.1220
 0.4420	 9.1540
 0.4430	 9.1660
 0.4440	 9.1780
 0.4450	 9.2080
 0.4460	 9.2250
 0.4470	 9.2300
 0.4480	 9.2320
 0.4490	 9.2680
 0.4500	 9.2890
 0.4510	 9.3040
 0.4520	 9.3220
 0.4530	 9.3210
 0.4540	 9.3260
 0.4550	 9.3430
 0.4560	 9.3560
 0.4570	 9.3700
 0.4580	 9.3770
 0.4590	 9.3780
 0.4600	 9.3930
 0.4610	 9.3970
 0.4620	 9.3940
 0.4630	 9.3950
 0.4640	 9.4060
 0.4650	 9.4170
 0.4660	 9.4200
 0.4670	 9.4150
 0.4680	 9.4140
 0.4690	 9.4150
 0.4700	 9.4140
 0.4710	 9.4100
 0.4720	 9.4180
 0.4730	 9.4290
 0.4740	 9.4300
 0.4750	 9.4360
 0.4760	 9.4400
 0.4770	 9.4400
 0.4780	 9.4450
 0.4790	 9.4480
 0.4800	 9.4520
 0.4810	 9.4570
 0.4820	 9.4650
 0.4830	 9.4720
 0.4840	 9.4810
 0.4850	 9.4910
 0.4860	 9.4900
 0.4870	 9.4930
 0.4880	 9.5050
 0.4890	 9.5130
 0.4900	 9.5290
 0.4910	 9.5480
 0.4920	 9.5630
 0.4930	 9.5770
 0.4940	 9.5900
 0.4950	 9.6090
 0.4960	 9.6400
 0.4970	 9.6680
 0.4980	 9.6960
 0.4990	 9.7250
 0.5000	 9.7500
 0.5010	 9.7870
 0.5020	 9.8350
 0.5030	 9.8840
 0.5040	 9.9460
 0.5050	10.0140
 0.5060	10.0850
 0.5070	10.1660
 0.5080	10.2560
 0.5090	10.3570
 0.5100	10.4730
 0.5110	10.6060
 0.5120	10.7520
 0.5130	10.9110
 0.5140	11.0830
 0.5150	11.2700
 0.5160	11.4730
 0.5170	11.6920
 0.5180	11.9260
 0.5190	12.1710
 0.5200	12.4230
 0.5210	12.6780
 0.5220	12.9410
 0.5230	13.2070
 0.5240	13.4660
 0.5250	13.7140
 0.5260	13.9580
 0.5270	14.1930
 0.5280	14.4120
 0.5290	14.6130
 0.5300	14.8000
 0.5310	14.9750
 0.5320	15.1350
 0.5330	15.2800
 0.5340	15.4110
 0.5350	15.5280
 0.5360	15.6310
 0.5370	15.7220
 0.5380	15.8020
 0.5390	15.8760
 0.5400	15.9440
 0.5410	16.0110
 0.5420	16.0800
 0.5430	16.1450
 0.5440	16.2030
 0.5450	16.2580
 0.5460	16.3150
 0.5470	16.3600
 0.5480	16.3990
 0.5490	16.4340
 0.5500	16.4590
 0.5510	16.4780
 0.5520	16.4860
 0.5530	16.4800
 0.5540	16.4520
 0.5550	16.4100
 0.5560	16.3540
 0.5570	16.2790
 0.5580	16.1910
 0.5590	16.0900
 0.5600	15.9760
 0.5610	15.8590
 0.5620	15.7360
 0.5630	15.6050
 0.5640	15.4660
 0.5650	15.3240
 0.5660	15.1730
 0.5670	15.0140
 0.5680	14.8500
 0.5690	14.6810
 0.5700	14.5100
 0.5710	14.3420
 0.5720	14.1800
 0.5730	14.0260
 0.5740	13.8850
 0.5750	13.7570
 0.5760	13.6370
 0.5770	13.5230
 0.5780	13.4110
 0.5790	13.3040
 0.5800	13.2080
 0.5810	13.1250
 0.5820	13.0530
 0.5830	12.9820
 0.5840	12.9110
 0.5850	12.8410
 0.5860	12.7730
 0.5870	12.6980
 0.5880	12.6260
 0.5890	12.5680
 0.5900	12.5290
 0.5910	12.5060
 0.5920	12.4880
 0.5930	12.4660
 0.5940	12.4450
 0.5950	12.4230
 0.5960	12.4000
 0.5970	12.3750
 0.5980	12.3450
 0.5990	12.3110
 0.6000	12.2770
 0.6010	12.2390
 0.6020	12.1980
 0.6030	12.1530
 0.6040	12.1050
 0.6050	12.0500
 0.6060	11.9900
 0.6070	11.9240
 0.6080	11.8560
 0.6090	11.7810
 0.6100	11.7030
 0.6110	11.6290
 0.6120	11.5560
 0.6130	11.4850
 0.6140	11.4180
 0.6150	11.3520
 0.6160	11.2860
 0.6170	11.2230
 0.6180	11.1720
 0.6190	11.1260
 0.6200	11.0850
 0.6210	11.0480
 0.6220	11.0120
 0.6230	10.9880
 0.6240	10.9670
 0.6250	10.9460
 0.6260	10.9280
 0.6270	10.9130
 0.6280	10.9020
 0.6290	10.8940
 0.6300	10.8910
 0.6310	10.8850
 0.6320	10.8750
 0.6330	10.8630
 0.6340	10.8490
 0.6350	10.8280
 0.6360	10.8040
 0.6370	10.7730
 0.6380	10.7330
 0.6390	10.6880
 0.6400	10.6420
 0.6410	10.5900
 0.6420	10.5310
 0.6430	10.4720
 0.6440	10.4170
 0.6450	10.3610
 0.6460	10.3070
 0.6470	10.2550
 0.6480	10.2110
 0.6490	10.1720
 0.6500	10.1340
 0.6510	10.1000
 0.6520	10.0710
 0.6530	10.0440
 0.6540	10.0130
 0.6550	 9.9860
 0.6560	 9.9570
 0.6570	 9.9260
 0.6580	 9.8930
 0.6590	 9.8580
 0.6600	 9.8250
 0.6610	 9.7960
 0.6620	 9.7660
 0.6630	 9.7430
 0.6640	 9.7230
 0.6650	 9.7080
 0.6660	 9.6940
 0.6670	 9.6890
 0.6680	 9.6900
 0.6690	 9.6890
 0.6700	 9.6970
 0.6710	 9.7030
 0.6720	 9.7130
 0.6730	 9.7260
 0.6740	 9.7450
 0.6750	 9.7660
 0.6760	 9.7900
 0.6770	 9.8110
 0.6780	 9.8350
 0.6790	 9.8650
 0.6800	 9.8960
 0.6810	 9.9340
 0.6820	 9.9730
 0.6830	10.0140
 0.6840	10.0580
 0.6850	10.1140
 0.6860	10.1810
 0.6870	10.2590
 0.6880	10.3570
 0.6890	10.4890
 0.6900	10.6580
 0.6910	10.8710
 0.6920	11.1430
 0.6930	11.4780
 0.6940	11.8840
 0.6950	12.3650
 0.6960	12.9250
 0.6970	13.5630
 0.6980	14.2730
 0.6990	15.0480
 0.7000	15.8810
 0.7010	16.7620
 0.7020	17.6800
 0.7030	18.6270
 0.7040	19.5910
 0.7050	20.5620
 0.7060	21.5420
 0.7070	22.5190
 0.7080	23.4910
 0.7090	24.4570
 0.7100	25.4080
 0.7110	26.3530
 0.7120	27.2890
 0.7130	28.2070
 0.7140	29.1090
 0.7150	29.9970
 0.7160	30.8670
 0.7170	31.7210
 0.7180	32.5520
 0.7190	33.3600
 0.7200	34.1460
 0.7210	34.9090
 0.7220	35.6480
 0.7230	36.3630
 0.7240	37.0530
 0.7250	37.7150
 0.7260	38.3490
 0.7270	38.9550
 0.7280	39.5320
 0.7290	40.0810
 0.7300	40.6030
 0.7310	41.0970
 0.7320	41.5630
 0.7330	42.0020
 0.7340	42.4160
 0.7350	42.8130
 0.7360	43.1790
 0.7370	43.5220
 0.7380	43.8480
 0.7390	44.1470
 0.7400	44.4310
 0.7410	44.6980
 0.7420	44.9410
 0.7430	45.1680
 0.7440	45.3800
 0.7450	45.5750
 0.7460	45.7540
 0.7470	45.9150
 0.7480	46.0610
 0.7490	46.1950
 0.7500	46.3220
 0.7510	46.4370
 0.7520	46.5420
 0.7530	46.6370
 0.7540	46.7220
 0.7550	46.7990
 0.7560	46.8690
 0.7570	46.9290
 0.7580	46.9870
 0.7590	47.0390
 0.7600	47.0840
 0.7610	47.1290
 0.7620	47.1700
 0.7630	47.2070
 0.7640	47.2380
 0.7650	47.2670
 0.7660	47.2920
 0.7670	47.3140
 0.7680	47.3340
 0.7690	47.3550
 0.7700	47.3730
 0.7710	47.3880
 0.7720	47.4060
 0.7730	47.4180
 0.7740	47.4280
 0.7750	47.4430
 0.7760	47.4550
 0.7770	47.4680
 0.7780	47.4810
 0.7790	47.4950
 0.7800	47.5070
 0.7810	47.5180
 0.7820	47.5280
 0.7830	47.5390
 0.7840	47.5490
 0.7850	47.5550
 0.7860	47.5600
 0.7870	47.5760
 0.7880	47.5820
 0.7890	47.5860
 0.7900	47.5980
 0.7910	47.6070
 0.7920	47.6130
 0.7930	47.6180
 0.7940	47.6240
 0.7950	47.6300
 0.7960	47.6320
 0.7970	47.6320
 0.7980	47.6350
 0.7990	47.6390
 0.8000	47.6410
 0.8010	47.6410
 0.8020	47.6420
 0.8030	47.6400
 0.8040	47.6370
 0.8050	47.6360
 0.8060	47.6360
 0.8070	47.6350
 0.8080	47.6300
 0.8090	47.6230
 0.8100	47.6210
 0.8110	47.6180
 0.8120	47.6110
 0.8130	47.6050
 0.8140	47.5980
 0.8150	47.5880
 0.8160	47.5810
 0.8170	47.5840
 0.8180	47.5780
 0.8190	47.5650
 0.8200	47.5580
 0.8210	47.5530
 0.8220	47.5460
 0.8230	47.5360
 0.8240	47.5230
 0.8250	47.5170
 0.8260	47.5080
 0.8270	47.4940
 0.8280	47.4850
 0.8290	47.4780
 0.8300	47.4700
 0.8310	47.4610
 0.8320	47.4560
 0.8330	47.4490
 0.8340	47.4390
 0.8350	47.4290
 0.8360	47.4220
 0.8370	47.4140
 0.8380	47.4060
 0.8390	47.4000
 0.8400	47.3940
 0.8410	47.3900
 0.8420	47.3870
 0.8430	47.3840
 0.8440	47.3800
 0.8450	47.3770
 0.8460	47.3750
 0.8470	47.3690
 0.8480	47.3690
 0.8490	47.3700
 0.8500	47.3700
 0.8510	47.3650
 0.8520	47.3600
 0.8530	47.3590
 0.8540	47.3630
 0.8550	47.3640
 0.8560	47.3600
 0.8570	47.3570
 0.8580	47.3660
 0.8590	47.3600
 0.8600	47.3560
 0.8610	47.3610
 0.8620	47.3620
 0.8630	47.3600
 0.8640	47.3560
 0.8650	47.3550
 0.8660	47.3650
 0.8670	47.3720
 0.8680	47.3720
 0.8690	47.3700
 0.8700	47.3740
 0.8710	47.3750
 0.8720	47.3750
 0.8730	47.3840
 0.8740	47.3880
 0.8750	47.3910
 0.8760	47.3940
 0.8770	47.3990
 0.8780	47.4010
 0.8790	47.4000
 0.8800	47.3990
 0.8810	47.4090
 0.8820	47.4170
 0.8830	47.4210
 0.8840	47.4250
 0.8850	47.4270
 0.8860	47.4300
 0.8870	47.4300
 0.8880	47.4250
 0.8890	47.4350
 0.8900	47.4480
 0.8910	47.4560
 0.8920	47.4520
 0.8930	47.4550
 0.8940	47.4580
 0.8950	47.4600
 0.8960	47.4660
 0.8970	47.4700
 0.8980	47.4740
 0.8990	47.4770
 0.9000	47.4740
 0.9010	47.4810
 0.9020	47.4870
 0.9030	47.4860
 0.9040	47.4950
 0.9050	47.5020
 0.9060	47.5060
 0.9070	47.5060
 0.9080	47.5050
 0.9090	47.5050
 0.9100	47.5100
 0.9110	47.5170
 0.9120	47.5220
 0.9130	47.5230
 0.9140	47.5270
 0.9150	47.5380
 0.9160	47.5400
 0.9170	47.5360
 0.9180	47.5350
 0.9190	47.5420
 0.9200	47.5430
 0.9210	47.5410
 0.9220	47.5370
 0.9230	47.5300
 0.9240	47.5170
 0.9250	47.5190
 0.9260	47.5250
 0.9270	47.5120
 0.9280	47.4980
 0.9290	47.4920
 0.9300	47.4890
 0.9310	47.4760
 0.9320	47.4630
 0.9330	47.4490
 0.9340	47.4350
 0.9350	47.4260
 0.9360	47.4120
 0.9370	47.3970
 0.9380	47.3840
 0.9390	47.3720
 0.9400	47.3570
 0.9410	47.3410
 0.9420	47.3240
 0.9430	47.3010
 0.9440	47.2800
 0.9450	47.2550
 0.9460	47.2270
 0.9470	47.2140
 0.9480	47.1820
 0.9490	47.1400
 0.9500	47.1000
 0.9510	47.0610
 0.9520	47.0290
 0.9530	46.9920
 0.9540	46.9420
 0.9550	46.9010
 0.9560	46.8570
 0.9570	46.8170
 0.9580	46.7870
 0.9590	46.7420
 0.9600	46.6930
 0.9610	46.6620
 0.9620	46.6540
 0.9630	46.6110
 0.9640	46.5750
 0.9650	46.5570
 0.9660	46.5500
 0.9670	46.5300
 0.9680	46.5130
 0.9690	46.5010
 0.9700	46.4880
 0.9710	46.4790
 0.9720	46.4670
 0.9730	46.4500
 0.9740	46.4340
 0.9750	46.4340
 0.9760	46.4350
 0.9770	46.4290
 0.9780	46.4210
 0.9790	46.4200
 0.9800	46.4220
 0.9810	46.4190
 0.9820	46.4050
 0.9830	46.4140
 0.9840	46.4200
 0.9850	46.4170
 0.9860	46.4130
 0.9870	46.4300
 0.9880	46.4360
 0.9890	46.4390
 0.9900	46.4560
 0.9910	46.4420
 0.9920	46.4460
 0.9930	46.4650
 0.9940	46.4680
 0.9950	46.4740
 0.9960	46.4840
 0.9970	46.5040
 0.9980	46.5290
 0.9990	46.5300
 1.0000	46.8200
 1.0010	47.3870
 1.0020	47.6850
 1.0030	47.7010
 1.0040	47.7130
 1.0050	47.7160
 1.0060	47.7220
 1.0070	47.7350
 1.0080	47.7460
 1.0090	47.7570
 1.0100	47.7700
 1.0110	47.7850
 1.0120	47.7960
 1.0130	47.8060
 1.0140	47.8170
 1.0150	47.8300
 1.0160	47.8350
 1.0170	47.8430
 1.0180	47.8540
 1.0190	47.8610
 1.0200	47.8700
 1.0210	47.8800
 1.0220	47.8910
 1.0230	47.9030
 1.0240	47.9190
 1.0250	47.9300
 1.0260	47.9430
 1.0270	47.9520
 1.0280	47.9560
 1.0290	47.9640
 1.0300	47.9750
 1.0310	47.9830
 1.0320	47.9890
 1.0330	47.9990
 1.0340	48.0090
 1.0350	48.0140
 1.0360	48.0210
 1.0370	48.0280
 1.0380	48.0380
 1.0390	48.0480
 1.0400	48.0570
 1.0410	48.0710
 1.0420	48.0800
 1.0430	48.0840
 1.0440	48.0880
 1.0450	48.0910
 1.0460	48.0950
 1.0470	48.0980
 1.0480	48.1020
 1.0490	48.1080
 1.0500	48.1130
 1.0510	48.1170
 1.0520	48.1220
 1.0530	48.1270
 1.0540	48.1310
 1.0550	48.1360
 1.0560	48.1430
 1.0570	48.1480
 1.0580	48.1550
 1.0590	48.1580
 1.0600	48.1570
 1.0610	48.1570
 1.0620	48.1540
 1.0630	48.1540
 1.0640	48.1590
 1.0650	48.1600
 1.0660	48.1580
 1.0670	48.1590
 1.0680	48.1590
 1.0690	48.1590
 1.0700	48.1580
 1.0710	48.1580
 1.0720	48.1560
 1.0730	48.1500
 1.0740	48.1490
 1.0750	48.1510
 1.0760	48.1510
 1.0770	48.1500
 1.0780	48.1500
 1.0790	48.1490
 1.0800	48.1470
 1.0810	48.1450
 1.0820	48.1410
 1.0830	48.1320
 1.0840	48.1270
 1.0850	48.1220
 1.0860	48.1190
 1.0870	48.1140
 1.0880	48.1110
 1.0890	48.1060
 1.0900	48.0990
 1.0910	48.0910
 1.0920	48.0820
 1.0930	48.0750
 1.0940	48.0680
 1.0950	48.0600
 1.0960	48.0520
 1.0970	48.0440
 1.0980	48.0350
 1.0990	48.0270
 1.1000	48.0190
 1.1010	48.0100
 1.1020	48.0020
 1.1030	47.9920
 1.1040	47.9790
 1.1050	47.9710
 1.1060	47.9610
 1.1070	47.9510
 1.1080	47.9400
 1.1090	47.9300
 1.1100	47.9170
 1.1110	47.9030
 1.1120	47.8890
 1.1130	47.8720
 1.1140	47.8580
 1.1150	47.8470
 1.1160	47.8310
 1.1170	47.8140
 1.1180	47.7960
 1.1190	47.7760
 1.1200	47.7540
 1.1210	47.7340
 1.1220	47.7110
 1.1230	47.6830
 1.1240	47.6550
 1.1250	47.6240
 1.1260	47.5900
 1.1270	47.5530
 1.1280	47.5150
 1.1290	47.4700
 1.1300	47.4200
 1.1310	47.3680
 1.1320	47.3110
 1.1330	47.2510
 1.1340	47.1880
 1.1350	47.1190
 1.1360	47.0440
 1.1370	46.9650
 1.1380	46.8790
 1.1390	46.7920
 1.1400	46.7030
 1.1410	46.6100
 1.1420	46.5150
 1.1430	46.4210
 1.1440	46.3230
 1.1450	46.2200
 1.1460	46.1230
 1.1470	46.0270
 1.1480	45.9330
 1.1490	45.8410
 1.1500	45.7540
 1.1510	45.6660
 1.1520	45.5870
 1.1530	45.5130
 1.1540	45.4450
 1.1550	45.3790
 1.1560	45.3210
 1.1570	45.2710
 1.1580	45.2270
 1.1590	45.1900
 1.1600	45.1540
 1.1610	45.1220
 1.1620	45.0950
 1.1630	45.0700
 1.1640	45.0490
 1.1650	45.0310
 1.1660	45.0160
 1.1670	45.0030
 1.1680	44.9930
 1.1690	44.9830
 1.1700	44.9750
 1.1710	44.9670
 1.1720	44.9600
 1.1730	44.9520
 1.1740	44.9440
 1.1750	44.9340
 1.1760	44.9230
 1.1770	44.9130
 1.1780	44.9030
 1.1790	44.8950
 1.1800	44.8860
 1.1810	44.8770
 1.1820	44.8680
 1.1830	44.8590
 1.1840	44.8490
 1.1850	44.8390
 1.1860	44.8270
 1.1870	44.8150
 1.1880	44.8060
 1.1890	44.7980
 1.1900	44.7920
 1.1910	44.7900
 1.1920	44.7840
 1.1930	44.7770
 1.1940	44.7720
 1.1950	44.7680
 1.1960	44.7650
 1.1970	44.7650
 1.1980	44.7660
 1.1990	44.7660
 1.2000	44.7670
 1.2010	44.7700
 1.2020	44.7740
 1.2030	44.7790
 1.2040	44.7830
 1.2050	44.7880
 1.2060	44.7940
 1.2070	44.8030
 1.2080	44.8130
 1.2090	44.8230
 1.2100	44.8340
 1.2110	44.8460
 1.2120	44.8590
 1.2130	44.8720
 1.2140	44.8850
 1.2150	44.8990
 1.2160	44.9110
 1.2170	44.9270
 1.2180	44.9450
 1.2190	44.9600
 1.2200	44.9780
 1.2210	44.9940
 1.2220	45.0080
 1.2230	45.0250
 1.2240	45.0430
 1.2250	45.0590
 1.2260	45.0760
 1.2270	45.0940
 1.2280	45.1090
 1.2290	45.1230
 1.2300	45.1380
 1.2310	45.1500
 1.2320	45.1620
 1.2330	45.1740
 1.2340	45.1870
 1.2350	45.2000
 1.2360	45.2130
 1.2370	45.2250
 1.2380	45.2380
 1.2390	45.2490
 1.2400	45.2590
 1.2410	45.2690
 1.2420	45.2770
 1.2430	45.2840
 1.2440	45.2910
 1.2450	45.2990
 1.2460	45.3080
 1.2470	45.3170
 1.2480	45.3260
 1.2490	45.3340
 1.2500	45.3400
 1.2510	45.3470
 1.2520	45.3540
 1.2530	45.3600
 1.2540	45.3630
 1.2550	45.3650
 1.2560	45.3680
 1.2570	45.3690
 1.2580	45.3710
 1.2590	45.3740
 1.2600	45.3770
 1.2610	45.3800
 1.2620	45.3820
 1.2630	45.3830
 1.2640	45.3810
 1.2650	45.3780
 1.2660	45.3740
 1.2670	45.3690
 1.2680	45.3670
 1.2690	45.3640
 1.2700	45.3600
 1.2710	45.3570
 1.2720	45.3530
 1.2730	45.3460
 1.2740	45.3390
 1.2750	45.3310
 1.2760	45.3200
 1.2770	45.3100
 1.2780	45.2980
 1.2790	45.2840
 1.2800	45.2710
 1.2810	45.2570
 1.2820	45.2430
 1.2830	45.2310
 1.2840	45.2170
 1.2850	45.2020
 1.2860	45.1850
 1.2870	45.1660
 1.2880	45.1440
 1.2890	45.1230
 1.2900	45.0990
 1.2910	45.0770
 1.2920	45.0530
 1.2930	45.0260
 1.2940	44.9980
 1.2950	44.9660
 1.2960	44.9370
 1.2970	44.9070
 1.2980	44.8740
 1.2990	44.8420
 1.3000	44.8050
 1.3010	44.7650
 1.3020	44.7250
 1.3030	44.6830
 1.3040	44.6400
 1.3050	44.5940
 1.3060	44.5450
 1.3070	44.4960
 1.3080	44.4460
 1.3090	44.3940
 1.3100	44.3380
 1.3110	44.2820
 1.3120	44.2230
 1.3130	44.1600
 1.3140	44.0960
 1.3150	44.0330
 1.3160	43.9630
 1.3170	43.8890
 1.3180	43.8140
 1.3190	43.7370
 1.3200	43.6580
 1.3210	43.5770
 1.3220	43.4940
 1.3230	43.4070
 1.3240	43.3160
 1.3250	43.2240
 1.3260	43.1280
 1.3270	43.0330
 1.3280	42.9370
 1.3290	42.8380
 1.3300	42.7390
 1.3310	42.6360
 1.3320	42.5310
 1.3330	42.4250
 1.3340	42.3160
 1.3350	42.2080
 1.3360	42.1000
 1.3370	41.9900
 1.3380	41.8800
 1.3390	41.7680
 1.3400	41.6560
 1.3410	41.5450
 1.3420	41.4360
 1.3430	41.3280
 1.3440	41.2200
 1.3450	41.1140
 1.3460	41.0060
 1.3470	40.9000
 1.3480	40.7950
 1.3490	40.6900
 1.3500	40.5850
 1.3510	40.4810
 1.3520	40.3770
 1.3530	40.2740
 1.3540	40.1710
 1.3550	40.0680
 1.3560	39.9650
 1.3570	39.8590
 1.3580	39.7520
 1.3590	39.6450
 1.3600	39.5350
 1.3610	39.4230
 1.3620	39.3080
 1.3630	39.1900
 1.3640	39.0640
 1.3650	38.9340
 1.3660	38.8000
 1.3670	38.6590
 1.3680	38.5110
 1.3690	38.3540
 1.3700	38.1830
 1.3710	38.0010
 1.3720	37.8090
 1.3730	37.6020
 1.3740	37.3850
 1.3750	37.1520
 1.3760	36.8980
 1.3770	36.6270
 1.3780	36.3340
 1.3790	36.0200
 1.3800	35.6890
 1.3810	35.3350
 1.3820	34.9630
 1.3830	34.5760
 1.3840	34.1680
 1.3850	33.7380
 1.3860	33.2960
 1.3870	32.8330
 1.3880	32.3620
 1.3890	31.8770
 1.3900	31.3820
 1.3910	30.8810
 1.3920	30.3710
 1.3930	29.8550
 1.3940	29.3370
 1.3950	28.8120
 1.3960	28.2930
 1.3970	27.7780
 1.3980	27.2700
 1.3990	26.7790
 1.4000	26.2970
 1.4010	25.8250
 1.4020	25.3710
 1.4030	24.9290
 1.4040	24.5060
 1.4050	24.1030
 1.4060	23.7180
 1.4070	23.3560
 1.4080	23.0140
 1.4090	22.6900
 1.4100	22.3880
 1.4110	22.1030
 1.4120	21.8380
 1.4130	21.5920
 1.4140	21.3640
 1.4150	21.1580
 1.4160	20.9690
 1.4170	20.7940
 1.4180	20.6350
 1.4190	20.4880
 1.4200	20.3550
 1.4210	20.2350
 1.4220	20.1260
 1.4230	20.0290
 1.4240	19.9410
 1.4250	19.8620
 1.4260	19.7940
 1.4270	19.7320
 1.4280	19.6790
 1.4290	19.6320
 1.4300	19.5940
 1.4310	19.5600
 1.4320	19.5350
 1.4330	19.5120
 1.4340	19.4950
 1.4350	19.4810
 1.4360	19.4720
 1.4370	19.4670
 1.4380	19.4660
 1.4390	19.4670
 1.4400	19.4720
 1.4410	19.4790
 1.4420	19.4890
 1.4430	19.5010
 1.4440	19.5140
 1.4450	19.5280
 1.4460	19.5440
 1.4470	19.5600
 1.4480	19.5780
 1.4490	19.5980
 1.4500	19.6190
 1.4510	19.6400
 1.4520	19.6620
 1.4530	19.6850
 1.4540	19.7100
 1.4550	19.7370
 1.4560	19.7650
 1.4570	19.7950
 1.4580	19.8280
 1.4590	19.8640
 1.4600	19.9040
 1.4610	19.9480
 1.4620	19.9950
 1.4630	20.0460
 1.4640	20.1010
 1.4650	20.1600
 1.4660	20.2250
 1.4670	20.2940
 1.4680	20.3690
 1.4690	20.4490
 1.4700	20.5320
 1.4710	20.6200
 1.4720	20.7100
 1.4730	20.8040
 1.4740	20.9020
 1.4750	21.0020
 1.4760	21.1060
 1.4770	21.2130
 1.4780	21.3220
 1.4790	21.4330
 1.4800	21.5440
 1.4810	21.6550
 1.4820	21.7690
 1.4830	21.8840
 1.4840	22.0010
 1.4850	22.1180
 1.4860	22.2350
 1.4870	22.3530
 1.4880	22.4710
 1.4890	22.5890
 1.4900	22.7080
 1.4910	22.8270
 1.4920	22.9460
 1.4930	23.0660
 1.4940	23.1850
 1.4950	23.3050
 1.4960	23.4240
 1.4970	23.5420
 1.4980	23.6610
 1.4990	23.7800
 1.5000	23.8980
 1.5010	24.0170
 1.5020	24.1340
 1.5030	24.2490
 1.5040	24.3650
 1.5050	24.4790
 1.5060	24.5930
 1.5070	24.7060
 1.5080	24.8200
 1.5090	24.9330
 1.5100	25.0460
 1.5110	25.1580
 1.5120	25.2700
 1.5130	25.3780
 1.5140	25.4850
 1.5150	25.5930
 1.5160	25.6990
 1.5170	25.8060
 1.5180	25.9120
 1.5190	26.0160
 1.5200	26.1190
 1.5210	26.2220
 1.5220	26.3230
 1.5230	26.4240
 1.5240	26.5230
 1.5250	26.6200
 1.5260	26.7150
 1.5270	26.8090
 1.5280	26.9040
 1.5290	26.9970
 1.5300	27.0900
 1.5310	27.1820
 1.5320	27.2720
 1.5330	27.3610
 1.5340	27.4480
 1.5350	27.5340
 1.5360	27.6210
 1.5370	27.7070
 1.5380	27.7920
 1.5390	27.8770
 1.5400	27.9600
 1.5410	28.0430
 1.5420	28.1260
 1.5430	28.2060
 1.5440	28.2860
 1.5450	28.3640
 1.5460	28.4400
 1.5470	28.5180
 1.5480	28.5940
 1.5490	28.6690
 1.5500	28.7460
 1.5510	28.8190
 1.5520	28.8920
 1.5530	28.9630
 1.5540	29.0340
 1.5550	29.1060
 1.5560	29.1770
 1.5570	29.2460
 1.5580	29.3130
 1.5590	29.3790
 1.5600	29.4450
 1.5610	29.5120
 1.5620	29.5790
 1.5630	29.6440
 1.5640	29.7070
 1.5650	29.7690
 1.5660	29.8320
 1.5670	29.8950
 1.5680	29.9560
 1.5690	30.0170
 1.5700	30.0760
 1.5710	30.1360
 1.5720	30.1950
 1.5730	30.2550
 1.5740	30.3150
 1.5750	30.3720
 1.5760	30.4300
 1.5770	30.4870
 1.5780	30.5430
 1.5790	30.5990
 1.5800	30.6550
 1.5810	30.7110
 1.5820	30.7660
 1.5830	30.8210
 1.5840	30.8760
 1.5850	30.9300
 1.5860	30.9840
 1.5870	31.0380
 1.5880	31.0910
 1.5890	31.1430
 1.5900	31.1940
 1.5910	31.2460
 1.5920	31.2970
 1.5930	31.3470
 1.5940	31.3970
 1.5950	31.4440
 1.5960	31.4940
 1.5970	31.5440
 1.5980	31.5930
 1.5990	31.6430
 1.6000	31.6910
 1.6010	31.7380
 1.6020	31.7870
 1.6030	31.8340
 1.6040	31.8790
 1.6050	31.9240
 1.6060	31.9660
 1.6070	32.0080
 1.6080	32.0510
 1.6090	32.0930
 1.6100	32.1350
 1.6110	32.1760
 1.6120	32.2170
 1.6130	32.2580
 1.6140	32.2980
 1.6150	32.3360
 1.6160	32.3750
 1.6170	32.4100
 1.6180	32.4470
 1.6190	32.4830
 1.6200	32.5180
 1.6210	32.5530
 1.6220	32.5860
 1.6230	32.6200
 1.6240	32.6540
 1.6250	32.6870
 1.6260	32.7190
 1.6270	32.7470
 1.6280	32.7740
 1.6290	32.8020
 1.6300	32.8310
 1.6310	32.8580
 1.6320	32.8840
 1.6330	32.9090
 1.6340	32.9330
 1.6350	32.9550
 1.6360	32.9780
 1.6370	32.9980
 1.6380	33.0150
 1.6390	33.0330
 1.6400	33.0490
 1.6410	33.0630
 1.6420	33.0770
 1.6430	33.0890
 1.6440	33.0980
 1.6450	33.1070
 1.6460	33.1130
 1.6470	33.1170
 1.6480	33.1160
 1.6490	33.1150
 1.6500	33.1120
 1.6510	33.1070
 1.6520	33.1040
 1.6530	33.1000
 1.6540	33.0940
 1.6550	33.0850
 1.6560	33.0770
 1.6570	33.0670
 1.6580	33.0570
 1.6590	33.0470
 1.6600	33.0370
 1.6610	33.0280
 1.6620	33.0210
 1.6630	33.0160
 1.6640	33.0110
 1.6650	33.0080
 1.6660	33.0050
 1.6670	33.0000
 1.6680	32.9960
 1.6690	32.9930
 1.6700	32.9890
 1.6710	32.9860
 1.6720	32.9820
 1.6730	32.9760
 1.6740	32.9710
 1.6750	32.9620
 1.6760	32.9530
 1.6770	32.9400
 1.6780	32.9250
 1.6790	32.9090
 1.6800	32.8900
 1.6810	32.8680
 1.6820	32.8440
 1.6830	32.8160
 1.6840	32.7860
 1.6850	32.7540
 1.6860	32.7220
 1.6870	32.6880
 1.6880	32.6530
 1.6890	32.6150
 1.6900	32.5770
 1.6910	32.5360
 1.6920	32.4970
 1.6930	32.4590
 1.6940	32.4210
 1.6950	32.3840
 1.6960	32.3470
 1.6970	32.3110
 1.6980	32.2730
 1.6990	32.2350
 1.7000	32.1960
 1.7010	32.1550
 1.7020	32.1160
 1.7030	32.0770
 1.7040	32.0350
 1.7050	31.9930
 1.7060	31.9510
 1.7070	31.9090
 1.7080	31.8660
 1.7090	31.8220
 1.7100	31.7780
 1.7110	31.7290
 1.7120	31.6860
 1.7130	31.6440
 1.7140	31.6020
 1.7150	31.5610
 1.7160	31.5180
 1.7170	31.4740
 1.7180	31.4320
 1.7190	31.3930
 1.7200	31.3530
 1.7210	31.3130
 1.7220	31.2750
 1.7230	31.2350
 1.7240	31.1940
 1.7250	31.1560
 1.7260	31.1200
 1.7270	31.0830
 1.7280	31.0500
 1.7290	31.0180
 1.7300	30.9830
 1.7310	30.9480
 1.7320	30.9120
 1.7330	30.8770
 1.7340	30.8430
 1.7350	30.8090
 1.7360	30.7770
 1.7370	30.7420
 1.7380	30.7060
 1.7390	30.6680
 1.7400	30.6250
 1.7410	30.5840
 1.7420	30.5430
 1.7430	30.5000
 1.7440	30.4580
 1.7450	30.4130
 1.7460	30.3650
 1.7470	30.3180
 1.7480	30.2680
 1.7490	30.2200
 1.7500	30.1730
 1.7510	30.1270
 1.7520	30.0810
 1.7530	30.0320
 1.7540	29.9820
 1.7550	29.9340
 1.7560	29.8840
 1.7570	29.8390
 1.7580	29.7960
 1.7590	29.7490
 1.7600	29.7030
 1.7610	29.6550
 1.7620	29.6110
 1.7630	29.5710
 1.7640	29.5300
 1.7650	29.4910
 1.7660	29.4530
 1.7670	29.4140
 1.7680	29.3760
 1.7690	29.3410
 1.7700	29.3050
 1.7710	29.2690
 1.7720	29.2350
 1.7730	29.2030
 1.7740	29.1710
 1.7750	29.1410
 1.7760	29.1100
 1.7770	29.0780
 1.7780	29.0490
 1.7790	29.0210
 1.7800	28.9960
 1.7810	28.9730
 1.7820	28.9510
 1.7830	28.9320
 1.7840	28.9110
 1.7850	28.8900
 1.7860	28.8710
 1.7870	28.8530
 1.7880	28.8400
 1.7890	28.8270
 1.7900	28.8190
 1.7910	28.8090
 1.7920	28.7980
 1.7930	28.7890
 1.7940	28.7780
 1.7950	28.7710
 1.7960	28.7680
 1.7970	28.7640
 1.7980	28.7620
 1.7990	28.7600
 1.8000	28.7590
 1.8010	28.7580
 1.8020	28.7580
 1.8030	28.7600
 1.8040	28.7630
 1.8050	28.7650
 1.8060	28.7690
 1.8070	28.7720
 1.8080	28.7740
 1.8090	28.7770
 1.8100	28.7810
 1.8110	28.7830
 1.8120	28.7870
 1.8130	28.7900
 1.8140	28.7930
 1.8150	28.7940
 1.8160	28.7930
 1.8170	28.7920
 1.8180	28.7910
 1.8190	28.7890
 1.8200	28.7870
 1.8210	28.7820
 1.8220	28.7800
 1.8230	28.7800
 1.8240	28.7760
 1.8250	28.7730
 1.8260	28.7680
 1.8270	28.7580
 1.8280	28.7500
 1.8290	28.7450
 1.8300	28.6820
 1.8310	28.5760
 1.8320	28.5050
 1.8330	28.4840
 1.8340	28.4560
 1.8350	28.4280
 1.8360	28.3950
 1.8370	28.3560
 1.8380	28.3160
 1.8390	28.2710
 1.8400	28.2230
 1.8410	28.1690
 1.8420	28.1130
 1.8430	28.0520
 1.8440	27.9840
 1.8450	27.9090
 1.8460	27.8250
 1.8470	27.7350
 1.8480	27.6400
 1.8490	27.5350
 1.8500	27.4190
 1.8510	27.2950
 1.8520	27.1590
 1.8530	27.0100
 1.8540	26.8550
 1.8550	26.6910
 1.8560	26.5140
 1.8570	26.3260
 1.8580	26.1220
 1.8590	25.9050
 1.8600	25.6750
 1.8610	25.4330
 1.8620	25.1750
 1.8630	24.9040
 1.8640	24.6180
 1.8650	24.3150
 1.8660	23.9970
 1.8670	23.6590
 1.8680	23.3030
 1.8690	22.9310
 1.8700	22.5420
 1.8710	22.1350
 1.8720	21.7170
 1.8730	21.2850
 1.8740	20.8420
 1.8750	20.3910
 1.8760	19.9280
 1.8770	19.4640
 1.8780	18.9940
 1.8790	18.5160
 1.8800	18.0450
 1.8810	17.5740
 1.8820	17.1030
 1.8830	16.6370
 1.8840	16.1790
 1.8850	15.7220
 1.8860	15.2740
 1.8870	14.8390
 1.8880	14.4130
 1.8890	14.0060
 1.8900	13.6190
 1.8910	13.2500
 1.8920	12.8950
 1.8930	12.5650
 1.8940	12.2570
 1.8950	11.9700
 1.8960	11.7040
 1.8970	11.4590
 1.8980	11.2320
 1.8990	11.0260
 1.9000	10.8350
 1.9010	10.6650
 1.9020	10.5090
 1.9030	10.3710
 1.9040	10.2470
 1.9050	10.1370
 1.9060	10.0420
 1.9070	 9.9590
 1.9080	 9.8820
 1.9090	 9.8170
 1.9100	 9.7610
 1.9110	 9.7120
 1.9120	 9.6720
 1.9130	 9.6330
 1.9140	 9.6020
 1.9150	 9.5730
 1.9160	 9.5470
 1.9170	 9.5290
 1.9180	 9.5120
 1.9190	 9.4980
 1.9200	 9.4870
 1.9210	 9.4810
 1.9220	 9.4780
 1.9230	 9.4810
 1.9240	 9.4830
 1.9250	 9.4880
 1.9260	 9.4930
 1.9270	 9.5000
 1.9280	 9.5100
 1.9290	 9.5200
 1.9300	 9.5310
 1.9310	 9.5430
 1.9320	 9.5560
 1.9330	 9.5720
 1.9340	 9.5890
 1.9350	 9.6080
 1.9360	 9.6280
 1.9370	 9.6480
 1.9380	 9.6720
 1.9390	 9.6960
 1.9400	 9.7230
 1.9410	 9.7510
 1.9420	 9.7770
 1.9430	 9.8020
 1.9440	 9.8300
 1.9450	 9.8560
 1.9460	 9.8860
 1.9470	 9.9190
 1.9480	 9.9520
 1.9490	 9.9840
 1.9500	10.0200
 1.9510	10.0550
 1.9520	10.0900
 1.9530	10.1290
 1.9540	10.1660
 1.9550	10.2060
 1.9560	10.2480
 1.9570	10.2880
 1.9580	10.3270
 1.9590	10.3680
 1.9600	10.4090
 1.9610	10.4520
 1.9620	10.4960
 1.9630	10.5450
 1.9640	10.5950
 1.9650	10.6430
 1.9660	10.6960
 1.9670	10.7460
 1.9680	10.7980
 1.9690	10.8470
 1.9700	10.8980
 1.9710	10.9470
 1.9720	10.9990
 1.9730	11.0510
 1.9740	11.1060
 1.9750	11.1620
 1.9760	11.2180
 1.9770	11.2750
 1.9780	11.3300
 1.9790	11.3890
 1.9800	11.4460
 1.9810	11.5070
 1.9820	11.5730
 1.9830	11.6360
 1.9840	11.7010
 1.9850	11.7650
 1.9860	11.8280
 1.9870	11.8910
 1.9880	11.9550
 1.9890	12.0170
 1.9900	12.0820
 1.9910	12.1490
 1.9920	12.2150
 1.9930	12.2790
 1.9940	12.3440
 1.9950	12.4090
 1.9960	12.4740
 1.9970	12.5430
 1.9980	12.6110
 1.9990	12.6790
 2.0000	12.7470
 2.0010	12.8140
 2.0020	12.8820
 2.0030	12.9480
 2.0040	13.0140
 2.0050	13.0810
 2.0060	13.1470
 2.0070	13.2140
 2.0080	13.2800
 2.0090	13.3460
 2.0100	13.4110
 2.0110	13.4760
 2.0120	13.5410
 2.0130	13.6040
 2.0140	13.6660
 2.0150	13.7260
 2.0160	13.7840
 2.0170	13.8410
 2.0180	13.8980
 2.0190	13.9560
 2.0200	14.0130
 2.0210	14.0680
 2.0220	14.1230
 2.0230	14.1780
 2.0240	14.2300
 2.0250	14.2790
 2.0260	14.3290
 2.0270	14.3790
 2.0280	14.4290
 2.0290	14.4800
 2.0300	14.5270
 2.0310	14.5720
 2.0320	14.6140
 2.0330	14.6580
 2.0340	14.7020
 2.0350	14.7430
 2.0360	14.7810
 2.0370	14.8180
 2.0380	14.8500
 2.0390	14.8850
 2.0400	14.9220
 2.0410	14.9580
 2.0420	14.9950
 2.0430	15.0310
 2.0440	15.0650
 2.0450	15.0970
 2.0460	15.1300
 2.0470	15.1620
 2.0480	15.1940
 2.0490	15.2270
 2.0500	15.2560
 2.0510	15.2820
 2.0520	15.3100
 2.0530	15.3340
 2.0540	15.3620
 2.0550	15.3910
 2.0560	15.4200
 2.0570	15.4480
 2.0580	15.4790
 2.0590	15.5090
 2.0600	15.5370
 2.0610	15.5680
 2.0620	15.6000
 2.0630	15.6310
 2.0640	15.6630
 2.0650	15.6940
 2.0660	15.7240
 2.0670	15.7540
 2.0680	15.7840
 2.0690	15.8140
 2.0700	15.8460
 2.0710	15.8750
 2.0720	15.9020
 2.0730	15.9320
 2.0740	15.9610
 2.0750	15.9900
 2.0760	16.0190
 2.0770	16.0500
 2.0780	16.0780
 2.0790	16.1040
 2.0800	16.1310
 2.0810	16.1550
 2.0820	16.1820
 2.0830	16.2130
 2.0840	16.2420
 2.0850	16.2710
 2.0860	16.3010
 2.0870	16.3310
 2.0880	16.3600
 2.0890	16.3870
 2.0900	16.4160
 2.0910	16.4410
 2.0920	16.4630
 2.0930	16.4870
 2.0940	16.5090
 2.0950	16.5330
 2.0960	16.5590
 2.0970	16.5830
 2.0980	16.6060
 2.0990	16.6300
 2.1000	16.6550
 2.1010	16.6800
 2.1020	16.7070
 2.1030	16.7320
 2.1040	16.7550
 2.1050	16.7780
 2.1060	16.8010
 2.1070	16.8220
 2.1080	16.8440
 2.1090	16.8660
 2.1100	16.8890
 2.1110	16.9130
 2.1120	16.9370
 2.1130	16.9640
 2.1140	16.9880
 2.1150	17.0120
 2.1160	17.0340
 2.1170	17.0550
 2.1180	17.0760
 2.1190	17.0990
 2.1200	17.1210
 2.1210	17.1430
 2.1220	17.1670
 2.1230	17.1890
 2.1240	17.2090
 2.1250	17.2310
 2.1260	17.2510
 2.1270	17.2720
 2.1280	17.2920
 2.1290	17.3110
 2.1300	17.3300
 2.1310	17.3480
 2.1320	17.3640
 2.1330	17.3810
 2.1340	17.3970
 2.1350	17.4130
 2.1360	17.4300
 2.1370	17.4470
 2.1380	17.4650
 2.1390	17.4840
 2.1400	17.5050
 2.1410	17.5230
 2.1420	17.5400
 2.1430	17.5570
 2.1440	17.5730
 2.1450	17.5880
 2.1460	17.6050
 2.1470	17.6230
 2.1480	17.6410
 2.1490	17.6590
 2.1500	17.6760
 2.1510	17.6960
 2.1520	17.7120
 2.1530	17.7260
 2.1540	17.7430
 2.1550	17.7600
 2.1560	17.7750
 2.1570	17.7920
 2.1580	17.8060
 2.1590	17.8170
 2.1600	17.8280
 2.1610	17.8430
 2.1620	17.8570
 2.1630	17.8710
 2.1640	17.8880
 2.1650	17.9010
 2.1660	17.9140
 2.1670	17.9270
 2.1680	17.9390
 2.1690	17.9530
 2.1700	17.9670
 2.1710	17.9830
 2.1720	18.0010
 2.1730	18.0160
 2.1740	18.0320
 2.1750	18.0480
 2.1760	18.0630
 2.1770	18.0800
 2.1780	18.0990
 2.1790	18.1170
 2.1800	18.1350
 2.1810	18.1540
 2.1820	18.1730
 2.1830	18.1900
 2.1840	18.2090
 2.1850	18.2260
 2.1860	18.2460
 2.1870	18.2660
 2.1880	18.2870
 2.1890	18.3090
 2.1900	18.3290
 2.1910	18.3460
 2.1920	18.3650
 2.1930	18.3820
 2.1940	18.4020
 2.1950	18.4270
 2.1960	18.4500
 2.1970	18.4740
 2.1980	18.4970
 2.1990	18.5210
 2.2000	18.5410
 2.2010	18.5550
 2.2020	18.5730
 2.2030	18.5910
 2.2040	18.6100
 2.2050	18.6310
 2.2060	18.6570
 2.2070	18.6750
 2.2080	18.6880
 2.2090	18.7030
 2.2100	18.7150
 2.2110	18.7280
 2.2120	18.7400
 2.2130	18.7540
 2.2140	18.7670
 2.2150	18.7800
 2.2160	18.7970
 2.2170	18.8080
 2.2180	18.8180
 2.2190	18.8240
 2.2200	18.8230
 2.2210	18.8250
 2.2220	18.8260
 2.2230	18.8270
 2.2240	18.8300
 2.2250	18.8290
 2.2260	18.8290
 2.2270	18.8230
 2.2280	18.8130
 2.2290	18.7990
 2.2300	18.7730
 2.2310	18.7520
 2.2320	18.7350
 2.2330	18.7090
 2.2340	18.6850
 2.2350	18.6610
 2.2360	18.6350
 2.2370	18.6040
 2.2380	18.5730
 2.2390	18.5440
 2.2400	18.5070
 2.2410	18.4660
 2.2420	18.4220
 2.2430	18.3720
 2.2440	18.3240
 2.2450	18.2730
 2.2460	18.2270
 2.2470	18.1840
 2.2480	18.1370
 2.2490	18.0920
 2.2500	18.0450
 2.2510	17.9940
 2.2520	17.9430
 2.2530	17.8910
 2.2540	17.8410
 2.2550	17.7890
 2.2560	17.7390
 2.2570	17.6890
 2.2580	17.6420
 2.2590	17.5990
 2.2600	17.5520
 2.2610	17.5070
 2.2620	17.4600
 2.2630	17.4090
 2.2640	17.3620
 2.2650	17.3200
 2.2660	17.2780
 2.2670	17.2310
 2.2680	17.1830
 2.2690	17.1340
 2.2700	17.0790
 2.2710	17.0320
 2.2720	16.9880
 2.2730	16.9460
 2.2740	16.9080
 2.2750	16.8690
 2.2760	16.8340
 2.2770	16.7940
 2.2780	16.7530
 2.2790	16.7120
 2.2800	16.6670
 2.2810	16.6280
 2.2820	16.5960
 2.2830	16.5610
 2.2840	16.5320
 2.2850	16.4960
 2.2860	16.4560
 2.2870	16.4170
 2.2880	16.3740
 2.2890	16.3350
 2.2900	16.2980
 2.2910	16.2600
 2.2920	16.2270
 2.2930	16.1880
 2.2940	16.1470
 2.2950	16.1070
 2.2960	16.0630
 2.2970	16.0200
 2.2980	15.9770
 2.2990	15.9330
 2.3000	15.8960
 2.3010	15.8590
 2.3020	15.8260
 2.3030	15.7900
 2.3040	15.7510
 2.3050	15.7160
 2.3060	15.6820
 2.3070	15.6540
 2.3080	15.6290
 2.3090	15.6000
 2.3100	15.5720
 2.3110	15.5480
 2.3120	15.5230
 2.3130	15.4960
 2.3140	15.4720
 2.3150	15.4490
 2.3160	15.4260
 2.3170	15.4040
 2.3180	15.3820
 2.3190	15.3580
 2.3200	15.3390
 2.3210	15.3240
 2.3220	15.3020
 2.3230	15.2830
 2.3240	15.2570
 2.3250	15.2210
 2.3260	15.1910
 2.3270	15.1620
 2.3280	15.1310
 2.3290	15.1000
 2.3300	15.0700
 2.3310	15.0410
 2.3320	15.0110
 2.3330	14.9870
 2.3340	14.9540
 2.3350	14.9160
 2.3360	14.8780
 2.3370	14.8310
 2.3380	14.7940
 2.3390	14.7640
 2.3400	14.7300
 2.3410	14.7020
 2.3420	14.6680
 2.3430	14.6250
 2.3440	14.5890
 2.3450	14.5550
 2.3460	14.5230
 2.3470	14.4970
 2.3480	14.4700
 2.3490	14.4440
 2.3500	14.4200
 2.3510	14.3970
 2.3520	14.3760
 2.3530	14.3590
 2.3540	14.3450
 2.3550	14.3190
 2.3560	14.3020
 2.3570	14.2870
 2.3580	14.2580
 2.3590	14.2390
 2.3600	14.2250
 2.3610	14.2010
 2.3620	14.1770
 2.3630	14.1440
 2.3640	14.1140
 2.3650	14.0860
 2.3660	14.0530
 2.3670	14.0290
 2.3680	14.0030
 2.3690	13.9650
 2.3700	13.9290
 2.3710	13.8960
 2.3720	13.8620
 2.3730	13.8380
 2.3740	13.8210
 2.3750	13.7910
 2.3760	13.7550
 2.3770	13.7170
 2.3780	13.6780
 2.3790	13.6540
 2.3800	13.6270
 2.3810	13.5910
 2.3820	13.5550
 2.3830	13.5110
 2.3840	13.4700
 2.3850	13.4350
 2.3860	13.3920
 2.3870	13.3510
 2.3880	13.3160
 2.3890	13.2860
 2.3900	13.2590
 2.3910	13.2310
 2.3920	13.2020
 2.3930	13.1680
 2.3940	13.1280
 2.3950	13.0860
 2.3960	13.0460
 2.3970	13.0070
 2.3980	12.9710
 2.3990	12.9420
 2.4000	12.9090
 2.4010	12.8690
 2.4020	12.8270
 2.4030	12.7870
 2.4040	12.7460
 2.4050	12.7070
 2.4060	12.6760
 2.4070	12.6340
 2.4080	12.5880
 2.4090	12.5480
 2.4100	12.5000
 2.4110	12.4660
 2.4120	12.4320
 2.4130	12.3940
 2.4140	12.3590
 2.4150	12.3180
 2.4160	12.2760
 2.4170	12.2280
 2.4180	12.1780
 2.4190	12.1430
 2.4200	12.1060
 2.4210	12.0740
 2.4220	12.0470
 2.4230	12.0100
 2.4240	11.9620
 2.4250	11.9230
 2.4260	11.8960
 2.4270	11.8580
 2.4280	11.8030
 2.4290	11.7550
 2.4300	11.7060
 2.4310	11.6590
 2.4320	11.6350
 2.4330	11.6110
 2.4340	11.5710
 2.4350	11.5250
 2.4360	11.4740
 2.4370	11.4040
 2.4380	11.3480
 2.4390	11.3170
 2.4400	11.2710
 2.4410	11.2530
 2.4420	11.2340
 2.4430	11.1710
 2.4440	11.1290
 2.4450	11.0940
 2.4460	11.0440
 2.4470	11.0160
 2.4480	10.9800
 2.4490	10.9390
 2.4500	10.9000
 2.4510	10.8620
 2.4520	10.8220
 2.4530	10.7770
 2.4540	10.7460
 2.4550	10.7260
 2.4560	10.7100
 2.4570	10.6920
 2.4580	10.6570
 2.4590	10.6060
 2.4600	10.5570
 2.4610	10.5180
 2.4620	10.4720
 2.4630	10.4310
 2.4640	10.4020
 2.4650	10.3590
 2.4660	10.3310
 2.4670	10.3340
 2.4680	10.3290
 2.4690	10.3260
 2.4700	10.3050
 2.4710	10.2370
 2.4720	10.2070
 2.4730	10.2020
 2.4740	10.1830
 2.4750	10.1710
 2.4760	10.1600
 2.4770	10.1340
 2.4780	10.1220
 2.4790	10.1290
 2.4800	10.1100
 2.4810	10.0740
 2.4820	10.0460
 2.4830	10.0510
 2.4840	10.0350
 2.4850	10.0110
 2.4860	 9.9800
 2.4870	 9.9110
 2.4880	 9.8680
 2.4890	 9.8570
 2.4900	 9.8380
 2.4910	 9.8360
 2.4920	 9.8350
 2.4930	 9.8070
 2.4940	 9.8070
 2.4950	 9.8160
 2.4960	 9.8190
 2.4970	 9.8680
 2.4980	 9.9180
 2.4990	 9.9330
 2.5000	 9.9420
