Name: Quercus lobata 3
Type: vegetation
Class: Tree
Genus: Quercus
Species: lobata
Sample No.: VH089
Owner: UCSB
Wavelength Range: VSWIR
Origin: 34.7151; -120.0588; WGS84
Collection Date: 4/21/2013
Description: Samples were collected as part of the HyspIRI Airborne Campaign. 48 individual plants were sampled in three times in 2013 - spring  summer  and fall. The name of the sample includes a 1  2  or 3 which references a different individual of the species. Samples were taken to JPL and processed within 48 hours of collection. The same leaves were processed in the Nicolet and then measured using the ASD.
Measurement: Bidirectional reflectance
First Column: X
Second Column: Y
X Units: Wavelength (micrometers)
Y Units: Reflectance (percentage)
First X Value: 0.35
Last X Value: 2.5
Number of X Values: 2151
Additional Information: vegetation.tree.quercus.lobata.vswir.vh089.ucsb.asd.ancillary.txt

 0.3500	 7.8570
 0.3510	 7.2960
 0.3520	 7.3950
 0.3530	 7.6800
 0.3540	 7.6230
 0.3550	 7.5560
 0.3560	 7.5820
 0.3570	 7.5930
 0.3580	 7.4260
 0.3590	 7.4010
 0.3600	 7.4590
 0.3610	 7.5260
 0.3620	 7.5580
 0.3630	 7.6520
 0.3640	 7.6250
 0.3650	 7.3910
 0.3660	 7.4330
 0.3670	 7.5330
 0.3680	 7.5800
 0.3690	 7.5650
 0.3700	 7.6290
 0.3710	 7.6790
 0.3720	 7.6580
 0.3730	 7.6260
 0.3740	 7.6960
 0.3750	 7.7770
 0.3760	 7.7480
 0.3770	 7.6980
 0.3780	 7.7300
 0.3790	 7.8350
 0.3800	 7.9080
 0.3810	 7.8810
 0.3820	 7.7970
 0.3830	 7.7400
 0.3840	 7.8500
 0.3850	 7.9260
 0.3860	 7.9290
 0.3870	 7.9000
 0.3880	 7.9320
 0.3890	 7.9790
 0.3900	 8.0290
 0.3910	 8.1110
 0.3920	 8.0870
 0.3930	 8.0720
 0.3940	 8.1500
 0.3950	 8.1890
 0.3960	 8.2140
 0.3970	 8.2700
 0.3980	 8.3830
 0.3990	 8.3800
 0.4000	 8.3950
 0.4010	 8.4740
 0.4020	 8.5120
 0.4030	 8.5660
 0.4040	 8.6030
 0.4050	 8.6080
 0.4060	 8.7030
 0.4070	 8.7620
 0.4080	 8.7970
 0.4090	 8.8970
 0.4100	 8.9650
 0.4110	 9.0140
 0.4120	 9.0700
 0.4130	 9.1540
 0.4140	 9.1990
 0.4150	 9.2270
 0.4160	 9.2800
 0.4170	 9.3310
 0.4180	 9.3920
 0.4190	 9.4590
 0.4200	 9.5130
 0.4210	 9.5470
 0.4220	 9.5800
 0.4230	 9.6300
 0.4240	 9.7090
 0.4250	 9.7570
 0.4260	 9.7750
 0.4270	 9.7960
 0.4280	 9.8160
 0.4290	 9.8450
 0.4300	 9.8860
 0.4310	 9.9370
 0.4320	 9.9360
 0.4330	 9.9220
 0.4340	 9.9420
 0.4350	 9.9590
 0.4360	 9.9710
 0.4370	 9.9830
 0.4380	 9.9990
 0.4390	10.0160
 0.4400	10.0390
 0.4410	10.0670
 0.4420	10.0780
 0.4430	10.0870
 0.4440	10.0960
 0.4450	10.1000
 0.4460	10.1210
 0.4470	10.1390
 0.4480	10.1410
 0.4490	10.1330
 0.4500	10.1610
 0.4510	10.1830
 0.4520	10.1650
 0.4530	10.1710
 0.4540	10.1840
 0.4550	10.2000
 0.4560	10.2200
 0.4570	10.2140
 0.4580	10.2050
 0.4590	10.2110
 0.4600	10.2220
 0.4610	10.2320
 0.4620	10.2340
 0.4630	10.2250
 0.4640	10.2310
 0.4650	10.2350
 0.4660	10.2360
 0.4670	10.2480
 0.4680	10.2410
 0.4690	10.2300
 0.4700	10.2300
 0.4710	10.2390
 0.4720	10.2390
 0.4730	10.2330
 0.4740	10.2370
 0.4750	10.2370
 0.4760	10.2360
 0.4770	10.2400
 0.4780	10.2500
 0.4790	10.2540
 0.4800	10.2530
 0.4810	10.2490
 0.4820	10.2450
 0.4830	10.2510
 0.4840	10.2630
 0.4850	10.2610
 0.4860	10.2630
 0.4870	10.2640
 0.4880	10.2630
 0.4890	10.2790
 0.4900	10.3020
 0.4910	10.3170
 0.4920	10.3180
 0.4930	10.3270
 0.4940	10.3490
 0.4950	10.3770
 0.4960	10.3960
 0.4970	10.4130
 0.4980	10.4360
 0.4990	10.4690
 0.5000	10.4970
 0.5010	10.5320
 0.5020	10.5790
 0.5030	10.6340
 0.5040	10.6790
 0.5050	10.7340
 0.5060	10.8120
 0.5070	10.8930
 0.5080	10.9840
 0.5090	11.0830
 0.5100	11.1890
 0.5110	11.3190
 0.5120	11.4590
 0.5130	11.6070
 0.5140	11.7750
 0.5150	11.9590
 0.5160	12.1580
 0.5170	12.3740
 0.5180	12.6090
 0.5190	12.8560
 0.5200	13.1120
 0.5210	13.3720
 0.5220	13.6410
 0.5230	13.9150
 0.5240	14.1910
 0.5250	14.4660
 0.5260	14.7310
 0.5270	14.9880
 0.5280	15.2390
 0.5290	15.4740
 0.5300	15.6900
 0.5310	15.8900
 0.5320	16.0780
 0.5330	16.2550
 0.5340	16.4170
 0.5350	16.5620
 0.5360	16.6930
 0.5370	16.8180
 0.5380	16.9320
 0.5390	17.0250
 0.5400	17.1140
 0.5410	17.1930
 0.5420	17.2630
 0.5430	17.3440
 0.5440	17.4180
 0.5450	17.4850
 0.5460	17.5480
 0.5470	17.6170
 0.5480	17.6830
 0.5490	17.7360
 0.5500	17.7710
 0.5510	17.7960
 0.5520	17.8100
 0.5530	17.8110
 0.5540	17.7890
 0.5550	17.7500
 0.5560	17.6960
 0.5570	17.6220
 0.5580	17.5320
 0.5590	17.4340
 0.5600	17.3270
 0.5610	17.1970
 0.5620	17.0690
 0.5630	16.9370
 0.5640	16.7860
 0.5650	16.6260
 0.5660	16.4570
 0.5670	16.2820
 0.5680	16.1080
 0.5690	15.9320
 0.5700	15.7500
 0.5710	15.5650
 0.5720	15.3910
 0.5730	15.2250
 0.5740	15.0720
 0.5750	14.9380
 0.5760	14.8090
 0.5770	14.6870
 0.5780	14.5750
 0.5790	14.4630
 0.5800	14.3570
 0.5810	14.2580
 0.5820	14.1610
 0.5830	14.0720
 0.5840	13.9830
 0.5850	13.8960
 0.5860	13.8210
 0.5870	13.7460
 0.5880	13.6790
 0.5890	13.6250
 0.5900	13.5860
 0.5910	13.5570
 0.5920	13.5320
 0.5930	13.5020
 0.5940	13.4710
 0.5950	13.4460
 0.5960	13.4250
 0.5970	13.3980
 0.5980	13.3700
 0.5990	13.3350
 0.6000	13.2910
 0.6010	13.2570
 0.6020	13.2170
 0.6030	13.1670
 0.6040	13.1170
 0.6050	13.0640
 0.6060	13.0010
 0.6070	12.9260
 0.6080	12.8500
 0.6090	12.7700
 0.6100	12.6840
 0.6110	12.5920
 0.6120	12.5100
 0.6130	12.4390
 0.6140	12.3730
 0.6150	12.3020
 0.6160	12.2380
 0.6170	12.1780
 0.6180	12.1190
 0.6190	12.0620
 0.6200	12.0140
 0.6210	11.9740
 0.6220	11.9380
 0.6230	11.9110
 0.6240	11.8860
 0.6250	11.8620
 0.6260	11.8420
 0.6270	11.8230
 0.6280	11.8090
 0.6290	11.8030
 0.6300	11.7970
 0.6310	11.7860
 0.6320	11.7740
 0.6330	11.7700
 0.6340	11.7530
 0.6350	11.7280
 0.6360	11.6980
 0.6370	11.6590
 0.6380	11.6140
 0.6390	11.5620
 0.6400	11.5040
 0.6410	11.4420
 0.6420	11.3800
 0.6430	11.3180
 0.6440	11.2550
 0.6450	11.1840
 0.6460	11.1150
 0.6470	11.0590
 0.6480	11.0090
 0.6490	10.9620
 0.6500	10.9180
 0.6510	10.8840
 0.6520	10.8530
 0.6530	10.8250
 0.6540	10.7990
 0.6550	10.7670
 0.6560	10.7340
 0.6570	10.7020
 0.6580	10.6700
 0.6590	10.6310
 0.6600	10.5940
 0.6610	10.5610
 0.6620	10.5280
 0.6630	10.4980
 0.6640	10.4720
 0.6650	10.4500
 0.6660	10.4420
 0.6670	10.4310
 0.6680	10.4180
 0.6690	10.4140
 0.6700	10.4180
 0.6710	10.4270
 0.6720	10.4360
 0.6730	10.4470
 0.6740	10.4640
 0.6750	10.4840
 0.6760	10.5040
 0.6770	10.5270
 0.6780	10.5530
 0.6790	10.5830
 0.6800	10.6140
 0.6810	10.6520
 0.6820	10.6940
 0.6830	10.7420
 0.6840	10.7910
 0.6850	10.8530
 0.6860	10.9280
 0.6870	11.0190
 0.6880	11.1340
 0.6890	11.2820
 0.6900	11.4730
 0.6910	11.7130
 0.6920	12.0210
 0.6930	12.4000
 0.6940	12.8510
 0.6950	13.3900
 0.6960	14.0130
 0.6970	14.7190
 0.6980	15.5040
 0.6990	16.3520
 0.7000	17.2620
 0.7010	18.2270
 0.7020	19.2270
 0.7030	20.2540
 0.7040	21.2970
 0.7050	22.3470
 0.7060	23.4020
 0.7070	24.4500
 0.7080	25.4870
 0.7090	26.5150
 0.7100	27.5300
 0.7110	28.5280
 0.7120	29.5090
 0.7130	30.4800
 0.7140	31.4240
 0.7150	32.3460
 0.7160	33.2510
 0.7170	34.1290
 0.7180	34.9920
 0.7190	35.8300
 0.7200	36.6320
 0.7210	37.4170
 0.7220	38.1750
 0.7230	38.9000
 0.7240	39.6010
 0.7250	40.2720
 0.7260	40.9130
 0.7270	41.5250
 0.7280	42.1020
 0.7290	42.6510
 0.7300	43.1710
 0.7310	43.6630
 0.7320	44.1250
 0.7330	44.5600
 0.7340	44.9720
 0.7350	45.3700
 0.7360	45.7370
 0.7370	46.0780
 0.7380	46.3970
 0.7390	46.6880
 0.7400	46.9700
 0.7410	47.2360
 0.7420	47.4750
 0.7430	47.6870
 0.7440	47.8850
 0.7450	48.0750
 0.7460	48.2560
 0.7470	48.4160
 0.7480	48.5600
 0.7490	48.6940
 0.7500	48.8140
 0.7510	48.9180
 0.7520	49.0130
 0.7530	49.1040
 0.7540	49.1890
 0.7550	49.2640
 0.7560	49.3310
 0.7570	49.3920
 0.7580	49.4350
 0.7590	49.4820
 0.7600	49.5400
 0.7610	49.5840
 0.7620	49.6250
 0.7630	49.6550
 0.7640	49.6690
 0.7650	49.6960
 0.7660	49.7260
 0.7670	49.7500
 0.7680	49.7630
 0.7690	49.7860
 0.7700	49.8050
 0.7710	49.8150
 0.7720	49.8310
 0.7730	49.8440
 0.7740	49.8530
 0.7750	49.8630
 0.7760	49.8770
 0.7770	49.8920
 0.7780	49.9030
 0.7790	49.9110
 0.7800	49.9270
 0.7810	49.9420
 0.7820	49.9510
 0.7830	49.9580
 0.7840	49.9610
 0.7850	49.9660
 0.7860	49.9770
 0.7870	49.9870
 0.7880	50.0030
 0.7890	50.0140
 0.7900	50.0150
 0.7910	50.0240
 0.7920	50.0290
 0.7930	50.0310
 0.7940	50.0420
 0.7950	50.0510
 0.7960	50.0510
 0.7970	50.0460
 0.7980	50.0530
 0.7990	50.0590
 0.8000	50.0610
 0.8010	50.0600
 0.8020	50.0660
 0.8030	50.0560
 0.8040	50.0470
 0.8050	50.0590
 0.8060	50.0480
 0.8070	50.0410
 0.8080	50.0430
 0.8090	50.0360
 0.8100	50.0320
 0.8110	50.0280
 0.8120	50.0220
 0.8130	50.0120
 0.8140	49.9980
 0.8150	49.9880
 0.8160	49.9880
 0.8170	49.9790
 0.8180	49.9580
 0.8190	49.9420
 0.8200	49.9500
 0.8210	49.9500
 0.8220	49.9350
 0.8230	49.9160
 0.8240	49.9100
 0.8250	49.8980
 0.8260	49.8840
 0.8270	49.8740
 0.8280	49.8620
 0.8290	49.8390
 0.8300	49.8200
 0.8310	49.8140
 0.8320	49.7980
 0.8330	49.7790
 0.8340	49.7650
 0.8350	49.7620
 0.8360	49.7520
 0.8370	49.7460
 0.8380	49.7410
 0.8390	49.7260
 0.8400	49.7170
 0.8410	49.7130
 0.8420	49.7090
 0.8430	49.7010
 0.8440	49.6950
 0.8450	49.6880
 0.8460	49.6800
 0.8470	49.6740
 0.8480	49.6690
 0.8490	49.6630
 0.8500	49.6540
 0.8510	49.6400
 0.8520	49.6420
 0.8530	49.6500
 0.8540	49.6430
 0.8550	49.6430
 0.8560	49.6410
 0.8570	49.6370
 0.8580	49.6450
 0.8590	49.6450
 0.8600	49.6380
 0.8610	49.6330
 0.8620	49.6450
 0.8630	49.6410
 0.8640	49.6370
 0.8650	49.6450
 0.8660	49.6340
 0.8670	49.6370
 0.8680	49.6440
 0.8690	49.6400
 0.8700	49.6390
 0.8710	49.6460
 0.8720	49.6520
 0.8730	49.6480
 0.8740	49.6590
 0.8750	49.6610
 0.8760	49.6560
 0.8770	49.6740
 0.8780	49.6720
 0.8790	49.6730
 0.8800	49.6850
 0.8810	49.6910
 0.8820	49.7040
 0.8830	49.7130
 0.8840	49.7130
 0.8850	49.7200
 0.8860	49.7290
 0.8870	49.7360
 0.8880	49.7360
 0.8890	49.7420
 0.8900	49.7430
 0.8910	49.7430
 0.8920	49.7490
 0.8930	49.7610
 0.8940	49.7640
 0.8950	49.7560
 0.8960	49.7520
 0.8970	49.7690
 0.8980	49.7810
 0.8990	49.7830
 0.9000	49.7900
 0.9010	49.8020
 0.9020	49.8070
 0.9030	49.7990
 0.9040	49.7890
 0.9050	49.8060
 0.9060	49.8230
 0.9070	49.8210
 0.9080	49.8260
 0.9090	49.8360
 0.9100	49.8510
 0.9110	49.8650
 0.9120	49.8630
 0.9130	49.8590
 0.9140	49.8600
 0.9150	49.8660
 0.9160	49.8700
 0.9170	49.8700
 0.9180	49.8680
 0.9190	49.8650
 0.9200	49.8750
 0.9210	49.8790
 0.9220	49.8760
 0.9230	49.8780
 0.9240	49.8830
 0.9250	49.8750
 0.9260	49.8570
 0.9270	49.8460
 0.9280	49.8300
 0.9290	49.8180
 0.9300	49.8120
 0.9310	49.7980
 0.9320	49.7730
 0.9330	49.7570
 0.9340	49.7580
 0.9350	49.7560
 0.9360	49.7460
 0.9370	49.7280
 0.9380	49.7090
 0.9390	49.6950
 0.9400	49.6880
 0.9410	49.6610
 0.9420	49.6110
 0.9430	49.5920
 0.9440	49.5700
 0.9450	49.5510
 0.9460	49.5340
 0.9470	49.4830
 0.9480	49.4360
 0.9490	49.3960
 0.9500	49.3560
 0.9510	49.3270
 0.9520	49.2860
 0.9530	49.2300
 0.9540	49.1690
 0.9550	49.1150
 0.9560	49.0710
 0.9570	49.0280
 0.9580	48.9770
 0.9590	48.9310
 0.9600	48.8900
 0.9610	48.8530
 0.9620	48.8230
 0.9630	48.8200
 0.9640	48.7980
 0.9650	48.7700
 0.9660	48.7650
 0.9670	48.7450
 0.9680	48.7250
 0.9690	48.7100
 0.9700	48.7030
 0.9710	48.6930
 0.9720	48.6730
 0.9730	48.6590
 0.9740	48.6650
 0.9750	48.6600
 0.9760	48.6470
 0.9770	48.6420
 0.9780	48.6570
 0.9790	48.6790
 0.9800	48.6630
 0.9810	48.6330
 0.9820	48.6350
 0.9830	48.6590
 0.9840	48.6650
 0.9850	48.6660
 0.9860	48.6920
 0.9870	48.6850
 0.9880	48.6660
 0.9890	48.6730
 0.9900	48.7230
 0.9910	48.7310
 0.9920	48.7780
 0.9930	48.8240
 0.9940	48.8710
 0.9950	48.9170
 0.9960	48.9640
 0.9970	49.0100
 0.9980	49.0570
 0.9990	49.1030
 1.0000	49.1500
 1.0010	49.1960
 1.0020	49.2430
 1.0030	49.2890
 1.0040	49.3360
 1.0050	49.3820
 1.0060	49.4290
 1.0070	49.4750
 1.0080	49.5220
 1.0090	49.5680
 1.0100	49.5680
 1.0110	49.5760
 1.0120	49.5890
 1.0130	49.6100
 1.0140	49.6250
 1.0150	49.6400
 1.0160	49.6520
 1.0170	49.6590
 1.0180	49.6670
 1.0190	49.6750
 1.0200	49.6840
 1.0210	49.6960
 1.0220	49.7070
 1.0230	49.7190
 1.0240	49.7340
 1.0250	49.7460
 1.0260	49.7550
 1.0270	49.7660
 1.0280	49.7760
 1.0290	49.7860
 1.0300	49.7980
 1.0310	49.8090
 1.0320	49.8170
 1.0330	49.8260
 1.0340	49.8360
 1.0350	49.8470
 1.0360	49.8590
 1.0370	49.8690
 1.0380	49.8780
 1.0390	49.8850
 1.0400	49.8950
 1.0410	49.9050
 1.0420	49.9160
 1.0430	49.9300
 1.0440	49.9400
 1.0450	49.9450
 1.0460	49.9530
 1.0470	49.9600
 1.0480	49.9650
 1.0490	49.9700
 1.0500	49.9750
 1.0510	49.9780
 1.0520	49.9810
 1.0530	49.9860
 1.0540	49.9960
 1.0550	50.0010
 1.0560	50.0070
 1.0570	50.0120
 1.0580	50.0170
 1.0590	50.0200
 1.0600	50.0190
 1.0610	50.0210
 1.0620	50.0240
 1.0630	50.0270
 1.0640	50.0330
 1.0650	50.0370
 1.0660	50.0360
 1.0670	50.0380
 1.0680	50.0410
 1.0690	50.0440
 1.0700	50.0460
 1.0710	50.0520
 1.0720	50.0510
 1.0730	50.0450
 1.0740	50.0420
 1.0750	50.0330
 1.0760	50.0310
 1.0770	50.0340
 1.0780	50.0320
 1.0790	50.0290
 1.0800	50.0260
 1.0810	50.0180
 1.0820	50.0130
 1.0830	50.0110
 1.0840	50.0080
 1.0850	50.0090
 1.0860	50.0090
 1.0870	50.0040
 1.0880	49.9970
 1.0890	49.9900
 1.0900	49.9780
 1.0910	49.9690
 1.0920	49.9630
 1.0930	49.9560
 1.0940	49.9520
 1.0950	49.9450
 1.0960	49.9370
 1.0970	49.9290
 1.0980	49.9170
 1.0990	49.9070
 1.1000	49.9030
 1.1010	49.8930
 1.1020	49.8800
 1.1030	49.8670
 1.1040	49.8560
 1.1050	49.8420
 1.1060	49.8320
 1.1070	49.8270
 1.1080	49.8170
 1.1090	49.8050
 1.1100	49.7910
 1.1110	49.7740
 1.1120	49.7590
 1.1130	49.7430
 1.1140	49.7290
 1.1150	49.7190
 1.1160	49.7050
 1.1170	49.6890
 1.1180	49.6720
 1.1190	49.6520
 1.1200	49.6300
 1.1210	49.6100
 1.1220	49.5850
 1.1230	49.5550
 1.1240	49.5260
 1.1250	49.4910
 1.1260	49.4530
 1.1270	49.4100
 1.1280	49.3650
 1.1290	49.3130
 1.1300	49.2570
 1.1310	49.1960
 1.1320	49.1330
 1.1330	49.0620
 1.1340	48.9840
 1.1350	48.9010
 1.1360	48.8100
 1.1370	48.7180
 1.1380	48.6220
 1.1390	48.5230
 1.1400	48.4170
 1.1410	48.3070
 1.1420	48.1960
 1.1430	48.0840
 1.1440	47.9710
 1.1450	47.8570
 1.1460	47.7470
 1.1470	47.6340
 1.1480	47.5310
 1.1490	47.4340
 1.1500	47.3420
 1.1510	47.2550
 1.1520	47.1730
 1.1530	47.0950
 1.1540	47.0250
 1.1550	46.9620
 1.1560	46.9030
 1.1570	46.8530
 1.1580	46.8100
 1.1590	46.7720
 1.1600	46.7400
 1.1610	46.7110
 1.1620	46.6870
 1.1630	46.6680
 1.1640	46.6520
 1.1650	46.6380
 1.1660	46.6270
 1.1670	46.6190
 1.1680	46.6140
 1.1690	46.6080
 1.1700	46.6040
 1.1710	46.5990
 1.1720	46.5930
 1.1730	46.5880
 1.1740	46.5840
 1.1750	46.5800
 1.1760	46.5750
 1.1770	46.5670
 1.1780	46.5600
 1.1790	46.5520
 1.1800	46.5420
 1.1810	46.5330
 1.1820	46.5220
 1.1830	46.5090
 1.1840	46.4980
 1.1850	46.4890
 1.1860	46.4810
 1.1870	46.4740
 1.1880	46.4690
 1.1890	46.4660
 1.1900	46.4620
 1.1910	46.4570
 1.1920	46.4530
 1.1930	46.4490
 1.1940	46.4470
 1.1950	46.4460
 1.1960	46.4460
 1.1970	46.4460
 1.1980	46.4500
 1.1990	46.4530
 1.2000	46.4580
 1.2010	46.4660
 1.2020	46.4720
 1.2030	46.4800
 1.2040	46.4900
 1.2050	46.4990
 1.2060	46.5090
 1.2070	46.5200
 1.2080	46.5320
 1.2090	46.5440
 1.2100	46.5540
 1.2110	46.5670
 1.2120	46.5800
 1.2130	46.5940
 1.2140	46.6070
 1.2150	46.6230
 1.2160	46.6390
 1.2170	46.6550
 1.2180	46.6740
 1.2190	46.6920
 1.2200	46.7100
 1.2210	46.7300
 1.2220	46.7470
 1.2230	46.7630
 1.2240	46.7790
 1.2250	46.7940
 1.2260	46.8090
 1.2270	46.8250
 1.2280	46.8420
 1.2290	46.8580
 1.2300	46.8720
 1.2310	46.8880
 1.2320	46.9040
 1.2330	46.9180
 1.2340	46.9310
 1.2350	46.9430
 1.2360	46.9550
 1.2370	46.9660
 1.2380	46.9780
 1.2390	46.9920
 1.2400	47.0050
 1.2410	47.0170
 1.2420	47.0280
 1.2430	47.0400
 1.2440	47.0510
 1.2450	47.0590
 1.2460	47.0660
 1.2470	47.0720
 1.2480	47.0770
 1.2490	47.0840
 1.2500	47.0940
 1.2510	47.1020
 1.2520	47.1080
 1.2530	47.1110
 1.2540	47.1140
 1.2550	47.1190
 1.2560	47.1240
 1.2570	47.1300
 1.2580	47.1340
 1.2590	47.1350
 1.2600	47.1330
 1.2610	47.1320
 1.2620	47.1300
 1.2630	47.1290
 1.2640	47.1250
 1.2650	47.1230
 1.2660	47.1200
 1.2670	47.1150
 1.2680	47.1120
 1.2690	47.1080
 1.2700	47.0990
 1.2710	47.0900
 1.2720	47.0810
 1.2730	47.0710
 1.2740	47.0640
 1.2750	47.0540
 1.2760	47.0420
 1.2770	47.0310
 1.2780	47.0170
 1.2790	47.0030
 1.2800	46.9910
 1.2810	46.9770
 1.2820	46.9620
 1.2830	46.9460
 1.2840	46.9250
 1.2850	46.9020
 1.2860	46.8790
 1.2870	46.8550
 1.2880	46.8310
 1.2890	46.8070
 1.2900	46.7820
 1.2910	46.7550
 1.2920	46.7250
 1.2930	46.6960
 1.2940	46.6650
 1.2950	46.6320
 1.2960	46.6000
 1.2970	46.5620
 1.2980	46.5210
 1.2990	46.4790
 1.3000	46.4340
 1.3010	46.3860
 1.3020	46.3380
 1.3030	46.2870
 1.3040	46.2320
 1.3050	46.1760
 1.3060	46.1200
 1.3070	46.0600
 1.3080	45.9990
 1.3090	45.9370
 1.3100	45.8690
 1.3110	45.8000
 1.3120	45.7270
 1.3130	45.6520
 1.3140	45.5740
 1.3150	45.4940
 1.3160	45.4110
 1.3170	45.3260
 1.3180	45.2370
 1.3190	45.1480
 1.3200	45.0540
 1.3210	44.9570
 1.3220	44.8590
 1.3230	44.7570
 1.3240	44.6540
 1.3250	44.5500
 1.3260	44.4430
 1.3270	44.3340
 1.3280	44.2240
 1.3290	44.1110
 1.3300	43.9960
 1.3310	43.8800
 1.3320	43.7610
 1.3330	43.6450
 1.3340	43.5300
 1.3350	43.4100
 1.3360	43.2900
 1.3370	43.1680
 1.3380	43.0450
 1.3390	42.9240
 1.3400	42.8030
 1.3410	42.6830
 1.3420	42.5630
 1.3430	42.4420
 1.3440	42.3230
 1.3450	42.2040
 1.3460	42.0860
 1.3470	41.9700
 1.3480	41.8550
 1.3490	41.7400
 1.3500	41.6260
 1.3510	41.5110
 1.3520	41.3940
 1.3530	41.2800
 1.3540	41.1670
 1.3550	41.0540
 1.3560	40.9390
 1.3570	40.8230
 1.3580	40.7040
 1.3590	40.5810
 1.3600	40.4570
 1.3610	40.3310
 1.3620	40.1970
 1.3630	40.0600
 1.3640	39.9160
 1.3650	39.7650
 1.3660	39.6070
 1.3670	39.4410
 1.3680	39.2650
 1.3690	39.0780
 1.3700	38.8780
 1.3710	38.6670
 1.3720	38.4410
 1.3730	38.1980
 1.3740	37.9390
 1.3750	37.6640
 1.3760	37.3670
 1.3770	37.0510
 1.3780	36.7100
 1.3790	36.3480
 1.3800	35.9630
 1.3810	35.5530
 1.3820	35.1260
 1.3830	34.6800
 1.3840	34.2160
 1.3850	33.7340
 1.3860	33.2360
 1.3870	32.7170
 1.3880	32.1920
 1.3890	31.6530
 1.3900	31.1020
 1.3910	30.5520
 1.3920	29.9950
 1.3930	29.4360
 1.3940	28.8800
 1.3950	28.3210
 1.3960	27.7720
 1.3970	27.2330
 1.3980	26.7020
 1.3990	26.1930
 1.4000	25.6970
 1.4010	25.2150
 1.4020	24.7550
 1.4030	24.3110
 1.4040	23.8890
 1.4050	23.4900
 1.4060	23.1100
 1.4070	22.7580
 1.4080	22.4260
 1.4090	22.1150
 1.4100	21.8280
 1.4110	21.5600
 1.4120	21.3110
 1.4130	21.0840
 1.4140	20.8730
 1.4150	20.6830
 1.4160	20.5090
 1.4170	20.3480
 1.4180	20.2030
 1.4190	20.0710
 1.4200	19.9520
 1.4210	19.8460
 1.4220	19.7490
 1.4230	19.6640
 1.4240	19.5880
 1.4250	19.5190
 1.4260	19.4610
 1.4270	19.4090
 1.4280	19.3660
 1.4290	19.3270
 1.4300	19.2950
 1.4310	19.2670
 1.4320	19.2450
 1.4330	19.2270
 1.4340	19.2150
 1.4350	19.2070
 1.4360	19.2030
 1.4370	19.2030
 1.4380	19.2060
 1.4390	19.2110
 1.4400	19.2180
 1.4410	19.2290
 1.4420	19.2410
 1.4430	19.2550
 1.4440	19.2720
 1.4450	19.2890
 1.4460	19.3080
 1.4470	19.3280
 1.4480	19.3480
 1.4490	19.3690
 1.4500	19.3920
 1.4510	19.4160
 1.4520	19.4410
 1.4530	19.4680
 1.4540	19.4960
 1.4550	19.5250
 1.4560	19.5580
 1.4570	19.5920
 1.4580	19.6290
 1.4590	19.6700
 1.4600	19.7140
 1.4610	19.7630
 1.4620	19.8160
 1.4630	19.8730
 1.4640	19.9350
 1.4650	20.0010
 1.4660	20.0730
 1.4670	20.1500
 1.4680	20.2320
 1.4690	20.3190
 1.4700	20.4100
 1.4710	20.5060
 1.4720	20.6050
 1.4730	20.7080
 1.4740	20.8140
 1.4750	20.9220
 1.4760	21.0340
 1.4770	21.1490
 1.4780	21.2650
 1.4790	21.3840
 1.4800	21.5040
 1.4810	21.6250
 1.4820	21.7480
 1.4830	21.8720
 1.4840	21.9990
 1.4850	22.1250
 1.4860	22.2510
 1.4870	22.3780
 1.4880	22.5040
 1.4890	22.6320
 1.4900	22.7610
 1.4910	22.8900
 1.4920	23.0200
 1.4930	23.1520
 1.4940	23.2820
 1.4950	23.4130
 1.4960	23.5430
 1.4970	23.6710
 1.4980	23.8020
 1.4990	23.9330
 1.5000	24.0640
 1.5010	24.1970
 1.5020	24.3280
 1.5030	24.4590
 1.5040	24.5880
 1.5050	24.7160
 1.5060	24.8440
 1.5070	24.9700
 1.5080	25.0980
 1.5090	25.2260
 1.5100	25.3520
 1.5110	25.4790
 1.5120	25.6060
 1.5130	25.7310
 1.5140	25.8540
 1.5150	25.9760
 1.5160	26.0970
 1.5170	26.2190
 1.5180	26.3400
 1.5190	26.4610
 1.5200	26.5820
 1.5210	26.6980
 1.5220	26.8150
 1.5230	26.9320
 1.5240	27.0460
 1.5250	27.1600
 1.5260	27.2760
 1.5270	27.3900
 1.5280	27.5050
 1.5290	27.6160
 1.5300	27.7250
 1.5310	27.8320
 1.5320	27.9390
 1.5330	28.0470
 1.5340	28.1540
 1.5350	28.2600
 1.5360	28.3650
 1.5370	28.4680
 1.5380	28.5700
 1.5390	28.6710
 1.5400	28.7700
 1.5410	28.8690
 1.5420	28.9670
 1.5430	29.0640
 1.5440	29.1610
 1.5450	29.2550
 1.5460	29.3480
 1.5470	29.4420
 1.5480	29.5350
 1.5490	29.6270
 1.5500	29.7190
 1.5510	29.8100
 1.5520	29.9010
 1.5530	29.9880
 1.5540	30.0750
 1.5550	30.1610
 1.5560	30.2450
 1.5570	30.3280
 1.5580	30.4100
 1.5590	30.4910
 1.5600	30.5730
 1.5610	30.6540
 1.5620	30.7330
 1.5630	30.8110
 1.5640	30.8870
 1.5650	30.9620
 1.5660	31.0370
 1.5670	31.1110
 1.5680	31.1850
 1.5690	31.2580
 1.5700	31.3310
 1.5710	31.4020
 1.5720	31.4720
 1.5730	31.5410
 1.5740	31.6110
 1.5750	31.6800
 1.5760	31.7490
 1.5770	31.8160
 1.5780	31.8810
 1.5790	31.9460
 1.5800	32.0100
 1.5810	32.0750
 1.5820	32.1390
 1.5830	32.2020
 1.5840	32.2680
 1.5850	32.3320
 1.5860	32.3940
 1.5870	32.4560
 1.5880	32.5160
 1.5890	32.5740
 1.5900	32.6330
 1.5910	32.6930
 1.5920	32.7520
 1.5930	32.8080
 1.5940	32.8650
 1.5950	32.9200
 1.5960	32.9740
 1.5970	33.0300
 1.5980	33.0820
 1.5990	33.1350
 1.6000	33.1890
 1.6010	33.2420
 1.6020	33.2930
 1.6030	33.3430
 1.6040	33.3930
 1.6050	33.4410
 1.6060	33.4900
 1.6070	33.5380
 1.6080	33.5840
 1.6090	33.6280
 1.6100	33.6740
 1.6110	33.7220
 1.6120	33.7690
 1.6130	33.8140
 1.6140	33.8550
 1.6150	33.8960
 1.6160	33.9370
 1.6170	33.9770
 1.6180	34.0170
 1.6190	34.0560
 1.6200	34.0920
 1.6210	34.1280
 1.6220	34.1620
 1.6230	34.1970
 1.6240	34.2310
 1.6250	34.2650
 1.6260	34.2990
 1.6270	34.3310
 1.6280	34.3640
 1.6290	34.3940
 1.6300	34.4240
 1.6310	34.4530
 1.6320	34.4820
 1.6330	34.5100
 1.6340	34.5360
 1.6350	34.5620
 1.6360	34.5890
 1.6370	34.6120
 1.6380	34.6340
 1.6390	34.6550
 1.6400	34.6720
 1.6410	34.6890
 1.6420	34.7050
 1.6430	34.7190
 1.6440	34.7300
 1.6450	34.7420
 1.6460	34.7520
 1.6470	34.7610
 1.6480	34.7680
 1.6490	34.7710
 1.6500	34.7720
 1.6510	34.7740
 1.6520	34.7750
 1.6530	34.7770
 1.6540	34.7770
 1.6550	34.7720
 1.6560	34.7670
 1.6570	34.7620
 1.6580	34.7560
 1.6590	34.7550
 1.6600	34.7530
 1.6610	34.7500
 1.6620	34.7480
 1.6630	34.7460
 1.6640	34.7440
 1.6650	34.7460
 1.6660	34.7480
 1.6670	34.7500
 1.6680	34.7500
 1.6690	34.7470
 1.6700	34.7440
 1.6710	34.7410
 1.6720	34.7360
 1.6730	34.7310
 1.6740	34.7240
 1.6750	34.7120
 1.6760	34.6980
 1.6770	34.6830
 1.6780	34.6620
 1.6790	34.6420
 1.6800	34.6210
 1.6810	34.5980
 1.6820	34.5730
 1.6830	34.5450
 1.6840	34.5130
 1.6850	34.4780
 1.6860	34.4410
 1.6870	34.4040
 1.6880	34.3670
 1.6890	34.3270
 1.6900	34.2880
 1.6910	34.2490
 1.6920	34.2090
 1.6930	34.1690
 1.6940	34.1290
 1.6950	34.0860
 1.6960	34.0450
 1.6970	34.0050
 1.6980	33.9640
 1.6990	33.9220
 1.7000	33.8800
 1.7010	33.8360
 1.7020	33.7930
 1.7030	33.7510
 1.7040	33.7060
 1.7050	33.6590
 1.7060	33.6130
 1.7070	33.5650
 1.7080	33.5180
 1.7090	33.4720
 1.7100	33.4250
 1.7110	33.3760
 1.7120	33.3290
 1.7130	33.2810
 1.7140	33.2330
 1.7150	33.1850
 1.7160	33.1390
 1.7170	33.0910
 1.7180	33.0430
 1.7190	32.9970
 1.7200	32.9520
 1.7210	32.9090
 1.7220	32.8650
 1.7230	32.8200
 1.7240	32.7750
 1.7250	32.7300
 1.7260	32.6880
 1.7270	32.6450
 1.7280	32.6010
 1.7290	32.5570
 1.7300	32.5130
 1.7310	32.4690
 1.7320	32.4250
 1.7330	32.3820
 1.7340	32.3410
 1.7350	32.2980
 1.7360	32.2550
 1.7370	32.2110
 1.7380	32.1660
 1.7390	32.1180
 1.7400	32.0690
 1.7410	32.0170
 1.7420	31.9600
 1.7430	31.9060
 1.7440	31.8500
 1.7450	31.7950
 1.7460	31.7400
 1.7470	31.6830
 1.7480	31.6230
 1.7490	31.5630
 1.7500	31.4990
 1.7510	31.4400
 1.7520	31.3830
 1.7530	31.3230
 1.7540	31.2640
 1.7550	31.2030
 1.7560	31.1410
 1.7570	31.0830
 1.7580	31.0270
 1.7590	30.9700
 1.7600	30.9160
 1.7610	30.8590
 1.7620	30.8040
 1.7630	30.7490
 1.7640	30.6960
 1.7650	30.6440
 1.7660	30.5950
 1.7670	30.5480
 1.7680	30.5010
 1.7690	30.4540
 1.7700	30.4090
 1.7710	30.3630
 1.7720	30.3200
 1.7730	30.2780
 1.7740	30.2380
 1.7750	30.2010
 1.7760	30.1620
 1.7770	30.1230
 1.7780	30.0870
 1.7790	30.0500
 1.7800	30.0170
 1.7810	29.9860
 1.7820	29.9570
 1.7830	29.9300
 1.7840	29.9020
 1.7850	29.8760
 1.7860	29.8510
 1.7870	29.8260
 1.7880	29.8050
 1.7890	29.7880
 1.7900	29.7690
 1.7910	29.7520
 1.7920	29.7350
 1.7930	29.7210
 1.7940	29.7110
 1.7950	29.7010
 1.7960	29.6940
 1.7970	29.6880
 1.7980	29.6830
 1.7990	29.6780
 1.8000	29.6740
 1.8010	29.6700
 1.8020	29.6670
 1.8030	29.6640
 1.8040	29.6630
 1.8050	29.6610
 1.8060	29.6570
 1.8070	29.6550
 1.8080	29.6550
 1.8090	29.6520
 1.8100	29.6510
 1.8110	29.6480
 1.8120	29.6420
 1.8130	29.6400
 1.8140	29.6390
 1.8150	29.6370
 1.8160	29.6370
 1.8170	29.6320
 1.8180	29.6260
 1.8190	29.6190
 1.8200	29.6120
 1.8210	29.6060
 1.8220	29.5970
 1.8230	29.5880
 1.8240	29.5770
 1.8250	29.5610
 1.8260	29.5470
 1.8270	29.4870
 1.8280	29.4270
 1.8290	29.3670
 1.8300	29.3070
 1.8310	29.2470
 1.8320	29.1870
 1.8330	29.1270
 1.8340	29.0680
 1.8350	29.0680
 1.8360	29.0240
 1.8370	28.9760
 1.8380	28.9210
 1.8390	28.8620
 1.8400	28.8010
 1.8410	28.7320
 1.8420	28.6590
 1.8430	28.5770
 1.8440	28.4860
 1.8450	28.3940
 1.8460	28.2920
 1.8470	28.1830
 1.8480	28.0700
 1.8490	27.9410
 1.8500	27.8010
 1.8510	27.6500
 1.8520	27.4900
 1.8530	27.3150
 1.8540	27.1300
 1.8550	26.9340
 1.8560	26.7240
 1.8570	26.5010
 1.8580	26.2670
 1.8590	26.0190
 1.8600	25.7580
 1.8610	25.4790
 1.8620	25.1850
 1.8630	24.8810
 1.8640	24.5550
 1.8650	24.2130
 1.8660	23.8550
 1.8670	23.4720
 1.8680	23.0730
 1.8690	22.6620
 1.8700	22.2350
 1.8710	21.7920
 1.8720	21.3430
 1.8730	20.8810
 1.8740	20.4090
 1.8750	19.9330
 1.8760	19.4470
 1.8770	18.9620
 1.8780	18.4790
 1.8790	17.9930
 1.8800	17.5190
 1.8810	17.0540
 1.8820	16.5910
 1.8830	16.1350
 1.8840	15.6920
 1.8850	15.2550
 1.8860	14.8350
 1.8870	14.4300
 1.8880	14.0410
 1.8890	13.6780
 1.8900	13.3340
 1.8910	13.0100
 1.8920	12.7050
 1.8930	12.4260
 1.8940	12.1620
 1.8950	11.9210
 1.8960	11.7060
 1.8970	11.5070
 1.8980	11.3270
 1.8990	11.1650
 1.9000	11.0170
 1.9010	10.8860
 1.9020	10.7690
 1.9030	10.6680
 1.9040	10.5810
 1.9050	10.5040
 1.9060	10.4360
 1.9070	10.3780
 1.9080	10.3260
 1.9090	10.2810
 1.9100	10.2400
 1.9110	10.2050
 1.9120	10.1770
 1.9130	10.1510
 1.9140	10.1290
 1.9150	10.1120
 1.9160	10.0960
 1.9170	10.0850
 1.9180	10.0770
 1.9190	10.0690
 1.9200	10.0650
 1.9210	10.0620
 1.9220	10.0600
 1.9230	10.0590
 1.9240	10.0590
 1.9250	10.0590
 1.9260	10.0610
 1.9270	10.0670
 1.9280	10.0740
 1.9290	10.0820
 1.9300	10.0900
 1.9310	10.0980
 1.9320	10.1090
 1.9330	10.1220
 1.9340	10.1380
 1.9350	10.1520
 1.9360	10.1670
 1.9370	10.1820
 1.9380	10.1940
 1.9390	10.2090
 1.9400	10.2270
 1.9410	10.2460
 1.9420	10.2650
 1.9430	10.2850
 1.9440	10.3050
 1.9450	10.3240
 1.9460	10.3460
 1.9470	10.3680
 1.9480	10.3930
 1.9490	10.4200
 1.9500	10.4480
 1.9510	10.4770
 1.9520	10.5040
 1.9530	10.5300
 1.9540	10.5580
 1.9550	10.5860
 1.9560	10.6140
 1.9570	10.6440
 1.9580	10.6750
 1.9590	10.7070
 1.9600	10.7400
 1.9610	10.7750
 1.9620	10.8120
 1.9630	10.8490
 1.9640	10.8890
 1.9650	10.9260
 1.9660	10.9630
 1.9670	11.0030
 1.9680	11.0430
 1.9690	11.0820
 1.9700	11.1240
 1.9710	11.1680
 1.9720	11.2110
 1.9730	11.2540
 1.9740	11.2980
 1.9750	11.3420
 1.9760	11.3870
 1.9770	11.4300
 1.9780	11.4760
 1.9790	11.5240
 1.9800	11.5730
 1.9810	11.6240
 1.9820	11.6800
 1.9830	11.7320
 1.9840	11.7850
 1.9850	11.8390
 1.9860	11.8930
 1.9870	11.9460
 1.9880	12.0040
 1.9890	12.0590
 1.9900	12.1140
 1.9910	12.1720
 1.9920	12.2300
 1.9930	12.2860
 1.9940	12.3450
 1.9950	12.4070
 1.9960	12.4660
 1.9970	12.5240
 1.9980	12.5830
 1.9990	12.6400
 2.0000	12.6980
 2.0010	12.7590
 2.0020	12.8200
 2.0030	12.8810
 2.0040	12.9430
 2.0050	13.0050
 2.0060	13.0660
 2.0070	13.1270
 2.0080	13.1860
 2.0090	13.2480
 2.0100	13.3120
 2.0110	13.3740
 2.0120	13.4360
 2.0130	13.5000
 2.0140	13.5600
 2.0150	13.6170
 2.0160	13.6780
 2.0170	13.7380
 2.0180	13.7970
 2.0190	13.8570
 2.0200	13.9150
 2.0210	13.9720
 2.0220	14.0280
 2.0230	14.0850
 2.0240	14.1410
 2.0250	14.1960
 2.0260	14.2490
 2.0270	14.3030
 2.0280	14.3550
 2.0290	14.4030
 2.0300	14.4530
 2.0310	14.5020
 2.0320	14.5500
 2.0330	14.6000
 2.0340	14.6540
 2.0350	14.7030
 2.0360	14.7500
 2.0370	14.7960
 2.0380	14.8360
 2.0390	14.8800
 2.0400	14.9230
 2.0410	14.9680
 2.0420	15.0140
 2.0430	15.0600
 2.0440	15.1040
 2.0450	15.1480
 2.0460	15.1890
 2.0470	15.2270
 2.0480	15.2660
 2.0490	15.3060
 2.0500	15.3450
 2.0510	15.3820
 2.0520	15.4220
 2.0530	15.4620
 2.0540	15.5000
 2.0550	15.5370
 2.0560	15.5780
 2.0570	15.6170
 2.0580	15.6560
 2.0590	15.6980
 2.0600	15.7440
 2.0610	15.7860
 2.0620	15.8300
 2.0630	15.8720
 2.0640	15.9110
 2.0650	15.9530
 2.0660	15.9940
 2.0670	16.0370
 2.0680	16.0800
 2.0690	16.1220
 2.0700	16.1610
 2.0710	16.2040
 2.0720	16.2480
 2.0730	16.2940
 2.0740	16.3380
 2.0750	16.3850
 2.0760	16.4280
 2.0770	16.4670
 2.0780	16.5070
 2.0790	16.5460
 2.0800	16.5840
 2.0810	16.6190
 2.0820	16.6570
 2.0830	16.6970
 2.0840	16.7360
 2.0850	16.7740
 2.0860	16.8130
 2.0870	16.8520
 2.0880	16.8910
 2.0890	16.9280
 2.0900	16.9670
 2.0910	17.0030
 2.0920	17.0350
 2.0930	17.0710
 2.0940	17.1070
 2.0950	17.1460
 2.0960	17.1890
 2.0970	17.2280
 2.0980	17.2700
 2.0990	17.3060
 2.1000	17.3360
 2.1010	17.3690
 2.1020	17.4010
 2.1030	17.4330
 2.1040	17.4650
 2.1050	17.5000
 2.1060	17.5330
 2.1070	17.5650
 2.1080	17.5980
 2.1090	17.6290
 2.1100	17.6630
 2.1110	17.6990
 2.1120	17.7320
 2.1130	17.7660
 2.1140	17.7970
 2.1150	17.8230
 2.1160	17.8530
 2.1170	17.8860
 2.1180	17.9160
 2.1190	17.9460
 2.1200	17.9750
 2.1210	18.0020
 2.1220	18.0260
 2.1230	18.0530
 2.1240	18.0810
 2.1250	18.1070
 2.1260	18.1310
 2.1270	18.1570
 2.1280	18.1800
 2.1290	18.2060
 2.1300	18.2340
 2.1310	18.2580
 2.1320	18.2810
 2.1330	18.3030
 2.1340	18.3230
 2.1350	18.3420
 2.1360	18.3580
 2.1370	18.3760
 2.1380	18.3920
 2.1390	18.4110
 2.1400	18.4310
 2.1410	18.4530
 2.1420	18.4730
 2.1430	18.4950
 2.1440	18.5140
 2.1450	18.5310
 2.1460	18.5480
 2.1470	18.5640
 2.1480	18.5810
 2.1490	18.6000
 2.1500	18.6170
 2.1510	18.6330
 2.1520	18.6470
 2.1530	18.6570
 2.1540	18.6710
 2.1550	18.6870
 2.1560	18.6990
 2.1570	18.7120
 2.1580	18.7220
 2.1590	18.7260
 2.1600	18.7330
 2.1610	18.7460
 2.1620	18.7600
 2.1630	18.7730
 2.1640	18.7920
 2.1650	18.8040
 2.1660	18.8110
 2.1670	18.8200
 2.1680	18.8250
 2.1690	18.8340
 2.1700	18.8440
 2.1710	18.8540
 2.1720	18.8680
 2.1730	18.8790
 2.1740	18.8880
 2.1750	18.9000
 2.1760	18.9100
 2.1770	18.9240
 2.1780	18.9430
 2.1790	18.9590
 2.1800	18.9740
 2.1810	18.9920
 2.1820	19.0100
 2.1830	19.0270
 2.1840	19.0430
 2.1850	19.0610
 2.1860	19.0780
 2.1870	19.0940
 2.1880	19.1100
 2.1890	19.1280
 2.1900	19.1440
 2.1910	19.1590
 2.1920	19.1760
 2.1930	19.1930
 2.1940	19.2110
 2.1950	19.2280
 2.1960	19.2450
 2.1970	19.2640
 2.1980	19.2800
 2.1990	19.2970
 2.2000	19.3110
 2.2010	19.3220
 2.2020	19.3320
 2.2030	19.3380
 2.2040	19.3480
 2.2050	19.3580
 2.2060	19.3680
 2.2070	19.3820
 2.2080	19.4010
 2.2090	19.4160
 2.2100	19.4340
 2.2110	19.4460
 2.2120	19.4560
 2.2130	19.4650
 2.2140	19.4730
 2.2150	19.4790
 2.2160	19.4840
 2.2170	19.4880
 2.2180	19.4890
 2.2190	19.4910
 2.2200	19.4950
 2.2210	19.4970
 2.2220	19.4990
 2.2230	19.4990
 2.2240	19.4990
 2.2250	19.4950
 2.2260	19.4890
 2.2270	19.4790
 2.2280	19.4610
 2.2290	19.4470
 2.2300	19.4330
 2.2310	19.4140
 2.2320	19.3980
 2.2330	19.3810
 2.2340	19.3600
 2.2350	19.3360
 2.2360	19.3080
 2.2370	19.2740
 2.2380	19.2420
 2.2390	19.2050
 2.2400	19.1700
 2.2410	19.1370
 2.2420	19.1000
 2.2430	19.0610
 2.2440	19.0210
 2.2450	18.9780
 2.2460	18.9370
 2.2470	18.8960
 2.2480	18.8520
 2.2490	18.8100
 2.2500	18.7630
 2.2510	18.7100
 2.2520	18.6620
 2.2530	18.6140
 2.2540	18.5660
 2.2550	18.5190
 2.2560	18.4740
 2.2570	18.4290
 2.2580	18.3830
 2.2590	18.3380
 2.2600	18.2920
 2.2610	18.2430
 2.2620	18.1940
 2.2630	18.1410
 2.2640	18.0930
 2.2650	18.0470
 2.2660	18.0000
 2.2670	17.9510
 2.2680	17.9040
 2.2690	17.8570
 2.2700	17.8050
 2.2710	17.7580
 2.2720	17.7170
 2.2730	17.6700
 2.2740	17.6200
 2.2750	17.5750
 2.2760	17.5310
 2.2770	17.4870
 2.2780	17.4450
 2.2790	17.4060
 2.2800	17.3700
 2.2810	17.3320
 2.2820	17.2990
 2.2830	17.2620
 2.2840	17.2190
 2.2850	17.1790
 2.2860	17.1430
 2.2870	17.0990
 2.2880	17.0520
 2.2890	17.0070
 2.2900	16.9590
 2.2910	16.9130
 2.2920	16.8720
 2.2930	16.8270
 2.2940	16.7770
 2.2950	16.7290
 2.2960	16.6770
 2.2970	16.6320
 2.2980	16.5930
 2.2990	16.5580
 2.3000	16.5170
 2.3010	16.4770
 2.3020	16.4300
 2.3030	16.3780
 2.3040	16.3370
 2.3050	16.3000
 2.3060	16.2680
 2.3070	16.2410
 2.3080	16.2110
 2.3090	16.1830
 2.3100	16.1540
 2.3110	16.1270
 2.3120	16.1010
 2.3130	16.0790
 2.3140	16.0550
 2.3150	16.0320
 2.3160	16.0090
 2.3170	15.9850
 2.3180	15.9610
 2.3190	15.9370
 2.3200	15.9140
 2.3210	15.8920
 2.3220	15.8670
 2.3230	15.8420
 2.3240	15.8140
 2.3250	15.7850
 2.3260	15.7480
 2.3270	15.7020
 2.3280	15.6630
 2.3290	15.6230
 2.3300	15.5830
 2.3310	15.5470
 2.3320	15.5100
 2.3330	15.4720
 2.3340	15.4280
 2.3350	15.3810
 2.3360	15.3370
 2.3370	15.2840
 2.3380	15.2400
 2.3390	15.2080
 2.3400	15.1700
 2.3410	15.1300
 2.3420	15.0920
 2.3430	15.0530
 2.3440	15.0140
 2.3450	14.9770
 2.3460	14.9410
 2.3470	14.9030
 2.3480	14.8680
 2.3490	14.8340
 2.3500	14.8020
 2.3510	14.7710
 2.3520	14.7440
 2.3530	14.7210
 2.3540	14.6980
 2.3550	14.6810
 2.3560	14.6570
 2.3570	14.6320
 2.3580	14.6040
 2.3590	14.5660
 2.3600	14.5280
 2.3610	14.4940
 2.3620	14.4630
 2.3630	14.4380
 2.3640	14.4090
 2.3650	14.3750
 2.3660	14.3350
 2.3670	14.2950
 2.3680	14.2600
 2.3690	14.2340
 2.3700	14.2140
 2.3710	14.1780
 2.3720	14.1350
 2.3730	14.0880
 2.3740	14.0350
 2.3750	13.9990
 2.3760	13.9690
 2.3770	13.9440
 2.3780	13.9140
 2.3790	13.8800
 2.3800	13.8520
 2.3810	13.8150
 2.3820	13.7830
 2.3830	13.7490
 2.3840	13.7040
 2.3850	13.6590
 2.3860	13.6200
 2.3870	13.5860
 2.3880	13.5590
 2.3890	13.5260
 2.3900	13.4830
 2.3910	13.4400
 2.3920	13.3970
 2.3930	13.3680
 2.3940	13.3420
 2.3950	13.3080
 2.3960	13.2780
 2.3970	13.2440
 2.3980	13.2010
 2.3990	13.1570
 2.4000	13.1180
 2.4010	13.0750
 2.4020	13.0350
 2.4030	12.9920
 2.4040	12.9390
 2.4050	12.8990
 2.4060	12.8660
 2.4070	12.8390
 2.4080	12.8180
 2.4090	12.7860
 2.4100	12.7500
 2.4110	12.7170
 2.4120	12.6860
 2.4130	12.6410
 2.4140	12.5910
 2.4150	12.5510
 2.4160	12.4970
 2.4170	12.4560
 2.4180	12.4240
 2.4190	12.3730
 2.4200	12.3370
 2.4210	12.3110
 2.4220	12.2740
 2.4230	12.2310
 2.4240	12.1990
 2.4250	12.1640
 2.4260	12.1140
 2.4270	12.0790
 2.4280	12.0350
 2.4290	11.9970
 2.4300	11.9800
 2.4310	11.9540
 2.4320	11.9180
 2.4330	11.8680
 2.4340	11.8180
 2.4350	11.7780
 2.4360	11.7470
 2.4370	11.7100
 2.4380	11.6690
 2.4390	11.6370
 2.4400	11.5930
 2.4410	11.5650
 2.4420	11.5580
 2.4430	11.5270
 2.4440	11.5010
 2.4450	11.4840
 2.4460	11.4380
 2.4470	11.4010
 2.4480	11.3700
 2.4490	11.3270
 2.4500	11.2900
 2.4510	11.2430
 2.4520	11.2000
 2.4530	11.1580
 2.4540	11.1320
 2.4550	11.1190
 2.4560	11.0970
 2.4570	11.0830
 2.4580	11.0550
 2.4590	11.0200
 2.4600	10.9980
 2.4610	10.9800
 2.4620	10.9610
 2.4630	10.9240
 2.4640	10.8860
 2.4650	10.8440
 2.4660	10.8020
 2.4670	10.8000
 2.4680	10.8140
 2.4690	10.8050
 2.4700	10.7880
 2.4710	10.7470
 2.4720	10.7170
 2.4730	10.7000
 2.4740	10.6830
 2.4750	10.6550
 2.4760	10.6410
 2.4770	10.6400
 2.4780	10.6100
 2.4790	10.5700
 2.4800	10.5490
 2.4810	10.5210
 2.4820	10.5250
 2.4830	10.5380
 2.4840	10.5230
 2.4850	10.4810
 2.4860	10.4780
 2.4870	10.4840
 2.4880	10.5070
 2.4890	10.5110
 2.4900	10.4570
 2.4910	10.4130
 2.4920	10.3630
 2.4930	10.3540
 2.4940	10.4040
 2.4950	10.4280
 2.4960	10.4070
 2.4970	10.3720
 2.4980	10.3730
 2.4990	10.3410
 2.5000	10.3390
